1660930786.00
64.000000
-0.00
-0.00
-0.00
-0.00
-0.00
-0.00
-0.00
-0.00
-0.00
-0.00
0.00
0.01
0.01
-0.00
-0.03
-0.05
-0.05
0.00
0.13
0.36
0.66
1.01
1.37
1.72
2.06
2.40
2.79
3.25
3.81
4.44
5.09
5.73
6.32
6.90
7.53
8.27
9.15
10.25
11.46
12.66
13.75
14.69
15.57
16.59
17.95
19.79
22.28
25.20
28.28
31.24
33.95
36.55
39.39
42.91
47.38
53.11
59.68
66.55
73.20
79.40
85.36
91.66
99.00
107.78
118.36
130.04
141.97
153.38
163.97
174.11
184.65
196.93
209.40
223.89
240.61
259.51
279.56
298.33
312.08
316.58
308.47
286.46
252.23
208.98
160.71
110.88
61.65
14.07
-31.44
-74.57
-114.95
-152.30
-187.33
-221.44
-256.31
-292.93
-330.64
-366.68
-396.60
-415.79
-421.01
-411.94
-391.30
-363.83
-334.42
-306.43
-281.05
-257.73
-235.43
-213.49
-192.21
-172.39
-154.65
-138.98
-124.73
-111.07
-97.45
-83.85
-70.73
-58.76
-48.42
-39.72
-32.26
-25.46
-18.81
-12.13
-5.62
0.34
5.39
9.37
12.42
14.85
17.00
19.08
21.12
23.01
24.58
25.66
26.18
26.19
25.80
25.25
24.75
24.46
24.43
24.59
24.76
24.73
24.35
23.60
22.59
21.47
20.44
19.61
19.00
18.56
18.17
17.72
17.14
16.44
15.70
15.00
14.41
13.98
13.67
13.46
13.27
13.04
12.73
12.32
11.82
11.30
10.83
10.48
10.27
10.16
10.07
9.93
9.74
9.53
9.36
9.27
9.24
9.18
9.00
8.63
8.09
7.45
6.80
6.26
5.89
5.75
5.85
6.15
6.55
6.92
7.09
6.95
6.48
5.73
4.81
3.89
3.06
2.41
1.96
1.70
1.59
1.55
1.51
1.33
0.92
0.26
-0.59
-1.48
-2.25
-2.79
-3.12
-3.32
-3.53
-3.87
-4.35
-4.92
-5.50
-6.06
-6.58
-7.08
-7.58
-8.02
-8.33
-8.41
-8.23
-7.84
-7.36
-6.89
-6.54
-6.32
-6.23
-6.20
-6.17
-6.06
-5.82
-5.44
-4.94
-4.36
-3.76
-3.16
-2.59
-2.05
-1.51
-1.00
-0.52
-0.10
0.25
0.53
0.77
0.99
1.20
1.36
1.43
1.38
1.27
1.19
1.23
1.48
1.90
2.35
2.68
2.76
2.60
2.32
2.12
2.11
2.31
2.62
2.90
3.05
3.06
2.99
2.90
2.82
2.72
2.61
2.50
2.46
2.55
2.76
3.00
3.14
3.13
3.02
2.94
3.03
3.30
3.64
3.88
3.90
3.69
3.36
3.04
2.83
2.72
2.69
2.68
2.66
2.64
2.62
2.59
2.51
2.38
2.23
2.13
2.13
2.27
2.54
2.87
3.19
3.41
3.50
3.47
3.36
3.25
3.22
3.31
3.53
3.81
4.10
4.36
4.56
4.70
4.76
4.74
4.68
4.63
4.61
4.62
4.59
4.43
4.05
3.48
2.80
2.18
1.72
1.48
1.40
1.41
1.46
1.54
1.69
1.89
2.07
2.11
1.93
1.52
1.02
0.62
0.46
0.62
1.00
1.43
1.72
1.75
1.54
1.19
0.80
0.47
0.18
-0.11
-0.40
-0.64
-0.75
-0.62
-0.24
0.32
0.94
1.43
1.69
1.68
1.46
1.13
0.82
0.63
0.55
0.56
0.59
0.59
0.53
0.43
0.32
0.22
0.14
0.05
-0.02
-0.06
-0.02
0.11
0.28
0.40
0.42
0.32
0.15
0.03
0.05
0.23
0.48
0.65
0.62
0.36
-0.06
-0.47
-0.70
-0.65
-0.36
0.07
0.49
0.79
0.95
0.95
0.84
0.63
0.35
0.03
-0.27
-0.46
-0.47
-0.26
0.12
0.56
0.91
1.07
1.00
0.76
0.48
0.29
0.26
0.38
0.54
0.64
0.59
0.41
0.20
0.08
0.15
0.39
0.69
0.92
1.00
0.95
0.87
0.88
0.99
1.15
1.24
1.15
0.88
0.51
0.14
-0.12
-0.21
-0.16
-0.03
0.13
0.25
0.32
0.37
0.44
0.58
0.78
1.02
1.22
1.30
1.20
0.90
0.47
-0.03
-0.48
-0.79
-0.93
-0.89
-0.72
-0.47
-0.18
0.14
0.48
0.82
1.07
1.16
1.05
0.76
0.38
0.03
-0.22
-0.33
-0.30
-0.16
0.07
0.35
0.64
0.88
1.04
1.11
1.11
1.09
1.04
0.98
0.88
0.77
0.68
0.69
0.82
1.05
1.27
1.37
1.27
0.96
0.51
0.04
-0.38
-0.66
-0.80
-0.78
-0.63
-0.36
-0.04
0.24
0.42
0.43
0.28
0.05
-0.19
-0.34
-0.36
-0.26
-0.08
0.12
0.28
0.36
0.37
0.32
0.26
0.24
0.30
0.44
0.62
0.78
0.85
0.81
0.66
0.41
0.11
-0.23
-0.58
-0.90
-1.12
-1.16
-0.99
-0.67
-0.36
-0.19
-0.22
-0.39
-0.57
-0.61
-0.47
-0.24
-0.02
0.12
0.18
0.24
0.36
0.53
0.68
0.78
0.77
0.69
0.56
0.36
0.09
-0.28
-0.69
-1.02
-1.14
-1.01
-0.66
-0.22
0.20
0.53
0.74
0.84
0.80
0.63
0.31
-0.07
-0.42
-0.62
-0.60
-0.41
-0.16
0.04
0.12
0.12
0.11
0.15
0.24
0.31
0.31
0.22
0.07
-0.05
-0.08
0.03
0.23
0.46
0.64
0.71
0.66
0.49
0.27
0.08
0.01
0.10
0.32
0.57
0.74
0.75
0.62
0.44
0.34
0.35
0.46
0.59
0.67
0.64
0.56
0.46
0.40
0.37
0.35
0.29
0.18
0.06
-0.04
-0.08
-0.04
0.06
0.20
0.33
0.42
0.43
0.37
0.29
0.24
0.24
0.29
0.34
0.33
0.27
0.17
0.11
0.15
0.29
0.42
0.42
0.19
-0.24
-0.70
-0.97
-0.92
-0.56
-0.03
0.44
0.71
0.77
0.72
0.69
0.71
0.73
0.64
0.35
-0.11
-0.62
-1.04
-1.31
-1.45
-1.59
-1.86
-2.31
-2.88
-3.38
-3.67
-3.65
-3.40
-3.11
-2.99
-3.19
-3.70
-4.44
-5.23
-5.95
-6.56
-7.07
-7.56
-8.15
-8.97
-10.14
-11.68
-13.49
-15.35
-16.96
-18.17
-19.04
-19.99
-21.57
-24.31
-28.39
-33.55
-39.11
-44.31
-48.62
-52.03
-55.13
-58.86
-64.03
-70.89
-78.95
-87.17
-94.50
-100.41
-105.18
-109.82
-115.55
-123.26
-133.27
-145.23
-158.33
-171.28
-182.30
-189.06
-189.00
-179.85
-160.40
-130.88
-92.78
-48.12
1.38
54.70
111.07
169.01
225.68
276.97
318.74
348.46
366.29
375.09
379.13
382.29
386.60
391.70
395.31
394.36
386.19
369.33
343.66
310.14
270.25
225.37
176.33
123.42
66.95
8.25
-49.67
-102.28
-144.71
-173.48
-187.90
-190.33
-185.09
-176.64
-167.92
-159.84
-151.79
-142.91
-133.11
-123.29
-114.78
-108.47
-104.18
-100.77
-96.75
-91.09
-83.66
-75.31
-67.33
-60.78
-56.05
-52.73
-49.91
-46.67
-42.48
-37.47
-32.21
-27.42
-23.60
-20.86
-18.92
-17.32
-15.64
-13.66
-11.44
-9.18
-7.13
-5.45
-4.20
-3.29
-2.61
-2.00
-1.36
-0.66
0.07
0.75
1.25
1.50
1.48
1.28
1.08
1.05
1.26
1.65
2.05
2.28
2.24
1.94
1.53
1.15
0.95
0.96
1.13
1.35
1.48
1.38
0.98
0.27
-0.64
-1.54
-2.22
-2.54
-2.46
-2.08
-1.56
-1.07
-0.72
-0.54
-0.52
-0.59
-0.72
-0.89
-1.01
-1.02
-0.84
-0.44
0.10
0.65
1.05
1.22
1.19
1.07
1.00
1.06
1.22
1.38
1.41
1.25
0.93
0.55
0.22
0.01
-0.04
0.03
0.15
0.26
0.30
0.27
0.17
0.04
-0.09
-0.23
-0.40
-0.62
-0.85
-1.05
-1.19
-1.25
-1.25
-1.21
-1.19
-1.20
-1.21
-1.20
-1.13
-0.98
-0.76
-0.53
-0.32
-0.15
-0.02
0.10
0.24
0.40
0.56
0.69
0.77
0.80
0.79
0.77
0.71
0.61
0.42
0.18
-0.08
-0.31
-0.48
-0.60
-0.69
-0.75
-0.78
-0.77
-0.73
-0.71
-0.75
-0.87
-1.04
-1.20
-1.30
-1.36
-1.41
-1.50
-1.64
-1.77
-1.76
-1.53
-1.05
-0.40
0.29
0.85
1.20
1.31
1.24
1.08
0.92
0.81
0.79
0.83
0.93
1.05
1.14
1.16
1.01
0.65
0.09
-0.58
-1.22
-1.64
-1.76
-1.57
-1.21
-0.85
-0.58
-0.44
-0.38
-0.35
-0.36
-0.45
-0.65
-0.91
-1.10
-1.12
-0.91
-0.55
-0.20
-0.00
0.02
-0.03
-0.02
0.10
0.30
0.45
0.44
0.25
-0.06
-0.38
-0.57
-0.58
-0.44
-0.21
0.02
0.19
0.29
0.32
0.31
0.26
0.17
0.04
-0.13
-0.33
-0.54
-0.77
-1.00
-1.22
-1.40
-1.50
-1.48
-1.34
-1.13
-0.89
-0.69
-0.56
-0.47
-0.39
-0.27
-0.09
0.11
0.29
0.42
0.47
0.46
0.42
0.39
0.43
0.54
0.72
0.92
1.08
1.18
1.21
1.19
1.16
1.15
1.18
1.25
1.36
1.45
1.48
1.39
1.13
0.73
0.25
-0.22
-0.59
-0.80
-0.88
-0.91
-1.00
-1.19
-1.47
-1.78
-2.04
-2.18
-2.21
-2.15
-2.04
-1.89
-1.69
-1.42
-1.05
-0.62
-0.20
0.17
0.46
0.73
1.05
1.54
2.23
3.05
3.83
4.34
4.38
3.91
3.04
2.00
1.05
0.34
-0.12
-0.41
-0.66
-0.91
-1.13
-1.22
-1.10
-0.82
-0.51
-0.36
-0.44
-0.75
-1.15
-1.48
-1.64
-1.62
-1.51
-1.41
-1.41
-1.50
-1.63
-1.75
-1.81
-1.80
-1.75
-1.70
-1.64
-1.58
-1.49
-1.34
-1.10
-0.77
-0.35
0.08
0.46
0.75
0.95
1.13
1.39
1.73
2.11
2.44
2.62
2.65
2.58
2.54
2.60
2.76
2.93
2.95
2.73
2.25
1.61
0.97
0.50
0.28
0.24
0.26
0.21
0.03
-0.23
-0.42
-0.43
-0.24
0.07
0.36
0.52
0.54
0.48
0.40
0.32
0.23
0.07
-0.17
-0.46
-0.71
-0.87
-0.90
-0.85
-0.84
-0.95
-1.20
-1.55
-1.90
-2.14
-2.20
-2.14
-2.04
-2.02
-2.14
-2.35
-2.55
-2.64
-2.57
-2.35
-2.05
-1.76
-1.54
-1.43
-1.41
-1.46
-1.57
-1.70
-1.82
-1.87
-1.82
-1.64
-1.37
-1.04
-0.73
-0.47
-0.23
0.03
0.36
0.75
1.12
1.38
1.45
1.36
1.22
1.21
1.45
1.96
2.64
3.32
3.86
4.17
4.30
4.31
4.29
4.26
4.19
4.05
3.78
3.39
2.91
2.45
2.04
1.71
1.39
1.00
0.45
-0.20
-0.84
-1.30
-1.46
-1.33
-1.01
-0.66
-0.35
-0.13
0.07
0.28
0.49
0.63
0.61
0.41
0.06
-0.33
-0.69
-0.97
-1.21
-1.45
-1.71
-1.96
-2.13
-2.15
-2.00
-1.74
-1.48
-1.30
-1.23
-1.24
-1.24
-1.13
-0.92
-0.65
-0.43
-0.35
-0.46
-0.70
-0.95
-1.08
-1.00
-0.72
-0.31
0.12
0.45
0.61
0.62
0.50
0.35
0.21
0.12
0.06
0.04
0.06
0.17
0.41
0.78
1.24
1.68
1.99
2.09
2.00
1.77
1.52
1.30
1.15
1.05
0.95
0.83
0.66
0.40
0.04
-0.41
-0.88
-1.29
-1.51
-1.50
-1.28
-0.97
-0.69
-0.53
-0.52
-0.60
-0.71
-0.79
-0.86
-0.95
-1.11
-1.35
-1.61
-1.78
-1.78
-1.56
-1.17
-0.71
-0.33
-0.14
-0.12
-0.20
-0.22
-0.13
0.08
0.29
0.39
0.31
0.08
-0.20
-0.42
-0.51
-0.49
-0.35
-0.14
0.16
0.53
0.90
1.21
1.37
1.38
1.26
1.10
0.94
0.83
0.75
0.67
0.59
0.52
0.49
0.52
0.61
0.78
1.01
1.31
1.65
1.97
2.18
2.19
1.97
1.55
1.00
0.44
-0.06
-0.47
-0.78
-0.98
-1.10
-1.13
-1.08
-1.00
-0.97
-1.02
-1.15
-1.26
-1.26
-1.10
-0.81
-0.49
-0.24
-0.15
-0.24
-0.49
-0.89
-1.39
-1.97
-2.53
-2.98
-3.20
-3.15
-2.86
-2.41
-1.94
-1.49
-1.08
-0.70
-0.34
-0.03
0.18
0.25
0.18
0.02
-0.14
-0.23
-0.16
0.09
0.52
1.08
1.67
2.14
2.34
2.20
1.80
1.32
0.96
0.85
1.00
1.27
1.51
1.61
1.56
1.43
1.29
1.19
1.12
1.05
0.98
0.94
0.99
1.16
1.42
1.69
1.86
1.84
1.59
1.12
0.53
-0.08
-0.61
-0.99
-1.23
-1.36
-1.43
-1.49
-1.53
-1.52
-1.46
-1.30
-1.06
-0.77
-0.44
-0.12
0.15
0.34
0.38
0.25
-0.04
-0.42
-0.79
-1.00
-0.99
-0.78
-0.48
-0.24
-0.13
-0.15
-0.22
-0.26
-0.24
-0.20
-0.20
-0.24
-0.29
-0.24
-0.05
0.24
0.50
0.58
0.43
0.06
-0.43
-0.91
-1.29
-1.54
-1.61
-1.50
-1.20
-0.75
-0.23
0.27
0.65
0.86
0.90
0.79
0.60
0.36
0.11
-0.10
-0.25
-0.29
-0.23
-0.09
0.06
0.19
0.23
0.21
0.17
0.17
0.26
0.47
0.82
1.27
1.76
2.19
2.46
2.48
2.21
1.66
0.91
0.07
-0.73
-1.40
-1.86
-2.09
-2.09
-1.91
-1.63
-1.32
-1.02
-0.76
-0.54
-0.38
-0.36
-0.52
-0.88
-1.32
-1.62
-1.58
-1.06
-0.15
0.91
1.80
2.32
2.43
2.30
2.15
2.16
2.35
2.61
2.79
2.77
2.52
2.10
1.57
1.01
0.48
-0.02
-0.45
-0.78
-0.98
-1.05
-0.98
-0.87
-0.78
-0.79
-0.94
-1.21
-1.52
-1.78
-1.94
-1.97
-1.88
-1.73
-1.55
-1.39
-1.26
-1.18
-1.10
-1.00
-0.86
-0.69
-0.49
-0.31
-0.17
-0.10
-0.08
-0.14
-0.29
-0.55
-0.89
-1.23
-1.44
-1.38
-1.03
-0.46
0.16
0.67
0.97
1.10
1.16
1.25
1.43
1.68
1.93
2.12
2.20
2.15
2.00
1.77
1.48
1.17
0.84
0.51
0.20
-0.05
-0.21
-0.24
-0.18
-0.11
-0.15
-0.39
-0.80
-1.31
-1.76
-2.06
-2.18
-2.14
-1.99
-1.75
-1.42
-0.99
-0.54
-0.19
-0.06
-0.21
-0.55
-0.95
-1.23
-1.28
-1.07
-0.67
-0.20
0.22
0.52
0.67
0.69
0.59
0.44
0.28
0.17
0.16
0.27
0.50
0.81
1.14
1.43
1.63
1.71
1.70
1.67
1.67
1.79
2.03
2.37
2.74
3.05
3.22
3.17
2.91
2.51
2.06
1.65
1.31
1.02
0.78
0.55
0.34
0.18
0.04
-0.15
-0.48
-0.99
-1.62
-2.20
-2.54
-2.54
-2.22
-1.75
-1.36
-1.17
-1.19
-1.30
-1.39
-1.40
-1.36
-1.33
-1.37
-1.42
-1.41
-1.27
-0.99
-0.64
-0.31
-0.11
-0.08
-0.18
-0.31
-0.37
-0.27
-0.02
0.30
0.57
0.68
0.64
0.51
0.42
0.40
0.42
0.34
0.08
-0.35
-0.81
-1.11
-1.15
-0.94
-0.60
-0.25
0.02
0.23
0.42
0.63
0.84
0.96
0.96
0.79
0.50
0.19
-0.04
-0.08
0.07
0.34
0.61
0.76
0.75
0.64
0.53
0.54
0.68
0.92
1.17
1.36
1.47
1.49
1.43
1.31
1.13
0.94
0.79
0.72
0.75
0.80
0.81
0.70
0.44
0.08
-0.29
-0.59
-0.80
-0.94
-1.06
-1.19
-1.33
-1.45
-1.56
-1.70
-1.99
-2.48
-3.14
-3.82
-4.28
-4.34
-3.95
-3.19
-2.31
-1.55
-1.08
-0.91
-0.94
-0.98
-0.88
-0.53
0.07
0.82
1.60
2.32
2.89
3.26
3.38
3.19
2.66
1.84
0.86
-0.06
-0.71
-0.98
-0.86
-0.45
0.09
0.62
1.06
1.38
1.58
1.67
1.67
1.58
1.43
1.21
0.94
0.61
0.28
0.01
-0.16
-0.19
-0.12
-0.04
0.02
0.03
0.04
0.10
0.24
0.43
0.58
0.64
0.56
0.35
0.08
-0.20
-0.49
-0.76
-1.01
-1.18
-1.21
-1.06
-0.73
-0.34
-0.02
0.12
0.04
-0.23
-0.59
-0.96
-1.26
-1.47
-1.60
-1.64
-1.63
-1.58
-1.51
-1.42
-1.31
-1.17
-1.00
-0.81
-0.63
-0.47
-0.29
-0.03
0.39
0.99
1.70
2.39
2.88
3.04
2.82
2.29
1.53
0.68
-0.15
-0.86
-1.34
-1.53
-1.41
-1.03
-0.54
-0.05
0.32
0.54
0.64
0.64
0.58
0.49
0.38
0.29
0.23
0.22
0.23
0.23
0.21
0.18
0.15
0.14
0.13
0.05
-0.10
-0.34
-0.59
-0.77
-0.76
-0.50
-0.01
0.66
1.39
2.02
2.41
2.47
2.15
1.54
0.74
-0.07
-0.75
-1.20
-1.39
-1.37
-1.23
-1.04
-0.87
-0.73
-0.63
-0.63
-0.77
-1.11
-1.65
-2.26
-2.80
-3.09
-3.02
-2.58
-1.91
-1.16
-0.50
0.03
0.45
0.86
1.33
1.90
2.53
3.15
3.71
4.17
4.47
4.55
4.36
3.86
3.06
2.07
1.06
0.21
-0.36
-0.66
-0.75
-0.78
-0.85
-1.02
-1.28
-1.54
-1.72
-1.77
-1.71
-1.59
-1.49
-1.48
-1.54
-1.62
-1.67
-1.65
-1.58
-1.50
-1.47
-1.52
-1.63
-1.69
-1.65
-1.46
-1.12
-0.71
-0.31
0.03
0.27
0.40
0.45
0.44
0.38
0.28
0.14
-0.02
-0.15
-0.18
-0.02
0.34
0.84
1.34
1.73
1.93
1.96
1.93
1.93
1.96
1.99
1.93
1.75
1.55
1.42
1.47
1.68
1.96
2.19
2.27
2.21
2.07
1.91
1.73
1.47
1.05
0.45
-0.21
-0.74
-0.96
-0.79
-0.34
0.18
0.55
0.61
0.41
0.08
-0.24
-0.45
-0.61
-0.79
-1.06
-1.40
-1.73
-1.94
-1.99
-1.88
-1.70
-1.53
-1.40
-1.27
-1.11
-0.92
-0.72
-0.59
-0.59
-0.73
-0.97
-1.23
-1.45
-1.61
-1.72
-1.81
-1.87
-1.88
-1.83
-1.71
-1.53
-1.29
-1.02
-0.74
-0.46
-0.22
-0.02
0.14
0.33
0.58
0.92
1.31
1.66
1.90
1.95
1.83
1.58
1.28
0.96
0.62
0.25
-0.14
-0.51
-0.79
-0.92
-0.86
-0.66
-0.39
-0.16
-0.05
-0.09
-0.24
-0.44
-0.63
-0.77
-0.87
-0.91
-0.89
-0.80
-0.64
-0.42
-0.16
0.11
0.42
0.80
1.30
1.93
2.64
3.30
3.78
3.99
3.85
3.37
2.62
1.72
0.78
-0.04
-0.65
-1.01
-1.14
-1.10
-1.00
-0.90
-0.87
-0.90
-0.98
-1.08
-1.18
-1.27
-1.32
-1.32
-1.25
-1.10
-0.92
-0.73
-0.61
-0.60
-0.69
-0.83
-0.90
-0.81
-0.53
-0.13
0.27
0.51
0.50
0.22
-0.27
-0.86
-1.42
-1.81
-1.95
-1.82
-1.51
-1.11
-0.73
-0.41
-0.11
0.24
0.70
1.28
1.95
2.65
3.35
3.99
4.50
4.77
4.68
4.16
3.28
2.19
1.10
0.14
-0.61
-1.18
-1.60
-1.92
-2.14
-2.27
-2.28
-2.21
-2.08
-1.92
-1.73
-1.50
-1.23
-0.89
-0.53
-0.18
0.08
0.22
0.26
0.24
0.25
0.33
0.43
0.48
0.42
0.28
0.13
0.10
0.23
0.46
0.65
0.64
0.40
0.01
-0.36
-0.57
-0.55
-0.35
-0.08
0.15
0.28
0.31
0.26
0.17
0.07
-0.04
-0.13
-0.18
-0.15
-0.04
0.11
0.25
0.32
0.31
0.28
0.33
0.60
1.13
1.89
2.72
3.45
3.88
3.94
3.63
3.05
2.33
1.55
0.75
-0.06
-0.88
-1.67
-2.34
-2.81
-3.07
-3.20
-3.35
-3.65
-4.09
-4.54
-4.80
-4.73
-4.36
-3.90
-3.60
-3.63
-3.91
-4.21
-4.25
-3.86
-3.04
-1.95
-0.72
0.55
1.86
3.18
4.38
5.26
5.66
5.48
4.83
3.89
2.88
1.90
0.99
0.15
-0.56
-1.01
-1.07
-0.67
0.06
0.90
1.56
1.85
1.74
1.36
0.95
0.67
0.62
0.79
1.08
1.42
1.68
1.79
1.68
1.30
0.69
-0.07
-0.83
-1.38
-1.56
-1.25
-0.43
0.80
2.26
3.73
4.94
5.67
5.75
5.14
3.90
2.25
0.47
-1.13
-2.33
-3.03
-3.27
-3.14
-2.79
-2.31
-1.75
-1.20
-0.73
-0.41
-0.27
-0.27
-0.32
-0.33
-0.29
-0.24
-0.28
-0.47
-0.80
-1.19
-1.53
-1.75
-1.81
-1.79
-1.76
-1.81
-1.97
-2.21
-2.46
-2.62
-2.60
-2.33
-1.81
-1.13
-0.48
-0.04
0.07
-0.13
-0.48
-0.75
-0.77
-0.54
-0.17
0.14
0.26
0.19
0.04
-0.05
-0.02
0.11
0.25
0.31
0.27
0.15
0.01
-0.12
-0.23
-0.32
-0.42
-0.52
-0.62
-0.74
-0.85
-0.93
-0.98
-0.98
-0.96
-0.94
-0.88
-0.64
-0.08
0.92
2.30
3.85
5.23
6.11
6.30
5.82
4.85
3.61
2.31
1.11
0.08
-0.70
-1.17
-1.31
-1.15
-0.83
-0.50
-0.33
-0.39
-0.64
-0.96
-1.24
-1.37
-1.35
-1.23
-1.09
-1.01
-1.01
-1.04
-1.03
-0.90
-0.63
-0.24
0.19
0.52
0.68
0.66
0.53
0.41
0.41
0.53
0.69
0.75
0.61
0.26
-0.16
-0.51
-0.66
-0.62
-0.50
-0.44
-0.54
-0.77
-1.02
-1.13
-1.02
-0.71
-0.28
0.11
0.38
0.49
0.51
0.51
0.51
0.50
0.40
0.15
-0.23
-0.64
-0.97
-1.10
-1.02
-0.81
-0.63
-0.60
-0.75
-1.04
-1.30
-1.40
-1.29
-1.03
-0.75
-0.60
-0.63
-0.82
-1.04
-1.19
-1.18
-1.01
-0.70
-0.27
0.27
0.94
1.71
2.53
3.26
3.76
3.92
3.75
3.36
2.92
2.60
2.48
2.50
2.49
2.23
1.58
0.56
-0.65
-1.76
-2.50
-2.68
-2.31
-1.53
-0.56
0.37
1.11
1.60
1.81
1.81
1.64
1.38
1.10
0.84
0.64
0.46
0.27
0.01
-0.30
-0.61
-0.86
-0.98
-0.97
-0.87
-0.76
-0.68
-0.62
-0.53
-0.38
-0.18
-0.00
0.06
-0.05
-0.31
-0.64
-0.92
-1.04
-0.98
-0.79
-0.54
-0.33
-0.19
-0.11
-0.04
0.08
0.27
0.46
0.60
0.62
0.50
0.30
0.13
0.12
0.31
0.64
0.97
1.15
1.07
0.78
0.38
0.01
-0.26
-0.46
-0.64
-0.87
-1.12
-1.33
-1.44
-1.45
-1.43
-1.45
-1.54
-1.66
-1.71
-1.63
-1.39
-1.05
-0.65
-0.26
0.04
0.19
0.13
-0.14
-0.52
-0.88
-1.08
-1.06
-0.86
-0.59
-0.38
-0.31
-0.34
-0.42
-0.47
-0.46
-0.40
-0.31
-0.24
-0.25
-0.37
-0.61
-0.95
-1.29
-1.48
-1.38
-0.91
-0.14
0.80
1.69
2.36
2.73
2.82
2.72
2.53
2.32
2.09
1.84
1.50
1.06
0.52
-0.06
-0.55
-0.82
-0.78
-0.42
0.14
0.72
1.13
1.27
1.16
0.91
0.64
0.45
0.37
0.42
0.67
1.18
1.95
2.91
3.86
4.52
4.67
4.23
3.28
2.04
0.81
-0.16
-0.77
-1.03
-1.08
-1.08
-1.16
-1.39
-1.76
-2.20
-2.63
-2.97
-3.15
-3.17
-3.05
-2.83
-2.57
-2.32
-2.14
-2.04
-2.03
-2.07
-2.10
-2.09
-1.98
-1.77
-1.47
-1.13
-0.78
-0.38
0.07
0.58
1.11
1.53
1.74
1.69
1.44
1.12
0.88
0.78
0.83
0.91
0.91
0.76
0.49
0.20
-0.01
-0.06
0.04
0.21
0.35
0.39
0.35
0.29
0.29
0.39
0.55
0.71
0.80
0.81
0.80
0.82
0.92
1.09
1.26
1.35
1.29
1.10
0.82
0.54
0.32
0.16
0.02
-0.21
-0.56
-1.03
-1.52
-1.91
-2.09
-2.03
-1.79
-1.48
-1.22
-1.05
-0.96
-0.91
-0.85
-0.75
-0.64
-0.51
-0.40
-0.31
-0.24
-0.25
-0.34
-0.54
-0.83
-1.16
-1.49
-1.76
-1.97
-2.13
-2.24
-2.34
-2.40
-2.43
-2.42
-2.38
-2.35
-2.36
-2.46
-2.68
-3.01
-3.42
-3.88
-4.32
-4.73
-5.07
-5.30
-5.34
-5.17
-4.76
-4.14
-3.30
-2.22
-0.83
0.90
2.95
5.11
7.10
8.57
9.26
9.11
8.24
6.92
5.47
4.12
3.01
2.16
1.53
1.08
0.79
0.63
0.58
0.53
0.37
0.01
-0.52
-1.03
-1.29
-1.08
-0.38
0.64
1.72
2.60
3.16
3.40
3.43
3.35
3.27
3.26
3.37
3.64
3.99
4.30
4.39
4.14
3.52
2.67
1.75
0.90
0.21
-0.33
-0.69
-0.83
-0.72
-0.36
0.14
0.61
0.90
0.92
0.74
0.55
0.50
0.69
1.06
1.49
1.85
2.04
2.08
2.04
2.01
2.09
2.31
2.67
3.11
3.54
3.79
3.72
3.23
2.34
1.22
0.10
-0.86
-1.59
-2.16
-2.65
-3.13
-3.50
-3.68
-3.59
-3.30
-2.95
-2.74
-2.76
-2.98
-3.27
-3.47
-3.50
-3.39
-3.21
-3.02
-2.84
-2.59
-2.23
-1.75
-1.24
-0.82
-0.59
-0.59
-0.79
-1.05
-1.26
-1.32
-1.19
-0.89
-0.52
-0.15
0.12
0.24
0.20
0.07
-0.07
-0.14
-0.14
-0.11
-0.13
-0.22
-0.35
-0.39
-0.27
0.07
0.54
1.00
1.32
1.41
1.29
1.01
0.67
0.31
-0.03
-0.38
-0.72
-1.05
-1.33
-1.56
-1.71
-1.80
-1.84
-1.83
-1.77
-1.68
-1.56
-1.46
-1.40
-1.37
-1.33
-1.21
-0.97
-0.58
-0.14
0.23
0.44
0.47
0.41
0.41
0.59
0.97
1.49
2.02
2.48
2.84
3.10
3.25
3.24
3.00
2.49
1.76
0.98
0.32
-0.11
-0.34
-0.47
-0.62
-0.86
-1.14
-1.32
-1.31
-1.07
-0.63
-0.12
0.34
0.66
0.80
0.74
0.52
0.21
-0.13
-0.46
-0.71
-0.87
-0.93
-0.89
-0.78
-0.62
-0.49
-0.46
-0.60
-0.91
-1.32
-1.69
-1.82
-1.62
-1.06
-0.30
0.45
1.02
1.33
1.42
1.42
1.37
1.26
1.03
0.59
-0.00
-0.62
-1.09
-1.32
-1.35
-1.32
-1.41
-1.70
-2.18
-2.71
-3.13
-3.36
-3.40
-3.34
-3.35
-3.53
-3.91
-4.38
-4.74
-4.80
-4.41
-3.60
-2.52
-1.37
-0.36
0.42
0.97
1.40
1.78
2.17
2.54
2.82
2.90
2.74
2.32
1.71
1.00
0.28
-0.36
-0.85
-1.13
-1.19
-1.07
-0.87
-0.81
-1.07
-1.77
-2.81
-3.91
-4.63
-4.64
-3.80
-2.26
-0.40
1.34
2.66
3.41
3.64
3.46
3.02
2.42
1.78
1.24
0.94
1.01
1.44
2.06
2.61
2.84
2.65
2.12
1.48
0.99
0.76
0.76
0.81
0.75
0.50
0.12
-0.29
-0.63
-0.88
-1.10
-1.34
-1.62
-1.86
-2.00
-2.05
-2.07
-2.16
-2.34
-2.50
-2.43
-1.91
-0.87
0.53
1.99
3.14
3.79
3.96
3.88
3.81
3.87
4.04
4.12
3.91
3.35
2.52
1.62
0.84
0.28
-0.09
-0.40
-0.77
-1.24
-1.76
-2.20
-2.42
-2.37
-2.12
-1.79
-1.54
-1.44
-1.43
-1.35
-1.06
-0.45
0.41
1.40
2.32
3.04
3.48
3.66
3.64
3.53
3.42
3.37
3.37
3.35
3.17
2.73
1.99
1.05
0.09
-0.70
-1.24
-1.56
-1.77
-1.99
-2.24
-2.43
-2.42
-2.10
-1.46
-0.62
0.21
0.88
1.32
1.58
1.77
1.99
2.27
2.56
2.77
2.81
2.66
2.31
1.83
1.32
0.89
0.68
0.72
0.97
1.30
1.52
1.48
1.18
0.69
0.21
-0.12
-0.29
-0.37
-0.53
-0.85
-1.28
-1.66
-1.83
-1.70
-1.31
-0.82
-0.40
-0.11
0.05
0.16
0.28
0.38
0.41
0.34
0.23
0.20
0.35
0.66
1.02
1.28
1.30
1.07
0.69
0.31
0.01
-0.17
-0.23
-0.21
-0.11
0.05
0.23
0.35
0.32
0.14
-0.17
-0.50
-0.77
-0.92
-0.95
-0.89
-0.73
-0.52
-0.28
-0.10
-0.05
-0.16
-0.41
-0.72
-1.01
-1.22
-1.35
-1.44
-1.51
-1.54
-1.47
-1.25
-0.87
-0.36
0.16
0.59
0.85
0.91
0.78
0.52
0.22
-0.05
-0.23
-0.29
-0.24
-0.08
0.11
0.28
0.34
0.26
0.07
-0.16
-0.34
-0.43
-0.40
-0.31
-0.19
-0.08
0.01
0.04
0.01
-0.12
-0.32
-0.55
-0.74
-0.81
-0.76
-0.62
-0.47
-0.37
-0.32
-0.26
-0.13
0.11
0.42
0.70
0.84
0.79
0.59
0.32
0.04
-0.17
-0.31
-0.35
-0.30
-0.15
0.08
0.33
0.50
0.55
0.44
0.23
0.02
-0.07
0.03
0.31
0.70
1.11
1.45
1.65
1.68
1.54
1.24
0.84
0.36
-0.10
-0.44
-0.57
-0.49
-0.24
0.05
0.27
0.34
0.30
0.21
0.08
-0.07
-0.31
-0.61
-0.94
-1.16
-1.20
-1.04
-0.77
-0.54
-0.45
-0.52
-0.66
-0.76
-0.77
-0.68
-0.56
-0.52
-0.64
-0.90
-1.19
-1.37
-1.31
-0.97
-0.45
0.05
0.36
0.39
0.19
-0.09
-0.28
-0.29
-0.13
0.09
0.26
0.32
0.26
0.10
-0.13
-0.42
-0.76
-1.16
-1.57
-1.95
-2.24
-2.42
-2.47
-2.44
-2.37
-2.29
-2.18
-1.97
-1.55
-0.90
-0.06
0.83
1.57
2.02
2.14
2.02
1.77
1.54
1.40
1.37
1.43
1.55
1.68
1.78
1.80
1.71
1.50
1.22
0.86
0.44
-0.05
-0.64
-1.31
-2.03
-2.74
-3.39
-3.94
-4.35
-4.62
-4.81
-4.98
-5.21
-5.55
-5.98
-6.38
-6.59
-6.49
-6.08
-5.52
-5.09
-5.08
-5.61
-6.53
-7.54
-8.22
-8.35
-8.00
-7.57
-7.61
-8.52
-10.30
-12.46
-14.20
-14.80
-13.98
-12.14
-10.29
-9.60
-10.93
-14.34
-19.03
-23.57
-26.51
-27.00
-25.14
-21.98
-19.13
-18.15
-19.89
-24.27
-30.14
-35.50
-37.72
-34.09
-22.60
-2.77
23.74
53.14
80.58
101.66
114.04
118.19
117.00
114.22
112.45
111.81
110.04
103.92
91.32
72.59
50.61
29.44
12.41
0.78
-6.34
-11.07
-15.19
-19.19
-22.36
-23.67
-22.81
-20.63
-18.78
-18.77
-21.24
-25.58
-30.43
-34.24
-36.00
-35.65
-33.94
-32.05
-30.98
-31.18
-32.34
-33.62
-34.07
-33.04
-30.37
-26.40
-21.70
-16.84
-12.22
-8.02
-4.27
-0.91
2.04
4.45
6.11
6.80
6.42
5.09
3.16
1.16
-0.41
-1.20
-1.17
-0.49
0.53
1.60
2.55
3.27
3.77
4.06
4.15
4.05
3.78
3.34
2.72
1.94
1.00
0.00
-0.94
-1.72
-2.27
-2.59
-2.76
-2.86
-2.95
-3.03
-3.04
-2.94
-2.70
-2.35
-1.92
-1.50
-1.18
-1.03
-1.10
-1.38
-1.78
-2.16
-2.38
-2.40
-2.25
-2.04
-1.83
-1.68
-1.54
-1.35
-1.09
-0.77
-0.44
-0.13
0.13
0.29
0.38
0.40
0.40
0.46
0.63
0.94
1.34
1.74
2.04
2.18
2.21
2.23
2.32
2.50
2.71
2.90
3.00
3.04
3.05
3.08
3.10
3.00
2.66
2.04
1.18
0.26
-0.54
-1.12
-1.48
-1.68
-1.81
-1.91
-1.96
-1.91
-1.80
-1.66
-1.57
-1.57
-1.62
-1.65
-1.61
-1.48
-1.30
-1.10
-0.92
-0.74
-0.58
-0.42
-0.26
-0.13
-0.02
0.04
0.05
-0.03
-0.18
-0.38
-0.60
-0.79
-0.94
-1.03
-1.08
-1.11
-1.11
-1.11
-1.10
-1.10
-1.11
-1.14
-1.20
-1.28
-1.38
-1.50
-1.62
-1.71
-1.74
-1.68
-1.53
-1.30
-1.07
-0.91
-0.86
-0.91
-0.97
-0.93
-0.74
-0.40
-0.02
0.25
0.31
0.11
-0.25
-0.63
-0.85
-0.85
-0.65
-0.35
-0.09
0.04
0.03
-0.02
-0.00
0.16
0.43
0.68
0.79
0.68
0.40
0.09
-0.10
-0.11
0.02
0.16
0.21
0.14
-0.01
-0.14
-0.20
-0.20
-0.17
-0.17
-0.23
-0.30
-0.34
-0.30
-0.18
-0.01
0.16
0.31
0.40
0.46
0.50
0.53
0.55
0.54
0.47
0.33
0.15
-0.06
-0.26
-0.43
-0.55
-0.59
-0.54
-0.39
-0.18
0.01
0.08
-0.02
-0.27
-0.56
-0.77
-0.79
-0.62
-0.32
0.02
0.31
0.55
0.74
0.89
1.00
1.00
0.87
0.60
0.23
-0.16
-0.48
-0.67
-0.70
-0.61
-0.46
-0.31
-0.23
-0.21
-0.27
-0.38
-0.52
-0.65
-0.74
-0.75
-0.66
-0.50
-0.27
-0.00
0.28
0.55
0.79
0.95
1.00
0.90
0.67
0.34
-0.02
-0.34
-0.55
-0.59
-0.47
-0.21
0.11
0.39
0.53
0.51
0.37
0.22
0.16
0.27
0.49
0.71
0.81
0.73
0.47
0.14
-0.14
-0.27
-0.24
-0.07
0.13
0.26
0.24
0.04
-0.28
-0.64
-0.93
-1.06
-0.99
-0.76
-0.43
-0.10
0.17
0.33
0.38
0.34
0.25
0.17
0.12
0.10
0.05
-0.03
-0.14
-0.23
-0.25
-0.20
-0.12
-0.09
-0.18
-0.37
-0.61
-0.80
-0.84
-0.69
-0.39
-0.05
0.24
0.41
0.43
0.33
0.18
0.05
-0.02
-0.01
0.06
0.18
0.33
0.50
0.67
0.77
0.76
0.65
0.46
0.28
0.18
0.19
0.27
0.36
0.42
0.42
0.37
0.27
0.15
0.02
-0.08
-0.08
0.03
0.24
0.47
0.58
0.50
0.21
-0.16
-0.48
-0.64
-0.64
-0.56
-0.49
-0.51
-0.62
-0.72
-0.74
-0.62
-0.34
0.03
0.43
0.76
0.93
0.87
0.57
0.09
-0.44
-0.84
-0.97
-0.78
-0.38
0.08
0.45
0.63
0.66
0.59
0.46
0.29
0.02
-0.32
-0.67
-0.91
-0.96
-0.81
-0.52
-0.22
0.02
0.16
0.25
0.30
0.34
0.33
0.26
0.13
-0.01
-0.07
-0.01
0.15
0.35
0.48
0.46
0.29
0.03
-0.23
-0.37
-0.36
-0.23
-0.05
0.08
0.12
0.09
0.04
0.04
0.12
0.26
0.44
0.58
0.65
0.59
0.42
0.15
-0.16
-0.45
-0.64
-0.68
-0.57
-0.35
-0.08
0.14
0.23
0.14
-0.14
-0.50
-0.83
-1.00
-0.95
-0.67
-0.27
0.15
0.46
0.65
0.73
0.76
0.79
0.84
0.86
0.81
0.68
0.50
0.35
0.29
0.37
0.52
0.60
0.51
0.15
-0.43
-1.09
-1.62
-1.87
-1.77
-1.37
-0.87
-0.46
-0.28
-0.36
-0.56
-0.72
-0.67
-0.40
0.01
0.40
0.59
0.53
0.25
-0.15
-0.52
-0.76
-0.81
-0.69
-0.48
-0.26
-0.09
-0.02
-0.02
-0.07
-0.13
-0.20
-0.30
-0.45
-0.66
-0.88
-1.06
-1.14
-1.11
-1.00
-0.85
-0.71
-0.61
-0.56
-0.58
-0.70
-0.90
-1.15
-1.38
-1.51
-1.50
-1.37
-1.22
-1.19
-1.37
-1.81
-2.44
-3.10
-3.63
-3.95
-4.05
-4.01
-3.95
-4.00
-4.21
-4.56
-4.91
-5.13
-5.10
-4.80
-4.28
-3.67
-3.04
-2.43
-1.77
-1.00
-0.09
0.92
1.88
2.61
2.89
2.52
1.31
-0.78
-3.67
-7.10
-10.65
-13.93
-16.65
-18.73
-20.34
-21.74
-23.17
-24.72
-26.22
-27.35
-27.70
-26.90
-24.75
-21.24
-16.63
-11.34
-5.90
-0.76
3.79
7.76
11.38
15.11
19.36
24.31
29.75
35.18
39.88
43.27
45.04
45.23
44.19
42.37
40.16
37.81
35.42
32.99
30.49
27.89
25.12
22.11
18.80
15.31
11.88
8.92
6.77
5.61
5.30
5.39
5.33
4.65
3.17
1.06
-1.27
-3.37
-4.91
-5.75
-5.96
-5.72
-5.26
-4.80
-4.60
-4.90
-5.91
-7.72
-10.21
-13.07
-15.83
-18.00
-19.24
-19.45
-18.79
-17.51
-15.90
-14.16
-12.39
-10.65
-8.99
-7.50
-6.23
-5.24
-4.47
-3.90
-3.44
-3.05
-2.69
-2.36
-2.03
-1.67
-1.26
-0.83
-0.39
0.01
0.34
0.57
0.66
0.63
0.49
0.30
0.11
-0.02
-0.04
0.05
0.23
0.44
0.63
0.74
0.76
0.70
0.61
0.54
0.53
0.55
0.57
0.54
0.42
0.23
-0.00
-0.23
-0.43
-0.59
-0.73
-0.85
-0.93
-0.96
-0.90
-0.77
-0.59
-0.42
-0.31
-0.29
-0.34
-0.41
-0.41
-0.29
-0.06
0.24
0.52
0.71
0.75
0.68
0.57
0.48
0.43
0.43
0.45
0.47
0.53
0.64
0.80
0.94
0.97
0.80
0.45
0.03
-0.34
-0.55
-0.57
-0.46
-0.30
-0.17
-0.12
-0.16
-0.27
-0.45
-0.64
-0.83
-0.98
-1.04
-1.03
-0.94
-0.80
-0.60
-0.37
-0.11
0.16
0.38
0.51
0.51
0.38
0.18
-0.02
-0.12
-0.09
0.05
0.23
0.39
0.44
0.37
0.17
-0.13
-0.46
-0.73
-0.88
-0.86
-0.70
-0.43
-0.15
0.13
0.39
0.64
0.86
0.98
0.94
0.70
0.30
-0.14
-0.46
-0.58
-0.51
-0.32
-0.11
0.04
0.11
0.12
0.06
-0.05
-0.20
-0.31
-0.32
-0.20
0.06
0.33
0.50
0.50
0.35
0.14
-0.03
-0.10
-0.12
-0.14
-0.22
-0.33
-0.43
-0.48
-0.48
-0.50
-0.57
-0.66
-0.68
-0.54
-0.23
0.17
0.54
0.74
0.75
0.63
0.48
0.38
0.34
0.30
0.21
0.05
-0.15
-0.28
-0.28
-0.09
0.25
0.65
0.96
1.08
0.96
0.62
0.19
-0.19
-0.40
-0.44
-0.36
-0.30
-0.34
-0.49
-0.68
-0.80
-0.78
-0.58
-0.28
0.04
0.30
0.45
0.48
0.39
0.17
-0.12
-0.43
-0.69
-0.85
-0.87
-0.80
-0.69
-0.60
-0.53
-0.46
-0.35
-0.19
0.00
0.19
0.33
0.43
0.49
0.54
0.55
0.53
0.46
0.35
0.25
0.16
0.12
0.09
0.05
0.02
-0.01
0.01
0.10
0.22
0.34
0.41
0.40
0.34
0.29
0.33
0.48
0.70
0.90
0.96
0.82
0.53
0.17
-0.14
-0.31
-0.37
-0.39
-0.45
-0.55
-0.63
-0.62
-0.47
-0.24
-0.07
-0.07
-0.26
-0.57
-0.85
-0.99
-0.94
-0.76
-0.58
-0.47
-0.44
-0.45
-0.41
-0.28
-0.05
0.23
0.48
0.64
0.66
0.56
0.41
0.30
0.30
0.39
0.48
0.49
0.39
0.23
0.12
0.13
0.23
0.31
0.26
0.03
-0.30
-0.58
-0.68
-0.60
-0.41
-0.22
-0.09
-0.01
0.06
0.14
0.18
0.12
-0.07
-0.31
-0.48
-0.47
-0.21
0.18
0.56
0.78
0.79
0.68
0.56
0.56
0.68
0.82
0.84
0.65
0.28
-0.15
-0.44
-0.47
-0.24
0.13
0.42
0.48
0.27
-0.12
-0.51
-0.73
-0.70
-0.48
-0.23
-0.09
-0.13
-0.32
-0.53
-0.66
-0.64
-0.49
-0.26
-0.03
0.12
0.18
0.10
-0.06
-0.25
-0.38
-0.37
-0.19
0.13
0.49
0.75
0.81
0.67
0.39
0.09
-0.10
-0.13
0.02
0.27
0.52
0.68
0.69
0.56
0.35
0.14
0.01
-0.01
0.05
0.12
0.12
0.04
-0.09
-0.20
-0.21
-0.09
0.14
0.39
0.55
0.58
0.47
0.28
0.10
-0.03
-0.12
-0.21
-0.33
-0.49
-0.67
-0.83
-0.94
-0.98
-0.93
-0.77
-0.48
-0.07
0.38
0.76
0.92
0.78
0.36
-0.21
-0.69
-0.90
-0.74
-0.28
0.30
0.77
1.00
0.96
0.77
0.58
0.49
0.51
0.54
0.46
0.23
-0.12
-0.43
-0.59
-0.52
-0.30
-0.08
-0.00
-0.13
-0.41
-0.69
-0.83
-0.77
-0.59
-0.40
-0.28
-0.26
-0.25
-0.17
0.00
0.21
0.36
0.39
0.32
0.21
0.15
0.18
0.26
0.35
0.36
0.28
0.13
-0.04
-0.19
-0.31
-0.39
-0.47
-0.58
-0.70
-0.83
-0.94
-0.95
-0.84
-0.60
-0.27
0.05
0.27
0.38
0.37
0.32
0.28
0.23
0.14
-0.06
-0.35
-0.63
-0.75
-0.61
-0.24
0.23
0.59
0.70
0.53
0.22
-0.07
-0.19
-0.12
0.07
0.26
0.33
0.27
0.12
-0.03
-0.09
-0.03
0.11
0.28
0.42
0.53
0.62
0.75
0.91
1.05
1.10
0.99
0.71
0.31
-0.13
-0.52
-0.82
-1.02
-1.08
-0.98
-0.71
-0.30
0.18
0.59
0.83
0.83
0.62
0.31
0.02
-0.17
-0.25
-0.29
-0.36
-0.51
-0.74
-0.98
-1.10
-1.03
-0.74
-0.28
0.23
0.64
0.84
0.79
0.55
0.24
0.00
-0.08
-0.01
0.15
0.29
0.34
0.28
0.16
0.05
-0.01
0.00
0.08
0.19
0.33
0.48
0.61
0.66
0.56
0.28
-0.14
-0.57
-0.84
-0.81
-0.48
0.04
0.54
0.86
0.89
0.66
0.27
-0.14
-0.49
-0.74
-0.91
-1.01
-1.04
-1.00
-0.86
-0.62
-0.32
-0.02
0.20
0.24
0.09
-0.23
-0.63
-0.96
-1.13
-1.08
-0.85
-0.50
-0.15
0.13
0.32
0.44
0.52
0.62
0.76
0.91
1.04
1.09
1.05
0.92
0.76
0.58
0.42
0.26
0.11
-0.02
-0.08
-0.07
0.04
0.21
0.36
0.44
0.44
0.39
0.36
0.36
0.36
0.31
0.14
-0.13
-0.41
-0.59
-0.55
-0.30
0.09
0.46
0.66
0.66
0.49
0.24
0.03
-0.10
-0.13
-0.10
-0.06
-0.03
-0.06
-0.15
-0.32
-0.56
-0.83
-1.08
-1.24
-1.25
-1.11
-0.83
-0.50
-0.18
0.04
0.15
0.15
0.12
0.13
0.21
0.36
0.53
0.62
0.58
0.36
0.02
-0.37
-0.72
-0.94
-0.98
-0.82
-0.49
-0.07
0.33
0.61
0.72
0.65
0.46
0.25
0.10
0.04
0.09
0.24
0.45
0.66
0.79
0.77
0.57
0.23
-0.17
-0.51
-0.72
-0.75
-0.62
-0.37
-0.04
0.29
0.55
0.68
0.65
0.46
0.18
-0.10
-0.31
-0.43
-0.45
-0.42
-0.34
-0.21
-0.05
0.13
0.28
0.37
0.36
0.26
0.10
-0.06
-0.17
-0.19
-0.11
0.01
0.13
0.18
0.13
0.02
-0.12
-0.20
-0.20
-0.14
-0.06
-0.04
-0.11
-0.26
-0.44
-0.58
-0.61
-0.49
-0.25
0.06
0.32
0.45
0.41
0.21
-0.06
-0.28
-0.39
-0.38
-0.28
-0.14
0.01
0.20
0.43
0.68
0.90
1.01
0.97
0.81
0.60
0.43
0.33
0.27
0.21
0.09
-0.06
-0.22
-0.31
-0.30
-0.21
-0.12
-0.09
-0.13
-0.21
-0.25
-0.20
-0.07
0.06
0.12
0.07
-0.03
-0.08
-0.02
0.13
0.27
0.29
0.12
-0.15
-0.39
-0.47
-0.37
-0.15
0.03
0.09
-0.01
-0.18
-0.34
-0.42
-0.44
-0.47
-0.59
-0.81
-1.06
-1.22
-1.21
-1.00
-0.65
-0.28
0.01
0.13
0.05
-0.19
-0.52
-0.84
-1.08
-1.18
-1.17
-1.10
-1.07
-1.13
-1.28
-1.48
-1.65
-1.77
-1.86
-1.96
-2.12
-2.36
-2.67
-3.01
-3.37
-3.76
-4.17
-4.58
-4.97
-5.32
-5.63
-5.93
-6.26
-6.61
-6.94
-7.21
-7.35
-7.28
-6.91
-6.15
-4.95
-3.32
-1.37
0.72
2.85
4.94
7.04
9.18
11.31
13.26
14.84
15.88
16.31
16.26
15.90
15.37
14.76
14.10
13.40
12.69
12.06
11.50
10.93
10.14
8.94
7.17
4.86
2.16
-0.69
-3.43
-5.79
-7.55
-8.54
-8.68
-7.99
-6.63
-4.89
-3.07
-1.45
-0.17
0.71
1.25
1.60
1.91
2.33
2.99
3.86
4.80
5.54
5.82
5.47
4.49
3.04
1.38
-0.27
-1.77
-3.07
-4.18
-5.07
-5.68
-5.91
-5.73
-5.14
-4.21
-3.04
-1.74
-0.38
0.96
2.17
3.08
3.51
3.33
2.56
1.33
-0.13
-1.58
-2.84
-3.85
-4.59
-5.10
-5.39
-5.44
-5.27
-4.93
-4.49
-4.05
-3.68
-3.40
-3.18
-2.96
-2.68
-2.33
-1.95
-1.64
-1.47
-1.47
-1.58
-1.66
-1.58
-1.31
-0.92
-0.53
-0.30
-0.28
-0.43
-0.67
-0.92
-1.15
-1.37
-1.57
-1.71
-1.73
-1.61
-1.34
-1.00
-0.66
-0.37
-0.14
0.05
0.20
0.29
0.34
0.35
0.37
0.43
0.51
0.59
0.64
0.67
0.76
0.96
1.30
1.72
2.06
2.20
2.09
1.77
1.35
0.98
0.71
0.51
0.30
-0.00
-0.41
-0.85
-1.22
-1.41
-1.37
-1.15
-0.83
-0.56
-0.45
-0.50
-0.67
-0.85
-0.97
-1.00
-0.99
-1.02
-1.12
-1.30
-1.50
-1.69
-1.86
-2.06
-2.32
-2.63
-2.91
-3.08
-3.08
-2.95
-2.81
-2.78
-2.89
-3.09
-3.25
-3.32
-3.29
-3.26
-3.33
-3.48
-3.60
-3.55
-3.22
-2.59
-1.76
-0.83
0.11
1.03
1.96
2.87
3.73
4.45
4.99
5.33
5.53
5.67
5.77
5.81
5.73
5.45
4.94
4.25
3.46
2.68
1.99
1.44
1.02
0.69
0.39
0.07
-0.29
-0.68
-1.07
-1.40
-1.66
-1.84
-1.95
-2.01
-1.97
-1.78
-1.41
-0.89
-0.34
0.07
0.20
0.01
-0.44
-1.00
-1.56
-2.07
-2.51
-2.88
-3.11
-3.10
-2.77
-2.15
-1.40
-0.74
-0.37
-0.35
-0.58
-0.85
-1.00
-0.95
-0.78
-0.60
-0.58
-0.77
-1.16
-1.65
-2.13
-2.49
-2.66
-2.66
-2.55
-2.44
-2.39
-2.49
-2.71
-3.02
-3.36
-3.64
-3.81
-3.83
-3.67
-3.33
-2.80
-2.13
-1.39
-0.67
-0.00
0.60
1.23
1.98
2.98
4.26
5.76
7.32
8.72
9.76
10.31
10.36
9.97
9.25
8.29
7.19
6.01
4.82
3.71
2.74
1.97
1.41
1.01
0.72
0.49
0.30
0.18
0.13
0.13
0.15
0.10
-0.06
-0.33
-0.66
-0.96
-1.16
-1.24
-1.23
-1.19
-1.20
-1.30
-1.48
-1.68
-1.82
-1.80
-1.57
-1.16
-0.64
-0.15
0.20
0.34
0.29
0.12
-0.09
-0.22
-0.22
-0.06
0.23
0.57
0.91
1.17
1.33
1.39
1.36
1.29
1.20
1.13
1.12
1.21
1.41
1.68
1.92
2.01
1.84
1.41
0.78
0.05
-0.65
-1.27
-1.78
-2.21
-2.56
-2.85
-3.08
-3.24
-3.35
-3.43
-3.54
-3.68
-3.80
-3.81
-3.60
-3.07
-2.23
-1.17
-0.07
0.90
1.66
2.17
2.48
2.62
2.59
2.37
1.96
1.44
0.88
0.41
0.11
-0.00
0.08
0.30
0.59
0.85
0.95
0.82
0.47
-0.03
-0.52
-0.87
-1.02
-0.97
-0.82
-0.63
-0.42
-0.11
0.38
1.10
2.00
2.93
3.70
4.12
4.14
3.86
3.45
3.10
2.93
3.00
3.23
3.56
3.93
4.32
4.76
5.28
5.86
6.41
6.75
6.75
6.33
5.57
4.67
3.87
3.32
3.04
2.87
2.63
2.18
1.50
0.66
-0.30
-1.40
-2.69
-4.25
-5.98
-7.68
-9.04
-9.82
-9.94
-9.53
-8.79
-7.93
-7.05
-6.17
-5.28
-4.39
-3.58
-2.90
-2.40
-2.06
-1.83
-1.70
-1.68
-1.82
-2.16
-2.70
-3.35
-4.07
-4.79
-5.48
-6.15
-6.79
-7.36
-7.82
-8.16
-8.32
-8.29
-8.04
-7.53
-6.77
-5.78
-4.65
-3.52
-2.47
-1.54
-0.61
0.47
1.93
3.89
6.32
9.05
11.74
14.02
15.59
16.29
16.06
15.02
13.33
11.23
8.97
6.81
4.97
3.56
2.59
1.97
1.51
1.06
0.56
0.02
-0.46
-0.76
-0.83
-0.67
-0.33
0.11
0.56
0.94
1.16
1.20
1.07
0.84
0.63
0.54
0.61
0.81
1.06
1.30
1.47
1.57
1.62
1.63
1.62
1.59
1.59
1.64
1.75
1.89
2.02
2.04
1.89
1.54
1.00
0.33
-0.36
-1.01
-1.54
-1.91
-2.14
-2.27
-2.34
-2.41
-2.46
-2.49
-2.49
-2.44
-2.37
-2.28
-2.19
-2.09
-1.96
-1.79
-1.59
-1.37
-1.20
-1.11
-1.13
-1.23
-1.37
-1.51
-1.62
-1.73
-1.84
-1.97
-2.08
-2.12
-2.07
-1.91
-1.73
-1.58
-1.52
-1.53
-1.52
-1.41
-1.16
-0.83
-0.55
-0.42
-0.49
-0.70
-0.94
-1.09
-1.06
-0.86
-0.55
-0.23
0.03
0.17
0.23
0.27
0.37
0.55
0.78
0.96
0.99
0.80
0.43
-0.02
-0.44
-0.75
-0.93
-1.05
-1.14
-1.20
-1.20
-1.10
-0.90
-0.64
-0.42
-0.30
-0.29
-0.34
-0.36
-0.28
-0.11
0.08
0.20
0.21
0.11
-0.01
-0.06
-0.00
0.13
0.27
0.38
0.45
0.52
0.63
0.76
0.85
0.84
0.72
0.54
0.44
0.49
0.70
0.97
1.16
1.18
1.01
0.71
0.41
0.18
0.05
-0.02
-0.09
-0.22
-0.41
-0.61
-0.75
-0.78
-0.68
-0.48
-0.25
-0.04
0.11
0.19
0.23
0.21
0.12
-0.06
-0.32
-0.63
-0.91
-1.10
-1.16
-1.08
-0.90
-0.65
-0.37
-0.07
0.22
0.46
0.57
0.51
0.33
0.11
-0.06
-0.08
0.03
0.22
0.37
0.43
0.37
0.23
0.05
-0.14
-0.35
-0.59
-0.81
-0.96
-0.96
-0.78
-0.45
-0.06
0.25
0.40
0.37
0.24
0.11
0.05
0.06
0.08
0.02
-0.16
-0.39
-0.55
-0.54
-0.34
-0.07
0.12
0.07
-0.22
-0.65
-1.03
-1.20
-1.11
-0.77
-0.30
0.19
0.61
0.93
1.12
1.17
1.09
0.91
0.66
0.37
0.12
-0.05
-0.09
0.03
0.26
0.50
0.64
0.60
0.39
0.11
-0.13
-0.23
-0.14
0.10
0.38
0.61
0.73
0.69
0.52
0.25
-0.05
-0.32
-0.49
-0.53
-0.42
-0.21
0.06
0.34
0.57
0.70
0.67
0.48
0.18
-0.12
-0.32
-0.34
-0.22
-0.05
0.08
0.08
-0.03
-0.20
-0.33
-0.37
-0.31
-0.16
0.07
0.34
0.59
0.75
0.77
0.62
0.33
-0.02
-0.32
-0.51
-0.58
-0.56
-0.51
-0.48
-0.49
-0.53
-0.58
-0.63
-0.65
-0.62
-0.46
-0.17
0.22
0.60
0.83
0.83
0.60
0.28
0.01
-0.07
0.02
0.20
0.35
0.38
0.26
0.03
-0.26
-0.56
-0.82
-0.97
-0.97
-0.80
-0.53
-0.28
-0.14
-0.15
-0.26
-0.35
-0.35
-0.24
-0.07
0.08
0.18
0.23
0.28
0.35
0.44
0.52
0.56
0.54
0.50
0.46
0.44
0.44
0.43
0.38
0.29
0.21
0.20
0.29
0.46
0.60
0.63
0.53
0.31
0.09
-0.07
-0.16
-0.22
-0.27
-0.36
-0.43
-0.45
-0.45
-0.48
-0.63
-0.90
-1.22
-1.42
-1.43
-1.24
-0.98
-0.78
-0.72
-0.75
-0.73
-0.60
-0.33
0.02
0.38
0.72
1.05
1.39
1.68
1.84
1.80
1.52
1.10
0.64
0.30
0.12
0.13
0.25
0.44
0.62
0.77
0.87
0.94
0.99
1.05
1.07
1.02
0.86
0.55
0.15
-0.25
-0.55
-0.68
-0.65
-0.54
-0.44
-0.45
-0.59
-0.84
-1.10
-1.24
-1.20
-0.98
-0.69
-0.45
-0.37
-0.43
-0.54
-0.55
-0.39
-0.08
0.25
0.48
0.55
0.51
0.46
0.47
0.53
0.54
0.43
0.20
-0.07
-0.23
-0.18
0.07
0.41
0.70
0.85
0.84
0.76
0.69
0.70
0.77
0.86
0.91
0.85
0.63
0.27
-0.19
-0.65
-0.99
-1.14
-1.08
-0.87
-0.61
-0.40
-0.30
-0.29
-0.32
-0.35
-0.32
-0.23
-0.11
-0.03
-0.02
-0.09
-0.22
-0.31
-0.30
-0.17
0.05
0.26
0.37
0.34
0.17
-0.14
-0.54
-0.99
-1.44
-1.79
-1.94
-1.85
-1.55
-1.16
-0.81
-0.62
-0.64
-0.82
-1.08
-1.33
-1.51
-1.60
-1.57
-1.46
-1.29
-1.13
-1.03
-1.05
-1.21
-1.52
-1.96
-2.50
-3.10
-3.70
-4.27
-4.78
-5.21
-5.60
-6.01
-6.51
-7.20
-8.12
-9.25
-10.52
-11.81
-13.03
-14.16
-15.24
-16.34
-17.52
-18.77
-20.02
-21.23
-22.40
-23.58
-24.84
-26.22
-27.69
-29.21
-30.72
-32.06
-33.02
-33.22
-32.24
-29.67
-25.34
-19.39
-12.30
-4.79
2.39
8.60
13.42
16.64
18.14
17.86
15.82
12.16
7.29
1.82
-3.54
-8.17
-11.73
-14.15
-15.56
-16.14
-16.16
-16.08
-16.58
-18.35
-21.52
-25.17
-27.28
-25.49
-18.22
-5.67
10.15
26.34
40.56
52.12
62.04
72.04
83.28
95.52
107.18
116.26
121.46
122.73
121.19
118.48
116.12
115.10
116.04
119.31
124.98
132.43
139.74
143.50
139.52
124.27
96.62
58.87
16.33
-24.39
-57.71
-80.77
-93.88
-99.47
-100.52
-99.25
-96.76
-93.45
-89.67
-86.03
-83.29
-81.89
-81.62
-81.70
-81.10
-79.15
-75.82
-71.79
-68.09
-65.71
-65.16
-66.28
-68.40
-70.61
-72.19
-72.88
-72.99
-73.15
-74.09
-76.23
-79.54
-83.57
-87.61
-91.01
-93.48
-95.17
-96.69
-98.81
-102.22
-107.25
-113.81
-121.47
-129.62
-137.66
-144.79
-149.85
-151.19
-146.74
-134.54
-113.30
-82.71
-43.38
3.49
56.30
112.83
169.84
223.00
267.48
299.42
317.31
322.71
319.65
313.00
306.76
303.09
302.55
304.82
309.31
314.90
319.54
319.97
312.33
293.55
262.58
220.72
170.77
115.94
58.92
2.05
-51.98
-99.77
-137.55
-162.57
-174.34
-175.09
-168.91
-160.07
-151.49
-144.17
-137.65
-131.09
-124.11
-117.09
-110.70
-105.34
-100.83
-96.49
-91.60
-85.77
-79.13
-72.27
-65.92
-60.57
-56.31
-52.76
-49.31
-45.41
-40.80
-35.67
-30.54
-26.02
-22.54
-20.14
-18.53
-17.20
-15.70
-13.84
-11.73
-9.69
-8.08
-7.06
-6.58
-6.41
-6.28
-6.02
-5.61
-5.18
-4.86
-4.74
-4.80
-4.94
-5.06
-5.10
-5.04
-4.93
-4.80
-4.70
-4.63
-4.60
-4.60
-4.62
-4.68
-4.78
-4.96
-5.27
-5.70
-6.22
-6.71
-7.04
-7.10
-6.88
-6.43
-5.92
-5.46
-5.12
-4.83
-4.43
-3.78
-2.79
-1.49
0.07
1.81
3.68
5.63
7.54
9.21
10.39
10.87
10.61
9.76
8.67
7.72
7.16
7.05
7.25
7.46
7.34
6.62
5.09
2.69
-0.51
-4.30
-8.37
-12.37
-15.95
-18.81
-20.72
-21.59
-21.50
-20.71
-19.58
-18.41
-17.30
-16.10
-14.49
-12.31
-9.74
-7.38
-5.96
-5.99
-7.39
-9.48
-11.17
-11.46
-9.90
-6.75
-2.93
0.36
2.11
1.91
0.09
-2.34
-4.14
-4.36
-2.78
-0.12
2.27
3.10
1.73
-1.46
-5.35
-8.64
-10.53
-11.09
-11.06
-11.41
-12.76
-15.18
-18.36
-21.87
-25.29
-27.96
-28.62
-25.25
-15.56
2.01
27.17
57.44
88.78
117.04
139.55
155.50
165.27
168.84
164.85
151.04
126.04
91.33
51.86
14.72
-13.60
-29.92
-35.31
-33.97
-30.70
-28.57
-28.00
-27.51
-25.39
-21.12
-15.67
-10.81
-7.94
-7.26
-7.81
-7.98
-6.44
-2.73
2.58
8.35
13.41
17.02
18.91
19.15
17.83
14.93
10.40
4.32
-2.93
-10.75
-18.40
-25.19
-30.58
-34.21
-35.95
-35.97
-34.68
-32.68
-30.59
-28.85
-27.59
-26.62
-25.62
-24.32
-22.59
-20.56
-18.50
-16.71
-15.38
-14.54
-14.02
-13.55
-12.90
-11.95
-10.74
-9.44
-8.24
-7.29
-6.64
-6.26
-6.02
-5.81
-5.51
-5.02
-4.33
-3.54
-2.78
-2.22
-1.96
-1.97
-2.13
-2.25
-2.22
-2.03
-1.73
-1.44
-1.21
-1.03
-0.86
-0.65
-0.42
-0.16
0.11
0.40
0.72
1.09
1.48
1.80
2.00
2.05
1.96
1.78
1.58
1.39
1.22
1.09
0.98
0.89
0.80
0.67
0.50
0.25
-0.02
-0.27
-0.42
-0.42
-0.29
-0.09
0.10
0.20
0.21
0.15
0.07
-0.01
-0.10
-0.23
-0.42
-0.67
-0.94
-1.20
-1.44
-1.66
-1.86
-2.00
-2.04
-1.91
-1.61
-1.18
-0.73
-0.37
-0.22
-0.30
-0.58
-0.95
-1.28
-1.42
-1.27
-0.80
-0.09
0.74
1.50
2.01
2.16
1.95
1.48
0.94
0.50
0.31
0.36
0.58
0.80
0.89
0.82
0.61
0.34
0.09
-0.12
-0.28
-0.38
-0.40
-0.30
-0.08
0.21
0.45
0.50
0.31
-0.06
-0.48
-0.80
-0.94
-0.88
-0.72
-0.53
-0.35
-0.21
-0.09
-0.01
0.01
-0.01
-0.03
0.00
0.13
0.30
0.44
0.44
0.29
0.05
-0.16
-0.21
-0.11
0.07
0.20
0.17
0.03
-0.12
-0.16
-0.04
0.22
0.49
0.68
0.73
0.66
0.52
0.36
0.20
0.04
-0.10
-0.20
-0.23
-0.17
-0.06
0.03
0.02
-0.12
-0.36
-0.59
-0.69
-0.59
-0.30
0.05
0.34
0.45
0.36
0.14
-0.08
-0.19
-0.13
0.07
0.31
0.49
0.53
0.43
0.25
0.09
0.01
0.05
0.19
0.37
0.54
0.64
0.66
0.60
0.48
0.34
0.24
0.19
0.18
0.16
0.08
-0.08
-0.29
-0.48
-0.54
-0.46
-0.27
-0.06
0.07
0.05
-0.10
-0.29
-0.41
-0.41
-0.28
-0.08
0.10
0.19
0.15
0.03
-0.10
-0.15
-0.05
0.19
0.48
0.72
0.79
0.67
0.40
0.10
-0.15
-0.29
-0.37
-0.45
-0.61
-0.85
-1.11
-1.30
-1.35
-1.24
-1.01
-0.72
-0.45
-0.22
-0.02
0.16
0.35
0.52
0.62
0.60
0.45
0.21
0.00
-0.09
-0.02
0.16
0.35
0.46
0.43
0.31
0.17
0.05
-0.05
-0.20
-0.43
-0.72
-0.98
-1.11
-1.04
-0.76
-0.36
0.07
0.40
0.58
0.61
0.52
0.35
0.18
0.06
0.04
0.11
0.22
0.31
0.28
0.13
-0.10
-0.34
-0.49
-0.51
-0.41
-0.25
-0.11
-0.04
-0.06
-0.16
-0.29
-0.39
-0.40
-0.28
-0.03
0.28
0.57
0.78
0.86
0.83
0.71
0.54
0.34
0.13
-0.06
-0.23
-0.33
-0.36
-0.29
-0.13
0.11
0.38
0.61
0.74
0.74
0.60
0.41
0.25
0.20
0.26
0.39
0.49
0.49
0.38
0.23
0.12
0.14
0.29
0.49
0.59
0.52
0.27
-0.05
-0.29
-0.37
-0.32
-0.25
-0.31
-0.54
-0.86
-1.09
-1.08
-0.79
-0.38
-0.05
-0.03
-0.36
-0.94
-1.55
-1.96
-2.05
-1.84
-1.48
-1.15
-1.01
-1.11
-1.37
-1.66
-1.83
-1.78
-1.52
-1.11
-0.66
-0.24
0.13
0.46
0.82
1.21
1.62
1.98
2.22
2.31
2.32
2.32
2.36
2.41
2.39
2.16
1.68
1.01
0.34
-0.13
-0.26
-0.08
0.27
0.61
0.82
0.87
0.84
0.80
0.81
0.85
0.91
0.98
1.05
1.12
1.15
1.12
1.01
0.84
0.69
0.60
0.58
0.60
0.63
0.64
0.63
0.62
0.60
0.56
0.46
0.28
0.06
-0.16
-0.34
-0.46
-0.52
-0.57
-0.62
-0.69
-0.77
-0.84
-0.90
-0.95
-0.99
-1.07
-1.18
-1.33
-1.46
-1.50
-1.39
-1.14
-0.79
-0.42
-0.09
0.14
0.26
0.25
0.11
-0.12
-0.37
-0.54
-0.57
-0.47
-0.32
-0.23
-0.25
-0.36
-0.43
-0.37
-0.14
0.18
0.42
0.46
0.27
-0.07
-0.42
-0.64
-0.70
-0.60
-0.42
-0.24
-0.07
0.08
0.25
0.43
0.57
0.61
0.55
0.44
0.38
0.44
0.58
0.70
0.64
0.32
-0.20
-0.74
-1.09
-1.12
-0.88
-0.52
-0.23
-0.10
-0.11
-0.18
-0.18
-0.09
0.05
0.14
0.14
0.06
0.03
0.12
0.37
0.69
0.93
0.95
0.71
0.26
-0.25
-0.68
-0.95
-1.05
-1.03
-0.97
-0.91
-0.87
-0.78
-0.60
-0.29
0.10
0.50
0.82
0.98
0.95
0.79
0.57
0.37
0.22
0.14
0.12
0.14
0.20
0.30
0.42
0.51
0.52
0.41
0.20
-0.05
-0.26
-0.35
-0.31
-0.22
-0.18
-0.26
-0.45
-0.64
-0.71
-0.57
-0.21
0.23
0.60
0.77
0.72
0.48
0.16
-0.17
-0.44
-0.60
-0.61
-0.46
-0.17
0.16
0.41
0.49
0.37
0.15
-0.05
-0.10
0.03
0.30
0.54
0.64
0.52
0.20
-0.22
-0.59
-0.82
-0.84
-0.66
-0.36
0.01
0.36
0.63
0.78
0.78
0.65
0.43
0.20
0.05
-0.01
-0.01
-0.01
-0.06
-0.16
-0.25
-0.26
-0.14
0.03
0.14
0.10
-0.09
-0.35
-0.52
-0.53
-0.35
-0.08
0.16
0.28
0.30
0.25
0.20
0.18
0.18
0.18
0.15
0.11
0.04
-0.07
-0.25
-0.50
-0.74
-0.92
-0.95
-0.85
-0.69
-0.57
-0.52
-0.54
-0.56
-0.51
-0.38
-0.21
-0.05
0.06
0.12
0.19
0.28
0.39
0.50
0.58
0.60
0.56
0.44
0.26
0.03
-0.18
-0.28
-0.21
0.02
0.32
0.57
0.66
0.56
0.35
0.13
-0.00
-0.01
0.06
0.15
0.22
0.25
0.23
0.19
0.12
0.03
-0.10
-0.26
-0.42
-0.55
-0.60
-0.53
-0.31
0.05
0.51
0.95
1.27
1.39
1.31
1.04
0.68
0.31
0.00
-0.18
-0.23
-0.17
-0.06
0.04
0.07
0.01
-0.10
-0.23
-0.31
-0.34
-0.31
-0.23
-0.15
-0.07
-0.01
0.02
0.00
-0.06
-0.19
-0.38
-0.62
-0.90
-1.15
-1.29
-1.24
-0.96
-0.50
0.03
0.50
0.79
0.88
0.80
0.60
0.34
0.05
-0.21
-0.39
-0.44
-0.34
-0.10
0.21
0.48
0.66
0.74
0.72
0.61
0.40
0.12
-0.23
-0.57
-0.81
-0.87
-0.77
-0.54
-0.30
-0.12
-0.02
0.03
0.05
0.06
0.05
-0.01
-0.13
-0.31
-0.48
-0.62
-0.67
-0.64
-0.54
-0.42
-0.31
-0.23
-0.17
-0.10
0.02
0.20
0.40
0.57
0.60
0.45
0.12
-0.29
-0.66
-0.91
-1.02
-1.06
-1.12
-1.25
-1.48
-1.78
-2.11
-2.45
-2.86
-3.36
-3.95
-4.59
-5.18
-5.66
-5.99
-6.26
-6.55
-6.99
-7.66
-8.52
-9.50
-10.46
-11.25
-11.84
-12.30
-12.83
-13.67
-15.04
-17.00
-19.42
-22.03
-24.54
-26.73
-28.59
-30.35
-32.36
-34.98
-38.37
-42.41
-46.68
-50.66
-53.88
-56.20
-57.86
-59.37
-61.29
-63.91
-67.11
-70.43
-73.34
-75.45
-76.65
-76.99
-76.55
-75.34
-73.35
-70.67
-67.39
-63.24
-57.17
-47.27
-31.30
-7.77
23.14
59.19
96.71
131.75
161.29
183.96
199.78
209.66
214.77
216.27
215.42
213.76
213.14
215.12
220.26
227.28
232.85
232.17
220.53
195.00
155.77
106.35
52.44
0.17
-45.69
-82.54
-109.85
-128.29
-138.95
-142.99
-141.73
-136.91
-130.65
-125.12
-121.84
-121.17
-122.18
-122.84
-120.77
-114.04
-101.79
-84.60
-64.31
-43.48
-24.49
-9.06
2.19
9.58
14.05
16.69
18.32
19.38
19.97
20.03
19.54
18.66
17.59
16.52
15.45
14.23
12.69
10.82
8.81
6.97
5.66
5.03
5.01
5.32
5.65
5.76
5.58
5.20
4.80
4.52
4.46
4.64
5.07
5.69
6.38
6.96
7.14
6.66
5.37
3.32
0.76
-1.98
-4.57
-6.81
-8.62
-10.05
-11.19
-12.13
-12.95
-13.70
-14.45
-15.27
-16.21
-17.30
-18.53
-19.94
-21.71
-24.22
-27.97
-33.48
-40.89
-49.84
-59.44
-68.63
-76.66
-83.57
-90.13
-97.58
-106.89
-118.37
-131.40
-144.79
-157.12
-167.25
-174.56
-178.84
-179.99
-177.65
-170.98
-158.73
-139.59
-112.67
-77.77
-35.34
13.65
67.81
125.08
182.45
235.97
281.31
315.02
335.75
344.75
345.51
342.38
339.18
338.10
339.43
341.80
342.69
339.11
328.22
308.05
278.00
238.88
192.48
140.72
85.27
27.85
-29.13
-81.99
-126.26
-157.99
-175.40
-179.78
-175.01
-165.92
-156.37
-148.10
-140.90
-133.62
-125.47
-116.69
-108.29
-101.33
-96.18
-92.26
-88.43
-83.59
-77.23
-69.62
-61.66
-54.41
-48.65
-44.56
-41.72
-39.36
-36.71
-33.37
-29.45
-25.44
-22.00
-19.59
-18.32
-17.96
-18.05
-18.20
-18.13
-17.78
-17.16
-16.32
-15.23
-13.87
-12.25
-10.49
-8.78
-7.34
-6.31
-5.68
-5.34
-5.10
-4.76
-4.18
-3.33
-2.27
-1.16
-0.19
0.42
0.50
0.04
-0.84
-1.88
-2.78
-3.31
-3.40
-3.12
-2.67
-2.25
-2.04
-2.10
-2.37
-2.74
-3.07
-3.20
-3.01
-2.39
-1.29
0.26
2.15
4.14
5.98
7.43
8.33
8.66
8.51
8.06
7.44
6.75
5.99
5.14
4.14
2.99
1.75
0.49
-0.69
-1.77
-2.71
-3.51
-4.10
-4.43
-4.45
-4.18
-3.73
-3.25
-2.84
-2.50
-2.15
-1.69
-1.14
-0.62
-0.28
-0.21
-0.32
-0.44
-0.37
-0.06
0.44
0.97
1.38
1.60
1.62
1.45
1.09
0.56
-0.05
-0.57
-0.80
-0.65
-0.15
0.49
0.99
1.12
0.75
-0.08
-1.21
-2.45
-3.57
-4.42
-4.93
-5.12
-5.11
-5.03
-4.89
-4.59
-3.94
-2.76
-1.03
1.06
3.15
4.92
6.17
6.88
7.18
7.26
7.22
7.08
6.76
6.22
5.43
4.39
3.14
1.74
0.28
-1.13
-2.35
-3.27
-3.84
-4.05
-4.02
-3.88
-3.75
-3.71
-3.75
-3.81
-3.76
-3.49
-2.94
-2.12
-1.14
-0.17
0.59
0.97
0.87
0.30
-0.57
-1.52
-2.28
-2.61
-2.40
-1.61
-0.29
1.44
3.37
5.26
6.82
7.81
8.10
7.74
6.93
5.93
4.97
4.14
3.43
2.81
2.30
1.97
1.88
2.01
2.20
2.23
1.90
1.17
0.18
-0.83
-1.61
-1.97
-1.88
-1.46
-0.91
-0.45
-0.25
-0.34
-0.67
-1.07
-1.36
-1.37
-1.00
-0.28
0.70
1.73
2.59
3.06
3.03
2.48
1.56
0.54
-0.29
-0.68
-0.49
0.25
1.41
2.76
4.07
5.15
5.87
6.26
6.44
6.60
6.87
7.27
7.68
7.92
7.81
7.30
6.44
5.31
4.03
2.71
1.47
0.46
-0.16
-0.33
-0.14
0.18
0.35
0.21
-0.23
-0.86
-1.51
-2.17
-2.92
-3.89
-5.13
-6.54
-7.94
-9.12
-9.90
-10.22
-10.05
-9.41
-8.38
-7.16
-6.05
-5.38
-5.33
-5.80
-6.36
-6.43
-5.54
-3.65
-1.19
1.15
2.74
3.45
3.59
3.79
4.49
5.72
7.06
7.92
7.97
7.30
6.36
5.66
5.53
5.94
6.68
7.44
7.93
7.95
7.31
5.94
3.96
1.65
-0.58
-2.35
-3.52
-4.19
-4.59
-4.91
-5.18
-5.29
-5.13
-4.74
-4.33
-4.17
-4.42
-4.99
-5.61
-5.93
-5.75
-5.08
-4.17
