1660928450.00
64.000000
-0.00
-0.00
-0.00
-0.00
-0.00
-0.00
-0.00
-0.00
-0.00
-0.00
0.00
0.01
0.01
-0.00
-0.03
-0.05
-0.05
0.00
0.13
0.36
0.66
1.01
1.37
1.72
2.06
2.40
2.79
3.25
3.81
4.44
5.09
5.73
6.33
6.91
7.54
8.27
9.14
10.21
11.38
12.54
13.61
14.55
15.44
16.46
17.82
19.64
22.10
24.98
28.03
30.97
33.68
36.30
39.16
42.67
47.09
52.73
59.20
65.99
72.60
78.81
84.82
91.15
98.45
107.11
117.46
128.88
140.59
151.88
162.48
172.72
183.34
195.55
207.75
221.79
237.98
256.42
276.22
294.98
308.89
313.52
305.34
282.92
247.98
203.87
154.87
104.60
55.30
7.90
-37.39
-80.47
-121.13
-159.14
-195.24
-230.75
-267.10
-304.74
-342.34
-376.57
-402.85
-417.07
-417.03
-403.51
-380.00
-351.34
-321.90
-294.36
-269.39
-246.40
-224.55
-203.42
-183.31
-164.74
-147.97
-132.75
-118.48
-104.54
-90.66
-77.05
-64.25
-52.85
-43.23
-35.30
-28.57
-22.38
-16.19
-9.82
-3.50
2.28
7.02
10.53
12.98
14.82
16.57
18.55
20.73
22.87
24.60
25.69
26.14
26.12
25.90
25.68
25.52
25.37
25.12
24.66
23.95
23.05
22.07
21.19
20.52
20.11
19.88
19.65
19.24
18.57
17.69
16.74
15.92
15.36
15.07
14.93
14.80
14.55
14.16
13.68
13.20
12.79
12.48
12.23
11.98
11.71
11.39
11.05
10.74
10.48
10.27
10.07
9.82
9.50
9.10
8.68
8.32
8.08
7.96
7.90
7.78
7.54
7.15
6.68
6.22
5.85
5.58
5.36
5.17
5.01
4.90
4.84
4.81
4.69
4.40
3.93
3.33
2.73
2.26
1.93
1.70
1.44
1.09
0.64
0.15
-0.31
-0.68
-1.00
-1.32
-1.74
-2.29
-2.93
-3.60
-4.23
-4.76
-5.20
-5.61
-6.02
-6.43
-6.80
-7.10
-7.30
-7.42
-7.51
-7.60
-7.66
-7.63
-7.43
-7.03
-6.48
-5.86
-5.28
-4.79
-4.39
-4.03
-3.64
-3.19
-2.70
-2.23
-1.82
-1.50
-1.26
-1.08
-0.91
-0.76
-0.64
-0.58
-0.60
-0.67
-0.71
-0.66
-0.50
-0.30
-0.15
-0.19
-0.46
-0.91
-1.41
-1.76
-1.80
-1.50
-0.96
-0.38
-0.01
-0.02
-0.46
-1.23
-2.15
-3.01
-3.71
-4.29
-4.88
-5.71
-6.92
-8.54
-10.41
-12.30
-13.98
-15.37
-16.60
-17.98
-19.88
-22.60
-26.20
-30.47
-34.99
-39.33
-43.20
-46.69
-50.21
-54.34
-59.52
-65.81
-72.78
-79.64
-85.67
-90.47
-94.12
-97.11
-100.06
-103.45
-107.62
-112.86
-119.47
-127.45
-136.03
-143.21
-145.89
-140.60
-124.65
-96.99
-58.32
-10.53
44.08
103.03
163.37
221.17
271.53
309.66
332.55
340.43
337.14
328.90
321.96
320.26
324.01
329.85
332.24
325.60
306.03
272.27
225.92
170.84
112.32
56.05
7.03
-31.27
-57.36
-71.79
-76.71
-75.11
-70.07
-64.06
-58.71
-54.80
-52.46
-51.52
-51.67
-52.67
-54.42
-57.00
-60.57
-65.12
-70.36
-75.66
-80.38
-84.08
-86.71
-88.43
-89.30
-89.04
-87.10
-82.94
-76.56
-68.65
-60.48
-53.36
-48.05
-44.49
-41.91
-39.42
-36.54
-33.42
-30.64
-28.69
-27.60
-26.86
-25.75
-23.71
-20.63
-16.91
-13.15
-9.90
-7.42
-5.64
-4.31
-3.18
-2.09
-1.10
-0.35
-0.03
-0.20
-0.78
-1.53
-2.14
-2.31
-1.91
-1.00
0.14
1.19
1.86
2.04
1.79
1.28
0.71
0.22
-0.14
-0.38
-0.53
-0.61
-0.62
-0.58
-0.49
-0.38
-0.22
-0.02
0.23
0.51
0.73
0.84
0.80
0.64
0.43
0.24
0.12
0.09
0.10
0.11
0.09
0.03
-0.09
-0.26
-0.46
-0.64
-0.72
-0.64
-0.35
0.10
0.61
1.03
1.24
1.19
0.93
0.58
0.25
0.03
-0.05
-0.04
0.02
0.08
0.14
0.23
0.36
0.54
0.76
0.97
1.15
1.27
1.30
1.24
1.06
0.78
0.41
0.03
-0.27
-0.42
-0.38
-0.16
0.19
0.58
0.93
1.20
1.34
1.34
1.22
1.02
0.79
0.61
0.54
0.56
0.62
0.65
0.61
0.50
0.38
0.32
0.35
0.43
0.49
0.44
0.27
0.07
-0.07
-0.05
0.11
0.30
0.40
0.33
0.09
-0.23
-0.54
-0.76
-0.87
-0.86
-0.72
-0.47
-0.14
0.19
0.40
0.41
0.20
-0.17
-0.54
-0.81
-0.91
-0.87
-0.77
-0.67
-0.58
-0.48
-0.30
-0.03
0.28
0.54
0.65
0.60
0.47
0.34
0.33
0.46
0.68
0.92
1.09
1.16
1.14
1.07
0.99
0.93
0.90
0.91
0.95
1.00
1.03
1.01
0.93
0.77
0.59
0.43
0.34
0.32
0.33
0.28
0.13
-0.09
-0.27
-0.29
-0.11
0.22
0.52
0.62
0.45
0.10
-0.25
-0.46
-0.45
-0.32
-0.25
-0.39
-0.73
-1.13
-1.38
-1.32
-0.92
-0.31
0.31
0.78
1.01
1.07
1.06
1.08
1.13
1.18
1.17
1.04
0.83
0.61
0.45
0.35
0.28
0.15
-0.08
-0.39
-0.68
-0.83
-0.75
-0.44
0.02
0.45
0.72
0.75
0.55
0.24
-0.09
-0.35
-0.53
-0.66
-0.76
-0.86
-0.90
-0.87
-0.73
-0.50
-0.19
0.14
0.45
0.69
0.83
0.85
0.74
0.54
0.32
0.13
0.03
-0.01
-0.04
-0.10
-0.19
-0.23
-0.14
0.14
0.55
0.97
1.25
1.29
1.06
0.64
0.18
-0.16
-0.31
-0.27
-0.11
0.05
0.17
0.24
0.30
0.38
0.48
0.55
0.55
0.47
0.31
0.14
0.00
-0.08
-0.12
-0.13
-0.11
-0.04
0.09
0.25
0.38
0.43
0.36
0.20
0.00
-0.20
-0.36
-0.48
-0.58
-0.67
-0.74
-0.76
-0.68
-0.47
-0.13
0.26
0.59
0.76
0.70
0.43
0.03
-0.40
-0.77
-1.04
-1.21
-1.30
-1.29
-1.17
-0.90
-0.48
0.03
0.52
0.88
1.04
0.98
0.77
0.52
0.33
0.26
0.34
0.51
0.69
0.77
0.70
0.48
0.17
-0.13
-0.36
-0.47
-0.49
-0.45
-0.39
-0.34
-0.30
-0.25
-0.18
-0.10
-0.03
0.01
-0.02
-0.10
-0.21
-0.28
-0.27
-0.17
-0.02
0.14
0.26
0.33
0.36
0.37
0.37
0.34
0.28
0.19
0.11
0.06
0.06
0.09
0.08
0.01
-0.14
-0.35
-0.57
-0.74
-0.87
-0.94
-0.97
-0.94
-0.83
-0.62
-0.34
-0.09
0.05
0.04
-0.09
-0.23
-0.26
-0.15
0.08
0.30
0.44
0.48
0.47
0.48
0.54
0.63
0.70
0.72
0.70
0.67
0.67
0.70
0.73
0.74
0.71
0.63
0.49
0.30
0.07
-0.18
-0.42
-0.62
-0.76
-0.86
-0.91
-0.92
-0.94
-1.00
-1.12
-1.32
-1.55
-1.73
-1.78
-1.64
-1.31
-0.85
-0.33
0.18
0.62
0.99
1.27
1.49
1.68
1.90
2.18
2.56
2.97
3.34
3.57
3.63
3.57
3.48
3.44
3.47
3.57
3.75
4.00
4.37
4.87
5.45
5.97
6.27
6.20
5.72
4.94
4.08
3.36
2.91
2.71
2.63
2.53
2.34
2.06
1.75
1.43
1.09
0.62
-0.07
-1.06
-2.32
-3.75
-5.24
-6.68
-7.99
-9.11
-10.00
-10.66
-11.17
-11.62
-12.17
-12.91
-13.88
-15.03
-16.26
-17.46
-18.60
-19.78
-21.23
-23.20
-25.88
-29.17
-32.71
-36.03
-38.72
-40.77
-42.61
-44.93
-48.35
-53.06
-58.56
-63.86
-67.90
-70.14
-70.93
-71.42
-73.11
-76.97
-82.95
-89.90
-96.23
-100.67
-102.93
-103.60
-103.53
-103.12
-102.15
-100.16
-96.92
-92.46
-86.45
-77.49
-63.09
-40.87
-10.39
25.52
61.02
89.46
106.29
111.14
107.78
101.90
98.22
98.36
100.80
102.50
101.09
96.23
89.35
82.57
77.15
72.87
68.30
61.90
52.95
42.03
30.69
20.72
13.51
9.61
8.70
9.81
11.66
13.04
13.14
11.81
9.48
6.88
4.64
2.90
1.23
-1.01
-4.27
-8.40
-12.70
-16.30
-18.54
-19.24
-18.58
-16.77
-13.86
-9.61
-3.78
3.62
12.13
20.83
28.65
34.66
38.41
40.00
40.01
39.25
38.55
38.45
39.15
40.53
42.24
44.00
45.72
47.54
49.80
52.82
56.71
61.30
66.25
71.14
75.68
79.78
83.43
86.57
88.92
89.94
89.03
85.90
80.81
74.58
68.36
63.19
59.65
57.81
57.50
58.49
60.50
63.01
65.10
65.61
63.71
59.47
54.08
49.53
47.67
49.38
54.21
60.81
67.92
75.31
84.04
95.77
111.41
129.84
147.53
159.37
160.36
147.35
119.89
80.18
32.10
-19.84
-71.16
-117.62
-155.46
-181.81
-195.41
-197.10
-189.70
-177.14
-163.16
-150.27
-139.46
-130.58
-123.01
-116.16
-109.64
-103.14
-96.44
-89.35
-81.95
-74.61
-67.79
-61.96
-57.28
-53.57
-50.33
-47.04
-43.36
-39.29
-35.16
-31.41
-28.39
-26.20
-24.66
-23.46
-22.30
-20.97
-19.42
-17.71
-15.98
-14.37
-12.99
-11.87
-10.95
-10.09
-9.16
-8.08
-6.85
-5.55
-4.27
-3.08
-2.02
-1.13
-0.49
-0.20
-0.29
-0.71
-1.28
-1.77
-2.00
-1.88
-1.48
-0.95
-0.49
-0.24
-0.24
-0.45
-0.81
-1.20
-1.55
-1.77
-1.81
-1.63
-1.25
-0.72
-0.14
0.42
0.86
1.11
1.18
1.11
0.97
0.85
0.78
0.75
0.73
0.73
0.81
1.09
1.62
2.33
3.03
3.45
3.40
2.84
1.91
0.81
-0.25
-1.19
-1.96
-2.53
-2.85
-2.83
-2.47
-1.85
-1.15
-0.54
-0.15
-0.01
-0.06
-0.23
-0.51
-0.90
-1.42
-2.02
-2.60
-3.01
-3.14
-2.94
-2.47
-1.87
-1.29
-0.82
-0.49
-0.21
0.17
0.79
1.68
2.74
3.76
4.47
4.65
4.23
3.29
2.02
0.64
-0.64
-1.66
-2.31
-2.48
-2.18
-1.46
-0.51
0.45
1.17
1.50
1.41
0.98
0.38
-0.18
-0.57
-0.71
-0.63
-0.43
-0.22
-0.07
0.03
0.14
0.33
0.62
0.98
1.33
1.64
1.90
2.15
2.44
2.79
3.18
3.53
3.71
3.63
3.20
2.45
1.46
0.40
-0.55
-1.25
-1.68
-1.84
-1.83
-1.70
-1.51
-1.28
-1.08
-0.98
-1.04
-1.28
-1.63
-1.99
-2.25
-2.37
-2.44
-2.59
-2.93
-3.47
-4.10
-4.60
-4.75
-4.46
-3.79
-2.96
-2.18
-1.64
-1.35
-1.17
-0.90
-0.38
0.47
1.57
2.75
3.82
4.59
4.89
4.64
3.84
2.61
1.18
-0.16
-1.14
-1.58
-1.46
-0.92
-0.21
0.47
0.95
1.22
1.33
1.36
1.35
1.28
1.13
0.91
0.66
0.46
0.38
0.41
0.49
0.54
0.49
0.36
0.22
0.17
0.24
0.44
0.71
0.98
1.23
1.46
1.70
1.98
2.24
2.40
2.36
2.00
1.29
0.27
-0.89
-1.98
-2.78
-3.14
-3.04
-2.55
-1.82
-1.02
-0.31
0.19
0.41
0.34
0.03
-0.44
-0.94
-1.34
-1.56
-1.60
-1.52
-1.43
-1.39
-1.40
-1.44
-1.46
-1.44
-1.36
-1.26
-1.14
-0.99
-0.74
-0.34
0.26
1.01
1.74
2.25
2.32
1.90
1.08
0.10
-0.77
-1.34
-1.53
-1.37
-0.94
-0.33
0.38
1.09
1.69
2.06
2.12
1.90
1.49
1.04
0.67
0.44
0.33
0.30
0.32
0.36
0.41
0.46
0.49
0.53
0.57
0.60
0.60
0.59
0.58
0.66
0.91
1.38
2.03
2.76
3.38
3.77
3.83
3.55
2.97
2.12
1.04
-0.19
-1.44
-2.50
-3.19
-3.39
-3.14
-2.57
-1.87
-1.22
-0.70
-0.36
-0.22
-0.33
-0.75
-1.48
-2.44
-3.42
-4.22
-4.67
-4.75
-4.52
-4.13
-3.71
-3.37
-3.12
-2.96
-2.80
-2.54
-2.05
-1.22
-0.06
1.29
2.57
3.48
3.81
3.53
2.82
1.96
1.22
0.76
0.61
0.68
0.88
1.12
1.38
1.64
1.86
1.98
1.96
1.82
1.61
1.42
1.27
1.15
1.02
0.85
0.67
0.54
0.52
0.58
0.66
0.70
0.68
0.66
0.74
0.96
1.28
1.61
1.86
2.01
2.11
2.23
2.41
2.60
2.63
2.36
1.69
0.70
-0.41
-1.37
-1.95
-2.08
-1.82
-1.40
-1.03
-0.89
-1.03
-1.36
-1.74
-2.01
-2.09
-2.00
-1.83
-1.71
-1.75
-2.00
-2.42
-2.92
-3.38
-3.71
-3.86
-3.84
-3.69
-3.46
-3.15
-2.78
-2.28
-1.56
-0.55
0.74
2.21
3.60
4.62
5.01
4.63
3.56
2.05
0.46
-0.90
-1.79
-2.13
-1.97
-1.43
-0.67
0.17
0.95
1.54
1.85
1.83
1.52
1.04
0.53
0.19
0.15
0.44
1.02
1.76
2.49
3.04
3.31
3.29
3.05
2.68
2.33
2.07
1.94
1.94
2.04
2.22
2.45
2.68
2.86
2.93
2.82
2.51
2.02
1.38
0.66
-0.06
-0.73
-1.28
-1.69
-1.90
-1.93
-1.81
-1.59
-1.35
-1.18
-1.11
-1.18
-1.38
-1.74
-2.22
-2.83
-3.49
-4.12
-4.65
-5.03
-5.23
-5.24
-5.00
-4.49
-3.69
-2.67
-1.62
-0.76
-0.28
-0.23
-0.49
-0.87
-1.16
-1.25
-1.12
-0.80
-0.28
0.44
1.36
2.40
3.36
4.00
4.13
3.66
2.67
1.41
0.18
-0.77
-1.27
-1.33
-1.05
-0.59
-0.07
0.40
0.81
1.15
1.37
1.45
1.39
1.22
1.01
0.85
0.80
0.86
1.02
1.24
1.45
1.58
1.57
1.40
1.10
0.75
0.45
0.25
0.15
0.10
0.05
-0.01
-0.08
-0.12
-0.13
-0.14
-0.20
-0.33
-0.50
-0.63
-0.66
-0.58
-0.49
-0.54
-0.83
-1.38
-2.08
-2.70
-3.04
-2.94
-2.40
-1.55
-0.56
0.38
1.14
1.65
1.91
1.91
1.70
1.38
1.05
0.78
0.61
0.48
0.32
0.10
-0.17
-0.40
-0.50
-0.42
-0.18
0.10
0.30
0.27
-0.02
-0.49
-0.99
-1.34
-1.40
-1.15
-0.72
-0.32
-0.19
-0.46
-1.07
-1.75
-2.14
-1.96
-1.18
-0.09
0.74
0.77
-0.30
-2.28
-4.50
-6.10
-6.34
-5.05
-2.78
-0.62
0.21
-1.01
-4.11
-7.95
-10.93
-11.65
-9.70
-5.98
-2.36
-0.90
-2.79
-7.72
-13.95
-19.08
-21.11
-19.38
-14.93
-9.89
-6.75
-7.45
-12.90
-22.83
-35.61
-47.90
-54.60
-49.83
-29.19
7.37
53.86
99.23
131.21
141.26
128.29
98.81
63.55
32.48
10.95
-1.03
-6.81
-9.90
-11.89
-12.43
-10.75
-7.14
-3.39
-1.87
-4.08
-9.75
-16.92
-22.82
-25.24
-23.45
-18.46
-12.39
-7.54
-5.38
-6.02
-8.37
-10.69
-11.53
-10.30
-7.45
-4.11
-1.52
-0.45
-0.93
-2.30
-3.61
-4.04
-3.26
-1.49
0.67
2.49
3.48
3.53
2.85
1.90
1.09
0.67
0.68
0.97
1.35
1.60
1.60
1.27
0.67
-0.10
-0.84
-1.37
-1.60
-1.54
-1.34
-1.15
-1.05
-1.05
-1.07
-1.07
-1.04
-1.04
-1.14
-1.34
-1.54
-1.64
-1.54
-1.27
-0.96
-0.74
-0.72
-0.90
-1.18
-1.42
-1.50
-1.39
-1.13
-0.84
-0.60
-0.45
-0.35
-0.24
-0.10
0.04
0.10
0.04
-0.16
-0.41
-0.59
-0.60
-0.41
-0.07
0.33
0.71
1.02
1.23
1.33
1.30
1.16
0.93
0.66
0.45
0.35
0.36
0.44
0.55
0.63
0.66
0.64
0.56
0.42
0.22
-0.03
-0.29
-0.50
-0.64
-0.75
-0.86
-1.03
-1.26
-1.51
-1.70
-1.79
-1.78
-1.72
-1.71
-1.81
-2.06
-2.42
-2.86
-3.31
-3.77
-4.26
-4.79
-5.37
-5.95
-6.46
-6.84
-7.11
-7.32
-7.62
-8.08
-8.70
-9.36
-9.90
-10.24
-10.41
-10.57
-10.97
-11.79
-13.10
-14.87
-16.99
-19.30
-21.59
-23.73
-25.66
-27.53
-29.58
-32.15
-35.47
-39.49
-43.93
-48.34
-52.38
-55.90
-59.11
-62.43
-66.25
-70.81
-76.09
-81.84
-87.78
-93.80
-99.99
-106.68
-114.26
-123.06
-133.31
-145.22
-158.88
-174.08
-189.77
-203.82
-213.07
-214.05
-204.14
-182.45
-150.08
-109.45
-63.23
-13.64
37.47
87.90
134.54
173.58
201.74
217.69
222.83
220.76
215.71
210.85
207.42
204.98
202.51
199.44
196.05
193.11
191.15
190.01
188.92
187.02
183.96
180.04
176.07
172.91
170.99
170.19
169.95
169.71
169.24
168.78
168.84
169.93
172.34
176.17
181.45
188.14
195.75
202.87
207.04
205.16
194.44
173.50
142.80
104.26
60.20
12.40
-37.86
-89.04
-138.36
-181.63
-214.24
-233.00
-237.61
-230.95
-217.81
-202.87
-189.11
-177.25
-166.51
-155.82
-144.84
-134.02
-124.16
-115.68
-108.26
-101.12
-93.49
-85.11
-76.31
-67.92
-60.75
-55.26
-51.40
-48.60
-46.06
-42.98
-38.86
-33.62
-27.59
-21.37
-15.61
-10.80
-7.15
-4.60
-2.87
-1.74
-1.04
-0.77
-0.97
-1.58
-2.40
-3.11
-3.44
-3.29
-2.74
-2.04
-1.48
-1.23
-1.35
-1.73
-2.23
-2.75
-3.23
-3.65
-3.97
-4.13
-4.06
-3.74
-3.23
-2.66
-2.16
-1.81
-1.60
-1.47
-1.36
-1.25
-1.16
-1.16
-1.27
-1.43
-1.54
-1.53
-1.39
-1.15
-0.90
-0.69
-0.49
-0.20
0.26
0.89
1.56
2.05
2.15
1.76
0.97
-0.02
-0.92
-1.54
-1.82
-1.84
-1.80
-1.87
-2.16
-2.67
-3.29
-3.90
-4.36
-4.60
-4.62
-4.49
-4.29
-4.08
-3.84
-3.53
-3.08
-2.45
-1.70
-0.92
-0.22
0.34
0.75
1.04
1.28
1.47
1.65
1.81
1.99
2.20
2.45
2.65
2.71
2.52
2.08
1.50
1.02
0.83
1.03
1.54
2.17
2.70
2.97
2.96
2.74
2.42
2.04
1.59
1.05
0.43
-0.19
-0.70
-1.02
-1.13
-1.08
-0.99
-0.96
-1.05
-1.24
-1.48
-1.68
-1.77
-1.74
-1.63
-1.49
-1.37
-1.32
-1.36
-1.46
-1.62
-1.83
-2.07
-2.36
-2.70
-3.08
-3.42
-3.64
-3.63
-3.34
-2.78
-2.02
-1.16
-0.27
0.58
1.35
1.97
2.43
2.75
3.01
3.34
3.80
4.36
4.85
5.07
4.85
4.19
3.22
2.15
1.18
0.41
-0.17
-0.64
-1.12
-1.62
-2.12
-2.52
-2.73
-2.73
-2.54
-2.24
-1.86
-1.45
-1.01
-0.58
-0.23
-0.05
-0.12
-0.40
-0.78
-1.11
-1.26
-1.22
-1.07
-0.92
-0.83
-0.76
-0.64
-0.36
0.08
0.64
1.18
1.53
1.59
1.32
0.82
0.26
-0.15
-0.24
0.07
0.72
1.55
2.36
2.94
3.20
3.13
2.79
2.29
1.72
1.19
0.76
0.48
0.33
0.25
0.13
-0.12
-0.54
-1.12
-1.71
-2.15
-2.28
-2.03
-1.48
-0.81
-0.23
0.13
0.26
0.27
0.31
0.45
0.67
0.84
0.81
0.52
0.02
-0.61
-1.24
-1.85
-2.42
-2.97
-3.49
-3.88
-4.01
-3.73
-3.00
-1.90
-0.65
0.48
1.25
1.54
1.39
0.94
