1660750556.00
64.000000
-0.00
-0.00
-0.00
-0.00
-0.00
-0.00
-0.00
-0.00
-0.00
-0.00
0.00
0.01
0.01
-0.00
-0.03
-0.05
-0.05
0.00
0.13
0.36
0.66
1.01
1.37
1.72
2.06
2.40
2.79
3.24
3.80
4.42
5.06
5.66
6.20
6.68
7.15
7.68
8.31
9.14
10.09
11.04
11.88
12.56
13.14
13.76
14.65
15.96
17.91
20.32
22.90
25.38
27.58
29.57
31.68
34.32
37.81
42.54
48.15
54.10
59.83
64.97
69.58
74.14
79.34
85.71
93.76
103.00
112.62
121.73
129.77
136.75
143.30
150.75
157.77
166.64
177.95
191.79
206.97
220.57
228.25
225.36
208.53
176.87
132.76
80.05
23.07
-34.94
-92.44
-149.16
-205.23
-260.37
-313.74
-363.87
-409.83
-450.91
-486.50
-515.74
-537.23
-549.22
-549.96
-538.37
-514.21
-478.67
-433.86
-382.42
-326.98
-269.83
-212.68
-156.80
-103.20
-52.71
-6.30
35.16
71.02
100.97
125.12
143.96
158.18
168.52
175.64
179.96
181.78
181.32
178.80
174.51
168.81
162.12
154.82
147.25
139.62
132.04
124.49
116.89
109.16
101.27
93.31
85.46
77.96
71.01
64.70
58.93
53.44
47.93
42.18
36.22
30.29
24.80
20.13
16.45
13.57
11.03
8.27
4.87
0.84
-3.45
-7.37
-10.34
-12.08
-12.78
-12.95
-13.28
-14.38
-16.67
-20.34
-25.08
-29.94
-33.26
-33.01
-27.62
-16.77
-1.91
14.07
27.91
37.22
41.25
40.97
38.30
35.17
32.79
31.46
30.82
30.30
29.42
28.03
26.21
24.14
22.03
19.92
17.67
15.12
12.26
9.36
6.93
5.48
5.21
5.80
6.58
6.82
6.12
4.57
2.62
0.91
-0.13
-0.41
-0.18
0.15
0.25
-0.03
-0.63
-1.40
-2.18
-2.84
-3.33
-3.51
-3.25
-2.45
-1.08
0.73
2.68
4.43
5.69
6.31
6.36
6.09
5.79
5.75
6.13
6.92
7.99
9.15
10.27
11.34
12.35
13.29
14.01
14.28
13.82
12.47
10.34
7.57
4.50
1.46
-1.31
-3.77
-6.03
-8.18
-10.26
-12.16
-13.71
-14.71
-15.10
-14.90
-14.31
-13.52
-12.74
-12.09
-11.63
-11.35
-11.17
-11.01
-10.75
-10.29
-9.51
-8.35
-6.86
-5.20
-3.63
-2.43
-1.79
-1.68
-1.89
-2.11
-2.08
-1.75
-1.29
-0.97
-0.97
-1.27
-1.66
-1.86
-1.69
-1.20
-0.58
-0.09
0.11
-0.01
-0.30
-0.59
-0.74
-0.73
-0.63
-0.59
-0.74
-1.09
-1.55
-1.96
-2.16
-2.09
-1.78
-1.35
-0.95
-0.72
-0.71
-0.94
-1.46
-2.24
-3.25
-4.39
-5.44
-6.13
-6.14
-5.21
-3.30
-0.58
2.52
5.43
7.62
8.79
8.93
8.32
7.34
6.33
5.47
4.79
4.25
3.82
3.50
3.31
3.25
3.25
3.23
3.10
2.83
2.47
2.08
1.75
1.51
1.34
1.17
0.91
0.50
-0.06
-0.68
-1.25
-1.66
-1.90
-2.05
-2.24
-2.62
-3.19
-3.89
-4.63
-5.35
-6.12
-7.04
-8.06
-8.93
-9.27
-8.71
-7.12
-4.76
-2.13
0.20
1.89
2.93
3.52
3.92
4.22
4.38
4.26
3.82
3.21
2.67
2.46
2.63
3.06
3.48
3.65
3.45
2.95
2.37
1.88
1.59
1.43
1.29
1.06
0.69
0.21
-0.34
-0.96
-1.67
-2.48
-3.35
-4.19
-4.94
-5.58
-6.19
-6.87
-7.66
-8.53
-9.38
-10.10
-10.61
-10.83
-10.68
-10.03
-8.80
-6.96
-4.64
-2.10
0.34
2.35
3.73
4.41
4.48
4.20
3.90
3.97
4.66
6.03
7.88
9.80
11.41
12.52
13.29
14.27
16.12
19.31
23.89
29.28
34.40
37.99
38.95
36.78
31.70
24.74
17.41
11.32
7.60
6.56
7.59
9.30
10.10
8.84
5.23
-0.05
-5.71
-10.44
-13.38
-14.27
-13.21
-10.23
-5.12
2.48
12.59
24.46
36.45
46.42
52.43
53.39
49.41
41.61
31.68
21.28
11.73
3.80
-2.25
-6.62
-9.83
-12.54
-15.38
-18.72
-22.59
-26.71
-30.66
-34.12
-36.96
-39.25
-41.16
-42.81
-44.20
-45.24
-45.89
-46.21
-46.42
-46.73
-47.16
-47.40
-46.82
-44.65
-40.37
-33.97
-26.07
-17.74
-10.24
-4.63
-1.57
-1.21
-3.24
-6.87
-11.03
-14.51
-16.28
-15.84
-13.40
-9.80
-6.11
-3.26
-1.63
-1.02
-0.94
-0.91
-0.63
0.01
1.06
2.63
4.85
7.70
10.95
14.16
16.83
18.66
19.59
19.90
20.00
20.31
21.11
22.49
24.38
26.57
28.83
30.99
32.95
34.75
36.45
38.12
39.75
41.23
42.39
43.02
42.98
42.24
40.84
38.87
36.32
33.02
28.69
23.08
16.17
8.36
0.41
-6.83
-12.64
-16.77
-19.41
-21.03
-22.16
-23.09
-23.94
-24.70
-25.44
-26.28
-27.43
-28.97
-30.73
-32.40
-33.56
-33.91
-33.38
-32.11
-30.40
-28.55
-26.77
-25.14
-23.64
-22.19
-20.70
-19.05
-17.13
-14.91
-12.46
-9.97
-7.65
-5.69
-4.15
-3.03
-2.24
-1.75
-1.57
-1.74
-2.28
-3.12
-4.06
-4.85
-5.16
-4.72
-3.35
-1.13
1.70
4.71
7.49
9.78
11.50
12.76
13.70
14.46
15.04
15.41
15.53
15.41
15.16
14.89
14.69
14.61
14.61
14.62
14.61
14.59
14.61
14.76
15.04
15.39
15.70
15.87
15.86
15.66
15.29
14.70
13.79
12.44
10.63
8.45
6.05
3.49
0.72
-2.36
-5.79
-9.45
-13.05
-16.28
-18.91
-20.88
-22.16
-22.62
-22.05
-20.18
-16.95
-12.65
-7.89
-3.38
0.34
3.12
5.12
6.64
7.87
8.74
9.03
8.50
7.09
5.01
2.67
0.51
-1.20
-2.42
-3.30
-4.07
-4.91
-5.82
-6.64
-7.18
-7.26
-6.88
-6.22
-5.56
-5.17
-5.19
-5.62
-6.24
-6.82
-7.11
-7.03
-6.68
-6.36
-6.42
-7.14
-8.60
-10.69
-13.11
-15.55
-17.71
-19.39
-20.46
-20.82
-20.43
-19.30
-17.54
-15.32
-12.88
-10.42
-8.12
-6.09
-4.40
-3.04
-1.92
-0.83
0.47
2.21
4.50
7.27
10.29
13.16
15.40
16.52
16.23
14.55
11.94
9.19
7.10
6.11
6.10
6.40
6.27
5.25
3.49
1.71
0.79
1.29
3.15
5.66
7.77
8.45
7.06
3.48
-1.89
-8.30
-14.81
-20.56
-24.89
-27.33
-27.72
-26.09
-22.70
-17.96
-12.42
-6.69
-1.30
3.34
6.97
9.54
11.08
11.67
11.43
10.48
9.00
7.23
5.47
4.04
3.17
2.95
3.28
3.87
4.35
4.44
4.01
3.10
1.88
0.48
-1.00
-2.52
-4.07
-5.53
-6.76
-7.62
-8.06
-8.14
-8.03
-7.90
-7.86
-7.96
-8.14
-8.36
-8.61
-8.93
-9.42
-10.16
-11.14
-12.20
-13.06
-13.41
-12.98
-11.65
-9.49
-6.72
-3.69
-0.77
1.70
3.55
4.72
5.32
5.51
5.46
5.28
5.02
4.65
4.20
3.74
3.44
3.44
3.83
4.54
5.32
5.85
5.87
5.28
4.19
2.85
1.53
0.41
-0.52
-1.32
-2.13
-3.00
-3.83
-4.50
-4.88
-4.99
-4.98
-5.09
-5.53
-6.36
-7.45
-8.52
-9.30
-9.57
-9.26
-8.35
-6.86
-4.80
-2.21
0.79
3.96
7.00
9.66
11.83
13.55
14.94
16.16
17.31
18.42
19.46
20.36
20.97
21.14
20.73
19.78
18.49
17.24
16.45
16.44
17.25
18.62
20.09
21.16
21.48
20.93
19.56
17.50
14.88
11.72
8.05
3.99
-0.18
-4.05
-7.22
-9.50
-11.02
-12.15
-13.39
-15.06
-17.20
-19.55
-21.67
-23.09
-23.41
-22.42
-20.07
-16.51
-12.06
-7.15
-2.23
2.26
6.07
9.09
11.34
12.96
14.14
15.12
16.11
17.20
18.29
19.09
19.23
18.52
17.05
15.18
13.36
11.88
10.70
9.53
8.09
6.32
4.42
2.76
1.59
0.91
0.43
-0.24
-1.33
-2.86
-4.61
-6.26
-7.58
-8.49
-9.02
-9.32
-9.48
-9.57
-9.67
-9.88
-10.35
-11.28
-12.73
-14.49
-16.05
-16.78
-16.14
-14.05
-10.91
-7.47
-4.50
-2.43
-1.29
-0.72
-0.36
0.00
0.34
0.43
0.12
-0.62
-1.62
-2.61
-3.30
-3.55
-3.40
-3.01
-2.67
-2.58
-2.82
-3.24
-3.61
-3.73
-3.54
-3.22
-3.05
-3.32
-4.17
-5.50
-6.96
-8.14
-8.69
-8.55
-7.90
-7.18
-6.82
-7.06
-7.88
-9.01
-10.07
-10.77
-10.95
-10.55
-9.56
-7.93
-5.64
-2.78
0.39
3.44
5.98
7.67
8.43
8.37
7.74
6.80
5.81
4.94
4.29
3.86
3.51
3.05
2.31
1.29
0.24
-0.33
0.13
2.04
5.43
9.95
14.96
19.86
24.36
28.57
32.94
38.03
44.20
51.42
59.25
66.96
73.60
78.20
79.86
77.93
72.25
63.43
52.82
42.14
32.87
25.50
19.31
12.70
4.11
-6.98
-19.55
-31.37
-40.04
-44.16
-44.00
-41.29
-38.29
-36.70
-36.97
-38.41
-39.78
-40.15
-39.28
-37.59
-35.64
-33.70
-31.60
-29.03
-26.05
-23.32
-21.91
-22.69
-25.81
-30.40
-35.00
-38.23
-39.46
-38.98
-37.67
-36.37
-35.42
-34.53
-33.14
-30.81
-27.52
-23.63
-19.67
-16.11
-13.23
-11.08
-9.57
-8.44
-7.42
-6.27
-4.86
-3.25
-1.56
0.15
2.05
4.43
7.61
11.61
16.08
20.32
23.49
25.00
24.75
23.20
21.38
20.53
21.76
25.78
32.71
42.09
53.07
64.70
76.22
87.20
97.71
108.00
118.78
131.17
146.30
164.56
185.05
205.49
222.68
233.31
234.80
226.37
209.59
187.90
165.41
145.73
130.98
121.63
116.70
113.65
110.04
104.42
96.51
86.48
74.47
60.58
45.16
29.10
11.65
-7.06
-25.52
-41.23
-52.33
-58.46
-60.25
-58.55
-54.03
-51.70
-55.63
-66.81
-83.21
-102.26
-122.56
-143.56
-164.73
-185.37
-211.59
-247.57
-291.93
-338.03
-378.84
-410.74
-433.61
-449.50
-461.36
-480.95
-516.49
-567.57
-625.63
-680.84
-727.29
-763.49
-790.41
-753.94
-627.09
-426.63
-204.32
-7.04
145.59
255.00
330.72
383.09
420.25
438.91
436.52
416.64
389.03
363.48
345.40
335.56
332.70
334.65
332.25
318.76
293.77
262.97
233.18
208.20
188.83
174.46
163.52
149.73
128.34
98.86
65.15
32.32
6.69
-11.08
-21.52
-26.15
-29.18
-34.14
-42.33
-52.93
-64.62
-76.56
-88.16
-97.13
-99.67
-92.51
-73.96
-45.58
-12.41
18.32
39.99
49.21
47.38
39.08
29.08
20.34
13.37
7.52
2.59
-0.38
0.13
4.89
13.41
23.33
31.72
36.36
36.77
34.13
30.39
27.26
25.55
25.11
24.97
24.19
22.21
19.15
15.59
12.19
9.35
7.15
5.30
3.27
0.63
-2.76
-6.70
-10.80
-14.65
-18.04
-21.00
-23.74
-26.57
-29.67
-33.02
-36.38
-39.53
-42.33
-44.93
-47.58
-50.67
-54.57
-59.33
-64.62
-69.65
-73.35
-74.51
-72.80
-67.99
-60.45
-51.15
-41.37
-32.41
-25.20
-20.12
-16.98
-15.26
-14.20
-13.20
-11.92
-10.26
-8.28
-6.11
-3.85
-1.51
0.91
3.50
6.26
9.14
11.99
14.62
16.77
18.15
18.42
17.35
14.87
11.12
6.41
1.23
-3.90
-8.47
-12.06
-14.44
-15.58
-15.63
-14.90
-13.85
-12.99
-12.81
-13.64
-15.59
-18.41
-21.47
-23.83
-24.47
-22.62
-18.01
-10.99
-2.36
6.90
15.93
24.16
31.24
36.94
41.13
43.79
45.12
45.48
45.33
44.92
44.27
43.16
41.42
39.23
37.00
35.28
34.35
33.94
33.34
31.69
28.42
23.54
17.63
11.45
5.66
0.48
-4.21
-8.71
-13.20
-17.67
-21.93
-25.84
-29.41
-32.84
-36.45
-40.49
-44.99
-49.76
-54.25
-57.74
-59.24
-57.75
-52.41
-42.93
-29.76
-14.18
1.95
16.77
28.90
37.78
43.60
46.95
48.39
48.17
46.32
42.84
38.02
32.52
27.23
22.98
20.22
18.93
18.77
19.35
20.45
22.01
24.07
26.51
28.97
30.84
31.52
30.71
28.57
25.68
22.80
20.62
19.46
19.24
19.46
19.40
18.23
15.27
10.21
3.37
-4.25
-11.09
-15.51
-16.35
-13.38
-7.44
-0.00
7.34
13.49
18.12
21.47
23.98
25.90
27.12
27.35
26.38
24.32
21.59
18.68
15.89
13.18
10.25
6.83
2.90
-1.17
-4.68
-6.85
-7.13
-5.35
-1.82
2.70
7.19
10.72
12.69
13.15
12.73
12.42
13.07
15.00
17.78
20.39
21.63
20.59
17.01
11.37
4.80
-1.30
-5.54
-6.96
-5.19
-0.48
6.40
14.35
22.23
29.09
34.22
37.28
38.25
37.44
35.38
32.80
30.36
28.57
27.65
27.50
27.77
27.97
27.63
26.43
24.42
21.98
19.73
18.28
17.93
18.50
19.36
19.69
18.80
16.41
12.77
8.48
4.23
0.56
-2.39
-4.83
-7.23
-10.14
-14.00
-18.89
-24.48
-30.03
-34.52
-36.95
-36.58
-33.23
-27.30
-19.66
-11.32
-3.12
4.50
11.43
17.74
23.42
28.31
32.19
35.02
37.02
38.66
40.40
42.43
44.54
46.14
46.58
45.42
42.67
38.79
34.46
30.31
26.65
23.46
20.47
17.41
14.18
10.88
7.70
4.77
2.06
-0.55
-3.18
-5.83
-8.35
-10.56
-12.36
-13.76
-14.81
-15.52
-15.79
-15.39
-14.07
-11.64
-8.07
-3.54
1.60
6.84
11.63
15.42
17.81
18.62
17.99
16.29
14.05
11.74
9.69
7.94
6.36
4.75
3.01
1.18
-0.63
-2.28
-3.76
-5.14
-6.42
-7.50
-8.07
-7.75
-6.20
-3.28
0.97
6.29
12.25
18.30
23.74
27.82
29.85
29.50
27.00
23.17
19.20
16.24
14.96
15.41
17.08
19.34
21.80
24.47
27.67
31.76
36.81
42.48
48.19
53.33
57.41
60.13
61.18
60.14
56.40
49.32
38.63
24.76
9.00
-6.67
-20.07
-29.51
-34.20
-34.47
-31.49
-26.84
-22.04
-18.22
-16.04
-15.69
-16.97
-19.35
-22.02
-24.14
-25.05
-24.62
-23.32
-22.08
-21.93
-23.60
-27.20
-32.23
-37.84
-43.18
-47.66
-51.10
-53.52
-55.02
-55.57
-55.10
-53.57
-51.17
-48.25
-45.29
-42.59
-40.19
-37.89
-35.30
-32.04
-27.80
-22.40
-15.73
-7.76
1.31
10.95
20.22
27.92
32.92
34.60
33.20
29.83
26.06
23.40
22.67
23.83
26.18
28.83
31.15
32.99
34.54
36.01
37.39
38.43
38.85
38.49
37.41
35.73
33.46
30.41
26.36
21.26
15.47
9.71
4.92
1.90
1.06
2.38
5.43
9.60
14.24
18.69
22.37
24.70
25.29
24.01
21.08
17.10
12.82
8.96
5.96
3.91
2.53
1.28
-0.43
-3.12
-6.99
-11.90
-17.33
-22.59
-27.05
-30.35
-32.52
-33.83
-34.63
-35.17
-35.54
-35.76
-35.93
-36.31
-37.19
-38.83
-41.23
-44.08
-46.88
-49.20
-50.86
-52.04
-53.18
-54.75
-56.91
-59.43
-61.75
-63.20
-63.28
-61.78
-58.79
-54.54
-49.26
-43.12
-36.30
-29.04
-21.74
-14.90
-8.96
-4.19
-0.61
1.98
3.80
5.05
5.74
5.79
5.13
3.84
2.20
0.60
-0.61
-1.31
-1.58
-1.63
-1.60
-1.50
-1.18
-0.54
0.44
1.59
2.65
3.35
3.55
3.27
2.68
2.03
1.56
1.43
1.66
2.13
2.74
3.47
4.51
6.21
8.92
12.77
17.50
22.65
27.65
32.10
35.75
38.45
39.95
39.90
38.08
34.62
30.16
25.75
22.40
20.67
20.43
20.91
21.11
20.22
17.96
14.60
10.79
7.21
4.31
2.18
0.62
-0.74
-2.18
-3.83
-5.55
-7.01
-7.81
-7.54
-5.97
-3.13
0.64
4.66
8.06
10.07
10.33
9.09
7.27
6.12
6.87
10.18
15.92
23.06
29.98
34.87
36.32
33.75
27.69
19.69
11.77
5.83
2.93
3.06
5.24
8.08
10.36
11.42
11.29
10.38
9.23
8.22
7.58
7.41
7.80
8.80
10.31
12.07
13.63
14.45
14.09
12.33
9.21
5.02
0.21
-4.76
-9.50
-13.78
-17.56
-20.98
-24.34
-27.92
-31.84
-35.93
-39.73
-42.59
-43.93
-43.42
-41.09
-37.28
-32.47
-27.15
-21.79
-16.76
-12.41
-9.03
-6.76
-5.58
-5.29
-5.67
-6.57
-7.86
-9.47
-11.20
-12.80
-13.99
-14.65
-14.88
-14.91
-15.01
-15.32
-15.89
-16.72
-17.82
-19.23
-20.91
-22.69
-24.24
-25.20
-25.29
-24.54
-23.26
-21.85
-20.72
-20.17
-20.29
-20.97
-21.91
-22.64
-22.72
-21.76
-19.45
-15.57
-10.07
-3.11
4.91
13.47
22.03
30.10
37.64
45.18
53.66
63.99
76.55
90.98
106.33
121.46
135.01
146.20
155.26
163.26
171.70
181.90
194.70
210.28
227.88
244.60
256.65
260.67
255.03
240.31
218.90
194.15
169.23
145.96
122.78
96.79
65.82
29.67
-10.18
-51.75
-93.13
-132.68
-168.81
-202.08
-233.16
-261.94
-287.35
-308.55
-325.85
-340.36
-353.37
-352.49
-328.15
-279.58
-216.67
-152.21
-94.29
-45.32
-4.30
30.38
60.45
84.99
102.80
113.92
120.37
125.12
130.61
138.38
147.68
158.19
167.69
174.11
176.72
176.64
175.86
176.18
178.75
183.07
188.56
193.39
195.73
194.41
189.14
179.64
164.43
148.02
131.58
115.75
100.33
85.00
69.74
55.02
41.53
29.91
20.69
13.24
7.16
1.90
-2.96
-7.65
-12.10
-16.04
-19.15
-21.00
-21.93
-22.10
-21.58
-20.46
-18.81
-16.70
-14.22
-11.43
-8.30
-5.32
-2.75
-0.82
0.35
0.67
0.22
-0.91
-2.49
-4.18
-5.86
-7.32
-8.33
-8.71
-8.36
-7.23
-5.40
-3.03
-0.35
2.27
4.43
5.76
5.92
4.66
1.81
-2.70
-8.79
-16.29
-24.89
-34.18
-43.70
-52.90
-61.22
-68.12
-73.12
-75.84
-76.07
-73.77
-69.12
-62.53
-54.58
-46.01
-37.64
-30.28
-24.74
-21.74
-21.93
-25.80
-33.63
-45.40
-60.84
-79.39
-100.36
-123.14
-147.25
-172.45
-198.52
-225.06
-251.31
-276.14
-298.21
-316.11
-328.67
-335.10
-335.13
-329.04
-317.57
-301.83
-283.15
-262.94
-242.43
-222.63
-204.18
-187.33
-172.14
-158.53
-146.50
-136.06
-127.12
-119.16
-111.16
-101.58
-88.91
-72.20
-51.62
-28.52
-5.03
16.63
34.75
48.54
58.05
63.86
66.81
67.67
67.10
65.63
63.67
61.57
59.56
57.68
55.78
53.52
50.63
46.98
42.74
38.41
34.55
31.63
29.69
28.30
26.67
24.03
19.92
14.41
8.09
1.89
-3.46
-7.59
-10.67
-13.27
-16.07
-19.58
-23.99
-29.06
-34.13
-38.23
-40.14
-38.72
-33.24
-23.71
-11.02
3.22
17.14
29.16
38.36
44.56
48.10
49.52
49.24
47.58
44.79
41.15
37.07
32.89
28.87
25.05
21.31
17.54
13.78
10.14
6.90
4.24
2.25
0.88
0.00
-0.62
-1.26
-2.27
-4.01
-6.66
-10.15
-14.04
-17.74
-20.72
-22.82
-24.37
-26.09
-28.84
-33.26
-39.40
-46.54
-53.21
-57.47
-57.48
-52.14
-41.50
-26.81
-10.03
6.69
21.67
33.92
42.98
48.82
51.52
51.40
48.99
45.08
40.57
36.27
32.61
29.57
26.74
23.58
19.71
15.09
10.15
5.62
2.33
0.75
0.94
2.36
4.09
5.20
5.06
3.53
0.95
-2.08
-5.00
-7.53
-9.69
-11.78
-14.18
-17.26
-21.30
-26.52
-32.88
-39.89
-46.42
-50.70
-50.76
-45.16
-33.63
-17.42
1.07
19.09
34.49
46.21
54.27
59.27
61.87
62.41
61.04
57.93
53.55
48.60
43.86
39.80
36.41
33.29
29.78
25.48
20.37
14.92
9.84
5.78
2.96
0.97
-0.99
-3.75
-7.71
-12.66
-17.86
-22.53
-26.22
-29.04
-31.63
-34.80
-39.19
-45.11
-52.43
-60.63
-68.76
-75.38
-78.72
-77.09
-69.46
-56.02
-38.28
-18.76
-0.31
14.78
25.31
31.25
33.52
33.46
32.24
30.65
29.00
27.27
25.35
23.28
21.19
19.23
17.46
15.73
13.79
11.56
9.22
7.27
6.23
6.35
7.33
8.42
8.68
7.37
4.33
-0.00
-4.72
-8.85
-11.78
-13.58
-14.94
-16.97
-20.69
-26.66
-34.65
-43.53
-51.49
-56.36
-56.26
-50.06
-37.87
-20.98
-1.54
18.07
35.97
51.02
62.89
71.66
77.48
80.38
80.40
77.85
73.40
67.90
62.08
56.30
50.50
44.46
38.04
31.46
25.25
20.09
16.38
14.17
13.04
12.24
11.04
8.82
5.43
1.09
-3.71
-8.46
-12.88
-16.95
-20.93
-25.08
-29.69
-34.84
-40.47
-46.26
-51.54
-55.20
-55.92
-52.38
-43.83
-30.45
-13.49
5.10
23.18
39.07
51.85
61.34
67.79
71.56
72.89
71.92
68.80
63.89
57.78
51.22
44.94
39.35
34.58
30.46
26.76
23.27
20.00
17.06
14.49
12.18
9.78
6.88
3.15
-1.42
-6.54
-11.72
-16.53
-20.77
-24.67
-28.77
-33.80
-40.29
-48.19
-56.65
-64.02
-68.23
-67.42
-60.58
-47.96
-30.98
-11.78
7.47
25.09
40.08
52.08
61.06
67.22
70.78
72.06
71.54
69.71
67.04
63.79
59.98
55.50
50.22
44.27
37.99
31.95
26.75
22.74
20.01
18.30
17.16
15.96
14.10
11.09
6.68
1.05
-5.32
-11.73
-17.53
-22.43
-26.57
-30.56
-35.18
-41.15
-48.79
-57.82
-67.09
-74.77
-78.66
-76.80
-68.16
-53.09
-33.26
-11.21
10.40
29.50
45.01
56.72
65.06
70.67
74.04
75.46
75.12
73.11
69.68
65.19
60.01
54.50
48.81
43.04
37.31
31.88
27.09
23.25
20.43
18.39
16.61
14.53
11.71
8.01
3.47
-1.72
-7.32
-13.19
-19.20
-25.22
-31.12
-36.68
-41.70
-46.10
-50.12
-54.38
-59.82
-67.24
-76.71
-87.22
-96.54
-101.89
-100.84
-92.23
-76.59
-55.94
-33.04
-10.56
9.53
26.19
39.13
48.48
54.58
57.87
58.83
58.02
55.98
53.23
50.06
46.58
42.73
38.41
33.65
28.69
24.05
20.23
17.63
16.15
15.27
14.28
12.59
10.07
7.04
4.05
1.50
-0.57
-2.53
-4.86
-7.91
-11.69
-15.92
-20.24
-24.31
-28.02
-31.41
-34.75
-38.33
-42.57
-47.77
-53.97
-60.73
-66.95
-71.03
-71.12
-65.73
-54.22
-37.19
-16.40
5.68
26.55
44.30
58.03
67.71
73.84
77.10
78.03
77.00
74.37
70.50
65.86
60.93
56.08
51.60
47.67
44.32
41.56
39.32
37.44
35.68
33.86
31.79
29.33
26.42
23.05
19.19
14.93
10.32
5.42
0.29
-5.03
-10.44
-15.88
-21.21
-26.34
-31.13
-35.57
-39.83
-44.29
-49.54
-56.08
-63.97
-72.47
-79.94
-84.16
-82.94
-74.97
-60.27
-40.34
-17.70
4.89
25.06
41.44
53.61
61.87
66.86
69.22
69.44
67.91
65.04
61.25
57.03
52.74
48.58
44.48
40.26
35.78
31.17
26.76
23.13
20.72
19.57
19.23
18.86
17.60
14.92
10.99
6.45
2.16
-1.35
-4.09
-6.60
-9.53
-13.39
-18.21
-23.65
-29.16
-34.28
-38.75
-42.56
-45.90
-49.12
-52.70
-57.28
-63.49
-71.62
-81.21
-90.80
-98.02
-100.27
-95.60
-83.48
-65.11
-42.99
-20.11
0.90
18.44
31.91
41.53
47.90
51.70
53.54
53.91
53.18
51.54
49.12
45.92
42.08
37.72
33.06
28.29
23.64
19.34
15.67
12.95
11.40
11.00
11.42
12.07
12.26
11.43
9.30
5.98
1.95
-2.12
-5.59
-8.20
-10.16
-12.08
-14.69
-18.46
-23.41
-29.00
-34.43
-38.95
-42.26
-44.57
-46.55
-49.05
-52.81
-58.22
-65.04
-72.30
-78.29
-80.93
-78.34
-69.35
-54.05
-33.86
-11.04
11.79
32.42
49.43
62.22
70.90
75.90
77.79
77.22
74.88
71.44
67.44
63.26
59.04
54.73
50.34
45.95
41.79
38.12
35.09
32.62
30.51
28.56
26.60
24.67
22.72
20.65
18.20
15.11
11.22
6.55
1.30
-4.30
-10.06
-15.93
-21.81
-27.54
-32.84
-37.42
-41.21
-44.54
-48.13
-52.91
-59.55
-67.98
-77.07
-84.65
-88.02
-84.87
-74.11
-56.47
-34.22
-10.50
11.77
30.67
45.51
56.53
64.34
69.46
72.20
72.83
71.69
69.29
66.12
62.47
58.34
53.56
48.08
42.07
36.03
30.59
26.32
23.42
21.69
20.56
19.28
17.17
13.88
9.48
4.39
-0.81
-5.67
-10.03
-14.09
-18.22
-22.83
-28.09
-33.87
-39.80
-45.41
-50.35
-54.58
-58.36
-62.20
-66.63
-72.06
-78.67
-86.32
-94.35
-101.56
-106.15
-106.07
-99.64
-86.19
-66.52
-42.83
-18.07
4.94
24.26
39.16
49.87
57.10
61.60
63.94
64.54
63.78
62.05
59.60
56.63
53.13
49.05
44.31
39.06
33.59
28.39
23.97
20.74
18.80
17.85
17.30
16.41
14.62
11.73
8.04
4.10
0.54
-2.33
-4.71
-7.16
-10.32
-14.59
-19.78
-25.26
-30.12
-33.77
-36.15
-37.85
-39.86
-43.20
-48.51
-55.74
-64.02
-71.70
-76.67
-76.81
-70.64
-57.76
-39.18
-17.00
6.12
27.69
45.94
60.07
70.14
76.71
80.51
82.23
82.38
81.26
79.01
75.69
71.37
66.19
60.41
54.35
48.38
42.86
38.10
34.24
31.41
29.45
28.08
26.80
25.05
22.41
18.70
14.08
8.94
3.78
-1.12
-5.69
-10.12
-14.70
-19.64
-24.96
-30.48
-35.92
-41.04
-45.78
-50.34
-55.26
-61.16
-68.49
-77.09
-85.78
-92.43
-94.44
-89.70
-77.36
-58.40
-35.27
-11.05
11.48
30.63
45.88
57.55
66.16
72.02
75.19
75.68
73.78
70.17
65.70
61.10
56.63
52.11
47.08
41.30
34.93
28.59
23.06
18.94
16.35
14.90
13.87
12.45
9.99
6.23
1.30
-4.26
-9.69
-14.38
-18.08
-21.09
-24.07
-27.76
-32.55
-38.30
-44.43
-50.18
-55.03
-58.81
-61.83
-64.73
-68.24
-73.08
-79.74
-88.21
-97.68
-106.39
-111.87
-111.58
-103.68
-87.86
-65.56
-39.64
-13.48
9.94
28.88
42.87
52.51
58.79
62.58
64.44
64.65
63.45
61.12
58.05
54.53
50.68
46.38
41.50
36.06
30.42
25.21
21.11
18.60
17.68
17.88
18.41
18.46
17.46
15.23
11.99
8.23
4.54
1.35
-1.23
-3.46
-5.89
-9.06
-13.24
-18.19
-23.27
-27.70
-30.94
-33.06
-34.62
-36.61
-39.99
-45.32
-52.50
-60.59
-67.95
-72.49
-72.18
-65.59
-52.38
-33.55
-11.16
12.21
34.04
52.54
66.78
76.62
82.56
85.37
85.90
84.91
82.95
80.26
76.81
72.42
66.94
60.50
53.53
46.78
41.01
36.73
34.07
32.63
31.77
30.76
29.07
26.49
23.06
18.97
14.44
9.60
4.51
-0.86
-6.49
-12.38
-18.43
-24.46
-30.21
-35.46
-40.15
-44.32
-48.22
-52.17
-56.60
-61.98
-68.70
-76.70
-85.15
-92.23
-95.46
-92.44
-81.79
-63.82
-40.66
-15.54
8.31
28.54
44.19
55.53
63.40
68.66
71.85
73.30
73.15
71.64
69.06
65.69
61.73
57.15
51.92
46.06
39.85
33.80
28.56
24.61
22.11
20.78
19.98
18.96
17.04
13.83
9.34
3.90
-1.91
-7.44
-12.28
-16.38
-20.11
-24.10
-28.87
-34.60
-40.97
-47.36
-53.14
-57.94
-61.75
-64.89
-67.89
-71.29
-75.67
-81.53
-89.02
-97.71
-106.29
-112.64
-114.31
-109.30
-96.74
-77.39
-53.45
-27.87
-3.60
17.28
33.82
46.04
54.61
60.32
63.85
65.64
66.02
65.29
63.74
61.65
59.17
56.23
52.69
48.43
43.56
38.52
33.97
30.61
28.77
28.30
28.55
28.50
27.27
24.35
19.91
14.68
9.66
5.70
3.11
1.52
0.12
-2.00
-5.38
-9.95
-15.16
-20.23
-24.58
-28.03
-30.85
-33.58
-36.90
-41.44
-47.65
-55.50
-64.28
-72.49
-77.94
-78.32
-71.94
-58.31
-38.52
-14.99
9.26
31.44
49.68
63.28
72.48
78.03
80.74
81.27
80.11
77.67
74.34
70.44
66.10
61.26
55.74
49.54
42.90
36.42
30.90
27.01
25.05
24.72
25.20
25.33
24.06
20.77
15.61
9.37
3.13
-2.23
-6.43
-9.85
-13.23
-17.31
-22.40
-28.33
-34.61
-40.64
-46.01
-50.60
-54.57
-58.37
-62.67
-68.22
-75.52
-84.52
-94.24
-102.77
-107.59
-106.29
-97.43
-81.07
-58.84
-33.52
-8.17
14.58
33.12
46.92
56.32
62.11
65.21
66.43
66.44
65.66
64.36
62.49
59.89
56.34
51.73
46.23
40.23
34.33
29.05
24.82
21.84
20.08
19.38
19.34
19.44
19.05
17.66
14.98
11.15
6.66
2.17
-1.79
-5.04
-7.88
-10.91
-14.72
-19.63
-25.44
-31.54
-37.14
-41.64
-44.84
-47.07
-49.06
-51.66
-55.72
-61.71
-69.66
-78.91
-88.07
-95.06
-97.47
-93.27
-81.47
-62.59
-38.67
-12.67
12.38
34.14
51.34
63.74
71.77
76.27
78.13
78.19
77.13
75.37
72.96
69.74
65.50
60.19
54.04
47.46
40.93
34.83
29.44
24.94
21.52
19.31
18.21
17.86
17.53
16.44
13.92
9.73
4.17
-1.92
-7.56
-11.98
-14.94
-16.83
-18.57
-21.11
-25.06
-30.45
-36.64
-42.79
-48.13
-52.32
-55.54
-58.36
-61.58
-65.97
-72.10
-80.04
-89.07
-97.66
-103.53
-104.32
-98.14
-84.36
-63.87
-38.93
-12.56
12.27
33.35
49.59
60.91
68.00
71.80
73.26
73.07
71.77
69.66
66.91
63.58
59.64
55.10
50.03
44.70
39.50
34.95
31.45
29.20
28.15
27.95
28.05
27.82
26.71
24.44
21.07
16.94
12.55
8.38
4.67
1.47
-1.47
-4.55
-8.13
-12.43
-17.37
-22.58
-27.58
-32.00
-35.85
-39.62
-44.19
-50.40
-58.62
-68.28
-77.77
-84.73
-86.67
-81.74
-69.39
-50.60
-27.60
-3.17
20.08
40.29
56.56
68.65
76.78
81.30
82.63
81.36
78.26
74.19
69.82
65.59
61.42
57.02
52.08
46.61
40.97
35.84
31.84
29.32
28.16
27.80
27.48
26.41
24.07
20.31
15.37
9.75
4.09
-1.03
-5.34
-8.93
-12.19
-15.68
-19.86
-24.95
-30.92
-37.42
-43.95
-49.95
-55.02
-59.10
-62.68
-66.73
-72.43
-80.45
-90.36
-100.35
-107.46
-108.53
-101.30
-85.35
-62.33
-35.43
-8.33
15.91
35.55
50.21
60.45
67.19
71.16
72.83
72.58
70.81
68.05
64.81
61.37
57.66
53.35
48.11
41.91
35.07
28.35
22.56
18.36
16.01
15.19
15.20
15.17
14.35
12.33
9.13
5.03
0.41
-4.44
-9.39
-14.26
-18.92
-23.16
-26.85
-30.12
-33.30
-36.86
-41.14
-46.15
-51.51
-56.65
-61.03
-64.55
-67.57
-70.96
-75.74
-82.66
-91.66
-101.57
-110.11
-114.39
-111.82
-101.00
-82.35
-57.99
-31.08
-4.84
18.35
37.31
51.86
62.42
69.46
73.34
74.41
73.20
70.52
67.26
64.10
61.22
58.32
54.87
50.48
45.20
39.65
34.80
31.48
30.00
30.00
30.58
30.74
29.78
27.58
24.53
21.21
18.06
15.24
12.59
9.81
6.59
2.78
-1.67
-6.74
-12.36
-18.38
-24.52
-30.46
-35.83
-40.53
-44.75
-49.10
-54.44
-61.43
-70.07
-79.16
-86.45
-89.07
-84.57
-71.89
-51.90
-27.19
-1.23
22.77
42.77
58.12
69.24
76.96
81.97
84.54
84.79
82.91
79.43
75.11
70.66
66.38
62.10
57.41
52.04
46.23
40.75
36.57
34.38
34.20
35.34
36.69
37.14
36.02
33.22
29.30
25.09
21.43
18.77
16.92
15.05
11.99
6.71
-1.19
-11.32
-22.56
-33.66
-43.68
-52.25
-59.54
-66.02
-72.24
-78.75
-86.09
-94.54
-103.74
-112.31
-117.75
-117.11
-108.02
-89.73
-63.82
-33.81
-4.12
21.21
39.64
50.48
54.66
54.02
50.57
45.94
41.14
36.60
32.44
28.69
25.37
22.47
19.89
17.38
14.64
11.55
8.31
5.46
3.75
3.74
5.47
8.38
11.38
13.27
13.10
10.58
6.11
0.70
-4.57
-8.88
-12.09
-14.65
-17.39
-21.09
-26.08
-32.14
-38.60
-44.68
-49.79
-53.89
-57.33
-60.77
-64.92
-70.36
-77.40
-85.99
-95.58
-104.89
-111.89
-114.09
-109.23
-96.12
-75.33
-49.19
-21.15
5.32
27.77
45.25
58.10
67.31
73.85
78.34
81.07
82.16
81.85
80.41
78.10
75.06
71.26
66.64
61.30
55.57
50.12
45.62
42.64
41.28
41.12
41.27
40.74
38.73
35.04
30.11
24.78
19.91
15.98
12.82
9.73
5.83
0.49
-6.39
-14.25
-22.17
-29.24
-34.96
-39.43
-43.27
-47.40
-52.75
-59.99
-69.13
-79.37
-88.96
-95.51
-96.53
-90.21
-76.14
-55.50
-30.82
-5.20
18.59
38.73
54.57
66.32
74.65
80.25
83.62
85.10
85.05
83.83
81.83
79.29
76.23
72.45
67.76
62.21
56.14
50.24
45.26
41.72
39.75
39.00
38.83
38.40
36.98
34.06
29.55
23.69
17.05
10.25
3.81
-2.07
-7.60
-13.17
-19.21
-25.96
-33.33
-40.94
-48.21
-54.66
-60.03
-64.47
-68.56
-73.20
-79.40
-87.88
-98.61
-110.45
-121.17
-127.82
-127.67
-119.08
-102.22
-78.94
-52.23
-25.25
-0.47
20.66
37.64
50.60
59.99
66.39
70.50
73.06
74.63
75.47
75.41
74.05
70.93
65.95
59.45
52.21
45.30
39.63
35.73
33.56
32.59
32.01
31.11
29.52
27.23
24.44
21.37
18.03
14.25
9.85
4.79
-0.69
-6.15
-11.17
-15.49
-19.12
-22.32
-25.51
-29.03
-33.09
-37.66
-42.53
-47.39
-51.97
-56.17
-60.13
-64.20
-68.93
-74.87
-82.38
-91.23
-100.40
-108.00
-111.59
-108.88
-98.40
-80.11
-55.42
-26.78
2.94
31.19
56.15
76.85
93.00
104.80
112.83
117.79
120.54
121.78
122.03
121.67
120.89
119.64
117.76
115.18
112.09
109.10
107.01
106.64
108.58
112.79
118.33
123.52
126.48
125.81
121.06
112.70
101.93
90.41
79.50
69.40
58.98
46.23
29.08
6.27
-22.16
-54.84
-88.88
-121.56
-152.13
-182.10
-213.43
-246.40
-278.39
-304.58
-319.66
-318.19
-297.34
-259.07
-210.19
-159.76
-116.36
-86.50
-73.24
-75.21
-83.86
-87.29
-76.63
-50.36
-13.55
25.34
57.74
77.67
83.72
82.72
85.93
102.82
137.67
190.89
260.48
341.66
426.45
484.52
486.75
429.86
341.08
252.90
182.89
133.25
98.37
71.59
49.00
33.61
29.84
37.41
49.55
57.08
53.67
37.75
11.52
-21.12
-54.84
-82.13
-102.18
-120.34
-144.22
-179.69
-229.26
-291.61
-361.84
-430.46
-486.27
-521.29
-532.97
-523.85
-499.46
-466.26
-429.63
-392.76
-355.81
-317.76
-279.08
-242.15
-209.99
-184.44
-165.28
-150.54
-137.61
-124.24
-109.36
-93.76
-79.19
-67.23
-58.27
-51.38
-44.79
-36.50
-25.14
-10.52
6.07
22.31
35.58
43.74
45.86
42.39
34.96
25.79
17.05
10.28
6.32
5.30
6.89
10.43
15.08
19.96
24.24
27.31
28.84
28.76
27.30
24.86
21.95
19.11
16.69
14.87
13.53
12.40
11.16
9.59
7.65
5.47
3.29
1.30
-0.41
-1.96
-3.62
-5.72
-8.59
-12.46
-17.44
-23.49
-30.56
-38.55
-47.37
-56.93
-67.10
-77.63
-88.11
-97.95
-106.47
-112.98
-116.89
-117.81
-115.58
-110.24
-101.90
-90.70
-76.73
-60.11
-41.05
-20.05
2.09
24.20
44.96
63.10
77.67
88.23
94.82
97.86
97.89
95.38
90.66
84.01
75.86
66.87
58.05
50.56
45.63
44.20
46.90
53.87
64.50
77.46
90.72
102.09
109.80
113.28
113.44
112.45
112.92
116.84
124.85
136.05
148.51
160.13
169.43
175.83
179.52
181.02
180.74
178.82
175.21
169.85
163.05
155.42
147.82
140.99
135.25
130.44
126.06
121.60
116.86
112.07
107.75
104.37
102.13
100.81
99.92
98.82
96.98
94.04
89.83
84.35
77.74
70.28
62.34
54.22
46.07
37.81
29.14
19.71
9.18
-2.58
-15.34
-28.37
-40.33
-49.52
-54.16
-52.99
-45.59
-32.57
-15.45
3.86
23.48
41.89
58.12
71.65
82.37
91.07
98.46
104.60
108.93
110.70
109.44
105.14
98.22
89.30
79.80
70.82
62.74
55.24
47.80
40.22
32.64
25.30
18.34
13.34
11.07
10.78
10.58
8.78
4.93
-0.27
-5.61
-10.06
-8.12
3.58
24.33
49.61
74.29
95.20
111.24
122.35
128.85
141.27
167.16
206.80
253.24
298.54
338.76
374.00
406.01
436.22
480.92
550.03
640.67
738.00
826.05
896.57
949.52
989.27
1021.01
1069.43
1150.13
1260.61
1381.04
1488.46
1569.07
1619.85
1644.74
1520.59
1190.09
689.80
135.86
-359.31
-742.44
-1012.05
-1189.65
-1300.12
-1364.42
-1376.80
-1339.12
-1263.80
-1175.08
-1096.62
-1041.18
-1010.77
-1001.57
-1007.98
-1008.83
-985.25
-932.55
-860.55
-784.32
-715.86
-662.36
-626.93
-608.89
-586.15
-542.00
-472.24
-387.49
-304.35
-234.97
-183.57
-147.92
-122.74
-98.16
-69.07
-36.14
-4.44
21.07
38.85
50.46
58.83
66.79
77.36
90.92
105.78
119.12
128.58
134.17
137.35
140.06
144.18
150.15
157.30
164.66
171.42
177.39
183.05
189.13
196.39
205.50
215.75
226.08
235.34
242.50
246.70
247.21
242.83
231.19
216.29
199.01
179.81
159.01
137.01
114.31
91.58
69.47
48.69
30.03
13.22
-1.81
-15.12
-26.79
-36.97
-45.78
-53.32
-59.61
-64.44
-68.28
-71.32
-73.62
-75.22
-76.12
-76.31
-75.81
-74.56
-72.37
-69.52
-66.14
-62.32
-58.21
-54.03
-50.00
-46.30
-42.97
-39.81
-36.71
-33.38
-29.58
-25.21
-20.45
-15.68
-11.38
-7.98
-5.71
-4.70
-4.91
-6.30
-9.01
-13.37
-19.83
-28.78
-40.38
-54.42
-70.40
-87.69
-105.68
-123.97
-142.38
-160.87
-179.58
-198.97
-219.79
-242.72
-267.76
-293.43
-316.52
-332.67
-337.68
-329.13
-307.32
-275.17
-237.22
-198.17
-161.97
-131.55
-109.05
-95.99
-93.02
-99.37
-112.52
-128.60
-143.37
-153.62
-157.90
-156.60
-151.20
-143.41
-134.50
-125.10
-115.44
-105.63
-95.79
-86.08
-76.61
-67.47
-58.79
-50.88
-44.16
-39.18
-36.36
-35.93
-37.77
-41.28
-45.49
-49.00
-50.27
-47.85
-40.75
-28.84
-12.85
5.65
24.77
42.64
57.97
70.09
78.84
84.22
86.08
84.11
78.07
68.19
55.51
41.74
28.89
18.64
11.83
8.39
7.60
8.49
10.27
12.45
14.75
16.94
18.70
19.64
19.46
18.13
15.97
13.66
11.92
11.20
11.43
11.90
11.50
9.14
4.25
-2.87
-10.93
-17.98
-21.95
-21.34
-15.65
-5.47
7.78
22.32
36.36
48.47
57.66
63.31
65.29
63.74
59.20
52.48
44.49
36.09
27.94
20.39
13.58
7.50
2.07
-2.79
-7.20
-11.21
-14.89
-18.31
-21.50
-24.55
-27.56
-30.66
-33.87
-37.08
-39.90
-41.68
-41.73
-39.54
-35.14
-29.22
-23.04
-18.11
-15.70
-16.54
-20.48
-26.52
-32.87
-37.33
-37.77
-32.70
-21.78
-6.01
12.48
31.06
47.33
59.66
67.44
70.83
70.44
66.99
61.17
53.71
45.38
37.02
29.33
22.69
17.00
11.83
6.71
1.46
-3.60
-7.73
-10.13
-10.35
-8.59
-5.64
-2.60
-0.58
-0.23
-1.70
-4.66
-8.52
-12.64
-16.51
-19.86
-22.70
-25.38
-28.39
-32.25
-37.38
-43.77
-50.86
-57.43
-61.65
-61.54
-55.45
-42.80
-24.36
-2.24
20.66
41.46
58.10
69.64
76.15
78.38
77.24
73.54
67.98
61.25
54.00
46.81
40.13
34.18
28.97
24.34
20.02
15.76
11.41
7.03
2.97
-0.29
-2.30
-3.00
-2.78
-2.43
-2.82
-4.47
-7.39
-11.09
-14.83
-18.01
-20.38
-22.11
-23.74
-25.96
-29.40
-34.37
-40.70
-47.64
-53.91
-57.77
-57.40
-51.30
-38.82
-20.57
1.53
24.66
45.85
62.78
74.39
80.84
83.19
82.64
80.14
76.12
70.73
64.14
56.66
48.82
41.14
33.97
27.38
21.23
15.34
9.78
4.88
1.24
-0.71
-0.93
-0.04
0.92
0.79
-1.14
-4.89
-9.74
-14.64
-18.66
-21.31
-22.79
-23.74
-25.08
-27.69
-32.08
-38.27
-45.64
-52.89
-58.24
-59.78
-55.83
-45.59
-29.36
-8.69
13.94
35.74
54.27
67.97
76.35
79.82
79.28
75.72
70.02
62.81
54.71
46.29
38.21
30.95
24.79
19.66
15.26
11.23
7.35
3.71
0.63
-1.51
-2.46
-2.40
-1.86
-1.67
-2.68
-5.37
-9.72
-15.20
-20.93
-26.12
-30.35
-33.77
-36.94
-40.60
-45.40
-51.62
-59.12
-67.17
-74.37
-78.78
-78.22
-70.93
-56.27
-35.18
-10.14
15.50
38.50
56.62
69.04
76.20
79.17
79.14
77.01
73.28
68.33
62.46
56.07
49.54
43.19
37.15
31.40
25.89
20.65
15.82
11.69
8.50
6.31
4.98
4.13
3.33
2.15
0.30
-2.39
-5.98
-10.39
-15.47
-20.93
-26.39
-31.43
-35.79
-39.46
-42.75
-46.26
-50.65
-56.51
-63.97
-72.46
-80.61
-86.27
-87.10
-81.09
-67.41
-46.83
-21.70
4.68
28.90
48.40
61.93
69.60
72.45
71.88
69.12
65.05
60.14
54.62
48.67
42.61
36.85
31.75
27.53
24.12
21.27
18.71
16.35
14.36
13.06
12.70
13.35
14.72
16.26
17.32
17.37
16.08
13.47
9.83
5.63
1.32
-2.81
-6.71
-10.54
-14.59
-19.17
-24.61
-31.08
-38.48
-46.15
-52.71
-56.30
-55.07
-47.92
-35.12
-18.38
-0.37
16.14
29.20
38.11
43.26
45.65
46.23
45.57
43.82
41.00
37.23
32.90
28.52
24.44
20.82
17.48
14.18
10.73
7.22
3.99
1.56
0.35
0.43
1.36
2.25
2.04
-0.14
-4.47
-10.40
-16.80
-22.50
-26.67
-29.21
-30.70
-32.13
-34.64
-39.05
-45.74
-54.30
-63.48
-71.14
-74.78
-72.18
-62.22
-45.39
-23.76
-0.42
21.47
39.54
52.61
60.65
64.30
64.45
61.94
57.55
52.01
46.12
40.59
35.83
31.91
28.52
25.16
21.39
17.05
12.29
7.64
3.72
1.10
0.01
0.11
0.55
0.23
-1.79
-5.92
-11.77
-18.41
-24.66
-29.68
-33.22
-35.65
-37.76
-40.52
-44.77
-50.96
-58.86
-67.33
-74.32
-77.24
-73.77
-62.68
-44.53
-21.58
2.82
25.32
43.49
56.27
63.91
67.44
68.06
66.81
64.42
61.36
58.00
54.51
50.85
46.80
42.02
36.30
29.72
22.80
16.34
11.26
8.18
7.15
7.58
8.35
8.22
6.33
2.48
-2.78
-8.46
-13.60
-17.70
-20.84
-23.61
-26.81
-31.18
-37.17
-44.73
-53.13
-60.70
-65.07
-63.63
-54.50
-37.44
-14.19
11.92
37.01
57.95
73.15
82.65
87.49
88.86
87.54
83.94
78.29
71.12
63.20
55.41
48.30
41.99
36.18
30.52
24.84
19.38
14.72
11.43
9.74
9.33
9.36
8.79
6.73
2.85
-2.55
-8.71
-14.65
-19.63
-23.38
-26.21
-28.82
-32.18
-37.22
-44.49
-53.85
-64.17
-73.24
-78.18
-76.24
-65.84
-47.20
-22.53
4.64
30.50
52.13
68.11
78.47
84.17
86.37
85.87
83.07
78.16
71.45
63.49
54.99
46.63
38.86
31.80
25.43
19.73
14.88
11.16
8.84
7.95
8.02
8.24
7.49
4.92
0.12
-6.52
-14.08
-21.34
-27.30
-31.59
-34.46
-36.74
-39.44
-43.52
-49.60
-57.80
-67.45
-76.96
-83.95
-85.67
-79.85
-65.65
-44.17
-18.30
8.09
31.38
49.17
60.69
66.62
68.28
67.05
63.88
59.36
53.85
47.76
41.55
35.65
30.38
25.78
21.73
18.03
14.54
11.25
8.37
6.16
4.81
4.32
4.32
4.20
3.20
0.72
-3.42
-8.88
-14.85
-20.37
-24.64
-27.34
-28.77
-29.69
-31.10
-33.94
-38.92
-46.33
-55.92
-66.65
-76.58
-83.04
-83.22
-75.17
-58.57
-35.28
-8.80
16.75
37.90
52.87
61.56
65.09
64.93
62.28
57.90
52.29
46.03
39.81
34.32
29.90
26.41
23.30
19.96
16.13
12.06
8.50
6.22
5.66
6.69
8.60
10.29
10.75
9.38
6.18
1.77
-2.87
-6.84
-9.64
-11.49
-13.22
-15.92
-20.36
-26.57
-33.73
-40.54
-45.76
-48.80
-50.03
-50.61
-52.13
-56.07
-63.31
-73.75
-85.99
-97.30
-103.80
-101.40
-87.02
-60.02
-22.94
18.81
58.37
89.57
108.75
115.49
112.02
101.81
87.95
72.46
56.30
40.11
24.80
11.70
2.08
-3.43
-5.18
-4.45
-2.81
-1.52
-1.09
-1.23
-1.31
-0.81
0.39
1.85
2.84
2.69
1.01
-2.16
-6.42
-11.21
-16.03
-20.63
-24.95
-29.08
-33.07
-36.90
-40.45
-43.73
-47.05
-51.04
-56.44
-63.55
-71.64
-78.76
-82.12
-78.93
-67.54
-48.17
-23.00
4.47
30.49
52.09
67.67
77.02
80.87
80.37
76.67
70.77
63.53
55.73
48.06
41.03
34.85
29.38
24.24
19.13
14.03
9.31
5.55
3.23
2.42
2.62
3.05
2.90
1.73
-0.38
-3.03
-5.72
-8.22
-10.66
-13.48
-17.09
-21.74
-27.24
-33.13
-38.79
-43.74
-47.77
-51.03
-53.99
-57.38
-61.94
-68.12
-75.69
-83.49
-89.32
-90.46
-84.41
-69.98
-47.81
-20.56
8.04
34.14
54.90
69.01
76.58
78.68
76.66
71.82
65.17
57.62
49.91
42.68
36.36
31.04
26.55
22.52
18.56
14.47
10.35
6.62
3.88
2.60
2.90
4.35
6.15
7.37
7.34
5.90
3.39
0.50
-2.14
-4.14
-5.60
-6.92
-8.70
-11.37
-14.99
-19.24
-23.56
-27.34
-30.22
-32.22
-33.79
-35.69
-38.77
-43.72
-50.66
-58.83
-66.50
-71.04
-69.72
-60.51
-43.07
-19.05
8.20
34.73
57.12
73.36
83.11
87.20
86.96
83.57
77.89
70.62
62.46
54.22
46.68
40.31
35.12
30.76
26.77
22.88
19.17
16.02
13.79
12.70
12.61
13.07
13.52
13.35
12.16
9.75
6.20
1.83
-2.82
-7.11
-10.56
-12.89
-14.40
-15.77
-17.83
-21.27
-26.18
-32.07
-38.00
-42.99
-46.48
-48.50
-49.72
-51.18
-53.95
-58.84
-66.05
-74.89
-83.59
-89.54
-89.85
-82.24
-66.00
-42.40
-14.43
14.01
39.30
59.04
72.37
79.77
82.44
81.76
78.80
74.38
68.97
63.00
56.83
50.74
44.93
39.50
34.46
29.81
25.68
22.27
19.89
18.70
18.67
19.48
20.56
21.26
21.03
19.57
16.85
13.05
8.50
3.56
-1.44
-6.22
-10.62
-14.66
-18.44
-22.18
-26.08
-30.25
-34.67
-39.16
-43.48
-47.32
-50.51
-52.98
-55.02
-57.17
-60.16
-64.71
-71.17
-79.15
-87.26
-93.21
-94.26
-88.09
-73.65
-51.73
-24.93
3.05
28.46
48.56
62.13
69.42
71.56
69.95
65.85
60.22
53.85
47.44
41.59
36.55
32.29
28.41
24.38
19.88
14.96
10.12
6.08
3.50
2.68
3.38
4.96
6.53
7.28
6.68
4.60
1.32
-2.64
-6.65
-10.19
-12.99
-15.19
-17.25
-19.73
-23.06
-27.31
-32.07
-36.64
-40.28
-42.61
-43.68
-44.06
-44.66
-46.47
-50.28
-56.34
-64.08
-71.98
-77.75
-78.75
-72.82
-59.10
-38.50
-13.53
12.35
35.81
54.45
67.21
74.27
76.54
75.23
71.51
66.40
60.74
55.23
50.36
46.36
43.17
40.49
37.89
35.07
31.87
28.48
25.33
23.01
21.87
21.85
22.39
22.62
21.72
19.29
15.49
10.94
6.44
2.53
-0.64
-3.41
-6.42
-10.23
-15.09
-20.84
-26.90
-32.50
-37.06
-40.37
-42.75
-44.94
-47.94
-52.69
-59.70
-68.74
-78.51
-86.74
-90.52
-87.17
-75.19
-54.91
-28.67
-0.13
26.82
49.09
65.18
75.06
79.70
80.44
78.52
74.90
70.36
65.49
60.69
56.09
51.57
46.85
41.82
36.66
31.74
27.52
24.33
22.25
21.17
20.89
21.20
21.83
22.43
22.59
21.88
20.06
17.10
13.27
8.93
4.52
0.36
-3.41
-6.81
-10.11
-13.71
-18.02
-23.24
-29.23
-35.56
-41.51
-46.53
-50.34
-53.12
-55.53
-58.42
-62.71
-68.98
-77.23
-86.59
-95.20
-100.49
-99.79
-91.24
-74.55
-51.31
-24.57
2.04
25.35
43.40
55.65
62.56
65.19
64.68
62.08
58.21
53.74
49.19
44.84
40.80
37.03
33.43
29.93
26.46
23.07
19.92
17.29
15.58
15.17
16.11
18.08
20.31
21.85
21.87
19.96
16.34
11.72
7.09
3.18
0.41
-1.44
-2.99
-5.06
-8.28
-12.89
-18.58
-24.59
-30.06
-34.34
-37.25
-39.13
-40.74
-42.99
-46.74
-52.44
-59.99
-68.35
-75.46
-78.59
-74.93
-62.72
-42.14
-15.53
13.18
39.67
60.66
74.72
82.17
84.55
83.61
80.65
76.37
71.10
65.16
58.96
53.02
47.67
42.99
38.83
34.93
31.23
27.80
24.91
22.77
21.47
20.92
20.87
21.01
20.98
20.39
18.90
16.32
12.72
8.43
3.91
-0.41
-4.31
-7.95
-11.64
-15.86
-20.89
-26.78
-33.18
-39.51
-45.12
-49.55
-52.81
-55.35
-58.01
-61.80
-67.46
-75.29
-84.86
-94.83
-102.99
-106.61
-103.01
-90.49
-69.15
-41.05
-9.88
20.12
45.42
64.00
75.54
81.09
82.19
80.30
76.47
71.38
65.53
59.37
53.25
47.34
41.66
36.04
30.33
24.62
19.21
14.57
11.16
9.21
8.65
9.16
10.21
11.18
11.52
10.81
8.89
5.90
2.25
-1.53
-4.96
-7.75
-9.84
-11.46
-12.93
-14.68
-17.07
-20.33
-24.46
-29.19
-34.02
-38.38
-41.83
-44.26
-45.98
-47.68
-50.19
-54.24
-60.18
-67.64
-75.40
-81.27
-82.57
-76.82
-62.71
-40.87
-13.89
14.29
39.63
59.19
71.83
78.13
79.61
77.95
74.36
69.55
63.92
57.88
51.99
46.80
42.62
39.38
36.68
33.97
30.88
27.42
24.08
21.57
20.44
20.78
22.06
23.30
23.46
21.84
18.32
13.49
8.24
3.48
-0.20
-2.84
-4.87
-7.13
-10.30
-14.77
-20.38
-26.58
-32.61
-37.85
-41.99
-45.14
-47.73
-50.39
-53.95
-59.15
-66.54
-75.87
-85.81
-93.81
-96.57
-91.12
-76.01
-52.13
-22.68
7.82
35.02
55.97
69.69
76.88
79.19
78.32
75.60
71.89
67.65
63.21
58.76
54.42
50.20
46.00
41.64
36.93
31.83
26.54
21.56
17.60
15.25
14.66
15.44
16.70
17.44
16.95
14.99
11.87
8.13
4.29
0.66
-2.73
-6.04
-9.43
-13.07
-17.07
-21.52
-26.45
-31.85
-37.54
-43.12
-48.15
-52.22
-55.26
-57.61
-59.95
-63.14
-68.00
-75.01
-83.97
-93.77
-102.21
-106.26
-102.96
-90.38
-68.66
-40.32
-9.53
19.25
42.67
59.30
69.58
74.86
76.57
75.59
72.34
67.18
60.80
54.16
48.19
43.32
39.33
35.46
30.94
25.36
18.97
12.63
7.35
4.01
2.97
3.93
6.10
8.41
9.95
10.20
9.11
7.01
4.41
1.74
-0.75
-3.03
-5.20
-7.53
-10.28
-13.67
-17.78
-22.46
-27.28
-31.71
-35.28
-37.79
-39.43
-40.74
-42.58
-45.84
-51.21
-58.70
-67.27
-74.67
-77.80
-73.76
-60.98
-40.02
-13.64
14.15
39.49
59.71
73.90
82.44
86.36
86.60
83.90
78.84
72.20
64.99
58.19
52.45
47.79
43.75
39.68
35.19
30.29
25.46
21.38
18.63
17.40
17.41
17.97
18.19
17.26
14.77
10.84
6.06
1.28
-2.78
-5.91
-8.39
-10.90
-14.12
-18.35
-23.40
-28.67
-33.53
-37.57
-40.82
-43.71
-46.89
-51.07
-56.90
-64.77
-74.64
-85.56
-95.51
-101.53
-100.48
-90.19
-70.40
-43.20
-12.42
17.53
43.03
62.07
74.31
80.52
81.98
79.94
75.55
69.88
63.90
58.40
53.82
50.16
47.07
44.00
40.43
36.13
31.21
26.14
21.62
18.32
16.62
16.38
17.01
17.56
17.09
15.01
11.33
6.61
1.72
-2.54
-5.74
-8.07
-10.10
-12.55
-15.99
-20.57
-26.09
-32.11
-38.18
-43.95
-49.19
-53.86
-58.04
-62.09
-66.68
-72.65
-80.65
-90.53
-100.95
-109.23
-112.02
-106.28
-90.56
-65.75
-34.98
-2.79
26.39
49.40
65.02
73.74
77.04
76.58
73.68
69.17
63.60
57.55
51.67
46.54
42.41
39.07
35.87
32.08
27.36
21.92
16.53
12.22
9.76
9.29
10.26
11.69
12.48
11.89
9.72
6.34
2.39
-1.43
-4.63
-7.12
-9.22
-11.47
-14.45
-18.54
-23.74
-29.63
-35.60
-40.98
-45.26
-48.34
-50.44
-52.17
-54.39
-58.00
-63.67
-71.41
-80.07
-87.30
-89.95
-85.02
-70.96
-48.48
-20.58
8.45
34.45
54.75
68.55
76.67
80.58
81.53
80.18
76.81
71.63
65.15
58.18
51.53
45.76
41.02
37.05
33.56
30.40
27.75
25.98
25.39
25.95
27.14
28.07
27.80
25.72
21.89
16.97
12.00
7.89
4.98
2.92
0.85
-2.24
-7.02
-13.44
-20.84
-28.13
-34.34
-38.98
-42.24
-44.93
-48.19
-53.14
-60.46
-69.93
-80.27
-89.10
-93.39
-90.31
-78.28
-57.65
-30.82
-1.60
25.94
48.65
64.90
74.64
78.87
78.96
76.22
71.74
66.42
61.05
56.21
52.21
48.97
46.14
43.22
39.80
35.67
30.97
26.21
22.03
19.04
17.57
17.41
17.93
18.19
17.34
14.94
11.13
6.54
1.98
-1.84
-4.66
-6.77
-8.85
-11.72
-16.03
-21.87
-28.82
-36.00
-42.48
-47.64
-51.42
-54.28
-57.03
-60.60
-65.78
-73.12
-82.53
-93.16
-103.05
-109.33
-108.77
-98.91
-79.05
-50.92
-18.31
14.01
41.86
62.74
76.31
83.77
86.93
87.29
85.65
82.30
77.41
71.45
65.11
59.13
53.95
49.52
45.39
41.03
36.14
30.93
26.07
22.45
20.78
21.25
23.31
25.80
27.34
26.73
23.43
17.88
11.15
4.64
-0.55
-3.99
-6.10
-8.03
-11.14
-16.37
-23.73
-32.26
-40.42
-46.78
-50.58
-52.21
-53.11
-55.42
-61.12
-71.26
-85.65
-102.88
-120.35
-134.84
-143.05
-142.50
-132.44
-114.52
-92.26
-70.78
-55.20
-48.49
-49.83
-54.57
-56.08
-48.61
-29.66
0.04
35.76
70.44
97.47
112.75
115.46
107.20
90.68
68.95
47.06
29.91
21.52
24.85
40.79
68.14
103.51
141.67
177.02
207.40
232.08
250.98
264.45
271.79
272.82
268.63
261.38
238.90
198.49
149.57
106.61
77.56
58.92
43.75
28.33
11.39
-5.45
-18.22
-25.35
-29.16
-35.13
-50.18
-79.69
-124.27
-180.57
-243.99
-309.09
-372.03
-430.71
-458.78
-440.52
-382.32
-307.49
-237.82
-183.47
-143.50
-111.96
-82.46
-50.74
-19.44
6.71
25.00
35.95
41.91
45.93
50.46
56.69
64.49
69.86
69.26
62.50
52.55
43.28
37.50
36.16
38.51
42.82
45.41
43.56
37.23
28.64
20.51
14.60
11.42
10.44
10.66
10.09
7.25
2.09
-4.28
-10.45
-15.52
-19.20
-21.71
-23.52
-25.43
-27.93
-30.95
-33.95
-36.25
-37.45
-37.42
-36.25
-34.18
-31.46
-28.31
-24.86
-21.28
-17.45
-13.40
-9.16
-4.82
-0.45
3.96
8.40
12.89
17.42
22.01
26.60
31.04
35.19
38.85
41.77
43.66
44.24
43.31
40.72
36.37
30.36
22.83
14.21
4.96
-4.45
-13.56
-22.02
-29.54
-35.95
-41.07
-44.88
-47.34
-48.77
-49.77
-50.88
-52.56
-55.13
-58.74
-63.23
-68.47
-73.97
-79.59
-85.37
-91.46
-97.89
-104.61
-111.49
-117.86
-123.26
-126.95
-129.00
-129.91
-130.20
-130.11
-129.29
-126.75
-119.36
-108.07
-93.01
-75.51
-57.76
-41.90
-29.27
-20.24
-14.23
-7.36
3.93
21.69
44.59
69.07
91.31
108.83
120.92
128.51
137.92
155.01
182.72
218.90
257.98
294.44
324.99
349.19
368.87
392.75
428.89
481.63
549.82
628.68
712.69
796.34
873.29
900.08
845.13
702.14
497.90
277.18
78.96
-76.11
-185.30
-257.18
-304.25
-331.56
-340.57
-332.58
-311.69
-284.98
-259.84
-241.67
-233.04
-233.90
-238.18
-239.40
-234.48
-224.59
-213.97
-207.22
-207.39
-215.63
-231.39
-250.19
-264.83
-273.13
-276.26
-277.16
-277.80
-277.32
-272.29
-258.64
-232.97
-195.80
-152.55
-110.86
-77.44
-55.25
-43.02
-37.30
-34.33
-31.71
-28.98
-26.93
-25.77
-24.53
-21.37
-14.59
-3.71
10.19
25.04
38.47
48.61
54.92
57.84
58.19
56.44
52.53
45.99
36.78
25.43
13.04
1.19
-8.66
-15.69
-19.75
-21.14
-22.05
-23.50
-25.82
-28.68
-31.33
-32.94
-32.95
-31.26
-28.26
-24.70
-21.22
-18.52
-17.15
-17.39
-19.19
-22.19
-25.82
-29.46
-32.73
-35.38
-37.66
-40.18
-43.70
-48.97
-56.31
-65.42
-75.17
-83.61
-88.23
-86.75
-77.81
-61.47
-39.17
-13.37
13.20
38.13
59.75
77.22
90.31
99.21
104.36
106.39
106.03
103.99
100.84
96.95
92.50
87.43
81.68
75.21
68.11
60.67
53.27
46.37
40.26
35.08
30.74
26.99
23.47
19.82
15.72
10.91
5.26
-1.18
-8.12
-15.17
-21.91
-28.10
-33.80
-39.44
-45.73
-53.36
-62.66
-73.14
-83.40
-91.27
-94.39
-90.90
-80.06
-62.59
-40.38
-15.98
8.06
29.76
47.89
61.91
71.77
77.76
80.33
80.15
77.95
74.46
70.28
65.75
60.99
55.91
50.38
44.34
37.87
31.22
24.79
19.02
14.31
10.83
8.45
6.71
4.97
2.57
-0.91
-5.54
-11.09
-17.10
-23.08
-28.71
-33.90
-38.86
-44.08
-50.30
-58.25
-68.29
-80.09
-92.35
-102.91
-109.32
-109.52
-102.61
-89.16
-71.03
-50.79
-30.88
-13.12
1.56
12.90
21.02
26.17
28.66
28.92
27.61
25.51
23.36
21.57
20.12
18.61
16.53
13.61
9.97
6.18
2.99
1.01
0.47
1.10
2.29
3.25
3.37
2.32
0.14
-2.86
-6.25
-9.62
-12.74
-15.58
-18.33
-21.33
-24.96
-29.46
-34.71
-40.07
-44.38
-46.09
-43.71
-36.26
-23.71
-7.12
11.52
29.84
45.61
57.29
64.26
66.75
65.66
62.21
57.66
53.04
49.05
45.93
43.54
41.42
39.04
35.90
31.77
26.71
21.09
15.47
10.41
6.37
3.49
1.57
0.17
-1.29
-3.28
-5.99
-9.28
-12.79
-16.11
-19.00
-21.58
-24.29
-27.72
-32.27
-37.81
-43.55
-48.10
-49.88
-47.64
-40.89
-30.09
-16.47
-1.62
12.95
26.11
37.16
45.71
51.50
54.43
54.60
52.41
48.67
44.34
40.36
37.27
35.12
33.55
32.08
30.45
28.74
27.35
26.73
27.08
28.23
29.62
30.63
30.77
29.92
28.34
26.44
24.60
22.99
21.49
19.79
17.51
14.27
9.85
4.31
-1.93
-7.96
-12.54
-14.36
-12.46
-6.57
2.68
13.94
25.49
35.74
43.63
48.73
51.17
51.47
50.27
48.16
45.56
42.69
39.61
36.30
32.74
29.00
25.29
21.84
18.84
16.41
14.48
12.85
11.22
9.28
6.88
4.02
0.95
-1.96
-4.36
-6.09
-7.23
-8.13
-9.23
-10.90
-13.28
-16.18
-19.10
-21.28
-21.92
-20.31
-16.06
-9.26
-0.49
9.32
19.11
27.99
35.44
41.28
45.56
48.32
49.49
48.83
46.07
41.19
34.59
27.16
20.16
14.85
12.05
11.89
13.73
16.49
19.04
20.73
21.55
22.01
22.83
24.52
27.11
30.08
32.57
33.63
32.48
28.68
22.21
13.45
3.21
-7.33
-16.70
-23.40
-26.23
-24.67
-19.11
-10.90
-1.98
5.66
10.55
12.14
10.82
7.56
3.47
-0.62
