1660323231.00
64.000000
-0.00
-0.00
-0.00
-0.00
-0.00
-0.00
-0.00
-0.00
-0.00
-0.00
0.00
0.01
0.01
-0.00
-0.03
-0.05
-0.05
0.00
0.13
0.36
0.66
1.01
1.37
1.72
2.06
2.40
2.79
3.24
3.80
4.42
5.06
5.66
6.20
6.68
7.15
7.68
8.31
9.15
10.09
11.04
11.88
12.56
13.13
13.76
14.67
16.00
17.96
20.34
22.86
25.22
27.27
29.12
31.11
33.67
37.11
41.78
47.29
53.09
58.60
63.50
67.91
72.35
77.54
83.95
92.05
101.25
110.67
119.45
127.07
133.68
140.00
147.40
154.50
163.40
174.49
187.74
201.97
214.42
221.05
217.47
200.38
168.74
124.58
71.32
13.01
-47.09
-107.03
-166.00
-223.60
-279.35
-332.71
-382.87
-429.68
-472.91
-511.91
-545.15
-570.31
-584.81
-586.63
-575.04
-550.67
-515.66
-472.77
-424.92
-374.62
-323.63
-272.61
-221.12
-167.99
-112.08
-53.54
5.82
62.69
113.52
155.92
189.79
217.17
240.95
263.31
284.34
302.14
313.81
316.96
310.92
297.02
277.97
256.82
235.89
216.32
198.13
180.86
164.13
148.03
133.02
119.54
107.60
96.65
85.81
74.41
62.37
50.27
39.11
29.72
22.27
16.20
10.54
4.31
-2.76
-10.07
-16.39
-20.56
-22.09
-21.45
-19.78
-18.28
-17.65
-17.77
-17.94
-17.33
-15.49
-12.51
-9.00
-5.75
-3.37
-2.06
-1.59
-1.55
-1.70
-2.09
-2.92
-4.22
-5.55
-6.03
-4.84
-1.80
2.30
5.98
7.82
7.23
4.76
1.73
-0.58
-1.55
-1.43
-0.96
-0.76
-1.00
-1.40
-1.68
-1.77
-1.91
-2.43
-3.42
-4.68
-5.76
-6.27
-6.09
-5.37
-4.42
-3.54
-2.85
-2.29
-1.75
-1.15
-0.49
0.12
0.61
0.95
1.15
1.25
1.22
1.02
0.66
0.22
-0.18
-0.41
-0.43
-0.33
-0.22
-0.22
-0.35
-0.46
-0.34
0.21
1.21
2.49
3.72
4.57
4.88
4.78
4.60
4.67
5.11
5.70
6.06
5.83
4.96
3.70
2.34
1.14
0.09
-0.94
-2.10
-3.36
-4.55
-5.48
-6.08
-6.40
-6.56
-6.65
-6.65
-6.51
-6.24
-5.90
-5.54
-5.16
-4.74
-4.25
-3.75
-3.36
-3.23
-3.40
-3.79
-4.24
-4.59
-4.73
-4.61
-4.20
-3.48
-2.46
-1.22
-0.02
0.76
0.79
-0.01
-1.36
-2.67
-3.31
-2.92
-1.58
0.18
1.69
2.43
2.31
1.62
0.86
0.42
0.44
0.76
1.14
1.38
1.43
1.36
1.28
1.25
1.25
1.21
1.08
0.86
0.65
0.56
0.71
1.09
1.58
1.94
1.91
1.36
0.32
-0.98
-2.21
-3.13
-3.71
-4.07
-4.42
-4.81
-5.08
-4.94
-4.19
-2.87
-1.31
0.04
0.78
0.81
0.31
-0.34
-0.77
-0.75
-0.20
0.78
2.04
3.42
4.73
5.81
6.49
6.64
6.25
5.41
4.31
3.22
2.35
1.82
1.60
1.57
1.60
1.66
1.81
2.11
2.56
3.05
3.44
3.61
3.58
3.44
3.32
3.27
3.32
3.49
3.80
4.28
4.85
5.28
5.20
4.32
2.56
0.22
-2.14
-3.90
-4.70
-4.55
-3.76
-2.80
-2.01
-1.57
-1.45
-1.49
-1.54
-1.43
-1.01
-0.12
1.32
3.32
5.71
8.22
10.54
12.43
13.81
14.71
15.23
15.46
15.41
15.08
14.54
13.98
13.83
14.63
16.81
20.35
24.61
28.42
30.56
30.34
28.11
25.23
23.63
25.00
29.99
37.80
46.49
53.69
57.70
58.21
56.48
54.86
55.82
61.06
70.84
83.68
96.65
105.76
106.64
95.39
69.69
30.02
-19.56
-71.89
-118.53
-152.69
-171.60
-177.22
-174.66
-169.33
-164.24
-159.24
-152.15
-141.10
-126.32
-110.29
-96.32
-86.50
-80.39
-75.19
-67.23
-53.95
-35.36
-14.28
4.61
16.80
19.88
14.72
5.02
-4.40
-9.91
-10.58
-8.26
-6.06
-6.34
-9.28
-12.91
-14.46
-12.09
-5.93
1.99
8.94
12.78
12.85
10.06
6.22
3.16
1.95
2.62
4.34
5.96
6.57
5.86
4.22
2.48
1.61
2.28
4.72
8.51
12.69
16.12
17.79
17.17
14.40
10.10
5.11
0.32
-3.26
-4.45
-2.12
4.12
13.25
22.58
28.36
27.10
17.16
-0.35
-21.70
-41.79
-55.82
-60.71
-55.59
-41.43
-20.30
5.29
32.89
60.31
85.77
108.04
126.55
141.20
152.29
160.39
166.30
170.98
175.44
180.57
186.89
194.37
202.40
210.03
216.43
221.29
225.10
228.81
233.24
238.43
243.32
246.25
245.86
242.04
236.11
230.14
225.47
221.57
215.69
203.85
182.63
150.79
109.81
63.13
14.79
-32.13
-76.13
-117.21
-156.36
-195.33
-236.54
-282.62
-335.13
-392.80
-450.37
-498.84
-527.85
-529.11
-499.16
-440.47
-360.66
-270.57
-181.94
-105.15
-47.38
-11.31
4.95
6.63
-0.31
-11.88
-27.56
-49.87
-82.26
-126.92
-183.48
-249.48
-321.01
-393.18
-460.00
-514.28
-548.63
-557.62
-540.06
-499.92
-445.05
-384.47
-325.47
-271.99
-224.61
-181.81
-141.39
-101.42
-60.32
-16.74
30.29
80.67
132.39
181.28
221.75
248.67
259.48
255.46
241.22
222.81
205.27
190.96
179.53
169.20
158.65
148.00
138.78
132.75
130.84
132.56
136.51
141.18
145.62
149.60
153.35
156.89
159.73
160.87
159.25
154.21
145.90
135.25
123.68
112.60
102.97
95.09
88.62
82.87
77.18
71.17
64.90
58.72
53.08
48.24
44.25
40.94
38.11
35.65
33.56
31.88
30.57
29.42
28.12
26.38
24.04
21.20
18.07
14.88
11.72
8.50
5.12
1.70
-1.33
-3.39
-3.99
-3.04
-0.86
2.04
5.30
8.86
12.89
17.45
22.21
26.47
29.38
30.38
29.45
27.09
23.98
20.65
17.30
13.96
10.60
7.39
4.56
2.30
0.62
-0.68
-1.92
-3.31
-4.88
-6.50
-7.94
-8.99
-9.48
-9.36
-8.57
-7.14
-5.13
-2.73
-0.22
2.13
4.11
5.57
6.44
6.70
6.37
5.53
4.32
2.98
1.77
0.95
0.66
0.84
1.32
1.83
2.14
2.20
2.07
1.90
1.78
1.75
1.70
1.53
1.21
0.80
0.43
0.26
0.30
0.48
0.65
0.67
0.48
0.12
-0.33
-0.78
-1.17
-1.48
-1.71
-1.85
-1.90
-1.84
-1.66
-1.35
-0.94
-0.51
-0.15
-0.01
-0.22
-0.84
-1.77
-2.83
-3.76
-4.36
-4.58
-4.50
-4.26
-3.96
-3.62
-3.20
-2.68
-2.16
-1.78
-1.68
-1.79
-1.93
-1.84
-1.39
-0.67
0.04
0.42
0.32
-0.20
-0.85
-1.34
-1.47
-1.18
-0.58
0.22
1.04
1.72
2.12
2.11
1.64
0.78
-0.24
-1.14
-1.66
-1.71
-1.38
-0.91
-0.55
-0.46
-0.66
-1.04
-1.48
-1.87
-2.19
-2.46
-2.67
-2.80
-2.77
-2.54
-2.15
-1.66
-1.13
-0.58
-0.02
0.56
1.09
1.49
1.74
1.90
2.03
2.16
2.16
1.79
0.78
-0.91
-2.99
-4.90
-5.99
-5.85
-4.52
-2.45
-0.37
0.99
1.01
-0.72
-4.30
-9.40
-15.18
-20.32
-23.36
-23.18
-19.43
-12.71
-4.31
4.27
11.81
17.62
21.52
23.65
24.24
23.59
21.97
19.62
16.65
13.04
8.74
3.89
-1.10
-5.62
-9.18
-11.57
-13.02
-14.06
-15.26
-16.96
-19.22
-21.87
-24.55
-26.84
-28.22
-28.14
-26.15
-22.03
-15.95
-8.46
-0.38
7.33
13.80
18.38
20.78
21.12
19.83
17.54
14.83
12.10
9.50
7.12
5.03
3.31
2.06
1.26
0.73
0.24
-0.41
-1.22
-2.01
-2.53
-2.58
-2.14
-1.38
-0.56
0.08
0.44
0.53
0.48
0.44
0.47
0.56
0.66
0.68
0.56
0.31
-0.01
-0.32
-0.55
-0.64
-0.60
-0.49
-0.40
-0.39
-0.44
-0.50
-0.46
-0.29
0.00
0.33
0.58
0.72
0.76
0.76
0.79
0.90
1.08
1.30
1.49
1.59
1.52
1.23
0.72
0.15
-0.30
-0.42
-0.13
0.44
1.00
1.25
0.98
0.16
-1.02
-2.29
-3.40
-4.23
-4.76
-5.02
-5.04
-4.77
-4.18
-3.27
-2.16
-1.03
-0.14
0.33
0.31
-0.09
-0.62
-1.01
-1.04
-0.66
0.03
0.83
1.52
1.97
2.14
1.99
1.52
0.72
-0.35
-1.53
-2.58
-3.21
-3.27
-2.77
-1.90
-0.94
-0.10
0.56
1.07
1.57
2.13
2.73
3.25
3.54
3.50
3.11
2.49
1.83
1.33
1.08
1.04
1.04
0.92
0.61
0.18
-0.22
-0.46
-0.57
-0.69
-1.02
-1.65
-2.50
-3.33
-3.90
-4.07
-3.83
-3.30
-2.63
-1.92
-1.21
-0.54
0.06
0.54
0.86
1.03
1.09
1.11
1.13
1.13
1.01
0.67
-0.01
-1.00
-2.17
-3.30
-4.12
-4.46
-4.25
-3.60
-2.68
-1.67
-0.67
0.30
1.22
2.06
2.78
3.33
3.71
3.96
4.13
4.20
4.14
3.87
3.37
2.74
2.11
1.57
1.15
0.72
0.10
-0.83
-2.01
-3.17
-3.95
-4.02
-3.30
-1.99
-0.53
0.49
0.57
-0.55
-2.79
-5.68
-8.47
-10.26
-10.24
-7.94
-3.51
2.20
7.80
11.77
13.05
11.34
7.29
2.16
-2.64
-5.94
-7.13
-6.16
-3.49
0.05
3.36
5.37
5.33
3.08
-0.76
-5.00
-8.29
-9.61
-8.63
-5.77
-1.91
1.88
4.68
5.92
5.48
3.65
1.04
-1.53
-3.35
-3.93
-3.23
-1.58
0.37
1.95
2.62
2.15
0.63
-1.52
-3.74
-5.51
-6.46
-6.47
-5.66
-4.27
-2.59
-0.90
0.56
1.60
2.12
2.19
2.03
1.90
2.03
2.47
3.10
3.69
4.00
3.90
3.36
2.46
1.34
0.17
-0.88
-1.65
-2.08
-2.18
-2.07
-1.90
-1.78
-1.73
-1.70
-1.64
-1.57
-1.53
-1.57
-1.66
-1.67
-1.44
-0.88
-0.04
0.85
1.51
1.71
1.41
0.73
-0.09
-0.80
-1.27
-1.51
-1.62
-1.72
-1.89
-2.08
-2.17
-2.03
-1.58
-0.85
0.01
0.85
1.54
2.06
2.47
2.81
3.06
3.13
2.88
2.24
1.29
0.23
-0.72
-1.38
-1.71
-1.82
-1.82
-1.85
-1.94
-2.02
-1.99
-1.71
-1.13
-0.30
0.64
1.50
2.15
2.53
2.65
2.57
2.28
1.76
1.03
0.17
-0.66
-1.29
-1.63
-1.72
-1.71
-1.72
-1.82
-1.90
-1.83
-1.55
-1.08
-0.53
-0.01
0.46
0.95
1.52
2.16
2.74
3.06
2.99
2.53
1.83
1.14
0.63
0.32
0.11
-0.18
-0.67
-1.31
-1.97
-2.43
-2.58
-2.44
-2.12
-1.76
-1.46
-1.21
-0.95
-0.65
-0.33
-0.10
-0.03
-0.10
-0.17
-0.10
0.14
0.48
0.70
0.68
0.42
0.04
-0.26
-0.37
-0.31
-0.20
-0.15
-0.16
-0.17
-0.08
0.13
0.41
0.68
0.85
0.88
0.76
0.51
0.18
-0.15
-0.37
-0.37
-0.15
0.21
0.55
0.73
0.70
0.51
0.31
0.22
0.30
0.46
0.56
0.44
0.03
-0.60
-1.30
-1.88
-2.24
-2.40
-2.42
-2.39
-2.33
-2.17
-1.88
-1.46
-1.03
-0.74
-0.70
-0.92
-1.24
-1.45
-1.35
-0.84
0.02
1.06
2.02
2.64
2.78
2.41
1.66
0.79
0.05
-0.40
-0.62
-0.89
-1.73
-3.65
-6.88
-11.24
-16.02
-20.20
-22.74
-22.89
-20.35
-15.36
-8.54
-0.76
7.07
14.08
19.55
23.04
24.36
23.64
21.16
17.32
12.53
7.25
1.90
-3.10
-7.37
-10.70
-13.03
-14.41
-14.93
-14.69
-13.77
-12.21
-10.12
-7.66
-5.16
-3.27
-2.89
-5.07
-10.42
-18.70
-28.39
-36.87
-41.16
-38.89
-29.25
-13.36
5.92
24.88
40.10
49.36
52.22
49.88
44.65
39.00
34.81
32.79
32.53
32.94
32.81
31.40
28.50
24.34
19.35
13.97
8.61
3.74
-0.22
-3.07
-5.01
-6.67
-8.79
-11.87
-15.76
-19.72
-22.73
-23.99
-23.27
-20.93
-17.70
-14.30
-11.27
-8.93
-7.49
-7.15
-7.97
-9.83
-12.26
-14.62
-16.23
-16.70
-15.91
-14.13
-11.73
-9.10
-6.50
-4.00
-1.61
0.65
2.60
3.96
4.45
3.92
2.57
0.86
-0.62
-1.41
-1.34
-0.57
0.61
1.93
3.27
4.59
5.81
6.74
7.12
6.85
6.08
5.17
4.55
4.45
4.78
5.22
5.43
5.25
4.73
4.11
3.55
3.10
2.64
2.00
1.08
-0.04
-1.18
-2.08
-2.59
-2.68
-2.50
-2.28
-2.21
-2.39
-2.72
-2.98
-2.96
-2.52
-1.68
-0.64
0.35
1.06
1.39
1.36
1.08
0.72
0.41
0.23
0.22
0.34
0.54
0.74
0.83
0.76
0.51
0.13
-0.29
-0.66
-0.94
-1.16
-1.35
-1.57
-1.80
-1.95
-1.93
-1.68
-1.23
-0.72
-0.33
-0.14
-0.13
-0.18
-0.12
0.12
0.51
0.87
1.05
0.96
0.65
0.22
-0.24
-0.74
-1.33
-2.04
-2.79
-3.37
-3.54
-3.17
-2.30
-1.11
0.16
1.33
2.33
3.17
3.92
4.59
5.13
5.46
5.48
5.13
4.40
3.36
2.15
0.96
-0.08
-0.90
-1.53
-2.06
-2.58
-3.11
-3.57
-3.88
-3.96
-3.80
-3.45
-2.98
-2.47
-2.00
-1.66
-1.52
-1.57
-1.72
-1.77
-1.57
-1.15
-0.80
-1.08
-2.62
-5.93
-11.20
-18.23
-26.40
-34.72
-41.91
-46.56
-47.42
-43.68
-35.24
-22.79
-7.66
8.49
24.04
37.69
48.62
56.46
61.26
63.32
63.05
60.92
57.31
52.49
46.68
40.03
32.58
24.39
15.51
6.13
-3.23
-11.73
-18.37
-22.34
-23.40
-22.05
-19.33
-16.39
-14.12
-12.84
-12.42
-12.56
-13.07
-13.94
-15.27
-17.05
-19.00
-20.63
-21.42
-21.13
-19.94
-18.41
-17.28
-17.17
-18.23
-20.03
-21.65
-22.02
-20.38
-16.60
-11.20
-5.11
0.78
5.95
10.35
14.25
17.94
21.49
24.64
27.00
28.29
28.56
28.19
27.66
27.22
26.74
25.67
23.36
19.31
13.42
6.01
-2.32
-10.83
-18.69
-25.00
-28.86
-29.54
-26.74
-20.84
-12.86
-4.25
3.50
9.28
12.55
13.33
12.10
9.49
6.15
2.64
-0.66
-3.53
-5.87
-7.67
-8.91
-9.60
-9.71
-9.27
-8.32
-7.00
-5.50
-3.99
-2.57
-1.19
0.36
2.27
4.60
7.18
9.58
11.36
12.30
12.54
12.55
12.86
13.71
14.92
15.97
16.24
15.39
13.45
10.81
8.01
5.50
3.60
2.48
2.23
2.86
4.20
5.77
6.70
5.99
2.91
-2.46
-9.05
-15.17
-19.20
-20.45
-19.50
-17.90
-17.26
-18.27
-20.30
-21.72
-20.86
-17.06
-10.96
-4.14
1.70
5.42
6.59
5.25
1.31
-5.57
-15.74
-28.88
-43.46
-56.79
-65.76
-67.97
-62.56
-50.43
-34.09
-16.94
-2.50
6.51
8.78
4.62
-4.26
-15.05
-24.47
-30.08
-31.02
-28.04
-22.61
-15.98
-8.73
-1.11
7.03
16.06
25.54
34.04
39.85
42.40
42.90
43.50
45.56
49.55
55.21
60.92
64.45
64.12
60.65
56.78
55.20
56.31
59.89
66.66
77.89
94.51
115.90
139.77
161.89
176.08
175.35
149.87
98.87
33.10
-30.93
-81.85
-120.25
-152.84
-179.45
-202.27
-216.95
-216.92
-200.28
-168.49
-131.87
-103.84
-95.07
-108.19
-136.22
-163.47
-173.22
-157.03
-117.68
-64.02
-3.22
61.33
129.40
200.39
271.15
333.46
374.30
370.86
312.33
211.55
97.76
-0.10
-67.22
-104.97
-126.35
-145.30
-171.82
-209.04
-253.71
-300.09
-345.86
-389.21
-425.59
-438.28
-415.67
-358.05
-289.43
-219.36
-152.36
-89.38
-32.95
17.03
62.63
104.59
142.36
175.58
206.03
232.43
251.83
262.07
263.78
259.34
250.00
235.85
216.99
195.69
172.82
148.68
123.81
99.70
78.01
59.54
45.09
35.97
34.27
39.28
47.61
54.79
57.71
55.74
50.15
43.07
35.94
29.15
21.43
11.52
-0.27
-11.59
-19.68
-23.29
-23.47
-22.82
-23.68
-27.09
-32.39
-37.98
-42.07
-44.05
-44.55
-44.70
-44.97
-44.76
-42.91
-38.74
-32.61
-24.81
-15.93
-6.63
2.17
9.53
14.70
17.41
18.06
17.91
20.34
28.48
43.69
64.36
86.71
106.81
122.13
132.12
138.02
143.68
152.32
165.31
181.25
197.51
212.07
224.07
233.15
227.30
198.39
146.26
80.87
15.26
-41.57
-86.41
-120.18
-145.14
-162.34
-168.42
-160.99
-136.24
-95.35
-46.00
-0.13
30.13
36.66
17.82
-20.44
-69.12
-120.29
-167.25
-205.85
-233.68
-249.26
-252.08
-243.13
-224.56
-200.22
-174.38
-150.80
-131.47
-116.03
-102.58
-88.99
-74.03
-57.23
-39.08
-20.48
-2.72
12.81
25.25
34.56
41.40
46.84
52.09
58.03
65.06
72.91
80.74
87.66
93.14
97.26
100.53
103.75
107.77
113.06
119.41
125.70
130.40
132.20
130.78
126.95
122.56
119.73
119.49
120.83
120.43
113.85
97.24
69.01
29.77
-18.42
-73.11
-132.02
-192.32
-249.51
-297.33
-328.91
-339.36
-328.68
-300.85
-260.99
-212.21
-154.89
-88.66
-16.19
54.89
113.67
148.99
156.92
144.33
126.08
117.05
124.69
146.61
174.34
199.96
217.02
224.09
223.50
217.54
205.30
183.05
147.44
99.21
44.63
-12.09
-68.23
-122.33
-173.36
-221.16
-266.36
-310.66
-354.72
-373.09
-346.96
-276.67
-181.98
-86.66
-5.41
57.14
100.17
121.74
131.11
134.84
134.41
130.04
122.23
111.17
95.27
72.93
43.16
10.47
-19.02
-44.71
-67.99
-90.65
-114.17
-140.30
-175.70
-224.26
-282.66
-341.81
-397.50
-445.89
-481.78
-499.06
-464.52
-369.04
-233.90
-116.67
-23.86
52.60
126.32
202.27
278.05
347.53
393.63
401.63
368.58
308.27
237.55
175.56
139.20
139.16
175.77
233.09
291.15
334.46
358.48
360.50
341.26
304.11
254.28
197.00
131.15
57.08
-20.47
-91.29
-148.93
-191.59
-221.88
-244.95
-252.05
-239.30
-209.75
-172.88
-135.03
-98.34
-62.99
-30.11
-2.29
17.77
22.71
12.14
-9.74
-35.27
-57.97
-75.29
-88.63
-102.12
-111.29
-118.90
-128.32
-141.28
-155.55
-165.59
-164.78
-147.43
-111.91
-61.80
-7.75
39.09
71.06
86.88
90.97
89.99
89.87
92.73
97.32
99.63
97.49
91.81
86.01
84.43
88.75
99.15
114.02
131.14
147.39
159.71
164.74
159.25
141.59
110.45
72.21
35.01
5.86
-12.07
-19.59
-20.12
-17.51
-13.73
-9.14
-2.91
4.49
11.38
15.46
15.31
11.18
4.14
-3.16
-8.74
-11.76
-13.28
-15.24
-19.48
-26.85
-35.36
-44.13
-51.24
-55.14
-55.08
-51.86
-47.21
-43.10
-40.86
-40.74
-42.18
-43.60
-43.55
-41.22
-37.15
-32.47
-28.67
-26.74
-26.70
-28.29
-30.75
-33.50
-35.84
-36.67
-34.46
-28.02
-17.59
-5.35
4.62
8.75
5.50
-3.57
-14.52
-23.03
-26.43
-25.34
-20.94
-15.36
-9.64
-3.57
3.51
11.76
20.07
26.71
30.00
29.35
24.90
18.21
11.12
5.14
1.21
-0.63
-0.58
1.09
4.48
9.72
17.39
27.75
40.50
55.13
69.21
80.64
87.66
89.40
85.55
77.32
66.27
53.84
40.96
27.64
13.48
-2.24
-18.60
-35.44
-51.27
-64.12
-72.37
-75.54
-74.89
-72.61
-71.33
-72.80
-77.23
-82.80
-86.77
-87.07
-83.11
-76.45
-69.83
-66.13
-66.87
-72.12
-80.42
-89.57
-97.17
-99.97
-94.82
-76.68
-42.90
4.60
57.73
104.02
131.43
134.19
116.43
90.51
70.89
66.26
75.50
89.42
96.74
90.56
71.77
46.88
22.91
2.93
-15.01
-34.34
-54.82
-70.27
-71.18
-50.58
-9.34
42.20
88.29
114.93
116.34
97.43
70.25
48.99
42.18
49.64
64.51
78.43
85.70
84.96
78.01
67.51
54.13
37.63
17.36
-6.63
-33.15
-60.42
-86.46
-109.76
-128.12
-143.19
-157.54
-173.29
-190.46
-206.04
-214.56
-210.28
-190.03
-155.55
-113.68
-73.33
-42.02
-23.12
-14.87
-12.26
-9.66
-3.21
8.81
25.97
47.74
74.14
105.38
140.25
174.89
201.63
213.78
207.40
183.65
149.23
113.74
85.76
69.40
63.54
63.57
64.63
63.94
61.23
57.80
54.61
51.48
47.29
41.03
32.84
23.97
16.17
10.79
7.96
6.26
3.92
-0.53
-7.47
-15.91
-23.88
-29.45
-31.77
-31.46
-30.81
-31.92
-36.13
-43.34
-51.91
-59.67
-64.62
-66.08
-64.91
-63.62
-64.72
-70.34
-81.92
-99.31
-120.46
-141.13
-155.63
-155.55
-139.55
-110.71
-76.28
-45.22
-24.08
-14.56
-13.18
-13.82
-11.29
-4.35
5.23
14.46
20.33
24.01
28.82
38.37
54.81
78.01
105.69
134.81
162.08
183.38
195.19
194.77
180.97
155.25
121.57
85.12
50.78
21.00
-5.71
-32.60
-62.86
-97.44
-133.84
-166.94
-191.04
-202.67
-196.54
-176.80
-152.34
-132.12
-121.25
-119.56
-123.31
-128.12
-131.62
-133.90
-136.61
-140.26
-143.32
-142.75
-135.91
-122.97
-104.73
-83.70
-62.80
-43.68
-26.15
-8.41
11.87
36.39
65.33
97.60
130.96
158.65
177.97
188.78
192.68
191.89
188.31
182.98
176.22
167.63
156.81
144.28
130.78
117.27
104.66
93.53
83.95
75.64
67.91
60.14
52.44
45.01
38.15
32.16
27.20
23.16
19.74
16.46
12.89
9.21
5.66
2.69
0.71
-0.09
0.14
0.82
1.17
0.51
-1.18
-3.44
-5.26
-5.59
-3.85
-0.25
4.10
7.69
9.23
8.37
5.93
3.70
3.58
6.64
12.49
19.30
24.48
26.08
23.83
18.59
12.71
8.89
8.54
12.08
18.99
27.91
36.40
40.60
35.67
17.74
-13.42
-52.65
-90.16
-115.07
-120.46
-106.68
-81.32
-55.34
-37.83
-32.14
-35.31
-41.26
-44.99
-45.10
-43.48
-42.93
-44.62
-47.22
-47.64
-42.97
-32.47
-17.75
-1.99
11.22
19.59
23.08
23.48
23.87
26.89
33.76
44.14
56.79
70.53
84.62
98.29
108.95
113.95
109.95
94.98
70.30
40.62
12.39
-8.87
-20.72
-24.26
-22.50
-18.53
-14.01
-9.14
-3.72
1.63
5.32
5.57
1.61
-5.78
-14.50
-22.42
-28.21
-32.09
-35.60
-40.66
-48.56
-59.16
-70.92
-81.61
-88.78
-92.09
-92.30
-91.05
-90.07
-90.60
-93.21
-98.25
-105.51
-113.87
-120.73
-122.14
-114.09
-94.50
-65.01
-30.00
3.85
30.62
47.47
55.33
57.69
58.44
60.13
63.53
68.64
75.48
84.97
98.15
114.44
130.61
141.17
140.52
125.01
97.20
63.85
33.60
13.42
5.76
8.24
15.63
22.81
27.14
28.87
29.63
31.00
33.26
35.55
36.69
35.93
33.17
28.83
23.57
17.70
11.27
4.08
-4.10
-13.41
-23.77
-34.91
-45.79
-56.01
-64.96
-72.06
-76.95
-79.78
-80.96
-81.18
-81.37
-81.54
-81.72
-82.17
-83.59
-86.77
-91.64
-96.26
-96.87
-89.12
-70.19
-40.95
-6.04
27.61
53.64
68.66
73.27
70.70
64.97
59.09
54.29
50.93
49.62
51.62
58.03
68.22
78.68
83.61
77.40
57.18
25.10
-12.15
-45.94
-69.31
-79.73
-79.49
-73.62
-66.71
-60.76
-54.74
-46.17
-33.26
-16.23
2.60
20.51
34.44
43.28
47.57
48.94
48.76
47.33
44.00
37.28
25.74
8.78
-13.02
-38.44
-65.91
-92.77
-116.49
-133.43
-139.88
-133.52
-115.15
-88.92
-61.22
-38.32
-23.86
-18.00
-17.85
-19.95
-22.04
-23.78
-25.88
-28.61
-30.92
-30.24
-24.25
-11.63
6.71
28.25
49.73
68.82
84.70
98.16
110.83
123.30
136.33
149.73
162.88
174.85
184.20
188.54
184.54
169.21
141.99
105.04
63.88
25.49
-4.32
-23.38
-32.86
-36.04
-36.20
-35.07
-32.57
-27.94
-20.76
-11.85
-2.67
5.49
12.15
17.41
21.51
24.61
26.45
26.56
24.57
20.40
14.23
6.37
-3.13
-14.45
-27.76
-42.83
-58.83
-74.35
-87.46
-97.42
-104.14
-108.54
-112.05
-116.16
-122.02
-130.18
-140.16
-150.09
-157.03
-156.40
-144.91
-122.02
-90.63
-56.74
-26.76
-5.07
7.73
14.67
20.90
30.79
46.35
66.30
86.36
101.44
107.47
103.07
89.88
73.01
58.00
48.69
45.54
46.26
47.67
47.52
45.60
43.17
41.58
40.75
39.15
35.03
27.73
18.60
10.38
5.96
7.17
13.79
23.61
33.64
41.39
45.78
47.53
48.50
50.61
54.81
60.49
65.62
67.69
64.80
56.28
42.97
26.82
9.87
-6.41
-21.62
-36.20
-50.83
-65.50
-80.96
-97.54
-115.06
-132.19
-145.84
-151.56
-145.13
-125.18
-93.62
-56.65
-22.36
2.49
14.89
16.37
11.53
5.41
1.39
0.40
1.22
2.18
2.24
1.03
-1.11
-3.48
-5.20
-4.98
-1.24
7.74
22.69
42.35
62.52
76.79
79.09
66.56
41.54
11.14
-16.00
-33.28
-39.20
-37.37
-34.13
-34.99
-42.45
-55.71
-71.74
-86.48
-95.46
-94.53
-81.20
-56.40
-25.40
3.34
21.86
26.31
18.81
6.45
-3.01
-4.91
-0.24
5.42
5.72
-3.01
-20.30
-42.72
-65.48
-84.10
-95.36
-97.67
-91.90
-80.71
-67.93
-56.42
-47.66
-41.35
-36.24
-31.16
-25.57
-19.85
-14.07
-7.31
2.75
18.19
39.39
64.58
88.17
106.91
118.76
123.58
122.97
119.86
116.88
114.85
112.82
109.28
102.57
91.62
78.89
64.76
51.28
40.72
33.74
29.59
27.24
25.42
23.49
21.57
21.04
24.05
32.17
44.61
55.55
63.26
66.63
68.70
69.29
69.73
68.40
68.20
70.43
75.06
81.87
89.27
94.57
93.52
82.26
59.14
26.20
-11.83
-48.54
-78.24
-99.33
-114.03
-127.40
-142.17
-157.08
-166.84
-165.64
-150.25
-122.00
-87.17
-53.59
-28.08
-13.12
-7.04
-5.62
-5.65
-6.25
-8.65
-16.04
-28.12
-43.16
-58.06
-69.84
-76.97
-79.99
-80.54
-80.22
-79.37
-76.45
-69.60
-57.22
-39.00
-16.20
8.65
32.88
54.70
71.68
85.14
96.82
107.70
117.61
125.28
129.29
128.80
124.32
117.60
111.27
107.26
106.58
109.45
115.07
121.35
124.84
121.30
107.25
82.11
48.71
12.77
-18.98
-41.70
-54.23
-58.87
-59.45
-58.96
-58.43
-57.37
-55.53
-53.70
-53.92
-58.59
-69.29
-86.07
-107.26
-129.45
-147.09
-155.46
-150.83
-132.58
-104.04
-71.73
-43.05
-23.27
-13.65
-11.56
-12.72
-13.44
-12.47
-10.88
-10.47
-12.34
-15.90
-19.29
-20.48
-18.43
-13.24
-5.83
2.35
10.44
18.08
25.81
34.48
45.03
57.80
72.43
87.99
103.04
117.55
131.48
144.15
153.41
155.70
147.43
127.15
97.09
62.82
31.49
8.53
-4.41
-9.25
-9.93
-10.06
-11.41
-13.85
-16.80
-20.12
-24.88
-32.45
-43.40
-56.90
-70.93
-83.25
-91.92
-97.20
-100.11
-102.51
-105.76
-110.49
-116.79
-124.29
-132.12
-138.71
-142.37
-140.68
-132.41
-117.91
-99.13
-78.73
-58.99
-41.21
-25.65
-12.30
-1.26
6.85
11.68
13.78
14.76
16.74
21.24
28.45
37.02
45.14
51.54
56.23
60.15
64.81
71.41
79.85
88.90
96.40
100.38
99.96
96.01
90.37
85.45
82.91
82.97
84.76
86.86
88.20
88.28
86.69
82.82
76.27
67.83
60.12
56.81
59.96
68.31
76.45
76.94
64.05
37.48
3.07
-30.14
-52.23
-59.58
-54.91
-44.79
-35.21
-28.71
-24.12
-18.84
-11.53
-3.11
2.73
2.81
-4.22
-17.27
-33.39
-48.97
-61.67
-70.78
-76.35
-80.92
-86.38
-93.56
-102.39
-112.38
-122.89
-132.53
-138.59
-137.10
-124.51
-99.18
-63.31
-22.95
14.04
41.27
56.22
60.84
59.95
58.23
58.69
62.29
69.03
78.91
91.46
104.98
115.74
118.88
110.50
90.36
62.32
33.32
10.33
-2.93
-6.50
-3.41
2.43
8.16
12.74
16.40
19.66
22.67
24.56
25.16
25.14
25.82
28.30
33.07
39.52
46.23
51.53
53.09
50.29
43.81
35.22
26.17
17.77
10.31
3.43
-3.40
-11.87
-22.18
-33.56
-44.93
-55.66
-66.18
-78.13
-93.96
-106.67
-115.91
-122.24
-126.19
-127.61
-126.00
-121.06
-113.03
-102.95
-92.55
-85.49
-83.94
-87.83
-93.97
-96.40
-88.34
-64.94
-25.35
26.66
82.57
133.30
171.19
191.47
192.66
176.60
147.61
112.07
77.69
51.02
36.76
36.15
47.10
65.39
86.63
107.22
125.24
140.10
151.55
159.85
165.64
169.69
172.67
174.92
176.01
175.62
173.62
169.86
164.07
155.46
142.30
121.74
94.16
58.93
16.54
-31.19
-81.51
-131.60
-179.27
-223.36
-263.48
-299.67
-332.73
-363.17
-392.32
-422.28
-454.84
-489.47
-522.31
-547.54
-560.47
-561.22
-553.33
-542.90
-534.92
-530.14
-524.64
-512.50
-490.00
-458.59
-424.55
-392.14
-362.94
-335.42
-307.00
-275.97
-242.38
-207.81
-174.20
-142.67
-107.69
-62.73
-3.38
70.28
154.27
243.09
331.56
415.53
492.18
566.59
644.80
730.47
822.76
917.54
1010.36
1098.05
1178.64
1211.85
1169.86
1048.20
871.59
678.37
499.58
350.29
232.85
143.00
74.07
25.03
-6.35
-26.14
-44.25
-70.29
-108.24
-154.83
-202.38
-243.54
-269.99
-278.66
-272.14
-256.62
-238.30
-220.57
-204.31
-190.00
-179.44
-172.22
-167.47
-165.15
-165.70
-169.60
-175.78
-181.56
-183.07
-176.88
-160.19
-133.53
-101.32
-70.61
-48.78
-39.15
-40.54
-48.79
-59.86
-71.32
-82.65
-94.28
-105.88
-115.62
-120.67
-119.42
-111.13
-97.01
-79.73
-61.89
-44.61
-27.22
-7.82
14.95
41.18
69.84
98.39
123.15
141.15
151.05
153.47
150.53
146.68
142.69
139.63
138.25
138.20
138.20
135.51
126.21
106.62
75.15
33.99
-11.38
-50.21
-74.38
-80.99
-72.84
-56.53
-38.95
-24.46
-14.39
-7.41
-1.67
2.49
3.59
-0.26
-10.21
-26.02
-46.26
-69.33
-93.38
-117.54
-141.14
-161.77
-175.32
-176.96
-163.63
-136.15
-99.85
-62.74
-32.51
-13.98
-7.49
-10.31
-18.45
-28.66
-38.92
-48.13
-55.10
-58.72
-57.78
-51.65
-41.19
-27.84
-12.89
3.14
20.62
40.08
61.37
83.18
103.56
119.89
130.12
133.82
132.25
127.83
123.38
121.45
121.74
126.17
133.79
140.94
142.29
132.88
110.52
77.36
39.66
5.24
-19.45
-32.43
-35.73
-33.33
-28.74
-23.44
-17.02
-8.71
0.88
9.75
14.98
14.51
8.39
-1.53
-12.96
-23.92
-34.10
-44.49
-56.06
-70.09
-87.14
-106.90
-127.98
-147.70
-161.93
-165.99
-156.12
-131.51
-95.80
-56.23
-21.28
2.66
13.43
13.55
8.00
1.84
-1.97
-3.25
-3.39
-3.84
-4.82
-5.43
-3.98
0.74
9.42
22.22
38.96
59.44
82.90
107.35
128.36
140.81
140.12
125.05
98.88
68.71
42.96
26.23
19.15
17.72
15.89
8.38
-6.83
-27.84
-50.16
-68.37
-78.67
-79.23
-70.88
-56.57
-40.78
-28.59
-24.32
-29.79
-44.27
-64.54
-85.71
-103.33
-115.11
-121.38
-124.35
-125.93
-126.05
-122.35
-111.75
-92.55
-66.70
-39.19
-15.44
0.90
10.35
16.61
24.06
35.06
48.64
61.19
69.05
71.25
69.18
66.62
66.73
70.26
75.21
78.05
75.27
65.50
51.03
35.86
25.65
24.27
32.67
48.57
68.10
87.26
100.19
107.18
110.62
115.31
124.64
140.00
160.39
182.40
200.29
206.52
199.14
173.59
131.54
78.89
25.42
-17.93
-42.96
-47.65
-38.32
-25.65
-21.46
-31.62
-56.81
-91.77
-128.08
-157.97
-169.36
-158.48
-129.59
-97.88
-67.53
-40.66
-19.42
-6.79
-4.94
-16.43
-43.32
-81.66
-124.24
-161.95
-189.98
-207.83
-218.08
-224.53
-230.74
-238.91
-247.45
-251.04
-242.69
-218.83
-180.86
-135.20
-90.91
-56.18
-35.49
-28.43
-28.96
-30.83
-30.31
-25.73
-16.94
-3.64
14.99
39.52
69.36
103.57
139.57
174.35
206.22
235.21
263.71
296.26
338.89
388.60
444.03
501.38
553.89
593.50
612.20
605.96
576.77
531.82
480.55
432.26
391.80
359.55
333.46
308.95
283.47
257.62
233.70
213.19
196.47
181.74
166.61
149.66
125.43
90.57
45.08
-8.47
-67.34
-129.12
-192.20
-254.47
-312.02
-368.87
-427.35
-485.86
-539.86
-585.51
-621.79
-650.49
-674.35
-694.39
-722.41
-766.50
-826.92
-896.67
-966.52
-1029.23
-1081.52
-1124.06
-1100.90
-988.84
-802.46
-584.75
-375.78
-193.97
-40.05
90.69
190.84
270.45
326.17
355.98
364.03
359.60
351.12
343.21
339.56
343.97
364.97
402.14
453.03
511.53
568.41
612.45
634.56
632.22
610.97
582.73
552.47
521.95
489.51
454.17
417.22
382.52
354.72
337.59
332.95
336.02
340.37
337.39
321.45
290.80
247.57
195.56
138.00
77.64
15.33
-47.67
-113.95
-184.07
-255.23
-321.28
-375.76
-415.16
-439.48
-452.09
-457.91
-468.75
-494.23
-538.01
-596.13
-661.26
-727.26
-790.80
-850.69
-865.97
-810.43
-682.93
-509.25
-323.57
-152.75
-12.46
90.99
158.36
195.88
207.06
196.88
170.43
137.72
108.39
89.44
85.38
98.50
129.21
172.28
223.73
277.33
328.09
370.46
398.11
406.91
396.90
372.45
342.63
308.87
273.11
239.47
212.63
196.10
192.30
200.81
213.30
219.63
209.88
180.41
135.71
87.62
44.75
13.78
-2.20
-5.11
-0.32
4.80
4.35
-5.16
-23.58
-49.04
-76.70
-100.84
-118.29
-128.18
-132.20
-132.15
-129.21
-124.04
-117.72
-111.84
-108.94
-113.59
-128.56
-153.48
-184.57
-216.44
-243.65
-261.98
-268.50
-251.33
-206.83
-143.24
-78.50
-30.27
-7.60
-9.25
-27.37
-54.14
-83.12
-111.59
-137.44
-157.33
-166.54
-160.87
-138.19
-95.96
-34.22
40.67
117.53
185.61
238.52
275.11
297.48
308.47
310.23
303.86
290.69
272.09
250.49
229.30
212.04
201.07
196.46
195.11
191.39
179.43
155.43
120.09
79.22
41.29
13.81
0.19
-1.01
3.87
8.69
9.49
5.28
-2.88
-13.94
-27.87
-45.77
-68.95
-97.37
-129.24
-162.13
-192.54
-216.19
-228.82
-227.14
-210.80
-183.72
-153.00
-126.86
-111.76
-109.41
-116.98
-129.39
-140.67
-146.90
-146.93
-140.64
-128.12
-109.45
-84.07
-52.00
-16.04
20.58
54.39
82.22
102.76
116.10
123.08
125.31
124.46
121.42
116.99
112.95
107.45
100.00
91.15
82.09
74.07
66.99
59.79
51.13
39.46
24.34
7.30
-9.46
-25.02
-39.98
-56.52
-75.64
-95.92
-114.84
-129.40
-136.44
-134.31
-123.98
-107.57
-88.17
-66.95
-43.96
-20.95
-1.37
11.98
17.57
15.45
9.37
5.20
5.97
17.20
41.53
77.44
120.73
166.25
207.92
241.93
247.63
213.24
141.40
46.67
-54.02
-148.85
-225.86
-290.01
-344.98
-392.73
-431.41
-458.74
-474.54
-480.40
-478.69
-471.14
-459.43
-442.74
-420.32
-389.76
-349.13
-298.36
-238.76
-172.29
-100.76
-26.92
47.23
118.49
183.56
238.56
279.48
303.60
310.24
301.24
279.50
249.27
214.07
176.67
138.98
102.31
69.04
41.54
21.74
10.56
8.86
17.43
37.04
67.13
104.26
143.80
178.03
198.94
202.42
192.11
178.39
173.03
182.99
206.85
240.68
275.76
302.56
314.93
312.98
302.14
289.18
279.28
275.16
285.65
315.79
364.19
424.12
487.85
549.83
606.62
656.38
698.83
745.01
801.89
866.92
928.00
969.95
980.93
955.27
894.30
744.04
494.94
185.19
-118.89
-365.64
-538.51
-646.14
-705.71
-733.09
-740.32
-726.33
-692.24
-645.00
-595.72
-552.81
-518.19
-489.17
-461.96
-434.32
-398.63
-352.34
-299.12
-247.19
-203.65
-171.22
-149.44
-137.20
-134.23
-136.22
-141.79
-149.58
-159.92
-172.18
-183.89
-192.30
-196.31
-197.06
-194.50
-189.49
-183.41
-178.19
-174.60
-171.29
-165.35
-153.60
-134.10
-106.42
-73.59
-41.22
-15.88
-2.20
-0.49
-7.01
-15.87
-22.15
-23.41
-21.76
-22.44
-29.32
-42.59
-57.05
-63.59
-53.34
-22.91
23.05
72.64
111.89
131.13
128.58
110.78
88.34
70.89
63.02
64.21
71.28
81.17
93.19
108.11
126.90
148.48
170.00
187.65
198.13
199.62
191.14
172.99
145.97
111.93
73.67
35.11
-0.06
-29.73
-54.55
-78.90
-105.20
-135.16
-168.59
-203.75
-237.78
-267.89
-292.08
-309.20
-319.48
-322.07
-316.36
-302.62
-282.38
-257.89
-230.83
-201.24
-162.52
-115.24
-66.89
-29.52
-12.50
-18.15
-41.75
-74.81
-108.79
-137.60
-162.12
-183.49
-201.61
-214.52
-219.48
-214.51
-199.27
-174.94
-145.06
-114.47
-86.15
-61.12
-38.67
-17.67
2.33
20.71
35.84
45.62
48.07
42.98
31.72
16.84
1.05
-13.32
-25.07
-34.27
-41.91
-49.21
-56.48
-63.16
-68.04
-69.81
-67.29
-60.11
-48.89
-35.23
-20.83
-6.65
7.03
20.58
34.61
50.39
68.32
87.62
106.22
121.88
133.16
139.53
141.37
139.47
136.88
135.45
134.95
133.60
129.81
123.63
116.70
111.70
111.07
120.94
144.94
182.99
231.70
286.46
343.16
398.12
448.80
494.26
543.09
603.24
677.59
761.84
846.71
921.75
977.55
1008.33
1012.53
1001.37
984.35
964.25
937.14
897.92
845.74
784.14
719.10
598.27
401.85
147.21
-118.94
-351.75
-529.25
-650.00
-722.77
-758.27
-766.03
-744.91
-696.37
-627.98
-552.42
-483.09
-429.84
-398.82
-392.27
-409.17
-438.68
-471.04
-501.66
-531.80
-565.84
-601.13
-632.68
-653.89
-657.94
-635.28
-581.44
-499.78
-400.70
-297.40
-200.93
-118.89
-54.24
-6.53
28.55
54.74
73.61
85.03
88.88
86.67
80.60
73.14
66.14
61.20
58.59
57.41
56.28
54.09
50.58
45.88
40.47
34.99
30.08
26.29
23.96
23.16
23.54
24.39
24.69
23.53
20.58
16.21
11.50
7.70
5.79
5.91
7.22
8.22
7.51
4.59
0.26
-3.47
-4.36
-1.05
6.02
14.48
20.92
22.71
19.33
12.72
6.33
3.34
5.03
10.17
15.74
18.50
16.71
10.32
0.48
-11.59
-24.65
-36.91
-45.58
-47.30
-39.92
-24.61
-7.15
3.52
-0.68
-22.22
-55.17
-86.62
-102.20
-92.81
-59.20
-11.56
35.82
71.87
93.28
104.47
113.05
123.92
135.67
141.49
133.92
110.28
75.42
39.50
13.10
1.73
3.70
11.56
16.75
14.22
4.85
-5.68
-10.81
-6.83
4.63
17.76
25.79
24.72
15.17
1.74
-9.74
-15.21
-13.89
-8.39
-2.67
0.19
-0.65
-3.63
-6.02
-5.41
-0.75
7.35
16.65
24.78
30.49
34.12
37.17
41.21
47.20
55.18
64.40
72.50
77.52
79.12
78.78
78.84
81.08
86.37
94.69
105.45
115.09
120.82
122.81
124.51
130.18
142.00
159.00
177.68
193.37
197.41
183.71
151.91
107.44
57.34
6.20
-44.63
-95.42
-146.71
-204.21
-272.25
-350.60
-434.21
-517.29
-597.01
-673.44
-747.26
-781.31
-748.01
-646.50
-505.62
-360.03
-230.17
-121.60
-32.08
43.47
109.44
162.98
200.44
221.55
230.79
235.51
240.18
246.57
255.28
265.90
273.10
271.95
260.89
242.62
221.23
199.13
174.69
148.88
123.60
97.97
71.06
43.29
17.08
-4.68
-20.35
-29.66
-32.87
-31.22
-27.70
-24.79
-23.62
-23.86
-24.49
-24.79
-24.38
-22.87
-20.41
-17.90
-16.12
-15.25
-15.09
-15.18
-15.23
-14.99
-14.30
-13.29
-12.27
-11.54
-11.10
-11.28
-12.56
-15.56
-20.68
-28.20
-37.93
-49.41
-63.00
-76.52
-88.17
-96.56
-100.68
-99.91
-94.19
-83.48
-67.91
-47.75
-23.31
4.25
33.13
60.95
84.95
102.42
111.35
110.84
101.17
84.07
61.87
37.38
13.17
-8.90
-28.27
-45.48
-62.01
-79.27
-96.49
-110.62
-116.41
-108.64
-85.07
-48.56
-5.98
34.13
64.36
80.60
81.47
67.85
42.18
8.82
-26.30
-56.37
-76.14
-84.25
-83.89
-81.37
-82.59
-90.60
-103.05
-115.26
-122.31
-121.25
-111.53
-94.07
-70.06
-40.22
-6.58
28.38
61.51
89.60
110.02
121.74
125.46
123.23
117.73
111.34
105.66
100.94
96.59
91.66
85.49
78.07
70.05
62.41
56.05
51.89
49.37
47.64
45.69
42.84
38.88
34.30
29.98
26.72
24.93
24.34
24.34
24.13
23.19
21.51
19.93
19.68
22.03
27.80
36.91
48.62
61.55
74.56
85.68
93.38
96.28
93.18
83.29
66.91
45.93
23.28
1.74
-17.73
-35.92
-54.75
-75.31
-96.33
-114.27
-125.08
-126.74
-120.35
-109.13
-95.95
-81.56
-64.62
-43.58
-19.09
5.33
24.60
35.00
36.34
32.15
27.46
26.27
30.11
37.73
46.57
54.34
59.65
62.10
61.79
58.57
52.57
44.91
37.62
32.93
31.97
33.46
33.76
28.31
13.41
-11.75
-44.47
-79.49
-110.40
-130.98
-136.04
-122.74
-91.64
-48.70
-4.36
29.32
42.64
31.61
-1.28
-48.69
-100.82
-146.41
-176.81
-186.45
-172.95
-136.98
-82.56
-17.37
49.09
108.74
157.60
194.49
221.05
240.33
255.70
269.75
283.17
294.28
299.20
292.65
267.67
219.15
147.11
57.24
-41.36
-140.28
-234.31
-321.56
-390.15
-427.01
-425.16
-389.04
-331.35
-265.74
-202.24
-146.22
-99.44
-60.97
-30.55
-8.41
5.55
12.61
15.18
15.83
17.09
20.93
29.13
41.48
56.80
73.73
91.48
109.67
128.19
146.44
162.86
175.82
182.95
182.00
171.64
152.04
124.81
91.56
56.75
24.01
-3.90
-25.66
-41.20
-51.30
-57.05
-59.45
-59.43
-57.72
-55.03
-51.80
-48.51
-45.74
-44.14
-44.23
-45.94
-48.83
-51.99
-54.50
-55.52
-54.73
-52.54
-50.01
-48.39
-48.61
-50.80
-54.14
-57.31
-59.14
-58.94
-56.97
-54.23
-51.94
-51.17
-52.73
-57.01
-63.80
-71.58
-77.10
-75.95
-64.15
-40.31
-7.01
29.45
61.52
83.46
93.59
94.46
90.73
86.43
83.25
80.53
76.61
70.64
63.51
57.44
54.45
55.04
57.77
59.86
58.32
51.46
39.25
23.31
6.11
-9.85
-22.80
-31.97
-36.90
-37.07
-32.46
-24.28
-15.15
-8.65
-7.10
-9.85
-13.29
-12.77
-4.68
11.28
31.76
51.34
64.59
68.43
62.61
48.79
28.84
4.51
-22.63
-50.41
-75.70
-94.88
-104.48
-102.02
-85.86
-58.36
-23.27
14.93
51.66
84.31
110.50
128.22
135.72
131.75
115.81
88.86
53.19
12.61
-27.49
-61.20
-83.20
-89.67
-78.96
-52.10
-12.09
36.22
87.02
134.34
172.78
198.00
207.47
200.70
178.87
145.30
104.61
62.43
24.36
-4.84
-21.80
-24.84
-14.08
8.32
39.27
75.26
112.69
148.24
179.09
203.16
218.92
227.19
227.88
221.30
208.22
189.59
166.57
140.45
112.78
85.39
60.37
39.30
23.79
14.92
13.12
18.03
28.49
42.82
59.08
75.32
89.41
99.72
104.89
103.90
96.35
82.44
63.05
39.68
14.27
-11.27
-35.39
-57.31
-77.18
-95.85
