1660926544.00
64.000000
-0.00
-0.00
-0.00
-0.00
-0.00
-0.00
-0.00
-0.00
-0.00
-0.00
0.00
0.01
0.01
-0.00
-0.03
-0.05
-0.05
0.00
0.13
0.36
0.66
1.01
1.37
1.72
2.06
2.40
2.79
3.25
3.81
4.44
5.09
5.73
6.32
6.91
7.53
8.27
9.15
10.25
11.45
12.64
13.72
14.66
15.56
16.58
17.94
19.77
22.26
25.17
28.24
31.19
33.90
36.51
39.37
42.89
47.35
53.05
59.59
66.44
73.08
79.29
85.27
91.59
98.94
107.70
118.22
129.83
141.70
153.08
163.70
173.90
184.50
196.80
209.21
223.58
240.15
258.93
278.92
297.74
311.60
316.21
308.15
286.05
251.61
208.08
159.59
109.67
60.51
13.11
-32.22
-75.25
-115.71
-153.28
-188.63
-223.08
-258.25
-295.04
-332.67
-368.27
-397.40
-415.57
-419.82
-410.11
-389.38
-362.30
-333.50
-306.01
-280.78
-257.24
-234.54
-212.27
-190.95
-171.38
-154.05
-138.72
-124.56
-110.66
-96.51
-82.25
-68.58
-56.31
-46.00
-37.61
-30.61
-24.23
-17.85
-11.24
-4.67
1.38
6.44
10.31
13.13
15.28
17.17
19.01
20.84
22.49
23.78
24.61
25.02
25.12
25.08
25.01
24.95
24.87
24.76
24.57
24.27
23.83
23.21
22.43
21.53
20.60
19.75
19.07
18.60
18.32
18.15
18.00
17.79
17.49
17.06
16.51
15.87
15.17
14.47
13.82
13.28
12.88
12.61
12.44
12.31
12.15
11.91
11.56
11.12
10.65
10.24
9.95
9.79
9.72
9.66
9.50
9.19
8.73
8.20
7.70
7.29
7.01
6.85
6.75
6.69
6.61
6.49
6.28
5.94
5.48
4.93
4.35
3.83
3.39
3.06
2.78
2.54
2.31
2.12
2.01
1.94
1.89
1.78
1.56
1.19
0.72
0.17
-0.39
-0.94
-1.47
-2.00
-2.56
-3.18
-3.83
-4.47
-5.04
-5.46
-5.77
-6.04
-6.42
-7.02
-7.81
-8.64
-9.25
-9.43
-9.12
-8.46
-7.71
-7.14
-6.85
-6.77
-6.71
-6.51
-6.05
-5.40
-4.63
-3.88
-3.19
-2.58
-2.04
-1.57
-1.20
-0.92
-0.71
-0.52
-0.27
0.08
0.57
1.14
1.72
2.24
2.63
2.86
2.96
2.94
2.82
2.61
2.34
2.07
1.89
1.87
2.04
2.37
2.77
3.12
3.35
3.43
3.38
3.24
3.09
2.99
3.01
3.22
3.59
4.04
4.47
4.76
4.87
4.83
4.68
4.50
4.29
4.08
3.87
3.69
3.55
3.47
3.41
3.37
3.35
3.41
3.58
3.86
4.18
4.39
4.38
4.14
3.76
3.38
3.14
3.09
3.16
3.25
3.29
3.23
3.10
2.93
2.75
2.54
2.27
1.92
1.51
1.11
0.79
0.66
0.74
1.02
1.42
1.77
1.93
1.82
1.47
1.06
0.77
0.71
0.84
0.99
1.00
0.81
0.50
0.22
0.11
0.19
0.41
0.66
0.90
1.14
1.44
1.81
2.20
2.51
2.64
2.56
2.33
2.03
1.72
1.43
1.15
0.89
0.70
0.62
0.67
0.83
1.02
1.18
1.25
1.23
1.15
1.03
0.87
0.66
0.40
0.12
-0.09
-0.14
-0.01
0.28
0.66
1.02
1.30
1.45
1.46
1.36
1.19
1.02
0.95
1.03
1.25
1.49
1.63
1.55
1.26
0.88
0.55
0.40
0.44
0.57
0.66
0.62
0.47
0.27
0.15
0.14
0.24
0.40
0.59
0.77
0.96
1.15
1.28
1.32
1.20
0.95
0.63
0.33
0.14
0.09
0.12
0.16
0.17
0.13
0.13
0.23
0.47
0.83
1.19
1.45
1.55
1.52
1.43
1.35
1.29
1.19
0.99
0.66
0.25
-0.15
-0.46
-0.67
-0.80
-0.90
-0.99
-1.02
-0.92
-0.64
-0.18
0.34
0.80
1.12
1.27
1.29
1.25
1.16
1.01
0.80
0.54
0.30
0.18
0.20
0.32
0.47
0.58
0.63
0.68
0.76
0.85
0.89
0.79
0.53
0.21
-0.02
-0.05
0.09
0.27
0.32
0.15
-0.18
-0.46
-0.51
-0.26
0.20
0.69
1.05
1.22
1.25
1.23
1.22
1.18
1.01
0.64
0.09
-0.47
-0.86
-0.90
-0.62
-0.12
0.38
0.69
0.75
0.59
0.31
0.02
-0.20
-0.36
-0.50
-0.61
-0.70
-0.72
-0.66
-0.53
-0.37
-0.22
-0.12
-0.07
-0.07
-0.09
-0.08
-0.03
0.09
0.24
0.40
0.50
0.53
0.51
0.52
0.63
0.84
1.08
1.22
1.14
0.83
0.39
-0.02
-0.25
-0.28
-0.16
-0.03
-0.01
-0.10
-0.23
-0.29
-0.21
0.00
0.25
0.45
0.56
0.62
0.71
0.89
1.15
1.41
1.55
1.51
1.32
1.09
0.90
0.84
0.86
0.87
0.77
0.52
0.14
-0.29
-0.69
-0.98
-1.16
-1.23
-1.20
-1.08
-0.88
-0.61
-0.32
-0.07
0.10
0.16
0.11
-0.03
-0.20
-0.34
-0.39
-0.31
-0.12
0.15
0.40
0.57
0.61
0.48
0.20
-0.18
-0.59
-0.95
-1.17
-1.22
-1.14
-0.99
-0.90
-0.94
-1.19
-1.64
-2.24
-2.89
-3.50
-4.01
-4.37
-4.60
-4.79
-5.02
-5.41
-6.04
-6.87
-7.83
-8.80
-9.66
-10.40
-11.08
-11.86
-12.94
-14.47
-16.47
-18.79
-21.06
-22.89
-24.01
-24.47
-24.74
-25.53
-27.54
-31.03
-35.65
-40.57
-44.85
-48.02
-50.31
-52.63
-56.06
-61.31
-68.39
-76.65
-85.21
-93.42
-101.04
-108.10
-114.52
-119.88
-123.49
-124.82
-123.89
-121.30
-117.86
-114.00
-109.48
-103.62
-96.07
-87.47
-79.44
-73.56
-70.11
-67.21
-61.26
-48.53
-27.06
2.16
35.43
67.91
95.62
116.71
131.58
141.90
149.25
154.34
157.05
157.10
154.79
151.28
148.22
147.05
148.33
151.61
155.70
159.45
162.37
164.85
167.88
172.35
178.57
186.03
193.68
200.53
206.04
210.35
214.01
217.62
221.65
226.26
231.39
236.65
241.11
243.13
240.51
230.95
212.85
185.95
151.32
110.83
66.22
18.63
-31.06
-81.38
-129.49
-171.27
-202.55
-220.76
-226.18
-221.89
-212.38
-201.73
-192.15
-183.76
-175.40
-165.99
-155.37
-144.36
-134.14
-125.47
-118.20
-111.57
-104.65
-96.91
-88.47
-79.99
-72.21
-65.62
-60.23
-55.61
-51.15
-46.38
-41.17
-35.79
-30.74
-26.51
-23.35
-21.16
-19.55
-18.01
-16.18
-13.95
-11.45
-9.02
-6.94
-5.35
-4.24
-3.42
-2.71
-1.95
-1.07
-0.14
0.75
1.44
1.81
1.83
1.56
1.17
0.84
0.70
0.78
1.00
1.24
1.41
1.51
1.62
1.83
2.18
2.61
3.00
3.22
3.17
2.87
2.38
1.82
1.26
0.74
0.28
-0.14
-0.50
-0.77
-0.93
-1.00
-1.00
-1.02
-1.10
-1.24
-1.41
-1.56
-1.66
-1.74
-1.84
-2.01
-2.21
-2.35
-2.34
-2.12
-1.75
-1.33
-1.01
-0.90
-1.00
-1.27
-1.63
-2.02
-2.40
-2.73
-2.96
-3.04
-2.90
-2.49
-1.87
-1.11
-0.37
0.22
0.58
0.68
0.56
0.29
-0.02
-0.30
-0.49
-0.54
-0.40
-0.06
0.44
1.04
1.61
2.04
2.26
2.27
2.16
2.02
1.91
1.85
1.84
1.89
2.02
2.25
2.56
2.86
3.02
2.93
2.55
1.94
1.24
0.57
0.05
-0.32
-0.54
-0.66
-0.73
-0.79
-0.90
-1.10
-1.44
-1.91
-2.41
-2.79
-2.88
-2.59
-2.00
-1.29
-0.73
-0.56
-0.88
-1.58
-2.40
-3.03
-3.20
-2.82
-2.01
-1.03
-0.18
0.31
0.40
0.19
-0.08
-0.18
0.04
0.59
1.35
2.14
2.76
3.08
3.04
2.66
2.04
1.28
0.49
-0.27
-0.94
-1.45
-1.75
-1.75
-1.46
-0.95
-0.37
0.09
0.31
0.30
0.14
-0.01
-0.04
0.09
0.33
0.61
0.84
1.02
1.16
1.32
1.51
1.69
1.81
1.80
1.66
1.46
1.30
1.26
1.38
1.62
1.88
2.06
2.10
1.99
1.75
1.40
0.95
0.38
-0.26
-0.87
-1.31
-1.48
-1.39
-1.16
-0.97
-1.01
-1.32
-1.84
-2.37
-2.71
-2.73
-2.40
-1.80
-1.10
-0.49
-0.13
-0.13
-0.47
-1.04
-1.67
-2.17
-2.45
-2.47
-2.29
-1.99
-1.64
-1.30
-1.00
-0.77
-0.66
-0.67
-0.74
-0.77
-0.63
-0.23
0.44
1.27
2.07
2.63
2.80
2.49
1.82
0.98
0.25
-0.12
-0.06
0.36
0.90
1.33
1.50
1.42
1.23
1.06
0.99
0.98
0.92
0.75
0.51
0.31
0.25
0.31
0.43
0.49
0.45
0.37
0.38
0.55
0.84
1.11
1.21
1.09
0.81
0.56
0.51
0.71
1.10
1.51
1.81
1.92
1.86
1.67
1.37
0.99
0.52
0.02
-0.47
-0.88
-1.20
-1.46
-1.69
-1.94
-2.21
-2.45
-2.59
-2.54
-2.28
-1.89
-1.49
-1.24
-1.26
-1.56
-2.05
-2.60
-3.04
-3.24
-3.14
-2.71
-2.02
-1.15
-0.28
0.38
0.68
0.56
0.12
-0.38
-0.68
-0.58
-0.06
0.73
1.57
2.25
2.59
2.53
2.05
1.23
0.19
-0.85
-1.67
-2.05
-1.91
-1.31
-0.42
0.50
1.23
1.64
1.74
1.61
1.37
1.13
0.96
0.87
0.88
0.99
1.17
1.39
1.57
1.64
1.59
1.44
1.32
1.33
1.54
1.89
2.25
2.44
2.34
1.97
1.45
0.97
0.69
0.63
0.72
0.80
0.74
0.45
-0.05
-0.66
-1.28
-1.84
-2.27
-2.58
-2.77
-2.83
-2.75
-2.51
-2.13
-1.67
-1.23
-0.96
-0.97
-1.29
-1.84
-2.49
-3.02
-3.28
-3.17
-2.75
-2.11
-1.44
-0.87
-0.44
-0.14
0.15
0.51
0.96
1.43
1.80
1.93
1.80
1.46
1.04
0.67
0.41
0.27
0.23
0.26
0.40
0.63
0.94
1.27
1.49
1.53
1.34
0.96
0.50
0.06
-0.25
-0.39
-0.41
-0.33
-0.23
-0.12
-0.00
0.13
0.28
0.47
0.72
1.04
1.47
1.99
2.54
3.02
3.32
3.37
3.18
2.83
2.48
2.22
2.11
2.07
1.99
1.73
1.19
0.37
-0.64
-1.65
-2.48
-3.02
-3.26
-3.29
-3.21
-3.09
-2.93
-2.68
-2.34
-1.96
-1.67
-1.58
-1.74
-2.09
-2.47
-2.76
-2.88
-2.86
-2.77
-2.70
-2.67
-2.62
-2.46
-2.09
-1.46
-0.61
0.35
1.29
2.07
2.62
2.95
3.09
3.06
2.87
2.50
1.94
1.27
0.61
0.10
-0.14
-0.08
0.21
0.59
0.93
1.11
1.07
0.81
0.41
-0.03
-0.38
-0.54
-0.47
-0.21
0.14
0.43
0.58
0.62
0.66
0.80
1.11
1.52
1.87
2.03
1.93
1.67
1.38
1.17
1.08
1.05
1.04
1.07
1.20
1.50
1.96
2.43
2.70
2.59
2.07
1.23
0.24
-0.74
-1.58
-2.22
-2.60
-2.66
-2.42
-1.98
-1.48
-1.14
-1.06
-1.26
-1.62
-2.01
-2.29
-2.44
-2.47
-2.41
-2.29
-2.11
-1.86
-1.56
-1.25
-0.99
-0.87
-0.89
-1.02
-1.13
-1.10
-0.84
-0.32
0.32
0.92
1.29
1.31
1.01
0.52
0.02
-0.37
-0.61
-0.73
-0.80
-0.83
-0.79
-0.59
-0.23
0.24
0.64
0.82
0.70
0.32
-0.14
-0.50
-0.60
-0.40
0.03
0.60
1.21
1.75
2.16
2.38
2.37
2.16
1.83
1.52
1.37
1.41
1.64
1.97
2.30
2.55
2.67
2.66
2.56
2.41
2.24
2.05
1.79
1.39
0.80
0.02
-0.86
-1.72
-2.41
-2.84
-2.98
-2.88
-2.63
-2.36
-2.13
-1.96
-1.81
-1.63
-1.39
-1.13
-0.94
-0.93
-1.17
-1.63
-2.20
-2.73
-3.07
-3.14
-2.94
-2.49
-1.84
-1.08
-0.31
0.33
0.77
0.99
1.09
1.23
1.52
2.00
2.57
3.03
3.23
3.10
2.71
2.21
1.72
1.29
0.92
0.58
0.26
-0.02
-0.24
-0.41
-0.56
-0.72
-0.89
-1.04
-1.10
-1.04
-0.87
-0.64
-0.40
-0.18
0.02
0.26
0.53
0.78
0.94
0.91
0.70
0.40
0.15
0.10
0.30
0.67
1.05
1.28
1.30
1.17
1.04
1.03
1.17
1.40
1.56
1.57
1.39
1.08
0.74
0.44
0.19
-0.06
-0.33
-0.62
-0.89
-1.14
-1.37
-1.61
-1.89
-2.19
-2.47
-2.67
-2.77
-2.79
-2.78
-2.75
-2.69
-2.55
-2.30
-1.95
-1.56
-1.21
-0.99
-0.91
-0.88
-0.77
-0.42
0.25
1.19
2.23
3.09
3.54
3.50
3.01
2.27
1.51
0.89
0.45
0.16
-0.08
-0.33
-0.61
-0.90
-1.11
-1.19
-1.07
-0.78
-0.37
0.06
0.40
0.59
0.66
0.65
0.65
0.73
0.91
1.17
1.43
1.66
1.83
1.97
2.12
2.31
2.51
2.64
2.60
2.36
1.97
1.59
1.35
1.32
1.41
1.41
1.14
0.50
-0.38
-1.27
-1.88
-2.10
-1.96
-1.69
-1.52
-1.58
-1.86
-2.21
-2.52
-2.74
-2.94
-3.18
-3.50
-3.81
-3.99
-3.91
-3.57
-3.08
-2.63
-2.36
-2.33
-2.44
-2.55
-2.47
-2.10
-1.36
-0.27
1.15
2.78
4.39
5.72
6.44
6.34
5.41
3.86
2.10
0.56
-0.44
-0.79
-0.63
-0.19
0.26
0.58
0.74
0.75
0.65
0.45
0.15
-0.23
-0.61
-0.84
-0.82
-0.51
0.02
0.63
1.14
1.46
1.53
1.41
1.20
1.02
0.99
1.19
1.60
2.12
2.58
2.85
2.87
2.70
2.43
2.14
1.81
1.38
0.78
0.01
-0.84
-1.60
-2.15
-2.44
-2.49
-2.38
-2.20
-2.03
-1.90
-1.81
-1.78
-1.83
-1.97
-2.23
-2.57
-2.95
-3.27
-3.42
-3.33
-2.99
-2.52
-2.10
-1.88
-1.91
-2.13
-2.36
-2.39
-2.08
-1.37
-0.32
0.94
2.25
3.40
4.22
4.56
4.37
3.70
2.71
1.64
0.70
0.06
-0.23
-0.24
-0.06
0.17
0.34
0.39
0.29
0.07
-0.24
-0.53
-0.69
-0.64
-0.36
0.11
0.65
1.16
1.58
1.89
2.11
2.25
2.25
2.07
1.71
1.27
0.94
0.90
1.20
1.73
2.24
2.45
2.22
1.59
0.74
-0.08
-0.68
-1.00
-1.08
-1.04
-0.98
-0.97
-1.02
-1.13
-1.31
-1.56
-1.87
-2.20
-2.47
-2.62
-2.62
-2.50
-2.38
-2.32
-2.37
-2.46
-2.50
-2.38
-2.11
-1.75
-1.41
-1.14
-0.97
-0.84
-0.70
-0.54
-0.36
-0.13
0.20
0.76
1.63
2.78
4.04
5.08
5.58
5.31
4.29
2.77
1.13
-0.23
-1.10
-1.43
-1.33
-1.01
-0.62
-0.24
0.07
0.27
0.31
0.14
-0.20
-0.58
-0.83
-0.81
-0.50
0.02
0.56
0.94
1.04
0.89
0.59
0.29
0.17
0.30
0.72
1.33
1.97
2.45
2.67
2.58
2.27
1.85
1.41
1.01
0.65
0.28
-0.13
-0.61
-1.14
-1.64
-2.03
-2.20
-2.11
-1.84
-1.51
-1.32
-1.40
-1.73
-2.20
-2.61
-2.84
-2.85
-2.75
-2.66
-2.69
-2.84
-3.03
-3.12
-3.02
-2.67
-2.11
-1.42
-0.68
0.05
0.75
1.43
2.09
2.74
3.34
3.79
4.01
3.93
3.52
2.84
2.00
1.13
0.35
-0.26
-0.66
-0.83
-0.80
-0.61
-0.30
0.06
0.43
0.75
1.00
1.13
1.15
1.06
0.89
0.68
0.46
0.25
0.06
-0.12
-0.29
-0.42
-0.47
-0.40
-0.17
0.21
0.65
1.08
1.39
1.54
1.55
1.49
1.43
1.42
1.47
1.52
1.52
1.39
1.10
0.66
0.10
-0.52
-1.11
-1.58
-1.88
-1.99
-1.96
-1.86
-1.76
-1.70
-1.64
-1.57
-1.50
-1.52
-1.71
-2.14
-2.75
-3.37
-3.79
-3.83
-3.43
-2.68
-1.78
-0.97
-0.43
-0.20
-0.18
-0.17
0.07
0.69
1.70
2.93
4.14
5.07
5.51
5.39
4.72
3.60
2.17
0.64
-0.74
-1.71
-2.08
-1.85
-1.16
-0.30
0.44
0.87
0.96
0.78
0.43
-0.00
-0.45
-0.85
-1.11
-1.16
-0.93
-0.45
0.16
0.72
1.09
1.19
1.05
0.75
0.42
0.16
0.05
0.15
0.42
0.83
1.29
1.67
1.88
1.89
1.73
1.50
1.28
1.11
0.90
0.58
0.08
-0.57
-1.25
-1.81
-2.17
-2.31
-2.28
-2.17
-2.04
-1.90
-1.73
-1.54
-1.38
-1.30
-1.34
-1.51
-1.73
-1.95
-2.09
-2.11
-2.00
-1.78
-1.50
-1.19
-0.88
-0.58
-0.30
-0.04
0.19
0.39
0.56
0.75
1.03
1.43
1.91
2.35
2.58
2.50
2.12
1.58
1.08
0.75
0.59
0.51
0.37
0.13
-0.16
-0.35
-0.31
-0.01
0.44
0.82
0.97
0.78
0.31
-0.31
-0.90
-1.33
-1.53
-1.50
-1.28
-0.91
-0.45
0.03
0.42
0.65
0.73
0.74
0.81
1.00
1.29
1.49
1.40
0.91
0.05
-0.94
-1.78
-2.24
-2.24
-1.86
-1.30
-0.79
-0.50
-0.52
-0.83
-1.27
-1.63
-1.66
-1.22
-0.34
0.80
1.92
2.76
3.16
3.14
2.80
2.29
1.70
1.07
0.41
-0.24
-0.81
-1.22
-1.41
-1.38
-1.24
-1.15
-1.24
-1.57
-2.12
-2.80
-3.48
-4.08
-4.55
-4.92
-5.26
-5.64
-6.13
-6.76
-7.51
-8.32
-9.10
-9.83
-10.56
-11.39
-12.41
-13.65
-15.09
-16.64
-18.25
-19.94
-21.79
-23.91
-26.33
-28.96
-31.63
-34.13
-36.39
-38.52
-40.82
-43.60
-47.03
-51.11
-55.61
-60.32
-65.17
-70.24
-75.62
-81.11
-86.01
-89.29
-90.03
-88.02
-84.12
-80.07
-77.91
-79.10
-84.02
-92.04
-102.20
-113.93
-127.29
-142.45
-158.60
-173.20
-182.18
-181.13
-167.09
-139.65
-100.92
-54.45
-3.79
48.26
99.44
147.30
188.79
220.72
240.92
249.42
248.73
242.93
236.15
231.16
228.82
228.53
229.04
229.31
228.91
227.85
226.40
224.82
223.29
221.96
221.04
220.88
221.98
224.62
228.39
231.72
231.89
225.57
209.89
183.58
147.41
103.76
55.32
3.99
-49.59
-105.14
-161.45
-215.36
-262.14
-297.06
-317.44
-323.89
-320.05
-310.97
-301.08
-293.02
-287.62
-284.54
-283.08
-282.14
-279.86
-273.33
-258.96
-233.62
-195.83
-146.43
-88.29
-25.50
37.55
96.82
148.95
191.39
222.87
243.58
255.32
261.00
263.71
265.85
268.79
273.18
279.38
287.49
296.98
306.04
311.43
309.17
295.96
270.44
233.69
188.57
138.18
84.84
29.99
-24.92
-77.37
-123.47
-158.95
-180.89
-189.10
-186.35
-177.13
-165.84
-155.29
-146.29
-138.26
-130.31
-122.11
-114.04
-106.76
-100.65
-95.52
-90.66
-85.36
-79.21
-72.38
-65.54
-59.49
-54.77
-51.39
-48.89
-46.52
-43.64
-39.96
-35.65
-31.15
-26.94
-23.34
-20.40
-17.93
-15.66
-13.38
-11.04
-8.75
-6.64
-4.85
-3.38
-2.19
-1.16
-0.23
0.66
1.45
2.07
2.41
2.41
2.06
1.46
0.72
-0.00
-0.58
-0.95
-1.09
-1.03
-0.82
-0.53
-0.23
-0.02
0.03
-0.12
-0.47
-0.96
-1.45
-1.82
-2.00
-1.99
-1.85
-1.72
-1.70
-1.83
-2.04
-2.21
-2.22
-2.02
-1.62
-1.13
-0.67
-0.35
-0.21
-0.25
-0.43
-0.66
-0.82
-0.78
-0.45
0.22
1.17
2.23
3.17
3.76
3.86
3.43
2.53
1.31
-0.07
-1.44
-2.61
-3.40
-3.66
-3.30
-2.39
-1.14
0.11
1.03
1.39
1.16
0.49
-0.35
-1.10
-1.60
-1.78
-1.71
-1.48
-1.22
-1.01
-0.88
-0.79
-0.74
-0.66
-0.54
-0.36
-0.13
0.15
0.45
0.78
1.14
1.52
1.94
2.41
2.91
3.43
3.94
4.39
4.71
4.85
4.76
4.45
3.94
3.23
2.37
1.39
0.37
-0.58
-1.36
-1.92
-2.24
-2.41
-2.52
-2.64
-2.80
-2.96
-3.08
-3.13
-3.09
-3.00
-2.89
-2.78
-2.67
-2.54
-2.32
-1.89
-1.16
-0.07
1.32
2.87
4.29
5.29
5.62
5.18
4.01
2.34
0.51
-1.14
-2.34
-2.94
-2.95
-2.47
-1.69
-0.80
0.03
0.66
1.00
1.04
0.84
0.51
0.19
-0.03
-0.12
-0.10
0.01
0.20
0.47
0.83
1.21
1.52
1.68
1.69
1.65
1.68
1.89
2.25
2.58
2.70
2.44
1.83
1.03
0.26
-0.31
-0.66
-0.86
-1.06
-1.37
-1.78
-2.22
-2.58
-2.75
-2.70
-2.46
-2.15
-1.88
-1.77
-1.89
-2.22
-2.66
-3.09
-3.38
-3.50
