1660750686.00
64.000000
-0.00
-0.00
-0.00
-0.00
-0.00
-0.00
-0.00
-0.00
-0.00
-0.00
0.00
0.01
0.01
-0.00
-0.03
-0.05
-0.05
0.00
0.13
0.36
0.66
1.01
1.37
1.72
2.06
2.40
2.79
3.24
3.80
4.42
5.06
5.66
6.20
6.68
7.15
7.68
8.31
9.14
10.09
11.04
11.88
12.56
13.14
13.76
14.65
15.96
17.91
20.32
22.90
25.38
27.58
29.57
31.68
34.32
37.81
42.54
48.15
54.10
59.83
64.97
69.58
74.14
79.34
85.71
93.76
103.00
112.62
121.73
129.77
136.75
143.30
150.75
157.77
166.64
177.95
191.79
206.97
220.57
228.25
225.36
208.53
176.87
132.76
80.05
23.07
-34.94
-92.44
-149.16
-205.23
-260.37
-313.74
-363.88
-409.84
-450.91
-486.50
-515.72
-537.20
-549.18
-549.94
-538.39
-514.32
-478.89
-434.19
-382.84
-327.44
-270.26
-213.03
-157.05
-103.38
-52.87
-6.51
34.88
70.66
100.58
124.77
143.68
157.98
168.33
175.33
179.44
181.02
180.37
177.81
173.64
168.16
161.65
154.33
146.43
138.21
129.93
121.84
114.06
106.59
99.27
91.85
84.16
76.19
68.18
60.52
53.60
47.64
42.52
37.83
33.05
27.75
21.88
15.77
10.04
5.24
1.68
-0.77
-2.62
-4.48
-6.89
-10.20
-14.55
-19.80
-25.28
-29.64
-31.05
-27.83
-19.22
-6.08
9.23
23.61
34.46
40.58
42.37
41.27
38.79
35.92
32.94
29.82
26.58
23.50
21.04
19.61
19.38
20.17
21.49
22.57
22.70
21.43
18.83
15.50
12.29
9.84
8.26
7.09
5.69
3.69
1.30
-0.81
-1.94
-1.79
-0.67
0.71
1.57
1.46
0.37
-1.27
-2.82
-3.68
-3.49
-2.20
-0.08
2.32
4.38
5.58
5.70
4.85
3.40
1.88
0.70
0.08
-0.01
0.25
0.67
1.13
1.61
2.20
2.95
3.87
4.88
5.89
6.84
7.75
8.64
9.57
10.50
11.37
12.05
12.36
12.18
11.37
9.88
7.77
5.27
2.51
-0.32
-3.11
-5.84
-8.54
-11.17
-13.56
-15.46
-16.63
-16.98
-16.60
-15.65
-14.33
-12.70
-10.75
-8.51
-6.16
-4.05
-2.60
-2.06
-2.40
-3.32
-4.37
-5.20
-5.63
-5.72
-5.66
-5.61
-5.62
-5.64
-5.55
-5.26
-4.76
-4.10
-3.45
-2.93
-2.63
-2.54
-2.60
-2.68
-2.71
-2.69
-2.69
-2.84
-3.17
-3.67
-4.23
-4.71
-4.97
-4.97
-4.74
-4.37
-4.04
-3.94
-4.25
-5.05
-6.24
-7.50
-8.36
-8.31
-6.97
-4.24
-0.34
4.31
9.02
13.05
15.88
17.31
17.48
16.75
15.48
13.97
12.32
10.53
8.55
6.46
4.41
2.62
1.29
0.48
0.10
-0.04
-0.17
-0.42
-0.79
-1.17
-1.42
-1.50
-1.48
-1.56
-2.01
-2.97
-4.42
-6.09
-7.63
-8.70
-9.18
-9.22
-9.13
-9.33
-10.08
-11.43
-13.18
-14.96
-16.33
-16.86
-16.23
-14.20
-10.79
-6.26
-1.12
4.01
8.54
12.04
14.34
15.47
15.58
14.83
13.43
11.61
9.63
7.79
6.34
5.42
5.00
4.95
5.09
5.28
5.39
5.36
5.16
4.75
4.20
3.54
2.84
2.07
1.19
0.14
-1.14
-2.62
-4.21
-5.78
-7.18
-8.31
-9.14
-9.72
-10.20
-10.81
-11.75
-13.10
-14.72
-16.20
-16.98
-16.54
-14.60
-11.21
-6.74
-1.77
3.08
7.32
10.66
12.97
14.23
14.54
13.97
12.69
10.90
8.90
7.02
5.55
4.62
4.22
4.15
4.19
4.16
3.99
3.78
3.67
3.75
3.99
4.20
4.14
3.58
2.48
0.96
-0.66
-2.10
-3.14
-3.79
-4.25
-4.77
-5.60
-6.85
-8.47
-10.34
-12.23
-13.84
-14.81
-14.72
-13.22
-10.16
-5.69
-0.35
5.07
9.82
13.35
15.52
16.50
16.65
16.29
15.57
14.52
13.14
11.52
9.85
8.39
7.30
6.58
6.09
5.57
4.85
3.90
2.89
2.03
1.52
1.32
1.24
0.93
0.10
-1.35
-3.28
-5.36
-7.26
-8.74
-9.80
-10.61
-11.42
-12.49
-13.94
-15.78
-17.82
-19.66
-20.76
-20.54
-18.63
-15.07
-10.29
-5.02
0.02
4.33
7.70
10.15
11.72
12.44
12.26
11.25
9.62
7.75
6.02
4.71
3.84
3.31
2.90
2.48
2.00
1.51
1.09
0.83
0.79
0.96
1.29
1.61
1.72
1.42
0.60
-0.67
-2.17
-3.57
-4.59
-5.12
-5.24
-5.25
-5.49
-6.26
-7.69
-9.68
-11.87
-13.72
-14.57
-13.85
-11.30
-7.14
-2.02
3.14
7.49
10.54
12.25
12.96
13.07
12.89
12.49
11.82
10.86
9.71
8.60
7.74
7.20
6.87
6.50
5.82
4.73
3.35
2.02
1.15
1.06
1.84
3.26
4.83
6.01
6.41
5.92
4.70
3.15
1.67
0.47
-0.39
-1.04
-1.66
-2.40
-3.28
-4.30
-5.42
-6.60
-7.77
-8.71
-9.00
-8.11
-5.58
-1.26
4.39
10.48
16.10
20.38
22.79
23.31
22.42
20.87
19.44
18.59
18.48
19.15
20.42
21.93
23.48
25.08
26.90
29.23
32.12
35.54
39.93
45.49
51.91
58.41
63.76
66.50
65.60
60.44
51.79
42.77
36.40
34.11
35.84
40.32
45.87
51.46
56.04
59.62
65.02
73.66
83.90
93.44
100.40
104.10
104.99
102.21
95.13
87.33
81.36
77.05
74.22
72.56
71.30
69.06
61.71
45.82
24.85
2.27
-21.64
-46.42
-71.44
-95.95
-102.98
-80.24
-52.40
-32.51
-15.80
-3.69
2.66
3.67
1.26
-2.32
-8.14
-17.71
-27.24
-34.19
-42.70
-55.41
-71.83
-88.91
-103.49
-116.08
-128.47
-138.75
-145.95
-156.95
-176.15
-202.98
-232.67
-260.37
-285.05
-307.66
-327.31
-343.66
-364.79
-395.61
-434.52
-474.74
-509.49
-536.42
-555.88
-568.20
-529.31
-421.08
-260.40
-88.22
61.53
176.22
257.18
311.67
347.70
371.71
380.78
373.42
353.43
329.07
308.05
292.81
283.08
276.63
271.83
261.81
242.48
215.19
185.74
159.96
138.87
121.54
105.92
89.87
68.10
37.44
-1.43
-45.11
-78.63
-97.78
-104.04
-101.77
-95.43
-90.07
-88.83
-92.56
-100.01
-108.44
-115.65
-117.25
-108.14
-85.18
-50.01
-8.62
30.85
61.23
78.85
82.84
76.38
64.29
50.65
37.76
26.46
17.23
10.75
7.89
8.23
10.49
13.41
15.26
14.56
11.00
5.90
1.54
0.18
2.35
6.93
11.48
13.20
10.40
3.45
-5.32
-12.87
-16.90
-16.94
-14.21
-10.81
-8.88
-9.68
-13.28
-18.67
-24.67
-30.36
-35.38
-39.74
-43.50
-46.50
-48.05
-48.88
-48.91
-48.02
-46.24
-43.65
-40.37
-36.47
-32.09
-27.45
-22.84
-18.36
-14.21
-10.66
-7.96
-6.34
-5.84
-6.28
-7.21
-8.06
-8.25
-7.63
-6.62
-5.99
-6.62
-9.09
-13.57
-19.82
-27.19
-34.64
-41.03
-45.24
-46.41
-44.16
-38.71
-30.88
-21.83
-12.72
-4.39
2.85
9.03
14.46
19.40
23.98
28.17
31.84
34.89
37.24
38.82
39.55
39.26
37.77
35.02
31.19
26.73
22.32
18.55
15.71
13.61
11.61
8.95
5.15
0.23
-5.28
-10.62
-15.15
-18.78
-21.89
-25.19
-29.37
-34.79
-41.35
-48.45
-55.16
-60.24
-62.46
-60.84
-54.96
-45.24
-32.91
-19.74
-7.47
2.64
10.15
15.33
18.72
20.85
21.90
21.85
20.70
18.72
16.49
14.69
13.88
14.28
15.69
17.76
20.16
22.84
25.97
29.87
34.68
40.24
45.98
51.14
54.97
57.06
57.48
56.74
55.52
54.38
53.45
52.42
50.61
47.29
41.99
34.68
25.92
16.80
8.73
3.09
0.84
2.15
6.31
11.96
17.50
21.65
23.75
23.80
22.24
19.66
16.51
13.05
9.39
5.62
1.77
-2.20
-6.37
-10.89
-15.75
-20.70
-25.08
-27.97
-28.43
-25.95
-20.76
-13.81
-6.58
-0.41
3.98
6.78
8.97
11.72
15.81
21.15
26.84
31.51
33.96
33.62
30.70
26.20
21.55
18.33
17.98
21.54
29.30
40.70
54.24
67.73
78.89
85.96
88.24
86.19
81.15
74.76
68.35
62.68
57.89
53.84
50.27
47.01
43.90
40.75
37.30
33.42
29.18
24.93
21.15
18.18
15.95
14.01
11.65
8.25
3.58
-2.08
-8.10
-13.71
-18.32
-21.71
-24.05
-25.91
-28.09
-31.39
-36.33
-42.82
-50.08
-56.69
-60.94
-61.35
-57.13
-48.37
-36.01
-21.44
-6.13
8.80
22.71
35.44
47.09
57.96
68.27
78.05
86.92
93.91
97.52
96.13
88.68
75.46
58.41
40.86
26.50
18.11
16.66
21.09
28.94
37.31
43.87
47.23
46.94
43.17
36.51
27.79
18.14
8.82
1.06
-4.33
-7.26
-8.41
-9.04
-10.55
-13.91
-19.27
-25.75
-31.81
-35.71
-36.26
-33.19
-27.30
-20.05
-13.02
-7.35
-3.44
-1.07
0.38
1.55
2.82
4.30
5.85
7.24
8.23
8.69
8.60
8.13
7.57
7.39
8.10
10.18
14.01
19.75
27.27
36.13
45.53
54.44
61.88
67.18
70.22
71.40
71.37
70.58
68.88
65.48
59.24
49.28
35.55
19.03
1.49
-15.11
-29.13
-39.65
-46.41
-49.62
-49.73
-47.47
-43.86
-40.24
-37.98
-37.95
-40.14
-43.48
-46.26
-46.77
-44.04
-38.10
-29.82
-20.52
-11.42
-3.43
2.86
7.13
9.30
9.58
8.55
7.03
5.85
5.54
6.20
7.51
9.04
10.46
11.74
13.05
14.53
16.09
17.27
17.41
15.90
12.46
7.30
1.05
-5.63
-12.27
-18.84
-25.55
-32.58
-39.60
-45.60
-49.00
-48.15
-41.92
-30.19
-13.94
4.99
24.20
41.20
53.55
59.28
57.28
47.77
32.62
15.02
-1.29
-13.17
-19.07
-19.26
-15.39
-9.55
-3.40
2.20
6.90
10.48
12.47
12.23
9.41
4.32
-1.97
-7.95
-12.33
-14.50
-14.76
-13.99
-13.16
-12.81
-12.84
-12.63
-11.48
-9.03
-5.52
-1.74
1.25
2.54
1.77
-0.80
-4.36
-7.90
-10.58
-11.94
-11.91
-10.72
-8.58
-5.67
-2.14
1.68
5.21
7.65
8.32
6.92
3.77
-0.30
-4.25
-7.31
-9.23
-10.42
-11.58
-13.40
-16.12
-19.47
-22.72
-25.01
-25.61
-24.08
-20.38
-14.81
-8.05
-1.16
4.55
7.75
7.57
3.97
-2.00
-8.60
-13.96
-16.87
-17.22
-15.88
-14.17
-13.18
-13.27
-14.19
-15.28
-16.00
-16.05
-15.40
-14.01
-11.70
-8.27
-3.64
1.94
7.80
13.11
17.13
19.56
20.66
21.17
22.00
23.93
27.29
31.83
36.81
41.19
43.92
44.15
41.53
36.22
28.90
20.52
11.95
3.73
-4.00
-11.35
-18.31
-24.57
-29.49
-32.40
-33.02
-31.64
-29.10
-26.41
-24.34
-23.13
-22.53
-22.08
-21.37
-20.35
-19.26
-18.53
-18.55
-19.46
-21.07
-22.86
-24.08
-23.90
-21.61
-16.84
-9.74
-1.00
8.24
16.74
23.47
27.88
30.08
30.67
30.52
30.45
31.01
32.34
34.27
36.53
38.87
41.20
43.45
45.51
47.03
47.45
46.21
42.95
37.73
30.96
23.22
14.98
6.37
-2.74
-12.45
-22.51
-32.16
-40.26
-45.63
-47.60
-46.25
-42.38
-37.20
-31.88
-27.24
-23.62
-21.04
-19.42
-18.66
-18.60
-18.94
-19.12
-18.49
-16.44
-12.68
-7.36
-0.96
5.86
12.46
18.30
23.02
26.24
27.65
27.00
24.19
19.41
13.14
5.99
-1.47
-8.93
-16.34
-23.83
-31.41
-38.76
-45.10
-49.40
-50.69
-48.39
-42.65
-34.32
-24.75
-15.58
-8.35
-4.19
-3.59
-6.25
-11.12
-16.70
-21.57
-24.74
-26.01
-25.84
-25.02
-24.24
-23.78
-23.46
-22.78
-21.19
-18.28
-13.88
-8.07
-1.15
6.32
13.52
19.55
23.53
24.94
23.78
20.62
16.43
12.27
8.96
6.84
5.76
5.23
4.68
3.65
1.98
-0.25
-2.76
-5.17
-7.16
-8.51
-9.26
-9.60
-9.88
-10.45
-11.55
-13.21
-15.23
-17.33
-19.20
-20.59
-21.43
-21.81
-22.00
-22.33
-23.15
-24.67
-26.91
-29.62
-32.32
-34.35
-35.03
-33.80
-30.45
-25.15
-18.45
-11.14
-4.00
2.35
7.66
12.02
15.83
19.53
23.43
27.48
31.16
33.59
33.81
31.20
25.84
18.64
11.10
4.80
0.86
-0.36
0.75
3.33
6.45
9.36
11.54
12.76
12.95
12.27
11.04
9.69
8.66
8.24
8.47
9.13
9.86
10.25
9.96
8.82
6.82
4.12
0.97
-2.34
-5.57
-8.54
-11.10
-13.14
-14.57
-15.36
-15.59
-15.48
-15.26
-15.13
-15.10
-15.10
-15.04
-14.91
-14.85
-15.09
-15.80
-17.02
-18.59
-20.23
-21.58
-22.34
-22.24
-21.11
-18.95
-15.93
-12.34
-8.57
-4.94
-1.56
1.64
4.86
8.33
12.16
16.29
20.43
24.15
26.89
28.11
27.45
24.87
20.77
15.87
11.06
7.14
4.60
3.57
3.89
5.25
7.30
9.71
12.11
14.04
15.02
14.64
12.79
9.73
6.16
2.97
0.94
0.51
1.65
3.89
6.59
9.06
10.79
11.45
10.94
9.34
6.92
4.08
1.27
-1.12
-2.89
-4.05
-4.83
-5.51
-6.27
-7.13
-7.98
-8.68
-9.21
-9.71
-10.42
-11.53
-13.03
-14.66
-16.01
-16.78
-17.00
-17.00
-17.19
-17.76
-18.36
-18.14
-16.06
-11.23
-3.31
7.43
20.21
33.86
46.92
57.67
64.36
65.59
60.91
51.32
39.16
27.49
19.07
15.32
15.94
19.27
23.06
25.43
25.37
22.89
18.68
13.78
9.20
5.71
3.69
3.00
2.99
2.54
0.44
-4.21
-11.64
-21.16
-31.34
-40.34
-46.50
-48.77
-47.02
-42.01
-35.20
-28.31
-22.93
-20.13
-20.17
-22.46
-25.80
-28.76
-30.27
-29.94
-28.13
-25.66
-23.34
-21.52
-20.11
-18.78
-17.30
-15.76
-14.49
-13.74
-13.49
-13.39
-12.98
-11.98
-10.47
-8.92
-7.86
-7.65
-8.21
-9.08
-9.57
-9.03
-7.06
-3.60
1.02
6.10
10.69
13.74
14.45
12.63
8.82
4.20
0.11
-2.44
-3.23
-2.82
-2.15
-2.00
-2.63
-3.63
-4.31
-4.04
-2.57
-0.06
3.14
6.57
9.86
12.63
14.45
14.87
13.60
10.66
6.50
1.94
-2.04
-4.56
-5.11
-3.63
-0.50
3.59
7.78
11.18
13.05
12.98
10.97
7.52
3.49
-0.18
-2.73
-3.82
-3.60
-2.56
-1.29
-0.20
0.61
1.24
1.90
2.61
3.19
3.32
2.70
1.18
-1.13
-3.99
-7.10
-10.19
-13.06
-15.46
-17.14
-17.79
-17.25
-15.49
-12.71
-9.18
-5.14
-0.75
3.82
8.33
12.41
15.63
17.73
18.75
19.04
19.09
19.28
19.71
20.22
20.54
20.57
20.43
20.49
21.13
22.55
24.59
26.78
28.46
28.93
27.65
24.33
18.99
12.00
4.04
-3.97
-11.03
-16.28
-19.28
-20.08
-19.28
-17.78
-16.48
-16.05
-16.67
-18.07
-19.65
-20.69
-20.66
-19.34
-16.98
-14.16
-11.65
-10.09
-9.84
-10.78
-12.44
-14.20
-15.55
-16.24
-16.36
-16.15
-15.86
-15.59
-15.31
-14.94
-14.47
-14.05
-13.91
-14.21
-14.94
-15.79
-16.30
-15.97
-14.48
-11.81
-8.31
-4.64
-1.56
0.24
0.44
-0.77
-2.76
-4.65
-5.62
-5.20
-3.49
-1.01
1.49
3.35
4.26
4.35
4.12
4.22
5.30
7.76
11.71
17.00
23.29
30.17
37.14
43.61
48.94
52.46
53.59
52.11
48.19
42.41
35.65
28.82
22.61
17.34
13.00
9.37
6.26
3.56
1.29
-0.57
-2.22
-3.97
-6.24
-9.29
-13.11
-17.43
-21.76
-25.63
-28.77
-31.12
-32.82
-34.09
-35.09
-35.96
-36.78
-37.65
-38.75
-40.23
-42.15
-44.36
-46.37
-47.46
-46.87
-44.03
-38.77
-31.33
-22.29
-12.35
-2.25
7.33
15.73
22.32
26.63
28.53
28.31
26.67
24.43
22.20
20.13
17.94
15.31
12.23
9.26
7.36
7.51
10.20
15.25
21.93
29.24
36.25
42.10
45.90
46.74
43.75
36.66
26.05
13.47
0.97
-9.56
-17.07
-21.55
-23.82
-25.00
-25.99
-27.18
-28.50
-29.54
-29.86
-29.10
-27.08
-23.87
-19.74
-15.14
-10.57
-6.50
-3.25
-0.92
0.50
1.15
1.19
0.77
0.06
-0.80
-1.64
-2.27
-2.53
-2.28
-1.56
-0.55
0.48
1.29
1.81
2.17
2.67
3.66
5.42
8.14
11.88
16.54
21.87
27.40
32.44
36.21
38.02
37.57
34.99
30.81
25.61
19.75
13.18
5.45
-3.88
-14.82
-26.55
-37.47
-45.53
-49.02
-47.17
-40.45
-30.44
-19.16
-8.49
0.36
6.87
11.02
12.96
12.94
11.29
8.55
5.48
2.91
1.44
1.35
2.49
4.44
6.67
8.71
10.18
10.89
10.81
10.08
8.97
7.73
6.45
5.06
3.30
0.95
-2.03
-5.42
-8.77
-11.56
-13.40
-14.17
-14.06
-13.46
-12.86
-12.67
-13.07
-14.01
-15.19
-16.17
-16.51
-15.90
-14.23
-11.59
-8.15
-4.06
0.71
6.35
13.17
21.50
31.43
42.72
54.57
65.70
74.51
79.48
79.56
74.49
64.81
51.70
36.63
20.94
5.73
-8.11
-19.75
-28.35
-33.22
-34.01
-31.00
-25.05
-17.46
-9.62
-2.72
2.31
4.75
4.05
-0.12
-7.62
-17.63
-28.56
-38.44
-45.46
-48.56
-47.73
-43.82
-38.11
-31.76
-25.53
-19.75
-14.51
-9.90
-6.05
-3.13
-1.18
-0.10
0.28
0.08
-0.62
-1.79
-3.33
-4.97
-6.33
-7.02
-6.85
-5.92
-4.55
-3.19
-2.14
-1.48
-0.94
-0.07
1.53
3.97
6.97
9.94
12.26
13.59
14.09
14.56
16.12
19.91
26.68
36.33
47.62
58.09
64.45
63.53
53.54
35.11
11.49
-12.31
-31.24
-41.88
-43.55
-38.06
-28.69
-18.71
-10.48
-5.14
-2.95
-3.72
-7.09
-12.44
-18.83
-25.06
-30.02
-33.00
-33.94
-33.24
-31.56
-29.47
-27.32
-25.21
-23.16
-21.11
-18.94
-16.50
-13.62
-10.30
-6.75
-3.37
-0.67
1.07
1.87
2.17
2.51
3.36
4.87
6.87
8.94
10.62
11.50
11.32
9.96
7.51
4.24
0.68
-2.46
-4.46
-4.81
-3.44
-0.81
2.27
4.97
6.69
7.33
7.13
6.53
5.86
5.27
4.77
4.34
4.06
4.00
4.19
4.47
4.53
4.06
2.83
0.86
-1.64
-4.30
-6.83
-8.98
-10.68
-11.96
-12.95
-13.83
-14.76
-15.86
-17.12
-18.37
-19.37
-19.86
-19.74
-19.12
-18.28
-17.56
-17.22
-17.33
-17.83
-18.56
-19.33
-19.92
-20.11
-19.58
-18.04
-15.32
-11.42
-6.59
-1.21
4.31
9.66
14.67
19.27
23.42
27.01
29.91
31.93
33.01
33.14
32.45
31.06
29.03
26.39
23.17
19.57
15.95
12.79
10.45
9.02
8.24
7.60
6.59
4.95
2.81
0.67
-0.82
-1.15
-0.19
1.66
3.53
4.31
3.02
-0.90
-7.35
-15.57
-24.24
-31.70
-36.37
-37.08
-33.41
-25.92
-15.89
-5.02
5.14
13.64
20.23
25.20
28.96
31.77
33.63
34.43
34.12
32.84
30.91
28.75
26.74
25.21
24.42
24.55
25.74
28.04
31.48
36.08
41.83
48.52
55.75
62.85
69.05
73.56
75.68
74.72
69.91
60.42
45.77
26.29
3.53
-19.85
-40.77
-56.67
-66.29
-69.89
-68.83
-64.86
-59.44
-53.54
-47.79
-42.70
-38.77
-36.37
-35.47
-35.59
-35.96
-35.88
-35.07
-33.73
-32.35
-31.34
-30.74
-30.12
-28.83
-26.33
-22.60
-18.14
-13.78
-10.22
-7.65
-5.57
-3.02
1.12
7.76
17.42
30.06
44.94
60.33
73.48
81.11
80.33
69.89
50.91
26.69
1.48
-21.09
-39.12
-52.42
-61.65
-67.15
-68.45
-64.62
-55.21
-40.98
-23.93
-6.55
9.10
21.97
31.86
38.80
42.47
42.09
36.86
26.64
12.41
-3.74
-19.26
-31.84
-40.15
-44.06
-44.42
-42.60
-39.92
-37.27
-34.96
-32.88
-30.70
-28.09
-24.95
-21.45
-18.05
-15.28
-13.56
-12.98
-13.31
-14.04
-14.68
-14.92
-14.86
-14.86
-15.34
-16.51
-18.13
-19.54
-19.85
-18.31
-14.60
-8.98
-2.18
4.85
11.33
16.88
21.66
26.19
31.12
37.00
44.13
52.47
61.59
70.52
77.68
81.08
78.91
70.28
55.88
37.93
19.46
3.21
-9.38
-18.38
-24.81
-29.72
-33.39
-35.36
-34.93
-31.91
-26.90
-21.01
-15.25
-10.01
-5.11
-0.16
4.86
9.32
12.10
12.12
8.88
2.80
-4.75
-11.96
-17.08
-19.03
-17.72
-13.99
-9.25
-4.95
-2.07
-0.85
-0.89
-1.48
-1.99
-2.16
-2.08
-2.06
-2.33
-2.90
-3.52
-3.79
-3.44
-2.43
-1.02
0.38
1.40
1.96
2.35
3.10
4.76
7.59
11.37
15.37
18.67
20.51
20.74
20.01
19.62
21.11
25.75
34.09
45.85
59.79
73.90
85.58
92.15
91.46
82.65
66.65
46.07
24.39
4.77
-10.96
-22.73
-31.76
-39.53
-46.88
-53.60
-58.78
-61.42
-61.10
-58.09
-53.14
-47.02
-40.24
-33.10
-26.00
-19.66
-15.08
-13.13
-14.02
-17.01
-20.52
-22.72
-22.25
-18.70
-12.67
-5.47
1.44
6.75
9.50
9.19
5.83
0.03
-7.02
-13.89
-19.40
-23.04
-25.08
-26.26
-27.21
-27.99
-28.06
-26.66
-23.42
-18.68
-13.48
-9.04
-6.24
-5.24
-5.48
-6.06
-6.12
-5.20
-3.38
-1.11
0.99
2.44
3.11
3.31
3.69
5.07
8.27
13.86
22.02
32.26
43.32
53.11
59.11
59.13
52.24
39.41
23.42
8.11
-2.96
-7.68
-5.97
0.48
9.02
16.95
22.20
23.60
20.88
14.52
5.66
-4.14
-13.28
-20.50
-25.30
-27.90
-29.01
-29.42
-29.64
-29.79
-29.67
-29.04
-27.74
-25.74
-23.03
-19.64
-15.57
-10.96
-6.11
-1.42
2.66
5.89
8.29
10.06
11.46
12.58
13.28
13.27
12.27
10.17
7.11
3.46
-0.37
-3.98
-7.14
-9.83
-12.19
-14.48
-17.04
-20.11
-23.74
-27.71
-31.52
-34.55
-36.28
-36.36
-34.79
-31.80
-27.81
-23.30
-18.75
-14.60
-11.26
-8.92
-7.56
-6.85
-6.24
-5.16
-3.22
-0.41
2.97
6.37
9.23
11.21
12.28
12.68
12.85
13.22
14.05
15.37
16.91
18.22
18.79
18.18
16.18
12.91
8.86
4.78
1.56
-0.02
0.49
3.12
7.49
13.01
19.02
24.93
30.25
34.62
37.83
39.88
40.95
41.32
41.24
40.74
39.71
37.97
35.56
32.74
29.98
27.66
25.83
24.16
22.11
19.23
15.40
10.92
6.40
2.42
-0.61
-2.62
-3.91
-4.99
-6.43
-8.75
-12.36
-17.47
-24.01
-31.46
-38.81
-44.61
-47.45
-46.40
-41.57
-34.15
-26.07
-19.29
-14.96
-13.11
-12.70
-12.22
-10.46
-7.03
-2.42
2.41
6.51
9.47
11.47
13.13
15.07
17.61
20.62
23.67
26.21
27.83
28.26
27.34
24.86
20.61
14.46
6.58
-2.43
-11.53
-19.44
-24.95
-27.23
-26.12
-22.17
-16.45
-10.23
-4.55
-0.05
3.14
5.15
6.21
6.44
5.88
4.57
2.65
0.39
-1.93
-4.06
-5.87
-7.17
-7.67
-6.97
-4.71
-0.81
4.37
10.08
15.44
19.75
22.70
24.34
24.90
24.55
23.25
20.86
17.16
12.09
5.83
-1.15
-8.16
-14.37
-19.04
-21.66
-22.03
-20.33
-17.01
-12.78
-8.49
-5.15
-3.69
-4.73
-8.27
-13.59
-19.35
-24.05
-26.56
-26.53
-24.45
-21.32
-18.24
-16.00
-14.88
-14.74
-15.21
-15.76
-15.83
-14.88
-12.44
-8.36
-2.90
3.22
8.99
13.41
15.84
16.17
14.82
12.48
9.95
7.89
6.73
6.64
7.48
8.89
10.29
11.12
11.08
10.22
8.93
7.76
7.15
7.23
7.78
8.42
8.78
8.66
8.12
7.27
6.28
5.21
4.06
2.83
1.52
0.20
-1.09
-2.40
-3.84
-5.54
-7.54
-9.67
-11.49
-12.34
-11.44
-8.12
-2.03
6.69
17.31
28.54
38.72
46.15
49.45
47.95
41.92
32.55
21.60
10.84
1.46
-6.28
-12.87
-18.99
-24.91
-30.04
-33.20
-33.21
-29.56
-22.81
-14.34
-5.84
1.27
6.14
8.41
7.97
4.89
-0.51
-7.44
-14.65
-20.62
-24.09
-24.50
-22.14
-18.05
-13.52
-9.68
-7.19
-6.17
-6.40
-7.45
-8.83
-10.00
-10.46
-9.80
-7.81
-4.68
-0.96
2.60
5.32
6.86
7.33
7.22
7.13
7.52
8.56
10.17
12.10
14.09
15.92
17.47
18.76
19.90
21.13
22.74
24.96
27.87
31.37
35.26
39.42
43.88
48.90
54.86
62.12
70.83
80.69
90.79
99.44
104.30
102.78
92.79
73.41
45.35
10.98
-26.10
-61.79
-92.19
-114.28
-126.41
-128.49
-121.98
-109.53
-94.25
-78.96
-65.53
-54.66
-46.10
-39.13
-33.06
-27.54
-22.50
-18.06
-14.37
-11.54
-9.64
-8.73
-8.70
-9.32
-10.10
-10.42
-9.74
-7.85
-5.06
-2.12
0.02
0.65
-0.42
-2.71
-5.34
-7.38
-8.28
-8.06
-7.17
-6.33
-6.06
-6.53
-7.54
-8.74
-9.88
-10.92
-12.01
-13.20
-14.27
-14.67
-13.76
-11.12
-6.87
-1.66
3.55
7.91
11.03
13.05
14.44
15.71
17.23
19.13
21.44
24.14
27.18
30.33
33.14
34.97
35.19
33.54
30.31
26.33
22.64
20.13
19.12
19.34
20.08
20.59
20.47
19.89
19.41
19.78
21.56
24.90
29.59
35.15
41.04
46.75
51.90
56.20
59.47
61.65
62.86
63.34
63.25
62.52
60.70
56.96
50.26
39.63
24.66
5.78
-15.47
-36.65
-54.96
-68.00
-74.57
-75.02
-71.16
-65.46
-60.14
-56.40
-54.20
-52.66
-50.72
-47.82
-44.12
-40.32
-37.24
-35.34
-34.70
-35.05
-36.06
-37.58
-39.61
-42.26
-45.48
-49.03
-52.41
-54.96
-56.09
-55.46
-53.11
-49.47
-45.20
-40.87
-36.68
-32.41
-27.51
-21.53
-14.39
-6.58
1.07
7.72
12.93
16.78
19.69
22.15
24.39
26.25
27.34
27.19
25.53
22.34
17.86
12.55
6.92
1.42
-3.60
-8.02
-11.87
-15.37
-18.71
-21.93
-24.78
-26.74
-27.35
-26.40
-24.16
-21.37
-18.95
-17.65
-17.55
-17.97
-17.64
-15.43
-10.67
-3.50
5.08
13.60
20.72
25.91
29.75
33.78
39.40
47.71
58.98
72.39
86.41
99.20
109.22
115.45
117.45
114.33
105.94
93.14
77.90
62.62
48.89
36.51
23.33
6.72
-15.50
-41.97
-67.91
-87.24
-95.92
-94.33
-87.22
-81.50
-75.71
-67.91
-55.00
-34.93
-8.39
21.18
49.18
72.22
89.15
101.84
112.32
122.48
132.98
143.17
151.92
158.60
163.75
167.52
171.98
178.00
185.75
194.66
203.68
211.82
218.63
224.49
229.59
234.68
239.68
244.09
246.87
246.62
241.55
229.31
213.26
194.82
175.43
155.90
136.81
118.49
101.20
85.19
70.81
58.59
48.19
39.44
31.90
24.99
18.11
10.69
2.30
-7.29
-18.03
-30.31
-44.23
-59.74
-76.64
-94.60
-113.15
-131.72
-149.61
-166.01
-180.54
-192.72
-202.16
-208.57
-211.78
-211.77
-208.61
-202.51
-193.68
-182.65
-169.90
-155.91
-141.14
-125.95
-110.62
-95.30
-80.03
-64.73
-49.44
-34.23
-19.26
-4.85
8.61
20.72
31.17
39.78
46.51
51.47
54.77
56.51
56.75
55.56
53.09
49.65
45.73
41.93
38.75
36.49
35.04
33.97
32.53
29.94
25.60
19.16
10.60
0.15
-11.90
-25.37
-40.22
-56.76
-75.56
-97.28
-122.20
-149.71
-177.95
-203.81
-223.57
-233.90
-232.88
-220.75
-199.92
-174.37
-148.46
-125.93
-109.07
-98.56
-93.71
-92.86
-94.07
-95.52
-95.98
-94.97
-92.74
-90.06
-87.78
-86.55
-86.56
-87.52
-88.91
-90.24
-91.24
-91.76
-91.67
-90.77
-88.82
-85.68
-81.50
-76.79
-72.23
-68.63
-66.68
-66.86
-69.30
-73.60
-78.59
-82.31
-82.29
-76.20
-62.72
-42.15
-16.52
10.93
36.71
58.04
73.46
82.81
86.87
86.77
83.55
78.01
70.76
62.39
53.54
44.84
36.76
29.42
22.61
15.87
8.84
1.49
-5.74
-12.06
-16.69
-19.33
-20.38
-20.97
-22.47
-25.99
-31.81
-39.30
-47.18
-54.13
-59.36
-62.88
-65.43
-68.07
-71.80
-77.22
-84.46
-93.00
-101.62
-108.30
-110.48
-105.71
-92.46
-70.92
-43.22
-12.96
15.87
40.00
57.68
68.74
74.19
75.46
73.82
70.19
65.12
58.99
52.20
45.12
37.97
30.78
23.36
15.50
7.27
-0.88
-8.14
-13.64
-16.83
-17.79
-17.21
-16.24
-16.03
-17.33
-20.28
-24.38
-28.79
-32.65
-35.43
-37.12
-38.27
-39.73
-42.49
-47.40
-54.71
-63.81
-72.93
-79.29
-79.77
-71.89
-54.79
-29.72
0.22
31.08
59.23
82.23
99.12
110.11
116.01
117.74
116.19
112.14
106.33
99.45
91.97
84.08
75.78
66.96
57.65
48.12
38.99
31.16
25.50
22.41
21.64
22.09
22.19
20.42
15.99
9.07
0.76
-7.47
-14.37
-19.44
-23.09
-26.45
-31.01
-38.08
-48.35
-61.43
-75.65
-88.18
-95.51
-94.50
-83.35
-62.36
-34.00
-2.18
28.88
55.77
76.59
90.87
99.21
102.66
102.34
99.26
94.22
87.99
81.15
74.10
66.96
59.57
51.58
42.69
32.90
22.68
12.97
4.86
-0.80
-3.81
-4.83
-5.21
-6.44
-9.66
-15.15
-22.35
-30.12
-37.38
-43.43
-48.34
-52.73
-57.59
-63.96
-72.58
-83.56
-96.11
-108.28
-117.10
-119.21
-111.86
-94.00
-66.92
-34.01
0.29
31.79
57.68
76.89
89.78
97.44
101.06
101.58
99.67
95.86
90.61
84.30
77.22
69.49
61.09
51.99
42.24
32.10
22.05
12.74
4.86
-1.14
-5.14
-7.48
-8.90
-10.33
-12.70
-16.61
-22.20
-29.11
-36.54
-43.55
-49.44
-54.06
-57.96
-62.15
-67.90
-76.11
-86.99
-99.58
-111.74
-120.35
-122.06
-114.29
-96.10
-68.74
-35.35
-0.11
33.01
61.17
83.01
98.46
108.17
112.99
113.71
111.13
106.12
99.62
92.46
85.13
77.63
69.66
60.80
50.88
40.19
29.39
19.47
11.30
5.46
1.87
-0.21
-1.99
-4.72
-9.26
-15.71
-23.40
-31.15
-37.86
-42.93
-46.49
-49.36
-52.76
-57.95
-65.89
-76.79
-89.78
-102.75
-112.42
-115.16
-108.06
-90.03
-62.40
-28.62
6.77
39.49
66.61
86.93
100.72
108.97
112.76
112.97
110.22
105.20
98.73
91.54
84.10
76.34
67.71
57.54
45.65
32.55
19.51
8.06
-0.65
-6.37
-9.80
-12.37
-15.60
-20.63
-27.72
-36.38
-45.50
-53.87
-60.72
-65.94
-70.21
-74.68
-80.67
-89.13
-100.21
-112.91
-124.94
-133.06
-133.80
-124.60
-104.77
-75.96
-41.82
-6.89
24.77
50.52
69.54
82.36
90.15
94.09
95.08
93.68
90.34
85.49
79.53
72.76
65.28
56.97
47.69
37.51
26.91
16.82
8.42
2.63
-0.25
-0.85
-0.54
-0.97
-3.40
-8.23
-15.00
-22.59
-29.78
-35.75
-40.40
-44.34
-48.64
-54.51
-62.79
-73.45
-85.26
-95.75
-101.71
-100.04
-88.78
-67.94
-39.61
-7.41
24.63
53.18
76.28
93.32
104.62
110.96
113.13
111.91
108.10
102.62
96.25
89.52
82.55
75.15
67.08
58.29
49.22
40.59
33.24
27.74
24.12
21.85
19.99
17.53
13.66
8.09
1.03
-6.94
-15.04
-22.62
-29.35
-35.48
-41.79
-49.43
-59.48
-72.32
-87.00
-101.06
-110.86
-112.65
-103.82
-83.98
-55.23
-21.58
12.40
42.93
67.81
86.57
99.75
108.21
112.61
113.39
111.07
106.45
100.58
94.33
88.05
81.42
73.74
64.42
53.52
41.82
30.68
21.47
15.10
11.61
10.16
9.30
7.40
3.21
-3.71
-12.91
-23.23
-33.33
-42.15
-49.35
-55.36
-61.24
-68.32
-77.82
-90.36
-105.40
-120.92
-133.47
-138.98
-133.91
-116.66
-88.30
-52.37
-13.83
22.54
53.29
76.92
93.60
104.42
110.67
113.36
113.15
110.51
105.95
100.01
93.24
86.02
78.35
69.93
60.38
49.64
38.19
27.02
17.41
10.34
6.06
3.94
2.67
0.66
-3.35
-9.94
-18.87
-29.18
-39.65
-49.11
-56.96
-63.22
-68.60
-74.25
-81.50
-91.39
-104.30
-119.45
-134.69
-146.62
-151.36
-145.68
-128.18
-99.94
-64.32
-26.03
10.34
41.35
65.38
82.37
93.26
99.31
101.72
101.41
98.98
94.89
89.38
82.57
74.60
65.64
56.01
46.15
36.54
27.68
20.03
13.88
9.30
6.10
3.86
2.00
-0.10
-3.02
-7.21
-12.94
-20.24
-28.77
-37.92
-46.83
-54.71
-61.15
-66.23
-70.58
-75.12
-80.89
-88.68
-98.86
-110.93
-123.21
-132.84
-136.26
-130.23
-113.06
-85.52
-50.72
-13.31
22.09
52.11
75.24
91.61
102.20
108.15
110.32
109.31
105.76
100.38
93.98
87.24
80.60
74.11
67.60
60.90
54.02
47.26
41.03
35.79
31.79
29.06
27.30
26.04
24.65
22.46
18.90
13.66
6.87
-0.92
-8.95
-16.50
-23.27
-29.37
-35.30
-41.68
-49.19
-58.34
-69.46
-82.33
-95.77
-107.45
-114.14
-112.55
-100.59
-78.24
-47.91
-13.71
19.83
49.10
72.10
88.53
99.20
105.31
107.92
107.79
105.40
101.19
95.63
89.21
82.40
75.51
68.68
61.93
55.24
48.69
42.51
37.06
32.71
29.64
27.73
26.44
24.93
22.23
17.64
10.88
2.23
-7.54
-17.50
-26.81
-35.01
-42.11
-48.49
-54.76
-61.65
-69.94
-80.32
-93.10
-107.76
-122.46
-134.11
-138.96
-133.75
-117.03
-89.87
-55.69
-19.17
15.18
44.24
66.70
82.78
93.54
100.20
103.75
104.95
104.33
102.29
99.06
94.74
89.30
82.69
75.03
66.64
58.08
50.04
43.12
37.69
33.72
30.77
28.16
25.21
21.45
16.82
11.47
5.71
-0.33
-6.73
-13.72
-21.45
-29.82
-38.45
-46.80
-54.52
-61.67
-68.78
-76.79
-86.67
-99.00
-113.57
-128.88
-142.19
-149.91
-148.56
-135.95
-112.10
-79.40
-42.06
-4.72
28.76
56.16
76.88
91.47
100.85
105.96
107.65
106.77
104.23
100.79
96.89
92.50
87.26
80.71
72.73
63.69
54.50
46.33
40.11
36.26
34.38
33.43
32.12
29.39
24.85
18.84
12.20
5.82
0.16
-5.02
-10.45
-17.04
-25.33
-35.14
-45.73
-55.95
-64.91
-72.27
-78.42
-84.31
-91.10
-99.87
-111.28
-125.25
-140.48
-154.35
-163.12
-162.86
-150.79
-126.49
-92.40
-53.16
-14.12
20.27
47.51
67.19
80.24
88.10
92.01
92.88
91.48
88.56
84.78
80.58
76.00
70.75
64.49
57.12
48.98
40.81
33.46
27.55
23.35
20.64
18.90
17.44
15.65
13.14
9.70
5.40
0.40
-5.07
-10.89
-17.07
-23.69
-30.76
-38.16
-45.61
-52.85
-59.68
-66.18
-72.59
-79.39
-87.20
-96.66
-108.06
-120.91
-133.47
-142.81
-145.52
-138.84
-121.81
-95.70
-63.54
-29.11
4.20
34.04
59.16
79.05
93.61
103.04
107.79
108.65
106.59
102.49
96.98
90.43
83.06
75.19
67.23
59.69
53.03
47.51
43.14
39.76
37.09
34.74
32.43
29.93
27.07
23.70
19.57
14.41
8.03
0.46
-8.05
-17.02
-25.92
-34.29
-41.94
-48.94
-55.68
-62.73
-70.92
-80.99
-93.28
-107.33
-121.40
-132.58
-137.35
-132.64
-116.91
-90.92
-57.63
-21.35
13.52
43.66
67.44
84.76
96.56
104.05
108.24
109.83
109.19
106.62
102.39
96.85
90.42
83.52
76.51
69.69
63.35
57.71
52.95
49.18
46.34
44.22
42.51
40.75
38.46
35.12
30.28
23.66
15.35
5.74
-4.43
-14.31
-23.32
-31.25
-38.41
-45.52
-53.51
-63.33
-75.64
-90.47
-106.71
-122.04
-133.11
-136.23
-128.68
-109.60
-80.58
-45.30
-8.43
25.67
54.07
75.59
90.63
100.41
106.34
109.56
110.82
110.56
108.99
106.16
102.01
96.48
89.61
81.70
73.32
65.23
58.14
52.48
48.28
45.19
42.65
40.01
36.75
32.47
27.06
20.56
13.16
5.05
-3.65
-12.87
-22.53
-32.46
-42.34
-51.85
-60.81
-69.32
-77.82
-87.06
-98.00
-111.31
-126.92
-143.47
-158.05
-166.69
-165.47
-151.88
-125.98
-90.55
-50.30
-10.33
25.31
54.40
76.55
92.52
103.42
110.18
113.47
113.87
112.12
109.06
105.40
101.52
97.27
92.16
85.70
77.79
69.01
60.46
53.40
48.65
46.20
45.16
44.15
41.83
37.42
30.89
22.95
14.57
6.64
-0.44
-6.84
-13.25
-20.52
-29.36
-39.94
-51.91
-64.33
-76.10
-86.31
-94.67
-101.62
-108.25
-116.00
-126.23
-139.72
-156.17
-173.82
-189.31
-198.33
-196.67
-181.66
-153.36
-114.73
-70.91
-27.51
10.92
41.99
65.34
81.94
93.15
100.09
103.57
104.28
102.97
100.46
97.31
93.70
89.31
83.57
76.11
66.99
57.00
47.40
39.55
34.37
32.05
31.92
32.71
33.04
31.82
28.55
23.43
17.18
10.71
4.79
-0.25
-4.68
-9.25
-14.84
-22.06
-30.93
-40.80
-50.63
-59.37
-66.44
-71.96
-76.79
-82.31
-89.96
-100.70
-114.45
-129.71
-143.48
-151.88
-151.17
-138.91
-114.96
-81.54
-42.75
-3.38
32.34
61.54
83.10
97.32
105.42
108.93
109.25
107.49
104.43
100.57
96.17
91.34
86.04
80.23
73.98
67.66
61.89
57.41
54.75
53.92
54.37
55.03
54.82
52.96
49.28
44.12
38.09
31.70
25.16
18.34
10.94
2.76
-6.10
-15.30
-24.34
-32.84
-40.69
-48.16
-55.90
-64.86
-76.06
-90.25
-107.19
-125.22
-141.06
-150.43
-149.29
-135.27
-108.81
-73.15
-33.44
5.04
38.29
64.42
83.41
96.34
104.43
108.61
109.59
108.10
105.10
101.63
98.32
95.18
91.50
86.37
79.22
70.38
60.99
52.64
46.61
43.34
42.23
41.96
40.97
38.13
33.07
26.22
18.48
10.70
3.32
-3.86
-11.52
-20.37
-30.76
-42.41
-54.52
-66.05
-76.23
-84.94
-92.74
-100.74
-110.30
-122.54
-137.91
-155.77
-174.01
-189.19
-197.12
-194.02
-177.80
-148.98
-110.75
-68.13
-26.38
10.39
40.02
62.26
78.04
88.66
95.19
98.47
99.19
98.05
95.66
92.33
88.00
82.31
74.99
66.19
56.60
47.34
39.58
34.16
31.28
30.50
30.84
31.17
30.47
28.18
24.26
19.19
13.72
8.46
3.55
-1.43
-7.24
-14.67
-23.97
-34.65
-45.66
-55.78
-64.21
-70.90
-76.61
-82.65
-90.48
-101.17
-114.95
-130.79
-146.21
-157.50
-160.58
-152.21
-131.21
-99.14
-59.98
-18.94
19.11
50.89
75.17
92.35
103.66
110.45
113.79
114.44
113.03
110.12
106.10
101.12
95.13
87.98
79.82
71.17
62.96
56.26
51.83
49.81
49.65
50.25
50.42
49.23
46.36
42.08
37.00
31.69
26.36
20.79
14.46
6.92
-1.91
-11.58
-21.36
-30.52
-38.69
-46.03
-53.15
-61.11
-71.09
-84.08
-100.36
-118.91
-137.00
-150.44
-154.61
-146.02
-123.79
-90.12
-49.71
-8.21
29.47
60.34
83.50
99.52
109.64
115.11
117.00
116.25
113.74
110.19
106.10
101.54
96.19
89.60
81.55
72.33
62.78
54.16
47.63
43.80
42.44
42.51
42.50
40.97
37.10
30.86
23.00
14.64
6.70
-0.45
-7.17
-14.34
-22.85
-33.14
-44.90
-57.22
-68.97
-79.26
-87.86
-95.26
-102.57
-111.18
-122.43
-136.93
-154.08
-171.56
-185.44
-191.07
-184.52
-163.99
-130.73
-88.79
-43.69
-0.87
35.82
64.62
85.57
99.70
108.31
112.54
113.37
111.75
108.63
104.75
100.44
95.46
89.18
81.03
70.92
59.56
48.34
38.80
32.07
28.49
27.38
27.48
27.31
25.67
22.00
16.43
9.66
2.66
-3.76
-9.29
-14.27
-19.54
-26.08
-34.54
-44.87
-56.33
-67.69
-77.81
-86.04
-92.47
-97.88
-103.47
-110.58
-120.38
-133.38
-149.03
-165.13
-177.99
-183.04
-176.24
-155.62
-122.24
-80.14
-34.99
7.60
43.74
71.78
91.97
105.52
113.80
117.91
118.79
117.36
114.59
111.19
107.36
102.74
96.70
88.76
79.08
68.57
58.66
50.85
46.08
44.44
45.06
46.48
47.09
45.75
42.06
36.46
29.98
23.74
18.40
13.88
9.39
3.87
-3.47
-12.65
-22.95
-33.16
-42.30
-49.99
-56.71
-63.60
-72.09
-83.36
-97.80
-114.55
-131.18
-143.96
-148.56
-141.43
-121.10
-88.90
-48.75
-5.96
34.28
68.28
94.33
112.44
123.64
129.26
130.57
128.72
124.77
119.68
114.17
108.52
102.59
95.91
88.07
79.06
69.46
60.34
52.83
47.73
45.08
44.15
43.64
42.17
38.76
33.08
25.56
17.11
8.77
1.24
-5.46
-11.92
-19.14
-28.01
-38.84
-51.18
-63.96
-75.97
-86.37
-95.10
-102.92
-111.21
-121.58
-135.35
-152.81
-172.65
-191.63
-205.04
-207.94
-196.75
-170.73
-132.45
-87.10
-40.80
1.21
35.73
61.88
80.36
92.54
99.79
103.26
104.02
103.13
101.55
99.78
97.61
94.23
88.64
80.25
69.33
57.17
45.68
36.73
31.49
30.03
31.30
33.53
34.88
33.96
30.29
24.25
16.92
9.54
3.02
-2.41
-7.27
-12.56
-19.22
-27.69
-37.67
-48.19
-58.11
-66.57
-73.48
-79.48
-85.85
-93.96
-104.93
-119.01
-135.24
-151.12
-162.83
-166.06
-157.28
-135.11
-101.07
-59.28
-15.24
25.89
60.57
87.31
106.36
118.75
125.73
128.33
127.55
124.39
119.77
114.41
108.50
101.90
94.27
85.54
76.14
67.02
59.35
54.08
51.53
51.20
51.92
52.25
51.06
47.86
42.89
36.84
30.42
23.98
17.33
9.99
1.39
-8.67
-19.90
-31.57
-42.77
-52.81
-61.46
-69.20
-77.09
-86.59
-99.05
-115.01
-133.64
-152.25
-166.65
-172.07
-164.72
-143.23
-109.31
-67.35
-23.08
18.17
52.74
79.14
97.64
109.52
116.31
119.42
120.01
119.01
117.09
114.55
111.32
107.04
101.30
93.83
84.84
75.02
65.49
57.43
51.78
48.78
47.85
47.77
47.02
44.32
39.07
31.45
22.31
12.72
3.59
-4.78
-12.69
-21.02
-30.58
-41.82
-54.44
-67.52
-79.88
-90.65
-99.71
-107.80
-116.28
-126.68
-140.19
-157.06
-176.13
-194.68
-208.65
-213.57
-205.76
-183.75
-148.94
-105.45
-58.84
-14.54
23.57
53.75
76.01
91.39
101.15
106.45
108.40
108.15
106.82
105.17
103.33
100.75
96.55
90.05
81.29
71.16
61.15
52.83
47.27
44.71
44.53
45.50
46.20
45.50
42.88
38.50
33.06
27.37
22.04
17.14
12.25
6.65
-0.33
-9.02
-19.17
-30.02
-40.57
-49.96
-57.83
-64.53
-71.09
-78.89
-89.28
-102.95
-119.33
-136.25
-150.00
-156.10
-150.64
-131.80
-100.69
-61.22
-18.94
20.84
54.45
80.48
99.31
112.11
119.97
123.61
123.58
120.66
115.95
110.58
105.29
100.09
94.47
87.84
80.03
71.60
63.76
57.82
54.61
54.09
55.24
56.46
56.14
53.31
47.96
40.94
33.49
26.56
20.41
14.50
7.74
-0.83
-11.55
-23.94
-36.86
-49.01
-59.50
-68.24
-75.85
-83.62
-93.07
-105.54
-121.74
-141.09
-161.32
-178.45
-187.58
-184.33
-166.45
-134.82
-93.40
-47.98
-4.34
33.32
63.13
85.20
100.76
111.14
117.32
119.97
119.71
117.36
113.83
109.77
105.35
100.22
93.70
85.42
75.59
65.18
55.61
48.23
43.80
42.19
42.47
43.16
42.72
40.00
34.50
26.51
16.97
7.19
-1.72
-9.24
-15.69
-22.11
-29.70
-39.36
-51.12
-64.16
-77.07
-88.54
-97.85
-105.24
-111.75
-118.92
-128.31
-141.00
-157.11
-175.23
-192.27
-203.75
-204.89
-192.15
-164.73
-125.11
-78.43
-30.94
12.01
47.14
73.53
91.97
103.93
110.98
114.48
115.70
115.68
115.16
114.24
112.47
109.14
103.75
96.37
87.64
78.67
70.61
64.40
60.62
59.35
60.17
62.14
64.09
64.84
63.70
60.68
56.42
51.78
47.39
43.41
39.49
35.13
29.90
23.78
17.17
10.69
4.85
-0.14
-4.41
-8.31
-12.28
-16.93
-23.01
-31.19
-41.80
-54.20
-66.37
-74.96
-76.12
-67.06
-47.65
-20.51
9.85
38.55
61.71
77.40
85.67
87.85
85.98
81.48
75.83
70.44
66.18
62.83
58.68
50.70
35.14
9.05
-29.44
-77.96
-129.60
-174.73
-204.78
-215.72
-209.60
-193.37
-174.75
-160.04
-150.28
-142.06
-130.98
-115.28
-97.08
-81.02
-71.72
-59.41
-36.51
-1.00
42.34
86.33
124.78
153.77
171.53
176.99
172.80
163.06
152.75
145.14
140.55
137.23
132.94
125.64
111.23
89.51
63.13
36.59
12.29
-10.90
-37.48
-67.77
-103.77
-152.14
-215.77
-292.15
-373.71
-451.17
-515.39
-558.67
-576.21
-537.58
-440.85
-314.18
-195.71
-107.40
-50.68
-16.66
4.24
17.52
26.09
25.70
15.28
-0.61
-14.57
-21.32
-19.36
-11.40
-0.60
10.43
16.57
16.43
13.28
12.26
16.66
26.51
39.68
53.63
66.23
73.72
74.83
71.18
65.72
60.32
54.99
48.60
39.96
28.33
12.37
-7.91
-30.97
-54.61
-77.18
-97.94
-116.82
-133.81
-148.77
-161.82
-172.68
-180.56
-184.57
-184.13
-179.16
-170.01
-157.25
-141.65
-124.17
-105.94
-88.18
-72.14
-59.02
-49.85
-45.37
-45.94
-51.53
-61.66
-75.43
-91.58
-108.63
-124.95
-138.95
-149.18
-154.48
-154.06
-147.55
-135.00
-116.90
-94.04
-67.53
-38.61
-8.65
20.98
49.02
74.29
95.86
112.99
125.19
132.27
134.29
131.58
124.74
114.56
101.96
87.95
73.48
59.44
46.48
35.07
25.45
17.62
11.45
6.70
3.09
0.33
-1.79
-3.45
-4.73
-5.66
-6.18
-6.22
-5.65
-4.39
-2.37
0.36
3.69
7.44
11.41
15.39
19.29
23.09
26.88
30.75
34.77
38.90
43.02
46.96
50.57
53.83
56.87
59.94
63.30
67.10
71.30
75.69
79.99
83.99
87.72
91.47
95.74
101.01
107.59
115.46
124.32
133.75
143.39
153.13
163.12
173.73
185.46
198.89
214.55
232.72
253.03
274.11
293.66
308.87
317.30
317.71
310.50
297.45
280.95
263.08
245.08
227.37
210.04
193.30
177.71
163.90
152.24
142.52
134.07
126.06
117.98
109.73
101.70
94.39
88.07
82.61
77.51
72.14
66.06
59.20
51.90
44.67
37.96
31.93
26.46
21.26
16.72
13.21
10.70
8.70
6.52
3.76
0.53
-2.51
-4.38
-3.48
1.26
9.86
21.20
33.60
45.41
55.33
62.37
65.80
66.70
66.01
63.94
59.94
53.46
44.69
34.49
23.86
13.56
8.27
11.15
22.13
37.77
53.75
67.32
77.85
85.93
92.46
107.16
136.93
181.97
235.27
287.50
332.29
367.55
393.99
413.38
441.87
491.38
563.19
647.06
728.83
798.80
853.90
895.41
926.47
968.94
1039.06
1138.84
1254.66
1367.26
1462.82
1536.11
1587.91
1504.38
1224.79
767.32
228.06
-283.06
-699.70
-1005.64
-1213.64
-1346.26
-1425.75
-1451.87
-1424.79
-1353.71
-1259.05
-1163.51
-1082.20
-1020.49
-977.38
-949.17
-917.42
-868.18
-798.58
-717.99
-640.20
-574.95
-525.50
-490.77
-467.72
-444.18
-410.86
-365.67
-314.28
-265.24
-224.58
-194.25
-173.89
-161.36
-150.10
-134.98
-114.47
-90.90
-68.07
-48.62
-33.24
-21.77
-13.33
-5.43
3.87
15.15
27.55
39.70
50.68
60.43
68.68
75.72
81.95
87.78
93.61
99.80
106.64
114.40
123.42
132.98
142.64
151.90
160.25
167.01
171.27
171.66
165.92
158.09
148.99
139.09
128.71
118.14
107.66
97.57
88.22
80.02
73.48
68.10
63.66
60.00
56.92
54.25
51.76
49.32
46.85
44.50
41.73
38.40
34.54
30.29
25.83
21.38
17.16
13.37
10.25
7.52
5.00
2.52
-0.10
-3.07
-6.53
-10.63
-15.35
-20.59
-26.35
-32.52
-38.90
-45.28
-51.46
-57.26
-62.49
-66.94
-70.38
-72.60
-73.44
-72.76
-70.59
-67.10
-62.62
-57.52
-52.15
-46.77
-41.54
-36.52
-31.82
-27.70
-24.52
-22.77
-22.85
-24.92
-28.84
-34.13
-40.23
-46.67
-53.32
-60.43
-68.49
-77.97
-89.06
-101.52
-114.75
-128.14
-141.29
-154.27
-167.57
-181.81
-197.51
-215.08
-234.78
-256.75
-280.75
-305.75
-329.59
-349.27
-361.61
-364.43
-357.37
-342.01
-321.23
-298.08
-275.01
-253.56
-234.61
-218.89
-206.98
-198.93
-193.54
-188.00
-178.28
-160.38
-131.90
-93.19
-47.53
-0.26
42.96
77.84
102.43
117.16
123.89
124.86
121.88
116.05
108.12
98.77
88.80
78.95
69.70
61.12
52.92
44.83
36.82
29.33
23.13
18.95
17.18
17.50
18.91
19.99
19.46
16.56
11.45
4.99
-1.60
-7.31
-11.72
-15.22
-18.82
-23.82
-31.41
-41.97
-54.50
-66.38
-73.71
-72.42
-59.75
-35.54
-2.62
33.94
68.49
96.48
115.51
125.41
127.51
123.66
115.52
104.45
91.64
78.25
65.37
53.72
43.30
33.46
23.22
11.84
-0.63
-13.15
-23.96
-31.28
-34.09
-32.63
-28.49
-23.98
-21.34
-21.91
-25.76
-31.82
-38.47
-44.19
-48.12
-50.34
-51.66
-53.40
-57.01
-63.56
-73.30
-84.97
-95.75
-101.45
-97.84
-82.10
-54.18
-17.21
23.41
61.69
92.93
114.77
127.27
131.91
130.59
124.81
115.58
103.78
90.49
77.01
64.53
53.68
44.25
35.33
25.87
15.26
3.88
-6.97
-15.59
-20.64
-21.75
-19.79
-16.55
-14.10
-14.06
-17.07
-22.75
-29.97
-37.30
-43.64
-48.51
-52.14
-55.24
-58.85
-63.98
-71.40
-81.28
-92.73
-103.46
-109.90
-108.03
-94.79
-69.40
-34.16
6.10
45.38
78.46
102.25
116.26
121.95
121.56
117.15
109.93
100.53
89.27
76.63
63.35
50.34
38.32
27.61
18.09
9.28
0.77
-7.52
-15.14
-21.28
-25.05
-25.99
-24.41
-21.35
-18.43
-17.25
-18.85
-23.31
-29.76
-36.77
-42.94
-47.50
-50.46
-52.52
-54.66
-57.86
-62.86
-70.15
-79.70
-90.60
-100.68
-106.44
-103.93
-90.03
-63.96
-28.04
12.75
52.23
85.12
108.42
121.87
127.22
126.91
122.90
116.26
107.36
96.46
84.17
71.45
59.42
48.78
39.69
31.67
24.09
16.66
9.71
4.16
1.03
0.88
3.33
6.98
9.95
10.42
7.44
1.18
-7.13
-15.83
-23.37
-29.00
-32.90
-36.05
-39.79
-45.47
-54.01
-65.64
-79.60
-93.79
-104.88
-108.82
-102.01
-82.64
-51.75
-13.27
27.10
63.66
92.43
111.92
122.87
127.16
126.61
122.41
115.09
105.11
93.17
80.33
67.72
56.14
45.87
36.63
27.93
19.42
11.15
3.73
-1.99
-5.19
-5.69
-4.19
-2.16
-1.46
-3.62
-9.32
-18.11
-28.65
-39.27
-48.58
-55.97
-61.71
-66.75
-72.41
-79.96
-90.33
-103.66
-118.81
-133.11
-142.54
-142.72
-130.42
-104.93
-68.72
-26.83
14.68
50.61
77.98
96.21
106.43
110.40
109.71
105.55
98.95
90.95
82.66
74.91
67.96
61.54
54.91
47.49
39.03
29.92
21.00
13.42
8.20
5.94
6.56
9.18
12.29
14.10
13.17
8.93
1.95
-6.24
-13.79
-19.27
-22.29
-23.60
-24.84
-27.88
-34.39
-45.36
-60.68
-78.78
-96.49
-109.39
-112.86
-103.67
-81.35
-48.60
-10.59
26.93
59.31
84.13
101.07
110.98
114.96
113.83
108.33
99.54
88.96
78.24
68.61
60.41
53.13
45.84
37.92
29.43
21.25
14.67
10.78
9.86
11.18
13.19
14.05
12.35
7.48
-0.18
-9.51
-19.12
-27.81
-34.88
-40.36
-44.93
-49.81
-56.47
-66.14
-79.14
-94.27
-108.56
-117.81
-117.85
-106.00
-82.32
-49.69
-12.97
22.59
52.98
76.21
92.19
101.90
106.43
106.60
102.93
96.08
87.08
77.19
67.66
59.19
51.77
44.83
37.57
29.63
21.32
13.61
7.71
4.51
3.97
5.02
5.85
4.55
-0.18
-8.41
-19.09
-30.42
-40.61
-48.58
-54.26
-58.55
-62.96
-69.09
-78.20
-90.63
-105.47
-120.33
-131.56
-135.03
-127.23
-106.53
-73.95
-33.12
10.61
51.57
85.18
108.89
122.29
126.69
124.26
117.38
108.13
98.05
88.17
78.96
70.49
62.48
54.48
46.05
37.01
27.64
18.68
11.03
5.45
2.14
0.53
-0.58
-2.67
-6.94
-13.92
-23.18
-33.56
-43.50
-51.72
-57.58
-61.48
-64.79
-69.50
-77.48
-89.54
-104.55
-119.23
-128.76
-128.24
-114.49
-87.38
-50.10
-8.03
32.95
68.28
95.66
114.89
127.03
133.40
135.02
132.66
127.17
119.67
111.43
103.34
95.58
87.50
78.11
66.73
53.66
40.27
28.63
20.57
16.97
17.33
19.96
22.64
23.38
21.02
15.46
7.37
-2.20
-12.26
-22.18
-31.78
-41.27
-51.12
-62.02
-74.51
-88.45
-102.44
-113.53
-117.63
-110.85
-91.09
-59.25
-19.40
22.38
60.02
89.22
108.37
118.32
121.23
119.39
114.48
107.49
99.03
89.74
80.35
71.51
63.53
56.24
49.21
41.90
34.13
26.24
19.05
13.54
10.52
10.20
12.01
14.60
16.18
15.05
10.11
1.24
-10.64
-23.93
-36.90
-48.22
-57.36
-64.55
-70.60
-76.57
-83.55
-92.37
-103.01
-114.29
-123.67
-127.56
-122.42
-106.02
-78.56
-42.87
-3.62
34.09
66.22
90.58
106.93
116.18
119.59
118.18
112.61
103.40
91.22
77.06
62.14
47.63
34.37
22.80
12.91
4.56
-2.29
-7.42
-10.46
-11.21
-9.92
-7.58
-5.54
-5.18
-7.28
-11.70
-17.42
-22.91
-26.88
-28.75
-28.98
-28.79
-29.74
-32.96
-38.66
-46.00
-53.43
-59.42
-63.18
-64.99
-66.12
-68.27
-72.96
-80.93
-91.73
-103.47
-112.93
-116.05
-108.98
-89.40
-57.71
-17.28
26.27
66.73
99.15
120.99
132.37
135.08
131.53
123.73
112.98
100.09
85.78
71.02
56.93
44.60
34.68
27.19
21.58
17.12
13.24
9.91
7.58
6.77
7.73
9.96
12.33
13.42
12.04
7.67
0.77
-7.48
-15.59
-22.29
-27.16
-30.71
-34.15
-38.76
-45.23
-53.26
-61.73
-69.21
-74.62
-77.71
-79.17
-80.32
-82.71
-87.63
-95.75
-106.72
-118.80
-128.76
-132.49
-125.98
-106.81
-75.31
-34.85
9.02
50.24
83.97
107.75
121.54
126.94
126.08
120.82
112.42
101.79
89.72
76.99
64.39
52.44
41.42
31.47
22.84
15.90
11.16
8.86
8.79
10.17
11.85
12.65
11.81
9.12
4.94
-0.10
-5.42
-10.70
-15.97
-21.45
-27.37
-33.76
-40.43
-47.00
-53.10
-58.43
-62.92
-66.83
-70.83
-75.82
-82.73
-91.92
-102.56
-112.23
-117.19
-113.34
-97.69
-69.77
-32.18
9.96
50.58
84.50
108.75
122.90
128.49
127.81
122.96
115.30
105.59
94.40
82.34
70.16
58.63
48.20
39.01
30.86
23.47
16.77
11.02
6.79
4.70
4.92
6.96
9.51
10.86
9.58
5.15
-1.77
-9.58
-16.44
-21.17
-23.75
-25.29
-27.51
-31.83
-38.66
-47.31
-56.27
-63.98
-69.57
-73.12
-75.63
-78.59
-83.51
-91.52
-102.98
-117.03
-131.30
-141.97
-144.39
-134.52
-110.49
-73.69
-28.76
17.71
59.19
91.07
111.60
121.67
123.68
120.32
113.71
105.13
95.34
84.81
74.03
63.47
53.57
44.47
36.15
28.43
21.24
14.79
9.51
6.02
4.75
5.72
8.38
11.62
14.08
14.50
12.17
7.21
0.51
-6.51
-12.48
-16.60
-18.98
-20.61
-22.84
-26.80
-32.85
-40.36
-48.02
-54.53
-59.08
-61.69
-63.11
-64.49
-67.01
-71.65
-79.07
-89.23
-100.95
-111.57
-117.17
-113.47
-97.41
-68.55
-29.68
13.82
55.71
90.70
115.90
130.93
137.27
137.13
132.44
124.58
114.36
102.47
89.64
76.73
64.50
53.46
43.75
35.19
27.58
20.88
15.32
11.42
9.58
9.90
11.94
14.72
16.92
17.30
15.07
10.07
2.99
-4.99
-12.53
-18.63
-22.99
-26.11
-29.09
-33.15
-39.04
-46.73
-55.37
-63.65
-70.35
-74.92
-77.74
-79.98
-83.20
-88.86
-97.83
-110.03
-124.09
-137.20
-145.36
-144.26
-130.55
-103.33
-64.82
-20.04
24.64
63.50
92.99
112.24
122.48
125.91
124.58
119.93
112.85
103.98
94.07
83.81
73.77
64.15
54.92
45.91
37.13
28.90
21.76
16.34
12.99
11.72
12.14
13.53
15.06
15.91
15.52
13.58
10.16
5.64
0.57
-4.47
-9.04
-12.98
-16.43
-19.72
-23.37
-27.85
-33.44
-40.08
-47.22
-54.02
-59.57
-63.30
-65.24
-66.08
-67.03
-69.58
-75.09
-84.26
-96.57
-109.87
-120.28
-123.04
-113.90
-90.80
-55.06
-11.27
34.03
74.42
105.50
125.76
136.25
139.39
137.68
132.82
125.73
116.90
106.86
96.34
86.11
76.59
67.77
59.32
50.99
42.93
35.79
30.47
27.60
27.22
28.61
30.56
31.76
31.16
28.28
23.22
16.53
9.01
1.46
-5.51
-11.59
-16.78
-21.35
-25.82
-30.75
-36.67
-43.85
-52.20
-61.15
-69.80
-77.21
-82.79
-86.54
-89.23
-92.17
-96.93
-104.81
-116.20
-130.02
-143.36
-151.91
-150.96
-137.03
-109.30
-70.26
-25.09
19.93
59.31
89.67
110.16
121.75
126.31
125.69
121.47
114.92
107.19
99.24
91.68
84.51
77.27
69.21
59.86
49.41
38.78
29.33
22.31
18.37
17.31
18.20
19.75
20.82
20.74
19.41
17.11
14.18
10.82
6.99
2.56
-2.50
-8.03
-13.56
-18.61
-22.83
-26.22
-29.22
-32.48
-36.67
-42.10
-48.54
-55.27
-61.37
-66.10
-69.18
-70.95
-72.21
-74.09
-77.76
-84.18
-93.61
-104.99
-115.63
-121.36
-117.61
-101.05
-71.17
-30.89
14.09
57.20
93.10
119.13
135.36
143.74
146.60
145.72
141.99
135.70
127.16
116.92
105.82
94.67
83.91
73.59
63.47
53.37
43.52
34.56
27.37
22.60
20.34
19.97
20.35
20.25
18.81
15.72
11.20
5.83
0.14
-5.48
-10.89
-16.09
-21.06
-25.76
-30.17
-34.38
-38.79
-43.97
-50.49
-58.55
-67.82
-77.46
-86.43
-93.99
-99.95
-104.88
-109.91
-116.26
-124.74
-135.20
-145.97
-153.90
-154.86
-144.95
-122.03
-86.87
-43.38
2.48
44.46
77.89
100.72
113.39
117.90
116.61
111.58
104.39
96.42
88.90
82.79
78.39
75.13
71.74
66.83
59.59
50.17
39.60
29.39
20.90
14.89
11.40
9.89
9.55
9.57
9.40
8.70
7.26
4.89
1.40
-3.23
-8.67
-14.28
-19.18
-22.72
-24.82
-26.08
-27.60
-30.47
-35.25
-41.71
-48.94
-55.71
-61.00
-64.40
-66.20
-67.29
-68.94
-72.44
-78.88
-88.58
-100.68
-112.68
-120.68
-120.15
-107.50
-81.46
-43.99
0.05
44.36
83.08
112.47
131.43
141.08
143.75
141.79
137.04
130.65
123.22
115.05
106.26
96.93
87.16
77.15
67.24
57.79
49.21
41.90
36.22
32.52
30.90
31.11
32.42
33.70
33.69
31.41
26.47
19.22
10.60
1.80
-6.15
-12.64
-17.67
-21.79
-25.82
-30.53
-36.45
-43.58
-51.48
-59.43
-66.65
-72.68
-77.45
-81.34
-85.07
-89.56
-95.80
-104.60
-116.22
-129.83
-143.07
-152.07
-152.32
-140.12
-114.16
-76.47
-32.13
12.36
51.04
80.29
99.35
109.71
113.82
113.88
111.25
106.66
100.55
93.49
86.05
78.62
71.14
63.18
54.28
44.42
34.25
24.94
17.71
13.30
11.65
11.97
13.08
13.95
13.93
12.85
10.85
8.15
4.89
1.12
-3.18
-7.94
-12.96
-17.94
-22.50
-26.41
-29.69
-32.69
-35.95
-39.98
-44.99
-50.68
-56.39
-61.27
-64.76
-66.87
-68.26
-70.13
-73.86
-80.48
-90.19
-101.82
-112.62
-118.65
-115.75
-100.93
-73.69
-36.48
5.79
47.20
82.61
108.94
125.56
133.68
135.32
132.49
126.68
118.99
110.33
101.33
92.44
83.69
74.90
65.79
56.37
47.07
38.63
31.90
27.45
25.42
25.48
26.88
28.63
29.69
29.13
26.44
21.57
14.99
7.61
0.36
-5.98
-11.12
-15.33
-19.30
-23.91
-29.89
-37.48
-46.34
-55.55
-63.99
-70.72
-75.42
-78.57
-81.36
-85.34
-91.98
-102.08
-115.37
-130.03
-142.82
-149.52
-146.04
-129.77
-100.65
-61.56
-17.67
25.11
61.73
89.23
107.03
116.28
119.03
117.31
112.77
106.58
99.58
92.30
84.92
77.39
69.41
60.77
51.45
41.81
32.49
24.30
17.94
13.80
11.90
11.78
12.63
13.53
13.72
12.72
10.43
6.95
2.49
-2.70
-8.34
-14.03
-19.32
-23.87
-27.60
-30.84
-34.20
-38.29
-43.47
-49.62
-56.08
-62.03
-66.76
-69.99
-71.98
-73.50
-75.64
-79.61
-86.44
-96.46
-108.76
-120.78
-128.50
-127.41
-114.02
-87.41
-49.91
-6.66
36.01
72.57
99.78
117.15
126.18
129.23
128.37
124.90
119.46
112.50
104.47
95.93
87.33
78.89
70.49
61.94
53.14
44.43
36.52
30.39
26.87
26.31
28.21
31.32
33.85
34.06
30.92
24.44
15.72
6.49
-1.63
-7.71
-11.87
-15.08
-18.65
-23.68
-30.56
-38.98
-48.07
-56.80
-64.36
-70.40
-75.03
-78.84
-82.72
-87.71
-94.89
-105.00
-117.87
-131.87
-143.73
-149.01
-143.41
-124.37
-92.38
-51.19
-6.71
34.87
68.94
93.48
108.91
117.13
120.35
120.29
117.99
114.03
108.89
102.95
96.56
89.81
82.57
74.57
65.66
56.02
46.30
37.47
30.49
25.97
23.83
23.32
23.34
22.77
20.97
17.81
13.56
8.54
2.96
-3.20
-9.98
-17.25
-24.61
-31.53
-37.62
-42.94
-47.99
-53.54
-60.18
-67.92
-76.18
-83.95
-90.34
-94.99
-98.26
-101.14
-104.93
-110.90
-119.73
-131.17
-143.50
-153.50
-156.92
-149.70
-129.50
-96.93
-55.71
-11.62
29.40
62.94
87.15
102.42
110.46
113.26
112.43
109.18
104.52
99.31
94.26
89.53
84.81
79.45
72.84
64.86
55.99
47.24
39.72
34.45
31.89
31.96
33.96
36.77
39.14
39.97
38.63
34.94
29.33
22.60
15.73
9.59
4.63
0.68
-2.98
-7.35
-13.26
-20.90
-29.66
-38.34
-45.67
-51.01
-54.56
-57.46
-61.27
-67.47
-76.93
-89.42
-103.30
-115.54
-122.22
-119.46
-104.83
-78.35
-42.79
-3.02
35.60
68.66
93.73
110.41
119.73
123.21
122.32
118.29
112.22
105.17
97.97
91.02
84.18
76.93
68.78
59.66
50.13
41.15
33.75
28.55
25.61
24.49
24.51
24.91
25.10
24.54
22.76
19.37
14.16
7.35
-0.49
-8.43
-15.63
-21.63
-26.58
-31.27
-36.63
-43.44
-51.83
-61.31
-70.93
-79.69
-86.95
-92.66
-97.32
-101.92
-107.68
-115.70
-126.61
-139.95
-153.80
-164.70
-168.43
-161.23
-141.23
-109.43
-69.56
-27.06
12.65
45.61
70.11
86.51
96.36
101.53
103.50
103.26
101.42
98.40
94.53
90.00
84.85
78.95
72.19
64.65
56.79
49.32
43.10
38.90
37.20
37.91
40.45
43.75
46.43
47.21
45.29
40.64
34.02
26.74
20.05
14.65
10.34
6.11
0.69
-6.82
-16.40
-27.10
-37.36
-45.76
-51.61
-55.21
-57.77
-60.91
-66.23
-74.85
-86.97
-101.54
-115.95
-126.28
-128.15
-118.08
-94.95
-60.74
-20.12
20.91
56.96
84.61
102.92
112.92
116.61
116.00
112.71
107.83
102.12
96.08
89.99
83.74
77.10
69.73
61.47
52.50
43.38
34.95
28.03
23.28
20.94
20.79
22.15
23.88
24.73
23.46
19.34
12.28
3.03
-7.00
-16.33
-23.91
-29.59
-34.18
-39.05
-45.44
-53.89
-63.94
-74.37
-83.71
-90.95
-95.97
-99.50
-102.86
-107.53
-114.71
-125.02
-138.11
-152.38
-164.78
-171.18
-167.36
-150.52
-120.50
-80.34
-35.51
7.81
44.60
72.31
90.95
102.22
108.28
110.89
111.07
109.39
106.38
102.65
98.80
95.00
90.96
86.04
79.70
71.90
63.38
55.39
49.37
46.24
46.07
47.98
50.42
51.67
50.53
46.69
40.78
34.19
28.45
24.58
22.63
21.66
20.15
16.73
10.82
2.98
-5.36
-12.50
-17.31
-19.82
-21.25
-23.67
-29.31
-39.93
-56.22
-77.40
-101.09
-123.47
-139.88
-145.94
-138.76
-118.11
-86.66
-49.50
-12.59
18.92
42.04
56.22
62.94
64.71
63.55
60.14
54.02
44.55
31.88
17.43
3.28
-8.42
-16.08
-19.09
-17.43
-10.94
1.34
20.95
48.85
83.69
121.90
158.74
189.33
209.99
219.16
217.80
208.77
195.55
179.56
162.09
145.12
130.80
120.02
112.21
106.04
100.20
93.65
82.60
65.32
43.72
21.38
0.35
-19.52
-39.13
-58.72
-78.11
-101.95
-132.24
-165.72
-196.37
-220.36
-237.23
-248.40
-256.03
-263.92
-283.75
-323.60
-382.26
-450.59
-517.43
-573.03
-610.12
-625.04
-574.51
-448.45
-280.69
-122.06
-0.97
81.81
137.64
175.29
204.55
228.37
240.29
237.30
224.40
211.04
202.54
197.54
192.45
185.04
174.26
155.54
127.79
95.65
66.48
44.97
31.66
24.73
22.17
21.28
17.06
7.13
-6.72
-20.42
-31.21
-38.61
-43.36
-45.99
-47.74
-50.71
-55.70
-61.41
-65.46
-66.15
-62.93
-56.23
-45.66
-32.04
-16.55
-0.09
17.00
34.65
52.55
70.29
85.01
96.68
104.63
108.83
109.51
106.94
101.46
93.34
83.09
71.14
60.20
48.69
36.05
22.52
8.43
-5.82
-19.93
-33.11
-44.85
-54.78
-63.67
-72.02
-79.67
-86.64
-93.01
-99.08
-103.79
-106.55
-107.56
-108.39
-110.30
-113.17
-116.59
-120.10
-123.44
-123.62
-118.30
-106.77
-89.57
-71.99
-55.53
-40.29
-26.02
-12.80
3.42
25.38
52.69
82.16
110.76
138.26
165.78
194.55
224.83
261.95
309.42
366.51
428.90
492.16
554.70
616.71
679.03
703.97
669.78
580.51
462.10
339.83
224.56
116.64
14.42
-80.45
-163.22
-222.95
-253.64
-258.37
-247.63
-232.65
-219.87
-210.48
-203.06
-196.89
-188.19
-175.80
-161.77
-149.74
-141.92
-137.65
-134.81
-131.98
-130.07
-128.20
-126.56
-126.71
-130.95
-140.81
-155.85
-173.61
-188.27
-195.49
-189.90
-168.99
-135.09
-95.10
-57.50
-28.86
-11.59
-4.00
-2.48
-2.75
-2.65
-2.28
-2.83
-4.84
-7.50
-9.18
-8.62
-6.02
-2.34
1.01
3.01
3.74
4.10
5.39
8.65
14.03
20.71
27.60
33.47
37.59
39.72
39.98
38.71
36.12
32.28
26.68
20.05
13.11
6.89
2.19
-0.50
-1.06
0.24
3.19
7.31
12.54
18.83
26.43
35.44
46.18
59.15
74.41
90.75
105.12
113.13
108.99
91.46
62.79
28.77
-3.15
-26.87
-39.78
-43.14
-40.62
-36.37
-33.13
-32.52
-35.72
-43.59
-56.64
-73.66
-90.82
-102.10
-101.79
-87.00
-60.10
-28.08
0.07
17.02
20.01
11.42
-2.57
-15.04
-20.83
-17.92
-7.22
8.67
26.40
42.64
54.67
61.13
62.28
60.08
57.55
57.90
63.30
73.72
86.62
96.70
99.59
93.42
79.69
62.59
46.89
36.19
31.50
31.33
33.06
34.15
34.12
33.46
32.99
32.55
31.80
30.08
26.88
22.26
16.88
11.42
5.97
0.28
-6.10
-11.96
-14.50
-10.28
3.00
25.30
53.62
82.57
109.79
130.62
142.67
146.60
145.25
141.77
138.13
134.41
128.85
118.70
100.77
73.51
37.24
-5.98
-53.06
-100.34
-144.12
-181.78
-212.55
-238.51
-263.40
-291.89
-327.50
-371.33
-418.79
-459.50
-480.40
-470.74
-426.66
-352.68
-260.70
-166.30
-85.98
-30.18
-0.60
8.40
6.28
3.22
8.17
26.94
60.58
101.73
140.67
169.30
182.91
179.74
160.59
128.09
85.11
33.65
-29.28
-103.77
-183.70
-258.54
-318.21
-356.49
-372.43
-369.79
-329.01
-250.12
-153.84
-66.76
-2.58
39.14
64.65
79.13
85.29
84.55
74.47
55.79
33.64
14.60
2.33
-2.90
-3.27
-1.61
-0.03
-2.64
-10.63
-21.57
-31.54
-38.13
-40.50
-39.41
-35.95
-30.83
-26.09
-21.95
-16.01
-4.00
12.66
33.51
57.74
84.79
114.69
146.78
180.60
215.31
248.66
276.40
293.98
297.47
285.26
258.72
221.30
177.70
132.65
89.97
52.11
21.13
-1.72
-15.85
-21.56
-20.16
-13.84
-5.06
4.15
12.63
20.54
28.51
36.95
45.74
53.98
60.38
63.76
63.73
60.79
56.36
52.02
49.09
48.42
50.29
54.52
60.37
66.60
71.49
73.15
69.97
61.20
47.69
31.63
16.12
4.25
-1.70
-0.90
5.72
15.74
25.76
32.94
35.15
31.39
21.95
8.47
-6.33
-19.38
-28.12
-31.32
-28.03
-18.86
-5.91
7.86
19.93
29.00
34.97
38.45
39.97
41.62
44.81
49.68
55.00
59.21
61.36
61.35
60.03
58.64
61.17
70.93
88.97
113.34
140.64
167.97
193.98
219.42
229.91
217.34
182.67
136.09
89.48
50.20
20.30
-1.37
-16.85
-29.10
-38.53
-45.68
-52.01
-60.21
-72.31
-87.20
-104.34
-121.45
-136.74
-146.87
-149.90
-146.11
-138.52
-130.74
-125.34
-123.69
-126.03
-133.05
-143.28
-154.74
-161.85
-161.60
-153.03
-137.28
-117.54
-92.38
-64.89
-38.66
-15.37
5.99
26.71
46.91
65.28
80.24
90.72
96.39
98.82
99.92
100.15
98.80
94.55
86.65
75.63
62.25
47.36
32.08
17.07
