1660753508.00
64.000000
-0.00
-0.00
-0.00
-0.00
-0.00
-0.00
-0.00
-0.00
-0.00
-0.00
0.00
0.01
0.01
-0.00
-0.03
-0.05
-0.05
0.00
0.13
0.36
0.66
1.01
1.37
1.72
2.06
2.40
2.79
3.24
3.80
4.42
5.06
5.66
6.20
6.68
7.15
7.68
8.31
9.14
10.09
11.04
11.88
12.56
13.14
13.76
14.65
15.96
17.91
20.32
22.90
25.38
27.58
29.57
31.68
34.32
37.81
42.54
48.15
54.10
59.83
64.97
69.58
74.14
79.34
85.71
93.76
103.00
112.62
121.73
129.77
136.75
143.30
150.75
157.77
166.64
177.95
191.79
206.97
220.57
228.25
225.36
208.53
176.87
132.76
80.05
23.07
-34.94
-92.44
-149.16
-205.23
-260.37
-313.74
-363.87
-409.83
-450.91
-486.50
-515.74
-537.23
-549.22
-549.96
-538.37
-514.21
-478.67
-433.88
-382.45
-327.02
-269.84
-212.63
-156.66
-102.95
-52.37
-5.90
35.58
71.43
101.35
125.50
144.38
158.69
169.15
176.37
180.75
182.57
182.07
179.51
175.23
169.65
163.18
156.15
148.81
141.30
133.69
126.02
118.33
110.69
103.16
95.80
88.68
81.83
75.25
68.95
62.95
57.25
51.86
46.78
42.03
37.59
33.45
29.61
26.07
22.81
19.83
17.11
14.67
12.48
10.54
8.83
7.35
6.07
4.97
4.05
3.27
2.62
2.09
1.65
1.30
1.01
0.79
0.61
0.47
0.37
0.29
0.23
0.18
0.16
0.14
0.14
0.14
0.15
0.17
0.20
0.23
0.27
0.31
0.35
0.39
0.44
0.48
0.53
0.58
0.63
0.69
0.75
0.81
0.88
0.95
1.04
1.13
1.23
1.35
1.48
1.62
1.78
1.97
2.17
2.39
2.64
2.91
3.21
3.54
3.91
4.30
4.73
5.20
5.70
6.24
6.82
7.45
8.11
8.83
9.59
10.39
11.24
12.13
13.07
14.07
15.12
16.24
17.42
18.65
19.92
21.19
22.40
23.47
24.30
24.78
24.75
24.15
22.86
20.85
18.12
14.74
10.79
6.47
1.98
-2.49
-6.73
-10.57
-13.88
-16.53
-18.49
-19.73
-20.26
-20.18
-19.59
-18.62
-17.40
-16.06
-14.70
-13.36
-12.05
-10.72
-9.35
-7.95
-6.49
-5.04
-3.63
-2.32
-1.08
0.16
1.59
3.20
4.98
6.89
8.75
10.42
11.79
12.89
13.88
15.06
16.39
17.84
19.27
20.39
20.93
20.72
19.83
18.67
17.93
17.81
18.48
19.88
21.52
22.82
23.22
22.51
20.94
19.26
17.75
16.68
15.97
14.88
11.92
5.08
-7.82
-28.82
-54.25
-80.80
-104.27
-120.56
-126.95
-122.83
-109.51
-89.21
-63.94
-34.95
-3.51
29.47
63.18
97.04
130.79
164.15
196.02
223.79
243.78
252.20
248.05
234.30
217.19
203.79
199.17
204.79
218.85
238.11
259.22
279.86
298.13
311.65
317.52
313.34
298.53
275.17
247.52
220.22
196.74
178.29
163.99
151.83
139.90
127.19
113.62
99.87
86.61
74.11
61.97
49.04
33.60
13.75
-12.13
-45.12
-85.18
-131.32
-181.65
-233.86
-286.03
-337.71
-390.57
-447.78
-512.43
-584.81
-660.63
-730.97
-784.79
-812.22
-807.80
-771.90
-710.32
-632.85
-551.66
-479.71
-428.74
-406.20
-412.23
-438.39
-469.43
-488.31
-482.51
-448.44
-391.85
-324.26
-257.22
-198.06
-148.46
-105.92
-66.44
-26.55
15.80
60.91
106.88
149.63
182.95
199.91
195.35
168.14
122.20
65.76
8.97
-38.77
-70.78
-83.92
-78.28
-56.39
-22.56
17.86
59.16
96.48
126.66
149.19
165.95
180.40
196.51
217.58
245.56
280.82
321.79
364.88
404.39
433.27
444.78
435.03
404.72
359.17
306.19
252.78
202.36
154.16
105.13
52.99
-1.16
-52.58
-94.64
-121.84
-132.13
-127.40
-112.14
-91.06
-67.33
-41.96
-15.01
13.04
40.28
63.68
80.44
89.27
91.00
87.97
82.83
77.47
72.83
69.35
67.38
67.26
69.03
72.09
75.37
78.01
79.89
81.61
83.77
86.16
87.48
85.91
80.19
70.47
58.29
45.93
35.20
26.69
19.61
12.36
3.42
-7.89
-21.14
-34.98
-47.74
-57.94
-64.66
-67.53
-66.71
-62.75
-56.52
-49.20
-42.03
-36.14
-32.15
-29.96
-28.68
-26.90
-23.21
-16.63
-7.11
4.50
16.55
27.21
34.97
39.17
40.09
38.77
36.53
34.48
33.15
32.57
32.48
32.55
32.56
32.40
31.94
30.91
28.91
25.51
20.39
13.67
5.93
-1.82
-8.52
-13.31
-15.78
-15.97
-14.34
-11.60
-8.68
-6.66
-6.53
-8.89
-13.60
-19.54
-24.89
-27.65
-26.41
-20.89
-12.06
-1.66
8.48
17.06
23.56
28.12
31.14
32.97
33.67
32.96
30.43
25.88
19.58
12.26
5.03
-1.01
-5.14
-7.19
-7.48
-6.63
-5.24
-3.76
-2.44
-1.35
-0.51
0.03
0.27
0.32
0.35
0.62
1.40
2.95
5.38
8.52
11.65
13.58
12.94
8.82
1.22
-8.64
-18.70
-26.68
-30.88
-30.63
-26.39
-19.48
-11.52
-3.95
2.20
6.50
9.02
10.25
10.82
11.29
11.88
12.52
12.96
13.00
12.61
11.93
11.06
9.94
8.36
6.04
2.87
-0.95
-4.88
-8.20
-10.25
-10.64
-9.36
-6.84
-3.72
-0.68
1.62
2.73
2.39
0.52
-2.79
-7.34
-12.78
-18.68
-24.61
-30.24
-35.30
-39.48
-42.22
-42.72
-40.18
-34.34
-25.86
-16.32
-7.51
-0.61
4.38
8.40
12.64
17.83
24.06
31.05
38.70
47.18
56.57
66.22
74.60
79.79
80.40
76.28
68.60
59.05
49.00
38.90
28.61
18.02
7.74
-0.89
-6.38
-7.88
-5.77
-1.55
2.58
4.51
2.89
-2.62
-11.35
-21.94
-32.81
-42.38
-49.36
-52.79
-52.11
-47.31
-38.94
-28.14
-16.48
-5.59
3.22
9.30
12.84
14.66
15.95
17.72
20.43
23.83
27.16
29.54
30.33
29.45
27.31
24.62
22.04
19.90
18.18
16.49
14.39
11.50
7.68
3.11
-1.84
-6.73
-11.06
-14.41
-16.44
-17.09
-16.65
-15.86
-15.71
-17.18
-20.78
-26.25
-32.42
-37.56
-39.84
-38.06
-32.08
-22.87
-12.13
-1.73
6.95
13.23
17.10
19.00
19.53
19.21
18.41
17.33
16.12
14.87
13.63
12.47
11.33
10.08
8.55
6.62
4.39
2.15
0.36
-0.60
-0.64
-0.18
-0.04
-1.11
-3.94
-8.42
-13.72
-18.51
-21.41
-21.53
-18.81
-14.12
-9.03
-5.21
-3.95
-5.64
-9.79
-15.20
-20.39
-24.05
-25.40
-24.49
-22.08
-19.34
-17.17
-16.10
-16.28
-17.74
-20.59
-25.14
-31.77
-40.36
-50.01
-58.90
-65.22
-68.14
-68.44
-68.40
-70.91
-78.34
-91.16
-107.71
-123.93
-135.36
-139.15
-135.41
-127.24
-119.00
-114.63
-115.34
-119.44
-121.61
-116.42
-100.40
-72.64
-34.16
12.60
62.48
108.11
139.73
151.37
141.11
112.97
76.64
44.70
28.25
31.47
52.65
84.75
124.81
171.01
221.69
273.95
323.36
365.63
396.26
415.71
426.80
440.48
466.02
506.48
557.56
610.48
656.87
689.51
708.40
673.59
565.77
393.36
190.80
-3.02
-164.74
-275.58
-350.81
-402.76
-438.30
-453.56
-444.62
-414.40
-369.86
-320.16
-272.63
-233.00
-200.19
-171.12
-137.03
-90.97
-30.79
40.03
113.95
182.45
236.42
271.36
285.24
281.95
267.12
246.01
222.32
198.03
174.48
151.76
131.36
114.18
101.99
95.45
93.69
94.55
95.35
94.13
89.52
82.11
72.99
63.79
55.65
48.86
42.93
36.98
30.31
22.44
13.63
4.37
-4.83
-13.51
-21.30
-27.91
-33.18
-37.19
-40.21
-42.70
-45.13
-47.84
-50.74
-53.38
-54.98
-54.83
-52.71
-49.09
-45.15
-42.38
-42.08
-44.82
-50.27
-57.51
-65.62
-74.29
-84.16
-96.71
-113.74
-136.91
-167.29
-205.12
-249.37
-297.29
-344.27
-384.41
-411.96
-423.21
-417.77
-398.62
-370.62
-338.26
-303.92
-267.65
-228.35
-185.64
-140.99
-97.59
-58.99
-27.55
-3.51
14.64
29.17
41.95
53.73
63.77
70.03
69.76
60.37
40.57
11.31
-24.00
-60.26
-92.26
-116.30
-131.11
-137.62
-137.77
-133.31
-125.15
-113.59
-99.04
-82.63
-66.11
-51.23
-38.98
-29.24
-21.08
-13.40
-5.54
2.28
9.14
13.83
15.40
13.37
7.90
-0.39
-10.59
-21.74
-32.88
-43.17
-51.94
-58.54
-62.37
-62.77
-59.22
-51.69
-41.24
-30.30
-22.52
-21.72
-30.50
-49.09
-74.96
-103.65
-130.20
-150.68
-163.00
-167.07
-164.13
-156.16
-145.38
-133.97
-123.87
-116.50
-112.37
-111.00
-111.04
-110.78
-108.84
-104.64
-98.48
-91.29
-84.33
-78.68
-75.01
-73.42
-73.49
-74.26
-74.47
-72.75
-68.00
-59.66
-47.87
-33.44
-17.50
-1.16
14.73
29.62
43.26
55.56
66.41
75.71
83.32
89.08
92.92
94.84
94.88
93.16
89.84
85.15
79.36
72.76
65.49
57.51
48.61
38.61
27.62
16.29
5.89
-2.18
-6.78
-7.74
-6.00
-3.67
-3.55
-8.41
-20.19
-39.16
-63.45
-89.26
-111.82
-126.77
-131.54
-125.88
-111.60
-91.48
-68.21
-43.71
-19.23
4.22
25.52
43.58
57.70
68.08
75.86
82.63
89.79
97.94
106.66
114.79
121.00
124.31
124.35
121.48
116.58
110.82
105.25
100.35
95.62
89.44
79.36
62.97
39.10
8.75
-24.66
-56.01
-80.01
-92.81
-93.26
-83.13
-66.47
-48.28
-33.15
-24.08
-21.88
-25.14
-30.75
-34.81
-33.79
-25.54
-9.93
11.19
34.53
56.49
74.10
85.76
91.27
91.53
88.03
82.52
76.86
72.72
71.29
72.80
76.38
80.15
82.07
80.83
76.53
70.67
65.34
62.13
61.15
60.73
57.82
48.94
31.38
4.24
-30.83
-69.66
-106.27
-134.24
-148.49
-146.79
-130.54
-104.43
-75.10
-49.24
-31.98
-25.81
-30.41
-43.02
-59.32
-74.49
-84.26
-85.78
-78.17
-62.52
-41.52
-18.61
2.95
20.92
34.48
44.23
51.61
58.23
65.17
72.63
79.87
85.70
89.01
89.25
86.72
82.41
77.65
73.55
70.53
67.94
64.10
56.86
44.68
27.78
8.64
-8.40
-18.77
-19.62
-11.37
2.38
16.12
24.72
25.32
18.28
6.76
-4.60
-11.35
-10.60
-1.76
13.47
31.83
49.66
64.02
73.54
78.56
80.59
81.41
82.17
83.08
83.69
83.50
82.42
80.88
79.58
79.03
79.37
80.44
82.11
84.38
87.27
90.39
92.66
92.43
88.41
80.60
70.89
62.42
58.10
59.03
63.75
68.84
70.64
66.93
57.66
44.42
29.19
13.24
-2.96
-19.26
-35.07
-49.22
-60.50
-68.52
-73.96
-78.06
-81.71
-84.72
-85.95
-84.22
-79.22
-71.94
-64.17
-57.43
-52.20
-47.77
-43.03
-37.35
-31.18
-25.77
-22.50
-22.25
-25.37
-32.10
-42.99
-58.64
-78.84
-101.64
-122.90
-137.24
-139.70
-127.77
-102.63
-68.97
-33.45
-2.49
19.78
32.64
38.53
41.73
46.46
55.32
68.43
83.89
98.91
111.15
119.57
124.31
125.99
124.99
121.26
114.75
106.12
97.07
89.98
86.95
88.81
94.70
102.46
109.48
113.62
113.70
109.48
101.28
89.71
75.72
60.78
46.87
36.01
29.54
27.47
28.35
29.79
29.24
24.60
14.62
-1.17
-22.44
-47.91
-75.23
-101.19
-122.36
-136.15
-141.64
-139.74
-132.83
-123.77
-115.03
-108.24
-104.01
-102.05
-101.30
-100.20
-97.20
-91.36
-82.82
-72.84
-63.24
-55.49
-49.92
-45.58
-40.74
-33.93
-24.96
-15.48
-8.75
-8.63
-17.82
-36.15
-59.68
-81.09
-91.72
-84.64
-57.67
-14.83
34.29
77.73
105.25
112.02
100.22
77.92
55.69
42.55
43.00
56.09
76.83
98.91
117.25
129.40
135.33
136.19
133.01
126.27
116.12
103.22
89.25
76.71
68.05
64.63
66.16
70.80
76.21
80.62
83.57
85.66
87.57
88.74
86.76
78.15
60.34
34.00
3.94
-22.18
-37.12
-37.54
-25.74
-8.54
5.99
12.15
8.45
-2.98
-18.67
-35.83
-53.20
-70.21
-85.90
-98.36
-105.64
-106.94
-103.51
-98.33
-94.96
-96.18
-103.19
-115.17
-129.43
-141.96
-148.36
-145.37
-132.34
-112.00
-89.88
-72.16
-63.06
-63.05
-68.85
-75.17
-77.22
-72.54
-61.58
-46.88
-31.82
-19.49
-12.10
-10.47
-13.46
-17.69
-18.14
-9.83
9.63
38.25
69.68
95.59
109.35
109.09
98.45
84.60
74.71
72.84
78.69
88.83
99.07
106.57
110.47
111.39
110.17
107.10
101.91
94.31
84.75
74.79
66.85
63.35
65.69
73.41
83.90
93.19
97.45
94.61
85.49
73.64
63.92
60.32
64.06
72.63
80.38
80.51
67.73
40.74
3.47
-35.98
-68.12
-85.62
-85.91
-71.62
-48.99
-25.13
-5.74
5.97
9.03
3.88
-8.30
-25.89
-46.78
-68.66
-89.41
-107.72
-123.30
-136.74
-148.92
-160.57
-171.91
-182.57
-191.85
-199.08
-204.00
-206.83
-208.04
-207.65
-204.83
-198.01
-185.64
-167.26
-144.04
-118.46
-93.15
-69.57
-47.45
-24.99
-0.04
28.60
60.27
92.23
120.45
140.87
150.98
150.74
142.69
130.93
119.66
111.92
109.04
110.94
116.82
125.69
136.43
147.53
157.08
163.04
164.05
160.01
152.06
141.88
130.67
118.56
104.81
88.67
70.28
51.01
33.05
18.40
7.93
0.91
-4.70
-11.42
-21.17
-34.60
-50.89
-68.13
-84.11
-96.97
-105.71
-110.20
-110.97
-108.72
-104.02
-97.30
-88.94
-79.57
-70.13
-61.83
-55.74
-52.50
-52.11
-53.82
-56.44
-58.71
-59.52
-58.07
-53.85
-46.61
-36.51
-24.37
-11.66
-0.39
7.52
11.05
10.76
8.99
9.39
15.81
30.82
54.74
85.37
118.62
149.81
175.01
191.92
200.09
200.55
195.26
186.43
176.07
165.64
155.81
146.08
134.92
120.07
99.28
71.39
37.30
0.29
-34.50
-61.69
-77.83
-82.97
-80.89
-77.50
-78.17
-85.32
-97.58
-111.02
-121.54
-127.09
-128.33
-127.54
-126.83
-126.73
-126.21
-123.81
-118.88
-112.04
-104.60
-97.67
-91.55
-86.06
-81.43
-78.98
-80.98
-89.34
-104.06
-122.29
-138.62
-146.77
-141.99
-122.77
-91.32
-52.62
-12.53
23.85
53.04
73.36
84.60
87.80
85.26
80.32
76.73
77.64
84.48
96.40
110.57
123.31
131.39
133.06
128.27
118.26
104.86
89.89
74.84
60.78
48.45
38.29
30.38
24.59
20.71
18.71
18.94
22.00
28.25
37.14
46.60
53.07
52.50
42.12
22.21
-3.01
-26.40
-40.45
-40.44
-26.53
-3.65
20.82
40.17
50.64
51.79
45.15
32.25
13.85
-9.42
-35.68
-60.95
-80.17
-89.57
-89.01
-82.88
-78.42
-82.33
-97.47
-121.25
-146.79
-166.19
-174.20
-170.56
-159.71
-148.32
-141.69
-141.25
-144.17
-145.18
-139.38
-124.32
-100.44
-70.19
-36.81
-3.78
25.09
45.87
55.62
54.25
45.71
37.41
37.26
49.86
74.00
103.02
127.98
141.92
142.71
133.23
119.09
105.45
95.10
88.17
83.42
79.80
77.30
76.75
78.85
83.26
88.21
91.11
89.62
82.85
71.94
59.70
49.56
44.16
44.49
49.73
57.90
66.75
74.62
80.67
84.72
86.66
86.11
82.30
74.47
62.60
47.90
32.78
20.23
12.66
10.96
13.96
18.76
21.74
19.69
10.79
-4.98
-25.92
-49.29
-71.98
-91.45
-106.26
-116.36
-122.84
-127.45
-131.83
-136.78
-141.89
-145.70
-146.32
-142.39
-133.89
-122.32
-110.12
-99.41
-90.94
-83.83
-76.18
-66.40
-54.24
-41.02
-28.99
-20.48
-17.46
-21.52
-33.74
-54.07
-80.25
-107.24
-127.92
-135.18
-124.67
-96.76
-56.83
-13.53
24.05
49.26
59.71
57.58
48.31
38.46
33.30
35.12
42.92
53.43
63.15
70.04
74.14
76.80
79.15
81.05
81.17
78.09
71.63
63.48
56.59
53.74
56.14
62.85
71.29
78.65
83.28
85.28
86.17
87.65
90.21
92.43
91.63
85.56
74.17
60.38
49.05
44.59
48.66
59.12
70.99
78.73
78.54
69.34
52.33
29.83
4.27
-21.88
-45.83
-64.48
-75.23
-77.28
-72.55
-65.27
-60.26
-60.85
-67.59
-78.32
-89.57
-98.23
-102.81
-103.58
-101.82
-98.80
-95.11
-90.67
-85.11
-78.36
-70.97
-64.08
-59.25
-58.09
-62.10
-72.23
-88.25
-108.22
-128.47
-144.32
-151.52
-147.91
-134.31
-114.39
-93.22
-75.27
-62.66
-54.39
-46.93
-35.86
-17.87
7.82
39.01
71.48
100.58
123.06
138.02
146.87
152.17
156.16
159.75
162.41
162.96
160.67
156.03
150.84
147.40
147.36
150.91
156.63
162.28
165.93
166.65
164.32
158.69
148.44
131.38
105.91
73.08
37.56
6.63
-12.73
-17.25
-9.17
4.56
15.45
17.04
7.18
-12.11
-36.56
-61.93
-85.29
-104.89
-119.36
-127.29
-127.83
-121.68
-111.82
-102.78
-98.89
-102.20
-111.35
-122.11
-129.49
-130.19
-124.19
-114.55
-105.62
-100.84
-100.99
-104.10
-106.64
-105.65
-100.57
-94.04
-91.16
-97.36
-115.73
-144.74
-177.95
-205.67
-218.31
-210.01
-181.09
-137.93
-90.49
-48.30
-16.80
4.41
20.62
38.95
64.65
98.46
136.44
171.96
199.00
214.87
220.82
220.64
217.97
214.18
208.09
197.62
182.02
163.34
145.91
134.24
130.58
133.79
139.87
144.23
144.04
139.32
132.48
126.55
123.24
121.88
119.79
113.65
101.31
82.91
60.94
39.35
21.99
11.30
7.42
8.09
9.30
6.48
-3.97
-23.41
-50.20
-79.99
-106.97
-125.78
-133.34
-129.82
-118.51
-104.44
-92.53
-85.88
-85.20
-89.19
-95.69
-102.81
-109.67
-116.37
-123.43
-131.11
-138.98
-145.83
-150.07
-150.43
-146.55
-139.48
-131.91
-127.79
-131.30
-145.21
-169.09
-198.42
-225.21
-240.36
-236.68
-211.70
-168.62
-115.23
-61.21
-14.80
19.76
43.05
59.35
74.35
92.50
115.29
141.01
166.07
186.97
201.88
211.15
216.39
218.98
218.96
215.10
205.98
191.45
173.53
156.13
143.68
139.23
143.09
152.54
162.91
169.32
168.19
157.83
138.05
109.52
73.53
32.65
-8.49
-43.26
-64.75
-68.79
-56.42
-34.22
-11.83
1.91
2.30
-10.35
-32.26
-58.94
-87.03
-114.53
-139.82
-160.84
-175.20
-181.46
-180.11
-173.75
-165.91
-159.34
-154.84
-151.13
-145.78
-136.47
-122.18
-103.71
-83.61
-65.40
-52.29
-45.81
-45.00
-46.59
-46.44
-41.47
-31.37
-19.19
-10.35
-10.60
-23.41
-48.13
-79.43
-108.53
-125.86
-124.04
-100.50
-58.57
-6.69
44.19
84.08
107.10
113.11
107.16
97.16
90.64
92.19
102.47
119.02
138.04
156.05
170.63
180.20
183.41
179.21
167.56
150.35
131.59
116.34
108.97
111.34
122.04
137.00
151.20
160.53
163.08
159.45
151.96
143.31
135.16
127.09
116.56
100.01
74.64
40.40
0.83
-37.62
-67.97
-85.61
-90.16
-85.64
-78.58
-75.34
-79.69
-91.92
-109.40
-128.27
-145.09
-157.94
-166.56
-171.95
-175.62
-178.84
-182.08
-184.87
-186.00
-184.08
-178.37
-169.16
-157.57
-144.90
-131.90
-118.50
-104.22
-88.83
-72.96
-58.02
-45.76
-37.38
-33.17
-32.69
-35.19
-39.99
-46.27
-52.78
-57.70
-58.99
-55.32
-46.82
-34.98
-21.90
-9.02
3.59
17.11
33.05
52.09
73.47
95.04
114.11
128.54
137.39
141.21
141.54
140.33
139.15
138.85
139.50
140.74
142.14
143.36
144.03
143.45
140.56
134.05
123.15
108.26
90.97
73.76
58.95
48.09
41.51
38.38
36.68
33.33
24.69
7.42
-20.10
-56.40
-96.47
-132.64
-156.78
-162.85
-148.66
-115.74
-67.86
-9.20
56.45
125.12
191.41
248.10
287.50
304.04
296.76
269.94
231.65
190.51
152.33
118.57
86.83
53.24
14.56
-30.29
-79.75
-130.37
-177.95
-219.43
-254.38
-285.51
-317.51
-354.41
-396.68
-439.74
-475.34
-494.53
-492.18
-469.33
-432.26
-389.02
-345.59
-304.36
-264.91
-226.97
-191.05
-159.70
-135.71
-119.83
-109.04
-97.43
-79.40
-51.92
-16.85
22.76
62.36
97.82
126.91
149.99
169.62
188.20
208.41
231.09
259.27
294.30
335.01
377.99
419.13
455.80
486.40
513.32
540.10
575.61
626.72
694.49
772.59
849.15
911.50
948.73
958.58
911.62
796.23
623.25
423.75
232.93
73.00
-39.78
-118.18
-173.42
-212.04
-233.58
-238.32
-231.63
-221.18
-214.54
-215.89
-226.60
-242.65
-258.91
-269.22
-270.14
-264.35
-257.53
-255.30
-260.62
-273.82
-291.10
-306.87
-316.91
-318.95
-316.52
-315.20
-320.30
-335.41
-361.45
-396.18
-434.64
-474.74
-493.76
-476.74
-420.91
-337.74
-246.65
-163.48
-110.05
-80.86
-68.39
-65.35
-69.99
-83.71
-100.97
-121.17
-144.68
-172.44
-202.70
-236.32
-269.20
-294.38
-301.26
-279.61
-225.47
-142.23
-41.54
72.50
181.91
268.03
319.78
340.22
341.82
336.10
329.67
322.86
315.06
302.90
285.85
264.03
238.32
209.52
177.23
144.28
115.21
95.86
85.81
83.96
81.63
67.95
37.80
-4.44
-45.49
-79.09
-99.33
-106.94
-106.31
-103.29
-102.13
-99.21
-94.18
-87.95
-82.76
-79.72
-79.93
-82.68
-86.01
-86.75
-82.01
-71.59
-57.14
-41.93
-28.56
-19.25
-14.68
-14.15
-15.53
-16.17
-14.73
-10.79
-5.21
1.13
7.16
12.27
16.42
20.30
24.83
30.17
35.97
41.47
46.17
49.99
53.40
57.24
62.36
69.33
77.94
87.55
97.12
105.29
110.21
109.64
101.40
84.24
58.70
27.37
-5.55
-35.55
-59.34
-75.82
-86.27
-93.63
-101.29
-111.94
-126.61
-144.36
-162.43
-177.18
-185.16
-184.44
-175.21
-159.71
-141.33
-123.32
-107.97
-96.35
-88.63
-84.58
-83.78
-85.52
-88.60
-91.47
-92.66
-91.40
-87.88
-83.02
-77.85
-72.82
-67.53
-60.91
-51.98
-40.46
-27.25
-14.30
-4.06
1.38
0.93
-5.17
-15.44
-27.49
-38.32
-44.58
-43.21
-32.29
-12.03
14.88
43.96
70.60
91.97
107.90
120.36
131.64
142.50
151.53
156.06
153.99
145.23
131.84
116.74
102.04
88.10
73.89
58.23
41.09
24.01
9.49
-0.28
-4.41
-3.78
-0.49
3.13
5.48
6.17
5.84
5.51
5.93
7.12
8.43
8.96
8.02
5.45
1.65
-2.64
-6.67
-10.03
-12.69
-15.06
-17.63
-20.72
-24.23
-27.68
-30.36
-31.67
-31.33
-29.45
-26.42
-22.67
-18.46
-13.86
-8.85
-3.39
2.41
8.30
13.81
18.32
21.18
21.93
20.62
17.88
14.97
13.37
14.32
18.37
25.14
33.36
41.25
47.08
49.67
48.71
44.89
39.60
34.54
31.14
30.05
30.99
32.82
33.96
32.87
28.55
20.80
10.35
-1.24
-11.89
-19.55
-22.75
-21.05
-14.90
-5.28
6.73
20.20
34.14
47.35
58.44
66.54
72.03
76.82
83.48
93.64
106.50
118.65
125.62
124.31
114.91
101.02
87.86
79.61
77.46
79.49
82.26
82.92
80.69
76.88
73.79
73.14
75.00
77.71
78.52
74.78
65.07
49.78
31.01
11.67
-5.71
-20.20
-32.86
-46.30
-63.37
-85.52
-111.81
-138.96
-162.42
-177.96
-183.06
-177.53
-163.37
-143.82
-121.89
-99.18
-75.30
-48.07
-14.43
28.07
79.87
138.35
197.65
249.82
286.89
303.10
296.65
269.98
228.61
179.01
126.37
73.39
20.53
-32.08
-82.53
-126.32
-157.89
-173.87
-176.25
-172.98
-175.11
-191.53
-223.97
-265.33
-302.41
-321.68
-314.89
-281.48
-227.40
-161.88
-94.65
-34.82
9.41
31.61
29.31
6.26
-26.98
-55.77
-66.39
-51.07
-10.49
47.44
111.42
170.98
219.07
252.62
271.74
278.57
276.56
269.90
262.54
257.11
254.11
251.82
247.29
237.71
221.46
198.52
170.16
138.42
105.66
74.27
46.06
21.73
0.34
-20.69
-44.87
-75.43
-114.49
-162.76
-219.79
-284.09
-352.67
-420.29
-479.32
-521.09
-538.56
-529.17
-495.90
-446.04
-387.96
-327.70
-267.56
-206.93
-144.36
-79.58
-14.06
49.66
109.04
162.21
207.80
244.29
269.77
282.26
280.46
264.67
237.32
202.95
167.44
136.88
116.44
109.43
116.63
136.05
162.75
189.19
206.20
205.17
181.25
136.26
79.80
26.92
-7.24
-13.47
7.78
46.87
89.60
123.26
141.17
143.54
135.10
121.28
105.68
89.68
73.61
58.13
44.49
33.52
24.44
14.59
0.55
-20.24
-47.68
-78.63
-107.91
-130.14
-142.04
-143.88
-139.61
-135.56
-138.20
-151.92
-177.89
-214.16
-256.77
-301.15
-342.82
-377.45
-400.67
-408.37
-397.69
-368.52
-324.24
-270.98
-215.66
-163.57
-116.71
-73.92
-32.38
10.64
56.58
105.49
156.30
206.97
254.31
293.96
320.73
329.97
319.19
289.40
245.41
194.62
144.94
102.82
72.08
53.89
47.79
52.91
68.41
92.83
122.74
151.94
172.54
177.93
166.55
