1660333961.00
64.000000
-0.00
-0.00
-0.00
-0.00
-0.00
-0.00
-0.00
-0.00
-0.00
-0.00
0.00
0.01
0.01
-0.00
-0.03
-0.05
-0.05
0.00
0.13
0.36
0.66
1.01
1.37
1.72
2.06
2.40
2.79
3.24
3.80
4.42
5.06
5.67
6.21
6.69
7.15
7.68
8.31
9.13
10.08
11.05
11.92
12.62
13.19
13.77
14.55
15.68
17.41
19.60
22.00
24.35
26.48
28.42
30.46
32.99
36.32
40.86
46.29
52.14
57.84
63.00
67.62
72.10
77.06
83.03
90.61
99.40
108.72
117.73
125.78
132.73
138.98
145.72
151.63
159.15
169.17
182.07
196.78
210.23
217.74
214.23
195.98
162.11
115.33
60.04
1.12
-57.95
-115.80
-172.78
-229.74
-286.94
-343.58
-397.71
-447.62
-491.82
-529.29
-559.27
-580.87
-593.09
-595.02
-586.34
-567.35
-539.07
-502.22
-456.61
-401.19
-334.87
-257.89
-172.75
-84.29
1.56
79.24
145.03
197.56
237.26
265.44
283.53
292.81
294.61
290.56
282.46
272.06
260.63
248.75
236.42
223.33
209.27
194.38
179.21
164.46
150.79
138.48
127.38
117.01
106.79
96.32
85.55
74.75
64.41
55.04
46.99
40.30
34.67
29.67
24.84
19.90
14.93
10.14
5.88
2.53
0.28
-0.91
-1.31
-1.32
-1.35
-1.70
-2.49
-3.68
-5.13
-6.65
-8.08
-9.32
-10.33
-11.06
-11.50
-11.63
-11.41
-10.79
-9.78
-8.43
-6.90
-5.42
-4.23
-3.49
-3.28
-3.48
-3.91
-4.32
-4.50
-4.36
-3.94
-3.38
-2.87
-2.58
-2.56
-2.76
-3.07
-3.37
-3.53
-3.44
-3.00
-2.17
-0.98
0.44
1.82
2.84
3.28
3.02
2.16
0.92
-0.40
-1.58
-2.48
-3.08
-3.43
-3.60
-3.66
-3.59
-3.33
-2.84
-2.10
-1.19
-0.30
0.36
0.66
0.55
0.15
-0.33
-0.70
-0.85
-0.77
-0.57
-0.31
-0.02
0.32
0.74
1.22
1.74
2.31
3.00
3.96
5.25
6.81
8.37
9.51
9.87
9.26
7.78
5.73
3.50
1.29
-0.78
-2.69
-4.43
-5.94
-7.11
-7.82
-8.00
-7.68
-6.96
-6.02
-5.09
-4.33
-3.89
-3.77
-3.90
-4.14
-4.37
-4.51
-4.55
-4.51
-4.40
-4.20
-3.93
-3.63
-3.40
-3.33
-3.43
-3.55
-3.40
-2.70
-1.28
0.74
2.97
4.89
6.01
6.09
5.19
3.63
1.83
0.18
-1.12
-2.02
-2.58
-2.86
-2.90
-2.68
-2.26
-1.69
-1.11
-0.62
-0.27
-0.07
0.05
0.12
0.13
0.08
-0.04
-0.20
-0.37
-0.55
-0.81
-1.24
-1.92
-2.88
-4.04
-5.26
-6.37
-7.19
-7.52
-7.16
-5.92
-3.77
-0.88
2.40
5.58
8.20
10.00
10.94
11.10
10.58
9.46
7.77
5.60
3.16
0.76
-1.28
-2.70
-3.43
-3.53
-3.15
-2.48
-1.67
-0.90
-0.34
-0.13
-0.33
-0.91
-1.73
-2.59
-3.34
-3.92
-4.39
-4.83
-5.39
-6.12
-6.99
-7.86
-8.47
-8.50
-7.65
-5.73
-2.77
0.92
4.82
8.30
10.85
12.19
12.31
11.44
9.86
7.83
5.53
3.15
0.91
-0.93
-2.15
-2.64
-2.49
-1.91
-1.20
-0.56
-0.13
0.07
0.05
-0.22
-0.72
-1.45
-2.34
-3.27
-4.19
-5.06
-5.95
-6.92
-7.94
-8.88
-9.45
-9.28
-8.11
-5.84
-2.66
1.03
4.68
7.81
10.08
11.37
11.70
11.22
10.05
8.32
6.17
3.79
1.44
-0.58
-1.97
-2.59
-2.50
-1.91
-1.14
-0.47
-0.07
0.05
-0.06
-0.32
-0.71
-1.22
-1.86
-2.61
-3.44
-4.34
-5.34
-6.49
-7.76
-8.95
-9.73
-9.69
-8.48
-6.02
-2.51
1.54
5.48
8.70
10.81
11.71
11.53
10.55
9.06
7.26
5.26
3.19
1.22
-0.41
-1.44
-1.71
-1.30
-0.49
0.33
0.83
0.88
0.56
0.06
-0.43
-0.87
-1.29
-1.80
-2.42
-3.14
-3.92
-4.75
-5.67
-6.68
-7.65
-8.29
-8.19
-7.01
-4.60
-1.17
2.81
6.75
10.08
12.42
13.63
13.76
13.00
11.56
9.65
7.47
5.20
3.02
1.14
-0.24
-0.97
-1.00
-0.45
0.43
1.29
1.85
1.94
1.58
0.92
0.18
-0.50
-1.09
-1.66
-2.30
-3.13
-4.19
-5.43
-6.74
-7.98
-8.93
-9.36
-9.06
-7.86
-5.73
-2.83
0.52
3.87
6.75
8.77
9.72
9.60
8.58
6.97
5.06
3.12
1.32
-0.17
-1.26
-1.84
-1.88
-1.44
-0.70
0.09
0.63
0.71
0.32
-0.40
-1.18
-1.82
-2.25
-2.56
-2.95
-3.59
-4.53
-5.73
-7.06
-8.37
-9.47
-10.15
-10.11
-9.11
-7.06
-4.10
-0.66
2.72
5.58
7.66
8.94
9.52
9.47
8.75
7.28
5.13
2.56
0.08
-1.75
-2.55
-2.27
-1.20
0.14
1.24
1.78
1.69
1.11
0.32
-0.47
-1.12
-1.68
-2.25
-3.00
-3.98
-5.16
-6.38
-7.44
-8.15
-8.36
-7.99
-7.02
-5.43
-3.28
-0.66
2.22
5.13
7.84
10.22
12.23
13.85
15.00
15.51
15.14
13.77
11.52
8.79
6.13
4.01
2.62
1.80
1.15
0.26
-1.16
-3.17
-5.65
-8.39
-11.18
-13.85
-16.25
-18.29
-19.91
-21.11
-21.99
-22.65
-23.23
-23.76
-24.14
-24.16
-23.50
-21.91
-19.21
-15.48
-10.99
-6.20
-1.62
2.29
5.20
7.01
7.81
7.82
7.36
6.74
6.18
5.83
5.71
5.82
6.13
6.68
7.50
8.64
10.09
11.76
13.51
15.19
16.70
18.04
19.30
20.64
22.12
23.77
25.50
27.16
28.56
29.53
29.95
29.74
28.90
27.54
25.83
24.08
22.60
21.59
21.08
20.89
20.68
20.03
18.56
16.12
12.81
9.00
5.09
1.44
-1.64
-4.05
-5.80
-6.96
-7.58
-7.66
-7.18
-6.35
-5.45
-4.71
-4.24
-4.14
-4.48
-5.32
-6.72
-8.74
-11.77
-16.01
-21.35
-27.27
-33.13
-38.38
-42.63
-45.76
-47.84
-49.41
-50.84
-52.07
-52.63
-52.07
-50.14
-46.86
-42.42
-34.80
-23.66
-10.67
1.24
9.78
14.35
15.80
15.59
15.14
15.33
16.00
16.68
17.01
17.02
16.92
16.88
16.93
16.96
16.88
16.37
15.39
14.28
13.48
13.18
13.22
13.21
12.79
11.86
10.49
9.08
8.13
8.04
8.74
9.73
10.34
9.99
8.46
5.75
2.12
-2.09
-6.63
-11.41
-16.32
-21.06
-25.06
-27.68
-28.48
-27.48
-25.26
-22.08
-18.10
-13.17
-7.09
-0.04
7.16
13.31
17.52
19.91
21.48
23.34
25.85
28.23
29.00
26.88
21.83
15.15
8.79
4.32
2.06
1.23
0.61
-0.61
-2.40
-4.06
-4.77
-4.13
-2.38
-0.34
1.12
1.42
0.48
-1.29
-3.25
-4.87
-5.96
-6.64
-7.25
-8.02
-8.92
-9.70
-10.02
-9.66
-8.62
-7.18
-5.70
-4.56
-4.02
-4.14
-4.86
-5.98
-7.20
-8.24
-8.91
-9.11
-8.88
-8.31
-7.49
-6.42
-5.12
-3.69
-2.27
-1.01
0.13
1.36
3.03
5.39
8.40
11.64
14.38
15.93
15.83
14.09
11.13
7.56
4.07
1.20
-0.68
-1.41
-1.09
-0.07
1.11
1.87
1.83
0.92
-0.55
-2.10
-3.28
-3.87
-3.96
-3.78
-3.58
-3.44
-3.31
-3.05
-2.61
-2.04
-1.48
-1.04
-0.76
-0.62
-0.56
-0.49
-0.28
0.25
1.33
3.17
5.81
9.03
12.41
15.33
17.25
17.77
16.72
14.16
10.33
5.62
0.52
-4.35
-8.36
-11.04
-12.09
-11.54
-9.81
-7.65
-5.89
-5.19
-5.81
-7.61
-10.14
-12.79
-15.14
-16.98
-18.42
-19.69
-21.03
-22.57
-24.32
-26.21
-28.11
-29.88
-31.23
-31.81
-31.17
-28.95
-25.02
-19.58
-13.03
-5.93
1.22
7.89
13.54
17.54
19.27
18.32
14.85
9.71
4.33
0.32
-1.10
0.46
4.40
9.39
13.89
16.67
17.15
15.41
11.99
7.61
2.88
-1.78
-6.07
-9.80
-12.79
-14.86
-15.98
-16.22
-15.76
-14.67
-12.81
-9.81
-5.17
1.40
9.76
19.22
28.71
37.14
43.73
48.15
50.42
50.71
49.17
45.89
41.04
35.07
28.68
22.70
17.83
14.38
12.24
10.90
9.72
8.09
5.64
2.30
-1.72
-6.06
-10.29
-14.17
-17.65
-20.91
-24.24
-27.82
-31.66
-35.53
-39.08
-41.91
-43.63
-43.90
-42.46
-39.20
-34.22
-27.93
-20.93
-13.88
-7.26
-1.21
4.43
9.93
15.39
20.51
24.60
26.83
26.68
24.28
20.53
16.83
14.52
14.37
16.26
19.30
22.25
24.10
24.37
23.21
21.10
18.59
16.01
13.41
10.73
7.83
4.67
1.27
-2.26
-5.74
-8.90
-11.38
-12.78
-12.73
-11.02
-7.77
-3.35
1.62
6.45
10.58
13.61
15.40
15.96
15.41
13.97
11.92
9.63
7.48
5.81
4.77
4.24
3.88
3.25
1.91
-0.31
-3.36
-6.91
-10.58
-14.04
-17.14
-19.95
-22.64
-25.47
-28.57
-31.95
-35.39
-38.47
-40.68
-41.50
-40.59
-37.89
-33.64
-28.34
-22.54
-16.76
-11.33
-6.33
-1.67
2.86
7.53
12.56
18.13
24.21
30.56
36.60
41.57
44.73
45.65
44.48
41.97
39.14
36.99
36.04
36.22
36.94
37.37
36.76
34.68
30.99
25.73
19.07
11.17
2.33
-6.92
-15.73
-23.03
-27.75
-29.21
-27.37
-22.97
-17.29
-11.73
-7.33
-4.48
-2.97
-2.24
-1.75
-1.16
-0.38
0.61
1.79
3.22
4.90
6.70
8.37
9.53
9.93
9.47
8.24
6.50
4.48
2.34
0.17
-2.06
-4.35
-6.76
-9.35
-12.22
-15.48
-19.18
-23.17
-27.08
-30.36
-32.41
-32.81
-31.49
-28.79
-25.33
-21.78
-18.59
-15.86
-13.41
-10.94
-8.30
-5.57
-3.03
-0.96
0.52
1.63
2.88
4.94
8.47
13.88
21.14
29.64
38.17
45.13
48.91
48.49
43.82
35.93
26.61
17.71
10.54
5.47
2.08
-0.44
-2.82
-5.31
-7.71
-9.55
-10.30
-9.66
-7.54
-4.08
0.44
5.64
11.06
16.15
20.29
22.87
23.40
21.63
17.71
12.16
5.82
-0.39
-5.60
-9.22
-10.95
-10.84
-9.31
-7.06
-4.91
-3.64
-3.69
-5.08
-7.39
-9.98
-12.25
-13.87
-14.85
-15.49
-16.18
-17.25
-18.85
-20.94
-23.28
-25.48
-27.06
-27.53
-26.54
-24.05
-20.34
-16.00
-11.69
-7.99
-5.24
-3.54
-2.86
-3.10
-4.17
-5.90
-8.02
-10.13
-11.81
-12.73
-12.85
-12.41
-11.89
-11.83
-12.58
-14.14
-16.16
-18.00
-18.97
-18.63
-16.96
-14.35
-11.45
-8.91
-7.17
-6.38
-6.45
-7.15
-8.22
-9.37
-10.20
-10.31
-9.35
-7.18
-4.02
-0.40
3.06
5.83
7.72
8.89
9.69
10.50
11.56
12.90
14.44
16.12
17.90
19.87
22.08
24.53
27.11
29.61
31.81
33.44
34.27
34.08
32.73
30.33
27.24
24.10
21.64
20.40
20.46
21.43
22.55
23.00
22.16
19.80
16.07
11.35
6.09
0.68
-4.58
-9.50
-13.89
-17.55
-20.30
-21.93
-22.32
-21.46
-19.47
-16.53
-12.92
-8.93
-4.82
-0.92
2.52
5.26
7.14
8.13
8.30
7.80
6.76
5.37
3.80
2.20
0.65
-0.92
-2.67
-4.80
-7.37
-10.14
-12.52
-13.80
-13.29
-10.70
-6.14
-0.16
6.49
13.09
19.14
24.36
28.73
32.37
35.50
38.28
40.75
42.64
43.39
42.21
38.37
31.45
21.54
9.42
-3.61
-15.83
-25.42
-30.85
-31.29
-26.85
-18.63
-8.37
2.06
11.33
18.93
25.09
30.33
34.83
38.19
39.49
37.91
33.29
26.41
18.81
12.18
7.69
5.65
5.53
6.39
7.33
7.78
7.65
7.13
6.50
5.91
5.47
5.22
5.27
5.80
6.98
8.93
11.64
14.92
18.29
21.14
22.80
22.70
20.59
16.57
11.10
4.92
-1.19
-6.92
-12.28
-17.58
-23.12
-28.88
-34.52
-39.39
-42.84
-44.56
-45.21
-45.96
-47.99
-51.94
-57.47
-63.57
-68.80
-71.76
-71.66
-69.32
-66.37
-64.60
-65.09
-67.65
-71.30
-74.53
-75.89
-74.48
-71.14
-67.08
-63.34
-60.39
-58.29
-58.11
-62.04
-72.83
-86.21
-97.64
-102.54
-99.07
-89.04
-76.26
-64.90
-57.02
-51.14
-42.51
-26.42
-0.40
33.65
68.57
98.91
119.67
128.59
126.97
118.68
107.24
94.94
82.47
69.83
57.68
47.33
40.70
38.91
41.86
47.33
52.09
53.09
48.87
40.23
29.67
20.35
14.60
12.98
13.97
15.21
14.60
11.32
6.21
1.56
0.08
3.69
12.77
26.14
41.87
57.82
72.09
80.07
77.72
63.92
41.62
15.96
-8.31
-27.85
-41.05
-47.78
-49.14
-46.56
-41.60
-35.72
-30.19
-25.83
-22.73
-20.61
-18.98
-17.34
-14.99
-11.37
-6.33
-0.32
5.75
11.29
15.67
18.70
20.67
22.33
24.28
26.54
28.36
28.09
25.37
20.40
13.94
6.90
0.11
-5.95
-11.06
-15.17
-18.14
-19.76
-20.18
-19.90
-19.64
-19.93
-20.77
-21.63
-21.66
-20.12
-16.70
-11.90
-6.73
-2.29
0.65
1.86
1.66
0.63
-0.64
-1.72
-2.57
-3.22
-3.70
-3.96
-3.88
-3.35
-2.40
-1.22
-0.04
0.93
1.58
1.95
2.10
2.10
1.90
1.46
0.79
-0.07
-1.03
-2.00
-2.93
-3.84
-4.75
-5.65
-6.57
-7.56
-8.67
-9.89
-11.03
-11.71
-11.56
-10.31
-8.07
-5.27
-2.58
-0.63
0.22
-0.01
-1.05
-2.58
-4.32
-6.10
-7.83
-9.38
-10.59
-11.56
-12.22
-12.54
-12.50
-12.06
-11.04
-9.17
-6.24
-2.25
2.49
7.45
12.00
15.68
18.35
20.17
21.48
22.59
23.60
24.34
24.54
23.93
22.33
19.88
16.96
14.24
12.52
12.51
14.60
18.71
24.10
29.60
33.91
35.99
35.32
31.98
26.46
19.42
11.48
3.16
-5.07
-12.75
-19.40
-24.71
-28.62
-31.36
-33.28
-34.68
-35.71
-36.32
-36.45
-36.17
-35.77
-35.62
-35.97
-36.78
-37.64
-37.96
-37.21
-35.09
-31.70
-27.44
-22.86
-18.51
-14.74
-11.68
-9.13
-6.65
-3.70
0.18
5.18
11.09
17.37
23.27
28.11
31.50
33.40
34.09
33.98
33.48
32.88
32.31
31.77
31.14
30.27
28.98
27.15
24.77
22.02
19.23
16.82
15.10
14.27
14.27
14.89
15.79
16.56
16.80
16.15
14.40
11.54
7.76
3.42
-1.13
-5.72
-10.39
-15.32
-20.66
-26.30
-31.78
-36.36
-39.26
-39.99
-38.55
-35.52
-31.81
-28.40
-25.99
-24.76
-24.38
-24.31
-24.05
-23.42
-22.58
-21.86
-21.57
-21.80
-22.38
-22.98
-23.19
-22.63
-20.94
-17.84
-13.12
-6.76
0.93
9.33
17.61
25.10
31.50
37.01
42.06
46.98
51.54
54.97
56.16
54.19
48.81
40.61
30.86
21.07
12.60
6.41
2.99
2.45
4.55
8.76
14.23
19.95
24.89
28.27
29.67
29.06
26.75
23.24
19.09
14.88
11.07
7.98
5.67
4.01
2.70
1.43
-0.04
-1.87
-4.10
-6.71
-9.63
-12.70
-15.71
-18.40
-20.63
-22.41
-23.97
-25.69
-27.98
-31.10
-35.04
-39.45
-43.69
-47.02
-48.80
-48.66
-46.61
-43.02
-38.46
-33.57
-28.89
-24.79
-21.46
-18.93
-17.13
-15.91
-15.03
-14.23
-13.14
-11.37
-8.50
-4.13
2.08
10.32
20.40
31.68
42.98
52.81
59.75
62.90
62.25
58.61
53.23
47.19
41.02
34.64
27.70
20.04
11.98
4.18
-2.66
-8.11
-12.11
-14.75
-16.02
-15.66
-13.28
-8.72
-2.30
5.01
11.95
17.23
20.06
20.30
18.48
15.58
12.63
10.38
9.11
8.62
8.36
7.76
6.44
4.41
1.92
-0.63
-2.90
-4.72
-6.05
-6.90
-7.30
-7.27
-6.89
-6.33
-5.90
-5.97
-6.81
-8.55
-11.05
-14.06
-17.22
-20.26
-23.01
-25.39
-27.34
-28.74
-29.45
-29.31
-28.25
-26.34
-23.79
-20.88
-17.92
-15.07
-12.38
-9.78
-7.10
-4.13
-0.60
3.75
9.18
15.84
23.62
32.08
40.41
47.58
52.59
54.77
53.99
50.64
45.50
39.47
33.32
27.57
22.46
17.97
13.89
9.88
5.52
0.46
-5.48
-12.09
-18.74
-24.45
-28.20
-29.27
-27.52
-23.48
-18.19
-12.84
-8.36
-5.21
-3.28
-2.08
-1.03
0.37
2.31
4.71
7.24
9.44
10.85
11.14
10.25
8.39
6.01
3.69
1.94
1.01
0.83
1.03
1.10
