1660333685.00
64.000000
-0.00
-0.00
-0.00
-0.00
-0.00
-0.00
-0.00
-0.00
-0.00
-0.00
0.00
0.01
0.01
-0.00
-0.03
-0.05
-0.05
0.00
0.13
0.36
0.66
1.01
1.37
1.72
2.06
2.40
2.79
3.24
3.80
4.42
5.06
5.67
6.21
6.69
7.15
7.67
8.30
9.14
10.10
11.07
11.94
12.63
13.15
13.66
14.38
15.47
17.20
19.42
21.88
24.28
26.43
28.37
30.35
32.83
36.12
40.66
46.15
52.07
57.83
62.98
67.51
71.83
76.63
82.49
90.07
98.99
108.50
117.65
125.69
132.42
138.28
144.60
150.24
157.77
168.09
181.45
196.51
210.00
217.11
212.83
193.74
159.30
112.48
57.72
-0.35
-58.67
-116.31
-173.82
-231.93
-290.43
-348.00
-402.31
-451.57
-494.58
-530.85
-560.06
-581.67
-594.79
-598.49
-592.19
-575.49
-548.20
-509.64
-458.68
-394.55
-317.86
-231.54
-140.71
-51.61
30.15
100.74
158.69
204.30
238.71
263.06
278.35
285.60
286.20
281.96
274.74
266.01
256.66
246.90
236.43
224.83
211.92
197.83
183.09
168.34
154.12
140.67
127.83
115.23
102.60
89.97
77.70
66.40
56.60
48.57
42.19
37.04
32.53
28.14
23.55
18.74
14.00
9.60
5.82
2.78
0.43
-1.45
-3.13
-4.81
-6.53
-8.22
-9.73
-10.92
-11.68
-11.90
-11.48
-10.35
-8.55
-6.30
-4.03
-2.22
-1.28
-1.31
-2.18
-3.52
-4.94
-6.19
-7.19
-7.93
-8.42
-8.58
-8.28
-7.47
-6.17
-4.63
-3.16
-2.03
-1.39
-1.23
-1.37
-1.60
-1.75
-1.77
-1.73
-1.75
-1.95
-2.31
-2.77
-3.19
-3.44
-3.42
-3.04
-2.25
-1.01
0.60
2.35
3.86
4.71
4.65
3.65
1.98
0.10
-1.61
-2.86
-3.62
-3.97
-4.02
-3.85
-3.45
-2.85
-2.07
-1.22
-0.40
0.27
0.73
0.98
1.05
0.99
0.90
0.89
1.03
1.35
1.78
2.22
2.56
2.72
2.75
2.77
3.01
3.66
4.77
6.17
7.49
8.30
8.29
7.27
5.37
2.89
0.25
-2.25
-4.44
-6.30
-7.85
-9.05
-9.79
-9.90
-9.29
-8.07
-6.50
-4.96
-3.77
-3.10
-2.92
-3.03
-3.20
-3.24
-3.11
-2.88
-2.67
-2.62
-2.76
-3.06
-3.42
-3.74
-3.87
-3.71
-3.12
-2.02
-0.41
1.57
3.60
5.29
6.26
6.34
5.57
4.23
2.65
1.11
-0.23
-1.35
-2.28
-3.02
-3.51
-3.64
-3.34
-2.65
-1.69
-0.63
0.35
1.14
1.72
2.13
2.40
2.54
2.50
2.21
1.62
0.69
-0.50
-1.83
-3.13
-4.29
-5.23
-5.87
-6.10
-5.74
-4.60
-2.57
0.29
3.66
7.04
9.84
11.63
12.23
11.72
10.41
8.64
6.66
4.56
2.37
0.14
-1.96
-3.66
-4.74
-5.13
-4.95
-4.51
-4.11
-3.90
-3.83
-3.72
-3.43
-2.95
-2.47
-2.21
-2.39
-3.03
-4.00
-5.09
-6.11
-6.96
-7.59
-7.95
-7.89
-7.18
-5.63
-3.19
-0.07
3.30
6.38
8.73
10.08
10.40
9.81
8.47
6.53
4.16
1.56
-0.98
-3.13
-4.62
-5.32
-5.28
-4.74
-3.97
-3.25
-2.75
-2.52
-2.48
-2.53
-2.55
-2.48
-2.38
-2.36
-2.61
-3.27
-4.39
-5.84
-7.33
-8.42
-8.69
-7.83
-5.79
-2.77
0.77
4.33
7.45
9.85
11.38
12.03
11.80
10.70
8.78
6.25
3.45
0.82
-1.23
-2.44
-2.83
-2.63
-2.17
-1.74
-1.50
-1.44
-1.48
-1.56
-1.66
-1.84
-2.15
-2.62
-3.26
-4.09
-5.15
-6.48
-7.98
-9.34
-10.04
-9.57
-7.60
-4.22
0.08
4.53
8.43
11.28
12.92
13.42
12.96
11.66
9.65
7.08
4.23
1.48
-0.76
-2.20
-2.76
-2.60
-2.00
-1.26
-0.63
-0.19
0.04
0.12
0.09
-0.05
-0.35
-0.88
-1.70
-2.85
-4.30
-5.98
-7.68
-9.09
-9.82
-9.47
-7.76
-4.70
-0.62
3.85
8.00
11.27
13.37
14.37
14.47
13.88
12.68
10.85
8.40
5.53
2.64
0.20
-1.41
-2.08
-1.96
-1.39
-0.74
-0.24
0.06
0.22
0.34
0.47
0.57
0.53
0.29
-0.20
-0.90
-1.80
-2.87
-4.11
-5.44
-6.63
-7.32
-7.10
-5.67
-3.03
0.46
4.18
7.44
9.72
10.79
10.74
9.82
8.32
6.49
4.52
2.62
1.02
-0.04
-0.49
-0.41
-0.11
0.03
-0.28
-1.12
-2.33
-3.61
-4.69
-5.45
-5.94
-6.32
-6.77
-7.42
-8.32
-9.40
-10.51
-11.45
-11.92
-11.67
-10.51
-8.41
-5.52
-2.14
1.36
4.60
7.28
9.15
10.07
9.98
8.93
7.11
4.83
2.45
0.30
-1.40
-2.54
-3.16
-3.34
-3.25
-3.05
-2.91
-2.90
-3.04
-3.27
-3.49
-3.65
-3.78
-4.01
-4.49
-5.36
-6.62
-8.11
-9.47
-10.24
-9.96
-8.30
-5.25
-1.13
3.47
7.81
11.28
13.49
14.38
14.11
12.94
11.13
8.92
6.52
4.15
2.04
0.43
-0.58
-0.99
-0.98
-0.81
-0.73
-0.88
-1.29
-1.84
-2.44
-2.99
-3.54
-4.19
-5.06
-6.25
-7.70
-9.23
-10.48
-11.04
-10.53
-8.73
-5.72
-1.88
2.20
5.92
8.86
10.86
12.00
12.42
12.20
11.34
9.82
7.75
5.38
3.11
1.32
0.23
-0.12
0.09
0.61
1.20
1.65
1.85
1.76
1.39
0.81
0.13
-0.58
-1.25
-1.93
-2.70
-3.64
-4.77
-5.96
-6.93
-7.29
-6.69
-4.94
-2.11
1.47
5.32
8.90
11.80
13.70
14.46
14.02
12.47
10.01
6.97
3.78
0.86
-1.47
-3.03
-3.82
-3.95
-3.64
-3.13
-2.64
-2.31
-2.21
-2.30
-2.51
-2.78
-3.12
-3.63
-4.43
-5.59
-7.08
-8.77
-10.43
-11.72
-12.26
-11.69
-9.84
-6.82
-3.02
1.00
4.67
7.57
9.50
10.44
10.45
9.62
8.06
5.91
3.46
1.04
-1.03
-2.51
-3.33
-3.53
-3.25
-2.69
-2.00
-1.35
-0.84
-0.51
-0.36
-0.43
-0.74
-1.34
-2.28
-3.57
-5.16
-6.89
-8.53
-9.75
-10.16
-9.45
-7.45
-4.28
-0.32
3.87
7.67
10.64
12.51
13.22
12.82
11.45
9.26
6.50
3.49
0.67
-1.59
-3.01
-3.55
-3.36
-2.77
-2.12
-1.66
-1.45
-1.43
-1.45
-1.43
-1.37
-1.40
-1.68
-2.39
-3.63
-5.36
-7.39
-9.38
-10.88
-11.42
-10.60
-8.30
-4.71
-0.35
4.09
7.90
10.62
12.07
12.38
11.82
10.65
9.06
7.15
5.03
2.91
1.05
-0.26
-0.92
-1.01
-0.82
-0.70
-0.87
-1.37
-2.03
-2.62
-2.98
-3.12
-3.22
-3.51
-4.17
-5.23
-6.61
-8.15
-9.67
-10.92
-11.63
-11.42
-9.96
-7.07
-2.87
2.15
7.25
11.67
14.84
16.59
17.09
16.66
15.64
14.24
12.53
10.60
8.56
6.63
5.04
3.96
3.44
3.39
3.63
3.94
4.15
4.11
3.77
3.15
2.30
1.34
0.37
-0.56
-1.43
-2.28
-3.17
-4.18
-5.36
-6.68
-7.97
-8.95
-9.25
-8.54
-6.64
-3.61
0.16
4.11
7.61
10.16
11.48
11.54
10.52
8.70
6.38
3.85
1.39
-0.74
-2.31
-3.19
-3.38
-3.05
-2.48
-1.93
-1.61
-1.61
-1.92
-2.45
-3.11
-3.81
-4.47
-5.03
-5.46
-5.81
-6.17
-6.71
-7.51
-8.50
-9.40
-9.77
-9.18
-7.42
-4.60
-1.14
2.40
5.52
7.90
9.46
10.22
10.21
9.41
7.80
5.52
2.88
0.33
-1.67
-2.82
-3.09
-2.70
-1.98
-1.25
-0.74
-0.52
-0.57
-0.84
-1.28
-1.84
-2.43
-3.01
-3.57
-4.20
-5.07
-6.35
-8.01
-9.80
-11.19
-11.59
-10.56
-8.01
-4.27
0.04
4.20
7.62
10.00
11.28
11.61
11.18
10.13
8.54
6.50
4.16
1.77
-0.39
-2.05
-3.05
-3.38
-3.18
-2.64
-1.98
-1.34
-0.80
-0.39
-0.10
0.07
0.12
-0.04
-0.53
-1.45
-2.85
-4.65
-6.67
-8.59
-10.07
-10.76
-10.38
-8.76
-5.91
-2.08
2.30
6.62
10.27
12.82
14.05
14.04
13.01
11.24
9.00
6.48
3.92
1.60
-0.14
-1.02
-0.88
0.12
1.59
2.98
3.78
3.74
2.91
1.61
0.21
-0.99
-1.92
-2.68
-3.47
-4.44
-5.70
-7.24
-8.98
-10.71
-12.11
-12.74
-12.17
-10.12
-6.69
-2.38
2.05
5.79
8.32
9.52
9.61
8.99
8.01
6.88
5.59
4.12
2.46
0.76
-0.75
-1.82
-2.30
-2.21
-1.72
-1.10
-0.62
-0.40
-0.42
-0.54
-0.56
-0.37
0.03
0.48
0.77
0.68
0.11
-0.92
-2.27
-3.67
-4.86
-5.56
-5.52
-4.54
-2.56
0.31
3.73
7.17
10.06
11.93
12.57
12.05
10.69
8.86
6.88
4.94
3.13
1.55
0.29
-0.51
-0.74
-0.40
0.36
1.31
2.18
2.75
2.92
2.69
2.11
1.30
0.33
-0.70
-1.72
-2.64
-3.43
-4.10
-4.72
-5.38
-6.10
-6.77
-7.10
-6.76
-5.44
-3.09
0.07
3.56
6.76
9.16
10.44
10.58
9.81
8.42
6.70
4.84
2.94
1.03
-0.79
-2.39
-3.61
-4.33
-4.56
-4.40
-4.07
-3.73
-3.51
-3.39
-3.36
-3.43
-3.71
-4.37
-5.50
-7.05
-8.75
-10.28
-11.33
-11.80
-11.75
-11.33
-10.67
-9.80
-8.64
-7.06
-5.02
-2.53
0.30
3.31
6.30
9.01
11.12
12.32
12.36
11.17
8.92
6.04
3.03
0.39
-1.56
-2.73
-3.29
-3.51
-3.65
-3.88
-4.23
-4.63
-5.01
-5.33
-5.60
-5.83
-6.04
-6.24
-6.40
-6.52
-6.60
-6.59
-6.36
-5.69
-4.34
-2.15
0.83
4.33
7.89
10.98
13.15
14.10
13.77
12.26
9.84
6.91
3.91
1.25
-0.77
-2.05
-2.68
-2.90
-2.98
-3.12
-3.39
-3.75
-4.07
-4.26
-4.29
-4.26
-4.32
-4.64
-5.34
-6.52
-8.16
-10.16
-12.24
-13.98
-14.83
-14.29
-12.05
-8.19
-3.20
2.14
6.96
10.63
12.81
13.54
13.06
11.65
9.58
7.08
4.40
1.85
-0.21
-1.54
-2.04
-1.85
-1.25
-0.55
0.00
0.34
0.47
0.47
0.35
0.10
-0.33
-0.97
-1.87
-3.08
-4.60
-6.35
-8.12
-9.53
-10.13
-9.51
-7.48
-4.16
0.03
4.48
8.59
11.84
13.94
14.84
14.62
13.51
11.73
9.54
7.17
4.88
2.94
1.59
0.98
1.04
1.58
2.26
2.77
2.92
2.68
2.19
1.61
1.07
0.61
0.17
-0.37
-1.10
-2.14
-3.53
-5.25
-7.13
-8.85
-9.94
-9.93
-8.50
-5.69
-1.87
2.32
6.22
9.31
11.36
12.39
12.53
11.89
10.55
8.53
5.96
3.15
0.54
-1.42
-2.45
-2.56
-2.03
-1.34
-0.93
-1.04
-1.65
-2.50
-3.27
-3.76
-3.90
-3.86
-3.89
-4.20
-4.94
-6.09
-7.50
-8.87
-9.84
-10.00
-9.03
-6.80
-3.44
0.60
4.73
8.31
10.89
12.23
12.37
11.49
9.83
7.64
5.17
2.68
0.50
-1.10
-1.91
-1.92
-1.33
-0.49
0.19
0.40
0.05
-0.71
-1.59
-2.32
-2.75
-2.97
-3.20
-3.76
-4.85
-6.49
-8.45
-10.29
-11.44
-11.42
-9.93
-7.03
-3.10
1.19
5.15
8.20
10.07
10.76
10.46
9.43
7.90
6.05
4.00
1.95
0.09
-1.34
-2.22
-2.50
-2.30
-1.85
-1.37
-1.02
-0.88
-0.93
-1.08
-1.25
-1.42
-1.63
-1.95
-2.53
-3.48
-4.88
-6.64
-8.47
-9.90
-10.35
-9.36
-6.78
-2.89
1.65
6.04
9.59
11.88
12.87
12.76
11.86
10.41
8.55
6.37
3.99
1.63
-0.38
-1.73
-2.21
-1.85
-0.93
0.11
0.86
1.04
0.63
-0.20
-1.19
-2.12
-2.89
-3.58
-4.32
-5.23
-6.35
-7.65
-9.00
-10.23
-11.12
-11.40
-10.82
-9.19
-6.54
-3.12
0.64
4.19
7.12
9.20
10.46
11.01
11.00
10.48
9.40
7.77
5.69
3.38
1.19
-0.58
-1.73
-2.28
-2.40
-2.36
-2.42
-2.72
-3.21
-3.78
-4.29
-4.69
-5.08
-5.62
-6.41
-7.43
-8.49
-9.39
-9.98
-10.18
-9.95
-9.16
-7.56
-4.91
-1.13
3.54
8.54
13.15
16.74
18.94
19.76
19.43
18.31
16.69
14.77
12.67
10.55
8.60
7.04
6.03
5.61
5.66
5.95
6.21
6.24
5.95
5.37
4.62
3.79
2.96
2.16
1.34
0.46
-0.52
-1.62
-2.81
-4.09
-5.39
-6.63
-7.62
-8.12
-7.86
-6.63
-4.42
-1.44
1.88
5.03
7.52
9.11
9.77
9.64
8.91
7.73
6.16
4.25
2.14
0.11
-1.48
-2.32
-2.31
-1.57
-0.48
0.55
1.15
1.18
0.66
-0.27
-1.39
-2.58
-3.74
-4.84
-5.86
-6.80
-7.64
-8.42
-9.21
-10.13
-11.25
-12.51
-13.67
-14.28
-13.90
-12.23
-9.33
-5.56
-1.54
2.13
5.04
6.98
7.97
8.10
7.44
6.10
4.20
1.98
-0.20
-1.97
-3.03
-3.28
-2.85
-2.03
-1.18
-0.59
-0.41
-0.60
-1.03
-1.54
-2.03
-2.51
-3.06
-3.79
-4.80
-6.10
-7.65
-9.32
-10.88
-12.00
-12.33
-11.54
-9.52
-6.36
-2.42
1.83
5.90
9.44
12.23
14.17
15.19
15.26
14.34
12.51
9.97
7.05
4.14
1.61
-0.34
-1.71
-2.65
-3.40
-4.16
-4.98
-5.80
-6.48
-6.93
-7.17
-7.35
-7.66
-8.25
-9.14
-10.28
-11.55
-12.83
-13.95
-14.72
-14.82
-13.98
-11.99
-8.90
-4.99
-0.76
3.25
6.60
9.05
10.58
11.28
11.32
10.85
10.02
8.96
7.85
6.91
6.31
6.16
6.48
7.13
7.87
8.43
8.57
8.17
7.27
5.99
4.53
3.02
1.59
0.29
-0.80
-1.64
-2.20
-2.55
-2.79
-3.02
-3.26
-3.38
-3.12
-2.28
-0.74
1.37
3.71
5.90
7.59
8.60
8.94
8.69
8.02
7.04
5.81
4.39
2.85
1.34
0.10
-0.67
-0.79
-0.22
0.97
2.54
4.20
5.63
6.51
6.64
5.94
4.51
2.58
0.41
-1.72
-3.71
-5.58
-7.45
-9.42
-11.45
-13.30
-14.56
-14.77
-13.59
-10.98
-7.25
-2.96
1.19
4.61
6.94
8.08
8.12
7.29
5.79
3.83
1.64
-0.52
-2.37
-3.62
-4.11
-3.86
-3.06
-2.06
-1.22
-0.81
-0.91
-1.41
-2.05
-2.58
-2.86
-2.97
-3.14
-3.69
-4.84
-6.62
-8.80
-10.90
-12.38
-12.73
-11.63
-9.07
-5.32
-0.91
3.51
7.32
10.09
11.62
11.96
11.29
9.88
8.03
6.00
4.01
2.29
0.99
0.16
-0.26
-0.46
-0.66
-1.02
-1.56
-2.18
-2.67
-2.88
-2.78
-2.48
-2.16
-2.03
-2.25
-2.88
-3.93
-5.39
-7.16
-9.00
-10.51
-11.13
-10.37
-8.01
-4.23
0.39
5.09
9.16
12.16
13.97
14.66
14.39
13.28
11.42
9.00
6.34
3.87
2.02
1.03
0.89
1.32
1.89
2.17
1.94
1.18
0.08
-1.09
-2.12
-2.98
-3.76
-4.61
-5.65
-6.90
-8.29
-9.73
-11.06
-12.06
-12.43
-11.78
-9.83
-6.51
-2.11
2.82
7.59
11.60
14.51
16.20
16.78
16.42
15.28
13.56
11.45
9.16
6.93
4.93
3.34
2.24
1.70
1.69
2.09
2.66
3.13
3.28
3.02
2.40
1.64
1.00
0.66
0.71
1.10
1.67
2.25
2.63
2.69
2.41
1.85
1.20
0.75
0.77
1.49
2.99
5.19
7.76
10.20
11.90
12.29
11.03
8.16
4.08
-0.55
-5.02
-8.78
-11.58
-13.46
-14.63
-15.38
-15.93
-16.42
-16.93
-17.50
-18.15
-18.81
-19.32
-19.47
-19.03
-17.85
-15.90
-13.36
-10.52
-7.69
-5.13
-2.89
-0.83
1.36
4.03
7.41
11.48
15.94
20.30
24.00
26.65
28.06
28.25
27.36
25.53
22.92
19.66
15.97
12.17
8.61
5.63
3.39
1.87
0.91
0.23
-0.41
-1.17
-2.09
-3.11
-4.09
-4.84
-5.19
-5.06
-4.46
-3.53
-2.50
-1.61
-1.09
-1.12
-1.78
-3.07
-4.86
-6.87
-8.70
-9.90
-10.13
-9.32
-7.70
-5.78
-4.13
-3.15
-2.97
-3.41
-4.12
-4.79
-5.27
-5.60
-5.96
-6.47
-7.12
-7.76
-8.21
-8.36
-8.22
-7.93
-7.66
-7.58
-7.75
-8.13
-8.60
-9.02
-9.28
-9.38
-9.37
-9.34
-9.36
-9.38
-9.31
-9.06
-8.54
-7.65
-6.27
-4.22
-1.31
2.53
7.14
12.10
16.83
20.73
23.40
24.67
24.67
23.63
21.86
19.59
16.96
14.04
10.86
7.46
3.99
0.62
-2.43
-4.99
-6.99
-8.48
-9.52
-10.15
-10.38
-10.15
-9.45
-8.33
-6.97
-5.56
-4.39
-3.71
-3.75
-4.62
-6.24
-8.26
-10.14
-11.24
-11.11
-9.68
-7.32
-4.68
-2.41
-0.93
-0.29
-0.25
-0.51
-0.88
-1.37
-2.07
-3.00
-4.01
-4.76
-4.88
-4.18
-2.77
-1.00
0.62
1.68
2.01
1.74
1.14
0.55
0.16
0.00
-0.10
-0.37
-0.99
-2.02
-3.41
-5.07
-6.77
-8.26
-9.17
-9.10
-7.74
-5.02
-1.21
3.15
7.37
10.88
13.33
14.65
14.96
14.43
13.23
11.49
9.42
7.29
5.40
4.02
3.28
3.14
3.43
3.89
4.28
4.45
4.31
3.89
3.30
2.68
2.15
1.77
1.45
1.04
0.29
-0.96
-2.75
-4.96
-7.33
-9.48
-10.98
-11.44
-10.58
-8.27
-4.71
-0.32
4.24
8.27
11.23
12.87
13.22
12.56
11.22
9.43
7.35
5.11
2.89
0.96
-0.41
-1.05
-0.98
-0.41
0.34
0.96
1.24
1.15
0.75
0.14
-0.60
-1.41
-2.25
-3.05
-3.81
-4.54
-5.36
-6.43
-7.86
-9.59
-11.31
-12.50
-12.60
-11.18
-8.22
-4.09
0.53
4.84
8.24
10.41
11.36
11.26
10.36
8.86
6.90
4.68
2.46
0.59
-0.63
-1.00
-0.56
0.43
1.59
2.52
2.97
2.85
2.26
1.41
0.53
-0.23
-0.81
-1.28
-1.79
-2.50
-3.53
-4.90
-6.48
-8.01
-9.10
-9.36
-8.48
-6.33
-3.11
0.70
4.48
7.59
9.62
10.46
10.26
9.30
7.80
5.91
3.73
1.41
-0.78
-2.50
-3.47
-3.60
-3.02
-2.08
-1.13
-0.44
-0.15
-0.22
-0.57
-1.12
-1.83
-2.65
-3.56
-4.57
-5.68
-6.96
-8.46
-10.18
-11.96
-13.49
-14.28
-13.83
-11.84
-8.32
-3.66
1.46
6.27
10.11
12.60
13.66
13.46
12.27
10.41
8.14
5.70
3.37
1.41
0.08
-0.45
-0.23
0.52
1.42
2.09
2.31
2.06
1.50
0.85
0.27
-0.25
-0.80
-1.49
-2.39
-3.46
-4.61
-5.80
-6.99
-8.13
-9.06
-9.44
-8.92
-7.20
-4.26
-0.42
3.72
7.53
10.47
12.28
12.93
12.54
11.29
9.37
6.99
4.42
2.03
0.18
-0.84
-0.94
-0.24
0.92
2.12
2.99
3.31
3.08
2.46
1.67
0.94
0.35
-0.10
-0.48
-0.89
-1.36
-1.90
-2.53
-3.25
-4.06
-4.82
-5.31
-5.16
-4.02
-1.70
1.68
5.68
9.67
12.99
15.19
16.11
15.87
14.73
13.03
11.06
9.05
7.16
5.50
4.17
3.19
2.57
2.29
2.27
2.41
2.55
2.54
2.27
1.69
0.85
-0.14
-1.21
-2.32
-3.51
-4.83
-6.29
-7.84
-9.40
-10.91
-12.38
-13.82
-15.16
-16.18
-16.50
-15.75
-13.71
-10.47
-6.51
-2.49
0.97
3.45
4.86
5.34
5.09
4.34
3.28
2.10
1.05
0.38
0.23
0.65
1.48
2.48
3.36
3.86
3.84
3.30
2.34
1.21
0.18
-0.52
-0.81
-0.79
-0.71
-0.84
-1.38
-2.38
-3.76
-5.31
-6.77
-7.80
-8.07
-7.29
-5.35
-2.38
1.21
4.84
7.89
9.95
10.87
10.75
9.83
8.35
6.51
4.46
2.36
0.44
-1.06
-1.92
-2.04
-1.49
-0.52
0.56
1.40
1.78
1.65
1.12
0.44
-0.13
-0.44
-0.49
-0.46
-0.59
-1.10
-2.08
-3.47
-5.12
-6.76
-8.09
-8.78
-8.50
-7.07
-4.51
-1.12
2.55
5.86
8.25
9.40
9.26
8.05
6.13
3.88
1.63
-0.40
-2.01
-3.10
-3.59
-3.47
-2.84
-1.91
-0.95
-0.20
0.16
0.10
-0.29
-0.89
-1.56
-2.24
-2.92
-3.62
-4.35
-5.13
-5.96
-6.88
-7.89
-8.94
-9.89
-10.48
-10.42
-9.44
-7.44
-4.54
-1.08
2.47
5.60
7.90
9.13
9.22
8.29
6.60
4.48
2.31
0.46
-0.81
-1.36
-1.23
-0.60
0.23
0.94
1.24
0.98
0.19
-0.94
-2.14
-3.14
-3.76
-4.00
-4.02
-4.07
-4.41
-5.16
-6.30
-7.60
-8.76
-9.41
-9.27
-8.15
-6.01
-2.98
0.65
4.46
7.95
10.64
12.21
12.52
11.67
9.89
7.54
4.95
2.43
0.28
-1.28
-2.06
-2.02
-1.27
-0.09
1.09
1.91
2.09
1.61
0.62
-0.59
-1.74
-2.67
-3.35
-3.91
-4.53
-5.39
-6.59
-8.05
-9.53
-10.66
-10.96
-10.07
-7.81
-4.33
-0.10
4.20
7.94
10.63
12.11
12.46
11.94
10.80
9.22
7.32
5.26
3.28
1.65
0.63
0.30
0.53
1.02
1.44
1.57
1.36
0.88
0.22
-0.57
-1.46
-2.44
-3.43
-4.35
-5.12
-5.75
-6.40
-7.18
-8.14
-9.08
-9.61
-9.23
-7.59
-4.61
-0.59
3.86
7.99
11.18
13.04
13.50
12.76
11.20
9.20
7.13
5.27
3.82
2.87
2.46
2.53
2.98
3.65
4.32
4.79
4.89
4.54
3.75
2.62
1.34
0.09
-1.01
-1.97
-2.84
-3.72
-4.71
-5.89
-7.30
-8.85
-10.31
-11.38
-11.72
-11.10
-9.43
-6.85
-3.73
-0.56
2.34
4.74
6.62
7.96
8.82
9.24
9.27
8.97
8.41
7.88
7.77
8.40
9.94
12.30
15.20
18.28
21.09
22.34
21.09
17.21
11.52
5.22
-0.86
-6.29
-10.89
-14.54
-17.08
-18.34
-18.28
-17.13
-15.33
-13.26
-11.17
-9.07
-7.06
-5.14
-3.37
-1.93
-1.03
-0.81
-1.20
-1.92
-2.58
-2.89
-2.80
-2.41
-1.93
-1.53
-1.32
-1.35
-1.61
-2.11
-2.80
-3.58
-4.26
-4.56
-4.26
-3.27
-1.71
0.20
2.12
3.92
5.45
6.69
7.62
8.26
8.57
8.44
7.79
6.50
4.72
2.72
0.82
-0.74
-1.86
-2.65
-3.30
-4.02
-5.23
-6.96
-9.19
-11.77
-14.46
-16.83
-18.11
-17.34
-13.04
-5.22
4.97
15.35
23.45
27.40
26.80
22.68
16.98
11.53
7.19
3.91
1.11
-1.69
-4.44
-6.69
-7.97
-8.22
-7.94
-7.97
-8.75
-10.20
-11.60
-12.04
-10.88
-8.16
-4.62
-1.36
0.59
0.79
-0.54
-2.72
-4.97
-6.79
-8.00
-8.72
-9.06
-9.09
-8.71
-7.82
-6.41
-4.71
-2.90
-1.21
0.19
1.26
2.03
2.56
2.90
3.07
3.12
3.10
3.04
2.98
2.89
2.72
2.40
1.88
1.19
0.42
-0.26
-0.68
-0.65
-0.03
1.25
3.10
5.25
7.28
8.75
9.30
8.78
7.27
5.05
2.46
-0.12
-2.43
-4.26
-5.50
-6.13
-6.20
-5.87
-5.35
-4.85
-4.51
-4.38
-4.47
-4.73
-5.14
-5.66
-6.28
-6.94
-7.70
-8.52
-9.31
-9.97
-10.42
-10.58
-10.49
-10.32
-10.31
-10.76
-11.81
-13.37
-15.07
-16.28
-16.37
-14.94
-11.97
-7.87
-3.34
0.87
4.17
6.24
7.04
6.71
5.52
3.79
1.87
0.10
-1.22
-1.96
-2.12
-1.91
-1.56
-1.29
-1.18
-1.20
-1.27
-1.37
-1.53
-1.83
-2.33
-2.98
-3.62
-4.08
-4.20
-3.92
-3.29
-2.45
-1.64
-1.07
-0.96
-1.38
-2.26
-3.41
-4.50
-5.22
-5.30
-4.58
-3.08
-0.92
1.64
4.23
6.44
7.90
8.39
7.87
6.56
4.84
3.17
1.94
1.44
1.80
2.96
4.74
6.87
9.00
10.85
12.22
13.07
13.50
13.75
14.06
14.61
15.49
16.70
18.14
19.73
21.39
23.08
24.72
26.17
27.21
27.54
26.98
25.48
23.20
20.50
17.84
15.62
14.08
13.21
12.70
12.07
10.81
8.55
5.23
1.14
-3.28
-7.52
-11.23
-14.28
-16.67
-18.49
-19.79
-20.61
-20.96
-20.90
-20.52
-19.93
-19.25
-18.57
-17.97
-17.44
-16.76
-15.45
-12.80
-8.09
-0.90
8.64
19.72
31.03
41.11
48.64
52.77
53.17
50.14
44.60
37.98
31.90
27.75
26.21
27.02
29.06
30.84
31.01
28.87
24.45
18.30
11.17
3.70
-3.64
-10.50
-16.58
-21.59
-25.40
-28.03
-29.77
-31.04
-32.23
-33.52
-34.82
-35.82
-36.16
-35.59
-34.11
-31.89
-29.23
-26.38
-23.48
-20.50
-17.35
-13.92
-10.20
-6.25
-2.33
1.24
4.06
5.81
6.25
5.36
3.34
0.55
-2.58
-5.63
-8.32
-10.53
-12.32
-13.86
-15.29
-16.69
-17.99
-19.04
-19.65
-19.71
-19.25
-18.47
-17.66
-17.08
-16.74
-16.37
-15.34
-12.87
-8.26
-1.22
7.97
18.47
29.11
38.65
46.06
50.75
52.61
52.04
49.79
46.84
44.07
42.09
40.97
40.31
39.43
37.69
34.83
31.02
26.80
22.73
19.08
15.76
12.34
8.42
3.85
-1.13
-6.05
-10.53
-14.62
-18.85
-23.90
-30.16
-37.31
-44.25
-49.47
-51.73
-50.60
-46.61
-41.01
-35.18
-30.03
-25.85
-22.34
-19.04
-15.69
-12.34
-9.34
-7.06
-5.74
-5.39
-5.77
-6.58
-7.53
-8.43
-9.23
-9.98
-10.78
-11.69
-12.65
-13.53
-14.17
-14.43
-14.29
-13.81
-13.15
-12.44
-11.81
-11.32
-11.00
-10.80
-10.55
-9.81
-7.92
-4.13
2.11
10.82
21.34
32.35
42.21
49.40
52.98
52.77
49.37
43.95
37.85
32.26
27.97
25.26
23.99
23.71
23.87
23.98
23.65
22.65
20.85
18.28
15.09
11.56
8.01
4.69
1.68
-1.17
-4.17
-7.63
-11.75
-16.51
-21.73
-27.10
-32.23
-36.69
-40.00
-41.66
-41.34
-38.94
-34.76
-29.43
-23.73
-18.40
-13.88
-10.22
-7.22
-4.55
-1.98
0.48
2.64
4.23
5.08
5.18
4.68
3.80
2.72
1.50
0.15
-1.31
-2.74
-3.97
-4.83
-5.22
-5.20
-4.94
-4.63
-4.46
-4.55
-4.93
-5.61
-6.51
-7.57
-8.68
-9.71
-10.52
-10.91
-10.61
-9.28
-6.56
-2.14
4.08
11.95
21.03
30.65
40.08
48.58
55.51
60.28
62.33
61.23
56.83
49.49
40.17
30.22
21.05
13.68
8.45
5.11
3.02
1.59
0.41
-0.70
-1.84
-3.17
-4.88
-7.08
-9.76
-12.80
-16.10
-19.78
-24.12
-29.37
-35.46
-41.91
-47.79
-52.10
-54.09
-53.55
-50.80
-46.54
-41.54
-36.49
-31.90
-28.10
-25.30
-23.53
-22.61
-22.11
-21.44
-20.05
-17.62
-14.18
-10.13
-6.03
-2.41
0.34
2.08
2.88
2.95
2.58
2.09
1.79
1.95
2.81
4.46
6.87
9.84
13.11
16.42
19.61
22.60
25.39
28.00
30.48
32.84
35.15
37.40
39.60
41.65
43.43
44.82
45.76
46.27
46.41
46.12
45.24
43.38
40.09
35.06
28.26
20.09
11.38
3.12
-3.79
-8.89
-12.21
-14.25
-15.76
-17.48
-19.94
-23.35
-27.57
-32.11
-36.24
-39.09
-39.88
-38.10
-33.72
-27.22
-19.41
-11.31
-3.82
2.43
7.21
10.86
14.20
18.40
24.80
34.44
47.56
63.21
79.14
92.17
99.06
97.56
87.26
69.78
48.17
25.91
5.90
-10.17
-21.87
-29.59
-34.02
-35.85
-35.72
-34.39
-32.66
-31.14
-29.98
-28.84
-27.03
-23.81
-18.74
-11.90
-4.08
3.45
9.23
11.86
10.20
3.82
-6.60
-19.14
-31.00
-39.88
-44.63
-45.51
-43.99
-42.36
-42.49
-44.91
-48.44
-50.49
-49.13
-43.56
-34.16
-22.52
-11.40
-3.56
-0.64
-2.30
-6.06
-9.92
-12.51
-13.09
-11.57
-8.77
-5.60
-3.06
-2.13
-3.53
-9.53
-21.56
-38.48
-52.29
-54.42
-41.37
-19.11
-3.05
2.15
-1.99
-10.76
-16.91
-16.15
-8.89
1.11
8.76
11.12
9.23
5.16
1.26
-0.93
-1.44
-1.95
-3.75
-7.31
-11.14
-12.29
-9.20
-1.97
7.82
19.19
27.00
29.87
27.50
21.52
14.53
8.33
3.98
2.18
3.57
8.23
16.05
25.89
34.29
36.09
27.16
7.07
-21.20
-52.89
-83.02
-106.15
-120.06
-120.34
-104.22
-72.57
-30.40
14.27
52.89
79.12
91.09
88.97
76.59
58.97
40.95
26.34
17.48
15.21
19.18
28.48
42.50
60.73
81.42
101.50
117.20
124.86
121.69
106.75
77.25
36.42
-6.58
-41.98
-64.98
-76.67
-80.99
-81.28
-78.93
-73.71
-64.49
-51.29
-36.16
-22.18
-11.55
-4.67
-0.37
2.85
5.94
9.43
12.80
14.63
13.44
8.66
0.87
-8.46
-17.51
-24.41
-27.12
-24.40
-16.61
-5.96
4.05
10.00
10.41
6.31
1.27
0.19
6.81
21.60
41.20
59.80
70.95
71.46
62.00
46.33
29.37
14.80
3.95
-3.88
-10.13
-15.67
-20.26
-23.10
-23.55
-21.76
-18.81
-16.34
-15.59
-16.90
-19.48
-21.86
-22.74
-21.53
-18.60
-15.03
-12.01
-10.30
-10.12
-10.86
-11.65
-11.72
-10.69
-8.66
-6.10
-3.72
-2.09
-1.58
-2.14
-3.37
-4.62
-5.15
-4.38
-2.03
1.71
6.24
10.72
14.35
16.60
17.37
16.94
15.74
14.15
12.34
10.38
8.28
6.14
4.16
2.52
1.34
0.61
0.22
0.04
-0.06
-0.17
-0.39
-0.78
-1.38
-2.09
-2.71
-2.98
-2.75
-2.09
-1.28
-0.78
-1.00
-2.20
-4.28
-7.00
-9.99
-13.07
-16.11
-19.15
-22.38
-26.07
-30.48
-35.76
-41.86
-48.37
-54.52
-59.23
-61.27
-59.73
-54.37
-45.75
-34.99
-23.41
-12.08
-1.75
7.38
15.56
23.06
29.89
35.79
40.43
43.66
45.59
46.33
46.10
45.37
44.32
42.83
40.58
37.31
33.17
28.63
24.25
20.77
19.20
20.08
23.32
28.24
34.03
40.23
46.76
53.58
57.81
57.35
51.65
42.12
30.90
19.47
8.52
-0.36
-7.97
-14.70
-20.16
-23.96
-26.09
-26.98
-27.43
-27.70
-27.61
-26.95
-25.21
-21.80
-16.61
-10.11
-3.12
3.46
9.04
13.23
15.70
16.50
16.05
14.87
13.35
11.67
9.83
7.78
5.50
2.97
0.39
-1.90
-3.68
-4.94
-5.85
-6.65
-7.49
-8.35
-9.23
-10.05
-10.81
-11.62
-12.68
-14.14
-15.99
-18.05
-20.09
-21.92
-23.54
-25.10
-26.87
-29.06
-31.72
-34.60
-37.20
-38.86
-38.84
-36.56
-31.73
-24.52
-15.54
-5.78
3.68
11.88
18.24
22.62
25.22
26.42
26.66
26.28
25.55
24.66
23.75
22.89
22.04
21.09
19.88
18.31
16.44
14.49
12.73
11.37
10.39
9.56
8.51
6.91
4.67
1.95
-0.89
-3.52
-5.74
-7.59
-9.27
-11.01
-12.93
-15.06
-17.34
-19.69
-21.91
-23.73
-24.73
-24.40
-22.35
-18.52
-13.22
-7.12
-1.00
4.49
8.96
12.24
14.35
15.35
15.36
14.60
13.43
12.30
11.66
11.72
12.40
13.34
14.03
14.03
13.17
11.53
9.47
7.39
5.66
4.38
3.43
2.50
1.20
-0.74
-3.43
-6.73
-10.35
-13.93
-17.20
-20.04
-22.55
-25.01
-27.70
-30.83
-34.33
-37.87
-40.93
-42.90
-43.27
-41.67
-38.01
-32.44
-25.42
-17.63
-9.93
-3.16
2.02
5.32
6.82
6.86
5.91
4.37
2.51
0.57
-1.26
-2.76
-3.74
-4.10
-3.89
-3.19
-2.05
-0.47
1.66
4.39
7.65
11.15
14.46
17.07
18.54
18.66
17.45
15.19
12.34
9.40
6.75
4.54
2.68
0.94
-0.84
-2.62
-4.06
-4.67
-4.01
-1.91
1.39
5.37
9.33
12.66
14.95
16.08
16.15
15.43
14.25
12.98
12.00
11.63
12.12
13.55
15.75
18.21
20.20
20.84
19.44
15.70
9.81
2.48
-5.33
-12.64
-18.71
-23.10
-25.73
-26.79
-26.72
-26.10
-25.58
-25.80
-27.21
-30.01
-34.13
-39.19
-44.60
-49.53
-53.08
-54.44
-53.12
-49.14
-43.09
-36.00
-28.99
-22.92
-18.20
-14.72
-12.05
-9.68
-7.13
-4.03
-0.10
4.95
11.32
18.98
27.59
36.46
44.74
51.65
56.80
60.20
62.10
62.71
62.02
59.74
55.61
49.72
42.62
35.30
28.81
23.92
20.90
19.61
19.63
20.57
22.11
23.98
25.93
27.67
28.96
29.69
29.88
29.58
28.73
27.06
24.23
19.92
14.10
7.05
-0.68
-8.42
-15.61
-21.88
-27.09
-31.22
-34.29
-36.36
-37.52
-37.88
-37.64
-36.97
-36.07
-35.09
-34.15
-33.39
-32.99
-33.15
-34.02
-35.63
-37.78
-40.10
-42.16
-43.61
-44.33
-44.45
-44.28
-44.22
-44.56
-45.39
-46.50
-47.35
-47.19
-45.21
-40.80
-33.75
-24.30
-13.13
-1.03
11.28
23.34
35.03
46.37
57.42
68.04
77.87
86.34
