1660752572.00
64.000000
-0.00
-0.00
-0.00
-0.00
-0.00
-0.00
-0.00
-0.00
-0.00
-0.00
0.00
0.01
0.01
-0.00
-0.03
-0.05
-0.05
0.00
0.13
0.36
0.66
1.01
1.37
1.72
2.06
2.40
2.79
3.24
3.80
4.42
5.06
5.66
6.20
6.68
7.15
7.68
8.31
9.14
10.09
11.04
11.88
12.56
13.14
13.76
14.65
15.96
17.91
20.32
22.90
25.38
27.58
29.57
31.68
34.32
37.81
42.54
48.15
54.10
59.83
64.97
69.58
74.14
79.34
85.71
93.76
103.00
112.62
121.73
129.77
136.75
143.30
150.75
157.77
166.64
177.95
191.79
206.97
220.57
228.25
225.36
208.53
176.87
132.76
80.05
23.07
-34.94
-92.44
-149.16
-205.23
-260.37
-313.74
-363.87
-409.83
-450.91
-486.50
-515.74
-537.23
-549.22
-549.96
-538.37
-514.21
-478.67
-433.88
-382.45
-327.02
-269.84
-212.63
-156.66
-102.95
-52.37
-5.90
35.58
71.43
101.35
125.50
144.38
158.69
169.15
176.37
180.75
182.57
182.07
179.51
175.23
169.65
163.17
156.14
148.80
141.30
133.71
126.05
118.36
110.69
103.10
95.68
88.48
81.56
74.96
68.67
62.69
57.02
51.63
46.52
41.71
37.20
33.03
29.19
25.68
22.47
19.51
16.74
14.16
11.79
9.65
7.81
6.31
5.11
4.13
3.24
2.32
1.32
0.29
-0.67
-1.39
-1.77
-1.83
-1.75
-1.76
-2.09
-2.84
-3.89
-4.96
-5.74
-6.00
-5.76
-5.30
-5.04
-5.35
-6.38
-7.94
-9.56
-10.76
-11.21
-10.94
-10.29
-9.77
-9.81
-10.70
-12.49
-15.11
-18.17
-20.89
-22.07
-20.40
-15.03
-6.15
4.82
15.63
24.00
28.51
29.05
26.59
22.51
17.84
13.03
8.04
2.82
-2.30
-6.62
-9.34
-9.95
-8.51
-5.69
-2.53
-0.05
1.20
1.26
0.76
0.63
1.61
3.94
7.21
10.62
13.36
14.96
15.53
15.56
15.70
16.40
17.75
19.53
21.37
22.98
24.25
25.24
26.07
26.94
27.89
28.83
29.55
29.65
28.71
26.41
22.83
18.14
12.95
7.95
3.72
0.39
-2.38
-5.20
-8.66
-12.99
-17.79
-21.99
-24.39
-24.05
-20.73
-15.00
-7.88
-0.47
6.34
11.69
14.83
15.11
12.66
8.88
6.31
7.59
13.94
23.98
33.77
38.76
35.85
25.21
10.05
-5.07
-16.63
-23.43
-26.61
-28.62
-31.00
-34.32
-38.41
-42.93
-47.77
-52.73
-57.09
-59.36
-57.73
-50.92
-39.26
-24.81
-10.69
0.18
6.24
7.71
6.14
3.54
1.56
0.95
1.77
3.68
6.26
9.06
11.75
14.12
16.29
18.72
21.92
26.29
31.84
38.14
44.52
50.34
55.24
59.20
62.46
65.19
67.45
69.25
70.69
72.16
74.34
78.05
83.82
91.74
101.31
111.51
120.97
128.17
131.67
130.15
122.73
109.20
90.19
67.07
41.52
15.10
-11.12
-36.40
-59.78
-79.68
-93.84
-99.87
-96.29
-83.43
-63.84
-42.01
-23.31
-12.78
-13.96
-28.06
-53.72
-87.23
-123.46
-156.91
-183.03
-199.10
-204.56
-200.81
-190.44
-176.48
-161.74
-148.42
-138.03
-131.31
-128.26
-128.25
-130.18
-132.80
-135.04
-136.23
-136.14
-134.82
-132.34
-128.60
-123.30
-115.97
-106.26
-94.11
-79.88
-64.32
-48.46
-33.42
-20.19
-9.58
-2.11
1.97
2.67
0.22
-4.90
-11.96
-19.89
-27.31
-32.66
-34.53
-32.05
-25.15
-14.70
-2.21
10.54
22.02
31.16
37.52
41.20
42.72
42.92
42.68
42.79
43.73
45.58
48.03
50.51
52.41
53.15
52.36
49.95
46.12
41.48
36.90
33.38
31.72
32.30
34.89
38.72
42.73
45.81
47.07
45.90
42.14
36.12
28.76
21.56
16.51
15.56
20.06
30.11
44.29
59.88
73.55
82.52
85.24
81.83
73.71
62.86
51.15
39.89
29.87
21.63
15.76
12.80
13.05
16.21
21.35
27.11
32.18
35.69
37.42
37.66
36.90
35.53
33.67
31.17
27.76
23.27
17.81
12.03
7.13
4.49
5.07
8.67
13.64
17.39
17.43
12.73
4.32
-4.90
-11.43
-12.60
-7.55
2.58
15.43
28.42
39.60
47.94
53.20
55.63
55.72
54.10
51.38
48.06
44.52
41.00
37.61
34.34
31.03
27.40
23.05
17.66
11.20
4.04
-3.02
-9.08
-13.37
-15.63
-16.11
-15.46
-14.38
-13.31
-12.32
-11.15
-9.48
-7.19
-4.48
-1.88
-0.00
0.66
-0.00
-1.65
-3.63
-5.25
-6.06
-6.02
-5.43
-4.70
-4.04
-3.35
-2.25
-0.39
2.34
5.69
9.20
12.48
15.44
18.23
21.08
24.01
26.79
29.07
30.60
31.36
31.48
31.14
30.38
29.21
27.63
25.78
23.83
21.86
19.77
17.29
14.21
10.57
6.65
2.75
-1.08
-5.15
-9.94
-15.69
-22.04
-28.00
-32.33
-34.01
-32.73
-28.93
-23.54
-17.55
-11.68
-6.21
-1.15
3.51
7.61
10.76
12.57
12.81
11.62
9.54
7.31
5.72
5.29
6.15
7.95
10.03
11.62
12.13
11.31
9.41
7.02
5.00
4.15
5.00
7.56
11.26
15.03
17.58
17.75
15.03
9.81
3.37
-2.40
-5.57
-4.86
-0.09
7.70
16.48
23.74
27.18
25.30
17.85
5.92
-8.38
-22.48
-34.09
-41.83
-45.44
-45.68
-43.77
-40.85
-37.59
-34.11
-30.26
-25.85
-20.86
-15.45
-9.91
-4.55
0.38
4.63
8.02
10.56
12.56
14.74
18.04
23.24
30.40
38.54
45.68
49.39
47.60
39.27
24.82
5.98
-14.67
-34.23
-50.04
-60.15
-63.70
-61.25
-54.79
-47.27
-41.61
-39.70
-41.64
-45.86
-49.90
-51.53
-49.68
-44.61
-37.54
-29.84
-22.42
-15.54
-9.04
-2.70
3.52
9.38
14.59
18.94
22.44
25.29
27.85
30.50
33.63
37.60
42.68
48.93
56.07
63.35
69.51
72.89
71.75
64.73
51.52
33.23
12.35
-7.79
-24.07
-34.55
-39.06
-39.05
-36.84
-34.53
-33.30
-33.19
-33.43
-33.06
-31.38
-28.16
-23.51
-17.77
-11.47
-5.28
0.04
3.88
6.19
7.71
9.82
13.96
20.89
30.33
41.09
51.67
60.83
67.71
71.54
71.37
66.03
54.84
38.19
17.92
-3.29
-22.92
-39.61
-53.32
-64.70
-73.99
-80.42
-82.42
-78.58
-68.70
-54.27
-38.02
-22.99
-11.43
-4.25
-1.04
-0.65
-1.87
-3.88
-6.36
-9.28
-12.57
-15.89
-18.71
-20.55
-21.22
-20.99
-20.42
-20.13
-20.47
-21.45
-22.74
-23.89
-24.56
-24.72
-24.56
-24.43
-24.65
-25.30
-26.22
-27.02
-27.31
-26.83
-25.58
-23.73
-21.56
-19.30
-17.12
-15.08
-13.18
-11.38
-9.46
-7.04
-3.66
1.12
7.37
14.80
22.63
29.95
35.94
40.11
42.39
43.00
42.26
40.48
37.94
34.94
31.78
28.81
26.27
24.21
22.44
20.64
18.50
15.90
12.92
9.81
6.85
4.18
1.77
-0.56
-3.06
-5.93
-9.20
-12.68
-15.99
-18.60
-20.02
-19.96
-18.43
-15.77
-12.55
-9.33
-6.48
-3.91
-1.11
2.73
8.39
16.23
26.00
36.84
47.55
57.02
64.51
69.88
73.48
75.90
77.77
79.59
81.69
84.22
87.13
90.16
92.91
95.08
96.63
98.00
99.94
103.12
107.55
112.02
114.06
110.42
98.10
75.45
42.91
3.08
-39.80
-80.75
-114.99
-138.58
-149.00
-145.51
-129.36
-103.64
-72.74
-41.33
-13.26
9.33
26.21
38.68
48.78
58.48
69.23
81.77
96.40
113.10
131.58
151.18
170.41
186.86
197.31
198.54
188.25
166.00
133.29
92.95
48.13
1.52
-44.81
-88.96
-128.74
-161.55
-185.00
-197.79
-200.30
-194.41
-182.78
-167.88
-151.28
-133.60
-114.95
-95.40
-75.33
-55.61
-37.42
-22.14
-11.12
-5.56
-6.22
-13.32
-26.38
-44.07
-64.17
-83.79
-99.88
-109.94
-112.79
-108.97
-100.56
-90.48
-81.43
-75.12
-71.97
-71.35
-72.17
-73.39
-74.35
-74.65
-74.08
-72.43
-69.64
-65.81
-61.31
-56.59
-52.04
-47.69
-43.28
-38.32
-32.47
-25.77
-18.75
-12.26
-7.22
-4.22
-3.37
-4.20
-5.93
-7.65
-8.63
-8.45
-7.12
-5.01
-2.79
-1.18
-0.70
-1.38
-2.61
-3.27
-2.06
1.98
9.13
18.79
29.76
40.61
50.20
57.93
63.89
68.63
72.90
77.28
81.81
85.80
87.80
85.84
77.90
62.53
39.38
9.67
-23.53
-55.60
-81.14
-95.20
-94.75
-79.72
-53.12
-20.19
13.15
41.84
62.64
74.30
77.08
72.19
61.37
46.68
30.47
14.99
1.98
-7.84
-14.81
-19.95
-24.35
-28.50
-32.05
-33.94
-32.87
-27.93
-19.05
-7.22
5.72
17.59
26.51
31.42
32.29
29.95
25.64
20.61
15.74
11.48
7.98
5.25
3.24
1.82
0.77
-0.19
-1.23
-2.39
-3.50
-4.34
-4.73
-4.64
-4.16
-3.41
-2.54
-1.66
-0.89
-0.44
-0.52
-1.35
-3.10
-5.85
-9.52
-13.84
-18.32
-22.26
-24.92
-25.69
-24.33
-21.12
-16.76
-12.22
-8.38
-5.81
-4.67
-4.75
-5.69
-7.09
-8.66
-10.19
-11.49
-12.29
-12.31
-11.20
-8.79
-5.11
-0.49
4.56
9.46
13.73
17.12
19.59
21.27
22.36
23.08
23.50
23.63
23.30
22.35
20.63
18.12
14.95
11.38
7.67
4.02
0.62
-2.37
-4.70
-5.99
-5.90
-4.26
-1.25
2.60
6.56
9.99
12.42
13.73
13.99
13.39
12.14
10.44
8.49
6.50
4.70
3.28
2.37
2.00
2.18
2.82
3.78
4.93
6.13
7.28
8.32
9.21
9.88
10.21
10.03
9.20
7.55
4.96
1.37
-3.18
-8.39
-13.73
-18.43
-21.68
-22.85
-21.71
-18.49
-13.88
-8.74
-3.92
-0.03
2.64
4.08
4.52
4.27
3.66
2.92
2.22
1.64
1.25
1.17
1.47
2.18
3.16
4.15
4.79
4.75
3.86
2.18
-0.05
-2.50
-4.92
-7.17
-9.28
-11.38
-13.63
-16.20
-19.20
-22.64
-26.39
-30.08
-33.09
-34.70
-34.28
-31.54
-26.66
-20.30
-13.36
-6.76
-1.13
3.30
6.63
9.16
11.15
12.73
13.82
14.28
13.95
12.86
11.21
9.36
7.71
6.56
6.05
6.05
6.28
6.43
6.23
5.57
4.45
2.99
1.35
-0.33
-1.97
-3.53
-5.02
-6.51
-8.08
-9.82
-11.71
-13.60
-15.16
-15.97
-15.57
-13.69
-10.34
-5.86
-0.85
4.00
8.14
11.30
13.53
15.09
16.29
17.29
18.09
18.55
18.50
17.91
16.90
15.75
14.79
14.35
14.58
15.46
16.77
18.10
19.01
19.12
18.28
16.65
14.58
12.54
10.82
9.48
8.29
6.92
5.07
2.61
-0.29
-3.27
-5.80
-7.39
-7.59
-6.14
-3.08
1.33
6.60
12.20
17.68
22.76
27.28
31.08
33.92
35.48
35.60
34.53
32.97
31.95
32.30
34.21
37.05
39.60
40.56
39.22
35.72
30.97
26.36
23.40
23.43
27.33
35.10
45.21
54.48
58.56
53.45
37.43
12.25
-16.97
-43.62
-62.09
-69.83
-67.74
-58.94
-46.73
-32.89
-17.42
0.51
21.12
43.01
63.39
79.25
88.87
92.68
93.20
93.99
98.27
107.87
122.96
142.40
164.42
186.93
207.55
223.45
231.42
228.48
212.91
185.22
148.40
107.21
66.73
30.85
1.40
-21.81
-39.96
-53.99
-63.70
-67.86
-64.98
-54.53
-37.60
-16.61
5.87
28.59
51.76
76.94
105.55
137.08
168.22
193.85
209.33
212.79
205.76
191.70
174.46
156.63
138.75
119.64
97.68
72.46
45.31
18.89
-5.13
-25.53
-41.22
-51.28
-55.28
-53.06
-44.51
-29.70
-9.61
9.95
23.07
26.48
20.28
6.39
-12.67
-34.02
-54.92
-73.52
-96.24
-127.96
-167.85
-209.98
-248.48
-280.66
-306.45
-327.05
-344.02
-369.86
-412.44
-469.10
-528.90
-581.65
-623.05
-653.50
-675.63
-692.33
-720.16
-769.30
-836.26
-906.89
-968.16
-1014.68
-1047.01
-1068.29
-991.04
-777.08
-463.23
-135.68
139.25
341.70
480.53
573.05
634.62
676.42
691.76
676.88
639.09
594.57
557.49
533.49
521.71
518.09
518.73
510.58
486.46
449.63
411.01
380.37
360.97
351.76
346.98
341.80
327.70
301.24
265.05
225.00
189.62
161.66
140.87
120.94
97.27
66.59
30.38
-7.09
-41.16
-68.91
-90.49
-107.47
-128.26
-158.90
-200.62
-249.80
-302.01
-354.34
-405.67
-456.57
-467.39
-420.20
-329.95
-230.18
-144.78
-80.24
-33.19
2.35
31.22
56.53
73.38
78.19
72.70
62.84
54.13
49.60
50.19
55.41
64.06
69.56
67.16
56.99
43.13
30.05
20.61
15.89
15.79
19.20
21.37
18.73
10.80
-0.53
-13.45
-26.92
-39.66
-49.05
-51.22
-43.88
-26.44
-0.74
28.66
55.52
74.37
82.96
82.84
77.87
71.22
64.44
57.53
49.99
41.78
33.78
27.33
23.33
21.54
20.68
19.12
15.55
9.79
2.68
-4.34
-9.97
-13.59
-15.46
-16.60
-17.98
-20.26
-23.39
-26.56
-28.64
-28.58
-25.88
-20.74
-13.95
-6.44
0.92
7.63
13.62
19.08
24.29
29.31
33.97
37.83
40.44
41.46
40.91
39.13
36.75
34.40
32.57
31.40
30.72
30.10
29.12
27.55
25.41
23.00
20.75
19.06
18.19
18.22
18.95
19.88
20.14
18.62
14.33
6.90
-3.18
-14.60
-25.65
-34.96
-41.82
-46.45
-49.76
-52.64
-55.61
-58.65
-61.51
-64.07
-66.56
-69.25
-72.56
-76.77
-81.82
-87.36
-92.75
-97.26
-100.20
-101.21
-99.98
-96.89
-92.76
-88.56
-84.92
-81.79
-78.36
-73.14
-66.95
-59.93
-52.51
-45.33
-38.97
-33.71
-29.50
-26.11
-23.31
-21.07
-19.11
-17.13
-14.76
-11.53
-7.11
-1.50
4.84
11.18
16.68
20.96
23.89
25.58
26.34
26.51
26.40
26.17
25.86
25.37
24.73
23.92
22.91
21.66
20.06
17.86
14.66
10.10
3.98
-3.42
-11.54
-19.59
-26.82
-32.67
-36.82
-39.17
-39.71
-38.57
-35.98
-32.29
-27.93
-23.18
-18.08
-12.43
-5.90
1.73
10.36
19.56
28.66
36.96
43.90
49.11
52.48
54.09
54.22
53.33
51.89
50.39
49.13
48.33
48.13
48.67
50.06
52.32
55.27
58.59
61.85
64.65
66.82
68.34
69.29
69.59
68.88
66.57
61.99
54.82
45.24
34.06
22.46
11.65
2.54
-4.51
-9.69
-13.72
-17.55
-22.14
-28.11
-35.51
-43.64
-51.20
-56.58
-58.46
-56.19
-50.03
-40.92
-30.19
-19.19
-8.92
-0.01
7.37
13.54
19.06
24.65
30.82
37.70
45.03
52.24
58.71
63.99
67.83
70.21
71.21
70.94
69.61
67.55
65.18
62.89
60.98
59.58
58.73
58.33
58.14
57.79
56.79
54.67
51.16
46.36
40.74
34.93
29.46
24.57
20.23
16.38
13.18
11.15
10.96
13.14
17.64
23.77
30.38
36.21
40.29
42.10
41.58
38.98
34.71
29.23
23.06
16.69
10.58
5.01
0.08
-4.29
-8.16
-11.54
-14.32
-16.31
-17.36
-17.49
-16.98
-16.30
-16.00
-16.50
-17.94
-20.13
-22.65
-24.97
-26.70
-27.73
-28.21
-28.51
-29.02
-30.00
-31.48
-33.17
-34.55
-35.00
-33.88
-30.68
-25.09
-17.12
-7.16
4.10
15.67
26.50
35.66
42.51
46.93
49.18
49.86
49.71
49.47
49.74
50.92
53.17
56.37
60.10
63.70
66.31
67.05
65.16
60.34
52.90
43.81
34.53
26.51
20.77
17.53
16.18
15.57
14.41
11.70
6.91
-0.01
-8.76
-18.80
-29.35
-39.40
-47.80
-53.47
-55.71
-54.44
-50.27
-44.40
-38.28
-33.18
-29.86
-28.48
-28.61
-29.55
-30.59
-31.31
-31.55
-31.35
-30.62
-29.08
-26.31
-22.06
-16.57
-10.67
-5.57
-2.30
-1.31
-2.17
-3.79
-4.87
-4.47
-2.26
1.46
6.05
10.85
15.37
19.28
22.31
24.14
24.42
22.92
19.79
15.67
11.72
9.30
9.53
12.89
18.99
26.70
34.53
41.04
45.21
46.57
45.23
41.78
37.16
32.53
29.00
27.32
27.58
29.17
30.98
31.80
30.80
27.78
23.11
17.53
11.72
6.20
1.25
-3.03
-6.56
-9.31
-11.34
-12.89
-14.33
-16.16
-18.80
-22.40
-26.75
-31.22
-34.87
-36.74
-36.03
-32.43
-26.11
-17.74
-8.28
1.16
9.55
16.09
20.29
21.91
20.95
17.52
11.89
4.66
-3.08
-9.82
-13.97
-14.39
-10.93
-4.59
2.77
9.20
13.31
14.67
13.67
11.16
7.82
4.01
-0.19
-4.76
-9.51
-14.05
-17.86
-20.50
-21.66
-21.13
-18.72
-14.30
-7.87
0.20
8.98
17.12
23.20
26.30
26.42
24.56
22.21
20.79
20.98
22.52
24.49
25.72
25.40
23.25
19.53
14.76
9.48
4.09
-1.24
-6.45
-11.59
-16.69
-21.75
-26.68
-31.36
-35.66
-39.49
-42.80
-45.50
-47.44
-48.56
-48.90
-48.76
-48.52
-48.46
-48.45
-47.86
-45.73
-41.23
-34.15
-25.09
-15.28
-6.08
1.60
7.61
12.47
16.94
21.59
26.50
31.35
35.59
38.72
40.52
40.99
40.40
39.07
37.39
35.68
34.20
32.99
31.93
30.73
29.06
26.69
23.55
19.79
15.60
11.18
6.58
1.75
-3.46
-9.12
-15.11
-21.06
-26.35
-30.24
-32.08
-31.60
-29.00
-24.96
-20.46
-16.37
-13.20
-10.92
-9.05
-6.98
-4.21
-0.62
3.51
7.67
11.49
14.88
18.15
21.84
26.39
31.89
37.91
43.60
48.09
50.93
52.31
53.08
54.41
57.34
62.47
69.72
78.39
87.53
96.23
103.88
110.24
115.50
120.12
124.98
130.96
138.70
148.35
159.41
170.70
180.54
187.47
190.64
191.08
190.87
192.32
196.78
203.84
211.16
215.38
214.02
206.20
194.12
181.18
170.36
162.92
158.18
154.04
148.47
141.09
132.53
124.97
119.98
117.20
114.27
107.42
92.31
65.92
27.38
-30.49
-107.63
-196.48
-283.93
-355.37
-398.94
-408.37
-389.27
-349.13
-298.53
-249.76
-214.12
-199.09
-206.23
-230.01
-263.89
-301.10
-337.85
-373.69
-409.61
-445.63
-480.51
-510.98
-533.94
-548.49
-554.92
-556.51
-544.52
-511.89
-454.37
-371.94
-266.50
-141.81
-11.79
119.97
247.98
363.82
459.79
532.25
571.76
573.87
541.49
484.74
419.12
362.68
319.19
286.73
262.08
241.99
225.50
213.12
204.89
200.93
199.34
197.38
193.71
188.40
182.12
176.55
172.96
171.09
169.94
167.11
160.01
148.04
132.17
114.21
96.79
82.27
71.85
65.75
62.85
61.32
60.16
58.92
57.44
55.99
54.82
53.84
52.72
50.87
47.59
42.87
37.08
30.73
24.45
18.76
13.93
9.94
6.61
3.62
0.80
-1.92
-4.56
-7.13
-9.62
-12.05
-14.44
-16.80
-19.14
-21.46
-23.75
-26.02
-28.28
-30.58
-32.94
-35.36
-37.86
-40.42
-43.02
-45.67
-48.38
-51.18
-54.06
-57.00
-59.90
-62.65
-65.08
-67.01
-68.25
-68.65
-68.11
-66.57
-64.02
-60.51
-56.18
-51.20
-45.83
-40.42
-35.44
-31.36
-28.59
-27.35
-27.65
-29.20
-31.48
-33.93
-36.02
-37.40
-37.92
-37.55
-36.27
-34.04
-30.79
-26.52
-21.44
-16.07
-11.24
-7.91
-6.99
-9.10
-14.41
-22.71
-33.64
-46.86
-62.17
-79.43
-98.51
-119.18
-141.22
-164.74
-190.21
-218.03
-247.65
-276.71
-301.27
-316.80
-320.18
-311.17
-292.53
-268.75
-243.90
-220.08
-197.33
-174.91
-152.66
-131.54
-112.68
-96.04
-80.03
-62.47
-42.56
-22.27
-5.89
2.02
-0.92
-13.43
-31.13
-48.67
-61.99
-69.60
-72.20
-71.39
-68.24
-62.82
-54.63
-43.21
-28.99
-13.21
2.41
16.29
27.51
36.12
42.85
48.72
54.44
59.95
64.35
66.26
64.27
57.60
46.41
31.73
14.91
-2.80
-20.88
-39.64
-60.08
-83.72
-112.41
-148.11
-192.54
-246.18
-307.36
-371.73
-432.75
-483.47
-518.67
-536.59
-539.20
-531.09
-517.33
-501.71
-485.99
-470.24
-453.96
-436.83
-419.07
-400.99
-382.63
-363.55
-343.12
-320.91
-296.97
-271.98
-247.06
-223.30
-201.49
-181.84
-163.95
-147.05
-130.24
-112.75
-94.27
-74.97
-55.44
-36.49
-18.89
-3.00
11.33
24.74
38.16
52.46
68.34
86.23
106.43
128.98
153.46
178.68
202.53
222.47
236.33
243.26
244.08
240.95
236.32
231.67
226.81
220.19
210.07
195.73
178.21
159.98
143.82
131.49
123.04
116.97
111.07
103.46
93.27
80.71
66.66
52.21
38.38
26.16
16.59
10.77
9.53
13.14
21.13
32.65
46.90
63.56
82.91
105.42
131.20
159.37
188.13
215.03
237.84
255.32
267.61
276.37
284.62
296.29
315.24
343.97
381.97
424.95
465.60
495.72
509.18
504.25
484.26
456.36
428.70
407.52
395.45
391.20
390.81
389.40
382.67
367.74
343.24
308.87
264.83
211.61
150.20
82.70
13.12
-53.05
-110.09
-153.91
-183.58
-201.58
-212.52
-221.01
-229.98
-239.78
-249.04
-256.05
-260.11
-261.83
-262.68
-263.87
-265.76
-267.65
-268.39
-267.13
-263.88
-259.58
-255.51
-252.50
-250.23
-247.07
-240.56
-228.39
-209.49
-184.63
-156.19
-127.42
-101.27
-79.53
-62.75
-50.49
-41.95
-36.53
-33.79
-33.34
-34.57
-36.59
-38.43
-39.26
-38.66
-36.62
-33.33
-29.00
-23.60
-16.90
-8.65
1.11
11.90
22.85
33.23
43.11
53.73
67.20
85.47
108.97
135.71
161.35
180.68
189.40
185.76
171.16
149.55
126.30
107.05
96.89
99.46
115.90
143.46
175.01
200.22
208.62
193.56
155.12
100.28
40.16
-14.16
-55.47
-81.90
-96.00
-102.27
-104.90
-106.66
-109.06
-112.99
-119.04
-127.23
-136.68
-145.74
-152.80
-157.12
-159.28
-160.62
-162.12
-163.36
-162.27
-156.00
-142.37
-121.14
-94.26
-65.06
-36.98
-12.43
7.48
22.54
32.91
38.73
40.42
38.97
36.20
34.52
36.21
42.71
53.98
68.53
83.84
97.24
106.65
111.17
111.14
107.88
103.21
98.75
95.42
93.28
91.60
89.32
85.65
80.58
74.97
70.33
68.38
70.61
77.86
90.20
106.87
126.36
146.57
165.11
179.80
189.19
193.12
192.66
189.76
186.42
183.91
182.30
180.60
177.39
171.42
162.08
149.40
133.76
115.70
95.71
74.32
52.30
30.65
10.46
-7.49
-23.05
-36.72
-49.56
-62.97
-78.41
-97.12
-119.87
-146.36
-174.95
-202.49
-224.92
-238.30
-240.13
-230.05
-209.81
-182.49
-151.38
-119.33
-88.63
-61.29
-39.17
-23.77
-15.55
-13.50
-15.35
-18.32
-20.32
-20.69
-20.21
-20.32
-22.28
-26.51
-32.55
-39.43
-46.18
-52.16
-57.20
-61.55
-65.73
-70.31
-75.48
-80.83
-85.28
-87.28
-85.44
-79.05
-68.50
-55.10
-40.65
-26.68
-14.04
-2.72
7.84
18.41
29.55
41.50
54.01
66.50
78.13
88.09
95.87
101.41
105.15
107.79
110.10
112.62
115.77
119.85
125.09
131.53
138.66
145.39
150.12
151.25
147.78
139.75
128.31
115.40
103.15
93.31
86.74
83.13
81.12
78.68
73.92
65.81
54.69
42.20
30.62
21.96
17.11
15.43
15.01
13.44
8.75
0.21
-11.42
-24.37
-36.64
-46.87
-54.77
-61.03
-66.73
-72.93
-80.34
-89.44
-100.45
-112.89
-125.01
-133.90
-136.44
-131.16
-119.58
-105.99
-95.42
-90.77
-90.74
-90.24
-82.95
-64.79
-36.09
-1.30
33.59
64.04
88.67
108.94
127.20
144.85
161.50
175.52
185.14
189.47
188.78
183.99
176.08
165.49
152.16
135.93
117.10
96.63
76.24
58.00
43.82
34.83
30.96
30.99
32.87
34.43
33.94
30.59
24.50
16.48
7.71
-0.65
-7.65
-12.78
-16.02
-17.76
-18.68
-19.44
-20.56
-22.29
-24.72
-27.87
-31.83
-36.74
-42.64
-49.25
-55.84
-61.27
-64.26
-63.78
-59.51
-51.93
-42.24
-31.86
-22.02
-13.33
-5.90
0.50
5.96
10.35
13.51
15.42
16.48
17.31
18.36
19.69
20.90
21.65
21.97
22.56
24.51
28.71
35.32
43.76
53.02
62.22
70.92
79.05
86.39
92.21
95.19
93.78
86.91
74.49
57.55
37.96
17.98
-0.44
-15.89
-27.65
-35.55
-39.77
-40.79
-39.41
-36.78
-34.28
-33.31
-34.77
-38.65
-43.95
-48.81
-51.21
-49.64
-43.72
-34.40
-23.64
-13.67
-6.22
-1.80
0.33
1.78
4.21
8.58
14.73
21.61
27.85
32.33
34.44
34.10
31.47
26.96
21.47
16.61
14.74
17.87
26.43
38.57
50.52
58.08
58.32
50.75
37.31
21.57
6.95
-4.52
-12.55
-18.07
-22.32
-26.12
-29.66
-32.63
-33.92
-32.43
-27.55
-19.34
-8.50
3.91
16.73
28.73
38.69
47.22
55.07
62.67
69.93
76.67
83.20
90.46
99.40
110.33
125.88
147.18
