1659459839.00
64.000000
-0.00
-0.00
-0.00
-0.00
-0.00
-0.00
-0.00
-0.00
-0.00
-0.00
0.00
0.01
0.01
-0.00
-0.03
-0.05
-0.05
0.00
0.13
0.36
0.66
1.01
1.37
1.72
2.06
2.40
2.79
3.24
3.80
4.42
5.06
5.66
6.20
6.68
7.15
7.68
8.31
9.14
10.09
11.04
11.88
12.56
13.14
13.76
14.65
15.96
17.91
20.32
22.90
25.38
27.58
29.57
31.68
34.32
37.81
42.54
48.15
54.11
59.84
64.97
69.58
74.14
79.34
85.72
93.80
103.05
112.66
121.73
129.67
136.52
142.92
150.23
157.16
165.99
177.29
191.14
206.29
219.81
227.37
224.36
207.42
175.72
131.63
78.96
21.99
-36.10
-93.81
-150.84
-207.26
-262.67
-316.17
-366.27
-412.13
-453.19
-489.04
-518.86
-541.22
-554.17
-555.71
-544.54
-520.42
-484.72
-439.91
-388.95
-334.66
-279.19
-223.89
-169.52
-116.75
-66.36
-19.66
21.92
57.13
85.38
106.97
122.96
134.74
143.57
150.21
154.76
156.94
156.37
152.73
145.88
135.99
123.79
110.98
100.17
94.31
95.64
104.49
118.87
135.03
148.85
157.42
159.79
156.79
150.05
141.02
130.49
118.81
106.36
93.89
82.36
72.54
64.76
58.53
53.07
47.61
41.76
35.62
29.59
24.19
19.80
16.53
14.19
12.38
10.65
8.69
6.40
3.95
1.68
-0.12
-1.31
-1.98
-2.36
-2.71
-3.18
-3.78
-4.39
-4.80
-4.82
-4.36
-3.49
-2.36
-1.15
0.01
1.03
1.80
2.26
2.32
1.89
0.97
-0.39
-2.00
-3.61
-4.90
-5.63
-5.71
-5.28
-4.62
-4.08
-3.86
-3.95
-4.15
-4.23
-4.09
-3.82
-3.63
-3.68
-3.93
-4.22
-4.33
-4.18
-3.84
-3.47
-3.20
-3.06
-3.00
-2.93
-2.79
-2.61
-2.38
-2.14
-1.88
-1.59
-1.22
-0.70
0.06
1.09
2.36
3.69
4.91
5.86
6.53
7.01
7.41
7.82
8.20
8.47
8.54
8.43
8.25
8.10
8.01
7.87
7.50
6.72
5.48
3.78
1.75
-0.42
-2.54
-4.52
-6.27
-7.75
-8.90
-9.70
-10.14
-10.25
-10.15
-9.94
-9.73
-9.53
-9.30
-9.00
-8.62
-8.24
-7.91
-7.65
-7.34
-6.77
-5.78
-4.32
-2.60
-0.96
0.20
0.66
0.41
-0.31
-1.16
-1.80
-2.09
-2.01
-1.71
-1.36
-1.08
-0.92
-0.79
-0.60
-0.28
0.12
0.47
0.61
0.45
0.02
-0.55
-1.06
-1.38
-1.50
-1.50
-1.50
-1.58
-1.76
-1.99
-2.25
-2.50
-2.75
-3.02
-3.28
-3.49
-3.60
-3.51
-3.21
-2.76
-2.25
-1.70
-1.04
-0.17
1.01
2.44
3.94
5.18
5.89
5.94
5.43
4.60
3.72
2.94
2.31
1.80
1.41
1.22
1.32
1.74
2.33
2.85
3.01
2.70
1.98
1.13
0.46
0.18
0.30
0.64
0.97
1.10
0.98
0.70
0.42
0.26
0.23
0.21
0.03
-0.41
-1.05
-1.70
-2.09
-2.01
-1.40
-0.35
0.91
2.20
3.39
4.42
5.32
6.07
6.61
6.84
6.70
6.14
5.20
3.92
2.35
0.54
-1.38
-3.26
-4.90
-6.19
-7.14
-7.89
-8.61
-9.33
-9.93
-10.18
-9.90
-9.16
-8.28
-7.66
-7.63
-8.22
-9.18
-10.12
-10.74
-10.94
-10.91
-10.98
-11.41
-12.26
-13.40
-14.50
-15.20
-15.23
-14.48
-13.01
-11.03
-8.83
-6.73
-5.03
-3.93
-3.51
-3.71
-4.37
-5.25
-6.13
-6.90
-7.54
-8.08
-8.59
-9.05
-9.36
-9.36
-8.93
-8.03
-6.72
-5.10
-3.23
-1.13
1.27
4.03
7.08
10.27
13.39
16.24
18.73
20.86
22.67
24.11
25.03
25.21
24.52
23.06
21.17
19.36
18.09
17.56
17.64
17.93
18.03
17.69
16.87
15.66
14.15
12.33
10.10
7.42
4.35
1.08
-2.17
-5.24
-8.04
-10.54
-12.61
-13.99
-14.34
-13.40
-11.22
-8.18
-4.86
-1.81
0.64
2.45
3.77
4.69
5.14
4.91
3.80
1.81
-0.83
-3.79
-6.83
-9.90
-13.01
-16.03
-18.61
-20.16
-20.18
-18.52
-15.49
-11.75
-7.96
-4.58
-1.77
0.45
1.97
2.50
1.77
-0.32
-3.46
-7.04
-10.32
-12.77
-14.17
-14.58
-14.20
-13.16
-11.49
-9.24
-6.57
-3.86
-1.55
-0.02
0.65
0.70
0.58
0.71
1.32
2.38
3.69
5.05
6.34
7.56
8.77
9.97
11.12
12.12
12.94
13.58
14.13
14.65
15.21
15.80
16.35
16.76
16.91
16.73
16.19
15.36
14.38
13.41
12.58
11.94
11.37
10.71
9.78
8.51
7.00
5.51
4.32
3.62
3.38
3.38
3.31
2.94
2.24
1.40
0.66
0.19
-0.01
-0.10
-0.27
-0.63
-1.14
-1.75
-2.39
-3.11
-3.99
-5.10
-6.41
-7.77
-8.95
-9.74
-10.02
-9.78
-9.14
-8.27
-7.29
-6.30
-5.26
-4.12
-2.86
-1.55
-0.37
0.46
0.81
0.66
0.16
-0.46
-0.95
-1.20
-1.20
-1.05
-0.83
-0.58
-0.28
0.10
0.51
0.82
0.86
0.48
-0.28
-1.23
-2.02
-2.33
-1.99
-1.11
0.02
0.96
1.36
1.05
0.10
-1.21
-2.51
-3.46
-3.82
-3.52
-2.65
-1.41
-0.04
1.22
2.18
2.74
2.91
2.76
2.43
2.01
1.61
1.25
0.93
0.67
0.51
0.49
0.60
0.80
1.00
1.11
1.13
1.08
1.03
0.96
0.81
0.50
-0.03
-0.68
-1.28
-1.62
-1.62
-1.34
-1.02
-0.92
-1.16
-1.74
-2.54
-3.41
-4.27
-5.06
-5.73
-6.11
-5.97
-5.06
-3.31
-0.88
1.92
4.69
7.19
9.37
11.28
12.97
14.35
15.19
15.26
14.53
13.15
11.48
9.86
8.50
7.37
6.30
5.15
3.91
2.73
1.80
1.22
0.90
0.55
-0.15
-1.36
-3.01
-4.79
-6.32
-7.31
-7.70
-7.68
-7.50
-7.35
-7.30
-7.30
-7.31
-7.36
-7.50
-7.76
-8.07
-8.22
-7.97
-7.20
-5.91
-4.30
-2.63
-1.14
0.07
1.01
1.77
2.37
2.81
3.02
2.92
2.52
1.92
1.28
0.74
0.37
0.13
-0.09
-0.41
-0.84
-1.29
-1.63
-1.77
-1.72
-1.58
-1.53
-1.66
-2.00
-2.44
-2.87
-3.16
-3.29
-3.31
-3.31
-3.39
-3.58
-3.91
-4.33
-4.79
-5.18
-5.39
-5.28
-4.78
-3.87
-2.65
-1.29
0.00
1.09
1.91
2.47
2.82
2.99
2.99
2.85
2.62
2.37
2.17
2.09
2.13
2.25
2.39
2.46
2.41
2.25
2.02
1.82
1.70
1.69
1.73
1.74
1.65
1.45
1.19
0.92
0.73
0.62
0.51
0.26
-0.27
-1.21
-2.54
-4.07
-5.47
-6.36
-6.53
-6.05
-5.29
-4.73
-4.70
-5.18
-5.76
-5.91
-5.25
-3.88
-2.33
-1.40
-1.77
-3.70
-6.89
-10.54
-13.66
-15.47
-15.70
-14.69
-13.38
-12.92
-14.25
-17.69
-22.71
-27.97
-31.65
-32.23
-29.15
-23.59
-18.51
-17.93
-25.37
-42.02
-65.59
-90.46
-109.28
-115.20
-103.97
-75.11
-31.96
19.14
70.38
114.23
145.29
161.63
165.22
161.01
155.02
152.01
153.93
159.76
166.61
171.42
172.24
168.67
161.46
151.95
141.73
132.25
124.73
119.84
117.50
116.94
116.88
115.95
112.93
107.14
98.60
87.95
76.22
64.72
54.58
46.62
41.00
37.03
33.57
29.59
24.54
18.43
11.70
4.87
-1.65
-7.67
-13.68
-20.16
-27.26
-34.78
-42.47
-50.11
-57.77
-65.53
-73.40
-82.39
-92.86
-104.05
-114.51
-123.04
-129.12
-133.55
-137.29
-140.99
-147.07
-156.45
-167.67
-177.57
-183.24
-182.70
-176.34
-165.05
-149.96
-136.03
-126.80
-122.49
-120.84
-119.92
-119.27
-122.09
-132.05
-151.99
-187.70
-240.54
-305.01
-370.44
-425.76
-462.14
-477.04
-471.08
-417.98
-312.02
-173.02
-35.50
74.30
142.10
180.96
202.16
213.03
217.85
214.97
203.41
186.13
169.10
157.42
153.93
156.34
161.48
166.72
166.86
159.45
146.32
132.13
120.93
114.91
112.30
110.84
109.01
104.00
94.84
83.08
71.71
63.03
58.05
55.37
53.55
51.73
48.60
43.76
37.89
32.28
27.88
25.05
23.09
21.37
19.59
17.31
14.41
11.15
8.05
5.53
3.86
2.92
2.55
2.58
2.86
3.25
3.61
3.86
3.94
3.82
3.46
2.88
2.11
1.24
0.40
-0.29
-0.71
-0.81
-0.63
-0.29
-0.02
0.01
-0.33
-0.98
-1.79
-2.56
-3.16
-3.59
-3.89
-4.11
-4.18
-3.99
-3.41
-2.50
-1.49
-0.70
-0.44
-0.80
-1.66
-2.71
-3.64
-4.21
-4.31
-3.89
-2.95
-1.53
0.30
2.29
4.12
5.44
5.96
5.65
4.68
3.40
2.11
1.03
0.17
-0.55
-1.17
-1.69
-2.10
-2.51
-3.16
-4.32
-6.10
-8.30
-10.35
-11.58
-11.45
-9.84
-7.07
-3.76
-0.53
2.15
4.05
5.18
5.64
5.60
5.20
4.55
3.71
2.70
1.55
0.34
-0.73
-1.49
-1.80
-1.68
-1.28
-0.83
-0.50
-0.36
-0.30
-0.17
0.11
0.45
0.58
0.23
-0.77
-2.38
-4.43
-6.85
-9.85
-13.78
-18.81
-24.58
-30.22
-34.58
-36.82
-36.83
-35.16
-32.67
-29.88
-26.74
-22.76
-17.50
-11.02
-4.05
2.24
6.72
8.75
8.42
6.44
3.85
1.64
0.44
0.42
1.31
2.68
4.15
5.44
6.30
6.45
5.62
3.82
1.55
-0.21
-0.35
1.78
5.96
11.12
15.78
18.74
19.54
18.49
16.35
13.86
11.41
9.10
6.88
4.85
3.22
2.17
1.69
1.46
1.00
-0.07
-1.81
-3.84
-5.46
-5.97
-4.96
-2.48
0.88
4.21
6.55
7.22
6.11
3.74
1.18
-0.27
0.41
3.53
8.60
14.49
19.89
23.82
25.85
26.14
25.15
23.41
21.31
19.03
16.61
14.03
11.22
8.15
4.90
1.69
-1.17
-3.35
-4.66
-5.15
-5.08
-4.74
-4.39
-4.19
-4.27
-4.80
-5.98
-7.94
-10.55
-13.36
-15.63
-16.62
-15.85
-13.34
-9.63
-5.59
-2.08
0.37
1.65
2.03
1.93
1.68
1.38
0.91
0.12
-1.08
-2.61
-4.24
-5.64
-6.47
-6.46
-5.43
-3.36
-0.53
2.46
4.76
5.46
4.01
0.56
-3.89
-7.75
-9.35
-7.66
-2.62
4.79
12.98
20.25
25.27
27.37
26.61
23.75
19.95
16.49
14.42
14.24
15.76
18.25
20.68
22.07
21.84
19.84
16.28
11.52
5.93
0.01
-5.54
-9.84
-12.10
-12.09
-10.42
-8.52
-8.07
-10.29
-15.23
-21.55
-26.97
-29.20
-27.03
-20.94
-12.90
-5.49
-0.71
0.90
0.20
-1.24
-2.21
-2.53
-3.15
-5.33
-9.74
-15.82
-21.94
-26.18
-27.25
-25.10
-20.77
-15.83
-11.69
-9.16
-8.29
-8.52
-9.06
-9.10
-8.05
-5.64
-1.79
3.46
10.04
17.73
25.96
33.72
39.66
42.54
41.78
37.84
32.19
26.78
23.26
22.38
23.76
26.25
28.52
29.61
29.22
27.59
25.21
22.52
19.80
17.15
14.60
12.18
9.91
7.89
6.30
5.47
5.82
7.62
10.81
14.90
19.03
22.34
24.24
24.60
23.66
21.83
19.42
16.58
13.37
9.82
6.04
2.21
-1.50
-4.97
-8.28
-11.71
-15.60
-20.19
-25.39
-30.74
-35.56
-39.36
-42.09
-44.27
-46.69
-49.88
-53.66
-57.05
-58.60
-57.03
-51.87
-43.68
-33.81
-23.82
-14.88
-7.39
-1.07
4.68
10.29
15.71
20.46
23.97
25.97
26.66
26.60
26.34
26.12
25.84
25.18
23.99
22.38
20.71
19.31
18.21
17.11
15.55
13.31
10.70
8.50
7.65
8.66
11.26
14.41
16.73
17.22
15.76
13.14
10.70
9.53
9.99
11.53
13.08
13.66
12.81
10.79
8.34
6.25
4.94
4.30
3.77
2.68
0.56
-2.58
-6.25
-9.73
-12.31
-13.67
-13.91
-13.55
-13.30
-14.03
-16.67
-22.00
-30.31
-40.90
-51.86
-60.47
-64.03
-61.04
-51.91
-38.95
-25.43
-14.40
-7.59
-5.16
-5.98
-8.55
-11.57
-14.31
-16.48
-17.98
-18.67
-18.32
-16.75
-13.93
-10.15
-5.99
-2.15
0.80
2.68
3.82
5.06
7.51
12.18
19.45
28.79
38.61
46.72
51.08
50.69
46.16
39.54
33.46
29.97
29.74
31.88
34.63
36.33
36.21
34.50
31.98
29.28
26.50
23.15
18.64
12.73
5.80
-1.24
-7.41
-12.12
-15.45
-18.02
-20.72
-24.28
-29.13
-35.46
-43.33
-52.63
-62.86
-72.89
-81.01
-85.26
-84.20
-77.48
-66.07
-51.98
-37.45
-24.35
-13.67
-5.60
0.26
4.47
7.54
9.75
11.16
11.76
11.58
10.88
10.18
10.06
10.88
12.61
14.80
16.87
18.48
19.72
21.13
23.50
27.44
33.01
39.56
45.80
50.12
51.24
48.78
43.52
37.23
31.97
29.24
29.43
31.78
34.85
37.31
38.41
38.15
36.92
35.04
32.51
29.03
24.23
18.07
10.99
3.81
-2.64
-7.87
-11.97
-15.58
-19.49
-24.35
-30.47
-37.93
-46.64
-56.32
-66.14
-74.50
-79.18
-78.11
-70.43
-57.23
-41.47
-26.89
-16.48
-11.26
-10.07
-10.41
-9.82
-7.02
-2.27
3.11
7.64
10.49
11.74
12.16
12.66
13.78
15.48
17.34
18.87
19.92
20.63
21.29
22.08
22.99
23.94
25.02
26.49
28.60
31.38
34.37
36.78
37.83
37.06
34.50
30.60
25.92
20.95
15.94
11.09
6.53
2.37
-1.34
-4.74
-8.15
-11.98
-16.55
-22.00
-28.13
-34.42
-40.10
-44.37
-46.61
-46.60
-44.51
-40.83
-36.18
-31.25
-26.59
-22.59
-19.37
-16.75
-14.26
-11.30
-7.38
-2.33
3.61
9.88
15.76
20.69
24.33
26.63
27.76
28.07
28.01
28.04
28.46
29.33
30.39
31.13
30.99
29.59
26.92
23.41
19.73
16.46
13.76
11.22
8.07
3.60
-2.39
-9.45
-16.60
-22.76
-27.12
-29.37
-29.66
-28.51
-26.58
-24.54
-22.90
-21.83
-21.09
-20.17
-18.53
-16.01
-12.99
-10.26
-8.60
-8.35
-9.28
-10.77
-12.27
-13.68
-15.35
-17.84
-21.45
-25.86
-30.17
-33.18
-33.90
-31.96
-27.98
-23.48
-20.33
-20.03
-22.87
-27.56
-31.64
-32.47
-28.37
-19.41
-7.37
5.14
15.78
23.36
27.90
30.21
31.16
31.42
31.47
31.87
33.30
36.31
40.90
46.39
51.54
55.16
56.60
56.05
54.40
52.72
51.78
51.70
51.94
51.56
49.64
45.69
39.94
33.31
27.09
22.47
19.99
19.26
19.02
17.68
14.05
7.86
-0.14
-8.64
-16.45
-23.10
-28.92
-34.63
-40.77
-47.35
-53.92
-59.99
-65.51
-70.87
-76.60
-82.87
-89.15
-94.33
-97.16
-96.78
-93.15
-87.01
-79.56
-72.03
-65.15
-59.01
-53.05
-46.51
-38.80
-29.77
-19.71
-9.15
1.42
11.65
21.25
29.80
36.71
41.39
43.53
43.41
41.88
40.14
39.30
39.96
42.08
45.06
48.04
50.20
51.08
50.67
49.34
47.67
46.16
45.07
44.28
43.38
41.81
39.28
35.93
32.44
29.75
28.51
28.70
29.61
30.14
29.48
27.47
24.67
21.82
19.33
17.01
14.25
10.57
6.08
1.43
-2.61
-5.71
-8.29
-11.27
-15.49
-21.21
-27.97
-34.77
-40.53
-44.44
-46.14
-45.78
-43.89
-41.37
-39.26
-38.43
-39.11
-40.67
-41.72
-40.73
-36.77
-29.98
-21.49
-12.80
-5.10
1.22
6.40
10.84
14.63
17.43
18.72
18.28
16.43
13.95
11.73
10.33
9.81
9.92
10.25
10.62
11.05
11.78
12.98
14.59
16.26
17.49
17.80
16.97
15.22
13.18
11.71
11.55
13.05
15.98
19.59
22.91
25.18
26.06
25.74
24.72
23.54
22.56
21.89
21.48
21.27
21.27
21.49
21.76
21.72
20.76
18.29
13.96
7.93
0.95
-5.89
-11.52
-15.29
-17.24
-18.00
-18.55
-19.87
-22.83
-28.06
-35.78
-45.42
-55.45
-63.52
-67.11
-64.60
-56.10
-43.63
-30.37
-19.42
-12.61
-10.03
-10.40
-11.96
-13.37
-14.07
-14.16
-14.00
-13.79
-13.46
-12.70
-11.22
-8.88
-5.87
-2.59
0.49
3.03
5.02
6.80
8.97
12.16
16.80
22.85
29.80
36.73
42.51
46.17
47.19
45.68
42.34
38.20
34.30
31.38
29.71
29.18
29.40
29.87
30.06
29.49
27.77
24.63
19.99
14.03
7.18
0.08
-6.47
-11.75
-15.26
-16.89
-17.01
-16.34
-15.84
-16.49
-19.16
-24.42
-32.34
-42.25
-52.66
-61.51
-66.72
-66.96
-62.10
-53.37
-42.83
-32.62
-24.29
-18.43
-14.82
-12.79
-11.60
-10.64
-9.54
-8.13
-6.43
-4.59
-2.74
-0.95
0.89
2.95
5.30
7.85
10.33
12.43
14.06
15.40
16.95
19.33
22.92
27.69
33.10
38.24
42.17
44.24
44.37
42.99
40.83
38.59
36.61
34.85
32.97
30.66
27.81
24.64
21.56
18.86
16.48
13.91
10.44
5.49
-0.86
-7.76
-13.86
-17.92
-19.45
-18.95
-17.80
-17.56
-19.48
-24.15
-31.65
-41.56
-52.88
-63.89
-72.18
-75.25
-71.52
-61.31
-46.93
-31.97
-19.76
-12.03
-8.48
-7.33
-6.64
-5.31
-3.41
-1.62
-0.46
0.12
0.75
2.11
4.49
7.72
11.31
14.73
17.64
19.84
21.27
21.92
21.92
21.56
21.36
21.82
23.22
25.43
27.93
30.01
31.02
30.61
28.75
25.73
21.95
17.85
13.79
10.06
6.82
4.24
2.40
1.33
0.88
0.65
0.08
-1.42
-4.19
-8.19
-12.85
-17.27
-20.55
-22.09
-21.82
-20.20
-18.02
-16.06
-14.85
-14.54
-14.92
-15.53
-15.75
-15.06
-13.13
-9.94
-5.79
-1.18
3.37
7.52
11.24
14.69
18.07
21.39
24.40
26.71
28.02
28.33
27.97
27.45
27.29
27.79
28.89
30.29
31.56
32.32
32.32
31.49
29.86
27.49
24.54
21.24
17.96
15.15
13.19
12.13
11.59
10.76
8.64
4.47
-2.01
-10.36
-19.63
-28.66
-36.53
-42.81
-47.62
-51.42
-54.69
-57.64
-60.19
-62.10
-63.30
-64.06
-64.87
-66.15
-67.87
-69.48
-70.16
-69.37
-67.13
-64.04
-60.68
-57.17
-52.83
-46.60
-37.64
-25.98
-12.64
0.79
12.81
22.58
29.96
35.28
38.91
41.06
41.82
41.36
40.07
38.51
37.23
36.56
36.62
37.35
38.61
40.28
42.19
44.17
45.95
47.18
47.56
46.88
45.06
42.17
38.43
34.19
30.01
26.55
24.43
24.03
25.23
27.36
29.38
30.23
29.30
26.58
22.67
18.33
14.14
10.23
6.36
2.15
-2.71
-8.25
-14.35
-20.76
-27.29
-33.84
-40.40
-46.91
-53.24
-59.08
-63.94
-67.23
-68.56
-67.89
-65.69
-62.74
-59.72
-56.87
-53.84
-49.92
-44.48
-37.32
-28.85
-19.84
-11.09
-3.22
3.41
8.55
12.07
13.91
14.31
13.83
13.32
13.67
15.50
18.91
23.50
28.55
33.29
37.09
39.63
40.84
40.83
39.82
38.01
35.64
32.88
29.89
26.87
24.12
21.98
20.73
20.50
21.13
22.20
23.14
23.54
23.21
22.29
21.06
19.74
18.31
16.46
13.76
9.87
4.77
-1.17
-7.32
-12.97
-17.66
-21.23
-23.85
-25.81
-27.36
-28.51
-29.11
-28.96
-28.00
-26.41
-24.62
-23.15
-22.32
-22.17
-22.36
-22.34
-21.61
-19.95
-17.41
-14.18
-10.44
-6.17
-1.37
3.77
8.61
12.22
13.70
12.78
10.03
6.72
4.28
3.67
5.02
7.79
11.11
14.24
16.86
18.96
20.68
22.09
23.12
23.60
23.44
22.66
21.42
20.04
18.82
18.10
18.11
18.97
20.62
22.84
25.29
27.59
29.37
30.37
30.45
29.62
28.06
26.01
23.72
21.37
19.05
16.70
14.19
11.27
7.61
2.87
-3.16
-10.37
-18.26
-26.01
-32.68
-37.58
-40.51
-41.93
-42.84
-44.41
-47.57
-52.47
-58.27
-63.26
-65.39
-63.11
-56.03
-45.16
-32.58
-20.65
-11.14
-4.80
-1.37
-0.04
0.04
-0.56
-1.57
-2.89
-4.50
-6.30
-8.14
-9.77
-10.86
-10.97
-9.80
-7.31
-3.83
0.02
3.48
6.01
7.43
8.03
8.54
9.91
13.02
18.32
25.54
33.66
41.11
46.33
48.33
47.14
43.69
39.41
35.58
32.95
31.62
31.34
31.82
32.80
34.02
34.94
34.77
32.62
27.94
20.88
12.42
4.14
-2.41
-6.30
-7.60
-7.41
-7.36
-9.05
-13.56
-21.27
-31.90
-44.54
-57.70
-69.24
-76.79
-78.41
-73.53
-63.42
-51.03
-39.82
-32.35
-29.30
-29.48
-30.69
-31.07
-29.85
-27.42
-24.63
-22.02
-19.51
-16.59
-12.81
-8.13
-2.99
1.98
6.34
9.94
12.94
15.62
18.20
20.86
23.83
27.41
31.83
37.07
42.59
47.36
50.27
50.57
48.43
44.89
41.45
39.29
38.78
39.30
39.73
39.12
37.18
34.43
31.70
29.60
28.05
26.30
23.35
18.60
12.30
5.53
-0.21
-3.78
-4.90
-4.39
-3.78
-4.84
-9.14
-17.82
-31.47
-49.71
-70.74
-91.21
-106.76
-113.40
-109.17
-95.17
-75.31
-54.78
-37.97
-26.98
-21.34
-18.89
-17.31
-15.16
-12.21
-8.91
-5.79
-2.97
-0.09
3.37
7.73
12.88
18.18
22.70
25.65
26.75
26.48
25.92
26.34
28.62
32.81
37.96
42.53
44.98
44.47
41.30
36.81
32.83
30.85
31.35
33.62
36.15
37.45
36.72
34.17
30.69
27.18
24.04
20.95
17.21
12.27
6.19
-0.24
-5.88
-9.74
-11.49
-11.57
-10.96
-10.79
-11.93
-14.90
-19.86
-26.68
-34.82
-43.25
-50.49
-54.98
-55.66
-52.45
-46.40
-39.30
-32.92
-28.38
-25.85
-24.76
-24.35
-24.03
-23.58
-22.97
-22.17
-20.98
-19.13
-16.34
-12.46
-7.46
-1.55
4.92
11.45
17.46
22.50
26.34
29.06
31.07
32.91
34.99
37.47
40.14
42.60
44.41
45.30
45.15
43.91
41.47
37.63
32.29
25.63
18.29
11.20
5.22
0.69
-2.64
-5.52
-8.71
-12.56
-16.93
-21.34
-25.35
-28.82
-31.85
-34.61
-37.14
-39.33
-41.09
-42.50
-43.67
-44.37
-43.74
-40.37
-32.77
-20.24
-3.37
15.93
35.12
51.89
64.82
73.47
78.02
78.85
76.23
70.58
62.61
53.45
44.36
36.28
29.49
23.66
18.19
12.67
7.09
1.88
-2.41
-5.37
-6.85
-6.98
-6.07
-4.56
-2.86
-1.27
0.10
1.43
3.05
5.22
7.90
10.62
12.64
13.27
12.12
9.21
4.88
-0.47
-6.45
-12.72
-18.93
-24.69
-29.74
-34.06
-37.92
-41.67
-45.45
-49.02
-51.86
-53.47
-53.71
-52.92
-51.76
-50.82
-50.34
-50.17
-49.88
-49.03
-47.29
-44.53
-40.74
-35.98
-30.42
-24.34
-18.10
-11.97
-6.10
-0.41
5.20
10.68
15.66
19.52
21.73
22.16
21.31
20.14
19.60
20.25
21.97
24.14
26.01
27.08
27.24
26.67
25.59
24.11
22.17
19.76
17.00
14.24
11.87
10.16
9.18
8.80
8.84
9.15
9.69
10.38
11.06
11.45
11.29
10.50
9.28
7.97
6.88
6.00
5.01
3.42
0.96
-2.22
-5.61
-8.65
-11.15
-13.40
-16.06
-19.68
-24.32
-29.40
-33.98
-37.16
-38.59
-38.54
-37.73
-36.94
-36.56
-36.43
-35.94
-34.43
-31.56
-27.47
-22.67
-17.69
-12.73
-7.67
-2.26
3.50
9.12
13.74
16.53
17.20
16.21
14.64
13.72
14.26
16.37
19.51
22.81
25.51
27.17
27.74
27.46
26.65
25.63
24.60
23.64
22.74
21.75
20.56
19.13
17.66
16.56
16.33
17.31
19.51
22.46
25.36
27.33
27.72
26.32
23.34
19.28
14.76
10.25
6.09
2.44
-0.68
-3.37
-5.86
-8.48
-11.60
-15.45
-20.04
-25.09
-30.04
-34.27
-37.24
-38.70
-38.81
-38.09
-37.28
-36.99
-37.44
-38.18
-38.32
-36.83
-33.12
-27.36
-20.41
-13.43
-7.29
-2.28
1.87
5.63
9.26
12.68
15.61
17.82
19.37
20.45
21.25
21.76
21.77
21.11
19.85
18.36
17.19
16.74
17.02
17.63
17.96
17.46
15.93
13.56
10.92
8.73
7.67
8.13
10.00
12.63
14.99
16.05
15.26
12.77
9.40
6.24
4.09
3.15
2.95
2.78
2.05
0.64
-1.19
-3.13
-5.07
-7.17
-9.67
-12.56
-15.44
-17.65
-18.60
-18.11
-16.55
-14.67
-13.30
-12.99
-13.94
-15.99
-18.72
-21.50
-23.58
-24.25
-23.00
-19.79
-15.13
-9.88
-4.95
-0.97
1.87
3.72
4.81
5.31
5.22
4.48
3.08
1.13
-1.07
-3.13
-4.59
-4.98
-3.99
-1.59
1.88
5.76
9.30
11.96
13.61
14.65
15.82
17.78
20.85
24.75
28.71
31.77
33.16
32.59
30.31
26.97
23.35
20.06
17.45
15.61
14.48
13.91
13.70
13.55
13.05
11.81
9.56
6.30
2.27
-2.11
-6.36
-10.15
-13.27
-15.63
-17.28
-18.31
-18.90
-19.29
-19.86
-21.13
-23.65
-27.77
-33.34
-39.49
-44.78
-47.57
-46.75
-42.24
-35.06
-26.89
-19.38
-13.51
-9.42
-6.70
-4.81
-3.45
-2.60
-2.26
-2.31
-2.44
-2.23
-1.40
0.14
2.29
4.81
7.38
9.68
11.50
12.77
13.67
14.56
15.97
18.41
22.10
26.87
32.08
36.71
39.70
40.29
38.38
34.59
30.04
25.91
23.09
21.83
21.87
22.63
23.50
23.97
23.67
22.23
19.35
14.83
8.79
1.74
-5.50
-12.05
-17.22
-20.80
-23.02
-24.39
-25.54
-27.07
-29.38
-32.62
-36.58
-40.63
-43.77
-44.92
-43.34
-38.90
-32.25
-24.52
-16.89
-10.19
-4.72
-0.33
3.25
6.20
8.52
10.09
10.91
11.11
10.99
10.88
11.07
11.68
12.69
13.86
14.86
15.36
15.17
14.30
12.96
11.46
10.11
9.10
8.52
8.32
8.39
8.58
8.69
8.53
7.97
6.93
5.41
3.47
1.10
-1.62
-4.58
-7.51
-10.04
-11.90
-13.04
-13.72
-14.45
-15.69
-17.60
-19.95
-22.11
-23.34
-23.14
-21.46
-18.78
-15.87
-13.45
-11.92
-11.27
-11.18
-11.25
-11.15
-10.57
-9.23
-6.81
-3.09
1.82
7.39
12.80
17.26
20.42
22.53
24.22
26.17
28.64
31.48
34.19
36.35
37.78
38.58
38.99
39.11
38.82
37.85
35.95
33.13
29.76
26.43
23.75
21.92
20.69
19.43
17.56
14.95
12.08
9.84
9.00
9.71
11.26
12.37
11.72
8.61
3.26
-3.36
-10.05
-15.99
-21.10
-25.99
-31.52
-38.25
-46.13
-54.44
-62.18
-68.48
-73.02
-76.02
-78.00
-79.32
-80.05
-80.04
-79.23
-77.80
-76.02
-73.91
-70.96
-66.24
-58.83
-48.43
-35.74
-22.28
-9.84
0.27
7.63
12.74
16.54
19.92
23.39
27.03
30.69
34.17
37.35
40.18
42.63
44.68
46.29
47.48
48.35
49.06
49.77
50.50
51.10
51.33
50.97
49.99
48.60
47.16
45.95
45.07
44.17
42.49
39.00
32.65
22.93
10.25
-3.98
-17.55
-28.22
-34.52
-36.29
-34.75
-32.00
-30.30
-31.23
-35.25
-41.63
-48.76
-54.74
-57.98
-57.57
-53.44
-46.18
-36.79
-26.31
-15.67
-5.59
3.42
11.07
17.36
22.55
27.00
30.85
33.86
35.44
35.09
32.82
29.41
26.08
23.95
23.45
24.19
25.27
25.92
26.00
25.92
26.32
27.45
28.96
30.05
29.96
28.40
25.72
22.57
19.51
16.73
13.98
10.89
7.27
3.15
-1.15
-5.27
-8.90
-11.94
-14.37
-16.28
-17.78
-18.97
-20.02
-21.12
-22.51
-24.33
-26.51
-28.73
-30.48
-31.30
-30.91
-29.35
-26.96
-24.22
-21.61
-19.42
-17.70
-16.30
-15.01
-13.58
-11.86
-9.72
-7.11
-4.03
-0.53
3.27
7.14
10.78
13.93
16.42
18.15
19.07
19.14
18.30
16.54
14.04
11.15
8.36
6.01
4.15
2.43
0.42
-2.19
-5.27
-8.35
-10.84
-12.37
-13.02
-13.22
-13.53
-14.30
-15.57
-17.15
-18.74
-20.16
-21.42
-22.62
-23.86
-25.15
-26.35
-27.28
-27.76
-27.70
-27.09
-25.97
-24.44
-22.56
-20.41
-17.99
-15.28
-12.28
-8.99
-5.46
-1.82
1.75
5.12
8.24
11.13
13.84
16.37
18.69
20.73
22.44
23.80
24.82
25.53
26.00
26.38
26.90
27.89
29.53
31.86
34.64
37.49
40.09
42.36
44.45
46.64
49.09
51.69
54.04
55.59
55.76
54.13
50.47
44.81
37.43
28.91
19.95
11.34
3.69
-2.66
-7.73
-11.78
-15.19
-18.27
-21.16
-23.83
-26.14
-27.96
-29.19
-29.80
-29.83
-29.34
-28.44
-27.28
-26.03
-24.82
-23.70
-22.64
-21.53
-20.33
-19.04
-17.76
-16.61
-15.61
-14.66
-13.56
-12.13
-10.31
-8.20
-5.97
-3.84
-1.91
-0.24
1.16
2.27
3.04
3.48
3.65
3.73
3.91
4.35
5.01
5.75
6.32
6.51
6.23
5.52
4.49
3.33
2.19
1.17
0.33
-0.34
-0.89
-1.38
-1.86
-2.38
-2.93
-3.51
-4.12
-4.75
-5.34
-5.82
-6.06
-5.99
-5.61
-5.05
-4.49
-4.13
-4.04
-4.14
-4.24
-4.13
-3.68
-2.92
-2.01
-1.22
-0.77
-0.77
-1.17
-1.72
-2.14
-2.16
-1.69
-0.79
0.33
1.42
2.29
2.87
3.16
3.18
2.94
2.43
1.70
0.86
0.09
-0.46
-0.74
-0.83
-0.89
-1.07
-1.46
-2.02
-2.66
-3.26
-3.72
-4.01
-4.10
-4.05
-3.91
-3.77
-3.76
-3.95
-4.35
-4.85
-5.24
-5.35
-5.01
-4.23
-3.09
-1.76
-0.45
0.65
1.41
1.77
1.78
1.51
1.10
0.71
0.48
0.51
0.89
1.59
2.50
3.42
4.11
4.41
4.34
4.09
3.91
3.95
4.23
4.58
4.81
4.83
4.64
4.38
4.16
4.07
4.11
4.31
4.69
5.22
5.84
6.35
6.54
6.23
5.43
4.33
3.21
2.36
1.90
1.76
1.74
1.60
1.21
0.60
-0.08
-0.62
-0.88
-0.87
-0.68
-0.48
-0.37
-0.35
-0.37
-0.41
-0.51
-0.76
-1.26
-2.02
-2.93
-3.80
-4.41
-4.58
-4.27
-3.57
-2.66
-1.81
-1.22
-1.01
-1.19
-1.67
-2.31
-3.00
-3.60
-4.03
-4.20
-4.07
-3.70
-3.20
-2.68
-2.23
-1.81
-1.36
-0.84
-0.28
0.24
0.63
0.85
0.94
0.94
0.87
0.75
0.60
0.50
0.55
0.79
1.16
1.50
1.62
1.48
1.17
0.85
0.69
0.69
0.77
0.74
0.52
0.14
-0.32
-0.70
-0.92
-0.96
-0.86
-0.67
-0.47
-0.31
-0.27
-0.40
-0.72
-1.18
-1.65
-2.00
-2.16
-2.14
-1.99
-1.82
-1.68
-1.57
-1.45
-1.25
-0.98
-0.64
-0.29
0.03
0.31
0.59
0.90
1.25
1.66
2.09
2.49
2.82
3.00
3.01
2.84
2.56
2.27
2.07
2.03
2.15
2.33
2.48
2.52
2.42
2.23
1.97
1.68
1.36
1.01
0.63
0.26
-0.05
-0.29
-0.46
-0.59
-0.68
-0.72
-0.68
-0.55
-0.33
-0.06
0.20
0.42
0.60
0.78
0.98
1.19
1.39
1.55
1.68
1.77
1.85
1.88
1.81
1.59
1.18
0.66
0.14
-0.22
-0.32
-0.17
0.12
0.37
0.45
0.32
0.04
-0.25
-0.42
-0.42
-0.27
-0.09
0.01
-0.05
-0.31
-0.77
-1.36
-2.01
-2.61
-3.03
-3.15
-2.95
-2.48
-1.93
-1.52
-1.40
-1.59
-1.96
-2.25
-2.23
-1.79
-0.98
-0.03
0.82
1.37
1.55
1.45
1.21
0.95
0.70
0.44
0.11
-0.27
-0.63
-0.91
-1.01
-0.97
-0.81
-0.61
-0.40
-0.18
0.06
0.31
0.51
0.62
0.55
0.33
0.03
-0.23
-0.34
-0.26
-0.01
0.30
0.54
0.63
0.58
0.42
0.29
0.26
0.40
0.69
1.09
1.54
1.99
2.40
2.76
3.07
3.30
3.43
3.41
3.24
2.93
2.56
2.16
1.76
1.34
0.83
0.19
-0.57
-1.34
-1.97
-2.31
-2.32
-2.10
-1.80
-1.56
-1.46
-1.41
-1.30
-1.03
-0.60
-0.14
0.18
0.26
0.14
-0.05
-0.11
0.04
0.30
0.50
0.42
0.02
-0.60
-1.22
-1.61
-1.67
-1.43
-1.02
-0.58
-0.12
0.39
1.01
1.70
2.32
2.70
2.75
2.52
2.22
2.06
2.17
2.53
2.95
3.22
3.22
2.95
2.51
2.03
1.60
1.27
1.07
1.05
1.22
1.51
1.78
1.77
1.28
0.23
-1.30
-3.05
-4.73
-6.09
-7.02
-7.52
-7.65
-7.49
-7.09
-6.52
-5.89
-5.35
-5.06
-5.09
-5.34
-5.53
-5.37
-4.63
-3.31
-1.67
-0.07
1.19
1.98
2.37
2.55
2.65
2.72
2.71
2.58
2.35
2.06
1.82
1.63
1.44
1.14
0.65
-0.03
-0.82
-1.58
-2.19
-2.60
-2.83
-3.00
-3.19
-3.48
-3.86
-4.28
-4.70
-5.13
-5.59
-6.15
-6.81
-7.51
-8.14
-8.59
-8.81
-8.82
-8.75
-8.72
-8.82
-9.12
-9.60
-10.21
-10.90
-11.57
-12.06
-12.16
-11.70
-10.59
-8.91
-6.86
-4.69
-2.58
-0.57
1.39
3.42
5.51
7.56
9.40
10.88
11.92
12.53
12.80
12.83
12.66
12.32
11.84
11.26
10.64
10.00
9.37
8.73
8.08
7.44
6.83
6.29
5.81
5.39
4.96
4.49
3.94
3.31
2.64
2.00
1.42
0.93
0.51
0.14
-0.19
-0.42
-0.51
-0.40
-0.12
0.24
0.56
0.76
0.83
0.80
0.74
0.64
0.48
0.22
-0.14
-0.55
-0.94
-1.26
-1.46
-1.54
-1.49
-1.29
-0.92
-0.43
0.09
0.50
0.72
0.74
0.63
0.50
0.45
0.49
0.54
0.57
0.56
0.55
0.60
0.71
0.81
0.78
0.57
0.21
-0.17
-0.44
-0.50
-0.35
-0.09
0.13
0.23
0.15
-0.10
-0.43
-0.72
-0.83
-0.72
-0.38
0.08
0.52
0.85
1.06
1.26
1.53
1.94
2.45
2.96
3.34
3.52
3.49
3.30
3.01
2.70
2.40
2.15
1.98
1.89
1.86
1.83
1.74
1.52
1.17
0.75
0.35
0.11
0.09
0.26
0.52
0.69
0.67
0.43
0.03
-0.45
-0.91
-1.33
-1.66
-1.88
-1.91
-1.68
-1.20
-0.60
-0.06
0.22
0.14
-0.32
-1.02
-1.78
-2.42
-2.79
-2.81
-2.46
-1.81
-1.00
-0.20
0.44
0.79
0.86
0.69
0.43
0.22
0.18
0.34
0.62
0.87
0.95
0.80
0.50
0.21
0.07
0.14
0.32
0.46
0.42
0.18
-0.17
-0.46
-0.55
-0.40
-0.08
0.29
0.55
0.63
0.51
0.24
-0.10
-0.40
-0.56
-0.55
-0.38
-0.15
0.05
0.13
0.10
0.01
-0.05
-0.00
0.15
0.36
0.49
0.46
0.24
-0.14
-0.56
-0.94
-1.22
-1.44
-1.63
-1.82
-1.99
-2.11
-2.15
-2.09
-1.98
-1.86
-1.75
-1.62
-1.45
-1.20
-0.90
-0.64
-0.50
-0.54
-0.74
-1.01
-1.23
-1.31
-1.21
-0.97
-0.63
-0.25
0.14
0.51
0.80
0.96
0.97
0.84
0.67
0.56
0.58
0.74
0.97
1.16
1.22
1.14
0.97
0.84
0.86
1.07
1.42
1.77
1.96
1.88
1.53
1.00
0.45
0.01
-0.24
-0.34
-0.40
-0.50
-0.71
-1.00
-1.26
-1.40
-1.33
-1.07
-0.70
-0.39
-0.27
-0.40
-0.72
-1.08
-1.31
-1.31
-1.08
-0.73
-0.42
-0.25
-0.23
-0.28
-0.32
-0.28
-0.21
-0.22
-0.38
-0.67
-0.96
-1.05
-0.81
-0.24
0.53
1.25
1.73
1.87
1.72
1.46
1.26
1.22
1.31
1.44
1.45
1.28
0.96
0.59
0.34
0.29
0.43
0.67
0.85
0.85
0.65
0.30
-0.06
-0.35
-0.50
-0.54
-0.51
-0.43
-0.29
-0.05
0.25
0.56
0.77
0.80
0.67
0.47
0.34
0.38
0.58
0.85
1.04
1.05
0.88
0.62
0.39
0.29
0.34
0.45
0.53
0.51
0.35
0.11
-0.16
-0.41
-0.62
-0.80
-0.96
-1.10
-1.23
-1.34
-1.43
-1.47
-1.42
-1.22
-0.84
-0.33
0.17
0.48
0.48
0.21
-0.15
-0.33
-0.15
0.41
1.17
1.90
2.40
2.61
2.60
2.48
2.33
2.17
1.97
1.70
1.39
1.09
0.85
0.65
0.46
0.20
-0.16
-0.61
-1.10
-1.52
-1.78
-1.83
-1.67
-1.38
-1.09
-0.95
-1.02
-1.29
-1.63
-1.94
-2.13
-2.22
-2.24
-2.22
-2.15
-1.99
-1.72
-1.41
-1.17
-1.13
-1.29
-1.55
-1.70
-1.60
-1.22
-0.69
-0.21
0.07
0.11
0.02
-0.03
0.12
0.50
1.05
1.62
2.04
2.20
2.07
1.71
1.25
0.86
0.72
0.91
1.37
1.94
2.38
2.48
2.20
1.65
1.03
0.55
0.32
0.31
0.42
0.57
0.76
1.03
1.41
1.83
2.16
2.26
2.07
1.63
1.11
0.65
0.37
0.26
0.24
0.19
0.01
-0.32
-0.78
-1.24
-1.59
-1.76
-1.79
-1.75
-1.71
-1.70
-1.70
-1.68
-1.59
-1.50
-1.46
-1.51
-1.62
-1.76
-1.84
-1.84
-1.72
-1.44
-0.99
-0.39
0.28
0.87
1.25
1.37
1.29
1.17
1.14
1.26
1.43
1.54
1.48
1.22
0.84
0.42
-0.01
-0.47
-1.00
-1.57
-2.08
-2.34
-2.25
-1.79
-1.10
-0.39
0.13
0.38
0.38
0.28
0.17
0.13
0.12
0.10
0.06
-0.01
-0.06
-0.06
-0.01
0.09
0.19
0.25
0.24
0.13
-0.09
-0.36
-0.62
-0.78
-0.77
-0.63
-0.44
-0.33
-0.37
-0.54
-0.74
-0.86
-0.82
-0.65
-0.44
-0.31
-0.34
-0.55
-0.87
-1.16
-1.33
-1.34
-1.22
-1.04
-0.83
-0.60
-0.33
0.02
0.43
0.86
1.28
1.65
1.98
2.27
2.49
2.60
2.59
2.45
2.26
2.10
2.00
1.92
1.76
1.45
0.99
0.45
-0.03
-0.35
-0.47
-0.45
-0.35
-0.24
-0.17
-0.19
-0.35
-0.66
-1.07
-1.47
-1.70
-1.62
-1.22
-0.59
0.07
0.55
0.73
0.60
0.23
-0.22
-0.63
-0.87
-0.87
-0.60
-0.12
0.42
0.88
1.11
1.07
0.81
0.46
0.18
0.05
0.07
0.17
0.22
0.13
-0.12
-0.48
-0.80
-0.98
-0.94
-0.71
-0.41
-0.19
-0.14
-0.28
-0.53
-0.75
-0.82
-0.69
-0.40
-0.05
0.21
0.32
0.24
0.05
-0.13
-0.20
-0.12
0.05
0.20
0.23
0.08
-0.25
-0.66
-1.05
-1.34
-1.45
-1.36
-1.07
-0.63
-0.12
0.35
0.70
0.90
0.95
0.91
0.84
0.79
0.76
0.72
0.66
0.59
0.51
0.45
0.45
0.49
0.58
0.70
0.81
0.88
0.93
0.96
1.02
1.09
1.14
1.05
0.77
0.28
-0.31
-0.82
-1.07
-0.97
-0.57
-0.06
0.34
0.48
0.30
-0.10
-0.55
-0.92
-1.11
-1.13
-1.05
-0.92
-0.75
-0.52
-0.23
0.10
0.38
0.53
0.50
0.35
0.23
0.27
0.55
1.00
1.44
1.67
1.57
1.19
0.69
0.28
0.10
0.19
0.47
0.79
1.02
1.07
0.98
0.82
0.66
0.52
0.35
0.10
-0.25
-0.63
-0.91
-0.96
-0.78
-0.45
-0.15
-0.01
-0.05
-0.18
-0.27
-0.25
-0.16
-0.09
-0.12
-0.26
-0.45
-0.63
-0.75
-0.78
-0.70
-0.47
-0.05
0.51
1.10
1.58
1.82
1.78
1.52
1.17
0.83
0.59
0.44
0.39
0.39
0.41
0.42
0.40
0.34
0.27
0.19
0.10
-0.02
-0.17
-0.35
-0.52
-0.64
-0.68
-0.68
-0.70
-0.82
-1.04
-1.31
-1.53
-1.60
-1.50
-1.28
-1.04
-0.88
-0.85
-0.92
-0.99
-0.93
-0.68
-0.24
0.24
0.57
0.60
0.28
-0.30
-0.93
-1.38
-1.53
-1.40
-1.15
-0.97
-0.96
-1.14
-1.37
-1.56
-1.63
-1.62
-1.62
-1.70
-1.86
-2.08
-2.35
-2.73
-3.35
-4.28
-5.56
-7.06
-8.60
-9.93
-10.87
-11.34
-11.32
-10.91
-10.21
-9.36
-8.42
-7.43
-6.32
-5.01
-3.40
-1.51
0.51
2.48
4.21
5.65
6.84
7.88
8.85
9.77
10.53
11.01
11.11
10.80
10.17
9.34
8.43
7.57
6.82
6.21
5.73
5.33
4.92
4.45
3.86
3.19
2.49
1.87
1.42
1.21
1.24
1.45
1.75
2.04
2.20
2.19
1.99
1.67
1.31
0.99
0.78
0.67
0.61
0.51
0.33
0.07
-0.20
-0.40
-0.51
-0.53
-0.48
-0.38
-0.22
0.05
0.42
0.85
1.24
1.47
1.48
1.28
0.97
0.65
0.43
0.33
0.33
0.36
0.37
0.35
0.30
0.25
0.27
0.39
0.63
0.98
1.37
1.68
1.80
1.64
1.20
0.58
-0.06
-0.55
-0.81
-0.81
-0.61
-0.31
0.03
0.31
0.47
0.46
0.29
0.01
-0.27
-0.47
-0.54
-0.51
-0.43
-0.35
-0.25
-0.09
0.12
0.32
0.43
0.42
0.34
0.33
0.48
0.82
1.24
1.58
1.70
1.56
1.20
0.75
0.30
-0.06
-0.32
-0.46
-0.48
-0.34
-0.08
0.25
0.54
0.66
0.56
0.26
-0.12
-0.43
-0.53
-0.40
-0.09
0.27
0.55
0.68
0.63
0.38
-0.05
-0.56
-1.02
-1.26
-1.15
-0.69
-0.04
0.56
0.91
0.88
0.55
0.06
-0.41
-0.76
-0.99
-1.16
-1.32
-1.49
-1.65
-1.75
-1.75
-1.65
-1.47
-1.27
-1.05
-0.83
-0.57
-0.24
0.12
0.44
0.64
0.65
0.48
0.18
-0.16
-0.41
-0.50
-0.39
-0.11
0.23
0.47
0.50
0.26
-0.21
-0.78
-1.27
-1.58
-1.64
-1.53
-1.33
-1.14
-1.01
-0.97
-1.01
-1.09
-1.18
-1.20
-1.11
-0.91
-0.64
-0.38
-0.19
-0.12
-0.16
-0.28
-0.39
-0.44
-0.37
-0.19
0.09
0.40
0.66
0.81
0.81
0.65
0.39
0.07
-0.29
-0.65
-0.93
-1.07
-1.02
-0.79
-0.47
-0.21
-0.13
-0.27
-0.55
-0.83
-0.96
-0.91
-0.72
-0.54
-0.48
-0.57
-0.74
-0.85
-0.81
-0.59
-0.25
0.10
0.35
0.49
0.55
0.57
0.59
0.56
0.43
0.19
-0.14
-0.49
-0.80
-1.03
-1.18
-1.26
-1.29
-1.26
-1.19
-1.12
-1.12
-1.24
-1.47
-1.73
-1.90
-1.90
-1.72
-1.42
-1.10
-0.83
-0.61
-0.37
-0.07
0.33
0.77
1.17
1.40
1.36
1.05
0.54
-0.03
-0.47
-0.64
-0.50
-0.07
0.52
1.16
1.75
2.26
2.68
2.98
3.10
2.97
2.57
1.96
1.26
0.64
0.21
0.00
-0.04
-0.04
-0.05
-0.11
-0.15
-0.11
0.04
0.23
0.33
0.21
-0.14
-0.63
-1.03
-1.16
-0.92
-0.41
0.17
0.61
0.82
0.83
0.76
0.73
0.74
0.74
0.66
0.50
0.30
0.16
0.14
0.19
0.21
0.12
-0.09
-0.36
-0.58
-0.66
-0.60
-0.43
-0.26
-0.15
-0.15
-0.25
-0.38
-0.49
-0.52
-0.45
-0.30
-0.13
0.02
0.10
0.12
0.10
0.10
0.16
0.28
0.42
0.51
0.51
0.39
0.22
0.05
-0.05
-0.09
-0.11
-0.19
-0.38
-0.64
-0.90
-1.07
-1.09
-1.00
-0.87
-0.82
-0.90
-1.09
-1.32
-1.47
-1.47
-1.28
-0.93
-0.51
-0.12
0.16
0.28
0.23
0.07
-0.14
-0.30
-0.34
-0.24
-0.03
0.21
0.41
0.48
0.44
0.33
0.22
0.16
0.14
0.11
0.00
-0.19
-0.42
-0.60
-0.62
-0.45
-0.12
0.23
0.45
0.41
0.11
-0.34
-0.75
-0.96
-0.90
-0.64
-0.33
-0.15
-0.18
-0.40
-0.73
-1.08
-1.39
-1.64
-1.80
-1.81
-1.62
-1.20
-0.59
0.06
0.59
0.89
0.96
0.90
0.83
0.83
0.87
0.84
0.68
0.38
0.06
-0.14
-0.11
0.12
0.44
0.65
0.63
0.37
-0.03
-0.40
-0.62
-0.65
-0.57
-0.47
-0.42
-0.41
-0.38
-0.25
-0.01
0.24
0.38
0.26
-0.13
-0.68
-1.20
-1.47
-1.41
-1.08
-0.64
-0.31
-0.19
-0.24
-0.33
-0.26
0.05
0.55
1.06
1.35
1.30
0.94
0.45
0.06
-0.09
-0.00
0.17
0.25
0.17
0.02
-0.05
0.12
0.49
0.88
1.05
0.83
0.30
-0.32
-0.73
-0.76
-0.39
0.21
0.82
1.26
1.47
1.47
1.34
1.15
0.93
0.67
0.35
-0.06
-0.49
-0.85
-1.05
-1.00
-0.71
-0.25
0.23
0.61
0.82
0.90
0.88
0.83
0.77
0.67
0.53
0.33
0.11
-0.08
-0.22
-0.33
-0.47
-0.65
-0.90
-1.15
-1.35
-1.45
-1.44
-1.34
-1.17
-0.91
-0.53
-0.07
0.37
0.64
0.62
0.35
-0.03
-0.30
-0.28
0.06
0.61
1.17
1.59
1.86
2.07
2.40
3.04
4.07
5.42
6.99
8.68
10.46
12.41
14.58
16.85
18.90
20.27
20.57
19.72
17.90
15.45
12.65
9.63
6.57
3.84
2.13
2.16
4.30
8.20
12.76
16.52
18.27
17.50
14.50
10.14
5.41
1.06
-2.44
-4.88
-6.21
-6.47
-5.84
-4.61
-3.17
-1.88
-1.05
-0.84
-1.34
-2.54
-4.28
-6.23
-7.94
-8.89
-8.72
-7.43
-5.39
-3.15
-1.22
0.22
1.34
2.50
3.98
5.72
7.28
8.14
7.94
6.78
5.17
3.82
3.29
3.79
5.08
6.62
7.80
8.20
7.73
6.62
5.32
4.30
3.88
4.17
5.05
6.24
7.42
8.37
9.03
9.43
9.69
9.82
9.78
9.40
8.55
7.13
5.20
2.91
0.50
-1.83
-3.98
-5.94
-7.77
-9.50
-11.03
-12.18
-12.77
-12.73
-12.24
-11.69
-11.58
-12.34
-14.20
-17.10
-20.70
-24.48
-27.87
-30.41
-31.82
-32.06
-31.29
-29.78
-27.81
-25.55
-23.08
-20.45
-17.74
-15.11
-12.80
-10.97
-9.70
-8.93
-8.50
-8.23
-8.05
-7.96
-8.02
-8.28
-8.64
-8.93
-8.96
-8.58
-7.84
-6.94
-6.14
-5.60
-5.33
-5.14
-4.78
-4.10
-3.12
-2.02
-0.97
-0.03
0.88
1.94
3.29
4.97
6.93
9.03
11.10
12.91
14.23
14.83
14.61
13.73
12.52
11.46
10.96
11.21
12.10
13.27
14.27
14.66
14.17
12.66
10.19
6.93
3.07
-1.12
-5.42
-9.51
-13.10
-15.91
-17.84
-18.98
-19.61
-20.01
-20.30
-20.41
-20.18
-19.54
-18.68
-17.96
-17.66
-17.81
-18.13
-18.21
-17.81
-16.94
-15.88
-14.86
-13.88
-12.63
-10.66
-7.65
-3.68
0.70
4.68
7.48
8.71
8.48
7.38
6.19
5.54
5.66
6.37
7.28
8.06
8.60
9.00
9.42
9.92
10.45
10.85
10.95
10.74
10.35
10.10
10.32
11.17
12.56
14.06
15.15
15.37
14.55
12.90
10.87
8.96
7.51
6.64
6.24
6.08
5.91
5.53
4.79
3.64
2.16
0.50
-1.18
-2.78
-4.26
-5.62
-6.78
-7.62
-8.00
-7.90
-7.50
-7.07
-6.87
-6.99
-7.30
-7.53
-7.45
-6.99
-6.26
-5.47
-4.79
-4.24
-3.70
-3.07
-2.39
-1.83
-1.58
-1.70
-2.03
-2.21
-1.93
-1.08
0.17
1.48
2.56
3.31
3.87
4.44
5.16
5.97
6.63
6.90
6.64
5.91
4.91
3.89
3.04
2.36
1.76
1.11
0.31
-0.62
-1.53
-2.21
-2.41
-2.00
-1.04
0.22
1.42
2.24
2.48
2.22
1.69
1.19
0.97
1.07
1.42
1.90
2.38
2.78
3.11
3.35
3.52
3.58
3.53
3.35
3.02
2.54
1.93
1.24
0.54
-0.10
-0.64
-1.10
-1.55
-2.07
-2.66
-3.28
-3.79
-4.08
-4.11
-3.94
-3.70
-3.53
-3.46
-3.41
-3.24
-2.85
-2.27
-1.64
-1.13
-0.82
-0.67
-0.56
-0.38
-0.12
0.16
0.37
0.48
0.59
0.79
1.12
1.52
1.85
1.99
1.94
1.79
1.67
1.69
1.86
2.15
2.53
2.96
3.38
3.71
3.87
3.79
3.49
3.04
2.54
2.03
1.47
0.78
-0.10
-1.13
-2.20
-3.17
-3.94
-4.46
-4.76
-4.83
-4.73
-4.45
-4.07
-3.64
-3.27
-3.00
-2.87
-2.85
-2.90
-2.97
-3.01
-3.00
-2.96
-2.91
-2.87
-2.87
-2.91
-2.99
-3.13
-3.32
-3.53
-3.68
-3.63
-3.26
-2.58
-1.71
-0.84
-0.19
0.15
0.21
0.12
-0.01
-0.12
-0.20
-0.25
-0.26
-0.19
-0.01
0.26
0.55
0.76
0.83
0.80
0.73
0.70
0.74
0.81
0.87
0.89
0.84
0.75
0.62
0.49
0.33
0.15
-0.04
-0.21
-0.33
-0.39
-0.43
-0.49
-0.63
-0.83
-1.03
-1.13
-1.04
-0.75
-0.30
0.17
0.56
0.82
0.98
1.10
1.26
1.49
1.74
1.96
2.08
2.09
2.00
1.89
1.77
1.69
1.60
1.49
1.33
1.12
0.93
0.83
0.86
1.02
1.22
1.39
1.44
1.37
1.23
1.07
0.92
0.75
0.52
0.22
-0.12
-0.42
-0.63
-0.75
-0.85
-0.96
-1.06
-1.07
-0.88
-0.47
0.07
0.61
1.02
1.25
1.38
1.52
1.74
2.06
2.45
2.85
3.21
3.52
3.75
3.87
3.83
3.63
3.31
2.97
2.72
2.61
2.66
2.78
2.93
3.01
3.01
2.88
2.62
2.21
1.70
1.18
0.78
0.60
0.66
0.89
1.13
1.22
1.09
0.74
0.26
-0.19
-0.49
-0.56
-0.42
-0.15
0.14
0.36
0.50
0.59
0.70
0.87
1.08
1.31
1.53
1.72
1.92
2.11
2.26
2.28
2.12
1.82
1.49
1.26
1.20
1.28
1.36
1.31
1.06
0.69
0.32
0.05
-0.06
-0.05
0.00
0.05
0.08
0.09
0.05
-0.07
-0.32
-0.69
-1.14
-1.57
-1.91
-2.14
-2.30
-2.41
-2.49
-2.51
-2.41
-2.16
-1.78
-1.32
-0.88
-0.51
-0.22
-0.02
0.16
0.38
0.71
1.15
1.69
2.21
2.61
2.79
2.72
2.43
2.03
1.61
1.28
1.10
1.05
1.11
1.21
1.27
1.25
1.15
1.04
0.99
1.05
1.19
1.31
1.31
1.13
0.79
0.35
-0.11
-0.57
-1.05
-1.56
-2.08
-2.48
-2.63
-2.47
-2.05
-1.56
-1.20
-1.12
-1.26
-1.43
-1.39
-0.97
-0.21
0.68
1.44
1.84
1.83
1.50
1.05
0.68
0.48
0.47
0.56
0.68
0.78
0.86
0.91
0.90
0.81
0.58
0.18
-0.34
-0.91
-1.45
-1.93
-2.36
-2.77
-3.21
-3.69
-4.21
-4.79
-5.46
-6.27
-7.22
-8.26
-9.28
-10.18
-10.87
-11.37
-11.74
-12.00
-12.14
-12.09
-11.79
-11.25
-10.47
-9.46
-8.17
-6.52
-4.46
-2.02
0.64
3.30
5.73
7.83
9.57
11.00
12.15
13.01
13.54
13.73
13.62
13.32
12.95
12.54
12.05
11.39
10.48
9.38
8.26
7.33
6.76
6.57
6.63
6.69
6.55
6.12
5.44
4.69
4.00
3.47
3.07
2.73
2.36
1.96
1.57
1.26
1.07
0.99
0.97
0.95
0.94
0.98
1.11
1.28
1.36
1.14
0.43
-0.86
-2.65
-4.72
-6.76
-8.47
-9.67
-10.37
-10.67
-10.75
-10.75
-10.73
-10.62
-10.33
-9.67
-8.43
-6.43
-3.56
0.04
3.97
7.66
10.58
12.49
13.57
14.38
15.50
17.28
19.62
22.06
24.02
25.15
25.33
24.64
23.17
20.92
17.80
13.86
9.33
4.70
0.58
-2.52
-4.33
-4.95
-4.75
-4.26
-3.97
-4.15
-4.80
-5.71
-6.58
-7.20
-7.53
-7.70
-7.92
-8.29
-8.79
-9.24
-9.46
-9.36
-8.94
-8.34
-7.69
-7.09
-6.61
-6.24
-5.96
-5.77
-5.67
-5.64
-5.67
-5.75
-5.79
-5.71
-5.45
-4.96
-4.30
-3.59
-2.95
-2.47
-2.14
-1.91
-1.70
-1.46
-1.18
-0.89
-0.61
-0.38
-0.22
-0.14
-0.15
-0.26
-0.43
-0.64
-0.79
-0.85
-0.77
-0.58
-0.37
-0.21
-0.19
-0.32
-0.59
-0.91
-1.17
-1.30
-1.24
-1.03
-0.72
-0.40
-0.15
-0.01
-0.01
-0.11
-0.28
-0.49
-0.73
-1.00
-1.31
-1.65
-1.98
-2.28
-2.52
-2.66
-2.68
-2.56
-2.29
-1.91
-1.47
-1.07
-0.78
-0.66
-0.67
-0.73
-0.72
-0.54
-0.17
0.34
0.89
1.37
1.67
1.79
1.73
1.56
1.35
1.16
1.06
1.05
1.12
1.22
1.25
1.16
0.93
0.60
0.28
0.03
-0.09
-0.11
-0.08
-0.08
-0.13
-0.22
-0.36
-0.55
-0.83
-1.27
-1.86
-2.54
-3.16
-3.54
-3.55
-3.19
-2.60
-1.95
-1.41
-1.05
-0.81
-0.63
-0.45
-0.30
-0.25
-0.36
-0.59
-0.83
-0.99
-1.02
-1.00
-1.08
-1.38
-1.93
-2.66
-3.41
-4.03
-4.44
-4.62
-4.66
-4.70
-4.87
-5.23
-5.80
-6.52
-7.30
-8.08
-8.79
-9.45
-10.08
-10.69
-11.25
-11.70
-11.96
-11.97
-11.68
-11.02
-9.85
-8.04
-5.48
-2.22
1.53
5.39
8.97
11.97
14.27
15.88
16.90
17.45
17.57
17.38
16.98
16.52
16.12
15.82
15.53
15.10
14.39
13.36
12.10
10.76
9.52
8.51
7.75
7.21
6.78
6.34
5.77
5.03
4.11
3.10
2.12
1.31
0.76
0.51
0.51
0.67
0.88
1.06
1.14
1.12
0.99
0.86
0.87
1.28
2.37
4.30
7.06
10.31
13.53
16.14
17.67
17.96
17.13
15.54
13.58
11.59
9.80
8.33
7.23
6.55
6.35
6.62
7.24
7.99
8.57
8.70
8.21
7.16
5.73
4.22
2.86
1.77
0.91
0.17
-0.55
-1.25
-1.88
-2.33
-2.56
-2.58
-2.45
-2.21
-1.89
-1.48
-1.03
-0.61
-0.36
-0.37
-0.68
-1.27
-2.12
-3.22
-4.60
-6.22
-7.92
-9.46
-10.60
-11.27
-11.58
-11.78
-12.11
-12.63
-13.24
-13.74
-14.04
-14.16
-14.19
-14.19
-14.10
-13.79
-13.13
-12.15
-11.00
-9.86
-8.82
-7.84
-6.76
-5.47
-3.97
-2.41
-0.99
0.12
0.89
1.38
1.67
1.79
1.70
1.33
0.68
-0.16
-1.00
-1.62
-1.89
-1.80
-1.45
-1.00
-0.61
-0.37
-0.35
-0.57
-1.04
-1.74
-2.60
-3.49
-4.24
-4.67
-4.68
-4.24
-3.47
-2.57
-1.77
-1.25
-1.05
-1.14
-1.44
-1.91
-2.49
-3.14
-3.77
-4.26
-4.54
-4.58
-4.46
-4.31
-4.19
-4.14
-4.07
-3.93
-3.68
-3.38
-3.11
-2.92
-2.83
-2.78
-2.73
-2.65
-2.58
-2.57
-2.61
-2.67
-2.69
-2.56
-2.22
-1.68
-0.97
-0.18
0.62
1.37
1.98
2.40
2.62
2.69
2.71
2.80
3.04
3.36
3.67
3.83
3.78
3.57
3.32
3.11
2.98
2.87
2.73
2.54
2.33
2.16
2.06
1.98
1.88
1.74
1.57
1.40
1.28
1.21
1.15
1.10
1.03
0.93
0.78
0.56
0.25
-0.10
-0.40
-0.55
-0.52
-0.39
-0.27
-0.23
-0.29
-0.37
-0.37
-0.24
-0.02
0.20
0.34
0.40
0.43
0.49
0.59
0.68
0.68
0.54
0.26
-0.07
-0.37
-0.58
-0.68
-0.71
-0.72
-0.76
-0.84
-0.92
-0.97
-0.95
-0.86
-0.69
-0.48
-0.26
-0.09
-0.05
-0.20
-0.56
-1.10
-1.70
-2.24
-2.59
-2.72
-2.64
-2.43
-2.19
-1.99
-1.84
-1.70
-1.51
-1.25
-0.90
-0.50
-0.08
0.32
0.67
0.96
1.13
1.13
0.94
0.61
0.23
-0.08
-0.28
-0.39
-0.47
-0.59
-0.72
-0.79
-0.72
-0.50
-0.21
-0.00
0.05
-0.06
-0.22
-0.29
-0.18
0.08
0.37
0.54
0.48
0.19
-0.23
-0.65
-0.97
-1.13
-1.19
-1.22
-1.25
-1.30
-1.29
-1.18
-0.94
-0.60
-0.25
0.04
0.20
0.26
0.26
0.25
0.28
0.39
0.58
0.80
1.01
1.13
1.15
1.06
0.93
0.83
0.82
0.91
1.07
1.21
1.26
1.21
1.10
1.03
1.07
1.23
1.43
1.55
1.50
1.25
0.84
0.38
-0.07
-0.46
-0.80
-1.12
-1.43
-1.70
-1.91
-2.01
-1.98
-1.79
-1.44
-0.98
-0.48
-0.04
0.25
0.38
0.39
0.39
0.48
0.68
0.96
1.22
1.38
1.38
1.24
1.00
0.73
0.48
0.28
0.16
0.10
0.11
0.20
0.36
0.55
0.74
0.82
0.72
0.44
0.05
-0.34
-0.61
-0.71
-0.69
-0.61
-0.56
-0.58
-0.67
-0.84
-1.12
-1.54
-2.07
-2.62
-3.03
-3.14
-2.92
-2.45
-1.93
-1.56
-1.45
-1.58
-1.83
-2.07
-2.25
-2.36
-2.43
-2.45
-2.42
-2.33
-2.23
-2.23
-2.46
-3.00
-3.85
-4.88
-5.92
-6.81
-7.45
-7.86
-8.08
-8.22
-8.33
-8.44
-8.52
-8.46
-8.12
-7.36
-6.10
-4.36
-2.27
-0.01
2.26
4.38
6.26
7.84
9.05
9.87
10.27
10.28
10.00
9.58
9.17
8.88
8.73
8.65
8.51
8.21
7.70
7.01
6.25
5.51
4.86
4.30
3.81
3.37
2.93
2.49
2.04
1.61
1.22
0.91
0.75
0.74
0.89
1.12
1.35
1.48
1.45
1.24
0.87
0.41
-0.05
-0.42
-0.63
-0.65
-0.50
-0.25
-0.03
0.05
-0.09
-0.44
-0.89
-1.31
-1.53
-1.51
-1.28
-0.96
-0.68
-0.51
-0.42
-0.29
-0.02
0.42
0.96
1.49
1.87
2.06
2.08
2.01
1.91
1.81
1.69
1.54
1.36
1.23
1.21
1.31
1.48
1.58
1.49
1.16
0.63
0.01
-0.54
-0.91
-1.05
-0.98
-0.77
-0.52
-0.28
-0.10
0.04
0.13
0.14
0.02
-0.26
-0.66
-1.05
-1.27
-1.22
-0.91
-0.46
-0.04
0.22
0.32
0.32
0.31
0.34
0.41
0.46
0.45
0.37
0.24
0.11
0.05
0.13
0.37
0.76
1.18
1.50
1.61
1.49
1.24
0.98
0.80
0.72
0.68
0.62
0.49
0.34
0.24
0.21
0.24
0.29
0.31
0.27
0.19
0.09
-0.02
-0.12
-0.21
-0.29
-0.37
-0.45
-0.52
-0.58
-0.58
-0.46
-0.21
0.16
0.55
0.87
1.03
1.03
0.91
0.71
0.45
0.11
-0.34
-0.86
-1.37
-1.76
-1.96
-2.00
-1.99
-2.06
-2.30
-2.66
-3.06
-3.39
-3.58
-3.66
-3.64
-3.54
-3.33
-2.97
-2.44
-1.79
-1.15
-0.63
-0.31
-0.13
0.03
0.29
0.70
1.19
1.62
1.85
1.85
1.73
1.69
1.88
2.36
3.01
3.66
4.17
4.50
4.72
4.89
5.04
5.11
5.02
4.73
4.27
3.75
3.32
3.08
3.09
3.32
3.66
3.99
4.20
4.22
4.08
3.84
3.61
3.44
3.33
3.24
3.08
2.78
2.31
1.65
0.85
-0.05
-0.99
-1.89
-2.71
-3.44
-4.07
-4.60
-4.97
-5.14
-5.06
-4.77
-4.32
-3.82
-3.33
-2.86
-2.36
-1.80
-1.13
-0.40
0.30
0.85
1.17
1.21
1.03
0.73
0.45
0.31
0.34
0.53
0.76
0.96
1.05
1.02
0.89
0.67
0.37
-0.03
-0.52
-1.04
-1.52
-1.90
-2.10
-2.16
-2.17
-2.23
-2.45
-2.81
-3.21
-3.52
-3.62
-3.47
-3.13
-2.70
-2.29
-1.97
-1.73
-1.55
-1.40
-1.24
-1.11
-1.00
-0.91
-0.79
-0.58
-0.20
0.34
0.95
1.45
1.67
1.55
1.16
0.68
0.34
0.28
0.48
0.80
1.08
1.20
1.17
1.04
0.90
0.74
0.55
0.29
-0.03
-0.35
-0.60
-0.75
-0.81
-0.86
-0.97
-1.16
-1.42
-1.72
-2.00
-2.26
-2.44
-2.49
-2.40
-2.18
-1.91
-1.71
-1.63
-1.66
-1.69
-1.58
-1.25
-0.74
-0.15
0.42
0.91
1.31
1.61
1.80
1.83
1.71
1.48
1.24
1.11
1.15
1.34
1.59
1.77
1.81
1.71
1.55
1.42
1.40
1.50
1.69
1.91
2.13
2.32
2.48
2.58
2.56
2.32
1.84
1.14
0.37
-0.28
-0.67
-0.75
-0.57
-0.27
0.03
0.25
0.36
0.36
0.27
0.16
0.13
0.26
0.59
1.06
1.57
1.99
2.21
2.20
1.99
1.68
1.36
1.17
1.18
1.42
1.83
2.28
2.61
2.67
2.46
2.04
1.56
1.14
0.83
0.61
0.43
0.29
0.20
0.16
0.15
0.08
-0.10
-0.44
-0.89
-1.34
-1.70
-1.89
-1.91
-1.78
-1.56
-1.26
-0.87
-0.40
0.11
0.61
1.01
1.25
1.34
1.31
1.20
1.06
0.91
0.73
0.57
0.45
0.41
0.46
0.53
0.56
0.48
0.30
0.09
-0.09
-0.22
-0.37
-0.61
-0.98
-1.44
-1.85
-2.07
-2.04
-1.83
-1.54
-1.30
-1.15
-1.10
-1.12
-1.16
-1.25
-1.40
-1.62
-1.87
-2.09
-2.21
-2.22
-2.10
-1.92
-1.74
-1.65
-1.68
-1.84
-2.07
-2.28
-2.37
-2.32
-2.13
-1.92
-1.78
-1.75
-1.81
-1.90
-1.98
-2.08
-2.25
-2.55
-2.96
-3.39
-3.74
-3.92
-3.96
-3.95
-3.98
-4.05
-4.01
-3.67
-2.86
-1.56
0.02
1.52
2.56
2.91
2.55
1.68
0.65
-0.28
-0.94
-1.38
-1.70
-2.01
-2.32
-2.52
-2.48
-2.09
-1.38
-0.49
0.37
1.06
1.55
1.92
2.31
2.82
3.44
4.10
4.69
5.17
5.55
5.87
6.14
6.36
6.45
6.36
6.10
5.71
5.29
4.85
4.35
3.72
2.90
1.91
0.86
-0.11
-0.86
-1.36
-1.64
-1.81
-2.00
-2.27
-2.59
-2.87
-3.00
-2.95
-2.71
-2.37
-1.98
-1.61
-1.28
-1.04
-0.91
-0.95
-1.17
-1.53
-1.88
-2.05
-1.93
-1.49
-0.83
-0.13
0.43
0.74
0.79
0.66
0.47
0.29
0.13
-0.02
-0.17
-0.26
-0.22
0.03
0.43
0.82
1.03
0.95
0.65
0.30
0.11
0.16
0.33
0.42
0.27
-0.12
-0.59
-0.95
-1.09
-1.05
-1.00
-1.08
-1.28
-1.53
-1.67
-1.60
-1.34
-0.99
-0.66
-0.40
-0.19
-0.00
0.20
0.35
0.40
0.27
-0.03
-0.40
-0.71
-0.84
-0.76
-0.52
-0.26
-0.10
-0.14
-0.39
-0.78
-1.17
-1.45
-1.56
-1.50
-1.33
-1.13
-0.97
-0.89
-0.90
-1.00
-1.19
-1.51
-1.97
-2.54
-3.14
-3.63
-3.88
-3.83
-3.54
-3.14
-2.75
-2.46
-2.23
-1.97
-1.61
-1.15
-0.67
-0.32
-0.16
-0.16
-0.20
-0.15
0.09
0.45
0.81
1.04
1.06
0.96
0.87
0.99
1.42
2.15
3.03
3.81
4.25
4.26
3.84
3.16
2.41
1.78
1.34
1.12
1.04
1.05
1.07
1.03
0.91
0.69
0.43
0.16
-0.02
-0.08
0.01
0.23
0.53
0.83
1.05
1.12
1.02
0.78
0.52
0.38
0.45
0.73
1.14
1.53
1.76
1.73
1.43
0.94
0.36
-0.16
-0.48
-0.50
-0.21
0.29
0.83
1.19
1.23
0.92
0.34
-0.30
-0.82
-1.06
-1.00
-0.71
-0.33
-0.02
0.11
0.00
-0.33
-0.84
-1.42
-1.96
-2.36
-2.50
-2.33
-1.89
-1.31
-0.77
-0.43
-0.36
-0.51
-0.71
-0.79
-0.66
-0.37
-0.09
0.04
-0.06
-0.37
-0.76
-1.15
-1.48
-1.83
-2.24
-2.73
-3.21
-3.55
-3.61
-3.37
-2.97
-2.63
-2.56
-2.89
-3.56
-4.38
-5.07
-5.39
-5.25
-4.73
-4.08
-3.59
-3.47
-3.74
-4.13
-4.19
-3.43
-1.56
1.35
4.84
8.25
10.90
12.35
12.52
11.65
10.22
8.84
8.12
8.61
10.67
14.26
18.81
23.28
26.52
27.66
26.46
23.35
19.27
15.17
11.69
9.04
7.07
5.60
4.56
3.99
3.87
4.05
4.20
3.94
3.00
1.39
-0.72
-3.08
-5.60
-8.31
-11.14
-13.90
-16.21
-17.67
-18.20
-18.14
-18.26
-19.37
-21.98
-25.61
-29.09
-31.30
-31.84
-31.19
-30.44
-30.75
-32.76
-36.36
-40.35
-43.48
-45.23
-46.24
-47.74
-50.65
-54.95
-59.80
-63.92
-65.04
-61.12
-50.93
-34.57
-13.12
11.96
38.96
65.67
89.50
109.28
125.12
138.21
150.34
163.51
179.55
199.19
221.06
233.71
225.76
191.83
137.17
74.11
14.66
-33.87
-69.08
-92.16
-105.98
-112.30
-112.09
-106.44
-97.31
-87.46
-79.36
-74.44
-72.88
-73.90
-75.16
-74.30
-70.28
-63.61
-56.38
-51.08
-50.07
-54.69
-64.21
-75.27
-81.30
-76.41
-58.14
-28.91
4.85
35.48
57.05
67.18
68.18
64.12
57.71
49.29
37.94
23.45
7.60
-6.35
-15.45
-18.57
-16.89
-13.12
-9.91
-8.30
-8.06
-8.24
-7.95
-6.57
-4.23
-1.49
0.83
2.10
2.16
1.17
-0.41
-2.07
-3.45
-4.38
-4.94
-5.43
-6.19
-7.44
-9.28
-11.51
-13.81
-15.72
-17.00
-17.66
-18.11
-18.92
-20.51
-22.92
-25.66
-27.93
-28.89
-28.02
-25.19
-20.48
-14.31
-7.02
1.08
9.74
18.65
27.49
36.13
44.86
54.26
64.80
76.40
88.17
98.64
106.46
111.18
113.46
114.75
116.35
118.61
120.63
120.73
117.44
110.52
101.25
92.07
85.53
83.36
85.93
92.11
99.51
104.64
103.29
91.26
65.82
27.17
-20.61
-70.17
-113.04
-142.51
-155.86
-154.88
-144.33
-129.44
-113.88
-98.98
-84.35
-69.15
-53.06
-36.56
-20.53
-5.75
7.33
18.44
26.86
31.00
28.62
17.60
-2.61
-29.81
-58.97
-83.78
-99.05
-103.08
-98.30
-89.78
-82.62
-79.46
-79.97
-82.14
-84.13
-85.44
-86.38
-86.88
-85.68
-81.00
-72.01
-59.89
-47.43
-37.31
-30.41
-25.44
-20.19
-13.48
-6.16
-0.33
2.47
2.80
3.29
6.86
14.59
24.91
34.58
40.74
42.54
41.05
37.70
32.90
25.77
15.53
3.02
-8.81
-15.98
-15.74
-8.15
3.82
16.01
25.11
29.93
31.16
30.05
27.30
22.80
16.28
8.13
-0.40
-7.68
-12.59
-14.96
-15.55
-15.52
-15.82
-16.87
-18.47
-19.94
-20.44
-19.29
-16.27
-11.73
-6.52
-1.63
2.20
4.80
6.55
8.14
10.17
12.84
15.92
18.91
21.42
23.38
24.98
26.50
28.10
29.63
30.74
31.06
30.29
28.36
25.39
21.74
17.93
14.69
12.80
12.88
15.14
19.12
23.75
27.53
29.01
27.23
22.09
14.31
