1660329345.00
64.000000
-0.00
-0.00
-0.00
-0.00
-0.00
-0.00
-0.00
-0.00
-0.00
-0.00
0.00
0.01
0.01
-0.00
-0.03
-0.05
-0.05
0.00
0.13
0.36
0.66
1.01
1.37
1.72
2.06
2.40
2.79
3.24
3.80
4.42
5.06
5.66
6.20
6.68
7.15
7.68
8.31
9.14
10.09
11.04
11.88
12.56
13.14
13.76
14.65
15.96
17.91
20.32
22.90
25.38
27.58
29.57
31.68
34.32
37.81
42.54
48.15
54.10
59.83
64.97
69.58
74.14
79.34
85.71
93.76
103.00
112.62
121.73
129.77
136.75
143.30
150.75
157.77
166.64
177.95
191.79
206.97
220.57
228.25
225.36
208.53
176.87
132.76
80.05
23.07
-34.94
-92.44
-149.16
-205.23
-260.37
-313.74
-363.87
-409.83
-450.91
-486.50
-515.74
-537.23
-549.22
-549.96
-538.37
-514.21
-478.67
-433.88
-382.45
-327.02
-269.84
-212.63
-156.66
-102.95
-52.37
-5.90
35.58
71.43
101.35
125.50
144.38
158.69
169.15
176.37
180.75
182.57
182.07
179.51
175.23
169.65
163.18
156.15
148.81
141.30
133.69
126.02
118.33
110.69
103.16
95.80
88.68
81.83
75.25
68.95
62.95
57.25
51.86
46.78
42.03
37.59
33.45
29.61
26.07
22.81
19.83
17.11
14.67
12.48
10.54
8.83
7.35
6.07
4.97
4.05
3.27
2.62
2.09
1.65
1.30
1.01
0.79
0.61
0.47
0.37
0.29
0.23
0.19
0.16
0.14
0.14
0.14
0.16
0.18
0.20
0.24
0.27
0.31
0.35
0.40
0.44
0.49
0.54
0.59
0.64
0.70
0.75
0.82
0.89
0.96
1.05
1.14
1.25
1.37
1.50
1.65
1.81
1.99
2.20
2.43
2.68
2.95
3.26
3.59
3.96
4.36
4.80
5.27
5.78
6.32
6.91
7.54
8.21
8.93
9.70
10.50
11.36
12.25
13.19
14.19
15.25
16.37
17.56
18.80
20.07
21.34
22.53
23.58
24.36
24.78
24.68
23.98
22.60
20.50
17.69
14.24
10.26
5.92
1.43
-3.01
-7.18
-10.90
-14.02
-16.43
-18.08
-18.98
-19.18
-18.81
-18.01
-16.91
-15.65
-14.29
-12.87
-11.41
-9.89
-8.30
-6.69
-5.11
-3.58
-2.10
-0.63
0.89
2.54
4.37
6.46
8.64
10.79
12.83
14.73
16.57
18.47
20.61
23.13
26.14
29.28
32.29
34.94
37.16
39.12
41.10
43.49
46.56
50.46
54.54
58.22
61.02
62.77
63.68
64.26
65.11
66.67
69.08
71.32
72.36
71.27
67.52
61.00
51.82
39.84
24.02
7.23
-10.28
-28.91
-49.36
-72.47
-98.85
-128.39
-159.74
-189.89
-214.56
-230.01
-233.66
-225.32
-207.41
-183.95
-159.10
-135.67
-114.71
-95.88
-79.04
-64.25
-51.99
-42.73
-36.39
-32.16
-28.78
-25.11
-20.55
-15.51
-10.83
-7.38
-5.85
-6.45
-8.93
-12.62
-16.45
-19.18
-19.76
-17.42
-11.90
-3.55
6.72
17.74
28.34
37.56
44.83
49.82
52.51
53.10
51.93
49.47
46.28
42.89
39.77
37.25
35.43
34.20
33.22
32.08
30.36
27.87
24.61
20.87
17.02
13.41
10.16
7.15
4.13
0.77
-3.14
-7.71
-12.92
-18.63
-24.54
-30.13
-34.58
-36.93
-36.28
-32.09
-24.49
-14.29
-2.80
8.54
18.50
26.33
31.76
34.87
35.94
35.30
33.34
30.48
27.22
24.07
21.41
19.42
17.94
16.63
15.00
12.66
9.39
5.21
0.39
-4.71
-9.72
-14.36
-18.58
-22.53
-26.50
-30.78
-35.61
-40.95
-46.51
-51.65
-55.46
-56.86
-54.90
-49.03
-39.28
-26.39
-11.69
3.28
17.12
28.86
38.07
44.84
49.57
52.82
55.09
56.75
58.02
58.91
59.32
59.10
58.09
56.18
53.33
49.52
44.86
39.51
33.74
27.89
22.34
17.37
13.11
9.42
5.96
2.22
-2.32
-7.96
-14.71
-22.14
-29.42
-35.38
-38.84
-38.84
-34.94
-27.41
-17.20
-5.66
5.76
15.90
23.98
29.74
33.24
34.77
34.69
33.42
31.43
29.21
27.18
25.64
24.71
24.28
24.13
23.94
23.42
22.34
20.63
18.31
15.57
12.61
9.62
6.71
3.85
0.92
-2.32
-6.10
-10.62
-15.89
-21.67
-27.39
-32.16
-34.96
-34.90
-31.53
-25.02
-16.20
-6.26
3.53
12.13
18.93
23.66
26.35
27.22
26.57
24.88
22.64
20.33
18.33
16.81
15.75
15.02
14.43
13.79
12.92
11.72
10.07
8.00
5.58
2.91
0.19
-2.45
-4.88
-7.06
-9.10
-11.26
-13.86
-17.12
-21.01
-25.04
-28.37
-29.99
-29.06
-25.26
-18.86
-10.63
-1.56
7.40
15.55
22.41
27.66
31.04
32.40
31.82
29.63
26.48
23.09
20.09
17.79
16.20
15.06
14.09
13.08
11.90
10.48
8.74
6.59
3.96
0.81
-2.79
-6.77
-11.01
-15.46
-20.08
-24.93
-30.01
-35.20
-40.13
-44.17
-46.48
-46.39
-43.55
-38.19
-30.99
-22.89
-14.80
-7.38
-1.05
3.90
7.26
8.87
8.75
7.14
4.60
1.89
-0.29
-1.51
-1.70
-1.26
-0.80
-0.97
-2.19
-4.46
-7.41
-10.51
-13.24
-15.35
-16.90
-18.19
-19.63
-21.54
-24.09
-27.23
-30.74
-34.15
-36.88
-38.26
-37.75
-35.11
-30.57
-24.76
-18.59
-12.94
-8.51
-5.69
-4.60
-5.22
-7.32
-10.58
-14.58
-18.81
-22.82
-26.31
-29.20
-31.62
-33.84
-36.10
-38.54
-41.14
-43.73
-46.08
-47.97
-49.29
-50.14
-50.78
-51.61
-52.95
-54.95
-57.37
-59.58
-60.60
-59.41
-55.25
-48.01
-38.31
-27.39
-16.75
-7.75
-1.17
2.81
4.43
4.15
2.30
-0.89
-5.32
-10.78
-16.75
-22.49
-27.12
-29.93
-30.63
-29.44
-26.93
-23.71
-20.08
-15.99
-11.14
-5.23
1.84
9.99
19.06
28.85
39.07
49.15
58.05
64.46
67.19
65.65
60.10
51.49
41.00
29.49
17.23
4.05
-10.24
-25.50
-41.10
-56.15
-69.78
-81.42
-90.91
-98.32
-103.83
-107.56
-109.63
-110.22
-109.69
-108.57
-107.45
-106.74
-106.54
-106.55
-106.24
-105.03
-102.52
-98.54
-93.04
-85.98
-77.23
-66.64
-54.20
-40.20
-25.27
-10.26
4.02
16.88
27.81
36.48
42.79
46.93
49.56
51.70
54.43
58.52
64.10
70.64
77.23
82.95
87.29
90.19
91.93
92.79
92.87
91.97
89.72
85.81
80.21
73.21
65.40
57.51
50.23
44.14
39.71
37.32
37.25
39.54
43.94
49.80
56.31
62.68
68.40
73.22
76.93
79.18
79.43
77.10
72.04
64.81
56.69
49.29
43.84
40.56
38.36
35.25
29.16
18.94
5.09
-10.26
-24.09
-33.51
-36.80
-33.83
-25.96
-15.34
-4.14
6.17
15.07
22.98
30.99
40.24
51.48
64.66
78.80
92.25
103.12
109.82
111.46
107.95
100.04
89.04
76.56
64.21
53.11
43.57
34.94
25.77
14.37
-0.55
-19.19
-40.43
-62.04
-81.25
-95.56
-103.37
-104.35
-99.46
-90.51
-79.68
-68.96
-59.86
-53.33
-49.75
-49.02
-50.42
-52.64
-53.81
-51.87
-45.10
-32.59
-14.53
7.90
32.88
58.41
82.83
105.06
124.66
141.69
156.25
168.11
176.22
178.85
174.16
161.10
140.28
114.00
85.65
58.52
34.79
15.20
-0.60
-13.28
-23.32
-31.00
-36.71
-41.34
-46.15
-52.38
-60.67
-70.77
-81.63
-91.77
-99.79
-104.59
-105.60
-102.69
-96.22
-86.85
-75.45
-62.84
-49.61
-36.07
-22.38
-8.84
3.94
14.96
23.15
27.83
29.09
27.95
26.09
25.25
26.58
30.30
35.69
41.57
46.80
50.65
52.89
53.54
52.63
50.06
45.64
39.35
31.47
22.57
13.32
4.37
-3.80
-10.60
-15.19
-16.33
-12.63
-3.05
12.42
32.57
55.12
77.48
97.61
114.56
128.30
139.23
147.37
152.02
151.98
146.15
134.12
116.44
94.37
69.50
43.39
17.43
-7.10
-29.06
-47.55
-62.18
-73.08
-80.77
-85.92
-89.01
-90.24
-89.72
-87.65
-84.51
-81.07
-78.20
-76.65
-76.77
-78.36
-80.62
-82.30
-81.92
-78.30
-70.83
-59.83
-46.41
-32.23
-19.07
-8.45
-1.31
1.96
1.44
-2.60
-9.81
-19.84
-32.15
-45.78
-59.26
-70.83
-78.87
-82.42
-81.49
-76.87
-69.71
-60.94
-50.98
-39.81
-27.28
-13.56
0.75
14.79
27.77
39.38
49.84
59.68
69.40
79.04
87.96
94.91
98.28
96.58
88.84
74.97
55.81
33.03
8.75
-14.76
-35.46
-51.74
-62.53
-67.37
-66.47
-60.65
-51.20
-39.64
-27.42
-15.62
-4.83
4.83
13.48
21.38
28.72
35.73
42.73
50.19
58.60
68.23
78.81
89.23
97.50
101.15
97.85
86.22
66.45
40.42
11.39
-16.87
-40.87
-58.14
-67.50
-69.08
-64.08
-54.45
-42.54
-30.77
-21.23
-15.33
-13.51
-15.12
-18.66
-22.13
-23.72
-22.29
-17.66
-10.60
-2.41
5.57
12.40
17.75
21.80
24.94
27.55
29.83
31.80
33.48
34.85
35.95
36.85
37.57
38.12
38.55
39.02
39.82
41.36
43.92
47.47
51.55
55.26
57.53
57.46
54.64
49.29
42.14
34.13
26.14
18.82
12.51
7.35
3.37
0.43
-1.69
-3.30
-4.64
-5.64
-5.73
-3.90
1.00
9.67
21.86
36.16
50.28
61.62
68.19
69.21
65.33
58.44
51.13
45.87
44.31
46.82
52.22
58.15
61.83
61.06
55.25
45.95
36.41
30.46
30.69
36.81
45.18
49.66
43.33
20.87
-19.72
-75.90
-140.63
-203.58
-253.64
-282.22
-286.47
-270.95
-246.74
-227.88
-226.44
-248.01
-289.93
-342.69
-393.75
-432.00
-450.66
-447.78
-425.00
-385.74
-334.06
-274.57
-212.77
-154.79
-106.44
-71.29
-48.92
-34.69
-21.23
-1.47
28.24
66.39
106.95
141.95
164.98
173.64
170.18
160.29
150.61
146.49
150.47
162.05
178.17
194.20
205.12
206.69
196.60
175.06
144.93
110.73
77.28
48.30
25.73
10.09
1.38
-0.02
7.04
23.95
51.48
88.76
132.83
178.92
221.45
255.42
277.62
287.49
286.99
279.70
269.55
259.60
251.57
246.10
243.51
244.24
248.70
256.55
265.83
273.02
274.07
265.94
247.87
221.68
190.95
159.68
130.97
106.50
86.77
71.67
60.91
54.12
50.67
49.49
49.20
48.41
46.09
41.73
35.29
27.27
18.50
10.14
3.48
-0.29
-0.46
2.99
9.37
17.51
26.18
34.45
41.86
48.33
53.94
58.60
61.98
63.59
63.05
60.22
55.31
48.72
40.81
31.76
21.50
9.79
-3.60
-18.66
-35.06
-52.26
-69.44
-85.77
-100.33
-112.22
-120.63
-125.06
-125.60
-123.05
-118.86
-114.77
-112.29
-112.19
-114.40
-118.12
-122.45
-126.79
-131.11
-135.77
-141.28
-147.87
-155.56
-164.33
-174.34
-186.09
-200.40
-218.05
-239.72
-266.14
-298.26
-337.05
-382.58
-432.60
-481.66
-521.58
-543.63
-541.71
-514.88
-467.85
-409.13
-347.74
-290.28
-239.80
-196.59
-160.04
-130.00
-106.83
-90.28
-78.36
-67.29
-52.81
-31.97
-4.44
27.42
59.73
88.79
112.27
129.47
140.91
147.53
150.20
149.50
145.89
140.01
132.82
125.72
120.45
118.77
121.88
129.79
140.93
152.26
160.18
161.58
154.90
140.49
120.39
97.56
75.00
55.04
38.93
26.92
18.46
12.58
8.41
5.26
2.75
0.56
-1.68
-4.38
-7.85
-12.12
-16.79
-21.12
-24.27
-25.40
-23.86
-19.16
-11.14
-0.03
13.43
28.11
42.69
56.00
67.30
76.39
83.51
89.13
93.73
97.59
100.85
103.48
105.44
106.69
107.27
107.12
106.04
103.60
99.14
91.90
81.13
66.18
46.53
21.86
-7.78
-41.63
-78.07
-114.55
-148.08
-175.97
-196.57
-209.68
-216.35
-218.12
-216.13
-210.58
-200.72
-185.49
-164.31
-137.68
-107.37
-76.11
-46.90
-22.31
-3.97
7.75
13.59
15.20
14.63
13.84
14.37
17.00
21.77
27.97
34.47
39.92
43.08
43.08
39.70
33.52
25.91
18.83
14.40
14.39
19.71
30.12
44.26
59.88
74.43
85.65
92.10
93.62
91.32
87.30
83.77
82.22
82.61
83.20
80.98
72.54
55.05
27.07
-11.02
-56.78
-105.82
-152.39
-190.64
-216.20
-227.67
-227.19
-219.60
-210.46
-203.79
-200.58
-198.83
-194.96
-185.62
-169.08
-145.54
-116.53
-84.06
-50.19
-16.90
13.52
38.54
55.92
64.52
65.07
60.29
54.26
51.11
53.61
62.23
75.20
89.35
101.54
109.91
114.42
116.60
118.64
122.41
128.65
136.72
144.78
150.30
150.71
144.10
129.74
108.33
81.87
52.96
24.06
-3.02
-27.22
-47.84
-64.08
-74.81
-78.96
-76.04
-66.61
-52.16
-34.53
-15.28
4.85
25.81
47.84
70.92
94.52
117.43
137.94
153.92
163.10
163.30
152.97
131.66
100.38
61.61
18.65
-25.23
-67.72
-107.91
-146.14
-183.20
-219.36
-253.70
-284.05
-307.67
-322.23
-326.69
-321.59
-308.73
-290.35
-268.37
-243.88
-217.22
-188.34
-157.33
-124.80
-91.84
-59.69
-29.30
-0.99
25.55
50.96
75.80
100.17
123.80
146.14
166.78
185.48
202.01
215.86
226.02
231.19
230.35
223.47
211.87
198.14
185.43
176.46
172.61
173.34
176.21
177.50
173.22
160.34
137.58
105.75
67.32
25.58
-16.51
-57.07
-95.45
-131.79
-166.08
-197.28
-223.01
-239.93
-244.83
-235.80
-213.02
-178.74
-136.25
-88.82
-38.64
13.28
66.59
120.77
174.40
225.10
269.70
304.89
327.64
335.76
328.23
305.52
269.63
223.68
171.20
115.22
57.38
-2.35
-65.29
-132.90
-205.26
-279.79
-351.04
-411.62
-454.34
-474.47
-471.32
-448.19
-410.96
-365.92
-317.90
-269.59
-221.89
-174.89
-128.50
-82.70
-37.37
7.83
53.11
98.19
142.04
183.05
219.60
250.57
275.76
295.68
311.24
323.27
332.21
338.08
340.53
339.14
333.64
324.19
311.36
295.97
278.67
259.50
237.81
212.55
182.85
148.48
109.99
68.37
24.66
-20.15
-64.87
-107.65
-145.80
-176.17
-196.02
-204.04
-200.77
-188.44
-170.16
-149.08
-127.61
-107.21
-88.30
-70.50
-52.95
-34.75
-15.43
4.60
24.02
40.89
53.26
59.66
59.31
51.91
37.28
15.13
-14.95
-53.09
-98.57
-149.17
-200.96
-248.65
-286.66
-310.66
-318.92
-312.89
-296.44
-274.31
-250.16
-225.49
-199.62
-170.74
-137.27
-98.84
-56.47
-12.11
32.07
74.12
112.45
145.72
172.79
192.94
206.20
213.65
217.47
220.40
224.87
232.09
241.48
250.93
257.56
258.87
253.69
242.53
227.26
210.48
194.48
180.52
168.28
155.92
140.84
120.82
95.08
64.72
32.34
0.90
-27.47
-52.04
-73.27
-91.82
-107.73
-120.06
-127.23
-127.89
-121.52
-108.71
-90.92
-69.94
-47.53
-25.16
-4.06
14.79
30.43
42.03
49.03
51.38
49.78
45.62
40.54
35.87
31.95
27.91
21.95
11.90
-3.86
-25.97
-54.01
-86.70
-122.30
-158.70
-193.53
-224.01
-247.18
-260.39
-262.24
-253.23
-236.06
-215.00
-194.51
-177.73
-165.29
-155.14
-143.50
-126.50
-101.76
-69.22
-31.02
9.49
48.90
84.50
114.52
137.91
154.10
163.00
165.05
161.40
153.65
143.53
132.43
121.10
109.88
99.04
89.18
81.35
76.66
75.89
79.07
85.53
94.09
103.41
112.04
118.44
120.85
117.58
107.53
90.76
68.58
43.09
16.39
-10.07
-35.52
-59.31
-80.25
-96.40
-105.64
-106.68
-99.81
-87.04
-71.29
-55.37
-41.31
-30.17
-22.50
-18.62
-18.77
-22.83
-29.96
-38.63
-47.07
-53.84
-58.19
-60.15
-60.13
-58.57
-55.78
-52.07
-47.92
-43.87
-40.27
-36.84
-32.65
-26.55
-18.11
-8.24
0.66
5.64
4.57
-2.51
-12.98
-22.45
-26.26
-21.30
-6.92
14.94
40.75
66.51
88.77
105.04
113.88
114.69
107.66
93.84
75.06
53.83
32.85
14.55
0.71
-7.76
-10.63
-8.38
-1.98
7.04
16.76
25.16
30.59
32.26
30.31
25.61
19.25
12.03
4.45
-3.10
-9.95
-14.97
-16.88
-14.79
-8.77
0.04
9.84
18.83
25.83
30.60
33.55
35.42
36.86
38.19
39.41
40.23
40.10
38.37
34.47
28.34
20.56
12.43
5.54
1.17
-0.23
0.81
3.11
5.39
6.73
6.72
5.21
2.07
-2.78
-9.03
-15.56
-20.33
-20.87
-15.13
-2.45
16.14
38.17
60.75
81.56
99.46
114.60
127.96
140.63
153.22
165.68
177.43
187.88
196.85
204.67
212.05
219.53
227.07
233.98
239.24
241.97
241.88
239.21
234.32
227.24
217.36
203.59
184.80
160.29
130.07
94.94
56.29
15.72
-25.20
-65.06
-102.59
-136.57
-165.52
-187.90
-202.44
-208.82
-208.14
-202.48
-193.54
-180.91
-161.61
-131.55
-88.58
-35.20
20.82
68.79
99.38
108.54
98.88
77.83
53.71
32.11
14.64
0.49
-10.57
-16.32
-12.69
3.50
31.43
65.13
94.95
111.31
108.47
86.36
50.01
6.84
-36.25
-74.30
-104.28
-124.34
-133.49
-131.99
-122.08
-107.93
-94.40
-85.14
-81.10
-80.24
-78.92
-73.74
-63.32
-48.81
-33.16
-19.72
-10.87
-7.40
-8.58
-12.98
-19.16
-26.18
-33.37
-39.98
-44.93
-47.01
-45.43
-40.51
-33.83
-27.67
-24.13
-24.13
-27.12
-31.46
-35.36
-37.84
-39.10
-40.31
-42.83
-47.35
-53.43
-59.57
-63.89
-64.85
-61.86
-55.33
-46.51
-36.78
-27.39
-19.09
-12.16
-6.61
-2.32
0.96
3.96
8.23
15.95
28.95
47.44
68.95
88.72
101.34
103.18
94.21
78.03
60.00
44.66
33.84
26.66
21.12
15.93
11.15
7.40
4.35
-0.10
-9.08
-24.63
-45.83
-68.49
-86.35
-93.57
-87.10
-67.81
-39.96
-9.58
17.41
36.63
45.92
45.34
36.84
23.76
10.16
0.08
-3.52
0.44
10.90
25.05
39.32
50.65
57.57
60.61
61.91
63.93
67.96
73.15
76.63
74.78
65.17
48.21
27.60
8.92
-2.80
-5.37
-0.41
7.60
13.73
14.91
10.75
2.90
-6.75
-17.31
-29.19
-43.34
-60.10
-78.62
-97.11
-113.99
-128.83
-142.83
-158.51
-178.65
-204.98
-237.54
-274.92
-314.87
-355.20
-393.71
-427.51
-452.26
-462.74
-454.84
-428.02
-386.66
-339.10
-294.61
-259.52
-235.27
-218.93
-206.02
-193.51
-181.19
-171.02
-165.02
-163.72
-165.78
-168.90
-171.08
-171.14
-168.76
-163.76
-155.67
-143.68
-127.15
-105.92
-80.81
-53.73
-27.37
-4.23
14.39
29.06
42.05
56.10
72.93
92.05
110.97
126.48
136.32
140.28
140.21
138.97
139.02
141.49
146.11
151.72
157.05
161.09
163.15
162.75
159.78
154.66
148.57
143.15
139.95
139.70
141.81
144.54
145.70
143.62
137.83
129.16
119.08
108.78
98.47
87.36
74.34
58.88
41.73
24.85
10.80
1.76
-1.22
1.48
8.33
17.13
25.79
32.86
37.81
41.02
43.32
45.37
47.14
47.84
46.26
41.59
34.09
25.33
17.67
13.31
13.32
17.26
23.46
29.83
34.59
36.90
36.86
35.48
34.66
37.30
47.31
68.93
105.36
157.00
220.11
286.87
347.05
391.03
412.51
410.00
386.23
346.02
293.76
232.26
163.64
91.24
21.14
-38.55
-80.19
-100.04
-100.29
-88.36
-74.10
-65.89
-68.07
-80.48
-100.20
-123.80
-149.02
-174.80
-200.24
-223.47
-241.34
-250.18
-247.32
-232.50
-208.53
-181.07
-157.25
-143.41
-142.97
-155.12
-175.29
-196.91
-214.27
-224.67
-229.02
-230.83
-233.97
-240.64
-250.48
-260.61
-266.50
-263.42
-248.04
-220.02
-183.15
-145.22
-116.29
-105.45
-117.13
-148.95
-192.35
-235.85
-269.45
-287.96
-291.78
-284.99
-272.47
-257.43
-240.87
-222.53
-202.27
-180.77
-159.25
-138.48
-118.22
-97.50
-75.64
-53.42
-33.34
-18.34
-10.20
-8.27
-9.22
-8.50
-2.19
11.47
31.71
56.00
81.51
106.14
128.87
149.60
168.65
186.54
204.04
222.31
242.84
267.02
295.51
327.93
362.98
398.98
434.44
468.19
498.97
524.99
543.80
552.92
550.87
538.20
517.46
492.33
466.13
440.56
415.40
389.03
359.39
324.65
283.54
235.50
181.20
123.07
65.54
14.36
-24.97
-48.98
-57.47
-53.44
-41.99
-28.53
-17.45
-11.51
-11.99
-19.17
-32.66
-51.43
-73.77
-97.55
-120.61
-141.48
-159.78
-176.08
-191.51
-207.13
-223.34
-239.83
-255.77
-270.28
-282.84
-293.33
-301.84
-308.40
-312.74
-314.39
-312.74
-307.04
-296.27
-279.10
-254.26
-221.16
-180.54
-134.73
-87.17
-41.54
-0.72
33.89
62.36
85.71
105.23
121.95
136.51
149.24
160.23
169.20
175.22
176.75
172.08
160.07
140.89
116.20
88.63
