1659460368.00
64.000000
-0.00
-0.00
-0.00
-0.00
-0.00
-0.00
-0.00
-0.00
-0.00
-0.00
0.00
0.01
0.01
-0.00
-0.03
-0.05
-0.05
0.00
0.13
0.36
0.66
1.01
1.37
1.72
2.06
2.40
2.79
3.24
3.80
4.42
5.06
5.66
6.20
6.68
7.15
7.68
8.31
9.14
10.09
11.04
11.88
12.56
13.14
13.76
14.65
15.97
17.92
20.32
22.90
25.37
27.57
29.59
31.71
34.38
37.87
42.54
48.03
53.83
59.37
64.34
68.83
73.33
78.52
84.87
92.89
102.03
111.51
120.46
128.37
135.29
141.85
149.34
156.38
165.16
176.22
189.70
204.46
217.72
225.24
222.37
205.64
173.98
129.58
76.18
18.17
-41.00
-99.48
-156.78
-212.97
-267.98
-321.36
-372.05
-419.35
-462.45
-500.35
-531.59
-554.33
-566.69
-567.25
-555.59
-532.17
-498.58
-456.81
-408.86
-356.55
-301.47
-245.11
-189.05
-134.96
-84.47
-39.28
-0.85
29.90
53.13
70.50
85.25
101.34
122.06
148.65
179.44
210.48
237.10
255.71
264.98
265.89
260.64
251.39
239.56
225.76
210.37
194.11
178.04
163.23
150.27
138.99
128.65
118.24
107.11
95.28
83.37
72.29
62.79
55.11
48.87
43.37
37.98
32.28
26.30
20.44
15.22
11.00
7.81
5.42
3.43
1.54
-0.39
-2.27
-3.87
-5.01
-5.66
-5.94
-6.10
-6.37
-6.86
-7.52
-8.17
-8.57
-8.58
-8.18
-7.50
-6.72
-6.01
-5.46
-5.08
-4.81
-4.56
-4.25
-3.83
-3.34
-2.87
-2.53
-2.40
-2.50
-2.72
-2.91
-2.96
-2.86
-2.71
-2.65
-2.78
-3.05
-3.31
-3.39
-3.24
-2.94
-2.66
-2.53
-2.58
-2.66
-2.66
-2.48
-2.18
-1.88
-1.70
-1.68
-1.76
-1.82
-1.78
-1.62
-1.41
-1.25
-1.21
-1.28
-1.36
-1.34
-1.15
-0.79
-0.29
0.30
1.00
1.87
2.91
4.05
5.13
5.92
6.29
6.27
6.05
5.88
5.92
6.19
6.53
6.74
6.65
6.19
5.39
4.35
3.23
2.03
0.76
-0.60
-2.08
-3.61
-5.09
-6.38
-7.36
-7.98
-8.28
-8.34
-8.24
-8.04
-7.73
-7.30
-6.77
-6.20
-5.70
-5.34
-5.13
-4.99
-4.86
-4.67
-4.44
-4.21
-4.03
-3.89
-3.71
-3.37
-2.84
-2.13
-1.35
-0.65
-0.12
0.17
0.25
0.14
-0.10
-0.41
-0.72
-0.93
-1.00
-0.92
-0.78
-0.68
-0.70
-0.85
-1.01
-1.07
-0.97
-0.77
-0.58
-0.51
-0.60
-0.76
-0.83
-0.73
-0.46
-0.17
-0.03
-0.19
-0.63
-1.22
-1.80
-2.19
-2.31
-2.20
-1.93
-1.66
-1.47
-1.46
-1.60
-1.86
-2.12
-2.28
-2.26
-2.02
-1.57
-1.00
-0.37
0.27
0.85
1.32
1.64
1.73
1.56
1.14
0.57
-0.03
-0.51
-0.76
-0.73
-0.46
-0.07
0.30
0.48
0.36
-0.07
-0.71
-1.38
-1.88
-2.13
-2.14
-2.05
-2.04
-2.26
-2.75
-3.46
-4.24
-4.96
-5.58
-6.09
-6.60
-7.16
-7.79
-8.42
-8.99
-9.45
-9.83
-10.22
-10.64
-11.02
-11.21
-11.00
-10.24
-8.88
-7.02
-4.83
-2.46
-0.01
2.48
4.99
7.44
9.70
11.52
12.74
13.24
13.11
12.58
11.92
11.39
11.04
10.80
10.49
9.97
9.24
8.39
7.59
6.94
6.42
5.92
5.35
4.65
3.91
3.23
2.73
2.43
2.26
2.08
1.81
1.40
0.85
0.20
-0.49
-1.15
-1.72
-2.11
-2.25
-2.12
-1.74
-1.20
-0.61
-0.03
0.49
0.95
1.37
1.74
2.02
2.20
2.25
2.21
2.10
1.96
1.78
1.55
1.27
0.95
0.63
0.39
0.30
0.37
0.56
0.79
0.96
0.99
0.88
0.67
0.42
0.19
0.00
-0.18
-0.39
-0.64
-0.92
-1.16
-1.31
-1.32
-1.25
-1.15
-1.12
-1.21
-1.42
-1.70
-1.97
-2.16
-2.20
-2.07
-1.77
-1.31
-0.78
-0.25
0.21
0.57
0.84
1.06
1.26
1.47
1.67
1.84
1.95
1.96
1.86
1.66
1.44
1.28
1.29
1.46
1.70
1.86
1.80
1.49
1.05
0.64
0.41
0.36
0.38
0.35
0.17
-0.10
-0.35
-0.53
-0.67
-0.86
-1.19
-1.67
-2.14
-2.47
-2.56
-2.49
-2.40
-2.45
-2.62
-2.79
-2.77
-2.44
-1.86
-1.18
-0.58
-0.13
0.20
0.51
0.88
1.30
1.69
1.95
2.01
1.87
1.59
1.28
1.02
0.89
0.91
1.05
1.23
1.37
1.41
1.33
1.20
1.07
0.98
0.94
0.89
0.79
0.60
0.32
-0.03
-0.38
-0.71
-0.99
-1.25
-1.51
-1.79
-2.06
-2.30
-2.49
-2.61
-2.69
-2.73
-2.72
-2.59
-2.30
-1.85
-1.28
-0.71
-0.22
0.16
0.46
0.75
1.08
1.44
1.77
1.96
1.95
1.73
1.38
1.00
0.70
0.56
0.60
0.77
1.03
1.30
1.54
1.71
1.81
1.80
1.64
1.29
0.73
0.02
-0.72
-1.31
-1.60
-1.54
-1.18
-0.69
-0.29
-0.11
-0.22
-0.55
-0.96
-1.36
-1.70
-2.01
-2.32
-2.59
-2.72
-2.56
-2.06
-1.25
-0.33
0.47
0.95
1.10
1.00
0.84
0.77
0.84
1.01
1.19
1.30
1.31
1.24
1.11
0.99
0.91
0.94
1.07
1.26
1.41
1.40
1.17
0.75
0.27
-0.12
-0.31
-0.30
-0.19
-0.06
0.04
0.14
0.25
0.38
0.48
0.47
0.31
0.05
-0.26
-0.53
-0.74
-0.90
-1.04
-1.18
-1.30
-1.36
-1.33
-1.18
-0.90
-0.55
-0.18
0.14
0.37
0.55
0.74
1.02
1.43
1.87
2.23
2.35
2.17
1.76
1.28
0.92
0.77
0.84
1.03
1.20
1.27
1.22
1.13
1.05
1.01
0.99
0.95
0.85
0.66
0.46
0.27
0.14
0.07
0.06
0.10
0.17
0.24
0.25
0.09
-0.30
-0.91
-1.61
-2.23
-2.60
-2.66
-2.44
-2.03
-1.50
-0.91
-0.30
0.24
0.60
0.71
0.59
0.38
0.26
0.36
0.65
0.97
1.16
1.10
0.86
0.58
0.40
0.37
0.44
0.50
0.46
0.29
0.07
-0.12
-0.18
-0.06
0.20
0.53
0.78
0.86
0.76
0.49
0.18
-0.11
-0.35
-0.59
-0.89
-1.30
-1.78
-2.22
-2.51
-2.59
-2.51
-2.36
-2.27
-2.28
-2.31
-2.27
-2.05
-1.63
-1.10
-0.57
-0.14
0.16
0.41
0.70
1.06
1.43
1.69
1.72
1.49
1.10
0.72
0.54
0.66
1.05
1.52
1.85
1.90
1.67
1.29
0.93
0.69
0.58
0.53
0.42
0.17
-0.22
-0.67
-1.09
-1.37
-1.45
-1.31
-1.01
-0.63
-0.29
-0.10
-0.13
-0.39
-0.84
-1.40
-1.97
-2.44
-2.71
-2.71
-2.43
-1.94
-1.32
-0.71
-0.19
0.20
0.44
0.58
0.67
0.73
0.78
0.81
0.79
0.73
0.62
0.49
0.33
0.16
-0.03
-0.20
-0.33
-0.36
-0.31
-0.20
-0.16
-0.26
-0.54
-0.97
-1.45
-1.90
-2.29
-2.65
-3.01
-3.35
-3.66
-3.89
-4.05
-4.20
-4.43
-4.79
-5.30
-5.91
-6.57
-7.25
-7.95
-8.70
-9.47
-10.20
-10.80
-11.16
-11.25
-11.09
-10.78
-10.37
-9.88
-9.23
-8.28
-6.88
-4.98
-2.65
-0.08
2.46
4.73
6.61
8.09
9.27
10.28
11.19
11.99
12.63
13.00
13.07
12.85
12.43
11.88
11.27
10.58
9.77
8.82
7.77
6.73
5.83
5.16
4.73
4.51
4.39
4.29
4.10
3.77
3.24
2.51
1.61
0.66
-0.19
-0.82
-1.13
-1.15
-0.95
-0.61
-0.19
0.26
0.70
1.11
1.43
1.62
1.68
1.62
1.47
1.24
0.96
0.65
0.36
0.14
0.03
0.04
0.12
0.25
0.38
0.51
0.64
0.77
0.88
0.91
0.83
0.61
0.25
-0.17
-0.60
-0.95
-1.16
-1.20
-1.08
-0.85
-0.58
-0.37
-0.31
-0.41
-0.66
-0.98
-1.27
-1.45
-1.48
-1.38
-1.19
-0.95
-0.72
-0.52
-0.30
-0.03
0.33
0.81
1.34
1.81
2.06
2.01
1.67
1.15
0.64
0.28
0.11
0.08
0.11
0.15
0.22
0.36
0.57
0.75
0.77
0.56
0.15
-0.32
-0.68
-0.86
-0.85
-0.76
-0.70
-0.68
-0.63
-0.52
-0.34
-0.16
-0.11
-0.24
-0.52
-0.85
-1.10
-1.22
-1.19
-1.09
-0.96
-0.83
-0.67
-0.45
-0.14
0.21
0.53
0.75
0.83
0.82
0.80
0.88
1.08
1.36
1.61
1.69
1.57
1.27
0.88
0.51
0.22
0.03
-0.07
-0.09
0.01
0.23
0.56
0.92
1.18
1.25
1.11
0.81
0.46
0.18
0.02
-0.01
0.02
0.04
0.00
-0.12
-0.29
-0.48
-0.69
-0.93
-1.20
-1.52
-1.83
-2.05
-2.11
-1.94
-1.60
-1.18
-0.82
-0.58
-0.47
-0.40
-0.31
-0.14
0.06
0.22
0.31
0.33
0.33
0.31
0.30
0.28
0.24
0.24
0.31
0.47
0.66
0.80
0.79
0.64
0.42
0.23
0.15
0.15
0.16
0.11
0.01
-0.08
-0.10
-0.03
0.06
0.09
-0.00
-0.20
-0.43
-0.62
-0.72
-0.76
-0.81
-0.92
-1.12
-1.35
-1.52
-1.51
-1.26
-0.79
-0.20
0.34
0.69
0.82
0.78
0.69
0.66
0.72
0.80
0.81
0.70
0.47
0.19
-0.03
-0.11
-0.04
0.16
0.42
0.70
0.91
1.04
1.08
1.08
1.10
1.15
1.24
1.30
1.26
1.09
0.80
0.45
0.10
-0.24
-0.56
-0.85
-1.06
-1.17
-1.20
-1.24
-1.41
-1.80
-2.36
-2.93
-3.29
-3.29
-2.92
-2.33
-1.69
-1.12
-0.64
-0.18
0.33
0.88
1.36
1.67
1.71
1.51
1.14
0.72
0.38
0.21
0.23
0.41
0.69
0.94
1.06
0.97
0.70
0.34
0.03
-0.10
-0.04
0.14
0.28
0.27
0.07
-0.26
-0.58
-0.80
-0.83
-0.72
-0.55
-0.44
-0.48
-0.68
-1.03
-1.42
-1.75
-1.93
-1.88
-1.63
-1.22
-0.75
-0.28
0.12
0.44
0.65
0.78
0.83
0.88
0.97
1.11
1.29
1.42
1.44
1.31
1.06
0.76
0.50
0.30
0.18
0.08
-0.04
-0.18
-0.31
-0.36
-0.31
-0.14
0.10
0.34
0.50
0.53
0.39
0.12
-0.20
-0.49
-0.68
-0.79
-0.84
-0.89
-0.96
-1.08
-1.25
-1.45
-1.65
-1.78
-1.79
-1.64
-1.32
-0.88
-0.43
-0.03
0.28
0.49
0.63
0.69
0.67
0.55
0.35
0.14
-0.00
-0.02
0.07
0.25
0.46
0.66
0.87
1.07
1.23
1.27
1.13
0.78
0.29
-0.17
-0.45
-0.42
-0.09
0.40
0.83
1.03
0.91
0.51
-0.05
-0.63
-1.14
-1.53
-1.81
-1.99
-2.06
-2.00
-1.79
-1.45
-1.02
-0.63
-0.34
-0.20
-0.19
-0.21
-0.18
-0.03
0.20
0.40
0.47
0.31
-0.03
-0.43
-0.72
-0.75
-0.49
-0.01
0.50
0.88
1.01
0.89
0.62
0.35
0.19
0.16
0.24
0.34
0.40
0.37
0.27
0.13
-0.01
-0.11
-0.17
-0.20
-0.28
-0.49
-0.88
-1.41
-1.95
-2.28
-2.23
-1.76
-0.99
-0.17
0.46
0.77
0.82
0.76
0.74
0.78
0.82
0.74
0.48
0.12
-0.18
-0.24
-0.01
0.43
0.86
1.08
0.97
0.61
0.17
-0.14
-0.23
-0.13
0.04
0.12
0.07
-0.10
-0.30
-0.45
-0.53
-0.56
-0.58
-0.59
-0.54
-0.41
-0.22
-0.04
0.03
-0.09
-0.37
-0.72
-0.98
-1.03
-0.81
-0.40
0.04
0.37
0.48
0.42
0.28
0.19
0.20
0.28
0.31
0.22
0.01
-0.21
-0.31
-0.21
0.10
0.48
0.79
0.94
0.90
0.74
0.55
0.38
0.27
0.20
0.14
0.06
-0.08
-0.28
-0.50
-0.67
-0.76
-0.77
-0.73
-0.74
-0.86
-1.10
-1.44
-1.84
-2.25
-2.69
-3.16
-3.64
-4.09
-4.42
-4.55
-4.43
-4.13
-3.74
-3.44
-3.36
-3.59
-4.10
-4.77
-5.47
-6.10
-6.63
-7.11
-7.63
-8.20
-8.80
-9.30
-9.60
-9.66
-9.49
-9.14
-8.64
-7.98
-7.10
-5.95
-4.53
-2.88
-1.06
0.85
2.80
4.74
6.58
8.25
9.65
10.68
11.27
11.39
11.08
10.46
9.68
8.93
8.33
7.95
7.75
7.61
7.43
7.15
6.75
6.29
5.82
5.38
5.00
4.66
4.36
4.07
3.80
3.51
3.21
2.90
2.62
2.38
2.22
2.14
2.11
2.11
2.10
2.08
2.05
2.01
1.94
1.79
1.56
1.23
0.86
0.48
0.12
-0.22
-0.53
-0.81
-1.05
-1.22
-1.31
-1.31
-1.24
-1.10
-0.92
-0.75
-0.62
-0.57
-0.61
-0.74
-0.94
-1.17
-1.40
-1.58
-1.67
-1.61
-1.38
-1.01
-0.54
-0.08
0.30
0.55
0.68
0.76
0.85
1.01
1.24
1.45
1.54
1.44
1.14
0.76
0.44
0.31
0.34
0.44
0.48
0.37
0.17
-0.01
-0.06
0.03
0.16
0.20
0.06
-0.20
-0.48
-0.62
-0.54
-0.25
0.14
0.46
0.59
0.44
0.06
-0.46
-0.95
-1.30
-1.42
-1.34
-1.15
-0.95
-0.80
-0.70
-0.61
-0.47
-0.25
0.03
0.33
0.60
0.83
1.03
1.21
1.36
1.48
1.53
1.50
1.36
1.13
0.84
0.56
0.37
0.34
0.48
0.73
0.98
1.13
1.09
0.86
0.48
0.05
-0.33
-0.63
-0.81
-0.88
-0.84
-0.69
-0.46
-0.20
0.01
0.09
-0.03
-0.35
-0.81
-1.28
-1.63
-1.78
-1.66
-1.33
-0.84
-0.30
0.22
0.64
0.93
1.04
1.00
0.85
0.66
0.54
0.55
0.69
0.88
1.00
0.97
0.75
0.40
-0.00
-0.34
-0.58
-0.70
-0.76
-0.79
-0.77
-0.66
-0.43
-0.06
0.37
0.77
1.00
1.00
0.80
0.49
0.20
0.02
-0.02
0.06
0.17
0.24
0.20
0.00
-0.39
-0.93
-1.55
-2.11
-2.47
-2.56
-2.39
-2.03
-1.58
-1.10
-0.65
-0.22
0.15
0.44
0.63
0.74
0.81
0.87
0.94
0.98
0.94
0.82
0.66
0.52
0.45
0.43
0.44
0.42
0.37
0.32
0.31
0.31
0.26
0.08
-0.24
-0.63
-0.96
-1.12
-1.08
-0.92
-0.72
-0.55
-0.42
-0.25
-0.02
0.27
0.49
0.55
0.36
-0.03
-0.51
-0.91
-1.13
-1.10
-0.84
-0.41
0.09
0.56
0.88
0.95
0.76
0.41
0.04
-0.22
-0.30
-0.25
-0.19
-0.23
-0.37
-0.56
-0.70
-0.73
-0.67
-0.54
-0.40
-0.25
-0.10
0.01
0.04
-0.03
-0.20
-0.39
-0.52
-0.54
-0.47
-0.35
-0.23
-0.11
0.04
0.20
0.31
0.30
0.11
-0.25
-0.66
-0.99
-1.14
-1.08
-0.87
-0.60
-0.34
-0.13
0.04
0.16
0.26
0.34
0.39
0.42
0.41
0.35
0.23
0.07
-0.10
-0.22
-0.28
-0.29
-0.29
-0.30
-0.31
-0.25
-0.06
0.24
0.52
0.61
0.40
-0.08
-0.61
-0.93
-0.81
-0.27
0.50
1.16
1.46
1.32
0.88
0.38
0.02
-0.10
-0.02
0.15
0.30
0.37
0.37
0.32
0.24
0.13
-0.01
-0.18
-0.30
-0.33
-0.25
-0.07
0.14
0.30
0.34
0.27
0.14
0.02
-0.02
0.08
0.27
0.48
0.58
0.47
0.15
-0.32
-0.77
-1.05
-1.06
-0.84
-0.49
-0.18
-0.04
-0.11
-0.36
-0.66
-0.92
-1.06
-1.09
-1.06
-1.00
-0.92
-0.81
-0.68
-0.57
-0.56
-0.72
-1.06
-1.50
-1.84
-1.91
-1.61
-1.02
-0.29
0.41
0.93
1.24
1.34
1.27
1.11
0.92
0.82
0.91
1.21
1.69
2.21
2.57
2.63
2.36
1.85
1.26
0.73
0.33
0.08
-0.07
-0.14
-0.15
-0.11
-0.06
-0.04
-0.11
-0.29
-0.56
-0.83
-0.99
-0.97
-0.77
-0.48
-0.20
-0.04
-0.03
-0.13
-0.29
-0.45
-0.57
-0.67
-0.72
-0.73
-0.70
-0.67
-0.68
-0.75
-0.85
-0.90
-0.82
-0.59
-0.26
0.07
0.31
0.43
0.46
0.50
0.59
0.72
0.86
0.95
1.02
1.10
1.27
1.51
1.77
1.96
2.01
1.92
1.78
1.72
1.85
2.18
2.67
3.20
3.71
4.16
4.60
5.06
5.59
6.14
6.66
7.12
7.57
8.11
8.92
10.09
11.66
13.51
15.51
17.52
19.50
21.48
23.56
25.85
28.40
31.23
34.37
37.88
41.88
46.45
51.61
57.19
62.95
68.67
74.39
80.45
87.45
96.02
106.48
118.64
131.79
144.84
156.76
166.80
174.76
180.83
185.57
189.70
194.03
199.35
206.20
214.61
223.71
231.71
236.17
234.72
225.85
209.46
186.92
160.56
132.85
105.73
80.34
57.01
35.66
16.10
-1.81
-18.08
-32.66
-45.47
-56.40
-65.32
-72.13
-76.80
-79.47
-80.46
-80.21
-79.24
-78.01
-76.88
-76.04
-75.59
-75.57
-75.96
-76.67
-77.94
-79.77
-81.79
-83.52
-84.71
-85.40
-85.71
-85.76
-85.37
-84.57
-83.19
-80.96
-77.77
-73.87
-69.83
-66.19
-63.26
-60.91
-59.68
-59.63
-60.17
-60.47
-60.05
-59.00
-57.60
-56.37
-55.66
-58.40
-66.18
-78.40
-92.96
-108.23
-123.93
-140.28
-158.22
-177.88
-204.33
-239.52
-280.83
-322.68
-360.61
-393.01
-419.52
-441.69
-460.31
-484.46
-518.71
-560.21
-600.96
-634.32
-658.35
-673.85
-685.47
-696.69
-720.31
-760.73
-810.32
-853.41
-876.67
-874.89
-849.04
-807.26
-684.00
-460.92
-173.85
110.58
343.22
509.68
609.47
670.13
709.21
737.38
749.48
743.38
721.62
692.50
662.87
635.12
610.48
587.08
564.79
535.49
495.22
446.82
398.21
356.20
323.41
300.34
283.79
271.12
254.90
231.13
201.12
170.20
143.34
122.77
109.06
100.11
94.00
86.66
75.79
61.82
47.34
34.82
25.47
19.73
16.71
15.52
14.40
12.19
8.74
4.80
1.25
-1.33
-2.64
-2.93
-2.54
-1.87
-1.26
-0.90
-0.78
-0.74
-0.63
-0.38
-0.03
0.30
0.50
0.54
0.47
0.39
0.35
0.34
0.30
0.15
-0.14
-0.53
-0.93
-1.28
-1.59
-1.88
-2.24
-2.68
-3.16
-3.57
-3.83
-3.98
-4.06
-4.14
-4.19
-4.08
-3.62
-2.74
-1.50
-0.09
1.24
2.36
3.28
4.12
5.02
6.01
6.99
7.81
8.35
8.60
8.61
8.44
8.10
7.57
6.85
5.98
5.11
4.43
4.02
3.85
3.71
3.33
2.53
1.25
-0.34
-2.01
-3.51
-4.68
-5.52
-6.11
-6.64
-7.24
-8.02
-8.99
-10.09
-11.19
-12.14
-12.79
-13.02
-12.79
-12.09
-11.04
-9.80
-8.57
-7.52
-6.71
-6.04
-5.22
-3.93
-1.96
0.68
3.68
6.57
8.83
10.13
10.35
9.60
8.18
6.44
4.73
3.30
2.31
1.72
1.41
1.17
0.82
0.27
-0.43
-1.14
-1.79
-2.37
-2.99
-3.76
-4.70
-5.69
-6.54
-7.09
-7.29
-7.26
-7.19
-7.24
-7.45
-7.65
-7.62
-7.14
-6.12
-4.67
-2.91
-0.98
1.13
3.49
6.15
9.00
11.68
13.63
14.39
13.76
12.01
9.77
7.77
6.52
6.10
6.25
6.49
6.48
6.12
5.56
5.01
4.60
4.26
3.86
3.24
2.37
1.41
0.55
-0.04
-0.29
-0.29
-0.25
-0.35
-0.73
-1.38
-2.17
-2.88
-3.24
-3.00
-1.96
-0.01
2.73
5.97
9.20
11.86
13.51
14.02
13.61
12.79
12.13
12.02
12.50
13.28
13.87
13.85
12.99
11.37
9.29
7.15
5.31
3.99
3.22
2.90
2.81
2.80
2.71
2.52
2.24
1.85
1.30
0.53
-0.49
-1.68
-2.83
-3.71
-4.17
-4.17
-3.83
-3.30
-2.67
-2.02
-1.33
-0.59
0.23
1.20
2.34
3.61
4.88
5.92
6.47
6.43
5.83
4.93
4.02
3.32
2.87
2.59
2.33
1.99
1.56
1.12
0.74
0.44
0.21
-0.01
-0.25
-0.52
-0.81
-1.11
-1.42
-1.72
-1.93
-1.91
-1.46
-0.39
1.31
3.46
5.67
7.43
8.35
8.27
7.41
6.27
5.47
5.47
6.40
8.00
9.75
11.11
11.74
11.58
10.80
9.66
8.37
7.00
5.60
4.22
2.96
1.97
1.40
1.27
1.48
1.82
2.06
2.01
1.62
0.95
0.16
-0.52
-0.95
-1.00
-0.66
0.02
0.88
1.68
2.15
2.04
1.27
-0.04
-1.58
-2.95
-3.82
-4.07
-3.80
-3.29
-2.79
-2.50
-2.43
-2.47
-2.42
-2.18
-1.70
-1.09
-0.49
-0.09
0.03
-0.10
-0.31
-0.37
-0.12
0.45
1.24
2.01
2.59
2.91
3.08
3.28
3.72
4.55
5.82
7.47
9.36
11.28
12.93
13.98
14.14
13.32
11.70
9.70
7.85
6.52
5.83
5.63
5.61
5.55
5.40
5.24
5.22
5.38
5.61
5.74
5.63
5.27
4.84
4.51
4.37
4.29
3.98
3.11
1.47
-0.86
-3.56
-6.14
-8.14
-9.26
-9.45
-8.84
-7.70
-6.33
-5.05
-4.11
-3.69
-3.86
-4.48
-5.33
-6.14
-6.76
-7.19
-7.59
-8.15
-8.95
-9.95
-10.94
-11.68
-12.00
-11.85
-11.32
-10.56
-9.68
-8.75
-7.76
-6.66
-5.42
-4.09
-2.80
-1.70
-0.93
-0.50
-0.32
-0.15
0.32
1.37
3.14
5.61
8.60
11.75
14.62
16.76
17.85
17.78
16.73
15.14
13.59
12.58
12.35
12.79
13.50
13.94
13.64
12.33
10.01
6.90
3.38
-0.14
-3.31
-5.84
-7.59
-8.57
-8.88
-8.72
-8.35
-8.00
-7.84
-7.92
-8.16
-8.36
-8.27
-7.72
-6.66
-5.21
-3.56
-1.97
-0.64
0.30
0.74
0.66
0.06
-0.97
-2.26
-3.57
-4.66
-5.38
-5.71
-5.78
-5.78
-5.88
-6.14
-6.51
-6.83
-6.96
-6.82
-6.47
-6.11
-5.97
-6.23
-6.86
-7.63
-8.19
-8.25
-7.70
-6.68
-5.45
-4.27
-3.25
-2.31
-1.25
0.15
2.01
4.32
6.97
9.80
12.55
14.89
16.41
16.72
15.64
13.31
10.29
7.36
5.25
4.36
4.58
5.40
6.14
6.26
5.52
4.02
2.04
-0.09
-2.11
-3.88
-5.31
-6.36
-7.03
-7.36
-7.46
-7.52
-7.69
-8.07
-8.60
-9.14
-9.48
-9.43
-8.87
-7.79
-6.27
-4.40
-2.30
-0.17
1.73
3.08
3.65
3.41
2.58
1.58
0.78
0.38
0.27
0.20
-0.09
-0.66
-1.35
-1.94
-2.29
-2.44
-2.56
-2.83
-3.30
-3.86
-4.34
-4.57
-4.54
-4.34
-4.14
-4.10
-4.30
-4.71
-5.22
-5.58
-5.56
-4.91
-3.55
-1.61
0.57
2.57
3.99
4.64
4.57
4.09
3.58
3.40
3.75
4.67
6.00
7.46
8.74
9.53
9.65
9.08
7.98
6.70
5.59
4.91
4.66
4.59
4.36
3.69
2.52
1.07
-0.31
-1.27
-1.67
-1.60
-1.32
-1.13
-1.22
-1.65
-2.38
-3.35
-4.55
-5.97
-7.55
-9.14
-10.49
-11.38
-11.70
-11.56
-11.21
-10.98
-11.14
-11.73
-12.66
-13.66
-14.43
-14.73
-14.46
-13.64
-12.40
-10.88
-9.23
-7.57
-5.98
-4.58
-3.40
-2.46
-1.64
-0.82
0.15
1.28
2.41
3.27
3.57
3.13
1.95
0.25
-1.60
-3.17
-4.10
-4.29
-3.92
-3.53
-3.77
-5.07
-7.36
-9.88
-11.45
-10.97
-8.05
-3.27
1.91
5.86
7.53
7.06
5.76
5.47
7.65
12.57
19.07
25.04
28.44
28.24
24.91
20.24
16.56
15.68
18.38
24.29
32.26
40.58
47.04
49.28
45.30
34.45
18.60
2.12
-9.42
-11.64
-3.81
9.93
21.92
24.30
12.92
-10.52
-39.32
-65.27
-82.68
-90.61
-92.19
-91.68
-91.40
-90.44
-85.47
-73.36
-53.42
-27.95
-1.02
23.67
44.26
60.62
73.37
82.72
88.01
88.65
85.07
79.03
73.27
70.42
71.86
77.41
85.80
95.46
105.28
114.92
124.46
133.89
142.90
150.93
157.51
162.53
166.06
168.10
168.12
165.10
157.93
146.27
131.05
114.48
99.14
86.69
77.02
68.34
58.43
46.16
32.42
19.63
10.32
5.58
4.31
3.96
2.02
-2.71
-9.63
-17.03
-23.23
-27.33
-29.33
-29.69
-28.91
-27.43
-25.83
-24.98
-25.91
-29.40
-35.52
-43.41
-51.79
-59.52
-66.26
-72.79
-80.64
-91.43
-106.11
-124.32
-144.30
-163.34
-178.44
-187.15
-188.19
-181.71
-169.22
-153.11
-136.08
-120.49
-107.91
-98.85
-92.79
-88.37
-83.89
-77.81
-69.36
-58.72
-46.94
-35.46
-25.46
-17.52
-11.57
-7.20
-4.16
-2.53
-2.67
-4.78
-8.60
-13.30
-17.77
-21.14
-23.19
-24.32
-25.28
-26.70
-28.78
-31.25
-33.57
-35.21
-35.86
-35.36
-33.72
-30.99
-27.27
-22.79
-17.91
-13.05
-8.62
-4.88
-1.96
0.13
1.47
2.14
2.31
2.19
2.03
2.06
2.36
2.90
3.48
3.82
3.69
3.02
1.87
0.45
-1.04
-2.43
-3.64
-4.63
-5.39
-5.92
-6.26
-6.53
-6.87
-7.42
-8.24
-9.24
-10.20
-10.88
-11.10
-10.79
-9.97
-8.81
-7.50
-6.28
-5.34
-4.85
-4.81
-5.05
-5.27
-5.10
-4.29
-2.76
-0.61
1.89
4.45
6.84
8.89
10.53
11.71
12.36
12.45
11.98
11.00
9.67
8.18
6.70
5.35
4.15
3.05
2.03
1.10
0.32
-0.24
-0.60
-0.87
-1.23
-1.75
-2.42
-3.05
-3.44
-3.52
-3.34
-3.15
-3.18
-3.58
-4.33
-5.29
-6.22
-6.93
-7.22
-6.94
-6.00
-4.40
-2.27
0.12
2.45
4.45
5.98
7.09
7.89
8.50
8.98
9.31
9.37
9.07
8.35
7.27
5.95
4.61
3.42
2.51
1.88
1.48
1.22
1.02
0.85
0.70
0.52
0.25
-0.18
-0.79
-1.51
-2.20
-2.75
-3.12
-3.40
-3.71
-4.15
-4.68
-5.18
-5.46
-5.37
-4.86
-3.92
-2.58
-0.90
1.03
3.05
4.91
6.38
7.28
7.64
7.64
7.55
7.55
7.65
7.71
7.51
6.95
6.07
5.03
4.04
3.20
2.52
1.97
1.50
1.09
0.74
0.45
0.15
-0.20
-0.63
-1.09
-1.55
-1.97
-2.36
-2.76
-3.19
-3.67
-4.17
-4.67
-5.14
-5.47
-5.50
-5.03
-3.86
-1.97
0.45
3.05
5.42
7.24
8.36
8.82
8.79
8.48
8.06
7.65
7.27
6.86
6.31
5.53
4.51
3.32
2.13
1.10
0.35
-0.09
-0.26
-0.26
-0.14
-0.01
0.04
-0.09
-0.47
-1.08
-1.85
-2.63
-3.32
-3.87
-4.34
-4.84
-5.39
-5.92
-6.20
-5.96
-4.97
-3.18
-0.75
2.01
4.68
6.90
8.48
9.38
9.76
9.82
9.77
9.68
9.53
9.22
8.63
7.76
6.68
5.56
4.56
3.79
3.27
2.95
2.80
2.74
2.72
2.64
2.41
1.94
1.21
0.30
-0.64
-1.47
-2.07
-2.46
-2.73
-3.02
-3.47
-4.15
-5.01
-5.91
-6.58
-6.78
-6.26
-4.96
-2.98
-0.55
1.99
4.29
6.12
7.34
7.96
8.06
7.75
7.13
6.31
5.42
4.56
3.81
3.18
2.60
1.99
1.32
0.65
0.10
-0.22
-0.27
-0.15
-0.02
-0.04
-0.30
-0.76
-1.33
-1.90
-2.45
-2.98
-3.55
-4.21
-4.98
-5.81
-6.62
-7.30
-7.72
-7.79
-7.37
-6.39
-4.81
-2.68
-0.20
2.36
4.69
6.56
7.87
8.64
8.95
8.92
8.65
8.22
7.69
7.11
6.46
5.68
4.73
3.66
2.58
1.72
1.25
1.19
1.43
1.71
1.83
1.65
1.23
0.65
0.01
-0.65
-1.34
-2.04
-2.70
-3.26
-3.67
-3.96
-4.26
-4.71
-5.40
-6.33
-7.31
-8.06
-8.24
-7.62
-6.12
-3.91
-1.32
1.23
3.37
4.90
5.82
6.29
6.48
6.56
6.59
6.55
6.38
6.05
5.59
5.05
4.51
3.99
3.48
2.91
2.23
1.50
0.86
0.44
0.32
0.40
0.50
0.39
-0.03
-0.73
-1.54
-2.27
-2.85
-3.29
-3.67
-4.04
-4.35
-4.50
-4.42
-4.13
-3.72
-3.28
-2.83
-2.32
-1.63
-0.72
0.43
1.76
3.15
4.54
5.86
7.06
8.07
8.78
9.13
9.10
8.70
8.02
7.15
6.17
5.15
4.17
3.26
2.46
1.81
1.33
1.02
0.89
0.91
1.03
1.16
1.16
0.93
0.36
-0.54
-1.65
-2.77
-3.68
-4.22
-4.38
-4.35
-4.36
-4.67
-5.37
-6.39
-7.52
-8.48
-9.02
-8.96
-8.23
-6.83
-4.85
-2.47
0.06
2.50
4.62
6.28
7.42
8.10
8.42
8.48
8.35
8.06
7.57
6.89
6.01
5.02
4.01
3.05
2.23
1.54
1.00
0.62
0.41
0.39
0.49
0.61
0.61
0.40
-0.04
-0.62
-1.24
-1.80
-2.29
-2.72
-3.13
-3.54
-4.00
-4.53
-5.21
-6.11
-7.20
-8.33
-9.20
-9.42
-8.73
-7.05
-4.65
-1.95
0.54
2.49
3.80
4.64
5.28
5.95
6.69
7.39
7.88
8.01
7.78
7.32
6.75
6.16
5.53
4.78
3.87
2.90
2.02
1.42
1.21
1.32
1.56
1.66
1.40
0.72
-0.33
-1.54
-2.70
-3.60
-4.18
-4.43
-4.47
-4.46
-4.55
-4.89
-5.54
-6.47
-7.53
-8.51
-9.13
-9.15
-8.44
-7.03
-5.12
-2.98
-0.88
0.99
2.57
3.91
5.08
6.13
7.03
7.71
8.06
8.03
7.63
6.98
6.24
5.59
5.14
4.90
4.79
4.65
4.36
3.87
3.25
2.66
2.22
2.01
1.96
1.90
1.62
1.03
0.13
-0.96
-2.03
-2.95
-3.64
-4.15
-4.59
-5.05
-5.59
-6.23
-6.96
-7.77
-8.59
-9.33
-9.80
-9.77
-9.05
-7.57
-5.44
-2.95
-0.46
1.70
3.35
4.48
5.21
5.76
6.28
6.86
7.46
7.95
8.17
8.01
7.48
6.70
5.88
5.20
4.75
4.51
4.38
4.28
4.11
3.88
3.61
3.31
2.99
2.58
2.04
1.33
0.44
-0.58
-1.64
-2.63
-3.49
-4.15
-4.62
-4.94
-5.22
-5.55
-6.03
-6.71
-7.57
-8.50
-9.31
-9.74
-9.55
-8.56
-6.77
-4.32
-1.51
1.31
3.80
5.73
7.00
7.65
7.85
7.79
7.65
7.50
7.35
7.15
6.86
6.49
6.07
5.68
5.35
5.05
4.73
4.31
3.79
3.22
2.70
2.28
1.97
1.68
1.30
0.73
-0.02
-0.87
-1.70
-2.42
-3.01
-3.52
-4.00
-4.48
-4.98
-5.48
-6.01
-6.65
-7.46
-8.40
-9.31
-9.87
-9.77
-8.84
-7.11
-4.85
-2.41
-0.12
1.86
3.48
4.83
5.97
6.90
7.56
7.85
7.77
7.36
6.78
6.21
5.80
5.56
5.43
5.25
4.89
4.28
3.49
2.68
2.01
1.59
1.39
1.30
1.10
0.65
-0.14
-1.15
-2.21
-3.12
-3.76
-4.17
-4.45
-4.73
-5.09
-5.54
-6.05
-6.65
-7.37
-8.26
-9.24
-10.10
-10.51
-10.14
-8.87
-6.81
-4.30
-1.77
0.43
2.17
3.52
4.64
5.68
6.71
7.66
8.42
8.88
9.00
8.82
8.39
7.82
7.15
6.48
5.83
5.24
4.74
4.33
4.00
3.76
3.63
3.58
3.57
3.51
3.28
2.81
2.08
1.14
0.03
-1.14
-2.32
-3.41
-4.34
-5.09
-5.70
-6.27
-6.96
-7.87
-9.00
-10.21
-11.23
-11.77
-11.64
-10.76
-9.23
-7.22
-4.96
-2.64
-0.40
1.64
3.37
4.76
5.81
6.56
7.10
7.47
7.72
7.85
7.81
7.61
7.26
6.83
6.40
6.01
5.66
5.35
5.05
4.73
4.39
4.02
3.61
3.15
2.62
2.01
1.36
0.68
0.03
-0.57
-1.11
-1.63
-2.19
-2.80
-3.45
-4.06
-4.58
-5.02
-5.47
-6.07
-6.96
-8.16
-9.49
-10.65
-11.27
-11.06
-9.94
-8.05
-5.73
-3.34
-1.16
0.66
2.13
3.36
4.45
5.47
6.39
7.15
7.69
7.96
7.98
7.75
7.30
6.68
5.96
5.26
4.73
4.49
4.56
4.85
5.17
5.31
5.13
4.60
3.79
2.80
1.80
0.87
0.11
-0.48
-0.90
-1.21
-1.48
-1.78
-2.17
-2.68
-3.34
-4.14
-5.07
-6.09
-7.17
-8.24
-9.24
-10.05
-10.54
-10.58
-10.07
-9.00
-7.41
-5.43
-3.22
-0.98
1.14
2.97
4.45
5.56
6.38
7.04
7.59
8.00
8.13
7.85
7.18
6.31
5.50
5.02
4.92
5.06
5.21
5.18
4.97
4.65
4.32
3.99
3.57
2.99
2.25
1.45
0.75
0.20
-0.24
-0.72
-1.36
-2.17
-3.05
-3.84
-4.45
-4.89
-5.29
-5.77
-6.43
-7.29
-8.26
-9.22
-9.96
-10.25
-9.89
-8.75
-6.85
-4.40
-1.74
0.79
2.91
4.52
5.68
6.51
7.13
7.59
7.88
7.96
7.80
7.39
6.78
6.06
5.34
4.74
4.32
4.09
3.98
3.89
3.74
3.45
3.06
2.61
2.18
1.81
1.46
1.07
0.60
0.04
-0.54
-1.07
-1.51
-1.90
-2.32
-2.84
-3.49
-4.25
-5.05
-5.88
-6.76
-7.70
-8.68
-9.54
-10.00
-9.80
-8.76
-6.92
-4.54
-2.00
0.30
2.14
3.42
4.25
4.77
5.16
5.53
5.91
6.28
6.56
6.68
6.57
6.26
5.83
5.41
5.09
4.89
4.74
4.51
4.12
3.54
2.85
2.22
1.77
1.58
1.58
1.65
1.62
1.36
0.82
0.05
-0.88
-1.86
-2.79
-3.60
-4.24
-4.73
-5.14
-5.61
-6.25
-7.14
-8.25
-9.45
-10.52
-11.23
-11.36
-10.78
-9.45
-7.43
-4.94
-2.29
0.14
2.06
3.35
4.09
4.55
5.02
5.64
6.40
7.11
7.53
7.53
7.13
6.50
5.83
5.28
4.88
4.61
4.40
4.17
3.96
3.81
3.73
3.70
3.61
3.36
2.87
2.17
1.34
0.51
-0.20
-0.78
-1.27
-1.76
-2.33
-2.99
-3.70
-4.38
-4.98
-5.49
-5.97
-6.54
-7.32
-8.33
-9.44
-10.39
-10.84
-10.53
-9.36
-7.46
-5.12
-2.68
-0.43
1.45
2.89
3.94
4.65
5.12
5.45
5.72
6.02
6.33
6.60
6.73
6.65
6.32
5.78
5.14
4.50
4.01
3.71
3.61
3.66
3.74
3.76
3.64
3.37
2.98
2.52
2.03
1.54
1.04
0.48
-0.15
-0.85
-1.57
-2.22
-2.74
-3.13
-3.45
-3.81
-4.34
-5.12
-6.19
-7.48
-8.86
-10.16
-11.16
-11.62
-11.35
-10.25
-8.36
-5.88
-3.11
-0.36
2.09
4.04
5.40
6.20
6.57
6.70
6.81
6.97
7.11
7.09
6.74
6.02
5.07
4.13
3.42
3.06
3.02
3.17
3.34
3.44
3.39
3.18
2.77
2.16
1.36
0.44
-0.46
-1.19
-1.68
-1.95
-2.13
-2.41
-2.95
-3.75
-4.71
-5.64
-6.41
-7.01
-7.56
-8.24
-9.14
-10.19
-11.21
-11.92
-12.08
-11.56
-10.35
-8.55
-6.36
-4.00
-1.68
0.45
2.30
3.85
5.14
6.23
7.20
8.09
8.91
9.63
10.15
10.39
10.31
9.92
9.32
8.65
8.06
7.60
7.31
7.14
7.02
6.86
6.56
6.05
5.26
4.23
3.05
1.89
0.88
0.11
-0.44
-0.85
-1.25
-1.74
-2.34
-3.03
-3.71
-4.34
-4.88
-5.40
-6.00
-6.79
-7.79
-8.91
-9.94
-10.58
-10.59
-9.83
-8.39
-6.51
-4.48
-2.54
-0.85
0.56
1.70
2.58
3.24
3.70
4.06
4.41
4.81
5.25
5.62
5.76
5.60
5.14
4.50
3.82
3.24
2.81
2.52
2.35
2.27
2.23
2.19
2.12
1.97
1.75
1.44
1.04
0.48
-0.27
-1.20
-2.18
-3.06
-3.71
-4.07
-4.24
-4.36
-4.56
-4.89
-5.30
-5.75
-6.26
-6.93
-7.82
-8.87
-9.82
-10.31
-10.01
-8.81
-6.91
-4.68
-2.56
-0.81
0.49
1.48
2.37
3.30
4.31
5.30
6.16
6.77
7.11
7.16
6.97
6.58
6.04
5.39
4.69
4.03
3.48
3.10
2.92
2.89
2.94
2.92
2.76
2.41
1.89
1.28
0.67
0.14
-0.31
-0.66
-0.92
-1.12
-1.32
-1.57
-1.97
-2.62
-3.54
-4.69
-5.92
-7.05
-7.93
-8.48
-8.77
-8.92
-9.00
-9.00
-8.78
-8.18
-7.08
-5.53
-3.69
-1.77
0.06
1.73
3.24
4.60
5.80
6.78
7.50
7.93
8.14
8.15
8.02
7.75
7.37
6.94
6.54
6.23
5.99
5.74
5.37
4.85
4.24
3.69
3.36
3.28
3.34
3.34
3.10
2.53
1.71
0.83
0.03
-0.58
-1.03
-1.42
-1.87
-2.45
-3.12
-3.78
-4.32
-4.67
-4.89
-5.12
-5.54
-6.28
-7.31
-8.43
-9.34
-9.77
-9.50
-8.52
-6.94
-4.97
-2.83
-0.73
1.17
2.72
3.87
4.62
5.10
5.46
5.82
6.23
6.64
6.90
6.82
6.31
5.36
4.14
2.87
1.85
1.28
1.22
1.62
2.26
2.90
3.31
3.38
3.08
2.50
1.77
0.99
0.26
-0.37
-0.85
-1.17
-1.35
-1.48
-1.65
-1.97
-2.50
-3.22
-4.05
-4.86
-5.61
-6.33
-7.10
-8.00
-8.98
-9.84
-10.31
-10.14
-9.25
-7.71
-5.77
-3.68
-1.61
0.32
2.06
3.56
4.74
5.58
6.10
6.40
6.57
6.67
6.68
6.55
6.23
5.76
5.23
4.75
4.38
4.10
3.86
3.62
3.38
3.19
3.10
3.11
3.13
3.02
2.64
1.92
0.93
-0.15
-1.13
-1.89
-2.44
-2.87
-3.31
-3.79
-4.23
-4.50
-4.54
-4.44
-4.44
-4.77
-5.56
-6.76
-8.14
-9.37
-10.20
-10.49
-10.19
-9.36
-8.06
-6.39
-4.43
-2.30
-0.15
1.85
3.56
4.88
5.78
6.32
6.62
6.81
6.98
7.15
7.22
7.11
6.75
6.17
5.52
4.98
4.64
4.50
4.47
4.42
4.25
3.96
3.58
3.19
2.79
2.36
1.85
1.20
0.45
-0.35
-1.10
-1.71
-2.15
-2.48
-2.79
-3.18
-3.70
-4.29
-4.89
-5.43
-5.94
-6.54
-7.35
-8.40
-9.55
-10.53
-10.98
-10.63
-9.41
-7.47
-5.16
-2.88
-0.97
0.42
1.32
1.95
2.59
3.41
4.44
5.54
6.52
7.20
7.54
7.58
7.44
7.18
6.78
6.24
5.58
4.91
4.40
4.20
4.31
4.64
4.97
5.11
4.94
4.48
3.85
3.17
2.50
1.83
1.08
0.17
-0.87
-1.94
-2.88
-3.59
-4.07
-4.43
-4.83
-5.36
-6.01
-6.68
-7.29
-7.84
-8.39
-9.02
-9.67
-10.14
-10.12
-9.35
-7.78
-5.59
-3.14
-0.82
1.09
2.50
3.51
4.26
4.93
5.59
6.25
6.81
7.17
7.25
7.03
6.60
6.07
5.60
5.29
5.17
5.18
5.19
5.07
4.76
4.28
3.72
3.20
2.78
2.45
2.10
1.67
1.12
0.49
-0.10
-0.58
-0.98
-1.38
-1.92
-2.65
-3.54
-4.48
-5.35
-6.10
-6.78
-7.51
-8.39
-9.43
-10.48
-11.26
-11.45
-10.82
-9.33
-7.16
-4.62
-2.09
0.14
1.93
3.29
4.35
5.22
5.95
6.54
6.98
7.24
7.36
7.37
7.24
6.97
6.48
5.76
4.86
3.90
3.07
2.57
2.47
2.74
3.19
3.61
3.79
3.62
3.15
2.54
1.95
1.49
1.12
0.74
0.26
-0.34
-0.96
-1.47
-1.81
-2.07
-2.44
-3.11
-4.19
-5.59
-7.12
-8.52
-9.61
-10.32
-10.60
-10.44
-9.79
-8.64
-7.01
-5.06
-2.98
-1.01
0.70
2.08
3.20
4.18
5.10
5.98
6.76
7.29
7.47
7.27
6.78
6.16
5.59
5.17
4.90
4.72
4.55
4.37
4.16
3.92
3.66
3.35
2.98
2.56
2.13
1.72
1.33
0.94
0.49
-0.06
-0.75
-1.56
-2.43
-3.29
-4.03
-4.61
-5.04
-5.41
-5.86
-6.55
-7.57
-8.88
-10.31
-11.60
-12.42
-12.55
-11.89
-10.50
-8.60
-6.45
-4.29
-2.29
-0.52
1.00
2.34
3.53
4.58
5.49
6.21
6.69
6.90
6.91
6.81
6.71
6.71
6.78
6.83
6.72
6.43
5.97
5.47
5.03
4.67
4.31
3.84
3.20
2.44
1.70
1.12
0.77
0.58
0.35
-0.12
-0.97
-2.14
-3.47
-4.69
-5.62
-6.20
-6.56
-6.92
-7.52
-8.47
-9.77
-11.24
-12.68
-13.83
-14.48
-14.46
-13.69
-12.12
-9.85
-7.09
-4.16
-1.42
0.88
2.64
3.94
4.99
5.98
7.02
8.09
9.03
9.71
10.02
9.97
9.66
9.19
8.67
8.15
7.62
7.09
6.58
6.13
5.80
5.62
5.61
5.70
5.78
5.72
5.38
4.71
3.77
2.70
1.66
0.74
-0.08
-0.87
-1.70
-2.57
-3.42
-4.17
-4.79
-5.36
-6.00
-6.84
-7.95
-9.28
-10.60
-11.61
-11.98
-11.46
-10.01
-7.84
-5.35
-2.98
-1.01
0.48
1.66
2.78
3.99
5.28
6.47
7.33
7.76
7.80
7.57
7.24
6.86
6.43
5.92
5.37
4.88
4.56
4.46
4.52
4.60
4.56
4.30
3.81
3.18
2.54
1.98
1.53
1.11
0.60
-0.13
-1.10
-2.22
-3.32
-4.18
-4.69
-4.91
-5.00
-5.23
-5.78
-6.74
-8.05
-9.60
-11.15
-12.47
-13.26
-13.25
-12.27
-10.37
-7.75
-4.82
-1.99
0.41
2.24
3.58
4.63
5.57
6.52
7.44
8.22
8.74
8.92
8.79
8.44
8.01
7.59
7.20
6.84
6.42
5.89
5.26
4.61
4.10
3.83
3.85
4.01
4.07
3.79
3.08
2.03
0.91
-0.00
-0.57
-0.82
-0.94
-1.09
-1.36
-1.69
-2.02
-2.33
-2.72
-3.32
-4.25
-5.52
-6.97
-8.33
-9.28
-9.56
-8.98
-7.54
-5.40
-2.84
-0.13
2.54
5.08
7.54
9.92
12.19
14.25
16.03
17.59
19.07
20.67
22.46
24.35
26.12
27.52
28.36
28.60
28.31
27.60
26.59
25.42
24.28
23.43
23.13
23.58
24.85
26.77
29.01
31.14
32.68
33.24
32.45
30.02
25.76
19.61
11.73
2.53
-7.39
-17.50
-27.45
-37.25
-47.17
-57.58
-68.66
-80.16
-91.42
-101.45
-109.24
-113.99
-115.34
-113.49
-109.14
-103.29
-97.03
-91.20
-86.25
-82.08
-78.18
-73.88
-68.49
-61.58
-53.03
-43.04
-32.12
-20.98
-10.38
-0.99
6.80
13.03
18.13
22.73
27.44
32.57
38.05
43.55
48.73
53.46
57.93
62.52
67.55
73.10
78.93
84.58
89.55
93.51
96.35
98.14
99.06
99.26
98.68
97.08
93.93
88.53
80.26
68.84
54.63
38.74
22.83
8.54
-3.27
-12.96
-22.23
-33.42
-48.58
-68.48
-92.23
-117.42
-140.81
-159.18
-169.95
-171.66
-164.11
-148.43
-126.95
-102.86
-79.47
-59.26
-43.08
-30.01
-17.97
-4.86
10.33
27.04
43.41
57.33
67.42
73.63
77.07
79.26
81.37
83.80
86.27
88.33
89.84
90.91
91.54
91.12
88.25
81.27
69.12
52.27
32.93
14.45
0.10
-8.24
-10.64
-8.90
-5.55
-2.81
-1.82
-2.61
-4.54
-6.85
-9.14
-11.35
-13.65
-16.11
-18.67
-21.11
-23.13
-24.52
-25.22
-25.29
-24.86
-24.09
-23.05
-21.76
-20.15
-18.21
-16.10
-14.11
-12.68
-12.14
-12.54
-13.50
-14.32
-14.21
-12.65
-9.57
-5.48
-1.17
2.51
4.99
6.16
6.23
5.66
4.85
4.10
3.48
2.94
2.41
1.81
1.12
0.38
-0.41
-1.25
-2.18
-3.24
-4.42
-5.59
-6.57
-7.16
-7.17
-6.60
-5.62
-4.54
-3.66
-3.16
-3.05
-3.22
-3.51
-3.73
-3.81
-3.81
-3.83
-3.96
-4.20
-4.46
-4.74
-5.17
-5.78
-6.64
-7.81
-9.24
-10.70
-11.84
-12.24
-11.65
-10.08
-7.41
-3.80
0.30
4.35
8.03
11.27
14.20
16.82
18.82
20.74
22.96
25.64
28.76
32.35
36.43
40.80
44.66
46.68
47.29
47.26
47.48
48.67
51.24
55.31
60.68
66.41
71.19
76.72
85.23
98.02
114.42
131.94
147.30
158.43
164.62
156.36
131.19
93.10
49.54
6.19
-35.01
-73.83
-108.94
-139.39
-168.85
-198.76
-230.09
-262.67
-294.63
-322.46
-342.54
-346.08
-322.06
-270.46
-200.80
-129.58
-70.97
-29.49
1.37
29.05
59.34
94.30
128.45
157.70
179.01
191.24
195.11
192.63
186.14
178.42
170.61
161.66
151.22
139.60
128.22
118.83
112.29
107.62
102.83
95.17
82.14
63.97
43.21
23.73
9.09
0.94
-1.54
-0.59
0.88
0.10
-4.19
-11.91
-21.86
-32.39
-41.97
-49.67
-54.96
-57.94
-59.27
-59.71
-59.90
-60.10
-60.12
-59.55
-58.13
-55.85
-53.13
-50.56
-48.62
-47.41
-46.68
-45.95
-44.85
-43.28
-41.42
-39.56
-37.84
-36.22
-34.53
-32.63
-30.62
-28.79
-27.48
-26.90
-26.98
-27.37
-27.65
-27.41
-26.44
-24.65
-22.09
-18.92
-15.31
-11.47
-7.59
-3.82
-0.24
3.14
6.31
9.22
11.77
13.82
15.32
16.38
17.20
18.05
19.20
20.77
22.73
24.87
26.90
28.46
29.24
29.06
27.86
25.79
23.12
20.22
17.43
14.97
12.84
10.86
8.76
6.32
3.49
0.49
-2.25
-4.25
-5.21
-5.10
-4.29
-3.31
-2.73
-2.91
-3.89
-5.43
-7.08
-8.42
-9.18
-9.33
-9.05
-8.63
-8.32
-8.18
-8.16
-8.15
-8.10
-8.11
-8.35
-8.94
-9.81
-10.70
-11.25
-11.19
-10.49
-9.31
-7.95
-6.67
-5.60
-4.72
-3.92
-3.10
-2.26
-1.48
-0.91
-0.67
-0.83
-1.32
-2.03
-2.81
-3.51
-4.04
-4.36
-4.45
-4.34
-4.11
-3.91
-3.86
-4.05
-4.51
-5.12
-5.75
-6.25
-6.52
-6.53
-6.36
-6.10
-5.88
-5.84
-6.07
-6.62
-7.45
-8.40
-9.26
-9.80
-9.85
-9.37
-8.43
-7.12
-5.59
-3.95
-2.32
-0.84
0.32
1.03
1.27
1.18
1.00
0.98
1.22
1.64
2.02
2.14
1.91
1.41
0.81
0.30
-0.08
-0.34
-0.56
-0.81
-1.08
-1.35
-1.60
-1.83
-2.07
-2.36
-2.76
-3.27
-3.85
-4.39
-4.78
-4.96
-4.96
-4.86
-4.79
-4.77
-4.72
-4.46
-3.82
-2.74
-1.30
0.28
1.78
3.05
4.03
4.73
5.17
5.36
5.31
5.07
4.69
4.24
3.76
3.28
2.82
2.44
2.18
2.07
2.08
2.15
2.22
2.25
2.23
2.14
1.95
1.63
1.15
0.53
-0.13
-0.71
-1.11
-1.31
-1.42
-1.58
-1.97
-2.66
-3.63
-4.70
-5.63
-6.15
-6.11
-5.49
-4.39
-2.98
-1.44
0.10
1.55
2.87
3.99
4.84
5.39
5.58
5.44
5.05
4.54
4.05
3.72
3.59
3.64
3.74
3.72
3.45
2.96
2.40
1.97
1.78
1.78
1.84
1.80
1.62
1.36
1.13
0.95
0.74
0.35
-0.28
-1.10
-1.93
-2.57
-2.92
-3.07
-3.22
-3.59
-4.26
-5.12
-5.89
-6.29
-6.11
-5.32
-4.07
-2.61
-1.15
0.15
1.26
2.19
2.92
3.44
3.73
3.80
3.70
3.55
3.43
3.37
3.36
3.32
3.21
2.98
2.65
2.28
1.92
1.66
1.56
1.65
1.89
2.18
2.40
2.45
2.28
1.90
1.39
0.83
0.25
-0.37
-1.04
-1.78
-2.56
-3.35
-4.13
-4.92
-5.71
-6.45
-7.00
-7.20
-6.94
-6.20
-5.09
-3.80
-2.49
-1.26
-0.14
0.89
1.85
2.78
3.65
4.42
5.05
5.46
5.58
5.42
5.03
4.51
3.97
3.50
3.12
2.85
2.64
2.48
2.36
2.28
2.22
2.19
2.18
2.16
2.08
1.88
1.49
0.91
0.21
-0.47
-1.00
-1.31
-1.41
-1.42
-1.48
-1.73
-2.25
-3.00
-3.86
-4.62
-5.08
-5.10
-4.61
-3.67
-2.41
-1.02
0.33
1.50
2.43
3.10
3.55
3.86
4.12
4.39
4.65
4.83
4.81
4.54
4.05
3.45
2.91
2.54
2.38
2.33
2.27
2.08
1.73
1.29
0.84
0.48
0.21
-0.01
-0.23
-0.49
-0.75
-0.95
-1.04
-1.03
-1.01
-1.12
-1.46
-2.06
-2.84
-3.66
-4.35
-4.80
-4.97
-4.92
-4.68
-4.29
-3.74
-3.02
-2.14
-1.16
-0.15
0.80
1.64
2.34
2.93
3.44
3.89
4.26
4.51
4.58
4.44
4.12
3.72
3.34
3.08
2.91
2.80
2.63
2.36
2.01
1.67
1.45
1.39
1.49
1.64
1.70
1.59
1.29
0.84
0.32
-0.19
-0.68
-1.16
-1.64
-2.13
-2.60
-3.01
-3.36
-3.68
-4.02
-4.39
-4.70
-4.81
-4.54
-3.83
-2.75
-1.47
-0.23
0.81
1.60
2.22
2.78
3.30
3.75
3.98
3.91
3.54
2.98
2.40
1.92
1.62
1.49
1.49
1.57
1.70
1.86
2.00
2.09
2.05
1.87
1.55
1.15
0.73
0.35
0.01
-0.29
-0.56
-0.83
-1.12
-1.48
-1.91
-2.44
-3.02
-3.53
-3.91
-4.06
-4.01
-3.82
-3.56
-3.27
-2.93
-2.52
-2.01
-1.43
-0.82
-0.21
0.40
1.05
1.75
2.45
3.02
3.33
3.32
3.01
2.55
2.12
1.87
1.83
1.95
2.11
2.22
2.25
2.21
2.14
2.08
2.03
1.95
1.82
1.60
1.28
0.89
0.46
0.00
-0.45
-0.84
-1.18
-1.47
-1.76
-2.12
-2.58
-3.13
-3.72
-4.27
-4.71
-4.96
-4.98
-4.74
-4.22
-3.45
-2.55
-1.62
-0.79
-0.09
0.50
1.05
1.61
2.16
2.66
3.05
3.31
3.47
3.55
3.55
3.45
3.26
2.97
2.65
2.39
2.21
2.11
2.05
1.98
1.88
1.73
1.53
1.25
0.84
0.32
-0.24
-0.72
-1.00
-1.04
-0.95
-0.86
-0.93
-1.21
-1.69
-2.25
-2.82
-3.34
-3.84
-4.34
-4.80
-5.12
-5.18
-4.87
-4.20
-3.27
-2.26
-1.33
-0.56
0.08
0.70
1.39
2.22
3.11
3.89
4.36
4.38
3.97
3.30
2.62
2.16
2.00
2.11
2.30
2.44
2.44
2.30
2.12
1.99
1.95
1.93
1.82
1.53
1.05
0.46
-0.09
-0.46
-0.61
-0.59
-0.54
-0.60
-0.82
-1.18
-1.58
-1.95
-2.30
-2.72
-3.29
-4.00
-4.71
-5.17
-5.17
-4.60
-3.59
-2.39
-1.29
-0.46
0.09
0.51
0.96
1.53
2.15
2.69
2.99
3.02
2.82
2.54
2.32
2.19
2.14
2.08
1.97
1.82
1.66
1.56
1.53
1.53
1.48
1.32
1.03
0.67
0.31
0.04
-0.12
-0.20
-0.24
-0.29
-0.37
-0.46
-0.57
-0.72
-0.94
-1.31
-1.84
-2.54
-3.32
-4.10
-4.74
-5.14
-5.21
-4.94
-4.40
-3.67
-2.85
-1.96
-1.01
-0.03
0.93
1.77
2.39
2.74
2.89
2.96
3.02
3.09
3.10
2.98
2.70
2.35
2.04
1.88
1.91
2.07
2.26
2.41
2.47
2.41
2.21
1.88
1.46
1.00
0.60
0.33
0.15
-0.01
-0.24
-0.58
-0.96
-1.26
-1.41
-1.43
-1.45
-1.61
-2.01
-2.59
-3.22
-3.73
-4.03
-4.15
-4.21
-4.30
-4.43
-4.51
-4.37
-3.85
-2.93
-1.72
-0.46
0.59
1.30
1.69
1.90
2.10
2.38
2.71
2.97
3.08
3.05
2.98
2.99
3.13
3.30
3.39
3.27
2.96
2.56
2.22
2.05
2.07
2.19
2.30
2.31
2.15
1.85
1.48
1.09
0.70
0.33
-0.04
-0.44
-0.86
-1.29
-1.68
-1.99
-2.20
-2.34
-2.50
-2.81
-3.36
-4.16
-5.04
-5.71
-5.86
-5.36
-4.28
-2.93
-1.72
-0.94
-0.62
-0.56
-0.45
-0.06
0.62
1.43
2.14
2.67
3.03
3.35
3.66
3.91
3.96
3.71
3.19
2.59
2.15
2.03
2.25
2.68
3.11
3.38
3.38
3.12
2.66
2.12
1.59
1.16
0.88
0.67
0.47
0.16
-0.28
-0.78
-1.23
-1.57
-1.79
-1.97
-2.22
-2.55
-2.96
-3.37
-3.76
-4.17
-4.64
-5.15
-5.59
-5.75
-5.46
-4.65
-3.43
-2.04
-0.76
0.22
0.85
1.23
1.54
1.91
2.39
2.89
3.27
3.39
3.22
2.83
2.40
2.07
1.91
1.89
1.93
1.99
2.09
2.27
2.53
2.76
2.83
2.62
2.16
1.60
1.15
0.94
0.96
1.04
0.98
0.66
0.10
-0.59
-1.22
-1.68
-1.94
-2.08
-2.20
-2.44
-2.84
-3.37
-3.97
-4.54
-4.98
-5.26
-5.36
-5.25
-4.89
-4.25
-3.32
-2.18
-0.97
0.09
0.88
1.37
1.61
1.75
1.92
2.17
2.49
2.83
3.13
3.32
3.39
3.33
3.18
2.96
2.75
2.61
2.56
2.59
2.66
2.72
2.74
2.70
2.60
2.42
2.13
1.70
1.16
0.56
0.00
-0.44
-0.73
-0.92
-1.08
-1.26
-1.50
-1.76
-1.99
-2.18
-2.37
-2.60
-2.93
-3.37
-3.89
-4.44
-4.93
-5.32
-5.51
-5.45
-5.11
-4.49
-3.66
-2.69
-1.65
-0.57
0.48
1.48
2.37
3.11
3.67
4.08
4.35
4.49
4.50
4.37
4.10
3.79
3.52
3.40
3.46
3.63
3.79
3.83
3.70
3.43
3.10
2.80
2.56
2.37
2.18
1.98
1.77
1.58
1.38
1.09
0.61
-0.13
-1.09
-2.11
-2.96
-3.50
-3.69
-3.69
-3.74
-4.06
-4.72
-5.62
-6.52
-7.14
-7.26
-6.80
-5.84
-4.60
-3.34
-2.25
-1.42
-0.77
-0.19
0.46
1.21
2.03
2.76
3.31
3.63
3.74
3.73
3.67
3.59
3.51
3.44
3.38
3.37
3.42
3.52
3.61
3.58
3.38
2.98
2.42
1.75
1.08
0.47
0.01
-0.26
-0.34
-0.29
-0.24
-0.30
-0.56
-1.01
-1.53
-2.01
-2.35
-2.59
-2.84
-3.19
-3.69
-4.27
-4.83
-5.27
-5.52
-5.61
-5.55
-5.34
-4.93
-4.30
-3.43
-2.40
-1.29
-0.21
0.78
1.64
2.36
2.93
3.34
3.59
3.70
3.75
3.78
3.84
3.91
3.95
3.88
3.64
3.20
2.60
1.92
1.30
0.85
0.63
0.61
0.74
0.90
1.05
1.15
1.19
1.13
0.93
0.51
-0.13
-0.91
-1.67
-2.24
-2.52
-2.54
-2.42
-2.36
-2.52
-2.95
-3.61
-4.36
-5.05
-5.54
-5.74
-5.68
-5.41
-5.02
-4.53
-3.97
-3.28
-2.41
-1.38
-0.19
1.05
2.22
3.19
3.86
4.20
4.25
4.13
3.99
3.93
3.98
4.07
4.10
3.99
3.75
3.49
3.29
3.19
3.12
2.98
2.68
2.24
1.76
1.39
1.23
1.27
1.39
1.46
1.32
0.94
0.33
-0.40
-1.13
-1.78
-2.33
-2.80
-3.28
-3.82
-4.46
-5.17
-5.86
-6.43
-6.81
-6.94
-6.77
-6.27
-5.46
-4.36
-3.09
-1.81
-0.67
0.20
0.82
1.28
1.80
2.52
3.46
4.50
5.37
5.82
5.75
5.22
4.47
3.76
3.25
2.98
2.88
2.83
2.76
2.68
2.66
2.71
2.81
2.81
2.60
2.11
1.37
0.52
-0.25
-0.83
-1.18
-1.33
-1.37
-1.37
-1.39
-1.46
-1.62
-1.95
-2.55
-3.51
-4.83
-6.35
-7.79
-8.84
-9.24
-8.89
-7.90
-6.50
-4.99
-3.63
-2.55
-1.72
-1.01
-0.25
0.68
1.80
2.99
4.06
4.81
5.14
5.09
4.83
4.57
4.48
4.55
4.71
4.81
4.77
4.61
4.43
4.33
4.33
4.33
4.20
3.78
3.06
2.17
1.30
0.64
0.23
-0.00
-0.20
-0.49
-0.89
-1.33
-1.74
-2.06
-2.36
-2.73
-3.30
-4.11
-5.13
-6.22
-7.21
-7.93
-8.23
-8.07
-7.46
-6.50
-5.30
-3.99
-2.71
-1.53
-0.49
0.40
1.18
1.90
2.61
3.31
3.98
4.53
4.93
5.11
5.09
4.87
4.54
4.15
3.79
3.51
3.29
3.15
3.02
2.89
2.75
2.58
2.38
2.14
1.83
1.43
0.90
0.26
-0.46
-1.16
-1.74
-2.11
-2.30
-2.41
-2.63
-3.12
-3.93
-5.02
-6.21
-7.33
-8.22
-8.78
-8.97
-8.76
-8.16
-7.20
-5.95
-4.53
-3.04
-1.62
-0.32
0.83
1.84
2.73
3.53
4.23
4.82
5.27
5.52
5.57
5.47
5.29
5.10
4.94
4.76
4.49
4.09
3.61
3.17
2.90
2.89
3.05
3.22
3.18
2.79
2.03
1.03
-0.02
-0.95
-1.68
-2.20
-2.56
-2.86
-3.22
-3.71
-4.41
-5.31
-6.38
-7.49
-8.51
-9.26
-9.59
-9.38
-8.56
-7.16
-5.33
-3.34
-1.50
-0.05
0.91
1.50
1.97
2.64
3.67
5.04
6.53
7.86
8.79
9.23
9.25
8.97
8.50
7.87
7.11
6.26
5.43
4.76
4.35
4.21
4.20
4.13
3.85
3.29
2.51
1.62
0.72
-0.10
-0.81
-1.39
-1.86
-2.24
-2.62
-3.08
-3.70
-4.53
-5.54
-6.71
-7.96
-9.20
-10.28
-11.05
-11.32
-10.98
-10.03
-8.63
-7.02
-5.44
-3.99
-2.62
-1.22
0.33
2.01
3.65
5.06
6.08
6.70
7.01
7.19
7.31
7.38
7.33
7.08
6.65
6.16
5.77
5.58
5.60
5.72
5.78
5.66
5.30
4.75
4.09
3.43
2.83
2.29
1.75
1.15
0.49
-0.22
-0.92
-1.59
-2.29
-3.06
-3.96
-4.98
-6.02
-6.97
-7.73
-8.28
-8.64
-8.81
-8.78
-8.43
-7.70
-6.56
-5.04
-3.27
-1.41
0.42
2.14
3.68
5.03
6.16
7.05
7.64
7.90
7.82
7.47
6.98
6.55
6.30
6.31
6.52
6.77
6.91
6.84
6.52
5.99
5.30
4.52
3.70
2.92
2.22
1.64
1.17
0.76
0.34
-0.14
-0.73
-1.43
-2.23
-3.11
-4.05
-5.02
-5.99
-6.92
-7.80
-8.56
-9.13
-9.38
-9.22
-8.56
-7.48
-6.10
-4.63
-3.26
-2.04
-0.95
0.10
1.21
2.42
3.69
4.87
5.81
6.37
6.51
6.31
5.88
5.36
4.89
4.53
4.30
4.22
4.25
4.34
4.41
4.35
4.09
3.61
2.96
2.25
1.58
1.02
0.58
0.21
-0.15
-0.57
-1.09
-1.72
-2.42
-3.12
-3.72
-4.19
-4.57
-5.02
-5.69
-6.69
-7.97
-9.28
-10.30
-10.74
-10.42
-9.35
-7.73
-5.80
-3.83
-1.99
-0.36
1.08
2.38
3.57
4.66
5.57
6.24
6.63
6.79
6.83
6.81
6.76
6.62
6.34
5.91
5.42
4.97
4.63
4.43
4.31
4.19
3.98
3.69
3.30
2.83
2.29
1.68
1.03
0.34
-0.38
-1.11
-1.85
-2.53
-3.12
-3.56
-3.87
-4.14
-4.50
-5.02
-5.78
-6.69
-7.65
-8.47
-8.97
-8.99
-8.44
-7.33
-5.78
-3.99
-2.17
-0.50
0.95
2.19
3.31
4.40
5.52
6.69
7.81
8.74
9.35
9.57
9.44
9.08
8.66
8.29
8.05
7.97
8.01
8.13
8.28
8.34
8.21
7.81
7.14
6.29
5.37
4.51
3.73
3.00
2.26
1.48
0.63
-0.25
-1.16
-2.09
-3.02
-3.90
-4.69
-5.37
-6.01
-6.71
-7.58
-8.61
-9.63
-10.39
-10.63
-10.25
-9.31
-8.00
-6.56
-5.17
-3.86
-2.60
-1.33
-0.03
1.27
2.44
3.41
4.12
4.61
4.94
5.19
5.34
5.36
5.19
4.85
4.42
4.06
3.90
3.95
4.12
4.22
4.07
3.62
2.94
2.19
1.55
1.12
0.88
0.76
0.65
0.47
0.19
-0.21
-0.71
-1.30
-1.96
-2.69
-3.47
-4.22
-4.84
-5.26
-5.40
-5.32
-5.12
-4.93
-4.84
-4.82
-4.76
-4.54
-4.10
-3.45
-2.67
-1.88
-1.14
-0.48
0.14
0.74
1.38
2.04
2.66
3.11
3.30
3.18
2.84
2.48
2.30
2.42
2.78
3.15
3.31
3.08
2.52
1.83
1.27
1.00
1.00
1.10
1.08
0.78
0.20
-0.54
-1.28
-1.89
-2.37
-2.77
-3.15
-3.52
-3.81
-3.98
-4.05
-4.13
-4.42
-5.05
-6.01
-7.16
-8.25
-9.02
-9.31
-9.04
-8.25
-7.09
-5.70
-4.26
-2.85
-1.51
-0.20
1.11
2.43
3.68
4.70
5.38
5.69
5.70
5.58
5.48
5.46
5.46
5.38
5.19
4.90
4.62
4.45
4.41
4.43
4.35
4.06
3.51
2.79
2.04
1.44
1.09
0.95
0.91
0.81
0.54
0.06
-0.56
-1.23
-1.87
-2.46
-3.08
-3.81
-4.71
-5.79
-6.93
-8.01
-8.88
-9.41
-9.53
-9.21
-8.48
-7.45
-6.19
-4.80
-3.34
-1.85
-0.37
1.03
2.29
3.33
4.15
4.77
5.24
5.57
5.73
5.67
5.40
4.95
4.47
4.09
3.87
3.82
3.87
3.92
3.92
3.83
3.69
3.48
3.19
2.81
2.30
1.68
0.98
0.28
-0.34
-0.82
-1.16
-1.38
-1.58
-1.82
-2.14
-2.55
-3.03
-3.58
-4.20
-4.94
-5.81
-6.78
-7.74
-8.49
-8.85
-8.68
-8.01
-6.98
-5.78
-4.60
-3.51
-2.48
-1.39
-0.16
1.22
2.63
3.89
4.90
5.59
6.02
6.25
6.32
6.21
5.90
5.39
4.78
4.19
3.77
3.60
3.67
3.88
4.04
3.97
3.57
2.85
1.98
1.17
0.60
0.32
0.25
0.21
0.03
-0.35
-0.90
-1.47
-1.97
-2.37
-2.71
-3.10
-3.63
-4.31
-5.14
-6.08
-7.03
-7.86
-8.41
-8.50
-8.06
-7.12
-5.80
-4.27
-2.68
-1.12
0.34
1.65
2.75
3.59
4.15
4.49
4.68
4.80
4.88
4.86
4.68
4.32
3.83
3.34
2.96
2.78
2.78
2.90
3.02
3.06
2.95
2.66
2.19
1.56
0.83
0.06
-0.63
-1.15
-1.47
-1.62
-1.69
-1.78
-1.97
-2.29
-2.75
-3.37
-4.13
-5.03
-5.97
-6.87
-7.59
-8.05
-8.20
-8.03
-7.54
-6.75
-5.71
-4.48
-3.16
-1.82
-0.48
0.84
2.16
3.39
4.40
5.04
5.22
5.00
4.57
4.16
3.91
3.87
3.95
4.04
4.05
3.95
3.76
3.53
3.27
3.04
2.83
2.64
2.41
2.05
1.52
0.81
0.00
-0.79
-1.44
-1.92
-2.29
-2.63
-2.97
-3.31
-3.61
-3.85
-4.11
-4.54
-5.26
-6.23
-7.26
-8.02
-8.24
-7.80
-6.79
-5.47
-4.07
-2.76
-1.56
-0.39
0.81
2.07
3.29
4.37
5.17
5.64
5.76
5.63
5.35
5.05
4.82
4.68
4.57
4.39
4.07
3.63
3.18
2.84
2.67
2.61
2.51
2.22
1.65
0.85
-0.05
-0.92
-1.68
-2.35
-3.00
-3.72
-4.53
-5.38
-6.22
-6.99
-7.72
-8.47
-9.30
-10.27
-11.40
-12.64
-13.90
-15.01
-15.80
-16.12
-15.96
-15.42
-14.69
-13.99
-13.39
-12.79
-11.85
-10.13
-7.28
-3.27
1.56
6.56
10.95
14.12
15.78
15.99
15.14
13.74
12.35
11.46
11.43
12.38
14.00
15.49
15.70
13.50
8.37
0.83
-7.56
-14.70
-18.84
-19.33
-16.85
-13.01
-9.56
-7.62
-7.41
-8.39
-9.79
-11.02
-11.83
-12.23
-12.31
-12.16
-11.90
-11.71
-11.74
-12.00
-12.25
-11.93
-10.45
-7.44
-2.98
2.25
7.21
10.78
12.24
11.61
9.69
7.76
6.92
7.45
8.72
9.49
8.80
6.51
3.35
0.34
-1.98
-4.01
-6.89
-11.97
-20.37
-32.84
-49.77
-70.92
-94.69
-117.34
-133.18
-136.10
-122.25
-92.38
-52.43
-11.53
21.54
41.85
49.76
49.74
47.49
47.11
49.77
54.25
58.72
62.16
64.89
67.86
71.56
75.39
77.77
77.04
72.33
64.18
54.42
45.48
39.47
37.50
39.51
44.41
50.57
56.21
59.57
59.05
53.27
41.48
24.08
2.90
-18.92
-37.71
-50.52
-56.00
-54.77
-48.91
-40.93
-32.84
-25.74
-20.00
-15.67
-12.79
-11.42
-11.43
-12.40
-13.63
-14.41
-14.36
-13.46
-12.04
-10.59
-9.62
-9.42
-9.99
-11.06
-12.21
-13.00
-13.14
-12.49
-11.19
-9.56
-7.93
-6.44
-5.00
-3.33
-1.14
1.65
4.99
8.43
11.36
13.21
13.84
13.55
12.88
12.37
12.31
13.05
14.38
15.69
16.39
16.28
15.66
15.02
14.76
14.85
15.61
16.64
17.19
16.94
16.86
18.81
24.48
34.33
47.13
61.60
75.42
86.00
91.80
93.60
93.85
95.66
101.75
113.63
132.86
158.19
185.11
207.11
218.53
215.89
198.67
169.17
122.01
61.51
-0.41
-51.43
-86.76
-107.92
-118.68
-121.75
-118.59
-110.91
-99.07
-84.78
-70.93
-63.01
-61.30
-63.66
-66.74
-67.74
-66.25
-62.07
-56.71
-53.01
-55.53
-66.40
-85.55
-111.55
-138.64
-164.05
-185.41
-201.63
-213.03
-223.13
-234.30
-247.15
-260.11
-270.53
-276.31
-274.53
-262.61
-225.98
-163.06
-85.63
-12.00
45.32
83.66
106.07
118.06
124.46
128.12
128.09
126.04
123.25
122.47
125.86
132.41
138.92
141.56
137.64
125.13
105.54
83.25
61.44
44.13
32.78
26.69
24.16
23.52
22.69
20.82
18.01
15.11
13.00
11.62
10.70
10.17
10.32
11.06
12.39
14.26
16.56
19.11
21.23
22.31
22.18
21.05
19.12
16.64
13.73
10.60
7.61
4.96
2.68
0.61
-1.56
-4.15
-7.24
-10.51
-13.39
-15.21
-15.75
-15.30
-14.47
-13.80
-13.52
-13.49
-13.37
-12.91
-12.11
-11.21
-10.52
-10.19
-10.13
-10.02
-9.47
-8.18
-6.11
-3.49
-0.74
1.59
3.05
3.40
2.67
1.12
-0.83
-2.69
-4.03
-4.61
-4.34
-3.26
-1.50
0.81
3.54
6.50
9.41
12.00
14.14
15.92
17.56
19.23
20.84
22.11
22.71
22.53
21.72
20.59
19.30
17.77
15.77
13.24
10.60
8.69
8.41
10.26
14.09
19.23
24.85
30.39
35.69
40.91
46.32
52.18
58.66
65.89
73.95
82.79
92.23
102.00
111.83
121.65
131.63
142.15
153.65
166.43
180.51
195.50
210.85
226.00
240.74
255.36
270.62
287.41
306.32
327.19
348.96
369.73
387.04
398.32
401.25
394.25
376.71
349.23
313.57
272.36
228.53
184.72
142.77
103.49
66.74
31.78
-2.29
-36.16
-70.03
-103.52
-135.87
-166.27
-194.27
-220.14
-244.83
-269.78
-296.39
-325.50
-357.20
-390.73
-424.79
-458.05
-489.62
-519.58
-549.50
-582.44
-622.11
-670.90
-727.57
-785.74
-834.69
