1660327212.00
64.000000
-0.00
-0.00
-0.00
-0.00
-0.00
-0.00
-0.00
-0.00
-0.00
-0.00
0.00
0.01
0.01
-0.00
-0.03
-0.05
-0.05
0.00
0.13
0.36
0.66
1.01
1.37
1.72
2.06
2.40
2.79
3.24
3.80
4.42
5.06
5.66
6.20
6.68
7.15
7.68
8.31
9.14
10.09
11.04
11.88
12.56
13.14
13.76
14.65
15.96
17.91
20.32
22.90
25.38
27.58
29.57
31.68
34.32
37.81
42.54
48.15
54.10
59.83
64.97
69.58
74.14
79.34
85.71
93.76
103.00
112.62
121.73
129.77
136.75
143.30
150.75
157.77
166.64
177.95
191.79
206.97
220.57
228.25
225.36
208.53
176.87
132.76
80.05
23.07
-34.94
-92.44
-149.16
-205.23
-260.37
-313.74
-363.87
-409.83
-450.91
-486.50
-515.74
-537.23
-549.22
-549.96
-538.37
-514.21
-478.67
-433.88
-382.45
-327.02
-269.84
-212.63
-156.66
-102.95
-52.37
-5.90
35.58
71.43
101.35
125.50
144.38
158.69
169.15
176.37
180.75
182.57
182.07
179.51
175.23
169.65
163.18
156.15
148.81
141.30
133.69
126.02
118.33
110.69
103.16
95.80
88.68
81.83
75.25
68.95
62.95
57.25
51.86
46.78
42.03
37.59
33.45
29.61
26.07
22.81
19.83
17.11
14.67
12.48
10.54
8.83
7.35
6.07
4.97
4.05
3.27
2.62
2.09
1.65
1.30
1.01
0.79
0.61
0.48
0.37
0.29
0.24
0.20
0.18
0.17
0.18
0.19
0.21
0.24
0.27
0.31
0.35
0.40
0.44
0.49
0.54
0.58
0.64
0.69
0.75
0.82
0.88
0.96
1.04
1.13
1.24
1.35
1.48
1.62
1.79
1.97
2.17
2.39
2.64
2.91
3.22
3.54
3.91
4.31
4.74
5.21
5.71
6.26
6.84
7.47
8.14
8.86
9.62
10.42
11.28
12.17
13.12
14.11
15.17
16.29
17.48
18.72
20.01
21.29
22.53
23.65
24.54
25.08
25.15
24.65
23.46
21.55
18.91
15.61
11.71
7.38
2.83
-1.74
-6.10
-10.07
-13.47
-16.18
-18.15
-19.34
-19.79
-19.56
-18.79
-17.58
-16.09
-14.45
-12.75
-11.05
-9.37
-7.68
-5.98
-4.28
-2.60
-0.93
0.70
2.29
3.88
5.56
7.45
9.50
11.72
14.06
16.44
18.79
21.09
23.37
25.77
28.56
31.64
34.99
38.49
41.96
45.21
48.11
50.73
53.37
56.51
60.11
64.16
68.40
72.44
75.82
78.23
79.73
80.76
82.07
83.68
85.49
86.99
87.20
84.97
79.13
68.70
52.60
34.35
15.39
-3.59
-22.51
-41.78
-62.03
-83.97
-108.20
-135.05
-164.02
-194.10
-222.63
-245.79
-259.88
-262.66
-254.36
-237.55
-215.98
-192.90
-170.44
-148.85
-127.38
-105.50
-83.63
-62.99
-44.87
-29.87
-17.62
-7.49
1.24
8.86
15.13
19.55
21.81
22.08
21.05
19.78
19.12
19.66
21.42
23.91
26.29
27.76
27.83
26.50
24.20
21.46
18.81
16.51
14.63
13.03
11.56
10.09
8.45
6.46
3.93
0.78
-2.75
-6.11
-8.46
-8.93
-6.95
-2.46
4.03
11.55
19.04
25.60
30.65
33.99
35.65
35.80
34.65
32.52
29.76
26.82
24.11
21.90
20.33
19.31
18.70
18.35
18.14
17.97
17.70
17.15
16.12
14.45
12.16
9.42
6.51
3.72
1.25
-0.84
-2.66
-4.39
-6.26
-8.53
-11.34
-14.59
-17.83
-20.32
-21.11
-19.48
-15.16
-8.60
-0.77
7.08
13.86
18.94
22.20
23.86
24.27
23.78
22.63
21.07
19.34
17.70
16.37
15.41
14.78
14.32
13.90
13.44
12.94
12.37
11.65
10.62
9.14
7.17
4.86
2.51
0.47
-1.08
-2.19
-3.14
-4.26
-5.78
-7.80
-10.27
-13.12
-16.15
-18.95
-20.86
-21.05
-18.85
-14.12
-7.39
0.22
7.51
13.55
17.91
20.63
21.92
21.93
20.79
18.69
16.03
13.34
11.12
9.63
8.86
8.62
8.69
8.88
9.06
9.10
8.84
8.16
7.02
5.48
3.72
1.92
0.26
-1.19
-2.39
-3.41
-4.33
-5.24
-6.28
-7.56
-9.24
-11.37
-13.90
-16.44
-18.33
-18.76
-17.02
-12.90
-6.83
0.27
7.23
13.07
17.24
19.62
20.33
19.66
17.86
15.29
12.35
9.56
7.32
5.92
5.38
5.52
6.04
6.61
6.93
6.75
5.96
4.54
2.64
0.49
-1.67
-3.64
-5.33
-6.72
-7.85
-8.77
-9.56
-10.30
-11.18
-12.40
-14.17
-16.58
-19.50
-22.47
-24.75
-25.48
-23.99
-20.06
-14.12
-7.07
-0.03
6.03
10.55
13.42
14.80
14.97
14.19
12.73
10.88
8.95
7.27
6.09
5.54
5.53
5.88
6.30
6.48
6.20
5.37
4.11
2.60
1.00
-0.66
-2.48
-4.54
-6.79
-8.94
-10.65
-11.65
-11.95
-11.87
-11.92
-12.53
-13.95
-16.10
-18.64
-20.97
-22.41
-22.28
-20.16
-16.05
-10.41
-4.08
2.00
7.04
10.62
12.67
13.41
13.19
12.32
11.13
9.86
8.75
7.96
7.58
7.59
7.83
8.07
8.05
7.60
6.71
5.55
4.34
3.24
2.28
1.34
0.29
-0.87
-2.05
-3.09
-3.90
-4.53
-5.14
-5.92
-7.04
-8.58
-10.52
-12.70
-14.81
-16.32
-16.60
-15.10
-11.63
-6.51
-0.52
5.29
10.01
13.08
14.44
14.36
13.26
11.60
9.75
8.03
6.65
5.78
5.44
5.52
5.79
5.99
5.90
5.39
4.50
3.37
2.17
1.03
-0.06
-1.20
-2.54
-4.13
-5.87
-7.54
-8.89
-9.75
-10.16
-10.40
-10.86
-11.88
-13.55
-15.58
-17.31
-17.95
-16.81
-13.65
-8.78
-2.97
2.80
7.69
11.20
13.26
14.05
13.85
12.92
11.46
9.73
7.99
6.56
5.67
5.42
5.70
6.22
6.63
6.61
5.98
4.77
3.13
1.36
-0.31
-1.69
-2.77
-3.60
-4.30
-4.94
-5.65
-6.60
-7.97
-9.92
-12.37
-14.96
-16.97
-17.62
-16.33
-12.96
-7.96
-2.12
3.61
8.47
12.01
14.09
14.79
14.28
12.85
10.79
8.48
6.30
4.61
3.61
3.32
3.57
4.07
4.50
4.62
4.27
3.48
2.29
0.78
-0.95
-2.82
-4.69
-6.41
-7.84
-9.01
-10.14
-11.55
-13.52
-16.06
-18.79
-20.96
-21.74
-20.44
-16.89
-11.50
-5.15
1.12
6.46
10.39
12.79
13.83
13.72
12.66
10.84
8.48
5.91
3.51
1.61
0.38
-0.22
-0.36
-0.28
-0.24
-0.46
-1.11
-2.21
-3.60
-5.02
-6.17
-6.93
-7.42
-7.96
-8.91
-10.51
-12.75
-15.42
-18.20
-20.68
-22.41
-22.90
-21.68
-18.46
-13.32
-6.78
0.29
6.92
12.34
16.17
18.39
19.25
19.08
18.19
16.82
15.25
13.75
12.56
11.86
11.69
11.93
12.31
12.56
12.39
11.64
10.35
8.65
6.78
4.97
3.37
1.99
0.74
-0.52
-1.89
-3.47
-5.31
-7.40
-9.61
-11.65
-12.96
-12.91
-10.99
-7.02
-1.31
5.41
12.24
18.37
23.27
26.70
28.63
29.11
28.22
26.09
22.98
19.32
15.69
12.63
10.48
9.22
8.49
7.77
6.62
4.90
2.93
1.33
0.69
1.26
2.79
4.60
5.87
5.92
4.53
1.88
-1.57
-5.34
-9.11
-12.70
-16.00
-18.75
-20.37
-20.18
-17.59
-12.31
-4.55
4.98
15.20
24.70
32.00
35.90
35.92
32.65
27.85
24.00
23.57
27.98
36.80
47.53
56.04
57.89
49.98
31.96
6.83
-19.87
-41.89
-54.55
-56.14
-48.16
-34.25
-18.21
-2.96
9.76
18.71
22.38
18.95
7.15
-12.67
-37.90
-64.15
-86.72
-102.11
-108.95
-108.08
-101.77
-92.74
-83.22
-74.36
-65.92
-56.50
-44.14
-27.38
-6.46
16.30
36.94
51.50
57.88
57.08
52.70
49.22
49.64
54.17
60.40
64.92
65.23
60.82
53.01
43.93
35.42
28.42
23.12
19.40
17.23
16.70
17.80
20.15
22.98
25.36
26.62
26.64
26.03
25.85
27.27
30.97
36.86
44.02
51.15
57.27
62.18
66.58
71.54
77.90
85.63
93.83
101.17
106.51
109.38
110.01
109.01
106.87
103.74
99.37
93.54
86.32
78.23
70.01
62.22
54.99
47.94
40.39
31.72
21.67
10.26
-2.27
-15.60
-29.24
-42.37
-53.66
-61.26
-63.33
-58.56
-46.84
-29.34
-8.29
13.66
34.25
52.03
66.54
78.01
86.99
94.04
99.56
103.82
106.99
109.21
110.52
110.94
110.40
108.89
106.46
103.28
99.51
95.24
90.38
84.73
78.02
70.05
60.82
50.45
39.14
27.03
14.07
-0.03
-15.78
-33.69
-54.00
-76.39
-99.87
-122.87
-143.62
-160.73
-173.59
-182.59
-188.98
-194.28
-199.84
-206.18
-212.79
-218.13
-220.09
-216.54
-206.08
-188.39
-164.23
-135.10
-102.80
-69.36
-37.05
-8.69
12.41
22.97
20.32
3.05
-28.70
-73.08
-126.24
-182.01
-232.20
-267.75
-280.84
-267.39
-228.62
-171.21
-105.49
-42.51
8.93
44.07
62.51
67.12
62.39
52.86
42.03
32.05
23.90
17.75
13.45
10.69
8.96
7.43
5.16
1.47
-3.64
-9.40
-14.56
-18.11
-19.69
-19.82
-19.56
-20.03
-21.92
-25.30
-29.76
-34.74
-39.84
-44.89
-49.98
-55.26
-60.75
-66.20
-71.10
-74.71
-76.12
-74.41
-69.04
-60.03
-48.26
-35.35
-23.18
-13.39
-6.78
-3.20
-1.76
-1.38
-1.27
-1.19
-1.31
-1.89
-3.02
-4.47
-5.88
-6.89
-7.36
-7.39
-7.21
-7.16
-7.49
-8.40
-9.91
-11.96
-14.34
-16.80
-19.13
-21.20
-22.96
-24.51
-26.09
-28.13
-31.17
-35.53
-41.07
-46.95
-51.71
-53.74
-51.85
-45.79
-36.31
-24.85
-12.98
-2.00
7.32
14.58
19.60
22.35
22.90
21.62
19.16
16.42
14.37
13.85
15.42
19.17
24.70
31.14
37.33
42.01
44.19
43.37
39.70
33.90
27.03
20.17
14.10
9.10
5.07
1.72
-1.25
-4.08
-6.98
-10.16
-13.72
-17.45
-20.61
-21.98
-20.25
-14.66
-5.48
5.89
17.49
27.43
34.52
38.46
39.52
38.12
34.58
29.25
22.87
16.75
12.48
11.38
13.85
19.09
25.41
30.85
33.96
34.11
31.53
26.94
21.25
15.28
9.75
5.19
1.92
-0.15
-1.61
-3.36
-6.44
-11.64
-19.24
-28.94
-39.79
-50.30
-58.63
-62.89
-61.56
-53.91
-40.41
-22.66
-3.20
15.13
29.91
39.67
44.15
44.28
41.68
38.19
35.33
34.10
34.84
37.38
41.19
45.39
48.96
50.91
50.62
48.03
43.79
38.85
34.17
30.24
26.96
23.79
20.13
15.53
9.81
3.00
-4.66
-12.65
-20.14
-26.03
-29.18
-28.79
-24.71
-17.44
-7.91
2.91
14.20
25.25
35.33
43.56
49.13
51.60
51.24
48.98
46.12
43.79
42.49
42.07
41.98
41.74
41.14
40.20
38.95
37.15
34.37
30.13
24.31
17.22
9.55
2.17
-4.19
-9.15
-12.72
-15.41
-18.09
-21.81
-27.39
-34.93
-43.44
-50.94
-55.05
-53.83
-46.65
-34.48
-19.49
-4.24
9.23
19.82
27.39
32.27
34.82
35.32
34.10
31.77
29.39
28.27
29.53
33.54
39.70
46.49
52.06
54.84
54.20
50.64
45.40
39.87
34.85
30.37
25.87
20.70
14.44
6.96
-1.75
-11.66
-22.51
-33.33
-42.19
-46.57
-44.32
-34.85
-19.80
-2.69
12.44
22.49
26.52
25.61
22.07
18.20
15.44
14.19
14.24
15.32
17.36
20.51
24.77
29.64
34.12
37.01
37.39
35.03
30.42
24.57
18.57
13.20
8.75
5.09
1.84
-1.50
-5.44
-10.54
-17.18
-25.35
-34.39
-42.95
-49.29
-52.03
-50.77
-46.32
-40.45
-35.04
-31.26
-29.20
-28.03
-26.65
-24.21
-20.35
-15.01
-8.09
0.67
11.43
23.85
36.77
48.37
56.76
60.60
59.79
55.32
48.94
42.42
36.96
32.97
30.17
27.95
25.80
23.50
21.14
18.90
16.85
14.77
12.33
9.27
5.69
2.13
-0.61
-1.84
-1.39
0.17
1.69
1.73
-0.78
-6.14
-13.61
-21.57
-28.00
-31.08
-29.71
-23.80
-14.14
-2.13
10.69
22.89
33.37
41.36
46.44
48.53
47.93
45.29
41.45
37.21
33.09
29.15
25.10
20.58
15.49
10.08
4.91
0.39
-3.54
-7.53
-12.51
-19.08
-26.89
-34.54
-39.99
-41.46
-38.29
-31.37
-22.89
-15.54
-11.60
-12.21
-17.17
-25.01
-33.53
-40.34
-43.46
-41.75
-35.10
-24.42
-11.36
2.14
14.25
23.62
29.61
32.25
32.21
30.47
28.10
25.93
24.37
23.47
23.00
22.62
21.97
20.68
18.52
15.45
11.85
8.57
6.74
7.32
10.51
15.42
20.16
22.42
20.39
13.53
2.88
-9.35
-20.51
-28.52
-32.39
-32.39
-29.66
-25.63
-21.50
-18.01
-15.47
-13.97
-13.49
-13.94
-15.12
-16.58
-17.71
-17.87
-16.58
-13.77
-9.74
-5.11
-0.57
3.23
5.80
6.78
5.97
3.37
-0.64
-5.23
-9.08
-10.78
-9.31
-4.57
2.39
9.56
14.67
15.94
12.76
5.87
-3.02
-11.78
-18.57
-22.25
-22.49
-19.61
-14.32
-7.62
-0.58
5.66
10.08
11.95
11.00
7.49
2.08
-4.38
-11.04
-17.09
-21.80
-24.46
-24.52
-21.76
-16.53
-9.71
-2.43
4.28
9.93
14.55
18.55
22.23
25.61
28.41
30.21
30.72
29.84
27.59
24.04
19.31
13.70
7.88
2.80
-0.50
-1.38
0.04
2.87
5.67
6.96
5.68
1.52
-5.18
-13.58
-22.62
-31.26
-38.58
-43.99
-47.26
-48.57
-48.53
-47.89
-47.42
-47.55
-48.38
-49.65
-50.82
-51.27
-50.36
-47.62
-42.88
-36.39
-28.80
-20.97
-13.66
-7.18
-1.41
4.06
9.48
14.70
19.14
22.16
23.40
23.13
22.18
21.57
22.13
24.14
27.33
31.13
34.96
38.47
41.65
44.69
47.82
51.09
54.31
57.13
59.15
60.12
60.09
59.36
58.41
57.68
57.52
58.12
59.60
61.90
64.84
67.95
70.49
71.66
70.83
67.86
63.26
57.98
53.06
49.27
46.91
45.78
45.50
45.56
45.50
44.79
42.82
39.07
33.28
25.63
16.69
7.24
-1.99
-10.53
-18.13
-24.73
-30.40
-35.26
-39.52
-43.34
-46.76
-49.65
-51.80
-53.11
-53.80
-54.28
-54.99
-56.15
-57.66
-59.28
-60.81
-62.07
-62.88
-62.96
-61.93
-59.65
-56.37
-52.81
-49.78
-47.82
-47.01
-46.97
-47.26
-47.69
-48.45
-50.03
-53.00
-57.65
-63.72
-70.21
-75.39
-77.24
-74.20
-65.92
-53.64
-39.78
-27.06
-17.28
-10.77
-6.56
-3.20
0.36
4.31
8.18
11.37
13.76
15.78
18.11
21.30
25.32
29.57
33.23
35.80
37.60
39.77
43.83
50.72
60.12
70.23
78.43
82.28
80.60
73.74
63.26
51.08
38.78
27.24
16.93
8.21
1.68
-1.77
-1.26
3.69
12.80
24.87
37.86
49.39
57.35
60.58
59.08
53.66
45.38
34.91
22.54
8.55
-6.19
-19.89
-30.24
-35.23
-34.08
-27.65
-18.19
-8.46
-0.82
3.38
3.97
1.71
-2.22
-6.60
-10.43
-13.00
-13.94
-13.11
-10.66
-6.87
-2.12
3.23
8.74
13.94
18.22
20.91
21.48
19.69
15.76
10.26
3.98
-2.37
-8.25
-13.37
-17.61
-20.97
-23.48
-25.24
-26.41
-27.16
-27.61
-27.81
-27.78
-27.46
-26.86
-26.08
-25.25
-24.59
-24.33
-24.72
-26.00
-28.22
-31.16
-34.22
-36.52
-37.11
-35.24
-30.64
-23.51
-14.58
-4.78
4.93
13.71
21.06
26.75
30.81
33.41
34.74
34.93
34.00
32.04
29.16
25.66
21.94
18.33
15.05
12.10
9.38
6.78
4.20
1.65
-0.86
-3.36
-5.96
-8.84
-12.18
-16.07
-20.49
-25.21
-29.90
-34.24
-38.00
-41.20
-44.16
-47.36
-51.21
-55.83
-60.84
-65.41
-68.46
-69.01
-66.49
-60.90
-52.78
-42.90
-32.03
-20.76
-9.53
1.28
11.16
19.51
25.75
29.55
30.99
30.53
28.80
26.46
23.90
21.35
18.90
16.64
14.69
13.13
11.91
10.82
9.59
7.96
5.85
3.34
0.58
-2.27
-5.16
-8.20
-11.53
-15.26
-19.40
-23.82
-28.31
-32.54
-36.13
-38.57
-39.29
-37.74
-33.53
-26.62
-17.47
-7.04
3.43
12.74
20.07
25.16
28.36
30.29
31.66
32.96
34.44
36.03
37.46
38.37
38.32
36.92
33.89
29.20
23.10
16.14
9.02
2.45
-2.99
-6.97
-9.38
-10.31
-10.05
-8.95
-7.48
-6.10
-5.20
-5.09
-6.01
-8.09
-11.32
-15.50
-20.16
-24.61
-28.03
-29.76
-29.38
-26.92
-22.73
-17.48
-11.90
-6.68
-2.30
0.99
3.19
4.45
5.00
5.07
4.78
4.21
3.46
2.65
1.92
1.42
1.20
1.21
1.34
1.35
1.05
0.25
-1.13
-2.99
-5.15
-7.35
-9.42
-11.35
-13.34
-15.65
-18.49
-21.87
-25.52
-28.91
-31.40
-32.39
-31.46
-28.50
-23.72
-17.62
-10.91
-4.26
1.77
6.76
10.55
13.09
14.45
14.78
14.24
13.10
11.56
9.91
8.30
6.89
5.71
4.72
3.81
2.86
1.79
0.62
-0.54
-1.68
-2.86
-4.29
-6.19
-8.74
-11.87
-15.43
-19.17
-22.92
-26.57
-29.90
-32.58
-34.05
-33.73
-31.26
-26.65
-20.30
-12.82
-4.88
3.02
10.53
17.36
23.24
27.85
30.89
32.19
31.80
30.03
27.38
24.45
21.78
19.67
18.17
17.09
16.12
15.05
13.82
12.55
11.35
10.27
9.13
7.65
5.57
2.72
-0.93
-5.25
-10.06
-15.06
-19.88
-23.94
-26.59
-27.23
-25.49
-21.44
-15.53
-8.53
-1.29
5.42
11.07
15.40
18.38
20.14
20.90
20.80
20.03
18.67
16.88
14.81
12.67
10.70
9.09
7.98
7.37
7.10
6.92
6.51
5.62
4.09
1.91
-0.76
-3.67
-6.63
-9.45
-12.12
-14.70
-17.35
-20.24
-23.45
-26.94
-30.40
-33.24
-34.74
-34.14
-31.02
-25.39
-17.80
-9.13
-0.33
7.80
14.78
20.40
24.59
27.33
28.63
28.60
27.49
25.73
23.77
22.02
20.67
19.72
19.04
18.41
17.66
16.70
15.55
14.31
13.10
11.96
10.82
9.47
7.68
5.31
2.40
-0.78
-3.87
-6.60
-8.86
-10.76
-12.50
-14.30
-16.31
-18.64
-21.38
-24.54
-27.99
-31.30
-33.80
-34.69
-33.32
-29.48
-23.48
-16.07
-8.18
-0.62
6.10
11.76
16.35
19.90
22.39
23.81
24.25
23.95
23.25
22.54
22.06
21.85
21.82
21.79
21.64
21.33
20.86
20.20
19.26
17.95
16.25
14.22
12.06
9.94
7.94
6.02
4.05
1.95
-0.26
-2.44
-4.39
-5.99
-7.24
-8.30
-9.39
-10.75
-12.56
-14.91
-17.85
-21.31
-25.10
-28.86
-32.04
-33.95
-33.94
-31.64
-27.10
-20.83
-13.63
-6.38
0.24
5.85
10.33
13.70
16.02
17.35
17.78
17.45
16.59
15.45
14.23
13.08
12.13
11.46
11.12
11.08
11.26
11.49
11.57
11.39
10.92
10.23
9.48
8.79
8.21
7.68
7.08
6.22
5.03
3.51
1.74
-0.13
-2.00
-3.82
-5.58
-7.33
-9.15
-11.11
-13.36
-16.05
-19.27
-22.90
-26.48
-29.26
-30.38
-29.14
-25.35
-19.33
-11.89
-4.03
3.36
9.70
14.73
18.44
20.97
22.52
23.25
23.32
22.86
21.98
20.79
19.44
18.12
17.04
16.30
15.90
15.74
15.71
15.73
15.77
15.80
15.68
15.18
14.08
12.27
9.79
6.88
3.84
0.91
-1.74
-4.07
-6.14
-8.06
-9.97
-11.99
-14.16
-16.42
-18.68
-20.96
-23.36
-26.01
-28.87
-31.52
-33.24
-33.22
-30.90
-26.25
-19.80
-12.43
-5.07
1.63
7.32
11.92
15.46
17.95
19.36
19.69
19.06
17.72
16.09
14.64
13.75
13.60
14.09
14.92
15.70
16.11
16.04
15.57
14.89
14.14
13.36
12.44
11.22
9.55
7.41
4.85
2.00
-1.03
-4.10
-7.17
-10.27
-13.46
-16.84
-20.49
-24.46
-28.69
-33.08
-37.38
-41.22
-44.13
-45.52
-44.87
-41.86
-36.52
-29.25
-20.68
-11.53
-2.40
6.30
14.26
21.22
26.88
30.96
33.31
34.03
33.50
32.26
30.91
29.77
28.92
28.13
27.04
25.30
22.77
19.54
15.93
12.34
9.07
6.27
3.86
1.57
-0.87
-3.67
-6.88
-10.34
-13.76
-16.84
-19.38
-21.31
-22.74
-23.84
-24.81
-25.81
-26.97
-28.39
-30.07
-31.86
-33.38
-34.16
-33.63
-31.44
-27.55
-22.33
-16.45
-10.65
-5.58
-1.58
1.32
3.32
4.72
5.77
6.62
7.37
8.07
8.76
9.49
10.29
11.19
12.18
13.22
14.21
15.03
15.51
15.54
15.08
14.21
13.02
11.60
9.96
8.05
5.78
3.18
0.34
-2.59
-5.47
-8.20
-10.67
-12.85
-14.68
-16.24
-17.72
-19.40
-21.55
-24.33
-27.56
-30.76
-33.21
-34.17
-33.04
-29.64
-24.20
-17.35
-9.94
-2.79
3.50
8.65
12.69
15.79
18.14
19.78
20.64
20.65
19.80
18.25
16.29
14.28
12.48
11.09
10.13
9.58
9.43
9.67
10.30
11.18
12.10
12.72
12.72
11.84
9.99
7.18
3.56
-0.65
-5.17
-9.71
-14.01
-17.86
-21.24
-24.26
-27.23
-30.50
-34.31
-38.64
-43.10
-46.99
-49.40
-49.59
-47.07
-41.84
-34.36
-25.37
-15.76
-6.31
2.35
9.84
16.01
20.79
24.23
26.39
27.39
27.37
26.52
25.07
23.33
21.57
20.05
18.86
18.01
17.43
17.08
16.96
17.09
17.50
18.05
18.49
18.48
17.67
15.87
13.09
9.54
5.62
1.78
-1.59
-4.25
-6.16
-7.53
-8.70
-10.10
-12.09
-14.91
-18.48
-22.40
-25.97
-28.30
-28.62
-26.46
-21.87
-15.34
-7.66
0.32
7.91
14.57
19.98
23.94
26.37
27.29
26.88
25.41
23.27
20.89
18.73
17.18
16.45
16.55
17.23
18.19
19.15
19.97
20.63
21.10
21.24
20.79
19.49
17.25
14.27
10.96
7.81
5.18
3.21
1.77
0.55
-0.85
-2.85
-5.71
-9.48
-13.91
-18.36
-21.98
-23.88
-23.42
-20.34
-14.88
-7.63
0.59
8.96
16.74
23.35
28.46
31.93
33.83
34.40
33.92
32.73
31.12
29.39
27.80
26.56
25.77
25.43
25.42
25.60
25.83
26.04
26.16
26.12
25.75
24.87
23.25
20.81
17.61
13.88
9.96
6.14
2.55
-0.88
-4.47
-8.60
-13.59
-19.49
-25.99
-32.40
-37.79
-41.20
-41.79
-39.19
-33.48
-25.31
-15.66
-5.65
3.78
12.04
18.94
24.49
28.76
31.76
33.50
34.05
33.64
32.68
31.57
30.58
29.75
28.91
27.87
26.53
25.01
23.54
22.40
21.67
21.23
20.72
19.71
17.85
15.04
11.45
7.47
3.53
-0.11
-3.46
-6.73
-10.25
-14.24
-18.84
-24.07
-29.84
-36.02
-42.23
-47.84
-51.89
-53.42
-51.74
-46.81
-39.30
-30.48
-21.71
-14.03
-7.91
-3.24
0.39
3.38
5.89
7.83
9.03
9.36
8.93
8.07
7.20
6.71
6.83
7.54
8.63
9.80
10.74
11.26
11.35
11.06
10.47
9.57
8.29
6.53
4.30
1.77
-0.79
-3.12
-5.11
-6.83
-8.45
-10.14
-11.97
-13.95
-16.09
-18.53
-21.48
-25.00
-28.83
-32.28
-34.32
-33.92
-30.44
-23.91
-15.03
-4.97
5.07
14.16
21.77
27.74
32.12
35.00
36.45
36.59
35.64
33.93
31.95
30.08
28.60
27.55
26.79
26.07
25.18
24.06
22.74
21.37
20.06
18.83
17.64
16.38
14.97
13.36
11.54
9.56
7.48
5.36
3.32
1.50
0.01
-1.07
-1.79
-2.32
-2.94
-4.02
-5.87
-8.73
-12.58
-17.16
-21.90
-26.07
-28.90
-29.79
-28.55
-25.33
-20.72
-15.38
-9.99
-4.95
-0.41
3.64
7.26
10.45
13.17
15.33
16.94
18.05
18.85
19.48
20.03
20.50
20.75
20.69
20.25
19.45
18.37
17.05
15.49
13.55
11.09
7.96
4.14
-0.30
-5.16
-10.20
-15.16
-19.90
-24.33
-28.47
-32.42
-36.26
-40.09
-44.02
-48.12
-52.51
-57.32
-62.57
-68.08
-73.36
-77.61
-79.87
-79.33
-75.73
-69.38
-61.20
-52.30
-43.69
-36.04
-29.60
-24.37
-20.19
-16.96
-14.53
-12.68
-11.11
-9.45
-7.38
-4.69
-1.36
2.48
6.54
10.43
13.82
16.50
18.43
19.71
20.53
21.04
21.39
21.55
21.45
20.98
20.03
18.62
16.83
14.83
12.74
10.65
8.51
6.19
3.57
0.57
-2.90
-6.86
-11.33
-16.23
-21.26
-25.85
-29.15
-30.36
-28.95
-24.94
-18.88
-11.63
-4.14
2.87
8.97
13.97
17.81
20.48
21.99
22.45
22.10
21.27
20.29
19.42
18.78
18.40
18.18
18.02
17.79
17.39
16.72
15.74
14.40
12.71
10.66
8.22
5.39
2.16
-1.42
-5.24
-9.14
-12.94
-16.47
-19.66
-22.55
-25.27
-27.97
-30.86
-34.13
-37.96
-42.51
-47.80
-53.53
-59.04
-63.30
-65.28
-64.18
-59.84
-52.70
-43.69
-33.84
-23.98
-14.64
-6.09
1.51
8.03
13.40
17.62
20.86
23.38
25.45
27.26
28.96
30.60
32.18
33.66
34.97
35.99
36.61
36.73
36.34
35.39
33.89
31.86
29.40
26.59
23.50
20.16
16.56
12.72
8.71
4.73
0.96
-2.48
-5.68
-8.90
-12.47
-16.63
-21.49
-26.96
-32.79
-38.56
-43.65
-47.28
-48.69
-47.33
-43.14
-36.62
-28.71
-20.50
-12.89
-6.47
-1.46
2.18
4.58
5.86
6.15
5.60
4.44
2.99
1.56
0.43
-0.26
-0.56
-0.72
-0.96
-1.41
-2.06
-2.66
-3.00
-2.90
-2.45
-1.93
-1.73
-2.15
-3.25
-4.89
-6.70
-8.30
-9.42
-9.99
-10.21
-10.44
-11.10
-12.54
-14.89
-17.98
-21.39
-24.42
-26.31
-26.33
-24.03
-19.34
-12.62
-4.57
3.98
12.24
19.65
25.86
30.71
34.17
36.25
37.11
36.96
36.13
34.96
33.71
32.55
31.48
30.44
29.35
28.15
26.77
25.19
23.34
21.12
18.42
15.12
11.19
6.71
1.95
-2.75
-7.03
-10.64
-13.58
-16.02
-18.32
-20.80
-23.79
-27.42
-31.70
-36.37
-40.84
-44.22
-45.49
-43.81
-38.88
-31.02
-21.20
-10.57
-0.17
9.33
17.65
24.72
30.50
34.90
37.86
39.42
39.74
39.22
38.23
37.16
36.21
35.50
34.97
34.46
33.78
32.84
31.62
30.19
28.51
26.46
23.80
20.25
15.74
10.40
4.68
-0.92
-5.93
-10.17
-13.76
-17.14
-20.91
-25.61
-31.50
-38.33
-45.26
-50.98
-54.09
-53.52
-48.89
-40.68
-30.01
-18.25
-6.69
3.80
12.77
20.09
25.73
29.74
32.18
33.28
33.37
32.89
32.26
31.70
31.21
30.63
29.77
28.52
26.95
25.22
23.47
21.72
19.77
17.34
14.18
10.23
5.70
0.93
-3.67
-7.83
-11.41
-14.55
-17.58
-20.95
-25.09
-30.30
-36.53
-43.23
-49.42
-53.81
-55.22
-52.89
-46.75
-37.39
-25.95
-13.77
-2.12
8.10
16.48
23.00
27.91
31.50
33.90
35.14
35.18
34.18
32.48
30.61
29.03
27.98
27.35
26.88
26.31
25.56
24.70
23.83
22.87
21.53
19.38
16.10
11.68
6.44
0.93
-4.22
-8.56
-12.02
-14.86
-17.65
-21.06
-25.66
-31.62
-38.59
-45.61
-51.28
-54.13
-53.03
-47.60
-38.30
-26.36
-13.30
-0.55
10.97
20.89
29.15
35.86
40.98
44.43
46.22
46.57
45.98
45.06
44.27
43.74
43.33
42.66
41.38
39.34
36.61
33.46
30.21
27.10
24.17
21.27
18.02
14.10
9.37
3.95
-1.71
-7.09
-11.74
-15.52
-18.60
-21.40
-24.36
-27.84
-32.09
-37.19
-43.00
-49.08
-54.57
-58.28
-58.94
-55.66
-48.26
-37.44
-24.58
-11.26
1.27
12.27
21.63
29.53
36.14
41.43
45.21
47.36
47.96
47.39
46.19
44.92
43.87
43.03
42.16
40.97
39.32
37.28
35.09
32.97
31.01
29.08
26.86
24.03
20.32
15.71
10.35
4.55
-1.30
-6.88
-12.02
-16.65
-20.86
-24.74
-28.41
-32.02
-35.76
-39.89
-44.68
-50.14
-55.85
-60.90
-63.99
-63.91
-59.93
-52.18
-41.60
-29.63
-17.68
-6.83
2.37
9.74
15.31
19.11
21.18
21.63
20.74
19.00
16.97
15.14
13.73
12.75
12.00
11.24
10.30
9.15
7.85
6.49
5.09
3.62
2.04
0.39
-1.25
-2.80
-4.19
-5.54
-6.91
-8.40
-9.99
-11.62
-13.20
-14.64
-15.90
-16.97
-17.84
-18.62
-19.58
-21.16
-23.79
-27.63
-32.36
-36.94
-39.97
-40.08
-36.38
-28.90
-18.54
-6.76
4.93
15.38
24.01
30.74
35.75
39.25
41.38
42.22
42.01
41.03
39.73
38.44
37.28
36.16
34.85
33.10
30.87
28.24
25.41
22.60
19.87
17.22
14.54
11.68
8.54
5.09
1.34
-2.55
-6.39
-10.04
-13.40
-16.54
-19.51
-22.34
-24.97
-27.32
-29.34
-31.25
-33.44
-36.25
-39.79
-43.68
-47.05
-48.79
-47.88
-43.77
-36.58
-27.06
-16.33
-5.55
4.42
13.09
20.28
25.99
30.20
32.89
34.10
34.06
33.20
32.04
31.00
30.25
29.71
29.21
28.58
27.79
26.88
25.81
24.55
22.98
21.04
18.76
16.18
13.34
10.19
6.66
2.74
-1.43
-5.58
-9.47
-12.90
-15.85
-18.43
-20.78
-23.07
-25.52
-28.35
-31.81
-36.05
-40.93
-45.99
-50.45
-53.29
-53.59
-50.73
-44.66
-35.93
-25.56
-14.80
-4.79
3.68
10.24
14.95
18.10
20.03
21.07
21.46
21.43
21.20
20.97
20.89
21.00
21.27
21.59
21.82
21.84
21.53
20.84
19.77
18.38
16.77
14.98
12.98
10.69
7.99
4.89
1.47
-2.05
-5.45
-8.58
-11.45
-14.21
-17.08
-20.29
-24.04
-28.45
-33.52
-39.05
-44.55
-49.26
-52.22
-52.56
-49.75
-43.85
-35.48
-25.66
-15.51
-5.94
2.51
9.61
15.23
19.31
21.77
22.69
22.37
21.37
20.33
19.73
19.81
20.47
21.44
22.40
23.07
23.26
22.82
21.70
19.96
17.79
15.53
13.36
11.37
9.41
7.18
4.52
1.39
-2.06
-5.55
-8.91
-12.09
-15.14
-18.19
-21.43
-25.01
-29.10
-33.76
-38.86
-43.92
-48.10
-50.42
-49.98
-46.30
-39.51
-30.36
-19.97
-9.61
-0.28
7.37
13.11
17.04
19.47
20.67
20.99
20.67
20.00
19.24
18.60
18.21
18.07
18.08
18.05
17.86
17.42
16.72
15.78
14.60
13.06
11.00
8.23
4.65
0.39
-4.28
-8.90
-13.11
-16.67
-19.61
-22.25
-25.06
-28.61
-33.29
-39.16
-45.76
-52.05
-56.66
-58.25
-55.97
-49.82
-40.70
-30.08
-19.46
-9.97
-2.16
3.91
8.35
11.30
12.83
13.04
12.24
10.98
9.86
9.42
9.81
10.88
12.15
13.16
13.61
13.57
13.40
13.50
14.09
14.94
15.50
15.18
13.60
10.84
7.38
3.78
0.45
-2.59
-5.65
-9.20
-13.68
-19.31
-26.02
-33.36
-40.47
-46.15
-49.11
-48.30
-43.34
-34.58
-23.11
-10.39
2.17
13.49
22.91
30.22
35.45
38.77
40.45
40.80
40.12
38.71
36.85
34.78
32.72
30.78
29.01
27.35
25.69
23.93
21.99
19.76
17.12
13.91
9.96
5.18
-0.39
-6.57
-13.05
-19.58
-25.97
-32.19
-38.36
-44.77
-51.79
-59.72
-68.60
-78.02
-86.98
-94.07
-97.87
-97.46
-92.73
-84.54
-74.34
-63.82
-54.42
-47.12
-42.49
-40.80
-42.15
-46.40
-53.07
-61.27
-69.93
-78.13
-85.42
-91.94
-98.23
-104.73
-111.35
-117.26
-121.12
-121.53
-117.66
-109.59
-98.34
-85.63
-73.38
-63.19
-56.03
-52.14
-51.18
-52.63
-56.12
-61.64
-69.48
-79.79
-92.23
-105.61
-117.95
-126.82
-129.94
-125.77
-113.92
-95.16
-71.06
-43.44
-13.85
16.91
48.86
82.60
118.59
156.52
194.82
230.77
261.15
283.32
296.15
300.46
298.64
293.73
288.24
283.32
278.52
272.29
262.94
249.42
231.92
211.67
190.44
169.63
149.86
130.96
112.45
94.35
77.46
63.14
52.55
46.16
43.82
45.35
51.09
61.66
76.92
94.99
112.03
123.36
125.39
117.32
101.47
82.10
63.39
47.92
36.15
27.23
20.14
14.32
9.75
6.37
3.64
0.64
-3.51
-9.10
-15.56
-21.72
-26.35
-28.93
-30.02
-31.12
-33.98
-39.71
-48.24
-58.48
-69.34
-80.89
-94.72
-112.96
-136.22
-161.98
-184.51
-197.18
-195.72
-180.93
-158.48
-136.12
-119.82
-111.52
-109.89
-112.76
-119.37
-130.02
-143.83
-156.49
-160.78
-150.06
-122.71
-84.49
-46.31
-18.69
-6.06
-4.52
-4.49
3.54
23.90
53.98
86.63
114.39
132.72
140.71
139.68
131.06
115.36
92.71
64.32
33.48
5.24
-15.17
-24.39
-22.16
-11.33
3.42
17.27
26.82
30.80
30.05
26.82
23.74
22.94
25.34
30.56
37.22
43.52
48.00
49.89
49.16
46.35
42.18
37.25
31.99
26.83
22.38
19.46
18.93
21.23
25.96
31.75
36.54
38.29
35.77
29.16
20.04
10.89
4.09
1.20
2.59
7.54
14.67
22.23
28.40
31.59
30.99
27.14
22.26
19.87
23.74
36.31
57.77
86.02
117.60
149.18
178.68
205.50
229.94
252.37
272.58
289.80
303.13
311.98
316.21
316.06
311.93
304.20
293.34
279.97
264.89
248.84
232.15
214.60
195.45
173.87
149.42
122.36
93.67
64.69
36.65
10.27
-14.38
-37.93
-61.48
-86.14
-112.61
-140.76
-169.48
-196.93
-221.21
-240.98
-256.04
-267.45
-277.25
-288.05
-302.79
-324.34
-354.75
-393.96
-438.54
-481.34
-512.75
-523.44
-507.58
-465.09
-401.78
-327.45
-252.79
-186.50
-133.68
-95.76
-71.41
-57.80
-51.63
-49.71
-49.39
-48.73
-46.77
-43.43
-39.29
-35.38
-33.02
-33.33
-36.74
-42.59
-48.95
-53.12
-52.47
-45.46
-32.27
-14.64
4.91
24.20
42.07
58.51
74.10
89.34
104.08
117.51
128.59
136.55
141.31
143.43
143.94
143.89
144.04
144.57
145.03
144.48
141.93
136.65
128.63
118.52
107.27
95.52
83.08
68.77
50.95
28.24
0.19
-32.37
-67.59
-103.09
-136.40
-165.00
-186.40
-198.15
-198.36
-186.47
-163.75
-133.33
-99.37
-65.86
-35.50
-9.23
13.38
33.30
51.18
67.03
80.20
89.87
95.41
96.68
94.00
88.13
79.99
70.52
60.52
50.52
40.76
31.31
22.07
12.93
3.73
-5.80
-15.98
-27.15
-39.54
-53.15
-67.86
-83.40
-99.43
-115.31
-129.85
-141.25
-147.36
-146.28
-137.06
-120.12
-97.17
-70.56
-42.75
-15.63
9.53
32.07
51.88
69.27
84.94
99.65
113.83
127.10
138.15
145.02
145.82
139.50
126.27
107.55
85.50
62.45
40.33
20.55
3.95
-9.05
-18.45
-24.62
-28.37
-30.82
-33.27
-36.94
-42.58
-50.29
-59.43
-68.74
-76.70
-81.91
-83.54
-81.44
-76.24
-68.97
-60.80
-52.49
-44.19
-35.29
-24.72
-11.43
4.96
23.72
42.83
59.50
70.98
75.53
73.00
64.92
53.93
42.87
34.06
28.81
27.40
29.21
33.13
37.81
41.88
44.34
44.59
42.60
38.84
33.94
28.44
22.45
15.56
7.05
-3.77
-17.06
-32.16
-47.62
-61.43
-71.74
-77.32
-77.90
-74.08
-66.85
-57.29
-46.21
-34.22
-21.95
-10.23
-0.12
7.45
12.03
13.98
14.46
15.11
17.39
22.06
28.94
37.01
44.97
51.70
56.79
60.50
63.61
66.95
70.99
75.59
80.03
83.21
83.98
81.48
75.41
66.27
55.31
44.35
35.40
30.11
29.32
32.88
39.94
49.27
59.74
70.55
81.25
91.37
100.18
106.56
109.03
106.17
96.99
81.39
60.58
37.00
13.93
-5.45
-19.19
-27.25
-31.43
-34.44
-38.75
-45.72
-55.66
-68.27
