1660926388.00
64.000000
-0.00
-0.00
-0.00
-0.00
-0.00
-0.00
-0.00
-0.00
-0.00
-0.00
0.00
0.01
0.01
-0.00
-0.03
-0.05
-0.05
0.00
0.13
0.36
0.66
1.01
1.37
1.72
2.06
2.40
2.79
3.25
3.81
4.44
5.09
5.73
6.33
6.91
7.54
8.28
9.14
10.22
11.39
12.56
13.62
14.56
15.45
16.47
17.83
19.65
22.11
25.00
28.05
30.99
33.71
36.32
39.18
42.70
47.13
52.79
59.27
66.07
72.68
78.89
84.88
91.22
98.53
107.21
117.59
129.03
140.75
152.03
162.62
172.84
183.45
195.69
207.93
222.03
238.27
256.75
276.54
295.29
309.17
313.81
305.67
283.33
248.48
204.46
155.51
105.26
55.94
8.51
-36.80
-79.87
-120.48
-158.42
-194.39
-229.74
-265.92
-303.50
-341.25
-375.90
-402.83
-417.76
-418.27
-405.04
-381.55
-352.75
-323.18
-295.55
-270.48
-247.28
-225.07
-203.56
-183.25
-164.87
-148.71
-134.37
-121.04
-107.93
-94.74
-81.72
-69.48
-58.59
-49.33
-41.54
-34.72
-28.27
-21.72
-14.89
-7.96
-1.32
4.57
9.40
13.13
15.98
18.33
20.47
22.52
24.36
25.78
26.64
26.93
26.79
26.37
25.78
25.02
24.05
22.91
21.71
20.67
20.02
19.89
20.27
21.03
21.96
22.86
23.58
24.09
24.36
24.44
24.35
24.14
23.87
23.63
23.50
23.53
23.67
23.80
23.74
23.32
22.45
21.17
19.62
18.00
16.50
15.26
14.32
13.66
13.22
12.89
12.59
12.19
11.56
10.57
9.18
7.49
5.69
4.07
2.87
2.23
2.18
2.57
3.23
3.93
4.54
4.95
5.12
5.01
4.64
4.04
3.27
2.41
1.59
0.91
0.48
0.31
0.34
0.43
0.48
0.41
0.21
-0.05
-0.32
-0.57
-0.82
-1.17
-1.70
-2.42
-3.29
-4.20
-5.07
-5.85
-6.56
-7.24
-7.91
-8.55
-9.11
-9.50
-9.65
-9.52
-9.14
-8.58
-7.94
-7.35
-6.85
-6.47
-6.14
-5.81
-5.41
-4.95
-4.48
-4.05
-3.67
-3.31
-2.92
-2.47
-1.95
-1.42
-0.92
-0.46
-0.04
0.33
0.59
0.69
0.63
0.47
0.31
0.30
0.48
0.81
1.14
1.35
1.37
1.22
1.03
0.92
0.95
1.11
1.31
1.43
1.44
1.37
1.30
1.33
1.52
1.84
2.22
2.55
2.78
2.93
3.05
3.20
3.42
3.66
3.87
4.01
4.04
3.99
3.93
3.91
3.95
4.06
4.17
4.23
4.19
4.04
3.79
3.49
3.23
3.10
3.11
3.23
3.35
3.39
3.27
3.00
2.67
2.35
2.13
2.03
2.05
2.14
2.27
2.41
2.53
2.58
2.56
2.48
2.40
2.39
2.48
2.64
2.81
2.91
2.86
2.69
2.45
2.22
2.05
1.95
1.87
1.75
1.57
1.33
1.09
0.90
0.80
0.79
0.85
0.94
1.05
1.17
1.28
1.35
1.32
1.15
0.86
0.54
0.27
0.15
0.16
0.26
0.33
0.31
0.20
0.06
-0.03
-0.02
0.14
0.43
0.83
1.28
1.73
2.06
2.19
2.11
1.86
1.57
1.36
1.30
1.36
1.44
1.47
1.38
1.20
0.99
0.79
0.61
0.45
0.28
0.13
0.02
-0.02
-0.00
0.03
-0.00
-0.16
-0.42
-0.69
-0.84
-0.72
-0.33
0.24
0.81
1.23
1.41
1.40
1.30
1.22
1.20
1.23
1.25
1.26
1.25
1.26
1.29
1.35
1.42
1.50
1.59
1.65
1.66
1.57
1.36
1.10
0.90
0.88
1.10
1.50
1.99
2.41
2.65
2.66
2.45
2.08
1.62
1.15
0.76
0.51
0.44
0.53
0.68
0.80
0.78
0.59
0.26
-0.12
-0.45
-0.64
-0.69
-0.61
-0.46
-0.31
-0.18
-0.07
-0.01
-0.03
-0.16
-0.40
-0.69
-0.95
-1.05
-0.92
-0.58
-0.07
0.48
0.97
1.31
1.41
1.26
0.89
0.40
-0.09
-0.47
-0.68
-0.72
-0.64
-0.50
-0.36
-0.25
-0.19
-0.17
-0.19
-0.28
-0.41
-0.56
-0.67
-0.69
-0.57
-0.35
-0.08
0.13
0.24
0.23
0.15
0.09
0.08
0.07
-0.01
-0.25
-0.68
-1.24
-1.86
-2.48
-3.08
-3.70
-4.34
-4.96
-5.43
-5.61
-5.40
-4.83
-4.03
-3.20
-2.54
-2.21
-2.30
-2.81
-3.71
-4.91
-6.26
-7.60
-8.78
-9.67
-10.23
-10.53
-10.68
-10.84
-11.13
-11.55
-11.95
-12.12
-11.75
-10.55
-8.21
-4.49
0.75
7.41
15.04
22.81
29.75
34.96
37.85
38.30
36.52
32.92
27.96
22.15
15.99
10.08
4.95
0.98
-1.76
-3.50
-4.61
-5.42
-6.07
-6.52
-6.61
-6.23
-5.40
-4.27
-3.03
-1.90
-1.04
-0.55
-0.43
-0.65
-1.12
-1.75
-2.43
-3.09
-3.69
-4.21
-4.68
-5.07
-5.31
-5.29
-4.82
-3.76
-2.04
0.25
2.89
5.53
7.78
9.35
10.09
10.05
9.41
8.42
7.30
6.18
5.09
4.02
2.96
1.94
0.98
0.07
-0.78
-1.63
-2.46
-3.21
-3.80
-4.11
-4.09
-3.77
-3.25
-2.68
-2.18
-1.82
-1.59
-1.44
-1.28
-1.07
-0.80
-0.50
-0.15
0.26
0.76
1.37
2.04
2.68
3.16
3.39
3.35
3.07
2.62
2.06
1.45
0.88
0.48
0.39
0.69
1.35
2.18
2.87
3.10
2.69
1.65
0.20
-1.30
-2.51
-3.24
-3.50
-3.46
-3.30
-3.17
-3.07
-2.95
-2.78
-2.57
-2.42
-2.42
-2.61
-2.95
-3.35
-3.68
-3.84
-3.77
-3.48
-3.02
-2.45
-1.90
-1.47
-1.26
-1.25
-1.40
-1.58
-1.75
-1.91
-2.11
-2.41
-2.80
-3.20
-3.52
-3.68
-3.68
-3.59
-3.50
-3.46
-3.50
-3.62
-3.83
-4.12
-4.52
-5.00
-5.52
-6.05
-6.59
-7.20
-7.95
-8.90
-10.00
-11.14
-12.20
-13.08
-13.75
-14.26
-14.69
-15.11
-15.54
-15.94
-16.24
-16.27
-15.73
-14.21
-11.24
-6.42
0.34
8.70
17.85
26.64
33.93
38.87
41.15
41.01
39.12
36.33
33.47
31.23
30.00
29.88
30.51
31.17
30.86
28.67
24.11
17.40
9.46
1.53
-5.25
-10.20
-13.29
-14.88
-15.49
-15.50
-15.10
-14.35
-13.36
-12.32
-11.46
-10.88
-10.53
-10.19
-9.60
-8.61
-7.25
-5.72
-4.25
-3.05
-2.18
-1.59
-1.16
-0.79
-0.45
-0.17
-0.08
-0.23
-0.67
-1.32
-2.05
-2.70
-3.12
-3.24
-3.04
-2.63
-2.11
-1.60
-1.19
-0.89
-0.67
-0.52
-0.40
-0.35
-0.39
-0.55
-0.79
-1.00
-1.08
-0.94
-0.54
0.06
0.72
1.32
1.72
1.87
1.78
1.53
1.19
0.83
0.47
0.12
-0.22
-0.51
-0.74
-0.88
-0.98
-1.08
-1.20
-1.29
-1.27
-1.07
-0.70
-0.22
0.25
0.56
0.66
0.54
0.30
0.04
-0.12
-0.12
0.04
0.32
0.60
0.79
0.86
0.88
0.93
1.09
1.39
1.75
2.04
2.14
1.95
1.47
0.77
-0.03
-0.78
-1.35
-1.68
-1.80
-1.79
-1.79
-1.88
-2.02
-2.15
-2.16
-2.00
-1.71
-1.35
-1.00
-0.69
-0.43
-0.18
0.07
0.33
0.56
0.74
0.86
0.89
0.84
0.70
0.48
0.21
-0.04
-0.21
-0.22
-0.06
0.25
0.60
0.89
1.00
0.91
0.65
0.35
0.12
0.03
0.05
0.08
0.03
-0.16
-0.47
-0.77
-0.94
-0.88
-0.59
-0.15
0.28
0.55
0.57
0.37
0.07
-0.20
-0.32
-0.28
-0.11
0.12
0.37
0.61
0.87
1.12
1.28
1.26
1.01
0.55
0.01
-0.45
-0.73
-0.79
-0.72
-0.59
-0.43
-0.21
0.15
0.66
1.18
1.52
1.46
0.93
0.03
-0.98
-1.79
-2.18
-2.07
-1.55
-0.81
-0.04
0.57
0.93
0.96
0.65
0.01
-0.87
-1.86
-2.79
-3.47
-3.77
-3.63
-3.14
-2.47
-1.86
-1.51
-1.55
-1.97
-2.67
-3.49
-4.27
-4.90
-5.39
-5.77
-6.15
-6.59
-7.15
-7.79
-8.47
-9.17
-9.91
-10.81
-12.02
-13.65
-15.66
-17.88
-20.03
-21.84
-23.18
-24.14
-25.01
-26.18
-27.99
-30.51
-33.55
-36.58
-39.00
-40.35
-40.55
-39.89
-38.95
-38.24
-37.93
-37.77
-37.21
-35.81
-33.59
-31.18
-29.66
-30.14
-33.27
-38.91
-46.13
-53.56
-59.87
-64.25
-66.74
-68.21
-70.07
-73.96
-81.12
-91.78
-104.64
-116.61
-123.12
-119.11
-100.68
-66.82
-20.57
31.25
79.87
117.29
138.86
144.47
137.89
124.71
110.00
96.85
86.13
77.39
69.98
63.67
58.56
54.59
51.13
47.10
41.46
33.87
24.85
15.53
7.10
0.14
-5.63
-11.07
-16.88
-22.92
-27.90
-29.80
-26.84
-18.54
-6.16
7.63
19.86
28.34
32.42
32.90
31.45
29.83
29.23
30.12
32.32
35.24
38.19
40.51
41.76
41.78
40.66
38.66
36.07
33.17
30.17
27.34
24.89
23.02
21.73
20.90
20.27
19.67
19.08
18.60
18.39
18.57
19.12
19.94
20.99
22.25
23.76
25.47
27.22
28.82
30.13
31.26
32.54
34.45
37.44
41.71
47.14
53.34
59.85
66.32
72.72
79.30
86.50
94.73
104.14
114.41
124.77
134.17
141.62
146.63
149.56
151.66
154.74
160.38
168.93
178.84
186.66
187.92
178.47
155.83
119.99
73.51
21.11
-31.26
-77.53
-112.73
-134.26
-142.57
-141.15
-135.37
-130.60
-130.22
-134.65
-141.65
-147.84
-150.42
-148.24
-141.86
-132.75
-122.35
-111.54
-100.63
-89.82
-79.43
-70.04
-62.20
-56.09
-51.46
-47.66
-44.10
-40.48
-36.86
-33.54
-30.82
-28.78
-27.24
-25.84
-24.15
-21.82
-18.62
-14.54
-9.75
-4.60
0.47
5.12
9.26
12.96
16.20
18.53
19.04
16.62
10.66
1.53
-9.25
-19.53
-27.34
-31.66
-32.66
-31.41
-29.20
-26.96
-25.03
-23.33
-21.66
-19.98
-18.39
-17.01
-15.89
-14.92
-13.93
-12.81
-11.55
-10.31
-9.29
-8.67
-8.48
-8.55
-8.57
-8.23
-7.39
-6.13
-4.78
-3.73
-3.24
-3.34
-3.79
-4.23
-4.33
-3.93
-3.11
-2.12
-1.23
-0.64
-0.40
-0.43
-0.61
-0.82
-0.99
-1.07
-1.05
-0.92
-0.69
-0.39
-0.03
0.39
0.86
1.35
1.77
1.98
1.86
1.41
0.76
0.13
-0.29
-0.44
-0.40
-0.32
-0.29
-0.27
-0.11
0.30
0.94
1.62
2.08
2.13
1.79
1.24
0.72
0.39
0.22
0.10
-0.09
-0.33
-0.46
-0.30
0.23
1.05
1.90
2.46
2.55
2.15
1.43
0.65
0.04
-0.31
-0.41
-0.37
-0.34
-0.38
-0.54
-0.80
-1.13
-1.47
-1.79
-2.05
-2.22
-2.31
-2.35
-2.38
-2.44
-2.53
-2.61
-2.62
-2.55
-2.39
-2.18
-1.93
-1.64
-1.28
-0.87
-0.44
-0.10
0.07
0.03
-0.16
-0.38
-0.48
-0.38
-0.05
0.47
1.13
1.85
2.58
3.24
3.72
3.92
3.79
3.37
2.79
2.21
1.76
1.47
1.30
1.18
1.06
0.96
0.90
0.93
1.02
1.12
1.14
1.07
0.89
0.63
0.31
-0.03
-0.36
-0.58
-0.58
-0.30
0.25
0.91
1.46
1.71
1.57
1.12
0.51
-0.07
-0.46
-0.66
-0.74
-0.83
-1.06
-1.47
-2.00
-2.53
-2.89
-2.97
-2.79
-2.40
-1.94
-1.49
-1.11
-0.80
-0.54
-0.39
-0.42
-0.67
-1.10
-1.62
-2.07
-2.30
-2.26
-1.98
-1.59
-1.22
-0.98
-0.91
-1.04
-1.29
-1.55
-1.67
-1.50
-0.93
0.01
1.16
2.25
2.98
3.13
2.64
1.60
0.23
-1.21
-2.50
-3.48
-4.05
-4.10
-3.60
-2.57
-1.13
0.45
1.86
2.85
3.28
3.24
2.97
2.74
2.78
3.14
3.72
4.35
4.84
5.09
5.05
4.76
4.25
3.53
2.66
1.70
0.78
0.09
-0.25
-0.22
0.05
0.38
0.61
0.71
0.74
0.86
1.15
1.57
1.93
1.99
1.57
0.66
-0.56
-1.84
-2.94
-3.71
-4.11
-4.16
-3.90
-3.40
-2.74
-2.06
-1.55
-1.32
-1.42
-1.73
-2.08
-2.27
-2.20
-1.90
-1.46
-1.01
-0.62
-0.31
-0.07
0.15
0.34
0.52
0.69
0.87
1.05
1.22
1.37
1.45
1.43
1.26
0.94
0.51
-0.00
-0.53
-1.04
-1.54
-2.03
-2.48
-2.83
-2.98
-2.87
-2.53
-2.09
-1.67
-1.36
-1.10
-0.76
-0.19
0.64
1.65
2.63
3.39
3.82
3.90
3.73
3.46
3.22
3.07
3.01
2.96
2.81
2.49
1.98
1.41
0.93
0.72
0.83
1.17
1.51
1.62
1.30
0.53
-0.61
-1.92
-3.18
-4.17
-4.73
-4.79
-4.36
-3.57
-2.64
-1.76
-1.11
-0.75
-0.67
-0.84
-1.17
-1.59
-2.00
-2.29
-2.34
-2.12
-1.66
-1.10
-0.60
-0.27
-0.09
0.02
0.16
0.41
0.71
0.98
1.10
1.02
0.74
0.37
0.07
0.02
0.34
1.07
2.06
3.01
3.55
3.40
2.45
0.87
-0.97
-2.60
-3.64
-3.92
-3.52
-2.68
-1.66
-0.66
0.20
0.85
1.21
1.21
0.83
0.14
-0.64
-1.25
-1.45
-1.13
-0.38
0.60
1.57
2.33
2.82
3.07
3.14
3.09
2.91
2.59
2.12
1.55
1.01
0.59
0.38
0.38
0.52
0.75
1.04
1.36
1.70
1.96
2.02
1.76
1.16
0.28
-0.69
-1.58
-2.23
-2.61
-2.73
-2.66
-2.46
-2.16
-1.80
-1.44
-1.14
-0.94
-0.86
-0.90
-1.01
-1.14
-1.26
-1.35
-1.37
-1.33
-1.20
-0.99
-0.74
-0.51
-0.38
-0.35
-0.41
-0.45
-0.34
0.02
0.69
1.61
2.62
3.51
4.07
4.18
3.81
3.05
2.04
0.92
-0.18
-1.11
-1.77
-2.07
-1.98
-1.62
-1.16
-0.81
-0.73
-0.90
-1.20
-1.44
-1.46
-1.24
-0.87
-0.48
-0.15
0.12
0.40
0.78
1.29
1.87
2.41
2.80
2.96
2.91
2.68
2.38
2.09
1.87
1.74
1.73
1.84
2.07
2.39
2.68
2.80
2.57
1.90
0.85
-0.41
-1.65
-2.67
-3.35
-3.69
-3.73
-3.53
-3.14
-2.60
-2.01
-1.45
-1.06
-0.90
-0.99
-1.25
-1.57
-1.86
-2.04
-2.12
-2.17
-2.30
-2.57
-3.00
-3.48
-3.85
-3.99
-3.83
-3.47
-3.00
-2.53
-2.14
-1.82
-1.56
-1.32
-1.11
-0.88
-0.61
-0.25
0.24
0.84
1.48
2.05
2.41
2.48
2.26
1.85
1.41
1.15
1.26
1.77
2.59
3.50
4.24
4.60
4.49
3.94
3.04
1.97
0.94
0.17
-0.17
-0.04
0.47
1.12
1.64
1.84
1.71
1.38
1.04
0.83
0.77
0.81
0.90
1.04
1.27
1.61
2.01
2.35
2.48
2.38
2.10
1.75
1.45
1.21
0.96
0.59
0.06
-0.58
-1.21
-1.70
-1.99
-2.12
-2.18
-2.23
-2.31
-2.41
-2.54
-2.70
-2.91
-3.21
-3.56
-3.89
-4.11
-4.17
-4.06
-3.86
-3.64
-3.51
-3.51
-3.65
-3.88
-4.10
-4.23
-4.19
-3.96
-3.58
-3.11
-2.61
-2.10
-1.57
-0.96
-0.23
0.61
1.51
2.43
3.35
4.26
5.18
6.06
6.77
7.12
6.94
6.16
4.94
3.60
2.52
1.99
2.07
2.62
3.34
3.96
4.31
4.35
4.14
3.72
3.14
2.41
1.58
0.76
0.08
-0.34
-0.46
-0.30
-0.01
0.26
0.35
0.17
-0.27
-0.88
-1.50
-1.99
-2.24
-2.20
-1.87
-1.31
-0.62
0.12
0.79
1.30
1.60
1.66
1.48
1.10
0.58
0.02
-0.46
-0.75
-0.82
-0.69
-0.49
-0.34
-0.34
-0.48
-0.70
-0.93
-1.14
-1.32
-1.52
-1.74
-1.97
-2.13
-2.18
-2.10
-1.90
-1.65
-1.42
-1.29
-1.32
-1.52
-1.82
-2.09
-2.22
-2.09
-1.74
-1.25
-0.80
-0.51
-0.45
-0.53
-0.64
-0.63
-0.41
0.06
0.74
1.56
2.38
3.03
3.37
3.26
2.73
1.86
0.87
-0.04
-0.67
-0.95
-0.86
-0.47
0.11
0.76
1.30
1.59
1.56
1.21
0.66
0.10
-0.33
-0.52
-0.47
-0.27
-0.00
0.27
0.51
0.71
0.83
0.85
0.74
0.51
0.26
0.06
0.03
0.19
0.50
0.86
1.18
1.42
1.61
1.80
2.04
2.30
2.48
2.43
2.05
1.32
0.33
-0.75
-1.69
-2.32
-2.56
-2.45
-2.11
-1.67
-1.27
-1.00
-0.89
-0.96
-1.17
-1.48
-1.79
-2.01
-2.08
-2.02
-1.89
-1.81
-1.87
-2.05
-2.27
-2.41
-2.36
-2.09
-1.63
-1.06
-0.43
0.19
0.76
1.20
1.45
1.48
1.34
1.15
1.10
1.30
1.73
2.22
2.51
2.39
1.80
0.86
-0.15
-0.98
-1.45
-1.53
-1.32
-0.94
-0.49
-0.04
0.37
0.73
0.98
1.07
1.01
0.80
0.52
0.27
0.09
0.03
0.08
0.19
0.32
0.42
0.47
0.47
0.41
0.31
0.17
0.01
-0.15
-0.30
-0.40
-0.39
-0.23
0.11
0.59
1.13
1.62
1.97
2.11
2.01
1.71
1.21
0.52
-0.32
-1.26
-2.16
-2.88
-3.28
-3.32
-3.05
-2.61
-2.16
-1.83
-1.63
-1.53
-1.40
-1.19
-0.88
-0.55
-0.30
-0.22
-0.31
-0.49
-0.63
-0.62
-0.43
-0.10
0.26
0.55
0.72
0.80
0.87
1.00
1.19
1.41
1.58
1.65
1.66
1.72
1.93
2.35
2.87
3.34
3.53
3.30
2.60
1.54
0.29
-0.92
-1.90
-2.51
-2.72
-2.62
-2.37
-2.17
-2.11
-2.16
-2.16
-1.96
-1.46
-0.71
0.10
0.75
1.05
0.94
0.52
-0.04
-0.50
-0.70
-0.53
0.01
0.79
1.67
2.46
3.02
3.25
3.16
2.80
2.29
1.75
1.28
0.98
0.89
1.02
1.31
1.64
1.85
1.77
1.32
0.50
-0.55
-1.60
-2.44
-2.96
-3.12
-2.99
-2.66
-2.25
-1.84
-1.53
-1.43
-1.57
-1.89
-2.23
-2.38
-2.24
-1.83
-1.31
-0.92
-0.80
-0.96
-1.27
-1.52
-1.58
-1.41
-1.06
-0.65
-0.27
0.06
0.31
0.45
0.48
0.40
0.27
0.22
0.39
0.87
1.65
2.57
3.42
3.96
4.04
3.66
2.93
2.02
1.11
0.29
-0.42
-1.07
-1.69
-2.25
-2.68
-2.85
-2.70
-2.26
-1.69
-1.20
-0.96
-1.02
-1.29
-1.58
-1.66
-1.39
-0.75
0.15
1.13
2.02
2.70
3.11
3.29
3.29
3.17
2.98
2.73
2.46
2.21
2.03
1.95
1.96
2.01
2.02
1.92
1.68
1.32
0.90
0.49
0.13
-0.17
-0.48
-0.87
-1.35
-1.90
-2.44
-2.88
-3.17
-3.28
-3.22
-3.01
-2.68
-2.25
-1.79
-1.37
-1.09
-0.97
-0.98
-1.03
-1.06
-1.03
-0.97
-0.90
-0.80
-0.62
-0.31
0.12
0.59
0.98
1.23
1.32
1.30
1.26
1.25
1.28
1.35
1.45
1.57
1.74
1.96
2.17
2.29
2.22
1.85
1.15
0.14
-1.06
-2.25
-3.19
-3.70
-3.68
-3.20
-2.47
-1.74
-1.24
-1.04
-1.12
-1.38
-1.69
-1.99
-2.24
-2.39
-2.37
-2.08
-1.47
-0.55
0.56
1.64
2.49
2.97
3.03
2.75
2.26
1.73
1.31
1.07
1.00
1.03
1.06
1.03
0.95
0.93
1.05
1.37
1.82
2.26
2.53
2.53
2.27
1.83
1.31
0.78
0.21
-0.42
-1.12
-1.84
-2.42
-2.75
-2.78
-2.59
-2.35
-2.20
-2.18
-2.24
-2.24
-2.10
-1.87
-1.68
-1.65
-1.80
-2.00
-2.00
-1.63
-0.87
0.13
1.13
1.89
2.30
2.37
2.18
1.90
1.64
1.51
1.54
1.78
2.17
2.66
3.10
3.38
3.40
3.11
2.55
1.76
0.80
-0.23
-1.21
-1.95
-2.31
-2.17
-1.60
-0.80
-0.07
0.35
0.35
-0.01
-0.54
-1.04
-1.38
-1.50
-1.44
-1.27
-1.04
-0.76
-0.44
-0.10
0.25
0.59
0.90
1.13
1.29
1.37
1.40
1.41
1.39
1.35
1.26
1.15
1.08
1.11
1.27
1.54
1.82
2.00
2.01
1.81
1.45
1.00
0.52
0.05
-0.42
-0.91
-1.40
-1.86
-2.22
-2.41
-2.44
-2.36
-2.27
-2.25
-2.30
-2.32
-2.19
-1.83
-1.29
-0.71
-0.28
-0.13
-0.27
-0.58
-0.94
-1.22
-1.36
-1.36
-1.23
-1.00
-0.68
-0.33
0.05
0.41
0.75
1.05
1.29
1.43
1.43
1.31
1.13
1.00
1.00
1.13
1.33
1.47
1.41
1.08
0.51
-0.23
-0.96
-1.54
-1.81
-1.71
-1.32
-0.77
-0.26
0.07
0.21
0.21
0.18
0.20
0.28
0.37
0.42
0.41
0.38
0.37
0.42
0.51
0.62
0.69
0.73
0.71
0.64
0.51
0.30
0.02
-0.29
-0.56
-0.68
-0.54
-0.11
0.53
1.22
1.75
2.01
1.99
1.82
1.67
1.63
1.66
1.64
1.41
0.94
0.31
-0.34
-0.89
-1.32
-1.64
-1.89
-2.06
-2.12
-2.05
-1.88
-1.74
-1.72
-1.84
-2.03
-2.18
-2.17
-2.01
-1.78
-1.62
-1.61
-1.70
-1.80
-1.80
-1.65
-1.38
-1.07
-0.75
-0.41
-0.06
0.29
0.54
0.62
0.49
0.29
0.19
0.39
0.91
1.60
2.19
2.43
2.19
1.57
0.79
0.08
-0.36
-0.44
-0.18
0.33
0.96
1.52
1.87
1.87
1.48
0.80
0.00
-0.69
-1.09
-1.15
-0.91
-0.51
-0.10
0.21
0.38
0.43
0.41
0.35
0.27
0.16
0.04
-0.05
-0.07
0.03
0.23
0.49
0.77
1.02
1.20
1.32
1.37
1.41
1.47
1.61
1.85
2.13
2.36
2.44
2.29
1.86
1.20
0.41
-0.42
-1.16
-1.73
-2.08
-2.22
-2.20
-2.10
-1.96
-1.79
-1.57
-1.31
-1.05
-0.86
-0.83
-0.96
-1.20
-1.43
-1.54
-1.49
-1.31
-1.10
-0.94
-0.86
-0.85
-0.83
-0.77
-0.68
-0.59
-0.54
-0.50
-0.42
-0.22
0.16
0.69
1.32
1.92
2.37
2.57
2.47
2.06
1.40
0.65
-0.02
-0.42
-0.45
-0.10
0.53
1.27
1.97
2.47
2.71
2.64
2.28
1.68
0.95
0.22
-0.40
-0.81
-0.99
-0.95
-0.76
-0.49
-0.20
0.04
0.18
0.20
0.10
-0.06
-0.22
-0.32
-0.32
-0.19
0.05
0.37
0.72
1.03
1.23
1.26
1.12
0.86
0.56
0.27
0.03
-0.21
-0.45
-0.72
-0.97
-1.19
-1.35
-1.49
-1.63
-1.75
-1.80
-1.69
-1.41
-1.03
-0.67
-0.47
-0.46
-0.56
-0.63
-0.55
-0.34
-0.08
0.08
0.06
-0.12
-0.35
-0.54
-0.61
-0.60
-0.55
-0.49
-0.42
-0.26
-0.01
0.32
0.65
0.88
0.95
0.87
0.71
0.55
0.47
0.44
0.41
0.26
-0.07
-0.57
-1.16
-1.66
-1.92
-1.85
-1.47
-0.93
-0.39
0.00
0.23
0.32
0.35
0.35
0.34
0.30
0.27
0.31
0.52
0.93
1.47
2.00
2.35
2.46
2.34
2.14
2.01
2.07
2.32
2.63
2.84
2.76
2.32
1.57
0.70
-0.06
-0.55
-0.70
-0.61
-0.43
-0.30
-0.32
-0.51
-0.87
-1.39
-2.04
-2.76
-3.40
-3.80
-3.86
-3.56
-3.06
-2.52
-2.12
-1.93
-1.89
-1.93
-1.95
-1.89
-1.72
-1.42
-1.00
-0.53
-0.10
0.23
0.43
0.54
0.65
0.80
0.94
1.03
1.05
1.04
1.11
1.35
1.77
2.26
2.63
2.74
2.52
2.03
1.35
0.57
-0.27
-1.10
-1.87
-2.49
-2.83
-2.85
-2.53
-1.96
-1.29
-0.66
-0.19
0.07
0.15
0.13
0.10
0.10
0.13
0.18
0.26
0.39
0.64
1.03
1.50
1.96
2.29
2.44
2.44
2.36
2.29
2.24
2.18
2.04
1.76
1.35
0.88
0.45
0.16
0.05
0.13
0.37
0.66
0.90
0.98
0.84
0.48
-0.03
-0.59
-1.10
-1.50
-1.80
-2.01
-2.15
-2.24
-2.24
-2.15
-1.98
-1.75
-1.52
-1.34
-1.26
-1.29
-1.40
-1.52
-1.59
-1.55
-1.38
-1.16
-0.97
-0.92
-1.01
-1.15
-1.20
-1.01
-0.56
0.06
0.64
1.02
1.17
1.19
1.27
1.53
1.95
2.31
2.38
1.97
1.10
-0.03
-1.10
-1.90
-2.31
-2.38
-2.24
-1.98
-1.67
-1.31
-0.93
-0.57
-0.28
-0.11
-0.06
-0.06
-0.04
0.08
0.35
0.79
1.35
2.01
2.69
3.34
3.89
4.27
4.43
4.34
3.96
3.30
2.43
1.44
0.46
-0.37
-0.92
-1.12
-0.98
-0.57
-0.01
0.56
1.03
1.33
1.43
1.35
1.13
0.79
0.32
-0.26
-0.89
-1.46
-1.82
-1.87
-1.62
-1.22
-0.89
-0.78
-0.94
-1.25
-1.53
-1.64
-1.59
-1.52
-1.54
-1.69
-1.85
-1.84
-1.53
-0.92
-0.16
0.58
1.16
1.54
1.76
1.84
1.77
1.50
1.03
0.40
-0.23
-0.69
-0.89
-0.85
-0.67
-0.46
-0.29
-0.18
-0.08
0.01
0.07
0.04
-0.13
-0.42
-0.75
-1.05
-1.24
-1.30
-1.25
-1.11
-0.91
-0.68
-0.46
-0.31
-0.30
-0.47
-0.79
-1.19
-1.54
-1.77
-1.84
-1.78
-1.61
-1.39
-1.12
-0.79
-0.40
0.03
0.51
1.02
1.53
1.99
2.32
2.43
2.31
2.01
1.67
1.41
1.32
1.38
1.52
1.66
1.77
1.88
2.01
2.16
2.28
2.28
2.13
1.81
1.34
0.77
0.15
-0.48
-1.05
-1.52
-1.83
-1.93
-1.84
-1.58
-1.23
-0.89
-0.64
-0.56
-0.66
-0.88
-1.16
-1.41
-1.60
-1.73
-1.84
-1.95
-2.06
-2.11
-2.06
-1.86
-1.55
-1.15
-0.66
-0.12
0.47
1.05
1.54
1.87
2.04
2.07
2.07
2.09
2.12
2.10
1.94
1.58
1.06
0.44
-0.15
-0.63
-0.97
-1.16
-1.19
-1.03
-0.67
-0.13
0.50
1.07
1.42
1.47
1.27
0.96
0.74
0.76
1.03
1.46
1.89
2.16
2.19
2.01
1.70
1.36
1.08
0.88
0.73
0.57
0.33
-0.01
-0.39
-0.70
-0.81
-0.66
-0.25
0.28
0.78
1.12
1.22
1.08
0.71
0.16
-0.53
-1.25
-1.85
-2.16
-2.12
-1.78
-1.33
-0.97
-0.81
-0.82
-0.86
-0.81
-0.64
-0.43
-0.30
-0.34
-0.57
-0.92
-1.26
-1.51
-1.60
-1.53
-1.32
-1.03
-0.75
-0.53
-0.42
-0.43
-0.52
-0.63
-0.71
-0.73
-0.68
-0.56
-0.36
-0.09
0.19
0.39
0.41
0.14
-0.44
-1.27
-2.18
-2.97
-3.44
-3.47
-3.04
-2.21
-1.13
0.07
1.21
2.15
2.76
2.96
2.79
2.35
1.82
1.38
1.17
1.17
1.28
1.36
1.32
1.18
1.04
0.96
0.96
0.99
0.98
0.87
0.73
0.61
0.57
0.60
0.67
0.73
0.79
0.94
1.24
1.69
2.15
2.48
2.51
2.20
1.62
0.92
0.22
-0.42
-0.99
-1.51
-1.95
-2.22
-2.25
-2.03
-1.64
-1.22
-0.91
-0.76
-0.73
-0.71
-0.66
-0.55
-0.44
-0.42
-0.54
-0.80
-1.14
-1.47
-1.69
-1.75
-1.64
-1.39
-1.08
-0.80
-0.61
-0.52
-0.51
-0.51
-0.46
-0.29
0.01
0.41
0.86
1.24
1.47
1.49
1.33
1.01
0.57
0.05
-0.52
-1.07
-1.50
-1.72
-1.64
-1.25
-0.64
0.04
0.64
1.01
1.12
0.97
0.67
0.36
0.17
0.18
0.35
0.62
0.89
1.11
1.30
1.49
1.67
1.83
1.90
1.88
1.80
1.70
1.66
1.65
1.62
1.51
1.27
0.98
0.75
0.68
0.79
1.01
1.20
1.19
0.93
0.44
-0.15
-0.69
-1.08
-1.29
-1.41
-1.54
-1.70
-1.85
-1.89
-1.75
-1.45
-1.09
-0.81
-0.69
-0.71
-0.80
-0.89
-0.95
-1.04
-1.18
-1.40
-1.62
-1.76
-1.73
-1.52
-1.17
-0.77
-0.39
-0.09
0.10
0.19
0.18
0.11
-0.01
-0.16
-0.33
-0.48
-0.57
-0.60
-0.56
-0.51
-0.47
-0.47
-0.50
-0.51
-0.47
-0.39
-0.27
-0.11
0.12
0.47
0.99
1.61
2.22
2.62
2.69
2.40
1.86
1.27
0.82
0.63
0.71
0.98
1.33
1.63
1.83
1.94
1.98
1.98
1.98
1.97
1.92
1.82
1.64
1.39
1.09
0.76
0.44
0.14
-0.11
-0.33
-0.59
-1.01
-1.66
-2.56
-3.60
-4.54
-5.12
-5.16
-4.66
-3.83
-2.96
-2.35
-2.11
-2.12
-2.17
-2.07
-1.75
-1.29
-0.80
-0.35
0.10
0.60
1.17
1.70
2.02
2.01
1.68
1.17
0.71
0.46
0.45
0.58
0.70
0.71
0.57
0.36
0.17
0.07
0.10
0.25
0.48
0.73
0.96
1.10
1.12
1.01
0.78
0.45
0.06
-0.27
-0.48
-0.48
-0.28
0.04
0.35
0.54
0.56
0.44
0.24
0.03
-0.17
-0.38
-0.59
-0.80
-0.96
-1.04
-1.04
-0.98
-0.85
-0.61
-0.22
0.35
0.99
1.55
1.86
1.86
1.60
1.24
0.93
0.79
0.81
0.95
1.14
1.31
1.44
1.50
1.46
1.33
1.13
0.88
0.61
0.30
-0.11
-0.65
-1.30
-1.98
-2.55
-2.92
-3.05
-3.01
-2.89
-2.76
-2.64
-2.47
-2.20
-1.79
-1.31
-0.89
-0.63
-0.59
-0.70
-0.83
-0.82
-0.59
-0.16
0.38
0.88
1.24
1.40
1.37
1.25
1.12
1.08
1.17
1.40
1.72
2.07
2.38
2.61
2.75
2.78
2.68
2.46
2.11
1.64
1.08
0.51
-0.02
-0.48
-0.81
-1.01
-1.05
-0.93
-0.68
-0.36
-0.04
0.19
0.26
0.18
-0.01
-0.23
-0.39
-0.44
-0.37
-0.23
-0.09
-0.00
0.01
-0.02
-0.06
-0.09
-0.10
-0.12
-0.16
-0.22
-0.25
-0.22
-0.09
0.07
0.18
0.17
0.02
-0.18
-0.30
-0.26
-0.08
0.11
0.17
0.02
-0.28
-0.62
-0.85
-0.92
-0.84
-0.70
-0.52
-0.33
-0.08
0.23
0.56
0.82
0.91
0.80
0.52
0.14
-0.24
-0.57
-0.80
-0.93
-0.95
-0.86
-0.64
-0.33
0.00
0.24
0.27
0.06
-0.37
-0.88
-1.30
-1.50
-1.43
-1.18
-0.90
-0.74
-0.77
-0.96
-1.20
-1.38
-1.42
-1.30
-1.04
-0.69
-0.30
0.10
0.48
0.79
0.96
0.92
0.65
0.21
-0.23
-0.49
-0.44
-0.10
0.38
0.76
0.89
0.74
0.44
0.23
0.26
0.50
0.82
0.98
0.83
0.41
-0.14
-0.59
-0.81
-0.81
-0.66
-0.49
-0.35
-0.19
0.05
0.37
0.71
0.91
0.86
0.54
0.04
-0.49
-0.93
-1.23
-1.42
-1.56
-1.70
-1.85
-2.00
-2.14
-2.23
-2.23
-2.09
-1.77
-1.27
-0.60
0.18
1.01
1.84
2.61
3.23
3.62
3.70
3.46
2.96
2.32
1.67
1.14
0.80
0.69
0.79
1.04
1.32
1.49
1.44
1.13
0.62
0.05
-0.44
-0.75
-0.89
-0.92
-0.94
-0.97
-1.02
-1.04
-1.01
-0.91
-0.75
-0.56
-0.33
-0.06
0.23
0.52
0.73
0.79
0.70
0.51
0.29
0.13
0.07
0.08
0.15
0.24
0.32
0.36
0.33
0.19
-0.09
-0.44
-0.79
-0.98
-0.93
-0.59
-0.04
0.59
1.17
1.61
1.87
1.94
1.85
1.66
1.37
1.03
0.66
0.30
-0.00
-0.21
-0.31
-0.33
-0.29
-0.21
-0.09
0.05
0.14
0.13
-0.04
-0.37
-0.75
-1.05
-1.13
-1.00
-0.74
-0.51
-0.40
-0.43
-0.50
-0.50
-0.41
-0.27
-0.18
-0.23
-0.40
-0.62
-0.80
-0.88
-0.86
-0.77
-0.65
-0.52
-0.39
-0.25
-0.12
-0.00
0.08
0.13
0.17
0.22
0.26
0.28
0.24
0.18
0.11
0.10
0.19
0.34
0.47
0.50
0.36
0.08
-0.22
-0.43
-0.45
-0.30
-0.05
0.18
0.31
0.28
0.11
-0.13
-0.37
-0.52
-0.48
-0.24
0.17
0.61
1.00
1.24
1.35
1.39
1.42
1.44
1.39
1.24
0.96
0.63
0.35
0.17
0.10
0.03
-0.10
-0.32
-0.58
-0.79
-0.91
-0.94
-0.92
-0.88
-0.82
-0.69
-0.46
-0.15
0.17
0.42
0.54
0.52
0.41
0.24
0.07
-0.12
-0.32
-0.50
-0.63
-0.68
-0.62
-0.46
-0.24
0.03
0.31
0.60
0.87
1.09
1.20
1.11
0.83
0.38
-0.11
-0.52
-0.77
-0.87
-0.85
-0.75
-0.60
-0.38
-0.10
0.17
0.32
0.25
-0.06
-0.51
-0.92
-1.11
-1.04
-0.78
-0.47
-0.25
-0.16
-0.12
0.00
0.29
0.73
1.20
1.53
1.59
1.35
0.83
0.17
-0.48
-0.97
-1.18
-1.09
-0.78
-0.41
-0.13
-0.02
-0.08
-0.20
-0.28
-0.27
-0.16
-0.02
0.11
0.24
0.38
0.54
0.71
0.82
0.81
0.66
0.42
0.16
-0.05
-0.16
-0.17
-0.12
-0.04
0.01
0.03
0.04
0.11
0.29
0.57
0.90
1.16
1.24
1.07
0.70
0.19
-0.32
-0.75
-1.03
-1.16
-1.13
-0.96
-0.68
-0.37
-0.13
-0.01
-0.04
-0.20
-0.43
-0.68
-0.90
-1.05
-1.12
-1.08
-0.94
-0.74
-0.53
-0.36
-0.21
-0.02
0.26
0.66
1.13
1.57
1.87
1.94
1.76
1.35
0.74
0.06
-0.56
-0.94
-1.00
-0.75
-0.35
-0.04
-0.01
-0.31
-0.82
-1.32
-1.61
-1.62
-1.42
-1.14
-0.87
-0.63
-0.37
-0.00
0.45
0.90
1.25
1.39
1.34
1.15
0.93
0.74
0.59
0.47
0.38
0.32
0.30
0.32
0.33
0.29
0.14
-0.11
-0.39
-0.61
-0.71
-0.65
-0.44
-0.15
0.13
0.31
0.33
0.20
-0.04
-0.28
-0.42
-0.41
-0.26
-0.07
0.07
0.07
-0.02
-0.14
-0.18
-0.12
0.01
0.09
0.04
-0.15
-0.44
-0.71
-0.85
-0.82
-0.63
-0.35
-0.09
0.12
0.23
0.26
0.23
0.15
0.01
-0.19
-0.43
-0.68
-0.87
-0.95
-0.95
-0.92
-0.94
-1.04
-1.22
-1.38
-1.43
-1.33
-1.10
-0.80
-0.52
-0.30
-0.16
-0.08
-0.02
0.06
0.19
0.39
0.66
0.92
1.08
1.06
0.87
0.58
0.31
0.15
0.10
0.08
-0.03
-0.31
-0.72
-1.16
-1.51
-1.71
-1.77
-1.81
-1.90
-2.11
-2.43
-2.79
-3.08
-3.28
-3.34
-3.28
-3.12
-2.92
-2.70
-2.54
-2.52
-2.72
-3.16
-3.76
-4.37
-4.77
-4.71
-4.00
-2.54
-0.40
2.18
4.80
7.03
8.53
9.12
8.88
8.04
6.90
5.69
4.54
3.49
2.55
1.81
1.34
1.20
1.34
1.61
1.86
1.98
1.96
1.85
1.72
1.60
1.49
1.33
1.14
0.97
0.85
0.83
0.89
1.00
1.12
1.21
1.24
1.20
1.06
0.83
0.58
0.38
0.28
0.28
0.31
0.26
0.07
-0.25
-0.60
-0.86
-0.95
-0.88
-0.74
-0.61
-0.54
-0.53
-0.53
-0.50
-0.43
-0.35
-0.29
-0.27
-0.31
-0.36
-0.42
-0.46
-0.51
-0.58
-0.69
-0.81
-0.90
-0.90
-0.79
-0.59
-0.34
-0.14
-0.02
0.01
-0.01
-0.06
-0.12
-0.14
-0.13
-0.06
0.06
0.22
0.39
0.49
0.48
0.33
0.09
-0.15
-0.32
-0.36
-0.26
-0.05
0.20
0.45
0.59
0.57
0.36
-0.00
-0.40
-0.73
-0.89
-0.91
-0.89
-0.95
-1.18
-1.55
-1.95
-2.25
-2.35
-2.25
-2.05
-1.89
-1.94
-2.32
-3.07
-4.14
-5.36
-6.49
-7.28
-7.55
-7.34
-6.92
-6.71
-7.14
-8.40
-10.36
-12.51
-14.23
-15.03
-14.83
-14.13
-13.75
-14.53
-16.83
-20.29
-23.98
-26.76
-27.94
-27.57
-26.49
-25.89
-26.76
-29.60
-34.35
-40.64
-47.78
-54.60
-59.06
-58.50
-50.42
-34.03
-11.12
13.80
34.94
47.39
49.10
41.50
28.15
12.75
-2.73
-18.47
-35.68
-54.85
-74.91
-93.86
-110.21
-124.27
-138.11
-154.25
-173.93
-195.77
-216.01
-229.80
-233.14
-224.13
-203.28
-172.72
-135.04
-92.28
-45.47
5.04
58.82
114.24
168.09
216.00
253.75
278.83
291.59
295.11
293.65
290.91
288.84
287.58
286.30
284.47
282.36
280.82
280.57
281.58
283.10
284.03
283.36
280.17
273.50
262.11
244.57
219.82
187.57
148.44
103.58
54.18
1.43
-52.96
-106.14
-153.93
-191.64
-215.70
-225.09
-221.93
-210.62
-196.00
-181.68
-169.16
-158.24
-148.02
-137.96
-128.24
-119.47
-112.04
-105.77
-99.92
-93.69
-86.63
-78.82
-70.89
-63.62
-57.54
-52.73
-48.89
-45.43
-41.83
-37.82
-33.46
-29.07
-25.11
-21.90
-19.58
-17.96
-16.69
-15.34
-13.59
-11.37
-8.84
-6.28
-3.94
-1.93
-0.16
1.52
3.25
4.99
6.54
7.61
7.97
7.59
6.71
5.72
5.06
5.03
5.71
6.90
8.23
9.21
9.46
8.78
7.20
4.95
2.34
-0.29
-2.68
-4.65
-6.09
-6.97
-7.29
-7.16
-6.74
-6.26
-5.92
-5.81
-5.89
-5.97
-5.83
-5.35
-4.58
-3.70
-2.94
-2.46
-2.29
-2.29
-2.32
-2.22
-1.93
-1.52
-1.08
-0.74
-0.62
-0.72
-1.01
-1.39
-1.71
-1.92
-1.98
-1.94
-1.88
-1.83
-1.75
-1.60
-1.36
-1.07
-0.82
-0.73
-0.88
-1.25
-1.78
-2.34
-2.79
-2.96
-2.77
-2.20
-1.30
-0.23
0.81
1.62
2.05
2.06
1.65
0.91
-0.00
-0.94
-1.76
-2.33
-2.54
-2.34
-1.74
-0.81
0.27
1.35
2.29
3.04
3.65
4.18
4.69
5.16
5.53
5.73
5.79
5.81
5.88
6.05
6.25
6.31
6.05
5.41
4.43
3.28
2.13
1.12
0.33
-0.24
-0.63
-0.91
-1.15
-1.41
-1.69
-1.98
-2.22
-2.36
-2.37
-2.27
-2.11
-1.96
-1.85
-1.83
-1.92
-2.10
-2.37
-2.70
-3.04
-3.33
-3.50
-3.53
-3.44
-3.29
-3.13
-2.97
-2.81
-2.59
-2.28
-1.87
-1.39
-0.92
-0.55
-0.30
-0.19
-0.16
-0.17
-0.16
-0.09
0.11
0.48
1.07
1.86
2.73
3.49
3.93
3.88
3.33
2.42
1.39
0.50
-0.08
-0.37
-0.48
-0.59
-0.85
-1.28
-1.75
-2.03
-1.86
-1.05
0.39
2.26
4.21
5.86
6.93
7.30
7.00
6.14
4.83
3.19
1.34
-0.55
-2.24
-3.50
-4.15
-4.18
-3.73
-3.02
-2.30
-1.77
-1.51
-1.50
-1.65
-1.83
-1.88
