1660934256.00
64.000000
-0.00
-0.00
-0.00
-0.00
-0.00
-0.00
-0.00
-0.00
-0.00
-0.00
0.00
0.01
0.01
-0.00
-0.03
-0.05
-0.05
0.00
0.13
0.36
0.66
1.01
1.37
1.72
2.06
2.40
2.79
3.25
3.81
4.44
5.10
5.73
6.32
6.90
7.52
8.26
9.15
10.27
11.52
12.76
13.88
14.85
15.74
16.75
18.10
19.93
22.44
25.39
28.52
31.51
34.24
36.84
39.67
43.17
47.65
53.43
60.08
67.06
73.80
80.04
85.99
92.25
99.55
108.37
119.08
131.00
143.21
154.87
165.60
175.74
186.20
198.39
210.90
225.65
242.84
262.31
282.87
301.95
315.74
320.09
311.83
289.85
255.99
213.43
166.03
117.02
68.34
20.94
-24.70
-68.06
-108.58
-145.78
-180.25
-213.29
-246.64
-281.59
-318.06
-354.10
-385.99
-409.34
-420.41
-417.75
-402.70
-378.93
-350.90
-322.36
-295.32
-270.11
-246.23
-223.19
-201.16
-180.77
-162.57
-146.54
-132.07
-118.26
-104.41
-90.35
-76.45
-63.44
-52.03
-42.53
-34.74
-28.05
-21.79
-15.45
-8.92
-2.47
3.41
8.32
12.05
14.73
16.71
18.42
20.15
22.01
23.85
25.40
26.41
26.75
26.51
25.96
25.43
25.16
25.20
25.36
25.39
25.08
24.38
23.44
22.48
21.69
21.12
20.68
20.19
19.51
18.59
17.49
16.34
15.27
14.39
13.77
13.43
13.33
13.41
13.54
13.63
13.59
13.43
13.19
12.92
12.65
12.35
11.96
11.49
11.00
10.58
10.30
10.15
10.03
9.85
9.60
9.35
9.17
9.11
9.09
8.96
8.62
8.10
7.51
7.03
6.76
6.69
6.70
6.66
6.53
6.28
5.94
5.54
5.07
4.54
3.98
3.47
3.09
2.84
2.67
2.46
2.05
1.35
0.39
-0.69
-1.68
-2.39
-2.72
-2.77
-2.72
-2.78
-3.07
-3.61
-4.32
-5.07
-5.79
-6.46
-7.08
-7.64
-8.12
-8.46
-8.66
-8.72
-8.67
-8.55
-8.36
-8.11
-7.83
-7.54
-7.29
-7.08
-6.89
-6.68
-6.40
-6.04
-5.60
-5.08
-4.48
-3.77
-2.96
-2.06
-1.19
-0.44
0.07
0.31
0.30
0.13
-0.06
-0.14
-0.02
0.29
0.71
1.13
1.44
1.58
1.53
1.36
1.20
1.17
1.39
1.89
2.60
3.40
4.17
4.78
5.24
5.60
5.93
6.26
6.55
6.71
6.64
6.39
6.06
5.78
5.64
5.62
5.61
5.49
5.22
4.83
4.44
4.16
4.07
4.15
4.33
4.49
4.51
4.35
4.01
3.54
3.06
2.67
2.46
2.47
2.67
2.93
3.14
3.17
2.99
2.65
2.27
1.97
1.82
1.85
1.98
2.14
2.26
2.32
2.33
2.30
2.29
2.29
2.32
2.33
2.29
2.13
1.87
1.57
1.32
1.22
1.28
1.47
1.68
1.83
1.90
1.90
1.88
1.85
1.82
1.74
1.61
1.47
1.39
1.40
1.53
1.71
1.87
1.93
1.87
1.71
1.50
1.27
1.03
0.80
0.57
0.38
0.26
0.20
0.21
0.24
0.24
0.17
0.05
-0.08
-0.16
-0.14
-0.00
0.24
0.54
0.84
1.07
1.21
1.25
1.20
1.11
1.02
0.97
1.03
1.21
1.53
1.92
2.27
2.44
2.35
1.97
1.42
0.83
0.36
0.09
0.00
0.04
0.12
0.22
0.36
0.57
0.84
1.09
1.22
1.15
0.87
0.44
0.03
-0.20
-0.16
0.10
0.47
0.78
0.95
0.99
0.99
1.02
1.12
1.22
1.21
1.05
0.76
0.45
0.24
0.19
0.27
0.40
0.47
0.44
0.32
0.16
0.04
0.00
0.09
0.30
0.60
0.92
1.18
1.30
1.28
1.15
0.99
0.85
0.77
0.72
0.71
0.72
0.74
0.76
0.72
0.59
0.34
0.04
-0.21
-0.29
-0.14
0.22
0.68
1.11
1.40
1.49
1.42
1.25
1.06
0.91
0.81
0.72
0.58
0.36
0.06
-0.24
-0.45
-0.49
-0.31
0.05
0.48
0.83
0.98
0.88
0.55
0.10
-0.32
-0.63
-0.77
-0.76
-0.63
-0.44
-0.22
-0.00
0.16
0.25
0.27
0.22
0.15
0.06
-0.03
-0.11
-0.15
-0.11
0.06
0.35
0.65
0.84
0.80
0.55
0.20
-0.08
-0.19
-0.12
0.02
0.13
0.18
0.18
0.23
0.34
0.52
0.69
0.81
0.83
0.74
0.57
0.36
0.13
-0.10
-0.28
-0.38
-0.37
-0.22
0.02
0.28
0.47
0.51
0.39
0.16
-0.11
-0.32
-0.44
-0.43
-0.33
-0.16
0.06
0.30
0.51
0.64
0.68
0.64
0.61
0.68
0.91
1.28
1.66
1.90
1.89
1.60
1.13
0.59
0.13
-0.20
-0.38
-0.43
-0.42
-0.38
-0.34
-0.32
-0.32
-0.33
-0.33
-0.32
-0.32
-0.36
-0.46
-0.61
-0.76
-0.81
-0.70
-0.41
-0.01
0.38
0.65
0.76
0.75
0.70
0.68
0.69
0.69
0.60
0.40
0.15
-0.07
-0.17
-0.14
-0.02
0.10
0.14
0.13
0.10
0.12
0.22
0.38
0.53
0.63
0.66
0.64
0.60
0.58
0.56
0.50
0.38
0.22
0.05
-0.06
-0.07
0.04
0.21
0.41
0.59
0.69
0.67
0.51
0.20
-0.24
-0.68
-1.02
-1.15
-1.01
-0.67
-0.23
0.15
0.34
0.29
0.02
-0.39
-0.81
-1.09
-1.17
-1.03
-0.72
-0.36
-0.02
0.27
0.50
0.68
0.77
0.78
0.65
0.43
0.17
-0.02
-0.06
0.09
0.38
0.70
0.90
0.91
0.73
0.44
0.21
0.16
0.32
0.59
0.84
0.93
0.80
0.51
0.16
-0.11
-0.25
-0.26
-0.19
-0.13
-0.12
-0.18
-0.27
-0.33
-0.29
-0.14
0.06
0.20
0.19
0.00
-0.25
-0.43
-0.42
-0.21
0.10
0.35
0.44
0.37
0.24
0.17
0.20
0.28
0.32
0.22
-0.01
-0.31
-0.57
-0.69
-0.65
-0.48
-0.27
-0.10
-0.03
-0.06
-0.17
-0.27
-0.27
-0.09
0.26
0.70
1.10
1.32
1.29
1.03
0.65
0.29
0.03
-0.12
-0.16
-0.16
-0.14
-0.11
-0.07
-0.03
-0.01
-0.06
-0.23
-0.48
-0.75
-0.94
-0.95
-0.77
-0.48
-0.17
0.05
0.14
0.12
0.07
0.04
0.07
0.11
0.14
0.15
0.19
0.31
0.51
0.71
0.79
0.68
0.36
-0.08
-0.49
-0.75
-0.82
-0.74
-0.62
-0.52
-0.46
-0.37
-0.22
0.03
0.31
0.54
0.65
0.58
0.35
0.02
-0.34
-0.64
-0.81
-0.84
-0.76
-0.63
-0.49
-0.37
-0.28
-0.19
-0.10
-0.02
-0.04
-0.16
-0.39
-0.65
-0.84
-0.91
-0.91
-0.96
-1.22
-1.80
-2.67
-3.68
-4.68
-5.53
-6.23
-6.88
-7.57
-8.36
-9.22
-10.08
-10.88
-11.67
-12.56
-13.72
-15.28
-17.32
-19.84
-22.75
-25.84
-28.85
-31.52
-33.71
-35.58
-37.54
-40.13
-43.74
-48.38
-53.64
-58.82
-63.33
-67.03
-70.30
-73.86
-78.42
-84.30
-91.31
-98.95
-106.60
-113.74
-119.94
-124.71
-127.49
-127.93
-126.25
-123.52
-121.16
-119.98
-119.27
-116.54
-108.64
-93.43
-71.26
-45.29
-20.10
0.39
14.74
24.22
31.76
40.07
50.36
62.33
74.98
87.58
100.08
112.56
124.51
134.52
140.78
141.91
137.80
129.71
119.78
110.13
102.09
95.98
91.34
87.38
83.32
78.65
73.17
67.03
60.66
54.69
49.74
46.14
43.86
42.42
41.17
39.52
37.20
34.25
31.02
27.93
25.43
23.92
23.71
25.05
27.99
32.40
37.96
44.25
50.86
57.52
64.03
70.24
75.96
81.01
85.35
89.23
93.21
97.99
104.12
111.75
120.52
129.65
138.34
146.11
153.10
160.09
168.25
178.61
191.62
206.73
222.40
236.28
245.73
248.41
242.77
228.38
205.95
176.99
143.39
106.84
68.34
27.99
-14.73
-60.23
-107.81
-155.09
-198.13
-232.51
-254.85
-264.13
-261.96
-251.82
-237.66
-222.52
-207.90
-194.06
-180.79
-168.14
-156.56
-146.51
-138.01
-130.42
-122.72
-114.01
-104.03
-93.25
-82.71
-73.51
-66.30
-61.04
-57.08
-53.43
-49.28
-44.27
-38.62
-32.98
-28.03
-24.22
-21.54
-19.61
-17.86
-15.85
-13.45
-10.84
-8.37
-6.39
-5.06
-4.32
-3.93
-3.62
-3.16
-2.48
-1.63
-0.79
-0.14
0.19
0.17
-0.06
-0.31
-0.40
-0.22
0.18
0.62
0.94
1.06
1.01
0.95
0.98
1.13
1.27
1.23
0.88
0.27
-0.41
-0.87
-0.95
-0.65
-0.18
0.19
0.25
-0.02
-0.44
-0.77
-0.82
-0.53
-0.03
0.48
0.80
0.86
0.70
0.47
0.34
0.45
0.85
1.48
2.21
2.89
3.36
3.53
3.39
2.97
2.33
1.57
0.75
-0.07
-0.81
-1.35
-1.61
-1.52
-1.13
-0.55
0.02
0.40
0.50
0.35
0.01
-0.40
-0.84
-1.27
-1.69
-2.06
-2.33
-2.43
-2.36
-2.16
-1.86
-1.50
-1.11
-0.69
-0.28
0.04
0.23
0.30
0.32
0.41
0.66
1.09
1.60
2.03
2.24
2.13
1.75
1.25
0.83
0.62
0.65
0.84
1.03
1.04
0.80
0.35
-0.18
-0.63
-0.92
-1.08
-1.21
-1.41
-1.69
-2.01
-2.22
-2.23
-2.02
-1.66
-1.28
-0.97
-0.76
-0.61
-0.42
-0.15
0.24
0.71
1.21
1.69
2.16
2.61
3.04
3.39
3.56
3.43
2.95
2.18
1.29
0.50
-0.02
-0.22
-0.20
-0.12
-0.13
-0.28
-0.53
-0.82
-1.13
-1.45
-1.77
-2.06
-2.22
-2.15
-1.85
-1.41
-0.97
-0.67
-0.54
-0.50
-0.41
-0.19
0.20
0.69
1.18
1.62
2.01
2.35
2.65
2.85
2.88
2.68
2.27
1.75
1.27
0.92
0.71
0.53
0.26
-0.18
-0.79
-1.44
-1.97
-2.26
-2.27
-2.06
-1.73
-1.43
-1.21
-1.11
-1.10
-1.19
-1.36
-1.58
-1.79
-1.92
-1.88
-1.62
-1.15
-0.53
0.14
0.81
1.44
2.05
2.59
2.98
3.07
2.78
2.13
1.28
0.48
-0.07
-0.29
-0.29
-0.26
-0.39
-0.70
-1.11
-1.43
-1.54
-1.44
-1.24
-1.07
-1.04
-1.13
-1.22
-1.20
-0.99
-0.62
-0.19
0.19
0.47
0.65
0.85
1.12
1.50
1.93
2.33
2.61
2.74
2.74
2.65
2.49
2.26
1.92
1.49
1.05
0.67
0.41
0.26
0.12
-0.10
-0.45
-0.88
-1.30
-1.60
-1.76
-1.82
-1.89
-2.00
-2.16
-2.30
-2.35
-2.30
-2.17
-2.01
-1.83
-1.60
-1.26
-0.80
-0.28
0.23
0.67
1.09
1.55
2.08
2.64
3.06
3.19
2.93
2.37
1.71
1.18
0.89
0.80
0.75
0.53
0.05
-0.63
-1.33
-1.82
-1.94
-1.66
-1.08
-0.39
0.22
0.59
0.67
0.48
0.10
-0.36
-0.79
-1.09
-1.23
-1.17
-0.95
-0.62
-0.25
0.09
0.36
0.54
0.68
0.86
1.16
1.59
2.07
2.41
2.44
2.05
1.30
0.41
-0.36
-0.79
-0.81
-0.57
-0.28
-0.16
-0.33
-0.77
-1.32
-1.84
-2.15
-2.20
-1.98
-1.56
-1.05
-0.56
-0.19
0.06
0.21
0.28
0.31
0.25
0.08
-0.17
-0.44
-0.62
-0.63
-0.48
-0.33
-0.38
-0.77
-1.54
-2.54
-3.53
-4.32
-4.83
-5.12
-5.35
-5.72
-6.34
-7.25
-8.41
-9.75
-11.17
-12.58
-13.93
-15.21
-16.45
-17.72
-19.15
-20.80
-22.68
-24.74
-26.88
-28.99
-31.06
-33.17
-35.46
-38.11
-41.22
-44.77
-48.57
-52.38
-56.05
-59.68
-63.58
-68.17
-73.72
-80.12
-86.76
-92.73
-97.13
-99.43
-99.67
-98.38
-96.36
-94.53
-93.91
-95.59
-100.49
-108.63
-118.50
-126.83
-129.20
-121.51
-101.52
-69.50
-27.80
20.56
73.02
127.82
183.19
236.37
283.39
319.79
341.87
347.85
337.97
314.07
278.79
235.24
187.07
138.39
93.55
56.21
28.49
10.37
-0.02
-5.55
-9.06
-12.62
-17.23
-22.86
-28.76
-33.83
-37.01
-37.70
-35.93
-32.34
-27.93
-23.71
-20.47
-18.54
-17.83
-17.95
-18.34
-18.48
-18.11
-17.37
-16.87
-17.49
-19.95
-24.48
-30.49
-36.69
-41.61
-44.19
-44.27
-42.51
-39.95
-37.52
-35.72
-34.50
-33.35
-31.39
-27.59
-21.04
-11.28
1.38
15.89
30.80
44.79
57.07
67.47
76.14
83.09
87.97
90.22
89.53
86.27
81.49
76.60
72.80
70.70
70.15
70.51
70.98
71.03
70.83
71.09
72.80
76.92
83.95
93.79
105.45
116.83
124.59
124.58
112.99
87.98
51.11
7.52
-35.34
-70.24
-92.71
-102.20
-101.62
-95.39
-87.40
-79.83
-73.35
-68.02
-64.19
-62.60
-63.85
-67.68
-72.78
-77.16
-79.05
-77.66
-73.37
-67.51
-61.65
-56.98
-53.89
-52.01
-50.52
-48.55
-45.63
-41.84
-37.69
-33.85
-30.82
-28.68
-27.10
-25.51
-23.34
-20.29
-16.35
-11.82
-7.18
-2.90
0.65
3.29
5.08
6.22
6.94
7.37
7.49
7.22
6.43
5.14
3.49
1.72
0.09
-1.24
-2.19
-2.82
-3.17
-3.30
-3.23
-2.94
-2.45
-1.82
-1.16
-0.58
-0.21
-0.05
-0.08
-0.17
-0.25
-0.27
-0.24
-0.21
-0.23
-0.30
-0.40
-0.52
-0.67
-0.84
-1.05
-1.25
-1.42
-1.48
-1.40
-1.17
-0.80
-0.35
0.10
0.46
0.68
0.71
0.60
0.39
0.17
0.06
0.11
0.36
0.76
1.21
1.60
1.83
1.90
1.86
1.79
1.74
1.70
1.61
1.41
1.10
0.71
0.32
-0.03
-0.34
-0.63
-0.95
-1.34
-1.77
-2.18
-2.52
-2.69
-2.59
-2.19
-1.49
-0.57
0.38
1.19
1.68
1.83
1.74
1.57
1.47
1.49
1.58
1.61
1.51
1.28
1.05
0.96
1.07
1.34
1.66
1.86
1.86
1.67
1.39
1.13
0.97
0.96
1.07
1.22
1.30
1.26
1.05
0.72
0.32
-0.08
-0.50
-0.96
-1.50
-2.13
-2.78
-3.35
-3.73
-3.87
-3.78
-3.50
-3.14
-2.75
-2.37
-2.00
-1.63
-1.27
-0.92
-0.58
-0.24
0.12
0.53
0.97
1.37
1.64
1.71
1.56
1.26
0.91
0.64
0.53
0.58
0.70
0.78
0.71
0.49
0.19
-0.09
-0.20
-0.13
0.06
0.20
0.18
-0.04
-0.35
-0.58
-0.58
-0.35
-0.00
0.28
0.37
0.29
0.14
0.05
0.08
0.22
0.35
0.40
0.38
0.34
0.36
0.49
0.67
0.80
0.78
0.55
0.14
-0.31
-0.65
-0.77
-0.63
-0.32
0.04
0.31
0.41
0.35
0.18
-0.05
-0.31
-0.63
-1.00
-1.42
-1.80
-2.06
-2.14
-2.04
-1.83
-1.64
-1.56
-1.62
-1.79
-1.97
-2.05
-1.99
-1.79
-1.49
-1.17
-0.88
-0.64
-0.48
-0.39
-0.38
-0.42
-0.44
-0.38
-0.21
0.03
0.23
0.30
0.21
-0.00
-0.21
-0.31
-0.26
-0.08
0.16
0.37
0.48
0.49
0.41
0.26
0.09
-0.05
-0.13
-0.15
-0.13
-0.10
-0.08
-0.07
-0.02
0.08
0.20
0.32
0.37
0.34
0.22
0.04
-0.12
-0.21
-0.18
-0.05
0.13
0.26
0.24
0.04
-0.32
-0.73
-1.09
-1.31
-1.32
-1.10
-0.67
-0.07
0.63
1.31
1.85
2.16
2.24
2.18
2.08
2.06
2.14
2.28
2.39
2.40
2.30
2.10
1.83
1.54
1.25
1.00
0.85
0.80
0.85
0.95
1.00
0.87
0.52
-0.04
-0.68
-1.25
-1.61
-1.74
-1.70
-1.60
-1.53
-1.54
-1.61
-1.70
-1.76
-1.76
-1.67
-1.50
-1.27
-1.08
-0.99
-1.03
-1.16
-1.28
-1.28
-1.13
-0.87
-0.59
-0.33
-0.10
0.17
0.48
0.81
1.07
1.20
1.20
1.15
1.15
1.24
1.36
1.40
1.26
0.94
0.51
0.09
-0.24
-0.48
-0.67
-0.87
-1.14
-1.44
-1.74
-1.95
-2.04
-1.99
-1.87
-1.69
-1.51
-1.32
-1.07
-0.75
-0.35
0.08
0.49
0.79
0.97
1.00
0.90
0.68
0.38
0.03
-0.33
-0.67
-0.95
-1.13
-1.18
-1.08
-0.81
-0.42
-0.00
0.35
0.56
0.63
0.63
0.63
0.64
0.64
0.57
0.44
0.33
0.37
0.62
1.02
1.42
1.65
1.62
1.39
1.14
1.05
1.18
1.43
1.65
1.68
1.52
1.26
1.08
1.08
1.28
1.56
1.79
1.87
1.76
1.52
1.24
1.00
0.85
0.78
0.76
0.77
0.81
0.90
1.10
1.45
1.93
2.46
2.92
3.18
3.16
2.87
2.35
1.71
1.03
0.38
-0.19
-0.65
-1.03
-1.36
-1.73
-2.21
-2.81
-3.45
-3.98
-4.24
-4.17
-3.84
-3.39
-2.99
-2.76
-2.71
-2.77
-2.86
-2.89
-2.82
-2.65
-2.39
-2.09
-1.81
-1.63
-1.61
-1.76
-2.05
-2.42
-2.78
-3.06
-3.20
-3.17
-2.97
-2.65
-2.27
-1.91
-1.65
-1.52
-1.50
-1.57
-1.69
-1.78
-1.78
-1.59
-1.16
-0.51
0.30
1.11
1.83
2.38
2.78
3.06
3.26
3.38
3.40
3.30
3.10
2.87
2.69
2.60
2.61
2.68
2.72
2.63
2.39
1.98
1.48
0.96
0.48
0.09
-0.24
-0.52
-0.79
-1.07
-1.35
-1.61
-1.78
-1.80
-1.58
-1.05
-0.24
0.76
1.78
2.66
3.28
3.59
3.55
3.20
2.55
1.66
0.59
-0.48
-1.40
-1.99
-2.20
-2.04
-1.65
-1.19
-0.82
-0.62
-0.58
-0.65
-0.71
-0.68
-0.53
-0.31
-0.09
0.02
-0.01
-0.18
-0.43
-0.69
-0.89
-0.97
-0.91
-0.75
-0.52
-0.31
-0.23
-0.32
-0.55
-0.82
-1.01
-1.02
-0.81
-0.46
-0.06
0.27
0.45
0.48
0.43
0.40
0.50
0.77
1.22
1.74
2.24
2.58
2.72
2.62
2.32
1.88
1.36
0.84
0.40
0.08
-0.10
-0.16
-0.17
-0.15
-0.13
-0.11
-0.08
-0.03
0.05
0.17
0.31
0.46
0.56
0.57
0.48
0.32
0.13
-0.01
-0.07
-0.06
-0.00
0.07
0.14
0.18
0.16
0.08
-0.04
-0.17
-0.26
-0.30
-0.26
-0.16
-0.03
0.12
0.26
0.35
0.36
0.24
0.00
-0.34
-0.72
-1.08
-1.35
-1.50
-1.48
-1.28
-0.91
-0.43
0.04
0.42
0.62
0.65
0.60
0.53
0.51
0.51
0.49
0.42
0.28
0.15
0.11
0.20
0.44
0.76
1.05
1.18
1.09
0.79
0.36
-0.07
-0.36
-0.45
-0.34
-0.12
0.10
0.27
0.38
0.48
0.62
0.76
0.85
0.80
0.57
0.20
-0.23
-0.64
-0.97
-1.21
-1.36
-1.44
-1.42
-1.28
-0.99
-0.56
-0.04
0.45
0.82
0.98
0.90
0.63
0.23
-0.19
-0.57
-0.84
-0.96
-0.93
-0.77
-0.51
-0.19
0.11
0.34
0.47
0.49
0.43
0.32
0.20
0.12
0.09
0.11
0.14
0.13
0.05
-0.10
-0.25
-0.34
-0.35
-0.29
-0.25
-0.31
-0.49
-0.72
-0.90
-0.91
-0.72
-0.40
-0.07
0.14
0.17
0.03
-0.22
-0.52
-0.84
-1.21
-1.59
-1.89
-2.00
-1.80
-1.30
-0.62
0.04
0.48
0.60
0.43
0.12
-0.19
-0.43
-0.60
-0.75
-0.88
-0.97
-0.94
-0.76
-0.45
-0.11
0.18
0.33
0.35
0.30
0.25
0.26
0.34
0.43
0.48
0.46
0.35
0.23
0.13
0.09
0.07
0.03
-0.11
-0.38
-0.76
-1.17
-1.53
-1.76
-1.83
-1.80
-1.72
-1.65
-1.63
-1.64
-1.64
-1.62
-1.57
-1.53
-1.53
-1.59
-1.71
-1.87
-2.07
-2.33
-2.66
-3.05
-3.44
-3.76
-3.88
-3.75
-3.41
-3.00
-2.71
-2.70
-3.04
-3.66
-4.41
-5.08
-5.53
-5.67
-5.48
-5.02
-4.37
-3.63
-2.92
-2.31
-1.89
-1.66
-1.57
-1.53
-1.41
-1.14
-0.64
0.11
1.13
2.38
3.79
5.22
6.54
7.62
8.37
8.78
8.86
8.68
8.28
7.68
6.93
6.08
5.22
4.44
3.79
3.27
2.81
2.34
1.82
1.30
0.91
0.76
0.87
1.15
1.43
1.51
1.28
0.76
0.12
-0.47
-0.85
-0.98
-0.90
-0.69
-0.37
0.05
0.55
1.08
1.52
1.76
1.76
1.59
1.40
1.38
1.61
2.06
2.59
3.07
3.41
3.65
3.83
3.97
4.04
3.93
3.59
3.05
2.40
1.77
1.23
0.82
0.52
0.32
0.27
0.40
0.71
1.11
1.43
1.53
1.29
0.74
-0.03
-0.84
-1.59
-2.22
-2.77
-3.31
-3.90
-4.53
-5.14
-5.66
-6.02
-6.23
-6.37
-6.55
-6.87
-7.31
-7.80
-8.25
-8.55
-8.75
-8.96
-9.41
-10.28
-11.67
-13.53
-15.65
-17.71
-19.40
-20.57
-21.29
-21.92
-22.92
-24.74
-27.51
-31.01
-34.69
-37.93
-40.30
-41.79
-42.90
-44.38
-46.97
-51.01
-56.12
-61.24
-64.91
-65.66
-62.68
-56.06
-46.77
-36.35
-26.48
-18.57
-13.36
-10.57
-8.68
-5.12
2.96
17.53
38.54
63.51
88.10
107.70
119.08
121.44
116.30
106.44
94.57
82.46
70.91
60.27
50.92
43.45
38.36
35.63
34.54
33.86
32.21
28.73
23.39
16.95
10.65
5.60
2.36
0.70
-0.16
-1.19
-3.00
-5.63
-8.55
-10.99
-12.34
-12.38
-11.40
-9.95
-8.66
-7.89
-7.75
-8.03
-8.43
-8.65
-8.49
-7.91
-7.03
-6.03
-5.12
-4.45
-4.08
-3.95
-3.91
-3.84
-3.64
-3.34
-3.01
-2.73
-2.51
-2.31
-2.06
-1.71
-1.26
-0.73
-0.15
0.45
1.04
1.56
1.88
1.90
1.60
1.05
0.43
-0.10
-0.44
-0.59
-0.67
-0.76
-0.93
-1.14
-1.32
-1.43
-1.48
-1.55
-1.73
-2.05
-2.50
-3.01
-3.48
-3.83
-4.01
-4.02
-3.87
-3.58
-3.14
-2.58
-1.93
-1.20
-0.41
0.44
1.33
2.24
3.10
3.84
4.37
4.66
4.69
4.46
4.00
3.34
2.60
1.94
1.54
1.53
1.87
2.39
2.81
2.91
2.61
2.01
1.36
0.88
0.69
0.76
0.96
1.16
1.30
1.37
1.43
1.52
1.64
1.75
1.79
1.76
1.66
1.52
1.36
1.19
1.03
0.88
0.77
0.70
0.66
0.62
0.57
0.50
0.45
0.44
0.50
0.60
0.71
0.81
0.89
0.96
1.01
0.98
0.84
0.53
0.10
-0.36
-0.74
-0.96
-1.00
-0.93
-0.82
-0.75
-0.75
-0.79
-0.85
-0.90
-0.94
-0.99
-1.06
-1.13
-1.17
-1.15
-1.06
-0.89
-0.68
-0.46
-0.27
-0.14
-0.09
-0.11
-0.16
-0.18
-0.14
-0.07
-0.06
-0.19
-0.47
-0.80
-1.04
-1.05
-0.78
-0.36
0.03
0.25
0.26
0.14
0.04
0.04
0.15
0.30
0.36
0.29
0.08
-0.16
-0.34
-0.35
-0.16
0.16
0.51
0.80
0.98
1.04
1.03
1.01
1.01
0.99
0.90
0.69
0.37
-0.01
-0.38
-0.67
-0.85
-0.89
-0.80
-0.60
-0.32
-0.04
0.16
0.22
0.17
0.07
0.04
0.17
0.46
0.83
1.13
1.22
1.07
0.71
0.30
-0.01
-0.15
-0.14
-0.10
-0.16
-0.41
-0.84
-1.38
-1.94
-2.45
-2.86
-3.19
-3.44
-3.62
-3.77
-3.90
-4.04
-4.23
-4.48
-4.77
-5.05
-5.22
-5.25
-5.08
-4.75
-4.28
-3.70
-3.05
-2.35
-1.61
-0.88
-0.22
0.34
0.81
1.27
1.78
2.37
2.97
3.51
3.90
4.16
4.42
4.77
5.26
5.77
6.10
6.07
5.63
4.91
4.15
3.59
3.32
3.26
3.25
3.10
2.77
2.31
1.85
1.52
1.33
1.24
1.19
1.12
1.06
1.04
1.09
1.18
1.26
1.24
1.11
0.87
0.60
0.39
0.27
0.18
0.00
-0.36
-0.94
-1.60
-2.13
-2.27
-1.88
-1.00
0.13
1.20
1.92
2.19
2.10
1.86
1.70
1.74
1.96
2.24
2.43
2.43
2.25
1.96
1.61
1.22
0.75
0.19
-0.39
-0.85
-1.09
-1.10
-1.03
-1.12
-1.53
-2.29
-3.24
-4.11
-4.68
-4.87
-4.75
-4.47
-4.13
-3.79
-3.44
-3.06
-2.66
-2.25
-1.84
-1.44
-1.04
-0.65
-0.34
-0.14
-0.07
-0.09
-0.13
-0.19
-0.29
-0.47
-0.76
-1.07
-1.25
-1.20
-0.90
-0.47
-0.12
0.00
-0.16
-0.51
-0.85
-1.05
-1.05
-0.91
-0.74
-0.63
-0.59
-0.56
-0.44
-0.18
0.18
0.56
0.82
0.89
0.77
0.56
0.39
0.33
0.39
0.45
0.39
0.15
-0.22
-0.60
-0.81
-0.74
-0.40
0.05
0.42
0.56
0.43
0.15
-0.09
-0.11
0.14
0.61
1.13
1.50
1.62
1.48
1.20
0.91
0.74
0.76
0.95
1.23
1.48
1.62
1.57
1.33
0.94
0.49
0.08
-0.22
-0.38
-0.40
-0.31
-0.15
0.04
0.21
0.31
0.33
0.30
0.24
0.18
0.12
0.02
-0.16
-0.43
-0.72
-0.97
-1.11
-1.09
-0.95
-0.75
-0.55
-0.37
-0.24
-0.14
-0.08
-0.04
0.01
0.07
0.13
0.18
0.18
0.14
0.12
0.18
0.33
0.53
0.63
0.53
0.19
-0.30
-0.77
-1.08
-1.16
-1.09
-0.99
-0.94
-0.92
-0.87
-0.71
-0.45
-0.15
0.08
0.18
0.14
0.00
-0.14
-0.24
-0.22
-0.04
0.28
0.68
1.04
1.20
1.07
0.62
-0.04
-0.72
-1.23
-1.46
-1.38
-1.08
-0.69
-0.34
-0.10
0.03
0.08
0.14
0.23
0.37
0.51
0.62
0.70
0.74
0.77
0.78
0.74
0.59
0.33
0.00
-0.28
-0.41
-0.35
-0.13
0.12
0.23
0.12
-0.17
-0.53
-0.79
-0.85
-0.74
-0.56
-0.47
-0.58
-0.88
-1.28
-1.64
-1.87
-1.91
-1.78
-1.54
-1.25
-0.97
-0.72
-0.53
-0.39
-0.27
-0.12
0.12
0.50
1.03
1.68
2.38
3.01
3.46
3.67
3.62
3.32
2.85
2.27
1.62
0.97
0.36
-0.12
-0.37
-0.35
-0.12
0.17
0.37
0.37
0.18
-0.10
-0.32
-0.42
-0.40
-0.33
-0.26
-0.19
-0.06
0.18
0.52
0.87
1.08
1.06
0.76
0.27
-0.26
-0.67
-0.88
-0.93
-0.86
-0.76
-0.64
-0.47
-0.19
0.17
0.53
0.78
0.82
0.67
0.42
0.19
0.09
0.11
0.18
0.20
0.12
-0.05
-0.24
-0.34
-0.27
0.03
0.53
1.13
1.64
1.91
1.83
1.44
0.87
0.35
0.03
-0.03
0.11
0.31
0.46
0.52
0.55
0.62
0.75
0.89
0.93
0.80
0.52
0.18
-0.05
-0.08
0.11
0.48
0.94
1.40
1.80
2.07
2.21
2.23
2.17
2.11
2.12
2.20
2.30
2.36
2.29
2.09
1.74
1.24
0.55
-0.36
-1.44
-2.55
-3.51
-4.14
-4.40
-4.39
-4.24
-4.07
-3.94
-3.77
-3.51
-3.16
-2.79
-2.50
-2.37
-2.38
-2.40
-2.32
-2.06
-1.68
-1.30
-1.05
-0.97
-0.98
-0.96
-0.80
-0.50
-0.19
-0.03
-0.13
-0.49
-1.00
-1.45
-1.67
-1.54
-1.09
-0.46
0.17
0.61
0.78
0.68
0.42
0.14
-0.05
-0.08
0.04
0.26
0.52
0.79
1.05
1.29
1.49
1.61
1.65
1.60
1.49
1.35
1.21
1.06
0.91
0.77
0.69
0.72
0.86
1.07
1.24
1.27
1.11
0.82
0.56
0.47
0.60
0.90
1.21
1.38
1.33
1.09
0.77
0.51
0.39
0.50
0.85
1.45
2.30
3.32
4.38
5.30
5.90
6.09
5.94
5.70
5.69
6.21
7.37
8.98
10.63
11.84
12.31
12.13
11.73
11.76
12.72
14.69
17.32
19.90
21.81
22.73
22.82
22.61
22.72
23.68
25.81
29.27
34.03
39.55
44.50
46.73
43.91
34.62
19.31
0.54
-17.85
-32.27
-40.75
-43.51
-42.36
-39.44
-36.10
-32.60
-28.55
-23.76
-18.71
-14.40
-11.71
-10.78
-10.87
-10.74
-9.31
-6.18
-1.83
2.65
6.14
8.02
8.38
7.90
7.41
7.55
8.47
9.95
11.54
12.69
12.79
11.24
7.63
2.00
-5.00
-12.15
-18.13
-21.96
-23.47
-23.21
-22.11
-20.91
-19.88
-18.82
-17.43
-15.60
-13.57
-11.76
-10.46
-9.66
-9.07
-8.33
-7.19
-5.68
-4.04
-2.56
-1.46
-0.78
-0.37
-0.03
0.43
1.07
1.82
2.48
2.82
2.61
1.75
0.27
-1.65
-3.67
-5.42
-6.62
-7.17
-7.21
-7.01
-6.84
-6.82
-6.91
-6.94
-6.77
-6.35
-5.80
-5.27
-4.92
-4.79
-4.81
-4.88
-4.87
-4.71
-4.39
-3.96
-3.51
-3.07
-2.68
-2.34
-2.02
-1.72
-1.43
-1.14
-0.86
-0.57
-0.27
-0.00
0.19
0.25
0.18
0.04
-0.09
-0.11
0.03
0.31
0.64
0.90
0.97
0.82
0.46
0.04
-0.30
-0.43
-0.34
-0.09
0.19
0.42
0.58
0.70
0.80
0.84
0.76
0.53
0.17
-0.18
-0.38
-0.38
-0.24
-0.09
-0.06
-0.16
-0.28
-0.28
-0.08
0.28
0.68
0.95
1.00
0.82
0.50
0.17
-0.10
-0.29
-0.43
-0.56
-0.71
-0.83
-0.90
-0.88
-0.76
-0.57
-0.35
-0.13
0.10
0.36
0.66
0.96
1.19
1.26
1.16
0.90
0.60
0.36
0.28
0.36
0.55
0.81
1.07
1.34
1.56
1.71
1.71
1.53
1.19
0.78
0.40
0.10
-0.14
-0.45
-0.95
-1.67
-2.54
-3.42
-4.19
-4.85
-5.46
-6.17
-7.04
-8.06
-9.11
-10.05
-10.82
-11.46
-12.08
-12.78
-13.60
-14.48
-15.29
-15.98
-16.55
-17.03
-17.46
-17.77
-17.91
-17.86
-17.82
-18.08
-18.97
-20.57
-22.65
-24.71
-26.20
-26.86
-26.87
-26.76
-27.19
-28.57
-30.91
-33.88
-36.94
-39.67
-41.91
-43.79
-45.65
-47.94
-51.09
-55.41
-60.98
-67.57
-74.67
-81.52
-87.36
-91.64
-94.23
-95.54
-96.67
-99.36
-105.61
-116.82
-132.75
-150.79
-166.13
-173.13
-167.12
-145.95
-110.43
-63.71
-10.10
45.82
99.56
146.73
183.25
206.13
214.54
210.38
197.93
182.40
168.23
157.89
151.69
148.47
146.54
144.50
141.54
137.52
132.82
128.13
124.25
121.77
120.82
121.09
121.93
122.66
122.81
122.37
121.79
121.89
123.72
128.21
135.71
145.37
154.65
159.39
154.66
136.42
103.41
58.33
7.54
-40.68
-78.81
-102.51
-111.53
-109.10
-100.01
-88.61
-77.56
-67.81
-59.25
-51.61
-44.87
-39.06
-33.88
-28.51
-22.13
-14.73
-7.77
-3.85
-5.62
-14.29
-28.62
-45.21
-59.79
-69.07
-72.00
-69.82
-65.05
-60.07
-56.12
-53.16
-50.51
-47.57
-44.25
-40.84
-37.67
-34.73
-31.75
-28.40
-24.48
-20.17
-15.94
-12.34
-9.76
-8.25
-7.50
-6.99
-6.16
-4.59
-2.18
0.92
4.30
7.50
10.11
11.95
13.11
13.95
14.98
16.61
18.98
21.89
24.77
26.88
27.59
26.69
24.40
21.46
18.79
17.27
17.51
19.85
24.22
29.96
35.62
39.01
37.80
30.47
17.23
0.23
-17.09
-31.32
-40.43
-44.34
-44.49
-42.77
-40.53
-38.21
-35.57
-32.43
-29.01
-25.94
-23.79
-22.69
-22.24
-21.80
-20.84
-19.21
-17.24
-15.56
-14.74
-15.04
-16.21
-17.65
-18.63
-18.61
-17.46
-15.50
-13.28
-11.36
-10.06
-9.41
-9.21
-9.17
-9.05
-8.75
-8.29
-7.77
-7.22
-6.62
-5.88
-4.88
-3.58
-2.08
-0.60
0.62
1.42
1.82
2.03
2.31
2.85
3.62
4.43
5.03
5.23
5.00
4.46
3.81
3.22
2.78
2.50
2.34
2.24
2.19
2.16
2.13
2.08
2.00
1.89
1.75
1.60
1.43
1.23
0.96
0.63
0.26
-0.09
-0.36
-0.51
-0.50
-0.40
-0.30
-0.34
-0.63
-1.20
-1.98
-2.81
-3.50
-3.89
-3.97
-3.83
-3.62
-3.47
-3.43
-3.49
-3.62
-3.83
-4.17
-4.73
-5.56
-6.62
-7.81
-8.92
-9.72
-10.04
-9.89
-9.50
-9.27
-9.66
-10.98
-13.20
-15.95
-18.65
-20.76
-22.07
-22.76
-23.42
-24.69
-27.03
-30.44
-34.40
-38.15
-40.96
-42.52
-43.06
-43.26
-43.99
-46.01
-49.69
-54.92
-60.95
-66.20
-68.27
-64.41
-52.43
-31.90
-4.91
24.23
50.30
69.07
78.73
80.27
76.45
70.32
63.94
58.01
52.42
47.06
42.29
38.82
37.10
36.89
37.25
36.98
35.23
31.87
27.57
23.39
20.26
18.62
18.26
18.49
18.49
17.65
15.79
13.23
10.56
8.35
6.93
6.22
5.90
5.51
4.78
3.73
2.61
1.76
1.42
1.59
2.01
2.39
2.46
2.17
1.63
1.10
0.76
0.70
0.85
1.04
1.09
0.90
0.49
0.01
-0.33
-0.41
-0.18
0.23
0.71
1.12
1.45
1.72
1.96
2.16
2.28
2.25
2.11
1.93
1.85
1.93
2.14
2.30
2.23
1.80
1.05
0.17
-0.59
-1.01
-1.00
-0.63
-0.09
0.42
0.74
0.81
0.66
0.37
0.05
-0.26
-0.48
-0.59
-0.57
-0.43
-0.23
-0.07
-0.06
-0.26
-0.66
-1.15
-1.60
-1.90
-2.03
-2.06
-2.07
-2.11
-2.16
-2.16
-2.04
-1.83
-1.61
-1.50
-1.56
-1.76
-2.02
-2.25
-2.39
-2.44
-2.43
-2.39
-2.30
-2.19
-2.06
-1.97
-1.96
-2.08
-2.30
-2.56
-2.80
-3.02
-3.24
-3.56
-4.05
-4.72
-5.48
-6.19
-6.70
-6.92
-6.91
-6.78
-6.72
-6.91
-7.44
-8.30
-9.36
-10.44
-11.32
-11.85
-11.99
-11.90
-11.92
-12.46
-13.81
-15.96
-18.45
-20.56
-21.53
-21.03
-19.37
-17.44
-16.36
-16.96
-19.37
-22.99
-26.77
-29.77
-31.45
-31.92
-31.69
-31.43
-31.84
-33.55
-36.92
-41.56
-45.90
-47.10
-41.88
-27.86
-5.01
23.74
53.34
78.48
95.59
104.00
105.61
103.57
100.64
98.34
96.86
95.57
93.47
89.46
82.38
71.39
56.43
38.59
20.05
3.40
-9.29
-17.12
-20.51
-20.69
-19.10
-16.91
-14.99
-14.01
-14.52
-16.80
-20.61
-25.13
-29.21
-31.82
-32.54
-31.67
-30.05
-28.67
-28.23
-28.91
-30.39
-32.02
-33.21
-33.66
-33.46
-33.04
-32.89
-33.30
-34.09
-34.65
-34.12
-31.78
-27.36
-21.21
-14.17
-7.30
-1.50
2.72
5.34
6.66
7.19
7.34
7.37
7.29
6.91
5.87
3.80
0.52
-3.62
-7.59
-9.73
-8.33
-2.38
7.79
20.40
32.85
42.63
48.34
50.04
48.90
46.53
44.18
42.42
41.38
41.17
42.02
44.04
46.74
48.75
48.20
43.54
34.50
22.46
9.98
-0.24
-6.56
-8.93
-8.58
-7.17
-5.92
-5.13
-4.47
-3.54
-2.33
-1.28
-0.94
-1.57
-2.93
-4.44
-5.45
-5.56
-4.81
-3.55
-2.16
-0.91
0.14
1.09
1.95
2.59
2.75
2.23
1.09
-0.40
-1.84
-2.99
-3.87
-4.74
-5.85
-7.28
-8.82
-10.11
-10.82
-10.88
-10.46
-9.86
-9.29
-8.78
-8.23
-7.52
-6.61
-5.56
-4.53
-3.71
-3.26
-3.32
-3.91
-4.90
-6.06
-7.10
-7.75
-7.90
-7.61
-7.06
-6.47
-5.96
-5.54
-5.15
-4.71
-4.22
-3.74
-3.37
-3.14
-3.04
-2.99
-2.86
-2.59
-2.20
-1.79
-1.51
-1.44
-1.55
-1.71
-1.75
-1.53
-1.05
-0.42
0.20
0.65
0.85
0.86
0.75
0.67
0.70
0.86
1.12
1.39
1.63
1.82
1.97
2.09
2.13
2.01
1.61
0.93
0.04
-0.85
-1.56
-1.99
-2.18
-2.26
-2.36
-2.54
-2.73
-2.85
-2.85
-2.76
-2.64
-2.58
-2.59
-2.65
-2.67
-2.59
-2.41
-2.15
-1.88
-1.68
-1.59
-1.62
-1.71
-1.76
-1.67
-1.38
-0.93
-0.41
0.04
0.29
0.31
0.13
-0.18
-0.49
-0.74
-0.86
-0.83
-0.66
-0.38
-0.04
0.29
0.53
0.62
0.56
0.39
0.17
0.01
-0.05
0.02
0.18
0.39
0.57
0.69
0.71
0.63
0.47
0.29
0.14
0.06
0.06
0.12
0.21
0.28
0.34
0.38
0.38
0.32
0.18
-0.03
-0.26
-0.44
-0.51
-0.48
-0.37
-0.23
-0.10
0.04
0.20
0.40
0.61
0.75
0.74
0.54
0.17
-0.26
-0.60
-0.71
-0.54
-0.13
0.39
0.85
1.17
1.27
1.18
0.94
0.61
0.25
-0.04
-0.20
-0.22
-0.13
-0.04
-0.08
-0.29
-0.61
-0.90
-1.04
-0.95
-0.67
-0.32
-0.01
0.20
0.32
0.40
0.43
0.38
0.20
-0.14
-0.58
-0.97
-1.15
-1.05
-0.70
-0.26
0.10
0.29
0.32
0.29
0.25
0.19
0.03
-0.28
-0.69
-1.06
-1.21
-1.05
-0.65
-0.19
0.15
0.29
0.28
0.24
0.23
0.22
0.11
-0.18
-0.61
-1.03
-1.22
-1.02
-0.43
0.41
1.28
1.95
2.30
2.31
2.06
1.66
1.21
0.76
0.37
0.05
-0.17
-0.28
-0.29
-0.24
-0.17
-0.13
-0.12
-0.12
-0.12
-0.11
-0.12
-0.13
-0.14
-0.09
0.04
0.21
0.33
0.29
0.04
-0.36
-0.71
-0.81
-0.54
0.05
0.77
1.38
1.70
1.72
1.52
1.25
1.05
0.96
0.98
1.11
1.35
1.66
1.96
2.11
1.99
1.53
0.80
-0.01
-0.67
-1.02
-1.01
-0.76
-0.41
-0.11
0.07
0.14
0.13
0.11
0.14
0.27
0.50
0.81
1.12
1.35
1.44
1.41
1.38
1.45
1.74
2.24
2.87
3.48
3.93
4.17
4.22
4.23
4.32
4.58
4.96
5.39
5.76
6.03
6.26
6.57
7.09
7.86
8.81
9.77
10.53
10.93
10.93
10.66
10.37
10.34
10.80
11.85
13.45
15.46
17.57
19.31
20.04
19.09
16.02
10.92
4.46
-2.28
-8.16
-12.42
-14.88
-15.88
-15.95
-15.52
-14.79
-13.75
-12.42
-11.00
-9.86
-9.39
-9.81
-11.00
-12.52
-13.80
-14.36
-14.04
-13.01
-11.72
-10.63
-9.99
-9.75
-9.61
-9.25
-8.44
-7.25
-5.93
-4.80
-4.07
-3.78
-3.75
-3.76
-3.61
-3.26
-2.80
-2.38
-2.12
-2.03
-2.01
-1.92
-1.67
-1.23
-0.67
-0.11
0.35
0.64
0.78
0.82
0.82
0.86
0.94
1.09
1.27
1.44
1.53
1.49
1.27
0.86
0.26
-0.44
-1.14
-1.71
-2.05
-2.11
-1.91
-1.58
-1.27
-1.13
-1.24
-1.56
-1.99
-2.36
-2.57
-2.59
-2.47
-2.25
-2.00
-1.75
-1.50
-1.31
-1.17
-1.08
-0.98
-0.80
-0.50
-0.09
0.36
0.77
1.05
1.16
1.10
0.86
0.46
-0.07
-0.66
-1.22
-1.64
-1.86
-1.88
-1.77
-1.65
-1.62
-1.76
-2.08
-2.56
-3.13
-3.70
-4.21
-4.61
-4.86
-4.95
-4.91
-4.79
-4.66
-4.58
-4.61
-4.77
-5.06
-5.47
-5.99
-6.51
-6.91
-7.00
-6.64
-5.81
-4.59
-3.19
-1.84
-0.71
0.16
0.79
1.31
1.84
2.48
3.29
4.24
5.22
6.07
6.63
6.79
6.55
6.01
5.34
4.70
4.17
3.77
3.46
3.26
3.20
3.31
3.58
3.90
4.16
4.24
4.16
4.04
4.03
4.19
4.46
4.67
4.63
4.26
3.69
3.12
2.72
2.54
2.49
2.40
2.15
1.75
1.31
0.98
0.79
0.75
0.75
0.73
0.67
0.58
0.51
0.44
0.35
0.17
-0.09
-0.43
-0.75
-1.01
-1.16
-1.22
-1.23
-1.27
-1.38
-1.53
-1.65
-1.63
-1.37
-0.85
-0.18
0.47
0.93
1.08
0.98
0.75
0.55
0.47
0.48
0.46
0.30
-0.00
-0.34
-0.56
-0.52
-0.19
0.35
0.96
1.49
1.82
1.88
1.68
1.26
0.72
0.22
-0.12
-0.21
-0.09
0.09
0.19
0.10
-0.13
-0.38
-0.51
-0.42
-0.18
0.09
0.26
0.30
0.26
0.23
0.28
0.36
0.38
0.25
-0.03
-0.39
-0.71
-0.87
-0.86
-0.72
-0.56
-0.44
-0.34
-0.21
0.02
0.38
0.78
1.10
1.21
1.09
0.77
0.37
-0.03
-0.38
-0.72
-1.07
-1.39
-1.62
-1.65
-1.46
-1.12
-0.78
-0.56
-0.53
-0.62
-0.72
-0.75
-0.67
-0.55
-0.46
-0.44
-0.45
-0.43
-0.31
-0.10
0.10
0.18
0.08
-0.18
-0.47
-0.65
-0.65
-0.49
-0.30
-0.17
-0.15
-0.24
-0.38
-0.51
-0.67
-0.87
-1.11
-1.34
-1.49
-1.49
-1.39
-1.30
-1.34
-1.59
-1.98
-2.36
-2.52
-2.37
-1.95
-1.40
-0.94
-0.71
-0.77
-1.07
-1.50
-1.93
-2.26
-2.38
-2.27
-1.89
-1.29
-0.52
0.36
1.25
2.10
2.85
3.44
3.82
3.96
3.86
3.59
3.24
2.92
2.70
2.56
2.44
2.28
2.04
1.75
1.46
1.21
1.03
0.88
0.74
0.59
0.47
0.42
0.45
0.49
0.48
0.36
0.11
-0.20
-0.48
-0.63
-0.60
-0.37
0.06
0.63
1.30
1.99
2.60
3.05
3.24
3.12
2.67
1.97
1.12
0.29
-0.36
-0.73
-0.82
-0.73
-0.62
-0.63
-0.80
-1.08
-1.32
-1.35
-1.11
-0.63
-0.05
0.44
0.67
0.58
0.20
-0.32
-0.81
-1.13
-1.22
-1.11
-0.90
-0.69
-0.54
-0.51
-0.59
-0.72
-0.85
-0.89
-0.78
-0.51
-0.13
0.23
0.50
0.60
0.57
0.49
0.45
0.46
0.52
0.59
0.66
0.75
0.86
0.97
1.01
0.94
0.72
0.43
0.18
0.05
0.09
0.25
0.44
0.56
0.58
0.50
0.36
0.17
-0.04
-0.26
-0.46
-0.60
-0.65
-0.59
-0.44
-0.27
-0.15
-0.15
-0.34
-0.68
-1.10
-1.48
-1.70
-1.71
-1.52
-1.19
-0.83
-0.54
-0.37
-0.35
-0.47
-0.71
-1.03
-1.35
-1.59
-1.66
-1.53
-1.26
-0.95
-0.72
-0.61
-0.58
-0.54
-0.43
-0.22
0.03
0.28
0.49
0.65
0.78
0.86
0.84
0.67
0.37
0.06
-0.11
-0.05
0.25
0.68
1.06
1.30
1.37
1.32
1.25
1.21
1.17
1.10
0.97
0.80
0.63
0.49
0.38
0.26
0.11
-0.06
-0.20
-0.25
-0.17
0.01
0.23
0.40
0.48
0.48
0.44
0.45
0.53
0.70
0.93
1.17
1.36
1.45
1.42
1.23
0.91
0.52
0.14
-0.15
-0.31
-0.33
-0.24
-0.06
0.14
0.29
0.30
0.10
-0.27
-0.70
-1.03
-1.16
-1.08
-0.86
-0.64
-0.49
-0.42
-0.35
-0.25
-0.11
-0.01
0.02
-0.01
-0.02
0.07
0.33
0.68
0.99
1.09
0.89
0.41
-0.22
-0.84
-1.26
-1.40
-1.31
-1.11
-0.94
-0.87
-0.92
-1.00
-1.00
-0.89
-0.67
-0.40
-0.17
-0.02
0.05
0.04
-0.00
-0.08
-0.18
-0.31
-0.44
-0.53
-0.50
-0.31
0.03
0.44
0.78
0.90
0.74
0.32
-0.22
-0.68
-0.90
-0.84
-0.55
-0.18
0.10
0.22
0.18
0.08
0.04
0.10
0.22
0.29
0.21
-0.02
-0.33
-0.58
-0.68
-0.61
-0.46
-0.32
-0.26
-0.27
-0.29
-0.25
-0.15
-0.01
0.09
0.10
0.04
-0.07
-0.18
-0.24
-0.24
-0.18
-0.07
0.08
0.30
0.56
0.82
1.01
1.05
0.88
0.52
0.03
-0.48
-0.93
-1.24
-1.36
-1.30
-1.09
-0.82
-0.56
-0.39
-0.33
-0.33
-0.33
-0.27
-0.10
0.14
0.38
0.53
0.58
0.55
0.50
0.49
0.55
0.68
0.83
0.98
1.10
1.16
1.17
1.14
1.08
1.04
0.99
0.93
0.83
0.66
0.45
0.21
-0.00
-0.18
-0.33
-0.49
-0.69
-0.90
-1.06
-1.07
-0.93
-0.66
-0.40
-0.24
-0.25
-0.38
-0.52
-0.54
-0.37
-0.02
0.40
0.74
0.89
0.78
0.46
0.06
-0.27
-0.41
-0.34
-0.12
0.09
0.15
0.03
-0.23
-0.50
-0.66
-0.66
-0.54
-0.38
-0.22
-0.08
0.08
0.27
0.47
0.58
0.53
0.31
0.02
-0.22
-0.31
-0.24
-0.08
0.05
0.04
-0.12
-0.40
-0.72
-0.97
-1.08
-0.99
-0.70
-0.29
0.16
0.50
0.66
0.63
0.47
0.29
0.16
0.08
0.01
-0.11
-0.30
-0.49
-0.61
-0.59
-0.44
-0.23
-0.08
-0.03
-0.09
-0.18
-0.20
-0.15
-0.03
0.08
0.09
0.00
-0.15
-0.29
-0.32
-0.16
0.18
0.63
1.05
1.31
1.31
1.08
0.74
0.45
0.31
0.34
0.47
0.58
0.60
0.56
0.51
0.49
0.51
0.52
0.47
0.37
0.27
0.25
0.30
0.36
0.30
0.04
-0.38
-0.85
-1.18
-1.24
-0.99
-0.52
0.02
0.46
0.70
0.72
0.55
0.28
-0.03
-0.31
-0.51
-0.63
-0.67
-0.65
-0.56
-0.39
-0.14
0.13
0.35
0.41
0.28
0.02
-0.24
-0.33
-0.20
0.13
0.49
0.73
0.69
0.36
-0.17
-0.75
-1.19
-1.39
-1.32
-1.07
-0.78
-0.60
-0.61
-0.80
-1.09
-1.37
-1.57
-1.70
-1.78
-1.85
-1.87
-1.82
-1.69
-1.50
-1.32
-1.24
-1.32
-1.54
-1.86
-2.17
-2.39
-2.44
-2.30
-1.99
-1.59
-1.16
-0.78
-0.47
-0.24
-0.07
0.05
0.12
0.16
0.23
0.43
0.85
1.52
2.35
3.17
3.77
4.01
3.86
3.42
2.88
2.41
2.11
1.97
1.91
1.84
1.72
1.56
1.39
1.24
1.09
0.94
0.78
0.63
0.55
0.56
0.62
0.68
0.65
0.48
0.17
-0.19
-0.47
-0.56
-0.42
-0.08
0.29
0.56
0.61
0.43
0.16
-0.05
-0.08
0.07
0.30
0.49
0.59
0.58
0.51
0.40
0.25
0.06
-0.16
-0.32
-0.35
-0.20
0.07
0.38
0.62
0.71
0.67
0.51
0.30
0.08
-0.10
-0.21
-0.21
-0.11
0.05
0.23
0.36
0.42
0.40
0.34
0.28
0.21
0.17
0.13
0.10
0.07
0.03
-0.06
-0.21
-0.44
-0.72
-0.98
-1.15
-1.18
-1.11
-0.99
-0.89
-0.88
-0.94
-1.05
-1.13
-1.14
-1.05
-0.89
-0.72
-0.57
-0.49
-0.46
-0.46
-0.45
-0.42
-0.38
-0.38
-0.43
-0.50
-0.52
-0.40
-0.10
0.34
0.80
1.15
1.30
1.23
0.99
0.65
0.32
0.08
-0.03
-0.01
0.12
0.29
0.45
0.55
0.56
0.49
0.38
0.28
0.23
0.27
0.38
0.52
0.66
0.76
0.82
0.83
0.78
0.65
0.43
0.12
-0.24
-0.57
-0.78
-0.86
-0.80
-0.67
-0.52
-0.40
-0.29
-0.19
-0.07
0.07
0.25
0.45
0.65
0.82
0.94
1.01
1.04
1.04
1.01
0.90
0.67
0.33
-0.07
-0.41
-0.61
-0.60
-0.46
-0.26
-0.14
-0.12
-0.17
-0.19
-0.09
0.15
0.50
0.87
1.18
1.35
1.42
1.43
1.44
1.50
1.61
1.73
1.81
1.84
1.87
1.95
2.14
2.47
2.98
3.68
4.55
5.51
6.38
6.99
7.24
7.16
7.05
7.27
8.16
9.78
11.88
13.99
15.59
16.43
16.59
16.55
16.94
18.26
20.65
23.80
27.00
29.50
30.85
31.08
30.78
30.81
31.96
34.64
38.84
44.10
49.48
53.50
54.22
49.72
38.91
22.26
2.10
-18.01
-34.48
-44.99
-49.15
-48.24
-44.26
-38.86
-32.92
-26.67
-20.25
-14.13
-9.06
-5.62
-3.83
-2.98
-1.94
0.36
4.50
10.24
16.58
22.05
25.17
24.99
21.41
15.33
8.33
2.04
-2.57
-5.52
-7.76
-10.53
-14.65
-20.00
-25.63
-30.26
-32.96
-33.67
-33.02
-31.95
-31.13
-30.65
-30.16
-29.13
-27.30
-24.82
-22.14
-19.78
-18.06
-16.98
-16.28
-15.61
-14.67
-13.42
-12.01
-10.72
-9.78
-9.24
-8.96
-8.73
-8.36
-7.81
-7.18
-6.63
-6.23
-5.98
-5.78
-5.49
-5.06
-4.52
-3.94
-3.44
-3.11
-2.96
-2.98
-3.08
-3.18
-3.21
-3.14
-2.97
-2.76
-2.56
-2.44
-2.42
-2.48
-2.61
-2.71
-2.70
-2.51
-2.18
-1.80
-1.56
-1.62
-2.00
-2.58
-3.06
-3.13
-2.60
-1.47
0.02
1.52
2.66
3.21
3.12
2.50
1.57
0.54
-0.44
-1.34
-2.18
-3.03
-3.92
-4.88
-5.84
-6.70
-7.36
-7.72
-7.80
-7.69
-7.60
-7.72
-8.21
-9.14
-10.49
-12.23
-14.32
-16.75
-19.52
-22.59
-25.83
-29.08
-32.15
-34.94
-37.46
-39.78
-41.98
-43.96
-45.45
-46.09
-45.68
-44.42
-42.96
-42.34
-43.62
-47.55
-54.33
-63.53
-74.35
-85.91
-97.48
-108.70
-119.50
-129.96
-140.20
-150.19
-159.82
-169.02
-177.81
-186.21
-193.96
-200.03
-202.64
-199.41
-188.18
-167.82
-138.63
-102.13
-60.31
-14.98
32.40
80.17
125.95
166.47
198.33
219.22
229.03
229.93
225.47
219.14
213.08
207.78
202.74
197.33
191.61
186.32
182.40
180.33
179.82
179.90
179.47
177.85
175.10
172.03
169.84
169.60
171.78
176.08
181.60
187.28
192.51
197.39
202.71
209.51
218.48
229.52
241.57
252.82
261.08
264.20
260.45
248.92
229.65
203.64
172.62
138.50
102.89
66.63
29.61
-9.04
-50.38
-94.84
-141.37
-187.21
-228.24
-260.13
-279.83
-286.61
-282.33
-270.58
-255.19
-238.97
-223.23
-208.04
-193.17
-178.70
-165.17
-153.10
-142.56
-132.92
-123.21
-112.63
-101.06
-89.09
-77.80
-68.14
-60.58
-54.83
-50.12
-45.54
-40.48
-34.80
-28.87
-23.25
-18.47
-14.77
-12.14
-10.32
-9.03
-8.09
-7.45
-7.20
-7.47
-8.29
-9.48
-10.73
-11.59
-11.73
-11.05
-9.74
-8.15
-6.62
-5.34
-4.26
-3.25
-2.22
-1.24
-0.49
-0.16
-0.32
-0.85
-1.53
-2.14
-2.57
-2.83
-3.00
-3.14
-3.25
-3.29
-3.22
-3.09
-2.98
-3.05
-3.35
-3.84
-4.38
-4.73
-4.69
-4.17
-3.24
-2.11
-1.04
-0.25
0.15
0.21
0.09
-0.02
0.02
0.25
0.60
0.91
1.05
0.91
0.54
0.05
-0.33
-0.41
-0.13
0.43
1.04
1.40
1.30
0.69
-0.20
-0.96
-1.09
-0.18
1.89
4.88
8.15
10.88
12.28
11.85
9.54
5.75
1.25
-3.10
-6.55
-8.70
-9.53
-9.41
-8.84
-8.31
-8.04
-7.90
-7.51
-6.43
-4.37
-1.42
1.94
5.03
7.16
7.90
7.21
5.46
3.30
1.43
0.34
0.21
0.89
2.03
3.28
4.38
5.23
5.78
6.02
5.90
5.37
4.46
3.30
2.10
1.08
0.34
-0.10
-0.36
-0.54
-0.70
-0.82
-0.83
-0.68
-0.39
-0.05
0.23
0.33
0.15
-0.30
-0.97
-1.72
-2.39
-2.80
-2.87
-2.60
-2.11
-1.52
-0.96
-0.50
-0.13
0.11
0.19
0.03
-0.40
-1.08
-1.84
-2.45
-2.72
-2.59
-2.17
-1.69
-1.37
-1.32
-1.44
-1.57
-1.51
-1.19
-0.69
-0.19
0.14
0.23
0.11
-0.06
-0.17
-0.14
-0.03
0.07
0.09
0.05
0.05
0.18
0.46
0.84
1.17
1.34
1.34
