1659461435.00
64.000000
-0.00
-0.00
-0.00
-0.00
-0.00
-0.00
-0.00
-0.00
-0.00
-0.00
0.00
0.01
0.01
-0.00
-0.03
-0.05
-0.05
0.00
0.13
0.36
0.66
1.01
1.37
1.72
2.06
2.40
2.79
3.24
3.80
4.42
5.06
5.66
6.20
6.68
7.15
7.68
8.31
9.14
10.09
11.04
11.88
12.56
13.14
13.76
14.65
15.96
17.91
20.32
22.90
25.38
27.58
29.57
31.68
34.32
37.81
42.54
48.15
54.11
59.84
64.97
69.58
74.14
79.34
85.71
93.78
103.04
112.67
121.76
129.73
136.61
143.02
150.32
157.23
166.03
177.32
191.17
206.35
219.90
227.49
224.48
207.53
175.79
131.66
78.98
22.03
-36.00
-93.62
-150.59
-206.99
-262.45
-316.04
-366.23
-412.12
-453.11
-488.78
-518.38
-540.55
-553.45
-555.09
-544.15
-520.24
-484.63
-439.68
-388.36
-333.62
-277.78
-222.36
-168.19
-115.83
-65.87
-19.36
22.39
58.14
87.09
109.25
125.43
136.97
145.24
151.28
155.45
157.59
157.34
154.35
148.44
139.66
128.41
115.72
103.47
94.28
90.80
94.59
105.21
120.02
135.03
146.39
151.79
150.99
145.32
136.71
126.64
115.84
104.57
93.11
82.06
72.21
64.31
58.29
53.55
49.19
44.43
38.98
33.13
27.54
22.93
19.72
17.83
16.71
15.64
14.04
11.70
8.82
5.89
3.38
1.57
0.44
-0.26
-0.80
-1.42
-2.17
-2.97
-3.67
-4.16
-4.39
-4.47
-4.55
-4.71
-4.89
-4.87
-4.43
-3.52
-2.35
-1.34
-0.95
-1.37
-2.42
-3.64
-4.52
-4.82
-4.60
-4.19
-3.94
-4.02
-4.33
-4.63
-4.70
-4.41
-3.80
-3.02
-2.23
-1.59
-1.16
-0.93
-0.84
-0.81
-0.79
-0.76
-0.76
-0.84
-1.01
-1.24
-1.44
-1.52
-1.45
-1.24
-0.96
-0.69
-0.49
-0.33
-0.15
0.12
0.53
1.08
1.75
2.52
3.34
4.15
4.93
5.63
6.25
6.81
7.34
7.85
8.29
8.58
8.60
8.24
7.47
6.26
4.70
2.80
0.73
-1.31
-3.10
-4.47
-5.44
-6.14
-6.78
-7.47
-8.22
-8.84
-9.12
-8.95
-8.42
-7.76
-7.27
-7.09
-7.21
-7.43
-7.51
-7.26
-6.68
-5.89
-5.12
-4.50
-4.10
-3.86
-3.67
-3.46
-3.21
-2.97
-2.80
-2.70
-2.65
-2.57
-2.42
-2.20
-1.95
-1.74
-1.60
-1.51
-1.45
-1.39
-1.33
-1.31
-1.38
-1.52
-1.66
-1.67
-1.45
-0.99
-0.34
0.37
1.00
1.42
1.61
1.58
1.40
1.19
1.00
0.88
0.78
0.62
0.28
-0.27
-1.02
-1.85
-2.65
-3.34
-3.89
-4.35
-4.73
-5.01
-5.10
-4.92
-4.45
-3.75
-2.91
-2.11
-1.48
-1.10
-0.95
-0.93
-0.92
-0.78
-0.47
-0.05
0.34
0.60
0.66
0.55
0.37
0.18
0.05
-0.03
-0.06
0.01
0.24
0.74
1.56
2.64
3.87
5.05
5.99
6.56
6.76
6.69
6.52
6.37
6.27
6.11
5.78
5.20
4.46
3.73
3.24
3.08
3.20
3.39
3.44
3.18
2.59
1.79
0.92
0.06
-0.76
-1.62
-2.60
-3.69
-4.80
-5.77
-6.46
-6.82
-6.92
-6.91
-6.99
-7.27
-7.74
-8.34
-8.92
-9.30
-9.33
-8.89
-7.95
-6.57
-4.91
-3.19
-1.61
-0.28
0.75
1.52
2.06
2.42
2.61
2.65
2.60
2.50
2.41
2.37
2.38
2.42
2.48
2.51
2.49
2.42
2.30
2.15
2.02
1.93
1.88
1.81
1.64
1.33
0.88
0.36
-0.14
-0.55
-0.85
-1.07
-1.25
-1.40
-1.54
-1.70
-1.95
-2.35
-2.87
-3.36
-3.61
-3.41
-2.68
-1.53
-0.21
1.01
1.97
2.63
3.08
3.42
3.73
3.99
4.20
4.34
4.42
4.44
4.34
4.08
3.66
3.16
2.71
2.36
2.13
1.91
1.62
1.22
0.79
0.47
0.33
0.33
0.31
0.14
-0.19
-0.57
-0.80
-0.79
-0.62
-0.54
-0.78
-1.42
-2.30
-3.13
-3.66
-3.83
-3.81
-3.82
-4.00
-4.31
-4.52
-4.37
-3.76
-2.77
-1.62
-0.55
0.33
1.05
1.68
2.26
2.72
2.95
2.85
2.46
1.92
1.47
1.27
1.38
1.67
1.93
1.94
1.59
0.94
0.20
-0.40
-0.69
-0.64
-0.37
-0.06
0.13
0.17
0.10
-0.00
-0.09
-0.19
-0.38
-0.71
-1.16
-1.68
-2.22
-2.79
-3.41
-4.09
-4.71
-5.07
-4.95
-4.22
-2.96
-1.42
0.13
1.42
2.34
2.91
3.19
3.27
3.20
3.00
2.71
2.43
2.22
2.13
2.13
2.18
2.22
2.20
2.14
2.09
2.10
2.18
2.28
2.34
2.27
2.03
1.60
1.03
0.42
-0.14
-0.59
-0.89
-1.05
-1.14
-1.23
-1.38
-1.61
-1.95
-2.41
-2.95
-3.50
-3.91
-3.96
-3.53
-2.60
-1.33
0.03
1.16
1.90
2.24
2.31
2.32
2.40
2.58
2.79
2.91
2.90
2.81
2.77
2.86
3.07
3.25
3.19
2.75
1.99
1.14
0.52
0.35
0.61
1.08
1.44
1.48
1.17
0.66
0.19
-0.12
-0.26
-0.33
-0.48
-0.78
-1.16
-1.54
-1.80
-1.92
-2.01
-2.18
-2.52
-2.96
-3.32
-3.36
-2.95
-2.11
-1.06
-0.04
0.73
1.22
1.51
1.73
2.01
2.35
2.70
2.94
2.98
2.79
2.43
1.99
1.57
1.24
0.99
0.78
0.54
0.26
-0.00
-0.17
-0.19
-0.09
0.03
0.02
-0.19
-0.61
-1.14
-1.65
-2.06
-2.35
-2.58
-2.83
-3.18
-3.64
-4.19
-4.75
-5.28
-5.75
-6.24
-6.84
-7.61
-8.51
-9.40
-10.03
-10.22
-9.95
-9.38
-8.81
-8.54
-8.69
-9.21
-9.89
-10.50
-10.92
-11.16
-11.31
-11.40
-11.36
-10.98
-10.07
-8.49
-6.30
-3.65
-0.76
2.16
5.00
7.68
10.18
12.43
14.31
15.69
16.46
16.60
16.19
15.41
14.49
13.62
12.90
12.33
11.79
11.18
10.41
9.49
8.48
7.45
6.44
5.49
4.63
3.94
3.51
3.39
3.56
3.91
4.29
4.55
4.61
4.46
4.17
3.86
3.62
3.49
3.43
3.35
3.15
2.76
2.22
1.60
1.01
0.49
-0.03
-0.61
-1.35
-2.20
-3.06
-3.80
-4.33
-4.63
-4.74
-4.63
-4.28
-3.64
-2.76
-1.77
-0.89
-0.32
-0.14
-0.32
-0.75
-1.29
-1.88
-2.53
-3.20
-3.80
-4.19
-4.31
-4.19
-4.05
-4.12
-4.54
-5.23
-5.97
-6.46
-6.52
-6.15
-5.46
-4.53
-3.32
-1.67
0.53
3.25
6.25
9.26
12.11
14.77
17.34
19.89
22.39
24.67
26.55
27.88
28.59
28.61
27.86
26.25
23.74
20.40
16.42
12.06
7.54
3.00
-1.52
-6.00
-10.42
-14.73
-18.87
-22.72
-26.09
-28.76
-30.50
-31.14
-30.70
-29.32
-27.26
-24.74
-21.89
-18.72
-15.20
-11.35
-7.25
-3.05
1.02
4.74
7.87
10.23
11.70
12.29
12.13
11.44
10.48
9.41
8.26
7.03
5.71
4.38
3.20
2.34
1.89
1.71
1.56
1.19
0.50
-0.32
-0.94
-1.06
-0.65
-0.02
0.34
0.01
-1.07
-2.59
-3.99
-4.84
-5.00
-4.72
-4.36
-4.18
-4.18
-4.13
-3.80
-3.10
-2.20
-1.40
-0.96
-0.95
-1.22
-1.49
-1.47
-0.99
-0.09
1.02
2.04
2.77
3.12
3.20
3.18
3.24
3.45
3.73
3.94
3.92
3.56
2.90
2.05
1.20
0.51
0.06
-0.17
-0.24
-0.24
-0.22
-0.19
-0.12
0.00
0.14
0.20
0.09
-0.24
-0.75
-1.35
-1.96
-2.50
-2.95
-3.29
-3.49
-3.48
-3.19
-2.61
-1.82
-0.98
-0.23
0.31
0.64
0.83
0.96
1.10
1.25
1.39
1.50
1.59
1.68
1.82
1.99
2.16
2.22
2.07
1.68
1.16
0.67
0.43
0.57
1.05
1.70
2.20
2.31
1.96
1.25
0.42
-0.33
-0.86
-1.18
-1.39
-1.56
-1.70
-1.78
-1.77
-1.71
-1.69
-1.81
-2.08
-2.43
-2.68
-2.65
-2.26
-1.55
-0.68
0.12
0.70
0.97
0.99
0.90
0.83
0.85
0.94
1.06
1.10
1.06
0.96
0.89
0.91
1.03
1.19
1.29
1.30
1.20
1.06
0.95
0.91
0.97
1.08
1.15
1.12
0.90
0.44
-0.25
-1.07
-1.86
-2.43
-2.68
-2.60
-2.31
-2.00
-1.84
-1.91
-2.21
-2.66
-3.14
-3.49
-3.56
-3.29
-2.68
-1.83
-0.93
-0.13
0.47
0.88
1.16
1.37
1.52
1.64
1.68
1.62
1.47
1.24
0.98
0.74
0.57
0.49
0.49
0.51
0.50
0.44
0.35
0.28
0.30
0.42
0.60
0.77
0.87
0.84
0.64
0.26
-0.29
-0.95
-1.63
-2.22
-2.63
-2.82
-2.85
-2.77
-2.68
-2.65
-2.74
-2.94
-3.19
-3.41
-3.46
-3.23
-2.65
-1.71
-0.52
0.79
2.02
3.05
3.83
4.39
4.83
5.22
5.50
5.57
5.40
5.02
4.61
4.32
4.28
4.51
5.03
5.71
6.44
7.18
7.87
8.50
9.01
9.41
9.81
10.41
11.27
12.37
13.68
15.18
16.87
18.70
20.72
23.08
26.06
29.36
32.55
35.43
38.11
40.86
43.86
47.16
50.94
55.68
61.02
66.76
73.35
81.66
92.27
104.69
117.32
128.09
135.20
135.78
128.02
112.53
92.09
70.36
50.13
32.52
17.00
1.97
-16.87
-43.42
-78.81
-121.14
-166.91
-212.64
-256.17
-296.32
-317.41
-307.03
-263.55
-198.42
-128.18
-64.71
-12.49
28.56
60.66
86.59
106.49
117.60
121.37
120.53
117.85
115.71
114.92
115.88
118.96
122.50
124.07
121.63
117.74
113.63
110.03
105.42
98.76
90.48
80.95
70.31
58.93
47.23
35.29
23.09
7.28
-13.66
-37.64
-60.76
-79.75
-93.13
-101.20
-105.84
-109.29
-118.82
-138.32
-165.79
-195.57
-222.88
-246.02
-265.94
-285.16
-306.35
-338.25
-384.93
-442.56
-501.79
-553.46
-591.52
-612.66
-615.60
-558.70
-430.74
-258.41
-87.44
50.45
147.21
208.98
245.90
266.89
278.23
277.16
262.98
240.64
218.56
202.98
195.52
194.43
196.70
200.65
199.32
189.65
174.42
159.88
151.05
149.40
153.40
159.76
164.66
161.58
147.17
123.10
94.82
68.10
46.74
32.20
24.25
20.36
17.25
13.08
8.12
3.93
1.78
1.70
2.80
4.00
4.56
3.87
2.05
-0.16
-1.92
-2.94
-3.55
-4.36
-5.76
-7.68
-9.55
-10.67
-10.57
-9.18
-6.83
-4.15
-1.74
-0.01
0.90
1.20
1.14
0.92
0.61
0.15
-0.54
-1.50
-2.64
-3.77
-4.64
-5.09
-5.09
-4.69
-3.99
-3.07
-2.02
-0.90
0.09
0.65
0.38
-1.04
-3.62
-6.96
-10.28
-12.72
-13.64
-12.96
-11.19
-9.20
-7.82
-7.50
-8.12
-9.20
-10.19
-10.77
-11.02
-11.15
-11.34
-11.47
-11.14
-9.93
-7.63
-4.51
-1.14
1.76
3.71
4.65
4.88
4.88
5.10
5.75
6.81
8.17
9.70
11.25
12.68
13.71
14.02
13.35
11.69
9.35
6.88
4.91
3.80
3.58
3.89
4.25
4.21
3.55
2.27
0.51
-1.47
-3.43
-5.11
-6.31
-6.95
-7.11
-7.10
-7.29
-8.00
-9.38
-11.31
-13.46
-15.40
-16.66
-16.84
-15.66
-13.06
-9.23
-4.65
0.03
4.23
7.66
10.43
12.92
15.51
18.32
21.11
23.39
24.68
24.77
23.77
22.06
20.04
17.98
16.03
14.25
12.72
11.54
10.78
10.39
10.18
9.87
9.26
8.31
7.15
6.01
5.03
4.25
3.63
3.12
2.71
2.42
2.16
1.71
0.79
-0.78
-2.84
-4.86
-6.15
-6.19
-4.94
-2.92
-1.00
-0.02
-0.41
-2.03
-4.23
-6.15
-7.04
-6.49
-4.54
-1.60
1.72
4.77
7.03
8.16
8.03
6.74
4.61
2.25
0.39
-0.23
0.82
3.48
7.12
10.77
13.48
14.72
14.61
13.80
13.15
13.33
14.45
16.08
17.44
17.78
16.70
14.31
11.08
7.71
4.76
2.57
1.16
0.32
-0.22
-0.74
-1.37
-2.18
-3.10
-4.11
-5.22
-6.49
-7.95
-9.52
-10.98
-11.95
-12.17
-11.59
-10.46
-9.20
-8.16
-7.38
-6.57
-5.29
-3.26
-0.56
2.34
4.87
6.59
7.47
7.77
7.89
8.08
8.34
8.46
8.18
7.37
6.08
4.51
2.90
1.40
0.02
-1.31
-2.70
-4.16
-5.51
-6.36
-6.16
-4.45
-1.11
3.44
8.36
12.66
15.63
17.14
17.60
17.72
17.98
18.44
18.70
18.25
16.83
14.63
12.16
9.96
8.25
6.88
5.43
3.54
1.06
-1.82
-4.69
-7.13
-8.90
-10.01
-10.69
-11.15
-11.56
-11.98
-12.41
-12.89
-13.49
-14.22
-14.94
-15.34
-14.97
-13.53
-10.96
-7.57
-3.85
-0.37
2.51
4.65
6.09
6.94
7.32
7.36
7.20
7.06
7.14
7.56
8.28
9.09
9.71
9.85
9.38
8.34
6.93
5.42
4.04
3.03
2.51
2.54
2.97
3.49
3.61
3.00
1.59
-0.18
-1.58
-1.89
-0.80
1.37
3.84
5.72
6.40
5.83
4.37
2.59
1.00
-0.14
-0.74
-0.84
-0.54
0.01
0.65
1.21
1.58
1.76
1.79
1.73
1.61
1.49
1.48
1.71
2.26
3.01
3.61
3.66
2.95
1.57
-0.05
-1.39
-2.11
-2.17
-1.78
-1.14
-0.32
0.82
2.41
4.42
6.51
8.22
9.10
8.94
7.77
5.89
3.69
1.59
-0.04
-0.98
-1.15
-0.66
0.26
1.37
2.50
3.66
4.95
6.43
7.92
9.05
9.36
8.63
7.04
5.19
3.82
3.54
4.50
6.38
8.56
10.41
11.52
11.72
11.05
9.55
7.33
4.53
1.43
-1.59
-4.18
-6.18
-7.70
-9.02
-10.48
-12.32
-14.56
-17.08
-19.65
-22.05
-24.06
-25.48
-26.14
-25.96
-24.98
-23.42
-21.55
-19.58
-17.52
-15.12
-12.00
-7.87
-2.81
2.62
7.51
10.93
12.33
11.85
10.29
8.79
8.32
9.32
11.56
14.34
16.88
18.61
19.27
18.89
17.68
15.94
13.98
12.13
10.63
9.59
9.01
8.82
8.97
9.36
9.86
10.26
10.28
9.78
8.86
7.93
7.52
7.95
9.15
10.64
11.75
12.01
11.28
9.86
8.21
6.74
5.66
4.91
4.27
3.50
2.43
1.06
-0.46
-1.84
-2.83
-3.27
-3.22
-2.85
-2.31
-1.65
-0.81
0.26
1.40
2.27
2.46
1.79
0.48
-0.84
-1.47
-0.93
0.73
2.97
4.95
5.94
5.53
3.72
0.77
-2.96
-7.16
-11.55
-15.92
-19.96
-23.39
-25.91
-27.32
-27.61
-26.95
-25.65
-23.97
-22.06
-19.84
-17.13
-13.81
-9.91
-5.73
-1.65
2.01
5.17
7.96
10.56
13.03
15.18
16.64
17.10
16.50
15.16
13.62
12.30
11.36
10.56
9.49
7.75
5.21
2.06
-1.37
-4.73
-7.79
-10.50
-12.91
-15.13
-17.28
-19.46
-21.72
-24.00
-26.12
-27.82
-28.86
-29.21
-28.98
-28.42
-27.70
-26.77
-25.38
-23.31
-20.55
-17.47
-14.73
-12.92
-12.28
-12.54
-13.05
-13.17
-12.52
-11.18
-9.50
-7.87
-6.48
-5.20
-3.77
-1.89
0.54
3.41
6.53
9.73
12.90
15.99
18.92
21.56
23.77
25.45
26.71
27.75
28.82
30.03
31.30
32.34
32.85
32.64
31.70
30.21
28.40
26.41
24.27
21.94
19.38
16.63
13.77
10.90
8.10
5.35
2.63
-0.11
-2.91
-5.75
-8.58
-11.34
-13.98
-16.44
-18.73
-20.90
-23.06
-25.34
-27.82
-30.38
-32.67
-34.22
-34.55
-33.47
-31.18
-28.20
-25.22
-22.75
-20.94
-19.57
-18.19
-16.35
-13.77
-10.48
-6.68
-2.71
1.12
4.59
7.62
10.19
12.34
14.09
15.44
16.41
17.08
17.63
18.29
19.21
20.37
21.53
22.34
22.49
21.93
20.90
19.80
19.07
18.89
19.19
19.65
19.82
19.29
17.74
15.05
11.25
6.63
1.62
-3.19
-7.23
-10.11
-11.74
-12.37
-12.48
-12.62
-13.21
-14.38
-16.03
-17.86
-19.54
-20.75
-21.26
-20.99
-20.04
-18.74
-17.56
-17.00
-17.21
-17.95
-18.57
-18.34
-16.80
-13.97
-10.32
-6.47
-2.87
0.33
3.27
6.08
8.72
10.98
12.69
13.80
14.54
15.22
16.10
17.22
18.45
19.49
20.05
19.88
18.90
17.22
15.15
13.18
11.80
11.35
11.83
12.91
14.05
14.73
14.62
13.70
12.17
10.31
8.40
6.64
5.15
3.98
3.07
2.26
1.28
-0.12
-2.12
-4.73
-7.82
-11.18
-14.58
-17.80
-20.68
-23.08
-24.96
-26.38
-27.48
-28.43
-29.26
-29.84
-29.88
-29.17
-27.71
-25.78
-23.83
-22.20
-20.96
-19.83
-18.38
-16.23
-13.28
-9.65
-5.58
-1.29
3.13
7.59
11.91
15.75
18.68
20.39
20.86
20.46
19.78
19.44
19.74
20.61
21.58
22.08
21.64
20.10
17.62
14.58
11.43
8.60
6.40
4.92
4.03
3.42
2.68
1.53
-0.04
-1.70
-2.94
-3.25
-2.40
-0.56
1.74
3.81
5.02
5.02
3.82
1.79
-0.56
-2.68
-4.23
-5.16
-5.71
-6.21
-7.00
-8.22
-9.86
-11.75
-13.66
-15.32
-16.46
-16.89
-16.60
-15.78
-14.84
-14.18
-14.01
-14.22
-14.38
-13.92
-12.40
-9.64
-5.79
-1.27
3.34
7.44
10.51
12.22
12.52
11.64
10.13
8.62
7.69
7.63
8.42
9.75
11.25
12.56
13.49
13.99
14.09
13.78
13.02
11.80
10.26
8.68
7.41
6.65
6.30
6.07
5.60
4.84
4.08
3.84
4.53
6.17
8.27
10.10
10.98
10.65
9.28
7.32
5.23
3.29
1.54
-0.15
-1.96
-4.08
-6.58
-9.38
-12.31
-15.07
-17.39
-19.06
-19.99
-20.23
-19.89
-19.12
-18.09
-16.97
-15.95
-15.13
-14.49
-13.88
-13.00
-11.55
-9.30
-6.24
-2.54
1.46
5.34
8.72
11.29
12.88
13.48
13.25
12.48
11.55
10.79
10.43
10.48
10.85
11.33
11.73
11.90
11.80
11.42
10.74
9.78
8.55
7.20
5.95
5.07
4.78
5.21
6.33
8.02
10.10
12.38
14.67
16.75
18.39
19.36
19.53
18.87
17.55
15.86
14.16
12.76
11.86
11.44
11.32
11.12
10.47
9.00
6.52
2.98
-1.50
-6.71
-12.36
-18.10
-23.58
-28.41
-32.21
-34.64
-35.50
-34.76
-32.68
-29.68
-26.23
-22.66
-19.00
-15.06
-10.51
-5.21
0.66
6.56
11.71
15.29
16.67
15.62
12.30
7.28
1.31
-4.77
-10.31
-14.87
-18.31
-20.67
-22.06
-22.59
-22.32
-21.29
-19.57
-17.24
-14.42
-11.18
-7.61
-3.81
0.09
3.94
7.56
10.80
13.56
15.81
17.59
18.96
19.95
20.52
20.54
19.90
18.53
16.58
14.33
12.13
10.28
8.89
7.82
6.82
5.59
3.92
1.74
-0.91
-3.89
-7.04
-10.19
-13.17
-15.84
-18.14
-20.10
-21.79
-23.27
-24.53
-25.46
-26.00
-26.20
-26.21
-26.21
-26.14
-25.74
-24.56
-22.27
-18.91
-14.99
-11.28
-8.54
-7.18
-7.08
-7.78
-8.67
-9.28
-9.36
-8.94
-8.13
-7.11
-5.94
-4.64
-3.14
-1.41
0.54
2.66
4.81
6.94
9.07
11.34
13.92
16.90
20.18
23.47
26.44
28.82
30.56
31.78
32.66
33.32
33.72
33.71
33.13
31.95
30.34
28.55
26.83
25.35
24.07
22.84
21.47
19.79
17.71
15.23
12.35
9.13
5.63
1.98
-1.66
-5.12
-8.24
-10.96
-13.29
-15.24
-16.82
-18.01
-18.79
-19.22
-19.41
-19.43
-19.20
-18.47
-16.94
-14.46
-11.24
-7.91
-5.28
-3.99
-4.29
-5.86
-8.11
-10.39
-12.26
-13.61
-14.51
-15.10
-15.43
-15.49
-15.26
-14.80
-14.33
-14.12
-14.41
-15.21
-16.27
-17.16
-17.45
-16.87
-15.41
-13.29
-10.80
-8.10
-5.22
-2.09
1.29
4.74
7.92
10.41
11.93
12.44
12.11
11.29
10.30
9.35
8.47
7.53
6.38
4.88
2.95
0.59
-2.14
-5.12
-8.21
-11.21
-13.92
-16.20
-17.92
-19.02
-19.42
-19.06
-17.93
-16.12
-13.95
-11.87
-10.37
-9.70
-9.71
-9.90
-9.55
-8.10
-5.36
-1.57
2.76
7.04
10.88
14.04
16.46
18.08
18.86
18.87
18.32
17.66
17.36
17.76
18.88
20.38
21.74
22.49
22.42
21.57
20.14
18.42
16.65
15.08
13.93
13.30
13.19
13.43
13.76
14.02
14.23
14.56
15.24
16.40
17.88
19.30
20.21
20.18
18.96
16.46
12.73
7.94
2.28
-3.96
-10.47
-16.88
-22.82
-27.92
-31.91
-34.64
-36.16
-36.68
-36.46
-35.73
-34.61
-33.19
-31.56
-29.90
-28.40
-27.13
-25.95
-24.51
-22.48
-19.68
-16.23
-12.45
-8.67
-5.07
-1.60
1.84
5.28
8.54
11.30
13.30
14.48
15.01
15.16
15.20
15.20
15.15
15.09
15.15
15.52
16.34
17.47
18.54
19.08
18.82
17.78
16.27
14.64
13.07
11.49
9.75
7.85
6.10
5.04
5.20
6.76
9.42
12.49
15.12
16.66
16.80
15.65
13.52
10.78
7.72
4.50
1.21
-2.11
-5.40
-8.65
-11.87
-15.10
-18.32
-21.39
-24.04
-25.87
-26.61
-26.17
-24.84
-23.15
-21.67
-20.74
-20.28
-19.89
-19.00
-17.23
-14.53
-11.18
-7.63
-4.28
-1.35
1.12
3.22
5.02
6.62
8.11
9.56
11.08
12.64
14.18
15.56
16.62
17.28
17.47
17.15
16.24
14.67
12.45
9.71
6.74
3.90
1.57
0.00
-0.70
-0.62
0.05
1.09
2.39
3.95
5.90
8.31
11.10
13.97
16.43
18.02
18.45
17.65
15.82
13.27
10.32
7.18
3.96
0.68
-2.70
-6.15
-9.58
-12.79
-15.57
-17.74
-19.24
-20.09
-20.41
-20.32
-19.95
-19.50
-19.18
-19.22
-19.69
-20.42
-20.98
-20.84
-19.58
-17.08
-13.57
-9.48
-5.26
-1.27
2.29
5.33
7.82
9.74
11.11
12.03
12.65
13.17
13.74
14.48
15.34
16.18
16.81
17.03
16.79
16.19
15.45
14.83
14.45
14.25
14.03
13.56
12.67
11.39
9.86
8.32
7.08
6.47
6.85
8.45
11.29
14.96
18.75
21.78
23.35
23.20
21.60
19.22
16.81
14.94
13.86
13.49
13.59
13.82
13.89
13.57
12.72
11.31
9.43
7.31
5.18
3.27
1.66
0.31
-0.92
-2.15
-3.46
-4.87
-6.30
-7.62
-8.53
-8.70
-7.80
-5.74
-2.87
0.02
1.90
1.83
-0.62
-5.20
-11.13
-17.35
-22.96
-27.38
-30.43
-32.18
-32.84
-32.61
-31.64
-30.02
-27.82
-25.12
-22.09
-18.96
-16.05
-13.63
-11.79
-10.46
-9.46
-8.64
-8.03
-7.84
-8.25
-9.24
-10.47
-11.43
-11.67
-11.07
-9.89
-8.64
-7.71
-7.22
-6.97
-6.62
-6.01
-5.26
-4.74
-4.88
-5.87
-7.58
-9.62
-11.56
-13.10
-14.22
-15.05
-15.80
-16.60
-17.45
-18.24
-18.77
-18.88
-18.48
-17.55
-16.21
-14.69
-13.20
-11.83
-10.49
-8.86
-6.64
-3.70
-0.29
2.98
5.41
6.50
6.21
4.95
3.35
1.98
1.13
0.77
0.71
0.81
1.09
1.73
2.92
4.74
7.06
9.62
12.14
14.42
16.41
18.16
19.80
21.43
23.14
25.00
27.04
29.24
31.45
33.45
34.94
35.71
35.68
34.95
33.73
32.24
30.61
28.88
27.07
25.18
23.24
21.20
18.91
16.11
12.57
8.23
3.23
-2.05
-7.16
-11.77
-15.75
-19.20
-22.31
-25.25
-28.04
-30.55
-32.61
-34.09
-35.00
-35.50
-35.86
-36.23
-36.55
-36.43
-35.29
-32.59
-28.17
-22.43
-16.21
-10.52
-6.17
-3.48
-2.27
-2.00
-2.10
-2.13
-1.90
-1.39
-0.66
0.21
1.15
2.07
2.87
3.48
3.90
4.26
4.78
5.71
7.21
9.29
11.72
14.16
16.23
17.74
18.68
19.23
19.60
19.89
20.08
20.00
19.46
18.40
16.89
15.16
13.47
12.04
10.94
10.10
9.36
8.55
7.57
6.41
5.12
3.70
2.05
0.04
-2.45
-5.35
-8.38
-11.18
-13.46
-15.08
-16.18
-16.97
-17.63
-18.23
-18.69
-18.86
-18.65
-17.94
-16.67
-14.71
-11.98
-8.51
-4.52
-0.44
3.17
5.80
7.14
7.18
6.20
4.63
3.00
1.75
1.18
1.42
2.38
3.82
5.43
6.92
8.08
8.84
9.25
9.46
9.70
10.15
10.98
12.21
13.74
15.39
16.91
18.10
18.88
19.34
19.66
20.05
20.65
21.46
22.36
23.09
23.27
22.57
20.70
17.58
13.41
8.59
3.60
-1.21
-5.69
-9.95
-14.19
-18.53
-22.89
-27.04
-30.68
-33.65
-35.92
-37.56
-38.59
-38.94
-38.48
-37.22
-35.37
-33.34
-31.53
-30.05
-28.63
-26.74
-23.87
-19.87
-15.03
-9.91
-5.07
-0.80
2.98
6.49
9.85
12.98
15.60
17.52
18.73
19.50
20.16
20.98
21.99
22.97
23.60
23.58
22.75
21.13
18.93
16.44
14.01
11.97
10.63
10.21
10.81
12.37
14.65
17.33
20.03
22.47
24.46
25.93
26.84
27.11
26.58
25.12
22.63
19.18
14.95
10.11
4.81
-0.90
-6.97
-13.28
-19.61
-25.70
-31.30
-36.27
-40.52
-44.05
-46.77
-48.60
-49.45
-49.34
-48.35
-46.59
-44.09
-40.78
-36.54
-31.34
-25.31
-18.86
-12.51
-6.77
-1.98
1.75
4.51
6.51
7.96
9.01
9.71
10.08
10.11
9.89
9.60
9.43
9.55
9.95
10.47
10.84
10.84
10.33
9.37
8.16
6.95
5.96
5.37
5.22
5.41
5.75
6.05
6.25
6.49
7.11
8.52
10.90
14.06
17.40
20.06
21.26
20.52
17.91
13.94
9.43
5.17
1.69
-0.85
-2.67
-4.13
-5.55
-7.01
-8.35
-9.36
-9.94
-10.15
-10.22
-10.37
-10.64
-10.90
-10.97
-10.69
-10.07
-9.25
-8.39
-7.58
-6.86
-6.18
-5.54
-4.95
-4.41
-3.90
-3.32
-2.49
-1.27
0.41
2.51
4.86
7.22
9.37
11.18
12.56
13.51
14.06
14.26
14.22
14.05
13.82
13.58
13.31
12.98
12.58
12.12
11.63
11.11
10.60
10.23
10.28
11.16
13.21
16.45
20.46
24.45
27.47
28.75
27.93
25.15
20.92
15.97
11.05
6.81
3.68
1.78
0.88
0.45
-0.13
-1.41
-3.66
-6.79
-10.43
-14.11
-17.42
-20.15
-22.38
-24.40
-26.61
-29.28
-32.39
-35.55
-38.06
-39.20
-38.45
-35.75
-31.42
-26.09
-20.50
-15.28
-10.85
-7.40
-4.84
-2.84
-0.96
1.21
3.84
6.82
9.75
12.15
13.63
14.08
13.68
12.81
11.91
11.29
11.13
11.40
12.01
12.82
13.67
14.44
15.08
15.62
16.19
16.93
17.92
19.06
20.05
20.51
20.13
18.84
16.88
14.66
12.59
10.86
9.42
8.03
6.46
4.55
2.23
-0.53
-3.78
-7.56
-11.83
-16.41
-20.93
-24.94
-28.00
-29.83
-30.40
-29.92
-28.81
-27.53
-26.46
-25.70
-25.02
-23.90
-21.79
-18.33
-13.64
-8.33
-3.33
0.45
2.40
2.51
1.27
-0.48
-1.85
-2.27
-1.59
-0.18
1.28
2.11
1.87
0.53
-1.61
-4.10
-6.54
-8.66
-10.27
-11.10
-10.89
-9.50
-7.13
-4.32
-1.79
-0.02
0.96
1.58
2.44
3.87
5.73
7.46
8.39
8.17
6.88
5.02
3.18
1.76
0.91
0.49
0.29
0.12
-0.08
-0.26
-0.31
-0.11
0.35
0.99
1.63
2.12
2.40
2.54
2.75
3.27
4.34
6.09
8.53
11.47
14.53
17.15
18.70
18.74
17.19
14.52
11.59
9.40
8.67
9.59
11.82
14.63
17.33
19.49
21.05
22.21
23.22
24.20
25.09
25.72
25.94
25.78
25.44
25.20
25.25
25.57
25.91
25.89
25.23
23.82
21.83
19.55
17.27
15.08
12.90
10.54
7.78
4.49
0.59
-3.95
-9.12
-14.80
-20.72
-26.41
-31.31
-34.93
-36.98
-37.46
-36.59
-34.72
-32.20
-29.32
-26.32
-23.43
-20.84
-18.72
-17.17
-16.22
-15.77
-15.68
-15.73
-15.80
-15.80
-15.75
-15.76
-15.95
-16.44
-17.27
-18.41
-19.74
-21.05
-22.13
-22.84
-23.19
-23.40
-23.80
-24.68
-26.11
-27.84
-29.40
-30.31
-30.33
-29.60
-28.44
-27.17
-25.84
-24.12
-21.47
-17.45
-12.02
-5.54
1.41
8.43
15.51
23.00
31.31
40.60
50.62
60.89
70.99
80.74
90.32
99.81
108.70
115.82
119.51
118.49
112.40
101.97
88.50
73.25
57.07
40.47
24.17
9.51
-1.68
-7.61
-7.42
-1.71
7.34
16.46
22.35
22.77
17.34
7.70
-2.92
-10.94
-13.99
-12.03
-7.50
-4.04
-4.63
-10.16
-19.16
-28.92
-37.16
-43.07
-47.39
-51.31
-55.28
-58.56
-59.66
-57.52
-52.33
-45.74
-40.18
-37.63
-38.76
-42.84
-48.23
-53.24
-56.73
-58.32
-58.23
-56.82
-54.33
-50.80
-46.20
-40.68
-34.58
-28.40
-22.58
-17.41
-12.93
-8.96
-5.13
-1.03
3.58
8.57
13.36
16.98
18.49
17.53
14.79
11.91
10.94
13.36
19.37
27.73
36.16
42.22
44.23
41.78
35.64
27.18
17.66
7.65
-2.81
-14.13
-26.68
-40.49
-55.21
-70.21
-84.92
-99.03
-112.35
-124.12
-133.39
-139.34
-141.61
-140.22
-135.25
-126.82
-115.19
-101.06
-84.90
-67.87
-51.92
-39.26
-31.20
-27.49
-26.46
-25.89
-23.67
-17.14
-4.73
13.12
33.97
54.51
72.05
85.28
94.55
101.78
111.59
128.47
154.57
188.53
226.09
261.55
289.28
304.93
296.12
257.05
193.09
120.03
54.72
7.10
-20.79
-31.96
-31.89
-26.81
-20.11
-14.02
-10.37
-10.61
-15.03
-22.47
-31.14
-39.71
-47.17
-51.84
-52.63
-49.59
-44.06
-37.92
-32.80
-29.64
-28.71
-29.55
-30.37
-29.38
-25.80
-20.30
-14.46
-9.95
-7.79
-8.17
-10.44
-13.06
-14.70
-14.78
-13.67
-12.25
-11.26
-11.01
-11.36
-11.89
-12.04
-11.55
-10.57
-9.52
-8.76
-8.44
-8.46
-8.58
-8.59
-8.34
-8.02
-8.08
-8.94
-10.58
-12.58
-14.31
-15.15
-14.72
-12.90
-10.24
-7.84
-6.67
-6.92
-8.01
-8.99
-8.93
-7.40
-4.29
-0.47
2.49
3.43
2.53
1.22
1.38
4.81
12.84
26.57
45.63
67.62
88.61
104.16
110.01
103.12
82.77
48.76
7.62
-29.57
-54.38
-66.00
-68.97
-68.24
-66.37
-63.12
-57.33
-48.21
-37.18
-27.52
-22.36
-22.74
-27.19
-32.75
-36.06
-35.22
-29.92
-22.16
-15.35
-12.55
-15.17
-22.91
-35.18
-49.12
-61.70
-69.17
-68.13
-56.54
-34.76
-5.77
26.12
53.50
72.07
81.29
84.11
84.48
84.83
84.86
82.19
74.22
59.92
41.28
21.94
5.67
-5.39
-11.27
-13.83
-15.37
-17.32
-19.79
-21.49
-21.35
-18.77
-14.55
-10.31
-7.66
-7.37
-9.05
-11.48
-12.88
-12.03
-8.74
-3.88
1.04
4.63
6.15
5.78
4.35
2.94
2.27
2.47
3.10
3.55
3.40
2.62
1.54
0.61
0.24
0.49
1.16
1.82
2.13
1.94
1.34
0.60
-0.04
-0.40
-0.47
-0.35
-0.15
-0.01
0.02
-0.08
-0.26
-0.50
-0.81
-1.20
-1.71
-2.33
-2.96
-3.44
-3.57
-3.19
-2.29
-1.00
0.40
1.64
2.51
2.99
3.16
3.16
3.13
3.13
3.14
3.08
2.84
2.34
1.59
0.63
-0.43
-1.50
-2.47
-3.25
-3.74
-3.87
-3.69
-3.30
-2.94
-2.83
-3.16
-3.90
-4.89
-5.82
-6.45
-6.63
