1660928590.00
64.000000
-0.00
-0.00
-0.00
-0.00
-0.00
-0.00
-0.00
-0.00
-0.00
-0.00
0.00
0.01
0.01
-0.00
-0.03
-0.05
-0.05
0.00
0.13
0.36
0.66
1.01
1.37
1.72
2.06
2.40
2.79
3.25
3.81
4.44
5.09
5.73
6.32
6.90
7.53
8.27
9.15
10.26
11.48
12.70
13.79
14.75
15.64
16.65
18.01
19.84
22.33
25.26
28.35
31.32
34.05
36.66
39.50
43.01
47.48
53.22
59.81
66.71
73.39
79.62
85.58
91.87
99.20
107.99
118.59
130.34
142.37
153.87
164.53
174.70
185.23
197.48
209.93
224.47
241.32
260.40
280.64
299.57
313.39
317.87
309.71
287.66
253.47
210.38
162.37
112.84
63.89
16.47
-29.01
-72.20
-112.71
-150.13
-185.11
-218.94
-253.29
-289.25
-326.39
-362.28
-392.79
-413.46
-420.92
-414.44
-396.20
-370.44
-341.74
-313.46
-287.04
-262.34
-238.70
-215.76
-193.96
-174.10
-156.68
-141.45
-127.55
-113.95
-100.00
-85.73
-71.74
-58.92
-47.91
-38.88
-31.44
-24.93
-18.70
-12.44
-6.20
-0.31
4.87
9.12
12.45
15.03
17.14
19.01
20.81
22.56
24.18
25.51
26.36
26.61
26.30
25.62
24.86
24.30
24.04
23.97
23.88
23.52
22.81
21.83
20.78
19.86
19.18
18.74
18.41
18.08
17.67
17.16
16.61
16.05
15.49
14.94
14.41
13.94
13.58
13.39
13.35
13.37
13.33
13.14
12.77
12.28
11.78
11.37
11.10
10.94
10.79
10.54
10.13
9.54
8.82
8.05
7.35
6.79
6.39
6.13
5.93
5.67
5.30
4.76
4.08
3.30
2.52
1.85
1.36
1.10
1.12
1.46
2.19
3.39
5.06
7.11
9.30
11.29
12.71
13.28
12.89
11.60
9.62
7.22
4.68
2.25
0.11
-1.64
-2.97
-3.91
-4.55
-4.98
-5.28
-5.48
-5.63
-5.76
-5.90
-6.10
-6.38
-6.71
-7.04
-7.32
-7.55
-7.76
-8.00
-8.26
-8.45
-8.42
-8.06
-7.36
-6.49
-5.67
-5.12
-4.90
-4.91
-4.92
-4.70
-4.08
-3.09
-1.86
-0.60
0.43
1.05
1.15
0.76
0.06
-0.71
-1.30
-1.56
-1.48
-1.14
-0.64
-0.07
0.56
1.23
1.93
2.59
3.13
3.49
3.65
3.65
3.58
3.54
3.59
3.75
4.01
4.31
4.54
4.63
4.54
4.27
3.92
3.61
3.43
3.41
3.52
3.68
3.78
3.76
3.61
3.35
3.05
2.77
2.57
2.50
2.58
2.79
3.05
3.25
3.29
3.13
2.81
2.41
2.04
1.77
1.64
1.67
1.82
2.07
2.36
2.65
2.91
3.12
3.31
3.46
3.56
3.57
3.45
3.22
2.93
2.68
2.58
2.64
2.84
3.09
3.32
3.46
3.51
3.48
3.38
3.19
2.92
2.57
2.20
1.88
1.72
1.72
1.83
1.92
1.86
1.60
1.19
0.75
0.44
0.33
0.42
0.62
0.85
1.02
1.11
1.10
0.99
0.80
0.56
0.33
0.16
0.09
0.16
0.36
0.65
1.01
1.37
1.67
1.84
1.80
1.55
1.14
0.71
0.40
0.28
0.33
0.44
0.54
0.56
0.55
0.56
0.63
0.72
0.77
0.71
0.56
0.36
0.21
0.15
0.22
0.36
0.57
0.79
1.00
1.16
1.22
1.19
1.11
1.05
1.04
1.09
1.17
1.22
1.20
1.12
1.02
0.94
0.91
0.93
0.93
0.90
0.83
0.76
0.71
0.72
0.72
0.69
0.57
0.36
0.13
-0.05
-0.10
-0.02
0.15
0.34
0.47
0.51
0.43
0.28
0.10
-0.05
-0.12
-0.07
0.09
0.31
0.51
0.61
0.61
0.54
0.48
0.48
0.52
0.55
0.48
0.26
-0.05
-0.37
-0.62
-0.76
-0.79
-0.78
-0.77
-0.78
-0.82
-0.88
-0.99
-1.16
-1.37
-1.62
-1.89
-2.20
-2.57
-3.00
-3.40
-3.66
-3.66
-3.42
-3.08
-2.87
-3.00
-3.48
-4.17
-4.79
-5.09
-4.98
-4.54
-4.06
-3.84
-4.09
-4.87
-6.03
-7.31
-8.44
-9.24
-9.67
-9.84
-9.91
-10.06
-10.41
-11.00
-11.75
-12.48
-12.75
-11.96
-9.44
-4.81
1.73
9.30
16.53
22.07
25.06
25.51
24.17
22.11
20.23
18.89
17.98
17.13
16.11
14.95
13.86
13.07
12.61
12.31
11.92
11.23
10.20
8.97
7.76
6.77
6.08
5.65
5.39
5.17
4.97
4.79
4.70
4.69
4.64
4.36
3.60
2.22
0.22
-2.21
-4.74
-7.02
-8.77
-9.86
-10.30
-10.19
-9.70
-8.97
-8.14
-7.30
-6.46
-5.61
-4.70
-3.65
-2.42
-1.06
0.35
1.66
2.72
3.43
3.77
3.82
3.71
3.54
3.37
3.19
2.98
2.73
2.46
2.21
1.97
1.74
1.50
1.22
0.91
0.56
0.18
-0.22
-0.62
-0.99
-1.27
-1.41
-1.39
-1.26
-1.10
-1.01
-1.03
-1.18
-1.44
-1.79
-2.20
-2.64
-3.06
-3.38
-3.51
-3.39
-3.02
-2.51
-1.97
-1.53
-1.27
-1.25
-1.48
-1.92
-2.50
-3.07
-3.47
-3.55
-3.25
-2.63
-1.85
-1.13
-0.62
-0.39
-0.37
-0.45
-0.50
-0.48
-0.42
-0.35
-0.33
-0.33
-0.31
-0.21
-0.03
0.21
0.45
0.67
0.88
1.13
1.43
1.75
2.00
2.08
1.89
1.44
0.80
0.09
-0.55
-1.06
-1.36
-1.45
-1.31
-0.94
-0.40
0.22
0.77
1.11
1.17
0.99
0.71
0.48
0.43
0.56
0.76
0.94
1.01
0.96
0.80
0.59
0.35
0.12
-0.08
-0.18
-0.15
0.01
0.25
0.49
0.72
0.99
1.36
1.89
2.56
3.24
3.80
4.14
4.22
4.10
3.86
3.59
3.34
3.10
2.83
2.48
2.01
1.37
0.56
-0.37
-1.35
-2.29
-3.09
-3.74
-4.22
-4.58
-4.82
-4.93
-4.86
-4.56
-4.04
-3.37
-2.69
-2.18
-1.98
-2.10
-2.43
-2.81
-3.05
-3.05
-2.83
-2.45
-2.03
-1.65
-1.33
-1.10
-0.94
-0.89
-0.95
-1.06
-1.09
-0.88
-0.35
0.46
1.35
2.04
2.33
2.14
1.62
0.99
0.48
0.19
0.13
0.25
0.50
0.85
1.27
1.68
1.94
1.88
1.44
0.70
-0.12
-0.76
-1.01
-0.85
-0.38
0.19
0.66
0.93
1.01
1.01
1.06
1.19
1.40
1.62
1.78
1.84
1.80
1.72
1.67
1.68
1.75
1.81
1.72
1.34
0.63
-0.32
-1.28
-1.93
-2.07
-1.66
-0.93
-0.23
0.10
-0.09
-0.69
-1.41
-1.96
-2.13
-1.98
-1.69
-1.54
-1.75
-2.41
-3.46
-4.74
-5.99
-6.93
-7.33
-7.07
-6.15
-4.78
-3.26
-1.86
-0.73
0.16
0.99
1.92
3.01
4.14
5.02
5.39
5.13
4.34
3.29
2.33
1.66
1.30
1.03
0.55
-0.42
-1.95
-3.92
-5.91
-7.31
-7.36
-5.45
-1.37
4.40
10.72
16.01
18.89
18.69
15.74
11.25
6.83
3.79
2.79
3.65
5.60
7.65
8.94
8.87
7.16
3.85
-0.82
-6.27
-11.65
-15.93
-18.09
-17.48
-14.08
-8.67
-2.59
2.60
5.74
6.35
4.81
2.05
-0.83
-2.98
-4.09
-4.29
-3.94
-3.42
-2.95
-2.57
-2.26
-2.05
-2.08
-2.50
-3.36
-4.48
-5.52
-6.12
-6.08
-5.43
-4.39
-3.16
-1.87
-0.48
1.06
2.76
4.45
5.84
6.67
6.73
6.03
4.77
3.24
1.79
0.66
-0.01
-0.24
-0.13
0.17
0.55
0.97
1.42
1.94
2.54
3.15
3.66
3.94
3.86
3.38
2.58
1.61
0.69
-0.00
-0.40
-0.53
-0.50
-0.42
-0.37
-0.38
-0.44
-0.52
-0.56
-0.49
-0.28
0.01
0.29
0.37
0.15
-0.34
-0.96
-1.51
-1.85
-2.00
-2.08
-2.25
-2.61
-3.13
-3.66
-4.04
-4.09
-3.67
-2.71
-1.25
0.55
2.40
3.92
4.78
4.76
3.88
2.35
0.50
-1.34
-2.91
-4.06
-4.69
-4.74
-4.24
-3.25
-1.97
-0.66
0.40
1.01
1.10
0.78
0.21
-0.39
-0.86
-1.12
-1.13
-0.92
-0.57
-0.12
0.36
0.82
1.21
1.53
1.78
2.01
2.26
2.60
3.09
3.72
4.44
5.12
5.56
5.60
5.16
4.28
3.10
1.83
0.63
-0.40
-1.23
-1.92
-2.50
-3.04
-3.56
-4.03
-4.32
-4.22
-3.50
-2.03
0.03
2.27
4.11
5.05
4.87
3.69
1.97
0.22
-1.19
-2.12
-2.64
-2.90
-3.03
-3.05
-2.98
-2.88
-2.83
-2.98
-3.38
-3.98
-4.60
-5.00
-5.05
-4.77
-4.33
-3.98
-3.85
-3.87
-3.73
-3.04
-1.56
0.64
3.17
5.45
6.98
7.52
7.19
6.34
5.32
4.37
3.54
2.79
2.14
1.68
1.54
1.80
2.35
2.94
3.27
3.14
2.55
1.63
0.63
-0.27
-0.94
-1.36
-1.56
-1.59
-1.46
-1.20
-0.86
-0.52
-0.27
-0.20
-0.30
-0.51
-0.67
-0.65
-0.38
0.09
0.60
1.02
1.26
1.35
1.31
1.19
0.96
0.59
0.09
-0.44
-0.89
-1.15
-1.19
-1.09
-0.93
-0.82
-0.79
-0.84
-0.95
-1.09
-1.20
-1.25
-1.22
-1.13
-1.03
-1.02
-1.16
-1.45
-1.83
-2.23
-2.58
-2.86
-3.09
-3.28
-3.41
-3.46
-3.40
-3.21
-2.85
-2.28
-1.42
-0.25
1.20
2.78
4.31
5.58
6.46
6.86
6.78
6.20
5.20
3.86
2.38
0.97
-0.16
-0.91
-1.26
-1.32
-1.21
-1.02
-0.83
-0.69
-0.65
-0.78
-1.07
-1.44
-1.70
-1.66
-1.19
-0.34
0.75
1.81
2.61
3.05
3.11
2.90
2.53
2.09
1.64
1.24
0.96
0.85
0.95
1.19
1.47
1.61
1.49
1.06
0.40
-0.37
-1.12
-1.72
-2.12
-2.30
-2.25
-2.02
-1.63
-1.19
-0.81
-0.60
-0.62
-0.87
-1.28
-1.72
-2.07
-2.28
-2.36
-2.38
-2.45
-2.61
-2.84
-3.08
-3.25
-3.33
-3.33
-3.27
-3.12
-2.80
-2.21
-1.28
-0.05
1.33
2.65
3.66
4.22
4.24
3.78
2.94
1.92
0.91
0.08
-0.46
-0.63
-0.46
0.01
0.71
1.48
2.15
2.55
2.58
2.25
1.67
1.03
0.53
0.28
0.31
0.57
0.94
1.29
1.50
1.51
1.34
1.08
0.93
1.03
1.41
1.96
2.47
2.69
2.51
1.95
1.14
0.29
-0.46
-1.02
-1.37
-1.56
-1.60
-1.55
-1.44
-1.30
-1.18
-1.11
-1.13
-1.20
-1.31
-1.41
-1.50
-1.57
-1.64
-1.74
-1.89
-2.09
-2.30
-2.44
-2.41
-2.19
-1.80
-1.37
-1.06
-0.99
-1.21
-1.64
-2.10
-2.42
-2.43
-2.06
-1.32
-0.31
0.79
1.79
2.50
2.81
2.74
2.41
2.04
1.86
1.99
2.45
3.05
3.52
3.60
3.14
2.17
0.89
-0.44
-1.56
-2.30
-2.57
-2.38
-1.80
-0.95
-0.00
0.86
1.48
1.80
1.85
1.74
1.62
1.61
1.75
2.02
2.32
2.51
2.47
2.10
1.40
0.49
-0.41
-1.08
-1.33
-1.12
-0.56
0.13
0.75
1.15
1.26
1.14
0.91
0.68
0.55
0.53
0.54
0.45
0.13
-0.47
-1.27
-2.09
-2.71
-2.99
-2.94
-2.69
-2.41
-2.23
-2.13
-2.00
-1.70
-1.20
-0.55
0.10
0.59
0.87
0.95
0.90
0.81
0.70
0.54
0.30
-0.06
-0.51
-0.97
-1.34
-1.55
-1.55
-1.35
-0.99
-0.54
-0.09
0.29
0.52
0.58
0.52
0.43
0.43
0.56
0.80
1.06
1.24
1.27
1.18
1.04
0.96
0.98
1.09
1.19
1.16
0.93
0.54
0.16
-0.03
0.09
0.49
0.95
1.25
1.22
0.86
0.30
-0.29
-0.85
-1.44
-2.15
-3.01
-3.90
-4.60
-4.89
-4.70
-4.11
-3.28
-2.40
-1.57
-0.81
-0.07
0.66
1.35
1.93
2.31
2.44
2.27
1.84
1.26
0.64
0.06
-0.46
-0.96
-1.44
-1.84
-2.02
-1.82
-1.20
-0.29
0.64
1.29
1.51
1.35
1.05
0.85
0.88
1.06
1.19
1.14
0.90
0.59
0.37
0.33
0.36
0.31
0.03
-0.47
-1.09
-1.62
-1.93
-1.99
-1.89
-1.74
-1.65
-1.62
-1.58
-1.45
-1.16
-0.74
-0.29
0.09
0.27
0.25
0.06
-0.22
-0.51
-0.80
-1.13
-1.55
-2.04
-2.56
-2.99
-3.28
-3.40
-3.44
-3.47
-3.51
-3.58
-3.66
-3.74
-3.86
-4.00
-4.11
-4.13
-3.98
-3.70
-3.41
-3.27
-3.37
-3.67
-4.01
-4.18
-4.06
-3.61
-2.94
-2.18
-1.45
-0.80
-0.20
0.38
0.99
1.65
2.35
3.06
3.73
4.30
4.74
5.06
5.31
5.49
5.60
5.57
5.37
4.99
4.50
4.04
3.70
3.52
3.45
3.38
3.24
3.02
2.81
2.70
2.80
3.09
3.47
3.80
3.96
3.92
3.70
3.39
3.06
2.72
2.35
1.91
1.39
0.86
0.44
0.31
0.59
1.26
2.17
3.00
3.40
3.11
2.11
0.67
-0.75
-1.66
-1.79
-1.17
-0.17
0.74
1.18
1.04
0.51
-0.07
-0.34
-0.15
0.40
1.04
1.48
1.55
1.26
0.74
0.10
-0.57
-1.13
-1.26
-0.52
1.43
4.53
8.12
11.16
12.65
12.16
10.03
7.20
4.70
3.11
2.36
1.94
1.33
0.33
-0.83
-1.73
-2.10
-1.96
-1.66
-1.62
-2.12
-3.17
-4.51
-5.73
-6.48
-6.65
-6.36
-5.92
-5.68
-5.80
-6.21
-6.63
-6.66
-6.02
-4.62
-2.59
-0.22
2.12
4.15
5.64
6.51
6.73
6.38
5.56
4.41
3.07
1.68
0.41
-0.60
-1.23
-1.43
-1.27
-0.89
-0.47
-0.16
-0.01
0.02
0.02
0.04
0.11
0.17
0.19
0.13
0.02
-0.15
-0.38
-0.70
-1.12
-1.61
-2.08
-2.44
-2.61
-2.62
-2.55
-2.51
-2.53
-2.63
-2.76
-2.91
-3.08
-3.28
-3.48
-3.59
-3.53
-3.26
-2.82
-2.34
-1.95
-1.71
-1.60
-1.53
-1.39
-1.12
-0.74
-0.29
0.16
0.53
0.77
0.84
0.75
0.55
0.31
0.11
-0.05
-0.15
-0.24
-0.32
-0.38
-0.39
-0.32
-0.18
-0.02
0.07
0.04
-0.16
-0.53
-1.02
-1.55
-2.03
-2.39
-2.57
-2.59
-2.47
-2.26
-2.02
-1.83
-1.72
-1.69
-1.68
-1.59
-1.31
-0.80
-0.14
0.54
1.01
1.16
0.99
0.68
0.41
0.31
0.32
0.26
-0.11
-0.94
-2.18
-3.57
-4.76
-5.51
-5.71
-5.54
-5.29
-5.27
-5.63
-6.28
-6.99
-7.49
-7.64
-7.53
-7.37
-7.45
-7.95
-8.92
-10.32
-12.05
-13.99
-15.97
-17.70
-18.84
-19.10
-18.50
-17.45
-16.77
-17.38
-19.87
-24.31
-30.08
-36.25
-41.92
-46.66
-50.57
-54.20
-58.19
-62.97
-68.64
-74.93
-81.52
-88.13
-94.76
-101.62
-108.98
-116.96
-125.39
-133.94
-142.31
-150.55
-158.95
-167.60
-175.74
-181.36
-181.44
-172.84
-153.42
-122.75
-82.05
-33.66
19.68
74.98
128.87
177.50
217.03
244.73
260.07
265.14
263.91
260.62
258.26
257.80
258.69
259.84
260.69
261.50
263.03
265.90
270.27
275.87
282.26
288.87
294.67
297.95
296.26
287.02
268.35
239.88
202.84
159.41
111.66
60.85
7.66
-46.81
-99.99
-147.70
-185.15
-208.82
-218.04
-215.36
-205.42
-193.00
-181.22
-171.00
-161.55
-151.76
-141.28
-130.83
-121.58
-114.35
-108.93
-104.20
-98.78
-91.75
-83.09
-73.69
-64.83
-57.60
-52.38
-48.79
-45.94
-42.93
-39.23
-34.88
-30.36
-26.33
-23.21
-21.09
-19.67
-18.49
-17.13
-15.37
-13.22
-10.88
-8.63
-6.70
-5.21
-4.15
-3.36
-2.67
-1.94
-1.14
-0.36
0.31
0.81
1.25
1.78
2.54
3.50
4.49
5.23
5.54
5.38
4.90
4.34
3.88
3.60
3.45
3.33
3.16
2.91
2.60
2.32
2.10
1.98
1.92
1.86
1.74
1.54
1.23
0.81
0.25
-0.44
-1.21
-1.93
-2.42
-2.55
-2.34
-1.96
-1.73
-1.95
-2.79
-4.17
-5.80
-7.30
-8.30
-8.59
-8.16
-7.16
-5.85
-4.51
-3.38
-2.59
-2.17
-2.05
-2.14
-2.27
-2.35
-2.28
-2.03
-1.61
-1.06
-0.43
0.20
0.78
1.24
1.55
1.71
1.75
1.74
1.74
1.80
1.95
2.16
2.40
2.61
2.76
2.82
2.79
2.68
2.53
2.38
2.23
2.05
1.79
1.42
0.98
0.53
0.14
-0.14
-0.36
-0.56
-0.81
-1.07
-1.28
-1.35
-1.27
-1.08
-0.90
-0.82
-0.88
-1.06
-1.27
-1.45
-1.65
-1.93
-2.39
-3.04
-3.76
-4.33
-4.55
-4.31
-3.66
-2.82
-2.02
-1.44
-1.11
-0.93
-0.70
-0.26
0.45
1.39
2.36
3.14
3.54
3.47
2.96
2.16
1.24
0.36
-0.37
-0.91
-1.25
-1.38
-1.29
-0.98
-0.49
0.10
0.65
1.03
1.14
0.98
0.61
0.16
-0.24
-0.51
-0.63
-0.61
-0.54
-0.49
-0.49
-0.56
-0.66
-0.72
-0.67
-0.48
-0.18
0.13
0.37
0.48
0.53
0.68
1.08
1.79
2.67
3.46
3.90
3.85
3.35
2.59
1.79
1.14
0.71
0.53
0.57
0.77
1.05
1.30
1.40
1.27
0.93
0.49
0.09
-0.19
-0.37
-0.55
-0.87
-1.41
-2.13
-2.93
-3.69
-4.30
-4.71
-4.92
-5.00
-5.02
-5.08
-5.22
-5.43
-5.60
-5.59
-5.26
-4.58
-3.63
-2.65
-1.96
-1.83
-2.45
-3.82
-5.75
-8.00
-10.28
-12.38
-14.21
-15.73
-16.93
-17.83
-18.48
-19.01
-19.66
-20.68
-22.28
-24.52
-27.28
-30.32
-33.43
-36.52
-39.64
-42.89
-46.32
-49.92
-53.65
-57.59
-61.97
-67.02
-72.77
-78.82
-84.42
-88.85
-91.78
-93.52
-94.82
-96.44
-98.84
-102.16
-106.63
-112.61
-120.30
-129.02
-136.48
-138.94
-132.18
-113.02
-80.45
-35.88
17.50
75.67
134.40
189.44
236.70
272.74
295.62
305.75
305.89
300.17
292.71
286.37
282.38
280.85
281.43
283.64
286.63
288.72
287.23
278.99
261.34
232.97
194.16
146.60
92.89
36.22
-19.72
-70.79
-112.96
-143.22
-160.54
-166.30
-163.82
-157.07
-149.24
-141.98
-135.42
-128.96
-122.18
-115.18
-108.41
-102.23
-96.53
-90.86
-84.75
-78.07
-71.11
-64.48
-58.71
-54.05
-50.35
-47.18
-44.02
-40.47
-36.40
-31.94
-27.40
-23.19
-19.59
-16.71
-14.43
-12.48
-10.55
-8.46
-6.22
-4.06
-2.27
-1.05
-0.43
-0.28
-0.35
-0.44
-0.43
-0.33
-0.23
-0.23
-0.41
-0.75
-1.21
-1.72
-2.23
-2.69
-3.12
-3.52
-3.90
-4.26
-4.57
-4.80
-4.97
-5.08
-5.19
-5.33
-5.49
-5.66
-5.85
-6.09
-6.38
-6.70
-6.97
-7.04
-6.81
-6.27
-5.55
-4.87
-4.41
-4.23
-4.24
-4.20
-3.84
-2.99
-1.58
0.26
2.29
4.22
5.76
6.73
7.01
6.63
5.72
4.49
3.18
2.01
1.13
0.61
0.43
0.49
0.70
0.98
1.25
1.49
1.64
1.63
1.41
1.02
0.56
0.20
0.04
0.10
0.27
0.41
0.42
0.32
0.23
0.27
0.45
0.72
0.92
0.95
0.78
0.50
0.24
0.07
-0.02
-0.11
-0.28
-0.48
-0.60
-0.50
-0.14
0.39
0.85
1.02
0.80
0.29
-0.30
-0.74
-0.91
-0.90
-0.88
-1.03
-1.35
-1.70
-1.86
-1.72
-1.28
-0.76
-0.41
-0.41
-0.79
-1.44
-2.18
-2.81
-3.25
-3.47
-3.50
-3.33
-2.97
-2.40
-1.61
-0.64
0.43
1.48
2.35
2.94
3.19
3.15
2.94
2.68
2.45
2.23
1.99
1.69
1.35
1.03
0.80
0.68
0.59
0.47
0.30
0.12
0.02
0.06
0.21
0.38
0.42
0.22
-0.21
-0.81
-1.45
-2.03
-2.47
-2.72
-2.77
-2.62
-2.32
-1.98
-1.70
-1.54
-1.53
-1.60
-1.64
-1.61
-1.49
-1.31
-1.14
-0.98
-0.79
-0.47
0.02
0.65
1.29
1.76
1.93
1.77
1.38
0.94
0.60
0.43
0.43
0.51
0.54
0.47
0.26
-0.06
-0.45
-0.82
-1.10
-1.25
-1.26
-1.13
-0.96
-0.84
-0.86
-1.06
-1.39
-1.73
-1.96
-1.97
-1.79
-1.53
-1.32
-1.24
-1.25
-1.17
-0.81
-0.06
1.04
2.26
3.33
4.04
4.28
4.07
3.39
2.26
0.72
-1.00
-2.53
-3.44
-3.53
-2.95
-2.20
-1.80
-2.01
-2.54
-2.76
-2.07
-0.25
2.30
4.85
6.68
7.45
7.28
6.57
5.73
4.99
4.39
3.90
3.50
3.24
3.11
3.01
2.73
2.07
0.96
-0.44
-1.83
-2.80
-3.04
-2.45
-1.20
0.29
1.48
1.88
1.14
-0.70
-3.25
-5.78
-7.49
-7.74
-6.42
-4.00
-1.38
0.48
1.00
0.24
-1.20
-2.55
-3.30
-3.42
-3.30
-3.38
-3.82
-4.52
-5.27
-6.10
-7.31
-9.33
-12.32
-15.89
-19.20
-21.41
-22.06
-21.26
-19.33
-16.42
-12.33
-6.78
0.04
7.25
13.39
17.11
17.84
16.08
13.06
10.01
7.56
5.58
3.54
1.05
-1.76
-4.33
-6.06
-6.73
-6.54
-5.98
-5.54
-5.50
-5.92
-6.74
-7.96
-9.67
-12.02
-15.05
-18.71
-22.88
-27.41
-32.16
-36.96
-41.54
-45.54
-48.74
-51.24
-53.65
-56.89
-61.79
-68.59
-76.70
-84.90
-91.89
-97.01
-100.59
-103.78
-108.08
-114.78
-124.67
-137.83
-153.58
-170.19
-184.85
-193.87
-193.55
-181.38
-156.92
-121.95
-79.53
-32.49
17.65
70.65
126.48
183.76
239.03
287.53
324.89
349.13
361.45
365.51
365.66
365.14
365.28
365.68
365.15
362.44
356.51
346.29
330.43
307.54
276.68
237.85
191.99
140.53
85.03
27.26
-30.33
-84.26
-130.24
-164.40
-184.68
-191.82
-189.08
-180.88
-171.07
-161.78
-153.30
-144.89
-135.97
-126.77
-118.17
-111.06
-105.66
-101.33
-96.92
-91.46
-84.63
-76.89
-69.27
-62.72
-57.76
-54.19
-51.30
-48.24
-44.35
-39.49
-34.05
-28.69
-24.06
-20.54
-18.10
-16.38
-14.87
-13.18
-11.13
-8.84
-6.57
-4.64
-3.24
-2.35
-1.82
-1.44
-1.02
-0.51
0.01
0.39
0.50
0.30
-0.14
-0.67
-1.12
-1.39
-1.46
-1.36
-1.17
-0.96
-0.78
-0.60
-0.41
-0.17
0.14
0.50
0.85
1.13
1.33
1.46
1.59
1.78
2.04
2.31
2.48
2.45
2.21
1.84
1.48
1.22
1.09
1.03
0.95
0.80
0.60
0.39
0.21
0.07
-0.09
-0.31
-0.65
-1.09
-1.58
-2.09
-2.56
-2.95
-3.24
-3.41
-3.47
-3.42
-3.28
-3.08
-2.86
-2.63
-2.44
-2.31
-2.25
-2.25
-2.28
-2.33
-2.37
-2.39
-2.37
-2.31
-2.21
-2.06
-1.88
-1.68
-1.47
-1.29
-1.14
-1.05
-1.03
-1.07
-1.15
-1.20
-1.17
-1.04
-0.85
-0.65
-0.51
-0.44
-0.38
-0.26
-0.06
0.23
0.53
0.79
0.97
1.08
1.18
1.31
1.51
1.76
1.97
2.07
1.95
1.60
1.08
0.54
0.17
0.08
0.27
0.66
1.08
1.43
1.68
1.86
2.02
2.17
2.29
2.36
2.38
2.36
2.31
2.22
2.06
1.82
1.54
1.29
1.11
0.98
0.83
0.56
0.14
-0.40
-0.95
-1.42
-1.75
-1.95
-2.08
-2.20
-2.34
-2.45
-2.43
-2.18
-1.66
-0.94
-0.23
0.20
0.18
-0.29
-1.02
-1.69
-2.04
-1.98
-1.61
-1.14
-0.76
-0.56
-0.50
-0.50
-0.48
-0.42
-0.36
-0.26
-0.08
0.23
0.70
1.30
1.94
2.56
3.09
3.45
3.59
3.41
2.87
2.01
0.96
-0.06
-0.90
-1.49
-1.89
-2.20
-2.46
-2.64
-2.63
-2.38
-1.94
-1.43
-0.99
-0.72
-0.59
-0.55
-0.53
-0.49
-0.44
-0.34
-0.15
0.16
0.58
1.01
1.32
1.42
1.26
0.91
0.46
0.04
-0.27
-0.40
-0.33
-0.06
0.37
0.88
1.38
1.78
2.02
2.08
1.93
1.55
0.99
0.31
-0.39
-0.98
-1.39
-1.61
-1.71
-1.77
-1.86
-2.00
-2.17
-2.33
-2.45
-2.52
-2.52
-2.46
-2.35
-2.16
-1.91
-1.62
-1.30
-1.01
-0.78
-0.64
-0.57
-0.51
-0.41
-0.24
-0.01
0.28
0.58
0.89
1.20
1.53
1.90
2.30
2.74
3.23
3.78
4.36
4.81
4.97
4.65
3.75
2.34
0.65
-1.01
-2.32
-3.05
-3.14
-2.67
-1.84
-0.89
-0.01
0.64
0.99
1.01
0.76
0.36
-0.07
-0.36
-0.41
-0.16
0.32
0.88
1.35
1.56
1.50
1.24
0.92
0.67
0.57
