1660939865.00
64.000000
-0.00
-0.00
-0.00
-0.00
-0.00
-0.00
-0.00
-0.00
-0.00
-0.00
0.00
0.01
0.01
-0.00
-0.03
-0.05
-0.05
0.00
0.13
0.36
0.66
1.01
1.37
1.72
2.06
2.40
2.79
3.25
3.81
4.44
5.10
5.73
6.32
6.89
7.51
8.25
9.15
10.29
11.57
12.85
14.00
14.98
15.87
16.87
18.21
20.05
22.58
25.57
28.73
31.76
34.50
37.09
39.90
43.40
47.89
53.72
60.46
67.53
74.34
80.61
86.53
92.74
100.02
108.89
119.75
131.90
144.37
156.22
167.04
177.14
187.49
199.63
212.23
227.27
244.93
264.91
285.88
305.15
318.90
323.07
314.69
292.84
259.43
217.59
171.00
122.63
74.31
26.93
-18.89
-62.42
-102.93
-139.83
-173.65
-205.67
-237.66
-271.16
-306.66
-342.92
-376.82
-404.06
-420.33
-423.00
-412.22
-390.87
-363.44
-334.29
-306.24
-280.18
-255.69
-232.05
-209.25
-187.96
-168.99
-152.60
-138.22
-124.69
-110.93
-96.51
-81.75
-67.64
-55.24
-45.11
-37.15
-30.66
-24.71
-18.57
-11.95
-5.11
1.41
7.00
11.29
14.26
16.24
17.70
19.07
20.62
22.36
24.07
25.47
26.35
26.67
26.56
26.25
25.95
25.77
25.70
25.63
25.43
25.01
24.37
23.56
22.68
21.82
21.05
20.38
19.76
19.14
18.47
17.76
17.05
16.40
15.82
15.32
14.89
14.53
14.25
14.06
13.92
13.78
13.56
13.26
12.89
12.50
12.13
11.79
11.48
11.20
10.98
10.81
10.67
10.51
10.27
9.95
9.54
9.11
8.67
8.25
7.83
7.42
7.08
6.83
6.70
6.63
6.55
6.38
6.11
5.77
5.39
4.97
4.49
3.93
3.32
2.72
2.20
1.75
1.32
0.79
0.11
-0.70
-1.48
-2.07
-2.33
-2.27
-2.03
-1.78
-1.65
-1.73
-2.02
-2.50
-3.17
-4.02
-5.02
-6.09
-7.07
-7.80
-8.15
-8.15
-7.94
-7.74
-7.72
-7.91
-8.20
-8.42
-8.43
-8.21
-7.86
-7.52
-7.28
-7.12
-6.94
-6.62
-6.11
-5.46
-4.78
-4.18
-3.72
-3.39
-3.15
-2.92
-2.64
-2.27
-1.73
-1.00
-0.03
1.12
2.36
3.51
4.38
4.83
4.84
4.51
4.00
3.53
3.20
3.07
3.07
3.14
3.22
3.28
3.36
3.49
3.71
4.00
4.33
4.63
4.83
4.93
4.90
4.83
4.75
4.72
4.74
4.77
4.81
4.86
4.97
5.14
5.32
5.38
5.18
4.67
3.89
2.99
2.10
1.27
0.48
-0.34
-1.18
-1.92
-2.37
-2.42
-2.09
-1.60
-1.20
-1.00
-0.98
-0.97
-0.81
-0.44
0.13
0.92
2.09
3.82
6.18
8.96
11.64
13.58
14.29
13.70
12.17
10.29
8.60
7.34
6.41
5.50
4.31
2.73
0.84
-1.09
-2.78
-4.00
-4.67
-4.84
-4.68
-4.38
-4.18
-4.20
-4.52
-5.07
-5.72
-6.32
-6.72
-6.88
-6.82
-6.65
-6.50
-6.54
-6.95
-7.81
-9.05
-10.17
-10.29
-8.37
-3.70
3.64
12.59
21.31
27.89
31.02
30.48
27.05
22.07
16.85
12.23
8.50
5.60
3.30
1.46
0.02
-1.08
-1.89
-2.52
-3.10
-3.71
-4.32
-4.81
-4.98
-4.63
-3.73
-2.44
-1.13
-0.29
-0.33
-1.38
-3.22
-5.32
-7.03
-7.81
-7.50
-6.35
-4.97
-4.10
-4.27
-5.59
-7.67
-9.81
-11.31
-11.82
-11.56
-11.22
-11.65
-13.50
-16.85
-21.19
-25.57
-29.03
-31.01
-31.60
-31.59
-32.13
-34.27
-38.51
-44.46
-50.96
-56.49
-59.82
-60.51
-59.15
-57.18
-56.40
-58.35
-63.63
-71.31
-78.54
-80.79
-72.90
-51.01
-14.54
32.82
83.75
129.70
163.98
183.98
191.54
191.39
188.71
187.13
187.91
190.15
191.61
189.50
181.15
164.74
140.11
109.16
75.40
42.80
14.32
-8.93
-27.32
-41.68
-52.28
-58.64
-60.32
-57.88
-53.31
-49.37
-48.20
-50.27
-54.17
-57.56
-58.51
-56.52
-52.65
-48.73
-46.31
-45.87
-46.73
-47.58
-47.15
-44.92
-41.19
-36.87
-32.93
-29.97
-27.96
-26.37
-24.47
-21.76
-18.21
-14.35
-11.04
-9.09
-8.98
-10.57
-13.22
-16.04
-18.26
-19.55
-19.99
-19.95
-19.81
-19.70
-19.47
-18.77
-17.35
-15.22
-12.73
-10.49
-9.11
-8.94
-9.77
-10.81
-10.70
-7.93
-1.28
9.64
24.12
40.37
55.85
67.81
73.97
73.15
65.60
53.00
38.04
23.59
12.00
4.50
1.15
1.09
3.03
5.65
7.79
8.53
7.24
3.69
-1.78
-8.25
-14.43
-19.03
-21.27
-21.09
-19.18
-16.79
-15.34
-15.98
-19.19
-24.48
-30.54
-35.61
-38.23
-37.85
-35.17
-31.90
-30.03
-30.92
-34.68
-40.09
-45.11
-47.91
-47.65
-44.91
-41.34
-38.95
-39.18
-42.41
-47.95
-54.23
-59.04
-59.61
-52.94
-36.53
-9.63
25.78
64.94
101.60
130.35
148.74
158.11
162.45
165.79
169.53
171.33
166.27
149.65
120.05
80.69
38.37
0.69
-27.07
-43.61
-51.20
-53.50
-53.30
-51.20
-46.28
-37.69
-26.16
-14.26
-5.27
-1.47
-3.04
-8.15
-14.00
-18.36
-20.37
-20.60
-20.40
-20.97
-22.75
-25.31
-27.69
-28.83
-28.13
-25.62
-21.95
-18.13
-15.10
-13.39
-12.93
-13.16
-13.32
-12.85
-11.63
-9.94
-8.28
-7.07
-6.46
-6.29
-6.28
-6.12
-5.68
-4.94
-3.97
-2.83
-1.59
-0.32
0.86
1.77
2.29
2.36
2.05
1.54
0.99
0.54
0.24
0.08
0.02
0.00
-0.04
-0.16
-0.40
-0.73
-1.06
-1.29
-1.33
-1.22
-1.05
-0.94
-0.94
-1.03
-1.12
-1.12
-1.00
-0.78
-0.53
-0.28
-0.09
0.04
0.08
0.03
-0.09
-0.24
-0.38
-0.46
-0.45
-0.36
-0.19
0.01
0.21
0.37
0.45
0.43
0.32
0.19
0.06
-0.06
-0.21
-0.40
-0.63
-0.81
-0.82
-0.61
-0.17
0.36
0.83
1.10
1.13
0.95
0.69
0.46
0.31
0.25
0.24
0.24
0.26
0.29
0.35
0.41
0.41
0.25
-0.12
-0.67
-1.30
-1.85
-2.21
-2.35
-2.38
-2.43
-2.63
-3.01
-3.50
-3.97
-4.33
-4.55
-4.66
-4.72
-4.78
-4.89
-5.11
-5.54
-6.25
-7.27
-8.49
-9.70
-10.70
-11.38
-11.86
-12.43
-13.50
-15.33
-17.99
-21.24
-24.74
-28.16
-31.43
-34.73
-38.38
-42.61
-47.33
-52.11
-56.34
-59.54
-61.70
-63.39
-65.65
-69.53
-75.69
-84.03
-93.74
-103.72
-113.02
-121.33
-129.02
-136.91
-145.85
-156.40
-168.78
-182.77
-197.57
-211.56
-222.25
-226.56
-221.75
-206.30
-180.63
-146.94
-108.19
-66.80
-23.66
21.84
70.64
122.51
174.96
223.50
263.07
290.08
303.98
307.43
305.11
301.75
300.38
301.60
304.19
306.44
307.41
307.44
307.79
309.73
313.72
319.16
324.69
328.71
329.75
326.68
318.62
304.82
284.73
258.20
225.60
187.87
146.29
102.01
55.62
7.19
-43.11
-94.20
-143.46
-186.95
-220.56
-241.42
-249.14
-245.88
-235.44
-221.72
-207.46
-193.76
-180.64
-167.91
-155.81
-145.02
-136.15
-129.15
-123.17
-116.89
-109.25
-99.94
-89.55
-79.29
-70.39
-63.54
-58.64
-54.94
-51.39
-47.15
-41.96
-36.15
-30.48
-25.70
-22.22
-19.98
-18.51
-17.16
-15.44
-13.16
-10.51
-7.90
-5.73
-4.22
-3.33
-2.85
-2.47
-1.99
-1.32
-0.55
0.21
0.87
1.40
1.83
2.16
2.37
2.38
2.12
1.60
0.88
0.09
-0.61
-1.08
-1.21
-0.97
-0.41
0.31
0.99
1.40
1.44
1.12
0.60
0.07
-0.34
-0.57
-0.64
-0.56
-0.36
-0.01
0.48
1.06
1.62
2.05
2.30
2.40
2.42
2.41
2.37
2.21
1.84
1.22
0.40
-0.47
-1.20
-1.62
-1.62
-1.24
-0.62
0.02
0.46
0.55
0.25
-0.42
-1.31
-2.30
-3.25
-4.07
-4.70
-5.08
-5.16
-4.93
-4.48
-3.96
-3.57
-3.46
-3.66
-4.05
-4.45
-4.65
-4.56
-4.19
-3.64
-3.01
-2.34
-1.61
-0.86
-0.14
0.42
0.74
0.87
0.99
1.32
2.03
3.07
4.23
5.21
5.78
5.87
5.59
5.13
4.61
4.04
3.38
2.58
1.70
0.88
0.29
-0.01
-0.11
-0.20
-0.48
-1.05
-1.80
-2.50
-2.87
-2.74
-2.14
-1.27
-0.42
0.12
0.22
-0.08
-0.62
-1.14
-1.38
-1.18
-0.44
0.82
2.45
4.24
5.90
7.17
7.87
7.94
7.46
6.61
5.56
4.43
3.28
2.09
0.90
-0.23
-1.15
-1.78
-2.07
-2.10
-1.97
-1.79
-1.59
-1.35
-1.02
-0.56
-0.01
0.56
1.07
1.46
1.75
2.00
2.23
2.45
2.61
2.64
2.51
2.23
1.88
1.54
1.25
1.05
0.89
0.71
0.45
0.03
-0.61
-1.52
-2.66
-3.92
-5.12
-6.06
-6.65
-6.91
-6.98
-7.04
-7.25
-7.65
-8.18
-8.72
-9.13
-9.34
-9.34
-9.19
-8.97
-8.77
-8.66
-8.73
-9.02
-9.53
-10.11
-10.48
-10.25
-9.05
-6.69
-3.29
0.72
4.77
8.33
11.08
12.98
14.19
14.92
15.32
15.44
15.22
14.62
13.66
12.45
11.16
9.94
8.92
8.10
7.43
6.80
6.16
5.52
4.98
4.60
4.42
4.38
4.37
4.37
4.41
4.61
5.01
5.46
5.67
5.22
3.88
1.69
-1.00
-3.65
-5.81
-7.25
-8.06
-8.48
-8.75
-8.95
-8.99
-8.74
-8.18
-7.41
-6.62
-6.01
-5.67
-5.54
-5.50
-5.42
-5.24
-4.97
-4.64
-4.30
-4.00
-3.75
-3.53
-3.31
-3.06
-2.77
-2.48
-2.23
-2.05
-1.94
-1.79
-1.51
-1.05
-0.43
0.19
0.69
0.99
1.17
1.40
1.89
2.77
3.98
5.33
6.54
7.37
7.66
7.40
6.68
5.67
4.56
3.54
2.72
2.19
1.94
1.94
2.09
2.29
2.47
2.59
2.72
2.92
3.22
3.55
3.70
3.46
2.72
1.55
0.19
-1.06
-2.05
-2.81
-3.54
-4.44
-5.52
-6.59
-7.33
-7.51
-7.11
-6.37
-5.63
-5.22
-5.26
-5.70
-6.31
-6.90
-7.32
-7.55
-7.67
-7.80
-8.01
-8.26
-8.40
-8.25
-7.70
-6.74
-5.46
-3.95
-2.23
-0.18
2.30
5.22
8.39
11.44
13.98
15.73
16.70
17.07
17.15
17.17
17.19
17.16
16.94
16.35
15.24
13.51
11.11
8.12
4.76
1.37
-1.68
-4.16
-5.96
-7.21
-8.12
-8.89
-9.59
-10.17
-10.54
-10.64
-10.53
-10.34
-10.18
-10.12
-10.05
-9.85
-9.42
-8.75
-7.89
-6.91
-5.80
-4.50
-2.99
-1.31
0.39
1.96
3.33
4.56
5.77
7.03
8.28
9.26
9.71
9.46
8.59
7.34
6.05
4.97
4.20
3.69
3.31
2.96
2.61
2.30
2.11
2.05
2.10
2.15
2.05
1.68
1.02
0.15
-0.79
-1.68
-2.41
-2.96
-3.34
-3.55
-3.59
-3.47
-3.22
-2.98
-2.87
-2.99
-3.32
-3.75
-4.11
-4.29
-4.31
-4.34
-4.56
-5.04
-5.69
-6.29
-6.59
-6.46
-6.01
-5.49
-5.18
-5.20
-5.48
-5.74
-5.71
-5.24
-4.33
-3.13
-1.83
-0.60
0.40
1.02
1.09
0.57
-0.35
-1.17
-1.21
0.16
3.14
7.34
11.90
15.77
18.17
18.80
17.93
16.08
13.81
11.45
9.16
7.07
5.41
4.48
4.54
5.57
7.13
8.54
9.08
8.30
6.17
3.10
-0.27
-3.30
-5.60
-7.07
-7.85
-8.20
-8.32
-8.31
-8.18
-7.89
-7.46
-6.97
-6.52
-6.11
-5.64
-4.92
-3.82
-2.37
-0.78
0.65
1.61
1.97
1.73
1.05
0.10
-0.94
-1.96
-2.88
-3.66
-4.30
-4.86
-5.41
-6.06
-6.87
-7.81
-8.75
-9.54
-10.05
-10.26
-10.26
-10.19
-10.21
-10.41
-10.79
-11.21
-11.40
-10.98
-9.51
-6.59
-2.10
3.71
10.19
16.42
21.49
24.77
26.07
25.56
23.61
20.60
16.85
12.67
8.53
4.99
2.62
1.74
2.27
3.68
5.15
5.90
5.43
3.71
1.16
-1.59
-3.88
-5.31
-5.80
-5.56
-4.98
-4.39
-4.03
-3.95
-4.14
-4.50
-4.93
-5.24
-5.23
-4.66
-3.40
-1.52
0.71
2.89
4.60
5.55
5.63
4.96
3.74
2.26
0.77
-0.54
-1.55
-2.21
-2.58
-2.78
-2.92
-3.10
-3.35
-3.62
-3.81
-3.82
-3.58
-3.08
-2.41
-1.70
-1.06
-0.55
-0.13
0.32
0.91
1.71
2.70
3.78
4.78
5.56
6.00
6.06
5.76
5.15
4.32
3.35
2.33
1.35
0.52
-0.10
-0.45
-0.57
-0.55
-0.53
-0.67
-1.08
-1.82
-2.84
-4.04
-5.27
-6.39
-7.32
-8.02
-8.55
-8.98
-9.36
-9.68
-9.88
-9.92
-9.75
-9.46
-9.17
-9.04
-9.16
-9.51
-10.00
-10.43
-10.62
-10.43
-9.77
-8.59
-6.90
-4.72
-2.12
0.78
3.84
6.92
9.91
12.69
15.21
17.38
19.14
20.41
21.17
21.42
21.24
20.76
20.13
19.46
18.78
18.01
17.01
15.61
13.74
11.45
8.94
6.48
4.29
2.51
1.13
0.10
-0.66
-1.19
-1.56
-1.86
-2.29
-3.03
-4.20
-5.72
-7.35
-8.78
-9.75
-10.19
-10.24
-10.11
-10.01
-10.03
-10.10
-10.15
-10.09
-9.92
-9.67
-9.35
-8.96
-8.47
-7.86
-7.21
-6.60
-6.11
-5.77
-5.55
-5.34
-5.05
-4.62
-4.04
-3.39
-2.78
-2.37
-2.23
-2.39
-2.73
-3.06
-3.20
-2.99
-2.40
-1.48
-0.37
0.82
2.00
3.13
4.26
5.41
6.61
7.85
9.01
9.94
10.44
10.38
9.74
8.66
7.41
6.28
5.47
5.02
4.81
4.64
4.37
3.97
3.56
3.26
3.19
3.37
3.72
4.15
4.58
4.92
5.05
4.80
4.04
2.72
0.98
-0.88
-2.55
-3.86
-4.78
-5.47
-6.03
-6.50
-6.83
-6.94
-6.83
-6.65
-6.56
-6.67
-6.96
-7.26
-7.39
-7.28
-6.97
-6.67
-6.51
-6.55
-6.68
-6.73
-6.56
-6.16
-5.66
-5.24
-5.04
-5.04
-5.08
-4.96
-4.51
-3.66
-2.46
-0.94
0.87
2.97
5.32
7.78
10.10
12.02
13.39
14.20
14.58
14.71
14.63
14.29
13.50
12.14
10.19
7.81
5.27
2.86
0.76
-0.96
-2.29
-3.28
-3.93
-4.24
-4.21
-3.95
-3.61
-3.37
-3.36
-3.59
-3.97
-4.34
-4.54
-4.48
-4.18
-3.74
-3.29
-2.87
-2.47
-1.99
-1.35
-0.56
0.27
0.95
1.39
1.61
1.81
2.21
2.93
3.85
4.66
5.02
4.71
3.76
2.41
1.02
-0.15
-0.98
-1.46
-1.70
-1.77
-1.72
-1.57
-1.34
-1.13
-0.98
-0.96
-1.05
-1.19
-1.30
-1.31
-1.20
-1.01
-0.80
-0.61
-0.48
-0.40
-0.34
-0.29
-0.26
-0.25
-0.33
-0.54
-0.88
-1.31
-1.70
-1.94
-1.99
-1.88
-1.75
-1.75
-1.92
-2.22
-2.53
-2.74
-2.81
-2.78
-2.70
-2.62
-2.55
-2.46
-2.38
-2.37
-2.47
-2.67
-2.89
-2.98
-2.83
-2.43
-1.91
-1.41
-1.05
-0.78
-0.35
0.55
2.18
4.53
7.29
9.95
11.98
13.03
13.07
12.25
10.84
9.03
6.94
4.68
2.46
0.62
-0.45
-0.56
0.24
1.58
2.92
3.79
3.90
3.25
2.05
0.57
-0.90
-2.20
-3.25
-4.00
-4.45
-4.59
-4.45
-4.06
-3.48
-2.77
-2.00
-1.23
-0.53
0.06
0.52
0.87
1.12
1.27
1.33
1.28
1.10
0.79
0.34
-0.28
-1.09
-2.07
-3.17
-4.26
-5.19
-5.86
-6.28
-6.55
-6.81
-7.18
-7.66
-8.20
-8.71
-9.12
-9.44
-9.69
-9.88
-10.00
-9.99
-9.82
-9.49
-9.00
-8.34
-7.43
-6.11
-4.19
-1.49
2.01
6.07
10.23
13.87
16.45
17.66
17.57
16.51
14.94
13.29
11.80
10.52
9.37
8.23
7.04
5.77
4.45
3.14
1.87
0.70
-0.36
-1.32
-2.16
-2.83
-3.27
-3.42
-3.31
-3.05
-2.80
-2.70
-2.78
-2.94
-3.08
-3.14
-3.18
-3.31
-3.64
-4.14
-4.60
-4.70
-4.18
-2.91
-0.92
1.57
4.33
7.07
9.55
11.47
12.57
12.67
11.77
10.09
8.00
5.90
4.06
2.54
1.26
0.07
-1.11
-2.23
-3.18
-3.85
-4.18
-4.18
-3.92
-3.51
-3.03
-2.56
-2.16
-1.85
-1.63
-1.47
-1.31
-1.09
-0.79
-0.40
-0.02
0.26
0.30
0.04
-0.45
-1.07
-1.66
-2.09
-2.35
-2.46
-2.48
-2.43
-2.28
-1.98
-1.50
-0.92
-0.35
0.05
0.19
-0.01
-0.52
-1.28
-2.19
-3.12
-3.94
-4.59
-5.05
-5.37
-5.66
-5.99
-6.38
-6.78
-7.12
-7.35
-7.48
-7.58
-7.71
-7.92
-8.14
-8.23
-8.01
-7.36
-6.26
-4.80
-3.18
-1.53
0.07
1.62
3.18
4.79
6.40
7.92
9.23
10.27
11.07
11.71
12.33
13.00
13.73
14.44
15.03
15.36
15.31
14.82
13.91
12.67
11.28
9.94
8.84
8.10
7.76
7.72
7.78
7.67
7.14
6.00
4.22
1.90
-0.76
-3.46
-5.96
-8.06
-9.67
-10.79
-11.47
-11.83
-11.98
-11.97
-11.85
-11.59
-11.20
-10.72
-10.22
-9.77
-9.40
-9.06
-8.68
-8.19
-7.62
-7.01
-6.39
-5.72
-4.88
-3.75
-2.32
-0.73
0.73
1.84
2.50
2.81
2.99
3.18
3.37
3.37
2.96
2.08
0.89
-0.23
-0.93
-0.95
-0.31
0.81
2.17
3.52
4.72
5.66
6.24
6.40
6.07
5.33
4.29
3.15
2.14
1.41
1.02
0.94
1.08
1.28
1.41
1.40
1.29
1.19
1.27
1.66
2.40
3.43
4.60
5.72
6.54
6.87
6.57
5.64
4.22
2.55
0.87
-0.61
-1.83
-2.81
-3.64
-4.40
-5.10
-5.72
-6.24
-6.60
-6.81
-6.88
-6.85
-6.77
-6.63
-6.44
-6.18
-5.88
-5.61
-5.49
-5.58
-5.87
-6.22
-6.47
-6.44
-6.09
-5.50
-4.80
-4.15
-3.58
-3.09
-2.62
-2.09
-1.40
-0.45
0.88
2.63
4.72
6.93
8.96
10.52
11.51
12.02
12.26
12.40
12.51
12.48
12.09
11.14
9.50
7.26
4.63
1.91
-0.54
-2.47
-3.75
-4.44
-4.68
-4.67
-4.57
-4.43
-4.25
-3.99
-3.68
-3.39
-3.17
-3.06
-3.00
-2.93
-2.80
-2.66
-2.58
-2.61
-2.70
-2.71
-2.47
-1.95
-1.23
-0.51
-0.01
0.20
0.19
0.17
0.35
0.84
1.59
2.45
3.23
3.75
3.94
3.76
3.31
2.71
2.10
1.61
1.30
1.13
1.04
0.97
0.89
0.78
0.66
0.54
0.40
0.28
0.20
0.22
0.36
0.62
0.95
1.24
1.39
1.33
1.07
0.69
0.29
-0.07
-0.36
-0.63
-0.90
-1.18
-1.43
-1.63
-1.78
-1.96
-2.28
-2.81
-3.54
-4.34
-5.04
-5.44
-5.45
-5.10
-4.54
-3.97
-3.60
-3.55
-3.80
-4.22
-4.57
-4.64
-4.30
-3.56
-2.52
-1.32
-0.12
0.96
1.82
2.43
2.82
3.18
3.73
4.67
5.98
7.39
8.46
8.77
8.14
6.77
5.16
3.89
3.38
3.67
4.47
5.32
5.80
5.70
5.09
4.15
3.11
2.09
1.07
0.01
-1.14
-2.27
-3.21
-3.78
-3.87
-3.54
-2.98
-2.41
-1.98
-1.74
-1.57
-1.35
-1.00
-0.53
-0.05
0.34
0.60
0.77
0.95
1.19
1.50
1.77
1.87
1.68
1.19
0.47
-0.35
-1.12
-1.75
-2.23
-2.58
-2.88
-3.18
-3.53
-3.94
-4.42
-4.96
-5.59
-6.28
-6.99
-7.61
-8.02
-8.12
-7.90
-7.47
-6.99
-6.62
-6.48
-6.57
-6.78
-6.92
-6.69
-5.78
-3.93
-1.02
2.76
6.93
10.86
13.89
15.61
15.91
14.98
13.18
10.88
8.39
5.92
3.59
1.54
-0.11
-1.28
-1.94
-2.10
-1.85
-1.31
-0.65
-0.03
0.37
0.47
0.28
-0.11
-0.55
-0.94
-1.19
-1.28
-1.19
-0.92
-0.49
0.06
0.63
1.11
1.39
1.45
1.34
1.16
1.05
1.07
1.21
1.37
1.46
1.39
1.15
0.82
0.49
0.22
0.03
-0.14
-0.38
-0.73
-1.18
-1.67
-2.13
-2.50
-2.79
-3.02
-3.19
-3.28
-3.25
-3.04
-2.62
-1.97
-1.08
0.00
1.21
2.47
3.67
4.75
5.62
6.20
6.39
6.10
5.28
4.00
2.41
0.76
-0.74
-1.96
-2.88
-3.56
-4.08
-4.50
-4.81
-4.99
-5.04
-5.00
-5.00
-5.16
-5.51
-6.03
-6.58
-7.02
-7.29
-7.45
-7.69
-8.19
-9.04
-10.13
-11.25
-12.13
-12.60
-12.66
-12.48
-12.30
-12.31
-12.68
-13.46
-14.62
-15.97
-17.08
-17.30
-15.84
-12.12
-6.09
1.65
9.97
17.59
23.55
27.53
29.75
30.71
30.88
30.53
29.76
28.72
27.64
26.81
26.36
26.10
25.58
24.30
21.94
18.55
14.55
10.49
6.85
3.90
1.71
0.19
-0.73
-1.08
-0.82
0.04
1.36
2.86
4.09
4.53
3.76
1.65
-1.58
-5.38
-9.05
-12.00
-13.91
-14.81
-14.94
-14.58
-13.90
-12.94
-11.69
-10.24
-8.78
-7.57
-6.79
-6.49
-6.52
-6.67
-6.76
-6.68
-6.47
-6.20
-5.92
-5.65
-5.33
-4.96
-4.55
-4.20
-3.98
-3.96
-4.13
-4.41
-4.67
-4.79
-4.67
-4.30
-3.76
-3.16
-2.62
-2.23
-1.97
-1.73
-1.31
-0.52
0.79
2.63
4.84
7.14
9.18
10.62
11.21
10.88
9.71
8.00
6.10
4.39
3.09
2.28
1.80
1.46
1.05
0.53
-0.04
-0.52
-0.80
-0.82
-0.61
-0.23
0.30
0.95
1.67
2.35
2.81
2.90
2.54
1.81
0.88
-0.06
-0.90
-1.63
-2.31
-3.02
-3.70
-4.24
-4.49
-4.35
-3.86
-3.15
-2.45
-1.95
-1.78
-1.92
-2.29
-2.71
-3.05
-3.18
-3.04
-2.63
-1.97
-1.10
-0.06
1.12
2.39
3.69
4.89
5.88
6.55
6.86
6.89
6.75
6.55
6.35
6.11
5.78
5.30
4.71
4.11
3.60
3.25
3.08
3.05
3.08
3.05
2.83
2.29
1.30
-0.13
-1.86
-3.62
-5.13
-6.24
-6.95
-7.44
-7.93
-8.55
-9.26
-9.90
-10.23
-10.10
-9.47
-8.50
-7.45
-6.59
-6.12
-6.10
-6.41
-6.80
-6.90
-6.30
-4.74
-2.19
1.03
4.28
6.82
8.04
7.85
6.68
5.39
4.83
5.49
7.21
9.34
11.06
11.73
11.16
9.58
7.43
5.12
2.92
0.92
-0.86
-2.31
-3.30
-3.69
-3.47
-2.78
-1.87
-0.99
-0.33
0.08
0.30
0.43
0.50
0.52
0.45
0.27
0.02
-0.25
-0.49
-0.69
-0.82
-0.89
-0.89
-0.84
-0.78
-0.80
-0.97
-1.34
-1.81
-2.25
-2.47
-2.39
-2.07
-1.73
-1.65
-2.04
-2.92
-4.16
-5.48
-6.60
-7.36
-7.75
-7.87
-7.87
-7.86
-7.85
-7.80
-7.63
-7.26
-6.64
-5.76
-4.66
-3.44
-2.31
-1.45
-0.92
-0.50
0.28
1.97
4.84
8.65
12.61
15.68
17.03
16.38
14.08
10.87
7.50
4.50
2.08
0.24
-0.99
-1.54
-1.37
-0.54
0.63
1.68
2.16
1.80
0.61
-1.07
-2.78
-4.07
-4.67
-4.60
-4.05
-3.32
-2.65
-2.13
-1.71
-1.36
-1.05
-0.85
-0.78
-0.72
-0.37
0.67
2.70
5.73
9.34
12.87
15.57
16.94
16.81
15.37
13.00
10.11
7.05
4.04
1.26
-1.19
-3.27
-4.97
-6.29
-7.30
-8.02
-8.53
-8.87
-9.11
-9.30
-9.39
-9.28
-8.87
-8.11
-7.11
-6.05
-5.14
-4.46
-3.91
-3.25
-2.19
-0.52
1.79
4.59
7.55
10.26
12.31
13.39
13.36
12.29
10.48
8.31
6.20
4.43
3.11
2.20
1.55
0.96
0.31
-0.50
-1.49
-2.63
-3.85
-5.07
-6.19
-7.15
-7.90
-8.43
-8.79
-9.03
-9.25
-9.50
-9.77
-10.04
-10.21
-10.22
-10.08
-9.90
-9.82
-9.98
-10.45
-11.13
-11.83
-12.24
-12.01
-10.88
-8.75
-5.70
-2.04
1.83
5.52
8.79
11.53
13.77
15.58
16.99
17.93
18.32
18.12
17.44
16.46
15.40
14.36
13.32
12.13
10.66
8.90
7.04
5.40
4.29
3.90
4.18
4.84
5.50
5.82
5.63
5.00
4.16
3.34
2.67
2.07
1.29
0.11
-1.58
-3.64
-5.75
-7.55
-8.79
-9.50
-9.83
-10.02
-10.19
-10.31
-10.25
-9.95
-9.45
-8.93
-8.57
-8.49
-8.63
-8.83
-8.91
-8.77
-8.45
-8.05
-7.70
-7.42
-7.13
-6.69
-5.99
-5.00
-3.83
-2.65
-1.65
-0.99
-0.74
-0.87
-1.22
-1.57
-1.58
-0.92
0.61
2.97
5.89
8.90
11.51
13.41
14.53
15.02
15.12
14.95
14.47
13.54
12.03
9.94
7.45
4.84
2.37
0.17
-1.71
-3.28
-4.57
-5.54
-6.17
-6.43
-6.36
-6.04
-5.49
-4.71
-3.59
-2.05
-0.07
2.20
4.43
6.14
6.90
6.48
4.93
2.63
0.08
-2.23
-3.97
-5.06
-5.54
-5.58
-5.32
-4.89
-4.42
-4.00
-3.71
-3.56
-3.51
-3.43
-3.26
-2.95
-2.59
-2.27
-2.11
-2.14
-2.29
-2.38
-2.17
-1.52
-0.39
1.03
2.42
3.42
3.84
3.68
3.14
2.53
2.13
2.10
2.45
3.08
3.82
4.50
4.98
5.23
5.30
5.32
5.42
5.61
5.78
5.74
5.30
4.34
2.90
1.13
-0.80
-2.69
-4.41
-5.82
-6.79
-7.26
-7.20
-6.73
-6.01
-5.21
-4.43
-3.65
-2.77
-1.67
-0.23
1.58
3.73
6.08
8.44
10.52
11.96
12.42
11.66
9.67
6.66
3.10
-0.39
-3.29
-5.24
-6.17
-6.29
-5.93
-5.42
-4.98
-4.72
-4.61
-4.61
-4.66
-4.76
-4.90
-5.12
-5.44
-5.82
-6.20
-6.44
-6.38
-5.91
-5.01
-3.78
-2.39
-1.00
0.25
1.26
2.00
2.44
2.59
2.52
2.34
2.21
2.26
2.55
3.07
3.78
4.66
5.66
6.72
7.63
8.12
7.89
6.79
4.88
2.47
-0.03
-2.24
-3.94
-5.12
-5.91
-6.49
-7.02
-7.59
-8.22
-8.91
-9.61
-10.23
-10.69
-10.91
-10.86
-10.56
-10.11
-9.65
-9.32
-9.30
-9.68
-10.43
-11.33
-11.89
-11.46
-9.47
-5.68
-0.33
5.84
11.82
16.68
19.86
21.33
21.45
20.69
19.41
17.74
15.68
13.27
10.69
8.31
6.49
5.37
4.79
4.30
3.39
1.72
-0.71
-3.53
-6.20
-8.23
-9.40
-9.87
-10.08
-10.59
-11.88
-14.09
-16.94
-19.77
-21.76
-22.35
-21.62
-20.36
-19.86
-21.23
-24.78
-29.57
-33.75
-35.39
-33.49
-28.73
-23.41
-20.50
-22.21
-28.86
-38.47
-47.61
-52.87
-52.44
-47.06
-39.74
-34.31
-34.02
-40.12
-51.42
-64.63
-75.20
-77.95
-68.11
-42.57
-1.45
50.44
103.84
147.39
171.97
174.86
161.66
144.18
135.03
141.63
162.51
188.11
205.42
203.99
180.37
138.73
88.26
38.82
-2.64
-33.43
-54.16
-66.81
-73.04
-73.43
-68.23
-58.45
-46.48
-35.77
-29.62
-29.59
-34.72
-41.89
-47.15
-47.63
-42.76
-34.30
-25.36
-18.88
-16.32
-17.16
-19.49
-21.02
-20.29
-17.24
-13.12
-9.68
-8.34
-9.46
-12.30
-15.45
-17.49
-17.64
-15.93
-13.05
-9.93
-7.34
-5.68
-4.94
-4.91
-5.27
-5.75
-6.13
-6.28
-6.11
-5.64
-4.93
-4.11
-3.29
-2.53
-1.90
-1.39
-1.04
-0.86
-0.82
-0.87
-0.88
-0.76
-0.41
0.16
0.84
1.51
2.06
2.43
2.71
2.98
3.32
3.67
3.87
3.72
3.08
1.93
0.45
-1.14
-2.58
-3.74
-4.59
-5.27
-5.98
-6.95
-8.34
-10.18
-12.31
-14.43
-16.23
-17.55
-18.48
-19.33
-20.46
-22.11
-24.29
-26.78
-29.33
-31.73
-33.87
-35.65
-36.98
-37.79
-38.13
-38.26
-38.63
-39.82
-42.35
-46.61
-52.78
-60.78
-70.26
-80.56
-90.74
-99.85
-107.19
-112.73
-117.23
-122.13
-129.17
-139.88
-155.15
-174.73
-196.85
-218.33
-235.00
-242.75
-238.75
-222.37
-195.24
-160.46
-121.29
-79.80
-36.38
9.64
58.71
109.64
159.18
202.68
235.81
256.27
264.74
264.50
259.90
254.63
250.46
247.26
243.90
239.59
234.65
230.47
228.62
229.91
233.79
238.61
242.49
244.15
243.53
241.74
240.35
240.65
243.09
247.28
252.27
256.96
260.16
260.55
256.59
246.63
229.53
205.07
174.17
138.54
99.95
59.38
16.78
-28.47
-76.53
-125.95
-173.36
-214.12
-243.91
-260.32
-263.73
-257.07
-244.49
-229.74
-214.98
-200.80
-186.88
-173.02
-159.68
-147.80
-138.06
-130.39
-123.84
-117.08
-109.13
-99.83
-89.79
-80.17
-71.95
-65.57
-60.77
-56.78
-52.70
-47.96
-42.50
-36.73
-31.34
-26.88
-23.56
-21.16
-19.21
-17.21
-14.91
-12.34
-9.75
-7.48
-5.74
-4.57
-3.84
-3.36
-2.97
-2.53
-1.98
-1.36
-0.73
-0.21
0.11
0.18
0.05
-0.14
-0.23
-0.11
0.23
0.67
1.08
1.33
1.36
1.16
0.78
0.28
-0.27
-0.80
-1.24
-1.53
-1.65
-1.64
-1.55
-1.43
-1.32
-1.24
-1.21
-1.26
-1.41
-1.62
-1.74
-1.63
-1.20
-0.50
0.26
0.81
0.98
0.78
0.41
0.10
0.02
0.17
0.40
0.55
0.53
0.36
0.12
-0.11
-0.31
-0.46
-0.60
-0.73
-0.88
-1.15
-1.66
-2.52
-3.69
-4.91
-5.75
-5.67
-4.29
-1.57
2.12
6.07
9.49
11.79
12.71
12.38
11.13
9.35
7.30
5.17
3.08
1.16
-0.47
-1.73
-2.61
-3.12
-3.28
-3.07
-2.48
-1.64
-0.80
-0.35
-0.61
-1.69
-3.39
-5.27
-6.90
-7.96
-8.44
-8.50
-8.40
-8.30
-8.24
-8.15
-7.94
-7.56
-7.02
-6.43
-5.92
-5.63
-5.67
-6.15
-7.07
-8.37
-9.89
-11.38
-12.56
-13.16
-13.02
-12.16
-10.80
-9.27
-7.92
-6.91
-6.12
-5.23
-3.85
-1.74
1.07
4.27
7.42
10.22
12.60
14.66
16.51
18.03
18.87
18.53
16.57
12.82
7.45
1.08
-5.41
-11.02
-15.07
-17.52
-19.10
-21.19
-25.16
-31.78
-40.59
-49.89
-57.40
-61.23
-60.79
-57.12
-52.44
-49.17
-48.93
-51.99
-57.45
-63.93
-70.41
