1660749229.00
64.000000
-0.00
-0.00
-0.00
-0.00
-0.00
-0.00
-0.00
-0.00
-0.00
-0.00
0.00
0.01
0.01
-0.00
-0.03
-0.05
-0.05
0.00
0.13
0.36
0.66
1.01
1.37
1.72
2.06
2.40
2.79
3.24
3.80
4.42
5.06
5.66
6.20
6.68
7.15
7.68
8.31
9.14
10.09
11.04
11.88
12.56
13.14
13.76
14.65
15.96
17.91
20.32
22.90
25.38
27.58
29.57
31.68
34.32
37.81
42.54
48.15
54.10
59.83
64.97
69.58
74.14
79.34
85.71
93.76
103.00
112.62
121.73
129.77
136.75
143.30
150.75
157.77
166.64
177.95
191.79
206.97
220.57
228.25
225.36
208.53
176.87
132.76
80.05
23.07
-34.94
-92.44
-149.16
-205.23
-260.37
-313.74
-363.87
-409.83
-450.91
-486.50
-515.74
-537.23
-549.22
-549.96
-538.37
-514.21
-478.68
-433.89
-382.45
-327.01
-269.81
-212.59
-156.63
-102.96
-52.46
-6.10
35.29
71.05
100.93
125.08
143.98
158.29
168.72
175.86
180.12
181.83
181.26
178.68
174.45
168.93
162.46
155.35
147.82
140.05
132.19
124.35
116.64
109.09
101.67
94.32
86.95
79.56
72.26
65.25
58.74
52.89
47.65
42.83
38.09
33.17
27.98
22.69
17.68
13.37
10.02
7.55
5.57
3.51
0.88
-2.46
-6.23
-9.81
-12.61
-14.26
-14.84
-14.85
-14.93
-15.68
-17.46
-20.41
-24.42
-28.93
-32.81
-34.32
-31.70
-23.86
-11.14
4.48
19.95
32.30
39.84
42.71
42.55
41.39
40.57
40.23
39.60
37.80
34.58
30.52
26.61
23.60
21.60
19.99
17.93
14.90
11.07
7.19
4.16
2.59
2.48
3.32
4.36
5.01
4.96
4.33
3.45
2.71
2.33
2.31
2.45
2.43
2.06
1.28
0.25
-0.74
-1.43
-1.63
-1.37
-0.83
-0.29
0.01
-0.01
-0.28
-0.59
-0.69
-0.37
0.43
1.74
3.50
5.70
8.28
11.13
13.98
16.41
18.07
18.74
18.44
17.41
15.95
14.27
12.38
10.26
7.69
4.62
1.17
-2.41
-5.82
-8.84
-11.34
-13.29
-14.74
-15.80
-16.50
-16.87
-16.92
-16.62
-16.03
-15.20
-14.26
-13.28
-12.35
-11.47
-10.60
-9.75
-8.92
-8.19
-7.63
-7.32
-7.27
-7.42
-7.60
-7.56
-7.06
-5.90
-4.06
-1.74
0.66
2.64
3.74
3.74
2.72
1.07
-0.68
-2.03
-2.76
-2.89
-2.67
-2.37
-2.18
-2.23
-2.55
-3.18
-4.12
-5.23
-6.23
-6.69
-6.28
-4.86
-2.74
-0.50
1.16
1.78
1.27
-0.03
-1.50
-2.57
-2.78
-2.02
-0.56
1.04
2.18
2.44
1.66
0.01
-2.09
-4.08
-5.42
-5.62
-4.44
-1.92
1.59
5.50
9.12
11.87
13.45
13.78
13.03
11.51
9.55
7.50
5.64
4.12
2.96
2.10
1.44
0.92
0.56
0.45
0.64
1.13
1.75
2.29
2.49
2.20
1.38
0.11
-1.41
-3.01
-4.54
-5.93
-7.17
-8.31
-9.39
-10.41
-11.42
-12.41
-13.37
-14.17
-14.55
-14.15
-12.60
-9.76
-5.78
-1.12
3.55
7.61
10.68
12.64
13.62
13.86
13.57
12.89
11.92
10.73
9.42
8.10
6.90
5.95
5.29
4.88
4.59
4.24
3.70
2.99
2.30
1.86
1.81
2.05
2.30
2.21
1.60
0.50
-0.83
-2.13
-3.23
-4.18
-5.18
-6.46
-8.19
-10.38
-12.89
-15.43
-17.61
-19.01
-19.23
-18.04
-15.40
-11.56
-6.95
-2.14
2.30
5.93
8.50
10.00
10.65
10.73
10.55
10.27
9.95
9.53
8.90
8.00
6.83
5.51
4.24
3.23
2.61
2.40
2.55
2.87
3.20
3.38
3.32
2.97
2.35
1.45
0.35
-0.89
-2.16
-3.32
-4.26
-4.92
-5.32
-5.59
-5.97
-6.65
-7.78
-9.33
-11.10
-12.72
-13.75
-13.82
-12.71
-10.44
-7.31
-3.75
-0.26
2.79
5.21
7.02
8.33
9.20
9.59
9.46
8.84
7.88
6.86
6.05
5.57
5.38
5.34
5.31
5.25
5.20
5.20
5.24
5.21
4.97
4.41
3.54
2.42
1.16
-0.14
-1.45
-2.75
-4.04
-5.27
-6.35
-7.19
-7.71
-7.97
-8.12
-8.35
-8.84
-9.63
-10.58
-11.35
-11.54
-10.80
-8.99
-6.22
-2.84
0.67
3.92
6.63
8.73
10.25
11.25
11.76
11.77
11.32
10.53
9.61
8.77
8.19
7.91
7.83
7.76
7.54
7.07
6.37
5.55
4.77
4.13
3.68
3.33
2.98
2.49
1.83
1.00
0.07
-0.89
-1.84
-2.76
-3.64
-4.45
-5.17
-5.76
-6.27
-6.80
-7.54
-8.71
-10.49
-12.90
-15.74
-18.54
-20.67
-21.56
-20.90
-18.80
-15.72
-12.37
-9.37
-7.10
-5.61
-4.70
-4.10
-3.59
-3.10
-2.60
-2.07
-1.38
-0.41
0.95
2.70
4.71
6.80
8.82
10.71
12.49
14.17
15.68
16.85
17.42
17.25
16.30
14.76
12.93
11.10
9.46
8.01
6.66
5.27
3.80
2.26
0.73
-0.75
-2.19
-3.65
-5.19
-6.83
-8.53
-10.24
-11.87
-13.31
-14.37
-14.78
-14.30
-12.78
-10.26
-7.01
-3.48
-0.17
2.54
4.43
5.47
5.81
5.70
5.41
5.20
5.20
5.43
5.80
6.20
6.55
6.84
7.14
7.53
8.00
8.50
8.87
9.02
8.90
8.55
8.04
7.40
6.51
5.25
3.51
1.34
-1.03
-3.28
-5.13
-6.41
-7.17
-7.56
-7.77
-7.92
-8.08
-8.28
-8.48
-8.63
-8.57
-8.11
-7.04
-5.22
-2.67
0.42
3.73
6.90
9.56
11.51
12.60
12.81
12.15
10.67
8.51
5.92
3.36
1.36
0.37
0.55
1.72
3.38
4.96
6.07
6.62
6.77
6.77
6.72
6.52
6.00
5.04
3.66
2.02
0.26
-1.59
-3.59
-5.85
-8.41
-11.23
-14.12
-16.86
-19.27
-21.25
-22.79
-24.02
-25.02
-25.77
-26.12
-25.71
-24.19
-21.32
-17.28
-12.58
-7.89
-3.79
-0.65
1.43
2.55
2.99
3.09
3.13
3.41
4.15
5.43
7.06
8.65
9.71
9.98
9.60
8.93
8.64
9.53
12.31
17.33
24.47
33.26
43.16
53.75
64.15
73.79
82.73
91.88
102.51
115.39
129.92
143.72
153.02
152.85
140.23
116.30
86.47
58.25
38.09
29.35
31.91
43.10
57.21
68.55
73.01
68.40
53.70
28.39
-6.97
-49.80
-95.41
-140.66
-182.95
-220.30
-251.56
-277.14
-299.31
-320.94
-343.91
-352.09
-332.75
-283.70
-216.15
-146.22
-85.10
-36.58
0.56
29.61
53.78
72.64
84.67
89.60
89.24
86.64
84.59
84.76
87.82
93.65
99.67
102.93
102.15
97.97
92.21
86.56
82.04
78.99
77.25
75.12
70.01
61.08
48.63
33.85
18.11
2.59
-11.74
-24.17
-33.23
-40.55
-47.18
-53.69
-60.17
-66.40
-71.94
-76.23
-78.77
-79.42
-79.03
-78.17
-77.39
-77.00
-77.25
-78.36
-80.33
-83.66
-85.83
-84.44
-76.75
-61.26
-38.67
-12.03
14.10
35.39
49.29
55.81
56.43
53.54
49.11
44.03
38.66
33.25
28.44
25.04
23.62
23.71
24.27
23.99
21.80
17.44
11.51
5.14
-0.53
-4.81
-7.85
-10.29
-12.99
-16.55
-20.96
-25.58
-29.33
-31.11
-30.06
-26.47
-20.95
-14.41
-7.77
-1.79
3.02
6.22
7.38
6.15
2.37
-3.55
-10.79
-18.23
-24.88
-30.15
-33.98
-36.71
-38.84
-40.78
-42.85
-45.30
-48.35
-52.05
-56.02
-59.39
-60.84
-59.04
-53.30
-43.92
-32.22
-20.16
-9.47
-1.16
4.70
8.67
11.38
13.08
13.58
12.50
9.76
5.77
1.48
-1.95
-3.59
-2.96
-0.06
4.74
10.92
17.88
24.95
31.39
36.48
39.64
40.61
39.60
37.18
34.17
31.30
29.01
27.39
26.25
25.30
24.27
22.93
20.93
17.82
13.02
6.07
-3.06
-13.70
-24.46
-33.40
-38.67
-38.99
-34.12
-25.05
-13.72
-2.60
5.89
9.89
8.56
2.34
-7.00
-16.69
-23.65
-25.49
-21.33
-12.20
-0.66
10.20
17.93
21.48
21.29
18.78
15.52
12.59
10.43
9.06
8.38
8.40
9.10
10.28
11.35
11.54
10.16
7.09
2.89
-1.38
-4.67
-6.48
-7.14
-7.64
-9.11
-12.34
-17.42
-23.85
-30.77
-37.23
-42.23
-44.74
-43.77
-38.65
-29.43
-17.15
-3.74
8.48
17.64
22.82
24.32
23.27
21.05
18.79
17.08
16.12
15.94
16.59
18.19
20.74
23.94
27.15
29.52
30.22
28.83
25.55
21.27
17.31
15.05
15.28
17.84
21.50
24.27
24.12
19.74
11.15
-0.11
-11.36
-19.54
-22.17
-18.14
-8.17
5.55
20.06
32.72
41.91
47.31
49.57
49.61
48.09
45.25
41.14
36.05
30.67
25.97
22.74
21.24
21.12
21.70
22.45
23.23
24.25
25.81
27.85
29.82
30.80
29.83
26.29
20.08
11.63
1.83
-8.07
-16.57
-22.16
-23.77
-21.33
-16.08
-10.33
-6.70
-6.98
-11.32
-18.09
-24.57
-28.11
-27.19
-21.85
-13.39
-3.63
5.84
14.05
20.66
25.67
29.21
31.48
32.78
33.57
34.36
35.53
37.11
38.78
40.01
40.28
39.32
37.14
34.00
30.31
26.65
23.76
22.46
23.44
26.87
32.16
37.91
42.36
43.98
42.08
37.06
30.12
22.73
16.02
10.51
6.28
3.27
1.65
1.73
3.65
7.08
11.07
14.35
15.91
15.42
13.45
11.10
9.42
8.93
9.43
10.24
10.64
10.23
9.04
7.35
5.35
3.04
0.28
-2.97
-6.39
-9.32
-10.90
-10.50
-8.10
-4.33
-0.32
2.73
4.04
3.44
1.34
-1.53
-4.47
-7.09
-9.33
-11.41
-13.66
-16.33
-19.52
-23.06
-26.52
-29.20
-30.27
-28.98
-24.87
-17.82
-8.10
3.78
17.12
30.92
43.81
54.05
59.80
59.73
53.69
43.12
30.79
19.98
13.28
11.72
14.47
19.49
24.50
28.02
29.78
30.45
30.90
31.52
31.90
31.11
28.26
23.11
16.21
8.68
1.62
-4.30
-9.14
-13.37
-17.50
-21.68
-25.58
-28.56
-30.02
-29.61
-27.21
-22.89
-16.81
-9.32
-1.18
6.28
11.36
12.64
9.67
3.44
-3.87
-9.68
-12.11
-10.68
-6.35
-0.82
4.39
8.56
11.86
14.85
17.86
20.69
22.72
23.43
22.80
21.34
19.85
18.87
18.44
18.09
17.22
15.49
13.12
10.75
9.26
9.28
10.91
13.45
15.46
15.03
10.35
0.43
-14.23
-31.48
-47.87
-59.68
-64.16
-60.48
-49.91
-35.28
-19.83
-6.20
4.17
11.04
14.90
16.54
16.69
16.03
15.16
14.60
14.61
14.98
15.09
14.05
11.12
6.00
-1.07
-9.32
-17.67
-24.91
-29.97
-32.18
-31.57
-28.92
-25.63
-23.23
-22.75
-24.30
-26.95
-29.27
-29.91
-28.37
-25.21
-21.80
-19.66
-19.81
-22.18
-25.69
-28.64
-29.40
-27.15
-22.14
-15.53
-8.91
-3.64
-0.34
1.14
1.54
1.72
2.34
3.68
5.67
8.02
10.38
12.34
13.44
13.34
11.92
9.51
6.94
5.28
5.43
7.60
11.08
14.41
15.98
14.78
10.82
5.16
-0.59
-4.97
-7.17
-7.30
-6.07
-4.43
-3.12
-2.49
-2.56
-3.18
-4.21
-5.50
-6.78
-7.63
-7.57
-6.21
-3.53
0.02
3.65
6.46
7.82
7.60
6.16
4.16
2.30
0.99
0.34
0.16
0.18
0.20
0.19
0.23
0.38
0.58
0.63
0.32
-0.40
-1.35
-2.18
-2.51
-2.20
-1.44
-0.69
-0.38
-0.75
-1.66
-2.74
-3.58
-4.02
-4.19
-4.46
-5.14
-6.36
-7.99
-9.70
-11.20
-12.26
-12.79
-12.75
-12.04
-10.53
-8.17
-5.11
-1.68
1.63
4.33
6.18
7.16
7.53
7.66
7.87
8.33
9.00
9.68
10.17
10.33
10.15
9.75
9.25
8.75
8.26
7.76
7.24
6.72
6.25
5.85
5.47
4.97
4.18
3.00
1.43
-0.39
-2.25
-3.93
-5.29
-6.31
-7.08
-7.78
-8.62
-9.75
-11.18
-12.63
-13.66
-13.70
-12.34
-9.46
-5.38
-0.73
3.74
7.44
10.07
11.64
12.39
12.59
12.46
12.13
11.66
11.07
10.43
9.76
9.12
8.49
7.81
7.02
6.07
5.03
4.00
3.12
2.48
2.02
1.55
0.90
-0.04
-1.23
-2.57
-3.92
-5.27
-6.67
-8.21
-9.86
-11.49
-12.83
-13.65
-13.82
-13.45
-12.74
-11.92
-11.07
-10.08
-8.76
-6.97
-4.77
-2.47
-0.45
0.93
1.57
1.63
1.43
1.27
1.32
1.52
1.73
1.78
1.61
1.29
0.92
0.63
0.46
0.36
0.22
-0.07
-0.60
-1.34
-2.16
-2.89
-3.37
-3.55
-3.52
-3.50
-3.72
-4.36
-5.40
-6.67
-7.90
-8.88
-9.55
-9.99
-10.37
-10.80
-11.30
-11.80
-12.27
-12.73
-13.26
-13.86
-14.37
-14.42
-13.64
-11.77
-8.91
-5.51
-2.15
0.67
2.72
4.06
4.95
5.64
6.27
6.82
7.22
7.39
7.30
6.99
6.56
6.10
5.73
5.47
5.29
5.03
4.51
3.59
2.32
0.90
-0.37
-1.31
-1.92
-2.42
-3.09
-4.10
-5.41
-6.79
-7.94
-8.69
-8.99
-8.99
-8.92
-8.99
-9.34
-10.01
-10.89
-11.76
-12.28
-12.12
-11.02
-8.90
-5.86
-2.26
1.52
5.04
7.99
10.20
11.67
12.49
12.84
12.87
12.71
12.44
12.11
11.71
11.21
10.57
9.81
8.95
8.06
7.18
6.36
5.59
4.84
4.15
3.62
3.38
3.50
3.93
4.45
4.77
4.62
3.97
2.95
1.88
1.08
0.75
0.89
1.34
1.85
2.11
1.82
0.73
-1.33
-4.28
-7.76
-11.11
-13.60
-14.62
-13.92
-11.69
-8.46
-4.94
-1.76
0.63
2.04
2.47
2.13
1.25
0.09
-1.15
-2.39
-3.57
-4.68
-5.65
-6.39
-6.79
-6.80
-6.41
-5.74
-4.94
-4.19
-3.60
-3.21
-3.02
-2.99
-3.14
-3.51
-4.21
-5.27
-6.62
-8.01
-9.14
-9.74
-9.77
-9.40
-8.94
-8.69
-8.79
-9.13
-9.50
-9.67
-9.51
-8.97
-8.03
-6.67
-4.87
-2.69
-0.36
1.75
3.29
4.00
3.89
3.14
2.08
0.92
-0.21
-1.29
-2.33
-3.31
-4.16
-4.76
-5.02
-4.87
-4.29
-3.33
-2.16
-0.97
-0.02
0.50
0.56
0.26
-0.20
-0.68
-1.12
-1.62
-2.31
-3.25
-4.35
-5.38
-6.09
-6.34
-6.14
-5.68
-5.22
-4.98
-5.10
-5.61
-6.44
-7.36
-8.10
-8.32
-7.75
-6.33
-4.18
-1.67
0.81
2.93
4.57
5.74
6.55
7.07
7.31
7.23
6.85
6.23
5.58
5.10
4.95
5.13
5.48
5.82
5.96
5.89
5.71
5.61
5.70
5.90
6.02
5.81
5.14
4.03
2.68
1.33
0.12
-0.88
-1.73
-2.50
-3.22
-3.93
-4.61
-5.32
-6.20
-7.40
-9.04
-11.04
-13.03
-14.46
-14.73
-13.41
-10.49
-6.35
-1.68
2.78
6.42
8.97
10.45
11.09
11.16
10.85
10.25
9.36
8.21
6.90
5.60
4.54
3.85
3.56
3.55
3.64
3.70
3.72
3.77
3.96
4.26
4.52
4.52
4.06
3.09
1.72
0.18
-1.35
-2.84
-4.32
-5.87
-7.48
-8.97
-10.11
-10.75
-10.90
-10.81
-10.81
-11.19
-12.04
-13.16
-14.14
-14.51
-13.87
-12.10
-9.34
-5.99
-2.53
0.62
3.18
5.07
6.33
7.06
7.35
7.30
7.02
6.61
6.18
5.79
5.47
5.18
4.87
4.50
4.09
3.65
3.25
2.91
2.63
2.39
2.13
1.85
1.55
1.27
1.02
0.80
0.53
0.14
-0.42
-1.14
-1.92
-2.62
-3.17
-3.60
-4.05
-4.72
-5.80
-7.37
-9.36
-11.53
-13.56
-15.01
-15.52
-14.86
-13.01
-10.18
-6.77
-3.24
0.06
2.89
5.21
7.02
8.33
9.08
9.27
8.97
8.41
7.90
7.66
7.74
8.01
8.19
8.04
7.48
6.59
5.58
4.65
3.90
3.30
2.75
2.14
1.40
0.56
-0.37
-1.33
-2.34
-3.41
-4.55
-5.68
-6.68
-7.38
-7.74
-7.83
-7.87
-8.16
-8.92
-10.10
-11.41
-12.29
-12.18
-10.72
-7.91
-4.11
0.09
4.08
7.38
9.75
11.13
11.60
11.30
10.48
9.40
8.33
7.46
6.87
6.50
6.26
6.04
5.79
5.57
5.40
5.31
5.28
5.26
5.21
5.14
5.05
4.96
4.81
4.49
3.88
2.86
1.44
-0.23
-1.87
-3.14
-3.78
-3.71
-3.10
-2.30
-1.72
-1.69
-2.28
-3.33
-4.41
-5.00
-4.64
-3.07
-0.34
3.24
7.24
11.32
15.40
19.68
24.42
29.66
35.00
39.64
42.72
43.78
43.08
41.69
41.03
42.38
46.47
53.30
62.31
72.39
81.82
88.51
90.49
86.62
77.36
64.90
52.49
43.19
38.55
37.59
37.40
34.46
26.25
12.27
-6.05
-26.31
-46.33
-65.04
-82.97
-101.19
-120.13
-138.69
-154.25
-163.68
-164.66
-156.64
-140.95
-120.70
-99.30
-79.37
-62.33
-48.79
-39.38
-35.20
-37.63
-43.78
-50.03
-52.57
-49.35
-40.56
-27.71
-12.67
2.66
16.64
28.51
37.63
43.85
47.45
49.04
49.49
49.69
50.36
51.76
54.11
56.82
58.95
59.53
58.03
54.53
49.57
43.95
37.66
31.25
24.37
16.21
5.89
-6.99
-22.02
-38.07
-51.80
-62.62
-70.22
-75.06
-78.12
-80.48
-83.04
-86.38
-90.83
-96.28
-102.04
-106.05
-105.47
-97.64
-81.56
-58.84
-33.43
-10.22
6.49
16.10
20.11
21.26
22.08
23.78
26.18
28.50
30.19
31.39
32.61
34.18
35.91
37.12
37.05
35.13
31.49
26.82
22.10
18.21
15.53
13.90
12.71
11.18
8.72
5.21
1.01
-3.25
-6.99
-9.99
-12.40
-14.49
-16.45
-18.22
-19.33
-19.21
-17.54
-14.37
-10.20
-5.84
-2.08
0.53
1.83
1.97
1.25
0.02
-1.42
-2.89
-4.25
-5.45
-6.46
-7.27
-7.84
-8.10
-8.01
-7.54
-6.77
-5.86
-4.97
-4.21
-3.58
-3.04
-2.58
-2.21
-2.04
-2.11
-2.41
-2.80
-3.07
-3.02
-2.52
-1.61
-0.44
0.64
1.20
0.73
-1.22
-4.88
-10.14
-16.50
-23.14
-29.11
-33.56
-35.94
-36.10
-34.29
-31.14
-27.49
-24.32
-22.62
-23.11
-26.03
-30.91
-36.62
-41.66
-44.65
-44.72
-41.78
-36.39
-29.47
-22.01
-14.77
-8.33
-3.06
0.83
3.29
4.43
4.59
4.19
3.69
3.50
3.82
4.64
5.66
6.28
5.81
3.70
-0.17
-5.38
-11.07
-16.17
-19.81
-21.48
-21.18
-19.42
-17.05
-14.95
-13.73
-13.41
-13.30
-12.07
-8.33
-1.14
9.49
22.47
35.90
47.66
55.79
58.94
56.62
49.44
39.15
28.35
19.74
15.20
15.09
18.19
22.33
25.57
27.02
27.10
27.01
27.76
29.44
31.12
31.48
29.66
25.83
21.13
16.98
14.33
13.14
12.58
11.57
9.60
7.06
5.16
5.27
8.26
14.18
22.35
31.91
42.28
53.24
64.75
76.61
88.43
99.84
111.02
122.90
137.02
154.80
176.75
201.93
228.15
252.84
274.13
291.54
305.76
317.82
327.92
334.85
336.24
329.65
313.78
289.37
259.12
226.81
195.80
168.08
143.69
121.14
98.14
72.54
42.80
8.15
-31.17
-73.45
-115.11
-150.85
-174.96
-183.41
-175.98
-156.97
-133.98
-114.87
-104.58
-103.29
-106.74
-108.50
-102.81
-86.55
-59.88
-25.58
12.12
48.67
79.92
102.66
114.92
115.99
105.94
85.50
56.22
21.35
-13.55
-40.98
-53.51
-46.77
-21.99
13.52
48.71
72.78
79.03
66.51
38.93
1.73
-40.65
-85.96
-133.45
-182.26
-230.73
-276.86
-319.78
-360.36
-400.14
-439.29
-474.92
-501.17
-511.43
-501.40
-470.70
-422.48
-361.51
-292.67
-221.08
-153.10
-96.70
-59.69
-46.26
-53.92
-73.42
-92.37
-100.66
-94.82
-78.51
-59.27
-43.89
-35.17
-31.52
-29.18
-24.90
-17.66
-8.50
0.71
8.58
14.52
18.68
21.13
21.32
18.23
10.92
-0.61
-15.02
-29.78
-42.05
-49.65
-51.89
-49.63
-44.72
-39.15
-34.42
-31.20
-29.43
-28.52
-27.55
-25.45
-21.34
-14.77
-5.94
4.36
15.06
25.19
34.11
41.46
46.98
50.36
51.24
49.43
45.12
38.97
31.91
24.88
18.75
14.38
12.73
14.63
20.21
28.44
37.02
43.00
43.88
38.81
29.05
17.59
7.98
2.89
3.10
7.25
12.53
15.84
15.03
9.67
1.19
-7.71
-14.12
-15.94
-12.62
-4.97
5.36
16.73
27.98
38.49
47.92
55.99
62.46
