1660926479.00
64.000000
-0.00
-0.00
-0.00
-0.00
-0.00
-0.00
-0.00
-0.00
-0.00
-0.00
0.00
0.01
0.01
-0.00
-0.03
-0.05
-0.05
0.00
0.13
0.36
0.66
1.01
1.37
1.72
2.06
2.40
2.79
3.25
3.81
4.43
5.09
5.73
6.33
6.92
7.55
8.28
9.12
10.16
11.31
12.45
13.50
14.44
15.34
16.37
17.72
19.52
21.95
24.81
27.83
30.76
33.49
36.13
38.99
42.49
46.87
52.45
58.84
65.58
72.17
78.40
84.44
90.79
98.06
106.60
116.77
127.99
139.54
150.77
161.40
171.72
182.39
194.54
206.51
220.19
235.99
254.11
273.76
292.57
306.63
311.37
303.10
280.33
244.83
200.10
150.59
100.07
50.79
3.56
-41.57
-84.63
-125.52
-164.02
-200.90
-237.40
-274.76
-313.07
-350.46
-383.17
-406.50
-416.71
-412.40
-395.31
-369.60
-340.23
-311.17
-284.44
-260.15
-237.52
-215.91
-195.22
-175.94
-158.54
-142.97
-128.69
-114.98
-101.34
-87.74
-74.63
-62.55
-51.92
-42.82
-34.99
-27.94
-21.24
-14.68
-8.28
-2.28
3.04
7.49
11.06
13.88
16.20
18.21
20.00
21.58
22.86
23.79
24.36
24.64
24.70
24.67
24.62
24.58
24.56
24.50
24.34
23.99
23.41
22.59
21.63
20.64
19.76
19.05
18.49
18.00
17.49
16.91
16.29
15.65
15.06
14.52
14.04
13.64
13.35
13.21
13.24
13.34
13.41
13.32
13.01
12.49
11.84
11.19
10.60
10.11
9.70
9.39
9.17
9.06
9.08
9.19
9.33
9.42
9.39
9.24
8.99
8.67
8.31
7.93
7.55
7.20
6.93
6.75
6.63
6.50
6.27
5.89
5.37
4.77
4.21
3.77
3.47
3.29
3.17
3.06
2.90
2.63
2.22
1.67
0.99
0.26
-0.47
-1.13
-1.72
-2.26
-2.81
-3.37
-3.95
-4.54
-5.09
-5.60
-6.08
-6.49
-6.84
-7.08
-7.20
-7.20
-7.16
-7.14
-7.20
-7.35
-7.53
-7.62
-7.53
-7.20
-6.68
-6.08
-5.49
-4.98
-4.54
-4.10
-3.58
-2.94
-2.23
-1.54
-0.97
-0.61
-0.44
-0.40
-0.37
-0.26
-0.01
0.36
0.79
1.22
1.61
1.97
2.34
2.71
3.07
3.32
3.36
3.19
2.87
2.58
2.49
2.67
3.08
3.57
3.95
4.10
4.02
3.83
3.66
3.61
3.71
3.91
4.14
4.36
4.57
4.78
5.05
5.38
5.73
6.02
6.16
6.08
5.83
5.53
5.36
5.43
5.77
6.29
6.82
7.23
7.46
7.53
7.51
7.38
7.06
6.41
5.36
4.01
2.63
1.56
1.08
1.30
2.03
2.94
3.64
3.87
3.58
2.89
2.06
1.29
0.75
0.46
0.41
0.53
0.80
1.18
1.61
1.96
2.11
1.97
1.55
0.99
0.53
0.35
0.56
1.02
1.49
1.66
1.31
0.44
-0.77
-2.06
-3.14
-3.82
-4.06
-3.90
-3.47
-2.94
-2.48
-2.19
-2.12
-2.21
-2.32
-2.32
-2.09
-1.65
-1.06
-0.43
0.16
0.67
1.11
1.49
1.80
2.01
2.12
2.12
2.01
1.80
1.44
0.91
0.22
-0.57
-1.32
-1.86
-2.07
-1.93
-1.54
-1.05
-0.65
-0.50
-0.75
-1.43
-2.49
-3.77
-5.08
-6.21
-7.03
-7.46
-7.49
-7.06
-6.06
-4.40
-2.06
0.80
3.82
6.50
8.40
9.25
9.03
7.97
6.42
4.77
3.32
2.26
1.66
1.48
1.66
2.13
2.81
3.57
4.27
4.70
4.70
4.22
3.36
2.33
1.33
0.49
-0.17
-0.68
-1.08
-1.32
-1.32
-1.03
-0.48
0.20
0.81
1.23
1.41
1.40
1.31
1.22
1.19
1.19
1.19
1.17
1.17
1.21
1.33
1.49
1.63
1.65
1.51
1.22
0.89
0.65
0.61
0.80
1.12
1.44
1.64
1.67
1.58
1.45
1.31
1.15
0.89
0.51
0.07
-0.31
-0.49
-0.43
-0.20
0.03
0.14
0.08
-0.12
-0.33
-0.49
-0.60
-0.70
-0.82
-0.93
-0.94
-0.74
-0.34
0.18
0.66
0.94
0.97
0.78
0.48
0.22
0.08
0.08
0.17
0.25
0.24
0.14
-0.05
-0.25
-0.42
-0.53
-0.59
-0.64
-0.69
-0.70
-0.64
-0.43
-0.06
0.42
0.89
1.24
1.41
1.40
1.24
1.00
0.70
0.35
-0.05
-0.48
-0.85
-1.07
-1.06
-0.82
-0.42
-0.00
0.33
0.51
0.52
0.43
0.28
0.13
-0.02
-0.18
-0.34
-0.51
-0.63
-0.67
-0.59
-0.39
-0.13
0.12
0.28
0.32
0.27
0.21
0.21
0.32
0.49
0.64
0.66
0.49
0.16
-0.19
-0.39
-0.35
-0.03
0.46
0.99
1.42
1.70
1.83
1.85
1.75
1.52
1.13
0.62
0.06
-0.41
-0.68
-0.66
-0.35
0.18
0.80
1.40
1.86
2.10
2.11
1.92
1.62
1.29
1.00
0.78
0.63
0.57
0.61
0.80
1.14
1.62
2.16
2.65
3.01
3.18
3.15
2.93
2.51
1.88
1.04
0.03
-0.99
-1.81
-2.25
-2.25
-1.88
-1.35
-0.93
-0.76
-0.85
-1.10
-1.30
-1.32
-1.13
-0.79
-0.40
-0.09
0.08
0.07
-0.09
-0.38
-0.73
-1.06
-1.25
-1.22
-0.93
-0.42
0.16
0.60
0.71
0.37
-0.39
-1.38
-2.32
-2.95
-3.13
-2.89
-2.41
-1.92
-1.61
-1.54
-1.66
-1.86
-2.02
-2.07
-1.99
-1.80
-1.54
-1.26
-1.02
-0.92
-1.02
-1.34
-1.84
-2.41
-2.94
-3.35
-3.60
-3.75
-3.88
-4.06
-4.32
-4.65
-5.07
-5.56
-6.15
-6.85
-7.68
-8.62
-9.63
-10.66
-11.69
-12.70
-13.67
-14.59
-15.42
-16.13
-16.74
-17.39
-18.28
-19.54
-21.02
-22.14
-22.01
-19.79
-15.20
-8.90
-2.46
2.11
3.17
0.19
-5.96
-13.36
-19.86
-24.01
-25.56
-25.56
-25.71
-27.60
-32.00
-38.48
-45.70
-51.84
-55.43
-55.89
-53.88
-51.09
-49.84
-52.44
-60.29
-73.13
-88.51
-101.77
-106.82
-97.78
-71.12
-27.64
26.80
82.33
127.85
154.62
159.08
143.67
115.44
83.06
53.75
31.46
16.79
8.16
3.39
0.72
-0.99
-2.59
-5.02
-9.15
-15.40
-23.37
-31.92
-39.49
-44.93
-48.12
-50.24
-53.42
-59.79
-70.09
-82.63
-93.16
-96.30
-87.85
-67.03
-37.24
-4.84
23.49
43.55
54.91
60.24
63.16
66.13
69.42
71.70
71.42
68.01
62.11
54.90
47.29
39.51
31.51
23.61
16.93
13.12
13.61
18.69
27.13
36.46
43.95
47.68
47.16
43.26
37.59
31.70
26.52
22.29
18.88
16.09
13.86
12.18
10.97
10.04
9.20
8.30
7.40
6.72
6.53
7.02
8.15
9.68
11.23
12.45
13.12
13.23
13.02
12.85
13.08
13.92
15.33
17.13
19.05
20.96
22.88
25.00
27.52
30.63
34.39
38.73
43.54
48.68
54.00
59.45
65.01
70.76
76.90
83.72
91.54
100.66
111.22
123.11
135.90
148.85
161.05
171.62
180.06
186.50
191.78
196.97
202.73
208.48
212.10
210.39
200.11
179.15
147.27
106.11
58.59
8.28
-41.11
-85.97
-123.13
-150.37
-167.13
-174.88
-176.78
-176.48
-176.71
-178.27
-180.08
-180.16
-176.92
-170.01
-160.32
-149.34
-138.35
-127.95
-118.12
-108.61
-99.35
-90.64
-82.95
-76.56
-71.37
-66.84
-62.26
-57.12
-51.32
-45.19
-39.36
-34.37
-30.51
-27.63
-25.26
-22.87
-20.10
-16.92
-13.65
-10.75
-8.59
-7.30
-6.67
-6.35
-5.96
-5.30
-4.38
-3.38
-2.50
-1.88
-1.53
-1.39
-1.38
-1.43
-1.53
-1.65
-1.77
-1.87
-1.94
-2.00
-2.09
-2.22
-2.32
-2.30
-2.07
-1.65
-1.15
-0.77
-0.68
-0.95
-1.50
-2.14
-2.67
-2.95
-2.96
-2.76
-2.51
-2.33
-2.33
-2.53
-2.82
-3.05
-3.06
-2.76
-2.23
-1.62
-1.10
-0.76
-0.56
-0.35
-0.01
0.51
1.12
1.68
2.04
2.15
2.01
1.64
1.09
0.38
-0.39
-1.13
-1.68
-1.96
-1.91
-1.60
-1.14
-0.63
-0.16
0.21
0.49
0.69
0.82
0.90
0.93
0.95
0.97
0.99
1.01
0.97
0.81
0.53
0.18
-0.15
-0.37
-0.44
-0.42
-0.38
-0.39
-0.44
-0.46
-0.38
-0.18
0.03
0.11
-0.04
-0.41
-0.90
-1.37
-1.68
-1.80
-1.76
-1.63
-1.52
-1.51
-1.64
-1.91
-2.27
-2.62
-2.88
-2.99
-2.97
-2.90
-2.82
-2.73
-2.53
-2.11
-1.40
-0.42
0.71
1.84
2.83
3.60
4.09
4.28
4.10
3.54
2.69
1.71
0.83
0.25
0.09
0.29
0.73
1.23
1.64
1.84
1.78
1.47
0.94
0.29
-0.34
-0.79
-0.98
-0.89
-0.59
-0.20
0.16
0.39
0.44
0.30
0.06
-0.19
-0.32
-0.20
0.21
0.87
1.64
2.33
2.77
2.88
2.64
2.15
1.51
0.83
0.18
-0.39
-0.84
-1.15
-1.26
-1.18
-0.95
-0.69
-0.55
-0.63
-0.96
-1.49
-2.05
-2.49
-2.69
-2.62
-2.36
-2.06
-1.88
-1.91
-2.17
-2.59
-3.04
-3.36
-3.45
-3.27
-2.86
-2.29
-1.71
-1.24
-0.96
-0.89
-0.89
-0.79
-0.38
0.46
1.68
3.09
4.42
5.41
5.93
6.00
5.71
5.18
4.52
3.82
3.16
2.65
2.32
2.13
1.92
1.51
0.80
-0.19
-1.27
-2.17
-2.71
-2.81
-2.57
-2.13
-1.64
-1.17
-0.75
-0.40
-0.15
-0.01
0.02
0.06
0.20
0.55
1.07
1.65
2.10
2.29
2.19
1.92
1.62
1.42
1.33
1.26
1.10
0.74
0.17
-0.53
-1.23
-1.80
-2.14
-2.27
-2.25
-2.20
-2.20
-2.23
-2.25
-2.18
-2.00
-1.79
-1.68
-1.79
-2.10
-2.51
-2.82
-2.89
-2.69
-2.29
-1.85
-1.49
-1.29
-1.25
-1.29
-1.36
-1.37
-1.30
-1.07
-0.67
-0.04
0.80
1.78
2.75
3.49
3.81
3.62
2.99
2.15
1.39
0.96
0.94
1.21
1.54
1.72
1.62
1.28
0.83
0.41
0.11
-0.06
-0.14
-0.19
-0.24
-0.28
-0.25
-0.09
0.23
0.69
1.20
1.65
1.91
1.95
1.80
1.55
1.33
1.20
1.22
1.33
1.51
1.72
1.91
2.05
2.09
1.95
1.59
1.00
0.26
-0.52
-1.22
-1.75
-2.11
-2.32
-2.44
-2.51
-2.55
-2.58
-2.62
-2.68
-2.72
-2.74
-2.73
-2.75
-2.89
-3.24
-3.78
-4.39
-4.87
-5.03
-4.81
-4.29
-3.63
-3.03
-2.59
-2.33
-2.15
-1.97
-1.67
-1.12
-0.16
1.36
3.46
5.94
8.37
10.18
10.89
10.35
8.75
6.58
4.39
2.58
1.32
0.52
0.05
-0.25
-0.43
-0.52
-0.50
-0.39
-0.20
0.03
0.29
0.57
0.87
1.17
1.42
1.62
1.70
1.66
1.49
1.24
0.98
0.75
0.59
0.51
0.50
0.55
0.66
0.87
1.18
1.60
2.08
2.50
2.75
2.69
2.22
1.31
0.05
-1.40
-2.78
-3.87
-4.51
-4.68
-4.53
-4.22
-3.93
-3.72
-3.58
-3.44
-3.25
-3.04
-2.85
-2.74
-2.74
-2.82
-2.92
-2.99
-3.00
-2.95
-2.87
-2.76
-2.65
-2.56
-2.51
-2.49
-2.46
-2.30
-1.93
-1.26
-0.27
0.98
2.40
3.85
5.19
6.23
6.81
6.82
6.23
5.14
3.76
2.35
1.16
0.35
-0.07
-0.16
-0.08
0.04
0.10
0.10
0.08
0.10
0.19
0.34
0.55
0.77
0.99
1.17
1.29
1.31
1.23
1.10
1.01
1.06
1.25
1.53
1.78
1.95
2.02
2.05
2.10
2.16
2.12
1.83
1.17
0.14
-1.15
-2.47
-3.56
-4.23
-4.43
-4.25
-3.90
-3.60
-3.51
-3.64
-3.88
-4.07
-4.09
-3.98
-3.90
-4.01
-4.44
-5.12
-5.87
-6.46
-6.73
-6.67
-6.37
-5.97
-5.62
-5.43
-5.48
-5.76
-6.19
-6.46
-6.15
-4.75
-1.96
2.13
6.98
11.69
15.31
17.20
17.18
15.59
13.03
10.13
7.36
4.97
3.05
1.65
0.78
0.43
0.46
0.67
0.80
0.72
0.40
-0.01
-0.29
-0.28
0.10
0.74
1.46
2.05
2.38
2.42
2.23
1.93
1.64
1.45
1.43
1.57
1.86
2.25
2.64
2.95
3.10
3.07
2.92
2.69
2.41
2.02
1.41
0.46
-0.79
-2.20
-3.48
-4.38
-4.75
-4.65
-4.30
-4.00
-3.96
-4.22
-4.68
-5.14
-5.42
-5.45
-5.29
-5.09
-4.98
-5.07
-5.31
-5.55
-5.64
-5.46
-5.04
-4.54
-4.20
-4.16
-4.43
-4.83
-5.08
-4.87
-3.89
-1.95
1.02
4.90
9.23
13.29
16.21
17.28
16.25
13.41
9.53
5.54
2.16
-0.23
-1.64
-2.28
-2.36
-2.05
-1.45
-0.66
0.15
0.80
1.18
1.26
1.11
0.88
0.71
0.67
0.78
1.01
1.27
1.48
1.55
1.41
1.11
0.75
0.50
0.46
0.70
1.13
1.58
1.93
2.11
2.12
2.03
1.84
1.50
0.95
0.18
-0.74
-1.63
-2.35
-2.81
-3.00
-3.02
-2.96
-2.89
-2.86
-2.90
-3.02
-3.22
-3.48
-3.77
-4.01
-4.14
-4.09
-3.85
-3.43
-2.91
-2.40
-1.97
-1.68
-1.53
-1.45
-1.32
-1.01
-0.41
0.48
1.57
2.70
3.61
4.09
3.98
3.26
2.09
0.72
-0.52
-1.37
-1.66
-1.38
-0.67
0.25
1.11
1.68
1.87
1.69
1.27
0.75
0.27
-0.09
-0.33
-0.43
-0.39
-0.19
0.18
0.66
1.15
1.51
1.67
1.64
1.54
1.54
1.77
2.28
2.98
3.69
4.20
4.35
4.09
3.49
2.70
1.90
1.21
0.68
0.25
-0.17
-0.62
-1.11
-1.59
-2.02
-2.37
-2.71
-3.07
-3.50
-3.96
-4.37
-4.61
-4.64
-4.48
-4.21
-3.96
-3.83
-3.83
-3.88
-3.85
-3.63
-3.21
-2.69
-2.21
-1.92
-1.89
-2.06
-2.31
-2.47
-2.38
-1.90
-0.97
0.39
2.03
3.73
5.18
6.11
6.38
6.00
5.18
4.20
3.34
2.76
2.49
2.42
2.35
2.16
1.78
1.28
0.79
0.44
0.27
0.26
0.30
0.37
0.49
0.75
1.20
1.77
2.29
2.53
2.37
1.85
1.20
0.72
0.61
0.95
1.62
2.42
3.17
3.77
4.18
4.38
4.33
3.97
3.23
2.13
0.76
-0.72
-2.14
-3.31
-4.15
-4.60
-4.67
-4.43
-3.98
-3.48
-3.08
-2.89
-2.94
-3.20
-3.54
-3.85
-4.05
-4.10
-4.06
-3.98
-3.89
-3.78
-3.60
-3.30
-2.90
-2.46
-2.03
-1.64
-1.25
-0.78
-0.15
0.67
1.62
2.64
3.62
4.46
5.03
5.21
4.91
4.13
2.97
1.68
0.52
-0.32
-0.76
-0.84
-0.65
-0.34
-0.00
0.30
0.54
0.71
0.84
0.96
1.10
1.27
1.46
1.63
1.75
1.81
1.82
1.79
1.75
1.67
1.55
1.35
1.09
0.83
0.63
0.57
0.67
0.90
1.17
1.38
1.43
1.29
0.98
0.55
0.04
-0.52
-1.12
-1.75
-2.38
-2.99
-3.48
-3.81
-3.90
-3.76
-3.43
-2.98
-2.54
-2.19
-1.99
-1.94
-1.98
-2.06
-2.13
-2.21
-2.30
-2.42
-2.55
-2.63
-2.60
-2.42
-2.11
-1.73
-1.36
-1.02
-0.72
-0.43
-0.13
0.16
0.46
0.80
1.22
1.75
2.37
2.97
3.41
3.61
3.53
3.24
2.82
2.36
1.90
1.47
1.10
0.83
0.67
0.65
0.69
0.74
0.70
0.54
0.27
-0.05
-0.35
-0.52
-0.48
-0.23
0.20
0.69
1.13
1.39
1.42
1.23
0.90
0.53
0.19
-0.04
-0.16
-0.15
-0.04
0.14
0.36
0.60
0.81
0.95
1.00
0.96
0.85
0.72
0.58
0.40
0.12
-0.28
-0.81
-1.37
-1.85
-2.12
-2.15
-1.99
-1.77
-1.61
-1.60
-1.70
-1.82
-1.86
-1.75
-1.53
-1.28
-1.12
-1.11
-1.22
-1.37
-1.43
-1.31
-1.00
-0.54
-0.02
0.48
0.88
1.17
1.33
1.39
1.43
1.50
1.64
1.84
2.00
2.00
1.74
1.20
0.43
-0.43
-1.22
-1.79
-2.00
-1.81
-1.26
-0.51
0.19
0.66
0.78
0.63
0.37
0.19
0.18
0.32
0.53
0.75
0.95
1.13
1.32
1.48
1.57
1.60
1.60
1.60
1.64
1.68
1.62
1.41
1.07
0.67
0.37
0.25
0.34
0.60
0.95
1.30
1.63
1.88
2.01
1.93
1.55
0.85
-0.11
-1.16
-2.09
-2.69
-2.86
-2.62
-2.12
-1.56
-1.12
-0.95
-1.06
-1.37
-1.75
-2.07
-2.21
-2.13
-1.86
-1.52
-1.25
-1.15
-1.29
-1.64
-2.12
-2.60
-2.98
-3.20
-3.22
-3.03
-2.63
-2.06
-1.43
-0.83
-0.35
0.01
0.30
0.61
0.98
1.37
1.66
1.77
1.67
1.48
1.36
1.45
1.78
2.24
2.62
2.76
2.59
2.19
1.70
1.28
0.99
0.82
0.74
0.69
0.65
0.62
0.56
0.42
0.15
-0.25
-0.70
-1.09
-1.34
-1.43
-1.41
-1.34
-1.25
-1.10
-0.85
-0.47
-0.01
0.46
0.88
1.18
1.35
1.38
1.26
1.05
0.79
0.57
0.45
0.41
0.38
0.25
-0.05
-0.49
-1.02
-1.52
-1.93
-2.24
-2.47
-2.61
-2.66
-2.57
-2.34
-2.02
-1.71
-1.57
-1.73
-2.21
-2.96
-3.81
-4.60
-5.22
-5.64
-5.96
-6.30
-6.75
-7.34
-8.03
-8.71
-9.26
-9.64
-9.87
-10.14
-10.71
-11.83
-13.66
-16.16
-19.04
-21.86
-24.25
-26.04
-27.46
-29.04
-31.39
-34.96
-39.77
-45.41
-51.21
-56.53
-61.01
-64.75
-68.24
-72.21
-77.43
-84.51
-93.69
-104.56
-115.87
-125.59
-131.49
-132.11
-127.51
-119.72
-112.25
-109.06
-113.03
-124.80
-142.21
-160.74
-174.72
-178.97
-170.10
-147.13
-111.39
-65.88
-14.51
38.37
88.41
131.53
164.44
185.28
194.23
193.46
186.54
177.13
167.96
160.16
153.55
147.34
140.85
133.98
127.17
121.01
115.92
111.87
108.44
105.09
101.46
97.73
94.49
92.60
92.61
94.49
97.48
100.45
102.36
102.82
102.31
101.96
102.95
105.93
110.58
115.79
120.13
122.66
123.32
123.00
123.09
124.87
129.07
135.67
144.18
153.75
163.08
170.22
172.79
168.80
157.83
141.63
123.57
106.91
92.82
79.33
61.99
36.04
-0.91
-47.23
-97.52
-144.58
-182.05
-206.42
-217.59
-218.02
-211.21
-200.34
-187.55
-173.93
-160.13
-146.81
-134.94
-125.45
-118.63
-113.75
-109.22
-103.26
-94.78
-83.97
-72.13
-61.12
-52.44
-46.60
-43.02
-40.38
-37.32
-33.01
-27.45
-21.33
-15.66
-11.20
-8.20
-6.34
-4.91
-3.17
-0.73
2.29
5.30
7.46
8.06
6.85
4.11
0.55
-2.96
-5.69
-7.25
-7.66
-7.25
-6.46
-5.66
-5.07
-4.80
-4.81
-4.98
-5.03
-4.64
-3.49
-1.56
0.82
2.97
4.12
3.76
1.90
-0.92
-3.89
-6.31
-7.87
-8.72
-9.28
-9.91
-10.71
-11.54
-12.13
-12.30
-12.04
-11.51
-10.92
-10.38
-9.88
-9.32
-8.59
-7.67
-6.69
-5.81
-5.15
-4.66
-4.15
-3.36
-2.15
-0.60
0.98
2.19
2.73
2.55
1.86
0.95
0.12
-0.53
-1.02
-1.46
-1.93
-2.43
-2.83
-2.94
-2.57
-1.57
0.10
2.28
4.65
6.79
8.26
8.83
8.52
7.58
6.40
5.36
4.69
4.48
4.64
5.01
5.38
5.50
5.13
4.10
2.39
0.18
-2.13
-4.02
-5.05
-4.98
-3.89
-2.16
-0.33
1.11
1.88
1.93
1.43
0.65
-0.17
-0.86
-1.35
-1.63
-1.74
-1.72
-1.68
-1.67
-1.78
-2.02
-2.36
-2.66
-2.79
-2.60
-2.07
-1.29
-0.48
0.11
0.29
-0.02
-0.69
-1.48
-2.11
-2.37
-2.16
-1.51
-0.56
0.48
1.37
1.94
2.03
1.65
0.87
-0.10
-1.06
-1.83
-2.33
-2.56
-2.61
-2.50
-2.25
-1.82
-1.22
-0.54
0.05
0.40
0.41
0.15
-0.16
-0.30
-0.11
0.37
0.98
1.51
1.80
1.83
1.64
1.30
0.81
0.19
-0.46
-0.89
-0.80
-0.04
1.29
2.79
3.97
4.52
4.47
4.16
3.99
4.15
4.54
4.81
4.63
3.86
2.64
1.24
-0.08
-1.17
-1.99
-2.53
-2.76
-2.65
-2.22
-1.59
-0.97
-0.61
-0.68
-1.23
-2.12
-3.09
-3.87
-4.23
-4.07
-3.44
-2.49
-1.41
-0.37
0.53
1.21
1.67
1.93
2.03
2.04
2.00
1.94
1.81
1.53
1.04
0.36
-0.41
-1.10
-1.55
-1.68
-1.52
-1.19
-0.84
-0.60
-0.52
-0.54
-0.56
-0.48
-0.24
0.16
0.64
1.14
1.62
2.05
2.42
2.69
2.78
2.63
2.21
1.64
1.12
0.85
0.95
1.36
1.82
2.08
1.93
1.35
0.47
-0.51
-1.41
-2.10
-2.54
-2.74
-2.71
-2.51
-2.23
-2.02
-1.98
-2.17
-2.52
-2.89
-3.14
-3.19
-3.10
-3.00
-3.02
-3.23
-3.58
-3.95
-4.21
-4.26
-4.11
-3.85
-3.56
-3.30
-3.05
-2.76
-2.35
-1.73
-0.80
0.55
2.34
4.50
6.74
8.66
9.82
9.94
9.01
7.33
5.31
3.37
1.77
0.60
-0.22
-0.79
-1.21
-1.53
-1.77
-1.96
-2.09
-2.15
-2.15
-2.09
-2.02
-1.94
-1.82
-1.60
-1.21
-0.66
-0.04
0.45
0.66
0.54
0.16
-0.30
-0.64
-0.70
-0.40
0.23
1.11
2.07
2.95
3.60
3.96
4.06
3.99
3.85
3.69
3.50
3.21
2.76
2.12
1.30
0.37
-0.62
-1.57
-2.35
-2.83
-2.94
-2.74
-2.41
-2.17
-2.20
-2.51
-2.98
-3.39
-3.58
-3.47
-3.08
-2.47
-1.69
-0.77
0.22
1.17
1.98
2.53
2.80
2.84
2.74
2.54
2.26
1.91
1.52
1.16
0.91
0.82
0.91
1.07
1.19
1.15
0.93
0.58
0.23
0.03
