1660937213.00
64.000000
-0.00
-0.00
-0.00
-0.00
-0.00
-0.00
-0.00
-0.00
-0.00
-0.00
0.00
0.01
0.01
-0.00
-0.03
-0.05
-0.05
0.00
0.13
0.36
0.66
1.01
1.37
1.72
2.06
2.40
2.79
3.25
3.80
4.43
5.09
5.73
6.34
6.94
7.56
8.26
9.06
10.05
11.14
12.24
13.27
14.21
15.13
16.17
17.53
19.29
21.68
24.48
27.46
30.39
33.13
35.79
38.66
42.12
46.40
51.84
58.10
64.74
71.31
77.59
83.70
90.08
97.28
105.64
115.55
126.54
137.97
149.24
160.06
170.58
181.32
193.28
204.79
217.84
233.02
250.77
270.39
289.47
303.89
308.84
300.40
277.04
240.66
195.07
145.01
94.37
45.39
-1.30
-45.91
-88.65
-129.55
-168.52
-206.37
-244.21
-282.74
-321.06
-356.24
-383.76
-399.00
-399.31
-385.05
-359.77
-328.85
-297.51
-269.14
-244.71
-223.27
-203.13
-183.02
-162.44
-141.73
-121.58
-102.56
-85.01
-68.95
-54.18
-40.29
-26.79
-13.18
0.63
14.23
26.58
36.13
41.12
40.02
32.12
18.03
-0.06
-18.71
-34.11
-43.22
-44.80
-39.86
-31.24
-22.57
-16.88
-15.69
-18.62
-23.94
-29.35
-32.91
-33.58
-31.30
-26.81
-21.19
-15.52
-10.51
-6.52
-3.66
-1.90
-1.13
-1.11
-1.43
-1.50
-0.75
1.14
3.99
7.21
9.96
11.56
11.86
11.21
10.37
10.07
10.63
11.90
13.34
14.39
14.72
14.45
13.96
13.74
14.07
14.96
16.19
17.47
18.57
19.43
20.11
20.69
21.20
21.53
21.50
20.86
19.42
17.10
13.98
10.35
6.60
3.15
0.35
-1.66
-2.90
-3.56
-3.86
-3.96
-3.94
-3.82
-3.63
-3.46
-3.45
-3.72
-4.31
-5.12
-5.90
-6.34
-6.14
-5.16
-3.42
-1.16
1.29
3.54
5.30
6.37
6.65
6.12
4.77
2.63
-0.21
-3.59
-7.20
-10.75
-13.95
-16.71
-19.03
-21.03
-22.80
-24.37
-25.73
-26.90
-27.97
-29.08
-30.36
-31.79
-33.21
-34.38
-35.09
-35.37
-35.52
-36.07
-37.55
-40.25
-44.00
-48.18
-52.03
-54.85
-56.30
-56.53
-55.99
-55.22
-54.72
-54.92
-56.01
-57.77
-59.18
-58.32
-52.68
-39.94
-19.06
8.94
40.95
72.61
99.72
119.45
130.79
134.12
130.43
120.54
105.19
85.39
62.95
40.43
20.58
5.40
-4.47
-9.74
-11.92
-12.24
-11.02
-7.63
-1.00
9.68
24.36
42.01
60.94
79.32
95.64
108.90
118.49
123.78
123.84
117.45
103.66
82.59
56.15
27.99
2.67
-15.86
-25.59
-27.12
-23.13
-17.09
-11.77
-8.37
-6.46
-4.83
-2.42
1.00
4.81
8.02
9.96
10.65
10.78
11.36
13.23
16.69
21.61
27.75
34.91
42.74
50.19
55.16
54.90
47.06
31.07
8.89
-15.39
-37.07
-52.69
-61.17
-63.72
-62.73
-60.35
-57.66
-54.79
-51.52
-47.94
-44.58
-42.05
-40.59
-39.83
-39.03
-37.36
-34.33
-30.00
-24.89
-19.81
-15.55
-12.63
-11.07
-10.51
-10.27
-9.72
-8.55
-6.86
-5.09
-3.80
-3.30
-3.54
-4.10
-4.44
-4.12
-3.09
-1.66
-0.36
0.30
0.10
-0.80
-1.95
-2.79
-2.90
-2.23
-1.03
0.25
1.23
1.73
1.84
1.77
1.73
1.82
1.99
2.11
2.07
1.83
1.48
1.12
0.85
0.67
0.55
0.40
0.20
-0.03
-0.22
-0.26
-0.12
0.16
0.46
0.70
0.86
0.97
1.13
1.37
1.65
1.86
1.91
1.77
1.51
1.26
1.08
1.01
0.97
0.90
0.74
0.49
0.20
-0.08
-0.31
-0.44
-0.46
-0.36
-0.13
0.15
0.41
0.56
0.55
0.40
0.18
0.02
-0.02
0.08
0.26
0.46
0.60
0.65
0.65
0.64
0.65
0.69
0.76
0.80
0.82
0.80
0.76
0.75
0.80
0.92
1.10
1.27
1.35
1.29
1.08
0.78
0.49
0.30
0.29
0.46
0.75
1.08
1.38
1.59
1.67
1.60
1.39
1.06
0.66
0.23
-0.15
-0.45
-0.63
-0.71
-0.70
-0.67
-0.61
-0.51
-0.35
-0.11
0.20
0.49
0.68
0.70
0.57
0.35
0.16
0.12
0.23
0.44
0.61
0.64
0.52
0.33
0.20
0.20
0.31
0.42
0.44
0.31
0.10
-0.06
-0.06
0.13
0.45
0.76
0.94
0.93
0.76
0.58
0.52
0.65
0.94
1.27
1.47
1.42
1.12
0.70
0.34
0.16
0.17
0.22
0.17
-0.06
-0.41
-0.73
-0.86
-0.73
-0.41
-0.04
0.23
0.33
0.30
0.22
0.18
0.22
0.30
0.34
0.31
0.20
0.06
-0.05
-0.10
-0.06
0.03
0.11
0.15
0.13
0.04
-0.08
-0.18
-0.17
0.01
0.36
0.82
1.26
1.57
1.64
1.48
1.17
0.84
0.56
0.36
0.20
0.03
-0.15
-0.32
-0.45
-0.49
-0.47
-0.43
-0.42
-0.46
-0.54
-0.60
-0.62
-0.56
-0.43
-0.31
-0.23
-0.22
-0.26
-0.28
-0.23
-0.05
0.23
0.53
0.78
0.92
0.98
0.99
1.01
1.03
1.03
0.95
0.77
0.51
0.24
0.00
-0.15
-0.22
-0.24
-0.23
-0.20
-0.12
-0.02
0.11
0.20
0.20
0.09
-0.11
-0.29
-0.35
-0.20
0.16
0.65
1.10
1.35
1.33
1.04
0.59
0.12
-0.26
-0.50
-0.61
-0.62
-0.57
-0.45
-0.25
0.03
0.31
0.49
0.48
0.27
-0.07
-0.39
-0.54
-0.45
-0.16
0.18
0.43
0.52
0.44
0.29
0.17
0.15
0.24
0.40
0.56
0.64
0.61
0.46
0.27
0.10
0.03
0.05
0.12
0.18
0.21
0.27
0.42
0.66
0.91
1.01
0.86
0.48
0.00
-0.39
-0.57
-0.58
-0.53
-0.57
-0.73
-0.93
-1.00
-0.84
-0.48
-0.05
0.25
0.32
0.16
-0.14
-0.43
-0.59
-0.59
-0.45
-0.26
-0.09
0.03
0.07
0.06
0.02
-0.04
-0.07
-0.07
0.01
0.13
0.27
0.40
0.52
0.62
0.70
0.73
0.66
0.44
0.04
-0.46
-0.94
-1.26
-1.39
-1.38
-1.31
-1.28
-1.31
-1.37
-1.39
-1.41
-1.48
-1.65
-1.96
-2.37
-2.85
-3.34
-3.87
-4.45
-5.08
-5.70
-6.17
-6.43
-6.45
-6.33
-6.25
-6.36
-6.76
-7.41
-8.22
-9.04
-9.77
-10.38
-10.92
-11.49
-12.13
-12.85
-13.53
-13.98
-14.02
-13.49
-12.33
-10.59
-8.41
-5.94
-3.28
-0.43
2.74
6.50
11.15
16.89
23.69
31.25
38.93
45.92
51.36
54.48
54.79
52.07
46.52
38.69
29.47
19.96
11.20
3.99
-1.32
-4.84
-7.00
-8.32
-9.24
-9.98
-10.62
-11.15
-11.56
-11.87
-12.07
-12.13
-11.96
-11.53
-10.87
-10.10
-9.37
-8.78
-8.31
-7.85
-7.25
-6.42
-5.43
-4.43
-3.65
-3.21
-3.12
-3.24
-3.38
-3.41
-3.28
-3.07
-2.85
-2.67
-2.46
-2.14
-1.66
-1.10
-0.62
-0.35
-0.34
-0.47
-0.57
-0.49
-0.22
0.12
0.35
0.42
0.34
0.23
0.16
0.12
0.02
-0.22
-0.57
-0.91
-1.11
-1.11
-0.94
-0.70
-0.48
-0.28
-0.02
0.37
0.87
1.38
1.73
1.80
1.55
1.07
0.52
0.07
-0.18
-0.25
-0.21
-0.16
-0.17
-0.22
-0.27
-0.24
-0.10
0.09
0.26
0.30
0.18
-0.09
-0.45
-0.79
-1.04
-1.17
-1.16
-1.07
-0.91
-0.68
-0.35
0.11
0.70
1.33
1.87
2.19
2.23
1.98
1.55
1.08
0.68
0.46
0.42
0.51
0.61
0.59
0.36
-0.07
-0.55
-0.95
-1.14
-1.13
-1.01
-0.85
-0.70
-0.52
-0.26
0.10
0.47
0.73
0.79
0.65
0.36
0.05
-0.20
-0.36
-0.43
-0.44
-0.40
-0.29
-0.14
0.06
0.23
0.32
0.29
0.17
0.01
-0.10
-0.10
0.01
0.18
0.34
0.41
0.35
0.17
-0.09
-0.36
-0.59
-0.70
-0.67
-0.51
-0.28
-0.06
0.08
0.11
0.06
-0.04
-0.14
-0.19
-0.16
-0.02
0.20
0.45
0.64
0.67
0.48
0.10
-0.36
-0.78
-1.03
-1.06
-0.89
-0.56
-0.17
0.23
0.59
0.89
1.11
1.27
1.34
1.30
1.12
0.79
0.34
-0.14
-0.53
-0.75
-0.78
-0.72
-0.68
-0.73
-0.87
-1.04
-1.14
-1.12
-1.02
-0.90
-0.84
-0.85
-0.90
-0.94
-0.93
-0.90
-0.89
-0.96
-1.12
-1.33
-1.55
-1.70
-1.76
-1.74
-1.69
-1.65
-1.65
-1.70
-1.77
-1.80
-1.74
-1.59
-1.39
-1.22
-1.16
-1.24
-1.46
-1.75
-2.07
-2.37
-2.67
-2.95
-3.19
-3.32
-3.26
-3.00
-2.60
-2.21
-2.00
-2.06
-2.39
-2.89
-3.47
-4.03
-4.52
-4.91
-5.15
-5.18
-4.98
-4.63
-4.24
-3.98
-3.92
-4.06
-4.36
-4.85
-5.63
-6.88
-8.66
-10.85
-13.15
-15.30
-17.25
-19.23
-21.68
-25.00
-29.36
-34.57
-40.20
-45.82
-51.17
-56.36
-61.76
-67.91
-75.23
-83.87
-93.49
-103.39
-112.79
-121.11
-128.28
-134.73
-141.15
-148.17
-156.28
-165.84
-177.13
-190.20
-204.25
-217.27
-226.03
-226.86
-216.95
-195.39
-163.46
-123.82
-79.37
-32.32
15.84
63.56
108.48
147.34
176.82
194.95
202.16
201.34
196.75
192.30
190.25
190.66
191.99
192.28
190.35
186.28
181.23
176.64
173.44
171.69
170.77
169.95
169.10
168.82
170.21
174.20
180.92
189.46
198.17
205.38
210.13
212.65
214.16
216.28
220.29
226.65
234.88
243.79
251.70
256.69
256.75
250.07
235.46
212.81
183.16
148.43
110.65
71.21
30.30
-12.79
-58.79
-107.22
-155.70
-200.10
-235.74
-259.02
-268.73
-266.44
-255.68
-240.50
-224.05
-207.93
-192.47
-177.57
-163.41
-150.62
-139.89
-131.34
-124.33
-117.67
-110.23
-101.51
-91.80
-82.01
-73.21
-66.11
-60.79
-56.75
-53.13
-49.16
-44.40
-38.92
-33.25
-28.06
-23.88
-20.86
-18.75
-17.01
-15.14
-12.90
-10.36
-7.83
-5.63
-3.96
-2.81
-2.02
-1.42
-0.85
-0.27
0.31
0.86
1.31
1.62
1.74
1.67
1.47
1.23
1.00
0.81
0.63
0.42
0.19
-0.00
-0.11
-0.17
-0.25
-0.48
-0.91
-1.47
-2.03
-2.40
-2.49
-2.25
-1.75
-1.09
-0.38
0.23
0.62
0.73
0.60
0.33
0.09
-0.01
0.09
0.33
0.63
0.91
1.14
1.34
1.53
1.69
1.75
1.64
1.27
0.59
-0.36
-1.47
-2.59
-3.53
-4.14
-4.35
-4.18
-3.70
-3.02
-2.24
-1.44
-0.66
0.05
0.69
1.22
1.64
1.95
2.19
2.42
2.69
3.02
3.30
3.38
3.09
2.36
1.25
-0.00
-1.13
-1.91
-2.28
-2.31
-2.16
-2.00
-1.93
-1.97
-2.09
-2.24
-2.34
-2.33
-2.18
-1.89
-1.53
-1.18
-0.96
-0.90
-1.00
-1.21
-1.47
-1.74
-1.96
-2.04
-1.87
-1.36
-0.48
0.66
1.87
2.93
3.65
4.01
4.06
3.96
3.84
3.77
3.76
3.76
3.72
3.60
3.38
3.05
2.61
2.06
1.42
0.73
0.04
-0.61
-1.22
-1.79
-2.34
-2.89
-3.42
-3.90
-4.27
-4.50
-4.58
-4.53
-4.36
-4.10
-3.72
-3.19
-2.49
-1.61
-0.61
0.42
1.42
2.35
3.20
3.97
4.62
5.08
5.24
5.02
4.42
3.52
2.49
1.49
0.63
-0.05
-0.60
-1.08
-1.52
-1.88
-2.11
-2.16
-2.04
-1.79
-1.48
-1.18
-0.90
-0.64
-0.43
-0.33
-0.46
-0.88
-1.58
-2.39
-3.08
-3.40
-3.21
-2.56
-1.60
-0.53
0.44
1.25
1.87
2.31
2.54
2.56
2.37
2.02
1.63
1.30
1.10
1.05
1.06
1.11
1.16
1.27
1.49
1.81
2.15
2.39
2.36
1.98
1.24
0.23
-0.94
-2.15
-3.32
-4.45
-5.49
-6.37
-7.00
-7.25
-7.04
-6.35
-5.25
-3.85
-2.29
-0.71
0.80
2.19
3.48
4.69
5.85
6.94
7.84
8.40
8.49
8.06
7.18
6.03
4.76
3.49
2.25
1.04
-0.11
-1.11
-1.84
-2.22
-2.27
-2.13
-1.95
-1.84
-1.80
-1.78
-1.71
-1.58
-1.44
-1.41
-1.58
-1.99
-2.60
-3.29
-3.91
-4.32
-4.40
-4.13
-3.58
-2.85
-2.07
-1.30
-0.59
0.04
0.56
0.91
1.06
1.05
1.01
1.12
1.52
2.21
3.08
3.94
4.65
5.16
5.51
5.72
5.75
5.50
4.88
3.88
2.62
1.26
-0.05
-1.26
-2.41
-3.53
-4.60
-5.53
-6.19
-6.46
-6.31
-5.77
-4.90
-3.77
-2.47
-1.09
0.29
1.58
2.72
3.69
4.48
5.05
5.37
5.40
5.14
4.60
3.85
2.96
1.98
0.94
-0.10
-1.10
-1.98
-2.69
-3.17
-3.42
-3.42
-3.16
-2.70
-2.11
-1.56
-1.21
-1.20
-1.50
-1.98
-2.42
-2.66
-2.66
-2.53
-2.45
-2.57
-2.90
-3.35
-3.76
-4.01
-4.04
-3.93
-3.74
-3.58
-3.46
-3.35
-3.18
-2.91
-2.49
-1.92
-1.21
-0.38
0.55
1.55
2.57
3.55
4.46
5.30
6.08
6.80
7.44
7.89
7.98
7.55
6.52
4.93
2.94
0.77
-1.36
-3.28
-4.89
-6.14
-6.97
-7.31
-7.11
-6.43
-5.39
-4.24
-3.27
-2.68
-2.48
-2.53
-2.53
-2.16
-1.21
0.38
2.48
4.83
7.11
8.99
10.27
10.86
10.84
10.36
9.61
8.76
7.88
6.95
5.91
4.70
3.30
1.81
0.42
-0.72
-1.49
-1.91
-2.13
-2.34
-2.65
-3.03
-3.39
-3.60
-3.63
-3.54
-3.48
-3.52
-3.64
-3.74
-3.70
-3.47
-3.12
-2.81
-2.71
-2.93
-3.47
-4.18
-4.84
-5.19
-5.07
-4.44
-3.44
-2.30
-1.27
-0.46
0.16
0.74
1.49
2.55
3.96
5.62
7.35
8.93
10.17
10.96
11.25
11.04
10.41
9.42
8.19
6.86
5.55
4.38
3.40
2.58
1.80
0.93
-0.09
-1.26
-2.47
-3.58
-4.52
-5.32
-6.07
-6.90
-7.83
-8.76
-9.54
-10.00
-10.11
-10.01
-9.93
-10.12
-10.67
-11.48
-12.30
-12.87
-13.12
-13.20
-13.49
-14.35
-15.94
-18.12
-20.49
-22.56
-24.03
-24.99
-25.91
-27.43
-30.11
-34.00
-38.63
-43.08
-46.40
-48.10
-48.47
-48.55
-49.68
-52.90
-58.37
-65.17
-71.82
-76.91
-79.78
-80.89
-81.40
-82.70
-85.92
-91.70
-100.17
-110.70
-121.43
-128.95
-128.73
-116.59
-90.86
-53.89
-12.07
26.22
53.71
66.88
66.86
58.14
46.15
35.10
27.08
22.57
21.63
24.90
33.76
49.71
73.27
103.20
136.15
167.43
192.35
207.75
213.25
211.17
205.52
200.18
197.50
197.76
199.69
201.43
201.43
198.71
192.84
183.76
171.87
158.13
143.97
130.60
118.41
106.38
92.12
72.56
45.11
8.83
-34.84
-82.21
-128.16
-167.58
-196.79
-214.50
-221.90
-221.85
-217.62
-211.73
-205.49
-199.22
-192.79
-186.32
-180.23
-175.06
-171.03
-167.98
-165.42
-162.82
-159.76
-155.72
-149.64
-139.55
-122.89
-97.55
-63.21
-22.28
20.20
58.08
86.08
101.69
105.68
101.32
92.68
83.11
74.37
66.92
60.55
55.04
50.41
46.62
43.27
39.51
34.39
27.40
19.02
10.87
5.14
3.81
7.64
15.84
26.28
36.43
44.44
49.74
53.03
55.58
58.40
61.65
64.64
66.36
66.11
63.85
60.30
56.51
53.42
51.54
50.86
51.03
51.61
52.21
52.45
51.90
50.03
46.39
40.94
34.25
27.47
21.88
18.20
16.14
14.46
11.56
6.32
-1.26
-10.05
-18.35
-24.68
-28.37
-29.66
-29.32
-28.13
-26.56
-24.64
-22.27
-19.44
-16.40
-13.55
-11.31
-9.77
-8.73
-7.71
-6.22
-4.03
-1.27
1.61
4.07
5.81
6.91
7.73
8.66
9.83
11.00
11.72
11.59
10.58
9.04
7.63
6.96
7.44
9.11
11.69
14.63
17.19
18.52
17.77
14.32
8.08
-0.38
-9.80
-18.67
-25.61
-29.90
-31.56
-31.22
-29.77
-27.93
-26.10
-24.32
-22.53
-20.71
-19.03
-17.66
-16.73
-16.12
-15.59
-14.82
-13.65
-12.16
-10.57
-9.18
-8.20
-7.65
-7.38
-7.15
-6.78
-6.18
-5.44
-4.73
-4.21
-3.95
-3.87
-3.81
-3.61
-3.19
-2.60
-1.97
-1.44
-1.04
-0.76
-0.51
-0.21
0.12
0.41
0.59
0.59
0.44
0.21
0.00
-0.09
-0.03
0.17
0.45
0.74
1.01
1.25
1.45
1.62
1.71
1.70
1.55
1.29
1.01
0.83
0.82
0.98
1.25
1.50
1.62
1.57
1.39
1.15
0.95
0.87
0.92
1.09
1.36
1.71
2.11
2.48
2.75
2.85
2.79
2.63
2.51
2.52
2.71
3.03
3.38
3.63
3.71
3.59
3.34
3.04
2.75
2.50
2.22
1.88
1.46
0.99
0.55
0.20
-0.03
-0.18
-0.34
-0.59
-0.94
-1.39
-1.86
-2.31
-2.70
-3.02
-3.24
-3.34
-3.31
-3.18
-3.00
-2.81
-2.70
-2.67
-2.74
-2.87
-2.98
-2.99
-2.82
-2.45
-1.92
-1.34
-0.82
-0.45
-0.25
-0.14
-0.06
0.04
0.18
0.35
0.54
0.74
0.95
1.17
1.37
1.51
1.58
1.58
1.53
1.42
1.26
1.02
0.73
0.43
0.21
0.11
0.11
0.13
0.08
-0.12
-0.48
-0.95
-1.46
-1.94
-2.31
-2.52
-2.57
-2.47
-2.28
-2.09
-1.98
-1.99
-2.08
-2.18
-2.23
-2.22
-2.16
-2.11
-2.10
-2.13
-2.17
-2.18
-2.13
-1.97
-1.71
-1.36
-0.99
-0.67
-0.50
-0.51
-0.63
-0.75
-0.73
-0.50
-0.10
0.31
0.55
0.52
0.23
-0.19
-0.57
-0.81
-0.88
-0.86
-0.80
-0.74
-0.67
-0.56
-0.41
-0.25
-0.13
-0.06
-0.01
0.04
0.12
0.19
0.20
0.11
-0.06
-0.22
-0.27
-0.15
0.12
0.46
0.73
0.81
0.69
0.40
0.06
-0.26
-0.53
-0.76
-0.93
-1.01
-0.92
-0.60
-0.10
0.42
0.75
0.72
0.35
-0.20
-0.69
-0.93
-0.84
-0.54
-0.16
0.15
0.33
0.41
0.41
0.35
0.21
-0.01
-0.28
-0.51
-0.59
-0.47
-0.14
0.31
0.77
1.11
1.27
1.22
0.98
0.60
0.16
-0.25
-0.53
-0.65
-0.61
-0.46
-0.28
-0.13
-0.02
0.08
0.23
0.43
0.65
0.84
0.92
0.87
0.73
0.54
0.40
0.38
0.52
0.83
1.25
1.67
1.98
2.11
2.06
1.91
1.74
1.61
1.53
1.44
1.28
1.06
0.82
0.62
0.50
0.43
0.34
0.16
-0.14
-0.48
-0.76
-0.88
-0.84
-0.71
-0.60
-0.59
-0.72
-0.93
-1.14
-1.30
-1.36
-1.35
-1.28
-1.21
-1.16
-1.15
-1.20
-1.28
-1.38
-1.46
-1.47
-1.41
-1.26
-1.02
-0.71
-0.37
-0.09
0.08
0.11
0.04
-0.06
-0.09
-0.03
0.08
0.15
0.13
0.05
-0.01
0.01
0.10
0.16
0.08
-0.14
-0.43
-0.64
-0.68
-0.56
-0.38
-0.24
-0.18
-0.14
-0.04
0.15
0.38
0.55
0.59
0.51
0.36
0.23
0.15
0.12
0.11
0.14
0.22
0.33
0.42
0.41
0.23
-0.09
-0.45
-0.75
-0.92
-0.97
-0.98
-1.01
-1.05
-1.04
-0.89
-0.61
-0.27
-0.01
0.10
0.07
-0.03
-0.10
-0.09
-0.04
-0.02
-0.08
-0.23
-0.41
-0.54
-0.56
-0.46
-0.27
-0.03
0.18
0.32
0.36
0.29
0.13
-0.07
-0.23
-0.28
-0.18
0.04
0.32
0.55
0.64
0.56
0.33
0.06
-0.15
-0.23
-0.13
0.11
0.46
0.86
1.23
1.50
1.61
1.54
1.32
1.00
0.65
0.29
-0.10
-0.52
-0.93
-1.27
-1.45
-1.39
-1.12
-0.73
-0.34
-0.04
0.12
0.17
0.15
0.10
0.04
-0.03
-0.12
-0.24
-0.36
-0.43
-0.41
-0.31
-0.17
-0.05
-0.02
-0.08
-0.17
-0.25
-0.29
-0.35
-0.47
-0.67
-0.87
-0.93
-0.73
-0.29
0.28
0.76
0.99
0.93
0.68
0.40
0.18
0.04
-0.07
-0.22
-0.38
-0.51
-0.50
-0.32
-0.02
0.31
0.58
0.73
0.75
0.68
0.60
0.56
0.58
0.66
0.76
0.83
0.83
0.74
0.56
0.36
0.18
0.08
0.06
0.08
0.04
-0.11
-0.40
-0.77
-1.09
-1.22
-1.11
-0.76
-0.29
0.19
0.57
0.79
0.87
0.80
0.62
0.36
0.09
-0.12
-0.22
-0.20
-0.08
0.10
0.28
0.41
0.47
0.46
0.40
0.34
0.30
0.32
0.36
0.40
0.37
0.26
0.07
-0.15
-0.35
-0.50
-0.59
-0.58
-0.45
-0.18
0.21
0.64
1.04
1.30
1.39
1.32
1.16
0.96
0.77
0.56
0.31
-0.02
-0.42
-0.80
-1.04
-1.06
-0.83
-0.47
-0.13
0.03
-0.06
-0.35
-0.70
-0.96
-1.05
-0.98
-0.85
-0.76
-0.76
-0.87
-1.02
-1.16
-1.23
-1.23
-1.15
-1.03
-0.85
-0.62
-0.33
-0.01
0.29
0.49
0.54
0.43
0.19
-0.07
-0.24
-0.23
-0.03
0.30
0.63
0.84
0.85
0.71
0.48
0.27
0.12
0.00
-0.13
-0.30
-0.48
-0.60
-0.59
-0.44
-0.21
0.02
0.19
0.27
0.30
0.32
0.32
0.30
0.22
0.06
-0.16
-0.39
-0.57
-0.65
-0.59
-0.40
-0.13
0.15
0.34
0.37
0.23
-0.05
-0.36
-0.62
-0.76
-0.78
-0.71
-0.59
-0.45
-0.29
-0.10
0.10
0.32
0.50
0.62
0.66
0.60
0.51
0.42
0.39
0.43
0.51
0.59
0.60
0.54
0.43
0.26
0.04
-0.27
-0.63
-0.99
-1.21
-1.19
-0.88
-0.38
0.14
0.49
0.57
0.43
0.21
0.07
0.07
0.18
0.30
0.32
0.20
-0.05
-0.31
-0.51
-0.56
-0.45
-0.20
0.13
0.46
0.70
0.79
0.73
0.54
0.30
0.10
-0.00
0.02
0.16
0.40
0.68
0.94
1.12
1.14
0.95
0.59
0.13
-0.30
-0.62
-0.78
-0.84
-0.83
-0.77
-0.63
-0.37
-0.04
0.29
0.46
0.38
0.08
-0.33
-0.67
-0.82
-0.75
-0.51
-0.22
0.03
0.18
0.22
0.16
0.02
-0.17
-0.36
-0.50
-0.53
-0.42
-0.20
0.08
0.34
0.54
0.65
0.70
0.69
0.64
0.56
0.43
0.21
-0.09
-0.42
-0.72
-0.92
-0.95
-0.82
-0.57
-0.27
-0.01
0.18
0.26
0.25
0.16
0.02
-0.11
-0.19
-0.17
-0.04
0.17
0.40
0.54
0.54
0.40
0.17
-0.04
-0.14
-0.06
0.18
0.51
0.82
1.00
1.00
0.83
0.54
0.24
-0.01
-0.17
-0.25
-0.30
-0.36
-0.42
-0.47
-0.47
-0.38
-0.23
-0.06
0.05
0.05
-0.10
-0.34
-0.60
-0.79
-0.84
-0.75
-0.59
-0.44
-0.40
-0.49
-0.69
-0.91
-1.04
-1.02
-0.87
-0.65
-0.40
-0.18
0.03
0.26
0.52
0.77
0.93
0.88
0.58
0.08
-0.48
-0.92
-1.10
-0.96
-0.60
-0.16
0.20
0.42
0.54
0.63
0.75
0.86
0.91
0.84
0.66
0.50
0.45
0.57
0.78
0.96
0.99
0.87
0.67
0.54
0.56
0.71
0.88
0.91
0.73
0.35
-0.16
-0.65
-1.01
-1.17
-1.12
-0.91
-0.62
-0.36
-0.17
-0.07
-0.06
-0.09
-0.13
-0.17
-0.21
-0.27
-0.33
-0.35
-0.31
-0.17
0.01
0.18
0.24
0.14
-0.09
-0.38
-0.62
-0.73
-0.66
-0.43
-0.10
0.23
0.47
0.59
0.57
0.46
0.30
0.14
-0.03
-0.21
-0.38
-0.48
-0.43
-0.17
0.28
0.79
1.18
1.30
1.12
0.74
0.32
0.00
-0.18
-0.26
-0.31
-0.36
-0.37
-0.28
-0.06
0.24
0.51
0.63
0.54
0.25
-0.15
-0.53
-0.77
-0.83
-0.72
-0.50
-0.26
-0.05
0.07
0.07
-0.03
-0.20
-0.38
-0.51
-0.53
-0.45
-0.31
-0.14
-0.01
0.10
0.20
0.31
0.42
0.50
0.46
0.30
0.06
-0.15
-0.23
-0.14
0.10
0.37
0.56
0.58
0.43
0.19
-0.05
-0.20
-0.21
-0.07
0.17
0.47
0.74
0.90
0.89
0.72
0.46
0.21
0.06
0.06
0.16
0.29
0.38
0.37
0.31
0.22
0.15
0.11
0.10
0.09
0.06
-0.01
-0.12
-0.29
-0.52
-0.78
-1.06
-1.32
-1.51
-1.56
-1.43
-1.10
-0.61
-0.08
0.37
0.60
0.57
0.32
-0.04
-0.35
-0.52
-0.51
-0.34
-0.10
0.16
0.38
0.55
0.65
0.68
0.61
0.46
0.26
0.06
-0.11
-0.24
-0.36
-0.48
-0.60
-0.64
-0.54
-0.27
0.09
0.42
0.55
0.44
0.12
-0.22
-0.41
-0.35
-0.06
0.33
0.66
0.84
0.85
0.72
0.52
0.29
0.09
-0.05
-0.12
-0.12
-0.07
-0.01
0.02
0.04
0.08
0.18
0.35
0.55
0.73
0.79
0.67
0.37
-0.06
-0.54
-0.92
-1.10
-1.07
-0.89
-0.72
-0.69
-0.80
-0.96
-1.04
-0.96
-0.78
-0.61
-0.54
-0.54
-0.52
-0.36
-0.05
0.28
0.49
0.47
0.28
0.07
-0.02
0.06
0.25
0.40
0.43
0.34
0.22
0.15
0.18
0.28
0.38
0.44
0.44
0.44
0.48
0.59
0.71
0.78
0.71
0.51
0.24
0.00
-0.11
-0.11
-0.06
-0.06
-0.17
-0.38
-0.62
-0.81
-0.87
-0.80
-0.64
-0.41
-0.14
0.17
0.50
0.77
0.91
0.83
0.56
0.18
-0.18
-0.40
-0.42
-0.28
-0.06
0.12
0.20
0.15
-0.01
-0.24
-0.48
-0.68
-0.79
-0.79
-0.65
-0.39
-0.01
0.39
0.72
0.89
0.84
0.61
0.28
-0.02
-0.22
-0.30
-0.31
-0.31
-0.29
-0.23
-0.13
-0.01
0.03
-0.05
-0.22
-0.36
-0.33
-0.12
0.22
0.51
0.63
0.55
0.35
0.16
0.04
0.01
-0.02
-0.08
-0.17
-0.22
-0.18
-0.05
0.11
0.25
0.32
0.31
0.27
0.21
0.13
0.02
-0.11
-0.23
-0.28
-0.22
-0.03
0.24
0.52
0.78
0.96
1.04
0.98
0.78
0.50
0.22
0.05
0.08
0.29
0.57
0.76
0.73
0.46
0.02
-0.42
-0.73
-0.85
-0.82
-0.72
-0.62
-0.53
-0.44
-0.36
-0.28
-0.21
-0.15
-0.08
0.02
0.15
0.27
0.32
0.27
0.13
-0.03
-0.16
-0.22
-0.23
-0.25
-0.29
-0.38
-0.47
-0.51
-0.48
-0.41
-0.33
-0.29
-0.28
-0.28
-0.27
-0.20
-0.10
-0.05
-0.11
-0.33
-0.64
-0.93
-1.05
-0.95
-0.68
-0.38
-0.17
-0.10
-0.08
-0.01
0.20
0.50
0.77
0.87
0.74
0.49
0.28
0.24
0.39
0.60
0.71
0.63
0.40
0.18
0.13
0.30
0.61
0.85
0.85
0.57
0.12
-0.32
-0.56
-0.55
-0.34
-0.08
0.11
0.18
0.17
0.13
0.10
0.11
0.18
0.27
0.36
0.41
0.38
0.25
0.06
-0.13
-0.23
-0.19
-0.01
0.25
0.49
0.60
0.51
0.23
-0.18
-0.64
-1.02
-1.26
-1.30
-1.17
-0.94
-0.67
-0.41
-0.16
0.07
0.29
0.49
0.65
0.75
0.78
0.76
0.70
0.62
0.53
0.43
0.27
0.07
-0.14
-0.31
-0.32
-0.15
0.18
0.56
0.87
1.02
1.01
0.89
0.74
0.54
0.29
-0.03
-0.37
-0.62
-0.67
-0.51
-0.26
-0.09
-0.12
-0.33
-0.57
-0.68
-0.56
-0.26
0.06
0.25
0.22
0.03
-0.21
-0.40
-0.47
-0.44
-0.33
-0.18
0.03
0.30
0.61
0.89
1.06
1.03
0.79
0.42
0.03
-0.26
-0.43
-0.51
-0.55
-0.58
-0.57
-0.46
-0.26
-0.00
0.20
0.26
0.13
-0.12
-0.38
-0.52
-0.47
-0.25
0.07
0.39
0.60
0.64
0.51
0.28
0.04
-0.14
-0.21
-0.18
-0.10
-0.02
0.01
-0.03
-0.15
-0.31
-0.46
-0.57
-0.60
-0.53
-0.40
-0.25
-0.12
-0.05
-0.03
-0.02
-0.02
0.03
0.12
0.25
0.38
0.45
0.43
0.33
0.18
0.04
-0.05
-0.08
-0.02
0.08
0.21
0.35
0.44
0.44
0.31
0.05
-0.27
-0.56
-0.73
-0.77
-0.69
-0.54
-0.39
-0.27
-0.17
-0.11
-0.06
-0.04
-0.03
-0.03
-0.01
0.05
0.14
0.23
0.28
0.29
0.29
0.30
0.37
0.47
0.57
0.62
0.58
0.47
0.35
0.26
0.24
0.27
0.32
0.34
0.30
0.19
0.03
-0.17
-0.36
-0.49
-0.51
-0.42
-0.29
-0.18
-0.18
-0.27
-0.41
-0.51
-0.52
-0.44
-0.32
-0.21
-0.16
-0.15
-0.16
-0.15
-0.09
0.01
0.14
0.29
0.40
0.45
0.38
0.21
-0.01
-0.17
-0.22
-0.13
0.02
0.14
0.15
0.02
-0.20
-0.44
-0.63
-0.73
-0.71
-0.59
-0.37
-0.11
0.15
0.36
0.46
0.47
0.43
0.40
0.40
0.43
0.44
0.39
0.24
0.01
-0.25
-0.49
-0.64
-0.69
-0.60
-0.38
-0.09
0.20
0.41
0.46
0.32
0.06
-0.26
-0.53
-0.69
-0.73
-0.69
-0.61
-0.50
-0.34
-0.15
0.05
0.19
0.21
0.08
-0.15
-0.35
-0.40
-0.23
0.12
0.53
0.85
0.99
0.95
0.80
0.62
0.46
0.35
0.29
0.27
0.28
0.29
0.26
0.15
-0.09
-0.41
-0.74
-0.95
-0.97
-0.77
-0.42
-0.02
0.30
0.46
0.45
0.28
0.02
-0.25
-0.44
-0.49
-0.40
-0.19
0.07
0.32
0.52
0.65
0.71
0.73
0.70
0.62
0.52
0.44
0.39
0.37
0.32
0.15
-0.18
-0.64
-1.09
-1.36
-1.35
-1.05
-0.60
-0.19
0.03
0.01
-0.20
-0.44
-0.58
-0.54
-0.33
-0.06
0.19
0.33
0.36
0.31
0.26
0.28
0.38
0.54
0.70
0.80
0.77
0.60
0.31
-0.05
-0.39
-0.62
-0.66
-0.48
-0.14
0.23
0.47
0.47
0.26
-0.06
-0.32
-0.40
-0.30
-0.11
0.01
-0.02
-0.20
-0.42
-0.54
-0.44
-0.11
0.34
0.80
1.13
1.26
1.17
0.92
0.59
0.25
-0.05
-0.26
-0.38
-0.39
-0.33
-0.23
-0.16
-0.13
-0.11
-0.05
0.12
0.40
0.73
1.01
1.14
1.03
0.69
0.17
-0.38
-0.81
-1.02
-0.93
-0.60
-0.12
0.36
0.69
0.78
0.63
0.29
-0.13
-0.53
-0.84
-1.02
-1.07
-1.01
-0.88
-0.70
-0.48
-0.22
0.07
0.33
0.48
0.47
0.33
0.12
-0.06
-0.16
-0.18
-0.17
-0.17
-0.18
-0.14
-0.03
0.16
0.35
0.44
0.39
0.22
0.02
-0.14
-0.17
-0.11
0.00
0.07
0.06
-0.05
-0.23
-0.46
-0.67
-0.81
-0.86
-0.78
-0.58
-0.31
-0.02
0.21
0.33
0.35
0.28
0.17
0.08
0.02
-0.02
-0.03
-0.02
0.02
0.07
0.13
0.16
0.14
0.07
-0.03
-0.09
-0.07
0.05
0.27
0.53
0.76
0.91
0.92
0.77
0.49
0.12
-0.27
-0.61
-0.81
-0.81
-0.62
-0.26
0.16
0.54
0.78
0.77
0.50
-0.01
-0.67
-1.36
-1.92
-2.30
-2.49
-2.58
-2.67
-2.86
-3.12
-3.37
-3.53
-3.58
-3.61
-3.75
-4.10
-4.65
-5.28
-5.84
-6.23
-6.48
-6.77
-7.31
-8.27
-9.68
-11.38
-13.07
-14.48
-15.50
-16.21
-16.89
-17.86
-19.31
-21.22
-23.34
-25.37
-27.09
-28.49
-29.75
-31.14
-32.83
-34.82
-36.97
-39.07
-41.02
-42.87
-44.78
-46.92
-49.30
-51.83
-54.30
-56.67
-59.12
-61.96
-65.30
-68.62
-70.62
-69.55
-63.90
-53.17
-38.23
-21.05
-3.94
11.30
23.81
33.55
40.83
45.81
48.53
49.20
48.65
48.40
50.27
55.49
64.16
75.06
86.32
96.32
104.54
111.78
119.68
129.65
142.05
155.82
168.93
179.42
186.33
190.14
192.47
195.27
200.07
207.44
217.04
227.87
238.41
246.78
250.72
247.92
236.48
215.53
185.57
148.23
105.50
59.02
9.86
-40.89
-91.25
-137.90
-176.59
-203.59
-217.15
-218.38
-210.75
-198.62
-185.55
-173.34
-162.11
-151.23
-140.32
-129.73
-120.25
-112.47
-106.29
-100.90
-95.32
-88.93
-81.82
-74.73
-68.65
-64.26
-61.61
-60.10
-58.76
-56.67
-53.33
-48.76
-43.48
-38.17
-33.42
-29.51
-26.42
-23.83
-21.42
-18.88
-16.16
-13.36
-10.75
-8.59
-7.06
-6.13
-5.62
-5.27
-4.86
-4.31
-3.69
-3.19
-3.00
-3.20
-3.73
-4.39
-4.88
-4.98
-4.56
-3.69
-2.54
-1.34
-0.27
0.54
1.04
1.21
1.02
0.49
-0.28
-1.16
-1.96
-2.59
-3.08
-3.55
-4.13
-4.85
-5.64
-6.39
-7.02
-7.55
-8.04
-8.57
-9.16
-9.77
-10.35
-10.92
-11.57
-12.38
-13.35
-14.42
-15.50
-16.62
-17.93
-19.67
-22.01
-24.93
-28.19
-31.36
-34.05
-36.08
-37.57
-38.96
-40.81
-43.60
-47.43
-51.98
-56.58
-60.41
-62.93
-64.07
-64.25
-64.17
-64.58
-66.01
-68.59
-72.00
-75.43
-77.88
-78.42
-76.79
-73.80
-71.46
-72.48
-79.07
-91.63
-107.79
-122.56
-129.64
-123.43
-100.85
-62.42
-12.15
43.58
97.72
144.25
179.43
202.24
214.03
217.47
215.48
210.27
203.17
194.85
185.95
177.46
170.64
166.65
166.10
168.86
174.03
179.94
184.02
182.76
172.33
149.93
115.30
71.65
25.17
-16.98
-49.13
-68.94
-77.63
-78.60
-75.50
-70.71
-65.18
-59.11
-52.94
-47.73
-44.75
-44.64
-46.85
-49.78
-51.48
-50.63
-47.11
-41.91
-36.65
-32.72
-30.68
-30.16
-30.14
-29.54
-27.77
-24.89
-21.56
-18.60
-16.58
-15.63
-15.40
-15.29
-14.76
-13.53
-11.67
-9.53
-7.53
-6.03
-5.14
-4.75
-4.58
-4.30
-3.71
-2.80
-1.74
-0.83
-0.29
-0.17
-0.36
-0.60
-0.68
-0.52
-0.19
0.11
0.24
0.22
0.25
0.62
1.56
3.13
5.16
7.35
9.41
11.15
12.54
13.68
14.69
15.61
16.44
17.08
17.43
17.41
17.03
16.32
15.40
14.35
13.26
12.15
11.10
10.18
9.48
9.07
8.88
8.73
8.30
7.36
5.80
3.77
1.57
-0.50
-2.24
-3.69
-5.05
-6.56
-8.35
-10.32
-12.21
-13.68
-14.49
-14.62
-14.23
-13.59
-12.94
-12.37
-11.86
-11.31
-10.71
-10.11
-9.63
-9.35
-9.23
-9.14
-8.90
-8.41
-7.67
-6.77
-5.88
-5.10
-4.47
-3.99
-3.60
-3.30
-3.06
-2.86
-2.67
-2.47
-2.20
-1.84
-1.40
-0.93
-0.48
-0.15
-0.00
-0.05
-0.24
-0.47
-0.61
-0.60
-0.46
-0.28
-0.14
-0.07
-0.03
0.06
0.26
0.53
0.76
0.84
0.75
0.53
0.32
0.25
0.35
0.58
0.86
1.08
1.21
1.23
1.18
1.13
1.11
1.12
1.16
1.19
1.21
1.21
1.20
1.20
1.22
1.24
1.22
1.14
1.01
0.88
0.78
0.75
0.78
0.82
0.82
0.73
0.55
0.27
-0.06
-0.39
-0.66
-0.81
-0.84
-0.78
-0.67
-0.54
-0.45
-0.41
-0.43
-0.53
-0.70
-0.98
-1.37
-1.86
-2.36
-2.77
-2.97
-2.89
-2.54
-2.03
-1.52
-1.19
-1.13
-1.32
-1.63
-1.91
-2.02
-1.92
-1.66
-1.32
-0.99
-0.74
-0.57
-0.48
-0.49
-0.57
-0.74
-0.97
-1.18
-1.31
-1.30
-1.17
-0.95
-0.72
-0.52
-0.37
-0.22
-0.05
0.14
0.30
0.36
0.30
0.12
-0.08
-0.18
-0.10
0.15
0.48
0.75
0.88
0.87
0.76
0.63
0.52
0.37
0.12
-0.26
-0.69
-1.02
-1.09
-0.84
-0.35
0.20
0.60
0.71
0.56
0.25
-0.06
-0.24
-0.28
-0.17
0.01
0.21
0.40
0.54
0.65
0.70
0.70
0.65
0.56
0.44
0.31
0.19
0.11
0.08
0.06
0.04
-0.02
-0.08
-0.12
-0.08
0.03
0.14
0.20
0.14
-0.00
-0.17
-0.29
-0.34
-0.38
-0.45
-0.58
-0.70
-0.69
-0.45
-0.01
0.53
0.99
1.24
1.25
1.08
0.82
0.57
0.36
0.18
0.01
-0.11
-0.16
-0.12
0.01
0.16
0.27
0.30
0.25
0.15
0.03
-0.09
-0.21
-0.32
-0.38
-0.35
-0.20
0.05
0.32
0.51
0.55
0.40
0.14
-0.15
-0.37
-0.47
-0.44
-0.32
-0.18
-0.06
-0.01
-0.05
-0.19
-0.40
-0.61
-0.75
-0.79
-0.71
-0.55
-0.36
-0.20
-0.08
-0.03
-0.05
-0.15
-0.29
-0.45
-0.56
-0.59
-0.49
-0.26
0.03
0.32
0.52
0.59
0.51
0.31
0.07
-0.12
-0.23
-0.23
-0.17
-0.07
0.05
0.19
0.33
0.42
0.41
0.26
0.02
-0.23
-0.36
-0.32
-0.13
0.12
0.31
0.37
0.29
0.16
0.01
-0.10
-0.17
-0.21
-0.23
-0.19
-0.07
0.13
0.36
0.54
0.58
0.44
0.16
-0.11
-0.23
-0.08
0.31
0.76
1.05
1.02
0.66
0.12
-0.38
-0.67
-0.72
-0.59
-0.38
-0.15
0.10
0.40
0.72
0.98
1.08
0.95
0.63
0.25
-0.03
-0.14
-0.08
0.08
0.23
0.31
0.30
0.22
0.11
-0.02
-0.14
-0.22
-0.22
-0.12
0.05
0.25
0.41
0.47
0.44
0.34
0.23
0.11
0.01
-0.09
-0.17
-0.22
-0.23
-0.21
-0.17
-0.13
-0.10
-0.08
-0.06
-0.08
-0.15
-0.27
-0.42
-0.52
-0.54
-0.43
-0.21
0.05
0.28
0.38
0.32
0.11
-0.17
-0.40
-0.48
-0.36
-0.12
0.13
0.26
0.21
0.07
-0.05
-0.01
0.18
0.44
0.64
0.66
0.52
0.28
0.05
-0.09
-0.12
-0.09
-0.05
-0.04
-0.06
-0.11
-0.16
-0.25
-0.41
-0.63
-0.87
-1.06
-1.09
-0.89
-0.51
-0.09
0.19
0.20
-0.04
-0.37
-0.57
-0.48
-0.12
0.33
0.64
0.67
0.45
0.18
0.04
0.12
0.36
0.58
0.62
0.41
0.01
-0.42
-0.78
-0.99
-1.03
-0.93
-0.70
-0.37
0.02
0.40
0.69
0.83
0.83
0.75
0.67
0.65
0.71
0.81
0.89
0.88
0.76
0.56
0.31
0.06
-0.16
-0.29
-0.32
-0.26
-0.13
0.03
0.19
0.35
0.50
0.61
0.66
0.66
0.58
0.45
0.30
0.15
0.01
-0.13
-0.26
-0.37
-0.45
-0.47
-0.45
-0.41
-0.38
-0.40
-0.44
-0.48
-0.47
-0.38
-0.21
0.03
0.29
0.53
0.67
0.68
0.57
0.36
0.13
-0.07
-0.23
-0.34
-0.44
-0.50
-0.52
-0.47
-0.36
-0.25
-0.19
-0.22
-0.33
-0.47
-0.54
-0.50
-0.31
-0.03
0.28
0.51
0.61
0.55
0.40
0.25
0.19
0.23
0.32
0.34
0.18
-0.14
-0.56
-0.93
-1.17
-1.24
-1.17
-1.04
-0.87
-0.68
-0.45
-0.18
0.12
0.40
0.64
0.84
1.00
1.12
1.15
1.04
0.78
0.38
-0.05
-0.37
-0.47
-0.34
-0.09
0.11
0.10
-0.15
-0.58
-0.99
-1.23
-1.21
-0.98
-0.66
-0.42
-0.30
-0.31
-0.37
-0.43
-0.47
-0.51
-0.56
-0.56
-0.45
-0.17
0.25
0.73
1.11
1.28
1.21
0.94
0.55
0.13
-0.26
-0.54
-0.65
-0.54
-0.22
0.19
0.55
0.73
0.71
0.58
0.46
0.48
0.61
0.77
0.84
0.75
0.50
0.17
-0.14
-0.40
-0.58
-0.70
-0.73
-0.68
-0.55
-0.37
-0.23
-0.17
-0.19
-0.24
-0.26
-0.20
-0.07
0.07
0.12
0.05
-0.11
-0.25
-0.26
-0.12
0.14
0.39
0.51
0.47
0.32
0.16
0.06
0.05
0.09
0.11
0.12
0.13
0.19
0.33
0.50
0.62
0.60
0.39
0.04
-0.36
-0.66
-0.74
-0.57
-0.21
0.18
0.47
0.53
0.37
0.07
-0.23
-0.42
-0.51
-0.53
-0.56
-0.60
-0.63
-0.57
-0.39
-0.13
0.14
0.34
0.44
0.47
0.49
0.54
0.64
0.77
0.88
0.94
0.93
0.88
0.81
0.72
0.58
0.38
0.09
-0.23
-0.49
-0.57
-0.41
-0.03
0.44
0.82
0.98
0.90
0.66
0.39
0.18
0.04
-0.04
-0.12
-0.17
-0.14
0.01
0.23
0.42
0.44
0.24
-0.13
-0.56
-0.92
-1.15
-1.25
-1.29
-1.28
-1.18
-0.92
-0.49
0.02
0.43
0.61
0.48
0.13
-0.30
-0.65
-0.86
-0.90
-0.83
-0.67
-0.44
-0.18
0.09
0.31
0.42
0.38
0.21
-0.02
-0.25
-0.39
-0.41
-0.32
-0.14
0.08
0.29
0.46
0.52
0.46
0.25
-0.06
-0.37
-0.56
-0.55
-0.35
-0.02
0.31
0.50
0.51
0.35
0.13
-0.06
-0.13
-0.08
0.05
0.19
0.27
0.25
0.11
-0.13
-0.44
-0.77
-1.04
-1.19
-1.15
-0.90
-0.48
0.01
0.45
0.70
0.72
0.54
0.28
0.04
-0.05
0.03
0.29
0.65
1.02
1.31
1.43
1.38
1.16
0.82
0.44
0.08
-0.19
-0.33
-0.35
-0.30
-0.26
-0.30
-0.46
-0.70
-0.93
-1.04
-0.97
-0.74
-0.45
-0.21
-0.11
-0.15
-0.25
-0.29
-0.18
0.07
0.39
0.63
0.72
0.64
0.47
0.30
0.19
0.12
0.04
-0.08
-0.26
-0.45
-0.61
-0.71
-0.74
-0.68
-0.49
-0.16
0.24
0.63
0.87
0.90
0.77
0.58
0.49
0.59
0.83
1.08
1.22
1.15
0.92
0.61
0.31
0.08
-0.07
-0.20
-0.33
-0.46
-0.55
-0.57
-0.48
-0.34
-0.20
-0.16
-0.24
-0.43
-0.65
-0.82
-0.88
-0.83
-0.69
-0.52
-0.36
-0.22
-0.12
-0.09
-0.12
-0.21
-0.29
-0.31
-0.23
-0.08
0.10
0.24
0.33
0.43
0.59
0.84
1.11
1.28
1.18
0.78
0.20
-0.32
-0.54
-0.36
0.13
0.69
1.03
1.00
0.61
0.06
-0.38
-0.50
-0.26
0.21
0.70
0.99
0.98
0.70
0.28
-0.11
-0.35
-0.46
-0.49
-0.56
-0.70
-0.88
-1.01
-1.00
-0.82
-0.50
-0.16
0.14
0.34
0.44
0.47
0.43
0.34
0.21
0.05
-0.10
-0.20
-0.22
-0.19
-0.16
-0.18
-0.27
-0.38
-0.45
-0.38
-0.15
0.19
0.55
0.80
0.88
0.75
0.49
0.17
-0.10
-0.23
-0.23
-0.12
0.02
0.11
0.10
-0.03
-0.22
-0.40
-0.52
-0.58
-0.58
-0.54
-0.47
-0.35
-0.14
0.14
0.45
0.69
0.75
0.57
0.20
-0.27
-0.70
-0.96
-1.02
-0.93
-0.79
-0.66
-0.59
-0.54
-0.48
-0.38
-0.26
-0.18
-0.15
-0.18
-0.22
-0.23
-0.20
-0.14
-0.09
-0.07
-0.07
-0.07
-0.03
0.08
0.26
0.48
0.68
0.79
0.74
0.55
0.29
0.09
0.06
0.22
0.50
0.73
0.80
0.65
0.38
0.12
-0.00
0.01
0.08
0.08
-0.02
-0.20
-0.33
-0.33
-0.17
0.05
0.22
0.22
0.03
-0.29
-0.61
-0.79
-0.80
-0.66
-0.46
-0.32
-0.32
-0.46
-0.69
-0.93
-1.07
-1.05
-0.87
-0.55
-0.17
0.19
0.44
0.55
0.54
0.51
0.56
0.73
0.98
1.17
1.19
1.03
0.74
0.45
0.26
0.19
0.17
0.11
-0.02
-0.18
-0.30
-0.30
-0.22
-0.12
-0.06
-0.07
-0.09
-0.05
0.11
0.39
0.70
0.90
0.91
0.69
0.35
0.03
-0.15
-0.14
-0.00
0.15
0.22
0.22
0.21
0.25
0.38
0.53
0.65
0.68
0.62
0.54
0.47
0.43
0.37
0.27
0.10
-0.10
-0.32
-0.50
-0.64
-0.71
-0.71
-0.62
-0.47
-0.31
-0.19
-0.20
-0.34
-0.58
-0.80
-0.91
-0.84
-0.60
-0.29
0.01
0.23
0.37
0.50
0.64
0.78
0.83
0.70
0.36
-0.12
-0.60
-0.94
-1.08
-1.06
-0.97
-0.86
-0.77
-0.67
-0.52
-0.31
-0.11
0.04
0.08
0.01
-0.10
-0.19
-0.16
0.03
0.36
0.76
1.11
1.30
1.27
1.01
0.60
0.17
-0.16
-0.31
-0.28
-0.13
0.04
0.11
0.04
-0.12
-0.30
-0.37
-0.28
-0.06
0.17
0.30
0.26
0.09
-0.08
-0.15
-0.07
0.10
0.28
0.42
0.51
0.58
0.66
0.69
0.61
0.38
0.06
-0.25
-0.41
-0.37
-0.19
0.00
0.06
-0.06
-0.33
-0.60
-0.75
-0.74
-0.63
-0.53
-0.57
-0.76
-1.04
-1.25
-1.26
-1.01
-0.58
-0.13
0.18
0.27
0.20
0.10
0.12
0.31
0.59
0.83
0.92
0.83
0.63
0.43
0.32
0.29
0.31
0.28
0.17
-0.00
-0.18
-0.29
-0.31
-0.25
-0.12
0.00
0.11
0.17
0.17
0.13
0.04
-0.05
-0.11
-0.07
0.06
0.27
0.48
0.60
0.56
0.33
-0.02
-0.38
-0.62
-0.66
-0.48
-0.16
0.17
0.37
0.39
0.25
0.03
-0.18
-0.31
-0.38
-0.40
-0.41
-0.43
-0.45
-0.43
-0.36
-0.24
-0.08
0.10
0.26
0.40
0.51
0.58
0.61
0.60
0.51
0.33
0.06
-0.24
-0.55
-0.80
-0.97
-1.06
-1.05
-0.91
-0.67
-0.38
-0.13
-0.00
-0.04
-0.17
-0.30
-0.28
-0.10
0.17
0.38
0.41
0.23
-0.06
-0.30
-0.35
-0.20
0.05
0.27
0.31
0.16
-0.11
-0.38
-0.54
-0.54
-0.39
-0.17
0.05
0.23
0.35
0.43
0.45
0.40
0.25
-0.01
-0.33
-0.60
-0.68
-0.48
0.02
0.68
1.33
1.73
1.76
1.41
0.79
0.11
-0.41
-0.66
-0.61
-0.36
-0.10
0.04
-0.04
-0.27
-0.53
-0.67
-0.62
-0.41
-0.16
-0.01
-0.03
-0.21
-0.44
-0.60
-0.64
-0.54
-0.36
-0.16
0.01
0.13
0.23
0.31
0.38
0.42
0.40
0.30
0.11
-0.11
-0.31
-0.39
-0.30
-0.06
0.25
0.52
0.63
0.52
0.26
-0.03
-0.24
-0.28
-0.16
0.05
0.25
0.41
0.53
0.63
0.76
0.86
0.87
0.74
0.45
0.10
-0.21
-0.38
-0.38
-0.26
-0.11
-0.03
-0.06
-0.19
-0.38
-0.58
-0.73
-0.81
-0.81
-0.75
-0.65
-0.54
-0.47
-0.48
-0.57
-0.74
-0.92
-1.07
-1.11
-0.98
-0.64
-0.15
0.42
0.97
1.37
1.55
1.46
1.12
0.60
-0.02
-0.58
-0.95
-1.01
-0.73
-0.16
0.56
1.27
1.80
2.05
2.01
1.75
1.36
0.95
0.60
0.32
0.13
-0.02
-0.16
-0.28
-0.38
-0.41
-0.35
-0.19
0.02
0.19
0.24
0.15
-0.05
-0.28
-0.47
-0.55
-0.55
-0.49
-0.40
-0.27
-0.09
0.15
0.43
0.67
0.81
0.80
0.66
0.47
0.30
0.26
0.37
0.59
0.85
1.05
1.08
0.92
0.62
0.30
0.06
-0.04
-0.05
-0.04
-0.10
-0.24
-0.40
-0.50
-0.46
-0.28
-0.03
0.16
0.22
0.13
-0.03
-0.20
-0.29
-0.31
-0.25
-0.15
-0.02
0.12
0.22
0.25
0.17
-0.00
-0.19
-0.27
-0.16
0.12
0.46
0.71
0.75
0.59
0.31
0.05
-0.15
-0.26
-0.32
-0.34
-0.31
-0.23
-0.11
-0.03
-0.06
-0.27
-0.59
-0.92
-1.11
-1.08
-0.84
-0.48
-0.10
0.21
0.43
0.57
0.66
0.74
0.81
0.84
0.81
0.70
0.53
0.33
0.16
0.06
0.06
0.15
0.30
0.44
0.53
0.52
0.42
0.24
0.02
-0.22
-0.44
-0.66
-0.85
-1.02
-1.11
-1.06
-0.85
-0.49
-0.06
0.29
0.43
0.30
-0.03
-0.43
-0.74
-0.87
-0.81
-0.63
-0.41
-0.24
-0.13
-0.09
-0.12
-0.20
-0.33
-0.47
-0.59
-0.64
-0.60
-0.45
-0.20
0.11
0.42
0.67
0.83
0.87
0.81
0.68
0.51
0.33
0.18
0.08
0.06
0.14
0.29
0.45
0.56
0.55
0.43
0.24
0.09
0.05
0.16
0.38
0.60
0.69
0.57
0.25
-0.21
-0.65
-0.96
-1.06
-0.96
-0.76
-0.54
-0.39
-0.36
-0.46
-0.65
-0.91
-1.15
-1.31
-1.31
-1.15
-0.87
-0.54
-0.25
-0.01
0.19
0.38
0.56
0.69
0.72
0.61
0.39
0.14
-0.07
-0.17
-0.20
-0.21
-0.28
-0.42
-0.58
-0.69
-0.72
-0.65
-0.53
-0.39
-0.29
-0.24
-0.25
-0.33
-0.47
-0.64
-0.81
-0.93
-0.96
-0.91
-0.85
-0.83
-0.84
-0.81
-0.67
-0.34
0.15
0.70
1.16
1.43
1.50
1.45
1.36
1.30
1.27
1.19
0.99
0.66
0.24
-0.17
-0.42
-0.41
-0.14
0.30
0.74
1.02
1.02
0.76
0.38
0.02
-0.19
-0.25
-0.20
-0.13
-0.08
-0.05
-0.01
0.03
0.03
-0.07
-0.30
-0.61
-0.91
-1.07
-1.02
-0.77
-0.41
-0.09
0.08
0.08
-0.06
-0.24
-0.37
-0.39
-0.29
-0.09
0.18
0.48
0.75
0.93
0.95
0.76
0.41
-0.02
-0.40
-0.60
-0.56
-0.28
0.18
0.69
1.13
1.41
1.48
1.36
1.15
0.95
0.86
0.95
1.18
1.48
1.70
1.73
1.51
1.09
0.54
0.03
-0.34
-0.47
-0.37
-0.09
0.24
0.51
0.61
0.51
0.25
-0.07
-0.34
-0.45
-0.40
-0.26
-0.15
-0.17
-0.38
-0.75
-1.16
-1.47
-1.57
-1.43
-1.11
-0.71
-0.34
-0.10
-0.01
-0.07
-0.20
-0.33
-0.39
-0.33
-0.15
0.09
0.36
0.57
0.71
0.75
0.71
0.61
0.45
0.25
0.02
-0.20
-0.34
-0.36
-0.24
-0.02
0.22
0.42
0.52
0.52
0.47
0.43
0.43
0.46
0.50
0.51
0.47
0.39
0.25
0.04
-0.20
-0.44
-0.61
-0.65
-0.59
-0.52
-0.53
-0.71
-1.03
-1.40
-1.68
-1.76
-1.65
-1.42
-1.20
-1.05
-1.00
-0.99
-0.98
-0.91
-0.82
-0.78
-0.84
-1.04
-1.39
-1.83
-2.33
-2.84
-3.34
-3.81
-4.23
-4.60
-4.91
-5.20
-5.51
-5.90
-6.38
-6.93
-7.53
-8.21
-9.02
-10.04
-11.31
-12.81
-14.46
-16.12
-17.69
-19.12
-20.42
-21.67
-22.98
-24.49
-26.29
-28.38
-30.54
-32.36
-33.27
-32.74
-30.36
-25.95
-19.62
-11.68
-2.72
6.43
14.76
21.23
25.05
25.98
24.41
21.31
17.84
14.94
12.95
11.57
10.11
7.92
4.71
0.77
-3.19
-6.40
-8.44
-9.49
-10.31
-11.90
-15.04
-19.83
-25.60
-31.14
-35.26
-37.35
-37.65
-37.19
-37.30
-39.05
-42.97
-49.08
-57.03
-65.90
-73.91
-78.14
-75.03
-61.70
-37.52
-4.98
30.98
65.00
93.67
116.75
136.47
155.51
174.93
193.46
208.49
218.02
222.12
223.02
223.99
227.71
235.18
245.41
255.83
263.13
264.02
255.98
237.81
209.74
173.10
129.59
80.75
28.02
-26.51
-79.43
-126.01
-161.29
-181.99
-187.96
-182.40
-170.57
-157.67
-146.96
-139.15
-133.10
-127.15
-120.39
-112.97
-105.75
-99.52
-94.46
-90.12
-85.74
-80.71
-74.91
-68.76
-62.97
-58.16
-54.58
-52.04
-50.02
-47.92
-45.35
-42.26
-38.90
-35.61
-32.68
-30.14
-27.82
-25.48
-22.97
-20.34
-17.83
-15.71
-14.16
-13.14
-12.45
-11.81
-10.99
-9.94
-8.80
-7.86
-7.44
-7.75
-8.82
-10.43
-12.26
-13.94
-15.22
-16.05
-16.53
-16.93
-17.48
-18.38
-19.70
-21.35
-23.18
-25.00
-26.75
-28.57
-30.82
-33.89
-37.93
-42.61
-47.06
-50.19
-51.29
-50.49
-48.95
-48.49
-50.86
-56.91
-66.23
-77.36
-88.49
-98.25
-106.24
-113.03
-119.70
-127.32
-136.62
-148.00
-161.60
-177.24
-194.02
-209.99
-222.02
-226.46
-220.27
-202.16
-173.08
-135.80
-93.64
-49.12
-3.23
44.15
92.98
141.81
187.47
225.88
253.66
269.57
275.00
273.23
268.11
262.68
258.53
256.04
254.99
255.18
256.50
258.83
261.71
264.48
266.54
267.67
268.20
268.88
270.62
274.07
279.15
284.68
288.35
287.09
277.94
259.15
230.82
194.89
154.29
111.67
68.25
23.71
-22.99
-72.09
-121.82
-168.28
-206.48
-232.36
-244.36
-244.01
-235.11
-222.07
-208.26
-195.18
-182.84
-170.70
-158.60
-147.12
-137.12
-129.05
-122.54
-116.48
-109.65
-101.35
-91.73
-81.73
-72.57
-65.18
-59.77
-55.87
-52.53
-48.86
-44.35
-39.13
-33.75
-28.91
-25.07
-22.28
-20.20
-18.32
-16.20
-13.66
-10.81
-7.99
-5.56
-3.77
-2.73
-2.33
-2.33
-2.43
-2.37
-2.00
-1.34
-0.57
0.12
0.56
0.73
0.70
0.63
0.61
0.67
0.71
0.62
0.34
-0.10
-0.57
-0.94
-1.08
-0.98
-0.71
-0.39
-0.12
0.04
0.12
0.17
0.24
0.34
0.49
0.65
0.80
0.93
1.01
1.08
1.17
1.31
1.51
1.73
1.93
2.08
2.15
2.16
2.14
2.09
2.03
1.95
1.88
1.88
1.99
2.23
2.53
2.73
2.68
2.30
1.64
0.86
0.16
-0.32
-0.53
-0.55
-0.50
-0.53
-0.71
-1.06
-1.55
-2.07
-2.55
-2.88
-3.04
-3.05
-2.94
-2.77
-2.55
-2.24
-1.82
-1.30
-0.72
-0.14
0.35
0.73
0.97
1.07
1.03
0.87
0.58
0.21
-0.21
-0.67
-1.16
-1.69
-2.25
-2.80
-3.26
-3.54
-3.49
-3.03
-2.07
-0.68
0.95
2.48
3.51
3.69
2.90
1.29
-0.72
-2.58
-3.82
-4.18
-3.67
-2.51
-1.02
0.50
1.81
2.78
3.38
3.58
3.38
2.81
1.99
1.06
0.24
-0.32
-0.56
-0.53
-0.38
-0.29
-0.32
-0.47
-0.62
-0.65
-0.48
-0.09
0.45
1.09
1.75
2.34
2.78
3.00
3.00
2.85
2.74
2.82
3.12
3.55
3.91
4.02
3.83
3.44
3.04
2.81
2.77
2.83
2.81
2.59
2.10
1.37
0.47
-0.60
-1.86
-3.35
-5.06
-6.86
-8.55
