1660933163.00
64.000000
-0.00
-0.00
-0.00
-0.00
-0.00
-0.00
-0.00
-0.00
-0.00
-0.00
0.00
0.01
0.01
-0.00
-0.03
-0.05
-0.05
0.00
0.13
0.36
0.66
1.01
1.37
1.72
2.06
2.40
2.79
3.25
3.81
4.44
5.10
5.73
6.32
6.90
7.52
8.26
9.15
10.28
11.52
12.76
13.89
14.85
15.74
16.75
18.10
19.93
22.44
25.40
28.52
31.51
34.24
36.84
39.66
43.17
47.65
53.43
60.09
67.07
73.81
80.05
85.99
92.24
99.55
108.38
119.10
131.02
143.24
154.90
165.62
175.75
186.19
198.39
210.91
225.68
242.89
262.37
282.93
301.98
315.75
320.08
311.82
289.86
256.04
213.51
166.13
117.10
68.40
20.96
-24.70
-68.05
-108.56
-145.75
-180.19
-213.21
-246.52
-281.39
-317.82
-353.92
-386.01
-409.68
-421.09
-418.62
-403.53
-379.51
-351.20
-322.49
-295.48
-270.43
-246.68
-223.56
-201.25
-180.48
-161.95
-145.77
-131.32
-117.61
-103.85
-89.85
-76.04
-63.24
-52.13
-42.96
-35.39
-28.74
-22.30
-15.63
-8.77
-2.11
3.80
8.57
12.11
14.67
16.69
18.59
20.60
22.65
24.48
25.80
26.43
26.42
26.00
25.49
25.14
25.04
25.09
25.13
24.98
24.61
24.05
23.38
22.67
21.93
21.14
20.29
19.41
18.58
17.86
17.29
16.85
16.49
16.16
15.82
15.49
15.14
14.78
14.37
13.90
13.36
12.79
12.28
11.88
11.64
11.56
11.55
11.53
11.43
11.23
10.98
10.73
10.51
10.31
10.08
9.78
9.41
9.03
8.71
8.49
8.36
8.24
8.08
7.84
7.55
7.24
6.96
6.70
6.41
6.04
5.57
5.03
4.45
3.87
3.32
2.85
2.46
2.19
2.03
1.95
1.85
1.62
1.19
0.52
-0.32
-1.22
-2.09
-2.83
-3.39
-3.79
-4.07
-4.31
-4.59
-4.97
-5.51
-6.18
-6.91
-7.60
-8.14
-8.48
-8.62
-8.62
-8.57
-8.52
-8.49
-8.47
-8.40
-8.25
-8.02
-7.74
-7.42
-7.04
-6.55
-5.95
-5.27
-4.59
-3.99
-3.49
-3.02
-2.47
-1.77
-0.96
-0.16
0.46
0.84
1.04
1.18
1.42
1.79
2.21
2.53
2.66
2.61
2.50
2.46
2.57
2.80
3.02
3.12
3.04
2.86
2.73
2.77
3.01
3.39
3.75
3.97
4.00
3.88
3.75
3.74
3.94
4.32
4.76
5.12
5.28
5.21
4.98
4.71
4.51
4.42
4.39
4.33
4.19
3.98
3.76
3.59
3.48
3.37
3.25
3.12
3.05
3.10
3.31
3.58
3.79
3.83
3.66
3.35
3.02
2.77
2.64
2.60
2.61
2.64
2.70
2.77
2.77
2.62
2.28
1.81
1.38
1.17
1.26
1.60
2.00
2.26
2.26
2.07
1.84
1.72
1.76
1.87
1.91
1.78
1.49
1.16
0.94
0.90
1.02
1.17
1.23
1.17
1.04
0.92
0.89
0.95
1.02
1.01
0.87
0.61
0.33
0.14
0.17
0.43
0.86
1.35
1.72
1.87
1.78
1.53
1.26
1.10
1.05
1.06
1.01
0.84
0.59
0.34
0.20
0.20
0.31
0.47
0.60
0.68
0.68
0.61
0.47
0.28
0.08
-0.06
-0.06
0.12
0.44
0.81
1.16
1.43
1.60
1.69
1.70
1.61
1.43
1.16
0.89
0.73
0.73
0.90
1.15
1.36
1.41
1.26
0.94
0.55
0.20
-0.03
-0.08
0.05
0.32
0.65
0.93
1.07
1.04
0.88
0.69
0.55
0.48
0.43
0.33
0.18
0.01
-0.07
-0.02
0.12
0.25
0.24
0.07
-0.18
-0.34
-0.27
0.03
0.44
0.78
0.93
0.86
0.62
0.32
0.05
-0.14
-0.24
-0.25
-0.20
-0.14
-0.12
-0.21
-0.43
-0.73
-1.03
-1.21
-1.22
-1.07
-0.77
-0.35
0.18
0.77
1.38
1.90
2.27
2.45
2.48
2.48
2.57
2.78
3.06
3.30
3.35
3.16
2.76
2.26
1.77
1.36
1.07
0.89
0.82
0.85
0.94
1.04
1.06
0.96
0.79
0.60
0.47
0.41
0.34
0.18
-0.12
-0.49
-0.77
-0.83
-0.59
-0.15
0.35
0.75
0.95
0.95
0.80
0.58
0.36
0.15
-0.03
-0.17
-0.26
-0.25
-0.15
0.01
0.14
0.14
-0.04
-0.37
-0.75
-1.04
-1.13
-1.02
-0.76
-0.45
-0.16
0.06
0.20
0.29
0.33
0.37
0.39
0.42
0.42
0.40
0.34
0.27
0.23
0.24
0.30
0.37
0.38
0.32
0.18
0.02
-0.08
-0.07
0.07
0.32
0.62
0.91
1.11
1.18
1.13
0.99
0.78
0.55
0.32
0.11
-0.04
-0.10
-0.08
-0.02
0.03
0.03
-0.01
-0.06
-0.08
-0.07
-0.06
-0.09
-0.21
-0.40
-0.60
-0.78
-0.91
-1.00
-1.05
-1.04
-0.95
-0.77
-0.54
-0.30
-0.12
-0.05
-0.09
-0.23
-0.42
-0.62
-0.78
-0.90
-0.99
-1.08
-1.18
-1.31
-1.44
-1.56
-1.63
-1.63
-1.57
-1.46
-1.28
-1.05
-0.75
-0.42
-0.12
0.12
0.26
0.39
0.59
0.95
1.48
2.06
2.56
2.82
2.77
2.46
1.98
1.47
1.01
0.65
0.40
0.26
0.24
0.30
0.42
0.51
0.54
0.48
0.34
0.15
-0.03
-0.13
-0.14
-0.05
0.08
0.19
0.25
0.28
0.31
0.40
0.60
0.87
1.17
1.44
1.63
1.72
1.71
1.61
1.42
1.14
0.82
0.52
0.32
0.30
0.46
0.81
1.25
1.69
2.03
2.20
2.18
1.99
1.69
1.29
0.82
0.26
-0.37
-1.03
-1.60
-1.97
-2.07
-1.90
-1.55
-1.15
-0.82
-0.61
-0.51
-0.44
-0.32
-0.11
0.21
0.60
0.99
1.31
1.52
1.58
1.48
1.22
0.85
0.42
0.01
-0.31
-0.50
-0.56
-0.54
-0.51
-0.50
-0.53
-0.56
-0.53
-0.43
-0.29
-0.18
-0.17
-0.27
-0.45
-0.61
-0.66
-0.55
-0.31
-0.01
0.26
0.44
0.53
0.53
0.46
0.34
0.18
-0.02
-0.21
-0.36
-0.42
-0.38
-0.23
-0.03
0.16
0.30
0.36
0.34
0.29
0.21
0.11
0.00
-0.11
-0.20
-0.22
-0.15
0.02
0.25
0.48
0.61
0.61
0.47
0.25
-0.00
-0.24
-0.46
-0.66
-0.87
-1.06
-1.23
-1.33
-1.35
-1.29
-1.16
-0.97
-0.76
-0.54
-0.33
-0.14
0.03
0.21
0.43
0.67
0.90
1.01
0.92
0.61
0.13
-0.39
-0.80
-1.02
-1.05
-0.94
-0.80
-0.68
-0.61
-0.57
-0.58
-0.65
-0.82
-1.10
-1.44
-1.71
-1.76
-1.50
-0.93
-0.17
0.55
0.99
0.98
0.50
-0.32
-1.28
-2.12
-2.67
-2.88
-2.87
-2.85
-3.03
-3.57
-4.47
-5.59
-6.71
-7.60
-8.10
-8.21
-8.02
-7.70
-7.39
-7.13
-6.94
-6.79
-6.71
-6.75
-6.98
-7.43
-8.11
-8.98
-10.02
-11.18
-12.45
-13.86
-15.50
-17.60
-20.47
-24.35
-29.31
-35.07
-41.10
-46.80
-51.80
-56.13
-60.28
-64.94
-70.65
-77.53
-85.22
-93.07
-100.45
-107.06
-113.06
-118.99
-125.50
-133.12
-142.17
-152.80
-165.02
-178.59
-192.66
-205.39
-214.00
-215.32
-206.77
-187.28
-157.68
-120.12
-77.03
-30.22
19.28
70.40
120.95
167.29
205.01
230.65
243.26
244.97
240.08
233.18
227.37
223.49
220.63
217.43
213.29
208.82
205.39
204.22
205.61
208.82
212.45
215.22
216.50
216.71
217.07
219.00
223.51
230.69
239.73
249.25
257.75
263.78
266.06
263.20
253.86
237.01
212.28
180.37
142.80
101.31
57.14
10.68
-37.95
-87.98
-137.00
-181.06
-215.71
-237.70
-246.36
-243.83
-234.06
-221.12
-207.85
-195.26
-183.15
-171.04
-158.98
-147.62
-137.70
-129.48
-122.44
-115.59
-108.00
-99.30
-89.84
-80.50
-72.26
-65.69
-60.75
-56.85
-53.16
-48.94
-43.93
-38.38
-32.91
-28.17
-24.56
-22.06
-20.28
-18.68
-16.84
-14.60
-12.11
-9.71
-7.75
-6.42
-5.70
-5.41
-5.32
-5.23
-5.05
-4.79
-4.52
-4.29
-4.13
-4.02
-3.95
-3.91
-3.90
-3.85
-3.68
-3.26
-2.51
-1.41
-0.06
1.33
2.52
3.28
3.54
3.41
3.15
3.08
3.45
4.33
5.58
6.89
7.91
8.40
8.28
7.64
6.67
5.57
4.53
3.68
3.09
2.76
2.66
2.69
2.75
2.77
2.70
2.53
2.30
2.02
1.73
1.40
1.02
0.58
0.06
-0.53
-1.20
-1.90
-2.56
-3.07
-3.36
-3.41
-3.29
-3.15
-3.09
-3.12
-3.14
-2.99
-2.53
-1.76
-0.79
0.19
0.96
1.36
1.31
0.84
0.07
-0.80
-1.54
-1.96
-2.01
-1.79
-1.50
-1.31
-1.28
-1.39
-1.52
-1.60
-1.63
-1.66
-1.71
-1.78
-1.85
-1.91
-1.96
-2.04
-2.16
-2.30
-2.42
-2.43
-2.27
-1.89
-1.31
-0.59
0.11
0.63
0.82
0.70
0.40
0.17
0.26
0.77
1.65
2.67
3.51
3.93
3.80
3.14
2.12
0.96
-0.11
-0.90
-1.33
-1.37
-1.14
-0.76
-0.37
-0.11
-0.06
-0.29
-0.81
-1.57
-2.49
-3.43
-4.25
-4.85
-5.22
-5.40
-5.49
-5.57
-5.68
-5.79
-5.85
-5.76
-5.43
-4.76
-3.69
-2.13
-0.01
2.71
5.96
9.53
13.01
15.86
17.51
17.60
16.06
13.21
9.64
6.03
2.96
0.72
-0.65
-1.32
-1.49
-1.39
-1.14
-0.85
-0.60
-0.45
-0.49
-0.74
-1.16
-1.65
-2.09
-2.38
-2.44
-2.32
-2.08
-1.84
-1.71
-1.71
-1.80
-1.88
-1.84
-1.61
-1.21
-0.73
-0.28
0.04
0.18
0.15
-0.01
-0.20
-0.36
-0.45
-0.47
-0.49
-0.56
-0.72
-0.99
-1.31
-1.60
-1.82
-1.96
-2.04
-2.13
-2.27
-2.49
-2.81
-3.21
-3.64
-4.02
-4.24
-4.19
-3.88
-3.38
-2.88
-2.52
-2.37
-2.42
-2.51
-2.50
-2.22
-1.54
-0.34
1.45
3.81
6.53
9.22
11.35
12.44
12.22
10.81
8.60
6.15
3.94
2.20
0.91
-0.04
-0.79
-1.33
-1.57
-1.42
-0.91
-0.23
0.36
0.61
0.44
-0.12
-0.88
-1.65
-2.28
-2.68
-2.85
-2.81
-2.61
-2.28
-1.86
-1.38
-0.92
-0.54
-0.30
-0.22
-0.28
-0.44
-0.62
-0.78
-0.92
-1.04
-1.13
-1.20
-1.25
-1.28
-1.28
-1.22
-1.07
-0.79
-0.38
0.11
0.58
0.93
1.07
0.99
0.74
0.39
0.03
-0.29
-0.55
-0.74
-0.87
-0.96
-1.06
-1.21
-1.42
-1.66
-1.84
-1.86
-1.61
-1.04
-0.13
1.10
2.56
4.11
5.54
6.57
6.95
6.53
5.37
3.71
1.96
0.49
-0.44
-0.82
-0.82
-0.70
-0.65
-0.73
-0.87
-0.93
-0.83
-0.59
-0.35
-0.27
-0.45
-0.82
-1.25
-1.58
-1.74
-1.77
-1.75
-1.77
-1.83
-1.88
-1.82
-1.60
-1.25
-0.88
-0.60
-0.48
-0.52
-0.61
-0.65
-0.54
-0.31
-0.05
0.13
0.11
-0.09
-0.36
-0.51
-0.38
0.08
0.76
1.48
2.04
2.28
2.19
1.82
1.29
0.70
0.13
-0.36
-0.75
-1.04
-1.22
-1.30
-1.31
-1.26
-1.16
-1.03
-0.91
-0.80
-0.70
-0.58
-0.39
-0.13
0.21
0.63
1.19
1.97
3.03
4.34
5.69
6.75
7.15
6.63
5.19
3.13
0.93
-0.90
-2.02
-2.40
-2.24
-1.84
-1.48
-1.24
-1.07
-0.83
-0.49
-0.12
0.09
-0.03
-0.52
-1.23
-1.89
-2.27
-2.24
-1.89
-1.42
-1.03
-0.84
-0.81
-0.85
-0.81
-0.63
-0.33
-0.02
0.24
0.41
0.53
0.65
0.79
0.90
0.94
0.89
0.79
0.72
0.73
0.80
0.85
0.78
0.60
0.37
0.23
0.28
0.51
0.81
1.00
0.96
0.66
0.18
-0.31
-0.67
-0.76
-0.55
-0.10
0.44
0.87
1.01
0.81
0.34
-0.15
-0.38
-0.12
0.62
1.61
2.45
2.78
2.46
1.64
0.81
0.53
1.18
2.77
4.93
6.99
8.28
8.56
8.03
7.27
6.95
7.49
8.80
10.59
12.74
15.35
18.48
21.64
23.75
23.59
20.76
16.18
11.85
9.73
10.42
12.65
13.89
11.87
5.98
-2.40
-10.76
-16.92
-20.16
-21.17
-21.26
-21.27
-21.06
-19.85
-16.99
-12.45
-7.11
-2.44
0.13
-0.19
-3.18
-7.78
-12.46
-15.79
-16.92
-15.78
-12.94
-9.28
-5.67
-2.70
-0.67
0.31
0.25
-0.72
-2.32
-4.11
-5.56
-6.24
-6.01
-5.02
-3.69
-2.43
-1.50
-0.92
-0.57
-0.31
-0.12
-0.11
-0.40
-1.00
-1.76
-2.46
-2.90
-3.07
-3.06
-3.01
-2.99
-2.94
-2.71
-2.19
-1.38
-0.44
0.41
0.95
1.10
0.91
0.53
0.14
-0.14
-0.26
-0.24
-0.13
-0.00
0.03
-0.15
-0.65
-1.51
-2.64
-3.85
-4.87
-5.45
-5.51
-5.20
-4.85
-4.80
-5.30
-6.34
-7.69
-9.02
-10.07
-10.74
-11.13
-11.47
-11.96
-12.70
-13.69
-14.87
-16.15
-17.38
-18.35
-18.79
-18.49
-17.43
-15.83
-14.12
-12.73
-11.98
-11.99
-12.83
-14.62
-17.63
-22.12
-28.09
-35.09
-42.30
-48.77
-53.87
-57.65
-60.79
-64.42
-69.58
-76.74
-85.61
-95.27
-104.59
-112.78
-119.74
-126.20
-133.42
-142.79
-155.38
-171.55
-190.77
-211.38
-230.61
-244.96
-250.95
-246.03
-229.53
-202.79
-168.68
-130.45
-90.57
-49.98
-8.15
36.08
83.21
132.01
179.36
220.84
252.22
270.86
276.56
271.43
258.86
242.27
224.06
205.51
187.17
169.51
153.22
139.05
127.40
117.97
109.80
101.78
93.16
83.94
74.87
67.19
62.07
60.04
60.77
63.08
65.42
66.49
65.72
63.53
61.03
59.50
59.80
62.02
65.55
69.39
72.67
75.03
76.78
78.76
81.98
87.10
94.21
102.68
111.38
119.24
125.66
130.91
135.99
142.28
150.88
162.21
175.91
190.88
205.50
217.74
225.34
226.05
218.15
200.97
175.10
142.27
104.62
63.82
20.48
-25.67
-74.80
-125.73
-175.33
-219.04
-252.35
-272.68
-280.36
-278.45
-271.23
-262.40
-253.83
-245.58
-236.86
-227.42
-218.16
-210.84
-207.05
-207.15
-209.88
-213.01
-214.39
-212.99
-209.35
-205.35
-203.32
-205.18
-211.81
-222.84
-236.64
-250.47
-260.94
-264.59
-258.66
-241.89
-214.82
-179.49
-138.55
-94.21
-47.54
1.50
53.30
107.47
162.10
213.80
258.67
293.73
317.91
332.35
339.58
342.34
342.56
340.90
337.35
332.12
326.31
321.79
320.49
323.38
329.79
337.43
343.01
343.25
335.68
319.20
294.30
262.57
226.12
186.85
145.82
103.00
57.55
8.68
-43.42
-96.69
-147.28
-190.38
-221.82
-239.56
-244.40
-239.52
-229.08
-216.68
-204.30
-192.33
-180.39
-168.28
-156.49
-145.92
-137.24
-130.34
-124.27
-117.77
-109.94
-100.66
-90.65
-81.10
-73.06
-67.01
-62.71
-59.38
-56.05
-52.05
-47.15
-41.67
-36.20
-31.34
-27.47
-24.61
-22.50
-20.78
-19.09
-17.22
-15.18
-13.11
-11.25
-9.86
-9.10
-9.00
-9.43
-10.15
-10.84
-11.22
-11.13
-10.58
-9.73
-8.86
-8.23
-8.02
-8.20
-8.55
-8.65
-7.96
-5.92
-2.14
3.35
9.94
16.38
21.07
22.58
20.22
14.39
6.43
-1.82
-8.78
-13.66
-16.56
-18.28
-19.74
-21.59
-24.01
-26.78
-29.56
-32.09
-34.34
-36.53
-38.98
-42.01
-45.81
-50.39
-55.51
-60.74
-65.51
-69.28
-71.84
-73.44
-74.82
-77.02
-81.00
-87.20
-95.30
-104.14
-112.18
-118.23
-121.99
-124.49
-127.82
-134.35
-145.42
-160.42
-176.44
-188.82
-192.72
-184.58
-163.05
-128.99
-85.17
-35.94
13.14
56.19
88.66
109.03
119.65
125.85
133.31
145.24
160.78
175.78
185.50
187.33
182.00
172.70
162.70
153.57
144.78
134.91
123.23
110.69
99.47
91.74
88.78
90.19
94.11
98.09
99.93
98.51
94.00
87.65
81.14
75.89
72.51
70.72
69.68
68.44
66.34
63.29
59.59
55.86
52.65
50.30
48.96
48.87
50.60
54.82
61.45
68.66
72.71
69.03
54.45
29.45
-1.18
-29.93
-49.68
-56.84
-52.68
-42.12
-30.95
-22.96
-18.79
-16.64
-14.21
-10.45
-5.92
-2.15
-0.29
-0.31
-1.24
-2.03
-2.50
-3.70
-7.54
-15.60
-28.24
-44.46
-63.07
-83.93
-108.51
-138.71
-174.64
-212.62
-245.15
-263.14
-259.39
-231.48
-182.58
