1660930449.00
64.000000
-0.00
-0.00
-0.00
-0.00
-0.00
-0.00
-0.00
-0.00
-0.00
-0.00
0.00
0.01
0.01
-0.00
-0.03
-0.05
-0.05
0.00
0.13
0.36
0.66
1.01
1.37
1.72
2.06
2.40
2.79
3.25
3.81
4.44
5.09
5.73
6.32
6.90
7.52
8.26
9.15
10.27
11.50
12.72
13.82
14.78
15.67
16.68
18.03
19.87
22.37
25.32
28.42
31.39
34.11
36.71
39.55
43.06
47.54
53.30
59.92
66.84
73.54
79.76
85.71
91.98
99.31
108.13
118.79
130.60
142.68
154.22
164.88
175.01
185.51
197.77
210.28
224.93
241.92
261.12
281.43
300.35
314.11
318.54
310.39
288.44
254.44
211.57
163.76
114.33
65.38
17.90
-27.65
-70.83
-111.23
-148.47
-183.21
-216.76
-250.79
-286.46
-323.44
-359.47
-390.55
-412.20
-420.87
-415.50
-398.04
-372.61
-343.93
-315.64
-289.40
-265.09
-241.90
-219.18
-197.23
-176.87
-158.80
-143.06
-128.95
-115.44
-101.73
-87.70
-73.84
-61.03
-50.02
-41.05
-33.74
-27.35
-21.10
-14.56
-7.79
-1.23
4.57
9.19
12.54
14.87
16.63
18.26
20.03
21.94
23.78
25.25
26.15
26.49
26.44
26.29
26.24
26.31
26.36
26.19
25.66
24.78
23.72
22.67
21.79
21.13
20.61
20.16
19.70
19.20
18.64
18.02
17.32
16.56
15.75
14.98
14.30
13.80
13.49
13.35
13.29
13.21
12.97
12.55
11.97
11.35
10.86
10.62
10.68
10.94
11.21
11.31
11.16
10.77
10.29
9.86
9.54
9.29
9.03
8.68
8.25
7.81
7.47
7.27
7.19
7.11
6.92
6.58
6.12
5.65
5.28
5.09
5.05
5.08
5.02
4.77
4.28
3.64
2.96
2.36
1.87
1.44
0.98
0.45
-0.12
-0.65
-1.09
-1.45
-1.82
-2.32
-3.02
-3.88
-4.74
-5.44
-5.89
-6.11
-6.21
-6.35
-6.64
-7.09
-7.67
-8.25
-8.75
-9.07
-9.17
-9.04
-8.73
-8.31
-7.84
-7.36
-6.92
-6.52
-6.14
-5.78
-5.41
-4.98
-4.44
-3.78
-3.00
-2.18
-1.43
-0.84
-0.45
-0.26
-0.16
-0.08
0.07
0.32
0.64
1.01
1.41
1.81
2.19
2.51
2.75
2.89
2.97
3.01
3.04
3.07
3.07
3.04
2.96
2.87
2.83
2.86
2.97
3.11
3.23
3.31
3.36
3.42
3.53
3.70
3.90
4.08
4.19
4.20
4.09
3.89
3.62
3.35
3.11
2.92
2.80
2.73
2.71
2.77
2.90
3.11
3.32
3.47
3.44
3.21
2.81
2.35
1.96
1.75
1.70
1.75
1.79
1.73
1.58
1.34
1.06
0.75
0.40
-0.03
-0.52
-1.02
-1.45
-1.74
-1.84
-1.78
-1.62
-1.45
-1.37
-1.41
-1.55
-1.68
-1.70
-1.52
-1.17
-0.73
-0.35
-0.14
-0.16
-0.35
-0.61
-0.87
-1.08
-1.27
-1.45
-1.55
-1.45
-1.01
-0.17
1.02
2.40
3.80
5.12
6.36
7.58
8.85
10.19
11.56
12.93
14.29
15.67
17.05
18.36
19.43
20.03
19.99
19.24
17.81
15.81
13.39
10.69
7.85
5.06
2.51
0.37
-1.24
-2.33
-3.02
-3.52
-4.00
-4.55
-5.10
-5.52
-5.68
-5.50
-5.06
-4.52
-4.05
-3.79
-3.72
-3.76
-3.76
-3.65
-3.42
-3.14
-2.88
-2.70
-2.55
-2.36
-2.09
-1.76
-1.49
-1.35
-1.37
-1.48
-1.55
-1.50
-1.33
-1.10
-0.87
-0.66
-0.46
-0.21
0.08
0.38
0.59
0.67
0.60
0.41
0.19
0.01
-0.12
-0.21
-0.28
-0.35
-0.42
-0.43
-0.34
-0.10
0.29
0.76
1.21
1.53
1.62
1.47
1.15
0.78
0.50
0.39
0.45
0.59
0.69
0.69
0.60
0.47
0.37
0.33
0.32
0.27
0.14
-0.06
-0.23
-0.24
-0.02
0.41
0.93
1.34
1.52
1.39
1.05
0.64
0.33
0.23
0.36
0.63
0.93
1.18
1.31
1.32
1.20
0.99
0.70
0.39
0.09
-0.14
-0.27
-0.30
-0.27
-0.25
-0.29
-0.41
-0.58
-0.74
-0.82
-0.79
-0.65
-0.42
-0.11
0.23
0.56
0.82
0.94
0.89
0.68
0.38
0.11
-0.08
-0.16
-0.15
-0.10
-0.03
0.05
0.16
0.25
0.29
0.24
0.10
-0.05
-0.13
-0.06
0.17
0.50
0.86
1.18
1.41
1.54
1.55
1.43
1.19
0.90
0.63
0.49
0.48
0.57
0.65
0.59
0.35
-0.04
-0.44
-0.70
-0.76
-0.64
-0.47
-0.37
-0.41
-0.54
-0.65
-0.65
-0.49
-0.26
-0.06
0.05
0.03
-0.05
-0.14
-0.20
-0.24
-0.26
-0.26
-0.22
-0.13
0.00
0.11
0.14
0.11
0.06
0.04
0.09
0.21
0.33
0.41
0.42
0.39
0.33
0.29
0.31
0.41
0.62
0.93
1.28
1.56
1.67
1.57
1.28
0.91
0.56
0.32
0.19
0.14
0.14
0.13
0.10
0.03
-0.04
-0.08
-0.05
0.05
0.18
0.27
0.25
0.11
-0.11
-0.35
-0.55
-0.70
-0.80
-0.88
-0.91
-0.86
-0.67
-0.36
0.04
0.45
0.75
0.84
0.69
0.32
-0.15
-0.61
-0.91
-1.02
-0.97
-0.84
-0.77
-0.83
-1.03
-1.33
-1.66
-1.96
-2.18
-2.29
-2.26
-2.14
-1.97
-1.84
-1.81
-1.91
-2.11
-2.37
-2.68
-3.03
-3.42
-3.83
-4.17
-4.39
-4.41
-4.23
-3.88
-3.41
-2.80
-2.05
-1.14
-0.15
0.80
1.55
1.98
2.12
2.10
2.11
2.29
2.66
3.12
3.45
3.46
3.06
2.32
1.45
0.74
0.41
0.52
0.96
1.48
1.81
1.76
1.25
0.31
-0.93
-2.30
-3.59
-4.56
-5.04
-5.05
-4.81
-4.74
-5.31
-6.80
-9.14
-11.96
-14.76
-17.17
-19.12
-20.89
-22.90
-25.53
-28.89
-32.80
-36.89
-40.76
-44.18
-47.31
-50.62
-54.80
-60.45
-67.82
-76.60
-86.04
-95.21
-103.41
-110.42
-116.58
-122.59
-129.23
-137.18
-146.98
-158.89
-172.55
-186.55
-198.11
-203.53
-199.14
-182.61
-153.94
-115.42
-70.47
-22.09
28.27
80.49
134.57
189.06
240.49
284.09
315.75
333.91
340.28
339.09
335.23
332.33
331.88
333.52
336.22
339.26
342.45
345.42
346.77
343.81
333.25
312.55
281.04
240.29
193.33
143.19
91.70
39.28
-14.01
-67.17
-117.28
-160.00
-191.05
-208.11
-211.94
-206.00
-194.94
-182.75
-171.61
-161.79
-152.60
-143.47
-134.51
-126.36
-119.56
-114.02
-108.94
-103.29
-96.39
-88.27
-79.66
-71.59
-64.88
-59.80
-55.98
-52.60
-48.86
-44.27
-38.87
-33.19
-27.95
-23.74
-20.75
-18.78
-17.33
-15.87
-14.08
-11.89
-9.54
-7.33
-5.54
-4.25
-3.40
-2.81
-2.33
-1.84
-1.34
-0.88
-0.56
-0.43
-0.48
-0.64
-0.81
-0.91
-0.92
-0.85
-0.75
-0.68
-0.65
-0.66
-0.71
-0.76
-0.84
-0.92
-1.01
-1.07
-1.05
-0.92
-0.65
-0.28
0.10
0.40
0.54
0.52
0.37
0.20
0.11
0.12
0.21
0.30
0.28
0.14
-0.11
-0.38
-0.57
-0.64
-0.59
-0.48
-0.37
-0.29
-0.23
-0.20
-0.17
-0.15
-0.16
-0.19
-0.23
-0.26
-0.24
-0.15
0.00
0.22
0.51
0.83
1.16
1.45
1.66
1.77
1.80
1.80
1.81
1.84
1.82
1.72
1.48
1.11
0.68
0.26
-0.08
-0.33
-0.50
-0.60
-0.65
-0.61
-0.45
-0.15
0.28
0.77
1.23
1.56
1.69
1.57
1.25
0.82
0.43
0.18
0.08
0.02
-0.16
-0.59
-1.30
-2.15
-2.94
-3.48
-3.67
-3.51
-3.08
-2.44
-1.62
-0.64
0.43
1.44
2.15
2.35
1.96
1.07
-0.06
-1.12
-1.87
-2.23
-2.25
-2.07
-1.83
-1.60
-1.39
-1.22
-1.09
-1.03
-1.05
-1.15
-1.28
-1.44
-1.59
-1.71
-1.79
-1.82
-1.76
-1.63
-1.43
-1.17
-0.83
-0.43
0.04
0.56
1.10
1.64
2.20
2.77
3.33
3.77
3.97
3.83
3.38
2.76
2.21
1.87
1.77
1.80
1.80
1.66
1.38
1.06
0.78
0.60
0.47
0.33
0.17
-0.00
-0.14
-0.20
-0.20
-0.17
-0.15
-0.14
-0.12
-0.09
-0.07
-0.07
-0.11
-0.17
-0.24
-0.29
-0.34
-0.49
-0.84
-1.47
-2.31
-3.20
-3.89
-4.16
-3.95
-3.30
-2.39
-1.39
-0.48
0.23
0.71
0.96
1.05
1.05
1.07
1.19
1.44
1.76
2.05
2.22
2.23
2.08
1.87
1.66
1.51
1.47
1.52
1.65
1.80
1.93
1.97
1.90
1.78
1.68
1.73
2.00
2.48
3.06
3.56
3.82
3.74
3.32
2.64
1.79
0.85
-0.14
-1.15
-2.16
-3.08
-3.82
-4.30
-4.50
-4.46
-4.31
-4.15
-4.07
-4.07
-4.12
-4.13
-4.08
-3.95
-3.78
-3.58
-3.35
-3.07
-2.71
-2.26
-1.77
-1.29
-0.84
-0.40
0.07
0.62
1.21
1.70
1.95
1.86
1.47
0.92
0.43
0.15
0.11
0.25
0.41
0.51
0.51
0.44
0.39
0.38
0.44
0.55
0.70
0.84
0.94
0.95
0.85
0.65
0.44
0.29
0.25
0.32
0.46
0.61
0.70
0.72
0.71
0.70
0.71
0.73
0.75
0.73
0.69
0.67
0.72
0.90
1.23
1.65
2.02
2.21
2.12
1.75
1.22
0.66
0.16
-0.25
-0.63
-1.00
-1.32
-1.50
-1.40
-0.99
-0.36
0.32
0.82
1.00
0.82
0.34
-0.27
-0.85
-1.26
-1.45
-1.42
-1.26
-1.04
-0.85
-0.70
-0.60
-0.52
-0.45
-0.37
-0.30
-0.23
-0.19
-0.22
-0.33
-0.53
-0.75
-0.90
-0.86
-0.59
-0.16
0.31
0.66
0.87
0.98
1.12
1.36
1.66
1.84
1.73
1.23
0.41
-0.49
-1.24
-1.70
-1.86
-1.89
-1.94
-2.06
-2.20
-2.24
-2.10
-1.82
-1.54
-1.41
-1.49
-1.66
-1.71
-1.43
-0.74
0.26
1.34
2.23
2.77
2.91
2.74
2.39
2.01
1.64
1.32
1.05
0.82
0.64
0.50
0.39
0.27
0.12
-0.03
-0.12
-0.07
0.20
0.66
1.26
1.85
2.27
2.40
2.21
1.74
1.15
0.61
0.23
0.05
-0.03
-0.14
-0.37
-0.75
-1.16
-1.43
-1.39
-0.94
-0.11
0.99
2.18
3.24
3.98
4.28
4.06
3.38
2.36
1.21
0.14
-0.71
-1.26
-1.54
-1.66
-1.75
-1.89
-2.12
-2.41
-2.74
-3.08
-3.42
-3.74
-3.98
-4.10
-4.05
-3.83
-3.53
-3.23
-3.02
-2.90
-2.85
-2.82
-2.79
-2.73
-2.62
-2.37
-1.87
-1.04
0.07
1.30
2.43
3.31
3.86
4.13
4.18
3.99
3.55
2.85
1.99
1.12
0.45
0.08
0.01
0.15
0.38
0.66
0.99
1.37
1.75
2.05
2.17
2.06
1.76
1.37
0.99
0.69
0.50
0.37
0.28
0.23
0.21
0.21
0.24
0.32
0.50
0.84
1.37
2.09
2.85
3.47
3.75
3.57
2.90
1.85
0.59
-0.72
-1.91
-2.85
-3.48
-3.80
-3.84
-3.70
-3.46
-3.18
-2.90
-2.66
-2.54
-2.63
-2.97
-3.47
-3.99
-4.29
-4.25
-3.84
-3.17
-2.46
-1.84
-1.40
-1.10
-0.87
-0.62
-0.26
0.23
0.90
1.80
2.92
4.20
5.51
6.60
7.21
7.15
6.37
5.01
3.37
1.82
0.66
0.04
-0.05
0.23
0.69
1.10
1.33
1.29
0.98
0.46
-0.14
-0.72
-1.21
-1.57
-1.80
-1.93
-1.97
-1.97
-1.93
-1.89
-1.89
-1.90
-1.88
-1.76
-1.50
-1.12
-0.70
-0.37
-0.20
-0.22
-0.37
-0.53
-0.60
-0.52
-0.34
-0.16
-0.07
-0.12
-0.27
-0.38
-0.38
-0.23
-0.00
0.18
0.23
0.15
0.02
-0.05
-0.01
0.11
0.26
0.35
0.39
0.44
0.60
0.94
1.45
2.05
2.61
3.04
3.27
3.29
3.07
2.62
1.97
1.21
0.50
0.02
-0.04
0.33
0.98
1.63
1.95
1.79
1.18
0.32
-0.53
-1.20
-1.62
-1.84
-1.94
-1.97
-1.92
-1.75
-1.45
-1.08
-0.74
-0.56
-0.62
-0.90
-1.30
-1.67
-1.87
-1.81
-1.53
-1.09
-0.63
-0.25
-0.02
0.02
-0.10
-0.33
-0.60
-0.81
-0.91
-0.94
-0.93
-0.97
-1.10
-1.29
-1.47
-1.60
-1.63
-1.56
-1.41
-1.18
-0.85
-0.42
0.11
0.65
1.08
1.30
1.29
1.10
0.86
0.72
0.80
1.10
1.54
1.98
2.31
2.45
2.40
2.20
1.89
1.55
1.22
0.95
0.74
0.57
0.42
0.27
0.14
0.07
0.06
0.09
0.12
0.13
0.16
0.31
0.67
1.25
1.91
2.41
2.53
2.20
1.51
0.69
-0.00
-0.42
-0.57
-0.56
-0.55
-0.64
-0.86
-1.19
-1.52
-1.79
-1.94
-1.98
-1.95
-1.91
-1.88
-1.87
-1.86
-1.83
-1.79
-1.76
-1.76
-1.80
-1.82
-1.73
-1.46
-1.04
-0.56
-0.18
-0.03
-0.16
-0.48
-0.84
-1.08
-1.06
-0.76
-0.24
0.35
0.86
1.17
1.27
1.22
1.10
1.02
1.01
1.08
1.21
1.39
1.63
1.93
2.29
2.65
2.97
3.17
3.21
3.06
2.73
2.27
1.74
1.19
0.67
0.19
-0.28
-0.74
-1.22
-1.68
-2.06
-2.32
-2.42
-2.37
-2.19
-1.94
-1.72
-1.57
-1.53
-1.60
-1.72
-1.84
-1.93
-2.00
-2.01
-1.93
-1.68
-1.18
-0.45
0.44
1.33
2.08
2.62
2.94
3.11
3.16
3.09
2.86
2.42
1.78
1.03
0.33
-0.18
-0.40
-0.30
0.06
0.60
1.23
1.87
2.49
3.05
3.52
3.84
3.95
3.81
3.42
2.84
2.21
1.60
1.05
0.54
-0.03
-0.68
-1.40
-2.12
-2.77
-3.30
-3.71
-4.01
-4.16
-4.07
-3.69
-3.07
-2.37
-1.84
-1.70
-1.98
-2.53
-3.10
-3.44
-3.44
-3.18
-2.81
-2.48
-2.23
-2.04
-1.87
-1.72
-1.68
-1.81
-2.13
-2.51
-2.75
-2.68
-2.20
-1.37
-0.35
0.69
1.64
2.46
3.13
3.60
3.84
3.79
3.48
2.96
2.35
1.76
1.27
0.95
0.80
0.82
0.96
1.17
1.38
1.54
1.62
1.60
1.48
1.27
0.96
0.60
0.23
-0.09
-0.31
-0.40
-0.35
-0.14
0.21
0.68
1.23
1.81
2.40
3.01
3.61
4.16
4.52
4.51
4.02
3.03
1.66
0.16
-1.21
-2.25
-2.90
-3.18
-3.17
-2.98
-2.69
-2.40
-2.23
-2.24
-2.46
-2.83
-3.21
-3.49
-3.59
-3.52
-3.38
-3.24
-3.17
-3.14
-3.09
-2.95
-2.72
-2.39
-1.99
-1.56
-1.13
-0.74
-0.44
-0.18
0.14
0.69
1.59
2.82
4.17
5.30
5.85
5.61
4.61
3.09
1.41
-0.10
-1.20
-1.77
-1.81
-1.38
-0.58
0.43
1.41
2.17
2.55
2.49
2.06
1.42
0.76
0.25
-0.07
-0.24
-0.40
-0.70
-1.21
-1.85
-2.42
-2.67
-2.50
-1.94
-1.20
-0.56
-0.16
0.03
0.18
0.52
1.17
2.03
2.88
3.44
3.56
3.21
2.49
1.55
0.52
-0.49
-1.36
-1.99
-2.26
-2.10
-1.54
-0.72
0.18
0.95
1.45
1.61
1.40
0.87
0.09
-0.80
-1.62
-2.21
-2.47
-2.40
-2.07
-1.60
-1.09
-0.62
-0.18
0.25
0.68
1.13
1.59
2.04
2.47
2.84
3.12
3.23
3.13
2.79
2.27
1.68
1.13
0.69
0.37
0.14
-0.09
-0.38
-0.75
-1.19
-1.66
-2.08
-2.38
-2.50
-2.41
-2.13
-1.74
-1.31
-0.91
-0.59
-0.38
-0.29
-0.36
-0.61
-1.00
-1.45
-1.87
-2.20
-2.42
-2.57
-2.71
-2.89
-3.12
-3.38
-3.62
-3.77
-3.78
-3.61
-3.28
-2.84
-2.35
-1.84
-1.29
-0.60
0.33
1.54
2.96
4.44
5.78
6.83
7.50
7.80
7.78
7.52
7.12
6.63
6.08
5.45
4.72
3.88
2.97
2.09
1.35
0.83
0.53
0.35
0.20
-0.04
-0.33
-0.62
-0.82
-0.89
-0.89
-0.89
-0.95
-1.05
-1.10
-0.97
-0.64
-0.19
0.21
0.34
0.07
-0.60
-1.49
-2.39
-3.05
-3.35
-3.30
-2.99
-2.54
-2.08
-1.63
-1.23
-0.89
-0.67
-0.60
-0.69
-0.89
-1.10
-1.21
-1.13
-0.87
-0.49
-0.11
0.16
0.24
0.08
-0.30
-0.81
-1.32
-1.72
-1.92
-1.90
-1.68
-1.34
-0.99
-0.71
-0.55
-0.55
-0.65
-0.80
-0.88
-0.84
-0.66
-0.39
-0.12
0.08
0.16
0.17
0.19
0.29
0.50
0.76
1.03
1.26
1.43
1.55
1.64
1.69
1.68
1.60
1.44
1.20
0.90
0.56
0.26
0.06
0.05
0.23
0.52
0.77
0.83
0.61
0.18
-0.30
-0.65
-0.75
-0.55
-0.14
0.37
0.88
1.27
1.44
1.34
0.96
0.34
-0.41
-1.12
-1.67
-1.96
-1.97
-1.76
-1.44
-1.13
-0.90
-0.78
-0.73
-0.71
-0.68
-0.65
-0.62
-0.57
-0.47
-0.30
-0.10
0.08
0.18
0.16
0.07
-0.02
-0.04
0.01
0.12
0.26
0.40
0.52
0.61
0.65
0.64
0.61
0.62
0.79
1.15
1.66
2.18
2.57
2.75
2.75
2.67
2.64
2.70
2.82
2.88
2.75
2.37
1.74
0.98
0.22
-0.41
-0.88
-1.22
-1.51
-1.83
-2.18
-2.54
-2.88
-3.18
-3.49
-3.85
-4.29
-4.74
-5.09
-5.26
-5.17
-4.85
-4.34
-3.69
-2.94
-2.14
-1.33
-0.53
0.19
0.82
1.35
1.78
2.14
2.43
2.67
2.85
2.95
2.95
2.78
2.46
2.02
1.57
1.25
1.18
1.38
1.80
2.30
2.75
3.03
3.09
2.89
2.48
1.90
1.23
0.56
-0.04
-0.48
-0.70
-0.69
-0.48
-0.16
0.18
0.44
0.61
0.77
1.06
1.59
2.34
3.13
3.66
3.68
3.07
1.98
0.71
-0.40
-1.14
-1.49
-1.60
-1.64
-1.71
-1.83
-1.94
-2.03
-2.14
-2.36
-2.76
-3.33
-3.98
-4.55
-4.92
-4.98
-4.76
-4.35
-3.91
-3.61
-3.52
-3.66
-3.91
-4.10
-4.05
-3.62
-2.77
-1.58
-0.21
1.11
2.19
2.93
3.31
3.41
3.32
3.13
2.86
2.52
2.14
1.79
1.53
1.37
1.28
1.19
1.09
1.04
1.15
1.50
2.06
2.68
3.15
3.33
3.13
2.61
1.92
1.22
0.64
0.28
0.13
0.13
0.16
0.14
0.01
-0.13
-0.18
-0.02
0.39
1.01
1.72
2.41
2.99
3.35
3.40
3.05
2.28
1.21
0.06
-0.90
-1.46
-1.57
-1.38
-1.09
-0.91
-0.96
-1.25
-1.76
-2.41
-3.10
-3.72
-4.15
-4.34
-4.28
-4.07
-3.83
-3.65
-3.57
-3.54
-3.49
-3.38
-3.17
-2.86
-2.42
-1.78
-0.85
0.40
1.96
3.69
5.35
6.69
7.50
7.65
7.16
6.18
4.92
3.63
2.45
1.48
0.73
0.17
-0.23
-0.49
-0.64
-0.70
-0.71
-0.72
-0.75
-0.79
-0.82
-0.83
-0.79
-0.72
-0.63
-0.58
-0.58
-0.66
-0.81
-1.01
-1.25
-1.47
-1.65
-1.74
-1.71
-1.54
-1.31
-1.08
-0.97
-1.03
-1.24
-1.50
-1.70
-1.74
-1.61
-1.36
-1.04
-0.72
-0.45
-0.23
-0.07
0.04
0.13
0.24
0.41
0.64
0.90
1.11
1.21
1.19
1.07
0.94
0.87
0.90
0.99
1.09
1.16
1.17
1.12
1.07
1.06
1.09
1.14
1.14
1.08
0.99
0.97
1.11
1.46
1.97
2.47
2.76
2.67
2.18
1.41
0.56
-0.12
-0.49
-0.55
-0.42
-0.29
-0.30
-0.48
-0.76
-1.01
-1.14
-1.15
-1.12
-1.16
-1.32
-1.55
-1.74
-1.80
-1.70
-1.49
-1.26
-1.12
-1.15
-1.37
-1.72
-2.08
-2.33
-2.37
-2.20
-1.92
-1.70
-1.65
-1.77
-1.90
-1.84
-1.45
-0.72
0.17
1.01
1.61
1.92
2.05
2.16
2.35
2.65
3.00
3.29
3.47
3.56
3.63
3.76
4.00
4.28
4.51
4.58
4.41
3.98
3.35
2.57
1.72
0.86
0.04
-0.70
-1.33
-1.86
-2.32
-2.73
-3.10
-3.40
-3.61
-3.75
-3.86
-4.01
-4.16
-4.21
-4.01
-3.45
-2.58
-1.56
-0.67
-0.08
0.17
0.17
0.09
0.06
0.05
-0.01
-0.20
-0.52
-0.84
-1.02
-0.95
-0.68
-0.35
-0.15
-0.22
-0.54
-0.97
-1.30
-1.35
-1.09
-0.60
-0.04
0.46
0.86
1.21
1.58
1.97
2.30
2.42
2.26
1.83
1.27
0.72
0.24
-0.19
-0.69
-1.29
-1.95
-2.49
-2.76
-2.68
-2.26
-1.63
-0.92
-0.21
0.45
1.03
1.46
1.70
1.71
1.57
1.38
1.28
1.32
1.48
1.67
1.78
1.75
1.58
1.34
1.08
0.84
0.59
0.33
0.02
-0.28
-0.54
-0.70
-0.75
-0.69
-0.55
-0.34
-0.07
0.23
0.56
0.86
1.05
1.09
0.92
0.54
-0.01
-0.68
-1.35
-1.91
-2.25
-2.32
-2.12
-1.72
-1.21
-0.68
-0.21
0.21
0.56
0.86
1.10
1.23
1.22
1.05
0.73
0.35
-0.00
-0.28
-0.45
-0.51
-0.46
-0.28
0.03
0.43
0.84
1.16
1.34
1.40
1.44
1.57
1.84
2.19
2.49
2.60
2.46
2.08
1.56
0.99
0.43
-0.07
-0.50
-0.82
-0.99
-1.03
-0.97
-0.88
-0.84
-0.93
-1.19
-1.60
-2.14
-2.76
-3.36
-3.87
-4.19
-4.27
-4.10
-3.76
-3.38
-3.06
-2.86
-2.75
-2.65
-2.45
-2.08
-1.51
-0.73
0.29
1.53
2.92
4.27
5.28
5.70
5.37
4.40
3.05
1.70
0.63
-0.02
-0.32
-0.39
-0.36
-0.29
-0.14
0.17
0.64
1.21
1.77
2.18
2.33
2.21
1.86
1.38
0.85
0.30
-0.24
-0.74
-1.13
-1.33
-1.28
-1.04
-0.72
-0.50
-0.47
-0.63
-0.85
-0.96
-0.77
-0.18
0.78
1.97
3.13
3.94
4.15
3.64
2.54
1.12
-0.24
-1.27
-1.83
-1.98
-1.89
-1.75
-1.68
-1.71
-1.81
-1.96
-2.14
-2.34
-2.54
-2.73
-2.88
-2.95
-2.92
-2.77
-2.53
-2.22
-1.89
-1.60
-1.36
-1.19
-1.10
-1.05
-1.00
-0.86
-0.54
0.07
1.00
2.18
3.45
4.55
5.29
5.53
5.31
4.78
4.10
3.43
2.81
2.21
1.60
0.95
0.28
-0.35
-0.88
-1.21
-1.28
-1.02
-0.45
0.33
1.15
1.78
2.06
1.94
1.47
0.75
-0.08
-0.93
-1.69
-2.27
-2.53
-2.45
-2.06
-1.51
-1.02
-0.72
-0.63
-0.68
-0.73
-0.72
-0.65
-0.59
-0.59
-0.67
-0.78
-0.86
-0.89
-0.85
-0.79
-0.71
-0.60
-0.43
-0.17
0.19
0.61
1.03
1.35
1.50
1.43
1.17
0.78
0.37
0.05
-0.11
-0.10
0.03
0.20
0.32
0.33
0.23
0.05
-0.15
-0.30
-0.33
-0.20
0.11
0.61
1.25
1.92
2.47
2.72
2.56
1.97
1.06
-0.01
-1.02
-1.79
-2.27
-2.46
-2.42
-2.20
-1.86
-1.46
-1.06
-0.74
-0.55
-0.49
-0.50
-0.54
-0.57
-0.64
-0.76
-0.96
-1.21
-1.41
-1.49
-1.40
-1.18
-0.90
-0.65
-0.46
-0.29
-0.09
0.18
0.49
0.79
1.02
1.17
1.29
1.47
1.74
2.05
2.28
2.28
1.98
1.45
0.85
0.37
0.11
0.00
-0.07
-0.26
-0.64
-1.12
-1.59
-1.91
-2.03
-2.00
-1.89
-1.77
-1.66
-1.55
-1.42
-1.28
-1.18
-1.12
-1.08
-0.94
-0.55
0.19
1.27
2.54
3.77
4.67
5.01
4.69
3.81
2.57
1.31
0.29
-0.31
-0.50
-0.36
-0.05
0.30
0.61
0.84
0.93
0.83
0.50
-0.01
-0.57
-1.02
-1.19
-1.08
-0.82
-0.63
-0.67
-0.96
-1.38
-1.74
-1.87
-1.72
-1.37
-0.93
-0.50
-0.09
0.30
0.67
0.92
0.95
0.72
0.30
-0.12
-0.36
-0.33
-0.09
0.18
0.29
0.18
-0.11
-0.41
-0.60
-0.64
-0.61
-0.60
-0.72
-0.96
-1.24
-1.41
-1.39
-1.14
-0.73
-0.27
0.08
0.22
0.13
-0.15
-0.49
-0.73
-0.73
-0.40
0.26
1.20
2.26
3.29
4.09
4.53
4.54
4.11
3.31
2.27
1.13
0.10
-0.69
-1.13
-1.23
-1.07
-0.81
-0.58
-0.49
-0.56
-0.76
-1.03
-1.26
-1.36
-1.30
-1.10
-0.82
-0.58
-0.48
-0.53
-0.69
-0.85
-0.91
-0.84
-0.70
-0.53
-0.35
-0.15
0.12
0.43
0.70
0.83
0.78
0.61
0.48
0.49
0.63
0.77
0.74
0.44
-0.05
-0.52
-0.77
-0.74
-0.53
-0.34
-0.37
-0.66
-1.09
-1.47
-1.62
-1.48
-1.17
-0.82
-0.55
-0.39
-0.29
-0.16
0.02
0.25
0.43
0.53
0.58
0.68
0.95
1.46
2.14
2.82
3.25
3.28
2.87
2.16
1.36
0.70
0.32
0.22
0.28
0.33
0.23
-0.04
-0.45
-0.88
-1.25
-1.49
-1.60
-1.61
-1.59
-1.61
-1.71
-1.88
-2.07
-2.19
-2.17
-1.94
-1.52
-0.95
-0.34
0.20
0.59
0.81
0.87
0.83
0.72
0.57
0.40
0.21
0.05
-0.03
-0.02
0.10
0.26
0.38
0.40
0.33
0.23
0.16
0.13
0.10
0.00
-0.21
-0.51
-0.80
-0.99
-1.01
-0.90
-0.73
-0.63
-0.64
-0.75
-0.88
-0.93
-0.80
-0.45
0.10
0.79
1.48
2.07
2.47
2.67
2.72
2.64
2.46
2.15
1.69
1.07
0.39
-0.23
-0.66
-0.82
-0.74
-0.54
-0.34
-0.21
-0.14
-0.10
-0.03
0.08
0.21
0.33
0.42
0.47
0.44
0.30
-0.01
-0.48
-1.06
-1.59
-1.91
-1.91
-1.58
-1.05
-0.49
-0.03
0.29
0.49
0.63
0.72
0.76
0.73
0.65
0.53
0.42
0.35
0.32
0.29
0.24
0.14
0.02
-0.10
-0.22
-0.40
-0.68
-1.08
-1.53
-1.88
-1.95
-1.69
-1.18
-0.67
-0.44
-0.62
-1.16
-1.74
-2.04
-1.86
-1.22
-0.33
0.57
1.36
2.06
2.74
3.42
3.96
4.18
3.90
3.15
2.10
1.03
0.17
-0.39
-0.68
-0.81
-0.88
-0.91
-0.88
-0.79
-0.65
-0.53
-0.47
-0.50
-0.59
-0.70
-0.81
-0.91
-1.00
-1.06
-1.07
-0.99
-0.78
-0.49
-0.17
0.08
0.22
0.25
0.26
0.32
0.44
0.56
0.62
0.56
0.42
0.28
0.21
0.22
0.26
0.26
0.20
0.15
0.19
0.37
0.60
0.74
0.60
0.12
-0.59
-1.31
-1.78
-1.82
-1.43
-0.77
-0.10
0.33
0.40
0.13
-0.34
-0.78
-1.03
-0.98
-0.61
0.05
0.92
1.91
2.86
3.60
3.94
3.77
3.09
2.05
0.88
-0.14
-0.82
-1.07
-0.97
-0.70
-0.46
-0.41
-0.61
-1.00
-1.41
-1.68
-1.70
-1.47
-1.07
-0.66
-0.34
-0.18
-0.15
-0.20
-0.27
-0.32
-0.35
-0.36
-0.38
-0.40
-0.40
-0.38
-0.33
-0.29
-0.28
-0.33
-0.42
-0.50
-0.49
-0.36
-0.16
0.03
0.12
0.09
-0.01
-0.07
0.00
0.18
0.36
0.42
0.28
-0.04
-0.42
-0.73
-0.88
-0.84
-0.67
-0.43
-0.18
0.02
0.14
0.12
-0.03
-0.28
-0.50
-0.56
-0.32
0.28
1.19
2.22
3.17
3.82
4.03
3.78
3.10
2.15
1.12
0.20
-0.44
-0.72
-0.68
-0.46
-0.24
-0.18
-0.32
-0.62
-0.94
-1.13
-1.15
-1.03
-0.86
-0.75
-0.73
-0.76
-0.79
-0.79
-0.78
-0.82
-0.92
-1.04
-1.04
-0.83
-0.39
0.19
0.71
1.00
1.00
0.77
0.44
0.15
-0.02
-0.10
-0.14
-0.22
-0.32
-0.42
-0.46
-0.38
-0.19
0.09
0.43
0.75
0.97
0.99
0.73
0.19
-0.54
-1.30
-1.89
-2.16
-2.10
-1.77
-1.34
-0.97
-0.77
-0.75
-0.87
-1.02
-1.07
-0.89
-0.38
0.49
1.61
2.81
3.81
4.35
4.30
3.66
2.59
1.38
0.31
-0.39
-0.61
-0.43
-0.02
0.42
0.72
0.78
0.62
0.29
-0.11
-0.52
-0.89
-1.19
-1.44
-1.64
-1.80
-1.92
-1.98
-1.96
-1.83
-1.58
-1.21
-0.73
-0.18
0.34
0.75
0.96
0.92
0.67
0.30
-0.03
-0.19
-0.11
0.18
0.56
0.89
1.01
0.84
0.35
-0.36
-1.15
-1.79
-2.05
-1.76
-0.91
0.35
1.72
2.87
3.53
3.55
2.97
1.94
0.66
-0.68
-1.93
-3.04
-3.95
-4.64
-5.07
-5.25
-5.22
-5.10
-5.04
-5.22
-5.72
-6.50
-7.43
-8.30
-8.97
-9.43
-9.84
-10.43
-11.43
-12.90
-14.71
-16.62
-18.39
-19.86
-21.10
-22.34
-23.91
-26.14
-29.22
-33.14
-37.62
-42.26
-46.56
-50.25
-53.38
-56.47
-60.31
-65.67
-72.91
-81.67
-91.00
-99.72
-107.00
-112.81
-118.10
-124.41
-133.16
-144.95
-159.16
-174.02
-187.01
-195.50
-197.22
-190.62
-175.06
-150.83
-119.11
-81.53
-39.68
5.57
54.15
106.36
161.72
218.00
270.99
315.56
347.49
365.20
370.45
367.48
361.12
355.16
351.52
350.44
351.19
352.66
353.22
350.60
341.99
324.69
297.22
259.91
214.77
164.43
111.07
56.00
0.16
-54.79
-105.81
-148.86
-180.23
-198.13
-203.49
-199.54
-190.44
-179.66
-169.12
-159.12
-149.27
-139.39
-129.88
-121.48
-114.73
-109.43
-104.71
-99.49
-92.99
-85.15
-76.58
-68.30
-61.20
-55.69
-51.54
-48.10
-44.56
-40.37
-35.47
-30.23
-25.30
-21.27
-18.42
-16.65
-15.55
-14.58
-13.36
-11.75
-9.90
-8.10
-6.63
-5.62
-4.98
-4.56
-4.13
-3.58
-2.89
-2.12
-1.38
-0.74
-0.28
0.01
0.13
0.13
0.07
0.00
-0.00
0.06
0.19
0.32
0.39
0.34
0.17
-0.11
-0.43
-0.78
-1.10
-1.35
-1.49
-1.44
-1.19
-0.76
-0.24
0.25
0.61
0.82
0.91
0.93
0.86
0.65
0.25
-0.32
-0.93
-1.38
-1.51
-1.30
-0.87
-0.43
-0.17
-0.16
-0.38
-0.69
-0.97
-1.12
-1.11
-0.93
-0.63
-0.27
0.07
0.29
0.34
0.21
-0.02
-0.24
-0.34
-0.27
-0.04
0.29
0.62
0.88
1.02
1.04
0.96
0.82
0.70
0.67
0.76
0.97
1.25
1.52
1.73
1.81
1.70
1.38
0.85
0.21
-0.42
-0.91
-1.17
-1.22
-1.11
-0.94
-0.77
-0.60
-0.43
-0.29
-0.21
-0.25
-0.40
-0.59
-0.68
-0.57
-0.26
0.17
0.53
0.71
0.69
0.57
0.49
0.54
0.67
0.77
0.72
0.48
0.14
-0.20
-0.49
-0.74
-1.04
-1.43
-1.86
-2.22
-2.35
-2.20
-1.80
-1.28
-0.81
-0.48
-0.34
-0.36
-0.51
-0.73
-0.94
-1.05
-1.02
-0.79
-0.42
0.01
0.37
0.60
0.67
0.66
0.66
0.75
0.95
1.22
1.47
1.60
1.53
1.24
0.76
0.15
-0.50
-1.10
-1.55
-1.80
-1.84
-1.72
-1.53
-1.37
-1.29
-1.29
-1.32
-1.33
-1.31
-1.28
-1.28
-1.35
-1.45
-1.52
-1.46
-1.24
-0.86
-0.43
-0.04
0.21
0.32
0.34
0.38
0.52
0.84
1.33
1.93
2.57
3.17
3.70
4.09
4.26
4.15
3.71
2.97
2.06
1.17
0.49
0.11
0.03
0.14
0.29
0.40
0.40
0.28
0.06
-0.25
-0.59
-0.87
-1.03
-1.04
-0.93
-0.79
-0.70
-0.65
-0.57
-0.42
-0.22
-0.06
-0.12
