1659461379.00
64.000000
-0.00
-0.00
-0.00
-0.00
-0.00
-0.00
-0.00
-0.00
-0.00
-0.00
0.00
0.01
0.01
-0.00
-0.03
-0.05
-0.05
0.00
0.13
0.36
0.66
1.01
1.37
1.72
2.06
2.40
2.79
3.24
3.80
4.42
5.06
5.66
6.20
6.68
7.15
7.68
8.31
9.14
10.09
11.04
11.88
12.56
13.14
13.76
14.65
15.96
17.91
20.32
22.90
25.38
27.58
29.57
31.68
34.32
37.81
42.54
48.15
54.10
59.83
64.97
69.58
74.14
79.35
85.71
93.76
103.00
112.62
121.73
129.76
136.75
143.31
150.77
157.82
166.69
177.95
191.71
206.77
220.23
227.79
224.83
207.97
176.32
132.22
79.49
22.44
-35.68
-93.31
-150.13
-206.25
-261.38
-314.71
-364.83
-410.86
-452.12
-488.01
-517.57
-539.31
-551.42
-552.12
-540.41
-516.21
-480.88
-436.61
-385.97
-331.43
-274.99
-218.18
-162.21
-108.31
-57.64
-11.54
28.93
63.20
91.35
113.98
131.99
146.16
156.92
164.33
168.20
168.51
165.62
160.33
153.66
146.57
139.61
132.83
125.91
118.36
109.72
99.64
87.99
75.15
62.33
51.64
45.66
46.40
54.20
67.30
82.23
95.08
102.96
104.97
102.04
96.02
88.82
81.30
73.67
65.93
58.40
51.69
46.44
42.82
40.45
38.51
36.07
32.58
28.10
23.15
18.53
14.85
12.39
10.91
9.92
8.84
7.39
5.63
3.82
2.32
1.29
0.71
0.35
-0.03
-0.66
-1.57
-2.62
-3.54
-4.01
-3.82
-3.00
-1.83
-0.79
-0.30
-0.57
-1.45
-2.59
-3.61
-4.31
-4.72
-5.01
-5.30
-5.54
-5.55
-5.13
-4.27
-3.12
-1.96
-1.07
-0.55
-0.40
-0.48
-0.65
-0.81
-0.97
-1.18
-1.49
-1.90
-2.33
-2.63
-2.69
-2.48
-2.06
-1.56
-1.12
-0.77
-0.53
-0.38
-0.26
-0.17
-0.05
0.19
0.67
1.50
2.68
4.05
5.39
6.46
7.15
7.50
7.68
7.87
8.17
8.54
8.83
8.83
8.40
7.50
6.18
4.68
3.06
1.44
-0.13
-1.64
-3.11
-4.55
-5.93
-7.21
-8.33
-9.24
-9.88
-10.29
-10.48
-10.49
-10.30
-9.88
-9.22
-8.37
-7.51
-6.80
-6.41
-6.33
-6.42
-6.47
-6.28
-5.82
-5.18
-4.52
-4.00
-3.70
-3.60
-3.62
-3.65
-3.60
-3.43
-3.15
-2.86
-2.68
-2.69
-2.91
-3.27
-3.65
-3.90
-3.95
-3.77
-3.36
-2.73
-1.90
-0.94
0.02
0.80
1.24
1.29
1.02
0.54
0.05
-0.38
-0.72
-1.03
-1.36
-1.72
-2.04
-2.24
-2.32
-2.27
-2.13
-1.94
-1.73
-1.52
-1.34
-1.18
-1.10
-1.16
-1.41
-1.84
-2.43
-3.07
-3.62
-4.03
-4.25
-4.34
-4.35
-4.35
-4.35
-4.37
-4.46
-4.67
-5.05
-5.54
-5.96
-6.06
-5.57
-4.43
-2.74
-0.84
0.94
2.33
3.29
3.93
4.41
4.84
5.24
5.50
5.50
5.20
4.65
3.97
3.36
2.94
2.78
2.84
2.97
3.01
2.88
2.60
2.27
1.97
1.71
1.42
0.99
0.36
-0.37
-1.05
-1.51
-1.66
-1.60
-1.51
-1.59
-1.99
-2.68
-3.59
-4.57
-5.50
-6.23
-6.64
-6.60
-6.01
-4.90
-3.36
-1.65
-0.03
1.30
2.25
2.86
3.24
3.49
3.62
3.63
3.44
3.05
2.52
1.95
1.47
1.17
1.04
0.99
0.90
0.63
0.09
-0.72
-1.72
-2.83
-3.95
-5.03
-6.06
-7.00
-7.82
-8.45
-8.89
-9.18
-9.45
-9.86
-10.53
-11.54
-12.87
-14.43
-16.08
-17.62
-18.77
-19.25
-18.83
-17.43
-15.13
-12.10
-8.55
-4.65
-0.50
3.81
8.09
12.08
15.50
18.12
19.87
20.82
21.16
21.08
20.74
20.21
19.54
18.73
17.79
16.75
15.63
14.48
13.36
12.30
11.34
10.47
9.67
8.89
8.09
7.24
6.30
5.26
4.19
3.16
2.27
1.56
1.00
0.47
-0.10
-0.76
-1.46
-2.08
-2.53
-2.76
-2.77
-2.61
-2.30
-1.86
-1.27
-0.56
0.22
1.00
1.71
2.34
2.90
3.40
3.79
4.01
3.96
3.60
2.98
2.25
1.66
1.40
1.51
1.82
2.07
2.02
1.61
1.00
0.45
0.18
0.21
0.37
0.41
0.20
-0.23
-0.69
-1.00
-1.06
-0.96
-0.88
-0.99
-1.36
-1.95
-2.65
-3.34
-3.93
-4.35
-4.59
-4.61
-4.39
-3.87
-3.05
-1.99
-0.82
0.30
1.27
2.01
2.54
2.93
3.19
3.32
3.27
3.03
2.65
2.20
1.80
1.47
1.23
1.03
0.89
0.83
0.87
1.01
1.19
1.30
1.28
1.10
0.82
0.51
0.21
-0.06
-0.34
-0.68
-1.11
-1.63
-2.19
-2.71
-3.11
-3.35
-3.44
-3.45
-3.49
-3.59
-3.71
-3.69
-3.35
-2.58
-1.46
-0.18
1.02
1.96
2.63
3.12
3.54
3.93
4.25
4.35
4.17
3.74
3.19
2.72
2.42
2.30
2.27
2.21
2.06
1.86
1.68
1.61
1.62
1.63
1.52
1.18
0.63
-0.02
-0.62
-1.05
-1.29
-1.41
-1.51
-1.69
-1.98
-2.37
-2.81
-3.22
-3.53
-3.65
-3.48
-2.97
-2.12
-1.05
0.10
1.18
2.06
2.68
3.05
3.18
3.15
3.02
2.88
2.78
2.76
2.76
2.74
2.63
2.45
2.25
2.09
1.97
1.86
1.69
1.42
1.05
0.66
0.35
0.17
0.07
-0.03
-0.25
-0.64
-1.17
-1.75
-2.24
-2.56
-2.71
-2.75
-2.76
-2.83
-3.02
-3.33
-3.75
-4.20
-4.57
-4.72
-4.54
-4.02
-3.20
-2.24
-1.26
-0.34
0.50
1.28
1.96
2.46
2.67
2.54
2.13
1.58
1.09
0.80
0.78
1.02
1.38
1.72
1.90
1.82
1.50
1.06
0.68
0.48
0.48
0.58
0.60
0.43
0.09
-0.28
-0.48
-0.46
-0.24
0.01
0.11
-0.01
-0.33
-0.78
-1.27
-1.80
-2.37
-2.93
-3.37
-3.56
-3.35
-2.72
-1.76
-0.64
0.45
1.42
2.21
2.80
3.17
3.29
3.11
2.69
2.14
1.60
1.20
0.99
0.93
0.96
1.01
1.05
1.08
1.11
1.13
1.09
0.98
0.80
0.60
0.39
0.20
-0.01
-0.24
-0.52
-0.79
-1.00
-1.12
-1.17
-1.27
-1.51
-1.98
-2.67
-3.45
-4.13
-4.53
-4.54
-4.16
-3.50
-2.71
-1.94
-1.28
-0.76
-0.36
-0.04
0.24
0.46
0.62
0.66
0.53
0.21
-0.30
-0.92
-1.56
-2.11
-2.53
-2.83
-3.07
-3.31
-3.60
-3.89
-4.19
-4.48
-4.80
-5.19
-5.72
-6.37
-7.09
-7.74
-8.15
-8.26
-8.11
-7.77
-7.28
-6.54
-5.34
-3.45
-0.68
2.99
7.30
11.90
16.49
21.01
25.62
30.49
35.73
41.24
46.77
51.77
55.74
58.48
60.31
61.83
63.69
66.38
70.18
75.23
80.95
86.54
91.19
94.45
96.07
95.96
94.23
91.46
88.61
85.83
82.75
78.77
73.54
67.00
59.00
49.27
37.48
23.32
5.39
-17.65
-46.20
-79.05
-114.01
-149.09
-183.21
-216.12
-240.42
-248.78
-237.88
-211.38
-177.12
-142.15
-110.59
-84.06
-62.34
-44.23
-29.42
-17.97
-10.00
-5.08
-2.39
-1.19
-1.06
-1.15
-0.36
1.46
3.96
6.34
7.93
8.28
7.04
3.83
-0.57
-4.70
-8.35
-10.92
-12.78
-14.78
-17.89
-22.92
-30.92
-42.02
-55.89
-71.79
-87.79
-100.50
-105.46
-98.78
-76.53
-43.27
-6.42
26.29
49.49
61.79
65.37
64.07
61.17
58.22
54.91
51.30
48.16
47.48
50.24
56.42
64.57
72.07
75.90
73.55
64.85
51.83
37.99
27.01
21.40
21.33
24.64
27.91
27.81
23.04
14.37
4.05
-5.49
-12.70
-17.39
-20.44
-22.93
-25.57
-28.11
-29.77
-30.07
-28.98
-27.03
-25.07
-23.89
-23.78
-24.45
-25.22
-25.36
-24.43
-22.47
-19.83
-17.00
-14.40
-12.18
-10.24
-8.32
-6.18
-3.78
-1.28
0.99
2.69
3.61
3.80
3.51
3.10
2.86
2.89
3.16
3.49
3.74
3.81
3.76
3.69
3.72
3.94
4.33
4.75
4.98
4.83
4.16
2.97
1.36
-0.49
-2.33
-3.89
-4.91
-5.32
-5.27
-5.11
-5.33
-6.28
-7.99
-10.14
-12.18
-13.59
-14.09
-13.69
-12.61
-11.15
-9.52
-7.83
-6.14
-4.51
-2.99
-1.66
-0.56
0.29
0.90
1.30
1.52
1.55
1.36
0.91
0.16
-0.77
-1.56
-1.73
-0.85
1.24
4.27
7.58
10.36
12.00
12.29
11.41
9.78
7.85
5.91
4.10
2.51
1.23
0.40
0.02
-0.09
-0.29
-0.98
-2.31
-4.05
-5.66
-6.46
-5.99
-4.21
-1.55
1.30
3.70
5.28
6.03
6.19
6.04
5.76
5.30
4.55
3.37
1.71
-0.29
-2.38
-4.19
-5.36
-5.56
-4.59
-2.41
0.72
4.27
7.42
9.32
9.34
7.38
3.97
0.08
-3.13
-4.83
-4.79
-3.44
-1.62
-0.23
0.12
-0.68
-2.28
-4.05
-5.33
-5.64
-4.85
-3.17
-1.04
1.05
2.72
3.87
4.61
5.22
5.92
6.83
7.87
8.83
9.43
9.44
8.78
7.57
6.17
5.14
5.21
7.02
10.82
16.19
21.90
26.18
27.37
24.62
18.39
10.40
2.94
-1.99
-3.53
-2.10
0.88
3.78
5.38
5.23
3.63
1.21
-1.31
-3.42
-4.82
-5.43
-5.33
-4.68
-3.71
-2.67
-1.73
-0.97
-0.37
0.16
0.72
1.35
1.95
2.37
2.41
1.91
0.93
-0.23
-1.03
-0.83
0.75
3.59
6.92
9.57
10.36
8.77
5.24
1.07
-2.13
-3.21
-2.03
0.53
3.07
4.38
4.05
2.48
0.56
-0.92
-1.67
-1.95
-2.24
-2.84
-3.60
-4.00
-3.45
-1.68
1.03
3.95
6.21
7.22
6.95
5.87
4.69
4.02
4.10
4.89
6.23
8.10
10.63
13.83
17.30
20.11
21.06
19.25
14.66
8.35
2.22
-1.89
-2.91
-1.06
2.32
5.47
6.95
6.19
3.59
0.11
-3.22
-5.74
-7.25
-7.88
-7.91
-7.53
-6.83
-5.83
-4.60
-3.29
-2.14
-1.35
-1.00
-1.01
-1.14
-1.08
-0.49
0.83
2.96
5.77
8.99
12.17
14.78
16.24
16.14
14.38
11.34
7.87
4.99
3.50
3.60
4.74
5.90
6.09
4.83
2.37
-0.47
-2.81
-4.11
-4.42
-4.23
-4.13
-4.55
-5.55
-6.94
-8.41
-9.69
-10.62
-11.16
-11.31
-11.10
-10.60
-9.85
-8.89
-7.69
-6.08
-3.77
-0.51
3.79
8.76
13.53
16.92
17.85
15.87
11.45
5.98
1.21
-1.43
-1.40
0.77
3.82
6.38
7.57
7.21
5.77
3.94
2.26
0.95
-0.05
-0.88
-1.57
-2.03
-2.09
-1.80
-1.41
-1.43
-2.30
-4.21
-6.87
-9.65
-11.76
-12.58
-11.88
-9.87
-7.03
-3.89
-0.84
1.94
4.35
6.33
7.69
8.34
8.31
7.88
7.49
7.48
7.94
8.57
8.87
8.43
7.20
5.52
3.97
3.04
2.83
3.06
3.20
2.78
1.62
-0.10
-2.01
-3.66
-4.85
-5.62
-6.27
-7.12
-8.36
-9.89
-11.34
-12.21
-12.03
-10.50
-7.53
-3.23
2.05
7.66
12.68
16.09
17.03
15.25
11.30
6.48
2.37
0.28
0.68
3.08
6.33
9.09
10.44
10.09
8.41
6.09
3.81
1.99
0.72
-0.15
-0.82
-1.42
-2.01
-2.57
-3.14
-3.87
-4.98
-6.64
-8.87
-11.48
-14.10
-16.23
-17.40
-17.23
-15.50
-12.19
-7.52
-2.04
3.42
7.87
10.49
10.90
9.41
6.93
4.63
3.44
3.67
4.95
6.50
7.53
7.66
7.00
5.97
4.98
4.18
3.44
2.52
1.28
-0.19
-1.58
-2.56
-2.97
-2.88
-2.63
-2.68
-3.41
-4.97
-7.18
-9.58
-11.56
-12.53
-12.11
-10.15
-6.74
-2.24
2.75
7.32
10.42
11.14
9.17
5.07
0.18
-3.78
-5.44
-4.35
-1.10
2.98
6.46
8.37
8.51
7.28
5.39
3.48
1.91
0.78
0.02
-0.44
-0.66
-0.68
-0.58
-0.53
-0.79
-1.56
-2.90
-4.61
-6.26
-7.32
-7.42
-6.52
-4.94
-3.21
-1.79
-0.85
-0.22
0.44
1.40
2.64
3.84
4.63
4.87
4.76
4.81
5.51
6.98
8.85
10.37
10.78
9.71
7.33
4.32
1.50
-0.51
-1.53
-1.85
-1.99
-2.43
-3.42
-4.87
-6.50
-7.93
-8.93
-9.44
-9.50
-9.20
-8.60
-7.81
-7.05
-6.70
-7.16
-8.63
-10.87
-13.15
-14.47
-13.97
-11.40
-7.23
-2.53
1.57
4.31
5.64
6.09
6.41
7.26
8.86
11.06
13.40
15.33
16.45
16.59
15.85
14.55
13.00
11.42
9.80
7.95
5.71
3.11
0.42
-1.97
-3.76
-4.91
-5.67
-6.43
-7.51
-8.97
-10.61
-12.14
-13.31
-14.08
-14.64
-15.28
-16.26
-17.56
-18.87
-19.65
-19.41
-17.99
-15.71
-13.28
-11.49
-10.81
-11.20
-12.14
-12.92
-13.03
-12.35
-11.16
-10.03
-9.47
-9.72
-10.72
-12.02
-12.96
-13.02
-12.03
-10.34
-8.75
-8.10
-8.76
-10.49
-12.31
-13.00
-11.75
-8.50
-3.91
1.06
5.69
9.93
14.04
18.61
24.13
30.95
39.37
49.81
62.53
77.14
92.35
105.22
113.03
114.01
108.42
98.49
87.73
79.47
75.25
74.91
75.33
73.82
68.67
59.77
48.62
37.79
29.88
26.17
27.01
28.81
28.35
23.19
12.69
-1.48
-15.71
-25.58
-28.04
-20.64
-5.51
15.78
41.44
68.68
93.31
110.15
114.97
96.88
68.86
35.75
5.91
-13.59
-20.76
-19.44
-16.78
-19.24
-30.87
-50.36
-75.56
-101.30
-119.42
-123.93
-115.69
-104.99
-99.70
-104.58
-120.47
-146.57
-179.02
-212.16
-240.31
-258.77
-264.11
-253.89
-228.06
-188.00
-137.91
-82.45
-26.73
23.73
64.12
91.77
107.21
112.98
113.12
111.21
110.19
111.51
114.62
117.58
118.24
115.54
109.45
101.04
91.70
82.58
74.14
65.91
57.07
47.16
36.45
25.33
13.90
1.93
-10.61
-22.88
-33.16
-39.59
-41.32
-39.32
-36.07
-34.17
-34.74
-36.78
-37.99
-36.55
-32.41
-27.47
-24.25
-24.22
-26.95
-30.51
-32.90
-33.30
-32.41
-31.65
-31.96
-33.15
-34.04
-33.41
-30.83
-27.09
-23.75
-22.47
-24.11
-28.15
-32.65
-34.47
-30.12
-16.89
5.81
35.59
67.25
94.09
110.11
112.16
101.11
81.33
58.90
39.29
25.52
17.67
13.74
11.13
7.97
3.76
-0.93
-5.23
-8.77
-11.81
-14.98
-18.72
-22.92
-26.96
-30.07
-31.94
-32.86
-33.59
-34.82
-36.77
-38.97
-40.54
-40.60
-38.73
-35.14
-30.60
-26.07
-22.40
-20.03
-18.85
-18.34
-17.78
-16.57
-14.49
-11.72
-8.72
-5.99
-3.84
-2.33
-1.28
-0.50
0.19
0.84
1.44
1.97
2.45
2.87
3.26
3.62
3.95
4.23
4.39
4.35
4.01
3.30
2.25
1.01
-0.23
-1.27
-2.01
-2.44
-2.63
-2.68
-2.61
-2.36
-1.76
-0.62
1.14
3.31
5.38
6.79
7.13
6.39
4.93
3.33
2.21
1.91
2.31
2.92
3.30
3.28
3.09
3.19
4.01
5.88
8.69
11.77
14.04
14.65
13.48
11.27
9.38
9.27
12.04
18.01
26.53
36.19
45.31
52.23
55.26
52.59
42.50
24.90
2.95
-17.98
-33.43
-42.04
-44.93
-44.25
-41.77
-38.11
-32.91
-25.94
-18.01
-11.12
-7.60
-8.41
-12.75
-18.52
-23.24
-25.12
-23.90
-21.03
-19.80
-22.49
-30.16
-42.78
-59.41
-77.99
-95.21
-106.76
-108.28
-94.03
-65.66
-28.75
8.90
39.96
60.49
70.95
75.05
77.03
79.16
80.48
78.70
72.64
62.01
48.90
36.42
27.15
21.93
19.80
18.42
16.09
12.32
7.80
3.93
1.80
1.51
2.15
2.34
0.81
-2.57
-7.00
-11.21
-13.92
-14.56
-13.36
-11.27
-9.37
-8.68
-9.46
-11.28
-13.34
-14.84
-15.30
-14.77
-13.72
-12.77
-12.40
-12.74
-13.54
-14.43
-15.04
-15.12
-14.61
-13.57
-12.09
-10.26
-8.14
-5.79
-3.36
-1.03
0.98
2.45
3.25
3.41
3.12
2.68
2.40
2.42
2.69
2.94
2.78
1.88
0.20
-2.01
-4.22
-5.79
-6.28
-5.56
-3.86
-1.61
0.72
2.80
4.42
5.45
5.81
5.49
4.79
4.23
4.30
5.15
6.34
7.05
6.48
4.44
1.49
-1.22
-2.61
-2.13
-0.04
2.82
5.51
7.34
8.13
8.06
7.55
7.08
7.07
7.77
9.15
10.88
12.40
13.14
12.75
11.20
8.79
5.99
3.33
1.21
-0.15
-0.73
-0.69
-0.36
-0.09
-0.15
-0.62
-1.48
-2.61
-3.96
-5.48
-7.10
-8.66
-9.93
-10.68
-10.82
-10.43
-9.72
-8.82
-7.75
-6.37
-4.49
-2.02
0.98
4.32
7.76
10.98
13.63
15.26
15.42
13.86
10.70
6.51
2.19
-1.38
-3.62
-4.44
-4.19
-3.40
-2.50
-1.71
-1.00
-0.30
0.37
0.84
0.86
0.24
-0.98
-2.57
-4.23
-5.74
-7.07
-8.34
-9.71
-11.27
-12.98
-14.71
-16.28
-17.51
-18.21
-18.18
-17.24
-15.33
-12.63
-9.57
-6.71
-4.48
-3.01
-2.00
-0.82
1.18
4.44
8.89
13.99
18.83
22.47
24.22
23.88
21.68
18.27
14.41
10.83
8.09
6.50
6.10
6.67
7.74
8.75
9.10
8.45
6.73
4.23
1.43
-1.13
-3.07
-4.21
-4.65
-4.70
-4.77
-5.23
-6.29
-7.85
-9.52
-10.77
-11.14
-10.39
-8.63
-6.19
-3.55
-1.12
0.78
1.98
2.47
2.39
2.12
2.19
3.24
5.72
9.59
14.21
18.40
20.80
20.39
16.97
11.25
4.66
-1.24
-5.28
-7.01
-6.78
-5.39
-3.76
-2.59
-2.25
-2.78
-4.03
-5.75
-7.67
-9.62
-11.46
-13.09
-14.41
-15.31
-15.63
-15.29
-14.24
-12.55
-10.40
-8.04
-5.78
-3.94
-2.85
-2.64
-3.26
-4.29
-5.02
-4.56
-2.16
2.47
8.92
16.04
22.19
25.74
25.72
22.22
16.46
10.41
6.02
4.50
5.93
9.39
13.44
16.75
18.55
18.62
17.21
14.65
11.34
7.63
4.00
0.99
-0.85
-1.28
-0.43
1.09
2.46
2.94
2.16
0.33
-1.88
-3.64
-4.31
-3.75
-2.33
-0.77
0.25
0.44
-0.00
-0.47
-0.18
1.48
4.62
8.78
12.94
15.86
16.45
14.28
9.73
3.99
-1.39
-5.01
-6.17
-5.04
-2.49
0.29
2.29
2.92
2.10
0.10
-2.61
-5.51
-8.13
-10.05
-11.02
-10.94
-9.94
-8.30
-6.42
-4.59
-2.98
-1.57
-0.28
0.92
1.97
2.70
2.99
2.86
2.56
2.52
3.29
5.49
9.59
15.72
23.47
31.71
38.85
43.27
43.98
41.18
36.20
31.04
27.45
26.15
26.53
27.08
26.30
23.52
19.18
14.47
10.67
8.53
8.10
9.02
10.81
13.17
15.90
18.80
21.84
25.51
31.18
40.99
56.99
79.88
107.95
136.99
161.47
176.46
179.50
171.36
155.41
136.00
116.64
99.07
83.40
69.10
56.02
44.73
36.15
