1660937581.00
64.000000
-0.00
-0.00
-0.00
-0.00
-0.00
-0.00
-0.00
-0.00
-0.00
-0.00
0.00
0.01
0.01
-0.00
-0.03
-0.05
-0.05
0.00
0.13
0.36
0.66
1.01
1.37
1.72
2.06
2.40
2.79
3.25
3.81
4.44
5.10
5.73
6.32
6.89
7.50
8.24
9.14
10.29
11.58
12.87
14.04
15.04
15.94
16.94
18.28
20.11
22.64
25.64
28.82
31.86
34.62
37.21
40.02
43.50
47.99
53.83
60.59
67.71
74.57
80.87
86.81
93.00
100.26
109.11
119.98
132.20
144.77
156.75
167.67
177.83
188.16
200.25
212.81
227.88
245.67
265.87
287.09
306.56
320.41
324.56
316.09
294.16
260.79
219.16
172.91
124.94
76.93
29.71
-16.11
-59.76
-100.39
-137.30
-170.97
-202.66
-234.16
-267.05
-301.91
-337.76
-371.75
-399.89
-417.90
-422.98
-414.80
-395.69
-369.77
-341.29
-313.27
-286.92
-262.07
-238.03
-214.70
-192.63
-172.67
-155.29
-140.19
-126.40
-112.87
-98.98
-84.77
-70.95
-58.38
-47.66
-38.85
-31.48
-24.87
-18.40
-11.79
-5.16
1.10
6.51
10.76
13.82
15.92
17.49
18.94
20.53
22.28
24.02
25.49
26.48
26.93
26.97
26.79
26.55
26.33
26.10
25.76
25.23
24.51
23.66
22.80
22.04
21.40
20.84
20.26
19.58
18.80
18.00
17.30
16.81
16.54
16.42
16.36
16.24
16.01
15.67
15.25
14.78
14.30
13.83
13.39
12.97
12.58
12.20
11.83
11.48
11.20
11.02
10.94
10.87
10.68
10.24
9.53
8.68
7.88
7.34
7.18
7.35
7.68
7.99
8.14
8.10
7.89
7.58
7.24
6.89
6.55
6.24
5.95
5.64
5.26
4.73
4.01
3.13
2.19
1.29
0.53
-0.06
-0.48
-0.78
-1.03
-1.27
-1.55
-1.91
-2.37
-2.92
-3.52
-4.12
-4.70
-5.25
-5.82
-6.42
-7.06
-7.70
-8.28
-8.78
-9.18
-9.45
-9.60
-9.59
-9.43
-9.15
-8.79
-8.42
-8.07
-7.72
-7.33
-6.83
-6.23
-5.58
-4.96
-4.43
-4.01
-3.67
-3.33
-2.95
-2.49
-1.97
-1.43
-0.92
-0.48
-0.13
0.14
0.37
0.60
0.87
1.18
1.51
1.85
2.16
2.43
2.65
2.84
2.98
3.09
3.17
3.27
3.42
3.64
3.92
4.21
4.42
4.47
4.30
3.95
3.49
3.07
2.84
2.89
3.24
3.78
4.36
4.77
4.89
4.68
4.23
3.73
3.36
3.25
3.38
3.67
3.96
4.14
4.19
4.21
4.30
4.50
4.79
5.03
5.06
4.80
4.31
3.76
3.36
3.22
3.32
3.49
3.50
3.24
2.71
2.09
1.57
1.29
1.27
1.41
1.57
1.68
1.75
1.85
2.05
2.38
2.81
3.30
3.75
4.10
4.26
4.18
3.90
3.48
3.05
2.71
2.50
2.38
2.28
2.13
1.92
1.70
1.53
1.42
1.34
1.22
1.02
0.71
0.28
-0.26
-0.88
-1.56
-2.19
-2.64
-2.80
-2.62
-2.18
-1.66
-1.26
-1.11
-1.21
-1.41
-1.52
-1.38
-0.95
-0.30
0.45
1.18
1.90
2.62
3.42
4.27
5.05
5.61
5.82
5.67
5.29
4.84
4.46
4.16
3.90
3.57
3.11
2.52
1.83
1.11
0.42
-0.18
-0.61
-0.82
-0.85
-0.78
-0.76
-0.91
-1.30
-1.85
-2.42
-2.82
-2.91
-2.65
-2.11
-1.38
-0.62
0.11
0.75
1.27
1.66
1.90
1.96
1.85
1.66
1.51
1.52
1.73
2.09
2.47
2.71
2.75
2.65
2.52
2.51
2.65
2.85
2.94
2.73
2.11
1.09
-0.19
-1.54
-2.76
-3.68
-4.18
-4.23
-3.90
-3.28
-2.52
-1.73
-0.98
-0.29
0.35
0.99
1.65
2.39
3.24
4.20
5.23
6.21
6.99
7.37
7.19
6.41
5.12
3.55
1.96
0.58
-0.49
-1.26
-1.85
-2.36
-2.79
-3.09
-3.16
-2.93
-2.47
-1.92
-1.42
-1.11
-1.02
-1.14
-1.43
-1.87
-2.38
-2.89
-3.25
-3.32
-3.03
-2.43
-1.67
-0.95
-0.43
-0.16
-0.12
-0.22
-0.37
-0.47
-0.45
-0.24
0.18
0.79
1.50
2.19
2.78
3.23
3.60
3.93
4.23
4.39
4.26
3.73
2.80
1.66
0.53
-0.36
-0.89
-1.08
-1.07
-1.00
-0.98
-1.04
-1.12
-1.14
-1.00
-0.62
0.00
0.85
1.83
2.82
3.68
4.31
4.64
4.68
4.47
4.06
3.48
2.80
2.07
1.36
0.76
0.29
-0.08
-0.44
-0.89
-1.49
-2.19
-2.84
-3.28
-3.36
-3.05
-2.49
-1.84
-1.33
-1.11
-1.21
-1.57
-2.06
-2.56
-2.96
-3.19
-3.20
-2.97
-2.48
-1.80
-1.08
-0.50
-0.24
-0.35
-0.73
-1.14
-1.32
-1.09
-0.44
0.48
1.46
2.36
3.07
3.59
3.95
4.14
4.14
3.92
3.45
2.72
1.76
0.61
-0.63
-1.87
-2.99
-3.87
-4.46
-4.74
-4.76
-4.58
-4.23
-3.71
-2.96
-1.94
-0.62
0.99
2.78
4.61
6.30
7.64
8.49
8.77
8.52
7.86
6.97
5.99
5.04
4.15
3.29
2.40
1.45
0.45
-0.53
-1.39
-2.03
-2.38
-2.47
-2.36
-2.17
-2.00
-1.88
-1.85
-1.91
-2.09
-2.39
-2.84
-3.35
-3.81
-4.09
-4.12
-3.88
-3.46
-2.98
-2.52
-2.13
-1.82
-1.57
-1.34
-1.11
-0.84
-0.48
0.05
0.83
1.91
3.28
4.87
6.54
8.12
9.46
10.45
11.07
11.35
11.29
10.82
9.84
8.25
6.06
3.43
0.61
-2.15
-4.68
-6.93
-8.92
-10.60
-11.90
-12.67
-12.82
-12.36
-11.42
-10.23
-9.04
-8.07
-7.40
-7.05
-6.88
-6.66
-6.11
-4.95
-3.05
-0.43
2.67
5.86
8.72
10.88
12.14
12.45
11.90
10.66
8.97
7.10
5.39
4.18
3.72
4.06
4.98
6.07
6.84
6.94
6.25
4.90
3.17
1.36
-0.34
-1.82
-3.01
-3.85
-4.27
-4.25
-3.90
-3.42
-3.04
-2.95
-3.20
-3.71
-4.29
-4.75
-4.98
-4.99
-4.83
-4.62
-4.40
-4.18
-3.89
-3.50
-2.96
-2.32
-1.66
-1.11
-0.77
-0.69
-0.90
-1.31
-1.80
-2.22
-2.44
-2.43
-2.23
-1.98
-1.81
-1.76
-1.81
-1.87
-1.82
-1.59
-1.17
-0.57
0.16
0.97
1.82
2.64
3.38
4.01
4.51
4.89
5.16
5.28
5.25
5.04
4.64
4.08
3.43
2.74
2.11
1.57
1.20
1.00
1.02
1.23
1.57
1.93
2.17
2.12
1.69
0.86
-0.28
-1.53
-2.68
-3.54
-3.99
-4.03
-3.77
-3.39
-3.06
-2.93
-3.07
-3.42
-3.87
-4.26
-4.49
-4.51
-4.34
-4.06
-3.75
-3.48
-3.29
-3.16
-3.04
-2.88
-2.60
-2.19
-1.68
-1.14
-0.60
-0.07
0.51
1.19
2.01
2.90
3.76
4.43
4.83
4.90
4.66
4.19
3.55
2.79
2.00
1.27
0.64
0.14
-0.26
-0.68
-1.20
-1.88
-2.65
-3.37
-3.93
-4.27
-4.48
-4.69
-5.02
-5.46
-5.91
-6.23
-6.38
-6.44
-6.59
-6.98
-7.65
-8.49
-9.31
-9.90
-10.13
-9.95
-9.40
-8.53
-7.44
-6.21
-4.95
-3.70
-2.50
-1.38
-0.45
0.10
0.02
-0.88
-2.64
-5.06
-7.74
-10.30
-12.48
-14.35
-16.28
-18.75
-22.18
-26.72
-32.14
-37.98
-43.77
-49.20
-54.34
-59.59
-65.49
-72.40
-80.37
-88.98
-97.55
-105.47
-112.42
-118.63
-124.83
-132.00
-141.14
-152.89
-167.29
-183.67
-200.54
-215.82
-227.06
-231.90
-228.58
-216.27
-195.21
-166.60
-132.12
-93.33
-51.24
-6.32
40.90
89.00
135.15
175.39
205.85
224.21
230.71
228.01
219.96
209.99
199.91
189.85
179.14
167.32
154.88
143.01
132.89
125.03
119.06
114.08
109.30
104.38
99.50
95.10
91.57
89.00
87.21
85.92
84.97
84.37
84.27
84.83
86.09
88.03
90.67
94.21
99.04
105.61
114.10
124.21
135.14
145.90
155.64
164.06
171.53
178.79
186.65
195.64
205.92
217.19
228.64
238.86
245.77
246.99
240.32
224.65
200.32
169.08
133.41
95.53
56.51
16.11
-26.72
-72.63
-120.70
-167.98
-209.99
-242.11
-261.31
-267.22
-262.18
-250.14
-235.04
-219.56
-204.73
-190.48
-176.62
-163.46
-151.77
-142.16
-134.54
-127.95
-121.08
-112.91
-103.30
-92.93
-83.01
-74.60
-68.17
-63.41
-59.52
-55.54
-50.80
-45.18
-39.07
-33.17
-28.15
-24.38
-21.78
-19.94
-18.29
-16.38
-14.05
-11.45
-8.91
-6.75
-5.15
-4.09
-3.39
-2.82
-2.21
-1.50
-0.76
-0.13
0.25
0.32
0.17
-0.04
-0.16
-0.08
0.19
0.53
0.80
0.94
0.96
0.97
1.05
1.22
1.43
1.59
1.61
1.47
1.21
0.92
0.72
0.65
0.73
0.92
1.18
1.46
1.75
2.02
2.25
2.39
2.43
2.40
2.32
2.25
2.19
2.12
1.96
1.65
1.22
0.69
0.15
-0.37
-0.87
-1.39
-1.92
-2.43
-2.83
-3.03
-3.02
-2.80
-2.45
-2.04
-1.66
-1.36
-1.16
-1.08
-1.08
-1.17
-1.32
-1.54
-1.81
-2.09
-2.32
-2.40
-2.26
-1.89
-1.36
-0.80
-0.33
-0.06
0.01
-0.10
-0.31
-0.55
-0.71
-0.72
-0.55
-0.22
0.16
0.48
0.69
0.74
0.70
0.65
0.62
0.61
0.54
0.36
0.05
-0.32
-0.64
-0.83
-0.87
-0.78
-0.65
-0.53
-0.45
-0.39
-0.31
-0.23
-0.17
-0.19
-0.30
-0.52
-0.79
-1.05
-1.23
-1.29
-1.20
-0.98
-0.68
-0.39
-0.14
0.06
0.28
0.62
1.14
1.80
2.48
3.04
3.37
3.48
3.46
3.44
3.48
3.53
3.51
3.31
2.84
2.10
1.15
0.09
-0.92
-1.73
-2.17
-2.11
-1.57
-0.70
0.25
0.97
1.23
0.90
-0.00
-1.36
-2.94
-4.50
-5.75
-6.42
-6.34
-5.45
-3.92
-2.06
-0.25
1.18
2.01
2.22
1.94
1.37
0.75
0.26
0.05
0.15
0.50
0.97
1.41
1.70
1.82
1.82
1.77
1.69
1.52
1.14
0.45
-0.55
-1.74
-2.90
-3.82
-4.39
-4.62
-4.65
-4.61
-4.57
-4.46
-4.16
-3.49
-2.39
-0.94
0.67
2.16
3.35
4.14
4.59
4.81
4.92
5.01
5.09
5.13
5.05
4.76
4.21
3.37
2.33
1.22
0.22
-0.53
-0.96
-1.11
-1.08
-0.96
-0.84
-0.73
-0.67
-0.70
-0.87
-1.24
-1.82
-2.54
-3.28
-3.90
-4.29
-4.37
-4.11
-3.56
-2.81
-2.02
-1.36
-1.00
-0.98
-1.27
-1.73
-2.16
-2.37
-2.22
-1.66
-0.72
0.45
1.69
2.86
3.86
4.68
5.33
5.84
6.16
6.18
5.79
4.90
3.55
1.92
0.24
-1.27
-2.44
-3.24
-3.66
-3.73
-3.46
-2.85
-1.96
-0.92
0.12
1.00
1.64
2.06
2.33
2.52
2.65
2.71
2.69
2.61
2.50
2.40
2.25
1.97
1.46
0.67
-0.30
-1.27
-2.01
-2.35
-2.25
-1.76
-1.07
-0.41
-0.02
-0.05
-0.56
-1.47
-2.54
-3.51
-4.11
-4.22
-3.83
-3.08
-2.13
-1.17
-0.34
0.23
0.44
0.26
-0.29
-1.08
-1.91
-2.57
-2.86
-2.69
-2.07
-1.09
0.07
1.24
2.30
3.20
4.02
4.83
5.68
6.49
7.07
7.19
6.68
5.56
3.98
2.19
0.46
-1.01
-2.13
-2.89
-3.33
-3.49
-3.44
-3.22
-2.85
-2.35
-1.72
-0.99
-0.23
0.51
1.16
1.67
2.07
2.40
2.69
2.96
3.17
3.24
3.11
2.74
2.18
1.53
0.91
0.40
0.03
-0.28
-0.65
-1.19
-1.95
-2.87
-3.83
-4.70
-5.38
-5.86
-6.21
-6.54
-6.94
-7.42
-7.96
-8.45
-8.81
-8.97
-8.93
-8.74
-8.44
-8.06
-7.60
-7.07
-6.46
-5.79
-5.08
-4.22
-3.01
-1.13
1.67
5.41
9.80
14.29
18.27
21.31
23.33
24.55
25.27
25.61
25.41
24.29
21.90
18.15
13.31
7.99
2.86
-1.59
-5.13
-7.82
-9.83
-11.27
-12.19
-12.52
-12.23
-11.41
-10.33
-9.29
-8.55
-8.20
-8.13
-8.10
-7.90
-7.45
-6.82
-6.19
-5.71
-5.47
-5.41
-5.36
-5.16
-4.65
-3.83
-2.77
-1.63
-0.57
0.29
0.89
1.30
1.59
1.85
2.13
2.43
2.67
2.76
2.64
2.28
1.75
1.17
0.74
0.58
0.73
1.10
1.49
1.74
1.74
1.54
1.25
0.97
0.79
0.70
0.64
0.56
0.42
0.21
-0.04
-0.31
-0.55
-0.75
-0.90
-1.03
-1.13
-1.20
-1.17
-1.04
-0.83
-0.63
-0.56
-0.73
-1.12
-1.61
-2.01
-2.15
-1.96
-1.55
-1.10
-0.81
-0.83
-1.21
-1.84
-2.54
-3.11
-3.40
-3.40
-3.27
-3.20
-3.37
-3.78
-4.33
-4.83
-5.16
-5.32
-5.41
-5.58
-5.88
-6.26
-6.61
-6.84
-6.94
-6.93
-6.84
-6.68
-6.38
-5.87
-5.11
-4.14
-3.07
-1.99
-1.02
-0.18
0.54
1.18
1.77
2.31
2.76
3.04
3.12
2.98
2.70
2.39
2.16
2.03
1.99
2.01
2.08
2.25
2.62
3.21
4.00
4.86
5.64
6.21
6.56
6.70
6.72
6.65
6.51
6.33
6.13
5.93
5.77
5.63
5.46
5.27
5.07
4.91
4.82
4.77
4.70
4.54
4.28
3.95
3.60
3.29
2.98
2.63
2.25
1.89
1.67
1.68
1.92
2.27
2.54
2.56
2.28
1.74
1.07
0.44
-0.06
-0.37
-0.48
-0.44
-0.32
-0.19
-0.13
-0.14
-0.16
-0.14
0.00
0.29
0.65
0.98
1.18
1.18
0.99
0.70
0.38
0.11
-0.11
-0.32
-0.52
-0.69
-0.80
-0.82
-0.76
-0.71
-0.74
-0.85
-0.98
-1.03
-0.88
-0.52
-0.05
0.42
0.77
0.98
1.10
1.22
1.40
1.64
1.92
2.21
2.52
2.85
3.22
3.60
3.95
4.23
4.39
4.42
4.31
4.05
3.68
3.22
2.64
1.92
1.03
-0.03
-1.20
-2.36
-3.38
-4.13
-4.57
-4.71
-4.62
-4.39
-4.04
-3.60
-3.10
-2.57
-2.10
-1.73
-1.50
-1.40
-1.39
-1.41
-1.39
-1.30
-1.13
-0.91
-0.69
-0.49
-0.31
-0.11
0.13
0.40
0.66
0.83
0.83
0.62
0.24
-0.25
-0.72
-1.09
-1.30
-1.36
-1.30
-1.17
-1.02
-0.89
-0.76
-0.62
-0.43
-0.19
0.09
0.33
0.47
0.48
0.38
0.25
0.16
0.16
0.26
0.40
0.53
0.63
0.71
0.78
0.83
0.82
0.67
0.39
0.01
-0.37
-0.66
-0.81
-0.83
-0.80
-0.79
-0.82
-0.89
-0.96
-1.02
-1.04
-1.02
-0.98
-0.89
-0.76
-0.62
-0.51
-0.47
-0.53
-0.67
-0.83
-0.93
-0.96
-0.93
-0.88
-0.85
-0.82
-0.75
-0.60
-0.37
-0.08
0.18
0.35
0.40
0.35
0.23
0.09
-0.03
-0.11
-0.12
-0.05
0.11
0.30
0.44
0.46
0.35
0.14
-0.05
-0.16
-0.13
0.01
0.19
0.37
0.50
0.58
0.59
0.52
0.35
0.12
-0.13
-0.32
-0.45
-0.54
-0.61
-0.67
-0.67
-0.51
-0.20
0.23
0.66
0.96
1.09
1.06
0.95
0.81
0.68
0.55
0.41
0.29
0.24
0.28
0.40
0.52
0.58
0.52
0.36
0.14
-0.08
-0.26
-0.42
-0.57
-0.73
-0.89
-1.05
-1.14
-1.17
-1.11
-1.01
-0.89
-0.82
-0.79
-0.79
-0.81
-0.83
-0.83
-0.81
-0.75
-0.65
-0.46
-0.19
0.17
0.55
0.89
1.15
1.35
1.53
1.77
2.08
2.38
2.59
2.62
2.43
2.08
1.62
1.13
0.64
0.20
-0.17
-0.44
-0.56
-0.56
-0.48
-0.42
-0.43
-0.55
-0.74
-0.96
-1.14
-1.24
-1.24
-1.12
-0.91
-0.63
-0.36
-0.16
-0.09
-0.15
-0.27
-0.39
-0.44
-0.41
-0.30
-0.16
0.01
0.19
0.38
0.53
0.58
0.51
0.35
0.17
0.03
-0.02
-0.02
-0.03
-0.09
-0.18
-0.25
-0.24
-0.14
-0.02
0.03
-0.03
-0.19
-0.38
-0.52
-0.57
-0.55
-0.54
-0.59
-0.70
-0.86
-1.02
-1.14
-1.22
-1.26
-1.25
-1.20
-1.08
-0.94
-0.78
-0.68
-0.65
-0.69
-0.71
-0.63
-0.37
0.09
0.69
1.31
1.82
2.12
2.21
2.15
2.06
2.03
2.06
2.10
2.02
1.77
1.34
0.82
0.36
0.07
0.01
0.14
0.34
0.50
0.53
0.44
0.26
0.06
-0.12
-0.29
-0.48
-0.73
-1.02
-1.32
-1.53
-1.59
-1.47
-1.20
-0.86
-0.55
-0.30
-0.14
-0.03
0.06
0.14
0.23
0.33
0.44
0.54
0.62
0.67
0.66
0.58
0.42
0.21
-0.01
-0.21
-0.36
-0.46
-0.49
-0.44
-0.34
-0.21
-0.13
-0.19
-0.41
-0.77
-1.17
-1.46
-1.54
-1.41
-1.18
-0.98
-0.92
-1.00
-1.09
-1.04
-0.79
-0.39
0.01
0.24
0.26
0.12
-0.05
-0.17
-0.23
-0.29
-0.43
-0.68
-0.96
-1.16
-1.22
-1.14
-0.99
-0.84
-0.75
-0.72
-0.70
-0.62
-0.43
-0.08
0.39
0.91
1.38
1.71
1.83
1.75
1.54
1.30
1.13
1.07
1.12
1.24
1.38
1.55
1.71
1.87
1.98
1.98
1.83
1.53
1.14
0.74
0.40
0.16
-0.01
-0.18
-0.40
-0.65
-0.88
-0.96
-0.85
-0.54
-0.15
0.19
0.35
0.31
0.11
-0.16
-0.40
-0.55
-0.61
-0.64
-0.70
-0.83
-1.01
-1.17
-1.18
-0.98
-0.56
-0.04
0.43
0.69
0.70
0.51
0.27
0.13
0.17
0.33
0.49
0.50
0.34
0.06
-0.16
-0.20
0.00
0.40
0.84
1.14
1.18
0.92
0.44
-0.12
-0.61
-0.88
-0.92
-0.77
-0.54
-0.33
-0.19
-0.09
0.02
0.17
0.33
0.45
0.46
0.37
0.26
0.20
0.25
0.39
0.53
0.58
0.52
0.39
0.23
0.08
-0.04
-0.17
-0.29
-0.38
-0.38
-0.24
0.01
0.31
0.56
0.70
0.71
0.62
0.52
0.44
0.40
0.35
0.27
0.14
-0.03
-0.17
-0.25
-0.24
-0.14
0.00
0.13
0.18
0.11
-0.09
-0.36
-0.65
-0.87
-0.95
-0.88
-0.71
-0.54
-0.45
-0.48
-0.55
-0.56
-0.40
-0.06
0.39
0.79
0.99
0.93
0.68
0.41
0.27
0.35
0.59
0.84
0.98
0.92
0.70
0.41
0.17
-0.01
-0.13
-0.22
-0.29
-0.33
-0.32
-0.27
-0.18
-0.13
-0.15
-0.29
-0.54
-0.86
-1.14
-1.31
-1.27
-1.01
-0.60
-0.15
0.19
0.34
0.33
0.22
0.11
0.06
0.05
0.03
-0.03
-0.11
-0.12
-0.00
0.27
0.64
0.94
1.05
0.88
0.48
0.00
-0.39
-0.57
-0.51
-0.32
-0.12
-0.00
-0.00
-0.09
-0.22
-0.36
-0.48
-0.61
-0.72
-0.82
-0.91
-0.96
-0.98
-0.94
-0.78
-0.46
-0.03
0.44
0.80
0.94
0.84
0.55
0.19
-0.13
-0.30
-0.30
-0.12
0.20
0.58
0.91
1.07
1.01
0.74
0.34
-0.04
-0.30
-0.38
-0.29
-0.08
0.19
0.45
0.67
0.85
0.97
1.06
1.11
1.11
1.02
0.79
0.39
-0.16
-0.76
-1.29
-1.63
-1.71
-1.59
-1.39
-1.24
-1.25
-1.43
-1.69
-1.91
-2.01
-1.97
-1.83
-1.63
-1.40
-1.10
-0.70
-0.20
0.31
0.73
0.96
0.98
0.81
0.54
0.29
0.12
0.09
0.20
0.43
0.71
0.97
1.17
1.24
1.19
1.05
0.87
0.71
0.61
0.55
0.51
0.43
0.28
0.05
-0.22
-0.48
-0.65
-0.71
-0.62
-0.42
-0.18
0.04
0.16
0.18
0.12
0.06
0.11
0.28
0.53
0.75
0.82
0.72
0.52
0.36
0.36
0.56
0.88
1.18
1.34
1.31
1.09
0.73
0.33
-0.07
-0.42
-0.64
-0.69
-0.55
-0.26
0.08
0.36
0.50
0.51
0.46
0.42
0.46
0.57
0.69
0.75
0.70
0.54
0.34
0.18
0.11
0.12
0.13
0.06
-0.12
-0.38
-0.61
-0.73
-0.68
-0.50
-0.26
-0.04
0.10
0.17
0.17
0.14
0.12
0.13
0.19
0.30
0.40
0.43
0.34
0.13
-0.14
-0.39
-0.54
-0.60
-0.64
-0.72
-0.87
-1.03
-1.09
-0.98
-0.73
-0.46
-0.32
-0.42
-0.72
-1.06
-1.24
-1.16
-0.82
-0.35
0.08
0.37
0.48
0.48
0.42
0.33
0.21
0.07
-0.02
0.01
0.21
0.53
0.79
0.82
0.50
-0.12
-0.86
-1.49
-1.85
-1.91
-1.81
-1.70
-1.71
-1.84
-2.05
-2.23
-2.36
-2.44
-2.53
-2.66
-2.80
-2.89
-2.84
-2.63
-2.33
-2.07
-2.01
-2.23
-2.69
-3.26
-3.74
-3.99
-3.99
-3.86
-3.74
-3.77
-3.96
-4.28
-4.68
-5.14
-5.67
-6.25
-6.79
-7.12
-7.10
-6.67
-5.97
-5.21
-4.62
-4.31
-4.27
-4.38
-4.55
-4.70
-4.83
-4.92
-4.93
-4.82
-4.58
-4.27
-3.98
-3.83
-3.86
-4.02
-4.22
-4.28
-4.08
-3.58
-2.80
-1.82
-0.76
0.27
1.19
1.90
2.34
2.53
2.55
2.61
2.91
3.59
4.59
5.68
6.49
6.74
6.29
5.22
3.77
2.21
0.78
-0.46
-1.52
-2.52
-3.57
-4.84
-6.42
-8.29
-10.30
-12.14
-13.40
-13.67
-12.70
-10.50
-7.40
-3.91
-0.64
1.92
3.57
4.36
4.63
4.83
5.38
6.57
8.45
10.83
13.31
15.47
16.91
17.46
17.12
16.10
14.67
13.12
11.65
10.38
9.38
8.65
8.15
7.80
7.50
7.16
6.73
6.21
5.67
5.18
4.82
4.62
4.54
4.48
4.32
3.97
3.44
2.88
2.45
2.31
2.51
2.92
3.32
3.49
3.27
2.66
1.78
0.81
-0.11
-0.87
-1.44
-1.85
-2.10
-2.18
-2.11
-1.94
-1.75
-1.65
-1.68
-1.80
-1.89
-1.78
-1.34
-0.58
0.39
1.37
2.18
2.74
3.05
3.17
3.19
3.13
2.96
2.63
2.11
1.48
0.87
0.44
0.30
0.44
0.72
0.96
1.01
0.81
0.45
0.11
-0.05
0.07
0.42
0.87
1.25
1.45
1.46
1.38
1.34
1.45
1.73
2.10
2.48
2.76
2.93
3.01
3.02
2.98
2.85
2.59
2.19
1.72
1.26
0.93
0.80
0.89
1.22
1.73
2.40
3.14
3.84
4.37
4.55
4.26
3.42
2.11
0.54
-1.01
-2.31
-3.22
-3.75
-3.98
-4.03
-3.94
-3.70
-3.28
-2.71
-2.12
-1.66
-1.45
-1.49
-1.65
-1.75
-1.64
-1.29
-0.76
-0.15
0.48
1.08
1.65
2.15
2.54
2.74
2.73
2.55
2.25
1.90
1.53
1.12
0.68
0.23
-0.16
-0.42
-0.50
-0.44
-0.29
-0.10
0.09
0.35
0.72
1.25
1.83
2.29
2.39
1.92
0.81
-0.85
-2.76
-4.55
-5.89
-6.59
-6.64
-6.21
-5.51
-4.73
-3.97
-3.29
-2.71
-2.26
-2.00
-1.95
-2.08
-2.31
-2.52
-2.61
-2.56
-2.39
-2.14
-1.80
-1.35
-0.77
-0.12
0.48
0.87
0.97
0.82
0.57
0.39
0.33
0.35
0.31
0.12
-0.21
-0.56
-0.75
-0.73
-0.52
-0.30
-0.22
-0.36
-0.66
-1.02
-1.30
-1.45
-1.47
-1.41
-1.30
-1.14
-0.94
-0.70
-0.43
-0.18
-0.00
0.10
0.14
0.15
0.16
0.20
0.25
0.33
0.42
0.53
0.63
0.72
0.74
0.65
0.44
0.09
-0.32
-0.73
-1.04
-1.16
-1.06
-0.77
-0.42
-0.12
0.03
-0.00
-0.14
-0.28
-0.33
-0.27
-0.13
0.02
0.11
0.13
0.09
0.06
0.08
0.15
0.27
0.41
0.53
0.59
0.57
0.49
0.36
0.24
0.15
0.09
0.06
0.04
0.01
-0.02
-0.04
-0.08
-0.17
-0.31
-0.51
-0.76
-1.02
-1.27
-1.45
-1.55
-1.53
-1.39
-1.18
-0.96
-0.80
-0.77
-0.87
-1.08
-1.34
-1.62
-1.89
-2.11
-2.22
-2.18
-1.95
-1.55
-1.07
-0.66
-0.42
-0.38
-0.46
-0.52
-0.43
-0.14
0.31
0.79
1.13
1.23
1.10
0.81
0.53
0.40
0.51
0.88
1.46
2.18
2.93
3.66
4.31
4.83
5.22
5.45
5.55
5.58
5.57
5.57
5.56
5.45
5.13
4.50
3.55
2.36
1.10
-0.03
-0.89
-1.42
-1.66
-1.72
-1.70
-1.68
-1.65
-1.60
-1.50
-1.36
-1.21
-1.12
-1.17
-1.42
-1.86
-2.42
-2.96
-3.32
-3.39
-3.18
-2.75
-2.25
-1.82
-1.55
-1.46
-1.50
-1.58
-1.60
-1.52
-1.36
-1.21
-1.15
-1.24
-1.46
-1.72
-1.91
-1.94
-1.75
-1.33
-0.75
-0.06
0.66
1.31
1.79
2.02
1.99
1.73
1.30
0.80
0.33
-0.05
-0.29
-0.40
-0.39
-0.31
-0.17
0.03
0.30
0.60
0.89
1.08
1.12
1.02
0.86
0.73
0.69
0.72
0.80
0.88
0.95
1.03
1.13
1.26
1.38
1.45
1.46
1.41
1.31
1.16
0.97
0.72
0.48
0.30
0.24
0.34
0.56
0.82
0.98
0.97
0.77
0.41
-0.01
-0.39
-0.67
-0.83
-0.89
-0.88
-0.78
-0.61
-0.38
-0.16
0.00
0.05
0.01
-0.08
-0.12
-0.11
-0.06
-0.03
-0.04
-0.07
-0.05
0.05
0.18
0.26
0.18
-0.11
-0.52
-0.93
-1.17
-1.18
-0.98
-0.68
-0.38
-0.20
-0.15
-0.24
-0.41
-0.61
-0.79
-0.91
-0.93
-0.85
-0.70
-0.52
-0.38
-0.29
-0.22
-0.14
0.00
0.22
0.49
0.75
0.96
1.07
1.07
0.93
0.68
0.34
0.01
-0.25
-0.38
-0.38
-0.33
-0.33
-0.41
-0.55
-0.64
-0.60
-0.43
-0.21
-0.08
-0.16
-0.48
-0.95
-1.46
-1.91
-2.25
-2.49
-2.65
-2.74
-2.79
-2.79
-2.76
-2.74
-2.78
-2.91
-3.14
-3.43
-3.70
-3.83
-3.71
-3.31
-2.67
-1.94
-1.33
-1.04
-1.17
-1.67
-2.37
-3.08
-3.65
-4.05
-4.33
-4.61
-5.00
-5.53
-6.17
-6.80
-7.21
-7.13
-6.28
-4.49
-1.83
1.38
4.62
7.32
9.07
9.76
9.58
8.85
7.90
6.91
5.99
5.15
4.46
3.98
3.78
3.83
4.04
4.29
4.48
4.55
4.53
4.48
4.46
4.52
4.61
4.69
4.66
4.41
3.92
3.24
2.48
1.81
1.35
1.12
1.04
1.02
0.95
0.82
0.64
0.46
0.29
0.12
-0.04
-0.18
-0.26
-0.28
-0.24
-0.23
-0.30
-0.48
-0.72
-0.95
-1.09
-1.11
-1.08
-1.06
-1.13
-1.29
-1.48
-1.62
-1.66
-1.58
-1.42
-1.25
-1.10
-1.04
-1.07
-1.19
-1.35
-1.47
-1.47
-1.31
-0.99
-0.58
-0.17
0.18
0.47
0.75
1.04
1.34
1.58
1.71
1.68
1.54
1.35
1.19
1.07
0.94
0.75
0.45
0.06
-0.34
-0.62
-0.72
-0.60
-0.34
-0.05
0.17
0.23
0.15
0.00
-0.11
-0.12
-0.01
0.18
0.38
0.55
0.63
0.58
0.39
0.07
-0.32
-0.71
-1.02
-1.22
-1.31
-1.33
-1.32
-1.33
-1.35
-1.37
-1.35
-1.28
-1.18
-1.05
-0.91
-0.78
-0.66
-0.57
-0.49
-0.43
-0.35
-0.26
-0.16
-0.06
0.03
0.12
0.20
0.31
0.48
0.69
0.88
0.96
0.88
0.64
0.38
0.25
0.34
0.64
1.00
1.24
1.28
1.12
0.88
0.70
0.63
0.65
0.72
0.77
0.79
0.80
0.84
0.91
1.00
1.07
1.09
1.05
0.98
0.88
0.79
0.72
0.64
0.52
0.34
0.10
-0.16
-0.37
-0.46
-0.41
-0.25
-0.04
0.16
0.33
0.48
0.64
0.82
1.02
1.20
1.34
1.38
1.31
1.16
0.97
0.79
0.68
0.65
0.70
0.75
0.75
0.63
0.39
0.05
-0.33
-0.68
-0.96
-1.14
-1.22
-1.24
-1.27
-1.34
-1.48
-1.67
-1.87
-2.02
-2.07
-1.98
-1.75
-1.44
-1.11
-0.82
-0.63
-0.54
-0.52
-0.52
-0.49
-0.41
-0.30
-0.19
-0.12
-0.09
-0.07
-0.04
0.03
0.12
0.17
0.14
0.03
-0.12
-0.21
-0.20
-0.08
0.05
0.08
-0.05
-0.28
-0.49
-0.51
-0.23
0.30
0.95
1.48
1.73
1.64
1.28
0.81
0.41
0.17
0.09
0.06
-0.04
-0.26
-0.58
-0.92
-1.16
-1.30
-1.35
-1.38
-1.37
-1.29
-1.08
-0.72
-0.31
0.02
0.13
0.01
-0.28
-0.59
-0.79
-0.83
-0.75
-0.63
-0.57
-0.59
-0.64
-0.68
-0.63
-0.51
-0.35
-0.23
-0.20
-0.24
-0.32
-0.39
-0.47
-0.60
-0.81
-1.06
-1.24
-1.19
-0.84
-0.24
0.43
0.98
1.27
1.31
1.19
1.02
0.89
0.80
0.72
0.60
0.42
0.19
-0.05
-0.28
-0.42
-0.43
-0.29
-0.02
0.31
0.63
0.91
1.12
1.28
1.41
1.50
1.54
1.53
1.51
1.51
1.55
1.61
1.62
1.53
1.30
0.93
0.48
0.02
-0.39
-0.70
-0.91
-1.04
-1.10
-1.09
-1.02
-0.87
-0.68
-0.51
-0.42
-0.44
-0.54
-0.63
-0.61
-0.43
-0.10
0.28
0.64
0.92
1.11
1.23
1.29
1.26
1.12
0.86
0.54
0.25
0.09
0.08
0.15
0.20
0.13
-0.07
-0.33
-0.54
-0.57
-0.39
-0.05
0.36
0.72
1.01
1.25
1.52
1.87
2.29
2.72
3.05
3.24
3.30
3.35
3.53
3.92
4.53
5.27
5.98
6.53
6.82
6.89
6.87
6.95
7.33
8.07
9.09
10.16
11.03
11.52
11.60
11.43
11.26
11.33
11.85
12.94
14.61
16.65
18.55
19.48
18.52
15.00
8.87
0.90
-7.52
-14.82
-19.80
-22.00
-21.71
-19.73
-16.95
-14.09
-11.53
-9.41
-7.67
-6.19
-4.83
-3.50
-2.11
-0.66
0.86
2.42
4.06
5.81
7.73
9.86
12.19
14.57
16.78
18.55
19.71
20.21
20.21
20.10
20.31
21.26
23.27
26.49
30.69
35.09
38.24
38.35
33.92
24.47
11.03
-4.09
-18.11
-28.83
-35.34
-38.10
-38.32
-37.22
-35.48
-33.27
-30.64
-27.77
-25.09
-23.03
-21.68
-20.84
-20.08
-19.08
-17.74
-16.10
-14.32
-12.50
-10.72
-9.06
-7.63
-6.46
-5.50
-4.58
-3.55
-2.43
-1.45
-0.99
-1.32
-2.45
-4.04
-5.63
-6.79
-7.41
-7.64
-7.77
-8.00
-8.36
-8.72
-8.88
-8.74
-8.35
-7.84
-7.35
-6.92
-6.50
-6.02
-5.48
-5.00
-4.77
-4.89
-5.35
-5.96
-6.47
-6.72
-6.66
-6.40
-6.02
-5.58
-5.05
-4.38
-3.57
-2.67
-1.78
-0.95
-0.15
0.70
1.67
2.75
3.89
4.95
5.85
6.53
6.96
7.17
7.21
7.15
7.04
6.92
6.73
6.41
5.92
5.28
4.59
4.01
3.65
3.57
3.74
4.04
4.37
4.62
4.75
4.75
4.65
4.50
4.35
4.21
4.03
3.75
3.28
2.62
1.84
1.08
0.48
0.11
-0.08
-0.18
-0.31
-0.54
-0.86
-1.20
-1.48
-1.64
-1.72
-1.78
-1.86
-1.99
-2.13
-2.22
-2.21
-2.09
-1.89
-1.63
-1.29
-0.90
-0.44
0.04
0.47
0.77
0.87
0.75
0.46
0.07
-0.32
-0.62
-0.83
-1.02
-1.29
-1.74
-2.37
-3.10
-3.79
-4.29
-4.51
-4.46
-4.22
-3.86
-3.46
-3.06
-2.70
-2.42
-2.24
-2.13
-2.05
-1.93
-1.78
-1.64
-1.62
-1.76
-2.03
-2.32
-2.51
-2.55
-2.43
-2.23
-2.02
-1.86
-1.77
-1.73
-1.73
-1.74
-1.76
-1.78
-1.81
-1.85
-1.90
-1.91
-1.81
-1.56
-1.13
-0.59
-0.05
0.36
0.56
0.55
0.44
0.37
0.45
0.71
1.09
1.50
1.88
2.22
2.58
3.02
3.46
3.78
3.83
3.54
2.97
2.33
1.85
1.64
1.72
1.97
2.26
2.50
2.64
2.68
2.63
2.45
2.14
1.69
1.17
0.67
0.29
0.08
0.04
0.13
0.27
0.39
0.44
0.43
0.40
0.41
0.52
0.75
1.07
1.40
1.68
1.86
1.92
1.88
1.77
1.61
1.37
1.02
0.56
0.02
-0.50
-0.86
-0.99
-0.85
-0.52
-0.13
0.19
0.37
0.40
0.32
0.15
-0.08
-0.36
-0.61
-0.77
-0.71
-0.37
0.20
0.86
1.40
1.66
1.59
1.27
0.88
0.62
0.56
0.70
0.94
1.16
1.29
1.33
1.31
1.27
1.22
1.14
1.02
0.85
0.65
0.48
0.37
0.36
0.46
0.61
0.75
0.78
0.63
0.31
-0.06
-0.35
-0.42
-0.28
-0.04
0.15
0.14
-0.05
-0.35
-0.61
-0.75
-0.76
-0.68
-0.55
-0.38
-0.13
0.16
0.42
0.49
0.26
-0.31
-1.11
-1.93
-2.54
-2.82
-2.77
-2.54
-2.29
-2.14
-2.06
-1.91
-1.52
-0.84
0.04
0.92
1.59
1.94
2.02
1.96
1.88
1.83
1.78
1.67
1.49
1.30
1.17
1.11
1.09
1.00
0.76
0.40
0.01
-0.31
-0.49
-0.58
-0.67
-0.86
-1.19
-1.60
-1.97
-2.21
-2.27
-2.16
-1.91
-1.60
-1.26
-0.93
-0.60
-0.29
-0.02
0.22
0.41
0.57
0.70
0.81
0.89
0.91
0.86
0.71
0.51
0.33
0.25
0.34
0.59
0.91
1.20
1.37
1.40
1.31
1.17
1.02
0.87
0.72
0.58
0.44
0.27
0.07
-0.18
-0.44
-0.68
-0.82
-0.83
-0.71
-0.52
-0.32
-0.14
0.02
0.18
0.33
0.45
0.50
0.47
0.38
0.27
0.16
0.04
-0.11
-0.30
-0.51
-0.69
-0.79
-0.77
-0.65
-0.45
-0.24
-0.07
0.02
0.04
0.02
0.01
0.08
0.23
0.40
0.49
0.42
0.15
-0.26
-0.70
-1.03
-1.19
-1.17
-1.01
-0.79
-0.58
-0.41
-0.30
-0.24
-0.25
-0.34
-0.53
-0.80
-1.10
-1.34
-1.44
-1.38
-1.17
-0.87
-0.56
-0.29
-0.08
0.07
0.16
0.22
0.26
0.34
0.45
0.59
0.71
0.76
0.74
0.72
0.76
0.92
1.17
1.39
1.48
1.37
1.08
0.70
0.34
0.04
-0.16
-0.29
-0.34
-0.32
-0.22
-0.06
0.12
0.26
0.32
0.28
0.11
-0.13
-0.40
-0.58
-0.61
-0.46
-0.18
0.13
0.34
0.39
0.31
0.16
0.05
-0.00
-0.02
-0.08
-0.21
-0.38
-0.52
-0.57
-0.52
-0.43
-0.38
-0.43
-0.57
-0.72
-0.81
-0.76
-0.59
-0.34
-0.04
0.27
0.57
0.83
0.99
1.02
0.90
0.68
0.45
0.32
0.36
0.57
0.85
1.09
1.18
1.08
0.80
0.43
0.05
-0.27
-0.48
-0.58
-0.58
-0.53
-0.46
-0.42
-0.40
-0.41
-0.43
-0.43
-0.41
-0.36
-0.29
-0.19
-0.05
0.10
0.22
0.25
0.18
0.03
-0.11
-0.16
-0.08
0.08
0.22
0.23
0.11
-0.05
-0.16
-0.11
0.04
0.19
0.19
-0.02
-0.38
-0.75
-0.96
-0.95
-0.73
-0.41
-0.15
-0.03
-0.09
-0.31
-0.58
-0.82
-0.92
-0.82
-0.52
-0.09
0.37
0.74
0.94
0.94
0.79
0.55
0.32
0.17
0.15
0.26
0.45
0.63
0.70
0.61
0.33
-0.07
-0.45
-0.72
-0.79
-0.68
-0.45
-0.21
-0.05
0.02
0.02
0.01
0.02
0.05
0.08
0.08
0.04
-0.03
-0.11
-0.18
-0.23
-0.29
-0.32
-0.33
-0.28
-0.19
-0.06
0.05
0.08
0.03
-0.11
-0.28
-0.43
-0.48
-0.42
-0.26
-0.07
0.10
0.18
0.15
0.04
-0.09
-0.16
-0.12
-0.00
0.12
0.18
0.14
0.04
-0.02
0.05
0.25
0.50
0.67
0.68
0.55
0.36
0.24
0.27
0.44
0.70
0.98
1.17
1.21
1.04
0.67
0.16
-0.33
-0.65
-0.70
-0.51
-0.25
-0.09
-0.13
-0.34
-0.56
-0.63
-0.47
-0.14
0.23
0.47
0.54
0.45
0.31
0.18
0.11
0.07
-0.00
-0.14
-0.33
-0.52
-0.65
-0.73
-0.78
-0.87
-1.01
-1.13
-1.13
-0.93
-0.52
-0.01
0.47
0.82
1.04
1.18
1.30
1.39
1.39
1.23
0.90
0.50
0.16
0.02
0.13
0.38
0.64
0.74
0.60
0.25
-0.24
-0.71
-1.05
-1.17
-1.08
-0.83
-0.54
-0.34
-0.31
-0.45
-0.66
-0.79
-0.75
-0.53
-0.18
0.16
0.38
0.41
0.29
0.11
-0.06
-0.15
-0.13
-0.05
0.05
0.10
0.08
-0.00
-0.10
-0.15
-0.11
0.00
0.14
0.22
0.22
0.15
0.09
0.11
0.21
0.36
0.45
0.41
0.24
0.03
-0.12
-0.12
0.04
0.28
0.52
0.66
0.69
0.60
0.44
0.26
0.07
-0.12
-0.30
-0.48
-0.62
-0.72
-0.78
-0.82
-0.84
-0.84
-0.81
-0.73
-0.57
-0.38
-0.21
-0.11
-0.09
-0.12
-0.14
-0.11
-0.04
0.03
0.04
-0.05
-0.20
-0.35
-0.46
-0.49
-0.43
-0.33
-0.24
-0.20
-0.24
-0.33
-0.42
-0.46
-0.37
-0.15
0.16
0.48
0.72
0.83
0.80
0.69
0.56
0.47
0.43
0.43
0.42
0.37
0.27
0.17
0.16
0.28
0.53
0.80
0.92
0.80
0.45
-0.00
-0.34
-0.40
-0.15
0.28
0.70
0.95
0.97
0.83
0.63
0.45
0.31
0.19
0.05
-0.12
-0.26
-0.33
-0.31
-0.20
-0.07
0.00
-0.05
-0.22
-0.48
-0.74
-0.95
-1.09
-1.15
-1.17
-1.16
-1.12
-1.04
-0.92
-0.78
-0.64
-0.52
-0.45
-0.42
-0.43
-0.44
-0.41
-0.31
-0.10
0.21
0.56
0.84
0.99
0.95
0.78
0.54
0.35
0.27
0.31
0.43
0.58
0.70
0.75
0.72
0.64
0.53
0.43
0.35
0.29
0.27
0.26
0.25
0.23
0.18
0.11
0.05
0.01
-0.01
-0.02
-0.09
-0.20
-0.34
-0.45
-0.50
-0.51
-0.51
-0.54
-0.58
-0.59
-0.50
-0.28
0.02
0.29
0.41
0.35
0.13
-0.19
-0.51
-0.74
-0.85
-0.80
-0.62
-0.38
-0.19
-0.11
-0.17
-0.30
-0.38
-0.31
-0.07
0.28
0.62
0.82
0.80
0.59
0.29
0.05
-0.04
0.05
0.27
0.49
0.65
0.69
0.68
0.67
0.71
0.76
0.76
0.66
0.45
0.17
-0.07
-0.18
-0.12
0.14
0.54
1.00
1.42
1.72
1.83
1.77
1.58
1.35
1.11
0.89
0.66
0.40
0.12
-0.15
-0.39
-0.58
-0.71
-0.80
-0.85
-0.88
-0.91
-0.94
-0.97
-1.01
-1.01
-0.93
-0.74
-0.43
-0.07
0.23
0.40
0.40
0.27
0.12
0.06
0.18
0.44
0.77
1.02
1.08
0.93
0.62
0.24
-0.07
-0.24
-0.22
-0.02
0.28
0.59
0.80
0.82
0.64
0.28
-0.11
-0.40
-0.48
-0.33
-0.01
0.37
0.70
0.90
0.93
0.78
0.46
0.03
-0.45
-0.88
-1.16
-1.26
-1.17
-0.95
-0.71
-0.52
-0.45
-0.49
-0.61
-0.77
-0.88
-0.91
-0.85
-0.72
-0.56
-0.41
-0.30
-0.27
-0.32
-0.45
-0.63
-0.78
-0.83
-0.71
-0.43
-0.06
0.31
0.57
0.67
0.64
0.52
0.37
0.20
0.03
-0.10
-0.17
-0.10
0.11
0.46
0.86
1.23
1.46
1.49
1.30
0.89
0.33
-0.29
-0.82
-1.14
-1.16
-0.89
-0.44
0.04
0.41
0.64
0.73
0.73
0.66
0.52
0.26
-0.10
-0.51
-0.83
-0.97
-0.85
-0.54
-0.14
0.19
0.33
0.23
-0.06
-0.41
-0.66
-0.67
-0.46
-0.12
0.20
0.35
0.34
0.23
0.15
0.19
0.30
0.37
0.28
-0.01
-0.44
-0.85
-1.10
-1.13
-1.00
-0.78
-0.57
-0.41
-0.29
-0.19
-0.10
-0.02
0.04
0.12
0.25
0.48
0.81
1.19
1.52
1.69
1.64
1.41
1.10
0.85
0.73
0.72
0.73
0.65
0.44
0.14
-0.16
-0.35
-0.43
-0.47
-0.54
-0.71
-0.91
-1.05
-1.03
-0.82
-0.50
-0.18
-0.00
-0.02
-0.21
-0.50
-0.75
-0.88
-0.85
-0.67
-0.40
-0.13
0.07
0.18
0.17
0.08
0.00
-0.00
0.11
0.31
0.50
0.57
0.42
0.08
-0.33
-0.65
-0.74
-0.61
-0.36
-0.13
-0.00
0.04
0.07
0.17
0.34
0.52
0.66
0.72
0.73
0.70
0.64
0.53
0.33
0.06
-0.20
-0.38
-0.46
-0.46
-0.45
-0.46
-0.46
-0.39
-0.18
0.14
0.50
0.76
0.84
0.71
0.46
0.17
-0.08
-0.24
-0.32
-0.33
-0.29
-0.18
-0.03
0.13
0.28
0.37
0.38
0.34
0.26
0.18
0.07
-0.05
-0.18
-0.30
-0.38
-0.40
-0.38
-0.36
-0.38
-0.44
-0.50
-0.50
-0.38
-0.12
0.24
0.63
0.97
1.18
1.24
1.15
0.97
0.77
0.57
0.40
0.21
-0.03
-0.32
-0.62
-0.81
-0.81
-0.57
-0.16
0.32
0.70
0.89
0.86
0.64
0.33
0.05
-0.15
-0.21
-0.16
-0.06
0.03
0.04
-0.04
-0.22
-0.42
-0.62
-0.76
-0.82
-0.80
-0.70
-0.53
-0.30
-0.04
0.17
0.27
0.24
0.08
-0.13
-0.33
-0.47
-0.54
-0.60
-0.69
-0.84
-1.01
-1.11
-1.09
-0.92
-0.66
-0.39
-0.23
-0.22
-0.32
-0.42
-0.42
-0.26
0.04
0.32
0.45
0.34
0.04
-0.32
-0.52
-0.45
-0.07
0.47
0.99
1.33
1.42
1.30
1.08
0.84
0.63
0.46
0.35
0.30
0.30
0.33
0.34
0.28
0.12
-0.10
-0.30
-0.44
-0.49
-0.49
-0.51
-0.57
-0.65
-0.69
-0.65
-0.53
-0.35
-0.16
0.02
0.20
0.40
0.60
0.76
0.86
0.90
0.90
0.89
0.87
0.78
0.60
0.31
-0.01
-0.26
-0.35
-0.28
-0.10
0.08
0.18
0.16
0.05
-0.11
-0.28
-0.42
-0.54
-0.64
-0.75
-0.86
-0.95
-0.96
-0.86
-0.62
-0.30
0.03
0.29
0.48
0.62
0.79
0.99
1.17
1.24
1.11
0.80
0.40
0.08
-0.07
-0.05
0.05
0.09
0.01
-0.17
-0.34
-0.39
-0.29
-0.07
0.14
0.22
0.14
-0.05
-0.23
-0.31
-0.27
-0.17
-0.07
-0.06
-0.14
-0.25
-0.32
-0.29
-0.18
-0.06
-0.03
-0.19
-0.54
-0.98
-1.34
-1.47
-1.29
-0.86
-0.36
0.04
0.22
0.23
0.17
0.20
0.37
0.65
0.91
1.04
0.98
0.78
0.57
0.42
0.36
0.37
0.37
0.32
0.26
0.21
0.25
0.35
0.43
0.37
0.11
-0.30
-0.73
-1.02
-1.08
-0.95
-0.74
-0.57
-0.52
-0.53
-0.53
-0.46
-0.31
-0.16
-0.08
-0.10
-0.20
-0.30
-0.36
-0.33
-0.24
-0.09
0.12
0.39
0.71
1.04
1.27
1.30
1.09
0.70
0.26
-0.08
-0.21
-0.15
0.01
0.16
0.27
0.33
0.38
0.44
0.47
0.43
0.30
0.11
-0.09
-0.25
-0.39
-0.53
-0.69
-0.82
-0.89
-0.85
-0.68
-0.41
-0.11
0.20
0.49
0.75
0.96
1.08
1.08
0.91
0.61
0.25
-0.06
-0.22
-0.21
-0.10
0.03
0.08
0.01
-0.15
-0.33
-0.45
-0.48
-0.41
-0.24
-0.04
0.15
0.27
0.27
0.13
-0.10
-0.32
-0.40
-0.28
0.03
0.42
0.76
0.97
0.99
0.83
0.52
0.12
-0.29
-0.62
-0.78
-0.73
-0.51
-0.22
0.03
0.15
0.14
0.01
-0.18
-0.38
-0.56
-0.67
-0.66
-0.50
-0.18
0.24
0.67
0.98
1.09
0.98
0.69
0.33
-0.01
-0.23
-0.29
-0.19
-0.01
0.18
0.30
0.30
0.18
-0.01
-0.19
-0.29
-0.27
-0.17
-0.07
-0.07
-0.23
-0.50
-0.75
-0.84
-0.72
-0.45
-0.17
-0.01
-0.05
-0.22
-0.41
-0.51
-0.51
-0.46
-0.45
-0.54
-0.73
-0.94
-1.09
-1.10
-0.95
-0.68
-0.36
-0.07
0.15
0.33
0.50
0.71
0.95
1.18
1.31
1.31
1.17
0.94
0.67
0.41
0.16
-0.02
-0.11
-0.09
0.03
0.17
0.24
0.14
-0.12
-0.46
-0.74
-0.83
-0.69
-0.37
0.01
0.32
0.46
0.39
0.15
-0.17
-0.45
-0.59
-0.56
-0.39
-0.20
-0.09
-0.13
-0.29
-0.50
-0.66
-0.72
-0.66
-0.50
-0.27
0.01
0.34
0.69
1.02
1.27
1.38
1.30
1.05
0.68
0.31
0.07
0.04
0.24
0.59
0.96
1.23
1.29
1.14
0.82
0.40
-0.04
-0.43
-0.74
-0.93
-0.98
-0.90
-0.68
-0.36
0.03
0.40
0.66
0.75
0.65
0.41
0.11
-0.14
-0.26
-0.21
-0.01
0.29
0.60
0.81
0.85
0.71
0.39
0.02
-0.31
-0.50
-0.50
-0.35
-0.17
-0.03
-0.04
-0.19
-0.41
-0.61
-0.70
-0.63
-0.47
-0.27
-0.10
0.01
0.06
0.06
0.01
-0.11
-0.33
-0.60
-0.87
-1.05
-1.08
-0.99
-0.83
-0.70
-0.63
-0.59
-0.52
-0.35
-0.07
0.27
0.57
0.76
0.79
0.64
0.39
0.13
-0.06
-0.14
-0.12
-0.07
-0.03
-0.05
-0.14
-0.27
-0.46
-0.68
-0.92
-1.13
-1.22
-1.14
-0.86
-0.46
-0.07
0.19
0.26
0.20
0.12
0.15
0.33
0.62
0.90
1.07
1.08
0.96
0.77
0.57
0.41
0.28
0.20
0.18
0.24
0.39
0.60
0.79
0.86
0.79
0.61
0.39
0.22
0.16
0.19
0.26
0.32
0.35
0.34
0.32
0.33
0.35
0.34
0.28
0.14
-0.03
-0.19
-0.30
-0.36
-0.42
-0.53
-0.71
-0.93
-1.08
-1.10
-0.93
-0.62
-0.25
0.07
0.28
0.34
0.27
0.07
-0.19
-0.45
-0.62
-0.62
-0.43
-0.09
0.28
0.57
0.66
0.54
0.28
0.01
-0.14
-0.09
0.13
0.41
0.63
0.73
0.70
0.59
0.47
0.33
0.13
-0.14
-0.44
-0.68
-0.71
-0.48
-0.04
0.46
0.85
1.02
0.95
0.71
0.43
0.18
0.04
0.02
0.10
0.25
0.38
0.44
0.35
0.11
-0.22
-0.57
-0.84
-0.98
-1.00
-0.94
-0.87
-0.82
-0.78
-0.73
-0.63
-0.43
-0.09
0.33
0.78
1.11
1.26
1.22
1.06
0.90
0.83
0.84
0.86
0.78
0.56
0.21
-0.17
-0.46
-0.62
-0.66
-0.62
-0.56
-0.48
-0.38
-0.25
-0.12
0.01
0.10
0.15
0.13
0.04
-0.14
-0.38
-0.59
-0.69
-0.61
-0.38
-0.11
0.06
0.03
-0.13
-0.32
-0.37
-0.23
0.04
0.30
0.45
0.45
0.37
0.33
0.37
0.48
0.58
0.56
0.42
0.18
-0.09
-0.34
-0.53
-0.64
-0.68
-0.63
-0.49
-0.28
-0.05
0.12
0.19
0.16
0.08
0.02
-0.00
-0.01
-0.03
-0.08
-0.13
-0.14
-0.09
-0.03
0.01
-0.02
-0.08
-0.14
-0.18
-0.20
-0.24
-0.29
-0.33
-0.27
-0.07
0.24
0.57
0.81
0.90
0.82
0.64
0.38
0.08
-0.27
-0.64
-0.99
-1.22
-1.27
-1.11
-0.79
-0.41
-0.07
0.14
0.19
0.10
-0.04
-0.14
-0.13
-0.01
0.19
0.41
0.59
0.68
0.72
0.71
0.66
0.55
0.35
0.03
-0.35
-0.69
-0.87
-0.85
-0.66
-0.41
-0.24
-0.18
-0.20
-0.17
-0.02
0.28
0.62
0.89
1.01
0.96
0.78
0.54
0.29
0.07
-0.07
-0.10
-0.00
0.19
0.39
0.52
0.51
0.34
0.04
-0.33
-0.69
-0.99
-1.13
-1.06
-0.75
-0.28
0.22
0.60
0.76
0.70
0.49
0.23
0.01
-0.15
-0.29
-0.43
-0.58
-0.71
-0.76
-0.71
-0.54
-0.29
-0.05
0.13
0.19
0.15
0.06
-0.04
-0.12
-0.18
-0.23
-0.29
-0.33
-0.34
-0.30
-0.25
-0.22
-0.25
-0.32
-0.40
-0.43
-0.37
-0.26
-0.16
-0.14
-0.26
-0.49
-0.72
-0.83
-0.72
-0.37
0.13
0.61
0.88
0.87
0.62
0.31
0.11
0.09
0.22
0.36
0.39
0.27
0.03
-0.22
-0.38
-0.41
-0.31
-0.13
0.12
0.41
0.73
1.03
1.28
1.41
1.42
1.31
1.10
0.86
0.60
0.36
0.10
-0.19
-0.53
-0.87
-1.16
-1.36
-1.48
-1.59
-1.80
-2.17
-2.64
-3.09
-3.38
-3.41
-3.22
-2.98
-2.85
-2.96
-3.31
-3.76
-4.16
-4.34
-4.26
-4.00
-3.77
-3.83
-4.38
-5.50
-7.07
-8.82
-10.48
-11.82
-12.78
-13.48
-14.19
-15.25
-16.94
-19.34
-22.26
-25.31
-27.96
-29.82
-30.81
-31.26
-31.80
-33.10
-35.54
-39.05
-43.04
-46.72
-49.41
-50.94
-51.67
-52.33
-53.62
-55.92
-59.16
-62.85
-66.02
-66.89
-62.71
-50.13
-26.34
9.29
54.03
101.83
145.07
177.23
195.16
199.90
195.59
187.26
178.92
172.76
169.52
169.28
171.66
175.24
176.86
171.73
154.96
123.86
79.91
28.93
-20.73
-61.16
-87.74
-100.28
-102.16
-98.20
-92.43
-86.96
-82.16
-77.66
-73.35
-69.66
-67.20
-66.14
-65.92
-65.43
-63.63
-60.16
-55.53
-51.00
-47.94
-47.20
-48.73
-51.61
-54.46
-56.08
-56.01
-54.70
-53.30
-53.06
-54.78
-58.37
-62.90
-66.97
-69.31
-69.31
-67.31
-64.38
-61.89
-60.86
-61.56
-63.50
-65.76
-67.55
-68.68
-69.75
-71.86
-76.23
-83.80
-94.87
-108.97
-124.59
-139.22
-149.58
-152.36
-145.01
-126.52
-97.38
-58.99
-13.09
38.61
94.09
150.39
203.35
247.81
278.53
291.27
283.86
256.90
213.89
160.91
105.52
55.14
15.13
-12.40
-28.72
-37.19
-41.46
-44.00
-45.83
-47.22
-48.71
-51.49
-56.92
-65.67
-77.23
-90.08
-102.22
-111.77
-117.27
-117.77
-113.25
-104.77
-94.37
-84.16
-75.09
-65.95
-53.77
-35.39
-9.66
21.40
53.12
80.36
100.01
112.29
120.00
126.53
133.79
141.45
147.80
151.33
151.94
151.11
151.04
153.32
158.04
163.82
168.41
169.84
167.31
161.58
154.62
148.76
145.67
145.74
147.91
150.14
149.91
144.67
132.14
110.70
79.99
41.54
-0.99
-42.35
-77.22
-101.84
-115.22
-119.12
-116.84
-111.68
-105.70
-99.58
-93.17
-86.42
-79.73
-73.83
-69.31
-66.12
-63.66
-61.09
-57.86
-53.91
-49.71
-45.93
-43.06
-41.13
-39.74
-38.21
-35.94
-32.67
-28.60
-24.32
-20.49
-17.64
-15.91
-15.07
-14.59
-13.94
-12.71
-10.84
-8.54
-6.23
-4.34
-3.15
-2.68
-2.67
-2.77
-2.61
-2.07
-1.23
-0.36
0.25
0.44
0.22
-0.24
-0.74
-1.13
-1.33
-1.32
-1.10
-0.69
-0.13
0.46
0.96
1.24
1.32
1.27
1.24
1.32
1.53
1.84
2.15
2.38
2.48
2.44
2.23
1.83
1.26
0.57
-0.17
-0.90
-1.57
-2.18
-2.69
-3.09
-3.32
-3.36
-3.21
-2.96
-2.73
-2.64
-2.73
-2.95
-3.13
-3.12
-2.80
-2.19
-1.49
-0.92
-0.68
-0.80
-1.14
-1.45
-1.52
-1.27
-0.80
-0.33
-0.07
-0.10
-0.33
-0.60
-0.75
-0.72
-0.56
-0.40
-0.31
-0.25
-0.14
0.16
0.64
1.23
1.74
1.98
1.91
1.63
1.35
1.29
1.55
2.07
2.67
3.14
3.33
3.28
3.16
3.19
3.54
4.22
5.08
5.86
6.34
6.42
6.22
6.02
6.17
6.93
8.34
10.19
12.10
13.68
14.67
15.12
15.41
16.12
17.79
20.72
24.68
29.01
32.87
35.57
37.04
37.86
39.05
41.66
46.20
52.35
59.12
65.21
69.63
72.13
73.33
74.47
77.11
82.73
92.23
105.38
120.30
133.26
139.20
133.11
111.91
76.01
29.80
-19.52
-64.21
-98.46
-119.92
-129.62
-130.72
-126.71
-120.20
-112.60
-104.60
-96.81
-90.00
-84.92
-81.81
-80.11
-78.53
-75.71
-70.79
-63.88
-55.99
-48.53
-42.70
-38.94
-36.82
-35.29
-33.24
-29.97
-25.47
-20.36
-15.53
-11.74
-9.27
-7.92
-7.19
-6.54
-5.65
-4.47
-3.19
-2.11
-1.44
-1.28
-1.55
-2.05
-2.51
-2.69
-2.43
-1.76
-0.85
0.02
0.60
0.79
0.68
0.47
0.43
0.70
1.32
2.18
3.14
4.03
4.71
5.07
4.96
4.29
3.07
1.47
-0.20
-1.55
-2.28
-2.30
-1.82
-1.17
