1660333491.00
64.000000
-0.00
-0.00
-0.00
-0.00
-0.00
-0.00
-0.00
-0.00
-0.00
-0.00
0.00
0.01
0.01
-0.00
-0.03
-0.05
-0.05
0.00
0.13
0.36
0.66
1.01
1.37
1.72
2.06
2.40
2.79
3.24
3.80
4.42
5.06
5.67
6.20
6.68
7.14
7.67
8.31
9.17
10.14
11.10
11.91
12.50
12.91
13.32
13.98
15.08
16.87
19.17
21.69
24.09
26.19
28.02
29.93
32.38
35.73
40.39
45.99
51.96
57.63
62.57
66.83
70.91
75.62
81.61
89.47
98.67
108.26
117.16
124.61
130.58
135.79
141.83
147.70
155.86
166.85
180.49
195.16
207.55
213.19
207.64
188.01
154.00
108.37
54.94
-2.42
-61.19
-120.44
-180.17
-240.20
-299.58
-356.62
-409.30
-456.58
-498.13
-534.03
-564.20
-588.07
-604.56
-612.01
-608.44
-591.29
-558.23
-507.69
-439.88
-357.52
-265.78
-171.21
-80.14
2.67
74.72
135.18
184.19
222.11
249.36
266.68
275.45
277.69
275.64
271.15
265.21
258.00
249.14
238.23
225.25
210.71
195.48
180.53
166.52
153.61
141.51
129.71
117.80
105.67
93.64
82.23
71.97
63.15
55.68
49.20
43.19
37.20
31.09
25.00
19.35
14.55
10.96
8.50
6.83
5.48
4.01
2.20
0.04
-2.30
-4.60
-6.66
-8.36
-9.58
-10.31
-10.58
-10.47
-10.14
-9.72
-9.25
-8.77
-8.25
-7.68
-7.09
-6.53
-6.06
-5.70
-5.46
-5.35
-5.35
-5.43
-5.53
-5.52
-5.28
-4.78
-4.12
-3.49
-3.11
-3.06
-3.23
-3.36
-3.15
-2.42
-1.24
0.10
1.22
1.81
1.73
1.07
0.05
-1.05
-2.04
-2.79
-3.28
-3.51
-3.54
-3.39
-3.09
-2.65
-2.13
-1.58
-1.04
-0.57
-0.19
0.09
0.28
0.36
0.32
0.17
-0.05
-0.24
-0.34
-0.29
-0.12
0.13
0.36
0.55
0.67
0.74
0.85
1.11
1.62
2.48
3.69
5.10
6.45
7.44
7.83
7.54
6.65
5.34
3.83
2.30
0.85
-0.45
-1.62
-2.65
-3.52
-4.19
-4.62
-4.79
-4.74
-4.58
-4.41
-4.33
-4.38
-4.54
-4.76
-4.95
-5.07
-5.08
-4.95
-4.64
-4.17
-3.60
-3.09
-2.82
-2.89
-3.22
-3.54
-3.47
-2.72
-1.27
0.62
2.44
3.71
4.09
3.57
2.40
0.96
-0.42
-1.53
-2.32
-2.85
-3.17
-3.29
-3.21
-2.88
-2.33
-1.63
-0.92
-0.33
0.03
0.13
0.01
-0.23
-0.52
-0.81
-1.10
-1.42
-1.78
-2.15
-2.48
-2.72
-2.86
-2.97
-3.13
-3.39
-3.63
-3.60
-2.97
-1.50
0.85
3.84
6.95
9.63
11.42
12.12
11.79
10.69
9.09
7.22
5.22
3.18
1.17
-0.68
-2.22
-3.32
-3.95
-4.16
-4.08
-3.90
-3.75
-3.67
-3.65
-3.62
-3.53
-3.39
-3.24
-3.12
-3.11
-3.24
-3.52
-3.98
-4.63
-5.44
-6.27
-6.83
-6.79
-5.87
-3.96
-1.22
1.95
5.03
7.52
9.12
9.75
9.50
8.57
7.17
5.49
3.69
1.96
0.47
-0.63
-1.24
-1.40
-1.21
-0.88
-0.60
-0.49
-0.58
-0.82
-1.07
-1.25
-1.33
-1.32
-1.30
-1.32
-1.47
-1.79
-2.32
-3.11
-4.10
-5.17
-6.07
-6.48
-6.12
-4.82
-2.66
0.09
3.00
5.65
7.73
9.06
9.65
9.58
8.91
7.74
6.16
4.36
2.60
1.12
0.13
-0.34
-0.39
-0.23
-0.04
0.05
0.04
-0.06
-0.21
-0.39
-0.63
-0.95
-1.33
-1.75
-2.18
-2.61
-3.07
-3.64
-4.41
-5.37
-6.38
-7.14
-7.32
-6.62
-4.98
-2.54
0.31
3.15
5.57
7.32
8.31
8.53
8.10
7.15
5.83
4.30
2.74
1.30
0.10
-0.77
-1.25
-1.37
-1.23
-0.97
-0.75
-0.66
-0.74
-0.92
-1.11
-1.25
-1.31
-1.36
-1.52
-1.93
-2.65
-3.70
-4.99
-6.32
-7.45
-8.14
-8.18
-7.44
-5.90
-3.69
-1.01
1.82
4.46
6.58
7.95
8.51
8.30
7.46
6.16
4.57
2.85
1.19
-0.25
-1.30
-1.89
-2.02
-1.79
-1.35
-0.84
-0.38
-0.03
0.18
0.21
0.03
-0.35
-0.90
-1.61
-2.44
-3.37
-4.39
-5.38
-6.18
-6.54
-6.20
-5.05
-3.16
-0.77
1.74
4.02
5.80
6.99
7.58
7.65
7.22
6.32
4.99
3.33
1.55
-0.08
-1.30
-1.97
-2.11
-1.90
-1.55
-1.26
-1.15
-1.22
-1.42
-1.66
-1.91
-2.14
-2.39
-2.71
-3.21
-4.00
-5.09
-6.39
-7.62
-8.43
-8.43
-7.39
-5.31
-2.48
0.66
3.62
6.01
7.64
8.51
8.71
8.36
7.55
6.31
4.76
3.04
1.41
0.14
-0.61
-0.79
-0.52
-0.05
0.39
0.62
0.59
0.38
0.09
-0.17
-0.33
-0.43
-0.57
-0.87
-1.49
-2.48
-3.77
-5.12
-6.15
-6.49
-5.87
-4.27
-1.91
0.81
3.49
5.79
7.53
8.64
9.11
8.95
8.14
6.70
4.74
2.46
0.18
-1.79
-3.20
-3.90
-3.92
-3.39
-2.56
-1.67
-0.95
-0.52
-0.40
-0.50
-0.71
-0.95
-1.24
-1.73
-2.59
-3.93
-5.65
-7.51
-9.09
-9.99
-9.94
-8.88
-6.95
-4.44
-1.67
1.08
3.57
5.66
7.21
8.13
8.37
7.92
6.86
5.35
3.61
1.88
0.38
-0.74
-1.39
-1.56
-1.34
-0.88
-0.38
-0.01
0.09
-0.08
-0.44
-0.90
-1.40
-1.94
-2.59
-3.37
-4.26
-5.17
-5.92
-6.28
-6.07
-5.15
-3.49
-1.17
1.56
4.39
6.92
8.84
9.96
10.22
9.71
8.57
6.98
5.14
3.27
1.59
0.30
-0.49
-0.82
-0.81
-0.66
-0.53
-0.50
-0.54
-0.64
-0.72
-0.79
-0.90
-1.14
-1.59
-2.26
-3.13
-4.17
-5.34
-6.37
-6.93
-6.72
-5.51
-3.35
-0.47
2.66
5.55
7.80
9.33
10.29
10.80
10.98
10.86
10.58
10.40
10.66
11.68
13.85
17.22
21.46
25.93
29.93
32.96
34.75
35.24
33.29
28.31
20.63
11.44
2.12
-6.47
-14.13
-21.00
-27.32
-33.06
-37.70
-40.59
-41.29
-39.77
-36.51
-32.17
-27.49
-23.11
-19.60
-17.47
-17.23
-19.22
-23.29
-28.55
-33.43
-36.18
-35.57
-31.41
-24.66
-16.94
-9.84
-4.18
0.25
4.38
9.15
14.91
21.47
28.17
34.49
40.24
45.31
49.32
51.41
50.47
45.33
36.78
26.50
16.67
9.06
4.39
2.15
1.13
0.18
-1.31
-3.23
-5.28
-7.13
-8.72
-10.12
-11.46
-12.82
-14.07
-14.99
-15.32
-15.03
-14.25
-13.27
-12.41
-11.90
-11.81
-11.99
-12.16
-11.97
-11.26
-10.08
-8.65
-7.32
-6.28
-5.58
-5.10
-4.60
-3.92
-2.99
-1.82
-0.44
1.20
3.14
5.36
7.63
9.63
10.97
11.42
10.93
9.65
7.84
5.75
3.61
1.60
-0.07
-1.21
-1.73
-1.67
-1.25
-0.78
-0.52
-0.61
-1.00
-1.51
-1.95
-2.21
-2.33
-2.45
-2.76
-3.38
-4.33
-5.52
-6.80
-7.98
-8.79
-8.93
-8.13
-6.28
-3.50
-0.20
3.02
5.55
6.99
7.24
6.51
5.14
3.45
1.62
-0.21
-1.96
-3.43
-4.37
-4.71
-4.38
-3.43
-2.13
-0.86
0.05
0.46
0.39
0.02
-0.50
-1.11
-1.91
-3.08
-4.70
-6.65
-8.70
-10.59
-12.15
-13.31
-14.03
-14.23
-13.68
-12.16
-9.51
-5.84
-1.53
2.90
6.90
10.09
12.28
13.42
13.56
12.76
11.16
8.94
6.43
4.04
2.22
1.31
1.43
2.44
3.95
5.49
6.68
7.39
7.73
7.96
8.25
8.60
8.74
8.28
6.88
4.42
1.09
-2.69
-6.36
-9.35
-11.22
-11.70
-10.75
-8.54
-5.42
-1.93
1.32
3.75
4.97
4.85
3.54
1.40
-1.12
-3.58
-5.63
-7.02
-7.63
-7.45
-6.63
-5.44
-4.28
-3.49
-3.30
-3.66
-4.30
-4.80
-4.78
-4.02
-2.59
-0.82
0.76
1.64
1.47
0.22
-1.80
-4.02
-5.76
-6.48
-5.88
-4.01
-1.19
2.13
5.50
8.57
11.12
13.01
14.09
14.24
13.35
11.49
8.88
5.97
3.28
1.24
0.08
-0.26
-0.02
0.49
1.07
1.63
2.19
2.78
3.35
3.79
4.00
3.93
3.60
3.02
2.21
1.09
-0.34
-1.98
-3.53
-4.57
-4.67
-3.67
-1.69
0.84
3.37
5.41
6.62
6.89
6.23
4.70
2.43
-0.37
-3.41
-6.26
-8.48
-9.79
-10.10
-9.58
-8.58
-7.50
-6.58
-5.91
-5.38
-4.78
-3.95
-2.83
-1.48
-0.04
1.36
2.69
4.10
5.85
8.36
11.96
16.82
22.71
28.94
34.46
38.20
39.43
38.20
35.31
32.13
29.91
29.35
30.25
31.68
32.42
31.50
28.49
23.51
17.05
9.70
2.02
-5.45
-12.20
-17.74
-21.71
-24.02
-24.87
-24.73
-24.15
-23.64
-23.50
-23.89
-24.79
-26.01
-27.26
-28.10
-28.10
-26.96
-24.58
-21.18
-17.20
-13.12
-9.39
-6.21
-3.60
-1.46
0.34
1.88
3.19
4.28
5.19
5.93
6.48
6.72
6.51
5.70
4.22
2.18
-0.18
-2.50
-4.47
-5.87
-6.72
-7.14
-7.39
-7.68
-8.14
-8.81
-9.61
-10.35
-10.74
-10.43
-9.05
-6.38
-2.41
2.65
8.41
14.42
20.36
25.95
30.98
35.17
38.14
39.54
39.12
36.91
33.28
28.78
24.01
19.47
15.43
11.94
8.92
6.31
4.04
2.13
0.60
-0.66
-1.80
-3.06
-4.65
-6.67
-9.05
-11.55
-13.88
-15.71
-16.79
-16.99
-16.35
-15.03
-13.37
-11.67
-10.17
-8.91
-7.76
-6.53
-5.10
-3.56
-2.17
-1.25
-1.07
-1.71
-3.06
-4.86
-6.78
-8.54
-9.92
-10.82
-11.25
-11.35
-11.31
-11.30
-11.46
-11.79
-12.26
-12.82
-13.48
-14.35
-15.49
-16.93
-18.49
-19.85
-20.59
-20.33
-18.83
-16.09
-12.33
-7.93
-3.28
1.21
5.28
8.77
11.63
13.95
15.90
17.66
19.38
21.10
22.76
24.24
25.44
26.30
26.83
27.11
27.26
27.44
27.81
28.51
29.57
30.81
31.83
32.05
30.91
28.09
23.60
17.83
11.43
5.13
-0.43
-4.83
-7.89
-9.73
-10.70
-11.30
-12.04
-13.29
-15.11
-17.29
-19.45
-21.17
-22.24
-22.69
-22.66
-22.33
-21.77
-20.95
-19.77
-18.28
-16.69
-15.30
-14.41
-14.15
-14.40
-14.83
-15.03
-14.70
-13.75
-12.35
-10.88
-9.79
-9.46
-10.11
-11.66
-13.76
-15.82
-17.20
-17.39
-16.16
-13.64
-10.26
-6.52
-2.81
0.68
4.00
7.26
10.49
13.52
16.06
17.81
18.64
18.72
18.46
18.41
19.11
20.93
23.94
27.86
32.11
35.86
38.27
38.75
37.18
34.00
30.13
26.62
24.18
22.86
21.97
20.38
16.98
11.23
3.34
-5.73
-14.65
-22.17
-27.46
-30.26
-30.84
-29.74
-27.61
-24.99
-22.31
-19.93
-18.13
-17.13
-16.99
-17.62
-18.76
-20.03
-21.12
-21.83
-22.19
-22.39
-22.62
-22.93
-23.22
-23.28
-22.93
-22.16
-21.07
-19.89
-18.82
-17.94
-17.19
-16.41
-15.53
-14.51
-13.40
-12.24
-11.10
-9.99
-8.85
-7.49
-5.81
-3.84
-1.80
0.00
1.39
2.33
3.11
4.36
6.90
11.25
17.29
24.17
30.72
36.07
39.67
41.69
42.83
44.09
46.24
49.48
53.63
58.35
63.42
68.01
70.69
69.53
63.10
51.00
34.12
14.30
-7.21
-27.81
-45.78
-61.52
-76.41
-89.75
-97.99
-96.63
-83.15
-59.03
-29.57
-2.91
15.76
23.80
21.90
13.24
1.87
-8.84
-16.92
-21.77
-22.93
-20.82
-16.78
-11.84
-6.61
-1.63
2.36
4.58
4.68
2.97
0.26
-2.41
-3.90
-3.65
-2.01
0.02
1.39
1.62
0.91
-0.03
-0.43
0.45
2.82
6.24
9.84
12.70
14.34
14.78
14.41
13.77
13.43
13.67
14.48
15.62
16.89
18.25
19.95
22.37
25.90
30.72
36.65
43.06
49.02
53.56
56.00
56.10
54.08
50.56
46.21
41.59
36.90
31.95
26.24
19.14
10.20
-0.60
-12.62
-24.58
-34.94
-42.37
-46.16
-46.50
-44.31
-40.95
-37.60
-34.93
-33.14
-32.13
-31.79
-32.07
-32.90
-34.04
-35.20
-35.90
-35.70
-34.42
-32.32
-30.01
-28.20
-27.37
-27.63
-28.83
-30.43
-31.65
-31.77
-30.46
-27.87
-24.51
-20.96
-17.65
-14.98
-13.03
-11.57
-10.21
-8.59
-6.53
-3.96
-0.99
3.70
10.18
17.30
23.46
27.84
30.64
32.48
33.63
33.75
32.19
28.24
21.94
14.22
6.56
0.34
-3.65
-5.40
-5.46
-4.70
-4.10
-4.24
-5.17
-6.52
-7.80
-8.62
-8.65
-7.66
-5.53
-2.42
1.19
4.64
7.21
8.42
8.19
6.87
5.00
2.88
0.67
-1.69
-4.15
-6.29
-7.35
-6.60
-3.75
0.88
5.91
9.82
11.55
10.99
8.93
6.63
5.14
4.76
5.17
5.60
5.48
4.64
3.36
2.16
1.47
1.41
1.78
2.16
2.13
1.43
0.00
-2.09
-4.60
-6.94
-8.23
-7.32
-3.28
4.09
13.96
24.47
33.30
38.59
39.59
36.88
31.90
26.24
20.95
16.34
12.13
7.96
3.74
-0.26
-3.54
-5.74
-6.89
-7.48
-8.18
-9.56
-11.78
-14.57
-17.35
-19.56
-20.91
-21.51
-21.81
-22.39
-23.75
-26.15
-29.65
-34.20
-39.64
-45.62
-51.36
-55.49
-56.28
-52.14
-42.32
-27.44
-9.43
8.98
25.21
37.57
45.65
50.07
51.92
52.20
51.48
49.91
47.42
43.95
39.58
34.54
29.15
23.79
18.78
14.36
10.58
7.34
4.41
1.52
-1.54
-4.80
-8.20
-11.62
-15.02
-18.46
-22.07
-26.05
-30.60
-35.95
-42.31
-49.71
-57.66
-64.92
-69.55
-69.41
-62.99
-50.10
-32.24
-12.08
7.33
23.67
35.84
43.98
48.92
51.51
52.29
51.43
49.06
45.53
41.43
37.44
34.01
31.18
28.60
25.76
22.30
18.22
13.89
9.88
6.68
4.41
2.76
1.09
-1.27
-4.68
-8.95
-13.39
-17.08
-19.26
-19.76
-19.06
-18.15
-18.22
-20.24
-24.73
-31.55
-39.75
-47.68
-53.15
-53.98
-48.70
-37.17
-20.80
-2.18
15.71
30.48
40.89
46.90
49.31
49.10
47.07
43.70
39.29
34.18
28.80
23.66
19.15
15.51
12.70
10.58
8.87
7.32
5.71
3.85
1.61
-1.03
-4.02
-7.24
-10.50
-13.67
-16.69
-19.57
-22.45
-25.56
-29.25
-33.87
-39.57
-45.99
-52.01
-55.80
-55.35
-49.19
-37.15
-20.53
-1.86
16.05
30.93
41.65
48.26
51.55
52.50
51.89
50.19
47.70
44.70
41.42
38.03
34.55
30.86
26.82
22.47
18.05
14.00
10.67
8.16
6.17
4.11
1.35
-2.48
-7.31
-12.69
-18.02
-22.83
-26.97
-30.66
-34.38
-38.74
-44.29
-51.32
-59.50
-67.66
-73.76
-75.35
-70.39
-58.22
-40.04
-18.67
2.42
20.33
33.56
42.17
47.19
49.74
50.55
49.81
47.58
44.12
40.08
36.20
32.98
30.41
28.05
25.30
21.82
17.74
13.65
10.25
8.01
6.88
6.23
5.15
2.80
-1.21
-6.64
-12.73
-18.56
-23.38
-26.97
-29.70
-32.33
-35.80
-40.91
-47.97
-56.59
-65.47
-72.54
-75.35
-71.89
-61.34
-44.57
-23.99
-2.80
16.13
31.03
41.55
48.33
52.42
54.55
55.02
53.85
51.12
47.19
42.71
38.36
34.59
31.50
28.88
26.34
23.55
20.37
16.93
13.51
10.45
7.96
6.05
4.42
2.56
-0.04
-3.70
-8.35
-13.54
-18.58
-22.84
-26.05
-28.40
-30.44
-32.87
-36.25
-40.91
-46.88
-53.89
-61.18
-67.41
-70.71
-69.13
-61.35
-47.40
-28.90
-8.64
10.35
25.85
36.97
44.10
48.26
50.40
50.99
50.10
47.69
44.00
39.63
35.35
31.83
29.36
27.75
26.45
24.87
22.60
19.67
16.49
13.64
11.57
10.29
9.35
7.98
5.47
1.50
-3.73
-9.50
-14.97
-19.45
-22.72
-25.06
-27.09
-29.56
-33.11
-38.08
-44.53
-52.05
-59.71
-66.02
-69.08
-67.09
-58.98
-45.01
-26.83
-7.09
11.47
26.84
38.22
45.91
50.69
53.29
54.05
53.07
50.53
46.92
43.04
39.65
37.17
35.49
34.13
32.55
30.45
27.95
25.50
23.54
22.28
21.51
20.67
19.11
16.37
12.42
7.70
2.90
-1.29
-4.55
-7.02
-9.27
-11.96
-15.57
-20.13
-25.21
-30.17
-34.38
-37.55
-39.82
-41.71
-43.94
-47.27
-52.32
-59.25
-67.58
-75.90
-81.99
-83.29
-77.79
-64.88
-45.81
-23.39
-1.08
18.21
32.93
43.01
49.36
53.07
54.87
54.98
53.49
50.65
47.06
43.50
40.59
38.53
37.01
35.49
33.45
30.70
27.51
24.43
22.01
20.53
19.78
19.21
18.08
15.90
12.58
8.50
4.31
0.65
-2.18
-4.28
-6.14
-8.39
-11.50
-15.55
-20.21
-24.88
-28.93
-32.02
-34.20
-35.90
-37.78
-40.50
-44.59
-50.19
-56.94
-63.74
-68.82
-70.06
-65.66
-54.90
-38.60
-19.03
0.76
18.04
31.17
39.88
44.97
47.54
48.44
48.02
46.31
43.39
39.62
35.61
32.02
29.28
27.50
26.48
25.84
25.17
24.21
22.83
21.04
18.93
16.64
14.28
11.89
9.43
6.78
3.77
0.28
-3.68
-7.96
-12.29
-16.35
-19.93
-23.00
-25.73
-28.41
-31.39
-35.03
-39.64
-45.37
-52.04
-58.84
-64.30
-66.43
-63.41
-54.34
-39.73
-21.55
-2.57
14.58
28.22
37.87
44.04
47.56
49.12
49.06
47.57
44.91
41.57
38.19
35.30
33.08
31.41
29.96
28.44
26.77
25.13
23.76
22.83
22.24
21.59
20.38
18.19
14.92
10.86
6.53
2.51
-0.93
-3.86
-6.69
-9.92
-13.86
-18.48
-23.38
-27.99
-31.83
-34.73
-36.94
-39.05
-41.84
-46.03
-52.02
-59.58
-67.65
-74.30
-77.21
-74.31
-64.66
-48.90
-29.21
-8.63
10.02
24.91
35.60
42.72
47.32
50.22
51.79
52.04
50.97
48.81
46.09
43.37
41.06
39.20
37.55
35.77
33.67
31.30
28.96
26.96
25.48
24.41
23.39
21.93
19.63
16.29
12.07
7.38
2.83
-1.03
-3.90
-5.89
-7.52
-9.44
-12.24
-16.10
-20.78
-25.70
-30.21
-33.91
-36.77
-39.12
-41.47
-44.36
-48.23
-53.31
-59.46
-65.96
-71.42
-73.93
-71.64
-63.39
-49.38
-31.25
-11.63
6.71
21.75
32.67
39.74
43.81
45.75
46.10
45.11
42.98
40.05
36.86
33.96
31.68
30.06
28.86
27.75
26.51
25.16
23.83
22.65
21.63
20.59
19.25
17.41
15.04
12.26
9.25
6.17
3.03
-0.24
-3.73
-7.46
-11.32
-15.09
-18.56
-21.57
-24.19
-26.63
-29.29
-32.65
-37.11
-42.87
-49.62
-56.42
-61.66
-63.42
-60.05
-50.92
-36.79
-19.68
-2.27
13.03
24.83
32.94
38.02
40.99
42.47
42.69
41.65
39.50
36.65
33.70
31.20
29.36
28.08
27.04
25.99
24.89
23.90
23.30
23.24
23.61
24.00
23.84
22.60
19.99
16.16
11.64
7.16
3.37
0.59
-1.31
-2.90
-4.86
-7.74
-11.69
-16.41
-21.27
-25.66
-29.22
-32.00
-34.46
-37.26
-41.08
-46.34
-53.09
-60.75
-68.08
-73.27
-74.32
-69.71
-59.04
-43.34
-24.89
-6.46
9.59
21.98
30.65
36.38
40.14
42.59
43.90
44.01
42.96
41.03
38.76
36.70
35.14
34.03
33.06
31.82
30.14
28.09
26.04
24.38
23.37
22.92
22.66
22.03
20.53
17.94
14.45
10.60
7.03
4.22
2.30
0.92
-0.53
-2.72
-5.98
-10.22
-14.89
-19.30
-22.88
-25.45
-27.22
-28.70
-30.52
-33.22
-37.22
-42.67
-49.29
-56.20
-61.93
-64.61
-62.53
-54.82
-41.93
-25.59
-8.31
7.43
20.00
28.87
34.45
37.62
39.16
39.49
38.74
36.97
34.39
31.46
28.72
26.62
25.32
24.71
24.41
24.03
23.30
22.16
20.71
19.11
17.47
15.77
13.93
11.84
9.46
6.84
4.05
1.14
-1.92
-5.20
-8.76
-12.54
-16.35
-19.96
-23.15
-25.91
-28.42
-31.16
-34.66
-39.42
-45.52
-52.35
-58.55
-62.20
-61.40
-55.01
-43.14
-27.29
-9.88
6.58
20.24
30.35
37.13
41.37
43.82
44.93
44.86
43.70
41.70
39.33
37.10
35.36
34.15
33.17
32.02
30.36
28.17
25.73
23.48
21.83
20.88
20.36
19.69
18.23
15.58
11.76
7.24
2.73
-1.10
-3.95
-6.05
-7.98
-10.44
-13.86
-18.22
-23.03
-27.62
-31.43
-34.27
-36.37
-38.33
-40.83
-44.52
-49.77
-56.55
-64.22
-71.43
-76.27
-76.68
-71.17
-59.48
-42.85
-23.73
-4.97
11.11
23.37
31.87
37.47
41.14
43.54
44.84
45.02
44.09
42.31
40.12
38.00
36.22
34.76
33.36
31.68
29.55
27.11
24.73
22.88
21.82
21.45
21.28
20.61
18.86
15.82
11.74
7.28
3.16
-0.05
-2.22
-3.65
-4.90
-6.62
-9.19
-12.69
-16.77
-20.92
-24.63
-27.63
-29.96
-31.95
-34.10
-36.94
-40.86
-46.05
-52.25
-58.68
-63.96
-66.34
-64.23
-56.79
-44.34
-28.43
-11.37
4.50
17.50
27.00
33.25
36.98
38.95
39.64
39.31
38.16
36.42
34.47
32.62
31.05
29.74
28.53
27.29
25.99
24.78
23.88
23.39
23.21
23.02
22.41
21.00
18.68
15.61
12.17
8.74
5.52
2.51
-0.53
-3.83
-7.50
-11.43
-15.33
-18.85
-21.80
-24.25
-26.53
-29.14
-32.65
-37.43
-43.45
-50.08
-56.02
-59.52
-58.83
-52.84
-41.63
-26.52
-9.78
6.20
19.58
29.59
36.40
40.73
43.28
44.48
44.46
43.28
41.20
38.71
36.38
34.61
33.48
32.75
32.02
30.96
29.46
27.70
25.98
24.60
23.65
22.97
22.16
20.76
18.40
15.03
10.90
6.52
2.43
-0.98
-3.65
-5.87
-8.15
-11.00
-14.72
-19.25
-24.20
-29.00
-33.10
-36.25
-38.54
-40.46
-42.70
-45.99
-50.85
-57.40
-65.09
-72.57
-77.80
-78.58
-73.25
-61.43
-44.31
-24.43
-4.77
12.18
25.12
34.08
39.90
43.58
45.82
46.83
46.65
45.36
43.30
40.98
38.81
36.98
35.37
33.70
31.76
29.53
27.19
25.03
23.29
22.04
21.16
20.36
19.28
17.56
14.98
11.50
7.38
3.09
-0.78
-3.80
-5.86
-7.30
-8.72
-10.78
-13.89
-18.03
-22.78
-27.47
-31.52
-34.60
-36.80
-38.56
-40.53
-43.35
-47.53
-53.26
-60.27
-67.69
-73.94
-76.98
-74.84
-66.35
-51.76
-32.84
-12.43
6.46
21.70
32.46
39.18
42.93
44.79
45.41
45.05
43.84
42.03
40.01
38.17
36.66
35.36
33.93
32.09
29.80
27.33
25.11
23.50
22.58
22.06
21.40
20.06
17.73
14.50
10.79
7.21
4.22
1.98
0.26
-1.35
-3.30
-5.87
-9.01
-12.50
-15.96
-19.09
-21.71
-23.90
-25.92
-28.22
-31.34
-35.68
-41.26
-47.47
-52.98
-56.00
-54.78
-48.32
-36.81
-21.72
-5.35
9.92
22.30
31.00
36.19
38.59
39.03
38.12
36.23
33.57
30.42
27.16
24.22
22.00
20.64
20.06
19.97
19.96
19.70
18.93
17.63
15.86
13.80
11.64
9.51
7.45
5.38
3.10
0.42
-2.83
-6.65
-10.86
-15.17
-19.21
-22.76
-25.76
-28.38
-30.97
-33.94
-37.73
-42.64
-48.68
-55.37
-61.57
-65.59
-65.58
-60.18
-49.08
-33.36
-15.21
2.72
18.21
30.03
38.07
43.04
45.86
47.27
47.66
47.19
45.95
44.19
42.21
40.27
38.47
36.69
34.71
32.37
29.73
27.13
24.98
23.59
22.91
22.48
21.64
19.83
16.86
12.99
8.79
4.79
1.23
-2.03
-5.39
-9.20
-13.61
-18.42
-23.21
-27.57
-31.21
-34.11
-36.51
-38.86
-41.74
-45.77
-51.35
-58.42
-66.14
-72.82
-76.22
-74.22
-65.68
-51.00
-32.14
-12.02
6.51
21.48
32.28
39.37
43.75
46.33
47.64
47.83
46.96
45.22
42.98
40.64
38.48
36.52
34.55
32.34
29.77
26.97
24.26
22.03
20.46
19.45
18.60
17.34
15.24
12.16
8.36
4.40
0.89
-1.80
-3.68
-5.19
-7.01
-9.74
-13.61
-18.33
-23.25
-27.57
-30.75
-32.73
-33.98
-35.32
-37.59
-41.44
-47.03
-53.93
-61.01
-66.57
-68.68
-65.65
-56.76
-42.57
-24.96
-6.53
10.15
23.37
32.54
38.10
40.97
42.04
41.92
40.88
39.12
36.88
34.50
32.28
30.44
28.97
27.73
26.49
25.11
23.54
21.91
20.35
18.99
17.85
16.78
15.57
13.98
11.83
9.06
5.72
1.97
-2.02
-6.07
-9.99
-13.60
-16.80
-19.56
-22.02
-24.45
-27.26
-30.89
-35.70
-41.68
-48.32
-54.37
-58.11
-57.71
-51.99
-40.93
-25.82
-8.93
7.27
20.89
31.05
37.83
41.89
43.92
44.40
43.63
41.87
39.51
36.99
34.71
32.79
31.11
29.36
27.32
24.95
22.46
20.21
18.50
17.41
16.72
15.96
14.63
12.41
9.29
5.65
2.03
-1.10
-3.59
-5.71
-8.01
-11.01
-14.93
-19.55
-24.30
-28.53
-31.81
-34.15
-35.98
-37.98
-40.87
-45.20
-51.10
-58.13
-65.12
-70.25
-71.46
-67.04
-56.45
-40.62
-21.86
-3.08
13.20
25.61
34.15
39.73
43.47
46.11
47.83
48.46
47.87
46.24
44.04
41.86
40.05
38.61
37.23
35.51
33.27
30.65
28.09
26.11
24.98
24.60
24.49
23.95
22.40
19.56
15.63
11.12
6.71
2.92
-0.02
-2.25
-4.25
-6.58
-9.71
-13.82
-18.66
-23.69
-28.24
-31.77
-34.15
-35.68
-37.03
-39.00
-42.31
-47.33
-53.93
-61.28
-67.81
-71.53
-70.45
-63.33
-50.24
-32.67
-13.23
5.22
20.47
31.42
38.19
41.63
42.77
42.44
41.11
39.06
36.56
33.92
31.48
29.42
27.77
26.35
24.92
23.34
21.60
19.92
18.56
17.67
17.22
16.88
16.20
14.79
12.51
9.60
6.48
3.59
1.12
-1.07
-3.35
-6.09
-9.39
-13.02
-16.54
-19.52
-21.80
-23.57
-25.37
-27.88
-31.74
-37.22
-44.02
-51.13
-56.89
-59.34
-56.82
-48.62
-35.38
-18.95
-1.83
13.61
25.85
34.43
39.72
42.43
43.18
42.33
40.11
36.81
32.93
29.11
25.93
23.66
22.21
21.16
19.96
18.11
15.27
11.29
6.27
0.57
-5.18
-10.17
-13.65
-15.14
-14.63
-12.56
-9.67
-6.68
-4.17
-2.47
-1.73
-2.05
-3.47
-5.87
-8.95
-12.22
-15.22
-17.75
-19.94
-22.13
-24.60
-27.32
-29.92
-31.81
-32.49
-31.61
-29.03
-24.62
-18.29
-9.92
0.50
12.63
25.74
38.94
51.48
63.05
73.75
83.72
93.01
101.54
109.05
115.29
120.12
123.56
125.67
126.43
125.39
122.09
116.38
108.51
98.97
88.37
77.26
66.02
54.84
43.04
30.19
16.57
3.07
-9.40
-20.30
-29.41
-36.85
-42.89
-49.40
-57.66
-67.59
-78.08
-87.95
-96.64
-104.10
-110.61
-116.72
-125.45
-138.73
-156.03
-174.61
-191.42
-204.26
-212.07
-214.90
-213.87
-213.80
-218.50
-228.60
-241.68
-254.41
-263.76
-267.17
-262.57
-230.55
-164.64
-75.79
14.63
89.83
143.50
176.37
191.94
194.27
187.41
172.23
150.49
126.02
103.78
87.23
77.32
73.26
72.84
73.88
72.38
66.10
55.74
44.20
34.44
28.23
25.94
26.87
29.69
31.27
29.13
22.62
13.04
1.86
-8.54
-15.50
-16.76
-11.06
0.44
15.06
29.42
40.18
44.60
41.24
30.32
13.82
-4.88
-22.20
-34.99
-41.43
-41.42
-36.64
-29.64
-22.91
-17.96
-14.92
-12.92
-10.73
-7.45
-2.81
2.92
9.34
16.05
22.68
28.89
34.38
39.07
43.27
47.52
52.27
57.39
61.95
64.44
63.51
58.75
50.99
41.96
33.46
26.57
21.45
17.62
14.53
12.01
10.29
9.67
10.10
11.12
12.11
12.70
13.00
13.52
14.78
16.94
19.67
22.34
24.31
25.25
25.43
25.43
25.83
26.85
28.26
29.57
30.19
29.66
27.75
24.80
21.36
18.02
15.26
13.32
12.42
12.52
13.17
13.65
13.70
13.28
12.60
11.91
11.28
11.06
11.38
12.04
12.49
12.62
12.37
11.68
10.51
8.83
7.39
6.84
7.12
4.63
-3.10
-16.40
-33.28
-49.72
-64.63
-76.86
-85.20
-88.03
-84.36
-73.99
-58.14
-39.49
-21.42
-8.61
-3.37
-4.69
-9.59
-15.79
-22.52
-29.98
-38.77
-48.17
-56.49
-61.24
-60.94
-56.03
-48.02
-39.43
-32.63
-29.06
-28.99
-31.84
-36.04
-39.83
-41.78
-41.00
-37.11
-30.07
-20.38
-8.89
3.22
15.02
25.77
34.88
41.88
46.53
49.03
49.89
49.80
49.44
49.42
50.04
51.26
52.67
53.66
53.84
52.98
51.08
48.27
44.81
40.97
36.92
32.66
28.09
23.38
18.82
14.83
11.83
10.08
9.49
9.61
9.80
9.58
9.09
8.71
8.74
9.16
9.64
9.74
9.37
8.89
7.47
5.14
2.27
-0.97
-4.87
-9.82
-15.62
-21.39
-25.98
-28.58
-28.95
-27.76
-26.22
-25.68
-26.91
-29.84
-33.62
-37.03
-38.98
-38.74
-36.43
-32.66
-28.37
-24.21
-20.43
-17.17
-14.73
-13.47
-13.19
-12.80
-10.47
-4.40
6.11
19.87
33.93
44.50
48.58
45.17
34.89
21.18
7.56
-3.44
-10.70
-14.30
-14.96
-13.56
-10.89
-7.69
-4.54
-2.14
-1.03
-1.43
-3.26
-6.08
-9.24
-12.03
-13.93
-14.60
-14.27
-13.45
-12.66
-12.19
-11.93
-11.43
-10.28
-8.36
-5.96
-3.81
-2.56
-2.47
-3.11
-3.68
-3.46
-2.14
-0.04
2.13
3.59
3.96
3.30
2.09
0.81
-0.28
-1.15
-1.93
-2.61
-2.98
-2.58
-0.97
2.04
6.18
10.77
14.98
18.12
19.85
20.20
19.46
17.98
16.01
13.73
11.26
8.75
6.29
3.97
1.76
-0.40
-2.56
-4.74
-6.90
-8.93
-10.72
-12.15
-13.10
-13.48
-13.22
-12.37
-11.12
-9.82
-8.88
-8.64
-9.27
-10.68
-12.57
-14.55
-16.24
-17.43
-18.12
-18.58
-19.19
-20.32
-22.19
-24.70
-27.44
-29.73
-30.77
-29.84
-26.54
-20.85
-13.21
-4.32
4.96
13.78
21.47
27.50
31.60
33.74
34.14
33.24
31.59
29.71
27.99
26.62
25.63
24.87
24.12
23.15
21.74
19.77
17.21
14.19
10.90
7.53
4.20
0.94
-2.22
-5.25
-8.03
-10.39
-12.22
-13.50
-14.37
-15.03
-15.71
-16.60
-17.76
-19.12
-20.38
-21.09
-20.59
-18.25
-13.58
-6.50
2.62
12.95
23.38
32.75
40.07
44.63
46.10
44.58
40.54
34.77
28.25
21.95
16.68
12.79
10.12
8.01
5.53
1.90
-3.18
-9.38
-15.89
-21.72
-26.18
-29.01
-30.42
-30.83
-30.59
-29.82
-28.48
-26.51
-24.03
-21.35
-18.86
-16.88
-15.52
-14.63
-13.86
-12.69
-10.57
-7.07
-2.03
4.22
10.90
16.90
21.10
22.79
21.89
18.98
15.04
11.08
7.81
5.57
4.38
4.01
4.15
4.39
4.32
3.53
1.87
-0.53
-3.26
-5.81
-7.78
-9.05
-9.77
-10.20
-10.54
-10.85
-11.04
-11.06
-10.91
-10.74
-10.74
-11.02
-11.55
-12.12
-12.47
-12.41
-11.91
-11.08
-10.08
-9.02
-7.89
-6.55
-4.83
-2.60
0.27
3.86
8.35
13.90
20.61
28.27
36.24
43.45
48.67
50.81
49.34
44.43
36.95
28.13
19.16
10.86
3.61
-2.54
-7.64
-11.69
-14.59
-16.34
-17.10
-17.29
-17.42
-17.95
-19.11
-20.91
-23.15
-25.53
-27.70
-29.24
-29.76
-28.92
-26.64
