1660936822.00
64.000000
-0.00
-0.00
-0.00
-0.00
-0.00
-0.00
-0.00
-0.00
-0.00
-0.00
0.00
0.01
0.01
-0.00
-0.03
-0.05
-0.05
0.00
0.13
0.36
0.66
1.01
1.37
1.72
2.06
2.40
2.79
3.25
3.81
4.44
5.10
5.73
6.32
6.89
7.51
8.25
9.15
10.29
11.56
12.82
13.96
14.93
15.82
16.82
18.17
20.01
22.53
25.51
28.66
31.67
34.41
36.99
39.81
43.30
47.80
53.61
60.32
67.36
74.14
80.39
86.32
92.54
99.83
108.69
119.51
131.58
143.96
155.73
166.50
176.60
186.97
199.14
211.72
226.68
244.18
263.98
284.78
303.95
317.68
321.89
313.55
291.67
258.13
216.06
169.19
120.55
72.06
24.61
-21.19
-64.67
-105.19
-142.17
-176.18
-208.49
-240.88
-274.84
-310.70
-347.04
-380.48
-406.62
-421.23
-422.03
-409.60
-387.18
-359.38
-330.43
-302.84
-277.22
-253.05
-229.62
-206.97
-185.78
-166.78
-150.14
-135.31
-121.30
-107.26
-92.91
-78.60
-65.15
-53.34
-43.57
-35.71
-29.15
-23.11
-16.95
-10.47
-3.90
2.20
7.29
11.05
13.61
15.40
16.99
18.76
20.83
22.96
24.77
25.94
26.38
26.22
25.79
25.41
25.28
25.42
25.68
25.86
25.81
25.45
24.85
24.11
23.35
22.61
21.90
21.20
20.49
19.77
19.05
18.35
17.64
16.88
16.06
15.20
14.36
13.62
13.06
12.76
12.69
12.79
12.92
12.92
12.70
12.27
11.74
11.30
11.05
11.02
11.09
11.09
10.90
10.49
9.95
9.42
9.01
8.73
8.52
8.28
7.95
7.56
7.20
6.97
6.89
6.90
6.84
6.57
6.04
5.30
4.51
3.83
3.36
3.09
2.99
2.99
3.05
3.13
3.20
3.16
2.92
2.43
1.69
0.77
-0.23
-1.19
-2.04
-2.77
-3.38
-3.90
-4.36
-4.79
-5.22
-5.66
-6.13
-6.63
-7.18
-7.77
-8.39
-8.98
-9.49
-9.80
-9.87
-9.69
-9.34
-8.93
-8.55
-8.24
-7.97
-7.66
-7.27
-6.78
-6.23
-5.67
-5.12
-4.53
-3.88
-3.14
-2.33
-1.50
-0.71
-0.00
0.61
1.10
1.46
1.64
1.64
1.52
1.37
1.33
1.45
1.72
2.03
2.26
2.35
2.32
2.27
2.30
2.47
2.73
3.00
3.23
3.42
3.63
3.87
4.11
4.28
4.27
4.08
3.75
3.43
3.23
3.23
3.41
3.73
4.12
4.48
4.77
4.96
5.03
5.02
4.96
4.89
4.78
4.60
4.35
4.06
3.86
3.83
4.01
4.30
4.50
4.46
4.12
3.59
3.03
2.62
2.42
2.36
2.33
2.25
2.09
1.89
1.73
1.65
1.65
1.70
1.76
1.79
1.81
1.82
1.83
1.86
1.92
2.00
2.10
2.18
2.24
2.25
2.23
2.20
2.18
2.16
2.16
2.13
2.05
1.92
1.75
1.60
1.52
1.53
1.60
1.68
1.74
1.73
1.64
1.45
1.19
0.91
0.68
0.59
0.69
0.95
1.25
1.49
1.59
1.55
1.46
1.37
1.31
1.25
1.16
1.07
1.04
1.13
1.32
1.53
1.58
1.40
1.04
0.66
0.48
0.59
0.93
1.30
1.54
1.53
1.33
1.12
1.03
1.14
1.37
1.58
1.63
1.47
1.14
0.77
0.47
0.30
0.23
0.20
0.14
0.06
-0.01
-0.02
0.05
0.16
0.25
0.28
0.28
0.30
0.42
0.64
0.89
1.06
1.07
0.90
0.62
0.34
0.13
0.04
0.06
0.14
0.27
0.44
0.64
0.87
1.07
1.18
1.17
1.01
0.78
0.55
0.40
0.37
0.47
0.65
0.86
1.04
1.13
1.12
1.03
0.94
0.93
1.01
1.15
1.25
1.20
0.92
0.46
-0.07
-0.52
-0.77
-0.76
-0.50
-0.10
0.32
0.60
0.64
0.43
0.06
-0.33
-0.59
-0.64
-0.50
-0.24
0.04
0.27
0.40
0.43
0.39
0.32
0.28
0.30
0.37
0.46
0.53
0.52
0.48
0.44
0.45
0.52
0.58
0.56
0.42
0.20
0.00
-0.07
0.02
0.23
0.45
0.59
0.61
0.54
0.45
0.42
0.47
0.58
0.70
0.81
0.91
1.03
1.14
1.24
1.28
1.23
1.12
1.00
0.92
0.89
0.90
0.87
0.74
0.51
0.26
0.06
-0.02
0.04
0.21
0.39
0.53
0.59
0.58
0.53
0.46
0.37
0.23
0.03
-0.21
-0.46
-0.66
-0.76
-0.75
-0.62
-0.42
-0.22
-0.08
-0.05
-0.11
-0.19
-0.18
-0.05
0.19
0.42
0.53
0.49
0.33
0.16
0.09
0.12
0.16
0.10
-0.13
-0.47
-0.78
-0.90
-0.73
-0.35
0.10
0.41
0.48
0.32
0.07
-0.09
-0.03
0.23
0.60
0.93
1.09
1.05
0.87
0.64
0.43
0.29
0.24
0.26
0.33
0.41
0.47
0.50
0.53
0.57
0.64
0.67
0.61
0.41
0.11
-0.20
-0.41
-0.48
-0.41
-0.32
-0.32
-0.46
-0.72
-1.04
-1.35
-1.66
-2.02
-2.47
-3.00
-3.55
-4.02
-4.32
-4.44
-4.45
-4.44
-4.54
-4.80
-5.27
-5.90
-6.69
-7.57
-8.52
-9.47
-10.36
-11.19
-12.00
-12.91
-14.08
-15.59
-17.44
-19.52
-21.68
-23.85
-26.05
-28.42
-31.12
-34.29
-37.93
-41.93
-46.11
-50.28
-54.39
-58.52
-62.94
-68.02
-74.11
-81.29
-89.24
-97.16
-104.19
-109.70
-113.77
-117.24
-121.28
-126.88
-134.45
-143.92
-154.91
-167.00
-179.39
-190.46
-197.55
-197.36
-186.96
-165.04
-132.36
-91.32
-44.78
4.94
56.10
106.81
154.12
194.03
222.51
237.23
238.77
230.46
217.03
202.72
189.90
178.93
168.90
158.85
148.53
138.43
129.33
121.67
115.28
109.50
103.49
96.69
89.01
80.86
72.80
65.28
58.36
51.67
44.67
36.97
28.63
20.25
12.72
6.85
2.99
0.93
0.03
-0.49
-1.20
-2.29
-3.62
-4.86
-5.73
-6.13
-6.16
-6.05
-5.98
-6.05
-6.20
-6.29
-6.21
-5.89
-5.39
-4.77
-4.12
-3.44
-2.74
-2.02
-1.34
-0.79
-0.45
-0.32
-0.35
-0.46
-0.59
-0.77
-1.06
-1.51
-2.06
-2.59
-2.98
-3.18
-3.23
-3.24
-3.31
-3.47
-3.69
-3.92
-4.13
-4.34
-4.59
-4.85
-4.97
-4.80
-4.16
-3.07
-1.65
-0.20
1.02
1.80
2.16
2.25
2.29
2.51
2.97
3.62
4.30
4.82
5.07
5.01
4.70
4.25
3.74
3.21
2.64
1.95
1.14
0.27
-0.53
-1.05
-1.11
-0.69
0.09
0.96
1.62
1.89
1.85
1.82
2.27
3.58
5.88
8.95
12.31
15.50
18.36
21.26
25.09
31.03
40.13
52.86
68.92
87.18
106.09
124.08
140.13
153.98
166.09
177.39
188.87
201.29
214.86
229.08
242.53
252.99
257.71
254.15
240.76
217.54
186.05
148.70
107.79
64.55
19.03
-29.04
-79.04
-128.45
-173.00
-207.93
-229.83
-238.02
-234.80
-224.33
-210.90
-197.42
-184.86
-172.87
-160.87
-148.92
-137.76
-128.33
-120.98
-115.16
-109.66
-103.28
-95.51
-86.64
-77.68
-69.75
-63.54
-59.05
-55.65
-52.43
-48.65
-43.97
-38.61
-33.19
-28.37
-24.62
-21.98
-20.15
-18.59
-16.83
-14.65
-12.10
-9.48
-7.13
-5.29
-3.98
-3.08
-2.40
-1.73
-0.98
-0.17
0.60
1.18
1.43
1.31
0.89
0.33
-0.20
-0.54
-0.67
-0.62
-0.47
-0.28
-0.10
0.03
0.10
0.05
-0.09
-0.30
-0.47
-0.53
-0.41
-0.15
0.18
0.51
0.77
0.94
1.01
1.01
0.94
0.86
0.84
0.94
1.16
1.43
1.62
1.56
1.18
0.50
-0.36
-1.23
-1.96
-2.48
-2.75
-2.81
-2.68
-2.41
-2.06
-1.71
-1.45
-1.36
-1.46
-1.68
-1.93
-2.12
-2.19
-2.14
-2.04
-1.95
-1.93
-2.00
-2.13
-2.25
-2.24
-1.98
-1.35
-0.32
1.08
2.64
4.11
5.25
5.92
6.14
6.07
5.91
5.81
5.85
6.00
6.20
6.35
6.38
6.24
5.91
5.41
4.80
4.12
3.41
2.61
1.63
0.38
-1.16
-2.89
-4.64
-6.20
-7.38
-8.09
-8.34
-8.23
-7.89
-7.49
-7.10
-6.73
-6.32
-5.72
-4.83
-3.62
-2.17
-0.61
0.91
2.28
3.48
4.49
5.29
5.82
6.03
5.86
5.33
4.56
3.65
2.71
1.80
0.96
0.22
-0.36
-0.73
-0.85
-0.80
-0.67
-0.57
-0.59
-0.74
-1.02
-1.38
-1.79
-2.21
-2.62
-2.96
-3.24
-3.47
-3.70
-3.94
-4.12
-4.11
-3.75
-2.97
-1.86
-0.62
0.45
1.14
1.37
1.24
0.96
0.78
0.87
1.28
1.96
2.79
3.61
4.28
4.72
4.91
4.90
4.80
4.67
4.49
4.16
3.57
2.63
1.39
0.04
-1.21
-2.19
-2.82
-3.14
-3.25
-3.26
-3.21
-3.06
-2.76
-2.29
-1.71
-1.16
-0.73
-0.45
-0.29
-0.13
0.16
0.63
1.26
1.92
2.49
2.86
3.00
2.89
2.55
1.97
1.16
0.19
-0.80
-1.63
-2.16
-2.31
-2.12
-1.74
-1.38
-1.19
-1.25
-1.51
-1.85
-2.14
-2.31
-2.35
-2.33
-2.32
-2.35
-2.43
-2.52
-2.62
-2.74
-2.89
-3.07
-3.17
-3.04
-2.56
-1.69
-0.54
0.66
1.65
2.21
2.30
2.05
1.74
1.64
1.94
2.62
3.56
4.52
5.35
5.94
6.31
6.48
6.48
6.28
5.88
5.28
4.56
3.72
2.77
1.65
0.30
-1.29
-3.02
-4.72
-6.23
-7.39
-8.15
-8.51
-8.46
-8.06
-7.39
-6.57
-5.72
-4.93
-4.17
-3.32
-2.22
-0.75
1.05
3.02
4.87
6.32
7.16
7.33
6.90
6.06
5.03
4.00
3.10
2.40
1.85
1.39
0.91
0.37
-0.23
-0.79
-1.18
-1.26
-0.95
-0.30
0.50
1.19
1.50
1.32
0.68
-0.25
-1.25
-2.16
-2.94
-3.62
-4.23
-4.77
-5.13
-5.22
-4.99
-4.52
-3.96
-3.46
-3.09
-2.83
-2.57
-2.24
-1.81
-1.31
-0.80
-0.30
0.21
0.75
1.39
2.13
3.02
4.09
5.36
6.77
8.18
9.39
10.20
10.52
10.35
9.80
8.93
7.78
6.32
4.52
2.43
0.20
-2.03
-4.09
-5.90
-7.39
-8.48
-9.12
-9.29
-9.04
-8.48
-7.74
-6.92
-6.09
-5.24
-4.39
-3.56
-2.79
-2.05
-1.26
-0.30
0.88
2.23
3.54
4.56
5.08
5.04
4.54
3.82
3.11
2.59
2.30
2.20
2.22
2.31
2.48
2.70
2.97
3.22
3.37
3.33
3.09
2.68
2.17
1.67
1.24
0.89
0.59
0.24
-0.22
-0.82
-1.53
-2.27
-2.92
-3.40
-3.67
-3.76
-3.70
-3.53
-3.28
-2.98
-2.70
-2.54
-2.57
-2.83
-3.20
-3.55
-3.71
-3.60
-3.27
-2.85
-2.47
-2.24
-2.14
-2.12
-2.11
-2.07
-2.00
-1.91
-1.77
-1.57
-1.29
-0.93
-0.47
0.16
1.03
2.19
3.59
4.99
6.07
6.53
6.28
5.49
4.51
3.71
3.29
3.25
3.36
3.41
3.24
2.85
2.29
1.63
0.88
0.05
-0.81
-1.58
-2.12
-2.35
-2.25
-1.91
-1.43
-0.92
-0.47
-0.11
0.14
0.27
0.28
0.22
0.13
0.07
0.02
-0.04
-0.18
-0.38
-0.63
-0.84
-0.94
-0.91
-0.75
-0.50
-0.23
0.01
0.17
0.21
0.11
-0.10
-0.34
-0.52
-0.56
-0.44
-0.20
0.08
0.32
0.49
0.59
0.64
0.64
0.57
0.43
0.25
0.09
-0.01
-0.03
0.02
0.05
0.03
-0.08
-0.20
-0.27
-0.19
0.02
0.31
0.53
0.55
0.34
-0.04
-0.44
-0.71
-0.76
-0.64
-0.46
-0.32
-0.30
-0.35
-0.39
-0.38
-0.30
-0.18
-0.07
-0.01
-0.00
-0.03
-0.06
-0.08
-0.07
-0.00
0.12
0.24
0.30
0.22
-0.03
-0.38
-0.72
-0.88
-0.76
-0.39
0.12
0.56
0.77
0.67
0.31
-0.16
-0.56
-0.75
-0.71
-0.47
-0.13
0.20
0.45
0.58
0.58
0.44
0.17
-0.19
-0.54
-0.79
-0.86
-0.72
-0.43
-0.09
0.18
0.30
0.25
0.05
-0.20
-0.40
-0.49
-0.43
-0.25
-0.01
0.24
0.46
0.63
0.75
0.83
0.85
0.80
0.67
0.47
0.22
-0.01
-0.18
-0.27
-0.26
-0.22
-0.18
-0.17
-0.21
-0.24
-0.20
-0.02
0.28
0.63
0.89
0.93
0.71
0.28
-0.19
-0.56
-0.75
-0.77
-0.73
-0.71
-0.73
-0.71
-0.55
-0.20
0.27
0.69
0.90
0.81
0.47
0.04
-0.30
-0.44
-0.41
-0.29
-0.17
-0.11
-0.11
-0.13
-0.09
0.04
0.24
0.48
0.70
0.84
0.88
0.80
0.63
0.38
0.08
-0.24
-0.54
-0.76
-0.83
-0.70
-0.37
0.09
0.54
0.87
0.98
0.87
0.62
0.34
0.10
-0.08
-0.22
-0.37
-0.55
-0.73
-0.83
-0.83
-0.73
-0.59
-0.46
-0.38
-0.33
-0.27
-0.17
-0.04
0.09
0.18
0.21
0.21
0.21
0.23
0.25
0.22
0.08
-0.17
-0.48
-0.74
-0.85
-0.77
-0.51
-0.17
0.15
0.36
0.45
0.48
0.53
0.61
0.69
0.72
0.63
0.43
0.21
0.06
0.03
0.09
0.17
0.17
0.10
0.00
-0.04
0.00
0.05
0.02
-0.15
-0.40
-0.60
-0.62
-0.41
-0.05
0.29
0.46
0.41
0.21
-0.01
-0.14
-0.13
0.03
0.26
0.48
0.61
0.62
0.49
0.28
0.07
-0.04
-0.01
0.13
0.29
0.35
0.28
0.12
-0.06
-0.15
-0.16
-0.14
-0.15
-0.21
-0.29
-0.34
-0.35
-0.34
-0.39
-0.50
-0.66
-0.79
-0.84
-0.80
-0.68
-0.51
-0.29
-0.01
0.33
0.65
0.87
0.93
0.82
0.59
0.30
-0.03
-0.41
-0.79
-1.10
-1.22
-1.09
-0.72
-0.26
0.11
0.28
0.24
0.10
0.01
0.04
0.18
0.36
0.50
0.60
0.66
0.71
0.74
0.72
0.63
0.50
0.40
0.37
0.43
0.52
0.55
0.47
0.29
0.04
-0.19
-0.36
-0.44
-0.43
-0.34
-0.19
0.01
0.22
0.42
0.58
0.65
0.62
0.48
0.22
-0.09
-0.38
-0.59
-0.66
-0.63
-0.53
-0.43
-0.36
-0.29
-0.22
-0.13
-0.04
0.01
-0.00
-0.05
-0.08
-0.07
-0.02
0.01
-0.05
-0.22
-0.45
-0.66
-0.72
-0.57
-0.26
0.07
0.23
0.12
-0.29
-0.85
-1.36
-1.64
-1.59
-1.26
-0.77
-0.26
0.18
0.52
0.80
1.05
1.26
1.39
1.42
1.32
1.10
0.80
0.51
0.28
0.13
0.06
0.05
0.05
0.05
0.05
0.05
0.08
0.12
0.16
0.20
0.25
0.28
0.29
0.27
0.20
0.08
-0.07
-0.22
-0.35
-0.42
-0.42
-0.34
-0.19
-0.00
0.16
0.23
0.18
0.03
-0.17
-0.32
-0.36
-0.29
-0.15
-0.03
0.05
0.08
0.10
0.16
0.28
0.45
0.62
0.73
0.73
0.61
0.40
0.15
-0.11
-0.33
-0.54
-0.74
-0.93
-1.09
-1.13
-1.04
-0.81
-0.51
-0.24
-0.07
-0.02
-0.04
-0.07
-0.07
-0.03
0.05
0.15
0.27
0.39
0.47
0.46
0.35
0.18
0.02
-0.04
0.00
0.12
0.23
0.28
0.28
0.25
0.24
0.27
0.31
0.35
0.36
0.34
0.29
0.23
0.18
0.18
0.27
0.44
0.60
0.67
0.56
0.29
-0.02
-0.24
-0.29
-0.19
-0.06
-0.01
-0.09
-0.23
-0.33
-0.32
-0.23
-0.16
-0.22
-0.46
-0.81
-1.14
-1.30
-1.23
-0.98
-0.65
-0.37
-0.21
-0.17
-0.18
-0.14
-0.01
0.23
0.54
0.81
0.97
0.98
0.84
0.60
0.29
-0.02
-0.30
-0.50
-0.60
-0.59
-0.50
-0.35
-0.19
-0.03
0.13
0.27
0.36
0.38
0.31
0.20
0.11
0.12
0.22
0.39
0.51
0.51
0.36
0.09
-0.22
-0.48
-0.63
-0.64
-0.50
-0.24
0.08
0.37
0.57
0.62
0.52
0.34
0.16
0.03
-0.03
-0.04
-0.05
-0.09
-0.16
-0.24
-0.31
-0.35
-0.38
-0.42
-0.43
-0.41
-0.31
-0.15
-0.01
0.06
0.03
-0.06
-0.13
-0.14
-0.11
-0.14
-0.35
-0.76
-1.30
-1.84
-2.21
-2.37
-2.37
-2.35
-2.40
-2.55
-2.70
-2.75
-2.66
-2.46
-2.26
-2.23
-2.43
-2.87
-3.45
-4.05
-4.55
-4.94
-5.30
-5.72
-6.34
-7.27
-8.53
-10.11
-11.91
-13.72
-15.33
-16.55
-17.36
-17.95
-18.70
-20.03
-22.22
-25.20
-28.54
-31.63
-33.99
-35.47
-36.40
-37.43
-39.25
-42.31
-46.51
-51.33
-55.93
-59.49
-61.55
-62.42
-63.22
-65.39
-69.92
-76.22
-81.67
-82.07
-72.82
-50.34
-12.96
38.75
101.94
171.45
240.03
298.90
339.44
355.36
344.62
309.90
257.23
193.59
124.92
55.64
-10.49
-69.36
-116.47
-148.50
-165.03
-169.42
-167.66
-165.87
-167.78
-173.73
-181.61
-188.55
-192.97
-195.16
-196.77
-199.60
-204.72
-212.23
-221.60
-231.86
-241.61
-248.93
-251.24
-245.85
-230.84
-205.82
-172.15
-132.28
-88.64
-42.57
5.82
56.94
110.41
164.03
213.95
255.81
286.54
305.62
315.23
319.08
320.69
321.94
322.69
321.62
317.66
311.10
303.71
297.85
295.18
295.98
299.11
302.68
304.71
303.54
297.71
285.99
267.43
241.59
208.86
170.35
127.39
80.94
31.42
-20.75
-74.17
-125.79
-171.10
-205.51
-226.10
-232.86
-228.70
-218.11
-205.31
-192.90
-181.44
-170.30
-158.81
-147.10
-136.07
-126.78
-119.64
-114.10
-108.93
-102.87
-95.23
-86.15
-76.49
-67.38
-59.71
-53.83
-49.54
-46.18
-43.02
-39.54
-35.60
-31.44
-27.46
-24.02
-21.26
-19.05
-17.09
-15.06
-12.79
-10.34
-7.94
-5.90
-4.40
-3.43
-2.78
-2.19
-1.44
-0.50
0.52
1.37
1.88
1.97
1.73
1.37
1.12
1.11
1.38
1.85
2.39
2.87
3.21
3.33
3.23
2.92
2.40
1.71
0.86
-0.17
-1.46
-3.08
-5.02
-7.12
-9.06
-10.45
-10.98
-10.61
-9.53
-8.09
-6.62
-5.29
-4.12
-3.06
-2.11
-1.40
-1.11
-1.30
-1.90
-2.65
-3.24
-3.44
-3.20
-2.62
-1.91
-1.26
-0.80
-0.54
-0.43
-0.39
-0.30
-0.12
0.17
0.54
0.94
1.32
1.64
1.87
1.95
1.83
1.50
1.02
0.50
0.11
-0.07
-0.01
0.16
0.30
0.27
-0.00
-0.50
-1.12
-1.71
-2.06
-2.00
-1.49
-0.62
0.35
1.11
1.46
1.37
0.99
0.56
0.24
0.05
-0.11
-0.33
-0.60
-0.82
-0.85
-0.64
-0.24
0.22
0.62
0.88
1.03
1.09
1.10
1.09
1.07
1.02
0.99
0.98
1.02
1.12
1.23
1.33
1.37
1.34
1.22
1.03
0.80
0.58
0.40
0.26
0.17
0.09
0.03
-0.01
-0.02
0.05
0.20
0.37
0.51
0.53
0.43
0.26
0.12
0.11
0.26
0.50
0.67
0.63
0.31
-0.21
-0.74
-1.08
-1.11
-0.83
-0.34
0.20
0.63
0.90
0.94
0.78
0.45
0.03
-0.39
-0.70
-0.80
-0.65
-0.26
0.28
0.85
1.33
1.63
1.70
1.56
1.25
0.83
0.37
-0.03
-0.31
-0.46
-0.47
-0.39
-0.28
-0.21
-0.23
-0.34
-0.47
-0.55
-0.51
-0.32
-0.05
0.16
0.22
0.03
-0.36
-0.85
-1.27
-1.48
-1.43
-1.12
-0.67
-0.18
0.22
0.46
0.52
0.44
0.28
0.12
-0.01
-0.11
-0.21
-0.32
-0.45
-0.54
-0.56
-0.45
-0.24
0.02
0.27
0.46
0.57
0.60
0.59
0.54
0.48
0.42
0.36
0.30
0.25
0.22
0.24
0.32
0.46
0.64
0.79
0.83
0.70
0.41
0.01
-0.37
-0.62
-0.65
-0.49
-0.23
0.01
0.12
0.08
-0.09
-0.29
-0.42
-0.46
-0.39
-0.29
-0.20
-0.17
-0.20
-0.24
-0.24
-0.15
0.02
0.22
0.39
0.46
0.44
0.35
0.26
0.22
0.24
0.28
0.32
0.36
0.42
0.50
0.62
0.73
0.80
0.79
0.69
0.52
0.30
0.06
-0.17
-0.39
-0.57
-0.70
-0.77
-0.81
-0.82
-0.86
-0.93
-1.00
-1.04
-0.95
-0.70
-0.28
0.23
0.70
1.03
1.16
1.12
0.95
0.70
0.44
0.17
-0.07
-0.21
-0.20
-0.00
0.34
0.70
0.93
0.89
0.61
0.22
-0.12
-0.25
-0.18
-0.00
0.15
0.17
0.07
-0.10
-0.27
-0.38
