1660938932.00
64.000000
-0.00
-0.00
-0.00
-0.00
-0.00
-0.00
-0.00
-0.00
-0.00
-0.00
0.00
0.01
0.01
-0.00
-0.03
-0.05
-0.05
0.00
0.13
0.36
0.66
1.01
1.37
1.72
2.06
2.40
2.79
3.25
3.81
4.44
5.10
5.73
6.32
6.89
7.51
8.25
9.15
10.29
11.57
12.84
13.99
14.97
15.86
16.86
18.21
20.04
22.57
25.56
28.71
31.73
34.48
37.07
39.88
43.38
47.88
53.70
60.43
67.49
74.29
80.56
86.49
92.70
100.00
108.86
119.71
131.83
144.26
156.09
166.90
177.02
187.39
199.55
212.15
227.16
244.75
264.67
285.59
304.85
318.62
322.84
314.50
292.64
259.17
217.24
170.54
122.10
73.75
26.41
-19.35
-62.85
-103.38
-140.35
-174.26
-206.39
-238.50
-272.12
-307.74
-344.08
-377.91
-404.87
-420.64
-422.71
-411.41
-389.79
-362.37
-333.42
-305.60
-279.65
-255.15
-231.44
-208.62
-187.41
-168.59
-152.35
-138.03
-124.52
-110.79
-96.50
-81.96
-68.08
-55.79
-45.57
-37.33
-30.41
-24.00
-17.49
-10.72
-4.00
2.12
7.16
10.95
13.71
15.85
17.79
19.76
21.73
23.52
24.94
25.88
26.38
26.52
26.44
26.23
25.95
25.67
25.44
25.27
25.11
24.87
24.43
23.74
22.86
21.92
21.08
20.43
19.93
19.48
18.97
18.32
17.57
16.79
16.09
15.55
15.15
14.84
14.57
14.28
13.96
13.63
13.31
13.00
12.68
12.32
11.88
11.40
10.95
10.62
10.48
10.52
10.62
10.62
10.40
9.94
9.34
8.75
8.30
7.99
7.71
7.37
6.92
6.46
6.11
5.96
5.95
5.94
5.78
5.40
4.93
4.54
4.37
4.45
4.66
4.83
4.80
4.52
4.00
3.33
2.58
1.80
1.02
0.27
-0.44
-1.11
-1.72
-2.28
-2.79
-3.26
-3.75
-4.30
-4.97
-5.76
-6.61
-7.44
-8.19
-8.84
-9.39
-9.84
-10.17
-10.33
-10.30
-10.07
-9.72
-9.34
-9.02
-8.78
-8.58
-8.32
-7.93
-7.39
-6.70
-5.92
-5.08
-4.22
-3.40
-2.67
-2.10
-1.72
-1.53
-1.45
-1.36
-1.18
-0.86
-0.42
0.08
0.56
1.00
1.37
1.68
1.93
2.09
2.14
2.09
1.98
1.88
1.88
2.02
2.30
2.67
3.04
3.35
3.55
3.64
3.69
3.74
3.86
4.07
4.36
4.67
4.96
5.15
5.21
5.13
4.93
4.68
4.47
4.36
4.38
4.50
4.63
4.70
4.66
4.52
4.30
4.07
3.90
3.83
3.90
4.09
4.35
4.61
4.79
4.85
4.80
4.65
4.47
4.27
4.03
3.77
3.52
3.34
3.29
3.37
3.51
3.56
3.41
3.02
2.47
1.92
1.53
1.42
1.62
2.02
2.48
2.82
2.95
2.83
2.54
2.19
1.84
1.54
1.25
0.90
0.50
0.09
-0.23
-0.37
-0.28
0.01
0.43
0.87
1.26
1.52
1.62
1.57
1.39
1.19
1.07
1.12
1.35
1.70
2.03
2.17
2.01
1.57
0.96
0.36
-0.06
-0.17
0.00
0.36
0.75
1.05
1.20
1.21
1.13
1.02
0.93
0.88
0.86
0.86
0.85
0.84
0.86
0.92
0.98
0.99
0.89
0.64
0.30
-0.05
-0.26
-0.28
-0.13
0.11
0.31
0.42
0.43
0.41
0.43
0.51
0.65
0.80
0.94
1.06
1.17
1.28
1.37
1.45
1.52
1.58
1.63
1.66
1.65
1.55
1.35
1.09
0.85
0.72
0.75
0.93
1.18
1.42
1.58
1.63
1.60
1.52
1.41
1.26
1.09
0.90
0.70
0.52
0.41
0.37
0.39
0.43
0.42
0.32
0.13
-0.07
-0.20
-0.17
0.04
0.36
0.68
0.87
0.87
0.66
0.30
-0.13
-0.55
-0.85
-0.98
-0.91
-0.64
-0.23
0.23
0.64
0.93
1.04
0.98
0.79
0.57
0.45
0.49
0.70
0.99
1.22
1.27
1.11
0.81
0.53
0.37
0.37
0.48
0.58
0.62
0.57
0.52
0.53
0.66
0.85
1.04
1.13
1.09
0.92
0.65
0.33
0.00
-0.29
-0.51
-0.63
-0.66
-0.62
-0.56
-0.47
-0.36
-0.20
-0.01
0.17
0.26
0.24
0.13
-0.00
-0.05
0.05
0.27
0.52
0.68
0.69
0.53
0.27
-0.00
-0.23
-0.39
-0.48
-0.52
-0.51
-0.47
-0.41
-0.36
-0.35
-0.37
-0.44
-0.50
-0.54
-0.49
-0.33
-0.08
0.22
0.49
0.63
0.60
0.42
0.15
-0.13
-0.33
-0.43
-0.44
-0.39
-0.32
-0.23
-0.09
0.12
0.41
0.72
0.98
1.13
1.15
1.06
0.95
0.89
0.93
1.07
1.27
1.47
1.64
1.74
1.76
1.69
1.52
1.24
0.88
0.49
0.17
0.00
0.01
0.15
0.31
0.37
0.27
0.03
-0.25
-0.49
-0.62
-0.64
-0.60
-0.54
-0.49
-0.45
-0.42
-0.44
-0.53
-0.69
-0.90
-1.07
-1.13
-1.07
-0.89
-0.64
-0.34
0.01
0.40
0.79
1.09
1.19
1.05
0.74
0.40
0.21
0.25
0.51
0.83
1.05
1.07
0.93
0.73
0.59
0.58
0.68
0.80
0.84
0.74
0.53
0.27
0.07
-0.02
-0.00
0.06
0.10
0.12
0.15
0.23
0.35
0.43
0.33
0.02
-0.43
-0.84
-1.04
-0.94
-0.62
-0.25
0.00
0.11
0.14
0.19
0.32
0.47
0.53
0.45
0.25
0.03
-0.09
-0.04
0.14
0.36
0.50
0.51
0.35
0.09
-0.19
-0.40
-0.49
-0.41
-0.21
0.06
0.34
0.58
0.76
0.88
0.94
0.92
0.80
0.57
0.21
-0.27
-0.84
-1.47
-2.14
-2.86
-3.56
-4.13
-4.46
-4.40
-3.92
-3.12
-2.24
-1.58
-1.38
-1.75
-2.63
-3.82
-5.07
-6.19
-7.09
-7.78
-8.40
-9.06
-9.87
-10.88
-12.04
-13.28
-14.51
-15.72
-17.01
-18.62
-20.88
-24.03
-28.19
-33.23
-38.76
-44.29
-49.36
-53.84
-58.00
-62.47
-67.98
-75.02
-83.51
-92.77
-101.80
-109.72
-116.19
-121.62
-126.95
-133.33
-141.72
-152.70
-166.20
-181.27
-195.87
-206.92
-210.74
-204.15
-185.54
-155.56
-116.94
-73.31
-27.62
18.95
67.07
118.03
172.02
226.94
278.46
321.60
352.72
371.12
379.19
381.25
381.74
383.69
388.08
394.24
400.49
404.80
404.99
398.91
384.68
361.25
328.90
289.26
244.88
198.28
151.23
104.22
56.66
7.64
-43.08
-94.21
-142.80
-184.74
-216.13
-234.62
-240.33
-235.74
-224.66
-210.78
-196.64
-183.39
-171.26
-160.23
-150.47
-142.21
-135.37
-129.32
-123.02
-115.58
-106.68
-96.81
-86.98
-78.33
-71.52
-66.49
-62.52
-58.62
-54.00
-48.36
-42.02
-35.69
-30.12
-25.75
-22.61
-20.34
-18.45
-16.53
-14.38
-12.08
-9.83
-7.90
-6.46
-5.53
-5.01
-4.71
-4.35
-3.72
-2.73
-1.43
-0.04
1.20
2.06
2.45
2.45
2.19
1.85
1.52
1.18
0.81
0.38
-0.06
-0.43
-0.62
-0.60
-0.42
-0.21
-0.10
-0.13
-0.27
-0.44
-0.54
-0.51
-0.34
-0.09
0.17
0.35
0.40
0.28
0.02
-0.27
-0.47
-0.45
-0.19
0.29
0.91
1.60
2.30
2.88
3.20
3.04
2.27
0.89
-0.84
-2.54
-3.81
-4.41
-4.38
-3.93
-3.32
-2.75
-2.27
-1.88
-1.54
-1.24
-0.99
-0.75
-0.47
-0.06
0.48
1.11
1.73
2.23
2.55
2.65
2.53
2.18
1.60
0.83
-0.01
-0.75
-1.21
-1.28
-0.99
-0.47
0.11
0.58
0.83
0.81
0.47
-0.15
-0.97
-1.83
-2.50
-2.83
-2.77
-2.45
-2.07
-1.88
-1.99
-2.36
-2.84
-3.20
-3.27
-2.89
-2.03
-0.72
0.86
2.46
3.76
4.45
4.38
3.57
2.22
0.64
-0.88
-2.10
-2.94
-3.38
-3.49
-3.34
-3.02
-2.65
-2.36
-2.23
-2.30
-2.50
-2.73
-2.86
-2.78
-2.43
-1.80
-0.94
0.10
1.25
2.47
3.79
5.26
6.92
8.69
10.35
11.60
12.11
11.71
10.48
8.72
6.83
5.18
3.97
3.21
2.75
2.42
2.11
1.80
1.53
1.33
1.15
0.86
0.33
-0.50
-1.55
-2.60
-3.43
-3.90
-4.01
-3.91
-3.78
-3.74
-3.81
-3.93
-4.02
-4.09
-4.18
-4.37
-4.65
-4.96
-5.18
-5.23
-5.14
-4.95
-4.69
-4.29
-3.56
-2.35
-0.68
1.24
3.05
4.46
5.38
5.94
6.39
6.87
7.33
7.54
7.24
6.36
5.07
3.71
2.62
1.97
1.70
1.65
1.60
1.44
1.16
0.81
0.47
0.15
-0.15
-0.43
-0.66
-0.75
-0.62
-0.28
0.23
0.75
1.09
1.10
0.69
-0.09
-1.11
-2.15
-3.03
-3.59
-3.79
-3.69
-3.41
-3.08
-2.82
-2.67
-2.60
-2.55
-2.47
-2.32
-2.11
-1.85
-1.58
-1.31
-1.04
-0.79
-0.61
-0.55
-0.66
-0.91
-1.24
-1.57
-1.83
-1.99
-2.06
-2.10
-2.13
-2.16
-2.15
-2.05
-1.78
-1.29
-0.57
0.28
1.13
1.84
2.41
2.95
3.62
4.56
5.73
6.90
7.69
7.80
7.13
5.80
4.15
2.59
1.39
0.70
0.47
0.50
0.60
0.61
0.47
0.20
-0.11
-0.38
-0.55
-0.61
-0.61
-0.59
-0.55
-0.43
-0.16
0.32
0.93
1.52
1.84
1.71
1.10
0.15
-0.86
-1.68
-2.21
-2.51
-2.79
-3.23
-3.87
-4.58
-5.13
-5.31
-5.05
-4.48
-3.83
-3.37
-3.23
-3.41
-3.76
-4.11
-4.31
-4.34
-4.21
-4.03
-3.89
-3.88
-4.05
-4.43
-4.98
-5.56
-6.00
-6.16
-5.94
-5.39
-4.61
-3.76
-2.96
-2.24
-1.48
-0.49
0.98
3.08
5.78
8.80
11.63
13.71
14.61
14.22
12.77
10.69
8.45
6.37
4.55
3.00
1.68
0.60
-0.17
-0.61
-0.76
-0.73
-0.62
-0.50
-0.35
-0.13
0.22
0.70
1.27
1.82
2.21
2.27
1.84
0.84
-0.63
-2.30
-3.68
-4.32
-3.93
-2.58
-0.71
1.09
2.27
2.59
2.15
1.31
0.47
-0.08
-0.27
-0.20
-0.06
0.04
0.04
0.01
0.03
0.18
0.48
0.86
1.18
1.34
1.27
0.96
0.51
0.02
-0.43
-0.80
-1.10
-1.31
-1.42
-1.37
-1.14
-0.77
-0.37
-0.05
0.13
0.27
0.57
1.21
2.27
3.57
4.71
5.26
4.94
3.79
2.17
0.60
-0.54
-1.09
-1.19
-1.09
-1.01
-0.95
-0.81
-0.46
0.13
0.80
1.33
1.51
1.31
0.85
0.36
0.00
-0.18
-0.29
-0.49
-0.91
-1.57
-2.39
-3.28
-4.12
-4.83
-5.30
-5.44
-5.16
-4.43
-3.29
-1.88
-0.39
1.01
2.18
3.01
3.49
3.63
3.52
3.30
3.11
3.05
3.10
3.14
3.01
2.59
1.90
1.06
0.24
-0.43
-0.88
-1.11
-1.20
-1.21
-1.18
-1.14
-1.07
-0.95
-0.77
-0.45
0.04
0.69
1.44
2.16
2.76
3.24
3.69
4.19
4.75
5.23
5.41
5.12
4.37
3.33
2.28
1.43
0.80
0.21
-0.51
-1.48
-2.62
-3.75
-4.67
-5.31
-5.76
-6.17
-6.70
-7.40
-8.17
-8.85
-9.25
-9.28
-8.97
-8.42
-7.78
-7.13
-6.54
-6.05
-5.72
-5.58
-5.62
-5.71
-5.60
-5.02
-3.76
-1.82
0.59
3.11
5.38
7.13
8.26
8.79
8.84
8.52
7.93
7.19
6.41
5.70
5.14
4.75
4.47
4.16
3.69
2.97
2.03
0.97
-0.01
-0.77
-1.28
-1.55
-1.66
-1.67
-1.59
-1.39
-1.07
-0.67
-0.26
0.06
0.25
0.29
0.22
0.10
-0.01
0.01
0.32
1.02
2.14
3.49
4.73
5.48
5.46
4.65
3.30
1.78
0.44
-0.54
-1.13
-1.46
-1.64
-1.76
-1.83
-1.86
-1.85
-1.79
-1.72
-1.64
-1.55
-1.48
-1.41
-1.36
-1.29
-1.20
-1.06
-0.87
-0.62
-0.29
0.09
0.49
0.80
0.88
0.63
0.03
-0.78
-1.54
-2.03
-2.10
-1.76
-1.15
-0.50
0.01
0.30
0.37
0.24
-0.05
-0.46
-1.00
-1.64
-2.34
-3.05
-3.69
-4.22
-4.63
-4.95
-5.23
-5.54
-5.86
-6.17
-6.38
-6.43
-6.33
-6.17
-6.15
-6.44
-7.11
-8.04
-8.90
-9.25
-8.69
-7.01
-4.28
-0.83
2.88
6.41
9.43
11.75
13.31
14.15
14.40
14.26
13.93
13.53
13.06
12.41
11.40
9.95
8.12
6.14
4.24
2.60
1.27
0.19
-0.66
-1.27
-1.56
-1.50
-1.14
-0.66
-0.24
0.04
0.22
0.37
0.56
0.71
0.67
0.38
-0.11
-0.58
-0.80
-0.66
-0.23
0.29
0.75
1.13
1.57
2.21
3.06
3.89
4.39
4.26
3.42
2.05
0.51
-0.84
-1.76
-2.21
-2.31
-2.26
-2.26
-2.43
-2.78
-3.25
-3.73
-4.14
-4.45
-4.67
-4.84
-4.97
-5.00
-4.87
-4.53
-4.05
-3.57
-3.23
-3.12
-3.17
-3.24
-3.12
-2.67
-1.83
-0.62
0.85
2.43
3.92
5.10
5.77
5.86
5.43
4.71
4.00
3.54
3.46
3.73
4.16
4.50
4.57
4.29
3.70
2.96
2.25
1.76
1.54
1.58
1.76
1.94
2.04
1.99
1.79
1.43
0.94
0.36
-0.26
-0.90
-1.57
-2.35
-3.29
-4.38
-5.55
-6.65
-7.51
-8.07
-8.38
-8.57
-8.76
-9.02
-9.31
-9.56
-9.72
-9.78
-9.88
-10.10
-10.52
-11.07
-11.62
-11.96
-11.95
-11.50
-10.65
-9.48
-8.12
-6.68
-5.21
-3.69
-2.05
-0.14
2.19
4.97
8.14
11.43
14.50
17.02
18.83
19.94
20.50
20.65
20.47
19.88
18.78
17.06
14.72
11.88
8.77
5.71
2.98
0.81
-0.73
-1.71
-2.32
-2.78
-3.24
-3.74
-4.17
-4.41
-4.39
-4.15
-3.87
-3.76
-4.00
-4.63
-5.54
-6.55
-7.45
-8.09
-8.43
-8.45
-8.17
-7.58
-6.71
-5.61
-4.38
-3.09
-1.72
-0.08
2.02
4.72
7.84
10.97
13.46
14.77
14.66
13.28
11.13
8.82
6.88
5.56
4.85
4.55
4.40
4.18
3.77
3.16
2.44
1.72
1.09
0.60
0.18
-0.28
-0.88
-1.70
-2.71
-3.78
-4.79
-5.58
-6.06
-6.15
-5.78
-4.89
-3.50
-1.71
0.20
1.87
2.97
3.31
2.92
1.98
0.76
-0.54
-1.83
-3.12
-4.42
-5.65
-6.72
-7.50
-7.95
-8.16
-8.33
-8.65
-9.17
-9.80
-10.33
-10.51
-10.21
-9.41
-8.31
-7.14
-6.17
-5.62
-5.64
-6.15
-6.84
-7.05
-6.00
-3.08
1.76
7.81
13.77
18.22
20.19
19.55
16.96
13.53
10.34
8.07
6.93
6.84
7.52
8.69
10.00
11.05
11.43
10.83
9.20
6.75
3.89
1.11
-1.18
-2.72
-3.45
-3.49
-3.10
-2.58
-2.16
-1.97
-2.04
-2.32
-2.73
-3.21
-3.70
-4.09
-4.31
-4.29
-4.02
-3.55
-2.99
-2.50
-2.21
-2.22
-2.57
-3.20
-3.96
-4.68
-5.20
-5.47
-5.51
-5.46
-5.40
-5.42
-5.50
-5.62
-5.76
-5.93
-6.11
-6.26
-6.29
-6.10
-5.60
-4.80
-3.81
-2.82
-2.00
-1.46
-1.18
-1.02
-0.79
-0.34
0.35
1.17
1.97
2.64
3.21
3.79
4.55
5.54
6.68
7.75
8.51
8.79
8.55
7.85
6.85
5.69
4.48
3.32
2.26
1.35
0.64
0.13
-0.19
-0.41
-0.62
-0.91
-1.28
-1.69
-2.00
-2.09
-1.90
-1.47
-0.99
-0.68
-0.74
-1.21
-1.93
-2.60
-2.82
-2.28
-0.80
1.53
4.43
7.42
9.96
11.53
11.86
10.96
9.19
7.11
5.26
3.98
3.27
2.90
2.51
1.87
0.89
-0.32
-1.56
-2.69
-3.63
-4.36
-4.89
-5.21
-5.29
-5.11
-4.66
-4.00
-3.24
-2.47
-1.77
-1.18
-0.66
-0.18
0.26
0.60
0.73
0.52
-0.03
-0.83
-1.67
-2.31
-2.63
-2.64
-2.48
-2.34
-2.35
-2.51
-2.71
-2.85
-2.88
-2.85
-2.91
-3.18
-3.66
-4.24
-4.74
-4.97
-4.87
-4.51
-4.09
-3.82
-3.84
-4.20
-4.86
-5.71
-6.61
-7.43
-8.05
-8.35
-8.20
-7.49
-6.18
-4.32
-2.03
0.48
3.00
5.36
7.43
9.19
10.65
11.83
12.73
13.34
13.71
14.00
14.50
15.46
16.95
18.66
19.94
19.99
18.22
14.48
9.23
3.31
-2.31
-6.88
-10.03
-11.70
-12.01
-11.11
-9.13
-6.31
-3.04
0.13
2.59
3.86
3.84
2.78
1.19
-0.37
-1.49
-2.10
-2.37
-2.55
-2.87
-3.35
-3.87
-4.22
-4.27
-3.99
-3.53
-3.11
-2.89
-2.95
-3.19
-3.47
-3.63
-3.65
-3.61
-3.63
-3.79
-4.05
-4.28
-4.35
-4.22
-3.95
-3.65
-3.43
-3.29
-3.17
-2.94
-2.53
-1.90
-1.12
-0.30
0.44
1.00
1.33
1.48
1.56
1.71
2.01
2.49
3.05
3.55
3.83
3.80
3.46
2.88
2.17
1.45
0.77
0.16
-0.40
-0.97
-1.53
-2.07
-2.50
-2.74
-2.76
-2.58
-2.28
-1.93
-1.56
-1.13
-0.62
-0.04
0.52
0.92
1.03
0.83
0.39
-0.16
-0.70
-1.17
-1.54
-1.84
-2.06
-2.20
-2.26
-2.33
-2.52
-2.87
-3.29
-3.46
-3.00
-1.59
0.77
3.66
6.39
8.20
8.59
7.47
5.23
2.48
-0.18
-2.35
-3.95
-5.06
-5.83
-6.32
-6.48
-6.23
-5.55
-4.53
-3.39
-2.35
-1.54
-0.89
-0.19
0.82
2.29
4.12
6.05
7.74
8.93
9.64
10.00
10.22
10.41
10.47
10.20
9.46
8.28
6.84
5.43
4.21
3.17
2.20
1.14
-0.03
-1.23
-2.32
-3.22
-3.97
-4.66
-5.40
-6.18
-6.86
-7.27
-7.23
-6.76
-5.98
-5.16
-4.51
-4.17
-4.16
-4.41
-4.85
-5.48
-6.27
-7.17
-8.01
-8.57
-8.64
-8.12
-7.04
-5.49
-3.53
-1.14
1.71
4.96
8.36
11.52
13.98
15.39
15.60
14.66
12.79
10.25
7.37
4.49
1.95
0.08
-0.97
-1.22
-0.88
-0.28
0.31
0.68
0.78
0.66
0.41
0.15
-0.03
0.00
0.35
1.02
1.88
2.65
3.05
2.91
2.33
1.69
1.50
2.08
3.41
5.10
6.53
7.21
6.93
5.87
4.45
3.08
1.98
1.15
0.47
-0.20
-0.86
-1.42
-1.79
-1.98
-2.12
-2.42
-3.04
-3.98
-5.07
-6.03
-6.62
-6.72
-6.40
-5.86
-5.39
-5.16
-5.24
-5.57
-5.98
-6.28
-6.35
-6.14
-5.69
-5.05
-4.26
-3.28
-2.05
-0.55
1.15
2.84
4.25
5.12
5.40
5.19
4.78
4.43
4.29
4.32
4.30
4.03
3.35
2.33
1.16
0.07
-0.79
-1.41
-1.90
-2.39
-2.94
-3.48
-3.83
-3.84
-3.46
-2.80
-2.08
-1.47
-1.10
-0.94
-0.91
-0.91
-0.91
-0.90
-0.85
-0.69
-0.36
0.18
0.81
1.32
1.47
1.10
0.27
-0.81
-1.83
-2.55
-2.88
-2.88
-2.72
-2.57
-2.51
-2.59
-2.78
-3.08
-3.45
-3.87
-4.22
-4.39
-4.23
-3.69
-2.80
-1.72
-0.61
0.38
1.23
2.03
2.94
4.11
5.54
7.10
8.52
9.52
9.94
9.77
9.14
8.24
7.17
5.97
4.61
3.11
1.56
0.15
-0.98
-1.77
-2.28
-2.69
-3.17
-3.82
-4.66
-5.58
-6.44
-7.09
-7.42
-7.44
-7.29
-7.15
-7.21
-7.59
-8.26
-9.06
-9.77
-10.21
-10.33
-10.19
-9.98
-9.91
-10.13
-10.69
-11.53
-12.50
-13.32
-13.60
-12.84
-10.53
-6.40
-0.58
6.31
13.24
19.17
23.33
25.47
25.85
25.01
23.47
21.57
19.49
17.29
15.08
13.05
11.40
10.25
9.62
9.37
9.27
9.05
8.53
7.62
6.38
4.96
3.55
2.26
1.15
0.20
-0.56
-1.04
-1.14
-0.84
-0.33
0.01
-0.25
-1.41
-3.48
-6.17
-8.95
-11.31
-12.88
-13.50
-13.26
-12.36
-11.05
-9.54
-7.98
-6.51
-5.22
-4.21
-3.54
-3.24
-3.24
-3.41
-3.57
-3.60
-3.47
-3.31
-3.27
-3.49
-3.93
-4.45
-4.90
-5.19
-5.41
-5.72
-6.27
-7.09
-8.01
-8.76
-9.04
-8.61
-7.35
-5.30
-2.66
0.27
3.14
5.73
7.95
9.88
11.66
13.36
14.91
16.10
16.71
16.63
15.93
14.86
13.71
12.73
12.02
11.52
11.09
10.56
9.80
8.81
7.67
6.57
5.67
5.11
4.93
5.13
5.65
6.45
7.42
8.35
8.91
8.71
7.42
4.97
1.68
-1.87
-4.99
-7.24
-8.55
-9.21
-9.66
-10.26
-11.00
-11.68
-11.99
-11.79
-11.23
-10.61
-10.23
-10.21
-10.44
-10.67
-10.70
-10.46
-10.04
-9.61
-9.29
-9.10
-8.96
-8.72
-8.31
-7.76
-7.16
-6.68
-6.36
-6.18
-6.04
-5.84
-5.61
-5.41
-5.37
-5.49
-5.62
-5.46
-4.71
-3.16
-0.82
2.15
5.46
8.80
11.84
14.27
15.79
16.23
15.55
13.97
11.81
9.44
7.12
4.99
3.12
1.57
0.45
-0.14
-0.17
0.21
0.69
1.01
0.98
0.65
0.23
-0.09
-0.15
0.04
0.43
0.94
1.52
2.10
2.59
2.81
2.56
1.73
0.44
-0.98
-2.12
-2.62
-2.43
-1.78
-1.05
-0.57
-0.44
-0.49
-0.43
-0.03
0.72
1.58
2.25
2.53
2.41
2.12
1.89
1.85
1.95
1.98
1.73
1.13
0.27
-0.66
-1.44
-1.93
-2.13
-2.08
-1.88
-1.56
-1.16
-0.70
-0.27
0.04
0.14
0.04
-0.16
-0.26
-0.05
0.66
1.95
3.76
5.87
7.92
9.48
10.18
9.82
8.47
6.47
4.32
2.48
1.21
0.51
0.19
-0.02
-0.32
-0.78
-1.36
-1.96
-2.52
-3.05
-3.58
-4.17
-4.88
-5.69
-6.54
-7.34
-8.02
-8.52
-8.82
-8.93
-8.86
-8.61
-8.23
-7.75
-7.26
-6.80
-6.31
-5.61
-4.44
-2.55
0.15
3.51
7.14
10.52
13.19
14.81
15.29
14.75
13.46
11.72
9.86
8.14
6.72
5.65
4.83
4.13
3.40
2.55
1.54
0.38
-0.91
-2.29
-3.71
-5.03
-6.10
-6.78
-7.00
-6.83
-6.45
-6.04
-5.73
-5.54
-5.41
-5.21
-4.88
-4.37
-3.65
-2.75
-1.72
-0.70
0.14
0.62
0.66
0.30
-0.32
-0.99
-1.57
-1.99
-2.29
-2.55
-2.85
-3.24
-3.67
-4.13
-4.58
-5.01
-5.44
-5.86
-6.28
-6.69
-7.09
-7.44
-7.72
-7.82
-7.65
-7.17
-6.44
-5.61
-4.88
-4.37
-4.02
-3.62
-2.86
-1.55
0.32
2.53
4.69
6.46
7.62
8.19
8.31
8.13
7.76
7.21
6.46
5.53
4.53
3.62
2.90
2.36
1.87
1.23
0.32
-0.81
-2.02
-3.10
-3.91
-4.40
-4.58
-4.49
-4.13
-3.48
-2.54
-1.41
-0.26
0.71
1.44
2.01
2.65
3.63
5.12
7.07
9.23
11.23
12.70
13.33
13.03
11.84
9.97
7.72
5.43
3.38
1.75
0.58
-0.23
-0.85
-1.42
-2.04
-2.69
-3.30
-3.76
-3.98
-3.92
-3.60
-3.10
-2.53
-2.03
-1.66
-1.44
-1.26
-0.98
-0.42
0.56
2.02
3.95
6.16
8.30
9.89
10.44
9.69
7.70
4.96
2.15
-0.11
-1.49
-2.03
-2.07
-1.97
-1.94
-1.96
-1.94
-1.79
-1.56
-1.41
-1.48
-1.86
-2.50
-3.29
-4.16
-5.08
-6.05
-7.08
-8.09
-8.90
-9.29
-9.11
-8.33
-7.11
-5.73
-4.46
-3.52
-2.89
-2.37
-1.63
-0.30
1.80
4.59
7.69
10.56
12.67
13.70
13.63
12.74
11.45
10.14
9.03
8.16
7.43
6.76
6.09
5.43
4.80
4.24
3.69
3.09
2.37
1.49
0.48
-0.59
-1.59
-2.37
-2.85
-3.02
-2.95
-2.76
-2.53
-2.33
-2.12
-1.84
-1.44
-0.90
-0.31
0.22
0.54
0.52
0.13
-0.58
-1.52
-2.55
-3.54
-4.41
-5.11
-5.66
-6.06
-6.32
-6.40
-6.26
-5.89
-5.35
-4.72
-4.12
-3.62
-3.24
-2.92
-2.62
-2.27
-1.91
-1.59
-1.38
-1.33
-1.45
-1.67
-1.94
-2.19
-2.39
-2.52
-2.61
-2.70
-2.81
-2.94
-3.09
-3.22
-3.30
-3.33
-3.32
-3.30
-3.29
-3.34
-3.49
-3.78
-4.23
-4.82
-5.45
-5.94
-6.10
-5.75
-4.83
-3.37
-1.53
0.50
2.51
4.34
5.87
7.02
7.75
8.07
8.02
7.67
7.08
6.30
5.36
4.33
3.31
2.44
1.87
1.66
1.76
2.05
2.38
2.59
2.65
2.59
2.49
2.45
2.47
2.54
2.60
2.64
2.69
2.83
3.07
3.35
3.52
3.45
3.03
2.33
1.52
0.79
0.31
0.12
0.10
0.09
-0.11
-0.64
-1.52
-2.69
-3.97
-5.16
-6.08
-6.66
-6.91
-6.97
-6.97
-7.01
-7.14
-7.28
-7.33
-7.18
-6.69
-5.72
-4.10
-1.71
1.42
4.99
8.41
11.03
12.30
12.05
10.51
8.20
5.64
3.14
0.74
-1.65
-4.04
-6.29
-8.14
-9.38
-9.96
-10.05
-9.93
-9.86
-9.94
-10.17
-10.48
-10.75
-10.84
-10.56
-9.67
-7.92
-5.19
-1.58
2.54
6.63
10.10
12.46
13.36
12.67
10.40
6.76
2.12
-2.99
-8.00
-12.50
-16.32
-19.60
-22.63
-25.57
-28.34
-30.59
-31.91
-32.12
-31.38
-30.08
-28.70
-27.62
-27.03
-27.16
-28.47
-31.57
-36.73
-43.25
-49.20
-52.06
-49.97
-43.02
-33.61
-25.56
-22.30
-25.14
-32.66
-41.55
-48.54
-52.05
-52.83
-53.18
-55.56
-61.37
-70.78
-83.16
-97.62
-113.05
-127.51
-137.69
-139.15
-127.38
-99.85
-57.70
-6.25
46.23
91.11
122.14
137.26
138.55
130.75
119.05
107.26
97.18
88.92
81.80
75.16
68.66
62.21
55.74
49.12
42.33
35.58
29.24
23.61
18.63
13.80
8.30
1.42
-7.02
-16.56
-26.25
-35.08
-42.46
-48.40
-53.51
-58.77
-65.24
-73.88
-85.10
-98.25
-111.11
-120.06
-121.12
-111.60
-91.70
-64.91
-36.71
-12.21
6.10
19.11
30.04
42.17
56.80
72.72
87.20
97.83
103.92
106.61
107.97
109.70
112.38
115.55
118.34
120.21
121.33
122.35
123.99
126.56
129.89
133.45
136.75
139.55
142.01
144.53
147.53
151.28
155.81
160.96
166.51
172.26
178.07
183.92
189.90
196.15
202.75
209.33
214.74
216.97
213.48
201.99
181.27
151.67
114.87
72.98
27.73
-19.82
-68.69
-117.01
-161.43
-197.64
-221.80
-232.21
-230.14
-219.35
-204.50
-189.36
-175.83
-164.03
-153.22
-142.81
-132.87
-123.91
-116.30
-109.83
-103.70
-96.93
-88.91
-79.70
-70.12
-61.39
-54.57
-50.16
-47.84
-46.61
-45.28
-42.94
-39.30
-34.75
-30.03
-25.82
-22.43
-19.75
-17.40
-15.02
-12.51
-9.98
-7.74
-6.00
-4.82
-4.05
-3.43
-2.72
-1.76
-0.59
0.67
1.82
2.72
3.36
3.88
4.46
5.23
6.16
7.02
7.53
7.53
7.08
6.48
6.17
6.46
7.38
8.65
9.84
10.59
10.79
10.63
10.47
10.68
11.46
12.85
14.79
17.08
19.27
20.54
19.73
15.77
8.20
-2.34
-14.10
-24.80
-32.42
-36.03
-36.05
-33.82
-30.94
-28.59
-27.20
-26.59
-26.34
-26.06
-25.58
-24.91
-24.14
-23.47
-23.15
-23.42
-24.37
-25.86
-27.47
-28.60
-28.70
-27.54
-25.37
-22.82
-20.66
-19.44
-19.29
-19.94
-20.97
-22.05
-23.01
-23.73
-23.99
-23.41
-21.72
-19.13
-16.40
-14.32
-12.87
-10.65
-5.12
6.13
23.96
46.73
70.80
92.02
107.43
116.26
119.66
119.47
117.18
113.43
108.49
102.99
98.40
96.65
99.19
105.86
114.25
119.91
117.67
103.53
76.55
39.78
-0.55
-37.10
-64.10
-79.27
-84.09
-82.36
-78.06
-73.64
-69.56
-65.16
-59.92
-54.26
-49.39
-46.53
-46.04
-47.11
-48.16
-47.69
-44.96
-40.35
-35.10
-30.62
-27.84
-26.83
-26.86
-26.82
-25.78
-23.43
-20.14
-16.73
-14.00
-12.43
-11.94
-12.03
-12.04
-11.48
-10.18
-8.33
-6.35
-4.63
-3.44
-2.78
-2.50
-2.33
-2.08
-1.66
-1.12
-0.60
-0.25
-0.16
-0.30
-0.56
-0.79
-0.87
-0.74
-0.45
-0.15
0.03
-0.01
-0.26
-0.61
-0.93
-1.08
-1.02
-0.82
-0.57
-0.37
-0.27
-0.22
-0.18
-0.07
0.11
0.31
0.50
0.64
0.73
0.78
0.82
0.84
0.81
0.69
0.48
0.19
-0.14
-0.41
-0.56
-0.55
-0.40
-0.16
0.11
0.33
0.44
0.47
0.46
0.50
0.63
0.85
1.10
1.32
1.45
1.49
1.49
1.48
1.47
1.48
1.49
1.51
1.52
1.54
1.56
1.57
1.59
1.64
1.76
1.95
2.16
2.34
2.41
2.29
1.97
1.45
0.75
-0.04
-0.86
-1.60
-2.18
-2.55
-2.68
-2.65
-2.50
-2.33
