1660932970.00
64.000000
-0.00
-0.00
-0.00
-0.00
-0.00
-0.00
-0.00
-0.00
-0.00
-0.00
0.00
0.01
0.01
-0.00
-0.03
-0.05
-0.05
0.00
0.13
0.36
0.66
1.01
1.37
1.72
2.06
2.40
2.79
3.25
3.81
4.44
5.09
5.73
6.32
6.90
7.52
8.26
9.15
10.27
11.51
12.74
13.85
14.81
15.70
16.71
18.06
19.90
22.40
25.35
28.46
31.45
34.17
36.77
39.60
43.11
47.59
53.36
59.99
66.94
73.66
79.89
85.84
92.11
99.42
108.24
118.93
130.79
142.94
154.53
165.23
175.36
185.84
198.06
210.57
225.27
242.35
261.68
282.12
301.11
314.89
319.28
311.07
289.10
255.16
212.44
164.82
115.59
66.78
19.34
-26.24
-69.50
-109.96
-147.19
-181.81
-215.13
-248.83
-284.11
-320.79
-356.78
-388.23
-410.74
-420.67
-416.75
-400.58
-376.00
-347.59
-319.02
-292.15
-267.13
-243.34
-220.27
-198.18
-177.81
-159.77
-144.05
-129.94
-116.44
-102.76
-88.72
-74.77
-61.78
-50.52
-41.33
-33.96
-27.70
-21.73
-15.50
-8.92
-2.38
3.57
8.40
11.95
14.39
16.15
17.71
19.39
21.27
23.18
24.79
25.83
26.19
25.97
25.48
25.06
24.92
25.03
25.21
25.21
24.88
24.26
23.49
22.73
22.08
21.50
20.92
20.26
19.52
18.78
18.11
17.52
16.99
16.46
15.91
15.36
14.87
14.50
14.26
14.07
13.87
13.56
13.14
12.66
12.19
11.80
11.49
11.22
10.96
10.66
10.31
9.92
9.52
9.14
8.80
8.52
8.31
8.17
8.10
8.07
8.02
7.92
7.74
7.49
7.21
6.97
6.79
6.67
6.58
6.45
6.25
5.95
5.63
5.34
5.10
4.92
4.74
4.49
4.14
3.69
3.19
2.73
2.36
2.06
1.78
1.43
0.92
0.25
-0.55
-1.39
-2.18
-2.84
-3.35
-3.71
-3.97
-4.21
-4.54
-5.06
-5.82
-6.78
-7.82
-8.75
-9.42
-9.74
-9.74
-9.55
-9.31
-9.07
-8.83
-8.54
-8.15
-7.65
-7.10
-6.54
-6.00
-5.45
-4.81
-4.06
-3.23
-2.41
-1.72
-1.23
-0.94
-0.79
-0.66
-0.49
-0.21
0.16
0.59
1.02
1.37
1.61
1.68
1.60
1.43
1.27
1.20
1.26
1.41
1.58
1.68
1.70
1.65
1.59
1.54
1.50
1.44
1.39
1.40
1.53
1.81
2.23
2.67
3.03
3.24
3.32
3.35
3.40
3.53
3.71
3.90
4.04
4.10
4.09
4.05
4.02
4.00
4.02
4.05
4.11
4.19
4.28
4.35
4.37
4.30
4.14
3.93
3.74
3.62
3.61
3.66
3.71
3.70
3.61
3.43
3.18
2.89
2.55
2.17
1.77
1.41
1.15
1.06
1.15
1.37
1.63
1.82
1.87
1.76
1.56
1.33
1.17
1.10
1.11
1.14
1.14
1.08
0.96
0.83
0.72
0.68
0.72
0.83
0.98
1.17
1.39
1.61
1.78
1.84
1.74
1.49
1.14
0.79
0.55
0.48
0.57
0.74
0.90
0.99
0.99
0.94
0.88
0.83
0.81
0.82
0.86
0.96
1.14
1.37
1.63
1.83
1.92
1.86
1.64
1.31
0.94
0.62
0.41
0.36
0.45
0.65
0.88
1.07
1.16
1.13
1.03
0.92
0.88
0.95
1.11
1.33
1.54
1.66
1.64
1.49
1.24
0.95
0.69
0.50
0.42
0.45
0.58
0.75
0.89
0.93
0.85
0.68
0.51
0.42
0.49
0.68
0.90
1.02
0.96
0.73
0.41
0.15
0.03
0.06
0.14
0.19
0.12
-0.06
-0.23
-0.27
-0.07
0.36
0.90
1.38
1.63
1.55
1.18
0.65
0.15
-0.21
-0.37
-0.34
-0.21
-0.04
0.12
0.27
0.42
0.60
0.83
1.11
1.37
1.55
1.56
1.32
0.88
0.32
-0.19
-0.50
-0.55
-0.37
-0.08
0.21
0.43
0.59
0.72
0.88
1.07
1.25
1.37
1.38
1.27
1.04
0.74
0.44
0.19
0.02
-0.05
-0.04
0.02
0.12
0.25
0.38
0.49
0.53
0.48
0.32
0.12
-0.08
-0.23
-0.32
-0.38
-0.41
-0.42
-0.37
-0.25
-0.11
0.02
0.08
0.09
0.08
0.10
0.15
0.20
0.20
0.13
0.00
-0.11
-0.17
-0.18
-0.16
-0.16
-0.18
-0.19
-0.14
0.01
0.26
0.58
0.90
1.15
1.30
1.33
1.25
1.12
0.95
0.78
0.60
0.41
0.24
0.11
0.06
0.08
0.12
0.11
0.01
-0.20
-0.51
-0.86
-1.19
-1.47
-1.69
-1.81
-1.86
-1.87
-1.90
-2.05
-2.36
-2.84
-3.39
-3.90
-4.28
-4.47
-4.56
-4.67
-4.93
-5.43
-6.17
-7.08
-8.11
-9.25
-10.59
-12.32
-14.58
-17.35
-20.39
-23.29
-25.63
-27.21
-28.18
-29.06
-30.47
-32.90
-36.49
-40.97
-45.79
-50.38
-54.40
-57.88
-61.23
-65.03
-69.85
-75.95
-83.23
-91.23
-99.33
-106.99
-114.05
-120.77
-127.72
-135.57
-144.89
-155.94
-168.53
-181.72
-193.62
-201.46
-202.03
-192.64
-172.06
-141.08
-102.21
-58.58
-12.63
34.78
84.06
135.69
188.79
240.41
286.18
321.92
345.45
357.46
361.07
360.44
359.01
358.60
359.41
360.88
362.42
363.63
363.86
361.61
354.44
339.62
315.24
281.12
238.89
191.26
140.72
88.68
35.50
-18.50
-71.82
-121.25
-162.49
-191.69
-207.16
-210.11
-204.09
-193.51
-181.98
-171.36
-161.90
-153.12
-144.66
-136.74
-129.82
-124.14
-119.33
-114.50
-108.74
-101.58
-93.24
-84.50
-76.32
-69.39
-63.88
-59.38
-55.19
-50.59
-45.20
-39.10
-32.78
-26.88
-21.91
-18.00
-14.92
-12.18
-9.34
-6.17
-2.76
0.54
3.35
5.42
6.71
7.39
7.69
7.84
7.91
7.86
7.56
6.85
5.67
4.08
2.23
0.36
-1.31
-2.66
-3.66
-4.35
-4.80
-5.05
-5.17
-5.22
-5.27
-5.38
-5.58
-5.83
-6.06
-6.17
-6.12
-5.95
-5.71
-5.48
-5.30
-5.13
-4.95
-4.69
-4.35
-3.95
-3.53
-3.15
-2.83
-2.59
-2.39
-2.18
-1.91
-1.58
-1.24
-0.96
-0.79
-0.72
-0.64
-0.42
0.04
0.72
1.51
2.24
2.77
3.08
3.24
3.34
3.47
3.63
3.74
3.74
3.56
3.23
2.84
2.45
2.13
1.90
1.76
1.71
1.70
1.68
1.56
1.28
0.84
0.30
-0.24
-0.72
-1.12
-1.48
-1.81
-2.08
-2.25
-2.24
-2.08
-1.83
-1.61
-1.46
-1.35
-1.20
-0.92
-0.51
-0.04
0.37
0.58
0.54
0.31
-0.02
-0.32
-0.48
-0.50
-0.43
-0.37
-0.42
-0.60
-0.83
-0.95
-0.77
-0.16
0.87
2.20
3.59
4.70
5.26
5.09
4.23
2.90
1.46
0.29
-0.36
-0.44
-0.10
0.40
0.79
0.90
0.68
0.20
-0.40
-0.97
-1.40
-1.69
-1.87
-2.02
-2.20
-2.40
-2.56
-2.61
-2.48
-2.18
-1.76
-1.31
-0.92
-0.62
-0.39
-0.22
-0.10
-0.05
-0.06
-0.14
-0.23
-0.29
-0.27
-0.13
0.10
0.38
0.67
0.91
1.08
1.17
1.17
1.08
0.92
0.71
0.50
0.32
0.15
-0.04
-0.31
-0.69
-1.18
-1.71
-2.18
-2.48
-2.54
-2.36
-2.00
-1.54
-1.10
-0.74
-0.50
-0.40
-0.40
-0.45
-0.49
-0.40
-0.09
0.56
1.56
2.84
4.19
5.32
6.00
6.09
5.65
4.85
3.88
2.91
2.04
1.26
0.57
-0.05
-0.55
-0.84
-0.87
-0.67
-0.38
-0.20
-0.30
-0.74
-1.43
-2.14
-2.62
-2.71
-2.46
-2.09
-1.85
-1.89
-2.16
-2.47
-2.67
-2.72
-2.76
-2.92
-3.23
-3.53
-3.55
-3.11
-2.21
-1.07
-0.03
0.69
1.03
1.14
1.21
1.38
1.63
1.83
1.87
1.70
1.39
1.07
0.87
0.83
0.88
0.91
0.81
0.51
0.06
-0.44
-0.85
-1.11
-1.18
-1.10
-0.95
-0.77
-0.60
-0.42
-0.23
-0.01
0.26
0.68
1.33
2.24
3.32
4.34
5.00
5.11
4.65
3.81
2.91
2.20
1.73
1.39
0.97
0.37
-0.30
-0.86
-1.10
-0.96
-0.58
-0.16
0.09
0.08
-0.20
-0.68
-1.25
-1.78
-2.15
-2.26
-2.09
-1.69
-1.23
-0.89
-0.78
-0.91
-1.15
-1.35
-1.39
-1.27
-1.09
-0.98
-1.06
-1.32
-1.71
-2.07
-2.27
-2.21
-1.88
-1.32
-0.62
0.15
0.89
1.55
2.07
2.39
2.49
2.36
2.05
1.65
1.25
0.91
0.66
0.48
0.35
0.21
0.04
-0.20
-0.54
-0.94
-1.30
-1.46
-1.31
-0.80
-0.04
0.75
1.41
1.84
2.10
2.28
2.46
2.61
2.62
2.40
1.96
1.41
0.91
0.59
0.45
0.40
0.31
0.12
-0.15
-0.40
-0.55
-0.57
-0.48
-0.38
-0.37
-0.50
-0.80
-1.22
-1.71
-2.17
-2.53
-2.77
-2.87
-2.86
-2.70
-2.40
-1.96
-1.43
-0.94
-0.62
-0.50
-0.57
-0.70
-0.76
-0.72
-0.61
-0.51
-0.47
-0.48
-0.46
-0.34
-0.13
0.10
0.22
0.18
0.01
-0.17
-0.21
-0.05
0.28
0.66
0.95
1.04
0.93
0.67
0.40
0.19
0.10
0.07
0.05
-0.06
-0.31
-0.75
-1.36
-2.09
-2.82
-3.43
-3.87
-4.18
-4.54
-5.17
-6.24
-7.79
-9.65
-11.53
-13.18
-14.46
-15.45
-16.41
-17.65
-19.39
-21.67
-24.36
-27.20
-29.96
-32.50
-34.86
-37.17
-39.62
-42.42
-45.74
-49.64
-54.10
-59.02
-64.23
-69.66
-75.31
-81.34
-87.94
-95.26
-103.20
-111.53
-119.91
-127.97
-135.38
-141.79
-146.85
-150.21
-151.83
-152.21
-152.47
-153.91
-157.15
-161.36
-163.98
-161.42
-150.29
-128.64
-96.51
-55.57
-8.30
42.51
93.84
142.14
183.30
213.40
229.93
232.94
225.21
211.25
195.61
181.31
169.41
159.49
150.58
142.05
133.83
126.18
119.30
113.12
107.37
101.79
96.28
90.94
86.09
82.02
78.90
76.59
74.64
72.40
69.29
65.11
60.28
55.80
52.83
52.22
53.98
57.20
60.32
61.96
61.52
59.64
57.96
58.39
62.19
69.30
78.24
86.74
92.68
95.13
94.77
93.81
95.16
101.41
113.69
130.85
149.35
163.88
168.69
159.21
133.50
93.10
43.08
-8.99
-55.05
-88.97
-108.83
-117.74
-122.80
-132.20
-151.71
-182.30
-220.10
-258.62
-291.80
-316.04
-330.30
-334.47
-327.61
-307.62
-272.46
-222.04
-159.20
-89.21
-18.20
48.69
108.10
158.31
198.77
229.74
252.36
268.62
280.65
289.64
294.88
293.81
283.47
262.34
231.68
195.11
156.83
119.61
83.83
48.18
11.56
-25.33
-59.62
-87.46
-106.02
-114.97
-116.48
-113.97
-110.35
-106.94
-103.42
-98.77
-92.29
-84.25
-75.74
-68.22
-62.90
-60.29
-60.00
-60.95
-61.79
-61.54
-59.83
-57.17
-54.50
-52.69
-52.04
-52.19
-52.41
-52.14
-51.35
-50.49
-50.07
-50.26
-50.65
-50.56
-49.53
-47.72
-45.92
-45.10
-45.95
-48.49
-52.06
-55.72
-58.75
-61.00
-62.89
-65.25
-68.79
-73.77
-79.88
-86.36
-92.30
-96.83
-99.16
-98.67
-95.04
-88.59
-80.50
-72.62
-66.67
-63.24
-61.10
-57.51
-49.55
-35.74
-17.08
3.26
21.35
34.44
42.18
46.63
51.10
58.49
70.10
85.35
102.37
118.89
133.23
144.66
153.31
159.84
165.04
169.57
173.88
178.18
182.53
186.82
190.70
193.63
194.95
194.14
191.13
186.47
181.16
176.11
171.39
165.64
155.98
138.64
110.37
70.06
19.83
-34.98
-87.13
-129.71
-158.22
-171.75
-172.69
-165.33
-154.08
-142.11
-130.99
-121.12
-112.52
-105.36
-99.97
-96.47
-94.34
-92.54
-89.91
-85.83
-80.51
-74.87
-70.12
-67.06
-65.75
-65.45
-65.07
-63.64
-60.71
-56.55
-51.95
-47.96
-45.44
-44.75
-45.71
-47.66
-49.78
-51.45
-52.54
-53.47
-55.07
-58.14
-63.06
-69.51
-76.50
-82.68
-86.95
-89.03
-89.57
-89.97
-91.73
-95.61
-101.22
-107.15
-111.55
-112.92
-110.50
-104.09
-94.01
-80.99
-66.37
-52.16
-40.35
-31.82
-25.18
-16.73
-1.74
23.23
58.32
99.82
141.51
177.19
203.02
218.39
225.05
225.48
221.53
214.09
203.76
191.83
180.79
173.53
171.98
175.63
180.86
181.90
172.64
148.61
108.08
52.36
-14.71
-87.16
-157.33
-216.56
-256.53
-271.24
-258.73
-221.60
-165.89
-99.01
-27.75
42.55
107.65
163.70
207.19
236.01
250.60
254.51
253.41
253.01
256.68
264.18
272.09
275.18
268.78
250.42
220.41
181.14
135.64
86.28
34.45
-18.69
-71.01
-118.70
-156.99
-181.79
-191.61
-188.35
-176.54
-161.39
-146.74
-134.12
-123.15
-112.80
-102.68
-93.50
-86.52
-82.67
-81.83
-82.79
-83.89
-83.68
-81.54
-77.76
-73.16
-68.67
-64.85
-61.75
-58.99
-56.00
-52.28
-47.60
-42.16
-36.45
-31.16
-26.87
-23.86
-22.01
-20.94
-20.19
-19.61
-19.31
-19.48
-20.06
-20.56
-20.07
-17.83
-13.64
-8.02
-1.96
3.72
8.71
13.22
17.46
21.21
23.69
24.05
21.97
18.13
13.96
10.98
10.02
10.90
12.65
14.09
14.51
13.85
12.62
11.47
10.87
10.91
11.38
11.82
11.71
10.76
8.92
6.52
4.09
2.26
1.49
1.91
3.29
5.12
6.80
7.92
8.44
8.78
9.57
11.40
14.42
18.06
21.20
22.57
21.43
17.99
13.54
9.94
8.61
9.92
12.86
15.57
16.33
14.34
9.97
4.08
-2.58
-9.26
-14.56
-16.05
-11.00
1.80
20.18
38.28
48.66
45.85
29.43
4.61
-20.31
-37.99
-45.38
-44.26
-39.20
-34.31
-31.15
-28.76
-25.31
-20.02
-13.81
-8.61
-6.12
-6.74
-9.38
-12.10
-13.18
-11.95
-9.02
-5.85
-4.06
-4.64
-7.55
-11.78
-15.87
-18.51
-19.10
-17.85
-15.63
-13.48
-12.15
-11.89
-12.38
-13.04
-13.37
-13.12
-12.39
-11.44
-10.59
-10.07
-9.95
-10.21
-10.75
-11.45
-12.13
-12.52
-12.24
-10.80
-7.78
-2.97
3.39
10.50
17.11
21.87
23.70
22.22
17.91
11.90
5.54
-0.14
-4.71
-8.38
-11.66
-15.02
-18.62
-22.27
-25.58
-28.18
-29.90
-30.80
-31.07
-30.94
-30.56
-29.96
-29.12
-28.02
-26.62
-24.82
-22.42
-19.07
-14.42
-8.27
-0.78
7.46
15.57
22.69
28.28
32.29
35.11
37.30
39.29
41.27
43.19
44.97
46.52
47.82
48.74
49.01
48.21
45.92
41.99
36.59
30.29
23.78
17.66
12.22
7.50
3.39
-0.15
-3.03
-5.03
-6.01
-5.96
-5.08
-3.68
-2.13
-0.77
0.00
-0.19
-1.73
-4.82
-9.33
-14.71
-20.15
-24.76
-27.85
-29.01
-28.13
-25.33
-20.86
-15.11
-8.58
-1.86
4.48
9.99
14.31
17.15
18.26
17.44
14.75
10.57
5.65
0.94
-2.76
-5.09
-6.19
-6.56
-6.79
-7.20
-7.82
-8.43
-8.78
-8.82
-8.66
-8.58
-8.80
-9.35
-10.04
-10.55
-10.60
-10.10
-9.26
-8.47
-8.10
-8.31
-8.94
-9.52
