1659459420.00
64.000000
-0.00
-0.00
-0.00
-0.00
-0.00
-0.00
-0.00
-0.00
-0.00
-0.00
0.00
0.01
0.01
-0.00
-0.03
-0.05
-0.05
0.00
0.13
0.36
0.66
1.01
1.37
1.72
2.06
2.40
2.79
3.24
3.80
4.42
5.06
5.66
6.20
6.68
7.15
7.68
8.31
9.14
10.09
11.04
11.88
12.56
13.14
13.76
14.65
15.96
17.91
20.32
22.90
25.38
27.58
29.57
31.68
34.32
37.81
42.54
48.15
54.10
59.83
64.97
69.58
74.14
79.34
85.71
93.76
103.00
112.62
121.73
129.77
136.75
143.31
150.75
157.77
166.64
177.95
191.80
207.00
220.61
228.28
225.35
208.43
176.65
132.42
79.62
22.58
-35.44
-92.92
-149.64
-205.74
-260.96
-314.44
-364.68
-410.71
-451.80
-487.36
-516.55
-538.04
-550.13
-551.09
-539.78
-515.91
-480.57
-435.83
-384.32
-328.79
-271.64
-214.72
-159.32
-106.39
-56.59
-10.68
30.60
66.55
96.68
120.80
139.14
152.33
161.25
166.91
170.13
171.46
171.06
168.83
164.58
158.22
150.03
140.63
130.88
121.50
112.92
105.15
97.81
90.43
82.56
73.90
64.18
53.35
41.81
30.85
22.63
19.54
23.09
32.89
46.52
60.30
70.90
76.49
77.20
74.52
70.12
65.05
59.39
52.88
45.59
38.16
31.58
26.66
23.59
21.95
20.98
19.94
18.47
16.61
14.74
13.38
12.85
13.19
14.01
14.68
14.55
13.37
11.45
9.46
8.06
7.38
7.04
6.40
5.10
3.38
1.86
1.10
1.12
1.44
1.46
0.94
0.29
0.12
0.70
1.50
1.45
-0.33
-3.85
-8.00
-11.13
-12.01
-10.51
-7.69
-5.15
-4.19
-5.23
-7.81
-10.98
-13.76
-15.50
-15.87
-14.78
-12.26
-8.58
-4.36
-0.57
1.82
2.30
1.23
-0.26
-0.86
0.10
2.22
4.19
4.53
2.56
-1.06
-4.50
-5.62
-3.00
3.30
11.72
19.86
25.42
27.12
25.07
20.68
16.10
13.47
14.16
18.28
24.67
31.31
36.14
37.57
35.19
29.60
21.88
12.99
3.50
-6.15
-15.34
-23.16
-28.92
-32.65
-35.53
-39.23
-44.68
-50.93
-55.08
-53.74
-45.16
-30.83
-15.13
-3.23
1.74
0.30
-3.87
-6.26
-4.28
1.48
8.02
12.30
13.17
12.10
11.85
14.30
18.97
23.05
23.19
17.63
7.49
-3.75
-12.16
-15.54
-14.52
-11.96
-11.18
-14.12
-20.33
-27.34
-32.17
-32.79
-29.15
-22.96
-16.71
-12.44
-10.86
-11.25
-12.07
-11.91
-10.22
-7.48
-4.76
-3.04
-2.65
-3.14
-3.86
-4.19
-3.85
-2.95
-1.76
-0.46
0.98
2.60
4.40
6.23
7.87
9.17
10.08
10.63
10.82
10.59
9.85
8.70
7.46
6.60
6.45
6.93
7.44
7.09
5.21
1.73
-2.52
-6.16
-7.74
-6.40
-2.22
3.79
10.16
15.48
18.93
20.60
21.32
22.31
24.56
28.30
32.85
36.94
39.31
39.48
37.92
35.83
34.32
33.75
33.51
32.45
29.63
25.06
19.66
14.79
11.46
9.76
9.02
8.23
6.74
4.47
1.85
-0.62
-2.71
-4.54
-6.42
-8.54
-10.91
-13.38
-15.78
-17.99
-19.88
-21.30
-22.09
-22.16
-21.64
-20.79
-19.89
-19.05
-18.15
-16.95
-15.25
-13.09
-10.71
-8.47
-6.73
-5.70
-5.40
-5.65
-6.16
-6.55
-6.54
-6.00
-5.08
-4.09
-3.34
-2.95
-2.82
-2.67
-2.26
-1.59
-0.89
-0.58
-1.03
-2.43
-4.66
-7.30
-9.77
-11.48
-12.05
-11.31
-9.43
-6.81
-4.03
-1.74
-0.47
-0.52
-1.73
-3.45
-4.69
-4.43
-2.17
1.82
6.51
10.55
12.90
13.19
11.93
10.12
8.81
8.58
9.38
10.78
12.25
13.46
14.30
14.73
14.57
13.44
10.62
5.44
-2.20
-11.45
-20.90
-29.18
-35.72
-41.04
-46.33
-52.99
-61.61
-71.21
-79.28
-82.91
-80.12
-70.73
-56.23
-38.93
-21.67
-6.81
4.64
13.08
19.76
26.16
33.99
45.21
61.67
83.25
106.87
127.14
138.05
134.84
115.71
82.68
39.89
-3.22
-36.38
-54.72
-60.68
-59.94
-56.74
-52.34
-46.14
-37.45
-26.66
-15.84
-7.83
-4.38
-5.07
-7.70
-9.72
-9.28
-5.69
0.28
6.29
9.31
7.33
0.61
-8.84
-18.41
-26.58
-32.02
-35.22
-38.26
-43.87
-53.79
-67.22
-82.26
-97.14
-111.19
-124.26
-135.74
-144.06
-147.55
-145.30
-137.96
-129.09
-123.50
-123.88
-128.33
-130.72
-124.31
-106.09
-77.65
-43.10
-7.34
25.22
51.81
72.62
89.75
104.56
116.24
115.68
98.27
65.67
25.07
-15.19
-49.81
-76.96
-94.30
-105.98
-114.85
-120.60
-121.85
-117.16
-105.34
-89.68
-72.19
-54.67
-38.93
-25.24
-12.16
1.75
17.14
33.66
50.19
66.09
80.85
94.03
106.45
120.26
137.77
160.46
188.13
218.49
247.94
271.96
286.36
289.24
281.38
265.49
244.96
222.83
201.17
181.48
164.50
150.21
138.14
127.20
115.91
103.00
88.04
71.74
55.69
41.44
29.82
21.13
15.20
11.72
10.17
9.41
7.54
2.29
-8.05
-23.63
-42.47
-61.06
-75.55
-83.28
-83.62
-78.01
-69.22
-60.29
-53.67
-50.76
-51.80
-56.05
-62.10
-68.24
-72.82
-74.69
-73.34
-69.10
-62.91
-56.08
-49.84
-44.93
-41.30
-38.32
-35.03
-30.68
-24.97
-18.07
-10.42
-2.48
5.35
12.64
18.84
23.37
25.84
26.32
25.34
23.66
21.95
20.46
19.04
17.35
15.16
12.56
9.93
7.66
5.82
3.97
1.44
-2.28
-6.88
-11.14
-13.25
-11.77
-6.64
0.32
5.92
6.91
1.66
-8.82
-21.17
-31.04
-35.11
-32.54
-25.19
-16.60
-10.29
-8.22
-10.25
-14.58
-18.71
-20.10
-16.51
-6.17
11.78
36.47
64.68
90.82
108.62
113.46
104.72
86.59
66.36
50.77
42.65
39.47
35.09
23.45
2.01
-26.76
-56.74
-81.26
-95.94
-99.54
-93.38
-79.80
-61.23
-40.28
-20.27
-5.13
1.56
-1.92
-14.76
-33.99
-55.96
-77.51
-96.35
-110.45
-117.67
-116.11
-105.15
-86.48
-64.04
-42.50
-24.97
-11.70
-0.29
12.38
28.14
46.33
64.16
78.34
86.85
89.74
88.47
84.49
78.07
68.18
53.57
34.19
11.94
-9.66
-26.93
-37.67
-42.15
-42.70
-42.46
-43.79
-47.42
-52.55
-57.64
-61.35
-62.97
-62.43
-59.86
-55.44
-49.37
-42.01
-34.03
-26.22
-19.32
-13.72
-9.27
-5.36
-1.26
3.46
8.63
13.55
17.33
19.53
20.56
21.67
24.50
30.27
39.15
50.12
61.24
70.42
76.29
78.62
78.39
77.28
76.87
77.98
80.48
83.48
85.96
87.41
88.05
88.67
90.13
92.93
97.09
102.24
107.74
112.51
114.93
112.79
103.86
86.55
60.66
27.34
-11.59
-54.54
-100.55
-148.97
-198.50
-246.35
-288.17
-318.81
-333.81
-330.58
-309.06
-271.78
-223.33
-169.62
-116.89
-70.60
-34.38
-9.36
5.96
14.90
21.16
27.38
34.23
40.54
44.37
44.41
41.03
36.32
33.14
33.54
37.62
43.48
48.28
49.73
47.22
41.88
35.69
30.23
26.08
22.99
20.52
18.57
17.51
17.68
19.04
20.92
22.37
22.49
20.91
17.84
13.95
10.15
7.38
6.37
7.37
10.08
13.62
16.87
18.92
19.43
18.75
17.67
16.97
17.11
18.07
19.44
20.58
20.88
19.93
17.61
14.19
10.22
6.43
3.53
2.03
2.04
3.27
5.07
6.67
7.48
7.24
6.11
4.46
2.67
0.97
-0.58
-1.99
-3.17
-3.91
-3.99
-3.34
-2.14
-0.82
0.22
0.68
0.53
-0.10
-1.01
-1.98
-2.84
-3.49
-3.91
-4.27
-4.78
-5.63
-6.79
-8.01
-8.87
-9.09
-8.63
-7.76
-6.83
-6.13
-5.76
-5.73
-6.02
-6.70
-7.81
-9.20
-10.41
-10.71
-9.51
-6.62
-2.50
1.88
5.47
7.56
8.09
7.57
6.72
6.13
5.99
6.13
6.25
6.09
5.62
4.97
4.31
3.73
3.20
2.62
1.91
1.10
0.31
-0.26
-0.44
-0.15
0.53
1.35
2.04
2.35
2.20
1.68
1.02
0.47
0.18
0.11
0.10
-0.05
-0.49
-1.27
-2.34
-3.58
-4.84
-5.91
-6.56
-6.58
-5.83
-4.32
-2.25
-0.02
1.94
3.25
3.74
3.56
3.01
2.46
2.13
2.02
1.97
1.77
1.34
0.82
0.44
0.43
0.85
1.56
2.26
2.68
2.68
2.30
1.71
1.11
0.58
0.10
-0.44
-1.06
-1.63
-1.85
-1.44
-0.28
1.43
3.25
4.69
5.45
5.49
5.01
4.33
3.67
3.15
2.81
2.74
3.03
3.73
4.77
5.96
6.98
7.57
7.58
6.99
5.84
4.27
2.44
0.58
-1.00
-2.06
-2.53
-2.54
-2.43
-2.51
-2.93
-3.64
-4.43
-5.09
-5.59
-6.01
-6.45
-6.86
-7.06
-6.78
-5.88
-4.44
-2.78
-1.31
-0.39
-0.19
-0.68
-1.66
-2.80
-3.81
-4.42
-4.54
-4.26
-3.79
-3.41
-3.31
-3.50
-3.75
-3.74
-3.14
-1.85
0.03
2.18
4.19
5.70
6.52
6.65
6.24
5.52
4.76
4.09
3.56
3.12
2.67
2.15
1.50
0.79
0.08
-0.53
-0.98
-1.22
-1.25
-1.04
-0.62
-0.07
0.47
0.82
0.87
0.62
0.19
-0.22
-0.44
-0.43
-0.26
-0.09
-0.07
-0.26
-0.67
-1.24
-1.95
-2.80
-3.82
-4.96
-6.04
-6.75
-6.75
-5.85
-4.09
-1.84
0.42
2.23
3.36
3.83
3.89
3.76
3.58
3.34
2.96
2.41
1.76
1.17
0.78
0.65
0.72
0.85
0.88
0.72
0.39
-0.00
-0.28
-0.28
0.04
0.53
0.97
1.09
0.79
0.15
-0.57
-1.11
-1.29
-1.12
-0.78
-0.49
-0.44
-0.73
-1.40
-2.40
-3.63
-4.96
-6.12
-6.82
-6.78
-5.87
-4.18
-2.05
0.06
1.72
2.69
3.02
2.97
2.87
3.01
3.44
4.00
4.44
4.51
4.11
3.30
2.29
1.32
0.54
-0.04
-0.51
-0.98
-1.54
-2.15
-2.72
-3.11
-3.21
-3.05
-2.73
-2.43
-2.30
-2.39
-2.65
-2.92
-3.00
-2.75
-2.16
-1.33
-0.48
0.14
0.35
0.07
-0.62
-1.52
-2.33
-2.77
-2.60
-1.75
-0.33
1.37
2.96
4.07
4.47
4.19
3.48
2.71
2.18
2.01
2.09
2.17
2.09
1.81
1.50
1.36
1.53
1.98
2.48
2.79
2.71
2.26
1.60
0.98
0.55
0.34
0.23
0.04
-0.37
-0.99
-1.69
-2.24
-2.51
-2.47
-2.25
-2.05
-1.99
-2.07
-2.21
-2.30
-2.35
-2.40
-2.51
-2.66
-2.65
-2.27
-1.36
0.06
1.74
3.31
4.48
5.06
5.07
4.66
3.99
3.20
2.41
1.69
1.15
0.88
0.89
1.10
1.37
1.53
1.49
1.21
0.75
0.22
-0.33
-0.81
-1.18
-1.38
-1.41
-1.28
-1.08
-0.94
-0.90
-0.94
-0.99
-0.91
-0.70
-0.43
-0.25
-0.33
-0.73
-1.46
-2.42
-3.47
-4.44
-5.15
-5.43
-5.12
-4.15
-2.58
-0.61
1.47
3.29
4.58
5.17
5.10
4.57
3.83
3.09
2.43
1.85
1.29
0.74
0.29
0.03
-0.01
0.13
0.29
0.34
0.23
0.01
-0.21
-0.33
-0.39
-0.52
-0.85
-1.47
-2.29
-3.12
-3.70
-3.89
-3.65
-3.12
-2.51
-2.02
-1.81
-1.92
-2.32
-2.87
-3.43
-3.81
-3.84
-3.40
-2.46
-1.15
0.31
1.66
2.70
3.33
3.59
3.57
3.40
3.15
2.86
2.49
2.01
1.41
0.73
0.11
-0.32
-0.41
-0.11
0.53
1.35
2.17
2.77
2.99
2.77
2.17
1.37
0.61
0.11
-0.05
0.05
0.28
0.46
0.52
0.46
0.35
0.20
-0.06
-0.57
-1.42
-2.63
-4.04
-5.41
-6.42
-6.83
-6.48
-5.39
-3.77
-1.97
-0.42
0.50
0.60
-0.04
-1.11
-2.12
-2.68
-2.62
-2.10
-1.51
-1.33
-1.92
-3.32
-5.27
-7.26
-8.74
-9.36
-9.12
-8.41
-7.91
-8.31
-10.12
-13.32
-17.37
-21.41
-24.54
-26.28
-26.81
-26.97
-27.79
-30.14
-34.28
-39.70
-45.36
-50.03
-52.55
-52.19
-48.92
-43.98
-40.17
-41.38
-51.22
-71.13
-98.59
-127.04
-147.57
-151.94
-135.41
-98.03
-44.28
18.84
83.72
143.74
193.88
230.92
253.66
263.08
262.39
256.27
249.71
246.14
246.80
250.56
254.53
255.26
249.72
236.51
216.05
190.66
163.18
136.77
114.38
98.31
89.64
87.77
90.89
95.68
98.70
95.77
84.34
64.42
38.38
9.67
-18.94
-45.39
-69.60
-91.59
-113.27
-135.69
-158.20
-178.83
-195.43
-207.34
-214.68
-220.23
-226.74
-239.14
-260.64
-291.17
-327.60
-365.33
-401.08
-432.56
-461.32
-468.77
-441.63
-378.85
-294.79
-209.83
-137.89
-91.93
-63.26
-42.76
-23.13
-3.01
16.32
36.69
57.96
79.92
101.76
123.66
143.90
161.26
172.80
176.53
172.69
163.75
154.05
147.70
148.43
156.38
169.63
182.70
188.81
182.20
160.03
124.29
80.96
38.84
5.08
-16.17
-25.57
-26.93
-24.82
-22.44
-20.56
-18.39
-14.78
-10.09
-5.63
-3.19
-3.66
-6.47
-9.94
-12.09
-11.76
-9.00
-5.17
-1.98
-0.63
-1.34
-3.35
-5.51
-6.73
-6.51
-5.06
-3.11
-1.52
-0.95
-1.60
-3.21
-5.17
-6.81
-7.65
-7.67
-7.25
-7.00
-7.43
-8.59
-10.10
-11.25
-11.42
-10.34
-8.23
-5.61
-3.04
-0.77
1.25
3.36
5.87
8.81
11.85
14.44
16.04
16.41
15.74
14.63
13.80
13.80
14.84
16.72
18.99
21.25
23.30
25.22
27.27
29.68
32.56
35.83
39.43
43.34
47.52
51.68
55.06
56.59
55.32
51.04
44.53
37.16
30.12
23.74
17.44
10.31
1.94
-7.20
-16.12
-24.10
-31.41
-39.09
-48.22
-58.92
-70.02
-79.54
-85.72
-87.98
-87.15
-84.90
-82.75
-81.30
-79.89
-77.13
-71.74
-63.24
-52.27
-40.21
-28.56
-18.31
-9.78
-2.85
2.52
5.95
6.94
5.32
1.84
-1.85
-3.77
-2.60
1.62
7.37
12.31
14.45
13.03
9.03
4.62
2.31
3.82
9.44
18.06
27.94
37.55
46.21
54.03
61.42
68.52
74.96
80.11
83.62
85.66
86.87
87.80
88.45
88.13
85.83
81.05
74.43
67.75
63.13
61.94
63.98
67.53
70.18
70.08
66.92
62.18
58.35
57.68
60.68
65.45
67.96
63.47
48.15
20.37
-19.08
-67.81
-122.68
-179.90
-234.53
-280.56
-312.22
-326.73
-326.46
-318.80
-312.98
-315.08
-324.45
-333.83
-333.37
-316.32
-282.65
-238.72
-193.30
-152.72
-118.20
-86.36
-52.20
-12.07
34.67
85.67
136.46
181.77
216.96
239.44
249.46
249.99
245.51
240.39
237.29
236.66
237.27
237.01
233.45
224.18
207.27
182.19
151.01
118.59
91.25
73.99
67.80
68.71
69.65
64.25
50.23
30.72
12.43
2.09
3.04
14.00
30.26
46.19
57.49
62.20
60.23
52.32
39.23
21.83
1.51
-19.27
-37.34
-49.93
-56.07
-56.92
-55.23
-53.95
-55.05
-59.60
-68.69
-84.65
-110.90
-150.13
-201.57
-259.16
-312.40
-349.69
-362.78
-349.71
-315.09
-267.62
-216.53
-168.78
-127.80
-93.91
-65.37
-39.65
-14.63
10.71
35.81
58.90
77.87
91.75
101.71
111.00
122.96
138.94
157.56
175.76
191.27
204.42
217.58
232.26
245.97
251.48
239.98
206.93
156.56
101.89
59.41
41.08
48.47
72.36
98.04
112.72
110.86
94.68
70.80
45.67
22.72
2.41
-16.01
-32.52
-45.62
-53.03
-53.27
-46.54
-35.05
-22.57
-12.95
-9.18
-13.03
-25.51
-47.41
-79.27
-120.05
-165.72
-208.60
-238.75
-247.24
-229.87
-189.31
-134.46
-77.29
-28.60
5.25
23.34
29.20
28.48
26.82
28.43
35.34
47.50
63.12
79.49
93.86
104.36
110.21
111.88
110.59
107.89
105.37
104.56
106.82
112.92
122.57
133.71
142.40
143.62
133.08
109.63
76.70
41.94
14.58
1.68
5.05
20.58
40.31
56.30
64.08
63.93
59.44
54.36
49.80
43.56
31.86
12.14
-14.67
-43.84
-68.74
-83.58
-85.64
-76.08
-59.24
-41.08
-27.93
-25.52
-38.40
-68.84
-115.48
-172.33
-229.00
-272.94
-293.15
-284.18
-248.62
-196.62
-142.31
-98.57
-72.37
-62.80
-62.56
-62.02
-53.96
-36.53
-13.34
9.22
25.77
34.63
38.22
41.17
47.67
59.52
75.96
94.74
113.49
130.40
144.22
153.86
158.21
156.66
149.76
139.64
129.58
122.85
121.52
125.52
132.65
139.08
140.48
133.48
117.09
93.33
66.76
42.87
26.00
17.57
15.44
14.64
9.01
-6.50
-33.97
-71.49
-113.47
-152.39
-181.40
-196.69
-198.63
-191.05
-179.30
-168.02
-159.73
-154.70
-151.71
-148.65
-142.96
-131.96
-113.41
-86.64
-53.29
-17.11
17.32
46.33
68.11
82.46
89.78
90.40
84.85
74.87
63.93
56.45
55.92
63.06
75.27
87.94
96.82
99.97
98.38
94.89
92.52
92.99
96.30
101.09
105.34
106.89
103.84
95.03
80.59
62.21
42.83
25.67
13.15
6.04
3.44
3.51
4.54
5.52
6.30
7.06
7.72
7.66
5.67
0.21
-10.28
-27.34
-52.13
-84.78
-123.92
-166.50
-208.18
-244.40
-271.05
-284.67
-282.48
-263.07
-227.93
-182.82
-137.50
-102.95
-86.80
-89.30
-102.43
-113.10
-108.92
-83.63
-39.13
16.31
72.43
120.91
157.01
179.01
186.80
181.22
164.26
139.76
113.25
90.61
76.31
71.96
76.03
84.58
93.09
97.96
97.66
92.78
85.44
78.22
73.00
70.29
69.16
67.65
63.68
56.00
44.90
32.35
21.44
15.22
15.39
21.37
30.39
38.63
42.88
41.72
35.63
26.13
14.75
2.62
-9.15
-18.98
-25.04
-26.55
-25.25
-25.71
-33.77
-53.77
-85.93
-125.59
-164.73
-194.91
-210.28
-209.10
-193.81
-169.90
-144.11
-122.47
-108.38
-101.48
-97.88
-91.95
-78.97
-57.27
-28.69
2.83
33.49
60.99
84.40
102.99
115.27
119.39
114.63
102.78
88.25
76.57
71.90
75.23
84.06
93.70
99.37
98.07
89.55
76.16
61.84
50.60
45.01
45.23
48.97
52.59
52.88
48.42
40.06
30.13
21.17
14.87
11.77
11.63
13.81
17.43
21.13
23.00
20.97
13.81
2.04
-11.94
-24.74
-33.60
-37.95
-39.79
-42.68
-49.89
-62.80
-80.39
-99.80
-117.46
-130.19
-135.88
-133.94
-125.68
-114.33
-104.25
-99.20
-100.26
-104.51
-105.80
-97.51
-75.97
-42.53
-3.06
34.96
65.90
87.92
102.34
111.45
116.45
117.02
112.46
103.25
91.63
80.76
73.17
69.44
68.13
66.82
63.59
58.17
51.98
47.32
46.02
48.41
52.92
56.51
55.78
48.29
33.81
14.83
-3.99
-17.43
-21.92
-17.20
-6.45
5.11
12.55
13.22
7.47
-1.99
-11.68
-18.75
-21.62
-19.91
-14.00
-4.89
5.66
15.00
19.96
17.66
6.62
-12.40
-36.23
-60.05
-78.78
-88.70
-88.82
-81.22
-70.40
-61.96
-60.97
-70.67
-91.53
-120.84
-152.76
-179.24
-191.96
-185.01
-157.27
-113.61
-63.73
-18.99
11.56
24.21
21.39
9.90
-2.29
-9.28
-8.94
-2.83
5.62
13.38
19.48
25.19
32.75
43.56
56.87
70.04
79.91
84.70
85.27
84.59
86.15
91.99
101.46
111.69
119.11
121.24
117.50
109.04
97.55
84.48
70.82
57.50
45.75
37.05
32.56
32.51
35.91
40.89
45.23
46.71
43.25
32.95
14.60
-11.51
-42.88
-74.97
-102.61
-121.87
-131.48
-132.75
-128.37
-120.62
-110.49
-97.86
-82.51
-65.39
-49.33
-38.89
-39.07
-53.04
-80.00
-113.98
-144.80
-161.34
-155.93
-127.76
-83.47
-34.43
7.96
36.53
50.11
52.26
48.36
42.78
37.76
33.94
31.50
30.99
33.25
38.89
47.81
59.00
70.79
81.50
89.89
95.43
98.47
99.86
100.41
100.49
99.92
98.46
96.35
94.53
93.98
94.69
94.92
91.45
81.18
63.26
40.45
18.50
3.81
0.33
7.73
21.49
35.11
42.92
42.10
32.99
17.92
-0.51
-20.52
-41.21
-61.82
-80.82
-95.81
-104.51
-105.96
-101.37
-93.76
-86.55
-82.24
-82.13
-87.07
-98.38
-117.69
-145.40
-178.45
-209.35
-227.88
-225.09
-197.80
-150.79
-95.27
-44.26
-7.33
12.52
18.46
16.88
13.82
12.82
14.67
18.57
23.51
29.05
35.43
43.14
52.41
62.72
72.79
80.86
85.34
85.62
82.78
79.53
79.20
84.15
94.38
107.12
118.00
123.08
120.73
112.26
100.83
89.55
79.85
71.00
61.07
48.55
33.54
18.02
4.92
-3.27
-5.86
-4.43
-2.38
-3.72
-11.51
-26.74
-47.84
-71.34
-93.08
-109.61
-119.04
-121.11
-116.62
-106.92
-93.87
-80.00
-68.33
-61.54
-60.65
-64.14
-68.12
-67.83
-59.71
-43.00
-19.97
5.34
28.90
48.19
62.54
72.46
78.73
81.86
82.16
80.09
76.58
72.94
70.46
69.95
71.43
74.12
76.70
77.76
76.31
72.16
66.00
59.25
53.53
50.05
49.11
50.06
51.73
53.11
53.85
54.34
55.21
56.75
58.62
59.91
59.54
56.74
51.28
43.41
33.59
22.13
9.05
-5.66
-21.74
-38.33
-54.20
-68.44
-81.35
-94.92
-112.31
-136.62
-169.06
-207.84
-248.10
-283.21
-306.64
-313.78
-302.97
-275.76
-236.29
-190.17
-143.11
-99.65
-62.33
-31.52
-5.97
16.21
36.64
56.19
74.99
92.62
108.38
121.32
130.36
134.55
133.66
128.52
120.99
113.32
107.39
104.05
103.09
103.47
103.88
103.17
100.55
95.66
88.49
79.45
69.29
59.09
49.95
42.64
37.54
34.81
34.74
37.83
44.47
54.22
65.50
75.69
82.05
82.69
77.30
67.07
54.15
40.87
29.16
20.34
14.90
12.61
12.57
13.43
13.68
11.83
6.30
-4.85
-23.91
-52.73
-91.36
-137.03
-184.41
-227.11
-259.87
-279.98
-287.27
-282.78
-267.32
-241.19
-205.10
-161.58
-115.43
-72.46
-37.33
-11.66
6.11
19.23
30.54
41.12
50.32
56.99
60.66
62.12
62.85
64.18
66.66
69.89
72.89
74.68
74.86
73.84
72.74
72.90
75.13
78.98
82.66
83.53
79.21
68.71
53.14
35.48
19.62
8.88
4.96
7.53
14.63
23.50
31.43
36.42
37.47
34.63
28.73
20.96
12.59
4.69
-1.97
-7.00
-10.40
-12.63
-14.50
-16.99
-20.94
-26.75
-34.16
-42.19
-49.49
-54.94
-58.33
-60.59
-63.36
-67.94
-74.22
-80.28
-83.06
-79.78
-69.46
-53.43
-34.70
-16.48
-0.79
12.05
22.70
31.65
38.30
41.21
39.23
32.73
23.95
16.28
12.65
14.17
19.79
27.02
33.28
37.03
38.24
37.94
37.54
38.14
40.15
43.20
46.27
47.90
46.67
41.74
33.34
23.01
13.30
6.90
5.58
9.61
17.82
28.31
39.22
49.08
56.73
60.96
60.44
54.19
42.39
26.91
11.19
-0.76
-5.66
-2.18
8.48
22.92
36.47
44.63
44.46
35.59
20.43
3.34
-10.96
-19.14
-20.20
-15.41
-7.44
0.74
6.56
8.16
4.41
-4.92
-18.92
-35.46
-51.84
-65.73
-76.09
-83.62
-90.21
-97.82
-107.16
-116.95
-124.31
-126.16
-120.98
-110.08
-97.48
-88.19
-85.66
-89.61
-95.78
-97.86
-90.67
-72.87
-47.57
-20.64
2.30
18.50
28.80
36.38
44.73
56.15
71.31
89.48
108.72
125.84
136.19
134.58
117.59
86.16
46.90
10.59
-12.03
-15.01
0.19
25.59
50.97
68.87
77.36
79.35
79.12
78.75
76.69
69.32
54.05
31.77
7.15
-13.73
-26.49
-30.50
-28.88
-26.47
-27.19
-32.71
-42.97
-57.87
-78.61
-107.15
-143.91
-185.27
-222.87
-245.87
-245.42
-219.09
-172.56
-117.61
-67.27
-30.64
-10.21
-2.38
-0.73
0.32
3.46
8.67
14.86
21.48
28.97
38.08
48.81
59.91
69.29
75.26
77.47
77.16
76.47
77.48
81.35
88.08
96.77
105.98
114.14
119.82
121.96
120.17
114.88
107.17
98.30
89.24
80.37
71.72
63.27
55.48
49.33
46.06
46.47
50.27
55.65
59.45
57.95
47.96
28.29
0.76
-29.49
-55.39
-70.15
-70.09
-56.46
-35.29
-15.36
-5.39
-11.68
-36.62
-78.50
-131.70
-187.32
-234.45
-262.43
-263.99
-238.21
-191.64
-136.43
-86.01
-49.91
-30.62
-23.82
-21.76
-17.56
-8.27
4.80
18.05
28.28
34.53
38.23
41.86
47.38
54.96
63.25
70.32
74.83
76.71
77.06
77.42
78.93
82.07
86.60
92.01
97.79
103.32
107.47
108.33
103.58
91.48
72.09
47.88
23.26
3.15
-8.80
-11.35
-5.63
5.81
20.06
34.52
46.76
54.26
54.36
44.96
25.55
-1.91
-33.04
-62.04
-83.49
-94.20
-94.19
-86.45
-75.65
-66.40
-62.06
-64.27
-73.06
-86.94
-102.79
-116.14
-122.05
-116.98
-100.58
-76.43
-50.79
-29.73
-16.30
-9.34
-4.86
1.14
10.09
20.32
28.65
32.84
33.17
32.11
32.65
36.36
42.66
49.47
54.70
57.53
58.77
60.10
62.90
67.38
72.46
76.46
78.10
77.21
74.68
71.81
69.43
67.52
65.50
63.06
60.67
59.37
59.85
61.48
62.12
58.92
49.79
34.61
15.33
-4.95
-23.44
-38.61
-50.36
-59.53
-67.48
-75.76
-86.00
-99.61
-117.03
-137.01
-156.42
-171.03
-177.21
-173.66
-162.30
-147.49
-133.98
-124.64
-119.00
-113.69
-104.35
-87.96
-64.47
-36.65
-8.59
16.27
36.51
52.52
65.31
75.20
81.48
83.23
80.54
75.20
70.23
68.50
71.18
77.12
83.32
86.31
83.70
75.13
62.39
48.63
37.17
30.29
28.54
30.75
34.72
38.45
41.00
42.75
44.69
47.50
50.85
53.63
54.81
54.24
52.74
51.32
50.11
47.84
42.50
32.61
18.60
2.98
-10.69
-19.54
-23.04
-23.31
-24.19
-29.40
-40.89
-58.14
-78.55
-98.60
-115.00
-125.46
-128.92
-125.72
-117.62
-107.54
-98.71
-93.43
-91.79
-91.33
-87.97
-77.89
-59.46
-34.01
-5.22
22.69
46.56
64.91
77.56
84.77
86.88
84.60
79.43
73.73
70.06
70.17
74.05
79.93
84.86
85.79
80.78
69.64
54.08
37.07
21.83
10.67
4.33
2.04
2.42
4.60
8.82
16.11
27.19
41.32
55.94
67.47
72.77
70.66
62.37
50.95
39.80
31.28
26.00
23.09
21.00
18.48
15.08
11.00
6.38
0.52
-8.36
-22.61
-43.93
-72.22
-105.10
-138.59
-168.43
-191.43
-206.05
-212.14
-210.18
-200.67
-184.22
-162.01
-136.20
-109.51
-84.36
-61.77
-41.12
-20.75
0.75
23.39
45.43
64.10
76.84
82.56
82.13
78.03
73.39
70.76
71.40
75.06
80.39
85.53
88.85
89.28
86.53
81.02
73.55
65.13
56.67
48.67
41.21
34.14
27.45
21.65
17.75
16.85
19.66
26.01
34.78
44.24
52.46
57.80
59.19
56.22
49.29
39.63
29.13
19.91
13.63
10.80
10.40
10.04
6.66
-2.48
-18.88
-42.19
-69.96
-98.08
-121.88
-137.66
-144.26
-143.67
-140.25
-138.50
-140.56
-144.80
-146.38
-139.73
-121.54
-92.79
-58.37
-24.87
2.30
20.91
31.88
37.65
40.24
40.41
38.31
34.88
32.50
34.25
41.99
54.62
67.93
76.44
76.13
66.61
51.50
36.65
27.24
25.49
29.86
36.25
40.12
38.63
31.71
21.82
12.83
8.46
11.17
21.22
36.73
54.19
69.45
78.90
80.45
74.03
61.48
45.84
30.52
18.49
11.77
11.24
16.57
26.12
36.90
45.13
47.15
40.85
26.56
7.00
-13.75
-31.95
-45.43
-54.11
-59.51
-64.12
-70.90
-82.72
-101.48
-126.86
-155.29
-180.25
-194.19
-191.61
-171.67
-138.81
-100.94
-66.20
-39.99
-23.79
-15.88
-13.20
-12.94
-13.13
-12.48
-9.88
-4.36
4.68
17.01
31.55
46.55
59.99
70.12
75.99
77.81
76.91
75.25
74.74
76.67
81.46
88.77
97.67
106.67
113.57
115.54
109.99
95.83
74.65
50.78
29.84
16.29
11.60
13.88
19.38
24.80
28.87
32.22
35.84
39.28
40.12
35.21
22.78
4.14
-16.38
-33.40
-43.19
-45.39
-42.81
-39.55
-38.85
-42.10
-49.46
-61.41
-79.40
-104.78
-136.50
-169.52
-195.42
-205.64
-195.47
-166.54
-126.25
-84.33
-48.82
-23.36
-7.30
2.40
8.69
13.10
15.82
16.71
16.16
15.29
15.52
17.96
23.05
30.61
40.06
50.72
61.98
73.34
84.29
94.10
101.87
106.75
108.34
107.00
103.90
100.62
98.38
97.34
96.36
93.44
86.74
75.63
61.13
45.58
31.66
21.23
14.82
11.75
10.77
10.58
9.92
7.22
0.59
-11.66
-29.89
-52.09
-73.97
-90.37
-97.33
-93.66
-81.00
-62.76
-42.72
-24.53
-12.05
-9.61
-21.15
-47.87
-85.97
-126.41
-157.62
-170.44
-162.25
-138.06
-107.81
-81.42
-64.51
-57.04
-55.06
-53.78
-50.05
-42.97
-32.97
-20.72
-6.64
8.82
24.71
39.53
51.76
60.45
65.44
67.44
67.65
67.48
68.26
70.94
75.78
82.30
89.40
95.63
99.75
100.98
99.11
94.35
87.17
78.14
67.89
57.14
46.68
37.48
30.48
26.43
25.47
26.76
28.49
28.40
24.59
16.30
4.13
-10.32
-25.11
-38.42
-48.66
-54.42
-54.74
-49.81
-41.66
-34.08
-31.25
-35.59
-46.15
-58.87
-68.80
-72.89
-71.61
-68.09
-65.60
-64.99
-64.06
-59.04
-47.34
-29.58
-9.53
7.78
18.70
22.66
22.08
20.68
21.39
24.89
29.55
32.60
31.87
27.30
21.31
17.77
19.95
28.58
40.95
52.00
56.74
52.79
41.50
27.26
15.48
10.29
13.28
23.45
37.76
51.93
61.13
61.11
49.64
27.76
0.16
-26.07
-44.09
-50.02
-44.31
-31.07
-15.64
-2.11
8.02
15.27
20.56
23.79
23.63
18.63
8.67
-4.15
-15.93
-22.60
-21.67
-13.38
-0.76
11.59
19.38
20.04
13.38
1.06
-14.49
-31.04
-47.10
-61.71
-74.09
-83.29
-88.37
-88.71
-84.48
-76.84
-67.74
-59.30
-53.16
-49.94
-49.11
-49.34
-49.08
-47.02
-42.50
-35.49
-26.42
-16.01
-4.94
6.15
16.64
25.97
33.79
39.95
44.64
48.27
51.29
54.01
56.50
58.66
60.42
62.00
63.92
66.84
71.11
76.38
81.38
84.23
83.12
77.13
66.83
54.31
42.52
34.13
30.43
30.73
32.70
33.37
30.54
23.76
14.59
5.78
-0.14
-2.08
-0.86
1.21
1.41
-2.51
-11.88
-27.17
-47.87
-72.25
-97.03
-117.70
-129.73
-130.43
-120.30
-103.08
-84.20
-68.39
-57.94
-52.32
-49.31
-46.65
-43.08
-38.31
-32.23
-24.20
-13.10
1.85
20.10
39.41
56.42
68.00
72.71
71.65
68.13
66.36
69.52
78.33
90.77
103.00
111.19
113.24
109.47
102.11
94.15
88.08
85.27
85.86
88.84
92.09
92.43
86.15
70.18
43.60
8.60
-29.82
-65.56
-93.79
-112.74
-124.14
-131.92
-140.21
-151.47
-165.69
-180.93
-194.51
-204.26
-209.19
-209.48
-205.84
-198.86
-188.59
-174.73
-157.30
-137.24
-116.53
-97.36
-80.75
-65.51
-48.34
-25.41
5.41
42.77
81.81
115.88
139.20
149.14
146.75
135.83
120.77
104.72
88.81
72.69
55.70
37.99
20.78
5.53
-7.14
-18.10
-29.37
-42.88
-58.93
-75.48
-88.74
-94.82
-91.48
-79.08
-60.11
-37.89
-15.12
6.77
27.31
46.20
62.85
76.58
87.19
95.35
102.36
109.34
116.33
121.94
123.84
119.80
108.88
91.96
71.31
49.51
28.68
10.00
-5.89
-18.28
-26.23
-29.29
-28.33
-25.96
-25.63
-29.83
-38.58
-49.17
-57.55
-60.33
-56.17
-45.79
-30.79
-12.25
9.63
34.77
62.01
88.61
110.77
125.17
130.56
128.27
121.48
113.71
107.23
102.33
97.59
90.87
80.72
67.19
51.95
37.54
26.24
19.21
16.26
16.40
18.54
21.93
26.16
30.81
35.22
38.52
40.11
39.96
38.68
37.27
36.52
36.56
36.71
35.88
33.13
28.26
22.10
16.40
13.50
15.40
22.88
34.79
48.07
58.36
60.84
51.28
27.32
-10.36
-57.93
-108.94
-155.87
-191.91
-212.49
-216.23
-204.84
-181.54
-149.18
-110.11
-66.58
-21.70
20.61
56.90
85.43
106.63
123.02
138.28
154.09
168.84
177.79
175.46
158.67
128.22
87.67
42.17
-2.94
-41.60
-66.53
-73.50
-64.64
-46.23
-23.80
-0.59
18.25
33.92
46.44
54.17
54.62
45.99
28.30
7.55
-11.29
-24.47
-29.79
-28.07
-21.99
-14.87
-9.24
-6.10
-5.09
-6.08
-8.94
-13.04
-18.10
-23.86
-30.19
-36.94
-43.52
-48.73
-51.37
-50.11
-43.79
-32.63
-18.10
-2.59
11.31
21.59
26.97
26.49
19.93
8.09
-7.40
-24.20
-39.78
-51.93
-59.11
-60.48
-56.14
-47.02
-34.72
-21.54
-9.64
-0.42
5.99
10.74
15.66
22.27
31.04
41.11
50.55
57.04
58.75
55.12
47.34
38.38
32.43
33.51
43.85
62.34
84.26
102.49
110.15
103.57
84.27
58.81
36.29
24.68
27.49
42.56
63.38
82.25
93.87
97.12
94.58
90.12
86.30
82.99
78.21
70.01
58.41
45.80
35.70
30.84
31.83
37.07
43.76
49.29
51.81
50.14
43.00
28.82
6.22
-24.82
-61.80
-99.40
-130.24
-147.02
-145.01
-124.36
-90.96
-55.01
-27.81
-17.69
-26.85
-50.61
-79.49
-103.06
-113.98
-110.53
-96.35
-78.31
-63.46
-56.61
-59.55
-71.52
-90.18
-112.49
-135.12
-154.71
-168.54
-175.41
-176.42
-174.82
-174.77
-179.51
-189.60
-202.48
-213.43
-217.64
-212.28
-197.86
-178.61
-161.36
-153.64
-160.84
-183.65
-216.95
-250.61
-272.55
-272.80
-246.93
-197.41
-132.52
-63.56
-1.51
45.49
73.64
83.53
79.35
67.23
53.36
42.26
35.95
34.17
35.63
39.07
43.67
48.74
53.10
54.94
52.44
44.87
33.37
20.56
9.47
2.00
-1.72
-3.01
-3.55
-4.17
-4.50
-3.51
-0.55
3.90
8.20
9.95
6.80
-2.78
-18.79
-39.32
-60.13
-75.21
-78.19
-64.87
-35.45
4.61
46.01
78.90
96.35
96.62
82.92
61.21
37.37
15.11
-4.29
-21.12
-35.85
-48.36
-57.93
-63.92
-66.39
-66.22
-64.69
-62.65
-60.09
-55.93
-48.71
-37.66
-23.69
-9.61
0.76
4.15
-0.51
-11.43
-24.63
-35.62
-41.20
-40.75
-36.21
-30.95
-28.21
-29.51
-34.02
-38.66
-39.12
-31.35
-12.91
15.94
52.04
89.92
123.33
147.07
158.60
158.57
150.12
137.30
123.23
109.06
94.20
77.57
59.23
41.00
26.05
17.25
15.49
19.30
25.51
31.01
34.36
36.12
37.85
40.67
44.14
46.49
45.92
42.02
36.42
32.08
31.75
36.46
44.87
53.79
59.62
59.79
53.88
43.86
33.52
27.47
29.66
42.10
64.00
92.00
121.14
146.30
163.67
171.44
169.74
160.14
144.90
126.46
107.10
88.54
71.70
56.56
42.31
27.84
12.26
-4.57
-21.98
-38.66
-53.14
-64.13
-70.79
-73.01
-71.45
-67.35
-62.42
-58.40
-56.64
-57.64
-60.91
-65.05
-68.33
-69.28
-67.55
-64.26
-61.67
-62.15
-66.70
-73.80
-79.38
-78.13
-65.87
-41.67
-8.77
26.36
56.39
75.97
83.45
80.81
72.28
62.26
53.67
47.43
43.02
39.45
36.04
32.80
30.21
28.70
28.29
28.42
28.36
27.82
27.34
28.29
31.97
38.50
46.14
51.46
50.67
41.38
23.96
1.71
-20.33
-37.37
-46.54
-47.88
-44.04
-39.11
-36.83
-39.49
-47.14
-57.58
-67.00
-71.01
-65.99
-50.52
-26.24
2.13
28.05
45.21
49.94
42.52
27.03
9.48
-4.91
-13.70
-17.90
-20.83
-26.02
-35.21
-47.59
-60.53
-71.10
-77.48
-79.71
-79.08
-77.15
-74.75
-71.81
-67.94
-63.27
-59.11
-57.57
-60.59
-68.63
-79.88
-90.54
-96.27
-94.18
-84.26
-69.53
-54.81
-44.69
-41.80
-45.95
-54.61
-64.06
-70.48
-70.74
-62.78
-45.96
-21.44
7.53
36.17
59.42
74.09
79.90
79.77
77.95
77.80
79.90
82.19
81.42
75.45
64.79
52.59
42.87
38.28
38.40
39.74
37.40
27.54
9.44
-14.05
-37.81
-56.95
-68.84
-74.05
-75.36
-75.75
-76.46
-76.35
-72.81
-63.63
-48.87
-31.41
-16.10
-7.88
-9.61
-20.76
-37.23
-52.62
-60.36
-55.84
-37.94
-9.26
24.91
58.43
86.13
105.12
115.04
117.55
115.17
110.34
104.58
98.35
91.31
82.82
72.49
60.67
48.38
37.02
27.78
21.16
16.77
13.78
11.45
9.53
8.38
8.37
9.33
10.24
9.41
5.26
-2.77
-13.73
-25.40
-35.31
-41.77
-44.61
-45.21
-46.00
-49.52
-57.25
-68.78
-81.36
-90.33
-90.36
-77.10
-48.33
-4.53
51.42
114.76
179.30
237.92
283.53
310.48
316.32
302.91
275.84
242.37
208.73
177.93
149.88
122.85
95.73
69.01
44.51
23.77
6.91
-7.46
-21.14
-34.93
-48.06
-58.67
-64.92
-66.22
-63.68
-59.42
-55.44
-52.68
-50.62
-47.91
-43.48
-37.43
-31.42
-28.06
-29.77
-37.54
-50.22
-64.46
-75.46
-78.44
-69.94
-49.10
-18.04
18.44
54.17
83.22
101.77
109.07
107.40
100.87
93.61
88.04
83.98
79.18
70.68
56.59
37.21
15.17
-5.58
-21.36
-30.18
-32.32
-29.96
-25.92
-22.61
-21.32
-22.37
-25.69
-31.34
-39.49
-49.90
-61.39
-71.62
-77.82
-77.92
-71.71
-61.23
-50.33
-43.27
-43.25
-51.28
-65.80
-82.95
-97.39
-103.72
-97.98
-79.11
-49.73
-15.79
15.17
36.57
45.18
42.16
32.31
21.71
15.09
14.03
16.84
20.02
20.21
15.83
7.47
-2.72
-12.25
-19.44
-23.83
-26.16
-27.55
-28.79
-30.00
-30.74
-30.60
-29.81
-29.57
-31.65
-37.48
-47.15
-58.91
-69.73
-76.58
-78.07
-75.12
-70.64
-68.07
-69.74
-75.95
-85.24
-95.20
-103.39
-107.62
-105.85
-96.15
-77.31
-49.89
-17.05
15.79
42.67
59.46
65.65
64.27
60.17
57.47
57.62
59.17
59.15
55.10
46.62
35.69
25.54
19.00
17.12
18.97
22.33
25.16
26.64
27.30
28.26
29.92
31.31
30.33
24.87
14.28
0.04
-14.54
-25.81
-31.30
-30.81
-26.39
-21.46
-19.47
-22.74
-31.71
-44.77
-58.72
-69.53
-73.44
-68.01
-52.94
-30.19
-3.48
22.80
44.77
60.00
68.03
70.16
68.70
65.84
62.85
59.74
55.87
50.76
44.96
40.09
37.99
39.62
44.35
50.05
54.10
54.70
51.50
45.47
38.01
30.07
21.86
13.20
4.18
-4.48
-11.58
-16.01
-17.35
-16.08
-13.36
-10.69
-9.51
-11.03
-16.02
-24.59
-35.80
-47.50
-56.53
-59.50
-53.95
-39.44
-17.98
6.49
29.41
47.20
58.36
63.73
65.48
65.86
65.97
65.42
62.99
57.70
49.79
40.88
33.33
29.03
28.51
30.74
33.62
35.08
33.92
30.32
25.52
21.18
18.43
17.28
16.59
14.62
10.04
2.76
-5.83
-13.47
-18.24
-19.52
-18.39
-17.03
-17.61
-21.29
-27.87
-35.94
-43.56
-48.66
-49.36
-44.28
-32.92
-16.21
3.52
22.89
38.76
49.39
54.99
57.21
57.86
57.76
56.24
51.86
43.57
31.68
18.20
6.05
-2.00
-4.37
-1.17
6.06
14.96
23.18
29.09
32.02
32.24
30.50
27.52
23.50
18.08
10.67
1.08
-9.91
-20.52
-28.47
-31.97
-30.75
-26.27
-21.29
-18.71
-20.43
-26.71
-36.20
-46.58
-55.18
-59.53
-57.85
-49.46
-35.30
-17.97
-1.17
11.51
18.13
19.23
17.59
16.82
19.46
25.72
33.36
38.91
39.39
33.74
23.12
10.27
-1.87
-11.25
-17.32
-20.76
-22.77
-24.27
-25.39
-25.62
-24.31
-21.37
-17.61
-14.65
-14.33
-17.80
-24.94
-34.13
-42.88
-48.75
-50.49
-48.61
-45.07
-42.48
-42.94
-47.31
-55.06
-64.65
-74.06
-81.15
-83.85
-80.49
-70.34
-54.01
-33.77
-12.97
4.95
17.72
24.92
27.78
28.22
27.73
26.69
24.52
20.46
14.33
6.92
-0.25
-5.61
-8.35
-8.73
-7.84
-7.03
-7.10
-7.93
-8.55
-7.88
-5.41
-1.73
1.61
2.79
0.53
-5.08
-12.56
-19.54
-23.71
-23.80
-20.13
-14.45
-9.23
-6.74
-8.24
-13.62
-21.62
-30.13
-36.78
-39.21
-35.57
-24.95
-7.79
13.96
37.09
58.04
73.94
83.40
86.81
85.73
82.08
77.25
71.71
65.22
57.44
48.50
39.22
30.85
24.52
20.77
19.27
19.07
19.10
18.56
17.22
15.19
12.64
9.41
4.98
-1.26
-9.50
-19.15
-28.74
-36.29
-40.08
-39.24
-34.31
-27.09
-20.06
-15.60
-15.18
-18.98
-25.75
-33.08
-37.95
-37.58
-30.30
-16.20
2.72
23.10
41.39
54.88
62.54
64.90
63.50
60.03
55.72
51.22
46.80
42.66
39.03
36.16
34.14
32.77
31.58
29.96
27.34
23.48
18.58
13.27
8.52
5.03
2.93
1.52
-0.49
-4.28
-10.22
-17.54
-24.60
-29.60
-31.48
-30.47
-27.86
-25.54
-25.25
-27.97
-33.59
-40.93
-47.84
-51.67
-49.98
-41.39
-26.21
-6.74
13.51
30.87
42.88
48.89
49.97
47.99
44.71
41.13
37.44
33.41
28.90
24.10
19.48
15.54
12.56
10.43
8.70
6.79
4.22
0.94
-2.58
-5.42
-6.63
-5.75
-3.19
-0.24
1.45
0.77
-2.17
-6.06
-8.92
-9.15
-6.34
-1.47
3.47
6.45
6.11
2.21
-4.36
-11.85
-18.12
-21.04
-18.93
-10.98
2.32
19.17
36.80
52.30
63.58
69.96
72.20
71.85
70.38
68.47
65.73
61.16
53.91
43.99
32.52
21.34
12.15
5.66
1.31
-2.38
-6.94
-13.08
-20.23
-26.81
-31.04
-32.02
-30.31
-27.82
-26.94
-29.41
-35.46
-43.55
-51.25
-56.30
-57.71
-56.07
-53.04
-50.52
-49.78
-51.14
-54.21
-58.27
-62.53
-65.96
-67.15
-64.35
-56.19
-42.48
-24.84
-6.40
9.27
19.58
23.92
23.61
20.95
17.90
15.14
12.02
7.29
0.15
-9.08
-18.81
-27.02
-32.00
-33.23
-31.44
-28.32
-25.68
-24.78
-25.93
-28.55
-31.62
-34.22
-36.13
-37.72
-39.64
-42.15
-44.81
-46.55
-46.35
-43.91
-39.94
-35.82
-32.84
-31.53
-31.52
-32.04
-32.53
-32.87
-33.12
-32.76
-30.48
-24.51
-13.76
1.27
18.29
33.96
45.50
51.76
53.70
53.60
53.71
55.10
57.09
57.90
55.59
49.23
39.42
28.13
17.90
10.88
7.99
8.71
11.43
14.16
15.30
14.08
10.65
5.70
0.06
-5.69
-11.33
-16.80
-21.95
-26.23
-28.76
-28.58
-25.14
-18.73
-10.61
-2.70
3.00
4.92
2.39
-4.40
-14.36
-25.68
-35.97
-42.60
-43.30
-36.89
-23.89
-6.56
11.81
27.99
39.92
47.15
50.53
51.33
50.38
47.70
42.75
35.07
25.03
13.99
3.91
-3.39
-7.04
-7.48
-6.25
-5.24
-5.86
-8.42
-12.19
-15.92
-18.54
-19.69
-19.71
-19.28
-18.92
-18.56
-17.63
-15.40
-11.46
-6.11
-0.36
4.36
6.80
6.34
3.29
-1.27
-5.75
-8.43
-7.80
-2.79
6.98
20.90
37.29
53.61
67.11
75.71
78.83
77.52
74.01
70.65
69.02
69.28
70.44
70.99
69.68
66.06
60.43
53.62
46.47
39.60
33.27
27.52
22.31
17.68
13.73
10.51
7.81
5.12
1.67
-3.22
-9.88
-17.89
-26.21
-33.46
-38.45
-40.65
-40.47
-38.98
-37.43
-36.79
-37.41
-39.10
-41.33
-43.49
-44.96
-44.91
-42.31
-36.08
-25.71
-11.75
3.95
18.73
30.19
37.20
40.44
41.93
43.84
47.28
51.65
54.96
54.92
50.06
40.47
27.80
14.67
3.73
-3.13
-5.25
-3.42
0.56
4.52
6.61
5.95
2.73
-2.19
-7.78
-13.37
-18.80
-24.13
-29.31
-33.85
-37.00
-38.08
-36.96
-34.27
-31.29
-29.40
-29.56
-31.98
-36.14
-41.18
-46.17
-50.20
-52.24
-50.97
-45.02
-33.64
-17.58
0.51
16.65
27.00
29.54
25.09
16.91
9.16
5.15
5.85
10.05
15.23
19.05
20.40
19.60
17.77
15.87
14.03
11.34
6.58
-1.07
-11.32
-22.69
-33.02
-40.31
-43.55
-43.04
-40.26
-37.24
-35.89
-37.37
-41.72
-47.81
-53.61
-57.01
-56.74
-53.15
-48.26
-45.00
-46.03
-52.48
-63.67
-77.32
-90.51
-100.39
-104.63
-101.71
-91.15
-73.86
-52.36
-30.38
-11.81
0.79
7.11
9.11
9.91
12.32
17.51
24.74
31.94
36.84
38.08
35.68
30.93
25.86
22.43
21.86
24.33
28.97
34.36
39.03
41.92
42.55
40.97
37.60
32.96
27.59
22.03
16.75
12.11
8.38
5.68
4.03
3.19
2.72
2.03
0.57
-2.03
-5.78
-10.49
-15.87
-21.55
-26.92
-30.79
-31.32
-26.58
-15.39
1.66
21.92
41.39
56.10
63.78
64.62
60.85
55.42
50.42
46.23
41.71
35.36
26.59
16.37
6.91
0.51
-1.67
-0.16
2.97
5.34
5.32
2.60
-1.87
-6.70
-10.96
-14.56
-18.20
-22.68
-28.22
-34.17
-39.14
-41.74
-41.20
-37.82
-32.79
-27.70
-23.90
-22.05
-22.25
-24.20
-27.45
-31.44
-35.20
-37.30
-35.97
-29.74
-18.11
-2.09
16.02
33.33
47.26
56.48
61.13
62.47
62.13
61.41
60.68
59.49
56.84
51.89
44.46
35.25
25.69
17.32
11.25
7.70
6.06
5.21
4.03
1.97
-0.86
-3.87
-6.46
-8.42
-10.07
-12.06
-14.94
-18.69
-22.77
-26.27
-28.50
-29.27
-29.02
-28.59
-28.72
-29.87
-32.09
-35.15
-38.73
-42.28
-44.96
-45.51
-42.45
-34.44
-21.05
-3.25
16.64
35.42
50.16
59.20
62.67
62.28
60.35
58.69
57.88
57.10
54.87
49.95
42.08
32.16
21.91
13.17
7.24
4.46
4.28
5.48
6.72
6.98
5.87
3.62
0.81
-2.02
-4.50
-6.54
-8.17
-9.44
-10.42
-11.28
-12.33
-13.80
-15.82
-18.17
-20.37
-21.90
-22.49
-22.25
-21.55
-20.87
-20.46
-19.97
-18.38
-14.19
-6.00
6.75
23.11
40.66
56.16
66.82
71.48
70.95
67.57
63.91
61.60
60.66
59.58
56.06
48.03
34.45
15.75
-6.31
-29.06
-49.77
-66.50
-78.65
-87.00
-93.18
-99.00
-105.63
-113.26
-121.25
-128.50
-134.06
-137.69
-140.06
-142.68
-147.54
-156.56
-170.85
-190.18
-212.49
-233.96
-249.85
-255.68
-248.60
-228.30
-196.92
-158.01
-115.11
-70.39
-24.01
25.62
80.72
142.48
209.30
275.94
334.09
374.59
390.60
380.36
348.07
302.52
253.55
208.74
171.53
141.66
117.09
96.17
78.48
64.38
53.81
45.57
37.65
28.26
16.84
4.38
-7.12
-15.69
-20.40
-21.73
-21.15
-20.30
-20.14
-20.59
-20.87
-20.16
-18.28
-15.79
-13.67
-12.70
-12.99
-13.98
-14.86
-14.98
-14.13
-12.50
-10.68
-9.48
-9.98
-13.13
-19.25
-27.51
-35.66
-40.71
-40.06
-32.83
-20.39
-5.83
7.40
16.93
22.25
24.47
25.33
26.14
27.15
27.62
26.40
22.65
16.36
8.52
0.89
-4.73
-7.05
-5.94
-2.39
1.86
5.02
5.92
4.28
0.65
-4.01
-8.63
-12.35
-14.66
-15.38
-14.80
-13.43
-11.91
-10.71
-10.11
-10.27
-11.25
-13.15
-15.94
-19.32
-22.70
-25.45
-27.20
-28.01
-28.31
-28.33
-27.79
-25.78
-21.13
-13.05
-1.68
11.86
25.75
38.13
47.66
53.74
56.53
56.66
54.83
51.59
47.13
41.49
34.63
26.76
18.52
10.94
5.17
2.09
1.91
4.02
7.13
9.81
10.90
9.93
7.14
3.22
-1.12
-5.38
-9.31
-12.83
-15.88
-18.37
-20.29
-21.77
-23.01
-24.28
-25.69
-27.25
-28.92
-30.71
-32.79
-35.38
-38.56
-42.07
-45.18
-46.76
-45.52
-40.45
-31.26
-18.72
-4.60
8.78
19.25
25.50
27.51
26.39
23.88
21.65
20.67
20.92
21.57
21.37
19.28
14.92
8.81
2.10
-3.86
-8.13
-10.39
-10.96
-10.46
-9.47
-8.36
-7.31
-6.47
-6.02
-6.23
-7.29
-9.26
-11.96
-14.98
-17.75
-19.72
-20.52
-20.09
-18.79
-17.27
-16.26
-16.34
-17.81
-20.67
-24.66
-29.37
-34.13
-37.94
-39.61
-38.01
-32.62
-23.86
-13.20
-2.67
5.80
11.12
13.37
13.54
12.91
12.30
11.70
10.40
7.49
2.54
-4.05
-10.98
-16.52
-19.06
-17.72
-12.68
-5.09
3.40
11.25
17.54
22.15
25.57
28.35
30.65
32.04
31.54
28.19
21.39
11.28
-1.27
-14.67
-27.41
-38.47
-47.67
-55.44
-62.47
-69.42
-76.75
-84.87
-93.99
-104.44
-116.37
-129.37
-142.12
-152.60
-158.97
-160.55
-158.34
-154.24
-150.79
-150.39
-154.41
-162.85
-174.56
-187.93
-201.50
-214.25
-223.96
-228.96
-228.44
-222.25
-210.24
-192.18
-168.22
-139.53
-108.20
-73.42
-34.90
6.51
49.13
91.55
133.15
173.54
211.88
246.94
282.81
322.69
367.12
414.45
462.95
512.21
562.34
612.70
660.94
709.90
759.35
804.23
836.15
847.66
835.86
803.15
755.92
660.49
506.45
309.08
101.88
-85.11
-238.46
-357.82
-447.41
-511.91
-556.41
-581.75
-592.44
-595.43
-597.58
-601.65
-604.62
-600.49
-584.54
-556.14
-513.56
-456.47
-391.38
-326.65
-268.18
-217.28
-172.03
-130.00
-89.78
-47.53
-0.34
52.72
110.95
172.22
233.08
288.58
332.97
361.29
372.80
369.57
355.02
332.93
306.41
277.50
247.10
215.44
182.78
150.51
120.38
93.63
70.98
52.43
37.55
25.56
15.57
6.84
-1.06
-8.28
-15.00
-21.33
-27.43
-33.50
-39.59
-45.54
-51.05
-55.70
-59.19
-61.40
-62.34
-62.12
-60.87
-58.82
-56.28
-53.76
-51.78
-50.76
-50.76
-51.46
-52.32
-52.84
-52.78
-52.27
-51.66
-51.23
-51.09
-51.09
-50.95
-50.49
-49.65
-48.55
-47.36
-46.19
-45.06
-43.84
-42.40
-40.60
-38.39
-35.81
-32.98
-30.12
-27.42
-25.02
-22.94
-21.11
-19.46
-18.01
-16.92
-16.36
-16.37
-16.74
-17.04
-16.76
-15.60
-13.56
-11.02
-8.50
-6.41
-4.88
-3.73
-2.64
-1.35
0.21
1.93
3.64
5.20
6.49
7.39
7.72
7.30
6.15
4.67
3.58
3.66
5.34
8.38
11.82
14.33
14.79
12.75
8.56
3.21
-2.20
-6.93
-10.77
-13.96
-16.92
-19.94
-22.86
-25.10
-25.82
-24.37
-20.76
-15.78
-10.69
-6.63
-4.01
-2.16
0.46
5.62
14.70
28.23
45.87
66.69
89.32
111.76
131.01
143.18
144.16
131.03
103.51
64.62
19.97
-23.92
-61.79
-91.27
-112.99
-129.44
-142.87
-153.80
-160.56
-160.22
-150.23
-129.72
-100.05
-64.13
-25.40
13.17
49.45
81.96
109.60
131.39
146.84
156.36
161.44
164.38
167.66
173.16
181.50
191.93
202.53
210.82
214.65
213.13
207.13
199.22
192.95
191.81
198.10
212.20
232.59
256.33
279.86
299.88
313.85
320.26
318.69
309.67
294.47
274.87
252.89
230.43
209.11
190.04
173.72
160.02
148.35
137.91
127.99
118.16
108.29
98.44
88.82
79.57
70.74
62.21
53.83
45.43
36.91
28.34
19.84
11.61
3.79
-3.55
-10.47
-17.06
-23.46
-29.75
-35.97
-42.08
-47.99
-53.67
-59.15
-64.58
-70.15
-76.10
-82.60
-89.68
-97.22
-105.01
-112.82
-120.60
-128.42
-136.57
-145.35
-155.01
-165.67
-177.19
-189.25
-201.45
-213.53
-225.45
-237.68
-251.22
-267.08
-285.84
-306.97
-328.70
-348.49
-364.10
-374.19
-378.47
-377.27
-371.38
-362.11
-351.46
-341.84
-335.07
-330.85
-325.88
-314.92
-293.34
-260.17
-219.32
-178.27
-144.59
-122.75
-112.75
-111.48
-115.07
-120.58
-126.10
-129.95
-130.26
-126.01
-118.69
-112.68
-113.69
-125.56
-146.91
-170.36
-185.10
-181.51
-155.70
-111.17
-57.30
-5.53
34.88
59.46
68.68
66.46
57.95
47.71
38.93
33.36
31.45
32.43
34.46
34.92
31.36
22.52
9.29
-5.52
-18.31
-26.49
-29.91
-30.73
-32.07
-36.09
-42.51
-49.07
-53.04
-53.05
-49.91
-45.77
-42.83
-42.32
-44.16
-47.87
-53.33
-61.13
-72.04
-85.85
-100.74
-113.30
-119.32
-115.09
-98.64
-70.31
-32.91
8.91
49.75
84.46
109.09
121.37
120.94
109.36
89.73
66.19
43.04
23.63
9.74
1.61
-1.12
1.42
9.54
23.55
42.73
64.96
87.06
105.97
120.06
129.41
135.37
139.75
143.83
147.90
151.05
151.24
145.95
133.34
113.41
88.64
63.41
42.53
29.35
24.97
28.39
37.82
51.69
68.79
87.67
106.11
121.19
130.20
131.81
126.32
115.30
100.57
83.59
65.53
47.80
32.14
20.12
12.19
7.20
2.68
-3.89
-13.52
-25.06
-35.59
-41.87
-41.71
-34.89
-22.83
-7.77
8.32
23.91
37.76
48.33
53.70
52.34
44.31
31.86
19.00
9.56
5.06
3.40
-0.74
-13.44
-38.39
-74.31
-114.27
-147.56
-163.08
-153.37
-117.52
-61.92
1.32
57.89
95.42
107.07
93.64
62.60
25.23
-7.56
-28.93
-37.56
-36.76
-32.01
-28.12
-27.79
-31.76
-39.78
-51.54
-66.55
-83.22
-98.27
-106.89
-104.64
-89.59
-64.14
-34.74
-9.94
2.83
0.27
-15.48
-37.23
-55.47
-61.76
-52.15
-28.87
0.32
25.04
36.55
30.95
10.43
-17.80
-44.22
-59.89
-58.69
-38.61
-2.23
43.56
88.72
122.61
137.19
129.81
104.35
69.67
36.10
11.30
-2.14
-6.66
-7.01
-7.55
-10.41
-15.27
-20.53
-24.45
-26.00
-24.76
-20.72
-14.12
-5.47
4.06
12.55
17.46
16.34
7.90
-7.05
-25.46
-43.00
-55.77
-61.94
-62.60
-61.14
-61.72
-67.62
-80.38
-99.84
-124.63
-152.53
-180.28
-203.27
-215.97
-213.30
-192.69
-155.72
-108.16
-58.59
-15.94
12.89
24.60
20.01
3.56
-18.23
-38.76
-53.27
-59.91
-59.51
-54.26
-46.28
-36.70
-25.99
-14.71
-4.21
3.54
6.81
5.31
0.70
-4.06
-5.99
-3.54
2.67
9.99
14.71
13.55
5.15
-9.14
-25.52
-39.17
-46.27
-45.60
-39.01
-30.47
-24.46
-24.15
-30.70
-43.00
-58.35
-72.96
-82.58
-83.14
-71.76
-47.98
-14.69
22.10
54.74
76.67
84.68
80.25
68.84
57.55
52.36
55.90
66.95
81.73
95.95
106.67
113.07
115.65
115.16
111.57
104.36
93.50
80.61
69.11
62.92
64.60
73.44
85.40
94.41
95.10
85.23
66.87
45.68
28.68
21.48
26.24
40.96
60.30
77.42
86.20
83.11
68.27
45.59
21.79
4.50
0.09
11.55
37.34
71.58
105.70
130.98
141.46
135.79
117.38
92.82
69.04
50.46
37.74
28.27
18.58
6.89
-5.70
-15.71
-19.53
-15.61
-5.31
8.08
21.40
33.32
44.58
56.70
70.20
83.53
93.60
97.38
93.79
84.60
73.74
65.64
63.26
67.08
75.33
84.92
92.60
95.68
92.32
81.61
64.21
42.85
22.50
9.35
8.78
23.01
49.50
81.42
109.83
126.80
127.96
113.46
87.28
55.24
23.08
-4.99
-26.63
-40.90
-47.61
-47.01
-39.94
-28.25
-14.94
-3.63
2.55
2.02
-4.59
-14.94
-25.85
-34.53
-39.38
-40.45
-39.18
-37.82
-38.59
-42.59
-49.22
-56.35
-61.16
-61.57
-57.15
-49.22
-39.94
-31.40
-24.91
-21.31
-21.16
-24.70
-31.13
-37.86
-40.95
-36.75
-24.04
-5.11
14.76
29.66
35.58
31.91
21.39
8.57
-1.88
-6.80
-5.28
1.27
9.57
15.82
17.04
12.57
4.38
-4.01
-9.41
-10.83
-9.74
-8.88
-10.30
-13.96
-17.78
-19.12
-16.45
-10.23
-2.74
3.17
5.31
3.05
-2.80
-10.16
-16.57
-19.80
-18.74
-13.99
-8.04
-4.71
-7.70
-18.97
-37.52
-59.26
-78.15
-88.25
-85.67
-69.89
-43.98
-13.59
14.47
34.11
41.58
36.45
21.61
2.04
-16.96
-31.67
-40.99
-46.19
-49.68
-53.48
-58.13
-62.69
-65.61
-65.79
-63.31
-59.42
-56.00
-54.71
-56.45
-61.07
-67.49
-74.07
-79.19
-81.98
-82.69
-82.72
-83.83
-87.02
-91.77
-96.08
-97.53
-94.69
-88.22
-80.67
-75.26
-74.15
-77.27
-82.39
-86.07
-85.06
-77.16
-61.55
-38.63
-9.95
21.88
53.17
79.81
98.33
107.11
107.09
101.52
94.45
89.07
86.39
85.03
82.38
76.34
66.78
55.89
47.16
43.46
45.30
50.27
54.09
52.73
44.52
30.95
15.94
3.70
-3.25
-5.19
-4.61
-4.64
-7.29
-12.69
-19.45
-25.81
-30.71
-34.07
-36.40
-38.07
-38.99
-38.62
-36.67
-33.32
-29.24
-24.99
-20.24
-13.59
-3.05
12.78
33.46
56.34
77.11
91.33
96.08
91.12
78.94
63.84
50.32
41.59
38.87
41.42
47.34
54.54
61.42
67.01
70.93
73.05
73.25
71.55
68.17
63.65
58.85
54.65
51.49
49.10
46.54
42.56
36.46
28.69
21.07
16.37
17.25
25.11
39.43
57.69
76.14
91.04
99.52
100.24
93.44
80.83
65.26
50.32
39.54
35.44
38.73
47.95
59.85
70.56
76.66
76.30
69.45
57.80
44.05
31.07
21.03
14.67
11.27
9.04
6.11
1.45
-4.67
-11.02
-16.29
-19.89
-22.27
-24.44
-27.24
-30.51
-33.00
-32.90
-28.93
-21.25
-11.83
-3.85
-0.38
-2.87
-10.19
-19.03
-25.32
-26.24
-21.66
-14.27
-8.19
-7.03
-12.23
-22.57
-34.72
-44.57
-48.30
-43.24
-28.39
-4.70
24.78
55.43
81.94
99.92
107.16
104.26
94.11
80.51
66.58
53.94
42.60
31.82
21.10
10.71
1.52
-5.52
-9.91
-11.91
-12.43
-12.63
-13.61
-16.03
-20.03
-25.09
-30.21
-34.21
-36.30
-36.52
-35.83
-35.77
-37.52
-41.28
-46.02
-49.90
-51.20
-49.12
-44.01
-37.20
-30.39
-25.12
-22.52
-23.14
-26.66
-31.69
-35.56
-34.80
-26.40
-9.29
14.62
40.55
62.34
74.72
75.26
65.07
48.06
29.18
12.59
0.68
-6.00
-8.19
-7.19
-4.58
-1.96
-0.85
-2.42
-7.08
-14.37
-23.06
-31.51
-38.22
-42.12
-42.69
-39.82
-33.84
-25.60
-16.53
-8.44
-3.14
-1.76
-4.31
-9.75
-16.52
-23.20
-29.11
-34.29
-39.12
-43.84
-48.23
-51.94
-54.94
-57.84
-61.53
-66.30
-70.93
-72.68
-68.24
-55.54
-35.33
-11.51
10.27
24.98
30.37
27.72
20.59
12.64
5.73
-0.55
-7.79
-16.94
-27.26
-36.60
-42.72
-44.69
-43.46
-41.25
-40.33
-41.88
-45.77
-50.95
-56.14
-60.32
-62.81
-63.18
-61.33
-57.57
-52.81
-48.45
-45.93
-46.09
-48.69
-52.45
-55.52
-56.28
-54.06
-49.32
-43.40
-37.90
-34.10
-32.60
-33.26
-35.21
-36.86
-35.98
-30.06
-17.13
3.04
28.12
53.41
73.15
82.83
81.05
70.15
55.02
40.91
31.25
26.79
26.08
27.00
28.05
28.95
30.19
32.09
34.16
35.02
33.03
27.13
17.44
5.47
-6.31
-15.28
-19.50
-18.58
-13.94
-8.40
-5.13
-6.20
-11.61
-19.17
-25.50
-27.56
-24.07
-15.88
-5.45
4.40
11.52
14.93
14.56
11.05
5.56
0.02
-2.83
0.06
10.89
29.71
53.74
77.89
96.43
105.07
102.66
91.51
76.34
62.39
53.44
50.70
52.94
57.50
61.79
64.24
64.56
63.25
60.97
58.02
54.53
50.78
47.60
46.17
47.50
51.63
57.15
61.60
62.41
58.39
50.41
41.39
35.07
34.25
39.61
49.14
59.08
65.37
65.05
57.17
42.72
24.02
4.01
-14.30
-28.05
-34.71
-32.45
-20.90
-1.63
21.72
44.10
60.58
68.04
66.22
57.72
46.74
37.28
31.62
29.79
30.23
31.01
30.93
30.00
28.95
28.52
28.70
28.66
27.24
23.63
17.95
11.19
4.71
-0.37
-3.54
-4.91
-4.75
-3.39
-1.40
0.01
-1.27
-7.62
-20.44
-38.73
-58.73
-75.15
-83.54
-82.71
-75.38
-66.91
-62.67
-65.50
-74.63
-86.48
-96.48
-100.76
-97.04
-84.58
-63.95
-36.94
-6.72
22.50
46.38
61.77
67.74
65.64
58.23
48.35
38.14
28.93
21.70
17.37
16.48
19.02
23.86
29.17
33.13
34.64
33.44
29.74
23.72
15.31
4.31
-9.43
-25.68
-43.83
-62.94
-81.69
-98.52
-111.81
-120.19
-122.99
-120.49
-113.82
-104.62
-94.57
-85.21
-77.74
-72.99
-71.27
-72.20
-74.73
-77.33
-78.30
-76.15
-69.44
-57.14
-39.01
-16.12
8.65
31.08
46.92
53.51
51.02
42.49
32.39
24.74
21.67
22.86
26.20
28.90
28.54
23.70
14.29
1.48
-12.49
-24.91
-33.44
-36.95
-36.01
-32.72
-29.84
-29.72
-33.39
-40.42
-49.35
-58.48
-66.61
-73.31
-78.80
-83.32
-86.71
-88.30
-87.33
-83.62
-78.09
-72.58
-69.07
-68.78
-71.52
-75.85
-79.87
-81.97
-81.13
-76.72
-68.03
-54.17
-34.51
-9.63
18.12
44.91
66.60
80.26
85.19
82.89
76.14
67.75
59.56
52.11
45.11
38.02
30.68
23.52
17.24
12.38
8.80
5.70
1.94
-3.27
-9.87
-16.75
-22.09
-24.17
-22.18
-16.69
-9.56
-3.15
0.49
0.20
-3.98
-11.03
-19.25
-26.63
-31.31
-32.03
-28.65
-22.40
-15.67
-11.29
-11.53
-17.08
-26.62
-37.11
-44.69
-45.95
-39.06
-24.39
-4.45
16.94
35.80
49.17
55.97
57.10
54.86
51.91
50.24
50.54
52.17
53.76
53.97
52.10
48.42
44.10
40.78
39.90
42.16
46.97
52.60
56.80
57.69
54.77
49.21
43.36
39.52
38.74
40.26
42.00
41.81
38.81
33.84
29.02
26.53
27.32
30.72
34.87
37.79
38.43
37.09
35.14
34.24
35.63
39.66
45.85
53.17
60.36
66.22
69.77
70.53
68.91
66.32
64.92
66.75
72.47
80.67
87.96
90.16
84.12
69.23
47.91
24.71
4.67
-8.55
-13.85
-12.80
-8.78
-5.56
-5.78
-10.00
-16.63
-22.89
-26.22
-25.72
-22.49
-18.97
-17.45
-18.73
-21.73
-24.27
-24.45
-21.88
-17.77
-14.32
-13.47
-16.27
-22.71
-32.30
-44.34
-57.84
-70.97
-80.74
-83.44
-76.01
-57.57
-30.50
-0.20
26.62
44.28
50.08
45.03
33.05
19.15
7.51
0.28
-2.66
-3.03
-3.02
-4.29
-7.35
-11.44
-15.07
-16.69
-15.48
-11.78
-6.95
-2.92
-1.36
-3.09
-7.75
-14.10
-20.66
-26.33
-30.68
-33.98
-36.90
-40.15
-44.24
-49.24
-54.81
-60.25
-64.71
-67.42
-67.85
-65.93
-61.90
-56.47
-50.65
-45.77
-43.16
-43.64
-46.81
-50.56
-51.55
-46.40
-33.55
-14.57
5.81
21.36
26.90
20.50
4.29
-16.58
-36.10
-49.77
-55.85
-55.41
-51.09
-45.70
-41.16
-38.04
-35.98
-34.20
-32.18
-29.89
-27.68
-25.88
-24.41
-22.74
-20.11
-16.25
-11.79
-8.39
-8.10
-12.35
-21.11
-32.88
-45.27
-56.28
-65.13
-72.29
-78.79
-85.12
-90.74
-94.41
-95.26
-93.68
-91.54
-91.30
-94.41
-99.98
-104.59
-103.46
-92.43
-69.89
-37.50
0.47
38.81
73.29
101.71
123.89
140.78
153.22
161.24
164.29
161.88
154.33
142.98
129.76
116.54
104.49
93.98
84.83
76.75
69.55
63.15
57.31
51.45
44.75
36.58
26.86
16.34
6.32
-1.85
-7.33
-10.01
-10.41
-9.23
-7.00
-3.94
-0.02
4.62
9.52
13.86
16.65
17.11
14.90
10.28
4.08
-2.34
-7.37
-9.37
-7.09
-0.10
10.88
24.06
36.89
46.81
51.92
51.64
46.79
39.28
31.54
25.73
23.22
24.15
27.48
31.35
33.87
33.93
31.94
29.67
29.54
33.35
41.21
51.33
60.75
66.66
67.60
63.78
56.53
47.30
36.93
25.66
13.81
2.44
-6.56
-11.07
-9.94
-3.81
4.83
12.49
16.08
14.04
6.73
-3.91
-15.18
-24.45
-29.60
-29.30
-23.11
-11.68
3.13
18.41
30.84
37.71
37.83
31.92
22.21
11.56
2.47
-3.43
-5.46
-3.72
1.15
7.99
15.31
21.50
25.32
26.28
24.74
21.72
18.47
16.04
14.97
15.31
16.60
18.10
18.91
18.26
15.62
10.91
4.44
-3.26
-11.34
-18.82
-24.53
-27.44
-27.06
-23.70
-18.62
-13.50
-9.88
-8.65
-10.14
-14.36
-20.98
-29.18
-37.09
-41.94
-40.85
-32.26
-17.15
0.79
16.44
25.39
25.81
19.09
8.96
-0.36
-5.90
-6.78
-4.03
0.29
4.07
5.71
4.40
0.17
-6.18
-13.19
-19.11
-22.54
-22.94
-20.91
-17.94
-15.64
-15.13
-16.56
-19.36
-22.63
-25.59
-27.86
-29.35
-30.27
-31.07
-32.42
-34.99
-39.13
-44.60
-50.62
-56.50
-62.10
-68.00
-74.94
-82.92
-90.49
-95.01
-93.67
-84.75
-68.42
-46.50
-21.64
3.60
27.06
46.81
61.01
68.05
67.28
59.55
47.40
34.20
22.91
15.01
10.05
6.24
1.42
-5.86
-15.67
-26.75
-37.08
-44.61
-47.87
-46.44
-40.96
-32.92
-24.29
-17.08
-12.89
-12.59
-16.16
-22.73
-30.90
-39.16
-46.32
-51.73
-55.31
-57.22
-57.65
-56.68
-54.33
-50.62
-45.70
-39.76
-33.04
-25.97
-19.24
-13.77
-10.23
-8.46
-7.03
-3.51
4.63
18.70
37.87
59.17
78.54
92.45
99.13
98.92
93.73
85.92
77.54
70.01
64.24
60.81
59.88
60.96
62.90
64.22
63.85
61.71
58.77
56.38
55.42
55.48
55.00
51.95
45.02
34.42
21.99
10.39
2.04
-1.92
-1.93
0.50
3.62
6.24
8.02
9.26
10.27
10.91
10.61
8.66
4.64
-1.36
-8.88
-17.39
-26.60
-36.41
-46.54
-56.14
-63.60
-67.02
-65.05
-57.80
-47.13
-36.13
-27.87
-23.92
-23.66
-24.51
-23.23
-17.64
-7.70
4.46
15.62
23.02
25.65
24.56
22.15
21.09
23.08
28.31
35.64
43.36
49.94
54.58
57.10
57.61
56.11
52.47
46.87
40.12
33.86
29.92
29.48
32.26
36.46
39.49
39.13
34.58
26.57
16.77
6.72
-2.95
-12.40
-21.86
-30.72
-37.18
-38.82
-33.91
-22.53
-7.01
8.80
20.98
27.13
27.16
23.08
17.83
13.97
12.71
13.80
15.98
17.70
17.76
15.59
11.28
5.51
-0.60
-5.69
-8.40
-7.84
-4.01
2.04
8.43
12.99
14.11
11.23
5.06
-2.82
-10.57
-16.54
-19.74
-19.74
-16.74
-11.47
-5.11
0.87
5.13
6.89
6.15
3.45
-0.59
-5.76
-12.16
-19.76
-27.68
-33.90
-35.84
-31.37
-20.09
-3.86
13.68
28.40
37.32
39.55
36.46
30.76
25.26
21.69
20.27
20.05
19.64
18.11
15.41
12.34
9.92
8.93
9.51
11.17
13.00
13.90
12.81
9.09
2.81
-5.07
-12.95
-19.21
-23.02
-24.79
-26.00
-28.40
-33.02
-39.66
-47.04
-53.49
-57.68
-59.04
-57.78
-54.62
-50.57
-46.87
-44.95
-46.21
-51.49
-60.59
-71.89
-82.49
-89.01
-88.78
-81.06
-67.71
-52.82
-41.40
-37.44
-42.16
-53.44
-66.58
-76.51
-79.80
-76.05
-67.54
-57.75
-49.65
-44.58
-42.31
-41.78
-42.11
-43.02
-44.61
-47.00
-49.69
-52.06
-53.83
-55.34
-57.52
-61.50
-68.17
-77.77
-89.76
-102.61
-114.60
-124.43
-131.57
-136.32
-139.54
-142.26
-145.33
-149.25
-153.53
-157.76
-161.97
-166.95
-173.94
-184.11
-197.95
-214.65
-231.72
-243.64
-245.33
-234.10
-210.67
-178.44
-141.93
-105.40
-71.81
-42.48
-13.83
17.06
50.86
86.08
120.94
154.81
187.87
220.53
252.73
289.73
334.25
385.32
439.16
492.62
545.64
600.49
659.32
721.44
789.21
857.55
915.05
948.53
950.34
922.21
873.15
814.30
710.36
548.87
343.55
130.30
-57.00
-201.89
-303.52
-369.18
-409.04
-433.25
-443.29
-442.41
-435.55
-429.37
-429.20
-437.01
-452.54
-475.27
-505.96
-530.34
-541.49
-539.10
-528.90
-518.27
-512.12
-511.27
-512.53
-515.94
-509.20
-484.82
-441.98
-386.56
-327.61
-273.15
-227.48
-190.33
-160.65
-133.83
-108.04
-83.41
-61.65
-44.22
-30.99
-20.32
-10.15
0.76
14.14
29.02
43.40
55.44
64.43
71.12
77.32
84.97
95.29
109.20
125.77
143.49
160.96
177.50
193.30
209.28
226.51
245.88
268.31
294.11
323.10
354.33
385.59
413.29
432.91
440.32
433.18
412.12
380.37
342.62
303.46
266.03
231.76
200.82
172.92
147.91
125.84
106.63
89.74
74.27
59.25
44.12
28.92
14.33
1.35
-9.12
-16.65
-21.49
-24.53
-26.97
-29.95
-34.13
-39.42
-45.12
-50.22
-53.89
-55.79
-56.19
-55.78
-55.29
-55.28
-55.95
-57.25
-58.96
-60.83
-62.54
-63.74
-64.03
-63.13
-61.14
-58.63
-56.52
-55.70
-56.61
-58.94
-61.74
-63.81
-64.18
-62.40
-58.59
-53.13
-46.34
-38.33
-29.10
-18.83
-8.15
1.83
9.79
14.68
16.09
14.46
10.92
6.94
3.90
2.71
3.62
6.19
9.50
12.35
13.65
12.76
9.69
5.08
0.13
-3.67
-4.83
-2.22
4.35
13.70
23.25
29.62
29.91
23.09
10.71
-3.50
-15.17
-21.24
-21.19
-17.03
-12.10
-9.44
-10.65
-15.56
-22.99
-31.62
-40.72
-50.18
-60.26
-71.25
-82.94
-94.32
-103.39
-107.26
-102.92
-88.33
-63.48
-30.80
5.38
40.09
69.24
90.74
104.74
113.20
119.09
125.42
134.58
147.90
165.57
186.72
209.80
232.93
254.14
271.24
281.63
282.48
271.33
247.27
211.75
168.59
122.85
79.06
39.75
4.92
-27.29
-59.36
-93.15
-129.45
-167.96
-207.33
-244.76
-275.65
-293.96
-293.87
-272.45
-231.97
-180.20
-128.03
-85.38
-57.50
-43.60
-38.55
-36.28
-33.02
-28.33
-23.87
-20.94
-18.90
-15.35
-7.85
4.05
18.16
30.60
37.93
39.02
35.71
31.86
31.39
36.61
47.37
61.57
76.27
88.74
96.86
99.04
94.18
81.80
62.47
37.91
10.87
-15.76
-39.74
-59.96
-76.27
-88.89
-97.96
-103.46
-105.56
-104.90
-102.68
-100.20
-98.39
-97.44
-96.84
-95.81
-93.62
-89.99
-85.14
-79.66
-74.27
-69.51
-65.57
-62.22
-58.96
-55.32
-51.14
-46.74
-42.75
-39.78
-38.08
-37.30
-36.64
-35.22
-32.43
-28.27
-23.28
-18.23
-13.80
-10.28
-7.56
-5.30
-3.11
-0.83
1.52
3.74
5.62
7.03
8.00
8.63
9.09
9.50
9.90
10.22
10.34
10.17
9.71
9.11
8.62
8.48
8.77
9.31
9.72
9.53
8.49
6.66
4.44
2.36
0.88
0.12
-0.11
-0.28
-0.92
-2.36
-4.64
-7.47
-10.29
-12.49
-13.56
-13.26
-11.61
-8.86
-5.54
-2.31
0.14
1.32
1.11
-0.20
-2.04
-3.83
-5.25
-6.40
-7.70
-9.72
-12.85
