1660320778.00
64.000000
-0.00
-0.00
-0.00
-0.00
-0.00
-0.00
-0.00
-0.00
-0.00
-0.00
0.00
0.01
0.01
-0.00
-0.03
-0.05
-0.05
0.00
0.13
0.36
0.66
1.01
1.37
1.72
2.06
2.40
2.79
3.24
3.80
4.42
5.06
5.66
6.20
6.68
7.15
7.68
8.31
9.14
10.08
11.03
11.88
12.58
13.18
13.82
14.70
15.95
17.77
19.99
22.37
24.65
26.70
28.60
30.65
33.25
36.68
41.28
46.72
52.48
58.06
63.11
67.71
72.30
77.49
83.74
91.52
100.34
109.50
118.22
126.04
132.99
139.59
146.97
153.63
161.70
171.83
184.36
198.38
211.23
218.62
215.70
198.68
166.25
120.55
65.52
5.91
-54.45
-113.53
-170.94
-227.15
-282.55
-337.01
-389.47
-438.89
-483.94
-523.19
-555.05
-577.89
-590.22
-590.92
-579.70
-557.11
-525.04
-485.94
-441.97
-394.02
-341.34
-282.04
-214.54
-139.14
-58.82
21.07
94.57
156.94
206.01
242.14
267.24
283.48
292.41
295.04
292.13
284.79
274.47
262.61
250.22
237.63
224.61
210.71
195.72
179.84
163.70
148.16
133.91
121.28
110.14
100.03
90.39
80.84
71.31
62.03
53.38
45.68
39.00
33.19
27.94
22.96
18.21
13.67
9.47
5.76
2.64
0.12
-1.90
-3.56
-4.94
-6.08
-6.99
-7.68
-8.20
-8.62
-8.98
-9.28
-9.46
-9.44
-9.18
-8.73
-8.20
-7.70
-7.30
-6.95
-6.59
-6.15
-5.62
-5.04
-4.52
-4.10
-3.79
-3.54
-3.25
-2.87
-2.41
-1.97
-1.70
-1.71
-1.98
-2.40
-2.76
-2.93
-2.86
-2.63
-2.39
-2.24
-2.23
-2.27
-2.26
-2.17
-2.00
-1.85
-1.79
-1.82
-1.90
-1.99
-2.00
-1.91
-1.74
-1.52
-1.28
-1.06
-0.87
-0.70
-0.53
-0.36
-0.18
-0.00
0.17
0.33
0.49
0.66
0.85
1.08
1.39
1.77
2.19
2.61
2.96
3.17
3.26
3.29
3.35
3.53
3.86
4.28
4.68
4.88
4.78
4.33
3.57
2.63
1.62
0.59
-0.41
-1.40
-2.41
-3.44
-4.43
-5.31
-5.97
-6.39
-6.56
-6.53
-6.35
-6.06
-5.70
-5.28
-4.87
-4.49
-4.16
-3.87
-3.58
-3.25
-2.88
-2.52
-2.26
-2.11
-2.06
-2.02
-1.90
-1.66
-1.30
-0.92
-0.61
-0.46
-0.48
-0.64
-0.86
-1.05
-1.15
-1.14
-1.05
-0.93
-0.81
-0.70
-0.56
-0.36
-0.09
0.16
0.32
0.29
0.06
-0.29
-0.62
-0.80
-0.76
-0.53
-0.26
-0.10
-0.12
-0.36
-0.71
-1.06
-1.31
-1.38
-1.26
-0.96
-0.55
-0.05
0.48
1.00
1.46
1.80
1.97
1.95
1.78
1.51
1.20
0.92
0.73
0.67
0.75
0.91
1.06
1.10
0.98
0.74
0.49
0.35
0.37
0.48
0.54
0.43
0.13
-0.26
-0.59
-0.75
-0.76
-0.72
-0.79
-1.03
-1.41
-1.84
-2.24
-2.60
-2.97
-3.41
-3.86
-4.21
-4.24
-3.83
-2.99
-1.89
-0.77
0.17
0.85
1.28
1.56
1.76
1.89
1.97
2.00
2.02
2.09
2.19
2.25
2.17
1.89
1.44
0.95
0.55
0.30
0.20
0.13
0.00
-0.22
-0.48
-0.68
-0.69
-0.50
-0.19
0.09
0.16
-0.06
-0.52
-1.07
-1.53
-1.78
-1.80
-1.69
-1.53
-1.39
-1.22
-0.90
-0.36
0.39
1.21
1.91
2.32
2.39
2.17
1.86
1.62
1.54
1.60
1.70
1.78
1.77
1.71
1.62
1.51
1.34
1.10
0.78
0.43
0.17
0.04
0.04
0.09
0.09
-0.02
-0.21
-0.43
-0.59
-0.66
-0.64
-0.56
-0.46
-0.38
-0.39
-0.56
-0.91
-1.43
-2.02
-2.57
-2.96
-3.13
-3.05
-2.74
-2.22
-1.53
-0.72
0.13
0.89
1.43
1.66
1.57
1.29
0.97
0.80
0.89
1.26
1.78
2.30
2.66
2.79
2.70
2.50
2.29
2.14
2.02
1.89
1.69
1.41
1.06
0.72
0.42
0.17
-0.07
-0.33
-0.63
-0.94
-1.22
-1.39
-1.44
-1.39
-1.32
-1.30
-1.37
-1.56
-1.85
-2.24
-2.69
-3.11
-3.38
-3.37
-2.98
-2.24
-1.30
-0.40
0.25
0.55
0.56
0.43
0.37
0.49
0.80
1.21
1.63
1.95
2.14
2.18
2.09
1.91
1.67
1.41
1.20
1.07
1.05
1.13
1.25
1.34
1.30
1.08
0.70
0.23
-0.22
-0.58
-0.80
-0.89
-0.89
-0.85
-0.80
-0.80
-0.88
-1.05
-1.28
-1.53
-1.78
-2.03
-2.32
-2.68
-3.07
-3.39
-3.47
-3.18
-2.51
-1.58
-0.60
0.24
0.80
1.06
1.08
0.98
0.87
0.82
0.87
0.99
1.16
1.33
1.47
1.56
1.60
1.55
1.39
1.06
0.56
-0.01
-0.55
-0.94
-1.11
-1.07
-0.89
-0.63
-0.33
-0.01
0.27
0.45
0.44
0.20
-0.23
-0.72
-1.14
-1.40
-1.50
-1.54
-1.61
-1.74
-1.91
-2.05
-2.06
-1.89
-1.55
-1.08
-0.54
0.02
0.53
0.92
1.17
1.27
1.29
1.29
1.36
1.51
1.72
1.90
1.98
1.95
1.85
1.73
1.66
1.62
1.57
1.46
1.28
1.05
0.85
0.72
0.68
0.68
0.68
0.63
0.54
0.42
0.29
0.16
0.02
-0.12
-0.28
-0.45
-0.66
-0.94
-1.28
-1.64
-1.95
-2.09
-2.00
-1.71
-1.30
-0.91
-0.62
-0.42
-0.28
-0.13
0.07
0.31
0.54
0.73
0.83
0.86
0.85
0.83
0.83
0.85
0.86
0.80
0.66
0.47
0.35
0.42
0.73
1.21
1.67
1.92
1.86
1.53
1.06
0.61
0.25
-0.06
-0.39
-0.78
-1.19
-1.52
-1.67
-1.61
-1.43
-1.27
-1.24
-1.38
-1.61
-1.81
-1.86
-1.72
-1.42
-1.02
-0.61
-0.26
0.05
0.34
0.63
0.93
1.21
1.44
1.59
1.67
1.69
1.68
1.66
1.62
1.55
1.43
1.27
1.06
0.81
0.56
0.32
0.14
0.04
0.02
0.07
0.13
0.15
0.10
-0.01
-0.12
-0.18
-0.16
-0.08
-0.02
-0.05
-0.21
-0.48
-0.77
-0.97
-1.02
-0.93
-0.73
-0.47
-0.17
0.17
0.57
1.03
1.52
2.02
2.50
2.96
3.40
3.84
4.27
4.64
4.91
5.06
5.13
5.24
5.51
6.05
6.87
7.90
8.99
10.01
10.87
11.56
12.19
12.89
13.82
15.11
16.75
18.61
20.36
21.60
21.94
21.20
19.52
17.36
15.38
14.22
14.31
15.74
18.26
21.36
24.43
26.92
28.41
28.65
27.63
25.54
22.74
19.79
17.21
15.43
14.55
14.29
14.10
13.37
11.77
9.36
6.60
4.09
2.23
1.09
0.41
-0.16
-0.87
-1.68
-2.41
-2.88
-3.09
-3.23
-3.57
-4.23
-5.12
-6.02
-6.68
-7.04
-7.29
-7.73
-8.64
-10.07
-11.79
-13.48
-14.82
-15.70
-16.18
-16.44
-16.61
-16.72
-16.72
-16.57
-16.30
-15.96
-15.59
-15.17
-14.60
-13.78
-12.73
-11.57
-10.47
-9.60
-9.03
-8.72
-8.60
-8.60
-8.64
-8.65
-8.55
-8.29
-7.85
-7.29
-6.70
-6.14
-5.59
-4.98
-4.28
-3.45
-2.54
-1.55
-0.46
0.79
2.23
3.79
5.27
6.39
6.99
7.08
6.87
6.68
6.77
7.23
7.91
8.59
9.02
9.06
8.76
8.34
8.17
8.65
10.12
12.70
16.30
20.57
25.03
29.23
32.86
35.78
37.99
39.58
40.62
41.07
40.74
39.24
36.00
30.39
22.06
11.13
-1.57
-14.70
-26.74
-36.54
-43.58
-48.04
-50.51
-51.62
-51.75
-51.07
-49.63
-47.63
-45.46
-43.57
-42.27
-41.56
-41.14
-40.60
-39.65
-38.27
-36.69
-35.25
-34.21
-33.59
-33.24
-32.88
-32.30
-31.45
-30.40
-29.31
-28.32
-27.48
-26.79
-26.15
-25.49
-24.72
-23.81
-22.75
-21.58
-20.38
-19.21
-18.07
-16.93
-15.73
-14.44
-13.10
-11.80
-10.64
-9.65
-8.77
-7.86
-6.80
-5.60
-4.36
-3.28
-2.47
-1.95
-1.62
-1.33
-1.01
-0.67
-0.38
-0.20
-0.13
-0.08
0.02
0.21
0.42
0.54
0.47
0.14
-0.41
-1.09
-1.76
-2.34
-2.79
-3.11
-3.37
-3.65
-3.93
-4.14
-4.11
-3.73
-2.94
-1.79
-0.43
0.96
2.21
3.25
4.06
4.70
5.21
5.59
5.84
5.94
5.89
5.70
5.42
5.16
4.98
4.95
5.06
5.27
5.47
5.59
5.55
5.35
5.02
4.60
4.11
3.56
2.95
2.30
1.63
0.98
0.36
-0.30
-1.04
-1.96
-3.06
-4.32
-5.64
-6.90
-8.02
-8.93
-9.59
-9.93
-9.88
-9.35
-8.28
-6.64
-4.51
-2.09
0.35
2.52
4.15
5.16
5.61
5.70
5.67
5.70
5.89
6.20
6.54
6.84
7.08
7.29
7.47
7.55
7.40
6.91
6.00
4.74
3.31
1.97
0.91
0.19
-0.28
-0.68
-1.17
-1.82
-2.55
-3.28
-3.92
-4.47
-4.94
-5.29
-5.40
-5.07
-4.18
-2.74
-0.99
0.76
2.25
3.43
4.46
5.56
6.86
8.28
9.57
10.44
10.73
10.49
9.93
9.26
8.63
8.05
7.47
6.86
6.26
5.76
5.43
5.32
5.41
5.62
5.91
6.21
6.49
6.68
6.77
6.80
6.88
7.15
7.69
8.42
9.14
9.48
9.15
7.99
6.08
3.73
1.35
-0.73
-2.27
-3.25
-3.73
-3.80
-3.54
-3.00
-2.27
-1.44
-0.66
-0.03
0.38
0.65
0.92
1.33
1.97
2.75
3.53
4.13
4.48
4.58
4.59
4.64
4.88
5.36
6.14
7.23
8.60
10.10
11.45
12.28
12.30
11.44
9.96
8.38
7.19
6.66
6.70
6.89
6.72
5.84
4.22
2.09
-0.17
-2.25
-4.00
-5.40
-6.53
-7.42
-8.07
-8.39
-8.25
-7.58
-6.32
-4.49
-2.19
0.48
3.35
6.27
9.06
11.56
13.60
15.01
15.65
15.47
14.59
13.29
11.94
10.93
10.45
10.45
10.63
10.53
9.69
7.88
5.15
1.83
-1.62
-4.78
-7.39
-9.40
-10.93
-12.15
-13.18
-14.06
-14.72
-15.06
-14.95
-14.27
-12.96
-10.97
-8.33
-5.09
-1.34
2.78
6.97
10.82
13.83
15.58
15.87
14.91
13.27
11.65
10.61
10.31
10.47
10.56
10.03
8.57
6.18
3.16
-0.07
-3.09
-5.58
-7.31
-8.18
-8.17
-7.43
-6.20
-4.77
-3.39
-2.22
-1.24
-0.27
1.00
2.87
5.47
8.62
11.80
14.25
15.23
14.40
11.95
8.60
5.31
2.86
1.58
1.26
1.40
1.42
0.98
-0.03
-1.54
-3.44
-5.57
-7.77
-9.83
-11.46
-12.44
-12.69
-12.30
-11.48
-10.49
-9.50
-8.54
-7.52
-6.30
-4.70
-2.61
-0.04
2.81
5.51
7.54
8.47
8.21
7.07
5.72
4.85
4.91
5.89
7.35
8.64
9.18
8.61
6.91
4.30
1.13
-2.21
-5.35
-7.98
-9.90
-11.01
-11.31
-10.92
-9.97
-8.63
-7.03
-5.25
-3.31
-1.17
1.26
4.05
7.13
10.18
12.69
14.00
13.61
11.41
7.83
3.73
0.15
-2.07
-2.62
-1.78
-0.21
1.33
2.26
2.35
1.69
0.55
-0.77
-2.05
-3.23
-4.27
-5.21
-6.02
-6.67
-7.11
-7.31
-7.28
-7.01
-6.46
-5.56
-4.20
-2.30
0.06
2.60
4.87
6.34
6.67
5.84
4.22
2.38
0.91
0.12
0.01
0.23
0.35
0.07
-0.72
-1.88
-3.17
-4.36
-5.30
-5.92
-6.24
-6.30
-6.11
-5.74
-5.19
-4.52
-3.77
-3.03
-2.40
-1.96
-1.66
-1.30
-0.54
0.95
3.26
6.12
8.89
10.78
11.19
9.98
7.56
4.70
2.24
0.72
0.23
0.53
1.17
1.77
2.07
1.98
1.51
0.70
-0.36
-1.48
-2.40
-2.81
-2.48
-1.39
0.23
1.93
3.25
3.85
3.66
2.89
1.92
1.12
0.74
0.80
1.15
1.52
1.62
1.26
0.39
-0.90
-2.37
-3.73
-4.68
-5.02
-4.70
-3.85
-2.79
-1.86
-1.40
-1.57
-2.33
-3.43
-4.56
-5.45
-5.96
-6.09
-5.91
-5.46
-4.74
-3.68
-2.30
-0.69
0.94
2.34
3.37
4.01
4.40
4.70
5.05
5.45
5.79
5.92
5.77
5.34
4.76
4.15
3.63
3.21
2.84
2.45
2.01
1.51
1.00
0.52
0.07
-0.36
-0.79
-1.22
-1.62
-2.00
-2.35
-2.72
-3.15
-3.62
-4.03
-4.26
-4.15
-3.65
-2.78
-1.67
-0.46
0.69
1.66
2.40
2.88
3.14
3.25
3.30
3.35
3.38
3.33
3.13
2.75
2.29
1.89
1.67
1.64
1.71
1.70
1.50
1.10
0.61
0.17
-0.12
-0.26
-0.34
-0.46
-0.71
-1.10
-1.57
-2.05
-2.49
-2.85
-3.14
-3.35
-3.41
-3.25
-2.76
-1.89
-0.71
0.62
1.86
2.80
3.36
3.58
3.62
3.64
3.71
3.78
3.74
3.52
3.14
2.73
2.46
2.41
2.53
2.69
2.73
2.54
2.16
1.69
1.24
0.88
0.60
0.36
0.10
-0.22
-0.58
-0.94
-1.31
-1.67
-2.06
-2.50
-2.94
-3.32
-3.49
-3.33
-2.80
-1.94
-0.92
0.08
0.88
1.43
1.78
2.05
2.37
2.77
3.21
3.57
3.73
3.66
3.39
3.03
2.71
2.52
2.49
2.58
2.73
2.87
2.93
2.86
2.66
2.38
2.04
1.69
1.31
0.88
0.37
-0.21
-0.80
-1.34
-1.75
-2.00
-2.09
-2.07
-1.94
-1.70
-1.31
-0.75
-0.07
0.65
1.30
1.79
2.11
2.30
2.43
2.56
2.67
2.70
2.59
2.31
1.93
1.58
1.38
1.40
1.62
1.94
2.23
2.37
2.32
2.11
1.79
1.43
1.06
0.69
0.31
-0.12
-0.58
-1.10
-1.68
-2.30
-2.90
-3.41
-3.70
-3.69
-3.34
-2.68
-1.84
-0.97
-0.19
0.44
0.93
1.31
1.62
1.88
2.08
2.24
2.39
2.53
2.65
2.69
2.60
2.34
1.97
1.58
1.26
1.04
0.85
0.59
0.20
-0.27
-0.67
-0.87
-0.81
-0.56
-0.32
-0.29
-0.57
-1.12
-1.75
-2.26
-2.50
-2.45
-2.22
-1.96
-1.79
-1.69
-1.58
-1.35
-0.94
-0.43
0.06
0.42
0.62
0.73
0.86
1.09
1.37
1.60
1.66
1.50
1.19
0.85
0.63
0.57
0.65
0.79
0.91
0.95
0.91
0.78
0.57
0.30
-0.02
-0.35
-0.65
-0.90
-1.11
-1.31
-1.55
-1.84
-2.16
-2.44
-2.59
-2.56
-2.30
-1.80
-1.11
-0.29
0.56
1.34
1.95
2.28
2.29
2.02
1.61
1.23
1.07
1.19
1.52
1.88
2.08
1.99
1.66
1.22
0.84
0.63
0.56
0.56
0.48
0.27
-0.08
-0.49
-0.89
-1.20
-1.43
-1.60
-1.79
-2.05
-2.42
-2.90
-3.42
-3.87
-4.12
-4.02
-3.53
-2.66
-1.54
-0.36
0.71
1.56
2.16
2.57
2.86
3.08
3.21
3.23
3.08
2.78
2.36
1.88
1.41
1.00
0.69
0.48
0.34
0.22
0.09
-0.09
-0.29
-0.46
-0.57
-0.61
-0.66
-0.79
-1.06
-1.42
-1.77
-1.98
-2.03
-1.98
-2.00
-2.20
-2.61
-3.10
-3.43
-3.42
-2.98
-2.22
-1.32
-0.45
0.30
0.97
1.59
2.20
2.74
3.09
3.16
2.91
2.39
1.76
1.17
0.72
0.47
0.39
0.42
0.51
0.59
0.67
0.72
0.76
0.74
0.63
0.39
0.02
-0.42
-0.83
-1.12
-1.29
-1.42
-1.61
-1.96
-2.46
-3.01
-3.50
-3.83
-3.97
-3.97
-3.82
-3.50
-2.94
-2.09
-1.03
0.12
1.14
1.89
2.30
2.43
2.42
2.35
2.26
2.11
1.86
1.52
1.18
0.96
0.95
1.13
1.35
1.45
1.31
0.94
0.50
0.15
-0.01
0.02
0.16
0.27
0.29
0.16
-0.11
-0.52
-1.07
-1.73
-2.43
-3.04
-3.43
-3.55
-3.41
-3.10
-2.69
-2.18
-1.52
-0.67
0.35
1.40
2.28
2.83
2.97
2.76
2.35
1.91
1.56
1.33
1.22
1.20
1.26
1.38
1.53
1.68
1.78
1.78
1.61
1.26
0.72
0.09
-0.52
-0.94
-1.07
-0.94
-0.74
-0.69
-0.97
-1.58
-2.36
-3.06
-3.47
-3.53
-3.34
-3.07
-2.84
-2.66
-2.42
-1.97
-1.23
-0.24
0.87
1.90
2.67
3.06
3.09
2.84
2.47
2.11
1.85
1.71
1.63
1.57
1.49
1.38
1.28
1.22
1.18
1.13
1.01
0.76
0.42
0.02
-0.34
-0.60
-0.74
-0.81
-0.88
-1.04
-1.28
-1.58
-1.90
-2.23
-2.61
-3.06
-3.57
-4.03
-4.27
-4.13
-3.55
-2.62
-1.52
-0.46
0.42
1.10
1.65
2.10
2.48
2.72
2.75
2.61
2.35
2.14
2.09
2.25
2.57
2.92
3.16
3.22
3.08
2.84
2.61
2.51
2.57
2.74
2.92
2.99
2.88
2.62
2.29
2.03
1.91
1.92
1.99
2.00
1.88
1.65
1.44
1.38
1.58
2.09
2.88
3.84
4.80
5.57
5.91
5.62
4.62
2.97
0.91
-1.23
-3.15
-4.70
-5.91
-6.89
-7.73
-8.40
-8.74
-8.61
-8.02
-7.18
-6.41
-6.00
-6.07
-6.46
-6.91
-7.13
-7.01
-6.60
-6.08
-5.63
-5.29
-5.00
-4.67
-4.26
-3.80
-3.39
-3.15
-3.12
-3.25
-3.48
-3.70
-3.88
-4.01
-4.11
-4.17
-4.14
-3.91
-3.42
-2.65
-1.67
-0.59
0.45
1.38
2.18
2.86
3.48
4.07
4.60
5.01
5.25
5.26
5.06
4.73
4.40
4.21
4.19
4.29
4.38
4.29
3.99
3.52
3.04
2.64
2.33
2.03
1.59
0.93
0.11
-0.76
-1.52
-2.08
-2.45
-2.66
-2.79
-2.89
-2.96
-3.01
-3.05
-3.08
-3.05
-2.96
-2.77
-2.46
-2.06
-1.60
-1.12
-0.64
-0.15
0.38
0.99
1.65
2.28
2.76
2.96
2.82
2.36
1.71
1.07
0.63
0.47
0.59
0.87
1.14
1.29
1.23
1.03
0.74
0.48
0.27
0.10
-0.10
-0.37
-0.69
-0.99
-1.16
-1.12
-0.89
-0.56
-0.24
-0.08
-0.17
-0.59
-1.29
-2.16
-3.00
-3.60
-3.79
-3.51
-2.88
-2.07
-1.24
-0.48
0.21
0.87
1.51
2.08
2.54
2.85
3.05
3.18
3.32
3.43
3.47
3.38
3.16
2.84
2.49
2.18
1.93
1.74
1.61
1.55
1.56
1.61
1.67
1.68
1.60
1.39
1.04
0.55
-0.04
-0.68
-1.28
-1.77
-2.13
-2.35
-2.53
-2.72
-3.00
-3.34
-3.71
-4.06
-4.36
-4.55
-4.61
-4.46
-4.07
-3.45
-2.69
-1.87
-1.10
-0.39
0.30
1.00
1.71
2.34
2.79
2.98
2.92
2.69
2.43
2.23
2.11
2.05
1.97
1.81
1.56
1.28
1.05
0.92
0.90
0.91
0.84
0.59
0.12
-0.48
-1.07
-1.54
-1.82
-1.94
-1.95
-1.93
-1.94
-1.99
-2.11
-2.33
-2.63
-2.99
-3.29
-3.40
-3.20
-2.67
-1.92
-1.11
-0.41
0.11
0.49
0.85
1.30
1.87
2.49
3.02
3.33
3.38
3.20
2.91
2.61
2.38
2.25
2.19
2.16
2.11
2.04
1.95
1.89
1.85
1.84
1.81
1.72
1.53
1.25
0.90
0.53
0.18
-0.14
-0.46
-0.83
-1.27
-1.79
-2.30
-2.73
-3.04
-3.25
-3.41
-3.63
-3.94
-4.27
-4.51
-4.53
-4.28
-3.80
-3.15
-2.41
-1.58
-0.68
0.28
1.24
2.08
2.72
3.08
3.15
2.99
2.73
2.47
2.31
2.26
2.32
2.40
2.43
2.36
2.21
2.05
1.94
1.89
1.87
1.79
1.61
1.35
1.06
0.80
0.58
0.35
0.08
-0.28
-0.70
-1.12
-1.44
-1.62
-1.64
-1.56
-1.44
-1.36
-1.37
-1.51
-1.76
-2.12
-2.51
-2.88
-3.16
-3.26
-3.15
-2.82
-2.33
-1.74
-1.12
-0.50
0.10
0.67
1.17
1.54
1.73
1.72
1.59
1.44
1.37
1.41
1.54
1.68
1.77
1.81
1.81
1.80
1.77
1.69
1.53
1.28
0.99
0.73
0.58
0.56
0.62
0.65
0.56
0.28
-0.16
-0.68
-1.18
-1.63
-2.06
-2.51
-2.98
-3.39
-3.61
-3.58
-3.33
-2.99
-2.76
-2.73
-2.86
-2.98
-2.88
-2.48
-1.80
-1.00
-0.21
0.48
1.08
1.66
2.24
2.80
3.22
3.40
3.30
2.97
2.56
2.22
2.05
2.06
2.18
2.30
2.29
2.10
1.75
1.29
0.81
0.38
0.08
-0.08
-0.10
-0.01
0.15
0.32
0.41
0.38
0.19
-0.14
-0.54
-0.93
-1.21
-1.38
-1.45
-1.54
-1.75
-2.15
-2.72
-3.32
-3.76
-3.86
-3.56
-2.93
-2.16
-1.45
-0.94
-0.61
-0.33
0.02
0.52
1.13
1.72
2.17
2.40
2.44
2.37
2.29
2.23
2.22
2.27
2.36
2.46
2.54
2.51
2.33
2.00
1.58
1.19
0.93
0.85
0.91
1.01
1.04
0.90
0.54
0.01
-0.62
-1.24
-1.72
-1.99
-2.05
-1.97
-1.86
-1.81
-1.88
-2.09
-2.41
-2.78
-3.11
-3.31
-3.26
-2.89
-2.20
-1.31
-0.43
0.28
0.69
0.82
0.80
0.79
0.91
1.20
1.58
1.93
2.15
2.17
2.02
1.80
1.57
1.40
1.27
1.15
0.99
0.79
0.55
0.32
0.14
0.01
-0.07
-0.10
-0.08
-0.00
0.10
0.16
0.11
-0.14
-0.60
-1.20
-1.81
-2.25
-2.40
-2.25
-1.93
-1.66
-1.63
-1.92
-2.47
-3.08
-3.54
-3.73
-3.64
-3.33
-2.88
-2.31
-1.63
-0.83
0.04
0.87
1.53
1.90
1.97
1.78
1.44
1.06
0.79
0.72
0.87
1.21
1.60
1.86
1.90
1.69
1.34
1.00
0.76
0.66
0.63
0.60
0.52
0.39
0.27
0.20
0.19
0.20
0.14
-0.04
-0.35
-0.76
-1.26
-1.79
-2.33
-2.84
-3.25
-3.49
-3.47
-3.18
-2.65
-2.00
-1.32
-0.71
-0.19
0.26
0.64
0.95
1.17
1.28
1.32
1.36
1.45
1.63
1.87
2.11
2.28
2.37
2.34
2.20
1.95
1.62
1.23
0.81
0.42
0.11
-0.11
-0.21
-0.19
-0.09
0.06
0.21
0.32
0.37
0.32
0.16
-0.16
-0.63
-1.24
-1.93
-2.59
-3.12
-3.43
-3.48
-3.28
-2.87
-2.30
-1.63
-0.90
-0.17
0.50
1.07
1.51
1.80
1.95
2.02
2.03
2.02
2.02
2.01
1.96
1.84
1.65
1.45
1.28
1.19
1.16
1.12
1.02
0.85
0.68
0.63
0.78
1.13
1.48
1.62
1.35
0.60
-0.48
-1.64
-2.60
-3.19
-3.37
-3.24
-2.95
-2.65
-2.44
-2.38
-2.47
-2.68
-2.91
-3.02
-2.90
-2.45
-1.72
-0.86
-0.05
0.56
0.91
1.09
1.22
1.40
1.62
1.81
1.87
1.77
1.57
1.41
1.40
1.54
1.74
1.86
1.82
1.61
1.31
1.03
0.87
0.81
0.81
0.75
0.56
0.18
-0.36
-0.99
-1.59
-2.04
-2.27
-2.25
-2.06
-1.78
-1.49
-1.25
-1.10
-1.06
-1.14
-1.31
-1.49
-1.56
-1.44
-1.09
-0.61
-0.12
0.27
0.55
0.79
1.10
1.50
1.90
2.17
2.19
1.98
1.66
1.40
1.29
1.32
1.33
1.19
0.83
0.34
-0.13
-0.39
-0.37
-0.10
0.29
0.65
0.84
0.81
0.55
0.11
-0.43
-0.98
-1.42
-1.71
-1.85
-1.89
-1.91
-1.97
-2.08
-2.25
-2.45
-2.63
-2.75
-2.74
-2.55
-2.17
-1.65
-1.08
-0.58
-0.22
-0.02
0.08
0.18
0.36
0.65
1.03
1.46
1.87
2.25
2.56
2.80
2.93
2.91
2.71
2.34
1.86
1.36
0.93
0.63
0.48
0.43
0.44
0.49
0.56
0.65
0.77
0.88
0.94
0.93
0.81
0.60
0.32
-0.01
-0.37
-0.75
-1.14
-1.51
-1.81
-1.99
-2.01
-1.86
-1.60
-1.30
-1.03
-0.82
-0.65
-0.52
-0.41
-0.33
-0.28
-0.21
-0.06
0.23
0.67
1.17
1.62
1.88
1.89
1.68
1.33
0.94
0.59
0.32
0.13
0.05
0.08
0.23
0.46
0.71
0.89
0.94
0.85
0.67
0.47
0.30
0.17
0.09
0.01
-0.12
-0.34
-0.68
-1.13
-1.63
-2.04
-2.26
-2.20
-1.88
-1.39
-0.87
-0.45
-0.20
-0.09
-0.08
-0.08
-0.03
0.11
0.38
0.75
1.14
1.48
1.67
1.71
1.64
1.56
1.52
1.53
1.52
1.43
1.24
0.98
0.71
0.45
0.20
-0.03
-0.25
-0.40
-0.41
-0.26
0.00
0.22
0.27
0.07
-0.33
-0.81
-1.25
-1.59
-1.87
-2.15
-2.45
-2.74
-2.92
-2.91
-2.70
-2.36
-2.02
-1.76
-1.61
-1.49
-1.26
-0.82
-0.18
0.57
1.28
1.78
2.02
2.03
1.92
1.78
1.65
1.51
1.31
1.03
0.72
0.46
0.32
0.33
0.42
0.50
0.51
0.43
0.32
0.24
0.20
0.14
-0.02
-0.37
-0.89
-1.46
-1.90
-2.06
-1.91
-1.51
-1.06
-0.73
-0.62
-0.71
-0.86
-0.89
-0.71
-0.29
0.25
0.74
1.04
1.09
0.97
0.78
0.63
0.54
0.47
0.36
0.16
-0.09
-0.32
-0.47
-0.48
-0.37
-0.14
0.18
0.54
0.91
1.21
1.38
1.35
1.14
0.81
0.49
0.27
0.21
0.30
0.43
0.53
0.52
0.40
0.21
-0.00
-0.22
-0.46
-0.77
-1.18
-1.63
-2.03
-2.25
-2.21
-1.92
-1.43
-0.85
-0.28
0.21
0.54
0.72
0.73
0.61
0.43
0.28
0.26
0.40
0.69
1.03
1.28
1.35
1.19
0.84
0.41
0.05
-0.13
-0.07
0.19
0.49
0.71
0.71
0.51
0.19
-0.11
-0.28
-0.31
-0.26
-0.19
-0.18
-0.20
-0.20
-0.16
-0.13
-0.22
-0.55
-1.17
-1.97
-2.73
-3.21
-3.24
-2.78
-1.99
-1.11
-0.38
0.05
0.19
0.17
0.15
0.23
0.39
0.54
0.58
0.45
0.22
0.01
-0.06
0.04
0.23
0.43
0.53
0.56
0.57
0.61
0.69
0.73
0.63
0.38
0.07
-0.16
-0.20
-0.06
0.16
0.32
0.31
0.12
-0.16
-0.43
-0.64
-0.79
-0.91
-1.01
-1.09
-1.14
-1.15
-1.15
-1.20
-1.31
-1.45
-1.54
-1.51
-1.31
-0.97
-0.53
-0.05
0.40
0.82
1.17
1.42
1.58
1.65
1.67
1.71
1.82
2.01
2.18
2.24
2.11
1.79
1.39
1.02
0.78
0.65
0.56
0.42
0.22
-0.01
-0.21
-0.34
-0.43
-0.51
-0.64
-0.82
-1.00
-1.16
-1.28
-1.38
-1.50
-1.66
-1.87
-2.09
-2.28
-2.39
-2.36
-2.14
-1.70
-1.09
-0.42
0.20
0.69
1.02
1.24
1.38
1.50
1.61
1.69
1.71
1.65
1.50
1.31
1.15
1.10
1.22
1.47
1.74
1.90
1.85
1.64
1.37
1.18
1.11
1.09
1.00
0.74
0.33
-0.13
-0.52
-0.74
-0.81
-0.80
-0.78
-0.79
-0.82
-0.87
-0.96
-1.16
-1.46
-1.82
-2.15
-2.33
-2.28
-1.99
-1.49
-0.88
-0.26
0.28
0.69
0.96
1.10
1.16
1.19
1.23
1.29
1.38
1.48
1.57
1.64
1.66
1.63
1.54
1.41
1.27
1.12
0.93
0.67
0.31
-0.10
-0.48
-0.71
-0.73
-0.56
-0.32
-0.14
-0.12
-0.29
-0.59
-0.94
-1.28
-1.56
-1.78
-1.95
-2.10
-2.21
-2.28
-2.32
-2.30
-2.23
-2.06
-1.76
-1.34
-0.80
-0.20
0.38
0.90
1.32
1.62
1.82
1.94
1.96
1.90
1.79
1.67
1.59
1.57
1.62
1.69
1.71
1.64
1.48
1.29
1.12
1.06
1.11
1.20
1.22
1.08
0.72
0.18
-0.40
-0.88
-1.16
-1.20
-1.06
-0.86
-0.74
-0.78
-0.97
-1.28
-1.60
-1.87
-2.04
-2.12
-2.10
-1.99
-1.77
-1.41
-0.92
-0.37
0.14
0.54
0.77
0.87
0.89
0.88
0.86
0.82
0.75
0.64
0.53
0.46
0.43
0.46
0.52
0.59
0.69
0.81
1.00
1.24
1.47
1.63
1.65
1.53
1.29
1.00
0.71
0.47
0.29
0.17
0.06
-0.06
-0.24
-0.47
-0.73
-0.99
-1.21
-1.35
-1.42
-1.42
-1.39
-1.33
-1.28
-1.25
-1.24
-1.28
-1.36
-1.44
-1.45
-1.31
-0.96
-0.41
0.26
0.93
1.45
1.72
1.71
1.48
1.16
0.86
0.69
0.67
0.80
1.01
1.24
1.43
1.53
1.53
1.43
1.22
0.92
0.57
0.21
-0.10
-0.30
-0.37
-0.32
-0.20
-0.08
-0.03
-0.05
-0.10
-0.09
0.05
0.32
0.59
0.72
0.54
0.05
-0.58
-1.10
-1.24
-0.85
0.01
1.14
2.20
2.91
3.15
3.02
2.79
2.75
3.16
4.08
5.33
6.55
7.29
7.32
6.84
6.33
6.34
7.34
9.26
11.54
13.20
13.21
11.10
7.27
2.85
-0.71
-1.98
-0.17
4.62
11.38
18.34
23.47
25.09
22.09
14.14
2.06
-11.79
-23.38
-28.52
-25.43
-15.56
-2.10
11.91
23.71
33.56
42.02
49.39
55.48
59.79
61.95
62.06
60.50
57.73
54.30
50.36
45.86
40.52
33.97
26.09
17.26
8.12
-0.56
-8.08
-14.21
-19.11
-23.17
-26.89
-30.59
-34.33
-37.94
-41.22
-43.90
-45.90
-47.18
-47.76
-47.72
-47.21
-46.40
-45.47
-44.59
-43.78
-42.99
-42.06
-40.82
-39.17
-37.14
-34.90
-32.63
-30.50
-28.55
-26.78
-25.09
-23.42
-21.78
-20.24
-18.92
-17.85
-16.99
-16.14
-15.09
-13.69
-11.91
-9.92
-7.96
-6.26
-4.95
-4.00
-3.21
-2.37
-1.32
-0.04
1.30
2.44
3.12
3.24
2.88
2.30
1.79
1.56
1.62
1.81
1.94
1.92
1.79
1.71
1.81
2.10
2.47
2.74
2.77
2.54
2.17
1.79
1.52
1.35
1.21
1.00
0.63
0.12
-0.42
-0.87
-1.10
-1.11
-0.96
-0.81
-0.77
-0.88
-1.07
-1.22
-1.23
-1.10
-0.85
-0.57
-0.26
0.11
0.56
1.07
1.61
2.08
2.43
2.60
2.62
2.51
2.31
2.06
1.81
1.62
1.51
1.48
1.46
1.37
1.18
0.92
0.67
0.55
0.59
0.74
0.91
1.00
1.00
0.95
0.96
1.06
1.22
1.34
1.30
1.01
0.47
-0.23
-0.99
-1.65
-2.14
-2.45
-2.65
-2.80
-2.93
-2.97
-2.79
-2.27
-1.41
-0.35
0.65
1.38
1.77
1.93
2.03
2.18
2.39
2.51
2.42
2.11
1.67
1.27
1.03
0.94
0.89
0.76
0.52
0.22
-0.01
-0.06
0.04
0.24
0.43
0.57
0.68
0.83
1.04
1.27
1.37
1.22
0.73
-0.06
-1.01
-1.94
-2.71
-3.25
-3.57
-3.74
-3.80
-3.80
-3.72
-3.49
-3.04
-2.33
-1.37
-0.27
0.79
1.63
2.13
2.29
2.21
2.06
1.98
1.99
2.06
2.09
2.03
1.89
1.76
1.74
1.88
2.15
2.44
2.60
2.57
2.36
2.06
1.82
1.72
1.77
1.87
1.89
1.70
1.24
0.57
-0.18
-0.78
-1.02
-0.73
0.10
1.34
2.81
4.31
5.75
7.17
8.63
10.19
11.75
13.14
14.21
14.88
15.25
15.46
15.65
15.82
15.87
15.67
15.15
14.42
13.65
13.03
12.63
12.37
12.04
11.41
10.36
8.86
7.02
4.99
2.89
0.80
-1.24
-3.20
-5.03
-6.67
-8.07
-9.17
-10.01
-10.61
-11.03
-11.33
-11.60
