1660755687.00
64.000000
-0.00
-0.00
-0.00
-0.00
-0.00
-0.00
-0.00
-0.00
-0.00
-0.00
0.00
0.01
0.01
-0.00
-0.03
-0.05
-0.05
0.00
0.13
0.36
0.66
1.01
1.37
1.72
2.06
2.40
2.79
3.24
3.80
4.42
5.06
5.66
6.20
6.68
7.15
7.68
8.31
9.14
10.09
11.04
11.88
12.56
13.14
13.76
14.65
15.96
17.91
20.32
22.90
25.38
27.58
29.57
31.68
34.32
37.81
42.54
48.15
54.10
59.83
64.97
69.58
74.14
79.34
85.71
93.76
103.00
112.62
121.73
129.77
136.75
143.30
150.75
157.77
166.64
177.95
191.79
206.97
220.57
228.25
225.36
208.53
176.87
132.76
80.05
23.07
-34.94
-92.44
-149.16
-205.23
-260.37
-313.74
-363.87
-409.83
-450.91
-486.50
-515.74
-537.23
-549.22
-549.96
-538.37
-514.21
-478.67
-433.88
-382.45
-327.02
-269.84
-212.63
-156.66
-102.95
-52.37
-5.90
35.58
71.43
101.35
125.50
144.38
158.69
169.15
176.37
180.75
182.57
182.07
179.51
175.23
169.65
163.18
156.15
148.81
141.30
133.69
126.02
118.33
110.69
103.16
95.80
88.68
81.83
75.25
68.95
62.95
57.25
51.86
46.78
42.03
37.59
33.45
29.61
26.07
22.81
19.83
17.11
14.67
12.48
10.54
8.83
7.35
6.07
4.97
4.05
3.27
2.62
2.09
1.65
1.30
1.01
0.79
0.61
0.48
0.37
0.28
0.22
0.18
0.14
0.11
0.10
0.09
0.09
0.10
0.11
0.12
0.15
0.17
0.20
0.24
0.29
0.35
0.41
0.45
0.45
0.42
0.35
0.29
0.25
0.26
0.33
0.42
0.52
0.59
0.60
0.58
0.56
0.58
0.68
0.85
1.07
1.27
1.40
1.43
1.39
1.37
1.47
1.75
2.21
2.75
3.23
3.48
3.46
3.24
3.02
3.03
3.47
4.31
5.36
6.27
6.71
6.53
5.89
5.19
4.93
5.43
6.72
8.41
9.86
10.48
9.92
8.36
6.27
4.28
2.75
1.64
0.47
-1.47
-4.77
-9.91
-16.97
-25.75
-35.53
-44.80
-51.38
-52.93
-47.85
-36.30
-20.43
-3.91
9.50
17.37
19.43
17.40
13.86
10.98
9.76
9.97
10.92
12.06
13.45
15.47
18.38
21.91
25.33
27.76
28.78
28.77
28.56
29.08
30.82
33.49
36.33
38.59
40.07
41.25
43.12
46.27
50.96
56.88
63.35
69.61
75.14
79.86
84.22
89.12
95.08
102.52
111.41
120.98
129.95
136.80
140.28
139.89
136.14
129.71
121.91
114.00
106.76
100.30
94.01
86.73
76.77
66.05
54.99
43.69
31.94
19.22
4.91
-11.41
-29.79
-49.68
-69.99
-89.77
-107.77
-122.73
-133.66
-140.05
-142.06
-140.49
-136.59
-131.69
-127.30
-124.30
-122.95
-123.11
-124.71
-127.98
-133.57
-142.01
-153.03
-165.35
-176.46
-183.54
-184.66
-179.77
-170.63
-160.00
-150.28
-142.51
-136.42
-130.87
-124.81
-117.84
-110.19
-102.31
-94.36
-86.12
-77.16
-67.21
-56.20
-44.30
-31.89
-19.47
-7.76
2.48
10.53
15.95
18.66
18.89
16.87
12.82
6.94
-0.29
-7.91
-14.56
-18.86
-19.88
-17.58
-12.73
-6.61
-0.53
4.67
8.75
11.94
14.67
17.34
20.15
23.16
26.36
29.77
33.40
37.11
40.64
43.57
45.45
46.00
45.21
43.34
40.74
37.74
34.56
31.39
28.50
26.26
25.09
25.21
26.51
28.55
30.71
32.43
33.39
33.57
33.17
32.45
31.69
31.02
30.48
29.88
28.98
27.55
25.54
23.21
21.02
19.52
19.06
19.65
20.98
22.54
23.91
24.95
25.72
26.39
27.04
27.42
27.13
25.70
22.92
19.02
14.60
10.40
7.02
4.59
2.89
1.44
-0.07
-1.68
-3.14
-4.15
-4.54
-4.43
-4.11
-3.83
-3.69
-3.59
-3.37
-2.95
-2.44
-2.11
-2.25
-2.97
-4.17
-5.56
-6.81
-7.73
-8.43
-9.19
-10.32
-11.89
-13.60
-14.78
-14.72
-12.94
-9.46
-4.85
0.04
4.40
7.73
9.92
11.10
11.45
11.09
10.09
8.54
6.74
5.09
4.07
3.96
4.71
5.92
7.05
7.64
7.61
7.37
7.56
8.77
11.23
14.63
18.28
21.44
23.70
25.08
25.93
26.60
27.30
27.88
28.09
27.60
26.24
23.94
20.76
16.83
12.40
7.91
3.85
0.69
-1.34
-2.35
-2.65
-2.63
-2.49
-2.17
-1.47
-0.18
1.62
3.57
5.09
5.60
4.78
2.65
-0.41
-3.81
-6.94
-9.31
-10.70
-11.25
-11.37
-11.65
-12.60
-14.50
-17.32
-20.74
-24.24
-27.24
-29.21
-29.74
-28.61
-25.90
-21.96
-17.41
-12.99
-9.27
-6.52
-4.57
-3.03
-1.51
0.16
1.84
3.22
4.07
4.37
4.26
4.00
3.72
3.39
2.91
2.22
1.43
0.71
0.21
-0.13
-0.54
-1.31
-2.58
-4.24
-5.98
-7.46
-8.45
-8.93
-8.97
-8.73
-8.28
-7.68
-6.97
-6.20
-5.34
-4.31
-2.94
-1.12
1.14
3.56
5.70
7.12
7.59
7.24
6.51
5.86
5.54
5.39
4.92
3.58
1.05
-2.60
-7.00
-11.64
-16.04
-19.79
-22.54
-23.99
-24.07
-23.11
-21.80
-21.03
-21.35
-22.67
-24.16
-24.70
-23.47
-20.42
-16.20
-11.73
-7.46
-3.14
2.03
8.76
17.03
25.80
33.45
38.45
40.17
39.14
36.65
34.13
32.45
31.77
31.69
31.69
31.34
30.36
28.44
25.17
20.09
12.90
3.58
-7.54
-19.87
-32.82
-45.81
-58.16
-68.90
-76.61
-79.71
-76.95
-68.18
-54.75
-39.38
-25.39
-15.52
-10.94
-10.87
-13.15
-15.28
-15.52
-13.30
-9.02
-3.30
3.44
11.05
19.32
27.54
34.54
39.09
40.40
38.56
34.49
29.51
24.87
21.37
19.22
18.25
18.04
18.16
18.27
18.24
18.11
18.11
18.57
19.67
21.41
23.51
25.53
27.01
27.57
27.02
25.25
22.31
18.29
13.39
7.84
1.85
-4.36
-10.57
-16.48
-21.75
-26.03
-29.13
-31.06
-32.06
-32.41
-32.29
-31.68
-30.39
-28.20
-25.03
-20.96
-16.28
-11.31
-6.35
-1.57
3.07
7.74
12.66
17.95
23.54
29.09
34.29
39.02
43.56
48.50
54.50
61.85
70.29
79.08
87.35
94.62
101.09
107.56
115.10
124.57
136.32
150.24
166.00
183.09
200.86
218.01
232.29
240.77
240.75
231.16
213.54
191.82
170.91
154.55
143.84
136.88
130.04
119.78
104.13
82.89
56.80
26.61
-7.13
-43.36
-79.72
-112.02
-135.26
-145.60
-142.19
-127.55
-106.28
-83.05
-60.98
-41.49
-24.74
-10.79
-0.28
5.72
6.72
3.62
-1.26
-5.08
-6.39
-5.06
-2.03
1.00
2.20
0.07
-5.77
-13.61
-19.13
-17.52
-3.03
28.42
75.99
132.09
184.35
220.53
233.63
224.31
195.95
155.79
111.61
68.45
27.04
-14.57
-57.74
-101.32
-142.24
-183.21
-226.19
-270.89
-315.71
-359.84
-403.45
-446.63
-488.59
-528.30
-572.34
-623.24
-676.05
-720.11
-745.10
-745.79
-723.66
-685.86
-599.74
-461.23
-294.22
-133.92
-0.93
103.37
185.33
249.89
297.65
333.92
355.21
360.69
354.78
344.91
336.81
332.75
330.48
329.18
329.32
325.94
316.78
303.82
291.39
282.29
276.19
270.98
265.00
257.66
245.49
226.74
202.81
177.23
153.17
132.23
114.97
102.09
94.29
89.76
85.03
77.86
68.29
57.61
46.79
36.16
26.06
16.83
7.91
-4.75
-23.43
-45.95
-67.09
-82.26
-89.51
-89.51
-85.00
-79.96
-84.15
-103.91
-136.82
-173.40
-203.25
-219.25
-219.04
-205.27
-184.81
-174.46
-188.11
-228.60
-289.07
-359.76
-431.80
-497.90
-551.87
-540.69
-437.62
-263.99
-74.04
85.28
192.05
245.18
255.79
241.02
218.65
194.84
166.16
136.86
113.98
101.44
99.62
106.25
117.52
128.69
129.05
110.73
74.07
33.57
0.61
-17.58
-18.76
-5.24
17.61
39.88
54.13
59.88
61.56
63.38
67.98
75.56
84.59
92.96
97.16
95.33
88.92
81.16
74.22
69.23
66.31
64.96
64.54
63.88
61.80
58.31
54.31
50.37
46.95
44.14
41.85
40.14
39.37
39.86
42.24
47.43
55.86
67.50
81.74
97.51
113.68
129.35
142.81
152.75
158.79
160.95
159.19
153.14
142.36
126.70
106.55
80.11
47.09
10.15
-25.69
-55.54
-76.15
-86.43
-86.88
-79.13
-71.00
-68.39
-71.62
-76.34
-77.75
-73.42
-63.65
-50.51
-37.11
-35.94
-56.20
-97.71
-152.36
-210.51
-265.63
-314.98
-358.47
-397.45
-445.80
-513.59
-599.84
-695.33
-790.58
-880.76
-965.14
-1044.61
-1045.07
-928.48
-716.34
-473.88
-258.56
-93.46
24.57
108.60
171.97
224.40
259.38
265.26
246.41
212.61
172.16
129.98
89.34
54.54
31.17
14.89
1.11
-10.42
-12.96
-5.22
9.79
27.59
45.02
60.85
69.27
66.47
54.15
37.75
22.70
13.01
10.53
15.20
25.36
35.57
41.25
41.45
38.17
34.21
32.31
34.20
40.23
49.51
59.36
67.39
72.96
76.98
80.89
86.26
94.04
104.25
115.95
127.89
139.05
149.36
159.58
170.96
184.74
201.53
220.96
241.83
262.85
283.31
303.37
323.98
346.23
370.92
398.46
429.03
462.74
499.12
536.14
569.85
595.25
608.35
608.19
597.33
580.12
559.76
535.99
505.14
462.54
406.01
337.97
264.76
193.78
129.98
74.15
23.54
-25.65
-75.85
-126.96
-176.92
-223.40
-264.91
-301.77
-335.69
-368.85
-402.96
-439.05
-477.90
-520.33
-566.86
-616.49
-665.62
-707.90
-735.67
-742.92
-727.79
-693.48
-646.83
-595.41
-544.66
-496.84
-451.68
-408.20
-366.16
-326.19
-288.99
-254.19
-220.20
-184.84
-146.75
-106.16
-64.95
-25.96
8.46
37.62
62.83
86.91
112.99
143.13
177.45
214.14
250.48
284.08
313.99
341.02
367.17
394.77
425.82
461.74
503.03
548.85
596.18
639.46
671.16
683.71
671.99
635.29
577.68
506.43
429.46
352.96
280.26
212.14
147.94
86.68
27.46
-30.46
-88.01
-146.57
-207.80
-273.09
-342.41
-413.18
-479.58
-533.67
-567.46
-575.91
-558.91
-521.26
-470.45
-413.50
-354.85
-296.92
-242.61
-197.60
-170.27
-168.28
-193.64
-239.58
-291.42
-331.73
-347.20
-333.51
-295.79
-245.01
-192.25
-144.45
-103.23
-66.56
-31.62
3.15
37.75
71.41
103.50
134.05
163.73
193.15
222.87
253.16
284.10
315.82
348.88
384.49
424.27
469.12
517.72
565.36
604.45
626.58
625.65
600.40
554.61
495.02
428.00
357.11
283.52
208.63
137.07
77.74
41.87
38.78
71.71
135.60
218.07
303.04
375.13
423.47
443.77
437.82
411.47
371.86
325.18
275.42
224.73
174.39
125.98
81.55
42.90
10.14
-18.81
-47.72
-80.48
-119.22
-163.38
-210.05
-255.36
-296.28
-331.94
-363.76
-394.65
-427.75
-465.46
-509.22
-559.40
-614.98
-672.89
-727.59
-771.43
-796.56
-797.66
-774.03
-730.07
-673.54
-612.55
-552.88
-496.91
-444.51
-394.83
-347.81
-304.40
-265.79
-232.19
-202.35
-174.01
-144.88
-113.64
-80.33
-46.37
-13.67
16.18
42.56
66.19
88.83
112.68
139.55
170.20
204.08
239.57
274.81
308.32
339.65
369.46
399.14
430.38
464.85
504.25
549.89
601.92
657.96
712.38
756.86
782.60
783.55
758.80
713.02
654.41
591.29
529.26
470.13
413.09
356.89
301.56
248.54
199.66
155.53
114.80
74.71
32.35
-13.93
-63.84
-115.21
-165.26
-211.77
-254.01
-292.96
-330.66
-369.41
-411.20
-457.59
-509.62
-567.15
-627.90
-686.60
-735.42
-766.03
-772.55
-754.13
-715.41
-664.77
-610.97
-559.96
-513.64
-470.61
-428.44
-385.71
-342.75
-301.10
-262.14
-226.02
-191.39
-155.96
-117.46
-74.65
-28.07
20.12
66.80
109.07
145.61
177.19
206.43
236.84
271.24
310.70
354.71
402.00
451.13
500.29
546.52
585.49
612.78
626.59
630.20
632.07
642.61
668.74
709.47
755.26
792.16
808.33
799.14
768.12
723.75
674.29
624.16
573.52
520.70
465.17
408.98
355.27
305.99
260.05
213.37
161.14
100.36
31.70
-40.64
-110.04
-170.61
-219.49
-257.61
-288.87
-318.63
-352.10
-392.94
-441.80
-495.47
-547.37
-589.41
-614.29
-618.21
-602.25
-572.55
-538.14
-509.12
-491.25
-483.03
-478.83
-473.74
-466.46
-458.52
-452.08
-447.91
-444.26
-438.13
-427.23
-411.99
-393.79
-375.15
-358.26
-344.18
-332.74
-322.13
-310.20
-295.46
-277.77
-258.01
-237.47
-216.62
-194.33
-172.70
-151.46
-129.56
-106.14
-81.12
-55.23
-29.93
-6.73
13.11
28.88
41.30
51.60
61.09
70.63
80.36
89.60
97.25
102.29
104.17
103.74
102.51
102.18
104.00
108.30
114.44
121.15
127.39
132.70
137.83
143.98
152.31
163.65
178.80
198.90
225.14
257.35
292.05
321.97
337.44
330.53
299.24
249.65
194.19
146.68
116.88
107.61
115.89
136.22
164.11
196.74
231.51
263.77
286.33
291.39
274.01
235.20
182.11
125.49
75.88
40.07
20.05
14.58
22.03
42.33
76.69
124.88
182.27
238.84
281.78
300.86
293.43
266.13
231.31
200.53
178.58
161.77
141.37
109.76
65.08
11.75
-42.70
-91.68
-131.71
-161.85
-181.36
-188.42
-181.40
-161.26
-133.19
-104.93
-83.04
-69.59
-61.73
-54.84
-47.04
-41.62
-45.18
-62.59
-92.41
-126.31
-152.69
-162.37
-152.59
-127.24
-93.74
-58.49
-24.14
10.40
47.61
88.49
131.14
170.93
202.04
219.74
222.27
211.34
191.15
166.30
139.73
111.91
81.72
48.59
14.40
-16.47
-38.94
-48.88
-44.25
-25.17
6.66
48.54
96.75
146.18
190.50
223.00
239.04
237.77
222.19
197.59
169.24
140.74
113.70
88.48
64.36
41.30
20.29
2.72
-10.97
-21.66
-31.07
-40.66
-50.92
-63.60
-78.65
-93.96
-106.61
-114.94
-119.59
-122.70
-126.52
-132.24
-144.73
-165.72
-192.43
-219.38
-242.32
-260.55
-276.11
-291.69
-308.95
-336.05
-376.68
-427.31
-479.58
-526.26
-564.93
-597.37
-627.33
-658.96
-706.19
-777.00
-867.52
-963.23
-1046.74
-1104.94
-1131.65
-1127.95
-1034.33
-832.81
-555.75
-267.71
-21.43
163.96
293.53
380.45
436.90
471.97
482.31
466.49
433.11
395.63
364.90
344.81
333.82
327.98
323.45
309.84
281.54
238.42
187.28
135.85
88.70
48.46
15.69
-10.28
-35.05
-62.61
-91.66
-116.77
-132.61
-136.64
-125.97
-99.41
-59.97
-14.33
31.74
75.87
118.76
161.85
205.58
253.75
307.96
366.63
425.03
478.48
524.80
564.39
598.78
629.06
661.34
698.74
739.91
779.91
813.06
835.87
847.40
848.64
804.09
698.36
539.54
355.77
178.05
26.00
-93.75
-182.98
-245.94
-287.60
-306.34
-302.27
-279.91
-248.00
-216.95
-194.46
-184.46
-185.51
-193.69
-199.14
-194.45
-177.50
-151.68
-122.99
-96.75
-76.75
-62.49
-53.64
-46.66
-38.93
-29.62
-19.39
-9.14
4.52
17.39
30.70
44.22
58.47
73.16
87.12
98.68
106.46
110.06
109.39
106.08
101.02
95.40
89.98
84.92
79.97
74.80
69.27
63.04
56.72
50.27
43.54
36.32
28.38
19.61
10.01
-0.26
-11.26
-22.52
-33.91
-45.34
-56.68
-67.71
-78.08
-87.38
-95.19
-101.33
-105.53
-107.89
-108.62
-107.93
-105.91
-102.56
-97.80
-91.67
-84.49
-76.78
-69.32
-62.81
-57.62
-53.55
-49.83
-45.40
-39.37
-31.56
-22.69
-14.37
-8.49
-6.61
-9.34
-16.20
-25.90
-37.16
-49.39
-63.15
-79.88
-101.09
-127.37
-157.55
-188.93
-217.82
-240.88
-256.36
-264.65
-268.17
-270.94
-277.55
-291.95
-315.79
-346.93
-378.69
-400.74
-401.84
-373.88
-315.61
-234.36
-144.66
-64.28
-8.96
12.19
-0.59
-38.21
-85.60
-126.18
-146.34
-138.47
-101.56
-39.63
40.59
131.32
224.23
310.17
379.96
426.38
446.89
445.24
430.44
413.03
400.54
394.41
390.44
381.94
363.67
334.24
296.11
253.55
210.37
168.74
129.25
91.76
56.04
21.79
-11.40
-44.33
-78.12
-113.69
-151.17
-189.84
-228.29
-265.07
-299.34
-331.32
-362.36
-394.89
-431.92
-476.21
-528.82
-587.57
-646.28
-695.66
-725.90
-730.19
-707.42
-662.57
-604.58
-542.62
-482.89
-427.35
-374.84
-323.41
-272.37
-222.89
-176.97
-135.93
-99.30
-64.93
-30.12
7.07
46.95
87.97
127.65
163.88
195.92
224.80
252.92
282.90
316.54
354.54
396.84
443.18
493.00
544.53
593.73
634.14
658.08
659.16
634.71
586.94
522.06
447.94
371.62
297.63
228.10
163.58
103.89
48.47
-4.06
-56.41
-112.55
-176.49
-250.13
-331.29
-413.04
-484.92
-536.37
-560.73
-557.78
-533.74
-498.36
-460.82
-426.32
-395.29
-365.03
-332.60
-296.99
-259.51
-222.41
-186.99
-152.45
-116.26
-75.54
-28.72
23.58
78.54
132.61
182.86
228.25
269.89
310.29
352.29
398.27
449.80
507.54
570.96
637.50
701.99
756.98
794.43
808.44
797.48
765.07
718.38
665.56
613.07
564.48
520.75
481.39
445.64
412.62
381.05
348.96
314.08
274.76
230.92
183.99
136.22
89.64
45.03
1.68
-41.82
-86.51
-132.15
-176.82
-217.55
-251.63
-277.79
-297.14
-313.37
-331.70
-357.24
-392.44
-435.09
-477.81
-509.57
-518.89
-497.66
-444.01
-363.23
-266.58
-168.30
-82.32
-19.19
15.47
21.18
1.51
-37.82
-91.15
-154.56
-226.07
-304.32
-386.40
-466.34
-535.51
-585.34
-610.52
-611.24
-592.88
-563.47
-530.33
-497.76
-466.63
-436.15
-405.98
-377.31
-352.48
-333.41
-320.19
-310.71
-301.73
-290.44
-275.77
-258.71
-241.72
-227.30
-216.82
-209.97
-205.02
-199.66
-192.01
-181.37
-168.36
-154.40
-141.00
-129.08
-118.64
-108.90
-98.73
-87.18
-73.84
-58.94
-43.13
-27.16
-11.65
3.17
17.33
31.13
44.92
59.05
73.68
88.79
104.10
