1660322232.00
64.000000
-0.00
-0.00
-0.00
-0.00
-0.00
-0.00
-0.00
-0.00
-0.00
-0.00
0.00
0.01
0.01
-0.00
-0.03
-0.05
-0.05
0.00
0.13
0.36
0.66
1.01
1.37
1.72
2.06
2.40
2.79
3.24
3.80
4.42
5.06
5.66
6.20
6.68
7.15
7.68
8.31
9.14
10.09
11.04
11.89
12.57
13.14
13.75
14.64
15.96
17.93
20.36
22.96
25.43
27.57
29.44
31.37
33.82
37.13
41.73
47.26
53.19
58.90
63.99
68.49
72.89
77.92
84.14
92.12
101.36
111.02
120.13
128.06
134.78
140.94
147.95
154.62
163.30
174.60
188.52
203.67
216.94
223.87
219.89
201.83
169.11
124.36
71.46
14.55
-43.56
-101.72
-159.91
-218.16
-275.75
-331.28
-382.79
-429.25
-470.27
-505.95
-536.10
-559.74
-574.98
-579.44
-571.21
-549.37
-514.89
-470.17
-418.50
-363.29
-307.56
-253.67
-203.16
-156.59
-113.14
-70.91
-27.33
19.64
70.27
122.53
172.55
216.00
249.69
272.58
285.54
290.51
289.39
283.46
273.52
260.37
245.19
229.43
214.41
200.73
188.24
176.22
163.82
150.57
136.60
122.54
109.23
97.28
86.89
77.82
69.51
61.43
53.25
45.01
37.04
29.78
23.73
18.97
15.28
12.26
9.47
6.60
3.61
0.68
-1.94
-4.07
-5.69
-6.86
-7.75
-8.42
-8.93
-9.27
-9.48
-9.64
-9.82
-10.04
-10.19
-10.08
-9.61
-8.77
-7.69
-6.50
-5.31
-4.12
-2.93
-1.81
-0.92
-0.44
-0.44
-0.83
-1.42
-1.98
-2.39
-2.71
-3.02
-3.38
-3.77
-4.06
-4.15
-4.02
-3.73
-3.35
-2.98
-2.63
-2.37
-2.22
-2.21
-2.31
-2.46
-2.56
-2.56
-2.49
-2.43
-2.44
-2.54
-2.64
-2.61
-2.38
-1.90
-1.26
-0.58
0.04
0.51
0.80
0.95
1.02
1.05
1.06
1.04
0.97
0.89
0.88
1.02
1.36
1.83
2.33
2.74
3.06
3.35
3.77
4.37
5.12
5.79
6.17
6.07
5.48
4.50
3.32
2.13
0.98
-0.11
-1.14
-2.12
-3.05
-3.91
-4.71
-5.43
-6.08
-6.58
-6.86
-6.81
-6.41
-5.73
-4.92
-4.19
-3.70
-3.54
-3.64
-3.88
-4.10
-4.17
-4.07
-3.85
-3.55
-3.24
-2.94
-2.60
-2.19
-1.76
-1.38
-1.18
-1.23
-1.46
-1.74
-1.86
-1.72
-1.37
-1.01
-0.83
-0.94
-1.24
-1.51
-1.57
-1.35
-0.96
-0.58
-0.35
-0.27
-0.20
0.04
0.57
1.38
2.34
3.29
4.08
4.59
4.75
4.48
3.80
2.76
1.53
0.36
-0.48
-0.78
-0.49
0.24
1.11
1.79
2.09
1.95
1.47
0.79
0.01
-0.81
-1.65
-2.47
-3.18
-3.71
-4.01
-4.15
-4.26
-4.45
-4.75
-5.11
-5.39
-5.48
-5.33
-5.00
-4.59
-4.11
-3.54
-2.78
-1.78
-0.58
0.69
1.82
2.69
3.23
3.54
3.74
3.88
3.94
3.81
3.42
2.78
2.03
1.36
0.93
0.79
0.83
0.90
0.82
0.51
-0.00
-0.63
-1.24
-1.75
-2.11
-2.31
-2.42
-2.48
-2.56
-2.73
-2.98
-3.27
-3.49
-3.51
-3.24
-2.63
-1.73
-0.69
0.38
1.34
2.14
2.76
3.18
3.39
3.35
3.04
2.50
1.81
1.13
0.61
0.35
0.35
0.50
0.65
0.63
0.37
-0.08
-0.59
-1.01
-1.23
-1.27
-1.20
-1.16
-1.25
-1.51
-1.92
-2.43
-2.99
-3.53
-3.96
-4.17
-4.07
-3.60
-2.79
-1.78
-0.73
0.19
0.94
1.55
2.11
2.69
3.28
3.81
4.18
4.31
4.21
3.95
3.60
3.21
2.81
2.35
1.83
1.25
0.65
0.12
-0.28
-0.52
-0.64
-0.71
-0.83
-1.07
-1.48
-2.05
-2.75
-3.49
-4.20
-4.81
-5.22
-5.34
-5.14
-4.60
-3.76
-2.71
-1.58
-0.49
0.48
1.29
1.93
2.44
2.86
3.20
3.45
3.56
3.49
3.21
2.80
2.36
2.06
1.99
2.17
2.46
2.69
2.68
2.39
1.87
1.25
0.64
0.13
-0.30
-0.66
-1.00
-1.36
-1.79
-2.33
-3.02
-3.81
-4.56
-5.09
-5.22
-4.85
-3.97
-2.70
-1.20
0.32
1.64
2.63
3.20
3.38
3.29
3.10
2.95
2.92
2.99
3.09
3.08
2.91
2.57
2.12
1.67
1.32
1.13
1.09
1.12
1.11
0.96
0.66
0.28
-0.08
-0.34
-0.52
-0.74
-1.09
-1.66
-2.40
-3.17
-3.82
-4.27
-4.48
-4.50
-4.35
-3.98
-3.30
-2.29
-1.04
0.26
1.36
2.11
2.49
2.64
2.74
2.93
3.19
3.44
3.53
3.38
3.03
2.59
2.20
1.94
1.81
1.72
1.57
1.26
0.80
0.28
-0.19
-0.49
-0.59
-0.57
-0.63
-0.93
-1.56
-2.43
-3.35
-4.06
-4.44
-4.47
-4.26
-3.93
-3.54
-3.06
-2.38
-1.45
-0.31
0.92
2.03
2.89
3.43
3.72
3.86
3.92
3.94
3.87
3.65
3.26
2.76
2.23
1.78
1.46
1.27
1.15
1.01
0.83
0.61
0.37
0.15
-0.08
-0.37
-0.72
-1.10
-1.45
-1.69
-1.80
-1.85
-1.94
-2.21
-2.69
-3.33
-3.99
-4.50
-4.71
-4.53
-3.96
-3.06
-1.95
-0.78
0.29
1.18
1.88
2.43
2.88
3.27
3.54
3.64
3.56
3.37
3.18
3.12
3.23
3.44
3.61
3.61
3.35
2.87
2.26
1.65
1.16
0.79
0.52
0.26
-0.01
-0.32
-0.61
-0.83
-0.96
-1.01
-1.05
-1.13
-1.30
-1.55
-1.87
-2.21
-2.55
-2.83
-2.99
-2.96
-2.69
-2.18
-1.52
-0.82
-0.15
0.45
0.99
1.50
1.97
2.36
2.64
2.80
2.89
2.96
3.01
3.02
2.93
2.74
2.48
2.25
2.13
2.11
2.12
2.03
1.74
1.23
0.54
-0.20
-0.85
-1.29
-1.45
-1.37
-1.16
-1.00
-1.05
-1.40
-2.01
-2.74
-3.42
-3.89
-4.04
-3.87
-3.44
-2.81
-2.05
-1.19
-0.27
0.63
1.43
2.04
2.41
2.54
2.51
2.41
2.31
2.22
2.08
1.86
1.56
1.29
1.15
1.21
1.41
1.59
1.56
1.19
0.53
-0.27
-0.99
-1.44
-1.57
-1.46
-1.30
-1.26
-1.46
-1.89
-2.45
-2.98
-3.34
-3.45
-3.31
-2.96
-2.49
-1.96
-1.39
-0.78
-0.11
0.61
1.33
1.96
2.43
2.69
2.77
2.72
2.60
2.41
2.13
1.76
1.33
0.94
0.73
0.75
0.95
1.16
1.22
1.02
0.57
-0.02
-0.64
-1.19
-1.64
-1.99
-2.29
-2.55
-2.79
-3.01
-3.23
-3.45
-3.66
-3.85
-3.93
-3.82
-3.45
-2.78
-1.82
-0.68
0.51
1.60
2.49
3.10
3.44
3.53
3.42
3.18
2.84
2.48
2.15
1.89
1.72
1.65
1.66
1.70
1.73
1.68
1.54
1.30
0.98
0.64
0.31
-0.01
-0.32
-0.63
-0.92
-1.17
-1.34
-1.46
-1.59
-1.82
-2.21
-2.73
-3.29
-3.73
-3.90
-3.72
-3.16
-2.30
-1.27
-0.21
0.72
1.43
1.90
2.16
2.29
2.37
2.41
2.39
2.27
2.02
1.66
1.29
1.04
0.96
1.04
1.17
1.22
1.09
0.77
0.32
-0.13
-0.53
-0.88
-1.26
-1.73
-2.26
-2.74
-3.03
-3.03
-2.80
-2.51
-2.34
-2.43
-2.77
-3.21
-3.55
-3.58
-3.16
-2.24
-0.85
0.82
2.50
3.90
4.88
5.50
6.11
7.16
9.04
11.84
15.37
19.15
22.74
25.86
28.53
31.03
33.73
36.96
40.91
45.48
50.27
54.52
57.19
57.25
54.01
47.45
38.42
28.40
19.21
12.35
8.73
8.41
10.77
14.85
19.70
24.70
29.59
34.46
39.48
44.65
49.68
53.99
56.90
57.90
56.85
53.99
49.81
44.83
39.47
34.03
28.73
23.84
19.64
16.29
13.72
11.64
9.59
7.19
4.33
1.29
-1.36
-2.90
-2.70
-0.35
4.32
11.07
19.27
27.82
35.33
40.37
41.78
38.91
31.70
20.47
5.90
-11.09
-29.30
-47.26
-63.46
-76.70
-86.38
-92.56
-95.73
-96.46
-95.18
-92.19
-87.82
-82.59
-77.15
-72.10
-67.78
-64.13
-60.89
-57.76
-54.64
-51.60
-48.81
-46.40
-44.35
-42.55
-40.84
-39.09
-37.24
-35.37
-33.58
-32.00
-30.65
-29.47
-28.32
-27.08
-25.76
-24.51
-23.54
-23.02
-23.01
-23.34
-23.72
-23.77
-23.22
-21.92
-19.90
-17.37
-14.62
-11.96
-9.66
-7.87
-6.68
-6.06
-5.95
-6.24
-6.78
-7.42
-8.01
-8.40
-8.52
-8.39
-8.06
-7.68
-7.40
-7.30
-7.40
-7.60
-7.74
-7.69
-7.43
-7.06
-6.75
-6.66
-6.81
-7.08
-7.27
-7.19
-6.76
-6.07
-5.31
-4.67
-4.27
-4.11
-4.13
-4.21
-4.17
-3.93
-3.42
-2.72
-1.95
-1.33
-1.03
-1.16
-1.67
-2.38
-3.03
-3.38
-3.31
-2.86
-2.20
-1.55
-1.06
-0.80
-0.68
-0.54
-0.22
0.36
1.19
2.19
3.21
4.14
4.85
5.26
5.31
5.01
4.39
3.52
2.44
1.19
-0.22
-1.80
-3.51
-5.26
-6.88
-8.15
-8.84
-8.79
-8.00
-6.60
-4.83
-3.00
-1.34
-0.01
0.95
1.59
1.98
2.18
2.27
2.35
2.52
2.87
3.41
4.12
4.91
5.67
6.39
7.05
7.67
8.22
8.62
8.78
8.65
8.22
7.51
6.56
5.34
3.84
2.10
0.25
-1.48
-2.88
-3.88
-4.59
-5.19
-5.81
-6.40
-6.72
-6.44
-5.43
-3.81
-1.99
-0.48
0.37
0.52
0.26
0.09
0.45
1.54
3.28
5.37
7.46
9.28
10.68
11.67
12.26
12.44
12.21
11.57
10.57
9.34
7.98
6.53
4.95
3.15
1.08
-1.17
-3.38
-5.25
-6.51
-7.00
-6.79
-6.07
-5.07
-4.00
-2.92
-1.80
-0.59
0.70
2.03
3.25
4.27
5.12
5.92
6.91
8.25
9.96
11.83
13.51
14.61
14.88
14.31
13.05
11.34
9.34
7.16
4.83
2.45
0.20
-1.75
-3.32
-4.65
-5.96
-7.43
-9.00
-10.38
-11.15
-10.99
-9.87
-8.05
-5.95
-3.89
-2.05
-0.39
1.24
2.98
4.90
7.03
9.34
11.74
14.10
16.17
17.69
18.43
18.27
17.33
15.87
14.28
12.91
11.91
11.20
10.50
9.43
7.74
5.43
2.73
0.06
-2.23
-3.94
-5.07
-5.75
-6.11
-6.20
-6.00
-5.44
-4.54
-3.30
-1.80
-0.08
1.85
4.04
6.49
9.17
11.91
14.41
16.31
17.28
17.15
15.98
14.00
11.56
8.95
6.42
4.08
2.04
0.35
-0.98
-2.01
-2.94
-3.96
-5.24
-6.75
-8.26
-9.45
-10.08
-10.08
-9.61
-8.98
-8.43
-8.07
-7.75
-7.18
-6.07
-4.25
-1.76
1.17
4.27
7.29
10.07
12.50
14.46
15.84
16.46
16.26
15.27
13.72
11.94
10.29
9.03
8.22
7.65
7.01
5.97
4.38
2.37
0.30
-1.41
-2.46
-2.83
-2.73
-2.55
-2.56
-2.87
-3.34
-3.79
-4.03
-3.98
-3.59
-2.78
-1.40
0.71
3.51
6.68
9.63
11.71
12.45
11.81
10.12
7.88
5.58
3.49
1.70
0.20
-0.98
-1.87
-2.55
-3.23
-4.19
-5.61
-7.44
-9.34
-10.82
-11.49
-11.22
-10.18
-8.76
-7.36
-6.24
-5.47
-4.94
-4.51
-4.05
-3.45
-2.66
-1.60
-0.15
1.78
4.21
7.02
9.93
12.61
14.72
16.06
16.57
16.34
15.51
14.31
12.91
11.49
10.09
8.65
7.05
5.17
3.01
0.73
-1.35
-2.88
-3.65
-3.68
-3.23
-2.69
-2.39
-2.49
-2.95
-3.55
-4.04
-4.23
-4.05
-3.53
-2.84
-2.18
-1.78
-1.90
-2.71
-4.21
-6.17
-8.10
-9.41
-9.63
-8.64
-6.78
-4.69
-3.06
-2.34
-2.51
-3.18
-3.79
-3.89
-3.35
-2.35
-1.22
-0.21
0.58
1.24
1.92
2.69
3.48
4.13
4.48
4.50
4.28
4.06
4.06
4.39
4.97
5.56
5.87
5.73
5.17
4.46
3.97
3.98
4.58
5.59
6.70
7.59
8.10
8.27
8.31
8.45
8.82
9.42
10.08
10.55
10.60
10.11
9.11
7.79
6.40
5.19
4.30
3.73
3.36
2.98
2.44
1.65
0.62
-0.52
-1.66
-2.69
-3.61
-4.46
-5.33
-6.28
-7.31
-8.34
-9.27
-9.97
-10.32
-10.25
-9.76
-8.89
-7.75
-6.44
-5.01
-3.53
-1.99
-0.41
1.11
2.44
3.38
3.73
3.37
2.31
0.67
-1.35
-3.49
-5.53
-7.25
-8.46
-9.03
-8.92
-8.22
-7.14
-5.93
-4.82
-3.94
-3.28
-2.77
-2.36
-2.01
-1.78
-1.70
-1.79
-1.95
-2.05
-1.94
-1.54
-0.86
-0.01
0.83
1.53
1.96
2.15
2.14
2.00
1.72
1.27
0.65
-0.08
-0.76
-1.18
-1.15
-0.60
0.35
1.41
2.17
2.19
1.14
-1.09
-4.44
-8.68
-13.49
-18.52
-23.40
-27.63
-30.61
-31.75
-30.56
-26.93
-21.20
-14.10
-6.57
0.49
6.40
10.80
13.66
15.23
15.95
16.34
16.90
17.96
19.60
21.64
23.78
25.68
27.09
27.90
28.12
27.86
27.30
26.68
26.31
26.52
27.65
29.94
33.41
37.78
42.42
46.51
49.25
50.22
49.52
47.76
45.79
44.27
43.45
43.16
43.04
42.94
43.02
43.78
45.70
48.95
53.14
57.44
60.82
62.37
61.65
58.71
54.02
48.19
41.76
35.02
28.06
20.93
13.78
6.88
0.55
-5.05
-10.03
-14.68
-19.37
-24.27
-29.32
-34.37
-39.18
-43.74
-48.17
-52.72
-57.64
-63.01
-68.64
-74.11
-78.94
-82.88
-86.07
-88.96
-92.00
-95.38
-98.78
-101.60
-103.29
-103.65
-102.97
-101.70
-100.15
-98.22
-95.49
-91.55
-86.34
-80.21
-73.78
-67.62
-62.05
-57.10
-52.55
-48.18
-43.77
-39.29
-34.83
-30.60
-26.81
-23.55
-20.70
-17.93
-14.84
-11.10
-6.59
-1.45
4.03
9.47
14.46
18.67
21.85
23.90
24.90
25.09
24.70
23.89
22.67
20.98
18.81
16.32
13.89
11.90
10.64
10.17
10.40
11.18
12.43
14.06
15.95
17.80
19.23
19.83
19.41
17.99
15.84
13.26
10.51
7.71
4.90
2.16
-0.35
-2.47
-4.04
-5.06
-5.66
-6.06
-6.45
-6.88
-7.28
-7.42
-6.98
-5.58
-2.90
1.23
6.67
13.03
19.80
26.64
33.47
40.50
47.94
55.79
63.69
71.03
77.15
81.61
84.26
85.16
84.55
82.71
79.99
76.79
73.49
70.33
67.34
64.41
61.40
58.29
55.15
52.06
48.90
45.41
41.33
36.60
31.44
26.34
21.82
18.28
15.95
14.92
15.19
16.64
19.04
21.94
24.84
27.28
29.05
30.13
30.58
30.35
29.24
27.00
23.60
19.32
14.77
10.62
7.34
4.99
3.28
1.73
-0.05
-2.21
-4.61
-6.90
-8.73
-9.87
-10.36
-10.47
-10.57
-11.01
-11.98
-13.41
-15.12
-16.87
-18.49
-19.92
-21.15
-22.19
-22.94
-23.35
-23.39
-23.19
-22.95
-22.89
-23.12
-23.62
-24.28
-25.00
-25.71
-26.44
-27.21
-28.03
-28.83
-29.51
-29.99
-30.25
-30.25
-29.94
-29.27
-28.20
-26.81
-25.30
-23.92
-22.87
-22.15
-21.63
-21.02
-20.08
-18.73
-17.04
-15.21
-13.44
-11.82
-10.33
-8.88
-7.40
-5.90
-4.45
-3.09
-1.84
-0.63
0.58
1.80
2.92
3.80
4.29
4.37
4.09
3.61
3.02
2.37
1.64
0.80
-0.11
-1.01
-1.79
-2.39
-2.87
-3.37
-4.09
-5.16
-6.60
-8.33
-10.21
-12.05
-13.73
-15.15
-16.28
-17.08
-17.53
-17.61
-17.34
-16.71
-15.77
-14.58
-13.22
-11.74
-10.21
-8.72
-7.36
-6.23
-5.41
-4.94
-4.77
-4.78
-4.82
-4.73
-4.38
-3.75
-2.90
-1.94
-1.02
-0.27
0.23
0.42
0.32
-0.03
-0.55
-1.15
-1.77
-2.31
-2.70
-2.90
-2.88
-2.63
-2.20
-1.61
-0.93
-0.18
0.61
1.42
2.21
2.92
3.44
3.68
3.56
3.12
2.46
1.73
1.03
0.44
-0.05
-0.41
-0.65
-0.74
-0.70
-0.63
-0.66
-0.91
-1.37
-1.94
-2.43
-2.76
-2.94
-3.10
-3.34
-3.71
-4.08
-4.29
-4.20
-3.79
-3.14
-2.40
-1.70
-1.12
-0.67
-0.35
-0.13
0.00
0.05
0.04
-0.01
-0.05
-0.01
0.12
0.30
0.44
0.43
0.18
-0.29
-0.87
-1.39
-1.74
-1.92
-2.01
-2.15
-2.48
-3.05
-3.81
-4.66
-5.44
-5.99
-6.19
-5.99
-5.45
-4.66
-3.76
-2.82
-1.88
-0.93
0.00
0.84
1.48
1.84
1.94
1.84
1.66
1.47
1.29
1.09
0.82
0.45
-0.01
-0.52
-1.02
-1.47
-1.88
-2.27
-2.68
-3.13
-3.61
-4.11
-4.64
-5.22
-5.85
-6.53
-7.16
-7.58
-7.61
-7.12
-6.15
-4.85
-3.47
-2.27
-1.37
-0.76
-0.32
0.10
0.54
0.99
1.32
1.45
1.38
1.17
0.97
0.84
0.78
0.69
0.52
0.29
0.10
0.05
0.14
0.25
0.13
-0.43
-1.45
-2.78
-4.10
-5.06
-5.47
-5.32
-4.76
-4.03
-3.30
-2.60
-1.87
-1.02
-0.01
1.13
2.26
3.25
4.00
4.43
4.54
4.34
3.88
3.25
2.56
1.93
1.45
1.14
0.94
0.75
0.48
0.09
-0.46
-1.14
-1.92
-2.76
-3.61
-4.41
-5.09
-5.58
-5.80
-5.68
-5.19
-4.36
-3.28
-2.10
-0.89
0.29
1.46
2.62
3.71
4.61
5.19
5.36
5.17
4.76
4.33
3.99
3.75
3.56
3.31
2.96
2.48
1.91
1.30
0.67
0.00
-0.73
-1.59
-2.57
-3.62
-4.60
-5.32
-5.65
-5.52
-4.99
-4.21
-3.38
-2.61
-1.93
-1.27
-0.52
0.38
1.44
2.59
3.76
4.85
5.78
6.46
6.81
6.81
6.46
5.86
5.16
4.50
4.00
3.69
3.50
3.32
3.06
2.63
2.05
1.34
0.58
-0.18
-0.94
-1.74
-2.62
-3.61
-4.65
-5.62
-6.31
-6.57
-6.29
-5.47
-4.24
-2.76
-1.24
0.18
1.42
2.50
3.50
4.52
5.58
6.59
7.38
7.79
7.73
7.31
6.71
6.16
5.79
5.59
5.43
5.15
4.69
4.06
3.39
2.79
2.31
1.91
1.50
1.00
0.35
-0.44
-1.30
-2.15
-2.95
-3.70
-4.48
-5.31
-6.14
-6.84
-7.21
-7.09
-6.45
-5.41
-4.17
-2.89
-1.60
-0.24
1.27
2.96
4.70
6.25
7.36
7.91
7.89
7.45
6.80
6.15
5.65
5.37
5.30
5.35
5.40
5.36
5.19
4.88
4.45
3.92
3.29
2.56
1.80
1.11
0.57
0.19
-0.16
-0.69
-1.57
-2.83
-4.30
-5.67
-6.60
-6.89
-6.56
-5.82
-4.95
-4.13
-3.41
-2.72
-1.94
-1.05
-0.11
0.75
1.45
2.00
2.48
2.96
3.48
3.96
4.26
4.30
4.09
3.73
3.37
3.09
2.86
2.60
2.22
1.73
1.18
0.68
0.26
-0.07
-0.40
-0.77
-1.26
-1.89
-2.70
-3.73
-4.96
-6.28
-7.46
-8.24
-8.40
-7.86
-6.72
-5.20
-3.59
-2.12
-0.95
-0.12
0.40
0.66
0.74
0.69
0.55
0.34
0.10
-0.10
-0.18
-0.09
0.17
0.55
0.94
1.23
1.35
1.31
1.14
0.93
0.71
0.49
0.23
-0.08
-0.48
-0.95
-1.47
-2.06
-2.73
-3.49
-4.34
-5.21
-5.98
-6.51
-6.69
-6.46
-5.82
-4.81
-3.49
-1.90
-0.09
1.87
3.85
5.71
7.27
8.40
9.06
9.32
9.31
9.18
9.04
8.92
8.80
8.59
8.25
7.79
7.24
6.66
6.12
5.63
5.24
4.93
4.70
4.49
4.21
3.72
2.92
1.76
0.32
-1.23
-2.67
-3.77
-4.46
-4.77
-4.86
-4.89
-4.93
-4.97
-4.87
-4.49
-3.74
-2.62
-1.23
0.29
1.79
3.17
4.33
5.20
5.71
5.85
5.61
5.06
4.29
3.47
2.73
2.20
1.93
1.89
2.04
2.29
2.57
2.87
3.18
3.48
3.69
3.74
3.53
3.09
2.49
1.88
1.38
1.06
0.86
0.69
0.42
-0.04
-0.76
-1.75
-2.96
-4.33
-5.73
-7.00
-7.97
-8.47
-8.40
-7.75
-6.55
-4.95
-3.10
-1.17
0.66
2.28
3.59
4.57
5.19
5.46
5.38
4.99
4.33
3.50
2.61
1.78
1.12
0.70
0.52
0.52
0.58
0.63
0.62
0.58
0.57
0.58
0.57
0.40
-0.01
-0.69
-1.54
-2.41
-3.18
-3.84
-4.48
-5.19
-6.05
-7.00
-7.86
-8.46
-8.65
-8.40
-7.73
-6.74
-5.52
-4.10
-2.52
-0.82
0.94
2.67
4.25
5.54
6.46
6.95
7.01
6.69
6.14
5.56
5.12
4.92
4.93
4.99
4.91
4.54
3.86
2.94
1.89
0.79
-0.36
-1.57
-2.83
-4.09
-5.24
-6.18
-6.87
-7.30
-7.54
-7.68
-7.81
-8.01
-8.34
-8.81
-9.31
-9.66
-9.62
-9.06
-7.94
-6.37
-4.54
-2.67
-0.89
0.75
2.26
3.65
4.87
5.86
6.54
6.90
6.99
6.92
6.81
6.70
6.59
6.41
6.10
5.65
5.13
4.62
4.15
3.70
3.20
2.61
1.90
1.13
0.39
-0.26
-0.82
-1.34
-1.90
-2.54
-3.27
-4.04
-4.80
-5.51
-6.17
-6.75
-7.18
-7.34
-7.08
-6.27
-4.92
-3.13
-1.13
0.86
2.66
4.17
5.34
6.15
6.58
6.62
6.34
5.86
5.35
4.97
4.78
4.75
4.78
4.77
4.64
4.41
4.11
3.78
3.46
3.11
2.73
2.30
1.82
1.32
0.83
0.38
-0.04
-0.43
-0.81
-1.23
-1.79
-2.52
-3.46
-4.55
-5.64
-6.57
-7.13
-7.20
-6.75
-5.85
-4.61
-3.20
-1.74
-0.30
1.09
2.44
3.71
4.84
5.72
6.24
6.35
6.12
5.66
5.14
4.65
4.24
3.87
3.51
3.12
2.71
2.25
1.72
1.09
0.34
-0.51
-1.40
-2.30
-3.15
-3.89
-4.49
-4.94
-5.26
-5.55
-5.90
-6.39
-7.01
-7.67
-8.19
-8.36
-8.05
-7.21
-5.91
-4.27
-2.46
-0.62
1.16
2.83
4.38
5.81
7.13
8.33
9.39
10.29
11.00
11.50
11.77
11.82
11.73
11.57
11.47
11.46
11.49
11.41
11.01
10.16
8.85
7.19
5.37
3.59
1.96
0.55
-0.68
-1.81
-2.89
-4.03
-5.28
-6.69
-8.23
-9.77
-11.12
-12.01
-12.27
-11.81
-10.70
-9.09
-7.18
-5.12
-3.04
-1.00
0.89
2.49
3.65
4.27
4.41
4.24
4.02
4.02
4.31
4.79
5.21
5.28
4.83
3.89
2.70
1.55
0.66
0.08
-0.26
-0.53
-0.83
-1.20
-1.63
-2.10
-2.61
-3.17
-3.76
-4.33
-4.84
-5.30
-5.80
-6.49
-7.50
-8.80
-10.25
-11.57
-12.51
-12.90
-12.76
-12.15
-11.19
-9.94
-8.40
-6.61
-4.66
-2.72
-1.04
0.23
1.06
1.56
1.93
2.35
2.88
3.49
4.06
4.48
4.69
4.69
4.53
4.30
4.06
3.87
3.75
3.70
3.65
3.51
3.21
2.72
2.08
1.35
0.63
-0.07
-0.77
-1.52
-2.35
-3.23
-4.09
-4.87
-5.59
-6.32
-7.15
-8.09
-9.04
-9.73
-9.92
-9.47
-8.39
-6.84
-5.06
-3.24
-1.49
0.12
1.57
2.83
3.85
4.62
5.18
5.59
5.92
6.18
6.31
6.22
5.84
5.23
4.54
3.95
3.63
3.56
3.62
3.63
3.44
3.00
2.40
1.73
1.06
0.39
-0.33
-1.11
-1.91
-2.68
-3.40
-4.12
-4.95
-5.99
-7.21
-8.48
-9.53
-10.07
-9.90
-8.95
-7.34
-5.30
-3.14
-1.14
0.55
1.90
3.00
3.96
4.85
5.67
6.32
6.73
6.84
6.69
6.38
6.00
5.63
5.32
5.05
4.79
4.51
4.15
3.70
3.15
2.54
1.90
1.27
0.66
0.04
-0.62
-1.34
-2.09
-2.86
-3.64
-4.45
-5.33
-6.31
-7.37
-8.37
-9.14
-9.44
-9.14
-8.20
-6.74
-4.95
-3.06
-1.25
0.40
1.88
3.23
4.47
5.56
6.39
6.91
7.09
7.00
6.76
6.51
6.32
6.16
5.97
5.69
5.33
4.94
4.59
4.28
3.97
3.54
2.93
2.15
1.31
0.54
-0.07
-0.53
-0.94
-1.38
-1.90
-2.45
-3.02
-3.61
-4.29
-5.13
-6.15
-7.22
-8.11
-8.53
-8.30
-7.38
-5.92
-4.15
-2.28
-0.45
1.28
2.85
4.20
5.25
5.95
6.29
6.35
6.25
6.12
6.04
6.04
6.10
6.20
6.26
6.22
6.00
5.58
5.01
4.40
3.86
3.46
3.18
2.87
2.43
1.77
0.93
0.01
-0.86
-1.61
-2.27
-2.89
-3.57
-4.34
-5.17
-6.01
-6.81
-7.50
-8.09
-8.52
-8.75
-8.67
-8.18
-7.19
-5.70
-3.82
-1.71
0.38
2.26
3.76
4.83
5.52
5.90
6.06
6.09
6.02
5.89
5.74
5.59
5.48
5.38
5.26
5.04
4.73
4.32
3.87
3.41
2.94
2.45
1.91
1.32
0.71
0.13
-0.39
-0.82
-1.22
-1.63
-2.15
-2.88
-3.87
-5.11
-6.48
-7.79
-8.82
-9.36
-9.29
-8.63
-7.49
-6.08
-4.58
-3.10
-1.66
-0.22
1.29
2.81
4.23
5.35
5.99
6.12
5.83
5.33
4.80
4.38
4.10
3.94
3.88
3.91
3.99
4.07
4.04
3.78
3.27
2.54
1.72
0.91
0.18
-0.44
-0.96
-1.41
-1.85
-2.34
-2.97
-3.79
-4.80
-5.93
-7.06
-8.06
-8.80
-9.21
-9.28
-8.97
-8.26
-7.13
-5.63
-3.87
-2.01
-0.21
1.43
2.87
4.13
5.24
6.19
6.92
7.36
7.47
7.28
6.91
6.46
6.05
5.69
5.38
5.06
4.74
4.39
4.03
3.66
3.28
2.89
2.51
2.11
1.68
1.19
0.59
-0.10
-0.88
-1.71
-2.58
-3.52
-4.55
-5.67
-6.81
-7.90
-8.80
-9.42
-9.65
-9.47
-8.88
-7.95
-6.75
-5.36
-3.85
-2.21
-0.43
1.43
3.24
4.81
5.95
6.58
6.77
6.70
6.54
6.41
6.32
6.23
6.09
5.90
5.69
5.52
5.39
5.26
5.10
4.90
4.66
4.38
4.01
3.52
2.87
2.05
1.14
0.22
-0.61
-1.28
-1.81
-2.24
-2.65
-3.13
-3.73
-4.50
-5.42
-6.47
-7.58
-8.63
-9.48
-9.97
-9.95
-9.35
-8.19
-6.58
-4.70
-2.75
-0.93
0.64
1.89
2.83
3.52
4.04
4.47
4.83
5.11
5.26
5.25
5.08
4.82
4.58
4.42
4.37
4.38
4.35
4.20
3.91
3.52
3.07
2.62
2.19
1.74
1.22
0.61
-0.09
-0.83
-1.56
-2.24
-2.87
-3.50
-4.19
-5.01
-5.98
-7.06
-8.09
-8.90
-9.28
-9.10
-8.35
-7.12
-5.56
-3.85
-2.13
-0.49
0.99
2.29
3.42
4.40
5.23
5.90
6.36
6.56
6.51
6.24
5.83
5.38
4.91
4.46
4.04
3.68
3.38
3.17
2.99
2.76
2.43
1.99
1.45
0.85
0.19
-0.58
-1.45
-2.41
-3.39
-4.30
-5.15
-5.99
-6.92
-7.97
-9.06
-9.98
-10.47
-10.34
-9.53
-8.11
-6.30
-4.28
-2.25
-0.32
1.41
2.84
3.90
4.59
4.96
5.13
5.23
5.33
5.44
5.55
5.59
5.55
5.42
5.17
4.81
4.32
3.70
3.02
2.32
1.66
1.09
0.62
0.25
-0.08
-0.41
-0.82
-1.35
-2.00
-2.78
-3.66
-4.63
-5.72
-6.89
-8.06
-9.04
-9.63
-9.66
-9.05
-7.89
-6.32
-4.55
-2.73
-1.03
0.47
1.74
2.79
3.71
4.58
5.39
6.09
6.58
6.76
6.64
6.29
5.82
5.32
4.84
4.39
4.04
3.82
3.76
3.78
3.75
3.52
3.01
2.27
1.40
0.55
-0.23
-0.93
-1.58
-2.21
-2.81
-3.39
-3.99
-4.71
-5.67
-6.91
-8.34
-9.72
-10.71
-11.02
-10.45
-9.06
-7.08
-4.87
-2.76
-0.98
0.43
1.54
2.49
3.34
4.12
4.77
5.26
5.60
5.82
5.96
6.01
5.95
5.77
5.50
5.20
4.94
4.76
4.62
4.45
4.17
3.71
3.05
2.22
1.29
0.37
-0.44
-1.09
-1.59
-2.05
-2.67
-3.58
-4.85
-6.39
-7.95
-9.22
-9.95
-10.02
-9.49
-8.54
-7.37
-6.10
-4.75
-3.27
-1.62
0.16
1.98
3.66
5.08
6.16
6.90
7.29
7.35
7.09
6.58
5.95
5.32
4.82
4.46
4.25
4.11
4.01
3.89
3.69
3.32
2.71
1.86
0.83
-0.22
-1.14
-1.88
-2.46
-3.03
-3.70
-4.57
-5.61
-6.73
-7.83
-8.81
-9.60
-10.08
-10.14
-9.65
-8.58
-6.98
-5.01
-2.93
-0.97
0.68
1.95
2.86
3.56
4.19
4.88
5.67
6.48
7.18
7.63
7.76
7.61
7.31
6.96
6.63
6.28
5.88
5.42
4.92
4.44
3.99
3.53
2.99
2.34
1.61
0.86
0.15
-0.54
-1.29
-2.17
-3.21
-4.35
-5.49
-6.55
-7.51
-8.36
-9.11
-9.66
-9.89
-9.66
-8.87
-7.56
-5.86
-3.95
-2.01
-0.17
1.49
2.92
4.10
5.03
5.78
6.45
7.13
7.81
8.39
8.73
8.69
8.26
7.54
6.72
6.00
5.50
5.22
5.09
4.98
4.78
4.42
3.86
3.11
2.19
1.17
0.12
-0.90
-1.81
-2.55
-3.12
-3.60
-4.14
-4.91
-6.00
-7.36
-8.76
-9.88
-10.46
-10.35
-9.60
-8.40
-6.94
-5.35
-3.68
-1.89
-0.04
1.76
3.34
4.54
5.32
5.76
6.01
6.20
6.38
6.50
6.49
6.30
5.92
5.42
4.86
4.29
3.73
3.20
2.70
2.24
1.84
1.49
1.20
0.92
0.62
0.22
-0.29
-0.93
-1.68
-2.52
-3.46
-4.57
-5.89
-7.37
-8.84
-10.02
-10.62
-10.45
-9.50
-7.93
-6.03
-4.04
-2.16
-0.46
1.07
2.45
3.69
4.78
5.68
6.35
6.77
6.93
6.89
6.71
6.47
6.25
6.09
6.00
5.92
5.78
5.53
5.15
4.69
4.24
3.88
3.59
3.26
2.73
1.93
0.87
-0.27
-1.33
-2.17
-2.78
-3.28
-3.81
-4.52
-5.47
-6.66
-8.03
-9.45
-10.71
-11.53
-11.68
-11.02
-9.62
-7.70
-5.55
-3.39
-1.35
0.58
2.40
4.10
5.60
6.77
7.54
7.88
7.86
7.63
7.35
7.12
6.99
6.94
6.89
6.76
6.52
6.19
5.82
5.47
5.13
4.75
4.27
3.64
2.89
2.10
1.37
0.72
0.12
-0.55
-1.38
-2.38
-3.46
-4.49
-5.39
-6.20
-7.05
-8.05
-9.24
-10.46
-11.41
-11.82
-11.53
-10.56
-9.10
-7.38
-5.60
-3.84
-2.16
-0.54
0.96
2.29
3.40
4.24
4.83
5.26
5.60
5.93
6.29
6.62
6.83
6.79
6.44
5.78
4.94
4.12
3.47
3.10
2.93
2.83
2.66
2.32
1.84
1.30
0.75
0.21
-0.41
-1.19
-2.18
-3.32
-4.52
-5.64
-6.61
-7.45
-8.20
-8.89
-9.46
-9.74
-9.54
-8.75
-7.39
-5.62
-3.70
-1.87
-0.27
1.08
2.24
3.32
4.32
5.21
5.87
6.24
6.34
6.25
6.06
5.85
5.60
5.26
4.77
4.17
3.57
3.11
2.86
2.75
2.65
2.39
1.90
1.23
0.53
-0.07
-0.54
-0.96
-1.48
-2.25
-3.33
-4.68
-6.13
-7.49
-8.56
-9.19
-9.33
-9.00
-8.29
-7.30
-6.13
-4.81
-3.35
-1.78
-0.15
1.45
2.91
4.12
5.01
5.55
5.76
5.71
5.52
5.33
5.25
5.30
5.42
5.48
5.39
5.11
4.71
4.30
3.94
3.62
3.29
2.87
2.36
1.78
1.19
0.62
0.02
-0.67
-1.51
-2.45
-3.40
-4.25
-5.00
-5.72
-6.54
-7.55
-8.69
-9.73
-10.36
-10.32
-9.52
-8.08
-6.28
-4.40
-2.64
-1.05
0.40
1.79
3.13
4.41
5.55
6.50
7.25
7.80
8.20
8.47
8.61
8.56
8.27
7.77
7.16
6.65
6.40
6.51
6.91
7.41
7.81
7.99
7.97
7.87
7.85
7.98
8.23
8.43
8.42
8.08
7.45
6.63
5.78
5.00
4.32
3.68
3.04
2.38
1.67
0.91
0.02
-1.10
-2.52
-4.28
-6.43
-9.11
-12.57
-17.08
-22.73
-29.27
-36.06
-42.24
-47.03
-49.96
-50.95
-50.26
-48.23
-45.15
-41.15
-36.21
-30.25
-23.32
-15.68
-7.97
-1.12
3.83
6.10
5.49
2.46
-1.98
-6.69
-10.79
-13.83
-15.84
-17.02
-17.56
-17.61
-17.39
-17.32
-18.04
-20.12
-23.83
-28.91
-34.51
-39.51
-42.83
-43.77
-42.12
-38.07
-32.07
-24.64
-16.31
-7.62
0.86
8.61
15.22
20.47
24.36
27.01
28.60
29.32
29.32
28.75
27.78
26.65
25.64
25.02
24.98
25.56
26.64
27.91
29.04
29.74
29.89
29.54
28.86
28.05
27.26
26.54
25.91
25.35
24.84
24.32
23.72
22.93
21.85
20.45
18.75
16.90
15.08
13.50
12.41
12.01
12.45
13.67
15.37
17.06
18.20
18.37
17.44
15.65
13.44
11.36
9.82
8.90
8.33
7.65
6.36
4.23
1.44
-1.52
-4.06
-5.78
-6.62
-6.85
-6.79
-6.54
-5.97
-4.85
-3.22
-1.39
0.17
1.19
1.84
2.63
4.10
6.40
9.18
11.75
13.55
14.43
14.74
15.12
16.09
17.85
20.21
22.69
24.68
25.62
25.12
23.02
19.56
15.23
10.71
6.54
3.03
0.14
-2.41
-5.02
-8.09
-11.97
-16.82
-22.57
-28.82
-34.87
-39.88
-43.17
-44.47
-44.06
-42.57
-40.73
-38.95
-37.13
-34.65
-30.71
-24.74
-16.71
-7.19
2.84
12.45
21.09
28.68
35.41
41.34
46.18
49.33
50.17
48.41
44.35
38.79
32.83
27.57
23.86
22.17
22.39
23.80
25.25
25.53
23.90
20.45
15.98
11.50
7.57
3.98
0.03
-4.85
-10.49
-15.93
-19.91
-21.72
-21.69
-21.01
-21.02
-22.36
-24.59
-26.40
-26.46
-24.17
-20.10
-15.64
-12.29
-10.95
-11.55
-13.23
-14.88
-15.70
-15.49
-14.56
-13.39
-12.33
-11.39
-10.36
-9.00
-7.32
-5.57
-4.20
-3.54
-3.66
-4.23
-4.74
-4.75
-4.10
-3.06
-2.08
-1.60
-1.71
-2.14
-2.44
-2.26
-1.53
-0.46
0.65
1.58
2.32
3.01
3.81
4.79
5.89
7.00
7.99
8.74
9.18
9.29
9.13
8.89
8.80
9.05
9.66
10.42
10.98
10.94
10.10
8.47
6.34
4.06
1.96
0.24
-1.05
-1.95
-2.61
-3.17
-3.80
-4.64
-5.73
-7.01
-8.32
-9.39
-9.97
-9.90
-9.20
-8.04
-6.70
-5.45
-4.41
-3.58
-2.83
-1.97
-0.93
0.27
1.45
2.40
2.96
3.07
2.82
2.36
1.85
1.42
1.07
0.72
0.30
-0.23
-0.81
-1.36
-1.76
-2.00
-2.15
-2.38
-2.80
-3.51
-4.47
-5.61
-6.76
-7.79
-8.54
-8.90
-8.84
-8.37
-7.62
-6.71
-5.76
-4.83
-3.94
-3.17
-2.59
-2.32
-2.42
-2.84
-3.46
-4.11
-4.72
-5.32
-6.05
-7.00
-8.18
-9.41
-10.47
-11.20
-11.61
-11.87
-12.19
-12.66
-13.21
-13.64
-13.80
-13.67
-13.39
-13.18
-13.12
-13.17
-13.11
-12.71
-11.81
-10.44
-8.77
-7.06
-5.64
-4.85
-5.02
-6.39
-9.07
-12.86
-17.32
-21.79
-25.58
-28.23
-29.60
-29.94
-29.74
-29.52
-29.57
-29.77
-29.52
-27.83
-23.67
-16.28
-5.54
7.85
22.44
36.32
47.64
55.12
58.36
57.87
54.83
50.61
46.31
42.49
39.22
36.22
33.14
29.77
26.05
21.95
17.46
12.53
7.27
1.98
-2.78
-6.35
-8.21
-8.26
-6.83
-4.57
-2.19
-0.20
1.27
2.32
3.18
3.94
4.57
4.89
4.76
4.16
3.18
1.98
0.64
-0.86
-2.65
-4.88
-7.61
-10.73
-13.91
-16.68
-18.54
-19.09
-18.28
-16.40
-14.02
-11.81
-10.31
-9.76
-10.18
-11.44
-13.41
-15.94
-18.85
-21.83
-24.40
-26.12
-26.72
-26.28
-25.16
-23.86
-22.73
-21.82
-20.87
-19.57
-17.71
-15.35
-12.76
-10.30
-8.24
-6.65
-5.43
-4.34
-3.11
-1.48
0.78
3.72
7.22
10.96
14.46
17.27
19.07
19.76
19.51
18.65
17.61
16.82
16.60
17.12
18.33
20.02
21.84
23.45
24.58
25.09
25.00
24.46
23.70
22.92
22.25
21.67
21.04
20.20
19.09
17.82
16.76
16.32
16.81
18.18
19.98
21.51
22.12
21.47
19.67
17.07
14.15
11.17
8.23
5.35
2.67
0.46
-0.92
-1.30
-0.80
0.12
0.92
1.25
1.09
0.80
0.87
1.65
3.17
5.01
6.54
7.12
6.40
4.51
2.03
-0.20
-1.48
-1.46
-0.29
1.48
3.19
4.42
5.14
5.73
6.70
8.43
10.98
13.99
16.91
19.17
20.46
20.69
19.98
18.48
16.30
13.60
10.65
7.83
5.53
3.98
3.09
2.54
1.95
1.15
0.26
-0.45
-0.82
-0.91
-1.06
-1.63
-2.71
-4.12
-5.44
-6.29
-6.48
-6.08
-5.28
-4.26
-3.15
-1.99
-0.80
0.39
1.51
2.52
3.34
3.86
3.97
3.56
2.64
1.34
-0.14
-1.58
-2.85
-3.99
-5.09
-6.29
-7.68
-9.23
-10.80
-12.22
-13.33
-14.06
-14.46
-14.68
-14.92
-15.32
-15.95
-16.75
-17.55
-18.13
-18.26
-17.75
-16.48
-14.39
-11.51
-7.96
-3.95
0.18
4.00
7.04
8.94
9.51
8.83
7.20
5.04
2.69
0.35
-1.90
-4.08
-6.13
-7.93
-9.32
-10.21
-10.64
-10.74
-10.68
-10.57
-10.41
-10.20
-9.94
-9.69
-9.53
-9.50
-9.54
-9.53
-9.28
-8.60
-7.37
-5.56
-3.25
-0.63
1.99
4.32
6.14
7.34
8.00
8.27
8.31
8.26
8.22
8.32
8.66
9.31
10.09
10.66
10.52
9.28
6.81
3.39
-0.41
-3.98
-6.85
-8.81
-9.85
-10.11
-9.72
-8.84
-7.65
-6.44
-5.43
-4.76
-4.33
-3.85
-3.01
-1.62
0.27
2.40
4.41
6.07
7.27
8.04
8.43
8.41
7.90
6.85
5.32
3.55
1.85
0.46
-0.50
-1.13
-1.66
-2.28
-3.08
-4.03
-4.98
-5.83
-6.50
-7.05
-7.55
-8.08
-8.65
-9.23
-9.74
-10.13
-10.34
-10.37
-10.21
-9.84
-9.21
-8.27
-7.01
-5.45
-3.68
-1.88
-0.20
1.20
2.25
2.96
3.41
3.68
3.84
3.89
3.82
3.61
3.32
3.03
2.84
2.77
2.80
2.83
2.74
2.46
1.96
1.28
0.45
-0.47
-1.44
-2.45
-3.48
-4.51
-5.51
-6.42
-7.13
-7.51
-7.45
-6.88
-5.85
-4.50
-3.02
-1.56
-0.23
0.94
1.95
2.79
3.43
3.86
4.06
4.11
4.07
4.01
3.97
3.91
3.79
3.58
3.32
3.04
2.81
2.66
2.58
2.48
2.29
1.88
1.21
0.23
-1.02
-2.47
-4.01
-5.49
-6.75
-7.65
-8.07
-7.96
-7.38
-6.41
-5.23
-4.01
-2.89
-1.96
-1.21
-0.55
0.09
0.73
1.31
1.73
1.89
1.79
1.54
1.30
1.21
1.29
1.44
1.49
1.31
0.86
0.22
-0.45
-1.01
-1.36
-1.53
-1.63
-1.79
-2.14
-2.75
-3.57
-4.51
-5.43
-6.20
-6.72
-6.97
-6.90
-6.51
-5.76
-4.64
-3.19
-1.54
0.11
1.58
2.72
3.49
3.93
4.14
4.23
4.23
4.15
3.94
3.60
3.18
2.79
2.50
2.34
2.22
2.00
1.58
0.93
0.14
-0.64
-1.29
-1.74
-2.05
-2.38
-2.89
-3.71
-4.81
-6.05
-7.17
-7.92
-8.12
-7.71
-6.80
-5.54
-4.11
-2.62
-1.10
0.39
1.84
3.13
4.17
4.89
5.30
5.45
5.43
5.29
5.03
4.61
4.03
3.32
2.57
1.89
1.35
0.94
0.62
0.31
-0.05
-0.47
-0.94
-1.46
-2.07
-2.80
-3.68
-4.66
-5.69
-6.64
-7.40
-7.85
-7.91
-7.52
-6.65
-5.36
-3.76
-2.04
-0.36
1.14
2.38
3.39
4.20
4.85
5.32
5.59
5.64
5.51
5.28
5.06
4.88
4.76
4.59
4.29
3.80
3.15
2.43
1.75
1.18
0.73
0.33
-0.10
-0.63
-1.29
-2.07
-2.92
-3.82
-4.72
-5.56
-6.27
-6.74
-6.82
-6.40
-5.44
-3.98
-2.18
-0.28
1.49
2.93
4.01
4.79
5.37
5.82
6.13
6.21
5.97
5.45
4.75
4.10
3.66
3.51
3.58
3.68
3.61
3.25
2.61
1.81
0.98
0.21
-0.48
-1.16
-1.88
-2.66
-3.44
-4.15
-4.77
-5.33
-5.90
-6.49
-7.01
-7.29
-7.11
-6.37
-5.08
-3.43
-1.63
0.09
1.64
2.99
4.17
5.20
6.02
6.56
6.74
6.56
6.11
5.52
4.94
4.46
4.12
3.89
3.67
3.38
2.94
2.33
1.59
0.82
0.14
-0.36
-0.65
-0.83
-1.04
-1.43
-2.06
-2.93
-3.92
-4.88
-5.71
-6.29
-6.57
-6.48
-5.98
-5.04
-3.70
-2.07
-0.29
1.45
3.07
4.51
5.77
6.84
7.65
8.10
8.11
7.66
6.84
5.80
4.72
3.70
2.79
2.02
1.37
0.86
0.47
0.16
-0.12
-0.41
-0.75
-1.16
-1.67
-2.30
-3.07
-3.95
-4.89
-5.81
-6.62
-7.27
-7.72
-7.95
-7.92
-7.57
-6.86
-5.81
-4.51
-3.08
-1.64
-0.24
1.10
2.39
3.59
4.62
5.40
5.90
6.13
6.19
6.13
5.99
5.74
5.30
4.66
3.87
3.07
2.40
1.95
1.66
1.41
1.04
0.46
-0.30
-1.17
-2.02
-2.81
-3.54
-4.28
-5.13
-6.10
-7.10
-7.95
-8.42
-8.27
-7.41
-5.87
-3.87
-1.72
0.23
1.81
2.96
3.78
4.42
4.99
5.50
5.88
6.02
5.89
5.53
5.08
4.66
4.40
4.31
4.33
4.36
4.27
3.96
3.38
2.58
1.63
0.66
-0.22
-0.98
-1.62
-2.22
-2.83
-3.48
-4.20
-5.01
-5.93
-6.92
-7.87
-8.57
-8.77
-8.30
-7.14
-5.48
-3.62
-1.82
-0.25
1.09
2.27
3.40
4.50
5.53
6.43
7.13
7.60
7.81
7.75
7.42
6.88
6.21
5.55
5.04
4.73
4.61
4.56
4.42
4.05
3.41
2.53
1.50
0.46
-0.50
-1.31
-1.96
-2.46
-2.90
-3.40
-4.10
-5.06
-6.22
-7.38
-8.25
-8.57
-8.18
-7.12
-5.59
-3.84
-2.12
-0.59
0.72
1.83
2.83
3.76
4.64
5.43
6.10
6.54
6.74
6.68
6.44
6.09
5.73
5.40
5.08
4.73
4.28
3.70
3.00
2.23
1.43
0.62
-0.21
-1.04
-1.83
-2.53
-3.09
-3.53
-3.92
-4.40
-5.04
-5.83
-6.66
-7.32
-7.63
-7.46
-6.78
-5.63
-4.11
-2.37
-0.54
1.21
2.76
3.99
4.83
5.29
5.46
5.46
5.42
5.41
5.45
5.51
5.51
5.40
5.15
4.77
4.31
3.80
3.29
2.81
2.32
1.77
1.12
0.33
-0.55
-1.46
-2.30
-3.07
-3.87
-4.80
-5.94
-7.19
-8.32
-9.06
-9.18
-8.65
-7.62
-6.32
-4.96
-3.60
-2.21
-0.74
0.82
2.37
3.75
4.81
5.51
5.86
5.95
5.87
5.66
5.34
4.95
4.54
4.19
3.98
3.91
3.94
3.95
3.83
3.52
3.00
2.31
1.49
0.60
-0.32
-1.22
-2.07
-2.86
-3.59
-4.32
-5.10
-5.99
-6.99
-7.99
-8.81
-9.23
-9.07
-8.27
-6.86
-5.01
-2.91
-0.78
1.21
2.93
4.30
5.28
5.93
6.31
6.52
6.61
6.56
6.35
5.93
5.34
4.67
4.06
3.60
3.32
3.16
3.02
2.76
2.34
1.75
1.04
0.33
-0.35
-0.98
-1.59
-2.25
-3.01
-3.85
-4.74
-5.61
-6.44
-7.23
-7.98
-8.62
-9.02
-8.99
-8.38
-7.15
-5.42
-3.43
-1.49
0.18
1.50
2.53
3.39
4.19
4.97
5.64
6.07
6.19
5.99
5.57
5.08
4.63
4.27
3.97
3.66
3.27
2.77
2.18
1.53
0.86
0.21
-0.42
-1.05
-1.72
-2.45
-3.24
-4.08
-4.92
-5.73
-6.49
-7.21
-7.83
-8.28
-8.42
-8.13
-7.35
-6.12
-4.57
-2.89
-1.24
0.32
1.75
3.09
4.32
5.39
6.16
6.56
6.59
6.31
5.88
5.45
5.09
4.78
4.44
3.98
3.37
2.66
1.93
1.29
0.75
0.29
-0.18
-0.72
-1.37
-2.12
-2.93
-3.79
-4.70
-5.64
-6.53
-7.29
-7.78
-7.87
-7.50
-6.67
-5.44
-3.91
-2.23
-0.55
0.98
2.31
3.40
4.30
5.04
5.62
6.01
6.16
6.06
5.77
5.37
4.95
4.53
4.10
3.58
2.92
2.12
1.24
0.41
-0.29
-0.79
-1.13
-1.41
-1.79
-2.39
-3.25
-4.34
-5.49
-6.53
-7.28
-7.65
-7.62
-7.22
-6.50
-5.49
-4.23
-2.77
-1.19
0.42
1.96
3.36
4.55
5.52
6.21
6.58
6.58
6.22
5.57
4.77
3.97
3.27
2.72
2.27
1.86
1.47
1.09
0.78
0.57
0.42
0.22
-0.17
-0.85
-1.86
-3.12
-4.47
-5.75
-6.81
-7.56
-7.96
-8.00
-7.67
-6.90
-5.68
-4.01
-2.05
0.01
1.91
3.49
4.69
5.54
6.14
6.57
6.85
6.97
6.89
6.62
6.21
5.75
5.27
4.81
4.34
3.84
3.31
2.78
2.26
1.73
1.13
0.41
-0.45
-1.39
-2.31
-3.12
-3.81
-4.50
-5.34
-6.41
-7.63
-8.75
-9.46
-9.50
-8.80
-7.49
-5.81
-4.00
-2.20
-0.47
1.22
2.85
4.34
5.56
6.41
6.84
6.94
6.79
6.52
6.19
5.79
5.27
4.63
3.91
3.20
2.61
2.22
1.97
1.76
1.41
0.78
-0.12
-1.19
-2.25
-3.09
-3.64
-3.95
-4.18
-4.55
-5.20
-6.17
-7.38
-8.65
-9.74
-10.45
-10.61
-10.10
-8.90
-7.09
-4.86
-2.47
-0.17
1.86
3.55
4.91
5.98
6.78
7.30
7.55
7.59
7.51
7.41
7.33
7.23
7.03
6.68
6.18
5.60
5.01
4.45
3.88
3.23
2.48
1.63
0.77
-0.02
-0.71
-1.36
-2.07
-2.91
-3.93
-5.10
-6.36
-7.64
-8.86
-9.91
-10.64
-10.89
-10.51
-9.45
-7.80
-5.74
-3.53
-1.40
0.52
2.19
3.60
4.79
5.76
6.52
7.06
7.39
7.53
7.46
7.22
6.83
6.32
5.74
5.11
4.48
3.87
3.34
2.93
2.62
2.32
1.90
1.24
0.30
-0.80
-1.86
-2.70
-3.29
-3.75
-4.33
-5.20
-6.39
-7.73
-8.91
-9.60
-9.55
-8.67
-7.06
-4.93
-2.56
-0.26
1.76
3.43
4.78
5.90
6.83
7.58
8.05
8.19
8.01
7.63
7.20
6.82
6.49
6.14
5.67
5.07
4.38
3.69
3.06
2.47
1.86
1.18
0.38
-0.52
-1.44
-2.31
-3.07
-3.72
-4.31
-4.99
-5.88
-7.04
-8.38
-9.66
-10.53
-10.69
-10.01
-8.56
-6.57
-4.32
-2.05
0.10
2.07
3.82
5.30
6.50
7.40
8.05
8.51
8.77
8.81
8.57
8.06
7.35
6.56
5.84
5.27
4.88
4.66
4.54
4.45
4.26
3.87
3.17
2.14
0.89
-0.39
-1.51
-2.35
-2.92
-3.38
-3.90
-4.61
-5.58
-6.75
-8.01
-9.22
-10.22
-10.86
-11.01
-10.57
-9.51
-7.87
-5.75
-3.34
-0.84
1.55
3.64
5.29
6.42
7.02
7.20
7.10
6.92
6.79
6.76
6.80
6.81
6.72
6.51
6.18
5.80
5.38
4.93
4.46
3.96
3.45
2.96
2.45
1.88
1.15
0.24
-0.85
-2.01
-3.12
-4.09
-4.90
-5.61
-6.34
-7.23
-8.30
-9.48
-10.54
-11.24
-11.36
-10.82
-9.65
-8.01
-6.07
-3.96
-1.81
0.31
2.29
4.00
5.32
6.16
6.53
6.55
6.39
6.19
6.03
5.88
5.66
5.31
4.84
4.34
3.90
3.56
3.29
2.98
2.57
2.03
1.41
0.77
0.14
-0.49
-1.12
-1.75
-2.31
-2.77
-3.19
-3.69
-4.43
-5.50
-6.81
-8.14
-9.16
-9.62
-9.39
-8.54
-7.19
-5.51
-3.62
-1.64
0.31
2.08
3.53
4.59
5.28
5.68
5.87
5.89
5.72
5.34
4.79
4.20
3.70
3.39
3.28
3.29
3.29
3.19
2.92
2.47
1.86
1.09
0.19
-0.77
-1.71
-2.52
-3.13
-3.59
-4.04
-4.65
-5.54
-6.64
-7.74
-8.55
-8.84
-8.54
-7.73
-6.54
-5.14
-3.60
-1.94
-0.21
1.53
3.19
4.63
5.79
6.62
7.11
7.30
7.26
7.05
6.75
6.38
5.94
5.40
4.76
4.08
3.43
2.86
2.36
1.87
1.31
0.66
-0.05
-0.73
-1.33
-1.89
-2.53
-3.38
-4.54
-5.96
-7.48
-8.90
-9.98
-10.56
-10.56
-9.96
-8.83
-7.27
-5.46
-3.54
-1.68
0.03
1.56
2.96
4.27
5.51
6.56
7.30
7.60
7.43
6.94
6.33
5.81
5.48
5.31
5.20
5.02
4.77
4.47
4.19
3.93
3.60
3.07
2.26
1.17
-0.07
-1.25
-2.21
-2.90
-3.42
-3.98
-4.81
-5.97
-7.39
-8.80
-9.88
-10.39
-10.25
-9.55
-8.46
-7.13
-5.65
-4.03
-2.26
-0.39
1.46
3.16
4.57
5.66
6.45
7.00
7.35
7.47
7.35
7.02
6.57
6.14
5.86
5.72
5.62
5.41
4.96
4.22
3.25
2.18
1.17
0.33
-0.29
-0.68
-0.91
-1.11
-1.43
-2.00
-2.84
-3.92
-5.14
-6.39
-7.57
-8.62
-9.45
-9.96
-9.99
-9.45
-8.33
-6.73
-4.83
-2.84
-0.90
0.90
2.53
3.97
5.23
6.28
7.10
7.66
7.94
7.89
7.54
6.89
6.06
5.20
4.46
3.97
3.73
3.67
3.63
3.49
3.17
2.65
1.94
1.11
0.22
-0.67
-1.47
-2.12
-2.64
-3.08
-3.57
-4.25
-5.24
-6.56
-8.12
-9.68
-10.95
-11.60
-11.45
-10.44
-8.74
-6.61
-4.39
-2.33
-0.61
0.73
1.75
2.53
3.15
3.68
4.17
4.61
4.98
5.28
5.47
5.52
5.41
5.11
4.64
4.06
3.49
3.00
2.62
2.28
1.86
1.29
0.59
-0.09
-0.60
-0.89
-1.04
-1.27
-1.77
-2.63
-3.78
-5.09
-6.42
-7.69
-8.86
-9.85
-10.49
-10.56
-9.92
-8.54
-6.61
-4.46
-2.40
-0.64
0.81
2.08
3.30
4.53
5.68
6.60
7.15
7.30
7.15
6.86
6.59
6.40
6.27
6.09
5.76
5.25
4.62
3.96
3.38
2.89
2.42
1.87
1.17
0.31
-0.60
-1.45
-2.15
-2.70
-3.21
-3.84
-4.69
-5.78
-7.00
-8.14
-9.00
-9.40
-9.22
-8.49
-7.29
-5.75
-4.00
-2.16
-0.31
1.44
2.99
4.26
5.19
5.80
6.20
6.49
6.76
7.00
7.13
7.09
6.86
6.50
6.12
5.78
5.50
5.22
4.90
4.48
3.97
3.39
2.77
2.14
1.52
0.93
0.40
-0.09
-0.59
-1.17
-1.92
-2.84
-3.90
-5.02
-6.12
-7.17
-8.11
-8.90
-9.41
-9.54
-9.17
-8.31
-7.05
-5.55
-3.97
-2.39
-0.84
0.69
2.15
3.48
4.59
5.43
5.99
6.30
6.41
6.38
6.27
6.12
5.94
5.76
5.54
5.29
5.00
4.70
4.40
4.11
3.81
3.48
3.11
2.70
2.29
1.85
1.33
0.64
-0.26
-1.32
-2.40
-3.34
-4.04
-4.54
-4.98
-5.55
-6.36
-7.39
-8.47
-9.40
-9.93
-9.93
-9.33
-8.18
-6.56
-4.65
-2.60
-0.61
1.18
2.69
3.87
4.75
5.35
5.71
5.89
5.96
5.99
6.04
6.13
6.23
6.26
6.13
5.81
5.30
4.70
4.14
3.72
3.45
3.25
3.01
2.57
1.86
0.88
-0.24
-1.36
-2.31
-3.02
-3.50
-3.88
-4.30
-4.92
-5.80
-6.88
-8.02
-9.02
-9.68
-9.83
-9.41
-8.46
-7.07
-5.42
-3.68
-1.98
-0.41
0.98
2.16
3.11
3.83
4.34
4.68
4.93
5.15
5.37
5.53
5.50
5.18
4.57
3.77
3.00
2.46
2.25
2.30
2.45
2.45
2.17
1.57
0.76
-0.12
-0.98
-1.76
-2.47
-3.13
-3.76
-4.40
-5.09
-5.90
-6.87
-7.95
-8.97
-9.69
-9.85
-9.34
-8.16
-6.48
-4.54
-2.58
-0.77
0.83
2.19
3.35
4.31
5.06
5.58
5.85
5.90
5.82
5.66
5.48
5.28
5.05
4.75
4.40
4.04
3.70
3.39
3.07
2.65
2.09
1.38
0.55
-0.33
-1.19
-1.95
-2.60
-3.12
-3.57
-4.04
-4.69
-5.60
-6.77
-8.05
-9.19
-9.91
-10.00
-9.43
-8.32
-6.89
-5.31
-3.69
-2.02
-0.28
1.53
3.31
4.87
6.03
6.67
6.82
6.61
6.25
5.95
5.80
5.78
5.76
5.61
5.28
4.81
4.32
3.90
3.58
3.32
3.02
2.64
2.17
1.67
1.18
0.67
0.09
-0.63
-1.52
-2.53
-3.55
-4.49
-5.31
-6.05
-6.80
-7.66
-8.59
-9.46
-10.03
-10.07
-9.47
-8.27
-6.64
-4.79
-2.91
-1.10
0.62
2.25
3.76
5.04
5.99
6.55
6.73
6.64
6.44
6.27
6.19
6.19
6.20
6.15
5.99
5.73
5.37
4.95
4.44
3.86
3.23
2.56
1.87
1.17
0.46
-0.22
-0.84
-1.39
-1.92
-2.50
-3.22
-4.12
-5.18
-6.29
-7.36
-8.32
-9.11
-9.67
-9.93
-9.79
-9.19
-8.14
-6.75
-5.16
-3.52
-1.91
-0.38
1.01
2.23
3.22
3.94
4.40
4.66
4.79
4.82
4.76
4.59
4.25
3.72
3.02
2.20
1.38
0.63
0.04
-0.42
-0.82
-1.23
-1.68
-2.17
-2.64
-3.05
-3.45
-3.93
-4.67
-5.79
-7.38
-9.37
-11.62
-13.88
-15.92
-17.53
-18.61
-19.18
-19.40
-19.53
-19.92
-20.92
-22.79
-25.58
-29.03
-32.57
-35.48
-37.07
-36.97
-35.23
-32.23
-28.49
-24.36
-19.90
-15.00
-9.60
-3.86
1.77
6.72
10.58
13.29
15.17
16.70
18.25
19.93
21.55
22.84
23.62
23.98
24.21
24.61
25.32
26.20
26.95
27.26
26.93
25.94
24.39
22.37
20.00
17.40
14.79
12.45
10.62
9.36
8.56
7.91
7.16
6.27
5.43
4.98
5.21
6.16
7.59
9.09
10.24
10.75
10.52
9.61
8.22
6.73
5.64
5.67
7.52
11.62
17.79
25.07
31.86
36.42
37.46
34.64
28.70
21.11
13.52
7.18
2.70
-0.00
-1.45
-2.32
-3.25
-4.67
-6.81
-9.69
-13.07
-16.58
-19.83
-22.54
-24.59
-26.02
-26.96
-27.50
-27.67
-27.41
-26.63
-25.26
-23.32
-20.91
-18.23
-15.51
-12.98
-10.80
-9.05
-7.82
-7.11
-6.89
-7.13
-7.63
-8.19
-8.55
-8.63
-8.53
-8.52
-8.86
-9.63
-10.73
-11.85
-12.69
-13.07
-12.96
-12.49
-11.85
-11.10
-10.31
-9.54
-8.84
-8.24
-7.61
-6.71
-5.30
-3.28
-0.55
2.70
6.03
8.94
11.10
12.51
13.45
14.24
15.17
16.78
19.31
22.58
26.10
29.38
32.19
34.57
36.57
38.20
39.99
42.18
44.52
46.53
47.96
48.99
50.23
52.11
54.94
59.45
65.85
73.60
81.58
88.66
94.02
97.32
98.34
91.55
74.43
48.78
20.10
-6.27
-27.93
-45.04
-57.96
-67.98
-75.14
-78.10
-76.15
-69.99
-61.67
-52.98
-45.51
-39.95
-36.35
-34.21
-32.41
-30.36
-28.14
-26.33
-25.39
-25.37
-25.83
-26.29
-26.27
-25.18
-22.84
-19.55
-15.98
-12.81
-10.46
-8.95
-8.10
-7.60
-7.15
-6.82
-7.06
-8.34
-10.68
-13.44
-15.48
-15.68
-13.44
-9.06
-3.56
1.63
5.32
7.11
7.33
6.93
6.94
8.15
10.73
14.20
17.48
19.35
18.91
15.86
10.67
4.42
-1.57
-6.40
-9.70
-11.78
-13.06
-13.76
-13.80
-13.00
-11.54
-10.01
-9.89
-11.01
-13.02
-15.18
-16.63
-16.50
-13.95
-10.05
-4.98
0.01
3.08
2.07
-4.72
-17.10
-34.01
-52.94
-70.10
-80.94
-81.94
-71.72
-52.05
-27.28
-2.89
16.37
28.11
32.59
32.09
29.15
25.62
22.21
18.95
15.83
13.07
11.16
10.44
10.81
11.56
11.76
10.62
7.94
4.27
0.50
-2.33
-3.55
-2.99
-1.14
1.23
3.28
4.53
4.93
4.80
4.68
5.06
6.11
7.64
9.17
10.16
10.30
9.59
8.36
7.08
6.13
5.66
5.56
5.58
5.51
5.31
5.05
4.87
4.81
4.77
4.64
4.29
3.71
2.96
2.17
1.42
0.77
0.26
-0.10
-0.27
-0.20
0.22
1.07
2.38
4.14
6.15
8.15
9.79
10.83
11.13
10.76
9.92
8.86
7.79
6.86
6.13
5.59
5.17
4.83
4.58
4.49
4.71
5.38
6.53
8.00
9.50
10.65
11.19
11.12
10.71
10.40
10.67
11.84
13.98
16.97
20.54
24.45
28.49
32.60
36.78
41.14
45.78
50.78
56.09
61.50
66.68
71.38
75.54
79.39
83.27
87.45
91.84
96.08
99.66
102.30
104.15
105.88
108.40
112.68
119.40
128.64
139.80
151.45
161.50
167.49
167.16
158.93
142.21
117.53
86.60
52.15
17.50
-14.29
-41.33
-63.92
-84.60
-107.51
-137.02
-176.35
-226.76
-287.40
-355.45
-426.36
-493.94
-550.80
-589.51
-604.42
-593.41
-558.77
-506.42
-443.76
-377.25
-310.74
-245.13
-179.38
-112.25
-43.85
23.49
85.53
137.37
175.20
197.73
206.69
206.11
200.48
193.25
185.78
177.76
168.26
156.88
144.18
131.30
119.13
107.79
96.67
84.94
72.22
58.76
45.26
32.45
20.72
10.06
0.24
-8.81
-16.85
-23.30
-27.44
-28.74
-27.08
-22.85
-16.90
-10.32
-4.19
0.67
3.85
5.47
6.19
7.06
9.31
13.89
21.10
30.42
40.61
50.16
57.89
63.43
67.25
70.34
73.59
77.23
80.75
83.11
83.40
81.21
76.88
71.21
65.00
58.69
52.20
45.18
37.28
28.58
19.56
10.97
3.43
-2.86
-8.21
-13.24
-18.49
-24.12
-29.81
-34.83
-38.47
-40.23
-40.10
-38.52
-36.50
-35.43
-36.95
-42.42
-52.25
-65.18
-78.07
-86.53
-86.32
-75.13
-53.77
-26.05
2.58
27.19
45.08
56.38
63.24
68.32
73.28
78.25
82.27
84.32
84.17
82.66
81.15
80.65
81.20
81.85
81.13
77.85
71.65
63.16
53.65
44.49
36.70
30.83
26.98
24.98
24.13
22.84
18.38
7.13
-14.36
-47.83
-91.93
-141.86
-190.33
-229.64
-253.84
-260.10
-248.91
-223.26
-187.60
-147.04
-106.79
-71.49
-44.27
-25.73
-13.68
-3.98
7.65
23.71
43.75
64.87
83.28
96.12
102.63
103.95
102.12
98.82
94.83
90.15
84.56
78.25
71.87
66.23
61.89
58.74
56.10
53.11
49.20
44.36
39.11
34.15
30.00
26.78
24.23
21.92
19.45
16.64
13.51
10.29
7.34
4.98
3.38
2.51
2.09
1.75
1.16
0.19
-1.02
-2.17
-2.95
-3.14
-2.69
-1.75
-0.57
0.56
1.33
1.50
0.98
-0.21
-1.90
-3.85
-5.77
-7.43
-8.61
-9.12
-8.87
-7.96
-6.73
-5.68
-5.41
-6.28
-8.25
-10.87
-13.35
-14.91
-15.07
-13.77
-11.37
-8.52
-5.85
-3.85
-2.73
-2.44
-2.70
-3.12
-3.33
-3.06
-2.26
-1.09
0.14
1.11
1.56
1.37
0.57
-0.68
-2.17
