1659462227.00
64.000000
-0.00
-0.00
-0.00
-0.00
-0.00
-0.00
-0.00
-0.00
-0.00
-0.00
0.00
0.01
0.01
-0.00
-0.03
-0.05
-0.05
0.00
0.13
0.36
0.66
1.01
1.37
1.72
2.06
2.40
2.79
3.24
3.80
4.42
5.06
5.66
6.20
6.68
7.15
7.68
8.31
9.14
10.09
11.04
11.88
12.56
13.14
13.76
14.65
15.96
17.91
20.32
22.90
25.38
27.58
29.57
31.68
34.32
37.81
42.54
48.15
54.10
59.83
64.97
69.58
74.15
79.35
85.71
93.76
102.99
112.61
121.73
129.77
136.78
143.35
150.79
157.78
166.57
177.75
191.45
206.51
220.03
227.68
224.80
207.98
176.30
132.13
79.31
22.20
-35.92
-93.47
-150.18
-206.21
-261.34
-314.78
-365.10
-411.36
-452.76
-488.62
-517.98
-539.43
-551.31
-552.01
-540.60
-516.96
-482.22
-438.32
-387.65
-332.63
-275.47
-218.07
-162.00
-108.65
-59.07
-14.18
25.50
59.79
88.82
112.81
131.99
146.50
156.47
162.19
164.16
163.19
160.23
156.11
151.33
146.00
139.96
132.89
124.52
114.57
102.96
90.06
77.03
65.98
59.46
59.54
66.71
79.32
93.89
106.48
114.16
115.92
112.62
106.11
98.12
89.61
81.00
72.31
63.85
56.33
50.51
46.68
44.50
43.04
41.25
38.35
34.20
29.27
24.36
20.21
17.20
15.18
13.60
11.86
9.57
6.75
3.86
1.46
-0.03
-0.54
-0.41
-0.15
-0.25
-0.92
-2.12
-3.56
-4.89
-5.80
-6.11
-5.74
-4.83
-3.65
-2.58
-2.00
-2.09
-2.81
-3.89
-4.97
-5.77
-6.19
-6.27
-6.05
-5.54
-4.67
-3.43
-1.93
-0.43
0.77
1.44
1.53
1.15
0.52
-0.16
-0.77
-1.31
-1.79
-2.25
-2.66
-2.99
-3.18
-3.24
-3.18
-3.05
-2.85
-2.60
-2.27
-1.86
-1.37
-0.86
-0.36
0.09
0.48
0.85
1.27
1.85
2.65
3.65
4.74
5.72
6.45
6.88
7.11
7.36
7.80
8.50
9.32
10.03
10.38
10.19
9.46
8.16
6.37
4.15
1.60
-1.15
-3.93
-6.52
-8.73
-10.39
-11.45
-11.93
-11.94
-11.59
-11.05
-10.43
-9.80
-9.23
-8.73
-8.30
-7.91
-7.54
-7.16
-6.75
-6.30
-5.80
-5.29
-4.80
-4.42
-4.21
-4.19
-4.32
-4.53
-4.72
-4.80
-4.77
-4.60
-4.22
-3.54
-2.46
-1.03
0.54
1.90
2.74
2.87
2.39
1.61
0.90
0.51
0.50
0.71
0.97
1.11
1.11
1.00
0.87
0.79
0.78
0.78
0.73
0.61
0.42
0.25
0.17
0.18
0.18
0.04
-0.42
-1.34
-2.69
-4.31
-5.91
-7.21
-8.08
-8.56
-8.87
-9.26
-9.89
-10.77
-11.73
-12.49
-12.78
-12.31
-10.93
-8.64
-5.63
-2.20
1.26
4.41
7.01
8.96
10.29
11.06
11.35
11.19
10.60
9.68
8.54
7.34
6.18
5.12
4.17
3.31
2.59
2.07
1.84
1.91
2.20
2.52
2.65
2.38
1.71
0.81
-0.01
-0.46
-0.42
-0.04
0.30
0.15
-0.75
-2.42
-4.52
-6.57
-8.07
-8.73
-8.45
-7.37
-5.70
-3.68
-1.56
0.43
2.06
3.14
3.55
3.34
2.70
1.87
1.08
0.46
-0.01
-0.41
-0.79
-1.10
-1.21
-1.01
-0.52
0.10
0.56
0.58
0.05
-0.95
-2.20
-3.42
-4.40
-5.06
-5.39
-5.49
-5.42
-5.30
-5.23
-5.35
-5.75
-6.49
-7.52
-8.69
-9.81
-10.64
-10.93
-10.51
-9.32
-7.41
-4.98
-2.34
0.22
2.45
4.17
5.32
5.92
6.03
5.74
5.16
4.41
3.61
2.86
2.24
1.79
1.49
1.27
0.97
0.46
-0.40
-1.66
-3.26
-5.06
-6.89
-8.62
-10.19
-11.61
-12.94
-14.23
-15.46
-16.51
-17.22
-17.39
-16.91
-15.79
-14.10
-11.92
-9.23
-5.97
-2.06
2.44
7.29
12.10
16.45
20.01
22.67
24.48
25.59
26.09
26.04
25.48
24.43
22.97
21.23
19.39
17.64
16.17
15.09
14.41
14.07
13.92
13.79
13.58
13.23
12.73
12.16
11.63
11.22
11.02
11.04
11.15
11.18
10.94
10.39
9.63
8.81
8.01
7.07
5.67
3.44
0.16
-4.09
-8.98
-14.05
-18.86
-23.12
-26.55
-28.96
-30.10
-29.82
-28.18
-25.46
-22.20
-18.92
-15.97
-13.36
-10.85
-8.10
-4.89
-1.26
2.56
6.28
9.66
12.54
14.77
16.15
16.46
15.60
13.71
11.26
8.77
6.61
4.75
2.77
0.12
-3.56
-8.21
-13.35
-18.34
-22.61
-25.87
-28.07
-29.24
-29.38
-28.47
-26.50
-23.64
-20.25
-16.80
-13.66
-11.00
-8.76
-6.70
-4.57
-2.26
0.22
2.69
4.97
6.89
8.38
9.48
10.30
11.01
11.72
12.49
13.23
13.76
13.86
13.38
12.28
10.68
8.80
6.90
5.20
3.76
2.57
1.50
0.41
-0.83
-2.28
-3.94
-5.67
-7.25
-8.36
-8.63
-7.79
-5.76
-2.73
0.87
4.54
7.83
10.51
12.55
14.04
15.14
15.89
16.33
16.45
16.29
15.94
15.51
15.04
14.52
13.91
13.18
12.38
11.58
10.81
10.06
9.23
8.21
6.96
5.52
4.00
2.54
1.19
-0.01
-1.10
-2.16
-3.26
-4.54
-6.10
-7.98
-10.12
-12.27
-14.05
-15.06
-15.07
-14.04
-12.13
-9.67
-7.02
-4.49
-2.29
-0.52
0.79
1.65
2.13
2.29
2.19
1.89
1.45
0.95
0.48
0.13
-0.07
-0.13
-0.11
-0.06
-0.00
0.04
0.07
0.01
-0.17
-0.48
-0.86
-1.17
-1.24
-0.99
-0.49
0.09
0.50
0.54
0.14
-0.65
-1.68
-2.79
-3.83
-4.64
-5.12
-5.12
-4.56
-3.41
-1.72
0.31
2.41
4.32
5.83
6.85
7.35
7.36
6.92
6.12
5.09
3.98
2.98
2.17
1.56
1.07
0.59
0.02
-0.64
-1.36
-2.01
-2.46
-2.53
-2.13
-1.22
0.15
1.85
3.74
5.70
7.62
9.38
10.83
11.89
12.54
12.97
13.43
14.19
15.38
16.97
18.85
20.94
23.27
25.91
28.80
31.73
34.34
36.27
37.30
37.39
36.57
34.86
32.19
28.50
23.81
18.36
12.55
6.89
1.74
-2.75
-6.65
-10.19
-13.56
-16.87
-20.14
-23.40
-26.67
-30.07
-33.67
-37.47
-41.30
-44.87
-47.81
-49.76
-50.48
-49.86
-47.90
-44.65
-40.26
-34.90
-28.86
-22.44
-16.00
-9.78
-3.91
1.65
6.95
12.01
16.68
20.62
23.46
24.88
24.79
23.36
20.89
17.72
14.05
9.98
5.51
0.73
-4.15
-8.93
-13.54
-18.12
-22.97
-28.23
-33.65
-38.48
-41.74
-42.61
-40.90
-37.03
-31.76
-25.71
-19.12
-11.86
-3.83
4.71
13.07
20.36
25.94
29.65
31.78
32.80
33.05
32.56
31.21
28.88
25.71
22.12
18.61
15.62
13.36
11.72
10.39
9.05
7.42
5.44
3.11
0.54
-2.20
-5.05
-7.90
-10.57
-12.78
-14.25
-14.74
-14.13
-12.36
-9.42
-5.29
-0.06
6.04
12.66
19.39
25.86
31.89
37.43
42.48
46.96
50.70
53.53
55.33
56.14
56.03
54.99
52.91
49.55
44.74
38.50
31.11
22.93
14.31
5.49
-3.50
-12.64
-21.87
-31.04
-39.89
-48.21
-55.87
-62.84
-69.16
-74.88
-80.03
-84.53
-88.25
-90.98
-92.54
-92.85
-91.92
-89.93
-87.16
-83.97
-80.75
-77.94
-75.93
-74.96
-75.06
-75.85
-76.59
-76.27
-73.79
-68.30
-59.37
-47.23
-32.64
-16.79
-0.97
13.81
26.96
38.40
48.37
57.16
64.89
71.42
76.50
79.91
81.74
82.28
81.97
81.14
79.93
78.24
75.99
73.20
70.06
66.83
63.59
60.22
56.38
51.76
46.31
40.34
34.38
28.89
24.05
19.69
15.47
11.19
6.94
3.18
0.44
-0.88
-0.73
0.60
2.62
4.90
7.10
9.08
10.81
12.30
13.55
14.62
15.61
16.69
18.03
19.73
21.75
23.80
25.44
26.21
25.84
24.38
22.16
19.70
17.45
15.60
14.03
12.44
10.57
8.34
5.88
3.48
1.42
-0.15
-1.27
-2.05
-2.62
-3.10
-3.62
-4.38
-5.58
-7.43
-9.96
-12.99
-16.17
-19.14
-21.62
-23.54
-25.01
-26.21
-27.29
-28.44
-29.86
-31.89
-34.95
-39.39
-45.26
-52.21
-59.63
-66.88
-73.52
-79.32
-84.14
-87.68
-89.53
-89.37
-87.19
-83.47
-78.87
-73.82
-68.18
-61.25
-52.16
-40.52
-26.77
-12.13
1.80
13.67
22.74
28.96
32.82
35.00
36.21
36.96
37.60
38.30
39.15
40.25
41.76
43.90
46.82
50.48
54.54
58.40
61.39
62.96
62.94
61.51
59.09
56.14
52.96
49.63
46.09
42.26
38.17
33.90
29.53
25.08
20.42
15.41
9.98
4.22
-1.65
-7.32
-12.52
-17.07
-20.92
-24.12
-26.77
-28.99
-30.86
-32.42
-33.69
-34.66
-35.34
-35.79
-36.06
-36.13
-35.88
-35.05
-33.37
-30.63
-26.80
-21.99
-16.43
-10.40
-4.14
2.05
7.89
13.13
17.51
20.90
23.31
24.86
25.77
26.26
26.50
26.57
26.42
25.97
25.06
23.55
21.36
18.44
14.88
10.89
6.81
3.02
-0.12
-2.39
-3.76
-4.34
-4.37
-4.07
-3.67
-3.44
-3.61
-4.33
-5.60
-7.17
-8.62
-9.44
-9.27
-7.98
-5.77
-3.00
-0.11
2.54
4.69
6.24
7.19
7.61
7.61
7.29
6.70
5.84
4.73
3.38
1.87
0.28
-1.28
-2.71
-3.93
-4.88
-5.51
-5.79
-5.74
-5.44
-5.04
-4.77
-4.77
-5.14
-5.83
-6.70
-7.57
-8.26
-8.69
-8.90
-9.00
-9.15
-9.44
-9.89
-10.42
-10.83
-10.85
-10.20
-8.66
-6.20
-2.99
0.60
4.13
7.21
9.65
11.43
12.68
13.56
14.16
14.48
14.49
14.14
13.48
12.57
11.51
10.37
9.22
8.10
7.01
6.00
5.07
4.22
3.41
2.58
1.67
0.60
-0.68
-2.13
-3.67
-5.17
-6.46
-7.41
-8.01
-8.30
-8.45
-8.68
-9.20
-10.08
-11.21
-12.30
-12.93
-12.73
-11.50
-9.31
-6.50
-3.55
-0.88
1.26
2.87
4.08
5.08
5.97
6.76
7.35
7.65
7.66
7.44
7.11
6.76
6.41
6.02
5.56
5.01
4.45
3.97
3.62
3.37
3.05
2.47
1.52
0.24
-1.19
-2.50
-3.52
-4.20
-4.65
-5.00
-5.36
-5.73
-6.08
-6.39
-6.77
-7.32
-8.11
-9.06
-9.90
-10.29
-9.96
-8.84
-7.15
-5.24
-3.56
-2.43
-2.02
-2.31
-3.14
-4.23
-5.29
-6.11
-6.65
-7.03
-7.57
-8.59
-10.28
-12.57
-15.19
-17.72
-19.80
-21.28
-22.27
-23.05
-23.97
-25.23
-26.86
-28.67
-30.42
-31.89
-32.90
-33.28
-32.69
-30.77
-27.28
-22.43
-16.86
-11.24
-5.70
0.50
8.75
20.22
34.93
51.34
66.90
79.21
87.29
91.95
95.20
99.11
104.86
112.51
121.49
131.13
140.98
150.60
159.21
165.59
168.37
166.65
160.31
150.18
137.67
124.28
111.20
99.23
88.76
79.96
72.81
67.16
62.73
59.10
55.69
51.81
46.69
39.66
30.29
18.57
4.98
-9.44
-23.29
-35.10
-43.75
-48.72
-50.26
-49.10
-46.11
-41.87
-36.53
-30.35
-23.46
-16.04
-8.41
-1.21
4.77
9.00
11.32
11.90
10.66
7.71
3.53
-1.02
-5.04
-7.84
-9.04
-8.61
-6.74
-4.59
-2.72
-0.50
3.44
10.15
19.69
31.16
43.17
54.24
60.52
59.77
52.79
42.54
31.80
21.88
12.93
4.57
-3.59
-17.01
-38.31
-64.46
-88.73
-105.82
-114.76
-118.23
-120.63
-126.29
-146.56
-186.85
-242.47
-301.85
-355.10
-398.52
-433.48
-463.66
-493.31
-537.26
-604.51
-691.88
-786.12
-872.83
-941.39
-984.95
-999.93
-916.30
-711.04
-426.05
-139.68
92.17
255.96
363.57
432.63
477.06
505.02
510.13
489.74
451.89
412.00
382.55
367.78
365.40
371.19
378.89
374.97
351.73
311.98
266.49
225.88
195.79
176.95
167.06
162.24
153.62
135.99
111.08
85.63
65.76
53.87
48.55
47.30
47.65
45.69
39.70
31.07
22.98
17.69
15.50
15.37
16.09
16.75
16.11
13.71
10.12
6.53
3.77
2.02
0.95
0.16
-0.72
-1.77
-2.90
-3.91
-4.72
-5.40
-6.17
-7.34
-9.04
-11.24
-13.63
-15.68
-16.84
-16.66
-15.01
-12.11
-8.48
-4.71
-1.35
1.30
3.17
4.35
4.99
5.23
5.17
4.91
4.57
4.26
4.04
3.87
3.62
3.21
2.62
1.97
1.49
1.36
1.67
2.31
3.04
3.60
3.83
3.71
3.40
3.09
2.91
2.83
2.68
2.28
1.49
0.33
-1.03
-2.31
-3.21
-3.43
-2.78
-1.18
1.25
4.21
7.33
10.28
12.95
15.44
17.95
20.66
23.51
26.21
28.37
29.69
30.08
29.70
28.84
27.77
26.63
25.46
24.22
22.93
21.69
20.62
19.76
19.04
18.25
17.08
15.25
12.58
9.03
4.67
-0.35
-5.85
-11.65
-17.54
-23.35
-28.89
-33.99
-38.55
-42.48
-45.66
-47.97
-49.22
-49.25
-47.94
-45.30
-41.48
-36.77
-31.58
-26.28
-21.20
-16.51
-12.27
-8.40
-4.82
-1.46
1.71
4.66
7.34
9.66
11.54
12.88
13.68
13.98
13.90
13.55
12.95
12.08
10.91
9.53
8.15
7.05
6.42
6.24
6.31
6.31
5.99
5.31
4.49
3.89
3.86
4.60
6.09
8.16
10.58
13.11
15.58
17.86
19.84
21.43
22.54
23.16
23.31
23.00
22.29
21.15
19.61
17.69
15.54
13.39
11.51
10.12
9.35
9.20
9.56
10.27
11.24
12.41
13.82
15.46
17.28
19.06
20.48
21.23
21.07
20.00
18.21
16.06
13.89
12.00
10.59
9.80
9.72
10.44
11.92
13.94
16.10
17.84
18.65
18.22
16.53
13.85
10.60
7.16
3.73
0.35
-3.06
-6.53
-9.94
-12.99
-15.37
-16.85
-17.45
-17.39
-16.99
-16.54
-16.21
-16.02
-15.94
-15.96
-16.11
-16.46
-17.06
-17.94
-19.12
-20.65
-22.59
-25.01
-27.94
-31.28
-34.83
-38.31
-41.39
-43.74
-45.12
-45.35
-44.41
-42.37
-39.37
-35.55
-31.05
-26.00
-20.55
-14.87
-9.11
-3.35
2.40
8.20
14.09
20.08
26.11
32.07
37.85
43.35
48.47
53.05
56.90
59.83
61.70
62.49
62.27
61.15
59.25
56.70
53.63
50.20
46.52
42.62
38.39
33.73
28.59
23.16
17.81
13.00
9.06
6.05
3.75
1.79
-0.18
-2.28
-4.47
-6.57
-8.51
-10.35
-12.39
-14.99
-18.46
-22.89
-28.11
-33.81
-39.62
-45.23
-50.46
-55.23
-59.45
-63.00
-65.68
-67.26
-67.55
-66.44
-63.91
-60.07
-55.10
-49.31
-43.05
-36.67
-30.49
-24.74
-19.53
-14.82
-10.46
-6.18
-1.73
3.14
8.55
14.49
20.84
27.39
33.92
40.23
46.17
51.60
56.41
60.51
63.81
66.23
67.71
68.18
67.68
66.29
64.25
61.88
59.50
57.30
55.30
53.29
50.97
48.11
44.59
40.50
36.00
31.29
26.44
21.45
16.26
10.78
5.02
-0.99
-7.20
-13.55
-19.97
-26.37
-32.63
-38.57
-44.03
-48.93
-53.30
-57.27
-60.97
-64.46
-67.65
-70.34
-72.29
-73.29
-73.23
-72.06
-69.76
-66.32
-61.79
-56.30
-50.04
-43.24
-36.07
-28.64
-21.00
-13.25
-5.56
1.74
8.32
13.91
18.43
21.94
24.59
26.53
27.82
28.49
28.54
28.04
27.07
25.84
24.55
23.42
22.66
22.41
22.75
23.62
24.91
26.47
28.15
29.82
31.33
32.55
33.32
33.59
33.37
32.83
32.21
31.67
31.27
30.90
30.35
29.45
28.11
26.30
24.03
21.23
17.83
13.77
9.10
4.03
-1.16
-6.20
-10.95
-15.43
-19.79
-24.22
-28.84
-33.66
-38.59
-43.45
-48.01
-51.99
-55.04
-56.81
-57.00
-55.43
-52.10
-47.19
-41.03
-34.02
-26.55
-19.01
-11.73
-5.09
0.59
4.98
7.91
9.38
9.60
8.93
7.77
6.47
5.25
4.24
3.43
2.85
2.49
2.43
2.75
3.53
4.83
6.65
9.04
12.05
15.71
19.98
24.67
29.47
34.02
38.03
41.33
43.93
45.94
47.47
48.59
49.30
49.61
49.55
49.10
48.18
46.61
44.11
40.44
35.48
29.30
22.13
14.37
6.41
-1.43
-8.94
-16.11
-23.02
-29.83
-36.66
-43.59
-50.64
-57.73
-64.68
-71.18
-76.79
-81.04
-83.49
-83.92
-82.28
-78.73
-73.51
-66.88
-59.14
-50.63
-41.78
-33.03
-24.81
-17.42
-10.96
-5.40
-0.57
3.78
7.86
11.81
15.61
19.16
22.29
24.91
27.13
29.16
31.23
33.41
35.61
37.62
39.33
40.75
42.04
43.34
44.65
45.82
46.66
47.10
47.22
47.20
47.14
47.01
46.58
45.62
43.98
41.66
38.82
35.59
32.03
28.14
23.88
19.24
14.30
9.11
3.74
-1.74
-7.28
-12.72
-17.91
-22.68
-26.98
-30.91
-34.63
-38.38
-42.25
-46.23
-50.15
-53.73
-56.61
-58.39
-58.67
-57.12
-53.62
-48.35
-41.80
-34.66
-27.68
-21.45
-16.27
-12.14
-8.84
-6.06
-3.51
-1.03
1.40
3.72
5.81
7.63
9.17
10.53
11.85
13.21
14.65
16.09
17.38
18.35
18.92
19.16
19.31
19.70
20.62
22.20
24.33
26.74
29.13
31.24
32.93
34.05
34.51
34.15
32.90
30.80
28.04
24.87
21.49
17.95
14.17
9.97
5.28
0.16
-5.19
-10.50
-15.54
-20.20
-24.47
-28.47
-32.30
-36.04
-39.63
-42.95
-45.79
-47.92
-49.11
-49.16
-47.95
-45.49
-41.95
-37.58
-32.71
-27.52
-22.05
-16.17
-9.73
-2.70
4.77
12.37
19.68
26.35
32.17
37.11
41.23
44.65
47.48
49.77
51.49
52.50
52.65
51.79
49.85
46.84
42.81
37.86
32.01
25.32
17.86
9.76
1.24
-7.40
-15.93
-24.11
-31.76
-38.76
-44.94
-50.12
-54.13
-56.81
-58.13
-58.11
-56.91
-54.66
-51.51
-47.52
-42.76
-37.32
-31.43
-25.40
-19.60
-14.38
-9.97
-6.42
-3.71
-1.75
-0.50
0.02
-0.23
-1.26
-2.96
-5.12
-7.39
-9.46
-11.08
-12.15
-12.65
-12.65
-12.19
-11.25
-9.75
-7.60
-4.84
-1.62
1.79
5.00
7.69
9.63
10.75
11.19
11.24
11.31
11.85
13.21
15.61
19.08
23.50
28.65
34.30
40.14
45.87
51.11
55.53
58.86
60.97
61.87
61.65
60.36
58.01
54.60
50.15
44.86
39.09
33.29
27.88
23.11
19.00
15.40
12.13
8.99
5.92
2.94
0.14
-2.43
-4.78
-7.06
-9.47
-12.25
-15.57
-19.48
-23.92
-28.75
-33.81
-38.94
-44.00
-48.87
-53.42
-57.46
-60.83
-63.41
-65.17
-66.18
-66.52
-66.26
-65.40
-63.89
-61.74
-59.00
-55.76
-52.12
-48.07
-43.54
-38.48
-32.96
-27.21
-21.55
-16.26
-11.46
-7.04
-2.78
1.57
6.14
10.93
15.87
20.84
25.75
30.47
34.91
38.98
42.60
45.74
48.37
50.42
51.81
52.43
52.22
51.21
49.52
47.40
45.11
42.96
41.19
39.97
39.34
39.19
39.31
39.41
39.26
38.71
37.73
36.37
34.73
32.78
30.43
27.47
23.70
19.07
13.66
7.66
1.30
-5.29
-12.08
-19.12
-26.43
-33.94
-41.47
-48.80
-55.75
-62.21
-68.12
-73.41
-77.93
-81.48
-83.79
-84.69
-84.11
-82.08
-78.69
-74.03
-68.17
-61.13
-53.07
-44.24
-35.06
-25.93
-17.16
-8.89
-1.09
6.28
13.26
19.80
25.87
31.46
36.64
41.49
46.03
50.18
53.83
56.87
59.27
61.10
62.40
63.21
63.50
63.22
62.39
61.07
59.30
57.01
54.09
50.41
45.98
41.04
36.01
31.29
27.21
23.82
21.04
18.70
16.66
14.86
13.23
11.69
10.07
8.18
5.82
2.87
-0.75
-5.05
-10.01
-15.53
-21.47
-27.63
-33.79
-39.77
-45.46
-50.84
-55.98
-60.96
-65.85
-70.59
-74.90
-78.31
-80.27
-80.26
-77.98
-73.43
-66.90
-58.90
-50.05
-40.99
-32.31
-24.45
-17.65
-11.98
-7.29
-3.36
0.04
3.05
5.72
8.06
10.07
11.75
13.16
14.33
15.30
16.12
16.82
17.45
18.05
18.68
19.50
20.75
22.77
25.88
30.21
35.60
41.55
47.39
52.45
56.31
58.88
60.36
61.07
61.26
61.01
60.22
58.74
56.41
53.17
48.98
43.85
37.75
30.75
23.04
14.97
7.05
-0.30
-6.78
-12.40
-17.39
-22.10
-26.85
-31.85
-37.19
-42.88
-48.86
-54.98
-60.96
-66.36
-70.66
-73.43
-74.37
-73.44
-70.83
-66.84
-61.84
-56.12
-49.93
-43.47
-36.92
-30.48
-24.30
-18.52
-13.18
-8.26
-3.71
0.52
4.49
8.20
11.64
14.78
17.64
20.26
22.75
25.31
28.13
31.39
35.22
39.58
44.28
48.98
53.27
56.69
58.95
59.95
59.83
58.89
57.50
55.97
54.43
52.86
51.13
49.06
46.47
43.24
39.28
34.52
29.02
22.93
16.51
10.11
4.08
-1.40
-6.29
-10.74
-15.03
-19.46
-24.26
-29.57
-35.40
-41.61
-47.91
-53.85
-58.88
-62.44
-64.13
-63.79
-61.58
-57.83
-52.96
-47.32
-41.17
-34.68
-28.02
-21.45
-15.24
-9.59
-4.57
-0.05
4.21
8.47
12.83
17.19
21.30
24.83
27.52
29.25
30.09
30.17
29.64
28.56
26.88
24.61
21.78
18.53
14.97
11.06
6.60
1.35
-4.74
-11.40
-17.96
-23.62
-27.67
-29.78
-30.03
-28.82
-26.62
-23.86
-20.81
-17.68
-14.64
-11.90
-9.68
-8.16
-7.53
-7.88
-9.21
-11.41
-14.24
-17.42
-20.69
-23.89
-26.93
-29.81
-32.53
-35.02
-37.10
-38.51
-38.96
-38.14
-35.90
-32.17
-27.00
-20.47
-12.71
-3.89
5.67
15.51
25.05
33.82
41.57
48.35
54.40
59.96
65.12
69.69
73.38
75.92
77.25
77.46
76.79
75.41
73.34
70.48
66.66
61.72
55.59
48.25
39.71
30.02
19.24
7.57
-4.64
-16.87
-28.58
-39.22
-48.38
-55.78
-61.29
-64.86
-66.51
-66.34
-64.59
-61.63
-57.95
-54.04
-50.30
-46.93
-43.89
-41.00
-38.06
-35.01
-31.96
-29.15
-26.90
-25.45
-24.91
-25.28
-26.42
-28.08
-29.96
-31.72
-33.07
-33.84
-34.04
-33.78
-33.16
-32.16
-30.60
-28.19
-24.77
-20.36
-15.24
-9.79
-4.33
1.02
6.36
11.89
17.75
23.90
30.17
36.35
42.27
47.87
53.14
58.05
62.54
66.53
69.96
72.77
74.92
76.29
76.73
76.08
74.25
71.26
67.24
62.38
56.87
50.92
44.72
38.42
32.16
25.98
19.90
13.92
8.11
2.59
-2.51
-7.15
-11.37
-15.33
-19.21
-23.12
-27.08
-31.10
-35.15
-39.26
-43.47
-47.80
-52.18
-56.54
-60.71
-64.52
-67.81
-70.41
-72.18
-73.04
-72.93
-71.83
-69.75
-66.69
-62.63
-57.61
-51.73
-45.13
-37.98
-30.48
-22.84
-15.28
-8.05
-1.47
4.21
8.88
12.67
15.89
18.97
22.27
25.97
30.06
34.35
38.63
42.70
46.44
49.73
52.47
54.56
55.91
56.54
56.53
55.99
55.02
53.66
51.98
50.07
48.04
46.04
44.15
42.38
40.65
38.87
36.94
34.83
32.56
30.10
27.40
24.33
20.74
16.47
11.46
5.72
-0.63
-7.44
-14.59
-21.94
-29.41
-36.85
-44.03
-50.67
-56.46
-61.17
-64.77
-67.36
-69.10
-70.09
-70.31
-69.63
-67.95
-65.25
-61.64
-57.30
-52.40
-47.00
-41.13
-34.79
-28.05
-21.02
-13.88
-6.78
0.21
7.03
13.65
20.02
26.04
31.59
36.53
40.72
44.06
46.51
48.12
48.97
49.17
48.78
47.79
46.17
43.94
41.21
38.17
35.04
32.02
29.27
26.88
24.96
23.63
22.98
23.01
23.57
24.34
24.99
25.22
24.94
24.25
23.35
22.49
21.76
21.10
20.27
18.95
16.87
13.94
10.21
5.90
1.23
-3.61
-8.54
-13.54
-18.65
-23.86
-29.17
-34.54
-39.92
-45.19
-50.04
-54.07
-56.84
-58.07
-57.75
-56.15
-53.71
-50.84
-47.80
-44.68
-41.47
-38.15
-34.76
-31.33
-27.89
-24.40
-20.87
-17.35
-13.98
-10.92
-8.19
-5.65
-3.04
-0.04
3.49
7.49
11.71
15.75
19.30
22.21
24.52
26.44
28.14
29.70
31.07
32.08
32.59
32.57
32.14
31.52
30.97
30.63
30.50
30.43
30.17
29.48
28.20
26.30
23.84
20.94
17.72
14.22
10.46
6.43
2.15
-2.35
-7.09
-12.12
-17.55
-23.46
-29.85
-36.60
-43.47
-50.13
-56.19
-61.26
-65.02
-67.25
-67.86
-66.88
-64.41
-60.60
-55.65
-49.80
-43.33
-36.54
-29.72
-23.06
-16.63
-10.43
-4.44
1.33
6.81
11.94
16.63
20.81
24.47
27.59
30.25
32.58
34.75
36.90
39.12
41.42
43.78
46.22
48.81
51.55
54.28
56.67
58.21
58.50
57.40
55.18
52.40
49.64
47.22
45.11
42.94
40.32
36.98
32.95
28.40
23.54
18.46
13.15
7.60
1.90
-3.76
-9.14
-14.10
-18.72
-23.27
-28.08
-33.45
-39.47
-45.99
-52.66
-58.98
-64.46
-68.73
-71.60
-73.05
-73.12
-71.82
-69.13
-65.00
-59.54
-53.00
-45.80
-38.41
-31.18
-24.34
-17.95
-11.99
-6.46
-1.37
3.26
7.39
11.04
14.21
16.89
19.09
20.78
22.01
22.91
23.70
24.65
26.04
28.02
30.60
33.50
36.33
38.60
40.01
40.45
40.09
39.23
38.11
36.84
35.31
33.26
30.47
26.84
22.44
17.53
12.41
7.32
2.42
-2.28
-6.78
-11.08
-15.09
-18.70
-21.83
-24.60
-27.26
-30.19
-33.68
-37.85
-42.60
-47.62
-52.47
-56.72
-59.98
-61.91
-62.28
-60.96
-57.94
-53.31
-47.27
-40.11
-32.10
-23.52
-14.61
-5.61
3.26
11.73
19.57
26.54
32.52
37.53
41.76
45.51
49.12
52.85
56.83
61.01
65.24
69.23
72.70
75.35
77.01
77.60
77.19
75.84
73.65
70.63
66.82
62.33
57.33
52.01
46.48
40.70
34.48
27.66
20.25
12.50
4.88
-2.18
-8.44
-13.91
-18.75
-23.12
-27.02
-30.29
-32.73
-34.26
-35.05
-35.44
-35.81
-36.39
-37.11
-37.68
-37.78
-37.23
-36.07
-34.54
-32.89
-31.28
-29.72
-28.16
-26.56
-24.92
-23.26
-21.56
-19.83
-18.08
-16.48
-15.20
-14.43
-14.18
-14.33
-14.69
-15.06
-15.39
-15.60
-15.57
-15.08
-13.89
-11.87
-9.16
-6.12
-3.18
-0.70
1.18
2.49
3.33
3.75
3.69
3.15
2.23
1.28
0.76
1.04
2.24
4.16
6.38
8.42
10.03
11.20
12.17
13.15
14.21
15.17
15.67
15.32
13.91
11.44
8.09
4.14
-0.22
-4.91
-9.96
-15.43
-21.26
-27.28
-33.17
-38.60
-43.31
-47.17
-50.21
-52.53
-54.21
-55.21
-55.35
-54.39
-52.10
-48.39
-43.41
-37.46
-30.91
-24.06
-17.14
-10.27
-3.52
3.08
9.51
15.77
21.90
27.90
33.70
39.15
44.07
48.34
51.95
54.97
57.54
59.75
61.62
63.05
63.89
63.97
63.16
61.39
58.70
55.25
51.34
47.32
43.54
40.20
37.31
34.63
31.80
28.57
24.88
20.98
17.28
14.07
11.36
8.82
5.91
2.20
-2.45
-7.84
-13.57
-19.30
-24.86
-30.30
-35.74
-41.26
-46.76
-52.01
-56.69
-60.49
-63.16
-64.55
-64.64
-63.46
-61.18
-57.98
-54.11
-49.74
-45.02
-40.00
-34.73
-29.26
-23.69
-18.19
-12.92
-8.09
-3.81
-0.11
3.09
5.97
8.76
11.68
14.92
18.56
22.63
27.08
31.80
36.58
41.12
45.09
48.21
50.31
51.38
51.51
50.83
49.41
47.30
44.57
41.36
37.93
34.56
31.44
28.64
26.07
23.59
21.10
18.60
16.20
14.09
12.38
11.09
10.06
9.02
7.66
5.74
3.18
0.07
-3.39
-7.01
-10.65
-14.26
-17.83
-21.39
-24.94
-28.50
-32.06
-35.58
-38.97
-42.08
-44.70
-46.69
-47.96
-48.54
-48.48
-47.80
-46.41
-44.15
-40.87
-36.57
-31.46
-25.98
-20.62
-15.85
-11.94
-8.92
-6.60
-4.73
-3.04
-1.39
0.19
1.59
2.65
3.32
3.73
4.13
4.79
5.92
7.56
9.60
11.88
14.25
16.66
19.11
21.56
23.91
26.00
27.67
28.85
29.59
29.99
30.15
30.06
29.66
28.90
27.84
26.62
25.42
24.33
23.30
22.15
20.73
18.93
16.75
14.22
11.32
7.97
4.08
-0.38
-5.32
-10.64
-16.25
-22.11
-28.26
-34.67
-41.19
-47.53
-53.30
-58.09
-61.57
-63.51
-63.81
-62.47
-59.63
-55.48
-50.34
-44.47
-38.16
-31.59
-24.96
-18.44
-12.25
-6.63
-1.76
2.30
5.61
8.38
10.82
13.11
15.32
17.45
19.45
21.30
23.05
24.83
26.81
29.17
32.02
35.40
39.18
43.10
46.73
49.61
51.34
51.77
51.04
49.51
47.63
45.75
44.02
42.34
40.52
38.31
35.52
32.04
27.80
22.81
17.17
11.10
4.94
-0.95
-6.25
-10.80
-14.60
-17.77
-20.44
-22.74
-24.74
-26.52
-28.12
-29.64
-31.14
-32.63
-34.04
-35.18
-35.76
-35.53
-34.31
-32.05
-28.86
-24.91
-20.38
-15.42
-10.19
-4.97
-0.09
4.03
7.11
9.04
10.02
10.36
10.38
10.23
9.85
9.07
7.72
5.78
3.33
0.51
-2.51
-5.61
-8.70
-11.70
-14.55
-17.24
-19.83
-22.38
-24.96
-27.54
-29.95
-31.97
-33.29
-33.67
-32.98
-31.19
-28.37
-24.71
-20.41
-15.68
-10.69
-5.60
-0.58
4.19
8.49
12.09
14.85
16.76
17.91
18.47
18.58
18.28
17.54
16.23
14.29
11.71
8.61
5.22
1.83
-1.27
-3.83
-5.72
-6.94
-7.64
-8.02
-8.31
-8.71
-9.32
-10.17
-11.24
-12.46
-13.75
-14.92
-15.72
-15.84
-14.91
-12.61
-8.70
-3.15
3.90
12.08
20.90
29.85
38.48
46.43
53.47
59.43
64.18
67.66
69.82
70.73
70.55
69.49
67.79
65.64
63.08
60.04
56.31
51.69
46.03
39.33
31.73
23.47
14.85
6.19
-2.24
-10.13
-17.22
-23.30
-28.32
-32.35
-35.58
-38.15
-40.16
-41.53
-42.19
-42.13
-41.51
-40.62
-39.79
-39.30
-39.26
-39.61
-40.19
-40.79
-41.21
-41.22
-40.65
-39.33
-37.20
-34.33
-30.94
-27.32
-23.74
-20.41
-17.37
-14.56
-11.86
-9.17
-6.46
-3.78
-1.27
0.91
2.68
3.98
4.87
5.48
5.93
6.37
6.87
7.49
8.23
9.04
9.81
10.42
10.78
10.84
10.65
10.30
9.79
9.03
7.81
5.94
3.38
0.31
-2.89
-5.80
-8.08
-9.64
-10.62
-11.29
-11.99
-13.01
-14.46
-16.32
-18.36
-20.19
-21.39
-21.60
-20.63
-18.62
-15.96
-13.19
-10.84
-9.21
-8.15
-7.01
-4.85
-0.79
5.45
13.36
21.80
29.39
35.13
38.73
40.71
41.88
42.75
43.13
42.21
39.20
33.86
26.84
19.55
13.68
10.47
10.10
11.67
13.80
15.36
15.74
14.78
12.62
9.59
6.22
3.18
1.16
0.38
0.33
-1.08
-7.24
-20.88
-41.57
-64.39
-81.36
-84.59
-70.07
-39.37
-0.37
35.37
57.51
61.15
48.33
25.79
1.94
-16.34
-24.29
-20.12
-5.18
16.90
41.36
62.40
73.39
69.32
44.92
5.28
-34.05
-56.56
-55.80
-37.68
-13.02
9.62
26.65
38.54
46.26
51.40
54.09
53.74
50.93
48.03
44.65
39.96
32.72
23.06
12.32
0.78
-12.57
-28.92
-48.10
-67.72
-83.15
-89.80
-85.70
-72.28
-54.66
-39.07
-29.59
-26.60
-27.56
-28.72
-27.39
-22.77
-15.64
-7.84
-1.63
2.21
4.16
5.19
6.14
7.21
8.21
8.95
9.29
9.19
8.80
8.14
6.95
4.82
1.45
-3.03
-7.92
-12.20
-14.93
-15.47
-13.90
-10.97
-7.81
-5.49
-4.63
-5.20
-6.66
-8.15
-8.81
-8.13
-6.08
-3.12
0.12
3.08
5.45
7.13
8.20
8.81
9.10
9.20
9.29
9.80
11.19
13.65
16.88
20.10
22.37
22.93
21.53
18.51
15.03
12.48
11.81
13.12
15.62
17.91
18.48
16.20
10.79
3.62
-2.91
-6.53
-6.02
-1.80
4.28
9.81
12.71
12.10
9.42
7.68
9.72
17.19
29.53
44.16
57.50
66.09
63.20
44.97
13.81
-21.29
-48.60
-60.17
-54.99
-38.43
-19.70
-8.39
-10.53
-26.59
-52.74
-81.37
-105.18
-120.13
-123.91
-115.67
-96.09
-67.15
-31.23
8.50
50.66
93.86
135.58
172.28
199.99
216.10
214.29
194.09
150.95
91.93
32.37
-13.18
-39.51
-51.52
-58.68
-68.49
-82.23
-96.17
-103.67
-98.38
-79.31
-50.63
-19.23
7.71
24.58
29.49
21.50
4.18
-15.48
-31.57
-41.81
-46.37
-45.70
-39.57
-27.03
-8.04
16.82
45.10
72.74
94.39
105.30
102.56
85.57
56.64
20.62
-15.60
-44.46
-60.49
-64.05
-59.95
-53.94
-49.65
-47.36
-45.14
-40.64
-33.04
-23.86
-16.02
-11.57
-10.65
-11.86
-13.01
-12.39
-9.41
-4.44
1.17
5.69
8.14
8.68
8.29
8.20
9.34
11.71
14.90
17.98
19.87
20.04
18.64
16.35
13.53
11.09
8.96
6.98
4.76
1.88
-1.62
-5.30
-8.43
-10.39
-10.89
-10.63
-10.36
-11.03
-13.40
-17.61
-23.16
-29.10
-34.46
-36.97
-37.94
-38.53
-39.87
-42.70
-46.99
-51.91
-56.14
-58.64
-58.92
-57.73
-56.05
-55.02
-55.61
-58.48
-64.02
-72.07
-81.28
-88.62
-90.04
-81.45
-61.10
-31.10
2.86
33.65
55.56
66.54
68.41
65.04
60.32
56.20
52.54
48.36
43.16
37.58
32.94
30.30
29.64
29.98
29.95
28.28
24.62
19.52
14.15
9.80
7.28
6.78
7.87
9.72
11.43
12.42
12.60
12.35
12.48
13.64
16.31
20.53
25.81
31.27
35.88
38.83
39.98
39.63
38.58
37.72
37.61
38.54
40.61
44.01
48.71
53.79
56.93
54.93
45.13
27.09
3.68
-19.75
-37.64
-46.74
-47.37
-42.86
-36.96
-31.99
-28.20
-24.63
-21.08
-19.04
-20.91
-27.82
-38.81
-50.11
-57.44
-58.08
-52.31
-43.57
-36.60
-35.36
-40.67
-51.11
-62.26
-69.51
-69.36
-61.15
-47.37
-32.80
-23.03
-22.42
-35.63
-64.07
-106.30
-156.64
-206.07
-244.60
-264.20
-261.49
-237.78
-200.72
-155.93
-110.16
-67.15
-26.76
13.81
57.48
98.05
140.88
177.58
199.53
199.62
176.18
134.36
84.98
41.15
13.58
8.43
23.46
53.64
92.88
136.65
181.68
224.26
258.92
279.21
281.10
263.23
230.74
192.39
157.66
132.91
119.64
114.82
113.30
110.84
104.24
93.66
80.97
68.44
57.62
48.95
42.10
36.61
32.46
29.04
25.69
20.45
10.34
-7.54
-34.37
-68.64
-106.43
-142.66
-172.95
-193.69
-203.60
-203.55
-195.75
-182.50
-165.54
-146.19
-125.88
-106.25
-87.63
-70.13
-53.09
-34.84
-12.89
15.24
50.00
88.61
125.67
156.56
178.01
189.23
191.80
188.68
182.62
174.39
162.57
135.75
90.15
32.04
-25.13
-69.71
-97.58
-110.68
-113.36
-109.32
-99.63
-82.88
-59.23
-31.75
-5.51
13.24
21.11
18.38
8.21
-5.27
-17.65
-26.85
-33.50
-40.12
-49.29
-61.96
-77.28
-93.17
-106.96
-115.61
-117.17
-111.45
-99.83
-84.50
-67.36
-49.82
-32.86
-17.30
-3.65
7.56
15.96
21.71
25.66
29.29
33.84
39.53
45.35
49.52
50.25
46.68
39.36
30.08
21.13
14.26
10.07
8.11
7.46
7.38
7.70
8.62
10.34
12.64
14.82
15.90
15.08
12.09
7.32
1.59
-4.10
-8.89
-12.23
-13.95
-14.31
-13.83
-13.17
-12.98
-13.75
-15.72
-18.75
-22.14
-24.73
-25.26
-22.79
-17.19
-9.32
-0.78
6.74
12.23
15.87
18.79
22.00
25.82
29.55
32.07
32.56
31.14
28.78
26.76
25.80
25.35
24.13
20.96
15.46
8.06
-0.61
-10.61
-22.82
-36.36
-49.91
-61.62
-69.90
-73.97
-73.99
-70.90
-66.13
-60.55
-54.43
-47.76
-40.51
-33.10
-26.52
-21.96
-20.32
-21.76
-24.90
-27.78
-28.87
-27.45
-24.09
-20.23
-17.58
-17.61
-22.25
-31.19
-43.72
-58.18
-71.42
-79.08
-76.78
-62.03
-34.40
-0.44
31.94
56.09
69.15
72.48
69.94
65.43
61.07
56.90
51.90
46.18
40.83
37.52
37.27
39.64
42.97
45.29
45.19
42.48
39.08
36.65
36.90
40.70
47.77
56.61
64.79
69.56
68.56
61.03
47.90
31.76
15.77
2.48
-7.10
-13.60
-18.57
-23.41
-28.39
-32.75
-35.19
-34.85
-31.89
-27.46
-23.00
-19.54
-17.31
-15.74
-14.04
-11.66
-8.66
-5.55
-2.95
-1.16
-0.01
0.93
2.11
3.56
5.09
6.49
7.79
9.37
11.61
14.48
17.30
18.90
18.13
14.62
8.99
2.63
-2.91
-6.64
-8.48
-9.13
-9.51
-10.23
-11.23
-11.95
-11.85
-10.75
-9.03
-7.38
-6.26
-5.65
-5.05
-3.95
-2.30
-0.91
-1.10
-4.12
-10.41
-19.13
-28.50
-36.47
-41.60
-43.51
-42.68
-39.90
-35.79
-30.66
-24.80
-18.92
-14.25
-12.04
-12.77
-15.62
-18.62
-19.59
-17.36
-12.49
-7.07
-3.49
-3.14
-5.62
-8.90
-10.47
-8.62
-3.19
4.47
12.27
18.41
22.09
23.55
23.65
23.32
23.06
22.91
22.58
21.76
20.42
18.89
17.72
17.40
18.01
19.14
20.00
19.80
18.12
15.19
11.77
8.77
6.84
6.10
6.07
6.03
5.33
3.72
1.44
-0.97
-2.86
-3.76
-3.49
-2.15
-0.05
2.39
4.72
6.52
7.47
7.42
6.45
4.85
3.06
1.55
0.64
0.47
0.92
1.76
2.70
3.56
4.26
4.82
5.19
5.21
4.61
3.06
0.40
-3.31
-7.71
-12.29
-16.57
-20.32
-23.55
-26.46
-29.19
-31.60
-33.32
-33.81
-32.69
-29.96
-26.11
-21.96
-18.32
-15.67
-13.99
-12.82
-11.44
-9.19
-5.71
-1.02
4.40
9.72
14.00
16.46
16.73
15.05
12.24
9.34
7.30
6.61
7.20
8.61
10.26
11.69
12.67
13.18
13.25
12.89
12.04
10.62
8.58
6.07
3.41
1.07
-0.50
-1.02
-0.51
0.68
2.00
2.91
3.12
2.72
2.18
2.07
2.84
4.50
6.67
8.68
9.95
10.23
9.78
9.15
8.92
9.33
10.24
11.19
11.73
11.58
10.82
9.72
8.69
8.01
7.72
7.55
6.98
5.39
2.36
-2.02
-7.08
-11.64
-14.42
-14.58
-12.04
-7.56
-2.43
2.06
5.02
6.06
5.17
2.47
-1.83
-7.37
-13.44
-19.05
-23.08
-24.75
-23.93
-21.21
-17.67
-14.45
-12.24
-11.15
-10.73
-10.31
-9.47
-8.20
-6.92
-6.24
-6.64
-8.25
-10.71
-13.37
-15.44
-16.18
-15.16
-12.32
-8.12
-3.45
0.57
2.90
3.09
1.49
-0.75
-2.07
-1.14
2.54
8.44
15.25
21.43
25.77
27.74
27.45
25.39
22.15
18.28
14.34
10.99
8.89
8.50
9.76
12.01
14.18
15.25
14.67
12.54
9.49
6.24
3.39
1.16
-0.43
-1.49
-2.14
-2.60
-3.16
-4.11
-5.60
-7.37
-8.87
-9.43
-8.53
-6.10
-2.44
1.88
6.25
10.13
13.16
15.07
15.78
15.44
14.45
13.39
12.75
12.65
12.77
12.43
11.00
8.27
4.58
0.77
-2.24
-3.99
-4.63
-4.95
-5.87
-8.00
-11.31
-15.19
-18.89
-21.92
-24.30
-26.34
-28.30
-30.10
-31.23
-31.00
-28.89
-24.80
-19.12
-12.55
-5.88
0.18
5.06
8.26
9.46
8.50
5.61
1.40
-3.13
-6.89
-9.05
-9.33
-8.16
-6.39
-4.92
-4.22
-4.17
-4.22
-3.77
-2.59
-0.95
0.60
1.56
1.79
1.59
1.49
1.92
2.97
4.35
5.59
6.39
6.76
7.00
7.60
8.89
10.98
13.66
16.53
19.15
21.08
22.05
21.97
20.97
19.34
17.46
15.63
14.01
12.65
11.49
10.49
9.58
8.65
7.53
6.11
4.43
