1660931853.00
64.000000
-0.00
-0.00
-0.00
-0.00
-0.00
-0.00
-0.00
-0.00
-0.00
-0.00
0.00
0.01
0.01
-0.00
-0.03
-0.05
-0.05
0.00
0.13
0.36
0.66
1.01
1.37
1.72
2.06
2.40
2.79
3.25
3.81
4.44
5.10
5.73
6.32
6.90
7.52
8.26
9.15
10.28
11.52
12.76
13.88
14.85
15.74
16.74
18.10
19.93
22.44
25.40
28.53
31.52
34.25
36.85
39.67
43.18
47.66
53.44
60.10
67.08
73.82
80.06
86.00
92.25
99.56
108.39
119.12
131.04
143.26
154.92
165.64
175.77
186.21
198.42
210.95
225.72
242.94
262.42
282.98
302.04
315.80
320.14
311.88
289.95
256.14
213.63
166.26
117.23
68.51
21.06
-24.60
-67.94
-108.42
-145.55
-179.95
-212.96
-246.31
-281.29
-317.82
-353.95
-385.95
-409.39
-420.51
-417.78
-402.56
-378.54
-350.32
-321.72
-294.83
-269.92
-246.40
-223.64
-201.74
-181.38
-163.17
-147.19
-132.84
-119.16
-105.36
-91.23
-77.11
-63.83
-52.15
-42.45
-34.56
-27.91
-21.78
-15.63
-9.32
-3.09
2.63
7.43
11.11
13.79
15.83
17.66
19.59
21.66
23.66
25.27
26.21
26.41
26.06
25.52
25.13
25.06
25.29
25.64
25.89
25.87
25.52
24.88
24.03
23.07
22.09
21.20
20.44
19.81
19.27
18.74
18.19
17.63
17.15
16.79
16.55
16.35
16.07
15.61
14.93
14.11
13.26
12.50
11.93
11.60
11.50
11.57
11.72
11.81
11.74
11.47
11.01
10.45
9.89
9.41
9.00
8.61
8.19
7.70
7.15
6.60
6.10
5.72
5.47
5.37
5.38
5.44
5.46
5.35
5.04
4.54
3.91
3.24
2.62
2.09
1.65
1.26
0.90
0.54
0.20
-0.13
-0.50
-0.97
-1.61
-2.42
-3.38
-4.38
-5.34
-6.18
-6.83
-7.29
-7.55
-7.63
-7.59
-7.47
-7.37
-7.33
-7.39
-7.58
-7.92
-8.38
-8.90
-9.33
-9.51
-9.31
-8.72
-7.87
-6.97
-6.21
-5.67
-5.26
-4.84
-4.29
-3.58
-2.75
-1.88
-1.03
-0.20
0.62
1.42
2.12
2.67
3.03
3.24
3.40
3.62
3.96
4.42
4.95
5.46
5.90
6.24
6.51
6.72
6.89
7.06
7.22
7.38
7.53
7.60
7.53
7.25
6.70
5.92
5.02
4.15
3.46
3.01
2.78
2.68
2.59
2.47
2.32
2.22
2.19
2.22
2.25
2.22
2.11
1.95
1.81
1.75
1.76
1.77
1.73
1.59
1.39
1.20
1.11
1.16
1.33
1.55
1.71
1.77
1.74
1.70
1.77
2.04
2.49
3.00
3.40
3.53
3.36
3.00
2.63
2.37
2.27
2.24
2.16
1.93
1.58
1.21
0.97
0.94
1.13
1.44
1.75
2.00
2.17
2.30
2.40
2.48
2.48
2.36
2.11
1.75
1.36
1.02
0.76
0.60
0.49
0.39
0.27
0.15
0.05
0.03
0.14
0.38
0.72
1.08
1.35
1.48
1.44
1.29
1.12
1.00
0.99
1.04
1.10
1.14
1.13
1.13
1.15
1.21
1.29
1.33
1.31
1.22
1.10
0.98
0.89
0.87
0.92
1.01
1.10
1.13
1.06
0.86
0.60
0.36
0.28
0.39
0.66
0.99
1.26
1.41
1.46
1.50
1.59
1.76
1.93
1.99
1.86
1.53
1.12
0.76
0.56
0.55
0.66
0.76
0.79
0.70
0.56
0.44
0.41
0.49
0.64
0.83
1.00
1.10
1.06
0.87
0.53
0.09
-0.31
-0.57
-0.61
-0.44
-0.15
0.16
0.38
0.46
0.40
0.23
0.02
-0.16
-0.26
-0.27
-0.21
-0.13
-0.09
-0.06
-0.04
0.03
0.17
0.33
0.48
0.58
0.64
0.71
0.81
0.96
1.11
1.17
1.12
0.96
0.76
0.59
0.51
0.53
0.63
0.75
0.86
0.95
1.02
1.10
1.15
1.16
1.10
0.96
0.76
0.57
0.44
0.34
0.22
0.02
-0.29
-0.65
-0.93
-1.03
-0.94
-0.75
-0.60
-0.58
-0.69
-0.87
-1.02
-1.07
-1.02
-0.90
-0.78
-0.65
-0.51
-0.33
-0.11
0.11
0.29
0.38
0.35
0.23
0.05
-0.10
-0.19
-0.20
-0.14
-0.07
-0.06
-0.11
-0.17
-0.18
-0.06
0.17
0.45
0.69
0.84
0.95
1.08
1.30
1.60
1.91
2.15
2.28
2.33
2.35
2.38
2.44
2.46
2.38
2.19
1.90
1.59
1.34
1.18
1.07
0.94
0.68
0.29
-0.19
-0.60
-0.84
-0.84
-0.64
-0.37
-0.14
-0.00
0.06
0.12
0.24
0.41
0.60
0.74
0.82
0.84
0.85
0.88
0.95
1.07
1.22
1.31
1.25
0.96
0.44
-0.21
-0.81
-1.21
-1.34
-1.28
-1.20
-1.26
-1.54
-1.99
-2.42
-2.66
-2.60
-2.28
-1.83
-1.40
-1.10
-0.95
-0.88
-0.78
-0.53
-0.08
0.59
1.39
2.23
2.99
3.60
4.02
4.23
4.26
4.08
3.66
2.98
2.07
1.04
0.08
-0.62
-0.92
-0.86
-0.59
-0.33
-0.26
-0.45
-0.80
-1.16
-1.38
-1.38
-1.16
-0.82
-0.45
-0.12
0.13
0.29
0.35
0.33
0.26
0.15
0.06
-0.01
-0.03
-0.01
0.09
0.27
0.52
0.79
0.97
0.97
0.79
0.49
0.20
0.04
0.04
0.13
0.17
0.11
-0.04
-0.16
-0.14
0.04
0.31
0.51
0.56
0.45
0.27
0.16
0.18
0.28
0.38
0.38
0.26
0.05
-0.19
-0.39
-0.56
-0.73
-0.93
-1.14
-1.33
-1.45
-1.48
-1.44
-1.43
-1.49
-1.69
-1.98
-2.30
-2.54
-2.64
-2.58
-2.40
-2.16
-1.93
-1.72
-1.49
-1.18
-0.77
-0.30
0.16
0.53
0.82
1.07
1.35
1.67
2.01
2.27
2.37
2.30
2.13
1.95
1.82
1.76
1.70
1.58
1.38
1.13
0.90
0.78
0.80
0.95
1.18
1.42
1.65
1.84
1.97
2.01
1.92
1.72
1.43
1.15
0.96
0.89
0.90
0.92
0.82
0.58
0.22
-0.16
-0.46
-0.66
-0.80
-0.91
-1.04
-1.17
-1.24
-1.20
-1.09
-0.97
-0.91
-0.95
-1.06
-1.13
-1.11
-0.93
-0.65
-0.31
-0.01
0.23
0.39
0.49
0.53
0.53
0.50
0.45
0.39
0.33
0.25
0.10
-0.14
-0.45
-0.79
-1.04
-1.14
-1.04
-0.80
-0.51
-0.30
-0.22
-0.25
-0.32
-0.32
-0.25
-0.13
-0.04
-0.07
-0.20
-0.38
-0.51
-0.52
-0.38
-0.13
0.14
0.38
0.54
0.61
0.61
0.55
0.51
0.54
0.67
0.88
1.11
1.26
1.27
1.12
0.86
0.57
0.27
-0.05
-0.40
-0.79
-1.14
-1.36
-1.36
-1.12
-0.70
-0.22
0.19
0.50
0.71
0.89
1.04
1.12
1.06
0.82
0.43
0.00
-0.33
-0.48
-0.44
-0.23
0.07
0.39
0.67
0.82
0.75
0.45
-0.03
-0.54
-0.92
-1.08
-1.03
-0.87
-0.73
-0.67
-0.70
-0.81
-0.98
-1.28
-1.77
-2.47
-3.37
-4.35
-5.29
-6.09
-6.66
-6.96
-6.98
-6.74
-6.33
-5.92
-5.68
-5.77
-6.22
-6.90
-7.61
-8.15
-8.47
-8.68
-9.03
-9.74
-10.87
-12.24
-13.58
-14.61
-15.24
-15.53
-15.66
-15.77
-15.88
-15.97
-16.13
-16.60
-17.80
-20.16
-23.91
-28.95
-34.81
-40.88
-46.55
-51.50
-55.79
-59.86
-64.34
-69.83
-76.54
-84.22
-92.27
-100.01
-107.06
-113.56
-120.04
-127.25
-135.83
-146.30
-158.94
-173.63
-189.44
-204.21
-214.67
-217.06
-208.36
-187.50
-155.73
-115.94
-71.31
-23.95
25.31
76.05
126.98
175.20
216.59
247.43
266.01
273.47
273.29
269.81
266.55
265.31
266.13
268.10
270.19
271.91
273.32
274.84
276.93
279.89
283.75
288.30
293.15
297.78
301.44
303.04
301.08
293.70
279.25
256.74
226.35
189.47
148.22
104.52
59.34
12.59
-36.19
-86.57
-136.28
-181.25
-216.73
-239.19
-247.72
-244.40
-233.33
-218.96
-204.45
-191.14
-178.92
-167.28
-156.13
-145.90
-137.20
-130.10
-123.96
-117.65
-110.14
-101.07
-90.90
-80.71
-71.68
-64.57
-59.43
-55.61
-52.07
-47.89
-42.67
-36.61
-30.45
-24.98
-20.75
-17.83
-15.79
-14.04
-12.06
-9.69
-7.11
-4.75
-3.01
-2.11
-2.03
-2.52
-3.26
-3.99
-4.54
-4.91
-5.15
-5.38
-5.67
-6.06
-6.54
-7.06
-7.58
-7.98
-8.19
-8.14
-7.81
-7.24
-6.52
-5.76
-5.07
-4.48
-3.95
-3.31
-2.30
-0.69
1.66
4.67
8.06
11.38
14.11
15.83
16.29
15.44
13.47
10.71
7.62
4.68
2.29
0.66
-0.18
-0.44
-0.37
-0.25
-0.24
-0.44
-0.81
-1.30
-1.84
-2.38
-2.88
-3.32
-3.67
-3.94
-4.13
-4.19
-4.12
-3.89
-3.53
-3.14
-2.82
-2.62
-2.55
-2.50
-2.35
-2.01
-1.51
-0.97
-0.57
-0.43
-0.59
-0.95
-1.33
-1.61
-1.71
-1.63
-1.45
-1.22
-1.00
-0.79
-0.60
-0.43
-0.28
-0.20
-0.20
-0.30
-0.51
-0.79
-1.06
-1.21
-1.16
-0.90
-0.50
-0.10
0.16
0.23
0.14
0.00
-0.07
-0.00
0.20
0.49
0.83
1.19
1.53
1.80
1.94
1.86
1.52
0.93
0.18
-0.61
-1.27
-1.72
-1.93
-1.94
-1.87
-1.80
-1.78
-1.81
-1.83
-1.82
-1.82
-1.92
-2.19
-2.58
-2.94
-3.09
-2.97
-2.62
-2.22
-1.96
-1.89
-1.92
-1.88
-1.59
-0.98
-0.04
1.23
2.86
4.81
6.93
8.90
10.25
10.63
9.90
8.27
6.21
4.19
2.52
1.26
0.28
-0.54
-1.22
-1.68
-1.81
-1.61
-1.25
-0.98
-0.99
-1.34
-1.90
-2.45
-2.80
-2.88
-2.76
-2.55
-2.35
-2.18
-1.96
-1.63
-1.18
-0.64
-0.13
0.25
0.40
0.29
-0.04
-0.51
-0.98
-1.34
-1.47
-1.32
-0.90
-0.37
0.10
0.34
0.27
-0.05
-0.47
-0.80
-0.95
-0.91
-0.78
-0.67
-0.66
-0.74
-0.87
-0.96
-0.97
-0.92
-0.87
-0.88
-0.97
-1.12
-1.23
-1.22
-0.97
-0.44
0.39
1.51
2.91
4.51
6.15
7.58
8.47
8.61
7.91
6.53
4.81
3.08
1.61
0.49
-0.29
-0.88
-1.35
-1.77
-2.12
-2.35
-2.41
-2.30
-2.07
-1.84
-1.72
-1.80
-2.04
-2.33
-2.52
-2.54
-2.40
-2.18
-1.96
-1.76
-1.49
-1.07
-0.47
0.18
0.67
0.79
0.48
-0.12
-0.74
-1.12
-1.14
-0.90
-0.63
-0.55
-0.72
-1.03
-1.24
-1.19
-0.88
-0.47
-0.24
-0.39
-0.91
-1.65
-2.35
-2.81
-2.94
-2.83
-2.61
-2.39
-2.24
-2.12
-1.99
-1.76
-1.40
-0.89
-0.22
0.64
1.79
3.27
5.03
6.86
8.38
9.20
9.05
7.95
6.22
4.36
2.79
1.73
1.10
0.70
0.33
-0.06
-0.38
-0.52
-0.47
-0.33
-0.30
-0.51
-0.95
-1.50
-1.99
-2.30
-2.38
-2.27
-2.04
-1.76
-1.47
-1.17
-0.86
-0.57
-0.31
-0.14
-0.08
-0.13
-0.28
-0.49
-0.74
-0.95
-1.06
-1.02
-0.82
-0.54
-0.32
-0.32
-0.60
-1.10
-1.58
-1.80
-1.57
-0.92
-0.06
0.69
1.10
1.08
0.73
0.27
-0.09
-0.24
-0.21
-0.13
-0.11
-0.24
-0.51
-0.84
-1.12
-1.27
-1.19
-0.84
-0.18
0.79
1.93
3.02
3.77
3.99
3.67
2.97
2.17
1.50
1.07
0.81
0.56
0.21
-0.29
-0.83
-1.28
-1.50
-1.44
-1.11
-0.63
-0.13
0.28
0.50
0.51
0.30
-0.09
-0.60
-1.09
-1.41
-1.41
-1.03
-0.34
0.43
1.04
1.29
1.16
0.80
0.41
0.15
0.08
0.09
0.07
-0.07
-0.33
-0.63
-0.90
-1.09
-1.22
-1.32
-1.40
-1.41
-1.30
-1.01
-0.50
0.19
1.02
1.90
2.76
3.50
3.99
4.08
3.70
2.86
1.69
0.42
-0.71
-1.48
-1.76
-1.50
-0.77
0.27
1.37
2.30
2.87
3.05
2.94
2.70
2.43
2.15
1.76
1.19
0.44
-0.42
-1.22
-1.88
-2.31
-2.51
-2.51
-2.35
-2.12
-1.96
-2.05
-2.52
-3.34
-4.36
-5.32
-6.00
-6.35
-6.42
-6.38
-6.32
-6.26
-6.11
-5.77
-5.18
-4.32
-3.24
-1.99
-0.65
0.72
2.06
3.29
4.34
5.13
5.62
5.82
5.79
5.64
5.48
5.37
5.29
5.14
4.79
4.18
3.34
2.35
1.31
0.26
-0.77
-1.77
-2.67
-3.34
-3.62
-3.39
-2.66
-1.53
-0.24
0.98
1.89
2.38
2.41
2.04
1.34
0.39
-0.79
-2.17
-3.64
-4.99
-5.99
-6.48
-6.51
-6.32
-6.26
-6.61
-7.43
-8.58
-9.79
-10.85
-11.71
-12.43
-13.07
-13.59
-13.89
-13.85
-13.49
-12.99
-12.56
-12.23
-11.76
-10.71
-8.75
-5.92
-2.78
-0.20
1.07
0.78
-0.56
-1.99
-2.49
-1.48
1.00
4.48
8.33
12.10
15.55
18.55
20.90
22.27
22.40
21.25
19.15
16.75
14.76
13.62
13.37
13.66
13.94
13.79
13.01
11.70
10.12
8.50
7.05
5.87
5.01
4.52
4.45
4.76
5.36
6.03
6.49
6.46
5.79
4.46
2.59
0.42
-1.76
-3.68
-5.16
-6.09
-6.45
-6.31
-5.78
-5.02
-4.23
-3.66
-3.58
-4.20
-5.63
-7.78
-10.39
-13.06
-15.42
-17.31
-18.82
-20.25
-21.94
-24.01
-26.33
-28.49
-30.03
-30.67
-30.47
-29.88
-29.48
-29.81
-31.06
-33.01
-35.09
-36.64
-37.20
-36.63
-35.25
-33.60
-32.28
-31.73
-32.18
-33.54
-35.18
-35.77
-33.30
-25.77
-12.11
6.97
28.78
49.44
65.31
74.32
76.61
74.04
68.99
63.22
57.41
51.48
45.24
38.95
33.31
29.00
26.20
24.49
23.05
21.22
18.73
15.95
13.61
12.41
12.64
14.07
16.06
17.79
18.69
18.61
17.86
16.98
16.55
16.90
18.04
19.72
21.49
22.87
23.41
22.79
20.86
17.74
13.82
9.67
5.90
2.97
1.00
-0.19
-0.97
-1.73
-2.72
-3.93
-5.22
-6.38
-7.28
-7.91
-8.36
-8.77
-9.28
-9.99
-10.88
-11.86
-12.75
-13.41
-13.74
-13.76
-13.57
-13.25
-12.82
-12.19
-11.28
-10.10
-8.78
-7.61
-6.85
-6.62
-6.84
-7.27
-7.61
-7.65
-7.35
-6.81
-6.17
-5.55
-5.03
-4.60
-4.27
-4.01
-3.80
-3.59
-3.30
-2.86
-2.30
-1.70
-1.20
-0.93
-0.91
-1.08
-1.27
-1.36
-1.31
-1.19
-1.12
-1.18
-1.39
-1.68
-1.97
-2.19
-2.34
-2.46
-2.58
-2.65
-2.64
-2.47
-2.15
-1.72
-1.26
-0.85
-0.51
-0.22
0.05
0.31
0.54
0.71
0.78
0.75
0.63
0.45
0.23
-0.04
-0.34
-0.64
-0.86
-0.95
-0.86
-0.61
-0.28
0.07
0.36
0.57
0.70
0.73
0.65
0.46
0.19
-0.11
-0.36
-0.48
-0.42
-0.23
0.03
0.29
0.50
0.70
0.92
1.19
1.48
1.71
1.77
1.63
1.36
1.08
0.94
0.99
1.20
1.42
1.52
1.41
1.09
0.68
0.28
-0.03
-0.28
-0.55
-0.90
-1.31
-1.66
-1.79
-1.59
-1.11
-0.51
-0.03
0.19
0.11
-0.12
-0.32
-0.36
-0.25
-0.11
-0.05
-0.15
-0.31
-0.41
-0.33
-0.11
0.12
0.16
-0.07
-0.50
-0.89
-1.01
-0.75
-0.22
0.35
0.71
0.74
0.50
0.14
-0.17
-0.36
-0.43
-0.46
-0.52
-0.62
-0.70
-0.72
-0.65
-0.54
-0.45
-0.45
-0.56
-0.72
-0.86
-0.89
-0.83
-0.72
-0.63
-0.65
-0.76
-0.91
-1.02
-1.00
-0.83
-0.55
-0.23
0.01
0.11
0.02
-0.17
-0.36
-0.43
-0.33
-0.09
0.19
0.38
0.42
0.33
0.20
0.10
0.06
0.06
0.04
0.01
-0.03
-0.00
0.10
0.26
0.39
0.45
0.42
0.35
0.32
0.38
0.48
0.53
0.44
0.20
-0.12
-0.38
-0.48
-0.37
-0.08
0.29
0.62
0.82
0.86
0.74
0.52
0.24
-0.04
-0.29
-0.51
-0.71
-0.86
-0.95
-0.92
-0.79
-0.58
-0.37
-0.23
-0.21
-0.28
-0.39
-0.48
-0.52
-0.51
-0.48
-0.48
-0.52
-0.65
-0.88
-1.17
-1.48
-1.73
-1.80
-1.64
-1.27
-0.77
-0.28
0.06
0.19
0.11
-0.10
-0.32
-0.50
-0.62
-0.72
-0.86
-1.06
-1.27
-1.38
-1.31
-1.07
-0.74
-0.45
-0.26
-0.14
-0.01
0.18
0.41
0.58
0.57
0.34
-0.06
-0.50
-0.89
-1.18
-1.38
-1.48
-1.51
-1.42
-1.21
-0.92
-0.63
-0.41
-0.31
-0.31
-0.32
-0.25
-0.10
0.12
0.34
0.53
0.67
0.79
0.92
1.07
1.22
1.33
1.37
1.33
1.22
1.04
0.80
0.50
0.19
-0.07
-0.20
-0.15
0.06
0.36
0.67
0.89
1.01
1.03
0.98
0.91
0.81
0.67
0.50
0.28
0.05
-0.13
-0.22
-0.17
0.03
0.32
0.64
0.91
1.09
1.13
1.04
0.82
0.51
0.20
-0.01
-0.04
0.14
0.45
0.80
1.07
1.21
1.24
1.20
1.12
1.00
0.80
0.52
0.21
-0.06
-0.18
-0.14
0.03
0.21
0.32
0.33
0.27
0.21
0.18
0.13
0.04
-0.13
-0.32
-0.47
-0.49
-0.35
-0.13
0.06
0.08
-0.10
-0.46
-0.85
-1.15
-1.26
-1.18
-0.98
-0.78
-0.69
-0.73
-0.87
-0.98
-0.95
-0.74
-0.42
-0.13
0.02
-0.03
-0.20
-0.36
-0.41
-0.33
-0.19
-0.05
0.05
0.18
0.40
0.79
1.32
1.86
2.27
2.43
2.35
2.11
1.85
1.67
1.56
1.47
1.32
1.07
0.75
0.46
0.29
0.27
0.37
0.48
0.51
0.42
0.28
0.18
0.21
0.33
0.46
0.47
0.30
-0.01
-0.35
-0.56
-0.57
-0.39
-0.14
0.07
0.15
0.10
-0.02
-0.13
-0.19
-0.18
-0.13
-0.06
-0.01
0.03
0.06
0.11
0.18
0.23
0.24
0.16
-0.02
-0.28
-0.55
-0.78
-0.90
-0.88
-0.74
-0.57
-0.47
-0.49
-0.60
-0.74
-0.81
-0.74
-0.55
-0.29
-0.05
0.12
0.20
0.23
0.28
0.37
0.48
0.58
0.60
0.51
0.33
0.10
-0.09
-0.15
-0.05
0.17
0.42
0.57
0.53
0.32
0.01
-0.28
-0.42
-0.37
-0.16
0.14
0.41
0.58
0.62
0.53
0.35
0.16
0.01
-0.03
0.04
0.18
0.30
0.35
0.30
0.19
0.09
0.05
0.07
0.14
0.22
0.27
0.32
0.38
0.45
0.47
0.38
0.10
-0.35
-0.87
-1.34
-1.62
-1.65
-1.48
-1.18
-0.87
-0.62
-0.49
-0.46
-0.53
-0.66
-0.84
-1.02
-1.12
-1.08
-0.87
-0.47
0.05
0.56
0.93
1.08
0.98
0.71
0.39
0.16
0.11
0.23
0.48
0.75
0.94
1.01
0.95
0.76
0.52
0.27
0.05
-0.11
-0.20
-0.24
-0.22
-0.18
-0.12
-0.09
-0.10
-0.13
-0.15
-0.09
0.06
0.27
0.48
0.59
0.51
0.28
-0.04
-0.35
-0.57
-0.68
-0.68
-0.60
-0.41
-0.13
0.24
0.67
1.06
1.35
1.49
1.48
1.38
1.23
1.11
1.08
1.15
1.34
1.61
1.90
2.09
2.13
2.01
1.75
1.45
1.15
0.86
0.56
0.23
-0.14
-0.48
-0.73
-0.83
-0.79
-0.68
-0.59
-0.58
-0.66
-0.78
-0.91
-0.99
-1.02
-0.99
-0.92
-0.78
-0.54
-0.16
0.36
0.94
1.46
1.80
1.88
1.76
1.51
1.26
1.05
0.86
0.64
0.34
-0.04
-0.42
-0.73
-0.90
-0.95
-0.96
-0.98
-1.03
-1.08
-1.03
-0.80
-0.40
0.06
0.42
0.50
0.24
-0.25
-0.80
-1.17
-1.28
-1.19
-1.06
-1.00
-1.06
-1.15
-1.15
-1.02
-0.80
-0.62
-0.55
-0.60
-0.67
-0.66
-0.51
-0.29
-0.12
-0.12
-0.32
-0.66
-1.01
-1.22
-1.21
-0.97
-0.59
-0.18
0.17
0.42
0.57
0.65
0.66
0.58
0.39
0.08
-0.31
-0.68
-0.94
-1.03
-0.95
-0.76
-0.58
-0.49
-0.51
-0.57
-0.58
-0.45
-0.22
0.03
0.14
0.04
-0.26
-0.62
-0.88
-0.94
-0.81
-0.59
-0.38
-0.26
-0.21
-0.16
-0.06
0.12
0.32
0.49
0.59
0.59
0.55
0.48
0.44
0.44
0.44
0.43
0.35
0.19
-0.02
-0.24
-0.44
-0.57
-0.65
-0.73
-0.82
-0.94
-1.05
-1.10
-1.07
-0.94
-0.74
-0.50
-0.26
-0.03
0.19
0.39
0.55
0.61
0.56
0.41
0.23
0.09
0.06
0.15
0.33
0.51
0.63
0.63
0.53
0.39
0.29
0.27
0.36
0.54
0.76
0.96
1.07
1.06
0.90
0.62
0.30
0.04
-0.10
-0.11
-0.04
0.05
0.10
0.07
-0.01
-0.12
-0.24
-0.38
-0.50
-0.59
-0.60
-0.52
-0.37
-0.20
-0.06
0.04
0.12
0.19
0.24
0.21
0.07
-0.18
-0.41
-0.51
-0.41
-0.12
0.25
0.53
0.61
0.46
0.12
-0.32
-0.75
-1.09
-1.27
-1.26
-1.04
-0.67
-0.22
0.18
0.45
0.53
0.44
0.24
0.02
-0.14
-0.21
-0.16
-0.01
0.15
0.27
0.29
0.22
0.11
0.03
0.03
0.10
0.21
0.31
0.37
0.40
0.44
0.44
0.39
0.21
-0.07
-0.42
-0.74
-0.97
-1.06
-1.04
-0.92
-0.73
-0.48
-0.20
0.03
0.14
0.10
-0.08
-0.27
-0.34
-0.19
0.17
0.63
1.02
1.19
1.12
0.88
0.63
0.47
0.45
0.48
0.45
0.29
0.03
-0.20
-0.29
-0.16
0.11
0.38
0.51
0.45
0.26
0.06
-0.09
-0.17
-0.24
-0.36
-0.51
-0.65
-0.67
-0.54
-0.27
0.05
0.31
0.46
0.51
0.50
0.46
0.39
0.24
-0.01
-0.33
-0.62
-0.73
-0.60
-0.29
0.05
0.25
0.25
0.13
0.03
0.07
0.26
0.46
0.52
0.34
-0.02
-0.39
-0.55
-0.40
-0.02
0.41
0.71
0.76
0.60
0.33
0.07
-0.15
-0.33
-0.51
-0.68
-0.80
-0.83
-0.76
-0.63
-0.55
-0.54
-0.61
-0.64
-0.57
-0.36
-0.07
0.20
0.35
0.34
0.22
0.05
-0.09
-0.14
-0.10
0.03
0.22
0.42
0.56
0.56
0.40
0.12
-0.19
-0.40
-0.43
-0.28
-0.03
0.19
0.29
0.24
0.14
0.09
0.18
0.42
0.72
1.00
1.17
1.21
1.16
1.08
1.01
0.94
0.86
0.76
0.63
0.48
0.32
0.17
0.02
-0.12
-0.24
-0.32
-0.39
-0.42
-0.42
-0.35
-0.19
0.03
0.28
0.45
0.46
0.28
-0.02
-0.34
-0.56
-0.64
-0.59
-0.49
-0.43
-0.45
-0.52
-0.58
-0.59
-0.51
-0.36
-0.16
0.06
0.30
0.56
0.84
1.09
1.27
1.34
1.27
1.10
0.85
0.59
0.32
0.04
-0.28
-0.66
-1.04
-1.36
-1.52
-1.48
-1.28
-1.03
-0.85
-0.84
-1.04
-1.42
-1.88
-2.28
-2.51
-2.49
-2.25
-1.86
-1.45
-1.16
-1.03
-1.06
-1.15
-1.21
-1.17
-1.01
-0.76
-0.44
-0.06
0.35
0.78
1.15
1.40
1.48
1.43
1.31
1.21
1.19
1.20
1.15
0.98
0.66
0.28
-0.00
-0.09
0.04
0.28
0.47
0.47
0.21
-0.21
-0.63
-0.88
-0.88
-0.64
-0.27
0.12
0.47
0.77
1.02
1.19
1.20
1.00
0.56
-0.02
-0.54
-0.82
-0.77
-0.45
-0.05
0.22
0.24
0.04
-0.25
-0.47
-0.52
-0.42
-0.30
-0.25
-0.33
-0.46
-0.52
-0.42
-0.18
0.11
0.30
0.31
0.16
-0.04
-0.17
-0.19
-0.16
-0.19
-0.32
-0.51
-0.67
-0.69
-0.51
-0.18
0.20
0.56
0.84
1.07
1.22
1.30
1.29
1.19
1.06
0.96
0.92
0.90
0.86
0.74
0.55
0.34
0.22
0.21
0.29
0.38
0.41
0.37
0.30
0.27
0.31
0.41
0.49
0.50
0.43
0.30
0.16
0.07
0.04
0.05
0.09
0.12
0.10
0.05
-0.01
-0.05
-0.04
0.02
0.11
0.19
0.25
0.28
0.28
0.26
0.23
0.17
0.08
-0.08
-0.32
-0.63
-0.97
-1.25
-1.38
-1.28
-0.95
-0.49
-0.05
0.23
0.30
0.22
0.09
-0.01
-0.05
-0.09
-0.21
-0.40
-0.60
-0.72
-0.71
-0.59
-0.41
-0.24
-0.11
0.01
0.14
0.29
0.39
0.40
0.29
0.11
-0.06
-0.14
-0.11
0.02
0.19
0.35
0.47
0.54
0.53
0.43
0.26
0.09
0.01
0.07
0.28
0.54
0.72
0.71
0.50
0.21
-0.02
-0.09
0.02
0.21
0.37
0.41
0.34
0.21
0.10
0.06
0.09
0.17
0.24
0.27
0.25
0.19
0.09
-0.04
-0.18
-0.34
-0.55
-0.78
-1.03
-1.23
-1.32
-1.27
-1.10
-0.88
-0.65
-0.46
-0.27
-0.06
0.17
0.39
0.52
0.51
0.39
0.24
0.21
0.34
0.61
0.89
1.02
0.95
0.72
0.46
0.29
0.21
0.14
-0.03
-0.33
-0.67
-0.91
-0.88
-0.56
-0.06
0.41
0.68
0.65
0.36
-0.08
-0.50
-0.79
-0.86
-0.72
-0.43
-0.12
0.09
0.11
-0.03
-0.24
-0.41
-0.49
-0.50
-0.48
-0.47
-0.44
-0.33
-0.11
0.19
0.48
0.67
0.69
0.55
0.31
0.08
-0.07
-0.08
0.01
0.12
0.17
0.10
-0.09
-0.28
-0.34
-0.19
0.16
0.59
0.93
1.08
1.02
0.82
0.62
0.49
0.43
0.39
0.27
0.03
-0.28
-0.60
-0.83
-0.91
-0.88
-0.76
-0.64
-0.55
-0.49
-0.42
-0.30
-0.11
0.10
0.27
0.34
0.29
0.13
-0.08
-0.25
-0.33
-0.29
-0.15
0.03
0.20
0.29
0.30
0.27
0.28
0.37
0.52
0.68
0.76
0.73
0.61
0.46
0.34
0.26
0.22
0.16
0.09
-0.00
-0.08
-0.12
-0.14
-0.15
-0.19
-0.24
-0.31
-0.37
-0.43
-0.48
-0.55
-0.64
-0.78
-0.95
-1.12
-1.19
-1.10
-0.78
-0.30
0.21
0.60
0.72
0.57
0.26
-0.05
-0.22
-0.17
0.01
0.22
0.35
0.34
0.26
0.18
0.18
0.26
0.38
0.45
0.45
0.38
0.32
0.34
0.46
0.63
0.79
0.86
0.82
0.71
0.55
0.37
0.19
0.02
-0.13
-0.19
-0.13
0.04
0.22
0.30
0.16
-0.16
-0.56
-0.87
-0.95
-0.80
-0.51
-0.26
-0.17
-0.29
-0.55
-0.81
-0.93
-0.85
-0.64
-0.38
-0.21
-0.17
-0.21
-0.26
-0.22
-0.08
0.10
0.24
0.27
0.19
0.06
-0.01
0.08
0.31
0.62
0.90
1.05
1.00
0.78
0.44
0.05
-0.30
-0.52
-0.57
-0.45
-0.21
0.07
0.27
0.34
0.27
0.12
-0.01
-0.04
0.02
0.12
0.14
0.00
-0.28
-0.64
-0.93
-1.03
-0.86
-0.44
0.10
0.62
0.94
0.99
0.78
0.44
0.11
-0.10
-0.17
-0.13
-0.09
-0.10
-0.17
-0.28
-0.42
-0.56
-0.71
-0.86
-0.93
-0.86
-0.56
-0.05
0.57
1.14
1.47
1.47
1.17
0.72
0.31
0.08
0.03
0.08
0.09
-0.04
-0.28
-0.52
-0.66
-0.63
-0.47
-0.29
-0.18
-0.15
-0.18
-0.19
-0.16
-0.12
-0.11
-0.14
-0.19
-0.19
-0.10
0.08
0.33
0.58
0.78
0.85
0.80
0.63
0.41
0.18
0.04
0.00
0.06
0.15
0.17
0.07
-0.12
-0.31
-0.40
-0.36
-0.20
-0.05
0.01
-0.11
-0.39
-0.73
-1.02
-1.15
-1.08
-0.84
-0.50
-0.13
0.20
0.46
0.62
0.68
0.64
0.51
0.32
0.11
-0.07
-0.19
-0.26
-0.27
-0.25
-0.20
-0.12
0.00
0.14
0.27
0.39
0.47
0.53
0.56
0.58
0.60
0.67
0.81
1.01
1.26
1.48
1.59
1.51
1.23
0.81
0.37
0.02
-0.19
-0.23
-0.17
-0.04
0.11
0.25
0.34
0.32
0.14
-0.18
-0.58
-0.90
-0.98
-0.73
-0.16
0.59
1.32
1.82
1.96
1.73
1.26
0.73
0.34
0.19
0.31
0.60
0.92
1.16
1.27
1.27
1.20
1.09
0.95
0.76
0.53
0.32
0.16
0.07
0.01
-0.07
-0.26
-0.56
-0.91
-1.23
-1.43
-1.46
-1.36
-1.20
-1.06
-0.98
-0.96
-0.95
-0.87
-0.72
-0.51
-0.33
-0.26
-0.38
-0.66
-0.98
-1.22
-1.27
-1.11
-0.83
-0.57
-0.45
-0.53
-0.74
-0.99
-1.16
-1.15
-0.98
-0.70
-0.42
-0.20
-0.07
-0.02
-0.00
0.01
0.02
-0.00
-0.07
-0.15
-0.18
-0.10
0.10
0.37
0.60
0.69
0.62
0.42
0.16
-0.06
-0.18
-0.21
-0.18
-0.16
-0.21
-0.35
-0.58
-0.83
-1.05
-1.19
-1.22
-1.17
-1.06
-0.91
-0.72
-0.48
-0.24
-0.06
-0.02
-0.20
-0.58
-1.12
-1.69
-2.21
-2.59
-2.85
-3.02
-3.19
-3.41
-3.73
-4.11
-4.49
-4.76
-4.86
-4.81
-4.68
-4.65
-4.86
-5.37
-6.13
-6.97
-7.69
-8.18
-8.48
-8.79
-9.32
-10.26
-11.61
-13.17
-14.63
-15.70
-16.23
-16.26
-16.03
-15.85
-15.99
-16.54
-17.41
-18.38
-19.17
-19.53
-19.25
-18.13
-16.05
-12.99
-9.09
-4.71
-0.29
3.94
8.02
12.33
17.31
23.14
29.47
35.53
40.35
43.29
44.26
43.73
42.44
41.06
39.90
38.85
37.54
35.60
32.90
29.66
26.31
23.34
21.05
19.49
18.48
17.80
17.35
17.23
17.59
18.42
19.41
20.02
19.59
17.74
14.44
10.10
5.34
0.76
-3.27
-6.69
-9.65
-12.34
-14.81
-16.94
-18.51
-19.33
-19.35
-18.69
-17.59
-16.28
-14.89
-13.49
-12.09
-10.76
-9.57
-8.65
-8.04
-7.75
-7.73
-7.91
-8.20
-8.52
-8.73
-8.66
-8.15
-7.07
-5.36
-3.07
-0.35
2.52
5.19
7.30
8.51
8.62
7.62
5.70
3.19
0.47
-2.09
-4.26
-5.97
-7.28
-8.38
-9.43
-10.56
-11.79
-13.05
-14.19
-14.93
-14.99
-14.17
-12.49
-10.23
-7.90
-6.05
-5.01
-4.86
-5.39
-6.31
-7.45
-8.82
-10.52
-12.62
-15.06
-17.65
-20.18
-22.50
-24.55
-26.31
-27.76
-28.83
-29.41
-29.36
-28.55
-27.03
-25.06
-23.15
-21.95
-22.00
-23.48
-26.18
-29.57
-33.17
-36.78
-40.58
-44.98
-50.34
-56.78
-64.14
-72.13
-80.44
-88.85
-97.17
-105.24
-112.99
-120.62
-128.69
-137.85
-148.43
-160.02
-171.59
-181.90
-190.09
-195.86
-199.17
-199.48
-195.47
-185.15
-166.78
-139.85
-105.42
-65.55
-22.17
23.70
71.62
120.55
167.71
208.53
238.08
253.22
254.17
244.58
229.86
214.94
202.57
192.96
184.81
176.80
168.60
160.87
154.62
150.28
147.46
145.13
142.31
138.53
134.08
129.82
126.67
125.24
125.54
127.06
129.04
130.82
132.18
133.39
135.05
137.78
141.88
147.14
152.93
158.66
164.16
169.84
176.32
183.53
190.04
192.93
188.64
174.30
148.84
113.30
70.03
21.72
-29.27
-80.63
-129.46
-171.98
-204.17
-223.15
-228.64
-223.26
-211.57
-198.24
-186.41
-177.07
-169.59
-162.79
-155.93
-149.00
-142.43
-136.59
-131.46
-126.74
-122.18
-117.75
-113.66
-110.27
-107.79
-106.14
-105.07
-104.26
-103.58
-103.16
-103.30
-104.38
-106.65
-110.19
-114.78
-120.02
-125.39
-130.37
-134.60
-138.19
-141.81
-146.54
-153.20
-161.49
-169.41
-173.37
-169.21
-153.68
-125.61
-86.18
-38.23
14.86
69.91
124.06
174.51
218.24
252.50
275.61
287.83
291.38
289.70
286.13
282.92
280.90
280.04
279.98
280.72
282.63
286.16
291.34
297.44
302.70
304.52
300.05
286.91
264.09
232.17
193.02
148.82
101.11
50.52
-2.62
-57.06
-109.70
-155.85
-190.65
-211.05
-217.19
-212.29
-201.23
-188.53
-176.81
-166.55
-156.94
-147.11
-137.02
-127.42
-119.22
-112.74
-107.48
-102.37
-96.40
-89.11
-80.80
-72.32
-64.65
-58.37
-53.53
-49.58
-45.75
-41.41
-36.36
-30.91
-25.69
-21.32
-18.10
-15.89
-14.23
-12.58
-10.52
-7.97
-5.11
-2.29
0.13
1.93
3.05
3.60
3.77
3.80
3.87
4.12
4.54
5.09
5.69
6.24
6.66
6.85
6.67
5.98
4.65
2.69
0.25
-2.40
-4.93
-7.05
-8.60
-9.58
-10.11
-10.40
-10.69
-11.18
-11.95
-12.99
-14.13
-15.11
-15.66
-15.65
-15.08
-14.10
-12.92
-11.65
-10.26
-8.69
-6.87
-4.91
-3.06
-1.61
-0.79
-0.57
-0.71
-0.83
-0.57
0.22
1.49
2.97
4.34
5.33
5.81
5.81
5.51
5.10
4.76
4.57
4.50
4.46
4.37
4.20
3.98
3.74
3.53
3.35
3.19
3.09
3.07
3.15
3.27
3.33
3.21
2.86
2.40
2.00
1.87
2.08
2.55
3.07
3.41
3.42
3.08
2.41
1.52
0.53
-0.43
-1.23
-1.78
-2.08
-2.21
-2.32
-2.48
-2.71
-2.88
-2.86
-2.52
-1.83
-0.83
0.36
1.64
2.91
4.10
5.21
6.26
7.31
8.44
9.70
11.09
12.55
13.96
15.15
15.96
16.31
16.17
15.58
14.67
13.55
12.36
11.17
10.02
8.93
7.81
6.56
4.99
2.96
0.41
-2.51
-5.48
-8.10
-10.05
-11.26
-11.95
-12.48
-13.16
-14.06
-14.98
-15.59
-15.65
-15.19
-14.44
-13.68
-13.08
-12.57
-11.95
-11.01
-9.72
-8.16
-6.50
-4.85
-3.22
-1.60
0.01
1.50
2.73
3.57
4.01
4.15
4.15
4.12
4.08
3.99
3.77
3.40
2.93
2.48
2.19
2.17
2.45
2.97
3.60
4.21
4.67
4.87
4.75
4.28
3.48
2.39
1.08
-0.34
-1.75
-3.00
-3.97
-4.55
-4.70
-4.44
-3.89
-3.23
-2.64
-2.29
-2.22
-2.38
-2.63
-2.78
-2.69
-2.35
-1.84
-1.31
-0.88
-0.58
-0.38
-0.18
0.07
0.37
0.70
1.06
1.50
2.04
2.66
3.22
3.51
3.36
2.76
1.89
1.02
0.35
-0.04
-0.28
-0.55
-1.01
-1.65
-2.39
-3.08
-3.64
-4.06
-4.40
-4.68
-4.89
-4.99
-4.95
-4.75
-4.41
-3.93
-3.32
-2.57
-1.71
-0.80
0.11
0.92
1.57
2.01
2.19
