1660933741.00
64.000000
-0.00
-0.00
-0.00
-0.00
-0.00
-0.00
-0.00
-0.00
-0.00
-0.00
0.00
0.01
0.01
-0.00
-0.03
-0.05
-0.05
0.00
0.13
0.36
0.66
1.01
1.37
1.72
2.06
2.40
2.79
3.25
3.81
4.44
5.10
5.73
6.32
6.90
7.51
8.25
9.15
10.28
11.54
12.79
13.91
14.88
15.78
16.78
18.13
19.97
22.48
25.45
28.58
31.58
34.31
36.91
39.73
43.24
47.72
53.51
60.19
67.19
73.95
80.20
86.14
92.38
99.69
108.53
119.28
131.26
143.53
155.23
165.98
176.12
186.56
198.76
211.31
226.14
243.45
263.04
283.69
302.81
316.59
320.92
312.66
290.74
257.00
214.62
167.42
118.54
69.95
22.57
-23.08
-66.45
-106.96
-144.10
-178.41
-211.18
-244.13
-278.62
-314.81
-350.98
-383.58
-408.16
-420.76
-419.56
-405.59
-382.42
-354.64
-326.18
-299.19
-274.01
-250.00
-226.55
-203.85
-182.72
-163.88
-147.46
-132.80
-118.90
-104.95
-90.78
-76.82
-63.89
-52.68
-43.39
-35.70
-28.91
-22.34
-15.59
-8.68
-2.03
3.84
8.55
12.01
14.48
16.40
18.20
20.09
22.03
23.83
25.23
26.09
26.42
26.36
26.10
25.77
25.44
25.11
24.77
24.39
23.98
23.53
23.02
22.45
21.84
21.21
20.60
19.98
19.33
18.63
17.88
17.16
16.57
16.15
15.87
15.63
15.32
14.90
14.38
13.88
13.45
13.14
12.88
12.60
12.22
11.76
11.24
10.73
10.26
9.86
9.53
9.25
9.05
8.93
8.91
8.97
9.07
9.12
9.05
8.81
8.43
8.00
7.63
7.39
7.30
7.32
7.33
7.24
6.95
6.45
5.76
4.97
4.22
3.65
3.31
3.18
3.14
3.04
2.75
2.24
1.57
0.84
0.17
-0.38
-0.80
-1.14
-1.49
-1.92
-2.49
-3.22
-4.05
-4.91
-5.69
-6.31
-6.73
-7.00
-7.24
-7.56
-8.03
-8.64
-9.27
-9.80
-10.06
-10.00
-9.64
-9.09
-8.46
-7.82
-7.19
-6.54
-5.88
-5.22
-4.64
-4.18
-3.86
-3.60
-3.31
-2.91
-2.40
-1.85
-1.32
-0.90
-0.59
-0.37
-0.17
0.04
0.29
0.59
0.91
1.26
1.59
1.90
2.20
2.48
2.78
3.09
3.37
3.56
3.62
3.53
3.33
3.11
2.94
2.88
2.96
3.14
3.38
3.62
3.80
3.91
3.98
4.06
4.22
4.48
4.81
5.14
5.38
5.50
5.50
5.42
5.30
5.13
4.88
4.54
4.14
3.76
3.46
3.29
3.22
3.20
3.20
3.23
3.32
3.48
3.69
3.84
3.85
3.68
3.40
3.08
2.81
2.61
2.43
2.22
1.99
1.75
1.58
1.48
1.44
1.43
1.40
1.37
1.38
1.49
1.69
1.98
2.28
2.55
2.73
2.79
2.72
2.56
2.35
2.16
2.05
2.02
2.03
2.01
1.91
1.72
1.49
1.32
1.25
1.29
1.40
1.49
1.53
1.50
1.43
1.36
1.28
1.19
1.04
0.81
0.49
0.13
-0.19
-0.39
-0.43
-0.29
-0.02
0.35
0.72
1.07
1.34
1.49
1.51
1.40
1.22
1.04
0.94
0.96
1.07
1.21
1.30
1.28
1.15
0.96
0.81
0.74
0.78
0.88
0.99
1.03
0.99
0.87
0.72
0.60
0.57
0.63
0.77
0.92
1.05
1.09
1.04
0.88
0.66
0.41
0.18
0.02
-0.03
0.04
0.23
0.49
0.77
0.99
1.11
1.13
1.11
1.08
1.05
1.02
0.97
0.89
0.83
0.82
0.85
0.88
0.86
0.76
0.62
0.51
0.51
0.62
0.82
1.04
1.21
1.29
1.28
1.17
0.98
0.74
0.51
0.33
0.24
0.23
0.24
0.22
0.12
-0.02
-0.16
-0.22
-0.16
0.05
0.37
0.74
1.05
1.25
1.27
1.12
0.85
0.54
0.29
0.17
0.18
0.27
0.36
0.37
0.26
0.07
-0.11
-0.22
-0.21
-0.11
0.05
0.24
0.44
0.62
0.74
0.74
0.59
0.32
0.00
-0.21
-0.25
-0.12
0.09
0.25
0.30
0.22
0.10
0.01
-0.01
0.06
0.20
0.38
0.59
0.80
0.99
1.11
1.12
1.02
0.83
0.62
0.44
0.33
0.30
0.33
0.42
0.52
0.60
0.63
0.57
0.43
0.23
0.03
-0.10
-0.11
-0.00
0.20
0.43
0.61
0.69
0.67
0.59
0.50
0.43
0.39
0.33
0.23
0.08
-0.08
-0.21
-0.30
-0.37
-0.44
-0.54
-0.64
-0.68
-0.61
-0.42
-0.19
0.01
0.10
0.10
0.04
-0.04
-0.08
-0.09
-0.07
-0.04
0.05
0.19
0.38
0.57
0.69
0.73
0.69
0.60
0.51
0.45
0.44
0.45
0.47
0.46
0.40
0.29
0.13
-0.06
-0.24
-0.34
-0.34
-0.21
0.02
0.30
0.55
0.73
0.76
0.65
0.44
0.18
-0.05
-0.21
-0.28
-0.27
-0.21
-0.13
-0.04
0.02
0.05
0.05
0.03
0.02
0.02
0.03
0.01
-0.06
-0.15
-0.20
-0.16
-0.02
0.18
0.37
0.47
0.46
0.38
0.27
0.18
0.12
0.08
0.06
0.07
0.12
0.23
0.37
0.51
0.55
0.40
0.02
-0.58
-1.30
-1.94
-2.31
-2.33
-2.07
-1.74
-1.60
-1.80
-2.34
-3.05
-3.70
-4.18
-4.48
-4.76
-5.14
-5.66
-6.23
-6.69
-6.96
-7.08
-7.26
-7.72
-8.64
-10.02
-11.69
-13.40
-14.90
-16.05
-16.87
-17.56
-18.44
-19.85
-22.00
-24.91
-28.26
-31.60
-34.43
-36.51
-37.95
-39.22
-41.00
-43.86
-48.11
-53.68
-60.20
-67.16
-74.10
-80.76
-87.06
-93.11
-99.07
-105.14
-111.54
-118.41
-125.79
-133.55
-141.29
-148.51
-154.74
-159.91
-164.32
-168.34
-171.77
-173.26
-170.30
-159.81
-139.39
-108.41
-68.60
-23.56
22.31
65.15
102.56
133.67
158.77
178.57
193.73
204.77
212.17
216.54
218.64
219.24
219.00
218.40
217.76
217.40
217.63
218.72
220.79
223.69
227.11
230.64
234.08
237.48
241.10
245.28
250.26
256.13
262.71
269.48
275.29
278.36
276.31
266.90
248.67
221.58
187.08
147.49
104.96
60.65
14.51
-33.88
-84.03
-133.62
-178.50
-213.97
-236.55
-245.43
-242.72
-232.44
-218.81
-204.81
-191.60
-179.04
-166.69
-154.61
-143.45
-133.99
-126.49
-120.38
-114.56
-107.94
-100.04
-91.11
-82.04
-73.80
-67.02
-61.74
-57.47
-53.45
-49.05
-44.01
-38.50
-33.04
-28.22
-24.44
-21.79
-19.97
-18.49
-16.87
-14.84
-12.44
-9.97
-7.81
-6.20
-5.16
-4.47
-3.84
-3.06
-2.12
-1.17
-0.42
0.01
0.16
0.15
0.16
0.25
0.38
0.46
0.41
0.23
-0.05
-0.34
-0.58
-0.78
-0.94
-1.07
-1.14
-1.13
-1.00
-0.75
-0.42
-0.10
0.16
0.30
0.30
0.24
0.22
0.33
0.60
1.00
1.41
1.75
1.93
1.93
1.77
1.48
1.08
0.61
0.13
-0.29
-0.58
-0.72
-0.70
-0.56
-0.40
-0.28
-0.27
-0.42
-0.71
-1.06
-1.37
-1.51
-1.42
-1.11
-0.67
-0.22
0.12
0.26
0.21
0.01
-0.26
-0.51
-0.67
-0.72
-0.64
-0.47
-0.20
0.18
0.70
1.37
2.13
2.90
3.53
3.95
4.09
3.99
3.65
3.11
2.39
1.55
0.75
0.15
-0.15
-0.11
0.12
0.33
0.36
0.15
-0.20
-0.57
-0.90
-1.23
-1.61
-2.09
-2.58
-2.94
-2.98
-2.66
-2.07
-1.43
-0.96
-0.76
-0.81
-0.99
-1.13
-1.11
-0.87
-0.43
0.13
0.73
1.30
1.77
2.11
2.29
2.32
2.21
1.98
1.65
1.27
0.89
0.55
0.26
-0.01
-0.30
-0.66
-1.04
-1.41
-1.70
-1.86
-1.90
-1.89
-1.88
-1.90
-1.91
-1.86
-1.71
-1.43
-1.09
-0.74
-0.48
-0.33
-0.29
-0.31
-0.34
-0.27
-0.04
0.42
1.13
2.05
3.04
3.91
4.43
4.43
3.89
2.91
1.75
0.67
-0.16
-0.69
-0.94
-1.02
-1.02
-0.98
-0.97
-1.01
-1.13
-1.31
-1.51
-1.68
-1.79
-1.84
-1.91
-2.05
-2.28
-2.55
-2.73
-2.71
-2.41
-1.82
-1.03
-0.18
0.57
1.12
1.46
1.69
1.92
2.23
2.56
2.77
2.73
2.42
1.95
1.48
1.14
0.91
0.66
0.28
-0.28
-0.93
-1.52
-1.92
-2.09
-2.08
-1.97
-1.85
-1.76
-1.70
-1.67
-1.64
-1.58
-1.46
-1.26
-1.00
-0.75
-0.54
-0.41
-0.32
-0.26
-0.20
-0.16
-0.13
-0.02
0.28
0.88
1.76
2.76
3.57
3.90
3.65
2.97
2.15
1.55
1.36
1.55
1.91
2.18
2.20
1.96
1.57
1.12
0.64
0.12
-0.50
-1.20
-1.89
-2.43
-2.76
-2.87
-2.83
-2.76
-2.71
-2.66
-2.56
-2.31
-1.88
-1.28
-0.60
0.07
0.71
1.29
1.86
2.46
3.08
3.67
4.12
4.30
4.14
3.67
2.98
2.22
1.52
0.93
0.46
0.05
-0.33
-0.69
-1.03
-1.32
-1.54
-1.71
-1.89
-2.08
-2.29
-2.46
-2.51
-2.38
-2.08
-1.65
-1.16
-0.68
-0.25
0.11
0.37
0.49
0.44
0.27
0.12
0.14
0.49
1.18
2.07
2.91
3.42
3.45
2.98
2.11
1.05
0.02
-0.78
-1.22
-1.25
-0.93
-0.47
-0.08
0.05
-0.15
-0.61
-1.16
-1.66
-2.05
-2.36
-2.62
-2.84
-2.95
-2.84
-2.50
-2.00
-1.51
-1.17
-1.02
-0.95
-0.74
-0.24
0.61
1.69
2.76
3.63
4.13
4.24
4.01
3.50
2.82
2.03
1.23
0.50
-0.08
-0.46
-0.60
-0.57
-0.45
-0.35
-0.35
-0.47
-0.69
-0.95
-1.24
-1.54
-1.85
-2.12
-2.28
-2.24
-2.00
-1.61
-1.24
-1.02
-1.03
-1.22
-1.44
-1.53
-1.39
-0.95
-0.23
0.70
1.72
2.68
3.40
3.73
3.63
3.15
2.45
1.73
1.14
0.76
0.61
0.60
0.62
0.53
0.24
-0.30
-1.01
-1.75
-2.33
-2.63
-2.59
-2.29
-1.86
-1.43
-1.11
-0.95
-0.94
-1.02
-1.11
-1.13
-1.00
-0.70
-0.23
0.39
1.14
1.99
2.89
3.67
4.16
4.17
3.67
2.79
1.79
0.95
0.41
0.10
-0.14
-0.47
-0.92
-1.37
-1.66
-1.67
-1.49
-1.28
-1.28
-1.56
-2.05
-2.53
-2.78
-2.69
-2.30
-1.82
-1.45
-1.27
-1.23
-1.19
-1.00
-0.58
0.01
0.69
1.40
2.13
2.83
3.46
3.85
3.84
3.34
2.44
1.40
0.57
0.17
0.25
0.62
1.01
1.19
1.05
0.65
0.11
-0.44
-0.92
-1.32
-1.63
-1.83
-1.89
-1.81
-1.61
-1.40
-1.25
-1.23
-1.32
-1.44
-1.50
-1.39
-1.06
-0.56
0.04
0.66
1.23
1.73
2.13
2.36
2.37
2.15
1.75
1.32
0.99
0.82
0.76
0.68
0.47
0.07
-0.45
-0.96
-1.37
-1.63
-1.79
-1.93
-2.11
-2.27
-2.34
-2.20
-1.84
-1.34
-0.88
-0.64
-0.69
-0.94
-1.17
-1.14
-0.75
-0.03
0.84
1.68
2.37
2.88
3.25
3.47
3.50
3.27
2.74
1.99
1.20
0.56
0.22
0.17
0.31
0.44
0.43
0.21
-0.16
-0.60
-0.99
-1.30
-1.56
-1.78
-1.96
-2.07
-2.05
-1.91
-1.70
-1.50
-1.35
-1.21
-0.93
-0.41
0.38
1.33
2.23
2.87
3.12
3.01
2.61
2.02
1.31
0.53
-0.19
-0.71
-0.88
-0.67
-0.23
0.19
0.35
0.17
-0.26
-0.71
-1.00
-1.04
-0.93
-0.81
-0.83
-1.04
-1.39
-1.78
-2.11
-2.31
-2.32
-2.14
-1.78
-1.28
-0.71
-0.13
0.40
0.89
1.36
1.88
2.46
3.06
3.55
3.75
3.54
2.94
2.11
1.29
0.74
0.55
0.63
0.73
0.63
0.18
-0.54
-1.34
-1.96
-2.23
-2.16
-1.89
-1.65
-1.60
-1.80
-2.20
-2.64
-2.96
-3.05
-2.86
-2.43
-1.81
-1.09
-0.33
0.39
1.04
1.64
2.20
2.72
3.17
3.45
3.46
3.17
2.64
1.99
1.40
0.97
0.71
0.52
0.28
-0.12
-0.66
-1.24
-1.67
-1.84
-1.72
-1.40
-1.11
-1.02
-1.26
-1.77
-2.36
-2.77
-2.83
-2.50
-1.90
-1.24
-0.65
-0.22
0.12
0.45
0.85
1.32
1.85
2.40
2.91
3.36
3.69
3.83
3.71
3.31
2.67
1.92
1.18
0.56
0.10
-0.24
-0.50
-0.73
-0.95
-1.17
-1.37
-1.55
-1.75
-1.95
-2.18
-2.38
-2.52
-2.51
-2.33
-2.01
-1.60
-1.16
-0.77
-0.43
-0.14
0.13
0.43
0.80
1.26
1.84
2.52
3.18
3.68
3.84
3.51
2.71
1.56
0.33
-0.71
-1.37
-1.62
-1.56
-1.36
-1.16
-1.08
-1.10
-1.19
-1.27
-1.33
-1.35
-1.35
-1.36
-1.36
-1.34
-1.27
-1.14
-0.98
-0.82
-0.67
-0.52
-0.30
-0.01
0.35
0.70
0.97
1.16
1.33
1.61
2.08
2.70
3.25
3.45
3.08
2.12
0.81
-0.47
-1.33
-1.60
-1.35
-0.84
-0.36
-0.12
-0.10
-0.23
-0.37
-0.48
-0.60
-0.78
-1.03
-1.31
-1.52
-1.59
-1.50
-1.28
-1.03
-0.79
-0.64
-0.60
-0.65
-0.76
-0.84
-0.80
-0.57
-0.13
0.49
1.23
2.00
2.71
3.21
3.37
3.10
2.41
1.48
0.55
-0.14
-0.48
-0.50
-0.38
-0.28
-0.31
-0.48
-0.71
-0.93
-1.10
-1.20
-1.23
-1.20
-1.13
-1.05
-0.98
-0.96
-0.98
-0.96
-0.88
-0.72
-0.54
-0.40
-0.38
-0.45
-0.57
-0.62
-0.51
-0.22
0.24
0.79
1.34
1.77
2.01
2.01
1.76
1.35
0.89
0.49
0.25
0.20
0.35
0.67
1.10
1.53
1.84
1.93
1.75
1.34
0.80
0.26
-0.23
-0.65
-1.06
-1.47
-1.84
-2.10
-2.21
-2.19
-2.10
-2.02
-1.95
-1.83
-1.59
-1.21
-0.78
-0.44
-0.32
-0.44
-0.69
-0.85
-0.72
-0.22
0.55
1.38
2.04
2.37
2.33
2.00
1.51
1.01
0.59
0.30
0.15
0.13
0.20
0.32
0.45
0.54
0.55
0.42
0.13
-0.28
-0.73
-1.09
-1.22
-1.06
-0.67
-0.20
0.19
0.41
0.49
0.55
0.72
1.02
1.34
1.50
1.36
0.94
0.39
-0.03
-0.13
0.10
0.50
0.81
0.86
0.65
0.32
0.04
-0.08
-0.07
-0.05
-0.12
-0.31
-0.53
-0.63
-0.55
-0.32
-0.09
-0.02
-0.18
-0.55
-0.98
-1.33
-1.49
-1.44
-1.24
-0.97
-0.70
-0.47
-0.30
-0.26
-0.40
-0.72
-1.14
-1.53
-1.76
-1.79
-1.73
-1.78
-2.09
-2.67
-3.40
-4.07
-4.54
-4.80
-5.01
-5.35
-5.95
-6.79
-7.76
-8.69
-9.42
-9.91
-10.23
-10.59
-11.26
-12.49
-14.41
-16.90
-19.61
-22.11
-24.11
-25.63
-27.05
-28.99
-31.94
-36.06
-41.04
-46.23
-51.00
-55.05
-58.63
-62.42
-67.28
-73.72
-81.68
-90.42
-98.85
-106.01
-111.52
-115.84
-120.09
-125.69
-133.81
-145.12
-159.62
-176.56
-194.38
-210.71
-222.51
-226.64
-220.65
-203.56
-176.21
-140.84
-100.18
-56.32
-10.20
38.04
87.99
137.92
184.54
223.78
252.32
268.97
275.10
273.92
269.10
263.38
258.02
253.09
248.40
244.20
241.25
240.35
241.59
244.11
246.36
247.00
245.58
242.82
240.35
239.97
242.86
249.20
257.92
266.84
273.15
273.88
266.63
250.24
225.05
192.73
155.61
115.71
73.97
30.06
-16.82
-66.72
-117.78
-166.07
-206.59
-234.98
-249.32
-250.75
-242.88
-230.20
-216.33
-203.06
-190.52
-178.14
-165.67
-153.61
-142.88
-134.15
-127.23
-121.13
-114.57
-106.72
-97.50
-87.65
-78.29
-70.32
-64.12
-59.38
-55.36
-51.29
-46.67
-41.48
-36.11
-31.13
-26.98
-23.82
-21.49
-19.60
-17.73
-15.58
-13.06
-10.33
-7.67
-5.39
-3.73
-2.72
-2.26
-2.09
-1.94
-1.65
-1.16
-0.59
-0.09
0.18
0.23
0.16
0.15
0.32
0.66
1.06
1.34
1.41
1.32
1.20
1.22
1.42
1.69
1.84
1.71
1.25
0.54
-0.24
-0.92
-1.37
-1.57
-1.51
-1.27
-0.90
-0.48
-0.10
0.20
0.36
0.37
0.22
-0.05
-0.35
-0.58
-0.62
-0.45
-0.13
0.23
0.46
0.49
0.33
0.05
-0.20
-0.30
-0.17
0.17
0.61
1.01
1.24
1.24
1.06
0.82
0.62
0.49
0.37
0.16
-0.17
-0.58
-0.91
-1.03
-0.89
-0.51
-0.03
0.44
0.77
0.90
0.81
0.50
0.03
-0.50
-0.96
-1.25
-1.34
-1.27
-1.13
-1.01
-0.94
-0.94
-0.93
-0.89
-0.79
-0.69
-0.61
-0.57
-0.53
-0.44
-0.24
0.07
0.43
0.80
1.12
1.38
1.62
1.85
2.07
2.26
2.36
2.33
2.14
1.77
1.24
0.58
-0.10
-0.68
-1.07
-1.21
-1.18
-1.07
-0.96
-0.89
-0.85
-0.81
-0.77
-0.78
-0.87
-1.03
-1.17
-1.17
-0.92
-0.46
0.08
0.51
0.63
0.41
-0.08
-0.64
-1.06
-1.21
-1.07
-0.70
-0.20
0.34
0.87
1.38
1.86
2.28
2.60
2.79
2.83
2.72
2.46
2.07
1.56
0.97
0.37
-0.14
-0.46
-0.54
-0.42
-0.19
0.03
0.11
0.01
-0.26
-0.63
-1.00
-1.27
-1.42
-1.44
-1.37
-1.30
-1.24
-1.20
-1.16
-1.08
-0.96
-0.85
-0.79
-0.80
-0.83
-0.80
-0.64
-0.31
0.15
0.67
1.22
1.74
2.22
2.58
2.70
2.47
1.87
1.01
0.12
-0.53
-0.76
-0.60
-0.22
0.11
0.18
-0.07
-0.54
-1.03
-1.34
-1.39
-1.22
-1.01
-0.90
-0.99
-1.24
-1.52
-1.65
-1.55
-1.24
-0.87
-0.56
-0.38
