1660321081.00
64.000000
-0.00
-0.00
-0.00
-0.00
-0.00
-0.00
-0.00
-0.00
-0.00
-0.00
0.00
0.01
0.01
-0.00
-0.03
-0.05
-0.05
0.00
0.13
0.36
0.66
1.01
1.37
1.72
2.06
2.40
2.79
3.24
3.80
4.42
5.06
5.66
6.20
6.68
7.15
7.68
8.31
9.15
10.09
11.04
11.88
12.56
13.13
13.78
14.69
16.02
17.96
20.30
22.76
25.05
27.05
28.85
30.81
33.37
36.83
41.52
47.06
52.90
58.46
63.42
67.88
72.37
77.57
83.97
92.02
101.13
110.48
119.18
126.76
133.37
139.72
147.15
154.23
163.04
173.97
187.02
201.04
213.36
219.94
216.36
199.30
167.65
123.37
69.90
11.35
-48.95
-109.01
-167.98
-225.52
-281.25
-334.67
-385.01
-432.03
-475.41
-514.41
-547.53
-572.54
-586.99
-588.91
-577.51
-553.22
-518.03
-474.85
-426.95
-377.24
-327.44
-277.48
-225.62
-169.39
-106.96
-38.79
32.04
100.48
161.20
210.42
246.89
271.64
286.87
294.71
296.50
292.94
284.71
272.85
258.88
244.27
230.05
216.50
203.28
189.77
175.57
160.74
145.83
131.62
118.78
107.59
97.85
88.94
80.18
71.12
61.73
52.38
43.66
36.04
29.70
24.49
20.14
16.21
12.43
8.74
5.29
2.26
-0.24
-2.23
-3.82
-5.19
-6.44
-7.57
-8.50
-9.13
-9.42
-9.39
-9.16
-8.88
-8.66
-8.55
-8.52
-8.47
-8.33
-8.09
-7.75
-7.31
-6.76
-6.09
-5.33
-4.57
-3.92
-3.45
-3.15
-2.91
-2.62
-2.25
-1.85
-1.53
-1.43
-1.61
-2.02
-2.54
-3.00
-3.27
-3.29
-3.10
-2.81
-2.53
-2.36
-2.27
-2.23
-2.15
-2.01
-1.85
-1.78
-1.86
-2.07
-2.29
-2.33
-2.13
-1.71
-1.24
-0.89
-0.78
-0.87
-1.05
-1.16
-1.07
-0.77
-0.29
0.26
0.77
1.20
1.58
1.94
2.33
2.76
3.16
3.46
3.62
3.64
3.61
3.64
3.81
4.16
4.59
4.99
5.21
5.15
4.79
4.18
3.40
2.58
1.74
0.86
-0.12
-1.23
-2.46
-3.73
-4.91
-5.91
-6.65
-7.17
-7.48
-7.58
-7.46
-7.05
-6.36
-5.48
-4.57
-3.81
-3.32
-3.13
-3.11
-3.12
-3.04
-2.78
-2.41
-1.98
-1.58
-1.26
-1.06
-0.96
-0.98
-1.11
-1.34
-1.62
-1.87
-2.01
-1.99
-1.83
-1.57
-1.29
-1.04
-0.85
-0.67
-0.47
-0.25
-0.02
0.13
0.13
-0.05
-0.40
-0.83
-1.23
-1.47
-1.49
-1.30
-0.99
-0.73
-0.65
-0.84
-1.25
-1.77
-2.23
-2.53
-2.62
-2.49
-2.22
-1.85
-1.37
-0.79
-0.16
0.46
0.94
1.23
1.32
1.27
1.22
1.23
1.31
1.38
1.37
1.26
1.14
1.12
1.29
1.60
1.93
2.11
2.05
1.81
1.51
1.29
1.19
1.13
0.99
0.68
0.22
-0.29
-0.75
-1.15
-1.54
-2.00
-2.53
-3.08
-3.50
-3.64
-3.41
-2.83
-1.98
-1.03
-0.12
0.62
1.13
1.43
1.60
1.72
1.87
2.02
2.15
2.20
2.17
2.10
2.05
2.05
2.09
2.13
2.10
1.95
1.69
1.37
1.06
0.83
0.68
0.57
0.43
0.17
-0.23
-0.74
-1.27
-1.69
-1.91
-1.90
-1.74
-1.53
-1.45
-1.58
-1.94
-2.44
-2.90
-3.10
-2.90
-2.30
-1.43
-0.46
0.45
1.25
1.94
2.55
3.07
3.41
3.46
3.19
2.62
1.89
1.15
0.55
0.20
0.17
0.46
0.99
1.64
2.23
2.58
2.55
2.11
1.33
0.35
-0.67
-1.60
-2.37
-3.00
-3.56
-4.20
-5.06
-6.24
-7.69
-9.24
-10.61
-11.51
-11.75
-11.32
-10.40
-9.24
-8.06
-6.98
-5.93
-4.79
-3.46
-1.92
-0.30
1.26
2.60
3.60
4.25
4.59
4.70
4.68
4.59
4.47
4.33
4.20
4.12
4.15
4.34
4.62
4.88
4.94
4.65
3.99
3.08
2.11
1.25
0.59
0.13
-0.18
-0.39
-0.52
-0.55
-0.46
-0.24
0.08
0.43
0.77
1.06
1.32
1.60
1.92
2.30
2.75
3.26
3.80
4.38
5.01
5.65
6.22
6.60
6.66
6.38
5.84
5.21
4.64
4.22
3.88
3.50
2.94
2.19
1.30
0.41
-0.39
-1.08
-1.67
-2.21
-2.65
-2.94
-2.99
-2.80
-2.46
-2.08
-1.75
-1.49
-1.26
-1.01
-0.77
-0.59
-0.57
-0.74
-1.05
-1.38
-1.66
-1.84
-2.00
-2.19
-2.45
-2.70
-2.78
-2.60
-2.12
-1.46
-0.80
-0.32
-0.09
-0.07
-0.11
-0.11
0.00
0.21
0.46
0.69
0.88
1.00
1.03
0.94
0.74
0.44
0.12
-0.15
-0.29
-0.28
-0.18
-0.06
0.02
0.02
-0.06
-0.18
-0.29
-0.35
-0.36
-0.35
-0.37
-0.49
-0.72
-1.03
-1.33
-1.54
-1.57
-1.44
-1.19
-0.93
-0.76
-0.73
-0.80
-0.88
-0.86
-0.65
-0.26
0.20
0.59
0.78
0.77
0.67
0.66
0.86
1.24
1.65
1.88
1.84
1.57
1.26
1.12
1.22
1.47
1.67
1.63
1.30
0.80
0.35
0.12
0.15
0.33
0.49
0.47
0.23
-0.17
-0.62
-1.04
-1.42
-1.76
-2.03
-2.20
-2.17
-1.90
-1.42
-0.85
-0.34
0.01
0.18
0.21
0.20
0.20
0.22
0.25
0.27
0.29
0.33
0.40
0.49
0.57
0.61
0.63
0.66
0.73
0.84
0.92
0.88
0.65
0.21
-0.32
-0.81
-1.11
-1.17
-1.03
-0.82
-0.66
-0.59
-0.60
-0.63
-0.67
-0.73
-0.86
-1.04
-1.20
-1.19
-0.88
-0.27
0.50
1.20
1.62
1.67
1.42
1.06
0.74
0.54
0.44
0.37
0.30
0.26
0.30
0.43
0.60
0.71
0.69
0.54
0.34
0.18
0.16
0.28
0.49
0.69
0.78
0.70
0.50
0.26
0.08
-0.01
-0.06
-0.19
-0.47
-0.89
-1.30
-1.55
-1.48
-1.11
-0.52
0.10
0.61
0.98
1.21
1.39
1.56
1.77
2.02
2.29
2.53
2.68
2.69
2.60
2.54
2.64
2.99
3.54
4.10
4.47
4.50
4.19
3.70
3.27
3.06
3.14
3.44
3.84
4.25
4.66
5.08
5.53
6.01
6.51
7.03
7.63
8.34
9.19
10.10
10.96
11.67
12.19
12.66
13.33
14.45
16.14
18.29
20.57
22.56
23.96
24.67
24.89
24.98
25.39
26.44
28.27
30.74
33.48
35.98
37.65
38.12
37.36
35.78
34.12
33.22
33.69
35.69
38.89
42.57
45.93
48.31
49.35
49.03
47.47
44.89
41.43
37.11
31.93
25.89
19.09
11.78
4.35
-2.77
-9.23
-14.82
-19.48
-23.21
-25.98
-27.68
-28.17
-27.44
-25.68
-23.28
-20.76
-18.47
-16.44
-14.38
-11.87
-8.61
-4.69
-0.55
3.25
6.32
8.60
10.35
11.89
13.44
15.00
16.45
17.66
18.58
19.08
18.82
17.20
13.52
7.32
-1.29
-11.53
-22.16
-31.96
-40.18
-46.69
-51.84
-56.07
-59.57
-62.09
-63.17
-62.45
-60.00
-56.39
-52.50
-49.16
-46.84
-45.52
-44.87
-44.42
-43.85
-43.02
-41.99
-40.86
-39.67
-38.43
-37.08
-35.61
-34.08
-32.60
-31.26
-30.10
-29.11
-28.22
-27.30
-26.25
-25.05
-23.74
-22.45
-21.34
-20.54
-20.11
-19.97
-20.00
-20.03
-19.91
-19.55
-18.97
-18.29
-17.64
-17.17
-16.92
-16.87
-16.94
-17.07
-17.24
-17.46
-17.69
-17.79
-17.58
-16.91
-15.70
-14.07
-12.24
-10.46
-8.87
-7.52
-6.35
-5.27
-4.24
-3.31
-2.52
-1.95
-1.59
-1.39
-1.24
-1.00
-0.62
-0.09
0.52
1.10
1.60
2.00
2.36
2.73
3.11
3.41
3.51
3.28
2.67
1.78
0.81
-0.04
-0.59
-0.83
-0.90
-1.03
-1.43
-2.24
-3.37
-4.62
-5.76
-6.63
-7.21
-7.58
-7.82
-7.96
-7.92
-7.56
-6.82
-5.66
-4.13
-2.25
0.03
2.70
5.68
8.67
11.20
12.83
13.33
12.83
11.82
10.91
10.59
11.01
11.95
12.99
13.73
13.95
13.70
13.14
12.43
11.57
10.47
8.97
7.09
5.00
3.08
1.73
1.17
1.34
1.92
2.53
2.90
3.06
3.32
4.03
5.47
7.65
10.35
13.26
16.03
18.40
20.10
20.87
20.51
18.98
16.47
13.43
10.41
7.84
5.91
4.53
3.40
2.25
0.83
-0.93
-3.06
-5.51
-8.17
-10.88
-13.40
-15.53
-17.10
-18.07
-18.52
-18.58
-18.37
-17.96
-17.35
-16.51
-15.34
-13.72
-11.44
-8.36
-4.50
-0.20
3.91
7.06
8.69
8.74
7.75
6.64
6.30
7.18
9.10
11.40
13.27
14.12
13.77
12.45
10.52
8.28
5.88
3.36
0.76
-1.71
-3.71
-4.85
-4.92
-3.93
-2.18
-0.03
2.26
4.66
7.34
10.50
14.14
18.00
21.45
23.71
24.12
22.36
18.62
13.59
8.26
3.58
0.21
-1.71
-2.45
-2.58
-2.66
-3.09
-4.01
-5.35
-6.96
-8.67
-10.29
-11.65
-12.57
-12.94
-12.74
-12.09
-11.14
-10.01
-8.69
-6.99
-4.63
-1.36
2.88
7.90
13.22
18.13
21.93
24.04
24.25
22.80
20.31
17.57
15.33
13.97
13.45
13.29
12.85
11.52
9.03
5.46
1.22
-3.09
-6.90
-9.75
-11.41
-11.86
-11.23
-9.73
-7.51
-4.70
-1.36
2.49
6.81
11.49
16.39
21.24
25.60
28.87
30.32
29.32
25.62
19.60
12.28
5.14
-0.50
-3.86
-5.04
-4.90
-4.58
-5.03
-6.65
-9.25
-12.29
-15.20
-17.60
-19.38
-20.57
-21.24
-21.45
-21.18
-20.41
-19.11
-17.28
-14.87
-11.77
-7.83
-2.94
2.87
9.32
15.77
21.39
25.33
27.07
26.63
24.59
21.95
19.70
18.44
18.20
18.48
18.54
17.65
15.47
12.00
7.60
2.81
-1.84
-5.92
-9.22
-11.65
-13.20
-13.82
-13.39
-11.75
-8.84
-4.67
0.58
6.66
13.30
20.16
26.79
32.44
36.15
36.92
34.08
27.70
18.73
8.82
-0.20
-6.89
-10.65
-11.81
-11.37
-10.52
-10.18
-10.80
-12.36
-14.56
-17.00
-19.38
-21.44
-22.98
-23.84
-23.98
-23.48
-22.53
-21.35
-20.03
-18.38
-16.01
-12.44
-7.40
-1.03
6.02
12.69
17.88
20.81
21.32
19.95
17.72
15.77
14.89
15.31
16.66
18.20
19.15
19.01
17.62
15.18
12.03
8.53
4.99
1.65
-1.24
-3.35
-4.33
-3.90
-1.94
1.42
5.87
11.02
16.53
22.00
26.97
30.74
32.52
31.60
27.65
20.98
12.48
3.39
-5.05
-11.92
-16.73
-19.40
-20.19
-19.55
-18.09
-16.45
-15.17
-14.63
-14.89
-15.74
-16.82
-17.74
-18.28
-18.36
-18.07
-17.55
-16.89
-16.06
-14.86
-12.91
-9.81
-5.31
0.43
6.71
12.43
16.39
17.71
16.16
12.28
7.15
2.01
-2.14
-4.80
-5.96
-5.98
-5.39
-4.73
-4.44
-4.77
-5.81
-7.41
-9.32
-11.23
-12.88
-14.11
-14.85
-15.09
-14.74
-13.71
-11.88
-9.23
-5.82
-1.83
2.52
7.02
11.39
15.30
18.28
19.84
19.56
17.32
13.38
8.32
2.94
-2.02
-6.02
-8.79
-10.37
-10.97
-10.88
-10.41
-9.88
-9.49
-9.41
-9.72
-10.40
-11.35
-12.36
-13.22
-13.72
-13.81
-13.55
-13.10
-12.53
-11.78
-10.59
-8.59
-5.48
-1.22
3.91
9.30
14.15
17.77
19.69
19.88
18.65
16.55
14.19
12.04
10.37
9.24
8.51
7.94
7.25
6.15
4.43
2.05
-0.87
-4.04
-7.08
-9.64
-11.44
-12.34
-12.29
-11.35
-9.59
-7.12
-4.01
-0.31
3.92
8.57
13.38
17.95
21.76
24.30
25.17
24.20
21.44
17.15
11.84
6.16
0.88
-3.34
-6.09
-7.42
-7.79
-7.90
-8.41
-9.68
-11.68
-14.05
-16.34
-18.18
-19.39
-19.93
-19.91
-19.41
-18.52
-17.26
-15.58
-13.34
-10.38
-6.52
-1.67
4.06
10.27
16.27
21.21
24.30
25.04
23.42
19.89
15.33
10.71
6.89
4.33
3.08
2.77
2.77
2.47
1.36
-0.76
-3.76
-7.30
-10.91
-14.12
-16.61
-18.23
-18.94
-18.80
-17.89
-16.27
-14.02
-11.21
-7.89
-4.16
-0.11
4.12
8.32
12.22
15.49
17.74
18.64
18.04
16.03
13.03
9.68
6.65
4.40
3.06
2.36
1.78
0.76
-1.04
-3.66
-6.84
-10.15
-13.18
-15.60
-17.25
-18.10
-18.21
-17.73
-16.82
-15.69
-14.49
-13.26
-11.84
-9.95
-7.27
-3.62
0.87
5.77
10.43
14.11
16.27
16.76
15.87
14.26
12.76
12.04
12.32
13.36
14.52
15.05
14.39
12.43
9.40
5.79
2.02
-1.64
-5.04
-8.09
-10.55
-12.12
-12.51
-11.58
-9.47
-6.51
-3.06
0.64
4.48
8.47
12.52
16.34
19.38
20.98
20.58
17.99
13.48
7.87
2.29
-2.08
-4.44
-4.58
-3.00
-0.72
1.10
1.59
0.39
-2.24
-5.66
-9.18
-12.25
-14.60
-16.22
-17.20
-17.66
-17.69
-17.34
-16.67
-15.71
-14.39
-12.55
-9.99
-6.55
-2.26
2.57
7.37
11.47
14.33
15.66
15.59
14.58
13.23
12.13
11.63
11.80
12.39
12.98
13.13
12.41
10.63
7.77
4.06
-0.11
-4.24
-7.81
-10.36
-11.59
-11.37
-9.76
-6.96
-3.32
0.79
5.04
9.21
13.22
17.05
20.65
23.78
25.96
26.55
24.95
20.88
14.58
6.87
-1.03
-7.88
-12.79
-15.47
-16.28
-15.99
-15.40
-15.14
-15.45
-16.29
-17.47
-18.77
-20.00
-20.98
-21.49
-21.37
-20.53
-19.11
-17.35
-15.54
-13.81
-12.01
-9.82
-6.84
-2.81
2.25
7.93
13.54
18.18
21.02
21.53
19.75
16.30
12.26
8.81
6.80
6.47
7.40
8.76
9.68
9.56
8.23
5.86
2.80
-0.64
-4.20
-7.73
-11.03
-13.81
-15.73
-16.45
-15.81
-13.86
-10.91
-7.40
-3.73
-0.14
3.33
6.75
10.20
13.63
16.90
19.73
21.83
22.94
22.74
21.00
17.57
12.65
6.79
0.92
-3.97
-7.13
-8.33
-7.97
-6.80
-5.68
-5.18
-5.50
-6.51
-8.00
-9.76
-11.75
-13.97
-16.34
-18.63
-20.48
-21.46
-21.32
-20.05
-17.93
-15.35
-12.67
-10.07
-7.57
-5.13
-2.75
-0.57
1.30
2.81
4.17
5.74
7.82
10.49
13.38
15.81
17.07
16.75
14.98
12.40
9.91
8.29
7.85
8.39
9.33
9.99
9.87
8.79
6.85
4.30
1.41
-1.57
-4.37
-6.73
-8.42
-9.29
-9.34
-8.74
-7.76
-6.67
-5.62
-4.66
-3.73
-2.69
-1.43
0.14
2.03
4.15
6.28
8.12
9.32
9.60
8.79
6.97
4.48
1.84
-0.45
-2.06
-2.93
-3.22
-3.19
-2.99
-2.62
-1.88
-0.62
1.06
2.81
4.17
4.77
4.55
3.72
2.57
1.51
0.65
-0.16
-1.13
-2.24
-3.13
-3.25
-2.18
0.13
3.59
7.65
11.43
14.10
15.35
15.49
15.25
15.43
16.57
19.31
23.67
28.96
34.01
37.83
40.03
40.82
40.88
41.12
43.10
47.77
54.95
63.28
70.75
75.29
75.13
69.20
53.91
29.68
1.50
-23.12
-38.69
-44.02
-41.35
-34.15
-25.52
-17.38
-9.85
-2.75
3.73
8.98
12.50
14.29
14.99
15.50
16.64
19.22
22.86
26.06
26.76
23.27
15.09
3.02
-11.34
-26.42
-39.14
-47.73
-51.90
-52.50
-50.92
-48.36
-45.58
-42.97
-40.64
-38.47
-36.58
-35.12
-34.20
-33.71
-33.38
-32.91
-32.06
-30.79
-29.06
-27.15
-25.38
-24.00
-23.16
-22.81
-22.75
-22.69
-22.35
-21.52
-20.24
-18.69
-17.09
-15.64
-14.48
-13.56
-12.73
-11.77
-10.44
-8.71
-6.69
-4.67
-3.01
-1.98
-1.70
-2.08
-2.86
-3.72
-4.37
-4.59
-4.29
-3.48
-2.33
-1.06
0.08
0.88
1.28
1.33
1.17
0.93
0.64
0.26
-0.29
-1.06
-1.99
-2.94
-3.71
-4.15
-4.14
-3.67
-2.78
-1.59
-0.23
1.12
2.29
3.15
3.67
3.94
4.13
4.41
4.86
5.39
5.76
5.69
5.03
3.78
2.17
0.54
-0.78
-1.64
-2.05
-2.13
-2.07
-1.97
-1.87
-1.80
-1.79
-1.93
-2.31
-3.00
-3.93
-4.95
-5.85
-6.51
-6.91
-7.19
-7.53
-8.04
-8.69
-9.31
-9.60
-9.31
-8.30
-6.59
-4.40
-2.03
0.16
1.90
3.10
3.82
4.26
4.64
5.06
5.48
5.74
5.70
5.28
4.57
3.77
3.05
2.53
2.18
1.87
1.46
0.86
0.05
-0.87
-1.79
-2.64
-3.37
-4.01
-4.62
-5.24
-5.87
-6.43
-6.84
-7.03
-6.97
-6.63
-6.07
-5.30
-4.36
-3.29
-2.07
-0.75
0.67
2.14
3.68
5.30
7.04
8.82
10.45
11.59
11.91
11.26
9.79
7.94
6.28
5.22
4.82
4.79
4.66
3.97
2.54
0.46
-1.93
-4.26
-6.30
-7.96
-9.34
-10.61
-11.87
-13.13
-14.30
-15.23
-15.84
-16.13
-16.20
-16.11
-15.84
-15.19
-13.87
-11.65
-8.51
-4.64
-0.44
3.63
7.15
9.79
11.41
12.04
11.87
11.26
10.60
10.23
10.28
10.65
11.07
11.23
10.95
10.18
9.05
7.70
6.27
4.79
3.26
1.70
0.19
-1.16
-2.19
-2.79
-2.88
-2.45
-1.54
-0.22
1.45
3.40
5.52
7.68
9.72
11.49
12.88
13.79
14.11
13.76
12.69
11.01
8.97
6.94
5.27
4.15
3.50
3.04
2.46
1.57
0.40
-0.85
-1.98
-2.88
-3.61
-4.30
-5.02
-5.74
-6.35
-6.74
-6.90
-6.94
-6.98
-7.05
-7.01
-6.62
-5.59
-3.72
-1.02
2.23
5.57
8.39
10.16
10.52
9.45
7.30
4.71
2.46
1.18
1.15
2.22
3.89
5.52
6.57
6.76
6.10
4.77
