1660757043.00
64.000000
-0.00
-0.00
-0.00
-0.00
-0.00
-0.00
-0.00
-0.00
-0.00
-0.00
0.00
0.01
0.01
-0.00
-0.03
-0.05
-0.05
0.00
0.13
0.36
0.66
1.01
1.37
1.72
2.06
2.40
2.79
3.24
3.80
4.42
5.06
5.66
6.20
6.68
7.15
7.68
8.31
9.14
10.09
11.04
11.88
12.56
13.14
13.76
14.65
15.96
17.91
20.32
22.90
25.38
27.58
29.57
31.68
34.32
37.81
42.54
48.15
54.10
59.83
64.97
69.58
74.14
79.34
85.71
93.76
103.00
112.62
121.73
129.77
136.75
143.30
150.75
157.77
166.64
177.95
191.79
206.97
220.57
228.25
225.36
208.53
176.87
132.76
80.05
23.07
-34.94
-92.44
-149.16
-205.23
-260.37
-313.74
-363.87
-409.83
-450.91
-486.50
-515.74
-537.23
-549.22
-549.96
-538.37
-514.21
-478.67
-433.88
-382.45
-327.02
-269.84
-212.63
-156.66
-102.95
-52.37
-5.90
35.58
71.43
101.35
125.50
144.38
158.69
169.15
176.37
180.75
182.57
182.07
179.51
175.23
169.65
163.18
156.15
148.81
141.30
133.69
126.02
118.33
110.69
103.16
95.80
88.68
81.83
75.25
68.95
62.95
57.25
51.86
46.78
42.03
37.59
33.45
29.61
26.07
22.81
19.83
17.11
14.67
12.48
10.54
8.83
7.35
6.07
4.97
4.05
3.27
2.62
2.09
1.65
1.30
1.01
0.79
0.61
0.48
0.37
0.29
0.22
0.18
0.14
0.11
0.09
0.08
0.07
0.06
0.06
0.07
0.08
0.09
0.11
0.13
0.16
0.19
0.23
0.27
0.31
0.35
0.40
0.44
0.49
0.54
0.60
0.65
0.72
0.78
0.85
0.93
1.01
1.10
1.21
1.32
1.45
1.59
1.75
1.93
2.13
2.35
2.60
2.87
3.17
3.50
3.86
4.25
4.67
5.13
5.63
6.17
6.76
7.38
8.05
8.76
9.53
10.34
11.21
12.11
13.08
14.09
15.17
16.32
17.54
18.82
20.16
21.53
22.87
24.14
25.23
26.04
26.45
26.35
25.64
24.25
22.19
19.46
16.13
12.38
8.34
4.19
0.11
-3.75
-7.26
-10.32
-12.84
-14.78
-16.12
-16.91
-17.23
-17.17
-16.86
-16.38
-15.77
-15.08
-14.28
-13.35
-12.33
-11.31
-10.36
-9.58
-9.04
-8.72
-8.52
-8.25
-7.64
-6.69
-5.39
-3.86
-2.28
-0.81
0.47
1.67
3.01
4.85
7.10
9.59
12.01
13.98
15.19
15.59
15.42
15.23
15.68
16.71
18.10
19.35
19.79
18.86
16.36
12.60
8.23
4.19
0.52
-2.91
-6.59
-11.42
-18.76
-30.33
-48.05
-73.87
-103.81
-134.45
-161.21
-179.29
-185.10
-177.52
-158.24
-130.96
-100.03
-68.96
-40.62
-16.42
2.93
16.86
24.89
27.08
24.38
18.64
12.30
7.09
4.25
4.22
6.66
10.85
15.88
20.88
24.96
27.41
27.46
25.06
20.97
16.47
13.08
11.91
13.40
17.35
23.08
29.57
35.87
41.18
44.82
46.30
45.17
41.03
33.41
21.82
5.99
-13.42
-34.39
-53.46
-66.53
-70.20
-63.13
-46.84
-25.57
-5.10
8.94
12.81
5.70
-10.01
-29.63
-47.61
-59.29
-62.18
-56.44
-44.51
-30.26
-17.80
-10.42
-9.89
-16.12
-27.12
-39.49
-49.19
-52.67
-47.82
-34.62
-15.11
7.28
28.67
45.67
56.01
58.85
54.72
45.31
32.99
20.40
9.93
3.37
1.54
4.18
10.08
17.38
24.10
28.78
30.81
30.51
28.79
26.67
24.82
23.44
22.42
21.54
20.73
19.99
19.26
18.36
17.10
15.56
14.21
13.83
15.15
18.52
23.57
29.43
34.91
38.99
41.05
41.00
39.25
36.61
34.15
32.96
33.77
36.77
41.41
46.58
51.04
53.99
55.38
56.03
57.17
59.92
64.68
70.93
77.37
82.57
85.53
86.25
85.67
85.48
87.65
93.82
104.53
118.56
132.53
141.29
139.16
121.87
88.45
42.03
-10.80
-62.13
-105.14
-135.89
-153.75
-160.53
-159.13
-152.45
-142.96
-132.70
-123.38
-116.27
-111.83
-109.57
-108.18
-106.00
-101.72
-94.90
-85.96
-75.90
-65.80
-56.35
-47.67
-39.50
-31.48
-23.55
-16.11
-9.84
-5.53
-3.62
-4.01
-6.00
-8.26
-9.22
-7.36
-1.69
7.82
20.24
33.91
47.11
58.59
67.89
75.03
80.14
83.00
83.17
80.41
75.17
68.65
62.46
57.86
55.36
54.63
54.94
55.63
56.29
56.65
56.39
55.05
52.19
47.67
41.90
35.71
29.98
25.22
21.24
17.27
12.35
5.89
-1.75
-9.12
-13.90
-13.62
-6.54
7.34
25.86
44.88
59.24
64.32
57.21
37.64
7.91
-27.89
-65.13
-99.76
-129.19
-152.55
-170.31
-183.63
-193.47
-199.97
-202.14
-198.09
-185.95
-165.02
-136.75
-104.77
-73.98
-48.71
-31.15
-20.51
-13.89
-7.98
-1.08
5.86
9.76
7.14
-3.77
-21.70
-42.49
-60.51
-70.48
-68.77
-53.89
-26.27
11.71
55.53
98.37
131.48
146.21
136.87
103.55
52.88
-3.78
-54.32
-89.91
-107.29
-108.19
-96.84
-77.10
-51.10
-19.82
15.35
51.27
83.25
106.56
118.45
119.29
112.26
101.59
90.61
80.60
70.84
59.89
47.10
33.29
20.46
10.40
3.34
-2.41
-9.60
-20.08
-33.36
-46.19
-53.95
-52.68
-41.09
-21.12
2.88
25.93
43.99
54.82
57.96
54.06
44.54
31.28
16.54
2.90
-7.42
-12.96
-13.54
-10.04
-3.98
3.10
9.98
15.89
20.31
22.82
23.18
21.31
17.44
11.98
5.44
-1.68
-8.93
-15.85
-21.87
-26.36
-28.69
-28.40
-25.40
-20.09
-13.31
-6.19
0.21
5.28
9.05
12.19
15.59
19.90
25.10
30.42
34.71
36.91
36.51
33.65
29.05
23.73
18.70
14.71
12.14
10.90
10.49
10.29
9.67
8.26
6.00
3.00
-0.60
-4.83
-9.77
-15.44
-21.52
-27.39
-32.33
-35.78
-37.57
-37.85
-36.92
-34.99
-32.10
-28.24
-23.55
-18.42
-13.48
-9.37
-6.51
-4.91
-4.18
-3.71
-2.88
-1.27
1.29
4.71
8.74
13.01
17.10
20.55
22.94
24.01
23.79
22.68
21.26
20.03
19.13
18.28
16.91
14.46
10.77
6.22
1.52
-2.44
-5.02
-5.93
-5.32
-3.59
-1.32
0.92
2.74
3.92
4.44
4.46
4.17
3.75
3.40
3.28
3.57
4.41
5.73
7.23
8.47
9.08
8.87
7.93
6.54
5.10
3.89
3.11
2.84
3.07
3.67
4.27
4.26
3.03
0.27
-3.83
-8.58
-13.09
-16.63
-18.92
-20.05
-20.21
-19.51
-17.82
-15.00
-11.09
-6.51
-1.95
1.97
5.01
7.48
9.96
12.80
15.84
18.34
19.34
18.03
14.14
8.09
0.92
-5.83
-10.37
-11.07
-7.09
1.10
11.70
21.93
28.93
30.52
25.77
15.07
-0.13
-17.60
-34.60
-48.21
-55.99
-56.63
-50.44
-39.15
-25.05
-9.95
5.39
20.91
36.30
50.25
60.45
64.62
61.67
52.50
39.80
26.98
16.91
10.92
8.69
8.61
8.76
7.60
4.45
-0.43
-6.08
-11.35
-15.20
-17.04
-16.82
-15.06
-12.62
-10.58
-10.00
-11.58
-15.43
-20.91
-26.79
-31.60
-34.14
-33.89
-31.10
-26.53
-21.02
-15.26
-9.68
-4.59
-0.37
2.70
4.61
5.92
7.63
10.78
15.83
22.32
28.99
34.34
37.29
37.63
36.01
33.44
30.75
28.25
25.71
22.68
18.79
14.03
8.74
3.47
-1.26
-5.05
-7.72
-9.31
-9.99
-10.12
-10.06
-10.16
-10.60
-11.42
-12.52
-13.70
-14.80
-15.63
-16.01
-15.71
-14.49
-12.25
-9.14
-5.68
-2.58
-0.58
-0.09
-1.02
-2.84
-4.74
-5.99
-6.13
-5.03
-2.91
-0.14
2.85
5.73
8.21
10.11
11.25
11.46
10.57
8.55
5.54
2.04
-1.25
-3.60
-4.61
-4.36
-3.39
-2.48
-2.27
-2.98
-4.35
-5.80
-6.78
-6.97
-6.43
-5.52
-4.68
-4.27
-4.44
-5.14
-6.22
-7.48
-8.65
-9.41
-9.50
-8.80
-7.51
-6.13
-5.28
-5.38
-6.39
-7.73
-8.50
-7.94
-5.74
-2.16
2.08
6.22
9.62
11.99
13.26
13.53
12.96
11.80
10.36
9.00
8.11
7.96
8.69
10.13
11.91
13.46
14.24
13.93
12.55
10.50
8.31
6.43
5.03
3.96
2.89
1.59
0.07
-1.41
-2.49
-2.95
-2.86
-2.67
-2.90
-3.97
-5.91
-8.34
-10.61
-12.07
-12.31
-11.27
-9.19
-6.40
-3.18
0.31
3.91
7.39
10.32
12.26
12.98
12.55
11.34
9.82
8.38
7.23
6.45
6.10
6.25
6.93
8.01
9.12
9.77
9.54
8.27
6.20
3.86
1.84
0.48
-0.17
-0.35
-0.42
-0.62
-1.06
-1.69
-2.38
-3.11
-4.03
-5.38
-7.37
-10.03
-13.04
-15.86
-17.95
-19.01
-19.08
-18.52
-17.73
-17.08
-16.80
-16.91
-17.40
-18.12
-18.79
-18.96
-18.12
-15.98
-12.72
-9.17
-6.52
-5.85
-7.63
-11.40
-16.03
-20.23
-23.03
-24.16
-23.92
-22.89
-21.45
-19.62
-17.08
-13.58
-9.48
-6.02
-5.08
-8.30
-15.95
-26.11
-34.88
-37.47
-29.71
-9.35
23.26
65.09
110.68
152.75
183.36
195.68
186.10
155.78
110.85
60.93
16.14
-15.97
-32.51
-35.53
-30.54
-24.04
-21.12
-23.90
-31.27
-39.90
-45.89
-46.57
-41.51
-32.40
-21.86
-12.19
-4.55
0.93
4.43
5.93
5.17
1.96
-3.33
-9.58
-15.35
-19.46
-21.47
-21.73
-21.07
-20.23
-19.45
-18.39
-16.49
-13.41
-9.52
-6.01
-4.62
-7.06
-14.18
-25.44
-38.66
-50.41
-56.95
-55.43
-44.90
-26.87
-4.89
16.44
32.95
42.08
43.51
38.93
31.15
23.14
17.13
14.28
14.71
17.94
23.12
29.24
35.09
39.29
40.49
37.83
31.36
22.21
12.38
3.91
-1.85
-4.76
-5.78
-6.38
-7.74
-10.26
-13.52
-16.66
-18.84
-19.50
-18.48
-15.87
-12.00
-7.38
-2.59
1.77
5.23
7.55
8.74
8.94
8.42
7.50
6.47
5.62
5.11
4.98
5.25
6.04
7.63
10.39
14.44
19.37
24.25
27.90
29.48
28.89
26.86
24.56
23.10
23.17
24.91
28.21
32.92
38.92
45.84
52.90
58.89
62.46
62.28
57.65
48.80
37.04
24.54
13.91
7.65
7.39
13.33
23.77
35.70
46.06
53.02
56.77
59.39
63.90
72.93
87.36
105.48
123.89
139.03
148.54
151.71
149.30
142.83
133.80
123.00
109.69
92.38
70.16
43.58
14.42
-15.03
-42.65
-67.25
-88.83
-109.21
-130.85
-155.06
-181.07
-206.64
-229.03
-245.91
-255.91
-252.91
-233.17
-200.11
-163.36
-132.38
-111.47
-99.40
-91.27
-81.00
-64.38
-39.38
-8.00
25.27
55.10
76.62
86.70
85.12
74.84
58.24
40.68
27.88
24.14
30.54
43.69
56.40
60.32
49.90
25.27
-7.40
-38.90
-60.72
-68.71
-64.89
-56.36
-51.62
-56.23
-70.38
-89.55
-108.07
-122.03
-130.48
-134.43
-135.24
-133.18
-127.04
-115.36
-98.26
-78.76
-61.64
-50.84
-46.83
-46.46
-44.68
-36.91
-21.04
1.51
26.24
46.81
55.88
50.73
34.96
14.67
-5.59
-23.35
-38.05
-49.96
-59.65
-67.44
-73.18
-76.89
-79.18
-80.94
-82.13
-82.49
-81.34
-78.35
-73.63
-67.51
-60.87
-55.09
-51.39
-49.36
-47.90
-45.50
-40.91
-33.43
-22.75
-8.76
9.15
27.36
45.38
63.82
83.93
107.02
134.18
165.83
200.87
236.08
266.22
286.08
291.44
281.01
257.16
225.23
191.45
160.59
134.73
113.30
95.22
79.53
66.25
56.01
49.19
45.17
42.23
38.20
31.24
20.90
7.83
-6.35
-19.72
-30.67
-38.36
-42.89
-45.03
-45.80
-45.73
-44.92
-43.11
-40.13
-36.25
-32.27
-29.36
-28.49
-30.06
-33.53
-37.70
-41.05
-42.26
-40.72
-36.62
-30.91
-24.92
-19.89
-16.55
-14.98
-14.76
-15.24
-15.87
-16.39
-16.78
-17.07
-17.20
-17.10
-16.67
-16.00
-15.26
-14.64
-14.27
-14.19
-14.43
-14.99
-15.89
-17.10
-18.42
-19.46
-19.71
-18.75
-16.47
-13.19
-9.60
-6.45
-4.22
-2.88
-1.97
-0.90
0.69
2.70
4.62
5.87
6.12
5.58
4.81
4.38
4.45
4.77
4.78
4.07
2.60
0.81
-0.55
-0.83
0.21
2.16
4.23
5.58
5.75
4.91
3.62
2.74
2.96
4.37
6.43
8.35
9.52
9.93
10.10
10.58
11.98
14.73
18.87
24.40
31.42
40.02
49.84
59.53
66.51
68.31
63.74
53.02
37.31
17.72
-5.51
-32.96
-64.92
-100.24
-134.95
-163.06
-179.41
-181.90
-172.10
-154.23
-133.19
-110.74
-90.49
-75.94
-68.09
-65.98
-67.86
-71.98
-76.47
-79.50
-79.75
-76.47
-69.97
-60.65
-49.53
-37.82
-26.24
-14.62
-1.95
13.19
32.23
53.05
74.62
95.93
116.08
134.82
152.95
172.35
195.56
224.65
260.09
300.03
339.00
368.78
380.80
368.92
331.56
272.44
199.42
122.50
51.91
-4.37
-41.57
-58.37
-56.63
-40.87
-17.48
6.42
24.49
32.73
29.94
17.68
-0.42
-19.84
-36.55
-48.03
-53.72
-54.98
-54.17
-53.92
-56.30
-62.37
-72.01
-84.34
-97.98
-111.38
-122.90
-130.69
-132.95
-128.32
-116.58
-98.92
-77.97
-57.21
-39.99
-28.61
-23.63
-23.79
-26.39
-28.29
-26.76
-20.34
-9.35
4.23
17.29
26.76
30.57
28.23
20.54
9.53
-2.29
-12.79
-20.96
-27.27
-33.37
-41.31
-52.56
-67.80
-85.67
-103.19
-116.96
-124.73
-126.22
-122.83
-116.79
-110.23
-105.85
-105.28
-109.06
-116.65
-126.81
-137.57
-146.36
-150.44
-147.81
-139.19
-126.20
-110.55
-93.55
-76.29
-59.81
-45.17
-33.31
-16.77
6.60
33.87
59.26
78.73
91.76
99.89
104.97
108.25
110.38
110.28
107.49
102.74
97.53
93.32
90.75
89.73
89.70
89.90
88.68
85.08
79.52
73.41
68.33
65.40
65.03
66.84
69.85
72.22
72.52
70.59
67.39
64.36
62.64
62.54
63.52
64.23
62.78
57.49
47.73
33.72
16.31
-2.82
-20.99
-34.69
-40.52
-35.97
-23.52
-8.47
2.47
3.93
-5.70
-23.61
-44.19
-61.85
-73.38
-79.10
-81.19
-82.11
-83.25
-84.74
-86.02
-86.64
-86.32
-84.57
-80.75
-74.04
-64.09
-51.60
-38.29
-26.29
-17.31
-12.10
-10.35
-11.36
-14.05
-17.31
-19.96
-20.96
-19.07
-13.87
-6.10
2.94
11.51
18.34
23.13
26.58
29.94
34.36
40.11
46.46
51.84
54.32
52.44
45.76
35.00
21.93
8.87
-1.93
-8.71
-10.52
-7.39
-0.22
9.52
20.01
29.56
36.87
41.21
42.45
40.90
37.02
31.39
24.67
17.58
10.97
5.78
2.90
2.92
5.85
10.79
16.35
20.75
22.13
19.13
11.30
-0.49
-14.20
-27.04
-36.61
-41.40
-41.41
-38.13
-34.14
-32.13
-34.20
-41.37
-53.57
-70.04
-88.85
-107.14
-121.42
-128.14
-124.66
-110.22
-86.44
-55.64
-23.95
1.70
15.91
16.52
5.14
-13.60
-33.78
-50.17
-59.58
-61.56
-57.39
-49.21
-39.21
-29.04
-19.57
-11.14
-3.84
2.20
6.42
8.51
8.60
7.56
6.94
8.59
13.94
23.47
36.53
51.48
66.40
79.18
87.38
88.19
78.91
58.32
28.34
-5.40
-34.72
-51.69
-52.03
-37.12
-13.47
10.04
25.83
30.11
23.42
9.23
-7.88
-23.84
-35.59
-41.11
-39.51
-31.32
-18.77
-5.27
5.70
12.19
14.58
15.35
17.70
23.94
34.37
47.32
60.33
71.54
80.85
90.14
102.56
120.96
146.28
176.32
205.85
227.75
235.09
223.10
190.49
139.79
77.16
11.59
-46.58
-87.90
-106.80
-103.89
-86.22
-64.67
-49.33
-44.84
-48.67
-53.22
-50.65
-37.71
-17.48
2.87
16.51
20.90
18.51
14.32
11.96
11.17
8.26
-0.88
-17.24
-37.05
-53.01
-57.79
-47.64
-24.27
5.85
33.92
51.82
54.47
41.17
16.06
-12.65
-34.86
-41.92
-30.09
-2.55
31.55
60.77
76.12
74.38
58.60
35.85
14.08
-0.38
-3.94
4.24
22.28
45.51
66.92
78.75
75.06
54.39
20.48
-19.10
-56.01
-84.05
-100.94
-108.14
-109.75
-111.44
-119.23
-138.29
-171.15
-215.71
-264.30
-305.20
-326.73
-322.35
-293.93
-251.28
-207.58
-173.40
-152.28
-140.54
-130.58
-115.55
-92.47
-62.10
-26.76
11.70
52.34
93.93
133.38
165.90
186.75
193.87
189.40
178.90
168.74
163.63
165.54
173.94
187.13
203.30
220.90
238.46
254.41
266.89
274.52
277.04
275.46
271.72
268.18
267.28
271.03
280.27
293.10
305.59
313.21
312.64
302.70
284.56
261.12
235.89
211.72
188.24
163.72
137.18
109.73
83.59
60.79
42.51
29.05
20.11
12.31
2.03
-12.10
-28.33
-43.80
-56.73
-66.86
-75.05
-82.85
-95.84
-120.21
-159.39
-212.65
-277.16
-350.20
-429.61
-513.48
-577.04
-597.45
-570.26
-512.97
-448.01
-388.98
-340.36
-302.03
-272.20
-248.15
-229.52
-214.83
-199.45
-176.82
-142.93
-99.57
-53.32
-11.87
19.78
38.17
43.28
38.60
29.56
20.82
14.72
12.03
13.21
18.83
27.31
35.66
42.20
46.60
49.89
53.34
58.05
64.64
72.92
81.06
86.61
88.08
85.54
81.01
76.88
75.00
76.03
79.28
82.93
85.02
84.69
82.40
80.53
81.80
88.66
102.94
125.31
154.74
188.14
221.22
244.15
250.41
238.01
210.94
178.19
150.43
135.66
136.09
147.65
162.15
171.84
171.65
160.37
139.93
113.58
84.35
54.41
24.89
-3.77
-31.15
-57.30
-82.90
-109.54
-139.68
-176.39
-222.23
-277.40
-338.05
-395.86
-440.74
-465.21
-468.20
-455.98
-439.27
-427.79
-425.45
-428.88
-430.07
-421.63
-401.10
-371.70
-339.82
-311.00
-287.25
-266.86
-246.57
-223.77
-197.98
-170.56
-143.76
-119.62
-99.43
-83.54
-71.35
-61.67
-52.82
-43.15
-31.55
-17.91
-3.18
10.92
22.91
32.34
40.25
49.29
62.65
83.16
112.48
150.82
196.67
246.39
294.00
332.16
354.34
357.78
345.84
327.84
316.07
320.67
344.89
383.08
422.63
449.34
453.34
433.07
395.37
351.96
314.19
288.58
274.74
266.53
255.34
233.97
199.74
155.25
106.82
61.92
26.38
2.67
-10.20
-15.50
-17.19
-18.85
-23.16
-31.98
-46.53
-66.81
-90.81
-114.14
-130.86
-136.12
-129.30
-115.85
-105.95
-110.22
-134.15
-174.79
-221.32
-259.72
-278.83
-274.49
-250.00
-212.98
-170.70
-126.75
-80.68
-30.50
23.69
77.45
122.56
149.86
152.99
131.12
89.09
35.38
-21.07
-73.35
-117.69
-152.43
-176.29
-187.34
-182.78
-160.12
-118.63
-60.28
9.71
82.55
146.70
189.79
202.47
182.60
137.62
83.17
38.41
19.24
32.72
75.26
134.82
195.75
244.08
271.45
276.62
264.57
243.91
223.35
208.47
200.08
194.64
186.66
171.51
147.70
117.20
83.79
51.22
21.66
-4.58
-28.35
-50.76
-72.31
-92.55
-110.23
-123.75
-131.89
-134.55
-133.17
-129.78
-125.71
-120.83
-114.08
-105.25
-97.26
-96.89
-112.90
-151.94
-214.28
-291.82
-369.96
-432.89
-469.70
-478.15
-464.51
-439.53
-413.04
-389.96
-369.65
-348.12
-321.57
-288.80
-251.66
-213.51
-176.94
-142.37
-108.07
-71.47
-30.67
14.25
60.94
105.76
145.10
176.94
201.89
223.27
245.83
273.99
309.83
351.77
394.65
430.93
452.56
452.71
427.58
377.63
308.40
230.40
157.69
104.88
82.86
95.07
135.55
190.46
242.57
276.84
284.83
266.12
226.55
174.89
119.59
66.59
19.05
-22.28
-58.48
-92.06
-126.29
-164.19
-207.20
-253.65
-298.48
-334.33
-353.99
-353.08
-331.54
-293.47
-245.34
-193.65
-143.40
-97.70
-58.37
-26.28
-1.40
17.44
31.89
42.62
48.07
44.57
28.42
-0.80
-38.03
-73.24
-94.99
-94.96
-71.27
-28.77
23.24
74.53
116.96
145.89
160.17
161.72
154.60
143.76
133.60
126.63
123.03
121.40
119.89
117.07
111.99
103.96
92.71
79.41
67.53
62.60
70.15
92.66
127.39
166.86
201.43
222.97
227.41
214.85
188.18
151.73
111.06
73.61
48.41
43.61
62.71
101.53
148.44
188.63
210.19
208.85
188.61
158.38
126.88
99.08
75.74
55.46
37.49
22.90
13.78
11.45
14.92
20.90
25.09
24.08
16.58
3.75
-11.73
-27.15
-41.02
-53.80
-67.68
-85.81
-111.37
-146.87
-193.71
-251.55
-317.73
-386.64
-450.30
-499.96
-528.82
-534.49
-519.88
-492.07
-459.40
-428.55
-402.74
-381.97
-364.60
-349.13
-335.00
-322.35
-310.97
-299.66
-286.19
-268.10
-243.61
-212.21
-174.93
-133.88
-91.53
-49.89
-10.12
27.74
64.43
100.93
138.16
176.77
217.36
260.52
306.40
353.84
399.76
439.35
467.28
479.74
476.20
459.95
437.00
413.73
394.50
380.41
369.64
359.12
346.30
330.32
311.97
292.79
274.11
256.38
239.22
221.90
203.84
185.00
165.79
146.78
128.53
111.48
95.97
82.32
70.78
61.38
53.88
47.67
41.98
36.01
28.90
19.87
8.02
-7.64
-28.20
-54.81
-88.92
-132.48
-187.49
-254.86
-332.64
-414.99
-492.54
-554.85
-593.90
-607.14
-598.30
-575.62
-548.27
-522.88
-501.93
-484.25
-467.06
-448.11
-426.64
-403.23
-378.84
-354.01
-328.53
-301.57
-272.08
-239.09
-202.35
-162.41
-120.76
-79.44
-40.38
-4.59
28.40
60.52
94.47
132.74
176.84
226.76
280.95
336.40
388.96
433.84
466.64
484.49
487.17
477.29
459.25
437.34
413.68
387.25
354.49
311.79
258.63
199.97
145.97
108.70
96.99
111.80
144.60
179.84
200.88
196.50
165.36
116.18
64.05
24.58
8.47
18.61
50.17
93.10
135.75
168.16
184.24
182.43
165.09
136.62
101.82
64.59
27.55
-7.85
-41.10
-72.59
-103.57
-136.15
-172.68
-214.46
-260.07
-304.53
-340.19
-360.01
-361.63
-349.99
-336.36
-333.49
-349.25
-382.27
-422.24
-454.92
-469.03
-461.13
-435.96
-402.69
-369.64
-340.67
-314.92
-289.17
-260.74
-228.93
-194.92
-160.53
-127.15
-95.18
-64.09
-32.87
-0.44
33.81
69.80
106.95
144.54
182.47
221.53
262.66
305.47
347.22
383.10
408.07
419.32
417.37
404.92
384.18
354.60
313.33
258.55
193.44
128.20
77.83
56.51
71.20
118.01
183.27
248.70
297.78
320.55
315.25
287.12
245.32
199.80
158.64
126.40
103.68
87.57
73.06
55.16
31.16
1.74
-28.96
-54.87
-70.61
-73.65
-65.48
-50.75
-35.19
-23.55
-18.29
-19.54
-25.92
-35.65
-46.98
-58.42
-68.73
-77.27
-84.76
-94.02
-109.99
-138.36
-183.10
-243.59
-313.32
-380.86
-433.37
-461.22
-461.55
-438.99
-403.02
-363.71
-327.60
-296.15
-266.94
-236.30
-201.61
-161.90
-117.20
-67.87
-15.16
37.57
84.16
116.96
130.18
123.09
101.56
76.15
57.91
54.15
66.70
93.20
129.87
173.54
221.36
268.63
307.11
325.85
315.36
272.78
204.93
127.21
58.26
13.21
-0.85
14.73
53.19
106.36
167.07
229.18
286.17
330.55
355.13
355.83
333.94
296.31
252.85
212.74
181.22
158.44
140.60
122.10
97.95
65.61
25.88
-17.31
-58.14
-91.07
-113.26
-125.76
-133.06
-140.86
-153.43
-171.91
-194.20
-216.21
-233.05
-240.27
-234.70
-215.62
-185.92
-153.07
-128.35
-123.70
-147.00
-197.92
-266.84
-337.83
-394.55
-426.20
-430.63
-413.49
-384.05
-350.58
-317.45
-285.01
-251.51
-215.47
-176.79
-136.23
-94.55
-51.89
-8.76
32.78
68.80
95.06
109.48
113.86
113.72
115.62
123.95
138.92
157.25
174.79
189.25
201.13
212.79
226.48
242.66
259.66
274.19
282.00
278.22
257.84
217.29
156.69
81.75
3.72
-63.34
-107.03
-120.46
-103.74
-62.92
-7.51
51.76
104.36
140.94
154.83
143.96
112.27
69.24
26.93
-4.30
-19.60
-20.81
-14.49
-8.12
-6.72
-11.20
-19.12
-26.57
-30.11
-27.86
-19.46
-5.52
13.02
35.04
58.91
82.14
101.13
112.02
112.23
102.15
85.72
69.10
57.34
51.12
45.35
31.39
2.24
-42.38
-93.71
-136.45
-154.88
-139.73
-92.29
-24.22
46.79
103.37
134.29
137.63
120.41
94.98
73.81
64.52
67.51
76.83
84.02
82.66
71.29
53.36
34.60
20.01
12.17
11.52
17.60
29.99
48.25
71.24
96.77
122.15
145.17
164.66
180.25
191.37
196.48
193.40
180.92
160.47
136.68
115.94
103.49
100.83
104.76
109.16
108.00
98.25
80.85
59.52
38.43
20.25
5.61
-6.14
-15.74
-23.41
-29.16
-33.41
-37.44
-43.06
-51.82
-64.55
-81.09
-100.69
-122.56
-146.19
-171.64
-199.93
-233.00
-273.35
-322.66
-379.86
-439.78
-493.65
-531.69
-547.06
-539.04
-513.40
-479.80
-447.34
-420.84
-399.76
-380.05
-357.36
-329.70
-297.85
-263.99
-229.70
-194.93
-158.24
-117.89
-72.75
-22.34
32.97
91.63
150.24
203.35
244.62
269.16
275.71
267.68
252.02
236.73
228.32
230.45
244.04
268.00
299.63
334.50
366.49
388.90
396.68
388.91
369.76
347.08
328.90
319.91
319.83
324.21
327.17
324.16
313.52
296.31
274.83
251.17
226.55
201.67
177.22
154.30
133.94
116.33
100.17
82.82
61.29
33.68
0.24
-36.84
-74.15
-108.65
-138.96
-165.82
-191.93
-221.18
-257.68
-304.42
-361.90
-426.94
-492.55
-549.35
-588.30
-603.88
-596.07
-570.03
-533.63
-494.12
-455.68
-418.99
-382.78
-345.98
-309.14
-274.21
-243.21
-216.82
-193.85
-172.01
-149.16
-124.41
-98.31
-72.36
-47.82
-24.94
-2.70
20.77
47.46
79.11
117.28
163.51
219.03
283.55
353.78
422.70
480.57
517.73
528.09
511.59
474.16
425.38
374.81
328.82
289.31
254.43
220.42
183.25
139.80
88.39
29.38
-34.14
-95.69
-146.10
-176.02
-179.34
-156.81
-117.50
-77.06
-52.73
-56.82
-91.68
-148.52
-210.70
-260.31
-284.70
-280.18
-251.40
-207.69
-158.21
-108.95
-62.05
-17.27
26.50
70.46
116.10
165.31
219.47
277.87
336.17
386.62
420.35
430.89
416.80
382.43
336.08
286.62
240.48
200.15
164.67
131.38
97.64
61.68
22.66
-19.23
-62.59
-104.48
-140.96
-168.68
-187.12
-200.37
-216.52
-244.37
-288.67
-346.69
-408.11
-458.87
-487.05
-487.81
-464.67
-426.91
-384.64
-344.50
-308.06
-273.02
-236.15
-195.55
-151.32
-104.48
-55.23
-2.42
55.20
116.40
175.65
223.40
249.16
246.40
216.40
168.95
118.84
79.81
59.71
59.02
73.38
97.72
128.72
163.82
198.43
223.92
229.73
208.74
162.74
104.22
52.59
26.61
36.60
80.71
146.48
216.48
274.73
310.93
321.71
309.37
279.74
239.81
195.85
152.16
110.76
72.10
36.24
4.07
-22.42
-41.05
-50.71
-52.36
-49.08
-44.92
-43.27
-45.70
-51.60
-59.19
-66.93
-74.38
-81.99
-89.97
-97.42
-101.98
-101.09
-93.84
-82.41
-72.18
-70.62
-84.92
-119.54
-174.36
-243.98
-318.61
-386.29
-436.25
-462.10
-463.67
-446.68
-420.04
-392.13
-367.67
-346.79
-326.35
-302.67
-273.92
-240.89
-206.14
-172.21
-140.19
-109.28
-77.41
-42.51
-3.54
38.75
82.38
124.92
164.43
200.00
231.57
259.43
284.02
305.96
326.12
345.36
363.34
377.29
381.39
368.11
331.71
272.03
196.80
120.65
60.93
31.45
37.57
74.07
127.19
179.64
216.16
227.48
211.40
171.79
116.15
53.29
-8.50
-62.61
-104.95
-134.53
-153.40
-165.71
-175.86
-186.66
-197.95
-206.69
-208.29
-198.68
-176.27
-142.55
-101.79
-59.68
-21.75
8.19
29.00
42.49
52.77
64.66
82.05
106.23
135.04
162.99
182.32
185.05
165.60
123.45
64.55
0.84
-52.58
-81.90
-79.15
-44.92
11.67
75.62
130.73
164.33
170.75
152.35
117.95
79.29
46.82
26.26
17.24
14.60
11.66
3.81
-9.52
-25.22
-38.76
-46.56
-47.25
-41.13
-28.87
-10.45
14.44
45.14
78.76
110.22
133.95
146.39
148.08
143.51
138.88
138.64
143.03
148.21
149.11
143.31
133.41
126.22
129.08
145.28
171.63
199.47
218.73
222.60
210.11
185.71
156.30
127.88
103.68
84.10
67.95
53.72
40.20
26.50
11.87
-4.11
-21.31
-39.10
-56.63
-73.62
-90.84
-110.21
-134.37
-166.12
-207.64
-259.37
-319.04
-380.88
-435.71
-472.98
-484.44
-468.35
-431.70
-388.45
-354.06
-338.74
-343.03
-358.31
-371.93
-373.82
-360.78
-336.33
-306.64
-275.83
-243.60
-206.36
-160.49
-105.08
-42.68
22.09
84.55
141.11
189.23
227.16
254.09
270.73
279.17
282.35
282.46
279.83
273.06
260.62
242.79
222.54
204.60
193.14
189.62
192.27
197.61
202.97
208.40
216.57
230.96
253.13
280.94
308.80
329.68
338.05
332.01
313.74
288.17
260.59
234.69
211.71
191.06
171.60
152.75
134.85
118.59
104.26
91.31
78.57
65.02
50.55
36.20
23.69
14.44
8.68
5.06
1.18
-5.42
-16.13
-30.77
-48.01
-66.25
-84.79
-104.43
-127.31
-156.01
-193.05
-240.21
-298.22
-366.07
-440.00
-512.91
-575.07
-616.94
-632.96
-624.39
-599.17
-568.57
-542.16
-523.87
-511.46
-499.26
-482.37
-459.63
-433.60
-408.13
-385.46
-364.86
-343.53
-318.78
-289.82
-258.10
-226.33
-196.79
-170.16
-145.56
-121.32
-95.79
-68.28
-39.02
-8.73
22.10
53.48
85.92
119.93
155.54
192.19
229.32
267.25
307.59
352.75
404.14
460.44
516.51
564.34
595.24
602.71
584.25
541.37
478.89
404.15
326.62
257.25
206.43
180.42
177.77
188.62
198.17
193.22
168.47
128.97
87.22
57.03
47.47
60.01
89.50
127.49
165.37
195.95
213.87
215.71
200.38
169.45
126.73
77.21
25.86
-22.96
-65.67
-99.51
-123.35
-138.56
-149.06
-159.69
-173.77
-191.58
-211.06
-230.52
-251.24
-277.73
-314.79
-363.30
-417.51
-466.17
-497.31
-503.78
-486.45
-453.25
-414.83
-379.63
-351.00
-327.45
-305.12
-280.56
-252.41
-221.46
-189.61
-158.70
-129.52
-101.72
-73.83
-43.84
-10.08
28.31
71.28
118.11
167.59
217.86
265.91
307.50
338.09
355.06
359.73
357.72
356.71
362.18
373.44
382.46
377.07
347.22
291.13
217.84
144.51
90.04
67.91
81.79
125.31
185.37
247.09
297.95
330.05
340.27
329.11
299.55
256.18
204.64
151.20
101.99
61.97
34.07
18.93
15.50
21.72
35.51
54.99
78.19
102.57
124.82
141.49
149.85
148.52
137.50
117.76
90.71
58.07
22.21
-13.98
-47.25
-75.03
-96.56
-113.56
-130.10
-151.73
-184.06
-231.05
-293.28
-366.84
-443.40
-512.10
-562.81
-589.51
-592.31
-576.93
-551.63
-523.35
-495.03
-465.48
-431.65
-391.70
-346.94
-301.44
-259.84
-224.63
-194.69
-165.96
-133.57
-94.46
-49.02
-1.28
43.08
79.17
105.23
123.47
139.02
157.85
184.53
220.87
265.93
316.58
367.61
412.00
441.56
449.06
431.54
393.26
346.26
306.95
289.83
301.07
335.66
379.55
416.12
433.07
426.47
400.23
362.12
319.28
275.78
232.99
191.43
152.33
117.79
89.29
66.24
45.53
22.27
-8.10
-47.86
-95.87
-147.62
-196.16
-234.42
-257.25
-263.13
-254.59
-237.30
-217.52
-199.65
-184.70
-170.88
-156.14
-141.21
-131.33
-134.95
-159.77
-207.94
-273.39
-342.92
-400.89
-435.34
-442.26
-426.21
-396.85
-364.00
-333.53
-306.22
-279.44
-250.03
-216.57
-179.75
-141.13
-101.23
-58.67
-11.18
42.18
98.89
152.74
195.33
219.69
223.40
209.98
187.62
166.11
153.54
154.11
168.13
193.15
225.33
260.25
292.83
316.99
325.86
313.27
276.08
216.62
143.88
72.56
19.32
-2.72
11.09
54.87
114.01
170.60
209.52
222.73
209.91
176.05
128.15
73.16
17.68
-31.43
-67.46
-85.80
-86.36
-74.48
-59.22
-49.63
-50.72
-61.82
-77.78
-92.15
-100.25
-100.41
-93.38
-80.70
-63.54
-42.74
-19.74
2.76
20.70
29.10
23.05
-1.22
-44.87
-104.96
-173.78
-239.91
-291.18
-318.52
-319.10
-296.91
-260.54
-219.16
-179.02
-142.00
-106.55
-70.19
-31.59
9.03
51.08
94.93
142.05
193.59
248.15
300.46
342.17
364.55
362.53
337.40
297.07
253.48
218.27
198.48
194.76
201.77
211.05
214.39
206.24
184.35
149.11
102.56
48.28
-7.83
-57.02
-88.79
-94.40
-71.33
-26.30
25.39
64.95
77.65
59.32
18.44
-27.79
-61.20
-70.76
-56.89
-30.26
-6.06
3.23
-7.26
-34.04
-68.58
-102.23
-130.24
-152.50
-171.53
-189.35
-205.25
-216.20
-219.14
-213.58
-202.79
-192.55
-187.97
-190.34
-195.86
-197.25
-187.76
-165.24
-133.98
-103.09
-82.49
-78.19
-89.89
-111.94
-136.91
-159.35
-177.58
-192.53
-205.04
-213.93
-215.94
-207.65
-187.68
-157.82
-122.20
-85.44
-50.80
-19.27
9.48
36.21
61.19
84.44
106.31
127.98
151.38
178.60
211.60
250.57
293.16
334.47
368.16
388.36
391.46
377.22
348.60
311.57
271.35
230.48
188.77
145.24
100.41
56.90
18.59
-11.28
-29.30
-34.78
-29.38
-16.29
1.64
23.28
48.80
79.10
115.19
159.64
212.71
270.70
325.16
366.27
387.32
387.44
371.57
329.24
259.43
171.21
80.61
0.72
-62.98
-110.22
-142.76
-163.18
-174.29
-181.31
-189.52
-202.20
-220.83
-243.24
-262.77
-271.72
-265.48
-236.50
-185.48
-126.00
-65.92
-7.79
46.11
94.11
133.19
158.49
165.11
151.01
119.36
78.40
36.52
-0.17
-28.51
-48.37
-61.98
-72.29
-82.28
-93.96
-108.13
-126.46
-150.52
-179.50
-208.68
-229.18
-229.68
-201.25
-141.29
-55.96
39.90
128.14
194.54
233.67
249.41
251.37
249.04
248.17
250.04
252.91
254.94
256.18
258.25
262.75
269.84
277.69
283.35
284.28
279.16
268.11
252.44
233.69
212.83
189.90
163.94
133.41
96.56
52.04
-0.44
-59.83
-124.05
-190.46
-256.32
-318.85
-375.22
-422.62
-458.95
-483.86
-499.75
-511.56
-525.24
-544.69
-569.20
-592.75
-606.03
-600.03
-569.41
-514.41
-440.60
-357.33
-275.50
-205.79
-156.62
-133.24
-136.85
-164.17
-208.49
-261.79
-317.60
-372.46
-425.18
-474.13
-515.79
-544.62
-554.41
-540.69
-502.90
-444.74
-372.41
-292.06
-208.04
-124.60
-47.39
16.64
61.85
86.87
96.24
99.84
110.22
139.11
191.95
266.15
352.68
439.39
514.55
569.13
596.57
590.80
555.49
504.45
453.64
411.72
378.73
350.47
323.34
296.70
272.92
255.76
245.38
238.41
229.81
215.71
195.35
170.59
144.87
121.65
103.83
90.10
76.66
58.81
33.13
-1.67
-45.51
-97.86
-158.29
-213.99
-254.97
-273.38
-265.75
-233.93
-184.71
-128.30
-75.14
-32.33
-1.40
19.01
32.71
43.38
52.62
61.38
69.50
76.59
82.28
86.46
87.59
84.57
77.21
66.48
54.28
42.61
32.94
26.09
22.54
21.31
21.21
21.14
20.34
18.48
15.50
11.75
7.89
4.82
2.87
2.14
2.37
3.04
3.67
3.91
3.88
4.27
6.14
10.19
16.64
25.00
34.24
43.02
49.92
53.96
54.98
53.81
51.84
50.45
50.49
51.97
53.96
54.87
53.25
48.57
41.23
31.88
20.95
8.84
-3.33
-13.39
-19.19
-18.78
-11.31
2.24
18.79
34.38
46.15
54.71
62.65
71.62
81.99
92.35
101.09
107.36
111.46
114.39
116.28
115.96
108.62
90.66
61.57
25.89
-10.88
-44.73
-74.22
-100.04
-124.53
-154.86
-197.16
-253.71
-321.65
-394.65
-464.44
-522.29
-560.79
-552.31
-487.15
-379.65
-260.85
-158.06
-82.64
-31.67
3.88
32.55
59.10
79.29
91.43
97.40
102.26
111.13
125.99
145.16
165.26
183.23
195.25
198.78
195.54
189.46
183.55
178.56
173.70
168.60
164.24
161.04
160.42
164.18
173.43
187.32
202.68
215.07
220.29
215.74
200.17
175.15
144.18
111.25
78.79
46.85
13.58
-23.00
-63.75
-107.89
-152.55
-193.71
-227.98
-254.28
-274.67
-292.92
-312.20
-333.34
-354.80
-374.58
-392.43
-410.15
-429.59
-449.88
-466.23
-472.00
-462.70
-439.33
-408.53
-379.18
-357.58
-344.46
-335.68
-325.82
-312.10
-295.79
-280.59
-269.39
-262.18
-255.96
-246.46
-230.32
-206.25
-174.77
-137.51
-96.22
-52.24
-6.30
41.46
91.12
142.84
196.53
251.57
306.78
360.53
411.14
457.47
499.13
536.66
571.06
603.35
634.13
663.70
692.43
721.08
750.23
779.26
805.47
824.52
832.38
827.67
812.63
791.85
769.02
743.96
711.89
665.79
600.68
517.07
421.48
323.78
233.16
154.89
89.83
36.14
-8.20
-44.12
-71.59
-90.75
-102.82
-109.91
-114.15
-116.56
-116.53
-112.35
-102.56
-87.15
-68.21
-49.40
-34.67
-26.77
-26.37
-32.09
-41.36
-51.53
-60.79
-68.48
-74.89
-80.86
-87.44
-95.53
-105.76
-118.33
-132.92
-148.69
-164.48
-179.21
-192.05
-202.53
-210.48
-215.67
-217.68
-215.82
-209.42
-198.21
-182.86
-165.18
-148.03
-134.63
-127.99
-130.11
-141.75
-162.59
-191.63
-227.65
-269.49
-316.15
-366.83
-421.11
-479.05
-540.66
-604.89
-668.24
-724.30
-764.47
-780.49
-767.10
-724.08
-656.34
-572.25
-481.06
-390.85
-307.70
-235.78
-177.91
-135.74
-109.21
-95.82
-90.49
-86.50
-77.57
-60.06
-34.40
-4.79
