1660936391.00
64.000000
-0.00
-0.00
-0.00
-0.00
-0.00
-0.00
-0.00
-0.00
-0.00
-0.00
0.00
0.01
0.01
-0.00
-0.03
-0.05
-0.05
0.00
0.13
0.36
0.66
1.01
1.37
1.72
2.06
2.40
2.79
3.25
3.81
4.44
5.10
5.73
6.32
6.89
7.50
8.24
9.14
10.29
11.58
12.87
14.03
15.02
15.92
16.92
18.26
20.09
22.63
25.63
28.80
31.83
34.59
37.18
39.98
43.47
47.96
53.80
60.56
67.66
74.51
80.80
86.73
92.92
100.18
109.04
119.92
132.12
144.67
156.62
167.50
177.62
187.95
200.05
212.63
227.72
245.48
265.63
286.77
306.17
319.96
324.10
315.65
293.76
260.41
218.76
172.44
124.34
76.21
28.89
-16.97
-60.60
-101.17
-138.04
-171.70
-203.45
-235.08
-268.15
-303.23
-339.26
-373.31
-401.27
-418.84
-423.22
-414.20
-394.32
-367.88
-339.24
-311.39
-285.40
-260.93
-237.15
-213.92
-191.85
-171.88
-154.54
-139.53
-125.83
-112.31
-98.33
-83.98
-70.05
-57.51
-46.97
-38.42
-31.30
-24.81
-18.33
-11.65
-5.00
1.19
6.46
10.60
13.66
15.88
17.63
19.23
20.88
22.64
24.37
25.84
26.80
27.15
26.99
26.55
26.11
25.85
25.77
25.72
25.52
25.05
24.29
23.33
22.32
21.35
20.50
19.81
19.29
18.94
18.68
18.42
18.06
17.52
16.82
16.06
15.35
14.76
14.28
13.87
13.44
13.00
12.58
12.27
12.13
12.14
12.23
12.30
12.29
12.15
11.89
11.49
10.97
10.35
9.70
9.11
8.70
8.51
8.50
8.56
8.60
8.55
8.41
8.21
8.00
7.74
7.39
6.92
6.35
5.76
5.28
4.98
4.82
4.71
4.51
4.10
3.47
2.66
1.77
0.91
0.19
-0.33
-0.62
-0.71
-0.68
-0.66
-0.82
-1.26
-2.01
-2.98
-4.04
-5.03
-5.88
-6.54
-7.06
-7.44
-7.73
-7.95
-8.14
-8.33
-8.57
-8.84
-9.08
-9.22
-9.21
-9.06
-8.80
-8.50
-8.22
-7.95
-7.66
-7.32
-6.90
-6.46
-6.03
-5.62
-5.19
-4.68
-4.05
-3.30
-2.51
-1.79
-1.23
-0.81
-0.46
-0.05
0.49
1.15
1.85
2.44
2.84
3.06
3.17
3.26
3.40
3.58
3.74
3.80
3.76
3.63
3.48
3.37
3.32
3.29
3.22
3.10
2.97
2.92
3.05
3.37
3.82
4.25
4.50
4.51
4.32
4.06
3.89
3.89
4.06
4.32
4.59
4.82
5.01
5.18
5.34
5.44
5.42
5.24
4.90
4.51
4.18
4.01
4.00
4.06
4.10
4.03
3.86
3.64
3.45
3.32
3.24
3.16
3.03
2.83
2.59
2.35
2.16
2.03
1.95
1.88
1.78
1.63
1.47
1.32
1.23
1.22
1.27
1.36
1.44
1.53
1.64
1.81
2.01
2.20
2.29
2.23
1.99
1.66
1.33
1.13
1.12
1.27
1.46
1.55
1.45
1.19
0.87
0.64
0.58
0.68
0.88
1.05
1.15
1.21
1.30
1.47
1.70
1.90
1.97
1.83
1.51
1.10
0.73
0.51
0.52
0.73
1.05
1.38
1.62
1.75
1.76
1.72
1.63
1.50
1.34
1.15
0.99
0.94
1.01
1.15
1.26
1.23
1.05
0.77
0.55
0.48
0.62
0.89
1.17
1.34
1.31
1.09
0.74
0.38
0.17
0.23
0.58
1.12
1.61
1.85
1.74
1.35
0.87
0.50
0.29
0.18
0.02
-0.24
-0.57
-0.79
-0.76
-0.45
0.03
0.49
0.80
0.95
1.02
1.13
1.32
1.54
1.67
1.64
1.46
1.20
0.96
0.80
0.71
0.61
0.47
0.26
0.05
-0.07
-0.03
0.17
0.44
0.65
0.71
0.59
0.32
0.03
-0.19
-0.29
-0.27
-0.18
-0.05
0.10
0.23
0.34
0.41
0.40
0.32
0.19
0.06
-0.06
-0.15
-0.19
-0.21
-0.20
-0.22
-0.29
-0.44
-0.62
-0.73
-0.63
-0.29
0.26
0.81
1.18
1.23
0.96
0.51
0.07
-0.22
-0.32
-0.28
-0.16
0.01
0.23
0.54
0.95
1.40
1.77
1.98
2.01
1.92
1.80
1.73
1.71
1.70
1.65
1.52
1.33
1.12
0.92
0.73
0.55
0.37
0.22
0.14
0.12
0.10
-0.01
-0.28
-0.67
-1.09
-1.39
-1.48
-1.37
-1.13
-0.91
-0.78
-0.74
-0.73
-0.63
-0.38
-0.00
0.44
0.84
1.12
1.23
1.15
0.93
0.62
0.31
0.09
0.01
0.07
0.21
0.35
0.42
0.43
0.43
0.50
0.67
0.89
1.07
1.10
0.95
0.68
0.42
0.24
0.16
0.11
-0.00
-0.19
-0.38
-0.46
-0.37
-0.15
0.09
0.19
0.08
-0.22
-0.57
-0.82
-0.91
-0.84
-0.67
-0.48
-0.30
-0.12
0.06
0.25
0.43
0.55
0.61
0.61
0.58
0.56
0.58
0.66
0.81
0.96
1.07
1.01
0.75
0.27
-0.31
-0.83
-1.15
-1.19
-0.99
-0.71
-0.52
-0.53
-0.73
-1.02
-1.25
-1.34
-1.30
-1.24
-1.34
-1.70
-2.29
-2.99
-3.59
-3.90
-3.84
-3.48
-3.01
-2.68
-2.71
-3.16
-3.94
-4.83
-5.55
-5.89
-5.83
-5.53
-5.27
-5.39
-6.17
-7.71
-9.89
-12.34
-14.41
-15.32
-14.32
-11.01
-5.65
0.85
7.08
11.65
13.67
13.10
10.63
7.35
4.23
1.77
0.03
-1.22
-2.20
-2.96
-3.42
-3.53
-3.42
-3.42
-3.95
-5.33
-7.59
-10.45
-13.40
-15.91
-17.70
-18.89
-20.01
-21.82
-24.92
-29.47
-35.07
-40.90
-46.10
-50.21
-53.38
-56.39
-60.28
-65.83
-73.23
-81.90
-90.83
-98.97
-105.78
-111.39
-116.57
-122.31
-129.49
-138.63
-149.82
-162.61
-175.86
-187.52
-194.72
-194.31
-183.81
-162.32
-130.91
-92.14
-48.80
-2.68
45.97
97.81
152.84
209.13
262.54
307.92
341.16
360.99
369.47
371.02
370.51
371.44
375.04
380.46
385.64
388.24
386.15
377.68
361.59
337.30
305.07
266.07
222.10
174.93
125.80
75.14
23.03
-30.02
-82.20
-130.36
-170.60
-199.64
-216.01
-220.56
-216.11
-206.23
-194.02
-181.36
-169.00
-157.14
-146.00
-136.08
-127.86
-121.37
-116.00
-110.69
-104.44
-96.80
-88.06
-79.12
-71.07
-64.68
-60.07
-56.71
-53.66
-50.00
-45.29
-39.71
-33.92
-28.74
-24.76
-22.06
-20.26
-18.72
-16.89
-14.53
-11.77
-9.00
-6.61
-4.81
-3.58
-2.70
-1.91
-1.07
-0.13
0.82
1.65
2.27
2.64
2.74
2.58
2.21
1.66
1.01
0.38
-0.13
-0.43
-0.48
-0.31
-0.01
0.30
0.46
0.39
0.05
-0.48
-1.05
-1.47
-1.61
-1.43
-1.02
-0.55
-0.16
0.03
-0.00
-0.20
-0.42
-0.50
-0.30
0.24
1.04
1.94
2.73
3.22
3.34
3.10
2.59
1.88
1.06
0.19
-0.61
-1.21
-1.49
-1.45
-1.20
-0.93
-0.81
-0.90
-1.16
-1.50
-1.83
-2.10
-2.30
-2.42
-2.44
-2.30
-1.98
-1.51
-1.00
-0.54
-0.18
0.08
0.27
0.41
0.52
0.59
0.69
0.91
1.39
2.17
3.17
4.16
4.89
5.15
4.91
4.31
3.57
2.90
2.37
1.92
1.46
0.87
0.17
-0.55
-1.15
-1.51
-1.62
-1.57
-1.51
-1.58
-1.84
-2.21
-2.54
-2.68
-2.61
-2.40
-2.20
-2.08
-2.01
-1.86
-1.48
-0.80
0.09
1.03
1.81
2.34
2.59
2.64
2.58
2.43
2.18
1.80
1.29
0.72
0.18
-0.27
-0.59
-0.81
-1.01
-1.21
-1.48
-1.84
-2.29
-2.84
-3.41
-3.89
-4.17
-4.14
-3.80
-3.25
-2.65
-2.16
-1.84
-1.68
-1.58
-1.40
-0.99
-0.27
0.86
2.38
4.20
6.07
7.64
8.56
8.62
7.86
6.52
5.03
3.75
2.92
2.57
2.54
2.59
2.52
2.21
1.61
0.76
-0.30
-1.48
-2.65
-3.68
-4.41
-4.75
-4.69
-4.29
-3.74
-3.20
-2.83
-2.62
-2.51
-2.31
-1.87
-1.14
-0.20
0.75
1.51
1.95
2.07
1.94
1.67
1.32
0.93
0.55
0.23
0.05
0.05
0.20
0.38
0.42
0.19
-0.33
-1.05
-1.82
-2.54
-3.15
-3.69
-4.18
-4.61
-4.87
-4.87
-4.54
-3.97
-3.28
-2.62
-2.05
-1.53
-0.91
-0.05
1.15
2.68
4.42
6.14
7.60
8.55
8.86
8.54
7.78
6.80
5.84
4.97
4.15
3.28
2.28
1.19
0.12
-0.81
-1.54
-2.07
-2.48
-2.86
-3.25
-3.63
-3.96
-4.16
-4.13
-3.85
-3.33
-2.70
-2.10
-1.63
-1.29
-1.02
-0.68
-0.21
0.35
0.89
1.32
1.61
1.84
2.08
2.36
2.60
2.71
2.64
2.46
2.29
2.17
2.03
1.73
1.14
0.29
-0.64
-1.44
-1.96
-2.22
-2.36
-2.53
-2.80
-3.14
-3.39
-3.44
-3.22
-2.76
-2.15
-1.50
-0.91
-0.44
-0.09
0.20
0.50
0.83
1.13
1.33
1.36
1.28
1.20
1.26
1.47
1.75
1.86
1.66
1.10
0.26
-0.65
-1.47
-2.12
-2.59
-2.92
-3.11
-3.11
-2.93
-2.58
-2.16
-1.81
-1.63
-1.59
-1.61
-1.59
-1.49
-1.40
-1.50
-1.93
-2.71
-3.66
-4.53
-5.08
-5.27
-5.28
-5.43
-6.02
-7.17
-8.79
-10.54
-12.07
-13.18
-13.89
-14.47
-15.35
-16.86
-19.09
-21.78
-24.40
-26.36
-27.26
-27.08
-26.23
-25.44
-25.39
-26.45
-28.43
-30.61
-32.08
-32.08
-30.43
-27.65
-24.79
-23.06
-23.18
-24.52
-24.74
-20.22
-7.16
16.85
51.66
94.19
138.91
178.97
207.58
219.27
211.14
183.70
141.21
91.00
41.72
0.98
-26.76
-41.06
-44.75
-42.11
-36.96
-31.71
-27.52
-24.95
-24.43
-26.06
-29.25
-32.62
-34.38
-33.23
-29.21
-23.80
-19.25
-17.52
-19.35
-23.89
-29.17
-33.13
-34.53
-33.42
-31.01
-28.93
-28.41
-30.03
-33.52
-37.75
-40.60
-39.03
-29.84
-11.19
15.65
45.55
70.64
83.30
79.53
60.93
34.05
7.25
-13.03
-24.57
-29.24
-30.75
-31.94
-33.30
-33.22
-29.69
-21.93
-11.16
0.02
8.78
13.35
13.81
11.68
9.13
7.88
8.41
9.94
11.04
10.57
8.38
5.42
3.14
2.71
4.30
7.03
9.43
10.19
8.75
5.57
1.81
-1.28
-2.88
-2.90
-1.92
-0.77
-0.14
-0.33
-1.16
-2.17
-2.87
-2.94
-2.38
-1.42
-0.43
0.24
0.38
0.01
-0.68
-1.38
-1.87
-2.06
-2.00
-1.83
-1.71
-1.70
-1.78
-1.88
-1.95
-1.97
-1.94
-1.89
-1.82
-1.72
-1.55
-1.29
-0.94
-0.53
-0.10
0.28
0.54
0.64
0.55
0.33
0.03
-0.27
-0.50
-0.66
-0.77
-0.88
-1.02
-1.19
-1.35
-1.49
-1.60
-1.73
-1.91
-2.14
-2.38
-2.52
-2.49
-2.24
-1.84
-1.43
-1.14
-1.06
-1.20
-1.43
-1.62
-1.65
-1.48
-1.16
-0.78
-0.45
-0.21
-0.08
-0.00
0.05
0.08
0.08
0.06
-0.00
-0.09
-0.20
-0.36
-0.57
-0.82
-1.01
-1.08
-0.97
-0.71
-0.41
-0.19
-0.13
-0.25
-0.47
-0.70
-0.87
-0.98
-1.05
-1.13
-1.26
-1.46
-1.73
-2.08
-2.49
-2.88
-3.16
-3.21
-3.01
-2.64
-2.29
-2.18
-2.42
-2.99
-3.75
-4.49
-5.11
-5.64
-6.23
-7.04
-8.12
-9.33
-10.45
-11.23
-11.58
-11.63
-11.74
-12.31
-13.68
-15.92
-18.80
-21.82
-24.43
-26.28
-27.35
-28.04
-28.94
-30.58
-33.14
-36.33
-39.57
-42.28
-44.18
-45.47
-46.77
-48.87
-52.37
-57.45
-63.85
-70.92
-77.70
-83.09
-86.01
-85.68
-81.98
-75.72
-68.63
-62.89
-60.01
-59.77
-59.73
-56.00
-45.00
-25.33
1.09
29.73
55.41
74.53
86.43
93.13
97.77
102.95
109.62
117.29
124.91
131.83
138.19
144.68
151.89
159.90
168.03
174.83
178.18
175.53
164.27
142.06
107.42
60.32
2.64
-61.76
-127.28
-187.47
-236.22
-269.13
-284.56
-284.02
-271.75
-253.39
-234.16
-217.21
-202.65
-187.78
-168.31
-140.19
-101.50
-53.32
0.46
54.37
103.07
142.78
171.99
191.31
202.79
209.06
212.48
214.78
216.90
219.18
221.65
224.24
226.88
229.46
231.82
233.97
236.30
239.61
244.79
252.01
259.93
265.48
264.55
253.38
230.03
195.05
150.93
100.98
48.12
-5.40
-57.45
-105.34
-145.70
-175.35
-192.60
-198.18
-195.04
-187.11
-177.73
-168.68
-160.11
-151.36
-141.99
-132.26
-122.98
-114.90
-108.21
-102.42
-96.69
-90.34
-83.13
-75.40
-67.85
-61.15
-55.64
-51.21
-47.38
-43.58
-39.41
-34.78
-29.92
-25.17
-20.83
-16.97
-13.49
-10.20
-6.98
-3.84
-0.98
1.34
2.84
3.30
2.64
0.98
-1.42
-4.11
-6.61
-8.46
-9.44
-9.55
-9.01
-8.13
-7.20
-6.37
-5.67
-5.05
-4.48
-3.97
-3.59
-3.43
-3.53
-3.85
-4.26
-4.59
-4.71
-4.58
-4.26
-3.90
-3.65
-3.61
-3.81
-4.16
-4.52
-4.68
-4.52
-3.98
-3.16
-2.33
-1.81
-1.91
-2.71
-3.99
-5.28
-6.12
-6.23
-5.77
-5.27
-5.43
-6.77
-9.31
-12.56
-15.70
-17.95
-18.97
-19.04
-19.03
-19.95
-22.60
-27.04
-32.50
-37.72
-41.42
-42.94
-42.62
-41.74
-41.75
-43.72
-47.86
-53.38
-59.15
-64.23
-67.89
-69.13
-66.63
-59.38
-47.92
-34.93
-24.38
-19.18
-18.70
-17.96
-9.66
11.98
47.52
91.36
134.17
167.36
186.77
193.87
193.61
191.13
189.24
188.02
186.21
182.84
177.55
169.82
158.26
140.42
113.92
78.34
36.33
-6.74
-44.60
-72.40
-88.28
-93.46
-91.17
-84.97
-77.54
-70.35
-64.06
-58.98
-55.28
-52.87
-51.20
-49.43
-46.80
-43.00
-38.41
-33.84
-30.23
-28.16
-27.61
-28.03
-28.65
-28.74
-27.95
-26.30
-24.14
-21.96
-20.16
-18.90
-18.09
-17.42
-16.53
-15.14
-13.20
-10.88
-8.51
-6.47
-5.01
-4.21
-3.97
-4.08
-4.27
-4.32
-4.01
-3.26
-2.10
-0.74
0.54
1.46
1.88
1.82
1.47
1.00
0.52
0.01
-0.64
-1.49
-2.47
-3.44
-4.20
-4.59
-4.62
-4.38
-4.04
-3.72
-3.47
-3.24
-2.95
-2.56
-2.13
-1.78
-1.64
-1.77
-2.12
-2.49
-2.62
-2.30
-1.41
-0.01
1.72
3.57
5.38
7.06
8.56
9.82
10.79
11.40
11.62
11.51
11.20
10.83
10.44
10.00
9.34
8.30
6.83
4.99
3.01
1.18
-0.27
-1.24
-1.79
-2.14
-2.54
-3.15
-4.00
-4.97
-5.85
-6.43
-6.61
-6.42
-5.94
-5.31
-4.66
-4.11
-3.72
-3.51
-3.43
-3.40
-3.31
-3.13
-2.90
-2.71
-2.65
-2.74
-2.87
-2.94
-2.86
-2.69
-2.56
-2.63
-2.91
-3.25
-3.34
-2.90
-1.80
-0.13
1.77
3.54
4.84
5.56
5.75
5.54
5.09
4.48
3.73
2.86
1.91
1.02
0.31
-0.11
-0.23
-0.15
0.00
0.09
0.05
-0.11
-0.30
-0.43
-0.45
-0.39
-0.36
-0.48
-0.80
-1.26
-1.75
-2.20
-2.58
-2.97
-3.44
-3.94
-4.30
-4.26
-3.63
-2.40
-0.81
0.81
2.17
3.15
3.80
4.26
4.65
4.97
5.16
5.16
4.99
4.74
4.51
4.37
4.30
4.17
3.85
3.27
2.45
1.48
0.46
-0.53
-1.51
-2.48
-3.46
-4.39
-5.16
-5.69
-5.95
-5.99
-5.88
-5.71
-5.51
-5.28
-4.99
-4.63
-4.16
-3.63
-3.07
-2.55
-2.14
-1.90
-1.83
-1.87
-1.92
-1.90
-1.80
-1.65
-1.55
-1.56
-1.71
-1.96
-2.23
-2.41
-2.43
-2.20
-1.72
-1.07
-0.40
0.12
0.39
0.41
0.28
0.18
0.22
0.41
0.62
0.70
0.58
0.32
0.07
-0.03
0.11
0.46
0.89
1.22
1.31
1.04
0.40
-0.55
-1.62
-2.56
-3.13
-3.18
-2.80
-2.28
-1.99
-2.29
-3.28
-4.81
-6.54
-8.03
-8.80
-8.42
-6.58
-3.22
1.27
6.12
10.29
12.91
13.61
12.70
10.97
9.27
8.09
7.45
6.97
6.30
5.33
4.25
3.39
2.93
2.77
2.59
2.06
0.99
-0.50
-2.10
-3.40
-4.14
-4.28
-4.00
-3.57
-3.26
-3.17
-3.22
-3.25
-3.12
-2.77
-2.24
-1.62
-0.93
-0.14
0.79
1.84
2.84
3.48
3.47
2.68
1.23
-0.48
-1.96
-2.75
-2.68
-1.78
-0.37
1.17
2.44
3.20
3.35
2.91
2.02
