1660927347.00
64.000000
-0.00
-0.00
-0.00
-0.00
-0.00
-0.00
-0.00
-0.00
-0.00
-0.00
0.00
0.01
0.01
-0.00
-0.03
-0.05
-0.05
0.00
0.13
0.36
0.66
1.01
1.37
1.72
2.06
2.40
2.79
3.25
3.81
4.44
5.09
5.73
6.33
6.91
7.54
8.28
9.14
10.21
11.38
12.54
13.60
14.54
15.43
16.46
17.82
19.64
22.10
24.98
28.02
30.96
33.68
36.30
39.16
42.67
47.10
52.74
59.21
65.99
72.60
78.81
84.81
91.15
98.47
107.14
117.49
128.90
140.59
151.86
162.45
172.69
183.33
195.58
207.81
221.85
238.03
256.43
276.19
294.94
308.85
313.54
305.42
283.05
248.12
203.98
154.92
104.60
55.28
7.90
-37.33
-80.33
-120.92
-158.88
-194.95
-230.44
-266.79
-304.49
-342.22
-376.59
-402.93
-417.05
-416.69
-402.73
-378.84
-350.01
-320.70
-293.47
-268.84
-246.03
-224.16
-202.91
-182.76
-164.36
-147.95
-133.16
-119.20
-105.40
-91.54
-77.94
-65.25
-54.10
-44.74
-36.95
-30.15
-23.69
-17.14
-10.46
-3.96
1.88
6.71
10.42
13.20
15.41
17.41
19.39
21.31
23.04
24.36
25.18
25.47
25.35
25.00
24.62
24.37
24.34
24.49
24.66
24.64
24.23
23.40
22.28
21.11
20.13
19.45
19.01
18.63
18.12
17.36
16.41
15.43
14.61
14.08
13.87
13.88
13.96
13.97
13.81
13.49
13.08
12.65
12.29
11.98
11.67
11.31
10.90
10.50
10.25
10.22
10.40
10.62
10.69
10.46
9.90
9.13
8.31
7.59
7.05
6.68
6.45
6.34
6.32
6.40
6.53
6.63
6.67
6.58
6.36
6.01
5.54
5.01
4.49
4.09
3.88
3.88
4.04
4.21
4.24
4.02
3.53
2.80
1.95
1.06
0.21
-0.57
-1.28
-1.93
-2.52
-3.05
-3.53
-3.98
-4.44
-4.94
-5.50
-6.08
-6.64
-7.09
-7.40
-7.55
-7.57
-7.53
-7.49
-7.47
-7.46
-7.41
-7.26
-6.97
-6.58
-6.15
-5.76
-5.45
-5.19
-4.92
-4.52
-3.96
-3.30
-2.64
-2.09
-1.69
-1.40
-1.12
-0.77
-0.35
0.13
0.58
0.97
1.27
1.48
1.63
1.73
1.82
1.96
2.16
2.42
2.64
2.74
2.67
2.49
2.32
2.30
2.50
2.91
3.39
3.80
4.03
4.08
4.02
3.93
3.88
3.85
3.79
3.64
3.42
3.22
3.11
3.16
3.33
3.50
3.58
3.50
3.32
3.16
3.12
3.24
3.49
3.75
3.94
4.02
4.02
4.01
3.98
3.91
3.75
3.47
3.11
2.76
2.52
2.40
2.40
2.44
2.47
2.46
2.42
2.34
2.23
2.11
1.98
1.87
1.81
1.80
1.81
1.77
1.67
1.52
1.38
1.31
1.35
1.47
1.63
1.76
1.82
1.80
1.70
1.54
1.35
1.21
1.16
1.22
1.36
1.51
1.59
1.58
1.51
1.48
1.51
1.60
1.67
1.62
1.41
1.09
0.76
0.54
0.48
0.58
0.78
0.98
1.10
1.10
1.01
0.87
0.75
0.73
0.82
1.02
1.25
1.41
1.44
1.33
1.12
0.88
0.64
0.44
0.27
0.15
0.11
0.17
0.37
0.67
1.02
1.33
1.55
1.64
1.60
1.45
1.22
0.93
0.63
0.39
0.24
0.23
0.34
0.52
0.70
0.86
0.96
1.00
0.98
0.91
0.78
0.62
0.49
0.44
0.53
0.79
1.17
1.57
1.89
2.05
2.06
1.93
1.74
1.52
1.29
1.04
0.75
0.45
0.18
-0.01
-0.09
-0.05
0.04
0.09
0.04
-0.13
-0.39
-0.63
-0.78
-0.78
-0.66
-0.44
-0.18
0.12
0.42
0.71
0.94
1.02
0.90
0.60
0.20
-0.16
-0.37
-0.40
-0.28
-0.12
0.04
0.19
0.38
0.65
0.96
1.19
1.22
1.01
0.64
0.29
0.14
0.28
0.66
1.10
1.43
1.55
1.48
1.30
1.09
0.88
0.62
0.31
-0.01
-0.24
-0.31
-0.18
0.03
0.21
0.25
0.16
0.02
-0.05
-0.00
0.13
0.27
0.35
0.36
0.34
0.35
0.39
0.41
0.36
0.20
-0.01
-0.19
-0.26
-0.19
-0.02
0.17
0.31
0.37
0.38
0.40
0.46
0.56
0.64
0.65
0.58
0.45
0.35
0.33
0.38
0.42
0.36
0.12
-0.30
-0.83
-1.27
-1.46
-1.28
-0.76
-0.04
0.64
1.08
1.17
0.95
0.54
0.06
-0.39
-0.74
-0.99
-1.10
-1.04
-0.83
-0.49
-0.12
0.20
0.41
0.48
0.45
0.39
0.32
0.30
0.34
0.43
0.55
0.64
0.68
0.66
0.60
0.56
0.59
0.71
0.86
1.00
1.08
1.07
1.00
0.89
0.75
0.59
0.45
0.33
0.28
0.27
0.27
0.22
0.07
-0.16
-0.44
-0.69
-0.85
-0.89
-0.82
-0.68
-0.51
-0.38
-0.34
-0.40
-0.54
-0.71
-0.83
-0.85
-0.78
-0.64
-0.49
-0.34
-0.17
0.03
0.29
0.60
0.92
1.22
1.45
1.59
1.66
1.68
1.69
1.71
1.73
1.73
1.69
1.60
1.47
1.30
1.12
0.90
0.64
0.33
0.02
-0.25
-0.44
-0.53
-0.58
-0.61
-0.64
-0.69
-0.71
-0.69
-0.63
-0.58
-0.58
-0.65
-0.80
-0.94
-0.99
-0.87
-0.59
-0.22
0.12
0.30
0.29
0.13
-0.08
-0.24
-0.30
-0.27
-0.22
-0.15
-0.08
0.05
0.23
0.44
0.58
0.57
0.39
0.09
-0.20
-0.35
-0.32
-0.16
0.03
0.14
0.14
0.08
0.04
0.06
0.13
0.19
0.20
0.18
0.20
0.31
0.47
0.61
0.67
0.60
0.44
0.23
0.01
-0.22
-0.44
-0.59
-0.62
-0.46
-0.17
0.16
0.37
0.39
0.25
0.07
0.00
0.11
0.36
0.68
0.97
1.18
1.28
1.25
1.07
0.74
0.32
-0.12
-0.50
-0.76
-0.89
-0.89
-0.77
-0.59
-0.38
-0.24
-0.21
-0.33
-0.54
-0.73
-0.77
-0.59
-0.21
0.24
0.63
0.85
0.87
0.72
0.50
0.30
0.16
0.06
-0.01
-0.10
-0.20
-0.27
-0.23
-0.08
0.17
0.41
0.56
0.56
0.42
0.22
0.07
0.04
0.14
0.32
0.52
0.63
0.58
0.37
0.04
-0.32
-0.60
-0.73
-0.69
-0.55
-0.38
-0.22
-0.10
0.00
0.11
0.23
0.34
0.43
0.49
0.50
0.48
0.46
0.43
0.42
0.41
0.36
0.24
0.02
-0.30
-0.65
-0.93
-1.05
-0.94
-0.64
-0.24
0.13
0.38
0.48
0.43
0.27
0.05
-0.20
-0.42
-0.53
-0.48
-0.27
0.03
0.29
0.43
0.40
0.27
0.14
0.06
0.04
0.02
-0.07
-0.25
-0.46
-0.62
-0.63
-0.50
-0.29
-0.10
-0.02
-0.07
-0.20
-0.32
-0.34
-0.25
-0.11
-0.01
-0.01
-0.10
-0.21
-0.27
-0.26
-0.22
-0.24
-0.34
-0.49
-0.55
-0.40
0.01
0.61
1.20
1.60
1.71
1.53
1.15
0.72
0.33
0.03
-0.15
-0.22
-0.19
-0.04
0.17
0.40
0.58
0.68
0.68
0.61
0.46
0.26
0.02
-0.23
-0.40
-0.41
-0.23
0.11
0.47
0.71
0.73
0.52
0.18
-0.15
-0.34
-0.37
-0.26
-0.10
0.03
0.10
0.15
0.23
0.40
0.61
0.81
0.88
0.76
0.43
-0.04
-0.53
-0.91
-1.11
-1.09
-0.90
-0.65
-0.43
-0.30
-0.26
-0.25
-0.18
-0.03
0.19
0.42
0.59
0.68
0.68
0.61
0.49
0.32
0.09
-0.18
-0.45
-0.67
-0.81
-0.84
-0.76
-0.60
-0.39
-0.19
-0.05
-0.06
-0.21
-0.47
-0.72
-0.84
-0.78
-0.56
-0.28
-0.00
0.20
0.37
0.54
0.73
0.90
0.97
0.88
0.63
0.35
0.17
0.21
0.47
0.83
1.13
1.24
1.11
0.79
0.39
-0.04
-0.43
-0.77
-1.00
-1.08
-0.95
-0.60
-0.11
0.40
0.76
0.89
0.74
0.35
-0.19
-0.73
-1.13
-1.28
-1.11
-0.67
-0.12
0.38
0.68
0.71
0.54
0.30
0.11
0.02
0.01
0.02
-0.03
-0.14
-0.28
-0.40
-0.44
-0.40
-0.31
-0.23
-0.17
-0.15
-0.14
-0.11
-0.05
0.03
0.10
0.14
0.15
0.14
0.17
0.27
0.40
0.49
0.44
0.21
-0.16
-0.54
-0.74
-0.65
-0.28
0.21
0.62
0.80
0.72
0.48
0.25
0.13
0.12
0.18
0.21
0.18
0.07
-0.07
-0.24
-0.43
-0.62
-0.78
-0.87
-0.86
-0.73
-0.54
-0.34
-0.22
-0.19
-0.23
-0.29
-0.30
-0.24
-0.10
0.08
0.24
0.33
0.33
0.24
0.10
-0.05
-0.14
-0.15
-0.08
-0.01
-0.03
-0.20
-0.51
-0.85
-1.07
-1.06
-0.80
-0.41
-0.01
0.26
0.37
0.38
0.38
0.45
0.57
0.67
0.71
0.71
0.75
0.93
1.24
1.57
1.75
1.59
1.05
0.23
-0.69
-1.45
-1.93
-2.06
-1.91
-1.63
-1.35
-1.21
-1.30
-1.66
-2.23
-2.83
-3.20
-3.10
-2.38
-1.04
0.74
2.65
4.35
5.55
6.12
6.08
5.59
4.85
4.06
3.30
2.59
1.88
1.13
0.37
-0.35
-0.93
-1.30
-1.49
-1.54
-1.55
-1.59
-1.72
-1.96
-2.27
-2.60
-2.88
-3.00
-2.90
-2.58
-2.12
-1.67
-1.32
-1.08
-0.89
-0.62
-0.23
0.22
0.53
0.44
-0.23
-1.45
-2.95
-4.23
-4.71
-3.98
-1.93
1.10
4.44
7.29
8.99
9.28
8.33
6.58
4.58
2.74
1.24
0.07
-0.84
-1.55
-2.05
-2.31
-2.32
-2.14
-1.86
-1.58
-1.31
-1.00
-0.58
-0.03
0.58
1.10
1.33
1.19
0.71
0.07
-0.51
-0.86
-0.95
-0.85
-0.73
-0.73
-0.92
-1.29
-1.73
-2.10
-2.23
-1.97
-1.22
0.02
1.58
3.19
4.50
5.22
5.17
4.38
3.03
1.45
-0.06
-1.23
-1.95
-2.21
-2.13
-1.90
-1.68
-1.59
-1.64
-1.76
-1.87
-1.92
-1.91
-1.89
-1.90
-1.95
-2.01
-2.02
-1.88
-1.56
-1.07
-0.43
0.30
1.02
1.60
1.88
1.73
1.07
-0.01
-1.23
-2.16
-2.40
-1.67
-0.05
2.10
4.21
5.73
6.32
5.97
4.89
3.39
1.77
0.23
-1.11
-2.18
-2.90
-3.25
-3.27
-3.07
-2.82
-2.65
-2.61
-2.67
-2.73
-2.67
-2.40
-1.90
-1.24
-0.58
-0.07
0.16
0.08
-0.25
-0.70
-1.14
-1.51
-1.79
-2.04
-2.28
-2.50
-2.64
-2.58
-2.21
-1.42
-0.22
1.31
2.99
4.54
5.67
6.18
6.03
5.33
4.31
3.24
2.30
1.59
1.15
0.91
0.87
1.02
1.37
1.91
2.54
3.15
3.56
3.68
3.52
3.19
2.89
2.79
2.96
3.37
3.91
4.40
4.69
4.69
4.33
3.62
2.63
1.49
0.43
-0.29
-0.46
-0.03
0.82
1.73
2.27
2.16
1.36
0.09
-1.34
-2.65
-3.72
-4.58
-5.29
-5.80
-6.02
-5.82
-5.21
-4.38
-3.60
-3.12
-2.99
-3.07
-3.12
-2.89
-2.30
-1.41
-0.37
0.61
1.39
1.87
2.04
1.97
1.78
1.64
1.64
1.73
1.76
1.50
0.81
-0.27
-1.55
-2.73
-3.56
-3.91
-3.79
-3.32
-2.67
-2.03
-1.54
-1.29
-1.33
-1.60
-1.97
-2.25
-2.28
-1.98
-1.38
-0.61
0.22
1.00
1.67
2.21
2.59
2.77
2.73
2.46
2.00
1.47
0.96
0.55
0.30
0.22
0.27
0.39
0.49
0.48
0.32
0.03
-0.31
-0.59
-0.69
-0.58
-0.30
0.04
0.30
0.36
0.18
-0.26
-0.87
-1.55
-2.15
-2.58
-2.81
-2.83
-2.74
-2.61
-2.56
-2.66
-2.89
-3.21
-3.49
-3.62
-3.50
-3.07
-2.35
-1.40
-0.38
0.52
1.15
1.45
1.48
1.43
1.52
1.87
2.45
3.09
3.54
3.66
3.43
2.96
2.39
1.82
1.26
0.71
0.21
-0.17
-0.38
-0.43
-0.38
-0.33
-0.32
-0.33
-0.32
-0.26
-0.18
-0.13
-0.15
-0.21
-0.27
-0.26
-0.19
-0.11
-0.11
-0.22
-0.39
-0.51
-0.47
-0.23
0.18
0.67
1.12
1.38
1.36
1.06
0.57
0.07
-0.26
-0.33
-0.14
0.16
0.40
0.47
0.35
0.09
-0.21
-0.48
-0.66
-0.73
-0.68
-0.50
-0.24
0.08
0.37
0.56
0.64
0.60
0.50
0.40
0.33
0.26
0.18
0.07
-0.07
-0.25
-0.45
-0.64
-0.80
-0.91
-0.98
-1.01
-1.01
-1.00
-1.00
-0.99
-0.97
-0.92
-0.86
-0.78
-0.73
-0.70
-0.67
-0.59
-0.41
-0.10
0.30
0.69
0.94
0.95
0.71
0.30
-0.13
-0.43
-0.54
-0.48
-0.36
-0.30
-0.33
-0.42
-0.50
-0.53
-0.54
-0.58
-0.70
-0.86
-0.94
-0.83
-0.49
0.01
0.51
0.86
1.04
1.10
1.19
1.39
1.65
1.84
1.79
1.43
0.85
0.22
-0.28
-0.53
-0.56
-0.46
-0.34
-0.25
-0.20
-0.12
0.03
0.24
0.45
0.57
0.53
0.37
0.18
0.09
0.16
0.39
0.68
0.90
0.95
0.82
0.56
0.28
0.07
-0.02
-0.04
-0.05
-0.09
-0.19
-0.34
-0.48
-0.58
-0.62
-0.62
-0.60
-0.61
-0.63
-0.68
-0.71
-0.67
-0.56
-0.38
-0.20
-0.07
-0.05
-0.11
-0.21
-0.27
-0.23
-0.10
0.07
0.23
0.34
0.44
0.56
0.74
0.94
1.09
1.12
1.02
0.81
0.59
0.40
0.29
0.24
0.26
0.32
0.39
0.47
0.51
0.50
0.45
0.44
0.51
0.69
0.88
0.98
0.86
0.52
0.04
-0.41
-0.71
-0.80
-0.73
-0.61
-0.52
-0.47
-0.48
-0.51
-0.57
-0.68
-0.84
-1.06
-1.31
-1.55
-1.74
-1.86
-1.88
-1.80
-1.64
-1.45
-1.30
-1.28
-1.38
-1.56
-1.71
-1.76
-1.72
-1.64
-1.65
-1.81
-2.15
-2.59
-3.07
-3.54
-4.05
-4.67
-5.48
-6.50
-7.66
-8.81
-9.81
-10.56
-11.07
-11.45
-11.92
-12.69
-13.99
-15.85
-18.16
-20.58
-22.67
-24.11
-24.82
-25.18
-25.91
-27.80
-31.32
-36.30
-41.88
-46.83
-50.17
-51.66
-52.03
-52.74
-55.23
-60.27
-67.51
-75.56
-82.62
-87.21
-88.84
-88.24
-87.18
-87.98
-92.84
-102.99
-117.88
-134.77
-148.89
-154.42
-146.25
-121.78
-82.37
-33.34
17.33
61.36
92.68
109.14
112.71
108.25
101.37
96.30
94.80
96.24
98.70
100.37
100.40
98.95
96.51
93.20
88.48
81.55
71.95
60.09
47.34
35.70
27.26
23.50
25.02
31.22
40.43
50.39
58.89
64.51
66.88
66.47
63.93
59.52
53.00
44.00
32.80
20.61
9.37
0.93
-3.83
-5.37
-5.16
-4.90
-5.82
-8.20
-11.58
-15.13
-18.15
-20.27
-21.45
-21.88
-21.88
-21.84
-21.98
-22.18
-21.79
-19.78
-15.17
-7.65
2.02
12.12
20.61
26.00
27.94
27.24
25.30
23.37
21.98
20.96
19.81
18.19
16.13
14.02
12.29
11.20
10.76
10.81
11.08
11.38
11.60
11.73
11.76
11.70
11.53
11.17
10.52
9.55
8.27
6.81
5.36
4.12
3.24
2.76
2.62
2.64
2.66
2.56
2.31
1.98
1.69
1.50
1.39
1.27
1.02
0.56
-0.03
-0.59
-0.96
-1.06
-0.98
-0.88
-0.90
-1.11
-1.46
-1.85
-2.21
-2.51
-2.79
-3.13
-3.57
-4.10
-4.64
-5.12
-5.50
-5.77
-5.95
-6.07
-6.14
-6.15
-6.14
-6.18
-6.41
-6.88
-7.58
-8.26
-8.58
-8.20
-6.99
-5.09
-2.91
-0.91
0.63
1.64
2.34
2.95
3.64
4.35
4.95
5.30
5.39
5.40
5.56
6.02
6.77
7.59
8.23
8.49
8.33
7.86
7.27
6.70
6.22
5.80
5.41
5.03
4.66
4.31
3.96
3.57
3.07
2.45
1.77
1.12
0.63
0.37
0.30
0.31
0.27
0.10
-0.17
-0.46
-0.68
-0.78
-0.80
-0.84
-0.97
-1.24
-1.60
-1.94
-2.17
-2.17
-1.91
-1.39
-0.64
0.26
1.18
2.04
2.75
3.30
3.66
3.85
3.88
3.77
3.54
3.22
2.86
2.49
2.15
1.83
1.55
1.33
1.19
1.14
1.17
1.28
1.40
1.50
1.51
1.42
1.23
0.97
0.70
0.46
0.28
0.15
0.06
0.01
0.00
0.03
0.11
0.20
0.24
0.19
0.04
-0.17
-0.36
-0.45
-0.43
-0.35
-0.29
-0.32
-0.46
-0.66
-0.82
-0.86
-0.74
-0.52
-0.27
-0.10
-0.02
-0.01
-0.02
-0.01
0.03
0.05
0.03
-0.06
-0.17
-0.23
-0.16
0.02
0.23
0.34
0.26
-0.00
-0.33
-0.55
-0.54
-0.28
0.10
0.44
0.60
0.54
0.33
0.11
-0.04
-0.09
-0.09
-0.10
-0.14
-0.19
-0.22
-0.20
-0.18
-0.22
-0.37
-0.59
-0.77
-0.79
-0.64
-0.38
-0.13
0.01
-0.01
-0.13
-0.26
-0.34
-0.36
-0.34
-0.32
-0.32
-0.36
-0.44
-0.57
-0.76
-1.00
-1.21
-1.32
-1.27
-1.05
-0.76
-0.50
-0.39
-0.50
-0.80
-1.21
-1.59
-1.82
-1.81
-1.58
-1.22
-0.84
-0.54
-0.37
-0.36
-0.48
-0.69
-0.94
-1.14
-1.27
-1.32
-1.33
-1.39
-1.57
-1.85
-2.19
-2.49
-2.68
-2.73
-2.67
-2.53
-2.33
-2.05
-1.63
-1.06
-0.33
0.48
1.29
1.96
2.40
2.53
2.40
2.17
2.08
2.38
3.26
4.75
6.75
9.08
11.61
14.39
17.65
21.76
27.07
33.75
41.64
50.23
58.83
66.78
73.71
79.69
85.14
90.70
96.89
103.84
111.22
118.32
124.24
128.22
130.00
129.90
128.83
127.99
128.42
130.55
133.73
135.99
134.19
124.53
103.84
71.02
28.16
-19.34
-64.09
-98.95
-119.31
-124.28
-116.35
-99.97
-80.10
-61.30
-47.52
-41.96
-46.53
-60.97
-82.17
-104.80
-122.93
-132.23
-131.55
-122.96
-110.32
-97.47
-86.77
-78.76
-72.77
-67.74
-62.84
-57.67
-52.10
-46.20
-40.15
-34.19
-28.56
-23.40
-18.69
-14.20
-9.63
-4.77
0.38
5.60
10.48
14.70
18.09
20.79
23.19
25.84
29.34
34.23
40.68
48.12
54.89
58.37
55.73
45.20
27.14
4.34
-18.81
-38.00
-50.58
-56.30
-56.86
-54.64
-51.50
-48.15
-44.54
-40.50
-36.29
-32.61
-30.17
-29.23
-29.43
-30.02
-30.21
-29.44
-27.64
-25.12
-22.37
-19.87
-17.91
-16.48
-15.32
-14.10
-12.58
-10.77
-8.98
-7.59
-6.92
-6.97
-7.43
-7.80
-7.64
-6.74
-5.27
-3.64
-2.34
-1.68
-1.69
-2.10
-2.46
-2.40
-1.77
-0.69
0.52
1.50
2.05
2.15
1.95
1.68
1.53
1.60
1.86
2.25
2.68
3.08
3.41
3.62
3.69
3.60
3.37
3.05
2.69
2.32
1.90
1.38
0.68
-0.23
-1.32
-2.46
-3.48
-4.21
-4.55
-4.47
-4.04
-3.41
-2.73
-2.18
-1.84
-1.75
-1.92
-2.31
-2.86
-3.52
-4.15
-4.65
-4.88
-4.78
-4.38
-3.77
-3.10
-2.51
-2.04
-1.64
-1.16
-0.44
0.59
1.88
3.22
4.30
4.86
4.74
4.01
2.88
1.66
0.62
-0.07
-0.37
-0.36
-0.16
0.08
0.26
0.32
0.24
0.08
-0.09
-0.23
-0.31
-0.30
-0.23
-0.07
0.14
0.39
0.62
0.78
0.82
0.79
0.73
0.70
0.70
0.67
0.55
0.30
0.01
-0.20
-0.22
-0.04
0.26
0.55
0.70
0.71
0.58
0.37
0.09
-0.23
-0.55
-0.74
-0.71
-0.41
0.04
0.42
0.50
0.18
-0.47
-1.26
-1.97
-2.49
-2.83
-3.09
-3.39
-3.74
-4.09
-4.33
-4.37
-4.21
-3.91
-3.59
-3.37
-3.31
-3.38
-3.46
-3.40
-2.99
-2.11
-0.71
1.06
2.95
4.60
5.67
5.95
5.49
4.53
3.43
2.54
2.03
1.89
1.94
1.99
1.91
1.70
1.44
1.22
1.10
1.06
1.04
0.96
0.79
0.58
0.41
0.37
0.47
0.67
0.89
1.03
1.05
0.96
0.85
0.80
0.86
1.04
1.29
1.55
1.77
1.92
2.01
2.04
1.98
1.75
1.29
0.55
-0.40
-1.43
-2.33
-2.93
-3.14
-3.00
-2.66
-2.30
-2.09
-2.11
-2.37
-2.82
-3.37
-3.97
-4.53
-5.00
-5.35
-5.57
-5.67
-5.68
-5.58
-5.35
-4.94
-4.33
-3.58
-2.76
-1.97
-1.24
-0.51
0.33
1.38
2.67
4.05
5.27
6.01
6.02
5.23
3.82
2.14
0.63
-0.31
-0.47
0.13
1.31
2.73
4.08
5.11
5.68
5.78
5.45
4.81
3.96
3.05
2.19
1.54
1.20
1.26
1.68
2.38
3.16
3.82
4.25
4.42
4.39
4.29
4.20
4.13
4.03
3.87
3.64
3.40
3.21
3.08
2.95
2.73
2.32
1.67
0.83
-0.13
-1.13
-2.10
-2.95
-3.62
-4.04
-4.14
-3.92
-3.46
-2.90
-2.41
-2.11
-2.07
-2.28
-2.69
-3.24
-3.85
-4.49
-5.10
-5.62
-5.99
-6.17
-6.14
-5.92
-5.59
-5.22
-4.86
-4.52
-4.15
-3.64
-2.88
-1.84
-0.56
0.84
2.19
3.37
4.32
5.02
5.49
5.71
5.63
5.22
4.50
3.57
2.61
1.79
1.19
0.76
0.39
-0.03
-0.51
-0.96
-1.21
-1.15
-0.77
-0.18
0.43
0.90
1.18
1.28
1.27
1.20
1.08
0.91
0.69
0.48
0.38
0.44
0.65
0.94
1.21
1.38
1.43
1.43
1.45
1.56
1.72
1.83
1.78
1.49
0.99
0.39
-0.18
-0.65
-1.02
-1.34
-1.62
-1.85
-2.01
-2.07
-2.02
-1.92
-1.81
-1.72
-1.64
-1.60
-1.62
-1.75
-2.03
-2.42
-2.85
-3.21
-3.45
-3.55
-3.54
-3.44
-3.24
-2.87
-2.29
-1.52
-0.67
0.08
0.61
0.86
0.96
1.08
1.39
1.91
2.53
3.05
3.28
3.16
2.74
2.15
1.52
0.92
0.43
0.11
0.03
0.24
0.70
1.26
1.74
1.93
1.75
1.27
0.64
0.05
-0.35
-0.50
-0.40
-0.11
0.28
0.66
0.96
1.12
1.14
1.06
0.91
0.74
0.59
0.50
0.52
0.65
0.87
1.09
1.19
1.10
0.77
0.28
-0.24
-0.64
-0.79
-0.67
-0.38
-0.07
0.08
-0.05
-0.44
-0.98
-1.50
-1.82
-1.86
-1.65
-1.33
-1.00
-0.75
-0.57
-0.39
-0.19
0.01
0.14
0.10
-0.10
-0.40
-0.70
-0.89
-0.95
-0.89
-0.74
-0.55
-0.32
-0.11
0.05
0.08
-0.08
-0.40
-0.81
-1.19
-1.47
-1.56
-1.45
-1.14
-0.68
-0.19
0.19
0.35
0.26
0.06
-0.01
0.26
0.94
1.87
2.74
3.26
3.25
2.75
1.96
1.11
0.39
-0.15
-0.57
-0.92
-1.22
-1.45
-1.54
-1.51
-1.43
-1.40
-1.54
-1.81
-2.12
-2.27
-2.13
-1.69
-1.06
-0.48
-0.12
-0.08
-0.30
-0.67
-1.05
-1.33
-1.49
-1.55
-1.55
-1.54
-1.56
-1.63
-1.76
-1.94
-2.07
-2.07
-1.85
-1.40
-0.79
-0.17
0.26
0.33
-0.05
-0.84
-1.91
-3.08
-4.14
-4.96
-5.50
-5.86
-6.20
-6.72
-7.56
-8.73
-10.13
-11.57
-12.86
-13.88
-14.61
-15.14
-15.60
-16.13
-16.84
-17.74
-18.74
-19.58
-19.95
-19.59
-18.49
-16.95
-15.48
-14.61
-14.56
-15.23
-16.34
-17.68
-19.33
-21.57
-24.57
-28.08
-31.32
-33.31
-33.40
-31.76
-29.49
-28.29
-29.75
-34.67
-42.71
-52.49
-62.07
-69.80
-74.89
-77.79
-80.01
-83.33
-89.22
-98.25
-110.30
-124.77
-140.67
-156.33
-168.83
-174.23
-168.83
-151.29
-123.98
-92.67
-63.90
-41.48
-24.39
-7.57
14.62
44.50
79.35
112.86
138.92
155.06
163.36
168.49
174.35
181.65
187.81
188.95
182.52
168.81
150.68
132.04
116.02
103.91
95.14
88.26
81.79
74.86
67.19
58.73
49.24
38.19
25.16
10.24
-5.68
-21.15
-34.67
-45.13
-52.00
-55.02
-53.93
-48.47
-38.81
-25.96
-11.93
0.84
10.37
15.94
18.25
18.90
19.53
20.99
23.09
24.94
25.67
25.00
23.43
21.92
21.32
21.95
23.40
24.78
25.24
24.38
22.38
19.93
17.76
16.33
15.61
15.17
14.54
13.43
11.89
10.25
8.89
8.01
7.53
7.21
6.80
6.14
5.28
4.37
3.60
3.08
2.82
2.70
2.58
2.33
1.89
1.29
0.68
0.19
-0.06
-0.04
0.19
0.54
0.93
1.35
1.82
2.36
2.98
3.58
4.02
4.17
3.96
3.39
2.55
1.56
0.50
-0.58
-1.60
-2.50
-3.14
-3.38
-3.16
-2.54
-1.77
-1.09
-0.71
-0.63
-0.68
-0.60
-0.24
0.40
1.12
1.62
1.73
1.45
1.01
0.71
0.73
1.09
1.57
1.90
1.89
1.54
1.07
0.77
0.90
1.49
2.39
3.33
4.11
4.68
5.16
5.74
6.54
7.58
8.69
9.71
10.54
11.19
11.79
12.34
12.69
12.50
11.42
9.31
6.37
3.16
0.37
-1.47
-2.16
-1.96
-1.40
-1.11
-1.50
-2.67
-4.38
-6.19
-7.68
-8.61
-8.97
-8.99
-8.90
-8.82
-8.73
-8.50
-8.06
-7.43
-6.80
-6.37
-6.24
-6.29
-6.30
-6.01
-5.32
-4.29
-3.13
-2.10
-1.34
-0.86
-0.54
-0.20
0.26
0.84
1.46
1.99
2.35
2.60
2.87
3.31
4.02
4.97
5.98
6.86
7.45
7.77
8.02
8.48
9.37
10.72
12.30
13.70
14.50
14.54
13.96
13.22
12.85
13.22
14.39
16.08
17.86
19.21
19.70
19.00
16.87
13.31
8.55
3.14
-2.17
-6.70
-10.02
-12.17
-13.51
-14.50
-15.47
-16.47
-17.35
-17.89
-17.98
-17.70
-17.22
-16.70
-16.16
-15.52
-14.62
-13.39
-11.85
-10.19
-8.62
-7.33
-6.40
-5.77
-5.28
-4.78
-4.18
-3.50
-2.80
-2.18
-1.70
-1.31
-0.92
-0.45
0.07
0.49
0.59
0.18
-0.76
-2.06
-3.41
-4.51
-5.19
-5.43
-5.36
-5.13
-4.84
-4.57
-4.34
-4.16
-4.04
-3.94
-3.77
-3.45
-2.98
-2.43
-1.96
-1.71
-1.73
-1.93
-2.15
-2.24
-2.13
-1.86
-1.52
-1.22
-0.99
-0.85
-0.77
-0.70
-0.64
-0.56
-0.45
-0.30
-0.12
0.05
0.18
0.23
0.20
0.10
-0.01
-0.09
-0.11
-0.07
0.02
0.15
0.24
0.28
0.23
0.13
0.06
0.06
0.15
0.28
0.37
0.32
0.11
-0.18
-0.39
-0.36
-0.05
0.43
0.88
1.05
0.85
0.37
-0.19
-0.57
-0.66
-0.51
-0.31
-0.27
-0.46
-0.77
-0.97
-0.90
-0.51
0.04
0.54
0.76
0.63
0.26
-0.17
-0.45
-0.50
-0.34
-0.12
0.04
0.08
0.04
0.03
0.11
0.30
0.52
0.65
0.60
0.41
0.17
0.02
0.04
0.21
0.41
0.51
0.42
0.19
-0.08
-0.27
-0.33
-0.25
-0.11
0.04
0.12
0.08
-0.05
-0.25
-0.44
-0.52
-0.44
-0.21
0.07
0.31
0.39
0.30
0.12
-0.09
-0.26
-0.41
-0.59
-0.79
-0.96
-1.01
-0.86
-0.57
-0.27
-0.11
-0.16
-0.36
-0.53
-0.49
-0.16
0.34
0.82
1.09
1.08
0.88
0.63
0.49
0.49
0.56
0.62
0.60
0.53
0.44
0.37
0.32
0.24
0.08
-0.16
-0.42
-0.63
-0.77
-0.84
-0.86
-0.84
-0.75
-0.54
-0.19
0.23
0.63
0.91
0.98
0.87
0.63
0.33
0.03
-0.22
-0.40
-0.45
-0.33
-0.01
0.44
0.88
1.17
1.23
1.05
0.72
0.35
0.01
-0.30
-0.60
-0.89
-1.13
-1.25
-1.21
-1.05
-0.85
-0.73
-0.70
-0.69
-0.57
-0.24
0.25
0.72
0.95
0.80
0.32
-0.29
-0.78
-0.99
-0.92
-0.73
-0.58
-0.57
-0.66
-0.71
-0.61
-0.36
-0.08
0.06
-0.02
-0.24
-0.45
-0.47
-0.21
0.23
0.66
0.90
0.89
0.72
0.53
0.45
0.54
0.73
0.91
0.99
0.92
0.73
0.50
0.32
0.24
0.29
0.40
0.49
0.47
0.30
0.05
-0.16
-0.23
-0.09
0.16
0.39
0.42
0.23
-0.12
-0.47
-0.64
-0.57
-0.30
0.02
0.25
0.33
0.32
0.30
0.36
0.47
0.54
0.43
0.09
-0.46
-1.07
-1.57
-1.84
-1.83
-1.60
-1.23
-0.79
-0.34
0.12
0.53
0.80
0.83
0.61
0.24
-0.11
-0.23
-0.05
0.32
0.69
0.82
0.63
0.17
-0.34
-0.68
-0.73
-0.47
-0.03
0.41
0.70
0.78
0.66
0.43
0.19
0.02
-0.10
-0.21
-0.33
-0.45
-0.52
-0.46
-0.24
0.07
0.37
0.51
0.41
0.07
-0.39
-0.79
-0.96
-0.83
-0.47
-0.04
0.27
0.34
0.18
-0.11
-0.35
-0.42
-0.32
-0.15
-0.04
-0.09
-0.33
-0.68
-1.04
-1.31
-1.43
-1.35
-1.06
-0.61
-0.08
0.44
0.82
0.97
0.92
0.74
0.55
0.50
0.63
0.94
1.34
1.69
1.89
1.90
1.76
1.60
1.56
1.79
2.34
3.16
4.14
5.09
5.84
6.30
6.52
6.63
6.81
7.18
7.72
8.33
8.81
9.00
8.85
8.44
7.97
7.64
7.66
8.15
9.17
10.61
12.17
13.28
13.22
11.39
7.59
2.23
-3.73
-9.14
-13.04
-15.05
-15.41
-14.71
-13.62
-12.51
-11.50
-10.49
-9.41
-8.33
-7.41
-6.80
-6.53
-6.49
-6.47
-6.26
-5.75
-4.98
-4.11
-3.38
-2.94
-2.84
-2.95
-3.07
-2.98
-2.58
-1.94
-1.29
-0.87
-0.86
-1.26
-1.93
-2.61
-3.04
-3.07
-2.69
-2.03
-1.30
-0.73
-0.43
-0.42
-0.57
-0.71
-0.72
-0.60
-0.45
-0.45
-0.68
-1.14
-1.65
-2.04
-2.13
-1.92
-1.49
-1.05
-0.74
-0.64
-0.71
-0.79
-0.65
-0.07
1.07
2.77
4.82
6.91
8.64
9.72
10.11
10.07
10.10
10.74
12.31
14.75
17.61
20.20
21.98
22.77
23.00
23.54
25.28
28.71
33.55
38.78
43.15
45.68
46.23
45.49
44.77
45.39
48.29
53.99
62.42
72.67
82.51
88.32
85.81
71.82
46.11
12.29
-23.03
-52.71
-71.84
-79.49
-78.28
-72.51
-65.79
-59.72
-54.08
-48.09
-41.59
-35.43
-30.81
-28.40
-27.78
-27.73
-26.86
-24.44
-20.71
-16.78
-13.91
-12.93
-13.83
-15.81
-17.69
-18.47
-17.74
-15.80
-13.43
-11.52
-10.70
-11.08
-12.30
-13.74
-14.72
-14.84
-14.06
-12.68
-11.14
-9.86
-9.01
-8.57
-8.34
-8.13
-7.80
-7.36
-6.88
-6.45
-6.14
-5.95
-5.82
-5.66
-5.42
-5.11
-4.78
-4.50
-4.28
-4.06
-3.73
-3.20
-2.48
-1.70
-1.07
-0.75
-0.75
-0.93
-1.07
-1.00
-0.72
-0.36
-0.09
-0.02
-0.11
-0.20
-0.17
-0.00
0.19
0.25
0.10
-0.20
-0.47
-0.55
-0.37
-0.02
0.30
0.43
0.35
0.14
-0.04
-0.04
0.14
0.44
0.71
0.86
0.84
0.66
0.38
0.04
-0.31
-0.65
-0.96
-1.20
-1.31
-1.26
-1.08
-0.81
-0.54
-0.36
-0.34
-0.44
-0.62
-0.79
-0.89
-0.92
-0.96
-1.06
-1.24
-1.44
-1.54
-1.47
-1.26
-1.02
-0.88
-0.92
-1.10
-1.32
-1.49
-1.57
-1.62
-1.72
-1.92
-2.21
-2.54
-2.87
-3.15
-3.41
-3.63
-3.78
-3.79
-3.60
-3.23
-2.72
-2.18
-1.66
-1.15
-0.60
0.09
0.93
1.89
2.87
3.75
4.45
4.96
5.36
5.75
6.20
6.70
7.18
7.52
7.60
7.37
6.81
5.96
4.90
3.71
2.49
1.35
0.38
-0.36
-0.86
-1.15
-1.26
-1.22
-1.00
-0.62
-0.10
0.45
0.88
1.08
1.04
0.83
0.57
0.38
0.28
0.25
0.21
0.08
-0.16
-0.53
-0.97
-1.44
-1.87
-2.17
-2.27
-2.14
-1.85
-1.56
-1.43
-1.57
-1.90
-2.24
-2.43
-2.37
-2.18
-2.05
-2.15
-2.49
-2.90
-3.11
-2.92
-2.31
-1.47
-0.68
-0.14
0.10
0.19
0.35
0.77
1.52
2.56
3.73
4.86
5.79
6.40
6.62
6.41
5.77
4.75
3.46
2.07
0.77
-0.26
-0.89
-1.14
-1.11
-1.01
-1.02
-1.22
-1.56
-1.88
-2.04
-2.00
-1.84
-1.72
-1.79
-2.04
-2.36
-2.60
-2.66
-2.58
-2.49
-2.51
-2.69
-2.97
-3.20
-3.28
-3.20
-3.00
-2.77
-2.59
-2.47
-2.37
-2.23
-1.98
-1.59
-1.05
-0.37
0.40
1.23
2.08
2.93
3.79
4.65
5.47
6.16
6.63
6.78
6.58
6.06
5.28
4.30
3.20
2.08
1.06
0.27
-0.19
-0.32
-0.22
-0.05
0.06
0.07
0.02
0.01
0.06
0.14
0.17
0.10
-0.02
-0.10
-0.03
0.18
0.45
0.64
0.68
0.56
0.38
0.26
0.23
0.29
0.36
0.38
0.32
0.19
0.01
-0.23
-0.48
-0.70
-0.83
-0.84
-0.75
-0.65
-0.62
-0.70
-0.84
-0.98
-1.05
-1.04
-0.99
-0.97
-1.01
-1.09
-1.16
-1.19
-1.19
-1.18
-1.22
-1.29
-1.38
-1.42
-1.34
-1.12
-0.75
-0.33
0.05
0.27
0.31
0.16
-0.07
-0.30
-0.50
-0.65
-0.75
-0.80
-0.75
-0.55
-0.23
0.15
0.42
0.48
0.31
0.02
-0.23
-0.32
-0.24
-0.07
0.07
0.10
0.07
0.04
0.09
0.20
0.27
0.17
-0.13
-0.55
-0.91
-1.07
-0.95
-0.63
-0.28
-0.05
0.00
-0.06
-0.11
-0.06
0.14
0.44
0.70
0.83
0.75
0.47
0.07
-0.33
-0.60
-0.66
-0.51
-0.22
0.09
0.31
0.39
0.34
0.23
0.12
0.06
0.06
0.08
0.10
0.12
0.16
0.24
0.35
0.46
0.51
0.46
0.32
0.16
0.04
0.01
0.08
0.18
0.21
0.12
-0.09
-0.33
-0.52
-0.58
-0.51
-0.35
-0.15
0.04
0.20
0.34
0.42
0.42
0.33
0.17
0.02
-0.03
0.05
0.24
0.44
0.54
0.50
0.33
0.09
-0.13
-0.30
-0.42
-0.54
-0.67
-0.80
-0.92
-0.98
-0.94
-0.81
-0.59
-0.36
-0.16
-0.02
0.05
0.08
0.10
0.13
0.15
0.15
0.10
0.03
-0.05
-0.10
-0.10
-0.05
0.02
0.10
0.16
0.19
0.18
0.11
0.01
-0.11
-0.19
-0.19
-0.09
0.10
0.33
0.55
0.72
0.82
0.83
0.74
0.55
0.25
-0.10
-0.45
-0.70
-0.74
-0.53
-0.12
0.37
0.79
0.99
0.93
0.66
0.29
-0.07
-0.34
-0.51
-0.60
-0.65
-0.65
-0.58
-0.45
-0.29
-0.18
-0.21
-0.44
-0.81
-1.21
-1.50
-1.57
-1.42
-1.10
-0.73
-0.38
-0.08
0.16
0.34
0.44
0.46
0.40
0.33
0.33
0.45
0.73
1.13
1.56
1.89
2.04
1.99
1.77
1.46
1.14
0.86
0.64
0.48
0.39
0.37
0.39
0.41
0.39
0.29
0.10
-0.16
-0.43
-0.64
-0.75
-0.77
-0.72
-0.61
-0.48
-0.35
-0.24
-0.20
-0.25
-0.36
-0.49
-0.61
-0.67
-0.67
-0.60
-0.50
-0.39
-0.30
-0.26
-0.28
-0.34
-0.43
-0.50
-0.52
-0.47
-0.35
-0.19
-0.04
0.08
0.17
0.23
0.27
0.31
0.32
0.29
0.27
0.29
0.39
0.56
0.72
0.77
0.63
0.33
-0.02
-0.28
-0.35
-0.23
-0.02
0.18
0.28
0.23
0.05
-0.21
-0.47
-0.63
-0.63
-0.47
-0.23
-0.07
-0.07
-0.23
-0.40
-0.45
-0.28
0.07
0.44
0.66
0.64
0.45
0.20
-0.01
-0.13
-0.23
-0.36
-0.54
-0.68
-0.68
-0.47
-0.02
0.55
1.08
1.38
1.33
0.91
0.25
-0.46
-0.98
-1.15
-0.95
-0.45
0.13
0.60
0.86
0.88
0.76
0.60
0.49
0.46
0.47
0.46
0.42
0.35
0.31
0.34
0.42
0.51
0.53
0.45
0.32
0.21
0.21
0.31
0.42
0.45
0.30
-0.01
-0.40
-0.74
-0.93
-0.95
-0.82
-0.61
-0.41
-0.27
-0.19
-0.19
-0.27
-0.39
-0.56
-0.73
-0.89
-1.01
-1.04
-0.91
-0.61
-0.18
0.29
0.67
0.85
0.82
0.64
0.42
0.26
0.20
0.22
0.25
0.25
0.20
0.13
0.07
0.06
0.12
0.25
0.39
0.50
0.52
0.43
0.26
0.07
-0.06
-0.04
0.09
0.27
0.38
0.37
0.26
0.12
0.07
0.15
0.33
0.53
0.65
0.66
0.60
0.53
0.48
0.46
0.42
0.34
0.22
0.11
0.07
0.09
0.15
0.15
0.05
-0.14
-0.35
-0.50
-0.53
-0.44
-0.24
-0.02
0.18
0.30
0.31
0.18
-0.08
-0.46
-0.90
-1.29
-1.58
-1.70
-1.64
-1.43
-1.15
-0.85
-0.60
-0.44
-0.34
-0.28
-0.19
-0.04
0.13
0.28
0.33
0.25
0.09
-0.09
-0.25
-0.36
-0.42
-0.44
-0.38
-0.22
0.05
0.38
0.66
0.78
0.68
0.40
0.08
-0.16
-0.22
-0.09
0.12
0.34
0.44
0.41
0.23
-0.03
-0.32
-0.58
-0.76
-0.83
-0.81
-0.70
-0.54
-0.37
-0.24
-0.17
-0.18
-0.26
-0.36
-0.42
-0.39
-0.25
0.00
0.31
0.62
0.86
1.01
1.02
0.89
0.64
0.31
-0.05
-0.37
-0.58
-0.64
-0.55
-0.36
-0.16
-0.03
-0.05
-0.23
-0.51
-0.77
-0.89
-0.81
-0.55
-0.22
0.06
0.19
0.17
0.05
-0.05
-0.06
0.03
0.21
0.39
0.51
0.55
0.48
0.34
0.15
-0.05
-0.25
-0.45
-0.64
-0.77
-0.80
-0.69
-0.47
-0.19
0.04
0.13
0.03
-0.21
-0.52
-0.79
-0.98
-1.05
-1.02
-0.94
-0.83
-0.75
-0.74
-0.85
-1.07
-1.39
-1.75
-2.07
-2.29
-2.40
-2.42
-2.41
-2.45
-2.59
-2.80
-3.02
-3.16
-3.15
-2.96
-2.68
-2.41
-2.29
-2.37
-2.58
-2.81
-2.89
-2.76
-2.44
-2.06
-1.71
-1.44
-1.21
-0.94
-0.58
-0.13
0.34
0.79
1.20
1.60
2.01
2.43
2.82
3.15
3.43
3.70
4.00
4.34
4.64
4.84
4.85
4.66
4.27
3.69
2.90
1.96
0.98
0.13
-0.42
-0.58
-0.42
-0.16
-0.08
-0.36
-1.05
-2.03
-3.11
-4.11
-4.94
-5.70
-6.54
-7.58
-8.80
-9.99
-10.80
-10.95
-10.46
-9.73
-9.45
-10.36
-12.83
-16.65
-21.00
-24.84
-27.34
-28.35
-28.51
-28.95
-30.78
-34.56
-39.97
-45.91
-51.03
-54.27
-55.32
-54.77
-53.79
-53.78
-56.04
-61.47
-70.29
-81.55
-92.69
-99.60
-97.62
-83.25
-55.95
-19.02
21.17
57.32
83.83
98.47
102.53
99.39
92.67
84.83
76.94
69.29
62.13
56.07
51.79
49.54
48.84
48.57
47.45
44.66
40.16
34.72
29.52
25.64
23.60
23.15
23.44
23.39
22.21
19.72
16.40
13.11
10.64
9.43
9.33
9.79
10.15
9.94
9.08
7.84
6.65
5.85
5.55
5.61
5.77
5.76
5.48
4.94
4.26
3.53
2.84
2.22
1.68
1.21
0.79
0.41
0.04
-0.30
-0.60
-0.78
-0.81
-0.69
-0.49
-0.32
-0.27
-0.39
-0.68
-1.03
-1.34
-1.48
-1.42
-1.17
-0.84
-0.59
-0.52
-0.67
-0.96
-1.25
-1.43
-1.44
-1.34
-1.21
-1.11
-1.01
-0.87
-0.68
-0.48
-0.38
-0.45
-0.69
-0.99
-1.20
-1.20
-0.99
-0.69
-0.43
-0.34
-0.47
-0.79
-1.22
-1.68
-2.08
-2.38
-2.59
-2.75
-2.95
-3.28
-3.78
-4.44
-5.12
-5.69
-6.00
-6.05
-5.96
-5.94
-6.20
-6.83
-7.75
-8.70
-9.39
-9.61
-9.35
-8.78
-8.20
-7.87
-7.98
-8.58
-9.57
-10.70
-11.54
-11.45
-9.78
-6.04
-0.29
6.78
14.00
20.09
24.12
25.83
25.64
24.37
22.81
21.44
20.34
19.29
18.04
16.50
14.82
13.30
12.17
11.52
11.22
11.02
10.72
10.26
9.79
9.51
9.59
9.99
10.48
10.74
10.55
9.84
8.75
7.48
6.15
4.79
3.24
1.35
-0.93
-3.45
-5.85
-7.71
-8.71
-8.74
-7.95
-6.70
-5.39
-4.30
-3.56
-3.09
-2.71
-2.25
-1.56
-0.62
0.53
1.76
2.95
3.96
4.72
5.20
5.47
5.65
5.83
6.06
6.30
6.40
6.16
5.40
4.07
2.26
0.16
-1.98
-3.94
-5.59
-6.92
-7.98
-8.84
-9.52
-10.04
-10.40
-10.62
-10.73
-10.81
-10.87
-10.91
-10.86
-10.67
-10.32
-9.84
-9.32
-8.81
-8.33
-7.84
-7.31
-6.72
-6.09
-5.45
-4.86
-4.31
-3.81
-3.38
-3.03
-2.80
-2.67
-2.59
-2.50
-2.32
-2.05
-1.72
-1.39
-1.12
-0.96
-0.89
-0.90
-0.95
-0.98
-0.96
-0.85
-0.64
-0.36
-0.05
0.19
0.30
0.25
0.04
-0.26
-0.53
-0.70
-0.70
-0.55
-0.29
-0.01
0.20
0.30
0.27
0.12
-0.09
-0.28
-0.39
-0.38
-0.28
-0.14
-0.00
0.08
0.13
0.14
0.14
0.11
0.06
0.03
0.08
0.26
0.57
0.91
1.15
1.18
0.98
0.60
0.16
-0.23
-0.53
-0.72
-0.80
-0.81
-0.74
-0.62
-0.49
-0.37
-0.25
-0.10
0.13
0.50
0.97
1.47
1.84
1.92
1.64
1.12
0.58
0.32
0.55
1.25
2.22
3.08
3.51
3.37
2.72
1.81
0.95
0.43
0.41
0.89
1.64
2.21
1.96
0.28
-3.16
-8.18
-14.08
-19.81
-24.39
-27.26
-28.46
-28.48
-27.97
-27.33
-26.58
-25.35
-23.22
-20.02
-16.06
-12.02
-8.71
-6.76
-6.39
-7.49
-9.75
-12.82
-16.11
-18.66
-19.13
-16.24
-9.42
0.65
12.00
22.08
28.82
31.41
30.53
27.80
24.85
22.62
21.07
19.49
17.01
13.05
7.50
0.66
-6.92
-14.78
-22.56
-30.15
-37.52
-44.54
-50.93
-56.44
-61.04
-64.95
-68.35
-71.00
-72.05
-70.31
-64.90
-55.87
-44.25
-31.60
-19.21
-7.54
3.69
14.89
25.99
36.24
44.56
50.20
53.14
54.01
53.62
52.50
50.69
47.98
44.26
39.67
34.72
30.10
26.40
23.96
22.74
22.40
22.37
22.01
20.81
18.55
15.38
11.80
8.43
5.77
4.03
3.04
2.45
1.90
1.30
0.85
0.88
1.72
3.39
5.62
7.99
10.11
11.91
13.62
15.68
18.49
22.23
26.78
31.80
36.90
41.74
46.14
50.05
53.54
56.77
59.95
63.29
66.99
71.05
75.33
79.51
83.26
86.44
89.17
91.81
94.79
98.31
102.27
106.27
109.93
113.12
116.08
119.36
123.50
128.79
135.37
143.39
153.12
164.68
177.36
189.11
196.66
196.29
185.28
162.92
130.75
91.61
48.22
2.31
-45.22
-93.22
-139.23
-179.35
-209.43
-226.84
-231.72
-226.98
-216.94
-205.42
-194.48
-184.32
-174.06
-163.02
-151.40
-140.15
-130.32
-122.34
-115.78
-109.69
-103.11
-95.54
-87.16
-78.68
-70.94
-64.54
-59.61
-55.77
-52.36
-48.71
-44.48
-39.74
-34.89
-30.45
-26.73
-23.75
-21.24
-18.86
-16.40
-13.89
-11.56
-9.71
-8.53
-8.04
-8.05
-8.31
-8.61
-8.82
-8.96
-9.12
-9.45
-10.07
-11.04
-12.32
-13.75
-15.14
-16.36
-17.38
-18.34
-19.47
-20.99
-22.98
-25.35
-27.85
-30.20
-32.26
-34.05
-35.81
-37.79
-40.13
-42.79
-45.56
-48.21
-50.54
-52.45
-53.93
-54.98
-55.66
-56.14
-56.92
-58.62
-61.59
-65.26
-67.62
-65.14
-53.45
-28.72
10.62
62.85
122.96
183.77
237.75
278.50
301.68
305.08
288.58
254.24
206.44
151.77
98.01
52.24
18.77
-1.98
-13.08
-19.33
-24.91
-31.84
-39.76
-47.08
-52.41
-55.32
-56.45
-56.80
-57.00
-56.99
-56.35
-54.77
-52.38
-49.80
-47.77
-46.71
-46.54
-46.73
-46.62
-45.79
-44.28
-42.56
-41.27
-40.96
-41.81
-43.62
-45.91
-48.13
-49.90
-51.19
-52.32
-53.79
-56.02
-59.18
-63.04
-67.15
-71.06
-74.64
-78.19
-82.22
-87.10
-92.82
-98.94
-104.81
-109.84
-113.58
-115.71
-116.04
-114.81
-112.97
-112.25
-114.37
-119.92
-127.21
-132.17
-129.52
-114.88
-86.47
-45.66
4.02
58.43
114.01
167.82
217.04
258.53
289.34
307.84
314.71
312.69
305.05
293.72
278.29
256.78
227.50
191.06
151.17
113.57
83.74
64.54
55.12
51.70
49.49
44.94
36.99
26.88
16.88
8.82
3.38
0.31
-0.65
0.92
5.81
13.94
22.95
27.81
22.46
2.56
-31.74
-75.08
-118.57
-153.40
-174.32
-181.39
-179.11
-173.49
-169.13
-167.55
-167.66
-167.54
-166.24
-164.47
-163.69
-164.83
-167.43
-169.95
-170.86
-169.58
-166.33
-161.27
-153.31
-139.92
-118.15
-86.40
-45.85
-0.65
43.35
80.61
107.67
123.69
130.00
128.95
123.10
114.74
105.90
98.31
93.17
91.00
91.42
93.33
95.20
95.61
93.76
89.63
83.95
77.79
72.07
67.25
63.27
59.71
56.07
51.99
47.42
42.57
37.81
33.54
29.99
27.16
24.90
22.96
21.16
19.39
17.66
16.03
14.57
13.34
12.32
11.46
10.65
9.79
8.73
7.42
5.85
4.17
2.57
1.26
0.36
-0.11
-0.25
-0.18
-0.03
0.10
0.17
0.16
0.07
-0.07
-0.23
-0.35
-0.40
-0.39
-0.29
-0.09
0.29
0.99
2.13
3.79
5.91
8.30
10.66
12.67
14.08
14.77
14.74
14.10
12.97
11.45
9.65
7.66
5.63
3.71
2.06
0.76
-0.15
-0.74
-1.11
-1.40
-1.69
-2.02
-2.34
-2.57
-2.68
-2.68
-2.68
-2.83
-3.25
-3.98
-4.93
-5.91
-6.71
-7.16
-7.23
-7.01
-6.61
-6.14
-5.64
-5.12
-4.57
-4.03
-3.54
-3.19
-2.98
-2.87
-2.80
-2.67
-2.44
-2.15
-1.85
-1.60
-1.43
-1.36
-1.36
-1.36
-1.32
-1.19
-0.97
-0.74
-0.59
-0.62
-0.83
-1.16
-1.45
-1.60
-1.58
-1.47
-1.40
-1.43
-1.53
-1.59
-1.48
-1.18
-0.78
-0.42
-0.20
-0.14
-0.18
-0.25
-0.33
-0.48
-0.74
-1.07
-1.32
-1.29
-0.86
-0.09
0.80
1.49
1.76
1.56
1.09
0.62
0.39
0.48
0.78
1.13
1.38
1.45
1.40
1.28
1.16
1.05
0.93
0.83
0.76
0.75
0.78
0.81
0.77
0.64
0.43
0.16
-0.14
-0.48
-0.84
-1.19
-1.45
-1.53
-1.41
-1.13
-0.79
-0.53
-0.42
-0.48
-0.64
-0.82
-0.94
-0.97
-0.89
-0.76
-0.61
-0.48
-0.41
-0.37
-0.36
-0.32
-0.22
-0.04
0.22
0.52
0.82
1.02
1.07
0.95
0.70
0.38
0.08
-0.15
-0.29
-0.36
-0.38
-0.38
-0.35
-0.27
-0.14
0.03
0.21
0.35
0.41
0.40
0.34
0.30
0.33
0.46
0.68
0.93
1.15
1.29
1.34
1.30
1.19
1.03
0.84
0.66
0.49
0.33
0.19
0.05
-0.12
-0.33
-0.58
-0.84
-1.07
-1.20
-1.18
-1.03
-0.77
-0.51
-0.30
-0.17
-0.11
-0.06
-0.01
-0.01
-0.09
-0.28
-0.54
-0.77
-0.90
-0.88
-0.75
-0.57
-0.41
-0.30
-0.23
-0.22
-0.23
-0.27
-0.27
-0.18
0.04
0.37
0.69
0.86
0.76
0.40
-0.08
-0.49
-0.67
-0.60
-0.39
-0.19
-0.11
-0.17
-0.29
-0.33
-0.25
-0.07
0.13
0.23
0.22
0.14
0.09
0.13
0.28
0.47
0.62
0.63
0.50
0.24
-0.09
-0.47
-0.86
-1.24
-1.54
-1.69
-1.66
-1.46
-1.18
-0.91
-0.73
-0.63
-0.54
-0.41
-0.22
-0.01
0.12
0.12
0.01
-0.14
-0.23
-0.20
-0.08
0.10
0.28
0.41
0.48
0.47
0.40
0.26
0.08
-0.14
-0.38
-0.59
-0.73
-0.78
-0.74
-0.60
-0.38
-0.12
0.16
0.44
0.67
0.81
0.84
0.74
0.52
0.23
-0.06
-0.29
-0.42
-0.40
-0.23
0.05
0.39
0.67
0.79
0.68
0.40
0.09
-0.11
-0.08
0.13
0.38
0.53
0.49
0.30
0.08
-0.04
-0.04
0.03
0.06
-0.00
-0.12
-0.21
-0.20
-0.07
0.07
0.12
0.02
-0.17
-0.35
-0.43
-0.37
-0.23
-0.10
-0.05
-0.08
-0.15
-0.18
-0.10
0.06
0.25
0.42
0.50
0.50
0.45
0.38
0.31
0.24
0.15
0.01
-0.18
-0.37
-0.49
-0.48
-0.32
-0.05
0.21
0.37
0.38
0.26
0.12
0.06
0.12
0.28
0.42
0.46
0.33
0.05
-0.27
-0.55
-0.69
-0.69
-0.58
-0.39
-0.19
0.00
0.12
0.12
-0.00
-0.23
-0.48
-0.62
-0.58
-0.31
0.12
0.58
0.93
1.07
0.98
0.70
0.33
-0.06
-0.42
-0.69
-0.83
-0.82
-0.70
-0.49
-0.27
-0.09
0.04
0.15
0.29
0.47
0.66
0.80
0.82
0.68
0.41
0.08
-0.19
-0.33
-0.31
-0.19
-0.01
0.14
0.25
0.31
0.34
0.35
0.33
0.28
0.18
0.10
0.07
0.12
0.24
0.35
0.38
0.29
0.08
-0.17
-0.41
-0.61
-0.75
-0.87
-0.95
-0.97
-0.89
-0.72
-0.50
-0.27
-0.05
0.16
0.37
0.57
0.71
0.74
0.62
0.34
-0.03
-0.39
-0.64
-0.71
-0.59
-0.32
0.02
0.36
0.63
0.81
0.85
0.77
0.58
0.32
0.09
-0.05
-0.05
0.07
0.25
0.42
0.56
0.68
0.85
1.06
1.26
1.36
1.29
1.08
0.84
0.71
0.77
1.02
1.33
1.57
1.65
1.59
1.46
1.38
1.43
1.61
1.86
2.10
2.25
2.27
2.17
2.00
1.79
1.55
1.26
0.88
0.43
-0.04
-0.42
-0.67
-0.77
-0.78
-0.77
-0.78
-0.81
-0.80
-0.71
-0.52
-0.23
0.14
0.58
1.13
1.78
2.50
3.20
3.79
4.22
4.46
4.58
4.66
4.80
5.06
5.52
6.18
6.96
7.67
8.04
7.82
6.84
5.18
3.10
0.99
-0.75
-1.89
-2.42
-2.51
-2.47
-2.62
-3.16
-4.08
-5.25
-6.43
-7.39
-7.95
-8.08
-7.86
-7.41
-6.86
-6.31
-5.82
-5.43
-5.15
-4.96
-4.84
-4.72
-4.53
-4.25
-3.86
-3.40
-2.92
-2.45
-2.04
-1.70
-1.45
-1.30
-1.23
-1.19
-1.11
-0.92
-0.60
-0.20
0.17
0.38
0.35
0.09
-0.28
-0.62
-0.79
-0.76
-0.58
-0.34
-0.11
0.10
0.32
0.53
0.66
0.64
0.42
0.05
-0.34
-0.57
-0.57
-0.33
0.01
0.28
0.35
0.19
-0.14
-0.49
-0.74
-0.81
-0.70
-0.51
-0.36
-0.33
-0.42
-0.54
-0.60
-0.52
-0.31
-0.02
0.27
0.47
0.57
0.57
0.47
0.31
0.15
0.07
0.11
0.27
0.50
0.70
0.79
0.75
0.62
0.46
0.34
0.25
0.17
0.04
-0.13
-0.32
-0.45
-0.46
-0.34
-0.14
0.07
0.17
0.10
-0.12
-0.41
-0.66
-0.77
-0.70
-0.49
-0.21
0.03
0.21
0.32
0.42
0.56
0.76
0.95
1.05
0.99
0.78
0.45
0.12
-0.15
-0.33
-0.44
-0.53
-0.60
-0.62
-0.55
-0.37
-0.11
0.17
0.40
0.52
0.51
0.38
0.15
-0.15
-0.47
-0.73
-0.87
-0.82
-0.59
-0.25
0.08
0.30
0.38
0.33
0.23
0.15
0.17
0.27
0.40
0.50
0.51
0.41
0.24
0.02
-0.23
-0.49
-0.77
-1.00
-1.13
-1.11
-0.91
-0.60
-0.27
-0.05
0.02
-0.04
-0.13
-0.19
-0.18
-0.12
-0.07
-0.05
-0.07
-0.12
-0.19
-0.26
-0.29
-0.26
-0.12
0.16
0.53
0.91
1.19
1.31
1.29
1.21
1.14
1.08
0.94
0.67
0.25
-0.21
-0.53
-0.58
-0.34
0.05
0.39
0.52
0.38
0.07
-0.26
-0.47
-0.53
-0.50
-0.50
-0.59
-0.76
-0.94
-1.01
-0.92
-0.68
-0.36
-0.05
0.18
0.35
0.49
0.66
0.83
0.93
0.86
0.58
0.17
-0.22
-0.47
-0.49
-0.36
-0.19
-0.13
-0.22
-0.43
-0.66
-0.81
-0.83
-0.72
-0.54
-0.33
-0.16
-0.05
0.03
0.08
0.12
0.16
0.17
0.16
0.14
0.15
0.22
0.36
0.52
0.62
0.57
0.35
0.03
-0.28
-0.47
-0.51
-0.41
-0.22
-0.01
0.18
0.35
0.50
0.65
0.78
0.90
0.99
1.01
0.93
0.77
0.58
0.43
0.38
0.42
0.49
0.49
0.33
0.00
-0.42
-0.81
-1.08
-1.17
-1.06
-0.80
-0.43
0.01
0.43
0.74
0.85
0.69
0.29
-0.23
-0.68
-0.95
-0.94
-0.71
-0.34
0.02
0.27
0.35
0.26
0.03
-0.27
-0.55
-0.74
-0.79
-0.69
-0.50
-0.27
-0.11
-0.03
-0.03
-0.04
0.02
0.18
0.43
0.72
0.93
0.99
0.88
0.65
0.40
0.19
0.05
-0.07
-0.24
-0.48
-0.72
-0.87
-0.82
-0.57
-0.22
0.05
0.14
0.01
-0.24
-0.47
-0.58
-0.57
-0.50
-0.46
-0.45
-0.44
-0.36
-0.21
-0.05
0.01
-0.13
-0.45
-0.89
-1.29
-1.52
-1.55
-1.43
-1.28
-1.21
-1.31
-1.56
-1.87
-2.12
-2.24
-2.21
-2.07
-1.90
-1.80
-1.79
-1.85
-1.95
-2.04
-2.15
-2.35
-2.72
-3.33
-4.13
-4.95
-5.55
-5.75
-5.43
-4.64
-3.46
-2.00
-0.29
1.63
3.67
5.62
7.19
8.13
8.31
7.86
7.07
6.27
5.64
5.22
4.88
4.50
4.03
3.54
3.09
2.73
2.46
2.19
1.88
1.50
1.09
0.67
0.29
-0.03
-0.27
-0.41
-0.44
-0.42
-0.39
-0.44
-0.56
-0.70
-0.74
-0.59
-0.24
0.21
0.61
0.78
0.68
0.35
-0.03
-0.26
-0.23
0.06
0.46
0.78
0.86
0.64
0.21
-0.30
-0.75
-1.04
-1.15
-1.08
-0.89
-0.62
-0.33
-0.12
-0.04
-0.11
-0.31
-0.58
-0.84
-1.03
-1.11
-1.04
-0.80
-0.38
0.13
0.62
0.93
0.97
0.73
0.31
-0.11
-0.41
-0.51
-0.44
-0.28
-0.13
-0.00
0.09
0.13
0.11
0.01
-0.16
-0.34
-0.45
-0.43
-0.29
-0.07
0.13
0.26
0.29
0.24
0.15
0.02
-0.14
-0.35
-0.60
-0.86
-1.05
-1.12
-1.01
-0.71
-0.27
0.22
0.62
0.79
0.69
0.38
-0.03
-0.41
-0.67
-0.79
-0.79
-0.68
-0.46
-0.13
0.27
0.65
0.91
0.99
0.92
0.80
0.73
0.76
0.86
0.93
0.87
0.68
0.44
0.22
0.08
0.03
-0.00
-0.05
-0.12
-0.16
-0.15
-0.09
-0.05
-0.07
-0.17
-0.29
-0.33
-0.23
0.00
0.27
0.45
0.44
0.24
-0.07
-0.37
-0.55
-0.56
-0.45
-0.30
-0.17
-0.11
-0.09
-0.09
-0.11
-0.17
-0.28
-0.41
-0.50
-0.48
-0.32
-0.06
0.20
0.37
0.44
0.44
0.47
0.59
0.76
0.90
0.86
0.59
0.15
-0.33
-0.70
-0.86
-0.81
-0.64
-0.50
-0.47
-0.58
-0.76
-0.89
-0.86
-0.63
-0.26
0.16
0.50
0.67
0.68
0.57
0.42
0.29
0.19
0.11
0.03
-0.01
0.02
0.17
0.41
0.67
0.83
0.75
0.41
-0.13
-0.69
-1.10
-1.20
-0.98
-0.55
-0.10
0.23
0.35
0.29
0.16
0.03
-0.02
0.02
0.11
0.24
0.38
0.51
0.58
0.54
0.37
0.09
-0.19
-0.36
-0.35
-0.14
0.18
0.51
0.70
0.71
0.54
0.24
-0.10
-0.37
-0.50
-0.46
-0.28
-0.05
0.15
0.24
0.23
0.17
0.17
0.27
0.46
0.65
0.74
0.67
0.41
0.07
-0.29
-0.58
-0.77
-0.86
-0.85
-0.70
-0.42
-0.04
0.36
0.61
0.62
0.36
-0.08
-0.56
-0.90
-1.01
-0.88
-0.59
-0.25
0.06
0.28
0.39
0.35
0.18
-0.11
-0.44
-0.70
-0.80
-0.71
-0.49
-0.25
-0.13
-0.20
-0.40
-0.62
-0.74
-0.67
-0.41
-0.06
0.28
0.53
0.65
0.68
0.66
0.64
0.63
0.64
0.66
0.67
0.62
0.53
0.41
0.29
0.22
0.24
0.31
0.40
0.44
0.39
0.24
0.01
-0.25
-0.49
-0.63
-0.65
-0.50
-0.20
0.15
0.48
0.66
0.67
0.54
0.34
0.16
0.04
-0.04
-0.10
-0.18
-0.24
-0.24
-0.16
-0.01
0.13
0.17
0.08
-0.12
-0.32
-0.45
-0.45
-0.40
-0.36
-0.43
-0.59
-0.78
-0.90
-0.88
-0.75
-0.58
-0.47
-0.49
-0.59
-0.69
-0.69
-0.53
-0.25
0.09
0.42
0.65
0.77
0.79
0.72
0.59
0.43
0.26
0.08
-0.08
-0.17
-0.19
-0.11
0.04
0.23
0.38
0.48
0.49
0.45
0.38
0.32
0.29
0.27
0.27
0.30
0.36
0.40
0.39
0.28
0.07
-0.18
-0.40
-0.51
-0.46
-0.30
-0.08
0.11
0.23
0.26
0.19
0.04
-0.17
-0.41
-0.60
-0.68
-0.61
-0.39
-0.10
0.16
0.34
0.42
0.46
0.50
0.55
0.59
0.52
0.29
-0.07
-0.43
-0.66
-0.66
-0.43
-0.08
0.25
0.47
0.57
0.59
0.59
0.57
0.48
0.28
-0.02
-0.33
-0.55
-0.59
-0.45
-0.22
-0.03
0.04
-0.03
-0.20
-0.41
-0.61
-0.76
-0.86
-0.90
-0.87
-0.75
-0.56
-0.32
-0.07
0.15
0.32
0.42
0.42
0.32
0.14
-0.05
-0.20
-0.27
-0.27
-0.22
-0.16
-0.11
-0.05
0.01
0.07
0.13
0.17
0.20
0.24
0.29
0.35
0.41
0.46
0.47
0.47
0.47
0.47
0.43
0.34
0.18
-0.02
-0.21
-0.36
-0.43
-0.44
-0.38
-0.28
-0.15
-0.02
0.07
0.10
0.09
0.04
0.01
-0.00
-0.00
-0.02
-0.06
-0.12
-0.16
-0.14
-0.06
0.06
0.14
0.13
0.00
-0.19
-0.39
-0.51
-0.53
-0.43
-0.25
-0.03
0.18
0.35
0.44
0.44
0.37
0.23
0.08
-0.06
-0.17
-0.22
-0.22
-0.14
0.01
0.19
0.38
0.50
0.51
0.41
0.26
0.13
0.12
0.25
0.48
0.73
0.93
1.01
0.99
0.91
0.84
0.78
0.71
0.54
0.24
-0.20
-0.68
-1.04
-1.13
-0.91
-0.46
0.04
0.38
0.41
0.15
-0.27
-0.65
-0.82
-0.74
-0.51
-0.26
-0.08
0.01
0.03
0.05
0.06
0.02
-0.08
-0.24
-0.41
-0.49
-0.46
-0.34
-0.21
-0.13
-0.13
-0.18
-0.24
-0.28
-0.32
-0.36
-0.41
-0.45
-0.44
-0.35
-0.21
-0.05
0.09
0.21
0.28
0.30
0.26
0.15
-0.01
-0.17
-0.26
-0.27
-0.22
-0.16
-0.15
-0.18
-0.18
-0.06
0.18
0.49
0.74
0.82
0.69
0.43
0.14
-0.09
-0.21
-0.21
-0.10
0.09
0.33
0.55
0.67
0.61
0.38
0.02
-0.35
-0.63
-0.75
-0.70
-0.52
-0.27
0.00
0.26
0.45
0.56
0.58
0.53
0.42
0.30
0.19
0.08
-0.00
-0.04
-0.01
0.14
0.37
0.64
0.87
0.95
0.83
0.52
0.06
-0.43
-0.84
-1.09
-1.14
-1.00
-0.74
-0.43
-0.16
0.02
0.08
0.06
0.02
0.05
0.18
0.38
0.58
0.68
0.64
0.46
0.19
-0.09
-0.34
-0.55
-0.71
-0.79
-0.78
-0.66
-0.45
-0.19
0.02
0.10
0.03
-0.14
-0.33
-0.40
-0.29
-0.01
0.36
0.68
0.87
0.88
0.74
0.50
0.23
-0.04
-0.27
-0.43
-0.50
-0.49
-0.42
-0.35
-0.34
-0.42
-0.57
-0.73
-0.84
-0.82
-0.64
-0.32
0.10
0.51
0.81
0.92
0.82
0.57
0.27
0.02
-0.10
-0.10
-0.02
0.08
0.17
0.23
0.26
0.24
0.15
-0.02
-0.26
-0.51
-0.69
-0.75
-0.65
-0.43
-0.18
0.02
0.13
0.14
0.13
0.15
0.20
0.25
0.22
0.06
-0.20
-0.46
-0.58
-0.47
-0.14
0.28
0.63
0.80
0.76
0.57
0.34
0.15
0.06
0.08
0.19
0.35
0.48
0.54
0.49
0.33
0.13
-0.06
-0.18
-0.21
-0.16
-0.03
0.14
0.34
0.50
0.55
0.41
0.08
-0.35
-0.71
-0.85
-0.69
-0.29
0.19
0.58
0.75
0.70
0.48
0.20
-0.07
-0.28
-0.42
-0.50
-0.51
-0.46
-0.34
-0.16
0.05
0.23
0.30
0.23
0.05
-0.14
-0.22
-0.11
0.15
0.40
0.47
0.28
-0.11
-0.51
-0.73
-0.65
-0.31
0.13
0.48
0.63
0.55
0.30
-0.01
-0.30
-0.52
-0.65
-0.65
-0.54
-0.30
0.03
0.37
0.62
0.69
0.54
0.19
-0.22
-0.56
-0.69
-0.58
-0.32
-0.04
0.10
0.06
-0.14
-0.37
-0.52
-0.53
-0.40
-0.22
-0.04
0.08
0.14
0.18
0.19
0.17
0.14
0.09
0.05
0.06
0.14
0.27
0.41
0.48
0.44
0.30
0.12
-0.02
-0.03
0.12
0.41
0.75
1.03
1.15
1.06
0.79
0.44
0.09
-0.16
-0.30
-0.33
-0.29
-0.21
-0.09
0.06
0.19
0.25
0.18
-0.04
-0.35
-0.65
-0.84
-0.91
-0.90
-0.91
-0.96
-1.04
-1.06
-0.95
-0.70
-0.37
-0.03
0.26
0.50
0.68
0.81
0.83
0.70
0.42
0.05
-0.28
-0.47
-0.51
-0.43
-0.32
-0.23
-0.15
-0.05
0.09
0.26
0.38
0.37
0.20
-0.09
-0.43
-0.70
-0.86
-0.89
-0.81
-0.65
-0.48
-0.34
-0.25
-0.21
-0.19
-0.13
-0.01
0.18
0.40
0.59
0.70
0.71
0.65
0.57
0.48
0.38
0.25
0.07
-0.14
-0.30
-0.33
-0.23
-0.04
0.11
0.12
0.00
-0.17
-0.27
-0.21
-0.01
0.23
0.39
0.39
0.26
0.02
-0.25
-0.53
-0.81
-1.07
-1.29
-1.43
-1.49
-1.51
-1.59
-1.80
-2.17
-2.64
-3.09
-3.39
-3.51
-3.46
-3.32
-3.18
-3.08
-2.98
-2.81
-2.54
-2.24
-2.01
-2.03
-2.40
-3.13
-4.13
-5.25
-6.28
-7.08
-7.57
-7.81
-7.94
-8.17
-8.63
-9.35
-10.26
-11.17
-11.84
-11.95
-11.17
-9.27
-6.23
-2.31
1.94
5.83
8.74
10.31
10.55
9.80
8.55
7.21
6.09
5.25
4.67
4.29
4.10
4.18
4.60
5.40
6.45
7.53
8.36
8.77
8.75
8.48
8.16
7.92
7.70
7.33
6.65
5.62
4.34
3.04
1.94
1.21
0.90
0.94
1.18
1.44
1.56
1.46
1.14
0.71
0.31
0.00
-0.19
-0.32
-0.44
-0.57
-0.67
-0.72
-0.68
-0.61
-0.60
-0.72
-1.00
-1.40
-1.80
-2.07
-2.12
-1.90
-1.45
-0.88
-0.34
-0.03
-0.07
-0.50
-1.26
-2.16
-2.99
-3.56
-3.77
-3.66
-3.37
-3.10
-3.02
-3.26
-3.78
-4.45
-5.01
-5.22
-4.87
-3.96
-2.73
-1.59
-0.98
-1.20
-2.25
-3.81
-5.37
-6.47
-6.81
-6.40
-5.43
-4.15
-2.73
-1.26
0.27
1.89
3.73
6.13
9.65
14.94
22.50
32.42
44.12
56.54
68.31
78.24
85.74
90.96
94.74
98.25
102.56
108.20
115.00
122.18
128.66
133.59
136.64
138.20
139.21
140.93
144.51
150.58
158.79
167.50
173.81
174.10
164.95
144.12
111.32
68.46
19.36
-31.13
-78.29
-118.43
-149.57
-171.40
-184.92
-191.76
-193.60
-191.79
-187.29
-180.75
-172.72
-163.72
-154.23
-144.59
-135.05
-125.79
-117.03
-108.96
-101.74
-95.34
-89.68
-84.57
-79.78
-75.06
-70.14
-64.92
-59.66
-55.00
-51.72
-50.15
-49.72
-48.88
-45.66
-38.61
-27.70
-14.52
-1.85
7.50
11.68
10.35
4.57
-3.96
-13.64
-23.43
-32.88
-41.82
-50.07
-57.34
-63.34
-68.02
-71.67
-74.92
-78.51
-82.82
-87.76
-92.68
-96.84
-100.07
-103.10
-107.46
-114.50
-124.20
-134.49
-141.40
-140.26
-127.25
-100.72
-61.75
-13.87
37.89
88.22
132.58
168.07
193.79
210.76
221.31
228.13
233.35
238.02
242.29
245.98
249.12
252.24
255.90
260.37
265.54
270.96
276.26
281.17
285.11
286.79
284.10
274.45
255.77
227.35
190.09
146.00
97.21
45.33
-8.41
-62.33
-113.50
-157.77
-190.87
-210.18
-215.85
-210.94
-200.00
-187.28
-175.31
-164.65
-154.60
-144.45
-134.19
-124.53
-116.28
-109.66
-104.05
-98.37
-91.62
-83.51
-74.49
-65.64
-58.03
-52.25
-48.15
-44.97
-41.71
-37.63
-32.61
-27.16
-22.16
-18.40
-16.30
-15.67
-15.94
-16.41
-16.59
-16.29
-15.71
-15.15
-14.87
-14.87
-14.90
-14.62
-13.75
-12.26
-10.39
-8.51
-6.98
-5.98
-5.49
-5.28
-5.13
-4.85
-4.40
-3.80
-3.15
-2.52
-1.98
-1.60
-1.38
-1.27
-1.17
-0.94
-0.53
0.04
0.61
1.02
1.14
0.98
0.65
0.31
0.11
0.09
0.22
0.40
0.53
0.58
0.54
0.50
0.49
0.55
0.63
0.67
0.62
0.44
0.16
-0.16
-0.46
-0.71
-0.88
-0.99
-1.06
-1.13
-1.23
-1.40
-1.65
-1.99
-2.41
-2.84
-3.22
-3.45
-3.49
-3.29
-2.89
-2.32
-1.65
-0.97
-0.36
0.06
0.17
-0.08
-0.67
-1.47
-2.24
-2.79
-2.95
-2.70
-2.09
-1.22
-0.20
0.87
1.86
2.64
3.09
3.20
3.08
2.93
2.91
3.12
3.52
3.97
4.30
4.38
4.12
3.51
2.59
1.43
0.13
-1.15
-2.29
-3.15
-3.63
-3.73
-3.47
-2.97
-2.31
-1.60
-0.89
-0.26
0.19
0.33
0.07
-0.50
-1.13
-1.42
-1.03
0.13
1.82
3.60
5.03
5.86
6.15
6.07
5.76
5.21
4.28
2.87
1.05
-0.88
-2.48
-3.41
-3.55
-3.07
-2.27
-1.50
-0.97
-0.71
-0.59
-0.44
-0.13
0.35
0.89
1.34
1.55
1.46
1.14
0.68
0.17
-0.31
-0.72
-1.02
-1.18
-1.20
-1.14
-1.07
-1.11
-1.34
-1.76
-2.31
-2.88
-3.37
-3.70
-3.85
-3.86
-3.77
-3.68
-3.63
-3.64
-3.70
-3.73
-3.67
-3.47
-3.13
-2.72
-2.29
-1.91
-1.59
-1.28
-0.93
-0.46
0.18
0.99
1.95
3.00
4.06
5.07
5.96
6.66
7.11
7.26
7.10
6.69
6.14
5.57
5.04
4.56
4.02
3.30
2.32
1.07
-0.32
-1.65
-2.69
-3.30
-3.44
-3.24
-2.89
-2.54
-2.26
-1.99
-1.64
-1.14
-0.57
-0.09
0.10
-0.10
-0.64
-1.36
-2.10
-2.73
-3.25
-3.70
-4.16
-4.64
-5.14
-5.62
-6.04
-6.37
-6.57
-6.65
-6.67
-6.72
-6.94
-7.44
-8.24
-9.23
-10.24
-11.11
-11.72
-12.10
-12.42
-12.91
-13.81
-15.26
-17.28
-19.67
-22.12
-24.20
-25.57
-26.14
-26.16
-26.17
-26.75
-28.23
-30.42
-32.60
-33.82
-33.35
-31.10
-27.77
-24.57
-22.70
-22.81
-24.62
-27.15
-29.18
-29.80
-28.85
-26.79
-24.48
-22.72
-22.20
-23.54
-27.23
-33.15
-39.84
-44.03
-41.11
-26.76
0.94
40.03
84.80
127.67
161.98
184.20
194.64
196.40
193.50
189.15
185.20
182.44
181.31
182.11
184.45
186.47
184.42
173.50
149.52
111.19
61.45
7.17
-42.94
-81.34
-104.24
-112.43
-110.21
-103.04
-95.20
-88.69
-83.48
-78.67
-73.67
-68.65
-64.28
-61.10
-59.05
-57.48
-55.55
-52.77
-49.17
-45.34
-42.01
-39.64
-38.14
-36.92
-35.19
-32.32
-28.25
-23.44
-18.75
-14.98
-12.57
-11.47
-11.27
-11.48
-11.76
-12.00
-12.26
-12.58
-12.90
-13.01
-12.68
-11.77
-10.28
-8.37
-6.29
-4.31
-2.68
-1.59
-1.09
-1.12
-1.52
-2.08
-2.60
-2.95
-3.10
-3.08
