1659461660.00
64.000000
-0.00
-0.00
-0.00
-0.00
-0.00
-0.00
-0.00
-0.00
-0.00
-0.00
0.00
0.01
0.01
-0.00
-0.03
-0.05
-0.05
0.00
0.13
0.36
0.66
1.01
1.37
1.72
2.06
2.40
2.79
3.24
3.80
4.42
5.06
5.66
6.20
6.68
7.15
7.68
8.31
9.14
10.09
11.04
11.88
12.56
13.14
13.76
14.65
15.96
17.91
20.32
22.90
25.38
27.58
29.57
31.68
34.32
37.81
42.54
48.15
54.10
59.83
64.97
69.58
74.14
79.34
85.71
93.76
103.00
112.62
121.73
129.77
136.75
143.30
150.74
157.78
166.67
177.99
191.83
206.97
220.47
228.03
225.02
208.07
176.35
132.22
79.51
22.54
-35.50
-93.07
-149.91
-206.12
-261.36
-314.77
-364.87
-410.78
-451.84
-487.52
-516.96
-538.75
-551.06
-552.05
-540.54
-516.31
-480.67
-435.86
-384.67
-329.80
-273.45
-217.12
-161.84
-108.45
-57.82
-11.13
30.40
65.79
94.60
117.10
134.21
147.09
156.82
164.03
168.77
170.74
169.59
165.35
158.56
150.23
141.47
133.12
125.51
118.39
111.20
103.36
94.41
84.06
72.32
59.70
47.49
37.86
33.20
35.29
44.17
57.79
72.55
84.68
91.68
93.09
90.36
85.42
79.75
73.95
67.93
61.46
54.74
48.36
42.96
38.82
35.71
33.04
30.20
26.84
23.04
19.16
15.72
13.09
11.39
10.42
9.79
9.11
8.06
6.63
5.00
3.50
2.45
1.96
1.87
1.80
1.37
0.46
-0.71
-1.62
-1.82
-1.15
0.06
1.16
1.48
0.69
-1.04
-3.16
-5.01
-6.11
-6.36
-5.96
-5.28
-4.61
-4.13
-3.84
-3.67
-3.57
-3.48
-3.38
-3.30
-3.27
-3.30
-3.38
-3.45
-3.43
-3.25
-2.90
-2.45
-2.01
-1.69
-1.48
-1.25
-0.81
-0.03
1.01
2.05
2.77
2.97
2.71
2.30
2.07
2.22
2.74
3.43
4.06
4.58
5.07
5.65
6.40
7.23
8.02
8.66
9.15
9.49
9.66
9.50
8.82
7.57
5.70
3.38
0.86
-1.66
-4.08
-6.31
-8.30
-9.93
-11.09
-11.76
-11.97
-11.82
-11.44
-10.91
-10.29
-9.64
-9.03
-8.53
-8.23
-8.09
-8.03
-7.88
-7.51
-6.90
-6.13
-5.37
-4.76
-4.37
-4.17
-4.05
-3.92
-3.74
-3.52
-3.32
-3.15
-2.97
-2.67
-2.16
-1.44
-0.64
0.09
0.57
0.74
0.63
0.37
0.09
-0.12
-0.23
-0.31
-0.46
-0.76
-1.21
-1.75
-2.25
-2.59
-2.74
-2.72
-2.61
-2.51
-2.48
-2.51
-2.57
-2.61
-2.68
-2.82
-3.06
-3.38
-3.70
-3.90
-3.90
-3.70
-3.40
-3.14
-3.03
-3.18
-3.58
-4.15
-4.76
-5.25
-5.44
-5.21
-4.51
-3.40
-2.06
-0.72
0.45
1.39
2.14
2.82
3.47
4.05
4.43
4.51
4.26
3.81
3.33
2.96
2.74
2.58
2.36
1.98
1.50
1.06
0.82
0.87
1.10
1.34
1.35
0.97
0.25
-0.65
-1.50
-2.11
-2.41
-2.45
-2.36
-2.28
-2.33
-2.55
-2.98
-3.59
-4.35
-5.13
-5.75
-5.97
-5.63
-4.66
-3.16
-1.42
0.25
1.55
2.34
2.68
2.73
2.73
2.82
3.07
3.41
3.73
3.96
4.05
4.02
3.94
3.86
3.81
3.83
3.93
4.12
4.37
4.66
4.90
5.04
5.01
4.77
4.30
3.63
2.79
1.82
0.81
-0.14
-0.96
-1.60
-2.12
-2.62
-3.19
-3.89
-4.64
-5.29
-5.61
-5.45
-4.76
-3.63
-2.25
-0.85
0.39
1.38
2.11
2.64
3.02
3.26
3.32
3.14
2.70
2.09
1.49
1.10
1.06
1.39
1.94
2.50
2.88
2.97
2.77
2.38
1.89
1.39
0.91
0.48
0.10
-0.22
-0.46
-0.61
-0.69
-0.74
-0.82
-0.96
-1.15
-1.38
-1.64
-1.92
-2.25
-2.62
-2.97
-3.19
-3.13
-2.70
-1.90
-0.86
0.23
1.19
1.89
2.28
2.38
2.20
1.78
1.20
0.63
0.23
0.16
0.45
0.97
1.52
1.87
1.87
1.53
0.96
0.36
-0.14
-0.45
-0.57
-0.52
-0.38
-0.15
0.13
0.46
0.83
1.16
1.40
1.46
1.30
0.92
0.34
-0.32
-0.94
-1.38
-1.54
-1.34
-0.82
-0.06
0.80
1.59
2.21
2.61
2.79
2.78
2.66
2.45
2.20
1.89
1.50
1.02
0.53
0.12
-0.11
-0.08
0.15
0.44
0.65
0.71
0.63
0.54
0.52
0.55
0.53
0.31
-0.15
-0.77
-1.38
-1.76
-1.83
-1.62
-1.28
-0.97
-0.86
-1.00
-1.37
-1.88
-2.39
-2.75
-2.83
-2.58
-2.04
-1.32
-0.54
0.20
0.89
1.53
2.09
2.51
2.70
2.66
2.43
2.18
2.07
2.13
2.30
2.38
2.25
1.91
1.47
1.14
1.04
1.15
1.36
1.53
1.58
1.53
1.43
1.32
1.17
0.93
0.56
0.16
-0.11
-0.10
0.25
0.81
1.30
1.42
0.95
-0.10
-1.47
-2.78
-3.68
-4.02
-3.88
-3.56
-3.37
-3.56
-4.15
-4.95
-5.69
-6.15
-6.25
-6.07
-5.81
-5.65
-5.67
-5.84
-6.09
-6.40
-6.77
-7.26
-7.89
-8.56
-9.10
-9.43
-9.60
-9.88
-10.69
-12.38
-14.96
-18.03
-20.76
-22.20
-21.61
-18.76
-14.05
-8.36
-2.73
2.03
5.58
8.01
9.68
10.93
11.98
12.88
13.59
14.14
14.63
15.14
15.67
16.04
16.06
15.63
14.83
13.92
13.24
12.95
12.98
13.01
12.67
11.73
10.25
8.65
7.52
7.37
8.46
10.65
13.37
15.83
17.17
16.68
14.10
9.70
4.35
-0.69
-4.13
-5.11
-3.60
-0.42
3.08
5.53
6.13
4.87
2.41
-0.36
-2.70
-4.25
-4.98
-4.97
-4.28
-2.96
-1.16
0.74
2.20
2.69
1.98
0.26
-1.91
-3.84
-5.02
-5.31
-4.95
-4.40
-4.12
-4.35
-5.03
-5.78
-6.12
-5.57
-3.91
-1.29
1.75
4.44
5.95
5.69
3.55
-0.08
-4.35
-8.23
-10.82
-11.57
-10.53
-8.20
-5.41
-3.02
-1.61
-1.39
-2.14
-3.42
-4.65
-5.40
-5.40
-4.66
-3.35
-1.82
-0.44
0.49
0.83
0.68
0.33
0.12
0.35
1.11
2.26
3.51
4.52
4.99
4.79
3.93
2.68
1.50
1.01
1.82
4.29
8.23
12.79
16.57
18.01
16.03
10.55
2.69
-5.51
-11.76
-14.43
-13.15
-8.97
-3.90
-0.08
1.15
-0.35
-3.56
-6.96
-9.21
-9.73
-8.71
-6.86
-4.89
-3.21
-1.86
-0.72
0.30
1.06
1.32
0.92
-0.05
-1.25
-2.23
-2.64
-2.42
-1.79
-1.07
-0.42
0.29
1.39
3.15
5.47
7.74
9.01
8.43
5.69
1.25
-3.83
-8.31
-11.28
-12.46
-12.23
-11.36
-10.65
-10.62
-11.40
-12.77
-14.36
-15.82
-16.98
-17.85
-18.54
-19.12
-19.56
-19.67
-19.26
-18.18
-16.47
-14.36
-12.14
-10.10
-8.37
-6.88
-5.43
-3.71
-1.35
1.93
6.29
11.58
17.31
22.65
26.65
28.56
28.13
25.80
22.55
19.51
17.55
16.90
17.23
17.89
18.24
17.96
17.03
15.60
13.80
11.63
9.11
6.34
3.66
1.52
0.31
0.13
0.69
1.48
1.95
1.85
1.23
0.43
-0.15
-0.20
0.32
1.25
2.27
3.09
3.48
3.44
3.14
2.85
2.86
3.31
4.12
5.04
5.75
6.01
5.74
5.09
4.29
3.54
2.91
2.29
1.49
0.40
-0.99
-2.53
-3.98
-5.16
-5.94
-6.28
-6.21
-5.77
-5.00
-4.01
-2.91
-1.85
-0.93
-0.20
0.36
0.81
1.18
1.53
1.87
2.23
2.64
3.06
3.44
3.72
3.89
4.06
4.37
4.96
5.85
6.94
8.06
9.00
9.64
9.94
9.96
9.78
9.51
9.25
9.02
8.76
8.30
7.54
6.50
5.30
4.23
3.55
3.45
3.95
4.87
5.97
6.98
7.74
8.06
7.83
7.08
6.07
5.29
5.26
6.31
8.39
11.10
13.59
14.95
14.75
13.36
11.76
11.11
12.25
15.41
20.37
26.09
31.30
35.31
38.43
41.73
46.35
52.81
60.83
69.73
77.90
83.63
86.16
86.13
85.21
85.50
89.22
98.53
115.11
137.79
162.59
183.76
195.67
194.57
179.88
154.07
120.06
86.17
61.69
51.65
54.60
65.73
81.07
99.11
119.57
139.79
159.39
176.17
187.54
192.20
190.85
185.40
177.63
166.97
156.31
146.47
134.95
119.25
98.78
75.40
52.23
33.08
18.86
9.02
2.25
-7.12
-23.99
-49.93
-82.70
-118.04
-149.74
-176.35
-198.22
-216.20
-237.11
-266.66
-305.95
-351.20
-396.54
-433.43
-460.94
-481.32
-497.00
-517.62
-551.21
-599.50
-658.01
-719.57
-773.42
-818.41
-857.73
-844.59
-752.04
-582.28
-366.12
-143.89
24.21
142.81
224.66
277.59
306.18
315.27
304.35
276.51
238.83
199.27
168.19
145.91
126.64
106.03
75.01
27.25
-37.28
-114.04
-197.14
-278.22
-335.33
-355.13
-333.07
-281.45
-218.85
-159.57
-109.95
-70.42
-37.01
-9.15
2.95
0.82
-12.61
-29.99
-40.15
-32.38
-0.56
56.00
131.14
214.28
297.05
366.97
415.66
441.49
447.68
439.40
421.56
397.46
368.27
336.19
302.88
270.76
241.97
217.10
195.45
175.83
157.45
139.46
122.10
105.35
89.97
76.66
65.19
54.94
44.99
34.81
24.03
12.82
1.19
-10.44
-20.01
-28.65
-37.10
-45.94
-55.17
-64.58
-73.81
-82.65
-90.83
-98.14
-104.80
-110.81
-116.35
-121.13
-125.14
-128.53
-131.58
-134.53
-137.47
-140.56
-143.54
-146.21
-147.82
-148.06
-146.91
-144.53
-140.92
-135.60
-127.54
-114.49
-98.49
-79.70
-58.43
-35.28
-11.07
13.40
37.61
61.36
84.82
108.36
133.18
160.30
190.36
223.05
256.60
287.65
311.81
325.05
325.01
312.44
290.29
262.65
233.33
204.91
178.52
154.37
132.43
112.77
95.89
81.97
70.58
60.77
51.27
40.86
28.64
14.23
-2.19
-19.70
-36.95
-52.37
-64.46
-72.15
-75.05
-73.55
-68.71
-62.09
-55.38
-50.07
-47.20
-47.00
-48.87
-51.45
-53.06
-52.22
-48.25
-41.50
-33.28
-25.26
-18.78
-14.37
-11.75
-10.15
-8.90
-7.79
-7.08
-7.18
-8.34
-10.34
-12.51
-13.98
-13.96
-12.01
-8.14
-2.81
3.20
9.04
14.02
17.70
19.91
20.69
20.16
18.48
15.93
12.91
9.96
7.65
6.37
6.20
6.79
7.54
7.85
7.33
5.97
4.12
2.28
0.95
0.43
0.82
2.13
4.29
7.21
10.67
14.28
17.50
19.80
20.92
20.97
20.43
19.85
19.60
19.60
19.40
18.29
15.64
11.06
4.57
-3.35
-11.88
-20.04
-26.91
-31.98
-35.24
-37.13
-38.34
-39.47
-40.83
-42.42
-44.04
-45.44
-46.35
-46.53
-45.73
-43.76
-40.61
-36.60
-32.26
-28.19
-24.77
-21.98
-19.48
-16.77
-13.46
-9.46
-4.97
-0.39
3.79
7.24
9.82
11.62
12.93
14.05
15.21
16.43
17.59
18.45
18.81
18.57
17.75
16.50
14.97
13.29
11.60
9.99
8.57
7.46
6.72
6.34
6.23
6.17
5.86
4.98
3.30
0.78
-2.42
-5.98
-9.57
-12.91
-15.84
-18.32
-20.43
-22.26
-23.88
-25.31
-26.50
-27.34
-27.78
-27.85
-27.65
-27.38
-27.27
-27.55
-28.46
-30.08
-32.32
-34.73
-36.63
-37.14
-35.63
-31.92
-26.53
-20.48
-15.03
-11.17
-9.40
-9.61
-11.30
-13.83
-16.60
-19.15
-21.02
-21.72
-20.72
-17.67
-12.51
-5.63
2.13
9.80
16.55
21.93
25.89
28.68
30.59
31.83
32.48
32.54
32.01
30.89
29.25
27.24
25.17
23.53
22.82
23.45
25.44
28.36
31.46
33.94
35.33
35.69
35.49
35.33
35.57
36.02
36.06
34.83
31.69
26.50
19.79
12.48
5.68
0.30
-3.19
-4.75
-4.70
-3.56
-1.88
-0.19
1.03
1.41
0.80
-0.73
-2.76
-4.71
-5.95
-6.15
-5.36
-4.00
-2.71
-2.01
-2.20
-3.33
-5.25
-7.76
-10.57
-13.28
-15.36
-16.29
-15.82
-14.16
-11.92
-9.89
-8.63
-8.31
-8.68
-9.27
-9.75
-9.95
-9.91
-9.69
-9.27
-8.56
-7.48
-6.01
-4.22
-2.22
-0.06
2.24
4.68
7.27
9.95
12.64
15.27
17.81
20.27
22.69
25.12
27.58
30.07
32.55
34.99
37.33
39.59
41.81
44.05
46.37
48.81
51.42
54.21
57.15
60.12
63.07
66.04
69.10
72.39
75.94
79.51
82.42
83.35
80.57
72.58
58.63
39.03
15.19
-10.84
-37.06
-62.31
-86.78
-111.79
-138.70
-168.56
-201.77
-237.80
-274.82
-309.09
-335.02
-346.23
-337.63
-307.29
-258.12
-197.57
-135.00
-78.55
-32.34
3.50
29.73
43.48
40.99
20.81
-14.45
-59.10
-106.56
-151.51
-190.33
-219.46
-235.71
-236.22
-219.81
-187.96
-142.29
-89.01
-34.70
16.18
61.88
102.16
137.28
166.86
190.13
206.95
217.94
224.91
229.46
231.81
230.90
225.83
216.83
205.54
194.15
183.90
175.10
167.28
159.88
152.83
146.69
141.96
138.42
134.98
129.88
121.89
110.75
97.04
81.57
65.04
47.84
30.23
12.62
-4.40
-19.89
-32.77
-42.14
-47.38
-48.27
-44.88
-37.69
-27.50
-15.64
-3.65
6.96
15.12
20.52
23.56
25.06
25.79
26.18
26.29
26.02
25.42
24.79
24.60
25.28
26.94
29.22
31.23
31.79
29.62
23.73
13.72
0.02
-16.06
-32.56
-47.38
-58.75
-65.61
-67.74
-65.74
-60.75
-54.30
-48.09
-43.70
-42.31
-44.33
-49.20
-55.48
-61.23
-64.61
-64.45
-60.62
-53.91
-45.62
-37.03
-29.04
-22.04
-16.10
-11.29
-7.78
-5.88
-5.85
-7.65
-10.94
-15.13
-19.57
-23.78
-27.46
-30.50
-32.85
-34.55
-35.68
-36.39
-36.82
-37.03
-36.87
-35.94
-33.71
-29.69
-23.69
-15.87
-6.91
2.25
10.50
16.90
20.81
21.99
20.65
17.24
12.41
6.91
1.59
-2.56
-4.58
-3.78
-0.07
5.89
12.89
19.57
24.91
28.55
30.74
31.99
32.74
33.14
33.08
32.37
30.90
28.64
25.64
21.98
17.84
13.51
9.43
6.07
3.75
2.59
2.50
3.32
4.97
7.45
10.78
14.93
19.69
24.75
29.71
34.15
37.70
40.08
41.15
41.04
40.16
39.21
38.97
40.05
42.80
47.20
52.99
59.80
67.21
74.80
82.15
88.80
94.33
98.33
100.30
99.79
96.46
90.11
80.71
68.60
54.69
40.44
27.61
17.62
11.13
7.93
6.94
6.73
5.96
3.90
0.48
-3.87
-9.10
-15.26
-22.35
-30.00
-37.42
-43.60
-47.58
-48.75
-47.11
-44.30
-42.10
-41.49
-42.33
-43.77
-44.98
-45.38
-44.64
-42.66
-41.73
-43.69
-48.88
-55.79
-62.23
-66.74
-68.77
-68.45
-66.36
-66.83
-73.53
-87.74
-107.77
-130.68
-154.25
-177.04
-197.92
-215.95
-235.09
-258.88
-288.55
-321.71
-354.42
-383.84
-408.61
-428.73
-417.02
-359.30
-261.79
-149.59
-47.63
32.29
90.14
131.31
161.58
185.19
199.81
202.84
193.53
173.70
148.46
121.25
93.63
66.68
42.48
21.34
10.61
14.00
32.68
63.31
98.32
129.54
152.07
165.88
172.01
172.19
166.56
156.04
140.11
119.34
96.19
74.62
58.43
48.49
43.41
40.14
36.30
30.94
24.37
17.75
12.35
9.04
7.59
7.33
7.18
6.93
6.83
7.31
8.51
10.07
11.11
10.39
6.69
-0.90
-12.14
-25.53
-38.54
-48.49
-53.59
-53.63
-49.99
-44.95
-40.62
-37.92
-36.32
-34.34
-30.49
-24.13
-15.70
-6.42
2.43
10.00
16.14
21.07
25.10
28.40
30.95
32.63
33.39
33.31
32.58
31.38
29.81
27.83
25.33
22.23
18.56
14.58
10.65
7.19
4.43
2.38
0.74
-0.93
-3.06
-5.86
-9.26
-12.93
-16.35
-19.08
-20.89
-21.79
-22.10
-22.17
-22.28
-22.45
-22.43
-21.78
-20.10
-17.17
-13.08
-8.23
-3.19
1.43
5.15
7.76
9.35
10.27
11.01
11.97
13.31
14.90
16.43
17.60
18.27
18.58
18.81
19.23
19.97
20.96
22.06
23.15
24.26
25.52
27.04
28.79
30.53
31.88
32.49
32.18
31.02
29.28
27.29
25.37
23.66
22.16
20.77
19.34
17.83
16.28
14.84
13.62
12.60
11.57
10.17
8.13
5.36
2.06
-1.39
-4.65
-7.64
-10.55
-13.83
-17.98
-23.37
-30.15
-38.13
-46.83
-55.51
-63.38
-69.87
-74.72
-77.97
-79.84
-80.62
-80.63
-80.43
-80.75
-82.25
-84.97
-87.86
-88.94
-86.11
-78.18
-65.70
-50.86
-36.43
-24.48
-15.53
-8.57
-1.98
5.38
13.60
21.84
28.98
34.35
38.03
40.58
42.70
44.75
46.64
47.93
48.15
47.07
44.84
42.02
39.24
37.00
35.44
34.43
33.72
33.11
32.48
31.74
30.63
28.71
25.60
21.17
15.78
10.20
5.33
1.76
-0.41
-1.55
-2.21
-2.78
-3.43
-4.16
-5.04
-6.42
-8.80
-12.65
-18.04
-24.48
-31.01
-36.48
-40.00
-41.23
-40.41
-38.29
-35.82
-33.85
-32.94
-33.20
-34.26
-35.27
-35.02
-32.30
-26.26
-16.74
-4.42
9.39
23.15
35.59
46.04
54.55
61.59
67.82
73.78
79.81
86.10
92.69
99.50
106.38
113.05
119.13
124.29
128.25
130.85
132.04
131.80
130.07
126.70
121.51
114.31
105.10
94.27
82.59
71.18
61.14
53.17
47.24
42.51
37.64
31.27
22.57
11.55
-1.05
-14.11
-26.69
-38.41
-49.56
-60.91
-73.30
-87.26
-102.80
-119.45
-136.42
-152.93
-168.30
-182.00
-193.59
-202.66
-208.93
-212.31
-213.04
-211.52
-208.14
-202.93
-195.51
-185.22
-171.47
-154.22
-134.05
-112.15
-89.84
-68.27
-48.09
-29.50
-12.40
3.48
18.53
33.27
48.30
64.11
80.91
98.45
116.05
132.83
147.95
160.87
171.36
179.41
185.05
188.26
188.89
186.77
181.81
174.16
164.25
152.83
140.92
129.57
119.67
111.63
105.21
99.64
93.89
87.12
78.99
69.74
59.90
49.91
39.80
29.24
17.76
5.05
-8.79
-23.34
-38.06
-52.56
-66.70
-80.53
-94.07
-107.17
-119.47
-130.54
-140.04
-147.90
-154.17
-158.89
-161.77
-162.19
-159.28
-152.41
-141.56
-127.56
-111.89
-96.17
-81.57
-68.42
-56.28
-44.39
-32.21
-19.77
-7.64
3.48
13.22
21.74
29.67
37.66
46.13
55.00
63.91
72.47
80.46
87.83
94.52
100.26
104.54
106.77
106.56
103.91
99.26
93.30
86.87
80.84
75.94
72.76
71.47
71.82
73.12
74.50
75.32
75.39
74.94
74.29
73.45
71.87
68.70
63.21
55.19
45.16
33.97
22.31
10.35
-2.26
-16.05
-31.27
-47.65
-64.49
-80.95
-96.37
-110.32
-122.69
-133.54
-143.06
-151.40
-158.53
-164.00
-166.84
-165.79
-159.81
-148.57
-132.78
-114.05
-94.21
-74.79
-56.61
-39.84
-24.35
-10.04
3.13
15.30
26.82
38.27
50.08
62.26
74.33
85.54
95.34
103.65
110.84
117.29
123.02
127.49
129.72
128.79
124.23
116.22
105.54
93.23
80.31
67.61
55.74
45.13
36.04
28.56
22.59
17.82
13.85
10.32
7.06
4.10
1.65
-0.06
-0.94
-1.22
-1.40
-2.07
-3.70
-6.47
-10.26
-14.87
-20.21
-26.32
-33.26
-40.90
-48.84
-56.54
-63.58
-69.88
-75.71
-81.40
-87.13
-92.80
-98.13
-102.86
-106.76
-109.52
-110.48
-108.73
-103.42
-94.29
-81.99
-68.03
-54.21
-41.88
-31.57
-22.94
-15.33
-8.18
-1.39
4.82
10.15
14.54
18.21
21.52
24.85
28.35
32.00
35.56
38.75
41.37
43.32
44.62
45.44
46.13
47.26
49.65
54.05
60.73
69.14
77.75
84.51
87.65
86.52
81.93
75.84
70.36
66.81
65.19
64.37
62.85
59.64
54.58
48.20
41.25
34.20
27.07
19.60
11.55
3.00
-5.63
-13.81
-21.12
-27.50
-33.21
-38.75
-44.58
-51.13
-58.71
-67.63
-78.12
-90.10
-102.95
-115.32
-125.33
-131.13
-131.54
-126.47
-117.03
-105.05
-92.46
-80.67
-70.28
-61.13
-52.62
-44.07
-35.04
-25.47
-15.65
-6.05
2.81
10.64
17.45
23.49
29.17
34.73
40.20
45.31
49.68
52.95
55.00
56.09
56.85
58.13
60.75
65.22
71.54
79.12
86.93
93.68
98.24
99.88
98.59
95.08
90.55
86.21
82.89
80.66
78.86
76.48
72.60
66.79
59.18
50.22
40.33
29.68
18.31
6.35
-5.82
-17.57
-28.30
-37.76
-46.13
-53.96
-61.87
-70.34
-79.68
-90.01
-101.18
-112.68
-123.37
-131.66
-135.84
-134.77
-128.39
-117.81
-104.86
-91.38
-78.61
-66.92
-56.11
-45.83
-35.96
-26.63
-18.05
-10.26
-3.02
4.05
11.27
18.71
26.14
33.11
39.07
43.55
46.27
47.26
46.84
45.69
44.63
44.50
45.94
49.12
53.67
58.64
62.74
64.69
63.74
59.93
54.23
48.14
43.10
39.90
38.35
37.46
35.97
33.00
28.36
22.53
16.19
9.80
3.29
-3.77
-11.83
-20.93
-30.54
-39.78
-47.77
-54.09
-58.90
-62.91
-67.01
-71.99
-78.24
-85.59
-93.38
-100.44
-105.34
-106.59
-103.08
-94.44
-81.27
-65.15
-48.14
-32.21
-18.64
-7.80
0.78
7.91
14.34
20.46
26.35
31.93
37.15
42.07
46.67
50.86
54.45
57.32
59.67
62.04
65.11
69.32
74.60
80.29
85.33
88.73
89.91
88.93
86.41
83.26
80.35
78.17
76.69
75.42
73.60
70.62
66.18
60.47
53.98
47.22
40.52
33.93
27.27
20.37
13.09
5.37
-2.93
-11.99
-22.07
-33.28
-45.50
-58.35
-71.26
-83.61
-94.82
-104.38
-111.82
-116.76
-118.96
-118.53
-115.98
-112.19
-108.16
-104.52
-101.26
-97.67
-92.65
-85.26
-75.13
-62.72
-49.07
-35.41
-22.76
-11.73
-2.61
4.50
9.63
13.00
15.20
17.21
20.22
25.14
32.25
41.00
50.26
58.74
65.57
70.52
73.93
76.27
77.75
78.12
76.80
73.29
67.53
60.03
51.75
43.82
37.18
32.44
29.80
29.16
30.13
32.10
34.28
35.81
35.99
34.49
31.43
27.35
22.91
18.58
14.54
10.63
6.54
1.95
-3.36
-9.56
-16.79
-25.17
-34.66
-44.97
-55.47
-65.31
-73.65
-80.01
-84.39
-87.28
-89.38
-91.22
-92.81
-93.59
-92.72
-89.41
-83.43
-75.14
-65.37
-55.05
-44.86
-35.17
-26.13
-17.96
-10.98
-5.49
-1.53
1.29
3.73
6.67
10.74
16.14
22.62
29.70
36.96
44.14
51.19
58.05
64.50
70.09
74.19
76.24
75.95
73.43
69.23
64.19
59.34
55.62
53.67
53.71
55.42
58.07
60.72
62.59
63.27
62.76
61.27
58.88
55.47
50.70
44.29
36.28
27.09
17.37
7.72
-1.59
-10.66
-19.80
-29.30
-39.19
-49.23
-58.94
-67.84
-75.56
-81.97
-87.22
-91.61
-95.42
-98.71
-101.18
-102.25
-101.31
-98.03
-92.51
-85.31
-77.11
-68.48
-59.64
-50.56
-41.18
-31.67
-22.53
-14.34
-7.53
-2.02
2.75
7.66
13.47
20.58
28.80
37.49
45.91
53.49
60.01
65.62
70.54
74.87
78.37
80.56
80.88
79.07
75.19
69.68
63.14
56.12
49.07
42.37
36.46
31.85
29.00
28.07
28.78
30.41
32.05
32.99
32.85
31.66
29.61
26.90
23.60
19.73
15.35
10.63
5.71
0.67
-4.66
-10.53
-17.12
-24.35
-31.79
-38.77
-44.64
-48.94
-51.52
-52.65
-52.95
-53.35
-54.77
-57.87
-62.56
-67.92
-72.35
-74.05
-71.77
-65.17
-55.02
-42.84
-30.39
-19.07
-9.76
-2.79
1.85
4.35
5.01
4.26
2.63
0.70
-1.05
-2.39
-3.32
-3.95
-4.30
-4.21
-3.38
-1.54
1.28
4.64
7.86
10.23
11.35
11.33
10.76
10.49
11.36
13.90
18.09
23.37
28.75
33.21
36.05
37.19
37.19
36.87
36.87
37.31
37.71
37.39
35.83
33.03
29.45
25.73
22.24
18.86
15.11
10.44
4.60
-2.10
-8.99
-15.28
-20.47
-24.54
-27.86
-30.99
-34.46
-38.78
-44.36
-51.49
-60.02
-69.08
-77.05
-81.86
-81.85
-76.50
-66.86
-55.18
-44.08
-35.53
-30.26
-27.78
-26.91
-26.47
-25.71
-24.39
-22.60
-20.46
-18.03
-15.28
-12.19
-8.74
-5.01
-1.05
3.06
7.33
11.73
16.27
21.02
26.12
31.84
38.55
46.52
55.75
65.80
75.74
84.40
90.70
94.00
94.34
92.37
89.14
85.61
82.34
79.28
75.92
71.60
65.79
58.43
49.81
40.49
30.90
21.26
11.48
1.42
-8.92
-19.21
-28.81
-37.00
-43.30
-47.72
-50.73
-53.14
-55.80
-59.44
-64.61
-71.63
-80.48
-90.56
-100.56
-108.53
-112.36
-110.48
-102.46
-89.34
-73.23
-56.66
-41.74
-29.68
-20.66
-14.08
-9.02
-4.60
-0.29
4.05
8.22
11.96
15.05
17.54
19.67
21.73
23.96
26.35
28.82
31.21
33.47
35.56
37.50
39.24
40.78
42.27
44.06
46.58
50.13
54.55
59.15
62.82
64.48
63.60
60.41
55.91
51.35
47.67
45.13
43.27
41.25
38.31
34.11
28.79
22.73
16.24
9.42
2.15
-5.69
-13.99
-22.32
-29.99
-36.37
-41.05
-44.03
-45.71
-46.68
-47.64
-49.20
-51.89
-55.98
-61.41
-67.58
-73.36
-77.23
-77.81
-74.38
-67.26
-57.80
-47.90
-39.29
-33.03
-29.24
-27.25
-26.05
-24.64
-22.33
-18.87
-14.36
-9.19
-3.84
1.26
5.97
10.43
14.97
20.01
25.80
32.32
39.31
46.36
53.01
58.83
63.53
66.91
68.95
69.88
70.20
70.58
71.62
73.60
76.24
78.76
80.09
79.28
75.82
69.88
62.13
53.45
44.59
36.01
27.75
19.68
11.56
3.27
-5.24
-13.93
-22.74
-31.57
-40.26
-48.60
-56.31
-63.13
-68.94
-73.79
-77.95
-81.76
-85.46
-89.01
-92.01
-93.76
-93.49
-90.67
-85.21
-77.59
-68.64
-59.25
-50.07
-41.37
-33.10
-25.12
-17.40
-10.08
-3.34
2.81
8.63
14.59
21.10
28.28
35.94
43.61
50.91
57.65
63.87
69.69
75.10
79.87
83.61
85.93
86.59
85.51
82.76
78.50
73.05
66.92
60.80
55.42
51.27
48.33
46.05
43.53
39.96
35.03
28.99
22.56
16.41
10.82
5.55
-0.00
-6.44
-13.98
-22.41
-31.26
-40.00
-48.33
-56.16
-63.53
-70.48
-76.98
-82.91
-88.13
-92.53
-96.09
-98.85
-100.96
-102.55
-103.58
-103.67
-102.07
-97.94
-90.81
-80.96
-69.54
-58.14
-48.14
-40.07
-33.50
-27.40
-20.83
-13.42
-5.48
2.34
9.56
16.13
22.40
28.78
35.45
42.28
48.93
55.10
60.67
65.69
70.30
74.52
78.23
81.15
82.92
83.20
81.69
78.31
73.26
67.12
60.72
55.04
50.87
48.57
47.88
48.04
48.06
47.11
44.81
41.30
37.08
32.71
28.46
24.26
19.79
14.62
8.50
1.37
-6.63
-15.34
-24.57
-34.17
-43.92
-53.50
-62.51
-70.54
-77.29
-82.64
-86.67
-89.53
-91.35
-92.03
-91.24
-88.61
-83.93
-77.45
-69.88
-62.22
-55.30
-49.47
-44.38
-39.28
-33.42
-26.47
-18.69
-10.69
-3.11
3.74
9.94
15.77
21.50
27.22
32.82
38.19
43.29
48.22
53.06
57.79
62.19
65.87
68.42
69.56
69.21
67.51
64.72
61.19
57.31
53.47
50.06
47.44
45.78
45.08
45.06
45.32
45.45
45.16
44.34
42.98
41.05
38.38
34.71
29.78
23.51
16.05
7.73
-1.00
-9.77
-18.26
-26.33
-33.84
-40.73
-47.02
-52.77
-58.12
-63.18
-68.06
-72.79
-77.37
-81.68
-85.47
-88.27
-89.47
-88.51
-85.11
-79.45
-72.23
-64.45
-56.98
-50.27
-44.22
-38.34
-32.13
-25.41
-18.37
-11.24
-4.00
3.82
12.85
23.41
34.97
46.24
55.56
61.70
64.45
64.59
63.42
61.95
60.39
58.21
54.63
49.36
42.84
36.17
30.46
26.37
23.82
22.19
20.72
19.01
17.12
15.54
14.77
15.13
16.52
18.55
20.67
22.40
23.39
23.50
22.72
21.12
18.74
15.53
11.40
6.28
0.26
-6.39
-13.20
-19.67
-25.38
-30.12
-33.90
-36.82
-39.09
-41.02
-43.14
-46.08
-50.39
-56.10
-62.42
-67.78
-70.34
-68.78
-62.92
-53.85
-43.47
-33.77
-26.07
-20.76
-17.47
-15.57
-14.49
-13.95
-13.78
-13.84
-13.88
-13.65
-12.89
-11.48
-9.36
-6.54
-3.08
0.98
5.58
10.61
15.93
21.36
26.82
32.38
38.24
44.65
51.70
59.03
65.88
71.20
74.08
74.15
71.80
68.01
63.99
60.69
58.37
56.65
54.68
51.62
46.95
40.71
33.38
25.61
17.96
10.64
3.58
-3.44
-10.51
-17.51
-24.22
-30.39
-35.99
-41.14
-46.10
-51.05
-56.05
-61.11
-66.26
-71.59
-77.07
-82.34
-86.52
-88.32
-86.51
-80.43
-70.40
-57.77
-44.44
-32.22
-22.29
-14.91
-9.62
-5.61
-2.20
0.94
3.74
5.95
7.38
8.08
8.42
8.95
10.22
12.55
15.92
20.03
24.43
28.72
32.64
36.13
39.31
42.45
45.88
50.00
55.03
60.94
67.19
72.82
76.65
77.72
75.67
71.00
64.79
58.33
52.53
47.64
43.29
38.84
33.76
27.87
21.32
14.36
7.15
-0.29
-8.04
-16.00
-23.90
-31.25
-37.59
-42.67
-46.49
-49.35
-51.69
-54.03
-56.85
-60.59
-65.56
-71.74
-78.62
-85.07
-89.56
-90.57
-87.12
-79.21
-67.81
-54.55
-41.13
-28.82
-18.26
-9.48
-2.24
3.81
8.93
13.30
17.02
20.14
22.66
24.53
25.80
26.60
27.12
27.61
28.26
29.19
30.41
31.84
33.25
34.26
34.44
33.48
31.42
28.72
26.20
24.69
24.74
26.32
28.87
31.50
33.26
33.49
31.94
28.78
24.50
19.68
14.88
10.42
6.40
2.72
-0.79
-4.26
-7.81
-11.51
-15.47
-19.75
-24.32
-28.96
-33.31
-37.00
-39.79
-41.73
-43.12
-44.43
-46.15
-48.63
-52.03
-56.20
-60.67
-64.62
-67.04
-67.00
-63.90
-57.80
-49.31
-39.45
-29.20
-19.31
-10.18
-2.04
4.93
10.56
14.87
18.16
21.10
24.51
29.01
34.73
41.29
48.05
54.37
59.91
64.66
68.75
72.24
75.05
76.97
77.76
77.32
75.66
72.87
69.17
64.87
60.45
56.45
53.26
51.00
49.38
47.78
45.54
42.24
37.89
32.89
27.72
22.65
17.63
12.34
6.44
-0.15
-7.22
-14.42
-21.54
-28.68
-36.20
-44.56
-53.95
-64.11
-74.34
-83.63
-91.04
-95.95
-98.34
-98.76
-98.19
-97.57
-97.33
-97.16
-96.05
-92.82
-86.67
-77.67
-66.74
-55.15
-44.00
-33.78
-24.44
-15.73
-7.57
-0.15
6.24
11.59
16.29
21.03
26.42
32.69
39.54
46.29
52.24
56.90
60.20
62.34
63.63
64.30
64.46
64.07
63.00
61.08
58.16
54.19
49.41
44.40
40.06
37.33
36.78
38.33
41.21
44.21
46.26
46.78
45.82
43.78
40.98
37.39
32.74
26.82
19.78
12.15
4.55
-2.68
-9.65
-16.84
-24.72
-33.48
-42.80
-52.04
-60.45
-67.49
-73.00
-77.20
-80.59
-83.67
-86.67
-89.31
-90.85
-90.35
-87.18
-81.38
-73.74
-65.50
-57.70
-50.85
-44.76
-38.90
-32.79
-26.36
-19.88
-13.74
-8.10
-2.85
2.36
7.89
14.02
20.88
28.52
36.95
45.98
55.20
63.95
71.42
76.94
80.22
81.40
80.94
79.37
77.06
74.17
70.82
67.23
63.86
61.24
59.78
59.50
60.05
60.88
61.51
61.66
61.20
59.88
57.19
52.40
44.93
34.69
22.30
8.87
-4.43
-16.85
-28.26
-39.01
-49.51
-59.80
-69.52
-77.99
-84.67
-89.40
-92.50
-94.58
-96.17
-97.49
-98.30
-98.06
-96.20
-92.46
-87.02
-80.44
-73.37
-66.28
-59.23
-51.87
-43.69
-34.35
-23.95
-13.03
-2.36
7.47
16.26
24.26
31.93
39.59
47.20
54.38
60.64
65.65
69.44
72.34
74.74
76.83
78.48
79.29
78.80
76.72
72.99
67.80
61.46
54.38
47.05
40.06
34.08
29.61
26.75
25.11
23.83
22.01
19.12
15.24
11.03
7.30
4.53
2.66
1.10
-0.83
-3.54
-7.03
-10.99
-15.18
-19.60
-24.43
-29.75
-35.27
-40.28
-43.86
-45.22
-44.03
-40.49
-35.16
-28.78
-22.16
-16.10
-11.30
-8.14
-6.45
-5.44
-3.98
-1.15
3.26
8.59
13.62
17.26
19.07
19.46
19.28
19.24
19.47
19.55
18.74
16.56
13.00
8.56
3.94
-0.28
-3.81
-6.68
-9.10
-11.37
-13.81
-16.66
-20.07
-24.03
-28.39
-32.78
-36.70
-39.63
-41.24
-41.52
-40.80
-39.63
-38.53
-37.68
-36.85
-35.49
-32.97
-28.93
-23.43
-17.00
-10.45
-4.61
-0.05
2.98
4.62
5.23
5.24
4.93
4.37
3.44
1.96
-0.14
-2.71
-5.56
-8.50
-11.54
-14.91
-18.86
-23.64
-29.30
-35.78
-42.79
-49.73
-55.64
-59.27
-59.41
-55.38
-47.41
-36.66
-24.70
-12.96
-2.11
7.89
17.46
26.81
35.65
43.24
48.88
52.28
53.79
54.20
54.23
54.21
53.88
52.57
49.54
44.22
36.40
26.19
13.97
0.27
-14.28
-28.98
-43.08
-55.91
-66.96
-75.97
-82.95
-88.01
-91.29
-92.73
-92.09
-89.04
-83.41
-75.42
-65.77
-55.53
-45.82
-37.46
-30.71
-25.33
-20.79
-16.59
-12.52
-8.61
-5.04
-1.92
0.79
3.25
5.58
7.77
9.61
10.78
10.91
9.69
6.84
2.21
-4.08
-11.49
-18.97
-25.02
-28.08
-26.98
-21.39
-12.03
-0.43
11.51
22.10
30.27
35.78
39.06
40.92
42.18
43.49
45.20
47.46
50.26
53.55
57.20
61.03
64.80
68.33
71.58
74.65
77.68
80.71
83.48
85.54
86.32
85.40
82.72
78.54
73.44
68.10
63.18
59.17
56.29
54.42
53.10
51.57
49.02
44.85
38.97
31.80
24.14
16.81
10.26
4.51
-0.79
-6.05
-11.47
-16.94
-22.13
-26.76
-30.76
-34.31
-37.74
-41.25
-44.82
-48.08
-50.56
-51.87
-51.94
-51.09
-49.94
-49.21
-49.44
-50.92
-53.55
-56.92
-60.41
-63.23
-64.64
-64.07
-61.36
-56.81
-51.12
-45.08
-39.37
-34.24
-29.55
-24.94
-20.01
-14.54
-8.45
-1.78
5.39
12.89
20.47
27.82
34.61
40.67
46.04
50.96
55.69
60.39
64.96
69.04
72.15
73.82
73.79
72.09
69.09
65.48
62.07
59.64
58.73
59.47
61.58
64.33
66.79
67.99
67.22
64.23
59.25
52.95
46.12
39.42
33.17
27.28
21.43
15.27
8.68
1.73
-5.37
-12.46
-19.48
-26.47
-33.36
-39.95
-45.85
-50.71
-54.31
-56.74
-58.33
-59.62
-61.17
-63.46
-66.81
-71.17
-76.04
-80.49
-83.30
-83.39
-80.19
-73.85
-65.24
-55.60
-46.03
-37.21
-29.33
-22.20
-15.62
-9.47
-3.85
1.10
5.28
8.66
11.30
13.35
15.00
16.46
17.85
19.18
20.35
21.27
22.00
22.67
23.22
23.17
21.61
17.51
10.49
1.24
-8.44
-16.37
-20.93
-21.81
-20.05
-17.46
-15.68
-15.44
-16.45
-17.81
-18.53
-18.03
-16.12
-12.85
-8.43
-3.08
2.89
9.11
15.13
20.45
24.58
27.32
28.79
29.43
30.09
31.81
35.51
41.47
49.03
56.55
62.56
66.21
67.66
67.94
68.40
69.88
72.04
73.38
71.68
65.86
56.18
43.73
29.77
15.24
0.64
-13.79
-27.64
-40.63
-51.44
-59.07
-63.86
-67.24
-70.67
-74.31
-76.53
-74.69
-67.13
-52.55
-31.25
-5.22
20.45
39.65
48.68
48.58
48.24
49.61
52.37
56.36
59.45
61.86
64.52
68.05
72.02
74.82
73.68
67.53
56.82
42.76
27.17
11.71
-2.17
-13.42
-21.80
-28.50
-34.73
-41.89
-51.28
-62.97
-75.43
-85.63
-90.27
-87.58
-78.73
-66.82
-55.88
-49.15
-47.59
-49.89
-53.36
-55.64
-55.74
-54.33
-52.38
-50.27
-47.59
-43.36
-37.07
-29.29
-21.63
-15.99
-13.71
-14.70
-17.64
-20.70
-22.34
-21.99
-20.06
-17.54
-15.49
-14.55
-14.77
-15.76
-16.90
-17.61
-17.67
-17.26
-16.97
-17.44
-19.03
-21.56
-24.37
-26.57
-27.46
-26.79
-24.75
-21.69
-17.95
-13.68
-8.94
-3.94
0.97
5.30
8.75
11.39
13.72
16.58
20.90
27.40
36.21
46.64
57.22
66.01
71.28
72.07
68.54
61.82
53.45
44.78
36.66
29.48
23.36
18.44
14.88
12.73
11.74
11.35
10.89
9.84
8.08
5.97
4.14
3.14
3.21
4.11
5.23
5.84
5.44
3.95
1.84
-0.25
-1.86
-2.99
-4.13
-5.91
-8.72
-12.47
-16.64
-20.42
-23.13
-24.57
-25.12
-25.62
-26.96
-29.68
-33.60
-37.81
-40.58
-40.25
-36.12
-29.06
-21.38
-15.82
-14.35
-17.26
-22.86
-27.65
-27.82
-21.08
-7.71
9.62
27.01
40.34
46.40
43.83
34.40
22.60
14.28
14.67
27.02
51.33
83.79
117.23
143.07
155.18
151.98
136.94
116.95
99.96
91.64
92.95
99.42
98.61
79.64
40.72
-7.87
-51.55
-80.67
-94.29
-97.48
-96.89
-96.97
-97.75
-96.57
-91.21
-82.19
-71.81
-63.10
-57.92
-56.62
-58.17
-60.18
-60.70
-59.56
-59.95
-63.86
-72.09
-82.49
-90.02
-88.54
-73.24
-43.38
-2.28
39.09
70.49
85.81
84.76
71.81
53.25
34.76
19.67
8.84
1.48
-2.86
-4.41
-3.47
-0.42
3.68
7.46
9.59
9.50
7.37
4.60
2.72
2.66
4.45
7.10
9.12
9.29
7.16
3.13
-1.41
-5.02
-6.71
-6.20
-4.01
-1.10
1.46
2.87
2.81
1.59
-0.14
-1.78
-2.86
-3.26
-3.20
-3.07
-3.15
-3.46
-3.67
-3.35
-2.24
-0.34
2.05
4.58
7.03
9.44
12.00
14.87
18.02
21.24
24.17
26.46
27.79
28.00
27.08
25.14
22.39
19.10
15.49
11.76
7.95
4.05
0.02
-4.16
-8.47
-12.78
-16.94
-20.79
-24.21
-27.16
-29.67
-31.76
-33.44
-34.66
-35.34
-35.46
-35.05
-34.19
-33.00
-31.56
-29.90
-28.05
-26.01
-23.84
-21.62
-19.37
-17.03
-14.53
-11.88
-9.15
-6.53
-4.19
-2.19
-0.43
1.30
3.21
5.41
7.90
10.56
13.28
15.96
18.51
20.81
22.69
24.02
24.75
24.98
24.89
24.62
24.17
23.44
22.33
20.93
19.52
18.49
18.09
18.25
18.60
18.64
17.98
16.49
14.26
11.48
8.26
4.65
0.62
-3.72
-8.14
-12.30
-15.88
-18.74
-20.89
-22.50
-23.84
-25.15
-26.57
-28.07
-29.46
-30.38
-30.50
-29.59
-27.70
-25.14
-22.39
