1660751306.00
64.000000
-0.00
-0.00
-0.00
-0.00
-0.00
-0.00
-0.00
-0.00
-0.00
-0.00
0.00
0.01
0.01
-0.00
-0.03
-0.05
-0.05
0.00
0.13
0.36
0.66
1.01
1.37
1.72
2.06
2.40
2.79
3.24
3.80
4.42
5.06
5.66
6.20
6.68
7.15
7.68
8.31
9.14
10.09
11.04
11.88
12.56
13.14
13.76
14.65
15.96
17.91
20.32
22.90
25.38
27.58
29.57
31.68
34.32
37.81
42.54
48.15
54.10
59.83
64.97
69.58
74.14
79.34
85.71
93.76
103.00
112.62
121.73
129.77
136.75
143.30
150.75
157.77
166.64
177.95
191.79
206.97
220.57
228.25
225.36
208.53
176.87
132.76
80.05
23.07
-34.94
-92.44
-149.16
-205.23
-260.37
-313.74
-363.87
-409.83
-450.91
-486.50
-515.74
-537.23
-549.23
-549.97
-538.37
-514.19
-478.64
-433.84
-382.43
-327.05
-269.95
-212.84
-156.97
-103.33
-52.79
-6.31
35.19
71.04
100.94
125.02
143.80
158.01
168.40
175.59
179.99
181.84
181.32
178.67
174.22
168.40
161.69
154.50
147.13
139.69
132.16
124.45
116.51
108.36
100.16
92.16
84.58
77.57
71.10
64.97
58.92
52.73
46.35
39.95
33.85
28.42
23.86
20.11
16.85
13.60
9.97
5.82
1.36
-2.93
-6.56
-9.21
-10.86
-11.81
-12.54
-13.57
-15.39
-18.42
-22.73
-27.79
-32.17
-33.80
-30.66
-21.79
-8.03
8.10
23.18
34.33
40.22
41.30
39.18
35.68
32.08
29.00
26.67
25.24
24.85
25.40
26.40
27.05
26.64
24.87
21.99
18.66
15.54
13.06
11.29
10.04
9.06
8.18
7.31
6.40
5.41
4.33
3.17
2.05
1.10
0.49
0.34
0.59
1.06
1.44
1.47
1.04
0.24
-0.69
-1.43
-1.80
-1.75
-1.38
-0.89
-0.39
0.04
0.37
0.59
0.71
0.75
0.81
0.99
1.47
2.33
3.56
4.99
6.40
7.65
8.68
9.59
10.57
11.73
13.07
14.37
15.32
15.60
15.00
13.49
11.22
8.30
4.92
1.33
-2.23
-5.55
-8.44
-10.80
-12.57
-13.71
-14.30
-14.36
-14.03
-13.43
-12.74
-12.10
-11.58
-11.18
-10.81
-10.39
-9.81
-9.06
-8.25
-7.51
-7.00
-6.79
-6.86
-7.09
-7.35
-7.50
-7.48
-7.35
-7.24
-7.26
-7.55
-8.16
-9.08
-10.23
-11.45
-12.58
-13.55
-14.30
-14.83
-15.16
-15.22
-15.00
-14.58
-14.05
-13.61
-13.45
-13.64
-14.08
-14.51
-14.66
-14.34
-13.51
-12.24
-10.65
-8.87
-6.95
-4.91
-2.73
-0.36
2.26
4.71
6.81
8.47
9.67
10.48
10.96
11.15
11.09
10.85
10.49
10.11
9.76
9.41
9.02
8.54
8.00
7.47
7.06
6.80
6.73
6.83
7.01
7.16
7.14
6.87
6.32
5.60
4.89
4.52
4.78
5.88
7.88
10.66
13.97
17.44
20.69
23.42
25.53
27.13
28.49
29.91
31.59
33.50
35.37
36.84
37.52
37.23
35.97
33.95
31.44
28.70
25.94
23.24
20.58
17.89
15.03
11.83
8.13
3.79
-1.21
-6.77
-12.63
-18.46
-23.93
-28.80
-33.01
-36.59
-39.66
-42.29
-44.50
-46.24
-47.42
-47.99
-47.87
-47.02
-45.42
-43.04
-39.96
-36.38
-32.59
-28.92
-25.58
-22.58
-19.74
-16.80
-13.59
-10.18
-6.82
-3.82
-1.38
0.53
2.11
3.63
5.25
7.00
8.80
10.54
12.13
13.52
14.66
15.48
15.93
15.99
15.73
15.21
14.50
13.57
12.36
10.85
9.10
7.27
5.53
4.00
2.64
1.34
-0.09
-1.79
-3.77
-5.92
-8.02
-9.80
-11.03
-11.56
-11.32
-10.38
-8.88
-7.01
-5.01
-3.10
-1.45
-0.20
0.62
1.06
1.21
1.21
1.15
1.10
1.07
1.06
1.06
1.07
1.15
1.30
1.50
1.69
1.80
1.77
1.67
1.62
1.75
2.17
2.85
3.65
4.37
4.84
4.99
4.83
4.49
4.10
3.76
3.47
3.18
2.77
2.09
1.07
-0.27
-1.79
-3.31
-4.61
-5.47
-5.73
-5.29
-4.12
-2.31
-0.03
2.44
4.84
6.95
8.66
9.98
10.97
11.66
12.04
12.06
11.67
10.93
10.01
9.12
8.45
8.04
7.80
7.57
7.22
6.76
6.30
6.03
6.05
6.31
6.61
6.72
6.45
5.77
4.83
3.83
2.99
2.34
1.80
1.18
0.31
-0.86
-2.24
-3.65
-4.96
-6.17
-7.39
-8.70
-10.06
-11.24
-11.94
-11.98
-11.40
-10.47
-9.54
-8.90
-8.60
-8.50
-8.41
-8.17
-7.77
-7.31
-6.89
-6.54
-6.21
-5.75
-5.02
-3.96
-2.59
-1.06
0.45
1.73
2.71
3.43
4.04
4.70
5.48
6.33
7.11
7.63
7.72
7.33
6.52
5.42
4.17
2.93
1.78
0.74
-0.22
-1.16
-2.13
-3.18
-4.36
-5.71
-7.23
-8.72
-9.80
-10.00
-8.90
-6.42
-2.84
1.22
5.05
8.11
10.15
11.26
11.69
11.71
11.53
11.17
10.62
9.79
8.70
7.42
6.09
4.89
3.89
3.06
2.30
1.51
0.69
-0.06
-0.57
-0.77
-0.73
-0.61
-0.60
-0.77
-1.13
-1.60
-2.13
-2.70
-3.33
-3.99
-4.60
-5.07
-5.33
-5.42
-5.45
-5.60
-6.00
-6.72
-7.77
-9.09
-10.50
-11.77
-12.57
-12.59
-11.63
-9.72
-7.07
-4.07
-1.14
1.41
3.40
4.83
5.80
6.48
6.99
7.43
7.81
8.09
8.22
8.15
7.88
7.44
6.92
6.39
5.93
5.56
5.25
4.93
4.50
3.92
3.23
2.59
2.16
2.07
2.26
2.53
2.55
2.04
0.93
-0.67
-2.44
-4.02
-5.15
-5.68
-5.66
-5.22
-4.62
-4.13
-4.01
-4.43
-5.33
-6.44
-7.24
-7.18
-5.85
-3.18
0.46
4.40
7.92
10.46
11.93
12.66
13.22
14.12
15.52
17.11
18.30
18.51
17.60
15.98
14.54
14.26
15.74
18.88
22.90
26.65
29.09
29.78
29.06
27.99
28.01
30.50
36.35
45.55
56.96
68.20
76.04
77.19
69.54
53.06
30.43
6.44
-13.49
-25.43
-28.26
-23.83
-15.82
-7.88
-2.35
0.45
1.55
2.27
3.15
3.71
3.07
0.71
-2.97
-7.18
-10.90
-13.22
-13.55
-11.59
-7.18
-0.11
9.67
21.69
33.82
43.68
49.71
51.91
51.51
50.29
49.85
51.29
54.93
58.48
59.70
57.91
54.22
50.38
47.36
45.00
42.28
37.87
27.56
8.45
-19.17
-51.89
-85.58
-117.62
-147.13
-174.06
-198.31
-223.45
-252.03
-283.87
-316.27
-346.57
-374.01
-399.31
-423.37
-420.94
-376.23
-292.20
-190.05
-92.72
-12.48
48.66
93.75
127.07
152.44
168.62
174.23
170.49
161.64
152.53
146.28
144.00
145.43
149.71
152.72
150.91
143.69
133.38
123.16
115.09
109.67
106.32
103.99
99.23
89.59
74.92
57.19
39.06
22.51
8.37
-3.53
-13.86
-22.41
-31.35
-41.11
-50.70
-58.61
-63.92
-66.46
-66.86
-66.07
-65.40
-66.09
-68.67
-73.22
-79.38
-86.02
-90.97
-91.37
-84.62
-69.84
-48.90
-25.57
-4.39
11.19
20.16
23.80
24.51
24.44
24.57
24.57
24.41
24.38
25.29
27.82
31.94
36.55
39.97
40.74
38.36
33.77
28.73
25.02
23.49
23.80
24.66
24.63
22.85
19.43
15.27
11.35
8.35
6.32
4.80
3.25
1.34
-1.04
-3.77
-6.70
-9.71
-12.42
-14.45
-15.33
-14.79
-12.92
-10.31
-7.88
-6.50
-6.79
-8.71
-11.81
-15.46
-19.02
-22.00
-24.02
-24.74
-23.81
-21.90
-19.36
-16.63
-14.13
-12.19
-10.90
-10.12
-9.58
-9.06
-8.55
-8.22
-8.53
-9.98
-12.79
-16.72
-21.05
-24.95
-27.73
-29.20
-29.55
-29.25
-28.79
-28.43
-28.11
-27.58
-26.46
-24.28
-20.67
-15.35
-8.46
-0.70
6.79
12.69
16.05
16.68
15.21
12.78
10.64
9.62
9.91
11.16
12.65
13.63
13.48
11.90
8.79
4.34
-1.11
-7.10
-13.06
-18.43
-22.62
-25.20
-25.92
-24.75
-21.92
-17.75
-12.68
-7.16
-1.72
2.99
6.21
7.30
6.04
2.79
-1.46
-5.47
-8.18
-9.18
-8.85
-8.20
-8.39
-10.30
-14.08
-19.19
-24.58
-29.10
-31.93
-32.74
-31.75
-29.45
-26.33
-22.59
-18.03
-12.09
-4.14
6.25
19.15
34.19
50.67
67.62
83.93
98.36
109.63
116.57
118.39
114.99
107.09
96.14
83.84
71.69
60.52
50.36
40.66
30.67
19.92
8.40
-3.43
-14.89
-25.32
-34.30
-41.68
-47.63
-52.50
-56.77
-61.04
-65.89
-71.78
-78.77
-86.44
-93.88
-99.91
-103.37
-103.48
-100.11
-93.81
-85.77
-77.43
-70.04
-64.19
-59.49
-54.70
-48.17
-38.47
-24.99
-8.26
10.32
28.86
45.68
59.73
70.75
79.11
85.54
90.81
95.51
99.99
104.38
108.61
112.50
115.76
117.92
118.37
116.52
112.02
105.00
96.12
86.32
76.47
67.08
58.12
49.16
39.69
29.45
18.73
8.25
-0.97
-8.09
-12.77
-15.40
-17.10
-19.29
-23.26
-29.62
-38.04
-47.28
-55.64
-61.48
-63.81
-62.55
-58.48
-53.05
-47.84
-44.26
-43.20
-44.91
-49.08
-54.97
-61.52
-67.51
-71.68
-72.94
-70.71
-65.12
-57.17
-48.51
-40.90
-35.59
-32.80
-31.54
-30.03
-26.41
-19.53
-9.46
2.65
15.04
26.14
35.16
42.27
48.33
54.39
61.21
68.97
77.32
85.58
92.90
98.47
101.62
101.98
99.59
94.96
89.02
82.87
77.52
73.58
71.10
69.61
68.29
66.29
62.96
58.14
52.11
45.49
38.96
32.88
27.15
21.23
14.45
6.35
-2.98
-12.96
-22.70
-31.33
-38.31
-43.47
-47.03
-49.38
-51.02
-52.48
-54.25
-56.67
-59.84
-63.56
-67.28
-70.26
-71.79
-71.36
-68.73
-64.01
-57.59
-50.10
-42.29
-34.85
-28.20
-22.33
-16.70
-10.43
-2.64
7.16
18.73
31.07
42.69
52.14
58.50
61.72
62.60
62.35
62.15
62.64
63.86
65.41
66.78
67.63
67.84
67.35
65.96
63.30
59.06
53.29
46.65
40.29
35.42
32.76
32.25
33.12
34.30
34.95
34.69
33.52
31.49
28.48
24.18
18.37
11.23
3.46
-3.93
-10.06
-14.57
-17.70
-20.08
-22.25
-24.37
-26.08
-26.69
-25.55
-22.47
-17.81
-12.41
-7.25
-3.10
-0.26
1.42
2.33
2.82
2.90
2.35
0.82
-1.79
-5.21
-8.75
-11.47
-12.54
-11.46
-8.25
-3.54
1.64
6.05
8.59
8.69
6.45
2.68
-1.43
-4.72
-6.49
-6.77
-6.18
-5.67
-6.06
-7.78
-10.74
-14.46
-18.32
-21.78
-24.51
-26.45
-27.71
-28.49
-29.03
-29.54
-30.25
-31.31
-32.72
-34.18
-35.15
-34.88
-32.70
-28.24
-21.60
-13.40
-4.62
3.69
10.56
15.40
18.02
18.68
18.09
17.27
17.24
18.68
21.58
25.21
28.31
29.62
28.44
24.97
20.16
15.27
11.15
7.86
4.71
0.80
-4.35
-10.43
-16.43
-21.20
-23.99
-24.80
-24.22
-23.09
-22.06
-21.36
-20.81
-20.07
-18.83
-16.92
-14.22
-10.64
-6.15
-0.87
4.71
9.80
13.52
15.36
15.50
14.81
14.52
15.54
17.97
21.03
23.46
24.25
23.17
20.90
18.59
17.28
17.40
18.67
20.35
21.68
22.13
21.43
19.49
16.26
11.71
6.00
-0.47
-6.94
-12.47
-16.28
-17.98
-17.68
-15.94
-13.56
-11.38
-10.22
-10.68
-13.06
-17.05
-21.76
-25.61
-27.05
-25.23
-20.49
-14.21
-8.24
-4.15
-2.61
-3.17
-4.45
-4.89
-3.50
-0.06
4.93
10.69
16.41
21.41
25.08
27.39
28.40
28.21
27.08
25.41
23.84
22.91
22.71
22.77
23.42
24.81
26.78
28.99
31.26
33.91
37.41
41.78
46.28
52.17
60.18
69.83
79.62
87.88
93.87
97.72
99.59
99.29
100.73
107.34
120.40
138.64
158.96
178.59
195.78
209.20
217.73
226.57
240.91
263.36
293.30
327.17
361.57
394.26
422.82
414.27
349.82
233.15
90.81
-45.19
-155.68
-235.32
-287.13
-318.08
-340.71
-358.81
-373.62
-386.44
-398.89
-414.26
-434.19
-452.51
-456.11
-437.17
-393.15
-331.99
-273.78
-225.07
-188.53
-163.71
-146.76
-135.40
-129.27
-125.68
-122.02
-116.20
-106.48
-94.25
-81.59
-70.21
-62.01
-58.89
-59.89
-62.53
-63.68
-60.02
-51.19
-38.39
-23.65
-9.76
0.60
6.77
10.03
13.12
19.48
30.69
46.79
66.50
87.36
106.31
120.67
128.78
130.52
127.46
121.76
115.90
111.91
110.62
111.42
112.71
112.61
109.72
103.65
94.71
83.72
71.67
59.32
47.16
35.45
24.36
14.20
5.42
-1.57
-6.65
-10.26
-13.30
-16.82
-21.52
-27.35
-33.57
-39.15
-43.30
-45.91
-47.58
-49.21
-51.59
-55.04
-59.25
-63.58
-67.27
-69.83
-71.15
-71.45
-71.26
-71.15
-71.60
-72.87
-74.94
-77.55
-80.27
-82.61
-84.14
-84.55
-83.60
-81.20
-77.27
-71.85
-65.13
-57.54
-49.61
-41.85
-34.50
-27.44
-20.27
-12.53
-4.03
5.05
14.21
22.91
30.80
37.87
44.35
50.50
56.37
61.81
66.53
70.36
73.40
76.15
79.26
83.29
88.30
93.69
98.30
100.71
99.91
95.67
88.78
80.72
73.15
67.22
63.30
60.91
59.11
56.96
53.80
49.39
43.73
36.98
29.23
20.64
11.51
2.29
-6.43
-14.19
-20.82
-26.64
-32.26
-38.30
-45.01
-52.06
-58.66
-63.90
-67.26
-68.84
-69.33
-69.70
-70.72
-72.64
-75.13
-77.50
-79.04
-79.29
-78.13
-75.76
-72.51
-68.68
-64.37
-59.41
-53.41
-45.84
-36.19
-24.18
-9.88
6.15
22.84
38.78
52.43
62.49
68.17
69.43
66.95
61.99
55.99
50.27
45.72
42.74
41.21
40.67
40.46
39.94
38.67
36.50
33.66
30.61
27.85
25.79
24.62
24.29
24.67
25.67
27.21
29.18
31.38
33.49
35.22
36.44
37.18
37.53
37.39
36.43
34.13
30.18
24.73
18.52
12.61
7.95
4.88
3.02
1.44
-0.88
-4.56
-9.58
-15.34
-20.91
-25.46
-28.50
-30.02
-30.38
-30.14
-29.80
-29.78
-30.28
-31.44
-33.22
-35.42
-37.63
-39.27
-39.67
-38.35
-35.18
-30.47
-24.96
-19.56
-15.23
-12.75
-12.53
-14.47
-17.91
-21.69
-24.46
-25.14
-23.40
-19.79
-15.57
-12.21
-10.71
-11.23
-13.13
-15.30
-16.80
-17.12
-16.34
-14.90
-13.25
-11.72
-10.46
-9.54
-9.04
-9.03
-9.44
-10.02
-10.32
-9.83
-8.26
-5.68
-2.50
0.63
3.12
4.60
5.11
5.04
5.01
5.66
7.41
10.34
14.13
18.20
21.89
24.66
26.33
27.11
27.55
28.32
29.92
32.46
35.48
38.19
39.60
39.05
36.40
32.13
27.13
22.33
18.33
15.23
12.68
10.13
7.09
3.32
-1.19
-6.25
-11.48
-16.37
-20.27
-22.56
-23.03
-22.06
-20.68
-20.19
-21.50
-24.62
-28.55
-31.79
-33.03
-31.86
-28.92
-25.57
-23.13
-22.32
-23.08
-24.74
-26.46
-27.57
-27.72
-26.80
-24.91
-22.25
-19.16
-16.15
-13.81
-12.67
-12.99
-14.64
-16.99
-19.08
-19.84
-18.50
-14.94
-9.81
-4.30
0.41
3.63
5.55
7.04
9.21
12.79
17.80
23.68
29.54
34.68
38.80
41.87
43.95
44.94
44.61
42.84
39.85
36.24
32.85
30.43
29.41
29.69
30.74
31.83
32.32
31.80
30.16
27.32
23.24
18.11
12.46
7.14
3.12
1.38
2.32
5.58
10.08
14.52
18.09
20.68
22.58
24.09
25.62
27.20
28.78
30.04
30.70
30.91
31.01
30.87
30.09
28.73
27.14
26.46
27.28
29.45
32.84
37.25
41.93
46.19
50.14
54.55
61.85
73.29
88.75
108.03
130.59
154.43
169.60
166.50
141.16
100.25
54.17
11.41
-22.52
-45.65
-60.64
-72.50
-85.91
-104.15
-126.41
-152.69
-183.91
-219.69
-252.98
-277.63
-280.05
-253.99
-218.47
-183.80
-151.17
-124.27
-104.55
-90.95
-81.95
-75.95
-72.79
-72.41
-71.66
-69.02
-65.08
-60.49
-55.98
-52.90
-52.19
-54.68
-59.73
-63.35
-62.68
-57.15
-47.36
-35.07
-23.12
-13.96
-9.25
-8.50
-8.06
-4.43
4.29
18.55
37.26
57.98
78.03
95.00
107.62
116.49
122.64
126.92
130.14
132.85
135.21
137.14
138.29
138.33
137.22
134.80
130.65
124.42
115.93
105.38
93.38
80.82
68.58
57.22
46.79
36.95
27.17
17.11
6.85
-3.17
-12.23
-19.66
-25.10
-28.59
-30.59
-31.89
-33.41
-35.95
-40.02
-45.64
-52.37
-59.39
-65.84
-71.09
-74.91
-77.51
-79.29
-80.67
-81.91
-83.07
-84.13
-85.07
-85.91
-86.64
-87.14
-87.07
-85.96
-83.30
-78.79
-72.51
-64.97
-56.98
-49.45
-42.91
-37.32
-31.91
-25.54
-17.10
-6.11
7.03
21.09
34.44
45.68
54.08
59.78
63.52
66.23
68.57
70.76
72.62
73.93
74.70
75.24
76.03
77.38
79.18
80.88
81.74
81.22
79.29
76.44
73.42
70.86
68.93
67.31
65.45
62.89
59.50
55.51
51.32
47.21
43.22
39.15
34.68
29.57
23.71
17.14
9.91
2.06
-6.34
-15.13
-23.93
-32.21
-39.48
-45.42
-50.11
-53.91
-57.35
-60.85
-64.59
-68.54
-72.65
-76.97
-81.69
-86.85
-92.22
-97.03
-100.18
-100.59
-97.64
-91.52
-83.23
-74.32
-66.26
-59.86
-54.89
-50.05
-43.40
-33.04
-17.83
2.11
25.30
49.17
70.60
86.80
95.95
97.75
93.47
85.59
76.98
70.05
66.14
65.32
66.72
69.04
71.02
71.72
70.49
66.94
60.95
52.80
43.22
33.30
24.21
16.83
11.53
8.07
5.75
3.74
1.34
-1.78
-5.53
-9.44
-12.80
-14.93
-15.38
-14.09
-11.61
-8.87
-7.05
-7.07
-9.30
-13.28
-17.95
-22.04
-24.54
-25.07
-23.92
-21.76
-19.27
-16.91
-14.91
-13.43
-12.69
-12.97
-14.38
-16.72
-19.36
-21.38
-21.95
-20.61
-17.48
-13.29
-9.15
-6.18
-5.07
-5.78
-7.44
-8.72
-8.29
-5.47
-0.60
5.09
10.01
12.87
13.23
11.53
8.76
5.90
3.50
1.58
-0.19
-2.15
-4.53
-7.38
-10.71
-14.59
-19.09
-24.23
-29.75
-35.08
-39.41
-41.97
-42.28
-40.37
-36.83
-32.66
-28.96
-26.58
-25.83
-26.34
-27.24
-27.37
-25.74
-21.91
-16.17
-9.48
-3.17
1.60
4.28
5.18
5.33
5.98
7.97
11.35
15.34
18.86
21.02
21.58
20.93
19.65
17.97
15.59
11.83
6.08
-1.67
-10.66
-19.63
-27.20
-32.31
-34.38
-33.36
-29.61
-23.94
-17.41
-11.26
-6.56
-3.77
-2.50
-1.66
0.01
3.34
8.23
13.64
18.19
20.78
21.20
20.04
18.42
17.32
17.19
17.92
19.02
20.03
20.65
20.82
20.49
19.57
17.92
15.47
12.36
8.98
5.92
3.71
2.65
2.66
3.28
3.83
3.72
2.59
0.54
-2.01
-4.38
-5.83
-5.78
-3.84
-0.06
5.13
10.82
15.88
19.31
20.71
20.48
19.69
19.54
20.79
23.45
26.74
29.48
30.65
29.70
26.68
22.05
16.35
10.10
3.94
-1.65
-6.43
-10.46
-14.06
-17.55
-21.04
-24.22
-26.42
-26.23
-22.57
-15.34
-5.70
4.33
12.62
17.62
18.72
16.55
13.68
12.79
15.58
22.08
31.00
40.46
48.74
54.39
57.04
58.95
62.74
69.91
80.20
91.87
102.76
111.40
116.51
118.32
120.25
126.05
137.79
155.19
175.82
196.63
215.32
229.28
224.26
192.53
136.80
69.91
6.48
-45.40
-84.41
-112.37
-136.75
-163.05
-192.16
-222.92
-253.87
-284.24
-309.94
-327.55
-326.15
-301.50
-258.62
-208.09
-160.18
-124.05
-96.57
-74.45
-56.44
-42.84
-34.66
-32.65
-34.89
-37.45
-36.66
-30.32
-19.55
-6.93
4.72
13.01
17.09
18.29
19.66
24.14
33.54
47.17
63.18
79.47
94.87
109.19
119.55
123.40
119.31
108.02
91.18
74.15
56.64
38.26
19.53
1.79
-13.09
-22.48
-24.62
-19.71
-9.61
2.37
13.57
22.17
27.49
30.40
32.36
34.43
36.61
38.18
37.94
35.67
31.78
26.80
21.35
15.78
10.02
3.83
-2.89
-10.18
-17.50
-24.28
-30.22
-35.20
-39.14
-41.94
-43.45
-43.58
-42.68
-41.31
-40.27
-40.41
-42.33
-46.03
-50.89
-55.84
-59.80
-62.04
-62.49
-61.42
-59.48
-57.51
-56.26
-55.97
-56.43
-57.13
-57.52
-57.46
-56.60
-54.56
-50.90
-45.22
-36.98
-25.97
-12.51
2.65
18.40
34.48
51.25
68.82
85.24
97.26
101.93
97.96
87.98
73.28
55.74
37.89
22.22
10.69
4.95
5.20
10.10
17.28
24.04
28.95
31.92
33.62
34.90
36.31
37.85
39.14
39.83
39.58
38.66
37.51
36.37
35.14
33.53
31.09
27.45
22.31
15.49
7.21
-1.98
-11.43
-20.39
-28.18
-34.25
-38.39
-40.73
-41.83
-42.39
-43.20
-44.86
-47.70
-51.63
-56.23
-60.90
-65.06
-68.31
-70.38
-71.15
-70.68
-69.14
-66.98
-64.71
-62.86
-61.64
-60.80
-59.67
-57.33
-52.99
-46.39
-37.93
-28.57
-19.42
-11.24
-3.94
3.52
12.89
26.06
44.32
67.61
94.17
120.66
142.68
155.73
156.37
143.23
117.71
83.93
47.80
15.49
-8.35
-21.75
-25.64
-23.04
-17.54
-12.06
-8.07
-5.77
-4.69
-4.29
-4.30
-4.56
-4.77
-4.35
-2.63
0.85
6.06
12.49
19.40
26.15
32.42
38.15
43.29
47.50
50.04
50.00
46.70
40.13
31.08
20.95
11.26
3.07
-3.28
-8.20
-12.54
-17.23
-22.95
-30.03
-38.25
-46.98
-55.14
-61.42
-64.69
-64.31
-60.47
-54.12
-46.64
-39.41
-33.38
-28.89
-25.77
-23.56
-21.74
-19.82
-17.47
-14.47
-10.77
-6.55
-2.31
1.18
2.95
2.22
-1.25
-6.85
-13.21
-18.54
-21.36
-21.09
-18.30
-14.46
-11.26
-9.90
-10.66
-13.02
-16.08
-19.03
-21.50
-23.50
-25.16
-26.53
-27.42
-27.55
-26.77
-25.21
-23.17
-20.99
-18.72
-16.08
-12.58
-7.84
-1.81
5.13
12.35
19.20
25.21
30.13
33.89
36.55
38.28
39.38
40.21
41.08
41.99
42.60
42.30
40.57
37.24
32.71
27.82
23.48
20.25
18.15
16.69
15.22
13.29
10.92
8.48
6.46
5.08
4.10
2.92
0.85
-2.51
-7.09
-12.37
-17.61
-22.02
-24.93
-25.81
-24.46
-21.04
-16.31
-11.54
-8.20
-7.49
-9.75
-14.27
-19.49
-23.68
-25.59
-24.95
-22.48
-19.45
-17.05
-15.93
-15.97
-16.58
-16.94
-16.39
-14.54
-11.34
-7.03
-2.04
3.05
7.56
10.90
12.66
12.78
11.62
9.87
8.39
7.86
8.58
10.31
12.39
14.06
14.74
14.32
13.07
11.52
10.19
9.52
9.80
11.20
13.76
17.21
20.94
24.11
25.90
25.95
24.47
22.20
20.05
18.69
18.30
18.58
18.99
19.04
18.48
17.29
15.60
13.47
10.83
7.50
3.37
-1.44
-6.53
-11.30
-15.15
-17.70
-18.92
-18.99
-18.21
-16.79
-14.83
-12.46
-9.95
-7.91
-7.11
-8.20
-11.37
-16.01
-20.83
-24.22
-24.86
-22.14
-16.47
-9.00
-1.22
5.60
10.77
14.38
17.15
20.18
24.62
31.41
40.98
53.28
67.75
83.49
99.56
115.11
129.47
142.21
153.12
162.16
169.36
174.46
176.61
174.12
164.66
146.04
117.36
79.93
37.47
-4.75
-41.43
-68.94
-86.24
-94.71
-97.12
-96.36
-94.54
-92.80
-91.61
-91.21
-91.85
-93.59
-96.11
-98.64
-100.16
-99.87
-97.59
-93.94
-90.11
-87.34
-86.36
-87.00
-88.18
-88.34
-86.18
-81.26
-74.25
-66.70
-60.26
-55.91
-53.42
-51.36
-47.69
-40.58
-29.02
-13.27
5.10
23.43
38.46
47.09
47.32
39.15
24.88
8.59
-5.21
-13.31
-14.81
-11.23
-5.46
-0.12
3.61
6.19
9.03
13.36
19.45
26.61
33.70
39.93
45.14
49.69
53.94
57.84
60.81
61.95
60.53
56.32
49.68
41.49
32.77
24.44
17.07
10.76
5.22
-0.13
-5.84
-12.24
-19.22
-26.28
-32.64
-37.59
-40.76
-42.28
-42.70
-42.80
-43.26
-44.40
-46.12
-47.96
-49.38
-50.01
-49.86
-49.32
-49.00
-49.37
-50.46
-51.75
-52.34
-51.36
-48.28
-43.25
-37.04
-30.49
-24.08
-17.69
-10.67
-2.33
7.88
20.21
34.46
49.91
65.18
78.23
86.52
87.72
80.67
66.23
47.67
29.41
15.40
7.86
6.70
9.89
14.70
18.54
20.10
19.88
18.60
16.47
13.38
9.21
4.29
-0.39
-4.03
-5.80
-3.98
1.63
9.60
18.34
26.90
35.53
45.78
58.94
76.31
100.31
130.16
161.26
187.40
202.27
201.04
181.45
142.68
87.05
22.24
-43.66
-103.96
-153.00
-187.52
-207.42
-206.39
-183.86
-159.14
-140.38
-124.74
-110.85
-97.87
-86.02
-76.20
-69.06
-65.75
-66.00
-65.90
-63.01
-57.54
-50.55
-43.58
-37.98
-34.61
-34.87
-39.51
-46.40
-53.55
-59.54
-62.32
-59.97
-51.60
-38.06
-22.44
-8.24
3.36
12.28
19.32
26.11
34.05
43.58
54.18
64.45
73.07
79.86
84.65
87.16
87.40
85.79
83.31
81.29
80.94
82.80
86.93
92.36
97.65
101.49
103.06
102.17
99.25
94.85
89.01
81.44
71.63
59.50
45.67
31.37
18.07
7.02
-1.44
-9.38
-18.09
-28.13
-38.80
-48.36
-54.35
-53.96
-45.99
-29.07
-3.39
29.00
63.99
96.97
123.85
139.97
140.15
123.94
97.23
69.87
50.57
42.32
43.15
48.40
53.71
56.92
58.47
58.68
58.42
57.47
54.24
47.72
37.77
24.88
10.09
-5.46
-21.48
-39.33
-56.41
-73.03
-89.82
-107.31
-125.91
-146.03
-168.21
-193.08
-220.74
-250.00
-278.44
-301.73
-315.14
-315.50
-302.40
-278.21
-247.00
-212.88
-178.96
-147.57
-119.94
-97.03
-79.87
-69.27
-65.22
-66.47
-70.58
-74.64
-76.43
-74.62
-69.24
-61.55
-53.38
-46.35
-41.07
-37.02
-32.97
-28.05
-22.22
-16.42
-12.10
-10.32
-10.96
-12.78
-13.96
-12.94
-9.09
-2.75
5.00
12.88
19.99
26.17
31.79
37.36
43.14
49.05
54.68
59.58
63.48
66.56
69.70
73.90
79.88
87.77
97.20
107.42
117.54
126.71
134.36
140.89
146.73
151.67
154.83
155.28
152.69
147.46
140.36
132.04
124.25
118.05
113.39
109.48
105.85
102.73
100.32
98.10
94.77
91.48
89.72
90.38
93.30
97.88
103.50
109.41
114.62
118.43
124.12
135.21
153.19
176.66
202.82
229.10
253.65
275.12
272.25
232.81
160.35
73.05
-9.71
-77.01
-126.16
-158.87
-178.60
-189.17
-190.90
-183.90
-169.87
-152.40
-135.31
-121.06
-110.60
-103.80
-100.00
-95.89
-88.46
-77.08
-63.71
-51.24
-41.87
-36.52
-35.04
-36.84
-40.07
-42.58
-43.92
-45.32
-48.53
-54.57
-63.38
-73.94
-83.40
-90.66
-94.78
-95.95
-95.48
-94.94
-95.34
-96.73
-98.28
-99.17
-98.67
-96.26
-92.28
-87.69
-83.54
-80.69
-80.83
-82.91
-86.01
-88.55
-87.77
-80.78
-65.75
-43.06
-15.75
11.37
33.77
48.39
54.86
55.35
52.93
50.02
47.53
45.09
41.94
38.00
33.68
29.69
26.56
24.15
21.78
18.54
13.98
8.30
2.63
-1.98
-4.83
-5.90
-5.84
-5.55
-5.68
-6.13
-7.28
-8.46
-8.92
-8.28
-6.62
-4.51
-2.65
-1.51
-1.21
-1.48
-1.66
-1.34
-0.38
0.97
2.23
2.88
2.49
0.93
-1.74
-4.99
-8.16
-10.52
-11.44
-10.58
-8.00
-4.19
0.13
4.16
7.37
9.52
10.61
10.82
10.31
9.18
7.45
5.15
2.44
-0.30
-2.56
-3.82
-3.77
-2.35
0.16
3.31
6.57
9.49
11.76
13.21
13.77
13.52
12.64
11.42
10.12
8.94
7.95
7.14
6.45
5.82
5.19
4.45
3.45
2.12
0.56
-0.90
-1.73
-1.48
-0.00
2.38
4.99
7.01
7.86
7.39
5.88
3.80
1.57
-0.59
-2.60
-4.41
-5.86
-6.82
-7.16
-6.97
-6.50
-6.05
-5.78
-5.64
-5.43
-4.95
-4.14
-3.14
-2.18
-1.51
-1.28
-1.52
-2.19
-3.18
-4.34
-5.51
-6.52
-7.30
-7.94
-8.71
-9.90
-11.66
-13.76
-15.57
-16.32
-15.31
-12.31
-7.64
-1.97
3.89
9.35
14.13
18.17
21.49
24.11
25.97
27.03
27.39
27.19
26.64
25.91
25.12
24.33
23.52
22.64
21.64
20.51
19.28
18.05
16.88
15.84
14.90
14.01
13.15
12.33
11.54
10.76
9.92
8.97
7.93
6.82
5.72
4.61
3.44
2.26
1.33
1.08
1.95
4.16
7.52
11.50
15.37
18.59
20.84
22.15
22.70
22.65
22.07
21.01
19.53
17.80
16.03
14.42
13.07
12.00
11.16
10.53
10.20
10.26
10.68
11.27
11.79
12.00
11.71
10.84
9.44
7.78
