1660332693.00
64.000000
-0.00
-0.00
-0.00
-0.00
-0.00
-0.00
-0.00
-0.00
-0.00
-0.00
0.00
0.01
0.01
-0.00
-0.03
-0.05
-0.05
0.00
0.13
0.36
0.66
1.01
1.37
1.72
2.06
2.40
2.79
3.24
3.80
4.42
5.06
5.67
6.21
6.68
7.14
7.67
8.31
9.16
10.14
11.11
11.93
12.53
12.95
13.35
14.00
15.08
16.86
19.15
21.68
24.11
26.22
28.08
29.99
32.42
35.75
40.38
45.98
51.96
57.67
62.66
66.94
71.02
75.70
81.62
89.43
98.62
108.27
117.28
124.85
130.89
136.09
142.03
147.74
155.76
166.72
180.49
195.39
208.04
213.85
208.28
188.44
154.11
108.20
54.68
-2.50
-60.86
-119.66
-179.08
-239.10
-298.75
-356.25
-409.34
-456.81
-498.24
-533.77
-563.43
-586.77
-602.81
-610.09
-606.85
-590.73
-559.42
-510.95
-444.84
-363.12
-270.56
-173.96
-80.42
4.38
77.28
137.37
185.21
221.78
247.94
264.57
272.93
274.89
272.68
268.32
262.96
256.78
249.21
239.46
227.12
212.46
196.42
180.30
165.20
151.73
139.80
128.84
118.09
107.00
95.49
83.88
72.78
62.78
54.24
47.27
41.74
37.33
33.68
30.45
27.29
23.92
20.23
16.13
11.67
7.03
2.47
-1.75
-5.42
-8.42
-10.71
-12.24
-13.04
-13.12
-12.54
-11.48
-10.21
-9.05
-8.24
-7.86
-7.81
-7.88
-7.81
-7.45
-6.82
-6.07
-5.43
-5.11
-5.19
-5.59
-6.17
-6.64
-6.71
-6.12
-4.74
-2.66
-0.21
2.06
3.63
4.15
3.58
2.21
0.48
-1.22
-2.66
-3.82
-4.76
-5.50
-5.98
-6.04
-5.59
-4.65
-3.41
-2.13
-1.10
-0.47
-0.28
-0.45
-0.83
-1.23
-1.52
-1.65
-1.65
-1.61
-1.65
-1.83
-2.14
-2.49
-2.74
-2.74
-2.35
-1.46
-0.06
1.77
3.77
5.60
6.88
7.35
6.95
5.83
4.29
2.66
1.18
-0.01
-0.85
-1.31
-1.36
-1.00
-0.29
0.62
1.50
2.13
2.33
2.09
1.45
0.56
-0.39
-1.29
-2.07
-2.73
-3.31
-3.85
-4.36
-4.88
-5.42
-5.92
-6.26
-6.22
-5.58
-4.20
-2.17
0.15
2.27
3.69
4.18
3.79
2.83
1.68
0.59
-0.40
-1.39
-2.46
-3.54
-4.42
-4.83
-4.58
-3.71
-2.47
-1.21
-0.28
0.14
0.11
-0.20
-0.56
-0.82
-0.94
-1.00
-1.07
-1.22
-1.47
-1.82
-2.28
-2.85
-3.43
-3.77
-3.49
-2.30
-0.11
2.86
6.08
8.92
10.86
11.64
11.30
10.10
8.29
6.14
3.71
1.22
-1.10
-2.98
-4.21
-4.69
-4.43
-3.57
-2.41
-1.28
-0.49
-0.21
-0.46
-1.08
-1.80
-2.40
-2.81
-3.15
-3.65
-4.55
-5.96
-7.83
-9.95
-11.98
-13.57
-14.36
-14.04
-12.37
-9.29
-4.97
0.11
5.28
9.80
13.09
14.85
15.13
14.20
12.47
10.32
8.03
5.82
3.86
2.28
1.19
0.67
0.67
1.05
1.58
2.03
2.21
2.08
1.77
1.45
1.26
1.22
1.16
0.84
0.00
-1.44
-3.39
-5.57
-7.63
-9.14
-9.72
-9.08
-7.11
-3.98
-0.08
4.01
7.68
10.52
12.31
13.07
12.93
12.03
10.48
8.36
5.81
3.05
0.41
-1.83
-3.39
-4.18
-4.21
-3.67
-2.87
-2.16
-1.83
-2.04
-2.76
-3.80
-4.89
-5.78
-6.36
-6.70
-7.01
-7.53
-8.46
-9.80
-11.34
-12.66
-13.26
-12.71
-10.82
-7.70
-3.75
0.49
4.43
7.60
9.71
10.64
10.44
9.23
7.19
4.58
1.70
-1.09
-3.41
-4.95
-5.60
-5.42
-4.71
-3.87
-3.24
-3.04
-3.22
-3.64
-4.09
-4.47
-4.77
-5.10
-5.62
-6.50
-7.84
-9.65
-11.76
-13.83
-15.32
-15.61
-14.22
-11.03
-6.33
-0.80
4.73
9.50
13.08
15.31
16.27
16.15
15.19
13.62
11.66
9.61
7.72
6.21
5.19
4.62
4.36
4.17
3.85
3.26
2.37
1.28
0.14
-0.89
-1.74
-2.43
-3.01
-3.61
-4.32
-5.23
-6.39
-7.68
-8.88
-9.57
-9.29
-7.68
-4.63
-0.38
4.51
9.35
13.48
16.44
18.02
18.22
17.21
15.24
12.58
9.54
6.45
3.63
1.39
-0.04
-0.60
-0.45
0.10
0.64
0.86
0.64
0.05
-0.69
-1.38
-1.91
-2.33
-2.78
-3.41
-4.32
-5.55
-7.08
-8.80
-10.51
-11.83
-12.33
-11.61
-9.47
-6.08
-1.91
2.35
6.07
8.81
10.47
11.17
11.14
10.59
9.62
8.31
6.74
5.09
3.60
2.53
2.02
2.04
2.40
2.83
3.06
2.91
2.37
1.53
0.56
-0.37
-1.10
-1.58
-1.86
-2.04
-2.31
-2.87
-3.80
-5.09
-6.50
-7.60
-7.90
-6.99
-4.69
-1.15
3.14
7.49
11.19
13.73
14.85
14.54
12.98
10.46
7.28
3.78
0.25
-3.01
-5.77
-7.88
-9.33
-10.19
-10.64
-10.82
-10.87
-10.82
-10.66
-10.34
-9.86
-9.29
-8.72
-8.30
-8.13
-8.29
-8.82
-9.69
-10.74
-11.71
-12.18
-11.67
-9.84
-6.63
-2.35
2.36
6.74
10.22
12.48
13.56
13.63
12.93
11.56
9.62
7.21
4.58
2.12
0.23
-0.80
-0.95
-0.48
0.16
0.56
0.47
-0.11
-0.99
-1.93
-2.76
-3.43
-4.04
-4.78
-5.80
-7.20
-9.00
-11.10
-13.22
-14.90
-15.60
-14.80
-12.25
-8.07
-2.81
2.71
7.65
11.43
13.81
14.89
14.94
14.20
12.83
10.88
8.51
6.02
3.85
2.46
2.08
2.59
3.57
4.44
4.77
4.42
3.53
2.41
1.32
0.42
-0.33
-1.05
-1.85
-2.82
-4.00
-5.45
-7.17
-9.06
-10.81
-11.94
-11.87
-10.19
-6.81
-2.07
3.37
8.67
13.12
16.22
17.82
18.01
17.04
15.22
12.90
10.36
7.90
5.71
3.95
2.67
1.88
1.49
1.36
1.29
1.10
0.66
-0.04
-0.91
-1.80
-2.62
-3.33
-4.00
-4.74
-5.64
-6.79
-8.22
-9.89
-11.66
-13.22
-14.17
-14.05
-12.52
-9.54
-5.43
-0.81
3.61
7.19
9.56
10.68
10.71
9.94
8.59
6.81
4.68
2.31
-0.08
-2.21
-3.78
-4.65
-4.85
-4.65
-4.38
-4.36
-4.71
-5.38
-6.21
-6.99
-7.57
-7.91
-8.10
-8.27
-8.62
-9.28
-10.32
-11.66
-13.04
-14.05
-14.14
-12.88
-10.01
-5.65
-0.36
4.96
9.24
11.66
11.88
10.17
7.20
3.79
0.65
-1.86
-3.78
-5.29
-6.58
-7.52
-7.86
-7.47
-6.41
-4.88
-3.18
-1.60
-0.32
0.62
1.50
2.60
4.00
5.58
7.38
9.40
11.60
13.70
15.29
16.38
17.18
18.11
19.59
22.32
26.69
32.47
38.77
44.35
48.62
51.40
52.79
50.81
44.36
34.01
21.86
11.28
2.48
-4.83
-10.93
-16.05
-20.24
-23.29
-25.07
-25.69
-25.76
-26.09
-26.91
-28.13
-29.58
-31.15
-32.55
-33.57
-32.83
-29.76
-24.81
-18.83
-12.81
-7.45
-3.13
0.15
2.49
4.08
4.78
4.50
3.56
2.46
1.55
0.78
-0.22
-2.08
-5.22
-9.92
-15.74
-21.51
-25.79
-27.47
-26.22
-22.57
-18.06
-13.50
-9.82
-7.41
-5.91
-4.41
-1.90
2.29
8.35
15.47
22.60
28.46
32.06
32.83
30.69
26.00
19.55
12.43
5.88
1.14
-1.07
-0.67
1.75
5.12
8.16
9.83
9.58
7.43
4.01
0.14
-3.38
-6.05
-7.75
-8.64
-8.97
-8.99
-8.84
-8.56
-8.26
-8.02
-7.96
-8.07
-8.23
-8.28
-8.04
-7.41
-6.42
-5.17
-3.82
-2.56
-1.50
-0.74
-0.33
-0.28
-0.55
-0.94
-1.11
-0.62
0.86
3.42
6.75
10.17
12.88
14.26
14.07
12.50
10.01
7.09
4.07
1.12
-1.72
-4.32
-6.44
-7.77
-8.07
-7.35
-5.87
-4.11
-2.65
-1.86
-1.87
-2.50
-3.41
-4.32
-5.14
-5.86
-6.59
-7.38
-8.19
-8.90
-9.42
-9.74
-9.85
-9.60
-8.57
-6.26
-2.37
3.01
9.23
15.37
20.57
24.40
26.22
26.18
24.78
22.64
20.18
17.59
14.91
12.15
9.44
6.99
5.08
3.84
3.13
2.60
1.86
0.63
-1.11
-3.18
-5.25
-6.98
-8.16
-8.78
-9.06
-9.38
-10.20
-12.02
-15.27
-20.04
-25.98
-32.21
-37.53
-40.67
-40.78
-37.63
-31.78
-24.33
-16.56
-9.53
-3.87
0.17
2.64
3.69
3.55
2.50
0.99
-0.39
-1.03
-0.49
1.32
4.11
7.36
10.56
13.36
15.69
17.64
19.29
20.48
20.85
19.92
17.40
13.38
8.31
2.92
-2.05
-6.01
-8.63
-9.72
-9.27
-7.36
-4.26
-0.42
3.55
7.04
9.61
11.12
11.70
11.65
11.24
10.59
9.73
8.59
7.22
5.80
4.56
3.68
3.17
2.79
2.19
1.09
-0.56
-2.52
-4.43
-5.95
-6.95
-7.54
-8.03
-8.81
-10.22
-12.48
-15.58
-19.23
-22.84
-25.55
-26.46
-24.95
-20.92
-14.90
-7.91
-1.17
4.30
7.90
9.54
9.48
8.18
6.10
3.61
1.02
-1.44
-3.49
-4.86
-5.37
-5.00
-3.90
-2.39
-0.83
0.58
1.84
3.12
4.63
6.44
8.46
10.48
12.36
14.10
15.88
17.91
20.31
23.08
26.04
28.91
31.39
33.19
34.13
34.21
33.66
32.91
32.45
32.60
33.35
34.26
34.68
33.94
31.59
27.58
22.17
15.82
9.04
2.23
-4.27
-10.24
-15.50
-19.83
-23.06
-25.03
-25.75
-25.46
-24.56
-23.59
-22.99
-23.03
-23.72
-24.78
-25.82
-26.31
-25.78
-23.89
-20.52
-15.89
-10.46
-4.94
-0.05
3.55
5.42
5.40
3.65
0.67
-2.82
-5.97
-8.08
-8.79
-8.14
-6.58
-4.69
-3.03
-1.93
-1.49
-1.64
-2.25
-3.19
-4.29
-5.42
-6.41
-7.20
-7.80
-8.37
-9.11
-10.20
-11.64
-13.18
-14.34
-14.51
-13.05
-9.57
-3.95
3.57
12.51
22.25
32.22
41.85
50.57
57.60
62.04
62.98
59.88
52.89
42.98
31.76
21.03
12.30
6.35
3.19
2.23
2.61
3.48
4.21
4.38
3.72
2.14
-0.38
-3.72
-7.62
-11.76
-15.86
-19.72
-23.35
-26.84
-30.27
-33.55
-36.31
-38.02
-38.15
-36.39
-32.81
-27.82
-22.07
-16.25
-10.92
-6.48
-3.19
-1.21
-0.67
-1.61
-3.87
-7.07
-10.57
-13.63
-15.59
-16.08
-15.13
-13.16
-10.80
-8.61
-6.95
-5.89
-5.27
-4.86
-4.56
-4.45
-4.78
-5.87
-7.97
-11.07
-14.83
-18.53
-21.21
-21.96
-20.19
-15.89
-9.60
-2.26
5.15
11.93
17.77
22.73
27.06
31.05
34.90
38.72
42.50
46.04
48.94
50.64
50.53
48.23
43.81
37.86
31.32
25.23
20.35
16.97
14.86
13.49
12.28
10.78
8.77
6.18
3.02
-0.76
-5.19
-10.27
-15.80
-21.34
-26.25
-29.80
-31.41
-30.79
-28.09
-23.80
-18.65
-13.40
-8.68
-4.94
-2.43
-1.32
-1.66
-3.38
-6.20
-9.60
-12.87
-15.25
-16.22
-15.69
-14.03
-11.95
-10.22
-9.39
-9.68
-10.98
-12.94
-15.17
-17.29
-19.02
-20.21
-20.84
-21.06
-21.14
-21.37
-21.88
-22.53
-22.84
-22.20
-20.13
-16.47
-11.50
-5.88
-0.38
4.33
7.87
10.15
11.31
11.63
11.37
10.81
10.19
9.78
9.81
10.43
11.70
13.52
15.76
18.26
20.97
23.96
27.32
31.10
35.08
38.73
41.25
41.67
39.20
33.48
24.76
13.92
2.32
-8.58
-17.54
-23.74
-26.80
-26.76
-23.93
-18.88
-12.35
-5.25
1.45
6.93
10.73
12.80
13.41
12.97
11.79
10.01
7.61
4.56
0.94
-3.01
-6.96
-10.56
-13.58
-15.95
-17.71
-19.02
-20.02
-20.79
-21.31
-21.50
-21.24
-20.51
-19.38
-18.10
-16.98
-16.32
-16.31
-16.98
-18.13
-19.32
-19.90
-19.14
-16.46
-11.64
-4.99
2.60
9.95
15.95
19.95
21.89
22.24
21.66
20.68
19.59
18.38
16.98
15.35
13.48
11.39
9.06
6.45
3.59
0.66
-2.03
-4.12
-5.43
-6.06
-6.34
-6.76
-7.68
-9.24
-11.32
-13.69
-16.15
-18.64
-21.21
-23.93
-26.69
-29.21
-31.04
-31.64
-30.56
-27.45
-22.17
-14.80
-5.67
4.58
15.07
24.86
33.19
39.67
44.36
47.63
49.89
51.36
51.99
51.51
49.68
46.38
41.73
36.03
29.64
23.03
16.72
11.29
7.27
4.95
4.12
4.09
3.83
2.36
-0.88
-5.83
-11.86
-18.11
-23.79
-28.45
-31.90
-34.19
-35.36
-35.43
-34.41
-32.38
-29.50
-25.98
-22.02
-17.77
-13.28
-8.61
-3.91
0.57
4.47
7.44
9.23
9.88
9.66
9.08
8.70
8.91
9.79
11.09
12.28
12.86
12.63
11.81
11.04
11.14
12.83
16.42
21.63
27.53
32.73
35.71
35.32
31.23
24.11
15.42
6.89
-0.14
-5.11
-8.31
-10.43
-12.10
-13.49
-14.31
-14.28
-13.37
-12.00
-10.81
-10.26
-10.27
-10.21
-9.17
-6.44
-2.07
3.21
8.20
11.81
13.51
13.60
13.06
13.22
15.15
19.11
24.42
29.57
32.62
31.78
26.10
15.89
2.85
-10.45
-21.56
-28.74
-31.29
-29.51
-24.36
-17.03
-8.54
0.31
8.89
16.23
21.35
23.49
22.23
17.42
9.01
-2.69
-16.37
-29.46
-39.58
-45.33
-46.57
-43.98
-38.55
-31.20
-22.71
-14.83
-7.79
-2.42
0.34
0.10
-2.65
-6.68
-10.55
-13.24
-14.65
-14.55
-14.20
-14.97
-17.72
-22.51
-28.55
-34.54
-38.81
-39.69
-35.78
-26.93
-14.17
0.42
14.20
24.84
31.15
33.46
33.26
32.50
32.29
32.83
33.50
33.46
32.14
29.50
25.95
21.97
17.94
13.87
9.67
5.37
1.13
-2.78
-6.20
-9.11
-11.69
-14.15
-16.61
-18.89
-20.56
-21.11
-20.18
-17.84
-14.60
-11.28
-8.77
-7.77
-8.55
-10.88
-14.06
-17.02
-18.53
-17.55
-13.50
-6.53
2.47
12.13
20.98
27.94
32.57
35.01
35.76
35.31
34.02
32.06
29.59
26.84
24.22
22.11
20.83
20.38
20.50
20.77
20.74
20.18
19.08
17.60
15.93
14.14
12.15
9.82
7.13
4.26
1.62
-0.31
-1.21
-1.14
-0.56
-0.25
-0.90
-2.90
-6.09
-9.88
-13.41
-16.01
-17.36
-17.62
-17.30
-17.00
-17.26
-18.39
-20.41
-22.93
-25.15
-25.94
-24.17
-19.18
-11.15
-1.23
8.77
17.00
22.16
23.88
22.69
19.56
15.50
11.17
6.83
2.49
-1.92
-6.42
-10.93
-15.31
-19.36
-22.84
-25.45
-26.91
-26.98
-25.62
-22.93
-19.21
-14.87
-10.34
-6.06
-2.47
0.00
0.97
0.15
-2.50
-6.76
-12.12
-17.89
-23.33
-27.85
-31.15
-33.31
-34.81
-36.37
-38.78
-42.55
-47.62
-53.13
-57.40
-58.37
-54.27
-44.33
-29.30
-11.24
7.07
23.16
35.64
44.39
50.27
54.37
57.41
59.51
60.36
59.66
57.44
54.09
50.17
46.13
42.15
38.16
34.02
29.72
25.46
21.66
18.77
17.03
16.38
16.34
16.23
15.33
13.19
9.80
5.59
1.26
-2.52
-5.40
-7.49
-9.39
-11.93
-15.78
-21.17
-27.71
-34.53
-40.62
-45.25
-48.27
-50.14
-51.76
-54.13
-57.99
-63.73
-71.14
-79.25
-86.28
-89.72
-87.04
-76.56
-58.34
-34.50
-8.70
15.07
33.83
46.37
53.31
56.24
56.82
56.09
54.40
51.84
48.59
45.18
42.22
40.12
38.75
37.53
35.69
32.75
28.83
24.66
21.24
19.44
19.52
21.06
23.08
24.42
24.21
22.07
18.25
13.44
8.51
4.15
0.65
-2.16
-4.83
-7.98
-11.98
-16.79
-21.93
-26.74
-30.63
-33.35
-35.11
-36.47
-38.16
-40.88
-45.15
-51.15
-58.60
-66.48
-72.98
-75.76
-72.64
-62.43
-45.64
-24.51
-2.38
17.44
32.74
42.89
48.60
51.23
51.97
51.50
50.00
47.51
44.27
40.80
37.70
35.39
33.88
32.82
31.70
30.19
28.37
26.70
25.76
25.90
26.97
28.30
28.98
28.19
25.63
21.59
16.79
12.04
7.82
4.14
0.60
-3.37
-8.09
-13.39
-18.67
-23.20
-26.43
-28.37
-29.54
-30.79
-33.00
-36.80
-42.40
-49.43
-56.85
-62.92
-65.48
-62.53
-53.05
-37.58
-18.24
1.90
19.86
33.69
42.89
48.09
50.44
50.83
49.71
47.15
43.26
38.42
33.29
28.58
24.75
21.87
19.67
17.72
15.77
13.85
12.30
11.49
11.60
12.40
13.30
13.51
12.41
9.82
6.07
1.85
-2.10
-5.35
-7.95
-10.37
-13.24
-16.99
-21.58
-26.48
-30.89
-34.08
-35.78
-36.30
-36.43
-37.17
-39.41
-43.68
-49.99
-57.69
-65.32
-70.78
-71.72
-66.31
-54.03
-36.09
-15.20
5.32
22.68
35.46
43.75
48.60
51.27
52.53
52.57
51.30
48.69
45.02
40.77
36.35
31.97
27.60
23.19
18.87
15.07
12.41
11.49
12.57
15.43
19.29
23.05
25.57
26.01
24.12
20.22
15.05
9.47
4.14
-0.69
-5.17
-9.62
-14.38
-19.53
-24.85
-29.94
-34.32
-37.67
-39.94
-41.44
-42.79
-44.83
-48.40
-54.00
-61.42
-69.43
-75.88
-78.12
-73.98
-62.61
-45.04
-23.91
-2.68
15.64
29.32
38.14
43.02
45.19
45.62
44.81
42.98
40.42
37.57
34.99
33.06
31.80
30.89
29.84
28.29
26.22
23.93
21.87
20.36
19.34
18.39
16.90
14.38
10.75
6.40
2.00
-1.87
-4.96
-7.42
-9.66
-12.09
-14.85
-17.86
-20.90
-23.79
-26.58
-29.48
-32.85
-37.02
-42.23
-48.49
-55.36
-61.86
-66.48
-67.49
-63.55
-54.28
-40.55
-24.36
-8.17
5.90
16.64
23.93
28.44
31.09
32.63
33.43
33.55
33.01
31.87
30.29
28.45
26.46
24.32
21.96
19.36
16.64
14.13
12.37
11.83
12.77
14.94
17.63
19.87
20.86
20.33
18.71
16.86
15.68
15.62
16.55
17.93
19.26
20.37
21.43
22.66
24.01
25.06
25.24
24.26
22.33
20.08
18.15
16.72
15.45
13.66
10.90
7.28
3.49
0.37
-1.57
-2.51
-3.20
-4.58
-7.30
-11.45
-16.53
-21.66
-25.82
-28.06
-27.55
-23.76
-16.63
-6.70
4.85
16.40
26.39
33.70
37.92
39.40
38.92
37.34
35.39
33.54
32.07
31.14
30.74
30.67
30.50
29.75
28.05
25.37
22.08
18.79
16.11
14.28
13.09
11.94
10.08
6.98
2.53
-2.89
-8.67
-14.19
-19.08
-23.33
-27.19
-31.04
-35.25
-40.02
-45.34
-50.84
-55.74
-58.83
-58.73
-54.35
-45.36
-32.53
-17.55
-2.57
10.48
20.43
27.03
30.65
31.92
31.30
29.09
25.53
21.04
16.27
11.91
8.43
5.91
4.01
2.28
0.42
-1.54
-3.29
-4.46
-4.92
-4.87
-4.83
-5.37
-6.80
-9.09
-11.87
-14.65
-17.10
-19.19
-21.21
-23.58
-26.67
-30.58
-35.07
-39.66
-43.82
-47.19
-49.71
-51.72
-53.81
-56.68
-60.86
-66.49
-73.14
-79.67
-84.30
-84.97
-79.84
-67.98
-49.90
-27.67
-4.36
16.82
33.53
44.89
51.48
54.67
55.86
55.86
54.77
52.37
48.57
43.77
38.80
34.52
31.42
29.45
28.12
26.81
25.19
23.32
21.61
20.53
20.20
20.34
20.28
19.30
16.93
13.20
8.61
3.94
-0.10
-3.13
-5.21
-6.83
-8.68
-11.38
-15.30
-20.41
-26.21
-31.95
-36.85
-40.41
-42.61
-43.96
-45.32
-47.65
-51.73
-57.88
-65.83
-74.49
-81.99
-85.86
-83.71
-74.03
-56.94
-34.37
-9.62
13.77
33.12
47.31
56.71
62.52
65.98
67.79
68.14
67.03
64.62
61.38
57.92
54.67
51.71
48.82
45.62
41.92
37.87
33.91
30.61
28.43
27.44
27.32
27.40
26.91
25.28
22.30
18.19
13.49
8.79
4.55
0.89
-2.40
-5.73
-9.57
-14.21
-19.64
-25.54
-31.34
-36.47
-40.56
-43.60
-45.89
-48.00
-50.54
-54.03
-58.85
-65.15
-72.56
-79.98
-85.46
-86.58
-81.21
-68.43
-49.13
-25.91
-2.23
18.77
35.23
46.79
54.23
58.64
60.79
60.95
59.12
55.47
50.57
45.39
40.90
37.71
35.79
34.62
33.51
32.01
30.14
28.34
27.11
26.65
26.62
26.24
24.71
21.58
16.99
11.53
5.93
0.62
-4.38
-9.34
-14.55
-20.05
-25.53
-30.47
-34.39
-37.07
-38.62
-39.46
-40.21
-41.54
-44.12
-48.45
-54.71
-62.48
-70.57
-77.06
-79.63
-76.26
-65.95
-49.20
-28.01
-5.31
15.90
33.40
46.25
54.67
59.62
62.20
63.24
63.16
62.10
60.11
57.31
53.91
50.19
46.42
42.88
39.79
37.31
35.51
34.34
33.64
33.18
32.71
31.99
30.77
28.87
26.15
22.57
18.18
13.17
7.85
2.53
-2.50
-7.04
-11.08
-14.74
-18.29
-21.98
-25.99
-30.31
-34.70
-38.79
-42.26
-44.96
-47.05
-49.00
-51.45
-55.12
-60.52
-67.77
-76.32
-84.82
-91.18
-93.07
-88.61
-77.16
-59.64
-38.41
-16.54
3.14
18.83
30.00
37.19
41.45
43.78
44.84
44.99
44.44
43.43
42.29
41.34
40.76
40.48
40.25
39.82
39.08
38.17
37.42
37.15
37.44
38.07
38.51
38.27
37.02
34.80
31.90
28.67
25.38
22.09
18.73
15.17
11.43
7.63
4.01
0.77
-2.05
-4.63
-7.26
-10.20
-13.52
-17.03
-20.36
-23.15
-25.28
-26.99
-28.78
-31.28
-35.00
-40.21
-46.76
-54.09
-61.09
-66.18
-67.61
-63.90
-54.48
-40.04
-22.49
-4.41
11.82
24.69
33.87
39.96
43.91
46.49
47.97
48.28
47.27
45.04
41.98
38.74
35.88
33.71
32.19
31.04
29.99
28.93
28.05
27.66
28.00
29.02
30.23
30.93
30.41
28.31
24.77
20.35
15.81
11.78
8.57
6.04
3.74
1.06
-2.46
-7.01
-12.41
-18.18
-23.76
-28.70
-32.81
-36.26
-39.43
-42.85
-47.01
-52.22
-58.44
-65.09
-70.89
-74.05
-72.67
-65.45
-52.32
-34.66
-14.98
3.86
19.57
31.05
38.44
42.68
44.89
45.87
45.94
45.05
43.16
40.40
37.11
33.75
30.64
27.87
25.34
22.86
20.37
18.05
16.19
15.09
14.81
15.11
15.48
15.31
14.13
11.79
8.48
4.63
0.79
-2.56
-5.17
-7.03
-8.41
-9.73
-11.47
-13.99
-17.44
-21.71
-26.38
-30.91
-34.76
-37.62
-39.52
-40.91
-42.53
-45.21
-49.61
-55.95
-63.77
-71.83
-78.20
-80.73
-77.62
-68.07
-52.73
-33.57
-13.34
5.26
20.41
31.44
38.80
43.49
46.48
48.36
49.31
49.27
48.26
46.48
44.27
42.02
39.95
38.14
36.53
35.07
33.74
32.56
31.56
30.64
29.65
28.40
26.76
24.77
22.61
20.51
18.58
16.85
15.13
13.20
10.90
8.24
5.38
2.58
0.03
-2.28
-4.58
-7.22
-10.50
-14.54
-19.08
-23.68
-27.85
-31.30
-34.09
-36.62
-39.47
-43.20
-48.20
-54.47
-61.53
-68.31
-73.24
-74.44
-70.35
-60.26
-44.82
-26.01
-6.57
10.87
24.56
34.06
40.03
43.61
45.82
47.17
47.69
47.22
45.71
43.40
40.71
38.02
35.49
33.05
30.49
27.71
24.86
22.30
20.44
19.54
19.49
19.88
20.15
19.76
18.44
16.18
13.20
9.86
6.51
3.35
0.44
-2.35
-5.24
-8.40
-11.90
-15.58
-19.13
-22.22
-24.61
-26.32
-27.60
-28.86
-30.59
-33.18
-36.90
-41.81
-47.67
-53.88
-59.40
-62.79
-62.54
-57.52
-47.43
-33.14
-16.47
0.27
15.07
26.74
35.09
40.61
44.01
45.81
46.19
45.19
42.96
39.86
36.46
33.27
30.62
28.52
26.82
25.29
23.81
22.39
21.16
20.24
19.70
19.40
19.06
18.27
16.63
13.89
10.13
5.69
1.11
-3.09
-6.62
-9.55
-12.22
-15.14
-18.64
-22.77
-27.21
-31.44
-34.98
-37.62
-39.51
-41.10
-43.00
-45.80
-49.90
-55.44
-62.18
-69.26
-75.26
-78.29
-76.47
-68.62
-54.77
-36.43
-16.13
3.31
19.69
31.95
40.26
45.53
48.85
51.02
52.42
53.10
53.02
52.21
50.82
49.08
47.15
45.08
42.79
40.23
37.40
34.51
31.88
29.87
28.68
28.22
28.14
27.88
26.93
24.96
21.94
18.05
13.63
9.03
4.54
0.38
-3.33
-6.61
-9.63
-12.63
-15.87
-19.48
-23.37
-27.31
-30.95
-33.97
-36.26
-38.00
-39.61
-41.76
-45.14
-50.33
-57.42
-65.85
-74.22
-80.44
-82.23
-77.84
-66.74
-49.95
-29.78
-9.17
9.28
23.99
34.61
41.74
46.32
49.15
50.62
50.82
49.78
47.74
45.14
42.50
40.22
38.46
37.13
35.99
34.80
33.45
31.96
30.47
29.15
28.02
26.93
25.55
23.48
20.45
16.47
11.89
7.25
3.10
-0.22
-2.78
-4.94
-7.21
-9.99
-13.35
-17.04
-20.54
-23.34
-25.16
-26.10
-26.69
-27.69
-29.90
-33.92
-39.96
-47.71
-56.26
-64.02
-69.02
-69.27
-63.39
-51.23
-34.07
-14.37
4.98
21.54
33.96
42.10
46.68
48.68
48.89
47.75
45.53
42.53
39.25
36.21
33.78
31.98
30.48
28.82
26.73
24.28
21.93
20.27
19.71
20.18
21.17
21.83
21.36
19.32
15.80
11.34
6.72
2.63
-0.61
-3.12
-5.39
-8.06
-11.60
-16.11
-21.29
-26.50
-31.08
-34.60
-37.06
-38.87
-40.72
-43.36
-47.36
-52.90
-59.62
-66.42
-71.54
-72.87
-68.60
-57.99
-41.83
-22.38
-2.66
14.58
27.75
36.70
42.37
46.11
48.91
51.11
52.50
52.71
51.58
49.34
46.46
43.48
40.81
38.55
36.66
35.00
33.49
32.18
31.14
30.38
29.77
28.98
27.66
25.47
22.28
18.15
13.36
8.29
3.34
-1.16
-5.02
-8.26
-11.09
-13.87
-16.93
-20.49
-24.51
-28.72
-32.70
-36.05
-38.60
-40.45
-41.99
-43.75
-46.29
-50.03
-55.12
-61.21
-67.32
-71.80
-72.62
-67.95
-56.92
-40.12
-19.59
1.77
21.14
36.67
47.82
55.20
59.84
62.67
64.12
64.25
63.03
60.63
57.43
53.93
50.44
47.04
43.54
39.70
35.47
31.02
26.76
23.06
20.15
17.90
15.97
13.91
11.36
8.16
4.39
0.29
-3.80
-7.56
-10.78
-13.39
-15.52
-17.46
-19.56
-22.09
-25.14
-28.58
-32.09
-35.36
-38.16
-40.45
-42.36
-44.11
-45.95
-48.07
-50.63
-53.67
-57.07
-60.43
-63.04
-63.89
-61.97
-56.54
-47.56
-35.75
-22.44
-9.16
2.82
12.83
20.80
26.97
31.60
34.79
36.44
36.55
35.29
33.11
30.58
28.13
25.92
23.83
21.61
19.15
16.63
14.44
13.07
12.75
13.32
14.19
14.61
13.90
11.77
8.40
4.29
0.11
-3.68
-6.91
-9.76
-12.59
-15.78
-19.53
-23.73
-28.05
-32.05
-35.38
-38.00
-40.14
-42.31
-45.12
-49.04
-54.26
-60.49
-66.78
-71.52
-72.78
-68.80
-58.73
-43.07
-23.71
-3.37
15.26
30.36
41.37
48.83
53.77
57.10
59.26
60.18
59.66
57.67
54.51
50.73
46.91
43.39
40.27
37.39
34.59
31.87
29.41
27.51
26.34
25.76
25.32
24.34
22.22
18.66
13.78
8.14
2.52
-2.41
-6.27
-9.11
-11.44
-13.94
-17.21
-21.48
-26.50
-31.62
-36.07
-39.30
-41.23
-42.29
-43.27
-45.06
-48.38
-53.58
-60.45
-68.07
-74.84
-78.62
-77.30
-69.51
-55.30
-36.26
-15.15
5.03
22.03
34.87
43.85
49.96
54.23
57.27
59.19
59.94
59.50
58.09
56.08
53.80
51.45
48.98
46.25
43.15
39.75
36.27
33.09
30.54
28.77
27.62
26.67
25.37
23.22
20.01
15.79
10.90
5.82
1.00
-3.19
-6.65
-9.48
-11.99
-14.58
-17.61
-21.28
-25.53
-30.07
-34.48
-38.32
-41.34
-43.60
-45.42
-47.37
-50.09
-54.15
-59.76
-66.55
-73.44
-78.66
-80.17
-76.23
-66.11
-50.45
-31.20
-11.02
7.55
22.79
34.23
42.35
48.11
52.36
55.48
57.42
58.00
57.23
55.42
53.14
50.88
48.88
47.02
44.92
42.22
38.79
34.89
31.02
27.77
25.52
24.22
23.44
22.46
20.60
17.44
13.00
7.73
2.25
-2.88
-7.41
-11.47
-15.40
-19.58
-24.12
-28.82
-33.23
-36.84
-39.39
-40.94
-41.92
-42.98
-44.71
-47.54
-51.61
-56.76
-62.53
-67.99
-71.71
-71.85
-66.74
-55.45
-38.42
-17.57
4.26
24.20
40.25
51.80
59.34
63.93
66.40
67.13
66.16
63.59
59.85
55.69
51.92
49.07
47.16
45.72
44.13
42.00
39.41
36.84
34.85
33.76
33.36
33.03
31.86
29.15
24.84
19.46
13.93
9.13
5.59
3.35
2.02
0.71
-1.36
-4.51
-8.49
-12.69
-16.57
-19.76
-22.17
-24.02
-26.34
-30.17
-36.02
-43.57
-51.78
-59.09
-63.50
-62.94
-55.95
-43.34
-27.41
-11.12
2.86
12.56
16.84
15.56
9.39
-0.61
-14.59
-32.55
-53.66
-76.01
-97.58
-117.07
-133.89
-147.75
-150.34
-136.43
-107.27
-70.53
-34.48
-3.91
19.89
37.46
49.90
58.21
61.76
60.63
55.30
47.65
40.03
34.11
30.49
28.94
28.84
28.58
26.96
23.74
19.47
15.19
11.53
8.69
6.75
5.93
5.91
6.34
6.94
7.73
8.59
9.14
9.02
8.26
7.35
6.60
6.22
6.23
6.94
8.54
10.90
13.70
16.69
19.72
22.63
25.29
27.53
29.75
32.23
34.86
37.24
39.09
40.41
41.50
42.75
44.35
46.90
50.61
55.12
59.66
63.54
66.28
67.66
67.60
62.11
49.40
30.67
9.70
-9.61
-24.98
-36.24
-44.49
-51.32
-58.18
-65.03
-70.98
-74.89
-76.67
-76.22
-74.11
-71.43
-69.46
-69.34
-71.08
-74.06
-77.26
-79.41
-78.94
-74.31
-64.42
-48.27
-26.98
-2.96
20.51
40.27
54.16
61.65
63.45
60.97
55.62
48.35
40.08
31.68
24.02
17.78
13.33
10.52
8.75
7.23
5.12
2.04
-1.89
-6.21
-10.37
-13.86
-16.51
-18.49
-20.30
-22.67
-26.16
-30.95
-36.69
-42.59
-47.74
-51.48
-53.69
-54.81
-55.76
-57.42
-60.38
-64.67
-69.76
-74.70
-78.32
-79.49
-77.32
-71.41
-61.86
-49.25
-34.59
-19.03
-3.68
10.53
22.98
33.39
41.82
48.59
54.17
59.06
63.63
68.06
72.28
76.10
79.23
81.48
82.81
83.42
83.64
83.88
84.45
85.41
86.63
87.79
88.62
89.00
89.03
88.86
88.59
88.01
86.64
83.79
78.78
71.04
60.34
46.92
31.62
15.92
1.67
-9.30
-15.88
-18.02
-16.86
-14.19
-11.78
-10.61
-10.62
-10.86
-10.18
-7.80
-3.74
1.20
5.77
8.73
9.22
6.91
2.04
-4.70
-12.38
-20.02
-26.77
-31.96
-35.27
-36.67
-36.50
-35.43
-34.36
-34.20
-35.69
-39.10
-44.16
-50.05
-55.72
-60.22
-63.04
-64.31
-64.60
-64.66
-65.00
-65.63
-66.02
-65.32
-62.73
-57.76
-50.49
-41.48
-31.67
-22.16
-13.99
-8.04
-4.82
-4.41
-6.39
-10.02
-14.36
-18.56
-22.03
-24.49
-25.82
-25.91
-24.60
-21.68
-17.09
-11.05
-4.11
3.01
9.64
15.47
20.56
25.21
29.67
33.87
37.37
39.47
39.57
37.40
33.17
27.57
21.59
16.41
13.17
12.79
15.65
21.50
29.43
38.13
46.32
53.18
58.49
62.56
65.89
68.81
71.36
73.33
74.39
74.21
72.53
69.13
63.88
56.87
48.53
39.65
31.18
23.99
18.54
14.74
12.07
9.78
7.27
4.26
0.84
-2.59
-5.62
-7.99
-9.69
-11.01
-12.46
-14.60
-17.89
-22.51
-28.08
-33.71
-38.05
-39.73
-37.79
-32.07
-23.31
-12.90
-2.42
6.77
13.90
18.80
21.75
23.24
23.79
23.84
23.66
23.34
22.84
21.96
20.48
18.22
15.18
11.59
7.85
4.46
1.83
0.14
-0.75
-1.26
-1.88
-3.06
-4.98
-7.55
-10.49
-13.43
-16.09
-18.36
-20.37
-22.44
-25.04
-28.62
-33.36
-38.93
-44.37
-48.27
-49.10
-45.81
-38.26
-27.33
-14.68
-2.23
8.49
16.64
22.12
25.33
26.84
27.11
26.46
25.15
23.43
21.59
19.83
18.21
16.62
14.89
12.90
10.70
8.54
6.76
5.62
5.15
5.09
4.98
4.29
2.57
-0.30
-4.15
-8.55
-12.97
-17.02
-20.60
-23.96
-27.56
-31.93
-37.33
-43.53
-49.71
-54.56
-56.55
-54.46
-47.73
-36.84
-23.11
-8.44
5.27
16.61
24.85
29.92
32.19
32.18
30.45
27.53
23.94
20.14
16.53
13.32
10.52
7.97
5.50
3.07
0.80
-1.03
-2.19
-2.63
-2.62
-2.68
-3.40
-5.17
-8.04
-11.70
-15.61
-19.24
-22.37
-25.12
-27.96
-31.52
-36.29
-42.46
-49.61
-56.73
-62.26
-64.44
-61.78
-53.60
-40.37
-23.70
-5.88
10.74
24.48
34.63
41.38
45.40
47.37
47.65
46.35
43.51
39.37
34.48
29.53
25.08
21.35
18.13
15.00
11.60
7.90
4.29
1.36
-0.38
-0.94
-0.85
-1.08
-2.59
-5.88
-10.78
-16.53
-22.09
-26.61
-29.80
-31.92
-33.71
-35.99
-39.46
-44.48
-50.97
-58.31
-65.26
-70.08
-70.80
-65.79
-54.48
-37.67
-17.56
2.97
21.20
35.41
45.15
51.00
54.01
55.16
55.04
53.96
52.18
50.04
47.94
46.19
44.81
43.54
41.98
39.80
36.94
33.66
30.47
27.84
26.01
24.89
24.04
22.94
21.19
18.65
15.49
11.96
8.24
4.32
0.05
-4.67
-9.74
-14.76
-19.29
-22.97
-25.80
-28.14
-30.61
-33.86
-38.37
-44.24
-51.05
-57.74
-62.75
-64.27
-60.85
-51.87
-37.99
-21.00
-3.30
12.75
25.58
34.60
40.10
42.78
43.41
42.55
40.60
37.91
34.79
31.56
28.41
25.35
22.33
19.29
16.26
13.41
10.88
8.74
6.92
5.22
3.42
1.43
-0.73
-2.94
-5.09
-7.19
-9.45
-12.13
-15.47
-19.56
-24.25
-29.17
-33.92
-38.12
-41.62
-44.54
-47.19
-50.05
-53.60
-58.20
-63.78
-69.63
-74.24
-75.55
-71.50
-60.89
-43.99
-22.79
-0.41
19.90
35.80
46.48
52.47
55.03
55.34
54.07
51.42
47.45
42.48
37.16
32.24
28.28
25.40
23.32
21.56
19.68
17.48
15.08
12.76
10.80
9.38
8.42
7.57
6.32
4.15
0.74
-3.92
-9.47
-15.35
-20.97
-25.95
-30.19
-33.86
-37.31
-40.94
-45.16
-50.37
-56.84
-64.43
-72.30
-78.78
-81.58
-78.50
-68.30
-51.35
-29.71
-6.52
15.02
32.58
45.24
53.33
57.85
59.86
60.09
58.93
56.66
53.62
50.31
47.21
44.57
42.34
40.21
37.83
35.06
32.12
29.48
27.64
26.80
26.73
26.79
26.17
24.22
20.70
15.90
10.45
5.19
0.82
-2.34
-4.47
-6.20
-8.33
-11.49
-15.89
-21.17
-26.62
-31.51
-35.39
-38.29
-40.67
-43.22
-46.66
-51.53
-58.03
-65.78
-73.63
-79.59
-81.25
-76.50
-64.42
-45.85
-23.28
-0.06
20.63
36.81
48.00
54.92
58.74
60.49
60.65
59.42
56.96
53.69
50.23
47.13
44.62
42.48
40.22
37.43
34.03
30.40
27.13
24.78
23.56
23.17
22.97
22.20
20.27
16.94
12.40
7.14
1.83
-2.91
-6.72
-9.60
-11.92
-14.32
-17.43
-21.58
-26.65
-32.09
-37.18
-41.33
-44.36
-46.59
-48.59
-51.03
-54.43
-59.06
-64.90
-71.49
-77.72
-81.84
-81.73
-75.55
-62.56
-43.67
-21.35
1.13
20.76
35.68
45.54
51.12
53.64
54.13
53.19
51.06
47.94
44.20
40.40
37.08
34.57
32.89
31.80
30.98
30.23
29.47
28.77
28.16
27.54
26.65
25.18
22.91
19.84
16.18
12.20
8.09
3.80
-0.87
-6.08
-11.81
-17.74
-23.42
-28.39
-32.49
-35.89
-39.07
-42.66
-47.24
-53.20
-60.53
-68.63
-76.12
-80.96
-80.87
-74.13
-60.37
-40.89
-18.43
3.71
22.75
37.14
46.77
52.43
55.17
55.77
54.59
51.85
47.85
43.16
38.43
34.21
30.74
27.96
25.66
23.65
21.89
20.43
19.37
18.70
18.24
17.71
16.82
15.40
13.46
11.10
8.47
5.60
2.38
-1.43
-6.02
-11.39
-17.31
-23.33
-28.98
-33.96
-38.25
-42.14
-46.13
-50.80
-56.54
-63.30
-70.39
-76.41
-79.45
-77.64
-69.83
-56.13
-38.04
-18.01
1.28
17.77
30.47
39.42
45.31
48.97
51.00
51.72
51.29
49.93
47.99
45.89
43.97
42.35
40.92
39.40
37.58
35.50
33.47
31.91
31.13
31.09
31.27
30.91
29.26
25.96
21.23
15.77
10.47
6.00
2.56
-0.23
-3.06
-6.59
-11.12
-16.44
-21.93
-26.87
-30.80
-33.71
-36.07
-38.59
-42.01
-46.83
-53.09
-60.24
-67.12
-71.99
-72.94
-68.39
-57.68
-41.54
-21.96
-1.68
16.63
31.13
41.18
47.14
49.98
50.70
50.03
48.38
46.03
43.22
40.25
37.38
34.78
32.48
30.42
28.54
26.87
25.46
24.35
23.50
22.80
22.07
21.13
19.82
18.05
15.77
12.97
9.65
5.83
1.63
-2.82
-7.27
-11.48
-15.21
-18.31
-20.78
-22.83
-24.86
-27.39
-30.90
-35.64
-41.40
-47.34
-52.09
-53.99
-51.55
-44.05
-31.84
-16.37
0.16
15.51
27.96
36.70
41.84
44.07
44.23
42.97
40.70
37.65
34.03
30.17
26.54
23.55
21.52
20.44
20.04
19.90
19.55
18.70
17.30
15.50
13.52
11.52
9.46
7.12
4.25
0.70
-3.44
-7.87
-12.16
-15.94
-19.04
-21.57
-23.86
-26.37
-29.51
-33.60
-38.80
-45.09
-52.22
-59.51
-65.75
-69.31
-68.45
-61.89
-49.44
-32.28
-12.71
6.44
22.75
34.85
42.56
46.61
48.10
47.98
46.85
45.01
42.68
40.10
37.57
35.32
33.39
31.65
29.85
27.83
25.60
23.35
21.36
19.79
18.61
17.52
16.08
13.87
10.71
6.69
2.19
-2.36
-6.65
-10.66
-14.65
-18.97
-23.84
-29.14
-34.43
-39.11
-42.70
-45.12
-46.72
-48.22
-50.51
-54.35
-60.20
-67.86
-76.31
-83.64
-87.36
-85.09
-75.47
-58.81
-37.19
-13.87
7.77
25.32
37.81
45.63
49.85
51.61
51.68
50.48
48.37
45.74
43.05
40.64
38.62
36.78
34.84
32.56
30.01
27.49
25.48
24.38
24.29
24.95
25.71
25.77
24.49
21.62
17.41
12.55
7.83
3.83
0.67
-2.01
-4.83
-8.35
-12.77
-17.83
-22.90
-27.27
-30.46
-32.44
-33.62
-34.73
-36.60
-39.89
-44.82
-51.04
-57.48
-62.45
-64.00
-60.39
-50.83
-35.86
-17.37
1.90
19.24
32.75
41.82
46.96
49.30
49.89
49.32
47.73
45.04
41.32
36.93
32.43
28.35
25.00
22.41
20.42
18.78
17.37
16.15
15.20
14.53
14.07
13.61
12.86
11.53
9.41
6.42
2.69
-1.56
-6.02
-10.39
-14.49
-18.22
-21.60
-24.76
-27.92
-31.35
-35.38
-40.30
-46.19
-52.71
-58.92
-63.26
-63.86
-59.20
-48.68
-33.11
-14.59
4.15
20.58
33.11
41.39
46.03
48.04
48.26
47.15
44.84
41.43
37.21
32.74
28.63
25.36
23.07
21.57
20.56
19.77
19.10
18.63
18.42
18.45
18.43
17.99
16.71
14.38
10.98
6.66
1.61
-3.99
-9.96
-16.10
-22.12
-27.69
-32.54
-36.52
-39.77
-42.68
-45.83
-49.84
-55.14
-61.68
-68.70
-74.60
-77.26
-74.60
-65.38
-49.84
-29.79
-8.08
12.27
29.03
41.25
49.16
53.64
55.60
55.71
54.32
51.77
48.50
45.11
42.12
39.79
37.99
36.32
34.36
31.90
29.07
26.32
24.14
22.85
22.38
22.23
21.68
20.07
17.12
13.02
8.37
3.80
-0.31
-4.07
-7.93
-12.41
-17.70
-23.53
-29.26
-34.16
-37.76
-40.09
-41.66
-43.27
-45.76
-49.76
-55.53
-62.69
-70.08
-75.81
-77.62
-73.50
-62.56
-45.47
-24.44
-2.59
17.09
32.60
43.34
49.87
53.31
54.70
54.66
53.51
51.44
48.81
46.05
43.54
41.37
39.34
37.01
34.08
30.55
26.81
23.47
21.08
19.81
19.33
18.92
17.78
15.34
11.55
6.89
2.14
-1.93
-4.92
-6.93
-8.48
-10.22
-12.64
-15.85
-19.57
-23.33
-26.69
-29.47
-31.80
-34.08
-36.81
-40.53
-45.57
-51.95
-59.09
-65.67
-69.71
-69.11
-62.34
-49.25
-31.28
-11.12
8.14
24.08
35.54
42.67
46.40
47.77
47.45
45.70
42.58
38.34
33.50
28.78
24.84
22.05
20.40
19.59
19.19
18.85
18.34
17.61
16.70
15.68
14.56
13.30
11.72
9.61
6.73
2.95
-1.72
-7.02
-12.54
-17.80
-22.43
-26.32
-29.60
-32.62
-35.83
-39.69
-44.51
-50.37
-56.84
-62.89
-66.86
-66.81
-61.18
-49.40
-32.41
-12.46
7.52
24.82
37.79
46.08
50.40
51.90
51.62
50.17
47.77
44.57
40.77
36.77
33.01
29.76
27.15
25.12
23.56
22.40
21.58
21.03
20.52
19.74
18.34
16.12
13.10
9.56
5.84
2.22
-1.31
-4.97
-9.11
-13.97
-19.45
-25.16
-30.51
-35.02
-38.49
-41.12
-43.49
-46.33
-50.36
-56.05
-63.27
-71.11
-77.75
-80.75
-77.75
-67.38
-49.95
-27.63
-3.81
18.01
35.33
47.22
54.19
57.54
58.62
58.32
57.05
54.97
52.24
49.13
45.89
42.66
39.40
35.93
32.18
28.29
24.62
21.63
19.61
18.52
17.89
16.96
14.98
11.52
6.72
1.19
-4.22
-8.76
-12.19
-14.79
-17.26
-20.32
-24.38
-29.31
-34.51
-39.16
-42.66
-44.85
-46.09
-47.14
-48.88
-52.08
-57.11
-63.75
-71.03
-77.22
-80.07
-77.43
-68.04
-52.10
-31.50
-9.26
11.42
28.19
40.11
47.59
51.79
53.87
54.59
54.21
52.73
50.23
47.02
43.54
40.28
37.52
35.35
33.68
32.37
31.32
30.49
29.90
29.47
29.07
28.42
27.22
25.26
22.46
18.91
14.77
10.24
5.46
0.56
-4.32
-9.01
-13.35
-17.27
-20.87
-24.41
-28.26
-32.79
-38.28
-44.71
-51.60
-57.87
-61.96
-62.09
-56.90
-46.01
-30.38
-12.16
6.00
21.69
33.49
41.14
45.23
46.66
46.18
44.19
40.87
36.48
31.53
26.74
22.77
20.02
18.44
17.61
17.01
16.21
15.05
13.65
12.29
11.21
10.47
9.88
9.02
7.38
4.52
0.28
-5.17
-11.28
-17.34
-22.73
-27.16
-30.77
-34.04
-37.58
-41.94
-47.48
-54.27
-62.03
-69.96
-76.64
-80.12
-78.41
-70.22
-55.57
-36.10
-14.58
5.89
22.94
35.46
43.64
48.41
50.83
51.64
51.20
49.71
47.40
44.62
41.77
39.07
36.54
34.01
31.37
28.64
26.09
24.06
22.78
22.22
21.98
21.48
20.20
17.88
14.65
10.87
6.93
2.99
-1.04
-5.43
-10.32
-15.64
-20.97
-25.79
-29.70
-32.63
-34.88
-37.06
-39.89
-43.97
-49.55
-56.29
-63.05
-68.03
-69.09
-64.47
-53.52
-37.13
-17.54
2.29
19.70
33.07
42.12
47.58
50.56
52.03
52.49
52.05
50.69
48.42
45.44
42.03
38.51
35.21
32.38
30.24
28.89
28.30
28.28
28.46
28.40
27.70
26.09
23.48
19.98
15.82
11.24
6.41
1.34
-4.07
-9.87
-16.02
-22.25
-28.14
-33.26
-37.34
-40.39
-42.74
-44.98
-47.78
-51.70
-56.92
-62.93
-68.41
-71.39
-69.80
-62.22
-48.55
-30.24
-9.90
9.54
25.76
37.65
45.31
49.59
51.45
51.55
50.17
47.39
43.43
38.78
34.10
30.06
27.06
25.14
23.99
23.22
22.51
21.80
21.28
21.26
21.90
23.03
24.08
24.23
22.73
19.16
13.64
6.74
-0.72
-7.97
-14.51
-20.19
-25.14
-29.68
-34.22
-39.18
-44.92
-51.62
-58.94
-65.92
-70.91
-71.93
-67.33
-56.47
-40.11
-20.31
0.11
18.52
33.08
43.13
49.00
51.50
51.50
49.63
46.33
41.99
37.13
32.34
28.20
25.06
22.95
21.58
20.49
19.26
17.67
15.77
13.77
11.94
10.41
9.07
7.54
5.29
1.81
-3.12
-9.33
-16.20
-22.92
-28.71
-33.17
-36.37
-38.83
-41.25
-44.33
-48.61
-54.37
-61.49
-69.24
-76.13
-80.00
-78.49
-70.00
-54.39
-33.38
-10.11
11.90
29.93
42.80
50.85
55.31
57.45
58.07
57.42
55.52
52.51
48.81
45.01
41.59
38.71
36.21
33.78
31.23
28.54
25.94
23.61
21.60
19.69
17.53
14.86
11.61
8.00
4.30
0.68
-2.97
-6.96
-11.60
-16.95
-22.74
-28.45
-33.58
-37.84
-41.31
-44.34
-47.45
-51.15
-55.91
-61.95
-69.04
-76.14
-81.40
-82.39
-76.99
-64.26
-45.08
-22.03
1.41
22.04
37.97
48.85
55.52
59.19
60.83
60.88
59.44
56.65
52.83
48.49
44.09
39.83
35.71
31.59
27.42
23.40
19.91
17.31
15.71
14.80
13.96
12.40
9.59
5.39
0.19
-5.34
-10.53
-15.04
-18.99
-22.86
-27.19
-32.23
-37.79
-43.28
-47.96
-51.31
-53.34
-54.56
-55.90
-58.37
-62.72
-69.15
-76.98
-84.62
-89.69
-89.65
-82.58
-67.96
-47.12
-22.93
1.08
21.82
37.48
47.81
53.67
56.36
56.93
56.01
53.92
50.98
47.69
44.67
42.44
41.22
40.79
40.64
40.18
39.01
37.04
34.53
31.96
29.76
28.14
26.94
25.71
23.85
20.88
16.64
11.38
5.63
-0.01
-5.08
-9.48
-13.42
-17.28
-21.57
-26.71
-33.03
-40.59
-48.99
-57.16
-63.39
-65.65
-62.23
-52.45
-37.10
-18.34
0.93
18.02
31.20
40.00
45.01
47.32
47.89
47.32
45.81
43.40
40.31
36.95
33.89
31.63
30.32
29.76
29.42
28.77
27.46
25.44
22.94
20.29
17.74
15.32
12.88
10.16
6.90
2.90
-1.88
-7.34
-13.21
-19.13
-24.70
-29.61
-33.71
-37.16
-40.39
-43.99
-48.66
-54.89
-62.73
-71.44
-79.34
-83.94
-82.66
-73.68
-56.83
-33.93
-8.35
16.04
36.10
50.23
58.63
62.63
63.93
63.86
63.13
61.88
60.05
57.55
54.39
50.64
46.38
41.73
36.90
32.27
28.25
25.21
23.27
22.18
21.43
20.36
18.42
15.36
11.29
6.59
1.79
-2.72
-6.77
-10.52
-14.28
-18.36
-22.91
-27.74
-32.50
-36.81
-40.49
-43.70
-46.90
-50.75
-55.84
-62.44
-70.25
-78.14
-84.16
-85.88
-81.14
-68.89
-49.84
-26.46
-2.25
19.30
35.86
46.68
52.44
54.56
54.45
53.00
50.60
47.36
43.43
39.13
34.90
31.16
28.09
25.64
23.50
21.34
18.94
16.31
13.70
11.45
9.81
8.76
7.98
6.93
5.07
2.01
-2.28
-7.51
-13.19
-18.77
-23.87
-28.33
-32.24
-35.82
-39.42
-43.38
-48.05
-53.73
-60.49
-67.88
-74.68
-78.97
-78.57
-71.84
-58.49
-39.86
-18.70
1.81
19.06
31.82
40.37
45.89
49.77
52.83
55.08
55.95
54.63
50.48
43.24
33.09
20.69
7.16
-6.01
-17.16
-24.87
-28.48
-28.31
-25.66
-22.41
-20.39
-20.81
-23.89
-28.94
-34.66
-39.69
-43.11
-44.78
-45.35
-46.16
-48.81
-54.72
-64.55
-77.98
-93.66
-109.44
-122.75
-130.98
-131.79
-123.65
-106.27
-80.88
-50.28
-18.20
11.67
36.80
56.46
71.60
83.89
94.65
104.31
112.47
118.55
122.47
124.97
127.15
129.92
133.23
136.04
137.13
135.82
132.28
127.40
122.33
117.86
114.16
110.55
105.70
98.90
90.29
80.64
70.96
62.01
54.04
47.04
40.51
33.61
26.43
19.73
14.26
10.54
8.77
8.95
11.22
15.20
19.45
22.80
24.12
22.22
16.41
6.97
-7.84
-26.41
-42.63
-55.72
-67.03
-77.33
-86.96
-95.59
-102.36
-106.34
-106.91
-104.44
-100.38
-95.68
-90.82
-86.33
-82.86
-81.10
-79.05
-75.39
-70.29
-65.41
-61.57
-57.98
-53.10
-45.59
-35.19
-22.94
-11.01
-1.63
3.74
5.67
6.19
7.47
10.71
15.69
20.89
23.97
22.96
17.01
7.17
-3.67
-12.10
-14.77
-9.33
4.86
26.13
50.83
74.16
90.22
95.49
89.32
73.77
52.71
30.41
10.31
-5.57
-16.62
-23.19
-25.94
-25.72
-23.45
-20.12
-16.78
-14.49
-14.00
-15.52
-18.54
-21.97
-24.67
-25.83
-25.24
-23.25
-20.57
-17.91
-15.93
-14.72
-14.17
-14.10
-14.28
-14.29
-13.49
-11.02
-6.23
0.95
9.78
18.77
26.23
30.79
31.91
29.94
25.82
20.63
15.25
10.27
5.93
2.35
-0.44
-2.53
-4.08
-5.35
-6.60
-8.02
-9.71
-11.70
-13.91
-16.22
-18.44
-20.23
-21.26
-21.20
-19.87
-17.25
-13.53
-9.24
-5.20
-2.93
-4.02
-9.72
-20.31
-34.70
-50.45
-64.31
-73.19
-75.04
-69.49
-57.69
-41.85
-24.47
-7.71
6.98
18.80
27.54
33.35
36.62
38.01
38.29
38.23
38.38
38.91
39.59
39.91
39.32
37.49
34.45
30.63
26.67
23.27
20.92
19.80
19.80
20.56
21.64
22.62
23.21
23.29
22.84
21.95
20.67
18.94
16.63
13.53
9.48
4.46
-1.39
-7.74
-14.20
-20.25
-25.33
-28.87
-30.33
-29.38
-26.03
-20.70
-14.13
-7.20
-0.66
5.00
9.54
12.98
15.45
17.13
18.27
19.10
19.88
20.84
22.06
23.50
24.92
25.96
26.29
25.71
24.25
22.24
20.13
18.40
17.37
17.07
17.13
16.86
15.24
11.15
3.64
-7.75
-22.70
-40.12
-58.32
-75.38
-89.44
-99.00
-103.04
-101.13
-93.52
-81.18
-65.76
-49.26
-33.69
-20.55
-10.60
-3.71
0.89
4.22
7.24
10.50
14.06
17.56
20.38
22.01
22.19
21.07
19.11
16.95
15.26
14.49
14.83
16.06
17.58
18.57
18.26
16.25
12.67
8.15
3.52
-0.52
-3.72
-6.28
-8.64
-11.24
-14.21
-17.31
-20.02
-21.69
-21.79
-20.01
-16.29
-10.84
-4.04
3.63
11.65
19.48
26.62
32.58
36.98
39.54
40.21
39.12
36.59
33.08
29.09
25.08
21.38
18.21
15.59
13.44
11.60
9.93
8.34
6.82
5.38
4.03
2.74
1.42
0.02
-1.50
-3.14
-4.97
-7.11
-9.70
-12.76
-16.02
-18.83
-20.28
-19.44
-15.74
-9.23
-0.58
9.14
18.80
27.50
34.74
40.27
43.96
45.69
45.28
42.64
37.91
31.51
24.02
16.08
8.23
0.83
-5.90
-11.86
-16.98
-21.24
-24.65
-27.24
-29.07
-30.12
-30.35
-29.73
-28.27
-26.13
-23.60
-21.16
-19.40
-18.96
-20.35
-23.61
-28.10
-32.52
-35.18
-34.63
-30.28
-22.62
-13.06
-3.34
5.15
11.80
16.69
20.40
23.46
26.20
28.68
30.83
32.55
33.70
34.06
33.27
30.95
26.81
20.87
13.57
5.69
-1.80
-8.11
-12.81
-15.96
-17.98
-19.46
-20.80
-22.15
-23.41
-24.44
-25.20
-25.79
-26.36
-26.89
-27.08
-26.36
-24.13
-20.04
-14.13
-6.89
0.92
8.57
15.46
21.30
25.95
29.36
31.45
32.17
31.57
29.85
27.38
24.59
21.86
19.42
17.26
15.20
12.99
10.39
7.37
4.04
0.66
-2.50
-5.28
-7.71
-9.96
-12.24
