1660934656.00
64.000000
-0.00
-0.00
-0.00
-0.00
-0.00
-0.00
-0.00
-0.00
-0.00
-0.00
0.00
0.01
0.01
-0.00
-0.03
-0.05
-0.05
0.00
0.13
0.36
0.66
1.01
1.37
1.72
2.06
2.40
2.79
3.25
3.81
4.44
5.09
5.73
6.32
6.91
7.53
8.27
9.15
10.25
11.46
12.66
13.74
14.69
15.58
16.60
17.96
19.79
22.27
25.19
28.27
31.23
33.95
36.56
39.41
42.93
47.39
53.10
59.66
66.53
73.19
79.41
85.38
91.69
99.03
107.80
118.34
129.99
141.92
153.34
163.97
174.16
184.74
197.01
209.43
223.85
240.52
259.40
279.49
298.34
312.19
316.75
308.63
286.54
252.18
208.81
160.50
110.74
61.67
14.26
-31.13
-74.25
-114.76
-152.30
-187.51
-221.75
-256.62
-293.12
-330.58
-366.30
-395.89
-414.86
-420.07
-411.23
-391.01
-364.01
-334.91
-306.91
-281.19
-257.35
-234.57
-212.43
-191.31
-171.97
-154.81
-139.56
-125.42
-111.50
-97.39
-83.29
-69.92
-58.07
-48.19
-40.15
-33.31
-26.86
-20.21
-13.23
-6.23
0.21
5.58
9.66
12.58
14.70
16.45
18.13
19.87
21.64
23.29
24.69
25.72
26.35
26.60
26.53
26.24
25.82
25.31
24.75
24.15
23.54
22.95
22.40
21.88
21.34
20.75
20.08
19.35
18.58
17.85
17.16
16.54
15.98
15.50
15.14
14.89
14.74
14.60
14.38
14.01
13.49
12.87
12.27
11.80
11.54
11.46
11.47
11.45
11.30
10.96
10.47
9.93
9.42
9.01
8.71
8.48
8.28
8.10
7.99
7.97
8.02
8.03
7.91
7.56
7.00
6.37
5.84
5.55
5.55
5.75
5.95
5.98
5.72
5.19
4.50
3.81
3.23
2.79
2.46
2.14
1.74
1.26
0.70
0.11
-0.45
-0.99
-1.49
-1.97
-2.43
-2.88
-3.32
-3.79
-4.33
-4.98
-5.70
-6.43
-7.06
-7.55
-7.91
-8.16
-8.38
-8.56
-8.65
-8.58
-8.28
-7.78
-7.18
-6.63
-6.26
-6.08
-6.03
-5.99
-5.82
-5.46
-4.93
-4.29
-3.64
-3.03
-2.47
-1.97
-1.47
-0.99
-0.51
-0.08
0.31
0.67
1.01
1.39
1.81
2.24
2.61
2.84
2.92
2.89
2.83
2.85
2.98
3.17
3.30
3.25
3.00
2.62
2.29
2.17
2.32
2.71
3.17
3.54
3.70
3.68
3.53
3.36
3.22
3.09
2.97
2.84
2.78
2.85
3.09
3.42
3.75
3.95
3.99
3.90
3.79
3.75
3.81
3.92
4.01
4.00
3.91
3.74
3.57
3.43
3.31
3.21
3.11
3.01
2.92
2.84
2.79
2.74
2.67
2.57
2.44
2.27
2.06
1.85
1.64
1.48
1.38
1.35
1.34
1.30
1.20
1.04
0.85
0.69
0.60
0.59
0.63
0.70
0.81
0.98
1.25
1.63
2.08
2.56
2.98
3.26
3.37
3.30
3.09
2.80
2.47
2.16
1.87
1.59
1.29
0.96
0.63
0.33
0.10
-0.05
-0.10
-0.08
-0.02
0.05
0.09
0.11
0.14
0.25
0.47
0.81
1.21
1.63
2.06
2.49
2.95
3.39
3.72
3.84
3.66
3.25
2.73
2.29
2.02
1.93
1.90
1.83
1.65
1.35
1.00
0.65
0.37
0.19
0.13
0.22
0.44
0.74
1.00
1.13
1.05
0.75
0.34
-0.04
-0.27
-0.27
-0.10
0.15
0.34
0.39
0.28
0.08
-0.12
-0.24
-0.24
-0.15
-0.02
0.08
0.13
0.16
0.24
0.42
0.67
0.89
0.99
0.87
0.54
0.13
-0.21
-0.35
-0.26
-0.02
0.26
0.45
0.54
0.56
0.57
0.62
0.71
0.82
0.88
0.86
0.76
0.65
0.59
0.64
0.80
1.01
1.17
1.23
1.18
1.05
0.91
0.78
0.69
0.60
0.49
0.35
0.20
0.06
-0.04
-0.07
-0.02
0.13
0.36
0.62
0.84
0.96
0.99
0.95
0.91
0.89
0.89
0.85
0.71
0.47
0.17
-0.11
-0.27
-0.30
-0.24
-0.15
-0.12
-0.14
-0.18
-0.16
-0.05
0.16
0.39
0.57
0.67
0.68
0.63
0.53
0.39
0.21
0.00
-0.16
-0.20
-0.09
0.15
0.42
0.63
0.70
0.64
0.49
0.31
0.15
0.01
-0.09
-0.14
-0.12
-0.02
0.16
0.35
0.47
0.49
0.40
0.29
0.23
0.27
0.37
0.44
0.40
0.21
-0.02
-0.18
-0.14
0.11
0.51
0.88
1.08
1.03
0.73
0.29
-0.16
-0.52
-0.70
-0.71
-0.60
-0.50
-0.47
-0.53
-0.60
-0.58
-0.38
-0.03
0.33
0.56
0.57
0.41
0.22
0.15
0.26
0.50
0.75
0.88
0.82
0.63
0.39
0.19
0.09
0.06
0.07
0.07
0.05
0.01
-0.02
-0.03
0.02
0.12
0.26
0.44
0.59
0.68
0.67
0.58
0.44
0.33
0.30
0.38
0.54
0.69
0.76
0.65
0.35
-0.09
-0.56
-0.92
-1.03
-0.90
-0.58
-0.19
0.12
0.28
0.29
0.24
0.20
0.21
0.26
0.28
0.25
0.15
0.02
-0.10
-0.19
-0.22
-0.20
-0.15
-0.08
-0.02
-0.00
-0.06
-0.17
-0.30
-0.39
-0.40
-0.33
-0.20
-0.06
0.10
0.28
0.50
0.74
0.92
0.94
0.77
0.44
0.09
-0.15
-0.19
-0.06
0.10
0.16
0.04
-0.23
-0.54
-0.74
-0.76
-0.60
-0.32
-0.00
0.29
0.53
0.69
0.75
0.67
0.48
0.25
0.10
0.14
0.34
0.60
0.75
0.69
0.41
0.05
-0.22
-0.33
-0.27
-0.12
0.01
0.11
0.19
0.27
0.36
0.43
0.43
0.33
0.17
-0.01
-0.16
-0.24
-0.25
-0.22
-0.19
-0.23
-0.35
-0.53
-0.71
-0.81
-0.77
-0.56
-0.26
0.04
0.25
0.33
0.31
0.28
0.28
0.34
0.46
0.58
0.67
0.71
0.67
0.58
0.46
0.36
0.27
0.19
0.11
-0.00
-0.12
-0.21
-0.22
-0.15
-0.02
0.11
0.20
0.23
0.22
0.23
0.26
0.30
0.29
0.23
0.13
0.06
0.09
0.22
0.42
0.59
0.69
0.66
0.52
0.32
0.07
-0.19
-0.40
-0.51
-0.51
-0.41
-0.31
-0.34
-0.56
-0.96
-1.37
-1.62
-1.58
-1.24
-0.74
-0.25
0.10
0.32
0.45
0.60
0.75
0.85
0.79
0.54
0.16
-0.20
-0.39
-0.31
0.00
0.42
0.75
0.87
0.76
0.49
0.23
0.07
0.04
0.08
0.11
0.07
-0.03
-0.11
-0.12
-0.05
0.01
-0.03
-0.19
-0.44
-0.65
-0.71
-0.57
-0.27
0.09
0.40
0.57
0.59
0.47
0.28
0.06
-0.12
-0.25
-0.32
-0.34
-0.33
-0.29
-0.20
-0.06
0.13
0.30
0.39
0.39
0.31
0.22
0.20
0.26
0.36
0.43
0.40
0.25
0.02
-0.20
-0.32
-0.30
-0.15
0.05
0.21
0.23
0.02
-0.44
-1.09
-1.85
-2.54
-3.02
-3.17
-2.96
-2.45
-1.79
-1.19
-0.85
-0.91
-1.44
-2.39
-3.63
-4.96
-6.18
-7.08
-7.50
-7.37
-6.74
-5.79
-4.82
-4.25
-4.45
-5.64
-7.78
-10.55
-13.39
-15.72
-17.19
-17.88
-18.28
-19.21
-21.41
-25.27
-30.69
-37.14
-43.84
-50.07
-55.40
-59.80
-63.61
-67.41
-71.82
-77.31
-84.05
-91.82
-100.15
-108.43
-116.20
-123.30
-129.94
-136.64
-144.19
-153.45
-164.96
-178.45
-192.34
-203.59
-208.36
-203.03
-185.38
-155.37
-115.14
-68.31
-18.97
29.31
73.90
113.05
145.58
170.62
187.64
196.65
198.43
194.66
187.64
179.88
173.43
169.44
167.84
167.71
167.83
167.35
166.20
165.06
164.90
166.48
170.00
174.96
180.48
185.68
190.14
193.97
197.78
202.33
208.24
215.74
224.61
234.39
244.40
253.70
260.95
264.33
261.68
251.14
231.69
203.66
168.60
128.69
85.73
40.59
-6.70
-56.01
-105.99
-153.53
-194.26
-224.04
-240.64
-244.63
-239.09
-228.20
-215.57
-203.21
-191.42
-179.66
-167.56
-155.45
-144.22
-134.63
-126.79
-120.00
-113.15
-105.36
-96.37
-86.74
-77.46
-69.49
-63.30
-58.70
-54.97
-51.26
-46.94
-41.90
-36.51
-31.36
-27.01
-23.70
-21.28
-19.35
-17.45
-15.30
-12.87
-10.40
-8.22
-6.56
-5.42
-4.63
-3.93
-3.11
-2.11
-1.07
-0.19
0.35
0.53
0.43
0.25
0.16
0.22
0.40
0.60
0.71
0.65
0.42
0.06
-0.38
-0.81
-1.15
-1.28
-1.15
-0.78
-0.29
0.15
0.38
0.32
0.02
-0.39
-0.76
-0.98
-0.98
-0.77
-0.35
0.25
0.95
1.65
2.27
2.71
2.96
3.02
2.94
2.75
2.49
2.17
1.80
1.40
0.99
0.58
0.20
-0.12
-0.34
-0.44
-0.41
-0.28
-0.12
-0.02
-0.02
-0.15
-0.35
-0.57
-0.79
-1.04
-1.37
-1.78
-2.22
-2.57
-2.71
-2.59
-2.25
-1.82
-1.41
-1.10
-0.87
-0.63
-0.33
0.04
0.43
0.82
1.17
1.52
1.87
2.22
2.50
2.59
2.42
2.00
1.42
0.86
0.47
0.34
0.46
0.70
0.88
0.83
0.45
-0.22
-1.03
-1.78
-2.27
-2.43
-2.29
-2.02
-1.78
-1.64
-1.58
-1.46
-1.20
-0.78
-0.34
-0.01
0.12
0.06
-0.05
-0.05
0.17
0.65
1.35
2.17
2.98
3.64
3.98
3.89
3.34
2.40
1.29
0.26
-0.47
-0.76
-0.65
-0.30
0.06
0.22
0.09
-0.28
-0.75
-1.13
-1.33
-1.34
-1.24
-1.13
-1.08
-1.07
-1.05
-1.00
-0.93
-0.90
-0.97
-1.14
-1.32
-1.37
-1.19
-0.70
0.03
0.89
1.70
2.32
2.65
2.68
2.44
1.98
1.37
0.69
0.02
-0.50
-0.79
-0.85
-0.74
-0.58
-0.50
-0.56
-0.74
-0.97
-1.17
-1.32
-1.42
-1.49
-1.53
-1.48
-1.28
-0.91
-0.42
0.06
0.44
0.64
0.71
0.73
0.80
0.98
1.28
1.66
2.10
2.53
2.87
3.03
2.90
2.44
1.70
0.82
0.03
-0.49
-0.68
-0.64
-0.56
-0.62
-0.90
-1.35
-1.81
-2.14
-2.25
-2.16
-1.96
-1.75
-1.56
-1.38
-1.17
-0.91
-0.63
-0.38
-0.23
-0.21
-0.26
-0.30
-0.25
-0.06
0.25
0.62
0.98
1.27
1.48
1.60
1.63
1.56
1.37
1.05
0.63
0.17
-0.25
-0.55
-0.73
-0.85
-0.98
-1.19
-1.46
-1.70
-1.77
-1.57
-1.15
-0.62
-0.16
0.11
0.17
0.10
0.01
-0.04
-0.02
0.03
0.07
0.07
0.06
0.05
0.09
0.21
0.43
0.78
1.26
1.83
2.40
2.84
3.01
2.82
2.27
1.51
0.75
0.22
0.06
0.25
0.65
1.04
1.23
1.20
1.03
0.84
0.70
0.57
0.32
-0.16
-0.86
-1.66
-2.33
-2.70
-2.73
-2.50
-2.21
-2.01
-1.98
-2.07
-2.16
-2.15
-1.97
-1.63
-1.17
-0.64
-0.05
0.59
1.26
1.88
2.33
2.48
2.27
1.75
1.06
0.38
-0.17
-0.54
-0.78
-0.91
-0.89
-0.68
-0.24
0.35
0.91
1.24
1.21
0.84
0.31
-0.20
-0.56
-0.75
-0.86
-0.99
-1.13
-1.25
-1.28
-1.19
-1.02
-0.84
-0.67
-0.46
-0.10
0.48
1.21
1.94
2.42
2.49
2.12
1.46
0.76
0.23
-0.05
-0.10
-0.03
0.08
0.20
0.33
0.43
0.41
0.16
-0.40
-1.21
-2.10
-2.80
-3.14
-3.10
-2.82
-2.58
-2.58
-2.94
-3.60
-4.39
-5.16
-5.78
-6.28
-6.72
-7.26
-8.00
-8.99
-10.15
-11.29
-12.19
-12.69
-12.86
-13.05
-13.74
-15.35
-17.99
-21.35
-24.77
-27.56
-29.31
-30.16
-30.82
-32.20
-35.09
-39.73
-45.63
-51.79
-57.06
-60.71
-62.74
-64.01
-65.90
-69.73
-76.11
-84.58
-93.64
-101.32
-105.94
-106.90
-104.97
-102.26
-101.62
-105.80
-116.38
-132.73
-151.51
-166.92
-172.16
-161.82
-134.38
-93.51
-47.46
-6.49
20.75
30.27
23.96
8.54
-6.95
-14.15
-7.48
14.71
50.28
94.21
139.90
180.85
212.09
231.23
238.52
236.30
227.85
216.41
204.73
194.99
188.80
187.06
189.59
194.98
200.85
204.77
205.25
202.46
198.14
194.70
194.28
197.89
205.34
215.47
226.54
236.45
242.73
242.76
234.25
215.87
187.79
151.53
109.28
62.84
13.13
-39.43
-93.86
-147.58
-196.36
-235.44
-261.40
-273.70
-274.92
-269.58
-262.31
-256.19
-252.15
-249.51
-247.11
-244.18
-240.74
-237.30
-234.39
-232.31
-231.15
-230.94
-231.71
-233.44
-236.00
-239.04
-241.85
-243.27
-241.66
-235.07
-221.60
-199.97
-169.86
-131.94
-87.37
-37.42
16.60
72.84
128.30
178.62
219.01
245.77
257.89
257.65
249.87
239.89
231.62
225.96
220.66
211.26
192.89
162.36
119.47
67.63
13.26
-35.70
-71.93
-90.79
-91.42
-76.59
-51.39
-21.57
7.90
33.53
53.30
66.39
72.97
74.13
71.88
68.72
67.03
68.20
72.16
77.37
81.69
83.50
82.57
80.02
77.82
77.62
80.08
84.60
89.63
93.64
95.72
96.07
95.91
97.05
101.18
109.05
119.78
130.50
136.68
133.25
116.43
85.57
44.08
-1.12
-41.88
-71.61
-87.52
-91.04
-86.46
-78.56
-70.47
-62.93
-54.94
-45.23
-33.56
-21.07
-9.75
-1.39
3.18
4.45
3.87
3.28
4.28
7.77
13.74
21.47
29.86
37.81
44.45
49.39
52.58
54.42
55.69
57.41
60.48
65.01
69.54
70.86
64.76
47.81
19.29
-17.74
-57.04
-91.37
-115.17
-126.52
-127.19
-121.23
-112.78
-104.47
-97.13
-90.53
-84.53
-79.57
-76.41
-75.41
-75.96
-76.58
-75.58
-71.92
-65.73
-58.23
-51.11
-45.75
-42.61
-41.15
-40.17
-38.45
-35.35
-31.03
-26.34
-22.32
-19.70
-18.59
-18.48
-18.55
-18.05
-16.62
-14.43
-12.03
-10.07
-9.06
-9.07
-9.70
-10.20
-9.71
-7.68
-4.13
0.25
4.32
6.99
7.64
6.39
4.05
1.70
0.26
0.15
1.23
2.99
4.76
6.02
6.42
5.96
4.86
3.52
2.38
1.76
1.74
2.17
2.79
3.36
3.72
3.89
3.91
3.80
3.55
3.12
2.54
1.94
1.50
1.35
1.44
1.59
1.54
1.06
0.11
-1.17
-2.46
-3.39
-3.69
-3.32
-2.45
-1.38
-0.43
0.24
0.60
0.77
0.90
1.07
1.27
1.43
1.46
1.37
1.19
1.01
0.87
0.73
0.53
0.20
-0.28
-0.83
-1.33
-1.64
-1.69
-1.52
-1.23
-0.97
-0.84
-0.85
-0.96
-1.08
-1.14
-1.15
-1.12
-1.07
-1.00
-0.90
-0.76
-0.63
-0.59
-0.69
-0.94
-1.26
-1.54
-1.68
-1.64
-1.48
-1.27
-1.07
-0.91
-0.75
-0.57
-0.36
-0.15
-0.00
0.05
-0.01
-0.12
-0.23
-0.31
-0.35
-0.35
-0.32
-0.20
0.02
0.33
0.65
0.87
0.87
0.62
0.21
-0.21
-0.51
-0.57
-0.43
-0.14
0.17
0.41
0.48
0.38
0.10
-0.27
-0.65
-0.92
-1.00
-0.86
-0.54
-0.10
0.35
0.69
0.84
0.71
0.34
-0.21
-0.79
-1.22
-1.42
-1.38
-1.23
-1.11
-1.12
-1.21
-1.29
-1.19
-0.84
-0.30
0.27
0.70
0.89
0.87
0.71
0.55
0.43
0.34
0.22
0.06
-0.14
-0.29
-0.30
-0.15
0.11
0.38
0.58
0.66
0.62
0.53
0.43
0.34
0.27
0.20
0.13
0.07
0.01
-0.04
-0.10
-0.16
-0.22
-0.25
-0.26
-0.23
-0.19
-0.17
-0.18
-0.18
-0.15
-0.07
0.04
0.12
0.11
-0.02
-0.22
-0.41
-0.48
-0.38
-0.15
0.13
0.36
0.45
0.41
0.27
0.11
-0.02
-0.10
-0.16
-0.20
-0.22
-0.18
-0.08
0.10
0.32
0.49
0.55
0.50
0.38
0.26
0.22
0.25
0.28
0.22
0.03
-0.26
-0.54
-0.71
-0.73
-0.60
-0.41
-0.23
-0.06
0.10
0.26
0.42
0.51
0.49
0.36
0.16
-0.03
-0.15
-0.18
-0.09
0.09
0.32
0.55
0.66
0.56
0.25
-0.19
-0.58
-0.75
-0.65
-0.35
-0.05
0.08
0.01
-0.19
-0.32
-0.26
-0.01
0.31
0.55
0.60
0.45
0.22
-0.00
-0.15
-0.23
-0.29
-0.36
-0.44
-0.51
-0.55
-0.55
-0.57
-0.61
-0.67
-0.69
-0.59
-0.32
0.12
0.63
1.08
1.33
1.28
0.91
0.35
-0.24
-0.66
-0.80
-0.65
-0.33
0.01
0.26
0.36
0.33
0.21
0.02
-0.22
-0.50
-0.75
-0.88
-0.80
-0.51
-0.09
0.31
0.53
0.51
0.29
-0.02
-0.28
-0.39
-0.32
-0.11
0.17
0.42
0.61
0.72
0.74
0.68
0.55
0.36
0.15
-0.02
-0.10
-0.06
0.08
0.25
0.39
0.43
0.36
0.22
0.09
0.06
0.18
0.46
0.82
1.16
1.34
1.29
1.03
0.66
0.32
0.07
-0.11
-0.30
-0.59
-0.96
-1.31
-1.49
-1.39
-1.05
-0.60
-0.19
0.03
0.04
-0.13
-0.38
-0.65
-0.90
-1.09
-1.21
-1.19
-0.96
-0.50
0.14
0.82
1.38
1.66
1.60
1.26
0.81
0.40
0.12
-0.03
-0.13
-0.25
-0.38
-0.45
-0.38
-0.13
0.21
0.50
0.60
0.46
0.15
-0.18
-0.41
-0.45
-0.34
-0.15
0.01
0.10
0.10
0.06
-0.01
-0.10
-0.19
-0.29
-0.37
-0.41
-0.39
-0.33
-0.24
-0.14
-0.02
0.13
0.30
0.47
0.58
0.58
0.49
0.35
0.24
0.17
0.13
0.06
-0.08
-0.31
-0.55
-0.74
-0.82
-0.77
-0.60
-0.37
-0.12
0.11
0.27
0.35
0.35
0.32
0.31
0.34
0.39
0.40
0.31
0.12
-0.11
-0.28
-0.31
-0.19
0.05
0.31
0.52
0.62
0.59
0.43
0.17
-0.14
-0.45
-0.70
-0.85
-0.88
-0.82
-0.70
-0.54
-0.37
-0.19
-0.00
0.16
0.29
0.34
0.34
0.31
0.30
0.35
0.40
0.39
0.25
-0.04
-0.41
-0.70
-0.78
-0.60
-0.23
0.18
0.46
0.53
0.39
0.13
-0.15
-0.37
-0.47
-0.43
-0.23
0.09
0.44
0.71
0.78
0.62
0.30
-0.03
-0.23
-0.22
-0.03
0.25
0.49
0.65
0.69
0.64
0.53
0.39
0.24
0.11
0.04
0.03
0.09
0.19
0.28
0.35
0.38
0.34
0.20
-0.07
-0.44
-0.84
-1.12
-1.19
-1.00
-0.66
-0.32
-0.16
-0.24
-0.51
-0.83
-1.06
-1.10
-0.96
-0.69
-0.38
-0.10
0.10
0.20
0.17
0.06
-0.07
-0.14
-0.10
0.05
0.23
0.37
0.41
0.40
0.38
0.39
0.44
0.47
0.43
0.33
0.22
0.17
0.20
0.28
0.33
0.28
0.13
-0.06
-0.18
-0.14
0.09
0.43
0.76
0.96
0.97
0.79
0.51
0.19
-0.07
-0.24
-0.30
-0.27
-0.16
-0.01
0.13
0.21
0.19
0.06
-0.17
-0.43
-0.64
-0.72
-0.63
-0.40
-0.10
0.14
0.26
0.21
0.03
-0.20
-0.39
-0.49
-0.47
-0.35
-0.18
-0.03
0.07
0.10
0.09
0.09
0.15
0.28
0.45
0.60
0.65
0.60
0.49
0.41
0.41
0.50
0.61
0.68
0.65
0.52
0.36
0.23
0.14
0.06
-0.05
-0.21
-0.38
-0.46
-0.36
-0.09
0.26
0.52
0.57
0.39
0.05
-0.30
-0.54
-0.62
-0.58
-0.47
-0.34
-0.22
-0.10
0.01
0.08
0.09
0.03
-0.09
-0.23
-0.33
-0.34
-0.26
-0.12
-0.00
0.03
-0.06
-0.25
-0.45
-0.59
-0.62
-0.55
-0.46
-0.41
-0.42
-0.45
-0.43
-0.31
-0.12
0.06
0.11
0.01
-0.23
-0.48
-0.63
-0.63
-0.45
-0.16
0.18
0.50
0.76
0.96
1.05
1.01
0.83
0.51
0.12
-0.24
-0.47
-0.49
-0.30
0.04
0.38
0.59
0.57
0.33
-0.03
-0.38
-0.59
-0.61
-0.49
-0.30
-0.13
0.01
0.09
0.16
0.23
0.27
0.25
0.14
-0.04
-0.22
-0.32
-0.26
-0.04
0.24
0.44
0.44
0.21
-0.15
-0.45
-0.57
-0.45
-0.19
0.09
0.31
0.47
0.62
0.78
0.92
0.93
0.71
0.27
-0.27
-0.72
-0.90
-0.76
-0.39
0.04
0.35
0.46
0.37
0.20
0.05
-0.02
0.01
0.09
0.18
0.26
0.33
0.43
0.58
0.77
0.92
0.95
0.81
0.50
0.10
-0.30
-0.60
-0.73
-0.71
-0.62
-0.56
-0.57
-0.68
-0.83
-0.96
-1.03
-1.03
-0.94
-0.75
-0.45
-0.07
0.32
0.63
0.75
0.64
0.35
-0.01
-0.31
-0.47
-0.47
-0.37
-0.23
-0.10
-0.02
0.04
0.08
0.15
0.27
0.45
0.65
0.79
0.81
0.69
0.46
0.21
0.03
-0.01
0.10
0.30
0.52
0.68
0.76
0.75
0.65
0.51
0.32
0.11
-0.14
-0.37
-0.58
-0.73
-0.81
-0.84
-0.85
-0.85
-0.87
-0.90
-0.95
-0.99
-0.98
-0.87
-0.62
-0.25
0.17
0.55
0.78
0.84
0.77
0.64
0.54
0.51
0.55
0.62
0.67
0.69
0.68
0.66
0.64
0.61
0.56
0.45
0.28
0.08
-0.10
-0.17
-0.12
0.01
0.14
0.15
0.00
-0.25
-0.46
-0.52
-0.37
-0.08
0.23
0.44
0.49
0.40
0.22
-0.02
-0.30
-0.62
-0.92
-1.12
-1.13
-0.93
-0.57
-0.18
0.13
0.28
0.28
0.18
0.06
-0.03
-0.10
-0.13
-0.16
-0.18
-0.18
-0.13
0.00
0.19
0.39
0.52
0.52
0.40
0.20
0.01
-0.10
-0.12
-0.06
0.01
0.04
0.03
-0.05
-0.15
-0.24
-0.28
-0.21
-0.02
0.26
0.55
0.73
0.75
0.60
0.37
0.15
0.03
-0.01
0.00
0.02
0.05
0.09
0.16
0.22
0.20
0.10
-0.06
-0.18
-0.17
-0.00
0.24
0.43
0.45
0.30
0.05
-0.20
-0.34
-0.35
-0.24
-0.12
-0.08
-0.18
-0.44
-0.81
-1.16
-1.36
-1.29
-0.94
-0.40
0.18
0.63
0.83
0.78
0.60
0.40
0.27
0.22
0.20
0.13
0.01
-0.14
-0.28
-0.35
-0.35
-0.32
-0.29
-0.27
-0.25
-0.23
-0.24
-0.27
-0.32
-0.36
-0.31
-0.13
0.16
0.49
0.72
0.76
0.60
0.34
0.10
-0.04
-0.02
0.10
0.22
0.27
0.20
0.04
-0.16
-0.35
-0.46
-0.49
-0.44
-0.31
-0.15
0.01
0.15
0.25
0.34
0.45
0.58
0.68
0.72
0.66
0.53
0.38
0.29
0.29
0.34
0.38
0.33
0.21
0.06
-0.04
-0.04
0.03
0.11
0.12
0.04
-0.12
-0.27
-0.35
-0.32
-0.23
-0.14
-0.13
-0.22
-0.36
-0.46
-0.44
-0.27
-0.03
0.17
0.21
0.07
-0.20
-0.49
-0.68
-0.74
-0.69
-0.65
-0.66
-0.77
-0.90
-0.98
-0.94
-0.75
-0.45
-0.12
0.16
0.37
0.51
0.62
0.71
0.77
0.74
0.61
0.39
0.20
0.12
0.20
0.41
0.60
0.65
0.50
0.20
-0.14
-0.40
-0.52
-0.50
-0.37
-0.18
0.06
0.33
0.61
0.85
1.01
1.08
1.08
1.08
1.07
1.06
0.98
0.79
0.48
0.11
-0.28
-0.60
-0.80
-0.86
-0.77
-0.56
-0.29
-0.07
0.00
-0.15
-0.51
-0.96
-1.34
-1.53
-1.48
-1.28
-1.04
-0.86
-0.75
-0.66
-0.48
-0.19
0.18
0.52
0.75
0.81
0.73
0.59
0.47
0.40
0.38
0.36
0.29
0.14
-0.06
-0.22
-0.27
-0.19
0.00
0.23
0.42
0.52
0.55
0.55
0.52
0.44
0.25
-0.04
-0.36
-0.59
-0.59
-0.31
0.19
0.73
1.14
1.30
1.17
0.85
0.44
0.05
-0.27
-0.49
-0.63
-0.67
-0.61
-0.45
-0.21
0.07
0.36
0.61
0.77
0.80
0.69
0.44
0.09
-0.26
-0.55
-0.70
-0.72
-0.62
-0.44
-0.19
0.12
0.44
0.70
0.82
0.75
0.49
0.15
-0.16
-0.38
-0.46
-0.47
-0.46
-0.46
-0.45
-0.41
-0.32
-0.23
-0.21
-0.33
-0.59
-0.90
-1.09
-1.01
-0.60
0.06
0.76
1.28
1.47
1.27
0.77
0.08
-0.62
-1.20
-1.56
-1.63
-1.42
-0.98
-0.44
0.07
0.42
0.57
0.54
0.40
0.23
0.07
-0.07
-0.16
-0.19
-0.11
0.10
0.39
0.68
0.86
0.87
0.71
0.45
0.21
0.09
0.15
0.36
0.65
0.87
0.94
0.80
0.47
0.06
-0.28
-0.46
-0.44
-0.30
-0.11
0.05
0.12
0.13
0.11
0.07
0.04
0.01
0.02
0.08
0.21
0.41
0.62
0.76
0.76
0.58
0.22
-0.23
-0.69
-1.07
-1.38
-1.61
-1.77
-1.82
-1.69
-1.35
-0.83
-0.25
0.22
0.45
0.41
0.19
-0.04
-0.15
-0.07
0.15
0.41
0.60
0.68
0.66
0.56
0.41
0.23
0.07
-0.04
-0.05
0.06
0.29
0.55
0.75
0.84
0.81
0.69
0.54
0.39
0.23
0.08
-0.07
-0.15
-0.14
-0.04
0.10
0.19
0.18
0.08
-0.02
-0.07
-0.06
-0.09
-0.25
-0.58
-0.99
-1.33
-1.44
-1.29
-0.95
-0.60
-0.35
-0.21
-0.10
0.08
0.33
0.59
0.74
0.72
0.58
0.41
0.35
0.45
0.67
0.89
1.00
0.90
0.60
0.18
-0.23
-0.53
-0.66
-0.62
-0.51
-0.42
-0.40
-0.47
-0.53
-0.50
-0.32
-0.03
0.25
0.41
0.37
0.14
-0.21
-0.54
-0.71
-0.67
-0.44
-0.08
0.27
0.49
0.52
0.35
0.05
-0.30
-0.60
-0.84
-1.00
-1.10
-1.08
-0.90
-0.54
-0.05
0.45
0.84
1.03
1.01
0.86
0.69
0.59
0.56
0.57
0.58
0.57
0.55
0.54
0.55
0.53
0.42
0.19
-0.15
-0.52
-0.84
-0.99
-0.93
-0.67
-0.28
0.15
0.51
0.72
0.73
0.55
0.25
-0.05
-0.23
-0.22
-0.01
0.33
0.67
0.87
0.85
0.61
0.21
-0.26
-0.69
-0.98
-1.09
-0.96
-0.62
-0.16
0.32
0.68
0.84
0.79
0.60
0.39
0.25
0.23
0.25
0.23
0.09
-0.17
-0.47
-0.72
-0.84
-0.76
-0.53
-0.23
0.03
0.18
0.16
0.00
-0.22
-0.40
-0.48
-0.44
-0.31
-0.13
0.04
0.20
0.33
0.42
0.45
0.39
0.24
0.06
-0.09
-0.15
-0.09
0.03
0.15
0.19
0.15
0.03
-0.12
-0.26
-0.37
-0.44
-0.45
-0.43
-0.36
-0.27
-0.17
-0.08
-0.05
-0.09
-0.20
-0.32
-0.38
-0.30
-0.05
0.31
0.68
0.91
0.94
0.78
0.52
0.31
0.25
0.33
0.51
0.66
0.70
0.61
0.42
0.17
-0.11
-0.41
-0.70
-0.91
-0.97
-0.80
-0.40
0.13
0.62
0.89
0.85
0.54
0.11
-0.26
-0.46
-0.45
-0.30
-0.08
0.10
0.21
0.23
0.15
-0.02
-0.25
-0.50
-0.73
-0.84
-0.76
-0.49
-0.07
0.38
0.71
0.83
0.72
0.43
0.08
-0.21
-0.37
-0.41
-0.37
-0.32
-0.29
-0.29
-0.27
-0.18
-0.01
0.21
0.42
0.56
0.58
0.46
0.22
-0.10
-0.43
-0.70
-0.85
-0.84
-0.70
-0.47
-0.21
0.05
0.29
0.51
0.69
0.81
0.83
0.76
0.61
0.47
0.36
0.30
0.24
0.13
-0.04
-0.24
-0.39
-0.45
-0.42
-0.34
-0.25
-0.21
-0.20
-0.20
-0.21
-0.21
-0.21
-0.21
-0.18
-0.08
0.12
0.41
0.69
0.89
0.92
0.78
0.51
0.25
0.07
0.05
0.15
0.30
0.37
0.32
0.16
-0.02
-0.11
-0.07
0.07
0.24
0.32
0.26
0.10
-0.08
-0.19
-0.17
-0.05
0.10
0.18
0.14
-0.04
-0.29
-0.54
-0.72
-0.82
-0.83
-0.79
-0.70
-0.60
-0.47
-0.34
-0.23
-0.16
-0.14
-0.19
-0.29
-0.44
-0.64
-0.83
-0.95
-0.93
-0.77
-0.45
-0.04
0.38
0.76
1.01
1.12
1.07
0.92
0.75
0.64
0.66
0.79
0.96
1.07
1.04
0.88
0.65
0.44
0.30
0.24
0.23
0.24
0.21
0.10
-0.09
-0.37
-0.67
-0.94
-1.11
-1.14
-1.03
-0.84
-0.61
-0.41
-0.26
-0.17
-0.12
-0.05
0.03
0.15
0.26
0.31
0.27
0.13
-0.03
-0.16
-0.20
-0.14
-0.02
0.11
0.18
0.17
0.09
-0.03
-0.16
-0.27
-0.31
-0.28
-0.18
-0.05
0.04
0.05
-0.02
-0.14
-0.24
-0.24
-0.13
0.06
0.26
0.41
0.46
0.41
0.29
0.10
-0.11
-0.34
-0.53
-0.63
-0.62
-0.49
-0.28
-0.04
0.15
0.23
0.20
0.09
-0.02
-0.07
0.00
0.19
0.43
0.62
0.66
0.51
0.21
-0.16
-0.49
-0.71
-0.82
-0.86
-0.91
-0.96
-0.97
-0.87
-0.62
-0.26
0.15
0.52
0.82
1.06
1.26
1.44
1.56
1.57
1.45
1.22
0.92
0.63
0.39
0.20
0.06
-0.04
-0.09
-0.09
-0.08
-0.11
-0.19
-0.28
-0.30
-0.17
0.11
0.45
0.72
0.81
0.73
0.52
0.28
0.07
-0.11
-0.28
-0.45
-0.59
-0.66
-0.65
-0.60
-0.54
-0.52
-0.52
-0.49
-0.41
-0.32
-0.29
-0.37
-0.55
-0.77
-0.93
-0.98
-0.91
-0.81
-0.72
-0.70
-0.71
-0.70
-0.61
-0.42
-0.13
0.23
0.59
0.86
0.98
0.92
0.74
0.55
0.47
0.56
0.77
1.00
1.15
1.17
1.07
0.90
0.71
0.51
0.28
0.03
-0.18
-0.27
-0.22
-0.07
0.05
-0.01
-0.29
-0.73
-1.14
-1.33
-1.19
-0.78
-0.23
0.26
0.57
0.67
0.61
0.49
0.39
0.31
0.24
0.13
-0.05
-0.29
-0.51
-0.63
-0.61
-0.44
-0.21
-0.04
-0.03
-0.21
-0.51
-0.82
-0.99
-0.98
-0.82
-0.63
-0.51
-0.52
-0.65
-0.80
-0.88
-0.80
-0.62
-0.44
-0.40
-0.61
-1.07
-1.70
-2.41
-3.10
-3.72
-4.28
-4.82
-5.36
-5.92
-6.51
-7.11
-7.72
-8.32
-8.87
-9.32
-9.67
-9.99
-10.46
-11.23
-12.37
-13.73
-15.04
-15.97
-16.36
-16.33
-16.30
-16.79
-18.15
-20.38
-23.03
-25.45
-27.03
-27.57
-27.38
-27.24
-27.96
-30.08
-33.54
-37.76
-41.81
-44.76
-45.82
-44.59
-41.25
-36.61
-32.05
-29.17
-29.17
-32.34
-37.95
-44.54
-50.73
-55.87
-60.36
-65.25
-71.51
-79.19
-86.99
-92.26
-91.62
-81.99
-61.79
-31.81
4.56
42.11
75.38
100.35
115.58
122.14
122.55
119.39
114.31
107.89
100.33
92.16
84.52
78.77
75.77
75.23
75.80
75.69
73.56
69.15
63.50
58.39
55.51
55.70
58.53
62.49
65.73
66.84
65.53
62.77
60.36
60.07
62.90
68.55
75.63
82.25
86.91
89.14
89.64
89.86
91.49
95.86
103.48
113.69
124.40
132.11
132.36
120.86
95.03
55.47
6.45
-44.95
-90.95
-125.46
-145.82
-153.04
-150.65
-142.80
-132.72
-122.16
-111.75
-101.85
-93.04
-86.17
-81.74
-79.49
-78.18
-76.22
-72.39
-66.50
-59.42
-52.57
-47.19
-43.67
-41.44
-39.25
-35.86
-30.60
-23.68
-16.09
-9.16
-4.06
-1.29
-0.60
-1.10
-1.70
-1.56
-0.42
1.37
3.06
3.87
3.38
1.63
-0.93
-3.67
-6.03
-7.72
-8.73
-9.31
-9.83
-10.65
-11.96
-13.73
-15.75
-17.69
-19.35
-20.69
-21.85
-22.98
-24.05
-24.86
-25.13
-24.83
-24.33
-24.37
-25.72
-28.83
-33.53
-39.08
-44.59
-49.43
-53.46
-57.08
-60.91
-65.50
-71.11
-77.68
-84.94
-92.56
-100.22
-107.72
-114.89
-121.54
-127.51
-132.74
-137.45
-142.12
-147.04
-151.80
-154.75
-153.11
-143.69
-124.08
-93.58
-53.33
-5.65
46.77
101.42
155.77
206.85
251.09
285.04
306.54
315.87
315.84
310.81
305.07
301.45
300.90
303.10
307.35
313.20
320.25
327.45
332.48
332.07
322.83
302.65
271.54
231.59
185.89
137.09
86.49
34.27
-19.21
-72.14
-120.78
-160.44
-187.31
-200.22
-201.15
-194.38
-184.54
-174.88
-166.54
-158.94
-151.07
-142.51
-133.76
-125.79
-119.29
-114.11
-109.41
-104.16
-97.75
-90.30
-82.52
-75.33
-69.32
-64.56
-60.63
-56.85
-52.69
-47.89
-42.60
-37.23
-32.26
-28.05
-24.71
-22.09
-19.82
-17.54
-15.00
-12.22
-9.43
-6.99
-5.16
-3.99
-3.33
-2.86
-2.28
-1.41
-0.29
0.89
1.87
2.46
2.59
2.34
1.89
1.45
1.11
0.88
0.68
0.37
-0.09
-0.66
-1.24
-1.70
-1.99
-2.16
-2.31
-2.58
-3.06
-3.72
-4.53
-5.40
-6.26
-7.10
-7.97
-8.90
-9.95
-11.10
-12.31
-13.52
-14.70
-15.87
-17.10
-18.49
-20.10
-21.95
-23.98
-26.14
-28.32
-30.46
-32.54
-34.60
-36.71
-38.97
-41.40
-43.88
-46.17
-47.94
-48.95
-49.28
-49.37
-49.95
-51.78
-55.36
-60.70
-67.42
-74.95
-82.92
-91.32
-100.51
-110.91
-122.66
-135.52
-148.91
-162.16
-174.62
-185.45
-193.31
-196.25
-192.00
-178.64
-155.44
-123.15
-83.57
-38.72
9.91
61.29
114.07
165.67
212.08
248.75
272.29
282.02
280.36
271.88
261.49
252.63
246.54
242.62
239.53
236.37
233.08
230.27
228.61
228.28
228.89
229.91
231.25
233.49
237.60
243.98
251.44
256.95
256.25
245.41
222.41
187.84
144.40
95.50
43.96
-8.32
-59.75
-108.09
-150.01
-181.86
-201.07
-207.44
-203.34
-192.74
-179.63
-166.68
-154.89
-144.04
-133.72
-123.95
-115.20
-108.01
-102.47
-98.09
-94.06
-89.68
-84.66
-79.28
-74.14
-69.81
-66.49
-64.03
-61.94
-59.74
-57.11
-54.10
-51.01
-48.22
-45.93
-44.10
-42.46
-40.72
-38.84
-37.16
-36.26
-36.67
-38.50
-41.27
-44.22
-46.69
-48.63
-50.68
-53.91
-59.23
-66.81
-75.83
-84.76
-91.94
-96.24
-97.54
-96.73
-95.39
-95.28
-97.88
-103.92
-112.88
-122.81
-130.40
-131.49
-122.12
-99.73
-64.20
-18.23
33.25
84.42
130.00
166.45
192.31
207.82
214.30
213.69
208.31
200.79
193.91
190.00
190.31
194.67
201.53
208.27
211.83
209.37
199.06
181.12
158.28
135.50
118.15
109.41
108.05
108.10
101.11
80.08
43.22
-4.82
-54.81
-97.07
-125.54
-139.51
-142.69
-140.21
-135.73
-130.20
-122.57
-111.62
-97.63
-82.88
-70.59
-63.24
-61.28
-62.81
-64.69
-64.07
-59.70
-52.30
-44.05
-37.26
-33.27
-31.88
-31.70
-30.89
-28.18
-23.30
-17.07
-10.79
-5.61
-2.04
0.11
1.42
2.34
2.90
2.74
1.37
-1.38
-5.18
-9.24
-12.72
-15.01
-15.91
-15.60
-14.40
-12.63
-10.55
-8.40
-6.45
-5.02
-4.33
-4.41
-5.06
-5.89
-6.53
-6.79
-6.68
-6.42
-6.25
-6.22
-6.14
-5.67
-4.44
-2.38
0.26
2.93
5.04
6.25
6.57
6.31
5.95
5.84
6.07
6.51
6.90
7.02
6.79
6.27
5.64
5.06
4.62
4.25
3.78
3.05
1.97
0.69
-0.55
-1.45
-1.85
-1.83
-1.59
-1.39
-1.39
-1.57
-1.79
-1.96
-2.03
-2.05
-2.13
-2.29
-2.43
-2.39
-1.99
-1.06
0.42
2.33
4.44
6.38
7.78
8.36
8.03
6.95
5.50
4.10
3.08
2.54
2.32
2.17
1.83
1.23
0.42
-0.41
-1.06
-1.42
-1.51
-1.38
-1.14
-0.80
-0.40
0.07
0.52
0.86
0.95
0.72
0.17
-0.62
-1.48
-2.26
-2.83
-3.13
-3.11
-2.81
-2.27
-1.58
-0.85
-0.20
0.28
0.57
0.68
0.64
0.51
0.33
0.14
-0.04
-0.16
-0.23
-0.24
-0.24
-0.24
-0.27
-0.31
-0.27
-0.13
0.13
0.42
0.65
0.74
0.68
0.53
0.38
0.27
0.15
-0.09
-0.54
-1.21
-1.95
-2.56
-2.84
-2.72
-2.27
-1.66
-1.13
-0.82
-0.79
-0.96
-1.17
-1.28
-1.23
-1.07
-0.90
-0.87
-1.01
-1.27
-1.50
-1.53
-1.30
-0.87
-0.40
-0.05
0.09
0.05
-0.03
-0.07
-0.03
0.01
-0.02
-0.15
-0.32
-0.40
-0.28
0.03
0.40
0.65
0.66
0.43
0.09
-0.21
-0.33
-0.28
-0.12
0.07
0.24
0.37
0.48
0.59
0.66
0.62
0.44
0.14
-0.20
-0.51
-0.71
-0.77
-0.73
-0.62
-0.48
-0.30
-0.11
0.11
0.35
0.58
0.74
0.77
0.63
0.36
0.03
-0.23
-0.33
-0.21
0.05
0.35
0.54
0.55
0.35
-0.00
-0.40
-0.77
-1.02
-1.13
-1.11
-0.96
-0.71
-0.36
0.03
0.41
0.71
0.86
0.83
0.64
0.36
0.10
-0.06
-0.06
0.08
0.29
0.51
0.66
0.71
0.62
0.40
0.11
-0.18
-0.37
-0.37
-0.19
0.08
0.30
0.36
0.23
-0.02
-0.27
-0.40
-0.36
-0.19
0.01
0.16
0.21
0.17
0.07
-0.04
-0.09
-0.04
0.15
0.45
0.80
1.12
1.30
1.32
1.19
0.99
0.75
0.52
0.27
-0.01
-0.31
-0.58
-0.75
-0.78
-0.72
-0.65
-0.67
-0.83
-1.07
-1.28
-1.32
-1.18
-0.89
-0.54
-0.24
-0.02
0.12
0.20
0.26
0.27
0.20
0.05
-0.18
-0.43
-0.64
-0.76
-0.80
-0.78
-0.72
-0.65
-0.58
-0.51
-0.44
-0.30
-0.07
0.26
0.66
1.02
1.24
1.20
0.94
0.56
0.24
0.12
0.23
0.48
0.72
0.87
0.93
0.98
1.07
1.21
1.30
1.21
0.87
0.35
-0.24
-0.73
-1.02
-1.10
-1.04
-0.96
-0.93
-0.97
-1.07
-1.15
-1.16
-1.09
-0.93
-0.73
-0.52
-0.32
-0.15
0.00
0.13
0.25
0.36
0.49
0.64
0.82
1.00
1.13
1.18
1.12
0.97
0.81
0.71
0.72
0.81
0.92
0.97
0.90
0.68
0.35
-0.04
-0.40
-0.65
-0.76
-0.72
-0.58
-0.40
-0.26
-0.21
-0.24
-0.32
-0.37
-0.37
-0.33
-0.28
-0.27
-0.27
-0.25
-0.15
0.03
0.22
0.30
0.18
-0.17
-0.62
-1.01
-1.17
-1.00
-0.57
-0.01
0.51
0.87
1.03
1.01
0.86
0.62
0.36
0.11
-0.07
-0.16
-0.17
-0.12
-0.04
0.03
0.09
0.10
0.00
-0.22
-0.54
-0.85
-1.02
-0.96
-0.68
-0.33
-0.08
-0.04
-0.19
-0.40
-0.51
-0.46
-0.30
-0.14
-0.10
-0.19
-0.33
-0.40
-0.30
-0.06
0.22
0.38
0.32
0.07
-0.23
-0.44
-0.44
-0.27
-0.02
0.18
0.28
0.30
0.31
0.38
0.51
0.67
0.81
0.89
0.93
0.94
0.96
0.99
1.02
1.02
0.98
0.85
0.62
0.31
-0.03
-0.32
-0.50
-0.54
-0.48
-0.40
-0.36
-0.35
-0.32
-0.20
0.01
0.23
0.33
0.23
-0.05
-0.40
-0.63
-0.67
-0.50
-0.25
-0.05
0.00
-0.10
-0.30
-0.51
-0.67
-0.77
-0.79
-0.74
-0.64
-0.50
-0.37
-0.26
-0.20
-0.14
-0.04
0.14
0.44
0.80
1.12
1.30
1.26
0.99
0.55
0.06
-0.36
-0.63
-0.72
-0.64
-0.48
-0.26
-0.01
0.24
0.47
0.61
0.63
0.47
0.18
-0.13
-0.36
-0.45
-0.40
-0.30
-0.22
-0.20
-0.24
-0.25
-0.18
-0.05
0.09
0.19
0.21
0.17
0.11
0.08
0.09
0.09
0.04
-0.07
-0.24
-0.44
-0.58
-0.63
-0.55
-0.36
-0.09
0.20
0.46
0.63
0.69
0.63
0.50
0.32
0.15
-0.01
-0.13
-0.20
-0.20
-0.09
0.11
0.33
0.51
0.56
0.45
0.22
-0.06
-0.28
-0.39
-0.38
-0.29
-0.18
-0.10
-0.07
-0.09
-0.14
-0.18
-0.19
-0.15
-0.06
0.07
0.21
0.34
0.41
0.43
0.40
0.33
0.24
0.15
0.08
0.08
0.16
0.30
0.43
0.50
0.45
0.29
0.08
-0.08
-0.13
-0.06
0.08
0.21
0.29
0.29
0.25
0.20
0.16
0.12
0.05
-0.07
-0.23
-0.40
-0.50
-0.46
-0.31
-0.09
0.08
0.09
-0.08
-0.37
-0.64
-0.75
-0.63
-0.33
0.06
0.38
0.53
0.46
0.21
-0.16
-0.54
-0.83
-0.98
-0.99
-0.88
-0.71
-0.53
-0.35
-0.17
-0.01
0.15
0.27
0.35
0.42
0.48
0.57
0.68
0.78
0.83
0.78
0.61
0.36
0.12
-0.03
-0.03
0.10
0.30
0.46
0.48
0.33
0.06
-0.24
-0.46
-0.53
-0.42
-0.20
0.07
0.30
0.44
0.45
0.38
0.25
0.14
0.06
-0.00
-0.08
-0.23
-0.45
-0.70
-0.89
-0.92
-0.78
-0.52
-0.23
-0.00
0.13
0.24
0.39
0.62
0.88
1.06
1.08
0.90
0.60
0.30
0.12
0.08
0.15
0.23
0.23
0.11
-0.10
-0.35
-0.59
-0.76
-0.88
-0.92
-0.89
-0.80
-0.66
-0.52
-0.42
-0.41
-0.48
-0.61
-0.73
-0.76
-0.69
-0.53
-0.32
-0.11
0.06
0.19
0.26
0.29
0.29
0.29
0.29
0.31
0.32
0.31
0.28
0.27
0.30
0.40
0.54
0.65
0.68
0.59
0.39
0.16
-0.04
-0.16
-0.21
-0.19
-0.13
-0.01
0.15
0.36
0.53
0.60
0.49
0.21
-0.15
-0.48
-0.65
-0.61
-0.42
-0.19
-0.02
0.05
0.04
0.02
0.05
0.13
0.23
0.27
0.23
0.10
-0.08
-0.26
-0.43
-0.56
-0.64
-0.69
-0.69
-0.68
-0.64
-0.56
-0.41
-0.16
0.15
0.47
0.72
0.84
0.79
0.62
0.38
0.17
0.04
0.03
0.10
0.20
0.29
0.31
0.28
0.21
0.13
0.06
0.02
-0.00
-0.01
0.01
0.05
0.12
0.21
0.32
0.45
0.59
0.75
0.90
1.00
1.00
0.89
0.64
0.30
-0.08
-0.43
-0.69
-0.83
-0.82
-0.71
-0.51
-0.30
-0.16
-0.16
-0.33
-0.64
-0.95
-1.14
-1.09
-0.78
-0.28
0.25
0.65
0.82
0.75
0.48
0.11
-0.27
-0.61
-0.85
-0.96
-0.90
-0.67
-0.26
0.24
0.74
1.09
1.17
0.93
0.42
-0.16
-0.59
-0.71
-0.47
0.03
0.58
0.99
1.14
1.03
0.75
0.47
0.26
0.18
0.18
0.22
0.23
0.18
0.06
-0.12
-0.35
-0.62
-0.89
-1.13
-1.30
-1.36
-1.28
-1.05
-0.70
-0.28
0.12
0.44
0.60
0.58
0.38
0.08
-0.20
-0.37
-0.36
-0.20
0.07
0.34
0.54
0.62
0.55
0.37
0.09
-0.25
-0.58
-0.86
-1.00
-0.98
-0.78
-0.48
-0.18
0.00
0.04
-0.03
-0.13
-0.19
-0.17
-0.09
0.02
0.14
0.30
0.52
0.77
0.97
1.01
0.83
0.46
0.02
-0.34
-0.51
-0.46
-0.22
0.15
0.59
1.07
1.50
1.77
1.79
1.51
0.99
0.41
-0.04
-0.26
-0.27
-0.15
-0.05
-0.04
-0.14
-0.30
-0.46
-0.56
-0.57
-0.49
-0.32
-0.09
0.13
0.28
0.32
0.23
0.07
-0.11
-0.27
-0.40
-0.50
-0.58
-0.61
-0.57
-0.47
-0.34
-0.22
-0.16
-0.15
-0.17
-0.21
-0.25
-0.31
-0.37
-0.43
-0.47
-0.46
-0.41
-0.31
-0.17
0.03
0.29
0.63
1.00
1.29
1.43
1.38
1.16
0.87
0.59
0.40
0.31
0.31
0.34
0.37
0.35
0.26
0.10
-0.10
-0.29
-0.41
-0.44
-0.40
-0.34
-0.32
-0.36
-0.45
-0.56
-0.65
-0.73
-0.80
-0.86
-0.87
-0.82
-0.70
-0.52
-0.32
-0.14
0.01
0.12
0.20
0.24
0.25
0.21
0.13
0.05
-0.01
-0.02
-0.04
-0.10
-0.21
-0.33
-0.40
-0.36
-0.24
-0.10
-0.02
-0.02
-0.08
-0.09
0.05
0.35
0.74
1.06
1.17
1.01
0.65
0.26
-0.02
-0.09
0.00
0.15
0.26
0.27
0.24
0.22
0.27
0.32
0.30
0.12
-0.20
-0.54
-0.75
-0.71
-0.44
-0.04
0.30
0.45
0.37
0.13
-0.16
-0.38
-0.47
-0.45
-0.36
-0.26
-0.21
-0.24
-0.32
-0.44
-0.55
-0.61
-0.60
-0.51
-0.35
-0.12
0.15
0.44
0.70
0.91
1.04
1.09
1.09
1.04
0.95
0.78
0.53
0.21
-0.13
-0.39
-0.47
-0.37
-0.13
0.19
0.48
0.72
0.87
0.92
0.86
0.64
0.31
-0.08
-0.40
-0.54
-0.47
-0.25
-0.02
0.06
-0.07
-0.39
-0.76
-1.02
-1.09
-0.94
-0.65
-0.34
-0.10
0.03
0.06
0.06
0.09
0.19
0.34
0.46
0.48
0.37
0.15
-0.11
-0.34
-0.49
-0.53
-0.48
-0.40
-0.31
-0.24
-0.20
-0.17
-0.15
-0.10
-0.02
0.06
0.14
0.19
0.23
0.27
0.31
0.36
0.40
0.37
0.28
0.14
-0.01
-0.14
-0.24
-0.32
-0.40
-0.47
-0.53
-0.54
-0.54
-0.53
-0.53
-0.52
-0.46
-0.32
-0.09
0.16
0.34
0.39
0.31
0.18
0.14
0.26
0.53
0.87
1.13
1.21
1.07
0.77
0.41
0.08
-0.16
-0.31
-0.37
-0.38
-0.35
-0.32
-0.29
-0.29
-0.31
-0.31
-0.26
-0.14
0.05
0.24
0.34
0.31
0.16
-0.03
-0.12
-0.02
0.22
0.48
0.56
0.38
-0.04
-0.52
-0.85
-0.88
-0.60
-0.14
0.32
0.64
0.75
0.66
0.43
0.13
-0.18
-0.43
-0.60
-0.65
-0.58
-0.44
-0.27
-0.12
-0.01
0.06
0.08
0.07
0.05
0.03
0.03
0.10
0.24
0.42
0.57
0.61
0.48
0.19
-0.17
-0.47
-0.60
-0.52
-0.28
0.02
0.28
0.45
0.53
0.54
0.47
0.32
0.07
-0.23
-0.50
-0.62
-0.56
-0.36
-0.10
0.09
0.16
0.12
0.02
-0.08
-0.15
-0.20
-0.25
-0.31
-0.37
-0.38
-0.33
-0.17
0.11
0.45
0.77
0.98
1.00
0.79
0.41
-0.06
-0.49
-0.77
-0.84
-0.71
-0.46
-0.16
0.04
0.11
0.02
-0.18
-0.37
-0.45
-0.39
-0.18
0.11
0.44
0.74
0.98
1.11
1.08
0.88
0.53
0.16
-0.10
-0.15
0.00
0.26
0.45
0.46
0.27
-0.01
-0.22
-0.26
-0.16
-0.01
0.05
-0.02
-0.17
-0.29
-0.32
-0.28
-0.25
-0.31
-0.44
-0.55
-0.51
-0.29
0.03
0.32
0.46
0.43
0.31
0.18
0.09
0.00
-0.13
-0.34
-0.57
-0.69
-0.66
-0.48
-0.27
-0.17
-0.25
-0.49
-0.77
-0.96
-0.95
-0.76
-0.47
-0.16
0.10
0.29
0.44
0.53
0.52
0.39
0.19
0.02
0.00
0.21
0.60
1.04
1.35
1.43
1.28
1.00
0.71
0.51
0.39
0.33
0.26
0.16
0.05
-0.02
-0.03
0.03
0.13
0.21
0.24
0.19
0.07
-0.09
-0.27
-0.41
-0.50
-0.51
-0.43
-0.30
-0.20
-0.17
-0.25
-0.36
-0.42
-0.38
-0.24
-0.08
-0.02
-0.10
-0.26
-0.39
-0.41
-0.32
-0.21
-0.18
-0.30
-0.51
-0.69
-0.72
-0.54
-0.17
0.31
0.79
1.14
1.25
1.08
0.66
0.13
-0.36
-0.66
-0.71
-0.56
-0.32
-0.12
-0.02
-0.04
-0.17
-0.37
-0.57
-0.72
-0.75
-0.62
-0.38
-0.10
0.14
0.28
0.32
0.32
0.29
0.26
0.21
0.14
0.07
0.04
0.06
0.10
0.10
0.02
-0.14
-0.33
-0.47
-0.49
-0.37
-0.15
0.10
0.31
0.45
0.50
0.48
0.43
0.38
0.35
0.34
0.35
0.34
0.29
0.20
0.06
-0.13
-0.33
-0.49
-0.58
-0.55
-0.40
-0.15
0.12
0.35
0.46
0.44
0.33
0.21
0.15
0.18
0.26
0.32
0.31
0.22
0.09
0.00
-0.00
0.10
0.26
0.39
0.42
0.35
0.19
0.00
-0.20
-0.39
-0.57
-0.69
-0.71
-0.60
-0.38
-0.11
0.14
0.31
0.37
0.36
0.30
0.22
0.09
-0.06
-0.23
-0.34
-0.34
-0.19
0.10
0.46
0.79
1.00
1.01
0.77
0.33
-0.24
-0.78
-1.16
-1.26
-1.08
-0.71
-0.27
0.12
0.39
0.52
0.53
0.47
0.37
0.26
0.16
0.09
0.10
0.21
0.38
0.56
0.66
0.61
0.40
0.10
-0.18
-0.32
-0.26
-0.01
0.32
0.59
0.67
0.54
0.23
-0.16
-0.52
-0.77
-0.90
-0.93
-0.89
-0.78
-0.60
-0.35
-0.06
0.18
0.25
0.12
-0.16
-0.46
-0.62
-0.56
-0.33
-0.03
0.20
0.27
0.18
-0.02
-0.24
-0.42
-0.53
-0.55
-0.43
-0.17
0.20
0.59
0.88
0.96
0.79
0.43
0.02
-0.28
-0.36
-0.23
0.02
0.24
0.33
0.28
0.17
0.08
0.06
0.11
0.14
0.10
-0.06
-0.31
-0.56
-0.72
-0.75
-0.65
-0.51
-0.39
-0.34
-0.32
-0.29
-0.19
-0.01
0.20
0.37
0.45
0.42
0.34
0.24
0.13
0.02
-0.13
-0.30
-0.40
-0.35
-0.11
0.29
0.70
0.97
0.99
0.78
0.45
0.15
-0.00
0.00
0.11
0.22
0.27
0.24
0.15
0.05
-0.07
-0.20
-0.38
-0.57
-0.72
-0.79
-0.75
-0.62
-0.46
-0.33
-0.23
-0.17
-0.13
-0.11
-0.07
-0.03
0.04
0.11
0.18
0.21
0.18
0.11
0.01
-0.07
-0.08
-0.01
0.11
0.25
0.40
0.55
0.71
0.86
1.00
1.07
1.04
0.88
0.59
0.27
-0.01
-0.16
-0.13
0.04
0.27
0.45
0.50
0.41
0.18
-0.12
-0.45
-0.75
-0.99
-1.14
-1.19
-1.14
-1.02
-0.85
-0.64
-0.37
-0.07
0.24
0.48
0.58
0.49
0.24
-0.08
-0.31
-0.36
-0.21
0.08
0.36
0.51
0.47
0.24
-0.07
-0.38
-0.60
-0.72
-0.73
-0.65
-0.46
-0.16
0.24
0.69
1.09
1.33
1.34
1.11
0.71
0.26
-0.12
-0.35
-0.40
-0.32
-0.16
0.01
0.15
0.24
0.27
0.23
0.11
-0.11
-0.42
-0.78
-1.12
-1.34
-1.37
-1.18
-0.83
-0.43
-0.09
0.14
0.24
0.24
0.19
0.13
0.10
0.13
0.25
0.45
0.70
0.90
0.96
0.85
0.58
0.26
0.02
-0.05
0.06
0.25
0.41
0.44
0.29
0.03
-0.24
-0.40
-0.40
-0.28
-0.13
-0.01
0.07
0.16
0.35
0.67
1.05
1.35
1.41
1.19
0.76
0.28
-0.09
-0.26
-0.27
-0.22
-0.20
-0.23
-0.30
-0.32
-0.25
-0.07
0.19
0.49
0.78
1.02
1.17
1.18
1.02
0.71
0.31
-0.11
-0.45
-0.64
-0.70
-0.69
-0.65
-0.65
-0.70
-0.78
-0.89
-0.98
-1.02
-0.97
-0.83
-0.64
-0.47
-0.39
-0.43
-0.51
-0.56
-0.48
-0.27
-0.02
0.12
0.05
-0.21
-0.52
-0.67
-0.51
-0.06
0.53
0.99
1.13
0.88
0.36
-0.20
-0.58
-0.66
-0.48
-0.19
0.01
0.01
-0.18
-0.44
-0.62
-0.62
-0.43
-0.13
0.18
0.43
0.59
0.65
0.61
0.45
0.19
-0.14
-0.46
-0.67
-0.71
-0.53
-0.21
0.16
0.43
0.53
0.44
0.25
0.02
-0.15
-0.27
-0.39
-0.55
-0.78
-1.01
-1.18
-1.26
-1.29
-1.34
-1.46
-1.63
-1.71
-1.61
-1.31
-0.92
-0.61
-0.49
-0.57
-0.74
-0.84
-0.80
-0.64
-0.48
-0.37
-0.36
-0.39
-0.43
-0.44
-0.47
-0.53
-0.61
-0.65
-0.63
-0.51
-0.36
-0.22
-0.13
-0.07
-0.02
0.00
-0.04
-0.26
-0.69
-1.32
-2.05
-2.74
-3.28
-3.65
-3.91
-4.16
-4.50
-4.99
-5.66
-6.46
-7.29
-8.01
-8.46
-8.59
-8.50
-8.48
-8.90
-10.04
-11.85
-13.95
-15.73
-16.69
-16.69
-16.13
-15.76
-16.38
-18.42
-21.65
-25.31
-28.39
-30.14
-30.45
-29.93
-29.67
-30.75
-33.74
-38.40
-43.85
-48.99
-52.99
-55.70
-57.60
-59.43
-61.91
-65.58
-70.83
-77.92
-86.52
-94.99
-99.99
-97.03
-82.18
-54.21
-16.02
25.76
63.09
89.59
102.82
104.65
99.57
92.24
85.48
79.91
74.84
69.63
64.44
60.11
57.33
55.92
54.81
52.63
48.78
44.09
40.75
41.42
47.85
59.91
75.41
91.04
103.67
111.64
115.16
115.81
115.50
115.61
116.56
118.18
120.21
122.75
126.20
130.85
136.43
141.81
145.03
143.48
134.55
116.29
88.28
52.04
11.03
-30.18
-67.07
-96.37
-116.77
-128.73
-133.86
-134.05
-130.93
-125.77
-119.57
-113.32
-107.87
-103.80
-101.12
-99.33
-97.69
-95.44
-92.14
-87.77
-82.68
-77.47
-72.73
-68.83
-65.84
-63.51
-61.36
-58.98
-56.13
-52.90
-49.63
-46.78
-44.83
-44.09
-44.72
-46.59
-49.39
-52.65
-55.86
-58.64
-60.90
-62.86
-64.99
-67.81
-71.57
-76.18
-81.16
-85.93
-90.05
-93.47
-96.42
-99.27
-102.32
-105.79
-109.93
-115.09
-121.39
-128.18
-133.58
-134.62
-127.96
-111.05
-82.99
-44.61
2.17
54.97
111.31
168.24
221.97
268.10
302.72
323.80
332.30
331.93
327.68
323.97
323.35
326.29
331.81
338.17
343.38
345.08
340.71
327.85
305.01
272.27
231.32
184.67
134.57
82.45
29.09
-24.37
-75.64
-121.15
-157.05
-180.73
-192.01
-193.19
-187.99
-180.03
-171.57
-163.27
-154.77
-145.65
-136.14
-127.07
-119.37
-113.41
-108.77
-104.45
-99.42
-93.12
-85.70
-77.96
-70.87
-65.13
-60.89
-57.78
-55.08
-52.15
-48.66
-44.70
-40.63
-36.88
-33.74
-31.29
-29.49
-28.29
-27.69
-27.71
-28.33
-29.39
-30.58
-31.64
-32.50
-33.41
-34.89
-37.48
-41.39
-46.31
-51.38
-55.53
-57.92
-58.36
-57.50
-56.58
-57.06
-60.10
-66.18
-74.96
-85.44
-96.25
-106.21
-114.76
-122.22
-129.74
-138.90
-151.05
-166.64
-184.69
-202.80
-217.60
-225.62
-224.23
-212.26
-190.14
-159.51
-122.52
-81.04
-36.22
11.32
60.88
110.93
158.70
200.69
233.72
256.12
268.38
272.77
272.30
269.43
265.47
260.69
255.17
249.44
244.66
242.03
241.98
243.79
245.86
246.56
245.14
242.15
239.07
237.67
239.14
243.71
250.59
258.11
264.03
265.81
261.08
248.14
226.46
196.91
161.36
121.91
79.97
35.77
-11.19
-61.01
-112.15
-160.96
-202.44
-232.01
-247.33
-249.27
-241.40
-228.40
-214.23
-200.91
-188.59
-176.49
-164.10
-151.76
-140.43
-130.98
-123.53
-117.25
-110.90
-103.49
-94.77
-85.31
-76.17
-68.33
-62.21
-57.59
-53.77
-49.93
-45.50
-40.41
-35.03
-29.97
-25.74
-22.58
-20.31
-18.48
-16.61
-14.38
-11.80
-9.14
-6.78
-5.01
-3.92
-3.39
-3.19
-3.11
-3.02
-2.86
-2.62
-2.30
-1.93
-1.54
-1.22
-1.05
-1.04
-1.18
-1.36
-1.47
-1.42
-1.22
-0.91
-0.59
-0.28
0.01
0.30
0.56
0.71
0.67
0.38
-0.08
-0.55
-0.82
-0.78
-0.45
-0.02
0.31
0.43
0.40
0.35
0.44
0.70
1.05
1.33
1.40
1.23
0.88
0.49
0.19
-0.01
-0.15
-0.36
-0.75
-1.34
-2.03
-2.62
-2.93
-2.86
-2.46
-1.91
-1.41
-1.09
-0.93
-0.82
-0.62
-0.31
0.05
0.32
0.42
0.32
0.12
-0.10
-0.27
-0.38
-0.41
-0.34
-0.05
0.56
1.54
2.78
4.02
4.96
5.32
5.02
4.16
3.04
1.98
1.25
0.95
1.01
1.26
1.50
1.59
1.50
1.25
0.88
0.41
-0.19
-0.95
-1.82
-2.70
-3.42
-3.82
-3.84
-3.49
-2.91
-2.26
-1.68
-1.25
-0.99
-0.88
-0.89
-0.99
-1.11
-1.11
-0.77
0.05
1.39
3.07
4.72
5.89
6.24
5.72
4.58
3.29
2.31
1.92
2.11
2.58
2.95
2.94
2.47
1.68
0.82
0.14
-0.31
-0.62
-0.95
-1.45
-2.10
-2.75
-3.17
-3.26
-3.01
-2.63
-2.34
-2.25
-2.34
-2.44
-2.38
-2.10
-1.67
-1.21
-0.84
-0.50
-0.11
0.44
1.15
1.86
2.32
2.35
1.88
1.05
0.11
-0.68
-1.18
-1.36
-1.32
-1.16
-0.96
-0.76
-0.55
-0.38
-0.33
-0.48
-0.86
-1.39
-1.92
-2.23
-2.21
-1.81
-1.14
-0.36
0.31
0.74
0.83
0.61
0.22
-0.16
-0.29
0.00
0.77
1.91
3.18
4.28
4.88
4.81
4.08
2.91
1.66
0.70
0.27
0.37
0.80
1.25
1.43
1.19
0.57
-0.29
-1.17
-1.92
-2.43
-2.68
-2.73
-2.63
-2.46
-2.27
-2.04
-1.77
-1.42
-1.05
-0.74
-0.59
-0.68
-0.95
-1.23
-1.28
-0.95
-0.20
0.79
1.70
2.24
2.20
1.61
0.62
-0.47
