1660321521.00
64.000000
-0.00
-0.00
-0.00
-0.00
-0.00
-0.00
-0.00
-0.00
-0.00
-0.00
0.00
0.01
0.01
-0.00
-0.03
-0.05
-0.05
0.00
0.13
0.36
0.66
1.01
1.37
1.72
2.06
2.40
2.79
3.24
3.80
4.42
5.06
5.66
6.20
6.68
7.15
7.68
8.31
9.14
10.09
11.04
11.89
12.57
13.13
13.75
14.64
15.96
17.94
20.37
22.97
25.42
27.53
29.38
31.30
33.74
37.07
41.68
47.22
53.16
58.85
63.92
68.40
72.80
77.83
84.07
92.08
101.34
110.99
120.08
127.95
134.62
140.75
147.76
154.48
163.23
174.57
188.47
203.52
216.63
223.41
219.34
201.29
168.69
124.09
71.30
14.36
-43.93
-102.39
-160.88
-219.30
-276.88
-332.19
-383.41
-429.64
-470.67
-506.60
-537.20
-561.29
-576.80
-581.25
-572.74
-550.47
-515.62
-470.73
-419.16
-364.33
-309.25
-256.18
-206.42
-160.12
-115.96
-71.72
-24.95
25.75
79.75
134.14
184.65
227.16
259.11
280.15
291.55
295.28
293.03
285.89
274.67
260.35
244.28
228.02
212.70
198.76
185.90
173.33
160.31
146.50
132.15
117.96
104.78
93.23
83.45
75.06
67.37
59.71
51.72
43.49
35.49
28.32
22.45
17.88
14.29
11.26
8.44
5.69
3.05
0.67
-1.32
-2.86
-4.02
-4.91
-5.64
-6.28
-6.84
-7.29
-7.61
-7.82
-7.99
-8.17
-8.38
-8.55
-8.57
-8.35
-7.87
-7.24
-6.60
-6.11
-5.84
-5.78
-5.84
-5.90
-5.84
-5.56
-4.98
-4.05
-2.84
-1.54
-0.43
0.25
0.31
-0.20
-1.09
-2.07
-2.90
-3.46
-3.73
-3.77
-3.61
-3.25
-2.68
-1.96
-1.22
-0.63
-0.34
-0.35
-0.59
-0.93
-1.22
-1.39
-1.41
-1.33
-1.21
-1.10
-1.00
-0.91
-0.84
-0.77
-0.69
-0.59
-0.44
-0.24
0.01
0.30
0.61
0.91
1.23
1.58
1.96
2.38
2.83
3.31
3.86
4.48
5.11
5.63
5.91
5.86
5.47
4.81
3.98
3.06
2.11
1.10
0.04
-1.00
-1.95
-2.77
-3.45
-4.06
-4.66
-5.29
-5.92
-6.46
-6.80
-6.86
-6.65
-6.29
-5.95
-5.75
-5.72
-5.77
-5.75
-5.52
-5.03
-4.38
-3.73
-3.24
-2.96
-2.83
-2.72
-2.49
-2.12
-1.68
-1.29
-1.09
-1.10
-1.24
-1.38
-1.40
-1.23
-0.94
-0.66
-0.47
-0.42
-0.45
-0.45
-0.35
-0.10
0.26
0.62
0.89
0.99
0.92
0.74
0.56
0.49
0.59
0.86
1.22
1.57
1.85
2.07
2.27
2.53
2.90
3.33
3.72
3.96
3.95
3.68
3.21
2.68
2.24
2.01
2.03
2.27
2.64
3.02
3.30
3.38
3.21
2.78
2.10
1.27
0.38
-0.44
-1.10
-1.53
-1.72
-1.72
-1.57
-1.37
-1.20
-1.12
-1.19
-1.39
-1.70
-2.12
-2.65
-3.34
-4.16
-5.05
-5.84
-6.36
-6.47
-6.17
-5.57
-4.90
-4.34
-4.01
-3.91
-3.91
-3.90
-3.77
-3.51
-3.15
-2.78
-2.48
-2.29
-2.19
-2.13
-2.04
-1.91
-1.73
-1.56
-1.47
-1.49
-1.64
-1.86
-2.07
-2.19
-2.17
-1.97
-1.58
-0.96
-0.13
0.89
2.01
3.10
4.00
4.58
4.77
4.64
4.29
3.90
3.59
3.42
3.37
3.35
3.31
3.18
2.96
2.68
2.38
2.08
1.78
1.48
1.19
0.94
0.76
0.65
0.56
0.44
0.25
-0.01
-0.32
-0.66
-1.00
-1.36
-1.75
-2.18
-2.62
-3.00
-3.22
-3.21
-2.95
-2.47
-1.86
-1.25
-0.70
-0.23
0.22
0.73
1.32
1.97
2.55
2.94
3.06
2.89
2.53
2.08
1.65
1.31
1.04
0.81
0.56
0.33
0.17
0.21
0.51
1.04
1.62
2.02
2.04
1.66
1.00
0.30
-0.24
-0.53
-0.65
-0.72
-0.82
-1.01
-1.24
-1.47
-1.68
-1.91
-2.15
-2.39
-2.55
-2.56
-2.36
-1.94
-1.37
-0.73
-0.11
0.40
0.75
0.95
1.07
1.19
1.34
1.52
1.63
1.61
1.44
1.21
1.04
1.03
1.16
1.33
1.41
1.31
1.06
0.77
0.55
0.48
0.51
0.57
0.53
0.34
0.01
-0.40
-0.77
-1.03
-1.16
-1.21
-1.24
-1.35
-1.53
-1.73
-1.85
-1.84
-1.72
-1.56
-1.42
-1.29
-1.08
-0.68
-0.07
0.68
1.41
1.95
2.21
2.25
2.16
2.04
1.91
1.76
1.57
1.35
1.19
1.13
1.19
1.32
1.41
1.42
1.32
1.18
1.07
1.02
0.98
0.90
0.72
0.44
0.11
-0.20
-0.45
-0.62
-0.75
-0.90
-1.14
-1.48
-1.91
-2.38
-2.83
-3.16
-3.33
-3.31
-3.06
-2.58
-1.89
-1.06
-0.20
0.56
1.12
1.48
1.72
1.98
2.34
2.81
3.23
3.43
3.29
2.84
2.26
1.75
1.47
1.44
1.52
1.54
1.38
1.01
0.54
0.11
-0.17
-0.23
-0.12
0.05
0.18
0.16
-0.02
-0.32
-0.67
-0.96
-1.15
-1.23
-1.28
-1.38
-1.59
-1.88
-2.17
-2.35
-2.35
-2.21
-2.00
-1.85
-1.78
-1.72
-1.53
-1.07
-0.32
0.57
1.32
1.69
1.56
1.05
0.43
-0.03
-0.16
0.02
0.34
0.61
0.73
0.69
0.60
0.54
0.60
0.78
1.05
1.38
1.69
1.92
2.00
1.88
1.54
1.06
0.52
0.01
-0.39
-0.68
-0.88
-1.08
-1.32
-1.68
-2.15
-2.68
-3.13
-3.35
-3.21
-2.68
-1.85
-0.88
0.00
0.65
1.02
1.18
1.24
1.31
1.43
1.59
1.72
1.76
1.72
1.61
1.50
1.40
1.32
1.21
1.07
0.90
0.77
0.76
0.91
1.19
1.48
1.64
1.58
1.27
0.77
0.19
-0.33
-0.75
-1.05
-1.25
-1.40
-1.54
-1.69
-1.87
-2.09
-2.34
-2.57
-2.72
-2.74
-2.58
-2.24
-1.75
-1.17
-0.56
-0.01
0.44
0.77
0.98
1.13
1.23
1.30
1.33
1.31
1.24
1.12
0.98
0.86
0.76
0.71
0.71
0.78
0.91
1.05
1.10
0.99
0.71
0.34
0.00
-0.23
-0.34
-0.39
-0.43
-0.49
-0.57
-0.66
-0.78
-0.99
-1.32
-1.77
-2.27
-2.71
-2.98
-3.03
-2.85
-2.51
-2.09
-1.68
-1.32
-0.99
-0.65
-0.24
0.24
0.73
1.11
1.28
1.25
1.09
0.92
0.83
0.84
0.92
1.04
1.16
1.27
1.36
1.38
1.31
1.14
0.94
0.75
0.61
0.52
0.40
0.19
-0.10
-0.42
-0.70
-0.88
-1.01
-1.13
-1.32
-1.58
-1.86
-2.10
-2.28
-2.42
-2.57
-2.76
-2.95
-3.04
-2.91
-2.53
-1.98
-1.41
-0.95
-0.65
-0.48
-0.35
-0.21
-0.09
-0.05
-0.15
-0.38
-0.68
-0.94
-1.13
-1.25
-1.37
-1.59
-1.94
-2.38
-2.84
-3.23
-3.52
-3.76
-4.03
-4.43
-4.96
-5.58
-6.20
-6.75
-7.21
-7.62
-8.04
-8.45
-8.74
-8.74
-8.26
-7.22
-5.66
-3.72
-1.59
0.54
2.55
4.34
5.87
7.12
8.04
8.63
8.93
9.01
8.96
8.85
8.68
8.41
7.98
7.39
6.68
5.97
5.37
4.94
4.62
4.31
3.92
3.41
2.88
2.41
2.07
1.84
1.65
1.42
1.15
0.91
0.80
0.85
1.03
1.20
1.20
0.94
0.41
-0.26
-0.92
-1.39
-1.60
-1.54
-1.29
-0.93
-0.57
-0.24
0.03
0.26
0.46
0.62
0.76
0.90
1.06
1.24
1.45
1.66
1.87
2.07
2.25
2.38
2.41
2.30
2.02
1.62
1.16
0.76
0.49
0.35
0.29
0.22
0.07
-0.22
-0.67
-1.28
-2.06
-2.95
-3.88
-4.69
-5.20
-5.24
-4.74
-3.75
-2.44
-1.07
0.15
1.03
1.55
1.73
1.72
1.63
1.56
1.53
1.56
1.63
1.74
1.92
2.21
2.63
3.15
3.76
4.41
5.09
5.83
6.61
7.42
8.17
8.78
9.25
9.63
10.06
10.65
11.43
12.28
13.00
13.40
13.38
12.98
12.33
11.58
10.85
10.18
9.61
9.17
8.89
8.73
8.54
8.11
7.34
6.37
5.70
6.01
7.89
11.46
16.30
21.55
26.33
30.08
32.77
34.68
36.14
37.18
37.56
36.96
35.28
32.82
30.22
28.20
27.23
27.46
28.67
30.43
32.20
33.46
33.76
32.80
30.59
27.45
23.98
20.81
18.38
16.76
15.72
14.94
14.17
13.38
12.67
12.08
11.51
10.69
9.39
7.55
5.34
3.05
0.90
-1.06
-2.94
-4.82
-6.67
-8.28
-9.39
-9.88
-9.85
-9.50
-9.06
-8.56
-7.90
-6.94
-5.67
-4.34
-3.34
-3.06
-3.64
-4.97
-6.69
-8.43
-9.95
-11.18
-12.22
-13.21
-14.25
-15.32
-16.33
-17.17
-17.72
-17.93
-17.84
-17.56
-17.23
-16.97
-16.85
-16.86
-16.96
-17.09
-17.19
-17.25
-17.27
-17.26
-17.30
-17.49
-17.92
-18.63
-19.64
-20.87
-22.25
-23.66
-25.01
-26.20
-27.12
-27.72
-27.95
-27.84
-27.49
-27.04
-26.62
-26.29
-26.06
-25.87
-25.71
-25.54
-25.36
-25.09
-24.58
-23.53
-21.62
-18.46
-13.73
-7.24
1.01
10.70
21.15
31.33
40.09
46.38
49.56
49.53
46.63
41.43
34.46
26.09
16.58
6.22
-4.50
-14.94
-24.43
-32.42
-38.58
-42.77
-44.99
-45.34
-44.07
-41.67
-38.81
-36.29
-34.76
-34.52
-35.45
-37.06
-38.73
-39.96
-40.51
-40.44
-39.99
-39.43
-38.98
-38.76
-38.84
-39.20
-39.82
-40.59
-41.32
-41.74
-41.53
-40.43
-38.32
-35.29
-31.59
-27.62
-23.75
-20.26
-17.22
-14.54
-12.09
-9.76
-7.57
-5.67
-4.25
-3.42
-3.19
-3.43
-3.90
-4.39
-4.76
-4.94
-4.95
-4.81
-4.55
-4.19
-3.74
-3.23
-2.72
-2.24
-1.79
-1.37
-0.93
-0.42
0.19
0.87
1.57
2.16
2.57
2.79
2.89
2.96
3.12
3.38
3.68
3.93
4.06
4.09
4.15
4.43
5.08
6.25
7.96
10.14
12.67
15.31
17.80
19.82
21.09
21.40
20.74
19.28
17.38
15.47
13.92
12.92
12.44
12.23
12.01
11.55
10.80
9.92
9.13
8.63
8.46
8.52
8.56
8.38
7.81
6.84
5.60
4.28
3.08
2.21
1.77
1.73
1.96
2.22
2.25
1.90
1.15
0.19
-0.60
-0.77
0.12
2.30
5.67
9.71
13.55
16.17
16.78
15.09
11.42
6.65
1.83
-2.14
-4.85
-6.36
-7.08
-7.42
-7.65
-7.80
-7.81
-7.63
-7.34
-7.08
-7.04
-7.24
-7.59
-7.89
-7.90
-7.51
-6.73
-5.72
-4.68
-3.79
-3.04
-2.31
-1.40
-0.15
1.40
3.06
4.48
5.32
5.35
4.56
3.06
1.06
-1.15
-3.23
-4.85
-5.67
-5.49
-4.31
-2.40
-0.20
1.82
3.32
4.13
4.28
3.86
3.04
2.01
0.98
0.15
-0.29
-0.28
0.10
0.62
1.00
1.02
0.65
0.07
-0.38
-0.30
0.62
2.52
5.25
8.35
11.06
12.45
11.76
8.68
3.60
-2.36
-7.76
-11.28
-12.27
-10.92
-8.11
-4.94
-2.29
-0.52
0.46
0.97
1.25
1.39
1.36
1.17
0.92
0.79
0.90
1.27
1.81
2.37
2.91
3.48
4.22
5.23
6.47
7.78
8.85
9.40
9.27
8.47
7.17
5.65
4.15
2.87
1.92
1.34
1.05
0.90
0.70
0.26
-0.50
-1.48
-2.44
-3.07
-3.12
-2.51
-1.31
0.25
1.93
3.50
4.76
5.55
5.77
5.42
4.66
3.74
2.96
2.52
2.45
2.70
3.17
3.84
4.75
5.96
7.40
8.87
10.08
10.78
10.83
10.29
9.32
8.12
6.82
5.48
4.12
2.81
1.67
0.85
0.49
0.60
1.12
1.87
2.67
3.38
4.02
4.75
5.81
7.38
9.51
11.97
14.29
15.90
16.36
15.50
13.55
10.97
8.34
6.13
4.57
3.73
3.48
3.67
4.10
4.58
4.93
4.95
4.50
3.54
2.12
0.44
-1.26
-2.73
-3.78
-4.38
-4.61
-4.64
-4.60
-4.51
-4.31
-3.89
-3.19
-2.23
-1.06
0.31
1.93
3.84
5.98
8.04
9.61
10.34
10.15
9.29
8.28
7.55
7.31
7.38
7.38
6.97
6.01
4.65
3.20
1.94
0.99
0.31
-0.21
-0.70
-1.17
-1.58
-1.87
-2.01
-1.96
-1.68
-1.14
-0.25
0.98
2.43
3.90
5.11
5.88
6.17
6.11
5.87
5.60
5.36
5.10
4.78
4.40
3.98
3.59
3.23
2.84
2.39
1.86
1.34
0.88
0.54
0.24
-0.14
-0.73
-1.54
-2.43
-3.17
-3.57
-3.57
-3.34
-3.11
-3.07
-3.19
-3.16
-2.52
-0.87
1.92
5.68
9.94
14.11
17.62
19.94
20.71
19.71
17.06
13.19
8.89
5.01
2.19
0.69
0.27
0.47
0.80
0.93
0.74
0.20
-0.74
-2.15
-4.02
-6.22
-8.44
-10.27
-11.37
-11.55
-10.89
-9.65
-8.19
-6.83
-5.72
-4.78
-3.76
-2.34
-0.32
2.26
4.97
7.18
8.20
7.58
5.29
1.81
-2.01
-5.23
-7.13
-7.46
-6.47
-4.78
-3.10
-1.94
-1.46
-1.55
-1.95
-2.49
-3.18
-4.08
-5.22
-6.51
-7.71
-8.54
-8.86
-8.68
-8.20
-7.67
-7.25
-6.98
-6.74
-6.29
-5.38
-3.85
-1.73
0.72
3.01
4.65
5.29
4.88
3.70
2.17
0.70
-0.47
-1.24
-1.67
-1.80
-1.71
-1.50
-1.31
-1.34
-1.76
-2.63
-3.81
-5.06
-6.02
-6.40
-6.03
-4.96
-3.41
-1.74
-0.29
0.73
1.30
1.57
1.76
2.05
2.53
3.20
4.03
4.94
5.77
6.29
6.24
5.46
4.06
2.42
1.08
0.52
0.91
2.02
3.35
4.37
4.72
4.36
3.47
2.36
1.24
0.19
-0.77
-1.70
-2.58
-3.36
-4.01
-4.53
-4.95
-5.35
-5.80
-6.27
-6.67
-6.79
-6.38
-5.20
-3.23
-0.65
2.04
4.27
5.59
5.87
5.35
4.49
3.72
3.18
2.83
2.47
2.03
1.58
1.26
1.19
1.29
1.36
1.15
0.55
-0.41
-1.53
-2.59
-3.36
-3.74
-3.70
-3.31
-2.74
-2.17
-1.71
-1.41
-1.16
-0.78
-0.14
0.80
1.93
3.06
3.99
4.61
4.89
4.86
4.54
3.92
3.02
1.93
0.85
-0.02
-0.49
-0.46
0.00
0.75
1.58
2.31
2.82
3.03
2.95
2.64
2.20
1.81
1.62
1.73
2.17
2.85
3.59
4.25
4.70
4.93
5.06
5.41
6.36
8.21
11.01
14.29
17.17
18.53
17.52
13.96
8.53
2.55
-2.55
-5.85
-7.19
-7.14
-6.60
-6.25
-6.37
-6.77
-7.12
-7.25
-7.24
-7.38
-7.92
-8.88
-9.98
-10.80
-10.93
-10.22
-8.76
-6.79
-4.55
-2.10
0.58
3.48
6.47
9.13
10.96
11.55
10.78
8.89
6.36
3.67
1.11
-1.22
-3.40
-5.44
-7.29
-8.82
-9.93
-10.62
-10.97
-11.12
-11.16
-11.03
-10.58
-9.68
-8.31
-6.60
-4.88
-3.49
-2.70
-2.60
-3.04
-3.68
-4.10
-3.99
-3.18
-1.72
0.23
2.48
4.90
7.35
9.56
11.19
11.84
11.34
9.86
7.88
6.02
4.69
3.86
3.13
2.03
0.26
-2.03
-4.43
-6.45
-7.83
-8.62
-9.12
-9.63
-10.31
-11.13
-11.92
-12.47
-12.66
-12.44
-11.85
-10.93
-9.74
-8.33
-6.76
-5.10
-3.44
-1.86
-0.38
1.01
2.39
3.81
5.25
6.63
7.80
8.63
9.02
8.93
8.41
7.51
6.32
4.94
3.48
2.08
0.87
0.01
-0.35
-0.10
0.76
2.13
3.77
5.35
6.58
7.29
7.55
7.65
7.97
8.86
10.51
12.90
15.72
18.43
20.34
20.75
19.23
15.82
11.02
5.72
0.78
-3.20
-6.12
-8.25
-10.05
-11.84
-13.75
-15.73
-17.66
-19.51
-21.25
-22.77
-23.86
-24.19
-23.54
-21.92
-19.55
-16.85
-14.13
-11.53
-8.98
-6.27
-3.23
0.15
3.68
7.05
9.94
12.13
13.52
14.23
14.47
14.50
14.52
14.60
14.63
14.40
13.73
12.63
11.27
9.90
8.70
7.69
6.72
5.59
4.25
2.81
1.54
0.74
0.58
1.06
1.99
3.10
4.17
5.06
5.82
6.66
7.87
9.71
12.34
15.75
19.77
23.98
27.74
30.23
30.67
28.52
23.81
17.23
9.94
3.16
-2.28
-6.13
-8.64
-10.26
-11.26
-11.65
-11.30
-10.22
-8.75
-7.53
-7.24
-8.30
-10.64
-13.76
-16.87
-19.22
-20.28
-19.89
-18.13
-15.26
-11.60
-7.46
-3.14
1.00
4.56
7.10
8.29
8.04
6.51
4.15
1.52
-0.84
-2.52
-3.43
-3.67
-3.62
-3.69
-4.24
-5.45
-7.24
-9.35
-11.43
-13.17
-14.42
-15.12
-15.35
-15.19
-14.72
-14.01
-13.09
-12.01
-10.84
-9.67
-8.52
-7.38
-6.19
-4.81
-3.11
-0.93
1.77
4.97
8.49
12.01
15.15
17.53
18.87
19.09
18.26
16.61
14.44
12.09
9.89
8.10
6.89
6.26
6.05
5.95
5.60
4.77
3.43
1.79
0.20
-1.00
-1.62
-1.62
-1.11
-0.21
1.02
2.54
4.28
6.17
8.12
10.04
11.96
13.94
15.96
17.80
19.03
19.12
17.72
14.90
11.24
7.59
4.69
2.82
1.64
0.47
-1.27
-3.71
-6.44
-8.83
-10.41
-11.21
-11.70
-12.49
-13.95
-15.97
-18.10
-19.81
-20.78
-21.05
-20.86
-20.47
-19.90
-18.99
-17.44
-15.02
-11.71
-7.69
-3.33
0.93
4.67
7.55
9.44
10.39
10.67
10.60
10.40
10.10
9.51
8.41
6.73
4.65
2.59
0.99
0.06
-0.30
-0.47
-0.91
-1.91
-3.46
-5.31
-7.09
-8.48
-9.37
-9.80
-9.90
-9.79
-9.49
-8.91
-7.95
-6.51
-4.62
-2.39
0.09
2.74
5.48
8.10
10.24
11.43
11.26
9.62
6.80
3.43
0.23
-2.32
-4.08
-5.29
-6.26
-7.22
-8.14
-8.81
-9.04
-8.74
-8.01
-7.06
-6.07
-5.16
-4.31
-3.47
-2.60
-1.65
-0.64
0.49
1.81
3.47
5.59
8.27
11.38
14.52
17.03
18.16
17.35
14.50
10.14
5.25
0.92
-2.03
-3.36
-3.37
-2.70
-2.01
-1.75
-2.08
-2.96
-4.27
-5.87
-7.65
-9.51
-11.30
-12.86
-14.00
-14.60
-14.59
-14.05
-13.11
-11.94
-10.62
-9.09
-7.20
-4.78
-1.80
1.50
4.64
7.09
8.45
8.65
8.02
7.15
6.65
6.86
7.68
8.60
8.96
8.23
6.32
3.56
0.59
-1.98
-3.82
-4.95
-5.65
-6.22
-6.78
-7.25
-7.46
-7.28
-6.78
-6.20
-5.78
-5.65
-5.69
-5.59
-5.01
-3.80
-2.02
0.12
2.39
4.71
7.08
9.45
11.59
13.12
13.72
13.33
12.21
10.86
9.69
8.85
8.18
7.36
6.21
4.83
3.54
2.69
2.42
2.56
2.74
2.55
1.77
0.43
-1.19
-2.68
-3.62
-3.72
-2.89
-1.21
1.05
3.47
5.60
7.06
7.57
7.17
6.18
5.14
4.63
5.03
6.29
7.91
9.16
9.40
8.42
6.48
4.24
2.40
1.37
1.12
1.26
1.29
0.92
0.16
-0.69
-1.26
-1.29
-0.83
-0.17
0.29
0.24
-0.38
-1.35
-2.21
-2.45
-1.64
0.47
3.83
8.07
12.42
15.78
17.06
15.50
11.15
4.89
-1.82
-7.49
-11.16
-12.69
-12.66
-11.93
-11.20
-10.74
-10.47
-10.17
-9.73
-9.21
-8.73
-8.40
-8.16
-7.85
-7.27
-6.26
-4.78
-2.89
-0.66
1.82
4.53
7.34
9.98
11.99
12.86
12.22
10.09
6.91
3.38
0.17
-2.33
-4.12
-5.44
-6.57
-7.68
-8.75
-9.64
-10.26
-10.58
-10.65
-10.51
-10.21
-9.72
-9.05
-8.23
-7.28
-6.29
-5.38
-4.67
-4.23
-4.06
-4.01
-3.82
-3.16
-1.72
0.67
3.97
7.97
12.31
16.46
19.82
21.79
21.93
20.15
16.82
12.67
8.55
5.13
2.64
0.90
-0.51
-1.99
-3.67
-5.46
-7.16
-8.71
-10.17
-11.71
-13.37
-14.97
-16.13
-16.46
-15.75
-14.10
-11.88
-9.57
-7.47
-5.66
-3.95
-2.02
0.35
3.19
6.35
9.48
12.07
13.58
13.48
11.51
7.88
3.28
-1.20
-4.49
-5.95
-5.69
-4.47
-3.32
-3.08
-4.06
-5.99
-8.24
-10.18
-11.33
-11.55
-10.92
-9.63
-7.89
-5.83
-3.46
-0.72
2.48
6.13
10.13
14.29
18.39
22.22
25.60
28.29
29.89
29.94
28.13
24.51
19.68
14.55
10.01
6.51
3.93
1.77
-0.49
-3.07
-5.81
-8.34
-10.38
-11.96
-13.31
-14.66
-16.01
-17.09
-17.51
-17.01
-15.61
-13.58
-11.26
-8.88
-6.46
-3.89
-1.01
2.26
5.83
9.52
13.08
16.16
18.29
18.87
17.41
13.74
8.32
2.14
-3.52
-7.66
-9.94
-10.79
-11.10
-11.68
-12.85
-14.35
-15.59
-16.06
-15.63
-14.55
-13.26
-12.18
-11.47
-11.11
-10.95
-10.80
-10.46
-9.79
-8.62
-6.82
-4.24
-0.85
3.29
7.85
12.26
15.74
17.54
17.23
14.92
11.29
7.38
4.13
1.99
0.77
-0.13
-1.32
-2.96
-4.74
-6.02
-6.34
-5.73
-4.76
-4.22
-4.70
-6.29
-8.52
-10.67
-12.19
-12.88
-12.97
-12.82
-12.67
-12.51
-12.08
-11.04
-9.19
-6.51
-3.25
0.26
3.62
6.43
8.37
9.18
8.78
7.22
4.77
1.82
-1.17
-3.86
-6.04
-7.73
-9.00
-9.92
-10.40
-10.25
-9.31
-7.59
-5.37
-3.18
-1.51
-0.65
-0.50
-0.64
-0.57
0.01
1.14
2.50
3.78
4.73
5.40
6.04
6.99
8.48
10.52
12.88
15.10
16.64
16.99
15.80
13.00
8.84
3.85
-1.25
-5.76
-9.14
-11.17
-11.98
-11.92
-11.37
-10.62
-9.79
-8.89
-7.93
-7.00
-6.28
-5.92
-5.96
-6.27
-6.57
-6.55
-6.01
-4.90
-3.28
-1.30
0.97
3.47
6.25
9.32
12.65
16.07
19.26
21.80
23.34
23.71
23.10
21.99
20.91
20.20
19.78
19.16
17.70
15.03
11.18
6.69
2.29
-1.45
-4.34
-6.57
-8.54
-10.55
-12.65
-14.64
-16.23
-17.24
-17.65
-17.63
-17.41
-17.12
-16.74
-16.12
-15.08
-13.49
-11.35
-8.82
-6.08
-3.27
-0.44
2.42
5.21
7.73
9.63
10.59
10.48
9.43
7.79
5.92
4.05
2.18
0.23
-1.81
-3.81
-5.50
-6.62
-7.11
-7.09
-6.84
-6.61
-6.55
-6.64
-6.79
-6.87
-6.69
-6.14
-5.12
-3.61
-1.74
0.28
2.24
4.01
5.60
7.12
8.68
10.31
11.94
13.49
14.87
16.03
16.88
17.22
16.81
15.47
13.22
10.36
7.44
5.02
3.47
2.79
2.69
2.70
2.44
1.76
0.74
-0.35
-1.24
-1.80
-2.04
-2.16
-2.39
-2.84
-3.53
-4.30
-4.90
-5.07
-4.59
-3.28
-1.11
1.82
5.10
8.09
10.04
10.38
8.93
6.06
2.54
-0.78
-3.26
-4.69
-5.31
-5.57
-5.91
-6.59
-7.56
-8.58
-9.41
-9.87
-9.95
-9.72
-9.30
-8.74
-7.97
-6.90
-5.49
-3.79
-1.99
-0.26
1.26
2.60
3.83
5.04
6.28
7.52
8.69
9.77
10.78
11.73
12.54
13.02
12.89
11.95
10.14
7.69
5.01
2.61
0.88
-0.04
-0.29
-0.17
-0.02
-0.05
-0.26
-0.52
-0.65
-0.53
-0.19
0.22
0.52
0.61
0.49
0.31
0.28
0.63
1.48
2.84
4.60
6.62
8.70
10.65
12.22
13.13
13.21
12.45
11.06
9.44
7.98
6.89
6.16
5.63
5.13
4.69
4.42
4.47
4.78
5.12
5.17
4.73
3.90
3.07
2.73
3.23
4.61
6.63
8.80
10.66
11.95
12.71
13.17
13.64
14.31
15.19
16.10
16.78
16.96
16.44
15.15
13.14
10.66
8.09
5.84
4.26
3.44
3.16
3.00
2.54
1.61
0.33
-0.97
-1.95
-2.47
-2.66
-2.84
-3.28
-4.13
-5.33
-6.67
-7.93
-8.90
-9.47
-9.55
-9.08
-8.01
-6.31
-4.01
-1.29
1.43
3.57
4.46
3.60
0.94
-3.07
-7.66
-12.02
-15.71
-18.77
-21.57
-24.49
-27.64
-30.77
-33.46
-35.36
-36.38
-36.68
-36.46
-35.75
-34.48
-32.49
-29.76
-26.44
-22.84
-19.26
-15.88
-12.73
-9.78
-7.02
-4.50
-2.32
-0.56
0.77
1.79
2.63
3.37
4.00
4.44
4.66
4.75
4.95
5.48
6.37
7.39
8.18
8.41
8.07
7.44
7.00
7.13
7.86
8.88
9.70
9.92
9.44
8.44
7.23
6.21
5.68
5.88
6.92
8.76
11.16
13.73
16.05
17.84
19.05
19.80
20.25
20.51
20.66
20.81
21.12
21.66
22.10
21.76
19.75
15.53
9.28
2.03
-4.74
-9.82
-12.71
-13.84
-14.09
-14.33
-14.91
-15.63
-16.08
-15.93
-15.19
-14.12
-13.00
-11.95
-10.78
-9.18
-6.82
-3.60
0.30
4.40
8.18
11.17
13.05
13.72
13.21
11.71
9.45
6.77
4.02
1.45
-0.90
-3.19
-5.64
-8.29
-10.91
-13.03
-14.22
-14.35
-13.66
-12.70
-11.96
-11.63
-11.52
-11.25
-10.50
-9.17
-7.45
-5.66
-4.02
-2.58
-1.21
0.27
1.99
3.98
6.20
8.58
11.00
13.25
14.90
15.38
14.09
10.74
5.55
-0.64
-6.69
-11.50
-14.50
-15.74
-15.83
-15.52
-15.35
-15.50
-15.85
-16.15
-16.29
-16.25
-16.13
-15.93
-15.58
-14.88
-13.68
-11.90
-9.65
-7.16
-4.66
-2.32
-0.15
1.94
4.09
6.32
8.44
10.09
10.82
10.33
8.60
5.96
2.96
0.19
-1.90
-3.16
-3.72
-3.86
-3.85
-3.83
-3.87
-3.93
-4.06
-4.33
-4.83
-5.59
-6.51
-7.40
-8.05
-8.33
-8.21
-7.79
-7.22
-6.61
-6.02
-5.43
-4.75
-3.90
-2.82
-1.47
0.13
1.92
3.80
5.68
7.36
8.65
9.35
9.36
8.76
7.77
6.67
5.68
4.83
3.95
2.78
1.16
-0.84
-2.94
-4.72
-5.88
-6.30
-6.12
-5.61
-5.04
-4.55
-4.12
-3.64
-2.98
-2.05
-0.86
0.50
1.91
3.30
4.62
5.88
7.12
8.33
9.43
10.31
10.87
11.09
11.11
11.09
11.17
11.30
11.28
10.83
9.78
8.23
6.52
5.07
4.25
4.14
4.59
5.23
5.70
5.80
5.48
4.86
4.06
3.21
2.34
1.52
0.80
0.31
0.17
0.44
1.03
1.79
2.56
3.31
4.08
4.91
5.71
6.29
6.43
6.04
5.23
4.19
3.09
1.88
0.35
-1.70
-4.24
-6.92
-9.21
-10.64
-11.04
-10.62
-9.81
-9.05
-8.59
-8.42
-8.36
-8.14
-7.59
-6.63
-5.31
-3.74
-2.02
-0.26
1.47
3.11
4.60
5.87
6.90
7.73
8.43
9.08
9.64
9.94
9.68
8.55
6.39
3.40
0.09
-2.83
-4.73
-5.32
-4.79
-3.69
-2.71
-2.30
-2.58
-3.28
-3.98
-4.31
-4.15
-3.64
-3.10
-2.82
-2.91
-3.22
-3.42
-3.12
-2.03
-0.12
2.43
5.27
7.99
10.21
11.60
11.90
11.04
9.14
6.61
4.04
1.97
0.67
-0.00
-0.45
-1.09
-2.12
-3.39
-4.53
-5.26
-5.54
-5.56
-5.62
-5.88
-6.22
-6.39
-6.11
-5.28
-4.01
-2.58
-1.24
-0.13
0.77
1.57
2.38
3.20
3.94
4.36
4.24
3.42
1.94
0.04
-1.87
-3.35
-4.08
-4.00
-3.31
-2.42
-1.72
-1.48
-1.68
-2.05
-2.19
-1.75
-0.57
1.25
3.37
5.43
7.11
8.23
8.78
8.87
8.64
8.26
7.87
7.63
7.64
8.00
8.79
10.03
11.61
13.22
14.32
14.31
12.74
9.59
5.30
0.60
-3.86
-7.73
-11.07
-14.16
-17.18
-20.03
-22.34
-23.71
-23.93
-23.15
-21.72
-20.04
-18.35
-16.69
-14.99
-13.12
-11.07
-8.91
-6.76
-4.75
-2.94
-1.31
0.18
1.60
2.98
4.32
5.60
6.75
7.66
8.17
8.22
7.84
7.27
6.81
6.75
7.10
7.61
7.83
7.43
6.36
5.00
3.92
3.66
4.39
5.91
7.72
9.34
10.47
11.15
11.65
12.30
13.33
14.76
16.43
18.08
19.48
20.56
21.39
22.00
22.20
21.50
19.39
15.60
10.45
4.77
-0.52
-4.90
-8.53
-12.10
-16.32
-21.28
-26.38
-30.55
-32.91
-33.29
-32.27
-30.78
-29.57
-28.77
-27.97
-26.60
-24.32
-21.23
-17.79
-14.50
-11.65
-9.20
-6.88
-4.41
-1.69
1.15
3.81
5.96
7.50
8.49
9.17
9.78
10.47
11.22
11.88
12.32
12.44
12.27
11.91
11.53
11.32
11.49
12.21
13.50
15.20
16.88
18.00
18.18
17.35
15.87
14.33
13.29
12.98
13.31
13.91
14.44
14.70
14.72
14.62
14.49
14.33
14.02
13.37
12.11
9.96
6.68
2.25
-3.01
-8.42
-13.18
-16.65
-18.62
-19.34
-19.35
-19.15
-18.93
-18.60
-17.95
-16.88
-15.55
-14.28
-13.37
-12.89
-12.63
-12.25
-11.40
-9.89
-7.74
-5.10
-2.16
0.90
4.00
7.14
10.34
13.60
16.76
19.49
21.31
21.68
20.20
16.81
11.83
5.88
-0.31
-6.14
-11.21
-15.31
-18.38
-20.35
-21.16
-20.85
-19.63
-17.93
-16.31
-15.27
-15.09
-15.67
-16.64
-17.49
-17.78
-17.27
-15.99
-14.14
-11.97
-9.69
-7.42
-5.20
-2.99
-0.75
1.62
4.15
6.85
9.63
12.28
14.45
15.72
15.75
14.43
11.96
8.85
5.75
3.16
1.28
-0.06
-1.29
-2.80
-4.72
-6.85
-8.76
-10.05
-10.52
-10.25
-9.54
-8.70
-7.96
-7.36
-6.81
-6.17
-5.31
-4.14
-2.67
-0.93
0.93
2.79
4.50
5.99
7.21
8.20
8.99
9.63
10.15
10.57
10.85
10.89
10.53
9.56
7.88
5.56
2.91
0.39
-1.55
-2.63
-2.86
-2.55
-2.11
-1.88
-2.00
-2.37
-2.78
-3.01
-3.02
-2.88
-2.76
-2.80
-2.95
-3.02
-2.74
-1.92
-0.51
1.38
3.55
5.77
7.79
9.32
10.07
9.84
8.64
6.83
4.95
3.58
2.94
2.81
2.66
1.98
0.65
-0.97
-2.19
-2.38
-1.34
0.62
2.84
4.64
5.66
5.94
5.85
5.87
6.35
7.47
9.20
11.38
13.79
16.22
18.33
19.71
19.91
18.59
15.77
11.87
7.60
3.68
0.50
-2.00
-4.24
-6.71
-9.66
-12.97
-16.26
-19.08
-21.14
-22.32
-22.68
-22.33
-21.38
-19.99
-18.36
-16.69
-15.09
-13.57
-12.08
-10.56
-9.04
-7.62
-6.40
-5.42
-4.54
-3.61
-2.46
-1.02
0.74
2.83
5.28
8.04
10.88
13.35
14.83
14.85
13.26
10.44
7.13
4.14
2.06
0.98
0.61
0.53
0.42
0.29
0.34
0.81
1.79
3.11
4.53
5.81
6.88
7.82
8.77
9.80
10.91
12.05
13.18
14.32
15.54
16.90
18.43
20.06
21.55
22.45
22.13
20.03
15.84
9.75
2.54
-4.66
-10.64
-14.60
-16.28
-15.92
-14.12
-11.51
-8.61
-5.75
-3.20
-1.15
0.21
0.78
0.61
-0.01
-0.64
-0.69
0.27
2.46
5.69
9.48
13.24
16.56
19.30
21.65
23.97
26.58
29.59
32.80
35.71
37.59
37.65
35.29
30.21
22.54
12.84
1.96
-9.09
-19.40
-28.20
-35.00
-39.65
-42.34
-43.55
-43.95
-44.20
-44.72
-45.57
-46.47
-47.01
-46.76
-45.52
-43.28
-40.20
-36.55
-32.61
-28.70
-25.14
-22.26
-20.27
-19.18
-18.74
-18.49
-17.97
-16.91
-15.38
-13.74
-12.34
-11.35
-10.59
-9.64
-8.12
-5.93
-3.35
-0.85
1.14
2.49
3.45
4.44
5.86
7.79
10.01
12.12
13.70
14.55
14.71
14.46
14.16
14.11
14.42
15.00
15.61
16.05
16.25
16.25
16.14
15.91
15.37
14.34
12.83
11.12
9.70
8.85
8.45
7.90
6.46
3.70
-0.13
-4.14
-7.30
-8.92
-9.03
-8.29
-7.50
-7.16
-7.24
-7.30
-6.88
-5.87
-4.54
-3.43
-2.97
-3.19
-3.74
-4.02
-3.52
-2.08
0.08
2.47
4.58
6.03
6.69
6.57
5.80
4.57
3.18
2.03
1.50
1.77
2.72
3.93
4.84
5.10
4.75
4.17
3.89
4.24
5.20
6.42
7.46
8.08
8.35
8.57
9.07
9.95
11.08
12.24
13.25
14.15
15.15
16.47
18.19
20.14
21.92
23.05
23.08
21.74
19.02
15.31
11.32
7.91
5.72
4.85
4.69
4.27
2.73
-0.17
-3.84
-7.24
-9.43
-10.15
-9.91
-9.66
-10.22
-11.82
-14.04
-16.06
-17.18
-17.15
-16.20
-14.86
-13.61
-12.62
-11.71
-10.50
-8.59
-5.82
-2.40
1.12
4.05
5.76
5.90
4.51
1.99
-0.98
-3.65
-5.47
-6.22
-6.09
-5.58
-5.30
-5.68
-6.82
-8.45
-10.09
-11.32
-11.92
-11.96
-11.64
-11.15
-10.53
-9.68
-8.50
-7.03
-5.50
-4.24
-3.46
-3.14
-2.94
-2.35
-0.92
1.60
5.03
8.92
12.58
15.36
16.74
16.51
14.79
11.92
8.47
5.03
2.14
0.13
-0.89
-1.11
-0.92
-0.83
-1.23
-2.29
-3.89
-5.66
-7.20
-8.21
-8.63
-8.59
-8.36
-8.11
-7.93
-7.72
-7.32
-6.59
-5.50
-4.12
-2.60
-1.10
0.25
1.42
2.39
3.14
3.68
4.01
4.20
4.38
4.69
5.19
5.78
6.23
6.26
5.72
4.66
3.38
2.22
1.45
1.10
1.00
0.87
0.47
-0.27
-1.33
-2.59
-3.92
-5.24
-6.48
-7.60
-8.52
-9.15
-9.42
-9.31
-8.84
-8.09
-7.18
-6.12
-4.90
-3.43
-1.74
0.03
1.52
2.41
2.50
1.92
1.05
0.31
-0.08
-0.24
-0.49
-1.16
-2.31
-3.67
-4.80
-5.36
-5.33
-4.99
-4.73
-4.76
-5.03
-5.24
-5.04
-4.26
-2.97
-1.45
0.00
1.18
2.07
2.80
3.50
4.23
4.91
5.40
5.66
5.75
5.88
6.25
6.95
7.86
8.64
8.91
8.42
7.20
5.52
3.85
2.56
1.84
1.64
1.70
1.79
1.72
1.47
1.09
0.73
0.46
0.36
0.47
0.81
1.39
2.12
2.84
3.37
3.55
3.36
2.93
2.51
2.35
2.64
3.41
4.58
5.98
7.35
8.37
8.70
8.09
6.48
4.16
1.68
-0.35
-1.49
-1.71
-1.38
-1.04
-1.12
-1.71
-2.55
-3.22
-3.36
-2.91
-2.10
-1.31
-0.86
-0.87
-1.17
-1.44
-1.37
-0.78
0.26
1.51
2.70
3.68
4.47
5.23
6.10
7.15
8.29
9.38
10.26
10.84
11.07
10.96
10.50
9.64
8.37
6.77
5.03
3.44
2.28
1.72
1.72
2.04
2.39
2.45
2.07
1.21
0.00
-1.36
-2.67
-3.77
-4.61
-5.21
-5.72
-6.26
-6.88
-7.49
-7.87
-7.75
-7.05
-5.83
-4.39
-3.05
-2.03
-1.33
-0.78
-0.12
0.83
2.10
3.63
5.26
6.79
8.00
8.64
8.51
7.55
5.89
3.92
2.08
0.72
-0.11
-0.64
-1.29
-2.32
-3.75
-5.26
-6.43
-6.91
-6.63
-5.82
-4.81
-3.90
-3.19
-2.61
-1.97
-1.08
0.13
1.64
3.34
5.16
6.96
8.61
9.95
10.80
11.04
10.67
9.84
8.82
7.92
7.38
7.28
7.49
7.72
7.68
7.23
6.47
5.74
5.36
5.47
5.90
6.24
6.02
4.99
3.31
1.44
-0.02
-0.66
-0.40
0.51
1.67
2.70
3.39
3.77
3.96
4.18
4.59
5.34
6.57
8.44
11.07
14.36
17.91
20.96
22.61
22.12
19.31
14.61
8.93
3.23
-1.82
-6.08
-9.77
-13.15
-16.28
-18.96
-20.92
-22.10
-22.80
-23.51
-24.67
-26.36
-28.23
-29.66
-30.10
-29.34
-27.56
-25.23
-22.89
-20.82
-19.03
-17.22
-15.03
-12.22
-8.92
-5.55
-2.73
-0.94
-0.36
-0.76
-1.69
-2.74
-3.74
-4.78
-6.05
-7.59
-9.15
-10.23
-10.38
-9.38
-7.44
-5.11
-3.04
-1.70
-1.23
-1.41
-1.84
-2.16
-2.16
-1.91
-1.57
-1.33
-1.21
-1.12
-0.85
-0.26
0.67
1.85
3.13
4.39
5.54
6.45
6.90
6.66
5.55
3.58
1.06
-1.61
-4.02
-6.01
-7.63
-9.10
-10.56
-11.92
-12.94
-13.25
-12.66
-11.18
-9.05
-6.61
-4.15
-1.89
0.07
1.72
3.14
4.45
5.75
7.14
8.60
10.05
11.35
12.44
13.29
13.98
14.62
15.30
16.09
17.05
18.24
19.65
21.15
22.50
23.40
23.61
23.09
22.03
20.74
19.56
18.71
18.24
17.99
17.63
16.78
15.06
12.31
8.60
4.32
0.04
-3.68
-6.51
-8.44
-9.81
-11.07
-12.64
-14.68
-17.07
-19.51
-21.59
-23.00
-23.54
-23.19
-22.10
-20.47
-18.56
-16.54
-14.53
-12.56
-10.67
-8.86
-7.17
-5.60
-4.12
-2.72
-1.43
-0.40
0.14
0.02
-0.78
-2.00
-3.15
-3.70
-3.38
-2.33
-1.06
-0.23
-0.32
-1.44
-3.33
-5.60
-7.90
-10.12
-12.26
-14.32
-16.17
-17.50
-17.98
-17.40
-15.81
-13.49
-10.86
-8.31
-6.13
-4.47
-3.33
-2.61
-2.16
-1.79
-1.37
-0.86
-0.27
0.27
0.68
0.90
0.99
1.06
1.27
1.68
2.32
3.06
3.75
4.24
4.45
4.41
4.24
4.07
3.98
3.99
4.04
4.06
4.02
3.98
4.02
4.27
4.74
5.39
6.06
6.58
6.85
6.84
6.60
6.20
5.74
5.26
4.79
4.38
4.03
3.81
3.70
3.70
3.72
3.67
3.51
3.20
2.84
2.52
2.32
2.25
2.23
2.13
1.85
1.37
0.78
0.23
-0.14
-0.28
-0.18
0.09
0.48
0.95
1.44
1.90
2.23
2.35
2.21
1.85
1.42
1.03
0.82
0.82
0.99
1.21
1.35
1.30
1.02
0.56
0.04
-0.43
-0.83
-1.19
-1.60
-2.11
-2.71
-3.26
-3.63
-3.72
-3.51
-3.09
-2.58
-2.07
-1.61
-1.19
-0.83
-0.50
-0.21
0.09
0.40
0.73
1.06
1.33
1.48
1.43
1.18
0.76
0.23
-0.31
-0.77
-1.12
-1.31
-1.35
-1.26
-1.08
-0.85
-0.63
-0.47
-0.41
-0.47
-0.61
-0.78
-0.94
-1.03
-1.01
-0.88
-0.66
-0.36
0.01
0.45
0.97
1.54
2.11
2.58
2.88
2.97
2.90
2.78
2.72
2.75
2.83
2.85
2.72
2.42
2.01
1.61
1.28
1.07
0.93
0.82
0.71
0.58
0.42
0.21
-0.09
-0.49
-0.93
-1.35
-1.62
-1.66
-1.38
-0.81
0.03
1.01
1.97
2.78
3.30
3.50
3.44
3.22
2.94
2.65
2.40
2.18
2.00
1.86
1.72
1.57
1.36
1.09
0.80
0.56
0.46
0.51
0.68
0.85
0.91
0.77
0.41
-0.15
-0.79
-1.36
-1.73
-1.81
-1.56
-1.05
-0.36
0.41
1.18
1.89
2.51
3.01
3.38
3.62
3.76
3.85
3.89
3.89
3.79
3.54
3.15
2.62
2.03
1.45
0.97
0.62
0.39
0.25
0.11
-0.10
-0.41
-0.79
-1.17
-1.45
-1.61
-1.66
-1.67
-1.71
-1.76
-1.78
-1.70
-1.50
-1.22
-0.92
-0.66
-0.44
-0.21
0.06
0.41
0.79
1.13
1.37
1.47
1.44
1.32
1.16
0.97
0.74
0.45
0.10
-0.28
-0.63
-0.90
-1.07
-1.20
-1.41
-1.80
-2.40
-3.14
-3.88
-4.43
-4.70
-4.66
-4.36
-3.88
-3.27
-2.56
-1.75
-0.86
0.06
0.90
1.57
2.02
2.24
2.30
2.25
2.15
2.06
1.99
1.96
1.98
2.04
2.11
2.12
2.00
1.70
1.26
0.72
0.21
-0.20
-0.44
-0.54
-0.60
-0.70
-0.94
-1.31
-1.76
-2.18
-2.45
-2.46
-2.18
-1.62
-0.85
0.04
0.93
1.69
2.23
2.51
2.55
2.42
2.23
2.07
1.97
1.93
1.86
1.70
1.38
0.90
0.33
-0.21
-0.60
-0.77
-0.77
-0.70
-0.69
-0.81
-1.08
-1.43
-1.78
-2.07
-2.30
-2.44
-2.47
-2.35
-2.01
-1.43
-0.64
0.25
1.08
1.69
2.02
2.06
1.92
1.70
1.50
1.32
1.11
0.77
0.26
-0.34
-0.86
-1.10
-0.94
-0.40
0.38
1.22
1.98
2.60
3.09
3.44
3.62
3.56
3.22
2.65
1.95
1.23
0.59
0.07
-0.33
-0.62
-0.79
-0.81
-0.66
-0.34
0.13
0.70
1.31
1.86
2.26
2.40
2.28
1.99
1.71
1.57
1.67
1.96
2.33
2.66
2.89
2.99
2.98
2.86
2.61
2.17
1.53
0.70
-0.18
-0.95
-1.44
-1.58
-1.37
-0.94
-0.45
0.02
0.45
0.96
1.67
2.65
3.81
4.95
5.76
6.03
5.65
4.69
3.35
1.86
0.41
-0.83
-1.80
-2.46
-2.84
-2.97
-2.94
-2.83
-2.71
-2.63
-2.60
-2.61
-2.65
-2.77
-3.02
-3.43
-3.94
-4.45
-4.78
-4.80
-4.44
-3.78
-2.94
-2.04
-1.11
-0.12
0.97
2.16
3.30
4.20
4.68
4.66
4.20
3.46
2.57
1.65
0.74
-0.11
-0.80
-1.22
-1.31
-1.09
-0.69
-0.27
0.03
0.15
0.15
0.08
-0.02
-0.19
-0.51
-1.02
-1.67
-2.31
-2.77
-2.85
-2.47
-1.65
-0.51
0.78
2.04
3.11
3.92
4.44
4.70
4.77
4.77
4.81
4.92
5.10
5.25
5.28
5.11
4.75
4.24
3.70
3.21
2.89
2.76
2.80
2.89
2.83
2.45
1.66
0.51
-0.83
-2.15
-3.24
-4.01
-4.41
-4.46
-4.17
-3.56
-2.66
-1.55
-0.39
0.64
1.37
1.73
1.71
1.46
1.16
0.99
1.01
1.13
1.19
0.99
0.49
-0.24
-0.99
-1.60
-1.99
-2.19
-2.31
-2.44
-2.56
-2.63
-2.58
-2.43
-2.23
-2.07
-2.03
-2.12
-2.35
-2.71
-3.20
-3.81
-4.47
-5.06
-5.43
-5.41
-4.93
-4.02
-2.80
-1.45
-0.15
0.97
1.83
2.43
2.79
2.96
2.96
2.82
2.56
2.18
1.72
1.18
0.63
0.09
-0.41
-0.84
-1.19
-1.48
-1.69
-1.82
-1.88
-1.85
-1.70
-1.43
-1.05
-0.62
-0.29
-0.23
-0.56
-1.33
-2.37
-3.45
-4.29
-4.66
-4.48
-3.81
-2.77
-1.53
-0.28
0.86
1.78
2.43
2.83
2.97
2.89
2.61
2.17
1.66
1.18
0.85
0.73
0.76
0.82
0.75
0.48
0.03
-0.45
-0.81
-0.95
-0.91
-0.81
-0.80
-0.95
-1.26
-1.64
-1.97
-2.15
-2.16
-1.99
-1.70
-1.33
-0.92
-0.48
0.02
0.60
1.27
1.99
2.64
3.14
3.38
3.41
3.33
3.30
3.45
3.76
4.13
4.37
4.36
4.07
3.58
3.05
2.60
2.24
1.96
1.68
1.35
0.94
0.45
-0.10
-0.70
-1.30
-1.85
-2.29
-2.52
-2.49
-2.21
-1.76
-1.27
-0.83
-0.49
-0.24
-0.01
0.26
0.60
0.96
1.31
1.59
1.76
1.84
1.86
1.81
1.72
1.57
1.39
1.19
1.00
0.79
0.59
0.41
0.25
0.14
0.07
-0.01
-0.14
-0.37
-0.73
-1.21
-1.80
-2.50
-3.26
-4.03
-4.68
-5.05
-5.01
-4.50
-3.55
-2.33
-1.05
0.09
0.97
1.56
1.90
2.08
2.17
2.24
2.30
2.35
2.39
2.40
2.38
2.35
2.29
2.18
1.98
1.63
1.11
0.45
-0.32
-1.10
-1.82
-2.39
-2.80
-3.06
-3.23
-3.37
-3.53
-3.77
-4.10
-4.49
-4.89
-5.16
-5.20
-4.89
-4.19
-3.12
-1.78
-0.31
1.13
2.37
3.28
3.80
3.89
3.62
3.07
2.37
1.64
1.00
0.52
0.19
-0.02
-0.17
-0.34
-0.60
-0.94
-1.35
-1.74
-2.03
-2.16
-2.12
-1.97
-1.84
-1.84
-2.06
-2.48
-3.00
-3.47
-3.79
-3.94
-3.93
-3.83
-3.65
-3.36
-2.93
-2.35
-1.67
-0.99
-0.38
0.16
0.65
1.14
1.62
2.02
2.22
2.15
1.78
1.20
0.56
0.02
-0.28
-0.30
-0.06
0.33
0.76
1.13
1.35
1.44
1.43
1.37
1.26
1.08
0.82
0.47
0.07
-0.33
-0.67
-0.95
-1.14
-1.22
-1.16
-0.91
-0.45
0.20
0.93
1.65
2.28
2.80
3.23
3.55
3.73
3.70
3.45
3.00
2.48
2.00
1.62
1.32
1.00
0.56
0.01
-0.55
-0.94
-1.05
-0.89
-0.55
-0.23
-0.05
-0.03
-0.14
-0.30
-0.48
-0.71
-1.06
-1.55
-2.13
-2.65
-2.94
-2.84
-2.33
-1.49
-0.51
0.42
1.17
1.72
2.11
2.39
2.59
2.69
2.70
2.65
2.61
2.65
2.80
3.00
3.14
3.11
2.86
2.39
1.80
1.17
0.59
0.10
-0.30
-0.61
-0.84
-0.99
-1.05
-1.02
-0.95
-0.93
-1.06
-1.40
-1.92
-2.48
-2.88
-2.98
-2.69
-2.11
-1.40
-0.75
-0.26
0.08
0.37
0.74
1.21
1.70
2.05
2.09
1.78
1.23
0.61
0.13
-0.10
-0.08
0.08
0.23
0.25
0.07
-0.27
-0.67
-1.05
-1.32
-1.49
-1.59
-1.68
-1.86
-2.18
-2.65
-3.24
-3.86
-4.42
-4.84
-5.08
-5.13
-5.03
-4.80
-4.46
-4.02
-3.46
-2.81
-2.12
-1.44
-0.82
-0.30
0.10
0.39
0.59
0.70
0.75
0.77
0.75
0.67
0.53
0.36
0.22
0.19
0.29
0.51
0.72
0.80
0.64
0.26
-0.26
-0.75
-1.06
-1.14
-1.02
-0.83
-0.75
-0.91
-1.34
-1.95
-2.57
-3.02
-3.16
-2.96
-2.48
-1.84
-1.11
-0.36
0.40
1.14
1.85
2.49
3.07
3.61
4.14
4.65
5.08
5.30
5.23
4.85
4.23
3.54
2.89
2.37
1.96
1.56
1.11
0.59
0.07
-0.31
-0.47
-0.39
-0.16
0.08
0.19
0.07
-0.28
-0.78
-1.32
-1.78
-2.07
-2.12
-1.90
-1.42
-0.72
0.11
0.97
1.77
2.43
2.91
3.19
3.29
3.23
3.01
2.67
2.24
1.79
1.46
1.33
1.46
1.81
2.25
2.62
2.81
2.75
2.47
2.03
1.48
0.88
0.23
-0.44
-1.12
-1.76
-2.35
-2.89
-3.40
-3.88
-4.30
-4.59
-4.64
-4.38
-3.80
-2.96
-1.96
-0.97
-0.11
0.54
0.94
1.13
1.20
1.23
1.28
1.41
1.60
1.83
2.06
2.26
2.38
2.40
2.29
2.03
1.65
1.21
0.78
0.44
0.25
0.17
0.13
0.04
-0.14
-0.43
-0.76
-1.09
-1.40
-1.69
-2.00
-2.34
-2.69
-3.01
-3.26
-3.44
-3.55
-3.61
-3.61
-3.50
-3.20
-2.66
-1.87
-0.94
-0.01
0.74
1.21
1.38
1.35
1.23
1.13
1.09
1.08
1.05
0.99
0.93
0.91
0.93
0.96
0.91
0.69
0.30
-0.23
-0.82
-1.39
-1.90
-2.35
-2.74
-3.06
-3.28
-3.40
-3.44
-3.48
-3.58
-3.82
-4.18
-4.59
-4.94
-5.14
-5.14
-4.93
-4.51
-3.90
-3.11
-2.20
-1.25
-0.42
0.16
0.43
0.38
0.13
-0.16
-0.39
-0.50
-0.51
-0.45
-0.36
-0.24
-0.10
0.06
0.20
0.27
0.21
0.02
-0.28
-0.63
-0.96
-1.21
-1.40
-1.58
-1.81
-2.13
-2.53
-2.93
-3.25
-3.42
-3.40
-3.18
-2.79
-2.21
-1.42
-0.39
0.86
2.28
3.73
5.05
6.13
6.90
7.40
7.72
7.92
8.03
8.05
7.90
7.58
7.12
6.63
6.23
5.97
5.81
5.60
5.19
4.51
3.60
2.62
1.75
1.10
0.69
0.40
0.10
-0.34
-0.97
-1.74
-2.55
-3.31
-3.97
-4.50
-4.89
-5.10
-5.06
-4.68
-3.91
-2.78
-1.46
-0.15
0.93
1.65
2.03
2.19
2.31
2.52
2.86
3.26
3.59
3.71
3.55
3.15
2.61
2.08
1.65
1.33
1.07
0.79
0.45
0.09
-0.24
-0.49
-0.63
-0.68
-0.71
-0.77
-0.85
-0.94
-0.99
-0.96
-0.90
-0.91
-1.07
-1.43
-1.93
-2.40
-2.67
-2.62
-2.23
-1.63
-0.94
-0.32
0.19
0.61
1.01
1.46
2.01
2.63
3.20
3.58
3.62
3.27
2.64
1.90
1.22
0.72
0.38
0.11
-0.14
-0.38
-0.52
-0.50
-0.31
-0.06
0.10
0.02
-0.37
-1.01
-1.79
-2.56
-3.22
-3.70
-4.02
-4.28
-4.58
-4.98
-5.47
-5.94
-6.19
-6.05
-5.42
-4.34
-2.99
-1.60
-0.43
0.41
0.92
1.28
1.64
2.11
2.64
3.08
3.27
3.14
2.78
2.36
2.10
2.08
2.26
2.48
2.56
2.44
2.10
1.63
1.09
0.55
0.03
-0.40
-0.68
-0.74
-0.60
-0.33
-0.10
-0.08
-0.34
-0.86
-1.51
-2.11
-2.51
-2.64
-2.48
-2.08
-1.51
-0.84
-0.14
0.55
1.22
1.89
2.52
3.08
3.48
3.65
3.58
3.31
2.92
2.52
2.20
2.01
1.96
2.00
2.09
2.14
2.08
1.88
1.53
1.12
0.75
0.48
0.32
0.21
0.06
-0.20
-0.60
-1.09
-1.62
-2.10
-2.49
-2.73
-2.81
-2.75
-2.57
-2.27
-1.82
-1.18
-0.34
0.62
1.55
2.25
2.61
2.65
2.51
2.39
2.41
2.58
2.78
2.90
2.86
2.68
2.45
2.24
2.08
1.91
1.67
1.31
0.83
0.31
-0.21
-0.67
-1.11
-1.51
-1.87
-2.13
-2.26
-2.28
-2.28
-2.41
-2.75
-3.29
-3.89
-4.33
-4.46
-4.22
-3.69
-2.99
-2.21
-1.40
-0.56
0.26
1.00
1.58
1.92
2.04
2.00
1.90
1.76
1.60
1.36
1.01
0.59
0.19
-0.08
-0.12
0.04
0.31
0.52
0.52
0.24
-0.29
-0.94
-1.56
-2.04
-2.31
-2.40
-2.38
-2.37
-2.50
-2.81
-3.29
-3.88
-4.51
-5.11
-5.65
-6.10
-6.39
-6.41
-6.04
-5.26
-4.16
-2.95
-1.84
-0.97
-0.38
-0.01
0.25
0.48
0.70
0.93
1.15
1.36
1.56
1.71
1.80
1.77
1.65
1.46
1.21
0.95
0.71
0.49
0.35
0.28
0.28
0.30
0.26
0.12
-0.15
-0.50
-0.86
-1.14
-1.28
-1.26
-1.10
-0.83
-0.53
-0.24
-0.02
0.13
0.22
0.34
0.57
0.99
1.63
2.45
3.36
4.24
4.99
5.52
5.80
5.81
5.58
5.14
4.57
3.95
3.37
2.88
2.52
2.29
2.18
2.16
2.17
2.14
2.01
1.76
1.42
1.05
0.75
0.57
0.51
0.50
0.43
0.23
-0.18
-0.76
-1.44
-2.08
-2.55
-2.74
-2.64
-2.32
-1.88
-1.43
-1.04
-0.69
-0.34
0.07
0.58
1.18
1.80
2.36
2.74
2.86
2.71
2.38
1.95
1.54
1.21
0.97
0.85
0.83
0.94
1.17
1.49
1.80
2.00
2.03
1.86
1.55
1.13
0.65
0.11
-0.48
-1.07
-1.62
-2.07
-2.41
-2.68
-2.96
-3.27
-3.62
-3.93
-4.06
-3.90
-3.39
-2.55
-1.52
-0.49
0.40
1.03
1.39
1.58
1.67
1.77
1.92
2.11
2.29
2.40
2.41
2.33
2.19
2.02
1.87
1.75
1.63
1.50
1.32
1.11
0.86
0.58
0.27
-0.08
-0.48
-0.94
-1.42
-1.89
-2.33
-2.71
-3.05
-3.35
-3.60
-3.80
-3.94
-4.05
-4.16
-4.32
-4.55
-4.86
-5.17
-5.39
-5.41
-5.15
-4.59
-3.80
-2.85
-1.82
-0.79
0.19
1.02
1.61
1.88
1.79
1.42
0.90
0.43
0.15
0.15
0.40
0.82
1.31
1.76
2.10
2.25
2.16
1.84
1.36
0.86
0.50
0.38
0.49
0.75
1.00
1.09
0.97
0.66
0.27
-0.06
-0.26
-0.32
-0.29
-0.29
-0.39
-0.60
-0.86
-1.04
-1.01
-0.70
-0.19
0.41
0.93
1.31
1.58
1.88
2.31
2.87
3.42
3.80
3.88
3.67
3.32
3.01
2.84
2.77
2.70
2.54
2.27
1.99
1.79
1.75
1.80
1.80
1.62
1.19
0.55
-0.19
-0.86
-1.35
-1.61
-1.70
-1.72
-1.79
-1.97
-2.24
-2.54
-2.79
-2.92
-2.92
-2.78
-2.47
-1.98
-1.30
-0.46
0.44
1.28
1.96
2.46
2.80
3.06
3.25
3.36
3.33
3.13
2.76
2.29
1.79
1.34
0.96
0.67
0.41
0.17
-0.10
-0.38
-0.68
-0.95
-1.17
-1.30
-1.33
-1.25
-1.09
-0.93
-0.88
-1.06
-1.54
-2.30
-3.24
-4.19
-5.00
-5.53
-5.70
-5.46
-4.85
-3.92
-2.82
-1.76
-0.91
-0.33
0.00
0.23
0.50
0.88
1.32
1.71
1.95
1.98
1.86
1.63
1.37
1.13
0.91
0.74
0.64
0.64
0.70
0.75
0.70
0.48
0.07
-0.49
-1.10
-1.67
-2.14
-2.52
-2.83
-3.12
-3.45
-3.80
-4.14
-4.40
-4.52
-4.51
-4.40
-4.27
-4.14
-4.01
-3.82
-3.51
-3.03
-2.44
-1.78
-1.14
-0.51
0.11
0.76
1.40
1.94
2.29
2.38
2.20
1.81
1.29
0.73
0.24
-0.12
-0.27
-0.21
0.03
0.31
0.48
0.45
0.24
-0.08
-0.36
-0.53
-0.61
-0.65
-0.72
-0.83
-0.95
-1.02
-1.08
-1.17
-1.40
-1.80
-2.31
-2.78
-3.04
-2.99
-2.64
-2.12
-1.58
-1.13
-0.78
-0.45
-0.04
0.47
0.98
1.34
1.38
1.02
0.30
-0.62
-1.53
-2.29
-2.80
-3.05
-3.06
-2.87
-2.52
-2.09
-1.68
-1.40
-1.27
-1.24
-1.18
-0.98
-0.58
-0.03
0.54
1.00
1.31
1.50
1.66
1.91
2.28
2.72
3.15
3.49
3.69
3.81
4.00
4.44
5.25
6.48
8.01
9.67
11.26
12.67
13.85
14.80
15.51
15.92
15.92
15.45
14.46
13.01
11.21
9.17
7.03
4.92
2.95
1.24
-0.13
-1.16
-1.88
-2.38
-2.71
-2.93
-3.03
-3.03
-2.97
-2.93
-3.08
-3.57
-4.53
-5.92
-7.56
-9.13
-10.33
-10.93
-10.88
-10.30
-9.37
-8.26
-7.07
-5.81
-4.54
-3.34
-2.34
-1.63
-1.25
-1.08
-0.99
-0.83
-0.53
-0.14
0.25
0.51
0.56
0.39
0.03
-0.48
-1.08
-1.72
-2.34
-2.88
-3.27
-3.50
-3.56
-3.50
-3.35
-3.19
-3.04
-2.93
-2.87
-2.86
-2.92
-3.08
-3.36
-3.79
-4.32
-4.82
-5.12
-5.10
-4.67
-3.92
-2.98
-2.05
-1.24
-0.61
-0.11
0.31
0.72
1.14
1.55
1.90
2.11
2.15
1.99
1.65
1.21
0.76
0.39
0.13
0.00
0.01
0.13
0.37
0.69
1.06
1.37
1.55
1.55
1.39
1.14
0.87
0.68
0.60
0.60
0.60
0.50
0.22
-0.22
-0.69
-1.01
-1.01
-0.63
0.05
0.85
1.59
2.17
2.57
2.88
3.19
3.54
3.88
4.13
4.23
4.16
3.97
3.78
3.66
3.66
3.74
3.80
3.78
3.63
3.40
3.19
3.11
3.26
3.60
4.01
4.35
4.46
4.27
3.77
3.00
1.99
0.82
-0.47
-1.76
-2.91
-3.76
-4.16
-4.03
-3.33
-2.17
-0.74
0.72
1.98
2.85
3.29
3.33
3.08
2.63
2.04
1.34
0.54
-0.37
-1.36
-2.40
-3.47
-4.53
-5.57
-6.54
-7.37
-8.01
-8.42
-8.61
-8.66
-8.66
-8.66
-8.66
-8.58
-8.32
-7.87
-7.30
-6.78
-6.46
-6.35
-6.30
-6.03
-5.32
-4.06
-2.36
-0.41
1.56
3.45
5.24
7.01
8.81
10.70
12.67
14.68
16.62
18.32
19.52
19.96
19.35
17.52
14.48
10.49
6.07
1.88
-1.40
-3.31
-3.74
-2.96
-1.49
0.12
1.46
2.39
2.93
3.22
3.39
3.54
3.72
4.02
4.47
5.08
5.73
6.24
6.45
6.30
5.85
5.31
4.89
4.69
4.69
4.74
4.69
4.45
4.03
3.48
2.83
2.05
1.09
-0.07
-1.33
-2.49
-3.36
-3.89
-4.19
-4.52
-5.12
-6.05
-7.19
-8.29
-9.09
-9.49
-9.58
-9.52
-9.49
-9.59
-9.81
-10.06
-10.28
-10.39
-10.34
-10.14
-9.80
-9.36
-8.82
-8.22
-7.53
-6.76
-5.91
-4.99
-4.00
-2.98
-1.99
-1.14
-0.58
-0.45
-0.80
-1.54
-2.39
-3.00
-3.07
-2.50
-1.41
-0.09
1.14
2.07
2.62
2.80
2.65
2.18
1.34
0.15
-1.31
-2.79
-4.02
-4.75
-4.85
-4.34
-3.33
-1.95
-0.34
1.39
3.13
4.73
6.06
7.01
7.49
7.49
7.06
6.33
5.42
4.46
3.55
2.76
2.08
1.53
1.07
0.73
0.53
0.52
0.73
1.12
1.59
1.99
2.13
1.91
1.28
0.32
-0.76
-1.74
-2.44
-2.75
-2.67
-2.32
-1.83
-1.31
-0.89
-0.65
-0.64
-0.84
-1.19
-1.55
-1.72
-1.56
-0.98
-0.05
1.09
2.21
3.11
3.69
3.93
3.90
3.68
3.38
3.06
2.73
2.39
2.01
1.55
0.98
0.28
-0.54
-1.40
-2.21
-2.84
-3.22
-3.34
-3.29
-3.19
-3.19
-3.34
-3.63
-4.00
-4.35
-4.61
-4.76
-4.83
-4.92
-5.07
-5.32
-5.65
-5.98
-6.24
-6.40
-6.47
-6.52
-6.60
-6.73
-6.89
-7.05
-7.18
-7.29
-7.38
-7.51
-7.67
-7.85
-7.95
-7.88
-7.48
-6.64
-5.32
-3.55
-1.49
0.63
2.56
4.13
5.29
6.13
6.80
7.46
8.19
8.94
9.61
10.09
10.28
10.18
9.82
9.25
8.54
7.78
7.10
6.61
6.42
6.49
6.70
6.91
6.97
6.89
6.73
6.60
6.55
6.54
6.48
6.31
6.04
5.70
5.36
5.01
4.60
4.09
3.49
2.89
2.40
2.08
1.94
1.91
1.89
1.86
1.81
1.80
1.80
1.80
1.69
1.43
0.99
0.44
-0.15
-0.66
-1.06
-1.37
-1.63
-1.89
-2.11
-2.17
-1.95
-1.36
-0.50
0.39
1.07
1.36
1.28
1.04
0.91
1.08
1.59
2.32
3.11
3.83
4.47
5.06
5.66
6.29
6.90
7.40
7.73
7.82
7.63
7.13
6.32
5.21
3.88
2.47
1.14
0.04
-0.81
-1.46
-2.09
-2.87
-3.89
-5.15
-6.53
-7.88
-9.06
-9.98
-10.62
-10.97
-11.06
-10.88
-10.48
-9.92
-9.30
-8.71
-8.18
-7.68
-7.15
-6.53
-5.87
-5.25
-4.80
-4.55
-4.44
-4.35
-4.14
-3.78
-3.38
-3.09
-3.03
-3.20
-3.51
-3.88
-4.25
-4.62
-5.03
-5.49
-5.95
-6.33
-6.55
-6.56
-6.39
-6.12
-5.81
-5.55
-5.32
-5.07
-4.71
-4.16
-3.42
-2.57
-1.76
-1.11
-0.63
-0.21
0.33
1.10
2.08
3.10
3.96
4.52
4.71
4.55
4.12
3.49
2.72
1.87
1.08
0.51
0.29
0.46
0.90
1.41
1.78
1.90
1.80
1.62
1.50
1.52
1.61
1.69
1.67
1.57
1.47
1.50
1.72
2.13
2.62
3.08
3.38
3.46
3.33
3.07
2.83
2.78
3.05
3.65
4.47
5.31
5.98
6.34
6.38
6.17
5.81
5.40
4.96
4.49
4.00
3.47
2.93
2.45
2.10
1.95
2.02
2.27
2.57
2.78
2.77
2.53
2.10
1.65
1.32
1.22
1.40
1.82
2.41
3.06
3.66
4.05
4.07
3.61
2.62
1.20
-0.45
-2.02
-3.24
-3.91
-3.98
-3.54
-2.80
-2.01
-1.31
-0.74
-0.25
0.23
0.74
1.25
1.71
2.14
2.56
3.03
3.51
3.86
3.82
3.23
2.10
0.66
-0.73
-1.76
-2.28
-2.39
-2.29
-2.17
-2.14
-2.17
-2.17
-2.04
-1.74
-1.27
-0.65
0.10
0.92
1.73
2.44
2.95
3.22
3.19
2.89
2.38
1.76
1.18
0.79
0.71
1.00
1.61
2.41
3.23
3.89
4.27
4.34
4.13
3.72
3.19
2.63
2.07
1.54
1.06
0.59
0.11
-0.41
-0.95
-1.48
-1.94
-2.29
-2.52
-2.68
-2.83
-3.04
-3.27
-3.45
-3.46
-3.23
-2.80
-2.27
-1.79
-1.51
-1.45
-1.58
-1.78
-1.97
-2.10
-2.17
-2.22
-2.26
-2.27
-2.16
-1.88
-1.38
-0.72
0.02
0.71
1.28
1.66
1.84
1.83
1.62
1.22
0.67
0.04
-0.60
-1.14
-1.52
-1.72
-1.75
-1.64
-1.42
-1.11
-0.77
-0.53
-0.51
-0.79
-1.35
-2.11
-2.88
-3.52
-3.92
-4.04
-3.87
-3.45
-2.81
-2.05
-1.30
-0.74
-0.45
-0.43
-0.54
-0.62
-0.55
-0.37
-0.19
-0.11
-0.21
-0.42
-0.61
-0.66
-0.54
-0.29
-0.02
0.17
0.23
0.15
-0.02
-0.24
-0.45
-0.57
-0.57
-0.46
-0.32
-0.27
-0.37
-0.63
-0.96
-1.25
-1.41
-1.43
-1.38
-1.31
-1.25
-1.18
-1.08
-0.97
-0.92
-0.97
-1.17
-1.43
-1.64
-1.69
-1.55
-1.23
-0.81
-0.38
0.02
0.41
0.86
1.47
2.33
3.50
4.96
6.64
8.38
10.02
11.41
12.44
13.04
13.22
13.03
12.58
11.98
11.38
10.87
10.52
10.36
10.35
10.46
10.59
10.62
10.45
10.03
9.37
8.53
7.60
6.58
5.48
4.28
3.05
1.90
0.96
0.35
-0.01
-0.24
-0.54
-1.03
-1.74
-2.56
-3.35
-3.95
-4.29
-4.35
-4.17
-3.85
-3.51
-3.27
-3.22
-3.40
-3.77
-4.25
-4.68
-4.95
-4.98
-4.78
-4.42
-4.02
-3.70
-3.55
-3.58
-3.79
-4.12
-4.50
-4.83
-5.05
-5.13
-5.10
-5.08
-5.15
-5.37
-5.69
-5.98
-6.14
-6.13
-5.97
-5.80
-5.70
-5.69
-5.69
-5.57
-5.22
-4.65
-3.97
-3.32
-2.82
-2.55
-2.47
-2.49
-2.54
-2.54
-2.49
-2.37
-2.18
-1.87
-1.37
-0.69
0.09
0.84
1.40
1.69
1.72
1.59
1.43
1.34
1.36
1.47
1.62
1.76
1.85
1.85
1.71
1.43
1.04
0.59
0.11
-0.38
-0.90
-1.45
-2.02
-2.55
-2.97
-3.23
-3.34
-3.33
-3.31
-3.33
-3.42
-3.53
-3.57
-3.45
-3.13
-2.65
-2.12
-1.69
-1.46
-1.46
-1.60
-1.76
-1.80
-1.62
-1.21
-0.59
0.14
0.88
1.52
1.99
2.23
2.25
2.08
1.75
1.32
0.87
0.49
0.27
0.27
0.48
0.77
0.99
0.97
0.65
0.10
-0.48
-0.93
-1.10
-1.02
-0.75
-0.43
-0.17
0.01
0.12
0.24
0.42
0.68
1.01
1.37
1.72
2.02
2.27
2.49
2.71
2.92
3.13
3.32
3.51
3.71
3.95
4.23
4.54
4.82
5.03
5.13
5.14
5.10
5.04
4.99
4.94
4.86
4.78
4.74
4.76
4.83
4.90
4.85
4.61
4.15
3.53
2.86
2.21
1.63
1.10
0.57
0.01
-0.58
-1.15
-1.69
-2.16
-2.57
-2.92
-3.24
-3.54
-3.84
-4.12
-4.33
-4.43
-4.36
-4.14
-3.84
-3.54
-3.31
-3.19
-3.16
-3.19
-3.25
-3.35
-3.46
-3.58
-3.68
-3.73
-3.70
-3.58
-3.36
-3.09
-2.79
-2.52
-2.31
-2.21
-2.26
-2.47
-2.82
-3.25
-3.65
-3.94
-4.03
-3.97
-3.85
-3.83
-4.05
-4.53
-5.23
-5.97
-6.55
-6.80
-6.64
-6.10
-5.29
-4.35
-3.42
-2.61
-1.93
-1.39
-0.93
-0.48
0.01
0.59
1.26
1.98
2.66
3.18
3.47
3.48
3.29
2.98
2.68
2.49
2.48
2.67
3.12
3.81
4.69
5.65
6.51
7.08
7.27
7.08
6.59
5.88
5.01
3.99
2.78
1.38
-0.16
-1.71
-3.12
-4.28
-5.11
-5.62
-5.88
-6.02
-6.15
-6.31
-6.53
-6.76
-6.93
-6.98
-6.92
-6.76
-6.54
-6.27
-5.88
-5.30
-4.48
-3.49
-2.47
-1.59
-0.95
-0.55
-0.25
0.04
0.36
0.63
0.77
0.77
0.76
0.95
1.50
2.44
3.61
4.74
5.60
6.03
6.03
5.67
5.09
4.45
3.91
3.56
3.44
3.52
3.68
3.80
3.78
3.57
3.15
2.55
1.85
1.18
0.67
0.44
0.53
0.84
1.21
1.51
1.71
1.89
2.17
2.62
3.19
3.76
4.19
4.39
4.35
4.12
3.74
3.23
2.60
1.89
1.18
0.63
0.37
0.43
0.77
1.22
1.63
1.90
2.07
2.24
2.55
3.04
3.66
4.25
4.65
4.74
4.50
4.00
3.35
2.69
2.12
1.67
1.37
1.20
1.09
0.97
0.79
0.55
0.29
0.07
-0.08
-0.17
-0.27
-0.45
-0.74
-1.10
-1.42
-1.61
-1.63
-1.52
-1.41
-1.43
-1.68
-2.22
-3.00
-3.92
-4.88
-5.74
-6.39
-6.80
-6.95
-6.91
-6.77
-6.63
-6.53
-6.49
-6.49
-6.47
-6.39
-6.21
-5.93
-5.54
-5.07
-4.52
-3.97
-3.49
-3.15
-3.02
-3.14
-3.50
-4.03
-4.65
-5.27
-5.77
-6.10
-6.19
-6.01
-5.54
-4.75
-3.69
-2.44
-1.15
0.05
1.06
1.80
2.28
2.53
2.60
2.52
2.33
2.09
1.89
1.80
1.90
2.19
2.60
3.03
3.35
3.52
3.50
3.32
3.02
2.66
2.29
1.92
1.56
1.22
0.89
0.58
0.31
0.12
0.04
0.10
0.26
0.51
0.81
1.13
1.48
1.87
2.28
2.68
3.03
3.30
3.48
3.58
3.57
3.40
3.05
2.55
2.01
1.58
1.35
1.31
1.38
1.46
1.49
1.54
1.69
1.98
2.32
2.59
2.63
2.42
2.06
1.68
1.39
1.18
0.96
0.65
0.25
-0.20
-0.58
-0.83
-0.94
-0.93
-0.87
-0.80
-0.74
-0.71
-0.70
-0.68
-0.61
-0.45
-0.18
0.20
0.65
1.14
1.62
2.09
2.53
2.92
3.21
3.40
3.47
3.46
3.42
3.41
3.46
3.56
3.68
3.79
3.86
3.89
3.91
3.97
4.07
4.14
4.09
3.83
3.38
2.85
2.40
2.16
2.12
2.14
2.04
1.66
0.96
0.06
-0.89
-1.75
-2.48
-3.09
-3.62
-4.10
-4.56
-4.99
-5.39
-5.73
-5.96
-6.02
-5.85
-5.45
-4.88
-4.29
-3.83
-3.58
-3.56
-3.72
-3.96
-4.17
-4.32
-4.39
-4.44
-4.52
-4.71
-5.00
-5.37
-5.73
-6.00
-6.10
-6.00
-5.71
-5.30
-4.84
-4.36
-3.88
-3.39
-2.92
-2.51
-2.21
-2.02
-1.94
-1.89
-1.82
-1.64
-1.36
-1.01
-0.68
-0.44
-0.37
-0.44
-0.61
-0.76
-0.77
-0.57
-0.16
0.40
1.01
1.58
2.04
2.41
2.70
2.94
3.13
3.26
3.28
3.18
3.01
2.81
2.69
2.69
2.83
3.07
3.31
3.44
3.42
3.23
2.93
2.63
2.42
2.32
2.32
2.32
2.23
1.99
1.59
1.09
0.58
0.12
-0.28
-0.65
-1.00
-1.34
-1.63
-1.80
-1.79
-1.54
-1.07
-0.45
0.22
0.83
1.35
1.74
2.02
2.21
2.32
2.30
2.16
1.90
1.55
1.21
0.93
0.79
0.82
1.01
1.32
1.70
2.08
2.42
2.67
2.82
2.85
2.78
2.65
2.49
2.37
2.32
2.33
2.34
2.30
2.19
1.99
1.78
1.60
1.48
1.40
1.36
1.37
1.48
1.75
2.19
2.76
3.34
3.81
4.06
4.07
3.88
3.57
3.25
3.04
3.04
3.26
3.63
4.02
4.26
4.21
3.87
3.30
2.65
2.05
1.56
1.17
0.80
0.39
-0.12
-0.69
-1.24
-1.69
-1.98
-2.10
-2.09
-2.07
-2.10
-2.24
-2.44
-2.63
-2.72
-2.70
-2.62
-2.58
-2.68
-2.98
-3.46
-4.08
-4.74
-5.35
-5.85
-6.21
-6.43
-6.56
-6.67
-6.84
-7.11
-7.47
-7.85
-8.14
-8.27
-8.21
-7.98
-7.60
-7.10
-6.48
-5.73
-4.85
-3.86
-2.83
-1.85
-1.03
-0.44
-0.13
-0.06
-0.17
-0.37
-0.57
-0.70
-0.74
-0.68
-0.55
-0.42
-0.34
-0.35
-0.42
-0.47
-0.43
-0.26
0.00
0.26
0.42
0.40
0.22
-0.09
-0.45
-0.81
-1.09
-1.22
-1.14
-0.81
-0.26
0.42
1.12
1.75
2.23
2.55
2.68
2.63
2.40
2.08
1.74
1.51
1.45
1.56
1.77
1.97
2.08
2.07
1.96
1.81
1.65
1.52
1.41
1.34
1.32
1.38
1.47
1.52
1.45
1.20
0.77
0.26
-0.19
-0.48
-0.58
-0.51
-0.36
-0.22
-0.14
-0.17
-0.31
-0.51
-0.71
-0.83
-0.78
-0.51
-0.03
0.59
1.27
1.93
2.49
2.93
3.25
3.45
3.53
3.48
3.29
2.99
2.67
2.43
2.43
2.72
3.26
3.88
4.37
4.61
4.59
4.46
4.38
4.48
4.76
5.11
5.39
5.49
5.36
5.01
4.47
3.80
3.03
2.24
1.51
0.92
0.49
0.21
0.02
-0.17
-0.42
-0.75
-1.12
-1.43
-1.61
-1.57
-1.31
-0.85
-0.28
0.32
0.86
1.29
1.61
1.79
1.81
1.65
1.26
0.65
-0.11
-0.89
-1.54
-1.97
-2.17
-2.22
-2.28
-2.43
-2.71
-3.06
-3.42
-3.73
-4.01
-4.32
-4.70
-5.16
-5.62
-5.98
-6.14
-6.06
-5.81
-5.49
-5.22
-5.08
-5.10
-5.24
-5.42
-5.58
-5.68
-5.68
-5.57
-5.32
-4.92
-4.34
-3.58
-2.70
-1.76
-0.85
-0.03
0.70
1.33
1.84
2.24
2.51
2.66
2.76
2.87
3.02
3.22
3.44
3.62
3.76
3.87
4.02
4.23
4.50
4.76
4.97
5.10
5.18
5.25
5.31
5.32
5.20
4.92
4.52
4.08
3.68
3.30
2.87
2.23
1.33
0.22
-0.96
-2.02
-2.84
-3.40
-3.78
-4.05
-4.28
-4.45
-4.53
-4.54
-4.50
-4.47
-4.47
-4.51
-4.63
-4.89
-5.35
-6.02
-6.84
-7.65
-8.26
-8.51
-8.39
-8.00
-7.58
-7.32
-7.37
-7.76
-8.40
-9.16
-9.92
-10.57
-11.06
-11.40
-11.58
-11.60
-11.41
-11.00
-10.34
-9.50
-8.55
-7.54
-6.45
-5.21
-3.73
-1.99
-0.06
1.91
3.74
5.30
6.57
7.60
8.48
9.25
9.94
10.53
11.02
11.40
11.68
11.88
11.98
11.91
11.66
11.24
10.71
10.15
9.66
9.27
8.98
8.71
8.41
8.05
7.62
7.18
6.86
6.78
7.07
7.80
8.90
10.23
11.56
12.65
13.35
13.61
13.44
12.89
12.00
10.78
9.30
7.64
5.94
4.36
3.03
1.98
1.19
0.55
-0.01
-0.51
-0.96
-1.31
-1.57
-1.81
-2.12
-2.58
-3.19
-3.88
-4.50
-4.95
-5.16
-5.16
-5.02
-4.82
-4.62
-4.46
-4.38
-4.39
-4.49
-4.65
-4.81
-4.88
-4.83
-4.65
-4.39
-4.13
-3.94
-3.86
-3.88
-3.95
-3.99
-3.98
-3.93
-3.92
-4.00
-4.22
-4.52
-4.77
-4.82
-4.60
-4.14
-3.52
-2.86
-2.19
-1.52
-0.81
-0.08
0.58
1.06
1.32
1.36
1.29
1.20
1.18
1.21
1.22
1.17
1.06
0.94
0.89
0.96
1.13
1.33
1.47
1.45
1.26
0.92
0.46
-0.03
-0.54
-1.03
-1.47
-1.82
-2.06
-2.16
-2.20
-2.26
-2.39
-2.61
-2.83
-2.94
-2.83
-2.47
-1.93
-1.31
-0.71
-0.17
0.28
0.65
0.93
1.10
1.14
1.07
0.93
0.83
0.88
1.15
1.61
2.12
2.51
2.61
2.38
1.92
1.38
0.94
0.69
0.65
0.73
0.87
0.96
0.94
0.80
0.54
0.21
-0.11
-0.38
-0.57
-0.73
-0.91
-1.12
-1.36
-1.55
-1.66
-1.70
-1.74
-1.83
-1.99
-2.15
-2.16
-1.88
-1.26
-0.39
0.56
1.39
1.94
2.15
2.12
2.01
1.95
2.04
2.24
2.46
2.60
2.64
2.59
2.55
2.59
2.75
3.01
3.32
3.65
3.95
4.18
4.26
4.13
3.73
3.11
2.38
1.70
1.22
0.96
0.88
0.82
0.66
0.34
-0.09
-0.52
-0.85
-1.00
-0.99
-0.91
-0.82
-0.77
-0.68
-0.41
0.21
1.27
2.67
4.19
5.49
6.34
6.70
6.74
6.78
7.08
7.75
8.70
9.75
10.72
11.52
12.09
12.37
12.21
11.45
10.01
8.00
5.73
3.57
1.79
0.43
-0.72
-1.96
-3.57
-5.59
-7.85
-10.05
-11.90
-13.26
-14.15
-14.75
-15.24
-15.72
-16.14
-16.30
-16.03
-15.23
-13.96
-12.41
-10.81
-9.30
-7.92
-6.61
-5.23
-3.71
-1.99
-0.14
1.71
3.34
4.49
5.01
4.87
4.24
3.39
2.61
2.06
1.67
1.28
0.69
-0.16
-1.21
-2.33
-3.37
-4.29
-5.11
-5.88
-6.59
-7.20
-7.63
-7.90
-8.07
-8.21
-8.35
-8.40
-8.22
-7.73
-6.98
-6.07
-5.28
-4.88
-5.07
-5.86
-7.03
-8.25
-9.09
-9.10
-8.01
-6.00
-3.74
-2.10
-1.85
-3.24
-5.80
-8.57
-10.39
-10.28
-8.05
-4.18
0.39
4.49
7.06
7.09
3.62
-4.06
-14.08
-23.62
-29.31
-28.89
-22.26
-10.92
2.97
17.32
30.49
41.56
49.96
55.33
57.98
58.25
56.73
54.28
51.88
50.35
50.15
51.05
52.28
52.75
51.72
48.70
43.63
36.87
29.20
21.66
15.19
10.47
7.70
6.50
6.07
5.57
4.39
2.42
0.02
-2.26
-3.99
-5.03
-5.60
-6.02
-6.47
-6.93
-7.23
-7.22
-6.94
-6.60
-6.50
-6.81
-7.51
-8.39
-9.20
-9.77
-10.10
-10.35
-10.75
-11.55
-12.86
-14.69
-16.88
-19.21
-21.43
-23.39
-25.05
-26.46
-27.72
-28.83
-29.75
-30.32
-30.38
-29.86
-28.82
-27.45
-25.97
-24.54
-23.24
-22.02
-20.76
-19.43
-18.03
-16.68
-15.48
-14.54
-13.84
-13.34
-12.91
-12.45
-11.88
-11.20
-10.41
-9.54
-8.65
-7.78
-6.95
-6.24
-5.68
-5.34
-5.22
-5.26
-5.33
-5.28
-5.05
-4.68
-4.32
-4.15
-4.25
-4.56
-4.92
-5.12
-5.05
-4.68
-4.09
-3.37
-2.56
-1.65
-0.64
0.44
1.47
2.30
2.86
3.13
3.18
3.12
2.99
2.80
2.53
2.19
1.84
1.54
1.35
1.23
1.09
0.86
0.53
0.14
-0.22
-0.49
-0.69
-0.89
-1.18
-1.58
-2.04
-2.48
-2.83
-3.09
-3.31
-3.53
-3.79
-4.01
-4.09
-3.89
-3.38
-2.61
-1.70
-0.82
-0.08
0.49
0.93
1.31
1.71
2.14
2.59
3.02
3.36
3.56
3.61
3.54
3.40
3.29
3.26
3.30
3.39
3.44
3.44
3.37
3.28
3.17
3.01
2.73
2.26
1.60
0.83
0.05
-0.68
-1.37
-2.07
-2.85
-3.71
-4.54
-5.22
-5.59
-5.61
-5.29
-4.73
-4.02
-3.22
-2.38
-1.50
-0.59
0.31
1.19
2.02
2.74
3.33
3.75
3.98
4.02
3.92
3.75
3.57
3.43
3.39
3.44
3.58
3.71
3.67
3.31
2.48
1.23
-0.26
-1.69
-2.78
-3.40
-3.67
-3.79
-4.00
-4.39
-4.88
-5.28
-5.36
-5.04
-4.35
-3.42
-2.42
-1.44
-0.56
0.21
0.83
1.29
1.59
1.77
1.95
2.23
2.71
3.40
4.19
4.92
5.44
5.68
5.69
5.60
5.54
5.57
5.69
5.73
5.51
4.84
3.59
1.77
-0.51
-3.01
-5.40
-7.38
-8.71
-9.32
-9.29
-8.82
-8.12
-7.35
-6.60
-5.90
-5.28
-4.79
-4.54
-4.53
-4.68
-4.77
-4.57
-3.91
-2.83
-1.57
-0.45
0.32
0.77
1.19
1.96
3.41
5.60
8.32
11.16
13.60
15.18
15.56
14.61
12.44
9.36
5.89
2.61
0.01
-1.67
-2.47
-2.62
-2.46
-2.23
-2.08
-2.00
-1.93
-1.81
-1.60
-1.32
-1.03
-0.75
-0.50
-0.29
-0.11
0.01
0.03
-0.03
-0.13
-0.11
0.24
1.16
2.81
5.19
8.05
10.95
13.33
14.62
14.46
12.76
9.80
6.13
2.41
-0.83
-3.28
-4.92
-5.90
-6.37
-6.46
-6.24
-5.80
-5.35
-5.12
-5.35
-6.07
-7.13
-8.20
-8.94
-9.11
-8.68
-7.81
-6.69
-5.49
-4.29
-3.06
-1.76
-0.32
1.32
3.19
5.35
7.77
10.39
13.02
15.39
17.10
17.78
17.17
15.29
12.47
9.32
6.52
4.57
3.62
3.44
3.53
3.40
2.78
1.70
0.45
-0.64
-1.34
-1.62
-1.58
-1.38
-1.14
-0.88
-0.59
-0.22
