1660933521.00
64.000000
-0.00
-0.00
-0.00
-0.00
-0.00
-0.00
-0.00
-0.00
-0.00
-0.00
0.00
0.01
0.01
-0.00
-0.03
-0.05
-0.05
0.00
0.13
0.36
0.66
1.01
1.37
1.72
2.06
2.40
2.79
3.25
3.81
4.44
5.09
5.73
6.32
6.90
7.53
8.27
9.15
10.26
11.47
12.68
13.77
14.72
15.61
16.63
17.99
19.82
22.31
25.25
28.34
31.31
34.03
36.64
39.48
43.00
47.48
53.21
59.79
66.69
73.37
79.59
85.56
91.86
99.19
107.98
118.58
130.30
142.30
153.78
164.43
174.60
185.15
197.42
209.89
224.41
241.23
260.26
280.47
299.37
313.20
317.72
309.61
287.60
253.42
210.30
162.24
112.66
63.68
16.28
-29.15
-72.25
-112.65
-149.99
-184.92
-218.80
-253.28
-289.40
-326.61
-362.35
-392.40
-412.26
-418.67
-411.05
-391.80
-365.32
-336.31
-308.17
-282.31
-258.48
-235.87
-213.94
-193.00
-173.75
-156.67
-141.63
-127.90
-114.56
-101.01
-87.27
-73.88
-61.64
-51.14
-42.51
-35.32
-28.85
-22.46
-15.82
-9.06
-2.63
2.97
7.45
10.83
13.43
15.66
17.81
19.95
21.94
23.56
24.64
25.17
25.28
25.16
25.02
24.95
25.00
25.13
25.26
25.29
25.10
24.61
23.79
22.67
21.42
20.23
19.25
18.55
18.08
17.71
17.35
16.92
16.47
16.04
15.68
15.34
14.99
14.56
14.06
13.51
12.97
12.50
12.14
11.88
11.73
11.67
11.67
11.66
11.59
11.39
11.03
10.51
9.91
9.33
8.90
8.68
8.66
8.75
8.81
8.74
8.51
8.18
7.85
7.61
7.47
7.37
7.22
6.92
6.48
5.93
5.36
4.83
4.36
3.90
3.43
2.92
2.41
1.96
1.65
1.48
1.38
1.24
0.94
0.47
-0.11
-0.71
-1.27
-1.86
-2.55
-3.41
-4.37
-5.28
-5.96
-6.35
-6.54
-6.68
-6.94
-7.33
-7.76
-8.06
-8.14
-8.00
-7.78
-7.59
-7.49
-7.45
-7.39
-7.24
-7.02
-6.77
-6.52
-6.24
-5.87
-5.34
-4.65
-3.90
-3.20
-2.66
-2.27
-1.94
-1.56
-1.08
-0.53
-0.01
0.35
0.54
0.63
0.71
0.88
1.12
1.37
1.54
1.62
1.67
1.79
2.08
2.52
3.04
3.50
3.75
3.73
3.50
3.18
2.93
2.85
2.97
3.23
3.51
3.72
3.82
3.84
3.85
3.90
3.98
4.06
4.11
4.13
4.16
4.24
4.39
4.61
4.80
4.89
4.81
4.54
4.15
3.77
3.54
3.55
3.75
4.02
4.18
4.11
3.81
3.39
3.03
2.88
2.97
3.21
3.46
3.58
3.49
3.20
2.78
2.35
2.02
1.82
1.76
1.79
1.85
1.88
1.85
1.75
1.61
1.50
1.47
1.57
1.75
1.96
2.07
2.02
1.78
1.42
1.04
0.74
0.59
0.61
0.79
1.07
1.37
1.63
1.79
1.83
1.79
1.71
1.67
1.68
1.72
1.72
1.63
1.47
1.27
1.09
0.95
0.84
0.76
0.72
0.76
0.93
1.23
1.57
1.82
1.86
1.65
1.26
0.81
0.41
0.15
0.06
0.12
0.30
0.57
0.86
1.09
1.18
1.09
0.85
0.54
0.25
0.05
-0.04
-0.03
0.03
0.14
0.28
0.44
0.58
0.66
0.68
0.64
0.58
0.56
0.59
0.68
0.81
0.91
0.95
0.89
0.75
0.59
0.47
0.46
0.58
0.82
1.06
1.21
1.17
0.94
0.62
0.34
0.22
0.28
0.48
0.69
0.86
0.96
1.04
1.17
1.35
1.52
1.62
1.62
1.57
1.53
1.56
1.64
1.69
1.57
1.25
0.76
0.22
-0.21
-0.45
-0.47
-0.33
-0.12
0.08
0.23
0.36
0.45
0.54
0.60
0.61
0.57
0.51
0.46
0.48
0.57
0.71
0.81
0.80
0.64
0.34
-0.04
-0.40
-0.68
-0.83
-0.84
-0.73
-0.54
-0.30
-0.06
0.14
0.27
0.30
0.24
0.14
0.07
0.11
0.26
0.48
0.66
0.70
0.59
0.37
0.16
0.07
0.12
0.27
0.40
0.45
0.40
0.32
0.28
0.35
0.51
0.70
0.85
0.92
0.94
0.92
0.91
0.89
0.82
0.70
0.51
0.33
0.22
0.23
0.33
0.42
0.42
0.29
0.10
-0.04
-0.01
0.21
0.54
0.81
0.90
0.76
0.46
0.17
0.00
0.00
0.11
0.25
0.33
0.34
0.29
0.22
0.18
0.15
0.12
0.07
0.01
-0.06
-0.11
-0.10
-0.04
0.07
0.16
0.20
0.15
0.04
-0.09
-0.15
-0.09
0.08
0.29
0.44
0.48
0.38
0.19
-0.00
-0.12
-0.10
0.01
0.15
0.25
0.26
0.16
-0.01
-0.20
-0.35
-0.42
-0.43
-0.37
-0.27
-0.14
-0.02
0.08
0.16
0.23
0.32
0.41
0.49
0.50
0.40
0.22
0.01
-0.14
-0.17
-0.08
0.10
0.31
0.52
0.68
0.77
0.76
0.67
0.51
0.35
0.27
0.30
0.41
0.51
0.48
0.29
-0.04
-0.37
-0.57
-0.55
-0.32
0.04
0.42
0.74
0.94
1.03
1.05
1.00
0.89
0.70
0.43
0.15
-0.09
-0.22
-0.25
-0.20
-0.16
-0.18
-0.24
-0.30
-0.32
-0.29
-0.24
-0.24
-0.33
-0.47
-0.62
-0.72
-0.75
-0.73
-0.72
-0.73
-0.77
-0.78
-0.75
-0.67
-0.58
-0.53
-0.59
-0.77
-1.06
-1.40
-1.71
-1.92
-2.05
-2.14
-2.33
-2.69
-3.27
-3.99
-4.68
-5.17
-5.36
-5.29
-5.14
-5.16
-5.58
-6.51
-7.97
-9.82
-11.89
-14.00
-15.96
-17.60
-18.79
-19.52
-19.88
-20.11
-20.49
-21.28
-22.59
-24.49
-26.93
-29.90
-33.34
-37.16
-41.16
-45.09
-48.77
-52.25
-55.90
-60.29
-65.95
-72.97
-80.92
-88.83
-95.67
-100.80
-104.34
-107.21
-110.74
-116.13
-124.00
-134.33
-146.66
-160.26
-174.06
-186.27
-194.38
-195.51
-187.48
-169.62
-143.17
-110.47
-73.77
-34.12
8.50
54.05
100.98
145.69
183.36
209.99
224.24
228.04
225.54
221.13
217.60
215.55
214.06
212.12
209.66
207.76
207.98
211.25
217.21
224.26
230.46
234.42
236.00
236.36
237.22
239.92
244.85
251.38
258.27
264.16
267.81
267.99
263.30
252.27
233.73
207.38
174.01
135.25
92.76
47.51
-0.32
-50.63
-102.17
-151.86
-195.10
-227.24
-245.50
-250.12
-244.25
-232.42
-218.76
-205.59
-193.25
-181.02
-168.31
-155.39
-143.28
-133.01
-124.90
-118.28
-111.91
-104.66
-96.08
-86.50
-76.91
-68.30
-61.32
-55.95
-51.67
-47.70
-43.40
-38.51
-33.25
-28.16
-23.81
-20.55
-18.35
-16.89
-15.67
-14.26
-12.45
-10.32
-8.11
-6.15
-4.62
-3.52
-2.70
-1.91
-1.02
-0.03
0.91
1.60
1.92
1.87
1.60
1.30
1.12
1.10
1.18
1.27
1.28
1.20
1.08
0.96
0.92
0.95
1.02
1.07
1.06
0.98
0.89
0.81
0.75
0.66
0.49
0.24
-0.04
-0.25
-0.35
-0.35
-0.36
-0.46
-0.66
-0.85
-0.91
-0.77
-0.48
-0.19
-0.07
-0.20
-0.52
-0.89
-1.16
-1.26
-1.22
-1.11
-0.97
-0.76
-0.41
0.18
0.97
1.86
2.65
3.18
3.36
3.23
2.90
2.47
1.99
1.42
0.74
0.01
-0.64
-1.02
-1.04
-0.71
-0.19
0.27
0.51
0.47
0.21
-0.14
-0.49
-0.77
-0.99
-1.15
-1.26
-1.31
-1.34
-1.38
-1.44
-1.50
-1.53
-1.48
-1.33
-1.10
-0.85
-0.61
-0.40
-0.21
0.01
0.29
0.66
1.15
1.79
2.54
3.32
3.96
4.27
4.09
3.41
2.38
1.23
0.22
-0.49
-0.85
-0.93
-0.84
-0.66
-0.46
-0.26
-0.10
-0.03
-0.08
-0.25
-0.52
-0.79
-1.03
-1.22
-1.38
-1.51
-1.61
-1.61
-1.52
-1.34
-1.12
-0.95
-0.85
-0.79
-0.69
-0.47
-0.12
0.35
0.87
1.38
1.84
2.26
2.61
2.85
2.92
2.77
2.40
1.91
1.42
1.03
0.78
0.66
0.58
0.48
0.29
-0.01
-0.43
-0.96
-1.56
-2.17
-2.66
-2.94
-2.93
-2.67
-2.26
-1.87
-1.62
-1.58
-1.73
-1.97
-2.18
-2.26
-2.14
-1.79
-1.22
-0.49
0.29
1.02
1.61
2.01
2.24
2.34
2.38
2.42
2.45
2.49
2.52
2.50
2.40
2.15
1.71
1.07
0.32
-0.41
-0.95
-1.21
-1.23
-1.16
-1.18
-1.41
-1.86
-2.38
-2.75
-2.85
-2.64
-2.22
-1.74
-1.28
-0.89
-0.55
-0.24
0.03
0.21
0.30
0.40
0.66
1.22
2.09
3.11
4.00
4.44
4.30
3.59
2.54
1.43
0.49
-0.14
-0.42
-0.41
-0.22
0.07
0.34
0.52
0.51
0.27
-0.18
-0.79
-1.46
-2.07
-2.51
-2.71
-2.65
-2.38
-2.02
-1.68
-1.43
-1.26
-1.12
-0.95
-0.74
-0.52
-0.37
-0.31
-0.30
-0.20
0.16
0.86
1.84
2.88
3.67
3.97
3.68
2.91
1.90
0.95
0.26
-0.14
-0.32
-0.41
-0.51
-0.63
-0.70
-0.67
-0.57
-0.47
-0.47
-0.67
-1.06
-1.54
-1.97
-2.23
-2.27
-2.10
-1.83
-1.51
-1.24
-1.07
-1.04
-1.15
-1.31
-1.37
-1.12
-0.44
0.64
1.90
3.03
3.76
3.95
3.65
3.06
2.37
1.70
1.11
0.63
0.30
0.17
0.24
0.45
0.68
0.77
0.65
0.33
-0.14
-0.67
-1.19
-1.63
-1.96
-2.12
-2.06
-1.82
-1.49
-1.20
-1.10
-1.21
-1.47
-1.72
-1.82
-1.69
-1.33
-0.84
-0.34
0.09
0.40
0.62
0.81
1.07
1.42
1.85
2.30
2.67
2.90
2.94
2.78
2.43
1.94
1.34
0.69
0.06
-0.48
-0.88
-1.14
-1.28
-1.32
-1.31
-1.26
-1.19
-1.11
-1.03
-0.94
-0.83
-0.68
-0.49
-0.32
-0.23
-0.26
-0.43
-0.70
-0.98
-1.17
-1.16
-0.88
-0.33
0.41
1.18
1.78
2.06
1.93
1.46
0.83
0.22
-0.24
-0.51
-0.64
-0.67
-0.61
-0.46
-0.22
0.08
0.34
0.46
0.38
0.16
-0.11
-0.29
-0.34
-0.26
-0.09
0.09
0.24
0.34
0.39
0.42
0.45
0.51
0.60
0.69
0.75
0.72
0.58
0.33
0.07
-0.11
-0.12
0.04
0.30
0.56
0.72
0.74
0.64
0.47
0.30
0.14
-0.02
-0.20
-0.42
-0.64
-0.85
-0.99
-1.04
-1.00
-0.87
-0.69
-0.49
-0.33
-0.27
-0.37
-0.64
-0.99
-1.27
-1.31
-1.03
-0.48
0.16
0.69
0.96
0.93
0.69
0.37
0.10
-0.09
-0.18
-0.19
-0.12
-0.00
0.15
0.29
0.37
0.34
0.21
0.01
-0.20
-0.37
-0.46
-0.45
-0.36
-0.22
-0.06
0.10
0.25
0.38
0.52
0.67
0.79
0.85
0.80
0.65
0.42
0.20
0.04
-0.00
0.03
0.07
0.05
-0.06
-0.22
-0.37
-0.44
-0.40
-0.28
-0.12
-0.01
0.04
0.03
0.05
0.13
0.28
0.43
0.50
0.44
0.28
0.13
0.05
0.08
0.19
0.29
0.33
0.32
0.28
0.24
0.19
0.10
-0.04
-0.18
-0.23
-0.11
0.16
0.45
0.60
0.48
0.07
-0.48
-0.96
-1.20
-1.16
-0.93
-0.65
-0.44
-0.35
-0.37
-0.46
-0.56
-0.66
-0.73
-0.76
-0.72
-0.62
-0.47
-0.31
-0.15
-0.00
0.14
0.27
0.34
0.31
0.18
0.01
-0.14
-0.22
-0.21
-0.16
-0.10
-0.03
0.09
0.32
0.62
0.90
1.04
0.97
0.73
0.42
0.21
0.17
0.28
0.45
0.56
0.58
0.51
0.42
0.37
0.32
0.23
0.06
-0.19
-0.42
-0.56
-0.55
-0.44
-0.31
-0.26
-0.33
-0.46
-0.54
-0.50
-0.34
-0.12
0.03
0.04
-0.07
-0.23
-0.33
-0.30
-0.15
0.09
0.37
0.65
0.91
1.13
1.28
1.34
1.30
1.14
0.90
0.63
0.40
0.24
0.17
0.15
0.12
0.03
-0.13
-0.31
-0.44
-0.47
-0.40
-0.29
-0.22
-0.26
-0.40
-0.61
-0.82
-1.01
-1.17
-1.29
-1.37
-1.39
-1.30
-1.11
-0.85
-0.55
-0.26
-0.01
0.19
0.35
0.47
0.57
0.64
0.68
0.70
0.70
0.68
0.66
0.65
0.65
0.64
0.61
0.56
0.51
0.46
0.44
0.43
0.44
0.46
0.48
0.52
0.54
0.53
0.46
0.30
0.07
-0.20
-0.49
-0.72
-0.88
-0.97
-0.98
-0.96
-0.91
-0.84
-0.75
-0.64
-0.52
-0.42
-0.37
-0.35
-0.37
-0.37
-0.31
-0.17
0.03
0.21
0.30
0.25
0.07
-0.17
-0.37
-0.42
-0.31
-0.08
0.19
0.38
0.44
0.40
0.31
0.25
0.24
0.27
0.27
0.24
0.17
0.12
0.14
0.21
0.30
0.33
0.26
0.06
-0.18
-0.39
-0.47
-0.37
-0.12
0.18
0.42
0.49
0.36
0.08
-0.25
-0.52
-0.65
-0.64
-0.53
-0.39
-0.26
-0.14
0.00
0.19
0.41
0.65
0.85
1.00
1.10
1.15
1.15
1.07
0.88
0.57
0.22
-0.08
-0.24
-0.23
-0.10
0.03
0.06
-0.07
-0.31
-0.56
-0.72
-0.74
-0.66
-0.52
-0.41
-0.36
-0.37
-0.40
-0.42
-0.45
-0.49
-0.55
-0.59
-0.56
-0.41
-0.13
0.19
0.45
0.53
0.42
0.17
-0.09
-0.27
-0.28
-0.12
0.14
0.44
0.69
0.85
0.88
0.79
0.61
0.39
0.20
0.08
0.06
0.13
0.26
0.38
0.46
0.45
0.34
0.17
0.01
-0.05
0.03
0.21
0.38
0.45
0.34
0.10
-0.20
-0.47
-0.68
-0.83
-0.90
-0.84
-0.61
-0.21
0.28
0.67
0.79
0.58
0.15
-0.31
-0.58
-0.59
-0.41
-0.15
0.08
0.26
0.40
0.52
0.59
0.57
0.45
0.27
0.10
-0.04
-0.16
-0.29
-0.49
-0.72
-0.89
-0.90
-0.74
-0.46
-0.21
-0.11
-0.22
-0.49
-0.80
-1.02
-1.08
-0.98
-0.74
-0.39
0.02
0.47
0.88
1.20
1.36
1.35
1.19
0.96
0.73
0.54
0.38
0.25
0.11
-0.04
-0.20
-0.35
-0.47
-0.53
-0.54
-0.50
-0.47
-0.49
-0.61
-0.82
-1.04
-1.19
-1.16
-0.95
-0.58
-0.16
0.24
0.54
0.73
0.79
0.75
0.60
0.39
0.14
-0.08
-0.26
-0.38
-0.43
-0.44
-0.42
-0.37
-0.33
-0.30
-0.27
-0.20
-0.02
0.27
0.66
1.01
1.17
1.04
0.64
0.12
-0.30
-0.45
-0.29
0.10
0.53
0.82
0.88
0.73
0.47
0.22
0.05
-0.03
-0.05
-0.05
-0.05
-0.05
-0.01
0.06
0.16
0.28
0.37
0.43
0.44
0.40
0.31
0.19
0.06
-0.06
-0.16
-0.23
-0.29
-0.35
-0.39
-0.39
-0.31
-0.15
0.06
0.25
0.35
0.34
0.22
0.05
-0.09
-0.15
-0.11
0.01
0.15
0.27
0.31
0.29
0.25
0.22
0.24
0.28
0.30
0.26
0.18
0.10
0.08
0.15
0.26
0.30
0.21
-0.04
-0.39
-0.73
-0.95
-1.01
-0.89
-0.65
-0.35
-0.06
0.11
0.13
-0.02
-0.27
-0.53
-0.67
-0.63
-0.45
-0.19
0.05
0.21
0.30
0.34
0.36
0.39
0.43
0.46
0.46
0.40
0.23
-0.01
-0.29
-0.54
-0.67
-0.65
-0.48
-0.26
-0.08
-0.02
-0.11
-0.30
-0.54
-0.75
-0.90
-0.93
-0.81
-0.52
-0.12
0.31
0.67
0.85
0.85
0.73
0.59
0.50
0.47
0.47
0.45
0.39
0.31
0.29
0.33
0.40
0.42
0.33
0.11
-0.13
-0.28
-0.24
-0.01
0.30
0.57
0.65
0.52
0.21
-0.18
-0.53
-0.73
-0.75
-0.60
-0.35
-0.10
0.06
0.10
0.04
-0.07
-0.14
-0.14
-0.04
0.13
0.34
0.55
0.68
0.66
0.43
-0.03
-0.67
-1.42
-2.20
-2.97
-3.69
-4.37
-4.96
-5.41
-5.70
-5.86
-5.99
-6.20
-6.58
-7.18
-7.98
-8.89
-9.79
-10.60
-11.26
-11.80
-12.36
-13.18
-14.49
-16.40
-18.87
-21.62
-24.30
-26.66
-28.68
-30.67
-33.10
-36.43
-40.75
-45.76
-50.85
-55.36
-59.03
-62.14
-65.47
-69.95
-76.12
-83.97
-92.89
-102.02
-110.66
-118.48
-125.54
-132.05
-138.24
-144.39
-150.97
-158.64
-167.96
-178.72
-189.37
-196.97
-197.93
-189.23
-169.59
-139.91
-102.62
-60.37
-14.85
33.49
84.57
137.30
188.65
234.03
268.80
290.36
299.31
299.22
295.00
290.83
288.64
288.03
287.26
284.80
280.31
274.85
270.18
267.81
268.39
271.65
276.79
282.91
289.09
294.26
296.77
294.43
284.90
266.52
239.00
203.61
162.67
118.61
72.91
25.86
-22.92
-73.19
-123.12
-169.11
-206.69
-232.27
-244.50
-244.85
-236.86
-224.64
-211.36
-198.53
-186.25
-174.12
-162.05
-150.52
-140.29
-131.73
-124.53
-117.77
-110.45
-102.05
-92.75
-83.35
-74.83
-67.86
-62.53
-58.32
-54.41
-50.05
-44.92
-39.23
-33.59
-28.66
-24.86
-22.19
-20.26
-18.53
-16.55
-14.14
-11.47
-8.85
-6.65
-5.08
-4.13
-3.63
-3.29
-2.88
-2.26
-1.46
-0.58
0.19
0.76
1.04
1.06
0.88
0.58
0.23
-0.11
-0.41
-0.63
-0.72
-0.64
-0.39
-0.01
0.39
0.68
0.78
0.69
0.46
0.22
0.07
0.03
0.06
0.10
0.06
-0.07
-0.25
-0.41
-0.47
-0.41
-0.25
-0.02
0.19
0.32
0.32
0.20
-0.01
-0.21
-0.31
-0.22
0.04
0.40
0.73
0.92
0.92
0.73
0.44
0.14
-0.10
-0.24
-0.27
-0.19
0.03
0.38
0.84
1.34
1.77
1.98
1.87
1.44
0.78
0.06
-0.50
-0.77
-0.72
-0.42
-0.04
0.29
0.49
0.54
0.49
0.39
0.26
0.14
0.03
-0.09
-0.24
-0.40
-0.56
-0.68
-0.73
-0.74
-0.72
-0.72
-0.74
-0.78
-0.78
-0.70
-0.55
-0.34
-0.09
0.14
0.35
0.48
0.51
0.44
0.30
0.17
0.16
0.31
0.60
0.91
1.08
1.02
0.71
0.25
-0.19
-0.45
-0.43
-0.13
0.35
0.86
1.26
1.44
1.37
1.08
0.66
0.20
-0.25
-0.64
-0.99
-1.31
-1.59
-1.77
-1.81
-1.69
-1.45
-1.15
-0.88
-0.66
-0.51
-0.43
-0.40
-0.46
-0.63
-0.91
-1.22
-1.45
-1.52
-1.39
-1.11
-0.77
-0.45
-0.20
0.00
0.20
0.42
0.67
0.95
1.27
1.68
2.21
2.87
3.56
4.11
4.32
4.06
3.33
2.29
1.14
0.12
-0.63
-1.02
-1.10
-0.94
-0.69
-0.44
-0.25
-0.15
-0.11
-0.14
-0.25
-0.48
-0.83
-1.25
-1.65
-1.90
-1.95
-1.85
-1.70
-1.63
-1.67
-1.77
-1.80
-1.67
-1.34
-0.86
-0.32
0.21
0.73
1.27
1.86
2.50
3.08
3.45
3.49
3.13
2.44
1.60
0.82
0.25
-0.05
-0.15
-0.18
-0.27
-0.47
-0.73
-0.95
-1.04
-1.00
-0.89
-0.82
-0.87
-1.02
-1.25
-1.47
-1.63
-1.72
-1.76
-1.76
-1.74
-1.69
-1.57
