1660936886.00
64.000000
-0.00
-0.00
-0.00
-0.00
-0.00
-0.00
-0.00
-0.00
-0.00
-0.00
0.00
0.01
0.01
-0.00
-0.03
-0.05
-0.05
0.00
0.13
0.36
0.66
1.01
1.37
1.72
2.06
2.40
2.79
3.25
3.81
4.44
5.10
5.73
6.32
6.89
7.51
8.24
9.14
10.29
11.58
12.86
14.03
15.02
15.92
16.92
18.26
20.09
22.62
25.62
28.79
31.82
34.57
37.17
39.97
43.46
47.95
53.78
60.54
67.63
74.48
80.77
86.70
92.90
100.16
109.02
119.89
132.07
144.61
156.54
167.43
177.56
187.91
200.01
212.58
227.63
245.36
265.47
286.59
306.00
319.81
323.98
315.55
293.64
260.24
218.51
172.12
123.99
75.86
28.59
-17.21
-60.80
-101.38
-138.30
-172.05
-203.91
-235.62
-268.73
-303.77
-339.66
-373.51
-401.25
-418.66
-423.02
-414.14
-394.51
-368.26
-339.65
-311.63
-285.30
-260.46
-236.41
-213.04
-190.97
-171.05
-153.75
-138.74
-125.04
-111.56
-97.66
-83.41
-69.56
-57.06
-46.57
-38.11
-31.15
-24.85
-18.51
-11.85
-5.07
1.28
6.62
10.65
13.46
15.47
17.23
19.16
21.37
23.67
25.67
27.02
27.57
27.45
26.99
26.53
26.31
26.32
26.39
26.31
25.88
25.13
24.15
23.16
22.31
21.65
21.12
20.59
19.98
19.27
18.54
17.87
17.32
16.88
16.50
16.09
15.60
15.05
14.50
14.02
13.61
13.26
12.90
12.52
12.12
11.76
11.51
11.37
11.31
11.24
11.09
10.85
10.54
10.23
9.95
9.67
9.34
8.92
8.40
7.86
7.41
7.18
7.18
7.36
7.57
7.65
7.47
7.00
6.34
5.62
5.00
4.52
4.17
3.88
3.57
3.21
2.82
2.43
2.07
1.71
1.31
0.86
0.38
-0.12
-0.61
-1.11
-1.66
-2.28
-2.98
-3.73
-4.48
-5.21
-5.89
-6.54
-7.14
-7.70
-8.18
-8.57
-8.86
-9.06
-9.20
-9.29
-9.35
-9.39
-9.41
-9.38
-9.27
-8.99
-8.53
-7.85
-7.00
-6.06
-5.14
-4.38
-3.89
-3.66
-3.61
-3.56
-3.34
-2.87
-2.19
-1.47
-0.86
-0.44
-0.13
0.18
0.58
1.05
1.49
1.77
1.87
1.87
1.92
2.11
2.47
2.91
3.31
3.57
3.68
3.71
3.76
3.91
4.19
4.54
4.85
5.01
4.97
4.74
4.45
4.19
4.05
4.05
4.12
4.20
4.24
4.24
4.21
4.20
4.22
4.27
4.31
4.32
4.27
4.19
4.10
4.04
4.03
4.06
4.14
4.26
4.44
4.66
4.88
5.02
4.97
4.66
4.10
3.41
2.76
2.32
2.18
2.31
2.62
2.94
3.14
3.15
2.97
2.64
2.22
1.78
1.38
1.08
0.93
0.94
1.10
1.32
1.54
1.70
1.77
1.76
1.68
1.52
1.29
1.00
0.75
0.63
0.69
0.92
1.21
1.45
1.60
1.69
1.79
1.94
2.13
2.29
2.34
2.25
2.08
1.87
1.68
1.52
1.35
1.19
1.07
1.07
1.20
1.44
1.66
1.74
1.57
1.19
0.69
0.27
0.09
0.20
0.54
0.94
1.24
1.34
1.23
1.03
0.83
0.69
0.60
0.54
0.50
0.48
0.54
0.70
0.93
1.16
1.29
1.26
1.05
0.71
0.33
0.02
-0.13
-0.07
0.15
0.47
0.81
1.09
1.29
1.43
1.52
1.55
1.48
1.29
0.98
0.61
0.28
0.07
0.01
0.09
0.22
0.35
0.45
0.54
0.66
0.81
0.97
1.08
1.09
0.99
0.84
0.71
0.64
0.66
0.68
0.63
0.46
0.21
0.00
-0.04
0.14
0.49
0.88
1.16
1.27
1.23
1.16
1.17
1.27
1.41
1.45
1.32
1.00
0.58
0.15
-0.19
-0.41
-0.50
-0.48
-0.36
-0.14
0.12
0.37
0.53
0.56
0.51
0.45
0.42
0.45
0.49
0.46
0.34
0.16
-0.00
-0.08
-0.07
-0.03
-0.04
-0.14
-0.32
-0.49
-0.57
-0.49
-0.23
0.18
0.63
1.05
1.36
1.53
1.58
1.56
1.50
1.42
1.31
1.15
0.93
0.68
0.46
0.34
0.34
0.41
0.48
0.47
0.36
0.19
0.08
0.12
0.35
0.69
0.99
1.10
0.91
0.46
-0.10
-0.59
-0.89
-0.97
-0.90
-0.78
-0.66
-0.51
-0.25
0.17
0.71
1.23
1.53
1.51
1.18
0.66
0.14
-0.23
-0.39
-0.35
-0.18
0.03
0.24
0.40
0.50
0.55
0.55
0.51
0.39
0.20
-0.08
-0.38
-0.61
-0.70
-0.62
-0.41
-0.15
0.07
0.22
0.32
0.38
0.39
0.32
0.15
-0.12
-0.44
-0.73
-0.90
-0.88
-0.64
-0.24
0.22
0.56
0.61
0.28
-0.38
-1.19
-1.91
-2.34
-2.45
-2.35
-2.22
-2.25
-2.50
-2.89
-3.30
-3.64
-3.90
-4.16
-4.53
-5.12
-5.96
-7.02
-8.18
-9.30
-10.25
-10.97
-11.50
-11.96
-12.53
-13.39
-14.63
-16.25
-18.09
-19.94
-21.57
-22.91
-24.12
-25.58
-27.78
-31.15
-35.87
-41.75
-48.28
-54.83
-60.90
-66.35
-71.47
-76.82
-82.98
-90.26
-98.48
-107.02
-115.06
-122.01
-127.81
-133.06
-138.79
-146.12
-155.81
-168.04
-182.18
-196.66
-209.08
-216.40
-215.69
-204.92
-183.63
-153.12
-115.87
-74.44
-30.40
15.95
64.83
115.69
166.12
211.86
248.19
271.82
282.37
282.65
277.43
271.53
268.21
268.44
271.36
275.39
279.28
282.59
285.57
288.72
292.27
296.14
300.02
303.65
306.84
309.37
310.58
309.08
302.87
289.81
268.46
238.66
201.74
159.97
115.60
69.91
22.99
-25.65
-75.88
-125.86
-171.92
-209.54
-235.00
-246.90
-246.69
-237.93
-224.77
-210.48
-196.66
-183.55
-170.88
-158.64
-147.35
-137.63
-129.70
-123.04
-116.59
-109.31
-100.73
-91.13
-81.41
-72.66
-65.59
-60.30
-56.23
-52.51
-48.36
-43.43
-37.93
-32.47
-27.69
-23.96
-21.27
-19.26
-17.43
-15.40
-13.04
-10.49
-8.04
-5.99
-4.47
-3.46
-2.79
-2.25
-1.70
-1.10
-0.49
0.01
0.31
0.37
0.21
-0.09
-0.39
-0.62
-0.73
-0.73
-0.70
-0.70
-0.76
-0.84
-0.86
-0.76
-0.54
-0.28
-0.09
-0.05
-0.16
-0.35
-0.47
-0.40
-0.09
0.45
1.11
1.76
2.29
2.61
2.70
2.59
2.33
1.98
1.55
1.07
0.56
0.06
-0.38
-0.71
-0.90
-0.95
-0.92
-0.84
-0.76
-0.73
-0.74
-0.78
-0.82
-0.79
-0.66
-0.39
0.02
0.54
1.11
1.64
2.03
2.19
2.07
1.70
1.18
0.70
0.36
0.19
0.10
-0.07
-0.44
-1.01
-1.63
-2.09
-2.20
-1.91
-1.31
-0.62
-0.04
0.29
0.35
0.17
-0.16
-0.61
-1.15
-1.72
-2.23
-2.53
-2.52
-2.17
-1.58
-0.92
-0.38
-0.05
0.10
0.18
0.34
0.64
1.06
1.49
1.83
2.02
2.10
2.12
2.15
2.22
2.31
2.37
2.35
2.22
2.00
1.69
1.32
0.90
0.43
-0.10
-0.68
-1.33
-2.03
-2.74
-3.41
-3.96
-4.32
-4.45
-4.40
-4.23
-4.08
-4.00
-4.02
-4.03
-3.90
-3.52
-2.82
-1.83
-0.58
0.87
2.47
4.14
5.76
7.15
8.17
8.71
8.77
8.44
7.83
7.02
6.05
4.92
3.65
2.33
1.09
0.11
-0.52
-0.78
-0.75
-0.56
-0.34
-0.18
-0.12
-0.12
-0.18
-0.31
-0.57
-1.01
-1.63
-2.37
-3.10
-3.69
-4.05
-4.17
-4.12
-4.02
-3.96
-3.97
-4.01
-3.95
-3.67
-3.13
-2.36
-1.50
-0.69
-0.04
0.42
0.78
1.16
1.65
2.27
2.94
3.52
3.88
3.91
3.63
3.13
2.56
2.07
1.73
1.51
1.30
0.94
0.37
-0.39
-1.20
-1.91
-2.42
-2.74
-2.96
-3.18
-3.42
-3.63
-3.71
-3.56
-3.16
-2.55
-1.80
-0.99
-0.16
0.69
1.55
2.44
3.32
4.11
4.72
5.05
5.04
4.70
4.10
3.37
2.61
1.90
1.24
0.65
0.16
-0.18
-0.33
-0.30
-0.19
-0.15
-0.31
-0.69
-1.18
-1.61
-1.83
-1.81
-1.66
-1.56
-1.66
-2.02
-2.57
-3.12
-3.47
-3.50
-3.16
-2.49
-1.59
-0.59
0.39
1.18
1.67
1.78
1.51
0.98
0.38
-0.09
-0.26
-0.05
0.47
1.18
1.89
2.45
2.76
2.83
2.75
2.61
2.46
2.26
1.92
1.33
0.48
-0.57
-1.68
-2.69
-3.53
-4.18
-4.66
-4.99
-5.13
-5.06
-4.79
-4.40
-3.97
-3.60
-3.29
-2.98
-2.51
-1.75
-0.61
0.88
2.63
4.48
6.23
7.70
8.68
9.03
8.61
7.43
5.65
3.56
1.53
-0.11
-1.16
-1.62
-1.62
-1.39
-1.09
-0.84
-0.65
-0.52
-0.47
-0.53
-0.75
-1.15
-1.67
-2.19
-2.60
-2.86
-3.01
-3.15
-3.35
-3.60
-3.81
-3.82
-3.53
-2.95
-2.24
-1.57
-1.13
-0.94
-0.91
-0.88
-0.71
-0.34
0.22
0.89
1.58
2.23
2.79
3.25
3.59
3.79
3.84
3.73
3.48
3.11
2.63
1.99
1.17
0.16
-0.95
-2.02
-2.84
-3.30
-3.39
-3.23
-3.00
-2.85
-2.82
-2.86
-2.87
-2.75
-2.45
-1.89
-1.04
0.14
1.66
3.43
5.29
7.00
8.26
8.84
8.64
7.73
6.32
4.71
3.18
1.88
0.88
0.13
-0.44
-0.88
-1.22
-1.47
-1.64
-1.75
-1.82
-1.87
-1.90
-1.90
-1.88
-1.84
-1.84
-1.93
-2.17
-2.57
-3.08
-3.60
-3.98
-4.11
-3.96
-3.56
-3.04
-2.51
-2.06
-1.73
-1.47
-1.22
-0.90
-0.49
0.01
0.56
1.13
1.64
2.08
2.40
2.63
2.79
2.94
3.13
3.38
3.66
3.87
3.87
3.59
3.04
2.34
1.65
1.11
0.79
0.64
0.57
0.47
0.27
-0.02
-0.36
-0.69
-0.97
-1.17
-1.29
-1.37
-1.41
-1.40
-1.34
-1.18
-0.96
-0.71
-0.52
-0.42
-0.46
-0.61
-0.79
-0.91
-0.93
-0.86
-0.75
-0.69
-0.74
-0.90
-1.14
-1.40
-1.64
-1.79
-1.81
-1.64
-1.25
-0.67
0.01
0.63
1.04
1.17
1.05
0.83
0.68
0.72
0.93
1.21
1.41
1.44
1.30
1.08
0.91
0.85
0.88
0.94
0.92
0.78
0.55
0.28
0.04
-0.13
-0.23
-0.24
-0.18
-0.04
0.13
0.22
0.16
-0.10
-0.45
-0.77
-0.88
-0.78
-0.54
-0.33
-0.27
-0.39
-0.60
-0.78
-0.86
-0.83
-0.74
-0.65
-0.56
-0.46
-0.32
-0.17
-0.05
0.03
0.05
0.06
0.09
0.11
0.10
0.03
-0.09
-0.22
-0.30
-0.29
-0.21
-0.11
-0.02
0.04
0.10
0.16
0.26
0.38
0.51
0.62
0.71
0.76
0.77
0.75
0.72
0.68
0.64
0.60
0.54
0.46
0.34
0.18
0.01
-0.12
-0.13
0.05
0.41
0.82
1.08
1.03
0.61
-0.07
-0.78
-1.25
-1.35
-1.12
-0.74
-0.39
-0.21
-0.20
-0.28
-0.35
-0.33
-0.19
0.07
0.40
0.72
0.92
0.90
0.61
0.13
-0.39
-0.72
-0.72
-0.39
0.08
0.45
0.51
0.24
-0.25
-0.75
-1.06
-1.11
-0.95
-0.68
-0.43
-0.25
-0.17
-0.18
-0.26
-0.40
-0.55
-0.64
-0.61
-0.41
-0.03
0.47
0.98
1.37
1.51
1.36
0.95
0.45
0.06
-0.09
0.05
0.37
0.70
0.88
0.87
0.69
0.43
0.15
-0.11
-0.38
-0.66
-0.92
-1.09
-1.08
-0.87
-0.49
-0.08
0.23
0.36
0.29
0.09
-0.11
-0.21
-0.15
0.02
0.21
0.34
0.34
0.25
0.12
0.05
0.07
0.16
0.25
0.26
0.15
-0.03
-0.22
-0.34
-0.34
-0.25
-0.13
-0.05
-0.07
-0.17
-0.29
-0.35
-0.30
-0.13
0.11
0.32
0.40
0.32
0.11
-0.16
-0.42
-0.60
-0.72
-0.77
-0.80
-0.82
-0.82
-0.79
-0.70
-0.53
-0.28
0.01
0.28
0.48
0.59
0.61
0.59
0.55
0.53
0.51
0.50
0.51
0.57
0.71
0.90
1.08
1.16
1.08
0.82
0.47
0.13
-0.11
-0.18
-0.12
0.00
0.11
0.16
0.17
0.19
0.23
0.25
0.19
-0.02
-0.36
-0.76
-1.09
-1.26
-1.24
-1.08
-0.88
-0.72
-0.61
-0.52
-0.42
-0.30
-0.19
-0.09
-0.02
0.08
0.24
0.48
0.76
0.99
1.10
1.04
0.82
0.51
0.18
-0.09
-0.25
-0.28
-0.17
0.05
0.31
0.54
0.65
0.62
0.45
0.23
-0.01
-0.22
-0.42
-0.61
-0.76
-0.84
-0.81
-0.68
-0.49
-0.34
-0.29
-0.34
-0.45
-0.55
-0.60
-0.56
-0.44
-0.24
0.02
0.30
0.58
0.82
0.96
1.00
0.95
0.81
0.62
0.38
0.12
-0.14
-0.35
-0.50
-0.54
-0.46
-0.26
0.03
0.38
0.68
0.84
0.78
0.49
0.03
-0.44
-0.78
-0.89
-0.79
-0.56
-0.34
-0.22
-0.22
-0.28
-0.30
-0.26
-0.15
-0.01
0.10
0.17
0.20
0.19
0.15
0.09
0.00
-0.09
-0.17
-0.20
-0.19
-0.12
-0.02
0.10
0.22
0.31
0.32
0.21
-0.05
-0.43
-0.84
-1.19
-1.36
-1.29
-0.99
-0.54
-0.04
0.39
0.70
0.88
0.94
0.91
0.80
0.63
0.39
0.12
-0.07
-0.13
0.01
0.28
0.60
0.83
0.89
0.75
0.48
0.19
-0.04
-0.16
-0.18
-0.15
-0.15
-0.22
-0.33
-0.41
-0.38
-0.17
0.19
0.59
0.92
1.05
0.99
0.79
0.54
0.34
0.25
0.27
0.35
0.42
0.45
0.40
0.31
0.22
0.15
0.09
-0.03
-0.26
-0.61
-1.00
-1.30
-1.40
-1.26
-0.95
-0.57
-0.22
0.07
0.29
0.44
0.46
0.31
-0.02
-0.45
-0.83
-1.01
-0.94
-0.70
-0.48
-0.42
-0.54
-0.71
-0.75
-0.54
-0.07
0.48
0.88
0.98
0.73
0.28
-0.17
-0.43
-0.40
-0.15
0.17
0.41
0.48
0.36
0.15
-0.04
-0.11
-0.04
0.12
0.28
0.33
0.20
-0.08
-0.43
-0.69
-0.76
-0.56
-0.14
0.38
0.85
1.10
1.10
0.88
0.57
0.27
0.03
-0.17
-0.37
-0.59
-0.76
-0.80
-0.64
-0.31
0.06
0.34
0.47
0.46
0.43
0.47
0.59
0.72
0.81
0.78
0.66
0.50
0.32
0.17
0.03
-0.05
-0.06
-0.01
0.07
0.09
-0.02
-0.26
-0.55
-0.77
-0.86
-0.80
-0.67
-0.52
-0.40
-0.29
-0.16
0.05
0.32
0.59
0.81
0.89
0.83
0.67
0.50
0.34
0.24
0.16
0.06
-0.08
-0.24
-0.38
-0.43
-0.37
-0.22
-0.05
0.07
0.11
0.05
-0.08
-0.25
-0.39
-0.47
-0.47
-0.38
-0.24
-0.11
-0.06
-0.12
-0.28
-0.50
-0.65
-0.67
-0.51
-0.22
0.11
0.33
0.39
0.26
0.03
-0.20
-0.32
-0.28
-0.11
0.17
0.48
0.75
0.90
0.85
0.62
0.29
-0.02
-0.17
-0.14
-0.02
0.06
-0.00
-0.19
-0.38
-0.42
-0.24
0.10
0.46
0.70
0.75
0.70
0.65
0.68
0.77
0.82
0.71
0.43
0.06
-0.28
-0.46
-0.44
-0.32
-0.21
-0.20
-0.27
-0.31
-0.19
0.15
0.60
0.99
1.15
0.99
0.62
0.23
0.04
0.12
0.43
0.80
1.05
1.05
0.80
0.36
-0.16
-0.62
-0.98
-1.20
-1.30
-1.28
-1.15
-0.93
-0.65
-0.35
-0.11
0.02
0.01
-0.10
-0.26
-0.38
-0.39
-0.25
0.05
0.42
0.75
0.90
0.78
0.39
-0.16
-0.70
-1.05
-1.16
-1.09
-0.98
-0.93
-1.02
-1.26
-1.64
-2.16
-2.81
-3.56
-4.34
-5.08
-5.71
-6.25
-6.77
-7.38
-8.11
-8.89
-9.57
-10.03
-10.25
-10.37
-10.66
-11.43
-12.85
-14.86
-17.21
-19.53
-21.60
-23.44
-25.36
-27.82
-31.21
-35.61
-40.76
-46.11
-51.11
-55.43
-59.14
-62.74
-66.99
-72.62
-79.99
-88.94
-98.76
-108.47
-117.22
-124.68
-131.25
-138.03
-146.48
-157.93
-173.13
-191.75
-212.12
-231.35
-245.74
-251.75
-246.95
-230.79
-204.69
-171.40
-133.92
-94.45
-53.84
-11.63
33.00
80.20
128.52
174.82
215.02
245.45
264.13
271.41
269.69
262.29
252.18
241.16
229.89
218.59
207.75
198.37
191.49
187.57
185.95
185.07
183.23
179.48
174.12
168.53
164.50
163.32
165.19
169.18
173.82
177.81
180.73
183.23
186.55
191.79
199.29
208.39
217.76
225.84
231.20
232.59
228.76
218.61
201.32
176.78
145.86
110.08
71.01
29.47
-14.60
-61.45
-110.31
-158.45
-201.37
-234.09
-253.20
-258.21
-251.77
-238.41
-222.65
-207.46
-193.74
-181.01
-168.52
-156.14
-144.48
-134.34
-126.09
-119.32
-113.04
-106.24
-98.37
-89.54
-80.45
-71.98
-64.81
-59.12
-54.56
-50.44
-46.10
-41.17
-35.78
-30.45
-25.83
-22.36
-20.04
-18.49
-17.10
-15.34
-13.02
-10.31
-7.67
-5.51
-4.06
-3.22
-2.71
-2.21
-1.54
-0.74
0.06
0.69
1.07
1.23
1.27
1.25
1.20
1.08
0.89
0.67
0.49
0.43
0.49
0.60
0.62
0.47
0.14
-0.26
-0.58
-0.69
-0.57
-0.28
0.04
0.29
0.43
0.48
0.45
0.36
0.16
-0.12
-0.44
-0.69
-0.78
-0.71
-0.51
-0.31
-0.19
-0.17
-0.20
-0.20
-0.13
-0.01
0.12
0.19
0.17
0.08
0.01
0.01
0.08
0.19
0.25
0.25
0.20
0.23
0.40
0.73
1.10
1.35
1.32
1.01
0.53
0.08
-0.19
-0.24
-0.13
-0.00
0.07
0.06
-0.01
-0.11
-0.23
-0.35
-0.45
-0.50
-0.43
-0.23
0.07
0.39
0.58
0.56
0.29
-0.13
-0.54
-0.76
-0.65
-0.20
0.45
1.08
1.48
1.49
1.13
0.54
-0.08
-0.53
-0.72
-0.68
-0.51
-0.35
-0.25
-0.22
-0.19
-0.14
-0.09
-0.08
-0.15
-0.27
-0.35
-0.31
-0.12
0.19
0.46
0.60
0.59
0.50
0.43
0.45
0.57
0.70
0.77
0.74
0.62
0.45
0.28
0.11
-0.06
-0.27
-0.54
-0.81
-1.02
-1.08
-0.92
-0.57
-0.11
0.31
0.58
0.62
0.43
0.09
-0.28
-0.58
-0.81
-0.95
-1.07
-1.15
-1.15
-1.03
-0.74
-0.32
0.14
0.51
0.71
0.72
0.57
0.34
0.09
-0.13
-0.28
-0.33
-0.26
-0.05
0.26
0.60
0.89
1.06
1.08
0.98
0.80
0.60
0.42
0.26
0.10
-0.09
-0.31
-0.51
-0.62
-0.55
-0.29
0.11
0.52
0.78
0.79
0.51
0.03
-0.52
-0.97
-1.21
-1.20
-0.99
-0.68
-0.42
-0.28
-0.31
-0.47
-0.67
-0.81
-0.81
-0.62
-0.27
0.20
0.71
1.17
1.49
1.64
1.62
1.47
1.27
1.04
0.84
0.65
0.46
0.28
0.09
-0.07
-0.19
-0.23
-0.22
-0.18
-0.19
-0.26
-0.40
-0.55
-0.63
-0.59
-0.42
-0.19
0.03
0.16
0.17
0.07
-0.11
-0.33
-0.53
-0.65
-0.65
-0.50
-0.24
