1660928851.00
64.000000
-0.00
-0.00
-0.00
-0.00
-0.00
-0.00
-0.00
-0.00
-0.00
-0.00
0.00
0.01
0.01
-0.00
-0.03
-0.05
-0.05
0.00
0.13
0.36
0.66
1.01
1.37
1.72
2.06
2.40
2.79
3.25
3.81
4.44
5.09
5.73
6.32
6.91
7.53
8.27
9.15
10.25
11.45
12.63
13.71
14.65
15.54
16.56
17.93
19.76
22.24
25.15
28.22
31.16
33.88
36.49
39.34
42.87
47.33
53.03
59.57
66.41
73.05
79.25
85.22
91.55
98.90
107.66
118.18
129.78
141.62
152.98
163.58
173.77
184.37
196.68
209.10
223.46
240.02
258.75
278.70
297.47
311.30
315.91
307.86
285.78
251.34
207.78
159.24
109.26
60.04
12.60
-32.74
-75.78
-116.23
-153.80
-189.16
-223.66
-258.91
-295.81
-333.60
-369.36
-398.57
-416.62
-420.49
-410.12
-388.57
-360.69
-331.30
-303.50
-278.22
-254.80
-232.28
-210.20
-189.09
-169.77
-152.69
-137.57
-123.54
-109.73
-95.73
-81.80
-68.62
-56.96
-47.16
-39.04
-31.99
-25.26
-18.39
-11.34
-4.48
1.61
6.50
10.08
12.58
14.47
16.21
18.08
20.07
21.98
23.56
24.61
25.09
25.15
25.00
24.87
24.87
25.00
25.10
25.03
24.64
23.94
23.02
22.04
21.11
20.30
19.58
18.93
18.34
17.85
17.48
17.20
16.92
16.53
15.98
15.33
14.73
14.33
14.20
14.28
14.38
14.33
14.04
13.55
12.95
12.35
11.78
11.23
10.66
10.12
9.71
9.50
9.55
9.75
9.96
10.01
9.79
9.31
8.70
8.10
7.63
7.37
7.28
7.29
7.29
7.19
6.94
6.56
6.09
5.62
5.19
4.83
4.50
4.17
3.79
3.35
2.86
2.34
1.80
1.28
0.79
0.39
0.07
-0.17
-0.41
-0.70
-1.08
-1.53
-1.99
-2.34
-2.55
-2.63
-2.70
-2.90
-3.33
-4.05
-4.97
-5.99
-6.93
-7.68
-8.16
-8.36
-8.32
-8.14
-7.90
-7.68
-7.51
-7.37
-7.19
-6.92
-6.54
-6.08
-5.60
-5.15
-4.74
-4.35
-3.96
-3.54
-3.12
-2.73
-2.39
-2.06
-1.70
-1.23
-0.63
0.04
0.75
1.40
1.96
2.42
2.81
3.15
3.42
3.62
3.70
3.66
3.54
3.40
3.34
3.38
3.52
3.66
3.71
3.63
3.48
3.35
3.33
3.42
3.55
3.62
3.57
3.41
3.22
3.08
3.03
3.06
3.15
3.30
3.53
3.83
4.15
4.42
4.55
4.54
4.43
4.32
4.24
4.15
3.99
3.68
3.27
2.83
2.48
2.29
2.24
2.28
2.37
2.49
2.66
2.88
3.12
3.30
3.32
3.14
2.77
2.30
1.83
1.45
1.23
1.21
1.35
1.63
1.96
2.26
2.47
2.53
2.42
2.15
1.79
1.46
1.26
1.23
1.38
1.62
1.85
2.01
2.11
2.17
2.23
2.28
2.27
2.16
1.93
1.61
1.29
1.01
0.78
0.58
0.40
0.28
0.24
0.33
0.52
0.71
0.84
0.85
0.75
0.61
0.50
0.48
0.55
0.66
0.75
0.81
0.83
0.83
0.87
0.94
1.05
1.16
1.23
1.25
1.23
1.20
1.18
1.16
1.11
1.03
0.92
0.82
0.74
0.71
0.71
0.72
0.72
0.69
0.66
0.64
0.66
0.75
0.91
1.12
1.36
1.57
1.69
1.68
1.55
1.34
1.14
1.02
1.01
1.09
1.20
1.23
1.11
0.82
0.46
0.12
-0.08
-0.12
-0.03
0.11
0.23
0.32
0.39
0.45
0.48
0.44
0.31
0.10
-0.09
-0.17
-0.10
0.09
0.30
0.43
0.41
0.27
0.11
0.02
0.08
0.30
0.62
0.94
1.14
1.12
0.87
0.41
-0.15
-0.69
-1.10
-1.29
-1.23
-0.93
-0.46
0.12
0.74
1.33
1.84
2.20
2.37
2.33
2.14
1.87
1.61
1.38
1.19
1.01
0.83
0.66
0.51
0.42
0.36
0.35
0.35
0.39
0.46
0.56
0.67
0.73
0.74
0.68
0.59
0.48
0.36
0.22
0.05
-0.11
-0.23
-0.25
-0.17
-0.02
0.13
0.20
0.14
-0.05
-0.34
-0.66
-0.93
-1.06
-0.99
-0.74
-0.37
0.02
0.29
0.38
0.30
0.12
-0.06
-0.18
-0.19
-0.13
-0.01
0.16
0.40
0.69
0.97
1.13
1.10
0.87
0.52
0.19
-0.04
-0.13
-0.15
-0.18
-0.25
-0.36
-0.45
-0.48
-0.50
-0.54
-0.63
-0.74
-0.77
-0.63
-0.32
0.05
0.34
0.42
0.28
0.02
-0.20
-0.27
-0.13
0.18
0.57
0.94
1.21
1.33
1.31
1.19
1.03
0.90
0.82
0.79
0.79
0.78
0.78
0.79
0.81
0.83
0.80
0.69
0.49
0.27
0.12
0.14
0.34
0.66
0.97
1.13
1.09
0.86
0.55
0.26
0.06
-0.07
-0.20
-0.38
-0.61
-0.81
-0.86
-0.70
-0.37
0.03
0.35
0.49
0.43
0.23
-0.02
-0.25
-0.44
-0.59
-0.73
-0.84
-0.87
-0.80
-0.62
-0.37
-0.10
0.09
0.13
-0.02
-0.39
-0.92
-1.51
-2.01
-2.28
-2.30
-2.12
-1.89
-1.73
-1.68
-1.65
-1.52
-1.22
-0.76
-0.25
0.16
0.40
0.51
0.60
0.75
0.98
1.18
1.24
1.12
0.89
0.69
0.65
0.80
1.06
1.28
1.38
1.38
1.38
1.48
1.68
1.88
1.94
1.81
1.53
1.24
1.04
0.93
0.84
0.66
0.36
0.05
-0.14
-0.10
0.15
0.49
0.72
0.75
0.57
0.30
0.05
-0.09
-0.13
-0.14
-0.18
-0.25
-0.34
-0.40
-0.42
-0.42
-0.41
-0.40
-0.34
-0.19
0.01
0.18
0.20
0.02
-0.28
-0.55
-0.60
-0.37
0.04
0.40
0.50
0.25
-0.28
-0.91
-1.48
-1.92
-2.27
-2.62
-3.03
-3.50
-4.00
-4.49
-4.99
-5.53
-6.09
-6.57
-6.77
-6.57
-5.98
-5.21
-4.64
-4.64
-5.43
-7.03
-9.24
-11.79
-14.44
-16.99
-19.34
-21.37
-22.96
-24.07
-24.75
-25.32
-26.30
-28.23
-31.45
-35.87
-40.92
-45.83
-49.94
-53.14
-55.95
-59.34
-64.26
-71.21
-79.97
-89.65
-99.15
-107.49
-114.20
-119.43
-123.80
-128.20
-133.60
-140.95
-150.92
-163.45
-177.24
-189.51
-196.32
-193.62
-178.59
-150.70
-111.92
-65.90
-16.59
32.85
80.37
124.54
163.79
196.15
219.75
233.82
239.41
239.37
237.37
236.54
238.46
242.94
248.56
253.68
257.37
259.67
261.37
263.42
266.31
269.93
273.69
277.03
279.73
281.76
282.86
281.88
276.72
264.91
244.45
214.84
177.18
133.62
86.23
36.25
-15.64
-68.34
-119.36
-164.61
-199.52
-220.90
-228.32
-224.45
-213.77
-200.73
-188.19
-176.92
-166.28
-155.47
-144.44
-133.92
-124.93
-117.97
-112.64
-107.88
-102.50
-95.81
-87.85
-79.38
-71.43
-64.81
-59.74
-55.84
-52.25
-48.08
-42.82
-36.50
-29.75
-23.42
-18.30
-14.75
-12.62
-11.39
-10.40
-9.21
-7.69
-6.06
-4.66
-3.73
-3.25
-3.01
-2.78
-2.38
-1.87
-1.45
-1.33
-1.61
-2.18
-2.83
-3.31
-3.51
-3.47
-3.36
-3.34
-3.51
-3.84
-4.22
-4.50
-4.59
-4.47
-4.14
-3.62
-2.92
-2.06
-1.10
-0.19
0.51
0.89
0.91
0.67
0.31
-0.01
-0.22
-0.33
-0.38
-0.43
-0.46
-0.44
-0.31
-0.04
0.35
0.76
1.08
1.22
1.14
0.91
0.61
0.34
0.14
0.02
-0.02
0.05
0.27
0.67
1.23
1.82
2.28
2.49
2.39
2.06
1.58
1.07
0.58
0.15
-0.22
-0.49
-0.60
-0.51
-0.22
0.16
0.49
0.62
0.45
-0.02
-0.69
-1.37
-1.89
-2.13
-2.10
-1.91
-1.74
-1.75
-1.98
-2.37
-2.75
-2.92
-2.74
-2.17
-1.28
-0.24
0.77
1.62
2.20
2.49
2.46
2.16
1.62
0.97
0.36
-0.05
-0.13
0.14
0.69
1.36
1.96
2.34
2.46
2.34
2.02
1.58
1.06
0.53
0.08
-0.23
-0.36
-0.31
-0.13
0.10
0.30
0.46
0.57
0.65
0.73
0.82
0.96
1.16
1.41
1.66
1.86
1.95
1.91
1.75
1.51
1.18
0.76
0.22
-0.40
-1.01
-1.50
-1.78
-1.83
-1.69
-1.48
-1.29
-1.15
-1.04
-0.93
-0.79
-0.63
-0.51
-0.46
-0.55
-0.78
-1.14
-1.56
-1.97
-2.28
-2.40
-2.33
-2.08
-1.72
-1.36
-1.10
-1.00
-1.04
-1.12
-1.05
-0.65
0.20
1.43
2.82
3.99
4.57
4.34
3.30
1.70
-0.09
-1.66
-2.70
-3.09
-2.82
-2.00
-0.82
0.50
1.70
2.54
2.86
2.59
1.86
0.88
-0.05
-0.71
-0.98
-0.88
-0.48
0.07
0.64
1.09
1.31
1.22
0.81
0.20
-0.42
-0.81
-0.83
-0.45
0.17
0.81
1.28
1.49
1.52
1.47
1.44
1.43
1.37
1.12
0.65
-0.01
-0.71
-1.29
-1.63
-1.70
-1.57
-1.36
-1.17
-1.08
-1.10
-1.17
-1.22
-1.22
-1.13
-1.00
-0.89
-0.83
-0.85
-0.95
-1.11
-1.30
-1.49
-1.65
-1.78
-1.84
-1.80
-1.63
-1.31
-0.84
-0.25
0.45
1.21
1.99
2.73
3.31
3.63
3.56
3.04
2.08
0.81
-0.57
-1.79
-2.62
-2.93
-2.71
-2.09
-1.26
-0.41
0.33
0.91
1.30
1.46
1.34
0.87
0.10
-0.79
-1.47
-1.63
-1.06
0.13
1.59
2.86
3.57
3.63
3.22
2.72
2.45
2.54
2.91
3.34
3.60
3.59
3.34
2.91
2.36
1.70
0.89
-0.07
-1.10
-2.11
-2.98
-3.63
-4.02
-4.13
-3.97
-3.59
-3.06
-2.50
-1.99
-1.59
-1.27
-0.97
-0.67
-0.38
-0.17
-0.13
-0.26
-0.53
-0.89
-1.27
-1.60
-1.83
-1.89
-1.73
-1.32
-0.71
-0.02
0.60
1.01
1.17
1.11
0.96
0.84
0.86
1.02
1.25
1.40
1.35
1.03
0.49
-0.10
-0.58
-0.82
-0.80
-0.58
-0.27
0.03
0.28
0.46
0.60
0.70
0.71
0.59
0.29
-0.19
-0.76
-1.28
-1.59
-1.57
-1.22
-0.60
0.12
0.80
1.33
1.67
1.86
1.96
2.03
2.11
2.18
2.22
2.23
2.17
2.02
1.75
1.32
0.70
-0.08
-0.92
-1.68
-2.20
-2.38
-2.20
-1.78
-1.25
-0.76
-0.38
-0.12
0.04
0.12
0.10
-0.04
-0.34
-0.76
-1.25
-1.73
-2.09
-2.28
-2.29
-2.14
-1.89
-1.63
-1.38
-1.16
-0.93
-0.65
-0.33
0.00
0.29
0.53
0.76
1.03
1.39
1.80
2.13
2.26
2.11
1.66
1.00
0.27
-0.39
-0.89
-1.13
-1.05
-0.62
0.09
0.93
1.69
2.19
2.32
2.12
1.69
1.20
0.76
0.46
0.35
0.43
0.66
0.94
1.16
1.21
1.07
0.80
0.53
0.36
0.33
0.39
0.46
0.52
0.60
0.78
1.10
1.48
1.80
1.91
1.73
1.26
0.61
-0.10
-0.75
-1.28
-1.67
-1.94
-2.12
-2.24
-2.31
-2.36
-2.40
-2.44
-2.51
-2.60
-2.69
-2.74
-2.70
-2.61
-2.57
-2.70
-3.14
-3.91
-4.94
-6.08
-7.12
-7.93
-8.42
-8.63
-8.65
-8.60
-8.60
-8.68
-8.85
-9.04
-9.13
-9.01
-8.60
-7.93
-7.11
-6.41
-6.14
-6.57
-7.85
-9.94
-12.58
-15.40
-18.03
-20.29
-22.24
-24.18
-26.55
-29.72
-33.79
-38.56
-43.58
-48.32
-52.50
-56.12
-59.49
-63.01
-66.94
-71.27
-75.77
-80.25
-84.60
-88.88
-93.14
-97.24
-100.95
-104.20
-107.49
-111.91
-118.53
-127.39
-136.65
-142.55
-140.41
-126.34
-98.74
-58.69
-9.14
46.38
104.81
163.53
219.76
270.02
310.52
338.44
353.46
358.43
358.48
358.67
361.55
365.90
367.33
360.40
341.20
308.94
265.81
215.40
160.97
104.62
47.75
-7.76
-58.77
-101.23
-131.70
-148.99
-154.77
-152.90
-147.65
-142.03
-137.09
-132.34
-126.81
-120.08
-112.53
-105.04
-98.34
-92.62
-87.48
-82.31
-76.61
-70.25
-63.58
-57.19
-51.60
-47.03
-43.36
-40.23
-37.26
-34.19
-30.88
-27.29
-23.47
-19.62
-16.08
-13.29
-11.56
-10.90
-10.95
-11.21
-11.32
-11.28
-11.40
-12.01
-13.10
-14.26
-14.79
-14.07
-11.93
-8.76
-5.35
-2.56
-1.04
-1.00
-2.24
-4.30
-6.64
-8.81
-10.48
-11.42
-11.39
-10.25
-7.94
-4.69
-1.05
2.22
4.45
5.32
4.98
3.94
2.77
1.87
1.28
0.78
0.08
-1.01
-2.42
-3.79
-4.53
-4.06
-2.02
1.46
5.72
9.71
12.32
12.88
11.36
8.34
4.78
1.55
-0.81
-2.19
-2.76
-2.83
-2.74
-2.75
-3.06
-3.76
-4.86
-6.26
-7.82
-9.43
-11.00
-12.46
-13.73
-14.67
-15.14
-15.11
-14.77
-14.43
-14.50
-15.25
-16.67
-18.48
-20.27
-21.66
-22.51
-22.97
-23.38
-24.17
-25.63
-27.91
-30.97
-34.66
-38.80
-43.21
-47.78
-52.44
-57.14
-61.82
-66.41
-70.89
-75.33
-79.89
-84.83
-90.42
-96.85
-104.16
-112.18
-120.74
-129.74
-139.35
-149.78
-160.81
-171.25
-178.70
-179.92
-171.76
-152.27
-121.38
-80.70
-32.81
19.62
74.10
128.10
178.61
222.20
255.79
277.79
288.95
292.24
291.56
290.24
289.85
290.24
290.35
289.49
288.04
287.26
288.21
290.54
291.89
288.40
275.97
251.79
215.22
167.88
112.91
54.23
-3.97
-57.44
-102.15
-134.83
-153.86
-159.91
-155.90
-146.04
-134.42
-123.77
-115.07
-107.97
-101.66
-95.48
-89.22
-82.91
-76.62
-70.32
-63.97
-57.60
-51.30
-45.18
-39.24
-33.38
-27.49
-21.52
-15.57
-9.84
-4.48
0.44
5.06
9.60
14.21
18.89
23.43
27.37
29.98
30.27
27.13
19.80
8.30
-6.21
-21.54
-35.10
-44.74
-49.51
-49.85
-47.19
-43.21
-39.15
-35.51
-32.20
-28.99
-25.79
-22.76
-20.11
-17.94
-16.11
-14.38
-12.59
-10.80
-9.37
-8.76
-9.25
-10.74
-12.73
-14.53
-15.54
-15.51
-14.66
-13.52
-12.60
-12.22
-12.32
-12.60
-12.72
-12.47
-11.83
-10.96
-10.05
-9.22
-8.47
-7.68
-6.69
-5.35
-3.66
-1.74
0.13
1.59
2.38
2.34
1.56
0.31
-1.07
-2.26
-3.09
-3.54
-3.66
-3.55
-3.26
-2.83
-2.29
-1.67
-1.03
-0.47
-0.04
0.22
0.29
0.23
0.10
-0.03
-0.07
0.04
0.29
0.65
0.99
1.17
1.06
0.63
-0.05
-0.83
-1.48
-1.84
-1.85
-1.56
-1.17
-0.88
-0.88
-1.23
-1.88
-2.64
-3.23
-3.39
-2.94
-1.84
-0.22
1.60
3.19
4.16
4.24
3.37
1.76
-0.22
-2.15
-3.68
-4.59
-4.82
-4.41
-3.47
-2.16
-0.72
0.59
1.53
1.94
1.79
1.23
0.47
-0.24
-0.72
-0.86
-0.70
-0.31
0.16
0.59
0.87
0.96
0.93
0.91
1.08
1.56
2.35
3.28
4.10
4.59
4.61
4.15
3.38
2.48
1.60
0.82
0.12
-0.52
-1.09
-1.56
-1.87
-2.00
-1.96
-1.79
-1.56
-1.35
-1.19
-1.08
-0.99
-0.88
-0.76
-0.64
-0.57
-0.61
-0.77
-1.07
-1.49
-2.03
-2.66
-3.33
-3.91
-4.27
-4.32
-4.03
-3.47
-2.77
-2.02
-1.22
-0.31
0.78
2.01
3.26
4.29
4.91
4.97
4.46
3.48
2.21
0.89
-0.24
-0.93
-1.04
-0.54
0.42
1.57
2.57
3.14
3.13
2.59
1.68
0.63
-0.34
-1.09
-1.52
-1.61
-1.38
-0.87
-0.18
0.57
1.24
1.71
1.95
1.93
1.69
1.30
0.81
0.32
-0.08
-0.27
-0.20
0.10
0.48
0.81
0.95
0.91
0.74
0.52
0.28
-0.01
-0.41
-0.93
-1.50
-1.98
-2.25
-2.23
-1.94
-1.46
-0.94
-0.52
-0.33
-0.39
-0.69
-1.10
-1.51
-1.82
-2.01
-2.13
-2.24
-2.36
-2.47
-2.50
-2.43
-2.29
-2.16
-2.14
-2.21
-2.29
-2.18
-1.67
-0.64
0.89
2.71
4.48
5.81
6.42
6.19
5.20
3.67
1.90
0.19
-1.21
-2.13
-2.48
-2.25
-1.52
-0.47
0.68
1.69
2.36
2.59
2.37
1.79
1.03
0.30
-0.21
-0.35
-0.13
0.33
0.84
1.19
1.27
1.06
0.66
0.21
-0.20
-0.50
-0.67
-0.74
-0.68
-0.50
-0.16
0.30
0.82
1.26
1.49
1.42
1.04
0.45
-0.20
-0.78
-1.17
-1.35
-1.35
-1.24
-1.08
-0.92
-0.78
-0.70
-0.71
