1660754976.00
64.000000
-0.00
-0.00
-0.00
-0.00
-0.00
-0.00
-0.00
-0.00
-0.00
-0.00
0.00
0.01
0.01
-0.00
-0.03
-0.05
-0.05
0.00
0.13
0.36
0.66
1.01
1.37
1.72
2.06
2.40
2.79
3.24
3.80
4.42
5.06
5.66
6.20
6.68
7.15
7.68
8.31
9.14
10.09
11.04
11.88
12.56
13.14
13.76
14.65
15.96
17.91
20.32
22.90
25.38
27.58
29.57
31.68
34.32
37.81
42.54
48.15
54.10
59.83
64.97
69.58
74.14
79.34
85.71
93.76
103.00
112.62
121.73
129.77
136.75
143.30
150.75
157.77
166.64
177.95
191.79
206.97
220.57
228.25
225.36
208.53
176.87
132.76
80.05
23.07
-34.94
-92.44
-149.16
-205.23
-260.37
-313.74
-363.87
-409.83
-450.91
-486.50
-515.74
-537.23
-549.22
-549.96
-538.37
-514.20
-478.66
-433.85
-382.41
-326.96
-269.75
-212.51
-156.50
-102.74
-52.12
-5.59
35.95
71.85
101.84
126.05
145.00
159.38
169.91
177.20
181.66
183.57
183.15
180.69
176.52
171.06
164.71
157.82
150.65
143.32
135.91
128.47
121.04
113.67
106.45
99.44
92.70
86.26
80.14
74.35
68.89
63.79
59.04
54.66
50.66
47.02
43.75
40.83
38.27
36.05
34.17
32.63
31.41
30.52
29.95
29.70
29.76
30.11
30.72
31.53
32.47
33.44
34.30
34.89
35.04
34.59
33.39
31.33
28.39
24.57
19.94
14.67
8.95
3.06
-2.75
-8.22
-13.11
-17.23
-20.48
-22.78
-24.14
-24.63
-24.35
-23.43
-22.01
-20.23
-18.21
-16.03
-13.76
-11.42
-9.07
-6.73
-4.39
-2.07
0.28
2.66
5.11
7.65
10.33
13.11
15.97
18.91
21.93
25.05
28.27
31.64
35.19
39.01
43.01
47.15
51.41
55.78
60.29
64.96
69.85
75.01
80.55
86.30
92.16
98.07
104.00
109.92
115.83
121.73
127.67
133.71
139.55
144.97
149.75
153.67
156.43
157.66
156.80
153.07
147.93
141.88
135.24
128.17
120.85
113.37
105.86
98.42
91.24
84.50
78.08
71.94
66.07
60.49
55.20
50.18
45.42
40.96
36.89
33.06
29.43
25.99
22.76
19.73
16.91
14.30
11.93
9.84
7.95
6.20
4.54
2.93
1.32
-0.37
-2.18
-4.14
-6.20
-8.33
-10.42
-12.38
-14.18
-15.90
-17.73
-19.87
-22.46
-25.53
-28.92
-32.41
-35.81
-39.05
-42.34
-46.07
-50.66
-56.39
-63.23
-70.90
-78.88
-86.74
-94.30
-101.73
-109.50
-118.18
-128.17
-139.56
-152.15
-165.60
-179.61
-193.99
-208.64
-223.53
-238.85
-255.23
-274.02
-296.87
-324.74
-356.34
-387.46
-411.73
-422.75
-416.84
-394.63
-360.91
-322.71
-286.89
-258.51
-240.65
-235.04
-242.38
-261.69
-289.14
-317.61
-338.07
-342.57
-327.51
-295.17
-252.77
-209.24
-171.77
-143.57
-123.77
-109.17
-96.41
-83.61
-70.59
-58.07
-46.44
-35.19
-22.87
-7.49
12.71
39.04
72.63
114.93
167.67
231.86
306.03
384.84
459.24
518.44
553.46
560.35
541.45
504.09
457.30
408.50
361.39
316.36
271.96
226.93
181.21
135.64
90.86
46.26
-0.12
-50.46
-105.24
-161.69
-213.25
-251.18
-267.45
-257.75
-223.03
-168.68
-102.05
-29.82
43.08
112.84
175.17
224.49
255.01
262.94
248.57
216.50
173.69
126.11
76.27
23.35
-34.37
-95.56
-153.56
-197.04
-214.13
-197.82
-150.15
-82.62
-12.57
42.62
71.01
68.77
39.38
-9.20
-67.43
-125.99
-176.22
-210.35
-222.27
-209.12
-172.63
-119.16
-58.08
1.05
50.98
87.61
109.07
114.42
103.35
77.08
39.69
-1.54
-37.78
-61.58
-69.52
-62.72
-45.25
-21.38
6.22
36.45
68.25
98.95
124.05
138.25
137.35
119.34
84.72
36.21
-21.61
-82.36
-138.06
-180.36
-202.51
-201.23
-177.78
-137.53
-88.17
-37.52
8.26
45.66
73.95
94.51
109.72
121.73
131.52
138.73
141.96
139.67
130.89
115.62
94.71
69.73
42.67
15.68
-9.15
-30.05
-45.92
-56.62
-62.91
-66.21
-68.04
-69.72
-71.98
-74.91
-78.02
-80.43
-81.14
-79.23
-74.05
-65.41
-53.57
-39.14
-23.03
-6.34
9.73
24.18
36.36
46.14
54.01
60.95
67.87
74.85
80.78
83.66
81.36
72.63
57.72
38.43
17.55
-1.86
-17.19
-26.85
-30.30
-28.26
-22.38
-14.92
-8.15
-3.77
-2.46
-3.85
-6.94
-10.67
-14.37
-17.57
-19.72
-20.08
-18.06
-13.49
-7.01
0.16
6.75
12.00
16.06
19.77
24.07
29.28
34.85
39.52
41.95
41.37
37.82
31.96
24.64
16.62
8.71
1.70
-3.89
-8.23
-12.41
-18.20
-27.18
-39.95
-55.57
-71.88
-86.21
-96.35
-101.28
-101.32
-97.71
-92.00
-85.48
-79.04
-73.23
-68.66
-65.99
-65.91
-68.89
-74.90
-83.22
-92.53
-101.36
-108.81
-114.90
-120.59
-127.36
-136.68
-149.53
-166.13
-185.85
-207.27
-228.18
-245.95
-257.95
-262.24
-257.96
-245.66
-227.18
-205.17
-182.33
-160.73
-141.48
-124.80
-110.37
-97.61
-85.94
-74.86
-63.91
-52.73
-41.14
-29.28
-17.58
-6.69
3.01
11.44
18.84
25.63
32.28
39.02
45.77
52.18
57.70
62.47
66.81
71.22
76.12
81.61
87.37
92.74
97.03
99.60
101.40
103.76
108.03
115.09
124.87
136.34
147.89
157.87
164.97
170.55
176.67
185.51
198.55
215.81
235.93
256.90
276.95
295.21
314.70
339.77
375.10
424.41
489.36
569.36
662.25
765.36
857.93
920.61
936.83
898.35
808.82
682.06
536.18
387.30
246.23
118.35
7.87
-82.83
-152.49
-201.32
-231.45
-246.90
-252.86
-254.64
-256.65
-259.71
-262.77
-263.56
-259.73
-250.13
-235.42
-217.86
-200.54
-186.37
-176.02
-168.71
-162.47
-155.07
-144.94
-131.59
-115.40
-97.24
-78.58
-61.29
-48.45
-43.79
-50.28
-68.41
-95.20
-124.72
-150.00
-165.58
-169.05
-161.39
-145.76
-125.80
-104.54
-84.01
-65.74
-51.04
-41.02
-36.36
-36.89
-41.53
-48.34
-54.77
-58.16
-56.63
-49.74
-38.79
-26.44
-15.71
-8.63
-5.59
-5.18
-5.08
-3.27
1.09
7.43
14.18
19.50
22.10
21.48
18.14
13.18
7.92
3.43
0.56
-0.27
1.05
4.42
9.28
14.64
18.93
20.32
17.45
10.12
-0.54
-12.68
-24.38
-34.42
-42.53
-49.21
-55.15
-60.78
-65.67
-69.07
-70.24
-68.76
-64.45
-57.29
-47.47
-34.36
-19.31
-3.40
12.21
26.39
38.00
46.42
51.56
53.64
53.37
51.40
48.55
45.41
42.43
39.64
37.26
35.65
35.01
35.42
36.79
39.02
41.73
44.39
46.04
46.04
44.19
40.07
33.49
24.44
13.22
0.29
-12.06
-23.72
-34.35
-43.21
-50.07
-54.94
-57.84
-58.85
-58.01
-55.35
-51.11
-47.18
-41.88
-34.38
-24.60
-12.46
1.84
17.95
35.38
53.28
70.96
88.17
104.35
118.63
130.64
140.30
147.90
153.81
158.34
162.08
165.89
170.32
175.07
180.02
184.91
189.40
192.92
194.52
193.01
186.70
178.14
167.88
156.38
144.12
131.67
119.73
109.00
100.21
94.01
90.79
89.91
90.68
92.33
94.06
95.22
95.30
94.03
91.40
87.63
82.55
76.36
69.29
61.68
53.98
46.61
39.83
33.57
27.40
20.16
10.58
-2.54
-20.05
-42.23
-68.83
-99.01
-131.72
-165.80
-200.28
-233.99
-265.47
-292.84
-313.83
-326.44
-329.32
-322.56
-307.81
-288.19
-267.51
-249.38
-236.31
-229.36
-228.49
-232.90
-242.02
-255.83
-274.96
-300.41
-333.44
-375.32
-426.90
-487.69
-554.51
-620.80
-677.43
-714.88
-726.61
-711.42
-673.99
-622.78
-566.78
-512.38
-462.27
-416.22
-372.93
-331.72
-292.88
-257.07
-224.43
-194.22
-165.33
-137.21
-110.41
-86.43
-67.12
-53.61
-45.62
-41.46
-38.49
-34.11
-26.71
-15.81
-2.35
11.92
25.38
37.24
47.73
57.86
68.58
80.25
92.65
104.90
115.95
125.20
132.93
140.11
147.93
157.03
167.13
177.68
187.62
196.02
202.90
209.68
218.68
232.40
252.07
277.20
307.25
340.09
372.69
402.48
428.51
451.33
473.28
496.92
524.41
559.37
601.19
643.76
677.40
693.14
685.53
655.93
610.22
556.55
506.97
467.95
438.74
414.96
393.63
374.36
360.84
355.81
359.12
373.63
396.64
419.48
431.41
424.64
395.41
347.18
286.77
184.19
39.22
-121.80
-264.89
-371.65
-434.36
-469.93
-488.67
-494.77
-490.08
-472.44
-443.26
-411.51
-387.23
-376.17
-378.93
-389.81
-402.94
-414.86
-420.18
-417.78
-410.75
-403.73
-398.46
-394.33
-387.95
-376.10
-358.21
-333.30
-303.15
-271.48
-240.85
-212.49
-185.81
-158.68
-127.46
-91.16
-50.58
-9.41
27.84
58.65
83.46
104.79
125.77
152.67
188.50
232.21
278.87
322.89
361.03
392.86
419.88
444.21
474.07
515.56
569.36
629.82
687.38
732.00
755.64
754.31
695.83
572.56
404.36
229.48
80.77
-29.01
-103.96
-154.41
-186.87
-209.80
-221.05
-217.98
-202.37
-181.19
-162.87
-153.38
-154.85
-166.27
-187.33
-211.86
-234.40
-253.31
-271.23
-291.96
-317.22
-346.10
-376.74
-410.54
-445.22
-476.98
-501.20
-513.30
-509.18
-486.26
-445.65
-378.12
-291.31
-203.10
-131.50
-83.75
-56.30
-41.60
-33.80
-30.38
-31.91
-39.88
-51.87
-62.23
-64.94
-56.68
-37.70
-10.76
21.18
55.44
88.71
120.35
152.32
187.40
227.34
272.25
321.34
373.42
426.36
475.25
513.89
536.33
538.42
519.22
481.56
431.62
376.92
323.54
273.99
228.04
184.52
142.81
103.37
66.73
33.52
4.20
-21.32
-43.83
-64.32
-83.37
-100.87
-116.35
-130.27
-142.79
-152.98
-159.67
-162.66
-163.66
-166.14
-174.00
-190.22
-216.96
-252.27
-289.67
-320.48
-337.72
-338.35
-323.16
-295.64
-261.13
-228.89
-208.08
-204.59
-219.24
-247.48
-280.01
-305.00
-311.97
-281.28
-210.82
-119.32
-35.25
21.61
47.89
51.20
41.71
27.17
12.04
-3.60
-20.50
-35.81
-45.21
-45.99
-38.12
-23.15
-2.93
21.91
50.60
84.66
128.25
182.52
244.98
308.28
362.00
395.86
403.79
385.25
346.50
298.00
249.21
204.92
164.08
123.05
79.25
34.74
-3.46
-25.71
-24.20
2.91
50.33
106.94
159.58
195.59
206.34
189.72
149.83
94.84
33.78
-25.56
-79.21
-119.57
-141.10
-144.32
-132.87
-110.52
-80.51
-46.81
-14.30
12.14
29.63
37.81
36.39
27.96
16.20
4.24
-7.20
-19.52
-34.97
-54.99
-81.03
-116.14
-158.18
-202.98
-244.86
-277.79
-295.79
-294.24
-271.35
-220.29
-148.73
-74.91
-17.77
13.93
22.76
17.84
7.52
-3.77
-15.80
-31.43
-50.72
-70.37
-85.44
-92.54
-89.87
-79.73
-65.43
-51.18
-41.55
-37.53
-36.88
-35.80
-31.62
-21.64
-5.98
12.55
29.92
42.31
49.72
55.86
66.69
84.85
114.61
157.92
213.53
277.33
343.00
403.86
453.03
484.11
476.21
420.34
325.34
215.19
115.53
41.38
-4.64
-27.87
-35.99
-35.97
-30.92
-22.64
-15.29
-13.39
-19.74
-33.29
-50.22
-65.69
-76.59
-82.15
-85.63
-94.33
-114.52
-149.85
-198.63
-253.66
-303.36
-336.30
-345.54
-331.70
-303.74
-275.44
-260.57
-268.19
-300.47
-351.63
-402.53
-431.48
-422.07
-372.75
-295.64
-208.22
-125.87
-58.31
-5.43
38.98
78.29
113.28
142.50
164.39
179.00
189.43
192.03
189.04
183.88
178.04
171.82
164.94
158.04
153.27
153.24
159.76
174.65
197.36
224.67
253.08
280.21
306.16
333.23
364.13
399.47
437.16
470.83
491.98
493.92
474.84
438.63
392.77
345.12
300.84
262.17
228.37
197.66
169.06
142.69
118.91
97.12
75.68
52.69
27.68
1.72
-22.70
-42.63
-56.23
-64.03
-69.30
-76.57
-89.64
-109.87
-135.93
-164.60
-192.05
-215.46
-234.28
-251.19
-269.57
-291.65
-317.77
-346.99
-377.36
-405.66
-427.13
-436.18
-430.07
-407.40
-368.50
-316.45
-257.72
-200.25
-149.73
-106.77
-68.03
-33.01
-2.73
20.25
32.37
29.73
10.42
-23.30
-64.69
-106.49
-148.67
-193.54
-242.04
-292.01
-339.91
-382.55
-417.93
-445.01
-430.06
-356.47
-236.27
-102.52
16.67
110.90
182.04
232.06
269.30
295.69
304.87
292.22
259.96
217.22
174.97
144.46
133.84
143.68
164.71
180.51
179.65
161.22
133.14
105.51
85.05
72.92
66.88
63.23
57.60
48.59
37.83
28.29
21.83
18.41
16.20
13.56
9.47
3.25
-4.38
-11.95
-17.95
-21.89
-24.45
-27.05
-30.90
-36.57
-44.17
-53.02
-62.23
-71.05
-79.03
-85.94
-91.98
-96.35
-97.83
-95.00
-86.76
-72.61
-52.97
-29.03
-2.45
24.57
49.90
72.36
91.21
105.94
116.49
122.91
125.38
124.30
122.36
119.36
115.54
110.88
105.04
97.40
87.46
75.08
60.70
46.18
33.19
23.38
17.36
14.54
13.36
11.94
8.68
2.91
-3.94
-10.21
-14.02
-14.41
-11.53
-6.50
-0.64
5.05
10.29
16.85
26.04
38.89
55.72
76.56
101.27
129.32
159.15
178.27
178.66
156.22
113.53
59.57
6.75
-33.71
-55.69
-59.69
-51.40
-36.64
-20.24
-4.32
10.97
26.42
41.25
53.29
59.94
58.92
50.42
35.19
14.82
-9.01
-34.09
-58.45
-81.41
-102.90
-122.27
-137.00
-144.29
-142.57
-132.78
-118.63
-105.48
-97.86
-97.64
-103.56
-112.04
-119.67
-124.90
-128.10
-130.51
-132.58
-132.81
-127.84
-114.44
-91.52
-61.49
-29.96
-3.03
15.41
25.63
31.22
35.90
40.92
43.46
38.34
21.36
-7.41
-42.33
-73.96
-92.85
-93.11
-74.43
-41.86
-4.05
30.09
51.99
57.78
48.42
28.33
3.11
-22.09
-44.40
-61.93
-73.23
-76.54
-70.05
-52.99
-26.46
5.72
38.11
66.11
86.86
99.90
106.88
110.49
113.05
115.61
117.78
118.20
115.88
110.70
103.66
96.60
91.60
90.06
91.96
97.28
102.73
105.61
104.43
99.16
91.06
82.07
74.03
67.82
63.20
58.91
53.57
46.57
38.46
30.73
25.10
23.13
25.84
33.77
46.47
61.57
75.31
82.49
77.85
58.10
23.88
-19.83
-65.18
-104.53
-133.84
-152.39
-162.27
-166.60
-167.68
-166.41
-162.83
-157.33
-145.12
-127.96
-109.12
-91.27
-75.42
-61.04
-46.79
-31.75
-15.94
-0.24
13.29
23.78
31.54
37.72
43.79
50.95
59.64
69.41
79.07
86.67
91.31
93.35
93.55
92.69
91.31
89.21
85.47
78.75
67.50
51.30
30.89
8.93
-12.26
-30.96
-46.31
-58.46
-68.20
-76.59
-84.07
-90.31
-94.48
-95.99
-94.91
-91.96
-88.39
-85.34
-83.48
-82.87
-83.40
-85.29
-88.94
-93.71
-96.95
-94.36
-81.98
-58.89
-28.58
2.02
25.67
38.43
41.52
40.03
39.55
42.64
47.68
50.84
49.25
43.13
35.64
30.04
26.75
23.38
16.11
2.84
-15.05
-32.76
-44.60
-46.88
-39.73
-26.62
-12.05
0.67
10.74
19.12
26.90
33.72
37.78
36.78
29.61
17.59
4.03
-7.01
-12.33
-10.78
-3.53
6.76
17.06
24.94
29.45
30.55
28.97
25.83
22.68
21.49
24.42
33.06
47.18
64.75
82.02
94.60
98.80
92.58
75.82
49.77
16.61
-20.95
-58.84
-91.72
-114.03
-121.63
-113.78
-93.84
-68.29
-42.52
-22.52
-11.20
-7.72
-8.68
-10.27
-10.18
-8.25
-5.72
-3.96
-3.74
-4.29
-4.23
-2.51
0.84
4.77
7.87
9.22
8.79
7.22
5.71
5.23
5.97
7.32
8.27
7.95
6.11
3.16
-0.19
-3.01
-4.59
-4.74
-3.72
-2.05
-0.21
1.55
3.20
4.77
6.37
8.02
9.66
11.20
12.55
13.65
14.46
14.88
14.84
14.29
13.34
12.16
10.97
9.89
8.98
8.21
7.50
6.85
6.26
5.74
5.28
4.76
4.02
2.90
1.30
-0.75
-3.11
-5.64
-8.20
-10.71
-13.23
-15.80
-18.38
-20.73
-22.46
-23.11
-22.45
-20.49
-17.59
-14.20
-10.74
-7.43
-4.30
-1.30
1.58
4.23
6.51
8.29
9.61
10.61
11.45
12.24
12.95
13.47
13.72
13.67
13.40
12.98
12.47
11.80
10.84
9.47
7.64
5.42
2.98
0.48
-1.96
-4.31
-6.50
-8.52
-10.34
-12.02
-13.66
-15.44
-17.48
-19.69
-21.78
-23.27
-23.64
-22.59
-20.13
-16.61
-12.61
-8.65
-5.06
-1.87
1.06
3.91
6.67
9.22
11.31
12.80
13.65
13.99
14.02
13.85
13.55
13.12
12.58
12.02
11.53
11.21
11.09
11.10
11.08
10.86
10.25
9.14
7.51
5.45
3.12
0.74
-1.50
-3.45
-5.05
-6.42
-7.85
-9.66
-12.13
-15.26
-18.69
-21.81
-23.91
-24.42
-23.17
-20.42
-16.64
-12.42
-8.18
-4.14
-0.39
3.09
6.30
9.15
11.56
13.43
14.79
15.73
16.42
17.03
17.64
18.24
18.70
18.89
18.73
18.26
17.62
16.94
16.29
15.64
14.88
13.87
12.54
10.91
9.08
7.10
5.04
2.88
0.61
-1.71
-3.95
-6.01
-7.90
-9.79
-11.97
-14.69
-17.96
-21.46
-24.57
-26.56
-26.83
-25.20
-21.88
-17.44
-12.52
-7.68
-3.20
0.83
4.47
7.83
10.88
13.52
15.63
17.17
18.22
18.97
19.59
20.13
20.55
20.72
20.48
19.84
18.91
17.92
17.03
16.29
15.62
14.83
13.67
11.97
9.68
6.95
4.08
1.36
-1.06
-3.22
-5.29
-7.43
-9.62
-11.68
-13.41
-14.81
-16.17
-17.96
-20.57
-24.06
-28.00
-31.59
-33.94
-34.37
-32.65
-29.02
-24.07
-18.53
-13.02
-7.92
-3.32
0.89
4.88
8.77
12.57
16.19
19.51
22.32
24.33
25.18
24.61
22.63
19.68
16.52
13.96
12.55
12.33
12.92
13.75
14.30
14.37
14.10
13.73
13.50
13.47
13.51
13.40
12.94
11.93
10.23
7.73
4.40
0.32
-4.22
-8.80
-12.94
-16.28
-18.76
-20.58
-22.12
-23.71
-25.43
-27.07
-28.31
-28.80
-28.37
-26.95
-24.58
-21.39
-17.56
-13.43
-9.31
-5.49
-2.04
1.12
4.13
7.00
9.57
11.60
12.90
13.53
13.73
13.82
14.02
14.37
14.80
15.24
15.63
15.99
16.26
16.25
15.72
14.55
12.85
10.97
9.36
8.32
7.86
7.75
7.66
7.27
6.41
5.03
3.10
0.68
-2.14
-5.18
-8.23
-11.15
-13.86
-16.44
-19.06
-21.91
-24.97
-28.04
-30.64
-32.18
-32.13
-30.19
-26.41
-21.21
-15.29
-9.35
-4.02
0.46
4.17
7.39
10.42
13.41
16.29
18.91
21.15
22.91
24.24
25.17
25.66
25.62
25.00
23.95
22.82
22.05
21.88
22.15
22.41
22.04
20.71
18.55
16.08
13.89
12.34
11.35
10.53
9.44
7.89
5.95
3.86
1.79
-0.23
-2.31
-4.60
-7.22
-10.18
-13.48
-17.01
-20.67
-24.33
-27.82
-30.95
-33.44
-34.94
-35.05
-33.53
-30.41
-26.05
-21.10
-16.25
-11.93
-8.18
-4.75
-1.26
2.48
6.36
9.97
12.87
14.78
15.73
15.98
15.93
15.90
16.09
16.57
17.34
18.39
19.70
21.20
22.65
23.74
24.17
23.69
22.26
19.95
16.87
13.33
9.66
6.28
3.51
1.46
-0.13
-1.65
-3.43
-5.53
-7.76
-9.82
-11.52
-12.96
-14.43
-16.30
-18.81
-21.99
-25.62
-29.28
-32.40
-34.40
-34.80
-33.46
-30.56
-26.55
-21.88
-16.94
-11.89
-6.87
-2.10
2.16
5.60
8.09
9.70
10.76
11.64
12.65
13.91
15.36
16.92
18.47
19.92
21.18
22.22
22.94
23.33
23.38
23.07
22.38
21.27
19.64
17.41
14.66
11.61
8.59
5.90
3.59
1.54
-0.54
-2.88
-5.50
-8.25
-10.87
-13.13
-15.02
-16.71
-18.49
-20.64
-23.39
-26.72
-30.38
-33.87
-36.48
-37.57
-36.72
-33.94
-29.60
-24.27
-18.52
-12.84
-7.60
-3.06
0.66
3.53
5.76
7.64
9.48
11.38
13.22
14.76
15.79
16.32
16.51
16.57
16.61
16.69
16.74
16.66
16.43
15.95
15.10
13.70
11.71
9.22
6.50
3.89
1.61
-0.34
-2.06
-3.73
-5.36
-6.89
-8.28
-9.52
-10.78
-12.29
-14.29
-16.87
-20.00
-23.45
-26.99
-30.33
-33.09
-34.87
-35.25
-33.96
-30.97
-26.58
-21.28
-15.63
-10.15
-5.12
-0.67
3.20
6.57
9.47
11.91
13.88
15.46
16.72
17.79
18.75
19.61
20.39
20.99
21.41
21.59
21.50
21.11
20.34
19.10
17.34
15.14
12.70
10.29
8.18
6.50
5.18
3.98
2.65
1.02
-0.85
-2.73
-4.41
-5.77
-6.88
-8.05
-9.66
-12.08
-15.53
-19.92
-24.85
-29.55
-33.08
-34.67
-33.93
-30.96
-26.31
-20.75
-14.97
-9.40
-4.24
0.52
4.86
8.75
12.14
14.97
17.12
18.45
18.85
18.33
17.17
15.79
14.72
14.29
14.63
15.58
16.86
18.15
19.18
19.75
19.67
18.85
17.32
15.23
12.85
10.42
8.13
6.03
4.00
1.83
-0.72
-3.79
-7.35
-11.18
-14.93
-18.28
-21.05
-23.24
-24.98
-26.36
-27.35
-27.78
-27.40
-26.07
-23.78
-20.66
-16.92
-12.75
-8.35
-3.89
0.51
4.71
8.64
12.19
15.30
17.89
19.97
21.61
22.91
24.04
25.06
25.95
26.57
26.72
26.29
25.37
24.15
22.90
21.84
21.04
20.42
19.72
18.60
16.76
14.09
10.64
6.72
2.73
-0.94
-4.05
-6.56
-8.62
-10.48
-12.34
-14.37
-16.68
-19.33
-22.31
-25.41
-28.24
-30.26
-30.89
-29.83
-27.16
-23.37
-19.14
-15.06
-11.34
-7.87
-4.29
-0.29
4.13
8.62
12.72
16.07
18.54
20.34
21.74
22.91
23.86
24.44
24.47
23.87
22.66
21.04
19.24
17.52
16.10
15.08
14.39
13.91
13.46
12.89
12.11
11.05
9.57
7.54
4.87
1.60
-2.03
-5.68
-9.05
-12.01
-14.62
-17.11
-19.67
-22.46
-25.43
-28.39
-31.03
-32.95
-33.78
-33.23
-31.12
-27.53
-22.76
-17.34
-11.80
-6.61
-2.03
1.92
5.37
8.48
11.39
14.12
16.64
18.87
20.68
21.94
22.61
22.74
22.49
22.15
21.96
22.03
22.27
22.34
21.92
20.73
18.77
16.17
13.26
10.33
7.61
5.24
3.20
1.41
-0.22
-1.80
-3.41
-5.11
-6.97
-9.04
-11.36
-13.99
-16.94
-20.22
-23.79
-27.52
-31.12
-34.18
-36.18
-36.71
-35.56
-32.85
-29.04
-24.66
-20.14
-15.74
-11.40
-7.07
-2.69
1.58
5.50
8.80
11.23
12.72
13.31
13.17
12.50
11.56
10.55
9.68
9.06
8.75
8.71
8.85
9.12
9.45
9.79
10.03
9.99
9.45
8.18
6.07
3.21
-0.14
-3.60
-6.79
-9.51
-11.79
-13.78
-15.67
-17.58
-19.49
-21.33
-22.99
-24.44
-25.67
-26.61
-27.15
-27.08
-26.19
-24.37
-21.65
-18.23
-14.37
-10.28
-6.07
-1.74
2.68
7.03
11.00
14.25
16.54
17.82
18.23
17.98
17.31
16.40
15.38
14.42
13.68
13.31
13.32
13.63
14.07
14.43
14.55
14.35
13.80
12.86
11.64
10.12
8.30
6.01
3.07
-0.66
-5.06
-9.83
-14.47
-18.52
-21.68
-23.79
-24.82
-24.81
-23.81
-21.89
-19.20
-15.99
-12.48
-8.90
-5.36
-1.95
1.28
4.34
7.19
9.75
11.93
13.63
14.74
15.29
15.43
15.39
15.50
15.93
16.71
17.66
18.50
18.97
18.97
18.56
17.87
17.06
16.09
14.88
13.23
11.05
8.37
5.38
2.36
-0.47
-2.98
-5.20
-7.28
-9.44
-11.82
-14.45
-17.04
-19.11
-20.09
-19.52
-17.38
-13.97
-9.91
-5.73
-1.86
1.49
4.19
6.10
7.11
7.30
7.00
6.69
6.84
7.66
9.03
10.62
12.06
13.16
13.87
14.25
14.31
14.14
13.89
13.75
13.90
14.37
14.95
15.22
14.69
13.01
10.16
6.43
2.33
-1.61
-4.98
-7.66
-9.79
-11.73
-13.83
-16.31
-19.10
-21.89
-24.19
-25.53
-25.55
-24.12
-21.30
-17.38
-12.80
-8.09
-3.75
-0.16
2.57
4.48
5.81
6.83
7.66
8.35
8.86
9.19
9.42
9.74
10.34
11.34
12.63
13.97
15.03
15.57
15.48
14.87
13.89
12.71
11.39
9.87
8.05
5.89
3.51
1.08
-1.18
-3.19
-5.03
-6.87
-8.87
-11.13
-13.59
-16.09
-18.44
-20.42
-21.80
-22.42
-22.11
-20.81
-18.59
-15.65
-12.37
-9.13
-6.28
-3.96
-2.16
-0.65
0.90
2.71
4.84
7.08
9.08
10.52
11.27
11.40
11.20
10.96
10.81
10.74
10.63
10.32
9.81
9.20
8.61
8.19
7.90
7.59
7.12
6.29
5.07
3.51
1.80
0.10
-1.45
-2.86
-4.27
-5.82
-7.63
-9.71
-12.00
-14.38
-16.76
-19.04
-21.13
-22.92
-24.21
-24.76
-24.37
-23.02
-20.81
-18.08
-15.17
-12.38
-9.84
-7.50
-5.26
-3.01
-0.77
1.36
3.30
4.97
6.44
7.79
9.11
10.41
11.64
12.68
13.43
13.87
14.05
14.10
14.15
14.19
14.13
13.78
12.93
11.46
9.35
6.62
3.35
-0.35
-4.28
-8.11
-11.41
-13.80
-15.08
-15.32
-14.90
-14.34
-14.11
-14.53
-15.65
-17.31
-19.15
-20.76
-21.69
-21.63
-20.46
-18.26
-15.32
-11.95
-8.43
-4.91
-1.42
2.06
5.55
9.00
12.27
15.10
17.19
18.34
18.48
17.81
16.65
15.37
14.31
13.68
13.51
13.72
14.16
14.54
14.60
14.08
12.84
11.04
9.06
7.31
6.06
5.29
4.74
4.15
3.34
2.35
1.23
0.07
-1.24
-2.79
-4.70
-6.95
-9.38
-11.76
-13.88
-15.59
-16.77
-17.36
-17.33
-16.65
-15.31
-13.32
-10.71
-7.59
-4.17
-0.73
2.49
5.35
7.84
9.96
11.70
12.97
13.65
13.73
13.33
12.74
12.34
12.41
13.03
14.06
15.18
16.03
16.35
16.00
14.95
13.29
11.22
8.88
6.44
4.03
1.72
-0.35
-2.02
-3.20
-3.86
-4.13
-4.26
-4.54
-5.17
-6.25
-7.68
-9.30
-10.97
-12.63
-14.35
-16.16
-18.02
-19.66
-20.72
-20.85
-19.82
-17.70
-14.74
-11.34
-7.84
-4.41
-1.06
2.23
5.43
8.38
10.79
12.46
13.36
13.62
13.49
13.16
12.67
11.93
10.89
9.58
8.19
6.96
6.07
5.55
5.31
5.21
5.17
5.21
5.39
5.80
6.38
6.90
7.05
6.51
5.14
2.96
0.22
-2.72
-5.48
-7.83
-9.71
-11.24
-12.67
-14.17
-15.88
-17.75
-19.59
-21.12
-22.04
-22.14
-21.34
-19.71
-17.47
-14.87
-12.09
-9.25
-6.36
-3.36
-0.23
3.02
6.22
9.17
11.64
13.45
14.48
14.74
14.37
13.60
12.72
11.99
11.57
11.54
11.82
12.24
12.55
12.51
11.98
10.88
9.23
7.12
4.76
2.41
0.33
-1.36
-2.66
-3.75
-4.78
-5.86
-6.94
-7.84
-8.46
-8.75
-8.88
-9.11
-9.76
-10.99
-12.83
-15.15
-17.73
-20.30
-22.52
-24.02
-24.49
-23.79
-22.05
-19.66
-17.06
-14.61
-12.47
-10.51
-8.49
-6.24
-3.72
-1.09
1.32
3.25
4.63
5.57
6.38
7.29
8.39
9.58
10.56
11.05
10.93
10.36
9.63
9.05
8.75
8.62
8.41
7.87
6.95
5.82
4.76
3.93
3.35
2.86
2.24
1.41
0.40
-0.65
-1.65
-2.67
-3.88
-5.39
-7.19
-9.11
-10.91
-12.42
-13.60
-14.57
-15.51
-16.50
-17.51
-18.33
-18.66
-18.20
-16.81
-14.56
-11.83
-9.12
-6.87
-5.24
-4.07
-2.93
-1.44
0.58
3.00
5.46
7.60
9.25
10.45
11.38
12.17
12.85
13.32
13.50
13.41
13.18
12.99
12.92
12.84
12.50
11.57
9.96
7.78
5.40
3.26
1.75
0.94
0.66
0.55
0.25
-0.48
-1.64
-3.04
-4.37
-5.38
-5.97
-6.24
-6.47
-7.03
-8.29
-10.37
-13.09
-16.02
-18.57
-20.21
-20.66
-19.82
-17.86
-15.05
-11.73
-8.24
-4.85
-1.79
0.82
3.02
5.00
6.97
9.08
11.25
13.23
14.72
15.50
15.60
15.25
14.81
14.49
14.38
14.39
14.37
14.28
14.17
14.16
14.23
14.27
14.01
13.23
11.91
10.15
8.22
6.40
4.88
3.72
2.93
2.41
1.98
1.44
0.59
-0.66
-2.24
-3.94
-5.54
-6.92
-8.13
-9.43
-11.07
-13.24
-15.86
-18.61
-21.04
-22.71
-23.31
-22.74
-21.06
-18.48
-15.29
-11.78
-8.20
-4.77
-1.61
1.24
3.82
6.18
8.34
10.28
11.90
13.16
14.03
14.64
15.09
15.52
16.00
16.52
17.00
17.36
17.59
17.63
17.47
17.05
16.34
15.33
14.07
12.66
11.23
9.92
8.78
7.77
6.81
5.78
4.60
3.17
1.46
-0.52
-2.70
-4.95
-7.05
-8.88
-10.38
-11.63
-12.80
-14.07
-15.49
-17.06
-18.68
-20.17
-21.37
-22.07
-22.10
-21.35
-19.94
-18.04
-15.96
-13.85
-11.72
-9.47
-6.99
-4.21
-1.17
2.07
5.41
8.65
11.56
13.88
15.33
15.84
15.50
14.49
13.04
11.35
9.54
7.80
6.40
5.53
5.35
5.80
6.60
7.45
8.05
8.18
7.76
6.79
5.38
3.72
2.06
0.59
-0.67
-1.81
-3.04
-4.49
-6.11
-7.76
-9.22
-10.40
-11.28
-11.96
-12.49
-13.01
-13.64
-14.53
-15.85
-17.63
-19.75
-21.85
-23.50
-24.33
-24.13
-22.95
-20.97
-18.46
-15.65
-12.74
-9.83
-6.94
-4.10
-1.31
1.43
4.07
6.58
8.90
10.97
12.76
14.27
15.49
16.38
16.86
16.86
16.38
15.54
14.56
13.64
12.98
12.54
12.17
11.64
10.82
9.74
8.58
7.59
6.84
6.28
5.71
4.92
3.79
2.25
0.32
-1.91
-4.33
-6.73
-8.85
-10.49
-11.54
-12.09
-12.41
-12.86
-13.74
-15.16
-16.98
-18.80
-20.15
-20.52
-19.64
-17.54
-14.58
-11.35
-8.42
-6.10
-4.41
-3.05
-1.66
0.06
2.22
4.73
7.38
9.94
12.24
14.14
15.61
16.64
17.30
17.69
17.92
18.07
18.16
18.18
18.02
17.54
16.59
15.09
13.04
10.66
8.30
6.33
5.09
4.60
4.70
5.01
5.17
4.91
4.17
3.04
1.74
0.43
-0.85
-2.19
-3.76
-5.70
-8.00
-10.53
-13.07
-15.48
-17.67
-19.64
-21.26
-22.27
-22.31
-21.03
-18.38
-14.63
-10.39
-6.32
-2.93
-0.33
1.65
3.26
4.76
6.24
7.70
9.12
10.48
11.74
12.87
13.76
14.27
14.40
14.27
14.14
14.30
14.94
15.97
17.07
17.76
17.62
16.44
14.28
11.48
8.45
5.51
2.79
0.20
-2.49
-5.46
-8.68
-11.95
-14.91
-17.32
-19.18
-20.82
-22.82
-25.76
-29.91
-35.02
-40.46
-45.48
-49.61
-52.82
-55.55
-58.49
-62.20
-67.03
-72.94
-79.53
-85.84
-90.28
-90.73
-85.05
-72.09
-52.70
-30.27
-10.15
1.96
2.05
-10.84
-34.59
-65.24
-98.89
-133.15
-167.28
-201.35
-235.00
-266.94
-295.40
-318.88
-336.69
-348.86
-355.37
-355.69
-348.85
-334.18
-312.08
-284.28
-253.37
-221.82
-191.32
-162.63
-135.94
-111.45
-89.39
-69.79
-52.12
-35.01
-16.70
4.42
29.29
58.00
89.73
123.03
156.10
186.95
214.08
237.16
257.45
277.71
300.89
328.38
358.71
387.36
408.14
415.69
407.76
386.25
356.67
326.03
300.63
284.30
277.78
279.03
284.14
288.38
287.25
277.59
258.38
231.13
199.50
168.21
141.56
122.42
111.56
107.87
109.01
112.22
114.97
115.31
112.17
105.39
95.73
84.59
73.51
63.64
55.37
48.24
41.42
34.10
25.90
16.78
6.98
-3.16
-13.23
-22.77
-31.29
-38.32
-43.61
-47.17
-49.18
-49.75
-48.71
-45.66
-40.38
-33.32
-25.84
-20.01
-17.99
-21.16
-29.38
-40.67
-51.63
-58.20
-56.67
-44.46
-20.64
13.58
54.97
99.43
143.40
184.90
223.77
260.93
296.99
331.29
361.21
382.79
392.52
388.58
370.97
340.45
297.46
241.61
172.62
91.23
0.11
-95.52
-188.78
-272.84
-342.96
-397.33
-437.20
-462.48
-470.72
-460.17
-431.98
-390.69
-341.51
-288.46
-233.82
-179.64
-128.17
-82.85
-48.84
-29.08
-23.57
-27.66
-32.60
-27.47
-3.86
41.19
102.59
167.28
220.28
250.17
253.20
228.90
183.44
125.10
61.87
-1.63
-65.08
-128.75
-191.98
-252.80
-309.26
-360.28
-406.58
-447.84
-469.33
-457.99
-408.22
-327.65
-233.53
-143.32
-67.01
-11.32
30.57
64.12
88.64
99.75
92.83
66.78
26.90
-17.64
-57.58
-85.35
-99.00
-102.33
-101.34
-101.00
-102.92
-105.39
-100.40
-83.97
-56.31
-22.58
9.97
36.25
54.81
67.71
78.57
90.32
103.44
117.20
129.60
138.66
143.72
145.44
145.61
146.23
148.49
152.18
156.75
161.17
164.71
167.68
170.40
173.27
176.93
179.99
180.39
176.65
168.03
154.88
139.53
123.90
109.91
98.72
90.40
84.01
78.89
74.80
71.86
72.00
75.56
82.57
92.14
102.39
110.41
114.07
111.97
103.06
88.17
65.04
36.46
11.24
-4.00
-6.90
1.58
18.08
25.17
22.10
10.36
-8.90
-37.11
-66.48
-94.78
-120.75
-143.57
-162.56
-175.17
-181.11
-180.57
-174.28
-163.50
-151.17
-139.58
-130.53
-125.29
-122.75
-122.62
-124.12
-126.09
-127.49
-128.89
-131.03
-134.88
-141.66
-151.22
-163.86
-178.99
-195.44
-211.81
-227.94
-244.09
-260.98
-279.74
-301.39
-327.81
-360.74
-400.63
-445.31
-489.65
-525.56
-544.06
-538.95
-509.26
-460.22
-400.75
-340.01
-284.30
-236.17
-195.15
-158.62
-124.86
-93.88
-66.93
-44.84
-26.98
-11.74
2.52
16.43
32.02
50.03
69.68
89.10
106.82
122.95
138.70
155.43
173.79
197.30
227.96
264.93
304.75
343.69
380.03
413.99
446.87
479.91
518.87
567.59
625.58
687.86
747.59
799.40
839.75
866.58
846.57
760.73
613.07
430.60
246.19
82.25
-52.14
-157.25
-237.56
-298.95
-341.52
-365.41
-372.96
-369.12
-361.16
-351.68
-340.66
-326.68
-308.66
-281.73
-242.58
-191.25
-131.19
-68.68
-9.59
42.96
88.48
126.33
157.17
178.60
185.37
172.36
138.26
87.87
30.33
-20.98
-60.62
-84.03
-89.35
-78.07
-54.88
-26.75
-1.20
12.21
9.02
-10.76
-41.81
-77.00
-110.46
-138.98
-161.59
-178.31
-189.83
-195.15
-193.68
-184.97
-169.37
-147.69
-120.82
-89.24
-53.25
-14.81
23.82
59.83
90.81
114.79
130.53
138.01
138.48
133.91
126.54
118.70
111.62
105.54
99.94
94.02
87.42
80.46
73.93
68.56
65.08
63.39
62.43
61.05
58.61
55.27
52.04
49.82
48.81
48.39
47.27
44.12
38.33
30.00
20.41
11.50
5.66
5.30
12.23
26.90
47.60
71.56
93.07
106.66
107.98
95.02
69.12
34.98
-0.40
-29.99
-48.86
-56.72
-57.39
-57.15
-62.02
-74.64
-93.17
-112.78
-128.04
-135.07
-133.07
-123.59
-109.17
-92.31
-74.61
-57.35
-41.54
-28.83
-20.84
-18.88
-22.59
-29.11
-33.30
-29.47
-14.35
12.98
46.24
76.77
97.57
106.61
106.98
104.03
101.55
97.41
86.94
65.44
32.48
-6.98
-44.28
-71.09
-83.09
-81.48
-72.41
-61.92
-53.88
-48.56
-43.91
-37.34
-27.56
-14.92
4.75
29.47
56.98
85.29
113.69
141.84
169.16
193.94
215.50
232.74
243.82
248.82
247.86
241.76
231.64
218.45
202.13
181.33
156.28
126.62
93.39
56.27
15.54
-27.19
-69.27
-108.41
-143.10
-172.68
-197.43
-217.02
-234.15
-250.98
-267.18
-280.14
-287.25
-287.07
-279.51
-265.66
-246.65
-228.22
-215.85
-211.74
-215.03
-224.33
-239.22
-260.26
-288.22
-292.91
-258.10
-188.91
-106.25
-30.37
28.86
70.71
98.99
119.05
127.41
125.96
115.86
99.56
80.84
62.58
45.56
28.64
9.31
-5.37
-16.68
-28.36
-43.03
-61.60
-84.71
-113.64
-150.15
-195.28
-248.14
-307.54
-368.82
-422.90
-459.09
-469.73
-453.43
-415.49
-365.17
-311.95
-264.13
-225.88
-197.12
-175.51
-158.82
-145.77
-135.59
-126.96
-117.71
-106.27
-91.78
-74.37
-55.06
-35.48
-17.07
-0.41
14.96
30.24
46.35
63.63
81.58
99.06
114.84
128.14
139.05
148.52
157.93
168.43
180.74
194.86
210.12
225.58
240.41
254.28
267.68
281.91
298.51
318.35
340.67
362.73
380.28
388.91
385.63
369.93
343.83
310.95
275.44
240.91
210.21
185.35
167.44
156.42
150.71
147.45
143.23
135.42
123.16
107.68
91.48
77.08
65.88
57.76
51.42
45.39
38.88
32.09
26.03
21.82
20.00
20.24
21.30
21.44
19.01
13.00
3.28
-9.31
-23.16
-36.35
-47.05
-53.98
-56.60
-55.10
-50.32
-43.75
-37.33
-33.20
-33.06
-37.42
-45.12
-53.51
-59.35
-60.15
-55.26
-46.11
-35.38
-25.76
-18.82
-14.71
-12.59
-11.56
-11.16
-11.53
-12.98
-15.53
-18.66
-21.37
-22.58
-21.44
-17.76
-12.10
-5.65
0.15
4.08
5.52
4.61
1.96
-1.71
-5.90
-10.34
-14.62
-17.96
-19.17
-17.24
-12.07
-5.03
1.20
3.76
0.92
-6.78
-16.58
-24.66
-27.84
-25.00
-17.40
-7.90
0.64
6.50
9.58
10.72
10.80
10.00
7.97
4.46
-0.06
-4.28
-6.60
-5.91
-2.19
3.55
9.76
15.05
18.69
20.60
21.25
21.15
20.68
19.91
18.56
16.12
12.13
6.49
-0.17
-6.44
-10.63
-11.51
-8.99
-4.43
-0.16
1.40
-1.20
-7.80
-16.56
-24.63
-29.16
-28.32
-22.04
-11.92
-0.67
9.02
15.42
18.41
19.10
19.15
19.79
21.26
22.99
24.08
23.99
22.79
21.12
19.74
19.28
20.05
21.95
24.59
27.29
29.21
29.68
28.49
26.11
23.49
21.55
20.51
19.66
17.74
13.73
7.70
1.13
-3.64
-4.66
-1.59
3.84
8.50
9.32
4.75
-4.40
-15.50
-25.29
-31.33
-32.75
-30.13
-24.83
-18.28
-11.55
-5.38
-0.28
3.35
5.37
5.85
5.18
3.92
2.65
1.86
1.95
3.07
5.11
7.74
10.54
13.34
16.25
19.59
23.35
26.91
28.96
28.08
23.61
16.17
7.55
0.10
-4.42
-5.51
-3.89
-1.03
1.62
3.26
3.73
3.22
1.93
-0.05
-2.56
-5.17
-7.22
-8.09
-7.64
-6.54
-6.19
-8.06
-12.97
-20.36
-28.14
-33.45
-33.79
-28.32
-18.47
-7.44
1.23
5.25
4.58
1.25
-1.90
-2.72
-0.66
3.18
7.03
9.50
10.21
9.64
8.67
7.91
7.58
7.64
7.94
8.50
9.36
10.52
11.98
13.65
15.45
17.18
18.38
18.49
16.98
13.72
9.17
4.24
-0.02
-2.99
-4.68
-5.62
-6.48
-7.69
-9.30
-11.03
-12.66
-14.18
-15.99
-18.77
-23.18
-29.69
-38.19
-47.78
-56.64
-62.45
-63.20
-58.16
-48.43
-36.69
-26.04
-18.58
-14.54
-12.47
-10.34
-6.78
-1.81
3.42
7.61
10.16
11.43
12.27
13.44
15.12
17.05
18.84
20.20
20.98
20.99
20.12
18.47
16.62
15.51
16.01
18.30
21.70
24.95
26.88
26.97
25.57
23.59
21.93
21.17
21.51
22.90
25.14
27.99
31.04
33.56
34.76
34.06
31.56
28.22
25.64
25.38
28.29
34.07
41.36
48.37
53.55
55.91
54.93
50.22
41.39
28.48
12.49
-4.31
-18.91
-28.61
-32.26
-30.49
-25.13
-17.98
-10.09
-1.92
5.86
11.81
13.88
10.40
1.26
-12.01
-26.95
-41.63
-55.34
-68.25
-80.22
-89.99
-95.32
-94.29
-86.95
-75.93
-65.71
-60.69
-63.13
-72.19
-84.41
-95.30
-100.90
-99.09
-89.76
-74.29
-54.92
-33.96
-13.26
5.82
22.49
36.25
46.62
53.30
56.50
57.19
56.99
57.65
60.21
64.40
68.66
70.79
68.98
62.56
52.12
39.11
25.16
11.60
-0.73
-11.57
-21.17
-30.14
-39.09
-48.33
-57.44
-65.29
-70.59
-72.44
-71.04
-67.68
-64.34
-62.84
-64.22
-68.44
-74.51
-81.05
-86.61
-90.14
-91.10
-89.56
-85.83
-80.12
-72.30
-61.92
-48.75
-33.23
-16.73
-1.22
11.51
20.51
25.92
28.64
29.66
29.65
29.04
28.43
28.89
31.75
37.77
46.42
55.75
63.19
66.76
66.02
62.05
56.64
51.25
46.38
41.80
37.40
33.89
32.73
35.43
42.38
52.27
62.43
69.94
72.86
70.99
65.69
59.02
52.73
47.71
43.90
41.03
39.22
39.17
41.61
46.37
51.79
54.80
52.02
41.15
22.07
-3.17
-31.24
-58.89
-83.95
-105.40
-122.79
-135.61
-143.03
-144.31
-139.24
-128.32
-112.45
-92.50
-69.04
-42.68
-14.62
13.16
37.96
57.08
68.74
72.69
70.08
62.85
52.96
41.78
29.98
17.69
4.86
-8.66
-22.99
-38.20
-53.83
-68.41
-79.48
-84.08
-80.15
-67.82
-50.03
-31.58
-17.13
-8.90
-5.67
-3.53
1.96
13.20
29.19
46.17
59.56
66.30
66.08
60.98
53.92
47.00
40.69
34.32
27.07
19.02
11.21
4.82
0.28
-3.01
-5.96
-8.84
-10.79
-10.43
-7.11
-1.84
3.01
5.04
3.44
-0.37
-3.66
-3.98
-0.64
5.20
11.71
17.76
23.56
30.00
37.41
44.62
49.11
48.28
40.73
27.18
10.12
-7.00
-21.14
-30.34
-34.10
-33.19
-29.24
-24.14
-19.25
-14.88
-10.13
-3.52
5.78
17.01
27.64
34.36
34.67
28.24
17.21
5.15
-4.56
-10.09
-11.52
-10.17
-7.52
-4.41
-0.98
2.84
6.96
10.87
13.86
15.38
15.25
13.69
11.38
9.18
8.03
8.61
11.04
14.75
18.50
20.90
20.85
18.05
13.13
7.42
2.44
-0.60
-1.24
0.02
1.98
3.07
1.98
-1.93
-8.39
-16.24
-23.72
-28.94
-30.40
-27.57
-21.24
-13.41
-6.72
-3.39
-4.20
-8.09
-12.68
-15.41
-14.71
-10.75
-5.12
0.24
3.92
5.75
6.51
7.38
9.28
12.52
16.79
21.49
25.92
29.46
31.70
32.54
32.12
30.72
28.50
25.34
20.97
15.20
8.28
1.01
-5.38
-9.81
-12.02
-12.76
-13.55
-15.84
-20.28
-26.35
-32.59
-37.40
-39.67
-39.18
-36.33
-31.89
-26.72
-21.89
-18.75
-18.72
-22.62
-29.91
-38.34
-44.71
-46.23
-41.98
-33.49
-23.96
-16.56
-12.77
-11.86
-11.62
-9.99
-6.36
-1.78
1.90
3.31
2.45
0.55
-0.72
-0.19
2.32
6.13
10.28
13.88
16.43
17.64
17.48
16.10
13.94
11.69
10.05
9.48
9.89
10.79
11.40
11.11
9.62
7.01
3.55
-0.51
-4.83
-9.02
-12.39
-14.13
-13.57
-10.57
-5.80
-0.70
2.95
3.77
1.34
-3.55
-9.15
-13.57
-15.44
-14.49
-11.45
-7.54
-3.84
-0.84
1.48
3.37
4.81
5.51
5.15
3.79
2.05
0.81
0.68
1.64
3.11
4.43
5.42
6.42
8.00
10.25
12.55
13.79
13.13
10.69
7.59
5.42
5.24
6.97
9.32
10.55
9.39
5.66
0.34
-4.91
-8.65
-10.16
-9.70
-8.11
-6.42
-5.43
-5.57
-7.02
-9.76
-13.53
-17.65
-21.01
-22.30
-20.53
-15.65
-8.72
-1.55
4.09
7.23
7.98
7.24
6.06
5.18
4.99
5.67
7.36
10.08
13.45
16.62
18.68
19.14
18.48
17.93
18.69
21.05
24.09
26.12
25.76
22.87
18.66
14.90
12.88
12.64
13.11
12.88
11.14
8.14
4.86
2.37
1.17
1.00
1.12
0.86
-0.06
-1.46
-2.92
-4.20
-5.46
-7.06
-9.31
-11.97
-14.16
-14.64
-12.38
-7.24
-0.14
7.24
13.27
17.10
18.90
19.62
20.41
21.97
24.42
27.32
30.11
32.23
33.34
33.34
32.40
30.86
29.02
26.81
23.70
18.79
11.52
2.17
-7.98
-17.19
-24.23
-29.18
-33.44
-38.68
-45.69
-53.58
-60.16
-63.22
-61.90
-57.13
-51.09
-45.64
-41.25
-36.74
-30.28
-20.84
-9.16
2.17
9.93
11.76
7.37
-1.32
-10.97
-18.23
-21.06
-19.37
-14.77
-9.58
-5.68
-3.76
-3.35
-3.37
-3.05
-2.39
-2.04
-2.75
-4.64
-7.03
-8.68
-8.53
-6.21
-2.22
2.36
6.45
9.42
11.25
12.39
13.40
14.67
16.23
17.77
18.71
18.52
16.92
14.01
10.43
7.09
4.94
4.56
5.82
7.96
9.74
10.03
8.17
4.34
-0.57
-5.23
-8.48
-9.92
-10.14
-10.50
-12.32
-16.13
-21.03
-24.97
-25.61
-21.60
-13.49
-3.63
4.77
9.19
8.99
5.54
1.31
-1.38
-1.49
0.51
3.24
5.16
5.38
3.91
1.49
-0.75
-1.68
-0.57
2.60
7.08
11.47
14.25
14.49
12.28
8.68
5.17
2.79
1.66
1.08
0.06
-1.84
-4.24
-6.24
-7.01
-6.42
-5.21
-4.48
-5.07
-7.02
-9.54
-11.50
-12.18
-11.66
-10.80
-10.57
-11.40
-12.76
-13.50
-12.50
-9.48
-5.29
-1.41
0.92
1.52
1.35
1.88
4.13
7.99
12.31
15.60
16.95
16.41
14.78
13.09
12.08
12.00
12.80
14.28
16.16
17.97
18.99
18.47
16.07
12.13
7.70
3.94
1.66
0.85
0.86
0.77
-0.12
-2.06
-4.93
-8.33
-11.79
-14.79
-16.80
-17.36
-16.33
-14.14
-11.81
-10.69
-11.87
-15.55
-20.71
-25.48
-27.82
-26.42
-21.37
-14.08
-6.61
-0.68
2.99
4.80
5.66
6.27
6.80
6.91
6.34
5.21
4.03
3.36
3.44
4.09
4.92
5.75
6.68
7.95
9.59
11.18
12.08
11.93
10.90
9.70
9.14
9.47
10.30
10.65
9.53
6.42
1.60
-4.02
-9.20
-12.79
-14.12
-13.08
-10.33
-7.08
-4.91
-5.08
-8.05
-13.13
-18.51
-21.96
-21.79
-17.64
-10.66
-2.97
3.36
7.31
9.21
10.35
12.02
14.78
18.22
21.38
23.41
24.01
23.49
22.32
20.94
19.57
18.42
17.83
18.12
19.35
21.05
22.33
22.29
20.56
17.44
13.66
9.96
6.64
3.61
0.60
-2.47
-5.52
-8.29
-10.55
-12.16
-12.99
-12.93
-11.94
-10.30
-8.75
-8.35
-9.96
-13.76
-18.92
-23.87
-26.95
-27.17
-24.67
-20.58
-16.37
-13.05
-10.71
-8.58
-5.63
-1.38
3.76
8.59
11.91
13.19
12.90
12.10
11.74
12.13
12.87
13.40
13.49
13.43
13.81
14.91
16.34
17.19
16.56
14.09
10.29
6.20
2.96
1.23
1.01
1.68
2.31
2.00
0.18
-3.19
-7.56
-11.87
-14.96
-15.99
-14.85
-12.24
-9.47
-8.07
-9.15
-12.94
-18.65
-24.56
-28.59
-29.08
-25.44
-18.41
-9.78
-1.54
4.86
8.93
11.02
11.72
11.46
10.47
8.98
7.56
7.13
8.40
11.41
15.32
18.85
21.00
21.66
21.57
21.68
22.50
23.58
23.86
22.34
18.70
13.54
8.06
3.40
0.18
-1.58
-2.23
-2.17
-1.67
-0.98
-0.57
-1.12
-3.31
-7.33
-12.55
-17.59
-20.80
-21.04
-18.26
-13.63
-9.11
-6.78
-7.95
-12.64
-19.49
-26.18
-30.31
-30.36
-26.37
-20.08
-14.02
-10.33
-9.62
-10.75
-11.62
-10.41
-6.81
-2.03
1.94
3.56
2.60
0.13
-2.33
-3.62
-3.37
-1.92
0.20
2.64
5.18
7.54
9.26
9.73
8.50
5.62
1.59
-2.83
-6.90
-10.12
-12.20
-12.94
-12.29
-10.52
-8.36
-6.80
-6.74
-8.47
-11.30
-13.81
-14.36
-11.88
-6.37
1.10
8.83
15.07
18.48
18.36
14.81
8.67
1.46
-5.01
-9.13
-10.08
-8.09
-4.22
0.20
4.25
7.71
10.83
13.92
16.89
19.23
20.29
19.79
17.96
15.43
13.01
11.42
11.19
12.52
15.19
18.47
21.13
21.97
20.34
16.66
12.40
9.37
8.76
10.47
13.19
15.21
15.44
13.95
11.81
10.25
9.84
10.10
9.84
7.92
3.91
-1.66
-7.75
-13.44
-18.60
-23.87
-30.17
-37.96
-46.63
-54.48
-59.36
-59.59
-54.61
-45.09
-32.46
-18.09
-2.96
12.32
27.06
40.05
49.60
54.11
52.81
45.99
34.77
20.32
3.46
-15.12
-34.22
-51.62
-64.41
-70.30
-69.12
-63.35
-57.11
-54.06
-55.28
-58.83
-60.95
-58.64
-51.57
-42.29
-34.58
-31.17
-32.48
-36.82
-42.08
-47.01
-51.22
-53.93
-52.64
-43.46
-23.19
7.97
44.95
79.04
101.49
107.41
97.63
77.73
54.73
34.03
18.05
7.11
1.35
1.87
10.31
27.00
49.35
71.63
86.64
88.53
75.37
50.28
20.52
-5.09
-19.49
-19.66
-7.47
11.65
31.16
45.90
53.43
53.83
48.42
38.60
25.49
10.42
-4.36
-15.71
-20.58
-17.42
-7.35
6.12
18.43
25.97
27.44
24.00
18.22
12.38
7.38
2.53
-3.52
-11.57
-20.98
-29.75
-35.32
-35.65
-30.10
-19.64
-6.59
6.20
15.98
20.83
20.17
14.87
7.03
-0.71
-5.95
-7.27
-4.46
1.54
9.18
16.68
22.40
25.10
24.11
19.79
13.62
7.97
5.25
6.77
11.96
18.42
23.03
23.40
19.04
11.50
3.47
-2.66
-5.79
-6.30
-5.39
-4.11
-2.74
-0.99
1.46
4.30
6.49
6.69
4.11
-1.08
-7.71
-14.16
-19.22
-22.50
-24.50
-26.09
-27.91
-29.85
-31.24
-31.27
-29.72
-27.26
-25.30
-25.20
-27.42
-31.13
-34.48
-35.56
-33.41
-28.55
-22.58
-17.27
-13.50
-10.94
-8.47
-5.10
-0.77
3.45
5.89
5.19
0.99
-5.80
-13.29
-19.31
-21.97
-20.18
-14.03
-4.72
5.59
14.38
19.47
19.63
14.95
6.82
-2.56
-10.81
-15.95
-16.88
-13.62
-7.27
0.25
6.79
10.71
11.46
9.81
7.52
6.50
7.80
11.12
14.76
16.25
13.49
5.63
-6.27
-19.51
-30.58
-36.55
-36.07
-29.88
-20.35
-10.55
-3.08
0.74
0.92
-1.49
-5.06
-8.39
-10.48
-10.76
-9.18
-6.25
-2.82
0.16
2.03
2.51
1.73
-0.02
-2.35
-4.69
-6.28
-6.10
-3.30
2.35
10.07
18.24
24.88
28.42
28.24
24.78
19.18
12.76
6.65
1.60
-1.99
-4.04
-4.82
-4.94
-5.26
-6.53
-8.99
-12.10
-14.58
-14.88
-12.03
-6.32
0.63
6.37
8.83
7.37
3.21
-1.14
-3.17
-1.61
3.04
9.01
14.33
17.91
19.66
20.03
19.22
17.01
13.19
8.35
4.24
3.11
6.52
14.06
23.17
30.19
32.13
28.18
20.08
11.16
4.63
2.21
3.60
6.95
9.94
10.80
8.74
4.02
-2.39
-9.11
-14.75
-18.01
-18.09
-14.97
-9.75
-4.52
-1.85
-3.85
-11.16
-22.42
-34.43
-43.32
-46.02
-41.42
-30.76
-16.96
-3.42
7.22
13.65
15.90
14.85
11.71
7.86
4.65
3.21
4.27
7.73
12.73
17.87
21.82
23.70
23.35
21.19
17.96
14.52
11.84
10.74
11.77
14.94
19.41
23.81
26.60
26.75
24.21
19.86
15.10
11.21
8.77
7.41
6.16
3.96
0.34
-4.36
-9.07
-12.55
-13.93
-13.16
-11.15
-9.40
-9.57
-12.83
-19.27
-27.75
-35.99
-41.32
-41.63
-36.30
-26.58
-15.04
-4.55
3.12
7.78
10.60
13.02
15.70
18.16
19.29
18.23
15.25
11.69
9.35
9.56
12.54
17.32
22.25
25.68
26.43
24.13
19.11
12.38
5.33
-0.61
-4.35
-5.53
-4.60
-2.68
-1.13
-1.08
-2.98
-6.55
-10.90
-14.94
-17.85
-19.30
-19.46
-18.88
-18.16
-17.77
-17.99
-18.93
-20.54
-22.80
-25.71
-29.18
-33.09
-37.01
-40.22
-41.73
-40.61
-36.39
-29.55
-21.55
-14.34
-9.55
-7.67
-7.83
-8.31
-7.53
-4.86
-0.83
3.37
6.79
9.13
10.78
12.25
13.63
14.58
14.61
13.72
12.62
12.36
13.74
16.70
20.26
22.92
23.40
21.11
16.34
10.08
3.68
-1.38
-3.82
-2.94
1.03
6.84
12.46
16.00
16.45
14.17
10.80
8.39
8.66
12.27
18.71
26.62
34.10
39.21
40.42
37.24
30.73
23.60
19.48
21.59
31.31
47.34
66.00
82.48
92.97
95.94
92.41
85.21
77.72
72.44
70.28
70.16
69.12
63.56
50.30
27.83
-3.19
-39.48
-75.80
-106.18
-125.47
-131.65
-126.44
-115.77
-108.52
-113.63
-136.01
-173.82
-218.46
-257.59
-280.84
-282.86
-264.94
-233.25
-195.33
-156.58
-119.13
-82.99
-44.62
-6.39
25.64
44.89
48.75
39.50
22.56
3.10
-15.90
-33.94
-53.00
-74.28
-97.36
-120.04
-140.18
-154.80
-161.99
-161.67
-155.48
-146.70
-137.87
-130.34
-124.17
-118.65
-112.67
-105.45
-96.59
-85.72
-75.47
-67.04
-60.68
-55.90
-51.91
-47.94
-43.67
-39.16
-34.73
-30.89
-27.64
-24.75
-21.91
-18.90
-15.49
-11.59
-7.10
-1.84
4.33
11.82
20.82
31.17
42.42
54.08
65.81
77.68
90.22
104.22
120.68
140.14
162.52
187.20
213.20
239.53
265.47
290.76
315.78
341.65
369.83
401.39
436.14
471.97
504.69
528.86
539.16
532.05
506.88
466.09
414.36
357.28
299.95
246.01
197.22
153.78
114.96
79.82
47.70
18.34
-8.02
-30.73
-49.00
-62.29
-70.48
-73.95
-73.34
-69.49
-63.21
-54.80
-43.83
-29.40
-10.77
12.14
38.75
67.95
98.01
126.47
150.46
167.36
175.34
173.49
161.95
141.51
112.91
75.73
28.52
-29.93
-98.82
-174.52
-251.47
-323.61
-386.01
-433.08
-458.50
-458.65
-435.11
-394.10
-343.41
-289.73
-237.23
-187.67
-141.39
-98.39
-59.31
-25.28
2.56
24.31
39.77
48.91
52.06
49.68
41.86
27.90
6.76
-21.98
-55.96
-92.47
-129.19
-164.32
-195.63
-219.70
-231.88
-227.39
-203.53
-161.99
-109.78
-56.94
-12.88
17.06
32.88
38.49
38.94
37.92
36.59
34.16
29.86
24.17
18.87
15.94
16.32
19.42
23.42
26.02
25.45
21.38
14.91
8.07
2.91
0.61
0.99
2.47
2.78
-0.05
-6.75
-16.46
-27.11
-35.97
-41.00
-40.35
-33.02
-18.75
1.68
25.82
49.24
65.96
70.54
60.34
37.04
6.34
-24.23
-48.13
-62.17
-66.26
-63.38
-56.83
-48.46
-38.48
-26.60
-13.22
0.23
11.81
20.14
24.92
27.15
28.41
29.98
32.21
34.56
36.06
35.88
33.81
30.24
26.14
22.50
19.93
18.55
17.99
17.72
17.37
16.74
15.81
14.64
13.33
11.79
10.07
8.37
7.04
6.49
6.94
8.17
9.57
10.42
10.24
9.27
8.44
8.95
11.76
17.12
24.20
31.35
36.68
38.18
34.33
24.10
7.28
-14.72
-38.45
-58.83
-70.56
-70.50
-59.70
-42.98
-27.09
-17.71
-17.19
-24.17
-35.04
-46.48
-56.91
-66.76
-77.10
-88.27
-99.13
-107.63
-111.61
-109.88
-102.36
-89.95
-73.99
-55.45
-34.97
-12.92
10.05
33.06
55.06
74.73
90.76
102.17
108.60
110.38
108.41
104.51
99.97
96.15
93.93
93.49
94.29
95.31
95.52
94.24
91.45
87.82
84.43
82.18
81.65
83.25
87.21
93.36
100.34
105.27
104.18
93.70
72.91
44.48
14.12
-11.72
-28.58
-35.73
-36.00
-33.72
-32.42
-33.53
-36.46
-39.92
-43.10
-46.17
-49.84
-54.31
-58.96
-62.44
-63.41
-61.07
-55.86
-49.08
-42.40
-37.14
-33.79
-31.95
-30.64
-28.74
-25.57
-21.07
-15.81
-10.59
-6.03
-2.26
0.91
4.03
7.62
11.94
16.84
21.91
26.67
30.83
34.50
37.70
40.86
44.36
48.50
53.35
58.80
64.76
71.23
78.43
86.17
94.45
103.20
112.21
121.17
129.72
137.63
144.96
152.12
159.01
165.81
172.58
179.07
184.74
188.70
189.79
186.39
181.42
175.78
170.01
164.29
158.36
151.74
143.83
134.17
122.47
108.98
93.68
77.45
61.91
49.08
40.80
37.80
39.35
43.32
46.91
47.20
42.63
33.32
20.64
6.41
-7.78
-21.00
-32.85
-43.18
-52.14
-59.66
-65.60
-69.75
-71.85
-71.40
-67.55
-59.10
-44.59
-23.59
4.08
38.23
78.03
121.76
166.98
210.87
250.83
284.87
310.94
327.85
335.47
334.33
325.17
308.80
285.87
257.27
224.25
186.63
145.12
101.71
59.20
19.64
-16.45
-50.08
-83.20
-117.96
-160.87
-215.62
-280.87
-351.19
-420.41
-484.15
-539.96
-586.45
-622.58
-657.06
-694.22
-730.90
-758.48
-769.64
-763.04
-742.98
-716.35
-689.92
-684.44
-711.32
-767.63
-839.02
-910.81
-975.52
-1032.62
-1084.88
-1135.33
-1206.18
-1309.30
-1438.25
-1570.87
-1682.24
-1754.76
-1780.16
-1758.13
-1568.34
-1173.24
-633.03
-72.27
403.89
754.11
986.73
1129.81
1211.14
1251.22
1243.57
1186.51
1092.60
985.51
886.82
806.91
746.43
700.99
665.76
619.71
554.36
475.72
399.74
341.30
306.52
293.21
294.81
304.10
305.46
289.84
258.16
218.84
180.98
149.50
125.00
106.12
91.47
76.06
54.69
27.95
0.11
-24.29
-42.73
-54.80
-61.09
-62.16
-59.83
-54.46
-44.46
-27.22
-0.48
36.79
84.21
140.22
202.32
267.19
330.94
389.59
438.91
474.95
494.60
495.88
478.24
442.54
390.91
326.50
253.40
175.90
98.17
23.88
-43.97
-103.23
-152.72
-192.22
-222.40
-244.28
-259.13
-268.13
-272.32
-272.42
-268.86
-262.01
-252.17
-239.75
-224.98
-208.02
-188.71
-166.58
-140.98
-111.35
-77.71
-40.76
-1.97
36.61
72.74
104.49
130.52
150.40
164.61
174.37
181.37
187.14
192.36
196.39
197.40
193.12
181.80
163.18
138.57
110.35
81.01
52.55
26.37
3.69
-13.98
-24.96
-27.85
-22.18
-8.61
11.15
34.70
59.20
81.28
97.31
104.13
100.35
87.48
70.19
54.94
47.80
52.15
67.56
90.38
115.52
138.42
156.18
167.69
173.03
173.02
168.92
162.67
156.52
152.44
151.14
151.44
150.55
145.39
134.20
117.82
99.64
84.40
76.45
78.20
89.72
108.96
132.61
156.66
176.98
189.82
192.81
185.73
170.89
152.41
134.37
118.72
104.13
86.56
61.28
25.34
-20.89
-73.66
-127.07
-174.82
-211.53
-233.47
-238.73
-227.26
-201.01
-163.73
-120.51
-76.60
-36.36
-2.47
24.12
43.64
56.80
64.38
67.22
66.11
61.92
55.35
