1659462844.00
64.000000
-0.00
-0.00
-0.00
-0.00
-0.00
-0.00
-0.00
-0.00
-0.00
-0.00
0.00
0.01
0.01
-0.00
-0.03
-0.05
-0.05
0.00
0.13
0.36
0.66
1.01
1.37
1.72
2.06
2.40
2.79
3.24
3.80
4.42
5.06
5.66
6.20
6.68
7.15
7.68
8.31
9.14
10.09
11.04
11.88
12.56
13.14
13.76
14.65
15.96
17.91
20.32
22.90
25.38
27.58
29.57
31.68
34.32
37.81
42.54
48.15
54.10
59.83
64.97
69.58
74.14
79.34
85.71
93.76
103.00
112.62
121.73
129.77
136.75
143.30
150.75
157.77
166.64
177.95
191.79
206.97
220.57
228.25
225.36
208.53
176.87
132.76
80.05
23.07
-34.94
-92.44
-149.16
-205.23
-260.37
-313.74
-363.87
-409.83
-450.91
-486.50
-515.74
-537.23
-549.22
-549.96
-538.36
-514.19
-478.64
-433.82
-382.36
-326.89
-269.66
-212.39
-156.34
-102.57
-51.91
-5.37
36.18
72.09
102.07
126.27
145.18
159.52
169.99
177.21
181.61
183.47
183.04
180.57
176.39
170.86
164.36
157.24
149.78
142.18
134.58
127.05
119.63
112.32
105.10
98.00
91.05
84.31
77.89
71.89
66.35
61.26
56.52
51.99
47.56
43.20
39.00
35.15
31.86
29.25
27.20
25.46
23.63
21.42
18.80
16.00
13.52
11.89
11.36
11.65
12.00
11.44
9.06
4.44
-2.27
-10.31
-18.84
-27.34
-36.05
-45.71
-57.20
-70.96
-86.49
-102.26
-115.92
-125.34
-129.15
-127.39
-121.18
-112.27
-102.47
-93.07
-85.88
-81.95
-80.82
-79.84
-74.51
-59.88
-33.16
4.20
46.35
85.07
113.32
128.00
131.11
126.92
120.06
113.28
106.95
100.20
92.35
84.05
76.83
72.11
70.05
69.70
69.40
67.51
63.38
57.47
51.12
45.86
42.76
41.95
42.72
43.87
44.23
43.15
40.76
37.84
35.42
34.26
34.48
35.65
37.11
38.46
39.89
41.88
44.46
46.66
46.48
41.70
31.11
15.38
-3.05
-20.92
-35.47
-45.33
-50.55
-51.94
-50.43
-46.70
-41.49
-35.86
-31.11
-28.38
-27.97
-29.14
-30.42
-30.26
-27.71
-22.84
-16.83
-11.61
-9.25
-11.09
-17.01
-25.15
-32.57
-36.39
-35.09
-29.28
-21.20
-13.63
-8.40
-5.78
-4.67
-3.67
-2.08
-0.28
0.73
0.16
-1.98
-4.88
-7.42
-8.94
-9.48
-9.63
-9.97
-10.57
-10.89
-10.08
-7.59
-3.63
0.76
4.10
5.21
3.81
0.74
-2.36
-3.75
-2.53
0.93
5.03
7.67
7.20
3.21
-3.42
-11.03
-17.96
-23.23
-26.53
-27.98
-27.57
-25.10
-20.43
-13.85
-6.36
0.80
6.67
11.09
14.81
19.05
24.88
32.68
42.23
52.27
61.28
68.02
72.00
73.46
73.13
71.85
70.03
67.54
63.78
58.09
50.25
40.70
30.42
20.65
12.36
5.93
1.13
-2.74
-6.47
-10.68
-15.77
-21.85
-28.81
-36.42
-44.37
-52.31
-59.92
-66.91
-73.01
-78.11
-82.20
-85.36
-87.57
-88.72
-88.61
-87.19
-84.67
-81.54
-78.31
-75.22
-71.99
-67.88
-62.02
-53.78
-43.12
-30.68
-17.63
-5.26
5.24
13.10
18.09
20.49
20.93
20.12
18.60
16.65
14.44
12.32
10.88
10.90
12.85
16.59
21.25
25.58
28.55
29.77
29.58
28.70
27.73
26.79
25.48
23.26
19.83
15.41
10.72
6.69
4.14
3.49
4.65
7.09
10.03
12.76
14.74
15.80
16.08
15.86
15.42
14.94
14.52
14.11
13.69
13.24
12.88
12.82
13.31
14.59
16.63
19.15
21.58
23.26
23.69
22.74
20.61
17.79
14.74
11.80
9.12
6.71
4.55
2.58
0.78
-0.93
-2.66
-4.50
-6.51
-8.61
-10.67
-12.51
-13.97
-14.95
-15.43
-15.42
-14.96
-14.09
-12.89
-11.52
-10.16
-9.00
-8.12
-7.51
-7.07
-6.70
-6.42
-6.31
-6.55
-7.24
-8.33
-9.61
-10.78
-11.57
-11.83
-11.58
-11.00
-10.29
-9.57
-8.90
-8.25
-7.56
-6.81
-6.00
-5.18
-4.37
-3.64
-3.04
-2.63
-2.42
-2.41
-2.57
-2.84
-3.16
-3.39
-3.36
-2.87
-1.79
-0.15
1.81
3.66
4.94
5.28
4.57
2.93
0.72
-1.53
-3.20
-3.74
-2.78
-0.29
3.42
7.68
11.75
14.92
16.80
17.24
16.41
14.59
12.19
9.66
7.40
5.72
4.68
4.07
3.46
2.38
0.51
-2.12
-5.15
-7.99
-10.00
-10.80
-10.35
-8.97
-7.12
-5.30
-3.81
-2.73
-1.98
-1.42
-0.98
-0.61
-0.32
-0.02
0.42
1.10
2.05
3.05
3.81
4.07
3.73
2.98
2.15
1.53
1.26
1.19
1.05
0.62
-0.14
-1.10
-1.97
-2.58
-2.87
-2.99
-3.12
-3.42
-3.90
-4.50
-5.14
-5.76
-6.36
-6.92
-7.33
-7.42
-7.02
-6.04
-4.58
-2.89
-1.35
-0.28
0.17
0.07
-0.39
-0.91
-1.26
-1.27
-0.96
-0.42
0.12
0.41
0.26
-0.39
-1.49
-2.81
-4.11
-5.16
-5.92
-6.47
-6.95
-7.48
-8.07
-8.65
-9.13
-9.52
-9.95
-10.63
-11.69
-13.16
-14.92
-16.72
-18.39
-19.79
-20.89
-21.67
-22.07
-21.95
-21.15
-19.59
-17.30
-14.40
-11.04
-7.37
-3.44
0.67
4.91
9.15
13.21
16.93
20.16
22.81
24.85
26.29
27.16
27.55
27.50
27.08
26.34
25.33
24.14
22.86
21.58
20.34
19.12
17.87
16.54
15.12
13.67
12.31
11.11
10.10
9.16
8.12
6.80
5.12
3.17
1.21
-0.43
-1.42
-1.62
-1.10
-0.10
1.01
1.93
2.47
2.61
2.46
2.15
1.80
1.50
1.26
1.12
1.10
1.20
1.39
1.61
1.77
1.75
1.53
1.14
0.74
0.44
0.36
0.43
0.50
0.39
-0.01
-0.67
-1.41
-2.03
-2.40
-2.54
-2.61
-2.79
-3.17
-3.74
-4.35
-4.83
-5.05
-4.95
-4.57
-3.96
-3.22
-2.41
-1.53
-0.56
0.51
1.61
2.61
3.32
3.59
3.36
2.71
1.85
0.99
0.29
-0.16
-0.37
-0.40
-0.34
-0.26
-0.22
-0.26
-0.36
-0.54
-0.77
-1.07
-1.45
-1.88
-2.27
-2.52
-2.52
-2.27
-1.85
-1.38
-0.99
-0.72
-0.58
-0.53
-0.56
-0.64
-0.70
-0.62
-0.22
0.58
1.74
3.08
4.32
5.22
5.73
5.91
5.93
5.89
5.75
5.44
4.85
4.01
3.04
2.18
1.59
1.32
1.28
1.26
1.01
0.37
-0.68
-2.02
-3.48
-4.84
-5.95
-6.70
-7.11
-7.17
-6.90
-6.35
-5.59
-4.76
-4.04
-3.61
-3.59
-4.02
-4.84
-5.88
-6.94
-7.75
-8.07
-7.69
-6.60
-4.95
-3.11
-1.51
-0.55
-0.41
-1.09
-2.34
-3.83
-5.23
-6.34
-7.16
-7.89
-8.85
-10.26
-12.14
-14.29
-16.34
-17.99
-19.16
-20.05
-20.96
-22.17
-23.70
-25.30
-26.56
-27.12
-26.80
-25.70
-24.15
-22.57
-21.26
-20.30
-19.41
-18.00
-15.34
-10.80
-4.15
4.31
13.80
23.35
32.01
39.21
44.78
48.87
51.78
53.75
54.92
55.29
54.80
53.44
51.23
48.30
44.81
40.99
37.06
33.14
29.26
25.32
21.20
16.89
12.50
8.27
4.41
1.01
-2.01
-4.74
-7.19
-9.13
-10.27
-10.44
-9.82
-8.92
-8.44
-8.86
-10.23
-12.13
-13.94
-15.07
-15.29
-14.73
-13.72
-12.63
-11.65
-10.83
-10.11
-9.39
-8.61
-7.66
-6.42
-4.72
-2.43
0.44
3.69
6.98
9.87
12.01
13.24
13.60
13.31
12.59
11.55
10.17
8.39
6.15
3.55
0.76
-2.00
-4.62
-7.08
-9.42
-11.66
-13.63
-15.11
-15.84
-15.77
-15.01
-13.91
-12.81
-11.97
-11.48
-11.28
-11.26
-11.28
-11.24
-11.04
-10.56
-9.73
-8.46
-6.77
-4.72
-2.47
-0.19
2.03
4.17
6.30
8.49
10.73
12.88
14.71
15.98
16.60
16.66
16.36
15.93
15.45
14.92
14.25
13.40
12.36
11.13
9.64
7.79
5.50
2.81
-0.02
-2.64
-4.68
-5.95
-6.43
-6.29
-5.76
-5.04
-4.29
-3.68
-3.38
-3.53
-4.24
-5.49
-7.12
-8.85
-10.37
-11.47
-12.03
-12.08
-11.73
-11.05
-10.09
-8.86
-7.34
-5.56
-3.64
-1.73
0.02
1.53
2.81
3.92
4.94
5.87
6.65
7.17
7.35
7.20
6.79
6.26
5.72
5.24
4.88
4.63
4.52
4.53
4.62
4.69
4.62
4.29
3.64
2.69
1.51
0.25
-0.95
-1.98
-2.75
-3.27
-3.59
-3.82
-4.12
-4.62
-5.37
-6.37
-7.46
-8.44
-9.09
-9.24
-8.83
-7.93
-6.69
-5.35
-4.12
-3.12
-2.39
-1.91
-1.58
-1.32
-1.05
-0.71
-0.29
0.21
0.76
1.33
1.87
2.40
2.90
3.39
3.86
4.25
4.50
4.55
4.38
4.03
3.59
3.20
2.92
2.79
2.72
2.60
2.33
1.84
1.17
0.43
-0.25
-0.78
-1.15
-1.45
-1.75
-2.08
-2.38
-2.56
-2.53
-2.29
-1.84
-1.25
-0.56
0.18
0.93
1.59
2.07
2.28
2.21
1.95
1.64
1.41
1.33
1.36
1.44
1.55
1.68
1.82
1.92
1.85
1.50
0.86
0.05
-0.65
-1.03
-1.02
-0.78
-0.59
-0.70
-1.20
-2.01
-2.91
-3.66
-4.15
-4.35
-4.30
-4.13
-3.92
-3.75
-3.66
-3.64
-3.60
-3.46
-3.14
-2.63
-1.93
-1.12
-0.28
0.54
1.28
1.89
2.35
2.58
2.54
2.23
1.69
1.01
0.36
-0.13
-0.35
-0.28
-0.01
0.36
0.69
0.90
0.92
0.76
0.44
0.06
-0.27
-0.50
-0.58
-0.61
-0.68
-0.92
-1.37
-2.01
-2.81
-3.73
-4.75
-5.81
-6.76
-7.42
-7.63
-7.35
-6.66
-5.76
-4.84
-4.03
-3.31
-2.64
-1.91
-1.01
0.18
1.75
3.73
5.99
8.24
10.11
11.25
11.53
11.05
10.07
8.90
7.83
6.99
6.44
6.11
5.92
5.75
5.52
5.20
4.82
4.42
3.98
3.41
2.64
1.64
0.51
-0.52
-1.23
-1.48
-1.32
-0.97
-0.75
-0.92
-1.52
-2.38
-3.15
-3.48
-3.15
-2.19
-0.83
0.57
1.73
2.52
2.93
3.07
3.01
2.78
2.39
1.90
1.44
1.12
1.03
1.13
1.25
1.24
1.00
0.55
0.03
-0.38
-0.60
-0.67
-0.71
-0.87
-1.25
-1.80
-2.37
-2.79
-2.94
-2.84
-2.60
-2.37
-2.27
-2.35
-2.63
-3.02
-3.50
-3.97
-4.37
-4.60
-4.55
-4.12
-3.29
-2.15
-0.88
0.30
1.20
1.77
2.06
2.25
2.50
2.86
3.28
3.57
3.53
3.04
2.13
0.94
-0.30
-1.41
-2.28
-2.90
-3.34
-3.67
-3.93
-4.19
-4.46
-4.77
-5.14
-5.58
-6.08
-6.61
-7.15
-7.63
-7.99
-8.21
-8.31
-8.47
-8.89
-9.78
-11.16
-12.85
-14.49
-15.70
-16.23
-16.16
-15.76
-15.43
-15.43
-15.79
-16.31
-16.75
-16.95
-16.99
-17.14
-17.79
-19.20
-21.45
-24.35
-27.52
-30.53
-33.05
-34.98
-36.48
-37.93
-39.90
-42.92
-47.29
-52.87
-58.86
-63.86
-66.26
-64.78
-59.01
-49.75
-38.72
-27.85
-18.45
-10.65
-3.59
3.97
12.87
23.16
34.16
44.95
54.77
63.26
70.42
76.41
81.40
85.60
89.14
92.16
94.58
96.17
96.50
95.19
92.09
87.48
82.11
76.98
73.09
70.86
69.79
68.38
64.73
57.46
46.50
33.23
19.83
8.21
-0.77
-7.27
-11.75
-14.13
-13.62
-9.29
-1.01
9.87
20.81
29.04
32.74
31.72
27.31
21.68
16.97
14.69
15.44
18.93
24.03
29.11
32.28
31.92
27.20
18.30
6.47
-6.36
-18.15
-27.21
-32.55
-33.91
-31.57
-26.14
-18.43
-9.41
-0.21
7.95
13.87
16.72
16.28
13.12
8.39
3.34
-1.10
-4.62
-7.39
-9.84
-12.22
-14.46
-16.22
-17.16
-17.29
-16.80
-15.95
-14.79
-13.21
-11.12
-8.70
-6.45
-4.97
-4.91
-6.43
-9.08
-12.05
-14.58
-16.28
-17.15
-17.49
-17.75
-18.83
-21.50
-25.90
-31.37
-36.74
-40.71
-42.35
-41.36
-37.99
-33.49
-28.87
-24.34
-19.48
-13.91
-7.96
-2.66
0.70
1.38
-1.45
-7.68
-15.99
-24.39
-30.84
-33.82
-32.31
-25.73
-8.66
20.59
58.02
95.05
123.43
139.38
143.72
140.23
132.07
121.20
107.25
88.66
65.56
38.82
10.03
-18.94
-46.14
-69.73
-87.98
-100.34
-106.76
-107.45
-102.99
-94.41
-83.24
-71.12
-59.51
-49.32
-41.39
-36.22
-33.68
-33.27
-34.10
-35.24
-35.89
-35.60
-34.24
-32.22
-30.11
-28.26
-26.75
-25.31
-23.51
-20.97
-17.52
-13.40
-9.25
-5.91
-4.00
-3.72
-4.69
-6.23
-7.67
-8.68
-9.36
-10.05
-11.07
-12.43
-13.77
-14.58
-14.45
-13.29
-11.36
-9.06
-6.80
-4.80
-3.14
-1.78
-0.72
0.07
0.57
0.79
0.80
0.72
0.68
0.77
1.05
1.51
2.11
2.74
3.31
3.71
3.86
3.71
3.26
2.56
1.66
0.63
-0.47
-1.59
-2.68
-3.65
-4.47
-5.12
-5.65
-6.20
-6.89
-7.82
-8.99
-10.29
-11.49
-12.36
-12.75
-12.64
-12.14
-11.39
-10.44
-9.25
-7.71
-5.74
-3.43
-1.05
1.00
2.42
3.15
3.37
3.45
3.66
4.14
4.77
5.38
5.83
6.13
6.32
6.44
6.42
6.18
5.71
5.10
4.54
4.14
3.85
3.41
2.47
0.78
-1.61
-4.33
-6.76
-8.28
-8.53
-7.59
-5.93
-4.17
-2.81
-2.00
-1.49
-0.84
0.30
1.98
3.92
5.74
7.25
8.57
10.05
12.05
14.67
17.68
20.59
22.94
24.51
25.51
26.51
28.12
30.71
34.10
37.57
40.11
40.88
39.51
36.25
31.90
27.49
23.97
22.03
21.95
23.61
26.54
30.01
33.16
35.20
35.49
33.73
29.90
24.28
17.37
9.82
2.35
-4.46
-10.34
-15.34
-19.76
-23.82
-27.44
-30.18
-31.53
-31.35
-30.21
-29.30
-29.95
-32.95
-38.01
-43.78
-48.31
-49.97
-48.13
-43.43
-37.51
-32.30
-29.18
-28.51
-29.64
-31.39
-32.76
-33.47
-34.05
-35.36
-37.85
-41.07
-43.71
-44.15
-41.36
-35.42
-27.49
-19.21
-11.82
-5.70
-0.39
4.86
10.56
16.65
22.61
27.75
31.64
34.20
35.73
36.72
37.55
38.38
39.11
39.44
39.09
37.94
36.03
33.47
30.29
26.34
21.28
14.75
6.59
-3.04
-13.53
-23.99
-33.41
-40.81
-45.44
-46.87
-45.08
-40.44
-33.77
-26.25
-19.22
-13.85
-10.78
-9.75
-9.72
-9.22
-6.96
-2.42
3.94
10.95
17.30
22.10
25.21
27.16
28.73
30.50
32.50
34.24
34.96
34.15
31.79
28.59
25.72
24.39
25.41
28.83
33.89
39.21
43.25
44.65
42.63
37.06
28.50
18.03
6.95
-3.49
-12.40
-19.36
-24.50
-28.21
-30.89
-32.65
-33.22
-32.06
-28.75
-23.24
-16.14
-8.54
-1.71
3.23
5.62
5.24
2.24
-3.02
-9.99
-17.94
-25.88
-32.72
-37.48
-39.59
-39.10
-36.67
-33.36
-30.26
-28.02
-26.71
-25.73
-24.17
-21.21
-16.53
-10.47
-3.81
2.57
8.14
12.92
17.41
22.17
27.50
33.11
38.26
42.08
43.93
43.72
41.91
39.33
36.93
35.55
35.80
37.90
41.57
45.89
49.37
50.33
47.52
40.65
30.59
19.10
8.11
-0.94
-7.55
-12.09
-15.38
-18.16
-20.71
-22.70
-23.48
-22.36
-19.10
-14.07
-8.27
-3.13
0.03
0.38
-2.14
-6.93
-13.13
-20.00
-27.09
-34.09
-40.58
-45.84
-49.01
-49.39
-46.86
-42.01
-35.95
-29.87
-24.54
-20.12
-16.27
-12.46
-8.37
-4.11
-0.06
3.34
5.89
7.85
9.76
12.24
15.62
19.80
24.33
28.62
32.24
35.09
37.28
38.99
40.35
41.31
41.81
41.91
41.78
41.62
41.53
41.35
40.76
39.41
37.12
34.02
30.48
26.89
23.45
20.02
16.12
11.17
4.78
-2.90
-11.10
-18.62
-24.21
-26.99
-26.76
-23.99
-19.48
-14.13
-8.60
-3.39
1.06
4.20
5.44
4.33
0.76
-4.88
-11.79
-18.98
-25.52
-30.67
-34.02
-35.43
-35.02
-33.02
-29.68
-25.25
-19.98
-14.15
-8.25
-2.90
1.18
3.48
3.91
2.92
1.32
-0.03
-0.57
-0.17
0.92
2.30
3.56
4.41
4.59
3.91
2.20
-0.49
-3.84
-7.30
-10.27
-12.31
-13.32
-13.46
-12.98
-12.02
-10.58
-8.60
-6.12
-3.35
-0.66
1.54
3.01
3.69
3.74
3.35
2.73
2.05
1.47
1.22
1.58
2.90
5.38
9.01
13.42
17.96
21.84
24.42
25.43
25.04
23.78
22.25
20.90
19.81
18.74
17.30
15.21
12.45
9.28
6.15
3.45
1.40
-0.01
-0.97
-1.64
-2.14
-2.44
-2.48
-2.24
-1.80
-1.43
-1.51
-2.53
-4.91
-8.76
-13.69
-18.72
-22.50
-23.82
-22.16
-17.96
-12.55
-7.57
-4.34
-3.37
-4.39
-6.71
-9.71
-13.14
-17.05
-21.54
-26.38
-31.01
-34.68
-36.76
-36.99
-35.58
-32.95
-29.64
-25.97
-22.07
-17.88
-13.32
-8.39
-3.27
1.87
7.01
12.38
18.43
25.54
33.75
42.51
50.77
57.28
61.10
61.93
60.23
56.85
52.69
48.34
43.99
39.61
35.22
30.94
26.95
23.20
19.36
14.83
9.12
2.19
-5.39
-12.56
-18.21
-21.62
-22.70
-21.94
-20.11
-17.94
-15.95
-14.42
-13.54
-13.51
-14.47
-16.31
-18.52
-20.20
-20.30
-18.07
-13.37
-6.87
0.16
6.24
10.15
11.26
9.60
5.66
0.15
-6.28
-13.09
-19.88
-26.32
-32.10
-36.95
-40.67
-43.12
-44.26
-44.12
-42.86
-40.65
-37.66
-33.96
-29.48
-24.07
-17.60
-10.16
-1.98
6.63
15.41
24.25
33.14
41.96
50.29
57.37
62.29
64.32
63.25
59.51
54.02
47.85
41.81
36.27
31.14
26.08
20.76
15.03
8.94
2.70
-3.42
-9.13
-14.14
-18.11
-20.74
-21.77
-21.13
-19.03
-16.07
-13.19
-11.48
-11.92
-14.91
-19.99
-25.76
-30.30
-31.79
-29.27
-23.01
-14.43
-5.54
1.75
6.24
7.61
6.30
3.12
-1.03
-5.44
-9.58
-13.14
-15.92
-17.77
-18.56
-18.22
-16.77
-14.40
-11.42
-8.21
-5.06
-2.08
0.70
3.28
5.58
7.45
8.88
10.13
11.76
14.40
18.40
23.57
29.14
34.08
37.44
38.73
37.94
35.42
31.65
27.06
22.02
16.80
11.67
6.78
2.17
-2.32
-6.98
-12.08
-17.65
-23.40
-28.67
-32.62
-34.55
-34.21
-31.87
-28.26
-24.24
-20.59
-17.74
-15.86
-14.87
-14.49
-14.28
-13.67
-12.02
-8.90
-4.25
1.52
7.74
13.67
18.80
22.90
25.94
27.87
28.63
28.16
26.60
24.35
22.04
20.33
19.69
20.21
21.59
23.27
24.51
24.68
23.34
20.42
16.22
11.36
6.62
2.69
-0.19
-2.34
-4.62
-8.03
-13.10
-19.52
-26.11
-31.26
-33.58
-32.56
-28.63
-22.93
-16.76
-11.04
-6.19
-2.24
0.84
2.88
3.54
2.45
-0.56
-5.31
-11.34
-18.01
-24.70
-30.85
-36.01
-39.81
-41.87
-41.93
-39.93
-36.17
-31.37
-26.44
-22.18
-18.90
-16.32
-13.76
-10.53
-6.36
-1.50
3.43
7.85
11.49
14.46
17.12
19.76
22.40
24.81
26.71
27.95
28.61
29.01
29.50
30.35
31.66
33.33
35.11
36.70
37.77
38.08
37.53
36.14
34.02
31.28
28.05
24.42
20.41
15.97
10.92
5.14
-1.36
-8.26
-14.98
-20.73
-24.81
-26.68
-26.14
-23.24
-18.20
-11.48
-3.75
4.05
10.76
15.24
16.55
14.18
8.11
-1.28
-13.27
-26.93
-41.13
-54.68
-66.44
-75.44
-80.98
-82.72
-80.67
-75.19
-66.93
-56.69
-45.36
-33.77
-22.65
-12.57
-3.94
3.00
8.35
12.49
16.09
19.83
24.20
29.24
34.59
39.66
43.89
46.96
48.82
49.62
49.54
48.77
47.45
45.75
43.91
42.20
40.90
40.19
40.08
40.33
40.47
39.94
38.23
35.09
30.60
25.08
18.88
12.22
5.17
-2.22
-9.67
-16.62
-22.37
-26.33
-28.24
-28.21
-26.50
-23.29
-18.63
-12.58
-5.51
1.75
7.99
11.99
12.92
10.60
5.40
-1.96
-10.72
-20.31
-30.26
-40.06
-48.96
-56.05
-60.45
-61.56
-59.35
-54.33
-47.43
-39.64
-31.78
-24.36
-17.62
-11.62
-6.43
-2.10
1.34
3.97
5.98
7.70
9.45
11.46
13.77
16.15
18.24
19.61
20.02
19.48
18.35
17.15
16.34
16.13
16.43
16.97
17.57
18.26
19.16
20.33
21.54
22.29
22.09
20.70
18.46
16.10
14.48
14.08
14.76
15.80
16.34
15.85
14.38
12.49
10.88
9.98
9.72
9.65
9.31
8.51
7.56
7.03
7.43
8.76
10.46
11.55
11.13
8.75
4.60
-0.63
-6.14
-11.42
-16.41
-21.31
-26.27
-31.14
-35.35
-38.15
-38.93
-37.49
-34.12
-29.57
-24.75
-20.53
-17.54
-15.97
-15.57
-15.61
-15.17
-13.33
-9.65
-4.31
1.84
7.55
11.60
13.10
11.70
7.61
1.40
-6.20
-14.44
-22.63
-30.17
-36.48
-40.99
-43.30
-43.29
-41.23
-37.77
-33.75
-29.86
-26.48
-23.55
-20.77
-17.81
-14.55
-11.03
-7.37
-3.58
0.45
4.95
10.03
15.63
21.51
27.32
32.72
37.45
41.34
44.29
46.29
47.42
47.79
47.56
46.82
45.56
43.67
40.98
37.31
32.58
26.85
20.29
13.27
6.28
-0.10
-5.30
-8.93
-10.83
-11.12
-10.19
-8.61
-7.00
-5.96
-5.96
-7.17
-9.44
-12.18
-14.53
-15.55
-14.54
-11.40
-6.64
-1.27
3.57
6.97
8.51
8.24
6.51
3.78
0.40
-3.37
-7.30
-11.13
-14.64
-17.65
-20.09
-21.97
-23.32
-24.08
-24.13
-23.34
-21.67
-19.26
-16.33
-13.17
-9.99
-6.90
-3.83
-0.58
3.16
7.74
13.47
20.44
28.43
36.85
44.82
51.39
55.72
57.35
56.30
52.97
48.02
42.20
36.15
30.34
25.04
20.30
16.00
11.91
7.76
3.39
-1.16
-5.64
-9.64
-12.81
-14.90
-15.91
-16.01
-15.52
-14.83
-14.37
-14.55
-15.64
-17.61
-20.00
-21.95
-22.48
-20.86
-17.00
-11.60
-5.95
-1.46
0.87
0.73
-1.50
-5.09
-9.32
-13.74
-18.23
-22.77
-27.26
-31.45
-34.94
-37.36
-38.50
-38.39
-37.25
-35.36
-33.00
-30.31
-27.24
-23.67
-19.38
-14.25
-8.24
-1.39
6.20
14.39
22.93
31.47
39.45
46.22
51.15
53.77
53.92
51.72
47.60
42.19
36.30
30.76
26.24
23.08
21.10
19.70
18.04
15.44
11.61
6.78
1.52
-3.53
-7.89
-11.36
-13.98
-15.88
-17.21
-18.15
-18.92
-19.84
-21.20
-23.09
-25.17
-26.64
-26.46
-23.78
-18.31
-10.59
-1.80
6.55
13.09
16.94
17.86
16.10
12.27
7.10
1.29
-4.47
-9.59
-13.53
-15.82
-16.15
-14.39
-10.68
-5.42
0.75
7.11
12.94
17.76
21.21
23.13
23.48
22.32
19.90
16.65
13.12
9.88
7.38
5.87
5.45
6.00
7.33
9.10
10.88
12.20
12.66
12.04
10.34
7.69
4.30
0.34
-4.15
-9.22
-14.98
-21.49
-28.61
-35.91
-42.66
-47.98
-51.14
-51.77
-50.04
-46.48
-41.78
-36.55
-31.25
-26.25
-21.86
-18.30
-15.59
-13.46
-11.36
-8.75
-5.26
-0.87
4.10
9.18
13.90
17.94
21.10
23.34
24.65
25.11
24.84
24.08
23.15
22.50
22.54
23.52
25.44
27.96
30.57
32.69
33.90
33.93
32.71
30.26
26.73
22.34
17.37
12.07
6.59
1.03
-4.51
-9.75
-14.21
-17.27
-18.37
-17.26
-14.09
-9.42
-4.08
1.05
5.17
7.66
8.22
6.74
3.26
-2.15
-9.45
-18.54
-29.14
-40.61
-51.98
-62.04
-69.62
-73.78
-74.03
-70.38
-63.28
-53.60
-42.43
-30.87
-19.81
-9.77
-0.96
6.61
12.88
17.72
20.99
22.79
23.48
23.65
23.91
24.63
25.85
27.35
28.84
30.12
31.12
31.82
32.22
32.30
32.08
31.74
31.56
31.88
32.87
34.42
36.10
37.23
37.09
35.12
31.11
25.23
18.08
10.60
3.93
-0.96
-3.49
-3.81
-2.63
-0.99
0.23
0.73
0.81
1.17
2.38
4.55
7.25
9.66
10.94
10.51
8.07
3.64
-2.64
-10.52
-19.71
-29.81
-40.23
-50.10
-58.30
-63.55
-64.78
-61.49
-54.05
-43.73
-32.27
-21.40
-12.31
-5.42
-0.63
2.37
3.83
3.90
2.86
1.33
0.23
0.52
2.76
6.83
11.98
17.10
21.20
23.78
24.88
25.04
25.04
25.56
27.07
29.64
33.05
36.80
40.27
42.89
44.18
43.89
42.01
38.74
34.46
29.58
24.46
19.31
14.15
8.90
3.44
-2.27
-8.11
-13.74
-18.66
-22.21
-23.74
-22.83
-19.41
-13.89
-7.11
-0.22
5.48
8.76
8.60
4.28
-4.38
-16.88
-31.95
-47.73
-62.09
-73.21
-79.93
-81.87
-79.34
-73.05
-63.94
-53.04
-41.53
-30.56
-21.12
-13.67
-8.10
-3.74
0.29
4.70
9.73
15.14
20.40
24.95
28.33
30.26
30.58
29.27
26.45
22.44
17.80
13.19
9.16
6.00
3.72
2.12
0.94
0.04
-0.56
-0.74
-0.36
0.56
1.91
3.50
5.17
6.90
8.73
10.72
12.76
14.59
15.87
16.38
16.18
15.68
15.42
15.83
17.01
18.65
20.19
21.16
21.37
21.04
20.56
20.29
20.23
20.02
19.02
16.66
12.70
7.43
1.63
-3.74
-7.87
-10.35
-11.29
-11.07
-10.17
-8.93
-7.55
-6.27
-5.45
-5.58
-7.08
-10.05
-14.21
-18.94
-23.53
-27.52
-30.78
-33.53
-36.01
-38.25
-40.02
-40.88
-40.50
-38.90
-36.54
-34.12
-32.35
-31.61
-31.81
-32.51
-33.10
-33.07
-32.05
-29.85
-26.27
-21.18
-14.56
-6.59
2.22
11.22
19.74
27.36
33.98
39.77
44.94
49.62
53.68
56.85
58.82
59.35
58.40
56.06
52.57
48.19
43.27
38.23
33.53
29.54
26.46
24.20
22.38
20.44
17.86
14.31
9.81
4.65
-0.64
-5.52
-9.54
-12.54
-14.67
-16.36
-18.15
-20.52
-23.68
-27.48
-31.49
-35.14
-37.85
-39.21
-38.93
-36.94
-33.44
-28.97
-24.38
-20.66
-18.60
-18.45
-19.84
-21.90
-23.67
-24.52
-24.35
-23.48
-22.37
-21.33
-20.38
-19.33
-18.00
-16.33
-14.43
-12.49
-10.59
-8.69
-6.57
-4.02
-0.89
2.78
6.83
11.09
15.49
20.14
25.21
30.78
36.65
42.28
46.89
49.74
50.36
48.76
45.41
41.02
36.32
31.84
27.82
24.25
20.94
17.66
14.17
10.36
6.27
2.10
-1.77
-4.85
-6.66
-6.93
-5.70
-3.43
-0.96
0.68
0.57
-1.86
-6.59
-13.01
-20.05
-26.45
-31.08
-33.22
-32.60
-29.51
-24.63
-18.97
-13.58
-9.39
-6.88
-5.99
-6.16
-6.59
-6.58
-5.79
-4.29
-2.35
-0.22
2.10
4.72
7.71
10.85
13.63
15.48
16.07
15.49
14.22
12.85
11.81
11.23
10.94
10.72
10.42
10.07
9.78
9.65
9.67
9.74
9.73
9.56
9.19
8.62
7.86
6.85
5.51
3.69
1.27
-1.81
-5.48
-9.54
-13.68
-17.61
-21.07
-23.86
-25.79
-26.67
-26.32
-24.68
-21.87
-18.23
-14.21
-10.20
-6.47
-3.09
-0.04
2.69
5.09
7.19
9.18
11.30
13.68
16.15
18.18
19.06
18.19
15.44
11.13
6.00
0.86
-3.58
-6.86
-8.75
-9.16
-8.23
-6.26
-3.65
-0.88
1.69
3.88
5.71
7.26
8.62
9.83
10.81
11.31
10.89
9.02
5.34
-0.03
-6.32
-12.23
-16.46
-18.21
-17.53
-15.21
-12.29
-9.57
-7.33
-5.53
-4.09
-3.24
-3.46
-5.27
-8.77
-13.54
-18.69
-23.23
-26.37
-27.72
-27.32
-25.42
-22.35
-18.43
-13.97
-9.45
-5.43
-2.52
-1.10
-1.07
-1.84
-2.54
-2.36
-0.92
1.65
4.87
8.25
11.56
14.81
18.15
21.58
24.84
27.51
29.20
29.78
29.44
28.59
27.70
27.09
26.88
27.01
27.27
27.36
27.02
26.04
24.34
21.94
18.87
15.17
10.78
5.68
-0.07
-6.16
-12.03
-16.97
-20.31
-21.65
-20.98
-18.64
-15.13
-10.93
-6.39
-1.73
2.82
6.97
10.28
12.24
12.33
10.16
5.51
-1.62
-10.97
-21.93
-33.61
-44.89
-54.59
-61.73
-65.66
-66.11
-63.21
-57.35
-49.18
-39.48
-29.18
-19.13
-10.05
-2.41
3.62
8.13
11.33
13.52
15.08
16.51
18.30
20.91
24.53
28.99
33.79
38.22
41.70
43.94
45.05
45.46
45.69
46.15
47.02
48.19
49.32
49.98
49.74
48.27
45.37
41.01
35.31
28.46
20.75
12.47
4.00
-4.27
-11.84
-18.20
-22.86
-25.48
-25.93
-24.33
-21.05
-16.59
-11.55
-6.55
-2.18
0.99
2.53
2.16
-0.16
-4.26
-9.74
-16.14
-23.00
-29.86
-36.25
-41.63
-45.45
-47.22
-46.63
-43.65
-38.56
-31.88
-24.28
-16.42
-8.88
-2.06
3.77
8.53
12.13
14.55
15.76
15.79
14.85
13.32
11.67
10.34
9.53
9.24
9.30
9.57
10.03
10.78
11.87
13.11
14.11
14.39
13.61
11.75
9.06
5.89
2.54
-0.92
-4.54
-8.39
-12.42
-16.46
-20.25
-23.52
-26.09
-27.83
-28.75
-28.95
-28.66
-28.18
-27.80
-27.61
-27.43
-26.86
-25.39
-22.65
-18.59
-13.48
-7.85
-2.25
2.83
7.06
10.22
12.16
12.79
12.07
10.18
7.48
4.54
1.96
0.24
-0.37
0.10
1.45
3.39
5.60
7.77
9.48
10.26
9.68
7.56
4.19
0.37
-2.84
-4.38
-3.65
-0.71
3.73
8.59
12.73
15.27
15.72
14.04
10.54
5.76
0.43
-4.73
-9.08
-12.23
-14.06
-14.71
-14.51
-13.83
-12.99
-12.13
-11.18
-9.91
-7.98
-5.10
-1.22
3.43
8.36
12.96
16.77
19.54
21.31
22.29
22.72
22.77
22.54
22.07
21.44
20.78
20.23
19.90
19.82
19.92
20.11
20.19
19.95
19.21
17.87
16.00
13.87
11.87
10.43
9.89
10.40
11.83
13.89
16.24
18.56
20.59
21.95
22.14
20.56
16.81
11.03
4.00
-2.95
-8.45
-11.62
-12.38
-11.41
-9.71
-8.11
-6.93
-5.98
-4.90
-3.48
-1.96
-0.97
-1.21
-3.13
-6.68
-11.30
-16.15
-20.56
-24.33
-27.83
-31.76
-36.71
-42.68
-49.09
-55.08
-60.03
-63.95
-67.43
-71.22
-75.65
-80.43
-84.75
-87.74
-88.98
-88.62
-87.13
-84.89
-81.89
-77.86
-72.54
-66.05
-58.91
-51.68
-44.66
-37.65
-30.09
-21.47
-11.72
-1.33
8.89
18.18
26.26
33.35
40.07
47.06
54.65
62.68
70.53
77.30
82.02
83.99
82.93
79.13
73.40
66.82
60.45
55.09
51.10
48.37
46.46
44.81
42.88
40.33
37.05
33.14
28.91
24.79
21.20
18.53
16.97
16.46
16.70
17.23
17.64
17.69
17.47
17.29
17.58
18.59
20.19
21.85
22.75
22.04
19.18
14.23
7.91
1.45
-3.77
-6.76
-7.17
-5.48
-2.66
0.24
2.50
3.93
4.70
5.07
5.08
4.57
3.25
0.97
-2.16
-5.80
-9.54
-13.04
-16.15
-18.87
-21.21
-23.07
-24.19
-24.23
-22.90
-20.17
-16.36
-12.05
-7.92
-4.48
-1.93
-0.12
1.27
2.48
3.55
4.31
4.52
4.13
3.33
2.50
2.10
2.42
3.52
5.21
7.13
8.95
10.45
11.53
12.22
12.58
12.61
12.31
11.65
10.78
9.92
9.38
9.38
9.94
10.81
11.59
11.87
11.37
10.01
7.87
5.09
1.83
-1.73
-5.31
-8.48
-10.76
-11.80
-11.56
-10.38
-8.91
-7.74
-7.25
-7.38
-7.77
-8.05
-8.09
-8.10
-8.59
-10.07
-12.84
-16.78
-21.42
-26.09
-30.11
-33.01
-34.57
-34.78
-33.69
-31.32
-27.75
-23.20
-18.10
-13.06
-8.72
-5.43
-3.17
-1.60
-0.21
1.41
3.46
5.94
8.80
12.01
15.52
19.15
22.54
25.27
27.01
27.73
27.72
27.47
27.40
27.69
28.24
28.83
29.25
29.35
29.09
28.42
27.32
25.84
24.12
22.34
20.55
18.57
16.10
13.11
10.11
8.02
7.75
9.58
12.86
16.26
18.51
19.07
18.48
17.93
18.50
20.55
23.73
27.31
30.50
32.62
33.08
31.80
29.27
26.31
23.56
21.08
18.33
14.47
8.84
1.38
-6.52
-12.37
-13.83
-10.18
-3.20
2.85
1.87
-12.89
-46.91
-100.91
-169.34
-240.90
-301.89
-340.55
-350.67
-333.27
-295.48
-247.13
-195.42
-142.78
-87.63
-27.43
38.80
110.12
184.87
262.00
332.70
384.32
404.66
388.43
338.88
264.59
176.64
87.31
8.33
-51.92
-88.94
-102.95
-98.19
-81.49
-60.39
-41.10
-27.75
-21.72
-23.16
-30.04
-38.80
-45.66
-48.06
-45.05
-36.99
-25.23
-11.93
0.18
9.25
14.88
18.13
20.95
24.27
28.68
33.95
38.87
41.60
40.86
36.61
30.09
23.24
17.90
15.35
15.86
18.61
22.03
24.63
25.52
24.81
23.32
22.07
21.80
22.33
22.69
21.50
17.82
11.68
4.20
-2.92
-8.12
-10.56
-10.56
-9.20
-7.94
-8.15
-11.03
-17.62
-28.77
-44.71
-64.54
-85.90
-105.26
-118.88
-124.31
-121.34
-112.03
-99.52
-86.29
-72.94
-58.47
-41.15
-20.19
3.30
26.32
45.32
57.82
63.46
64.07
62.35
60.94
61.67
65.19
71.21
78.81
87.01
95.03
102.49
108.79
113.96
118.76
124.39
131.76
141.03
151.65
162.51
172.47
178.99
180.60
177.80
172.94
169.35
170.38
178.61
194.66
216.01
233.55
237.83
223.21
189.69
141.60
85.05
25.62
-33.04
-89.61
-149.36
-215.26
-284.46
-349.87
-405.26
-448.91
-483.61
-514.77
-548.32
-595.50
-661.65
-741.80
-822.37
-887.71
-926.16
-932.88
-910.10
-821.76
-660.92
-454.16
-246.30
-70.35
64.67
164.42
237.23
288.82
323.16
338.64
336.22
323.06
310.19
306.81
316.60
338.65
370.71
406.43
436.35
453.84
457.39
449.58
434.09
413.16
387.98
359.67
329.69
296.69
260.03
221.52
184.96
154.42
131.75
116.32
105.67
96.31
83.26
62.51
32.86
-5.50
-46.95
-83.10
-107.04
-117.00
-116.43
-111.31
-106.68
-104.45
-103.46
-100.70
-94.40
-85.08
-74.88
-66.39
-61.61
-61.48
-65.43
-71.66
-77.16
-81.10
-83.14
-84.39
-86.65
-91.80
-101.30
-115.88
-135.40
-157.87
-177.64
-191.28
-194.44
-182.71
-154.68
-113.98
-68.69
-29.09
1.13
21.23
33.60
42.55
52.30
63.91
74.66
80.38
78.90
73.00
67.68
68.53
79.58
102.97
136.42
173.18
205.20
220.18
212.98
184.17
139.99
91.31
52.80
36.71
47.94
82.77
131.07
180.95
220.74
242.11
229.20
178.68
104.05
26.88
-37.76
-86.34
-120.79
-143.31
-154.14
-153.15
-140.37
-119.66
-99.19
-87.57
-88.88
-100.13
-114.10
-123.00
-121.80
-107.78
-81.94
-49.36
-17.67
5.49
14.70
8.37
-9.92
-31.44
-45.73
-44.80
-27.98
-2.53
20.23
30.79
25.93
9.67
-9.68
-23.51
-28.01
-25.76
-22.83
-24.09
-30.20
-37.36
-39.83
-33.89
-18.79
2.66
25.31
44.28
57.23
65.20
71.92
81.96
94.32
108.38
122.80
135.04
141.35
138.14
123.92
101.15
76.39
56.94
50.17
60.07
84.88
116.75
145.05
160.55
158.27
138.30
101.89
52.71
-4.85
-66.85
-130.07
-190.53
-242.13
-277.58
-291.66
-287.46
-272.76
-257.02
-247.81
-248.09
-254.73
-259.31
-252.39
-212.79
-138.83
-50.01
27.67
80.58
110.04
124.58
132.72
139.39
147.64
152.35
149.79
140.40
127.33
114.03
102.91
95.31
91.59
89.90
86.25
77.81
64.14
46.78
27.85
9.33
-6.94
-19.43
-27.18
-30.97
-31.27
-27.69
-19.86
