1660751849.00
64.000000
-0.00
-0.00
-0.00
-0.00
-0.00
-0.00
-0.00
-0.00
-0.00
-0.00
0.00
0.01
0.01
-0.00
-0.03
-0.05
-0.05
0.00
0.13
0.36
0.66
1.01
1.37
1.72
2.06
2.40
2.79
3.24
3.80
4.42
5.06
5.66
6.20
6.68
7.15
7.68
8.31
9.14
10.09
11.04
11.88
12.56
13.14
13.76
14.65
15.96
17.91
20.32
22.90
25.38
27.58
29.57
31.68
34.32
37.81
42.54
48.15
54.10
59.83
64.97
69.58
74.14
79.34
85.71
93.76
103.00
112.62
121.73
129.77
136.75
143.30
150.75
157.77
166.64
177.95
191.79
206.97
220.57
228.25
225.36
208.53
176.87
132.76
80.05
23.07
-34.94
-92.44
-149.16
-205.23
-260.37
-313.74
-363.87
-409.83
-450.91
-486.50
-515.74
-537.23
-549.22
-549.96
-538.37
-514.21
-478.67
-433.88
-382.45
-327.02
-269.84
-212.63
-156.66
-102.95
-52.37
-5.90
35.58
71.43
101.35
125.50
144.38
158.70
169.15
176.37
180.75
182.57
182.08
179.53
175.27
169.68
163.16
156.06
148.64
141.05
133.38
125.68
118.00
110.37
102.84
95.46
88.28
81.34
74.67
68.32
62.31
56.63
51.27
46.18
41.34
36.73
32.38
28.35
24.69
21.42
18.51
15.88
13.40
10.98
8.59
6.31
4.27
2.62
1.43
0.63
0.01
-0.68
-1.67
-3.00
-4.51
-5.92
-6.92
-7.37
-7.35
-7.20
-7.34
-8.09
-9.50
-11.32
-13.08
-14.35
-14.91
-14.88
-14.59
-14.48
-14.89
-16.04
-18.08
-21.02
-24.53
-27.67
-28.93
-26.69
-19.99
-9.21
3.81
16.36
25.98
31.43
33.02
32.11
30.20
28.16
26.12
23.86
21.33
19.03
17.66
17.70
18.95
20.59
21.55
21.06
19.00
15.91
12.72
10.22
8.81
8.34
8.38
8.37
8.02
7.33
6.53
5.97
5.84
6.18
6.86
7.73
8.61
9.41
10.16
10.93
11.82
12.86
13.98
15.11
16.03
16.56
16.52
15.85
14.54
12.65
10.35
7.62
4.55
1.24
-2.15
-5.46
-8.57
-11.40
-13.88
-15.93
-17.43
-18.17
-18.00
-16.93
-15.19
-13.21
-11.48
-10.32
-9.78
-9.66
-9.61
-9.43
-9.06
-8.70
-8.50
-8.50
-8.57
-8.47
-8.05
-7.28
-6.34
-5.46
-4.83
-4.51
-4.40
-4.34
-4.13
-3.73
-3.15
-2.57
-2.13
-1.94
-1.99
-2.18
-2.36
-2.47
-2.51
-2.58
-2.75
-3.03
-3.33
-3.51
-3.50
-3.31
-3.07
-3.00
-3.25
-3.86
-4.59
-5.09
-4.93
-3.84
-1.82
0.87
3.74
6.24
7.95
8.74
8.73
8.19
7.35
6.33
5.16
3.82
2.37
0.97
-0.15
-0.80
-0.94
-0.68
-0.25
0.09
0.18
-0.01
-0.35
-0.62
-0.64
-0.37
0.05
0.44
0.59
0.44
0.06
-0.41
-0.84
-1.15
-1.37
-1.49
-1.49
-1.28
-0.79
-0.10
0.54
0.80
0.39
-0.71
-2.22
-3.59
-4.27
-3.91
-2.55
-0.52
1.66
3.53
4.85
5.60
5.90
5.86
5.51
4.75
3.48
1.68
-0.51
-2.79
-4.82
-6.34
-7.28
-7.69
-7.68
-7.32
-6.56
-5.33
-3.64
-1.67
0.18
1.43
1.74
1.06
-0.30
-1.80
-2.88
-3.16
-2.60
-1.46
-0.13
1.03
1.78
2.04
1.84
1.23
0.29
-0.86
-1.97
-2.69
-2.69
-1.77
0.02
2.34
4.65
6.45
7.41
7.54
7.10
6.44
5.87
5.46
5.13
4.68
3.99
3.07
2.13
1.42
1.14
1.32
1.83
2.41
2.80
2.83
2.47
1.81
0.99
0.14
-0.68
-1.46
-2.26
-3.08
-3.90
-4.64
-5.20
-5.54
-5.68
-5.69
-5.66
-5.66
-5.72
-5.86
-6.12
-6.54
-7.14
-7.80
-8.26
-8.10
-6.96
-4.69
-1.49
2.18
5.68
8.53
10.53
11.79
12.55
13.05
13.38
13.52
13.40
12.96
12.26
11.39
10.43
9.42
8.36
7.26
6.09
4.86
3.55
2.17
0.77
-0.60
-1.84
-2.88
-3.71
-4.35
-4.88
-5.35
-5.82
-6.27
-6.69
-7.05
-7.34
-7.57
-7.80
-8.07
-8.42
-8.87
-9.43
-10.08
-10.77
-11.40
-11.76
-11.63
-10.78
-9.11
-6.73
-3.98
-1.29
0.90
2.32
2.94
2.98
2.79
2.67
2.75
2.98
3.18
3.18
2.94
2.55
2.21
2.07
2.20
2.51
2.90
3.24
3.48
3.55
3.39
2.91
2.02
0.74
-0.84
-2.50
-3.98
-5.08
-5.67
-5.79
-5.60
-5.34
-5.21
-5.29
-5.51
-5.69
-5.66
-5.38
-5.00
-4.78
-4.97
-5.69
-6.79
-7.91
-8.62
-8.52
-7.43
-5.44
-2.84
-0.01
2.68
5.03
7.00
8.67
10.17
11.55
12.72
13.49
13.61
12.87
11.22
8.78
5.91
3.14
1.04
0.03
0.29
1.71
3.99
6.73
9.60
12.37
14.87
16.94
18.40
19.11
19.03
18.31
17.24
16.16
15.34
14.87
14.65
14.45
14.05
13.26
11.98
10.19
7.91
5.16
2.04
-1.30
-4.64
-7.72
-10.22
-11.78
-12.09
-10.88
-8.14
-4.11
0.69
5.51
9.59
12.33
13.49
13.19
11.80
9.80
7.55
5.19
2.66
-0.14
-3.23
-6.42
-9.30
-11.44
-12.58
-12.78
-12.43
-12.04
-12.00
-12.37
-12.91
-13.15
-12.76
-11.66
-10.10
-8.48
-7.16
-6.25
-5.64
-5.10
-4.48
-3.83
-3.35
-3.27
-3.65
-4.34
-5.07
-5.60
-5.85
-5.93
-6.11
-6.61
-7.57
-8.98
-10.72
-12.59
-14.36
-15.74
-16.41
-16.09
-14.59
-11.93
-8.33
-4.16
0.18
4.44
8.51
12.46
16.32
19.94
23.00
25.16
26.29
26.63
26.78
27.52
29.37
32.41
35.91
38.88
40.56
40.82
40.19
39.60
40.05
42.35
46.92
53.65
62.08
71.33
79.83
85.25
85.07
77.76
63.91
46.52
29.43
16.22
8.99
7.94
12.03
20.20
32.53
50.09
73.87
101.77
129.86
153.81
170.48
178.57
178.55
172.41
162.87
152.48
139.85
123.21
102.34
79.11
55.95
34.37
14.70
-3.52
-21.26
-44.60
-78.17
-122.18
-172.17
-222.18
-267.96
-307.77
-341.67
-370.76
-402.86
-443.89
-494.19
-548.29
-599.14
-642.11
-675.60
-700.02
-676.89
-585.63
-435.55
-262.81
-103.71
23.66
117.70
184.53
231.78
265.99
285.45
288.80
278.48
261.37
244.83
233.31
228.08
228.56
233.51
236.45
232.62
221.25
205.64
190.08
177.12
167.31
160.18
154.95
147.16
133.96
114.86
91.96
68.11
45.36
24.87
7.28
-5.11
-14.64
-23.24
-32.02
-41.02
-49.82
-57.97
-64.93
-69.96
-72.48
-73.22
-73.03
-72.96
-73.77
-75.99
-79.94
-85.76
-93.19
-101.05
-107.26
-108.33
-100.88
-83.22
-56.72
-25.84
3.35
25.30
38.40
43.56
44.10
43.58
44.12
45.85
47.56
48.00
46.83
44.72
42.53
40.93
39.83
38.60
36.35
32.57
27.42
21.70
16.51
12.70
10.69
10.21
10.51
10.69
10.09
8.54
6.22
3.55
0.84
-1.83
-4.72
-8.15
-12.38
-17.46
-23.05
-28.67
-33.81
-38.03
-41.17
-43.34
-44.75
-45.49
-45.50
-44.44
-41.77
-38.32
-34.57
-31.02
-28.06
-25.75
-23.86
-22.07
-20.17
-18.24
-16.62
-15.50
-14.95
-14.82
-14.85
-14.78
-14.55
-14.29
-14.29
-14.85
-16.02
-17.78
-19.99
-22.50
-25.17
-27.95
-30.82
-33.73
-36.49
-38.56
-39.30
-38.09
-34.66
-29.32
-22.91
-16.56
-11.24
-7.37
-4.70
-2.60
-0.45
1.98
4.45
6.41
7.39
7.30
6.52
5.72
5.59
6.45
8.14
10.16
11.98
13.36
14.52
16.08
18.67
22.56
27.42
32.38
36.40
38.69
39.00
37.61
35.14
32.25
29.42
26.92
24.92
23.48
22.60
22.12
21.69
20.80
18.95
15.81
11.29
5.58
-1.01
-8.08
-15.16
-21.72
-27.08
-30.58
-31.73
-30.41
-26.93
-21.92
-16.01
-9.60
-2.80
4.44
12.11
19.92
27.21
33.16
37.02
38.48
37.85
36.13
34.77
35.36
39.09
46.31
56.35
67.62
78.10
85.88
89.66
89.10
84.67
77.39
68.40
58.61
48.51
38.15
27.41
16.22
4.77
-6.48
-16.92
-26.03
-33.52
-39.46
-44.15
-48.08
-51.71
-55.45
-59.53
-63.92
-68.40
-72.52
-75.71
-77.43
-77.13
-74.35
-68.81
-60.49
-49.83
-37.72
-25.38
-13.93
-4.14
3.98
11.04
18.07
26.11
35.82
47.22
59.55
71.40
80.91
86.36
86.61
81.59
72.45
61.20
50.12
41.10
35.00
31.71
30.46
30.32
30.70
31.42
32.52
33.82
34.73
34.27
31.42
25.56
16.76
5.77
-6.18
-17.74
-27.67
-34.94
-38.86
-39.15
-36.06
-30.36
-23.20
-15.83
-9.32
-4.27
-0.80
1.38
2.70
3.61
4.41
5.13
5.61
5.48
4.40
2.21
-0.96
-4.59
-8.03
-10.61
-11.98
-12.20
-11.75
-11.25
-11.32
-12.35
-14.42
-17.34
-20.73
-24.06
-26.68
-27.87
-27.05
-24.00
-19.06
-13.09
-7.27
-2.60
0.44
2.06
3.11
4.67
7.64
12.40
18.68
25.56
31.95
36.92
40.07
41.69
42.52
43.40
44.86
46.94
49.30
51.52
53.27
54.46
54.96
54.54
52.78
49.28
43.96
37.28
30.20
23.91
19.36
16.89
16.08
15.96
15.36
13.44
9.97
5.34
0.41
-3.96
-7.16
-9.03
-9.85
-10.23
-10.96
-12.79
-16.24
-21.31
-27.40
-33.35
-37.76
-39.49
-38.06
-33.87
-27.93
-21.50
-15.63
-10.84
-7.17
-4.37
-2.11
-0.19
1.54
3.22
5.07
7.46
10.80
15.44
21.59
29.21
37.93
47.06
55.56
62.24
66.07
66.43
63.35
57.46
49.75
41.16
32.37
23.76
15.61
8.39
2.73
-0.71
-1.64
-0.35
2.26
4.92
6.54
6.40
4.39
0.75
-4.10
-9.80
-16.00
-22.23
-27.79
-31.75
-33.23
-31.69
-27.28
-20.70
-12.96
-5.01
2.56
9.53
15.80
21.18
25.34
27.97
29.07
29.02
28.41
27.74
27.14
26.31
24.80
22.41
19.42
16.61
14.88
14.87
16.63
19.62
22.90
25.56
26.92
26.69
24.89
21.69
17.34
12.15
6.54
1.04
-3.69
-6.98
-8.26
-7.27
-4.22
0.08
4.22
6.59
5.81
1.37
-6.01
-14.56
-21.94
-26.15
-26.18
-22.30
-15.77
-8.22
-1.02
5.08
9.92
13.70
16.65
18.96
20.76
22.20
23.44
24.48
24.95
24.09
20.99
15.16
7.04
-1.90
-9.54
-13.89
-13.94
-10.08
-3.93
2.29
6.57
7.68
5.35
0.07
-7.19
-15.25
-22.83
-28.84
-32.58
-34.09
-34.14
-34.00
-34.81
-36.94
-39.66
-41.43
-40.58
-36.17
-28.38
-18.50
-8.22
0.97
8.22
13.25
16.10
16.78
15.30
11.84
6.98
1.80
-2.37
-4.41
-3.72
-0.43
4.70
10.59
16.05
20.02
21.76
21.00
18.09
13.91
9.68
6.52
5.09
5.37
6.84
8.80
10.67
12.23
13.53
14.66
15.52
15.78
15.04
13.05
9.84
5.72
1.13
-3.63
-8.53
-13.70
-19.28
-25.06
-30.31
-33.97
-34.94
-32.62
-27.18
-19.52
-10.93
-2.63
4.51
10.03
13.67
15.24
14.76
12.57
9.53
6.91
5.80
6.71
9.26
12.40
15.07
16.72
17.64
18.59
20.27
22.69
25.12
26.47
25.90
23.36
19.55
15.54
12.10
9.29
6.42
2.52
-3.11
-10.38
-18.36
-25.62
-30.75
-32.77
-31.42
-27.23
-21.41
-15.71
-12.10
-12.09
-16.16
-23.26
-30.95
-36.24
-36.69
-31.44
-21.50
-9.21
2.82
12.78
20.14
25.41
29.57
33.47
37.59
42.15
47.28
53.05
59.29
65.35
70.13
72.41
71.37
67.05
60.41
53.04
46.46
41.63
38.53
36.19
33.06
27.47
18.08
4.38
-13.09
-32.70
-52.01
-68.46
-80.13
-86.30
-87.61
-85.65
-82.25
-78.79
-75.86
-73.33
-70.82
-68.06
-65.10
-62.12
-59.24
-56.24
-52.62
-47.87
-41.75
-34.44
-26.54
-18.80
-11.90
-6.12
-1.27
3.29
8.43
15.02
23.64
34.36
46.54
58.74
68.78
74.04
72.09
61.57
42.88
18.44
-7.82
-31.66
-49.79
-60.78
-65.09
-64.35
-60.31
-54.17
-46.47
-37.47
-27.67
-17.92
-9.17
-2.01
3.67
8.51
13.14
17.61
21.08
22.09
19.22
11.88
0.74
-12.36
-25.01
-35.07
-41.31
-43.60
-42.69
-39.69
-35.65
-31.29
-26.95
-22.74
-18.69
-14.80
-11.13
-7.85
-5.20
-3.44
-2.77
-3.16
-4.38
-6.04
-7.70
-9.03
-9.83
-10.01
-9.55
-8.55
-7.18
-5.75
-4.64
-4.24
-4.73
-5.95
-7.34
-8.08
-7.23
-4.17
1.17
8.15
15.64
22.36
27.49
30.94
33.49
36.36
40.77
47.33
55.87
65.32
73.97
79.77
80.76
75.45
63.34
45.25
23.29
0.52
-19.77
-34.96
-43.70
-46.13
-43.56
-37.85
-30.88
-24.13
-18.53
-14.54
-12.26
-11.48
-11.70
-12.35
-12.87
-12.97
-12.65
-12.25
-12.15
-12.63
-13.63
-14.86
-15.85
-16.25
-15.89
-14.86
-13.46
-12.15
-11.41
-11.67
-13.16
-15.85
-19.32
-22.82
-25.47
-26.55
-25.79
-23.56
-20.73
-18.45
-17.69
-18.97
-22.14
-26.51
-31.05
-34.67
-36.49
-35.98
-32.97
-27.73
-20.85
-13.14
-5.52
1.17
6.44
10.26
13.05
15.52
18.35
21.82
25.71
29.24
31.50
31.81
30.15
27.16
23.92
21.51
20.60
21.27
23.14
25.67
28.46
31.31
34.11
36.57
38.08
37.80
34.95
29.22
21.07
11.69
2.72
-4.26
-8.25
-9.13
-7.62
-4.99
-2.47
-0.97
-0.85
-2.02
-4.22
-7.18
-10.67
-14.40
-17.90
-20.59
-21.94
-21.70
-20.05
-17.51
-14.74
-12.18
-9.99
-8.11
-6.45
-5.01
-3.89
-3.21
-2.98
-3.12
-3.61
-4.54
-6.09
-8.34
-11.00
-13.39
-14.56
-13.69
-10.42
-4.99
1.88
9.40
17.05
24.74
32.68
41.10
49.94
58.74
66.61
72.46
75.20
73.85
67.65
56.19
39.64
18.99
-3.72
-25.64
-43.72
-55.62
-60.46
-59.13
-53.83
-47.20
-41.34
-37.30
-35.07
-34.10
-33.79
-33.78
-33.80
-33.49
-32.23
-29.37
-24.56
-18.10
-10.98
-4.60
-0.18
1.73
1.50
0.20
-0.83
-0.60
1.17
3.95
6.71
8.37
8.32
6.59
3.87
1.17
-0.61
-1.07
-0.37
0.85
1.87
2.21
1.80
1.00
0.32
0.19
0.72
1.71
2.74
3.38
3.36
2.61
1.23
-0.55
-2.47
-4.33
-5.94
-7.17
-7.95
-8.24
-8.11
-7.75
-7.39
-7.31
-7.62
-8.20
-8.63
-8.35
-6.87
-4.05
-0.26
3.74
7.01
8.88
9.18
8.37
7.25
6.69
7.20
8.78
10.91
12.81
13.70
13.12
11.09
8.00
4.59
1.61
-0.31
-0.85
-0.03
1.83
4.12
6.11
7.01
6.27
3.72
-0.26
-4.84
-9.08
-12.31
-14.47
-15.99
-17.55
-19.55
-21.81
-23.57
-23.89
-22.12
-18.21
-12.80
-6.88
-1.47
2.74
5.55
7.23
8.35
9.56
11.28
13.57
16.08
18.19
19.23
18.78
16.85
13.85
10.52
7.60
5.68
4.92
5.08
5.54
5.55
4.45
1.98
-1.54
-5.37
-8.59
-10.45
-10.69
-9.56
-7.65
-5.58
-3.78
-2.38
-1.30
-0.38
0.55
1.62
2.94
4.56
6.40
8.10
9.06
8.54
5.99
1.32
-4.85
-11.31
-16.56
-19.26
-18.70
-15.00
-9.01
-1.98
4.88
10.68
14.92
17.37
17.92
16.57
13.48
9.18
4.56
0.72
-1.45
-1.60
-0.12
2.09
4.06
5.17
5.46
5.51
6.06
7.67
10.40
13.85
17.31
20.13
21.85
22.25
21.32
19.07
15.63
11.15
5.87
0.11
-5.80
-11.52
-16.64
-20.61
-22.79
-22.52
-19.31
-13.10
-4.37
5.86
16.20
25.12
31.30
33.94
32.99
29.30
24.51
20.61
19.30
21.41
26.60
33.58
40.76
46.99
52.00
56.36
60.97
66.52
73.18
80.61
88.31
95.94
103.38
110.57
117.16
122.30
124.65
122.60
114.66
99.78
77.51
48.08
12.47
-27.52
-69.13
-108.85
-142.98
-168.48
-183.91
-189.81
-188.43
-182.73
-175.22
-167.22
-158.78
-149.42
-138.90
-127.62
-116.57
-106.66
-98.20
-90.80
-83.70
-76.25
-68.38
-60.53
-53.36
-47.33
-42.44
-38.28
-34.39
-30.54
-26.84
-23.63
-21.15
-19.20
-17.13
-13.98
-8.90
-1.52
7.91
18.64
29.67
40.19
49.77
58.43
66.42
73.90
80.77
86.45
89.93
89.96
85.28
75.03
59.16
38.78
16.27
-5.10
-21.93
-31.66
-33.38
-28.03
-17.96
-6.03
5.33
14.62
21.29
25.29
26.71
25.51
21.78
15.96
8.99
2.13
-3.45
-7.08
-8.84
-9.41
-9.69
-10.43
-11.87
-13.81
-15.74
-17.18
-17.87
-17.85
-17.44
-17.06
-17.16
-18.00
-19.67
-22.01
-24.68
-27.27
-29.38
-30.76
-31.36
-31.24
-30.52
-29.35
-27.94
-26.63
-25.84
-25.95
-27.06
-28.82
-30.53
-31.27
-30.32
-27.29
-22.16
-15.12
-6.43
3.62
14.64
25.92
36.52
45.35
51.51
54.62
54.82
52.66
48.70
43.32
36.71
29.07
20.95
13.32
7.41
4.24
4.21
6.90
11.23
15.90
19.90
22.74
24.43
25.24
25.32
24.66
23.06
20.38
16.70
12.34
7.81
3.50
-0.38
-3.85
-7.00
-9.82
-12.09
-13.45
-13.58
-12.47
-10.50
-8.30
-6.54
-5.66
-5.68
-6.28
-6.97
-7.29
-7.06
-6.36
-5.48
-4.72
-4.25
-3.92
-3.47
-2.60
-1.26
0.25
1.40
1.63
0.71
-1.24
-3.72
-6.19
-8.23
-9.74
-10.83
-11.70
-12.45
-13.04
-13.32
-13.12
-12.32
-10.77
-8.37
-4.97
-0.55
4.70
10.33
15.62
19.81
22.31
22.94
22.09
20.61
19.48
19.49
20.97
23.69
27.11
30.71
34.12
37.25
40.05
42.42
44.01
44.43
43.31
40.53
36.17
30.44
23.51
15.55
6.83
-2.04
-10.14
-16.43
-20.15
-21.16
-20.09
-18.06
-16.23
-15.36
-15.66
-16.85
-18.57
-20.46
-22.35
-24.04
-25.24
-25.59
-24.89
-23.28
-21.26
-19.55
-18.72
-18.90
-19.68
-20.33
-20.07
-18.38
-15.22
-10.93
-6.13
-1.40
2.78
6.19
8.75
10.43
11.17
10.90
9.58
7.32
4.50
1.76
-0.12
-0.45
1.04
4.08
7.81
11.03
12.64
11.97
9.10
4.79
0.20
-3.47
-5.35
-5.07
-2.84
0.67
4.52
7.83
9.92
10.64
10.22
9.23
8.27
7.72
7.61
7.55
6.84
4.70
0.54
-5.75
-13.64
-21.92
-28.99
-33.27
-33.64
-29.85
-22.57
-13.23
-3.65
4.40
9.65
11.65
10.93
8.81
6.92
6.60
8.30
11.50
14.99
17.51
18.44
18.05
17.31
17.31
18.72
21.40
24.54
27.11
28.28
27.71
25.48
21.82
16.95
11.00
4.14
-3.22
-10.41
-16.64
-21.31
-24.28
-25.87
-26.60
-26.79
-26.32
-24.73
-21.64
-17.13
-12.00
-7.49
-4.75
-4.25
-5.47
-7.05
-7.38
-5.32
-0.70
5.64
12.31
17.95
21.77
23.78
24.54
24.86
25.31
26.09
27.04
27.80
28.05
27.43
25.65
22.36
17.33
10.61
2.61
-5.80
-13.55
-19.65
-23.39
-24.55
-23.33
-20.30
-16.26
-12.11
-8.76
-6.88
-6.77
-8.21
-10.55
-12.95
-14.67
-15.41
-15.33
-14.96
-14.86
-15.21
-15.65
-15.36
-13.39
-9.10
-2.51
5.59
13.94
21.19
26.35
28.97
29.10
27.12
23.53
18.81
13.46
7.91
2.60
-2.16
-6.15
-9.23
-11.23
-11.99
-11.29
-9.03
-5.37
-0.87
3.58
6.83
7.82
5.89
1.11
-5.65
-12.91
-18.94
-22.40
-22.64
-19.88
-14.93
-8.84
-2.46
3.71
9.45
14.75
19.65
24.29
29.00
34.44
41.42
50.63
62.15
75.16
87.79
97.48
101.55
97.91
85.68
65.54
39.60
11.06
-16.51
-39.91
-56.99
-66.98
-70.52
-69.23
-65.17
-60.23
-55.79
-52.53
-50.56
-49.62
-49.21
-48.82
-47.96
-46.40
-44.17
-41.59
-39.19
-37.46
-36.69
-36.79
-37.36
-37.87
-37.82
-36.90
-35.11
-32.65
-29.95
-27.44
-25.54
-24.41
-23.84
-23.19
-21.47
-17.65
-10.97
-1.29
10.91
24.65
38.77
52.03
63.27
71.31
75.18
74.31
68.78
59.36
47.27
33.81
20.09
7.03
-4.44
-13.19
-18.02
-18.06
-13.26
-4.61
6.00
16.30
24.26
28.52
28.51
24.53
17.52
8.92
0.33
-6.87
-11.77
-14.17
-14.51
-13.67
-12.70
-12.48
-13.60
-16.23
-20.14
-24.77
-29.33
-32.98
-35.07
-35.26
-33.68
-30.87
-27.58
-24.60
-22.43
-21.19
-20.65
-20.33
-19.71
-18.39
-16.18
-13.16
-9.57
-5.90
-2.69
-0.49
0.34
-0.28
-2.10
-4.64
-7.31
-9.42
-10.30
-9.27
-5.77
0.40
8.94
19.07
29.75
40.16
49.90
58.88
66.96
73.50
77.20
76.47
69.97
57.29
39.20
17.53
-5.16
-26.15
-42.93
-53.63
-57.34
-54.30
-45.90
-34.34
-22.03
-10.95
-2.28
3.64
7.06
8.53
8.61
7.93
7.14
6.86
7.46
8.80
10.19
10.63
9.26
5.81
0.86
-4.39
-8.59
-10.77
-10.76
-9.18
-7.15
-5.86
-6.15
-8.28
-11.88
-16.12
-19.99
-22.61
-23.54
-22.85
-21.12
-19.15
-17.70
-17.27
-18.03
-19.80
-22.19
-24.64
-26.46
-26.86
-25.12
-20.78
-13.87
-4.91
5.13
15.29
24.89
33.80
42.42
51.38
61.08
71.35
81.20
89.04
93.05
91.72
84.34
71.26
53.96
34.81
16.54
1.60
-8.45
-13.25
-13.67
-11.27
-7.82
-4.72
-2.74
-2.19
-3.15
-5.64
-9.69
-15.09
-21.22
-27.14
-31.91
-34.92
-36.18
-36.26
-35.99
-36.05
-36.73
-37.82
-38.80
-39.07
-38.14
-35.77
-32.15
-27.74
-23.28
-19.57
-17.19
-16.36
-16.80
-17.91
-18.95
-19.28
-18.59
-16.88
-14.38
-11.39
-8.15
-4.69
-0.99
2.95
7.01
10.84
13.95
15.80
15.99
14.44
11.44
7.68
4.11
1.71
1.14
2.53
5.42
8.96
12.13
14.15
14.55
13.30
10.65
7.06
3.06
-0.84
-4.22
-6.77
-8.37
-9.05
-9.04
-8.64
-8.21
-8.03
-8.36
-9.27
-10.73
-12.56
-14.55
-16.55
-18.39
-19.91
-20.80
-20.69
-19.23
-16.25
-11.90
-6.55
-0.59
5.71
12.19
18.66
24.61
29.26
31.78
31.79
29.64
26.43
23.50
21.81
21.48
21.83
21.82
20.72
18.44
15.56
12.80
10.68
9.28
8.41
7.95
7.99
8.83
10.68
13.37
16.27
18.45
19.09
17.82
14.93
11.18
7.51
4.59
2.62
1.47
0.82
0.46
0.39
0.63
1.07
1.37
1.03
-0.28
-2.40
-4.68
-6.25
-6.39
-4.99
-2.56
-0.03
1.68
2.00
0.94
-1.03
-3.15
-4.66
-5.01
-4.06
-2.07
0.27
2.07
2.47
0.86
-2.76
-7.82
-13.22
-17.62
-19.90
-19.46
-16.38
-11.33
-5.33
0.63
5.78
9.75
12.48
14.11
14.82
14.79
14.20
13.27
12.31
11.66
11.56
12.01
12.75
13.32
13.31
12.61
11.53
10.79
11.20
13.31
17.09
21.81
26.32
29.37
30.05
28.02
23.50
17.10
9.49
1.24
-7.22
-15.50
-23.11
-29.35
-33.42
-34.59
-32.41
-26.87
-18.46
-8.10
2.86
12.85
20.31
23.97
23.27
18.54
10.96
2.24
-5.84
-11.90
-15.23
-15.68
-13.40
-8.55
-1.25
8.29
19.46
31.23
42.34
51.84
59.61
66.60
74.38
84.30
96.62
109.91
121.28
127.06
123.84
109.37
83.17
46.71
3.35
-42.18
-84.52
-118.82
-141.90
-152.95
-153.58
-146.98
-136.63
-125.21
-114.01
-103.21
-92.54
-81.90
-71.64
-62.28
-54.21
-47.40
-41.46
-35.91
-30.49
-25.25
-20.48
-16.58
-13.81
-12.15
-11.34
-10.87
-10.13
-8.53
-5.63
-1.22
4.70
11.94
20.34
29.83
40.53
52.71
66.65
82.40
99.65
117.56
134.61
148.71
157.36
157.94
148.04
125.92
91.13
45.18
-8.01
-62.47
-111.17
-147.91
-168.89
-173.73
-165.16
-147.78
-126.36
-104.64
-84.78
-67.71
-53.65
-42.63
-34.53
-29.01
-25.39
-22.74
-20.14
-17.04
-13.33
-9.33
-5.61
-2.60
-0.35
1.51
3.58
6.34
9.89
13.76
17.15
19.34
20.01
19.41
18.16
16.87
15.78
14.63
12.83
9.89
5.75
0.95
-3.69
-7.37
-9.71
-10.83
-11.17
-11.13
-10.85
-10.15
-8.68
-6.20
-2.67
1.67
6.45
11.30
15.89
20.00
23.60
26.85
30.11
33.85
38.48
44.29
51.36
59.56
68.43
77.12
84.37
88.78
89.28
85.53
78.22
68.71
58.40
48.04
37.42
25.60
11.69
-4.54
-22.32
-40.14
-56.29
-69.51
-79.22
-85.51
-88.87
-89.97
-89.41
-87.58
-84.77
-81.11
-76.76
-71.98
-67.17
-62.71
-58.75
-55.11
-51.25
-46.63
-40.97
-34.43
-27.58
-21.12
-15.60
-11.21
-7.82
-5.11
-2.70
-0.32
2.14
4.59
6.77
8.38
9.29
9.70
10.18
11.50
14.24
18.43
23.32
27.55
29.59
28.29
23.45
15.91
7.38
-0.12
-4.76
-5.49
-2.23
4.07
11.81
19.14
24.66
27.81
29.10
29.93
31.90
36.05
42.21
48.72
52.78
51.36
42.30
25.17
1.61
-25.08
-50.86
-71.90
-85.50
-90.40
-86.82
-76.06
-60.15
-41.46
-22.57
-5.94
6.42
13.42
15.19
12.96
8.51
3.52
-0.88
-4.16
-6.09
-6.51
-5.15
-1.91
2.82
7.98
12.04
13.50
11.60
6.65
0.07
-6.16
-10.17
-10.66
-7.19
-0.03
10.01
21.77
33.90
44.91
53.45
58.53
59.80
57.54
52.49
45.43
36.83
26.95
16.03
4.62
-6.24
-15.21
-21.16
-23.56
-22.69
-19.49
-15.24
-11.10
-7.80
-5.52
-4.07
-3.17
-2.65
-2.53
-2.95
-3.83
-4.78
-5.13
-4.23
-1.73
2.15
6.69
11.02
14.42
16.63
17.89
18.80
20.08
22.22
25.31
28.97
32.46
34.96
35.85
34.89
32.28
28.53
24.38
20.58
17.77
16.35
16.27
17.11
18.16
18.74
18.66
18.52
19.66
23.74
31.99
44.51
59.92
75.48
87.65
93.14
89.94
78.09
59.83
39.14
20.65
8.34
4.27
8.05
17.17
28.14
38.05
45.81
52.57
60.95
73.39
90.23
108.55
122.83
126.59
114.88
86.03
42.40
-10.11
-63.47
-109.43
-141.91
-157.99
-158.41
-147.07
-129.59
-111.53
-96.70
-86.22
-78.93
-73.30
-68.20
-63.57
-60.12
-58.67
-59.64
-62.77
-67.22
-71.86
-76.36
-80.39
-83.50
-85.16
-85.16
-84.18
-83.84
-86.11
-86.73
-82.10
-69.86
-50.79
-28.37
-6.19
13.48
30.00
44.05
56.73
67.89
76.79
82.41
84.12
82.55
79.19
75.78
73.81
74.05
75.63
77.13
77.21
74.78
70.18
64.32
57.86
51.79
46.65
41.85
36.57
30.16
21.88
12.12
1.50
-9.47
-20.58
-31.70
-43.45
-56.26
-66.50
-74.71
-81.05
-85.50
-88.24
-89.74
-90.42
-91.12
-92.19
-93.31
-94.25
-94.12
-92.24
-88.50
-85.54
-82.73
-80.47
-79.33
-79.72
-82.03
-85.35
-87.57
-85.79
-77.28
-60.55
-37.09
-10.64
14.01
32.55
43.22
46.91
46.28
44.06
42.05
40.23
37.82
34.23
29.59
25.02
21.10
18.51
17.50
18.12
19.89
22.34
24.97
27.23
28.51
28.32
26.59
23.60
20.00
16.37
13.05
10.05
7.06
3.64
-0.61
-5.76
-11.61
-17.65
-22.99
-26.36
-26.32
-21.76
-12.50
0.25
14.08
25.91
33.01
33.97
29.06
19.99
9.12
-1.39
-10.08
-16.20
-19.49
-19.86
-17.30
-12.00
-4.53
4.20
13.14
21.44
28.73
35.09
40.80
46.15
51.22
55.92
60.24
64.38
68.79
74.09
80.80
89.14
98.81
108.96
118.33
125.37
128.59
126.84
119.56
106.82
89.30
68.13
44.81
21.01
-1.54
-21.34
-37.35
-49.20
-57.18
-62.07
-64.86
-66.45
-67.49
-68.42
-69.60
-71.30
-73.70
-76.65
-79.70
-82.08
-83.02
-82.01
-79.02
-74.51
-69.31
-64.26
-59.96
-56.59
-53.84
-51.08
-47.51
-42.44
-35.43
-26.44
-15.76
-3.90
8.48
20.85
32.92
44.73
56.57
68.65
80.75
91.84
100.04
102.99
98.61
86.01
66.01
41.16
14.98
-9.07
-28.55
-42.45
-51.10
-55.63
-57.45
-57.84
-57.83
-58.23
-59.51
-61.77
-64.56
-66.95
-67.77
-66.03
-61.32
-53.97
-44.92
-35.36
-26.27
-18.14
-10.90
-4.13
2.62
9.54
16.51
23.18
29.22
34.47
39.02
43.07
46.83
50.34
53.50
56.12
58.03
59.07
59.04
57.68
54.70
50.05
44.14
37.81
32.15
27.88
25.02
22.71
19.71
14.93
8.11
-0.11
