1660332803.00
64.000000
-0.00
-0.00
-0.00
-0.00
-0.00
-0.00
-0.00
-0.00
-0.00
-0.00
0.00
0.01
0.01
-0.00
-0.03
-0.05
-0.05
0.00
0.13
0.36
0.66
1.01
1.37
1.72
2.06
2.40
2.79
3.24
3.80
4.42
5.06
5.67
6.20
6.67
7.14
7.67
8.32
9.18
10.15
11.09
11.87
12.42
12.79
13.19
13.86
14.99
16.82
19.15
21.68
24.07
26.12
27.91
29.79
32.24
35.61
40.31
45.93
51.89
57.50
62.36
66.54
70.59
75.35
81.44
89.41
98.66
108.20
116.92
124.11
129.83
134.92
141.02
147.12
155.55
166.72
180.31
194.65
206.53
211.68
205.85
186.30
152.68
107.58
54.54
-2.80
-61.99
-121.99
-182.50
-243.02
-302.40
-358.96
-410.89
-457.46
-498.61
-534.63
-565.53
-590.67
-608.69
-617.34
-613.76
-594.61
-557.27
-500.71
-426.54
-339.30
-245.62
-152.59
-65.91
11.07
77.46
133.64
180.33
217.88
246.33
265.91
277.47
282.49
282.66
279.36
273.29
264.60
253.06
238.69
221.99
204.05
186.27
169.95
155.86
143.95
133.53
123.61
113.38
102.55
91.36
80.44
70.40
61.57
53.90
47.09
40.79
34.76
28.91
23.28
17.96
13.04
8.68
5.00
2.14
0.27
-0.54
-0.38
0.43
1.44
2.15
2.20
1.40
-0.16
-2.24
-4.51
-6.72
-8.64
-10.13
-11.06
-11.35
-10.93
-9.85
-8.22
-6.30
-4.39
-2.81
-1.81
-1.52
-1.91
-2.77
-3.80
-4.68
-5.21
-5.38
-5.35
-5.35
-5.59
-6.11
-6.78
-7.31
-7.40
-6.82
-5.51
-3.61
-1.42
0.70
2.39
3.42
3.70
3.27
2.30
0.96
-0.55
-2.08
-3.48
-4.62
-5.41
-5.77
-5.69
-5.22
-4.47
-3.59
-2.75
-2.05
-1.50
-1.07
-0.70
-0.34
-0.00
0.27
0.42
0.41
0.27
-0.02
-0.42
-0.87
-1.28
-1.46
-1.19
-0.27
1.34
3.44
5.66
7.56
8.78
9.11
8.61
7.50
6.05
4.51
3.04
1.69
0.50
-0.50
-1.24
-1.74
-1.97
-1.99
-1.91
-1.86
-1.97
-2.34
-2.96
-3.73
-4.48
-5.02
-5.23
-5.14
-4.89
-4.70
-4.73
-5.01
-5.38
-5.55
-5.21
-4.13
-2.31
0.05
2.58
4.84
6.45
7.16
6.90
5.75
3.89
1.57
-0.96
-3.48
-5.76
-7.61
-8.87
-9.43
-9.25
-8.36
-6.93
-5.22
-3.53
-2.12
-1.17
-0.69
-0.59
-0.74
-0.96
-1.14
-1.24
-1.28
-1.33
-1.47
-1.79
-2.32
-2.98
-3.53
-3.60
-2.81
-0.94
2.03
5.83
10.04
14.00
17.09
18.89
19.26
18.35
16.45
13.86
10.84
7.61
4.35
1.31
-1.29
-3.26
-4.55
-5.22
-5.46
-5.49
-5.49
-5.58
-5.77
-5.96
-6.02
-5.89
-5.59
-5.29
-5.23
-5.66
-6.71
-8.31
-10.22
-12.09
-13.53
-14.17
-13.72
-11.95
-8.84
-4.58
0.37
5.37
9.74
12.94
14.67
14.89
13.78
11.63
8.80
5.67
2.61
-0.03
-1.95
-3.02
-3.26
-2.88
-2.22
-1.63
-1.35
-1.46
-1.87
-2.38
-2.82
-3.14
-3.43
-3.85
-4.62
-5.85
-7.52
-9.41
-11.11
-12.09
-11.84
-10.01
-6.57
-1.91
3.30
8.30
12.44
15.36
16.99
17.44
16.87
15.42
13.19
10.37
7.26
4.28
1.85
0.22
-0.62
-0.95
-1.14
-1.49
-2.09
-2.82
-3.44
-3.78
-3.81
-3.70
-3.68
-3.99
-4.79
-6.15
-8.03
-10.27
-12.52
-14.30
-15.00
-14.15
-11.55
-7.38
-2.18
3.29
8.26
12.15
14.66
15.73
15.57
14.52
12.95
11.22
9.56
8.16
7.15
6.64
6.73
7.44
8.64
10.04
11.25
11.90
11.77
10.87
9.38
7.51
5.43
3.16
0.61
-2.37
-5.79
-9.46
-12.94
-15.59
-16.76
-15.99
-13.18
-8.67
-3.17
2.49
7.64
11.97
15.50
18.41
20.85
22.71
23.72
23.55
22.09
19.53
16.36
13.13
10.35
8.34
7.25
7.03
7.45
8.05
8.24
7.50
5.58
2.62
-0.87
-4.21
-6.80
-8.24
-8.41
-7.44
-5.63
-3.51
-1.71
-0.74
-0.66
-0.99
-0.82
0.64
3.50
7.02
9.85
10.74
9.20
5.76
1.64
-1.81
-3.74
-3.92
-2.54
0.23
4.48
10.39
17.80
25.83
32.76
36.45
35.09
27.91
15.66
0.33
-15.48
-29.48
-40.38
-48.04
-53.14
-56.55
-58.79
-59.80
-59.19
-56.59
-51.99
-45.80
-38.75
-31.57
-24.79
-18.71
-13.39
-8.87
-5.19
-2.42
-0.57
0.49
1.05
1.59
2.58
4.41
7.17
10.60
14.20
17.35
19.53
20.47
20.18
18.86
16.74
13.90
10.30
5.87
0.69
-4.92
-10.45
-15.28
-18.93
-21.08
-21.61
-20.53
-17.88
-13.82
-8.65
-2.81
3.13
8.66
13.44
17.26
20.00
21.52
21.65
20.25
17.40
13.42
8.83
4.22
0.06
-3.35
-5.92
-7.64
-8.55
-8.74
-8.36
-7.62
-6.80
-6.18
-5.99
-6.36
-7.32
-8.84
-10.79
-13.00
-15.22
-17.11
-18.29
-18.38
-17.08
-14.31
-10.19
-5.15
0.24
5.30
9.48
12.42
13.99
14.27
13.44
11.72
9.34
6.58
3.76
1.26
-0.56
-1.50
-1.56
-1.01
-0.24
0.34
0.51
0.25
-0.25
-0.76
-1.10
-1.28
-1.46
-1.87
-2.69
-3.94
-5.50
-7.15
-8.57
-9.42
-9.34
-8.04
-5.37
-1.42
3.39
8.42
13.01
16.60
18.94
20.05
20.10
19.30
17.86
15.90
13.62
11.23
9.05
7.32
6.17
5.55
5.23
4.89
4.28
3.31
2.07
0.81
-0.26
-1.05
-1.68
-2.39
-3.52
-5.32
-7.83
-10.81
-13.79
-16.13
-17.23
-16.68
-14.38
-10.60
-5.89
-0.87
3.93
8.18
11.69
14.35
16.06
16.67
16.06
14.13
10.89
6.52
1.36
-4.22
-9.72
-14.59
-18.34
-20.68
-21.60
-21.32
-20.12
-18.23
-16.00
-13.73
-11.62
-9.89
-8.84
-8.82
-10.11
-12.69
-16.12
-19.92
-23.37
-25.55
-25.63
-23.29
-18.90
-13.43
-8.06
-3.77
-1.64
-2.18
-5.17
-9.84
-15.21
-20.50
-25.23
-29.27
-29.87
-25.69
-17.58
-8.23
-0.12
5.98
10.81
15.60
21.27
27.92
34.45
39.28
41.14
39.50
34.59
27.11
18.12
8.90
0.73
-5.58
-9.61
-11.22
-10.52
-8.02
-4.53
-0.79
2.83
6.53
10.62
15.35
20.64
26.07
31.04
35.06
37.97
39.87
40.35
39.38
36.50
31.23
23.67
14.66
5.63
-2.01
-7.41
-10.50
-11.75
-11.89
-11.35
-10.19
-8.31
-5.82
-3.12
-0.76
0.83
1.62
1.85
1.91
2.11
2.40
2.45
1.78
0.04
-2.84
-6.55
-10.56
-14.25
-16.99
-18.32
-17.93
-15.84
-12.46
-8.50
-4.73
-1.79
0.04
0.82
0.90
0.69
0.47
0.36
0.36
0.45
0.61
0.83
1.04
1.12
1.00
0.71
0.44
0.52
1.28
2.87
5.18
7.84
10.32
12.14
12.96
12.64
11.25
8.95
5.99
2.67
-0.69
-3.81
-6.45
-8.49
-9.93
-10.82
-11.25
-11.27
-10.95
-10.30
-9.41
-8.39
-7.38
-6.54
-6.03
-5.92
-6.27
-7.19
-8.69
-10.67
-12.96
-15.24
-17.03
-17.74
-16.77
-13.77
-8.76
-2.26
4.88
11.65
17.26
21.25
23.60
24.53
24.43
23.66
22.58
21.47
20.56
19.93
19.54
19.15
18.44
17.06
14.82
11.76
8.06
3.97
-0.27
-4.53
-8.69
-12.60
-16.12
-19.10
-21.48
-23.26
-24.45
-24.94
-24.52
-23.00
-20.47
-17.38
-14.47
-12.42
-11.47
-11.27
-11.03
-9.96
-7.79
-4.90
-2.18
-0.50
-0.29
-1.34
-2.91
-4.18
-4.59
-4.04
-2.83
-1.42
-0.18
0.82
1.75
2.99
4.90
7.72
11.50
16.13
21.36
26.78
31.71
35.29
36.60
35.10
30.88
24.88
18.61
13.58
10.79
10.38
11.76
14.07
16.57
18.92
21.01
22.78
24.02
24.39
23.65
21.81
19.20
16.32
13.65
11.56
10.23
9.66
9.55
9.34
8.19
5.24
-0.05
-7.59
-16.64
-26.03
-34.64
-41.78
-47.21
-50.92
-52.86
-52.75
-50.28
-45.47
-38.93
-31.80
-25.39
-20.64
-17.79
-16.38
-15.57
-14.63
-13.24
-11.60
-10.21
-9.56
-9.83
-10.82
-12.05
-12.93
-13.07
-12.32
-10.80
-8.77
-6.46
-4.00
-1.45
1.22
3.94
6.57
8.92
10.78
12.13
13.16
14.37
16.49
20.22
26.05
34.05
43.81
54.50
65.01
74.08
80.41
82.83
80.51
73.14
61.11
45.49
27.85
9.99
-6.37
-19.91
-29.91
-36.30
-39.65
-40.93
-41.16
-41.16
-41.29
-41.50
-41.56
-41.29
-40.74
-40.12
-39.69
-39.53
-39.50
-39.28
-38.48
-36.77
-33.94
-29.87
-24.61
-18.40
-11.68
-5.11
0.62
4.99
7.82
9.33
9.96
10.13
9.96
9.35
8.09
6.19
4.04
2.26
1.47
1.87
3.21
4.85
6.15
6.72
6.57
5.91
4.96
3.72
2.00
-0.45
-3.70
-7.55
-11.49
-14.86
-17.02
-17.48
-15.98
-12.56
-7.53
-1.44
5.08
11.38
16.95
21.49
24.86
27.12
28.41
29.01
29.31
29.73
30.67
32.25
34.30
36.27
37.41
37.03
34.69
30.37
24.44
17.59
10.59
4.15
-1.25
-5.46
-8.61
-11.07
-13.30
-15.66
-18.29
-21.04
-23.47
-24.97
-24.98
-23.12
-19.31
-13.83
-7.24
-0.24
6.52
12.57
17.70
21.85
25.08
27.35
28.56
28.51
27.08
24.28
20.27
15.42
10.12
4.83
-0.09
-4.39
-7.96
-10.81
-13.10
-15.02
-16.81
-18.61
-20.44
-22.24
-23.92
-25.41
-26.75
-27.99
-29.19
-30.21
-30.73
-30.35
-28.70
-25.74
-21.77
-17.40
-13.27
-9.82
-7.13
-5.00
-3.15
-1.38
0.28
1.66
2.62
3.16
3.50
4.03
5.16
7.13
9.81
12.72
15.09
16.24
15.80
13.97
11.42
9.03
7.53
7.21
7.94
9.36
11.08
12.88
14.65
16.26
17.48
18.04
17.77
16.79
15.53
14.61
14.58
15.68
17.70
20.10
22.17
23.31
23.19
21.74
19.12
15.59
11.43
6.95
2.48
-1.66
-5.23
-8.12
-10.40
-12.26
-13.93
-15.58
-17.21
-18.72
-19.94
-20.73
-21.02
-20.80
-20.13
-19.06
-17.71
-16.16
-14.51
-12.75
-10.76
-8.33
-5.33
-1.82
1.84
5.05
7.22
8.06
7.77
6.98
6.54
7.13
9.00
11.98
15.59
19.24
22.35
24.41
24.97
23.66
20.30
15.07
8.50
1.43
-5.21
-10.70
-14.61
-16.92
-17.85
-17.78
-17.10
-16.13
-15.13
-14.31
-13.83
-13.83
-14.28
-14.96
-15.36
-14.81
-12.64
-8.53
-2.64
4.29
11.22
17.18
21.55
24.31
25.85
26.83
27.76
28.92
30.25
31.51
32.40
32.69
32.23
30.94
28.74
25.52
21.16
15.69
9.36
2.68
-3.69
-9.12
-13.21
-15.95
-17.62
-18.72
-19.81
-21.34
-23.57
-26.46
-29.66
-32.50
-34.11
-33.66
-30.68
-25.26
-18.09
-10.25
-2.90
2.92
6.47
7.36
5.48
1.00
-5.55
-13.20
-20.63
-26.38
-29.41
-29.38
-26.58
-21.93
-16.65
-11.91
-8.42
-6.29
-5.15
-4.47
-3.84
-2.89
-1.48
0.16
1.61
2.43
2.43
1.80
0.87
0.13
0.52
3.04
8.38
16.56
26.80
37.65
47.30
53.80
54.13
46.81
33.15
16.97
2.20
-9.03
-17.04
-22.19
-24.57
-24.19
-20.52
-14.16
-6.88
-1.10
1.14
-0.89
-6.29
-13.19
-19.58
-23.78
-25.10
-23.92
-21.36
-18.65
-16.58
-15.33
-14.72
-14.56
-14.59
-14.69
-14.80
-14.78
-14.25
-12.68
-9.58
-4.95
0.69
6.47
11.49
15.15
17.35
18.42
18.98
19.65
20.74
22.22
23.86
25.39
26.59
27.34
27.46
26.67
24.62
21.02
15.95
9.93
3.89
-1.23
-4.86
-7.03
-8.32
-9.47
-10.93
-12.66
-14.24
-15.23
-15.51
-15.37
-15.28
-15.53
-16.06
-16.45
-16.25
-15.29
-13.80
-12.24
-11.01
-10.23
-9.67
-8.94
-7.74
-5.95
-3.70
-1.12
1.67
4.73
8.19
12.19
16.77
21.78
26.80
31.17
34.08
34.77
32.81
28.27
21.78
14.35
7.10
1.00
-3.32
-5.62
-6.05
-5.05
-3.33
-1.67
-0.73
-0.87
-2.08
-3.97
-6.00
-7.70
-8.80
-9.26
-9.21
-8.80
-8.13
-7.22
-6.06
-4.67
-3.11
-1.52
-0.05
1.17
2.08
2.77
3.46
4.42
5.94
8.17
11.11
14.52
17.96
20.71
21.89
20.54
15.95
7.96
-2.79
-14.91
-26.61
-36.23
-42.68
-45.68
-45.60
-43.17
-39.06
-33.84
-27.96
-21.96
-16.47
-12.14
-9.38
-8.19
-8.14
-8.52
-8.67
-8.21
-7.21
-6.06
-5.24
-5.11
-5.73
-6.85
-8.07
-9.01
-9.43
-9.29
-8.69
-7.82
-6.87
-5.96
-5.14
-4.37
-3.61
-2.85
-2.17
-1.73
-1.72
-2.15
-2.77
-3.02
-2.22
0.20
4.48
10.40
17.42
24.91
32.35
39.41
45.80
51.07
54.44
54.96
51.80
44.76
34.54
22.65
11.00
1.21
-5.89
-10.37
-12.96
-14.55
-15.80
-16.96
-17.99
-18.79
-19.37
-19.82
-20.20
-20.40
-20.21
-19.44
-18.09
-16.43
-14.89
-13.78
-13.13
-12.51
-11.23
-8.59
-4.17
1.88
8.96
16.07
22.15
26.34
28.13
27.46
24.66
20.35
15.32
10.34
6.04
2.79
0.61
-0.76
-1.70
-2.59
-3.67
-5.02
-6.51
-7.94
-9.03
-9.52
-9.26
-8.27
-6.79
-5.30
-4.40
-4.70
-6.60
-10.15
-14.90
-20.00
-24.32
-26.75
-26.52
-23.48
-18.13
-11.46
-4.67
1.29
5.86
9.04
11.19
12.76
14.15
15.58
17.14
18.88
20.91
23.35
26.25
29.57
33.00
36.11
38.32
39.05
37.86
34.51
29.07
21.90
13.64
5.05
-3.16
-10.40
-16.30
-20.72
-23.62
-25.08
-25.23
-24.19
-22.08
-18.97
-14.81
-9.50
-2.94
4.87
13.66
22.90
31.78
39.37
44.87
47.83
48.29
46.75
43.95
40.62
37.20
33.69
29.75
24.92
18.82
11.41
3.07
-5.46
-13.30
-19.58
-23.77
-25.77
-25.97
-25.16
-24.31
-24.32
-25.75
-28.70
-32.73
-37.01
-40.52
-42.34
-41.91
-39.12
-34.41
-28.56
-22.50
-17.12
-13.02
-10.47
-9.37
-9.37
-9.98
-10.72
-11.23
-11.35
-11.08
-10.52
-9.77
-8.92
-8.02
-7.06
-6.06
-4.98
-3.72
-2.11
0.06
2.94
6.58
10.81
15.34
19.82
23.97
27.68
30.90
33.58
35.56
36.64
36.64
35.60
33.90
32.13
31.00
31.14
32.96
36.61
41.93
48.36
54.87
59.96
61.81
58.78
49.98
35.76
17.88
-0.84
-17.27
-28.86
-34.34
-34.01
-29.40
-22.59
-15.50
-9.37
-4.68
-1.41
0.53
1.03
-0.28
-3.84
-9.95
-18.51
-28.94
-40.21
-51.07
-60.27
-66.79
-70.06
-70.01
-67.00
-61.71
-54.86
-47.15
-39.17
-31.47
-24.58
-18.99
-15.04
-12.83
-12.09
-12.29
-12.76
-12.89
-12.31
-10.97
-9.07
-6.96
-4.94
-3.17
-1.67
-0.37
0.84
1.98
3.01
3.84
4.30
4.26
3.66
2.62
1.47
0.78
1.27
3.71
8.67
16.44
26.84
39.12
51.83
62.99
70.41
72.22
67.55
56.84
41.80
24.92
8.72
-4.85
-14.76
-20.87
-23.61
-23.69
-21.92
-19.18
-16.32
-14.16
-13.25
-13.74
-15.30
-17.27
-18.89
-19.63
-19.44
-18.76
-18.30
-18.59
-19.58
-20.50
-20.05
-16.94
-10.47
-0.93
10.37
21.47
30.15
34.40
32.81
24.91
11.58
-4.86
-20.95
-32.98
-38.20
-35.83
-27.43
-16.23
-5.83
1.12
3.71
2.57
-0.80
-4.96
-8.98
-12.49
-15.39
-17.60
-18.97
-19.45
-19.24
-18.77
-18.49
-18.62
-18.88
-18.55
-16.76
-12.91
-6.97
0.45
8.28
15.43
21.13
25.15
27.74
29.38
30.56
31.63
32.71
33.88
35.21
36.88
39.17
42.41
46.83
52.44
58.92
65.51
71.08
74.28
73.86
68.91
59.15
45.01
27.55
8.27
-11.14
-29.06
-44.10
-55.17
-61.65
-63.37
-60.78
-54.81
-46.78
-38.13
-30.08
-23.35
-18.13
-14.18
-11.09
-8.62
-6.81
-5.91
-6.16
-7.56
-9.72
-12.01
-13.82
-14.79
-14.94
-14.62
-14.33
-14.51
-15.43
-17.23
-19.78
-22.73
-25.47
-27.21
-27.24
-25.28
-21.66
-17.32
-13.42
-10.89
-10.02
-10.42
-11.27
-11.71
-11.20
-9.62
-7.18
-4.15
-0.77
2.73
6.07
8.86
10.67
11.20
10.44
8.74
6.74
5.09
4.23
4.26
5.00
6.10
7.27
8.41
9.67
11.33
13.70
16.96
21.03
25.57
30.06
33.97
36.99
39.14
40.83
42.70
45.33
48.97
53.27
57.27
59.61
58.89
54.22
45.60
34.05
21.34
9.42
-0.15
-6.66
-10.31
-11.93
-12.50
-12.83
-13.36
-14.18
-15.21
-16.29
-17.26
-18.00
-18.38
-18.33
-17.81
-16.87
-15.74
-14.77
-14.49
-15.42
-17.96
-22.12
-27.48
-33.25
-38.48
-42.37
-44.47
-44.74
-43.36
-40.58
-36.55
-31.33
-25.04
-17.95
-10.57
-3.52
2.61
7.37
10.57
12.24
12.60
11.94
10.61
8.95
7.25
5.75
4.58
3.80
3.37
3.16
2.96
2.53
1.72
0.54
-0.83
-2.08
-2.93
-3.21
-2.99
-2.51
-2.10
-2.03
-2.42
-3.15
-3.83
-3.91
-2.77
0.02
4.61
10.75
17.90
25.47
33.00
40.25
47.16
53.57
59.07
62.96
64.30
62.25
56.27
46.36
33.13
17.74
1.67
-13.51
-26.45
-36.27
-42.68
-45.94
-46.70
-45.72
-43.68
-41.06
-38.15
-35.10
-32.04
-29.09
-26.36
-23.95
-21.89
-20.11
-18.35
-16.18
-13.09
-8.60
-2.46
5.24
14.08
23.45
32.67
41.13
48.26
53.49
56.23
55.90
52.08
44.70
34.16
21.33
7.47
-6.00
-17.78
-26.93
-33.08
-36.49
-37.91
-38.24
-38.28
-38.41
-38.62
-38.60
-38.08
-37.05
-35.82
-34.89
-34.70
-35.43
-36.94
-38.78
-40.38
-41.12
-40.47
-38.03
-33.63
-27.39
-19.74
-11.36
-2.96
4.88
11.84
17.82
22.81
26.76
29.63
31.48
32.61
33.59
35.10
37.69
41.59
46.59
52.12
57.36
61.44
63.45
62.69
58.83
52.18
43.72
34.76
26.45
19.23
12.66
5.79
-2.19
-11.36
-20.96
-29.75
-36.67
-41.28
-43.82
-44.82
-44.62
-43.15
-40.04
-34.99
-28.12
-20.04
-11.66
-3.90
2.55
7.42
10.76
12.92
14.33
15.31
16.02
16.32
15.88
14.36
11.56
7.64
3.07
-1.48
-5.41
-8.34
-10.22
-11.28
-11.82
-12.11
-12.32
-12.52
-12.77
-13.14
-13.75
-14.70
-16.00
-17.56
-19.16
-20.59
-21.64
-22.17
-22.05
-21.22
-19.59
-17.16
-14.01
-10.32
-6.37
-2.47
1.09
4.12
6.53
8.31
9.57
10.48
11.32
12.37
13.85
15.85
18.25
20.83
23.34
25.72
28.12
30.88
34.32
38.53
43.17
47.49
50.55
51.51
49.95
46.04
40.41
33.88
27.15
20.60
14.33
8.26
2.35
-3.28
-8.32
-12.31
-14.71
-15.04
-13.05
-8.92
-3.45
2.05
5.98
7.06
4.87
0.01
-6.04
-11.57
-15.40
-17.31
-17.93
-18.23
-18.91
-20.03
-21.01
-21.16
-20.13
-18.21
-16.12
-14.57
-13.78
-13.36
-12.47
-10.38
-6.87
-2.46
1.79
4.67
5.21
3.02
-1.78
-8.63
-16.71
-25.02
-32.49
-38.04
-40.73
-40.03
-36.00
-29.34
-21.28
-13.20
-6.32
-1.33
1.67
3.03
3.39
3.37
3.42
3.76
4.40
5.23
6.09
6.85
7.43
7.81
8.01
8.16
8.45
9.11
10.35
12.29
14.97
18.31
22.23
26.63
31.42
36.38
41.03
44.66
46.37
45.37
41.28
34.35
25.40
15.59
6.12
-2.04
-8.26
-12.17
-13.57
-12.46
-9.03
-3.85
2.14
7.79
11.98
13.92
13.42
10.83
6.94
2.65
-1.32
-4.59
-7.18
-9.33
-11.37
-13.45
-15.49
-17.17
-18.06
-17.78
-16.13
-13.21
-9.48
-5.77
-3.16
-2.81
-5.58
-11.63
-20.24
-29.88
-38.69
-45.02
-48.05
-47.98
-45.84
-43.01
-40.63
-39.20
-38.43
-37.50
-35.45
-31.62
-25.91
-18.79
-11.11
-3.69
2.93
8.62
13.53
17.78
21.29
23.81
25.09
25.15
24.39
23.52
23.23
23.97
25.73
28.16
30.76
33.14
35.22
37.20
39.55
42.77
47.25
53.08
59.97
67.18
73.55
77.57
77.56
72.07
60.27
42.36
19.67
-5.47
-30.30
-52.19
-69.19
-80.20
-84.99
-83.95
-77.89
-67.99
-55.72
-42.77
-30.80
-21.11
-14.33
-10.28
-8.13
-6.69
-4.87
-1.99
1.99
6.55
10.83
13.99
15.53
15.46
14.24
12.55
11.05
10.13
9.90
10.24
10.82
11.11
10.34
7.67
2.47
-5.24
-14.67
-24.30
-32.49
-38.03
-40.65
-40.95
-40.07
-39.10
-38.66
-38.86
-39.41
-39.92
-40.00
-39.34
-37.61
-34.55
-30.02
-24.18
-17.47
-10.58
-4.19
1.18
5.30
8.24
10.27
11.67
12.67
13.38
13.84
14.04
14.03
13.90
13.83
14.00
14.60
15.74
17.45
19.65
22.18
24.86
27.56
30.26
33.05
36.11
39.57
43.37
47.11
49.97
50.90
48.92
43.49
34.75
23.52
11.07
-1.19
-12.04
-20.54
-26.09
-28.42
-27.56
-23.92
-18.27
-11.64
-5.09
0.55
4.83
7.73
9.52
10.64
11.49
12.39
13.41
14.39
14.99
14.77
13.38
10.70
6.88
2.30
-2.54
-7.18
-11.30
-14.76
-17.55
-19.75
-21.43
-22.64
-23.39
-23.73
-23.75
-23.61
-23.52
-23.70
-24.31
-25.49
-27.26
-29.50
-31.90
-33.92
-34.85
-34.02
-31.05
-25.99
-19.40
-12.14
-5.11
1.10
6.29
10.61
14.39
17.89
21.25
24.36
27.03
29.08
30.52
31.58
32.68
34.32
36.85
40.39
44.67
49.13
53.01
55.59
56.41
55.49
53.33
50.84
49.04
48.61
49.55
50.88
50.88
47.59
39.60
26.73
10.21
-7.70
-24.53
-38.44
-48.64
-55.37
-59.29
-60.96
-60.55
-57.95
-53.15
-46.57
-39.07
-31.72
-25.36
-20.34
-16.50
-13.39
-10.65
-8.18
-6.24
-5.24
-5.48
-6.97
-9.39
-12.19
-14.87
-17.10
-18.84
-20.22
-21.42
-22.56
-23.57
-24.30
-24.61
-24.47
-23.95
-23.30
-22.78
-22.67
-23.15
-24.31
-26.10
-28.33
-30.63
-32.58
-33.73
-33.72
-32.34
-29.54
-25.45
-20.36
-14.63
-8.69
-2.88
2.58
7.62
12.30
16.67
20.74
24.33
27.18
29.05
29.85
29.71
28.94
27.86
26.73
25.68
24.79
24.16
23.99
24.61
26.35
29.49
34.14
40.23
47.50
55.38
62.85
68.47
70.50
67.38
58.32
43.81
25.69
6.66
-10.56
-24.07
-33.30
-38.81
-41.68
-42.86
-42.69
-41.05
-37.72
-32.81
-26.93
-20.95
-15.61
-11.18
-7.42
-3.85
-0.19
3.41
6.39
8.10
8.17
6.76
4.50
2.26
0.74
0.19
0.39
0.83
0.93
0.36
-0.89
-2.52
-4.12
-5.32
-6.01
-6.37
-6.81
-7.76
-9.60
-12.48
-16.41
-21.23
-26.66
-32.23
-37.27
-41.00
-42.69
-41.90
-38.65
-33.41
-26.96
-20.13
-13.64
-7.97
-3.41
-0.04
2.17
3.43
4.08
4.46
4.86
5.36
5.86
6.15
6.07
5.57
4.80
4.03
3.57
3.69
4.56
6.15
8.27
10.50
12.24
12.88
11.97
9.47
5.78
1.64
-2.17
-5.10
-7.08
-8.41
-9.55
-10.82
-12.15
-13.16
-13.31
-12.19
-9.68
-6.03
-1.71
2.78
7.06
10.96
14.45
17.57
20.34
22.67
24.43
25.52
25.93
25.80
25.43
25.13
25.18
25.68
26.46
27.15
27.24
26.23
23.78
19.84
14.70
8.83
2.85
-2.71
-7.47
-11.24
-14.04
-16.00
-17.33
-18.25
-18.89
-19.25
-19.11
-18.09
-15.71
-11.64
-5.77
1.67
10.15
18.92
27.14
33.97
38.65
40.62
39.61
35.73
29.48
21.72
13.54
6.04
0.12
-3.73
-5.47
-5.49
-4.43
-2.94
-1.54
-0.47
0.24
0.64
0.79
0.67
0.28
-0.34
-1.08
-1.84
-2.60
-3.45
-4.56
-5.96
-7.53
-8.89
-9.56
-9.16
-7.58
-5.05
-2.03
0.96
3.55
5.65
7.39
9.03
10.81
12.84
15.05
17.24
19.16
20.58
21.28
21.15
20.17
18.42
16.13
13.60
11.12
8.88
6.90
5.04
3.08
0.85
-1.67
-4.34
-6.97
-9.43
-11.73
-14.07
-16.71
-19.94
-23.96
-28.78
-34.22
-39.78
-44.70
-48.02
-48.88
-46.78
-41.87
-34.97
-27.38
-20.47
-15.25
-12.14
-10.93
-11.03
-11.78
-12.67
-13.47
-14.12
-14.66
-15.13
-15.52
-15.85
-16.18
-16.62
-17.35
-18.44
-19.80
-21.20
-22.28
-22.76
-22.45
-21.32
-19.49
-17.21
-14.84
-12.71
-11.06
-9.99
-9.41
-9.13
-8.76
-7.98
-6.61
-4.66
-2.25
0.46
3.32
6.15
8.79
11.28
13.62
15.72
17.39
18.49
19.05
19.25
19.33
19.61
20.84
23.53
27.66
32.58
37.40
41.39
44.16
45.75
46.52
47.82
50.66
55.20
60.62
65.75
69.68
72.03
72.99
73.09
74.10
77.41
83.43
91.45
100.09
107.85
113.22
114.68
105.28
81.61
45.59
4.32
-34.23
-65.09
-86.71
-99.54
-104.67
-104.79
-100.04
-90.80
-78.63
-66.15
-55.94
-49.51
-47.03
-47.72
-49.93
-51.54
-51.37
-49.40
-46.52
-43.70
-41.33
-39.25
-37.08
-34.71
-31.99
-29.34
-27.56
-27.41
-29.07
-31.95
-34.91
-36.62
-36.16
-32.98
-27.20
-19.48
-10.77
-1.99
6.20
13.38
19.58
24.89
29.50
33.50
36.95
39.94
42.66
45.43
48.50
52.11
56.03
59.47
61.41
61.06
58.17
53.06
46.50
37.59
26.59
14.67
3.49
-5.65
-12.05
-15.49
-16.57
-15.70
-13.48
-10.45
-7.44
-5.34
-4.92
-6.10
-8.55
-11.56
-14.22
-15.79
-15.73
-14.04
-11.18
-7.87
-4.65
-1.86
0.51
2.64
4.65
6.58
8.27
9.39
9.57
8.60
6.43
3.27
-0.46
-4.15
-7.09
-8.72
-8.81
-7.57
-5.63
-3.84
-2.92
-3.22
-4.69
-6.95
-9.54
-12.17
-14.74
-17.30
-19.86
-22.34
-24.62
-26.63
-28.43
-30.05
-31.32
-31.77
-30.67
-27.30
-21.37
-13.22
-3.83
5.50
13.56
19.59
23.42
25.31
25.71
25.05
23.61
21.54
19.02
16.26
13.51
11.01
8.87
7.08
5.54
4.14
2.87
1.83
1.22
1.18
1.67
2.40
2.90
2.71
1.54
-0.53
-3.13
-5.76
-8.02
-9.80
-11.30
-12.89
-14.97
-17.76
-21.27
-25.23
-29.14
-32.23
-33.59
-32.37
-28.13
-21.05
-12.03
-2.38
6.58
13.92
19.35
23.03
25.38
26.74
27.26
26.98
25.94
24.26
22.15
19.84
17.48
15.16
12.89
10.73
8.80
7.24
6.18
5.62
5.40
5.20
4.66
3.51
1.69
-0.63
-3.17
-5.68
-8.07
-10.46
-13.09
-16.13
-19.61
-23.35
-27.05
-30.39
-33.13
-35.18
-36.60
-37.53
-38.24
-39.07
-40.41
-42.53
-45.44
-48.71
-51.44
-52.52
-51.03
-46.64
-39.78
-31.43
-22.71
-14.43
-6.79
0.38
7.32
14.00
20.04
24.91
28.33
30.41
31.63
32.50
33.32
34.09
34.58
34.64
34.28
33.73
33.29
33.13
33.23
33.44
33.56
33.46
33.11
32.50
31.63
30.40
28.70
26.42
23.56
20.17
16.41
12.44
8.34
4.15
-0.22
-4.90
-10.06
-15.81
-22.13
-28.74
-35.01
-40.00
-42.61
-41.94
-37.65
-30.15
-20.62
-10.56
-1.37
6.07
11.57
15.40
18.03
19.71
20.49
20.26
19.08
17.26
15.39
14.08
13.70
14.25
15.39
16.66
17.76
18.65
19.54
20.73
22.38
24.42
26.54
28.26
29.14
28.92
27.56
25.25
22.25
18.80
15.02
10.89
6.36
1.46
-3.62
-8.50
-12.80
-16.23
-18.74
-20.48
-21.80
-23.09
-24.78
-27.29
-31.00
-36.06
-42.18
-48.45
-53.40
-55.36
-53.01
-45.93
-34.80
-21.23
-7.17
5.67
16.25
24.28
30.00
33.81
36.10
37.06
36.85
35.63
33.62
31.06
28.14
25.01
21.71
18.26
14.71
11.20
7.96
5.30
3.52
2.83
3.17
4.21
5.40
6.16
6.08
5.11
3.50
1.69
0.04
-1.34
-2.63
-4.14
-6.21
-8.97
-12.30
-15.90
-19.41
-22.55
-25.26
-27.71
-30.26
-33.35
-37.33
-42.31
-47.96
-53.47
-57.54
-58.66
-55.46
-47.13
-33.84
-16.83
1.89
20.02
35.59
47.45
55.33
59.65
61.20
60.74
58.90
56.12
52.74
49.07
45.30
41.56
37.79
33.89
29.79
25.62
21.67
18.34
15.88
14.30
13.24
12.14
10.39
7.69
4.11
0.07
-3.93
-7.54
-10.76
-13.92
-17.49
-21.79
-26.84
-32.29
-37.59
-42.24
-45.98
-48.91
-51.52
-54.48
-58.45
-63.78
-70.18
-76.58
-81.23
-82.07
-77.41
-66.60
-50.40
-30.85
-10.68
7.62
22.44
33.35
40.81
45.63
48.52
49.79
49.59
48.05
45.55
42.65
39.88
37.52
35.55
33.68
31.60
29.14
26.43
23.78
21.56
20.06
19.33
19.17
19.15
18.77
17.55
15.25
11.95
7.95
3.73
-0.30
-3.96
-7.33
-10.70
-14.44
-18.85
-23.95
-29.47
-34.80
-39.27
-42.33
-43.90
-44.47
-44.96
-46.44
-49.74
-55.07
-61.85
-68.70
-73.69
-74.74
-70.24
-59.52
-43.25
-23.36
-2.52
16.62
32.17
43.36
50.48
54.35
55.84
55.54
53.76
50.72
46.72
42.22
37.75
33.78
30.58
28.24
26.67
25.69
25.13
24.84
24.73
24.70
24.63
24.33
23.53
21.96
19.38
15.75
11.24
6.28
1.39
-2.94
-6.46
-9.28
-11.77
-14.47
-17.76
-21.71
-26.04
-30.21
-33.68
-36.12
-37.58
-38.42
-39.21
-40.60
-43.13
-47.22
-52.91
-59.76
-66.67
-71.87
-73.30
-69.24
-58.95
-43.13
-23.80
-3.71
14.49
29.01
39.19
45.32
48.17
48.55
47.05
44.04
39.94
35.27
30.68
26.80
24.00
22.27
21.33
20.74
20.22
19.73
19.43
19.54
20.07
20.74
21.00
20.32
18.35
15.16
11.17
6.91
2.84
-0.91
-4.53
-8.40
-12.82
-17.85
-23.19
-28.33
-32.70
-35.98
-38.23
-39.91
-41.74
-44.52
-48.84
-54.85
-62.06
-69.18
-74.29
-75.16
-69.97
-57.97
-39.98
-18.22
4.23
24.46
40.54
51.85
58.88
62.58
63.84
63.19
60.91
57.34
53.04
48.76
45.22
42.76
41.31
40.36
39.30
37.69
35.41
32.71
30.00
27.69
25.92
24.45
22.79
20.38
16.85
12.20
6.83
1.40
-3.44
-7.30
-10.19
-12.52
-14.93
-18.04
-22.16
-27.19
-32.56
-37.51
-41.38
-43.86
-45.18
-46.06
-47.41
-50.11
-54.67
-61.06
-68.54
-75.64
-80.22
-79.95
-72.93
-58.52
-37.81
-13.50
10.82
31.88
47.66
57.83
63.39
65.85
66.44
65.72
63.76
60.54
56.33
51.74
47.47
44.00
41.41
39.38
37.50
35.49
33.39
31.51
30.23
29.75
29.92
30.29
30.17
28.92
26.15
21.90
16.54
10.65
4.83
-0.52
-5.23
-9.38
-13.20
-16.88
-20.56
-24.21
-27.72
-30.94
-33.75
-36.14
-38.21
-40.20
-42.45
-45.31
-49.08
-53.88
-59.44
-65.01
-69.30
-70.72
-67.79
-59.76
-46.89
-30.62
-13.08
3.46
17.28
27.54
34.32
38.23
40.08
40.52
39.97
38.71
36.95
34.97
32.99
31.13
29.39
27.70
26.02
24.44
23.15
22.36
22.10
22.10
21.83
20.71
18.37
14.82
10.53
6.13
2.15
-1.26
-4.36
-7.66
-11.64
-16.48
-21.95
-27.50
-32.51
-36.54
-39.50
-41.71
-43.78
-46.45
-50.42
-56.09
-63.21
-70.69
-76.56
-78.35
-73.88
-62.09
-43.64
-20.85
2.96
24.63
42.00
54.44
62.49
67.23
69.63
70.19
69.05
66.31
62.31
57.65
52.99
48.73
44.90
41.26
37.48
33.42
29.27
25.49
22.61
20.93
20.33
20.28
19.95
18.59
15.77
11.63
6.75
1.94
-2.13
-5.30
-7.92
-10.73
-14.46
-19.45
-25.49
-31.91
-37.86
-42.67
-46.11
-48.44
-50.32
-52.62
-56.19
-61.60
-68.89
-77.28
-85.06
-89.76
-88.76
-80.16
-63.64
-40.78
-14.74
10.70
32.29
48.24
58.38
63.78
65.95
66.14
65.00
62.80
59.66
55.93
52.15
48.82
46.16
43.93
41.61
38.72
35.15
31.26
27.72
25.14
23.72
23.12
22.61
21.46
19.23
15.98
12.18
8.44
5.23
2.66
0.49
-1.81
-4.76
-8.64
-13.39
-18.57
-23.50
-27.59
-30.53
-32.44
-33.90
-35.74
-38.76
-43.41
-49.61
-56.52
-62.68
-66.23
-65.41
-59.18
-47.57
-31.85
-14.16
3.08
17.90
29.18
36.76
41.15
43.13
43.34
42.20
39.94
36.77
33.00
29.02
25.25
22.00
19.41
17.47
16.07
15.04
14.23
13.41
12.31
10.64
8.24
5.12
1.58
-1.95
-5.09
-7.76
-10.19
-12.90
-16.37
-20.85
-26.20
-31.98
-37.59
-42.56
-46.63
-49.87
-52.58
-55.33
-58.81
-63.69
-70.33
-78.33
-86.24
-91.64
-91.73
-84.33
-68.88
-46.87
-21.53
3.22
24.06
39.21
48.71
53.86
56.41
57.74
58.56
58.91
58.61
57.46
55.47
52.76
49.57
46.12
42.70
39.59
37.08
35.27
34.02
32.85
31.13
28.26
23.93
18.32
12.05
5.97
0.95
-2.46
-4.19
-4.63
-4.56
-4.89
-6.40
-9.47
-14.03
-19.52
-25.11
-29.92
-33.41
-35.54
-36.93
-38.65
-41.81
-46.88
-53.14
-58.52
-60.00
-54.70
-40.99
-19.48
7.06
34.42
58.24
75.31
84.23
85.47
80.82
72.65
63.28
54.52
47.61
43.20
41.38
41.77
43.56
45.73
47.20
47.13
45.13
41.45
36.82
32.22
28.44
25.79
23.98
22.32
20.08
16.84
12.62
7.76
2.71
-2.23
-7.03
-11.85
-16.90
-22.25
-27.78
-33.17
-38.03
-42.09
-45.36
-48.16
-51.06
-54.73
-59.69
-66.03
-73.14
-79.65
-83.54
-82.60
-75.13
-60.65
-40.29
-16.62
7.11
27.88
43.83
54.51
60.60
63.18
63.11
60.78
56.23
49.69
41.85
33.92
27.21
22.64
20.39
19.85
19.97
19.79
18.76
16.95
14.75
12.63
10.74
8.82
6.38
2.92
-1.80
-7.54
-13.71
-19.58
-24.55
-28.43
-31.44
-34.10
-37.06
-40.84
-45.73
-51.76
-58.70
-65.97
-72.47
-76.57
-76.33
-70.06
-57.01
-37.90
-14.96
8.71
30.05
46.95
58.60
65.42
68.35
68.36
66.09
61.93
56.29
49.81
43.33
37.63
33.11
29.69
26.85
24.03
20.93
17.66
14.70
12.53
11.34
10.80
10.18
8.65
5.70
1.30
-4.07
-9.65
-14.81
-19.24
-23.07
-26.69
-30.48
-34.62
-38.98
-43.22
-46.94
-49.90
-52.10
-53.86
-55.71
-58.28
-62.09
-67.32
-73.55
-79.55
-83.38
-82.80
-75.99
-62.23
-42.43
-18.91
5.19
26.95
44.43
57.02
65.19
69.94
72.21
72.59
71.38
68.79
65.15
60.99
56.91
53.40
50.70
48.78
47.37
46.11
44.72
43.07
41.15
38.98
36.52
33.58
29.91
25.32
19.82
13.68
7.38
1.40
-3.93
-8.56
-12.70
-16.70
-20.93
-25.60
-30.72
-36.08
-41.33
-46.04
-49.83
-52.50
-54.11
-55.00
-55.73
-57.01
-59.45
-63.36
-68.59
-74.28
-78.95
-80.72
-77.79
-69.08
-54.69
-36.00
-15.31
4.86
22.46
36.40
46.54
53.36
57.53
59.59
59.86
58.59
56.11
52.90
49.45
46.19
43.27
40.63
38.11
35.62
33.19
31.04
29.38
28.25
27.43
26.48
24.84
22.11
18.21
13.43
8.32
3.44
-0.86
-4.62
-8.18
-12.00
-16.38
-21.29
-26.29
-30.80
-34.40
-37.04
-39.15
-41.45
-44.70
-49.34
-55.28
-61.84
-67.79
-71.50
-71.34
-66.07
-55.32
-39.82
-21.30
-2.03
15.77
30.55
41.63
49.08
53.39
55.14
54.82
52.86
49.74
45.99
42.11
38.47
35.23
32.31
29.60
26.98
24.43
22.03
19.89
18.06
16.47
14.83
12.74
9.79
5.71
0.62
-5.01
-10.44
-15.04
-18.56
-21.27
-23.85
-27.04
-31.25
-36.37
-41.80
-46.81
-50.85
-53.80
-56.04
-58.33
-61.49
-66.21
-72.69
-80.47
-88.23
-93.88
-94.94
-89.27
-75.87
-55.44
-30.36
-4.00
20.28
40.14
54.74
64.54
70.69
74.27
75.92
75.86
74.17
71.11
67.26
63.29
59.73
56.73
54.09
51.43
48.43
45.07
41.61
38.52
36.19
34.70
33.72
32.51
30.27
26.37
20.73
13.89
6.80
0.45
-4.51
-8.04
-10.70
-13.35
-16.75
-21.25
-26.68
-32.47
-37.92
-42.49
-46.03
-48.79
-51.33
-54.40
-58.65
-64.47
-71.74
-79.64
-86.56
-90.25
-88.38
-79.24
-62.55
-39.80
-13.99
11.26
32.78
48.76
58.98
64.44
66.58
66.59
65.12
62.46
58.80
54.50
50.07
45.92
42.24
38.89
35.67
32.46
29.39
26.74
24.76
23.50
22.69
21.88
20.63
18.62
15.81
12.33
8.43
4.29
-0.03
-4.56
-9.42
-14.62
-19.98
-25.11
-29.53
-32.91
-35.27
-37.10
-39.24
-42.65
-48.06
-55.68
-64.91
-74.20
-81.24
-83.38
-78.43
-65.45
-45.33
-20.71
4.79
27.66
45.55
57.72
64.82
68.11
68.76
67.45
64.47
60.09
54.81
49.48
44.90
41.55
39.39
37.95
36.63
35.07
33.33
31.77
30.76
30.35
30.14
29.35
27.20
23.28
17.76
11.42
5.19
-0.21
-4.63
-8.60
-12.95
-18.44
-25.32
-33.15
-41.05
-48.04
-53.51
-57.41
-60.26
-62.92
-66.36
-71.35
-78.24
-86.68
-95.35
-101.92
-103.52
-97.61
-83.08
-60.93
-34.22
-7.08
16.68
34.75
46.77
53.90
57.84
59.97
60.94
60.90
59.84
58.03
55.95
54.07
52.57
51.30
49.82
47.78
45.11
42.12
39.38
37.45
36.62
36.71
37.10
36.93
35.40
32.11
27.19
21.30
15.36
10.23
6.37
3.72
1.75
-0.36
-3.35
-7.63
-13.14
-19.41
-25.74
-31.53
-36.47
-40.69
-44.67
-49.07
-54.54
-61.51
-69.98
-79.35
-88.25
-94.54
-95.73
-89.70
-75.58
-54.32
-28.68
-2.41
20.90
38.90
50.94
57.85
61.15
62.27
62.11
61.05
59.25
56.95
54.51
52.29
50.43
48.80
47.05
44.90
42.34
39.64
37.32
35.75
34.95
34.42
33.38
31.04
26.98
21.38
14.94
8.56
2.94
-1.75
-5.88
-10.13
-15.11
-21.06
-27.64
-34.13
-39.75
-44.03
-47.04
-49.40
-52.13
-56.25
-62.44
-70.71
-80.20
-89.11
-94.99
-95.24
-87.93
-72.55
-50.44
-24.51
1.54
24.36
41.79
53.27
59.49
61.75
61.27
58.92
55.18
50.46
45.25
40.10
35.52
31.78
28.89
26.67
24.97
23.68
22.77
22.15
21.67
21.04
19.91
18.05
15.32
11.78
7.57
2.84
-2.31
-7.88
-13.86
-20.22
-26.79
-33.33
-39.54
-45.20
-50.29
-55.03
-59.88
-65.41
-72.23
-80.56
-89.98
-99.08
-105.52
-106.53
-99.77
-84.41
-61.56
-34.22
-6.29
18.63
38.27
52.05
60.76
65.79
68.37
69.25
68.71
66.88
63.96
60.34
56.40
52.43
48.47
44.46
40.40
36.48
33.10
30.74
29.64
29.69
30.28
30.53
29.57
26.88
22.48
16.96
11.18
6.01
1.95
-1.02
-3.46
-6.11
-9.60
-14.14
-19.39
-24.68
-29.37
-33.16
-36.24
-39.27
-43.06
-48.34
-55.50
-64.46
-74.49
-84.15
-91.29
-93.44
-88.49
-75.53
-55.38
-30.55
-4.57
19.18
38.41
52.37
61.63
67.38
70.73
72.34
72.41
70.99
68.23
64.50
60.32
56.18
52.38
48.97
45.88
43.00
40.29
37.86
35.79
34.06
32.49
30.69
28.27
25.02
20.98
16.47
11.85
7.33
2.86
-1.80
-6.91
-12.49
-18.27
-23.78
-28.60
-32.59
-36.03
-39.54
-43.86
-49.60
-56.91
-65.27
-73.38
-79.31
-80.88
-76.32
-64.94
-47.55
-26.39
-4.46
15.34
31.08
42.15
48.98
52.53
53.66
52.92
50.53
46.73
41.95
36.87
32.16
28.30
25.44
23.44
22.02
20.97
20.13
19.42
18.71
17.82
16.60
14.94
12.81
10.19
6.99
3.03
-1.87
-7.75
-14.40
-21.38
-28.10
-34.09
-39.11
-43.28
-46.99
-50.79
-55.25
-60.86
-67.92
-76.29
-85.20
-93.07
-97.61
-96.46
-87.91
-71.78
-49.65
-24.55
-0.02
21.03
37.05
47.98
54.82
58.85
61.09
62.08
62.01
61.00
59.28
57.21
55.06
52.95
50.81
48.46
45.77
42.82
39.88
37.36
35.56
34.53
33.95
33.22
31.64
28.71
24.38
19.04
13.42
8.29
4.06
0.67
-2.43
-6.06
-10.86
-17.03
-24.19
-31.57
-38.27
-43.64
-47.49
-50.13
-52.28
-54.86
-58.77
-64.64
-72.58
-81.83
-90.59
-96.21
-95.86
-87.54
-70.95
-47.89
-21.76
3.53
24.82
40.56
50.80
56.67
59.52
60.35
59.72
57.89
55.21
52.18
49.34
46.99
45.11
43.39
41.43
39.07
36.48
34.18
32.72
32.40
33.04
34.01
34.37
33.27
30.26
25.45
19.50
13.31
7.72
3.18
-0.36
-3.41
-6.62
-10.50
-15.21
-20.48
-25.73
-30.39
-34.12
-37.01
-39.52
-42.34
-46.20
-51.56
-58.38
-65.91
-72.59
-76.25
-74.69
-66.42
-51.35
-31.06
-8.50
12.93
30.41
42.51
49.32
51.98
51.91
50.24
47.53
44.02
39.93
35.69
31.82
28.77
26.63
25.22
24.20
23.35
22.67
22.29
22.25
22.33
22.09
21.05
18.88
15.58
11.40
6.64
1.52
-3.99
-9.97
-16.46
-23.33
-30.20
-36.64
-42.34
-47.26
-51.67
-56.11
-61.17
-67.45
-75.31
-84.70
-94.87
-104.10
-109.86
-109.40
-100.73
-83.60
-59.81
-32.87
-6.86
14.89
30.66
40.51
45.58
47.30
46.79
44.78
41.74
38.12
34.42
30.96
27.73
24.22
19.76
14.18
8.17
3.18
0.79
2.14
7.27
15.06
23.18
29.14
31.45
30.40
27.63
25.19
24.72
26.78
30.93
35.61
38.97
39.82
37.88
33.21
25.60
15.02
1.88
-12.50
-27.00
-41.17
-55.12
-69.24
-83.98
-99.40
-114.03
-124.81
-125.93
-112.95
-86.79
-53.98
-21.23
9.16
36.61
61.61
81.55
95.20
101.88
101.81
96.55
88.79
81.29
75.73
72.78
72.15
73.35
75.04
75.65
74.20
70.85
66.42
61.68
57.18
52.94
48.98
44.75
39.59
33.13
25.61
17.57
9.30
0.97
-7.36
-15.24
-22.28
-28.17
-32.77
-35.77
-36.70
-35.26
-31.41
-25.69
-18.84
-11.82
-5.36
0.11
4.91
9.81
15.27
21.17
25.23
25.39
20.99
13.28
3.81
-6.47
-17.53
-30.18
-44.34
-58.92
-72.16
-82.73
-88.07
-87.81
-82.94
-75.13
-66.02
-56.71
-47.89
-39.80
-32.58
-26.43
-22.00
-19.78
-19.90
-22.10
-25.80
-30.36
-35.07
-39.31
-42.70
-45.48
-48.13
-51.27
-55.37
-60.53
-66.42
-72.22
-76.88
-79.26
-78.47
-73.77
-64.62
-50.92
-33.23
-12.98
7.69
26.33
40.87
50.08
53.94
53.39
49.76
44.29
37.91
31.07
24.02
16.98
10.35
4.70
0.66
-1.30
-1.07
1.36
5.52
10.54
15.53
20.00
24.02
28.24
33.22
39.19
46.50
54.75
62.87
69.59
74.15
76.43
77.05
76.62
75.61
75.40
76.81
79.98
84.52
90.02
96.19
103.12
110.62
118.34
127.19
137.21
147.12
154.56
157.28
153.88
144.59
130.38
104.60
66.67
22.32
-19.06
-50.49
-69.36
-79.63
-84.71
-87.21
-89.01
-89.09
-86.91
-82.72
-77.46
-72.09
-67.34
-63.07
-59.14
-55.45
-50.93
-45.22
-38.85
-32.93
-28.45
-26.10
-25.68
-26.80
-29.06
-31.42
-33.27
-34.43
-35.06
-35.40
-36.09
-37.27
-38.82
-40.33
-41.06
-40.76
-39.70
-38.65
-38.50
-40.70
-45.68
-52.82
-60.72
-67.81
-73.29
-76.98
-79.32
-80.95
-83.46
-87.62
-93.10
-98.68
-102.82
-104.49
-102.97
-98.14
-84.30
-60.46
-30.50
-1.03
22.91
39.61
49.54
54.38
56.01
56.37
56.16
56.40
57.79
60.87
65.77
71.77
78.29
84.78
90.85
95.41
97.84
98.37
96.19
91.68
83.21
70.90
56.25
41.55
28.14
16.58
7.00
-0.49
-5.49
-7.86
-7.50
-5.07
-1.39
2.21
4.68
5.57
5.06
3.83
2.33
0.99
-0.24
-1.71
-3.86
-6.92
-10.78
-15.05
-19.17
-22.72
-25.21
-26.32
-25.79
-23.54
-19.72
-14.64
-8.83
-2.84
2.74
7.55
11.36
14.09
15.72
16.27
15.86
14.64
12.83
10.59
8.10
5.49
2.88
0.40
-1.85
-3.78
-5.39
-6.81
-8.27
-10.03
-12.29
-15.08
-18.25
-21.54
-24.64
-27.35
-29.62
-31.64
-33.69
-36.20
-39.51
-43.83
-49.04
-54.52
-59.12
-61.41
-60.00
-54.08
-43.76
-30.12
-14.90
0.04
13.21
23.79
31.57
36.77
39.78
40.95
40.63
39.18
36.95
34.27
31.42
28.50
25.53
22.50
19.47
16.59
14.12
12.28
11.15
10.57
10.16
9.41
7.93
5.62
2.64
-0.64
-3.89
-6.97
-10.02
-13.40
-17.51
-22.67
-28.87
-35.71
-42.33
-47.48
-49.71
-47.80
-41.19
-30.26
-16.33
-1.35
12.73
24.43
33.09
38.73
41.84
42.99
42.67
41.24
38.94
36.03
32.73
29.26
25.77
22.31
18.93
15.66
12.60
9.88
7.61
5.79
4.28
2.79
1.02
-1.23
-4.00
-7.13
-10.42
-13.71
-17.02
-20.58
-24.75
-29.88
-36.09
-43.09
-50.03
-55.59
-58.22
-56.58
-50.02
-38.86
-24.32
-8.17
7.73
21.94
33.60
42.40
48.38
51.73
52.73
51.71
49.14
45.57
41.51
37.36
33.26
29.16
24.91
20.46
15.89
11.49
7.57
4.34
1.77
-0.42
-2.66
-5.34
-8.67
-12.61
-16.89
-21.11
-24.88
-28.02
-30.65
-33.22
-36.44
-40.97
-47.10
-54.46
-61.80
-67.27
-68.84
-65.01
-55.39
-40.93
-23.64
-5.94
10.05
23.10
32.93
39.93
44.71
47.68
49.03
48.81
47.18
44.54
41.44
38.38
35.59
33.02
30.39
27.44
24.09
20.59
17.38
14.93
13.50
12.99
12.96
12.68
11.50
9.00
5.19
0.50
-4.45
-9.06
-13.00
-16.27
-19.22
-22.35
-26.18
-31.12
-37.25
-44.24
-51.13
-56.41
-58.29
-55.29
-46.75
-33.28
-16.59
0.97
17.23
30.78
41.13
48.50
53.37
56.08
56.82
55.70
53.02
49.28
45.06
40.81
36.67
32.54
28.35
24.19
20.42
17.51
15.80
15.27
15.54
16.00
16.10
15.50
14.15
12.27
10.12
7.89
5.65
3.31
0.73
-2.18
-5.43
-8.87
-12.24
-15.27
-17.82
-19.92
-21.91
-24.27
-27.53
-32.07
-37.88
-44.39
-50.42
-54.33
-54.40
-49.41
-39.18
-24.78
-8.32
7.70
21.10
30.69
36.32
38.67
38.69
37.18
34.59
31.16
27.09
22.70
18.44
14.71
11.78
9.70
8.33
7.43
6.78
6.27
5.83
5.51
5.33
5.24
5.09
4.63
3.54
1.61
-1.26
-4.97
-9.26
-13.78
-18.18
-22.15
-25.49
-28.17
-30.36
-32.41
-34.82
-38.05
-42.39
-47.71
-53.33
-58.01
-60.21
-58.49
-51.99
-40.84
-26.22
-10.05
5.56
18.89
29.02
35.82
39.73
41.33
41.12
39.40
36.42
32.48
28.02
23.50
19.35
15.79
12.88
10.52
8.64
7.17
6.07
5.29
4.70
4.13
3.43
2.50
1.32
-0.06
-1.65
-3.55
-5.91
-8.84
-12.35
-16.28
-20.32
-24.14
-27.48
-30.31
-32.81
-35.40
-38.59
-42.94
-48.78
-55.99
-63.85
-70.88
-75.19
-74.91
-68.84
-56.95
-40.43
-21.46
-2.45
14.52
28.20
38.20
44.78
48.48
49.91
49.61
48.09
45.77
43.06
40.22
37.39
34.62
31.92
29.32
26.94
24.93
23.42
22.46
21.98
21.78
21.53
20.89
19.61
17.61
14.99
12.03
8.98
5.96
2.88
-0.52
-4.49
-9.07
-14.02
-18.95
-23.43
-27.23
-30.40
-33.32
-36.54
-40.67
-46.12
-52.87
-60.20
-66.71
-70.46
-69.56
-62.83
-50.30
-33.36
-14.32
4.29
20.43
33.01
41.85
47.38
50.21
50.90
49.85
47.39
43.93
39.91
35.79
31.92
28.49
25.53
23.05
21.06
19.66
18.88
18.71
18.92
19.20
19.17
18.56
17.30
15.46
13.23
10.72
7.96
4.90
1.46
-2.39
-6.55
-10.86
-15.09
-19.06
-22.65
-25.86
-28.86
-31.96
-35.57
-40.03
-45.41
-51.26
-56.48
-59.46
-58.57
-52.69
-41.71
-26.69
-9.58
7.38
22.28
33.95
42.04
46.82
48.75
48.30
45.84
41.74
36.50
30.77
25.27
20.59
17.03
14.52
12.75
11.32
9.94
8.51
7.15
6.00
5.14
4.45
3.65
2.36
0.28
-2.74
-6.60
-11.00
-15.53
-19.83
-23.70
-27.16
-30.44
-33.85
-37.76
-42.49
-48.20
-54.82
-61.79
-68.01
-71.90
-71.70
-66.10
-54.79
-38.72
-19.91
-0.90
16.08
29.66
39.50
46.08
50.19
52.54
53.53
53.32
52.00
49.74
46.82
43.56
40.25
37.03
33.99
31.18
28.70
26.74
25.46
24.94
25.07
25.57
25.98
25.83
24.72
22.43
18.92
14.32
8.84
2.79
-3.53
-9.79
-15.74
-21.21
-26.22
-30.87
-35.44
-40.21
-45.46
-51.23
-57.22
-62.60
-66.10
-66.23
-61.74
-52.19
-38.18
-21.37
-3.97
11.90
24.78
34.08
40.00
43.19
44.36
44.11
42.84
40.86
38.43
35.83
33.30
30.94
28.77
26.67
24.53
22.33
20.22
18.43
17.20
16.65
16.65
16.91
17.06
16.80
15.96
14.42
12.12
8.96
4.89
-0.04
-5.60
-11.47
-17.26
-22.71
-27.74
-32.44
-36.97
-41.55
-46.36
-51.47
-56.72
-61.53
-64.90
-65.49
-62.03
-53.86
-41.28
-25.67
-9.09
6.31
18.94
28.10
33.92
37.05
38.16
37.79
36.23
33.68
30.47
27.02
23.78
21.07
18.98
17.36
15.95
14.53
13.07
11.79
11.01
11.03
11.94
13.51
15.21
16.30
16.09
14.08
10.19
4.78
-1.47
-7.73
-13.35
-18.03
-21.87
-25.32
-29.00
-33.51
-39.30
-46.47
-54.65
-62.87
-69.54
-72.72
-70.68
-62.56
-48.82
-31.25
-12.49
4.84
18.90
29.03
35.61
39.60
41.93
43.19
43.54
42.93
41.33
38.88
35.90
32.82
30.02
27.77
26.12
24.98
24.19
23.57
23.01
22.47
21.94
21.41
20.78
19.89
18.53
16.50
13.72
10.26
6.36
2.30
-1.66
-5.41
-8.98
-12.54
-16.33
-20.57
-25.47
-31.15
-37.56
-44.22
-50.17
-53.95
-53.98
-49.15
-39.29
-25.44
-9.58
6.05
19.63
30.18
37.61
42.34
44.89
45.66
44.91
42.93
40.17
37.16
34.36
31.97
29.92
27.95
25.86
23.62
21.45
19.68
18.56
18.13
18.15
18.23
17.96
17.07
15.50
13.35
10.81
7.95
4.76
1.13
-3.05
-7.70
-12.60
-17.41
-21.79
-25.57
-28.77
-31.67
-34.68
-38.24
-42.69
-48.04
-53.81
-58.91
-61.82
-60.89
-55.02
-44.06
-29.06
-12.03
4.69
19.09
29.98
37.12
41.00
42.40
42.00
40.25
37.40
33.65
29.34
24.93
20.90
17.61
15.15
13.40
12.12
11.11
10.31
9.81
9.76
10.20
10.98
11.79
12.23
11.93
10.57
8.04
4.36
-0.23
-5.34
-10.48
-15.20
-19.24
-22.63
-25.65
-28.72
-32.28
-36.59
-41.67
-47.23
-52.58
-56.62
-58.00
-55.44
-48.20
-36.44
-21.36
-4.90
10.79
24.02
33.90
40.35
43.78
44.72
43.59
40.71
36.38
31.09
25.49
20.29
16.02
12.93
10.89
9.55
8.47
7.32
6.03
4.71
3.59
2.77
2.17
1.45
0.15
-2.11
-5.49
-9.82
-14.70
-19.63
-24.19
-28.17
-31.59
-34.64
-37.69
-41.15
-45.48
-51.01
-57.73
-64.99
-71.34
-74.73
-73.00
-64.72
-49.86
-30.01
-7.96
13.15
30.82
43.76
51.96
56.24
57.66
57.11
55.19
52.33
48.88
45.19
41.47
37.76
33.96
29.97
25.83
21.78
18.18
15.32
13.24
11.71
10.34
8.77
6.79
4.39
1.74
-1.03
-3.86
-6.84
-10.10
-13.77
-17.85
-22.17
-26.45
-30.38
-33.72
-36.45
-38.82
-41.32
-44.65
-49.42
-55.89
-63.61
-71.24
-76.65
-77.45
-71.74
-58.93
-40.07
-17.70
4.97
25.00
40.54
51.12
57.34
60.32
61.13
60.47
58.71
56.07
52.80
49.21
45.59
42.07
38.64
35.13
31.44
27.64
24.02
21.00
18.92
17.82
17.32
16.78
15.47
12.95
9.22
4.71
0.08
-4.11
-7.65
-10.72
-13.74
-17.12
-21.03
-25.29
-29.46
-33.06
-35.80
-37.69
-39.09
-40.64
-43.04
-46.87
-52.31
-58.90
-65.41
-69.98
-70.50
-65.30
-53.76
-36.74
-16.36
4.51
23.15
37.72
47.61
53.22
55.56
55.63
54.10
51.31
47.44
42.75
37.70
32.87
28.78
25.69
23.55
22.08
20.98
20.03
19.19
18.52
18.07
17.74
17.32
16.47
14.90
12.43
8.99
4.67
-0.35
-5.76
-11.21
-16.38
-21.01
-25.07
-28.68
-32.19
-36.03
-40.63
-46.34
-53.20
-60.81
-68.14
-73.55
-75.09
-71.11
-60.86
-44.94
-25.32
-4.74
14.04
29.06
39.54
45.75
48.57
48.95
47.53
44.66
40.62
35.81
30.86
26.49
23.19
21.11
19.97
19.24
18.40
17.18
15.62
13.98
12.55
11.48
10.67
9.76
8.26
5.69
1.78
-3.39
-9.43
-15.68
-21.50
-26.48
-30.59
-34.16
-37.73
-41.87
-47.01
-53.40
-60.88
-68.75
-75.60
-79.41
-77.99
-69.82
-54.72
-34.27
-11.35
10.71
29.22
42.89
51.81
56.97
59.53
60.31
59.73
58.00
55.42
52.44
49.49
46.78
44.23
41.56
38.51
35.06
31.43
27.98
25.02
22.58
20.51
18.51
16.33
13.88
11.18
8.36
5.43
2.29
-1.25
-5.39
-10.16
-15.40
-20.76
-25.89
-30.51
-34.58
-38.29
-42.04
-46.36
-51.73
-58.43
-66.17
-73.89
-79.69
-81.23
-76.41
-64.29
-45.60
-22.69
1.16
22.77
39.96
51.96
59.24
62.91
64.17
63.90
62.58
60.48
57.79
54.74
51.57
48.43
45.34
42.18
38.84
35.34
31.90
28.94
26.83
25.69
25.26
24.93
24.02
22.06
19.01
15.20
11.18
7.35
3.83
0.39
-3.36
-7.72
-12.72
-18.07
-23.30
-27.94
-31.70
-34.61
-37.03
-39.55
-42.80
-47.26
-53.03
-59.63
-65.90
-70.16
-70.52
-65.53
-54.67
-38.72
-19.62
0.08
17.94
32.30
42.48
48.71
51.69
52.14
50.62
47.56
43.35
38.54
33.74
29.50
26.09
23.49
21.40
19.45
17.36
15.04
12.62
10.30
8.28
6.65
5.31
3.98
2.28
-0.17
-3.59
-7.97
-13.05
-18.37
-23.49
-28.08
-32.01
-35.40
-38.52
-41.79
-45.63
-50.36
-56.03
-62.24
-68.02
-71.89
-72.15
-67.37
-56.91
-41.28
-22.16
-1.97
16.75
32.09
43.08
49.73
52.69
52.81
50.85
47.40
42.93
37.97
33.13
28.98
25.96
24.15
23.37
23.15
22.99
22.48
21.45
19.94
18.20
16.44
14.72
12.84
10.39
6.94
2.26
-3.55
-10.07
-16.68
-22.78
-28.05
-32.48
-36.40
-40.37
-44.95
-50.58
-57.37
-64.95
-72.42
-78.28
-80.72
-78.00
-69.03
-53.84
-33.81
-11.34
10.73
29.93
44.77
54.91
60.93
63.84
64.59
63.82
61.86
58.92
55.25
51.14
46.93
42.83
38.94
35.24
31.67
28.24
24.99
22.02
19.35
16.93
14.59
12.14
9.38
6.21
2.63
-1.30
-5.45
-9.72
-14.11
-18.66
-23.41
-28.31
-33.16
-37.66
-41.55
-44.75
-47.51
-50.38
-54.06
-59.13
-65.63
-72.82
-79.08
-82.21
-80.00
-71.06
-55.41
-34.66
-11.58
10.74
29.81
44.31
54.19
60.17
63.21
64.07
63.18
60.81
57.30
53.08
48.73
44.68
41.19
38.21
35.54
32.95
30.34
27.79
25.53
23.74
22.46
21.48
20.43
18.91
16.67
13.68
10.08
6.06
1.74
-2.85
-7.71
-12.81
-17.99
-23.01
-27.64
-31.77
-35.47
-39.04
-42.92
-47.55
-53.17
-59.52
-65.61
-69.82
-70.21
-65.19
-54.23
-38.18
-19.12
0.26
17.55
31.22
40.89
46.97
50.22
51.26
50.44
48.02
44.38
40.17
36.15
33.00
30.96
29.84
29.08
28.10
26.50
24.26
21.66
19.07
16.76
14.78
12.90
10.71
7.80
3.88
-1.06
-6.73
-12.59
-18.06
-22.69
-26.38
-29.38
-32.23
-35.53
-39.80
-45.23
-51.62
-58.28
-63.98
-67.13
-66.10
-59.71
-47.70
-31.05
-11.80
7.51
24.54
37.77
46.77
51.91
54.04
54.02
52.46
49.76
46.17
41.95
37.44
32.99
28.92
25.45
22.67
20.52
18.87
17.50
16.13
14.50
12.40
9.74
6.57
3.07
-0.49
-3.89
-7.06
-10.11
-13.31
-16.97
-21.26
-26.14
-31.28
-36.23
-40.54
-44.01
-46.80
-49.43
-52.59
-56.93
-62.68
-69.48
-76.20
-81.03
-81.92
-77.14
-65.92
-48.83
-27.71
-5.23
15.90
33.65
47.07
56.23
61.85
64.82
65.85
65.39
63.70
61.05
57.76
54.21
50.72
47.51
44.58
41.86
39.25
36.73
34.34
32.09
29.86
27.33
24.07
19.73
14.24
7.88
1.21
-5.09
-10.55
-15.09
-18.97
-22.70
-26.68
-31.06
-35.63
-39.93
-43.50
-46.15
-48.07
-49.80
-52.07
-55.55
-60.50
-66.57
-72.61
-76.74
-76.79
-70.91
-58.28
-39.64
-17.21
5.89
26.59
42.76
53.67
59.82
62.38
62.50
60.90
57.90
53.71
48.67
43.37
38.50
34.59
31.77
29.83
28.30
26.75
24.96
22.95
20.92
19.11
17.57
16.16
14.47
12.02
8.40
3.50
-2.47
-8.96
-15.32
-21.02
-25.83
-29.87
-33.51
-37.23
-41.44
-46.46
-52.48
-59.47
-66.99
-74.04
-78.95
-79.73
-74.62
-62.90
-45.30
-24.02
-2.08
17.60
33.05
43.61
49.77
52.57
53.04
51.83
49.28
45.60
41.16
36.51
32.29
29.00
26.84
25.69
25.19
24.95
24.67
24.25
23.72
23.10
22.34
21.27
19.62
17.17
13.75
9.31
3.92
-2.20
-8.74
-15.30
-21.49
-27.02
-31.77
-35.91
-39.80
-43.94
-48.87
-55.01
-62.50
-70.90
-79.00
-84.88
-86.25
-81.17
-68.81
-49.98
-27.03
-3.13
18.65
36.27
49.01
57.32
62.20
64.64
65.29
64.52
62.57
59.74
56.42
52.92
49.42
45.89
42.25
38.48
34.73
31.34
28.65
26.83
25.72
24.86
23.62
21.46
18.16
13.89
9.14
4.47
0.27
-3.42
-6.96
-10.85
-15.49
-20.95
-26.87
-32.62
-37.62
-41.61
-44.80
-47.84
-51.57
-56.69
-63.45
-71.32
-78.93
-84.18
-84.70
-78.56
-65.08
-45.22
-21.49
2.78
24.47
41.52
53.34
60.51
64.19
65.47
65.05
63.30
60.52
57.03
53.31
49.76
46.60
43.79
41.14
38.51
35.85
33.32
31.14
29.45
28.17
26.98
25.43
23.10
19.82
15.70
11.10
6.38
1.80
-2.66
-7.23
-12.18
-17.64
-23.48
-29.33
-34.73
-39.32
-43.01
-46.00
-48.78
-51.98
-56.16
-61.59
-67.89
-73.92
-77.79
-77.31
-70.73
-57.45
-38.46
-16.21
6.18
25.83
40.90
50.89
56.30
58.15
57.33
54.49
50.02
44.35
38.08
31.97
26.71
22.72
20.05
18.37
17.19
15.97
14.33
12.10
9.35
6.31
3.23
0.22
-2.80
-6.14
-10.18
-15.21
-21.31
-28.21
-35.42
-42.37
-48.57
-53.90
-58.49
-62.80
-67.49
-73.35
-81.01
-90.70
-101.78
-112.42
-119.84
-120.67
-112.04
-92.81
-64.07
-29.05
7.84
42.28
71.10
92.32
105.45
110.93
109.59
102.71
91.93
79.08
66.08
54.44
44.35
35.40
26.79
17.64
7.72
-2.63
-12.85
-22.38
-30.79
-38.40
-44.69
-48.15
-46.70
-40.10
-29.51
-18.31
-10.68
-5.45
-2.74
-1.83
-0.95
-1.19
-2.28
-3.87
-5.75
-7.42
-8.11
-7.63
-5.71
-2.32
2.14
7.52
13.76
20.95
29.41
39.43
50.38
61.49
71.82
80.37
86.68
90.63
92.50
92.87
92.40
91.23
89.34
86.51
82.31
76.61
69.46
61.30
52.88
45.06
38.36
33.00
28.86
25.51
22.54
19.60
16.50
13.19
9.79
6.41
3.28
0.67
-1.14
-1.95
-1.75
-0.73
0.67
1.62
0.79
-3.42
-12.44
-26.86
-45.81
-66.84
-86.34
-100.44
-106.12
-102.28
-89.77
-71.04
-49.29
-27.62
-8.35
7.32
19.26
28.04
34.04
37.44
38.00
35.32
29.16
19.78
8.02
-4.77
-17.12
-28.20
-37.47
-44.64
-49.57
-52.35
-53.48
-54.02
-55.42
-56.57
-56.94
-56.44
-55.65
-55.51
-56.82
-59.81
-63.86
-67.37
-67.90
-63.55
-53.44
-38.37
-20.79
-4.00
9.09
17.07
20.44
21.18
21.20
21.74
22.97
24.38
25.38
25.73
25.45
24.59
23.47
22.03
20.77
21.12
24.97
33.62
46.67
61.43
72.97
77.41
73.10
61.41
45.86
30.19
16.69
5.66
-3.97
-13.16
-21.76
-28.65
-32.56
-32.90
-30.37
-26.70
-23.75
-22.63
-23.24
-24.38
-24.65
-23.19
-20.15
-16.57
-13.77
-12.57
-12.80
-13.32
-12.57
-9.24
-3.11
4.80
12.70
18.68
21.56
21.19
18.49
14.91
11.84
10.07
9.70
10.33
11.27
11.71
10.70
7.21
0.45
-9.50
-21.36
-32.59
-40.27
-42.28
-38.33
-30.07
-20.25
-11.52
-5.33
-1.86
-0.39
-0.22
-1.10
-3.16
-6.43
-10.47
-14.41
-17.37
-18.98
-19.44
-19.29
-18.96
-18.37
-16.93
-13.86
-8.55
-0.83
8.52
18.27
27.12
34.20
39.22
42.38
44.14
44.95
45.04
44.47
43.27
41.48
39.21
36.62
33.84
30.96
28.02
25.06
22.09
19.22
16.55
14.13
11.87
9.59
7.07
4.23
1.20
-1.66
-3.95
-5.39
-6.09
-6.53
-7.43
-9.51
-13.17
-18.32
-24.36
-30.23
-34.78
-36.94
-36.09
-32.17
-25.64
-17.33
-8.20
0.82
8.98
15.71
20.64
23.60
24.66
24.16
22.61
20.60
18.59
16.81
15.25
13.77
12.25
10.69
9.16
7.78
6.54
5.30
3.86
2.05
-0.20
-2.86
-5.83
-9.06
-12.54
-16.36
-20.66
-25.59
-31.24
-37.49
-44.00
-50.10
-54.91
-57.45
-56.92
-52.98
-45.84
-36.27
-25.34
-14.12
-3.39
6.48
15.39
23.37
30.36
36.06
40.00
41.68
40.78
37.31
31.64
24.48
16.66
9.02
2.23
-3.32
-7.55
-10.68
-13.09
-15.21
-17.38
-19.80
-22.47
-25.24
-27.91
-30.34
-32.51
-34.57
-36.76
-39.34
-42.46
-46.10
-49.93
-53.29
-55.31
-54.99
-51.58
-44.78
-34.98
-23.12
-10.43
2.00
13.55
24.08
33.71
42.53
50.32
56.61
60.90
62.95
62.99
61.62
59.58
57.39
55.17
52.72
49.73
46.02
41.57
36.37
30.35
23.28
15.02
5.79
-3.70
-12.35
-19.07
-23.27
-25.08
-25.29
-24.98
-25.06
-25.94
-27.50
-29.25
-30.53
-30.76
-29.54
-26.72
-22.50
-17.28
-11.63
-6.12
-1.18
2.98
6.30
8.92
11.02
12.79
14.28
