1660926823.00
64.000000
-0.00
-0.00
-0.00
-0.00
-0.00
-0.00
-0.00
-0.00
-0.00
-0.00
0.00
0.01
0.01
-0.00
-0.03
-0.05
-0.05
0.00
0.13
0.36
0.66
1.01
1.37
1.72
2.06
2.40
2.79
3.25
3.81
4.44
5.09
5.73
6.33
6.91
7.54
8.28
9.14
10.21
11.38
12.55
13.61
14.55
15.44
16.46
17.82
19.64
22.10
24.99
28.03
30.97
33.69
36.31
39.17
42.68
47.10
52.75
59.22
66.01
72.62
78.83
84.83
91.17
98.49
107.15
117.51
128.93
140.64
151.92
162.52
172.76
183.39
195.63
207.85
221.90
238.10
256.54
276.33
295.08
308.99
313.65
305.50
283.12
248.21
204.12
155.12
104.85
55.55
8.15
-37.12
-80.16
-120.77
-158.73
-194.76
-230.20
-266.47
-304.11
-341.80
-376.19
-402.66
-416.99
-416.90
-403.19
-379.46
-350.66
-321.25
-293.89
-269.13
-246.25
-224.38
-203.16
-183.03
-164.62
-148.15
-133.25
-119.16
-105.22
-91.22
-77.51
-64.74
-53.52
-44.11
-36.29
-29.49
-23.09
-16.65
-10.11
-3.77
1.93
6.62
10.15
12.69
14.63
16.36
18.18
20.16
22.15
23.96
25.38
26.32
26.77
26.82
26.57
26.18
25.75
25.36
25.02
24.67
24.21
23.59
22.76
21.78
20.76
19.77
18.87
18.03
17.20
16.34
15.48
14.68
14.04
13.62
13.44
13.45
13.55
13.64
13.63
13.51
13.32
13.12
12.95
12.82
12.72
12.60
12.45
12.27
12.10
11.93
11.78
11.58
11.31
10.93
10.46
9.94
9.43
8.94
8.47
8.00
7.53
7.05
6.61
6.22
5.89
5.59
5.30
4.99
4.68
4.40
4.18
4.02
3.89
3.75
3.60
3.42
3.24
3.03
2.77
2.40
1.91
1.31
0.68
0.08
-0.46
-0.98
-1.52
-2.10
-2.68
-3.17
-3.53
-3.78
-4.02
-4.37
-4.92
-5.66
-6.49
-7.28
-7.90
-8.29
-8.45
-8.42
-8.27
-8.05
-7.81
-7.58
-7.35
-7.12
-6.86
-6.56
-6.20
-5.75
-5.25
-4.70
-4.16
-3.68
-3.30
-3.04
-2.87
-2.76
-2.64
-2.47
-2.20
-1.83
-1.35
-0.76
-0.10
0.60
1.26
1.81
2.18
2.31
2.23
1.98
1.66
1.35
1.12
0.96
0.85
0.81
0.82
0.94
1.18
1.54
1.96
2.36
2.66
2.83
2.88
2.85
2.78
2.72
2.68
2.67
2.70
2.76
2.84
2.91
2.95
2.93
2.87
2.79
2.71
2.68
2.71
2.80
2.95
3.14
3.36
3.59
3.80
3.96
4.05
4.06
3.96
3.72
3.38
2.98
2.63
2.42
2.39
2.51
2.64
2.70
2.59
2.33
1.94
1.48
0.99
0.49
0.02
-0.34
-0.54
-0.54
-0.37
-0.14
0.05
0.14
0.15
0.15
0.27
0.57
1.08
1.73
2.42
3.02
3.47
3.72
3.78
3.67
3.41
3.03
2.66
2.46
2.64
3.28
4.30
5.50
6.58
7.35
7.77
7.97
8.10
8.27
8.52
8.78
9.01
9.19
9.33
9.43
9.46
9.29
8.83
8.03
6.95
5.72
4.53
3.50
2.67
1.98
1.34
0.68
0.01
-0.61
-1.09
-1.40
-1.58
-1.75
-1.99
-2.35
-2.74
-3.00
-3.00
-2.72
-2.25
-1.79
-1.55
-1.63
-1.98
-2.41
-2.69
-2.63
-2.23
-1.60
-0.96
-0.52
-0.37
-0.48
-0.74
-0.99
-1.15
-1.19
-1.16
-1.12
-1.10
-1.10
-1.08
-1.01
-0.91
-0.81
-0.72
-0.66
-0.60
-0.52
-0.40
-0.22
-0.02
0.15
0.28
0.35
0.38
0.40
0.41
0.39
0.30
0.10
-0.20
-0.54
-0.82
-0.95
-0.89
-0.68
-0.40
-0.15
0.00
0.02
-0.06
-0.20
-0.36
-0.47
-0.50
-0.44
-0.32
-0.23
-0.21
-0.29
-0.40
-0.49
-0.47
-0.36
-0.19
-0.04
0.04
0.07
0.07
0.07
0.08
0.08
0.02
-0.10
-0.25
-0.38
-0.41
-0.33
-0.12
0.15
0.42
0.61
0.68
0.64
0.54
0.48
0.51
0.64
0.81
0.99
1.12
1.22
1.31
1.42
1.53
1.58
1.53
1.37
1.15
1.00
1.01
1.21
1.57
1.97
2.29
2.44
2.37
2.09
1.62
1.05
0.47
-0.03
-0.35
-0.45
-0.36
-0.15
0.08
0.26
0.33
0.31
0.20
0.06
-0.10
-0.21
-0.21
-0.08
0.17
0.45
0.64
0.71
0.63
0.50
0.37
0.29
0.22
0.12
-0.05
-0.24
-0.35
-0.29
-0.04
0.28
0.55
0.63
0.50
0.21
-0.11
-0.35
-0.48
-0.52
-0.53
-0.56
-0.61
-0.63
-0.53
-0.30
0.02
0.33
0.53
0.58
0.48
0.30
0.10
-0.11
-0.33
-0.56
-0.75
-0.86
-0.79
-0.55
-0.18
0.21
0.47
0.55
0.42
0.17
-0.13
-0.37
-0.51
-0.53
-0.45
-0.30
-0.13
-0.02
0.01
-0.06
-0.21
-0.36
-0.42
-0.30
-0.02
0.37
0.73
0.94
0.94
0.77
0.51
0.30
0.21
0.25
0.36
0.48
0.54
0.56
0.60
0.69
0.83
0.96
0.96
0.78
0.44
0.08
-0.14
-0.13
0.07
0.29
0.30
-0.04
-0.76
-1.75
-2.82
-3.78
-4.54
-5.12
-5.59
-6.04
-6.54
-7.09
-7.65
-8.17
-8.64
-9.07
-9.52
-10.07
-10.80
-11.76
-13.01
-14.53
-16.31
-18.21
-20.04
-21.57
-22.62
-23.22
-23.62
-24.30
-25.71
-28.11
-31.41
-35.26
-39.21
-43.03
-46.78
-50.75
-55.33
-60.63
-66.41
-72.14
-77.25
-81.49
-85.13
-88.97
-94.01
-101.10
-110.46
-121.45
-132.65
-142.40
-149.30
-152.60
-152.36
-149.18
-143.93
-137.31
-129.48
-119.83
-106.99
-89.17
-64.81
-33.36
4.14
44.96
85.19
120.76
148.47
166.83
176.21
178.38
175.79
170.76
164.96
159.24
153.83
148.64
143.73
139.37
136.00
133.90
133.04
133.03
133.41
133.94
134.88
136.90
140.81
147.05
155.40
164.91
174.20
182.00
187.65
191.38
194.15
197.11
201.02
206.01
211.67
217.35
222.31
225.69
226.12
221.74
210.44
190.61
161.99
125.94
84.90
41.32
-3.31
-48.53
-94.01
-138.36
-178.50
-210.28
-230.15
-236.86
-232.23
-220.36
-205.89
-192.13
-180.24
-169.57
-158.98
-147.92
-136.82
-126.70
-118.30
-111.51
-105.48
-99.10
-91.65
-83.13
-74.26
-66.05
-59.28
-54.18
-50.39
-47.17
-43.76
-39.68
-34.90
-29.83
-25.02
-20.98
-17.90
-15.66
-13.88
-12.14
-10.18
-7.98
-5.77
-3.87
-2.50
-1.73
-1.45
-1.43
-1.47
-1.46
-1.40
-1.35
-1.39
-1.51
-1.67
-1.76
-1.67
-1.33
-0.80
-0.23
0.18
0.26
-0.08
-0.74
-1.53
-2.19
-2.52
-2.44
-2.02
-1.46
-1.02
-0.99
-1.54
-2.73
-4.43
-6.31
-7.92
-8.81
-8.63
-7.30
-5.03
-2.26
0.52
2.83
4.41
5.19
5.24
4.78
4.01
3.13
2.33
1.71
1.37
1.30
1.45
1.71
1.94
2.05
2.00
1.82
1.59
1.42
1.37
1.43
1.53
1.56
1.46
1.24
0.96
0.72
0.60
0.60
0.71
0.84
0.96
1.02
1.02
0.94
0.73
0.37
-0.18
-0.87
-1.63
-2.31
-2.78
-2.98
-2.94
-2.74
-2.52
-2.36
-2.27
-2.18
-1.97
-1.54
-0.89
-0.09
0.69
1.25
1.43
1.20
0.64
-0.08
-0.76
-1.23
-1.44
-1.39
-1.19
-0.91
-0.60
-0.27
0.07
0.45
0.85
1.23
1.55
1.78
1.89
1.89
1.75
1.43
0.89
0.09
-0.88
-1.84
-2.55
-2.82
-2.61
-2.05
-1.36
-0.76
-0.37
-0.22
-0.22
-0.28
-0.33
-0.36
-0.40
-0.46
-0.55
-0.67
-0.77
-0.78
-0.66
-0.39
-0.00
0.41
0.74
0.89
0.81
0.51
0.05
-0.46
-0.83
-0.87
-0.43
0.51
1.80
3.18
4.33
5.04
5.21
4.91
4.29
3.51
2.69
1.90
1.22
0.69
0.37
0.23
0.22
0.23
0.19
0.02
-0.29
-0.72
-1.26
-1.84
-2.37
-2.73
-2.85
-2.71
-2.38
-1.99
-1.68
-1.51
-1.47
-1.50
-1.50
-1.40
-1.19
-0.85
-0.39
0.17
0.79
1.38
1.80
1.88
1.57
0.92
0.09
-0.66
-1.12
-1.17
-0.87
-0.37
0.16
0.60
0.92
1.14
1.29
1.35
1.24
0.90
0.35
-0.29
-0.82
-1.08
-0.98
-0.59
-0.08
0.34
0.53
0.49
0.29
0.06
-0.08
-0.11
-0.03
0.10
0.24
0.39
0.56
0.77
1.01
1.22
1.36
1.36
1.22
0.97
0.66
0.37
0.11
-0.09
-0.22
-0.29
-0.26
-0.16
-0.05
-0.01
-0.12
-0.43
-0.89
-1.40
-1.85
-2.15
-2.31
-2.34
-2.30
-2.20
-2.03
-1.81
-1.58
-1.37
-1.25
-1.17
-1.09
-0.91
-0.56
-0.06
0.54
1.13
1.61
1.91
1.99
1.80
1.32
0.55
-0.42
-1.45
-2.30
-2.76
-2.66
-2.02
-1.00
0.12
1.08
1.70
1.95
1.92
1.73
1.51
1.32
1.20
1.20
1.36
1.70
2.19
2.72
3.12
3.28
3.15
2.81
2.38
2.00
1.77
1.69
1.69
1.69
1.56
1.26
0.78
0.20
-0.37
-0.82
-1.06
-1.10
-1.06
-1.03
-1.10
-1.29
-1.52
-1.70
-1.77
-1.73
-1.65
-1.62
-1.69
-1.84
-2.03
-2.23
-2.44
-2.66
-2.92
-3.15
-3.31
-3.31
-3.17
-2.91
-2.58
-2.20
-1.76
-1.22
-0.56
0.17
0.86
1.44
1.83
2.04
2.10
2.00
1.73
1.26
0.62
-0.07
-0.61
-0.81
-0.52
0.23
1.25
2.24
2.89
2.99
2.52
1.63
0.59
-0.34
-1.01
-1.35
-1.39
-1.17
-0.73
-0.08
0.70
1.50
2.16
2.58
2.70
2.59
2.36
2.18
2.13
2.23
2.41
2.59
2.65
2.55
2.28
1.85
1.30
0.64
-0.09
-0.86
-1.59
-2.19
-2.55
-2.64
-2.51
-2.32
-2.20
-2.23
-2.38
-2.54
-2.58
-2.43
-2.14
-1.80
-1.56
-1.50
-1.62
-1.84
-2.02
-2.07
-1.94
-1.66
-1.28
-0.89
-0.53
-0.24
0.03
0.32
0.71
1.25
1.93
2.64
3.24
3.56
3.47
2.99
2.23
1.41
0.71
0.27
0.10
0.13
0.25
0.37
0.42
0.38
0.23
-0.00
-0.27
-0.53
-0.68
-0.67
-0.48
-0.13
0.34
0.86
1.38
1.84
2.20
2.39
2.41
2.26
2.00
1.69
1.42
1.24
1.15
1.10
1.04
0.91
0.69
0.41
0.13
-0.09
-0.21
-0.23
-0.20
-0.24
-0.42
-0.80
-1.36
-2.00
-2.59
-2.97
-3.01
-2.69
-2.07
-1.34
-0.70
-0.35
-0.33
-0.57
-0.87
-1.03
-0.98
-0.74
-0.47
-0.33
-0.42
-0.68
-0.99
-1.16
-1.08
-0.76
-0.32
0.06
0.24
0.17
-0.08
-0.38
-0.62
-0.70
-0.63
-0.42
-0.11
0.27
0.67
1.00
1.16
1.06
0.67
0.09
-0.51
-0.95
-1.10
-0.95
-0.58
-0.12
0.29
0.56
0.66
0.61
0.46
0.28
0.12
-0.02
-0.17
-0.37
-0.61
-0.84
-0.99
-1.01
-0.94
-0.90
-1.03
-1.41
-2.02
-2.78
-3.55
-4.23
-4.80
-5.25
-5.63
-5.96
-6.29
-6.68
-7.23
-7.99
-8.94
-10.00
-11.00
-11.81
-12.39
-12.86
-13.40
-14.20
-15.31
-16.62
-17.90
-18.98
-19.85
-20.74
-22.06
-24.18
-27.26
-31.12
-35.31
-39.27
-42.60
-45.25
-47.57
-50.22
-53.84
-58.75
-64.71
-71.02
-76.72
-81.07
-83.92
-85.81
-87.67
-90.39
-94.39
-99.47
-105.09
-110.79
-116.39
-121.86
-126.90
-130.77
-132.55
-131.56
-127.68
-120.98
-111.05
-96.33
-74.37
-43.14
-2.80
43.28
88.86
126.83
151.79
162.13
160.45
152.33
144.04
140.25
142.79
150.59
160.64
169.46
174.48
174.82
171.21
165.31
158.85
152.88
147.59
142.62
137.68
132.84
128.54
125.13
122.51
120.10
117.09
112.90
107.36
100.42
91.57
79.48
62.28
38.63
8.90
-24.26
-56.73
-84.61
-105.94
-121.55
-134.36
-147.63
-163.06
-179.76
-194.25
-201.60
-197.12
-178.11
-145.05
-101.81
-54.66
-10.37
25.91
51.97
68.61
78.35
83.79
86.52
87.12
85.95
84.11
83.39
85.45
90.78
98.23
105.52
110.34
111.46
109.12
104.54
99.26
94.52
91.00
88.91
87.93
87.23
85.45
81.02
72.72
60.47
45.50
29.88
15.47
3.05
-8.00
-18.84
-30.12
-41.16
-49.99
-54.32
-52.79
-45.87
-36.09
-27.18
-22.63
-24.33
-31.78
-42.25
-51.99
-57.78
-58.23
-54.22
-48.29
-43.30
-41.12
-42.00
-44.85
-48.19
-50.89
-52.60
-53.52
-53.92
-53.77
-52.73
-50.42
-46.60
-41.57
-36.01
-30.79
-26.68
-24.04
-22.72
-22.13
-21.56
-20.40
-18.45
-15.92
-13.28
-10.99
-9.34
-8.29
-7.57
-6.86
-5.94
-4.81
-3.61
-2.56
-1.83
-1.42
-1.20
-1.01
-0.72
-0.31
0.13
0.51
0.81
1.06
1.33
1.66
2.04
2.36
2.56
2.62
2.59
2.57
2.59
2.60
2.52
2.29
1.95
1.64
1.53
1.77
2.35
3.16
4.03
4.76
5.26
5.55
5.73
5.90
6.14
6.37
6.43
6.10
5.18
3.60
1.44
-1.10
-3.73
-6.19
-8.27
-9.86
-10.95
-11.56
-11.73
-11.57
-11.20
-10.76
-10.43
-10.35
-10.57
-11.00
-11.43
-11.58
-11.21
-10.20
-8.60
-6.65
-4.68
-3.01
-1.87
-1.29
-1.18
-1.32
-1.47
-1.50
-1.41
-1.34
-1.48
-2.00
-2.99
-4.35
-5.83
-7.01
-7.40
-6.56
-4.25
-0.61
3.84
8.34
12.07
14.47
15.35
14.97
13.79
12.34
11.03
10.01
9.27
8.60
7.76
6.53
4.86
2.90
1.03
-0.30
-0.76
-0.29
0.84
2.12
3.05
3.32
2.93
2.15
1.40
1.04
1.24
1.94
2.87
3.74
4.25
4.32
3.97
3.41
2.88
2.66
2.91
3.70
4.96
6.41
7.58
7.96
7.11
5.00
2.02
-1.05
-3.38
-4.42
-4.18
-3.16
-2.10
-1.59
-1.82
-2.60
-3.51
-4.23
-4.66
-4.92
-5.19
-5.57
-5.97
-6.20
-6.05
-5.38
-4.18
-2.59
-0.82
0.85
2.19
3.04
3.37
3.25
2.85
2.37
1.96
1.77
1.87
2.28
2.96
3.77
4.52
4.94
4.75
3.81
2.15
0.05
-2.08
-3.78
-4.74
-4.84
-4.23
-3.25
-2.28
-1.59
-1.27
-1.22
-1.25
-1.22
-1.10
-1.00
-1.05
-1.34
-1.82
-2.32
-2.63
-2.59
-2.23
-1.69
-1.20
-0.94
-0.93
-1.08
-1.20
-1.15
-0.88
-0.51
-0.20
-0.11
-0.23
-0.43
-0.50
-0.23
0.46
1.44
2.47
3.29
3.68
3.61
3.24
2.81
2.62
2.86
3.60
4.73
6.00
7.12
7.76
7.68
6.74
4.91
2.38
-0.51
-3.30
-5.52
-6.84
-7.19
-6.78
-5.97
-5.12
-4.48
-4.09
-3.88
-3.72
-3.59
-3.51
-3.55
-3.72
-3.94
-4.09
-4.06
-3.85
-3.52
-3.18
-2.87
-2.58
-2.27
-1.90
-1.51
-1.19
-1.01
-0.95
-0.95
-0.87
-0.67
-0.35
-0.03
0.18
0.22
0.10
-0.10
-0.31
-0.50
-0.65
-0.77
-0.85
-0.86
-0.76
-0.56
-0.27
0.02
0.28
0.47
0.58
0.61
0.57
0.43
0.23
-0.00
-0.20
-0.31
-0.32
-0.26
-0.20
-0.17
-0.21
-0.27
-0.31
-0.26
-0.12
0.09
0.31
0.46
0.50
0.42
0.22
-0.04
-0.32
-0.56
-0.70
-0.70
-0.56
-0.29
0.03
0.34
0.55
0.62
0.55
0.37
0.17
0.02
-0.01
0.08
0.23
0.35
0.38
0.32
0.22
0.18
0.23
0.32
0.36
0.24
-0.04
-0.40
-0.67
-0.75
-0.63
-0.40
-0.16
0.02
0.13
0.18
0.20
0.19
0.10
-0.04
-0.20
-0.29
-0.29
-0.21
-0.11
-0.07
-0.11
-0.20
-0.22
-0.12
0.12
0.42
0.70
0.88
0.95
0.95
0.93
0.90
0.84
0.71
0.49
0.20
-0.09
-0.27
-0.27
-0.09
0.23
0.56
0.81
0.91
0.83
0.61
0.28
-0.13
-0.59
-1.02
-1.36
-1.55
-1.57
-1.45
-1.26
-1.07
-0.93
-0.85
-0.82
-0.79
-0.72
-0.60
-0.40
-0.15
0.09
0.24
0.25
0.11
-0.10
-0.26
-0.29
-0.16
0.10
0.36
0.53
0.57
0.48
0.33
0.20
0.15
0.18
0.26
0.31
0.27
0.13
-0.09
-0.30
-0.45
-0.49
-0.45
-0.36
-0.27
-0.21
-0.16
-0.10
-0.04
0.03
0.08
0.12
0.16
0.23
0.31
0.39
0.43
0.42
0.35
0.26
0.19
0.17
0.23
0.37
0.54
0.69
0.75
0.70
0.53
0.27
-0.03
-0.29
-0.47
-0.55
-0.51
-0.38
-0.17
0.04
0.21
0.25
0.15
-0.10
-0.42
-0.70
-0.85
-0.85
-0.71
-0.51
-0.33
-0.22
-0.20
-0.22
-0.24
-0.26
-0.29
-0.38
-0.53
-0.70
-0.82
-0.86
-0.83
-0.79
-0.82
-0.93
-1.09
-1.22
-1.22
-1.07
-0.80
-0.51
-0.29
-0.21
-0.25
-0.38
-0.48
-0.51
-0.41
-0.20
0.09
0.41
0.72
1.03
1.31
1.54
1.67
1.63
1.43
1.13
0.84
0.66
0.65
0.77
0.91
0.97
0.87
0.64
0.31
-0.03
-0.33
-0.56
-0.74
-0.88
-0.96
-0.94
-0.77
-0.45
-0.02
0.42
0.75
0.93
0.98
1.00
1.09
1.28
1.53
1.70
1.67
1.37
0.82
0.15
-0.47
-0.83
-0.84
-0.46
0.16
0.81
1.24
1.29
0.96
0.44
-0.01
-0.11
0.20
0.81
1.44
1.78
1.66
1.08
0.25
-0.57
-1.16
-1.40
-1.35
-1.09
-0.73
-0.33
0.08
0.43
0.60
0.52
0.20
-0.27
-0.68
-0.90
-0.90
-0.75
-0.62
-0.60
-0.71
-0.86
-0.95
-0.92
-0.77
-0.55
-0.30
-0.04
0.21
0.43
0.56
0.55
0.39
0.13
-0.16
-0.38
-0.51
-0.56
-0.61
-0.71
-0.90
-1.12
-1.30
-1.36
-1.31
-1.17
-1.02
-0.91
-0.84
-0.80
-0.78
-0.79
-0.89
-1.11
-1.41
-1.70
-1.82
-1.68
-1.25
-0.66
-0.06
0.40
0.67
0.75
0.71
0.61
0.44
0.19
-0.13
-0.47
-0.70
-0.73
-0.54
-0.17
0.26
0.63
0.88
1.01
1.05
1.02
0.92
0.78
0.63
0.52
0.49
0.55
0.65
0.72
0.71
0.58
0.35
0.08
-0.21
-0.52
-0.83
-1.15
-1.46
-1.74
-1.98
-2.22
-2.48
-2.81
-3.21
-3.59
-3.86
-3.95
-3.81
-3.46
-2.95
-2.27
-1.42
-0.40
0.72
1.83
2.77
3.43
3.79
3.89
3.77
3.49
3.06
2.54
2.04
1.69
1.63
1.85
2.20
2.45
2.42
2.07
1.56
1.11
0.95
1.11
1.49
1.88
2.09
2.02
1.72
1.34
0.99
0.78
0.70
0.71
0.73
0.70
0.61
0.47
0.31
0.16
0.02
-0.13
-0.27
-0.40
-0.50
-0.53
-0.49
-0.41
-0.34
-0.36
-0.50
-0.75
-1.05
-1.34
-1.54
-1.61
-1.56
-1.40
-1.22
-1.09
-1.08
-1.23
-1.53
-1.89
-2.20
-2.36
-2.33
-2.13
-1.83
-1.48
-1.15
-0.87
-0.66
-0.55
-0.57
-0.70
-0.89
-1.07
-1.15
-1.09
-0.90
-0.62
-0.29
0.04
0.37
0.69
0.98
1.23
1.39
1.45
1.38
1.18
0.82
0.30
-0.33
-1.02
-1.68
-2.20
-2.51
-2.61
-2.53
-2.39
-2.30
-2.36
-2.57
-2.87
-3.17
-3.41
-3.66
-4.05
-4.74
-5.78
-7.05
-8.29
-9.23
-9.71
-9.79
-9.73
-9.86
-10.46
-11.63
-13.27
-15.05
-16.46
-16.97
-16.20
-14.08
-10.99
-7.64
-4.82
-3.17
-2.94
-3.92
-5.55
-7.03
-7.57
-6.53
-3.60
1.06
6.84
12.72
17.67
20.94
22.29
21.99
20.62
18.78
16.87
15.09
13.52
12.26
11.43
11.10
11.19
11.47
11.65
11.49
10.90
10.00
8.99
8.04
7.27
6.71
6.33
6.05
5.82
5.57
5.23
4.80
4.36
4.05
4.05
4.45
5.21
6.12
6.92
7.38
7.45
7.24
6.98
6.89
7.12
7.63
8.29
8.98
9.53
9.85
9.86
9.47
8.65
7.45
6.10
4.94
4.30
4.35
4.89
5.44
5.38
4.29
2.16
-0.63
-3.47
-5.82
-7.44
-8.41
-8.98
-9.36
-9.60
-9.60
-9.24
-8.54
-7.71
-7.01
-6.63
-6.60
-6.73
-6.80
-6.64
-6.23
-5.68
-5.15
-4.75
-4.46
-4.22
-3.93
-3.57
-3.19
-2.85
-2.63
-2.52
-2.50
-2.49
-2.45
-2.33
-2.13
-1.86
-1.57
-1.33
-1.19
-1.14
-1.16
-1.18
-1.13
-1.02
-0.91
-0.86
-0.87
-0.91
-0.88
-0.73
-0.48
-0.20
-0.01
0.05
-0.01
-0.11
-0.20
-0.24
-0.22
-0.18
-0.13
-0.08
-0.04
-0.02
-0.04
-0.12
-0.22
-0.29
-0.25
-0.07
0.21
0.49
0.64
0.57
0.29
-0.08
-0.34
-0.32
0.06
0.73
1.51
2.15
2.44
2.25
1.64
0.77
-0.10
-0.75
-1.07
-1.07
-0.87
-0.60
-0.38
-0.27
-0.26
-0.32
-0.39
-0.46
-0.49
-0.46
-0.37
-0.21
-0.04
0.08
0.11
0.02
-0.15
-0.35
-0.52
-0.62
-0.63
-0.57
-0.51
-0.49
-0.54
-0.68
-0.86
-0.97
-0.91
-0.57
0.07
0.87
1.61
2.04
1.99
1.51
0.81
0.20
-0.07
0.06
0.47
0.96
1.33
1.50
1.54
1.53
1.57
1.66
1.79
1.93
2.11
2.36
2.69
3.00
3.13
2.87
2.15
1.04
-0.23
-1.33
-2.05
-2.34
-2.35
-2.30
-2.39
-2.67
-3.03
-3.30
-3.39
-3.28
-3.06
-2.84
-2.66
-2.48
-2.24
-1.89
-1.48
-1.09
-0.80
-0.62
-0.48
-0.26
0.10
0.56
0.95
1.11
0.93
0.50
0.03
-0.15
0.13
0.86
1.81
2.61
2.93
2.65
1.90
0.96
0.17
-0.24
-0.20
0.22
0.86
1.51
1.94
1.99
1.57
0.74
-0.27
-1.17
-1.67
-1.61
-1.05
-0.26
0.43
0.75
0.60
0.09
-0.56
-1.07
-1.28
-1.16
-0.80
-0.40
-0.15
-0.18
-0.49
-0.98
-1.47
-1.79
-1.87
-1.72
-1.49
-1.34
-1.36
-1.57
-1.90
-2.20
-2.35
-2.28
-2.01
-1.61
-1.22
-0.95
-0.88
-1.01
-1.27
-1.53
-1.67
-1.59
-1.31
-0.93
-0.59
-0.40
-0.38
-0.44
-0.46
-0.38
-0.18
0.05
0.19
0.17
0.03
-0.16
-0.31
-0.36
-0.31
-0.21
-0.10
-0.02
-0.01
-0.08
-0.24
-0.44
-0.58
-0.57
-0.37
-0.02
0.38
0.74
1.03
1.28
1.54
1.81
2.05
2.17
2.13
1.91
1.61
1.29
0.99
0.71
0.44
0.20
0.05
0.08
0.29
0.60
0.85
0.87
0.57
-0.02
-0.70
-1.26
-1.52
-1.42
-1.09
-0.69
-0.39
-0.26
-0.26
-0.31
-0.33
-0.29
-0.19
-0.05
0.07
0.14
0.13
0.01
-0.20
-0.43
-0.62
-0.70
-0.66
-0.53
-0.41
-0.35
-0.35
-0.36
-0.33
-0.26
-0.15
-0.06
-0.03
-0.05
-0.10
-0.14
-0.15
-0.14
-0.11
-0.09
-0.07
-0.04
0.04
0.16
0.31
0.41
0.41
0.26
0.02
-0.22
-0.35
-0.29
-0.07
0.23
0.46
0.54
0.41
0.12
-0.26
-0.64
-0.96
-1.17
-1.24
-1.19
-1.02
-0.80
-0.58
-0.42
-0.32
-0.23
-0.09
0.15
0.51
0.98
1.47
1.90
2.17
2.23
2.08
1.80
1.50
1.29
1.22
1.29
1.39
1.39
1.19
0.81
0.34
-0.08
-0.34
-0.42
-0.41
-0.40
-0.44
-0.49
-0.47
-0.31
-0.07
0.15
0.26
0.22
0.10
0.02
0.03
0.09
0.14
0.10
-0.03
-0.22
-0.40
-0.59
-0.81
-1.08
-1.36
-1.57
-1.66
-1.62
-1.57
-1.61
-1.77
-1.97
-2.06
-1.91
-1.51
-0.99
-0.54
-0.29
-0.24
-0.30
-0.34
-0.26
-0.09
0.11
0.28
0.38
0.46
0.59
0.81
1.12
1.42
1.63
1.69
1.61
1.48
1.36
1.29
1.26
1.21
1.12
1.01
0.91
0.86
0.85
0.86
0.88
0.92
1.02
1.20
1.38
1.43
1.26
0.85
0.32
-0.13
-0.29
-0.11
0.36
0.91
1.35
1.55
1.48
1.24
0.95
0.71
0.57
0.50
0.47
0.45
0.47
0.56
0.70
0.83
0.82
0.49
-0.25
-1.43
-2.95
-4.69
-6.49
-8.26
-9.91
-11.37
-12.57
-13.50
-14.26
-15.00
-15.89
-17.03
-18.37
-19.69
-20.73
-21.27
-21.29
-20.98
-20.68
-20.75
-21.35
-22.35
-23.30
-23.57
-22.52
-19.66
-14.77
-7.81
1.06
11.53
23.05
34.85
45.97
55.56
63.07
68.38
71.57
72.54
70.87
65.95
57.46
45.88
32.59
19.54
8.51
0.42
-4.83
-8.08
-10.25
-11.93
-13.18
-13.81
-13.71
-13.05
-12.21
-11.62
-11.47
-11.68
-11.97
-12.00
-11.58
-10.75
-9.74
-8.87
-8.40
-8.38
-8.65
-8.93
-8.91
-8.47
-7.66
-6.62
-5.54
-4.53
-3.64
-2.89
-2.31
-1.97
-1.89
-2.00
-2.20
-2.33
-2.27
-1.99
-1.55
-1.03
-0.53
-0.10
0.23
0.41
0.39
0.16
-0.25
-0.73
-1.14
-1.40
-1.47
-1.40
-1.28
-1.21
-1.20
-1.21
-1.14
-0.92
-0.58
-0.20
0.08
0.15
0.00
-0.30
-0.64
-0.86
-0.91
-0.80
-0.63
-0.50
-0.48
-0.57
-0.67
-0.70
-0.59
-0.37
-0.15
-0.02
-0.09
-0.32
-0.62
-0.85
-0.93
-0.81
-0.57
-0.28
-0.02
0.16
0.23
0.21
0.10
-0.06
-0.22
-0.32
-0.35
-0.34
-0.32
-0.33
-0.38
-0.40
-0.35
-0.21
0.01
0.20
0.32
0.37
0.42
0.55
0.77
0.99
1.04
0.80
0.28
-0.41
-1.06
-1.50
-1.64
-1.52
-1.23
-0.85
-0.43
-0.06
0.21
0.29
0.14
-0.16
-0.47
-0.61
-0.49
-0.14
0.27
0.56
0.64
0.51
0.32
0.19
0.18
0.26
0.35
0.38
0.34
0.29
0.25
0.21
0.10
-0.15
-0.54
-0.99
-1.33
-1.44
-1.29
-0.98
-0.68
-0.60
-0.82
-1.32
-1.95
-2.50
-2.77
-2.63
-2.09
-1.24
-0.24
0.71
1.46
1.96
2.19
2.23
2.18
2.14
2.17
2.31
2.53
2.74
2.88
2.94
2.98
3.07
3.27
3.55
3.81
3.93
3.84
3.61
3.38
3.26
3.30
3.43
3.51
3.46
3.24
2.91
2.51
2.07
1.51
0.75
-0.21
-1.29
-2.33
-3.16
-3.66
-3.84
-3.74
-3.45
-2.99
-2.39
-1.65
-0.84
-0.09
0.46
0.76
0.82
0.77
0.74
0.80
0.96
1.18
1.39
1.51
1.50
1.29
0.84
0.16
-0.67
-1.49
-2.17
-2.59
-2.77
-2.79
-2.78
-2.84
-2.99
-3.18
-3.34
-3.40
-3.36
-3.21
-2.98
-2.69
-2.33
-1.89
-1.40
-0.87
-0.36
0.08
0.42
0.64
0.78
0.89
0.99
1.09
1.16
1.19
1.13
0.97
0.73
0.45
0.20
0.04
-0.02
-0.01
0.00
-0.01
-0.07
-0.13
-0.13
-0.07
0.02
0.06
-0.06
-0.34
-0.73
-1.09
-1.34
-1.44
-1.40
-1.29
-1.16
-1.02
-0.88
-0.74
-0.63
-0.58
-0.58
-0.55
-0.44
-0.19
0.14
0.46
0.66
0.68
0.56
0.38
0.23
0.17
0.19
0.22
0.19
0.06
-0.15
-0.38
-0.56
-0.64
-0.60
-0.51
-0.46
-0.50
-0.63
-0.77
-0.82
-0.72
-0.50
-0.25
-0.08
-0.03
-0.05
-0.06
-0.00
0.12
0.22
0.20
0.04
-0.19
-0.33
-0.28
0.00
0.41
0.78
0.99
1.02
0.95
0.90
0.94
1.01
0.99
0.78
0.38
-0.07
-0.37
-0.38
-0.13
0.23
0.46
0.42
0.13
-0.26
-0.54
-0.56
-0.35
-0.03
0.22
0.24
-0.01
-0.42
-0.86
-1.17
-1.25
-1.09
-0.74
-0.31
0.10
0.39
0.51
0.46
0.32
0.16
0.06
0.07
0.15
0.27
0.38
0.49
0.60
0.73
0.85
0.90
0.83
0.66
0.43
0.24
0.14
0.11
0.11
0.09
0.03
-0.03
-0.04
0.04
0.20
0.37
0.50
0.52
0.42
0.23
0.02
-0.15
-0.22
-0.17
-0.04
0.11
0.23
0.29
0.29
0.28
0.28
0.28
0.25
0.15
-0.03
-0.28
-0.52
-0.68
-0.71
-0.63
-0.46
-0.30
-0.22
-0.23
-0.31
-0.41
-0.51
-0.62
-0.76
-0.95
-1.18
-1.38
-1.46
-1.34
-1.04
-0.63
-0.21
0.08
0.19
0.09
-0.15
-0.43
-0.63
-0.68
-0.53
-0.24
0.09
0.36
0.48
0.42
0.20
-0.11
-0.44
-0.72
-0.96
-1.19
-1.47
-1.82
-2.25
-2.73
-3.21
-3.67
-4.09
-4.44
-4.66
-4.71
-4.61
-4.48
-4.55
-5.02
-6.02
-7.45
-9.03
-10.43
-11.46
-12.17
-12.79
-13.67
-15.01
-16.79
-18.83
-20.83
-22.61
-24.15
-25.60
-27.20
-29.21
-31.77
-34.89
-38.47
-42.28
-46.08
-49.73
-53.22
-56.78
-60.79
-65.57
-71.25
-77.67
-84.45
-91.15
-97.52
-103.59
-109.64
-116.05
-123.22
-131.56
-141.34
-152.26
-163.05
-171.17
-173.05
-165.06
-144.88
-112.53
-70.54
-23.11
25.29
71.04
111.72
145.83
172.16
189.73
198.12
198.14
192.11
183.36
175.22
169.85
167.73
167.84
168.48
168.22
166.49
163.70
160.84
158.90
158.50
159.60
161.55
163.56
165.05
165.93
166.66
167.97
170.49
174.52
179.99
186.78
194.84
204.05
213.68
221.88
225.72
221.84
207.71
182.57
147.76
105.86
59.53
10.64
-39.53
-89.46
-136.42
-176.47
-205.63
-221.56
-224.71
-218.29
-206.80
-194.27
-182.91
-172.98
-163.59
-153.92
-143.88
-134.10
-125.36
-117.98
-111.58
-105.37
-98.66
-91.19
-83.28
-75.65
-68.93
-63.41
-58.93
-54.99
-51.01
-46.64
-41.84
-36.83
-32.01
-27.67
-23.92
-20.67
-17.70
-14.76
-11.72
-8.61
-5.61
-2.96
-0.90
0.48
1.24
1.56
1.66
1.73
1.84
1.96
2.00
1.90
1.68
1.42
1.19
1.01
0.82
0.56
0.17
-0.30
-0.72
-0.97
-1.03
-0.98
-0.98
-1.16
-1.55
-2.05
-2.49
-2.74
-2.71
-2.45
-2.08
-1.72
-1.49
-1.42
-1.48
-1.59
-1.63
-1.53
-1.26
-0.87
-0.47
-0.14
0.06
0.14
0.16
0.17
0.19
0.15
0.02
-0.24
-0.57
-0.87
-1.05
-1.12
-1.13
-1.22
-1.45
-1.78
-2.11
-2.33
-2.39
-2.43
-2.59
-3.03
-3.73
-4.55
-5.25
-5.70
-5.85
-5.87
-6.01
-6.54
-7.61
-9.24
-11.25
-13.39
-15.38
-17.05
-18.42
-19.71
-21.22
-23.23
-25.82
-28.82
-31.92
-34.81
-37.33
-39.61
-42.01
-44.88
-48.45
-52.64
-57.05
-61.15
-64.49
-66.90
-68.58
-70.08
-72.08
-75.17
-79.60
-85.16
-91.10
-95.93
-97.32
-92.17
-77.30
-50.66
-12.77
32.63
78.99
118.86
146.33
158.98
158.40
149.02
136.05
123.66
114.20
108.56
106.79
108.19
110.73
110.45
102.09
80.98
45.56
-1.07
-51.68
-97.58
-132.06
-152.80
-162.20
-165.64
-168.84
-175.60
-186.81
-200.56
-213.15
-220.18
-217.62
-202.65
-174.14
-132.97
-81.75
-24.56
33.62
87.38
131.72
162.93
179.63
183.19
177.33
166.78
155.61
146.02
138.16
130.90
123.09
114.32
105.15
96.59
89.38
83.55
78.39
72.95
66.50
59.05
51.24
44.03
38.12
33.65
30.17
26.99
23.57
19.83
16.01
12.46
9.37
6.66
4.15
1.69
-0.68
-2.74
-4.26
-5.09
-5.27
-5.02
-4.65
-4.44
-4.56
-5.05
-5.73
-6.37
-6.71
-6.61
-6.13
-5.46
-4.87
-4.49
-4.35
-4.34
-4.33
-4.24
-4.08
-3.89
-3.70
-3.45
-3.12
-2.73
-2.41
-2.35
-2.70
-3.45
-4.40
-5.23
-5.65
-5.54
-4.98
-4.22
-3.51
-3.04
-2.85
-2.85
-2.96
-3.13
-3.43
-3.90
-4.56
-5.24
-5.73
-5.79
-5.39
-4.69
-4.02
-3.74
-4.03
-4.85
-6.00
-7.23
-8.37
-9.33
-10.06
-10.48
-10.45
-9.94
-9.04
-8.02
-7.20
-6.76
-6.50
-5.92
-4.29
-1.00
4.21
11.15
19.29
27.88
36.20
43.65
49.85
54.62
57.99
60.19
61.63
62.77
64.02
65.64
67.67
69.93
72.11
73.87
75.00
75.54
75.73
75.96
76.42
76.94
76.90
75.48
71.90
65.77
57.07
46.21
33.84
20.81
8.08
-3.47
-13.30
-21.43
-28.41
-35.00
-41.59
-47.87
-52.78
-54.98
-53.52
-48.24
-39.94
-30.26
-21.38
-15.60
-14.81
-19.89
-30.19
-43.51
-56.70
-66.70
-71.66
-71.41
-67.23
-61.02
-54.44
-48.44
-43.36
-39.24
-36.13
-34.11
-33.03
-32.44
-31.56
-29.64
-26.27
-21.63
-16.51
-12.05
-9.35
-8.98
-10.75
-13.75
-16.64
-18.21
-17.77
-15.41
-11.90
-8.32
-5.63
-4.31
-4.32
-5.17
-6.24
-6.97
-7.05
-6.47
-5.37
-3.97
-2.50
-1.16
-0.08
0.60
0.81
0.57
0.00
-0.67
-1.20
-1.40
-1.19
-0.68
-0.09
0.31
0.33
-0.08
-0.82
-1.63
-2.27
-2.51
-2.32
-1.84
-1.29
-0.91
-0.84
-1.05
-1.44
-1.88
-2.30
-2.70
-3.13
-3.57
-3.96
-4.23
-4.37
-4.43
-4.58
-4.93
-5.53
-6.28
-7.04
-7.67
-8.15
-8.53
-8.92
-9.37
-9.87
-10.32
-10.69
-10.95
-11.16
-11.38
-11.62
-11.88
-12.12
-12.36
-12.71
-13.32
-14.37
-15.97
-18.10
-20.49
-22.68
-24.06
-24.05
-22.31
-18.86
-14.12
-8.73
-3.29
1.79
6.43
10.71
14.74
18.51
21.79
24.33
25.92
26.55
26.40
25.71
24.72
23.58
22.32
20.89
19.27
17.51
15.74
14.19
13.07
12.44
12.19
12.03
11.68
10.96
9.92
8.78
7.81
7.16
6.79
6.54
6.19
5.62
4.86
4.02
3.24
2.62
2.22
2.04
1.99
1.98
1.88
1.62
1.22
0.77
0.39
0.19
0.19
0.33
0.48
0.54
0.47
0.27
0.01
-0.26
-0.50
-0.69
-0.85
-0.97
-1.05
-1.09
-1.08
-1.03
-0.94
-0.81
-0.64
-0.43
-0.20
0.04
0.23
0.35
0.39
0.37
0.35
0.35
0.41
0.51
0.63
0.69
0.65
0.49
0.22
-0.08
-0.34
-0.50
-0.54
-0.49
-0.42
-0.38
-0.36
-0.36
-0.32
-0.18
0.05
0.32
0.54
0.65
0.61
0.47
0.29
0.12
-0.02
-0.18
-0.37
-0.61
-0.84
-0.98
-0.99
-0.86
-0.65
-0.46
-0.38
-0.47
-0.69
-1.00
-1.29
-1.48
-1.52
-1.39
-1.11
-0.72
-0.30
0.06
0.26
0.26
0.07
-0.24
-0.55
-0.76
-0.83
-0.79
-0.75
-0.77
-0.89
-1.06
-1.21
-1.26
-1.18
-0.98
-0.71
-0.42
-0.18
-0.04
-0.04
-0.19
-0.46
-0.80
-1.13
-1.41
-1.61
-1.73
-1.79
-1.80
-1.79
-1.80
-1.89
-2.12
-2.50
-3.04
-3.65
-4.20
-4.45
-4.21
-3.35
-1.94
-0.22
1.45
2.76
3.52
3.75
3.61
3.29
2.94
2.57
2.15
1.66
1.13
0.62
0.22
-0.02
-0.06
0.12
0.51
1.09
1.80
2.53
3.15
3.56
3.73
3.65
3.37
2.94
2.40
1.82
1.28
0.87
0.63
0.60
0.72
0.92
1.10
1.19
1.16
1.02
0.82
0.61
0.44
0.35
0.35
0.45
0.60
0.76
0.89
0.96
0.96
0.94
0.91
0.88
0.81
0.64
0.33
-0.09
-0.53
-0.86
-0.99
-0.91
-0.75
-0.63
-0.64
-0.77
-0.89
-0.87
-0.66
-0.31
-0.00
0.17
0.19
0.19
0.30
0.58
0.94
1.21
1.26
1.04
0.68
0.33
0.14
0.14
0.28
0.44
0.52
0.50
0.40
0.27
0.16
0.09
0.06
0.04
0.02
-0.01
-0.05
-0.09
-0.14
-0.22
-0.32
-0.44
-0.56
-0.63
-0.64
-0.61
-0.55
-0.50
-0.48
-0.50
-0.54
-0.60
-0.63
-0.61
-0.49
-0.30
-0.06
0.17
0.30
0.26
0.05
-0.32
-0.78
-1.23
-1.55
-1.66
-1.49
-1.09
-0.57
-0.07
0.27
0.38
0.28
0.05
-0.19
-0.32
-0.28
-0.09
0.16
0.35
0.38
0.23
-0.07
-0.46
-0.86
-1.25
-1.58
-1.84
-1.98
-2.00
-1.91
-1.82
-1.79
-1.91
-2.14
-2.43
-2.66
-2.79
-2.81
-2.79
-2.77
-2.77
-2.77
-2.76
-2.70
-2.62
-2.54
-2.50
-2.51
-2.59
-2.77
-3.07
-3.52
-4.10
-4.74
-5.32
-5.68
-5.68
-5.23
-4.35
-3.18
-1.92
-0.80
0.02
0.53
0.82
1.11
1.57
2.29
3.19
4.10
4.82
5.25
5.44
5.52
5.65
5.88
6.14
6.30
6.21
5.88
5.38
4.87
4.46
4.18
3.99
3.80
3.57
3.27
2.92
2.54
2.16
1.78
1.41
1.08
0.81
0.61
0.50
0.48
0.54
0.67
0.81
0.89
0.88
0.79
0.69
0.66
0.75
0.92
1.07
1.12
1.03
0.86
0.74
0.70
0.72
0.69
0.50
0.14
-0.32
-0.71
-0.92
-0.93
-0.79
-0.60
-0.41
-0.25
-0.07
0.17
0.45
0.71
0.87
0.88
0.71
0.41
0.08
-0.22
-0.43
-0.53
-0.55
-0.53
-0.48
-0.42
-0.34
-0.23
-0.08
0.10
0.29
0.48
0.65
0.72
0.65
0.42
0.08
-0.27
-0.52
-0.59
-0.50
-0.34
-0.25
-0.28
-0.41
-0.56
-0.59
-0.44
-0.12
0.29
0.71
1.04
1.23
1.28
1.18
0.98
0.77
0.62
0.64
0.88
1.25
1.63
1.88
1.91
1.77
1.62
1.62
1.89
2.42
3.13
3.85
4.45
4.89
5.18
5.44
5.78
6.31
7.06
7.98
8.94
9.77
10.36
10.74
11.11
11.81
13.14
15.21
17.83
20.47
22.56
23.71
24.04
24.18
25.12
27.66
31.99
37.42
42.59
46.02
46.74
44.69
40.88
37.01
35.04
36.72
43.04
53.65
66.31
76.93
80.65
73.65
55.12
28.20
-0.76
-24.49
-37.54
-38.11
-28.41
-13.54
0.43
8.25
6.78
-4.45
-23.18
-45.04
-64.62
-77.02
-79.41
-71.98
-57.84
-41.74
-28.42
-21.08
-20.64
-25.79
-33.84
-41.72
-46.91
-48.04
-45.06
-39.07
-31.74
-24.82
-19.74
-17.25
-17.31
-19.13
-21.51
-23.11
-22.99
-20.88
-17.27
-13.15
-9.62
-7.54
-7.18
-8.22
-9.81
-10.96
-10.85
-9.17
-6.29
-3.06
-0.52
0.54
-0.11
-2.03
-4.32
-6.02
-6.47
-5.54
-3.64
-1.52
0.09
0.72
0.28
-0.91
-2.34
-3.47
-3.90
-3.51
-2.45
-1.04
0.29
1.18
1.46
1.13
0.40
-0.43
-1.04
-1.23
-0.94
-0.28
0.52
1.16
1.42
1.18
0.51
-0.37
-1.21
-1.79
-2.02
-1.94
-1.68
-1.39
-1.21
-1.20
-1.38
-1.73
-2.14
-2.47
-2.56
-2.27
-1.58
-0.59
0.46
1.28
1.63
1.43
0.84
0.11
-0.42
-0.53
-0.18
0.48
1.15
1.57
1.61
1.30
0.83
0.41
0.17
0.12
0.20
0.32
0.39
0.36
0.20
-0.11
-0.54
-1.01
-1.40
-1.58
-1.46
-1.02
-0.38
0.31
0.84
1.06
0.91
0.45
-0.18
-0.80
-1.21
-1.34
-1.14
-0.68
-0.06
0.59
1.15
1.55
1.72
1.69
1.49
1.21
0.91
0.65
0.49
0.43
0.47
0.59
0.76
0.89
0.92
0.81
0.58
0.33
0.19
0.27
0.55
0.95
1.34
1.60
1.69
1.61
1.43
1.21
0.98
0.77
0.58
0.39
0.21
0.05
-0.07
-0.12
-0.10
-0.00
0.13
0.26
0.38
0.51
0.68
0.88
1.10
1.26
1.29
1.16
0.88
0.51
0.12
-0.21
-0.43
-0.51
-0.42
-0.19
0.14
0.45
0.66
0.72
0.64
0.50
0.37
0.31
0.31
0.34
0.35
0.33
0.24
0.11
-0.07
-0.26
-0.42
-0.50
-0.46
-0.32
-0.15
-0.04
-0.07
-0.23
-0.48
-0.75
-0.99
-1.19
-1.36
-1.49
-1.57
-1.57
-1.47
-1.29
-1.09
-0.94
-0.87
-0.91
-0.98
-1.00
-0.90
-0.62
-0.20
0.27
0.67
0.84
0.72
0.32
-0.23
-0.77
-1.14
-1.23
-1.05
-0.70
-0.31
0.01
0.19
0.24
0.20
0.11
-0.01
-0.13
-0.26
-0.38
-0.47
-0.54
-0.56
-0.52
-0.41
-0.24
-0.06
0.11
0.20
0.20
0.15
0.10
0.10
0.17
0.26
0.34
0.39
0.44
0.57
0.80
1.11
1.40
1.56
1.51
1.29
0.97
0.65
0.40
0.20
0.04
-0.06
-0.01
0.24
0.70
1.24
1.68
1.82
1.61
1.13
0.59
0.18
0.01
0.09
0.30
0.45
0.45
0.23
-0.16
-0.63
-1.03
-1.27
-1.26
-1.03
-0.67
-0.31
-0.07
-0.00
-0.07
-0.17
-0.17
0.05
0.48
1.05
1.58
1.89
1.85
1.45
0.77
-0.07
-0.88
-1.53
-1.92
-1.95
-1.62
-1.01
-0.30
0.26
0.44
0.11
-0.64
-1.59
-2.46
-3.05
-3.33
-3.38
-3.32
-3.24
-3.12
-2.89
-2.51
-2.01
-1.46
-0.94
-0.48
-0.06
0.34
0.71
0.94
0.91
0.53
-0.12
-0.87
-1.45
-1.71
-1.64
-1.40
-1.19
-1.15
-1.26
-1.38
-1.33
-1.07
-0.69
-0.34
-0.22
-0.40
-0.87
-1.53
-2.23
-2.82
-3.16
-3.16
-2.85
-2.42
-2.13
-2.27
-2.94
-4.04
-5.25
-6.22
-6.75
-6.97
-7.27
-8.16
-10.00
-12.79
-16.11
-19.30
-21.71
-22.95
-23.18
-22.99
-23.25
-24.70
-27.62
-31.69
-36.04
-39.72
-42.02
-42.84
-42.74
-42.65
-43.59
-46.35
-51.36
-58.47
-66.55
-73.24
-75.08
-68.51
-51.44
-24.63
7.92
40.16
66.18
82.40
88.61
87.35
82.21
76.02
70.01
64.20
58.33
52.70
48.19
45.68
45.28
46.05
46.37
44.65
40.09
33.09
25.01
17.56
12.07
8.97
7.75
7.32
6.64
5.14
2.95
0.64
-1.12
-1.96
-1.95
-1.48
-1.01
-0.85
-1.05
-1.44
-1.75
-1.79
-1.50
-0.97
-0.34
0.25
0.68
0.94
1.03
0.98
0.85
0.68
0.46
0.21
-0.05
-0.29
-0.44
-0.47
-0.38
-0.27
-0.22
-0.29
-0.48
-0.69
-0.87
-0.97
-1.04
-1.18
-1.43
-1.76
-2.06
-2.20
-2.09
-1.77
-1.40
-1.13
-1.12
-1.43
-2.05
-2.90
-3.85
-4.66
-5.06
-4.76
-3.59
-1.63
0.81
3.28
5.35
6.81
7.67
8.09
8.25
8.23
8.02
7.63
7.14
6.75
6.66
6.96
7.57
8.26
8.78
9.01
8.97
8.85
8.89
9.24
9.95
10.93
11.99
12.94
13.64
14.08
14.37
14.72
15.38
16.53
18.18
20.03
21.54
22.07
21.02
18.13
13.52
7.66
1.24
-5.08
-10.75
-15.43
-18.94
-21.24
-22.39
-22.52
-21.85
-20.65
-19.21
-17.77
-16.50
-15.43
-14.56
-13.79
-13.05
-12.29
-11.49
-10.67
-9.82
-8.93
-7.97
-6.96
-5.95
-5.01
-4.18
-3.45
-2.79
-2.19
-1.69
-1.38
-1.34
-1.61
-2.09
-2.63
-3.03
-3.16
-3.03
-2.72
-2.42
-2.30
-2.41
-2.72
-3.10
-3.38
-3.46
-3.33
-3.09
-2.88
-2.75
-2.71
-2.64
-2.48
-2.18
-1.74
-1.21
-0.63
-0.02
0.58
1.14
1.62
2.00
2.32
2.63
2.97
3.31
3.55
3.58
3.33
2.88
2.37
1.96
1.73
1.65
1.60
1.48
1.24
0.88
0.48
0.10
-0.24
-0.54
-0.77
-0.91
-0.96
-0.90
-0.77
-0.58
-0.36
-0.15
0.05
0.20
0.24
0.15
-0.06
-0.30
-0.52
-0.61
-0.56
-0.40
-0.19
-0.02
0.05
0.00
-0.13
-0.26
-0.32
-0.28
-0.21
-0.21
-0.38
-0.75
-1.24
-1.73
-2.10
-2.33
-2.45
-2.57
-2.74
-2.91
-2.99
-2.87
-2.50
-1.94
-1.40
-1.08
-1.16
-1.67
-2.46
-3.26
-3.81
-3.99
-3.87
-3.67
-3.64
-3.94
-4.61
-5.58
-6.72
-7.90
-8.86
-9.23
-8.56
-6.51
-3.12
1.15
5.46
8.98
11.15
11.90
11.60
10.75
9.77
8.82
7.85
6.79
5.66
4.60
3.80
3.34
3.15
3.09
2.99
2.74
2.37
1.99
1.69
1.52
1.45
1.42
1.37
1.25
1.07
0.83
0.56
0.26
-0.02
-0.20
-0.21
-0.04
0.27
0.59
0.83
0.93
0.92
0.89
0.91
0.98
1.04
1.02
0.88
0.66
0.44
0.27
0.18
0.13
0.08
-0.02
-0.18
-0.40
-0.67
-0.95
-1.20
-1.34
-1.30
-1.05
-0.63
-0.14
0.28
0.55
0.62
0.55
0.44
0.39
0.44
0.55
0.65
0.63
0.47
0.22
-0.03
-0.16
-0.16
-0.07
0.04
0.10
0.12
0.18
0.35
0.62
0.90
1.03
0.92
0.59
0.15
-0.24
-0.48
-0.53
-0.46
-0.35
-0.27
-0.23
-0.20
-0.13
-0.04
0.03
0.02
-0.12
-0.40
-0.76
-1.08
-1.25
-1.17
-0.80
-0.18
0.55
1.20
1.61
1.68
1.42
0.94
0.39
-0.10
-0.43
-0.59
-0.57
-0.43
-0.23
-0.06
0.02
-0.02
-0.16
-0.30
-0.34
-0.23
0.04
0.38
0.68
0.84
0.81
0.64
0.38
0.14
-0.05
-0.14
-0.19
-0.23
-0.35
-0.57
-0.91
-1.32
-1.72
-2.04
-2.22
-2.22
-2.06
-1.78
-1.46
-1.17
-0.91
-0.71
-0.56
-0.47
-0.46
-0.54
-0.65
-0.72
-0.64
-0.42
-0.15
0.02
-0.06
-0.39
-0.87
-1.29
-1.50
-1.51
-1.43
-1.44
-1.64
-1.98
-2.27
-2.28
-1.90
-1.16
-0.28
0.48
0.88
0.83
0.35
-0.40
-1.27
-2.12
-2.89
-3.56
-4.14
-4.66
-5.18
-5.77
-6.44
-7.15
-7.83
-8.43
-9.00
-9.66
-10.59
-11.89
-13.52
-15.24
-16.80
-17.99
-18.76
-19.29
-19.84
-20.65
-21.87
-23.56
-25.67
-28.02
-30.12
-31.15
-30.02
-25.82
-18.25
-7.91
3.78
14.99
24.20
30.58
34.12
35.38
35.07
33.71
31.58
28.92
26.01
23.26
21.04
19.58
18.76
18.27
17.69
16.71
15.19
13.27
11.20
9.28
7.72
6.61
5.90
5.44
5.08
4.69
4.22
3.72
3.28
2.98
2.87
2.91
2.98
2.96
2.78
2.43
2.02
1.68
1.56
1.74
2.16
2.68
3.10
3.28
3.20
2.95
2.76
2.81
3.19
3.85
4.64
5.38
5.96
6.43
6.93
7.66
8.76
10.26
12.02
13.82
15.42
16.67
17.55
18.20
18.82
19.60
20.66
21.96
23.36
24.67
25.72
26.44
26.88
27.15
27.36
27.55
27.61
27.26
26.12
23.83
20.16
15.16
9.22
3.00
-2.69
-7.14
-9.97
-11.33
-11.83
-12.35
-13.70
-16.23
-19.76
-23.61
-26.92
-29.03
-29.68
-29.07
-27.68
-25.96
-24.15
-22.27
-20.22
-18.00
-15.79
-13.91
-12.68
-12.15
-12.12
-12.15
-11.82
-10.88
-9.30
-7.29
-5.11
-3.04
-1.37
-0.41
-0.46
-1.71
-4.08
-7.20
-10.48
-13.31
-15.30
-16.39
-16.76
-16.70
-16.42
-15.97
-15.26
-14.27
-13.10
-12.05
-11.50
-11.73
-12.83
-14.57
-16.46
-17.92
-18.52
-18.21
-17.38
-16.78
-17.19
-19.07
-22.31
-26.20
-29.71
-31.91
-32.47
-31.80
-30.96
-31.19
-33.41
-37.73
-43.39
-49.08
-53.40
-55.48
-55.34
-53.94
-52.90
-54.16
-59.24
-68.62
-80.98
-92.94
-99.45
-95.08
-75.89
-41.32
5.16
56.81
105.89
146.25
175.12
193.25
203.59
209.28
212.33
213.38
212.45
209.92
206.80
204.29
202.99
202.38
200.96
196.79
188.11
173.56
152.31
124.25
90.41
53.25
16.49
-15.90
-40.99
-57.86
-67.62
-72.46
-74.19
-73.36
-69.42
-61.38
-48.96
-33.25
-16.86
-3.48
3.03
-0.14
-13.57
-35.07
-60.08
-83.14
-99.89
-108.48
-109.91
-106.96
-102.48
-98.08
-93.82
-88.95
-83.05
-76.56
-70.70
-66.64
-64.82
-64.61
-64.72
-63.74
-60.82
-56.09
-50.49
-45.43
-42.15
-41.27
-42.55
-45.06
-47.55
-48.96
-48.82
-47.41
-45.64
-44.71
-45.66
-48.95
-54.24
-60.47
-66.33
-70.83
-73.72
-75.63
-77.66
-80.96
-86.22
-93.76
-103.71
-116.09
-130.30
-144.35
-154.50
-156.11
-145.57
-122.48
-90.74
-57.58
-30.94
-16.45
-15.69
-26.58
-45.10
-67.20
-89.57
-109.18
-122.46
-125.16
-113.52
-86.06
-44.91
4.36
54.28
97.82
130.35
150.53
159.88
161.53
158.79
154.18
149.09
144.03
139.15
134.68
131.11
128.98
128.49
129.38
130.95
132.38
133.18
133.30
133.18
133.44
134.56
136.64
139.40
142.42
145.30
147.92
150.41
153.05
156.06
159.40
162.78
165.75
167.90
168.98
169.03
168.36
167.58
167.54
169.13
172.80
178.00
182.83
184.19
178.65
163.62
138.17
103.19
60.74
13.27
-36.86
-87.11
-134.35
-174.72
-204.42
-220.98
-224.39
-217.33
-204.10
-189.05
-175.05
-163.07
-152.65
-142.81
-132.98
-123.21
-113.92
-105.47
-97.90
-90.93
-84.16
-77.34
-70.46
-63.82
-57.75
-52.52
-48.20
-44.71
-41.98
-40.01
-38.91
-38.79
-39.55
-40.83
-42.02
-42.51
-41.96
-40.40
-38.17
-35.74
-33.46
-31.40
-29.34
-26.97
-23.98
-20.35
-16.37
-12.66
-9.98
-8.92
-9.46
-10.71
-10.87
-7.86
-0.10
12.74
29.42
47.44
63.67
75.19
79.87
76.87
66.71
51.24
33.24
15.78
1.47
-8.19
-13.08
-14.23
-13.17
-11.33
-9.64
-8.52
-8.11
-8.44
-9.43
-10.83
-12.18
-12.98
-12.90
-11.92
-10.33
-8.69
-7.49
-7.04
-7.32
-8.00
-8.62
-8.73
-8.13
-6.93
-5.50
-4.29
-3.64
-3.63
-4.08
-4.69
-5.11
-5.17
-4.88
-4.42
-4.01
-3.77
-3.73
-3.74
-3.63
-3.23
-2.49
-1.52
-0.53
0.22
0.56
0.44
0.01
-0.52
-0.92
-1.00
-0.75
-0.23
0.41
1.01
1.52
1.95
2.35
2.77
3.22
3.66
3.99
4.17
4.17
4.05
3.88
3.72
3.58
3.49
3.44
3.43
3.48
3.58
3.67
3.68
3.52
3.17
2.67
2.15
1.74
1.57
1.68
2.01
2.43
2.78
2.94
2.85
2.53
2.05
1.48
0.89
0.28
-0.39
-1.14
-1.96
-2.80
-3.58
-4.20
-4.65
-4.92
-5.03
-4.97
-4.72
-4.26
-3.63
-2.92
-2.27
-1.84
-1.68
-1.78
-2.05
-2.41
-2.79
-3.16
-3.50
-3.77
-3.91
-3.85
-3.55
-3.04
-2.40
-1.73
-1.13
-0.66
-0.29
0.03
0.33
0.64
0.92
1.11
1.16
1.08
0.87
0.60
0.32
0.09
-0.05
-0.09
-0.08
-0.06
-0.09
-0.19
-0.32
-0.43
-0.48
-0.45
-0.37
-0.27
-0.13
0.06
0.34
0.66
0.97
1.17
1.22
1.14
1.01
0.91
0.87
0.86
0.80
