1660938542.00
64.000000
-0.00
-0.00
-0.00
-0.00
-0.00
-0.00
-0.00
-0.00
-0.00
-0.00
0.00
0.01
0.01
-0.00
-0.03
-0.05
-0.05
0.00
0.13
0.36
0.66
1.01
1.37
1.72
2.06
2.40
2.79
3.25
3.81
4.44
5.10
5.73
6.32
6.90
7.52
8.26
9.15
10.27
11.51
12.74
13.85
14.80
15.70
16.71
18.06
19.89
22.40
25.35
28.46
31.44
34.17
36.77
39.60
43.11
47.59
53.35
59.99
66.93
73.65
79.88
85.83
92.10
99.42
108.24
118.92
130.77
142.91
154.50
165.19
175.34
185.82
198.05
210.56
225.24
242.31
261.63
282.05
301.04
314.83
319.23
311.02
289.05
255.10
212.36
164.74
115.50
66.68
19.24
-26.35
-69.63
-110.10
-147.34
-181.97
-215.30
-249.05
-284.43
-321.23
-357.31
-388.76
-411.09
-420.67
-416.28
-399.65
-374.77
-346.32
-317.97
-291.49
-266.93
-243.55
-220.76
-198.84
-178.52
-160.44
-144.59
-130.27
-116.52
-102.66
-88.60
-74.80
-62.06
-51.00
-41.82
-34.21
-27.53
-21.14
-14.66
-8.11
-1.84
3.71
8.23
11.67
14.26
16.37
18.32
20.27
22.21
23.98
25.39
26.29
26.67
26.61
26.23
25.74
25.26
24.90
24.65
24.44
24.18
23.78
23.21
22.50
21.71
20.92
20.20
19.58
19.04
18.53
18.00
17.38
16.67
15.92
15.20
14.59
14.12
13.79
13.58
13.42
13.28
13.12
12.96
12.77
12.54
12.25
11.87
11.43
10.96
10.51
10.13
9.85
9.69
9.62
9.59
9.57
9.50
9.38
9.21
9.00
8.75
8.43
8.02
7.52
6.98
6.54
6.29
6.28
6.43
6.59
6.56
6.25
5.66
4.91
4.16
3.54
3.09
2.79
2.59
2.44
2.30
2.10
1.77
1.23
0.45
-0.55
-1.62
-2.63
-3.45
-4.05
-4.46
-4.77
-5.06
-5.41
-5.84
-6.38
-6.99
-7.63
-8.20
-8.64
-8.91
-9.02
-9.02
-8.96
-8.86
-8.72
-8.52
-8.29
-8.02
-7.72
-7.32
-6.76
-6.01
-5.15
-4.32
-3.66
-3.22
-2.94
-2.70
-2.36
-1.88
-1.33
-0.83
-0.45
-0.17
0.06
0.34
0.68
1.04
1.34
1.52
1.59
1.61
1.68
1.81
1.99
2.13
2.19
2.20
2.22
2.33
2.61
3.03
3.48
3.85
4.03
4.00
3.82
3.61
3.50
3.56
3.79
4.10
4.41
4.66
4.86
5.05
5.27
5.52
5.74
5.87
5.87
5.80
5.70
5.63
5.56
5.46
5.30
5.11
4.99
5.01
5.21
5.50
5.79
5.95
5.92
5.72
5.40
5.02
4.64
4.31
4.03
3.81
3.61
3.40
3.13
2.82
2.48
2.17
1.87
1.55
1.15
0.64
0.01
-0.66
-1.31
-1.88
-2.35
-2.70
-2.87
-2.80
-2.44
-1.82
-1.05
-0.30
0.23
0.43
0.32
0.01
-0.32
-0.57
-0.66
-0.63
-0.51
-0.30
-0.00
0.37
0.78
1.15
1.41
1.56
1.65
1.75
1.92
2.12
2.29
2.36
2.31
2.19
2.05
1.93
1.82
1.68
1.50
1.31
1.19
1.19
1.31
1.45
1.51
1.37
1.02
0.55
0.11
-0.16
-0.17
0.03
0.35
0.66
0.90
1.07
1.22
1.38
1.55
1.70
1.78
1.79
1.80
1.86
2.01
2.19
2.31
2.25
2.01
1.64
1.30
1.12
1.19
1.47
1.86
2.20
2.36
2.29
2.00
1.55
1.03
0.50
0.02
-0.37
-0.65
-0.82
-0.89
-0.87
-0.74
-0.52
-0.23
0.05
0.22
0.18
-0.10
-0.51
-0.91
-1.12
-1.06
-0.76
-0.36
-0.00
0.23
0.35
0.41
0.44
0.45
0.40
0.27
0.08
-0.10
-0.19
-0.17
-0.05
0.11
0.28
0.44
0.62
0.85
1.11
1.37
1.54
1.59
1.53
1.39
1.23
1.10
0.99
0.91
0.83
0.75
0.69
0.64
0.60
0.56
0.51
0.48
0.47
0.52
0.60
0.68
0.73
0.70
0.59
0.42
0.21
-0.00
-0.19
-0.34
-0.44
-0.48
-0.47
-0.41
-0.32
-0.20
-0.09
-0.01
0.04
0.07
0.09
0.13
0.17
0.16
0.06
-0.15
-0.41
-0.62
-0.68
-0.57
-0.35
-0.14
-0.01
0.01
0.00
0.06
0.21
0.42
0.55
0.52
0.33
0.06
-0.11
-0.07
0.17
0.51
0.79
0.90
0.81
0.59
0.36
0.20
0.13
0.13
0.15
0.21
0.33
0.57
0.92
1.32
1.66
1.86
1.89
1.85
1.85
1.96
2.17
2.36
2.40
2.23
1.91
1.58
1.41
1.44
1.59
1.72
1.67
1.39
0.95
0.51
0.21
0.08
0.08
0.09
0.01
-0.18
-0.45
-0.74
-0.98
-1.13
-1.17
-1.11
-1.00
-0.85
-0.72
-0.66
-0.69
-0.84
-1.10
-1.45
-1.82
-2.13
-2.30
-2.30
-2.13
-1.83
-1.49
-1.17
-0.91
-0.70
-0.51
-0.30
-0.06
0.19
0.43
0.61
0.73
0.80
0.85
0.93
1.02
1.09
1.04
0.82
0.42
-0.07
-0.51
-0.76
-0.74
-0.49
-0.11
0.25
0.48
0.52
0.35
0.03
-0.34
-0.63
-0.75
-0.63
-0.32
0.10
0.50
0.78
0.92
0.95
0.92
0.87
0.82
0.74
0.61
0.46
0.31
0.21
0.14
0.06
-0.08
-0.30
-0.59
-0.88
-1.10
-1.20
-1.16
-1.04
-0.87
-0.71
-0.59
-0.52
-0.48
-0.47
-0.45
-0.39
-0.25
0.01
0.37
0.79
1.21
1.52
1.62
1.47
1.10
0.61
0.16
-0.14
-0.21
-0.12
0.02
0.13
0.14
0.11
0.11
0.20
0.38
0.60
0.76
0.81
0.77
0.68
0.61
0.58
0.58
0.60
0.61
0.63
0.67
0.76
0.88
0.98
1.03
1.01
0.96
0.94
0.99
1.13
1.28
1.36
1.33
1.20
1.03
0.90
0.84
0.80
0.73
0.53
0.21
-0.21
-0.62
-0.96
-1.17
-1.27
-1.29
-1.25
-1.17
-1.04
-0.87
-0.64
-0.38
-0.12
0.10
0.26
0.34
0.33
0.24
0.10
-0.05
-0.16
-0.19
-0.15
-0.09
-0.06
-0.12
-0.27
-0.48
-0.69
-0.82
-0.84
-0.77
-0.62
-0.44
-0.24
-0.02
0.22
0.45
0.60
0.57
0.31
-0.11
-0.56
-0.87
-0.92
-0.70
-0.30
0.12
0.44
0.63
0.70
0.71
0.69
0.64
0.54
0.38
0.21
0.09
0.04
0.09
0.20
0.31
0.41
0.44
0.40
0.24
-0.05
-0.43
-0.80
-1.02
-0.97
-0.63
-0.10
0.45
0.85
0.99
0.88
0.59
0.22
-0.15
-0.48
-0.75
-0.97
-1.16
-1.33
-1.46
-1.52
-1.47
-1.33
-1.10
-0.85
-0.63
-0.48
-0.43
-0.47
-0.56
-0.65
-0.72
-0.72
-0.65
-0.52
-0.38
-0.27
-0.19
-0.14
-0.03
0.17
0.45
0.72
0.90
0.93
0.84
0.71
0.66
0.76
1.01
1.34
1.66
1.89
1.97
1.89
1.66
1.33
0.93
0.53
0.21
0.02
0.01
0.18
0.47
0.81
1.09
1.22
1.17
0.97
0.71
0.49
0.34
0.23
0.12
-0.07
-0.31
-0.55
-0.69
-0.68
-0.54
-0.37
-0.23
-0.19
-0.20
-0.20
-0.16
-0.05
0.05
0.06
-0.05
-0.29
-0.56
-0.78
-0.87
-0.84
-0.70
-0.52
-0.33
-0.13
0.12
0.42
0.74
1.02
1.17
1.11
0.84
0.42
-0.02
-0.34
-0.47
-0.40
-0.21
-0.02
0.09
0.07
-0.02
-0.11
-0.14
-0.14
-0.14
-0.20
-0.32
-0.45
-0.51
-0.50
-0.46
-0.48
-0.61
-0.80
-0.93
-0.87
-0.56
-0.08
0.41
0.73
0.80
0.66
0.44
0.27
0.20
0.22
0.27
0.33
0.41
0.56
0.77
0.97
1.02
0.80
0.28
-0.45
-1.19
-1.78
-2.12
-2.21
-2.16
-2.11
-2.17
-2.42
-2.91
-3.60
-4.42
-5.20
-5.76
-5.94
-5.73
-5.26
-4.82
-4.72
-5.19
-6.27
-7.81
-9.46
-10.91
-11.95
-12.62
-13.25
-14.34
-16.35
-19.50
-23.61
-28.16
-32.49
-36.11
-38.98
-41.60
-44.79
-49.35
-55.63
-63.31
-71.56
-79.42
-86.18
-91.62
-95.98
-99.69
-103.23
-107.19
-112.41
-119.80
-129.64
-140.64
-149.81
-153.14
-147.54
-132.63
-111.37
-89.18
-71.81
-63.20
-64.26
-73.12
-86.04
-98.66
-106.69
-106.29
-94.30
-68.91
-30.42
18.18
71.41
122.53
165.18
194.96
210.41
213.04
206.52
195.38
183.66
173.97
167.23
163.07
160.49
158.48
156.33
153.71
150.68
147.66
145.38
144.75
146.50
150.94
157.78
166.09
174.71
182.56
189.08
194.41
199.18
204.18
210.01
216.95
224.88
233.29
241.10
246.55
247.23
240.67
225.06
200.04
166.87
127.82
85.12
40.01
-7.30
-56.73
-106.99
-154.83
-195.56
-224.67
-239.74
-241.53
-233.54
-220.46
-206.23
-192.97
-180.86
-169.20
-157.50
-146.06
-135.71
-127.15
-120.33
-114.39
-108.14
-100.69
-91.92
-82.50
-73.51
-65.92
-60.14
-55.92
-52.53
-49.13
-45.12
-40.38
-35.22
-30.20
-25.86
-22.48
-19.99
-18.09
-16.34
-14.40
-12.17
-9.76
-7.41
-5.41
-3.89
-2.83
-2.05
-1.35
-0.59
0.21
0.93
1.39
1.50
1.29
0.93
0.59
0.41
0.39
0.44
0.44
0.29
0.00
-0.34
-0.61
-0.71
-0.59
-0.28
0.12
0.48
0.67
0.59
0.24
-0.33
-0.98
-1.56
-1.97
-2.16
-2.09
-1.79
-1.27
-0.58
0.16
0.79
1.14
1.10
0.69
0.06
-0.56
-0.93
-0.95
-0.60
0.01
0.71
1.35
1.81
2.00
1.87
1.40
0.62
-0.39
-1.50
-2.53
-3.33
-3.80
-3.92
-3.80
-3.59
-3.47
-3.54
-3.79
-4.10
-4.28
-4.19
-3.82
-3.31
-2.90
-2.75
-2.91
-3.22
-3.41
-3.21
-2.52
-1.43
-0.14
1.20
2.49
3.75
4.97
6.04
6.75
6.87
6.30
5.18
3.83
2.61
1.75
1.30
1.17
1.19
1.24
1.28
1.35
1.47
1.63
1.79
1.87
1.83
1.68
1.49
1.38
1.44
1.71
2.16
2.65
3.00
3.10
2.94
2.65
2.41
2.37
2.58
2.95
3.29
3.44
3.30
2.89
2.28
1.57
0.82
0.03
-0.81
-1.65
-2.44
-3.08
-3.50
-3.72
-3.79
-3.79
-3.78
-3.74
-3.63
-3.37
-2.98
-2.49
-2.03
-1.68
-1.47
-1.32
-1.09
-0.64
0.09
1.02
1.95
2.66
3.03
3.09
3.00
2.98
3.14
3.42
3.63
3.57
3.13
2.37
1.49
0.70
0.14
-0.16
-0.28
-0.29
-0.24
-0.15
-0.03
0.11
0.25
0.37
0.47
0.53
0.51
0.39
0.14
-0.23
-0.68
-1.15
-1.58
-1.98
-2.37
-2.75
-3.10
-3.36
-3.52
-3.65
-3.90
-4.45
-5.39
-6.64
-7.96
-9.02
-9.51
-9.30
-8.43
-7.10
-5.61
-4.19
-3.00
-1.99
-1.04
0.05
1.43
3.10
4.90
6.57
7.85
8.59
8.77
8.52
8.03
7.45
6.87
6.30
5.75
5.19
4.62
4.06
3.51
3.02
2.59
2.22
1.88
1.59
1.39
1.34
1.52
1.95
2.54
3.15
3.58
3.69
3.43
2.80
1.88
0.74
-0.52
-1.77
-2.86
-3.65
-4.06
-4.12
-3.99
-3.86
-3.87
-4.02
-4.18
-4.15
-3.80
-3.17
-2.47
-1.93
-1.78
-2.02
-2.49
-2.94
-3.13
-2.95
-2.49
-1.94
-1.49
-1.24
-1.20
-1.27
-1.37
-1.44
-1.50
-1.60
-1.73
-1.88
-1.94
-1.84
-1.54
-1.08
-0.55
-0.02
0.50
1.03
1.63
2.33
3.05
3.67
4.03
4.08
3.84
3.46
3.08
2.79
2.58
2.34
2.02
1.59
1.11
0.65
0.24
-0.15
-0.55
-0.94
-1.24
-1.32
-1.12
-0.69
-0.20
0.19
0.39
0.40
0.32
0.25
0.25
0.27
0.27
0.19
0.03
-0.18
-0.40
-0.58
-0.70
-0.70
-0.61
-0.45
-0.29
-0.18
-0.19
-0.28
-0.41
-0.48
-0.48
-0.39
-0.29
-0.26
-0.35
-0.60
-0.99
-1.52
-2.14
-2.77
-3.26
-3.45
-3.21
-2.56
-1.66
-0.80
-0.25
-0.16
-0.49
-1.07
-1.72
-2.32
-2.84
-3.32
-3.76
-4.12
-4.26
-4.06
-3.47
-2.53
-1.42
-0.29
0.74
1.62
2.38
3.09
3.78
4.42
4.96
5.31
5.42
5.30
5.06
4.80
4.61
4.52
4.47
4.34
4.02
3.44
2.65
1.78
0.99
0.39
-0.03
-0.32
-0.59
-0.89
-1.23
-1.59
-1.95
-2.30
-2.65
-2.98
-3.26
-3.43
-3.49
-3.47
-3.45
-3.49
-3.54
-3.53
-3.35
-2.97
-2.49
-2.06
-1.77
-1.60
-1.41
-0.99
-0.25
0.73
1.81
2.79
3.62
4.32
4.98
5.61
6.15
6.47
6.43
6.03
5.36
4.60
3.95
3.54
3.40
3.46
3.61
3.69
3.58
3.22
2.63
1.89
1.13
0.40
-0.25
-0.83
-1.34
-1.75
-2.04
-2.21
-2.32
-2.44
-2.63
-2.86
-3.02
-2.97
-2.66
-2.15
-1.57
-1.09
-0.81
-0.73
-0.81
-0.97
-1.19
-1.45
-1.74
-1.99
-2.11
-2.00
-1.64
-1.07
-0.45
0.07
0.40
0.47
0.34
0.08
-0.19
-0.41
-0.53
-0.56
-0.53
-0.50
-0.47
-0.47
-0.49
-0.56
-0.70
-0.94
-1.22
-1.45
-1.48
-1.22
-0.64
0.15
0.95
1.56
1.89
1.95
1.86
1.76
1.71
1.71
1.68
1.58
1.38
1.12
0.86
0.69
0.65
0.75
0.99
1.29
1.56
1.66
1.47
0.95
0.14
-0.80
-1.72
-2.48
-3.03
-3.40
-3.61
-3.68
-3.63
-3.40
-3.02
-2.53
-2.01
-1.54
-1.18
-0.89
-0.62
-0.26
0.22
0.78
1.29
1.60
1.61
1.32
0.86
0.40
0.05
-0.16
-0.28
-0.42
-0.61
-0.84
-1.07
-1.26
-1.42
-1.59
-1.83
-2.18
-2.58
-2.93
-3.09
-2.97
-2.57
-2.00
-1.42
-0.97
-0.69
-0.49
-0.21
0.26
0.95
1.73
2.42
2.90
3.16
3.31
3.43
3.60
3.76
3.79
3.59
3.11
2.41
1.62
0.91
0.42
0.19
0.23
0.44
0.73
0.99
1.20
1.33
1.39
1.34
1.13
0.71
0.07
-0.67
-1.33
-1.72
-1.74
-1.42
-0.89
-0.35
0.02
0.10
-0.09
-0.48
-0.91
-1.24
-1.38
-1.31
-1.07
-0.78
-0.55
-0.46
-0.51
-0.63
-0.75
-0.80
-0.79
-0.75
-0.74
-0.81
-0.94
-1.09
-1.19
-1.19
-1.12
-1.00
-0.91
-0.88
-0.88
-0.86
-0.75
-0.52
-0.17
0.23
0.58
0.78
0.82
0.75
0.72
0.89
1.34
2.02
2.75
3.31
3.55
3.42
3.03
2.53
2.02
1.53
1.02
0.43
-0.23
-0.87
-1.36
-1.61
-1.66
-1.62
-1.68
-1.95
-2.46
-3.06
-3.56
-3.78
-3.69
-3.40
-3.12
-3.02
-3.14
-3.37
-3.55
-3.57
-3.46
-3.39
-3.55
-4.03
-4.77
-5.58
-6.24
-6.61
-6.62
-6.31
-5.69
-4.75
-3.46
-1.79
0.22
2.43
4.61
6.54
8.04
9.04
9.58
9.76
9.65
9.34
8.87
8.27
7.60
6.89
6.20
5.49
4.75
3.94
3.09
2.31
1.72
1.39
1.34
1.51
1.86
2.41
3.14
4.00
4.79
5.20
4.97
4.00
2.46
0.72
-0.79
-1.80
-2.30
-2.45
-2.50
-2.58
-2.64
-2.52
-2.13
-1.46
-0.70
-0.15
-0.03
-0.43
-1.22
-2.14
-2.91
-3.35
-3.44
-3.32
-3.15
-3.05
-3.04
-3.08
-3.08
-3.04
-3.00
-3.02
-3.13
-3.31
-3.44
-3.42
-3.20
-2.80
-2.31
-1.84
-1.46
-1.22
-1.09
-1.00
-0.88
-0.66
-0.31
0.19
0.83
1.60
2.39
3.10
3.54
3.59
3.20
2.45
1.56
0.74
0.16
-0.12
-0.16
-0.05
0.13
0.32
0.52
0.68
0.75
0.67
0.46
0.23
0.14
0.30
0.74
1.35
1.94
2.29
2.30
1.98
1.43
0.80
0.20
-0.31
-0.74
-1.09
-1.32
-1.36
-1.08
-0.43
0.52
1.55
2.39
2.77
2.61
2.04
1.33
0.76
0.50
0.52
0.67
0.77
0.72
0.56
0.40
0.36
0.47
0.69
0.95
1.16
1.30
1.36
1.36
1.34
1.32
1.33
1.42
1.58
1.81
2.06
2.26
2.37
2.32
2.11
1.76
1.35
0.95
0.61
0.33
0.07
-0.21
-0.55
-0.99
-1.50
-2.11
-2.80
-3.52
-4.21
-4.72
-4.96
-4.94
-4.80
-4.74
-4.95
-5.49
-6.23
-6.99
-7.56
-7.87
-7.98
-8.02
-8.11
-8.28
-8.46
-8.52
-8.31
-7.71
-6.61
-4.99
-2.84
-0.21
2.79
5.91
8.83
11.18
12.65
13.08
12.57
11.43
10.09
8.93
8.16
7.76
7.59
7.46
7.27
6.98
6.57
5.99
5.16
4.00
2.58
1.07
-0.24
-1.13
-1.54
-1.57
-1.40
-1.24
-1.18
-1.22
-1.27
-1.28
-1.17
-0.93
-0.54
-0.02
0.54
1.03
1.29
1.23
0.92
0.49
0.13
-0.08
-0.18
-0.29
-0.51
-0.83
-1.17
-1.41
-1.55
-1.67
-1.95
-2.51
-3.35
-4.34
-5.28
-5.98
-6.32
-6.33
-6.09
-5.71
-5.32
-5.00
-4.79
-4.68
-4.62
-4.51
-4.23
-3.67
-2.70
-1.26
0.59
2.69
4.76
6.45
7.50
7.74
7.24
6.22
4.97
3.79
2.84
2.20
1.87
1.80
1.95
2.30
2.78
3.28
3.63
3.66
3.23
2.35
1.16
-0.11
-1.22
-2.01
-2.49
-2.79
-3.08
-3.44
-3.84
-4.18
-4.33
-4.23
-3.89
-3.38
-2.75
-2.06
-1.35
-0.70
-0.20
0.08
0.12
0.04
-0.04
-0.01
0.16
0.37
0.53
0.54
0.41
0.20
0.03
-0.08
-0.15
-0.27
-0.50
-0.88
-1.32
-1.72
-1.93
-1.89
-1.60
-1.11
-0.50
0.16
0.81
1.42
1.92
2.24
2.35
2.25
1.99
1.66
1.32
1.01
0.74
0.48
0.23
-0.00
-0.19
-0.32
-0.38
-0.43
-0.53
-0.76
-1.14
-1.62
-2.11
-2.50
-2.73
-2.80
-2.75
-2.64
-2.48
-2.29
-2.04
-1.76
-1.46
-1.23
-1.08
-1.00
-0.93
-0.83
-0.67
-0.52
-0.44
-0.51
-0.73
-1.03
-1.24
-1.18
-0.71
0.26
1.67
3.36
5.05
6.43
7.27
7.48
7.15
6.49
5.73
5.04
4.46
3.94
3.36
2.65
1.83
0.97
0.21
-0.35
-0.67
-0.77
-0.74
-0.69
-0.68
-0.76
-0.91
-1.10
-1.29
-1.49
-1.70
-1.88
-1.98
-1.93
-1.71
-1.39
-1.11
-1.05
-1.33
-1.97
-2.83
-3.70
-4.38
-4.79
-4.92
-4.85
-4.67
-4.42
-4.13
-3.87
-3.71
-3.75
-4.01
-4.40
-4.74
-4.86
-4.69
-4.34
-4.02
-3.95
-4.20
-4.66
-5.10
-5.29
-5.08
-4.49
-3.64
-2.74
-1.97
-1.52
-1.54
-2.09
-3.05
-4.06
-4.57
-3.99
-2.00
1.33
5.45
9.54
12.84
14.86
15.57
15.29
14.43
13.37
12.26
11.11
9.85
8.50
7.15
5.99
5.21
4.88
4.93
5.15
5.27
5.12
4.67
4.00
3.32
2.78
2.49
2.45
2.67
3.21
4.11
5.32
6.58
7.47
7.52
6.48
4.47
1.94
-0.46
-2.21
-3.05
-3.07
-2.53
-1.73
-0.82
0.12
1.05
1.89
2.47
2.64
2.28
1.40
0.06
-1.61
-3.44
-5.28
-6.98
-8.44
-9.58
-10.41
-10.96
-11.29
-11.42
-11.40
-11.23
-11.00
-10.82
-10.78
-10.96
-11.33
-11.74
-11.96
-11.78
-11.04
-9.74
-8.03
-6.13
-4.25
-2.46
-0.68
1.21
3.28
5.52
7.73
9.69
11.20
12.19
12.70
12.82
12.66
12.29
11.73
11.03
10.20
9.32
8.43
7.57
6.72
5.83
4.87
3.83
2.80
1.98
1.54
1.56
1.91
2.27
2.27
1.65
0.41
-1.20
-2.80
-4.11
-5.07
-5.77
-6.39
-7.02
-7.63
-8.09
-8.28
-8.17
-7.83
-7.41
-7.00
-6.69
-6.52
-6.49
-6.61
-6.89
-7.28
-7.72
-8.13
-8.41
-8.49
-8.34
-7.89
-7.15
-6.14
-4.92
-3.52
-2.02
-0.42
1.32
3.27
5.52
8.12
11.01
13.99
16.74
18.90
20.22
20.63
20.27
19.45
18.49
17.61
16.81
15.97
14.90
13.46
11.62
9.42
6.97
4.40
1.89
-0.42
-2.45
-4.20
-5.77
-7.28
-8.80
-10.27
-11.56
-12.51
-13.07
-13.27
-13.29
-13.29
-13.35
-13.45
-13.44
-13.17
-12.51
-11.39
-9.79
-7.77
-5.43
-2.97
-0.68
1.12
2.15
2.35
1.96
1.48
1.44
2.18
3.67
5.51
7.13
8.04
8.10
7.44
6.38
5.22
4.13
3.10
2.11
1.15
0.28
-0.40
-0.81
-0.94
-0.85
-0.65
-0.47
-0.44
-0.62
-0.98
-1.42
-1.81
-2.03
-2.05
-1.90
-1.67
-1.41
-1.12
-0.78
-0.35
0.12
0.52
0.75
0.73
0.45
-0.02
-0.58
-1.14
-1.65
-2.09
-2.41
-2.58
-2.57
-2.43
-2.24
-2.16
-2.25
-2.49
-2.74
-2.80
-2.53
-1.90
-1.10
-0.35
0.12
0.20
-0.06
-0.52
-0.97
-1.27
-1.28
-0.91
-0.11
1.13
2.71
4.40
5.86
6.75
6.89
6.30
5.24
4.08
3.18
2.72
2.70
2.95
3.24
3.41
3.39
3.20
2.90
2.55
2.17
1.78
1.38
0.99
0.65
0.37
0.15
-0.03
-0.24
-0.51
-0.86
-1.24
-1.59
-1.83
-1.94
-1.94
-1.90
-1.92
-2.07
-2.29
-2.46
-2.40
-2.00
-1.28
-0.37
0.46
1.00
1.11
0.84
0.33
-0.21
-0.65
-0.93
-1.04
-1.01
-0.87
-0.69
-0.58
-0.70
-1.17
-2.03
-3.15
-4.28
-5.15
-5.56
-5.52
-5.16
-4.68
-4.25
-3.88
-3.53
-3.13
-2.69
-2.23
-1.78
-1.30
-0.65
0.29
1.55
3.00
4.38
5.42
5.96
6.01
5.75
5.40
5.06
4.70
4.17
3.32
2.12
0.77
-0.45
-1.25
-1.45
-1.15
-0.59
-0.05
0.26
0.31
0.20
0.09
0.05
0.08
0.08
-0.04
-0.29
-0.62
-0.91
-1.09
-1.14
-1.14
-1.18
-1.30
-1.48
-1.60
-1.48
-1.02
-0.19
0.88
1.94
2.75
3.15
3.13
2.80
2.35
1.94
1.63
1.38
1.11
0.77
0.37
-0.09
-0.56
-1.07
-1.63
-2.18
-2.63
-2.82
-2.65
-2.12
-1.39
-0.67
-0.14
0.11
0.18
0.19
0.29
0.51
0.81
1.08
1.24
1.25
1.12
0.89
0.59
0.22
-0.20
-0.69
-1.20
-1.70
-2.09
-2.29
-2.26
-2.03
-1.71
-1.44
-1.33
-1.40
-1.60
-1.80
-1.91
-1.91
-1.84
-1.80
-1.82
-1.93
-2.10
-2.29
-2.50
-2.73
-2.97
-3.18
-3.29
-3.25
-3.10
-2.93
-2.89
-3.09
-3.48
-3.92
-4.13
-3.92
-3.14
-1.84
-0.13
1.75
3.55
5.04
6.07
6.60
6.71
6.55
6.30
6.12
6.05
6.11
6.24
6.36
6.40
6.27
5.92
5.32
4.56
3.75
3.00
2.37
1.80
1.21
0.52
-0.26
-1.03
-1.61
-1.88
-1.79
-1.36
-0.70
0.04
0.75
1.30
1.60
1.57
1.16
0.44
-0.45
-1.33
-1.99
-2.32
-2.30
-1.99
-1.47
-0.84
-0.14
0.61
1.35
1.97
2.35
2.36
2.00
1.34
0.56
-0.21
-0.87
-1.46
-2.05
-2.70
-3.41
-4.05
-4.51
-4.70
-4.60
-4.29
-3.88
-3.50
-3.22
-3.07
-3.05
-3.14
-3.26
-3.33
-3.24
-2.92
-2.34
-1.60
-0.82
-0.12
0.44
0.87
1.26
1.69
2.19
2.72
3.21
3.60
3.85
3.94
3.83
3.50
2.90
2.04
1.02
0.01
-0.84
-1.46
-1.87
-2.19
-2.50
-2.83
-3.12
-3.27
-3.21
-2.92
-2.42
-1.72
-0.85
0.19
1.33
2.43
3.31
3.81
3.84
3.45
2.77
1.99
1.25
0.62
0.16
-0.10
-0.08
0.30
1.04
2.05
3.11
3.93
4.26
3.92
2.95
1.53
-0.04
-1.45
-2.44
-2.87
-2.80
-2.37
-1.78
-1.18
-0.63
-0.10
0.49
1.20
2.02
2.85
3.56
3.97
3.98
3.57
2.85
2.00
1.25
0.77
0.65
0.85
1.21
1.53
1.64
1.44
0.99
0.42
-0.09
-0.41
-0.53
-0.53
-0.59
-0.82
-1.26
-1.80
-2.29
-2.63
-2.81
-2.91
-3.05
-3.32
-3.70
-4.13
-4.48
-4.62
-4.52
-4.24
-3.91
-3.72
-3.82
-4.25
-4.90
-5.53
-5.76
-5.25
-3.82
-1.51
1.33
4.09
6.15
7.05
6.69
5.43
3.96
2.99
3.00
3.99
5.54
7.02
7.91
7.96
7.27
6.07
4.63
3.11
1.59
0.10
-1.26
-2.34
-3.04
-3.30
-3.20
-2.89
-2.51
-2.18
-1.94
-1.76
-1.62
-1.46
-1.29
-1.14
-1.04
-1.03
-1.12
-1.24
-1.29
-1.18
-0.84
-0.29
0.38
1.01
1.44
1.58
1.35
0.80
0.07
-0.68
-1.25
-1.53
-1.52
-1.32
-1.14
-1.19
-1.61
-2.35
-3.26
-4.10
-4.67
-4.88
-4.75
-4.37
-3.84
-3.25
-2.65
-2.10
-1.68
-1.41
-1.21
-0.89
-0.21
0.91
2.35
3.71
4.58
4.68
4.06
3.07
2.16
1.64
1.55
1.69
1.79
1.69
1.42
1.14
0.99
0.98
0.96
0.75
0.24
-0.52
-1.34
-2.01
-2.43
-2.63
-2.73
-2.84
-3.00
-3.15
-3.18
-3.03
-2.65
-2.06
-1.21
-0.05
1.48
3.29
5.19
6.83
7.87
8.13
7.63
6.60
5.32
4.08
3.00
2.08
1.27
0.47
-0.31
-1.04
-1.65
-2.11
-2.42
-2.61
-2.70
-2.66
-2.44
-1.96
-1.20
-0.24
0.76
1.63
2.20
2.39
2.24
1.89
1.51
1.20
1.02
0.91
0.75
0.46
-0.00
-0.62
-1.30
-1.97
-2.56
-3.03
-3.39
-3.63
-3.73
-3.63
-3.34
-2.90
-2.40
-2.00
-1.82
-1.93
-2.29
-2.82
-3.35
-3.74
-3.87
-3.69
-3.18
-2.42
-1.54
-0.69
-0.01
0.38
0.50
0.43
0.32
0.36
0.67
1.36
2.39
3.64
4.83
5.65
5.87
5.40
4.38
3.12
1.96
1.17
0.83
0.86
1.07
1.26
1.26
0.99
0.49
-0.15
-0.75
-1.14
-1.22
-0.99
-0.56
-0.06
0.41
0.83
1.26
1.76
2.36
3.03
3.71
4.29
4.66
4.73
4.44
3.74
2.68
1.39
0.06
-1.07
-1.85
-2.24
-2.34
-2.30
-2.25
-2.24
-2.23
-2.13
-1.88
-1.53
-1.20
-0.98
-0.92
-0.96
-0.99
-0.93
-0.77
-0.61
-0.53
-0.57
-0.71
-0.88
-1.02
-1.12
-1.23
-1.42
-1.70
-2.08
-2.52
-2.96
-3.35
-3.63
-3.76
-3.77
-3.71
-3.70
-3.83
-4.08
-4.37
-4.58
-4.62
-4.51
-4.42
-4.50
-4.93
-5.72
-6.73
-7.73
-8.45
-8.68
-8.39
-7.73
-7.05
-6.81
-7.36
-8.81
-10.90
-13.11
-14.82
-15.57
-15.29
-14.39
-13.58
-13.59
-14.84
-17.11
-19.67
-21.45
-21.59
-19.93
-16.99
-13.76
-11.05
-8.94
-6.67
-3.20
2.17
9.57
18.94
30.48
44.41
60.25
75.82
87.24
90.20
82.18
64.26
41.20
19.48
4.42
-2.08
-1.81
1.34
3.75
3.71
1.60
-1.26
-3.74
-5.59
-7.17
-8.92
-11.03
-13.28
-15.27
-16.72
-17.67
-18.35
-19.16
-20.44
-22.39
-25.02
-28.17
-31.54
-34.81
-37.67
-39.88
-41.38
-42.35
-43.21
-44.56
-46.93
-50.54
-55.14
-60.04
-64.22
-66.72
-66.96
-65.06
-61.77
-58.29
-55.93
-55.82
-58.72
-64.63
-72.44
-79.46
-81.66
-74.74
-56.03
-26.15
10.46
46.78
75.86
93.39
99.15
96.29
89.26
81.56
74.56
67.90
60.75
53.03
45.62
39.71
35.85
33.51
31.34
27.88
22.39
15.16
7.38
0.49
-4.42
-7.00
-7.77
-7.74
-7.98
-9.25
-11.80
-15.40
-19.68
-24.29
-29.07
-33.80
-37.97
-40.51
-39.82
-34.22
-22.67
-5.41
15.81
38.15
58.57
74.75
85.64
91.55
93.69
93.59
92.68
92.19
92.94
95.10
97.85
99.30
96.97
88.85
74.39
55.14
34.30
15.50
1.35
-7.38
-11.71
-13.49
-14.34
-14.89
-14.86
-13.61
-10.88
-7.05
-3.05
0.17
2.11
2.98
3.65
5.22
8.42
13.26
18.99
24.49
28.81
31.73
33.87
36.31
39.94
44.87
50.27
54.81
57.31
57.35
55.55
53.25
52.06
53.30
57.96
66.62
79.33
95.22
111.94
125.42
130.34
121.68
96.77
56.90
7.63
-42.67
-85.58
-115.35
-130.42
-133.14
-127.93
-119.13
-109.54
-100.21
-91.28
-82.89
-75.70
-70.55
-67.85
-67.01
-66.62
-65.04
-61.32
-55.58
-48.93
-42.89
-38.66
-36.52
-35.84
-35.45
-34.21
-31.57
-27.73
-23.49
-19.80
-17.30
-16.04
-15.61
-15.34
-14.62
-13.18
-11.11
-8.77
-6.65
-5.14
-4.38
-4.28
-4.53
-4.77
-4.72
-4.28
-3.55
-2.76
-2.09
-1.65
-1.39
-1.25
-1.17
-1.14
-1.20
-1.35
-1.54
-1.68
-1.67
-1.49
-1.19
-0.88
-0.68
-0.63
-0.74
-0.90
-1.04
-1.08
-1.03
-0.93
-0.86
-0.84
-0.87
-0.92
-0.97
-1.02
-1.11
-1.27
-1.50
-1.73
-1.87
-1.82
-1.57
-1.16
-0.69
-0.24
0.10
0.33
0.45
0.51
0.51
0.47
0.38
0.24
0.07
-0.08
-0.16
-0.16
-0.10
-0.03
-0.00
-0.04
-0.11
-0.17
-0.17
-0.09
0.06
0.27
0.49
0.69
0.82
0.83
0.70
0.43
0.09
-0.22
-0.41
-0.45
-0.37
-0.22
-0.03
0.17
0.36
0.51
0.58
0.49
0.22
-0.18
-0.57
-0.80
-0.76
-0.45
0.01
0.44
0.67
0.64
0.41
0.13
-0.07
-0.10
-0.02
0.07
0.06
-0.04
-0.19
-0.31
-0.35
-0.32
-0.27
-0.21
-0.13
0.01
0.22
0.43
0.51
0.39
0.08
-0.30
-0.57
-0.62
-0.44
-0.11
0.21
0.44
0.55
0.57
0.56
0.56
0.54
0.50
0.42
0.32
0.24
0.23
0.27
0.32
0.29
0.13
-0.13
-0.42
-0.61
-0.61
-0.38
0.00
0.41
0.70
0.79
0.64
0.32
-0.08
-0.47
-0.76
-0.90
-0.90
-0.78
-0.56
-0.27
0.09
0.49
0.86
1.11
1.15
0.93
0.46
-0.14
-0.71
-1.11
-1.26
-1.18
-0.99
-0.78
-0.65
-0.64
-0.69
-0.74
-0.69
-0.48
-0.13
0.30
0.67
0.87
0.86
0.64
0.36
0.13
0.06
0.16
0.36
0.57
0.69
0.66
0.51
0.30
0.12
0.05
0.08
0.18
0.26
0.20
-0.02
-0.34
-0.63
-0.75
-0.62
-0.30
0.05
0.25
0.17
-0.15
-0.59
-0.95
-1.11
-1.04
-0.81
-0.53
-0.29
-0.11
-0.00
0.03
-0.01
-0.13
-0.28
-0.41
-0.47
-0.41
-0.27
-0.09
0.05
0.10
0.04
-0.09
-0.24
-0.38
-0.45
-0.46
-0.42
-0.37
-0.36
-0.41
-0.53
-0.68
-0.81
-0.88
-0.84
-0.72
-0.55
-0.40
-0.28
-0.19
-0.08
0.07
0.24
0.37
0.40
0.30
0.10
-0.07
-0.10
0.06
0.35
0.67
0.87
0.88
0.71
0.45
0.22
0.10
0.13
0.32
0.60
0.90
1.13
1.23
1.18
1.01
0.79
0.57
0.37
0.20
0.07
0.01
0.07
0.25
0.50
0.71
0.78
0.65
0.36
0.02
-0.25
-0.39
-0.41
-0.38
-0.35
-0.31
-0.21
-0.01
0.32
0.70
1.01
1.14
1.04
0.75
0.38
0.06
-0.12
-0.14
-0.06
0.04
0.09
0.08
0.01
-0.08
-0.18
-0.29
-0.42
-0.59
-0.79
-0.98
-1.11
-1.15
-1.05
-0.80
-0.43
-0.05
0.26
0.40
0.33
0.08
-0.23
-0.49
-0.57
-0.46
-0.18
0.16
0.47
0.69
0.81
0.85
0.84
0.79
0.70
0.59
0.48
0.40
0.35
0.30
0.23
0.09
-0.11
-0.32
-0.48
-0.54
-0.52
-0.48
-0.47
-0.52
-0.58
-0.58
-0.45
-0.16
0.24
0.64
0.94
1.05
0.95
0.66
0.28
-0.10
-0.40
-0.55
-0.57
-0.47
-0.29
-0.10
0.04
0.07
-0.03
-0.22
-0.44
-0.57
-0.56
-0.40
-0.14
0.11
0.27
0.33
0.31
0.29
0.34
0.46
0.62
0.74
0.76
0.66
0.49
0.31
0.22
0.24
0.33
0.41
0.39
0.23
-0.05
-0.37
-0.63
-0.76
-0.75
-0.64
-0.50
-0.39
-0.35
-0.38
-0.44
-0.51
-0.55
-0.57
-0.58
-0.55
-0.46
-0.28
0.01
0.39
0.79
1.13
1.34
1.41
1.34
1.16
0.89
0.53
0.10
-0.34
-0.68
-0.83
-0.72
-0.36
0.15
0.64
0.97
1.05
0.88
0.53
0.11
-0.26
-0.51
-0.60
-0.54
-0.40
-0.28
-0.24
-0.29
-0.37
-0.41
-0.34
-0.18
0.01
0.12
0.11
0.01
-0.12
-0.20
-0.20
-0.15
-0.09
-0.06
-0.03
-0.00
0.05
0.12
0.17
0.14
0.03
-0.13
-0.29
-0.38
-0.37
-0.26
-0.11
0.03
0.12
0.17
0.19
0.21
0.21
0.15
0.02
-0.18
-0.37
-0.47
-0.43
-0.29
-0.13
-0.07
-0.11
-0.21
-0.26
-0.18
0.02
0.22
0.36
0.42
0.43
0.49
0.61
0.72
0.71
0.54
0.23
-0.09
-0.28
-0.28
-0.11
0.13
0.33
0.44
0.43
0.33
0.17
-0.04
-0.27
-0.48
-0.59
-0.54
-0.34
-0.04
0.22
0.35
0.30
0.11
-0.13
-0.32
-0.42
-0.47
-0.52
-0.58
-0.61
-0.55
-0.35
-0.01
0.40
0.77
0.98
1.01
0.85
0.57
0.24
-0.06
-0.31
-0.51
-0.67
-0.78
-0.84
-0.79
-0.58
-0.23
0.17
0.47
0.53
0.31
-0.10
-0.50
-0.74
-0.74
-0.54
-0.27
-0.03
0.15
0.31
0.51
0.75
0.96
1.04
0.90
0.59
0.21
-0.12
-0.33
-0.41
-0.40
-0.35
-0.27
-0.14
0.04
0.22
0.29
0.20
-0.06
-0.40
-0.69
-0.80
-0.72
-0.50
-0.26
-0.07
0.03
0.11
0.22
0.39
0.57
0.67
0.62
0.43
0.17
-0.05
-0.15
-0.10
0.03
0.19
0.34
0.50
0.65
0.79
0.85
0.78
0.57
0.30
0.08
-0.04
-0.04
-0.03
-0.08
-0.23
-0.40
-0.49
-0.42
-0.21
0.04
0.20
0.20
0.05
-0.15
-0.34
-0.46
-0.53
-0.57
-0.57
-0.52
-0.37
-0.15
0.08
0.23
0.26
0.18
0.07
0.00
0.03
0.15
0.31
0.44
0.48
0.40
0.21
-0.07
-0.36
-0.56
-0.60
-0.43
-0.09
0.33
0.69
0.90
0.88
0.65
0.27
-0.17
-0.59
-0.91
-1.08
-1.08
-0.91
-0.61
-0.23
0.12
0.35
0.40
0.24
-0.04
-0.34
-0.52
-0.52
-0.34
-0.06
0.21
0.39
0.43
0.38
0.27
0.18
0.12
0.10
0.09
0.06
0.01
-0.05
-0.07
-0.02
0.09
0.20
0.24
0.14
-0.07
-0.31
-0.46
-0.42
-0.19
0.17
0.50
0.70
0.69
0.49
0.17
-0.18
-0.51
-0.79
-0.99
-1.11
-1.10
-0.93
-0.62
-0.21
0.22
0.56
0.75
0.75
0.58
0.29
-0.05
-0.36
-0.57
-0.64
-0.57
-0.41
-0.21
-0.05
0.04
0.09
0.15
0.26
0.40
0.50
0.48
0.31
0.01
-0.31
-0.51
-0.50
-0.26
0.12
0.49
0.71
0.71
0.51
0.21
-0.02
-0.10
-0.02
0.17
0.38
0.54
0.62
0.63
0.58
0.47
0.28
0.04
-0.21
-0.40
-0.47
-0.42
-0.28
-0.12
-0.03
-0.03
-0.10
-0.16
-0.16
-0.04
0.16
0.39
0.58
0.68
0.69
0.64
0.54
0.40
0.20
-0.09
-0.38
-0.58
-0.58
-0.37
-0.01
0.33
0.52
0.51
0.38
0.26
0.25
0.37
0.51
0.56
0.42
0.10
-0.29
-0.63
-0.82
-0.83
-0.73
-0.59
-0.47
-0.38
-0.30
-0.19
-0.01
0.25
0.55
0.82
1.00
1.01
0.85
0.55
0.20
-0.12
-0.34
-0.41
-0.35
-0.23
-0.12
-0.11
-0.21
-0.39
-0.59
-0.72
-0.69
-0.50
-0.19
0.13
0.36
0.43
0.32
0.06
-0.29
-0.63
-0.91
-1.07
-1.06
-0.87
-0.53
-0.09
0.33
0.63
0.73
0.66
0.51
0.40
0.42
0.55
0.71
0.79
0.73
0.52
0.21
-0.09
-0.31
-0.42
-0.46
-0.45
-0.43
-0.39
-0.31
-0.18
0.00
0.18
0.31
0.33
0.24
0.07
-0.10
-0.20
-0.21
-0.14
-0.04
0.01
-0.01
-0.11
-0.22
-0.28
-0.26
-0.13
0.04
0.19
0.25
0.20
0.07
-0.09
-0.23
-0.32
-0.34
-0.31
-0.22
-0.06
0.11
0.25
0.28
0.20
0.04
-0.13
-0.22
-0.17
0.02
0.28
0.52
0.69
0.73
0.68
0.60
0.60
0.71
0.91
1.07
1.04
0.74
0.18
-0.48
-1.07
-1.43
-1.54
-1.46
-1.30
-1.12
-0.92
-0.65
-0.24
0.28
0.81
1.20
1.33
1.16
0.73
0.21
-0.22
-0.42
-0.38
-0.17
0.05
0.16
0.15
0.06
0.00
0.05
0.20
0.36
0.46
0.45
0.35
0.22
0.12
0.07
0.06
0.07
0.08
0.09
0.11
0.13
0.10
-0.01
-0.19
-0.40
-0.52
-0.48
-0.30
-0.08
0.05
-0.01
-0.26
-0.56
-0.78
-0.85
-0.80
-0.73
-0.72
-0.78
-0.81
-0.71
-0.45
-0.10
0.19
0.30
0.19
-0.04
-0.26
-0.32
-0.15
0.23
0.71
1.16
1.43
1.47
1.27
0.92
0.50
0.10
-0.21
-0.43
-0.56
-0.60
-0.52
-0.30
0.05
0.44
0.76
0.89
0.75
0.39
-0.08
-0.52
-0.81
-0.91
-0.87
-0.76
-0.67
-0.64
-0.64
-0.59
-0.43
-0.16
0.15
0.36
0.38
0.16
-0.23
-0.65
-0.95
-1.02
-0.85
-0.49
-0.06
0.33
0.59
0.67
0.60
0.45
0.28
0.16
0.09
0.06
0.07
0.08
0.10
0.13
0.16
0.19
0.22
0.28
0.36
0.47
0.57
0.63
0.63
0.62
0.69
0.84
1.03
1.13
1.05
0.78
0.42
0.13
0.02
0.08
0.20
0.26
0.20
0.06
-0.04
-0.00
0.16
0.35
0.43
0.27
-0.11
-0.63
-1.13
-1.51
-1.70
-1.72
-1.62
-1.43
-1.19
-0.90
-0.57
-0.22
0.11
0.39
0.57
0.65
0.62
0.49
0.32
0.16
0.08
0.15
0.38
0.68
0.96
1.12
1.08
0.88
0.56
0.23
-0.06
-0.26
-0.32
-0.26
-0.13
0.00
0.05
-0.06
-0.29
-0.55
-0.71
-0.73
-0.61
-0.43
-0.31
-0.30
-0.39
-0.52
-0.65
-0.71
-0.68
-0.57
-0.38
-0.12
0.17
0.40
0.50
0.44
0.27
0.07
-0.05
-0.02
0.15
0.39
0.60
0.74
0.78
0.76
0.71
0.64
0.54
0.40
0.21
-0.02
-0.24
-0.42
-0.54
-0.58
-0.55
-0.48
-0.38
-0.26
-0.12
0.03
0.12
0.12
-0.00
-0.22
-0.42
-0.51
-0.42
-0.21
0.05
0.23
0.30
0.29
0.26
0.25
0.24
0.17
-0.01
-0.27
-0.49
-0.54
-0.37
-0.03
0.37
0.64
0.71
0.58
0.35
0.19
0.17
0.31
0.53
0.70
0.73
0.59
0.33
0.05
-0.17
-0.29
-0.33
-0.32
-0.33
-0.36
-0.38
-0.36
-0.29
-0.21
-0.20
-0.32
-0.57
-0.86
-1.01
-0.90
-0.50
0.09
0.67
1.05
1.18
1.08
0.85
0.57
0.27
-0.09
-0.50
-0.89
-1.15
-1.20
-1.02
-0.69
-0.32
0.00
0.24
0.41
0.52
0.61
0.66
0.67
0.68
0.68
0.67
0.61
0.47
0.23
-0.09
-0.42
-0.67
-0.78
-0.73
-0.53
-0.26
-0.03
0.10
0.09
-0.02
-0.17
-0.25
-0.22
-0.09
0.09
0.25
0.34
0.39
0.45
0.57
0.74
0.90
0.95
0.83
0.58
0.27
0.01
-0.12
-0.12
-0.06
-0.04
-0.13
-0.32
-0.55
-0.73
-0.78
-0.70
-0.55
-0.37
-0.21
-0.07
0.05
0.17
0.25
0.28
0.24
0.15
0.06
0.00
0.02
0.08
0.13
0.12
-0.02
-0.27
-0.57
-0.83
-0.94
-0.82
-0.49
-0.02
0.46
0.83
0.99
0.92
0.65
0.25
-0.16
-0.46
-0.58
-0.49
-0.26
0.01
0.22
0.30
0.27
0.19
0.07
-0.07
-0.25
-0.43
-0.56
-0.55
-0.36
-0.05
0.28
0.47
0.48
0.35
0.20
0.16
0.28
0.49
0.66
0.69
0.57
0.35
0.14
0.00
-0.06
-0.13
-0.25
-0.44
-0.67
-0.84
-0.92
-0.90
-0.80
-0.68
-0.59
-0.53
-0.46
-0.32
-0.07
0.27
0.65
0.95
1.09
1.02
0.78
0.49
0.25
0.13
0.13
0.20
0.32
0.45
0.59
0.69
0.68
0.50
0.15
-0.31
-0.71
-0.93
-0.91
-0.68
-0.38
-0.12
0.00
0.01
-0.08
-0.20
-0.33
-0.45
-0.56
-0.63
-0.66
-0.65
-0.59
-0.51
-0.40
-0.28
-0.15
-0.05
0.02
0.04
0.02
0.00
0.00
0.05
0.16
0.31
0.48
0.64
0.71
0.66
0.48
0.21
-0.02
-0.11
0.02
0.36
0.80
1.20
1.43
1.46
1.29
1.00
0.66
0.33
0.05
-0.18
-0.34
-0.44
-0.48
-0.45
-0.38
-0.28
-0.17
-0.07
0.01
0.07
0.08
0.02
-0.13
-0.34
-0.57
-0.75
-0.81
-0.73
-0.54
-0.33
-0.18
-0.10
-0.05
0.04
0.22
0.45
0.67
0.76
0.67
0.42
0.08
-0.22
-0.41
-0.47
-0.46
-0.42
-0.39
-0.35
-0.25
-0.09
0.12
0.32
0.44
0.45
0.36
0.22
0.07
-0.07
-0.19
-0.27
-0.26
-0.14
0.12
0.43
0.65
0.66
0.43
0.02
-0.40
-0.65
-0.66
-0.45
-0.15
0.10
0.23
0.22
0.13
0.03
-0.06
-0.12
-0.12
-0.06
0.09
0.29
0.49
0.61
0.62
0.52
0.37
0.23
0.16
0.15
0.18
0.20
0.20
0.19
0.20
0.22
0.23
0.20
0.10
-0.07
-0.27
-0.42
-0.49
-0.47
-0.41
-0.35
-0.33
-0.33
-0.32
-0.23
-0.03
0.23
0.47
0.59
0.52
0.25
-0.16
-0.59
-0.93
-1.08
-1.07
-0.93
-0.75
-0.59
-0.47
-0.36
-0.21
-0.03
0.12
0.19
0.17
0.07
-0.03
-0.04
0.04
0.17
0.29
0.32
0.24
0.09
-0.08
-0.25
-0.39
-0.51
-0.55
-0.51
-0.38
-0.17
0.04
0.19
0.24
0.23
0.22
0.24
0.32
0.39
0.42
0.38
0.33
0.33
0.46
0.72
1.03
1.26
1.31
1.13
0.78
0.37
0.02
-0.19
-0.27
-0.29
-0.32
-0.39
-0.50
-0.63
-0.77
-0.92
-1.04
-1.08
-0.99
-0.73
-0.31
0.18
0.63
0.94
1.04
0.94
0.69
0.38
0.07
-0.14
-0.24
-0.22
-0.13
-0.06
-0.05
-0.14
-0.28
-0.41
-0.48
-0.47
-0.43
-0.38
-0.35
-0.36
-0.38
-0.40
-0.35
-0.23
-0.03
0.19
0.37
0.45
0.39
0.24
0.05
-0.09
-0.15
-0.14
-0.09
-0.04
0.01
0.07
0.14
0.21
0.26
0.23
0.14
0.04
-0.00
0.09
0.32
0.62
0.88
0.97
0.86
0.56
0.18
-0.17
-0.40
-0.48
-0.45
-0.36
-0.24
-0.11
0.02
0.15
0.27
0.35
0.35
0.24
0.03
-0.29
-0.63
-0.92
-1.11
-1.13
-0.98
-0.69
-0.29
0.16
0.59
0.94
1.16
1.24
1.20
1.12
1.04
1.01
1.01
0.97
0.83
0.59
0.26
-0.09
-0.37
-0.51
-0.47
-0.28
-0.04
0.11
0.04
-0.25
-0.68
-1.07
-1.25
-1.18
-0.95
-0.70
-0.56
-0.52
-0.52
-0.46
-0.36
-0.30
-0.40
-0.66
-0.98
-1.17
-1.07
-0.67
-0.06
0.57
1.04
1.25
1.24
1.09
0.93
0.84
0.81
0.80
0.76
0.65
0.49
0.32
0.19
0.09
0.02
-0.08
-0.22
-0.36
-0.44
-0.42
-0.26
-0.03
0.21
0.38
0.40
0.26
-0.04
-0.42
-0.77
-0.98
-0.99
-0.84
-0.62
-0.48
-0.47
-0.55
-0.61
-0.52
-0.27
0.04
0.24
0.25
0.09
-0.11
-0.17
-0.04
0.20
0.37
0.32
-0.00
-0.51
-1.05
-1.52
-1.93
-2.35
-2.89
-3.58
-4.36
-5.07
-5.57
-5.79
-5.78
-5.70
-5.78
-6.18
-6.96
-8.05
-9.28
-10.46
-11.45
-12.27
-13.03
-13.94
-15.16
-16.76
-18.67
-20.69
-22.58
-24.17
-25.47
-26.69
-28.23
-30.46
-33.61
-37.62
-42.16
-46.70
-50.79
-54.20
-57.03
-59.68
-62.62
-66.20
-70.47
-75.16
-79.77
-83.94
-87.58
-91.05
-94.98
-99.89
-105.92
-112.78
-120.00
-127.20
-134.16
-140.38
-144.59
-144.55
-137.34
-120.41
-92.52
-54.23
-7.50
45.17
101.38
158.87
215.04
266.51
309.48
340.83
359.49
367.19
368.00
366.69
366.79
369.19
371.95
371.26
363.21
345.28
317.07
280.08
236.63
188.71
137.38
83.18
27.12
-28.17
-78.51
-119.21
-146.96
-161.33
-164.93
-162.23
-157.52
-153.29
-149.80
-145.87
-140.29
-132.83
-124.37
-116.32
-109.64
-104.42
-99.94
-95.23
-89.60
-82.99
-75.94
-69.20
-63.36
-58.59
-54.57
-50.77
-46.64
-41.99
-36.94
-31.98
-27.65
-24.31
-22.06
-20.69
-19.82
-19.03
-18.03
-16.70
-15.07
-13.26
-11.41
-9.60
-7.85
-6.16
-4.56
-3.15
-2.04
-1.32
-1.03
-1.10
-1.40
-1.77
-2.05
-2.17
-2.11
-1.93
-1.71
-1.59
-1.69
-2.08
-2.71
-3.41
-3.94
-4.10
-3.83
-3.22
-2.52
-1.97
-1.71
-1.72
-1.89
-2.08
-2.24
-2.43
-2.70
-3.02
-3.20
-2.97
-2.16
-0.75
1.00
2.72
4.05
4.81
5.07
5.00
4.80
4.53
4.13
3.50
2.62
1.56
0.54
-0.25
-0.64
-0.62
-0.27
0.25
0.76
1.13
1.27
1.20
0.95
0.58
0.12
-0.42
-1.05
-1.71
-2.30
-2.65
-2.64
-2.25
-1.67
-1.17
-1.01
-1.29
-1.91
-2.60
-3.08
-3.21
-2.99
-2.54
-1.99
-1.39
-0.74
-0.05
0.64
1.16
1.36
1.12
0.50
-0.38
-1.29
-2.05
-2.59
-2.95
-3.27
-3.73
-4.49
-5.59
-6.94
-8.34
-9.56
-10.39
-10.70
-10.51
-9.95
-9.21
-8.51
-7.97
-7.64
-7.38
-6.99
-6.26
-5.08
-3.53
-1.82
-0.22
1.10
2.06
2.70
3.10
3.25
3.13
2.71
2.08
1.47
1.18
1.48
2.34
3.41
4.08
3.71
1.93
-1.19
-5.12
-9.10
-12.49
-15.00
-16.82
-18.45
-20.47
-23.34
-27.16
-31.68
-36.34
-40.47
-43.53
-45.45
-46.79
-48.61
-52.15
-58.22
-66.82
-77.06
-87.60
-97.28
-105.69
-113.31
-121.18
-130.39
-141.69
-155.25
-170.60
-186.56
-201.12
-211.52
-214.71
-208.16
-190.66
-162.77
-126.43
-84.00
-37.23
13.04
66.29
121.12
174.47
221.91
259.10
283.62
296.14
300.05
299.86
299.18
299.41
299.86
298.94
295.62
290.34
284.71
280.55
279.00
280.04
282.83
286.17
288.78
289.26
285.94
276.99
260.81
236.63
204.87
166.91
124.41
78.51
29.67
-21.80
-74.61
-125.76
-170.76
-204.97
-225.42
-232.06
-227.80
-217.12
-204.31
-191.96
-180.66
-169.78
-158.66
-147.42
-136.97
-128.31
-121.72
-116.46
-111.14
-104.47
-95.92
-85.94
-75.82
-66.93
-60.21
-55.72
-52.71
-50.07
-46.82
-42.49
-37.29
-31.88
-26.96
-23.02
-20.13
-18.02
-16.28
-14.55
-12.67
-10.66
-8.67
-6.87
-5.39
-4.23
-3.34
-2.64
-2.01
-1.43
-0.90
-0.49
-0.23
-0.10
-0.03
0.06
0.20
0.40
0.60
0.78
0.91
0.98
0.98
0.86
0.62
0.27
-0.07
-0.27
-0.25
-0.02
0.29
0.54
0.62
0.53
0.37
0.24
0.21
0.26
0.33
0.37
0.37
0.36
0.40
0.49
0.60
0.67
0.59
0.36
0.01
-0.37
-0.64
-0.75
-0.68
-0.50
-0.31
-0.17
-0.13
-0.16
-0.22
-0.27
-0.34
-0.42
-0.52
-0.62
-0.63
-0.48
-0.15
0.31
0.76
1.04
1.05
0.74
0.23
-0.27
-0.55
-0.44
0.08
0.87
1.66
2.19
2.31
2.04
1.55
1.06
0.75
0.63
0.64
0.68
0.69
0.67
0.64
0.60
0.50
0.30
0.00
-0.35
-0.69
-0.97
-1.18
-1.32
-1.37
-1.29
-1.08
-0.78
-0.53
-0.48
-0.70
-1.13
-1.57
-1.84
-1.80
-1.51
-1.09
-0.73
-0.55
-0.55
-0.67
-0.80
-0.89
-0.89
-0.82
-0.70
-0.57
-0.44
-0.32
-0.25
-0.25
-0.34
-0.52
-0.75
-0.95
-1.03
-0.90
-0.52
0.09
0.83
1.56
2.13
2.46
2.51
2.30
1.89
1.36
0.74
0.06
-0.61
-1.21
-1.68
-1.97
-2.11
-2.17
-2.23
-2.32
-2.39
-2.35
-2.12
-1.71
-1.21
-0.74
-0.39
-0.13
0.12
0.50
1.10
1.88
2.73
3.47
3.93
4.00
3.67
2.97
1.99
0.81
-0.49
-1.85
-3.16
-4.30
-5.09
-5.40
-5.18
-4.51
-3.58
-2.61
-1.78
-1.18
-0.83
-0.66
-0.58
-0.44
-0.08
0.64
1.75
3.13
4.51
5.53
5.91
5.51
4.42
2.83
1.07
-0.55
-1.70
-2.19
-1.93
-1.07
0.08
1.14
1.78
1.88
1.49
0.84
0.11
-0.59
-1.32
-2.15
-3.13
-4.17
-5.08
-5.65
-5.78
-5.50
-5.00
-4.48
-4.09
-3.86
-3.67
-3.36
-2.78
-1.89
-0.69
0.72
2.28
3.87
5.43
6.83
7.96
8.74
9.08
