1660321409.00
64.000000
-0.00
-0.00
-0.00
-0.00
-0.00
-0.00
-0.00
-0.00
-0.00
-0.00
0.00
0.01
0.01
-0.00
-0.03
-0.05
-0.05
0.00
0.13
0.36
0.66
1.01
1.37
1.72
2.06
2.40
2.79
3.24
3.80
4.42
5.06
5.66
6.20
6.68
7.15
7.68
8.31
9.15
10.09
11.05
11.89
12.56
13.13
13.75
14.65
15.98
17.96
20.38
22.94
25.34
27.40
29.22
31.12
33.59
36.97
41.62
47.19
53.11
58.76
63.78
68.23
72.62
77.70
84.00
92.06
101.32
110.90
119.87
127.61
134.20
140.34
147.47
154.34
163.20
174.53
188.24
202.96
215.72
222.27
218.20
200.41
168.18
123.89
71.12
13.84
-45.09
-104.24
-163.20
-221.63
-278.75
-333.36
-383.97
-430.07
-471.56
-508.46
-540.12
-564.93
-580.52
-584.38
-574.91
-551.75
-516.42
-471.65
-420.80
-367.26
-313.90
-262.57
-213.78
-166.53
-118.61
-67.75
-12.70
45.79
104.78
160.07
207.57
244.70
270.83
287.05
295.02
296.35
292.14
283.29
270.87
256.27
240.97
226.07
212.00
198.49
184.95
170.85
156.09
141.09
126.55
113.18
101.41
91.24
82.27
73.92
65.66
57.23
48.69
40.39
32.81
26.32
21.17
17.14
13.81
10.74
7.64
4.45
1.31
-1.53
-3.85
-5.50
-6.47
-6.84
-6.75
-6.42
-6.08
-5.93
-6.07
-6.49
-7.03
-7.55
-7.90
-8.03
-7.98
-7.80
-7.54
-7.20
-6.79
-6.34
-5.92
-5.59
-5.35
-5.10
-4.72
-4.12
-3.36
-2.61
-2.11
-2.01
-2.32
-2.84
-3.34
-3.60
-3.56
-3.35
-3.17
-3.19
-3.48
-3.95
-4.44
-4.69
-4.52
-3.79
-2.53
-0.95
0.59
1.69
2.05
1.65
0.70
-0.37
-1.18
-1.53
-1.48
-1.23
-1.02
-0.90
-0.81
-0.58
-0.18
0.31
0.72
0.87
0.77
0.53
0.41
0.59
1.11
1.86
2.62
3.18
3.47
3.56
3.60
3.75
4.04
4.43
4.79
5.03
5.08
4.94
4.60
4.04
3.25
2.17
0.86
-0.57
-1.95
-3.17
-4.20
-5.08
-5.84
-6.49
-6.95
-7.16
-7.08
-6.77
-6.35
-5.94
-5.61
-5.35
-5.08
-4.76
-4.38
-3.98
-3.63
-3.36
-3.15
-2.97
-2.78
-2.58
-2.40
-2.24
-2.12
-2.00
-1.87
-1.71
-1.50
-1.26
-1.02
-0.77
-0.53
-0.28
-0.04
0.21
0.43
0.59
0.68
0.66
0.52
0.25
-0.11
-0.53
-0.90
-1.11
-1.08
-0.81
-0.36
0.11
0.43
0.48
0.26
-0.15
-0.58
-0.91
-1.08
-1.13
-1.08
-0.99
-0.92
-0.92
-1.01
-1.20
-1.46
-1.70
-1.84
-1.79
-1.55
-1.17
-0.74
-0.30
0.12
0.52
0.91
1.24
1.47
1.56
1.54
1.51
1.54
1.65
1.77
1.79
1.63
1.29
0.90
0.61
0.52
0.63
0.84
1.02
1.06
0.96
0.80
0.64
0.50
0.31
0.00
-0.48
-1.08
-1.70
-2.23
-2.63
-2.97
-3.30
-3.66
-3.95
-4.02
-3.75
-3.08
-2.09
-0.94
0.20
1.24
2.12
2.85
3.45
3.94
4.30
4.54
4.65
4.65
4.55
4.36
4.06
3.64
3.12
2.51
1.91
1.40
1.03
0.79
0.63
0.45
0.18
-0.20
-0.63
-1.03
-1.35
-1.59
-1.78
-1.92
-2.01
-2.04
-1.98
-1.87
-1.78
-1.78
-1.90
-2.14
-2.44
-2.74
-2.93
-2.93
-2.66
-2.13
-1.42
-0.70
-0.09
0.32
0.53
0.66
0.79
0.98
1.18
1.33
1.35
1.22
0.99
0.71
0.41
0.12
-0.12
-0.26
-0.26
-0.09
0.21
0.54
0.75
0.74
0.47
0.02
-0.52
-1.01
-1.37
-1.59
-1.68
-1.71
-1.71
-1.71
-1.71
-1.69
-1.63
-1.51
-1.31
-1.01
-0.58
-0.04
0.57
1.18
1.71
2.10
2.32
2.36
2.26
2.06
1.82
1.62
1.52
1.52
1.57
1.62
1.55
1.34
1.01
0.64
0.32
0.12
-0.02
-0.16
-0.36
-0.61
-0.84
-0.97
-0.97
-0.87
-0.76
-0.77
-0.94
-1.28
-1.68
-2.03
-2.25
-2.25
-2.02
-1.55
-0.89
-0.09
0.71
1.38
1.80
1.91
1.78
1.52
1.30
1.20
1.22
1.28
1.31
1.27
1.19
1.15
1.18
1.22
1.20
1.04
0.75
0.38
0.03
-0.23
-0.39
-0.52
-0.69
-0.96
-1.32
-1.70
-2.01
-2.16
-2.16
-2.06
-1.97
-2.01
-2.20
-2.47
-2.63
-2.49
-1.95
-1.06
-0.02
0.92
1.56
1.86
1.88
1.79
1.76
1.87
2.09
2.30
2.36
2.20
1.79
1.21
0.59
0.04
-0.36
-0.62
-0.77
-0.90
-1.03
-1.18
-1.31
-1.40
-1.44
-1.44
-1.42
-1.39
-1.34
-1.29
-1.24
-1.21
-1.19
-1.22
-1.32
-1.47
-1.64
-1.76
-1.74
-1.49
-0.98
-0.25
0.56
1.32
1.86
2.14
2.21
2.18
2.13
2.13
2.13
2.09
1.97
1.80
1.65
1.58
1.62
1.68
1.68
1.53
1.25
0.93
0.68
0.53
0.48
0.42
0.26
-0.07
-0.58
-1.21
-1.88
-2.48
-2.93
-3.17
-3.15
-2.86
-2.29
-1.51
-0.62
0.23
0.87
1.23
1.34
1.36
1.45
1.74
2.17
2.59
2.77
2.61
2.14
1.57
1.10
0.85
0.80
0.84
0.81
0.62
0.29
-0.07
-0.34
-0.45
-0.38
-0.18
0.06
0.24
0.32
0.25
0.02
-0.34
-0.81
-1.32
-1.83
-2.25
-2.51
-2.54
-2.34
-1.95
-1.43
-0.87
-0.33
0.14
0.54
0.90
1.26
1.59
1.87
2.02
2.01
1.83
1.53
1.18
0.85
0.59
0.44
0.38
0.37
0.38
0.38
0.36
0.33
0.27
0.17
0.02
-0.18
-0.37
-0.54
-0.62
-0.61
-0.56
-0.52
-0.59
-0.82
-1.18
-1.61
-1.99
-2.23
-2.26
-2.10
-1.81
-1.46
-1.11
-0.78
-0.45
-0.13
0.17
0.43
0.66
0.86
1.07
1.23
1.30
1.20
0.94
0.62
0.41
0.44
0.73
1.18
1.57
1.71
1.54
1.10
0.54
0.02
-0.38
-0.65
-0.86
-1.06
-1.30
-1.56
-1.84
-2.10
-2.31
-2.49
-2.66
-2.83
-2.98
-3.07
-3.01
-2.67
-1.97
-0.91
0.40
1.75
2.88
3.68
4.18
4.58
5.13
6.00
7.18
8.52
9.82
10.96
11.93
12.85
13.84
15.02
16.39
17.87
19.37
20.79
22.05
23.14
24.09
24.93
25.74
26.53
27.35
28.23
29.23
30.33
31.42
32.22
32.33
31.40
29.21
25.92
21.94
17.86
14.18
11.24
9.15
7.86
7.26
7.17
7.35
7.52
7.42
6.92
6.14
5.41
5.13
5.63
6.95
8.88
10.94
12.60
13.38
12.95
11.28
8.56
5.19
1.63
-1.72
-4.60
-6.89
-8.55
-9.55
-9.84
-9.40
-8.31
-6.78
-5.15
-3.82
-3.11
-3.23
-4.19
-5.88
-8.10
-10.59
-13.19
-15.77
-18.25
-20.56
-22.59
-24.19
-25.24
-25.70
-25.64
-25.22
-24.55
-23.68
-22.54
-21.04
-19.14
-16.89
-14.43
-11.95
-9.58
-7.31
-5.03
-2.47
0.67
4.74
10.06
16.88
25.27
35.08
45.83
56.70
66.62
74.44
79.16
80.13
77.19
70.58
60.86
48.71
34.95
20.49
6.36
-6.36
-16.77
-24.36
-29.16
-31.72
-32.85
-33.35
-33.73
-34.20
-34.83
-35.62
-36.69
-38.18
-40.14
-42.40
-44.65
-46.49
-47.66
-48.12
-48.00
-47.48
-46.73
-45.78
-44.60
-43.15
-41.46
-39.62
-37.78
-36.05
-34.50
-33.15
-31.97
-30.93
-29.95
-28.92
-27.80
-26.56
-25.26
-24.00
-22.85
-21.83
-20.91
-20.00
-19.08
-18.16
-17.32
-16.60
-15.98
-15.39
-14.71
-13.85
-12.79
-11.54
-10.14
-8.64
-7.11
-5.66
-4.40
-3.42
-2.73
-2.26
-1.86
-1.42
-0.89
-0.33
0.15
0.47
0.57
0.47
0.20
-0.19
-0.68
-1.25
-1.85
-2.41
-2.85
-3.13
-3.23
-3.21
-3.15
-3.14
-3.25
-3.47
-3.76
-4.04
-4.26
-4.41
-4.54
-4.69
-4.86
-4.96
-4.83
-4.31
-3.35
-2.01
-0.51
0.85
1.84
2.34
2.46
2.45
2.59
3.03
3.71
4.38
4.76
4.68
4.22
3.62
3.18
3.08
3.32
3.72
4.08
4.24
4.18
3.99
3.80
3.73
3.84
4.14
4.62
5.28
6.06
6.86
7.48
7.68
7.18
5.85
3.68
0.86
-2.30
-5.44
-8.19
-10.24
-11.34
-11.31
-10.15
-8.08
-5.55
-3.13
-1.30
-0.33
-0.16
-0.48
-0.89
-1.06
-0.90
-0.51
-0.10
0.11
0.04
-0.23
-0.47
-0.32
0.54
2.29
4.93
8.22
11.66
14.61
16.43
16.58
14.84
11.38
6.80
1.98
-2.18
-5.01
-6.29
-6.28
-5.59
-4.89
-4.64
-4.98
-5.71
-6.49
-6.99
-7.00
-6.54
-5.76
-4.87
-4.01
-3.15
-2.12
-0.72
1.20
3.63
6.42
9.29
11.99
14.29
15.94
16.67
16.20
14.35
11.22
7.30
3.34
0.10
-1.91
-2.69
-2.59
-2.16
-1.87
-1.96
-2.46
-3.29
-4.40
-5.74
-7.28
-8.87
-10.24
-11.13
-11.35
-10.89
-9.93
-8.76
-7.61
-6.50
-5.24
-3.44
-0.70
3.19
8.07
13.36
18.20
21.61
22.88
21.71
18.43
13.89
9.22
5.48
3.29
2.70
3.20
4.02
4.44
4.03
2.80
1.01
-0.97
-2.85
-4.49
-5.91
-7.17
-8.35
-9.41
-10.29
-10.82
-10.81
-10.03
-8.30
-5.59
-2.05
1.98
5.99
9.42
11.79
12.81
12.48
11.06
9.04
6.91
5.12
3.96
3.51
3.76
4.55
5.65
6.78
7.66
8.04
7.83
7.05
5.89
4.64
3.57
2.87
2.57
2.53
2.50
2.23
1.58
0.65
-0.23
-0.51
0.33
2.63
6.35
10.98
15.59
19.06
20.40
19.12
15.38
10.06
4.44
-0.19
-2.91
-3.50
-2.39
-0.44
1.42
2.51
2.57
1.69
0.26
-1.33
-2.77
-3.91
-4.74
-5.29
-5.56
-5.48
-4.92
-3.76
-1.95
0.43
3.23
6.19
8.99
11.24
12.50
12.39
10.69
7.52
3.33
-1.16
-5.15
-8.01
-9.43
-9.47
-8.45
-6.85
-5.17
-3.82
-3.09
-3.09
-3.75
-4.84
-6.03
-7.01
-7.57
-7.70
-7.51
-7.19
-6.82
-6.34
-5.47
-3.90
-1.34
2.24
6.61
11.28
15.61
18.99
20.95
21.28
20.03
17.51
14.21
10.76
7.74
5.55
4.25
3.56
3.06
2.34
1.26
-0.07
-1.35
-2.29
-2.77
-2.86
-2.77
-2.67
-2.63
-2.62
-2.49
-2.09
-1.32
-0.14
1.49
3.54
5.96
8.62
11.24
13.37
14.48
14.07
11.93
8.30
3.79
-0.71
-4.37
-6.66
-7.49
-7.18
-6.30
-5.44
-5.11
-5.57
-6.84
-8.70
-10.78
-12.65
-13.93
-14.39
-13.97
-12.77
-10.97
-8.79
-6.48
-4.24
-2.22
-0.46
1.14
2.80
4.78
7.27
10.28
13.63
16.94
19.71
21.41
21.61
20.07
16.94
12.67
8.00
3.72
0.43
-1.64
-2.69
-3.24
-3.91
-5.13
-7.07
-9.56
-12.28
-14.86
-17.01
-18.59
-19.52
-19.80
-19.41
-18.34
-16.60
-14.29
-11.59
-8.78
-6.18
-4.01
-2.36
-1.18
-0.36
0.25
0.71
1.01
1.15
1.19
1.24
1.41
1.73
2.11
2.43
2.56
2.51
2.36
2.21
2.13
2.14
2.25
2.42
2.61
2.73
2.67
2.37
1.90
1.47
1.35
1.69
2.44
3.30
3.96
4.21
4.11
3.93
3.94
4.34
5.15
6.33
7.81
9.47
11.16
12.54
13.16
12.61
10.69
7.60
3.85
0.16
-2.87
-4.91
-6.03
-6.58
-6.95
-7.39
-7.93
-8.43
-8.71
-8.70
-8.48
-8.21
-8.06
-8.06
-8.16
-8.26
-8.30
-8.29
-8.28
-8.28
-8.26
-8.15
-7.84
-7.26
-6.38
-5.26
-3.99
-2.71
-1.53
-0.50
0.42
1.38
2.49
3.78
5.15
6.38
7.27
7.74
7.88
7.86
7.88
8.01
8.25
8.49
8.58
8.36
7.71
6.54
4.86
2.77
0.50
-1.72
-3.67
-5.21
-6.32
-7.01
-7.28
-7.12
-6.52
-5.54
-4.33
-3.11
-2.08
-1.26
-0.48
0.55
2.05
4.04
6.20
8.04
9.16
9.40
8.98
8.35
7.95
7.98
8.36
8.79
8.95
8.69
8.04
7.14
6.16
5.25
4.45
3.80
3.33
3.02
2.89
2.88
2.95
3.04
3.09
3.03
2.80
2.39
1.80
1.08
0.34
-0.33
-0.86
-1.22
-1.42
-1.44
-1.29
-0.98
-0.51
0.07
0.73
1.41
2.06
2.61
2.99
3.14
3.06
2.79
2.45
2.11
1.84
1.59
1.32
1.01
0.68
0.42
0.33
0.43
0.64
0.85
0.93
0.78
0.42
-0.10
-0.65
-1.14
-1.52
-1.77
-1.94
-2.07
-2.21
-2.37
-2.53
-2.67
-2.74
-2.74
-2.66
-2.49
-2.20
-1.80
-1.27
-0.67
-0.04
0.57
1.17
1.73
2.23
2.61
2.77
2.68
2.40
2.05
1.81
1.78
1.95
2.20
2.36
2.36
2.17
1.88
1.58
1.30
1.01
0.65
0.20
-0.25
-0.61
-0.79
-0.80
-0.75
-0.79
-1.05
-1.51
-2.08
-2.57
-2.84
-2.79
-2.44
-1.87
-1.21
-0.52
0.12
0.69
1.18
1.55
1.76
1.79
1.63
1.33
0.98
0.70
0.56
0.59
0.77
0.99
1.16
1.20
1.06
0.77
0.39
-0.00
-0.34
-0.63
-0.87
-1.11
-1.37
-1.63
-1.86
-2.05
-2.23
-2.46
-2.76
-3.10
-3.35
-3.28
-2.76
-1.76
-0.43
0.93
2.05
2.78
3.16
3.34
3.52
3.77
4.06
4.25
4.19
3.85
3.30
2.71
2.26
2.07
2.17
2.46
2.79
3.01
3.04
2.86
2.56
2.27
2.07
1.98
1.90
1.69
1.26
0.60
-0.23
-1.10
-1.88
-2.46
-2.75
-2.68
-2.18
-1.27
-0.02
1.38
2.68
3.64
4.12
4.11
3.78
3.35
3.05
2.96
3.05
3.16
3.11
2.79
2.20
1.48
0.76
0.17
-0.26
-0.55
-0.71
-0.77
-0.73
-0.66
-0.64
-0.76
-1.11
-1.70
-2.44
-3.20
-3.84
-4.25
-4.39
-4.25
-3.87
-3.31
-2.63
-1.92
-1.21
-0.52
0.14
0.80
1.44
2.02
2.51
2.86
3.06
3.13
3.09
2.98
2.81
2.62
2.41
2.23
2.09
2.00
1.89
1.70
1.35
0.84
0.21
-0.45
-1.07
-1.61
-2.09
-2.55
-3.01
-3.45
-3.85
-4.18
-4.44
-4.66
-4.82
-4.88
-4.74
-4.30
-3.52
-2.46
-1.26
-0.11
0.85
1.54
1.96
2.17
2.23
2.20
2.12
2.03
1.95
1.90
1.85
1.77
1.61
1.37
1.09
0.85
0.68
0.59
0.51
0.39
0.21
0.02
-0.11
-0.16
-0.15
-0.17
-0.30
-0.54
-0.81
-0.98
-0.97
-0.74
-0.34
0.12
0.57
0.93
1.20
1.38
1.53
1.70
1.93
2.23
2.48
2.55
2.28
1.60
0.58
-0.58
-1.66
-2.49
-3.01
-3.31
-3.53
-3.78
-4.08
-4.42
-4.74
-5.02
-5.29
-5.64
-6.14
-6.78
-7.50
-8.17
-8.68
-8.98
-9.06
-8.94
-8.62
-8.05
-7.22
-6.12
-4.87
-3.62
-2.55
-1.74
-1.17
-0.76
-0.39
0.01
0.42
0.79
1.06
1.22
1.26
1.26
1.28
1.37
1.55
1.84
2.17
2.47
2.67
2.73
2.65
2.54
2.48
2.54
2.70
2.89
3.02
2.99
2.76
2.33
1.71
0.95
0.11
-0.65
-1.16
-1.28
-0.95
-0.26
0.59
1.41
2.07
2.54
2.92
3.28
3.65
4.00
4.24
4.33
4.30
4.22
4.18
4.23
4.33
4.40
4.30
3.92
3.20
2.15
0.87
-0.46
-1.65
-2.54
-3.03
-3.13
-2.89
-2.41
-1.75
-0.98
-0.14
0.71
1.51
2.25
2.96
3.71
4.55
5.48
6.40
7.17
7.68
7.94
8.08
8.26
8.62
9.16
9.83
10.51
11.14
11.68
12.16
12.60
13.01
13.43
13.89
14.40
14.88
15.14
14.90
13.95
12.19
9.70
6.74
3.59
0.51
-2.37
-4.96
-7.24
-9.18
-10.76
-12.00
-13.01
-13.88
-14.67
-15.37
-15.86
-16.00
-15.67
-14.83
-13.51
-11.87
-10.05
-8.22
-6.51
-5.01
-3.78
-2.80
-2.04
-1.46
-1.02
-0.70
-0.48
-0.34
-0.22
-0.09
0.11
0.39
0.74
1.08
1.33
1.40
1.22
0.80
0.17
-0.55
-1.24
-1.82
-2.22
-2.45
-2.54
-2.59
-2.69
-2.92
-3.30
-3.77
-4.18
-4.36
-4.15
-3.46
-2.36
-0.97
0.49
1.83
2.95
3.79
4.43
4.95
5.50
6.17
7.02
7.96
8.86
9.49
9.67
9.31
8.44
7.21
5.83
4.50
3.37
2.52
1.93
1.51
1.16
0.78
0.31
-0.23
-0.75
-1.16
-1.37
-1.35
-1.11
-0.67
-0.11
0.52
1.16
1.75
2.31
2.83
3.33
3.85
4.32
4.66
4.78
4.58
4.07
3.33
2.51
1.78
1.26
0.98
0.84
0.73
0.53
0.19
-0.25
-0.77
-1.30
-1.84
-2.43
-3.07
-3.74
-4.39
-4.95
-5.42
-5.81
-6.20
-6.65
-7.16
-7.69
-8.12
-8.36
-8.34
-8.07
-7.64
-7.17
-6.77
-6.45
-6.20
-5.98
-5.77
-5.59
-5.44
-5.30
-5.05
-4.56
-3.74
-2.56
-1.13
0.39
1.84
3.18
4.40
5.55
6.65
7.67
8.59
9.36
10.03
10.67
11.35
12.10
12.83
13.40
13.64
13.44
12.79
11.80
10.63
9.43
8.25
7.10
5.93
4.70
3.38
2.00
0.61
-0.70
-1.76
-2.35
-2.27
-1.43
0.13
2.19
4.46
6.60
8.32
9.36
9.49
8.55
6.52
3.59
0.22
-3.00
-5.54
-7.10
-7.76
-7.87
-7.91
-8.28
-9.17
-10.52
-12.10
-13.62
-14.82
-15.52
-15.66
-15.28
-14.55
-13.68
-12.91
-12.37
-12.10
-12.02
-11.99
-11.88
-11.59
-11.12
-10.48
-9.68
-8.75
-7.73
-6.70
-5.73
-4.90
-4.26
-3.82
-3.53
-3.32
-3.10
-2.83
-2.45
-1.98
-1.43
-0.86
-0.35
0.06
0.37
0.64
0.96
1.43
2.06
2.75
3.34
3.67
3.70
3.49
3.25
3.15
3.29
3.63
4.00
4.26
4.35
4.32
4.33
4.49
4.84
5.28
5.64
5.78
5.65
5.36
5.08
4.95
5.00
5.12
5.14
4.90
4.37
3.61
2.71
1.79
0.88
0.02
-0.77
-1.48
-2.05
-2.50
-2.88
-3.24
-3.65
-4.09
-4.52
-4.82
-4.87
-4.63
-4.11
-3.44
-2.78
-2.34
-2.22
-2.44
-2.89
-3.41
-3.84
-4.09
-4.17
-4.15
-4.09
-4.03
-3.92
-3.71
-3.34
-2.86
-2.30
-1.78
-1.34
-1.00
-0.75
-0.52
-0.29
-0.05
0.18
0.38
0.57
0.77
1.00
1.25
1.47
1.61
1.65
1.61
1.59
1.66
1.88
2.20
2.54
2.76
2.79
2.59
2.19
1.67
1.07
0.45
-0.16
-0.76
-1.35
-1.94
-2.55
-3.19
-3.84
-4.48
-5.04
-5.48
-5.74
-5.79
-5.61
-5.21
-4.64
-3.99
-3.36
-2.84
-2.45
-2.19
-1.99
-1.82
-1.63
-1.42
-1.16
-0.86
-0.49
-0.06
0.42
0.87
1.21
1.38
1.38
1.28
1.14
1.03
0.97
0.96
0.96
0.99
1.08
1.29
1.63
2.03
2.36
2.49
2.35
1.96
1.47
1.04
0.74
0.57
0.43
0.24
0.00
-0.20
-0.24
-0.05
0.37
0.92
1.48
1.98
2.42
2.83
3.20
3.46
3.53
3.36
3.00
2.57
2.21
2.00
1.91
1.81
1.60
1.25
0.83
0.49
0.36
0.49
0.79
1.13
1.33
1.31
1.05
0.62
0.11
-0.42
-0.91
-1.35
-1.71
-2.00
-2.24
-2.45
-2.67
-2.93
-3.17
-3.28
-3.16
-2.74
-2.06
-1.26
-0.55
-0.07
0.17
0.27
0.38
0.60
0.97
1.40
1.79
2.00
2.02
1.85
1.59
1.32
1.13
1.04
1.06
1.15
1.27
1.34
1.32
1.19
0.93
0.62
0.31
0.05
-0.14
-0.29
-0.46
-0.68
-0.95
-1.20
-1.37
-1.44
-1.46
-1.51
-1.67
-1.97
-2.36
-2.71
-2.92
-2.90
-2.68
-2.30
-1.90
-1.54
-1.24
-0.98
-0.70
-0.40
-0.08
0.18
0.36
0.48
0.59
0.74
0.95
1.13
1.16
0.97
0.59
0.16
-0.13
-0.15
0.09
0.50
0.91
1.16
1.17
0.94
0.51
-0.05
-0.66
-1.22
-1.63
-1.83
-1.81
-1.63
-1.45
-1.41
-1.62
-2.10
-2.75
-3.36
-3.73
-3.70
-3.27
-2.55
-1.71
-0.93
-0.29
0.20
0.61
0.95
1.23
1.41
1.52
1.62
1.82
2.15
2.60
3.02
3.24
3.15
2.73
2.10
1.49
1.08
0.99
1.22
1.64
2.02
2.22
2.12
1.75
1.21
0.61
0.05
-0.42
-0.79
-1.06
-1.25
-1.41
-1.57
-1.79
-2.08
-2.38
-2.61
-2.67
-2.50
-2.09
-1.50
-0.82
-0.15
0.44
0.94
1.32
1.63
1.88
2.11
2.29
2.41
2.48
2.51
2.55
2.63
2.74
2.81
2.80
2.65
2.39
2.09
1.81
1.56
1.35
1.12
0.86
0.58
0.31
0.07
-0.15
-0.36
-0.61
-0.93
-1.31
-1.76
-2.21
-2.60
-2.85
-2.92
-2.82
-2.59
-2.32
-2.04
-1.74
-1.40
-1.00
-0.57
-0.17
0.18
0.49
0.79
1.10
1.39
1.60
1.65
1.57
1.44
1.37
1.47
1.71
1.97
2.11
1.99
1.61
1.05
0.46
-0.03
-0.38
-0.61
-0.79
-0.97
-1.14
-1.25
-1.24
-1.12
-0.97
-0.89
-0.99
-1.33
-1.89
-2.61
-3.37
-4.04
-4.53
-4.77
-4.73
-4.42
-3.86
-3.09
-2.18
-1.23
-0.34
0.36
0.78
0.92
0.87
0.77
0.74
0.82
0.92
0.97
0.92
0.81
0.76
0.84
1.05
1.29
1.44
1.42
1.21
0.88
0.53
0.21
-0.04
-0.23
-0.39
-0.50
-0.60
-0.69
-0.79
-0.93
-1.12
-1.36
-1.68
-2.05
-2.45
-2.81
-3.01
-2.92
-2.49
-1.73
-0.73
0.35
1.36
2.20
2.82
3.21
3.38
3.41
3.33
3.23
3.13
3.07
3.04
3.01
2.93
2.77
2.55
2.30
2.08
1.90
1.76
1.62
1.44
1.23
1.00
0.80
0.63
0.50
0.38
0.24
0.06
-0.14
-0.38
-0.68
-1.07
-1.57
-2.12
-2.63
-2.95
-2.97
-2.67
-2.13
-1.48
-0.83
-0.27
0.20
0.61
1.01
1.39
1.70
1.87
1.87
1.71
1.48
1.28
1.20
1.24
1.33
1.39
1.37
1.25
1.07
0.87
0.67
0.47
0.22
-0.11
-0.55
-1.05
-1.54
-1.92
-2.11
-2.12
-2.01
-1.93
-2.00
-2.28
-2.71
-3.16
-3.44
-3.45
-3.16
-2.60
-1.87
-1.07
-0.31
0.31
0.77
1.07
1.29
1.51
1.82
2.24
2.70
3.13
3.42
3.52
3.41
3.13
2.75
2.38
2.08
1.92
1.90
1.97
2.08
2.16
2.13
1.94
1.57
1.04
0.41
-0.21
-0.74
-1.13
-1.41
-1.65
-1.93
-2.28
-2.66
-3.06
-3.43
-3.84
-4.33
-4.92
-5.57
-6.13
-6.43
-6.37
-5.91
-5.14
-4.22
-3.32
-2.58
-2.05
-1.71
-1.49
-1.31
-1.10
-0.79
-0.37
0.15
0.73
1.35
1.96
2.53
3.00
3.36
3.56
3.61
3.50
3.22
2.77
2.19
1.57
1.03
0.69
0.61
0.73
0.94
1.08
1.05
0.81
0.43
-0.01
-0.41
-0.71
-0.89
-0.94
-0.92
-0.90
-0.94
-1.10
-1.33
-1.55
-1.62
-1.46
-1.03
-0.37
0.43
1.26
2.02
2.64
3.07
3.29
3.33
3.25
3.10
2.94
2.81
2.73
2.69
2.67
2.62
2.50
2.27
1.95
1.61
1.32
1.11
0.99
0.89
0.76
0.58
0.34
0.06
-0.28
-0.70
-1.20
-1.79
-2.44
-3.10
-3.73
-4.34
-4.89
-5.38
-5.78
-6.08
-6.29
-6.43
-6.51
-6.56
-6.53
-6.39
-6.14
-5.81
-5.46
-5.16
-4.94
-4.79
-4.66
-4.54
-4.42
-4.29
-4.11
-3.80
-3.27
-2.48
-1.51
-0.54
0.23
0.67
0.83
0.85
0.91
1.12
1.48
1.91
2.27
2.49
2.55
2.47
2.30
2.07
1.82
1.55
1.28
0.99
0.68
0.31
-0.15
-0.70
-1.32
-1.94
-2.48
-2.88
-3.12
-3.23
-3.26
-3.23
-3.11
-2.83
-2.32
-1.55
-0.62
0.36
1.26
2.05
2.76
3.47
4.22
4.95
5.54
5.86
5.86
5.64
5.39
5.34
5.61
6.19
6.93
7.59
8.03
8.20
8.16
8.03
7.87
7.73
7.55
7.30
6.96
6.55
6.08
5.53
4.83
3.96
2.92
1.83
0.83
0.05
-0.48
-0.81
-1.08
-1.43
-1.91
-2.52
-3.18
-3.75
-4.13
-4.24
-4.08
-3.69
-3.15
-2.54
-1.93
-1.39
-0.94
-0.59
-0.37
-0.22
-0.14
-0.08
-0.02
0.03
0.05
0.01
-0.12
-0.33
-0.62
-0.93
-1.23
-1.47
-1.61
-1.65
-1.64
-1.62
-1.63
-1.69
-1.76
-1.78
-1.69
-1.48
-1.18
-0.87
-0.64
-0.56
-0.67
-0.94
-1.30
-1.65
-1.88
-1.91
-1.70
-1.28
-0.72
-0.09
0.54
1.13
1.68
2.19
2.66
3.08
3.40
3.61
3.66
3.59
3.43
3.26
3.12
3.02
2.92
2.77
2.54
2.21
1.78
1.29
0.78
0.29
-0.12
-0.41
-0.59
-0.66
-0.68
-0.68
-0.69
-0.70
-0.70
-0.70
-0.76
-0.94
-1.30
-1.81
-2.37
-2.83
-3.08
-3.02
-2.67
-2.10
-1.44
-0.75
-0.11
0.50
1.09
1.66
2.21
2.68
3.02
3.20
3.19
3.03
2.78
2.51
2.28
2.10
1.96
1.81
1.64
1.50
1.43
1.47
1.59
1.70
1.65
1.37
0.85
0.17
-0.51
-1.07
-1.43
-1.59
-1.61
-1.56
-1.51
-1.50
-1.57
-1.76
-2.12
-2.64
-3.25
-3.82
-4.18
-4.21
-3.86
-3.23
-2.49
-1.82
-1.31
-0.94
-0.61
-0.24
0.17
0.54
0.74
0.72
0.54
0.35
0.28
0.41
0.70
1.01
1.23
1.30
1.26
1.18
1.12
1.09
1.07
1.03
0.93
0.77
0.58
0.35
0.09
-0.20
-0.52
-0.81
-1.06
-1.27
-1.48
-1.77
-2.20
-2.75
-3.34
-3.82
-4.08
-4.07
-3.82
-3.40
-2.89
-2.31
-1.69
-1.02
-0.33
0.31
0.85
1.27
1.58
1.82
2.00
2.13
2.24
2.32
2.39
2.45
2.47
2.42
2.25
1.97
1.66
1.40
1.26
1.28
1.41
1.59
1.76
1.88
1.97
2.05
2.13
2.16
2.05
1.73
1.14
0.32
-0.59
-1.43
-2.04
-2.36
-2.40
-2.24
-1.97
-1.65
-1.30
-0.90
-0.46
-0.01
0.40
0.77
1.13
1.52
2.01
2.54
3.02
3.32
3.37
3.20
2.94
2.75
2.69
2.73
2.74
2.63
2.34
1.94
1.53
1.18
0.90
0.62
0.28
-0.11
-0.50
-0.80
-0.93
-0.91
-0.78
-0.64
-0.57
-0.65
-0.91
-1.40
-2.06
-2.82
-3.52
-4.01
-4.15
-3.90
-3.30
-2.51
-1.69
-0.96
-0.40
0.00
0.27
0.44
0.51
0.43
0.14
-0.32
-0.86
-1.36
-1.72
-1.90
-2.01
-2.13
-2.35
-2.60
-2.77
-2.73
-2.43
-1.88
-1.18
-0.44
0.22
0.69
0.91
0.82
0.47
-0.04
-0.53
-0.85
-0.90
-0.72
-0.43
-0.19
-0.13
-0.31
-0.77
-1.44
-2.20
-2.85
-3.18
-3.07
-2.48
-1.56
-0.57
0.26
0.77
0.96
0.92
0.82
0.75
0.77
0.82
0.85
0.84
0.83
0.88
1.03
1.29
1.59
1.87
2.07
2.16
2.12
1.95
1.62
1.15
0.57
-0.03
-0.51
-0.78
-0.81
-0.67
-0.50
-0.43
-0.56
-0.89
-1.33
-1.77
-2.16
-2.49
-2.79
-3.13
-3.49
-3.78
-3.89
-3.74
-3.36
-2.89
-2.46
-2.14
-1.90
-1.65
-1.30
-0.86
-0.37
0.08
0.44
0.72
0.93
1.08
1.16
1.12
1.00
0.84
0.70
0.67
0.74
0.88
1.05
1.20
1.27
1.22
1.02
0.68
0.28
-0.06
-0.22
-0.17
0.01
0.14
0.08
-0.25
-0.77
-1.30
-1.67
-1.78
-1.65
-1.37
-1.04
-0.70
-0.34
0.05
0.43
0.75
0.96
1.05
1.08
1.10
1.16
1.22
1.25
1.20
1.09
0.99
1.03
1.25
1.63
2.04
2.32
2.40
2.30
2.14
2.07
2.13
2.27
2.36
2.31
2.08
1.73
1.41
1.21
1.18
1.25
1.33
1.31
1.12
0.76
0.29
-0.21
-0.62
-0.89
-1.01
-1.04
-1.05
-1.08
-1.12
-1.14
-1.07
-0.93
-0.76
-0.65
-0.68
-0.89
-1.23
-1.60
-1.88
-1.94
-1.72
-1.21
-0.51
0.27
0.98
1.54
1.92
2.14
2.28
2.39
2.57
2.89
3.43
4.26
5.36
6.64
7.92
9.01
9.77
10.17
10.23
10.03
9.64
9.13
8.60
8.14
7.81
7.58
7.33
6.87
6.08
4.91
3.45
1.78
-0.03
-2.06
-4.39
-7.04
-9.88
-12.61
-14.87
-16.38
-17.09
-17.10
-16.61
-15.83
-14.86
-13.75
-12.56
-11.37
-10.33
-9.59
-9.25
-9.24
-9.44
-9.62
-9.59
-9.23
-8.55
-7.63
-6.62
-5.64
-4.77
-4.03
-3.43
-2.95
-2.57
-2.26
-1.99
-1.72
-1.41
-1.03
-0.61
-0.20
0.14
0.38
0.59
0.87
1.31
1.93
2.61
3.13
3.28
2.99
2.36
1.64
1.14
1.08
1.51
2.31
3.31
4.30
5.13
5.72
5.99
5.95
5.64
5.22
4.86
4.67
4.68
4.81
4.95
5.01
5.03
5.09
5.28
5.57
5.85
5.99
5.87
5.51
5.01
4.54
4.21
4.09
4.18
4.41
4.72
4.99
5.20
5.29
5.28
5.16
4.90
4.46
3.77
2.82
1.69
0.51
-0.51
-1.23
-1.58
-1.60
-1.40
-1.09
-0.73
-0.36
0.01
0.36
0.62
0.75
0.74
0.60
0.41
0.24
0.18
0.29
0.63
1.19
1.94
2.72
3.39
3.78
3.85
3.69
3.48
3.43
3.66
4.13
4.71
5.24
5.60
5.78
5.80
5.73
5.59
5.33
4.84
4.02
2.87
1.47
-0.01
-1.33
-2.30
-2.84
-2.96
-2.76
-2.41
-2.04
-1.78
-1.72
-1.97
-2.60
-3.65
-5.02
-6.56
-8.04
-9.28
-10.20
-10.81
-11.23
-11.59
-11.98
-12.42
-12.86
-13.21
-13.45
-13.54
-13.49
-13.29
-12.98
-12.60
-12.19
-11.77
-11.33
-10.77
-10.01
-9.02
-7.89
-6.79
-5.91
-5.29
-4.87
-4.45
-3.88
-3.09
-2.15
-1.20
-0.28
0.63
1.62
2.74
3.91
4.95
5.60
5.74
5.37
4.67
3.90
3.28
2.86
2.61
2.38
2.07
1.69
1.38
1.31
1.62
2.33
3.31
4.35
5.22
5.73
5.80
5.49
4.95
4.38
3.97
3.86
4.10
4.66
5.47
6.37
7.09
7.26
6.48
4.48
1.28
-2.68
-6.61
-9.62
-11.01
-10.53
-8.45
-5.42
-2.24
0.47
2.33
3.31
3.57
3.37
2.92
2.36
1.78
1.29
1.01
1.08
1.57
2.42
3.39
4.21
4.62
4.55
4.11
3.52
3.02
2.72
2.64
2.69
2.78
2.84
2.87
2.88
2.87
2.83
2.73
2.54
2.27
2.00
1.81
1.76
1.84
1.98
2.07
1.99
1.67
1.13
0.42
-0.36
-1.17
-1.91
-2.54
-2.97
-3.15
-3.05
-2.70
-2.16
-1.54
-0.90
-0.27
0.33
0.86
1.31
1.63
1.83
1.89
1.85
1.73
1.54
1.32
1.09
0.88
0.72
0.62
0.56
0.50
0.43
0.33
0.22
0.16
0.17
0.24
0.35
0.44
0.47
0.44
0.37
0.28
0.19
0.07
-0.07
-0.21
-0.27
-0.19
0.05
0.41
0.75
0.96
0.96
0.78
0.54
0.33
0.20
0.13
0.04
-0.13
-0.37
-0.63
-0.82
-0.88
-0.79
-0.51
-0.04
0.56
1.18
1.63
1.67
1.13
0.03
-1.43
-2.89
-4.02
-4.60
-4.60
-4.12
-3.32
-2.35
-1.28
-0.19
0.85
1.73
2.31
2.46
2.09
1.18
-0.15
-1.68
-3.12
-4.19
-4.66
-4.47
-3.68
-2.48
-1.11
0.14
1.05
1.43
1.19
0.34
-0.94
-2.38
-3.68
-4.60
-5.00
-4.89
-4.36
-3.55
-2.59
-1.61
-0.72
-0.02
0.41
0.51
0.33
-0.01
-0.31
-0.42
-0.24
0.21
0.81
1.45
2.01
2.48
2.85
3.17
3.40
3.46
3.25
2.75
2.00
1.16
0.41
-0.12
-0.38
-0.41
-0.27
0.03
0.50
1.17
2.01
2.91
3.73
4.30
4.56
4.50
4.23
3.84
3.42
2.95
2.42
1.81
1.15
0.52
0.01
-0.29
-0.36
-0.20
0.16
0.71
1.43
2.26
3.12
3.85
4.30
4.36
4.00
3.28
2.31
1.22
0.12
-0.88
-1.67
-2.22
-2.48
-2.51
-2.37
-2.18
-2.02
-1.92
-1.88
-1.88
-1.87
-1.85
-1.84
-1.84
-1.88
-1.96
-2.07
-2.17
-2.27
-2.32
-2.33
-2.32
-2.29
-2.22
-2.12
-1.98
-1.83
-1.69
-1.55
-1.40
-1.16
-0.78
-0.26
0.30
0.75
0.98
0.95
0.73
0.44
0.19
0.07
0.09
0.28
0.63
1.08
1.53
1.80
1.74
1.31
0.69
0.17
0.05
0.52
1.52
2.83
4.14
5.16
5.71
5.68
5.07
3.99
2.61
1.20
0.03
-0.74
-1.11
-1.23
-1.38
-1.77
-2.46
-3.33
-4.13
-4.66
-4.82
-4.65
-4.37
-4.17
-4.18
-4.40
-4.72
-5.03
-5.25
-5.39
-5.50
-5.63
-5.76
-5.83
-5.79
-5.61
-5.32
-4.97
-4.61
-4.34
-4.20
-4.25
-4.46
-4.76
-4.99
-4.98
-4.61
-3.86
-2.87
-1.81
-0.85
-0.08
0.51
1.03
1.56
2.14
2.72
3.19
3.51
3.66
3.71
3.77
3.92
4.18
4.51
4.86
5.16
5.38
5.54
5.65
5.75
5.88
6.06
6.29
6.54
6.71
6.72
6.52
6.16
5.79
5.57
5.64
6.07
6.80
7.75
8.77
9.67
10.26
10.35
9.88
8.90
7.60
6.22
4.96
3.88
2.91
1.93
0.90
-0.12
-1.00
-1.63
-1.99
-2.18
-2.36
-2.63
-2.99
-3.35
-3.61
-3.72
-3.69
-3.57
-3.47
-3.45
-3.51
-3.62
-3.71
-3.71
-3.57
-3.29
-2.94
-2.63
-2.46
-2.46
-2.60
-2.77
-2.85
-2.79
-2.62
-2.43
-2.29
-2.23
-2.18
-2.12
-2.03
-1.96
-2.01
-2.21
-2.54
-2.88
-3.12
-3.22
-3.20
-3.14
-3.06
-2.92
-2.63
-2.13
-1.47
-0.80
-0.28
-0.01
0.03
-0.01
0.04
0.25
0.60
0.98
1.28
1.44
1.40
1.16
0.69
0.02
-0.78
-1.57
-2.21
-2.61
-2.77
-2.81
-2.83
-2.91
-3.02
-3.07
-2.96
-2.67
-2.22
-1.69
-1.17
-0.73
-0.43
-0.29
-0.31
-0.45
-0.63
-0.75
-0.72
-0.51
-0.13
0.32
0.78
1.20
1.57
1.91
2.20
2.40
2.43
2.22
1.73
0.94
-0.06
-1.12
-2.07
-2.73
-3.02
-2.96
-2.65
-2.21
-1.71
-1.13
-0.42
0.43
1.34
2.19
2.83
3.19
3.26
3.11
2.78
2.32
1.75
1.12
0.49
-0.06
-0.44
-0.56
-0.35
0.22
1.14
2.26
3.35
4.17
4.52
4.33
3.66
2.67
1.54
0.39
-0.67
-1.54
-2.13
-2.36
-2.20
-1.71
-1.02
-0.32
0.23
0.54
0.61
0.46
0.13
-0.28
-0.71
-1.02
-1.10
-0.86
-0.31
0.43
1.22
1.89
2.35
2.63
2.82
3.02
3.28
3.58
3.81
3.86
3.68
3.27
2.72
2.14
1.63
1.22
0.90
0.68
0.60
0.72
1.08
1.64
2.27
2.78
2.98
2.84
2.46
2.02
1.65
1.43
1.24
0.94
0.42
-0.32
-1.18
-2.03
-2.72
-3.18
-3.32
-3.10
-2.50
-1.57
-0.49
0.55
1.32
1.69
1.66
1.36
0.95
0.59
0.40
0.36
0.43
0.51
0.53
0.46
0.38
0.37
0.52
0.82
1.14
1.33
1.27
0.99
0.58
0.18
-0.12
-0.31
-0.39
-0.38
-0.19
0.25
0.96
1.84
2.66
3.15
3.09
2.40
1.16
-0.40
-2.04
-3.50
-4.61
-5.32
-5.65
-5.71
-5.57
-5.31
-5.00
-4.67
-4.38
-4.13
-3.94
-3.85
-3.87
-4.02
-4.26
-4.52
-4.69
-4.68
-4.48
-4.17
-3.87
-3.67
-3.56
-3.46
-3.20
-2.69
-1.96
-1.18
-0.56
-0.30
-0.43
-0.85
-1.31
-1.59
-1.52
-1.09
-0.44
0.22
0.68
0.85
0.79
0.66
0.69
1.07
1.91
3.19
4.77
6.45
7.98
9.14
9.83
10.02
9.78
9.20
8.35
7.26
5.94
4.40
2.69
0.91
-0.79
-2.23
-3.28
-3.85
-3.96
-3.70
-3.25
-2.81
-2.53
-2.48
-2.63
-2.90
-3.17
-3.38
-3.57
-3.81
-4.19
-4.72
-5.28
-5.64
-5.55
-4.79
-3.33
-1.31
0.95
3.07
4.72
5.71
6.01
5.74
5.10
4.35
3.72
3.37
3.40
3.79
4.42
5.09
5.57
5.71
5.49
5.00
4.47
4.08
3.97
4.09
4.29
4.33
4.01
3.21
1.97
0.41
-1.30
-3.01
-4.61
-6.07
-7.31
-8.31
-9.03
-9.44
-9.56
-9.47
-9.25
-9.01
-8.81
-8.63
-8.39
-7.99
-7.36
-6.49
-5.45
-4.35
-3.23
-2.13
-1.07
-0.09
0.75
1.39
1.80
2.02
2.16
2.31
2.52
2.75
2.92
2.92
2.71
2.30
1.82
1.37
1.07
1.01
1.18
1.57
2.11
2.68
3.16
3.43
3.39
3.00
2.33
1.55
0.86
0.41
0.29
0.40
0.61
0.77
0.80
0.73
0.63
0.60
0.70
0.92
1.21
1.48
1.67
1.73
1.65
1.44
1.12
0.77
0.49
0.41
0.63
1.13
1.76
2.29
2.46
2.20
1.58
0.82
0.11
-0.44
-0.89
-1.37
-2.00
-2.80
-3.73
-4.66
-5.46
-6.06
-6.41
-6.52
-6.42
-6.14
-5.70
-5.12
-4.44
-3.76
-3.21
-2.88
-2.81
-2.94
-3.13
-3.27
-3.31
-3.27
-3.17
-2.99
-2.66
-2.12
-1.37
-0.54
0.22
0.80
1.17
1.39
1.57
1.72
1.84
1.90
1.92
1.93
1.99
2.13
2.31
2.48
2.60
2.67
2.76
2.89
3.06
3.21
3.26
3.16
2.97
2.77
2.65
2.64
2.74
2.87
3.00
3.12
3.27
3.47
3.70
3.89
3.99
4.00
3.98
4.05
4.30
4.77
5.41
6.10
6.73
7.21
7.50
7.58
7.49
7.22
6.78
6.18
5.40
4.50
3.56
2.74
2.21
2.13
2.55
3.39
4.44
5.42
6.08
6.23
5.81
4.89
3.59
2.10
0.58
-0.86
-2.13
-3.19
-4.01
-4.55
-4.80
-4.76
-4.50
-4.19
-4.00
-4.07
-4.40
-4.88
-5.30
-5.46
-5.28
-4.82
-4.26
-3.79
-3.54
-3.51
-3.63
-3.82
-3.98
-4.06
-4.03
-3.90
-3.69
-3.46
-3.27
-3.18
-3.19
-3.27
-3.33
-3.27
-3.07
-2.74
-2.37
-2.06
-1.83
-1.70
-1.60
-1.48
-1.34
-1.25
-1.27
-1.49
-1.88
-2.38
-2.85
-3.18
-3.34
-3.36
-3.32
-3.28
-3.23
-3.11
-2.84
-2.42
-1.91
-1.44
-1.16
-1.13
-1.37
-1.77
-2.19
-2.52
-2.73
-2.82
-2.88
-2.95
-3.04
-3.11
-3.10
-3.00
-2.86
-2.76
-2.77
-2.86
-2.97
-2.95
-2.72
-2.27
-1.66
-1.05
-0.55
-0.25
-0.17
-0.30
-0.57
-0.92
-1.28
-1.58
-1.75
-1.76
-1.61
-1.32
-0.94
-0.51
-0.05
0.44
0.93
1.38
1.70
1.80
1.65
1.33
1.00
0.86
1.05
1.56
2.26
2.92
3.34
3.44
3.27
2.97
2.68
2.48
2.39
2.33
2.24
2.05
1.77
1.44
1.12
0.90
0.83
0.91
1.10
1.31
1.45
1.46
1.30
1.04
0.77
0.59
0.59
0.81
1.23
1.75
2.28
2.71
3.01
3.20
3.32
3.47
3.72
4.11
4.66
5.32
6.01
6.63
7.06
7.20
7.04
6.63
6.10
5.58
5.16
4.87
4.68
4.55
4.45
4.36
4.24
4.03
3.65
3.04
2.21
1.23
0.27
-0.52
-1.06
-1.36
-1.55
-1.74
-2.05
-2.48
-2.97
-3.45
-3.88
-4.27
-4.61
-4.85
-4.94
-4.81
-4.48
-4.04
-3.65
-3.42
-3.36
-3.36
-3.29
-3.04
-2.61
-2.07
-1.55
-1.12
-0.80
-0.59
-0.42
-0.29
-0.18
-0.10
-0.02
0.10
0.29
0.54
0.76
0.84
0.67
0.24
-0.32
-0.83
-1.11
-1.08
-0.82
-0.50
-0.30
-0.29
-0.46
-0.71
-0.97
-1.19
-1.43
-1.71
-2.02
-2.32
-2.51
-2.54
-2.41
-2.22
-2.05
-1.95
-1.91
-1.86
-1.74
-1.56
-1.40
-1.38
-1.54
-1.84
-2.15
-2.33
-2.28
-1.99
-1.55
-1.09
-0.76
-0.64
-0.76
-1.06
-1.44
-1.80
-2.06
-2.22
-2.28
-2.28
-2.23
-2.15
-2.03
-1.88
-1.71
-1.56
-1.40
-1.24
-1.05
-0.85
-0.66
-0.51
-0.39
-0.28
-0.14
0.06
0.29
0.51
0.69
0.88
1.11
1.43
1.84
2.26
2.59
2.70
2.58
2.25
1.82
1.42
1.16
1.10
1.20
1.41
1.64
1.83
1.93
1.95
1.94
1.92
1.93
1.94
1.97
1.99
1.99
1.96
1.85
1.64
1.31
0.92
0.54
0.29
0.25
0.43
0.77
1.19
1.63
2.06
2.48
2.89
3.27
3.58
3.82
3.99
4.14
4.36
4.67
5.08
5.54
6.01
6.46
6.87
7.23
7.47
7.51
7.31
6.84
6.18
5.45
4.79
4.28
3.93
3.66
3.38
3.04
2.61
2.13
1.65
1.20
0.77
0.34
-0.14
-0.69
-1.30
-1.90
-2.39
-2.72
-2.90
-3.01
-3.17
-3.45
-3.83
-4.23
-4.50
-4.54
-4.34
-3.99
-3.63
-3.36
-3.21
-3.14
-3.09
-2.99
-2.83
-2.61
-2.36
-2.13
-1.94
-1.80
-1.70
-1.62
-1.55
-1.48
-1.41
-1.37
-1.38
-1.44
-1.58
-1.76
-1.95
-2.11
-2.20
-2.20
-2.13
-2.05
-1.99
-1.97
-2.00
-2.07
-2.18
-2.36
-2.59
-2.83
-3.01
-3.11
-3.15
-3.24
-3.46
-3.82
-4.18
-4.38
-4.27
-3.83
-3.22
-2.68
-2.38
-2.35
-2.51
-2.68
-2.74
-2.65
-2.46
-2.22
-1.95
-1.66
-1.30
-0.88
-0.44
-0.04
0.26
0.44
0.51
0.48
0.39
0.28
0.18
0.13
0.11
0.10
0.02
-0.17
-0.51
-0.96
-1.45
-1.90
-2.24
-2.44
-2.49
-2.41
-2.17
-1.79
-1.29
-0.75
-0.30
-0.04
-0.00
-0.13
-0.32
-0.46
-0.51
-0.49
-0.46
-0.48
-0.56
-0.72
-0.96
-1.27
-1.63
-1.99
-2.22
-2.17
-1.72
-0.82
0.46
2.01
3.69
5.35
6.88
8.17
9.13
9.71
9.93
9.88
9.70
9.52
9.41
9.38
9.37
9.28
9.02
8.57
7.95
7.18
6.34
5.46
4.63
3.90
3.33
2.96
2.79
2.78
2.83
2.85
2.73
2.42
1.89
1.22
0.51
-0.09
-0.49
-0.67
-0.73
-0.81
-1.02
-1.39
-1.80
-2.12
-2.27
-2.25
-2.16
-2.13
-2.21
-2.37
-2.51
-2.57
-2.51
-2.41
-2.32
-2.30
-2.36
-2.50
-2.68
-2.88
-3.07
-3.22
-3.29
-3.27
-3.16
-2.97
-2.73
-2.44
-2.09
-1.69
-1.24
-0.80
-0.41
-0.09
0.16
0.38
0.59
0.81
1.00
1.14
1.17
1.07
0.85
0.58
0.30
0.10
0.01
0.01
0.07
0.12
0.10
-0.04
-0.30
-0.69
-1.15
-1.61
-2.01
-2.27
-2.36
-2.32
-2.22
-2.21
-2.38
-2.75
-3.28
-3.84
-4.29
-4.53
-4.53
-4.32
-3.95
-3.49
-2.92
-2.23
-1.41
-0.52
0.29
0.86
1.08
0.95
0.58
0.17
-0.12
-0.19
-0.08
0.13
0.35
0.52
0.64
0.74
0.82
0.90
0.95
0.98
1.01
1.05
1.12
1.22
1.31
1.38
1.38
1.32
1.17
0.98
0.79
0.67
0.69
0.88
1.21
1.57
1.85
1.98
1.99
2.00
2.13
2.47
3.01
3.65
4.28
4.80
5.17
5.38
5.45
5.40
5.22
4.90
4.45
3.91
3.36
2.89
2.58
2.50
2.59
2.75
2.79
2.59
2.12
1.44
0.67
-0.08
-0.72
-1.22
-1.57
-1.79
-1.88
-1.88
-1.84
-1.83
-1.89
-2.02
-2.21
-2.43
-2.66
-2.93
-3.21
-3.48
-3.70
-3.84
-3.88
-3.85
-3.81
-3.74
-3.64
-3.43
-3.08
-2.57
-1.97
-1.34
-0.78
-0.33
-0.04
0.10
0.12
0.10
0.10
0.19
0.39
0.66
0.94
1.10
1.08
0.90
0.62
0.35
0.20
0.15
0.18
0.20
0.16
0.07
-0.04
-0.12
-0.15
-0.14
-0.12
-0.09
-0.07
-0.05
-0.04
-0.05
-0.11
-0.24
-0.44
-0.71
-1.04
-1.40
-1.75
-2.05
-2.25
-2.29
-2.14
-1.79
-1.26
-0.64
-0.06
0.36
0.57
0.59
0.54
0.58
0.78
1.08
1.35
1.44
1.27
0.92
0.52
0.22
0.08
0.09
0.15
0.18
0.14
0.02
-0.15
-0.36
-0.57
-0.78
-1.02
-1.31
-1.71
-2.21
-2.78
-3.33
-3.76
-4.00
-4.04
-3.92
-3.73
-3.52
-3.30
-3.02
-2.61
-2.06
-1.39
-0.70
-0.11
0.25
0.34
0.22
0.00
-0.15
-0.15
0.03
0.34
0.69
1.01
1.26
1.45
1.61
1.77
1.94
2.12
2.35
2.61
2.92
3.20
3.42
3.53
3.60
3.69
3.89
4.16
4.43
4.55
4.45
4.14
3.70
3.21
2.72
2.26
1.84
1.52
1.39
1.48
1.73
1.97
1.99
1.67
1.03
0.24
-0.47
-0.91
-1.04
-0.96
-0.88
-0.95
-1.20
-1.55
-1.80
-1.82
-1.59
-1.23
-0.93
-0.83
-0.93
-1.10
-1.17
-1.05
-0.81
-0.60
-0.54
-0.65
-0.84
-0.96
-0.89
-0.64
-0.36
-0.21
-0.32
-0.73
-1.30
-1.88
-2.28
-2.44
-2.34
-2.05
-1.70
-1.37
-1.13
-1.01
-1.01
-1.11
-1.25
-1.40
-1.53
-1.62
-1.69
-1.72
-1.69
-1.56
-1.28
-0.85
-0.36
0.08
0.37
0.50
0.57
0.71
1.00
1.42
1.88
2.21
2.33
2.22
1.97
1.64
1.33
1.02
0.71
0.38
0.03
-0.29
-0.51
-0.58
-0.51
-0.38
-0.30
-0.38
-0.63
-0.95
-1.21
-1.32
-1.27
-1.14
-1.04
-1.02
-1.04
-1.02
-0.94
-0.78
-0.63
-0.54
-0.51
-0.52
-0.50
-0.45
-0.38
-0.33
-0.30
-0.31
-0.33
-0.35
-0.35
-0.29
-0.14
0.11
0.45
0.82
1.09
1.19
1.06
0.74
0.33
-0.07
-0.39
-0.60
-0.72
-0.80
-0.86
-0.93
-1.00
-1.10
-1.32
-1.71
-2.31
-3.05
-3.75
-4.20
-4.21
-3.73
-2.82
-1.67
-0.46
0.64
1.52
2.18
2.62
2.87
3.00
3.03
3.02
2.98
2.87
2.68
2.41
2.10
1.85
1.70
1.68
1.69
1.62
1.41
1.07
0.74
0.60
0.73
1.13
1.66
2.18
2.59
2.95
3.37
3.93
4.64
5.36
5.98
6.41
6.71
7.01
7.41
7.94
8.52
9.06
9.54
10.04
10.69
11.61
12.80
14.19
15.67
17.15
18.58
19.85
20.68
20.67
19.44
16.85
13.16
9.00
5.19
2.40
0.91
0.53
0.76
0.95
0.59
-0.52
-2.31
-4.50
-6.73
-8.76
-10.45
-11.80
-12.87
-13.73
-14.38
-14.79
-14.97
-15.02
-15.07
-15.26
-15.58
-15.88
-15.97
-15.67
-14.99
-14.11
-13.30
-12.78
-12.60
-12.66
-12.73
-12.62
-12.28
-11.74
-11.15
-10.72
-10.58
-10.73
-11.02
-11.22
-11.12
-10.56
-9.46
-7.79
-5.78
-3.77
-2.12
-1.11
-0.87
-1.31
-2.11
-2.75
-2.65
-1.68
-0.02
1.98
3.96
5.70
7.06
7.87
7.92
7.09
5.05
1.78
-2.43
-7.07
-11.75
-16.59
-22.15
-29.13
-35.37
-38.42
-36.24
-28.46
-16.53
-2.68
11.04
23.20
33.24
41.19
46.98
50.46
51.46
49.87
46.08
40.78
35.03
29.95
26.44
24.65
24.29
24.82
25.54
25.84
25.21
23.28
19.99
15.82
11.53
7.93
6.78
8.64
12.88
17.83
21.49
22.43
20.39
16.19
11.27
6.89
3.47
0.80
-1.63
-4.09
-6.47
-8.38
-9.56
-10.08
-10.36
-11.06
-12.68
-15.32
-18.60
-21.94
-24.71
-26.57
-27.50
-27.77
-27.79
-27.85
-27.95
-27.88
-27.36
-26.25
-24.62
-22.76
-20.99
-19.61
-18.73
-18.24
-17.96
-17.65
-17.16
-16.40
-15.33
-13.98
-12.43
-10.76
-9.09
-7.50
-6.07
-4.84
-3.81
-2.96
-2.21
-1.47
-0.64
0.30
1.31
2.26
3.02
3.49
3.63
3.48
3.14
2.73
2.37
2.11
1.97
1.91
1.86
1.77
1.62
1.40
1.11
0.75
0.33
-0.19
-0.80
-1.47
-2.10
-2.58
-2.78
-2.68
-2.28
-1.70
-1.07
-0.49
0.01
0.48
0.96
1.51
2.06
2.51
2.78
2.83
2.68
2.43
2.13
1.83
1.53
1.24
1.04
0.96
1.02
1.16
1.23
1.11
0.73
0.12
-0.62
-1.35
-1.98
-2.48
-2.84
-3.06
-3.16
-3.13
-2.95
-2.64
-2.23
-1.76
-1.26
-0.77
-0.27
0.26
0.90
1.66
2.56
3.53
4.47
5.27
5.84
6.15
6.22
6.10
5.81
5.36
4.72
3.91
2.94
1.86
0.76
-0.28
-1.15
-1.78
-2.15
-2.28
-2.23
-2.14
-2.15
-2.39
-2.91
-3.68
-4.56
-5.31
-5.74
-5.75
-5.40
-4.85
-4.29
-3.85
-3.51
-3.13
-2.58
-1.79
-0.83
0.15
0.99
1.62
2.04
2.35
2.64
2.99
3.49
4.14
4.92
5.71
6.31
6.48
6.05
4.95
3.27
1.23
-0.86
-2.69
-4.06
-4.89
-5.23
-5.26
-5.12
-4.93
-4.73
-4.49
-4.15
-3.70
-3.17
-2.67
-2.30
-2.09
-2.00
-1.91
-1.72
-1.34
-0.83
-0.25
0.25
0.62
0.83
1.00
1.24
1.68
2.42
3.46
4.73
6.08
7.25
7.90
7.71
6.45
4.16
1.11
-2.17
-5.07
-7.12
-8.09
-8.12
-7.58
-6.97
-6.63
-6.68
-6.97
-7.20
-7.05
-6.39
-5.23
-3.71
-2.01
-0.28
1.34
2.68
3.53
3.75
3.32
2.42
1.43
0.77
0.72
1.34
2.43
3.69
4.86
5.75
6.30
6.54
6.58
6.55
6.66
7.09
7.86
8.74
9.26
8.90
7.31
4.52
0.99
-2.58
-5.55
-7.54
-8.48
-8.52
-7.87
-6.70
-5.18
-3.52
