1659458804.00
64.000000
-0.00
-0.00
-0.00
-0.00
-0.00
-0.00
-0.00
-0.00
-0.00
-0.00
0.00
0.01
0.01
-0.00
-0.03
-0.05
-0.05
0.00
0.13
0.36
0.66
1.01
1.37
1.72
2.06
2.40
2.79
3.24
3.80
4.42
5.06
5.66
6.20
6.68
7.15
7.68
8.31
9.14
10.09
11.04
11.88
12.56
13.14
13.76
14.65
15.96
17.91
20.32
22.90
25.38
27.58
29.57
31.68
34.32
37.81
42.54
48.15
54.11
59.83
64.97
69.57
74.14
79.36
85.74
93.82
103.04
112.61
121.62
129.51
136.35
142.77
150.13
157.13
166.01
177.32
191.13
206.22
219.69
227.23
224.25
207.38
175.75
131.69
78.99
21.91
-36.33
-94.16
-151.23
-207.57
-262.80
-316.11
-366.12
-412.08
-453.44
-489.68
-519.83
-542.29
-555.04
-556.14
-544.49
-520.12
-484.58
-440.33
-390.17
-336.56
-281.33
-225.67
-170.49
-116.80
-65.86
-19.29
21.43
55.40
82.57
103.74
120.16
133.06
143.21
150.81
155.59
157.19
155.30
149.79
140.90
129.52
117.49
107.56
102.73
105.12
114.82
129.58
145.38
158.07
164.88
165.24
160.43
152.47
142.94
132.54
121.34
109.45
97.44
86.28
76.80
69.27
63.37
58.17
52.72
46.61
40.01
33.52
27.80
23.30
20.02
17.59
15.41
12.97
10.09
6.92
3.92
1.57
0.18
-0.25
-0.04
0.30
0.38
0.02
-0.73
-1.64
-2.47
-3.07
-3.44
-3.66
-3.91
-4.33
-4.91
-5.49
-5.76
-5.43
-4.42
-2.94
-1.49
-0.63
-0.70
-1.64
-3.01
-4.22
-4.83
-4.74
-4.22
-3.69
-3.49
-3.65
-3.98
-4.16
-3.99
-3.51
-2.97
-2.62
-2.66
-3.01
-3.43
-3.67
-3.55
-3.08
-2.45
-1.88
-1.50
-1.28
-1.12
-0.86
-0.47
0.02
0.50
0.84
1.00
1.02
1.01
1.10
1.32
1.63
1.97
2.31
2.70
3.23
4.00
4.99
6.09
7.07
7.78
8.17
8.32
8.37
8.41
8.38
8.08
7.29
5.95
4.06
1.87
-0.34
-2.30
-3.94
-5.34
-6.63
-7.92
-9.17
-10.24
-10.92
-11.09
-10.79
-10.16
-9.40
-8.66
-7.93
-7.17
-6.36
-5.55
-4.87
-4.43
-4.23
-4.18
-4.10
-3.85
-3.45
-3.02
-2.73
-2.65
-2.76
-2.92
-2.97
-2.79
-2.38
-1.83
-1.27
-0.86
-0.68
-0.77
-1.07
-1.47
-1.80
-1.97
-1.92
-1.70
-1.41
-1.17
-1.07
-1.11
-1.25
-1.42
-1.59
-1.79
-2.01
-2.28
-2.56
-2.82
-3.00
-3.11
-3.14
-3.10
-2.96
-2.67
-2.18
-1.49
-0.66
0.16
0.85
1.35
1.69
1.96
2.23
2.52
2.77
2.89
2.82
2.59
2.29
2.05
1.92
1.86
1.77
1.55
1.21
0.83
0.56
0.49
0.59
0.77
0.91
0.92
0.83
0.68
0.52
0.31
-0.01
-0.50
-1.17
-1.92
-2.66
-3.29
-3.79
-4.19
-4.56
-4.91
-5.17
-5.25
-5.02
-4.40
-3.43
-2.24
-1.06
-0.09
0.55
0.89
1.10
1.37
1.79
2.32
2.81
3.10
3.14
3.01
2.82
2.66
2.51
2.30
1.95
1.47
0.99
0.71
0.75
1.12
1.66
2.10
2.22
1.91
1.25
0.42
-0.31
-0.81
-1.08
-1.22
-1.42
-1.77
-2.29
-2.87
-3.41
-3.86
-4.23
-4.57
-4.89
-5.11
-5.07
-4.64
-3.77
-2.62
-1.42
-0.39
0.35
0.90
1.41
1.98
2.61
3.18
3.53
3.61
3.50
3.34
3.22
3.14
3.03
2.81
2.48
2.17
2.01
2.07
2.31
2.55
2.59
2.31
1.75
1.04
0.38
-0.07
-0.28
-0.33
-0.33
-0.43
-0.68
-1.11
-1.68
-2.35
-3.04
-3.68
-4.18
-4.45
-4.43
-4.11
-3.52
-2.76
-1.90
-1.03
-0.23
0.46
1.05
1.52
1.92
2.28
2.59
2.85
3.04
3.13
3.15
3.12
3.08
3.00
2.86
2.64
2.38
2.15
2.04
2.07
2.17
2.23
2.11
1.79
1.30
0.77
0.34
0.06
-0.09
-0.18
-0.28
-0.40
-0.53
-0.67
-0.82
-1.07
-1.48
-2.05
-2.69
-3.22
-3.48
-3.39
-3.00
-2.48
-1.95
-1.49
-1.09
-0.64
-0.05
0.68
1.43
2.01
2.26
2.10
1.64
1.13
0.83
0.91
1.36
2.00
2.60
2.98
3.12
3.07
2.93
2.73
2.46
2.10
1.67
1.27
0.97
0.80
0.68
0.52
0.26
-0.10
-0.49
-0.84
-1.15
-1.48
-1.90
-2.44
-3.10
-3.74
-4.26
-4.54
-4.55
-4.36
-4.02
-3.63
-3.18
-2.67
-2.05
-1.36
-0.67
-0.06
0.39
0.67
0.82
0.86
0.79
0.59
0.30
-0.01
-0.22
-0.29
-0.27
-0.32
-0.62
-1.26
-2.15
-3.13
-4.00
-4.66
-5.16
-5.62
-6.16
-6.86
-7.67
-8.51
-9.30
-10.03
-10.74
-11.57
-12.59
-13.83
-15.19
-16.52
-17.64
-18.42
-18.78
-18.66
-18.01
-16.73
-14.73
-11.96
-8.52
-4.61
-0.50
3.55
7.34
10.71
13.56
15.82
17.46
18.51
19.04
19.18
19.06
18.81
18.47
18.03
17.46
16.69
15.73
14.59
13.35
12.11
10.94
9.90
9.00
8.19
7.41
6.61
5.76
4.92
4.16
3.54
3.03
2.54
1.92
1.12
0.18
-0.74
-1.42
-1.73
-1.70
-1.50
-1.36
-1.51
-1.98
-2.63
-3.12
-3.09
-2.31
-0.81
0.99
2.45
2.93
2.13
0.30
-1.78
-3.14
-3.06
-1.44
1.04
3.23
4.05
3.08
0.79
-1.61
-2.67
-1.53
1.68
5.82
9.25
10.66
9.71
7.09
3.99
1.54
0.57
1.78
6.09
14.43
27.07
42.67
58.19
69.96
75.65
75.89
74.27
75.48
82.54
94.89
108.58
118.54
121.48
117.65
110.39
103.87
100.60
100.10
99.46
95.17
85.08
69.61
51.48
34.60
22.39
16.58
16.66
20.38
24.91
28.22
29.91
31.01
33.07
36.91
41.92
46.42
48.75
48.42
46.56
45.25
46.39
50.60
57.02
63.85
69.35
72.51
73.28
72.15
69.71
66.28
61.94
56.56
49.94
41.87
32.14
20.77
8.20
-4.65
-16.47
-25.89
-32.07
-35.02
-35.55
-35.02
-34.72
-35.46
-37.82
-42.66
-51.32
-64.93
-83.31
-104.22
-123.92
-138.79
-147.21
-150.36
-151.38
-153.32
-157.30
-161.99
-164.83
-163.91
-159.29
-152.76
-146.56
-141.82
-138.11
-133.99
-128.30
-120.84
-112.45
-104.33
-97.45
-92.22
-88.33
-85.07
-81.71
-77.82
-73.26
-68.23
-63.08
-58.10
-53.44
-49.02
-44.71
-40.44
-36.33
-32.57
-29.42
-26.97
-25.18
-23.84
-22.70
-21.59
-20.46
-19.34
-18.25
-17.19
-16.15
-15.09
-14.06
-13.13
-12.34
-11.71
-11.14
-10.47
-9.59
-8.43
-7.07
-5.68
-4.47
-3.66
-3.35
-3.48
-3.92
-4.44
-4.83
-4.99
-4.91
-4.70
-4.54
-4.62
-5.02
-5.68
-6.42
-6.96
-7.05
-6.53
-5.40
-3.81
-2.02
-0.30
1.08
1.93
2.22
2.05
1.65
1.36
1.46
2.04
2.96
3.84
4.23
3.81
2.52
0.67
-1.17
-2.29
-2.04
-0.00
3.89
9.29
15.50
21.68
26.97
30.81
32.98
33.66
33.31
32.44
31.52
30.80
30.32
29.97
29.53
28.80
27.62
25.92
23.73
21.17
18.47
15.91
13.75
12.08
10.67
9.05
6.67
3.24
-0.98
-5.18
-8.27
-9.36
-8.20
-5.34
-1.86
1.09
2.82
3.18
2.58
1.64
0.91
0.75
1.22
2.19
3.43
4.69
5.78
6.60
7.19
7.71
8.38
9.39
10.83
12.63
14.53
16.22
17.41
17.88
17.54
16.32
14.14
10.92
6.67
1.63
-3.61
-8.20
-11.26
-12.16
-10.81
-7.65
-3.56
0.43
3.37
4.55
3.59
0.54
-4.14
-9.56
-14.59
-18.09
-19.27
-18.00
-14.85
-10.84
-6.96
-3.73
-1.02
1.72
5.04
8.97
13.00
16.30
18.20
18.60
18.02
17.33
17.26
18.03
19.30
20.40
20.63
19.46
16.62
12.11
6.23
-0.35
-6.62
-11.35
-13.53
-12.85
-9.95
-6.24
-3.33
-2.34
-3.43
-5.86
-8.38
-9.86
-9.69
-7.85
-4.68
-0.69
3.66
7.93
11.67
14.47
16.12
16.69
16.64
16.60
17.14
18.54
20.61
22.71
23.92
23.35
20.44
15.25
8.57
1.77
-3.64
-6.53
-6.59
-4.45
-1.43
0.97
1.61
0.05
-3.36
-7.70
-11.83
-14.73
-15.70
-14.52
-11.47
-7.23
-2.82
0.73
2.63
2.65
1.16
-1.03
-3.01
-4.15
-4.16
-3.08
-1.02
2.00
5.95
10.59
15.41
19.64
22.54
23.65
22.88
20.51
16.97
12.74
8.36
4.38
1.34
-0.47
-1.17
-1.33
-1.75
-3.01
-5.21
-7.90
-10.34
-11.86
-12.18
-11.40
-9.83
-7.72
-5.16
-2.12
1.36
4.99
8.24
10.50
11.46
11.21
10.33
9.54
9.41
10.08
11.27
12.44
13.05
12.83
11.83
10.38
8.95
7.96
7.60
7.67
7.62
6.72
4.46
0.84
-3.49
-7.51
-10.26
-11.32
-11.00
-10.13
-9.54
-9.72
-10.54
-11.44
-11.71
-10.88
-8.94
-6.30
-3.59
-1.31
0.40
1.92
3.96
7.25
12.10
18.06
23.95
28.22
29.54
27.38
22.27
15.54
8.81
3.38
-0.16
-1.97
-2.73
-3.26
-4.16
-5.64
-7.53
-9.37
-10.62
-10.88
-10.00
-8.15
-5.76
-3.35
-1.30
0.28
1.55
2.77
4.21
5.96
8.00
10.22
12.45
14.44
15.85
16.34
15.63
13.72
10.96
8.02
5.64
4.44
4.67
6.19
8.44
10.68
12.16
12.27
10.74
7.68
3.56
-0.88
-4.88
-7.87
-9.61
-10.26
-10.22
-9.94
-9.75
-9.71
-9.67
-9.39
-8.76
-7.92
-7.20
-7.01
-7.40
-7.90
-7.56
-5.35
-0.83
5.49
12.16
17.32
19.55
18.51
14.97
10.50
6.63
4.29
3.60
4.05
4.89
5.45
5.39
4.60
3.18
1.31
-0.84
-3.11
-5.33
-7.27
-8.69
-9.34
-9.06
-7.88
-6.02
-3.83
-1.66
0.25
1.85
3.25
4.61
6.00
7.37
8.59
9.56
10.19
10.37
9.89
8.43
5.79
2.17
-1.65
-4.43
-4.98
-2.84
1.33
5.86
8.84
8.96
6.10
1.29
-3.81
-7.76
-9.76
-9.87
-8.75
-7.28
-6.26
-6.18
-7.15
-8.94
-11.08
-13.04
-14.30
-14.54
-13.50
-11.08
-7.27
-2.27
3.39
8.93
13.44
16.23
17.03
16.00
13.61
10.32
6.46
2.27
-2.00
-5.98
-9.25
-11.45
-12.50
-12.61
-12.16
-11.48
-10.62
-9.36
-7.34
-4.50
-1.17
1.94
4.01
4.64
4.04
3.00
2.52
3.38
5.77
9.31
13.27
16.94
19.85
21.82
22.80
22.75
21.59
19.38
16.44
13.43
11.13
10.17
10.64
11.89
12.79
12.10
9.11
3.98
-2.31
-8.33
-12.77
-14.88
-14.66
-12.71
-10.08
-7.90
-7.11
-8.14
-10.81
-14.37
-17.85
-20.47
-21.89
-22.18
-21.64
-20.48
-18.69
-16.19
-12.95
-9.13
-5.00
-0.81
3.30
7.23
10.73
13.32
14.36
13.36
10.24
5.45
-0.16
-5.56
-9.83
-12.31
-12.72
-11.18
-8.16
-4.30
-0.31
3.31
6.27
8.54
10.31
11.81
13.31
15.03
17.05
19.33
21.67
23.73
25.13
25.58
25.00
23.60
21.87
20.43
19.71
19.75
20.11
19.97
18.55
15.49
11.08
6.21
1.99
-0.68
-1.45
-0.64
0.98
2.41
2.69
1.03
-3.06
-9.63
-18.30
-28.24
-38.28
-47.13
-53.72
-57.32
-57.64
-54.71
-48.73
-40.08
-29.38
-17.68
-6.39
3.01
9.41
12.47
12.65
10.96
8.44
5.77
3.18
0.69
-1.50
-2.86
-2.66
-0.41
3.72
8.93
13.99
17.76
19.55
19.30
17.47
14.79
11.97
9.56
7.97
7.50
8.32
10.38
13.40
16.77
19.73
21.58
21.97
21.03
19.36
17.75
16.79
16.58
16.70
16.42
15.10
12.53
9.11
5.70
3.26
2.52
3.68
6.28
9.38
11.69
11.86
8.82
2.03
-8.23
-20.91
-34.33
-46.57
-55.97
-61.55
-63.24
-61.69
-57.81
-52.27
-45.24
-36.50
-25.96
-14.10
-2.12
8.42
16.21
20.76
22.45
22.17
20.68
18.36
15.13
10.88
5.85
0.69
-3.79
-6.93
-8.55
-8.90
-8.43
-7.48
-6.17
-4.29
-1.57
2.19
6.95
12.40
18.03
23.27
27.63
30.78
32.63
33.16
32.50
30.87
28.59
26.09
23.81
22.00
20.61
19.24
17.27
14.22
10.00
5.08
0.37
-3.01
-4.17
-2.73
0.99
5.93
10.47
12.70
10.93
4.22
-7.17
-21.82
-37.47
-51.72
-62.64
-69.02
-70.39
-66.84
-58.89
-47.57
-34.39
-21.17
-9.61
-0.85
4.87
8.05
9.60
10.31
10.62
10.62
10.26
9.57
8.77
8.06
7.57
7.14
6.48
5.24
3.29
0.85
-1.48
-2.92
-2.84
-1.05
2.15
6.09
10.01
13.45
16.34
18.95
21.61
24.50
27.49
30.13
31.84
32.12
30.70
27.71
23.61
19.05
14.69
10.97
8.00
5.58
3.33
0.94
-1.57
-3.75
-4.82
-3.99
-0.82
4.35
10.42
15.63
18.09
16.25
9.39
-2.18
-17.22
-33.80
-49.68
-62.78
-71.51
-75.08
-73.46
-67.25
-57.36
-44.83
-30.81
-16.60
-3.70
6.35
12.45
14.33
12.84
9.63
6.51
4.72
4.51
5.23
5.86
5.59
4.21
2.00
-0.49
-2.75
-4.47
-5.47
-5.60
-4.75
-2.79
0.27
4.31
9.03
14.13
19.28
24.17
28.57
32.32
35.36
37.56
38.71
38.49
36.57
32.88
27.76
22.05
16.84
12.98
10.73
9.58
8.60
6.91
4.26
1.10
-1.54
-2.57
-1.34
2.06
6.72
10.94
12.63
9.86
1.53
-12.02
-28.94
-46.27
-60.78
-69.97
-72.61
-68.96
-60.42
-49.01
-36.80
-25.46
-15.91
-8.29
-2.01
3.84
10.01
16.65
23.06
28.00
30.13
28.59
23.43
15.50
6.28
-2.64
-9.91
-14.77
-17.00
-16.88
-14.86
-11.39
-6.85
-1.62
3.82
8.89
13.02
15.90
17.58
18.53
19.30
20.33
21.66
22.99
23.76
23.44
21.77
18.95
15.55
12.37
10.16
9.28
9.51
10.15
10.23
9.04
6.40
2.83
-0.70
-3.20
-4.02
-3.09
-0.81
2.13
4.96
6.86
6.92
4.27
-1.59
-10.39
-20.78
-30.58
-37.53
-40.10
-38.17
-32.87
-26.01
-19.21
-13.32
-8.30
-3.60
1.28
6.45
11.63
16.40
20.49
23.88
26.58
28.41
28.81
27.02
22.45
15.17
6.15
-2.91
-10.20
-14.50
-15.65
-14.53
-12.50
-10.72
-9.61
-8.86
-7.73
-5.60
-2.31
1.73
5.78
9.15
11.50
12.98
14.02
15.05
16.17
17.04
17.15
16.20
14.39
12.37
10.89
10.29
10.24
9.94
8.59
5.83
1.87
-2.83
-8.00
-13.78
-20.49
-28.26
-36.59
-44.41
-50.36
-53.32
-52.71
-48.52
-41.22
-31.60
-20.68
-9.61
0.62
9.35
16.55
22.59
27.99
32.95
37.26
40.43
42.14
42.57
42.40
42.61
43.91
46.43
49.61
52.48
54.09
54.03
52.56
50.52
48.75
47.64
46.88
45.86
44.18
42.10
40.34
39.45
39.18
38.42
35.98
31.57
26.29
22.03
20.35
21.43
24.01
26.37
27.57
28.10
29.37
32.53
37.67
43.99
50.75
58.24
67.95
81.62
99.89
121.51
143.41
161.92
174.33
179.70
179.04
174.76
169.97
167.46
168.95
174.13
180.12
182.22
175.15
154.80
119.98
72.97
18.47
-37.75
-91.32
-140.65
-186.16
-230.01
-275.22
-324.91
-381.51
-445.62
-514.03
-579.77
-633.48
-665.27
-668.79
-643.91
-596.63
-536.64
-473.59
-412.64
-354.36
-296.33
-234.27
-165.63
-91.54
-16.78
50.81
102.20
131.30
141.74
137.01
124.45
112.57
106.60
106.27
106.52
96.93
76.04
45.88
9.55
-28.91
-66.33
-100.90
-125.65
-129.01
-106.71
-63.64
-12.82
31.91
63.16
80.03
85.31
82.68
76.37
67.54
58.68
53.21
54.20
63.34
79.90
101.61
127.10
151.53
173.17
193.53
215.88
243.30
277.56
317.88
360.85
400.96
431.24
445.46
440.54
417.91
382.02
338.80
293.18
248.11
204.43
161.47
119.13
79.33
46.57
24.67
15.18
15.59
20.12
21.68
14.17
-5.10
-38.00
-78.14
-114.66
-137.85
-145.86
-143.48
-136.92
-129.88
-122.75
-114.02
-101.89
-89.86
-80.26
-75.87
-78.08
-86.34
-98.49
-112.32
-126.44
-133.07
-131.61
-124.33
-114.92
-105.94
-98.18
-90.81
-82.82
-73.37
-61.92
-49.94
-38.73
-29.49
-22.51
-17.36
-12.77
-7.90
-2.10
5.07
12.79
20.57
28.06
35.43
41.11
46.67
52.91
60.21
68.70
77.73
86.96
96.14
105.32
114.21
123.00
131.58
139.88
147.93
155.53
162.73
169.71
176.80
183.63
190.20
196.18
201.24
204.92
206.52
205.03
198.87
190.87
181.75
172.08
162.06
151.85
141.57
131.39
121.48
112.07
103.51
95.45
87.83
80.58
73.68
67.14
60.99
55.31
50.20
45.86
41.96
38.35
34.94
31.66
28.49
25.41
22.47
19.73
17.33
15.08
12.92
10.81
8.78
6.82
5.00
3.34
1.90
0.75
-0.21
-1.05
-1.85
-2.62
-3.40
-4.19
-4.95
-5.65
-6.28
-6.87
-7.50
-8.20
-9.02
-9.95
-10.97
-12.02
-13.06
-14.09
-15.13
-16.25
-17.52
-18.95
-20.55
-22.23
-23.91
-25.52
-27.10
-28.77
-30.76
-33.28
-36.52
-40.45
-44.91
-49.61
-54.28
-58.83
-63.41
-68.38
-74.14
-80.96
-88.77
-97.26
-105.92
-114.35
-122.46
-130.61
-139.45
-149.64
-161.62
-175.34
-190.33
-205.97
-221.72
-237.44
-253.33
-269.86
-287.65
-307.43
-329.96
-355.86
-385.03
-416.02
-445.69
-469.64
-483.35
-483.73
-470.20
-445.01
-412.33
-376.74
-341.79
-309.27
-279.56
-252.39
-227.76
-205.96
-186.93
-169.46
-151.05
-128.85
-101.33
-69.74
-38.07
-11.35
6.68
15.31
16.88
15.18
13.39
12.92
13.79
15.58
18.22
21.78
25.80
28.67
28.37
23.83
15.97
7.57
1.67
-0.14
1.51
4.35
6.03
5.42
2.87
-0.53
-3.87
-6.76
-9.16
-11.16
-12.85
-14.80
-18.65
-27.02
-42.79
-67.76
-101.23
-139.59
-177.32
-208.91
-230.86
-242.88
-247.56
-248.55
-248.48
-247.81
-245.08
-238.40
-227.17
-212.65
-197.40
-183.78
-172.60
-162.86
-152.56
-140.07
-124.96
-107.96
-90.00
-71.50
-52.13
-31.10
-7.78
17.84
44.84
71.48
95.71
116.31
132.86
145.45
154.26
159.24
160.22
157.01
149.48
137.67
123.36
108.92
96.50
87.03
80.22
75.18
71.11
67.37
63.63
61.98
65.06
74.66
90.57
110.76
132.82
155.12
176.97
198.56
223.50
256.07
299.33
353.52
416.33
484.78
556.62
630.51
687.43
708.81
684.43
620.02
533.08
441.42
356.14
281.33
216.61
160.16
112.71
75.70
49.70
32.97
21.67
11.90
0.92
-12.85
-29.48
-46.23
-59.87
-68.23
-71.53
-72.11
-72.65
-73.26
-76.35
-82.70
-90.77
-98.48
-104.24
-108.01
-111.21
-115.19
-120.96
-129.07
-138.75
-148.11
-155.07
-158.21
-157.51
-154.36
-150.17
-146.33
-143.73
-141.91
-139.26
-133.74
-123.43
-106.95
-87.76
-67.90
-48.78
-30.91
-13.45
5.02
25.84
49.86
77.50
109.00
144.88
184.43
224.40
258.87
279.96
280.20
255.38
206.17
137.40
56.15
-31.69
-122.38
-213.11
-299.70
-375.21
-430.94
-459.73
-459.44
-434.29
-393.62
-348.16
-306.07
-270.90
-242.00
-216.65
-192.49
-168.66
-145.50
-123.72
-103.61
-84.72
-66.26
-47.49
-27.86
-7.15
14.76
38.00
62.61
88.29
114.51
140.40
165.11
188.14
209.63
230.65
253.02
279.02
310.33
346.68
384.75
417.85
436.85
432.39
397.94
332.67
243.01
141.90
45.72
-30.22
-75.89
-88.88
-73.80
-39.25
5.91
55.27
105.25
153.74
198.15
234.67
259.45
270.73
270.46
263.31
254.17
245.31
235.65
222.54
204.67
184.17
165.84
154.14
149.74
148.22
141.82
123.19
88.81
40.02
-18.19
-79.78
-140.00
-196.43
-248.59
-296.83
-341.02
-379.60
-409.41
-426.43
-427.39
-411.37
-380.69
-340.15
-295.02
-248.70
-201.48
-151.09
-94.85
-32.20
33.99
97.88
152.72
193.19
216.81
224.29
218.49
202.95
180.72
154.28
126.19
100.09
80.47
71.50
75.18
90.01
111.18
132.11
146.34
148.86
136.54
108.39
66.32
16.03
