1659462167.00
64.000000
-0.00
-0.00
-0.00
-0.00
-0.00
-0.00
-0.00
-0.00
-0.00
-0.00
0.00
0.01
0.01
-0.00
-0.03
-0.05
-0.05
0.00
0.13
0.36
0.66
1.01
1.37
1.72
2.06
2.40
2.79
3.24
3.80
4.42
5.06
5.66
6.20
6.68
7.15
7.68
8.31
9.14
10.09
11.04
11.88
12.56
13.14
13.76
14.65
15.96
17.91
20.32
22.90
25.38
27.58
29.57
31.68
34.32
37.81
42.54
48.15
54.11
59.83
64.97
69.58
74.14
79.35
85.73
93.80
103.05
112.65
121.70
129.62
136.46
142.87
150.20
157.16
166.01
177.32
191.16
206.28
219.78
227.33
224.31
207.40
175.72
131.65
78.98
21.97
-36.17
-93.93
-150.98
-207.38
-262.73
-316.15
-366.20
-412.07
-453.23
-489.21
-519.16
-541.59
-554.49
-555.88
-544.52
-520.26
-484.57
-439.92
-389.24
-335.23
-279.91
-224.54
-169.91
-116.77
-66.11
-19.36
21.98
56.75
84.55
105.89
121.94
134.08
143.42
150.51
155.25
157.29
156.24
151.89
144.25
133.75
121.51
109.57
100.70
97.61
101.83
112.79
127.73
142.61
153.65
158.74
157.86
152.53
144.63
135.51
125.64
115.04
103.84
92.69
82.47
73.88
67.15
61.62
56.32
50.42
43.70
36.54
29.75
24.08
19.92
17.14
15.17
13.35
11.22
8.66
5.89
3.30
1.20
-0.28
-1.20
-1.80
-2.28
-2.79
-3.35
-3.95
-4.54
-5.09
-5.55
-5.91
-6.21
-6.46
-6.70
-6.86
-6.75
-6.20
-5.10
-3.57
-1.95
-0.66
-0.04
-0.14
-0.71
-1.40
-1.88
-2.07
-2.08
-2.13
-2.36
-2.74
-3.14
-3.35
-3.29
-2.99
-2.59
-2.25
-2.08
-2.06
-2.09
-2.07
-1.94
-1.72
-1.46
-1.24
-1.08
-0.97
-0.89
-0.83
-0.80
-0.80
-0.78
-0.70
-0.51
-0.21
0.12
0.43
0.67
0.88
1.19
1.72
2.57
3.69
4.99
6.33
7.56
8.62
9.44
10.03
10.37
10.40
10.04
9.23
7.94
6.26
4.41
2.52
0.69
-1.09
-2.85
-4.63
-6.36
-7.89
-9.02
-9.65
-9.82
-9.70
-9.52
-9.44
-9.46
-9.46
-9.30
-8.90
-8.28
-7.57
-6.90
-6.33
-5.87
-5.48
-5.16
-4.92
-4.82
-4.84
-4.90
-4.79
-4.32
-3.43
-2.23
-0.99
-0.04
0.45
0.50
0.28
0.05
-0.04
-0.00
0.05
-0.03
-0.32
-0.75
-1.17
-1.44
-1.47
-1.31
-1.09
-0.92
-0.87
-0.93
-1.06
-1.18
-1.28
-1.36
-1.47
-1.63
-1.84
-2.07
-2.29
-2.47
-2.60
-2.67
-2.67
-2.62
-2.53
-2.49
-2.59
-2.92
-3.51
-4.25
-4.94
-5.35
-5.28
-4.64
-3.48
-1.97
-0.33
1.25
2.66
3.80
4.68
5.31
5.70
5.87
5.83
5.58
5.16
4.61
4.03
3.48
3.01
2.63
2.32
2.00
1.63
1.17
0.64
0.13
-0.27
-0.45
-0.42
-0.26
-0.13
-0.19
-0.56
-1.21
-2.01
-2.77
-3.36
-3.75
-3.98
-4.17
-4.38
-4.62
-4.84
-5.00
-5.11
-5.21
-5.34
-5.47
-5.50
-5.29
-4.76
-3.89
-2.82
-1.73
-0.85
-0.34
-0.25
-0.57
-1.18
-2.00
-2.94
-3.95
-4.97
-5.91
-6.68
-7.20
-7.50
-7.69
-7.97
-8.52
-9.39
-10.45
-11.50
-12.33
-12.79
-12.84
-12.46
-11.63
-10.32
-8.50
-6.21
-3.52
-0.61
2.34
5.07
7.41
9.17
10.31
10.91
11.12
11.17
11.26
11.49
11.89
12.42
13.01
13.57
13.98
14.16
14.04
13.66
13.12
12.52
11.93
11.32
10.62
9.76
8.77
7.73
6.77
5.99
5.39
4.93
4.55
4.16
3.71
3.15
2.49
1.74
1.00
0.34
-0.17
-0.56
-0.88
-1.21
-1.57
-1.99
-2.44
-2.90
-3.37
-3.85
-4.30
-4.67
-4.88
-4.86
-4.58
-4.02
-3.18
-2.11
-0.91
0.28
1.31
2.07
2.55
2.80
2.92
3.00
3.05
3.05
3.00
2.86
2.67
2.45
2.23
2.01
1.79
1.57
1.37
1.19
0.99
0.74
0.42
0.05
-0.29
-0.50
-0.57
-0.54
-0.50
-0.58
-0.82
-1.21
-1.70
-2.25
-2.85
-3.52
-4.22
-4.86
-5.28
-5.32
-4.90
-4.03
-2.87
-1.59
-0.37
0.67
1.49
2.10
2.58
2.97
3.30
3.56
3.69
3.66
3.47
3.13
2.73
2.31
1.93
1.61
1.36
1.16
1.02
0.90
0.77
0.60
0.34
0.00
-0.41
-0.85
-1.25
-1.56
-1.74
-1.77
-1.70
-1.62
-1.60
-1.74
-2.08
-2.62
-3.26
-3.89
-4.37
-4.56
-4.40
-3.86
-2.99
-1.90
-0.76
0.28
1.11
1.69
2.05
2.28
2.47
2.66
2.84
2.97
3.00
2.92
2.75
2.55
2.39
2.29
2.26
2.25
2.22
2.14
2.01
1.86
1.68
1.45
1.12
0.65
0.06
-0.55
-1.04
-1.29
-1.30
-1.16
-1.08
-1.20
-1.57
-2.13
-2.73
-3.22
-3.53
-3.68
-3.68
-3.56
-3.26
-2.74
-1.95
-0.93
0.19
1.29
2.23
2.99
3.56
3.97
4.24
4.32
4.14
3.64
2.88
2.00
1.19
0.65
0.48
0.64
1.02
1.40
1.63
1.63
1.42
1.04
0.59
0.09
-0.43
-0.93
-1.35
-1.62
-1.69
-1.55
-1.30
-1.09
-1.07
-1.37
-2.00
-2.84
-3.73
-4.51
-5.06
-5.29
-5.17
-4.70
-3.88
-2.78
-1.49
-0.14
1.14
2.23
3.06
3.57
3.72
3.51
2.97
2.22
1.47
0.93
0.75
0.90
1.18
1.36
1.26
0.88
0.40
0.03
-0.10
-0.07
-0.07
-0.30
-0.83
-1.56
-2.29
-2.86
-3.21
-3.42
-3.62
-3.86
-4.16
-4.46
-4.68
-4.82
-4.91
-4.97
-4.99
-4.87
-4.49
-3.70
-2.47
-0.87
0.90
2.58
3.94
4.86
5.36
5.53
5.53
5.40
5.16
4.79
4.29
3.71
3.15
2.70
2.37
2.17
2.02
1.89
1.74
1.57
1.35
1.03
0.58
-0.02
-0.70
-1.36
-1.84
-2.08
-2.07
-1.98
-2.00
-2.30
-2.95
-3.87
-4.86
-5.67
-6.11
-6.09
-5.62
-4.81
-3.78
-2.67
-1.58
-0.61
0.18
0.80
1.27
1.64
1.91
2.02
1.91
1.58
1.11
0.69
0.45
0.47
0.69
0.94
1.10
1.14
1.11
1.15
1.33
1.63
1.93
2.08
1.98
1.61
1.07
0.47
-0.05
-0.38
-0.48
-0.40
-0.24
-0.13
-0.22
-0.57
-1.19
-1.96
-2.72
-3.28
-3.47
-3.18
-2.43
-1.30
0.00
1.28
2.37
3.21
3.80
4.22
4.51
4.67
4.68
4.55
4.35
4.20
4.19
4.31
4.45
4.46
4.21
3.67
2.97
2.29
1.80
1.58
1.60
1.75
1.90
1.92
1.77
1.45
1.00
0.49
-0.06
-0.62
-1.18
-1.71
-2.22
-2.72
-3.25
-3.83
-4.47
-5.11
-5.66
-5.98
-5.98
-5.65
-5.03
-4.23
-3.33
-2.42
-1.51
-0.65
0.14
0.81
1.29
1.54
1.58
1.42
1.13
0.75
0.31
-0.17
-0.71
-1.29
-1.88
-2.42
-2.84
-3.12
-3.30
-3.45
-3.66
-3.98
-4.42
-4.99
-5.71
-6.62
-7.70
-8.92
-10.14
-11.27
-12.21
-12.99
-13.72
-14.52
-15.50
-16.65
-17.90
-19.09
-20.01
-20.46
-20.29
-19.45
-17.99
-16.04
-13.77
-11.24
-8.47
-5.39
-2.01
1.57
5.14
8.48
11.40
13.82
15.76
17.30
18.53
19.51
20.22
20.62
20.63
20.24
19.44
18.33
17.04
15.75
14.55
13.52
12.62
11.80
11.00
10.19
9.38
8.56
7.72
6.85
5.92
4.93
3.90
2.88
1.91
1.05
0.37
-0.02
-0.01
0.44
1.26
2.29
3.28
4.06
4.54
4.80
4.97
5.18
5.44
5.65
5.66
5.43
5.02
4.61
4.39
4.43
4.65
4.84
4.82
4.55
4.13
3.79
3.67
3.74
3.83
3.71
3.27
2.55
1.74
1.05
0.60
0.34
0.13
-0.17
-0.68
-1.39
-2.23
-3.15
-4.07
-4.96
-5.75
-6.33
-6.59
-6.49
-6.02
-5.27
-4.33
-3.26
-2.12
-0.94
0.21
1.24
2.01
2.49
2.68
2.70
2.64
2.57
2.47
2.29
2.02
1.68
1.36
1.12
0.99
0.94
0.90
0.79
0.58
0.26
-0.11
-0.48
-0.77
-0.97
-1.10
-1.19
-1.28
-1.40
-1.56
-1.75
-1.98
-2.25
-2.58
-2.93
-3.28
-3.58
-3.80
-3.97
-4.10
-4.21
-4.23
-4.09
-3.71
-3.07
-2.21
-1.22
-0.19
0.86
1.90
2.87
3.68
4.19
4.26
3.88
3.14
2.26
1.46
0.92
0.67
0.64
0.72
0.82
0.90
0.97
1.04
1.07
1.02
0.83
0.49
0.07
-0.38
-0.80
-1.17
-1.48
-1.70
-1.81
-1.80
-1.74
-1.72
-1.86
-2.21
-2.77
-3.42
-4.04
-4.49
-4.67
-4.51
-3.98
-3.10
-1.98
-0.73
0.48
1.53
2.34
2.90
3.20
3.26
3.13
2.87
2.58
2.36
2.25
2.22
2.20
2.11
1.91
1.62
1.32
1.05
0.87
0.75
0.70
0.66
0.61
0.47
0.16
-0.34
-0.99
-1.66
-2.17
-2.38
-2.26
-1.96
-1.71
-1.72
-2.12
-2.84
-3.73
-4.53
-5.02
-5.06
-4.61
-3.73
-2.60
-1.36
-0.18
0.87
1.75
2.48
3.04
3.42
3.58
3.48
3.14
2.62
2.05
1.57
1.27
1.21
1.34
1.58
1.81
1.91
1.84
1.62
1.33
1.05
0.82
0.63
0.41
0.08
-0.41
-1.02
-1.69
-2.31
-2.83
-3.24
-3.57
-3.86
-4.11
-4.31
-4.48
-4.62
-4.77
-4.88
-4.87
-4.58
-3.92
-2.86
-1.54
-0.18
1.02
1.98
2.73
3.36
3.90
4.34
4.58
4.54
4.19
3.59
2.87
2.16
1.55
1.09
0.79
0.69
0.79
1.09
1.49
1.87
2.01
1.79
1.15
0.19
-0.87
-1.80
-2.44
-2.74
-2.77
-2.64
-2.49
-2.38
-2.35
-2.46
-2.73
-3.18
-3.78
-4.39
-4.80
-4.79
-4.21
-3.13
-1.73
-0.33
0.82
1.59
2.02
2.26
2.46
2.72
3.03
3.34
3.58
3.71
3.68
3.45
3.00
2.35
1.58
0.87
0.35
0.07
-0.04
-0.11
-0.27
-0.56
-0.89
-1.17
-1.34
-1.42
-1.52
-1.69
-1.96
-2.23
-2.42
-2.46
-2.40
-2.34
-2.40
-2.67
-3.13
-3.65
-4.07
-4.23
-4.01
-3.40
-2.47
-1.33
-0.12
0.99
1.91
2.55
2.91
3.02
2.96
2.78
2.50
2.14
1.70
1.23
0.81
0.53
0.47
0.65
1.03
1.53
2.04
2.44
2.62
2.51
2.07
1.37
0.55
-0.22
-0.82
-1.22
-1.48
-1.68
-1.93
-2.28
-2.73
-3.30
-3.95
-4.66
-5.36
-5.99
-6.49
-6.78
-6.78
-6.45
-5.80
-4.87
-3.78
-2.70
-1.73
-0.97
-0.42
-0.03
0.29
0.53
0.64
0.55
0.22
-0.27
-0.76
-1.05
-1.04
-0.73
-0.25
0.19
0.47
0.55
0.51
0.49
0.59
0.84
1.25
1.77
2.38
3.06
3.77
4.44
4.99
5.41
5.72
6.04
6.45
7.00
7.64
8.29
8.95
9.73
10.85
12.55
14.97
18.01
21.43
24.87
28.02
30.79
33.27
35.67
38.21
41.05
44.24
47.88
52.04
56.79
62.03
67.40
72.28
76.11
78.59
79.93
80.80
82.07
84.35
87.69
91.58
95.09
97.26
97.41
95.27
91.00
85.11
78.32
71.52
65.56
61.03
58.15
56.55
55.45
53.90
51.04
46.40
39.99
32.31
24.14
16.34
9.55
3.92
-1.06
-6.50
-13.76
-23.88
-36.96
-51.87
-66.36
-77.75
-83.77
-83.35
-77.00
-66.52
-54.20
-41.85
-30.13
-18.46
-5.64
9.25
26.04
43.22
58.37
69.06
73.69
72.06
65.26
55.17
43.85
32.98
23.70
16.56
11.64
8.65
7.15
6.54
6.26
5.79
4.77
3.07
0.87
-1.33
-2.85
-3.12
-2.04
-0.14
1.46
1.45
-1.09
-6.29
-13.34
-20.82
-27.62
-32.78
-35.65
-36.00
-34.13
-30.82
-27.06
-23.67
-21.21
-20.23
-20.71
-22.06
-23.43
-24.29
-24.69
-25.07
-25.86
-27.20
-29.81
-33.65
-37.70
-40.57
-41.50
-40.77
-39.37
-38.46
-38.87
-43.79
-54.50
-69.25
-84.26
-96.34
-104.39
-109.12
-112.21
-115.31
-125.31
-145.35
-172.30
-198.76
-218.24
-228.24
-229.66
-225.26
-218.36
-221.54
-242.51
-279.85
-325.21
-370.58
-412.44
-450.98
-488.04
-525.94
-578.79
-653.83
-745.36
-837.31
-913.23
-963.04
-983.55
-976.74
-871.01
-645.12
-341.18
-37.05
211.09
388.93
507.42
583.62
631.48
659.97
662.13
636.23
589.69
537.05
491.02
457.00
434.41
419.89
409.78
392.04
360.66
319.61
278.56
246.84
228.05
220.76
221.06
224.76
222.63
209.50
186.55
159.65
134.60
114.33
99.69
90.80
87.53
86.34
84.12
79.50
72.99
65.76
58.65
52.30
47.20
43.39
39.27
33.50
25.89
17.59
10.23
4.89
1.74
0.20
-0.62
-1.45
-2.54
-3.63
-4.21
-3.72
-1.93
0.99
4.52
7.97
10.73
12.42
13.01
12.78
12.18
11.66
11.44
11.52
11.70
11.70
11.32
10.52
9.40
8.19
7.08
6.21
5.59
5.13
4.66
4.05
3.28
2.40
1.50
0.63
-0.23
-1.17
-2.25
-3.48
-4.79
-6.09
-7.37
-8.65
-9.97
-11.26
-12.32
-12.85
-12.52
-11.19
-8.92
-6.05
-3.00
-0.15
2.29
4.28
5.92
7.29
8.43
9.28
9.80
9.97
9.89
9.67
9.40
9.07
8.59
7.89
7.00
6.10
5.54
5.61
6.43
7.83
9.34
10.38
10.47
9.42
7.41
4.89
2.43
0.50
-0.70
-1.23
-1.36
-1.46
-1.83
-2.60
-3.66
-4.68
-5.26
-5.00
-3.72
-1.46
1.49
4.70
7.69
10.10
11.66
12.35
12.22
11.47
10.34
9.06
7.85
6.89
6.32
6.16
6.39
6.85
7.38
7.87
8.28
8.63
8.94
9.12
8.96
8.23
6.81
4.88
2.87
1.28
0.45
0.35
0.57
0.54
-0.17
-1.57
-3.24
-4.54
-4.90
-4.12
-2.48
-0.56
1.02
1.95
2.30
2.46
2.88
3.80
5.08
6.32
7.04
6.93
5.98
4.44
2.71
1.12
-0.01
-0.43
0.19
2.09
5.26
9.20
12.85
14.95
14.51
11.42
6.57
1.57
-1.94
-3.05
-1.89
0.45
2.51
3.24
2.32
0.31
-1.82
-3.18
-3.33
-2.39
-0.83
0.86
2.42
3.91
5.50
7.27
9.06
10.45
10.97
10.36
8.73
6.55
4.46
3.09
2.79
3.64
5.43
7.79
10.25
12.33
13.53
13.49
12.07
9.49
6.29
3.21
0.92
-0.25
-0.43
-0.15
-0.07
-0.65
-1.99
-3.77
-5.46
-6.56
-6.83
-6.33
-5.34
-4.17
-3.04
-1.94
-0.76
0.67
2.32
3.98
5.23
5.60
4.86
3.10
0.79
-1.31
-2.45
-2.10
-0.08
3.36
7.58
11.62
14.39
14.95
12.86
8.51
3.04
-1.93
-4.97
-5.38
-3.50
-0.50
2.22
3.68
3.63
2.51
1.00
-0.36
-1.40
-2.18
-2.74
-2.95
-2.52
-1.24
0.83
3.30
5.50
6.81
6.88
5.77
3.92
1.99
0.67
0.50
1.66
3.95
6.87
9.65
11.56
12.11
11.16
9.03
6.38
3.95
2.36
1.87
2.31
3.17
3.74
3.44
1.99
-0.45
-3.41
-6.28
-8.59
-10.14
-11.00
-11.37
-11.39
-11.03
-10.16
-8.64
-6.53
-4.15
-2.00
-0.59
-0.21
-0.82
-2.06
-3.40
-4.29
-4.34
-3.32
-1.25
1.64
4.85
7.67
9.30
9.19
7.28
4.10
0.59
-2.21
-3.69
-3.80
-3.05
-2.10
-1.46
-1.30
-1.46
-1.75
-2.01
-2.27
-2.56
-2.84
-2.94
-2.66
-1.85
-0.56
0.96
2.37
3.36
3.74
3.54
2.95
2.28
1.81
1.80
2.38
3.58
5.27
7.15
8.80
9.78
9.77
8.76
7.09
5.34
4.07
3.59
3.77
4.14
4.12
3.35
1.81
-0.23
-2.39
-4.40
-6.22
-7.91
-9.56
-11.09
-12.28
-12.86
-12.62
-11.55
-9.88
-7.98
-6.25
-5.01
-4.39
-4.29
-4.50
-4.72
-4.63
-3.98
-2.57
-0.30
2.72
6.11
9.21
11.20
11.39
9.52
6.00
1.80
-1.80
-3.79
-3.80
-2.15
0.28
2.59
4.16
4.82
4.79
4.28
3.38
2.04
0.23
-1.85
-3.69
-4.70
-4.42
-2.83
-0.42
2.03
3.77
4.40
4.02
3.12
2.34
2.17
2.83
4.20
5.99
7.81
9.29
10.08
9.94
8.81
6.88
4.59
2.46
0.94
0.16
-0.10
-0.27
-0.74
-1.71
-3.14
-4.81
-6.48
-8.03
-9.46
-10.83
-12.18
-13.46
-14.51
-15.11
-15.08
-14.32
-12.96
-11.28
-9.63
-8.31
-7.46
-6.98
-6.56
-5.76
-4.14
-1.50
2.05
5.95
9.30
11.16
10.94
8.69
5.17
1.57
-0.95
-1.78
-1.05
0.51
2.01
2.81
2.79
2.25
1.60
1.11
0.74
0.29
-0.41
-1.34
-2.21
-2.69
-2.58
-1.95
-1.18
-0.72
-0.94
-1.86
-3.18
-4.35
-4.83
-4.24
-2.54
0.07
3.20
6.35
9.00
10.66
10.96
9.75
7.21
3.93
0.67
-1.82
-3.21
-3.70
-3.91
-4.60
-6.25
-8.88
-12.07
-15.27
-18.05
-20.26
-21.90
-23.02
-23.48
-23.09
-21.70
-19.38
-16.49
-13.52
-10.86
-8.63
-6.71
-4.82
-2.72
-0.36
2.23
4.91
7.60
10.14
12.35
13.96
14.76
14.67
13.90
12.88
12.09
11.88
12.31
13.16
14.08
14.75
14.97
14.65
13.82
12.59
11.13
9.63
8.21
6.85
5.40
3.66
1.71
-0.12
-1.54
-2.22
-1.93
-0.67
1.43
4.20
7.47
10.92
13.92
15.36
14.45
11.40
7.51
4.89
5.46
9.96
17.68
26.54
33.50
36.28
34.38
28.75
21.24
13.71
7.27
2.63
-0.42
-3.90
-9.24
-16.29
-24.16
-31.73
-38.39
-44.51
-50.10
-55.19
-62.15
-71.78
-82.68
-93.77
-104.44
-113.78
-119.29
-114.33
-92.02
-53.49
-5.65
40.35
70.52
74.74
52.59
14.66
-19.02
-29.62
-12.27
28.83
85.71
148.72
210.80
268.33
302.09
295.83
271.31
238.82
192.55
135.80
76.23
22.95
-17.23
-41.92
-50.52
-45.51
-35.99
-28.71
-24.80
-23.61
-23.70
-24.04
-24.61
-24.36
-22.78
-23.93
-30.26
-40.68
-53.26
-65.86
-76.64
-84.46
-87.73
-85.72
-81.11
-75.87
-70.26
-64.50
-59.05
-54.63
-52.06
-51.30
-51.76
-53.64
-55.67
-55.79
-52.85
-47.18
-40.33
-34.20
-30.07
-28.39
-29.22
-30.97
-31.66
-30.10
-26.19
-20.38
-12.99
-3.99
6.71
18.96
33.46
50.48
69.50
89.21
108.26
125.88
141.87
156.12
160.46
149.30
122.63
87.08
51.43
21.66
-0.57
-16.61
-29.01
-40.02
-49.55
-56.66
-60.59
-61.57
-60.43
-57.90
-54.30
-49.65
-44.16
-37.38
-29.18
-20.15
-11.62
-4.93
-0.72
1.14
1.21
0.12
-1.03
-1.24
-0.00
2.61
6.06
9.66
12.63
14.36
14.48
13.39
11.92
10.87
10.60
11.09
11.95
12.59
12.28
10.23
6.03
-0.21
-7.92
-16.26
-24.48
-32.09
-38.99
-45.46
-52.15
-59.40
-66.67
-72.74
-76.30
-76.78
-74.52
-70.44
-65.60
-61.11
-57.08
-52.04
-43.48
-28.64
-6.18
23.33
57.31
91.58
120.68
139.63
145.49
137.45
116.97
86.17
47.61
5.17
-32.59
-57.59
-67.52
-65.50
-56.77
-44.77
-31.96
-20.04
-10.22
-3.28
-0.02
-0.50
-3.42
-9.14
-15.09
-20.37
-25.60
-32.17
-41.45
-54.45
-71.06
-84.63
-93.61
-97.22
-96.35
-92.84
-88.77
-85.95
-85.93
-89.57
-96.55
-105.64
-112.83
-113.09
-101.85
-77.17
-41.33
-0.65
37.03
65.59
82.27
89.24
90.88
91.19
92.08
93.78
94.77
94.61
94.28
95.12
98.70
105.56
114.80
124.29
130.95
131.72
124.33
107.86
82.92
52.37
20.44
-8.68
-32.01
-48.57
-58.80
-64.00
-65.61
-65.04
-63.25
-61.12
-59.68
-59.81
-61.57
-63.35
-62.77
-56.42
-43.05
-23.54
-0.57
22.38
42.31
57.74
69.54
79.55
89.23
98.73
107.25
113.50
116.02
113.59
101.81
79.78
50.69
20.10
-7.36
-29.34
-45.09
-54.77
-59.00
-58.82
-54.98
-48.72
-41.56
-34.95
-29.78
-25.97
-23.09
-20.61
-18.17
-15.18
-11.49
-7.47
-3.79
-1.04
0.99
2.65
4.27
5.82
7.23
8.05
7.64
5.56
1.17
-4.43
-10.31
-15.89
-21.22
-26.76
-33.25
-41.22
-49.26
-57.33
-64.20
-68.92
-71.07
-71.13
-70.21
-69.50
-69.99
-72.42
-77.48
-84.92
-93.50
-100.27
-101.03
-91.74
-70.67
-39.93
-5.12
26.43
49.10
60.76
63.15
60.19
55.68
51.55
47.81
43.73
38.94
34.23
30.82
29.43
29.63
30.13
29.56
27.02
22.86
18.25
14.62
12.94
13.36
15.03
16.91
18.06
18.28
18.12
18.55
20.56
24.53
30.22
37.05
44.20
50.75
55.98
59.53
61.60
63.30
66.58
73.38
83.34
94.19
100.36
95.31
74.83
39.81
-3.22
-44.29
-74.02
-87.70
-86.40
-76.18
-64.65
-57.31
-56.10
-60.05
-66.74
-73.68
-78.86
-79.76
-73.35
-56.37
-27.69
9.80
48.05
75.95
84.15
70.20
41.15
10.70
-7.37
-6.64
8.87
27.38
36.31
29.57
9.88
-14.18
-34.43
-47.52
-55.04
-60.44
-64.47
-63.87
-53.75
-31.66
0.39
35.78
66.55
86.58
92.95
85.82
67.44
41.42
12.01
-16.19
-39.54
-56.74
-69.27
-80.21
-91.41
-101.20
-104.40
-95.30
-71.35
-35.67
3.37
36.08
56.11
62.91
61.40
58.33
58.73
63.54
70.29
75.94
78.83
78.88
76.07
69.71
58.71
42.97
24.53
6.70
-7.60
-18.06
-27.24
-39.32
-56.52
-77.11
