1660321683.00
64.000000
-0.00
-0.00
-0.00
-0.00
-0.00
-0.00
-0.00
-0.00
-0.00
-0.00
0.00
0.01
0.01
-0.00
-0.03
-0.05
-0.05
0.00
0.13
0.36
0.66
1.01
1.37
1.72
2.06
2.40
2.79
3.24
3.80
4.42
5.06
5.66
6.20
6.68
7.15
7.68
8.31
9.14
10.09
11.04
11.89
12.57
13.14
13.76
14.64
15.95
17.92
20.34
22.95
25.44
27.61
29.52
31.48
33.93
37.24
41.80
47.30
53.21
58.91
64.03
68.56
73.00
78.03
84.23
92.16
101.36
111.01
120.15
128.16
134.98
141.21
148.23
154.84
163.42
174.62
188.51
203.74
217.21
224.39
220.60
202.59
169.74
124.73
71.57
14.55
-43.41
-101.19
-158.89
-216.75
-274.23
-330.00
-381.99
-428.95
-470.22
-505.71
-535.28
-558.15
-572.77
-577.03
-569.09
-547.91
-514.16
-469.93
-418.32
-362.70
-306.15
-251.11
-199.37
-151.94
-108.72
-68.46
-28.84
12.75
57.91
106.22
155.02
200.20
237.73
265.11
281.96
289.64
290.20
285.47
276.62
264.44
249.82
233.89
217.97
203.02
189.34
176.56
163.91
150.67
136.64
122.24
108.36
95.90
85.37
76.68
69.21
62.11
54.71
46.81
38.72
31.05
24.55
19.55
16.00
13.48
11.43
9.32
6.83
3.94
0.91
-1.91
-4.19
-5.74
-6.58
-6.94
-7.12
-7.38
-7.84
-8.45
-9.05
-9.45
-9.46
-8.98
-8.06
-6.86
-5.64
-4.66
-4.13
-4.09
-4.47
-5.05
-5.54
-5.72
-5.47
-4.87
-4.11
-3.44
-3.06
-3.02
-3.24
-3.54
-3.72
-3.70
-3.50
-3.20
-2.92
-2.68
-2.46
-2.21
-1.90
-1.59
-1.37
-1.33
-1.47
-1.70
-1.88
-1.90
-1.70
-1.35
-1.02
-0.83
-0.88
-1.10
-1.33
-1.41
-1.26
-0.94
-0.63
-0.45
-0.45
-0.52
-0.51
-0.31
0.10
0.60
1.08
1.45
1.75
2.01
2.29
2.61
2.96
3.34
3.77
4.26
4.78
5.26
5.59
5.67
5.48
5.05
4.43
3.69
2.91
2.06
1.14
0.14
-0.97
-2.21
-3.57
-4.97
-6.24
-7.22
-7.79
-7.89
-7.61
-7.09
-6.50
-5.95
-5.54
-5.28
-5.17
-5.15
-5.15
-5.09
-4.87
-4.47
-3.90
-3.26
-2.65
-2.15
-1.82
-1.64
-1.60
-1.65
-1.71
-1.73
-1.68
-1.56
-1.41
-1.30
-1.26
-1.27
-1.25
-1.12
-0.84
-0.45
-0.06
0.20
0.27
0.19
0.11
0.14
0.35
0.67
0.99
1.20
1.29
1.28
1.24
1.18
1.07
0.80
0.39
-0.11
-0.52
-0.72
-0.66
-0.44
-0.25
-0.26
-0.51
-0.88
-1.22
-1.38
-1.36
-1.28
-1.29
-1.51
-1.90
-2.38
-2.80
-3.10
-3.30
-3.46
-3.62
-3.76
-3.79
-3.61
-3.20
-2.61
-1.96
-1.38
-0.89
-0.47
-0.01
0.56
1.21
1.87
2.42
2.80
3.00
3.06
3.01
2.89
2.75
2.59
2.45
2.35
2.24
2.07
1.80
1.41
0.96
0.54
0.19
-0.11
-0.48
-0.98
-1.61
-2.25
-2.72
-2.91
-2.82
-2.59
-2.39
-2.31
-2.33
-2.34
-2.25
-2.04
-1.81
-1.67
-1.72
-1.93
-2.16
-2.25
-2.09
-1.64
-0.97
-0.17
0.63
1.34
1.92
2.32
2.55
2.60
2.52
2.33
2.08
1.84
1.66
1.58
1.63
1.79
2.00
2.19
2.33
2.38
2.37
2.31
2.24
2.23
2.27
2.35
2.35
2.15
1.62
0.76
-0.32
-1.36
-2.13
-2.51
-2.53
-2.36
-2.20
-2.13
-2.11
-2.02
-1.78
-1.41
-1.00
-0.67
-0.48
-0.33
-0.11
0.30
0.90
1.57
2.12
2.44
2.49
2.40
2.30
2.34
2.52
2.75
2.87
2.76
2.38
1.79
1.15
0.61
0.21
-0.06
-0.30
-0.61
-1.01
-1.41
-1.68
-1.76
-1.64
-1.47
-1.40
-1.56
-1.90
-2.26
-2.46
-2.40
-2.09
-1.66
-1.21
-0.78
-0.31
0.29
1.03
1.81
2.45
2.77
2.68
2.27
1.69
1.15
0.80
0.67
0.71
0.81
0.86
0.78
0.54
0.17
-0.26
-0.69
-1.09
-1.45
-1.80
-2.16
-2.53
-2.86
-3.13
-3.34
-3.54
-3.80
-4.18
-4.69
-5.28
-5.85
-6.33
-6.66
-6.83
-6.84
-6.69
-6.36
-5.83
-5.13
-4.30
-3.40
-2.47
-1.48
-0.42
0.76
2.03
3.32
4.56
5.68
6.67
7.50
8.14
8.54
8.63
8.40
7.90
7.27
6.67
6.24
6.02
5.97
5.98
5.92
5.73
5.36
4.83
4.17
3.46
2.77
2.15
1.67
1.32
1.05
0.77
0.40
-0.10
-0.67
-1.18
-1.49
-1.47
-1.09
-0.43
0.38
1.19
1.87
2.32
2.52
2.46
2.20
1.86
1.54
1.35
1.32
1.42
1.58
1.75
1.91
2.10
2.34
2.62
2.88
3.01
2.99
2.83
2.65
2.55
2.59
2.71
2.77
2.67
2.33
1.80
1.15
0.45
-0.31
-1.23
-2.39
-3.80
-5.35
-6.86
-8.10
-8.92
-9.25
-9.17
-8.81
-8.26
-7.65
-6.99
-6.31
-5.59
-4.83
-4.05
-3.27
-2.53
-1.85
-1.27
-0.79
-0.41
-0.16
-0.03
-0.03
-0.12
-0.21
-0.22
-0.09
0.19
0.56
0.95
1.28
1.53
1.67
1.68
1.50
1.11
0.57
-0.03
-0.56
-0.91
-1.09
-1.19
-1.31
-1.49
-1.72
-1.88
-1.85
-1.56
-1.05
-0.42
0.21
0.72
1.09
1.35
1.55
1.69
1.77
1.75
1.65
1.53
1.49
1.61
1.87
2.16
2.35
2.35
2.15
1.89
1.67
1.61
1.68
1.83
1.94
1.95
1.83
1.59
1.29
0.98
0.69
0.44
0.23
0.04
-0.15
-0.34
-0.50
-0.59
-0.58
-0.46
-0.24
0.06
0.40
0.76
1.12
1.45
1.73
1.90
1.93
1.78
1.44
0.95
0.35
-0.26
-0.78
-1.16
-1.32
-1.24
-0.92
-0.43
0.14
0.69
1.07
1.25
1.23
1.06
0.82
0.59
0.38
0.18
-0.01
-0.23
-0.47
-0.74
-1.03
-1.36
-1.70
-2.04
-2.34
-2.54
-2.58
-2.41
-2.04
-1.48
-0.83
-0.19
0.33
0.66
0.80
0.76
0.62
0.43
0.27
0.21
0.32
0.62
1.07
1.53
1.86
1.95
1.78
1.44
1.11
0.95
1.03
1.32
1.65
1.86
1.84
1.58
1.17
0.74
0.41
0.22
0.13
0.04
-0.12
-0.36
-0.60
-0.67
-0.39
0.35
1.52
2.97
4.45
5.67
6.44
6.72
6.68
6.67
7.12
8.45
10.87
14.17
17.73
20.50
21.40
19.73
15.49
9.51
3.21
-1.92
-4.76
-4.92
-2.80
0.72
4.64
8.13
10.80
12.65
13.97
15.09
16.30
17.68
19.19
20.75
22.35
24.08
26.12
28.57
31.36
34.25
36.87
38.89
40.09
40.42
39.91
38.63
36.63
33.93
30.56
26.60
22.27
17.91
13.99
10.99
9.37
9.40
11.18
14.58
19.29
24.85
30.77
36.52
41.65
45.75
48.51
49.60
48.74
45.70
40.38
32.95
23.97
14.37
5.23
-2.53
-8.47
-12.85
-16.44
-20.17
-24.60
-29.71
-34.84
-39.16
-42.06
-43.52
-44.06
-44.42
-45.21
-46.60
-48.43
-50.36
-52.16
-53.79
-55.36
-56.93
-58.36
-59.35
-59.56
-58.73
-56.90
-54.34
-51.49
-48.73
-46.35
-44.36
-42.65
-40.99
-39.22
-37.22
-35.03
-32.77
-30.57
-28.61
-26.99
-25.71
-24.68
-23.70
-22.55
-21.08
-19.30
-17.35
-15.44
-13.78
-12.42
-11.29
-10.24
-9.12
-7.90
-6.59
-5.28
-4.07
-2.98
-2.04
-1.27
-0.66
-0.17
0.26
0.71
1.26
1.92
2.61
3.23
3.68
3.98
4.21
4.51
5.00
5.67
6.39
6.95
7.12
6.69
5.59
3.86
1.64
-0.81
-3.23
-5.35
-6.99
-8.08
-8.62
-8.72
-8.48
-8.01
-7.41
-6.74
-6.06
-5.46
-4.99
-4.63
-4.35
-4.07
-3.71
-3.22
-2.63
-2.00
-1.37
-0.77
-0.16
0.57
1.60
3.05
4.98
7.25
9.52
11.32
12.12
11.58
9.65
6.68
3.26
0.07
-2.39
-3.96
-4.82
-5.36
-5.96
-6.81
-7.86
-8.89
-9.69
-10.16
-10.36
-10.41
-10.42
-10.33
-9.98
-9.19
-7.93
-6.38
-4.86
-3.71
-3.11
-2.97
-2.98
-2.68
-1.65
0.37
3.35
7.01
10.77
13.88
15.64
15.55
13.52
9.95
5.63
1.50
-1.62
-3.29
-3.51
-2.68
-1.37
-0.16
0.52
0.48
-0.29
-1.65
-3.36
-5.16
-6.76
-7.90
-8.38
-8.14
-7.22
-5.76
-3.96
-1.94
0.27
2.71
5.49
8.62
11.88
14.82
16.81
17.21
15.65
12.26
7.62
2.69
-1.61
-4.58
-5.99
-6.01
-5.05
-3.60
-2.14
-1.04
-0.57
-0.90
-2.03
-3.77
-5.80
-7.70
-9.14
-9.93
-10.10
-9.79
-9.24
-8.65
-8.09
-7.46
-6.47
-4.73
-1.92
2.03
6.80
11.67
15.71
18.07
18.35
16.69
13.83
10.76
8.44
7.41
7.73
9.01
10.63
11.98
12.68
12.59
11.78
10.46
8.90
7.28
5.75
4.37
3.12
2.00
1.02
0.24
-0.19
-0.12
0.61
2.08
4.29
7.11
10.19
12.98
14.75
14.87
13.03
9.50
5.02
0.63
-2.76
-4.65
-5.06
-4.39
-3.18
-1.95
-1.07
-0.79
-1.22
-2.33
-3.88
-5.50
-6.79
-7.44
-7.36
-6.68
-5.67
-4.61
-3.75
-3.26
-3.10
-3.08
-2.80
-1.75
0.50
4.04
8.46
12.80
15.83
16.47
14.29
9.72
4.03
-1.17
-4.50
-5.30
-3.80
-0.93
2.16
4.54
5.75
5.81
4.99
3.61
1.86
-0.10
-2.11
-3.91
-5.18
-5.65
-5.18
-3.88
-1.99
0.20
2.53
4.95
7.45
9.99
12.28
13.86
14.16
12.81
9.78
5.48
0.62
-3.99
-7.77
-10.39
-11.87
-12.34
-12.02
-11.12
-9.86
-8.47
-7.21
-6.25
-5.64
-5.24
-4.84
-4.26
-3.42
-2.43
-1.48
-0.78
-0.42
-0.37
-0.43
-0.32
0.28
1.65
3.96
7.18
11.06
15.12
18.70
21.10
21.77
20.53
17.62
13.66
9.48
5.79
3.01
1.19
0.08
-0.71
-1.47
-2.38
-3.49
-4.78
-6.25
-7.90
-9.67
-11.41
-12.85
-13.72
-13.80
-13.06
-11.69
-10.01
-8.33
-6.88
-5.70
-4.67
-3.66
-2.64
-1.71
-1.09
-0.92
-1.15
-1.50
-1.62
-1.27
-0.48
0.41
0.96
0.86
0.13
-0.93
-1.86
-2.37
-2.41
-2.25
-2.21
-2.47
-3.01
-3.57
-3.88
-3.82
-3.41
-2.79
-2.08
-1.30
-0.41
0.67
1.95
3.31
4.60
5.64
6.32
6.65
6.72
6.63
6.49
6.32
6.07
5.63
4.90
3.86
2.61
1.36
0.32
-0.42
-0.91
-1.33
-1.86
-2.53
-3.21
-3.67
-3.73
-3.34
-2.66
-1.92
-1.30
-0.80
-0.23
0.63
1.91
3.55
5.28
6.80
7.92
8.66
9.23
9.89
10.81
11.92
12.93
13.50
13.39
12.61
11.42
10.19
9.22
8.61
8.32
8.24
8.32
8.61
9.23
10.21
11.42
12.48
12.96
12.46
10.87
8.43
5.63
3.15
1.54
1.15
2.07
4.12
6.97
10.16
13.23
15.63
16.91
16.75
15.14
12.39
9.13
6.15
4.17
3.66
4.72
7.08
10.19
13.31
15.74
16.89
16.40
14.11
10.08
4.59
-1.90
-8.75
-15.22
-20.57
-24.25
-26.06
-26.18
-25.16
-23.70
-22.35
-21.37
-20.68
-19.97
-18.89
-17.32
-15.33
-13.13
-10.90
-8.72
-6.55
-4.31
-2.02
0.18
2.10
3.58
4.61
5.35
5.99
6.67
7.38
7.89
7.94
7.30
5.92
4.04
2.07
0.54
-0.13
0.24
1.45
2.96
4.01
3.88
2.07
-1.53
-6.59
-12.45
-18.25
-23.11
-26.33
-27.46
-26.42
-23.51
-19.40
-14.88
-10.75
-7.52
-5.32
-3.90
-2.82
-1.66
-0.15
1.69
3.71
5.63
7.27
8.47
9.19
9.43
9.25
8.77
8.17
7.64
7.35
7.34
7.49
7.63
7.58
7.27
6.77
6.23
5.78
5.42
5.03
4.40
3.38
1.95
0.22
-1.59
-3.31
-4.82
-6.06
-6.96
-7.39
-7.20
-6.31
-4.80
-2.96
-1.19
0.15
0.93
1.25
1.41
1.74
2.42
3.47
4.69
5.81
6.56
6.74
6.24
5.11
3.56
1.90
0.53
-0.23
-0.29
0.25
1.05
1.74
1.99
1.70
0.97
0.01
-0.93
-1.69
-2.18
-2.42
-2.42
-2.21
-1.81
-1.24
-0.57
0.15
0.87
1.60
2.36
3.23
4.20
5.21
6.10
6.68
6.80
6.40
5.59
4.51
3.37
2.32
1.43
0.70
0.06
-0.60
-1.36
-2.26
-3.30
-4.43
-5.61
-6.74
-7.72
-8.44
-8.80
-8.78
-8.45
-7.98
-7.55
-7.31
-7.28
-7.38
-7.48
-7.43
-7.19
-6.76
-6.21
-5.57
-4.83
-3.99
-3.03
-1.99
-0.94
0.03
0.89
1.65
2.36
3.04
3.68
4.17
4.38
4.23
3.75
3.13
2.62
2.46
2.74
3.32
3.92
4.22
4.01
3.25
2.12
0.90
-0.14
-0.83
-1.17
-1.27
-1.26
-1.27
-1.32
-1.37
-1.36
-1.23
-0.99
-0.68
-0.30
0.17
0.77
1.56
2.53
3.59
4.63
5.53
6.25
6.78
7.12
7.28
7.24
6.98
6.48
5.74
4.78
3.58
2.17
0.62
-0.95
-2.37
-3.51
-4.32
-4.80
-5.05
-5.18
-5.23
-5.25
-5.25
-5.25
-5.33
-5.54
-5.92
-6.40
-6.86
-7.14
-7.13
-6.81
-6.24
-5.53
-4.71
-3.72
-2.43
-0.80
1.11
3.07
4.78
6.05
6.88
7.41
7.78
8.08
8.25
8.14
7.70
6.93
5.98
5.03
4.17
3.42
2.77
2.17
1.68
1.31
1.10
1.00
0.86
0.57
0.04
-0.70
-1.58
-2.47
-3.31
-4.03
-4.62
-4.99
-5.03
-4.64
-3.79
-2.58
-1.26
-0.07
0.83
1.43
1.82
2.13
2.44
2.75
2.99
3.12
3.17
3.22
3.33
3.54
3.84
4.16
4.38
4.40
4.11
3.46
2.45
1.15
-0.27
-1.68
-2.96
-4.03
-4.89
-5.55
-6.01
-6.29
-6.42
-6.46
-6.50
-6.62
-6.86
-7.20
-7.55
-7.80
-7.87
-7.69
-7.28
-6.66
-5.82
-4.77
-3.47
-1.91
-0.15
1.69
3.39
4.77
5.66
6.02
5.89
5.41
4.69
3.83
2.87
1.84
0.83
-0.09
-0.82
-1.33
-1.65
-1.88
-2.13
-2.44
-2.80
-3.13
-3.39
-3.53
-3.57
-3.50
-3.30
-2.96
-2.48
-1.88
-1.27
-0.69
-0.18
0.33
0.98
1.89
3.09
4.48
5.85
6.91
7.48
7.53
7.21
6.78
6.50
6.49
6.70
6.94
7.00
6.67
5.91
4.75
3.33
1.81
0.32
-1.03
-2.20
-3.19
-4.03
-4.74
-5.37
-5.90
-6.28
-6.46
-6.36
-6.00
-5.42
-4.74
-4.07
-3.47
-2.95
-2.44
-1.84
-1.05
-0.04
1.17
2.49
3.78
4.89
5.75
6.36
6.77
7.11
7.40
7.64
7.72
7.55
7.12
6.48
5.79
5.19
4.77
4.53
4.38
4.19
3.81
3.14
2.06
0.58
-1.25
-3.24
-5.20
-6.91
-8.23
-9.11
-9.52
-9.48
-8.99
-8.06
-6.75
-5.18
-3.54
-1.99
-0.66
0.46
1.46
2.44
3.47
4.54
5.55
6.39
6.99
7.35
7.53
7.64
7.74
7.84
7.89
7.71
7.13
6.06
4.51
2.66
0.79
-0.82
-2.00
-2.71
-3.07
-3.29
-3.59
-4.17
-5.11
-6.41
-7.94
-9.48
-10.78
-11.57
-11.66
-10.97
-9.58
-7.70
-5.63
-3.69
-2.11
-1.02
-0.39
-0.06
0.20
0.56
1.13
1.86
2.63
3.28
3.71
3.97
4.21
4.54
4.98
5.38
5.46
4.97
3.86
2.30
0.65
-0.70
-1.57
-1.97
-2.12
-2.27
-2.63
-3.24
-4.05
-4.94
-5.82
-6.63
-7.34
-7.95
-8.44
-8.76
-8.81
-8.47
-7.64
-6.32
-4.65
-2.87
-1.22
0.16
1.30
2.33
3.37
4.45
5.47
6.30
6.80
6.98
6.94
6.78
6.57
6.29
5.87
5.22
4.38
3.42
2.51
1.75
1.19
0.78
0.39
-0.08
-0.68
-1.34
-1.95
-2.39
-2.63
-2.73
-2.85
-3.14
-3.68
-4.44
-5.23
-5.83
-6.01
-5.65
-4.74
-3.38
-1.71
0.17
2.16
4.15
6.02
7.62
8.79
9.46
9.62
9.38
8.87
8.22
7.53
6.85
6.22
5.70
5.30
5.01
4.75
4.44
3.98
3.32
2.45
1.35
-0.00
-1.65
-3.57
-5.65
-7.67
-9.35
-10.47
-10.97
-10.95
-10.60
-10.13
-9.62
-9.01
-8.21
-7.13
-5.78
-4.27
-2.70
-1.14
0.43
2.03
3.65
5.15
6.34
7.07
7.28
7.08
6.67
6.28
6.04
5.93
5.83
5.60
5.18
4.57
3.82
2.97
2.07
1.11
0.09
-1.01
-2.18
-3.39
-4.59
-5.65
-6.46
-6.91
-6.99
-6.78
-6.42
-6.06
-5.71
-5.32
-4.77
-4.03
-3.13
-2.23
-1.45
-0.79
-0.15
0.65
1.76
3.16
4.69
6.10
7.22
7.94
8.31
8.39
8.21
7.71
6.81
5.45
3.72
1.84
0.06
-1.36
-2.30
-2.76
-2.81
-2.59
-2.19
-1.72
-1.30
-1.06
-1.19
-1.84
-3.07
-4.80
-6.81
-8.78
-10.38
-11.37
-11.61
-11.16
-10.11
-8.62
-6.81
-4.76
-2.56
-0.30
1.92
3.98
5.87
7.58
9.11
10.40
11.27
11.49
10.94
9.67
7.97
6.27
4.97
4.26
4.11
4.34
4.71
5.04
5.19
5.07
4.53
3.45
1.79
-0.34
-2.65
-4.80
-6.49
-7.61
-8.29
-8.77
-9.31
-10.04
-10.88
-11.55
-11.71
-11.02
-9.32
-6.68
-3.38
0.11
3.24
5.60
6.94
7.32
6.98
6.31
5.66
5.26
5.15
5.22
5.27
5.07
4.48
3.46
2.09
0.50
-1.10
-2.55
-3.74
-4.68
-5.48
-6.23
-7.08
-8.10
-9.30
-10.65
-12.05
-13.33
-14.30
-14.75
-14.53
-13.56
-11.89
-9.69
-7.20
-4.65
-2.24
-0.12
1.65
3.05
4.11
4.87
5.39
5.74
6.01
6.28
6.59
6.92
7.17
7.19
6.83
6.05
4.94
3.73
2.67
1.90
1.39
0.94
0.31
-0.67
-1.96
-3.40
-4.73
-5.78
-6.51
-6.97
-7.27
-7.49
-7.56
-7.40
-6.86
-5.91
-4.54
-2.90
-1.15
0.51
1.94
3.08
3.94
4.55
5.00
5.37
5.78
6.32
7.05
7.97
8.93
9.70
10.04
9.73
8.75
7.18
5.23
3.10
0.93
-1.16
-3.10
-4.80
-6.16
-7.06
-7.47
-7.45
-7.11
-6.57
-5.95
-5.30
-4.65
-4.05
-3.56
-3.23
-3.03
-2.82
-2.39
-1.54
-0.15
1.74
3.99
6.42
8.88
11.23
13.25
14.69
15.25
14.73
13.21
11.05
8.85
7.19
6.37
6.32
6.62
6.72
6.20
4.93
3.09
1.04
-0.89
-2.52
-3.83
-4.90
-5.83
-6.64
-7.25
-7.58
-7.59
-7.35
-6.96
-6.51
-6.01
-5.34
-4.34
-2.87
-0.92
1.42
3.95
6.41
8.61
10.39
11.68
12.45
12.71
12.51
11.89
10.97
9.84
8.63
7.41
6.24
5.14
4.08
3.03
1.92
0.74
-0.53
-1.86
-3.18
-4.43
-5.58
-6.59
-7.45
-8.16
-8.72
-9.11
-9.32
-9.36
-9.23
-8.95
-8.46
-7.68
-6.49
-4.82
-2.71
-0.33
2.04
4.10
5.66
6.64
7.14
7.33
7.35
7.32
7.19
6.91
6.42
5.71
4.84
3.92
3.02
2.18
1.37
0.51
-0.42
-1.39
-2.29
-3.03
-3.55
-3.94
-4.36
-4.95
-5.80
-6.84
-7.89
-8.75
-9.25
-9.29
-8.85
-7.93
-6.54
-4.75
-2.62
-0.28
2.10
4.40
6.48
8.28
9.73
10.78
11.38
11.47
11.07
10.23
9.10
7.85
6.68
5.73
5.05
4.58
4.18
3.67
2.95
1.96
0.77
-0.52
-1.78
-2.93
-3.94
-4.84
-5.67
-6.52
-7.42
-8.35
-9.23
-9.91
-10.23
-10.08
-9.46
-8.42
-7.08
-5.53
-3.79
-1.86
0.26
2.45
4.49
6.11
7.08
7.34
7.03
6.44
5.90
5.62
5.60
5.66
5.55
5.10
4.24
3.05
1.72
0.42
-0.70
-1.59
-2.24
-2.71
-3.12
-3.61
-4.30
-5.25
-6.43
-7.70
-8.87
-9.75
-10.14
-9.96
-9.16
-7.81
-6.05
-4.09
-2.11
-0.27
1.36
2.76
4.01
5.17
6.33
7.56
8.84
10.06
11.06
11.62
11.64
11.08
10.06
8.76
7.37
6.00
4.75
3.64
2.68
1.86
1.15
0.47
-0.32
-1.31
-2.51
-3.85
-5.16
-6.27
-7.09
-7.65
-8.07
-8.50
-9.05
-9.78
-10.61
-11.40
-11.98
-12.16
-11.78
-10.75
-9.06
-6.84
-4.34
-1.84
0.39
2.22
3.64
4.72
5.52
6.00
6.10
5.71
4.87
3.75
2.65
1.86
1.59
1.86
2.49
3.25
3.88
4.22
4.24
3.97
3.49
2.84
2.07
1.16
0.07
-1.19
-2.59
-4.06
-5.49
-6.82
-8.06
-9.24
-10.35
-11.27
-11.77
-11.59
-10.54
-8.61
-6.03
-3.18
-0.46
1.84
3.64
5.01
6.13
7.13
8.03
8.74
9.13
9.15
8.85
8.36
7.82
7.33
6.88
6.41
5.89
5.34
4.81
4.32
3.82
3.14
2.11
0.61
-1.26
-3.26
-5.03
-6.30
-7.00
-7.28
-7.45
-7.78
-8.42
-9.24
-9.94
-10.20
-9.83
-8.84
-7.39
-5.68
-3.84
-1.94
-0.01
1.90
3.68
5.22
6.44
7.38
8.13
8.79
9.42
9.98
10.41
10.62
10.56
10.24
9.70
9.00
8.16
7.20
6.13
4.94
3.64
2.25
0.81
-0.63
-1.97
-3.12
-3.97
-4.47
-4.68
-4.72
-4.81
-5.12
-5.72
-6.52
-7.32
-7.88
-8.02
-7.71
-7.05
-6.17
-5.18
-4.07
-2.77
-1.20
0.65
2.73
4.87
6.89
8.62
9.90
10.60
10.65
10.03
8.84
7.29
5.61
4.02
2.66
1.55
0.69
0.04
-0.42
-0.71
-0.90
-1.09
-1.40
-1.98
-2.87
-4.05
-5.42
-6.84
-8.21
-9.46
-10.57
-11.56
-12.38
-12.98
-13.27
-13.17
-12.64
-11.66
-10.21
-8.30
-6.00
-3.46
-0.92
1.32
3.03
4.14
4.73
5.05
5.30
5.65
6.11
6.58
6.94
7.10
7.07
6.85
6.50
6.00
5.32
4.45
3.42
2.32
1.30
0.49
-0.05
-0.35
-0.56
-0.83
-1.32
-2.06
-3.03
-4.14
-5.27
-6.38
-7.41
-8.36
-9.21
-9.94
-10.47
-10.74
-10.62
-10.01
-8.88
-7.20
-5.08
-2.68
-0.22
2.08
4.04
5.57
6.67
7.41
7.90
8.26
8.56
8.80
8.93
8.87
8.56
7.99
7.20
6.31
5.43
4.66
4.05
3.60
3.26
2.91
2.42
1.67
0.60
-0.76
-2.32
-3.93
-5.41
-6.64
-7.54
-8.15
-8.55
-8.83
-9.05
-9.20
-9.15
-8.75
-7.91
-6.60
-4.93
-3.07
-1.22
0.47
1.94
3.20
4.29
5.27
6.20
7.11
7.98
8.77
9.38
9.70
9.63
9.14
8.22
6.95
5.48
3.96
2.53
1.29
0.26
-0.62
-1.42
-2.17
-2.88
-3.50
-4.00
-4.39
-4.75
-5.19
-5.80
-6.59
-7.50
-8.37
-9.01
-9.31
-9.18
-8.66
-7.81
-6.69
-5.31
-3.65
-1.68
0.54
2.86
5.03
6.82
8.08
8.79
9.02
8.88
8.41
7.65
6.63
5.49
4.45
3.72
3.44
3.54
3.78
3.86
3.51
2.62
1.28
-0.31
-1.90
-3.31
-4.44
-5.30
-5.92
-6.36
-6.66
-6.85
-6.97
-7.04
-7.07
-7.07
-6.98
-6.74
-6.30
-5.67
-4.87
-3.93
-2.77
-1.30
0.55
2.76
5.16
7.42
9.26
10.49
11.07
11.11
10.76
10.15
9.37
8.49
7.57
6.72
6.01
5.47
5.01
4.46
3.62
2.35
0.60
-1.49
-3.71
-5.81
-7.61
-9.03
-10.10
-10.86
-11.34
-11.54
-11.40
-10.95
-10.28
-9.50
-8.68
-7.79
-6.72
-5.30
-3.44
-1.19
1.26
3.65
5.75
7.39
8.55
9.27
9.63
9.68
9.46
8.99
8.34
7.63
7.02
6.61
6.44
6.41
6.37
6.15
5.64
4.77
3.53
1.91
-0.08
-2.34
-4.67
-6.82
-8.51
-9.59
-10.04
-10.04
-9.81
-9.58
-9.47
-9.48
-9.49
-9.32
-8.76
-7.67
-6.06
-4.05
-1.89
0.16
1.93
3.37
4.57
5.66
6.76
7.85
8.82
9.49
9.67
9.30
8.47
7.39
6.35
5.57
5.12
4.91
4.76
4.50
4.03
3.31
2.38
1.22
-0.14
-1.66
-3.23
-4.69
-5.89
-6.77
-7.32
-7.60
-7.62
-7.39
-6.88
-6.09
-5.07
-3.94
-2.80
-1.71
-0.63
0.52
1.80
3.21
4.70
6.15
7.36
8.22
8.65
8.68
8.37
7.79
6.94
5.77
4.22
2.32
0.22
-1.83
-3.55
-4.71
-5.26
-5.29
-4.99
-4.60
-4.36
-4.48
-5.06
-6.12
-7.52
-8.99
-10.18
-10.81
-10.73
-9.97
-8.69
-7.13
-5.45
-3.71
-1.89
0.06
2.16
4.34
6.51
8.53
10.26
11.60
12.47
12.81
12.65
12.06
11.15
10.09
9.04
8.11
7.39
6.90
6.62
6.49
6.38
6.15
5.62
4.70
3.38
1.74
-0.09
-2.00
-3.90
-5.74
-7.47
-8.99
-10.22
-11.10
-11.60
-11.72
-11.46
-10.78
-9.66
-8.09
-6.18
-4.10
-2.01
-0.07
1.65
3.15
4.43
5.48
6.30
6.83
7.08
7.05
6.83
6.47
6.04
5.58
5.06
4.46
3.74
2.87
1.90
0.92
0.04
-0.61
-1.02
-1.23
-1.39
-1.69
-2.26
-3.19
-4.48
-6.04
-7.78
-9.56
-11.24
-12.64
-13.56
-13.85
-13.44
-12.37
-10.80
-8.89
-6.79
-4.59
-2.30
-0.01
2.14
3.97
5.31
6.10
6.44
6.53
6.58
6.75
7.04
7.35
7.53
7.43
6.95
6.09
4.89
3.46
1.94
0.48
-0.77
-1.73
-2.43
-2.98
-3.50
-4.14
-4.93
-5.83
-6.76
-7.64
-8.43
-9.11
-9.71
-10.19
-10.45
-10.37
-9.80
-8.67
-6.96
-4.74
-2.14
0.71
3.64
6.42
8.78
10.45
11.26
11.19
10.48
9.52
8.69
8.27
8.24
8.38
8.35
7.88
6.87
5.42
3.76
2.12
0.66
-0.52
-1.47
-2.27
-3.06
-3.92
-4.91
-5.98
-7.05
-7.98
-8.65
-8.98
-8.90
-8.35
-7.31
-5.77
-3.85
-1.74
0.32
2.12
3.59
4.82
5.99
7.22
8.54
9.85
10.96
11.72
12.06
12.00
11.59
10.89
9.94
8.79
7.51
6.21
4.97
3.83
2.76
1.65
0.42
-0.99
-2.55
-4.20
-5.84
-7.38
-8.73
-9.83
-10.67
-11.25
-11.59
-11.77
-11.82
-11.77
-11.52
-10.98
-10.02
-8.59
-6.70
-4.49
-2.10
0.27
2.48
4.41
6.04
7.38
8.49
9.40
10.12
10.59
10.73
10.53
10.01
9.29
8.47
7.64
6.79
5.85
4.74
3.47
2.08
0.70
-0.56
-1.65
-2.57
-3.42
-4.38
-5.58
-7.12
-8.97
-10.95
-12.78
-14.21
-15.08
-15.40
-15.30
-14.95
-14.46
-13.85
-13.04
-11.95
-10.51
-8.71
-6.56
-4.16
-1.65
0.72
2.67
4.00
4.73
5.21
5.99
7.70
10.73
15.09
20.30
25.55
29.94
32.68
33.36
31.95
28.76
24.29
19.06
13.54
8.10
3.06
-1.31
-4.84
-7.51
-9.59
-11.56
-13.91
-16.90
-20.30
-23.48
-25.63
-26.23
-25.24
-23.15
-20.66
-18.34
-16.39
-14.69
-13.02
-11.30
-9.67
-8.32
-7.35
-6.59
-5.76
-4.61
-3.14
-1.52
-0.01
1.29
2.44
3.56
4.66
5.59
6.07
6.01
5.55
5.02
4.74
4.75
4.75
4.27
2.96
0.82
-1.81
-4.43
-6.63
-8.17
-8.96
-8.93
-7.96
-5.97
-3.03
0.50
4.00
6.87
8.68
9.42
9.41
9.09
8.79
8.60
8.42
8.08
7.51
6.75
5.93
5.13
4.40
3.67
2.91
2.09
1.26
0.51
-0.08
-0.47
-0.64
-0.60
-0.40
-0.15
0.02
-0.06
-0.48
-1.25
-2.28
-3.39
-4.35
-4.96
-5.04
-4.51
-3.41
-1.90
-0.24
1.32
2.58
3.45
3.97
4.26
4.45
4.66
4.94
5.33
5.82
6.38
6.95
7.38
7.53
7.26
6.56
5.51
4.32
3.18
2.22
1.44
0.78
0.11
-0.59
-1.21
-1.59
-1.50
-0.88
0.16
1.38
2.49
3.29
3.78
4.08
4.34
4.66
5.00
5.26
5.33
5.20
4.94
4.64
4.37
4.12
3.81
3.38
2.82
2.17
1.49
0.87
0.32
-0.13
-0.48
-0.72
-0.88
-1.00
-1.17
-1.49
-2.00
-2.67
-3.38
-3.97
-4.32
-4.42
-4.39
-4.44
-4.74
-5.32
-6.03
-6.62
-6.88
-6.67
-6.03
-5.11
-4.06
-2.99
-1.93
-0.86
0.18
1.14
1.92
2.45
2.73
2.81
2.83
2.89
3.01
3.14
3.17
3.00
2.57
1.93
1.19
0.47
-0.14
-0.62
-1.04
-1.46
-1.90
-2.37
-2.81
-3.22
-3.62
-4.10
-4.70
-5.42
-6.09
-6.49
-6.42
-5.79
-4.69
-3.32
-1.94
-0.75
0.21
0.94
1.54
2.02
2.37
2.52
2.40
2.01
1.39
0.68
0.00
-0.52
-0.86
-1.07
-1.27
-1.58
-2.04
-2.61
-3.17
-3.59
-3.83
-3.92
-3.99
-4.15
-4.49
-5.05
-5.81
-6.74
-7.75
-8.71
-9.42
-9.61
-9.12
-7.90
-6.12
-4.09
-2.13
-0.50
0.67
1.42
1.85
2.14
2.42
2.84
3.49
4.42
5.59
6.87
8.07
8.98
9.42
9.29
8.63
7.59
6.38
5.20
4.25
3.62
3.31
3.26
3.34
3.38
3.25
2.89
2.35
1.78
1.43
1.48
2.00
2.92
4.04
5.18
6.21
7.12
7.97
8.80
9.57
10.16
10.46
10.46
10.25
10.05
10.03
10.28
10.70
11.13
11.41
11.47
11.37
11.22
11.13
11.08
10.98
10.67
10.01
8.95
7.50
5.66
3.40
0.71
-2.33
-5.55
-8.59
-11.12
-12.89
-13.83
-14.05
-13.74
-13.11
-12.26
-11.32
-10.41
-9.67
-9.21
-9.02
-8.96
-8.79
-8.34
-7.57
-6.58
-5.56
-4.61
-3.74
-2.80
-1.67
-0.29
1.19
2.53
3.51
4.01
4.06
3.78
3.31
2.71
2.00
1.23
0.55
0.15
0.21
0.76
1.65
2.62
3.40
3.90
4.21
4.53
5.06
5.83
6.77
7.72
8.56
9.30
9.98
10.68
11.38
11.92
12.10
11.77
10.93
9.73
8.42
7.20
6.10
4.96
3.47
1.30
-1.73
-5.57
-9.91
-14.26
-18.07
-20.92
-22.62
-23.22
-22.94
-22.12
-21.02
-19.74
-18.18
-16.15
-13.41
-9.94
-5.97
-2.03
1.17
2.93
2.78
0.68
-2.96
-7.41
-11.78
-15.33
-17.56
-18.34
-17.85
-16.44
-14.50
-12.32
-10.01
-7.56
-4.89
-1.96
1.11
3.98
6.13
7.05
6.43
4.36
1.33
-1.89
-4.55
-6.13
-6.47
-5.77
-4.37
-2.58
-0.60
1.45
3.47
5.26
6.57
7.22
7.17
6.64
6.01
5.72
6.11
7.29
9.15
11.35
13.46
14.95
15.37
14.31
11.57
7.20
1.52
-4.91
-11.36
-17.09
-21.54
-24.33
-25.34
-24.64
-22.45
-19.09
-15.02
-10.78
-6.94
-3.94
-1.97
-0.91
-0.32
0.37
1.63
3.65
6.29
9.14
11.73
13.68
14.84
15.25
15.13
14.73
14.31
14.08
14.11
14.34
14.59
14.58
14.03
12.71
10.55
7.63
4.26
0.92
-1.81
-3.37
-3.39
-1.75
1.29
5.23
9.35
12.96
15.49
16.57
16.10
14.19
11.18
7.56
3.91
0.74
-1.60
-3.01
-3.60
-3.66
-3.50
-3.38
-3.44
-3.74
-4.20
-4.75
-5.26
-5.67
-5.98
-6.25
-6.60
-7.15
-7.95
-8.94
-10.00
-10.88
-11.38
-11.31
-10.60
-9.29
-7.53
-5.51
-3.47
-1.59
0.05
1.45
2.69
3.81
4.84
5.74
6.43
6.84
6.93
6.73
6.29
5.72
5.11
4.50
3.92
3.35
2.78
2.19
1.56
0.89
0.12
-0.84
-2.09
-3.64
-5.43
-7.23
-8.78
-9.82
-10.20
-9.84
-8.82
-7.30
-5.50
-3.63
-1.89
-0.35
0.99
2.22
3.44
4.75
6.11
7.46
8.66
9.62
10.28
10.64
10.75
10.63
10.32
9.84
9.18
8.33
7.32
6.24
5.17
4.25
3.55
3.06
2.69
2.34
1.84
1.09
-0.00
-1.48
-3.30
-5.34
-7.41
-9.28
-10.81
-11.90
-12.59
-12.98
-13.14
-13.04
-12.64
-11.84
-10.61
-9.01
-7.15
-5.14
-3.03
-0.85
1.38
3.58
5.57
7.17
8.20
8.58
8.38
7.75
6.88
5.99
5.24
4.71
4.46
4.46
4.67
4.96
5.20
5.23
4.93
4.22
3.11
1.68
0.10
-1.42
-2.70
-3.63
-4.20
-4.45
-4.48
-4.37
-4.19
-4.03
-4.06
-4.47
-5.41
-6.84
-8.51
-10.01
-10.91
-10.95
-10.09
-8.53
-6.52
-4.33
-2.15
-0.09
1.78
3.40
4.75
5.86
6.76
7.45
7.94
8.16
8.08
7.70
7.07
6.29
5.42
4.55
3.72
2.99
2.42
2.04
1.83
1.71
1.54
1.20
0.61
-0.22
-1.20
-2.23
-3.25
-4.23
-5.20
-6.20
-7.29
-8.45
-9.62
-10.65
-11.38
-11.66
-11.43
-10.72
-9.62
-8.24
-6.62
-4.81
-2.85
-0.86
1.01
2.59
3.76
4.49
4.83
4.86
4.66
4.27
3.76
3.20
2.69
2.34
2.19
2.20
2.28
2.32
2.24
2.00
1.58
1.02
0.35
-0.39
-1.16
-1.92
-2.62
-3.21
-3.68
-4.04
-4.34
-4.67
-5.09
-5.62
-6.21
-6.69
-6.87
-6.59
-5.74
-4.36
-2.58
-0.63
1.28
2.95
4.32
5.38
6.18
6.76
7.11
7.21
7.07
6.75
6.34
5.93
5.55
5.18
4.73
4.20
3.63
3.11
2.74
2.53
2.40
2.23
1.93
1.45
0.83
0.16
-0.50
-1.08
-1.61
-2.16
-2.78
-3.56
-4.49
-5.52
-6.55
-7.45
-8.11
-8.42
-8.29
-7.64
-6.44
-4.71
-2.58
-0.26
2.03
4.12
5.92
7.37
8.44
9.10
9.39
9.43
9.40
9.50
9.85
10.42
11.07
11.61
11.90
11.92
11.69
11.28
10.71
9.99
9.12
8.13
7.07
5.97
4.85
3.67
2.39
0.97
-0.61
-2.31
-4.07
-5.82
-7.52
-9.14
-10.70
-12.20
-13.66
-15.00
-16.14
-16.89
-17.09
-16.60
-15.40
-13.57
-11.32
-8.88
-6.49
-4.28
-2.36
-0.74
0.60
1.66
2.48
3.12
3.63
4.07
4.45
4.73
4.81
4.63
4.17
3.49
2.73
2.03
1.48
1.10
0.83
0.58
0.22
-0.30
-0.99
-1.81
-2.66
-3.47
-4.23
-4.96
-5.71
-6.49
-7.23
-7.83
-8.17
-8.18
-7.84
-7.16
-6.18
-4.93
-3.44
-1.79
-0.06
1.63
3.17
4.54
5.74
6.78
7.65
8.27
8.58
8.50
8.08
7.41
6.66
5.99
5.51
5.23
5.07
4.90
4.64
4.25
3.78
3.30
2.86
2.47
2.06
1.55
0.90
0.14
-0.63
-1.29
-1.77
-2.10
-2.41
-2.84
-3.48
-4.24
-4.93
-5.25
-5.01
-4.12
-2.67
-0.90
0.95
2.68
4.16
5.35
6.24
6.82
7.11
7.15
7.02
6.82
6.64
6.51
6.46
6.42
6.34
6.14
5.80
5.31
4.70
4.04
3.43
2.91
2.50
2.14
1.72
1.13
0.30
-0.80
-2.13
-3.61
-5.11
-6.53
-7.76
-8.71
-9.37
-9.69
-9.68
-9.34
-8.65
-7.63
-6.31
-4.76
-3.07
-1.31
0.43
2.08
3.54
4.74
5.58
6.07
6.23
6.14
5.83
5.29
4.50
3.46
2.23
0.93
-0.32
-1.40
-2.25
-2.83
-3.18
-3.34
-3.44
-3.63
-4.09
-4.89
-6.00
-7.25
-8.43
-9.35
-9.95
-10.26
-10.33
-10.20
-9.76
-8.89
-7.47
-5.52
-3.24
-0.93
1.13
2.76
4.00
5.02
5.98
6.92
7.71
8.11
7.89
7.05
5.80
4.51
3.52
3.04
3.04
3.29
3.53
3.52
3.16
2.45
1.44
0.19
-1.26
-2.83
-4.44
-5.95
-7.21
-8.15
-8.77
-9.13
-9.30
-9.33
-9.15
-8.67
-7.81
-6.55
-4.99
-3.26
-1.54
0.02
1.35
2.48
3.45
4.34
5.15
5.81
6.17
6.12
5.62
4.76
3.72
2.75
2.05
1.74
1.84
2.26
2.78
3.14
3.03
2.24
0.71
-1.47
-4.06
-6.76
-9.32
-11.52
-13.18
-14.15
-14.29
-13.55
-12.00
-9.82
-7.27
-4.58
-1.88
0.75
3.23
5.37
6.90
7.52
7.11
5.78
3.90
1.98
0.47
-0.42
-0.75
-0.74
-0.60
-0.42
-0.13
0.43
1.39
2.75
4.38
6.11
7.76
9.20
10.34
11.07
11.28
10.85
9.74
8.00
5.83
3.47
1.14
-1.06
-3.14
-5.17
-7.13
-8.93
-10.34
-11.20
-11.44
-11.19
-10.66
-10.04
-9.31
-8.28
-6.62
-4.10
-0.75
3.07
6.75
9.66
11.39
11.85
11.25
9.98
8.43
6.87
5.39
3.99
2.67
1.50
0.60
0.09
0.04
0.39
0.98
1.58
2.01
2.14
1.95
1.50
0.85
0.02
-1.03
-2.34
-3.93
-5.65
-7.25
-8.40
-8.84
-8.48
-7.44
-6.01
-4.51
-3.22
-2.23
-1.50
-0.91
-0.32
0.35
1.11
1.95
2.83
3.73
4.60
5.38
5.99
6.33
6.31
5.89
5.10
4.04
2.90
1.94
1.36
1.26
1.55
1.93
2.01
1.54
0.44
-1.07
-2.58
-3.71
-4.26
-4.26
-3.98
-3.74
-3.79
-4.21
-4.90
-5.66
-6.32
-6.75
-6.92
-6.84
-6.47
-5.75
-4.60
-2.99
-1.06
0.95
2.77
4.16
5.05
5.51
5.67
5.64
5.50
5.26
4.96
4.66
4.44
4.37
4.50
4.75
4.98
5.04
4.73
3.95
2.66
0.94
-1.10
-3.31
-5.54
-7.63
-9.44
-10.83
-11.68
-11.94
-11.62
-10.81
-9.61
-8.12
-6.42
-4.53
-2.51
-0.51
1.29
2.64
3.36
3.43
3.04
2.57
2.44
2.89
3.89
5.14
6.16
6.58
6.29
5.53
4.68
4.13
4.01
4.14
4.13
3.59
2.41
0.79
-0.81
-1.88
-2.16
-1.74
-1.02
-0.51
-0.56
-1.23
-2.24
-3.21
-3.77
-3.77
-3.27
-2.44
-1.47
-0.50
0.44
1.36
2.27
3.20
4.12
5.00
5.79
6.47
7.02
7.49
7.95
8.47
9.05
9.65
10.13
10.35
10.20
9.68
8.91
8.09
7.41
6.93
6.56
6.11
5.42
4.39
3.08
1.63
0.14
-1.35
-2.87
-4.43
-5.95
-7.25
-8.13
-8.43
-8.14
-7.36
-6.20
-4.76
-3.02
-0.97
1.35
3.80
6.14
8.10
9.50
10.29
10.54
10.41
9.99
9.30
8.31
6.99
5.39
3.66
2.00
0.53
-0.69
-1.73
-2.67
-3.56
-4.39
-5.10
-5.65
-6.06
-6.44
-6.92
-7.65
-8.71
-10.07
-11.58
-13.06
-14.30
-15.14
-15.47
-15.27
-14.52
-13.21
-11.32
-8.86
-5.95
-2.86
0.03
2.31
3.73
4.24
4.05
3.49
2.90
2.49
2.31
2.26
2.20
2.06
1.89
1.83
2.00
2.44
3.03
3.54
3.72
3.43
2.66
1.56
0.32
-0.88
-1.99
-3.04
-4.10
-5.20
-6.26
-7.14
-7.64
-7.62
-7.01
-5.85
-4.31
-2.61
-1.00
0.31
1.24
1.84
2.23
2.56
2.90
3.24
3.55
3.77
3.97
4.21
4.54
4.91
5.15
5.07
4.57
3.69
2.63
1.65
0.90
0.44
0.18
-0.05
-0.39
-0.94
-1.74
-2.72
-3.79
-4.83
-5.73
-6.44
-6.92
-7.17
-7.17
-6.89
-6.31
-5.41
-4.26
-2.97
-1.60
-0.18
1.35
3.01
4.73
6.32
7.51
8.08
7.99
7.41
6.66
6.07
5.83
5.96
6.31
6.61
6.65
6.30
5.58
4.61
3.56
2.56
1.70
1.00
0.42
-0.05
-0.45
-0.84
-1.31
-2.00
-2.96
-4.16
-5.37
-6.30
-6.63
-6.20
-5.06
-3.43
-1.64
0.07
1.57
2.92
4.21
5.55
6.91
8.17
9.11
9.57
9.48
8.93
8.12
7.27
6.54
5.99
5.64
5.53
5.68
6.11
6.72
7.31
7.56
7.18
5.97
3.93
1.30
-1.55
-4.20
-6.36
-7.91
-8.95
-9.70
-10.29
-10.74
-10.86
-10.42
-9.28
-7.55
-5.52
-3.56
-1.92
-0.63
0.44
1.49
2.59
3.69
4.63
5.24
5.40
5.13
4.50
3.63
2.62
1.53
0.41
-0.68
-1.64
-2.35
-2.72
-2.70
-2.39
-1.95
-1.58
-1.41
-1.45
-1.62
-1.82
-1.98
-2.13
-2.35
-2.79
-3.53
-4.59
-5.87
-7.24
-8.46
-9.34
-9.71
-9.49
-8.66
-7.27
-5.42
-3.20
-0.74
1.75
4.05
5.94
7.24
7.88
7.91
7.52
6.93
6.39
6.05
5.93
5.86
5.59
4.91
3.70
2.09
0.36
-1.19
-2.31
-2.95
-3.24
-3.34
-3.42
-3.57
-3.82
-4.15
-4.60
-5.18
-5.89
-6.65
-7.36
-7.85
-8.06
-7.97
-7.67
-7.23
-6.71
-6.10
-5.29
-4.22
-2.85
-1.22
0.55
2.32
3.95
5.35
6.44
7.16
7.43
7.18
6.42
5.25
3.86
2.54
1.52
0.98
0.92
1.23
1.67
1.96
1.91
1.49
0.78
0.01
-0.62
-1.04
-1.29
-1.57
-2.06
-2.90
-4.09
-5.49
-6.85
-7.93
-8.51
-8.48
-7.79
-6.49
-4.73
-2.68
-0.61
1.22
2.60
3.41
3.67
3.59
3.43
3.44
3.71
4.12
4.44
4.48
4.17
3.66
3.19
3.00
3.18
3.63
4.12
4.40
4.30
3.84
3.15
2.42
1.79
1.27
0.74
0.04
-1.00
-2.40
-4.06
-5.73
-7.15
-8.11
-8.47
-8.21
-7.36
-6.00
-4.24
-2.26
-0.23
1.67
3.30
4.60
5.59
6.35
7.03
7.71
8.44
9.14
9.68
9.92
9.72
9.08
8.07
6.85
5.58
4.42
3.44
2.63
1.96
1.37
0.86
0.44
0.14
-0.06
-0.27
-0.68
-1.48
-2.75
-4.38
-6.09
-7.54
-8.41
-8.51
-7.82
-6.41
-4.44
-2.13
0.29
2.57
4.48
5.91
6.81
7.29
7.48
7.55
7.56
7.50
7.28
6.76
5.81
4.37
2.47
0.29
-1.95
-4.00
-5.72
-7.04
-7.99
-8.65
-9.07
-9.25
-9.19
-8.91
-8.47
-8.02
-7.71
-7.70
-8.06
-8.76
-9.67
-10.51
-11.01
-10.96
-10.29
-9.08
-7.48
-5.64
-3.66
-1.61
0.47
2.50
4.35
5.92
7.12
7.89
8.22
8.09
7.53
6.60
5.49
4.44
3.71
3.43
3.58
3.97
4.30
4.32
3.91
3.12
2.09
0.99
-0.04
-0.94
-1.70
-2.35
-2.95
-3.55
-4.21
-4.95
-5.75
-6.51
-7.08
-7.31
-7.14
-6.58
-5.68
-4.51
-3.13
-1.58
0.05
1.63
3.03
4.14
4.94
5.48
5.83
6.03
6.07
5.92
5.58
5.10
4.55
3.99
3.46
2.94
2.47
2.06
1.78
1.65
1.63
1.62
1.51
1.20
0.69
0.01
-0.82
-1.78
-2.89
-4.08
-5.23
-6.15
-6.65
-6.62
-6.10
-5.21
-4.10
-2.85
-1.42
0.24
2.14
4.11
5.87
7.11
7.64
7.51
6.99
6.43
6.11
6.14
6.44
6.84
7.16
7.27
7.10
6.61
5.75
4.56
3.11
1.57
0.14
-1.00
-1.75
-2.13
-2.20
-2.10
-1.95
-1.90
-2.04
-2.42
-3.01
-3.67
-4.23
-4.51
-4.37
-3.81
-2.90
-1.77
-0.53
0.73
2.02
3.30
4.52
5.55
6.20
6.35
5.98
5.24
4.37
3.59
3.08
2.86
2.87
2.98
3.06
2.97
2.63
1.99
1.05
-0.08
-1.27
-2.39
-3.35
-4.13
-4.74
-5.22
-5.57
-5.85
-6.14
-6.58
-7.26
-8.16
-9.07
-9.67
-9.65
-8.82
-7.26
-5.24
-3.17
-1.37
-0.01
0.95
1.68
2.34
3.04
3.76
4.40
4.84
4.98
4.79
4.33
3.71
3.05
2.48
2.09
1.88
1.84
1.86
1.86
1.75
1.49
1.05
0.43
-0.41
-1.49
-2.78
-4.19
-5.54
-6.71
-7.58
-8.15
-8.48
-8.62
-8.56
-8.24
-7.59
-6.61
-5.40
-4.15
-3.01
-2.06
-1.24
-0.40
0.56
1.68
2.84
3.90
4.70
5.16
5.33
5.28
5.09
4.78
4.34
3.79
3.20
2.72
2.50
2.57
2.79
2.88
2.55
1.63
0.14
-1.66
-3.48
-5.03
-6.15
-6.88
-7.35
-7.72
-8.08
-8.39
-8.51
-8.25
-7.42
-5.99
-4.05
-1.83
0.39
2.33
3.81
4.75
5.19
5.28
5.20
5.15
5.25
5.55
5.96
6.33
6.53
6.48
6.16
5.61
4.93
4.20
3.53
3.02
2.73
2.66
2.75
2.89
2.96
2.88
2.60
2.09
1.34
0.33
-0.91
-2.20
-3.32
-4.01
-4.09
-3.56
-2.59
-1.43
-0.32
0.63
1.45
2.26
3.16
4.17
5.17
6.01
6.50
6.55
6.17
5.49
4.69
3.93
3.35
3.00
2.86
2.90
3.06
3.29
3.51
3.62
3.49
3.03
2.18
0.95
-0.55
-2.16
-3.72
-5.11
-6.21
-6.99
-7.44
-7.58
-7.47
-7.17
-6.73
-6.20
-5.59
-4.85
-3.92
-2.77
-1.39
0.14
1.69
3.06
4.06
4.49
4.28
3.53
2.51
1.54
0.93
0.81
1.12
1.62
2.08
2.34
2.43
2.48
2.62
2.85
3.04
2.96
2.42
1.38
-0.09
-1.76
-3.38
-4.73
-5.62
-5.96
-5.76
-5.08
-4.05
-2.83
-1.54
-0.25
1.06
2.46
3.98
5.62
7.21
8.50
9.20
9.11
8.16
6.49
4.35
2.04
-0.20
-2.22
-3.92
-5.23
-6.07
-6.41
-6.30
-5.89
-5.40
-5.00
-4.80
-4.77
-4.82
-4.89
-4.94
-5.00
-5.10
-5.27
-5.54
-5.91
-6.40
-6.94
-7.40
-7.59
-7.30
-6.46
-5.14
-3.60
-2.15
-0.98
-0.17
0.39
0.86
1.38
1.99
2.67
3.36
3.97
4.39
4.55
4.44
4.14
3.81
3.61
3.65
3.90
4.19
4.26
3.95
3.24
2.30
1.39
0.75
0.50
0.59
0.81
0.91
0.67
-0.01
-1.08
-2.37
-3.62
-4.57
-5.04
-4.98
-4.45
-3.62
-2.63
-1.59
-0.54
0.48
1.43
2.23
2.78
2.99
2.82
2.33
1.62
0.90
0.34
0.09
0.21
0.65
1.24
1.78
2.07
2.01
1.59
0.89
0.05
-0.73
-1.24
-1.34
-1.02
-0.51
-0.21
-0.56
-1.86
-4.06
-6.73
-9.19
-10.81
-11.26
-10.60
-9.24
-7.68
-6.27
-5.12
-4.10
-3.05
-1.88
-0.67
0.46
1.39
2.14
2.82
3.55
4.29
4.90
5.17
4.94
4.25
3.26
2.23
1.38
0.77
0.33
-0.10
-0.67
-1.43
-2.30
-3.13
-3.78
-4.20
-4.48
-4.80
-5.24
-5.76
-6.09
-5.89
-4.89
-3.00
-0.33
2.86
6.33
9.86
13.20
16.05
17.99
18.68
17.99
16.12
13.62
11.12
9.11
7.78
7.05
6.65
6.34
5.93
5.22
3.98
1.95
-1.04
-4.88
-9.15
-13.24
-16.64
-19.11
-20.80
-22.02
-22.99
-23.61
-23.52
-22.34
-19.95
-16.65
-13.09
-9.88
-7.40
-5.58
-4.08
-2.52
-0.68
1.40
3.50
5.33
6.66
7.30
7.11
6.04
4.21
1.96
-0.23
-1.87
-2.61
-2.40
-1.46
-0.17
1.09
2.11
2.92
3.62
4.36
5.18
6.08
6.92
7.57
7.87
7.70
7.03
5.85
4.24
2.34
0.40
-1.21
-2.21
-2.43
-2.03
-1.50
-1.52
-2.59
-4.73
-7.25
-9.14
-9.54
-8.23
-5.65
-2.67
-0.14
1.54
2.59
3.71
5.45
7.77
10.10
11.74
12.40
12.37
12.35
13.09
15.32
19.04
23.40
27.08
28.96
28.60
26.33
23.06
20.07
19.06
21.23
26.74
34.67
43.26
50.33
53.65
51.45
41.26
23.57
2.69
-15.06
-25.25
-27.25
-23.25
-16.43
-9.40
-4.11
0.30
4.86
9.89
14.89
19.01
21.67
22.77
22.69
22.61
23.72
26.52
30.57
34.64
37.30
37.46
34.60
28.75
20.31
10.01
-1.54
-13.79
-25.96
-36.88
-44.99
-48.86
-47.79
-42.15
-33.32
-23.32
-14.21
-7.40
-3.43
-1.97
-2.24
-3.45
-5.02
-6.63
-8.12
-9.46
-10.70
-11.94
-13.35
-15.08
-17.22
-19.71
-22.36
-24.87
-26.91
-28.19
-28.59
-28.25
-27.49
-26.77
-26.44
-26.63
-27.19
-27.80
-28.14
-28.07
-27.64
-27.02
-26.33
-25.56
-24.57
-23.20
-21.37
-19.05
-16.35
-13.38
-10.25
-7.14
-4.31
-2.08
-0.75
-0.46
-1.06
-2.16
-3.19
-3.64
-3.16
-1.74
0.37
2.73
4.89
6.48
7.34
7.45
6.96
6.09
5.11
4.23
3.55
3.04
2.52
1.76
0.59
-1.02
-2.87
-4.60
-5.74
-5.96
-5.18
-3.64
-1.83
-0.29
0.62
0.86
0.66
0.38
0.27
0.35
0.46
0.39
0.07
-0.36
-0.66
-0.60
-0.12
0.66
1.52
2.22
2.65
2.82
2.82
2.76
2.65
2.45
2.01
1.24
0.12
-1.30
-2.85
-4.37
-5.75
-6.89
-7.72
-8.16
-8.15
-7.64
-6.63
-5.21
-3.53
-1.76
-0.04
1.50
2.75
3.63
4.12
4.30
4.31
4.35
4.56
5.01
5.64
6.30
6.82
7.02
6.82
6.28
5.61
5.10
4.97
5.34
6.10
6.97
7.58
7.59
6.74
4.91
2.22
-1.03
-4.30
-6.96
-8.44
-8.40
-6.89
-4.36
-1.48
1.05
2.77
3.48
3.24
2.29
0.89
-0.73
-2.44
-4.10
-5.61
-6.83
-7.61
-7.89
-7.67
-7.10
-6.37
-5.64
-4.96
-4.29
-3.52
-2.59
-1.51
-0.36
0.72
1.62
2.13
2.01
1.05
-0.82
-3.33
-5.85
-7.61
-8.00
-6.81
-4.40
-1.46
1.27
3.33
4.62
5.33
5.68
5.81
5.65
5.10
4.10
2.77
1.35
0.14
-0.66
-1.02
-1.03
-0.86
-0.56
-0.10
0.60
1.58
2.74
3.85
4.60
4.69
3.93
2.24
-0.30
-3.41
-6.66
-9.53
-11.52
-12.34
-11.96
-10.61
-8.68
-6.55
-4.52
-2.71
-1.17
0.08
1.04
1.71
2.11
2.30
2.36
2.33
2.24
2.02
1.56
0.75
-0.49
-2.06
-3.72
-5.04
-5.57
-4.99
-3.31
-0.93
1.44
3.03
3.28
2.07
-0.24
-2.96
-5.32
-6.65
-6.56
-4.95
-2.05
1.68
5.61
9.06
11.46
12.55
12.41
11.44
10.18
9.09
8.41
8.10
7.93
7.63
6.97
5.91
4.55
3.14
2.01
1.43
1.60
2.54
4.06
5.81
7.28
7.99
7.54
5.81
3.02
-0.29
-3.43
-5.76
-6.91
