1660756806.00
64.000000
-0.00
-0.00
-0.00
-0.00
-0.00
-0.00
-0.00
-0.00
-0.00
-0.00
0.00
0.01
0.01
-0.00
-0.03
-0.05
-0.05
0.00
0.13
0.36
0.66
1.01
1.37
1.72
2.06
2.40
2.79
3.24
3.80
4.42
5.06
5.66
6.20
6.68
7.15
7.68
8.31
9.14
10.09
11.04
11.88
12.56
13.14
13.76
14.65
15.96
17.91
20.32
22.90
25.38
27.58
29.57
31.68
34.32
37.81
42.54
48.15
54.10
59.83
64.97
69.58
74.14
79.34
85.71
93.76
103.00
112.62
121.73
129.77
136.75
143.30
150.75
157.77
166.64
177.95
191.79
206.97
220.57
228.25
225.36
208.53
176.87
132.76
80.05
23.07
-34.94
-92.44
-149.16
-205.23
-260.37
-313.74
-363.87
-409.83
-450.91
-486.50
-515.74
-537.23
-549.22
-549.96
-538.37
-514.21
-478.67
-433.88
-382.45
-327.02
-269.84
-212.63
-156.66
-102.95
-52.37
-5.90
35.58
71.43
101.35
125.50
144.38
158.69
169.15
176.37
180.75
182.57
182.07
179.51
175.23
169.65
163.18
156.15
148.81
141.30
133.69
126.02
118.33
110.69
103.16
95.80
88.68
81.83
75.25
68.95
62.95
57.25
51.86
46.78
42.03
37.59
33.45
29.61
26.07
22.81
19.83
17.11
14.67
12.48
10.54
8.83
7.35
6.07
4.97
4.05
3.27
2.62
2.09
1.65
1.30
1.01
0.79
0.61
0.47
0.37
0.29
0.23
0.18
0.15
0.14
0.13
0.14
0.15
0.17
0.19
0.22
0.26
0.30
0.34
0.38
0.43
0.48
0.54
0.59
0.66
0.72
0.79
0.86
0.94
1.02
1.11
1.21
1.31
1.42
1.54
1.68
1.83
1.99
2.18
2.39
2.63
2.89
3.19
3.52
3.89
4.29
4.74
5.22
5.74
6.30
6.91
7.55
8.24
8.97
9.76
10.59
11.47
12.38
13.35
14.36
15.42
16.54
17.72
18.93
20.18
21.43
22.61
23.66
24.48
24.97
25.00
24.47
23.28
21.39
18.79
15.51
11.61
7.25
2.58
-2.23
-7.00
-11.60
-15.91
-19.86
-23.41
-26.52
-29.16
-31.33
-33.02
-34.22
-34.88
-35.00
-34.52
-33.41
-31.61
-29.05
-25.75
-21.79
-17.34
-12.62
-7.95
-3.60
0.05
2.85
4.75
5.71
5.79
5.14
3.98
2.49
0.97
-0.48
-1.58
-2.22
-2.41
-2.28
-1.98
-1.65
-1.52
-1.48
-1.41
-0.85
0.72
3.69
8.33
14.78
23.09
32.80
45.02
58.43
71.70
83.63
93.04
98.95
100.75
98.26
91.19
80.23
66.09
49.71
31.71
12.31
-8.48
-30.55
-50.14
-66.78
-79.86
-89.00
-94.03
-95.52
-94.83
-93.54
-92.94
-93.49
-95.17
-96.81
-97.35
-96.09
-93.30
-90.05
-87.57
-86.94
-88.86
-94.17
-102.73
-113.13
-122.10
-125.01
-117.44
-97.29
-66.49
-30.78
1.97
25.51
37.28
38.94
34.66
28.60
23.09
18.34
13.67
8.66
4.17
1.76
2.61
6.67
12.68
18.92
23.76
27.08
29.66
32.89
38.04
45.55
54.75
64.13
71.88
76.60
77.86
76.12
72.49
68.20
64.07
60.35
56.71
52.78
48.23
43.19
38.11
33.57
30.19
28.48
28.92
31.77
36.78
42.97
48.53
51.12
48.45
39.17
23.58
4.13
-15.23
-30.32
-38.33
-38.83
-33.92
-27.26
-22.90
-24.14
-32.99
-50.02
-74.30
-103.17
-132.26
-156.02
-169.00
-167.58
-151.76
-125.13
-93.45
-62.29
-35.03
-12.10
7.14
24.22
40.48
56.75
73.18
89.96
107.68
127.50
150.94
179.13
211.50
244.61
272.12
286.81
283.43
260.99
223.00
175.94
126.60
80.46
41.17
11.19
-7.53
-13.91
-8.79
4.49
20.73
34.65
42.75
43.74
37.45
23.52
1.11
-29.96
-67.62
-106.97
-141.67
-166.04
-177.50
-177.59
-171.38
-165.61
-166.08
-175.58
-192.81
-212.85
-228.73
-233.81
-223.85
-197.64
-156.63
-103.92
-43.61
19.37
79.25
129.96
166.28
185.31
187.31
175.66
155.77
133.93
116.21
107.85
112.72
132.34
165.18
206.36
248.55
283.93
306.53
313.83
306.96
289.43
265.31
237.52
207.15
173.83
136.93
96.85
55.68
16.68
-16.98
-43.76
-64.54
-82.37
-100.98
-123.50
-151.59
-185.57
-224.82
-268.13
-313.63
-358.51
-399.01
-430.94
-450.63
-455.85
-446.36
-423.65
-390.24
-348.97
-302.70
-254.37
-207.16
-164.40
-128.83
-101.84
-82.84
-69.49
-58.52
-47.10
-33.75
-18.77
-3.72
9.76
20.92
30.20
38.85
48.01
58.04
68.32
77.65
84.88
89.37
91.09
90.49
88.25
85.04
81.49
78.04
74.96
72.33
70.11
68.27
66.76
65.60
64.67
63.71
62.34
60.32
57.72
55.00
52.66
50.95
49.56
47.71
44.50
39.36
32.25
23.61
14.10
4.31
-5.20
-13.86
-21.01
-25.97
-28.27
-27.76
-24.79
-19.92
-13.79
-6.99
0.02
6.77
12.74
17.40
20.36
21.59
21.46
20.67
20.03
20.10
21.10
22.79
24.71
26.37
27.43
27.84
27.79
27.52
27.09
26.27
24.54
21.28
16.13
9.21
1.30
-6.36
-12.40
-15.75
-15.93
-13.15
-8.17
-2.02
4.20
9.63
13.68
16.10
17.02
16.86
16.18
15.54
15.29
15.52
16.11
16.84
17.56
18.19
18.69
18.97
18.93
18.49
17.78
17.11
16.86
17.22
17.98
18.50
17.91
15.44
10.66
3.63
-5.15
-14.87
-24.59
-33.24
-39.90
-43.88
-44.93
-43.47
-40.53
-37.58
-36.04
-36.84
-40.07
-44.94
-50.09
-54.01
-55.59
-54.29
-50.24
-43.93
-35.92
-26.61
-16.21
-4.81
7.43
20.18
32.83
44.58
54.56
62.00
66.46
67.92
66.80
63.81
59.71
55.15
50.59
46.33
42.58
39.55
37.38
36.00
35.15
34.25
32.69
29.95
25.96
21.15
16.43
12.93
11.55
12.67
15.88
20.14
24.05
26.44
26.70
25.05
22.42
20.16
19.62
21.69
26.47
32.97
39.15
42.32
40.00
30.91
15.76
-2.63
-20.12
-32.61
-37.54
-34.66
-26.01
-14.95
-4.82
2.13
5.17
4.85
2.37
-1.04
-4.50
-7.51
-9.75
-11.04
-11.32
-10.81
-10.10
-10.04
-11.43
-14.62
-19.23
-24.19
-28.11
-29.72
-28.37
-24.23
-18.13
-11.24
-4.62
1.05
5.62
9.36
12.75
16.23
19.99
23.93
27.70
30.93
33.40
35.17
36.71
38.78
42.21
47.73
55.61
65.61
76.88
88.17
98.12
105.89
111.50
116.23
122.30
132.20
147.56
168.29
192.28
215.86
235.03
246.69
249.63
244.76
234.60
222.42
211.22
202.90
197.82
194.70
191.16
184.45
172.50
154.49
131.04
103.66
73.95
42.94
10.74
-23.28
-60.19
-100.97
-145.88
-193.81
-241.87
-285.60
-319.99
-340.92
-346.70
-338.59
-320.32
-296.62
-271.51
-247.32
-224.70
-203.42
-183.30
-164.66
-148.15
-134.11
-122.21
-111.47
-100.68
-88.93
-75.94
-62.01
-47.77
-33.69
-19.86
-5.97
8.38
23.42
38.93
54.27
68.63
81.29
91.88
100.29
106.46
110.06
110.41
106.72
98.54
86.20
70.96
54.73
39.30
25.88
14.66
4.97
-4.40
-14.70
-26.84
-41.06
-56.92
-73.39
-89.30
-103.76
-116.40
-127.36
-136.92
-145.05
-151.03
-153.62
-151.59
-144.35
-132.38
-117.09
-100.35
-83.87
-68.76
-55.53
-44.36
-35.27
-28.37
-23.73
-21.19
-20.28
-20.31
-20.52
-20.33
-19.34
-17.34
-14.26
-10.24
-5.61
-0.94
3.15
6.30
8.58
10.46
12.57
15.33
18.65
21.99
24.55
25.67
25.05
22.73
19.06
14.46
9.34
4.06
-1.04
-5.64
-9.49
-12.39
-14.27
-15.09
-14.88
-13.67
-11.58
-8.80
-5.68
-2.59
0.19
2.51
4.40
5.95
7.18
8.00
8.24
7.81
6.79
5.41
4.02
2.84
1.98
1.45
1.18
1.17
1.39
1.80
2.25
2.51
2.41
1.85
0.87
-0.40
-1.81
-3.29
-4.83
-6.46
-8.15
-9.83
-11.38
-12.76
-14.00
-15.20
-16.38
-17.39
-17.86
-17.33
-15.44
-12.15
-7.76
-2.87
1.96
6.27
9.93
12.97
15.48
17.50
18.95
19.73
19.81
19.27
18.33
17.25
16.29
15.52
14.91
14.28
13.39
12.08
10.31
8.14
5.76
3.34
0.99
-1.21
-3.24
-5.07
-6.65
-7.98
-9.13
-10.22
-11.45
-12.93
-14.59
-16.20
-17.39
-17.78
-17.24
-15.86
-13.93
-11.82
-9.82
-8.01
-6.31
-4.56
-2.61
-0.44
1.78
3.79
5.30
6.16
6.37
6.07
5.44
4.67
3.81
2.94
2.07
1.28
0.63
0.14
-0.28
-0.75
-1.40
-2.28
-3.33
-4.48
-5.63
-6.71
-7.72
-8.68
-9.63
-10.66
-11.88
-13.38
-15.15
-17.01
-18.67
-19.77
-19.97
-19.14
-17.33
-14.76
-11.76
-8.66
-5.73
-3.14
-0.99
0.81
2.36
3.83
5.34
6.86
8.28
9.45
10.23
10.59
10.62
10.44
10.17
9.94
9.82
9.86
10.13
10.58
11.14
11.59
11.75
11.49
10.82
9.85
8.72
7.56
6.42
5.30
4.20
3.12
2.04
0.94
-0.28
-1.72
-3.47
-5.51
-7.75
-10.01
-12.04
-13.57
-14.37
-14.27
-13.23
-11.36
-8.93
-6.23
-3.55
-1.07
1.13
3.12
4.99
6.80
8.54
10.07
11.27
12.05
12.42
12.56
12.67
12.92
13.39
13.98
14.54
14.94
15.10
15.01
14.75
14.32
13.69
12.85
11.86
10.88
10.09
9.62
9.40
9.22
8.85
8.13
7.06
5.80
4.50
3.24
1.93
0.47
-1.22
-3.17
-5.28
-7.45
-9.54
-11.39
-12.76
-13.36
-13.00
-11.61
-9.36
-6.55
-3.58
-0.75
1.77
3.96
5.86
7.53
9.01
10.29
11.34
12.06
12.42
12.41
12.14
11.78
11.49
11.37
11.37
11.41
11.35
11.11
10.73
10.33
10.02
9.86
9.81
9.70
9.32
8.55
7.33
5.81
4.21
2.77
1.62
0.79
0.12
-0.56
-1.40
-2.47
-3.74
-5.13
-6.49
-7.65
-8.39
-8.47
-7.68
-5.96
-3.48
-0.59
2.31
4.94
7.27
9.44
11.62
13.88
16.07
17.87
18.95
19.18
18.76
18.19
18.05
18.77
20.48
22.93
25.61
27.84
29.14
29.48
29.29
29.35
30.42
32.90
36.71
41.20
45.36
48.29
49.60
49.52
48.69
47.66
46.71
45.62
43.85
40.32
34.37
26.14
16.70
7.94
2.24
2.05
9.22
24.11
43.74
63.16
76.94
81.06
74.16
57.72
35.25
10.85
-12.27
-34.53
-57.68
-83.15
-110.76
-138.85
-165.36
-188.82
-208.70
-225.04
-240.29
-256.03
-271.58
-284.28
-291.01
-290.01
-281.66
-267.74
-235.58
-178.37
-97.18
-2.28
92.00
174.32
239.37
286.81
319.17
339.73
350.13
351.05
343.73
330.72
315.33
300.31
286.99
275.25
265.42
255.39
243.19
228.17
211.28
194.41
179.28
166.89
157.48
150.84
145.20
138.97
131.41
122.85
114.19
106.26
99.42
93.65
88.76
83.88
78.34
71.92
64.87
57.60
50.26
42.68
34.52
25.59
15.70
5.01
-5.97
-16.73
-27.05
-37.22
-47.95
-59.96
-73.53
-88.25
-103.13
-116.86
-128.53
-138.14
-146.74
-156.12
-168.02
-183.39
-201.85
-221.91
-241.77
-259.99
-276.16
-291.10
-306.62
-324.97
-348.18
-377.35
-411.97
-449.53
-485.17
-512.39
-524.91
-518.90
-494.49
-456.06
-410.29
-363.78
-321.26
-284.21
-251.36
-220.40
-189.82
-159.81
-131.91
-107.67
-87.40
-70.79
-55.40
-37.19
-12.20
21.40
62.25
106.30
148.90
186.98
217.90
242.70
265.30
289.70
316.99
344.11
365.62
376.67
375.33
358.87
328.55
288.79
244.98
200.61
155.90
108.76
56.41
-3.32
-76.41
-164.43
-262.04
-358.23
-441.17
-503.09
-542.33
-562.76
-537.49
-458.01
-337.26
-203.31
-81.66
15.11
84.83
130.14
155.59
166.84
164.82
151.85
132.69
112.97
97.02
86.00
79.21
75.71
75.27
74.20
69.42
62.14
54.91
49.91
47.41
46.30
45.42
44.15
39.96
31.53
19.56
5.77
-7.79
-20.17
-31.26
-41.15
-49.67
-57.58
-64.89
-70.27
-74.55
-77.38
-78.75
-78.90
-78.20
-76.90
-75.60
-74.68
-74.09
-73.65
-72.71
-70.89
-68.02
-64.05
-59.05
-53.13
-46.45
-39.18
-31.55
-23.47
-14.92
-5.98
3.23
12.51
21.60
30.27
38.34
45.68
52.43
58.74
64.65
70.08
74.80
78.50
80.88
81.78
81.25
79.68
77.47
74.93
72.11
68.76
64.48
58.96
52.29
45.05
38.32
33.30
30.86
31.22
33.85
37.74
41.89
45.80
49.81
54.97
62.48
73.14
86.79
102.33
118.22
133.10
146.44
158.73
171.27
185.73
203.90
227.49
257.64
294.06
333.95
371.57
399.08
408.78
395.87
360.35
307.08
243.80
178.41
116.68
61.63
14.17
-25.61
-57.68
-82.20
-100.06
-113.43
-125.50
-139.52
-157.48
-179.08
-201.38
-219.44
-228.10
-224.09
-207.52
-182.17
-154.21
-129.81
-113.04
-104.67
-102.60
-103.24
-103.15
-100.03
-92.97
-82.19
-68.59
-53.29
-37.35
-21.46
-5.87
9.41
24.26
38.04
49.58
57.55
61.22
60.92
58.18
55.13
53.62
54.52
57.38
60.77
62.86
61.83
56.15
44.88
27.95
6.82
-15.08
-32.65
-40.51
-35.22
-17.30
8.04
32.27
46.76
46.34
31.52
8.28
-14.66
-29.55
-32.64
-25.03
-11.19
3.71
16.24
25.64
32.99
39.52
45.24
48.84
48.81
44.98
39.21
34.87
35.14
41.13
51.06
60.90
66.06
63.36
52.01
33.49
10.52
-14.03
-37.69
-58.53
-75.01
-86.20
-92.11
-94.05
-94.31
-95.15
-97.70
-101.18
-103.24
-101.06
-92.80
-78.53
-60.07
-40.08
-20.83
-3.47
12.00
26.20
39.63
52.18
63.20
71.80
77.43
80.16
80.78
80.43
80.20
80.69
81.85
83.17
84.01
83.72
81.74
77.46
70.34
60.16
47.69
34.87
24.56
19.50
20.96
27.83
36.66
42.85
42.47
33.84
18.14
-1.25
-20.24
-35.63
-45.97
-51.54
-53.52
-53.05
-50.59
-45.98
-38.96
-29.80
-19.56
-9.80
-1.97
3.24
6.10
7.57
8.61
9.67
10.44
10.10
7.80
3.17
-3.55
-11.79
-21.13
-31.43
-42.64
-54.15
-64.42
-71.13
-72.24
-67.18
-57.57
-46.89
-39.04
-36.74
-40.34
-47.88
-55.96
-61.12
-60.87
-54.12
-41.26
-23.88
-4.40
14.31
29.61
39.68
44.02
43.50
39.96
35.71
32.93
33.36
38.01
47.00
59.46
73.68
87.54
99.25
107.78
113.04
115.46
115.52
113.60
110.13
105.97
102.47
100.94
101.84
104.28
106.17
105.14
99.75
90.09
77.63
64.26
51.37
39.48
28.54
18.60
10.22
4.33
1.53
1.59
3.34
5.12
5.53
4.00
0.94
-2.68
-5.87
-8.18
-9.86
-11.73
-14.68
-19.29
-25.54
-32.86
-40.24
-46.58
-50.85
-52.28
-50.51
-45.72
-38.83
-31.51
-25.85
-23.73
-26.03
-32.13
-40.00
-46.94
-50.62
-49.99
-45.44
-38.32
-30.12
-21.84
-13.90
-6.52
-0.16
4.30
5.95
4.37
0.07
-5.58
-10.91
-14.65
-16.39
-16.58
-16.06
-15.50
-14.99
-14.04
-11.95
-8.30
-3.39
1.69
5.19
5.27
0.72
-8.29
-19.90
-30.82
-37.40
-36.98
-29.17
-16.06
-1.48
10.66
17.90
20.06
18.89
16.82
15.64
15.91
17.08
18.28
19.08
19.70
20.68
22.42
24.81
27.29
29.18
30.06
29.93
29.04
27.61
25.64
22.93
19.29
14.87
10.21
6.16
3.55
2.83
3.81
5.53
6.51
5.11
0.22
-8.17
-18.67
-28.78
-35.79
-37.85
-34.87
-28.63
-22.12
-18.32
-19.03
-24.30
-32.57
-41.43
-48.47
-51.95
-51.04
-45.83
-37.17
-26.55
-15.72
-6.39
0.30
4.21
6.18
7.72
10.33
14.89
21.31
28.75
36.13
42.65
48.17
53.01
57.68
62.47
67.22
71.40
74.24
74.86
72.37
66.14
56.06
43.10
29.46
18.16
12.03
12.38
18.07
25.61
30.30
28.13
17.53
0.03
-20.37
-38.79
-51.40
-56.61
-55.23
-49.63
-42.44
-35.56
-29.67
-24.60
-19.90
-15.53
-11.90
-9.60
-8.82
-9.04
-9.03
-7.52
-3.83
1.64
7.50
11.96
13.63
11.90
7.04
-0.16
-8.73
-17.65
-25.69
-31.46
-33.64
-31.63
-26.12
-19.19
-13.70
-12.19
-15.74
-23.38
-32.52
-39.98
-43.30
-41.59
-35.67
-27.52
-19.37
-12.90
-8.82
-6.86
-6.09
-5.38
-3.70
-0.35
5.00
12.21
20.70
29.51
37.48
43.56
47.15
48.25
47.49
45.85
44.37
43.74
43.89
43.94
42.40
37.76
29.32
17.91
6.03
-2.82
-5.47
-0.61
10.42
23.78
34.49
38.29
33.28
20.52
3.48
-13.31
-25.95
-32.26
-32.18
-27.30
-19.92
-12.24
-5.78
-1.30
1.03
1.32
-0.16
-2.95
-6.30
-9.17
-10.49
-9.48
-5.95
-0.31
6.57
13.74
20.24
25.06
26.90
24.19
15.66
1.27
-16.99
-35.17
-48.54
-53.52
-49.30
-38.40
-25.58
-15.72
-11.89
-14.39
-21.25
-29.57
-36.90
-41.83
-43.81
-42.67
-38.30
-30.85
-21.04
-10.38
-0.90
5.55
8.03
6.90
3.66
0.39
-1.06
0.31
4.40
10.25
16.47
21.84
25.76
28.30
30.09
31.94
34.44
37.74
41.43
44.55
45.83
43.95
38.09
28.49
16.87
6.26
0.17
1.19
9.75
23.64
38.62
50.00
54.40
50.90
41.04
27.88
14.65
3.72
-3.85
-8.06
-9.53
-9.13
-7.84
-6.70
-6.75
-8.82
-13.12
-19.01
-25.10
-29.77
-31.84
-31.12
-28.48
-25.45
-23.47
-23.17
-24.12
-24.97
-24.15
-20.57
-14.18
-6.18
1.18
5.25
3.81
-3.92
-16.70
-31.34
-43.61
-49.72
-47.82
-38.60
-25.09
-11.39
-1.24
3.23
1.82
-4.03
-12.05
-19.88
-25.64
-28.15
-27.02
-22.70
-16.32
-9.46
-3.69
-0.11
0.97
0.05
-1.85
-3.62
-4.54
-4.37
-3.33
-1.76
0.01
1.90
3.92
6.14
8.58
11.13
13.66
16.00
17.77
18.41
17.21
13.65
8.02
1.68
-2.99
-3.36
2.23
13.52
27.97
41.52
49.94
50.48
42.82
29.10
13.07
-1.38
-11.46
-16.15
-16.20
-13.42
-9.85
-6.99
-5.46
-5.10
-5.40
-5.84
-6.22
-6.57
-6.97
-7.36
-7.53
-7.30
-6.73
-6.25
-6.47
-7.86
-10.40
-13.50
-16.34
-18.37
-19.73
-21.20
-23.71
-27.60
-32.16
-35.79
-36.84
-34.53
-29.57
-23.97
-20.15
-19.90
-23.59
-30.04
-37.06
-42.14
-43.25
-39.35
-30.64
-18.55
-5.39
6.24
14.28
17.86
17.58
15.14
12.61
11.53
12.46
15.04
18.41
21.76
24.63
26.96
28.84
30.32
31.41
32.04
32.26
32.13
31.60
30.42
28.20
24.82
20.79
17.36
16.20
18.62
24.78
33.35
41.74
47.15
47.57
42.58
33.37
22.15
11.19
2.10
-4.49
-8.82
-11.51
-13.23
-14.46
-15.48
-16.45
-17.48
-18.61
-19.83
-21.04
-22.15
-23.15
-24.16
-25.38
-27.04
-29.25
-31.95
-34.89
-37.67
-39.83
-41.02
-41.34
-41.45
-42.34
-44.80
-48.79
-53.12
-55.83
-55.20
-50.74
-43.63
-36.28
-31.15
-29.53
-31.01
-33.89
-36.06
-35.97
-33.09
-27.77
-20.81
-13.10
-5.37
1.68
7.45
11.42
13.30
13.12
11.34
8.82
6.70
6.12
7.84
11.93
17.55
23.13
26.88
27.38
24.19
18.02
10.60
4.21
1.02
2.47
8.77
18.58
29.19
37.14
39.32
34.25
23.07
9.51
-1.21
-4.35
2.44
18.28
39.52
61.25
78.99
89.91
93.06
89.04
79.48
66.58
52.79
40.54
31.77
27.45
27.46
30.70
35.55
40.37
43.86
45.15
43.80
39.90
34.08
27.44
21.27
16.69
14.31
14.09
15.50
17.77
19.99
21.05
19.58
14.19
4.09
-10.12
-26.12
-40.34
-49.28
-51.11
-46.67
-39.14
-32.59
-30.13
-32.63
-38.77
-46.07
-52.26
-56.14
-57.55
-56.82
-54.20
-49.79
-43.70
-36.38
-28.61
-21.25
-14.85
-9.41
-4.51
0.37
5.54
11.02
16.60
22.12
27.51
32.86
38.23
43.50
48.36
52.26
54.48
54.23
50.84
44.23
35.25
25.93
19.12
17.39
21.81
30.88
40.62
45.80
42.05
27.83
5.35
-20.17
-42.55
-57.02
-61.91
-58.80
-51.35
-43.48
-37.80
-35.01
-34.29
-34.22
-33.68
-32.22
-29.89
-26.80
-22.81
-17.58
-10.95
-3.21
4.74
11.71
16.64
19.03
18.95
16.90
13.29
8.19
1.47
-6.72
-15.41
-22.76
-26.67
-25.83
-20.62
-13.25
-6.99
-4.72
-7.82
-15.68
-26.16
-36.67
-45.10
-50.33
-52.14
-50.88
-47.18
-41.91
-36.17
-31.18
-27.91
-26.66
-26.83
-27.08
-25.84
-21.97
-15.27
-6.55
2.58
10.40
15.63
17.90
17.81
16.64
15.93
16.86
19.92
24.54
29.19
31.65
29.76
22.26
9.68
-5.30
-18.34
-24.78
-21.55
-8.61
10.62
30.38
44.63
49.40
44.23
32.02
17.61
5.64
-1.04
-2.05
1.13
6.28
11.59
16.09
19.58
22.17
23.88
24.66
24.54
23.93
23.54
24.18
26.29
29.75
33.88
37.73
40.48
41.69
41.30
39.43
35.98
30.43
21.89
9.60
-6.41
-24.71
-42.47
-56.17
-62.92
-61.74
-54.16
-43.75
-34.77
-30.65
-32.91
-40.93
-52.58
-65.07
-75.75
-82.61
-84.47
-81.12
-73.39
-62.98
-52.15
-43.03
-36.87
-33.67
-32.11
-30.17
-25.87
-18.08
-7.00
5.96
18.65
29.03
35.89
39.20
40.07
40.18
41.12
43.83
48.24
53.24
56.86
56.78
51.07
39.21
22.91
6.12
-5.95
-8.72
-0.38
16.95
37.67
54.74
62.42
58.42
44.53
25.45
6.72
-7.43
-15.12
-16.79
-14.22
-9.44
-4.06
0.91
4.90
7.45
8.27
7.27
4.82
1.73
-0.97
-2.49
-2.64
-1.95
-1.46
-2.16
-4.39
-7.51
-10.11
-10.71
-8.71
-5.09
-2.16
-2.65
-8.25
-18.51
-30.71
-40.96
-45.91
-44.21
-37.06
-27.55
-19.32
-15.07
-15.77
-20.56
-27.36
-33.72
-37.57
-37.77
-34.23
-27.78
-19.76
-11.51
-4.05
2.06
6.64
9.56
10.75
10.19
8.17
5.42
3.04
2.13
3.39
6.86
11.92
17.65
23.08
27.45
30.02
30.04
26.80
20.11
10.86
1.31
-5.31
-5.89
1.16
14.95
32.13
47.86
57.55
58.32
49.93
34.59
16.12
-1.42
-14.77
-22.28
-24.05
-21.53
-16.83
-11.98
-8.30
-6.29
-5.76
-6.27
-7.50
-9.33
-11.79
-14.75
-17.84
-20.50
-22.24
-22.95
-22.94
-22.88
-23.30
-24.35
-25.68
-26.85
-27.74
-28.87
-31.15
-35.17
-40.59
-45.98
-49.39
-49.46
-46.27
-41.44
-37.35
-35.95
-37.69
-41.34
-44.63
-45.39
-42.49
-36.17
-27.79
-19.13
-11.76
-6.61
-3.91
-3.24
-3.71
-4.22
-3.65
-1.16
3.60
10.34
18.21
26.10
32.95
38.10
41.51
43.67
45.40
47.46
50.19
53.25
55.66
56.17
53.94
49.11
43.16
38.47
37.44
41.29
49.21
58.40
64.97
65.44
58.10
43.64
24.82
5.34
-11.50
-23.72
-30.96
-34.08
-34.48
-33.47
-31.93
-30.34
-29.04
-28.33
-28.54
-29.82
-32.03
-34.62
-36.80
-37.79
-37.02
-34.37
-30.24
-25.53
-21.35
-18.71
-17.97
-18.58
-19.39
-19.23
-17.76
-15.75
-14.68
-15.71
-18.78
-22.43
-24.49
-23.42
-19.26
-13.63
-8.85
-6.59
-6.99
-8.80
-10.28
-10.26
-8.79
-6.90
-5.93
-6.78
-9.50
-13.36
-17.14
-19.56
-19.48
-16.22
-9.69
-0.61
9.55
18.80
25.18
27.33
25.02
19.21
11.73
4.69
-0.19
-1.87
-0.24
4.03
9.67
15.13
19.05
20.75
20.73
20.73
23.17
30.08
41.89
56.81
71.21
81.01
83.42
78.15
67.49
55.16
44.65
37.78
34.34
32.71
31.01
28.12
24.00
19.32
14.82
10.82
7.14
3.50
-0.06
-3.02
-4.53
-4.03
-1.63
1.69
4.52
5.62
4.56
1.89
-1.11
-3.07
-3.07
-0.99
2.50
6.11
8.26
7.45
2.76
-5.62
-16.07
-25.81
-31.84
-32.21
-26.98
-18.40
-9.96
-4.85
-4.62
-8.58
-14.38
-19.16
-20.84
-18.74
-13.60
-6.96
-0.44
4.78
8.32
10.53
12.19
14.14
16.81
20.01
23.14
25.51
26.87
27.59
28.56
30.71
34.47
39.58
45.08
49.77
52.46
52.32
48.82
41.90
32.13
21.03
11.03
4.88
4.55
9.95
18.46
25.62
26.88
19.65
4.62
-14.49
-32.56
-45.25
-50.71
-49.87
-45.53
-40.70
-37.28
-35.60
-34.86
-33.98
-32.29
-29.84
-27.06
-24.35
-21.78
-19.18
-16.30
-13.15
-10.04
-7.44
-5.76
-5.10
-5.20
-5.61
-6.02
-6.61
-8.14
-11.62
-17.57
-25.39
-33.22
-38.49
-39.08
-34.46
-26.06
-16.80
-9.81
-7.15
-9.16
-14.64
-21.62
-28.20
-33.07
-35.53
-35.33
-32.47
-27.27
-20.44
-13.09
-6.44
-1.58
1.00
1.48
0.74
-0.06
0.18
1.97
5.13
8.81
11.83
13.24
12.71
10.70
8.26
6.58
6.41
7.77
9.91
11.68
11.95
10.04
5.88
0.04
-6.24
-11.25
-13.01
-9.91
-1.44
11.25
25.39
37.37
44.18
44.56
39.57
31.99
25.09
21.23
21.15
24.05
28.31
32.31
34.93
35.72
34.69
32.19
28.81
25.32
22.51
20.94
20.73
21.43
22.25
22.36
21.19
18.59
14.81
10.33
5.62
1.03
-3.37
-7.85
-13.03
-19.67
-28.37
-38.97
-50.15
-59.54
-64.40
-62.81
-54.66
-42.00
-28.41
-17.73
-12.67
-14.09
-21.00
-31.23
-42.25
-51.83
-58.26
-60.48
-58.11
-51.49
-41.79
-30.78
-20.48
-12.57
-7.93
-6.34
-6.62
-7.05
-5.96
-2.42
3.45
10.42
16.72
20.69
21.53
19.59
16.18
12.98
11.36
11.93
14.44
17.92
20.91
21.81
19.18
12.30
1.80
-9.93
-19.11
-21.70
-15.20
-0.04
20.03
39.15
51.57
53.86
46.22
32.03
16.25
3.37
-4.06
-5.77
-3.05
2.26
8.72
15.52
22.29
28.64
33.90
37.21
37.83
35.61
31.21
25.85
20.94
17.55
16.04
16.04
16.72
17.09
16.41
14.23
10.38
4.70
-3.03
-12.97
-24.87
-37.64
-49.34
-57.65
-60.78
-58.43
-52.18
-45.06
-40.41
-40.50
-45.57
-53.75
-61.82
-66.49
-65.63
-58.94
-47.96
-35.33
-23.83
-15.32
-10.25
-7.69
-5.98
-3.60
0.09
4.70
9.17
12.48
14.23
14.83
15.23
16.40
18.90
22.71
27.34
31.88
35.23
36.21
33.96
28.46
20.97
14.01
10.73
13.67
23.42
38.09
53.58
65.08
68.68
62.83
48.73
29.81
10.40
-5.68
-16.10
-20.37
-19.60
-15.80
-11.05
-6.96
-4.37
-3.43
-3.87
-5.26
-7.18
-9.29
-11.30
-12.98
-14.24
-15.12
-15.84
-16.71
-18.03
-19.87
-22.08
-24.35
-26.51
-28.68
-31.35
-35.07
-39.95
-45.38
-50.13
-52.87
-52.92
-50.72
-47.74
-45.76
-46.02
-48.53
-52.06
-54.60
-54.19
-49.64
-40.92
-29.21
-16.49
-4.91
3.89
9.34
12.01
13.21
14.33
16.17
18.72
21.47
23.91
26.02
28.22
31.00
34.47
38.12
41.15
42.95
43.40
42.80
41.45
39.34
36.19
31.85
26.81
22.31
19.77
20.03
22.68
26.22
28.75
29.02
26.90
23.21
18.95
14.54
9.74
4.05
-2.53
-9.20
-14.63
-17.68
-18.13
-16.75
-14.88
-13.73
-13.78
-14.78
-16.05
-16.98
-17.35
-17.32
-17.30
-17.67
-18.65
-20.13
-21.61
-22.32
-21.50
-18.84
-14.88
-11.01
-8.85
-9.52
-12.85
-17.41
-21.04
-21.85
-18.92
-12.46
-3.59
6.27
15.69
23.51
28.94
31.84
32.70
32.61
32.72
33.67
35.28
36.67
36.93
35.62
33.00
29.72
26.23
22.51
18.24
13.26
7.97
3.31
0.29
-0.51
0.73
3.28
6.20
8.74
10.47
11.15
10.61
8.90
6.40
4.02
3.02
4.58
9.22
16.45
24.91
33.03
39.61
44.28
47.22
48.74
48.77
46.74
41.93
34.00
23.41
11.38
-0.51
-10.87
-18.94
-24.69
-28.58
-31.16
-32.75
-33.36
-32.87
-31.26
-28.78
-25.93
-23.17
-20.63
-18.06
-15.07
-11.55
-8.11
-6.08
-7.03
-11.98
-20.65
-31.34
-41.30
-47.74
-48.91
-44.71
-36.72
-27.49
-19.64
-15.00
-14.24
-16.86
-21.59
-26.91
-31.33
-33.73
-33.55
-30.81
-26.16
-20.65
-15.43
-11.36
-8.74
-7.29
-6.37
-5.30
-3.66
-1.44
1.10
3.59
5.77
7.56
9.08
10.58
12.30
14.36
16.56
18.33
18.84
17.32
13.56
8.17
2.60
-1.30
-2.00
1.11
7.42
15.30
22.56
27.09
27.42
23.07
14.71
4.06
-6.53
-14.78
-19.25
-19.86
-17.93
-15.58
-14.83
-16.80
-21.32
-27.21
-32.92
-37.29
-39.94
-41.31
-42.29
-43.87
-46.83
-51.70
-58.69
-67.54
-77.25
-85.78
-90.28
-88.05
-77.86
-61.00
-41.13
-22.72
-8.98
-0.34
5.56
12.37
22.87
37.52
54.41
70.50
83.35
92.25
98.21
102.96
107.75
112.53
116.12
116.91
113.77
106.55
96.12
83.83
70.99
58.50
46.96
37.01
29.50
25.40
25.32
28.93
34.91
41.29
46.16
48.40
47.97
45.70
42.87
40.62
39.53
39.57
40.24
40.99
41.64
42.51
44.29
47.71
53.10
60.27
68.53
76.77
83.62
87.61
87.42
82.39
73.05
61.28
49.96
41.88
38.62
39.79
43.12
45.44
43.89
36.93
24.58
8.09
-10.57
-29.27
-45.97
-58.91
-66.80
-69.21
-66.80
-61.28
-54.93
-49.86
-47.23
-46.87
-47.44
-47.09
-44.28
-38.54
-30.64
-22.37
-15.80
-12.49
-12.88
-16.10
-20.22
-22.99
-22.64
-18.43
-10.84
-1.34
8.11
15.50
19.11
17.70
10.79
-0.95
-15.52
-29.81
-40.43
-45.02
-43.38
-37.81
-32.30
-30.98
-36.32
-48.25
-64.26
-80.64
-93.96
-102.16
-104.89
-103.03
-97.92
-90.90
-83.27
-76.60
-72.65
-72.94
-77.77
-85.59
-93.09
-96.43
-92.89
-82.29
-67.12
-51.55
-39.52
-33.26
-32.71
-36.03
-40.69
-44.52
-46.13
-44.94
-40.94
-34.64
-26.90
-18.86
-11.62
-5.95
-2.02
0.54
2.37
4.13
6.32
9.33
13.51
19.18
26.46
35.02
44.00
52.22
58.57
62.48
64.06
63.89
62.69
60.93
58.70
55.92
52.52
48.67
44.74
41.17
38.29
36.23
34.96
34.28
33.91
33.45
32.51
30.75
28.09
24.80
21.43
18.73
17.33
17.58
19.42
22.43
25.92
29.07
31.05
31.21
29.29
25.55
20.77
15.98
12.17
9.85
8.93
8.77
8.46
7.21
4.52
0.37
-4.95
-10.87
-16.67
-21.59
-24.98
-26.49
-26.15
-24.45
-22.13
-19.96
-18.53
-18.12
-18.69
-19.98
-21.59
-23.14
-24.22
-24.56
-24.07
-23.00
-21.99
-21.98
-23.86
-27.95
-33.71
-39.63
-43.75
-44.42
-41.08
-34.69
-27.41
-21.70
-19.29
-20.44
-23.86
-27.38
-28.88
-27.21
-22.42
-15.68
-8.68
-3.14
-0.29
-0.43
-2.61
-4.51
-2.90
5.06
20.34
40.89
61.95
77.69
83.46
77.60
61.77
39.87
16.28
-5.42
-22.81
-34.40
-39.30
-37.58
-30.66
-21.12
-11.74
-3.87
3.68
14.39
32.24
59.16
93.16
128.07
155.23
166.40
156.84
127.15
83.04
33.27
-13.47
-51.35
-78.67
-97.30
-110.79
-122.30
-133.19
-142.97
-150.45
-155.29
-158.78
-163.18
-170.32
-179.84
-188.29
-190.05
-179.70
-154.03
-113.37
-61.36
-3.75
52.72
100.93
133.45
143.34
126.08
82.33
19.56
-48.84
-107.36
-143.50
-151.51
-132.67
-92.65
-37.83
26.92
97.52
168.36
230.66
273.56
287.91
270.60
226.71
168.13
108.80
59.44
24.41
1.90
-13.32
-26.20
-39.25
-52.12
-62.73
-68.62
-67.84
-59.35
-43.17
-20.71
5.35
31.34
53.32
68.14
74.05
70.84
59.62
42.27
21.34
-0.03
-18.19
-29.56
-31.57
-23.56
-7.26
13.68
34.91
52.82
65.72
74.02
79.70
85.14
92.03
100.92
111.39
122.75
134.67
147.49
161.85
178.15
195.81
213.13
227.61
236.87
239.33
235.11
226.01
214.95
204.85
197.68
193.80
191.86
189.33
183.06
170.24
149.10
119.45
82.89
42.47
1.96
-35.11
-66.48
-92.04
-113.32
-132.42
-150.62
-167.54
-181.18
-188.95
-189.04
-181.53
-169.23
-155.84
-144.35
-135.85
-129.65
-124.48
-119.87
-116.80
-117.21
-124.71
-141.46
-167.11
-198.82
-232.45
-264.37
-292.67
-317.30
-339.26
-362.34
-389.01
-419.27
-450.37
-478.01
-498.45
-510.05
-513.27
-509.80
-505.16
-504.03
-509.07
-520.22
-535.06
-550.02
-561.58
-566.89
-541.09
-469.00
-348.29
-192.93
-27.32
125.80
253.80
354.36
430.98
488.41
526.61
545.15
545.41
531.85
511.17
489.78
471.24
456.41
444.43
431.15
413.34
390.02
362.49
333.43
305.33
278.86
253.29
227.46
198.94
166.45
130.52
92.86
55.85
23.45
-3.77
-26.53
-45.90
-63.60
-80.45
-95.85
-108.28
-115.56
-115.83
-108.82
-95.66
-78.58
-60.34
-44.41
-29.92
-15.73
-1.04
13.83
26.99
36.08
39.45
37.08
30.70
23.22
16.91
12.85
10.73
8.80
4.46
-5.14
-22.67
-49.03
-81.96
-116.00
-142.94
-154.25
-144.58
-114.64
-71.83
-27.86
5.85
22.62
22.43
11.18
-3.01
-12.50
-12.64
-2.66
15.35
38.03
61.85
83.27
98.83
105.58
102.11
89.27
70.50
50.79
34.88
25.60
23.06
25.37
29.54
32.75
32.77
28.22
18.76
5.17
-10.79
-26.84
-41.00
-52.18
-60.45
-66.88
-72.95
-79.84
-88.01
-97.00
-105.53
-111.88
-114.34
-111.88
-104.74
-94.71
-84.94
-79.24
-81.03
-92.20
-112.30
-138.23
-164.93
-186.64
-198.70
-199.00
-188.54
-170.95
-150.92
-132.52
-117.95
-107.11
-98.35
-89.42
-78.54
-64.97
-48.97
-31.54
-13.93
2.65
17.18
29.09
38.38
45.72
52.40
60.14
70.60
85.14
104.55
128.90
157.38
188.07
217.95
243.19
259.94
265.51
259.35
243.44
221.61
198.08
176.06
156.94
140.52
125.84
112.15
99.32
87.70
77.58
68.90
61.22
54.07
47.32
41.28
36.62
33.88
33.11
33.75
34.88
35.50
34.90
32.86
29.56
25.43
20.86
16.19
11.55
7.02
2.63
-1.50
-5.22
-8.32
-10.72
-12.42
-13.46
-13.75
-13.06
-11.15
-7.91
-3.59
1.25
5.89
9.82
12.97
15.73
18.86
23.18
29.43
38.14
49.50
63.34
78.95
95.02
109.84
121.81
129.94
134.15
135.11
133.78
130.77
126.01
118.90
108.80
95.70
80.48
64.64
49.69
36.37
24.41
12.85
0.62
-12.83
-27.23
-41.67
-55.00
-66.21
-74.62
-79.88
-81.86
-80.66
-76.67
-70.66
-63.71
-56.94
-51.13
-46.59
-42.99
-39.68
-35.79
-30.63
-23.96
-16.11
-7.87
-0.10
6.77
13.03
19.57
27.43
37.02
47.74
57.95
65.56
68.79
66.83
60.20
50.56
40.27
31.83
27.21
27.33
31.74
38.40
44.06
45.02
38.51
23.93
3.54
-17.97
-34.95
-42.75
-39.33
-25.69
-5.15
18.38
42.13
65.49
89.95
117.97
151.33
189.79
230.52
268.47
297.87
314.04
315.00
302.09
279.27
251.42
222.54
194.78
168.45
143.06
118.35
94.78
73.07
53.56
35.44
16.78
-4.88
-31.76
-65.37
-106.20
-153.63
-205.60
-258.48
-307.32
-346.74
-372.43
-382.43
-377.55
-360.60
-334.94
-303.00
-265.65
-222.74
-174.30
-121.48
-66.94
-14.35
32.43
70.00
95.55
107.04
103.46
85.68
56.94
22.61
-10.80
-37.46
-53.74
-58.77
