1660323941.00
64.000000
-0.00
-0.00
-0.00
-0.00
-0.00
-0.00
-0.00
-0.00
-0.00
-0.00
0.00
0.01
0.01
-0.00
-0.03
-0.05
-0.05
0.00
0.13
0.36
0.66
1.01
1.37
1.72
2.06
2.40
2.79
3.24
3.80
4.42
5.06
5.67
6.20
6.69
7.15
7.68
8.31
9.14
10.08
11.04
11.91
12.62
13.20
13.79
14.59
15.74
17.48
19.67
22.07
24.42
26.54
28.49
30.54
33.08
36.43
40.96
46.38
52.21
57.89
63.04
67.67
72.18
77.18
83.19
90.78
99.56
108.86
117.84
125.89
132.88
139.23
146.09
152.10
159.68
169.67
182.50
197.13
210.57
218.16
214.82
196.80
163.12
116.42
61.09
2.03
-57.19
-115.10
-171.99
-228.71
-285.60
-341.97
-395.98
-445.92
-490.28
-527.95
-558.09
-579.77
-591.95
-593.66
-584.54
-564.91
-536.01
-498.98
-454.13
-400.66
-337.32
-263.72
-181.56
-95.10
-10.13
67.44
133.41
186.09
226.00
254.80
274.24
285.66
290.10
288.75
283.05
274.62
264.79
254.25
243.00
230.62
216.71
201.32
185.09
169.01
154.06
140.77
129.04
118.24
107.65
96.78
85.72
74.94
65.10
56.70
49.84
44.14
39.00
33.81
28.27
22.45
16.82
11.85
7.85
4.88
2.75
1.09
-0.43
-1.98
-3.58
-5.11
-6.46
-7.54
-8.34
-8.90
-9.24
-9.39
-9.35
-9.14
-8.75
-8.26
-7.75
-7.36
-7.16
-7.17
-7.28
-7.32
-7.15
-6.74
-6.22
-5.76
-5.48
-5.37
-5.32
-5.17
-4.82
-4.25
-3.52
-2.70
-1.82
-0.94
-0.15
0.41
0.61
0.42
-0.08
-0.71
-1.32
-1.84
-2.29
-2.70
-3.03
-3.21
-3.14
-2.87
-2.52
-2.29
-2.28
-2.45
-2.61
-2.60
-2.34
-1.88
-1.37
-0.91
-0.58
-0.38
-0.30
-0.34
-0.45
-0.55
-0.53
-0.27
0.24
0.91
1.59
2.08
2.26
2.18
1.93
1.68
1.57
1.70
2.14
2.88
3.86
4.91
5.83
6.41
6.52
6.14
5.33
4.21
2.88
1.48
0.09
-1.21
-2.30
-3.11
-3.66
-4.02
-4.33
-4.68
-5.09
-5.51
-5.83
-5.95
-5.85
-5.56
-5.20
-4.87
-4.68
-4.63
-4.67
-4.64
-4.39
-3.86
-3.08
-2.26
-1.65
-1.47
-1.79
-2.48
-3.26
-3.77
-3.76
-3.11
-1.92
-0.45
0.94
1.92
2.28
2.02
1.29
0.35
-0.58
-1.32
-1.85
-2.16
-2.27
-2.19
-1.87
-1.36
-0.72
-0.11
0.35
0.60
0.71
0.80
1.02
1.42
1.93
2.43
2.72
2.66
2.23
1.50
0.60
-0.37
-1.34
-2.27
-3.15
-4.03
-4.90
-5.74
-6.48
-7.01
-7.19
-6.82
-5.74
-3.87
-1.27
1.79
4.91
7.62
9.60
10.70
11.03
10.81
10.27
9.52
8.55
7.32
5.79
4.03
2.26
0.68
-0.52
-1.29
-1.69
-1.85
-1.91
-1.98
-2.06
-2.15
-2.18
-2.10
-1.89
-1.55
-1.10
-0.55
0.07
0.74
1.38
1.90
2.22
2.24
1.93
1.31
0.47
-0.39
-1.07
-1.38
-1.29
-0.91
-0.48
-0.21
-0.20
-0.36
-0.48
-0.38
-0.01
0.51
1.01
1.33
1.43
1.34
1.11
0.75
0.25
-0.39
-1.09
-1.70
-2.08
-2.13
-1.91
-1.57
-1.30
-1.22
-1.37
-1.65
-1.91
-2.03
-1.95
-1.71
-1.46
-1.38
-1.61
-2.20
-3.04
-3.94
-4.63
-4.89
-4.62
-3.89
-2.92
-1.99
-1.31
-0.96
-0.91
-1.00
-1.11
-1.18
-1.23
-1.32
-1.46
-1.62
-1.68
-1.59
-1.32
-0.98
-0.72
-0.61
-0.66
-0.78
-0.83
-0.76
-0.60
-0.42
-0.30
-0.23
-0.14
0.00
0.20
0.35
0.33
0.03
-0.52
-1.24
-2.01
-2.71
-3.30
-3.73
-3.96
-3.91
-3.49
-2.66
-1.46
-0.11
1.16
2.10
2.57
2.57
2.23
1.72
1.23
0.91
0.83
1.01
1.42
1.98
2.53
2.96
3.13
3.03
2.74
2.42
2.20
2.16
2.24
2.37
2.44
2.45
2.46
2.56
2.78
3.09
3.36
3.46
3.35
3.05
2.65
2.20
1.78
1.42
1.23
1.33
1.80
2.59
3.47
4.12
4.26
3.81
2.92
1.89
0.98
0.33
-0.10
-0.42
-0.68
-0.81
-0.69
-0.20
0.65
1.73
2.80
3.64
4.12
4.23
4.04
3.66
3.19
2.66
2.09
1.47
0.80
0.11
-0.53
-1.09
-1.58
-2.07
-2.70
-3.54
-4.58
-5.71
-6.66
-7.12
-6.86
-5.80
-4.08
-2.04
-0.07
1.47
2.42
2.81
2.81
2.59
2.24
1.80
1.24
0.58
-0.12
-0.75
-1.23
-1.49
-1.54
-1.42
-1.17
-0.86
-0.55
-0.25
0.02
0.28
0.54
0.77
0.89
0.82
0.53
0.05
-0.49
-0.96
-1.27
-1.41
-1.50
-1.64
-1.93
-2.34
-2.78
-3.12
-3.23
-3.11
-2.76
-2.28
-1.75
-1.24
-0.83
-0.54
-0.47
-0.65
-1.14
-1.89
-2.81
-3.73
-4.51
-5.05
-5.33
-5.38
-5.27
-5.05
-4.71
-4.24
-3.56
-2.69
-1.72
-0.86
-0.34
-0.33
-0.83
-1.67
-2.56
-3.19
-3.40
-3.20
-2.79
-2.45
-2.39
-2.70
-3.34
-4.20
-5.15
-6.05
-6.79
-7.23
-7.27
-6.86
-6.06
-5.06
-4.13
-3.48
-3.13
-2.89
-2.43
-1.40
0.34
2.65
5.14
7.35
8.97
9.89
10.26
10.39
10.55
10.88
11.35
11.77
11.90
11.51
10.52
8.93
6.95
4.86
2.94
1.44
0.48
0.08
0.14
0.53
1.07
1.56
1.87
1.93
1.79
1.63
1.69
2.15
3.08
4.36
5.70
6.73
7.16
6.89
6.01
4.76
3.43
2.21
1.18
0.29
-0.52
-1.27
-1.89
-2.30
-2.43
-2.30
-1.97
-1.52
-0.99
-0.37
0.31
1.01
1.63
2.07
2.31
2.40
2.45
2.57
2.77
2.95
2.96
2.63
1.81
0.48
-1.28
-3.26
-5.22
-6.85
-7.88
-8.12
-7.52
-6.22
-4.50
-2.71
-1.19
-0.09
0.61
1.09
1.63
2.41
3.42
4.47
5.25
5.50
5.09
4.13
2.86
1.54
0.38
-0.55
-1.29
-1.91
-2.49
-3.05
-3.65
-4.31
-5.06
-5.89
-6.65
-7.12
-7.04
-6.24
-4.71
-2.63
-0.38
1.59
2.88
3.35
3.11
2.52
1.95
1.59
1.31
0.76
-0.40
-2.26
-4.58
-6.94
-8.98
-10.53
-11.60
-12.23
-12.33
-11.70
-10.15
-7.73
-4.80
-1.90
0.59
2.59
4.31
6.10
8.19
10.54
12.94
15.14
16.94
18.20
18.70
18.04
15.85
12.00
6.98
1.88
-1.86
-3.12
-1.59
2.01
6.25
9.46
10.37
8.49
4.17
-1.58
-7.50
-12.50
-15.89
-17.47
-17.41
-15.95
-13.21
-9.14
-3.67
3.05
10.45
17.65
23.58
27.21
27.64
24.29
17.05
6.74
-4.75
-14.65
-20.12
-19.34
-12.37
-1.34
10.28
18.89
22.00
19.03
11.22
1.00
-8.80
-15.81
-18.65
-17.20
-12.43
-6.09
-0.19
3.65
4.52
2.48
-1.62
-6.39
-10.37
-12.39
-11.86
-8.90
-4.27
0.90
5.42
8.38
9.41
8.66
6.67
4.11
1.60
-0.48
-1.92
-2.71
-2.98
-2.96
-2.95
-3.22
-3.90
-4.94
-6.12
-7.09
-7.59
-7.59
-7.27
-6.97
-6.99
-7.45
-8.27
-9.24
-10.15
-10.93
-11.57
-12.09
-12.44
-12.51
-12.19
-11.42
-10.24
-8.77
-7.20
-5.72
-4.48
-3.61
-3.18
-3.19
-3.51
-4.01
-4.51
-4.95
-5.28
-5.47
-5.47
-5.24
-4.79
-4.19
-3.55
-2.93
-2.31
-1.52
-0.46
0.92
2.47
3.97
5.14
5.79
5.88
5.49
4.76
3.90
3.08
2.37
1.77
1.19
0.57
-0.01
-0.33
-0.10
0.83
2.31
3.84
4.75
4.51
3.02
0.70
-1.63
-3.18
-3.51
-2.86
-2.05
-2.23
-4.32
-8.56
-14.32
-20.27
-24.93
-27.30
-27.40
-26.32
-25.79
-27.40
-31.79
-38.27
-45.06
-50.07
-51.85
-50.37
-46.94
-43.89
-43.68
-48.14
-57.97
-72.18
-87.71
-99.45
-101.08
-87.12
-55.53
-9.61
41.97
87.69
117.31
125.57
113.86
88.96
59.88
34.36
16.82
8.13
6.78
10.34
16.38
22.86
28.20
31.27
31.32
27.92
20.89
10.32
-3.06
-17.68
-31.20
-41.11
-45.75
-44.99
-40.21
-33.34
-25.76
-17.59
-7.89
4.37
19.13
34.96
49.46
60.42
66.76
68.91
68.33
66.68
65.04
63.63
62.05
59.86
56.96
53.75
50.82
48.68
47.44
46.82
46.26
45.31
43.75
41.55
38.78
35.49
31.68
27.47
23.12
19.08
15.73
13.17
11.09
8.82
5.79
1.82
-2.63
-6.59
-9.03
-9.29
-7.44
-4.23
-0.77
1.93
3.34
3.53
2.98
2.27
1.90
2.20
3.36
5.51
8.63
12.50
16.64
20.48
23.48
25.38
26.19
26.14
25.47
24.35
22.91
21.24
19.51
17.87
16.41
15.10
13.80
12.42
10.96
9.53
8.26
7.26
6.47
5.75
4.90
3.74
2.23
0.48
-1.29
-2.84
-4.03
-4.86
-5.49
-6.08
-6.69
-7.21
-7.40
-7.04
-6.05
-4.58
-2.93
-1.45
-0.46
-0.09
-0.34
-1.03
-1.92
-2.76
-3.37
-3.66
-3.63
-3.30
-2.74
-2.01
-1.19
-0.45
0.06
0.32
0.44
0.57
0.83
1.22
1.61
1.83
1.69
1.19
0.49
-0.14
-0.45
-0.36
0.04
0.54
0.83
0.50
-0.66
-2.52
-4.69
-6.68
-8.17
-9.00
-9.22
-9.00
-8.90
-9.33
-10.23
-11.28
-12.20
-13.03
-13.89
-15.07
-16.73
-19.79
-24.71
-31.06
-37.67
-43.38
-47.58
-50.09
-51.51
-52.63
-55.61
-61.69
-70.42
-79.99
-88.32
-94.24
-97.30
-98.30
-98.47
-100.75
-106.86
-116.40
-127.35
-137.50
-145.62
-151.13
-154.63
-144.27
-113.92
-67.05
-15.31
30.00
63.86
83.51
93.30
95.80
91.70
79.65
59.57
36.00
14.70
0.99
-2.26
5.47
25.35
53.25
79.41
94.02
91.92
73.57
43.77
9.54
-22.76
-47.92
-62.32
-65.25
-58.13
-43.91
-26.49
-9.59
5.25
16.31
23.15
26.09
25.57
22.40
17.76
13.06
9.78
8.79
9.80
11.61
12.18
9.68
3.43
-5.48
-14.81
-22.07
-25.63
-25.38
-22.24
-17.94
-14.02
-11.29
-9.67
-8.64
-7.63
-6.44
-5.33
-4.56
-4.24
-4.23
-4.05
-3.13
-1.15
1.78
5.06
7.93
9.87
10.86
11.32
11.77
12.56
13.60
14.51
14.89
14.68
14.20
13.91
14.04
14.40
14.46
13.72
12.05
9.86
7.82
6.44
5.80
5.47
4.85
3.48
1.30
-1.29
-3.64
-5.11
-5.28
-4.10
-1.94
0.54
2.61
3.78
3.97
3.44
2.70
2.33
2.74
4.07
6.28
9.22
12.89
17.52
23.29
30.29
38.41
47.23
56.07
64.20
71.11
76.88
82.30
88.27
95.59
104.51
114.44
123.87
130.76
133.33
130.83
124.24
115.62
108.13
105.68
111.49
126.59
148.90
173.75
195.25
208.55
209.44
195.51
166.41
123.13
68.21
6.34
-55.07
-106.74
-139.78
-151.48
-145.38
-128.96
-111.10
-98.88
-96.47
-105.07
-123.94
-150.62
-184.83
-226.24
-272.69
-316.36
-346.29
-357.30
-354.90
-357.99
-369.48
-385.48
-399.75
-399.85
-379.42
-338.63
-283.78
-223.88
-166.30
-113.36
-65.72
-22.57
17.43
54.27
87.21
115.85
141.84
169.05
202.23
241.59
282.60
318.08
340.91
347.18
337.84
318.71
298.60
286.00
284.10
290.23
297.65
298.47
284.75
250.63
195.04
123.60
48.69
-14.28
-51.28
-54.49
-24.03
28.96
86.08
129.14
147.31
140.47
117.27
90.37
71.35
69.16
84.36
110.60
138.57
159.88
169.44
165.14
146.87
100.57
27.08
-59.19
-139.07
-200.45
-240.15
-259.18
-260.48
-248.87
-230.97
-211.58
-196.84
-193.40
-201.54
-217.70
-235.12
-246.38
-245.75
-230.66
-194.59
-143.36
-88.45
-41.20
-8.00
12.01
24.36
34.92
46.50
58.89
67.57
68.64
62.90
53.37
46.50
48.86
63.72
89.27
119.31
143.27
150.66
133.86
91.10
28.82
-39.69
-97.83
-131.24
-132.81
-105.93
-58.48
-6.01
33.81
49.07
37.97
9.21
-22.47
-42.51
-41.87
-18.70
21.44
68.47
111.91
143.15
156.98
151.44
127.17
86.66
31.52
-28.81
-81.65
-118.40
-137.39
-140.71
-131.81
-115.36
-97.07
-82.46
-76.05
-81.89
-97.26
-117.41
-137.37
-153.16
-162.54
-164.49
-151.27
-122.52
-82.66
-38.46
3.50
38.91
66.52
86.80
100.44
107.76
107.75
100.42
88.11
77.23
72.91
78.89
95.45
119.13
143.78
161.08
163.62
147.79
116.63
79.46
49.30
37.32
47.70
75.17
105.99
124.37
116.65
79.44
20.53
-43.87
-95.77
-121.85
-117.37
-87.53
-44.57
-3.46
24.44
32.80
20.89
-7.88
-47.98
-90.34
-123.25
-139.31
-140.63
-132.96
-121.06
-106.69
-90.52
-73.85
-58.85
-48.01
-43.09
-47.38
-57.71
-70.26
-82.46
-94.13
-106.93
-122.44
-140.81
-152.28
-150.83
-131.91
-95.66
-47.65
2.80
46.35
77.37
95.00
102.86
104.06
101.51
96.37
89.15
80.93
73.79
71.54
74.94
83.86
94.63
103.30
106.69
104.29
98.20
91.92
89.39
93.25
105.88
125.75
148.79
169.09
180.53
178.37
160.36
128.20
79.00
21.72
-31.29
-70.65
-94.07
-105.16
-109.25
-110.21
-108.37
-102.93
-92.48
-79.07
-67.01
-60.45
-60.99
-67.08
-77.03
-86.08
-91.40
-91.85
-89.51
-88.15
-91.25
-100.71
-113.11
-127.81
-142.26
-152.37
-152.35
-137.82
-107.90
-66.30
-20.51
20.76
50.53
66.85
72.39
72.48
71.52
71.39
71.60
70.96
68.67
64.15
57.56
48.92
38.61
27.70
18.34
12.79
12.61
17.34
24.46
31.23
35.95
38.62
40.27
42.41
44.70
46.19
45.90
43.52
40.08
36.64
35.21
36.36
39.52
42.97
45.14
45.16
43.32
41.09
40.29
42.01
46.07
49.73
49.76
44.09
32.74
17.76
2.04
-12.09
-23.95
-34.32
-43.91
-51.95
-56.02
-53.75
-44.65
-32.45
-23.13
-22.11
-31.34
-48.16
-66.84
-81.94
-91.22
-96.11
-99.51
-102.16
-101.21
-91.60
-69.37
-34.94
6.09
45.49
76.57
96.31
105.75
107.71
104.02
94.18
76.74
51.83
22.86
-4.05
-22.88
-30.37
-27.50
-18.38
-7.83
0.69
6.14
9.22
10.92
11.55
10.75
8.07
3.65
-1.67
-6.75
-10.36
-11.72
-10.81
-8.21
-4.92
-1.96
-0.04
0.55
-0.28
-2.35
-5.07
-7.23
-7.02
-2.39
8.00
23.75
42.16
58.52
67.77
66.51
54.32
33.89
9.79
-13.55
-32.80
-45.67
-51.91
-52.70
-49.45
-43.06
-33.90
-22.47
-10.10
1.02
8.20
9.34
4.34
-4.34
-12.47
-15.94
-12.71
-3.58
8.22
18.41
23.28
21.01
12.35
0.08
-12.55
-23.03
-30.13
-33.59
-33.76
-31.20
-26.68
-20.74
-13.76
-5.92
3.10
14.66
30.87
53.22
80.62
106.13
119.51
113.54
88.64
51.69
12.03
-22.57
-48.06
-66.42
-80.36
-90.65
-96.51
-96.78
-91.80
-83.81
-76.69
-75.05
-77.52
-83.32
-90.10
-94.33
-92.37
-81.93
-62.54
-35.73
-4.54
27.20
55.47
77.26
90.75
95.71
93.23
85.91
76.90
69.68
64.64
60.88
57.35
53.36
49.36
46.36
45.65
47.67
51.66
56.15
59.38
59.93
56.65
49.30
36.09
17.22
-5.25
-28.10
-48.31
-64.13
-75.46
-83.50
-88.71
-91.34
-90.61
-85.94
-77.85
-68.34
-60.51
-57.74
-64.25
-79.09
-98.87
-117.24
-126.48
-120.20
-95.98
-56.81
-8.56
35.65
66.19
79.98
81.21
77.73
76.27
79.54
86.21
92.99
96.53
95.25
89.54
78.99
63.45
44.30
25.67
13.54
13.15
25.42
45.83
65.45
75.22
68.72
44.64
6.62
-38.86
-85.08
-124.12
-148.77
-159.17
-153.07
-129.36
-89.83
-39.67
13.03
58.65
88.97
97.51
83.72
54.73
22.08
-1.40
-6.13
11.09
46.26
86.51
116.57
128.02
122.47
106.82
89.35
76.11
70.08
70.89
75.33
78.92
77.73
69.71
53.85
32.56
6.85
-21.35
-49.93
-77.12
-100.87
-118.76
-128.70
-131.16
-128.48
-125.11
-126.23
-136.56
-158.54
-190.83
-228.41
-257.97
-268.51
-252.98
-210.96
-147.86
-72.82
4.71
77.95
143.53
200.30
246.29
278.96
295.50
294.95
279.04
251.55
216.96
178.84
139.64
100.00
60.85
23.77
-8.56
-33.40
-49.66
-57.94
-60.29
-58.59
-55.12
-51.07
-47.63
-45.71
-46.15
-50.28
-58.67
-71.08
-85.96
-102.46
-115.93
-123.38
-124.34
-121.04
-117.93
-118.86
-130.28
-150.36
-174.11
-194.14
-203.56
-197.80
-170.07
-121.18
-56.96
13.26
79.71
133.38
168.85
185.50
188.18
185.70
186.58
196.43
215.31
238.47
258.11
267.84
265.17
251.87
231.72
207.12
178.90
147.11
113.25
80.57
53.38
34.62
24.42
19.82
15.69
7.85
-5.42
-22.85
-41.71
-59.24
-73.75
-84.67
-92.17
-96.95
-99.93
-102.57
-106.61
-113.72
-124.68
-138.92
-154.77
-169.88
-181.67
-187.17
-183.06
-166.17
-134.84
-90.58
-38.89
11.38
51.03
74.49
82.61
82.32
83.21
92.71
112.42
137.90
161.21
174.94
175.10
161.63
137.05
104.53
67.13
27.86
-9.53
-40.74
-62.03
-71.88
-71.92
-66.38
-60.47
-58.35
-62.49
-73.17
-89.04
-107.63
-126.14
-142.10
-153.98
-161.89
-167.41
-173.90
-184.46
-200.68
-221.70
-244.20
-263.30
-273.84
-271.65
-253.88
-221.60
-178.03
-128.40
-78.55
-33.33
5.05
38.03
69.82
106.06
147.42
189.88
224.37
240.26
230.21
194.05
140.13
82.97
39.38
18.85
23.89
49.94
89.42
135.40
