1660329078.00
64.000000
-0.00
-0.00
-0.00
-0.00
-0.00
-0.00
-0.00
-0.00
-0.00
-0.00
0.00
0.01
0.01
-0.00
-0.03
-0.05
-0.05
0.00
0.13
0.36
0.66
1.01
1.37
1.72
2.06
2.40
2.79
3.24
3.80
4.42
5.06
5.66
6.20
6.68
7.15
7.68
8.31
9.14
10.09
11.04
11.88
12.56
13.14
13.76
14.65
15.96
17.91
20.32
22.90
25.38
27.58
29.57
31.68
34.32
37.81
42.54
48.15
54.10
59.83
64.97
69.58
74.14
79.34
85.71
93.76
103.00
112.62
121.73
129.77
136.75
143.30
150.75
157.77
166.64
177.95
191.79
206.97
220.57
228.25
225.36
208.53
176.87
132.76
80.05
23.07
-34.94
-92.44
-149.16
-205.23
-260.37
-313.74
-363.87
-409.83
-450.91
-486.50
-515.74
-537.23
-549.22
-549.96
-538.37
-514.21
-478.67
-433.88
-382.45
-327.02
-269.84
-212.63
-156.66
-102.95
-52.37
-5.90
35.58
71.43
101.35
125.50
144.38
158.69
169.15
176.37
180.75
182.57
182.07
179.51
175.23
169.65
163.18
156.15
148.81
141.30
133.69
126.02
118.33
110.69
103.16
95.80
88.68
81.83
75.25
68.95
62.95
57.25
51.86
46.78
42.03
37.59
33.45
29.61
26.07
22.81
19.83
17.11
14.67
12.48
10.54
8.83
7.35
6.07
4.97
4.05
3.27
2.62
2.09
1.65
1.30
1.01
0.79
0.61
0.48
0.37
0.28
0.22
0.17
0.14
0.11
0.09
0.08
0.08
0.08
0.08
0.09
0.11
0.13
0.16
0.19
0.23
0.27
0.31
0.35
0.40
0.44
0.49
0.54
0.59
0.64
0.70
0.76
0.83
0.90
0.98
1.06
1.15
1.25
1.37
1.50
1.66
1.85
2.05
2.24
2.41
2.54
2.68
2.86
3.14
3.52
4.02
4.57
5.12
5.62
6.06
6.49
6.97
7.57
8.34
9.24
10.22
11.15
11.97
12.66
13.30
14.03
15.01
16.31
17.89
19.54
20.94
21.84
22.12
21.85
21.28
20.68
20.13
19.46
18.19
15.74
11.73
6.19
-0.28
-6.73
-12.16
-15.98
-18.19
-19.49
-20.84
-23.05
-26.26
-29.83
-32.63
-33.52
-32.08
-28.68
-24.51
-20.94
-18.95
-18.82
-20.25
-22.76
-25.49
-26.89
-24.57
-16.02
0.00
22.10
45.88
65.44
75.67
74.99
66.03
54.20
44.86
40.79
41.50
44.30
46.63
47.19
46.65
46.56
47.80
50.00
51.83
51.97
49.91
46.52
43.01
41.01
41.64
45.08
50.47
56.36
61.30
64.46
66.00
66.13
65.72
65.48
65.57
65.38
63.53
58.12
46.71
31.83
13.93
-6.66
-29.39
-52.95
-74.96
-92.06
-100.88
-99.19
-86.92
-67.09
-44.01
-21.94
-3.85
9.07
17.15
21.41
22.84
22.19
19.46
14.92
9.13
2.76
-3.74
-10.23
-16.92
-24.18
-32.10
-40.65
-49.24
-56.95
-62.91
-66.76
-68.69
-69.40
-69.62
-69.75
-69.86
-69.58
-68.38
-65.92
-62.23
-57.63
-52.61
-47.61
-42.88
-38.49
-34.31
-30.06
-25.35
-19.82
-13.25
-5.67
2.53
10.72
18.17
24.28
28.78
31.75
33.49
34.31
34.35
33.53
31.69
28.74
24.83
20.32
15.70
11.33
7.42
3.84
0.42
-2.98
-6.32
-9.35
-11.83
-13.62
-14.83
-15.75
-16.69
-17.84
-19.21
-20.67
-22.04
-23.21
-24.19
-25.03
-25.77
-26.42
-26.95
-27.34
-27.69
-28.11
-28.69
-29.36
-29.80
-29.53
-28.05
-25.12
-20.85
-15.73
-10.42
-5.49
-1.23
2.35
5.40
8.01
10.12
11.52
12.02
11.60
10.52
9.25
8.24
7.81
7.95
8.47
9.06
9.46
9.55
9.29
8.64
7.48
5.69
3.18
0.01
-3.56
-7.21
-10.53
-13.21
-15.07
-16.12
-16.53
-16.72
-17.19
-18.45
-20.78
-24.11
-27.95
-31.51
-33.93
-34.57
-33.23
-30.14
-25.88
-21.15
-16.52
-12.40
-8.98
-6.39
-4.65
-3.74
-3.54
-3.76
-4.03
-4.00
-3.50
-2.63
-1.66
-0.89
-0.52
-0.51
-0.67
-0.77
-0.63
-0.28
0.10
0.24
-0.10
-1.07
-2.63
-4.62
-6.77
-8.87
-10.71
-12.22
-13.36
-14.17
-14.73
-15.14
-15.51
-15.90
-16.28
-16.47
-16.20
-15.18
-13.25
-10.48
-7.16
-3.77
-0.73
1.68
3.44
4.65
5.51
6.12
6.48
6.56
6.35
5.91
5.36
4.84
4.44
4.22
4.16
4.25
4.44
4.72
5.05
5.39
5.67
5.82
5.74
5.31
4.47
3.20
1.61
-0.19
-2.06
-3.94
-5.84
-7.87
-10.12
-12.59
-15.13
-17.41
-19.04
-19.66
-19.05
-17.32
-14.75
-11.73
-8.59
-5.53
-2.63
0.13
2.66
4.76
6.20
6.81
6.55
5.69
4.59
3.59
2.94
2.66
2.61
2.61
2.55
2.41
2.21
2.02
1.77
1.37
0.63
-0.59
-2.31
-4.45
-6.81
-9.19
-11.42
-13.46
-15.42
-17.43
-19.57
-21.70
-23.44
-24.22
-23.57
-21.24
-17.40
-12.51
-7.16
-1.85
3.10
7.50
11.30
14.38
16.61
17.89
18.20
17.74
16.80
15.75
14.90
14.38
14.15
13.97
13.54
12.56
10.86
8.45
5.50
2.27
-0.97
-4.05
-6.89
-9.55
-12.18
-14.93
-17.98
-21.36
-25.04
-28.76
-32.08
-34.42
-35.18
-33.93
-30.63
-25.57
-19.40
-12.90
-6.75
-1.41
2.92
6.20
8.39
9.50
9.53
8.56
6.90
4.97
3.28
2.21
1.85
2.01
2.25
2.15
1.44
0.11
-1.65
-3.55
-5.36
-7.04
-8.63
-10.23
-11.95
-13.82
-15.85
-18.01
-20.30
-22.67
-24.91
-26.66
-27.32
-26.32
-23.24
-18.11
-11.37
-3.83
3.61
10.22
15.71
20.03
23.35
25.78
27.31
27.86
27.43
26.23
24.70
23.38
22.66
22.61
23.00
23.34
23.16
22.17
20.38
17.98
15.27
12.49
9.74
7.08
4.46
1.84
-0.77
-3.39
-5.99
-8.57
-11.22
-14.07
-17.25
-20.71
-24.06
-26.61
-27.52
-26.13
-22.30
-16.52
-9.72
-2.93
3.12
8.13
12.18
15.45
17.97
19.65
20.35
20.14
19.31
18.32
17.57
17.23
17.11
16.88
16.13
14.61
12.28
9.28
5.86
2.25
-1.30
-4.68
-7.81
-10.74
-13.56
-16.41
-19.42
-22.68
-26.21
-29.87
-33.35
-36.10
-37.44
-36.69
-33.45
-27.71
-19.96
-11.09
-2.10
6.09
12.84
17.84
21.08
22.70
22.98
22.21
20.74
18.91
17.06
15.51
14.47
13.98
13.87
13.75
13.18
11.79
9.44
6.29
2.74
-0.79
-4.08
-7.11
-10.11
-13.44
-17.33
-21.83
-26.76
-31.65
-35.86
-38.67
-39.42
-37.71
-33.48
-27.10
-19.29
-10.89
-2.71
4.58
10.58
15.08
18.07
19.69
20.23
20.08
19.62
19.16
18.91
18.92
19.16
19.50
19.73
19.56
18.70
17.02
14.60
11.80
9.07
6.77
4.97
3.40
1.51
-1.28
-5.38
-10.80
-17.14
-23.60
-29.19
-32.92
-34.06
-32.26
-27.68
-20.87
-12.59
-3.68
5.10
13.16
20.06
25.44
29.06
30.78
30.62
28.86
26.03
22.84
19.97
17.89
16.60
15.81
15.02
13.84
12.15
10.07
7.85
5.66
3.49
1.19
-1.48
-4.64
-8.36
-12.60
-17.33
-22.46
-27.76
-32.73
-36.60
-38.43
-37.48
-33.40
-26.46
-17.46
-7.49
2.45
11.66
19.85
27.03
33.30
38.71
43.17
46.56
48.80
49.97
50.29
50.10
49.73
49.41
49.23
49.06
48.68
47.80
46.22
43.88
40.90
37.47
33.76
29.83
25.59
20.91
15.70
10.00
3.94
-2.36
-8.80
-15.38
-21.90
-27.88
-32.44
-34.47
-33.00
-27.69
-19.05
-8.30
2.95
13.28
21.78
28.19
32.67
35.50
36.87
36.88
35.68
33.57
31.05
28.69
26.91
25.80
25.12
24.41
23.17
21.14
18.28
14.85
11.21
7.61
4.19
0.88
-2.50
-6.10
-9.95
-14.02
-18.22
-22.58
-27.26
-32.45
-38.12
-43.88
-48.87
-51.94
-52.03
-48.56
-41.72
-32.46
-22.10
-11.94
-2.87
4.76
10.89
15.57
18.79
20.49
20.78
20.16
19.42
19.38
20.59
22.95
25.82
28.27
29.57
29.55
28.57
27.36
26.53
26.27
26.28
25.94
24.59
21.84
17.61
12.07
5.49
-1.87
-9.66
-17.35
-24.05
-28.72
-30.29
-28.11
-22.18
-13.16
-2.18
9.39
20.28
29.39
35.85
39.06
38.75
35.14
29.04
21.85
15.19
10.49
8.55
9.28
11.80
14.79
16.97
17.49
16.07
12.95
8.65
3.82
-0.90
-4.98
-8.12
-10.36
-12.12
-14.12
-17.05
-21.25
-26.36
-31.39
-34.99
-35.92
-33.53
-27.88
-19.69
-10.05
-0.06
9.33
17.36
23.41
27.01
27.97
26.58
23.71
20.69
18.87
19.21
21.77
25.69
29.49
31.60
31.02
27.61
22.06
15.55
9.29
4.09
0.15
-2.83
-5.45
-8.26
-11.57
-15.33
-19.15
-22.48
-24.72
-25.45
-24.49
-21.98
-18.33
-14.08
-9.84
-6.09
-3.20
-1.42
-0.80
-1.18
-2.16
-3.09
-3.15
-1.57
2.10
7.75
14.55
21.15
25.91
27.46
25.04
18.88
10.13
0.60
-7.76
-13.39
-15.57
-14.72
-12.32
-10.57
-11.68
-17.14
-26.97
-39.60
-52.21
-61.66
-65.54
-62.92
-54.50
-42.08
-27.84
-13.62
-0.60
10.64
19.76
26.53
30.77
32.54
32.32
30.88
29.12
27.77
27.19
27.42
28.37
29.98
32.33
35.59
39.79
44.65
49.51
53.41
55.27
54.10
49.24
40.59
28.80
15.34
2.29
-8.00
-13.57
-13.37
-7.55
2.58
14.97
27.36
37.88
45.42
49.67
51.09
50.48
48.66
46.09
42.73
38.08
31.42
22.20
10.24
-4.00
-19.44
-34.52
-47.46
-56.60
-60.85
-60.07
-55.13
-47.86
-40.47
-35.01
-32.83
-34.19
-38.34
-43.76
-48.57
-51.00
-49.83
-44.48
-35.18
-22.67
-8.02
7.61
23.10
37.35
49.32
58.02
62.70
63.04
59.26
51.94
41.88
29.84
16.50
2.61
-10.97
-23.22
-33.21
-40.31
-44.44
-46.09
-46.08
-45.46
-45.16
-46.00
-48.41
-52.40
-57.32
-61.83
-64.28
-63.08
-57.47
-47.72
-35.22
-21.92
-9.75
0.02
7.06
11.86
15.27
17.96
20.12
21.36
21.06
18.83
14.82
9.82
4.93
1.12
-1.20
-2.28
-2.82
-3.55
-4.95
-7.14
-10.10
-13.82
-18.42
-23.86
-29.72
-34.94
-38.05
-37.57
-32.64
-23.44
-11.19
2.20
14.83
25.29
32.96
37.88
40.39
40.82
39.34
36.10
31.49
26.24
21.36
17.79
16.06
16.05
17.07
18.27
18.96
18.85
18.00
16.57
14.60
11.92
8.35
3.97
-0.66
-4.49
-6.28
-5.01
-0.37
7.17
16.36
25.64
33.57
39.30
42.58
43.72
43.27
41.69
39.30
36.26
32.68
28.82
24.98
21.49
18.49
15.85
13.22
10.22
6.74
3.06
-0.16
-2.12
-2.30
-0.76
1.78
4.12
5.01
3.57
-0.39
-6.23
-12.72
-18.33
-21.77
-22.25
-19.69
-14.66
-8.17
-1.40
4.44
8.29
9.28
6.93
1.27
-6.97
-16.45
-25.51
-32.62
-36.84
-38.06
-36.87
-34.33
-31.45
-28.98
-27.18
-25.94
-24.88
-23.67
-22.13
-20.42
-18.96
-18.35
-19.12
-21.45
-25.15
-29.58
-33.87
-37.20
-39.00
-39.09
-37.63
-34.98
-31.48
-27.38
-22.80
-17.81
-12.55
-7.20
-1.98
2.93
7.30
10.88
13.36
14.45
14.12
12.70
10.87
9.46
9.07
9.82
11.28
12.62
12.94
11.39
7.41
0.68
-8.72
-20.26
-32.80
-44.57
-53.43
-57.30
-54.86
-46.02
-32.14
-15.74
0.18
12.96
20.99
23.99
22.90
19.30
14.92
11.19
9.09
9.18
11.62
16.12
21.80
27.20
30.60
30.55
26.48
19.09
10.21
2.18
-3.09
-4.89
-4.00
-2.30
-1.96
-4.49
-10.16
-17.85
-25.60
-31.26
-33.27
-31.11
-25.30
-17.13
-8.11
0.56
8.19
14.54
19.62
23.48
26.07
27.35
27.38
26.36
24.56
22.20
19.40
16.18
12.66
9.12
5.99
3.67
2.33
1.77
1.50
0.95
-0.30
-2.40
-5.29
-8.74
-12.50
-16.23
-19.46
-21.55
-21.75
-19.46
-14.43
-6.93
2.27
12.16
21.76
30.35
37.53
43.17
47.30
50.03
51.53
51.97
51.57
50.54
49.14
47.63
46.23
45.08
44.12
43.02
41.27
38.33
33.84
27.91
21.09
14.22
8.12
3.16
-0.97
-5.21
-10.80
-18.75
-29.30
-41.62
-53.94
-64.03
-69.91
-70.55
-66.09
-57.79
-47.51
-37.24
-28.55
-22.38
-18.97
-17.88
-18.09
-18.26
-17.10
-13.83
-8.64
-2.63
2.52
5.32
5.18
2.76
-0.26
-1.94
-0.90
3.03
8.91
15.07
19.96
22.82
23.83
23.91
24.07
24.93
26.45
28.11
29.31
29.67
29.19
28.07
26.56
24.84
23.00
21.17
19.53
18.14
16.82
15.05
12.07
7.11
-0.21
-9.78
-20.86
-32.16
-42.09
-49.00
-51.67
-49.65
-43.49
-34.59
-24.85
-16.09
-9.56
-5.78
-4.67
-5.80
-8.60
-12.35
-16.10
-18.69
-18.95
-16.12
-10.20
-2.05
6.90
15.20
21.87
26.79
30.52
33.98
37.95
42.68
47.87
52.88
57.15
60.41
62.84
64.82
66.64
68.19
69.04
68.60
66.59
63.18
58.98
54.69
50.70
46.88
42.61
37.09
29.69
20.31
9.56
-1.23
-10.26
-15.75
-16.53
-12.48
-4.58
5.50
16.11
26.18
35.45
44.13
52.50
60.46
67.70
73.98
79.44
84.64
90.23
96.43
102.79
108.18
111.29
111.06
107.14
99.93
90.42
79.82
69.29
59.66
51.40
44.69
39.54
35.90
33.84
33.55
35.40
39.90
47.56
58.69
73.07
89.82
107.36
123.88
137.79
148.26
155.38
160.08
163.82
168.18
174.48
183.33
194.35
205.93
215.50
220.27
218.16
208.64
192.96
173.60
153.27
133.85
115.90
98.80
81.38
62.67
42.28
20.44
-2.23
-25.15
-47.95
-70.51
-92.91
-115.21
-137.35
-159.21
-180.91
-202.90
-225.76
-249.52
-272.98
-293.48
-307.55
-312.16
-306.15
-290.87
-269.59
-246.01
-222.79
-200.89
-180.38
-161.80
-147.14
-139.45
-141.20
-152.44
-169.97
-188.27
-201.80
-207.45
-205.68
-199.91
-194.46
-192.33
-194.09
-198.32
-203.10
-207.48
-212.08
-218.56
-228.48
-242.38
-259.49
-278.20
-296.67
-313.25
-326.21
-333.37
-331.93
-319.16
-293.49
-255.64
-209.05
-159.00
-110.91
-68.60
-33.32
-4.17
20.50
41.56
58.27
68.30
68.71
57.19
33.16
-1.64
-43.00
-84.77
-120.01
-142.38
-147.53
-134.08
-103.89
-61.51
-13.11
34.88
77.14
110.30
133.39
147.65
155.74
160.56
164.35
168.03
171.40
173.78
174.64
173.92
171.95
169.06
165.34
160.74
155.28
149.29
143.40
138.25
134.18
131.00
128.01
124.42
119.81
114.47
109.42
106.00
105.14
106.77
109.66
111.87
111.66
108.29
102.27
94.95
87.64
80.73
73.55
64.79
53.39
39.27
23.42
7.38
-7.62
-21.25
-34.06
-46.86
-60.01
-73.01
-84.60
-93.40
-98.53
-99.94
-98.20
-94.00
-87.65
-78.90
-67.35
-52.87
-36.03
-18.12
-0.63
15.26
29.01
40.62
50.27
57.80
62.60
63.92
61.36
55.44
47.70
40.30
35.39
34.43
37.79
44.67
53.37
61.79
67.86
69.92
66.98
58.80
45.96
29.72
11.92
-5.32
-19.83
-29.81
-34.02
-32.05
-24.32
-12.06
2.95
18.55
32.68
43.71
50.88
54.58
56.31
58.20
62.32
69.91
81.02
94.54
108.72
121.85
132.71
140.66
145.50
147.31
146.24
142.59
136.76
129.11
119.72
108.16
93.54
74.79
51.15
22.59
-9.85
-44.20
-77.87
-108.23
-133.18
-151.59
-163.49
-169.88
-172.28
-172.21
-170.78
-168.41
-164.98
-160.08
-153.42
-145.07
-135.55
-125.66
-116.18
-107.49
-99.36
-91.05
-81.61
-70.24
-56.78
-41.72
-26.14
-11.30
1.72
12.27
20.24
26.03
30.30
33.86
37.37
41.21
45.41
49.70
53.56
56.43
57.84
57.39
54.79
49.86
42.55
33.12
22.24
10.96
0.47
-8.16
-14.31
-17.84
-19.11
-18.75
-17.50
-16.10
-15.23
-15.44
-17.00
-19.75
-23.07
-25.99
-27.55
-27.17
-24.85
-21.14
-16.99
-13.35
-10.89
-9.80
-9.84
-10.52
-11.33
-12.03
-12.73
-13.79
-15.52
-17.86
-20.29
-21.96
-22.00
-19.96
-16.01
-10.95
-5.92
-2.16
-0.79
-2.56
-7.69
-15.72
-25.51
-35.51
-44.13
-50.29
-53.69
-54.75
-54.16
-52.45
-49.71
-45.68
-40.12
-33.11
-25.21
-17.30
-10.23
-4.52
-0.26
2.84
5.19
7.02
8.34
9.01
8.87
8.05
6.92
6.02
5.72
6.02
6.46
6.40
5.39
3.48
1.25
-0.47
-1.00
-0.13
1.92
4.64
7.56
10.33
12.64
14.19
14.56
13.45
11.00
8.00
5.85
6.22
10.52
19.26
31.76
46.09
59.48
68.87
71.73
66.77
54.41
36.78
17.20
-0.79
-14.36
-22.10
-24.25
-22.31
-18.52
-15.13
-13.88
-15.63
-20.25
-26.73
-33.45
-38.70
-41.06
-39.86
-35.17
-27.65
-18.74
-9.70
-1.14
6.92
14.52
21.57
27.74
32.49
35.14
34.40
29.41
20.52
9.49
-0.98
-8.18
-10.24
-6.85
0.60
8.24
12.39
11.27
5.26
-4.14
-15.18
-26.30
-36.07
-43.14
-50.03
-58.49
-67.80
-75.33
-79.21
-79.66
-78.29
-76.87
-76.44
-84.32
-104.30
-133.00
-161.71
-182.73
-193.24
-194.65
-190.32
-183.61
-188.52
-213.58
-255.67
-302.35
-341.63
-368.13
-382.62
-389.29
-393.65
-416.30
-471.79
-559.71
-666.70
-778.23
-885.47
-984.17
-1071.42
-1047.97
-864.86
-555.27
-211.76
86.49
307.66
454.59
544.37
596.17
625.79
629.00
601.68
550.09
490.33
437.79
400.31
378.91
370.91
371.40
365.65
343.13
304.65
260.76
222.37
194.83
178.27
170.05
166.71
158.37
138.14
106.76
71.45
39.89
16.48
2.55
-1.86
-0.84
-0.24
-4.10
-12.53
-22.29
-29.89
-33.47
-32.90
-29.06
-23.30
-17.68
-13.78
-11.71
-10.20
-7.77
-3.60
2.40
9.78
17.71
25.82
33.80
41.68
49.92
59.23
70.28
83.41
98.50
114.98
132.34
150.01
167.69
185.46
203.77
223.37
245.11
269.59
296.63
325.10
352.54
375.63
390.96
396.05
390.12
374.29
351.04
323.41
294.06
264.73
236.17
208.44
181.39
154.99
129.58
105.74
84.12
65.18
49.00
35.32
23.60
13.29
3.95
-4.72
-12.96
-21.00
-29.17
-37.80
-47.11
-57.12
-67.60
-78.13
-88.19
-97.32
-105.26
-112.03
-117.92
-123.33
-128.52
-133.53
-138.24
-142.57
-146.66
-150.82
-155.22
-159.45
-162.21
-161.47
-155.11
-141.81
-121.71
-96.52
-69.01
-42.18
-18.55
0.28
13.61
21.48
24.55
23.95
21.15
17.70
14.79
12.97
12.01
11.21
9.77
7.34
4.17
1.13
-0.54
0.24
3.98
10.20
17.43
23.55
26.54
25.27
19.97
12.08
3.63
-3.65
-9.06
-13.09
-17.23
-23.44
-33.52
-48.35
-67.38
-88.31
-107.46
-120.86
-125.75
-121.95
-112.25
-101.53
-94.83
-95.15
-102.14
-112.12
-119.72
-120.04
-110.56
-91.85
-66.93
-39.82
-14.04
8.16
25.92
39.19
48.18
53.18
54.70
53.62
51.18
48.55
46.42
44.74
42.97
40.67
38.06
36.21
36.73
41.16
50.27
63.45
78.58
92.35
101.04
101.72
93.29
77.03
56.11
34.44
15.17
-0.33
-12.58
-23.10
-33.13
-42.72
-50.58
-54.78
-53.84
-47.46
-36.62
-23.14
-8.92
4.55
16.36
26.02
33.11
37.18
37.78
34.76
28.43
19.49
8.80
-2.97
-15.44
-28.46
-41.76
-54.69
-66.28
-75.41
-81.32
-83.96
-84.15
-83.35
-83.21
-84.75
-87.92
-91.36
-92.88
-90.27
-82.27
-69.12
-52.47
-34.61
-17.47
-2.01
11.84
24.65
36.73
47.81
57.03
63.44
66.45
66.11
62.93
57.62
50.94
43.51
36.03
29.33
24.48
22.54
24.40
30.50
40.74
54.44
70.44
87.29
103.53
117.80
128.97
135.97
137.54
132.45
119.92
100.47
76.37
51.41
29.78
14.48
6.12
2.77
1.13
-1.68
-6.78
-13.16
-18.67
-21.47
-21.13
-18.80
-16.44
-15.75
-17.46
-21.26
-26.18
-31.18
-35.59
-39.09
-41.56
-42.86
-42.75
-41.12
-38.18
-34.58
-31.29
-29.43
-29.97
-33.55
-40.63
-51.37
-65.72
-83.09
-102.11
-120.50
-135.42
-144.23
-145.41
-139.11
-127.13
-112.18
-96.87
-82.81
-70.32
-58.68
-46.80
-33.84
-19.58
-4.43
10.89
25.69
39.54
52.33
64.15
75.09
85.11
94.01
101.58
107.76
112.66
116.49
119.36
121.16
121.58
120.42
117.77
114.21
110.60
107.78
106.36
106.44
107.71
109.43
110.47
109.48
105.21
97.04
85.46
72.11
59.37
49.35
42.93
39.29
36.31
31.60
23.65
12.51
-0.34
-12.84
-23.40
-31.49
-37.66
-42.97
-48.16
-53.14
-56.99
-58.37
-56.29
-50.58
-42.04
-32.04
-21.92
-12.57
-4.33
2.75
8.58
12.77
14.74
13.99
10.38
4.24
-3.93
-13.66
-24.79
-37.32
-51.09
-65.34
-78.62
-89.02
-94.89
-95.51
-91.43
-84.23
-75.81
-67.59
-59.97
-52.43
-44.06
-34.24
-23.01
-10.99
0.95
12.01
21.71
29.67
35.59
39.21
40.54
40.04
38.79
38.26
39.88
44.57
52.40
62.56
73.65
84.15
92.83
99.04
102.68
104.09
103.78
102.24
99.79
96.48
92.09
86.16
78.19
68.02
56.04
43.39
31.56
21.87
14.83
9.99
6.07
1.65
-4.25
-11.84
-20.55
-29.36
-37.25
-43.46
-47.65
-49.88
-50.56
-50.27
-49.59
-48.93
-48.57
-48.60
-49.03
-49.65
-49.90
-48.77
-45.04
-37.87
-27.41
-15.02
-2.94
6.51
11.74
12.39
9.09
2.94
-5.13
-14.58
-25.06
-36.05
-46.59
-55.39
-61.21
-63.43
-62.32
-58.86
-54.29
-49.45
-44.40
-38.41
-30.41
-19.70
-6.39
8.49
23.46
37.19
48.86
58.28
65.60
70.94
74.23
75.36
74.41
71.79
68.21
64.37
60.69
57.24
53.80
50.29
46.99
44.69
44.46
47.14
52.97
61.26
70.47
78.61
83.91
85.49
83.63
79.66
75.38
72.26
70.99
71.25
72.11
72.61
72.20
70.86
68.86
66.40
63.17
58.46
51.32
41.03
27.34
10.63
-8.22
-28.15
-48.28
-68.20
-88.04
-108.25
-129.22
-150.79
-172.10
-191.78
-208.43
-221.13
-229.71
-234.53
-236.09
-234.45
-229.14
-219.39
-204.73
-185.60
-163.61
-141.24
-121.23
-105.71
-95.46
-89.63
-86.11
-82.17
-75.41
-64.42
-49.07
-30.44
-10.80
6.68
18.56
22.21
17.31
7.03
-2.10
-2.14
12.92
43.99
85.75
128.49
162.13
180.37
182.62
172.93
156.87
138.69
120.15
101.40
82.57
64.37
47.09
28.95
5.59
-28.20
-75.08
-132.20
-190.85
-239.53
-268.82
-275.40
-263.16
-240.84
-217.70
-199.67
-187.72
-178.91
-168.96
-154.66
-135.05
-110.90
-83.57
-53.83
-21.51
14.18
54.03
98.38
146.95
199.20
254.44
311.48
368.07
420.37
463.05
490.44
498.10
484.58
452.19
406.37
353.90
300.73
250.59
204.97
164.31
129.36
101.68
83.01
73.97
73.09
77.12
82.45
86.91
90.91
96.99
108.27
126.44
150.56
177.02
200.76
216.99
222.83
218.62
207.89
196.04
187.92
185.78
188.38
191.86
191.86
185.77
174.01
159.71
147.14
139.60
138.11
141.05
145.06
146.41
142.49
132.71
118.33
101.74
85.09
69.21
53.33
35.65
14.76
-9.53
-35.80
-61.51
-83.61
-99.61
-108.43
-110.91
-109.58
-107.46
-106.74
-107.45
-107.40
-103.26
-92.32
-73.90
-49.63
-22.51
4.33
28.41
47.85
61.11
67.18
66.24
60.35
53.23
48.68
48.90
53.31
59.11
62.91
62.58
58.10
50.98
42.83
34.17
24.42
12.74
-0.81
-14.91
-27.54
-37.30
-44.49
-51.18
-60.38
-74.60
-94.67
-119.30
-145.82
-171.39
-194.26
-214.46
-233.68
-254.46
-279.41
-310.57
-349.01
-394.10
-442.89
-489.91
-528.15
-551.19
-555.74
-543.17
-519.20
-491.46
-466.37
-446.91
-432.35
-419.95
-407.19
-393.29
-379.10
-365.91
-353.97
-341.96
-327.38
-307.72
-281.53
-248.96
-211.77
-172.79
-134.99
-100.65
-71.01
-46.33
-26.32
-10.78
0.11
5.94
6.52
2.17
-6.50
-19.03
-35.35
-55.40
-78.28
-101.33
-120.31
-130.52
-128.67
-114.24
-89.69
-59.23
-26.98
4.45
34.33
63.21
91.98
121.14
150.70
180.07
208.18
233.32
253.28
265.95
270.10
265.88
254.90
239.61
222.46
205.35
189.55
175.93
165.16
157.63
153.21
150.98
149.42
147.05
143.04
137.58
131.49
125.63
120.21
114.52
107.31
97.44
84.46
68.89
52.09
35.75
21.52
10.78
4.61
3.86
9.00
19.92
35.60
54.12
72.94
89.73
103.12
113.12
120.81
127.40
133.04
136.25
134.41
125.00
107.10
81.98
52.58
22.23
-6.46
-31.93
-53.11
-68.61
-76.59
-75.29
-64.24
-44.99
-20.77
4.60
28.27
49.29
68.58
88.07
109.37
132.69
156.35
176.94
189.99
191.28
178.08
150.37
111.08
65.74
21.18
-15.98
-40.50
-49.25
-41.46
-18.87
14.32
51.93
86.96
113.43
127.97
130.68
124.38
112.87
98.88
82.92
63.65
39.26
8.95
-26.36
-64.44
-102.70
-139.04
-172.07
-201.16
-226.48
-249.12
-270.76
-292.83
-315.45
-336.60
-352.40
-358.39
-351.41
-331.05
-300.01
-263.18
-225.99
-192.87
-166.21
-146.16
-130.95
-117.68
-103.40
-86.17
-65.66
-43.28
-21.42
-2.31
12.85
24.11
32.38
38.81
44.47
50.19
56.69
64.72
74.98
87.85
103.14
120.18
138.17
156.52
175.27
195.02
216.60
240.34
265.42
289.53
309.29
321.29
323.18
314.40
296.19
270.58
239.37
203.20
161.57
113.31
57.94
-3.20
-66.21
-125.16
-173.90
-208.55
-229.25
-240.15
-247.49
-256.84
-270.92
-289.15
-308.70
-325.92
-337.48
-340.58
-332.91
-313.14
-281.88
-242.51
-200.84
-163.30
-134.30
-114.38
-100.43
-87.48
-71.26
-49.83
-23.79
4.79
33.80
61.81
88.23
113.01
136.37
159.05
182.51
208.69
239.26
274.33
311.43
345.70
371.22
383.16
379.43
361.23
332.23
296.89
259.05
221.30
185.09
151.27
120.36
92.41
66.87
42.58
18.00
-8.12
-36.44
-66.91
-98.98
-132.03
-165.71
-199.86
-234.34
-268.70
-302.00
-332.92
-359.99
-381.96
-398.02
-407.69
-410.66
-406.57
-394.96
-375.36
-347.62
-312.10
-269.94
-222.99
-173.66
-124.52
-77.86
-35.42
1.87
33.81
60.77
83.51
102.83
119.40
133.57
145.34
154.53
160.93
164.43
165.10
163.11
158.63
151.76
142.58
131.28
118.30
104.42
90.63
78.02
67.48
59.48
54.04
50.65
48.38
46.09
42.67
37.42
30.36
22.36
14.92
9.58
7.20
7.43
8.74
9.09
6.71
0.87
-8.07
-19.02
-30.75
-42.26
-52.87
-61.88
-68.47
-71.81
-71.40
-67.47
-60.96
-53.24
-45.58
-38.72
-32.62
-26.66
-19.97
-11.77
-1.68
10.11
22.96
35.93
48.13
59.03
68.55
76.87
84.24
90.65
95.76
99.11
100.44
99.88
97.91
95.01
91.31
86.44
79.73
70.56
58.86
45.16
30.57
16.44
4.14
-5.12
-10.35
-11.00
-7.14
0.38
9.93
19.49
27.00
30.84
29.96
23.94
12.84
-2.74
-21.78
-42.95
-64.74
