1660750960.00
64.000000
-0.00
-0.00
-0.00
-0.00
-0.00
-0.00
-0.00
-0.00
-0.00
-0.00
0.00
0.01
0.01
-0.00
-0.03
-0.05
-0.05
0.00
0.13
0.36
0.66
1.01
1.37
1.72
2.06
2.40
2.79
3.24
3.80
4.42
5.06
5.66
6.20
6.68
7.15
7.68
8.31
9.14
10.09
11.04
11.88
12.56
13.14
13.76
14.65
15.96
17.91
20.32
22.90
25.38
27.58
29.57
31.68
34.32
37.81
42.54
48.15
54.10
59.83
64.97
69.58
74.14
79.34
85.71
93.76
103.00
112.62
121.73
129.77
136.75
143.30
150.75
157.77
166.64
177.95
191.79
206.97
220.57
228.25
225.36
208.53
176.87
132.76
80.05
23.07
-34.94
-92.44
-149.16
-205.23
-260.37
-313.74
-363.87
-409.83
-450.91
-486.50
-515.74
-537.23
-549.22
-549.96
-538.37
-514.21
-478.67
-433.88
-382.45
-327.02
-269.84
-212.63
-156.66
-102.95
-52.38
-5.91
35.57
71.43
101.37
125.54
144.42
158.71
169.09
176.20
180.46
182.18
181.62
179.06
174.82
169.28
162.81
155.73
148.28
140.65
132.95
125.24
117.59
110.02
102.54
95.15
87.87
80.74
73.85
67.32
61.24
55.63
50.42
45.47
40.59
35.70
30.82
26.14
21.93
18.38
15.54
13.24
11.09
8.73
5.93
2.76
-0.40
-3.05
-4.78
-5.50
-5.57
-5.62
-6.32
-8.04
-10.66
-13.57
-15.99
-17.31
-17.41
-16.65
-15.79
-15.54
-16.42
-18.67
-22.30
-26.99
-31.75
-34.81
-33.85
-27.01
-13.93
3.51
21.65
36.41
45.01
47.05
44.30
39.50
34.81
31.04
27.75
24.22
20.28
16.56
13.97
13.03
13.43
14.19
14.23
12.95
10.42
7.37
4.71
3.15
2.97
3.97
5.64
7.40
8.82
9.66
9.96
9.92
9.74
9.56
9.38
9.07
8.46
7.50
6.30
5.09
4.16
3.74
3.92
4.63
5.66
6.77
7.79
8.66
9.48
10.42
11.68
13.33
15.28
17.25
18.85
19.73
19.72
18.86
17.28
15.20
12.66
9.58
5.88
1.29
-4.15
-10.13
-16.06
-21.20
-24.89
-26.70
-26.56
-24.82
-22.18
-19.43
-17.22
-15.88
-15.28
-14.95
-14.35
-13.15
-11.42
-9.57
-8.13
-7.47
-7.62
-8.34
-9.18
-9.78
-9.96
-9.63
-8.84
-7.66
-6.28
-5.01
-4.15
-3.88
-4.12
-4.50
-4.50
-3.73
-2.07
0.27
2.81
5.03
6.52
7.10
6.84
6.02
4.99
4.10
3.59
3.49
3.65
3.79
3.66
3.12
2.20
1.00
-0.30
-1.56
-2.66
-3.50
-4.07
-4.42
-4.76
-5.38
-6.58
-8.50
-11.07
-13.84
-16.15
-17.31
-16.93
-15.06
-12.17
-8.98
-6.20
-4.24
-3.19
-2.86
-2.93
-3.13
-3.25
-3.11
-2.59
-1.61
-0.15
1.72
3.78
5.78
7.43
8.58
9.16
9.23
8.92
8.34
7.62
6.86
6.18
5.69
5.54
5.82
6.52
7.51
8.53
9.31
9.63
9.41
8.71
7.70
6.53
5.32
4.10
2.84
1.51
0.08
-1.43
-3.03
-4.74
-6.50
-8.17
-9.44
-9.91
-9.26
-7.44
-4.74
-1.76
0.83
2.52
3.13
2.84
2.04
1.14
0.43
0.00
-0.19
-0.25
-0.28
-0.33
-0.40
-0.47
-0.51
-0.54
-0.55
-0.54
-0.48
-0.28
0.13
0.82
1.78
2.89
3.98
4.80
5.20
5.11
4.63
3.93
3.21
2.59
2.11
1.71
1.34
0.94
0.49
-0.07
-0.83
-1.90
-3.31
-4.95
-6.54
-7.66
-7.94
-7.19
-5.53
-3.29
-0.95
1.08
2.59
3.56
4.12
4.40
4.46
4.29
3.85
3.15
2.28
1.33
0.41
-0.46
-1.29
-2.11
-2.87
-3.50
-3.93
-4.13
-4.19
-4.24
-4.41
-4.79
-5.36
-6.08
-6.89
-7.76
-8.67
-9.57
-10.41
-11.08
-11.50
-11.63
-11.49
-11.12
-10.59
-9.98
-9.32
-8.71
-8.23
-7.96
-7.91
-7.99
-7.93
-7.38
-6.01
-3.71
-0.66
2.69
5.79
8.19
9.72
10.45
10.61
10.45
10.13
9.74
9.33
8.94
8.62
8.40
8.26
8.15
8.01
7.81
7.55
7.29
7.08
6.99
7.07
7.33
7.73
8.20
8.69
9.14
9.54
9.87
10.09
10.16
10.02
9.67
9.14
8.48
7.72
6.85
5.80
4.47
2.74
0.54
-2.13
-5.13
-8.17
-10.90
-12.93
-14.03
-14.15
-13.46
-12.25
-10.90
-9.69
-8.82
-8.35
-8.22
-8.28
-8.36
-8.29
-8.00
-7.49
-6.83
-6.15
-5.50
-4.90
-4.30
-3.62
-2.81
-1.90
-0.96
-0.10
0.61
1.17
1.66
2.18
2.78
3.41
3.92
4.15
3.96
3.37
2.52
1.60
0.80
0.22
-0.16
-0.47
-0.87
-1.47
-2.37
-3.48
-4.65
-5.59
-5.98
-5.56
-4.18
-1.93
0.88
3.74
6.13
7.66
8.24
8.08
7.56
7.08
6.89
7.02
7.33
7.62
7.71
7.49
6.94
6.11
5.13
4.18
3.49
3.24
3.51
4.21
5.14
6.05
6.69
6.95
6.74
6.05
4.95
3.59
2.18
0.96
0.13
-0.30
-0.46
-0.61
-1.02
-1.82
-2.96
-4.26
-5.53
-6.63
-7.57
-8.43
-9.27
-10.01
-10.45
-10.29
-9.34
-7.62
-5.36
-3.00
-0.92
0.63
1.64
2.27
2.69
3.01
3.29
3.52
3.70
3.92
4.24
4.68
5.17
5.56
5.76
5.72
5.56
5.43
5.45
5.62
5.83
5.88
5.65
5.13
4.40
3.62
2.92
2.39
2.05
1.88
1.83
1.81
1.70
1.37
0.77
-0.07
-0.97
-1.70
-2.13
-2.25
-2.24
-2.34
-2.74
-3.48
-4.41
-5.28
-5.77
-5.61
-4.64
-2.90
-0.62
1.79
3.87
5.28
5.94
6.01
5.82
5.68
5.64
5.59
5.29
4.64
3.76
2.94
2.47
2.50
2.96
3.60
4.16
4.45
4.44
4.17
3.71
3.15
2.58
2.12
1.87
1.85
2.01
2.18
2.18
1.83
1.10
0.01
-1.31
-2.65
-3.87
-4.82
-5.47
-5.89
-6.18
-6.48
-6.85
-7.34
-7.91
-8.44
-8.78
-8.68
-7.90
-6.30
-3.94
-1.18
1.48
3.51
4.61
4.81
4.41
3.75
3.12
2.60
2.14
1.65
1.14
0.67
0.36
0.26
0.32
0.41
0.34
0.06
-0.39
-0.84
-1.12
-1.13
-0.93
-0.72
-0.68
-0.93
-1.40
-1.98
-2.50
-2.87
-3.05
-3.08
-2.97
-2.76
-2.48
-2.20
-2.00
-1.97
-2.12
-2.39
-2.71
-2.92
-2.88
-2.45
-1.53
-0.13
1.61
3.43
5.05
6.26
6.98
7.31
7.41
7.47
7.59
7.80
8.04
8.21
8.18
7.87
7.25
6.35
5.32
4.28
3.37
2.63
2.00
1.42
0.80
0.16
-0.45
-0.94
-1.28
-1.48
-1.63
-1.79
-1.99
-2.22
-2.44
-2.63
-2.83
-3.10
-3.48
-3.95
-4.46
-4.93
-5.34
-5.77
-6.40
-7.33
-8.56
-9.84
-10.73
-10.79
-9.79
-7.81
-5.27
-2.73
-0.67
0.68
1.37
1.58
1.52
1.25
0.78
0.11
-0.61
-1.14
-1.23
-0.79
0.01
0.85
1.42
1.56
1.39
1.13
1.03
1.17
1.48
1.80
1.99
2.01
1.90
1.71
1.45
1.09
0.59
-0.00
-0.58
-0.98
-1.11
-0.97
-0.72
-0.57
-0.73
-1.34
-2.41
-3.77
-5.17
-6.25
-6.71
-6.33
-5.07
-3.11
-0.80
1.48
3.40
4.77
5.56
5.85
5.72
5.27
4.55
3.62
2.59
1.64
0.90
0.51
0.52
0.91
1.52
2.16
2.59
2.72
2.55
2.28
2.11
2.20
2.49
2.76
2.75
2.25
1.25
-0.05
-1.37
-2.47
-3.24
-3.68
-3.92
-4.11
-4.40
-4.90
-5.68
-6.74
-7.94
-9.03
-9.66
-9.51
-8.40
-6.36
-3.69
-0.80
1.85
3.95
5.38
6.19
6.57
6.75
6.89
7.08
7.33
7.57
7.72
7.71
7.55
7.26
6.94
6.62
6.31
5.93
5.44
4.86
4.30
3.85
3.54
3.25
2.77
1.91
0.65
-0.89
-2.44
-3.74
-4.66
-5.17
-5.36
-5.31
-5.02
-4.52
-3.87
-3.28
-3.02
-3.36
-4.40
-6.02
-7.88
-9.50
-10.41
-10.30
-9.10
-6.99
-4.33
-1.58
0.81
2.52
3.43
3.61
3.32
2.89
2.55
2.41
2.40
2.44
2.44
2.45
2.53
2.77
3.13
3.50
3.71
3.66
3.32
2.76
2.11
1.51
1.03
0.68
0.39
0.06
-0.38
-0.95
-1.60
-2.24
-2.78
-3.19
-3.48
-3.70
-3.90
-4.12
-4.35
-4.61
-4.90
-5.23
-5.63
-6.15
-6.83
-7.65
-8.50
-9.16
-9.32
-8.75
-7.33
-5.21
-2.70
-0.19
1.95
3.56
4.64
5.31
5.71
5.91
5.91
5.70
5.30
4.85
4.53
4.45
4.64
4.96
5.26
5.37
5.26
5.00
4.73
4.54
4.43
4.33
4.14
3.79
3.29
2.71
2.13
1.58
1.04
0.46
-0.22
-0.94
-1.58
-1.97
-2.04
-1.86
-1.67
-1.75
-2.28
-3.29
-4.67
-6.22
-7.71
-8.90
-9.52
-9.37
-8.30
-6.36
-3.81
-1.07
1.46
3.47
4.86
5.70
6.11
6.21
6.09
5.84
5.55
5.28
5.09
4.96
4.87
4.80
4.76
4.80
4.92
5.11
5.30
5.35
5.18
4.80
4.24
3.64
3.09
2.65
2.31
2.02
1.69
1.25
0.68
-0.03
-0.89
-1.88
-2.98
-4.13
-5.18
-5.99
-6.39
-6.33
-5.89
-5.30
-4.88
-4.98
-5.79
-7.27
-9.07
-10.66
-11.47
-11.09
-9.44
-6.74
-3.47
-0.17
2.68
4.79
6.06
6.57
6.51
6.14
5.74
5.52
5.57
5.86
6.24
6.51
6.55
6.34
5.96
5.57
5.29
5.17
5.19
5.27
5.33
5.33
5.26
5.14
4.97
4.72
4.36
3.88
3.31
2.71
2.14
1.60
1.03
0.34
-0.57
-1.69
-2.90
-3.98
-4.70
-4.95
-4.81
-4.54
-4.44
-4.80
-5.76
-7.30
-9.22
-11.14
-12.55
-12.96
-12.02
-9.72
-6.43
-2.81
0.51
3.09
4.86
5.97
6.67
7.07
7.17
6.87
6.19
5.24
4.25
3.45
2.95
2.77
2.85
3.12
3.50
3.88
4.14
4.19
3.95
3.45
2.82
2.20
1.66
1.22
0.77
0.21
-0.46
-1.21
-1.95
-2.61
-3.22
-3.86
-4.56
-5.33
-6.06
-6.65
-7.11
-7.54
-8.14
-9.05
-10.29
-11.63
-12.71
-13.17
-12.73
-11.35
-9.19
-6.58
-3.90
-1.47
0.47
1.81
2.57
2.80
2.62
2.16
1.59
1.10
0.85
0.97
1.44
2.15
2.93
3.61
4.15
4.57
4.97
5.44
6.00
6.60
7.08
7.31
7.16
6.61
5.75
4.71
3.64
2.64
1.78
1.03
0.30
-0.49
-1.41
-2.45
-3.56
-4.61
-5.48
-6.03
-6.19
-6.00
-5.56
-5.05
-4.67
-4.44
-4.27
-3.87
-2.94
-1.28
1.08
3.84
6.50
8.56
9.63
9.60
8.58
6.86
4.79
2.68
0.81
-0.62
-1.44
-1.57
-1.00
0.14
1.55
2.87
3.69
3.73
2.96
1.56
-0.09
-1.61
-2.69
-3.23
-3.26
-2.91
-2.34
-1.67
-1.04
-0.59
-0.47
-0.76
-1.46
-2.46
-3.54
-4.52
-5.26
-5.74
-6.05
-6.30
-6.65
-7.17
-7.86
-8.55
-8.96
-8.74
-7.60
-5.49
-2.63
0.51
3.37
5.52
6.82
7.42
7.64
7.73
7.80
7.74
7.42
6.81
6.09
5.51
5.27
5.40
5.73
6.02
6.07
5.85
5.42
4.93
4.47
4.06
3.66
3.19
2.60
1.87
1.02
0.14
-0.64
-1.22
-1.61
-1.91
-2.32
-3.02
-4.08
-5.48
-7.12
-8.93
-10.82
-12.62
-14.06
-14.70
-14.17
-12.32
-9.32
-5.68
-2.05
1.02
3.25
4.66
5.47
5.96
6.35
6.70
6.97
7.06
6.91
6.53
6.03
5.56
5.26
5.17
5.23
5.30
5.23
4.97
4.49
3.91
3.33
2.84
2.46
2.13
1.73
1.14
0.29
-0.78
-1.93
-3.01
-3.86
-4.44
-4.79
-5.03
-5.34
-5.92
-6.90
-8.36
-10.24
-12.28
-14.06
-15.05
-14.80
-13.08
-10.04
-6.15
-2.10
1.46
4.12
5.79
6.63
6.91
6.89
6.69
6.37
5.95
5.49
5.04
4.65
4.33
4.07
3.84
3.62
3.41
3.18
2.97
2.78
2.64
2.58
2.56
2.50
2.32
1.94
1.39
0.76
0.19
-0.27
-0.64
-1.06
-1.62
-2.38
-3.25
-4.09
-4.77
-5.28
-5.80
-6.56
-7.78
-9.45
-11.23
-12.55
-12.78
-11.55
-8.91
-5.36
-1.66
1.51
3.79
5.20
6.00
6.47
6.78
6.90
6.75
6.31
5.67
5.02
4.54
4.27
4.16
4.11
4.03
3.95
3.96
4.19
4.67
5.29
5.83
6.04
5.76
5.04
4.05
3.06
2.23
1.62
1.14
0.67
0.10
-0.59
-1.34
-2.05
-2.68
-3.24
-3.83
-4.56
-5.53
-6.69
-7.87
-8.78
-9.07
-8.45
-6.87
-4.54
-1.88
0.63
2.64
4.05
4.99
5.68
6.27
6.74
6.99
6.92
6.57
6.14
5.87
5.89
6.14
6.40
6.40
6.00
5.26
4.37
3.63
3.25
3.30
3.63
3.95
3.98
3.51
2.59
1.46
0.43
-0.28
-0.65
-0.91
-1.36
-2.21
-3.42
-4.76
-5.92
-6.71
-7.17
-7.53
-8.06
-8.95
-10.20
-11.66
-13.11
-14.33
-15.10
-15.21
-14.44
-12.60
-9.70
-5.96
-1.86
2.03
5.25
7.55
8.94
9.61
9.79
9.65
9.31
8.82
8.24
7.65
7.11
6.65
6.24
5.86
5.44
4.97
4.45
3.93
3.49
3.24
3.28
3.57
3.97
4.23
4.13
3.54
2.52
1.29
0.09
-0.93
-1.74
-2.46
-3.21
-4.07
-5.01
-5.89
-6.54
-6.90
-7.00
-7.03
-7.24
-7.84
-8.91
-10.40
-12.11
-13.71
-14.85
-15.14
-14.27
-12.13
-8.88
-4.95
-0.98
2.41
4.81
6.15
6.65
6.68
6.54
6.41
6.33
6.24
6.09
5.85
5.54
5.20
4.86
4.55
4.28
4.02
3.75
3.49
3.27
3.13
3.08
3.03
2.85
2.41
1.70
0.83
-0.04
-0.69
-1.08
-1.27
-1.44
-1.77
-2.34
-3.14
-4.00
-4.76
-5.26
-5.46
-5.46
-5.43
-5.57
-6.05
-6.88
-7.91
-8.80
-9.15
-8.56
-6.82
-4.00
-0.51
3.05
6.04
8.01
8.82
8.66
7.88
6.86
5.82
4.85
3.92
3.04
2.24
1.56
1.07
0.71
0.41
0.08
-0.32
-0.78
-1.19
-1.44
-1.47
-1.28
-1.00
-0.81
-0.87
-1.22
-1.76
-2.33
-2.79
-3.12
-3.40
-3.74
-4.19
-4.67
-5.05
-5.27
-5.41
-5.67
-6.27
-7.33
-8.76
-10.20
-11.20
-11.29
-10.19
-7.91
-4.79
-1.40
1.65
3.97
5.45
6.29
6.79
7.19
7.57
7.80
7.77
7.40
6.80
6.14
5.59
5.28
5.23
5.39
5.67
5.98
6.21
6.28
6.15
5.84
5.46
5.06
4.66
4.24
3.74
3.15
2.48
1.77
1.02
0.20
-0.73
-1.74
-2.74
-3.61
-4.31
-4.91
-5.58
-6.55
-7.93
-9.64
-11.41
-12.88
-13.65
-13.48
-12.35
-10.47
-8.22
-6.00
-4.16
-2.83
-1.96
-1.40
-1.02
-0.73
-0.55
-0.46
-0.43
-0.38
-0.22
0.08
0.46
0.85
1.19
1.52
1.91
2.45
3.16
3.95
4.66
5.13
5.30
5.26
5.23
5.49
6.16
7.14
8.09
8.45
7.70
5.44
1.58
-3.69
-9.84
-16.08
-21.44
-24.93
-25.90
-24.23
-20.47
-15.60
-10.69
-6.46
-3.14
-0.61
1.30
2.60
3.18
2.95
2.14
1.21
0.72
1.03
2.14
3.77
5.52
7.12
8.44
9.47
10.20
10.60
10.69
10.53
10.26
10.02
9.81
9.52
8.99
8.12
6.95
5.65
4.39
3.28
2.31
1.36
0.33
-0.80
-1.90
-2.80
-3.31
-3.41
-3.19
-2.88
-2.71
-2.81
-3.20
-3.77
-4.32
-4.63
-4.50
-3.74
-2.28
-0.16
2.40
5.13
7.73
10.05
12.02
13.66
14.98
15.89
16.25
15.97
15.05
13.71
12.24
10.99
10.23
10.04
10.35
10.93
11.52
11.86
11.84
11.50
10.99
10.44
9.98
9.60
9.23
8.73
7.99
6.92
5.52
3.84
1.98
0.09
-1.68
-3.26
-4.63
-5.91
-7.23
-8.71
-10.32
-11.94
-13.26
-13.92
-13.58
-12.05
-9.34
-5.71
-1.61
2.42
5.90
8.51
10.16
10.86
10.75
9.93
8.50
6.57
4.31
1.97
-0.15
-1.82
-2.91
-3.47
-3.67
-3.66
-3.54
-3.29
-2.88
-2.33
-1.82
-1.60
-1.92
-2.83
-4.16
-5.57
-6.64
-7.10
-6.95
-6.43
-5.93
-5.82
-6.33
-7.48
-9.12
-10.97
-12.68
-13.84
-13.99
-12.79
-10.12
-6.16
-1.43
3.38
7.57
10.66
12.48
13.13
12.85
11.95
10.75
9.46
8.25
7.16
6.17
5.21
4.24
3.30
2.52
2.00
1.78
1.80
1.88
1.84
1.51
0.83
-0.18
-1.42
-2.79
-4.17
-5.50
-6.76
-7.96
-9.14
-10.31
-11.52
-12.83
-14.27
-15.76
-17.03
-17.65
-17.12
-15.11
-11.64
-7.12
-2.34
1.94
5.13
7.09
8.01
8.27
8.21
8.01
7.66
7.05
6.18
5.15
4.17
3.44
3.04
2.92
2.87
2.71
2.34
1.77
1.17
0.65
0.28
-0.03
-0.46
-1.19
-2.26
-3.55
-4.76
-5.63
-6.04
-6.10
-6.16
-6.62
-7.72
-9.44
-11.44
-13.21
-14.18
-13.96
-12.37
-9.51
-5.75
-1.58
2.44
5.84
8.32
9.81
10.48
10.60
10.48
10.32
10.17
9.95
9.55
8.91
8.08
7.19
6.41
5.83
5.43
5.11
4.76
4.29
3.72
3.09
2.46
1.83
1.15
0.33
-0.64
-1.76
-2.94
-4.02
-4.90
-5.51
-5.90
-6.23
-6.69
-7.41
-8.37
-9.46
-10.55
-11.57
-12.46
-13.14
-13.40
-12.94
-11.48
-8.94
-5.57
-1.85
1.62
4.43
6.44
7.78
8.67
9.32
9.77
9.98
9.89
9.50
8.92
8.27
7.70
7.30
7.06
6.93
6.82
6.72
6.63
6.56
6.47
6.25
5.74
4.89
3.73
2.43
1.21
0.20
-0.58
-1.25
-1.99
-2.90
-4.00
-5.16
-6.24
-7.12
-7.72
-8.04
-8.13
-8.02
-7.81
-7.58
-7.49
-7.68
-8.16
-8.75
-9.04
-8.50
-6.70
-3.49
0.84
5.68
10.28
13.99
16.43
17.55
17.58
16.84
15.66
14.32
12.98
11.72
10.59
9.59
8.71
7.96
7.29
6.61
5.79
4.71
3.33
1.77
0.27
-0.91
-1.60
-1.84
-1.84
-1.92
-2.33
-3.17
-4.38
-5.74
-7.04
-8.10
-8.88
-9.36
-9.55
-9.46
-9.14
-8.72
-8.37
-8.27
-8.53
-9.11
-9.86
-10.58
-11.11
-11.38
-11.48
-11.55
-11.80
-12.41
-13.49
-14.98
-16.69
-18.24
-19.19
-19.23
-18.32
-16.77
-15.14
-14.01
-13.70
-14.16
-14.99
-15.70
-15.89
-15.44
-14.42
-12.98
-11.19
-9.01
-6.44
-3.57
-0.67
1.93
3.94
5.33
6.23
6.88
7.47
8.09
8.70
9.24
9.71
10.13
10.51
10.83
11.00
10.90
10.48
9.79
8.92
8.00
7.14
6.37
5.69
5.08
4.50
3.94
3.36
2.73
2.01
1.22
0.38
-0.45
-1.25
-1.97
-2.62
-3.19
-3.73
-4.26
-4.83
-5.46
-6.00
-6.15
-5.51
-3.74
-0.79
3.00
6.99
10.48
13.05
14.65
15.58
16.24
16.85
17.38
17.62
17.35
16.58
15.50
14.40
13.53
13.00
12.75
12.63
12.48
12.20
11.76
11.17
10.49
9.73
8.87
7.88
6.72
5.42
4.05
2.72
1.54
0.57
-0.22
-0.92
-1.64
-2.49
-3.53
-4.73
-6.05
-7.37
-8.57
-9.52
-10.16
-10.48
-10.56
-10.53
-10.56
-10.81
-11.41
-12.45
-13.90
-15.61
-17.32
-18.60
-18.95
-17.93
-15.33
-11.28
-6.31
-1.14
3.48
7.08
9.52
11.01
11.86
12.35
12.58
12.53
12.20
11.60
10.86
10.11
9.47
8.95
8.50
8.04
7.51
6.93
6.36
5.95
5.75
5.71
5.65
5.31
4.45
3.02
1.17
-0.77
-2.40
-3.40
-3.69
-3.39
-2.83
-2.38
-2.32
-2.74
-3.51
-4.33
-4.92
-5.16
-5.18
-5.24
-5.59
-6.34
-7.38
-8.49
-9.39
-9.98
-10.26
-10.35
-10.36
-10.34
-10.35
-10.45
-10.63
-10.74
-10.48
-9.40
-7.08
-3.34
1.59
7.12
12.53
17.25
21.12
24.22
26.78
29.04
31.20
33.59
36.61
40.53
45.17
49.63
52.25
51.37
46.20
37.30
26.44
15.78
7.09
1.20
-1.83
-2.91
-3.06
-3.11
-3.47
-4.37
-6.18
-9.37
-14.23
-20.51
-28.15
-36.83
-45.89
-54.33
-61.07
-65.40
-67.18
-66.51
-63.37
-58.49
-52.77
-47.28
-43.27
-42.26
-46.18
-56.71
-74.42
-92.02
-101.35
-96.66
-78.55
-52.88
-26.17
-2.78
15.81
30.26
42.20
52.09
59.53
63.79
64.70
63.25
60.90
59.08
58.89
60.84
64.09
67.27
69.11
68.92
67.24
64.90
62.68
61.12
60.38
59.80
58.31
54.96
48.67
39.91
29.34
17.80
6.09
-5.05
-15.30
-24.77
-32.30
-38.96
-45.13
-50.90
-56.05
-60.16
-62.76
-63.54
-62.79
-61.22
-60.00
-59.86
-61.23
-64.00
-67.40
-70.44
-72.13
-72.15
-70.80
-68.99
-67.45
-66.87
-67.62
-69.76
-73.53
-76.69
-76.74
-70.99
-57.69
-36.87
-11.02
15.50
38.10
53.69
61.81
64.08
63.18
61.34
59.53
57.47
54.40
49.87
44.11
37.90
31.91
26.66
22.39
19.04
16.26
13.60
10.56
6.83
2.47
-2.24
-6.81
-10.98
-14.95
-19.21
-24.19
-29.84
-35.53
-40.29
-43.40
-44.71
-44.97
-45.41
-47.20
-50.89
-56.23
-62.20
-67.26
-70.81
-71.91
-69.95
-64.89
-57.17
-47.73
-37.69
-28.16
-19.90
-13.27
-8.19
-4.44
-1.78
0.01
1.15
1.86
2.34
2.72
2.99
3.17
3.16
2.91
2.47
2.00
1.74
1.86
2.39
3.10
3.71
3.89
3.47
2.51
1.28
0.04
-1.13
-2.37
-3.97
-6.08
-8.63
-11.33
-13.82
-15.84
-17.43
-18.84
-20.42
-22.43
-24.92
-27.80
-30.92
-34.12
-37.22
-39.85
-41.43
-41.22
-38.54
-33.10
-25.22
-15.75
-5.87
3.29
10.94
16.69
20.60
22.95
24.18
24.84
25.44
26.45
28.19
30.76
33.99
37.49
40.75
43.28
44.76
45.11
44.59
43.56
42.38
41.17
39.80
37.94
35.27
31.61
27.02
21.78
16.20
10.57
5.05
-0.33
-5.56
-10.61
-15.41
-19.88
-23.99
-27.90
-31.93
-36.51
-41.88
-47.94
-54.01
-59.01
-61.59
-60.61
-55.37
-45.89
-32.92
-17.78
-2.08
12.60
25.03
34.53
41.08
45.20
47.72
49.54
51.33
53.45
55.88
58.37
60.57
62.19
63.04
63.13
62.63
61.74
60.64
59.42
58.09
56.63
55.04
53.28
51.35
49.20
46.67
43.59
39.86
35.64
31.37
27.72
25.39
24.73
25.58
27.29
28.92
29.65
29.00
26.98
24.02
20.78
18.04
16.43
16.43
18.11
21.19
24.94
28.45
30.79
31.33
29.92
26.82
22.60
17.87
13.15
8.71
4.61
0.74
-3.05
-6.89
-10.84
-14.88
-18.91
-22.72
-26.06
-28.55
-29.76
-29.24
-26.62
-21.86
-15.36
-7.99
-0.93
4.69
8.21
9.65
9.66
9.14
8.71
8.39
7.62
5.62
1.94
-3.14
-8.56
-12.84
-14.62
-13.21
-8.78
-2.32
4.79
11.26
16.21
19.33
20.69
20.53
19.12
16.70
13.60
10.38
7.77
6.52
7.16
9.76
13.87
18.67
23.15
26.50
28.23
28.32
27.14
25.25
23.24
21.49
20.04
18.60
16.69
13.83
9.79
4.63
-1.19
-7.13
-12.67
-17.66
-22.32
-27.13
-32.56
-38.72
-45.23
-51.22
-55.66
-57.73
-57.04
-53.66
-47.91
-40.07
-30.30
-18.67
-5.44
8.79
23.02
36.11
47.21
56.08
63.27
69.79
76.59
84.03
91.66
98.37
102.88
104.40
102.96
99.28
94.48
89.59
85.10
80.99
76.90
72.31
66.71
59.64
50.70
39.68
26.83
13.05
-0.13
-10.91
-17.76
-20.02
-18.21
-13.88
-9.21
-6.35
-6.84
-11.17
-18.55
-27.18
-34.64
-38.70
-37.99
-32.55
-23.74
-13.70
-4.51
2.51
7.08
9.64
10.84
11.04
10.24
8.32
5.42
2.06
-0.91
-2.79
-3.35
-2.96
-2.38
-2.33
-3.06
-4.14
-4.51
-2.82
2.13
11.04
23.75
39.09
54.90
68.25
76.10
76.06
67.18
50.38
28.28
4.47
-17.48
-34.92
-46.54
-52.29
-52.92
-49.53
-43.11
-34.49
-24.39
-13.49
-2.50
7.84
16.87
24.10
29.38
32.85
34.93
36.09
36.73
36.94
36.51
34.91
31.51
25.74
17.34
6.48
-6.17
-19.59
-32.50
-43.62
-51.74
-55.97
-55.82
-51.46
-43.87
-34.78
-26.30
-20.26
-17.63
-18.17
-20.66
-23.54
-25.59
-26.43
-26.42
-26.25
-26.32
-26.54
-26.36
-25.27
-23.22
-20.77
-18.89
-18.43
-19.64
-21.89
-23.77
-23.44
-19.23
-10.06
4.28
22.85
43.54
62.99
77.08
81.83
74.71
55.86
28.48
-1.97
-29.42
-49.22
-59.38
-60.73
-55.95
-48.12
-39.62
-31.66
-24.63
-18.56
-13.51
-9.62
-6.91
-5.13
-3.85
-2.55
-0.97
0.94
2.98
4.99
7.00
9.42
12.97
18.28
25.52
33.80
41.16
44.83
42.27
32.29
15.86
-3.87
-22.64
-36.58
-43.72
-44.46
-41.12
-36.59
-33.07
-31.34
-30.87
-30.65
-29.90
-28.58
-27.23
-26.47
-26.56
-27.22
-27.83
-27.80
-26.90
-25.37
-23.69
-22.26
-21.07
-19.73
-17.65
-14.44
-10.21
-5.57
-1.32
1.99
4.41
6.56
9.22
12.89
17.35
21.73
24.89
25.95
24.76
22.04
19.11
17.48
18.33
22.23
29.02
37.86
47.44
56.19
62.64
65.66
64.90
60.90
55.08
49.36
45.71
45.52
49.20
55.94
63.89
70.46
72.92
69.01
57.50
38.72
14.57
-11.75
-36.57
-56.75
-70.55
-78.01
-80.67
-80.71
-80.11
-79.98
-80.44
-81.05
-81.27
-80.81
-79.69
-78.04
-75.93
-73.32
-70.16
-66.50
-62.59
-58.80
-55.44
-52.56
-49.92
-47.06
-43.54
-39.13
-33.91
-28.22
-22.49
-17.03
-11.99
-7.32
-2.92
1.32
5.46
9.52
13.46
17.10
20.12
22.10
22.64
21.62
19.35
16.53
14.00
12.40
11.97
12.57
13.80
15.33
16.95
18.65
20.47
22.38
24.17
25.45
25.73
24.58
21.83
17.71
12.88
8.29
4.81
2.97
2.68
3.34
4.14
4.40
3.85
2.64
1.08
-0.57
-2.30
-4.24
-6.52
-9.09
-11.67
-13.88
-15.45
-16.36
-16.81
-17.06
-17.34
-17.76
-18.30
-18.91
-19.46
-19.83
-19.81
-19.21
-17.88
-15.85
-13.35
-10.77
-8.46
-6.64
-5.30
-4.24
-3.24
-2.14
-0.93
0.29
1.39
2.33
3.18
4.03
4.96
5.89
6.59
6.73
6.13
4.85
3.24
1.84
1.10
1.23
2.04
3.11
4.00
4.43
4.36
3.92
3.31
2.62
1.87
1.02
0.06
-0.94
-1.84
-2.56
-3.08
-3.54
-4.12
-4.92
-5.84
-6.52
-6.47
-5.34
-3.05
0.07
3.41
6.31
8.29
9.22
9.26
8.77
8.09
7.50
7.10
6.84
6.59
6.21
5.66
4.96
4.22
3.55
3.03
2.68
2.49
2.44
2.54
2.74
2.97
3.13
3.10
2.83
2.36
1.78
1.18
0.62
0.09
-0.41
-0.88
-1.31
-1.69
-2.05
-2.44
-2.94
-3.67
-4.69
-6.01
-7.50
-8.84
-9.63
-9.46
-8.13
-5.72
-2.61
0.66
3.59
5.82
7.25
7.97
8.19
8.09
7.80
7.41
6.92
6.41
5.96
5.68
5.65
5.83
6.04
6.06
5.72
4.98
4.00
3.04
2.33
1.98
1.92
1.93
1.83
1.50
0.94
0.24
-0.51
-1.24
-1.97
-2.77
-3.72
-4.81
-6.01
-7.20
-8.29
-9.26
-10.15
-10.99
-11.72
-12.10
-11.79
-10.49
-8.14
-5.02
-1.69
1.21
3.19
4.13
4.27
3.99
3.69
3.54
3.51
3.49
3.36
3.15
2.95
2.84
2.86
2.90
2.85
2.64
2.31
2.01
1.91
2.07
2.44
2.83
3.00
2.76
2.06
1.04
-0.07
-1.02
-1.67
-2.04
-2.23
-2.46
-2.84
-3.44
-4.18
-4.92
-5.54
-6.01
-6.41
-6.89
-7.59
-8.51
-9.47
-10.12
-10.08
-9.10
-7.19
-4.63
-1.87
0.64
2.61
3.97
4.80
5.28
5.53
5.61
5.52
5.26
4.90
4.48
4.10
3.78
3.48
3.09
2.53
1.78
0.94
0.18
-0.27
-0.29
0.12
0.76
1.38
1.74
1.71
1.32
0.69
-0.01
-0.69
-1.34
-1.99
-2.66
-3.30
-3.79
-4.02
-4.03
-3.99
-4.16
-4.77
-5.85
-7.17
-8.37
-9.05
-8.95
-8.04
-6.48
-4.50
-2.36
-0.25
1.68
3.38
4.74
5.74
6.35
6.60
6.61
6.51
6.45
6.46
6.51
6.43
6.06
5.28
4.16
2.92
1.84
1.18
1.00
1.16
1.42
1.52
1.35
0.93
0.43
-0.02
-0.34
-0.60
-0.91
-1.40
-2.12
-3.02
-3.95
-4.80
-5.49
-6.10
-6.75
-7.60
-8.72
-10.11
-11.61
-13.02
-14.12
-14.73
-14.74
-14.09
-12.80
-10.92
-8.58
-6.00
-3.46
-1.22
0.51
1.71
2.49
3.05
3.54
4.01
4.37
4.46
4.17
3.55
2.78
2.15
1.87
2.06
2.62
3.37
4.11
4.69
5.07
5.26
5.30
5.18
4.85
4.27
3.45
2.54
1.71
1.17
1.00
1.11
1.30
1.28
0.85
-0.03
-1.27
-2.64
-3.88
-4.83
-5.47
-5.93
-6.45
-7.22
-8.31
-9.61
-10.86
-11.73
-11.93
-11.26
-9.71
-7.43
-4.74
-2.01
0.43
2.35
3.67
4.36
4.51
4.23
3.69
3.11
2.69
2.57
2.71
2.97
3.12
3.04
2.75
2.42
2.24
2.32
2.66
3.15
3.66
4.12
4.46
4.65
4.66
4.49
4.17
3.77
3.36
3.01
2.74
2.57
2.48
2.43
2.33
2.07
1.54
0.74
-0.29
-1.35
-2.24
-2.80
-3.01
-2.99
-2.94
-3.13
-3.72
-4.72
-5.99
-7.25
-8.18
-8.49
-8.07
-6.92
-5.20
-3.13
-0.95
1.12
2.89
4.19
4.90
4.98
4.51
3.66
2.67
1.80
1.19
0.85
0.64
0.39
-0.02
-0.58
-1.16
-1.59
-1.82
-1.89
-1.96
-2.22
-2.69
-3.30
-3.88
-4.32
-4.61
-4.83
-5.11
-5.42
-5.65
-5.66
-5.39
-4.90
-4.45
-4.27
-4.45
-4.90
-5.37
-5.67
-5.74
-5.73
-5.88
-6.35
-7.12
-8.00
-8.77
-9.23
-9.32
-9.01
-8.25
-6.92
-4.99
-2.53
0.17
2.73
4.79
6.19
7.02
7.54
8.02
8.62
9.33
10.02
10.56
10.87
10.87
10.55
9.91
8.96
7.81
6.64
5.67
5.09
4.91
5.01
5.12
4.99
4.47
3.63
2.64
1.70
0.91
0.25
-0.35
-0.95
-1.56
-2.13
-2.62
-3.08
-3.57
-4.21
-5.11
-6.29
-7.70
-9.24
-10.73
-12.04
-13.08
-13.86
-14.49
-15.08
-15.70
-16.32
-16.82
-17.00
-16.69
-15.83
-14.41
-12.48
-10.14
-7.49
-4.65
-1.77
0.99
3.45
5.47
7.01
8.08
8.81
9.38
9.94
10.59
11.32
12.01
12.53
12.81
12.84
12.72
12.59
12.58
12.72
12.94
13.08
12.96
12.51
11.77
10.93
10.20
9.68
9.38
9.15
8.86
8.41
7.81
7.07
6.20
5.14
3.80
2.16
0.29
-1.64
-3.43
-4.95
-6.17
-7.17
-8.07
-8.95
-9.86
-10.77
-11.67
-12.54
-13.47
-14.56
-15.85
-17.21
-18.29
-18.57
-17.60
-15.20
-11.59
-7.32
-3.09
0.55
3.32
5.30
6.68
7.69
8.38
8.73
8.69
8.30
7.76
7.32
7.17
7.37
7.76
8.10
8.19
7.97
7.59
7.27
7.19
7.46
7.96
8.50
8.84
8.83
8.44
7.75
6.97
6.26
5.74
5.35
4.95
4.34
3.39
2.10
0.64
-0.80
-2.02
-3.02
-3.90
-4.87
-6.09
-7.63
-9.40
-11.19
-12.68
-13.56
-13.54
-12.45
-10.27
-7.18
-3.59
0.03
3.15
5.41
6.66
7.02
6.77
6.23
5.64
5.10
4.62
4.12
3.54
2.86
2.10
1.30
0.56
-0.03
-0.39
-0.50
-0.41
-0.22
-0.07
-0.05
-0.23
-0.59
-1.06
-1.61
-2.21
-2.84
-3.49
-4.12
-4.68
-5.13
-5.49
-5.86
-6.39
-7.21
-8.32
-9.52
-10.53
-11.15
-11.41
-11.63
-12.24
-13.48
-15.15
-16.62
-17.10
-15.96
-13.10
-8.97
-4.35
-0.03
3.51
6.10
7.87
8.99
9.59
9.71
9.44
8.95
8.53
8.44
8.81
9.51
10.24
10.61
10.35
9.40
7.93
6.17
4.34
2.61
1.14
0.06
-0.52
-0.63
-0.51
-0.56
-1.18
-2.50
-4.42
-6.58
-8.60
-10.24
-11.49
-12.46
-13.28
-13.93
-14.29
-14.22
-13.65
-12.63
-11.34
-9.99
-8.77
-7.87
-7.41
-7.46
-7.89
-8.42
-8.60
-8.01
-6.37
-3.77
-0.58
2.62
5.31
7.16
8.20
8.66
8.86
9.06
9.33
9.65
9.88
9.98
9.96
9.93
10.05
10.41
10.97
11.52
11.76
11.48
10.59
9.23
7.63
6.04
4.62
3.41
2.37
1.48
0.77
0.33
0.22
0.45
0.85
1.15
1.02
0.17
-1.47
-3.69
-6.08
-8.18
-9.66
-10.42
-10.56
-10.27
-9.62
-8.56
-6.95
-4.73
-2.00
0.91
3.63
5.84
7.48
8.64
9.54
10.30
10.93
11.28
11.24
10.80
10.11
9.44
9.01
8.88
8.96
9.03
8.89
8.48
7.83
7.02
6.07
4.90
3.32
1.23
-1.31
-4.02
-6.52
-8.45
-9.70
-10.41
-10.97
-11.78
-13.09
-14.85
-16.83
-18.62
-19.87
-20.38
-20.11
-19.19
-17.90
-16.61
-15.66
-15.27
-15.41
-15.77
-15.84
-15.09
-13.16
-10.00
-5.86
-1.20
3.44
7.62
11.02
13.56
15.32
16.44
17.07
17.29
17.12
16.61
15.82
14.88
13.94
13.09
12.33
11.62
10.94
10.29
9.74
9.34
9.09
8.96
8.86
8.74
8.56
8.31
7.98
7.55
7.07
6.54
6.03
5.53
5.06
4.59
4.11
3.62
3.14
2.69
2.21
1.64
0.79
-0.49
-2.34
-4.72
-7.31
-9.56
-10.80
-10.54
-8.64
-5.49
-1.87
1.34
3.50
4.44
4.39
3.83
3.24
2.94
3.00
3.34
3.81
4.27
4.60
4.75
4.69
4.38
3.87
3.20
2.46
1.79
1.35
1.25
1.52
1.97
2.30
2.14
1.22
-0.48
-2.71
-5.08
-7.19
-8.84
-10.02
-10.92
-11.76
-12.71
-13.80
-15.04
-16.36
-17.72
-19.00
-20.06
-20.62
-20.38
-19.07
-16.58
-13.04
-8.86
-4.57
-0.74
2.23
4.14
5.10
5.34
5.18
4.89
4.63
4.44
4.34
4.33
4.44
4.67
5.01
5.37
5.66
5.85
6.01
6.28
6.77
7.51
8.36
9.07
9.35
8.99
7.95
6.37
4.56
2.88
1.60
0.81
0.34
-0.11
-0.88
-2.19
-4.01
-5.99
-7.63
-8.31
-7.62
-5.42
-2.01
2.05
6.04
9.34
11.63
12.92
13.45
13.51
13.34
13.01
12.51
11.81
10.95
10.03
9.15
8.33
7.54
6.67
5.67
4.54
3.36
2.29
1.40
0.71
0.14
-0.46
-1.18
-2.06
-3.05
-4.09
-5.14
-6.24
-7.40
-8.64
-9.89
-11.04
-12.04
-12.87
-13.65
-14.56
-15.85
-17.68
-20.09
-22.90
-25.69
-27.87
-28.86
-28.28
-26.17
-22.94
-19.24
-15.68
-12.61
-10.05
-7.83
-5.76
-3.78
-1.96
-0.39
0.88
1.96
3.00
4.06
5.10
5.96
6.51
6.73
6.76
6.82
7.10
7.68
8.50
9.37
10.14
10.72
11.08
11.25
11.27
11.14
10.90
10.59
10.27
9.96
9.63
9.21
8.63
7.89
7.05
6.21
5.44
4.75
4.04
3.16
2.00
0.53
-1.22
-3.15
-5.07
-6.68
-7.57
-7.33
-5.74
-2.88
0.81
4.66
8.02
10.46
11.85
12.38
12.32
11.91
11.32
10.65
9.97
9.38
8.96
8.71
8.58
8.46
8.24
7.88
7.40
6.89
6.43
6.10
5.92
5.83
5.70
5.39
4.80
3.91
2.77
1.47
0.06
-1.47
-3.14
-4.93
-6.78
-8.55
-10.13
-11.46
-12.60
-13.66
-14.85
-16.33
-18.18
-20.34
-22.55
-24.41
-25.41
-25.15
-23.45
-20.50
-16.77
-12.85
-9.24
-6.20
-3.75
-1.75
-0.03
1.48
2.82
3.95
4.92
5.80
6.70
7.66
8.66
9.53
10.13
10.40
10.43
10.44
10.67
11.24
12.07
12.94
13.56
13.75
13.48
12.90
12.17
11.35
10.42
9.27
7.80
6.01
3.94
1.68
-0.73
-3.23
-5.73
-8.10
-10.14
-11.70
-12.71
-13.27
-13.61
-14.03
-14.76
-15.82
-17.01
-17.96
-18.20
-17.41
-15.52
-12.79
-9.75
-6.99
-4.94
-3.68
-2.98
-2.43
-1.67
-0.53
0.90
2.42
3.78
4.87
5.67
6.24
6.67
6.99
7.22
7.34
7.33
7.23
7.11
7.06
7.14
7.37
7.66
7.86
7.87
7.62
7.14
6.51
5.81
5.05
4.22
3.33
2.39
1.45
0.58
-0.18
-0.85
-1.43
-1.94
-2.41
-2.84
-3.31
-3.95
-4.88
-6.19
-7.84
-9.62
-11.14
-11.99
-11.79
-10.39
-7.94
-4.83
-1.64
1.10
2.97
3.79
3.56
2.50
0.97
-0.57
-1.73
-2.26
-2.10
-1.46
-0.63
0.10
0.58
0.81
0.93
1.10
1.43
1.91
2.46
2.99
3.45
3.84
4.23
4.64
5.03
5.26
5.13
4.53
3.53
2.33
1.28
0.62
0.46
0.68
1.02
1.20
0.97
0.26
-0.93
-2.44
-4.05
-5.47
-6.34
-6.35
-5.25
-3.04
0.01
3.43
6.67
9.27
11.01
11.89
12.10
11.90
11.47
10.92
10.31
9.68
9.10
8.63
8.31
8.13
8.01
7.80
7.41
6.76
5.92
4.96
4.00
3.07
2.13
1.13
0.02
-1.18
-2.35
-3.39
-4.24
-4.93
-5.52
-6.12
-6.80
-7.58
-8.47
-9.43
-10.43
-11.44
-12.51
-13.72
-15.18
-16.94
-18.91
-20.84
-22.34
-23.04
-22.70
-21.26
-18.91
-16.04
-13.11
-10.51
-8.44
-6.90
-5.67
-4.46
-3.07
-1.45
0.24
1.79
3.03
3.88
4.44
4.83
5.14
5.43
5.66
5.82
5.89
5.90
5.87
5.84
5.82
5.81
5.76
5.62
5.27
4.63
3.68
2.48
1.22
0.14
-0.58
-0.87
-0.82
-0.67
-0.65
-0.90
-1.40
-2.02
-2.53
-2.82
-2.85
-2.76
-2.71
-2.89
-3.42
-4.35
-5.63
-7.11
-8.48
-9.35
-9.28
-8.01
-5.54
-2.19
1.48
4.83
7.38
8.93
9.55
9.52
9.17
8.74
8.32
7.92
7.47
6.96
6.45
5.99
5.65
5.45
5.40
5.52
5.84
6.42
7.21
8.07
8.77
9.12
8.97
8.34
7.33
6.08
4.70
3.27
1.89
0.64
-0.37
-1.12
-1.68
-2.23
-2.95
-3.96
-5.22
-6.58
-7.79
-8.68
-9.21
-9.50
-9.74
-10.06
-10.42
-10.60
-10.24
-9.06
-7.02
-4.37
-1.63
0.64
2.03
2.47
2.18
1.51
0.73
-0.10
-1.09
-2.40
-4.04
-5.78
-7.25
-8.09
-8.09
-7.30
-5.94
-4.30
-2.64
-1.05
0.42
1.75
2.92
3.89
4.62
5.09
5.33
5.44
5.52
5.63
5.77
5.82
5.65
5.12
4.24
3.11
1.94
0.92
0.16
-0.28
-0.39
-0.20
0.28
0.95
1.58
1.89
1.59
0.65
-0.71
-1.94
-2.37
-1.47
0.94
4.59
8.84
12.91
16.14
18.15
18.93
18.72
17.93
16.97
16.17
15.70
15.62
15.80
16.01
16.04
15.69
14.91
13.72
12.24
10.54
8.73
6.90
5.20
3.82
2.88
2.43
2.34
2.40
2.41
2.32
2.14
1.97
1.83
1.64
1.22
0.37
-1.00
-2.87
-5.09
-7.49
-9.87
-12.12
-14.11
-15.76
-16.99
-17.81
-18.31
-18.65
-19.08
-19.71
-20.49
-21.16
-21.33
-20.62
-18.83
-16.03
-12.51
-8.68
-4.97
-1.68
1.01
3.01
4.28
4.85
4.81
4.32
3.60
2.83
2.15
1.62
1.18
0.76
0.30
-0.20
-0.72
-1.16
-1.43
-1.47
-1.25
-0.78
-0.12
0.64
1.40
2.04
2.48
2.64
2.49
2.02
1.31
0.44
-0.45
-1.26
-1.88
-2.32
-2.59
-2.81
-3.10
-3.61
-4.45
-5.67
-7.19
-8.72
-9.89
-10.21
-9.33
-7.16
-3.95
-0.26
3.21
5.93
7.65
8.50
8.85
9.05
9.33
9.68
9.92
9.89
9.48
8.72
7.71
6.56
5.37
4.20
3.09
2.07
1.16
0.37
-0.26
-0.69
-0.89
-0.84
-0.64
-0.43
-0.35
-0.50
-0.91
-1.52
-2.28
-3.18
-4.23
-5.39
-6.56
-7.50
-8.00
-7.92
-7.30
-6.39
-5.57
-5.22
-5.65
-6.94
-8.95
-11.24
-13.16
-14.01
-13.23
-10.65
-6.56
-1.64
3.28
7.43
10.36
11.93
12.32
11.82
10.76
9.39
7.87
6.31
4.77
3.30
1.93
0.72
-0.34
-1.25
-2.01
-2.63
-3.12
-3.51
-3.88
-4.37
-5.08
-6.03
-7.12
-8.17
-8.97
-9.43
-9.57
-9.52
-9.38
-9.27
-9.20
-9.16
-9.11
-9.05
-8.94
-8.76
-8.51
-8.23
-7.96
-7.79
-7.77
-7.96
-8.38
-8.94
-9.43
-9.48
-8.68
-6.69
-3.46
0.76
5.41
9.81
13.41
15.95
17.46
18.18
18.42
18.41
18.23
17.86
17.21
16.24
14.95
13.44
11.90
10.53
9.44
8.65
8.04
7.45
6.73
5.79
4.66
3.39
2.03
0.63
-0.78
-2.13
-3.32
-4.24
-4.89
-5.37
-5.88
-6.59
-7.57
-8.72
-9.84
-10.73
-11.31
-11.64
-11.97
-12.52
-13.39
-14.49
-15.46
-15.80
-15.06
-12.95
-9.53
-5.18
-0.47
3.97
7.72
10.53
12.42
13.49
13.89
13.79
13.40
12.91
12.51
12.31
12.25
12.23
12.10
11.80
11.36
10.90
10.49
10.17
9.88
9.55
9.11
8.57
7.97
7.35
6.73
6.06
5.31
4.41
3.31
1.97
0.38
-1.39
-3.17
-4.74
-5.92
-6.66
-7.09
-7.48
-8.09
-9.09
-10.48
-12.19
-14.04
-15.86
-17.35
-18.12
-17.75
-15.87
-12.45
-7.86
-2.81
1.82
5.33
7.42
8.27
8.36
8.27
8.37
8.79
9.38
9.91
10.19
10.21
10.04
9.79
9.50
9.10
8.46
7.56
6.48
5.43
4.67
4.36
4.48
4.82
5.08
5.02
4.53
3.68
2.61
1.48
0.41
-0.53
-1.32
-1.93
-2.36
-2.65
-2.89
-3.20
-3.66
-4.28
-4.93
-5.51
-5.93
-6.24
-6.59
-7.13
-7.94
-9.03
-10.28
-11.50
-12.44
-12.77
-12.17
-10.39
-7.33
-3.16
1.71
6.73
11.31
15.02
17.61
19.09
19.61
19.43
18.82
18.04
17.23
16.42
15.55
14.48
13.10
11.37
9.35
7.15
4.86
2.53
0.15
-2.29
-4.79
-7.31
-9.87
-12.54
-15.47
-18.81
-22.59
-26.61
-30.49
-33.79
-36.20
-37.72
-38.67
-39.58
-40.98
-43.28
-46.58
-50.79
-55.69
-60.98
-66.39
-71.60
-76.28
-80.08
-82.67
-83.81
-83.46
-81.72
-78.73
-74.63
-69.39
-62.98
-55.45
-47.07
-38.38
-30.07
-22.68
-16.41
-11.02
-5.92
-0.42
5.91
13.09
20.73
28.20
34.92
40.57
45.21
49.15
52.84
56.59
60.53
64.52
68.28
71.51
74.00
75.74
76.85
77.60
78.18
78.60
78.58
77.55
74.82
69.80
62.28
52.52
41.20
29.28
17.76
7.59
-0.46
-5.75
-7.79
-6.32
-1.29
7.04
18.11
31.33
46.35
63.27
82.51
104.13
126.92
147.91
162.87
167.59
159.60
139.28
109.85
76.41
44.42
18.41
1.42
-5.07
-0.97
12.30
31.46
51.14
64.27
63.69
44.50
6.50
-44.79
-99.26
-145.50
-174.76
-184.01
-176.47
-159.48
-140.88
-125.81
-115.67
-109.08
-103.93
-99.17
-94.98
-91.97
-89.98
-87.70
-83.13
-74.69
-62.08
-46.47
-30.01
-14.95
-2.80
6.06
12.29
17.01
21.23
25.43
29.43
32.54
33.98
33.28
30.54
26.54
22.43
19.34
17.88
17.92
18.62
18.86
17.78
15.17
11.56
7.87
5.01
3.42
2.99
3.20
3.42
3.17
2.34
1.06
-0.33
-1.54
-2.31
-2.49
-2.00
-0.81
1.02
3.40
6.14
9.07
12.03
14.91
17.59
19.98
22.04
23.78
25.37
27.11
29.36
32.40
36.16
40.22
43.88
46.53
47.90
48.33
48.65
49.85
52.65
57.07
62.30
66.96
69.79
70.17
68.67
67.07
67.81
73.38
85.13
102.26
121.52
137.85
145.60
140.14
119.24
83.62
37.10
-14.37
-64.21
-106.62
-137.61
-155.67
-161.79
-158.84
-150.84
-141.45
-133.38
-128.15
-126.19
-126.91
-129.08
-131.05
-130.96
-127.22
-118.22
-102.90
-81.45
-55.64
-28.67
-4.74
11.93
20.74
21.39
16.34
10.65
9.00
12.93
20.95
30.05
37.81
43.59
48.17
52.96
58.85
65.42
71.13
74.79
76.11
75.67
74.72
74.35
74.91
76.11
76.46
74.53
69.63
61.81
51.92
41.29
31.12
22.02
14.18
10.09
8.53
8.62
10.08
13.27
16.38
20.96
27.64
36.34
46.32
56.18
64.94
72.11
77.81
82.75
87.44
91.96
96.10
99.08
99.28
95.07
84.78
66.44
44.40
20.81
-3.04
-26.46
-49.42
-72.61
-96.82
-122.98
-151.91
-183.88
-218.81
-254.88
-288.24
-313.78
-326.85
-324.85
-308.41
-281.17
-248.27
-215.02
-184.77
-158.61
-136.12
-116.55
-99.47
-84.87
-72.70
-62.38
-53.23
-44.40
-35.40
-26.39
-18.06
-11.33
-6.80
-4.43
-3.50
-3.10
-2.21
-0.16
3.09
7.02
10.79
13.60
15.07
15.31
14.76
14.03
13.63
13.85
14.76
16.36
18.64
21.63
25.31
29.59
34.21
38.83
43.05
46.50
48.89
50.05
49.99
48.86
46.97
44.66
42.24
39.93
37.74
35.60
33.39
31.01
28.46
25.83
23.25
20.83
18.62
16.59
14.71
12.95
11.32
9.80
8.32
6.73
4.91
2.79
0.46
-1.88
-4.04
-5.92
-7.59
-9.26
-11.14
-13.37
-15.89
-18.40
-20.43
-21.43
-20.86
-18.44
-14.23
-8.62
-2.30
4.01
9.63
14.17
17.44
19.50
20.54
20.76
20.38
19.59
18.59
17.51
16.47
15.55
14.78
14.16
13.62
13.08
12.44
11.65
10.74
9.80
8.92
8.17
7.53
6.91
6.14
5.08
3.67
1.98
0.15
-1.66
-3.39
-5.07
-6.84
-8.89
-11.33
-14.12
-16.95
-19.32
-20.57
-20.14
-17.81
-13.77
-8.65
-3.23
1.74
5.85
9.04
11.46
13.35
14.82
15.81
16.18
15.85
14.83
13.34
11.71
10.27
9.23
8.62
8.36
8.27
8.27
8.34
8.63
9.24
10.17
11.27
12.30
13.04
13.40
13.38
13.14
12.86
12.83
13.26
14.34
16.07
18.20
20.25
21.60
21.72
20.39
17.84
14.72
11.86
10.00
9.45
10.07
11.35
12.70
13.61
13.76
12.97
11.05
7.86
3.39
-2.05
-7.78
-12.93
-16.75
-18.93
-19.64
-19.43
-18.92
-18.57
-18.57
-18.94
-19.57
-20.30
-21.01
-21.58
-22.02
-22.50
-23.34
-24.87
-27.18
-29.92
-32.28
-33.24
-31.89
-27.83
-21.38
-13.57
-5.92
-0.00
3.06
3.04
0.87
-1.55
-1.89
1.85
10.63
23.88
39.70
55.36
68.19
76.34
79.21
77.43
72.47
65.96
58.99
51.78
43.73
33.94
21.92
8.10
-6.04
-18.46
-27.28
-31.48
-31.21
-27.56
-22.05
-15.97
-10.05
-4.44
1.00
6.42
11.72
16.64
21.02
25.08
29.53
35.37
43.45
54.02
66.48
79.54
91.60
101.09
106.64
106.97
100.97
87.90
68.12
43.61
17.94
-4.44
-19.77
