1659461551.00
64.000000
-0.00
-0.00
-0.00
-0.00
-0.00
-0.00
-0.00
-0.00
-0.00
-0.00
0.00
0.01
0.01
-0.00
-0.03
-0.05
-0.05
0.00
0.13
0.36
0.66
1.01
1.37
1.72
2.06
2.40
2.79
3.24
3.80
4.42
5.06
5.66
6.20
6.68
7.15
7.68
8.31
9.14
10.09
11.04
11.88
12.56
13.14
13.76
14.65
15.96
17.91
20.32
22.90
25.38
27.58
29.58
31.68
34.32
37.81
42.53
48.14
54.12
59.87
65.03
69.63
74.15
79.25
85.47
93.36
102.44
111.96
121.03
129.06
136.04
142.57
149.93
156.83
165.55
176.74
190.52
205.71
219.36
227.07
224.11
207.06
175.07
130.58
77.56
20.43
-37.56
-94.94
-151.63
-207.94
-263.68
-317.98
-369.17
-416.04
-457.63
-493.30
-522.36
-543.78
-556.21
-558.12
-548.35
-526.28
-492.58
-448.90
-397.74
-342.04
-284.68
-228.03
-173.76
-122.79
-75.39
-31.80
7.78
42.91
73.04
97.67
116.59
129.83
137.58
140.19
138.43
133.95
129.42
128.13
132.84
144.49
161.59
180.46
196.75
207.07
210.13
206.79
199.04
188.80
177.19
164.55
150.99
136.97
123.36
111.06
100.61
91.81
83.98
76.19
67.86
58.96
50.11
42.04
35.35
30.30
26.61
23.69
20.87
17.81
14.54
11.44
8.88
7.06
5.85
4.88
3.73
2.17
0.23
-1.83
-3.71
-5.16
-6.07
-6.46
-6.47
-6.26
-6.02
-5.88
-5.91
-6.09
-6.38
-6.71
-6.96
-7.00
-6.66
-5.89
-4.75
-3.48
-2.43
-1.91
-2.04
-2.68
-3.49
-4.13
-4.42
-4.40
-4.27
-4.21
-4.28
-4.32
-4.10
-3.45
-2.42
-1.27
-0.37
-0.01
-0.27
-0.96
-1.67
-2.04
-1.89
-1.29
-0.60
-0.17
-0.23
-0.72
-1.37
-1.83
-1.90
-1.57
-1.07
-0.61
-0.31
-0.14
0.05
0.40
0.90
1.46
1.94
2.29
2.53
2.78
3.17
3.77
4.56
5.44
6.28
6.96
7.39
7.50
7.31
6.85
6.16
5.30
4.38
3.37
2.27
1.05
-0.33
-1.85
-3.41
-4.86
-6.02
-6.78
-7.14
-7.20
-7.14
-7.12
-7.16
-7.18
-6.99
-6.44
-5.51
-4.34
-3.17
-2.29
-1.88
-1.92
-2.19
-2.40
-2.30
-1.79
-0.92
0.14
1.07
1.65
1.90
2.14
2.83
4.41
6.98
10.27
13.72
16.33
17.47
17.07
15.90
15.14
15.90
18.70
23.25
28.67
33.18
35.50
35.16
32.92
30.47
29.89
33.18
41.82
56.17
73.88
91.10
102.89
104.95
95.08
73.71
43.62
9.08
-22.28
-44.33
-54.10
-53.42
-46.30
-36.41
-25.68
-14.49
-3.15
7.72
13.50
13.28
7.23
-3.17
-15.91
-29.29
-42.37
-55.73
-64.14
-67.91
-68.31
-66.89
-64.04
-59.49
-52.77
-43.46
-32.00
-19.63
-8.67
0.03
6.57
12.68
19.75
26.28
33.84
42.83
51.98
59.22
63.90
66.51
69.66
74.68
82.25
92.60
104.79
115.74
122.50
123.85
120.11
114.24
106.32
98.43
90.82
82.12
67.78
44.43
11.34
-29.58
-72.42
-114.34
-154.01
-191.07
-212.37
-211.63
-189.21
-151.83
-125.24
-111.87
-109.89
-118.32
-128.76
-138.18
-149.87
-166.09
-186.41
-207.72
-223.33
-230.38
-228.32
-218.10
-185.98
-129.18
-53.32
29.56
107.51
175.24
230.44
273.59
303.17
322.62
331.08
328.20
315.21
294.83
270.61
242.88
213.20
181.08
146.00
105.05
57.36
4.38
-50.28
-102.67
-150.88
-194.98
-237.80
-282.40
-332.01
-385.42
-435.88
-472.07
-483.06
-461.75
-406.53
-322.48
-218.72
-107.18
0.35
93.66
165.74
211.85
231.61
235.58
235.57
242.67
261.42
288.62
311.98
327.36
333.54
331.26
322.33
309.85
294.90
276.95
254.48
225.77
190.61
149.17
103.27
56.49
11.88
-29.16
-67.67
-106.47
-148.40
-193.88
-241.79
-289.67
-334.63
-374.73
-408.23
-432.13
-441.87
-433.60
-407.30
-370.08
-334.30
-311.72
-306.77
-313.04
-315.29
-297.38
-251.62
-183.36
-109.66
-51.47
-24.58
-34.25
-74.78
-133.88
-198.20
-257.53
-306.06
-341.41
-362.78
-369.56
-361.50
-339.64
-307.19
-269.41
-232.76
-202.92
-182.77
-171.23
-163.70
-154.55
-139.73
-118.61
-93.71
-69.58
-50.41
-38.32
-32.21
-28.42
-22.83
-12.73
1.97
19.78
37.83
53.33
65.07
74.31
84.18
97.96
117.06
140.47
167.52
195.93
222.98
246.70
267.50
287.93
310.74
336.76
365.14
399.08
439.57
483.85
525.79
558.82
578.89
586.08
584.05
580.01
588.75
617.15
659.34
699.48
721.93
720.78
702.77
682.35
676.20
704.71
772.93
867.80
964.60
1039.98
1081.59
1089.50
1070.62
966.27
753.95
457.80
138.83
-145.50
-367.38
-524.81
-620.54
-678.25
-715.59
-734.46
-737.04
-730.05
-724.46
-728.20
-744.29
-771.62
-802.25
-827.73
-836.44
-824.81
-796.13
-755.15
-704.27
-643.18
-571.85
-496.42
-425.59
-363.55
-312.70
-273.56
-242.79
-217.62
-195.75
-174.88
-155.62
-137.82
-118.53
-95.10
-72.07
-53.13
-41.91
-40.84
-43.58
-50.37
-60.72
-72.34
-82.61
-89.46
-90.76
-85.10
-78.33
-72.43
-69.26
-68.69
-69.68
-71.05
-71.86
-71.11
-68.92
-66.21
-63.01
-60.34
-58.31
-56.59
-54.77
-52.52
-49.41
-45.56
-41.53
-37.22
-33.26
-29.79
-26.67
-23.66
-20.52
-16.83
-12.47
-7.60
-2.12
3.51
8.99
14.17
19.14
24.23
29.96
36.70
44.54
53.36
62.61
71.71
80.29
88.47
96.80
106.07
116.97
129.76
144.18
159.55
175.02
189.99
204.36
218.51
233.22
249.50
268.48
291.07
317.40
346.16
374.25
397.17
410.22
410.13
396.38
371.42
339.68
305.84
273.27
243.39
216.15
190.96
167.65
146.61
128.36
113.02
100.01
88.29
76.94
65.54
54.28
43.70
34.28
26.14
19.05
12.53
6.20
-0.09
-6.28
-12.11
-17.38
-21.97
-25.92
-29.27
-32.09
-34.36
-35.98
-36.88
-36.96
-36.27
-34.92
-33.09
-30.99
-28.84
-26.87
-25.29
-24.23
-23.68
-23.51
-23.56
-23.65
-23.66
-23.54
-23.28
-22.97
-22.81
-23.03
-23.84
-25.30
-27.21
-29.12
-30.54
-31.14
-30.94
-30.34
-29.85
-29.86
-30.41
-31.22
-31.89
-32.15
-32.04
-31.84
-31.95
-32.59
-33.69
-34.84
-35.50
-35.22
-33.81
-31.40
-28.38
-25.22
-22.31
-19.86
-17.87
-16.18
-14.62
-13.04
-11.44
-9.87
-8.48
-7.43
-6.82
-6.68
-6.96
-7.57
-8.40
-9.35
-10.35
-11.32
-12.14
-12.71
-13.00
-13.05
-12.99
-13.02
-13.26
-13.69
-14.16
-14.45
-14.38
-13.93
-13.27
-12.64
-12.29
-12.35
-12.82
-13.58
-14.39
-14.94
-14.90
-14.03
-12.31
-9.98
-7.53
-5.54
-4.48
-4.49
-5.41
-6.80
-8.20
-9.27
-9.89
-10.18
-10.29
-10.32
-10.30
-10.19
-10.02
-9.87
-9.93
-10.30
-10.98
-11.80
-12.55
-13.08
-13.39
-13.64
-14.05
-14.72
-15.65
-16.70
-17.74
-18.75
-19.85
-21.21
-22.93
-24.98
-27.17
-29.22
-30.84
-31.81
-31.89
-30.87
-28.59
-25.03
-20.43
-15.15
-9.61
-4.08
1.42
7.00
12.72
18.40
23.56
27.61
30.16
31.16
31.03
30.37
29.79
29.55
29.46
28.88
26.97
23.08
17.21
10.42
4.53
1.36
1.49
3.34
3.19
-3.51
-20.24
-47.76
-83.59
-122.81
-159.49
-187.92
-203.37
-202.67
-185.13
-153.54
-114.53
-77.15
-49.93
-37.43
-38.26
-45.75
-51.05
-46.84
-29.81
-1.10
35.21
74.10
111.13
143.04
167.74
184.36
193.33
196.14
194.91
191.42
186.55
180.26
172.05
161.65
149.39
136.12
122.82
110.26
98.97
89.24
81.26
75.18
71.00
68.46
66.98
65.72
63.94
61.26
57.80
54.13
50.92
48.59
47.15
46.10
44.76
42.51
39.07
34.54
29.33
23.97
18.89
14.22
9.89
5.67
1.34
-3.18
-7.82
-12.38
-16.64
-20.37
-23.43
-25.78
-27.45
-28.54
-29.17
-29.44
-29.44
-29.24
-28.79
-27.99
-26.68
-24.75
-22.26
-19.62
-17.49
-16.66
-17.78
-21.11
-26.34
-32.77
-39.40
-45.27
-49.72
-52.45
-53.64
-53.83
-53.76
-54.19
-55.66
-58.43
-62.38
-67.07
-71.83
-75.90
-78.72
-80.11
-80.48
-80.82
-82.55
-87.11
-95.66
-108.78
-126.43
-148.17
-173.25
-200.63
-228.63
-254.60
-274.91
-285.52
-283.04
-266.01
-235.57
-195.39
-150.61
-106.43
-66.87
-34.18
-8.97
9.26
21.57
29.30
33.83
36.55
38.58
40.62
42.87
45.10
46.77
47.20
45.86
42.71
38.57
35.10
34.39
37.98
46.06
57.03
68.10
76.42
80.29
79.76
76.28
71.78
67.66
64.35
61.59
58.90
56.11
53.38
51.00
49.09
47.50
45.91
43.98
41.51
38.59
35.46
32.44
29.76
27.43
25.32
23.21
20.93
18.52
16.19
14.18
12.66
11.49
10.34
8.75
6.44
3.45
0.21
-2.63
-4.41
-4.81
-3.90
-2.17
-0.34
0.85
0.83
-0.59
-3.16
-6.28
-9.12
-10.92
-11.26
-10.26
-8.58
-7.15
-6.73
-7.61
-9.55
-11.95
-14.23
-16.04
-17.30
-18.12
-18.51
-18.31
-17.31
-15.41
-12.74
-9.67
-6.52
-3.43
-0.31
3.08
6.83
10.76
14.45
17.34
19.08
19.59
19.17
18.32
17.49
16.97
16.71
16.41
15.58
13.84
10.99
7.20
2.97
-0.98
-3.96
-5.56
-5.84
-5.29
-4.72
-4.88
-6.24
-8.76
-11.92
-15.00
-17.35
-18.63
-18.89
-18.44
-17.61
-16.64
-15.66
-14.70
-13.88
-13.36
-13.28
-13.63
-14.18
-14.54
-14.27
-13.10
-11.02
-8.34
-5.53
-3.04
-1.21
-0.10
0.45
0.78
1.28
2.27
3.84
5.84
7.91
9.57
10.40
10.21
9.03
7.02
4.41
1.39
-1.88
-5.22
-8.35
-10.92
-12.56
-13.07
-12.55
-11.39
-10.20
-9.61
-10.11
-11.86
-14.69
-18.05
-21.25
-23.62
-24.72
-24.43
-22.97
-20.75
-18.28
-15.93
-13.87
-11.98
-9.87
-7.04
-3.04
2.31
8.76
15.66
22.09
27.21
30.50
31.97
32.09
31.57
31.10
31.12
31.68
32.55
33.41
33.98
34.23
34.25
34.21
34.11
33.83
33.17
32.07
30.71
29.54
29.04
29.49
30.76
32.34
33.60
34.01
33.46
32.19
30.64
29.19
27.96
26.76
25.33
23.44
21.14
18.71
16.54
14.94
14.02
13.66
13.56
13.42
12.92
11.88
10.14
7.68
4.45
0.43
-4.42
-10.15
-16.64
-23.55
-30.37
-36.54
-41.72
-45.88
-49.27
-52.22
-54.87
-56.98
-58.07
-57.58
-55.15
-50.80
-44.92
-38.17
-31.25
-24.83
-19.35
-15.02
-11.75
-9.24
-7.04
-4.70
-1.86
1.69
5.94
10.71
15.58
20.13
23.98
26.95
29.07
30.51
31.45
32.01
32.29
32.47
32.83
33.75
35.48
38.04
41.12
44.15
46.61
48.15
48.67
48.34
47.35
45.90
44.07
41.92
39.48
36.75
33.72
30.30
26.38
21.82
16.45
10.11
2.64
-6.06
-15.88
-26.43
-37.03
-46.95
-55.65
-62.94
-68.94
-73.85
-77.67
-80.19
-81.12
-80.42
-78.37
-75.54
-72.36
-68.89
-64.69
-59.09
-51.58
-42.18
-31.56
-20.77
-10.84
-2.50
3.99
8.85
12.53
15.62
18.61
21.88
25.61
29.72
33.92
37.75
40.67
42.26
42.31
40.91
38.35
35.06
31.43
27.86
24.71
22.39
21.29
21.71
23.77
27.33
31.94
36.92
41.54
45.18
47.52
48.63
48.82
48.49
47.85
46.82
45.07
42.26
38.32
33.52
28.41
23.55
19.25
15.43
11.69
7.46
2.20
-4.45
-12.57
-21.95
-32.19
-42.84
-53.52
-64.00
-74.10
-83.51
-91.70
-97.95
-101.58
-102.23
-99.93
-95.05
-88.02
-79.21
-68.87
-57.27
-44.90
-32.43
-20.56
-9.78
-0.22
8.21
15.63
21.98
27.09
30.82
33.33
34.98
36.28
37.55
38.82
39.88
40.48
40.51
40.05
39.22
38.09
36.60
34.75
32.69
30.77
29.37
28.67
28.52
28.62
28.79
29.16
30.08
31.78
34.02
36.07
37.05
36.42
34.37
31.68
29.30
27.74
26.73
25.43
22.88
18.55
12.57
5.61
-1.54
-8.28
-14.44
-20.24
-26.09
-32.31
-38.99
-45.90
-52.50
-58.15
-62.24
-64.42
-64.77
-63.76
-62.18
-60.84
-60.38
-61.16
-63.24
-66.37
-69.96
-73.04
-74.33
-72.54
-66.89
-57.58
-45.93
-34.01
-23.90
-16.80
-12.57
-9.94
-7.27
-3.37
1.92
7.93
13.74
18.88
23.55
28.48
34.27
40.96
47.86
53.85
57.99
59.94
60.10
59.30
58.37
57.66
56.96
55.60
52.78
47.92
40.89
32.09
22.37
12.73
3.98
-3.62
-10.49
-17.56
-25.83
-36.05
-48.57
-63.28
-79.66
-96.78
-113.10
-126.51
-134.64
-135.52
-128.34
-113.90
-94.34
-72.50
-50.85
-30.93
-13.13
2.80
17.22
30.17
41.29
50.15
56.59
60.91
63.81
66.10
68.40
70.91
73.46
75.72
77.43
78.46
78.90
78.86
78.48
77.87
77.22
76.64
76.09
75.24
73.52
70.39
65.63
59.51
52.66
45.74
39.14
32.88
26.78
20.71
14.71
8.95
3.46
-1.97
-7.72
-14.08
-21.00
-28.01
-34.44
-39.82
-44.12
-47.71
-51.10
-54.55
-57.87
-60.59
-62.26
-62.67
-62.04
-60.81
-59.30
-57.52
-55.21
-52.18
-48.51
-44.60
-40.85
-37.51
-34.47
-31.35
-27.68
-23.20
-18.07
-12.81
-8.03
-3.99
-0.62
2.42
5.65
9.57
14.43
19.98
25.41
29.64
32.24
33.15
32.79
32.02
31.96
33.49
36.63
40.42
43.32
44.93
44.85
42.37
37.08
29.94
24.08
24.28
35.30
59.60
97.20
142.89
187.52
221.71
239.98
242.64
234.40
221.58
209.29
202.53
203.00
209.07
216.99
222.65
222.55
214.02
195.63
154.65
90.56
15.54
-52.44
-101.50
-129.85
-141.92
-143.60
-139.73
-136.47
-133.74
-130.27
-125.83
-121.68
-119.63
-121.08
-127.10
-139.10
-156.31
-176.34
-196.60
-215.40
-232.71
-249.26
-265.25
-280.24
-293.76
-308.23
-324.04
-339.72
-352.17
-357.65
-352.58
-334.09
-301.23
-240.98
-157.15
-66.97
10.08
64.68
98.66
118.24
129.02
134.19
135.18
130.58
122.97
115.63
112.69
117.02
128.30
143.81
159.50
171.38
174.83
168.67
155.79
137.76
118.50
100.93
86.40
74.86
65.46
56.16
46.23
36.35
27.88
21.93
18.04
14.86
11.16
6.39
0.26
-6.53
-12.78
-17.38
-19.59
-19.84
-19.20
-18.81
-19.34
-21.12
-23.75
-26.47
-28.37
-28.64
-27.09
-24.04
-20.16
-16.16
-12.64
-9.91
-8.03
-6.76
-5.65
-4.43
-3.07
-1.76
-0.73
-0.11
0.15
0.18
0.13
0.07
-0.04
-0.31
-0.77
-1.28
-1.64
-1.65
-1.26
-0.60
0.06
0.45
0.39
-0.14
-0.99
-1.97
-2.85
-3.51
-3.93
-4.22
-4.57
-5.14
-6.04
-7.18
-8.27
-8.95
-8.90
-7.97
-6.30
-4.19
-2.01
-0.03
1.62
2.92
3.89
4.52
4.80
4.74
4.48
4.23
4.14
4.30
4.60
4.85
4.84
4.45
3.72
2.81
1.92
1.25
0.88
0.78
0.83
0.90
0.90
0.75
0.45
-0.02
-0.67
-1.51
-2.52
-3.61
-4.65
-5.48
-6.04
-6.39
-6.72
-7.19
-7.86
-8.59
-9.05
-8.93
-8.05
-6.49
-4.57
-2.66
-1.01
0.29
1.33
2.23
3.04
3.70
4.06
4.07
3.76
3.28
2.78
2.42
2.24
2.22
2.30
2.34
2.21
1.78
1.02
0.02
-0.95
-1.51
-1.33
-0.30
1.41
3.36
5.00
5.86
5.79
4.91
3.58
2.17
0.97
0.05
-0.66
-1.30
-1.98
-2.76
-3.64
-4.55
-5.34
-5.83
-5.85
-5.29
-4.25
-2.91
-1.55
-0.38
0.49
1.05
1.38
1.50
1.46
1.32
1.16
1.12
1.30
1.73
2.30
2.84
3.21
3.33
3.23
2.99
2.78
2.71
2.89
3.33
3.92
4.46
4.74
4.65
4.23
3.71
3.37
3.43
3.99
4.95
6.05
6.96
7.32
6.87
5.50
3.42
1.09
-0.82
-1.68
-1.09
0.89
3.82
7.02
9.83
11.79
12.68
12.46
11.18
8.94
5.88
2.28
-1.47
-4.94
-7.81
-9.98
-11.60
-12.99
-14.49
-16.31
-18.51
-21.03
-23.73
-26.41
-28.86
-30.84
-32.13
-32.62
-32.36
-31.53
-30.36
-29.00
-27.48
-25.71
-23.52
-20.74
-17.22
-12.90
-7.87
-2.42
2.89
7.39
10.53
12.15
12.70
13.03
14.09
16.48
20.15
24.38
28.15
30.55
31.12
29.99
27.71
24.99
22.42
20.25
18.46
16.90
15.41
14.00
12.75
11.72
10.80
9.69
8.08
5.86
3.30
0.92
-0.74
-1.49
-1.58
-1.54
-1.95
-3.01
-4.52
-5.98
-6.86
-6.87
-6.00
-4.53
-2.81
-1.16
0.20
1.20
1.91
2.54
3.39
4.73
6.68
9.15
11.83
14.29
16.11
16.95
16.69
15.39
13.27
10.71
8.07
5.66
3.62
1.90
0.28
-1.53
-3.76
-6.48
-9.57
-12.69
-15.44
-17.48
-18.67
-19.10
-19.04
-18.85
-18.76
-18.86
-19.02
-19.00
-18.50
-17.31
-15.37
-12.84
-10.12
-7.81
-6.51
-6.63
-8.07
-10.17
-11.86
-12.03
-9.95
-5.58
0.35
6.65
12.05
15.63
17.07
16.67
15.14
13.25
11.64
10.65
10.32
10.51
10.99
11.55
12.00
12.16
11.92
11.26
10.28
9.21
8.29
7.69
7.47
7.54
7.78
8.09
8.44
8.91
9.57
10.45
11.36
12.00
11.93
10.91
8.99
6.64
4.61
3.67
4.28
6.33
9.25
12.14
14.25
15.17
14.94
13.91
12.48
10.89
9.14
7.06
4.45
1.22
-2.59
-6.83
-11.29
-15.74
-19.94
