1660752641.00
64.000000
-0.00
-0.00
-0.00
-0.00
-0.00
-0.00
-0.00
-0.00
-0.00
-0.00
0.00
0.01
0.01
-0.00
-0.03
-0.05
-0.05
0.00
0.13
0.36
0.66
1.01
1.37
1.72
2.06
2.40
2.79
3.24
3.80
4.42
5.06
5.66
6.20
6.68
7.15
7.68
8.31
9.14
10.09
11.04
11.88
12.56
13.14
13.76
14.65
15.96
17.91
20.32
22.90
25.38
27.58
29.57
31.68
34.32
37.81
42.54
48.15
54.10
59.83
64.97
69.58
74.14
79.34
85.71
93.76
103.00
112.62
121.73
129.77
136.75
143.30
150.75
157.77
166.64
177.95
191.79
206.97
220.57
228.25
225.36
208.53
176.87
132.76
80.05
23.07
-34.94
-92.44
-149.16
-205.23
-260.37
-313.74
-363.87
-409.83
-450.91
-486.50
-515.74
-537.23
-549.22
-549.96
-538.37
-514.21
-478.67
-433.88
-382.45
-327.02
-269.84
-212.63
-156.66
-102.95
-52.37
-5.90
35.58
71.43
101.35
125.50
144.38
158.69
169.15
176.37
180.75
182.57
182.07
179.51
175.23
169.65
163.18
156.15
148.81
141.30
133.69
126.02
118.33
110.69
103.16
95.80
88.68
81.83
75.25
68.95
62.95
57.25
51.86
46.78
42.03
37.59
33.45
29.61
26.07
22.81
19.83
17.11
14.67
12.48
10.54
8.83
7.35
6.07
4.97
4.05
3.27
2.62
2.09
1.65
1.30
1.01
0.79
0.61
0.48
0.37
0.29
0.23
0.19
0.18
0.18
0.20
0.23
0.25
0.23
0.17
0.09
0.00
-0.06
-0.07
-0.03
0.04
0.10
0.13
0.10
0.03
-0.03
-0.06
-0.02
0.08
0.20
0.29
0.28
0.17
-0.01
-0.17
-0.20
-0.04
0.29
0.69
0.98
1.00
0.71
0.21
-0.27
-0.49
-0.25
0.40
1.23
1.87
1.98
1.45
0.48
-0.51
-1.01
-0.68
0.41
1.84
2.94
3.17
2.31
0.69
-0.96
-1.88
-1.65
-0.35
1.38
2.68
2.75
1.10
-2.55
-8.15
-15.19
-22.42
-27.80
-29.12
-24.77
-14.81
-1.26
12.52
23.25
29.10
30.21
28.27
25.26
22.39
19.74
16.83
13.51
10.45
9.03
10.52
15.19
22.02
29.03
33.93
35.02
31.78
25.05
16.53
8.59
3.01
0.45
0.32
1.10
1.22
-0.31
-3.47
-7.43
-11.27
-14.81
-18.48
-23.33
-30.27
-39.48
-50.19
-61.19
-71.27
-79.57
-85.37
-87.79
-85.75
-78.53
-66.57
-51.82
-37.27
-25.56
-17.76
-12.92
-8.87
-3.77
2.64
8.92
12.89
13.12
9.95
5.13
0.69
-2.22
-3.89
-5.59
-8.69
-13.75
-20.08
-25.79
-28.90
-28.07
-23.19
-15.45
-6.89
0.36
4.72
5.60
3.58
-0.17
-4.43
-8.28
-11.23
-13.20
-14.24
-14.16
-14.14
-14.38
-14.78
-15.12
-15.18
-14.90
-14.42
-13.89
-13.47
-13.21
-12.84
-12.25
-11.47
-10.72
-10.35
-10.66
-11.91
-14.14
-17.39
-21.51
-26.49
-32.42
-39.20
-46.25
-52.33
-55.72
-54.73
-48.34
-36.55
-20.67
-2.81
14.66
29.83
41.59
49.66
54.40
56.50
56.79
55.89
54.20
51.81
48.70
44.83
40.34
35.52
30.75
26.34
22.43
18.97
15.83
12.87
9.98
7.08
4.07
0.86
-2.58
-6.17
-9.77
-13.24
-16.59
-20.05
-24.09
-29.27
-36.01
-44.17
-52.98
-60.95
-66.31
-67.56
-64.04
-56.31
-46.02
-35.38
-26.43
-20.44
-17.66
-17.52
-19.07
-21.43
-24.09
-26.84
-29.62
-32.23
-34.30
-35.32
-34.85
-32.70
-29.02
-24.19
-18.70
-12.90
-7.03
-1.20
4.48
9.74
14.24
17.61
19.59
20.13
19.29
17.09
13.45
8.19
1.19
-7.43
-17.16
-27.10
-36.18
-43.39
-48.03
-49.84
-49.02
-46.22
-42.23
-37.71
-32.87
-27.48
-21.08
-13.47
-5.01
3.43
10.87
16.89
21.95
27.21
33.75
41.75
50.14
57.03
60.84
61.39
60.15
59.71
62.45
69.47
80.23
92.91
105.40
115.98
123.60
127.73
128.18
125.31
120.44
115.96
114.63
118.21
126.12
135.27
140.99
139.02
127.64
108.48
85.77
64.27
47.23
35.43
27.89
22.82
18.50
13.59
7.06
-2.20
-15.08
-31.68
-50.58
-68.37
-81.22
-86.30
-82.70
-71.35
-54.14
-33.10
-9.93
14.07
39.30
65.57
91.54
115.14
134.92
150.70
163.04
172.44
178.63
183.82
188.84
192.45
192.16
186.44
176.01
163.26
150.95
141.26
140.38
151.63
173.37
199.72
224.40
243.76
256.97
265.40
271.43
284.00
308.65
344.04
382.83
416.85
441.50
456.06
462.37
421.13
314.83
156.42
-16.81
-169.58
-285.03
-361.97
-407.43
-430.76
-440.95
-438.56
-423.85
-400.39
-374.23
-350.83
-332.61
-320.07
-312.45
-308.66
-302.47
-289.58
-270.01
-247.59
-226.95
-208.07
-191.47
-177.59
-167.03
-156.82
-144.56
-129.76
-113.75
-98.26
-84.43
-74.44
-69.72
-69.93
-70.58
-66.33
-53.85
-33.61
-9.58
12.46
25.19
23.92
8.12
-17.89
-48.28
-78.59
-106.71
-132.12
-145.68
-140.25
-114.46
-75.05
-31.75
7.50
38.11
58.64
70.30
76.06
76.34
72.11
63.86
52.40
38.26
21.72
3.80
-13.04
-25.23
-32.23
-30.11
-17.80
2.72
25.95
44.47
51.61
43.98
22.00
-13.44
-58.35
-106.61
-150.89
-184.53
-202.75
-203.37
-186.72
-144.90
-83.38
-18.30
32.84
60.71
65.21
52.73
30.53
4.71
-19.88
-42.17
-61.88
-76.43
-84.03
-84.20
-77.60
-65.68
-50.12
-32.80
-17.11
-5.06
3.44
9.63
14.99
20.50
26.40
32.49
38.34
42.67
45.07
46.14
46.70
47.32
48.19
49.14
50.00
50.54
49.87
47.28
42.52
35.72
27.39
18.47
10.03
2.98
-2.22
-5.91
-8.86
-11.93
-15.98
-21.51
-28.53
-36.42
-43.98
-49.81
-52.74
-52.31
-48.90
-43.58
-37.51
-31.40
-25.34
-18.83
-11.27
-2.33
7.80
18.50
28.95
38.41
46.39
52.58
56.83
59.07
59.29
57.68
54.66
50.82
46.77
43.02
39.84
37.33
35.38
33.78
32.19
30.15
27.19
22.95
17.29
10.41
2.78
-4.98
-12.13
-17.91
-21.59
-22.61
-20.76
-16.38
-10.39
-4.08
1.25
4.71
6.14
6.03
5.21
4.40
3.94
3.56
2.71
0.79
-2.41
-6.66
-11.25
-15.34
-18.17
-19.26
-18.52
-16.22
-12.99
-9.58
-6.69
-4.68
-3.42
-2.23
-0.26
3.21
8.28
14.28
19.92
23.65
24.14
20.81
13.98
4.88
-4.52
-12.15
-16.27
-15.98
-11.37
-3.41
6.47
16.74
26.00
33.23
37.67
38.98
37.20
32.84
26.79
20.21
14.26
9.89
7.63
7.55
9.26
12.12
15.32
18.17
20.24
21.41
21.88
22.04
22.26
22.81
23.69
24.65
25.21
24.83
23.04
19.63
14.82
9.22
3.81
-0.29
-2.13
-1.04
3.15
10.13
19.23
29.58
40.38
51.01
61.14
70.60
79.27
86.97
93.39
98.32
101.68
103.76
105.16
106.69
109.17
113.32
119.67
128.43
139.36
151.41
162.64
170.36
171.73
164.75
148.94
125.76
98.18
69.74
43.56
21.52
4.08
-9.48
-20.55
-30.54
-40.44
-50.44
-59.97
-67.93
-73.20
-75.13
-73.91
-70.49
-66.24
-62.40
-59.68
-58.19
-57.52
-56.99
-55.74
-52.90
-47.81
-40.39
-31.44
-22.59
-15.77
-12.35
-12.35
-14.22
-15.31
-12.96
-5.57
6.81
22.57
39.23
54.30
65.95
73.30
76.34
75.67
72.18
66.85
60.57
54.14
48.11
42.94
39.06
37.09
37.92
42.51
51.45
64.34
79.29
92.92
101.07
100.42
90.00
72.14
51.81
34.66
24.25
20.33
18.96
14.79
4.26
-12.05
-29.56
-42.12
-45.74
-41.04
-33.15
-28.97
-33.54
-47.59
-67.52
-87.42
-101.72
-106.91
-101.76
-86.41
-61.79
-29.97
4.98
36.77
58.80
67.22
63.43
54.15
48.35
52.43
66.60
84.68
97.14
95.99
78.23
46.60
7.55
-31.72
-65.51
-90.23
-104.13
-107.13
-101.24
-90.80
-81.48
-77.99
-81.54
-88.92
-93.63
-88.76
-70.37
-39.17
-0.20
39.29
72.44
94.56
103.53
99.44
83.83
59.03
28.00
-6.00
-40.20
-73.03
-104.63
-136.03
-167.60
-197.44
-220.78
-231.23
-223.29
-194.99
-149.12
-92.46
-33.49
20.13
63.04
92.62
108.63
112.91
109.47
104.40
104.80
116.47
141.46
176.54
214.05
244.74
261.32
260.95
245.66
220.63
191.76
163.62
138.77
118.12
101.73
89.38
80.49
73.93
67.98
60.98
51.87
40.77
28.93
18.07
9.74
4.66
2.63
2.78
3.97
5.17
5.75
4.24
0.23
-5.22
-10.41
-14.29
-16.67
-17.89
-18.44
-18.70
-20.13
-23.34
-27.55
-31.44
-34.23
-35.96
-37.11
-38.25
-39.83
-45.25
-56.06
-70.63
-85.72
-99.15
-110.34
-119.48
-126.93
-132.85
-145.91
-170.24
-201.41
-231.00
-253.67
-268.63
-277.34
-281.61
-282.84
-299.51
-340.48
-397.03
-451.92
-494.31
-522.56
-539.65
-549.16
-553.70
-582.83
-650.62
-743.06
-832.77
-902.56
-950.12
-980.44
-999.53
-1011.84
-1056.66
-1153.11
-1284.04
-1415.09
-1525.25
-1612.60
-1684.32
-1748.24
-1578.88
-1108.01
-472.36
120.32
562.81
853.53
1031.41
1136.41
1197.85
1234.26
1220.09
1145.07
1033.96
929.14
859.29
831.25
837.72
865.30
900.01
902.95
855.43
771.99
684.06
613.55
565.86
536.76
519.62
509.37
485.94
440.50
382.08
327.51
286.41
258.90
240.73
227.98
218.57
203.38
178.57
148.53
121.14
100.65
86.61
76.73
69.04
62.66
54.44
43.22
30.71
19.63
11.29
5.24
0.43
-3.90
-8.01
-11.77
-14.91
-17.34
-19.22
-20.84
-22.57
-24.65
-27.13
-29.88
-32.80
-35.54
-37.88
-39.70
-40.91
-41.37
-40.95
-39.47
-36.77
-32.78
-27.58
-21.24
-14.02
-6.27
1.61
9.18
16.04
21.87
26.44
29.66
31.58
32.32
32.12
31.25
30.00
28.57
27.16
25.83
24.57
23.31
21.94
20.33
18.37
15.96
13.05
9.72
5.99
1.99
-2.24
-6.53
-10.79
-15.02
-19.27
-23.66
-28.37
-33.59
-39.56
-46.48
-54.26
-62.79
-71.88
-81.25
-90.65
-99.78
-108.42
-116.48
-124.04
-130.91
-137.07
-142.61
-147.65
-152.31
-156.70
-160.94
-165.14
-169.51
-173.71
-177.42
-180.26
-181.71
-181.07
-177.50
-169.94
-156.99
-140.79
-122.28
-102.28
-81.51
-60.52
-39.73
-19.48
-0.17
17.72
33.51
47.03
58.15
66.94
73.78
79.30
84.19
88.95
93.69
98.12
102.09
105.32
107.68
109.37
110.96
113.43
118.08
126.31
139.10
156.61
177.35
198.20
215.10
224.19
223.13
211.76
192.07
167.44
141.71
118.15
98.90
84.72
75.04
68.05
61.19
51.80
37.98
19.38
-2.50
-24.61
-43.27
-55.17
-58.43
-53.25
-41.88
-28.07
-15.99
-8.99
-8.65
-14.31
-23.46
-32.53
-38.11
-37.89
-31.22
-19.21
-4.35
10.25
21.78
28.54
30.44
28.90
26.15
24.34
24.58
26.61
29.03
30.09
28.60
24.54
19.09
14.08
11.15
11.12
13.71
17.87
22.32
25.99
28.28
28.80
27.27
23.41
17.32
9.77
2.41
-2.63
-3.54
0.33
8.08
17.47
25.82
31.13
32.74
31.56
29.43
28.28
29.22
32.16
35.91
38.65
38.65
34.93
27.57
17.79
7.59
-0.86
-5.91
-7.05
-5.18
-2.26
-0.65
-2.23
-7.81
-16.85
-27.79
-38.54
-47.05
-51.78
-51.94
-47.68
-39.95
-30.35
-20.75
-12.82
-7.55
-4.99
-4.23
-3.65
-1.42
3.80
12.38
23.43
34.97
44.63
50.54
52.01
49.83
45.82
42.07
40.10
40.42
42.60
45.69
48.73
51.04
52.30
52.37
51.23
48.90
45.52
41.40
36.98
32.73
29.03
26.03
23.56
21.14
18.10
13.79
7.77
0.00
-9.10
-18.77
-28.04
-35.85
-41.22
-43.42
-42.13
-37.73
-31.33
-24.55
-19.00
-15.64
-14.32
-13.87
-12.69
-9.53
-4.22
2.29
8.35
12.39
13.64
12.32
9.49
6.51
4.67
4.89
7.65
12.94
20.19
28.25
35.55
40.38
41.52
38.67
32.71
25.41
18.75
14.14
11.83
11.01
10.30
8.58
5.56
1.83
-1.51
-3.59
-4.21
-3.89
-3.50
-3.66
-4.47
-5.51
-6.23
-6.33
-5.84
-4.99
-3.87
-2.26
0.31
4.21
9.42
15.33
20.93
25.10
27.14
26.95
25.13
22.75
20.93
20.48
21.59
23.81
26.13
27.40
26.66
23.55
18.32
11.81
5.08
-0.87
-5.36
-8.17
-9.50
-9.84
-9.80
-10.06
-11.22
-13.74
-17.91
-23.70
-30.70
-38.06
-44.48
-48.41
-48.52
-44.18
-35.89
-25.35
-14.99
-7.11
-2.91
-1.89
-2.04
-0.66
4.29
13.25
24.65
35.66
43.23
45.30
41.42
32.74
21.52
10.45
2.11
-1.42
0.94
9.00
21.01
33.98
44.50
49.90
49.11
43.01
33.83
24.23
16.30
11.01
8.18
6.69
4.91
1.22
-5.38
-14.79
-25.59
-35.44
-42.08
-44.41
-43.07
-40.18
-38.11
-38.23
-40.18
-42.12
-41.95
-38.40
-31.67
-23.18
-14.63
-7.19
-1.09
4.03
8.55
12.49
15.43
16.98
17.13
16.50
16.01
16.35
17.62
19.21
20.19
19.73
17.50
13.64
8.58
2.86
-2.98
-8.17
-11.66
-12.28
-9.19
-2.43
6.86
16.69
24.86
29.78
30.91
28.75
24.36
18.72
12.34
5.29
-2.52
-10.96
-19.45
-27.05
-32.75
-35.77
-35.73
-32.74
-27.31
-20.23
-12.41
-4.75
1.98
7.26
10.81
12.60
12.80
11.73
9.89
7.96
6.65
6.52
7.65
9.54
11.27
11.93
11.10
9.15
7.05
5.84
6.02
7.19
8.26
8.05
5.96
2.36
-1.67
-4.94
-6.70
-6.99
-6.40
-5.74
-5.55
-6.06
-7.26
-9.10
-11.54
-14.44
-17.49
-20.18
-22.06
-22.92
-22.99
-22.70
-22.51
-22.58
-22.68
-22.43
-21.55
-20.13
-18.59
-17.52
-17.35
-18.12
-19.53
-21.03
-22.09
-22.37
-21.74
-20.24
-18.05
-15.37
-12.48
-9.73
-7.45
-5.87
-5.01
-4.60
-4.17
-3.22
-1.45
1.12
4.00
6.42
7.51
6.68
3.81
-0.57
-5.43
-9.51
-11.59
-10.90
-7.20
-0.92
7.01
15.39
22.98
28.88
32.66
34.46
34.82
34.56
34.48
35.20
36.98
39.73
42.97
45.96
47.90
48.14
46.52
43.42
39.69
36.25
33.69
31.87
29.96
26.62
20.62
11.28
-1.12
-15.33
-29.40
-41.16
-48.71
-50.90
-47.59
-39.68
-28.96
-17.71
-8.13
-1.90
0.18
-1.85
-7.23
-14.79
-23.26
-31.50
-38.62
-44.09
-47.66
-49.41
-49.54
-48.26
-45.74
-42.03
-37.11
-31.05
-24.06
-16.50
-8.89
-1.78
4.30
8.98
12.13
13.93
14.89
15.77
17.26
19.78
23.23
26.93
29.77
30.60
28.68
24.05
17.65
10.99
5.69
2.81
2.57
4.32
6.89
9.01
9.70
8.39
4.94
-0.43
-7.07
-13.93
-19.68
-23.15
-23.73
-21.72
-18.21
-14.62
-12.09
-11.05
-11.15
-11.58
-11.48
-10.33
-8.04
-4.87
-1.17
2.74
6.76
10.94
15.41
20.21
25.20
29.91
33.67
35.75
35.57
32.95
28.24
22.27
16.24
11.33
8.40
7.66
8.67
10.48
12.05
12.61
11.91
10.08
7.47
4.44
1.19
-2.07
-5.05
-7.41
-8.95
-9.83
-10.73
-12.68
-16.64
-22.91
-30.73
-38.33
-43.49
-44.35
-40.23
-31.94
-21.57
-11.74
-4.65
-1.52
-2.25
-5.78
-10.51
-14.91
-17.82
-18.65
-17.34
-14.30
-10.30
-6.26
-2.98
-0.93
0.01
0.55
1.75
4.70
10.06
17.75
26.91
36.09
43.82
49.14
52.00
53.34
54.72
57.76
63.47
71.92
82.18
92.45
100.36
103.22
98.39
83.89
59.30
26.52
-10.07
-44.41
-70.53
-84.47
-85.61
-76.64
-62.31
-47.60
-36.09
-29.28
-26.84
-27.50
-29.89
-32.98
-36.07
-38.67
-40.39
-41.05
-40.85
-40.34
-40.22
-41.01
-42.75
-44.92
-46.67
-47.09
-45.67
-42.46
-38.09
-33.58
-30.02
-28.26
-28.71
-31.22
-35.16
-39.57
-43.53
-46.34
-47.72
-47.74
-46.66
-44.80
-42.37
-39.40
-35.73
-31.08
-25.17
-17.82
-9.18
0.19
9.37
17.31
23.16
26.61
27.98
28.14
28.18
29.08
31.44
35.38
40.52
46.11
51.22
54.94
56.70
56.35
54.34
51.48
48.76
47.07
46.90
48.23
50.44
52.47
52.99
50.90
45.77
38.05
29.08
20.53
13.78
9.35
6.75
4.80
2.23
-1.81
-7.44
-14.24
-21.49
-28.48
-34.69
-39.74
-43.35
-45.33
-45.66
-44.58
-42.55
-40.23
-38.23
-36.95
-36.40
-36.21
-35.73
-34.28
-31.42
-27.26
-22.49
-18.24
-15.54
-14.85
-15.72
-16.96
-17.12
-15.20
-11.12
-5.77
-0.55
3.31
5.27
5.66
5.42
5.56
6.64
8.61
10.92
12.83
13.81
13.71
12.73
11.18
9.28
6.97
4.06
0.31
-4.28
-9.34
-14.23
-18.17
-20.59
-21.32
-20.64
-19.12
-17.35
-15.71
-14.36
-13.37
-12.93
-13.36
-14.90
-17.34
-19.91
-21.40
-20.77
-17.67
-12.73
-7.29
-2.77
-0.05
0.87
0.70
0.42
0.79
2.14
4.40
7.26
10.40
13.45
16.06
17.89
18.65
18.25
16.77
14.41
11.28
7.36
2.52
-3.19
-9.41
-15.41
-20.27
-23.26
-24.15
-23.30
-21.46
-19.39
-17.59
-16.12
-14.72
-13.06
-10.89
-8.19
-5.05
-1.67
1.80
5.22
8.44
11.28
13.52
14.90
15.29
14.77
13.72
12.78
12.57
13.46
15.27
17.25
18.26
17.20
13.58
7.78
1.05
-4.96
-8.87
-10.15
-9.28
-7.45
-5.90
-5.31
-5.60
-6.10
-6.10
-5.24
-3.70
-2.01
-0.61
0.32
0.99
1.71
2.68
3.86
5.10
6.36
7.78
9.70
12.38
15.80
19.58
23.12
25.88
27.55
28.15
27.93
27.27
26.64
26.59
27.75
30.68
35.57
41.97
48.68
54.08
56.70
55.90
52.27
47.61
44.25
44.32
48.96
57.96
69.97
82.94
94.88
104.32
110.67
114.11
115.44
115.60
115.34
114.82
113.52
110.28
103.60
91.89
73.76
48.33
15.75
-22.45
-63.11
-101.74
-133.53
-154.71
-163.79
-161.99
-152.73
-140.34
-128.64
-119.91
-114.73
-112.28
-111.08
-109.57
-106.53
-101.27
-93.71
-84.34
-74.11
-64.11
-55.41
-48.77
-44.55
-42.65
-42.58
-43.48
-44.23
-43.70
-41.02
-35.81
-28.30
-19.33
-10.11
-1.93
4.24
7.93
9.37
9.39
9.26
10.50
14.54
22.36
34.04
48.41
63.13
75.27
82.23
82.72
77.23
67.68
56.54
45.69
35.87
26.87
18.23
9.95
2.72
-2.53
-5.33
-6.19
-6.47
-7.87
-11.60
-17.88
-25.92
-34.25
-41.35
-46.13
-48.17
-47.65
-45.18
-41.58
-37.75
-34.55
-32.73
-32.79
-34.82
-38.43
-42.72
-46.59
-49.02
-49.46
-47.99
-45.26
-42.18
-39.64
-38.22
-38.13
-39.23
-41.14
-43.32
-45.17
-46.05
-45.42
-42.89
-38.35
-32.12
-24.95
-18.01
-12.60
-9.65
-9.38
-11.01
-13.00
-13.57
-11.49
-6.49
0.56
8.15
14.77
19.50
22.33
23.93
25.21
26.84
29.04
31.63
34.27
36.72
38.86
40.71
42.24
43.27
43.51
42.59
40.32
36.72
32.06
26.72
21.17
15.85
11.14
7.28
4.36
2.40
1.37
1.22
1.99
3.75
6.50
10.01
13.74
16.79
18.20
17.31
14.07
9.23
4.05
-0.10
-2.27
-2.28
-0.72
1.42
3.15
3.85
3.41
2.06
0.18
-1.92
-4.06
-6.14
-8.00
-9.42
-10.07
-9.74
-8.45
-6.68
-5.25
-5.05
-6.66
-9.99
-14.30
-18.44
-21.36
-22.52
-22.05
-20.54
-18.62
-16.55
-14.15
-10.85
-6.11
0.24
7.90
16.09
23.88
30.48
35.46
38.81
40.79
41.71
41.74
40.81
38.82
35.81
32.19
28.68
26.17
25.36
26.44
29.09
32.58
36.07
38.92
40.75
41.51
41.34
40.48
39.19
37.71
36.10
34.16
31.36
26.93
20.09
10.43
-1.80
-15.59
-29.32
-41.14
-49.50
-53.52
-53.20
-49.33
-43.27
-36.52
-30.49
-26.19
-24.22
-24.67
-27.15
-30.76
-34.20
-36.05
-35.19
-31.21
-24.73
-17.28
-10.86
-7.14
-6.78
-9.15
-12.59
-15.16
-15.51
-13.48
-9.98
-6.45
-4.09
-3.27
-3.56
-4.09
-4.17
-3.53
-2.42
-1.21
-0.19
0.57
1.09
1.24
0.69
-0.89
-3.58
-6.97
-10.27
-12.53
-13.07
-11.71
-8.80
-5.03
-1.24
1.79
3.47
3.46
1.88
-0.64
-3.04
-4.20
-3.49
-1.07
2.03
4.47
5.35
4.75
3.80
4.08
6.78
12.04
18.75
25.08
29.27
30.37
28.42
24.27
18.96
13.30
7.63
2.06
-3.32
-8.19
-11.99
-14.18
-14.40
-12.60
-8.98
-4.00
1.73
7.30
11.61
13.63
12.84
9.57
5.14
1.33
-0.29
0.91
4.48
9.12
13.41
16.41
17.94
18.47
18.70
19.14
19.93
20.90
21.72
22.14
22.03
21.37
20.14
18.23
15.57
12.20
8.46
5.04
2.86
2.82
5.40
10.40
16.82
22.94
26.75
26.49
21.30
11.66
-0.63
-12.80
-22.03
-26.25
-24.86
-18.70
-9.59
0.47
9.96
18.16
24.91
30.29
34.20
36.32
36.25
33.83
29.32
23.31
16.49
9.35
2.09
-5.23
-12.46
-19.21
-24.85
-28.79
-30.78
-31.00
-30.01
-28.56
-27.30
-26.64
-26.71
-27.34
-28.08
-28.30
-27.34
-24.74
-20.55
-15.42
-10.50
-7.08
-6.10
-7.79
-11.50
-15.95
-19.56
-21.00
-19.45
-14.77
-7.38
1.96
12.35
22.99
33.18
42.35
49.94
55.46
58.50
58.78
56.19
50.78
42.80
32.71
21.18
9.16
-2.25
-11.92
-18.92
-22.77
-23.53
-21.86
-18.77
-15.35
-12.47
-10.69
-10.19
-10.93
-12.79
-15.58
-19.03
-22.79
-26.36
-29.29
-31.27
-32.29
-32.62
-32.71
-32.96
-33.61
-34.61
-35.65
-36.21
-35.75
-33.88
-30.50
-25.91
-20.67
-15.46
-10.78
-6.74
-3.06
0.85
5.67
11.88
19.65
28.68
38.15
46.77
52.87
54.75
51.09
41.55
27.11
10.09
-6.39
-19.29
-26.58
-27.78
-23.87
-16.80
-8.61
-0.89
5.49
10.25
13.35
14.90
15.17
14.73
14.44
15.11
17.00
19.48
20.97
19.59
14.05
4.53
-7.09
-17.79
-24.49
-25.33
-20.32
-11.27
-1.00
7.74
13.15
14.70
12.95
9.08
4.37
-0.03
-3.39
-5.37
-6.13
-6.30
-6.79
-8.48
-11.83
-16.59
-21.81
-26.18
-28.43
-27.89
-24.69
-19.67
-14.13
-9.43
-6.58
-6.08
-7.85
-11.30
-15.50
-19.46
-22.30
-23.50
-22.99
-21.14
-18.61
-16.20
-14.54
-13.97
-14.41
-15.46
-16.56
-17.13
-16.72
-15.12
-12.31
-8.53
-4.19
0.22
4.29
7.78
10.76
13.51
16.37
19.55
23.00
26.36
29.10
30.71
30.91
29.71
27.40
24.49
21.47
18.74
16.53
14.91
13.81
13.04
12.30
11.22
9.49
6.99
4.02
1.21
-0.61
-0.82
0.65
3.15
5.55
6.66
5.77
3.01
-0.65
-3.80
-5.02
-3.45
0.99
7.62
15.22
22.44
28.08
31.33
31.84
29.71
25.52
20.22
15.07
11.37
10.14
11.88
16.38
22.83
30.08
36.98
42.58
46.26
47.72
46.99
44.40
40.38
35.29
29.13
21.55
12.20
1.24
-10.13
-19.79
-25.31
-24.96
-18.55
-7.60
5.18
16.83
24.93
27.99
25.40
17.20
4.08
-12.49
-30.15
-45.93
-56.98
-61.44
-59.22
-51.98
-42.55
-33.80
-27.70
-24.84
-24.55
-25.54
-26.58
-26.92
-26.47
-25.64
-25.08
-25.40
-26.93
-29.58
-32.78
-35.67
-37.39
-37.47
-35.95
-33.44
-30.75
-28.59
-27.38
-27.18
-27.88
-29.27
-31.12
-33.08
-34.61
-34.97
-33.52
-30.00
-24.85
-19.23
-14.61
-12.23
-12.41
-14.28
-16.06
-15.74
-11.90
-4.37
5.71
16.40
25.69
32.31
36.10
37.89
39.03
40.76
43.77
48.09
53.20
58.22
62.21
64.30
63.87
60.76
55.37
48.77
42.46
38.01
36.53
38.24
42.29
46.83
49.49
48.03
41.22
29.36
14.43
-0.52
-12.38
-19.13
-20.61
-18.43
-15.28
-13.78
-15.48
-20.40
-27.24
-33.98
-38.71
-40.13
-37.90
-32.53
-25.26
-17.67
-11.29
-7.25
-5.91
-6.75
-8.42
-9.20
-7.73
-3.64
2.08
7.55
10.75
10.53
7.08
1.82
-3.35
-6.87
-8.05
-7.16
-5.02
-2.59
-0.70
-0.02
-1.08
-4.23
-9.44
-16.11
-23.08
-28.82
-31.89
-31.35
-27.12
-19.98
-11.39
-3.04
3.61
7.73
9.27
8.89
7.67
6.68
6.68
7.90
10.13
12.88
15.68
18.28
20.78
23.47
26.70
30.66
35.26
40.07
44.35
47.17
47.54
44.67
38.20
28.46
16.57
4.26
-6.56
-14.38
-18.61
-19.65
-18.68
-17.05
-15.82
-15.48
-16.09
-17.53
-19.78
-22.91
-26.87
-31.33
-35.67
-39.27
-41.70
-42.82
-42.61
-40.94
-37.49
-32.06
-24.89
-16.95
-9.66
-4.33
-1.43
-0.34
0.41
2.21
5.57
9.73
13.01
13.67
10.89
5.15
-1.93
-8.23
-12.02
-12.41
-9.41
-3.67
3.88
12.16
19.99
25.99
28.90
27.91
23.17
16.01
8.60
3.35
1.93
4.66
10.37
16.87
21.75
23.26
20.89
15.45
8.69
2.60
-1.27
-2.25
-0.57
2.94
7.35
12.02
16.73
21.51
26.31
30.71
33.92
34.98
33.18
28.42
21.31
13.00
4.70
-2.71
-8.98
-14.25
-18.73
-22.22
-24.08
-23.40
-19.53
-12.48
-3.06
7.38
17.42
25.91
32.22
36.15
37.81
37.55
35.94
33.60
31.00
28.11
24.20
18.06
8.55
-4.57
-20.06
-35.21
-46.54
-50.97
-46.99
-35.21
-18.19
0.50
17.49
30.66
39.60
45.38
49.81
54.55
60.39
66.96
72.83
75.87
73.78
64.63
47.46
22.81
-7.12
-38.82
-68.22
-91.72
-107.12
-113.96
-113.43
-107.58
-98.60
-88.40
-78.60
-70.56
-65.30
-63.45
-64.71
-68.21
-72.41
-75.74
-77.21
-76.74
-75.02
-72.85
-70.95
-69.27
-67.61
-65.48
-62.47
-58.63
-54.35
-50.28
-46.73
-43.92
-41.43
-39.04
-36.38
-33.18
-29.75
-26.87
-25.72
-26.89
-30.63
-31.03
-22.92
-3.53
25.36
57.78
86.70
104.59
110.38
104.70
88.85
63.87
31.51
-3.58
-35.55
-58.42
-68.13
-63.89
-49.24
-30.04
-12.66
-1.38
2.50
0.15
-5.81
-12.63
-17.97
-20.59
-19.85
-15.85
-9.12
-0.53
8.79
17.84
25.86
32.55
37.71
41.44
43.96
45.72
47.20
48.66
50.08
51.15
51.45
50.46
47.97
44.11
39.37
34.39
29.73
25.75
22.52
19.87
17.45
14.86
11.81
8.18
3.99
-0.64
-5.53
-10.49
-15.25
-19.53
-23.01
-25.42
-26.59
-26.45
-25.05
-22.63
-19.65
-16.73
-14.48
-13.24
-12.88
-12.76
-12.10
-10.37
-7.66
-4.55
-1.66
0.82
3.24
6.23
10.11
14.64
19.20
23.27
26.84
30.35
34.21
38.23
41.45
42.63
40.94
36.65
31.01
25.72
22.13
20.67
20.93
22.00
23.09
23.77
24.06
24.22
24.55
25.23
26.30
27.63
29.02
30.24
30.92
30.57
28.70
25.07
19.99
14.46
10.01
8.18
10.02
15.33
22.47
28.86
31.98
30.47
24.80
17.13
10.35
7.35
9.59
16.62
26.56
36.94
45.58
51.12
53.11
51.87
49.17
47.52
49.59
57.46
71.60
90.50
111.06
129.60
142.73
149.75
151.83
150.93
148.53
144.34
136.68
123.79
105.26
78.79
46.95
15.82
-7.64
-19.33
-20.31
-14.77
-6.68
2.16
9.79
16.57
21.87
23.66
18.98
4.98
-19.82
-54.87
-93.40
-129.65
-158.05
-175.44
-188.79
-202.82
-220.61
-243.90
-273.14
-301.34
-324.75
-340.45
-346.91
-334.15
-297.36
-237.83
-162.91
-82.71
-6.29
59.30
111.55
151.08
180.42
200.12
211.30
213.61
206.37
189.45
162.64
127.27
85.64
44.32
7.79
-21.35
-43.07
-58.86
-70.59
-80.56
-90.23
-99.88
-107.74
-111.53
-106.49
-86.75
-48.16
8.34
74.52
136.86
179.94
197.28
188.52
160.82
125.63
94.06
72.99
63.89
64.51
71.78
84.10
99.94
118.39
137.79
155.46
168.12
173.59
171.67
164.00
156.04
150.87
149.58
151.16
153.17
153.00
149.06
141.49
131.97
123.10
116.39
112.35
110.32
108.76
106.04
101.17
94.17
85.97
78.03
71.20
65.83
61.69
58.09
54.25
49.68
44.36
38.71
33.38
28.74
24.92
21.78
18.95
15.98
12.54
8.55
4.16
-0.27
-4.50
-8.38
-11.98
-15.59
-19.61
-24.37
-30.00
-36.27
-42.79
-49.11
-55.00
-60.56
-66.31
-72.89
-80.90
-90.52
-101.43
-112.99
-124.41
-135.17
-145.18
-154.79
-164.72
-175.81
-188.96
-204.70
-222.93
-242.43
-260.81
-274.86
-281.54
-279.01
-267.44
-248.87
-226.31
-202.53
-179.14
-156.48
-134.30
-112.61
-92.21
-74.46
-60.47
-50.29
-42.71
-35.66
-27.18
-16.41
-3.96
8.23
17.92
23.59
25.22
24.38
23.65
25.55
31.39
40.85
51.90
61.58
66.96
65.95
57.73
42.90
23.63
3.59
-12.41
-19.71
-15.67
-1.31
18.35
36.02
45.11
42.76
31.09
15.96
3.84
-1.35
0.19
5.00
8.69
8.39
3.76
-3.68
-12.20
-21.13
-31.02
-42.62
-55.79
-68.72
-78.35
-81.66
-76.93
-64.57
-47.04
-27.88
-10.57
2.51
10.58
14.37
15.59
16.35
18.52
23.45
31.72
43.11
56.57
70.23
81.57
87.76
86.35
76.13
57.58
32.95
5.23
-22.80
-49.64
-75.34
-100.97
-127.85
-156.58
-186.49
-215.38
-240.05
-257.33
-265.26
-264.06
-256.43
-246.77
-239.69
-238.43
-243.65
-253.20
-263.02
-268.43
-265.63
-252.78
-230.53
-201.66
-170.19
-140.00
-113.66
-91.90
-74.10
-59.52
-48.47
-42.57
-43.84
-53.29
-69.93
-90.74
-111.98
-130.80
-146.21
-158.96
-170.31
-180.62
-188.84
-193.03
-191.81
-185.47
-176.08
-166.64
-159.69
-156.24
-155.53
-155.67
-154.64
-151.16
-145.08
-137.11
-128.04
-118.52
-108.87
-99.09
-89.05
-78.58
-67.65
-56.48
-45.36
-33.84
-21.49
-8.19
5.82
20.03
34.01
47.48
60.16
72.12
84.92
99.83
117.15
136.10
155.30
173.64
190.58
205.87
220.01
235.93
255.88
280.48
308.42
337.47
365.75
392.23
416.10
437.53
459.56
484.10
510.84
536.98
558.65
572.59
576.87
570.10
533.17
455.60
339.62
201.23
61.59
-62.99
-164.54
-238.68
-292.06
-330.64
-355.96
-368.75
-370.06
-361.51
-344.96
-321.61
-292.17
-258.26
-221.15
-180.46
-136.40
-89.74
-41.71
6.73
55.64
105.94
158.03
211.91
266.44
317.15
356.61
376.66
371.84
342.10
293.59
236.02
180.40
134.46
99.69
71.83
44.10
11.53
-26.29
-64.34
-95.08
-110.14
-104.95
-80.61
-43.22
-1.45
36.73
65.51
83.24
90.85
93.03
94.29
97.72
104.69
115.20
128.94
144.81
163.14
183.74
208.17
236.12
265.10
291.35
311.41
323.86
328.45
328.04
306.08
252.73
166.86
57.78
-59.26
-170.33
-258.50
-324.07
-368.74
-394.31
-400.50
-388.90
-364.64
-333.48
-300.41
-267.78
-235.97
-201.33
-159.66
-105.91
-38.60
38.90
118.45
188.97
240.18
264.92
263.15
239.94
204.46
165.25
127.65
92.96
59.22
23.40
-17.08
-61.57
-106.80
-147.24
-177.41
-194.28
-198.91
-196.88
-196.45
-205.42
-226.98
-258.43
-291.91
-317.95
-329.37
-323.79
-303.56
-273.52
-238.27
-199.92
-158.37
-113.11
-65.63
-20.57
15.39
36.25
39.58
27.81
7.31
-14.27
-30.67
-38.72
-38.23
-30.78
-18.35
-2.56
15.41
34.49
53.56
71.49
87.30
100.09
108.88
112.69
110.83
103.60
92.65
80.73
71.03
66.25
68.01
76.44
90.13
106.29
121.19
130.93
132.48
124.64
108.54
87.28
64.84
44.75
29.14
18.38
11.58
7.22
3.69
-0.42
-6.28
-14.75
-26.07
-39.58
-53.73
-66.34
-75.38
-79.61
-78.98
-74.57
-68.00
-60.76
-53.56
-46.26
-38.19
-28.79
-18.24
-7.69
0.83
4.93
2.56
-7.19
-23.44
-43.30
-62.48
-76.50
-82.21
-78.97
-68.75
-55.14
-41.77
-30.95
-23.14
-17.43
-12.41
-6.89
-0.11
8.32
18.36
29.29
39.39
46.14
47.00
40.58
27.47
10.31
-7.15
-21.17
-29.15
-29.99
-23.96
-12.39
2.78
19.25
34.65
46.98
55.18
59.45
61.10
62.01
63.81
67.29
72.15
77.38
81.80
84.63
85.72
85.40
84.20
82.45
80.14
77.01
72.75
67.15
60.27
52.22
43.07
32.71
20.98
7.95
-5.80
-19.20
-31.03
-40.51
-47.71
-53.49
-58.78
-63.77
-67.41
-67.75
-62.88
-52.07
-36.40
-18.49
-1.57
11.74
20.15
23.79
23.70
21.20
17.39
13.04
8.72
4.98
2.43
1.56
2.53
