1660750860.00
64.000000
-0.00
-0.00
-0.00
-0.00
-0.00
-0.00
-0.00
-0.00
-0.00
-0.00
0.00
0.01
0.01
-0.00
-0.03
-0.05
-0.05
0.00
0.13
0.36
0.66
1.01
1.37
1.72
2.06
2.40
2.79
3.24
3.80
4.42
5.06
5.66
6.20
6.68
7.15
7.68
8.31
9.14
10.09
11.04
11.88
12.56
13.14
13.76
14.65
15.96
17.91
20.32
22.90
25.38
27.58
29.57
31.68
34.32
37.81
42.54
48.15
54.10
59.83
64.97
69.58
74.14
79.34
85.71
93.76
103.00
112.62
121.73
129.77
136.75
143.30
150.75
157.77
166.64
177.95
191.79
206.97
220.57
228.25
225.36
208.53
176.87
132.76
80.05
23.07
-34.94
-92.44
-149.16
-205.23
-260.37
-313.74
-363.88
-409.84
-450.91
-486.50
-515.72
-537.19
-549.18
-549.95
-538.41
-514.34
-478.91
-434.21
-382.85
-327.44
-270.25
-213.03
-157.06
-103.40
-52.91
-6.54
34.85
70.65
100.59
124.78
143.69
157.97
168.29
175.27
179.36
180.95
180.32
177.78
173.63
168.13
161.57
154.18
146.24
138.01
129.78
121.75
114.05
106.62
99.26
91.74
83.91
75.83
67.78
60.18
53.40
47.58
42.54
37.81
32.86
27.34
21.28
15.10
9.44
4.82
1.47
-0.83
-2.66
-4.65
-7.31
-10.97
-15.69
-21.19
-26.62
-30.49
-30.94
-26.47
-16.68
-2.86
12.34
25.85
35.39
40.29
41.42
40.44
38.74
36.88
34.65
31.62
27.74
23.48
19.71
17.25
16.56
17.58
19.82
22.42
24.48
25.32
24.60
22.47
19.46
16.19
13.12
10.37
7.80
5.24
2.69
0.37
-1.37
-2.33
-2.58
-2.45
-2.29
-2.35
-2.64
-2.93
-2.98
-2.69
-2.18
-1.69
-1.46
-1.57
-1.91
-2.29
-2.53
-2.57
-2.43
-2.24
-2.05
-1.91
-1.78
-1.57
-1.20
-0.56
0.31
1.33
2.36
3.25
3.94
4.44
4.89
5.51
6.56
8.27
10.70
13.72
16.91
19.65
21.28
21.29
19.54
16.31
12.25
7.90
3.75
0.07
-3.16
-6.04
-8.70
-11.18
-13.36
-15.06
-16.10
-16.41
-16.05
-15.23
-14.20
-13.16
-12.21
-11.36
-10.61
-9.98
-9.50
-9.19
-8.98
-8.76
-8.38
-7.77
-7.01
-6.28
-5.75
-5.46
-5.35
-5.27
-5.10
-4.82
-4.47
-4.15
-3.88
-3.67
-3.52
-3.42
-3.31
-3.05
-2.43
-1.23
0.62
2.92
5.19
6.88
7.58
7.25
6.14
4.70
3.29
2.10
1.08
0.12
-0.87
-1.82
-2.56
-2.95
-2.92
-2.60
-2.20
-1.96
-1.89
-1.96
-2.00
-1.83
-1.35
-0.62
0.14
0.63
0.62
0.09
-0.75
-1.51
-1.83
-1.48
-0.50
0.90
2.43
3.89
5.14
6.12
6.73
6.83
6.21
4.72
2.36
-0.61
-3.74
-6.41
-8.05
-8.26
-6.96
-4.35
-0.89
2.85
6.35
9.24
11.34
12.60
13.05
12.75
11.76
10.18
8.21
6.11
4.16
2.59
1.51
0.88
0.56
0.36
0.14
-0.15
-0.49
-0.83
-1.17
-1.60
-2.24
-3.16
-4.36
-5.70
-6.98
-7.99
-8.62
-8.88
-8.91
-8.89
-9.04
-9.54
-10.47
-11.75
-13.04
-13.82
-13.51
-11.70
-8.41
-4.10
0.46
4.47
7.36
9.00
9.60
9.48
8.98
8.24
7.30
6.20
4.97
3.68
2.38
1.11
-0.16
-1.43
-2.62
-3.55
-3.94
-3.54
-2.17
0.09
2.94
5.88
8.37
10.01
10.67
10.52
9.91
9.27
8.86
8.70
8.55
8.01
6.60
3.96
-0.05
-5.27
-11.21
-17.12
-22.12
-25.35
-26.20
-24.47
-20.47
-14.99
-9.09
-3.74
0.39
3.16
4.88
6.03
7.06
8.13
9.16
9.89
10.13
9.76
8.81
7.33
5.41
3.16
0.74
-1.65
-3.78
-5.47
-6.59
-7.12
-7.09
-6.58
-5.74
-4.73
-3.73
-2.88
-2.18
-1.58
-0.96
-0.29
0.32
0.61
0.28
-0.91
-3.01
-5.81
-8.84
-11.43
-12.88
-12.62
-10.48
-6.74
-2.09
2.56
6.45
9.12
10.52
10.86
10.45
9.55
8.34
7.01
5.76
4.80
4.25
4.11
4.20
4.29
4.20
3.83
3.25
2.63
2.14
1.93
2.03
2.36
2.71
2.82
2.46
1.53
0.08
-1.65
-3.34
-4.69
-5.52
-5.83
-5.77
-5.63
-5.71
-6.24
-7.28
-8.70
-10.14
-11.15
-11.25
-10.14
-7.73
-4.24
-0.17
3.89
7.37
9.95
11.53
12.29
12.46
12.23
11.65
10.73
9.46
8.01
6.60
5.46
4.68
4.15
3.67
3.06
2.32
1.53
0.81
0.20
-0.34
-0.87
-1.42
-1.94
-2.38
-2.79
-3.29
-4.02
-5.01
-6.15
-7.21
-8.00
-8.48
-8.80
-9.18
-9.81
-10.76
-11.93
-13.14
-14.11
-14.53
-14.09
-12.58
-9.94
-6.39
-2.34
1.69
5.19
7.84
9.50
10.25
10.28
9.82
9.10
8.29
7.53
6.87
6.31
5.80
5.30
4.77
4.15
3.40
2.54
1.63
0.86
0.39
0.36
0.73
1.32
1.84
2.04
1.79
1.04
-0.10
-1.46
-2.86
-4.09
-5.04
-5.66
-6.10
-6.58
-7.38
-8.65
-10.31
-12.01
-13.24
-13.44
-12.27
-9.68
-6.01
-1.84
2.18
5.49
7.82
9.14
9.63
9.55
9.12
8.50
7.78
7.04
6.35
5.74
5.28
4.99
4.90
4.99
5.20
5.39
5.42
5.19
4.74
4.22
3.79
3.57
3.50
3.43
3.17
2.62
1.78
0.74
-0.38
-1.46
-2.41
-3.15
-3.66
-3.98
-4.24
-4.64
-5.37
-6.47
-7.85
-9.17
-10.05
-10.05
-8.89
-6.51
-3.14
0.70
4.40
7.37
9.26
10.03
9.90
9.19
8.16
6.94
5.58
4.12
2.66
1.42
0.65
0.55
1.13
2.18
3.31
4.01
3.93
2.89
1.10
-1.01
-2.92
-4.23
-4.82
-4.82
-4.52
-4.17
-3.90
-3.71
-3.57
-3.47
-3.49
-3.74
-4.26
-5.02
-5.89
-6.74
-7.42
-7.90
-8.19
-8.33
-8.35
-8.21
-7.80
-6.95
-5.54
-3.56
-1.14
1.46
3.98
6.20
8.04
9.49
10.59
11.34
11.73
11.75
11.48
11.06
10.67
10.45
10.41
10.46
10.42
10.14
9.53
8.63
7.61
6.66
5.92
5.40
4.98
4.46
3.65
2.45
0.91
-0.86
-2.70
-4.49
-6.14
-7.66
-9.05
-10.36
-11.65
-12.98
-14.45
-16.02
-17.58
-18.82
-19.37
-18.82
-16.89
-13.57
-9.16
-4.29
0.33
4.05
6.55
7.85
8.27
8.19
7.91
7.57
7.14
6.58
5.93
5.33
4.97
4.93
5.14
5.37
5.35
4.91
4.06
2.94
1.84
0.99
0.47
0.21
0.01
-0.37
-1.08
-2.10
-3.26
-4.33
-5.10
-5.48
-5.52
-5.36
-5.14
-4.96
-4.90
-5.05
-5.54
-6.49
-7.86
-9.32
-10.33
-10.28
-8.79
-5.88
-2.02
2.02
5.53
8.08
9.59
10.31
10.53
10.45
10.13
9.55
8.73
7.79
6.91
6.26
5.83
5.54
5.21
4.71
4.00
3.11
2.13
1.11
0.11
-0.76
-1.41
-1.73
-1.75
-1.59
-1.44
-1.44
-1.56
-1.67
-1.55
-1.14
-0.58
-0.16
-0.15
-0.72
-1.79
-3.09
-4.29
-5.02
-4.97
-3.87
-1.57
1.90
6.27
11.02
15.53
19.30
22.09
23.94
25.09
25.79
26.16
26.21
25.95
25.40
24.71
24.08
23.67
23.53
23.57
23.55
23.09
21.79
19.26
15.31
9.94
3.38
-3.96
-11.69
-19.43
-26.92
-33.95
-40.37
-46.03
-50.79
-54.46
-56.87
-57.81
-57.16
-54.97
-51.55
-47.43
-43.23
-39.43
-36.22
-33.47
-30.79
-27.82
-24.28
-20.14
-15.59
-10.92
-6.45
-2.45
0.93
3.63
5.71
7.28
8.45
9.35
10.04
10.60
11.09
11.61
12.24
13.02
13.89
14.71
15.26
15.37
15.00
14.25
13.34
12.55
12.02
11.75
11.56
11.22
10.49
9.30
7.71
6.00
4.52
3.57
3.35
3.82
4.74
5.70
6.26
6.04
4.87
2.78
0.04
-2.89
-5.42
-7.00
-7.23
-6.03
-3.68
-0.73
2.17
4.53
6.11
6.92
7.16
7.02
6.60
5.96
5.19
4.43
3.90
3.77
4.02
4.46
4.79
4.75
4.25
3.38
2.36
1.37
0.52
-0.24
-0.98
-1.78
-2.72
-3.81
-5.05
-6.36
-7.63
-8.72
-9.52
-9.98
-10.20
-10.34
-10.60
-11.01
-11.47
-11.68
-11.31
-10.07
-7.89
-4.93
-1.57
1.74
4.59
6.72
8.10
8.82
9.05
8.93
8.56
8.00
7.34
6.68
6.15
5.90
6.00
6.44
7.06
7.66
7.97
7.87
7.36
6.63
5.97
5.58
5.47
5.44
5.20
4.52
3.35
1.84
0.15
-1.53
-3.11
-4.54
-5.77
-6.74
-7.48
-8.15
-9.00
-10.24
-11.92
-13.77
-15.26
-15.75
-14.77
-12.23
-8.47
-4.15
-0.07
3.10
5.01
5.67
5.37
4.56
3.60
2.68
1.82
0.92
-0.09
-1.22
-2.34
-3.31
-4.02
-4.48
-4.84
-5.32
-6.15
-7.47
-9.26
-11.42
-13.71
-15.97
-18.07
-20.02
-21.92
-23.84
-25.81
-27.72
-29.33
-30.36
-30.58
-29.81
-28.01
-25.21
-21.57
-17.34
-12.82
-8.32
-4.01
0.17
4.53
9.50
15.34
21.93
28.65
34.61
38.98
41.40
42.19
42.07
41.87
42.05
42.44
42.40
41.18
38.47
34.72
31.09
28.87
28.89
31.02
34.23
37.00
38.08
37.09
34.75
32.52
31.82
33.56
37.95
44.53
52.45
60.38
66.58
69.04
66.06
56.77
41.91
23.96
6.30
-8.10
-17.77
-22.85
-24.34
-22.96
-19.13
-12.61
-2.92
9.97
25.07
40.22
52.76
60.38
62.14
57.95
49.33
39.30
31.27
27.52
27.76
29.18
27.86
20.92
6.82
-13.57
-37.24
-61.23
-83.97
-105.98
-128.97
-154.09
-172.72
-175.92
-159.46
-127.03
-88.42
-52.95
-26.02
-8.55
1.83
6.73
8.88
8.99
6.72
0.65
-9.84
-24.43
-42.05
-61.81
-79.37
-93.51
-104.88
-107.46
-98.39
-78.71
-53.01
-26.35
-1.86
19.66
37.78
52.01
62.58
69.16
72.12
72.52
71.80
71.30
71.83
73.15
74.20
74.61
73.68
71.23
67.60
63.28
58.54
52.80
45.70
36.48
25.56
13.41
0.86
-11.27
-22.56
-33.27
-44.14
-53.07
-61.46
-69.28
-75.76
-80.02
-81.43
-80.25
-77.56
-74.80
-73.30
-74.48
-78.72
-85.74
-94.15
-101.02
-102.19
-93.52
-72.95
-42.15
-7.07
24.66
46.37
55.01
52.13
42.47
31.36
22.29
16.14
11.84
8.36
5.69
4.72
6.19
10.34
16.12
21.77
25.65
27.06
26.53
25.20
24.24
24.26
25.19
26.33
26.81
25.97
23.56
19.90
15.66
11.63
8.36
5.98
4.23
2.51
0.19
-3.01
-6.97
-11.09
-14.64
-17.16
-18.74
-19.93
-21.63
-24.55
-28.73
-33.45
-37.48
-39.67
-39.54
-37.51
-34.57
-31.96
-30.65
-30.92
-32.43
-34.47
-36.22
-36.93
-37.38
-37.77
-38.24
-38.88
-39.74
-40.77
-41.82
-42.72
-43.30
-43.50
-43.03
-41.62
-38.95
-34.76
-29.03
-22.23
-15.33
-9.62
-6.31
-6.02
-8.69
-13.59
-19.49
-24.94
-28.69
-30.03
-28.95
-26.19
-22.94
-20.55
-20.16
-22.30
-26.72
-32.46
-38.09
-42.13
-43.47
-41.63
-36.87
-29.99
-21.95
-13.54
-5.31
2.34
9.08
14.53
18.40
20.63
21.51
21.55
21.41
21.69
22.88
25.33
29.18
34.23
39.88
45.22
49.33
51.66
52.24
51.59
50.44
49.28
48.13
46.58
44.08
40.17
34.70
27.87
20.08
11.86
3.71
-3.98
-11.05
-17.53
-23.67
-29.86
-36.49
-43.83
-51.82
-59.89
-66.92
-71.45
-71.98
-67.49
-57.78
-43.56
-26.35
-8.01
9.58
24.85
36.77
44.93
49.57
51.50
51.89
51.76
51.66
51.49
50.63
48.44
44.67
39.66
34.28
29.57
26.37
25.08
25.62
27.47
29.89
32.09
33.50
33.99
34.03
34.55
36.66
41.22
48.51
58.07
68.67
78.47
85.30
87.14
82.70
72.06
56.89
40.17
25.37
15.21
10.85
11.57
15.35
19.83
23.25
24.83
24.65
23.20
20.84
17.68
13.74
9.06
3.86
-1.53
-6.88
-12.24
-17.87
-24.06
-30.77
-37.44
-42.98
-46.11
-45.75
-41.43
-33.44
-22.75
-10.72
1.15
11.49
19.29
24.12
26.24
26.55
26.24
26.23
26.63
26.60
24.68
19.69
11.65
2.12
-6.07
-9.95
-7.57
1.21
14.70
30.16
44.82
56.97
66.35
74.00
81.67
91.03
103.05
117.74
134.04
149.85
162.18
167.40
162.03
143.83
113.05
73.01
29.68
-9.91
-39.95
-57.62
-63.74
-61.94
-56.83
-52.22
-50.14
-50.77
-53.33
-56.86
-60.75
-64.82
-69.07
-73.45
-77.87
-82.27
-86.72
-91.27
-95.75
-99.45
-101.09
-99.09
-92.01
-79.25
-61.34
-39.94
-17.35
4.17
22.90
38.07
49.79
58.84
66.24
72.84
78.92
84.02
87.13
87.17
83.72
77.49
70.39
64.87
63.06
65.91
72.90
82.42
92.68
102.52
111.86
121.41
131.92
143.38
154.45
162.56
164.52
157.30
138.84
108.52
67.47
18.56
-33.80
-84.21
-127.12
-158.03
-174.56
-177.00
-168.16
-152.36
-134.12
-117.00
-102.98
-92.61
-85.45
-80.68
-77.45
-75.05
-72.89
-70.54
-67.83
-64.89
-62.13
-60.14
-59.36
-59.81
-60.95
-61.74
-60.92
-57.44
-50.83
-41.43
-30.24
-18.55
-7.49
2.41
11.21
19.38
27.34
35.05
41.82
46.47
47.67
44.38
36.39
24.52
10.65
-2.57
-12.43
-16.82
-14.96
-7.51
3.75
16.76
29.92
42.60
55.01
67.62
80.41
92.57
102.53
108.46
108.83
102.83
90.64
73.36
52.86
31.51
11.74
-4.35
-15.40
-21.05
-21.95
-19.51
-15.47
-11.53
-8.98
-8.62
-10.70
-15.00
-20.92
-27.63
-34.16
-39.75
-43.91
-46.56
-48.01
-48.75
-49.26
-49.85
-50.62
-51.47
-52.18
-52.48
-51.98
-50.23
-46.79
-41.40
-34.05
-25.13
-15.21
-4.89
5.37
15.21
24.19
31.61
36.54
38.13
36.05
30.72
23.32
15.29
7.85
1.63
-3.26
-6.86
-9.02
-9.30
-7.20
-2.61
3.90
11.10
17.50
21.87
23.68
23.19
21.24
18.79
16.51
14.59
12.79
10.76
8.33
5.71
3.31
1.51
0.33
-0.59
-1.78
-3.58
-5.87
-8.02
-9.22
-8.82
-6.63
-2.97
1.50
6.04
10.06
13.21
15.42
16.84
17.72
18.42
19.35
20.93
23.56
27.57
33.04
39.77
47.07
53.88
58.90
60.93
59.23
53.84
45.58
35.79
25.86
16.71
8.44
0.42
-8.35
-18.60
-30.29
-42.46
-53.49
-61.71
-66.07
-66.48
-63.85
-59.67
-55.54
-52.70
-51.81
-52.93
-55.55
-58.79
-61.57
-62.83
-61.87
-58.49
-53.09
-46.43
-39.36
-32.34
-25.36
-17.97
-9.46
0.81
13.14
27.25
42.04
55.47
64.78
67.13
60.62
45.38
23.98
0.94
-18.75
-31.34
-35.62
-32.96
-26.38
-19.00
-12.85
-8.52
-5.60
-3.52
-2.13
-1.64
-2.31
-3.89
-5.65
-6.57
-6.00
-3.91
-0.94
1.97
4.06
5.07
5.35
5.55
6.31
7.89
10.10
12.43
14.32
15.47
15.95
16.17
16.62
17.71
19.59
22.20
25.39
28.95
32.76
36.66
40.37
43.44
45.25
45.11
42.35
36.54
27.64
16.11
2.96
-10.38
-22.30
-31.45
-37.07
-39.23
-38.68
-36.62
-34.19
-32.20
-30.97
-30.44
-30.32
-30.35
-30.34
-30.20
-29.88
-29.28
-28.42
-27.38
-26.40
-25.79
-25.73
-26.17
-26.70
-26.67
-25.45
-22.68
-18.44
-13.25
-7.88
-3.03
0.79
3.46
5.13
6.12
6.80
7.43
8.15
8.95
9.72
10.34
10.74
10.93
11.03
11.10
11.16
11.12
10.95
10.68
10.48
10.56
11.03
11.85
12.75
13.43
13.58
13.07
11.89
10.14
8.00
5.75
3.70
2.09
1.00
0.25
-0.57
-1.89
-3.96
-6.71
-9.73
-12.48
-14.46
-15.41
-15.31
-14.33
-12.71
-10.72
-8.61
-6.64
-5.05
-4.05
-3.72
-3.97
-4.58
-5.23
-5.60
-5.57
-5.16
-4.51
-3.78
-3.09
-2.46
-1.88
-1.33
-0.79
-0.25
0.36
1.11
2.06
3.20
4.47
5.77
7.01
8.08
8.86
9.22
9.06
8.44
7.57
6.78
6.34
6.33
6.56
6.68
6.35
5.38
3.89
2.24
0.91
0.35
0.81
2.36
4.75
7.60
10.45
12.98
15.06
16.79
18.36
19.84
21.07
21.59
20.80
18.09
13.10
5.81
-3.32
-13.39
-23.22
-31.52
-37.28
-40.02
-39.93
-37.77
-34.61
-31.41
-28.77
-26.88
-25.55
-24.50
-23.44
-22.21
-20.73
-18.95
-16.84
-14.44
-11.89
-9.43
-7.37
-5.94
-5.24
-5.14
-5.36
-5.52
-5.37
-4.85
-4.19
-3.72
-3.77
-4.39
-5.29
-5.90
-5.60
-3.99
-1.07
2.71
6.69
10.20
12.88
14.67
15.78
16.46
16.89
17.07
16.93
16.42
15.62
14.69
13.81
13.17
12.83
12.80
13.03
13.46
14.04
14.73
15.47
16.13
16.56
16.54
15.91
14.61
12.71
10.44
8.08
5.91
4.10
2.71
1.73
1.12
0.78
0.55
0.23
-0.36
-1.30
-2.44
-3.48
-4.01
-3.68
-2.29
0.13
3.33
6.83
9.98
12.13
12.74
11.65
9.10
5.76
2.49
-0.04
-1.50
-2.06
-2.16
-2.31
-2.79
-3.62
-4.56
-5.34
-5.80
-5.94
-5.93
-5.95
-6.10
-6.40
-6.81
-7.26
-7.73
-8.25
-8.80
-9.38
-9.92
-10.39
-10.81
-11.25
-11.81
-12.52
-13.36
-14.23
-15.05
-15.76
-16.40
-17.12
-18.07
-19.37
-21.01
-22.78
-24.33
-25.19
-24.95
-23.40
-20.62
-16.97
-13.04
-9.46
-6.74
-5.16
-4.70
-5.06
-5.83
-6.62
-7.16
-7.37
-7.33
-7.16
-6.95
-6.70
-6.34
-5.78
-5.00
-4.05
-3.05
-2.12
-1.31
-0.59
0.11
0.90
1.78
2.68
3.44
3.89
3.96
3.68
3.25
2.88
2.70
2.73
2.84
2.88
2.71
2.27
1.61
0.77
-0.13
-0.90
-1.26
-0.90
0.42
2.78
5.92
9.40
12.65
15.23
16.94
17.87
18.23
18.25
18.00
17.45
16.48
15.06
13.33
11.55
10.02
8.91
8.23
7.74
7.16
6.30
5.11
3.73
2.36
1.16
0.16
-0.74
-1.75
-3.04
-4.68
-6.63
-8.71
-10.72
-12.52
-14.04
-15.35
-16.52
-17.59
-18.57
-19.41
-20.04
-20.44
-20.59
-20.41
-19.75
-18.35
-16.03
-12.72
-8.67
-4.30
-0.14
3.36
5.98
7.75
8.87
9.61
10.17
10.60
10.87
10.90
10.71
10.42
10.24
10.27
10.52
10.83
11.00
10.87
10.48
10.01
9.72
9.75
10.09
10.57
10.94
11.00
10.62
9.81
8.62
7.13
5.46
3.74
2.14
0.76
-0.39
-1.41
-2.51
-3.89
-5.62
-7.54
-9.28
-10.29
-10.05
-8.26
-5.02
-0.81
3.56
7.27
9.67
10.51
9.98
8.54
6.76
5.12
3.87
3.07
2.63
2.40
2.30
2.24
2.22
2.24
2.34
2.51
2.76
3.02
3.26
3.40
3.40
3.19
2.71
1.92
0.83
-0.49
-1.93
-3.32
-4.54
-5.48
-6.09
-6.41
-6.54
-6.62
-6.75
-7.03
-7.50
-8.16
-9.07
-10.23
-11.61
-13.07
-14.27
-14.79
-14.19
-12.24
-9.06
-5.09
-0.93
2.86
5.90
8.05
9.38
10.03
10.14
9.86
9.33
8.71
8.16
7.81
7.66
7.63
7.53
7.22
6.64
5.83
4.96
4.20
3.72
3.55
3.59
3.66
3.60
3.27
2.67
1.87
0.97
0.08
-0.73
-1.45
-2.09
-2.70
-3.37
-4.18
-5.18
-6.38
-7.72
-9.06
-10.29
-11.35
-12.24
-13.03
-13.81
-14.62
-15.37
-15.84
-15.70
-14.63
-12.42
-9.13
-5.08
-0.79
3.17
6.42
8.82
10.48
11.65
12.53
13.18
13.48
13.26
12.37
10.79
8.74
6.55
4.62
3.25
2.58
2.51
2.82
3.28
3.79
4.37
5.13
6.11
7.21
8.16
8.71
8.72
8.22
7.44
6.57
5.75
4.97
4.11
3.14
2.09
1.11
0.35
-0.17
-0.54
-1.01
-1.86
-3.32
-5.39
-7.81
-10.09
-11.59
-11.74
-10.24
-7.19
-3.07
1.37
5.39
8.37
10.04
10.39
9.63
8.09
6.08
3.90
1.72
-0.33
-2.26
-4.10
-5.90
-7.69
-9.47
-11.14
-12.60
-13.70
-14.25
-14.14
-13.29
-11.77
-9.77
-7.59
-5.54
-3.84
-2.57
-1.72
-1.20
-0.93
-0.88
-1.06
-1.46
-2.02
-2.62
-3.16
-3.59
-3.91
-4.18
-4.47
-4.85
-5.38
-6.16
-7.24
-8.57
-9.94
-10.97
-11.16
-10.12
-7.74
-4.32
-0.44
3.21
6.13
8.14
9.33
9.93
10.18
10.17
9.92
9.46
8.90
8.35
7.92
7.60
7.27
6.82
6.21
5.52
4.89
4.46
4.28
4.36
4.60
4.93
5.19
5.21
4.84
3.98
2.69
1.19
-0.20
-1.22
-1.79
-2.04
-2.25
-2.70
-3.49
-4.52
-5.49
-6.12
-6.26
-5.99
-5.64
-5.54
-5.92
-6.74
-7.77
-8.65
-9.07
-8.86
-7.95
-6.32
-3.97
-1.01
2.29
5.50
8.13
9.81
10.48
10.36
9.86
9.41
9.23
9.34
9.62
9.88
10.05
10.11
10.17
10.36
10.81
11.57
12.63
13.88
15.17
16.38
17.42
18.24
18.68
18.53
17.52
15.44
12.25
8.13
3.40
-1.51
-6.23
-10.53
-14.30
-17.56
-20.40
-22.95
-25.33
-27.65
-29.94
-32.15
-34.17
-35.76
-36.58
-36.22
-34.28
-30.57
-25.25
-18.94
-12.58
-7.14
-3.30
-1.22
-0.54
-0.59
-0.67
-0.34
0.47
1.58
2.69
3.63
4.39
5.14
6.04
7.13
8.30
9.31
10.00
10.39
10.66
11.02
11.60
12.32
12.95
13.24
13.08
12.57
11.94
11.46
11.27
11.34
11.51
11.56
11.31
10.76
10.04
9.38
8.98
8.89
8.88
8.55
7.43
5.23
1.90
-2.27
-6.73
-10.87
-14.07
-15.90
-16.22
-15.20
-13.30
-11.17
-9.40
-8.38
-8.20
-8.68
-9.48
-10.30
-10.94
-11.33
-11.50
-11.52
-11.43
-11.27
-11.03
-10.63
-9.97
-8.96
-7.57
-5.85
-4.03
-2.35
-1.02
-0.15
0.33
0.53
0.61
0.64
0.66
0.66
0.65
0.66
0.72
0.85
0.94
0.89
0.58
-0.02
-0.82
-1.65
-2.37
-2.91
-3.36
-3.93
-4.85
-6.25
-8.08
-10.05
-11.69
-12.52
-12.18
-10.62
-8.06
-4.95
-1.78
1.06
3.36
5.11
6.45
7.60
8.75
10.03
11.41
12.76
13.91
14.70
15.06
15.03
14.75
14.38
14.01
13.69
13.43
13.25
13.20
13.26
13.42
13.58
13.64
13.53
13.24
12.84
12.43
12.15
12.05
12.08
12.14
12.11
11.94
11.68
11.44
11.33
11.36
11.46
11.48
11.26
10.76
9.96
8.95
7.92
7.17
7.16
8.33
10.98
15.12
20.39
26.23
32.00
37.16
41.24
43.81
44.41
42.61
38.26
31.54
23.06
13.54
3.61
-6.40
-16.36
-26.18
-35.54
-43.95
-50.84
-55.90
-59.19
-61.10
-62.02
-62.15
-61.36
-59.40
-56.11
-51.76
-46.92
-42.34
-38.57
-35.74
-33.60
-31.71
-29.74
-27.60
-25.46
-23.52
-21.85
-20.33
-18.69
-16.71
-14.33
-11.68
-9.00
-6.55
-4.46
-2.78
-1.52
-0.64
-0.19
-0.16
-0.51
-1.02
-1.35
-1.06
0.16
2.40
5.40
8.64
11.57
13.84
15.42
16.54
17.52
18.49
19.36
19.82
19.61
18.69
17.25
15.70
14.39
13.49
12.94
12.51
11.98
11.24
10.34
9.44
8.71
8.25
8.04
7.96
7.85
7.61
7.21
6.68
6.11
5.57
5.12
4.81
4.68
4.74
4.96
5.24
5.41
5.36
5.01
4.45
3.84
3.33
2.98
2.68
2.18
1.22
-0.40
-2.76
-5.70
-8.84
-11.63
-13.41
-13.59
-11.89
-8.46
-3.86
1.05
5.46
8.81
10.96
12.09
12.54
12.61
12.42
11.99
11.24
10.19
8.91
7.58
6.37
5.39
4.61
3.96
3.31
2.63
1.98
1.46
1.12
0.89
0.59
0.00
-0.95
-2.19
-3.48
-4.55
-5.27
-5.67
-5.85
-5.90
-5.82
-5.51
-4.90
-4.07
-3.23
-2.74
-2.84
-3.60
-4.85
-6.20
-7.29
-7.86
-7.92
-7.72
-7.68
-8.17
-9.39
-11.25
-13.37
-15.19
-16.09
-15.65
-13.73
-10.54
-6.61
-2.66
0.62
2.73
3.52
3.12
1.90
0.33
-1.18
-2.39
-3.22
-3.70
-3.94
-4.04
-4.09
-4.16
-4.31
-4.57
-4.89
-5.15
-5.18
-4.88
-4.24
-3.36
-2.42
-1.62
-1.04
-0.69
-0.53
-0.51
-0.62
-0.87
-1.26
-1.77
-2.27
-2.72
-3.03
-3.25
-3.43
-3.65
-3.96
-4.38
-4.88
-5.44
-6.07
-6.75
-7.43
-8.05
-8.51
-8.71
-8.61
-8.26
-7.70
-6.93
-5.85
-4.30
-2.16
0.52
3.52
6.47
9.04
11.05
12.52
13.59
14.47
15.26
16.00
16.62
17.10
17.43
17.66
17.81
17.87
17.77
17.40
16.73
15.75
14.55
13.25
11.96
10.74
9.60
8.51
7.48
6.55
5.76
5.15
4.70
4.31
3.84
3.15
2.12
0.75
-0.90
-2.69
-4.45
-6.01
-7.31
-8.33
-9.21
-10.16
-11.42
-13.13
-15.27
-17.57
-19.49
-20.37
-19.64
-17.06
-12.89
-7.83
-2.77
1.54
4.73
6.86
8.26
9.28
10.08
10.68
10.97
10.92
10.58
10.09
9.55
8.99
8.38
7.70
7.00
6.38
5.98
5.88
6.05
6.39
6.73
6.89
6.75
6.25
5.41
4.32
3.09
1.82
0.62
-0.48
-1.44
-2.28
-3.05
-3.85
-4.75
-5.78
-6.91
-7.97
-8.80
-9.31
-9.56
-9.75
-10.16
-10.99
-12.30
-13.99
-15.80
-17.41
-18.42
-18.45
-17.20
-14.56
-10.72
-6.17
-1.56
2.49
5.58
7.60
8.75
9.30
9.53
9.56
9.46
9.21
8.85
8.42
8.02
7.69
7.39
7.07
6.64
6.09
5.52
5.08
4.93
5.10
5.44
5.68
5.53
4.89
3.87
2.75
1.82
1.24
0.96
0.72
0.27
-0.57
-1.76
-3.11
-4.34
-5.25
-5.78
-5.95
-5.91
-5.77
-5.68
-5.77
-6.16
-6.94
-8.01
-9.07
-9.61
-9.13
-7.29
-4.14
-0.10
4.16
7.99
10.95
12.90
13.98
14.41
14.39
14.05
13.43
12.54
11.45
10.26
9.08
8.03
7.16
6.49
5.96
5.54
5.17
4.80
4.41
3.96
3.41
2.75
2.00
1.20
0.39
-0.38
-1.12
-1.85
-2.63
-3.50
-4.52
-5.70
-7.02
-8.40
-9.71
-10.82
-11.65
-12.24
-12.77
-13.52
-14.73
-16.45
-18.39
-20.00
-20.56
-19.51
-16.69
-12.37
-7.25
-2.12
2.35
5.76
8.05
9.37
9.98
10.13
10.02
9.81
9.60
9.42
9.25
9.05
8.74
8.27
7.66
6.97
6.30
5.75
5.38
5.24
5.35
5.64
5.99
6.21
6.05
5.35
4.07
2.40
0.63
-0.90
-2.01
-2.74
-3.32
-4.00
-4.94
-6.08
-7.22
-8.17
-8.85
-9.32
-9.73
-10.23
-10.91
-11.82
-12.99
-14.43
-16.06
-17.59
-18.54
-18.34
-16.57
-13.21
-8.65
-3.66
0.97
4.60
7.02
8.38
9.04
9.40
9.69
9.93
9.98
9.71
9.07
8.22
7.41
6.86
6.64
6.61
6.56
6.28
5.80
5.28
4.97
4.95
5.17
5.35
5.21
4.60
3.57
2.38
1.31
0.61
0.32
0.28
0.19
-0.30
-1.39
-3.09
-5.13
-7.08
-8.51
-9.16
-9.06
-8.46
-7.74
-7.29
-7.37
-8.07
-9.31
-10.81
-12.08
-12.53
-11.60
-9.03
-4.98
-0.05
4.91
9.13
12.15
13.93
14.74
14.95
14.86
14.59
14.13
13.42
12.48
11.42
10.41
9.60
9.03
8.64
8.25
7.71
7.01
6.29
5.76
5.62
5.84
6.15
6.14
5.49
4.09
2.18
0.19
-1.47
-2.62
-3.35
-3.96
-4.78
-5.97
-7.47
-9.01
-10.32
-11.21
-11.71
-11.99
-12.29
-12.79
-13.61
-14.81
-16.35
-18.12
-19.82
-20.94
-20.85
-19.10
-15.58
-10.70
-5.26
-0.13
4.02
6.92
8.67
9.60
10.04
10.23
10.33
10.41
10.50
10.55
10.52
10.34
9.97
9.45
8.83
8.16
7.45
6.69
5.91
5.17
4.58
4.21
4.03
3.94
3.78
3.43
2.83
2.03
1.07
0.03
-1.06
-2.19
-3.37
-4.56
-5.71
-6.75
-7.64
-8.36
-8.95
-9.47
-9.97
-10.44
-10.82
-11.10
-11.28
-11.47
-11.79
-12.33
-13.16
-14.20
-15.26
-15.98
-15.91
-14.59
-11.80
-7.66
-2.70
2.28
6.49
9.41
11.00
11.60
11.71
11.73
11.87
12.11
12.34
12.47
12.46
12.28
11.92
11.39
10.73
10.03
9.46
9.17
9.20
9.49
9.83
9.98
9.72
8.95
7.69
6.12
4.46
2.95
1.76
0.94
0.44
0.10
-0.27
-0.81
-1.60
-2.60
-3.70
-4.78
-5.80
-6.83
-8.03
-9.56
-11.51
-13.76
-16.01
-17.82
-18.67
-18.14
-16.01
-12.36
-7.60
-2.42
2.42
6.30
8.90
10.31
10.90
11.11
11.27
11.47
11.60
11.46
10.91
9.93
8.70
7.45
6.44
5.78
5.47
5.34
5.20
4.90
4.43
3.88
3.40
3.08
2.85
2.58
2.09
1.31
0.32
-0.71
-1.60
-2.29
-2.87
-3.52
-4.39
-5.48
-6.70
-7.87
-8.86
-9.58
-10.05
-10.34
-10.58
-10.94
-11.60
-12.74
-14.40
-16.41
-18.39
-19.72
-19.82
-18.24
-14.93
-10.23
-4.82
0.49
4.96
8.11
9.87
10.49
10.44
10.19
10.07
10.18
10.41
10.55
10.44
10.05
9.47
8.86
8.35
8.00
7.77
7.57
7.36
7.15
6.96
6.80
6.66
6.48
6.19
5.75
5.14
4.36
3.41
2.34
1.21
0.13
-0.76
-1.41
-1.85
-2.26
-2.87
-3.85
-5.20
-6.75
-8.22
-9.35
-10.05
-10.38
-10.58
-10.90
-11.61
-12.84
-14.60
-16.70
-18.73
-20.09
-20.15
-18.43
-14.88
-9.96
-4.50
0.55
4.47
6.95
8.14
8.48
8.43
8.36
8.40
8.52
8.59
8.52
8.28
7.96
7.66
7.47
7.37
7.26
7.02
6.61
6.10
5.66
5.45
5.48
5.59
5.47
4.84
3.61
1.98
0.32
-0.95
-1.62
-1.75
-1.69
-1.83
-2.49
-3.74
-5.37
-7.01
-8.29
-9.01
-9.20
-9.07
-8.92
-9.03
-9.55
-10.52
-11.82
-13.24
-14.49
-15.20
-14.99
-13.54
-10.70
-6.65
-1.86
2.99
7.17
10.19
11.94
12.69
12.92
13.06
13.29
13.57
13.68
13.43
12.83
12.04
11.27
10.65
10.17
9.76
9.34
8.90
8.48
8.14
7.89
7.66
7.34
6.83
6.07
5.01
3.68
2.15
0.54
-1.04
-2.52
-3.92
-5.33
-6.80
-8.26
-9.53
-10.39
-10.71
-10.59
-10.33
-10.35
-11.02
-12.49
-14.55
-16.69
-18.15
-18.21
-16.41
-12.73
-7.63
-1.90
3.58
8.17
11.53
13.67
14.81
15.22
15.14
14.74
14.13
13.40
12.62
11.82
11.03
10.26
9.55
8.92
8.43
8.06
7.79
7.57
7.33
7.02
6.57
5.94
5.12
4.09
2.91
1.59
0.21
-1.17
-2.47
-3.63
-4.65
-5.57
-6.49
-7.49
-8.64
-9.92
-11.34
-12.91
-14.64
-16.58
-18.71
-20.98
-23.33
-25.67
-27.84
-29.60
-30.55
-30.29
-28.53
-25.30
-21.03
-16.43
-12.29
-9.26
-7.62
-7.23
-7.68
-8.42
-9.01
-9.26
-9.25
-9.40
-10.24
-12.21
-15.51
-19.92
-24.87
-29.49
-32.80
-33.91
-32.32
-28.13
-22.11
-15.59
-9.96
-6.17
-4.30
-3.47
-2.22
0.79
6.12
13.20
20.53
26.33
29.32
29.32
27.31
25.02
24.12
25.58
29.30
34.30
39.33
43.53
46.71
49.37
52.26
56.02
60.87
66.62
72.87
79.08
84.60
88.62
90.09
87.91
81.23
69.83
54.37
36.24
17.26
-0.86
-16.87
-30.20
-40.84
-49.08
-55.27
-59.64
-62.32
-63.39
-62.99
-61.38
-58.88
-55.79
-52.29
-48.41
-44.10
-39.37
-34.42
-29.70
-25.70
-22.77
-20.90
-19.74
-18.76
-17.55
-15.99
-14.27
-12.71
-11.49
-10.55
-9.65
-8.53
-7.09
-5.43
-3.83
-2.55
-1.78
-1.55
-1.78
-2.28
-2.79
-2.96
-2.48
-1.08
1.28
4.36
7.69
10.71
12.97
14.27
14.66
14.34
13.56
12.47
11.22
9.93
8.77
7.95
7.58
7.66
8.01
8.38
8.59
8.60
8.55
8.65
9.04
9.69
10.46
11.11
11.48
11.52
11.34
11.12
10.97
10.89
10.82
10.65
10.31
9.80
9.12
8.29
7.26
6.00
4.56
3.05
1.65
0.50
-0.38
-1.14
-2.06
-3.44
-5.37
-7.67
-9.85
-11.25
-11.32
-9.82
-6.94
-3.23
0.64
4.01
6.52
8.07
8.79
8.88
8.50
7.78
6.80
5.68
4.63
3.85
3.49
3.56
3.93
4.33
4.51
4.35
3.87
3.26
2.72
2.36
2.19
2.15
2.12
2.07
1.95
1.77
1.47
1.02
0.35
-0.57
-1.72
-3.07
-4.49
-5.87
-7.08
-8.05
-8.85
-9.61
-10.49
-11.50
-12.45
-12.87
-12.26
-10.32
-7.10
-3.07
1.03
4.52
6.97
8.28
8.67
8.47
7.94
7.25
6.45
5.56
4.63
3.74
2.98
2.38
1.97
1.71
1.64
1.79
2.26
3.14
4.49
6.27
8.37
10.56
12.58
14.14
15.09
15.36
15.04
14.32
13.41
12.47
11.60
10.80
9.99
9.05
7.87
6.38
4.67
2.90
1.37
0.40
0.24
1.02
2.68
4.94
7.30
9.05
9.42
7.78
3.93
-1.71
-8.18
-14.31
-19.12
-22.20
-23.77
-24.40
-24.58
-24.41
-23.58
-21.70
-18.64
-14.81
-11.00
-8.05
-6.37
-5.76
-5.52
-4.87
-3.31
-0.89
1.96
4.72
7.10
9.13
11.03
12.95
14.70
15.84
15.75
13.97
10.42
5.49
-0.03
-5.26
-9.47
-12.27
-13.69
-14.08
-13.90
-13.46
-12.80
-11.73
-10.02
-7.54
-4.47
-1.22
1.74
4.02
5.46
6.11
6.09
5.57
4.64
3.33
1.76
0.12
-1.31
-2.24
-2.51
-2.22
-1.61
-1.04
-0.76
-0.89
-1.31
-1.82
-2.22
-2.41
-2.41
-2.31
-2.25
-2.28
-2.48
-2.85
-3.40
-4.12
-4.96
-5.88
-6.82
-7.65
-8.19
-8.26
-7.82
-7.00
-6.18
-5.81
-6.20
-7.32
-8.74
-9.71
-9.49
-7.62
-4.11
0.56
5.58
10.02
13.06
14.18
13.25
10.67
7.25
4.11
2.28
2.42
4.60
8.27
12.45
16.00
18.07
18.29
16.88
14.44
11.66
8.99
6.44
3.70
0.45
-3.36
-7.32
-10.71
-12.87
-13.49
-12.84
-11.56
-10.29
-9.37
-8.77
-8.21
-7.45
-6.54
-5.82
-5.75
-6.62
-8.36
-10.45
-12.18
-12.86
-12.18
-10.30
-7.76
-5.25
-3.27
-1.98
-1.25
-0.80
-0.43
-0.13
-0.06
-0.35
-1.04
-1.97
-2.85
-3.40
-3.48
-3.12
-2.53
-1.97
-1.62
-1.55
-1.65
-1.77
-1.76
-1.61
-1.38
-1.20
-1.15
-1.27
-1.51
-1.85
-2.29
-2.83
-3.47
-4.16
-4.83
-5.41
-5.86
-6.26
-6.70
-7.28
-8.00
-8.73
-9.20
-9.11
-8.20
-6.46
-4.08
-1.46
0.97
2.91
4.25
5.09
5.59
5.81
5.71
5.21
4.26
2.97
1.59
0.40
-0.39
-0.73
-0.68
-0.45
-0.19
-0.02
0.05
0.06
0.08
0.15
0.22
0.20
-0.05
-0.58
-1.36
-2.24
-3.06
-3.71
-4.22
-4.71
-5.29
-6.02
-6.86
-7.71
-8.46
-8.98
-9.18
-8.95
-8.20
-6.89
-5.10
-3.02
-0.90
1.00
2.47
3.40
3.81
3.77
3.45
3.05
2.75
2.70
2.94
3.44
4.09
4.76
5.38
5.91
6.28
6.43
6.34
6.06
5.72
5.47
5.40
5.41
5.27
4.65
3.30
1.36
-0.62
-2.03
-2.38
-1.50
0.39
2.87
5.19
6.70
7.12
6.79
6.28
6.34
7.63
10.53
15.08
20.37
25.12
28.49
30.75
32.87
36.20
42.00
50.87
62.87
76.25
88.70
98.27
103.80
103.44
95.47
79.26
56.56
31.97
9.32
-8.50
-19.61
-22.38
-17.83
-8.11
4.08
16.19
26.14
28.90
20.02
-1.48
-27.84
-50.09
-60.69
-58.02
-51.45
-46.73
-50.32
-67.72
-98.22
-137.74
-184.00
-234.22
-284.01
-326.17
-339.90
-313.86
-252.46
-188.45
-135.53
-98.89
-74.67
-60.00
-50.52
-41.45
-32.41
-24.71
-18.80
-11.23
-0.72
12.69
27.44
42.10
55.66
65.24
68.89
66.92
63.46
61.06
60.87
62.55
65.40
68.63
70.24
68.85
64.71
60.52
57.98
57.78
59.50
62.47
65.92
68.57
69.56
68.82
67.51
66.36
65.68
65.29
64.83
63.73
61.28
57.03
51.15
44.57
38.24
32.88
28.79
25.91
23.96
22.58
21.49
20.59
19.92
19.54
19.46
19.56
19.60
19.25
18.23
16.36
13.78
10.91
8.39
6.89
6.83
8.28
11.02
14.70
19.05
23.97
29.49
35.72
42.86
51.32
61.85
75.37
92.20
110.91
127.73
137.35
134.99
118.82
91.41
59.30
30.78
13.08
9.92
20.87
42.12
68.10
92.85
110.65
116.46
106.31
78.36
33.51
-24.04
-87.00
-146.14
-192.50
-219.85
-226.30
-214.31
-189.10
-156.66
-122.01
-88.35
-57.43
-30.82
-10.83
-0.18
-1.38
-12.86
-28.38
-40.53
-45.04
-41.96
-34.30
-25.77
-18.70
-13.40
-8.65
-3.25
3.04
9.44
14.91
18.82
21.16
22.54
23.93
26.30
29.87
34.22
38.44
41.56
42.99
42.57
40.57
37.57
33.73
29.18
23.83
17.30
9.25
-0.45
-11.60
-23.75
-36.08
-46.20
-54.27
-60.35
-64.62
-67.49
-69.44
-71.03
-72.63
-74.09
-75.30
-76.08
-75.94
-74.60
-72.22
-69.29
-66.46
-65.50
-65.42
-65.59
-65.42
-64.23
-61.68
-58.13
-54.33
-51.34
-50.16
-51.40
-55.79
-63.59
-73.70
-83.58
-89.56
-87.94
-76.63
-56.40
-30.44
-3.91
18.30
33.33
40.73
41.77
38.18
31.24
21.58
10.10
-2.14
-13.62
-22.81
-28.83
-31.72
-32.10
-30.49
-28.81
-27.43
-26.23
-24.88
-23.22
-21.42
-19.90
-19.24
-19.96
-22.34
-25.93
-29.89
-33.13
-34.73
-34.45
-32.90
-31.42
-31.39
-33.62
-37.43
-40.99
-41.85
-37.76
-27.35
-10.48
11.92
38.05
65.72
92.83
117.76
139.44
157.66
173.06
186.99
200.85
215.71
231.91
249.36
267.78
286.49
304.61
321.31
335.94
347.78
356.04
359.49
356.97
347.98
332.24
310.15
282.91
252.62
221.30
190.53
160.76
131.82
103.93
76.87
50.42
24.52
-0.31
-23.43
-44.01
-61.59
-78.50
-92.17
-98.25
-94.37
-81.83
-63.69
-44.65
-26.37
-9.59
5.42
18.61
29.13
38.24
46.41
54.17
61.91
70.05
78.53
87.16
95.10
101.29
105.02
105.70
103.02
96.66
86.68
73.20
56.65
35.48
9.15
-20.94
-52.58
-84.05
-114.65
-144.00
-171.83
-197.65
-225.82
-258.20
-292.58
-324.76
-352.02
-374.09
-392.05
-407.17
-420.04
-438.43
-465.10
-495.32
-521.13
-537.81
-545.95
-549.26
-551.88
-556.02
-572.13
-603.09
-641.62
-675.52
-696.00
-699.99
-687.82
-661.11
-557.39
-364.33
-124.86
96.95
263.47
370.57
431.31
462.21
477.29
487.33
488.21
479.82
468.82
464.70
471.59
486.13
500.86
502.91
487.12
448.99
395.01
339.49
296.30
270.80
259.47
254.77
251.08
246.83
236.75
218.89
195.19
169.61
144.91
122.05
100.93
80.52
64.32
50.86
38.77
27.97
19.28
13.06
8.72
5.11
0.68
-5.77
-17.32
-36.99
-67.00
-108.01
-158.31
-213.27
-265.73
-308.00
-333.70
-341.05
-333.16
-316.64
-298.56
-283.66
-273.04
-265.02
-257.25
-247.24
-233.75
-216.41
-195.32
-170.64
-142.81
-112.96
-83.36
-57.15
-36.22
-20.76
-9.38
-0.02
9.37
19.97
32.03
47.69
63.26
72.93
73.47
65.68
52.43
36.63
20.38
5.96
-6.30
-16.90
-25.79
-32.50
-36.59
-37.72
-35.08
-29.44
-20.51
-7.92
8.41
28.58
52.15
77.49
101.91
122.52
137.20
145.55
148.30
146.70
142.12
135.39
126.54
115.23
101.53
86.33
71.48
58.78
49.37
43.57
40.82
39.84
38.96
36.49
30.97
21.63
8.46
-7.56
-24.45
-39.75
-51.25
-57.78
-59.54
-57.99
-55.22
-53.23
-53.22
-55.20
-58.11
-60.20
-59.70
-55.34
-46.74
-34.35
-19.26
-2.88
13.29
27.83
39.50
47.32
50.77
50.01
45.93
39.93
33.54
27.93
23.63
20.52
18.07
15.70
13.07
10.17
7.22
4.47
2.06
-0.12
-2.31
-4.77
-7.61
-10.79
-14.13
-17.56
-21.19
-25.40
-30.62
-36.98
-44.00
-50.53
-54.95
-55.69
-51.72
-42.95
-30.20
-14.86
1.51
17.55
32.31
45.15
55.65
63.51
68.52
70.68
70.23
67.65
63.57
58.62
53.39
48.33
43.81
40.07
37.23
35.14
33.37
31.38
28.67
