1660750100.00
64.000000
-0.00
-0.00
-0.00
-0.00
-0.00
-0.00
-0.00
-0.00
-0.00
-0.00
0.00
0.01
0.01
-0.00
-0.03
-0.05
-0.05
0.00
0.13
0.36
0.66
1.01
1.37
1.72
2.06
2.40
2.79
3.24
3.80
4.42
5.06
5.66
6.20
6.68
7.15
7.68
8.31
9.14
10.09
11.04
11.88
12.56
13.14
13.76
14.65
15.96
17.91
20.32
22.90
25.38
27.58
29.57
31.68
34.32
37.81
42.54
48.15
54.10
59.83
64.97
69.58
74.14
79.34
85.71
93.76
103.00
112.62
121.73
129.77
136.75
143.30
150.75
157.77
166.64
177.95
191.79
206.97
220.57
228.25
225.36
208.53
176.87
132.76
80.05
23.07
-34.94
-92.44
-149.16
-205.23
-260.37
-313.74
-363.87
-409.83
-450.91
-486.50
-515.74
-537.23
-549.22
-549.96
-538.37
-514.21
-478.67
-433.88
-382.45
-327.02
-269.84
-212.63
-156.66
-102.95
-52.38
-5.91
35.57
71.43
101.37
125.54
144.43
158.72
169.12
176.23
180.49
182.21
181.64
179.07
174.84
169.30
162.84
155.77
148.33
140.69
132.97
125.25
117.59
110.03
102.56
95.20
87.95
80.83
73.93
67.37
61.25
55.63
50.44
45.54
40.74
35.92
31.08
26.39
22.12
18.51
15.64
13.37
11.33
9.11
6.44
3.33
0.13
-2.64
-4.50
-5.30
-5.32
-5.20
-5.67
-7.19
-9.72
-12.70
-15.27
-16.76
-16.93
-16.14
-15.12
-14.67
-15.28
-17.22
-20.51
-24.99
-29.91
-33.65
-33.90
-28.53
-16.72
0.06
18.32
33.81
43.32
46.02
43.49
38.58
33.80
30.24
27.58
24.96
21.91
18.83
16.56
15.75
16.30
17.38
17.93
17.12
14.84
11.71
8.74
6.80
6.27
6.84
7.78
8.23
7.67
6.14
4.14
2.39
1.44
1.49
2.27
3.24
3.88
3.85
3.21
2.32
1.68
1.75
2.74
4.52
6.76
8.92
10.52
11.27
11.13
10.39
9.48
8.88
8.85
9.43
10.40
11.38
12.05
12.17
11.66
10.52
8.88
6.68
3.98
0.86
-2.50
-5.85
-8.92
-11.50
-13.48
-14.91
-15.91
-16.61
-17.04
-17.15
-16.88
-16.23
-15.30
-14.30
-13.37
-12.57
-11.85
-11.06
-10.18
-9.27
-8.49
-7.97
-7.72
-7.65
-7.57
-7.28
-6.65
-5.61
-4.16
-2.44
-0.62
1.05
2.29
2.94
2.96
2.47
1.70
0.91
0.34
0.13
0.28
0.72
1.27
1.73
1.99
2.03
1.91
1.78
1.75
1.85
2.04
2.23
2.32
2.25
2.03
1.69
1.31
0.91
0.49
0.04
-0.50
-1.12
-1.83
-2.60
-3.34
-3.95
-4.32
-4.42
-4.27
-4.01
-3.83
-3.86
-4.22
-4.82
-5.48
-5.93
-5.85
-5.04
-3.45
-1.20
1.40
4.02
6.32
8.04
9.02
9.22
8.70
7.63
6.25
4.83
3.60
2.68
2.07
1.64
1.26
0.85
0.42
0.05
-0.17
-0.22
-0.13
0.01
0.13
0.20
0.21
0.16
0.03
-0.22
-0.67
-1.36
-2.24
-3.22
-4.11
-4.76
-5.10
-5.22
-5.34
-5.69
-6.39
-7.32
-8.15
-8.45
-7.90
-6.43
-4.20
-1.55
1.13
3.56
5.55
6.99
7.82
8.04
7.67
6.84
5.69
4.43
3.28
2.40
1.92
1.83
2.01
2.23
2.26
1.95
1.33
0.64
0.15
0.09
0.41
0.89
1.19
1.07
0.47
-0.43
-1.37
-2.09
-2.52
-2.73
-2.94
-3.37
-4.15
-5.28
-6.61
-7.90
-8.92
-9.41
-9.19
-8.14
-6.27
-3.73
-0.84
1.96
4.25
5.72
6.33
6.25
5.77
5.19
4.70
4.38
4.18
4.08
4.01
3.95
3.85
3.66
3.38
3.03
2.64
2.25
1.83
1.36
0.82
0.25
-0.31
-0.82
-1.37
-2.02
-2.85
-3.81
-4.73
-5.42
-5.81
-5.97
-6.11
-6.45
-7.09
-7.96
-8.87
-9.56
-9.87
-9.67
-8.94
-7.66
-5.88
-3.75
-1.51
0.51
2.02
2.82
2.87
2.26
1.15
-0.28
-1.84
-3.31
-4.49
-5.14
-5.18
-4.64
-3.77
-2.86
-2.17
-1.83
-1.72
-1.63
-1.39
-0.97
-0.54
-0.37
-0.66
-1.42
-2.42
-3.33
-3.85
-3.90
-3.67
-3.49
-3.66
-4.27
-5.18
-6.11
-6.75
-6.93
-6.56
-5.66
-4.26
-2.42
-0.24
2.12
4.47
6.56
8.24
9.43
10.15
10.46
10.44
10.17
9.69
9.07
8.39
7.74
7.19
6.77
6.51
6.37
6.34
6.41
6.55
6.71
6.79
6.70
6.35
5.75
5.00
4.24
3.52
2.78
1.85
0.54
-1.27
-3.52
-6.03
-8.57
-10.92
-12.87
-14.18
-14.55
-13.72
-11.56
-8.28
-4.39
-0.58
2.59
4.82
6.17
6.89
7.21
7.21
6.80
5.89
4.57
3.11
1.83
1.01
0.68
0.71
0.91
1.17
1.51
2.01
2.67
3.37
3.91
4.09
3.85
3.28
2.54
1.80
1.16
0.62
0.11
-0.42
-1.06
-1.87
-2.87
-4.02
-5.14
-5.97
-6.21
-5.64
-4.21
-2.11
0.30
2.61
4.49
5.81
6.62
7.07
7.28
7.27
6.94
6.20
5.05
3.64
2.24
1.15
0.57
0.54
0.92
1.48
1.97
2.25
2.24
2.01
1.64
1.19
0.67
0.02
-0.80
-1.80
-2.88
-3.92
-4.82
-5.60
-6.38
-7.28
-8.32
-9.33
-9.94
-9.75
-8.53
-6.32
-3.45
-0.48
2.06
3.84
4.75
4.97
4.77
4.41
4.03
3.63
3.18
2.66
2.14
1.79
1.76
2.06
2.60
3.16
3.51
3.56
3.36
3.06
2.86
2.84
3.01
3.25
3.44
3.48
3.31
2.92
2.29
1.39
0.18
-1.37
-3.19
-5.10
-6.77
-7.85
-8.01
-7.14
-5.39
-3.14
-0.82
1.24
2.88
4.09
4.91
5.36
5.38
4.99
4.25
3.37
2.56
2.04
1.87
2.01
2.32
2.65
2.89
3.00
2.98
2.86
2.67
2.40
1.98
1.34
0.42
-0.74
-2.01
-3.25
-4.37
-5.43
-6.61
-8.08
-9.92
-12.00
-14.00
-15.51
-16.15
-15.67
-14.05
-11.47
-8.30
-4.93
-1.74
1.00
3.11
4.55
5.26
5.28
4.68
3.68
2.55
1.60
1.03
0.87
0.98
1.20
1.41
1.56
1.68
1.77
1.78
1.64
1.31
0.82
0.24
-0.34
-0.85
-1.25
-1.56
-1.80
-2.05
-2.39
-2.95
-3.79
-4.86
-5.99
-6.89
-7.24
-6.76
-5.35
-3.08
-0.19
2.93
5.90
8.41
10.35
11.74
12.71
13.38
13.79
13.98
13.95
13.74
13.42
13.06
12.68
12.27
11.80
11.22
10.49
9.60
8.51
7.19
5.64
3.87
1.93
-0.11
-2.16
-4.13
-5.94
-7.53
-8.91
-10.07
-11.05
-11.90
-12.68
-13.47
-14.30
-15.16
-15.89
-16.22
-15.79
-14.33
-11.83
-8.60
-5.17
-2.14
0.13
1.59
2.47
3.07
3.60
4.09
4.44
4.58
4.54
4.43
4.42
4.59
4.94
5.39
5.85
6.28
6.64
6.87
6.89
6.62
6.08
5.37
4.63
3.99
3.53
3.18
2.81
2.29
1.57
0.68
-0.33
-1.40
-2.52
-3.67
-4.76
-5.54
-5.72
-5.00
-3.32
-0.91
1.72
4.00
5.53
6.19
6.17
5.82
5.44
5.11
4.79
4.33
3.70
2.96
2.27
1.78
1.56
1.55
1.64
1.76
1.83
1.82
1.72
1.47
1.07
0.47
-0.36
-1.39
-2.52
-3.63
-4.53
-5.10
-5.34
-5.42
-5.64
-6.29
-7.43
-8.87
-10.16
-10.80
-10.43
-9.00
-6.75
-4.10
-1.51
0.67
2.31
3.42
4.11
4.51
4.69
4.64
4.35
3.84
3.22
2.67
2.36
2.35
2.56
2.81
2.93
2.82
2.54
2.20
1.91
1.70
1.47
1.07
0.44
-0.39
-1.26
-1.93
-2.24
-2.16
-1.86
-1.66
-1.85
-2.64
-4.00
-5.69
-7.33
-8.51
-8.91
-8.40
-7.01
-4.98
-2.65
-0.37
1.57
3.04
4.04
4.65
4.99
5.11
5.02
4.71
4.20
3.57
2.94
2.41
2.02
1.76
1.60
1.51
1.50
1.58
1.71
1.79
1.69
1.31
0.66
-0.19
-1.10
-1.94
-2.68
-3.35
-3.98
-4.61
-5.24
-5.85
-6.45
-7.11
-7.84
-8.62
-9.26
-9.49
-9.03
-7.70
-5.56
-2.95
-0.34
1.78
3.13
3.69
3.70
3.48
3.31
3.28
3.28
3.20
2.99
2.72
2.58
2.68
2.99
3.34
3.47
3.24
2.71
2.10
1.67
1.59
1.84
2.19
2.39
2.22
1.66
0.85
-0.01
-0.74
-1.28
-1.69
-2.11
-2.64
-3.36
-4.20
-5.06
-5.75
-6.07
-5.84
-4.96
-3.41
-1.32
1.05
3.37
5.35
6.77
7.56
7.76
7.45
6.75
5.78
4.71
3.78
3.21
3.08
3.32
3.66
3.82
3.65
3.17
2.57
2.09
1.85
1.82
1.83
1.74
1.45
1.00
0.46
-0.09
-0.62
-1.16
-1.72
-2.36
-3.06
-3.78
-4.43
-4.96
-5.38
-5.72
-6.02
-6.25
-6.24
-5.76
-4.61
-2.78
-0.52
1.74
3.57
4.71
5.18
5.21
5.10
5.03
5.02
4.94
4.68
4.17
3.52
2.87
2.37
2.14
2.15
2.29
2.39
2.30
2.00
1.60
1.25
1.10
1.13
1.18
1.01
0.45
-0.47
-1.54
-2.50
-3.16
-3.51
-3.75
-4.11
-4.76
-5.69
-6.72
-7.55
-7.92
-7.62
-6.65
-5.13
-3.31
-1.45
0.28
1.79
3.09
4.18
5.03
5.52
5.57
5.14
4.33
3.38
2.54
2.06
2.02
2.37
2.89
3.30
3.39
3.10
2.49
1.78
1.15
0.68
0.33
0.00
-0.36
-0.75
-1.07
-1.28
-1.43
-1.65
-2.09
-2.75
-3.51
-4.19
-4.64
-4.84
-4.95
-5.16
-5.58
-6.13
-6.57
-6.58
-5.93
-4.59
-2.73
-0.69
1.17
2.59
3.51
4.05
4.43
4.81
5.21
5.50
5.53
5.21
4.60
3.89
3.33
3.05
3.04
3.13
3.11
2.86
2.41
1.93
1.60
1.52
1.63
1.71
1.54
1.02
0.17
-0.79
-1.64
-2.24
-2.61
-2.88
-3.23
-3.73
-4.32
-4.86
-5.24
-5.49
-5.73
-6.14
-6.74
-7.32
-7.53
-7.01
-5.59
-3.42
-0.86
1.57
3.48
4.68
5.24
5.38
5.37
5.35
5.35
5.27
5.00
4.49
3.84
3.21
2.77
2.61
2.68
2.87
3.06
3.19
3.24
3.19
3.03
2.68
2.13
1.41
0.63
-0.11
-0.72
-1.18
-1.54
-1.86
-2.20
-2.59
-3.06
-3.54
-3.99
-4.34
-4.60
-4.79
-4.96
-5.12
-5.17
-4.95
-4.31
-3.22
-1.78
-0.20
1.28
2.50
3.37
3.90
4.13
4.12
3.99
3.82
3.67
3.53
3.33
3.03
2.61
2.21
1.97
2.01
2.26
2.58
2.72
2.58
2.17
1.65
1.18
0.86
0.65
0.49
0.25
-0.09
-0.55
-1.08
-1.62
-2.15
-2.62
-3.05
-3.47
-3.96
-4.57
-5.33
-6.19
-7.01
-7.61
-7.85
-7.61
-6.82
-5.47
-3.60
-1.35
1.03
3.19
4.79
5.63
5.71
5.25
4.56
3.90
3.46
3.22
3.10
2.96
2.71
2.37
2.02
1.78
1.77
2.00
2.36
2.68
2.73
2.42
1.74
0.85
-0.05
-0.78
-1.25
-1.48
-1.56
-1.59
-1.62
-1.66
-1.71
-1.78
-1.88
-2.08
-2.44
-3.00
-3.75
-4.62
-5.46
-6.16
-6.61
-6.73
-6.46
-5.73
-4.49
-2.74
-0.59
1.71
3.81
5.38
6.20
6.25
5.72
4.88
3.99
3.23
2.63
2.13
1.68
1.27
0.92
0.71
0.68
0.81
1.01
1.16
1.15
0.89
0.38
-0.29
-0.97
-1.48
-1.69
-1.60
-1.33
-1.09
-1.05
-1.28
-1.70
-2.17
-2.60
-2.96
-3.34
-3.83
-4.44
-5.07
-5.55
-5.64
-5.16
-4.01
-2.23
0.01
2.40
4.61
6.40
7.66
8.45
8.86
9.00
8.88
8.48
7.83
7.02
6.18
5.43
4.75
4.03
3.17
2.10
0.90
-0.31
-1.37
-2.21
-2.88
-3.50
-4.23
-5.21
-6.47
-7.91
-9.36
-10.65
-11.64
-12.28
-12.57
-12.55
-12.23
-11.63
-10.81
-9.88
-9.03
-8.45
-8.28
-8.47
-8.80
-8.87
-8.28
-6.75
-4.29
-1.24
1.85
4.47
6.30
7.34
7.83
8.10
8.34
8.56
8.68
8.55
8.18
7.65
7.10
6.66
6.31
6.00
5.59
5.03
4.32
3.57
2.91
2.39
2.00
1.61
1.09
0.38
-0.48
-1.31
-1.89
-2.10
-1.92
-1.49
-1.06
-0.84
-0.96
-1.44
-2.19
-3.04
-3.82
-4.38
-4.61
-4.49
-3.98
-3.07
-1.80
-0.24
1.42
2.92
3.97
4.41
4.29
3.82
3.31
2.96
2.77
2.59
2.23
1.65
0.94
0.32
-0.05
-0.16
-0.12
-0.10
-0.22
-0.49
-0.87
-1.30
-1.73
-2.12
-2.45
-2.69
-2.82
-2.86
-2.87
-2.91
-3.00
-3.16
-3.37
-3.66
-4.08
-4.67
-5.37
-6.02
-6.36
-6.14
-5.20
-3.58
-1.52
0.61
2.43
3.70
4.41
4.74
4.97
5.27
5.65
5.91
5.83
5.28
4.36
3.36
2.59
2.25
2.32
2.53
2.59
2.32
1.73
1.01
0.44
0.15
0.09
0.11
-0.04
-0.48
-1.21
-2.10
-2.96
-3.64
-4.09
-4.40
-4.72
-5.18
-5.85
-6.65
-7.50
-8.23
-8.73
-8.92
-8.71
-8.01
-6.77
-5.02
-2.91
-0.72
1.27
2.85
3.97
4.73
5.29
5.75
6.14
6.38
6.38
6.08
5.49
4.74
4.00
3.48
3.25
3.27
3.32
3.13
2.54
1.60
0.61
-0.11
-0.34
-0.13
0.26
0.47
0.34
-0.13
-0.73
-1.22
-1.47
-1.51
-1.49
-1.60
-2.00
-2.73
-3.74
-4.88
-5.99
-6.86
-7.37
-7.39
-6.85
-5.71
-4.00
-1.87
0.43
2.58
4.27
5.33
5.78
5.75
5.43
4.98
4.46
3.94
3.48
3.18
3.14
3.35
3.71
4.00
4.03
3.72
3.15
2.48
1.89
1.49
1.29
1.25
1.25
1.20
0.98
0.55
-0.10
-0.89
-1.70
-2.39
-2.85
-3.09
-3.21
-3.37
-3.72
-4.37
-5.30
-6.40
-7.39
-7.95
-7.77
-6.68
-4.74
-2.21
0.53
3.09
5.17
6.64
7.49
7.77
7.60
7.12
6.48
5.90
5.52
5.44
5.60
5.86
6.01
5.89
5.49
4.90
4.35
4.03
4.03
4.30
4.68
4.96
4.99
4.70
4.09
3.23
2.22
1.11
-0.09
-1.40
-2.84
-4.36
-5.84
-7.10
-7.98
-8.37
-8.33
-8.04
-7.79
-7.82
-8.20
-8.80
-9.34
-9.44
-8.82
-7.37
-5.17
-2.51
0.24
2.72
4.64
5.85
6.33
6.24
5.79
5.29
4.96
4.94
5.23
5.69
6.13
6.42
6.47
6.34
6.10
5.83
5.57
5.29
4.96
4.55
4.05
3.46
2.81
2.12
1.45
0.87
0.43
0.20
0.13
0.14
0.10
-0.12
-0.60
-1.32
-2.26
-3.37
-4.58
-5.87
-7.21
-8.53
-9.71
-10.59
-10.86
-10.22
-8.48
-5.66
-2.13
1.53
4.69
6.87
7.94
8.14
7.96
7.95
8.45
9.48
10.71
11.69
12.03
11.59
10.66
9.85
9.87
11.15
13.62
16.69
19.49
21.19
21.29
19.97
18.10
17.02
17.92
21.38
27.14
34.15
40.64
44.79
45.42
42.77
38.47
34.79
33.58
35.51
39.66
43.45
43.45
36.83
22.77
3.00
-18.78
-37.95
-50.23
-52.83
-45.86
-32.50
-17.95
-7.53
-5.03
-12.08
-28.15
-51.06
-75.28
-93.54
-100.21
-95.05
-82.06
-65.63
-48.41
-31.50
-15.47
-0.98
10.76
18.72
22.54
23.29
23.03
23.75
26.49
31.15
36.88
42.09
45.55
46.61
45.70
43.94
42.39
41.36
40.40
38.72
34.69
27.88
18.37
6.93
-5.23
-17.09
-28.29
-39.00
-47.84
-55.91
-63.47
-70.29
-75.81
-79.45
-81.04
-81.06
-80.28
-79.57
-79.99
-82.05
-85.91
-90.97
-95.60
-97.32
-93.61
-82.93
-65.60
-44.25
-22.49
-3.79
9.86
18.16
23.06
26.48
29.69
32.99
35.90
37.98
39.21
39.90
40.50
41.19
41.66
41.42
39.99
37.18
33.32
29.02
24.94
21.52
18.93
16.93
15.20
13.46
11.63
9.80
8.19
7.08
6.55
6.50
6.57
6.25
5.12
2.96
-0.15
-3.86
-7.61
-10.96
-13.71
-15.87
-17.59
-18.97
-19.91
-20.15
-19.82
-18.99
-17.95
-17.11
-16.88
-17.42
-18.60
-20.07
-21.38
-22.27
-22.57
-22.32
-21.65
-20.71
-19.65
-18.69
-18.11
-18.22
-19.20
-20.99
-23.28
-25.60
-27.58
-29.02
-30.01
-30.79
-31.57
-32.33
-32.77
-32.49
-31.12
-28.46
-24.54
-19.50
-13.54
-6.93
0.01
6.81
12.98
18.08
21.91
24.54
26.28
27.48
28.40
29.18
29.82
30.32
30.71
31.01
31.25
31.42
31.52
31.60
31.75
31.99
32.27
32.32
31.79
30.30
27.66
24.00
19.73
15.51
11.98
9.59
8.40
8.05
7.86
7.04
4.93
1.24
-3.94
-10.12
-16.53
-22.26
-26.46
-28.48
-28.14
-25.82
-22.39
-19.03
-16.72
-15.99
-16.67
-18.12
-19.55
-20.33
-20.17
-19.10
-17.39
-15.44
-13.76
-12.89
-13.21
-14.67
-16.63
-18.00
-17.66
-14.93
-10.05
-4.06
1.58
5.58
7.36
7.09
5.53
3.55
1.74
0.38
-0.53
-0.98
-0.91
-0.20
1.09
2.62
3.72
3.75
2.44
0.14
-2.21
-3.40
-2.33
1.49
7.93
16.21
25.15
33.53
40.25
44.61
46.38
45.83
43.61
40.46
37.02
33.60
30.15
26.40
22.08
17.10
11.66
6.21
1.30
-2.59
-5.19
-6.57
-7.05
-7.11
-7.29
-8.03
-9.61
-12.06
-15.14
-18.42
-21.32
-23.24
-23.72
-22.56
-19.89
-16.21
-12.20
-8.57
-5.73
-3.62
-1.70
0.85
4.72
10.13
16.68
23.46
29.40
33.67
35.87
36.09
34.72
32.22
29.07
25.62
22.24
19.31
17.17
16.13
16.28
17.46
19.27
21.17
22.75
23.87
24.72
25.74
27.31
29.62
32.52
35.62
38.42
40.47
41.45
41.09
39.22
35.77
30.82
24.59
17.38
9.43
0.92
-7.98
-16.93
-25.27
-32.07
-36.34
-37.38
-35.11
-30.17
-23.79
-17.44
-12.38
-9.22
-7.85
-7.55
-7.33
-6.45
-4.67
-2.35
-0.13
1.51
2.66
4.08
6.99
12.60
21.61
33.90
48.49
63.64
77.05
86.24
89.09
84.41
72.45
55.02
35.16
16.22
0.83
-9.85
-16.27
-19.96
-22.62
-25.39
-28.47
-31.28
-32.93
-32.67
-30.20
-25.61
-19.32
-11.86
-3.79
4.33
11.98
18.72
24.24
28.49
31.65
34.08
36.23
38.46
40.90
43.39
45.48
46.58
46.15
43.93
40.07
35.08
29.62
24.23
19.16
14.33
9.45
4.30
-1.17
-6.75
-12.16
-17.15
-21.68
-25.87
-29.96
-34.14
-38.47
-42.89
-47.25
-51.45
-55.55
-59.67
-63.88
-67.96
-71.29
-72.86
-71.52
-66.39
-57.17
-44.26
-28.81
-12.41
3.08
15.87
24.52
28.31
27.52
23.44
18.02
13.19
10.19
9.12
9.12
9.03
8.11
6.35
4.42
3.09
2.74
3.13
3.68
3.92
3.83
3.79
4.27
5.44
6.98
8.28
8.78
8.33
7.24
6.14
5.59
5.84
6.70
7.70
8.24
7.97
6.91
5.54
4.68
5.22
7.74
12.24
18.05
23.99
28.74
31.32
31.32
28.98
24.96
20.11
15.11
10.40
6.15
2.29
-1.26
-4.60
-7.76
-10.70
-13.42
-15.93
-18.24
-20.34
-22.13
-23.40
-23.95
-23.63
-22.47
-20.67
-18.50
-16.24
-14.08
-12.14
-10.47
-9.12
-8.08
-7.24
-6.40
-5.33
-3.95
-2.40
-1.04
-0.30
-0.44
-1.37
-2.70
-3.84
-4.28
-3.71
-2.14
0.19
2.92
5.70
8.29
10.56
12.46
13.97
15.02
15.55
15.48
14.84
13.76
12.46
11.17
10.08
9.25
8.68
8.32
8.10
7.93
7.71
7.33
6.70
5.84
4.83
3.82
2.94
2.22
1.59
0.89
-0.02
-1.30
-2.98
-5.07
-7.49
-10.19
-13.13
-16.31
-19.68
-23.12
-26.38
-29.21
-31.33
-32.63
-33.09
-32.83
-32.03
-30.87
-29.57
-28.32
-27.31
-26.66
-26.42
-26.51
-26.77
-26.97
-26.86
-26.14
-24.60
-22.17
-18.92
-15.09
-10.92
-6.47
-1.56
4.14
10.94
18.85
27.45
35.97
43.51
49.28
52.83
54.10
53.36
51.09
47.87
44.31
40.92
38.06
35.81
34.08
32.55
30.82
28.43
25.05
20.45
14.68
8.08
1.27
-4.99
-10.00
-13.35
-15.06
-15.57
-15.63
-16.02
-17.32
-19.71
-22.92
-26.36
-29.27
-31.02
-31.26
-29.98
-27.55
-24.52
-21.49
-18.99
-17.34
-16.58
-16.47
-16.59
-16.44
-15.66
-14.16
-12.17
-10.18
-8.69
-8.13
-8.65
-10.18
-12.44
-15.02
-17.51
-19.61
-21.19
-22.38
-23.51
-24.92
-26.87
-29.41
-32.40
-35.58
-38.72
-41.63
-44.14
-46.04
-47.08
-47.10
-46.08
-44.17
-41.65
-38.71
-35.36
-31.46
-26.81
-21.36
-15.28
-8.94
-2.75
2.95
8.01
12.43
16.26
19.51
22.18
24.28
25.89
27.18
28.31
29.33
30.16
30.57
30.37
29.58
28.57
27.93
28.25
29.77
32.16
34.59
36.09
35.96
34.07
30.85
27.05
23.31
20.04
17.32
15.12
13.52
12.67
12.64
13.24
14.08
14.79
15.33
16.02
17.36
19.67
22.78
26.13
29.00
30.95
31.97
32.35
32.44
32.37
32.06
31.31
30.10
28.64
27.34
26.54
26.36
26.57
26.65
26.01
24.15
20.91
16.45
11.19
5.60
0.05
-5.34
-10.56
-15.59
-20.31
-24.50
-27.94
-30.52
-32.32
-33.50
-34.18
-34.35
-33.87
-32.56
-30.38
-27.46
-24.13
-20.81
-17.88
-15.56
-13.87
-12.69
-11.84
-11.14
-10.50
-9.85
-9.15
-8.37
-7.50
-6.53
-5.43
-4.04
-2.10
0.78
4.94
10.46
17.12
24.30
31.15
36.79
40.49
41.83
40.73
37.40
32.34
26.21
19.73
13.52
7.99
3.24
-0.90
-4.73
-8.59
-12.71
-17.23
-22.11
-27.23
-32.28
-36.76
-40.02
-41.36
-40.28
-36.77
-31.36
-25.02
-18.92
-13.93
-10.40
-8.11
-6.53
-5.13
-3.69
-2.33
-1.39
-1.17
-1.70
-2.75
-3.94
-4.90
-5.45
-5.63
-5.61
-5.51
-5.37
-5.08
-4.51
-3.60
-2.47
-1.40
-0.68
-0.49
-0.78
-1.30
-1.75
-1.96
-1.99
-2.10
-2.61
-3.60
-4.94
-6.30
-7.35
-7.94
-8.14
-8.14
-8.05
-7.74
-6.95
-5.38
-2.97
0.07
3.25
6.04
8.03
9.16
9.63
9.80
10.00
10.40
10.90
11.26
11.28
10.89
10.26
9.67
9.39
9.52
9.97
10.55
11.03
11.33
11.50
11.68
11.97
12.38
12.83
13.15
13.19
12.88
12.29
11.60
10.99
10.55
10.23
9.80
9.10
8.07
6.85
5.69
4.81
4.26
3.90
3.51
2.94
2.16
1.29
0.48
-0.20
-0.77
-1.37
-2.10
-3.01
-3.98
-4.80
-5.22
-5.04
-4.22
-2.91
-1.42
-0.09
0.86
1.38
1.59
1.67
1.76
1.82
1.76
1.49
1.01
0.47
0.06
-0.05
0.07
0.24
0.19
-0.28
-1.14
-2.20
-3.17
-3.79
-4.01
-3.91
-3.72
-3.65
-3.82
-4.21
-4.69
-5.11
-5.39
-5.53
-5.57
-5.58
-5.54
-5.44
-5.23
-4.91
-4.53
-4.18
-3.98
-4.02
-4.32
-4.85
-5.51
-6.15
-6.62
-6.87
-6.98
-7.15
-7.59
-8.34
-9.21
-9.85
-9.85
-8.99
-7.35
-5.29
-3.23
-1.52
-0.25
0.67
1.44
2.18
2.84
3.28
3.38
3.13
2.71
2.37
2.35
2.71
3.31
3.90
4.25
4.26
3.99
3.66
3.41
3.33
3.35
3.33
3.15
2.76
2.25
1.75
1.43
1.36
1.50
1.67
1.61
1.10
0.11
-1.16
-2.40
-3.29
-3.70
-3.72
-3.61
-3.65
-3.95
-4.48
-5.12
-5.78
-6.48
-7.31
-8.31
-9.41
-10.40
-11.00
-10.99
-10.29
-9.01
-7.40
-5.77
-4.35
-3.22
-2.29
-1.39
-0.36
0.80
1.96
2.93
3.57
3.89
4.03
4.20
4.49
4.90
5.30
5.56
5.58
5.37
5.06
4.77
4.61
4.62
4.71
4.77
4.67
4.35
3.84
3.28
2.82
2.54
2.43
2.34
2.13
1.72
1.11
0.39
-0.34
-1.05
-1.75
-2.50
-3.35
-4.26
-5.16
-5.95
-6.55
-6.97
-7.29
-7.62
-8.00
-8.32
-8.33
-7.69
-6.21
-3.92
-1.13
1.69
4.07
5.77
6.80
7.40
7.84
8.35
8.97
9.65
10.30
10.84
11.28
11.63
11.88
12.01
11.95
11.67
11.23
10.73
10.32
10.07
9.93
9.74
9.33
8.57
7.48
6.17
4.83
3.61
2.62
1.82
1.16
0.56
-0.09
-0.81
-1.60
-2.35
-2.93
-3.22
-3.19
-2.95
-2.67
-2.58
-2.81
-3.42
-4.36
-5.58
-6.99
-8.50
-9.98
-11.27
-12.12
-12.28
-11.57
-9.95
-7.63
-5.02
-2.63
-0.86
0.12
0.46
0.46
0.41
0.41
0.41
0.27
-0.06
-0.47
-0.70
-0.58
-0.07
0.62
1.19
1.40
1.18
0.66
0.09
-0.25
-0.23
0.14
0.71
1.27
1.62
1.70
1.58
1.38
1.25
1.22
1.23
1.13
0.81
0.24
-0.48
-1.18
-1.67
-1.90
-1.92
-1.92
-2.18
-2.85
-3.99
-5.42
-6.87
-8.02
-8.67
-8.76
-8.38
-7.66
-6.67
-5.45
-3.99
-2.37
-0.80
0.47
1.18
1.26
0.81
0.07
-0.69
-1.27
-1.63
-1.87
-2.10
-2.39
-2.69
-2.88
-2.84
-2.50
-1.92
-1.26
-0.70
-0.35
-0.19
-0.07
0.17
0.62
1.25
1.90
2.42
2.72
2.85
2.91
2.98
3.06
3.07
2.87
2.37
1.57
0.55
-0.57
-1.67
-2.66
-3.56
-4.43
-5.36
-6.43
-7.68
-9.07
-10.45
-11.66
-12.52
-12.86
-12.59
-11.69
-10.21
-8.30
-6.17
-4.05
-2.17
-0.69
0.37
1.06
1.51
1.89
2.35
2.99
3.86
4.90
5.92
6.74
7.24
7.41
7.39
7.36
7.45
7.68
7.98
8.25
8.40
8.46
8.50
8.59
8.67
8.61
8.24
7.45
6.27
4.89
3.55
2.48
1.72
1.16
0.59
-0.17
-1.16
-2.25
-3.23
-3.98
-4.52
-5.05
-5.72
-6.61
-7.60
-8.49
-9.10
-9.37
-9.43
-9.40
-9.40
-9.35
-9.09
-8.41
-7.24
-5.62
-3.74
-1.88
-0.29
0.89
1.63
2.07
2.39
2.81
3.44
4.28
5.22
6.14
6.94
7.60
8.16
8.64
9.06
9.37
9.51
9.46
9.19
8.77
8.27
7.78
7.41
7.19
7.09
7.01
6.80
6.36
5.69
4.89
4.09
3.39
2.76
2.09
1.23
0.13
-1.09
-2.22
-3.03
-3.42
-3.46
-3.37
-3.40
-3.73
-4.32
-5.03
-5.62
-5.91
-5.77
-5.18
-4.18
-2.83
-1.22
0.54
2.29
3.86
5.10
5.93
6.34
6.42
6.33
6.20
6.09
5.96
5.69
5.18
4.34
3.26
2.11
1.12
0.43
0.03
-0.20
-0.44
-0.78
-1.19
-1.53
-1.70
-1.71
-1.75
-2.00
-2.52
-3.20
-3.79
-4.08
-4.05
-3.88
-3.89
-4.29
-5.13
-6.27
-7.48
-8.56
-9.40
-9.95
-10.23
-10.25
-10.03
-9.67
-9.31
-9.15
-9.34
-9.96
-10.92
-12.03
-13.03
-13.64
-13.64
-12.92
-11.56
-9.74
-7.75
-5.86
-4.27
-3.06
-2.18
-1.51
-0.90
-0.25
0.44
1.14
1.78
2.30
2.71
3.06
3.39
3.70
3.99
4.21
4.35
4.42
4.47
4.53
4.58
4.54
4.27
3.65
2.62
1.25
-0.24
-1.57
-2.48
-2.85
-2.74
-2.42
-2.17
-2.20
-2.56
-3.17
-3.85
-4.43
-4.82
-4.98
-4.96
-4.81
-4.63
-4.54
-4.65
-5.06
-5.74
-6.56
-7.28
-7.65
-7.45
-6.60
-5.19
-3.46
-1.66
-0.03
1.31
2.37
3.20
3.87
4.41
4.86
5.28
5.70
6.14
6.52
6.71
6.60
6.21
5.69
5.29
5.21
5.50
6.00
6.48
6.74
6.72
6.54
6.38
6.38
6.53
6.70
6.68
6.37
5.80
5.13
4.56
4.14
3.79
3.25
2.31
0.94
-0.63
-2.00
-2.86
-3.10
-2.93
-2.74
-2.86
-3.41
-4.30
-5.29
-6.21
-7.05
-7.88
-8.78
-9.63
-10.16
-10.02
-8.95
-6.97
-4.38
-1.67
0.69
2.39
3.44
4.04
4.48
4.93
5.42
5.82
5.98
5.83
5.45
4.99
4.60
4.35
4.24
4.17
4.06
3.85
3.58
3.30
3.08
2.99
3.03
3.15
3.23
3.14
2.78
2.18
1.39
0.51
-0.40
-1.34
-2.35
-3.44
-4.54
-5.52
-6.23
-6.59
-6.59
-6.36
-6.04
-5.78
-5.65
-5.64
-5.72
-5.85
-6.05
-6.35
-6.75
-7.13
-7.25
-6.83
-5.65
-3.65
-1.03
1.82
4.46
6.53
7.86
8.52
8.73
8.81
9.01
9.46
10.08
10.66
10.95
10.85
10.45
10.03
9.84
9.99
10.34
10.64
10.68
10.43
10.06
9.82
9.84
10.07
10.26
10.16
9.58
8.53
7.16
5.68
4.25
2.95
1.73
0.47
-0.98
-2.67
-4.52
-6.29
-7.65
-8.37
-8.43
-8.06
-7.64
-7.52
-7.94
-8.88
-10.17
-11.50
-12.56
-13.02
-12.67
-11.37
-9.14
-6.18
-2.80
0.59
3.58
5.87
7.29
7.83
7.68
7.12
6.49
5.99
5.70
5.54
5.35
5.00
4.46
3.85
3.30
2.95
2.86
2.99
3.26
3.54
3.70
3.69
3.46
3.05
2.43
1.58
0.42
-1.05
-2.74
-4.46
-5.97
-7.11
-7.90
-8.51
-9.17
-10.04
-11.13
-12.32
-13.42
-14.26
-14.79
-15.04
-15.10
-15.06
-14.96
-14.84
-14.75
-14.70
-14.76
-14.94
-15.19
-15.33
-15.06
-14.07
-12.19
-9.47
-6.25
-3.05
-0.40
1.34
2.09
2.02
1.48
0.85
0.37
0.12
0.02
-0.12
-0.48
-1.11
-2.00
-3.03
-4.09
-5.16
-6.28
-7.54
-9.00
-10.61
-12.24
-13.79
-15.19
-16.47
-17.69
-18.88
-19.93
-20.61
-20.61
-19.67
-17.64
-14.58
-10.76
-6.52
-2.22
1.88
5.64
9.02
12.00
14.56
16.61
18.07
18.90
19.16
18.96
18.47
17.76
16.82
15.64
14.31
13.09
12.38
12.58
13.85
16.00
18.51
20.73
22.15
22.59
22.25
21.52
20.84
20.44
20.35
20.40
20.35
20.03
19.36
18.38
17.20
15.95
14.75
13.68
12.79
12.06
11.46
10.92
10.39
9.85
9.24
8.50
7.54
6.29
4.77
3.07
1.37
-0.20
-1.59
-2.87
-4.18
-5.65
-7.29
-8.98
-10.55
-11.82
-12.72
-13.32
-13.81
-14.39
-15.29
-16.66
-18.48
-20.61
-22.77
-24.60
-25.71
-25.80
-24.65
-22.25
-18.77
-14.57
-10.11
-5.89
-2.25
0.66
2.89
4.68
6.29
7.91
9.58
11.21
12.65
13.79
14.56
15.00
15.18
15.16
14.96
14.51
13.69
12.44
10.81
9.01
7.38
6.20
5.61
5.49
5.52
5.36
4.79
3.81
2.60
1.41
0.32
-0.73
-1.96
-3.53
-5.44
-7.51
-9.37
-10.76
-11.57
-11.96
-12.24
-12.69
-13.43
-14.38
-15.33
-16.12
-16.70
-17.20
-17.71
-18.21
-18.43
-17.95
-16.38
-13.59
-9.82
-5.65
-1.75
1.36
3.45
4.72
5.56
6.44
7.59
9.01
10.44
11.55
12.12
12.18
11.91
11.62
11.50
11.55
11.63
11.50
11.04
10.26
9.32
8.37
7.50
6.71
5.93
5.11
4.26
3.43
2.72
2.16
1.75
1.41
1.04
0.52
-0.22
-1.20
-2.38
-3.69
-5.15
-6.76
-8.54
-10.38
-12.06
-13.28
-13.81
-13.63
-12.99
-12.30
-12.00
-12.36
-13.33
-14.60
-15.64
-15.93
-15.10
-13.03
-9.93
-6.23
-2.41
1.11
4.14
6.63
8.63
10.16
11.18
11.61
11.46
10.84
9.96
9.10
8.42
7.91
7.44
6.76
5.71
4.31
2.81
1.62
1.11
1.41
2.36
3.56
4.60
5.22
5.41
5.36
5.26
5.14
4.89
4.30
3.18
1.55
-0.36
-2.21
-3.70
-4.64
-5.07
-5.18
-5.15
-5.15
-5.20
-5.31
-5.52
-5.93
-6.68
-7.78
-8.98
-9.82
-9.76
-8.47
-5.97
-2.66
0.84
3.98
6.37
7.96
8.90
9.46
9.92
10.45
11.08
11.70
12.15
12.27
12.00
11.39
10.61
9.79
9.02
8.29
7.58
6.87
6.21
5.62
5.09
4.49
3.68
2.53
1.01
-0.82
-2.79
-4.68
-6.27
-7.40
-8.01
-8.19
-8.15
-8.13
-8.31
-8.78
-9.46
-10.20
-10.85
-11.34
-11.65
-11.80
-11.81
-11.75
-11.71
-11.86
-12.34
-13.23
-14.40
-15.52
-16.03
-15.39
-13.26
-9.69
-5.17
-0.47
3.62
6.57
8.27
8.99
9.19
9.25
9.33
9.41
9.40
9.33
9.32
9.55
10.05
10.67
11.14
11.19
10.67
9.66
8.40
7.15
6.13
5.42
4.99
4.70
4.40
4.00
3.45
2.77
1.99
1.11
0.11
-1.05
-2.38
-3.78
-5.10
-6.17
-6.92
-7.40
-7.77
-8.23
-8.87
-9.69
-10.51
-11.12
-11.37
-11.22
-10.84
-10.48
-10.38
-10.63
-11.12
-11.62
-11.87
-11.66
-10.87
-9.46
-7.41
-4.76
-1.63
1.71
4.88
7.46
9.18
9.99
10.05
9.71
9.31
9.13
9.31
9.82
10.47
10.95
10.97
10.28
8.85
6.86
4.63
2.53
0.84
-0.27
-0.76
-0.73
-0.38
0.04
0.29
0.16
-0.49
-1.65
-3.21
-5.00
-6.83
-8.51
-9.90
-10.92
-11.58
-11.95
-12.16
-12.28
-12.29
-12.02
-11.29
-9.98
-8.18
-6.19
-4.42
-3.24
-2.85
-3.20
-4.00
-4.79
-5.12
-4.59
-3.05
-0.54
2.64
6.10
9.36
12.07
13.96
14.98
15.22
14.85
14.14
13.34
12.62
12.03
11.55
11.08
10.55
9.95
9.35
8.87
8.62
8.65
8.92
9.31
9.59
9.59
9.15
8.25
6.97
5.43
3.73
1.93
0.05
-1.85
-3.63
-5.12
-6.18
-6.82
-7.21
-7.65
-8.37
-9.46
-10.80
-12.10
-13.08
-13.58
-13.65
-13.51
-13.47
-13.72
-14.27
-14.89
-15.22
-14.85
-13.47
-10.95
-7.42
-3.19
1.27
5.47
8.99
11.57
13.17
13.87
13.88
13.41
12.68
11.85
11.11
10.58
10.33
10.31
10.35
10.22
9.75
8.90
7.86
6.88
6.19
5.89
5.88
5.99
6.05
5.99
5.81
5.53
5.12
4.45
3.38
1.84
-0.18
-2.56
-5.13
-7.71
-10.17
-12.40
-14.33
-15.95
-17.22
-18.11
-18.54
-18.45
-17.85
-16.90
-15.87
-15.12
-14.88
-15.25
-16.09
-17.05
-17.69
-17.54
-16.20
-13.49
-9.51
-4.59
0.68
5.63
9.67
12.43
13.85
14.14
13.67
12.83
11.95
11.25
10.83
10.68
10.76
10.98
11.25
11.43
11.39
10.99
10.17
8.95
7.47
5.87
4.30
2.84
1.54
0.40
-0.56
-1.36
-2.07
-2.82
-3.80
-5.11
-6.71
-8.39
-9.84
-10.79
-11.16
-11.09
-10.83
-10.61
-10.51
-10.41
-10.15
-9.58
-8.75
-7.83
-7.13
-6.82
-6.92
-7.25
-7.44
-7.11
-5.98
-3.96
-1.18
2.02
5.18
7.86
9.75
10.75
10.94
10.54
9.88
9.24
8.90
9.03
9.66
10.70
11.91
12.96
13.54
13.46
12.72
11.53
10.20
9.03
8.15
7.50
6.88
6.08
5.04
3.86
2.72
1.79
1.12
0.64
0.24
-0.12
-0.49
-0.90
-1.44
-2.27
-3.54
-5.26
-7.25
-9.17
-10.67
-11.53
-11.74
-11.58
-11.46
-11.84
-13.00
-14.88
-16.98
-18.49
-18.54
-16.56
-12.61
-7.35
-1.82
2.98
6.46
8.56
9.59
10.04
10.21
10.22
10.06
9.77
9.47
9.41
9.70
10.30
10.92
11.21
10.88
9.92
8.56
7.15
6.03
5.34
5.05
4.96
4.91
4.78
4.53
4.17
3.69
3.05
2.24
1.30
0.29
-0.70
-1.62
-2.49
-3.36
-4.27
-5.25
-6.30
-7.39
-8.48
-9.46
-10.22
-10.68
-10.87
-10.97
-11.23
-11.91
-13.07
-14.47
-15.59
-15.84
-14.75
-12.22
-8.56
-4.39
-0.34
3.13
5.88
8.03
9.80
11.33
12.61
13.52
13.96
13.97
13.67
13.22
12.68
12.01
11.12
9.96
8.60
7.20
5.95
5.04
4.55
4.47
4.72
5.16
5.59
5.87
5.90
5.60
5.00
4.11
2.93
1.47
-0.27
-2.22
-4.25
-6.18
-7.84
-9.09
-9.89
-10.28
-10.42
-10.53
-10.82
-11.48
-12.57
-13.98
-15.47
-16.69
-17.27
-16.87
-15.33
-12.70
-9.36
-5.91
-3.02
-1.23
-0.76
-1.45
-2.84
-4.41
-5.75
-6.69
-7.34
-7.96
-8.84
-10.22
-12.21
-14.87
-18.22
-22.25
-26.82
-31.57
-35.78
-38.47
-38.74
-36.13
-30.87
-23.89
-16.50
-9.87
-4.69
-0.98
1.73
4.06
6.49
9.24
12.33
15.68
19.18
22.76
26.27
29.48
32.06
33.63
33.91
32.78
30.38
27.10
23.49
20.11
17.43
15.72
15.11
15.65
17.34
20.18
24.06
28.70
33.65
38.36
42.42
45.65
48.20
50.50
53.04
56.24
60.33
65.26
70.70
76.11
80.84
84.22
85.83
85.52
83.42
79.74
74.54
67.51
58.01
45.27
28.82
8.87
-13.40
-36.04
-56.66
-73.14
-84.20
-89.63
-90.30
-87.68
-83.35
-78.48
-73.75
-69.36
-65.31
-61.60
-58.29
-55.44
-52.93
-50.51
-47.81
-44.59
-40.86
-36.93
-33.27
-30.21
-27.82
-25.74
-23.45
-20.48
-16.71
-12.43
-8.23
-4.69
-2.13
-0.59
0.22
0.63
0.95
1.35
1.93
2.72
3.67
4.72
5.69
6.36
6.56
6.28
5.70
5.13
4.81
4.85
5.09
5.22
5.00
4.33
3.41
2.55
2.02
1.93
2.09
2.25
2.13
1.71
1.17
0.81
0.85
1.26
1.78
2.04
1.79
1.03
-0.01
-1.02
-1.78
-2.25
-2.50
-2.60
-2.47
-1.88
-0.60
1.50
4.23
7.21
9.93
12.00
13.21
13.59
13.30
12.53
11.42
10.05
8.45
6.71
4.92
3.20
1.66
0.31
-0.93
-2.16
-3.49
-4.92
-6.33
-7.51
-8.30
-8.61
-8.56
-8.35
-8.22
-8.28
-8.58
-9.06
-9.65
-10.33
-11.04
-11.68
-12.11
-12.20
-12.02
-11.75
-11.71
-12.09
-12.80
-13.51
-13.83
-13.55
-12.81
-11.99
-11.44
-11.25
-11.16
-10.76
-9.73
-8.04
-5.97
-3.95
-2.28
-1.06
-0.19
0.47
0.95
1.12
0.78
-0.23
-1.84
-3.74
-5.48
-6.62
-6.94
-6.50
-5.58
-4.58
-3.79
-3.35
-3.29
-3.56
-4.13
-5.00
-6.12
-7.38
-8.54
-9.38
-9.75
-9.60
-8.95
-7.84
-6.26
-4.14
-1.49
1.59
4.78
7.69
9.93
11.23
11.43
10.50
8.48
5.47
1.71
-2.37
-6.10
-8.78
-9.84
-9.09
-6.74
-3.34
0.42
3.95
6.82
8.86
10.01
10.37
10.17
9.74
9.46
9.61
10.23
11.12
11.89
12.21
11.91
11.10
10.11
9.33
8.98
9.10
9.48
9.79
9.69
8.91
7.35
5.08
2.32
-0.64
-3.48
-5.92
-7.74
-8.80
-9.04
-8.45
-7.10
-5.07
-2.53
0.34
3.30
6.08
8.38
9.99
10.81
10.92
10.62
10.31
10.39
11.08
12.33
13.91
15.44
16.58
17.09
16.87
15.88
14.18
11.87
9.16
6.30
3.62
1.39
-0.22
-1.17
-1.57
-1.60
-1.45
-1.29
-1.22
-1.31
-1.62
-2.14
-2.87
-3.75
-4.76
-5.93
-7.37
-9.20
-11.46
-13.97
-16.32
-17.91
-18.20
-16.89
-14.07
-10.18
-5.81
-1.46
2.57
6.25
9.69
12.94
15.93
18.48
20.38
21.51
21.89
21.67
20.98
19.91
18.43
16.48
14.12
11.55
9.16
7.34
6.39
6.35
6.97
7.83
8.46
8.54
7.91
6.57
4.64
2.24
-0.55
-3.69
-7.14
-10.84
-14.67
-18.44
-21.89
-24.72
-26.65
-27.52
-27.28
-25.96
-23.70
-20.64
-16.99
-13.00
-9.00
-5.37
-2.45
-0.44
0.69
1.18
1.39
1.70
2.30
3.24
4.37
5.46
6.36
6.99
7.38
7.53
7.40
6.90
5.97
4.69
3.35
2.33
1.93
2.18
2.77
3.26
3.23
2.54
1.28
-0.24
-1.76
-3.11
-4.28
-5.36
-6.44
-7.60
-8.89
-10.29
-11.70
-12.94
-13.72
-13.75
-12.79
-10.70
-7.45
-3.20
1.71
6.73
11.15
14.30
15.70
15.37
13.77
11.70
9.97
9.15
9.35
10.31
11.52
12.50
12.93
12.76
12.11
11.19
10.16
9.02
7.73
6.26
4.65
3.02
1.52
0.15
-1.11
-2.29
-3.33
-3.97
-3.93
-3.07
-1.59
0.02
1.12
1.25
0.28
-1.53
-3.69
-5.70
-7.28
-8.34
-8.99
-9.40
-9.71
-10.03
-10.36
-10.64
-10.82
-10.87
-10.80
-10.67
-10.60
-10.71
-11.07
-11.69
-12.49
-13.31
-13.89
-13.96
-13.31
-11.76
-9.33
-6.18
-2.64
0.84
3.77
5.76
6.66
6.57
5.87
5.10
4.69
4.89
5.62
6.56
7.31
7.57
7.23
6.40
5.34
4.35
3.64
3.33
3.38
3.69
4.15
4.66
5.11
5.38
5.27
4.60
3.27
1.36
-0.80
-2.76
-4.13
-4.76
-4.83
-4.72
-4.82
-5.33
-6.17
-7.08
-7.77
-8.06
-8.01
-7.83
-7.78
-8.04
-8.63
-9.35
-9.89
-9.93
-9.23
-7.74
-5.53
-2.80
0.28
3.56
6.89
10.12
13.01
15.30
16.81
17.52
17.57
17.25
16.79
16.32
15.77
14.89
13.47
11.40
8.88
6.30
4.19
2.95
2.67
3.15
3.96
4.69
5.10
5.24
5.27
5.38
5.61
5.82
5.82
5.44
4.63
3.44
2.00
0.49
-0.97
-2.24
-3.27
-4.07
-4.72
-5.36
-6.12
-7.12
-8.40
-9.86
-11.34
-12.52
-13.09
-12.72
-11.27
-8.79
-5.57
-2.06
1.29
4.09
6.12
7.32
7.79
7.71
7.29
6.74
6.19
5.75
5.45
5.30
5.32
5.48
5.72
5.91
5.93
5.66
5.12
4.40
3.60
2.79
1.94
0.92
-0.36
-1.94
-3.68
-5.35
-6.69
-7.53
-7.85
-7.79
-7.60
-7.54
-7.75
-8.29
-9.06
-9.94
-10.81
-11.61
-12.30
-12.84
-13.21
-13.36
-13.30
-13.11
-12.90
-12.79
-12.87
-13.04
-13.06
-12.59
-11.27
-8.90
-5.54
-1.54
2.58
6.27
9.19
11.29
12.71
13.70
14.36
14.63
14.39
13.64
12.59
11.62
11.12
11.28
12.00
12.95
13.75
14.14
14.00
13.41
12.54
11.53
10.52
9.62
8.85
8.17
7.48
6.63
5.53
4.16
2.57
0.83
-1.07
-3.20
-5.59
-8.17
-10.71
-12.87
-14.30
-14.81
-14.42
-13.36
-11.97
-10.58
-9.40
-8.55
-8.07
-7.99
-8.30
-8.91
-9.58
-9.93
-9.55
-8.12
-5.60
-2.24
1.49
5.01
7.91
10.03
11.46
12.46
13.24
13.93
14.48
14.76
14.65
14.11
13.21
12.07
10.78
9.41
7.90
6.24
4.42
2.58
0.94
-0.28
-0.94
-1.07
-0.83
-0.44
-0.11
0.05
0.00
-0.23
-0.61
-1.14
-1.89
-2.95
-4.41
-6.30
-8.49
-10.70
-12.55
-13.74
-14.13
-13.88
-13.32
-12.80
-12.50
-12.38
-12.33
-12.32
-12.48
-13.07
-14.24
-15.88
-17.56
-18.63
-18.50
-16.83
-13.73
-9.64
-5.21
-1.06
2.39
5.02
6.90
8.23
9.22
9.99
10.66
11.29
11.93
12.60
13.21
13.54
13.37
12.50
11.01
9.18
7.44
6.18
5.63
5.75
6.33
7.09
7.76
8.20
8.32
8.10
7.52
6.55
5.14
3.27
1.01
-1.46
-3.86
-5.93
-7.49
-8.59
-9.43
-10.30
-11.33
-12.46
-13.45
-14.00
-13.99
-13.52
-12.92
-12.59
-12.82
-13.68
-14.96
-16.31
-17.32
-17.63
-17.05
-15.45
-12.83
-9.29
-5.02
-0.36
4.25
8.31
11.41
13.32
14.11
14.08
13.66
13.24
13.07
13.15
13.33
13.38
13.12
12.51
11.68
10.86
10.24
9.92
9.81
9.77
9.62
9.29
8.83
8.34
7.91
7.51
7.00
6.24
5.13
3.71
2.11
0.51
-0.99
-2.37
-3.72
-5.19
-6.84
-8.65
-10.49
-12.12
-13.31
-13.91
-13.95
-13.61
-13.14
-12.75
-12.53
-12.50
-12.64
-12.97
-13.49
-14.08
-14.38
-13.84
-11.94
-8.39
-3.40
2.39
8.16
13.19
17.11
19.90
21.74
22.77
23.03
22.41
20.88
18.55
15.75
12.93
10.51
8.76
7.65
7.02
6.64
6.37
6.28
6.52
7.18
8.13
9.03
9.44
9.03
7.75
5.86
3.79
1.97
0.64
-0.18
-0.62
-0.93
-1.36
-2.14
-3.37
-4.97
-6.72
-8.29
-9.45
-10.16
-10.64
-11.24
-12.25
-13.79
-15.79
-18.04
-20.25
-22.11
-23.29
-23.46
-22.35
-19.87
-16.16
-11.60
-6.73
-2.08
1.92
5.06
7.32
8.86
9.91
10.71
11.38
11.86
11.95
11.41
10.11
8.17
5.92
3.87
2.45
1.93
2.28
3.23
4.44
5.59
6.49
7.11
7.47
7.55
7.28
6.54
5.35
3.86
2.37
1.23
0.60
0.37
0.15
-0.51
-1.89
-3.99
-6.46
-8.88
-10.86
-12.28
-13.25
-13.98
-14.63
-15.20
-15.62
-15.80
-15.83
-15.87
-16.08
-16.36
-16.32
-15.33
-12.89
-8.91
-3.86
1.40
5.94
9.18
11.03
11.81
12.01
11.98
11.90
11.78
11.53
11.10
10.46
9.59
8.50
7.24
5.90
4.65
3.71
3.30
3.54
4.44
5.86
7.49
8.97
9.86
9.85
8.80
6.83
4.24
1.45
-1.15
-3.26
-4.75
-5.65
-6.07
-6.19
-6.09
-5.77
-5.17
-4.27
-3.16
-2.11
-1.47
-1.54
-2.47
-4.15
-6.20
-8.14
-9.47
-9.84
-9.05
-7.12
-4.22
-0.65
3.17
6.77
9.68
11.56
12.31
12.06
11.21
10.22
9.44
9.04
8.91
8.80
8.46
7.77
6.86
6.03
5.55
5.55
5.89
6.28
6.43
6.20
5.67
5.03
4.46
3.97
3.44
2.66
1.52
0.02
-1.66
-3.30
-4.74
-5.93
-6.95
-7.90
-8.88
-9.88
-10.80
-11.51
-11.91
-11.94
-11.71
-11.43
-11.37
-11.78
-12.80
-14.37
-16.19
-17.80
-18.69
-18.39
-16.69
-13.66
-9.66
-5.20
-0.80
3.09
6.22
8.45
9.81
10.35
10.26
9.78
9.15
8.65
8.43
8.55
8.96
9.50
10.02
10.40
10.59
10.59
10.42
10.04
9.38
8.39
7.03
5.39
3.64
1.99
0.68
-0.19
-0.62
-0.72
-0.69
-0.70
-0.89
-1.34
-2.08
-3.12
-4.43
-5.95
-7.58
-9.15
-10.46
-11.31
-11.59
-11.39
-10.92
-10.47
-10.25
-10.22
-10.09
-9.42
-7.79
-4.98
-1.09
3.48
8.22
12.58
16.18
18.73
20.07
20.17
19.14
17.27
15.05
13.02
11.63
11.01
11.02
11.21
11.18
10.64
9.61
8.35
7.17
6.27
5.68
5.24
4.75
4.03
2.99
1.66
0.13
-1.44
-2.91
-4.17
-5.23
-6.13
-6.96
-7.75
-8.46
-9.01
-9.31
-9.40
-9.45
-9.74
-10.48
-11.74
-13.43
-15.35
-17.28
-19.09
-20.66
-21.79
-22.11
-21.16
-18.56
-14.26
-8.64
-2.50
3.24
7.80
10.83
12.42
12.94
12.87
12.59
12.26
11.90
11.46
10.93
10.33
9.77
9.35
9.14
9.11
9.16
9.15
9.00
8.69
8.31
7.98
7.77
7.62
7.33
6.63
5.33
3.42
1.11
-1.25
-3.33
-4.96
-6.16
-7.05
-7.79
-8.42
-8.94
-9.31
-9.56
-9.77
-10.06
-10.50
-11.10
-11.85
-12.72
-13.72
-14.85
-16.01
-16.94
-17.26
-16.54
-14.43
-10.85
-6.04
-0.54
4.88
9.43
12.49
13.82
13.58
12.21
10.35
8.55
7.20
6.44
6.20
6.27
6.43
6.52
6.51
6.44
6.37
6.30
6.18
5.91
5.42
4.78
4.16
3.69
3.43
3.25
2.94
2.31
1.37
0.30
-0.57
-1.03
-1.07
-0.96
-1.14
-1.97
-3.60
-5.86
-8.40
-10.83
-12.89
-14.57
-15.94
-17.11
-18.02
-18.55
-18.53
-17.91
-16.72
-15.05
-12.97
-10.45
-7.47
-4.09
-0.50
2.96
5.96
8.34
10.14
11.56
12.89
14.36
16.01
17.71
19.23
20.21
20.38
19.52
17.65
14.92
11.63
8.14
4.73
1.70
-0.76
-2.44
-3.23
-3.10
-2.20
-0.78
0.85
2.39
3.64
4.41
4.56
3.97
2.63
0.66
-1.68
-4.04
-6.14
-7.80
-9.03
-9.93
-10.64
-11.26
-11.87
-12.56
-13.34
-14.12
-14.65
-14.51
-13.29
-10.73
-6.98
-2.54
1.88
5.55
8.07
9.41
9.88
9.94
10.00
10.28
10.76
11.36
11.95
12.44
12.78
12.94
12.86
12.49
11.83
10.96
10.01
9.14
8.45
8.01
7.79
7.70
7.60
7.32
6.67
5.55
3.98
2.12
0.18
-1.71
-3.56
-5.52
-7.74
-10.18
-12.61
-14.61
-15.77
-15.96
-15.40
-14.57
-14.03
-14.19
-15.16
-16.74
-18.58
-20.32
-21.61
-22.19
-21.80
-20.22
-17.35
-13.32
-8.52
-3.58
0.87
4.41
6.91
8.51
9.47
10.01
10.22
10.13
9.77
9.25
8.68
8.15
7.67
7.18
6.62
6.02
5.46
5.07
4.95
5.18
5.73
6.51
7.35
8.01
8.26
7.96
7.09
5.82
4.39
3.04
1.94
1.08
0.33
-0.49
-1.49
-2.67
-3.87
-4.82
-5.32
-5.31
-4.95
-4.62
-4.74
-5.59
-7.16
-9.12
-10.95
-12.09
-12.09
-10.74
-8.05
-4.27
0.20
4.93
9.47
13.47
16.69
18.99
20.36
20.88
20.74
20.18
19.50
18.94
18.76
19.08
19.89
21.04
22.11
22.53
21.60
18.79
13.98
7.59
0.51
-6.14
-11.38
-14.65
-15.93
-15.61
-14.27
-12.54
-10.96
-9.91
-9.66
-10.28
-11.63
-13.39
-15.13
-16.49
-17.22
-17.30
-16.88
-16.24
-15.72
-15.66
-16.18
-17.16
-18.16
-18.54
-17.69
-15.28
-11.39
-6.58
-1.63
2.71
5.95
7.98
9.00
9.42
9.65
10.00
10.63
11.50
12.44
13.23
13.66
13.63
13.08
12.01
10.45
8.52
6.45
4.53
3.02
2.10
1.76
1.81
2.01
2.09
1.89
1.39
0.61
-0.33
-1.33
-2.35
-3.37
-4.46
-5.71
-7.12
-8.69
-10.34
-11.98
-13.53
-14.96
-16.25
-17.39
-18.35
-19.15
-19.84
-20.39
-20.70
-20.48
-19.37
-17.10
-13.57
-9.03
-4.01
0.86
5.00
8.03
9.85
10.59
10.54
10.10
9.63
9.45
9.70
10.37
11.26
12.11
12.70
12.94
12.88
12.66
12.47
12.49
12.77
13.27
13.89
14.39
14.52
14.06
12.88
11.07
8.86
6.59
4.58
3.02
1.90
1.13
0.61
0.35
0.47
1.05
2.04
3.13
3.86
3.75
2.54
0.27
-2.71
-5.89
-8.73
-10.73
-11.48
-10.68
-8.21
-4.20
0.92
6.46
11.61
15.63
18.12
18.97
18.44
16.90
14.72
12.19
9.49
6.80
4.32
2.31
0.98
0.43
0.54
1.05
1.60
1.94
1.94
1.64
1.15
0.60
0.04
-0.49
-1.00
-1.48
-1.92
-2.31
-2.62
-2.89
-3.20
-3.73
-4.69
-6.35
-8.84
-12.11
-15.88
-19.69
-23.04
-25.58
-27.17
-27.94
-28.14
-28.03
-27.77
-27.28
-26.33
-24.57
-21.71
-17.71
-12.85
-7.73
-3.03
0.66
3.02
4.10
4.22
3.81
3.27
2.86
2.71
2.83
3.13
3.46
3.68
3.64
3.27
2.57
1.62
0.54
-0.54
-1.45
-2.00
-2.05
-1.55
-0.63
0.45
1.36
1.87
1.85
1.39
0.69
0.01
-0.46
-0.63
-0.56
-0.38
-0.28
-0.36
-0.60
-0.91
-1.15
-1.25
-1.31
-1.55
-2.24
-3.54
-5.48
-7.89
-10.45
-12.76
-14.39
-14.93
-14.06
-11.68
-7.98
-3.43
1.34
5.72
9.32
12.01
13.88
15.10
15.85
16.22
16.22
15.87
15.18
14.22
13.09
11.88
10.69
9.55
8.49
7.52
6.75
6.32
6.40
7.09
8.25
9.51
10.34
10.25
9.01
6.69
3.64
0.30
-2.92
-5.79
-8.21
-10.14
-11.49
-12.09
-11.81
-10.65
-8.85
-6.90
-5.38
-4.82
-5.45
-7.21
-9.70
-12.35
-14.52
-15.60
-15.17
-12.99
-9.15
-4.09
1.48
6.77
11.12
14.22
16.15
17.22
17.79
18.02
17.88
17.17
15.75
13.59
10.90
8.02
5.37
3.33
2.16
1.97
2.74
4.29
6.33
8.51
10.45
11.82
12.39
12.10
11.01
9.33
7.30
5.16
3.09
1.23
-0.37
-1.69
-2.80
-3.80
-4.82
-6.00
-7.37
-8.83
-10.22
-11.40
-12.39
-13.39
-14.67
-16.37
-18.40
-20.28
-21.28
-20.67
-18.04
-13.50
-7.70
-1.63
3.77
7.84
10.43
11.75
12.21
12.17
11.86
11.36
10.78
10.27
9.95
9.88
9.90
9.77
9.26
8.28
6.97
5.59
4.37
3.38
2.56
1.70
0.59
-0.80
-2.40
-3.95
-5.20
-5.92
-6.08
-5.80
-5.35
-5.07
-5.21
-5.92
-7.17
-8.85
-10.81
-12.87
-14.83
-16.50
-17.65
-18.12
-17.92
-17.24
-16.40
-15.70
-15.32
-15.21
-15.06
-14.43
-12.91
-10.28
-6.61
-2.26
2.21
6.23
9.34
11.36
12.36
12.64
12.61
12.70
13.30
14.70
16.99
19.97
23.12
25.65
26.70
25.65
22.41
17.48
11.82
6.43
1.99
-1.37
-4.02
-6.46
-8.98
-11.45
-13.40
-14.32
-13.95
-12.38
-10.01
-7.25
-4.48
-2.00
-0.07
0.99
0.94
-0.25
-2.29
-4.61
-6.62
-7.97
-8.65
-8.95
-9.19
-9.53
-9.84
-9.85
-9.31
-8.16
-6.53
-4.67
-2.78
-0.88
1.18
3.65
6.68
10.20
13.89
17.25
19.76
21.07
21.08
19.91
17.79
14.97
11.66
8.04
4.37
1.02
-1.61
-3.11
-3.29
-2.16
0.01
2.75
5.57
8.03
9.81
10.79
10.94
10.35
9.11
7.37
5.32
3.21
1.36
0.03
-0.68
-0.85
-0.73
-0.59
-0.60
-0.76
-0.97
-1.13
-1.20
-1.23
-1.20
-0.94
-0.12
1.53
4.01
6.95
9.61
11.14
10.96
8.92
5.41
1.16
-2.97
-6.33
-8.49
-9.38
-9.16
-8.06
-6.43
-4.60
-2.90
-1.60
-0.93
-1.03
-1.89
-3.33
-5.01
-6.52
-7.47
-7.64
-7.06
-6.01
-4.86
-3.93
-3.36
-3.10
-2.96
-2.80
-2.60
-2.48
-2.62
-3.19
-4.25
-5.81
-7.78
-10.10
-12.63
-15.22
-17.73
-20.00
-21.99
-23.74
-25.31
-26.66
-27.62
-27.79
-26.77
-24.28
-20.38
-15.52
-10.43
-5.93
-2.70
-1.12
-1.24
-2.80
-5.42
-8.69
-12.35
-16.32
-20.66
-25.49
-30.84
-36.57
-42.22
-47.12
-50.37
-51.16
-48.94
-43.70
-36.00
-26.86
-17.41
-8.59
-0.88
5.73
11.51
16.81
21.83
26.65
31.26
35.63
39.69
43.31
46.16
47.84
47.95
46.31
43.14
39.00
34.69
30.98
28.39
27.01
26.59
26.62
26.65
26.46
26.18
26.26
27.21
29.42
32.92
37.43
42.42
47.47
52.34
57.15
62.25
68.07
74.91
82.82
91.60
100.85
110.04
118.64
126.10
131.89
135.42
136.11
133.40
126.75
115.65
99.78
79.11
54.10
25.79
-4.20
-33.83
-60.99
-84.02
-102.13
-115.34
-124.30
-129.70
-131.92
-130.95
-126.59
-118.87
-108.49
-96.82
-85.61
-76.32
-69.79
-66.07
-64.54
-64.29
-64.43
-64.58
-65.00
-66.20
-68.32
-70.83
-72.39
-71.33
-66.26
-56.65
-43.55
-29.49
-17.67
-10.60
-9.35
-13.16
-19.76
-25.90
-27.96
-23.18
-10.75
7.98
29.74
49.88
63.66
67.92
60.86
45.34
28.15
15.60
10.14
10.52
13.76
17.61
21.29
25.18
30.12
36.06
41.76
45.66
47.04
46.09
44.14
42.60
42.29
43.35
45.12
46.15
45.17
41.64
35.03
26.31
16.33
5.59
-5.60
-16.99
-28.77
-40.91
-51.01
-59.41
-66.20
-71.65
-76.22
-80.19
-83.41
-85.81
-87.05
-86.84
-85.36
-82.83
-79.79
-76.90
-76.27
-77.28
-79.89
-83.68
-87.18
-88.09
-83.38
-70.89
-50.55
-24.94
1.65
24.32
39.84
47.55
49.02
46.92
43.48
39.56
35.01
29.62
23.38
17.00
11.41
7.15
4.10
1.55
-1.47
-5.59
-10.67
-16.13
-20.86
-24.19
-25.50
-24.61
-21.81
-17.72
-13.00
-8.06
-3.05
2.11
7.55
13.24
18.81
23.61
27.01
28.70
28.86
28.00
26.78
25.63
24.70
23.73
22.39
20.44
17.98
15.35
12.96
11.07
9.69
8.68
7.83
6.99
6.16
5.35
4.57
3.73
2.66
1.22
-0.66
-2.88
-5.23
-7.51
-9.56
-11.47
-13.49
-15.94
-19.03
-22.65
-26.33
-29.38
-31.02
-30.73
-28.35
-24.16
-18.73
-12.77
-6.88
-1.49
3.19
7.06
10.05
12.03
12.92
12.75
11.79
10.50
9.40
8.81
8.71
8.80
8.64
7.94
6.72
5.18
3.59
2.01
0.25
-2.02
-5.06
-8.85
-12.98
-16.89
-20.01
-22.03
-23.02
-23.31
-23.34
-23.46
-23.77
-24.14
-24.23
-23.58
-21.73
-18.25
-12.85
-5.42
3.89
14.64
26.14
37.59
48.14
57.14
64.13
68.94
71.70
72.70
72.31
70.88
68.61
65.50
61.47
56.43
50.46
43.79
36.83
29.88
23.12
16.49
9.78
2.85
-4.29
-11.39
-18.05
-23.88
-28.67
-32.49
-35.69
-38.73
-42.01
-45.80
-50.09
-54.70
-59.30
-63.40
-66.45
-67.82
-66.98
-63.60
-57.75
-49.92
-40.93
-31.63
-22.75
-14.65
-7.42
-1.02
4.65
9.59
13.84
17.45
20.52
23.15
25.37
27.15
28.46
29.36
29.95
30.38
30.74
30.99
31.02
30.73
30.08
29.08
27.76
26.03
23.76
20.81
17.15
12.91
8.33
3.61
-1.11
-5.77
-10.26
-14.36
-17.78
-20.15
-21.21
-20.81
-18.94
-15.68
-11.22
-5.79
0.26
6.52
12.53
17.77
21.72
23.83
23.66
21.07
16.34
10.29
4.11
-0.85
-3.48
-3.24
-0.26
4.68
10.45
15.84
19.90
22.11
22.41
21.14
18.94
16.54
14.70
13.99
14.71
16.72
19.52
22.36
24.40
25.02
23.95
21.38
17.95
14.61
12.47
12.50
15.32
20.91
28.63
37.32
45.62
52.33
56.70
58.44
57.61
54.48
49.29
42.32
33.88
24.49
14.82
5.64
-2.38
-8.89
-13.90
-17.73
-20.82
-23.47
-25.75
-27.56
-28.71
-29.10
-28.87
-28.32
-27.84
-27.73
-28.16
-29.18
-30.67
-32.51
-34.44
-36.14
-37.10
-36.74
-34.44
-29.76
-22.56
-13.18
-2.42
8.59
18.64
26.83
32.73
36.52
38.74
39.93
40.40
40.02
38.49
35.55
31.30
26.26
21.28
17.21
14.66
13.83
14.58
16.63
19.75
23.91
29.31
36.31
45.17
55.82
67.75
79.82
90.53
98.19
101.35
99.00
90.77
76.96
58.59
37.40
15.76
-3.65
-18.46
-27.22
-29.87
-27.76
-23.11
-18.17
-14.52
-12.75
-12.62
