1660756128.00
64.000000
-0.00
-0.00
-0.00
-0.00
-0.00
-0.00
-0.00
-0.00
-0.00
-0.00
0.00
0.01
0.01
-0.00
-0.03
-0.05
-0.05
0.00
0.13
0.36
0.66
1.01
1.37
1.72
2.06
2.40
2.79
3.24
3.80
4.42
5.06
5.66
6.20
6.68
7.15
7.68
8.31
9.14
10.09
11.04
11.88
12.56
13.14
13.76
14.65
15.96
17.91
20.32
22.90
25.38
27.58
29.57
31.68
34.32
37.81
42.54
48.15
54.10
59.83
64.97
69.58
74.14
79.34
85.71
93.76
103.00
112.62
121.73
129.77
136.75
143.30
150.75
157.77
166.64
177.95
191.79
206.97
220.57
228.25
225.36
208.53
176.87
132.76
80.05
23.07
-34.94
-92.44
-149.16
-205.23
-260.37
-313.74
-363.87
-409.83
-450.91
-486.50
-515.74
-537.23
-549.22
-549.96
-538.37
-514.21
-478.67
-433.88
-382.45
-327.02
-269.84
-212.63
-156.66
-102.95
-52.37
-5.90
35.58
71.43
101.35
125.50
144.38
158.69
169.15
176.37
180.75
182.57
182.07
179.51
175.23
169.65
163.18
156.15
148.81
141.30
133.69
126.02
118.33
110.69
103.16
95.80
88.68
81.83
75.25
68.95
62.95
57.25
51.86
46.78
42.03
37.59
33.45
29.61
26.07
22.81
19.83
17.11
14.67
12.48
10.54
8.83
7.35
6.07
4.97
4.05
3.27
2.62
2.09
1.65
1.30
1.01
0.79
0.61
0.47
0.37
0.29
0.23
0.19
0.16
0.14
0.14
0.15
0.16
0.18
0.21
0.24
0.28
0.32
0.36
0.40
0.45
0.50
0.54
0.59
0.65
0.70
0.76
0.83
0.90
0.98
1.06
1.16
1.26
1.38
1.51
1.66
1.83
2.02
2.22
2.45
2.71
2.99
3.30
3.64
4.01
4.41
4.85
5.33
5.85
6.42
7.03
7.67
8.32
8.98
9.64
10.33
11.07
11.88
12.78
13.77
14.83
15.93
17.06
18.19
19.34
20.48
21.59
22.59
23.35
23.70
23.47
22.51
20.75
18.20
14.96
11.17
6.95
2.44
-2.28
-7.12
-11.95
-16.59
-20.77
-24.17
-26.59
-27.96
-28.46
-28.43
-28.28
-28.32
-28.66
-29.17
-29.50
-29.39
-28.70
-27.61
-26.57
-26.09
-26.50
-27.80
-29.61
-31.36
-32.54
-32.91
-32.61
-32.07
-31.85
-32.47
-34.40
-37.94
-42.89
-48.35
-52.53
-53.16
-48.28
-37.20
-21.06
-2.56
14.99
28.86
37.74
41.91
42.58
41.12
38.53
35.27
31.58
27.76
24.27
21.62
20.09
19.60
19.68
19.71
19.09
17.52
15.12
12.33
9.71
7.65
6.24
5.28
4.42
3.42
2.29
1.28
0.77
0.99
1.97
3.42
4.84
5.75
5.84
5.12
3.87
2.53
1.50
0.94
0.76
0.68
0.38
-0.30
-1.31
-2.55
-3.84
-5.10
-6.21
-6.96
-7.08
-6.27
-4.48
-1.92
0.89
3.31
4.88
5.56
5.61
5.51
5.58
5.86
6.14
6.17
5.88
5.39
5.02
4.94
5.15
5.45
5.56
5.34
4.77
4.03
3.26
2.53
1.80
1.00
0.11
-0.83
-1.77
-2.67
-3.54
-4.38
-5.20
-5.93
-6.48
-6.77
-6.84
-6.81
-6.87
-7.19
-7.86
-8.86
-10.09
-11.46
-12.81
-13.99
-14.81
-15.07
-14.66
-13.57
-11.91
-9.90
-7.71
-5.45
-3.15
-0.79
1.57
3.84
5.84
7.49
8.79
9.90
11.11
12.67
14.72
17.16
19.64
21.71
22.93
23.09
22.28
20.79
18.97
17.08
15.16
13.19
11.10
9.00
7.04
5.43
4.24
3.41
2.84
2.41
2.10
1.92
1.83
1.69
1.27
0.39
-1.03
-2.86
-4.82
-6.59
-7.87
-8.45
-8.28
-7.40
-5.99
-4.31
-2.64
-1.23
-0.26
0.19
0.16
-0.27
-0.92
-1.61
-2.18
-2.51
-2.62
-2.59
-2.58
-2.69
-2.96
-3.32
-3.61
-3.66
-3.41
-2.94
-2.46
-2.22
-2.38
-2.91
-3.61
-4.23
-4.58
-4.64
-4.59
-4.70
-5.18
-6.07
-7.31
-8.70
-10.03
-11.12
-11.78
-11.87
-11.30
-10.07
-8.28
-6.16
-3.96
-1.96
-0.35
0.75
1.31
1.48
1.43
1.38
1.47
1.66
1.83
1.80
1.50
1.02
0.56
0.34
0.49
1.00
1.72
2.50
3.19
3.70
3.97
3.94
3.57
2.82
1.76
0.50
-0.78
-1.87
-2.65
-3.09
-3.40
-3.82
-4.65
-6.01
-7.81
-9.65
-11.06
-11.59
-11.01
-9.39
-7.05
-4.44
-1.98
0.02
1.50
2.61
3.61
4.73
6.04
7.42
8.60
9.35
9.58
9.34
8.79
8.06
7.31
6.66
6.21
6.02
6.03
6.07
5.96
5.60
5.03
4.45
4.00
3.68
3.32
2.71
1.78
0.64
-0.45
-1.28
-1.83
-2.25
-2.79
-3.63
-4.77
-6.09
-7.48
-8.92
-10.47
-12.20
-14.03
-15.64
-16.56
-16.35
-14.85
-12.22
-8.97
-5.70
-2.88
-0.70
0.93
2.27
3.55
4.87
6.21
7.43
8.46
9.29
9.99
10.60
11.16
11.66
12.07
12.38
12.57
12.66
12.66
12.64
12.69
12.90
13.30
13.81
14.26
14.45
14.27
13.72
12.90
11.95
10.99
10.05
9.13
8.23
7.35
6.51
5.70
4.89
4.00
2.92
1.53
-0.28
-2.53
-5.15
-7.90
-10.38
-12.16
-12.89
-12.42
-10.86
-8.50
-5.74
-2.93
-0.28
2.09
4.21
6.13
7.92
9.58
11.05
12.20
13.02
13.57
13.99
14.49
15.20
16.11
17.12
18.07
18.90
19.57
20.15
20.72
21.32
21.96
22.63
23.25
23.74
24.06
24.25
24.49
25.05
26.21
28.05
30.37
32.79
34.89
36.49
37.76
39.11
41.07
43.97
47.91
52.64
57.80
63.01
67.99
72.62
76.90
81.01
85.26
90.12
96.10
103.48
112.08
120.99
128.65
133.30
133.60
129.21
121.18
111.62
103.10
97.70
96.45
99.01
103.82
108.43
110.06
106.10
94.67
75.19
48.41
16.00
-20.01
-58.09
-97.35
-137.41
-177.72
-217.14
-253.70
-284.96
-308.44
-322.16
-325.04
-317.13
-299.81
-275.90
-249.20
-223.97
-203.93
-191.45
-186.93
-189.02
-195.22
-202.74
-208.99
-211.75
-209.51
-201.75
-188.96
-172.47
-154.04
-135.39
-117.88
-102.34
-88.80
-77.23
-67.80
-60.98
-57.17
-56.43
-58.44
-62.71
-68.81
-75.23
-80.76
-85.01
-88.64
-92.91
-99.16
-108.67
-122.24
-139.78
-157.55
-170.56
-174.55
-167.45
-149.47
-122.47
-89.56
-54.23
-19.39
16.87
57.61
104.28
155.73
209.51
263.48
315.97
365.26
409.23
449.92
489.44
527.74
562.49
591.46
614.45
632.94
648.78
634.46
573.25
469.16
345.91
229.35
133.38
59.89
4.81
-37.07
-67.33
-86.41
-93.26
-89.24
-79.30
-69.47
-64.05
-64.71
-71.17
-82.40
-92.96
-97.47
-94.04
-84.89
-74.09
-64.92
-58.90
-55.95
-55.14
-53.27
-47.45
-36.99
-23.45
-9.10
4.47
16.57
26.89
35.12
41.96
48.24
54.25
59.57
63.58
65.90
66.59
66.03
64.90
64.39
65.16
67.23
70.03
72.61
73.88
72.93
69.39
63.52
56.15
47.90
39.45
31.45
24.43
18.51
13.49
9.07
5.00
1.16
-3.53
-9.70
-16.93
-24.08
-30.26
-35.26
-39.45
-43.38
-47.48
-54.58
-65.90
-79.68
-92.42
-101.68
-107.25
-110.40
-112.75
-115.47
-124.65
-143.09
-167.42
-190.22
-205.61
-211.94
-210.93
-205.89
-200.20
-205.26
-226.96
-260.61
-294.67
-319.71
-333.11
-337.57
-338.08
-339.72
-358.50
-404.32
-474.43
-556.82
-639.61
-715.38
-778.80
-824.96
-775.30
-598.99
-337.02
-70.58
143.48
292.71
390.05
454.27
498.88
528.76
530.58
494.60
425.97
343.11
266.19
207.97
173.11
159.80
162.15
164.52
156.93
141.11
124.32
116.80
120.79
132.97
148.16
161.99
166.70
159.26
143.65
127.83
117.95
114.73
115.58
117.11
116.66
110.67
98.37
82.55
67.74
57.16
50.84
46.89
43.86
40.33
34.63
26.41
16.79
7.69
0.71
-3.94
-6.80
-8.75
-10.66
-13.04
-15.96
-19.21
-22.34
-24.76
-25.98
-25.54
-23.23
-19.19
-13.91
-8.03
-2.07
3.89
10.28
17.86
27.40
39.25
53.05
67.83
82.38
95.71
107.42
117.77
127.39
136.83
146.28
155.43
163.58
169.55
171.64
167.43
154.40
130.86
97.30
57.14
16.47
-17.76
-40.25
-49.46
-48.34
-43.08
-40.65
-46.31
-61.98
-86.02
-114.30
-141.73
-163.84
-177.70
-182.10
-177.28
-164.40
-145.29
-122.44
-99.15
-79.61
-68.24
-68.45
-81.33
-104.75
-133.60
-161.06
-180.73
-188.32
-182.65
-165.41
-140.24
-111.47
-83.13
-58.42
-39.42
-27.32
-22.40
-23.95
-30.23
-38.51
-45.30
-47.09
-41.15
-26.32
-3.42
24.95
55.16
83.34
105.93
119.99
123.28
114.34
92.91
60.40
20.15
-22.76
-62.41
-93.37
-112.08
-117.75
-112.55
-100.89
-88.16
-79.36
-77.93
-85.04
-99.50
-118.14
-136.61
-150.30
-155.44
-149.87
-133.53
-108.31
-77.46
-44.39
-11.56
20.25
51.73
84.17
118.01
151.69
181.38
201.89
208.59
199.59
177.05
146.87
116.85
93.86
81.51
79.07
82.05
83.95
78.66
62.62
36.48
5.46
-21.71
-35.35
-28.27
1.05
47.09
98.52
141.60
164.59
161.31
132.73
86.18
32.75
-16.01
-51.01
-67.48
-65.46
-48.88
-23.70
4.01
29.69
50.73
66.14
75.92
80.71
81.87
81.81
83.89
91.75
107.86
132.31
162.30
192.66
217.07
229.66
226.39
206.11
171.28
128.09
85.60
53.45
38.58
42.41
59.82
80.96
95.09
94.66
77.55
46.69
7.93
-32.25
-67.87
-93.46
-104.37
-98.11
-76.57
-47.25
-21.87
-12.09
-24.35
-56.51
-98.59
-137.40
-162.40
-170.05
-164.21
-152.96
-143.98
-141.04
-143.21
-146.47
-146.67
-141.82
-133.15
-124.90
-123.10
-133.78
-160.78
-203.55
-256.02
-307.27
-344.25
-355.72
-335.90
-286.51
-216.30
-138.30
-65.75
-8.22
30.93
54.94
71.89
91.63
122.09
166.58
222.95
284.79
343.85
392.44
424.75
436.92
427.02
395.48
346.16
287.16
229.95
186.20
164.00
164.61
182.05
205.38
222.72
224.85
207.06
169.48
116.60
56.83
1.32
-38.66
-55.68
-50.03
-31.01
-14.23
-15.29
-42.93
-94.93
-159.19
-218.80
-258.50
-269.56
-251.58
-211.56
-161.25
-113.83
-80.46
-67.42
-74.54
-95.83
-122.50
-146.40
-162.61
-169.34
-166.38
-153.24
-129.14
-94.62
-53.33
-12.47
19.06
33.84
28.35
3.08
-39.05
-94.67
-160.31
-231.10
-299.31
-354.34
-385.05
-383.57
-348.84
-287.53
-211.91
-135.41
-67.98
-13.46
30.46
69.92
111.72
160.56
217.57
280.32
343.36
399.36
440.44
459.78
453.31
421.17
368.55
305.09
242.71
192.50
161.79
152.77
163.10
187.36
218.88
250.77
276.24
289.04
284.86
263.41
230.36
197.36
178.57
185.02
219.32
273.75
333.01
380.59
405.33
404.76
383.98
351.30
313.60
273.98
232.22
187.08
138.33
87.32
35.94
-14.50
-63.83
-112.65
-161.43
-210.08
-258.49
-307.07
-356.65
-407.94
-460.35
-511.67
-558.68
-598.14
-627.49
-644.69
-647.80
-635.46
-608.67
-572.70
-537.39
-514.43
-512.32
-531.65
-563.46
-592.60
-604.09
-589.31
-548.40
-488.11
-416.99
-341.18
-263.45
-184.51
-105.67
-29.96
38.51
96.78
144.99
186.90
228.69
276.19
332.42
394.95
455.37
500.51
517.36
498.83
448.34
380.06
314.35
271.14
262.51
290.59
347.89
422.19
501.69
577.06
641.16
687.29
710.45
706.88
677.59
626.89
561.84
490.87
421.12
357.12
299.68
248.67
200.94
153.91
103.56
46.11
-19.92
-93.86
-173.07
-255.56
-338.37
-422.13
-490.58
-523.94
-513.03
-466.61
-403.30
-337.32
-289.91
-256.97
-234.44
-219.60
-213.97
-221.90
-237.46
-257.99
-280.43
-303.09
-323.83
-344.71
-367.97
-396.28
-430.21
-465.51
-494.41
-506.62
-494.99
-456.58
-396.90
-325.08
-251.30
-183.40
-124.41
-74.24
-30.26
8.80
44.02
74.41
99.84
121.44
140.42
158.18
174.38
188.48
197.42
198.76
187.81
162.08
124.77
82.37
42.46
9.74
-12.90
-27.51
-36.93
-44.21
-51.57
-57.69
-59.26
-52.28
-34.71
-4.76
34.07
77.36
120.63
160.29
199.59
232.13
254.24
264.75
281.44
310.00
350.98
402.43
449.42
484.32
501.22
497.89
457.92
380.51
277.50
169.92
85.25
20.76
-29.27
-69.75
-104.35
-133.92
-156.82
-175.58
-194.76
-220.14
-257.76
-306.07
-359.76
-410.00
-446.72
-459.42
-443.84
-402.24
-342.73
-277.06
-212.52
-152.94
-98.78
-48.55
0.26
47.87
93.01
134.11
170.41
205.34
243.99
291.05
348.67
415.24
483.66
543.11
582.21
592.78
574.01
531.73
475.81
416.45
361.08
312.65
270.80
233.89
200.87
172.22
148.69
129.78
113.38
96.69
78.16
58.86
42.09
31.67
29.02
31.68
33.52
27.19
6.92
-29.41
-80.30
-142.11
-210.74
-282.50
-354.35
-423.88
-489.43
-550.00
-604.95
-652.72
-689.66
-709.98
-707.09
-676.24
-616.28
-530.46
-425.92
-312.67
-202.27
-106.93
-38.35
-5.92
-14.25
-61.01
-136.28
-224.52
-308.93
-375.46
-416.10
-429.77
-421.19
-397.82
-366.84
-332.64
-296.46
-257.71
-215.21
-168.75
-119.33
-68.51
-17.37
33.77
85.13
136.46
185.86
230.79
267.79
293.51
305.51
303.44
286.07
253.61
210.26
163.05
120.34
86.75
62.56
45.13
31.66
21.42
15.70
17.05
26.79
47.40
79.24
120.57
164.70
206.22
242.91
274.79
304.14
332.86
366.03
407.38
457.70
513.95
571.07
623.61
664.51
688.19
665.45
583.22
451.63
299.95
158.04
42.45
-37.89
-94.83
-138.78
-177.16
-211.67
-244.71
-279.99
-323.08
-379.01
-448.42
-520.56
-579.17
-609.13
-599.52
-549.49
-467.96
-370.56
-281.36
-205.67
-142.97
-89.64
-41.95
4.39
51.97
99.31
143.72
183.38
220.00
256.76
295.62
335.26
371.95
400.84
418.26
422.77
415.66
388.59
340.42
277.61
212.03
154.60
110.12
76.99
48.74
17.37
-22.26
-69.26
-118.32
-161.47
-191.48
-208.09
-211.75
-205.06
-191.62
-174.06
-152.34
-126.41
-97.16
-67.31
-40.63
-19.82
-6.18
0.87
3.43
7.07
15.01
28.06
44.66
61.97
77.70
90.36
99.74
106.81
113.69
122.03
132.86
146.32
161.91
178.98
195.80
209.72
217.53
216.58
205.09
183.15
152.49
116.02
77.23
38.95
3.17
-28.70
-55.55
-76.65
-91.68
-101.18
-106.19
-107.63
-106.49
-103.43
-98.53
-91.80
-83.64
-75.13
-68.53
-65.65
-66.59
-71.02
-78.18
-86.74
-95.82
-105.58
-117.34
-134.38
-158.70
-188.84
-223.09
-259.68
-296.47
-331.98
-366.02
-399.50
-435.87
-476.87
-520.21
-564.83
-610.00
-652.75
-687.64
-707.44
-705.11
-678.85
-629.55
-558.35
-472.21
-380.56
-290.03
-203.40
-120.42
-23.89
85.34
176.39
239.03
275.19
287.57
283.71
274.36
270.03
277.16
293.37
312.88
332.15
346.11
350.90
346.23
333.64
314.72
290.47
260.07
225.51
193.87
170.76
159.06
159.61
170.82
189.72
213.60
239.81
267.97
300.12
335.68
370.90
400.30
418.00
419.53
403.13
369.92
324.37
273.24
222.05
173.50
127.17
80.05
28.22
-30.68
-95.32
-159.59
-213.48
-246.44
-250.52
-222.61
-165.58
-87.66
-0.45
83.60
153.44
200.98
221.88
215.82
186.65
141.97
91.93
46.89
14.41
-3.31
-10.22
-14.87
-27.25
-55.04
-101.09
-163.05
-234.45
-306.87
-371.90
-422.16
-452.08
-458.51
-441.24
-403.11
-349.45
-286.96
-222.30
-161.12
-107.33
-62.74
-26.93
2.69
30.15
59.51
93.07
129.89
165.30
191.66
200.41
184.68
142.33
77.83
2.22
-69.31
-121.34
-143.05
-131.61
-93.32
-41.72
6.49
36.03
36.96
6.67
-50.36
-124.71
-205.06
-281.07
-345.20
-393.11
-423.06
-435.00
-430.14
-410.89
-381.31
-346.64
-312.17
-281.69
-256.36
-234.70
-213.87
-191.40
-166.59
-140.72
-116.19
-95.07
-78.18
-64.64
-52.48
-39.58
-24.62
-7.56
10.54
28.17
44.13
58.13
70.89
83.72
97.88
114.04
131.95
150.75
169.42
187.34
204.58
221.80
239.84
259.21
279.91
301.42
323.09
344.47
365.45
386.14
406.53
426.08
443.60
457.48
466.11
468.45
464.25
454.15
439.33
421.20
401.10
380.04
358.59
336.74
313.84
288.75
260.08
226.80
188.56
145.75
99.13
49.13
-4.80
-64.28
-131.28
-206.57
-287.91
-369.09
-440.85
-493.63
-520.44
-519.44
-494.77
-454.91
-409.37
-365.54
-326.65
-292.28
-260.36
-228.86
-197.10
-165.71
-135.42
-105.80
-74.61
-37.93
7.97
64.52
130.07
199.28
263.57
313.17
340.30
342.16
323.24
293.24
263.32
244.80
245.87
268.77
309.99
362.21
416.98
468.73
513.01
544.65
562.62
569.49
568.70
563.55
556.73
549.71
545.38
543.17
536.01
519.39
492.48
455.79
411.26
362.75
314.91
275.30
246.44
220.35
189.17
146.92
87.65
8.19
-87.72
-213.22
-355.33
-458.34
-502.77
-498.37
-460.32
-410.56
-371.64
-358.02
-372.84
-405.58
-442.32
-474.77
-493.00
-486.79
-452.10
-392.76
-317.43
-237.76
-162.89
-101.08
-61.14
-49.47
-62.48
-85.25
-110.97
-137.79
-163.02
-182.69
-196.05
-209.03
-228.79
-261.28
-311.22
-379.99
-461.26
-541.90
-604.76
-634.98
-625.67
-578.29
-502.52
-415.63
-338.57
-288.38
-273.41
-291.42
-331.28
-377.26
-413.38
-427.84
-416.32
-382.19
-332.52
-274.88
-215.48
-158.23
-105.59
-59.19
-19.69
13.23
41.14
67.46
96.48
130.78
168.90
204.36
227.41
228.87
204.92
160.01
106.26
58.96
30.26
24.54
37.74
60.85
85.22
106.73
126.62
149.32
178.69
215.10
254.70
290.68
315.86
