1659463140.00
64.000000
-0.00
-0.00
-0.00
-0.00
-0.00
-0.00
-0.00
-0.00
-0.00
-0.00
0.00
0.01
0.01
-0.00
-0.03
-0.05
-0.05
0.00
0.13
0.36
0.66
1.01
1.37
1.72
2.06
2.40
2.79
3.24
3.80
4.42
5.06
5.66
6.20
6.68
7.15
7.68
8.31
9.14
10.09
11.04
11.88
12.56
13.14
13.76
14.65
15.96
17.91
20.32
22.90
25.38
27.58
29.57
31.68
34.32
37.81
42.54
48.15
54.10
59.83
64.97
69.58
74.14
79.34
85.71
93.76
103.00
112.62
121.73
129.77
136.75
143.30
150.74
157.77
166.65
177.97
191.83
207.01
220.57
228.18
225.18
208.22
176.44
132.26
79.51
22.54
-35.46
-92.97
-149.75
-205.93
-261.19
-314.67
-364.85
-410.80
-451.83
-487.41
-516.70
-538.35
-550.62
-551.67
-540.34
-516.30
-480.74
-435.84
-384.37
-329.10
-272.39
-215.93
-160.80
-107.82
-57.65
-11.21
30.46
66.41
96.03
119.27
136.68
149.28
158.24
164.56
168.75
170.85
170.58
167.63
162.02
154.22
145.11
135.71
126.83
118.78
111.40
104.18
96.55
88.03
78.28
67.21
55.16
43.22
33.28
27.71
28.45
36.02
48.89
63.84
77.06
85.65
88.67
86.92
82.16
76.12
69.77
63.34
56.72
50.01
43.70
38.42
34.55
31.97
30.14
28.30
25.91
22.82
19.30
15.89
13.13
11.29
10.33
9.83
9.20
7.98
6.01
3.57
1.25
-0.42
-1.20
-1.32
-1.24
-1.34
-1.61
-1.75
-1.37
-0.39
0.85
1.74
1.84
1.06
-0.24
-1.54
-2.45
-2.87
-2.92
-2.80
-2.64
-2.45
-2.22
-2.00
-1.90
-2.03
-2.40
-2.90
-3.39
-3.70
-3.76
-3.59
-3.29
-2.98
-2.74
-2.64
-2.64
-2.67
-2.63
-2.45
-2.15
-1.76
-1.32
-0.90
-0.55
-0.27
-0.04
0.17
0.42
0.73
1.14
1.69
2.43
3.39
4.58
5.94
7.41
8.84
10.10
11.08
11.75
12.06
12.02
11.64
10.88
9.70
8.14
6.13
3.77
1.21
-1.36
-3.75
-5.85
-7.62
-9.05
-10.19
-11.09
-11.74
-12.14
-12.27
-12.11
-11.70
-11.06
-10.27
-9.42
-8.66
-8.06
-7.64
-7.32
-7.01
-6.61
-6.11
-5.61
-5.20
-4.95
-4.82
-4.68
-4.40
-3.86
-3.10
-2.20
-1.30
-0.57
-0.13
-0.03
-0.19
-0.48
-0.73
-0.81
-0.69
-0.42
-0.15
0.05
0.09
0.02
-0.12
-0.27
-0.42
-0.56
-0.72
-0.90
-1.05
-1.16
-1.17
-1.09
-0.98
-0.91
-0.94
-1.09
-1.29
-1.45
-1.46
-1.31
-1.08
-0.93
-1.05
-1.53
-2.31
-3.19
-3.92
-4.26
-4.08
-3.40
-2.32
-1.06
0.18
1.25
2.04
2.52
2.70
2.60
2.25
1.73
1.15
0.67
0.44
0.50
0.77
1.05
1.15
0.97
0.56
0.14
-0.09
-0.05
0.20
0.42
0.38
-0.04
-0.76
-1.56
-2.18
-2.52
-2.60
-2.62
-2.78
-3.18
-3.77
-4.39
-4.85
-5.01
-4.85
-4.43
-3.81
-3.05
-2.18
-1.26
-0.36
0.44
1.07
1.51
1.80
1.96
2.02
1.96
1.79
1.52
1.24
0.98
0.82
0.76
0.80
0.93
1.15
1.42
1.68
1.84
1.80
1.57
1.20
0.82
0.53
0.34
0.13
-0.21
-0.78
-1.56
-2.42
-3.26
-4.01
-4.69
-5.32
-5.84
-6.13
-6.05
-5.50
-4.49
-3.17
-1.72
-0.35
0.77
1.51
1.80
1.68
1.26
0.74
0.31
0.09
0.08
0.21
0.37
0.54
0.70
0.90
1.14
1.37
1.54
1.59
1.53
1.42
1.27
1.11
0.89
0.62
0.32
0.06
-0.11
-0.18
-0.20
-0.28
-0.48
-0.77
-1.04
-1.16
-1.01
-0.61
-0.04
0.59
1.17
1.67
2.13
2.57
2.95
3.16
3.05
2.55
1.68
0.59
-0.49
-1.39
-2.00
-2.36
-2.56
-2.71
-2.90
-3.20
-3.68
-4.42
-5.42
-6.63
-7.89
-9.05
-9.96
-10.63
-11.18
-11.83
-12.73
-13.92
-15.32
-16.76
-18.05
-19.02
-19.51
-19.39
-18.58
-17.04
-14.80
-11.95
-8.66
-5.08
-1.36
2.39
6.08
9.60
12.85
15.73
18.14
20.01
21.30
21.99
22.11
21.74
21.05
20.21
19.35
18.48
17.52
16.36
14.96
13.42
11.89
10.56
9.46
8.51
7.57
6.54
5.45
4.43
3.58
2.93
2.40
1.93
1.50
1.23
1.19
1.40
1.76
2.09
2.28
2.33
2.34
2.44
2.65
2.89
3.05
3.04
2.87
2.65
2.47
2.38
2.36
2.36
2.31
2.18
1.99
1.71
1.35
0.89
0.37
-0.15
-0.62
-0.94
-1.10
-1.10
-1.05
-1.02
-1.13
-1.41
-1.86
-2.40
-2.92
-3.32
-3.50
-3.41
-3.03
-2.39
-1.57
-0.68
0.16
0.84
1.28
1.47
1.48
1.44
1.50
1.72
2.09
2.46
2.67
2.59
2.23
1.72
1.23
0.89
0.70
0.59
0.45
0.26
0.04
-0.12
-0.19
-0.19
-0.22
-0.37
-0.65
-1.00
-1.33
-1.57
-1.72
-1.84
-2.03
-2.35
-2.78
-3.19
-3.45
-3.40
-3.01
-2.36
-1.60
-0.90
-0.39
-0.07
0.14
0.34
0.57
0.78
0.88
0.82
0.60
0.34
0.19
0.21
0.39
0.64
0.84
0.93
0.88
0.74
0.56
0.38
0.23
0.12
0.08
0.08
0.07
-0.03
-0.28
-0.67
-1.13
-1.54
-1.81
-1.93
-1.98
-2.05
-2.25
-2.62
-3.08
-3.49
-3.66
-3.46
-2.85
-1.89
-0.76
0.34
1.24
1.82
2.03
1.89
1.51
1.07
0.83
1.04
1.86
3.26
4.98
6.62
7.77
8.19
7.86
6.98
5.83
4.63
3.50
2.46
1.46
0.50
-0.35
-1.00
-1.40
-1.56
-1.60
-1.71
-2.02
-2.61
-3.40
-4.24
-4.97
-5.45
-5.64
-5.51
-5.11
-4.51
-3.76
-2.93
-2.05
-1.15
-0.27
0.54
1.16
1.48
1.44
1.10
0.61
0.23
0.15
0.42
0.95
1.53
1.95
2.10
2.01
1.78
1.53
1.32
1.14
0.95
0.71
0.44
0.17
-0.08
-0.30
-0.49
-0.68
-0.86
-1.02
-1.14
-1.23
-1.35
-1.52
-1.73
-1.94
-2.03
-1.93
-1.61
-1.13
-0.58
-0.05
0.42
0.84
1.24
1.62
1.94
2.13
2.08
1.82
1.43
1.07
0.91
1.00
1.30
1.63
1.84
1.81
1.59
1.32
1.14
1.11
1.19
1.25
1.19
0.99
0.73
0.51
0.35
0.21
-0.04
-0.47
-1.05
-1.64
-2.08
-2.23
-2.14
-1.93
-1.75
-1.66
-1.62
-1.51
-1.23
-0.74
-0.10
0.59
1.21
1.65
1.89
1.93
1.83
1.64
1.41
1.20
1.03
0.92
0.87
0.91
1.02
1.15
1.26
1.28
1.18
0.97
0.69
0.40
0.12
-0.13
-0.34
-0.53
-0.66
-0.72
-0.70
-0.62
-0.56
-0.58
-0.73
-1.04
-1.48
-1.98
-2.47
-2.81
-2.90
-2.67
-2.11
-1.31
-0.40
0.43
1.08
1.47
1.62
1.56
1.35
1.07
0.77
0.49
0.30
0.22
0.23
0.29
0.31
0.25
0.11
-0.07
-0.23
-0.31
-0.33
-0.30
-0.29
-0.34
-0.42
-0.51
-0.57
-0.60
-0.64
-0.75
-0.92
-1.09
-1.17
-1.13
-1.02
-0.97
-1.07
-1.32
-1.59
-1.68
-1.48
-1.00
-0.40
0.15
0.54
0.79
1.02
1.27
1.55
1.75
1.77
1.54
1.14
0.67
0.26
-0.04
-0.25
-0.40
-0.53
-0.57
-0.46
-0.19
0.16
0.41
0.39
0.03
-0.56
-1.16
-1.56
-1.65
-1.47
-1.18
-0.96
-0.90
-1.01
-1.21
-1.42
-1.56
-1.62
-1.61
-1.54
-1.40
-1.18
-0.85
-0.43
0.01
0.38
0.59
0.60
0.49
0.37
0.36
0.52
0.82
1.15
1.40
1.52
1.52
1.44
1.35
1.29
1.25
1.22
1.16
1.02
0.77
0.39
-0.09
-0.57
-0.89
-0.97
-0.82
-0.63
-0.62
-0.99
-1.74
-2.68
-3.53
-4.06
-4.18
-3.97
-3.62
-3.24
-2.87
-2.46
-1.97
-1.43
-0.95
-0.62
-0.47
-0.41
-0.30
-0.05
0.35
0.79
1.13
1.25
1.14
0.91
0.72
0.69
0.86
1.15
1.42
1.55
1.52
1.38
1.23
1.12
1.04
0.93
0.73
0.42
0.09
-0.22
-0.44
-0.60
-0.71
-0.83
-0.99
-1.20
-1.47
-1.76
-2.01
-2.11
-1.96
-1.57
-0.99
-0.37
0.15
0.51
0.69
0.77
0.80
0.83
0.89
0.98
1.09
1.18
1.22
1.18
1.05
0.92
0.88
1.01
1.33
1.74
2.10
2.32
2.33
2.17
1.90
1.55
1.11
0.57
-0.02
-0.58
-0.94
-1.02
-0.82
-0.47
-0.20
-0.19
-0.50
-1.04
-1.62
-2.07
-2.30
-2.33
-2.22
-2.04
-1.78
-1.38
-0.81
-0.08
0.70
1.34
1.71
1.78
1.62
1.36
1.16
1.10
1.18
1.35
1.54
1.71
1.85
1.94
1.98
1.93
1.73
1.36
0.83
0.17
-0.53
-1.12
-1.52
-1.65
-1.51
-1.21
-0.93
-0.83
-1.03
-1.51
-2.19
-2.89
-3.49
-3.90
-4.17
-4.34
-4.48
-4.57
-4.56
-4.38
-4.04
-3.63
-3.31
-3.19
-3.29
-3.51
-3.73
-3.84
-3.83
-3.84
-4.03
-4.48
-5.20
-6.05
-6.89
-7.63
-8.30
-8.98
-9.79
-10.76
-11.84
-12.92
-13.88
-14.66
-15.24
-15.65
-15.91
-15.99
-15.81
-15.17
-13.87
-11.76
-8.83
-5.26
-1.44
2.23
5.40
7.96
10.01
11.76
13.39
14.98
16.42
17.53
18.16
18.26
17.90
17.22
16.37
15.45
14.55
13.71
12.98
12.34
11.74
11.09
10.28
9.26
8.07
6.82
5.68
4.81
4.30
4.09
4.03
3.89
3.48
2.67
1.57
0.38
-0.61
-1.16
-1.25
-1.01
-0.68
-0.51
-0.60
-0.88
-1.24
-1.51
-1.63
-1.54
-1.23
-0.66
0.21
1.36
2.71
4.10
5.40
6.52
7.43
8.12
8.55
8.65
8.31
7.50
6.21
4.55
2.72
0.91
-0.69
-1.92
-2.74
-3.20
-3.45
-3.63
-3.88
-4.19
-4.49
-4.64
-4.56
-4.21
-3.66
-2.98
-2.23
-1.38
-0.40
0.69
1.82
2.83
3.57
4.01
4.21
4.34
4.58
5.11
6.02
7.39
9.18
11.32
13.62
15.86
17.79
19.25
20.19
20.67
20.79
20.64
20.23
19.49
18.26
16.38
13.69
10.14
5.83
0.99
-4.01
-8.79
-13.00
-16.40
-18.83
-20.28
-20.79
-20.51
-19.63
-18.37
-16.89
-15.30
-13.62
-11.94
-10.37
-9.07
-8.16
-7.56
-6.99
-6.04
-4.41
-2.00
0.90
3.81
6.20
7.77
8.58
8.98
9.49
10.67
12.97
16.66
21.77
27.95
34.40
39.98
43.54
44.40
42.78
39.89
37.63
37.93
42.04
50.08
60.95
72.65
82.80
89.26
90.56
86.18
76.64
63.22
47.73
32.05
17.86
6.37
-1.75
-6.39
-7.98
-7.43
-5.86
-4.35
-3.64
-3.92
-4.91
-6.05
-6.80
-6.80
-5.94
-4.32
-2.16
0.22
2.44
4.15
5.10
5.21
4.60
3.45
1.97
0.28
-1.52
-3.25
-4.59
-5.10
-4.35
-2.09
1.65
6.49
11.90
17.39
22.71
27.99
33.72
40.53
48.88
58.65
68.91
77.91
83.42
83.47
76.98
64.20
46.66
26.73
6.93
-10.74
-25.17
-36.32
-45.16
-53.32
-62.51
-73.76
-86.83
-100.06
-110.89
-117.07
-117.61
-113.36
-106.49
-99.43
-93.78
-89.82
-86.87
-84.03
-80.88
-77.68
-74.94
-72.96
-71.43
-69.60
-66.75
-62.58
-57.42
-52.05
-47.34
-43.82
-41.51
-39.94
-38.44
-36.50
-33.95
-31.04
-28.23
-25.92
-24.23
-22.95
-21.64
-19.91
-17.55
-14.67
-11.60
-8.71
-6.32
-4.53
-3.28
-2.41
-1.76
-1.20
-0.66
-0.13
0.41
0.95
1.46
1.89
2.17
2.29
2.29
2.23
2.21
2.25
2.32
2.33
2.23
2.06
1.88
1.77
1.74
1.73
1.61
1.27
0.72
0.03
-0.65
-1.16
-1.43
-1.42
-1.16
-0.71
-0.08
0.71
1.63
2.64
3.67
4.62
5.47
6.16
6.70
7.07
7.17
6.88
6.09
4.82
3.22
1.59
0.21
-0.75
-1.29
-1.60
-1.93
-2.43
-3.19
-4.13
-5.16
-6.22
-7.27
-8.32
-9.37
-10.35
-11.13
-11.58
-11.62
-11.27
-10.70
-10.13
-9.76
-9.69
-9.81
-9.92
-9.76
-9.10
-7.84
-6.00
-3.75
-1.35
0.91
2.71
3.86
4.31
4.24
3.97
3.90
4.30
5.19
6.40
7.63
8.63
9.28
9.64
9.79
9.82
9.71
9.41
8.86
8.14
7.40
6.89
6.77
7.10
7.72
8.36
8.71
8.51
7.69
6.30
4.57
2.81
1.30
0.30
-0.06
0.24
1.06
2.14
3.15
3.82
4.04
3.83
3.37
2.82
2.31
1.84
1.38
0.89
0.38
-0.07
-0.39
-0.50
-0.39
-0.10
0.32
0.77
1.10
1.22
1.05
0.66
0.20
-0.11
-0.06
0.42
1.24
2.19
3.04
3.58
3.81
3.93
4.27
5.16
6.78
9.00
11.39
13.34
14.31
14.00
12.46
10.04
7.24
4.54
2.22
0.41
-0.97
-2.03
-2.86
-3.45
-3.75
-3.68
-3.23
-2.48
-1.63
-0.89
-0.43
-0.30
-0.41
-0.63
-0.83
-0.94
-0.96
-0.98
-1.06
-1.25
-1.61
-2.13
-2.78
-3.48
-4.12
-4.55
-4.67
-4.45
-3.99
-3.48
-3.09
-2.91
-2.91
-2.91
-2.73
-2.30
-1.71
-1.20
-0.97
-1.14
-1.59
-2.02
-2.09
-1.61
-0.58
0.80
2.26
3.52
4.44
5.02
5.32
5.49
5.66
5.90
6.22
6.54
6.77
6.82
6.69
6.52
6.51
6.91
7.86
9.39
11.35
13.42
15.17
16.12
15.92
14.47
12.02
9.10
6.38
4.37
3.25
2.83
2.76
2.69
2.55
2.51
2.81
3.57
4.63
5.62
6.10
5.80
4.74
3.25
1.74
0.56
-0.12
-0.40
-0.53
-0.82
-1.43
-2.41
-3.67
-5.02
-6.21
-7.02
-7.20
-6.61
-5.22
-3.23
-1.01
0.92
2.14
2.45
1.97
1.04
0.02
-0.86
-1.63
-2.41
-3.31
-4.29
-5.17
-5.70
-5.73
-5.24
-4.32
-3.11
-1.73
-0.29
1.08
2.20
2.89
3.04
2.70
2.07
1.39
0.88
0.64
0.69
1.06
1.83
3.14
5.11
7.73
10.76
13.74
16.11
17.34
17.11
15.40
12.45
8.75
4.84
1.31
-1.38
-2.94
-3.28
-2.50
-0.90
1.14
3.22
4.99
6.19
6.69
6.50
5.72
4.57
3.32
2.26
1.53
1.19
1.13
1.13
0.94
0.38
-0.62
-1.98
-3.42
-4.59
-5.09
-4.74
-3.54
-1.81
0.01
1.45
2.19
2.17
1.53
0.50
-0.73
-2.04
-3.36
-4.69
-5.98
-7.12
-7.92
-8.16
-7.60
-6.14
-3.88
-1.16
1.44
3.31
4.04
3.62
2.40
0.91
-0.36
-1.22
-1.74
-2.16
-2.58
-2.90
-2.83
-2.07
-0.49
1.76
4.31
6.72
8.61
9.80
10.26
10.09
9.47
8.55
7.48
6.39
5.35
4.37
3.47
2.66
2.00
1.63
1.70
2.27
3.28
4.48
5.52
6.06
5.95
5.21
4.07
2.81
1.63
0.59
-0.37
-1.39
-2.52
-3.73
-4.87
-5.78
-6.31
-6.35
-5.84
-4.77
-3.19
-1.31
0.57
2.12
3.07
3.35
3.10
2.57
1.99
1.42
0.78
-0.06
-1.13
-2.31
-3.32
-3.88
-3.84
-3.24
-2.34
-1.44
-0.82
-0.63
-0.85
-1.39
-2.10
-2.86
-3.63
-4.41
-5.21
-6.04
-6.82
-7.38
-7.49
-6.90
-5.45
-3.10
0.00
3.53
7.02
9.93
11.84
12.50
11.92
10.30
7.94
5.17
2.32
-0.30
-2.38
-3.69
-4.08
-3.60
-2.47
-1.03
0.35
1.39
1.91
1.86
1.27
0.29
-0.83
-1.79
-2.34
-2.44
-2.25
-2.08
-2.24
-2.82
-3.72
-4.66
-5.38
-5.67
-5.49
-4.87
-3.86
-2.56
-1.11
0.24
1.22
1.65
1.59
1.24
0.85
0.51
0.06
-0.80
-2.29
-4.33
-6.49
-8.16
-8.79
-8.19
-6.55
-4.35
-2.05
0.03
1.86
3.51
5.02
6.27
7.03
7.10
6.46
5.38
4.30
3.68
3.78
4.61
5.92
7.41
8.78
9.93
10.82
11.51
12.00
12.26
12.17
11.61
10.48
8.75
6.44
3.66
0.61
-2.44
-5.20
-7.35
-8.65
-9.01
-8.50
-7.39
-6.01
-4.71
-3.72
-3.11
-2.79
-2.57
-2.27
-1.79
-1.16
-0.51
0.03
0.37
0.52
0.55
0.53
0.41
0.07
-0.63
-1.73
-3.07
-4.35
-5.20
-5.43
-5.08
-4.39
-3.76
-3.46
-3.59
-4.04
-4.62
-5.11
-5.45
-5.64
-5.72
-5.74
-5.65
-5.37
-4.79
-3.85
-2.55
-0.97
0.79
2.61
4.40
6.14
7.80
9.30
10.54
11.39
11.82
11.90
11.77
11.59
11.42
11.14
10.63
9.85
8.91
8.14
7.84
8.18
9.07
10.20
11.17
11.70
11.75
11.47
11.19
11.16
11.51
12.15
12.84
13.38
13.69
13.89
14.27
15.12
16.75
19.42
23.42
28.95
35.88
43.39
50.05
54.23
54.74
51.32
44.61
35.51
24.62
11.96
-2.70
-19.21
-36.76
-54.20
-70.76
-86.51
-102.15
-118.06
-133.25
-145.15
-150.35
-146.09
-131.70
-108.94
-81.03
-51.22
-21.53
7.72
37.03
66.44
94.86
120.17
140.17
153.57
160.12
159.87
152.26
135.85
109.49
74.07
33.60
-5.36
-36.22
-55.20
-62.95
-63.78
-63.10
-64.47
-68.28
-72.45
-74.49
-73.44
-70.50
-67.95
-67.60
-69.61
-72.28
-73.12
-70.31
-63.50
-54.07
-44.53
-37.24
-33.54
-33.27
-35.08
-37.26
-38.50
-38.33
-37.08
-35.24
-32.98
-29.90
-25.31
-18.70
-10.26
-0.97
7.69
14.23
17.71
17.99
15.58
11.45
6.56
1.69
-2.68
-6.21
-8.56
-9.34
-8.19
-4.98
0.06
6.37
13.16
19.71
25.52
30.40
34.36
37.53
40.10
42.22
44.04
45.65
47.04
48.11
48.69
48.61
47.80
46.26
44.10
41.54
38.87
36.31
34.02
32.06
30.46
29.28
28.42
27.80
27.33
27.07
27.16
27.85
29.33
31.70
34.80
37.97
40.45
41.68
41.65
40.91
40.31
40.79
42.91
46.65
50.67
53.37
53.85
52.53
51.03
51.48
55.94
66.09
83.06
105.87
132.65
160.95
188.01
210.60
225.35
229.91
224.19
210.54
190.56
165.67
136.82
104.49
68.51
28.15
-16.84
-65.41
-115.34
-166.83
-220.79
-277.47
-335.66
-393.01
-446.91
-494.95
-535.45
-550.66
-529.41
-473.02
-395.03
-310.35
-225.75
-140.44
-52.36
37.00
122.00
192.84
242.16
268.10
273.85
264.01
241.40
207.22
163.88
116.87
71.94
34.45
6.89
-11.98
-25.42
-37.56
-51.12
-64.87
-73.67
-72.11
-56.36
-26.40
13.30
54.57
87.88
105.92
106.85
94.55
75.49
55.95
39.53
26.83
16.56
8.04
1.43
-2.16
-1.65
2.69
8.84
13.83
15.16
12.09
5.87
-1.17
-6.55
-8.88
-8.41
-6.58
-5.19
-5.43
-7.54
-11.07
-15.52
-20.52
-25.82
-31.01
-35.22
-37.12
-35.46
-29.70
-20.51
-9.76
0.27
7.76
11.89
12.76
11.05
7.53
2.91
-1.86
-5.43
-6.19
-3.12
3.29
10.84
16.44
17.78
14.71
9.60
6.14
7.22
13.34
22.15
29.69
32.30
28.28
18.43
5.38
-7.77
-18.56
-25.65
-28.56
-27.26
-21.90
-12.92
-1.21
11.81
24.27
34.34
40.78
43.17
41.94
38.04
32.48
26.05
19.27
12.51
6.14
0.56
-4.00
-7.62
-10.72
-13.92
-17.79
-22.58
-28.17
-33.94
-38.92
-41.88
-41.48
-36.67
-27.08
-13.43
2.36
17.60
29.67
36.95
39.38
38.38
36.14
34.83
35.74
39.02
43.81
48.64
51.77
51.51
46.67
37.07
23.95
9.91
-1.95
-9.28
-11.61
-10.56
-9.09
-10.01
-14.77
-23.13
-33.67
-44.81
-55.62
-65.79
-75.20
-83.44
-89.66
-93.00
-93.09
-90.19
-84.94
-78.02
-69.90
-60.89
-51.32
-41.64
-32.31
-23.53
-15.13
-6.71
2.08
11.15
19.91
27.40
32.76
35.53
35.78
33.91
30.35
25.39
19.30
12.61
6.53
2.84
3.38
9.20
19.89
33.50
47.25
58.73
66.75
71.63
74.53
76.52
77.91
78.22
76.76
73.24
67.95
61.35
53.42
43.37
29.98
12.50
-8.61
-31.64
-54.13
-73.79
-89.14
-99.54
-104.87
-105.13
-100.41
-91.16
-78.63
-64.78
-51.91
-41.98
-35.95
-33.45
-32.97
-32.53
-30.39
-25.47
-17.30
-5.82
8.51
24.48
39.80
51.35
56.12
52.52
41.28
25.37
8.77
-5.19
-15.08
-21.30
-25.10
-27.32
-27.79
-25.64
-20.35
-12.43
-3.37
5.17
12.16
17.63
22.62
28.53
36.43
46.48
57.79
68.80
77.97
84.57
89.14
93.28
98.93
107.31
118.37
130.99
143.62
155.04
164.54
171.73
176.01
176.49
172.45
163.87
151.69
137.38
121.77
104.34
83.43
57.85
28.70
0.26
-21.06
-29.27
-21.76
-0.92
26.52
52.11
68.82
73.49
67.21
54.19
39.58
27.53
20.14
17.15
16.44
14.65
7.86
-7.76
-35.35
-76.05
-127.73
-184.12
-235.31
-270.46
-281.80
-268.06
-235.49
-195.51
-160.17
-137.48
-129.28
-132.34
-141.69
-154.14
-169.74
-190.87
-219.74
-256.28
-297.60
-338.89
-374.97
-401.43
-415.13
-414.06
-397.13
-364.29
-316.72
-257.21
-190.16
-121.16
-56.18
-0.41
42.78
72.54
90.64
100.77
107.27
113.60
121.25
129.54
136.48
140.56
141.94
142.61
145.33
151.80
161.36
170.98
176.60
175.16
165.92
150.58
132.09
113.06
94.90
78.04
63.05
51.46
45.50
46.74
54.57
65.50
74.19
75.66
67.46
50.75
29.58
8.93
-7.46
-18.14
-23.82
-26.20
-26.70
