1660755366.00
64.000000
-0.00
-0.00
-0.00
-0.00
-0.00
-0.00
-0.00
-0.00
-0.00
-0.00
0.00
0.01
0.01
-0.00
-0.03
-0.05
-0.05
0.00
0.13
0.36
0.66
1.01
1.37
1.72
2.06
2.40
2.79
3.24
3.80
4.42
5.06
5.66
6.20
6.68
7.15
7.68
8.31
9.14
10.09
11.04
11.88
12.56
13.14
13.76
14.65
15.96
17.91
20.32
22.90
25.38
27.58
29.57
31.68
34.32
37.81
42.54
48.15
54.10
59.83
64.97
69.58
74.14
79.34
85.71
93.76
103.00
112.62
121.73
129.77
136.75
143.30
150.75
157.77
166.64
177.95
191.79
206.97
220.57
228.25
225.36
208.53
176.87
132.76
80.05
23.07
-34.95
-92.44
-149.16
-205.23
-260.36
-313.73
-363.85
-409.79
-450.84
-486.41
-515.61
-537.06
-549.01
-549.70
-538.06
-513.85
-478.27
-433.43
-381.96
-326.48
-269.25
-211.99
-155.95
-102.18
-51.52
-4.96
36.63
72.59
102.64
126.93
145.97
160.45
171.10
178.52
183.13
185.21
184.97
182.71
178.76
173.54
167.46
160.85
153.98
146.99
139.94
132.87
125.84
118.90
112.13
105.61
99.37
93.45
87.87
82.63
77.75
73.25
69.15
65.46
62.18
59.25
56.63
54.29
52.21
50.36
48.68
47.12
45.50
43.61
41.22
38.11
34.14
29.31
23.77
17.74
11.58
5.66
0.28
-4.33
-8.05
-10.81
-12.59
-13.40
-13.34
-12.60
-11.55
-10.72
-10.71
-12.04
-14.96
-19.32
-24.61
-30.07
-34.98
-38.93
-41.97
-44.53
-47.23
-50.47
-54.24
-58.05
-61.18
-63.01
-63.43
-63.05
-63.10
-64.89
-69.32
-76.45
-85.45
-95.07
-104.10
-111.73
-117.98
-123.51
-129.41
-137.13
-148.18
-163.61
-182.98
-203.39
-219.18
-223.61
-211.31
-180.78
-135.50
-82.83
-31.28
12.59
46.06
70.50
89.44
106.49
124.18
143.88
166.41
192.70
223.79
257.90
292.65
324.51
349.53
364.07
365.83
354.27
330.43
296.35
254.32
206.62
154.96
100.67
44.96
-10.80
-64.96
-115.75
-161.50
-200.79
-232.14
-254.10
-265.16
-264.04
-250.31
-225.24
-192.08
-155.66
-120.82
-90.61
-65.46
-43.40
-21.61
1.60
25.66
47.79
64.39
72.85
72.72
65.59
54.07
40.67
27.11
14.24
2.49
-7.82
-16.24
-22.43
-26.25
-27.94
-28.05
-27.35
-26.66
-26.63
-27.56
-29.33
-31.43
-33.29
-34.52
-35.34
-36.38
-38.36
-41.47
-45.09
-47.86
-48.34
-45.86
-40.96
-35.25
-30.46
-27.39
-25.27
-22.04
-15.32
-3.51
13.48
34.39
57.31
80.46
102.64
123.06
140.96
155.35
165.22
169.99
169.95
166.37
161.06
155.73
151.30
147.73
144.08
138.96
131.02
119.29
103.37
83.36
59.95
34.34
8.28
-16.29
-37.54
-54.23
-65.82
-72.37
-74.30
-72.11
-66.44
-58.21
-48.78
-39.81
-32.86
-28.86
-27.82
-28.99
-31.15
-33.02
-33.45
-31.41
-26.11
-17.27
-5.51
7.59
19.93
29.60
35.59
38.04
37.86
36.10
33.25
29.13
23.13
14.83
4.45
-6.93
-17.64
-26.00
-30.89
-32.31
-31.28
-29.44
-28.18
-28.08
-28.85
-29.71
-30.06
-29.99
-30.03
-30.67
-31.86
-32.81
-32.46
-30.11
-26.12
-22.08
-20.34
-22.98
-30.82
-42.85
-56.39
-68.02
-74.75
-75.00
-68.93
-58.14
-44.89
-31.42
-19.49
-10.26
-4.24
-1.29
-0.67
-1.24
-2.03
-2.67
-3.64
-5.72
-9.12
-12.95
-15.23
-13.70
-6.96
4.64
18.88
32.30
41.28
43.23
37.35
25.11
9.90
-3.81
-11.81
-11.51
-2.95
11.14
26.35
38.21
43.91
43.32
38.74
33.65
31.20
33.01
38.95
47.62
57.11
65.67
71.71
73.63
69.74
58.74
40.61
17.41
-6.93
-27.80
-41.54
-46.74
-44.43
-37.10
-27.46
-17.71
-9.55
-4.81
-5.60
-13.71
-29.31
-50.13
-71.72
-89.20
-99.47
-102.42
-100.50
-96.94
-93.78
-91.01
-87.25
-81.14
-72.43
-62.13
-51.51
-40.94
-29.45
-15.42
2.02
21.82
40.70
54.10
57.84
49.90
31.60
7.64
-15.02
-29.26
-30.15
-16.58
8.54
39.65
70.86
97.91
118.98
134.22
144.54
150.59
152.41
149.68
142.35
130.87
116.14
99.30
81.55
64.19
48.59
36.07
27.51
22.87
21.05
20.19
18.30
13.98
6.71
-3.19
-14.89
-27.41
-39.82
-51.35
-61.45
-69.96
-77.20
-83.95
-91.06
-99.09
-107.97
-117.02
-125.37
-132.40
-137.97
-142.17
-144.79
-145.07
-141.93
-134.58
-123.12
-108.44
-91.72
-73.70
-54.46
-33.90
-12.36
8.78
27.41
41.70
51.20
57.38
63.14
71.56
84.45
101.51
120.45
137.80
150.07
154.80
151.15
140.10
124.07
106.24
89.68
76.61
67.94
63.20
60.93
59.25
56.43
51.49
44.26
35.41
26.05
17.34
9.94
3.65
-2.77
-11.63
-25.20
-44.97
-70.71
-100.20
-129.81
-155.71
-175.21
-187.62
-194.15
-197.04
-198.33
-198.94
-198.77
-197.36
-194.82
-192.14
-190.68
-191.10
-192.44
-192.10
-186.62
-173.11
-150.44
-119.80
-84.00
-46.29
-9.01
26.99
61.71
95.04
125.69
150.81
167.30
173.34
169.68
159.78
148.42
139.74
135.58
135.28
136.61
137.31
136.17
133.19
128.98
124.02
118.31
111.61
103.66
94.49
84.43
73.99
63.93
55.12
48.35
43.82
40.84
37.93
33.54
26.93
18.54
9.68
1.51
-5.76
-12.85
-20.73
-29.37
-37.23
-41.52
-39.46
-29.52
-12.26
9.91
33.32
53.92
68.00
72.93
67.88
54.41
36.48
19.50
8.55
6.67
13.82
27.21
42.55
55.62
63.33
64.21
58.30
46.82
31.96
16.42
2.89
-6.70
-11.69
-12.80
-11.50
-9.23
-6.82
-4.42
-1.91
0.61
2.57
3.31
2.60
0.99
-0.23
0.46
4.16
10.97
19.82
28.56
34.48
35.09
28.88
15.98
-1.67
-20.79
-37.85
-50.01
-55.57
-53.86
-45.03
-30.17
-11.57
7.01
20.90
25.50
17.59
-4.12
-39.21
-85.86
-140.90
-199.10
-252.73
-292.34
-309.38
-299.84
-266.61
-218.95
-168.79
-125.90
-94.26
-71.83
-53.25
-33.59
-11.12
12.36
33.05
47.51
54.23
53.83
48.37
40.26
31.37
22.67
14.54
7.43
2.52
1.99
8.45
23.67
47.21
75.96
105.08
129.97
148.27
160.71
170.18
179.75
190.57
201.10
207.88
207.33
197.53
178.91
153.86
125.76
97.77
72.27
50.61
33.20
19.70
9.02
-0.62
-11.67
-26.81
-48.13
-76.07
-108.49
-140.62
-166.21
-179.64
-177.97
-162.05
-135.97
-105.20
-74.40
-46.20
-21.24
0.60
19.02
32.96
41.17
43.31
40.61
35.64
31.17
29.13
29.91
32.60
35.61
37.50
37.49
35.68
32.82
29.89
27.72
26.60
26.19
25.64
24.05
21.01
16.97
13.09
10.70
10.56
12.43
15.31
18.00
19.81
20.92
22.27
24.81
28.83
33.53
37.27
38.69
37.05
32.66
26.72
20.83
16.35
13.85
12.93
12.40
11.56
9.88
7.23
4.02
1.31
0.56
3.11
9.45
18.41
28.36
36.29
38.93
34.44
23.98
12.11
5.69
11.73
35.26
79.96
145.95
229.76
324.51
420.74
508.08
578.01
626.62
643.79
627.11
579.24
505.72
412.45
304.37
186.23
64.17
-53.69
-158.96
-243.79
-304.90
-343.99
-365.90
-376.08
-378.62
-375.73
-368.33
-357.30
-342.60
-324.72
-304.51
-282.78
-259.99
-236.38
-212.53
-189.97
-171.12
-157.51
-149.44
-145.15
-141.13
-133.48
-119.84
-100.63
-79.10
-59.90
-46.61
-40.66
-41.00
-44.97
-49.66
-53.02
-54.19
-53.32
-50.91
-47.27
-42.54
-36.83
-30.52
-24.28
-18.97
-15.22
-13.18
-12.35
-11.88
-10.85
-8.77
-5.73
-2.34
0.61
2.51
3.20
3.04
2.66
2.75
3.69
5.47
7.72
9.91
11.64
12.75
13.36
13.80
14.45
15.55
17.12
18.95
20.69
21.97
22.49
22.09
20.82
18.83
16.37
13.62
10.67
7.42
3.77
-0.38
-5.00
-9.84
-14.44
-18.27
-20.90
-22.20
-22.37
-21.88
-21.34
-21.13
-21.30
-21.55
-21.37
-20.31
-18.37
-15.78
-13.13
-11.05
-9.81
-9.49
-9.92
-10.88
-11.88
-12.00
-9.91
-4.46
4.56
15.99
27.48
36.40
41.07
41.52
39.43
37.19
36.77
38.61
42.07
46.11
49.99
53.65
57.56
62.23
67.86
74.38
81.12
87.67
93.73
99.37
104.72
109.89
114.91
119.67
124.06
127.45
129.64
130.76
131.20
131.22
130.56
128.23
122.24
114.22
104.21
92.42
79.33
65.53
51.52
37.50
23.34
8.68
-6.89
-24.28
-44.23
-66.65
-90.26
-112.79
-131.62
-144.69
-151.02
-150.87
-146.01
-138.83
-131.21
-124.04
-117.21
-110.27
-102.98
-95.47
-88.09
-81.41
-76.42
-73.35
-71.47
-69.37
-65.99
-60.94
-54.38
-46.61
-37.99
-30.97
-27.14
-26.01
-25.29
-22.69
-17.02
-8.15
3.22
15.57
22.21
17.95
2.60
-19.29
-41.93
-60.84
-73.13
-77.69
-74.93
-74.19
-83.18
-102.93
-128.09
-152.49
-172.70
-187.61
-198.25
-206.83
-226.26
-266.73
-329.74
-409.08
-497.58
-590.50
-683.08
-769.33
-778.88
-672.92
-469.30
-228.68
-6.99
167.42
287.81
359.03
389.72
390.83
364.39
315.57
256.75
204.27
169.76
151.94
149.63
158.77
175.57
189.88
194.72
190.02
181.06
173.28
169.47
171.34
178.83
191.41
202.88
207.57
204.36
195.35
183.71
172.06
162.99
157.99
157.53
157.86
154.44
144.36
127.31
105.17
81.00
58.77
41.62
31.37
26.88
25.75
25.43
23.58
18.06
6.94
-10.63
-33.77
-59.23
-82.54
-98.95
-104.97
-99.85
-85.66
-66.29
-45.54
-25.77
-7.58
8.15
21.07
31.87
42.11
53.54
67.36
84.01
103.01
122.99
139.04
146.83
145.25
136.27
122.95
107.55
91.44
75.51
60.51
42.67
19.47
-7.11
-31.97
-50.55
-62.17
-69.92
-78.81
-93.80
-124.32
-176.47
-249.07
-335.98
-429.91
-525.25
-617.42
-701.69
-735.80
-695.66
-594.41
-473.86
-371.70
-300.23
-251.56
-210.62
-165.81
-113.98
-65.70
-36.30
-26.24
-28.73
-34.06
-35.42
-30.72
-21.37
-10.13
-3.62
-5.30
-11.45
-17.95
-19.61
-14.55
-4.17
8.54
20.77
28.10
28.40
23.71
17.92
15.04
16.59
21.72
28.41
34.76
38.34
38.11
35.36
32.13
30.55
31.35
33.92
37.00
39.44
40.30
39.51
38.16
37.61
39.08
42.77
47.86
53.01
57.00
59.33
60.52
61.93
65.03
70.91
79.48
89.44
98.71
105.43
108.88
109.98
111.10
115.05
123.79
137.42
153.97
170.24
183.24
191.62
196.39
200.53
208.00
222.35
245.59
277.38
314.58
351.25
379.25
389.87
376.44
337.16
276.89
206.21
137.86
81.67
40.47
9.31
-21.51
-60.87
-111.77
-169.42
-223.30
-262.15
-278.78
-272.60
-248.56
-213.82
-174.09
-131.74
-86.35
-36.79
16.72
71.97
125.73
175.63
221.45
265.07
309.10
354.85
401.27
445.20
482.70
510.56
527.27
532.60
526.73
509.69
481.57
443.69
399.55
354.75
315.65
287.01
270.00
261.59
255.86
246.36
228.59
201.30
166.25
126.66
85.54
44.57
3.96
-36.93
-78.67
-121.22
-163.86
-205.65
-246.03
-285.09
-323.60
-362.52
-402.55
-443.99
-486.96
-532.06
-580.44
-633.05
-688.98
-744.22
-791.51
-822.23
-829.48
-810.80
-769.29
-712.24
-648.24
-584.34
-524.48
-469.83
-419.96
-374.22
-331.96
-292.30
-253.69
-214.08
-171.65
-125.71
-77.23
-28.56
17.26
57.90
92.77
123.45
153.12
185.24
222.17
263.93
308.31
351.91
391.83
427.16
459.82
494.16
535.19
586.03
645.33
706.25
757.71
787.88
788.67
758.95
705.21
638.54
570.31
507.96
453.43
404.45
357.24
308.98
258.45
205.68
151.58
98.83
52.93
22.16
14.99
35.80
81.39
140.36
196.69
235.74
249.67
239.31
212.02
177.02
141.23
107.50
75.63
44.58
14.10
-15.14
-42.48
-68.20
-93.54
-120.20
-149.30
-180.88
-214.12
-247.66
-280.47
-312.08
-342.66
-372.85
-403.29
-434.41
-466.31
-498.79
-531.68
-565.36
-601.13
-640.89
-685.82
-734.65
-782.48
-821.18
-841.69
-837.36
-806.58
-753.37
-685.47
-611.14
-536.46
-464.41
-395.82
-331.11
-271.45
-218.36
-172.49
-132.45
-94.90
-55.96
-13.19
33.15
80.25
124.06
161.68
192.80
219.91
247.29
278.81
316.42
359.92
407.60
457.18
506.02
550.58
586.55
610.27
621.24
623.83
626.35
637.16
659.68
689.39
715.28
724.95
710.86
673.68
621.19
563.55
508.17
457.29
409.07
360.78
311.49
262.59
216.27
173.86
134.69
96.52
57.09
15.34
-28.20
-71.79
-113.65
-152.87
-189.79
-225.69
-262.01
-299.63
-338.42
-377.49
-415.65
-452.15
-487.24
-522.52
-560.73
-604.66
-655.35
-710.42
-763.41
-805.08
-826.35
-821.71
-791.41
-741.25
-680.01
-616.01
-554.48
-497.07
-443.14
-391.86
-343.44
-298.99
-259.32
-223.92
-190.67
-156.88
-120.54
-81.41
-41.11
-2.38
32.36
62.19
88.22
113.09
139.93
171.16
207.28
246.65
286.37
323.56
356.73
386.21
413.97
442.88
476.14
516.26
564.22
618.50
674.48
724.68
760.15
773.12
759.75
722.12
666.87
602.30
535.19
468.98
403.92
338.73
272.64
206.47
143.62
86.80
36.17
-10.80
-57.75
-107.84
-163.17
-224.74
-292.11
-360.16
-422.30
-471.81
-502.86
-511.30
-495.85
-459.30
-408.10
-350.09
-287.03
-219.54
-148.83
-77.72
-9.56
53.45
110.63
163.00
212.49
266.46
327.91
392.59
450.96
494.21
518.94
527.60
525.99
482.27
383.42
240.88
84.59
-57.93
-173.29
-259.67
-321.09
-363.55
-393.11
-408.68
-409.34
-397.35
-378.14
-357.81
-339.64
-325.34
-315.53
-310.25
-304.57
-294.53
-279.66
-262.64
-246.72
-233.69
-223.95
-216.91
-211.18
-204.92
-196.02
-184.36
-171.78
-160.47
-151.81
-146.44
-144.56
-146.14
-149.59
-153.21
-156.32
-159.16
-162.15
-165.33
-168.49
-171.31
-173.48
-174.15
-172.26
-167.21
-158.80
-147.06
-132.18
-114.52
-94.63
-73.19
-50.80
-27.61
-3.57
21.41
47.30
73.67
99.63
123.97
145.52
163.45
177.75
189.08
198.52
207.16
215.67
224.12
232.23
239.68
246.50
253.31
261.15
271.27
284.95
303.53
328.22
359.45
395.85
433.61
466.76
488.77
494.76
483.30
456.69
419.68
377.40
333.73
290.86
250.01
212.35
179.22
151.62
129.30
110.50
92.57
73.31
52.22
30.91
12.50
0.44
-2.70
3.87
18.97
39.70
62.21
82.50
97.29
104.73
104.67
98.41
88.02
75.51
61.85
46.49
27.66
3.36
-27.39
-63.55
-101.89
-137.82
-166.67
-185.09
-191.92
-188.24
-176.88
-161.48
-145.57
-131.98
-122.44
-117.56
-116.94
-119.49
-123.81
-128.52
-132.58
-135.50
-137.30
-138.36
-139.24
-140.29
-141.43
-142.05
-141.15
-137.65
-130.82
-120.49
-107.20
-92.04
-76.35
-61.51
-48.65
-38.53
-31.48
-27.37
-25.71
-25.80
-26.89
-28.41
-29.98
-31.43
-32.62
-33.41
-33.55
-32.83
-31.14
-28.60
-25.51
-22.24
-19.10
-16.30
-13.92
-12.01
-10.55
-9.49
-8.70
-8.00
-7.19
-6.17
-4.97
-3.73
-2.65
-1.87
-1.43
-1.28
-1.42
-1.88
-2.79
-4.30
-6.42
-8.99
-11.67
-14.03
-15.70
-16.50
-16.51
-15.95
-15.06
-14.00
-12.72
-11.08
-8.93
-6.28
-3.33
-0.38
2.28
4.58
6.68
8.86
11.35
14.14
16.91
19.19
20.54
20.72
19.77
17.98
15.68
13.22
10.88
8.83
7.19
6.01
5.28
4.91
4.79
4.77
4.72
4.50
4.03
3.20
1.99
0.38
-1.55
-3.63
-5.66
-7.39
-8.55
-8.93
-8.39
-6.95
-4.82
-2.36
0.01
1.87
2.97
3.23
2.80
1.98
1.07
0.33
-0.11
-0.26
-0.19
-0.02
0.12
0.17
0.06
-0.23
-0.71
-1.36
-2.12
-2.94
-3.71
-4.37
-4.87
-5.20
-5.37
-5.42
-5.41
-5.46
-5.68
-6.21
-7.14
-8.45
-10.04
-11.64
-12.87
-13.40
-13.00
-11.63
-9.51
-6.99
-4.49
-2.32
-0.64
0.61
1.59
2.44
3.24
3.96
4.48
4.74
4.70
4.41
3.93
3.35
2.77
2.31
2.11
2.25
2.69
3.30
3.83
4.02
3.70
2.89
1.76
0.54
-0.54
-1.37
-1.94
-2.37
-2.79
-3.36
-4.16
-5.16
-6.22
-7.06
-7.37
-6.85
-5.40
-3.03
0.01
3.36
6.65
9.57
11.97
13.82
15.17
16.07
16.60
16.77
16.62
16.17
15.47
14.55
13.43
12.04
10.29
8.10
5.48
2.60
-0.27
-2.79
-4.70
-5.87
-6.33
-6.26
-5.86
-5.40
-5.08
-5.10
-5.61
-6.73
-8.46
-10.70
-13.21
-15.63
-17.55
-18.60
-18.48
-17.13
-14.73
-11.66
-8.44
-5.53
-3.18
-1.43
-0.13
0.92
1.84
2.61
3.12
3.26
3.00
2.42
1.70
1.03
0.55
0.26
0.12
0.01
-0.19
-0.55
-1.13
-1.96
-3.06
-4.43
-6.07
-7.87
-9.65
-11.18
-12.25
-12.77
-12.85
-12.75
-12.79
-13.19
-13.91
-14.65
-14.93
-14.30
-12.53
-9.71
-6.18
-2.38
1.25
4.43
6.95
8.77
9.94
10.59
10.93
11.17
11.44
11.78
12.15
12.41
12.48
12.32
11.97
11.47
10.88
10.20
9.47
8.67
7.82
6.91
5.90
4.79
3.58
2.30
0.97
-0.42
-1.95
-3.71
-5.77
-8.05
-10.39
-12.50
-14.12
-15.08
-15.35
-14.96
-13.96
-12.44
-10.53
-8.39
-6.21
-4.17
-2.37
-0.86
0.36
1.31
1.93
2.18
2.04
1.56
0.84
0.08
-0.55
-0.89
-0.92
-0.68
-0.37
-0.20
-0.35
-0.85
-1.58
-2.32
-2.87
-3.17
-3.35
-3.61
-4.16
-5.13
-6.47
-8.00
-9.41
-10.39
-10.65
-10.03
-8.56
-6.48
-4.16
-2.04
-0.41
0.68
1.36
1.93
2.61
3.48
4.44
5.24
5.67
5.65
5.25
4.65
4.04
3.53
3.13
2.76
2.32
1.68
0.82
-0.26
-1.50
-2.81
-4.16
-5.58
-7.12
-8.80
-10.58
-12.34
-13.87
-14.95
-15.38
-15.03
-13.86
-11.98
-9.61
-7.03
-4.55
-2.34
-0.44
1.25
2.81
4.29
5.61
6.65
7.32
7.64
7.70
7.63
7.49
7.27
6.94
6.47
5.88
5.20
4.49
3.80
3.16
2.57
2.00
1.43
0.77
-0.04
-1.09
-2.41
-3.99
-5.70
-7.31
-8.57
-9.24
-9.18
-8.41
-7.11
-5.53
-3.93
-2.48
-1.19
0.03
1.30
2.64
3.94
5.02
5.67
5.82
5.54
5.04
4.52
4.13
3.88
3.69
3.44
3.07
2.56
1.95
1.31
0.67
-0.03
-0.85
-1.91
-3.27
-4.92
-6.77
-8.64
-10.29
-11.47
-11.97
-11.63
-10.47
-8.61
-6.33
-3.96
-1.80
0.03
1.60
3.06
4.57
6.16
7.70
8.96
9.74
9.90
9.51
8.74
7.83
6.98
6.32
5.85
5.51
5.24
5.00
4.79
4.59
4.37
4.01
3.36
2.28
0.76
-1.06
-2.92
-4.53
-5.67
-6.25
-6.30
-5.90
-5.13
-4.03
-2.64
-1.00
0.80
2.64
4.38
5.93
7.24
8.31
9.16
9.77
10.15
10.26
10.13
9.76
9.23
8.64
8.07
7.62
7.34
7.19
7.08
6.85
6.37
5.60
4.60
3.50
2.44
1.49
0.66
-0.13
-0.98
-1.96
-3.12
-4.41
-5.76
-6.98
-7.84
-8.10
-7.58
-6.24
-4.24
-1.90
0.43
2.44
4.00
5.16
6.09
6.96
7.90
8.89
9.82
10.56
11.00
11.09
10.92
10.56
10.19
9.92
9.83
9.94
10.16
10.38
10.47
10.35
9.93
9.18
8.10
6.75
5.29
3.96
2.96
2.33
2.00
1.74
1.31
0.59
-0.46
-1.81
-3.44
-5.28
-7.18
-8.86
-9.95
-10.16
-9.43
-8.00
-6.27
-4.66
-3.39
-2.45
-1.67
-0.85
0.07
1.00
1.79
2.27
2.37
2.17
1.85
1.60
1.58
1.80
2.16
2.53
2.77
2.85
2.82
2.75
2.67
2.48
2.04
1.20
-0.04
-1.57
-3.12
-4.46
-5.46
-6.18
-6.83
-7.68
-8.87
-10.37
-11.99
-13.40
-14.28
-14.41
-13.70
-12.23
-10.25
-8.06
-6.02
-4.32
-3.05
-2.12
-1.39
-0.74
-0.13
0.39
0.74
0.88
0.82
0.61
0.26
-0.16
-0.64
-1.12
-1.49
-1.69
-1.70
-1.61
-1.53
-1.56
-1.70
-1.85
-1.92
-1.88
-1.80
-1.82
-2.03
-2.39
-2.78
-3.07
-3.23
-3.43
-3.89
-4.76
-5.94
-7.13
-7.92
-7.96
-7.20
-5.84
-4.22
-2.66
-1.33
-0.21
0.81
1.85
2.90
3.91
4.76
5.39
5.82
6.15
6.49
6.86
7.21
7.44
7.46
7.30
7.06
6.88
6.84
6.87
6.78
6.37
5.55
4.40
3.15
2.07
1.34
1.00
0.92
0.89
0.67
0.15
-0.70
-1.83
-3.10
-4.39
-5.55
-6.44
-6.91
-6.89
-6.36
-5.38
-4.10
-2.68
-1.26
0.08
1.35
2.56
3.73
4.81
5.74
6.45
6.88
7.05
7.05
6.95
6.87
6.84
6.88
6.95
6.98
6.89
6.59
6.04
5.27
4.34
3.37
2.45
1.67
1.04
0.54
0.12
-0.26
-0.67
-1.16
-1.80
-2.64
-3.69
-4.92
-6.24
-7.51
-8.64
-9.51
-10.02
-10.10
-9.72
-8.88
-7.63
-6.07
-4.32
-2.52
-0.82
0.71
2.03
3.17
4.19
5.12
5.91
6.49
6.79
6.85
6.80
6.79
6.92
7.17
7.42
7.52
7.40
7.10
6.71
6.29
5.84
5.27
4.51
3.55
2.49
1.51
0.75
0.29
0.04
-0.13
-0.45
-1.07
-2.09
-3.50
-5.21
-7.09
-9.01
-10.84
-12.44
-13.65
-14.31
-14.29
-13.59
-12.39
-10.96
-9.61
-8.52
-7.72
-7.07
-6.41
-5.64
-4.78
-3.97
-3.31
-2.86
-2.55
-2.28
-1.97
-1.60
-1.26
-1.05
-1.06
-1.24
-1.47
-1.56
-1.41
-1.01
-0.50
-0.09
0.06
-0.12
-0.53
-1.01
-1.42
-1.68
-1.83
-2.01
-2.37
-3.03
-4.04
-5.34
-6.69
-7.79
-8.32
-8.09
-7.13
-5.63
-3.92
-2.29
-0.90
0.22
1.14
1.96
2.76
3.53
4.18
4.62
4.77
4.66
4.45
4.33
4.49
4.94
5.54
6.03
6.20
6.02
5.61
5.20
4.91
4.72
4.48
4.04
3.31
2.40
1.47
0.74
0.28
-0.01
-0.36
-1.00
-2.09
-3.59
-5.27
-6.78
-7.72
-7.87
-7.15
-5.71
-3.80
-1.70
0.39
2.36
4.18
5.86
7.41
8.84
10.15
11.31
12.26
12.88
13.07
12.73
11.91
10.75
9.49
8.37
7.56
7.10
6.94
6.98
7.10
7.18
7.12
6.79
6.10
5.05
3.76
2.48
1.54
1.14
1.29
1.74
2.04
1.78
0.72
-1.10
-3.38
-5.71
-7.71
-9.15
-9.92
-10.05
-9.55
-8.53
-7.12
-5.54
-4.03
-2.82
-1.98
-1.48
-1.19
-0.95
-0.70
-0.46
-0.32
-0.39
-0.74
-1.33
-2.03
-2.66
-3.04
-3.08
-2.80
-2.32
-1.80
-1.34
-1.02
-0.82
-0.70
-0.56
-0.33
0.02
0.48
0.97
1.37
1.60
1.66
1.63
1.59
1.59
1.60
1.52
1.28
0.83
0.21
-0.58
-1.49
-2.50
-3.52
-4.39
-4.92
-4.91
-4.32
-3.23
-1.84
-0.43
0.84
1.88
2.77
3.61
4.48
5.39
6.29
7.03
7.49
7.55
7.17
6.40
5.40
4.38
3.53
2.99
2.80
2.86
3.04
3.21
3.30
3.26
3.09
2.73
2.14
1.32
0.35
-0.58
-1.26
-1.56
-1.54
-1.41
-1.45
-1.87
-2.69
-3.76
-4.85
-5.85
-6.74
-7.65
-8.71
-9.91
-11.07
-11.86
-11.98
-11.31
-9.94
-8.13
-6.18
-4.32
-2.63
-1.08
0.38
1.78
3.05
4.07
4.72
4.92
4.71
4.23
3.67
3.21
2.91
2.77
2.68
2.54
2.33
2.05
1.75
1.48
1.25
1.01
0.72
0.33
-0.15
-0.70
-1.27
-1.86
-2.48
-3.14
-3.84
-4.53
-5.16
-5.74
-6.31
-6.96
-7.79
-8.81
-9.94
-10.99
-11.75
-12.06
-11.84
-11.12
-9.98
-8.56
-6.96
-5.32
-3.75
-2.29
-0.93
0.37
1.66
2.93
4.07
4.95
5.41
5.42
5.04
4.47
3.96
3.70
3.75
4.04
4.37
4.53
4.40
3.95
3.30
2.57
1.91
1.37
0.90
0.44
-0.08
-0.67
-1.28
-1.81
-2.17
-2.39
-2.52
-2.71
-3.06
-3.60
-4.29
-5.04
-5.79
-6.54
-7.28
-7.98
-8.50
-8.64
-8.24
-7.26
-5.87
-4.36
-3.02
-2.00
-1.27
-0.62
0.18
1.27
2.58
3.93
5.08
5.86
6.25
6.34
6.30
6.29
6.39
6.61
6.96
7.38
7.79
8.09
8.14
7.84
7.18
6.29
5.36
4.56
3.96
3.53
3.16
2.74
2.25
1.70
1.17
0.70
0.34
0.10
-0.02
-0.07
-0.16
-0.42
-1.01
-2.03
-3.47
-5.21
-7.00
-8.55
-9.57
-9.91
-9.55
-8.63
-7.40
-6.13
-5.00
-4.10
-3.39
-2.80
-2.25
-1.69
-1.15
-0.67
-0.30
-0.09
-0.04
-0.06
-0.03
0.26
0.96
2.12
3.58
5.09
6.35
7.11
7.30
7.03
6.44
5.73
5.03
4.46
4.06
3.89
3.95
4.20
4.52
4.75
4.79
4.53
3.95
3.06
1.93
0.64
-0.73
-2.08
-3.35
-4.49
-5.48
-6.36
-7.15
-7.80
-8.20
-8.18
-7.60
-6.43
-4.82
-3.09
-1.59
-0.55
0.02
0.29
0.51
0.84
1.29
1.74
2.09
2.27
2.32
2.28
2.19
2.01
1.71
1.26
0.68
0.08
-0.42
-0.72
-0.76
-0.60
-0.35
-0.18
-0.25
-0.66
-1.36
-2.25
-3.16
-3.93
-4.46
-4.74
-4.85
-4.92
-5.08
-5.45
-6.04
-6.84
-7.73
-8.60
-9.29
-9.66
-9.58
-8.95
-7.76
-6.12
-4.26
-2.50
-1.08
-0.12
0.45
0.83
1.24
1.83
2.62
3.49
4.26
4.80
5.04
5.06
4.98
4.95
5.07
5.38
5.81
6.23
6.50
6.54
6.29
5.78
5.12
4.42
3.80
3.32
2.98
2.70
2.38
1.88
1.16
0.19
-0.96
-2.19
-3.37
-4.41
-5.24
-5.87
-6.37
-6.84
-7.44
-8.25
-9.27
-10.32
-11.14
-11.41
-10.97
-9.83
-8.20
-6.42
-4.79
-3.47
-2.42
-1.50
-0.55
0.51
1.66
2.80
3.76
4.43
4.72
4.68
4.43
4.14
3.97
4.00
4.20
4.48
4.73
4.89
4.98
5.07
5.23
5.45
5.67
5.76
5.61
5.15
4.40
3.45
2.48
1.62
0.97
0.53
0.22
-0.06
-0.40
-0.84
-1.37
-1.99
-2.73
-3.55
-4.38
-5.01
-5.17
-4.67
-3.43
-1.62
0.45
2.40
3.95
5.00
5.62
6.00
6.34
6.78
7.31
7.91
8.48
8.96
9.30
9.49
9.56
9.54
9.45
9.29
9.05
8.72
8.29
7.76
7.16
6.51
5.82
5.07
4.27
3.43
2.59
1.82
1.16
0.60
0.04
-0.60
-1.44
-2.45
-3.53
-4.54
-5.34
-5.89
-6.27
-6.64
-7.17
-7.99
-9.01
-10.01
-10.70
-10.81
-10.21
-9.03
-7.55
-6.06
-4.78
-3.74
-2.87
-2.05
-1.24
-0.50
0.05
0.35
0.42
0.36
0.32
0.37
0.51
0.67
0.82
0.91
0.99
1.10
1.29
1.56
1.87
2.17
2.38
2.42
2.25
1.89
1.38
0.77
0.11
-0.54
-1.12
-1.55
-1.79
-1.88
-1.96
-2.27
-3.00
-4.28
-6.03
-8.06
-10.05
-11.69
-12.73
-13.03
-12.63
-11.62
-10.20
-8.55
-6.80
-5.08
-3.42
-1.86
-0.42
0.90
2.14
3.30
4.40
5.39
6.18
6.70
6.95
7.02
7.08
7.26
7.56
7.92
8.19
8.22
7.92
7.25
6.23
4.95
3.55
2.18
0.99
0.08
-0.58
-1.08
-1.55
-2.05
-2.55
-2.98
-3.28
-3.49
-3.76
-4.25
-5.06
-6.21
-7.57
-8.95
-10.20
-11.16
-11.77
-11.96
-11.68
-10.92
-9.69
-8.09
-6.25
-4.34
-2.48
-0.73
0.90
2.43
3.86
5.12
6.12
6.72
6.87
6.60
6.04
5.38
4.79
4.35
4.08
3.94
3.88
3.90
4.01
4.20
4.44
4.66
4.79
4.82
4.76
4.73
4.79
4.98
5.20
5.28
5.02
4.32
3.18
1.72
0.16
-1.30
-2.55
-3.57
-4.47
-5.39
-6.40
-7.44
-8.31
-8.70
-8.34
-7.12
-5.16
-2.80
-0.47
1.46
2.81
3.60
4.00
4.24
4.53
5.02
5.78
6.80
7.99
9.19
10.21
10.96
11.42
11.70
11.90
12.08
12.20
12.09
11.53
10.40
8.64
6.39
3.89
1.48
-0.52
-1.83
-2.31
-1.99
-1.06
0.18
1.40
2.37
2.90
2.94
2.50
1.66
0.56
-0.67
-1.87
-2.96
-3.90
-4.75
-5.59
-6.48
-7.35
-8.09
-8.48
-8.41
-7.82
-6.81
-5.59
-4.38
-3.38
-2.67
-2.21
-1.84
-1.41
-0.76
0.17
1.37
2.71
4.02
5.13
5.85
6.05
5.68
4.77
3.47
1.98
0.54
-0.67
-1.54
-2.09
-2.38
-2.54
-2.63
-2.68
-2.64
-2.50
-2.26
-2.02
-1.88
-1.99
-2.43
-3.24
-4.42
-5.93
-7.69
-9.54
-11.29
-12.70
-13.58
-13.82
-13.41
-12.50
-11.26
-9.90
-8.50
-7.11
-5.69
-4.20
-2.61
-0.98
0.57
1.89
2.86
3.41
3.54
3.35
3.00
2.67
2.51
2.63
3.00
3.54
4.14
4.66
5.02
5.20
5.16
4.92
4.49
3.91
3.18
2.38
1.58
0.84
0.19
-0.42
-1.09
-1.99
-3.22
-4.79
-6.52
-8.10
-9.18
-9.49
-9.00
-7.85
-6.32
-4.71
-3.23
-1.97
-0.91
-0.01
0.84
1.70
2.65
3.68
4.73
5.67
6.35
6.68
6.67
6.41
6.10
5.85
5.75
5.77
5.80
5.71
5.38
4.72
3.71
2.36
0.76
-0.93
-2.54
-3.90
-4.91
-5.58
-5.98
-6.21
-6.36
-6.47
-6.58
-6.73
-6.94
-7.22
-7.48
-7.61
-7.49
-7.02
-6.21
-5.14
-3.92
-2.66
-1.43
-0.22
0.96
2.17
3.41
4.66
5.86
6.96
7.95
8.81
9.57
10.26
10.89
11.43
11.87
12.20
12.46
12.67
12.82
12.88
12.83
12.67
12.47
12.38
12.56
13.04
13.72
14.36
14.69
14.62
14.25
13.88
13.88
14.42
15.30
16.05
16.03
14.78
12.26
8.94
5.62
3.20
2.31
3.13
5.37
8.47
11.80
14.96
17.87
20.72
23.93
28.09
33.89
41.75
51.45
61.68
69.89
72.83
67.60
52.89
29.82
1.81
-26.40
-50.24
-66.61
-74.38
-74.12
-67.31
-55.72
-41.17
-25.61
-11.22
-0.21
5.72
5.95
1.29
-6.27
-14.27
-20.65
-24.33
-25.32
-24.39
-22.54
-20.59
-18.95
-17.67
-16.58
-15.33
-13.62
-11.12
-7.64
-3.14
2.22
8.16
14.33
20.46
26.27
31.53
35.98
39.34
41.54
42.74
43.41
44.20
45.64
47.86
50.53
52.97
54.52
54.86
54.13
52.77
51.15
49.31
46.89
43.44
38.76
33.21
27.59
22.93
20.05
19.37
20.93
24.59
30.19
37.58
46.41
55.89
64.77
71.53
74.92
74.46
70.77
65.47
60.68
58.25
59.22
63.58
70.42
78.44
86.37
93.20
98.12
100.22
98.42
91.52
78.58
59.24
33.75
2.73
-33.41
-74.55
-120.40
-169.53
-218.42
-261.50
-292.39
-306.23
-301.76
-282.11
-253.66
-223.31
-195.78
-172.01
-149.77
-125.79
-98.28
-68.30
-39.35
-15.66
-0.13
6.78
6.86
2.87
-2.91
-9.51
-17.15
-26.43
-37.37
-48.92
-59.10
-65.68
-67.04
-62.60
-52.97
-39.61
-24.34
-8.84
5.77
19.12
31.60
44.28
58.61
76.03
97.55
123.21
151.62
179.95
204.12
219.68
222.87
211.77
187.10
152.21
112.28
72.71
37.53
8.20
-16.46
-39.18
-62.65
-88.04
-114.51
-139.80
-161.55
-178.58
-191.44
-201.84
-211.60
-221.44
-230.62
-237.27
-239.33
-235.39
-225.10
-208.95
-187.70
-161.80
-131.11
-95.10
-53.49
-7.04
42.07
90.40
134.01
169.61
195.41
211.56
219.89
223.18
224.15
224.82
226.15
228.20
230.48
232.29
232.89
231.57
227.66
220.75
211.18
200.47
191.31
186.85
189.53
199.63
214.71
230.20
240.95
243.18
235.73
220.04
199.14
176.13
153.12
130.98
109.71
89.20
69.56
51.08
33.93
17.81
1.97
-14.63
-32.78
-52.66
-73.63
-94.53
-114.12
-131.76
-147.70
-163.07
-179.13
-196.40
-214.19
-230.91
-245.02
-256.02
-264.58
-271.90
-278.43
-283.12
-283.77
-278.26
-265.88
-247.74
-225.88
-201.77
-175.36
-145.45
-111.33
-74.59
-39.69
-12.58
2.13
3.83
-2.78
-9.20
-7.04
7.88
33.00
59.92
78.01
78.86
58.90
19.99
-32.24
-90.51
-147.09
-194.05
-223.67
-230.22
-212.75
-177.96
-138.47
-108.17
-95.99
-101.47
-114.65
-120.26
-104.52
-61.31
3.39
75.71
139.59
182.97
201.14
196.66
176.85
150.18
122.56
91.75
52.19
-1.17
-68.93
-146.21
-223.95
-291.53
-339.64
-363.19
-368.16
-363.39
-356.78
-352.24
-350.98
-354.23
-363.70
-379.93
-400.16
-425.08
-451.08
-472.03
-481.38
-477.56
-465.69
-454.38
-450.26
-407.36
-296.59
-117.63
94.81
296.58
458.96
575.18
652.90
704.80
741.75
762.34
762.89
739.89
696.10
639.08
578.18
521.28
472.89
433.75
395.62
349.57
285.55
205.47
115.03
22.06
-66.36
-145.75
-214.56
-277.34
-317.09
-324.20
-298.89
-252.86
-200.74
-152.51
-111.55
-76.82
-47.64
-23.16
-6.07
2.30
2.34
-3.36
-11.76
-20.83
-29.61
-37.58
-42.64
-43.31
-36.53
-19.73
7.30
40.91
74.49
101.30
117.67
124.13
122.57
115.88
106.21
94.83
82.38
69.68
58.08
49.26
44.22
41.70
39.40
34.98
27.09
16.08
3.62
-8.08
-17.16
-22.92
-26.35
-29.34
-33.80
-40.76
-49.71
-58.92
-65.93
-68.60
-65.69
-57.28
-44.61
-28.84
-11.00
8.35
29.23
52.13
77.89
107.30
139.39
172.12
200.86
219.09
220.60
202.11
165.21
116.07
63.40
15.73
-20.20
-41.75
-48.49
-42.02
-25.86
-5.02
14.63
27.87
31.69
26.38
14.86
1.39
-10.45
-18.71
-22.83
-23.21
-20.46
-15.39
-9.06
-2.99
1.54
4.00
4.75
5.28
7.34
12.30
20.43
30.77
41.50
50.81
57.78
62.72
66.96
72.19
79.65
89.37
100.14
110.14
117.69
122.06
123.78
124.24
125.38
129.35
138.15
153.06
173.80
197.68
219.63
233.34
233.47
218.22
190.52
156.98
125.25
100.99
85.97
78.27
75.38
74.33
72.98
70.24
65.57
58.35
47.88
33.91
17.13
-0.82
-18.28
-33.91
-47.46
-59.78
-72.27
-86.12
-101.63
-118.12
-134.38
-149.59
-163.67
-177.40
-191.83
-207.66
-224.58
-241.23
-255.85
-267.05
-274.70
-279.85
-284.28
-289.72
-297.57
-308.84
-324.14
-343.28
-364.47
-383.70
-394.90
-391.53
-368.77
-325.51
-264.74
-192.17
-113.85
-34.27
43.77
117.89
184.46
238.26
274.03
289.26
286.44
272.95
258.40
250.43
251.23
256.88
259.51
251.60
229.51
194.97
153.42
110.79
70.53
32.36
-7.05
-52.10
-105.89
-168.49
-236.17
-302.02
-357.69
-395.85
-412.65
-409.10
-390.61
-364.80
-338.53
-315.91
-297.82
-283.22
-270.95
-260.79
-253.31
-248.72
-245.94
-242.43
-235.26
-222.35
-203.29
-179.38
-153.00
-126.45
-101.14
-77.30
-54.11
-30.45
-5.47
20.96
48.28
75.66
102.76
130.16
159.22
191.07
225.43
259.98
290.80
313.92
327.01
330.31
326.19
317.69
306.88
294.01
277.93
257.23
231.41
201.27
168.59
135.56
104.21
76.37
53.67
37.53
28.72
26.93
30.77
37.86
45.52
51.45
54.32
53.85
50.74
46.12
41.09
36.33
31.98
27.76
23.39
18.81
14.39
10.80
8.66
8.29
9.44
11.34
13.02
13.59
12.66
10.30
6.93
2.97
-1.44
-6.54
-12.83
-20.69
-30.17
-40.80
-51.70
-61.83
-70.25
-76.33
-79.75
-80.46
-78.63
-74.60
-68.89
-62.16
-55.11
-48.34
-42.19
-36.61
-31.27
-25.81
-20.09
-14.35
-9.17
-5.13
-2.44
-0.72
0.87
3.19
6.61
10.72
14.58
17.43
19.50
22.17
27.67
37.91
53.50
73.22
94.33
113.58
128.33
137.22
140.26
138.24
132.24
123.16
111.80
98.90
85.35
72.06
59.88
49.43
41.05
34.88
30.92
29.19
29.69
32.25
36.37
41.02
44.76
45.99
43.57
37.33
28.34
18.63
10.45
5.38
3.65
4.23
5.25
4.96
2.30
-2.89
-10.11
-18.55
-27.34
-35.65
-42.66
-47.62
-49.99
-49.66
-47.05
-43.12
-39.21
-36.77
-37.00
-40.42
-46.67
-54.40
-61.58
-66.18
-66.80
-63.24
-56.42
-47.82
-38.83
-30.23
-22.17
-14.65
-7.88
-2.51
0.63
1.14
-0.59
-3.25
-5.16
-4.88
-1.99
2.86
8.32
13.05
16.36
18.29
19.33
19.80
19.55
18.03
14.67
9.25
