1660753676.00
64.000000
-0.00
-0.00
-0.00
-0.00
-0.00
-0.00
-0.00
-0.00
-0.00
-0.00
0.00
0.01
0.01
-0.00
-0.03
-0.05
-0.05
0.00
0.13
0.36
0.66
1.01
1.37
1.72
2.06
2.40
2.79
3.24
3.80
4.42
5.06
5.66
6.20
6.68
7.15
7.68
8.31
9.14
10.09
11.04
11.88
12.56
13.14
13.76
14.65
15.96
17.91
20.32
22.90
25.38
27.58
29.57
31.68
34.32
37.81
42.54
48.15
54.10
59.83
64.97
69.58
74.14
79.34
85.71
93.76
103.00
112.62
121.73
129.77
136.75
143.30
150.75
157.77
166.64
177.95
191.79
206.97
220.57
228.25
225.36
208.53
176.87
132.76
80.05
23.07
-34.94
-92.44
-149.16
-205.23
-260.37
-313.74
-363.87
-409.83
-450.91
-486.50
-515.74
-537.23
-549.22
-549.96
-538.37
-514.21
-478.67
-433.88
-382.45
-327.02
-269.84
-212.63
-156.66
-102.95
-52.37
-5.90
35.58
71.43
101.35
125.50
144.38
158.69
169.15
176.37
180.75
182.57
182.07
179.51
175.23
169.65
163.18
156.15
148.81
141.30
133.69
126.02
118.33
110.69
103.16
95.80
88.68
81.83
75.25
68.95
62.95
57.25
51.86
46.78
42.03
37.59
33.45
29.61
26.07
22.81
19.83
17.11
14.67
12.48
10.54
8.83
7.35
6.07
4.97
4.05
3.27
2.62
2.09
1.65
1.30
1.01
0.79
0.61
0.47
0.37
0.29
0.23
0.18
0.15
0.14
0.13
0.13
0.15
0.16
0.18
0.21
0.24
0.29
0.35
0.41
0.46
0.49
0.48
0.44
0.38
0.32
0.30
0.32
0.39
0.47
0.55
0.60
0.62
0.62
0.63
0.70
0.83
1.03
1.26
1.46
1.59
1.64
1.65
1.70
1.86
2.17
2.62
3.10
3.48
3.68
3.68
3.59
3.59
3.87
4.52
5.46
6.46
7.21
7.51
7.33
6.88
6.52
6.64
7.42
8.77
10.27
11.39
11.65
10.90
9.30
7.27
5.19
3.30
1.47
-0.67
-3.59
-7.76
-13.49
-20.99
-30.04
-39.74
-48.27
-53.24
-52.48
-44.99
-31.59
-14.86
1.77
15.25
23.90
27.77
28.15
26.76
25.00
23.62
22.81
22.39
22.24
22.29
22.44
22.46
22.09
21.20
19.94
19.03
19.34
21.91
27.36
35.41
44.58
52.39
55.88
52.57
41.50
23.39
1.20
-20.74
-38.14
-48.28
-50.99
-48.54
-44.57
-42.45
-44.48
-50.44
-58.21
-64.92
-68.53
-68.73
-67.08
-66.28
-69.29
-79.05
-96.49
-120.15
-146.18
-169.15
-183.41
-184.92
-172.75
-144.59
-104.70
-61.13
-23.33
0.84
7.57
-1.86
-22.08
-46.45
-70.32
-93.88
-120.48
-153.76
-194.17
-236.98
-273.33
-293.83
-292.83
-270.74
-233.78
-189.78
-144.57
-100.28
-56.17
-11.27
33.64
75.86
112.36
141.81
166.58
192.25
225.04
268.58
321.05
374.56
417.58
439.52
435.46
409.20
372.37
339.69
323.06
327.02
347.69
375.48
399.59
411.51
406.80
384.94
348.91
304.81
261.18
227.12
209.18
208.23
218.51
229.50
230.29
214.21
181.47
138.60
95.52
61.70
43.31
42.04
55.30
77.32
100.64
117.94
123.57
114.88
92.53
59.53
20.10
-21.50
-61.66
-97.79
-128.55
-154.07
-175.94
-196.78
-219.44
-245.78
-276.05
-308.91
-342.03
-373.28
-401.88
-428.87
-456.86
-489.03
-527.56
-572.20
-619.43
-662.73
-694.02
-705.93
-694.14
-658.78
-604.44
-538.57
-469.09
-402.14
-340.74
-284.86
-232.50
-181.18
-129.12
-75.83
-21.97
31.06
81.70
128.88
172.42
213.73
255.82
302.87
358.29
422.37
490.54
553.23
598.34
615.41
599.66
553.89
487.36
412.66
341.88
284.01
243.77
221.56
213.61
212.75
209.91
197.16
171.13
135.03
97.56
68.72
54.52
53.63
58.22
57.83
44.57
16.09
-24.82
-73.42
-126.45
-183.12
-243.98
-308.43
-373.20
-432.86
-481.71
-515.89
-534.26
-538.24
-530.90
-515.78
-496.19
-474.61
-452.21
-428.63
-402.32
-371.41
-334.86
-293.22
-248.41
-202.75
-157.77
-113.50
-68.93
-23.13
24.10
71.98
119.57
166.71
214.63
265.21
319.46
375.64
428.46
470.40
494.62
498.37
484.81
462.29
441.02
429.23
430.44
443.39
463.80
486.81
508.25
524.66
532.69
528.92
510.79
477.86
432.75
380.71
327.89
279.21
237.00
200.69
167.84
135.72
102.17
65.88
26.19
-16.74
-61.37
-104.19
-140.11
-164.20
-174.01
-171.45
-162.73
-156.27
-159.55
-176.68
-207.85
-250.37
-300.31
-353.32
-404.53
-448.25
-478.44
-490.43
-483.41
-462.15
-436.43
-417.83
-415.02
-430.03
-456.79
-483.51
-497.70
-491.18
-463.00
-418.67
-366.60
-313.71
-262.89
-213.17
-162.07
-108.27
-52.64
2.62
55.64
105.71
152.63
195.29
230.93
256.07
268.42
268.89
261.92
254.01
251.20
257.14
272.83
297.82
331.26
372.16
418.17
464.10
502.00
523.28
522.35
499.34
460.57
415.95
374.80
342.33
318.47
299.27
279.72
256.49
228.81
197.86
165.03
130.75
94.18
54.08
9.92
-37.48
-85.97
-132.95
-176.61
-216.58
-254.31
-292.90
-336.28
-387.86
-448.88
-516.71
-584.24
-641.12
-676.88
-684.66
-663.91
-620.40
-563.37
-501.49
-439.95
-380.34
-322.93
-269.34
-223.46
-189.69
-170.04
-161.88
-158.26
-150.76
-132.84
-101.81
-58.41
-5.41
53.79
114.97
171.96
215.96
236.81
226.18
181.56
108.51
19.90
-67.88
-140.04
-187.75
-209.71
-210.77
-198.70
-180.86
-162.21
-145.12
-130.33
-118.22
-109.37
-104.28
-102.76
-103.28
-103.41
-100.79
-94.17
-83.97
-71.99
-60.56
-51.40
-44.87
-39.85
-34.43
-26.84
-16.30
-3.48
9.72
20.79
27.52
28.70
24.51
16.35
6.28
-3.69
-12.18
-18.75
-23.79
-28.11
-32.36
-36.55
-39.83
-40.68
-37.35
-28.55
-13.88
5.95
29.66
55.85
83.74
113.53
146.28
183.51
226.82
277.47
335.95
401.30
470.37
537.52
595.46
637.05
657.80
657.61
640.88
614.78
586.48
560.60
538.24
517.73
496.56
473.18
447.71
421.62
396.55
373.48
352.44
332.87
314.26
296.51
280.09
265.56
253.03
241.94
231.18
219.55
206.27
191.32
175.42
159.71
145.28
132.86
122.59
114.03
106.35
98.59
90.16
80.96
71.56
62.79
55.45
49.80
45.45
41.61
37.47
32.74
27.76
23.39
20.58
19.89
21.19
23.69
26.27
28.02
28.63
28.44
28.22
28.60
29.52
29.99
28.31
22.36
10.14
-9.66
-36.79
-68.87
-101.44
-129.13
-147.62
-155.69
-155.99
-154.09
-155.81
-164.52
-179.75
-197.80
-213.98
-225.05
-230.31
-231.10
-229.19
-225.29
-218.76
-208.23
-192.83
-172.95
-150.16
-126.67
-104.38
-84.18
-65.86
-48.39
-30.47
-11.14
9.94
32.32
54.87
75.92
93.41
105.11
109.01
103.83
89.41
66.90
38.48
6.71
-26.15
-58.66
-90.36
-121.57
-152.86
-184.38
-215.39
-243.96
-267.38
-282.88
-288.65
-284.51
-272.04
-253.93
-232.98
-211.24
-189.66
-168.36
-147.18
-126.11
-105.31
-84.99
-65.16
-45.72
-26.80
-9.06
6.18
17.27
22.62
21.45
14.10
2.06
-12.39
-26.96
-40.02
-51.12
-61.08
-71.63
-84.59
-101.14
-121.02
-142.43
-162.34
-177.36
-184.79
-183.52
-174.39
-160.00
-143.83
-129.19
-118.14
-110.97
-106.41
-102.30
-96.66
-88.44
-77.78
-65.65
-53.23
-41.39
-30.52
-20.83
-12.78
-7.15
-4.77
-5.91
-9.96
-15.63
-21.53
-26.76
-31.07
-34.57
-37.07
-37.89
-36.17
-31.43
-24.20
-16.08
-9.66
-7.81
-13.09
-27.05
-49.79
-79.62
-113.34
-147.00
-177.07
-201.34
-219.24
-231.41
-238.84
-242.21
-241.75
-237.53
-229.83
-219.23
-206.23
-191.04
-173.33
-152.53
-128.00
-99.34
-66.54
-30.24
8.00
45.72
80.11
109.19
132.70
152.15
169.50
185.31
197.58
202.29
195.47
175.83
146.22
112.92
83.21
62.35
51.71
48.78
48.98
48.01
43.62
36.05
27.15
19.16
13.53
10.63
9.80
9.79
8.96
5.40
-2.87
-17.16
-36.96
-59.07
-77.85
-86.68
-80.47
-57.77
-21.57
21.70
64.23
98.93
120.76
126.99
117.02
92.35
56.66
15.83
-23.00
-53.13
-70.47
-74.98
-70.64
-63.71
-60.08
-62.89
-71.44
-81.78
-88.76
-88.42
-79.70
-64.62
-47.04
-30.77
-17.95
-8.54
-1.15
5.71
12.62
19.04
24.03
26.97
27.76
26.25
21.53
11.92
-3.99
-25.67
-49.50
-69.09
-77.43
-69.82
-46.24
-11.73
25.44
57.08
78.44
89.86
96.10
103.74
117.75
139.29
165.44
190.98
211.20
224.05
230.46
233.02
233.89
233.38
230.21
223.07
212.11
199.39
187.86
179.57
174.38
170.36
165.25
158.19
150.22
143.20
137.68
131.31
119.37
97.25
63.59
21.94
-20.22
-54.72
-76.32
-84.85
-84.77
-82.75
-84.82
-94.47
-112.30
-136.70
-164.74
-192.80
-216.98
-234.05
-242.63
-244.01
-242.19
-242.34
-248.66
-262.34
-281.04
-299.64
-312.13
-313.67
-302.14
-278.64
-246.95
-212.16
-179.01
-150.29
-126.03
-104.18
-82.48
-60.86
-42.39
-32.14
-33.97
-47.39
-66.33
-81.10
-82.61
-66.31
-33.93
8.10
52.18
93.00
129.14
162.57
196.62
233.79
274.38
316.13
354.90
385.95
405.53
412.09
406.62
391.76
370.17
343.30
311.42
274.81
235.51
197.98
168.18
151.32
149.89
162.81
186.09
214.15
241.19
261.70
270.99
265.74
244.86
210.24
166.60
120.27
77.40
42.13
15.62
-3.83
-19.75
-36.34
-57.21
-84.61
-119.03
-159.33
-203.52
-249.89
-297.62
-346.78
-397.16
-447.21
-493.43
-530.92
-555.08
-563.27
-555.54
-534.08
-501.89
-461.65
-415.35
-365.02
-313.48
-264.22
-220.46
-184.01
-155.07
-133.04
-117.61
-109.15
-107.83
-112.13
-117.91
-119.29
-110.88
-90.40
-59.71
-23.76
12.18
45.12
75.31
105.19
137.36
172.97
211.45
251.31
291.03
329.39
365.05
395.89
418.83
430.30
427.52
409.74
378.95
339.61
297.56
258.50
226.79
205.19
195.10
196.90
209.73
230.58
253.45
269.71
270.57
250.87
212.29
163.65
117.56
84.86
69.86
69.06
73.75
74.83
66.66
48.32
22.26
-7.86
-38.55
-66.75
-89.78
-105.91
-115.45
-121.24
-127.62
-138.11
-153.23
-170.27
-185.25
-195.68
-202.05
-207.11
-213.52
-221.93
-230.75
-237.78
-242.03
-244.17
-245.49
-246.68
-247.41
-247.18
-246.49
-246.79
-249.24
-252.88
-253.96
-247.17
-228.37
-196.90
-156.01
-111.10
-67.01
-26.00
12.45
50.55
90.54
133.92
181.13
231.49
282.88
331.48
372.05
399.18
409.22
401.77
380.07
349.73
316.52
284.53
255.46
229.31
205.81
185.49
169.78
160.24
157.62
161.47
169.98
180.56
189.94
194.19
189.00
170.90
139.32
98.26
56.09
22.86
6.00
6.78
19.61
34.62
42.23
37.19
20.15
-3.65
-27.35
-45.51
-55.80
-59.17
-58.84
-58.98
-63.44
-75.01
-95.01
-123.31
-158.60
-198.74
-240.63
-279.96
-311.48
-329.96
-331.98
-317.60
-290.89
-258.79
-228.63
-205.70
-191.92
-186.04
-184.70
-183.79
-179.34
-168.30
-149.54
-125.10
-100.97
-86.07
-89.12
-114.21
-157.75
-208.54
-251.65
-274.52
-271.81
-246.59
-207.47
-163.62
-120.69
-79.89
-40.01
-0.28
37.92
71.81
99.27
120.67
138.91
157.91
180.51
207.13
235.66
262.43
283.89
297.77
303.57
302.15
294.93
283.03
267.12
247.61
224.95
199.75
172.07
140.58
102.39
54.06
-6.25
-76.41
-149.58
-215.66
-264.77
-291.07
-294.76
-281.41
-259.06
-234.83
-212.79
-193.78
-176.93
-161.44
-147.59
-136.47
-128.94
-124.64
-121.75
-117.65
-110.00
-97.73
-81.27
-62.31
-42.95
-24.77
-8.28
7.20
23.16
41.24
62.58
87.31
114.51
142.49
169.51
194.37
216.82
237.61
258.10
279.64
303.30
329.95
360.48
395.74
435.69
478.32
518.88
550.62
566.84
563.48
540.87
503.52
458.02
410.14
363.07
317.37
272.67
229.56
190.35
158.23
135.42
121.78
114.66
110.24
105.33
98.52
90.30
82.14
75.24
69.71
64.67
58.94
51.83
43.52
34.84
26.59
18.97
11.38
2.80
-7.56
-19.60
-32.17
-43.41
-51.37
-54.77
-53.51
-48.85
-42.97
-38.34
-36.82
-39.02
-44.16
-50.41
-55.79
-58.93
-59.57
-58.49
-56.93
-55.87
-55.67
-56.03
-56.48
-56.91
-57.88
-60.72
-67.40
-80.23
-101.38
-131.78
-170.01
-211.81
-250.72
-279.97
-294.83
-294.39
-281.86
-263.39
-245.57
-233.39
-229.14
-232.66
-241.97
-253.94
-264.69
-270.01
-266.57
-252.70
-228.95
-197.89
-163.30
-128.93
-97.67
-71.26
-50.66
-37.26
-31.62
-32.65
-37.31
-41.73
-42.93
-39.79
-33.31
-25.74
-21.46
-23.71
-32.98
-46.81
-61.48
-73.82
-82.56
-88.85
-96.60
-114.72
-151.36
-209.07
-281.89
-356.99
-419.15
-455.55
-459.27
-430.67
-380.68
-323.43
-271.02
-230.55
-204.97
-195.02
-199.67
-215.92
-212.69
-168.46
-81.36
28.48
135.22
223.12
288.82
335.76
368.46
390.24
398.67
391.52
370.12
340.49
310.26
285.37
268.20
257.34
249.62
238.55
219.23
190.68
156.43
122.03
92.09
69.01
51.98
38.92
25.21
6.55
-19.62
-53.64
-94.78
-142.64
-189.76
-230.54
-259.05
-271.19
-265.06
-241.27
-202.30
-151.64
-93.05
-30.24
31.86
88.10
132.88
161.75
172.81
167.34
148.88
121.75
90.13
57.06
26.03
0.82
-15.40
-21.53
-19.31
-12.93
-7.03
-4.60
-6.71
-12.58
-21.32
-33.05
-48.58
-68.06
-89.86
-110.32
-125.05
-131.15
-128.25
-118.57
-105.62
-92.49
-80.77
-70.50
-60.87
-51.09
-40.98
-30.64
-20.09
-8.99
3.25
17.00
31.90
46.86
60.47
71.73
80.63
88.19
95.79
104.31
113.34
121.13
125.21
123.30
114.19
98.13
76.59
51.89
26.54
2.94
-16.77
-30.96
-38.65
-39.77
-35.19
-26.54
-15.57
-3.66
8.61
21.32
34.73
48.62
61.98
73.07
80.06
81.67
77.71
69.22
58.04
46.27
35.63
27.14
21.20
17.66
16.09
15.88
16.40
16.94
16.82
15.56
13.00
9.40
5.34
1.47
-1.78
-4.35
-6.50
-8.49
-10.23
-11.28
-10.89
-8.55
-4.25
1.46
7.70
13.67
18.88
23.16
26.47
28.78
30.03
30.24
29.60
28.36
26.79
25.10
23.50
22.27
21.79
22.38
24.05
26.37
28.55
29.84
29.79
28.49
26.34
23.80
21.15
18.48
15.81
13.28
11.10
9.45
8.24
7.10
5.52
3.22
0.34
-2.48
-4.44
-5.04
-4.30
-2.78
-1.26
-0.27
0.17
0.44
1.11
2.53
4.66
7.19
9.71
11.95
13.86
15.51
17.03
18.46
19.76
20.84
21.59
21.87
21.59
20.65
19.03
16.78
14.03
11.00
8.00
5.30
3.04
1.11
-0.87
-3.37
-6.73
-10.98
-15.76
-20.54
-24.64
-27.51
-28.70
-27.98
-25.34
-21.09
-15.87
-10.51
-5.83
-2.31
0.03
1.55
2.80
4.14
5.59
6.88
7.59
7.49
6.75
5.95
5.82
6.82
8.84
11.15
12.77
12.93
11.43
8.71
5.47
2.21
-0.97
-4.26
-7.71
-10.93
-13.16
-13.67
-12.33
-9.89
-7.74
-7.31
-9.26
-13.16
-17.51
-20.44
-20.47
-17.14
-11.12
-3.86
3.06
8.54
12.27
14.69
16.59
18.60
20.87
22.97
24.27
24.26
23.01
21.07
19.31
18.44
18.61
19.43
20.23
20.42
19.77
18.35
16.35
13.86
10.88
7.48
4.08
1.39
0.24
1.04
3.54
6.66
8.87
8.71
5.35
-1.04
-9.31
-17.79
-24.83
-29.40
-31.34
-31.31
-30.41
-29.66
-29.71
-30.71
-32.39
-34.39
-36.31
-37.75
-38.30
-37.51
-35.11
-31.18
-26.23
-21.06
-16.43
-12.69
-9.62
-6.53
-2.72
2.18
7.93
13.77
18.70
21.90
22.94
21.74
18.57
13.92
8.50
3.23
-1.02
-3.59
-4.29
-3.43
-1.73
0.02
1.20
1.44
0.69
-0.95
-3.27
-6.03
-8.87
-11.35
-13.05
-13.60
-12.85
-10.91
-8.13
-5.01
-2.05
0.48
2.61
4.54
6.40
8.07
9.17
9.34
8.55
7.32
6.49
6.76
8.25
10.33
11.88
11.93
10.12
6.96
3.47
0.68
-0.86
-1.33
-1.27
-1.29
-1.67
-2.25
-2.73
-2.93
-3.01
-3.40
-4.39
-5.84
-7.09
-7.21
-5.50
-1.90
2.91
7.88
12.03
14.93
16.73
17.96
19.04
19.99
20.49
20.11
18.74
16.75
14.84
13.77
13.91
15.24
17.28
19.42
21.00
21.52
20.60
18.09
14.19
9.44
4.65
0.62
-2.18
-3.73
-4.46
-5.00
-5.87
-7.35
-9.49
-12.15
-15.13
-18.15
-20.79
-22.47
-22.67
-21.00
-17.49
-12.53
-6.84
-1.16
3.87
7.88
10.72
12.40
12.98
12.52
11.18
9.21
7.02
5.08
3.93
3.94
5.19
7.35
9.70
11.32
11.49
9.97
7.20
4.06
1.48
0.01
-0.40
-0.25
-0.13
-0.36
-0.92
-1.62
-2.41
-3.52
-5.35
-8.15
-11.69
-15.24
-17.82
-18.70
-17.65
-15.08
-11.72
-8.24
-4.88
-1.53
2.13
6.19
10.32
13.81
15.93
16.26
14.96
12.70
10.43
8.99
8.88
10.15
12.47
15.23
17.74
19.37
19.63
18.32
15.64
12.09
8.45
5.54
3.93
3.76
4.69
5.95
6.59
5.73
2.92
-1.74
-7.58
-13.55
-18.57
-21.80
-22.87
-21.89
-19.26
-15.53
-11.15
-6.54
-2.04
2.03
5.30
7.56
8.74
9.07
8.97
8.94
9.33
10.33
11.90
13.88
16.08
18.30
20.35
21.99
22.90
22.69
21.03
17.68
12.71
6.53
-0.08
-6.04
-10.30
-12.12
-11.40
-8.78
-5.50
-2.93
-2.10
-3.35
-6.30
-10.15
-14.08
-17.47
-19.98
-21.36
-21.32
-19.58
-16.06
-11.11
-5.49
-0.19
3.91
6.40
7.35
7.17
6.32
5.12
3.72
2.18
0.63
-0.69
-1.45
-1.32
-0.12
2.04
4.74
7.31
9.03
9.47
8.55
6.66
4.37
2.20
0.37
-1.22
-2.74
-4.30
-5.76
-6.80
-7.16
-6.90
-6.41
-6.40
-7.56
-10.30
-14.56
-19.74
-24.86
-28.81
-30.81
-30.53
-28.32
-24.91
-21.04
-17.19
-13.32
-9.13
-4.34
0.91
6.01
10.07
12.37
12.74
11.67
10.01
8.59
7.82
7.58
7.46
7.02
6.11
4.84
3.46
2.09
0.65
-1.17
-3.67
-6.97
-10.84
-14.74
-18.06
-20.29
-21.22
-20.97
-19.86
-18.25
-16.52
-15.02
-14.17
-14.36
-15.88
-18.68
-22.31
-26.01
-28.91
-30.29
-29.82
-27.55
-23.82
-19.19
-14.31
-9.83
-6.19
-3.54
-1.67
-0.18
1.28
2.73
3.84
4.18
3.59
2.42
1.46
1.53
3.08
5.91
9.29
12.29
14.20
14.70
13.85
11.82
8.83
5.11
1.06
-2.68
-5.37
-6.37
-5.52
-3.29
-0.66
1.26
1.61
0.11
-3.04
-7.28
-11.96
-16.54
-20.55
-23.58
-25.25
-25.34
-23.79
-20.81
-16.74
-11.96
-6.80
-1.50
3.63
8.22
11.87
14.20
15.10
14.73
13.53
12.03
10.75
10.07
10.19
11.15
12.76
14.69
16.40
17.30
16.91
15.05
11.94
8.12
4.34
1.24
-0.82
-1.77
-1.76
-1.07
-0.02
1.02
1.59
1.21
-0.47
-3.49
-7.44
-11.51
-14.72
-16.32
-15.98
-13.88
-10.52
-6.51
-2.25
2.06
6.32
10.40
14.03
16.83
18.55
19.17
18.95
18.35
17.77
17.34
16.92
16.22
14.96
13.11
10.90
8.77
7.16
6.35
6.33
6.86
7.64
8.40
9.00
9.34
9.31
8.73
7.35
5.03
1.89
-1.75
-5.42
-8.73
-11.46
-13.51
-14.74
-14.96
-13.89
-11.43
-7.83
-3.70
0.21
3.31
5.35
6.56
7.34
8.09
8.98
9.92
10.75
11.43
12.18
13.37
15.29
17.85
20.46
22.25
22.44
20.71
17.45
13.55
9.93
7.26
5.64
4.79
4.33
4.02
3.84
3.84
3.92
3.81
3.07
1.35
-1.50
-5.26
-9.50
-13.67
-17.33
-20.28
-22.54
-24.30
-25.72
-26.79
-27.26
-26.77
-25.03
-21.99
-17.96
-13.42
-8.88
-4.65
-0.82
2.69
5.88
8.54
10.35
11.04
10.67
9.69
8.84
8.75
9.70
11.42
13.26
14.48
14.63
13.66
11.91
9.88
8.03
6.59
5.61
4.91
4.20
3.24
1.83
-0.03
-2.17
-4.32
-6.22
-7.73
-8.90
-9.86
-10.70
-11.47
-12.18
-12.89
-13.79
-15.12
-17.05
-19.40
-21.65
-23.07
-22.98
-21.12
-17.74
-13.53
-9.26
-5.54
-2.53
-0.08
2.13
4.28
6.29
7.89
8.75
8.85
8.53
8.40
9.10
10.96
13.86
17.25
20.49
23.10
24.93
26.11
26.77
26.89
26.29
24.78
22.41
19.51
16.64
14.35
12.90
12.22
11.93
11.49
10.44
8.47
5.54
1.83
-2.33
-6.66
-11.11
-15.90
-21.40
-27.83
-34.96
-41.92
-47.41
-50.13
-49.25
-44.79
-37.60
-29.06
-20.56
-13.13
-7.14
-2.42
1.53
5.13
8.40
10.93
12.03
11.09
7.96
3.20
-2.11
-6.69
-9.65
-10.71
-10.29
-9.27
-8.65
-9.41
-12.36
-18.07
-26.67
-37.51
-49.01
-58.86
-64.63
-64.66
-58.79
-48.40
-35.91
-23.71
-13.41
-5.43
0.64
5.46
9.42
12.45
14.19
14.38
13.12
10.83
8.14
5.59
3.42
1.57
-0.23
-2.16
-4.17
-5.92
-6.90
-6.76
-5.45
-3.31
-0.78
1.74
4.16
6.58
9.07
11.49
13.51
14.74
15.01
14.48
13.50
12.45
11.58
11.00
10.79
11.03
11.74
12.77
13.73
14.10
13.41
11.54
8.79
5.76
3.13
1.39
0.69
0.87
1.54
2.25
2.61
2.40
1.65
0.51
-0.77
-1.99
-3.10
-4.25
-5.64
-7.48
-9.78
-12.29
-14.60
-16.23
-16.85
-16.34
-14.85
-12.64
-10.01
-7.15
-4.14
-0.97
2.41
5.93
9.32
12.12
13.87
14.25
13.35
11.71
10.19
9.61
10.39
12.36
14.85
17.08
18.49
18.99
18.84
18.39
17.80
17.02
15.89
14.34
12.49
10.68
9.18
8.17
7.55
7.11
6.65
6.08
5.49
4.98
4.55
4.02
3.08
1.47
-0.94
-3.93
-7.07
-9.78
-11.54
-12.04
-11.18
-9.15
-6.33
-3.15
-0.05
2.73
5.05
6.91
8.31
9.23
9.75
10.05
10.48
11.45
13.19
15.55
17.90
19.43
19.37
17.41
13.79
9.27
4.84
1.38
-0.58
-0.95
-0.11
1.33
2.72
3.61
3.84
3.52
2.82
1.84
0.51
-1.32
-3.75
-6.70
-9.91
-13.07
-15.99
-18.62
-21.02
-23.14
-24.71
-25.34
-24.65
-22.49
-19.12
-15.09
-11.07
-7.58
-4.85
-2.79
-1.13
0.35
1.80
3.19
4.42
5.39
6.06
6.47
6.73
7.00
7.38
7.89
8.51
9.22
10.05
11.12
12.49
14.02
15.38
16.11
15.85
14.60
12.67
10.55
8.68
7.22
6.07
5.02
3.90
2.69
1.35
-0.18
-2.05
-4.34
-6.97
-9.61
-11.86
-13.39
-14.12
-14.13
-13.58
-12.58
-11.09
-9.08
-6.53
-3.56
-0.38
2.77
5.58
7.76
9.01
9.12
8.12
6.40
4.61
3.51
3.63
5.01
7.24
9.61
11.48
12.52
12.73
12.30
11.33
9.80
7.57
4.62
1.23
-2.09
-4.78
-6.51
-7.39
-7.88
-8.49
-9.57
-11.15
-12.98
-14.73
-16.18
-17.31
-18.27
-19.28
-20.50
-21.95
-23.49
-24.90
-25.93
-26.34
-26.01
-24.98
-23.50
-21.95
-20.77
-20.19
-20.15
-20.22
-19.74
-18.13
-15.14
-10.98
-6.22
-1.48
2.83
6.60
9.91
12.86
15.35
17.13
17.93
17.71
16.68
15.29
14.03
13.23
12.92
12.86
12.65
11.95
10.61
8.77
6.75
4.91
3.39
2.07
0.60
-1.37
-3.97
-7.02
-10.03
-12.47
-13.99
-14.64
-14.81
-15.05
-15.79
-17.19
-19.08
-21.15
-23.16
-24.96
-26.46
-27.43
-27.45
-26.05
-22.93
-18.27
-12.64
-6.88
-1.76
2.30
5.23
7.24
8.52
9.24
9.58
9.76
10.14
10.97
12.36
14.11
15.78
16.84
16.90
15.83
13.81
11.26
8.72
6.70
5.59
5.49
6.22
7.27
8.07
8.10
7.13
5.28
2.86
0.28
-2.17
-4.31
-6.14
-7.63
-8.81
-9.76
-10.59
-11.42
-12.34
-13.29
-13.99
-14.13
-13.39
-11.59
-8.77
-5.15
-1.08
3.06
6.90
10.20
12.78
14.57
15.62
16.08
16.24
16.49
17.29
18.91
21.29
23.97
26.20
27.22
26.63
24.51
21.40
17.97
14.79
12.15
10.13
8.70
7.80
7.28
6.88
6.19
4.87
2.75
-0.00
-2.98
-5.74
-8.02
-9.80
-11.28
-12.66
-14.02
-15.22
-15.97
-15.95
-14.95
-12.98
-10.26
-7.16
-4.04
-1.16
1.44
3.84
6.15
8.36
10.32
11.88
12.96
13.73
14.56
15.81
17.59
19.63
21.37
22.17
21.69
20.04
17.83
15.85
14.74
14.67
15.31
16.00
16.09
15.20
13.36
10.79
7.79
4.49
0.92
-2.87
-6.62
-9.88
-12.14
-13.17
-13.22
-12.95
-13.15
-14.32
-16.40
-18.74
-20.46
-20.81
-19.52
-16.80
-13.17
-9.12
-4.93
-0.61
3.86
8.33
12.37
15.38
16.81
16.51
14.83
12.57
10.66
9.90
10.60
12.59
15.29
17.92
19.80
20.49
19.95
18.49
16.69
15.16
14.37
14.45
15.17
16.06
16.47
15.71
13.16
8.43
1.60
-6.66
-15.11
-22.30
-27.16
-29.52
-30.30
-31.17
-33.81
-39.13
-46.87
-55.59
-63.21
-67.75
-67.93
-63.55
-55.43
-45.03
-33.97
-23.54
-14.43
-6.83
-0.63
4.32
8.15
11.03
13.35
15.66
18.54
22.26
26.60
30.86
34.15
35.82
35.61
33.82
31.09
28.09
25.26
22.68
20.13
17.26
13.84
9.91
5.80
2.00
-1.06
-3.19
-4.51
-5.31
-5.90
-6.46
-6.99
-7.38
-7.60
-7.79
-8.19
-9.06
-10.45
-12.22
-14.05
-15.64
-16.88
-17.82
-18.65
-19.52
-20.52
-21.64
-22.78
-23.81
-24.58
-24.99
-25.05
-24.85
-24.48
-23.90
-22.78
-20.64
-17.10
-12.16
-6.41
-0.72
3.97
7.16
8.93
9.74
10.19
10.69
11.42
12.42
13.74
15.44
17.46
19.59
21.38
22.35
22.18
20.88
18.77
16.32
13.95
11.91
10.19
8.58
6.84
4.74
2.24
-0.58
-3.48
-6.17
-8.39
-9.96
-10.82
-11.04
-10.82
-10.41
-10.11
-10.26
-11.11
-12.79
-15.21
-17.98
-20.51
-22.14
-22.37
-21.05
-18.43
-14.97
-11.21
-7.54
-4.18
-1.18
1.44
3.65
5.43
6.76
7.69
8.31
8.81
9.37
10.23
11.53
13.29
15.28
17.07
18.19
18.32
17.50
16.04
14.39
12.90
11.71
10.77
9.95
9.18
8.50
7.88
7.26
6.41
5.13
3.36
1.27
-0.80
-2.48
-3.55
-4.05
-4.25
-4.55
-5.31
-6.75
-8.87
-11.41
-13.95
-15.91
-16.80
-16.28
-14.30
-11.18
-7.35
-3.26
0.78
4.63
8.16
11.16
13.37
14.56
14.79
14.49
14.30
14.79
16.17
18.17
20.14
21.38
21.45
20.34
18.45
16.40
14.74
13.80
13.53
13.67
13.85
13.77
13.26
12.30
10.83
8.81
6.19
2.98
-0.61
-4.14
-7.11
-9.05
-9.75
-9.35
-8.28
-7.13
-6.49
-6.79
-8.17
-10.52
-13.50
-16.63
-19.39
-21.33
-22.08
-21.42
-19.31
-15.91
-11.55
-6.71
-1.96
2.20
5.43
7.63
8.89
9.45
9.64
9.77
10.17
11.09
12.68
14.91
17.54
20.10
22.05
22.97
22.67
21.35
19.41
17.30
15.34
13.63
12.10
10.65
9.22
7.77
6.32
4.91
3.56
2.33
1.23
0.22
-0.86
-2.22
-4.02
-6.23
-8.62
-10.82
-12.55
-13.82
-14.98
-16.51
-18.81
-21.91
-25.44
-28.72
-31.01
-31.79
-30.88
-28.44
-24.84
-20.55
-16.04
-11.70
-7.88
-4.84
-2.72
-1.46
-0.85
-0.55
-0.26
0.17
0.85
1.82
3.20
5.07
7.43
10.14
12.88
15.27
17.01
17.95
18.07
17.39
15.89
13.54
10.39
6.59
2.48
-1.57
-5.23
-8.25
-10.51
-11.99
-12.72
-12.86
-12.66
-12.46
-12.54
-13.00
-13.69
-14.32
-14.55
-14.29
-13.75
-13.46
-14.02
-15.83
-18.85
-22.59
-26.29
-29.25
-31.06
-31.64
-31.15
-29.81
-27.76
-25.04
-21.71
-17.88
-13.73
-9.38
-4.91
-0.26
4.57
9.47
14.10
17.99
20.72
22.05
22.09
21.25
20.19
19.57
19.86
21.16
23.10
25.04
26.23
26.09
24.43
21.47
17.73
13.82
10.26
7.38
5.28
3.92
3.09
2.51
1.80
0.61
-1.30
-3.94
-7.08
-10.34
-13.26
-15.55
-17.09
-18.06
-18.83
-19.74
-21.12
-23.15
-25.91
-29.44
-33.63
-38.17
-42.46
-45.66
-46.98
-46.10
-43.41
-40.05
-37.44
-36.75
-38.38
-41.96
-46.65
-51.61
-56.40
-60.99
-65.63
-70.64
-76.36
-83.12
-91.16
-100.54
-110.77
-120.90
-129.71
-136.13
-139.87
-141.73
-143.53
-147.40
-154.82
-165.80
-178.59
-190.13
-197.14
-197.26
-190.00
-176.69
-159.57
-140.58
-120.39
-98.38
-73.52
-45.46
-15.32
14.60
41.77
64.71
83.69
100.54
117.80
137.66
161.29
188.51
218.05
247.67
274.54
295.58
308.24
311.35
305.56
293.27
277.75
261.90
247.44
234.77
223.57
213.68
205.49
199.62
196.23
194.46
192.57
188.71
181.79
171.97
160.39
148.62
137.87
128.66
120.88
114.11
107.97
102.28
97.20
93.24
91.13
91.54
94.63
99.64
104.83
107.91
106.82
100.58
89.76
76.37
63.37
53.73
49.56
51.40
57.82
65.75
71.41
71.64
65.05
52.42
35.99
18.43
1.78
-12.79
-24.63
-33.15
-37.74
-38.15
-34.95
-29.44
-22.71
-14.68
-4.23
10.60
31.11
56.45
83.12
106.09
120.99
125.99
122.37
113.01
101.34
90.12
80.83
73.91
69.16
66.41
65.70
66.92
68.40
68.28
65.41
59.75
52.05
43.34
34.71
27.10
20.90
12.86
0.15
-17.72
-38.75
-60.22
-80.24
-97.83
-112.59
-124.55
-140.27
-164.63
-197.39
-233.40
-266.79
-294.29
-314.79
-328.23
-334.98
-345.40
-366.91
-398.78
-432.97
-460.81
-478.63
-486.90
-488.06
-485.40
-494.88
-528.14
-585.73
-658.00
-733.94
-808.41
-880.76
-952.00
-942.34
-809.40
-572.86
-301.01
-55.27
138.35
279.81
380.34
453.20
508.94
542.66
550.82
538.55
513.78
489.75
472.05
461.12
456.20
455.90
449.84
431.08
400.84
367.39
335.55
304.08
268.49
232.16
196.38
156.51
109.57
57.11
4.51
-47.81
-103.02
-164.01
-230.74
-302.05
-379.42
-464.20
-555.48
-617.96
-624.47
-565.97
-455.17
-316.27
-173.63
-46.34
54.09
124.33
168.56
190.60
195.25
187.71
173.18
155.77
138.62
124.21
114.59
111.10
110.02
106.74
98.28
84.36
67.12
49.75
35.31
26.08
23.19
23.98
24.61
22.87
18.11
11.25
3.78
-2.92
-7.88
-10.76
-13.10
-16.78
-23.18
-32.88
-45.13
-58.86
-72.95
-86.49
-98.85
-110.25
-121.13
-131.86
-142.64
-152.88
-161.92
-169.07
-173.68
-175.11
-172.71
-165.71
-152.94
-136.43
-117.10
-95.79
-73.24
-50.10
-26.92
-4.16
17.71
38.18
56.55
72.55
85.89
96.43
104.26
109.76
113.42
115.64
116.57
115.98
113.75
109.69
103.80
96.53
88.73
81.48
75.76
72.14
70.63
71.09
73.24
76.92
82.27
89.69
99.64
112.56
128.90
149.12
173.56
201.66
231.33
258.92
279.96
290.77
289.85
278.42
259.68
237.29
213.81
190.32
166.97
144.20
123.39
106.60
95.52
90.39
89.67
90.61
90.53
87.74
81.94
73.89
64.75
55.48
46.68
38.68
31.78
26.31
22.46
19.96
17.82
14.46
8.18
-2.12
-16.34
-33.01
-49.67
-63.66
-73.01
-76.94
-75.95
-71.53
-65.55
-59.78
-55.48
-53.34
-53.46
-55.54
-58.92
-62.76
-66.10
-68.08
-68.00
-65.59
-61.01
-54.89
-48.07
-41.34
-35.14
-29.45
-23.80
-17.67
-10.84
-3.57
3.40
9.14
12.91
14.38
13.71
11.36
7.96
4.02
-0.05
-4.00
-7.65
-10.85
-13.53
-15.61
-17.11
-18.06
-18.55
-18.75
-18.83
-19.02
-19.48
-20.36
-21.79
-23.86
-26.56
-29.68
-32.78
-35.23
-36.43
-35.97
-33.90
-30.66
-26.94
-23.45
-20.66
-18.70
-17.36
-16.26
-14.99
-13.32
-11.19
-8.76
-6.23
-3.86
-1.77
-0.04
1.32
2.34
3.04
3.49
3.83
4.18
4.65
5.27
5.89
6.33
6.42
6.13
5.59
5.01
4.52
4.00
3.20
1.75
-0.57
-3.74
-7.38
-10.89
-13.62
-15.04
-14.88
-13.18
-10.21
-6.43
-2.33
1.66
5.25
8.29
10.83
12.98
14.94
16.88
18.95
21.19
23.57
25.93
28.05
29.73
30.82
31.25
30.99
30.08
28.55
26.48
23.95
21.06
17.87
14.31
10.32
5.83
0.94
-4.04
-8.68
-12.61
-15.67
-18.00
-19.93
-21.81
-23.83
-25.88
-27.67
-28.79
-28.95
-28.03
-26.11
-23.40
-20.11
-16.49
-12.68
-8.84
-5.08
-1.53
1.71
4.53
6.84
8.58
9.71
10.29
10.38
10.11
9.60
8.91
8.09
7.11
6.01
4.86
3.84
3.19
3.12
3.69
4.76
5.98
6.88
7.06
6.40
5.05
3.36
1.71
0.29
-1.00
-2.44
-4.35
-6.90
-10.00
-13.32
-16.36
-18.59
-19.57
-19.05
-17.03
-13.79
-9.83
-5.67
-1.77
1.62
4.45
6.81
8.79
10.48
11.87
12.93
13.66
14.11
14.37
14.51
14.51
14.31
13.82
13.02
11.99
10.93
10.03
9.41
8.99
8.52
7.74
6.45
4.65
2.56
0.49
-1.27
-2.57
-3.45
-4.10
-4.82
-5.92
-7.58
-9.80
-12.33
-14.76
-16.59
-17.38
-16.91
-15.19
-12.48
-9.20
-5.82
-2.74
-0.22
1.66
3.01
4.05
5.05
6.18
7.48
8.84
10.05
10.89
11.24
11.09
10.56
9.85
9.12
8.53
8.12
7.86
7.67
7.44
7.04
6.39
5.45
4.24
2.81
1.26
-0.27
-1.64
-2.77
-3.70
-4.61
-5.76
-7.36
-9.47
-11.86
-14.08
-15.61
-16.08
-15.33
-13.51
-10.96
-8.05
-5.15
-2.45
-0.06
2.04
3.90
5.61
7.17
8.55
9.63
10.31
10.55
10.41
10.05
9.66
9.39
9.25
9.17
9.00
8.66
8.14
7.51
6.85
6.14
5.26
4.03
2.34
0.30
-1.77
-3.50
-4.61
-5.20
-5.68
-6.59
-8.36
-11.03
-14.19
-17.19
-19.34
-20.21
-19.72
-18.12
-15.84
-13.30
-10.82
-8.52
-6.40
-4.34
-2.20
0.12
2.61
5.18
7.60
9.64
11.15
12.03
12.34
12.21
11.86
11.48
11.21
11.06
11.00
10.93
10.77
10.51
10.22
9.99
9.82
9.59
9.09
8.12
6.62
4.76
2.85
1.23
0.07
-0.68
-1.28
-2.08
-3.36
-5.24
-7.64
-10.30
-12.89
-15.01
-16.35
-16.68
-15.95
-14.26
-11.85
-9.03
-6.12
-3.40
-1.00
1.04
2.82
4.44
6.02
7.62
9.17
10.59
11.77
12.64
13.16
13.34
13.19
12.72
12.01
11.20
10.49
10.07
10.02
10.22
10.40
10.27
9.61
8.40
6.77
4.95
3.15
1.43
-0.20
-1.74
-3.15
-4.32
-5.11
-5.48
-5.52
-5.51
-5.77
-6.58
-8.09
-10.25
-12.82
-15.45
-17.72
-19.24
-19.66
-18.84
-16.80
-13.83
-10.38
-6.94
-3.94
-1.57
0.16
1.45
2.54
3.62
4.78
5.98
7.07
7.89
8.31
8.29
7.94
7.50
7.25
7.44
8.16
9.30
10.62
11.79
12.48
12.49
11.72
10.25
8.28
6.05
3.85
1.85
0.13
-1.34
-2.64
-3.86
-5.04
-6.19
-7.22
-8.06
-8.65
-9.03
-9.34
-9.82
-10.76
-12.32
-14.48
-16.95
-19.21
-20.70
-20.97
-19.81
-17.34
-13.93
-10.12
-6.42
-3.24
-0.74
1.10
2.38
3.29
3.93
4.39
4.73
5.05
5.41
5.86
6.37
6.79
7.01
6.94
6.62
6.20
5.83
5.61
5.58
5.71
5.95
6.21
6.36
6.28
5.80
4.90
3.61
2.05
0.37
-1.34
-3.02
-4.59
-5.99
-7.15
-8.06
-8.85
-9.80
-11.13
-12.93
-14.96
-16.79
-17.90
-17.93
-16.81
-14.80
-12.34
-9.91
-7.79
-6.06
-4.61
-3.25
-1.85
-0.41
0.97
2.13
2.97
3.53
3.91
4.22
4.52
4.76
4.80
4.55
4.06
3.53
3.25
3.40
3.98
4.71
5.16
4.94
3.87
2.10
-0.01
-2.05
-3.73
-4.94
-5.75
-6.32
-6.83
-7.45
-8.28
-9.39
-10.75
-12.21
-13.52
-14.35
-14.45
-13.70
-12.18
-10.13
-7.85
-5.58
-3.43
-1.41
0.55
2.50
4.41
6.17
7.63
8.70
9.35
9.66
9.78
9.84
9.88
9.89
9.80
9.59
9.26
8.89
8.55
8.23
7.88
7.36
6.60
5.54
4.24
2.84
1.49
0.33
-0.62
-1.44
-2.38
-3.70
-5.58
-8.02
-10.77
-13.40
-15.44
-16.53
-16.47
-15.31
-13.25
-10.64
-7.85
-5.19
-2.87
-0.95
0.70
2.23
3.80
5.47
7.14
8.67
9.90
10.75
11.17
11.15
10.71
9.88
8.76
7.54
6.42
5.62
5.19
5.07
5.04
4.79
4.07
2.76
0.93
-1.20
-3.29
-5.05
-6.28
-7.02
-7.54
-8.18
-9.34
-11.18
-13.62
-16.31
-18.69
-20.20
-20.47
-19.39
-17.18
-14.30
-11.22
-8.36
-5.89
-3.78
-1.84
0.14
2.29
4.63
7.02
9.26
11.16
12.56
13.36
13.56
13.29
12.71
12.03
11.43
10.97
10.61
10.29
9.94
9.55
9.15
8.69
8.10
7.24
5.97
4.30
2.34
0.25
-1.78
-3.63
-5.22
-6.50
-7.50
-8.28
-9.04
-10.05
-11.64
-13.93
-16.81
-19.86
-22.50
-24.12
-24.32
-23.02
-20.50
-17.19
-13.58
-10.03
-6.70
-3.62
-0.72
2.08
4.76
7.31
9.63
11.65
13.32
14.57
15.38
15.77
15.77
15.45
14.93
14.32
13.74
13.28
13.02
12.93
12.92
12.81
12.38
11.52
10.21
8.62
6.96
5.43
4.14
3.09
2.16
1.25
0.26
-0.86
-2.15
-3.57
-5.07
-6.56
-7.90
-9.03
-9.99
-10.96
-12.17
-13.85
-16.03
-18.51
-20.93
-22.83
-23.80
-23.58
-22.09
-19.45
-15.95
-12.03
-8.12
-4.60
-1.65
0.76
2.79
4.67
6.55
8.48
10.41
12.21
13.78
15.01
15.81
16.11
15.89
15.25
14.34
13.42
12.71
12.30
12.15
12.03
11.71
11.02
9.95
8.63
7.28
6.05
4.96
3.92
2.80
1.48
-0.07
-1.81
-3.62
-5.38
-6.99
-8.39
-9.55
-10.45
-11.16
-11.77
-12.49
-13.54
-15.12
-17.24
-19.68
-21.99
-23.59
-24.02
-23.06
-20.82
-17.68
-14.15
-10.64
-7.43
-4.58
-2.04
0.28
2.46
4.49
6.32
7.87
9.05
9.84
10.27
10.42
10.38
10.25
10.11
10.02
10.06
10.25
10.53
10.74
10.67
10.13
9.05
7.56
5.90
4.38
3.20
2.37
1.75
1.08
0.18
-1.02
-2.40
-3.79
-5.05
-6.13
-7.17
-8.37
-9.88
-11.76
-13.84
-15.81
-17.25
-17.80
-17.28
-15.71
-13.31
-10.43
-7.41
-4.48
-1.75
0.81
3.28
5.74
8.14
10.36
12.27
13.71
14.64
15.09
15.12
14.82
14.25
13.50
12.68
11.97
11.51
11.37
11.46
11.59
11.57
11.28
10.71
9.92
9.01
8.00
6.89
5.68
4.39
3.07
1.77
0.49
-0.81
-2.16
-3.53
-4.89
-6.20
-7.49
-8.84
-10.40
-12.28
-14.52
-16.94
-19.21
-20.87
-21.51
-20.90
-19.10
-16.46
-13.45
-10.52
-7.93
-5.74
-3.81
-1.95
0.02
2.15
4.39
6.58
8.51
10.04
11.06
11.59
11.74
11.66
11.52
11.40
11.34
11.30
11.23
11.10
10.88
10.54
10.08
9.43
8.51
7.23
5.61
3.72
1.72
-0.18
-1.88
-3.35
-4.69
-6.01
-7.36
-8.76
-10.13
-11.39
-12.61
-13.90
-15.45
-17.34
-19.48
-21.57
-23.18
-23.90
-23.45
-21.78
-19.05
-15.61
-11.86
-8.18
-4.87
-2.04
0.37
2.52
4.59
6.68
8.74
10.57
11.96
12.75
12.94
12.70
12.23
11.78
11.47
11.29
11.15
10.92
10.55
10.04
9.48
8.89
8.30
7.65
6.87
5.93
4.84
3.66
2.42
1.09
-0.40
-2.08
-3.87
-5.62
-7.16
-8.39
-9.36
-10.28
-11.47
-13.19
-15.58
-18.46
-21.33
-23.49
-24.26
-23.25
-20.53
-16.64
-12.31
-8.29
-5.01
-2.57
-0.75
0.78
2.30
3.95
5.72
7.53
9.23
10.68
11.80
12.53
12.87
12.87
12.59
12.13
11.58
11.01
10.46
9.92
9.38
8.82
8.21
7.49
6.62
5.52
4.14
2.51
0.73
-1.02
-2.57
-3.83
-4.82
-5.68
-6.61
-7.76
-9.20
-10.90
-12.80
-14.81
-16.83
-18.72
-20.24
-21.09
-21.00
-19.87
-17.78
-15.05
-12.09
-9.22
-6.55
-4.03
-1.51
1.05
3.57
5.83
7.66
9.01
9.96
10.62
11.12
11.39
11.34
10.86
9.95
8.78
7.63
6.77
6.37
6.38
6.58
6.68
6.40
5.64
4.39
2.81
1.05
-0.73
-2.46
-4.09
-5.61
-7.05
-8.51
-10.15
-12.15
-14.62
-17.47
-20.38
-22.85
-24.37
-24.60
-23.55
-21.59
-19.32
-17.28
-15.74
-14.64
-13.58
-12.17
-10.17
-7.67
-5.07
-2.92
-1.70
-1.58
-2.42
-3.77
-5.09
-5.98
-6.35
-6.47
-6.82
-7.85
-9.85
-12.78
-16.24
-19.42
-21.18
-20.12
-14.99
-5.18
8.86
25.49
42.24
56.74
67.42
73.98
77.10
77.77
76.45
72.85
66.15
55.81
42.21
26.85
11.83
-0.93
-10.49
-17.14
-22.09
-26.67
-31.66
-36.81
-41.05
-43.07
-41.95
-37.55
-30.45
-21.59
-11.85
-1.87
7.89
16.97
24.75
30.54
33.75
34.20
32.16
28.21
22.89
16.58
9.57
2.37
-4.10
-8.51
-9.62
-6.90
-0.95
6.54
13.46
18.05
19.62
18.63
16.21
13.47
10.92
8.28
4.72
-0.66
-8.30
-17.91
-28.38
-38.14
-45.51
-49.18
-48.57
-43.90
-36.08
-26.38
-16.13
-6.41
2.02
8.75
13.62
16.61
17.83
17.29
14.97
10.86
5.30
-0.89
-6.34
-9.52
-9.27
-5.40
1.22
8.98
16.24
21.94
25.91
28.52
30.25
31.25
31.15
29.29
25.07
18.32
9.56
0.09
-8.30
-13.81
-15.29
-12.74
-7.42
-1.37
3.47
5.98
6.17
4.89
3.09
1.14
-1.40
-5.46
-11.75
-20.13
-29.36
-37.42
-42.31
-42.83
-38.98
-31.87
-23.04
-13.77
-4.68
4.14
12.80
21.12
28.57
34.53
38.64
41.03
41.98
41.59
39.44
34.80
27.06
16.34
3.64
-9.24
-20.21
-27.42
-29.61
-26.39
-18.29
-6.70
6.40
18.85
28.90
35.62
39.09
40.21
40.13
39.72
39.17
37.95
35.12
29.70
21.13
9.48
-4.47
-19.49
-34.15
-47.19
-57.80
-65.59
-70.57
-72.93
-72.98
-71.09
-67.80
-63.70
-59.30
-54.87
-50.37
-45.62
-40.48
-35.10
-29.85
-25.19
-21.38
-18.28
-15.40
-12.05
-7.50
-1.17
7.19
17.39
28.66
39.78
49.39
56.34
60.19
61.16
59.91
57.15
53.29
48.40
42.38
35.26
27.36
19.22
11.36
4.04
-2.84
-9.50
-16.07
-22.34
-27.74
-31.43
-32.60
-30.88
-26.55
-20.50
-14.04
-8.42
-4.47
-2.34
-1.60
-1.53
-1.40
-0.82
0.25
1.43
2.17
1.95
0.50
-2.06
-5.23
-8.31
-10.63
-11.78
-11.66
-10.38
-8.01
-4.54
0.04
5.51
11.27
16.43
20.19
22.27
23.06
23.39
24.04
25.13
26.02
25.55
22.73
17.29
9.90
1.89
-5.31
-10.62
-13.51
-13.96
-12.33
-9.21
-5.37
-1.67
1.09
2.43
2.31
1.14
-0.34
-1.35
-1.34
-0.11
2.17
4.94
7.44
8.89
8.76
6.98
4.06
0.91
-1.51
-2.59
-2.36
-1.39
-0.52
-0.37
-1.03
-2.04
-2.66
-2.39
-1.23
0.22
1.11
0.79
-0.89
-3.44
-6.09
-8.23
-9.70
-10.88
-12.40
-14.74
-17.91
-21.41
-24.35
-25.83
-25.22
-22.36
-17.53
-11.36
-4.68
1.64
6.77
10.09
11.33
10.73
8.99
7.17
6.33
7.05
9.25
12.06
14.22
14.59
12.61
8.47
3.00
-2.71
-7.70
-11.25
-13.02
-12.89
-10.95
-7.46
-2.83
2.36
7.50
12.07
15.83
18.81
21.32
23.75
26.40
29.24
31.94
33.95
34.67
33.68
30.94
26.65
21.14
14.73
7.71
0.56
-5.93
-10.75
-13.03
-12.44
-9.41
-4.93
-0.13
4.09
7.27
9.20
9.75
8.80
6.42
3.05
-0.51
-3.31
-4.79
-5.04
-4.77
-4.91
-6.03
-8.07
-10.41
-12.24
-12.96
-12.47
-11.12
-9.41
-7.74
-6.27
-4.97
-3.79
-2.85
-2.40
-2.75
-4.02
-5.99
-8.18
-9.98
-10.91
-10.84
-9.98
-8.76
-7.63
-6.86
-6.42
-6.10
-5.61
-4.85
-3.97
-3.28
-3.09
-3.50
-4.36
-5.40
-6.37
-7.24
-8.16
-9.39
-11.07
-13.11
-15.26
-17.12
-18.33
-18.64
-17.97
-16.39
-14.14
-11.61
-9.14
-6.98
-5.10
-3.28
-1.22
1.33
4.33
7.54
10.60
13.15
14.97
15.91
15.94
15.07
13.44
11.31
9.05
7.02
5.49
4.50
3.93
3.58
3.31
3.10
2.95
2.80
2.54
1.99
0.98
-0.48
-2.30
-4.24
-6.06
-7.59
-8.79
-9.75
-10.65
-11.72
-13.12
-14.87
-16.87
-18.87
-20.56
-21.63
-21.83
-21.04
-19.30
-16.80
-13.89
-10.90
-8.06
-5.44
-2.93
-0.42
2.15
4.69
7.01
8.91
10.32
11.29
11.97
12.47
12.85
13.03
12.97
12.63
12.08
11.47
10.95
10.61
10.45
10.37
10.17
9.69
8.81
7.45
5.65
3.48
1.10
-1.25
-3.37
-5.12
-6.52
-7.76
-9.11
-10.82
-12.97
-15.41
-17.82
-19.85
-21.18
-21.64
-21.14
-19.70
-17.40
-14.38
-10.89
-7.26
-3.79
-0.67
2.08
4.58
6.94
9.21
11.25
12.85
13.87
14.30
14.33
14.23
14.24
14.48
14.93
15.49
16.08
16.66
17.17
17.49
17.44
16.78
15.36
13.22
10.57
7.75
5.08
2.77
0.83
-0.78
-2.14
-3.27
-4.16
-4.83
-5.46
-6.30
-7.62
-9.59
-12.12
-14.88
-17.39
-19.10
-19.62
-18.77
-16.66
-13.61
-10.15
-6.75
-3.72
-1.17
1.05
3.17
5.37
7.65
9.85
11.73
13.09
13.86
14.09
13.91
13.44
12.80
12.10
11.46
10.96
10.66
10.53
10.42
10.20
9.73
8.97
7.95
6.72
5.35
3.88
2.30
0.66
-1.02
-2.67
-4.26
-5.75
-7.13
-8.40
-9.54
-10.59
-11.61
-12.75
-14.15
-15.90
-17.97
-20.16
-22.10
-23.38
-23.61
-22.58
-20.34
-17.17
-13.51
-9.83
-6.47
-3.56
-1.06
1.21
3.42
5.67
7.92
10.02
11.78
13.04
13.77
14.01
13.96
13.78
13.63
13.54
13.50
13.45
13.32
13.04
12.57
11.89
10.95
9.73
8.26
6.58
4.81
3.10
1.55
0.19
-1.05
-2.31
-3.67
-5.13
-6.57
-7.81
-8.77
-9.49
-10.19
-11.16
-12.66
-14.73
-17.14
-19.46
-21.14
-21.68
-20.77
-18.46
-15.08
-11.19
-7.33
-3.89
-0.99
1.49
3.76
5.99
8.21
10.30
12.09
13.41
14.19
14.45
14.28
13.80
13.16
12.46
11.82
11.33
11.03
10.91
10.87
10.77
10.43
9.77
8.76
7.45
5.95
4.35
2.72
1.08
-0.51
-2.02
-3.39
-4.58
-5.58
-6.46
-7.31
-8.28
-9.53
-11.14
-13.15
-15.46
-17.88
-20.09
-21.77
-22.61
-22.41
-21.18
-19.06
-16.30
-13.20
-9.98
-6.77
-3.63
-0.60
2.24
4.76
6.79
8.22
9.00
9.22
9.06
8.75
8.47
8.34
8.35
8.43
8.46
8.38
8.15
7.80
7.36
6.87
6.37
5.79
5.07
4.12
2.89
1.41
-0.17
-1.68
-3.04
-4.25
-5.49
-6.97
-8.85
-11.14
-13.67
-16.24
-18.59
-20.55
-21.96
-22.69
-22.65
-21.84
-20.34
-18.33
-16.07
-13.81
-11.71
-9.81
-8.11
-6.54
-5.07
-3.73
-2.65
-2.03
-2.10
-3.01
-4.74
-7.02
-9.43
-11.44
-12.66
-12.88
-12.12
-10.46
-8.03
-4.82
-0.82
3.92
9.21
14.68
19.93
24.66
28.78
32.34
35.39
37.91
39.78
40.89
41.33
41.35
41.28
41.29
41.26
40.82
39.50
37.00
33.33
28.77
23.77
18.66
13.60
8.52
3.21
-2.45
-8.45
-14.52
-20.16
-24.75
-27.63
-28.31
-26.50
-22.25
-15.94
-8.37
-0.68
5.89
10.36
12.38
12.45
11.79
11.92
14.14
19.06
26.41
35.19
44.03
51.59
57.00
59.95
60.83
60.48
59.85
59.66
60.06
60.76
61.16
60.83
59.67
58.01
56.49
55.95
57.29
61.35
68.62
78.86
90.93
102.96
113.11
120.57
126.06
131.57
139.29
150.25
163.58
176.77
186.70
190.91
188.38
179.54
165.54
147.51
126.03
101.17
72.71
40.77
6.28
-28.82
-61.73
-89.46
-109.81
-122.11
-127.44
-128.25
-127.46
-127.76
-131.18
-139.04
-152.00
-169.86
-191.52
-215.16
-238.70
-260.70
-280.51
-298.38
-314.10
-326.27
-332.19
-329.00
-315.70
-294.65
-271.49
-253.48
-246.74
-253.56
-271.42
-294.13
-314.23
-325.93
-326.74
-316.98
-298.84
-274.85
-246.76
-215.35
-181.07
-144.23
-105.77
-67.04
-28.56
9.59
47.56
85.55
123.94
162.96
203.69
246.90
292.74
341.25
391.07
439.30
482.08
515.75
537.68
547.88
548.17
535.85
510.91
476.47
438.25
401.84
372.85
350.01
331.46
316.01
302.58
291.06
280.93
270.68
258.07
240.79
216.83
186.15
150.47
113.28
80.26
57.14
47.64
51.77
65.51
81.71
93.11
94.18
82.51
59.54
28.88
-5.56
-40.90
-75.57
-109.08
-140.78
-169.80
-195.29
-216.57
-233.76
-248.09
-261.45
-275.67
-291.91
-310.26
-330.20
-351.14
-372.33
-392.75
-410.69
-423.68
-429.00
-424.64
-410.11
-386.73
-356.98
-323.55
-288.40
-252.58
-216.57
-180.93
-146.59
-114.58
-85.52
-59.24
-34.88
-11.48
11.40
33.47
53.91
72.00
87.70
101.77
115.46
129.90
145.49
161.71
177.20
190.14
198.80
201.95
199.30
191.64
180.79
169.13
158.82
151.09
145.72
141.24
135.71
127.66
116.85
104.36
92.05
81.73
74.35
69.69
66.47
62.90
57.32
48.70
36.88
22.43
6.31
-10.67
-28.17
-46.60
-66.88
-90.27
-118.09
-151.41
-190.40
-233.72
-277.93
-317.67
-346.87
-360.71
-357.59
-340.11
-314.39
-287.74
-265.79
-250.22
-238.35
-224.64
-203.41
-171.43
-129.15
-80.39
-30.64
14.74
51.89
78.78
94.66
99.49
93.70
78.61
56.91
32.58
10.07
-7.17
-17.84
-23.03
-25.35
-27.43
-30.69
-34.82
-38.33
-39.54
-37.62
-32.94
-26.95
-21.56
-18.60
-19.13
-23.23
-29.89
-37.25
-43.35
-46.75
-47.00
-44.50
-40.02
-34.17
-27.33
-19.92
-12.88
-7.67
-5.79
-7.89
-13.25
-19.91
-25.49
-28.33
-28.11
-25.71
-22.44
-19.13
-15.77
-11.68
-6.21
0.78
8.83
17.16
25.19
32.58
39.29
45.16
49.80
52.66
53.44
52.42
50.54
49.07
49.18
51.52
56.13
62.73
70.98
80.73
91.98
104.64
118.37
132.60
146.64
159.77
171.12
179.47
183.26
181.13
173.11
161.69
152.05
150.78
163.13
190.20
227.71
267.39
300.51
321.48
329.56
327.81
319.95
307.44
288.70
260.89
222.82
176.91
128.92
85.38
50.40
23.77
1.15
-23.92
-57.49
-102.85
-159.10
-220.65
-277.94
-319.34
-334.23
-316.71
-268.26
-198.13
-120.88
-51.74
-1.93
24.02
27.71
14.35
-10.68
-43.64
-82.36
-124.97
-169.03
-211.97
-252.36
-290.63
-328.12
-365.53
-400.57
-427.67
-439.57
-430.30
-397.22
-341.76
-268.57
-184.50
-98.34
-20.98
35.15
58.89
44.73
-3.25
-70.93
-138.18
-186.15
-203.97
-191.41
-156.65
-111.12
-64.62
-23.13
10.53
35.07
49.88
55.15
51.97
41.44
23.37
