1660749511.00
64.000000
-0.00
-0.00
-0.00
-0.00
-0.00
-0.00
-0.00
-0.00
-0.00
-0.00
0.00
0.01
0.01
-0.00
-0.03
-0.05
-0.05
0.00
0.13
0.36
0.66
1.01
1.37
1.72
2.06
2.40
2.79
3.24
3.80
4.42
5.06
5.66
6.20
6.68
7.15
7.68
8.31
9.14
10.09
11.04
11.88
12.56
13.14
13.76
14.65
15.96
17.91
20.32
22.90
25.38
27.58
29.57
31.68
34.32
37.81
42.54
48.15
54.10
59.83
64.97
69.58
74.14
79.34
85.71
93.76
103.00
112.62
121.73
129.77
136.75
143.30
150.75
157.77
166.64
177.95
191.79
206.97
220.57
228.25
225.36
208.53
176.87
132.76
80.05
23.07
-34.94
-92.44
-149.16
-205.23
-260.38
-313.74
-363.87
-409.81
-450.87
-486.47
-515.74
-537.30
-549.39
-550.24
-538.73
-514.62
-479.11
-434.30
-382.86
-327.45
-270.34
-213.22
-157.35
-103.73
-53.18
-6.70
34.83
70.69
100.55
124.54
143.18
157.24
167.49
174.61
179.02
180.93
180.43
177.70
173.00
166.79
159.62
152.03
144.41
136.91
129.47
121.85
113.83
105.33
96.52
87.75
79.46
71.95
65.30
59.26
53.40
47.26
40.62
33.60
26.65
20.28
14.93
10.69
7.35
4.43
1.46
-2.05
-6.46
-11.97
-18.29
-24.42
-28.57
-28.65
-23.15
-12.02
2.96
18.70
31.93
40.52
44.11
43.90
41.77
39.27
37.00
34.82
32.35
29.44
26.41
23.73
21.68
20.12
18.75
17.29
15.86
14.87
14.79
15.71
17.18
18.34
18.30
16.64
13.56
9.76
6.10
3.22
1.34
0.38
0.06
0.10
0.26
0.36
0.26
-0.12
-0.73
-1.40
-1.95
-2.23
-2.21
-1.95
-1.60
-1.29
-1.13
-1.21
-1.56
-2.18
-2.90
-3.53
-3.78
-3.49
-2.67
-1.52
-0.40
0.38
0.71
0.70
0.62
0.83
1.62
3.08
5.09
7.38
9.58
11.37
12.60
13.27
13.55
13.62
13.53
13.21
12.50
11.23
9.40
7.23
4.88
2.51
0.17
-2.21
-4.71
-7.34
-9.95
-12.27
-14.00
-14.96
-15.15
-14.79
-14.20
-13.67
-13.35
-13.15
-12.91
-12.45
-11.76
-10.95
-10.23
-9.75
-9.53
-9.44
-9.32
-9.09
-8.76
-8.45
-8.18
-7.88
-7.35
-6.39
-4.95
-3.20
-1.52
-0.30
0.21
0.04
-0.49
-0.91
-0.79
0.06
1.51
3.20
4.76
5.94
6.77
7.40
7.97
8.45
8.64
8.27
7.22
5.57
3.61
1.65
-0.10
-1.63
-3.02
-4.37
-5.66
-6.76
-7.54
-7.83
-7.63
-7.05
-6.31
-5.60
-5.07
-4.76
-4.63
-4.65
-4.77
-5.00
-5.32
-5.63
-5.71
-5.34
-4.36
-2.77
-0.79
1.27
3.10
4.55
5.66
6.51
7.22
7.81
8.25
8.53
8.68
8.78
8.91
9.09
9.30
9.46
9.50
9.34
8.90
8.14
7.05
5.71
4.25
2.80
1.38
-0.06
-1.62
-3.37
-5.26
-7.14
-8.84
-10.20
-11.14
-11.67
-11.88
-11.91
-11.93
-12.04
-12.24
-12.38
-12.17
-11.28
-9.52
-6.98
-3.99
-1.01
1.59
3.61
5.07
6.11
6.84
7.26
7.31
6.89
6.04
4.96
3.94
3.28
3.10
3.34
3.76
4.08
4.14
3.97
3.72
3.62
3.73
3.97
4.12
3.95
3.38
2.47
1.39
0.28
-0.79
-1.82
-2.85
-3.85
-4.71
-5.35
-5.80
-6.19
-6.76
-7.64
-8.75
-9.73
-10.03
-9.19
-7.00
-3.70
0.10
3.70
6.53
8.34
9.23
9.49
9.41
9.13
8.68
8.05
7.30
6.62
6.23
6.25
6.64
7.21
7.64
7.64
7.09
6.02
4.65
3.27
2.12
1.30
0.75
0.31
-0.17
-0.75
-1.38
-1.94
-2.37
-2.69
-3.01
-3.43
-4.00
-4.71
-5.50
-6.38
-7.44
-8.74
-10.21
-11.61
-12.49
-12.38
-10.96
-8.25
-4.66
-0.80
2.67
5.33
7.07
8.06
8.60
8.92
9.07
8.97
8.51
7.71
6.72
5.76
5.04
4.62
4.41
4.22
3.91
3.41
2.78
2.20
1.85
1.83
2.08
2.39
2.46
2.03
1.01
-0.46
-2.08
-3.55
-4.67
-5.46
-6.07
-6.73
-7.55
-8.55
-9.61
-10.63
-11.55
-12.35
-13.01
-13.41
-13.27
-12.27
-10.18
-7.09
-3.42
0.17
3.08
4.97
5.87
6.09
6.04
6.00
6.02
5.97
5.65
5.00
4.10
3.18
2.52
2.30
2.52
2.99
3.46
3.67
3.53
3.10
2.58
2.14
1.85
1.62
1.30
0.77
0.01
-0.86
-1.67
-2.30
-2.78
-3.20
-3.71
-4.40
-5.23
-6.09
-6.88
-7.62
-8.36
-9.16
-9.89
-10.17
-9.52
-7.57
-4.31
-0.20
3.97
7.36
9.44
10.15
9.90
9.27
8.74
8.52
8.44
8.19
7.54
6.47
5.24
4.17
3.54
3.42
3.65
3.98
4.22
4.28
4.20
4.07
3.96
3.86
3.72
3.49
3.18
2.83
2.49
2.13
1.72
1.23
0.74
0.41
0.42
0.81
1.41
1.84
1.71
0.90
-0.24
-0.91
-0.16
2.69
7.63
13.93
20.37
25.75
29.37
31.19
31.79
32.03
32.74
34.62
38.13
43.35
49.64
55.44
58.42
56.26
47.79
33.85
17.22
1.70
-9.37
-14.32
-13.50
-8.67
-1.94
4.93
10.77
14.76
16.17
14.72
10.97
6.60
4.04
5.42
11.58
21.58
33.08
43.33
50.14
52.58
51.13
47.46
43.94
43.11
46.94
55.97
68.86
82.49
93.06
97.72
95.94
89.98
84.06
82.44
87.58
99.03
113.46
125.94
131.59
127.21
112.11
88.15
58.90
28.48
0.54
-22.34
-38.59
-47.32
-48.61
-43.35
-33.48
-22.01
-12.43
-7.64
-8.83
-15.23
-24.90
-36.38
-49.20
-63.47
-78.85
-93.62
-104.63
-108.29
-102.13
-86.04
-63.18
-38.13
-15.08
3.20
15.33
20.87
20.15
14.47
6.12
-4.05
-14.75
-24.15
-30.61
-33.88
-35.16
-35.59
-34.79
-30.69
-25.10
-19.96
-16.54
-15.46
-18.27
-27.74
-46.21
-74.08
-109.42
-155.61
-213.45
-278.45
-341.39
-393.34
-429.64
-449.98
-457.05
-455.18
-458.23
-477.33
-515.34
-566.34
-621.35
-673.52
-718.80
-755.38
-727.00
-604.84
-404.32
-177.76
25.38
182.95
295.30
372.42
425.13
461.86
479.49
475.48
453.42
423.31
395.44
375.11
363.22
357.83
356.26
349.38
331.02
301.65
267.74
236.57
210.92
191.00
174.83
160.09
141.05
114.46
81.73
48.01
20.92
1.90
-9.96
-16.96
-21.45
-27.43
-37.72
-52.74
-70.14
-85.74
-95.11
-93.76
-79.13
-52.11
-18.11
15.33
41.64
57.69
64.27
64.34
61.60
58.22
54.46
49.50
42.79
34.91
27.48
22.10
19.41
19.19
20.38
21.62
21.95
21.16
19.69
18.28
17.57
17.64
18.07
18.02
16.66
13.63
9.30
4.53
0.28
-2.79
-4.65
-5.75
-6.94
-9.00
-12.29
-16.52
-20.96
-24.81
-27.52
-29.12
-30.09
-31.12
-32.81
-35.40
-38.72
-42.48
-46.47
-50.53
-54.51
-58.09
-60.72
-61.66
-60.95
-58.48
-54.47
-49.44
-44.05
-38.96
-34.61
-31.19
-28.71
-27.13
-26.21
-25.72
-25.25
-24.26
-22.05
-18.00
-11.73
-3.34
6.68
17.57
28.43
38.39
46.73
53.10
57.54
60.45
62.44
64.05
65.48
66.38
66.03
63.62
58.67
51.24
41.82
31.07
19.54
7.50
-5.01
-18.00
-31.32
-44.55
-57.10
-68.32
-77.61
-84.55
-88.82
-90.26
-88.90
-84.98
-78.97
-71.49
-63.07
-53.97
-44.15
-33.41
-21.81
-9.89
1.20
9.97
15.17
16.30
13.93
9.54
5.09
2.32
2.26
4.96
9.63
15.05
19.99
23.67
25.89
26.90
27.13
26.96
26.61
26.13
25.53
24.89
24.29
23.75
23.08
21.90
19.74
16.22
11.20
5.06
-1.46
-7.34
-11.55
-13.38
-12.66
-9.79
-5.59
-0.92
3.64
7.96
12.21
16.59
20.91
24.57
26.71
26.62
24.18
19.96
15.04
10.56
7.36
5.64
5.10
5.09
4.99
4.32
2.88
0.69
-2.12
-5.30
-8.49
-11.22
-12.97
-13.22
-11.72
-8.66
-4.75
-1.08
1.22
1.38
-0.64
-4.06
-7.47
-9.38
-8.70
-5.13
0.86
8.34
16.35
24.27
31.94
39.47
47.00
54.52
61.80
68.52
74.34
78.93
81.93
83.02
81.93
78.66
73.60
67.50
61.25
55.56
50.71
46.53
42.51
37.99
32.50
25.93
18.59
11.15
4.49
-0.63
-3.77
-5.02
-5.03
-4.80
-5.48
-7.95
-12.66
-19.46
-27.67
-36.30
-44.28
-50.65
-54.70
-56.02
-54.52
-50.47
-44.49
-37.49
-30.47
-24.19
-19.04
-14.82
-10.90
-6.52
-1.08
5.55
12.99
20.50
27.26
32.69
36.65
39.47
41.85
44.56
48.17
52.78
57.87
62.52
65.57
66.17
63.98
59.33
53.12
46.52
40.65
36.29
33.79
32.97
33.16
33.26
31.95
27.99
20.67
10.20
-2.27
-14.86
-25.48
-32.44
-34.80
-32.53
-26.40
-17.78
-8.33
0.31
6.83
10.62
11.88
11.66
11.39
12.35
15.08
19.17
23.45
26.57
27.61
26.46
23.76
20.49
17.49
15.10
13.23
11.54
9.79
7.91
6.01
4.26
2.73
1.45
0.47
-0.13
-0.19
0.43
1.73
3.64
5.98
8.56
11.23
13.84
16.18
18.08
19.37
20.03
20.21
20.16
20.17
20.41
20.94
21.71
22.65
23.72
24.96
26.39
27.99
29.65
31.23
32.60
33.67
34.25
34.03
32.49
28.94
22.80
13.83
2.45
-10.17
-22.32
-32.18
-38.30
-40.03
-37.61
-32.02
-24.58
-16.68
-9.55
-4.18
-1.25
-0.97
-2.92
-6.05
-8.96
-10.43
-9.90
-7.72
-4.94
-2.78
-2.11
-3.15
-5.53
-8.63
-11.91
-15.11
-18.21
-21.29
-24.34
-27.19
-29.50
-30.81
-30.71
-28.96
-25.56
-20.74
-14.85
-8.26
-1.30
5.62
12.01
17.29
21.05
23.29
24.66
26.34
29.61
35.24
43.00
51.63
59.20
63.96
65.01
62.72
58.53
54.29
51.52
50.73
51.38
52.25
52.18
50.69
48.21
45.86
44.90
46.11
49.48
54.17
58.91
62.41
63.78
62.81
59.90
55.86
51.59
47.74
44.39
40.80
35.47
26.42
11.92
-8.67
-34.25
-61.90
-87.61
-107.70
-120.02
-124.68
-123.59
-119.41
-114.26
-109.13
-103.98
-98.55
-92.97
-87.92
-84.22
-82.15
-81.10
-79.88
-77.27
-72.74
-66.67
-60.20
-54.61
-50.79
-48.91
-48.47
-48.59
-48.40
-47.36
-45.41
-42.91
-40.54
-38.92
-38.41
-38.89
-39.77
-40.15
-39.27
-36.84
-33.23
-29.41
-26.58
-25.64
-26.90
-29.90
-33.68
-37.09
-39.26
-39.77
-38.71
-36.51
-33.73
-30.86
-28.29
-26.21
-24.71
-23.70
-22.91
-21.95
-20.32
-17.61
-13.59
-8.27
-1.88
5.21
12.60
19.88
26.64
32.62
37.65
41.85
45.51
48.94
52.33
55.52
58.07
59.46
59.42
58.06
55.89
53.56
51.52
49.86
48.26
46.25
43.47
39.80
35.40
30.61
25.76
21.16
17.04
13.61
11.05
9.53
9.12
9.80
11.38
13.65
16.39
19.42
22.52
25.38
27.49
28.23
27.09
23.98
19.41
14.48
10.49
8.48
8.79
10.99
14.10
17.11
19.29
20.46
20.76
20.48
19.78
18.75
17.46
16.05
14.77
13.76
13.01
12.22
10.94
8.73
5.36
0.89
-4.35
-9.84
-14.97
-19.17
-21.95
-23.02
-22.37
-20.30
-17.34
-14.16
-11.31
-9.07
-7.38
-5.98
-4.54
-2.93
-1.35
-0.13
0.37
0.12
-0.58
-1.21
-1.35
-0.96
-0.39
-0.28
-1.08
-2.79
-4.90
-6.63
-7.35
-6.97
-5.97
-5.21
-5.39
-6.66
-8.50
-9.88
-9.69
-7.20
-2.25
4.62
12.41
19.74
25.16
27.23
24.91
17.84
6.76
-6.45
-19.13
-28.62
-33.21
-32.68
-28.36
-22.46
-17.18
-13.88
-12.72
-12.94
-13.35
-12.94
-11.19
-8.03
-3.71
1.41
6.86
12.08
16.37
19.01
19.51
17.85
14.71
11.31
9.05
8.94
11.03
14.29
16.91
17.04
13.71
7.32
-0.42
-7.22
-11.14
-11.46
-8.82
-4.85
-1.38
0.33
-0.11
-2.31
-5.53
-9.08
-12.57
-15.82
-18.74
-21.14
-22.85
-23.80
-24.29
-24.96
-26.63
-29.86
-34.60
-39.97
-44.46
-46.44
-44.83
-39.53
-31.54
-22.58
-14.44
-8.39
-4.89
-3.55
-3.42
-3.30
-2.15
0.66
5.10
10.42
15.36
18.57
19.16
17.14
13.46
9.63
7.12
6.79
8.64
11.97
15.75
19.03
21.10
21.57
20.29
17.34
13.14
8.34
3.80
0.26
-1.79
-2.31
-1.60
-0.17
1.40
2.55
2.81
1.89
-0.16
-2.82
-5.13
-6.00
-4.70
-1.27
3.32
7.52
9.82
9.40
6.40
1.85
-2.89
-6.65
-8.88
-9.71
-9.75
-9.69
-10.04
-10.98
-12.38
-13.98
-15.55
-17.02
-18.47
-20.04
-21.82
-23.75
-25.59
-27.06
-27.79
-27.49
-25.91
-22.95
-18.73
-13.60
-8.15
-3.11
0.94
3.71
5.33
6.34
7.40
8.97
11.08
13.15
14.31
13.77
11.28
7.43
3.43
0.70
0.25
2.26
6.13
10.81
15.30
19.02
21.77
23.51
24.04
23.00
20.10
15.44
9.77
4.24
0.08
-1.90
-1.59
0.49
3.51
6.62
9.25
11.02
11.73
11.24
9.55
6.93
3.97
1.43
-0.02
-0.18
0.60
1.48
1.50
-0.00
-3.09
-7.32
-11.94
-16.26
-19.83
-22.52
-24.34
-25.29
-25.31
-24.41
-22.76
-20.82
-19.17
-18.31
-18.37
-19.05
-19.64
-19.34
-17.52
-13.94
-8.80
-2.65
3.77
9.65
14.26
17.08
17.88
16.93
15.03
13.31
12.92
14.54
18.08
22.69
27.10
30.14
31.16
30.19
27.76
24.52
20.96
17.28
13.50
9.67
5.87
2.18
-1.43
-5.25
-9.63
-14.80
-20.52
-26.06
-30.35
-32.36
-31.52
-27.97
-22.39
-15.83
-9.30
-3.58
0.88
3.88
5.47
5.98
5.92
5.88
6.33
7.36
8.67
9.68
9.91
9.25
7.96
6.53
5.30
4.35
3.46
2.36
1.00
-0.41
-1.57
-2.36
-2.97
-3.86
-5.47
-7.90
-10.85
-13.70
-15.77
-16.57
-15.93
-13.98
-11.17
-8.21
-6.04
-5.53
-7.18
-10.72
-15.03
-18.50
-19.60
-17.58
-12.78
-6.34
0.32
6.11
10.59
13.88
16.32
18.18
19.53
20.32
20.58
20.53
20.45
20.57
20.78
20.57
19.12
15.69
10.04
2.71
-4.92
-11.13
-14.44
-14.30
-11.21
-6.46
-1.51
2.59
5.37
6.78
6.79
5.32
2.34
-1.76
-6.11
-9.55
-11.20
-10.93
-9.49
-8.12
-7.92
-9.26
-11.64
-14.01
-15.37
-15.18
-13.58
-11.12
-8.45
-6.03
-4.01
-2.38
-1.13
-0.29
-0.02
-0.37
-1.24
-2.36
-3.37
-4.02
-4.24
-4.14
-3.85
-3.38
-2.66
-1.58
-0.20
1.16
2.06
2.13
1.31
-0.06
-1.34
-1.94
-1.52
-0.19
1.60
3.27
4.43
4.96
5.03
4.97
5.06
5.41
5.92
6.28
6.07
4.90
2.63
-0.55
-4.11
-7.28
-9.39
-10.07
-9.38
-7.69
-5.49
-3.13
-0.74
1.71
4.25
6.78
9.06
10.83
11.88
12.10
11.54
10.33
8.71
7.04
5.67
4.86
4.62
4.67
4.56
3.93
2.70
1.11
-0.44
-1.64
-2.47
-3.22
-4.24
-5.73
-7.54
-9.20
-10.22
-10.29
-9.52
-8.43
-7.69
-7.93
-9.47
-12.17
-15.52
-18.68
-20.77
-21.03
-19.04
-14.90
-9.26
-3.20
2.02
5.41
6.57
5.92
4.49
3.50
3.80
5.56
8.25
11.00
13.08
14.22
14.60
14.66
14.73
14.93
15.21
15.49
15.86
16.52
17.59
18.97
20.21
20.59
19.33
15.94
10.51
3.89
-2.54
-7.20
-8.89
-7.29
-3.04
2.44
7.46
10.59
10.99
8.56
3.80
-2.35
-8.64
-13.76
-16.62
-16.64
-13.98
-9.54
-4.62
-0.48
2.09
2.86
2.07
0.18
-2.37
-5.24
-8.10
-10.64
-12.59
-13.80
-14.41
-14.79
-15.40
-16.57
-18.28
-20.13
-21.37
-21.21
-19.12
-15.04
-9.46
-3.38
2.01
5.59
6.71
5.38
2.29
-1.35
-4.27
-5.59
-5.12
-3.35
-1.22
0.40
1.04
0.76
-0.02
-0.74
-0.99
-0.55
0.70
2.81
5.69
8.94
11.84
13.50
13.25
11.02
7.45
3.65
0.73
-0.67
-0.56
0.53
1.86
2.81
3.02
2.38
0.97
-1.01
-3.22
-5.25
-6.64
-7.06
-6.46
-5.09
-3.46
-2.17
-1.71
-2.33
-3.98
-6.30
-8.75
-10.76
-11.85
-11.91
-11.20
-10.29
-9.87
-10.46
-12.12
-14.46
-16.76
-18.20
-18.18
-16.43
-13.05
-8.39
-2.98
2.54
7.51
11.34
13.69
14.63
14.65
14.56
15.15
16.80
19.33
22.04
24.04
24.73
24.09
22.71
21.51
21.23
22.12
23.80
25.37
25.74
24.03
19.75
12.99
4.32
-5.29
-14.72
-22.86
-28.86
-32.20
-32.76
-30.83
-26.99
-22.09
-17.12
-12.99
-10.40
-9.57
-10.19
-11.51
-12.60
-12.68
-11.39
-8.85
-5.60
-2.34
0.33
2.04
2.70
2.47
1.62
0.43
-0.85
-2.02
-2.89
-3.29
-3.11
-2.34
-1.13
0.18
1.20
1.56
1.12
0.06
-1.20
-2.10
-2.18
-1.22
0.70
3.26
6.05
8.65
10.80
12.25
12.91
12.74
11.88
10.68
9.54
8.83
8.61
8.62
8.35
7.38
5.69
3.75
2.43
2.51
4.34
7.58
11.37
14.64
16.54
16.63
14.87
11.50
6.83
1.23
-4.88
-10.89
-16.02
-19.55
-20.96
-20.15
-17.45
-13.52
-9.06
-4.78
-1.19
1.30
2.49
2.40
1.31
-0.22
-1.53
-2.10
-1.78
-0.84
0.19
0.81
0.78
0.13
-0.88
-2.12
-3.59
-5.38
-7.45
-9.48
-10.91
-11.19
-10.13
-8.06
-5.72
-3.97
-3.40
-4.09
-5.58
-7.08
-7.77
-7.03
-4.59
-0.56
4.56
9.96
14.62
17.54
18.04
16.01
12.12
7.64
4.07
2.61
3.70
6.88
10.96
14.56
16.58
16.60
14.88
12.18
9.39
7.23
6.07
5.86
6.17
6.28
5.41
2.89
-1.55
-7.60
-14.34
-20.46
-24.61
-25.83
-23.83
-19.08
-12.59
-5.63
0.60
5.17
7.58
7.76
6.03
3.19
0.29
-1.52
-1.43
0.64
3.89
6.86
8.06
6.60
2.66
-2.62
-7.71
-11.34
-13.02
-13.04
-12.15
-11.07
-10.22
-9.72
-9.53
-9.70
-10.29
-11.34
-12.66
-13.95
-14.81
-14.95
-14.32
-13.07
-11.50
-10.00
-8.94
-8.53
-8.70
-9.05
-8.90
-7.55
-4.68
-0.54
4.04
8.00
10.52
11.39
11.06
10.33
9.94
10.21
11.04
12.02
12.76
12.99
12.61
11.53
9.67
7.08
4.02
1.03
-1.21
-2.17
-1.69
-0.04
2.23
4.53
6.44
7.71
8.16
7.66
6.18
3.95
1.49
-0.57
-1.75
-2.02
-1.83
-1.81
-2.33
-3.30
-4.13
-4.21
-3.21
-1.41
0.48
1.69
1.90
1.32
0.56
0.24
0.60
1.36
1.95
1.81
0.76
-0.95
-2.83
-4.36
-5.25
-5.38
-4.78
-3.54
-1.84
-0.09
1.11
1.11
-0.41
-3.14
-6.11
-8.11
-8.22
-6.30
-3.03
0.41
2.95
4.08
3.93
3.05
2.04
1.20
0.53
-0.13
-0.82
-1.30
-1.19
-0.15
1.86
4.47
7.09
9.18
10.54
11.43
12.38
13.86
15.99
18.37
20.33
21.27
20.95
19.61
17.85
16.27
15.23
14.76
14.58
14.38
14.06
13.74
13.76
14.39
15.63
17.12
18.20
18.20
16.72
13.89
10.25
6.57
3.40
0.75
-1.90
-5.37
-10.31
-16.74
-23.95
-30.60
-35.15
-36.29
-33.33
-26.43
-16.57
-5.46
4.67
11.62
13.82
10.90
3.99
-4.56
-12.02
-16.30
-16.69
-14.02
-10.06
-6.58
-4.56
-3.93
-3.82
-3.22
-1.59
0.94
3.70
5.81
6.60
5.74
3.25
-0.58
-5.32
-10.40
-15.13
-18.75
-20.55
-20.12
-17.57
-13.64
-9.54
-6.57
-5.64
-6.83
-9.38
-11.89
-12.93
-11.60
-7.92
-2.78
2.46
6.47
8.45
8.26
6.37
3.58
0.67
-1.79
-3.50
-4.49
-4.98
-5.31
-5.87
-6.94
-8.66
-10.92
-13.30
-15.20
-15.98
-15.14
-12.51
-8.35
-3.32
1.70
5.83
8.42
9.24
8.50
6.85
5.08
3.88
3.61
4.06
4.65
4.63
3.53
1.40
-1.10
-3.02
-3.52
-2.25
0.53
4.06
7.42
9.85
10.90
10.51
8.89
6.43
3.62
0.94
-1.27
-2.79
-3.53
-3.54
-2.88
-1.75
-0.44
0.62
0.98
0.39
-1.02
-2.69
-3.84
-3.81
-2.39
0.05
2.67
4.57
5.08
4.02
1.70
-1.31
-4.38
-7.07
-9.20
-10.74
-11.74
-12.20
-12.11
-11.47
-10.38
-9.06
-7.83
-6.95
-6.51
-6.31
-5.96
-5.00
-3.12
-0.33
3.07
6.49
9.31
11.09
11.71
11.46
10.97
10.99
12.10
14.47
17.67
20.87
23.07
23.52
21.98
18.90
15.13
11.67
9.31
8.43
8.91
10.25
11.67
12.30
11.34
8.26
2.96
-4.07
-11.79
-18.81
-23.83
-25.96
-24.96
-21.29
-15.83
-9.66
-3.73
1.19
4.60
6.27
6.22
4.86
2.86
1.06
0.17
0.47
1.78
3.52
5.02
5.86
5.93
5.45
4.73
3.96
3.17
2.22
1.00
-0.48
-2.09
-3.63
-4.95
-5.97
-6.72
-7.21
-7.39
-7.14
-6.29
-4.67
-2.17
1.20
5.37
10.14
15.12
19.74
23.38
25.55
26.11
25.43
24.35
23.86
24.74
27.19
30.75
34.49
37.32
38.47
37.60
34.88
30.77
25.77
20.24
14.38
8.27
1.94
-4.61
-11.38
-18.38
-25.58
-32.76
-39.41
-44.78
-48.02
-48.45
-45.84
-40.48
-33.18
-25.01
-17.15
-10.68
-6.51
-5.20
-6.80
-10.66
-15.43
-19.38
-21.03
-19.66
-15.62
-10.10
-4.57
-0.16
2.70
4.20
4.81
4.87
4.45
3.46
1.85
-0.25
-2.51
-4.63
-6.39
-7.83
-9.05
-10.19
-11.22
-11.95
-12.09
-11.39
-9.81
-7.63
-5.41
-3.82
-3.36
-4.06
-5.41
-6.50
-6.43
-4.71
-1.47
2.56
6.46
9.55
11.75
13.51
15.59
18.69
23.06
28.54
34.59
40.51
45.61
49.20
50.57
49.05
44.16
35.89
24.88
12.44
0.31
-9.80
-16.65
-19.86
-19.87
-17.66
-14.39
-10.98
-8.15
-6.35
-5.96
-7.19
-9.91
-13.52
-16.98
-19.17
-19.39
-17.79
-15.27
-13.20
-12.72
-14.28
-17.53
-21.55
-25.37
-28.32
-30.15
-30.90
-30.66
-29.44
-27.22
-24.11
-20.50
-17.02
-14.34
-12.92
-12.74
-13.25
-13.60
-12.90
-10.56
-6.53
-1.36
3.93
8.11
10.23
9.89
7.53
4.26
1.53
0.55
1.85
5.15
9.48
13.72
16.97
18.81
19.32
18.86
17.83
16.56
15.30
14.24
13.47
12.91
12.18
10.72
7.96
3.71
-1.65
-7.17
-11.64
-14.07
-14.00
-11.65
-7.74
-3.23
1.01
4.29
6.19
6.50
5.36
3.23
0.87
-0.89
-1.53
-1.08
-0.13
0.47
0.08
-1.37
-3.35
-5.07
-5.87
-5.60
-4.63
-3.58
-3.01
-3.08
-3.62
-4.28
-4.76
-5.04
-5.28
-5.75
-6.61
-7.85
-9.24
-10.45
-11.16
-11.06
-9.95
-7.69
-4.31
-0.08
4.42
8.38
10.97
11.73
10.80
8.95
7.28
6.74
7.69
9.84
12.48
14.87
16.60
17.67
18.29
18.58
18.45
17.61
15.87
13.26
10.15
7.05
4.38
2.26
0.53
-1.12
-2.94
-5.00
-7.18
-9.18
-10.72
-11.60
-11.79
-11.44
-10.80
-10.12
-9.57
-9.11
-8.58
-7.72
-6.30
-4.26
-1.72
1.05
3.72
6.01
7.74
8.87
9.42
9.46
9.09
8.37
7.34
5.96
4.24
2.19
-0.13
-2.55
-4.85
-6.84
-8.43
-9.59
-10.43
-11.05
-11.56
-12.01
-12.34
-12.41
-12.02
-10.96
-9.16
-6.75
-4.04
-1.46
0.62
2.01
2.76
3.05
3.11
3.09
3.05
2.96
2.84
2.73
2.75
3.03
3.71
4.89
6.59
8.69
10.96
12.97
14.26
14.37
12.98
10.03
5.78
0.89
-3.79
-7.36
-9.17
-9.03
-7.23
-4.43
-1.39
1.23
3.03
3.79
3.56
2.49
0.91
-0.73
-2.00
-2.55
-2.33
-1.56
-0.66
-0.03
0.06
-0.38
-1.15
-1.98
-2.66
-3.07
-3.19
-3.06
-2.70
-2.11
-1.32
-0.40
0.48
1.14
1.44
1.40
1.23
1.34
2.25
4.47
8.33
13.74
20.10
26.26
30.78
32.37
30.41
25.34
18.75
12.76
9.30
9.29
12.28
16.77
20.89
23.25
23.40
21.75
19.13
16.21
13.28
10.18
6.61
2.30
-2.83
-8.71
-15.08
-21.53
-27.43
-31.98
-34.44
-34.32
-31.63
-26.95
-21.29
-15.87
-11.84
-9.93
-10.28
-12.35
-15.07
-17.22
-17.88
-16.74
-14.18
-11.04
-8.18
-6.13
-5.04
-4.70
-4.85
-5.32
-6.05
-7.00
-8.03
-8.94
-9.55
-9.91
-10.28
-11.06
-12.58
-14.89
-17.62
-20.03
-21.28
-20.64
-17.86
-13.25
-7.66
-2.28
1.72
3.63
3.42
1.90
0.38
0.23
2.22
6.18
11.04
15.26
17.59
17.58
15.75
13.21
11.08
9.92
9.58
9.40
8.73
7.21
5.00
2.57
0.38
-1.31
-2.57
-3.68
-4.91
-6.38
-7.99
-9.53
-10.83
-11.91
-12.95
-14.07
-15.19
-15.94
-15.88
-14.68
-12.46
-9.64
-6.77
-4.23
-2.14
-0.44
0.95
2.07
2.91
3.55
4.06
4.46
4.55
3.85
1.88
-1.59
-6.33
-11.70
-16.89
-21.12
-23.90
-24.96
-24.34
-22.41
-19.97
-18.19
-18.16
-20.36
-24.24
-28.17
-30.08
-28.35
-22.63
-14.02
-4.63
3.41
8.84
11.66
12.93
14.01
15.91
18.86
22.47
26.07
29.15
31.47
33.02
33.77
33.61
32.42
30.27
27.56
24.94
23.04
22.17
22.20
22.68
23.06
22.99
22.36
21.31
19.99
18.57
17.21
16.14
15.64
15.91
16.92
18.36
19.69
20.38
20.08
18.76
16.57
13.71
10.30
6.38
2.03
-2.53
-6.92
-10.69
-13.46
-14.99
-15.32
-14.69
-13.47
-12.09
-10.81
-9.63
-8.26
-6.32
-3.58
-0.22
3.06
5.36
5.95
4.73
2.37
0.06
-1.02
-0.26
2.17
5.42
8.45
10.51
11.49
11.77
12.01
12.66
13.79
15.06
15.90
15.81
14.46
11.84
8.10
3.56
-1.44
-6.48
-11.09
-14.71
-16.71
-16.55
-14.01
-9.46
-3.85
1.47
5.25
6.90
6.74
5.85
5.53
6.64
9.29
12.87
16.45
19.32
21.13
21.79
21.29
19.44
16.02
10.98
4.73
-1.96
-8.12
-13.02
-16.38
-18.33
-19.24
-19.39
-18.80
-17.20
-14.21
-9.56
-3.34
3.74
10.51
15.39
17.03
14.76
9.07
1.59
-5.33
-9.54
-9.94
-6.88
-1.93
2.90
6.13
7.40
7.41
7.42
8.50
10.94
14.20
17.18
18.74
18.07
14.95
9.78
3.38
-3.20
-8.98
-13.30
-15.93
-17.07
-17.13
-16.60
-15.83
-15.10
-14.62
-14.57
-15.00
-15.67
-16.12
-15.77
-14.29
-11.80
-8.87
-6.22
-4.39
-3.46
-3.11
-2.85
-2.31
-1.30
0.15
1.92
3.89
5.80
7.25
7.79
7.13
5.34
2.96
0.85
-0.06
0.90
4.10
9.55
16.88
25.26
33.41
39.66
42.37
40.58
34.45
25.30
15.12
5.62
-2.49
-9.65
-16.95
-25.15
-33.94
-41.85
-46.92
-47.69
-44.00
-37.11
-29.13
-22.14
-17.44
-15.21
-14.79
-15.16
-15.39
-14.91
-13.51
-11.19
-8.09
-4.46
-0.74
2.46
4.51
4.98
3.85
1.62
-0.89
-2.80
-3.53
-3.02
-1.64
0.06
1.58
2.64
3.14
3.01
2.20
0.67
-1.45
-3.82
-5.98
-7.58
-8.58
-9.31
-10.25
-11.82
-14.11
-16.76
-19.07
-20.18
-19.37
-16.21
-10.68
-3.29
5.08
13.22
19.92
24.35
26.36
26.63
26.35
26.63
27.79
29.05
28.75
25.23
17.82
7.42
-3.61
-12.44
-16.93
-16.45
-12.04
-5.79
0.22
4.57
6.87
7.47
6.91
5.63
3.80
1.63
-0.42
-1.59
-1.23
0.73
3.41
5.07
3.95
-0.86
-8.69
-17.34
-24.03
-26.60
-24.53
-19.01
-12.27
-6.44
-2.69
-1.00
-0.67
-0.91
-1.37
-2.12
-3.33
-4.94
-6.55
-7.65
-7.95
-7.64
-7.24
-7.36
-8.31
-9.88
-11.41
-11.95
-10.61
-6.83
-0.64
7.19
15.25
21.72
24.86
23.62
18.07
9.54
0.24
-7.58
-12.46
-14.22
-13.90
-13.04
-12.88
-13.68
-14.72
-14.77
-12.80
-8.59
-2.80
3.36
8.67
12.40
14.42
14.99
14.52
13.26
11.38
9.05
6.62
4.62
3.58
3.74
4.83
6.13
6.76
6.08
4.04
1.26
-1.32
-2.86
-3.02
-2.09
-0.82
-0.00
-0.13
-1.25
-3.11
-5.38
-7.88
-10.62
-13.65
-16.81
-19.70
-21.77
-22.59
-22.09
-20.67
-19.00
-17.70
-17.08
-16.99
-16.95
-16.31
-14.49
-11.14
-6.28
-0.33
5.94
11.48
15.32
16.85
16.10
13.74
10.90
8.68
7.68
7.81
8.36
8.42
7.40
5.34
2.88
0.96
0.29
1.02
2.68
4.44
5.61
5.83
5.24
4.16
2.88
1.49
-0.03
-1.64
-3.16
-4.25
-4.58
-3.92
-2.20
0.45
3.76
7.29
10.44
12.52
13.00
11.80
9.41
6.80
4.95
4.38
4.83
5.48
5.32
3.78
1.00
-2.31
-5.25
-7.22
-8.10
-8.28
-8.34
-8.75
-9.74
-11.19
-12.82
-14.28
-15.33
-15.89
-16.14
-16.40
-17.06
-18.34
-20.15
-22.10
-23.51
-23.76
-22.39
-19.35
-14.98
-9.89
-4.82
-0.47
2.64
4.29
4.58
4.01
3.33
3.30
4.46
6.87
10.09
13.29
15.57
16.36
15.61
13.80
11.67
9.87
8.75
8.25
8.07
7.92
7.71
7.55
7.66
8.20
9.13
10.12
10.68
10.29
8.54
5.34
0.96
-3.96
-8.56
-11.97
-13.54
-13.01
-10.57
-6.72
-2.15
2.40
6.33
9.28
11.20
12.30
12.90
13.36
13.94
14.70
15.51
16.11
16.32
16.17
15.87
15.75
16.07
16.91
18.04
18.96
19.09
18.05
15.75
12.36
8.13
3.31
-1.57
-6.05
-9.81
-12.76
-14.89
-16.16
-16.53
-15.96
-14.47
-11.54
-6.85
-0.60
6.46
13.43
19.55
24.30
27.32
28.49
28.77
29.14
30.05
31.21
32.16
32.75
33.34
34.67
37.82
44.88
57.25
74.49
94.30
113.44
128.95
138.60
141.02
129.16
100.44
59.25
15.31
-22.24
-49.07
-65.21
-72.98
-75.20
-74.19
-70.52
-64.18
-55.84
-46.96
-39.05
-32.89
-28.48
-25.32
-22.77
-19.76
-15.32
-9.66
-3.81
1.03
4.16
5.35
4.64
2.10
-2.42
-8.03
-14.32
-21.22
-28.77
-36.78
-45.08
-53.69
-61.00
-67.73
-73.86
-79.13
-83.04
-85.39
-86.08
-85.38
-83.95
-82.63
-82.35
-83.46
-86.29
-90.72
-96.05
-100.28
-100.34
-93.18
-77.18
-53.43
-25.36
1.59
23.96
39.47
48.11
51.60
52.09
51.21
49.39
46.71
43.17
39.28
35.60
32.65
30.52
28.79
26.94
24.26
20.61
16.24
11.86
8.03
5.14
3.13
1.36
-0.95
-4.56
-9.73
-16.00
-22.29
-27.47
-30.70
-31.90
-31.82
-31.55
-32.17
-34.13
-37.03
-39.78
-41.09
-39.85
-35.39
-28.64
-20.61
-12.43
-5.11
0.75
5.07
8.17
10.60
12.87
15.10
17.15
18.47
18.44
16.71
13.39
9.08
4.58
0.63
-2.37
-4.32
-5.43
-6.01
-6.29
-6.39
-6.32
-6.23
-6.38
-7.18
-8.92
-11.68
-15.22
-19.11
-22.87
-26.14
-28.70
-30.31
-30.50
-28.42
-23.15
-14.17
-1.89
12.11
25.48
35.82
41.68
43.09
41.44
38.81
37.02
36.93
38.23
39.80
40.31
38.83
35.18
29.78
23.44
16.87
10.51
4.43
-1.46
-7.25
-12.80
-17.71
-21.45
-23.53
-23.59
-21.44
-17.12
-10.95
-3.74
3.12
7.85
8.72
4.82
-3.48
-14.31
-24.89
-32.41
-34.99
-32.24
-25.25
-16.03
-6.77
0.84
5.91
8.33
8.58
7.43
5.78
4.48
4.20
5.36
7.95
11.64
15.89
20.12
23.98
27.44
30.71
34.09
37.82
41.96
46.41
50.92
55.07
58.35
60.17
60.08
58.01
54.31
49.69
44.88
40.19
35.32
29.47
21.86
12.22
1.16
-9.92
-19.34
-25.71
-28.49
-28.03
-25.47
-22.21
-19.56
-18.49
-19.50
-22.72
-27.96
-34.67
-41.93
-48.49
-52.97
-54.20
-51.67
-45.70
-37.39
-28.20
-19.38
-11.52
-4.37
2.83
10.90
20.09
29.76
38.38
44.18
45.85
43.16
37.23
30.05
23.67
19.38
17.31
16.70
16.67
17.03
18.58
22.84
31.24
44.40
61.72
81.56
101.65
119.52
