1660756436.00
64.000000
-0.00
-0.00
-0.00
-0.00
-0.00
-0.00
-0.00
-0.00
-0.00
-0.00
0.00
0.01
0.01
-0.00
-0.03
-0.05
-0.05
0.00
0.13
0.36
0.66
1.01
1.37
1.72
2.06
2.40
2.79
3.24
3.80
4.42
5.06
5.66
6.20
6.68
7.15
7.68
8.31
9.14
10.09
11.04
11.88
12.56
13.14
13.76
14.65
15.96
17.91
20.32
22.90
25.38
27.58
29.57
31.68
34.32
37.81
42.54
48.15
54.10
59.83
64.97
69.58
74.14
79.34
85.71
93.76
103.00
112.62
121.73
129.77
136.75
143.30
150.75
157.77
166.64
177.95
191.79
206.97
220.57
228.25
225.36
208.53
176.87
132.76
80.05
23.07
-34.94
-92.44
-149.16
-205.23
-260.37
-313.74
-363.87
-409.83
-450.91
-486.50
-515.74
-537.23
-549.22
-549.96
-538.37
-514.21
-478.67
-433.88
-382.45
-327.02
-269.85
-212.65
-156.67
-102.95
-52.34
-5.84
35.65
71.46
101.29
125.28
143.98
158.13
168.49
175.68
180.09
181.96
181.46
178.83
174.44
168.72
162.14
155.11
147.87
140.53
133.08
125.45
117.62
109.65
101.68
93.94
86.61
79.78
73.41
67.30
61.25
55.10
48.87
42.77
37.15
32.29
28.30
24.98
21.86
18.45
14.45
9.90
5.27
1.24
-1.61
-3.06
-3.48
-3.67
-4.51
-6.58
-9.87
-13.73
-17.14
-19.32
-19.89
-19.07
-17.65
-16.43
-16.13
-17.44
-21.02
-27.02
-34.38
-40.26
-40.67
-32.02
-13.09
13.81
43.25
68.92
86.22
93.90
93.91
89.91
84.35
77.95
69.92
59.12
45.34
29.41
12.63
-3.99
-19.91
-34.44
-46.03
-52.52
-51.67
-42.38
-25.99
-6.33
11.17
21.14
20.20
7.99
-12.72
-37.09
-59.60
-75.34
-81.01
-75.27
-59.04
-35.49
-9.46
13.34
27.94
31.49
24.30
9.69
-6.87
-19.93
-25.41
-21.69
-9.73
7.41
25.17
38.57
43.40
37.56
22.06
1.27
-18.38
-30.69
-31.63
-20.75
-0.45
24.93
50.81
72.78
87.17
91.55
85.34
70.59
51.94
35.46
26.53
27.96
39.17
56.06
73.42
86.13
90.54
84.55
67.54
40.19
4.60
-35.34
-74.36
-106.80
-128.11
-135.83
-130.06
-113.13
-89.11
-62.90
-39.37
-22.47
-14.13
-14.16
-20.20
-29.13
-38.48
-47.43
-56.43
-65.80
-74.45
-79.31
-76.64
-63.87
-41.34
-12.36
18.25
46.05
68.42
84.40
93.97
97.17
94.04
85.45
73.58
61.72
52.95
48.69
48.31
50.02
52.18
54.66
59.09
68.11
84.15
107.50
135.92
164.79
188.32
200.91
198.79
181.04
149.70
108.93
62.98
15.22
-32.26
-78.11
-120.98
-159.07
-190.54
-214.31
-228.00
-231.00
-224.22
-209.79
-190.47
-169.00
-147.22
-125.68
-103.62
-79.39
-52.65
-25.22
-0.95
15.46
20.88
15.07
0.61
-18.44
-37.76
-53.39
-62.55
-63.61
-56.69
-44.30
-31.73
-25.81
-31.50
-47.69
-66.20
-74.45
-61.14
-22.25
36.13
99.93
152.61
179.41
175.87
149.34
113.73
81.32
57.18
39.42
23.13
5.21
-13.07
-26.92
-31.06
-23.06
-4.53
19.22
41.26
55.26
57.55
48.62
33.16
17.65
7.19
3.12
2.95
2.48
-1.41
-8.71
-16.46
-20.57
-18.60
-11.38
-2.52
3.75
4.85
0.90
-5.53
-10.97
-12.73
-10.14
-4.68
0.94
4.16
3.83
0.46
-4.19
-8.39
-11.04
-12.25
-12.99
-14.40
-17.50
-22.71
-30.29
-40.22
-51.35
-60.76
-63.91
-55.95
-33.98
0.95
44.00
88.24
127.55
158.45
179.95
191.85
193.22
182.46
158.71
124.32
85.26
49.56
23.95
11.19
9.43
13.90
19.94
24.55
27.55
30.36
34.41
40.18
47.14
54.41
61.54
68.80
76.47
85.19
95.29
106.60
118.54
130.42
141.76
152.57
163.41
174.35
185.63
197.18
208.51
218.75
226.83
231.48
231.05
228.47
224.67
220.24
215.39
210.03
203.96
196.98
189.12
180.62
172.04
163.28
154.42
145.49
136.45
127.18
117.64
107.81
97.79
87.24
75.59
62.96
50.05
37.72
26.65
17.25
9.73
4.17
-0.02
-3.76
-7.49
-11.37
-15.53
-20.35
-26.44
-34.35
-44.54
-58.67
-77.87
-101.86
-129.12
-157.91
-186.92
-215.45
-243.15
-269.92
-299.67
-334.99
-375.11
-416.11
-453.32
-483.24
-503.80
-513.79
-512.50
-508.00
-506.41
-508.31
-509.27
-504.71
-493.28
-476.64
-457.43
-437.78
-431.45
-446.82
-481.31
-522.91
-559.04
-583.20
-595.38
-599.34
-600.06
-618.90
-670.67
-755.68
-860.94
-971.14
-1077.02
-1175.65
-1267.36
-1246.94
-1061.36
-734.61
-353.36
-1.47
279.66
485.42
628.29
724.55
788.36
813.43
795.80
743.12
675.30
614.50
576.11
566.15
582.30
616.22
643.95
646.68
619.88
573.51
522.66
478.46
445.49
423.01
408.23
390.91
365.76
335.92
310.54
297.17
296.35
301.74
304.55
297.94
276.46
241.89
202.78
170.24
151.43
146.45
149.27
151.14
145.28
127.25
96.53
55.63
8.65
-39.80
-84.76
-117.80
-133.86
-130.75
-110.61
-79.85
-47.18
-20.22
-2.51
7.19
13.58
20.92
30.57
39.40
41.00
28.54
-1.63
-47.51
-101.25
-151.17
-185.96
-198.07
-186.60
-157.12
-119.31
-82.96
-54.65
-36.53
-27.26
-24.41
-26.00
-31.18
-39.48
-49.82
-59.76
-65.90
-65.45
-57.59
-44.14
-28.50
-14.52
-3.89
3.64
9.91
17.20
26.88
38.73
50.87
60.67
65.81
65.34
59.85
51.25
41.98
34.10
28.72
25.79
24.37
23.21
21.36
18.52
15.02
11.58
8.86
7.34
6.88
6.75
5.87
3.30
-1.24
-7.30
-13.77
-19.46
-23.01
-23.97
-22.96
-21.52
-21.50
-23.98
-28.98
-35.50
-41.97
-46.29
-47.32
-45.31
-41.60
-38.02
-35.35
-33.13
-29.64
-22.37
-7.41
19.03
59.86
116.14
183.51
255.06
321.76
374.69
401.99
398.57
367.26
317.63
261.49
208.02
161.65
122.41
88.77
59.92
37.20
21.94
13.85
10.47
8.26
4.82
-0.46
-6.35
-10.61
-10.78
-5.95
2.82
12.76
20.77
25.09
25.50
23.27
20.16
17.79
16.32
14.29
9.43
-1.12
-18.47
-41.74
-68.44
-95.67
-120.88
-142.99
-160.56
-174.88
-187.66
-200.24
-213.48
-227.53
-241.20
-251.44
-253.64
-243.18
-217.97
-179.89
-134.93
-91.47
-57.01
-35.37
-25.89
-24.77
-27.51
-31.41
-35.86
-41.32
-48.06
-55.21
-60.97
-63.75
-62.93
-59.12
-53.64
-47.69
-41.49
-34.29
-25.29
-13.08
2.61
20.82
39.55
56.37
69.26
77.20
80.21
79.13
75.22
69.43
62.32
54.07
44.60
33.97
22.53
10.94
-0.01
-9.57
-17.24
-22.94
-26.93
-29.62
-31.45
-32.81
-34.00
-35.27
-36.86
-38.94
-41.75
-45.52
-50.40
-56.37
-63.27
-70.84
-78.75
-86.62
-93.87
-100.02
-104.73
-107.81
-109.22
-109.05
-107.58
-105.21
-102.48
-99.58
-96.82
-94.52
-92.93
-92.08
-91.82
-91.68
-90.86
-91.02
-92.60
-95.65
-100.00
-105.37
-111.25
-117.11
-122.43
-126.81
-130.03
-131.61
-131.35
-129.28
-125.56
-120.15
-113.01
-104.11
-93.43
-81.03
-66.79
-50.85
-33.58
-15.53
3.37
23.24
44.18
66.22
89.15
112.61
135.83
157.62
176.58
192.83
206.82
219.35
231.35
243.48
255.96
268.24
279.09
286.82
292.28
296.91
302.91
312.70
328.40
351.16
380.83
416.00
454.38
496.91
545.14
601.23
667.24
744.06
830.86
925.36
1024.67
1105.86
1149.49
1139.12
1064.85
926.01
731.95
500.26
253.30
13.70
-200.24
-374.72
-504.57
-592.06
-643.87
-667.84
-670.94
-659.09
-637.94
-613.63
-589.97
-569.25
-551.48
-534.54
-515.33
-491.45
-462.49
-430.48
-399.18
-371.31
-348.45
-330.85
-317.77
-307.68
-298.20
-285.86
-266.43
-236.28
-193.88
-141.50
-85.42
-33.75
6.81
33.66
48.66
56.33
62.22
67.54
71.46
72.31
69.28
63.26
56.50
51.27
48.66
48.29
48.81
49.26
49.56
50.12
50.96
51.05
48.27
40.50
26.92
8.80
-10.59
-27.51
-39.49
-46.11
-48.72
-49.23
-48.97
-48.26
-47.01
-45.24
-43.63
-43.10
-44.05
-45.67
-46.02
-43.04
-35.50
-23.71
-9.45
4.85
17.03
25.90
31.41
34.40
35.93
36.64
36.90
36.82
36.58
36.63
37.56
39.85
43.76
48.90
54.30
58.82
61.36
61.21
58.28
52.82
44.14
32.07
16.90
-0.73
-18.43
-34.12
-46.36
-54.77
-60.07
-63.60
-66.39
-68.75
-70.14
-69.43
-65.75
-58.79
-48.95
-37.15
-24.20
-10.15
5.92
25.58
50.34
80.32
113.36
144.82
168.57
178.77
172.03
148.54
111.71
66.38
16.87
-33.70
-82.65
-126.53
-160.78
-180.96
-185.06
-175.00
-156.05
-134.41
-114.20
-96.03
-78.10
-58.84
-39.12
-22.45
-13.04
-13.14
-21.61
-34.58
-47.55
-57.56
-63.87
-67.25
-68.64
-68.32
-65.72
-60.20
-51.91
-42.10
-32.75
-25.83
-22.44
-22.50
-24.86
-27.92
-30.36
-31.64
-32.00
-32.12
-32.58
-33.45
-34.17
-33.73
-31.16
-25.90
-18.17
-9.04
-0.26
6.07
8.17
5.17
-2.42
-12.65
-22.68
-29.70
-31.80
-28.65
-21.31
-11.73
-1.93
6.71
13.65
19.08
23.56
27.64
31.66
35.73
39.77
43.55
46.73
48.85
49.47
48.30
45.48
41.64
37.81
34.98
33.63
33.33
32.87
30.75
25.79
17.74
7.29
-4.12
-14.83
-23.37
-28.70
-30.31
-28.23
-23.02
-15.73
-7.74
-0.46
4.96
7.87
8.19
6.39
3.37
0.18
-2.17
-3.03
-2.26
-0.21
2.54
5.50
8.50
11.63
15.04
18.63
21.90
24.17
24.77
23.46
20.47
16.45
12.19
8.30
5.04
2.31
-0.15
-2.66
-5.41
-8.49
-11.94
-15.74
-19.74
-23.67
-27.06
-29.36
-30.15
-29.33
-27.21
-24.37
-21.48
-18.94
-16.85
-15.01
-13.12
-10.98
-8.60
-6.17
-4.00
-2.37
-1.45
-1.28
-1.74
-2.64
-3.70
-4.71
-5.47
-5.91
-6.02
-5.82
-5.30
-4.46
-3.35
-2.15
-1.23
-1.01
-1.88
-3.98
-7.14
-10.92
-14.69
-17.87
-20.00
-20.90
-20.56
-19.19
-17.05
-14.41
-11.45
-8.23
-4.77
-1.15
2.39
5.43
7.44
8.01
7.02
4.74
1.75
-1.29
-3.81
-5.60
-6.86
-8.07
-9.72
-12.05
-14.96
-18.13
-21.21
-23.92
-26.28
-28.43
-30.44
-32.19
-33.43
-33.94
-33.81
-33.41
-32.83
-31.79
-29.57
-25.42
-19.13
-11.39
-3.49
3.46
9.47
16.57
27.54
44.32
66.61
91.56
114.80
132.12
140.80
140.16
132.31
119.99
105.54
90.28
75.05
60.90
49.38
42.22
40.77
47.44
63.29
87.48
117.08
147.89
176.05
199.15
216.65
229.66
242.34
258.18
278.40
301.03
321.92
336.75
342.66
338.87
311.93
255.57
172.58
75.84
-17.91
-96.20
-154.49
-194.88
-222.88
-244.30
-260.76
-271.79
-274.49
-265.70
-243.65
-208.86
-164.59
-116.30
-70.17
-29.30
3.66
27.26
40.81
43.91
36.63
20.00
-3.70
-30.76
-55.74
-73.97
-82.99
-83.55
-79.01
-73.65
-70.72
-71.49
-75.24
-79.55
-82.13
-81.51
-77.69
-71.78
-65.31
-59.47
-54.97
-51.98
-50.12
-48.90
-47.73
-46.30
-44.64
-43.14
-42.19
-42.09
-42.75
-43.76
-44.61
-44.81
-44.22
-43.01
-41.61
-40.45
-39.81
-39.64
-39.55
-38.76
-36.23
-30.92
-22.24
-10.40
3.37
17.01
28.22
35.22
37.45
35.85
32.52
29.91
29.78
32.53
37.06
41.37
43.49
42.32
37.98
31.54
24.43
17.79
12.21
7.86
4.72
2.85
2.40
3.43
5.82
9.15
12.83
16.24
18.84
20.30
20.50
19.53
17.53
14.67
11.04
6.70
1.78
-3.33
-7.99
-11.47
-13.23
-13.22
-11.82
-9.74
-7.56
-5.45
-3.07
0.29
5.24
12.08
20.53
29.89
39.20
47.52
54.09
58.44
60.43
60.22
58.20
54.95
51.08
47.12
43.35
39.72
35.77
30.82
24.21
15.61
5.29
-5.88
-16.74
-26.25
-33.85
-39.63
-44.10
-47.81
-51.07
-53.71
-55.24
-55.05
-52.67
-47.90
-40.94
-32.31
-22.89
-13.75
-5.99
-0.51
2.23
2.29
0.22
-3.19
-7.16
-11.16
-15.05
-18.97
-23.14
-27.60
-31.94
-35.32
-36.72
-35.30
-30.86
-24.06
-16.33
-9.47
-5.12
-4.16
-6.47
-10.97
-15.91
-19.40
-19.92
-16.78
-10.24
-1.38
8.24
17.13
24.17
28.90
31.42
32.17
31.69
30.34
28.24
25.23
21.07
15.62
9.03
1.82
-5.20
-11.18
-15.62
-18.56
-20.55
-22.28
-24.16
-26.09
-27.59
-28.26
-28.24
-28.40
-30.06
-34.34
-41.51
-50.62
-59.65
-66.01
-67.40
-62.47
-51.27
-35.27
-16.83
1.39
17.29
29.74
38.64
44.49
47.84
48.90
47.63
44.03
38.56
32.13
25.75
20.04
14.98
10.10
4.96
-0.35
-5.14
-8.51
-9.81
-9.08
-7.00
-4.57
-2.67
-1.79
-2.09
-3.44
-5.61
-8.30
-11.09
-13.52
-15.01
-14.89
-12.41
-6.88
2.06
14.06
27.77
41.01
51.29
56.61
56.16
50.56
41.53
31.23
21.42
13.05
6.15
0.09
-5.92
-12.39
-19.25
-25.70
-30.39
-31.81
-28.72
-20.64
-8.06
7.57
24.14
39.29
50.85
57.34
58.23
54.19
47.11
39.64
34.70
34.67
40.71
52.54
68.46
85.77
101.49
113.05
118.79
118.20
111.90
101.19
87.68
72.70
57.26
42.17
28.18
15.91
5.69
-2.60
-9.62
-16.33
-23.77
-32.40
-41.90
-51.31
-59.76
-66.98
-73.62
-80.76
-89.33
-99.84
-111.70
-123.37
-132.90
-138.76
-140.28
-137.46
-130.59
-119.99
-107.00
-92.99
-78.82
-64.96
-51.98
-40.96
-33.34
-30.53
-33.46
-44.27
-63.52
-88.98
-116.05
-140.23
-159.20
-173.22
-184.29
-194.60
-208.20
-226.22
-244.98
-257.14
-255.78
-237.74
-204.28
-160.13
-112.04
-71.59
-49.11
-49.93
-73.12
-113.47
-163.43
-213.92
-255.51
-255.77
-197.86
-92.34
27.99
132.07
205.89
250.64
274.35
285.37
289.34
285.08
271.07
249.27
225.59
206.00
193.39
187.14
184.67
183.05
177.21
164.41
146.13
127.41
113.33
106.03
104.05
103.43
99.63
87.62
65.72
37.01
8.16
-14.56
-27.64
-31.13
-27.69
-20.74
-13.97
-9.26
-6.46
-4.12
-0.98
3.16
7.65
11.63
14.58
16.05
16.04
14.83
12.85
10.48
7.99
5.60
3.52
1.87
0.47
-1.08
-3.39
-6.90
-11.52
-16.56
-20.88
-23.36
-23.30
-21.06
-17.58
-14.31
-12.75
-13.98
-18.40
-25.77
-35.41
-46.46
-58.02
-69.15
-78.96
-86.66
-91.64
-93.62
-92.68
-89.14
-83.48
-76.15
-67.48
-57.78
-47.38
-36.63
-25.94
-15.71
-6.33
1.87
8.63
13.82
17.45
19.73
21.06
21.87
22.55
23.34
24.34
25.52
26.83
28.13
29.24
29.89
29.79
28.73
26.66
23.76
20.39
16.90
13.47
10.03
6.28
1.82
-3.65
-10.17
-17.47
-24.96
-31.90
-37.48
-41.04
-42.17
-40.82
-37.31
-32.21
-26.16
-19.59
-12.50
-4.49
5.07
16.61
29.96
44.11
57.36
67.80
73.92
75.22
72.28
66.55
59.77
53.38
48.26
44.66
42.42
41.20
40.57
40.00
38.81
36.33
32.07
25.98
18.56
10.74
3.57
-2.23
-6.50
-9.66
-12.44
-15.51
-19.09
-22.86
-26.04
-27.76
-27.50
-25.29
-21.85
-18.31
-15.87
-15.27
-16.47
-18.63
-20.44
-20.68
-18.85
-15.37
-11.40
-8.22
-6.66
-6.83
-8.10
-9.47
-10.00
-9.06
-6.44
-2.23
3.49
10.58
18.81
27.74
36.71
44.86
51.24
54.94
55.27
52.35
46.97
40.44
34.29
29.87
27.96
28.64
31.36
35.18
39.92
45.42
51.44
57.60
63.71
70.22
78.35
89.43
103.95
122.28
142.64
161.41
174.42
178.97
175.39
166.93
158.09
152.52
153.92
163.02
177.82
194.60
209.86
221.69
229.96
235.50
239.25
245.25
256.99
276.23
301.93
330.35
356.30
374.64
381.71
356.72
289.93
185.13
59.96
-62.69
-165.47
-241.34
-291.49
-321.12
-336.45
-340.18
-334.69
-322.83
-308.00
-293.17
-279.67
-267.24
-254.77
-241.66
-225.84
-206.65
-185.13
-163.74
-145.18
-130.88
-120.57
-112.80
-106.09
-98.28
-88.41
-76.93
-65.30
-55.00
-46.55
-39.95
-34.92
-31.39
-28.86
-26.87
-24.96
-22.88
-20.41
-17.34
-13.48
-8.53
-2.15
6.20
16.61
28.28
39.04
46.29
47.97
43.70
35.20
25.77
18.94
17.09
20.52
27.17
34.08
38.63
39.58
37.10
32.05
25.01
15.60
5.30
-5.34
-15.45
-23.74
-28.89
-30.25
-28.35
-24.84
-21.91
-21.37
-24.39
-30.72
-38.93
-46.86
-52.38
-54.01
-51.41
-45.56
-38.33
-32.12
-28.55
-27.85
-28.79
-29.20
-27.03
-21.14
-11.82
-0.54
10.49
19.33
24.92
27.32
27.48
26.76
26.29
26.63
27.73
29.13
30.61
32.42
35.13
39.12
44.01
48.45
50.65
49.11
43.24
33.76
22.31
10.89
1.47
-4.21
-4.56
1.64
14.68
33.08
53.33
70.43
79.52
77.86
66.05
47.81
28.31
11.95
0.64
-6.38
-11.39
-16.48
-22.29
-27.96
-32.05
-33.81
-33.74
-33.24
-33.61
-35.26
-37.38
-38.65
-38.22
-36.45
-34.91
-35.81
-40.99
-51.17
-65.62
-82.37
-98.61
-111.38
-118.35
-118.57
-113.06
-104.71
-97.37
-94.38
-97.27
-105.18
-115.44
-124.90
-131.26
-133.74
-132.85
-129.53
-124.42
-117.49
-108.46
-97.28
-84.72
-72.41
-62.41
-56.53
-55.52
-58.50
-62.96
-65.49
-62.97
-53.86
-38.86
-20.68
-3.00
10.91
19.11
21.49
19.76
17.30
18.61
28.29
49.32
81.13
118.77
153.65
176.35
180.10
163.58
131.28
91.52
52.97
21.60
-0.63
-14.99
-23.99
-29.63
-32.61
-32.86
-30.56
-26.85
-23.76
-23.31
-26.35
-31.78
-36.85
-38.29
-33.86
-23.48
-9.36
5.00
16.18
22.17
22.84
19.65
14.84
10.57
8.24
8.28
10.12
12.51
14.02
13.55
10.84
6.72
2.87
1.38
4.10
12.08
25.36
42.85
62.72
82.78
101.03
116.10
127.42
135.00
139.02
139.42
135.92
128.59
118.50
108.04
100.39
98.24
102.40
111.27
121.46
129.56
133.98
135.93
138.80
146.50
161.44
183.30
209.15
234.44
254.68
266.62
268.82
261.47
245.84
223.72
196.88
166.89
135.00
102.15
69.20
36.95
6.13
-22.68
-49.35
-74.22
-98.00
-121.34
-144.47
-167.04
-188.28
-207.42
-224.13
-238.65
-251.74
-264.30
-276.92
-289.60
-301.63
-311.73
-318.37
-320.21
-316.48
-307.35
-294.02
-278.60
-263.91
-252.72
-246.91
-246.60
-249.30
-249.89
-241.75
-219.33
-180.82
-130.15
-76.95
-33.68
-11.64
-17.52
-51.83
-109.71
-183.01
-262.65
-340.21
-408.49
-461.77
-495.96
-508.92
-500.72
-473.68
-431.71
-379.62
-322.19
-263.59
-206.96
-154.09
-105.42
-60.44
-18.46
20.87
57.21
89.86
118.45
143.45
166.02
187.72
210.29
234.86
262.06
292.04
324.71
359.86
396.80
434.38
470.93
504.29
532.09
552.23
563.30
564.90
557.50
541.96
519.55
492.01
461.64
431.04
402.69
378.46
359.29
345.22
335.02
327.19
320.49
313.87
306.14
295.87
281.77
263.27
240.84
214.16
183.71
151.19
119.28
90.47
66.17
46.45
30.17
15.24
-4.47
-34.17
-75.63
-126.18
-180.38
-231.93
-274.51
-302.44
-312.10
-308.82
-301.00
-296.69
-300.90
-315.86
-341.82
-376.48
-415.40
-453.56
-494.14
-540.80
-593.58
-647.47
-695.85
-734.62
-762.86
-782.19
-751.50
-648.51
-481.93
-289.13
-108.57
40.31
154.95
240.65
303.76
349.56
375.37
380.06
367.84
347.98
329.64
316.50
307.49
298.98
287.60
266.85
234.16
192.66
149.35
113.84
88.48
70.78
56.69
43.51
27.43
7.20
-15.17
-35.06
-46.94
-46.61
-31.23
-1.19
38.37
76.08
99.59
101.91
85.77
63.13
48.59
51.83
72.10
98.43
115.36
111.89
88.71
55.74
26.88
12.34
14.44
28.54
46.99
64.22
79.16
94.32
112.53
134.45
157.37
175.95
185.83
185.71
177.88
166.95
157.92
153.78
154.83
159.12
162.98
163.83
161.13
156.35
151.91
149.83
150.21
150.66
152.58
154.16
153.72
150.47
144.82
137.89
130.87
124.46
118.79
113.67
107.99
101.28
93.64
85.63
77.96
71.26
65.83
61.71
58.84
56.50
54.30
52.07
49.79
47.53
45.34
43.31
41.48
39.98
38.53
37.01
35.37
33.57
31.59
29.45
27.17
24.75
22.31
19.74
17.01
14.17
11.24
8.30
5.42
2.68
0.13
-2.14
-4.16
-5.93
-7.51
-8.88
-10.05
-11.03
-11.83
-12.47
-13.01
-13.56
-14.19
-15.02
-16.10
-17.44
-18.98
-20.64
-22.31
-23.91
-25.42
-26.86
-28.29
-29.74
-31.23
-32.71
-34.12
-35.41
-36.61
-37.89
-39.47
-41.60
-44.44
-47.93
-51.87
-55.94
-59.83
-63.46
-67.02
-70.92
-75.67
-81.60
-89.32
-98.88
-109.63
-120.57
-131.00
-140.90
-150.86
-161.66
-173.86
-188.04
-204.05
-220.98
-237.59
-253.02
-267.27
-281.02
-295.36
-311.55
-332.19
-358.82
-390.77
-424.90
-456.49
-480.66
-493.65
-493.94
-482.63
-467.01
-453.71
-445.50
-440.94
-436.97
-431.47
-424.10
-415.82
-407.86
-409.03
-423.87
-449.44
-477.04
-498.24
-509.15
-510.42
-504.90
-495.52
-497.22
-518.45
-556.29
-598.81
-633.89
-655.65
-664.49
-663.99
-658.61
-669.38
-709.61
-777.28
-857.11
-931.15
-987.77
-1023.21
-1039.55
-934.45
-668.04
-277.97
141.53
505.48
777.24
959.72
1072.23
1135.35
1165.60
1157.80
1110.08
1032.19
943.00
860.43
793.93
744.70
709.85
685.93
657.35
613.51
558.16
503.56
462.04
439.51
435.54
446.25
467.01
485.45
490.42
480.35
460.52
437.85
416.39
397.08
379.25
362.07
341.01
313.62
281.51
248.43
218.35
193.20
173.03
156.89
143.67
130.89
117.03
102.41
87.93
74.89
63.84
54.61
46.66
39.34
32.02
24.18
17.32
9.94
1.57
-7.98
-18.54
-29.85
-41.61
-53.46
-65.03
-75.83
-85.84
-94.76
-102.57
-109.06
-114.25
-118.32
-121.51
-124.09
-126.30
-128.60
-131.16
-134.29
-137.67
-141.18
-144.82
-148.58
-152.48
-156.60
-161.16
-166.24
-172.13
-178.21
-184.17
-189.69
-194.41
-197.80
-199.12
-197.19
-189.96
-180.77
-170.20
-158.47
-145.61
-131.51
-116.17
-99.67
-82.38
-64.88
-48.11
-32.31
-18.12
-6.25
2.62
7.99
9.51
7.05
0.72
-9.23
-21.64
-35.42
-49.45
-62.75
-74.54
-84.39
-92.23
-98.34
-103.16
-106.64
-108.54
-108.30
-105.05
-97.94
-86.37
-70.29
-50.25
-27.25
-2.12
24.53
52.53
82.10
113.44
146.29
179.66
211.81
240.80
265.18
284.60
300.02
313.42
327.00
342.26
359.39
377.34
394.28
408.61
419.77
428.62
437.43
449.39
467.76
494.93
530.98
572.60
612.80
642.07
650.94
633.06
587.76
520.67
441.98
363.00
292.35
233.57
184.72
140.67
96.26
49.04
0.31
-45.68
-83.89
-110.69
-125.00
-128.42
-124.06
-115.31
-104.94
-94.87
-86.24
-79.54
-74.61
-70.73
-67.06
-63.14
-59.25
-56.47
-56.05
-58.78
-64.43
-71.69
-78.46
-82.44
-81.73
-75.48
-64.29
-50.15
