1659461603.00
64.000000
-0.00
-0.00
-0.00
-0.00
-0.00
-0.00
-0.00
-0.00
-0.00
-0.00
0.00
0.01
0.01
-0.00
-0.03
-0.05
-0.05
0.00
0.13
0.36
0.66
1.01
1.37
1.72
2.06
2.40
2.79
3.24
3.80
4.42
5.06
5.66
6.20
6.68
7.15
7.68
8.31
9.14
10.09
11.04
11.88
12.56
13.14
13.76
14.65
15.96
17.91
20.32
22.90
25.38
27.58
29.57
31.68
34.32
37.82
42.54
48.14
54.10
59.83
64.97
69.60
74.18
79.40
85.74
93.73
102.86
112.33
121.28
129.19
136.10
142.63
150.08
157.10
165.93
177.13
190.83
205.86
219.36
227.02
224.17
207.39
175.73
131.50
78.53
21.19
-37.18
-94.92
-151.72
-207.71
-262.74
-316.16
-366.65
-413.34
-455.40
-491.99
-521.97
-543.77
-555.68
-556.22
-544.70
-521.23
-487.14
-444.30
-394.89
-340.99
-284.52
-227.25
-170.90
-117.20
-67.60
-23.27
15.22
47.95
75.42
98.26
116.98
131.79
142.66
149.48
152.09
150.41
144.72
136.06
126.46
118.91
116.50
121.28
133.12
149.42
166.02
178.73
184.95
184.40
178.69
170.10
160.33
150.00
138.92
126.90
114.29
102.00
91.02
81.86
74.27
67.43
60.56
53.15
45.32
37.77
31.27
26.30
22.76
20.10
17.60
14.79
11.56
8.24
5.34
3.27
2.11
1.64
1.41
0.99
0.16
-1.08
-2.47
-3.68
-4.48
-4.80
-4.78
-4.67
-4.69
-4.97
-5.48
-6.10
-6.62
-6.83
-6.59
-5.83
-4.64
-3.29
-2.10
-1.40
-1.34
-1.82
-2.60
-3.36
-3.91
-4.19
-4.28
-4.29
-4.24
-4.08
-3.76
-3.32
-2.90
-2.66
-2.68
-2.91
-3.18
-3.31
-3.15
-2.73
-2.15
-1.56
-1.07
-0.74
-0.56
-0.50
-0.50
-0.52
-0.51
-0.42
-0.22
0.07
0.40
0.69
0.90
1.02
1.13
1.32
1.69
2.24
2.93
3.66
4.35
4.99
5.62
6.27
6.95
7.57
8.02
8.16
7.91
7.25
6.25
5.02
3.71
2.35
0.95
-0.50
-2.02
-3.60
-5.21
-6.78
-8.20
-9.34
-10.11
-10.43
-10.30
-9.75
-8.87
-7.81
-6.76
-5.94
-5.46
-5.33
-5.40
-5.44
-5.31
-4.97
-4.53
-4.15
-3.93
-3.84
-3.79
-3.64
-3.32
-2.91
-2.53
-2.31
-2.31
-2.50
-2.74
-2.90
-2.86
-2.62
-2.28
-1.98
-1.87
-1.95
-2.12
-2.19
-2.06
-1.76
-1.43
-1.27
-1.42
-1.84
-2.41
-2.94
-3.31
-3.49
-3.49
-3.35
-3.10
-2.75
-2.31
-1.80
-1.25
-0.66
-0.11
0.37
0.76
1.06
1.27
1.38
1.40
1.33
1.19
0.97
0.70
0.43
0.21
0.10
0.11
0.21
0.28
0.21
-0.10
-0.59
-1.13
-1.55
-1.68
-1.48
-1.05
-0.60
-0.34
-0.40
-0.77
-1.28
-1.75
-2.07
-2.23
-2.32
-2.47
-2.73
-3.09
-3.45
-3.71
-3.80
-3.72
-3.51
-3.22
-2.92
-2.66
-2.48
-2.41
-2.46
-2.61
-2.87
-3.22
-3.68
-4.22
-4.81
-5.40
-5.94
-6.42
-6.89
-7.37
-7.93
-8.56
-9.25
-9.92
-10.49
-10.85
-10.92
-10.66
-10.06
-9.17
-8.05
-6.72
-5.16
-3.34
-1.25
1.08
3.55
6.04
8.41
10.51
12.20
13.30
13.71
13.42
12.60
11.55
10.62
10.10
10.08
10.46
11.01
11.44
11.54
11.22
10.51
9.56
8.55
7.66
6.98
6.49
6.10
5.65
5.08
4.41
3.79
3.37
3.19
3.18
3.18
3.06
2.79
2.45
2.15
1.94
1.74
1.41
0.88
0.18
-0.50
-0.94
-0.97
-0.60
-0.04
0.46
0.64
0.41
-0.17
-0.91
-1.64
-2.21
-2.60
-2.80
-2.84
-2.68
-2.28
-1.64
-0.85
-0.07
0.50
0.75
0.67
0.43
0.21
0.15
0.28
0.52
0.73
0.84
0.83
0.77
0.70
0.66
0.65
0.62
0.56
0.50
0.49
0.57
0.73
0.91
1.03
1.04
0.93
0.74
0.54
0.34
0.13
-0.11
-0.38
-0.62
-0.74
-0.71
-0.52
-0.29
-0.15
-0.23
-0.54
-1.04
-1.60
-2.09
-2.40
-2.48
-2.28
-1.82
-1.13
-0.29
0.58
1.34
1.89
2.19
2.26
2.20
2.11
2.05
2.01
1.93
1.79
1.59
1.38
1.22
1.14
1.11
1.05
0.90
0.65
0.37
0.17
0.14
0.30
0.54
0.69
0.62
0.31
-0.16
-0.58
-0.82
-0.81
-0.64
-0.44
-0.34
-0.41
-0.64
-0.97
-1.35
-1.74
-2.07
-2.28
-2.26
-2.00
-1.51
-0.91
-0.34
0.10
0.38
0.54
0.68
0.87
1.14
1.45
1.71
1.84
1.80
1.61
1.36
1.16
1.11
1.25
1.54
1.89
2.17
2.29
2.18
1.86
1.43
1.03
0.76
0.72
0.88
1.13
1.33
1.37
1.19
0.84
0.43
0.06
-0.21
-0.35
-0.42
-0.46
-0.52
-0.60
-0.71
-0.81
-0.88
-0.88
-0.79
-0.61
-0.37
-0.11
0.12
0.27
0.36
0.36
0.30
0.17
-0.08
-0.47
-1.01
-1.65
-2.27
-2.72
-2.88
-2.72
-2.29
-1.75
-1.27
-1.00
-1.02
-1.28
-1.67
-2.02
-2.18
-2.07
-1.70
-1.18
-0.60
-0.10
0.30
0.59
0.82
1.02
1.20
1.34
1.41
1.42
1.43
1.51
1.70
1.97
2.28
2.56
2.79
2.95
3.05
3.06
2.97
2.78
2.52
2.31
2.22
2.27
2.38
2.34
2.00
1.28
0.29
-0.71
-1.47
-1.86
-1.93
-1.87
-1.88
-2.08
-2.42
-2.73
-2.84
-2.67
-2.30
-1.87
-1.53
-1.39
-1.43
-1.58
-1.74
-1.83
-1.79
-1.63
-1.41
-1.21
-1.06
-1.00
-0.99
-1.03
-1.14
-1.35
-1.67
-2.00
-2.18
-2.05
-1.52
-0.69
0.18
0.86
1.18
1.21
1.13
1.14
1.38
1.83
2.36
2.82
3.07
3.05
2.77
2.33
1.85
1.47
1.27
1.31
1.54
1.86
2.13
2.28
2.25
2.11
1.90
1.69
1.46
1.18
0.81
0.37
-0.05
-0.36
-0.49
-0.46
-0.38
-0.39
-0.56
-0.87
-1.24
-1.55
-1.73
-1.78
-1.71
-1.57
-1.33
-1.00
-0.58
-0.13
0.24
0.43
0.45
0.38
0.38
0.57
0.95
1.38
1.65
1.57
1.16
0.56
0.04
-0.23
-0.22
-0.05
0.07
0.01
-0.20
-0.43
-0.53
-0.42
-0.17
0.07
0.14
-0.03
-0.36
-0.70
-0.92
-0.96
-0.89
-0.82
-0.86
-1.02
-1.26
-1.48
-1.64
-1.72
-1.75
-1.72
-1.56
-1.20
-0.64
0.06
0.76
1.31
1.59
1.59
1.42
1.20
1.04
1.02
1.09
1.20
1.28
1.28
1.19
1.07
0.95
0.86
0.81
0.74
0.63
0.48
0.32
0.17
0.06
-0.03
-0.11
-0.20
-0.32
-0.44
-0.57
-0.68
-0.77
-0.82
-0.83
-0.79
-0.73
-0.73
-0.84
-1.16
-1.68
-2.35
-3.00
-3.40
-3.38
-2.85
-1.89
-0.74
0.31
1.04
1.39
1.47
1.46
1.49
1.59
1.70
1.70
1.58
1.38
1.22
1.18
1.25
1.36
1.40
1.29
1.03
0.72
0.44
0.29
0.30
0.42
0.56
0.61
0.50
0.20
-0.21
-0.63
-0.93
-1.04
-0.93
-0.68
-0.42
-0.27
-0.33
-0.61
-1.05
-1.55
-2.00
-2.30
-2.38
-2.20
-1.81
-1.30
-0.81
-0.40
-0.09
0.19
0.54
1.02
1.58
2.10
2.44
2.50
2.27
1.87
1.44
1.11
0.93
0.87
0.85
0.78
0.62
0.37
0.09
-0.12
-0.20
-0.14
0.02
0.25
0.49
0.73
0.90
0.97
0.83
0.46
-0.13
-0.80
-1.39
-1.74
-1.79
-1.61
-1.35
-1.21
-1.29
-1.57
-1.92
-2.15
-2.17
-1.98
-1.69
-1.44
-1.33
-1.34
-1.39
-1.39
-1.33
-1.29
-1.35
-1.59
-1.99
-2.46
-2.89
-3.22
-3.46
-3.70
-4.01
-4.43
-4.95
-5.53
-6.11
-6.69
-7.34
-8.10
-8.98
-9.93
-10.80
-11.43
-11.75
-11.74
-11.50
-11.15
-10.75
-10.29
-9.68
-8.80
-7.59
-6.00
-4.04
-1.77
0.76
3.44
6.13
8.66
10.87
12.64
13.91
14.68
14.97
14.83
14.35
13.64
12.87
12.16
11.59
11.10
10.54
9.78
8.78
7.63
6.57
5.83
5.52
5.56
5.72
5.76
5.51
4.99
4.36
3.80
3.41
3.16
2.96
2.66
2.20
1.57
0.88
0.24
-0.22
-0.45
-0.49
-0.44
-0.46
-0.64
-0.98
-1.35
-1.60
-1.63
-1.43
-1.12
-0.80
-0.54
-0.32
-0.06
0.25
0.58
0.82
0.92
0.88
0.78
0.70
0.69
0.73
0.77
0.78
0.76
0.76
0.81
0.91
1.00
1.00
0.86
0.58
0.22
-0.19
-0.57
-0.86
-1.05
-1.09
-1.02
-0.87
-0.71
-0.61
-0.59
-0.64
-0.70
-0.75
-0.78
-0.85
-1.03
-1.33
-1.70
-2.00
-2.10
-1.94
-1.56
-1.09
-0.66
-0.37
-0.20
-0.07
0.08
0.27
0.46
0.57
0.54
0.39
0.22
0.15
0.24
0.49
0.83
1.11
1.24
1.21
1.06
0.89
0.78
0.73
0.73
0.72
0.68
0.64
0.65
0.74
0.92
1.11
1.28
1.38
1.39
1.31
1.15
0.93
0.73
0.63
0.70
0.91
1.21
1.50
1.72
1.92
2.24
2.85
3.81
5.06
6.41
7.68
8.72
9.56
10.29
11.10
12.12
13.43
15.02
16.81
18.68
20.53
22.35
24.16
26.07
28.22
30.72
33.68
37.16
41.12
45.39
49.64
53.46
56.49
58.54
59.65
60.04
59.91
59.26
57.99
55.93
53.13
49.86
46.56
43.64
41.26
39.41
37.93
36.69
35.62
34.75
34.16
34.06
34.73
36.47
39.37
43.07
46.75
49.14
49.30
47.20
43.86
41.00
40.27
42.59
47.86
55.00
62.20
67.70
70.33
69.76
66.34
60.89
54.45
48.13
42.94
39.06
36.41
34.80
34.11
34.14
34.43
34.31
32.97
29.65
22.27
9.58
-8.21
-29.33
-51.46
-72.68
-91.77
-107.99
-120.89
-133.05
-146.29
-160.63
-174.20
-184.97
-192.21
-196.36
-198.42
-199.40
-204.75
-218.18
-239.98
-266.31
-292.03
-313.44
-328.84
-338.09
-342.11
-348.27
-362.07
-384.94
-412.61
-439.16
-460.74
-476.55
-488.05
-460.42
-376.53
-245.49
-99.85
30.28
131.56
203.92
252.36
282.42
299.20
299.85
284.80
255.48
217.39
177.26
140.72
112.26
95.80
94.14
103.16
125.34
155.33
184.95
206.31
215.70
215.01
209.36
203.65
197.54
189.44
177.30
162.60
148.41
136.59
126.60
116.18
103.13
85.48
64.63
41.68
20.16
3.69
-5.94
-9.14
-7.80
-4.18
-0.57
1.61
1.06
-1.95
-6.29
-10.60
-13.73
-15.12
-14.70
-12.87
-10.39
-8.50
-7.82
-8.41
-9.80
-11.30
-12.24
-12.19
-11.05
-9.06
-6.88
-4.98
-3.65
-2.91
-2.56
-2.34
-2.03
-1.51
-0.84
-0.14
0.51
1.03
1.42
1.71
1.91
2.05
2.10
2.06
1.95
1.85
1.83
1.89
1.98
1.95
1.71
1.19
0.47
-0.30
-0.95
-1.37
-1.55
-1.57
-1.53
-1.54
-1.66
-1.93
-2.36
-2.94
-3.64
-4.40
-5.10
-5.61
-5.76
-5.42
-4.55
-3.26
-1.77
-0.38
0.66
1.26
1.44
1.39
1.26
1.16
1.11
1.09
1.10
1.20
1.43
1.84
2.37
2.91
3.28
3.35
3.06
2.45
1.60
0.66
-0.28
-1.17
-2.02
-2.84
-3.61
-4.21
-4.52
-4.43
-3.98
-3.40
-3.02
-3.14
-3.90
-5.20
-6.76
-8.19
-9.16
-9.41
-8.84
-7.51
-5.58
-3.37
-1.28
0.34
1.24
1.42
1.07
0.54
0.16
0.15
0.60
1.44
2.51
3.63
4.64
5.43
5.93
6.10
5.95
5.53
4.91
4.21
3.55
3.10
2.99
3.38
4.31
5.71
7.36
8.85
9.73
9.62
8.38
6.18
3.53
1.07
-0.53
-0.87
0.11
2.04
4.32
6.29
7.41
7.53
6.79
5.61
4.40
3.41
2.66
1.97
1.18
0.21
-0.81
-1.68
-2.20
-2.35
-2.27
-2.21
-2.37
-2.82
-3.50
-4.27
-5.04
-5.75
-6.32
-6.64
-6.50
-5.73
-4.28
-2.40
-0.60
0.47
0.28
-1.31
-3.90
-6.64
-8.53
-8.81
-7.27
-4.32
-0.82
2.31
4.40
5.30
5.30
4.93
4.73
5.02
5.84
7.07
8.52
10.00
11.38
12.51
13.21
13.28
12.60
11.20
9.32
7.36
5.79
4.98
5.08
6.05
7.65
9.58
11.54
13.18
14.16
14.19
13.17
11.24
8.83
6.51
4.73
3.67
3.20
2.99
2.72
2.30
1.82
1.48
1.40
1.50
1.57
1.35
0.69
-0.43
-1.82
-3.20
-4.31
-4.99
-5.26
-5.36
-5.60
-6.29
-7.56
-9.30
-11.16
-12.72
-13.56
-13.39
-12.12
-9.90
-7.07
-4.21
-1.93
-0.75
-0.83
-1.93
-3.44
-4.61
-4.80
-3.78
-1.71
0.93
3.59
5.78
7.26
7.99
8.09
7.80
7.38
7.07
7.07
7.52
8.44
9.66
10.87
11.65
11.61
10.58
8.74
6.60
4.81
3.89
4.04
5.10
6.74
8.60
10.44
12.09
13.28
13.69
13.08
11.51
9.47
7.67
6.71
6.69
7.19
7.49
7.01
5.70
4.00
2.55
1.74
1.51
1.46
1.11
0.27
-0.90
-1.97
-2.60
-2.71
-2.54
-2.54
-3.10
-4.43
-6.48
-8.97
-11.55
-13.87
-15.64
-16.70
-17.05
-16.84
-16.39
-15.99
-15.85
-15.96
-16.08
-15.83
-14.83
-12.89
-10.12
-6.89
-3.69
-0.99
0.95
2.09
2.61
2.77
2.85
3.08
3.56
4.36
5.50
6.93
8.55
10.18
11.59
12.53
12.81
12.39
11.41
10.12
8.87
7.99
7.74
8.27
9.58
11.54
13.90
16.25
18.11
19.01
18.63
16.94
14.31
11.43
9.07
7.74
7.48
7.81
8.03
7.49
5.95
3.66
1.13
-1.15
-3.00
-4.54
-6.05
-7.69
-9.42
-11.01
-12.20
-12.89
-13.18
-13.24
-13.27
-13.35
-13.46
-13.53
-13.48
-13.32
-13.13
-12.99
-12.97
-13.01
-12.93
-12.46
-11.38
-9.67
-7.56
-5.52
-4.03
-3.30
-3.18
-3.20
-2.79
-1.56
0.54
3.26
6.16
8.80
10.89
12.21
12.63
12.11
10.69
8.66
6.50
4.78
3.98
4.26
5.38
6.81
7.93
8.29
7.77
6.62
5.29
4.26
3.84
4.12
5.04
6.42
8.03
9.63
10.88
11.49
11.22
10.08
8.35
6.49
5.01
4.16
3.91
3.89
3.64
2.81
1.30
-0.71
-2.88
-4.88
-6.53
-7.83
-8.94
-10.05
-11.26
-12.53
-13.78
-14.84
-15.65
-16.21
-16.61
-16.95
-17.28
-17.55
-17.67
-17.52
-17.02
-16.11
-14.77
-13.00
-10.82
-8.32
-5.68
-3.12
-0.85
1.01
2.48
3.72
4.96
6.34
7.86
9.38
10.63
11.44
11.74
11.60
11.23
10.80
10.40
10.05
9.67
9.24
8.78
8.31
7.83
7.23
6.36
5.08
3.43
1.67
0.15
-0.78
-0.95
-0.38
0.80
2.46
4.48
6.68
8.73
10.19
10.63
9.87
8.18
6.22
4.75
4.30
4.87
5.98
6.86
6.88
5.81
3.92
1.76
-0.13
-1.48
-2.34
-3.03
-3.85
-4.96
-6.31
-7.68
-8.90
-9.89
-10.76
-11.66
-12.74
-14.00
-15.31
-16.45
-17.21
-17.46
-17.10
-16.09
-14.43
-12.16
-9.41
-6.49
-3.86
-1.99
-1.14
-1.20
-1.64
-1.77
-1.03
0.76
3.30
5.99
8.27
9.87
10.86
11.51
12.09
12.63
12.95
12.82
12.14
11.02
9.73
8.50
7.43
6.42
5.31
4.00
2.56
1.13
-0.18
-1.42
-2.76
-4.35
-6.15
-7.90
-9.21
-9.77
-9.53
-8.72
-7.71
-6.82
-6.18
-5.70
-5.23
-4.77
-4.50
-4.73
-5.73
-7.50
-9.74
-11.95
-13.68
-14.71
-15.14
-15.28
-15.48
-15.91
-16.51
-17.05
-17.27
-17.03
-16.36
-15.37
-14.19
-12.87
-11.38
-9.71
-7.95
-6.28
-4.89
-3.80
-2.81
-1.58
0.24
2.72
5.61
8.39
10.56
11.89
12.50
12.78
13.13
13.73
14.48
15.06
15.19
14.76
13.88
12.80
11.78
11.02
10.60
10.50
10.61
10.79
10.86
10.63
10.02
9.05
7.95
7.01
6.49
6.46
6.77
7.08
7.06
6.53
5.49
4.14
2.72
1.46
0.50
-0.16
-0.60
-0.96
-1.33
-1.60
-1.36
0.10
3.55
9.60
18.24
28.69
39.34
47.99
52.39
50.86
42.87
29.42
12.92
-3.39
-16.42
-24.19
-26.40
-24.29
-19.88
-15.07
-10.92
-7.56
-4.63
-1.85
0.64
2.36
2.87
2.22
1.00
0.05
0.01
0.88
2.02
2.51
1.65
-0.65
-3.81
-6.85
-8.85
-9.38
-8.62
-7.23
-6.03
-5.65
-6.33
-7.88
-9.78
-11.36
-12.01
-11.40
-9.55
-6.88
-4.03
-1.65
-0.19
0.21
-0.19
-0.99
-1.74
-2.13
-2.04
-1.51
-0.72
0.13
0.80
1.09
0.89
0.23
-0.74
-1.79
-2.71
-3.37
-3.75
-3.96
-4.18
-4.54
-5.06
-5.64
-6.09
-6.26
-6.12
-5.81
-5.50
-5.33
-5.26
-5.14
-4.84
-4.35
-3.85
-3.59
-3.71
-4.09
-4.36
-4.10
-3.10
-1.49
0.32
1.81
2.60
2.59
2.00
1.30
1.00
1.49
2.83
4.75
6.68
7.99
8.27
7.61
6.64
6.30
7.44
10.31
14.45
18.78
22.10
23.63
23.41
22.40
22.06
23.63
27.53
33.21
39.39
44.62
47.86
49.00
48.92
49.12
51.12
56.10
64.83
77.54
93.26
109.07
120.11
120.71
106.66
77.33
36.92
-6.13
-41.98
-63.10
-67.10
-56.86
-38.42
-18.01
-0.29
12.14
18.21
17.38
9.01
-7.66
-32.68
-64.39
-96.90
-122.58
-136.40
-138.32
-131.93
-121.41
-109.94
-99.09
-89.08
-79.55
-70.59
-63.04
-57.88
-55.49
-54.95
-54.71
-52.99
-48.31
-40.36
-30.56
-21.78
-17.14
-19.28
-27.46
-39.07
-49.85
-54.92
-50.42
-35.20
-11.39
17.10
43.48
62.92
73.69
77.15
76.48
74.96
74.41
74.84
74.81
72.29
65.96
55.32
41.05
24.93
9.27
-3.81
-13.33
-19.47
-22.99
-24.45
-24.19
-22.28
-18.81
-14.38
-10.09
-7.18
-6.42
-7.68
-9.91
-11.78
-12.34
-11.34
-9.29
-7.14
-5.69
-5.27
-5.67
-6.19
-6.11
-4.98
-2.75
0.23
3.31
5.86
7.51
8.23
8.34
8.28
8.06
7.58
6.57
4.77
2.21
-0.68
-3.16
-4.59
-4.70
-3.73
-2.29
-0.99
-0.21
0.07
0.11
0.14
0.21
0.16
-0.24
-1.00
-1.98
-2.95
-3.69
-4.19
-4.54
-4.92
-5.46
-6.22
-7.13
-8.05
-8.84
-9.46
-9.95
-10.46
-11.15
-12.10
-13.22
-14.22
-14.72
-14.43
-13.30
-11.58
-9.69
-8.06
-6.89
-6.15
-5.59
-4.95
-4.05
-2.83
-1.29
0.54
2.62
4.84
7.02
8.89
10.18
10.70
10.48
9.72
8.75
7.87
7.23
6.77
6.33
5.70
4.83
