1660322071.00
64.000000
-0.00
-0.00
-0.00
-0.00
-0.00
-0.00
-0.00
-0.00
-0.00
-0.00
0.00
0.01
0.01
-0.00
-0.03
-0.05
-0.05
0.00
0.13
0.36
0.66
1.01
1.37
1.72
2.06
2.40
2.79
3.24
3.80
4.42
5.06
5.66
6.20
6.68
7.15
7.68
8.31
9.15
10.09
11.05
11.89
12.56
13.13
13.75
14.65
15.98
17.96
20.38
22.95
25.35
27.41
29.22
31.12
33.59
36.96
41.61
47.19
53.12
58.78
63.80
68.25
72.64
77.71
84.01
92.07
101.34
110.94
119.92
127.66
134.23
140.35
147.46
154.32
163.21
174.57
188.32
203.07
215.83
222.35
218.23
200.38
168.14
123.88
71.20
14.01
-44.84
-103.99
-163.00
-221.55
-278.77
-333.41
-383.97
-429.91
-471.23
-508.00
-539.64
-564.54
-580.29
-584.31
-574.89
-551.65
-516.16
-471.19
-420.18
-366.53
-313.12
-261.85
-213.26
-166.40
-119.01
-68.62
-13.73
45.07
104.85
161.10
209.33
246.61
272.24
287.51
294.48
295.04
290.41
281.35
268.75
253.89
238.31
223.29
209.42
196.47
183.70
170.37
156.17
141.39
126.79
113.17
101.14
90.83
81.89
73.75
65.83
57.76
49.52
41.39
33.83
27.23
21.91
17.71
14.29
11.24
8.29
5.37
2.63
0.21
-1.77
-3.36
-4.72
-5.94
-7.05
-7.97
-8.60
-8.90
-8.93
-8.82
-8.70
-8.63
-8.56
-8.45
-8.24
-7.93
-7.55
-7.13
-6.69
-6.26
-5.90
-5.64
-5.48
-5.37
-5.18
-4.82
-4.30
-3.70
-3.21
-2.93
-2.85
-2.86
-2.81
-2.64
-2.42
-2.31
-2.42
-2.66
-2.80
-2.54
-1.74
-0.53
0.68
1.42
1.40
0.68
-0.42
-1.40
-1.93
-1.91
-1.50
-0.98
-0.58
-0.35
-0.23
-0.14
-0.03
0.08
0.14
0.11
-0.00
-0.14
-0.20
-0.07
0.29
0.86
1.51
2.08
2.45
2.66
2.85
3.25
3.95
4.87
5.76
6.29
6.28
5.77
4.99
4.23
3.66
3.26
2.87
2.27
1.40
0.19
-1.27
-2.88
-4.52
-6.05
-7.31
-8.13
-8.41
-8.12
-7.44
-6.62
-5.92
-5.52
-5.47
-5.67
-5.94
-6.09
-5.98
-5.55
-4.82
-3.93
-3.01
-2.23
-1.67
-1.33
-1.15
-1.03
-0.89
-0.72
-0.60
-0.59
-0.76
-1.08
-1.45
-1.73
-1.83
-1.74
-1.51
-1.26
-1.09
-1.00
-0.94
-0.81
-0.57
-0.26
0.04
0.22
0.23
0.08
-0.16
-0.39
-0.53
-0.55
-0.52
-0.49
-0.56
-0.74
-0.99
-1.25
-1.41
-1.45
-1.38
-1.26
-1.12
-0.94
-0.69
-0.31
0.22
0.84
1.45
1.95
2.32
2.58
2.78
2.94
3.04
3.04
2.90
2.65
2.36
2.13
2.01
1.95
1.90
1.77
1.49
1.09
0.59
0.04
-0.52
-1.04
-1.49
-1.84
-2.07
-2.16
-2.17
-2.14
-2.11
-2.11
-2.14
-2.16
-2.12
-1.96
-1.64
-1.14
-0.48
0.25
0.97
1.58
2.06
2.42
2.68
2.81
2.77
2.49
1.97
1.30
0.67
0.23
0.08
0.17
0.35
0.44
0.32
-0.01
-0.44
-0.85
-1.11
-1.22
-1.19
-1.14
-1.13
-1.24
-1.49
-1.86
-2.29
-2.72
-3.06
-3.24
-3.22
-2.94
-2.42
-1.68
-0.84
-0.01
0.64
1.03
1.15
1.08
0.97
0.93
1.00
1.11
1.16
1.06
0.80
0.46
0.15
-0.03
-0.06
0.02
0.13
0.21
0.23
0.19
0.13
0.04
-0.06
-0.19
-0.38
-0.65
-1.01
-1.41
-1.78
-2.01
-2.01
-1.79
-1.43
-1.05
-0.74
-0.53
-0.37
-0.21
0.02
0.32
0.67
1.07
1.52
2.02
2.54
2.98
3.20
3.12
2.73
2.12
1.43
0.82
0.37
0.12
0.07
0.16
0.32
0.49
0.60
0.61
0.50
0.29
0.03
-0.21
-0.35
-0.38
-0.34
-0.34
-0.47
-0.80
-1.29
-1.87
-2.39
-2.74
-2.84
-2.69
-2.32
-1.81
-1.25
-0.70
-0.23
0.16
0.49
0.78
1.06
1.30
1.49
1.61
1.67
1.70
1.70
1.67
1.58
1.40
1.14
0.86
0.61
0.41
0.28
0.21
0.16
0.14
0.15
0.17
0.16
0.05
-0.21
-0.62
-1.13
-1.64
-2.07
-2.37
-2.53
-2.59
-2.64
-2.77
-3.04
-3.38
-3.70
-3.84
-3.67
-3.18
-2.47
-1.66
-0.92
-0.34
0.05
0.27
0.38
0.43
0.46
0.50
0.53
0.53
0.43
0.23
-0.07
-0.41
-0.76
-1.11
-1.49
-1.96
-2.52
-3.15
-3.78
-4.35
-4.86
-5.34
-5.84
-6.38
-6.93
-7.41
-7.74
-7.86
-7.78
-7.54
-7.17
-6.67
-5.96
-5.00
-3.78
-2.34
-0.77
0.83
2.42
4.03
5.64
7.19
8.53
9.51
10.02
10.07
9.81
9.40
8.98
8.58
8.18
7.71
7.17
6.60
6.06
5.60
5.19
4.76
4.27
3.71
3.14
2.61
2.14
1.73
1.31
0.87
0.43
0.03
-0.27
-0.47
-0.62
-0.75
-0.86
-0.87
-0.70
-0.29
0.29
0.92
1.41
1.64
1.61
1.45
1.31
1.33
1.50
1.72
1.85
1.77
1.51
1.15
0.84
0.66
0.61
0.64
0.68
0.67
0.59
0.44
0.21
-0.09
-0.44
-0.83
-1.20
-1.50
-1.69
-1.77
-1.80
-1.80
-1.83
-1.89
-1.96
-1.98
-1.91
-1.74
-1.47
-1.12
-0.72
-0.30
0.14
0.56
0.93
1.18
1.27
1.21
1.04
0.82
0.63
0.50
0.47
0.50
0.55
0.59
0.58
0.51
0.41
0.32
0.26
0.24
0.22
0.16
0.05
-0.11
-0.24
-0.31
-0.33
-0.34
-0.43
-0.63
-0.93
-1.23
-1.45
-1.54
-1.44
-1.17
-0.76
-0.27
0.21
0.58
0.78
0.81
0.75
0.73
0.84
1.09
1.41
1.71
1.90
2.01
2.08
2.20
2.41
2.66
2.90
3.04
3.04
2.92
2.71
2.49
2.34
2.31
2.39
2.51
2.55
2.40
2.00
1.39
0.65
-0.05
-0.62
-1.03
-1.31
-1.50
-1.63
-1.66
-1.55
-1.27
-0.89
-0.50
-0.22
-0.12
-0.20
-0.39
-0.63
-0.87
-1.12
-1.44
-1.84
-2.30
-2.75
-3.10
-3.29
-3.32
-3.21
-3.01
-2.72
-2.32
-1.79
-1.17
-0.58
-0.16
-0.06
-0.30
-0.79
-1.36
-1.87
-2.28
-2.61
-2.92
-3.20
-3.37
-3.30
-2.91
-2.27
-1.53
-0.87
-0.35
0.06
0.47
0.95
1.47
1.91
2.13
2.13
1.98
1.85
1.84
1.92
1.97
1.84
1.46
0.91
0.38
0.05
-0.02
0.11
0.25
0.22
-0.04
-0.46
-0.89
-1.18
-1.28
-1.26
-1.29
-1.47
-1.81
-2.19
-2.43
-2.41
-2.14
-1.73
-1.32
-1.01
-0.81
-0.69
-0.60
-0.50
-0.43
-0.39
-0.40
-0.41
-0.44
-0.47
-0.51
-0.54
-0.51
-0.35
-0.04
0.38
0.80
1.13
1.38
1.65
2.11
2.83
3.77
4.77
5.63
6.27
6.74
7.19
7.71
8.27
8.69
8.70
8.15
6.99
5.37
3.55
1.80
0.28
-0.99
-2.10
-3.22
-4.48
-5.94
-7.55
-9.16
-10.57
-11.61
-12.15
-12.17
-11.70
-10.83
-9.68
-8.37
-7.06
-5.89
-4.94
-4.25
-3.74
-3.34
-2.96
-2.60
-2.24
-1.87
-1.46
-0.95
-0.34
0.29
0.77
0.92
0.66
0.04
-0.71
-1.39
-1.81
-1.91
-1.70
-1.21
-0.48
0.41
1.33
2.13
2.65
2.84
2.75
2.56
2.42
2.41
2.50
2.57
2.51
2.29
1.98
1.71
1.58
1.57
1.63
1.63
1.51
1.27
1.03
0.89
0.90
1.03
1.17
1.21
1.08
0.80
0.46
0.17
0.03
0.08
0.34
0.75
1.26
1.82
2.37
2.90
3.34
3.64
3.72
3.53
3.08
2.49
1.92
1.53
1.38
1.46
1.66
1.84
1.89
1.82
1.64
1.43
1.23
1.07
0.98
0.93
0.91
0.88
0.78
0.56
0.23
-0.20
-0.69
-1.20
-1.67
-2.07
-2.33
-2.42
-2.31
-2.05
-1.74
-1.47
-1.29
-1.18
-1.04
-0.78
-0.36
0.14
0.63
1.01
1.23
1.35
1.44
1.55
1.69
1.78
1.74
1.53
1.19
0.79
0.46
0.24
0.15
0.16
0.18
0.20
0.20
0.21
0.24
0.27
0.27
0.18
-0.01
-0.33
-0.75
-1.19
-1.59
-1.83
-1.87
-1.69
-1.38
-1.05
-0.82
-0.71
-0.62
-0.41
-0.01
0.54
1.10
1.49
1.57
1.37
1.05
0.75
0.62
0.64
0.79
0.96
1.12
1.22
1.22
1.05
0.65
0.04
-0.69
-1.35
-1.77
-1.89
-1.79
-1.66
-1.69
-1.96
-2.43
-2.94
-3.33
-3.46
-3.33
-2.98
-2.50
-1.94
-1.36
-0.76
-0.17
0.39
0.87
1.25
1.54
1.77
1.97
2.16
2.34
2.46
2.47
2.35
2.10
1.77
1.45
1.20
1.08
1.09
1.17
1.22
1.14
0.90
0.51
0.05
-0.36
-0.67
-0.88
-1.02
-1.13
-1.24
-1.33
-1.40
-1.47
-1.54
-1.62
-1.67
-1.62
-1.38
-0.92
-0.27
0.49
1.24
1.86
2.30
2.55
2.63
2.60
2.51
2.40
2.29
2.15
1.94
1.63
1.21
0.72
0.22
-0.21
-0.55
-0.81
-1.02
-1.19
-1.32
-1.39
-1.36
-1.24
-1.06
-0.90
-0.84
-0.93
-1.12
-1.37
-1.59
-1.77
-1.92
-2.08
-2.21
-2.25
-2.10
-1.73
-1.19
-0.66
-0.30
-0.22
-0.37
-0.58
-0.66
-0.48
-0.06
0.45
0.88
1.09
1.09
0.97
0.85
0.85
0.93
1.01
0.95
0.67
0.21
-0.29
-0.66
-0.78
-0.67
-0.42
-0.16
0.03
0.14
0.21
0.27
0.33
0.35
0.30
0.18
0.01
-0.16
-0.27
-0.28
-0.19
-0.01
0.23
0.53
0.84
1.13
1.38
1.54
1.59
1.51
1.30
0.98
0.62
0.28
-0.01
-0.21
-0.33
-0.38
-0.36
-0.26
-0.10
0.05
0.14
0.12
-0.01
-0.18
-0.28
-0.24
-0.06
0.18
0.36
0.40
0.27
-0.00
-0.40
-0.86
-1.36
-1.82
-2.17
-2.28
-2.09
-1.62
-0.98
-0.32
0.23
0.61
0.81
0.92
1.01
1.13
1.30
1.51
1.72
1.90
2.01
2.02
1.90
1.68
1.40
1.12
0.90
0.72
0.58
0.44
0.31
0.16
0.00
-0.19
-0.45
-0.79
-1.22
-1.69
-2.15
-2.53
-2.78
-2.87
-2.85
-2.74
-2.57
-2.34
-2.03
-1.60
-1.09
-0.56
-0.07
0.27
0.44
0.45
0.36
0.23
0.10
-0.03
-0.20
-0.45
-0.77
-1.11
-1.39
-1.55
-1.57
-1.50
-1.44
-1.50
-1.72
-2.10
-2.57
-3.03
-3.42
-3.71
-3.95
-4.18
-4.44
-4.77
-5.16
-5.59
-6.01
-6.41
-6.70
-6.78
-6.55
-5.94
-4.93
-3.59
-2.04
-0.43
1.15
2.62
3.98
5.21
6.28
7.15
7.79
8.17
8.33
8.31
8.15
7.85
7.42
6.85
6.17
5.44
4.75
4.15
3.66
3.25
2.87
2.48
2.10
1.76
1.48
1.27
1.04
0.69
0.16
-0.50
-1.12
-1.50
-1.54
-1.26
-0.81
-0.39
-0.13
-0.03
0.00
0.11
0.35
0.68
0.97
1.12
1.08
0.94
0.81
0.80
0.93
1.13
1.29
1.31
1.18
0.96
0.77
0.70
0.77
0.96
1.24
1.59
2.01
2.49
2.99
3.37
3.50
3.29
2.69
1.74
0.50
-0.95
-2.51
-4.04
-5.31
-6.07
-6.14
-5.57
-4.62
-3.74
-3.37
-3.78
-4.92
-6.46
-7.90
-8.75
-8.74
-7.93
-6.72
-5.74
-5.62
-6.74
-9.02
-11.95
-14.73
-16.54
-16.83
-15.50
-12.84
-9.37
-5.59
-1.84
1.75
5.20
8.58
11.98
15.44
18.96
22.45
25.76
28.70
31.10
32.83
33.88
34.30
34.18
33.53
32.36
30.72
28.73
26.61
24.59
22.82
21.26
19.78
18.17
16.38
14.54
12.93
11.83
11.35
11.38
11.55
11.46
10.79
9.45
7.62
5.65
3.87
2.54
1.73
1.38
1.34
1.43
1.51
1.50
1.39
1.27
1.32
1.80
2.89
4.64
6.85
9.17
11.24
12.88
14.23
15.72
17.93
21.30
25.95
31.48
37.07
41.59
43.92
43.18
38.94
31.35
21.05
9.05
-3.50
-15.48
-26.05
-34.65
-41.06
-45.31
-47.68
-48.52
-48.21
-47.03
-45.21
-42.90
-40.27
-37.56
-35.10
-33.18
-31.99
-31.53
-31.58
-31.81
-31.85
-31.43
-30.42
-28.82
-26.75
-24.43
-22.14
-20.20
-18.85
-18.16
-17.99
-18.01
-17.82
-17.16
-15.96
-14.37
-12.69
-11.18
-9.98
-9.11
-8.49
-8.02
-7.63
-7.27
-6.94
-6.64
-6.39
-6.22
-6.13
-6.13
-6.21
-6.34
-6.47
-6.57
-6.64
-6.69
-6.74
-6.79
-6.81
-6.75
-6.60
-6.38
-6.22
-6.24
-6.50
-6.96
-7.47
-7.85
-7.92
-7.68
-7.21
-6.66
-6.14
-5.72
-5.33
-4.89
-4.32
-3.61
-2.81
-2.00
-1.22
-0.47
0.29
1.08
1.87
2.57
3.12
3.48
3.74
3.98
4.30
4.68
5.00
5.11
4.91
4.39
3.64
2.81
2.01
1.28
0.63
0.09
-0.30
-0.42
-0.23
0.28
0.98
1.72
2.36
2.88
3.35
3.94
4.72
5.69
6.68
7.50
8.04
8.31
8.41
8.48
8.55
8.57
8.47
8.22
7.88
7.57
7.38
7.26
7.05
6.59
5.75
4.61
3.33
2.13
1.12
0.30
-0.43
-1.17
-1.93
-2.66
-3.20
-3.45
-3.39
-3.07
-2.61
-2.08
-1.55
-1.02
-0.49
0.02
0.50
0.90
1.27
1.63
2.08
2.60
3.15
3.61
3.90
4.02
4.03
4.05
4.11
4.15
4.05
3.71
3.14
2.47
1.87
1.49
1.34
1.30
1.22
1.01
0.67
0.29
-0.03
-0.18
-0.16
-0.03
0.18
0.44
0.76
1.16
1.60
1.98
2.18
2.12
1.83
1.46
1.20
1.17
1.40
1.77
2.14
2.41
2.55
2.58
2.55
2.49
2.41
2.33
2.27
2.25
2.26
2.26
2.21
2.05
1.79
1.50
1.26
1.13
1.12
1.15
1.12
1.02
0.88
0.82
0.95
1.31
1.86
2.46
2.96
3.27
3.36
3.28
3.10
2.87
2.65
2.49
2.45
2.54
2.67
2.68
2.36
1.54
0.25
-1.31
-2.81
-3.94
-4.49
-4.53
-4.33
-4.28
-4.69
-5.71
-7.20
-8.82
-10.15
-10.87
-10.88
-10.32
-9.46
-8.62
-7.94
-7.45
-6.99
-6.42
-5.64
-4.65
-3.48
-2.18
-0.82
0.57
1.97
3.34
4.64
5.80
6.78
7.48
7.85
7.85
7.47
6.68
5.48
3.85
1.89
-0.15
-1.87
-2.87
-2.95
-2.23
-1.18
-0.37
-0.29
-1.09
-2.55
-4.25
-5.76
-6.84
-7.43
-7.60
-7.43
-6.99
-6.26
-5.21
-3.79
-2.00
0.14
2.49
4.80
6.81
8.31
9.22
9.64
9.79
9.90
10.15
10.60
11.22
11.87
12.26
12.00
10.66
7.98
4.07
-0.42
-4.51
-7.20
-7.98
-7.05
-5.25
-3.65
-3.00
-3.42
-4.43
-5.31
-5.55
-5.09
-4.30
-3.67
-3.46
-3.56
-3.59
-3.11
-1.98
-0.36
1.29
2.58
3.37
3.85
4.38
5.26
6.50
7.84
8.83
9.06
8.39
6.91
5.00
3.11
1.63
0.83
0.74
1.20
1.87
2.36
2.38
1.85
0.93
-0.06
-0.82
-1.23
-1.38
-1.50
-1.77
-2.21
-2.62
-2.71
-2.20
-1.03
0.67
2.60
4.42
5.93
7.09
8.05
9.03
10.24
11.73
13.38
14.89
15.82
15.67
13.99
10.51
5.38
-0.80
-7.02
-12.14
-15.28
-16.18
-15.31
-13.63
-12.13
-11.45
-11.61
-12.18
-12.65
-12.71
-12.42
-12.07
-11.94
-12.05
-12.14
-11.84
-10.83
-9.07
-6.78
-4.34
-2.02
0.07
2.03
4.02
6.11
8.13
9.74
10.60
10.54
9.74
8.61
7.70
7.42
7.88
8.88
9.93
10.47
10.15
8.90
7.01
4.99
3.35
2.36
2.00
1.98
1.96
1.70
1.19
0.58
0.07
-0.21
-0.28
-0.22
-0.12
-0.02
0.19
0.64
1.48
2.73
4.28
5.89
7.32
8.37
8.88
8.69
7.61
5.45
2.24
-1.67
-5.55
-8.55
-10.01
-9.87
-8.64
-7.17
-6.22
-6.08
-6.56
-7.20
-7.59
-7.60
-7.35
-7.03
-6.73
-6.40
-5.90
-5.19
-4.31
-3.38
-2.49
-1.62
-0.66
0.48
1.84
3.35
4.82
6.04
6.80
6.92
6.36
5.22
3.77
2.42
1.58
1.47
2.03
2.93
3.62
3.64
2.75
1.04
-1.12
-3.25
-4.92
-5.90
-6.15
-5.74
-4.82
-3.49
-1.94
-0.45
0.59
0.82
0.11
-1.35
-3.02
-4.25
-4.57
-3.82
-2.23
-0.25
1.63
3.00
3.60
3.26
2.02
0.16
-1.71
-2.85
-2.74
-1.45
0.30
1.42
1.00
-1.18
-4.52
-7.87
-10.15
-10.82
-10.13
-8.84
-7.74
-7.27
-7.33
-7.53
-7.45
-6.97
-6.27
-5.70
-5.50
-5.60
-5.66
-5.23
-4.03
-2.14
0.05
1.99
3.30
3.87
3.94
3.93
4.25
5.22
6.90
9.17
11.70
14.02
15.59
15.98
15.02
12.89
10.05
7.15
4.68
2.93
1.87
1.33
1.15
1.24
1.63
2.29
3.10
3.78
4.08
3.88
3.27
2.55
2.04
1.94
2.24
2.78
3.34
3.78
4.04
4.14
4.05
3.74
3.23
2.63
2.15
2.01
2.32
2.97
3.67
4.05
3.85
3.02
1.77
0.43
-0.67
-1.39
-1.73
-1.85
-1.95
-2.16
-2.55
-3.05
-3.56
-3.97
-4.21
-4.25
-4.13
-3.89
-3.59
-3.29
-3.03
-2.89
-2.91
-3.11
-3.46
-3.84
-4.07
-3.98
-3.47
-2.55
-1.35
-0.04
1.20
2.25
3.06
3.57
3.79
3.73
3.49
3.20
3.00
2.98
3.13
3.38
3.62
3.81
3.97
4.15
4.38
4.57
4.57
4.26
3.59
2.67
1.70
0.92
0.45
0.34
0.49
0.77
1.03
1.19
1.21
1.09
0.89
0.67
0.50
0.40
0.37
0.38
0.45
0.62
0.92
1.34
1.81
2.17
2.32
2.24
2.04
1.93
2.09
2.55
3.24
3.97
4.54
4.82
4.74
4.37
3.81
3.19
2.63
2.16
1.78
1.40
0.94
0.30
-0.54
-1.61
-2.89
-4.36
-5.93
-7.47
-8.79
-9.65
-9.84
-9.28
-8.07
-6.47
-4.84
-3.53
-2.75
-2.51
-2.65
-2.90
-3.05
-2.97
-2.68
-2.25
-1.79
-1.33
-0.92
-0.57
-0.33
-0.19
-0.09
0.06
0.36
0.83
1.38
1.80
1.88
1.54
0.83
-0.03
-0.80
-1.30
-1.48
-1.44
-1.32
-1.27
-1.36
-1.59
-1.89
-2.19
-2.42
-2.54
-2.55
-2.46
-2.25
-1.95
-1.57
-1.19
-0.90
-0.81
-0.98
-1.43
-2.05
-2.68
-3.15
-3.31
-3.16
-2.76
-2.30
-1.91
-1.69
-1.59
-1.47
-1.20
-0.67
0.05
0.83
1.46
1.81
1.88
1.76
1.65
1.68
1.92
2.33
2.80
3.23
3.58
3.87
4.19
4.59
5.08
5.58
5.92
5.94
5.51
4.65
3.52
2.34
1.33
0.59
0.04
-0.51
-1.27
-2.34
-3.59
-4.79
-5.68
-6.17
-6.35
-6.43
-6.63
-7.08
-7.75
-8.62
-9.70
-11.00
-12.54
-14.15
-15.48
-16.08
-15.57
-13.88
-11.20
-7.97
-4.65
-1.57
1.17
3.60
5.83
7.91
9.87
11.66
13.25
14.65
15.88
16.98
17.99
18.91
19.74
20.49
21.17
21.75
22.17
22.36
22.23
21.66
20.55
18.76
16.15
12.65
8.32
3.37
-1.81
-6.74
-10.96
-14.12
-16.04
-16.73
-16.39
-15.37
-14.06
-12.83
-11.91
-11.35
-11.00
-10.65
-10.09
-9.22
-8.02
-6.63
-5.17
-3.85
-2.82
-2.19
-1.96
-2.01
-2.16
-2.21
-2.08
-1.80
-1.50
-1.31
-1.29
-1.41
-1.59
-1.74
-1.82
-1.82
-1.80
-1.78
-1.78
-1.81
-1.83
-1.79
-1.62
-1.25
-0.69
-0.00
0.67
1.17
1.44
1.50
1.46
1.45
1.52
1.63
1.66
1.49
1.11
0.60
0.13
-0.18
-0.28
-0.21
-0.04
0.16
0.37
0.58
0.76
0.86
0.81
0.57
0.19
-0.24
-0.62
-0.91
-1.12
-1.32
-1.56
-1.82
-2.04
-2.11
-2.00
-1.74
-1.43
-1.19
-1.06
-1.04
-1.01
-0.87
-0.56
-0.11
0.36
0.75
0.97
1.03
1.00
0.97
0.98
1.04
1.15
1.29
1.47
1.66
1.82
1.88
1.82
1.70
1.59
1.56
1.59
1.60
1.53
1.37
1.20
1.12
1.18
1.31
1.37
1.24
0.90
0.45
0.04
-0.22
-0.34
-0.36
-0.35
-0.34
-0.31
-0.23
-0.10
0.01
0.02
-0.14
-0.44
-0.79
-1.08
-1.20
-1.11
-0.87
-0.55
-0.25
-0.01
0.14
0.22
0.26
0.26
0.22
0.14
0.06
-0.02
-0.07
-0.07
-0.05
-0.02
-0.04
-0.10
-0.24
-0.46
-0.72
-1.00
-1.21
-1.27
-1.12
-0.78
-0.30
0.19
0.60
0.90
1.13
1.35
1.59
1.79
1.89
1.81
1.54
1.17
0.82
0.59
0.55
0.66
0.85
1.03
1.17
1.26
1.33
1.44
1.62
1.89
2.17
2.36
2.39
2.20
1.82
1.32
0.80
0.28
-0.22
-0.76
-1.30
-1.81
-2.17
-2.29
-2.12
-1.74
-1.28
-0.92
-0.77
-0.84
-1.09
-1.39
-1.65
-1.83
-1.93
-1.97
-2.00
-2.00
-1.94
-1.79
-1.55
-1.25
-0.98
-0.84
-0.83
-0.94
-1.06
-1.11
-1.02
-0.81
-0.56
-0.34
-0.19
-0.12
-0.09
-0.06
-0.05
-0.09
-0.22
-0.45
-0.76
-1.07
-1.33
-1.51
-1.60
-1.63
-1.63
-1.55
-1.38
-1.04
-0.52
0.13
0.85
1.53
2.09
2.49
2.71
2.78
2.71
2.56
2.34
2.11
1.91
1.73
1.57
1.39
1.17
0.94
0.74
0.62
0.58
0.55
0.45
0.24
-0.04
-0.30
-0.42
-0.34
-0.14
0.04
0.06
-0.15
-0.55
-0.99
-1.35
-1.53
-1.54
-1.44
-1.31
-1.18
-1.06
-0.89
-0.63
-0.27
0.18
0.64
1.02
1.26
1.36
1.35
1.28
1.21
1.14
1.06
0.95
0.81
0.70
0.69
0.83
1.14
1.51
1.79
1.81
1.51
0.95
0.31
-0.20
-0.42
-0.34
-0.12
0.04
-0.02
-0.37
-0.89
-1.42
-1.82
-2.01
-2.02
-1.91
-1.73
-1.48
-1.16
-0.75
-0.31
0.09
0.37
0.49
0.47
0.36
0.27
0.25
0.32
0.45
0.62
0.81
0.99
1.19
1.37
1.53
1.63
1.66
1.61
1.47
1.29
1.08
0.89
0.72
0.58
0.42
0.24
0.04
-0.13
-0.20
-0.14
0.05
0.29
0.44
0.43
0.22
-0.10
-0.40
-0.54
-0.44
-0.12
0.33
0.77
1.11
1.30
1.38
1.42
1.45
1.46
1.41
1.26
0.99
0.70
0.46
0.36
0.43
0.60
0.77
0.86
0.80
0.62
0.37
0.14
-0.03
-0.11
-0.14
-0.16
-0.23
-0.36
-0.52
-0.67
-0.75
-0.74
-0.67
-0.59
-0.57
-0.66
-0.85
-1.08
-1.25
-1.27
-1.10
-0.76
-0.38
-0.09
0.03
-0.04
-0.20
-0.32
-0.31
-0.17
0.02
0.17
0.25
0.29
0.36
0.48
0.64
0.70
0.58
0.24
-0.23
-0.69
-1.01
-1.14
-1.15
-1.15
-1.23
-1.37
-1.51
-1.53
-1.35
-1.00
-0.60
-0.30
-0.23
-0.44
-0.90
-1.47
-2.01
-2.38
-2.49
-2.33
-1.93
-1.38
-0.77
-0.19
0.29
0.60
0.70
0.59
0.36
0.08
-0.13
-0.15
0.05
0.44
0.90
1.32
1.60
1.69
1.62
1.44
1.22
1.04
0.94
0.92
0.93
0.94
0.90
0.80
0.66
0.52
0.40
0.31
0.26
0.20
0.11
-0.03
-0.24
-0.49
-0.75
-0.99
-1.14
-1.16
-1.07
-0.89
-0.68
-0.47
-0.30
-0.14
0.05
0.29
0.59
0.91
1.20
1.39
1.44
1.34
1.11
0.82
0.54
0.36
0.32
0.40
0.51
0.55
0.41
0.07
-0.42
-0.93
-1.34
-1.56
-1.58
-1.50
-1.44
-1.50
-1.75
-2.19
-2.78
-3.44
-4.09
-4.65
-5.06
-5.26
-5.25
-5.09
-4.88
-4.70
-4.60
-4.58
-4.53
-4.32
-3.84
-3.08
-2.10
-1.01
0.08
1.09
2.01
2.84
3.60
4.26
4.80
5.18
5.42
5.57
5.71
5.88
6.05
6.14
6.07
5.81
5.47
5.20
5.14
5.37
5.83
6.39
6.96
7.50
8.10
8.84
9.69
10.50
10.96
10.81
9.95
8.53
6.95
5.74
5.28
5.73
6.94
8.55
10.18
11.60
12.77
13.83
14.99
16.39
18.08
20.04
22.27
24.74
27.33
29.72
31.35
31.64
30.24
27.32
23.64
20.37
18.64
19.11
21.77
26.00
30.83
35.36
38.95
41.39
42.76
43.33
43.47
43.51
43.72
44.18
44.80
45.37
45.68
45.59
45.13
44.40
43.45
42.28
40.79
38.93
36.77
34.59
32.70
31.34
30.55
30.12
29.73
29.02
27.72
25.62
22.61
18.67
13.91
8.66
3.40
-1.33
-5.15
-7.98
-10.11
-12.01
-14.16
-16.83
-19.99
-23.37
-26.63
-29.52
-32.01
-34.25
-36.47
-38.86
-41.39
-43.83
-45.82
-47.02
-47.28
-46.67
-45.37
-43.52
-41.06
-37.65
-32.90
-26.62
-19.02
-10.71
-2.55
4.69
10.55
14.86
17.57
18.55
17.47
13.92
7.76
-0.73
-10.76
-21.24
-31.01
-39.24
-45.52
-49.93
-52.82
-54.66
-55.88
-56.69
-57.19
-57.35
-57.11
-56.45
-55.37
-53.98
-52.45
-50.99
-49.85
-49.19
-49.04
-49.28
-49.61
-49.67
-49.15
-47.89
-45.91
-43.35
-40.45
-37.41
-34.42
-31.60
-29.04
-26.76
-24.74
-22.95
-21.33
-19.83
-18.45
-17.17
-15.99
-14.92
-13.95
-13.05
-12.20
-11.37
-10.54
-9.69
-8.83
-7.99
-7.22
-6.62
-6.27
-6.26
-6.57
-7.07
-7.57
-7.87
-7.85
-7.56
-7.16
-6.84
-6.74
-6.88
-7.14
-7.37
-7.42
-7.21
-6.71
-5.88
-4.78
-3.49
-2.21
-1.20
-0.69
-0.73
-1.18
-1.68
-1.84
-1.43
-0.43
0.88
2.12
2.91
3.05
2.48
1.34
-0.15
-1.70
-3.05
-3.96
-4.34
-4.20
-3.72
-3.11
-2.57
-2.20
-1.96
-1.75
-1.47
-1.09
-0.68
-0.37
-0.26
-0.38
-0.66
-0.96
-1.07
-0.83
-0.12
1.10
2.75
4.65
6.47
7.81
8.27
7.60
5.87
3.50
1.16
-0.48
-1.09
-0.78
-0.12
0.21
-0.25
-1.51
-3.15
-4.60
-5.40
-5.50
-5.15
-4.75
-4.56
-4.55
-4.46
-4.02
-3.11
-1.87
-0.59
0.48
1.29
2.00
2.82
3.86
5.00
5.89
6.18
5.67
4.46
2.87
1.36
0.31
-0.06
0.27
1.16
2.35
3.51
4.30
4.46
3.90
2.71
1.14
-0.49
-1.89
-2.88
-3.37
-3.36
-2.88
-2.00
-0.81
0.56
1.94
3.18
4.16
4.88
5.47
6.11
7.01
8.27
9.87
11.62
13.27
14.52
15.12
14.91
13.78
11.76
9.05
6.00
3.10
0.88
-0.34
-0.58
-0.20
0.27
0.32
-0.24
-1.30
-2.50
-3.48
-4.04
-4.18
-4.05
-3.81
-3.46
-2.96
-2.19
-1.11
0.24
1.80
3.46
5.22
7.04
8.81
10.31
11.21
11.17
10.03
7.89
5.12
2.30
0.05
-1.19
-1.27
-0.36
1.13
2.65
3.74
4.14
3.91
3.30
2.69
2.34
2.32
2.55
2.82
3.01
3.09
3.15
3.30
3.61
4.07
4.64
5.35
6.30
7.64
9.45
11.67
14.04
16.14
17.56
17.92
17.06
14.98
11.89
8.17
4.31
0.81
-1.87
-3.47
-4.04
-3.86
-3.40
-3.08
-3.13
-3.55
-4.15
-4.65
-4.83
-4.58
-3.90
-2.95
-1.88
-0.79
0.32
1.55
3.05
4.89
6.98
9.04
10.70
11.62
11.65
10.80
9.28
7.38
5.46
3.87
2.91
2.75
3.32
4.29
5.12
5.31
4.56
2.97
0.95
-0.94
-2.20
-2.60
-2.12
-0.91
0.80
2.81
4.84
6.61
7.87
8.48
8.57
8.51
8.82
9.92
11.95
14.68
17.55
19.88
21.03
20.58
18.45
14.87
10.39
5.68
1.43
-1.90
-4.17
-5.58
-6.55
-7.54
-8.84
-10.48
-12.26
-13.83
-14.88
-15.20
-14.74
-13.60
-11.97
-10.06
-8.02
-5.91
-3.69
-1.25
1.50
4.59
7.91
11.26
14.30
16.65
17.97
18.00
16.69
14.29
11.30
8.41
6.27
5.24
5.23
5.72
6.00
5.45
3.89
1.57
-0.91
-2.97
-4.25
-4.79
-4.88
-4.84
-4.86
-4.88
-4.70
-4.13
-3.07
-1.64
-0.04
1.55
3.08
4.67
6.52
8.77
11.36
13.98
16.17
17.52
17.77
16.91
15.05
12.37
9.03
5.25
1.38
-2.07
-4.62
-6.00
-6.36
-6.20
-6.17
-6.69
-7.81
-9.22
-10.47
-11.24
-11.49
-11.35
-10.99
-10.46
-9.66
-8.46
-6.76
-4.62
-2.11
0.64
3.60
6.74
9.98
13.21
16.24
18.87
20.92
22.22
22.59
21.96
20.43
18.28
16.00
14.00
12.40
10.94
9.04
6.17
2.21
-2.37
-6.67
-9.78
-11.24
-11.25
-10.55
-10.04
-10.37
-11.67
-13.59
-15.58
-17.08
-17.81
-17.72
-16.96
-15.68
-14.03
-12.10
-10.00
-7.93
-6.18
-5.06
-4.76
-5.23
-6.20
-7.20
-7.81
-7.82
-7.29
-6.53
-5.87
-5.55
-5.53
-5.58
-5.40
-4.77
-3.68
-2.30
-0.93
0.15
0.81
1.08
1.13
1.17
1.32
1.60
1.93
2.24
2.49
2.71
2.95
3.27
3.67
4.17
4.73
5.32
5.91
6.43
6.81
7.06
7.25
7.48
7.85
8.40
9.04
9.64
10.13
10.52
10.93
11.50
12.29
13.23
14.19
15.08
15.88
16.66
17.47
18.28
18.94
19.23
19.00
18.25
17.07
15.66
14.21
12.83
11.52
10.17
8.62
6.71
4.43
1.93
-0.49
-2.48
-3.79
-4.41
-4.59
-4.74
-5.23
-6.18
-7.43
-8.60
-9.28
-9.26
-8.61
-7.62
-6.64
-5.90
-5.46
-5.18
-4.87
-4.45
-3.96
-3.52
-3.19
-2.90
-2.50
-1.93
-1.33
-1.08
-1.59
-3.03
-5.14
-7.29
-8.71
-8.88
-7.73
-5.66
-3.28
-1.11
0.64
2.01
3.21
4.41
5.67
6.97
8.31
9.74
11.34
13.18
15.17
17.11
18.78
20.01
20.82
21.38
21.93
22.70
23.82
25.27
26.91
28.50
29.72
30.25
29.94
28.82
27.23
25.66
24.52
23.93
23.63
23.07
21.76
19.49
16.53
13.48
10.98
9.43
8.77
8.49
7.79
5.83
2.00
-3.82
-11.19
-19.21
-26.83
-33.18
-37.87
-41.07
-43.30
-45.12
-46.95
-48.98
-51.25
-53.76
-56.50
-59.41
-62.27
-64.72
-66.42
-67.14
-66.79
-65.38
-62.88
-59.24
-54.43
-48.60
-42.12
-35.46
-29.04
-23.01
-17.30
-11.74
-6.23
-0.84
4.24
8.87
13.08
17.03
20.85
24.55
27.92
30.67
32.52
33.36
33.34
32.70
31.70
30.48
29.09
27.57
25.93
24.25
22.60
20.95
19.19
17.18
14.82
12.10
9.12
6.05
3.06
0.28
-2.21
-4.42
-6.40
-8.27
-10.13
-12.07
-14.11
-16.24
-18.40
-20.62
-23.01
-25.69
-28.68
-31.79
-34.66
-36.89
-38.27
-38.97
-39.45
-40.26
-41.75
-43.97
-46.68
-49.52
-52.20
-54.42
-55.89
-56.21
-55.00
-52.07
-47.64
-42.29
-36.81
-31.77
-27.36
-23.34
-19.29
-14.98
-10.51
-6.25
-2.62
0.22
2.48
4.62
7.08
10.08
13.50
16.93
19.91
22.17
23.72
24.82
25.77
26.75
27.75
28.66
29.38
29.96
30.58
31.35
32.27
33.14
33.75
33.99
33.98
34.01
34.32
35.01
35.97
36.98
37.92
38.83
39.93
41.45
43.61
46.45
49.84
53.52
57.16
60.43
63.08
64.99
66.16
66.69
66.77
66.60
66.40
66.31
66.40
66.53
66.41
65.63
63.80
60.70
56.41
51.21
45.50
39.71
34.19
29.24
24.99
21.43
18.36
15.46
12.45
9.25
6.05
3.18
0.88
-0.94
-2.65
-4.71
-7.35
-10.32
-13.05
-15.04
-16.21
-16.94
-17.79
-19.10
-20.63
-21.64
-21.33
-19.39
-16.29
-13.12
-11.06
-10.72
-11.85
-13.45
-14.26
-13.39
-10.58
-6.21
-0.87
4.90
10.85
16.94
23.16
29.29
34.98
39.83
43.51
45.85
46.72
46.02
43.63
39.55
33.95
27.28
20.12
13.10
6.69
1.15
-3.49
-7.26
-10.18
-12.19
-13.27
-13.47
-13.07
-12.51
-12.27
-12.69
-13.87
-15.68
-17.88
-20.21
-22.46
-24.48
-26.05
-27.01
-27.26
-26.85
-26.01
-24.99
-24.01
-23.13
-22.31
-21.47
-20.58
-19.67
-18.80
-18.00
-17.26
-16.50
-15.66
-14.70
-13.58
-12.27
-10.74
-9.03
-7.20
-5.39
-3.77
-2.46
-1.53
-0.99
-0.81
-0.95
-1.42
-2.23
-3.43
-5.03
-6.95
-8.98
-10.84
-12.27
-13.10
-13.37
-13.29
-13.15
-13.20
-13.48
-13.87
-14.19
-14.32
-14.36
-14.61
-15.40
-16.93
-19.09
-21.52
-23.72
-25.32
-26.18
-26.46
-26.46
-26.47
-26.64
-27.00
-27.46
-27.93
-28.28
-28.42
-28.26
-27.79
-27.07
-26.25
-25.48
-24.89
-24.48
-24.13
-23.67
-22.93
-21.78
-20.18
-18.14
-15.68
-12.91
-9.91
-6.85
-3.90
-1.21
1.15
3.15
4.84
6.29
7.57
8.73
9.78
10.72
11.53
12.21
12.75
13.18
13.49
13.67
13.76
13.83
13.97
14.31
14.89
15.67
16.46
17.05
17.28
17.12
16.72
16.32
16.10
16.14
16.30
16.28
15.71
14.24
11.66
7.97
3.32
-1.98
-7.55
-13.08
-18.31
-23.10
-27.37
-31.03
-34.00
-36.19
-37.58
-38.21
-38.18
-37.57
-36.42
-34.70
-32.40
-29.59
-26.45
-23.25
-20.28
-17.73
-15.66
-14.02
-12.65
-11.37
-9.96
-8.26
-6.21
-3.89
-1.52
0.65
2.40
3.70
4.66
5.47
6.29
7.17
8.06
8.86
9.51
9.99
10.35
10.64
10.89
11.05
11.03
10.72
10.02
8.85
7.23
5.30
3.21
1.16
-0.74
-2.44
-3.95
-5.29
-6.47
-7.46
-8.22
-8.74
-9.01
-8.99
-8.67
-8.02
-7.02
-5.70
-4.17
-2.58
-1.10
0.11
1.01
1.62
2.03
2.34
2.60
2.83
3.00
3.04
2.95
2.74
2.42
2.05
1.66
1.25
0.84
0.42
-0.01
-0.46
-0.92
-1.36
-1.74
-1.99
-2.07
-1.92
-1.52
-0.88
-0.04
0.93
1.94
2.91
3.76
4.46
5.02
5.45
5.78
5.97
6.00
5.84
5.50
5.07
4.62
4.22
3.88
3.55
3.17
2.72
2.24
1.87
1.72
1.84
2.14
2.44
2.51
2.16
1.37
0.25
-0.97
-2.04
-2.75
-3.03
-2.92
-2.50
-1.87
-1.10
-0.28
0.49
1.05
1.26
1.03
0.39
-0.48
-1.38
-2.13
-2.66
-3.00
-3.26
-3.53
-3.87
-4.25
-4.64
-4.95
-5.11
-5.09
-4.84
-4.44
-3.99
-3.68
-3.67
-4.03
-4.71
-5.49
-6.09
-6.28
-5.94
-5.04
-3.67
-1.99
-0.14
1.67
3.26
4.48
5.22
5.54
5.57
5.51
5.49
5.57
5.68
5.70
5.50
5.01
4.24
3.22
2.01
0.65
-0.78
-2.23
-3.61
-4.88
-5.99
-6.89
-7.59
-8.07
-8.33
-8.36
-8.17
-7.74
-7.06
-6.14
-5.00
-3.67
-2.20
-0.65
0.91
2.41
3.80
5.06
6.15
7.08
7.81
8.33
8.63
8.72
8.62
8.34
7.88
7.20
6.28
5.14
3.88
2.64
1.59
0.83
0.33
-0.06
-0.59
-1.49
-2.88
-4.73
-6.85
-8.94
-10.67
-11.75
-12.03
-11.52
-10.38
-8.86
-7.18
-5.50
-3.85
-2.20
-0.49
1.26
2.93
4.35
5.35
5.85
5.92
5.72
5.46
5.31
5.33
5.48
5.64
5.70
5.58
5.32
4.95
4.56
4.15
3.72
3.20
2.55
1.73
0.72
-0.49
-1.89
-3.42
-4.95
-6.32
-7.34
-7.87
-7.83
-7.28
-6.34
-5.21
-4.10
-3.11
-2.29
-1.58
-0.84
0.01
1.02
2.15
3.33
4.45
5.45
6.28
6.90
7.27
7.34
7.11
6.59
5.87
5.04
4.14
3.16
2.08
0.84
-0.51
-1.92
-3.29
-4.54
-5.62
-6.52
-7.30
-8.00
-8.65
-9.25
-9.76
-10.07
-10.08
-9.66
-8.73
-7.26
-5.32
-3.05
-0.66
1.63
3.62
5.20
6.35
7.14
7.64
7.98
8.19
8.33
8.34
8.19
7.81
7.14
6.19
5.02
3.75
2.51
1.39
0.40
-0.48
-1.32
-2.15
-3.00
-3.91
-4.97
-6.30
-7.95
-9.84
-11.69
-13.12
-13.71
-13.25
-11.76
-9.45
-6.69
-3.77
-0.91
1.85
4.51
7.06
9.48
11.68
13.54
14.92
15.71
15.83
15.28
14.14
12.59
10.90
9.34
8.11
7.29
6.81
6.49
6.17
5.71
5.07
4.27
3.37
2.40
1.32
0.06
-1.42
-3.09
-4.85
-6.55
-8.03
-9.21
-10.04
-10.49
-10.52
-10.07
-9.10
-7.62
-5.74
-3.58
-1.32
0.95
3.20
5.41
7.52
9.42
10.94
11.96
12.42
12.38
11.98
11.39
10.75
10.12
9.53
8.95
8.34
7.73
7.11
6.54
6.00
5.47
4.90
4.25
3.49
2.64
1.68
0.58
-0.70
-2.16
-3.75
-5.37
-6.88
-8.15
-9.14
-9.86
-10.34
-10.54
-10.38
-9.70
-8.42
-6.51
-4.14
-1.55
0.99
3.22
5.04
6.41
7.42
8.16
8.67
8.99
9.10
8.97
8.60
8.04
7.38
6.70
6.06
5.49
4.92
4.30
3.53
2.59
1.48
0.28
-0.93
-2.07
-3.10
-4.05
-4.94
-5.84
-6.75
-7.68
-8.63
-9.59
-10.51
-11.30
-11.84
-11.97
-11.54
-10.49
-8.85
-6.75
-4.37
-1.91
0.49
2.73
4.73
6.42
7.76
8.72
9.33
9.61
9.65
9.55
9.39
9.28
9.24
9.27
9.29
9.17
8.82
8.21
7.40
6.50
5.64
4.87
4.16
3.44
2.65
1.80
0.92
0.09
-0.67
-1.41
-2.23
-3.20
-4.41
-5.80
-7.24
-8.53
-9.41
-9.67
-9.20
-8.04
-6.34
-4.27
-2.05
0.21
2.38
4.34
5.97
7.14
7.80
7.98
7.86
7.67
7.59
7.72
7.99
8.25
8.33
8.16
7.73
7.13
6.48
5.87
5.34
4.89
4.48
4.09
3.70
3.25
2.72
2.08
1.34
0.53
-0.30
-1.12
-1.91
-2.65
-3.39
-4.16
-5.02
-6.05
-7.26
-8.60
-9.86
-10.78
-11.12
-10.71
-9.57
-7.87
-5.86
-3.78
-1.79
0.02
1.61
2.95
4.00
4.77
5.28
5.60
5.83
6.04
6.23
6.40
6.46
6.36
6.05
5.56
4.93
4.26
3.62
3.06
2.58
2.17
1.77
1.34
0.83
0.23
-0.46
-1.21
-1.98
-2.74
-3.53
-4.37
-5.33
-6.42
-7.60
-8.76
-9.72
-10.34
-10.48
-10.09
-9.15
-7.74
-5.97
-4.01
-2.06
-0.29
1.20
2.41
3.43
4.35
5.21
5.95
6.47
6.68
6.57
6.23
5.78
5.35
5.02
4.75
4.49
4.19
3.80
3.36
2.90
2.45
2.01
1.57
1.09
0.53
-0.09
-0.76
-1.45
-2.14
-2.87
-3.72
-4.74
-5.97
-7.37
-8.80
-10.04
-10.88
-11.13
-10.70
-9.63
-8.06
-6.17
-4.10
-1.97
0.14
2.16
3.99
5.52
6.64
7.33
7.67
7.78
7.79
7.76
7.65
7.37
6.89
6.28
5.71
5.35
5.26
5.32
5.29
4.90
4.02
2.76
1.39
0.24
-0.49
-0.82
-0.97
-1.19
-1.70
-2.52
-3.56
-4.70
-5.84
-6.98
-8.15
-9.29
-10.29
-10.91
-10.97
-10.31
-8.95
-6.98
-4.61
-2.10
0.30
2.38
4.00
5.18
5.97
6.51
6.90
7.18
7.30
7.24
6.96
6.54
6.11
5.76
5.55
5.41
5.21
4.83
4.22
3.42
2.55
1.73
0.96
0.21
-0.63
-1.59
-2.62
-3.58
-4.41
-5.12
-5.87
-6.82
-8.03
-9.39
-10.59
-11.30
-11.28
-10.48
-9.11
-7.44
-5.72
-4.08
-2.50
-0.90
0.73
2.35
3.83
5.01
5.81
6.23
6.35
6.31
6.20
6.09
5.95
5.73
5.36
4.84
4.23
3.64
3.18
2.87
2.62
2.27
1.74
1.01
0.19
-0.61
-1.38
-2.19
-3.20
-4.48
-6.01
-7.59
-8.96
-9.91
-10.30
-10.12
-9.40
-8.25
-6.79
-5.15
-3.47
-1.82
-0.23
1.32
2.87
4.36
5.66
6.63
7.21
7.42
7.43
7.38
7.33
7.25
7.03
6.56
5.85
5.01
4.19
3.51
3.00
2.57
2.07
1.39
0.50
-0.50
-1.50
-2.40
-3.18
-3.93
-4.79
-5.87
-7.19
-8.68
-10.15
-11.37
-12.11
-12.21
-11.60
-10.34
-8.57
-6.48
-4.25
-2.00
0.15
2.17
3.98
5.52
6.74
7.64
8.22
8.54
8.65
8.61
8.48
8.30
8.08
7.84
7.58
7.29
6.97
6.57
6.04
5.33
4.43
3.43
2.43
1.55
0.83
0.22
-0.39
-1.10
-1.96
-2.96
-4.05
-5.21
-6.43
-7.74
-9.17
-10.64
-11.99
-13.00
-13.43
-13.14
-12.12
-10.50
-8.46
-6.22
-3.93
-1.64
0.64
2.92
5.10
7.02
8.51
9.42
9.78
9.72
9.44
9.12
8.84
8.61
8.37
8.13
7.94
7.86
7.89
7.96
7.92
7.60
6.97
6.10
5.12
4.17
3.33
2.56
1.76
0.83
-0.26
-1.49
-2.76
-3.98
-5.10
-6.12
-7.11
-8.18
-9.42
-10.81
-12.25
-13.52
-14.40
-14.70
-14.36
-13.41
-11.96
-10.15
-8.06
-5.79
-3.43
-1.06
1.25
3.41
5.38
7.12
8.58
9.70
10.41
10.67
10.51
10.05
9.45
8.89
8.51
8.36
8.43
8.62
8.81
8.84
8.58
7.97
7.07
6.02
4.98
4.06
3.27
2.55
1.80
1.00
0.16
-0.66
-1.46
-2.30
-3.25
-4.38
-5.69
-7.11
-8.52
-9.87
-11.11
-12.18
-13.02
-13.47
-13.40
-12.73
-11.46
-9.72
-7.63
-5.35
-2.98
-0.61
1.69
3.83
5.72
7.30
8.51
9.32
9.76
9.90
9.85
9.70
9.55
9.40
9.22
8.93
8.49
7.93
7.32
6.76
6.36
6.11
5.92
5.67
5.21
4.47
3.44
2.21
0.90
-0.41
-1.67
-2.89
-4.09
-5.31
-6.57
-7.86
-9.16
-10.47
-11.74
-12.87
-13.73
-14.16
-14.02
-13.24
-11.83
-9.87
-7.50
-4.90
-2.29
0.12
2.15
3.72
4.82
5.56
6.05
6.40
6.66
6.84
6.93
6.95
6.90
6.82
6.71
6.56
6.26
5.71
4.86
3.74
2.50
1.37
0.53
0.03
-0.22
-0.47
-0.95
-1.82
-3.10
-4.66
-6.35
-8.02
-9.57
-10.94
-12.07
-12.86
-13.18
-12.90
-11.92
-10.22
-7.95
-5.35
-2.72
-0.30
1.83
3.65
5.22
6.56
7.62
8.32
8.65
8.72
8.70
8.74
8.87
8.99
8.93
8.56
7.89
7.01
6.06
5.13
4.27
3.43
2.60
1.74
0.85
-0.09
-1.10
-2.19
-3.37
-4.59
-5.82
-7.06
-8.33
-9.68
-11.11
-12.57
-13.87
-14.77
-15.03
-14.52
-13.24
-11.33
-9.02
-6.50
-3.88
-1.23
1.39
3.88
6.10
7.88
9.16
9.92
10.27
10.33
10.18
9.86
9.37
8.73
7.99
7.28
6.70
6.33
6.13
5.96
5.68
5.14
4.35
3.40
2.44
1.58
0.85
0.18
-0.56
-1.44
-2.49
-3.67
-4.92
-6.22
-7.61
-9.12
-10.76
-12.42
-13.88
-14.83
-14.96
-14.13
-12.39
-9.96
-7.18
-4.33
-1.57
1.05
3.51
5.78
7.74
9.27
10.28
10.82
11.01
11.02
10.94
10.82
10.59
10.22
9.69
9.05
8.37
7.71
7.12
6.59
6.10
5.59
5.01
4.28
3.35
2.20
0.91
-0.41
-1.62
-2.66
-3.55
-4.37
-5.25
-6.29
-7.51
-8.93
-10.51
-12.19
-13.84
-15.24
-16.13
-16.25
-15.47
-13.81
-11.47
-8.74
-5.91
-3.21
-0.75
1.41
3.31
4.97
6.42
7.65
8.61
9.21
9.41
9.19
8.63
7.91
7.20
6.64
6.24
5.92
5.59
5.14
4.56
3.92
3.27
2.64
1.96
1.18
0.24
-0.80
-1.82
-2.72
-3.49
-4.29
-5.34
-6.85
-8.84
-11.08
-13.14
-14.56
-15.02
-14.44
-12.96
-10.84
-8.35
-5.67
-2.93
-0.26
2.18
4.23
5.82
6.97
7.80
8.44
8.95
9.31
9.41
9.18
8.65
7.93
7.21
6.64
6.27
6.04
5.82
5.49
4.99
4.35
3.64
2.94
2.28
1.65
0.99
0.26
-0.56
-1.47
-2.46
-3.58
-4.90
-6.49
-8.31
-10.15
-11.64
-12.39
-12.13
-10.80
-8.60
-5.90
-3.04
-0.27
2.31
4.70
6.88
8.79
10.28
11.23
11.61
11.47
10.99
10.34
9.66
9.00
8.32
7.57
6.68
5.66
4.57
3.45
2.33
1.23
0.13
-0.97
-2.04
-3.09
-4.14
-5.25
-6.44
-7.70
-8.93
-10.04
-10.96
-11.73
-12.44
-13.18
-14.03
-14.96
-15.89
-16.71
-17.33
-17.63
-17.53
-16.91
-15.66
-13.73
-11.15
-8.04
-4.61
-1.14
2.11
4.90
7.13
8.78
9.96
10.81
11.42
11.86
12.18
12.43
12.69
13.01
13.43
13.88
14.25
14.41
14.30
13.87
13.18
12.30
11.34
10.41
9.62
9.00
8.51
8.02
7.35
6.37
5.03
3.41
1.59
-0.35
-2.32
-4.27
-6.10
-7.74
-9.16
-10.47
-11.79
-13.27
-14.86
-16.34
-17.32
-17.41
-16.43
-14.42
-11.70
-8.65
-5.61
-2.78
-0.18
2.24
4.51
6.59
8.37
9.72
10.60
11.05
11.22
11.29
11.37
11.54
11.74
11.94
12.06
12.10
12.05
11.90
11.62
11.17
10.52
9.68
8.66
7.50
6.19
4.75
3.18
1.53
-0.16
-1.89
-3.67
-5.54
-7.53
-9.66
-11.87
-14.09
-16.24
-18.25
-20.00
-21.32
-22.02
-21.94
-21.01
-19.29
-16.98
-14.29
-11.43
-8.57
-5.85
-3.38
-1.25
0.48
1.85
2.96
3.90
4.71
5.38
5.86
6.09
6.08
5.86
5.53
5.18
4.92
4.79
4.81
4.94
5.06
5.06
4.82
4.27
3.47
2.52
1.56
0.70
-0.04
-0.69
-1.36
-2.13
-3.12
-4.35
-5.78
-7.30
-8.71
-9.77
-10.29
-10.14
-9.28
-7.76
-5.71
-3.29
-0.69
1.87
4.15
5.97
7.22
7.92
8.17
8.14
8.02
7.93
7.94
8.07
8.29
8.52
8.67
8.66
8.43
8.01
7.44
6.83
6.28
5.84
5.48
5.11
4.59
3.80
2.67
1.25
-0.32
-1.87
-3.29
-4.52
-5.63
-6.76
-8.06
-9.58
-11.27
-12.93
-14.25
-14.96
-14.86
-13.93
-12.30
-10.21
-7.90
-5.54
-3.22
-1.00
1.06
2.88
4.37
5.54
6.45
7.23
7.98
8.71
9.30
9.61
9.56
9.19
8.65
8.15
7.82
7.66
7.56
7.39
7.03
6.48
5.82
5.10
4.39
3.68
2.92
2.04
1.01
-0.13
-1.31
-2.42
-3.37
-4.17
-4.89
-5.69
-6.71
-8.02
-9.52
-10.97
-12.09
-12.66
-12.61
-12.00
-10.95
-9.55
-7.85
-5.87
-3.66
-1.37
0.82
2.72
4.28
5.53
6.58
7.52
8.33
8.93
9.20
9.11
8.68
8.05
7.36
6.71
6.13
5.58
5.04
4.52
4.05
3.67
3.37
3.05
2.56
1.81
0.78
-0.41
-1.54
-2.43
-3.02
-3.40
-3.81
-4.48
-5.58
-7.07
-8.75
-10.33
-11.52
-12.12
-12.04
-11.30
-9.94
-8.06
-5.79
-3.34
-0.92
1.26
3.07
4.50
5.62
6.50
7.16
7.58
7.70
7.53
7.13
6.64
6.15
5.72
5.29
4.81
4.21
3.51
2.77
2.07
1.45
0.93
0.46
-0.00
-0.52
-1.12
-1.81
-2.58
-3.40
-4.28
-5.28
-6.48
-7.94
-9.63
-11.40
-12.95
-13.96
-14.16
-13.47
-12.01
-10.03
-7.84
-5.66
-3.66
-1.87
-0.25
1.25
2.71
4.13
5.53
6.80
7.85
8.55
8.87
8.81
8.48
8.01
7.53
7.09
6.68
6.25
5.76
5.18
4.57
3.95
3.37
2.80
2.17
1.42
0.53
-0.47
-1.46
-2.32
-2.99
-3.48
-3.93
-4.50
-5.38
-6.62
-8.17
-9.86
-11.46
-12.72
-13.42
-13.40
-12.60
-11.05
-8.93
-6.47
-3.93
-1.53
0.65
2.62
4.45
6.17
7.73
8.99
9.81
10.12
10.00
9.64
9.24
8.91
8.68
8.44
8.13
7.72
7.29
6.91
6.61
6.33
5.94
5.32
4.44
3.38
2.28
1.31
0.54
-0.02
-0.45
-0.86
-1.36
-2.09
-3.14
-4.59
-6.42
-8.50
-10.55
-12.24
-13.23
-13.32
-12.49
-10.90
-8.85
-6.65
-4.55
-2.68
-1.04
0.42
1.73
2.95
4.07
5.11
6.05
6.86
7.51
7.92
8.02
7.82
7.38
6.85
6.34
5.95
5.65
5.36
4.96
4.40
3.70
2.87
1.96
0.96
-0.14
-1.31
-2.48
-3.56
-4.48
-5.25
-5.98
-6.86
-8.06
-9.62
-11.43
-13.21
-14.62
-15.34
-15.22
-14.32
-12.82
-11.00
-9.08
-7.23
-5.51
-3.96
-2.58
-1.36
-0.28
0.65
1.42
1.97
2.15
1.81
0.76
-1.11
-3.75
-6.91
-10.18
-13.15
-15.53
-17.29
-18.69
-20.02
-21.43
-22.80
-23.75
-23.79
-22.62
-20.14
-16.50
-12.12
-7.69
-4.16
-2.57
-3.70
-7.62
-13.47
-19.61
-24.21
-25.96
-24.59
-20.76
-15.60
-10.08
-4.62
0.85
6.55
12.53
18.57
24.30
29.48
34.11
38.35
42.41
46.37
50.05
53.06
54.93
55.23
53.77
50.65
46.30
41.36
36.42
31.83
27.60
23.41
18.82
13.46
7.27
0.48
-6.40
-12.70
-17.74
-20.89
-21.71
-20.02
-16.05
-10.51
-4.55
0.60
3.96
5.28
5.10
4.44
4.31
5.12
6.57
7.89
8.52
8.59
8.90
10.39
13.48
17.67
21.69
24.26
24.87
24.21
23.76
25.01
28.55
33.58
38.21
40.36
38.74
33.50
26.15
18.94
13.88
11.89
12.48
13.97
14.36
12.04
6.13
-3.49
-16.29
-30.82
-44.11
-51.74
-49.06
-33.30
-5.82
27.18
56.32
72.80
72.25
56.54
32.46
7.81
-12.07
-25.99
-35.90
-44.47
-52.69
-59.28
-61.97
-59.37
-52.67
-44.93
-39.49
-38.33
-41.31
-46.52
-51.27
-53.64
-53.30
-52.00
-52.07
-54.98
-60.47
-66.76
-71.32
-71.95
-67.69
-55.73
-36.46
-13.27
9.15
27.47
40.54
48.58
52.97
54.43
53.26
49.37
43.27
36.20
29.64
24.46
21.08
19.28
18.33
17.63
16.39
14.29
11.48
8.40
5.51
3.20
1.66
0.84
0.58
0.37
-0.21
-1.25
-2.46
-3.30
-3.24
-1.95
0.51
3.73
6.83
8.80
8.76
6.28
1.62
-4.29
-10.05
-14.33
-16.28
-15.98
-14.18
-11.92
-9.99
-8.65
-7.70
-6.81
-5.85
-4.99
-4.54
-4.66
-5.20
-5.77
-5.89
-5.26
-3.84
-1.83
0.48
2.82
4.98
6.87
8.46
9.81
10.99
12.08
13.08
13.89
14.31
14.17
13.39
12.04
10.33
8.48
6.67
5.06
3.72
2.75
2.23
2.21
2.65
3.35
3.99
4.16
3.50
1.87
-0.62
-3.60
-6.58
-9.11
-10.90
-11.92
-12.27
-12.13
-11.61
-10.75
-9.55
-8.03
-6.25
-4.36
-2.51
-0.82
0.63
1.81
2.72
3.35
3.73
3.91
3.93
3.85
3.73
3.59
3.46
3.26
2.93
2.38
1.58
0.59
-0.42
-1.32
-2.03
-2.59
-3.15
-3.85
-4.79
-5.93
-7.13
-8.22
-8.97
-9.24
-8.89
-7.87
-6.21
-4.06
-1.62
0.81
3.00
4.78
6.07
6.93
7.40
7.58
7.49
7.16
6.66
6.06
5.48
5.02
4.70
4.46
4.18
3.72
3.05
2.20
1.25
0.32
-0.49
-1.18
-1.79
-2.47
-3.34
-4.50
-5.90
-7.39
-8.69
-9.58
-9.96
-9.90
-9.58
-9.16
-8.71
-8.21
-7.65
-7.06
-6.58
-6.33
-6.32
-6.42
-6.43
-6.20
-5.73
-5.19
-4.72
-4.36
-3.92
-3.12
-1.72
0.23
2.40
4.27
5.30
5.17
3.81
1.32
-2.10
-6.30
-11.20
-16.71
-22.63
-28.63
-34.16
-38.55
-41.11
-41.28
-38.73
-33.54
-26.21
-17.63
-8.95
-1.39
4.05
6.80
6.85
4.83
1.83
-0.86
-2.17
-1.59
0.66
3.76
6.67
8.52
8.91
7.97
6.14
3.91
1.62
-0.57
-2.57
-4.27
-5.47
-5.99
-5.70
-4.64
-2.98
-1.01
1.02
2.97
4.87
6.85
9.05
11.45
13.87
16.00
17.59
18.60
19.23
19.85
20.74
21.95
23.26
24.33
24.86
24.81
24.36
23.82
23.43
23.31
23.39
23.53
23.59
23.45
23.00
22.15
20.79
18.94
16.76
14.55
12.56
10.84
9.12
6.95
3.97
0.13
-4.18
-8.34
-11.78
-14.26
-15.91
-17.12
-18.29
-19.70
-21.44
-23.50
-25.80
-28.25
-30.73
-33.04
-34.94
-36.23
-36.84
-36.81
-36.28
-35.44
-34.44
-33.43
-32.47
-31.58
-30.68
-29.65
-28.33
-26.68
-24.72
-22.53
-20.20
-17.81
-15.36
-12.85
-10.32
-7.80
-5.34
-2.96
-0.69
1.46
3.46
5.29
6.91
8.28
9.36
10.08
10.37
10.24
9.73
9.02
8.30
7.77
7.54
7.65
8.08
8.78
9.68
10.68
11.65
12.47
13.03
13.27
13.26
13.13
13.10
13.42
14.32
15.87
17.92
20.17
22.28
24.06
25.61
27.24
29.32
32.02
35.28
38.79
42.27
45.59
48.75
51.62
53.81
54.62
53.30
49.49
43.53
36.39
29.32
23.33
18.85
15.72
13.50
11.82
10.61
10.03
10.21
11.12
12.55
14.20
15.85
17.50
19.22
21.15
23.29
25.44
27.20
28.04
27.38
24.77
19.94
12.98
4.39
-4.95
-13.88
-21.20
-26.04
-28.11
-27.86
-26.30
-24.63
-23.72
-23.79
-24.37
-24.64
-23.89
-21.86
-18.75
-15.08
-11.32
-7.66
-4.08
-0.43
3.31
7.01
10.45
13.42
15.82
17.62
18.89
19.74
20.27
20.61
20.82
20.85
20.58
19.83
18.54
16.84
15.09
13.73
13.07
13.11
13.62
14.26
14.81
15.27
15.80
16.56
17.58
18.67
19.55
19.96
19.84
19.35
18.72
18.13
17.53
16.70
15.34
13.29
10.66
7.90
5.59
4.24
4.07
4.90
6.34
7.93
9.37
10.49
11.22
11.50
11.24
10.42
9.16
7.80
6.77
6.44
6.92
8.02
9.32
10.41
11.06
11.28
11.24
11.09
10.83
10.27
9.22
7.57
5.40
2.92
0.31
-2.42
-5.45
-8.98
-13.02
-17.33
-21.42
-24.87
-27.48
-29.49
-31.45
-33.97
-37.50
-42.10
-47.58
-53.51
-59.44
-64.91
-69.48
-72.66
-74.02
-73.30
-70.60
-66.44
-61.64
-57.09
-53.45
-50.91
-49.25
-47.90
-46.25
-43.85
-40.52
-36.36
-31.66
-26.79
-22.07
-17.70
-13.72
-10.11
-6.85
-3.94
-1.36
0.93
3.10
5.35
7.76
10.28
12.63
14.50
15.64
16.02
15.81
15.29
14.67
14.05
13.39
12.52
11.32
9.75
7.92
6.06
4.42
3.15
2.26
1.63
1.02
0.28
-0.66
-1.73
-2.77
-3.66
-4.29
-4.64
-4.69
-4.45
-3.92
-3.15
-2.19
-1.15
-0.16
0.68
1.32
1.73
1.96
2.04
2.01
1.87
1.61
1.22
0.78
0.38
0.18
0.24
0.56
0.97
1.33
1.51
1.48
1.36
1.23
1.16
1.08
0.88
0.45
-0.22
-1.05
-1.88
-2.54
-2.91
-2.94
-2.69
-2.23
-1.62
-0.95
-0.26
0.43
1.12
1.79
2.42
2.98
3.44
3.77
3.95
3.95
3.76
3.43
3.03
2.64
2.32
2.07
1.85
1.57
1.20
0.73
0.24
-0.19
-0.55
-0.90
-1.32
-1.88
-2.59
-3.37
-4.12
-4.72
-5.11
-5.21
-5.05
-4.64
-4.04
-3.30
-2.48
-1.63
-0.80
-0.03
0.63
1.13
1.45
1.61
1.65
1.61
1.55
1.49
1.41
1.29
1.11
0.86
0.57
0.28
0.02
-0.22
-0.46
-0.74
-1.10
-1.49
-1.84
-2.10
-2.25
-2.34
-2.46
-2.64
-2.86
-2.97
-2.82
-2.31
-1.44
-0.33
0.85
1.95
2.91
3.73
4.48
5.20
5.88
6.46
6.88
7.09
7.14
7.11
7.10
7.18
7.33
7.49
7.55
7.46
7.25
7.02
6.87
6.83
6.84
6.74
6.35
5.54
4.24
2.52
0.52
-1.59
-3.64
-5.54
-7.22
-8.67
-9.91
-10.99
-11.93
-12.78
-13.54
-14.19
-14.69
-14.92
-14.78
-14.21
-13.20
-11.87
-10.38
-8.95
-7.70
-6.68
-5.84
-5.09
-4.35
-3.58
-2.83
-2.17
-1.66
-1.31
-1.11
-0.98
-0.87
-0.73
-0.54
-0.34
-0.16
-0.05
-0.01
-0.05
-0.14
-0.26
-0.35
-0.37
-0.24
0.15
0.83
1.83
3.06
4.43
5.80
7.05
8.13
9.04
9.78
10.38
10.83
11.11
11.21
11.16
10.98
10.74
10.54
10.48
10.63
10.92
11.16
11.05
10.30
8.73
6.44
3.74
1.06
-1.29
-3.18
-4.75
-6.26
-7.95
-9.84
-11.79
-13.59
-15.01
-16.00
-16.56
-16.73
-16.53
-15.93
-14.93
-13.54
-11.91
-10.18
-8.52
-6.98
-5.58
-4.25
-2.97
-1.73
-0.59
0.42
1.29
2.04
2.72
3.35
3.91
4.40
4.81
5.18
5.55
5.92
6.26
6.51
6.63
6.66
6.68
6.70
6.66
6.41
5.78
4.70
3.25
1.65
0.14
-1.10
-1.98
-2.50
-2.73
-2.75
-2.68
-2.64
-2.71
-2.96
-3.34
-3.78
-4.18
-4.49
-4.70
-4.82
-4.82
-4.70
-4.48
-4.19
-3.89
-3.60
-3.29
-2.88
-2.33
-1.64
-0.91
-0.28
0.16
0.44
0.65
0.93
1.29
1.66
1.90
1.90
1.68
1.44
1.47
2.01
3.12
4.66
6.34
7.81
8.85
9.38
9.47
9.25
8.81
8.18
7.31
6.16
4.69
2.92
0.92
-1.23
-3.47
-5.72
-7.85
-9.73
-11.19
-12.13
-12.55
-12.53
-12.23
-11.80
-11.27
-10.62
-9.80
-8.82
-7.82
-7.02
-6.58
-6.58
-6.91
-7.36
-7.68
-7.69
-7.35
-6.70
-5.82
-4.73
-3.47
-2.03
-0.46
1.15
2.69
4.08
5.25
6.21
6.95
7.47
7.79
7.93
7.95
7.94
7.98
8.11
8.29
8.41
8.36
8.05
7.51
6.86
6.25
5.81
5.57
5.43
5.25
4.90
4.32
3.57
2.73
1.90
1.13
0.39
-0.32
-0.99
-1.53
-1.81
-1.71
-1.20
-0.34
0.75
1.92
3.08
4.18
5.22
6.18
7.06
7.77
8.26
8.48
8.43
8.11
7.56
6.80
5.89
4.92
4.03
3.34
2.89
2.62
2.42
2.16
1.82
1.46
1.18
1.06
1.05
1.03
0.86
0.44
-0.27
-1.26
-2.50
-4.01
-5.75
-7.60
-9.35
-10.70
-11.45
-11.53
-11.09
-10.38
-9.64
-9.04
-8.55
-8.12
-7.64
-7.07
-6.43
-5.75
-5.01
-4.21
-3.36
-2.45
-1.56
-0.74
-0.06
0.46
0.84
1.12
1.36
1.61
1.89
2.17
2.41
2.53
2.48
2.27
1.93
1.52
1.05
0.51
-0.15
-0.94
-1.81
-2.66
-3.32
-3.68
-3.64
-3.24
-2.57
-1.73
-0.82
0.13
1.11
2.11
3.09
3.94
4.59
4.94
5.00
4.79
4.39
3.81
3.06
2.13
1.06
-0.08
-1.16
-2.09
-2.79
-3.24
-3.46
-3.50
-3.40
-3.24
-3.06
-2.91
-2.82
-2.82
-2.93
-3.15
-3.50
-4.00
-4.59
-5.17
-5.58
-5.65
-5.29
-4.45
-3.21
-1.70
-0.06
1.61
3.30
4.98
6.65
8.22
9.59
10.64
11.31
11.60
11.62
11.52
11.45
11.52
11.75
12.11
12.51
12.89
13.18
13.33
13.28
12.96
12.29
11.26
9.92
8.37
6.75
5.11
3.43
1.64
-0.32
-2.49
-4.82
-7.18
-9.45
-11.47
-13.12
-14.32
-15.00
-15.16
-14.83
-14.10
-13.07
-11.84
-10.52
-9.19
-7.92
-6.76
-5.70
-4.70
-3.71
-2.72
-1.76
-0.91
-0.25
0.19
0.46
0.63
0.79
0.99
1.20
1.35
1.36
1.24
1.03
0.84
0.74
0.78
0.91
1.04
1.09
0.98
0.70
0.26
-0.29
-0.89
-1.47
-2.01
-2.49
-2.89
-3.17
-3.26
-3.07
-2.48
-1.44
0.02
1.75
3.53
5.16
6.50
7.53
8.35
9.07
9.82
10.61
11.42
12.18
12.82
13.30
13.55
13.48
12.96
11.87
10.21
8.06
5.62
3.14
0.86
-1.04
-2.51
-3.61
-4.49
-5.35
-6.38
-7.67
-9.21
-10.89
-12.53
-13.99
-15.14
-15.86
-16.09
-15.75
-14.76
-13.17
-11.09
-8.75
-6.40
-4.25
-2.37
-0.70
0.85
2.38
3.88
5.24
6.34
7.12
7.64
8.04
8.43
8.86
9.31
9.69
9.95
10.07
10.04
9.80
9.26
8.28
6.82
5.00
3.02
1.12
-0.53
-1.86
-2.97
-3.99
-5.09
-6.39
-7.90
-9.55
-11.14
-12.41
-13.12
-13.10
-12.32
-10.88
-8.97
-6.84
-4.71
-2.75
-1.10
0.19
1.16
1.92
2.64
3.42
4.32
5.31
6.30
7.17
7.82
8.20
8.31
8.20
7.95
7.68
7.51
7.49
7.60
7.74
7.80
7.66
7.27
6.62
5.78
4.80
3.74
2.61
1.40
0.13
-1.21
-2.51
-3.69
-4.59
-5.11
-5.16
-4.72
-3.86
-2.68
-1.30
0.14
1.54
2.80
3.85
4.63
5.11
5.25
5.06
4.60
3.92
3.11
2.26
1.44
0.76
0.25
-0.10
-0.34
-0.58
-0.94
-1.50
-2.28
-3.23
-4.26
-5.25
-6.13
-6.87
-7.49
-8.04
-8.57
-9.11
-9.68
-10.27
-10.83
-11.27
-11.52
-11.48
-11.09
-10.34
-9.27
-7.93
-6.37
-4.66
-2.84
-0.99
0.78
2.39
3.78
4.98
6.06
7.09
8.10
9.01
9.72
10.12
10.17
9.93
9.53
9.15
8.88
8.74
8.69
8.65
8.56
8.41
8.21
7.96
7.62
7.14
6.48
5.65
4.73
3.79
2.86
1.90
0.80
-0.50
-1.98
-3.47
-4.74
-5.56
-5.77
-5.37
-4.45
-3.19
-1.79
-0.43
0.77
1.74
2.45
2.92
3.14
3.14
2.93
2.55
2.05
1.50
0.96
0.43
-0.08
-0.61
-1.20
-1.85
-2.52
-3.14
-3.65
-4.01
-4.27
-4.54
-4.93
-5.53
-6.32
-7.22
-8.08
-8.80
-9.36
-9.81
-10.22
-10.65
-11.00
-11.09
-10.72
-9.76
-8.24
-6.36
-4.38
-2.52
-0.88
0.56
1.90
3.13
4.21
5.01
5.44
5.52
5.37
5.15
4.93
4.70
4.40
3.96
3.39
2.83
2.40
2.19
2.16
2.17
2.07
1.77
1.26
0.61
-0.11
-0.84
-1.61
-2.46
-3.45
-4.58
-5.80
-6.98
-7.94
-8.48
-8.44
-7.79
-6.64
-5.20
-3.69
-2.25
-0.87
0.52
2.02
3.60
5.13
6.45
7.42
7.98
8.17
8.08
7.77
7.29
6.68
6.05
5.48
5.08
4.87
4.80
4.74
4.58
4.20
3.53
2.57
1.41
0.21
-0.85
-1.59
-2.02
-2.30
-2.73
-3.56
-4.90
-6.60
-8.35
-9.78
-10.63
-10.79
-10.31
-9.33
-7.97
-6.35
-4.53
-2.58
-0.56
1.44
3.28
4.84
6.00
6.72
7.04
7.13
7.14
7.21
7.32
7.38
7.24
6.86
6.26
5.60
5.03
4.63
4.39
4.18
3.88
3.42
2.78
2.00
1.14
0.29
-0.52
-1.27
-1.94
-2.56
-3.19
-3.91
-4.76
-5.79
-6.95
-8.13
-9.11
-9.69
-9.65
-8.94
-7.61
-5.84
-3.89
-1.97
-0.23
1.31
2.67
3.91
5.02
5.95
6.65
7.08
7.24
7.19
7.02
6.82
6.62
6.43
6.20
5.86
5.35
4.65
3.82
2.97
2.25
1.73
1.38
1.08
0.65
-0.03
-0.98
-2.10
-3.21
-4.21
-5.09
-5.95
-6.91
-8.07
-9.37
-10.66
-11.71
-12.31
-12.32
-11.71
-10.55
-8.95
-7.03
-4.90
-2.68
-0.48
1.54
3.26
4.57
5.46
6.01
6.33
6.50
6.62
6.71
6.81
6.93
7.09
7.27
7.42
7.47
7.36
7.06
6.60
5.98
5.21
4.29
3.27
2.20
1.18
0.29
-0.44
-1.07
-1.73
-2.52
-3.53
-4.76
-6.12
-7.52
-8.78
-9.72
-10.15
-9.94
-9.02
-7.47
-5.48
-3.31
-1.24
0.57
2.06
3.29
4.35
5.31
6.16
6.83
7.24
7.32
7.08
6.62
6.10
5.68
5.44
5.37
5.35
5.21
4.83
4.17
3.31
2.38
1.52
0.81
0.21
-0.38
-1.08
-1.98
-3.07
-4.29
-5.55
-6.76
-7.86
-8.80
-9.48
-9.78
-9.56
-8.71
-7.24
-5.29
-3.06
-0.81
1.24
2.96
4.34
5.47
6.43
7.29
8.01
8.52
8.70
8.52
8.03
7.36
6.68
6.09
5.62
5.20
4.77
4.29
3.77
3.25
2.72
2.15
1.45
0.56
-0.48
-1.60
-2.66
-3.58
-4.34
-5.04
-5.81
-6.76
-7.91
-9.14
-10.20
-10.83
-10.82
-10.08
-8.68
-6.76
-4.51
-2.09
0.38
2.78
4.97
6.77
8.04
8.68
8.77
8.49
8.10
7.78
7.65
7.63
7.59
7.37
6.89
6.18
5.36
4.59
3.97
3.52
3.14
2.68
2.03
1.18
0.21
-0.74
-1.56
-2.25
-2.91
-3.69
-4.70
-5.94
-7.31
-8.62
-9.71
-10.47
-10.85
-10.81
-10.33
-9.39
-8.00
-6.25
-4.28
-2.26
-0.32
1.49
3.15
4.65
5.95
7.00
7.75
8.19
8.37
8.37
8.27
8.12
7.92
7.67
7.37
7.00
6.58
6.11
5.62
5.13
4.67
4.24
3.82
3.36
2.82
2.17
1.36
0.42
-0.63
-1.73
-2.79
-3.74
-4.58
-5.38
-6.30
-7.48
-8.94
-10.50
-11.81
-12.50
-12.30
-11.23
-9.52
-7.52
-5.56
-3.76
-2.09
-0.45
1.24
2.95
4.59
6.04
7.23
8.17
8.86
9.32
9.52
9.44
9.08
8.49
7.79
7.11
6.54
6.12
5.83
5.56
5.25
4.86
4.39
3.88
3.34
2.76
2.07
1.23
0.27
-0.76
-1.76
-2.68
-3.53
-4.38
-5.30
-6.37
-7.61
-8.98
-10.37
-11.62
-12.52
-12.88
-12.61
-11.72
-10.32
-8.57
-6.62
-4.57
-2.47
-0.38
1.59
3.31
4.68
5.66
6.31
6.73
7.02
7.26
7.43
7.47
7.30
6.91
6.33
5.69
5.12
4.73
4.51
4.37
4.17
3.78
3.16
2.36
1.52
0.77
0.17
-0.28
-0.67
-1.16
-1.85
-2.82
-4.07
-5.50
-6.97
-8.29
-9.21
-9.52
-9.08
-7.83
-5.90
-3.52
-1.02
1.35
3.43
5.20
6.78
8.28
9.79
11.29
12.68
13.82
14.64
15.10
15.19
14.91
14.22
13.09
11.50
9.57
7.45
5.37
3.47
1.82
0.34
-1.09
-2.62
-4.34
-6.23
-8.24
-10.28
-12.24
-14.08
-15.74
-17.24
-18.57
-19.69
-20.56
-21.07
-21.13
-20.68
-19.69
-18.19
-16.22
-13.83
-11.14
-8.27
-5.40
-2.67
-0.15
2.10
4.08
5.77
7.10
8.01
8.49
8.64
8.65
8.74
9.06
9.65
10.38
11.09
11.60
11.78
11.58
10.98
9.97
8.56
6.81
4.87
2.88
0.99
-0.75
-2.39
-4.07
-5.91
-7.92
-10.00
-11.95
-13.53
-14.57
-14.99
-14.82
-14.17
-13.13
-11.80
-10.22
-8.44
-6.50
-4.51
-2.61
-0.97
0.32
1.23
1.82
2.19
2.43
2.62
2.79
2.96
3.13
3.29
3.42
3.45
3.37
3.19
2.95
2.68
2.41
2.15
1.88
1.59
1.27
0.92
0.52
0.01
-0.64
-1.48
-2.47
-3.52
-4.50
-5.28
-5.73
-5.77
-5.32
-4.32
-2.76
-0.73
1.60
3.98
6.19
8.08
9.61
10.83
11.81
12.54
12.97
13.03
12.73
12.16
11.46
10.78
10.19
9.69
9.21
8.70
8.11
7.46
6.76
6.03
5.26
4.44
3.53
2.52
1.43
0.31
-0.77
-1.78
-2.75
-3.77
-4.94
-6.35
-8.00
-9.84
-11.75
-13.56
-15.06
-16.02
-16.27
-15.74
-14.54
-12.90
-11.10
-9.36
-7.73
-6.21
-4.75
-3.39
-2.23
-1.37
-0.81
-0.41
0.06
0.79
1.80
2.96
4.04
4.90
5.50
5.89
6.13
6.23
6.12
5.71
5.00
4.07
3.04
2.04
1.10
0.25
-0.57
-1.37
-2.13
-2.87
-3.62
-4.45
-5.44
-6.56
-7.71
-8.72
-9.40
-9.57
-9.14
-8.10
-6.48
-4.39
-1.98
0.53
2.90
4.92
6.45
7.49
8.15
8.61
8.97
9.25
9.36
9.24
8.88
8.37
7.81
7.27
6.67
5.90
4.81
3.39
1.72
-0.02
-1.66
-3.12
-4.37
-5.43
-6.36
-7.19
-7.99
-8.86
-9.86
-10.97
-12.15
-13.26
-14.23
-14.99
-15.46
-15.60
-15.26
-14.34
-12.79
-10.67
-8.20
-5.63
-3.15
-0.83
1.34
3.45
5.48
7.34
8.85
9.85
10.30
10.30
10.08
9.84
9.70
9.60
9.39
8.96
8.28
7.49
6.80
6.33
6.02
5.70
5.11
4.15
2.89
1.55
0.35
-0.58
-1.31
-2.00
-2.80
-3.81
-4.99
-6.28
-7.57
-8.79
-9.81
-10.45
-10.51
-9.81
-8.30
-6.12
-3.50
-0.78
1.77
3.92
5.57
6.74
7.51
8.02
8.44
8.87
9.34
9.78
10.08
10.14
9.92
9.48
8.93
8.38
7.92
7.55
7.21
6.82
6.31
5.66
4.87
4.00
3.08
2.13
1.14
0.13
-0.91
-1.99
-3.13
-4.40
-5.85
-7.48
-9.18
-10.73
-11.86
-12.30
-11.92
-10.73
-8.87
-6.56
-4.04
-1.52
0.81
2.86
4.56
5.91
6.95
7.70
8.21
8.51
8.62
8.55
8.34
8.02
7.63
7.17
6.62
5.99
5.29
4.57
3.93
3.44
3.11
2.83
2.44
1.74
0.68
-0.63
-1.95
-3.03
-3.76
-4.26
-4.82
-5.76
-7.18
-8.96
-10.71
-12.03
-12.63
-12.45
-11.59
-10.26
-8.59
-6.68
-4.55
-2.27
0.04
2.19
4.02
5.46
6.50
7.22
7.74
8.11
8.32
8.33
8.07
7.56
6.89
6.22
5.71
5.44
5.35
5.28
5.04
4.49
3.65
2.57
1.38
0.18
-0.99
-2.11
-3.17
-4.19
-5.24
-6.40
-7.76
-9.33
-11.01
-12.54
-13.63
-13.99
-13.48
-12.09
-10.02
-7.54
-4.96
-2.54
-0.43
1.33
2.83
4.17
5.43
6.63
7.66
8.41
8.74
8.60
8.04
7.20
6.23
5.31
4.56
4.04
3.75
3.61
3.50
3.28
2.85
2.17
1.28
0.26
-0.79
-1.78
-2.71
-3.61
-4.56
-5.65
-6.90
-8.23
-9.53
-10.61
-11.27
-11.36
-10.78
-9.53
-7.70
-5.48
-3.13
-0.89
1.08
2.73
4.13
5.40
6.62
7.75
8.68
9.31
9.56
9.51
9.29
9.04
8.85
8.73
8.61
8.42
8.12
7.68
7.18
6.70
6.29
5.97
5.63
5.16
4.49
3.66
2.87
2.35
2.21
2.36
2.49
2.23
1.38
0.08
-1.24
-2.00
-1.78
-0.49
1.56
3.77
5.51
6.29
5.90
4.37
1.92
-1.14
-4.51
-7.91
-11.15
-14.14
-16.92
-19.69
-22.73
-26.31
-30.50
-35.06
-39.42
-42.87
-44.82
-45.07
-43.98
-42.29
-40.70
-39.53
-38.51
-36.96
-34.23
-30.13
-25.09
-20.04
-15.91
-13.28
-12.13
-11.99
-12.19
-12.22
-11.89
-11.25
-10.43
-9.40
-7.97
-5.89
-3.01
0.50
4.11
7.14
8.97
9.37
8.60
7.33
6.33
6.16
7.02
8.72
10.93
13.31
15.69
18.05
20.36
22.52
24.27
25.30
25.42
24.73
23.68
22.94
23.17
24.73
27.56
31.20
34.98
38.24
40.55
41.76
41.91
41.16
39.55
37.05
33.56
29.05
23.68
17.87
12.22
7.34
3.70
1.44
0.45
0.56
1.70
4.10
8.13
14.03
21.53
29.74
37.26
42.63
44.77
43.40
39.04
32.78
25.89
19.44
14.07
10.02
7.20
5.42
4.48
4.17
4.24
4.45
4.53
4.36
3.99
3.71
3.96
5.13
7.35
10.42
13.82
16.94
19.42
21.31
23.09
25.46
28.99
33.75
39.21
44.31
47.96
49.34
48.27
45.16
40.75
35.76
30.55
25.00
18.59
10.67
0.75
-11.24
-24.85
-39.19
-53.11
-65.22
-74.03
-78.02
-76.17
-68.60
-57.12
-45.02
-36.09
-33.08
-36.46
-44.26
-53.18
-60.24
-64.22
-65.88
-67.04
-69.28
-73.00
-77.54
-81.93
-85.65
-88.81
-91.68
-94.07
-95.12
-93.62
-88.66
-80.08
-68.69
-55.91
-43.34
-32.28
-23.43
-16.82
-11.84
-7.53
-2.88
2.79
9.62
17.17
24.68
31.38
36.76
40.65
43.19
44.72
45.61
46.24
46.88
47.62
48.32
48.62
47.99
45.91
41.97
36.07
28.52
20.11
12.06
5.73
2.26
2.08
4.71
8.94
13.15
16.00
16.80
15.52
12.64
8.77
4.49
0.30
-3.26
-5.61
-6.27
-5.12
-2.56
0.57
3.28
4.80
4.90
3.87
2.31
0.85
-0.08
-0.37
-0.09
0.55
1.30
1.90
2.13
1.91
1.35
0.77
0.54
0.87
1.63
2.33
2.34
1.23
-0.98
-3.75
-6.21
-7.57
-7.52
-6.26
-4.45
-2.80
-1.74
-1.30
-1.11
-0.68
0.51
2.97
7.18
13.43
21.55
30.62
38.91
44.45
45.83
42.95
37.29
31.31
27.40
26.90
29.66
34.35
39.29
43.22
45.67
46.85
47.20
47.01
46.36
45.21
43.56
41.59
39.58
37.84
36.47
35.18
33.19
29.31
22.28
11.26
-3.71
-21.55
-40.43
-58.42
-74.11
-86.75
-96.07
-101.82
-103.50
-100.60
-93.12
-82.07
-69.40
-57.40
-47.85
-41.36
-37.35
-34.61
-32.04
-29.15
-26.09
-23.30
-21.04
-19.26
-17.67
-16.02
-14.31
-12.77
-11.72
-11.37
-11.63
-12.19
-12.55
-12.27
-11.07
-8.94
-6.08
-2.85
0.39
3.36
5.91
8.04
9.83
11.31
12.45
13.16
13.33
12.91
12.06
11.01
10.10
9.52
9.30
9.23
8.98
8.25
6.98
5.34
3.70
2.44
1.70
1.38
1.13
0.56
-0.54
-2.15
-3.98
-5.61
-6.63
-6.81
-6.12
-4.73
-2.91
-0.91
1.10
3.09
5.02
6.86
8.50
9.80
10.74
11.38
11.93
12.55
13.20
13.66
13.57
12.64
10.84
8.45
5.95
3.82
2.41
1.80
1.83
2.24
2.71
2.95
2.77
2.07
0.87
-0.68
-2.34
-3.81
-4.75
-4.91
-4.14
-2.48
-0.14
2.59
5.39
8.11
10.75
13.42
16.21
19.06
21.77
24.04
25.64
26.47
26.61
26.21
25.49
24.61
23.69
22.82
22.08
21.50
21.08
20.82
20.72
20.80
21.08
21.49
21.88
21.95
21.37
19.89
17.46
14.32
10.92
7.78
5.30
3.63
2.61
1.97
1.46
1.03
0.73
0.63
0.59
0.31
-0.60
-2.37
-4.85
-7.55
-9.77
-10.93
-10.83
-9.76
-8.37
-7.33
-7.06
-7.51
-8.33
-9.07
-9.51
-9.77
-10.16
-10.93
-12.08
-13.33
-14.45
-15.42
-16.46
-17.80
-19.29
-20.29
-19.83
-17.12
-12.00
-5.14
2.17
8.55
13.03
15.38
16.07
15.94
15.87
16.37
17.51
18.91
19.96
20.11
19.08
17.04
14.52
12.07
10.09
8.57
7.17
5.45
3.05
-0.10
-3.89
-8.02
-12.19
-16.02
-19.06
-20.82
-20.91
-19.31
-16.49
-13.40
-11.07
-10.24
-11.02
-12.93
-15.18
-17.13
