1660930539.00
64.000000
-0.00
-0.00
-0.00
-0.00
-0.00
-0.00
-0.00
-0.00
-0.00
-0.00
0.00
0.01
0.01
-0.00
-0.03
-0.05
-0.05
0.00
0.13
0.36
0.66
1.01
1.37
1.72
2.06
2.40
2.79
3.25
3.81
4.44
5.09
5.73
6.32
6.90
7.53
8.27
9.15
10.26
11.47
12.68
13.78
14.72
15.61
16.63
17.99
19.82
22.31
25.25
28.33
31.30
34.02
36.62
39.47
42.98
47.45
53.18
59.77
66.66
73.33
79.55
85.51
91.81
99.14
107.93
118.53
130.25
142.24
153.71
164.35
174.51
185.05
197.31
209.77
224.30
241.10
260.13
280.31
299.18
312.98
317.48
309.34
287.31
253.12
209.97
161.87
112.25
63.22
15.77
-29.71
-72.86
-113.32
-150.72
-185.70
-219.62
-254.12
-290.26
-327.54
-363.42
-393.67
-413.79
-420.44
-413.04
-393.96
-367.61
-338.69
-310.58
-284.64
-260.61
-237.68
-215.39
-194.06
-174.45
-157.03
-141.62
-127.45
-113.59
-99.50
-85.23
-71.39
-58.80
-48.10
-39.40
-32.30
-26.04
-19.94
-13.60
-7.10
-0.83
4.71
9.20
12.63
15.25
17.39
19.31
21.13
22.83
24.27
25.38
26.09
26.40
26.37
26.11
25.75
25.39
25.06
24.75
24.38
23.89
23.28
22.62
21.97
21.35
20.74
20.07
19.31
18.49
17.68
16.94
16.31
15.77
15.30
14.88
14.50
14.15
13.81
13.47
13.10
12.75
12.46
12.30
12.28
12.32
12.31
12.16
11.86
11.49
11.14
10.87
10.66
10.44
10.13
9.72
9.28
8.88
8.57
8.31
8.04
7.70
7.26
6.76
6.24
5.77
5.39
5.14
5.08
5.22
5.52
5.83
5.99
5.87
5.42
4.70
3.85
3.05
2.40
1.97
1.74
1.63
1.54
1.38
1.07
0.60
-0.06
-0.86
-1.78
-2.73
-3.64
-4.42
-5.01
-5.41
-5.65
-5.83
-6.02
-6.30
-6.67
-7.13
-7.63
-8.10
-8.49
-8.72
-8.76
-8.64
-8.39
-8.08
-7.74
-7.37
-6.95
-6.43
-5.79
-5.05
-4.30
-3.64
-3.17
-2.92
-2.81
-2.72
-2.50
-2.08
-1.50
-0.90
-0.44
-0.18
-0.07
0.03
0.27
0.68
1.18
1.64
1.94
2.06
2.07
2.09
2.18
2.33
2.45
2.46
2.39
2.33
2.42
2.75
3.32
4.01
4.64
5.11
5.35
5.41
5.37
5.30
5.21
5.10
4.94
4.74
4.53
4.37
4.28
4.24
4.21
4.10
3.87
3.51
3.07
2.63
2.30
2.14
2.19
2.42
2.76
3.12
3.41
3.60
3.67
3.66
3.59
3.46
3.23
2.87
2.42
2.00
1.74
1.77
2.07
2.51
2.91
3.09
3.02
2.76
2.48
2.28
2.21
2.21
2.21
2.18
2.15
2.17
2.29
2.48
2.64
2.70
2.59
2.35
2.02
1.71
1.46
1.30
1.20
1.13
1.04
0.89
0.69
0.50
0.38
0.39
0.53
0.71
0.83
0.83
0.72
0.60
0.56
0.67
0.90
1.17
1.40
1.52
1.56
1.52
1.42
1.28
1.15
1.07
1.10
1.24
1.41
1.53
1.51
1.37
1.19
1.09
1.12
1.24
1.35
1.37
1.27
1.11
0.96
0.87
0.85
0.84
0.85
0.89
0.98
1.12
1.25
1.29
1.22
1.07
0.92
0.83
0.81
0.79
0.70
0.49
0.17
-0.17
-0.45
-0.64
-0.73
-0.74
-0.71
-0.63
-0.50
-0.34
-0.16
0.01
0.15
0.27
0.40
0.56
0.75
0.94
1.10
1.19
1.19
1.10
0.98
0.86
0.76
0.72
0.74
0.82
0.96
1.11
1.24
1.31
1.32
1.27
1.19
1.09
0.97
0.84
0.69
0.56
0.48
0.46
0.49
0.51
0.48
0.39
0.24
0.09
-0.00
-0.01
0.03
0.07
0.01
-0.15
-0.37
-0.55
-0.59
-0.44
-0.14
0.21
0.50
0.68
0.73
0.70
0.62
0.53
0.45
0.39
0.36
0.37
0.42
0.46
0.47
0.42
0.35
0.31
0.36
0.54
0.80
1.10
1.35
1.48
1.47
1.33
1.09
0.80
0.53
0.30
0.16
0.09
0.10
0.18
0.29
0.41
0.50
0.56
0.59
0.61
0.61
0.58
0.50
0.38
0.21
0.01
-0.17
-0.32
-0.40
-0.41
-0.34
-0.19
0.01
0.18
0.25
0.16
-0.07
-0.34
-0.53
-0.55
-0.39
-0.15
0.06
0.12
0.02
-0.18
-0.36
-0.42
-0.34
-0.17
-0.02
0.06
0.04
-0.04
-0.12
-0.14
-0.12
-0.08
-0.07
-0.15
-0.34
-0.59
-0.85
-1.07
-1.22
-1.31
-1.35
-1.35
-1.33
-1.27
-1.20
-1.13
-1.08
-1.04
-0.97
-0.82
-0.56
-0.20
0.22
0.59
0.83
0.89
0.78
0.55
0.31
0.13
0.05
0.04
0.02
-0.08
-0.26
-0.47
-0.63
-0.70
-0.69
-0.71
-0.84
-1.12
-1.53
-1.95
-2.30
-2.56
-2.73
-2.89
-3.06
-3.27
-3.52
-3.80
-4.11
-4.42
-4.72
-4.95
-5.04
-4.96
-4.76
-4.54
-4.47
-4.74
-5.41
-6.47
-7.79
-9.19
-10.52
-11.72
-12.80
-13.83
-14.79
-15.63
-16.20
-16.35
-16.00
-15.12
-13.77
-12.10
-10.31
-8.69
-7.41
-6.51
-5.71
-4.53
-2.42
0.91
5.33
10.32
15.14
19.15
22.04
23.86
24.84
25.22
25.11
24.48
23.35
21.81
20.08
18.39
16.98
15.94
15.28
14.94
14.78
14.62
14.28
13.66
12.75
11.67
10.54
9.48
8.45
7.33
5.97
4.34
2.53
0.78
-0.71
-1.83
-2.59
-3.11
-3.49
-3.76
-3.86
-3.71
-3.30
-2.69
-2.04
-1.49
-1.15
-1.04
-1.14
-1.38
-1.65
-1.83
-1.80
-1.48
-0.93
-0.30
0.22
0.47
0.39
0.05
-0.39
-0.80
-1.13
-1.38
-1.61
-1.85
-2.09
-2.24
-2.26
-2.17
-2.04
-1.96
-2.01
-2.13
-2.23
-2.15
-1.81
-1.25
-0.60
0.00
0.43
0.69
0.84
0.96
1.08
1.16
1.17
1.06
0.86
0.59
0.30
0.02
-0.22
-0.38
-0.43
-0.35
-0.15
0.13
0.43
0.67
0.84
0.92
0.93
0.89
0.78
0.58
0.26
-0.21
-0.76
-1.28
-1.65
-1.82
-1.78
-1.61
-1.43
-1.30
-1.26
-1.27
-1.29
-1.30
-1.30
-1.27
-1.18
-1.00
-0.70
-0.32
0.06
0.30
0.35
0.19
-0.09
-0.35
-0.50
-0.48
-0.31
-0.09
0.12
0.29
0.45
0.64
0.86
1.03
1.05
0.84
0.39
-0.22
-0.88
-1.49
-2.00
-2.41
-2.75
-2.99
-3.05
-2.83
-2.29
-1.47
-0.51
0.41
1.11
1.51
1.63
1.57
1.45
1.39
1.44
1.61
1.86
2.14
2.38
2.56
2.64
2.61
2.50
2.35
2.17
1.98
1.74
1.43
1.02
0.55
0.06
-0.36
-0.68
-0.91
-1.09
-1.25
-1.40
-1.49
-1.49
-1.39
-1.22
-1.07
-1.00
-1.02
-1.05
-0.99
-0.73
-0.21
0.52
1.37
2.17
2.79
3.12
3.18
3.03
2.78
2.53
2.33
2.18
2.00
1.71
1.23
0.56
-0.24
-1.07
-1.81
-2.33
-2.60
-2.62
-2.48
-2.26
-2.04
-1.83
-1.61
-1.36
-1.05
-0.67
-0.21
0.32
0.89
1.40
1.64
1.42
0.61
-0.67
-2.07
-3.12
-3.43
-2.87
-1.63
-0.16
1.10
1.89
2.16
2.07
1.80
1.43
1.01
0.58
0.27
0.23
0.60
1.35
2.28
3.11
3.59
3.69
3.54
3.35
3.33
3.55
3.99
4.53
5.02
5.35
5.41
5.13
4.47
3.45
2.13
0.66
-0.80
-2.08
-3.03
-3.65
-4.00
-4.21
-4.42
-4.72
-5.13
-5.57
-5.96
-6.23
-6.33
-6.29
-6.15
-5.97
-5.82
-5.75
-5.75
-5.78
-5.71
-5.46
-4.97
-4.26
-3.45
-2.70
-2.13
-1.77
-1.61
-1.58
-1.63
-1.73
-1.87
-2.00
-2.09
-2.08
-1.95
-1.72
-1.44
-1.10
-0.69
-0.13
0.61
1.52
2.43
3.16
3.52
3.47
3.08
2.50
1.92
1.45
1.12
0.94
0.86
0.86
0.90
0.89
0.71
0.23
-0.60
-1.72
-2.92
-3.91
-4.45
-4.39
-3.83
-3.01
-2.25
-1.78
-1.64
-1.67
-1.61
-1.25
-0.52
0.44
1.41
2.17
2.65
2.89
3.02
3.17
3.41
3.76
4.23
4.78
5.39
5.96
6.36
6.45
6.13
5.41
4.37
3.20
2.05
1.06
0.27
-0.31
-0.71
-0.99
-1.18
-1.27
-1.25
-1.10
-0.84
-0.52
-0.24
-0.09
-0.10
-0.22
-0.37
-0.45
-0.39
-0.23
-0.02
0.16
0.28
0.30
0.18
-0.11
-0.60
-1.32
-2.20
-3.13
-3.96
-4.61
-5.05
-5.34
-5.55
-5.76
-6.01
-6.29
-6.57
-6.83
-7.06
-7.28
-7.54
-7.92
-8.45
-9.11
-9.75
-10.18
-10.25
-9.91
-9.32
-8.78
-8.65
-9.19
-10.44
-12.25
-14.32
-16.38
-18.26
-20.03
-21.89
-24.14
-26.94
-30.28
-33.91
-37.46
-40.60
-43.31
-45.88
-48.83
-52.62
-57.44
-63.04
-68.84
-74.26
-78.94
-82.90
-86.49
-90.13
-94.18
-98.98
-105.01
-112.84
-122.71
-133.73
-143.35
-147.67
-142.43
-124.69
-94.05
-52.68
-4.13
48.39
103.16
159.69
217.37
274.06
325.84
368.28
398.32
415.57
422.02
420.34
412.10
396.93
373.27
339.90
297.32
247.78
194.13
138.49
81.84
24.83
-30.91
-82.01
-124.00
-153.02
-167.61
-169.46
-162.72
-152.19
-141.55
-132.54
-125.12
-118.53
-112.19
-106.11
-100.67
-96.07
-92.08
-88.04
-83.31
-77.61
-71.14
-64.57
-58.62
-53.75
-49.95
-46.82
-43.74
-40.25
-36.24
-31.95
-27.85
-24.33
-21.60
-19.51
-17.76
-15.97
-13.92
-11.62
-9.24
-7.09
-5.39
-4.22
-3.47
-2.92
-2.38
-1.73
-1.02
-0.36
0.14
0.44
0.58
0.63
0.62
0.53
0.36
0.16
-0.01
-0.03
0.11
0.39
0.70
0.93
1.04
1.03
0.96
0.88
0.80
0.74
0.74
0.84
1.04
1.32
1.56
1.64
1.48
1.10
0.61
0.13
-0.24
-0.52
-0.78
-1.10
-1.52
-1.96
-2.32
-2.48
-2.41
-2.14
-1.78
-1.46
-1.24
-1.14
-1.09
-1.00
-0.82
-0.56
-0.28
-0.06
0.06
0.08
0.08
0.16
0.39
0.74
1.14
1.45
1.56
1.43
1.10
0.67
0.28
0.02
-0.08
-0.05
0.01
0.02
-0.06
-0.25
-0.50
-0.78
-1.08
-1.35
-1.58
-1.69
-1.66
-1.47
-1.21
-1.00
-0.93
-1.03
-1.24
-1.43
-1.50
-1.43
-1.27
-1.09
-0.94
-0.82
-0.71
-0.57
-0.39
-0.18
0.01
0.16
0.24
0.26
0.27
0.34
0.56
0.95
1.49
2.06
2.51
2.74
2.73
2.57
2.36
2.19
2.03
1.82
1.44
0.88
0.20
-0.44
-0.87
-0.99
-0.84
-0.55
-0.32
-0.30
-0.56
-1.01
-1.53
-1.98
-2.25
-2.36
-2.32
-2.20
-2.04
-1.86
-1.70
-1.57
-1.48
-1.45
-1.46
-1.47
-1.40
-1.15
-0.65
0.14
1.16
2.26
3.24
3.88
4.04
3.70
2.96
2.00
1.03
0.25
-0.24
-0.39
-0.24
0.10
0.50
0.79
0.91
0.83
0.64
0.45
0.33
0.28
0.21
0.03
-0.31
-0.77
-1.22
-1.52
-1.60
-1.50
-1.32
-1.15
-1.02
-0.89
-0.67
-0.36
-0.03
0.20
0.27
0.18
0.07
0.09
0.31
0.65
0.96
1.06
0.89
0.53
0.13
-0.19
-0.38
-0.47
-0.51
-0.53
-0.55
-0.57
-0.61
-0.69
-0.79
-0.86
-0.83
-0.68
-0.43
-0.16
0.03
0.10
0.07
-0.02
-0.09
-0.12
-0.08
0.05
0.31
0.73
1.28
1.84
2.27
2.39
2.13
1.55
0.84
0.22
-0.13
-0.16
0.03
0.27
0.41
0.40
0.26
0.09
-0.04
-0.13
-0.22
-0.35
-0.53
-0.74
-0.91
-1.03
-1.12
-1.21
-1.32
-1.45
-1.52
-1.45
-1.21
-0.80
-0.34
0.05
0.25
0.23
0.04
-0.21
-0.37
-0.35
-0.12
0.27
0.73
1.10
1.27
1.15
0.74
0.13
-0.49
-0.95
-1.11
-0.94
-0.53
-0.06
0.29
0.41
0.29
-0.00
-0.35
-0.67
-0.91
-1.05
-1.08
-1.00
-0.84
-0.62
-0.40
-0.19
0.03
0.36
0.89
1.66
2.55
3.36
3.83
3.82
3.32
2.50
1.56
0.70
0.03
-0.43
-0.68
-0.73
-0.63
-0.40
-0.10
0.20
0.39
0.40
0.18
-0.25
-0.79
-1.28
-1.57
-1.60
-1.41
-1.16
-1.02
-1.05
-1.20
-1.33
-1.27
-0.95
-0.44
0.11
0.54
0.73
0.69
0.50
0.31
0.22
0.24
0.34
0.40
0.34
0.12
-0.17
-0.41
-0.48
-0.36
-0.11
0.18
0.44
0.63
0.75
0.78
0.70
0.46
0.08
-0.36
-0.72
-0.92
-0.93
-0.82
-0.70
-0.63
-0.62
-0.63
-0.61
-0.52
-0.37
-0.13
0.22
0.73
1.42
2.17
2.81
3.11
2.90
2.19
1.17
0.12
-0.65
-0.96
-0.82
-0.36
0.19
0.65
0.88
0.84
0.56
0.10
-0.42
-0.91
-1.31
-1.57
-1.68
-1.62
-1.40
-1.05
-0.64
-0.28
-0.06
-0.03
-0.18
-0.42
-0.63
-0.71
-0.63
-0.42
-0.18
0.01
0.07
0.00
-0.15
-0.30
-0.32
-0.18
0.10
0.41
0.62
0.62
0.42
0.05
-0.38
-0.77
-1.03
-1.10
-0.94
-0.53
0.06
0.73
1.31
1.66
1.67
1.37
0.86
0.27
-0.28
-0.70
-0.94
-1.01
-0.90
-0.64
-0.25
0.18
0.57
0.82
0.85
0.68
0.37
0.03
-0.24
-0.39
-0.43
-0.39
-0.30
-0.16
0.02
0.21
0.32
0.26
-0.03
-0.51
-1.05
-1.46
-1.61
-1.45
-1.05
-0.52
0.01
0.46
0.80
1.02
1.12
1.15
1.13
1.10
1.09
1.10
1.11
1.05
0.87
0.54
0.07
-0.45
-0.93
-1.26
-1.36
-1.24
-0.96
-0.63
-0.31
-0.06
0.14
0.27
0.34
0.30
0.12
-0.15
-0.46
-0.70
-0.78
-0.73
-0.60
-0.52
-0.57
-0.77
-1.07
-1.34
-1.48
-1.39
-1.08
-0.65
-0.24
-0.02
-0.06
-0.37
-0.86
-1.41
-1.95
-2.47
-2.96
-3.41
-3.80
-4.05
-4.14
-4.10
-4.00
-3.90
-3.85
-3.80
-3.72
-3.57
-3.39
-3.25
-3.21
-3.29
-3.44
-3.56
-3.54
-3.33
-2.90
-2.33
-1.67
-1.01
-0.37
0.22
0.70
1.07
1.32
1.48
1.62
1.82
2.10
2.41
2.71
2.93
3.10
3.23
3.35
3.39
3.29
2.96
2.46
1.89
1.43
1.23
1.37
1.82
2.50
3.31
4.14
4.89
5.46
5.75
5.69
5.29
4.59
3.71
2.80
2.01
1.47
1.22
1.23
1.36
1.45
1.38
1.14
0.84
0.66
0.76
1.15
1.71
2.22
2.45
2.29
1.80
1.18
0.66
0.43
0.50
0.76
1.03
1.14
1.04
0.77
0.48
0.27
0.21
0.30
0.45
0.62
0.74
0.81
0.84
0.80
0.68
0.42
0.03
-0.44
-0.87
-1.16
-1.23
-1.12
-0.91
-0.73
-0.69
-0.80
-1.01
-1.21
-1.30
-1.27
-1.15
-1.04
-0.98
-1.00
-1.04
-1.05
-0.97
-0.83
-0.69
-0.60
-0.59
-0.59
-0.56
-0.45
-0.28
-0.07
0.11
0.24
0.33
0.37
0.40
0.40
0.39
0.37
0.39
0.45
0.54
0.61
0.64
0.61
0.55
0.51
0.50
0.47
0.37
0.16
-0.12
-0.39
-0.56
-0.59
-0.51
-0.42
-0.43
-0.60
-0.92
-1.30
-1.66
-1.92
-2.03
-2.00
-1.84
-1.61
-1.36
-1.17
-1.09
-1.14
-1.26
-1.35
-1.32
-1.13
-0.78
-0.36
0.06
0.42
0.68
0.85
0.94
0.95
0.91
0.85
0.83
0.91
1.09
1.32
1.50
1.53
1.39
1.14
0.89
0.73
0.72
0.81
0.94
1.05
1.09
1.13
1.19
1.32
1.50
1.65
1.69
1.56
1.28
0.93
0.62
0.47
0.51
0.68
0.90
1.07
1.12
1.07
0.97
0.87
0.79
0.73
0.66
0.56
0.42
0.24
0.05
-0.16
-0.36
-0.57
-0.79
-1.02
-1.26
-1.51
-1.72
-1.87
-1.90
-1.78
-1.50
-1.12
-0.71
-0.38
-0.20
-0.19
-0.31
-0.49
-0.66
-0.78
-0.86
-0.89
-0.90
-0.89
-0.88
-0.88
-0.91
-0.97
-1.04
-1.09
-1.08
-1.00
-0.85
-0.67
-0.46
-0.23
-0.00
0.22
0.42
0.57
0.63
0.58
0.41
0.15
-0.10
-0.27
-0.28
-0.13
0.09
0.25
0.23
0.02
-0.30
-0.58
-0.70
-0.58
-0.27
0.13
0.50
0.75
0.86
0.88
0.86
0.87
0.92
1.00
1.05
1.02
0.87
0.62
0.33
0.07
-0.10
-0.15
-0.09
0.02
0.17
0.30
0.40
0.45
0.43
0.32
0.11
-0.20
-0.58
-0.96
-1.29
-1.51
-1.58
-1.49
-1.28
-0.99
-0.66
-0.34
-0.10
0.01
-0.02
-0.19
-0.41
-0.59
-0.63
-0.51
-0.25
0.07
0.35
0.54
0.65
0.72
0.80
0.94
1.14
1.34
1.44
1.34
0.97
0.35
-0.36
-0.92
-1.11
-0.86
-0.25
0.48
1.05
1.25
1.01
0.45
-0.23
-0.81
-1.11
-1.09
-0.82
-0.41
0.01
0.33
0.49
0.53
0.49
0.45
0.43
0.43
0.40
0.29
0.10
-0.10
-0.25
-0.29
-0.22
-0.12
-0.06
-0.13
-0.31
-0.53
-0.67
-0.68
-0.54
-0.31
-0.11
-0.02
-0.07
-0.24
-0.48
-0.71
-0.89
-0.97
-0.92
-0.71
-0.35
0.13
0.61
0.93
0.95
0.67
0.20
-0.25
-0.50
-0.46
-0.21
0.09
0.29
0.33
0.26
0.19
0.20
0.29
0.42
0.51
0.53
0.50
0.48
0.52
0.61
0.75
0.88
0.93
0.86
0.67
0.40
0.12
-0.09
-0.17
-0.11
0.05
0.23
0.36
0.37
0.29
0.15
0.01
-0.07
-0.08
-0.04
0.00
0.01
-0.05
-0.18
-0.35
-0.48
-0.52
-0.47
-0.38
-0.31
-0.32
-0.40
-0.49
-0.52
-0.41
-0.17
0.14
0.40
0.52
0.46
0.25
-0.01
-0.23
-0.35
-0.39
-0.38
-0.37
-0.38
-0.40
-0.42
-0.44
-0.48
-0.56
-0.62
-0.61
-0.45
-0.13
0.26
0.60
0.76
0.70
0.49
0.22
-0.00
-0.12
-0.14
-0.11
-0.07
-0.05
-0.07
-0.13
-0.22
-0.30
-0.36
-0.40
-0.43
-0.46
-0.48
-0.46
-0.35
-0.15
0.12
0.36
0.49
0.45
0.27
0.03
-0.15
-0.21
-0.11
0.11
0.37
0.56
0.64
0.57
0.41
0.23
0.10
0.09
0.20
0.38
0.55
0.62
0.52
0.25
-0.12
-0.48
-0.71
-0.75
-0.60
-0.33
-0.02
0.25
0.45
0.57
0.58
0.49
0.31
0.08
-0.15
-0.34
-0.47
-0.52
-0.49
-0.36
-0.13
0.15
0.42
0.57
0.56
0.40
0.15
-0.08
-0.24
-0.29
-0.28
-0.26
-0.27
-0.32
-0.41
-0.50
-0.57
-0.55
-0.41
-0.19
0.06
0.23
0.25
0.14
-0.03
-0.15
-0.14
-0.01
0.19
0.40
0.57
0.70
0.83
0.96
1.10
1.22
1.28
1.27
1.17
0.99
0.76
0.53
0.36
0.26
0.24
0.25
0.25
0.22
0.18
0.15
0.16
0.22
0.34
0.48
0.63
0.75
0.79
0.68
0.37
-0.13
-0.72
-1.26
-1.62
-1.72
-1.59
-1.31
-0.94
-0.54
-0.13
0.27
0.65
0.95
1.16
1.25
1.25
1.18
1.07
0.94
0.80
0.67
0.56
0.48
0.44
0.41
0.40
0.43
0.51
0.60
0.60
0.42
0.02
-0.51
-0.99
-1.21
-1.08
-0.65
-0.10
0.35
0.58
0.59
0.47
0.34
0.25
0.17
0.05
-0.12
-0.32
-0.47
-0.50
-0.41
-0.26
-0.14
-0.15
-0.31
-0.63
-1.04
-1.44
-1.73
-1.84
-1.74
-1.46
-1.09
-0.72
-0.43
-0.30
-0.31
-0.45
-0.65
-0.86
-1.03
-1.13
-1.14
-1.06
-0.89
-0.67
-0.41
-0.18
-0.04
-0.06
-0.21
-0.42
-0.57
-0.58
-0.46
-0.29
-0.20
-0.25
-0.41
-0.56
-0.61
-0.55
-0.41
-0.30
-0.25
-0.24
-0.20
-0.07
0.14
0.36
0.51
0.54
0.47
0.35
0.22
0.13
0.09
0.13
0.24
0.39
0.56
0.72
0.85
0.95
1.04
1.13
1.18
1.14
0.97
0.68
0.37
0.16
0.12
0.22
0.35
0.38
0.24
-0.01
-0.27
-0.44
-0.51
-0.52
-0.54
-0.58
-0.59
-0.51
-0.34
-0.13
0.02
0.08
0.06
0.04
0.08
0.20
0.35
0.46
0.50
0.45
0.35
0.18
-0.03
-0.28
-0.51
-0.62
-0.55
-0.30
0.03
0.32
0.42
0.29
-0.04
-0.46
-0.88
-1.17
-1.28
-1.16
-0.85
-0.44
-0.03
0.28
0.41
0.41
0.32
0.22
0.16
0.14
0.14
0.16
0.21
0.27
0.35
0.42
0.47
0.48
0.49
0.53
0.62
0.72
0.82
0.87
0.86
0.79
0.66
0.48
0.27
0.07
-0.10
-0.22
-0.31
-0.38
-0.49
-0.62
-0.74
-0.78
-0.66
-0.36
0.07
0.53
0.91
1.10
1.06
0.83
0.47
0.09
-0.23
-0.43
-0.48
-0.40
-0.24
-0.04
0.12
0.19
0.11
-0.11
-0.44
-0.76
-0.95
-0.94
-0.71
-0.33
0.07
0.40
0.57
0.57
0.42
0.16
-0.17
-0.54
-0.89
-1.16
-1.25
-1.13
-0.78
-0.28
0.23
0.60
0.74
0.63
0.33
-0.04
-0.34
-0.50
-0.49
-0.31
-0.01
0.33
0.64
0.85
0.92
0.86
0.72
0.55
0.39
0.23
0.06
-0.11
-0.26
-0.35
-0.36
-0.31
-0.25
-0.24
-0.28
-0.37
-0.42
-0.37
-0.21
0.03
0.26
0.40
0.39
0.26
0.08
-0.07
-0.11
-0.01
0.20
0.47
0.70
0.85
0.88
0.81
0.69
0.54
0.40
0.25
0.10
-0.03
-0.10
-0.08
0.03
0.16
0.26
0.26
0.16
-0.02
-0.23
-0.44
-0.60
-0.71
-0.74
-0.70
-0.61
-0.50
-0.41
-0.33
-0.22
-0.05
0.21
0.49
0.67
0.66
0.45
0.11
-0.20
-0.38
-0.39
-0.28
-0.15
-0.06
-0.06
-0.12
-0.21
-0.27
-0.29
-0.26
-0.19
-0.10
-0.06
-0.10
-0.24
-0.42
-0.55
-0.54
-0.35
-0.03
0.32
0.60
0.73
0.67
0.46
0.11
-0.32
-0.74
-1.07
-1.19
-1.06
-0.70
-0.23
0.20
0.45
0.48
0.30
-0.02
-0.37
-0.65
-0.79
-0.75
-0.51
-0.12
0.31
0.65
0.79
0.70
0.44
0.14
-0.08
-0.15
-0.09
0.02
0.10
0.10
0.05
-0.03
-0.10
-0.16
-0.20
-0.23
-0.21
-0.13
-0.01
0.12
0.20
0.23
0.24
0.27
0.35
0.44
0.50
0.47
0.34
0.14
-0.07
-0.22
-0.27
-0.19
-0.02
0.19
0.35
0.41
0.32
0.13
-0.06
-0.17
-0.14
-0.01
0.16
0.28
0.31
0.23
0.07
-0.15
-0.36
-0.53
-0.59
-0.52
-0.34
-0.10
0.14
0.34
0.48
0.58
0.63
0.62
0.52
0.32
0.08
-0.10
-0.11
0.08
0.40
0.74
0.94
0.92
0.71
0.38
0.05
-0.17
-0.28
-0.30
-0.31
-0.37
-0.47
-0.60
-0.70
-0.72
-0.65
-0.53
-0.40
-0.30
-0.24
-0.23
-0.26
-0.32
-0.39
-0.42
-0.34
-0.13
0.18
0.52
0.75
0.78
0.58
0.24
-0.13
-0.40
-0.52
-0.48
-0.35
-0.20
-0.09
-0.09
-0.17
-0.31
-0.42
-0.41
-0.26
0.01
0.30
0.49
0.49
0.32
0.09
-0.05
0.01
0.28
0.63
0.90
0.95
0.73
0.31
-0.14
-0.47
-0.59
-0.53
-0.34
-0.11
0.11
0.26
0.31
0.22
-0.02
-0.36
-0.73
-1.00
-1.10
-1.02
-0.83
-0.62
-0.44
-0.30
-0.18
-0.03
0.15
0.36
0.57
0.78
0.99
1.17
1.27
1.23
1.01
0.64
0.22
-0.13
-0.32
-0.33
-0.21
-0.07
-0.02
-0.09
-0.27
-0.47
-0.61
-0.59
-0.41
-0.12
0.21
0.46
0.56
0.50
0.32
0.07
-0.19
-0.39
-0.52
-0.53
-0.42
-0.21
0.04
0.28
0.46
0.54
0.54
0.49
0.39
0.27
0.14
0.01
-0.07
-0.10
-0.06
0.03
0.14
0.23
0.26
0.21
0.10
-0.02
-0.11
-0.12
-0.01
0.19
0.39
0.50
0.48
0.33
0.14
0.01
-0.01
0.08
0.21
0.29
0.28
0.20
0.11
0.04
0.02
0.02
0.02
-0.01
-0.04
-0.03
0.02
0.10
0.10
-0.03
-0.32
-0.70
-1.04
-1.18
-1.04
-0.66
-0.17
0.27
0.54
0.61
0.56
0.51
0.52
0.55
0.52
0.34
0.03
-0.31
-0.54
-0.57
-0.40
-0.16
-0.00
-0.01
-0.15
-0.35
-0.49
-0.52
-0.44
-0.34
-0.29
-0.33
-0.47
-0.67
-0.89
-1.04
-1.07
-0.97
-0.76
-0.49
-0.24
-0.01
0.20
0.45
0.74
1.03
1.23
1.26
1.07
0.72
0.35
0.06
-0.08
-0.06
0.07
0.25
0.44
0.58
0.66
0.64
0.52
0.33
0.13
-0.06
-0.21
-0.35
-0.48
-0.63
-0.75
-0.78
-0.69
-0.48
-0.23
-0.03
0.07
0.06
0.00
-0.02
0.05
0.23
0.44
0.61
0.68
0.65
0.57
0.50
0.48
0.49
0.50
0.44
0.33
0.22
0.19
0.30
0.47
0.60
0.52
0.17
-0.34
-0.82
-1.07
-0.98
-0.61
-0.16
0.14
0.17
-0.06
-0.41
-0.70
-0.80
-0.71
-0.48
-0.22
-0.01
0.13
0.19
0.17
0.11
0.02
-0.09
-0.16
-0.20
-0.18
-0.11
-0.00
0.08
0.10
0.05
-0.08
-0.25
-0.42
-0.57
-0.66
-0.66
-0.54
-0.29
0.07
0.49
0.87
1.11
1.12
0.91
0.51
0.01
-0.47
-0.83
-0.99
-0.90
-0.55
-0.02
0.58
1.04
1.23
1.08
0.64
0.07
-0.44
-0.73
-0.75
-0.53
-0.20
0.12
0.32
0.32
0.14
-0.17
-0.51
-0.77
-0.88
-0.85
-0.72
-0.56
-0.43
-0.37
-0.37
-0.39
-0.37
-0.28
-0.12
0.09
0.30
0.47
0.57
0.60
0.60
0.63
0.71
0.86
1.02
1.09
1.00
0.73
0.33
-0.07
-0.34
-0.41
-0.31
-0.15
-0.06
-0.10
-0.25
-0.43
-0.52
-0.47
-0.28
-0.02
0.26
0.50
0.69
0.81
0.85
0.81
0.68
0.50
0.29
0.07
-0.14
-0.30
-0.39
-0.34
-0.12
0.22
0.59
0.84
0.89
0.72
0.43
0.14
-0.05
-0.12
-0.15
-0.23
-0.39
-0.61
-0.83
-0.95
-0.94
-0.78
-0.53
-0.22
0.11
0.43
0.68
0.78
0.69
0.43
0.06
-0.26
-0.44
-0.42
-0.27
-0.09
0.04
0.07
0.02
-0.06
-0.12
-0.16
-0.17
-0.16
-0.12
0.02
0.24
0.49
0.68
0.68
0.47
0.10
-0.28
-0.53
-0.54
-0.34
0.01
0.36
0.60
0.68
0.58
0.38
0.14
-0.04
-0.13
-0.14
-0.14
-0.19
-0.34
-0.54
-0.71
-0.76
-0.64
-0.38
-0.05
0.22
0.38
0.41
0.33
0.20
0.06
-0.09
-0.26
-0.43
-0.58
-0.66
-0.62
-0.45
-0.17
0.14
0.40
0.56
0.60
0.57
0.48
0.33
0.10
-0.21
-0.55
-0.85
-0.98
-0.91
-0.67
-0.34
-0.04
0.17
0.28
0.33
0.36
0.43
0.49
0.53
0.52
0.46
0.39
0.34
0.34
0.40
0.47
0.50
0.45
0.32
0.13
-0.04
-0.15
-0.18
-0.15
-0.12
-0.12
-0.15
-0.19
-0.21
-0.23
-0.26
-0.31
-0.35
-0.32
-0.19
-0.01
0.15
0.18
0.04
-0.22
-0.46
-0.54
-0.39
-0.05
0.33
0.62
0.71
0.58
0.32
0.04
-0.15
-0.19
-0.11
0.02
0.14
0.18
0.13
0.04
-0.07
-0.14
-0.17
-0.19
-0.19
-0.20
-0.20
-0.20
-0.20
-0.23
-0.28
-0.36
-0.43
-0.44
-0.34
-0.14
0.13
0.39
0.57
0.64
0.60
0.50
0.40
0.32
0.27
0.23
0.17
0.10
0.05
0.03
0.04
0.03
-0.04
-0.18
-0.34
-0.47
-0.52
-0.48
-0.39
-0.31
-0.23
-0.13
0.02
0.24
0.47
0.66
0.73
0.68
0.52
0.31
0.06
-0.19
-0.44
-0.68
-0.87
-1.00
-1.05
-1.04
-0.99
-0.88
-0.70
-0.41
-0.01
0.44
0.84
1.07
1.05
0.78
0.34
-0.13
-0.46
-0.56
-0.41
-0.11
0.25
0.54
0.69
0.69
0.55
0.35
0.15
0.01
-0.05
-0.00
0.12
0.29
0.42
0.45
0.35
0.13
-0.16
-0.41
-0.54
-0.50
-0.31
-0.06
0.14
0.21
0.11
-0.12
-0.42
-0.72
-0.94
-1.02
-0.94
-0.74
-0.45
-0.16
0.05
0.15
0.14
0.08
0.03
0.04
0.09
0.13
0.11
-0.01
-0.20
-0.38
-0.48
-0.43
-0.23
0.10
0.49
0.84
1.09
1.18
1.10
0.89
0.62
0.38
0.20
0.10
0.02
-0.10
-0.27
-0.44
-0.48
-0.31
0.05
0.46
0.76
0.80
0.61
0.30
0.07
0.03
0.18
0.40
0.50
0.37
0.05
-0.35
-0.65
-0.72
-0.53
-0.17
0.21
0.45
0.49
0.33
0.07
-0.19
-0.37
-0.44
-0.44
-0.41
-0.37
-0.28
-0.16
0.01
0.16
0.22
0.15
-0.06
-0.33
-0.58
-0.74
-0.77
-0.70
-0.56
-0.38
-0.20
-0.02
0.14
0.30
0.44
0.55
0.61
0.58
0.44
0.24
0.02
-0.11
-0.08
0.11
0.40
0.67
0.82
0.79
0.60
0.33
0.06
-0.17
-0.36
-0.54
-0.71
-0.84
-0.86
-0.76
-0.54
-0.28
-0.07
0.03
0.02
-0.06
-0.14
-0.16
-0.12
0.01
0.19
0.41
0.63
0.79
0.86
0.80
0.64
0.40
0.11
-0.17
-0.42
-0.59
-0.68
-0.65
-0.49
-0.22
0.12
0.47
0.77
0.97
1.05
1.04
0.96
0.84
0.69
0.47
0.16
-0.24
-0.68
-1.03
-1.19
-1.09
-0.77
-0.37
-0.09
-0.03
-0.20
-0.47
-0.68
-0.72
-0.58
-0.32
-0.06
0.11
0.17
0.18
0.18
0.22
0.28
0.34
0.32
0.22
0.04
-0.15
-0.29
-0.34
-0.28
-0.17
-0.06
-0.00
-0.00
-0.02
0.02
0.16
0.39
0.62
0.76
0.74
0.59
0.40
0.28
0.29
0.39
0.49
0.47
0.26
-0.10
-0.49
-0.78
-0.88
-0.80
-0.63
-0.49
-0.47
-0.56
-0.71
-0.81
-0.75
-0.51
-0.10
0.35
0.72
0.89
0.84
0.60
0.28
-0.01
-0.21
-0.32
-0.37
-0.40
-0.40
-0.35
-0.23
-0.05
0.11
0.20
0.19
0.09
-0.02
-0.11
-0.14
-0.12
-0.05
0.05
0.17
0.29
0.37
0.34
0.20
-0.04
-0.30
-0.47
-0.49
-0.34
-0.07
0.25
0.53
0.68
0.70
0.60
0.43
0.26
0.16
0.14
0.19
0.25
0.26
0.18
0.02
-0.20
-0.43
-0.62
-0.75
-0.81
-0.80
-0.74
-0.66
-0.57
-0.48
-0.41
-0.35
-0.30
-0.25
-0.17
-0.06
0.09
0.23
0.34
0.39
0.36
0.28
0.18
0.11
0.07
0.07
0.07
0.03
-0.06
-0.17
-0.24
-0.23
-0.10
0.11
0.34
0.53
0.65
0.75
0.93
1.23
1.68
2.19
2.65
3.00
3.21
3.34
3.46
3.60
3.74
3.79
3.70
3.41
2.91
2.23
1.36
0.31
-0.88
-2.11
-3.22
-4.03
-4.41
-4.36
-3.99
-3.46
-2.93
-2.47
-2.04
-1.58
-1.00
-0.33
0.33
0.85
1.09
1.02
0.67
0.10
-0.61
-1.42
-2.27
-3.10
-3.82
-4.32
-4.51
-4.32
-3.76
-2.81
-1.48
0.19
2.09
4.01
5.65
6.72
7.06
6.72
5.91
4.89
3.85
2.86
1.88
0.89
-0.07
-0.86
-1.35
-1.51
-1.41
-1.21
-1.05
-0.98
-0.95
-0.90
-0.78
-0.61
-0.47
-0.43
-0.51
-0.69
-0.93
-1.16
-1.35
-1.48
-1.55
-1.57
-1.55
-1.52
-1.44
-1.31
-1.09
-0.80
-0.50
-0.26
-0.14
-0.17
-0.29
-0.42
-0.44
-0.31
-0.05
0.26
0.48
0.51
0.34
0.04
-0.25
-0.39
-0.33
-0.11
0.15
0.34
0.38
0.28
0.09
-0.10
-0.27
-0.40
-0.50
-0.58
-0.62
-0.63
-0.63
-0.68
-0.82
-1.06
-1.38
-1.69
-1.90
-1.97
-1.91
-1.79
-1.68
-1.60
-1.56
-1.53
-1.52
-1.55
-1.69
-1.97
-2.37
-2.83
-3.26
-3.59
-3.80
-3.92
-3.99
-4.08
-4.19
-4.30
-4.37
-4.34
-4.16
-3.82
-3.30
-2.68
-1.99
-1.28
-0.54
0.32
1.40
2.75
4.37
6.12
7.83
9.31
10.44
11.15
11.45
11.30
10.72
9.71
8.38
6.89
5.44
4.17
3.14
2.24
1.33
0.29
-0.90
-2.16
-3.31
-4.19
-4.71
-4.91
-4.91
-4.89
-4.94
-5.10
-5.29
-5.40
-5.36
-5.20
-4.98
-4.75
-4.54
-4.27
-3.84
-3.21
-2.39
-1.52
-0.71
-0.08
0.34
0.55
0.58
0.45
0.21
-0.08
-0.32
-0.41
-0.31
0.00
0.47
1.00
1.52
1.97
2.34
2.64
2.86
2.99
3.05
3.03
2.99
3.01
3.17
3.47
3.89
4.32
4.67
4.88
4.97
4.95
4.84
4.66
4.39
4.05
3.66
3.28
2.91
2.57
2.21
1.81
1.33
0.77
0.12
-0.61
-1.34
-1.98
-2.44
-2.65
-2.64
-2.51
-2.35
-2.24
-2.17
-2.06
-1.83
-1.44
-0.97
-0.52
-0.20
-0.04
0.01
0.04
0.12
0.24
0.37
0.42
0.33
0.13
-0.12
-0.33
-0.44
-0.45
-0.41
-0.37
-0.35
-0.33
-0.30
-0.24
-0.14
-0.03
0.12
0.30
0.54
0.80
1.04
1.17
1.12
0.90
0.56
0.20
-0.07
-0.22
-0.21
-0.07
0.17
0.43
0.60
0.58
0.32
-0.12
-0.58
-0.88
-0.90
-0.66
-0.26
0.10
0.28
0.23
0.02
-0.20
-0.33
-0.31
-0.20
-0.12
-0.20
-0.50
-0.97
-1.48
-1.88
-2.04
-1.95
-1.69
-1.39
-1.16
-1.08
-1.12
-1.23
-1.34
-1.37
-1.29
-1.08
-0.75
-0.38
-0.01
0.27
0.43
0.45
0.36
0.22
0.10
0.05
0.08
0.18
0.30
0.41
0.45
0.42
0.31
0.16
0.00
-0.14
-0.26
-0.38
-0.49
-0.58
-0.58
-0.44
-0.16
0.21
0.52
0.69
0.65
0.47
0.25
0.11
0.08
0.11
0.11
0.04
-0.09
-0.22
-0.27
-0.20
-0.05
0.12
0.26
0.32
0.32
0.29
0.30
0.36
0.48
0.65
0.85
1.02
1.08
0.99
0.74
0.34
-0.10
-0.47
-0.68
-0.71
-0.59
-0.41
-0.27
-0.22
-0.23
-0.27
-0.27
-0.23
-0.16
-0.12
-0.13
-0.20
-0.30
-0.38
-0.42
-0.39
-0.29
-0.15
0.02
0.18
0.31
0.36
0.32
0.18
-0.01
-0.21
-0.35
-0.35
-0.21
0.07
0.39
0.65
0.76
0.68
0.46
0.22
0.07
0.07
0.20
0.37
0.46
0.42
0.22
-0.08
-0.41
-0.69
-0.89
-0.96
-0.87
-0.67
-0.39
-0.16
-0.06
-0.12
-0.28
-0.43
-0.42
-0.20
0.14
0.44
0.54
0.35
-0.06
-0.54
-0.93
-1.12
-1.09
-0.93
-0.73
-0.56
-0.46
-0.39
-0.30
-0.13
0.16
0.57
1.01
1.39
1.62
1.64
1.52
1.33
1.18
1.09
1.01
0.89
0.68
0.44
0.22
0.12
0.14
0.23
0.30
0.26
0.07
-0.23
-0.59
-0.94
-1.19
-1.29
-1.20
-0.97
-0.70
-0.51
-0.47
-0.59
-0.74
-0.81
-0.71
-0.44
-0.11
0.18
0.31
0.26
0.08
-0.16
-0.38
-0.52
-0.53
-0.39
-0.11
0.29
0.73
1.13
1.40
1.49
1.39
1.14
0.81
0.46
0.13
-0.13
-0.28
-0.32
-0.24
-0.08
0.08
0.18
0.15
-0.00
-0.23
-0.47
-0.67
-0.82
-0.92
-0.96
-0.91
-0.77
-0.54
-0.27
-0.02
0.15
0.22
0.21
0.16
0.13
0.14
0.22
0.37
0.58
0.83
1.08
1.32
1.49
1.56
1.46
1.15
0.64
-0.00
-0.62
-1.05
-1.20
-1.08
-0.82
-0.57
-0.47
-0.52
-0.66
-0.77
-0.78
-0.68
-0.51
-0.35
-0.22
-0.12
-0.02
0.13
0.33
0.56
0.77
0.88
0.84
0.67
0.43
0.24
0.21
0.33
0.55
0.73
0.76
0.62
0.35
0.08
-0.10
-0.14
-0.05
0.09
0.21
0.24
0.17
-0.00
-0.23
-0.49
-0.71
-0.87
-0.94
-0.91
-0.80
-0.63
-0.46
-0.33
-0.27
-0.31
-0.44
-0.58
-0.67
-0.64
-0.45
-0.14
0.24
0.60
0.84
0.93
0.87
0.72
0.55
0.44
0.42
0.48
0.56
0.61
0.58
0.45
0.28
0.11
-0.01
-0.06
-0.06
-0.04
-0.03
-0.04
-0.04
-0.02
0.01
0.05
0.03
-0.06
-0.20
-0.36
-0.47
-0.52
-0.50
-0.44
-0.34
-0.20
-0.04
0.10
0.17
0.09
-0.12
-0.38
-0.55
-0.52
-0.28
0.09
0.41
0.51
0.35
-0.02
-0.48
-0.85
-1.05
-1.05
-0.87
-0.60
-0.30
-0.02
0.22
0.42
0.60
0.77
0.89
0.93
0.83
0.62
0.41
0.29
0.36
0.60
0.88
1.01
0.87
0.44
-0.14
-0.65
-0.92
-0.88
-0.63
-0.34
-0.17
-0.18
-0.35
-0.56
-0.72
-0.78
-0.75
-0.68
-0.60
-0.49
-0.35
-0.17
0.02
0.13
0.08
-0.10
-0.32
-0.46
-0.38
-0.06
0.42
0.87
1.14
1.11
0.80
0.34
-0.12
-0.43
-0.51
-0.40
-0.16
0.11
0.35
0.53
0.63
0.64
0.56
0.38
0.15
-0.03
-0.09
0.01
0.22
0.45
0.57
0.50
0.25
-0.10
-0.44
-0.68
-0.79
-0.79
-0.72
-0.62
-0.50
-0.34
-0.13
0.14
0.42
0.64
0.72
0.61
0.33
-0.02
-0.31
-0.42
-0.25
0.19
0.79
1.38
1.80
1.95
1.80
1.44
0.98
0.56
0.23
0.00
-0.15
-0.27
-0.41
-0.58
-0.77
-0.96
-1.12
-1.20
-1.14
-0.92
-0.58
-0.21
0.04
0.09
-0.07
-0.37
-0.69
-0.92
-0.99
-0.95
-0.84
-0.72
-0.62
-0.53
-0.40
-0.22
0.02
0.28
0.52
0.66
0.69
0.62
0.51
0.47
0.55
0.74
0.90
0.88
0.59
0.08
-0.46
-0.81
-0.81
-0.48
0.02
0.48
0.74
0.81
0.77
0.71
0.65
0.55
0.34
0.02
-0.34
-0.64
-0.84
-0.95
-1.05
-1.20
-1.40
-1.56
-1.55
-1.29
-0.81
-0.24
0.25
0.53
0.56
0.39
0.13
-0.11
-0.26
-0.29
-0.20
-0.06
0.07
0.12
0.10
0.05
0.09
0.26
0.55
0.86
1.03
0.94
0.62
0.20
-0.15
-0.27
-0.17
0.04
0.21
0.21
0.06
-0.16
-0.33
-0.39
-0.33
-0.23
-0.16
-0.12
-0.06
0.08
0.32
0.62
0.87
0.96
0.85
0.57
0.23
-0.06
-0.21
-0.22
-0.13
-0.02
0.05
0.09
0.13
0.23
0.43
0.70
0.98
1.19
1.25
1.14
0.90
0.59
0.29
0.03
-0.18
-0.38
-0.60
-0.83
-1.03
-1.13
-1.08
-0.87
-0.59
-0.35
-0.23
-0.26
-0.40
-0.54
-0.59
-0.48
-0.23
0.09
0.41
0.63
0.74
0.76
0.75
0.77
0.82
0.84
0.78
0.60
0.34
0.10
-0.07
-0.12
-0.11
-0.07
-0.07
-0.08
-0.07
-0.01
0.08
0.17
0.18
0.09
-0.08
-0.27
-0.43
-0.51
-0.50
-0.40
-0.25
-0.05
0.18
0.41
0.61
0.74
0.77
0.64
0.38
0.03
-0.32
-0.57
-0.63
-0.50
-0.24
0.05
0.24
0.28
0.16
-0.05
-0.23
-0.28
-0.16
0.10
0.39
0.57
0.57
0.39
0.11
-0.14
-0.24
-0.18
0.02
0.24
0.39
0.38
0.23
-0.02
-0.29
-0.50
-0.63
-0.71
-0.77
-0.84
-0.89
-0.91
-0.84
-0.69
-0.52
-0.39
-0.37
-0.45
-0.59
-0.67
-0.62
-0.40
-0.05
0.30
0.58
0.73
0.76
0.75
0.76
0.82
0.90
0.91
0.79
0.53
0.21
-0.07
-0.22
-0.25
-0.25
-0.32
-0.52
-0.79
-1.00
-1.04
-0.87
-0.57
-0.27
-0.06
0.02
0.03
0.05
0.11
0.17
0.22
0.23
0.23
0.26
0.32
0.38
0.37
0.29
0.17
0.07
0.02
0.04
0.07
0.07
-0.01
-0.16
-0.36
-0.53
-0.63
-0.63
-0.53
-0.37
-0.21
-0.12
-0.11
-0.16
-0.20
-0.21
-0.15
-0.03
0.11
0.26
0.40
0.51
0.60
0.65
0.64
0.55
0.37
0.10
-0.21
-0.48
-0.61
-0.55
-0.31
0.02
0.32
0.47
0.44
0.25
0.01
-0.19
-0.29
-0.27
-0.18
-0.03
0.13
0.28
0.39
0.45
0.44
0.38
0.28
0.17
0.07
-0.02
-0.07
-0.08
0.02
0.23
0.54
0.89
1.16
1.26
1.17
0.97
0.76
0.65
0.63
0.62
0.53
0.29
-0.04
-0.32
-0.45
-0.43
-0.34
-0.33
-0.48
-0.75
-1.02
-1.15
-1.08
-0.85
-0.58
-0.38
-0.27
-0.21
-0.15
-0.07
-0.02
-0.09
-0.29
-0.59
-0.87
-1.06
-1.14
-1.15
-1.19
-1.27
-1.36
-1.37
-1.25
-1.01
-0.77
-0.62
-0.64
-0.79
-0.98
-1.09
-1.07
-0.94
-0.74
-0.50
-0.26
-0.00
0.29
0.60
0.90
1.12
1.22
1.20
1.07
0.92
0.81
0.77
0.82
0.92
1.04
1.16
1.27
1.37
1.40
1.35
1.19
0.93
0.66
0.47
0.41
0.45
0.47
0.38
0.15
-0.13
-0.30
-0.18
0.25
0.90
1.56
2.02
2.20
2.12
1.89
1.62
1.34
1.01
0.55
-0.06
-0.78
-1.45
-1.93
-2.09
-1.88
-1.34
-0.65
-0.03
0.30
0.23
-0.20
-0.81
-1.35
-1.59
-1.47
-1.09
-0.62
-0.24
-0.00
0.11
0.14
0.14
0.10
-0.00
-0.16
-0.34
-0.48
-0.57
-0.63
-0.72
-0.82
-0.89
-0.86
-0.66
-0.31
0.10
0.43
0.59
0.55
0.40
0.21
0.08
0.01
-0.02
-0.07
-0.15
-0.28
-0.42
-0.54
-0.61
-0.59
-0.46
-0.25
-0.01
0.21
0.38
0.53
0.72
1.02
1.43
1.88
2.23
2.34
2.16
1.74
1.25
0.84
0.62
0.56
0.56
0.53
0.41
0.25
0.13
0.11
0.20
0.31
0.35
0.26
0.03
-0.28
-0.58
-0.84
-1.02
-1.11
-1.10
-1.00
-0.83
-0.67
-0.57
-0.57
-0.66
-0.77
-0.86
-0.89
-0.87
-0.82
-0.75
-0.68
-0.61
-0.58
-0.59
-0.65
-0.70
-0.66
-0.49
-0.21
0.09
0.26
0.24
0.07
-0.11
-0.12
0.12
0.57
1.04
1.32
1.30
0.99
0.54
0.13
-0.09
-0.07
0.13
0.39
0.59
0.66
0.61
0.45
0.26
0.05
-0.14
-0.32
-0.45
-0.53
-0.53
-0.46
-0.34
-0.22
-0.12
-0.07
-0.07
-0.08
-0.07
-0.01
0.11
0.25
0.34
0.33
0.18
-0.09
-0.38
-0.58
-0.61
-0.45
-0.17
0.10
0.20
0.06
-0.29
-0.74
-1.12
-1.25
-1.08
-0.64
-0.07
0.44
0.75
0.80
0.61
0.26
-0.13
-0.50
-0.83
-1.11
-1.34
-1.54
-1.67
-1.74
-1.74
-1.69
-1.67
-1.74
-1.92
-2.21
-2.52
-2.72
-2.72
-2.48
-2.11
-1.75
-1.60
-1.73
-2.14
-2.68
-3.15
-3.40
-3.33
-2.93
-2.22
-1.25
-0.12
1.06
2.14
3.02
3.64
4.05
4.36
4.65
4.94
5.19
5.33
5.37
5.37
5.43
5.60
5.86
6.13
6.28
6.23
5.96
5.47
4.79
3.94
2.96
1.95
1.00
0.23
-0.30
-0.63
-0.84
-1.01
-1.18
-1.31
-1.36
-1.27
-1.08
-0.86
-0.70
-0.62
-0.62
-0.63
-0.60
-0.53
-0.46
-0.48
-0.64
-0.95
-1.32
-1.68
-1.99
-2.22
-2.38
-2.47
-2.48
-2.38
-2.16
-1.86
-1.55
-1.30
-1.13
-1.05
-1.03
-1.06
-1.13
-1.24
-1.35
-1.40
-1.31
-1.08
-0.77
-0.49
-0.36
-0.39
-0.53
-0.66
-0.69
-0.58
-0.37
-0.13
0.08
0.21
0.27
0.26
0.19
0.09
-0.06
-0.23
-0.39
-0.53
-0.64
-0.73
-0.77
-0.77
-0.68
-0.47
-0.15
0.23
0.57
0.82
0.95
1.00
1.00
0.96
0.86
0.66
0.37
0.03
-0.27
-0.45
-0.50
-0.45
-0.38
-0.30
-0.21
-0.09
0.04
0.14
0.16
0.12
0.05
0.05
0.13
0.27
0.38
0.39
0.30
0.17
0.08
0.11
0.25
0.45
0.62
0.72
0.76
0.77
0.81
0.85
0.85
0.81
0.72
0.65
0.64
0.69
0.74
0.69
0.46
0.06
-0.41
-0.76
-0.86
-0.67
-0.29
0.11
0.41
0.56
0.59
0.56
0.49
0.37
0.18
-0.10
-0.39
-0.61
-0.67
-0.55
-0.33
-0.11
0.03
0.08
0.07
0.06
0.05
0.01
-0.10
-0.30
-0.54
-0.73
-0.79
-0.68
-0.47
-0.22
-0.04
0.04
0.02
-0.06
-0.17
-0.30
-0.42
-0.50
-0.49
-0.39
-0.22
-0.05
0.03
0.00
-0.08
-0.14
-0.09
0.06
0.25
0.38
0.37
0.25
0.06
-0.10
-0.17
-0.16
-0.14
-0.18
-0.29
-0.44
-0.54
-0.52
-0.38
-0.18
-0.02
0.02
-0.08
-0.23
-0.32
-0.24
0.02
0.37
0.67
0.80
0.71
0.47
0.18
-0.05
-0.16
-0.16
-0.07
0.06
0.18
0.27
0.35
0.39
0.39
0.34
0.23
0.09
-0.06
-0.15
-0.11
0.08
0.38
0.71
0.97
1.08
1.00
0.76
0.46
0.15
-0.08
-0.21
-0.20
-0.07
0.15
0.36
0.47
0.39
0.13
-0.24
-0.61
-0.84
-0.88
-0.75
-0.52
-0.27
-0.04
0.14
0.28
0.36
0.38
0.37
0.35
0.37
0.43
0.51
0.54
0.44
0.20
-0.12
-0.45
-0.70
-0.81
-0.77
-0.59
-0.35
-0.10
0.02
-0.06
-0.36
-0.78
-1.16
-1.32
-1.19
-0.82
-0.37
0.01
0.25
0.38
0.45
0.49
0.46
0.30
0.01
-0.33
-0.60
-0.69
-0.58
-0.32
-0.02
0.22
0.35
0.38
0.36
0.37
0.44
0.56
0.69
0.75
0.68
0.51
0.29
0.09
-0.03
-0.11
-0.18
-0.29
-0.42
-0.54
-0.60
-0.60
-0.60
-0.67
-0.84
-1.07
-1.26
-1.31
-1.19
-0.93
-0.65
-0.47
-0.44
-0.56
-0.72
-0.80
-0.73
-0.47
-0.08
0.37
0.81
1.19
1.53
1.84
2.11
2.31
2.34
2.13
1.65
0.96
0.24
-0.27
-0.41
-0.14
0.38
0.90
1.19
1.11
0.70
0.13
-0.42
-0.81
-0.99
-1.00
-0.89
-0.68
-0.41
-0.09
0.24
0.50
0.62
0.57
0.36
0.10
-0.10
-0.14
-0.00
0.26
0.51
0.62
0.57
0.39
0.21
0.10
0.08
0.04
-0.11
-0.41
-0.80
-1.13
-1.27
-1.18
-0.95
-0.71
-0.56
-0.53
-0.54
-0.49
-0.33
-0.10
0.11
0.19
0.12
-0.05
-0.22
-0.31
-0.29
-0.21
-0.16
-0.17
-0.26
-0.34
-0.32
-0.15
0.13
0.41
0.57
0.55
0.40
0.25
0.21
0.33
0.56
0.73
0.73
0.50
0.14
-0.18
-0.31
-0.22
0.02
0.25
0.37
0.34
0.24
0.16
0.14
0.16
0.12
-0.06
-0.39
-0.78
-1.08
-1.17
-1.03
-0.72
-0.36
-0.05
0.13
0.21
0.24
0.26
0.32
0.39
0.43
0.40
0.29
0.16
0.08
0.11
0.26
0.44
0.57
0.58
0.47
0.30
0.18
0.14
0.19
0.26
0.26
0.13
-0.10
-0.37
-0.59
-0.71
-0.72
-0.64
-0.52
-0.39
-0.23
-0.04
0.18
0.40
0.54
0.57
0.47
0.28
0.08
-0.07
-0.12
-0.09
0.01
0.14
0.29
0.43
0.53
0.56
0.50
0.37
0.22
0.13
0.12
0.20
0.34
0.49
0.57
0.54
0.36
0.03
-0.36
-0.72
-0.93
-0.92
-0.73
-0.45
-0.23
-0.17
-0.29
-0.54
-0.79
-0.95
-0.95
-0.79
-0.55
-0.31
-0.12
0.02
0.16
0.32
0.50
0.64
0.63
0.43
0.05
-0.38
-0.72
-0.86
-0.80
-0.59
-0.37
-0.18
-0.03
0.12
0.31
0.53
0.72
0.80
0.76
0.63
0.51
0.43
0.42
0.43
0.40
0.31
0.17
0.05
-0.01
0.04
0.15
0.28
0.35
0.33
0.21
0.05
-0.07
-0.11
-0.06
0.04
0.14
0.16
0.08
-0.07
-0.28
-0.48
-0.63
-0.67
-0.60
-0.42
-0.21
-0.03
0.07
0.05
-0.03
-0.12
-0.14
-0.08
0.04
0.16
0.21
0.17
0.09
0.01
-0.04
-0.06
-0.09
-0.16
-0.30
-0.47
-0.59
-0.58
-0.45
-0.21
0.03
0.20
0.26
0.23
0.17
0.12
0.13
0.19
0.29
0.38
0.44
0.47
0.48
0.50
0.53
0.55
0.53
0.42
0.21
-0.06
-0.35
-0.57
-0.66
-0.63
-0.52
-0.39
-0.32
-0.34
-0.42
-0.50
-0.52
-0.42
-0.21
0.08
0.37
0.63
0.81
0.90
0.91
0.84
0.72
0.58
0.41
0.24
0.07
-0.10
-0.23
-0.29
-0.28
-0.19
-0.08
0.03
0.10
0.13
0.14
0.15
0.17
0.21
0.25
0.28
0.27
0.23
0.16
0.10
0.07
0.10
0.16
0.19
0.12
-0.07
-0.34
-0.57
-0.65
-0.54
-0.27
0.03
0.26
0.32
0.25
0.10
-0.06
-0.15
-0.16
-0.08
0.08
0.30
0.52
0.69
0.75
0.70
0.54
0.30
0.01
-0.29
-0.55
-0.70
-0.71
-0.59
-0.43
-0.35
-0.43
-0.70
-1.10
-1.54
-1.90
-2.16
-2.31
-2.40
-2.44
-2.41
-2.27
-1.97
-1.52
-0.96
-0.40
0.07
0.39
0.56
0.67
0.82
1.08
1.43
1.76
1.99
2.05
1.96
1.80
1.67
1.63
1.64
1.67
1.65
1.55
1.37
1.11
0.79
0.41
0.02
-0.38
-0.76
-1.14
-1.58
-2.08
-2.60
-2.99
-3.05
-2.63
-1.67
-0.28
1.29
2.71
3.75
4.27
4.26
3.82
3.08
2.14
1.14
0.17
-0.66
-1.28
-1.66
-1.86
-1.98
-2.13
-2.38
-2.78
-3.30
-3.87
-4.45
-5.00
-5.57
-6.19
-6.92
-7.75
-8.60
-9.33
-9.79
-9.89
-9.69
-9.39
-9.30
-9.76
-10.92
-12.74
-14.92
-17.02
-18.68
-19.81
-20.66
-21.81
-23.89
-27.28
-31.89
-37.13
-42.19
-46.36
-49.40
-51.69
-54.02
-57.27
-61.97
-68.03
-74.78
-81.28
-86.78
-91.06
-94.61
-98.43
-103.69
-111.27
-121.47
-133.96
-147.75
-161.31
-172.49
-178.76
-177.58
-166.99
-146.13
-115.52
-76.69
-31.48
18.66
72.70
129.42
186.57
240.57
287.05
322.32
344.85
355.90
358.96
358.31
357.48
358.28
360.70
363.22
363.50
358.97
347.35
327.13
297.93
260.55
216.55
167.50
114.50
58.43
0.74
-55.71
-106.63
-147.30
-174.39
-187.31
-188.57
-182.56
-173.70
-164.85
-156.77
-148.73
-139.86
-130.10
-120.39
-112.05
-105.87
-101.60
-98.04
-93.76
-87.84
-80.25
-71.84
-63.83
-57.18
-52.23
-48.63
-45.59
-42.30
-38.28
-33.58
-28.67
-24.23
-20.77
-18.46
-17.04
-16.03
-14.94
-13.51
-11.76
-9.93
-8.31
-7.10
-6.27
-5.69
-5.16
-4.58
-3.91
-3.22
-2.63
-2.22
-2.00
-1.90
-1.82
-1.64
-1.32
-0.87
-0.36
0.16
0.67
1.19
1.76
2.32
2.71
2.79
2.46
1.75
0.85
-0.07
-0.84
-1.43
-1.85
-2.16
-2.37
-2.48
-2.46
-2.35
-2.20
-2.09
-2.06
-2.10
-2.13
-2.07
-1.82
-1.36
-0.74
-0.08
0.47
0.81
0.89
0.77
0.57
0.37
0.21
0.03
-0.21
-0.51
-0.79
-0.93
-0.86
-0.59
-0.24
0.03
0.12
-0.01
-0.34
-0.76
-1.19
-1.54
-1.80
-1.97
-2.09
-2.19
-2.29
-2.35
-2.35
-2.26
-2.15
-2.11
-2.25
-2.61
-3.12
-3.66
-4.07
-4.32
-4.43
-4.50
-4.61
-4.77
-4.87
-4.76
-4.32
-3.53
-2.49
-1.36
-0.27
0.70
1.58
2.39
3.13
3.70
4.01
3.95
3.57
2.99
2.43
2.09
2.10
2.48
3.17
4.09
5.16
6.29
7.36
8.20
8.61
8.42
7.54
6.05
4.20
2.39
1.01
0.40
0.68
1.72
3.14
4.45
5.17
5.03
4.02
2.40
0.57
-1.05
-2.22
-2.83
-2.91
-2.56
-1.91
-1.12
-0.37
0.14
0.30
0.08
-0.37
-0.79
-0.96
-0.80
-0.37
0.14
0.52
0.64
0.51
0.29
0.12
0.14
0.35
0.68
1.00
1.17
1.12
0.82
0.36
-0.12
-0.49
-0.63
-0.60
-0.55
-0.68
-1.13
-1.86
-2.66
-3.23
-3.37
-3.08
-2.58
-2.16
-2.03
-2.19
-2.45
-2.58
-2.43
-2.05
-1.60
-1.30
-1.22
-1.29
-1.39
-1.41
-1.34
-1.28
-1.35
-1.57
-1.85
-2.02
-1.90
-1.43
-0.68
0.20
0.99
1.54
1.75
1.59
1.13
0.46
-0.29
-1.02
-1.68
-2.28
-2.88
-3.50
-4.09
-4.56
-4.80
-4.80
-4.60
-4.28
-3.84
-3.19
-2.11
-0.44
1.84
4.53
7.27
9.66
11.44
12.54
13.12
13.39
13.56
13.72
13.84
13.82
13.54
12.91
11.90
10.54
8.93
7.22
5.55
4.03
2.72
1.57
0.47
-0.67
-1.92
-3.25
-4.60
-5.86
-6.90
-7.63
-7.97
-7.85
-7.27
-6.28
-5.03
-3.70
-2.49
-1.56
-1.02
-0.88
-1.08
-1.52
-2.04
-2.50
-2.83
-3.01
-3.12
-3.24
-3.46
