1660928505.00
64.000000
-0.00
-0.00
-0.00
-0.00
-0.00
-0.00
-0.00
-0.00
-0.00
-0.00
0.00
0.01
0.01
-0.00
-0.03
-0.05
-0.05
0.00
0.13
0.36
0.66
1.01
1.37
1.72
2.06
2.40
2.79
3.25
3.81
4.43
5.09
5.73
6.34
6.93
7.56
8.28
9.10
10.12
11.23
12.35
13.39
14.33
15.23
16.27
17.63
19.41
21.82
24.64
27.63
30.56
33.29
35.95
38.82
42.31
46.64
52.14
58.46
65.13
71.70
77.96
84.05
90.43
97.66
106.07
116.05
127.05
138.42
149.57
160.25
170.66
181.39
193.48
205.21
218.49
233.84
251.61
271.10
289.97
304.19
309.06
300.71
277.57
241.43
195.99
145.91
95.09
45.82
-1.19
-46.12
-89.16
-130.34
-169.49
-207.33
-245.05
-283.60
-322.63
-359.74
-390.73
-410.88
-416.96
-408.44
-388.02
-360.45
-330.73
-302.39
-276.76
-253.50
-231.64
-210.68
-190.68
-172.20
-155.56
-140.49
-126.30
-112.30
-98.20
-84.23
-71.07
-59.35
-49.42
-41.18
-34.15
-27.64
-21.13
-14.38
-7.57
-1.10
4.59
9.26
12.98
16.04
18.80
21.45
23.96
26.09
27.56
28.24
28.24
27.83
27.33
26.95
26.72
26.55
26.30
25.87
25.26
24.51
23.68
22.82
21.97
21.15
20.37
19.64
18.95
18.32
17.73
17.18
16.67
16.22
15.79
15.40
15.04
14.71
14.45
14.24
14.05
13.80
13.40
12.84
12.17
11.54
11.05
10.76
10.62
10.51
10.29
9.89
9.32
8.67
8.04
7.53
7.17
6.97
6.91
6.92
6.93
6.87
6.71
6.48
6.24
6.10
6.09
6.18
6.26
6.24
6.05
5.73
5.35
4.98
4.63
4.27
3.83
3.28
2.67
2.09
1.64
1.33
1.11
0.88
0.58
0.19
-0.23
-0.61
-0.94
-1.25
-1.61
-2.08
-2.66
-3.33
-4.02
-4.72
-5.42
-6.14
-6.86
-7.48
-7.92
-8.13
-8.14
-8.07
-8.03
-8.04
-8.02
-7.81
-7.28
-6.45
-5.42
-4.42
-3.63
-3.14
-2.92
-2.87
-2.86
-2.78
-2.58
-2.24
-1.77
-1.19
-0.57
0.02
0.47
0.69
0.64
0.38
0.05
-0.16
-0.12
0.23
0.79
1.40
1.93
2.32
2.61
2.90
3.23
3.58
3.86
3.96
3.84
3.52
3.12
2.75
2.52
2.47
2.59
2.82
3.06
3.24
3.31
3.28
3.23
3.27
3.45
3.76
4.11
4.40
4.56
4.59
4.55
4.50
4.44
4.35
4.17
3.91
3.60
3.36
3.27
3.36
3.59
3.83
3.96
3.89
3.61
3.18
2.73
2.40
2.30
2.46
2.82
3.23
3.54
3.59
3.34
2.84
2.24
1.70
1.34
1.19
1.18
1.18
1.12
1.00
0.89
0.89
1.02
1.25
1.46
1.53
1.41
1.16
0.88
0.70
0.66
0.73
0.84
0.92
0.97
1.05
1.22
1.47
1.76
1.97
2.03
1.92
1.70
1.48
1.37
1.40
1.53
1.71
1.86
1.95
1.97
1.93
1.85
1.76
1.69
1.66
1.66
1.69
1.68
1.60
1.42
1.14
0.80
0.46
0.20
0.08
0.10
0.23
0.39
0.48
0.44
0.26
0.01
-0.26
-0.46
-0.56
-0.54
-0.39
-0.15
0.13
0.37
0.50
0.47
0.30
0.08
-0.08
-0.11
0.02
0.24
0.48
0.69
0.84
0.93
0.96
0.92
0.81
0.65
0.47
0.31
0.20
0.14
0.12
0.15
0.20
0.26
0.30
0.29
0.20
0.03
-0.17
-0.38
-0.60
-0.85
-1.12
-1.38
-1.53
-1.44
-1.06
-0.44
0.25
0.79
1.03
0.94
0.62
0.21
-0.12
-0.30
-0.31
-0.19
0.01
0.22
0.39
0.48
0.50
0.45
0.41
0.42
0.53
0.70
0.85
0.91
0.82
0.58
0.27
-0.02
-0.19
-0.17
0.04
0.38
0.77
1.13
1.41
1.61
1.71
1.74
1.72
1.66
1.61
1.61
1.71
1.92
2.19
2.44
2.61
2.66
2.60
2.50
2.40
2.33
2.26
2.15
1.94
1.59
1.15
0.67
0.27
0.05
0.08
0.35
0.77
1.17
1.40
1.33
0.93
0.30
-0.40
-1.00
-1.37
-1.53
-1.56
-1.55
-1.57
-1.57
-1.50
-1.31
-0.99
-0.61
-0.27
-0.01
0.15
0.23
0.27
0.29
0.29
0.28
0.25
0.21
0.14
0.04
-0.11
-0.27
-0.38
-0.36
-0.18
0.14
0.50
0.77
0.87
0.81
0.65
0.50
0.43
0.46
0.55
0.60
0.56
0.41
0.20
0.03
-0.06
-0.07
-0.06
-0.08
-0.14
-0.22
-0.25
-0.19
-0.05
0.09
0.13
0.01
-0.30
-0.72
-1.13
-1.38
-1.37
-1.05
-0.48
0.18
0.71
0.96
0.86
0.51
0.09
-0.22
-0.36
-0.34
-0.25
-0.19
-0.18
-0.21
-0.25
-0.30
-0.41
-0.62
-0.95
-1.38
-1.85
-2.30
-2.69
-2.93
-3.00
-2.89
-2.67
-2.46
-2.40
-2.56
-2.90
-3.27
-3.52
-3.54
-3.38
-3.20
-3.25
-3.70
-4.62
-5.89
-7.22
-8.27
-8.82
-8.86
-8.72
-9.00
-10.28
-12.85
-16.54
-20.68
-24.42
-27.11
-28.67
-29.72
-31.26
-34.22
-38.94
-44.88
-50.77
-55.08
-56.82
-56.00
-53.76
-51.85
-51.83
-54.36
-59.05
-64.88
-70.82
-76.18
-80.41
-82.68
-81.79
-76.62
-67.06
-54.46
-41.04
-28.41
-16.04
-1.08
20.16
49.77
86.30
124.77
158.90
183.98
198.92
205.96
208.59
208.87
206.10
197.41
179.78
152.52
118.31
82.60
51.49
29.55
18.24
15.61
17.43
18.87
16.35
8.64
-3.06
-16.06
-27.55
-35.81
-40.70
-43.26
-44.74
-45.72
-45.94
-44.57
-41.04
-35.78
-30.13
-25.75
-23.80
-24.24
-25.94
-27.32
-27.07
-24.71
-20.77
-16.37
-12.66
-10.37
-9.58
-9.81
-10.28
-10.25
-9.26
-7.25
-4.47
-1.41
1.45
3.70
5.16
5.91
6.26
6.69
7.69
9.58
12.37
15.67
18.77
20.91
21.55
20.79
19.38
18.60
19.69
23.36
29.28
36.21
42.47
46.65
48.30
48.00
47.08
47.02
48.99
53.68
61.20
70.76
80.14
85.70
83.07
68.95
42.99
8.69
-27.44
-58.34
-79.16
-88.91
-90.07
-86.66
-81.95
-77.26
-72.29
-66.33
-59.47
-52.81
-47.81
-45.24
-44.74
-45.01
-44.49
-42.27
-38.43
-34.03
-30.53
-29.11
-30.15
-33.04
-36.48
-39.08
-39.96
-39.13
-37.47
-36.25
-36.61
-39.05
-43.27
-48.33
-53.09
-56.62
-58.60
-59.45
-60.14
-61.93
-65.88
-72.43
-81.16
-90.83
-99.73
-106.29
-109.76
-110.45
-109.82
-110.00
-113.19
-120.98
-133.58
-149.49
-165.48
-177.10
-179.79
-170.14
-147.00
-111.82
-68.13
-20.45
26.96
70.72
108.44
138.45
159.50
170.97
173.19
167.74
157.19
144.39
131.69
120.47
111.14
103.52
97.32
92.33
88.44
85.50
83.19
81.09
78.79
75.92
72.33
67.97
63.02
57.79
52.72
48.28
44.79
42.35
40.76
39.64
38.60
37.33
35.70
33.77
31.78
30.05
28.86
28.35
28.45
28.85
29.14
29.02
28.42
27.62
27.21
27.84
29.97
33.69
38.62
44.04
49.17
53.43
56.71
59.37
62.18
66.06
71.71
79.44
89.06
100.09
111.90
124.03
136.26
148.51
160.74
172.86
184.78
196.44
207.63
217.61
224.80
226.85
221.15
205.83
180.47
146.30
105.51
60.29
12.16
-37.78
-88.00
-135.77
-177.18
-208.26
-226.54
-232.26
-228.20
-218.50
-206.90
-195.50
-184.66
-173.67
-161.95
-149.64
-137.61
-126.86
-117.87
-110.37
-103.54
-96.53
-88.91
-80.82
-72.86
-65.70
-59.73
-54.86
-50.64
-46.53
-42.15
-37.46
-32.79
-28.55
-25.09
-22.46
-20.42
-18.59
-16.57
-14.18
-11.47
-8.74
-6.39
-4.68
-3.66
-3.08
-2.58
-1.82
-0.69
0.69
2.00
2.96
3.46
3.57
3.50
3.40
3.33
3.26
3.18
3.13
3.21
3.51
4.01
4.56
4.96
5.05
4.80
4.30
3.72
3.17
2.72
2.31
1.88
1.41
0.92
0.48
0.13
-0.14
-0.37
-0.58
-0.78
-0.90
-0.87
-0.70
-0.40
-0.10
0.15
0.30
0.41
0.51
0.62
0.72
0.73
0.61
0.35
-0.01
-0.44
-0.94
-1.55
-2.23
-2.94
-3.57
-4.02
-4.25
-4.31
-4.29
-4.23
-4.05
-3.62
-2.81
-1.63
-0.29
0.88
1.58
1.66
1.20
0.44
-0.35
-1.00
-1.45
-1.77
-2.01
-2.20
-2.26
-2.13
-1.78
-1.31
-0.87
-0.59
-0.55
-0.69
-0.91
-1.11
-1.24
-1.30
-1.33
-1.36
-1.38
-1.32
-1.15
-0.85
-0.51
-0.22
-0.06
-0.05
-0.13
-0.18
-0.10
0.16
0.58
1.05
1.44
1.62
1.55
1.26
0.82
0.35
-0.12
-0.58
-1.00
-1.37
-1.61
-1.65
-1.47
-1.12
-0.74
-0.46
-0.37
-0.44
-0.60
-0.76
-0.87
-0.93
-0.94
-0.90
-0.79
-0.58
-0.31
-0.04
0.16
0.21
0.13
-0.06
-0.26
-0.36
-0.30
-0.02
0.42
0.91
1.26
1.28
0.88
0.08
-0.94
-1.92
-2.62
-2.89
-2.77
-2.37
-1.86
-1.33
-0.82
-0.31
0.18
0.60
0.86
0.87
0.64
0.26
-0.09
-0.26
-0.17
0.13
0.50
0.81
0.93
0.85
0.61
0.32
0.05
-0.13
-0.23
-0.30
-0.40
-0.61
-0.95
-1.39
-1.83
-2.15
-2.27
-2.20
-2.04
-1.92
-1.97
-2.21
-2.58
-3.01
-3.42
-3.78
-4.07
-4.26
-4.32
-4.25
-4.08
-3.91
-3.88
-4.08
-4.51
-5.08
-5.67
-6.20
-6.72
-7.31
-8.10
-9.08
-10.06
-10.64
-10.37
-8.85
-5.99
-2.02
2.52
6.97
10.73
13.45
15.01
15.59
15.45
14.88
14.02
12.87
11.26
8.98
5.90
2.10
-2.08
-6.12
-9.51
-11.93
-13.46
-14.51
-15.64
-17.32
-19.62
-22.19
-24.44
-25.78
-26.07
-25.75
-25.70
-26.85
-29.68
-33.87
-38.35
-41.85
-43.44
-43.10
-41.72
-40.48
-40.22
-40.99
-42.17
-43.11
-43.49
-43.01
-40.68
-34.17
-20.23
3.81
38.16
79.55
122.06
159.54
188.09
207.17
218.51
223.56
221.46
209.06
183.20
143.65
94.81
44.71
1.88
-28.12
-44.51
-50.74
-51.93
-52.11
-52.79
-53.26
-52.09
-48.73
-44.04
-39.79
-37.56
-37.85
-39.77
-41.66
-41.95
-39.90
-35.92
-31.26
-27.39
-25.32
-25.13
-26.07
-26.89
-26.49
-24.39
-20.94
-17.03
-13.69
-11.57
-10.76
-10.85
-11.17
-11.20
-10.70
-9.77
-8.65
-7.58
-6.65
-5.84
-5.02
-4.10
-3.05
-1.91
-0.81
0.09
0.66
0.83
0.69
0.42
0.24
0.30
0.62
1.10
1.53
1.76
1.71
1.44
1.07
0.75
0.56
0.53
0.60
0.75
0.91
1.07
1.20
1.27
1.22
1.04
0.70
0.24
-0.29
-0.85
-1.38
-1.82
-2.08
-2.09
-1.78
-1.21
-0.50
0.16
0.59
0.68
0.43
-0.06
-0.64
-1.18
-1.62
-1.91
-2.08
-2.17
-2.18
-2.11
-1.94
-1.67
-1.33
-0.99
-0.76
-0.75
-0.95
-1.30
-1.64
-1.79
-1.63
-1.08
-0.17
1.05
2.47
3.89
5.06
5.69
5.57
4.66
3.13
1.32
-0.35
-1.58
-2.24
-2.38
-2.18
-1.86
-1.58
-1.40
-1.36
-1.41
-1.52
-1.60
-1.59
-1.45
-1.14
-0.73
-0.30
0.02
0.16
0.12
-0.05
-0.21
-0.22
0.02
0.56
1.36
2.32
3.30
4.16
4.79
5.10
5.02
4.57
3.80
2.80
1.71
0.68
-0.18
-0.82
-1.23
-1.47
-1.62
-1.73
-1.82
-1.89
-1.91
-1.84
-1.65
-1.31
-0.89
-0.45
-0.11
0.04
-0.03
-0.34
-0.81
-1.37
-1.91
-2.37
-2.71
-2.91
-3.00
-3.00
-2.96
-2.85
-2.64
-2.26
-1.66
-0.82
0.18
1.25
2.27
3.13
3.75
4.04
3.98
3.54
2.77
1.79
0.82
0.09
-0.16
0.14
0.89
1.84
2.66
3.10
3.07
2.64
1.97
1.29
0.72
0.35
0.16
0.13
0.21
0.37
0.53
0.62
0.57
0.34
-0.03
-0.45
-0.82
-1.06
-1.15
-1.14
-1.06
-0.94
-0.76
-0.49
-0.16
0.17
0.39
0.43
0.30
0.07
-0.14
-0.26
-0.28
-0.27
-0.29
-0.37
-0.47
-0.53
-0.49
-0.36
-0.20
-0.12
-0.17
-0.39
-0.72
-1.04
-1.26
-1.30
-1.21
-1.06
-0.98
-1.04
-1.24
-1.54
-1.85
-2.11
-2.25
-2.27
-2.16
-1.95
-1.70
-1.46
-1.32
-1.32
-1.46
-1.64
-1.70
-1.44
-0.74
0.36
1.66
2.85
3.60
3.75
3.34
2.58
1.76
1.14
0.87
0.96
1.33
1.85
2.37
2.76
2.88
2.66
2.12
1.31
0.41
-0.42
-1.01
-1.26
-1.16
-0.80
-0.33
0.08
0.33
0.41
0.40
0.42
0.55
0.80
1.09
1.32
1.44
1.46
1.46
1.55
1.78
2.14
2.55
2.90
3.07
2.99
2.62
1.98
1.15
0.20
-0.75
-1.55
-2.11
-2.38
-2.43
-2.38
-2.37
-2.47
-2.65
-2.81
-2.81
-2.57
-2.10
-1.48
-0.84
-0.25
0.20
0.46
0.52
0.37
0.04
-0.39
-0.81
-1.10
-1.19
-1.07
-0.84
-0.60
-0.46
-0.50
-0.70
-0.99
-1.26
-1.42
-1.42
-1.26
-0.95
-0.58
-0.23
-0.03
-0.06
-0.36
-0.88
-1.45
-1.92
-2.15
-2.09
-1.81
-1.40
-0.94
-0.47
-0.01
0.42
0.74
0.87
0.76
0.43
-0.00
-0.35
-0.46
-0.26
0.18
0.73
1.22
1.52
1.58
1.43
1.18
0.90
0.67
0.54
0.53
0.66
0.96
1.44
2.03
2.62
3.07
3.24
3.08
2.65
2.10
1.61
1.27
1.08
0.95
0.75
0.42
0.01
-0.38
-0.67
-0.85
-0.98
-1.17
-1.47
-1.82
-2.10
-2.18
-2.02
-1.67
-1.26
-0.91
-0.69
-0.55
-0.46
-0.40
-0.43
-0.59
-0.92
-1.35
-1.75
-2.00
-2.07
-2.00
-1.93
-1.95
-2.11
-2.36
-2.60
-2.72
-2.62
-2.24
-1.56
-0.63
0.41
1.37
2.03
2.23
1.98
1.43
0.80
0.32
0.11
0.14
0.29
0.41
0.40
0.24
-0.06
-0.46
-0.95
-1.55
-2.26
-3.05
-3.80
-4.38
-4.64
-4.45
-3.79
-2.74
-1.45
-0.07
1.23
2.37
3.34
4.18
4.94
5.58
6.00
6.02
5.53
4.49
3.06
1.46
-0.04
-1.27
-2.22
-3.02
-3.86
-4.88
-6.08
-7.29
-8.22
-8.55
-8.08
-6.70
-4.51
-1.67
1.57
4.96
8.23
11.11
13.35
14.78
15.34
15.05
14.05
12.48
10.52
8.34
6.14
4.14
2.49
1.29
0.50
-0.02
-0.41
-0.75
-1.00
-1.05
-0.81
-0.29
0.39
0.98
1.24
0.99
0.21
-0.99
-2.39
-3.71
-4.70
-5.18
-5.10
-4.54
-3.68
-2.77
-2.05
-1.66
-1.59
-1.75
-1.97
-2.11
-2.12
-2.02
-1.85
-1.66
-1.42
-1.08
-0.57
0.10
0.86
1.57
2.10
2.39
2.45
2.40
2.32
2.29
2.24
2.08
1.70
1.09
0.34
-0.37
-0.89
-1.14
-1.19
-1.13
-1.10
-1.15
-1.30
-1.54
-1.83
-2.16
-2.48
-2.71
-2.76
-2.59
-2.23
-1.79
-1.39
-1.09
-0.88
-0.71
-0.58
-0.52
-0.60
-0.84
-1.16
-1.46
-1.61
-1.56
-1.37
-1.14
-0.95
-0.84
-0.78
-0.71
-0.61
-0.47
-0.30
-0.09
0.18
0.49
0.81
1.11
1.35
1.55
1.73
1.89
1.95
1.80
1.32
0.53
-0.44
-1.35
-1.99
-2.21
-2.04
-1.58
-0.98
-0.39
0.13
0.52
0.80
0.95
0.99
0.89
0.67
0.34
-0.05
-0.44
-0.74
-0.90
-0.88
-0.67
-0.36
-0.05
0.12
0.06
-0.19
-0.53
-0.78
-0.79
-0.53
-0.04
0.56
1.16
1.70
2.13
2.42
2.46
2.19
1.60
0.78
-0.10
-0.81
-1.24
-1.36
-1.23
-0.94
-0.59
-0.23
0.09
0.32
0.39
0.27
-0.03
-0.45
-0.87
-1.19
-1.33
-1.33
-1.31
-1.43
-1.79
-2.37
-3.02
-3.52
-3.66
-3.34
-2.66
-1.81
-1.04
-0.53
-0.32
-0.34
-0.45
-0.53
-0.44
-0.09
0.60
1.64
2.93
4.23
5.23
5.63
5.27
4.21
2.68
1.00
-0.51
-1.68
-2.40
-2.69
-2.57
-2.10
-1.39
-0.59
0.10
0.47
0.40
-0.09
-0.83
-1.54
-1.95
-1.91
-1.45
-0.73
0.04
0.72
1.27
1.75
2.20
2.59
2.85
2.87
2.64
2.23
1.77
1.38
1.12
0.97
0.91
0.92
1.04
1.32
1.76
2.26
2.67
2.83
2.66
2.20
1.55
0.81
0.05
-0.68
-1.38
-1.97
-2.37
-2.51
-2.40
-2.10
-1.77
-1.51
-1.38
-1.37
-1.41
-1.44
-1.46
-1.51
-1.68
-2.03
-2.54
-3.14
-3.65
-3.89
-3.74
-3.18
-2.32
-1.34
-0.46
0.21
0.69
1.12
1.68
2.46
3.40
4.27
4.76
4.62
3.85
2.65
1.36
0.32
-0.27
-0.43
-0.28
0.00
0.33
0.68
1.01
1.27
1.36
1.19
0.76
0.16
-0.43
-0.88
-1.13
-1.19
-1.15
-1.04
-0.92
-0.79
-0.67
-0.57
-0.54
-0.60
-0.69
-0.73
-0.61
-0.26
0.28
0.92
1.50
1.93
2.17
2.22
2.11
1.88
1.51
1.05
0.54
0.05
-0.36
-0.67
-0.91
-1.12
-1.35
-1.57
-1.71
-1.68
-1.41
-0.94
-0.34
0.29
0.82
1.22
1.44
1.50
1.40
1.15
0.75
0.24
-0.32
-0.87
-1.36
-1.77
-2.12
-2.40
-2.59
-2.65
-2.56
-2.30
-1.92
-1.49
-1.05
-0.55
0.05
0.81
1.69
2.57
3.23
3.50
3.25
2.51
1.44
0.28
-0.71
-1.37
-1.63
-1.53
-1.17
-0.68
-0.16
0.27
0.53
0.55
0.33
-0.10
-0.63
-1.15
-1.52
-1.69
-1.62
-1.33
-0.85
-0.25
0.36
0.90
1.26
1.42
1.40
1.27
1.10
0.92
0.74
0.56
0.40
0.32
0.35
0.49
0.69
0.86
0.93
0.90
0.74
0.50
0.19
-0.16
-0.52
-0.82
-0.99
-0.97
-0.79
-0.51
-0.25
-0.04
0.14
0.37
0.73
1.22
1.71
2.04
2.07
1.77
1.21
0.57
-0.01
-0.45
-0.77
-1.03
-1.31
-1.62
-1.93
-2.18
-2.35
-2.46
-2.55
-2.65
-2.71
-2.64
-2.27
-1.51
-0.39
0.90
2.13
3.05
3.53
3.60
3.33
2.82
2.14
1.34
0.49
-0.30
-0.88
-1.13
-1.03
-0.66
-0.16
0.29
0.58
0.66
0.57
0.36
0.12
-0.06
-0.16
-0.15
-0.05
0.12
0.35
0.60
0.85
1.04
1.10
0.99
0.67
0.19
-0.40
-0.93
-1.24
-1.17
-0.67
0.19
1.17
1.98
2.36
2.21
1.59
0.73
-0.12
-0.75
-1.08
-1.13
-1.00
-0.79
-0.61
-0.52
-0.56
-0.74
-1.03
-1.32
-1.50
-1.44
-1.11
-0.55
0.11
0.69
1.04
1.11
0.92
0.57
0.13
-0.32
-0.75
-1.15
-1.47
-1.70
-1.82
-1.86
-1.83
-1.73
-1.51
-1.12
-0.52
0.23
1.04
1.73
2.16
2.24
1.97
1.38
0.60
-0.24
-0.97
-1.48
-1.72
-1.68
-1.44
-1.09
-0.70
-0.32
0.04
0.39
0.69
0.93
1.07
1.11
1.08
1.01
0.93
0.84
0.74
0.61
0.45
0.28
0.11
-0.02
-0.10
-0.12
-0.05
0.10
0.33
0.60
0.86
1.07
1.22
1.31
1.36
1.37
1.32
1.23
1.12
1.07
1.09
1.16
1.22
1.15
0.90
0.49
-0.02
-0.54
-1.00
-1.36
-1.59
-1.68
-1.63
-1.47
-1.29
-1.16
-1.18
-1.35
-1.58
-1.78
-1.88
-1.87
-1.82
-1.81
-1.88
-2.00
-2.11
-2.15
-2.07
-1.90
-1.69
-1.50
-1.37
-1.30
-1.26
-1.18
-1.00
-0.67
-0.19
0.41
1.03
1.57
1.96
2.14
2.13
1.97
1.77
1.63
1.58
1.59
1.57
1.41
1.05
0.54
0.02
-0.35
-0.46
-0.35
-0.12
0.06
0.10
-0.04
-0.27
-0.49
-0.59
-0.53
-0.32
-0.00
0.37
0.73
1.05
1.30
1.46
1.53
1.53
1.48
1.40
1.32
1.27
1.26
1.31
1.43
1.56
1.66
1.65
1.47
1.09
0.56
-0.04
-0.58
-0.98
-1.16
-1.12
-0.93
-0.72
-0.59
-0.62
-0.79
-1.03
-1.24
-1.35
-1.34
-1.27
-1.21
-1.20
-1.27
-1.41
-1.56
-1.68
-1.76
-1.76
-1.68
-1.50
-1.23
-0.94
-0.68
-0.55
-0.56
-0.68
-0.76
-0.65
-0.20
0.61
1.66
2.75
3.60
4.01
3.90
3.32
2.42
1.42
0.50
-0.22
-0.68
-0.90
-0.91
-0.77
-0.55
-0.30
-0.12
-0.08
-0.17
-0.34
-0.45
-0.38
-0.04
0.51
1.14
1.65
1.88
1.79
1.47
1.09
0.82
0.73
0.75
0.74
0.60
0.30
-0.05
-0.28
-0.28
-0.07
0.20
0.34
0.23
-0.08
-0.41
-0.54
-0.33
0.18
0.80
1.29
1.48
1.34
0.99
0.59
0.25
-0.04
-0.36
-0.81
-1.39
-2.00
-2.46
-2.60
-2.35
-1.76
-0.99
-0.24
0.29
0.51
0.43
0.14
-0.22
-0.53
-0.75
-0.89
-0.99
-1.10
-1.24
-1.40
-1.59
-1.78
-1.90
-1.86
-1.56
-1.03
-0.39
0.18
0.50
0.47
0.17
-0.25
-0.65
-0.92
-1.00
-0.83
-0.39
0.30
1.13
1.83
2.16
1.93
1.17
0.11
-0.93
-1.67
-2.00
-1.95
-1.64
-1.23
-0.82
-0.45
-0.13
0.13
0.35
0.51
0.59
0.58
0.52
0.45
0.45
0.57
0.82
1.14
1.42
1.58
1.54
1.33
1.01
0.72
0.55
0.57
0.76
1.01
1.22
1.32
1.35
1.40
1.59
1.93
2.30
2.53
2.44
2.00
1.32
0.59
-0.01
-0.38
-0.57
-0.62
-0.62
-0.58
-0.48
-0.33
-0.16
-0.08
-0.18
-0.49
-0.96
-1.47
-1.88
-2.13
-2.23
-2.29
-2.39
-2.59
-2.87
-3.15
-3.34
-3.35
-3.19
-2.86
-2.42
-1.92
-1.43
-1.01
-0.70
-0.48
-0.31
-0.06
0.33
0.89
1.58
2.27
2.83
3.12
3.06
2.67
2.05
1.34
0.72
0.30
0.09
0.04
0.04
0.03
0.04
0.10
0.24
0.41
0.51
0.43
0.17
-0.18
-0.46
-0.54
-0.42
-0.17
0.09
0.27
0.36
0.42
0.51
0.61
0.70
0.73
0.69
0.65
0.73
0.99
1.45
2.05
2.69
3.23
3.57
3.59
3.27
2.63
1.79
0.88
0.05
-0.63
-1.16
-1.59
-1.95
-2.23
-2.37
-2.30
-1.99
-1.50
-0.94
-0.41
0.03
0.36
0.59
0.71
0.68
0.42
-0.11
-0.84
-1.67
-2.40
-2.92
-3.18
-3.27
-3.30
-3.36
-3.45
-3.49
-3.40
-3.12
-2.63
-1.99
-1.26
-0.48
0.30
1.05
1.71
2.24
2.58
2.67
2.47
2.02
1.40
0.77
0.31
0.12
0.24
0.61
1.12
1.65
2.14
2.57
2.91
3.09
3.03
2.67
2.03
1.21
0.39
-0.23
-0.55
-0.55
-0.34
-0.04
0.23
0.41
0.48
0.47
0.43
0.34
0.22
0.09
0.00
0.05
0.29
0.75
1.37
2.05
2.64
3.02
3.07
2.77
2.16
1.34
0.47
-0.34
-1.02
-1.57
-2.04
-2.46
-2.81
-3.06
-3.14
-3.03
-2.76
-2.39
-2.01
-1.63
-1.28
-0.94
-0.63
-0.38
-0.27
-0.31
-0.48
-0.74
-1.01
-1.27
-1.49
-1.72
-1.95
-2.19
-2.37
-2.43
-2.29
-1.94
-1.41
-0.75
-0.01
0.80
1.65
2.51
3.25
3.71
3.75
3.30
2.43
1.32
0.21
-0.67
-1.16
-1.20
-0.85
-0.26
0.42
1.01
1.40
1.54
1.46
1.23
0.93
0.64
0.39
0.20
0.07
0.01
0.03
0.15
0.37
0.67
0.99
1.24
1.33
1.16
0.73
0.12
-0.53
-1.04
-1.30
-1.26
-0.98
-0.53
-0.03
0.44
0.79
0.97
0.93
0.70
0.32
-0.09
-0.43
-0.64
-0.74
-0.77
-0.79
-0.81
-0.84
-0.84
-0.76
-0.58
-0.33
-0.08
0.06
0.02
-0.23
-0.63
-1.06
-1.39
-1.58
-1.68
-1.80
-1.98
-2.21
-2.35
-2.27
-1.95
-1.44
-0.91
-0.49
-0.24
-0.12
-0.06
-0.00
0.04
0.05
0.02
-0.00
0.03
0.14
0.30
0.42
0.41
0.26
0.03
-0.13
-0.12
0.13
0.56
1.06
1.50
1.82
2.02
2.14
2.25
2.34
2.34
2.20
1.87
1.41
0.95
0.62
0.53
0.67
0.95
1.24
1.44
1.47
1.33
1.09
0.85
0.66
0.54
0.48
0.42
0.36
0.33
0.40
0.65
1.03
1.47
1.82
1.97
1.87
1.57
1.17
0.71
0.24
-0.25
-0.76
-1.24
-1.62
-1.84
-1.84
-1.64
-1.33
-1.03
-0.85
-0.83
-0.91
-1.00
-0.99
-0.85
-0.65
-0.55
-0.65
-0.98
-1.40
-1.72
-1.79
-1.55
-1.13
-0.69
-0.41
-0.36
-0.50
-0.73
-0.94
-1.05
-1.03
-0.88
-0.62
-0.28
0.07
0.35
0.49
0.45
0.26
-0.01
-0.30
-0.56
-0.76
-0.94
-1.10
-1.19
-1.15
-0.88
-0.36
0.36
1.13
1.78
2.19
2.31
2.20
1.98
1.76
1.58
1.44
1.29
1.09
0.87
0.67
0.56
0.54
0.56
0.54
0.42
0.21
0.00
-0.09
0.01
0.27
0.55
0.70
0.60
0.30
-0.08
-0.39
-0.59
-0.74
-0.96
-1.32
-1.75
-2.07
-2.06
-1.62
-0.83
0.06
0.76
1.09
1.02
0.71
0.36
0.09
-0.06
-0.17
-0.32
-0.54
-0.77
-0.91
-0.84
-0.57
-0.17
0.23
0.50
0.60
0.58
0.55
0.58
0.69
0.85
0.97
1.02
1.02
1.01
1.01
0.98
0.81
0.41
-0.21
-0.91
-1.49
-1.76
-1.64
-1.22
-0.67
-0.20
0.06
0.09
-0.06
-0.28
-0.52
-0.75
-0.98
-1.22
-1.43
-1.54
-1.50
-1.34
-1.17
-1.15
-1.39
-1.89
-2.46
-2.87
-2.90
-2.50
-1.77
-0.95
-0.23
0.29
0.63
0.89
1.17
1.52
1.94
2.40
2.84
3.22
3.47
3.54
3.37
2.94
2.25
1.37
0.44
-0.41
-1.02
-1.33
-1.31
-1.03
-0.58
-0.08
0.36
0.62
0.66
0.47
0.11
-0.35
-0.84
-1.30
-1.73
-2.14
-2.51
-2.81
-3.01
-3.10
-3.10
-3.05
-2.96
-2.79
-2.45
-1.85
-0.99
0.09
1.24
2.29
3.08
3.50
3.49
3.13
2.57
2.04
1.73
1.73
1.99
2.36
2.67
2.80
2.75
2.60
2.43
2.27
2.09
1.82
1.45
0.99
0.48
-0.01
-0.48
-0.93
-1.37
-1.80
-2.16
-2.41
-2.48
-2.37
-2.08
-1.68
-1.25
-0.88
-0.61
-0.44
-0.33
-0.25
-0.18
-0.09
0.00
0.14
0.36
0.66
0.99
1.20
1.13
0.69
-0.09
-1.01
-1.82
-2.30
-2.39
-2.16
-1.76
-1.37
-1.05
-0.84
-0.70
-0.60
-0.53
-0.54
-0.66
-0.88
-1.15
-1.35
-1.37
-1.10
-0.55
0.16
0.84
1.29
1.45
1.35
1.16
1.04
1.06
1.19
1.32
1.33
1.19
0.92
0.64
0.45
0.41
0.52
0.71
0.86
0.87
0.70
0.38
0.02
-0.27
-0.41
-0.38
-0.25
-0.11
0.01
0.06
0.06
-0.01
-0.14
-0.31
-0.47
-0.52
-0.42
-0.15
0.18
0.44
0.53
0.43
0.27
0.19
0.31
0.60
0.91
1.05
0.91
0.56
0.18
-0.02
0.12
0.54
1.02
1.24
0.95
0.13
-0.94
-1.77
-1.86
-0.97
0.64
2.26
2.96
2.12
-0.26
-3.38
-6.00
-6.99
-5.94
-3.51
-1.14
-0.45
-2.37
-6.63
-11.76
-15.69
-16.80
-14.63
-10.24
-5.57
-2.64
-2.73
-6.17
-12.62
-21.36
-31.00
-38.78
-40.59
-32.24
-11.97
17.39
48.36
71.43
79.41
70.97
51.16
28.61
11.02
1.68
-1.00
-1.16
-2.18
-4.64
-6.73
-6.28
-2.71
2.43
6.47
7.34
4.74
0.15
-4.02
-5.82
-4.69
-1.66
1.36
2.58
1.17
-2.34
-6.43
-9.38
-10.11
-8.57
-5.66
-2.69
-0.79
-0.43
-1.42
-3.03
-4.43
-4.99
-4.55
-3.33
-1.84
-0.62
0.00
-0.00
-0.35
-0.68
-0.71
-0.37
0.19
0.76
1.16
1.33
1.29
1.10
0.80
0.44
0.08
-0.14
-0.13
0.16
0.62
1.08
1.34
1.35
1.17
0.96
0.87
0.94
1.12
1.29
1.34
1.24
1.05
0.85
0.69
0.54
0.35
0.08
-0.28
-0.63
-0.84
-0.77
-0.41
0.17
0.76
1.10
1.05
0.57
-0.17
-0.92
-1.44
-1.60
-1.41
-0.96
-0.41
0.13
0.57
0.84
0.90
0.72
0.37
-0.01
-0.25
-0.25
-0.01
0.35
0.67
0.84
0.84
0.71
0.51
0.24
-0.15
-0.71
-1.44
-2.29
-3.14
-3.90
-4.49
-4.87
-5.05
-5.08
-5.03
-4.98
-5.04
-5.28
-5.73
-6.37
-7.18
-8.10
-9.05
-9.92
-10.66
-11.25
-11.79
-12.50
-13.63
-15.30
-17.47
-19.87
-22.12
-23.95
-25.34
-26.58
-28.21
-30.69
-34.25
-38.68
-43.47
-48.03
-52.05
-55.61
-59.15
-63.20
-68.08
-73.73
-79.79
-85.80
-91.48
-96.88
-102.35
-108.38
-115.46
-124.00
-134.33
-146.68
-160.95
-176.39
-191.12
-202.26
-206.39
-200.59
-183.37
-155.18
-117.95
-74.11
-25.63
26.15
79.94
133.46
183.09
224.51
254.31
271.50
278.14
278.37
276.62
275.84
276.67
277.98
278.18
276.51
273.55
270.78
269.67
270.84
273.99
278.18
282.49
286.13
288.38
287.99
283.11
271.51
251.35
221.98
184.23
139.90
90.89
38.67
-15.68
-70.54
-123.03
-169.03
-204.30
-226.14
-234.57
-232.41
-224.01
-213.43
-203.13
-193.71
-184.65
-175.44
-166.34
-158.23
-152.03
-147.93
-145.24
-142.70
-139.25
-134.54
-129.03
-123.78
-119.82
-117.64
-117.03
-117.23
-117.33
-116.65
-115.03
-112.79
-110.58
-109.23
-109.54
-111.98
-116.28
-121.05
-123.66
-120.63
-108.58
-85.21
-49.86
-3.64
51.09
111.20
173.19
233.29
287.68
332.85
366.19
386.33
393.24
387.74
371.06
344.47
309.23
266.66
218.13
165.00
108.86
51.89
-2.82
-51.30
-89.58
-115.02
-127.41
-129.16
-124.38
-117.23
-110.53
-105.31
-101.22
-97.58
-93.99
-90.58
-87.61
-85.09
-82.63
-79.65
-75.73
-70.90
-65.61
-60.60
-56.47
-53.46
-51.33
-49.48
-47.22
-44.05
-39.91
-35.10
-30.22
-25.84
-22.30
-19.61
-17.50
-15.61
-13.67
-11.58
-9.47
-7.58
-6.12
-5.20
-4.75
-4.56
-4.44
-4.21
-3.84
-3.40
-3.02
-2.83
-2.87
-3.08
-3.35
-3.47
-3.29
-2.70
-1.70
-0.39
1.06
2.50
3.78
4.86
5.70
6.27
6.49
6.25
5.50
4.28
2.77
1.22
-0.10
-1.03
-1.54
-1.65
-1.47
-1.12
-0.68
-0.27
0.04
0.20
0.21
0.14
0.09
0.14
0.33
0.60
0.86
1.04
1.08
1.02
0.87
0.69
0.50
0.29
0.11
-0.06
-0.18
-0.27
-0.29
-0.22
-0.01
0.34
0.79
1.27
1.64
1.84
1.84
1.71
1.55
1.46
1.43
1.45
1.43
1.32
1.14
0.90
0.66
0.43
0.25
0.14
0.10
0.14
0.18
0.17
0.04
-0.23
-0.66
-1.25
-2.02
-2.96
-4.02
-5.10
-5.99
-6.53
-6.65
-6.43
-6.04
-5.66
-5.40
-5.22
-5.00
-4.58
-3.87
-2.86
