1660929194.00
64.000000
-0.00
-0.00
-0.00
-0.00
-0.00
-0.00
-0.00
-0.00
-0.00
-0.00
0.00
0.01
0.01
-0.00
-0.03
-0.05
-0.05
0.00
0.13
0.36
0.66
1.01
1.37
1.72
2.06
2.40
2.79
3.25
3.81
4.44
5.10
5.74
6.33
6.89
7.50
8.23
9.13
10.29
11.59
12.91
14.10
15.11
16.03
17.03
18.37
20.19
22.72
25.74
28.93
32.00
34.77
37.38
40.17
43.64
48.12
53.97
60.76
67.93
74.85
81.20
87.15
93.33
100.56
109.40
120.30
132.60
145.32
157.45
168.50
178.71
189.02
201.05
213.57
228.69
246.65
267.13
288.67
308.40
322.38
326.52
317.94
295.93
262.62
221.24
175.42
127.93
80.33
33.34
-12.47
-56.22
-96.98
-133.91
-167.43
-198.74
-229.61
-261.65
-295.61
-330.85
-364.96
-394.33
-414.78
-423.17
-418.51
-402.40
-378.41
-350.70
-322.56
-295.68
-270.25
-245.71
-221.85
-199.07
-178.20
-159.80
-143.78
-129.33
-115.41
-101.26
-86.76
-72.49
-59.36
-48.11
-38.99
-31.66
-25.36
-19.27
-12.89
-6.19
0.41
6.30
11.00
14.39
16.69
18.36
19.86
21.41
22.99
24.37
25.31
25.68
25.55
25.15
24.76
24.58
24.68
24.92
25.11
25.05
24.63
23.91
23.04
22.19
21.46
20.85
20.32
19.76
19.13
18.43
17.70
16.99
16.30
15.64
15.00
14.39
13.84
13.39
13.06
12.82
12.65
12.42
12.08
11.54
10.84
10.02
9.21
8.52
7.99
7.64
7.39
7.16
6.90
6.58
6.21
5.80
5.39
5.07
4.99
5.31
6.18
7.57
9.28
10.99
12.33
13.10
13.23
12.85
12.12
11.19
10.14
9.01
7.82
6.66
5.58
4.68
3.99
3.55
3.35
3.36
3.51
3.67
3.74
3.63
3.27
2.69
1.92
0.99
-0.06
-1.20
-2.35
-3.46
-4.48
-5.41
-6.25
-7.06
-7.87
-8.70
-9.53
-10.32
-10.99
-11.48
-11.73
-11.73
-11.52
-11.19
-10.84
-10.55
-10.30
-10.02
-9.63
-9.07
-8.37
-7.60
-6.81
-6.08
-5.40
-4.77
-4.16
-3.52
-2.84
-2.10
-1.33
-0.55
0.20
0.90
1.57
2.22
2.83
3.33
3.67
3.81
3.81
3.74
3.74
3.84
4.02
4.21
4.32
4.34
4.29
4.22
4.16
4.10
4.03
3.91
3.76
3.60
3.45
3.35
3.33
3.41
3.61
3.91
4.25
4.55
4.72
4.74
4.61
4.42
4.25
4.18
4.24
4.40
4.58
4.73
4.76
4.66
4.46
4.24
4.09
4.05
4.13
4.29
4.44
4.48
4.36
4.04
3.55
2.99
2.46
2.09
1.91
1.89
1.92
1.87
1.65
1.27
0.83
0.47
0.33
0.45
0.78
1.21
1.62
1.88
1.95
1.83
1.61
1.39
1.30
1.40
1.66
1.99
2.24
2.33
2.26
2.12
2.02
2.04
2.12
2.16
2.05
1.79
1.45
1.16
1.02
1.08
1.28
1.58
1.94
2.31
2.62
2.78
2.68
2.31
1.73
1.12
0.67
0.49
0.58
0.84
1.10
1.27
1.29
1.17
0.98
0.75
0.56
0.44
0.42
0.50
0.66
0.86
1.04
1.20
1.31
1.38
1.40
1.35
1.21
1.00
0.78
0.64
0.63
0.74
0.89
0.95
0.82
0.49
0.04
-0.41
-0.73
-0.85
-0.82
-0.72
-0.63
-0.58
-0.56
-0.49
-0.35
-0.14
0.10
0.29
0.40
0.44
0.45
0.51
0.66
0.90
1.16
1.38
1.51
1.55
1.57
1.63
1.77
1.95
2.12
2.19
2.11
1.89
1.59
1.29
1.02
0.82
0.68
0.61
0.58
0.58
0.55
0.47
0.35
0.26
0.27
0.42
0.63
0.78
0.73
0.48
0.10
-0.21
-0.34
-0.22
0.07
0.41
0.70
0.89
1.00
1.04
1.04
0.97
0.83
0.64
0.47
0.38
0.41
0.55
0.73
0.87
0.92
0.87
0.77
0.68
0.61
0.52
0.38
0.17
-0.08
-0.23
-0.16
0.17
0.67
1.16
1.43
1.38
1.02
0.53
0.11
-0.10
-0.08
0.08
0.26
0.39
0.46
0.49
0.49
0.41
0.17
-0.24
-0.73
-1.15
-1.33
-1.22
-0.85
-0.37
0.06
0.36
0.52
0.57
0.56
0.50
0.40
0.30
0.25
0.32
0.54
0.85
1.12
1.22
1.04
0.64
0.16
-0.21
-0.31
-0.10
0.34
0.86
1.26
1.43
1.29
0.89
0.33
-0.24
-0.68
-0.92
-0.93
-0.75
-0.49
-0.22
-0.02
0.07
0.08
0.04
-0.04
-0.15
-0.29
-0.47
-0.63
-0.71
-0.66
-0.45
-0.14
0.20
0.48
0.65
0.70
0.67
0.60
0.51
0.41
0.26
0.07
-0.11
-0.24
-0.24
-0.13
0.03
0.13
0.09
-0.12
-0.40
-0.65
-0.73
-0.61
-0.35
-0.04
0.23
0.39
0.46
0.48
0.49
0.53
0.59
0.67
0.74
0.78
0.80
0.80
0.79
0.76
0.68
0.51
0.21
-0.21
-0.66
-1.03
-1.21
-1.15
-0.90
-0.55
-0.20
0.09
0.30
0.45
0.59
0.73
0.91
1.11
1.29
1.40
1.38
1.19
0.87
0.49
0.18
0.02
0.05
0.20
0.39
0.51
0.53
0.49
0.44
0.46
0.56
0.74
0.94
1.08
1.08
0.91
0.60
0.24
-0.04
-0.12
0.02
0.32
0.62
0.76
0.67
0.40
0.09
-0.09
-0.04
0.17
0.37
0.36
0.08
-0.42
-0.92
-1.24
-1.27
-1.06
-0.80
-0.65
-0.69
-0.85
-1.00
-1.02
-0.89
-0.68
-0.49
-0.37
-0.28
-0.15
0.10
0.47
0.87
1.16
1.24
1.12
0.87
0.61
0.41
0.28
0.18
0.04
-0.15
-0.35
-0.51
-0.62
-0.69
-0.78
-0.93
-1.12
-1.27
-1.30
-1.15
-0.84
-0.47
-0.20
-0.13
-0.31
-0.68
-1.10
-1.44
-1.64
-1.69
-1.66
-1.63
-1.65
-1.69
-1.70
-1.58
-1.32
-0.95
-0.59
-0.36
-0.34
-0.53
-0.86
-1.21
-1.51
-1.72
-1.91
-2.12
-2.41
-2.77
-3.12
-3.37
-3.50
-3.53
-3.57
-3.71
-4.03
-4.49
-5.03
-5.52
-5.85
-5.97
-5.88
-5.65
-5.34
-5.02
-4.71
-4.37
-3.90
-3.18
-2.17
-0.90
0.50
1.87
3.05
3.94
4.55
4.91
5.10
5.17
5.20
5.24
5.32
5.46
5.55
5.45
4.95
3.91
2.39
0.71
-0.56
-0.83
0.30
2.75
5.97
9.09
11.29
12.13
11.63
10.21
8.44
6.75
5.30
4.08
2.99
1.98
1.08
0.34
-0.28
-0.93
-1.86
-3.28
-5.28
-7.75
-10.49
-13.28
-16.00
-18.69
-21.44
-24.31
-27.27
-30.26
-33.25
-36.39
-39.86
-43.87
-48.42
-53.29
-58.16
-62.78
-67.21
-71.79
-76.96
-83.00
-89.84
-97.04
-103.97
-110.14
-115.42
-120.12
-124.87
-130.36
-137.17
-145.63
-155.67
-166.71
-177.41
-185.56
-188.32
-182.83
-167.16
-141.00
-105.90
-64.75
-20.88
22.83
64.36
102.36
135.66
162.98
182.98
194.83
198.66
195.73
188.10
177.96
167.01
156.16
145.67
135.48
125.56
116.05
107.18
99.10
91.75
84.85
78.00
70.92
63.54
56.08
48.93
42.47
36.89
32.14
27.91
23.83
19.57
14.97
10.17
5.51
1.48
-1.42
-2.94
-3.12
-2.33
-1.13
-0.01
0.74
1.16
1.46
1.84
2.38
3.00
3.51
3.82
3.90
3.82
3.66
3.44
3.09
2.55
1.74
0.66
-0.62
-1.99
-3.30
-4.43
-5.23
-5.52
-5.02
-3.40
-0.42
3.92
9.18
14.57
19.15
22.18
23.40
23.05
21.73
20.06
18.48
17.13
15.97
14.92
13.97
13.15
12.50
11.93
11.29
10.41
9.18
7.66
6.07
4.68
3.72
3.26
3.16
3.17
3.02
2.55
1.78
0.88
0.08
-0.46
-0.74
-0.87
-1.04
-1.40
-1.94
-2.57
-3.10
-3.38
-3.31
-2.89
-2.13
-1.05
0.41
2.29
4.59
7.22
10.00
12.68
15.04
16.99
18.64
20.31
22.47
25.56
29.83
35.28
41.62
48.54
55.84
63.61
72.17
81.87
92.85
104.85
117.24
129.10
139.51
147.67
153.09
155.74
156.18
155.63
155.79
158.23
163.53
170.55
176.34
176.78
167.82
146.76
113.17
69.16
19.02
-31.49
-76.26
-110.08
-129.82
-135.23
-128.97
-115.63
-100.10
-85.97
-74.72
-66.03
-58.74
-51.98
-45.47
-39.21
-33.09
-26.98
-21.41
-18.20
-20.24
-30.20
-48.87
-73.88
-100.20
-121.93
-134.74
-137.46
-132.09
-122.37
-111.82
-102.41
-94.42
-87.22
-80.23
-73.48
-67.42
-62.39
-58.35
-54.77
-51.00
-46.57
-41.50
-36.27
-31.58
-27.97
-25.62
-24.21
-23.18
-21.96
-20.23
-18.02
-15.64
-13.46
-11.71
-10.46
-9.54
-8.76
-7.91
-6.95
-5.91
-4.92
-4.12
-3.57
-3.24
-3.03
-2.75
-2.28
-1.61
-0.83
-0.13
0.37
0.63
0.73
0.83
1.06
1.48
2.08
2.75
3.43
4.05
4.58
4.98
5.17
5.08
4.63
3.79
2.62
1.22
-0.26
-1.65
-2.81
-3.64
-4.13
-4.36
-4.43
-4.45
-4.42
-4.31
-4.04
-3.62
-3.12
-2.67
-2.36
-2.16
-1.90
-1.44
-0.72
0.14
0.82
1.01
0.53
-0.57
-2.02
-3.47
-4.58
-5.20
-5.32
-5.04
-4.50
-3.83
-3.12
-2.44
-1.87
-1.49
-1.33
-1.39
-1.57
-1.76
-1.84
-1.74
-1.45
-1.05
-0.62
-0.25
0.01
0.13
0.13
0.05
-0.04
-0.05
0.08
0.38
0.82
1.31
1.75
2.05
2.22
2.32
2.45
2.63
2.86
2.99
2.90
2.51
1.79
0.84
-0.16
-1.05
-1.65
-1.90
-1.84
-1.59
-1.31
-1.12
-1.02
-0.97
-0.86
-0.64
-0.35
-0.08
0.07
0.06
-0.10
-0.39
-0.77
-1.24
-1.79
-2.39
-2.97
-3.47
-3.88
-4.18
-4.37
-4.34
-3.94
-2.98
-1.37
0.77
3.16
5.37
6.97
7.66
7.31
6.00
4.00
1.67
-0.57
-2.39
-3.56
-4.04
-3.93
-3.40
-2.66
-1.87
-1.17
-0.61
-0.27
-0.16
-0.23
-0.39
-0.49
-0.42
-0.12
0.33
0.81
1.19
1.42
1.51
1.58
1.68
1.82
1.92
1.84
1.51
0.98
0.48
0.34
0.82
2.02
3.74
5.58
7.08
7.88
7.84
7.03
5.67
4.03
2.34
0.77
-0.55
-1.49
-1.99
-2.06
-1.79
-1.35
-0.91
-0.62
-0.54
-0.66
-0.98
-1.49
-2.17
-2.99
-3.86
-4.66
-5.25
-5.55
-5.52
-5.22
-4.70
-4.05
-3.34
-2.63
-1.97
-1.39
-0.86
-0.32
0.32
1.12
2.03
2.94
3.64
3.92
3.64
2.83
1.65
0.41
-0.58
-1.06
-0.97
-0.40
0.39
1.15
1.68
1.95
2.00
1.95
1.89
1.82
1.70
1.47
1.14
0.79
0.52
0.43
0.55
0.80
1.05
1.19
1.20
1.10
0.99
0.92
0.94
1.03
1.18
1.37
1.60
1.83
2.03
2.15
2.13
1.93
1.52
0.86
-0.01
-1.02
-2.05
-2.95
-3.58
-3.87
-3.83
-3.55
-3.17
-2.80
-2.52
-2.37
-2.30
-2.28
-2.28
-2.27
-2.27
-2.31
-2.44
-2.67
-3.03
-3.44
-3.84
-4.10
-4.13
-3.89
-3.39
-2.72
-2.00
-1.34
-0.76
-0.26
0.22
0.74
1.34
2.00
2.66
3.26
3.71
3.90
3.74
3.17
2.21
0.99
-0.22
-1.14
-1.53
-1.28
-0.48
0.63
1.73
2.52
2.86
2.71
2.19
1.50
0.87
0.47
0.40
0.64
1.09
1.58
1.97
2.16
2.12
1.92
1.65
1.42
1.30
1.35
1.54
1.83
2.12
2.31
2.33
2.16
1.87
1.54
1.23
0.90
0.47
-0.20
-1.12
-2.24
-3.37
-4.28
-4.82
-4.91
-4.59
-3.92
-3.03
-2.04
-1.11
-0.39
0.01
0.06
-0.19
-0.60
-1.06
-1.47
-1.79
-2.00
-2.08
-2.00
-1.75
-1.40
-1.05
-0.84
-0.84
-1.00
-1.19
-1.24
-1.01
-0.49
0.23
1.01
1.65
2.04
2.14
1.99
1.66
1.21
0.70
0.17
-0.32
-0.68
-0.81
-0.61
-0.08
0.70
1.54
2.29
2.84
3.16
3.32
3.39
3.42
3.39
3.26
2.98
2.56
2.07
1.58
1.16
0.79
0.42
0.00
-0.46
-0.88
-1.17
-1.25
-1.13
-0.87
-0.55
-0.23
0.10
0.45
0.83
1.18
1.41
1.44
1.23
0.81
0.28
-0.27
-0.76
-1.17
-1.55
-1.93
-2.31
-2.61
-2.76
-2.69
-2.42
-2.04
-1.69
-1.48
-1.45
-1.56
-1.72
-1.85
-1.90
-1.85
-1.71
-1.51
-1.28
-1.02
-0.76
-0.47
-0.13
0.24
0.57
0.80
0.86
0.79
0.74
0.85
1.25
1.89
2.60
3.09
3.14
2.66
1.75
0.65
-0.37
-1.09
-1.43
-1.42
-1.12
-0.60
0.09
0.92
1.82
2.63
3.19
3.37
3.13
2.58
1.89
1.30
0.95
0.91
1.10
1.38
1.58
1.51
1.05
0.14
-1.11
-2.46
-3.55
-4.04
-3.72
-2.66
-1.18
0.21
1.07
1.12
0.42
-0.75
-2.02
-3.08
-3.77
-4.11
-4.15
-3.94
-3.43
-2.61
-1.50
-0.25
0.89
1.67
1.97
1.82
1.40
0.94
0.64
0.58
0.75
1.01
1.18
1.15
0.86
0.38
-0.12
-0.43
-0.42
-0.07
0.46
0.96
1.21
1.13
0.81
0.45
0.23
0.29
0.64
1.17
1.71
2.13
2.31
2.19
1.72
0.93
-0.12
-1.29
-2.37
-3.16
-3.51
-3.43
-3.05
-2.57
-2.19
-2.00
-2.02
-2.19
-2.43
-2.66
-2.80
-2.77
-2.49
-1.93
-1.12
-0.16
0.80
1.64
2.28
2.71
2.96
3.07
3.10
3.08
3.06
3.10
3.23
3.43
3.63
3.76
3.77
3.70
3.63
3.64
3.76
3.91
3.91
3.59
2.84
1.70
0.33
-0.99
-2.02
-2.61
-2.74
-2.54
-2.23
-2.03
-2.12
-2.55
-3.26
-4.06
-4.76
-5.22
-5.39
-5.34
-5.21
-5.10
-5.04
-4.94
-4.64
-4.03
-3.09
-1.93
-0.74
0.29
1.00
1.35
1.38
1.19
0.92
0.75
0.84
1.27
2.03
2.92
3.64
3.91
3.56
2.64
1.38
0.08
-0.96
-1.62
-1.90
-1.89
-1.71
-1.41
-1.04
-0.60
-0.13
0.32
0.69
0.97
1.18
1.39
1.65
1.97
2.32
2.63
2.79
2.74
2.50
2.08
1.57
1.03
0.51
0.04
-0.34
-0.57
-0.57
-0.26
0.35
1.21
2.14
2.92
3.33
3.26
2.69
1.71
0.51
-0.74
-1.80
-2.51
-2.77
-2.58
-2.04
-1.33
-0.66
-0.17
0.05
0.02
-0.23
-0.65
-1.21
-1.85
-2.51
-3.10
-3.56
-3.87
-4.07
-4.20
-4.28
-4.24
-3.99
-3.43
-2.57
-1.47
-0.28
0.89
1.95
2.91
3.85
4.78
5.67
6.38
6.70
6.45
5.57
4.20
2.61
1.13
0.02
-0.60
-0.80
-0.73
-0.54
-0.33
-0.11
0.12
0.33
0.46
0.46
0.33
0.12
-0.08
-0.15
-0.10
0.02
0.14
0.17
0.12
0.01
-0.10
-0.14
-0.14
-0.10
-0.04
0.07
0.31
0.76
1.43
2.21
2.90
3.29
3.23
2.71
1.84
0.80
-0.27
-1.26
-2.16
-2.96
-3.59
-3.98
-4.02
-3.71
-3.11
-2.41
-1.81
-1.43
-1.29
-1.33
-1.44
-1.55
-1.65
-1.74
-1.83
-1.89
-1.89
-1.86
-1.83
-1.91
-2.10
-2.37
-2.55
-2.51
-2.14
-1.47
-0.61
0.33
1.24
2.08
2.85
3.48
3.86
3.80
3.18
1.99
0.43
-1.14
-2.31
-2.77
-2.40
-1.35
0.12
1.64
2.90
3.70
3.96
3.70
3.05
2.21
1.37
0.70
0.26
0.08
0.10
0.29
0.61
1.04
1.52
1.98
2.30
2.39
2.23
1.89
1.47
1.09
0.82
0.71
0.71
0.79
0.91
1.03
1.12
1.16
1.12
0.97
0.70
0.29
-0.26
-0.91
-1.59
-2.24
-2.80
-3.21
-3.45
-3.52
-3.44
-3.24
-2.99
-2.72
-2.50
-2.35
-2.23
-2.10
-1.90
-1.59
-1.21
-0.85
-0.66
-0.72
-1.01
-1.39
-1.70
-1.80
-1.67
-1.41
-1.19
-1.13
-1.30
-1.66
-2.08
-2.42
-2.47
-2.04
-1.03
0.53
2.40
4.17
5.38
5.72
5.13
3.79
2.06
0.33
-1.10
-2.05
-2.41
-2.18
-1.41
-0.27
0.99
2.08
2.73
2.83
2.46
1.85
1.31
1.09
1.31
1.92
2.73
3.46
3.83
3.70
3.05
2.05
0.93
-0.03
-0.63
-0.80
-0.58
-0.10
0.48
1.01
1.40
1.61
1.67
1.63
1.54
1.49
1.50
1.52
1.46
1.14
0.48
-0.49
-1.59
-2.54
-3.06
-3.04
-2.51
-1.71
-0.91
-0.36
-0.19
-0.39
-0.90
-1.59
-2.33
-3.00
-3.52
-3.81
-3.86
-3.72
-3.46
-3.16
-2.88
-2.63
-2.41
-2.21
-2.04
-1.93
-1.87
-1.84
-1.82
-1.76
-1.62
-1.36
-0.93
-0.33
0.42
1.24
2.01
2.64
3.04
3.15
3.00
2.65
2.20
1.75
1.38
1.14
1.02
0.96
0.92
0.88
0.87
0.92
1.01
1.07
0.99
0.75
0.41
0.11
0.02
0.20
0.59
1.04
1.41
1.66
1.85
2.08
2.37
2.65
2.75
2.52
1.95
1.16
0.39
-0.14
-0.28
-0.06
0.44
1.08
1.71
2.23
2.53
2.48
1.99
1.05
-0.23
-1.55
-2.60
-3.12
-3.06
-2.58
-2.00
-1.58
-1.48
-1.61
-1.82
-1.93
-1.87
-1.73
-1.64
-1.73
-2.04
-2.52
-3.04
-3.45
-3.64
-3.54
-3.21
-2.76
-2.32
-1.98
-1.75
-1.55
-1.25
-0.74
-0.02
0.85
1.77
2.66
3.48
4.22
4.79
5.11
5.06
4.61
3.78
2.72
1.59
0.51
-0.44
-1.20
-1.69
-1.87
-1.71
-1.29
-0.78
-0.38
-0.24
-0.39
-0.71
-1.08
-1.35
-1.49
-1.54
-1.52
-1.44
-1.23
-0.80
-0.11
0.83
1.87
2.83
3.55
3.94
3.99
3.79
3.42
2.94
2.37
1.69
0.98
0.35
-0.03
-0.02
0.35
0.94
1.49
1.76
1.65
1.18
0.48
-0.29
-1.01
-1.60
-2.03
-2.28
-2.34
-2.22
-2.00
-1.76
-1.64
-1.70
-1.93
-2.26
-2.55
-2.73
-2.76
-2.73
-2.74
-2.95
-3.38
-3.97
-4.54
-4.86
-4.76
-4.19
-3.23
-2.05
-0.87
0.14
0.92
1.50
2.03
2.68
3.63
4.91
6.39
7.77
8.64
8.65
7.63
5.68
3.19
0.70
-1.31
-2.54
-2.95
-2.72
-2.14
-1.49
-0.96
-0.67
-0.64
-0.88
-1.33
-1.91
-2.47
-2.88
-3.06
-2.97
-2.63
-2.11
-1.49
-0.86
-0.30
0.15
0.52
0.86
1.27
1.76
2.28
2.73
3.01
3.08
3.03
2.98
3.08
3.34
3.71
4.04
4.19
4.05
3.59
2.80
1.74
0.51
-0.73
-1.78
-2.41
-2.47
-2.00
-1.17
-0.33
0.17
0.10
-0.52
-1.47
-2.43
-3.12
-3.42
-3.42
-3.32
-3.35
-3.60
-4.03
-4.44
-4.66
-4.53
-4.10
-3.48
-2.86
-2.34
-1.95
-1.60
-1.17
-0.61
0.09
0.91
1.89
3.04
4.39
5.85
7.17
7.98
7.95
6.95
5.09
2.78
0.52
-1.27
-2.37
-2.81
-2.80
-2.61
-2.46
-2.40
-2.40
-2.41
-2.39
-2.36
-2.38
-2.45
-2.53
-2.49
-2.22
-1.67
-0.91
-0.07
0.67
1.20
1.49
1.61
1.66
1.73
1.88
2.13
2.47
2.86
3.26
3.62
3.87
3.98
3.93
3.75
3.44
3.00
2.39
1.58
0.59
-0.47
-1.42
-2.12
-2.50
-2.60
-2.53
-2.42
-2.34
-2.23
-2.03
-1.68
-1.19
-0.67
-0.24
-0.04
-0.13
-0.49
-1.05
-1.69
-2.29
-2.80
-3.19
-3.49
-3.72
-3.89
-3.94
-3.81
-3.46
-2.83
-1.89
-0.61
0.98
2.79
4.63
6.23
7.25
7.48
6.87
5.56
3.88
2.18
0.73
-0.31
-0.91
-1.12
-0.99
-0.60
-0.04
0.58
1.13
1.50
1.62
1.52
1.25
0.90
0.51
0.10
-0.27
-0.56
-0.71
-0.65
-0.40
-0.01
0.40
0.73
0.93
1.04
1.13
1.27
1.50
1.80
2.12
2.42
2.66
2.80
2.81
2.63
2.21
1.56
0.74
-0.16
-1.05
-1.83
-2.48
-2.97
-3.30
-3.48
-3.51
-3.39
-3.16
-2.81
-2.37
-1.88
-1.42
-1.13
-1.14
-1.49
-2.11
-2.84
-3.45
-3.83
-3.95
-3.87
-3.67
-3.42
-3.11
-2.73
-2.24
-1.65
-0.99
-0.27
0.55
1.47
2.50
3.54
4.39
4.85
4.72
3.95
2.66
1.10
-0.42
-1.63
-2.33
-2.50
-2.21
-1.57
-0.72
0.22
1.10
1.79
2.20
2.28
2.03
1.54
0.95
0.37
-0.05
-0.23
-0.15
0.14
0.55
0.93
1.18
1.24
1.13
0.90
0.63
0.37
0.16
0.00
-0.05
0.04
0.31
0.75
1.28
1.82
2.28
2.56
2.63
2.45
2.03
1.41
0.68
-0.07
-0.71
-1.18
-1.48
-1.65
-1.74
-1.78
-1.76
-1.66
-1.49
-1.32
-1.22
-1.27
-1.47
-1.78
-2.07
-2.24
-2.27
-2.16
-2.01
-1.90
-1.85
-1.85
-1.83
-1.75
-1.59
-1.37
-1.12
-0.84
-0.52
-0.10
0.44
1.04
1.59
1.93
1.92
1.55
0.92
0.25
-0.18
-0.19
0.23
0.93
1.65
2.11
2.15
1.78
1.15
0.41
-0.28
-0.83
-1.17
-1.25
-0.99
-0.37
0.55
1.56
2.37
2.74
2.56
1.94
1.13
0.43
0.03
-0.02
0.19
0.51
0.78
0.93
0.93
0.82
0.62
0.37
0.12
-0.07
-0.08
0.14
0.64
1.33
2.07
2.68
3.01
3.02
2.76
2.34
1.85
1.30
0.68
0.02
-0.67
-1.30
-1.83
-2.27
-2.66
-3.02
-3.33
-3.50
-3.44
-3.10
-2.52
-1.79
-1.03
-0.37
0.12
0.38
0.37
0.09
-0.40
-0.97
-1.49
-1.81
-1.90
-1.80
-1.63
-1.49
-1.47
-1.56
-1.67
-1.71
-1.63
-1.44
-1.20
-0.94
-0.58
0.03
1.06
2.51
4.13
5.48
6.06
5.56
4.01
1.75
-0.68
-2.73
-4.06
-4.54
-4.23
-3.36
-2.18
-0.95
0.09
0.79
1.08
1.02
0.72
0.35
0.02
-0.21
-0.33
-0.36
-0.29
-0.05
0.39
1.05
1.87
2.68
3.31
3.60
3.49
3.05
2.41
1.72
1.10
0.62
0.33
0.26
0.43
0.84
1.42
2.01
2.44
2.55
2.23
1.52
0.52
-0.61
-1.68
-2.53
-3.04
-3.19
-3.02
-2.65
-2.28
-2.06
-2.10
-2.36
-2.69
-2.89
-2.81
-2.41
-1.76
-1.05
-0.46
-0.15
-0.19
-0.52
-0.99
-1.37
-1.48
-1.21
-0.63
0.12
0.82
1.29
1.41
1.20
0.75
0.22
-0.20
-0.34
-0.08
0.58
1.50
2.45
3.14
3.34
2.98
2.11
0.94
-0.32
-1.48
-2.39
-2.95
-3.15
-2.98
-2.55
-1.99
-1.43
-0.97
-0.62
-0.36
-0.08
0.28
0.74
1.31
1.91
2.47
2.92
3.23
3.37
3.40
3.36
3.29
3.20
3.04
2.75
2.28
1.68
1.10
0.73
0.74
1.18
1.89
2.62
3.08
3.09
2.66
1.92
1.08
0.29
-0.41
-1.01
-1.50
-1.79
-1.81
-1.54
-1.10
-0.69
-0.50
-0.66
-1.12
-1.77
-2.45
-3.05
-3.50
-3.78
-3.88
-3.82
-3.64
-3.41
-3.22
-3.09
-3.02
-2.96
-2.83
-2.58
-2.21
-1.76
-1.30
-0.91
-0.65
-0.51
-0.40
-0.20
0.23
1.01
2.14
3.48
4.78
5.66
5.82
5.11
3.63
1.70
-0.21
-1.72
-2.61
-2.89
-2.76
-2.44
-2.08
-1.76
-1.46
-1.19
-0.96
-0.81
-0.76
-0.79
-0.85
-0.90
-0.85
-0.70
-0.42
-0.06
0.29
0.55
0.67
0.68
0.67
0.78
1.13
1.69
2.36
2.97
3.38
3.53
3.45
3.22
2.89
2.51
2.07
1.60
1.17
0.84
0.70
0.74
0.94
1.20
1.42
1.49
1.35
0.94
0.29
-0.52
-1.36
-2.06
-2.51
-2.69
-2.70
-2.65
-2.62
-2.64
-2.63
-2.58
-2.49
-2.47
-2.59
-2.86
-3.19
-3.41
-3.43
-3.22
-2.88
-2.54
-2.20
-1.76
-1.04
0.05
1.45
2.87
3.92
4.26
3.77
2.59
1.06
-0.46
-1.68
-2.48
-2.85
-2.84
-2.47
-1.80
-0.88
0.11
0.99
1.57
1.79
1.73
1.57
1.48
1.56
1.77
2.03
2.23
2.34
2.32
2.15
1.82
1.36
0.86
0.46
0.30
0.42
0.76
1.17
1.53
1.82
2.08
2.39
2.78
3.10
3.19
2.87
2.09
0.95
-0.32
-1.53
-2.49
-3.12
-3.43
-3.44
-3.22
-2.79
-2.20
-1.49
-0.70
0.10
0.80
1.30
1.49
1.31
0.80
0.06
-0.75
-1.50
-2.13
-2.62
-3.02
-3.35
-3.61
-3.74
-3.71
-3.45
-2.88
-1.88
-0.37
1.63
3.89
5.95
7.28
7.42
6.25
4.05
1.41
-0.99
-2.61
-3.24
-2.96
-2.06
-0.87
0.32
1.35
2.11
2.57
2.75
2.68
2.41
2.03
1.63
1.28
1.02
0.83
0.67
0.49
0.25
-0.04
-0.33
-0.56
-0.66
-0.61
-0.42
-0.14
0.22
0.69
1.28
1.97
2.65
3.12
3.19
2.79
2.00
0.99
0.00
-0.80
-1.40
-1.81
-2.12
-2.34
-2.46
-2.45
-2.33
-2.17
-2.03
-1.96
-1.99
-2.10
-2.27
-2.46
-2.61
-2.70
-2.73
-2.74
-2.79
-2.88
-2.99
-3.06
-3.05
-2.99
-2.97
-3.13
-3.54
-4.16
-4.77
-5.09
-4.85
-3.88
-2.24
-0.16
1.97
3.76
4.92
5.40
5.29
4.83
4.25
3.69
3.22
2.85
2.62
2.56
2.70
2.99
3.34
3.56
3.52
3.14
2.51
1.80
1.26
1.05
1.19
1.54
1.88
1.99
1.82
1.47
1.12
0.89
0.75
0.55
0.15
-0.47
-1.18
-1.74
-1.97
-1.81
-1.39
-0.90
-0.52
-0.40
-0.58
-1.10
-1.88
-2.82
-3.70
-4.26
-4.29
-3.69
-2.58
-1.20
0.12
1.10
1.65
1.81
1.74
1.69
1.88
2.41
3.26
4.20
4.87
4.90
4.01
2.22
-0.20
-2.73
-4.84
-6.14
-6.55
-6.26
-5.60
-4.91
-4.41
-4.17
-4.12
-4.14
-4.10
-3.93
-3.65
-3.43
-3.46
-3.96
-4.99
-6.35
-7.70
-8.64
-9.01
-8.98
-9.07
-9.91
-11.88
-14.90
-18.42
-21.64
-23.94
-25.20
-25.86
-26.77
-28.71
-32.02
-36.39
-40.94
-44.73
-47.30
-48.98
-50.90
-54.49
-60.78
-69.66
-80.13
-90.54
-99.56
-106.87
-113.17
-119.82
-128.11
-139.06
-153.29
-171.09
-191.93
-213.91
-233.42
-245.71
-246.34
-233.03
-206.66
-170.86
-130.23
-88.23
-45.87
-1.83
46.01
98.67
154.77
210.35
260.00
298.59
323.02
333.22
332.01
324.08
313.93
304.52
296.63
289.52
282.27
275.00
269.21
267.11
270.50
279.59
292.50
305.58
314.25
314.32
303.13
280.23
247.29
207.30
163.39
117.87
71.65
24.43
-24.79
-76.93
-132.10
-189.05
-245.02
-296.11
-338.14
-367.89
-384.25
-388.63
-384.56
-376.32
-367.74
-361.32
-358.06
-357.71
-359.00
-359.72
-356.92
-347.38
-328.54
-299.52
-261.46
-217.15
-169.75
-121.54
-73.08
-23.44
28.49
82.52
136.19
185.04
224.10
249.87
261.73
262.19
255.84
247.47
240.39
235.52
231.44
225.26
213.92
195.45
169.90
139.73
109.29
83.39
65.17
54.46
47.50
38.64
22.79
-2.14
-34.45
-69.38
-100.82
-122.93
-131.18
-122.71
-96.87
-55.66
-4.17
49.82
97.17
129.71
142.49
135.07
111.31
77.84
41.85
9.43
-15.62
-32.00
-40.37
-42.51
-40.52
-36.35
-31.93
-29.21
-30.07
-36.00
-47.43
-63.21
-80.60
-95.88
-105.32
-106.15
-97.36
-79.77
-55.75
-28.45
-1.02
23.92
44.63
60.28
70.83
76.98
80.09
81.97
84.59
89.55
97.50
107.88
119.08
129.24
136.99
142.10
145.42
148.30
151.77
155.92
159.95
162.72
163.24
160.86
155.06
145.00
129.42
106.93
76.60
38.52
-6.30
-56.66
-111.91
-172.03
-236.64
-303.41
-367.05
-419.82
-453.77
-463.60
-448.82
-413.77
-365.62
-311.33
-255.20
-198.41
-140.50
-81.82
-25.01
25.16
63.80
88.27
99.52
101.59
99.68
97.81
97.48
97.77
96.76
93.18
87.37
81.00
76.06
73.73
73.77
74.85
75.33
74.15
71.17
67.13
63.09
59.82
57.49
55.70
53.71
50.96
47.25
42.92
38.59
34.91
32.25
30.60
29.61
28.77
27.59
25.79
23.39
20.61
17.83
15.42
13.58
12.33
11.51
10.85
10.09
9.12
8.00
6.87
5.94
5.26
4.80
4.44
4.05
3.62
3.21
2.94
2.88
3.02
3.28
3.57
3.82
4.00
4.15
4.31
4.51
4.80
5.21
5.76
6.41
7.10
7.78
8.45
9.15
9.94
10.87
11.89
12.93
13.91
14.82
15.75
16.80
18.05
19.51
21.07
22.59
23.92
25.01
25.94
26.86
27.99
29.49
31.45
33.77
36.26
38.65
40.74
42.45
43.82
45.02
46.20
47.47
48.86
50.44
52.30
54.72
58.09
62.86
69.27
77.20
86.07
94.98
102.97
109.49
114.62
119.12
124.10
130.62
139.26
150.01
162.29
175.09
187.03
196.33
200.90
198.70
188.28
169.29
142.65
110.25
74.06
35.36
-5.63
-49.12
-94.69
-140.23
-181.89
-215.03
-236.05
-243.83
-240.23
-229.23
-215.22
-201.49
-189.42
-178.83
-168.98
-159.46
-150.49
-142.64
-136.18
-130.74
-125.43
-119.25
-111.63
-102.65
-92.97
-83.52
-75.00
-67.68
-61.33
-55.42
-49.43
-43.11
-36.63
-30.48
-25.23
-21.31
-18.71
-17.09
-15.84
-14.44
-12.63
-10.54
-8.54
-7.05
-6.20
-5.85
-5.57
-4.94
-3.76
-2.16
-0.56
0.55
0.84
0.28
-0.87
-2.17
-3.20
-3.68
-3.57
-3.01
-2.20
-1.38
-0.69
-0.25
-0.10
-0.23
-0.60
-1.08
-1.48
-1.64
-1.50
-1.12
-0.66
-0.34
-0.30
-0.56
-0.98
-1.39
-1.62
-1.59
-1.40
-1.16
