1660928392.00
64.000000
-0.00
-0.00
-0.00
-0.00
-0.00
-0.00
-0.00
-0.00
-0.00
-0.00
0.00
0.01
0.01
-0.00
-0.03
-0.05
-0.05
0.00
0.13
0.36
0.66
1.01
1.37
1.72
2.06
2.40
2.79
3.25
3.81
4.44
5.09
5.73
6.33
6.91
7.54
8.28
9.14
10.21
11.39
12.56
13.62
14.55
15.45
16.47
17.83
19.65
22.11
25.00
28.04
30.98
33.69
36.31
39.17
42.69
47.12
52.77
59.24
66.04
72.65
78.85
84.85
91.18
98.50
107.17
117.55
128.98
140.69
151.97
162.56
172.79
183.42
195.66
207.90
221.97
238.19
256.64
276.42
295.16
309.06
313.72
305.58
283.23
248.36
204.29
155.30
105.01
55.69
8.29
-36.99
-80.01
-120.62
-158.56
-194.58
-229.98
-266.22
-303.83
-341.55
-376.09
-402.83
-417.53
-417.85
-404.51
-381.01
-352.28
-322.79
-295.23
-270.20
-247.00
-224.78
-203.22
-182.80
-164.22
-147.76
-133.03
-119.24
-105.66
-92.00
-78.54
-65.91
-54.72
-45.26
-37.31
-30.33
-23.67
-16.90
-9.98
-3.23
2.83
7.75
11.36
13.85
15.69
17.42
19.43
21.80
24.28
26.44
27.94
28.62
28.55
27.96
27.14
26.29
25.50
24.74
23.97
23.15
22.27
21.36
20.46
19.66
19.00
18.51
18.20
18.00
17.82
17.55
17.13
16.54
15.86
15.22
14.75
14.51
14.47
14.49
14.40
14.06
13.47
12.75
12.08
11.56
11.20
10.87
10.43
9.84
9.16
8.55
8.15
7.98
7.96
7.97
7.94
7.88
7.88
8.05
8.42
8.89
9.29
9.44
9.23
8.68
7.93
7.14
6.48
6.00
5.67
5.40
5.08
4.64
4.09
3.48
2.90
2.41
2.05
1.84
1.72
1.64
1.50
1.23
0.82
0.28
-0.28
-0.75
-1.05
-1.21
-1.32
-1.53
-1.96
-2.64
-3.48
-4.37
-5.18
-5.88
-6.53
-7.24
-8.04
-8.89
-9.67
-10.18
-10.32
-10.07
-9.52
-8.83
-8.14
-7.55
-7.04
-6.53
-5.93
-5.21
-4.39
-3.57
-2.86
-2.29
-1.82
-1.37
-0.89
-0.37
0.14
0.60
0.97
1.30
1.64
2.00
2.31
2.48
2.41
2.08
1.59
1.10
0.76
0.67
0.80
1.10
1.50
1.97
2.55
3.28
4.09
4.86
5.39
5.51
5.20
4.57
3.82
3.17
2.73
2.51
2.43
2.42
2.43
2.49
2.61
2.79
3.01
3.21
3.35
3.40
3.33
3.14
2.84
2.46
2.08
1.81
1.75
1.95
2.38
2.95
3.54
4.08
4.55
4.96
5.33
5.60
5.69
5.52
5.08
4.50
3.93
3.51
3.30
3.24
3.20
3.08
2.84
2.50
2.14
1.83
1.58
1.39
1.24
1.12
1.06
1.03
1.02
0.98
0.87
0.71
0.53
0.40
0.37
0.43
0.57
0.72
0.86
1.00
1.12
1.21
1.23
1.15
0.99
0.87
0.95
1.34
2.03
2.90
3.73
4.30
4.50
4.28
3.69
2.83
1.80
0.74
-0.18
-0.78
-0.97
-0.78
-0.34
0.10
0.36
0.38
0.25
0.12
0.12
0.28
0.51
0.68
0.69
0.53
0.30
0.12
0.04
0.05
0.08
0.04
-0.07
-0.20
-0.24
-0.15
0.05
0.22
0.26
0.12
-0.12
-0.29
-0.26
0.02
0.44
0.82
1.04
1.10
1.10
1.19
1.46
1.86
2.27
2.50
2.49
2.26
1.96
1.73
1.64
1.68
1.76
1.77
1.64
1.40
1.06
0.71
0.38
0.11
-0.10
-0.25
-0.33
-0.34
-0.29
-0.16
0.02
0.25
0.50
0.75
0.98
1.18
1.32
1.41
1.43
1.36
1.20
0.95
0.65
0.36
0.11
-0.06
-0.12
-0.06
0.12
0.43
0.82
1.19
1.47
1.61
1.61
1.53
1.42
1.29
1.12
0.85
0.46
0.00
-0.42
-0.70
-0.80
-0.72
-0.52
-0.30
-0.12
-0.02
-0.03
-0.13
-0.34
-0.61
-0.90
-1.14
-1.28
-1.27
-1.16
-1.04
-1.03
-1.18
-1.48
-1.81
-2.01
-1.93
-1.52
-0.88
-0.19
0.33
0.53
0.39
-0.02
-0.59
-1.16
-1.65
-2.00
-2.21
-2.33
-2.39
-2.44
-2.48
-2.50
-2.45
-2.30
-2.05
-1.73
-1.40
-1.13
-0.96
-0.88
-0.85
-0.82
-0.72
-0.50
-0.12
0.40
0.96
1.42
1.60
1.43
0.92
0.25
-0.32
-0.52
-0.19
0.69
1.98
3.41
4.67
5.51
5.74
5.39
4.62
3.70
2.92
2.45
2.29
2.34
2.42
2.42
2.29
2.09
1.89
1.76
1.68
1.63
1.55
1.39
1.20
1.03
0.98
1.06
1.22
1.30
1.13
0.64
-0.11
-0.91
-1.51
-1.77
-1.67
-1.33
-0.94
-0.56
-0.20
0.21
0.72
1.33
1.91
2.35
2.56
2.51
2.27
1.94
1.57
1.23
0.91
0.58
0.26
-0.05
-0.31
-0.49
-0.62
-0.72
-0.85
-1.05
-1.33
-1.69
-2.11
-2.58
-3.08
-3.53
-3.86
-4.00
-3.89
-3.55
-2.98
-2.24
-1.31
-0.22
0.98
2.18
3.20
3.91
4.26
4.33
4.28
4.28
4.45
4.79
5.26
5.78
6.26
6.58
6.62
6.29
5.53
4.43
3.10
1.70
0.35
-0.87
-1.87
-2.63
-3.12
-3.40
-3.56
-3.70
-3.85
-3.92
-3.81
-3.44
-2.89
-2.35
-2.04
-2.09
-2.49
-3.16
-4.00
-4.89
-5.71
-6.17
-5.93
-4.61
-2.08
1.42
5.23
8.50
10.44
10.62
9.09
6.35
3.09
-0.01
-2.48
-4.09
-4.86
-4.92
-4.48
-3.75
-2.94
-2.24
-1.80
-1.67
-1.84
-2.20
-2.60
-2.92
-3.11
-3.15
-3.05
-2.83
-2.50
-2.06
-1.54
-1.00
-0.50
-0.10
0.16
0.31
0.39
0.44
0.51
0.61
0.71
0.76
0.76
0.69
0.61
0.58
0.63
0.75
0.87
0.92
0.88
0.80
0.77
0.91
1.28
1.89
2.71
3.61
4.39
4.82
4.65
3.71
2.04
-0.07
-2.15
-3.68
-4.31
-3.96
-2.86
-1.42
-0.01
1.08
1.71
1.84
1.50
0.76
-0.29
-1.47
-2.61
-3.54
-4.21
-4.64
-4.96
-5.29
-5.74
-6.37
-7.12
-7.92
-8.63
-9.12
-9.35
-9.35
-9.27
-9.31
-9.63
-10.28
-11.18
-12.21
-13.25
-14.26
-15.32
-16.53
-17.97
-19.68
-21.61
-23.66
-25.68
-27.44
-28.61
-28.76
-27.50
-24.67
-20.58
-15.99
-11.99
-9.57
-9.20
-10.71
-13.31
-16.07
-18.32
-19.99
-21.50
-23.36
-25.78
-28.39
-30.48
-31.41
-31.09
-30.10
-29.42
-30.02
-32.37
-36.46
-42.08
-49.02
-57.13
-65.92
-74.22
-80.30
-82.44
-79.68
-72.24
-61.20
-47.84
-33.02
-17.07
-0.03
17.86
36.02
53.68
70.16
85.08
98.20
109.18
117.52
122.70
124.58
123.51
120.31
115.88
111.11
106.75
103.41
101.57
101.32
102.19
103.32
103.81
103.11
101.30
99.05
97.25
96.82
98.54
102.85
109.45
116.84
122.12
121.62
112.21
92.90
65.68
34.98
6.02
-17.24
-33.46
-43.80
-50.68
-56.21
-61.32
-65.80
-69.12
-71.15
-72.34
-73.37
-74.58
-75.67
-75.95
-74.67
-71.52
-66.78
-61.25
-55.87
-51.40
-48.15
-45.90
-44.07
-42.07
-39.60
-36.83
-34.30
-32.64
-32.20
-32.89
-34.18
-35.42
-36.06
-35.94
-35.23
-34.34
-33.58
-33.10
-32.85
-32.66
-32.42
-32.22
-32.32
-33.08
-34.79
-37.46
-40.74
-43.97
-46.40
-47.53
-47.32
-46.31
-45.35
-45.27
-46.44
-48.57
-50.77
-52.01
-51.60
-49.68
-47.28
-45.88
-46.71
-50.05
-54.96
-59.59
-61.50
-58.18
-47.23
-26.83
3.57
42.53
86.24
129.11
165.32
190.85
205.00
210.26
210.90
210.70
211.03
210.38
205.33
192.45
170.25
140.21
106.46
74.47
49.16
33.32
26.93
27.83
33.04
40.18
47.79
54.99
60.70
63.36
61.71
55.79
47.28
38.53
30.69
22.52
10.80
-7.48
-32.78
-61.90
-89.13
-108.94
-118.63
-119.17
-114.04
-106.91
-99.89
-93.19
-86.18
-78.61
-71.29
-65.53
-62.25
-61.16
-60.91
-59.77
-56.56
-51.21
-44.67
-38.49
-33.98
-31.68
-31.22
-31.51
-31.33
-29.87
-27.04
-23.51
-20.27
-18.21
-17.64
-18.27
-19.38
-20.21
-20.33
-19.78
-18.96
-18.36
-18.32
-18.87
-19.83
-20.93
-22.01
-23.04
-24.08
-25.28
-26.70
-28.34
-30.06
-31.76
-33.30
-34.64
-35.85
-37.06
-38.44
-40.10
-42.02
-44.14
-46.30
-48.33
-50.10
-51.55
-52.82
-54.27
-56.45
-59.87
-64.57
-69.95
-74.75
-77.42
-76.67
-71.85
-63.04
-50.90
-36.46
-20.91
-5.56
8.45
20.40
30.21
38.50
46.08
53.45
60.35
65.79
68.58
67.94
63.89
57.15
48.66
39.25
29.47
19.88
11.16
4.11
-0.67
-3.26
-4.70
-6.67
-10.98
-18.75
-29.64
-41.67
-51.60
-55.93
-52.12
-39.51
-19.72
3.81
26.86
45.81
58.62
65.21
67.08
66.38
64.92
63.54
62.20
60.41
57.83
54.63
51.37
48.71
46.84
45.45
43.89
41.65
38.69
35.50
32.81
31.15
30.57
30.59
30.46
29.52
27.48
24.58
21.45
18.81
17.13
16.48
16.45
16.45
15.97
14.80
13.13
11.37
9.93
9.01
8.51
8.15
7.66
6.93
6.01
5.07
4.26
3.63
3.11
2.60
2.00
1.31
0.64
0.17
0.07
0.44
1.21
2.21
3.17
3.87
4.21
4.19
3.91
3.50
3.05
2.63
2.31
2.15
2.21
2.51
3.04
3.67
4.23
4.60
4.71
4.65
4.59
4.79
5.43
6.65
8.45
10.77
13.51
16.57
19.86
23.33
26.98
30.92
35.25
40.11
45.58
51.69
58.44
65.79
73.70
82.07
90.70
99.30
107.50
114.86
121.03
125.73
128.81
130.27
130.25
129.15
127.66
126.76
127.66
131.43
138.50
148.23
158.59
166.43
168.19
160.84
142.58
113.15
73.76
26.87
-23.90
-73.89
-117.92
-151.21
-170.64
-175.78
-169.04
-154.72
-137.54
-121.31
-108.45
-100.22
-97.13
-99.12
-105.34
-113.87
-122.03
-127.14
-127.62
-123.54
-116.35
-107.99
-99.97
-92.84
-86.40
-80.18
-73.97
-67.90
-62.26
-57.28
-52.94
-49.12
-45.62
-42.27
-39.02
-35.86
-32.82
-29.96
-27.33
-24.90
-22.61
-20.31
-17.92
-15.47
-13.10
-11.04
-9.45
-8.36
-7.62
-7.05
-6.44
-5.70
-4.86
-4.03
-3.32
-2.80
-2.47
-2.23
-1.98
-1.59
-0.99
-0.23
0.61
1.40
2.07
2.56
2.84
2.92
2.79
2.48
2.08
1.68
1.43
1.39
1.55
1.83
2.13
2.41
2.68
2.99
3.35
3.72
4.05
4.27
4.37
4.36
4.26
4.02
3.55
2.78
1.69
0.41
-0.89
-1.98
-2.72
-3.08
-3.13
-2.98
-2.75
-2.46
-2.14
-1.78
-1.40
-1.07
-0.83
-0.70
-0.63
-0.55
-0.43
-0.35
-0.43
-0.78
-1.45
-2.32
-3.15
-3.68
-3.72
-3.24
-2.38
-1.37
-0.44
0.19
0.43
0.26
-0.24
-0.93
-1.61
-2.09
-2.24
-2.04
-1.56
-0.97
-0.41
-0.01
0.24
0.38
0.51
0.71
1.01
1.40
1.81
2.19
2.50
2.73
2.89
2.99
3.03
2.94
2.67
2.21
1.61
0.97
0.35
-0.20
-0.74
-1.32
-1.94
-2.51
-2.91
-3.00
-2.73
-2.16
-1.43
-0.72
-0.16
0.13
0.12
-0.16
-0.64
-1.19
-1.69
-2.09
-2.38
-2.60
-2.77
-2.89
-2.92
-2.84
-2.67
-2.51
-2.42
-2.42
-2.42
-2.26
-1.78
-0.96
0.09
1.15
2.00
2.47
2.52
2.19
1.59
0.78
-0.13
-1.02
-1.75
-2.12
-2.01
-1.40
-0.41
0.71
1.70
2.35
2.60
2.51
2.20
1.80
1.38
0.98
0.66
0.45
0.41
0.52
0.74
0.98
1.16
1.23
1.21
1.14
1.03
0.85
0.57
0.19
-0.26
-0.68
-0.93
-0.90
-0.54
0.12
0.94
1.76
2.34
2.51
2.20
1.46
0.49
-0.46
-1.18
-1.53
-1.52
-1.26
-0.86
-0.44
-0.05
0.25
0.45
0.50
0.41
0.18
-0.12
-0.46
-0.85
-1.31
-1.90
-2.61
-3.38
-4.05
-4.51
-4.67
-4.58
-4.36
-4.12
-3.94
-3.81
-3.62
-3.26
-2.61
-1.58
-0.19
1.47
3.23
4.84
6.03
6.61
6.46
5.63
4.32
2.80
1.37
0.24
-0.45
-0.71
-0.59
-0.25
0.16
0.45
0.51
0.23
-0.37
-1.19
-2.05
-2.75
-3.12
-3.04
-2.47
-1.46
-0.15
1.27
2.59
3.61
4.24
4.48
4.43
4.22
3.95
3.70
3.49
3.34
3.30
3.40
3.66
4.02
4.40
4.68
4.73
4.45
3.79
2.77
1.47
0.02
-1.42
-2.72
-3.75
-4.44
-4.74
-4.69
-4.33
-3.76
-3.14
-2.60
-2.24
-2.10
-2.13
-2.22
-2.29
-2.29
-2.28
-2.38
-2.71
-3.32
-4.13
-4.96
-5.60
-5.87
-5.73
-5.22
-4.49
-3.67
-2.89
-2.25
-1.86
-1.79
-2.00
-2.23
-2.05
-1.07
0.90
3.62
6.46
8.67
9.68
9.35
8.01
6.22
4.48
3.04
1.89
0.93
0.10
-0.49
-0.68
-0.38
0.27
0.96
1.33
1.13
0.39
-0.62
-1.49
-1.88
-1.61
-0.80
0.29
1.35
2.12
2.55
2.71
2.74
2.74
2.76
2.76
2.65
2.40
2.06
1.76
1.62
1.71
2.00
2.36
2.64
2.71
2.48
1.92
1.07
0.01
-1.13
-2.20
-3.09
-3.72
-4.05
-4.08
-3.78
-3.14
-2.23
-1.17
-0.23
0.33
0.35
-0.15
-0.94
-1.73
-2.28
-2.51
-2.49
-2.39
-2.37
-2.50
-2.78
-3.12
-3.45
-3.69
-3.82
-3.79
-3.59
-3.20
-2.63
-1.91
-1.07
-0.12
0.94
2.09
3.28
4.42
5.34
5.85
5.80
5.16
4.02
2.58
1.05
-0.35
-1.48
-2.21
-2.51
-2.33
-1.75
-0.88
0.09
0.93
1.47
1.60
1.38
0.95
0.48
0.12
-0.09
-0.14
-0.13
-0.10
-0.05
0.09
0.37
0.76
1.18
1.45
1.43
1.11
0.59
0.08
-0.22
-0.25
-0.09
0.09
0.15
0.01
-0.25
-0.49
-0.57
-0.39
0.04
0.67
1.40
2.09
2.62
2.86
2.73
2.22
1.43
0.54
-0.30
-0.96
-1.41
-1.68
-1.82
-1.84
-1.76
-1.58
-1.34
-1.11
-0.98
-0.97
-1.10
-1.35
-1.68
-2.10
-2.60
-3.17
-3.73
-4.18
-4.33
-4.04
-3.25
-2.04
-0.61
0.79
1.89
2.56
2.76
2.53
1.97
1.19
0.29
-0.60
-1.34
-1.80
-1.91
-1.72
-1.30
-0.79
-0.28
0.21
0.66
1.06
1.40
1.63
1.71
1.65
1.48
1.24
0.99
0.80
0.70
0.73
0.91
1.19
1.52
1.79
1.95
1.96
1.85
1.68
1.48
1.28
1.06
0.81
0.54
0.29
0.15
0.15
0.28
0.45
0.55
0.48
0.22
-0.16
-0.54
-0.77
-0.78
-0.56
-0.16
0.27
0.58
0.63
0.36
-0.15
-0.71
-1.11
-1.18
-0.96
-0.59
-0.36
-0.45
-0.87
-1.40
-1.69
-1.48
-0.75
0.23
0.94
0.88
-0.18
-2.04
-4.10
-5.55
-5.79
-4.68
-2.73
-0.92
-0.31
-1.56
-4.47
-8.03
-10.74
-11.31
-9.35
-5.71
-2.25
-1.08
-3.48
-9.17
-16.23
-21.94
-24.02
-21.75
-16.44
-10.69
-7.32
-8.20
-13.79
-23.31
-34.93
-45.83
-51.85
-48.03
-30.29
1.80
43.15
83.61
111.46
118.57
104.16
75.17
42.69
16.60
1.51
-3.97
-4.59
-4.67
-5.59
-6.00
-3.89
1.15
7.30
11.48
11.38
6.79
-0.35
-6.96
-10.46
-9.98
-6.52
-2.38
0.14
-0.23
-3.20
-7.24
-10.36
-11.10
-9.17
-5.46
-1.61
0.85
1.10
-0.66
-3.43
-5.90
-7.07
-6.64
-4.98
-2.87
-1.13
-0.23
-0.21
-0.75
-1.38
-1.77
-1.78
-1.54
-1.29
-1.22
-1.40
-1.74
-2.04
-2.12
-1.90
-1.47
-0.98
-0.60
-0.40
-0.37
-0.41
-0.43
-0.40
-0.33
-0.27
-0.30
-0.43
-0.64
-0.89
-1.11
-1.25
-1.30
-1.22
-1.02
-0.68
-0.24
0.26
0.73
1.10
1.30
1.32
1.20
1.00
0.80
0.61
0.44
0.25
0.00
-0.30
-0.59
-0.77
-0.76
-0.55
-0.21
0.08
0.18
0.02
-0.36
-0.84
-1.27
-1.56
-1.71
-1.79
-1.89
-2.07
-2.37
-2.78
-3.26
-3.74
-4.14
-4.37
-4.41
-4.34
-4.39
-4.80
-5.76
-7.24
-8.94
-10.42
-11.29
-11.44
-11.15
-10.99
-11.58
-13.22
-15.74
-18.51
-20.67
-21.61
-21.25
-20.23
-19.65
-20.62
-23.71
-28.68
-34.50
-39.76
-43.29
-44.64
-44.20
-43.08
-42.56
-43.70
-47.14
-52.89
-60.27
-67.60
-72.21
-71.08
-62.14
-45.65
-24.95
-5.63
6.58
8.25
-0.40
-15.99
-34.16
-51.92
-68.74
-86.11
-105.80
-128.27
-152.23
-175.03
-193.76
-205.95
-209.80
-204.11
-188.28
-162.52
-127.70
-85.18
-36.37
17.28
73.85
130.26
182.20
224.81
254.44
270.17
274.34
271.62
266.95
263.64
262.47
262.20
260.93
257.63
252.76
247.89
244.74
244.16
245.83
248.63
251.53
254.14
256.81
259.81
262.36
262.22
256.11
240.95
215.20
179.48
136.10
87.77
36.56
-16.27
-69.39
-120.35
-165.28
-199.79
-220.72
-227.62
-223.09
-211.65
-197.89
-184.83
-173.47
-163.21
-153.13
-142.91
-132.98
-124.14
-116.85
-110.84
-105.25
-99.10
-91.79
-83.40
-74.66
-66.56
-59.88
-54.87
-51.10
-47.76
-44.01
-39.39
-34.05
-28.66
-24.07
-20.89
-19.24
-18.64
-18.28
-17.39
-15.59
-13.04
-10.33
-8.17
-7.00
-6.88
-7.39
-7.95
-8.05
-7.47
-6.31
-4.89
-3.57
-2.56
-1.94
-1.70
-1.76
-1.99
-2.10
-1.58
0.11
3.37
8.05
13.41
18.20
21.12
21.38
18.97
14.67
9.67
5.10
1.62
-0.68
-2.07
-2.93
-3.45
-3.67
-3.52
-2.98
-2.21
-1.46
-0.94
-0.72
-0.64
-0.43
0.10
0.98
2.00
2.83
3.13
2.74
1.75
0.40
-0.98
-2.13
-2.92
-3.36
-3.62
-3.83
-4.11
-4.44
-4.73
-4.83
-4.66
-4.21
-3.59
-2.97
-2.47
-2.18
-2.07
-2.09
-2.15
-2.18
-2.12
-1.93
-1.62
-1.22
-0.84
-0.59
-0.56
-0.73
-1.03
-1.32
-1.50
-1.52
-1.39
-1.15
-0.83
-0.45
-0.04
0.34
0.61
0.72
0.70
0.64
0.69
0.96
1.43
1.99
2.44
2.64
2.52
2.12
1.52
0.83
0.08
-0.68
-1.40
-2.00
-2.38
-2.43
-2.16
-1.64
-1.05
-0.57
-0.32
-0.33
-0.55
-0.85
-1.15
-1.36
-1.46
-1.45
-1.31
-1.04
-0.67
-0.22
0.23
0.64
0.96
1.22
1.49
1.82
2.27
2.79
3.30
3.69
3.84
3.70
3.26
2.59
1.77
0.94
0.22
-0.30
-0.63
-0.85
-1.07
-1.39
-1.79
-2.17
-2.39
-2.36
-2.09
-1.68
-1.29
-1.03
-0.92
-0.95
-1.05
-1.21
-1.40
-1.63
-1.85
-2.02
-2.09
-2.04
-1.92
-1.81
