1660939146.00
64.000000
-0.00
-0.00
-0.00
-0.00
-0.00
-0.00
-0.00
-0.00
-0.00
-0.00
0.00
0.01
0.01
-0.00
-0.03
-0.05
-0.05
0.00
0.13
0.36
0.66
1.01
1.37
1.72
2.06
2.40
2.79
3.25
3.81
4.44
5.09
5.73
6.32
6.90
7.53
8.27
9.15
10.26
11.48
12.69
13.79
14.73
15.62
16.63
17.99
19.82
22.32
25.25
28.35
31.32
34.04
36.64
39.48
42.99
47.46
53.20
59.79
66.70
73.37
79.59
85.54
91.83
99.16
107.95
118.56
130.31
142.33
153.81
164.45
174.60
185.11
197.36
209.83
224.39
241.24
260.31
280.52
299.39
313.16
317.61
309.45
287.43
253.28
210.22
162.21
112.64
63.61
16.10
-29.44
-72.64
-113.11
-150.45
-185.35
-219.17
-253.58
-289.66
-326.95
-362.96
-393.46
-413.95
-421.01
-413.92
-394.94
-368.40
-339.07
-310.48
-284.17
-260.02
-237.20
-215.14
-194.03
-174.52
-157.09
-141.65
-127.51
-113.81
-99.98
-85.98
-72.31
-59.74
-48.90
-39.98
-32.64
-26.20
-20.00
-13.61
-7.09
-0.87
4.51
8.66
11.59
13.63
15.31
17.09
19.18
21.47
23.64
25.34
26.38
26.76
26.68
26.39
26.10
25.89
25.70
25.46
25.11
24.68
24.24
23.86
23.48
23.02
22.37
21.48
20.42
19.34
18.41
17.71
17.23
16.85
16.47
16.01
15.46
14.87
14.31
13.79
13.29
12.78
12.24
11.67
11.15
10.77
10.57
10.56
10.69
10.84
10.91
10.82
10.56
10.16
9.70
9.25
8.90
8.67
8.54
8.46
8.34
8.10
7.71
7.18
6.58
6.03
5.62
5.40
5.33
5.32
5.28
5.16
4.97
4.74
4.47
4.16
3.77
3.29
2.73
2.14
1.55
0.99
0.43
-0.10
-0.59
-1.04
-1.41
-1.73
-2.04
-2.41
-2.88
-3.47
-4.18
-4.96
-5.75
-6.43
-6.89
-7.08
-7.03
-6.87
-6.80
-6.96
-7.38
-7.96
-8.51
-8.83
-8.83
-8.50
-7.91
-7.14
-6.29
-5.41
-4.57
-3.82
-3.20
-2.72
-2.32
-1.96
-1.59
-1.19
-0.81
-0.48
-0.26
-0.13
-0.00
0.20
0.53
0.93
1.30
1.50
1.48
1.33
1.19
1.22
1.48
1.88
2.24
2.43
2.43
2.35
2.33
2.44
2.66
2.90
3.06
3.13
3.15
3.18
3.22
3.25
3.23
3.16
3.07
3.06
3.20
3.52
3.94
4.36
4.65
4.74
4.62
4.35
4.02
3.70
3.44
3.26
3.16
3.15
3.24
3.40
3.57
3.64
3.55
3.30
2.96
2.64
2.43
2.33
2.30
2.27
2.21
2.14
2.12
2.17
2.29
2.42
2.49
2.48
2.44
2.42
2.46
2.54
2.58
2.50
2.27
1.95
1.65
1.52
1.61
1.86
2.12
2.23
2.16
1.98
1.82
1.79
1.90
2.04
2.08
1.94
1.70
1.51
1.50
1.67
1.88
1.91
1.64
1.12
0.57
0.22
0.21
0.47
0.77
0.89
0.75
0.46
0.19
0.12
0.28
0.56
0.81
0.93
0.95
0.94
1.00
1.16
1.38
1.57
1.70
1.74
1.71
1.63
1.53
1.40
1.24
1.04
0.80
0.52
0.24
0.02
-0.05
0.09
0.41
0.84
1.25
1.50
1.55
1.43
1.23
1.06
1.00
1.07
1.24
1.43
1.55
1.52
1.29
0.88
0.38
-0.07
-0.32
-0.29
-0.01
0.41
0.81
1.07
1.14
1.09
1.00
0.92
0.85
0.77
0.65
0.50
0.39
0.36
0.41
0.48
0.51
0.47
0.38
0.33
0.38
0.55
0.78
0.99
1.09
1.06
0.90
0.66
0.39
0.14
-0.06
-0.20
-0.25
-0.20
-0.05
0.18
0.44
0.67
0.81
0.84
0.75
0.57
0.37
0.21
0.14
0.17
0.26
0.32
0.29
0.13
-0.11
-0.34
-0.41
-0.27
0.06
0.44
0.71
0.75
0.58
0.30
0.06
-0.05
-0.04
0.01
0.06
0.08
0.14
0.32
0.60
0.92
1.15
1.21
1.10
0.92
0.77
0.73
0.79
0.84
0.80
0.60
0.28
-0.03
-0.21
-0.17
0.10
0.49
0.89
1.16
1.24
1.14
0.93
0.68
0.48
0.36
0.33
0.34
0.33
0.25
0.12
-0.02
-0.09
-0.02
0.17
0.40
0.56
0.59
0.50
0.37
0.28
0.24
0.20
0.12
-0.04
-0.22
-0.33
-0.31
-0.17
0.04
0.23
0.33
0.34
0.27
0.15
-0.00
-0.19
-0.39
-0.56
-0.62
-0.56
-0.38
-0.15
0.06
0.16
0.15
0.06
-0.04
-0.12
-0.17
-0.19
-0.19
-0.17
-0.08
0.08
0.30
0.53
0.76
0.98
1.22
1.51
1.85
2.14
2.25
2.07
1.56
0.82
0.06
-0.50
-0.73
-0.62
-0.30
0.07
0.34
0.48
0.53
0.55
0.57
0.56
0.46
0.25
-0.01
-0.24
-0.32
-0.24
-0.07
0.07
0.04
-0.19
-0.56
-0.96
-1.26
-1.40
-1.40
-1.29
-1.11
-0.89
-0.63
-0.35
-0.09
0.08
0.11
0.00
-0.17
-0.33
-0.43
-0.44
-0.40
-0.33
-0.22
-0.04
0.23
0.62
1.11
1.67
2.26
2.83
3.34
3.71
3.93
4.00
3.99
3.97
4.01
4.12
4.26
4.39
4.47
4.54
4.67
4.92
5.30
5.73
6.06
6.09
5.61
4.56
3.02
1.27
-0.34
-1.48
-2.01
-2.01
-1.75
-1.52
-1.53
-1.80
-2.23
-2.67
-3.09
-3.57
-4.29
-5.37
-6.79
-8.39
-9.91
-11.13
-11.94
-12.43
-12.81
-13.42
-14.53
-16.32
-18.74
-21.51
-24.21
-26.48
-28.17
-29.53
-31.07
-33.36
-36.77
-41.27
-46.41
-51.57
-56.17
-59.89
-62.70
-65.00
-67.53
-71.41
-77.75
-87.31
-100.03
-114.95
-130.47
-144.86
-156.78
-165.60
-171.58
-175.60
-178.77
-181.80
-184.32
-184.68
-180.14
-167.79
-145.72
-113.82
-73.79
-28.28
20.43
71.18
123.45
176.35
227.54
273.22
309.31
333.22
345.08
347.69
345.36
342.15
340.64
341.68
344.92
349.71
355.47
361.44
366.13
367.08
361.27
346.13
320.64
285.75
244.07
198.75
152.21
105.30
57.37
7.24
-45.26
-98.31
-147.94
-189.21
-217.97
-232.51
-234.22
-226.81
-214.82
-201.81
-189.55
-178.20
-167.23
-156.39
-146.11
-137.12
-129.80
-123.76
-117.99
-111.38
-103.36
-94.15
-84.65
-75.96
-68.88
-63.57
-59.54
-55.91
-51.83
-46.83
-41.04
-35.09
-29.77
-25.66
-22.91
-21.13
-19.68
-17.95
-15.65
-12.87
-9.94
-7.31
-5.26
-3.91
-3.13
-2.71
-2.39
-2.00
-1.49
-0.96
-0.56
-0.38
-0.36
-0.36
-0.20
0.16
0.63
1.00
1.11
0.93
0.53
0.08
-0.30
-0.58
-0.78
-0.94
-1.05
-1.11
-1.10
-1.03
-0.94
-0.83
-0.69
-0.50
-0.25
0.03
0.29
0.49
0.61
0.68
0.74
0.81
0.91
1.02
1.10
1.10
1.01
0.79
0.49
0.13
-0.23
-0.53
-0.71
-0.77
-0.70
-0.54
-0.34
-0.19
-0.12
-0.17
-0.33
-0.55
-0.81
-1.06
-1.30
-1.55
-1.80
-2.08
-2.32
-2.42
-2.29
-1.86
-1.15
-0.28
0.57
1.28
1.78
2.08
2.24
2.28
2.22
2.09
1.94
1.88
1.95
2.13
2.31
2.39
2.28
2.01
1.62
1.16
0.61
-0.07
-0.90
-1.78
-2.60
-3.21
-3.55
-3.69
-3.71
-3.73
-3.76
-3.77
-3.67
-3.40
-2.98
-2.47
-1.95
-1.47
-1.01
-0.51
0.11
0.89
1.77
2.67
3.46
4.06
4.47
4.74
4.93
5.07
5.13
5.07
4.88
4.61
4.33
4.13
4.04
3.99
3.87
3.59
3.09
2.40
1.65
0.93
0.32
-0.18
-0.61
-0.99
-1.32
-1.57
-1.71
-1.74
-1.70
-1.66
-1.65
-1.66
-1.65
-1.54
-1.31
-1.01
-0.72
-0.58
-0.64
-0.90
-1.28
-1.66
-1.94
-2.09
-2.09
-2.02
-1.93
-1.87
-1.80
-1.70
-1.47
-1.09
-0.57
0.01
0.52
0.85
0.94
0.82
0.61
0.47
0.55
0.89
1.44
2.10
2.70
3.16
3.41
3.47
3.34
3.08
2.72
2.34
2.03
1.89
1.93
2.07
2.18
2.06
1.62
0.86
-0.11
-1.08
-1.87
-2.38
-2.59
-2.58
-2.49
-2.42
-2.45
-2.58
-2.75
-2.91
-3.05
-3.23
-3.50
-3.90
-4.40
-4.85
-5.13
-5.15
-4.92
-4.54
-4.16
-3.90
-3.79
-3.81
-3.88
-3.98
-4.11
-4.31
-4.61
-4.95
-5.21
-5.24
-4.94
-4.34
-3.53
-2.66
-1.80
-0.88
0.20
1.58
3.25
5.04
6.69
7.92
8.59
8.74
8.51
8.14
7.79
7.54
7.37
7.23
7.08
6.87
6.60
6.27
5.85
5.35
4.77
4.17
3.65
3.29
3.15
3.21
3.41
3.63
3.78
3.73
3.41
2.80
1.92
0.88
-0.15
-1.04
-1.76
-2.39
-3.05
-3.83
-4.66
-5.36
-5.71
-5.59
-5.10
-4.48
-4.04
-3.95
-4.19
-4.59
-4.93
-5.02
-4.80
-4.31
-3.63
-2.86
-2.10
-1.42
-0.88
-0.53
-0.39
-0.43
-0.58
-0.75
-0.84
-0.80
-0.64
-0.40
-0.19
-0.05
-0.00
-0.01
-0.00
0.08
0.25
0.51
0.84
1.24
1.67
2.09
2.40
2.52
2.36
1.91
1.26
0.54
-0.14
-0.66
-1.00
-1.14
-1.10
-0.86
-0.49
-0.07
0.29
0.53
0.64
0.76
1.02
1.51
2.16
2.78
3.13
3.04
2.48
1.57
0.56
-0.32
-0.89
-1.08
-0.94
-0.59
-0.21
0.04
0.06
-0.13
-0.44
-0.70
-0.77
-0.61
-0.27
0.10
0.39
0.52
0.48
0.33
0.10
-0.19
-0.51
-0.82
-1.03
-1.03
-0.74
-0.18
0.51
1.19
1.71
1.98
2.01
1.84
1.56
1.25
1.01
0.91
0.97
1.15
1.39
1.60
1.72
1.74
1.67
1.51
1.27
0.94
0.50
-0.03
-0.64
-1.28
-1.89
-2.45
-2.93
-3.34
-3.68
-4.00
-4.29
-4.54
-4.72
-4.81
-4.82
-4.80
-4.83
-4.91
-5.02
-5.09
-5.05
-4.89
-4.58
-4.15
-3.54
-2.71
-1.64
-0.36
1.00
2.27
3.32
4.12
4.73
5.30
5.91
6.57
7.16
7.52
7.53
7.15
6.48
5.67
4.86
4.12
3.46
2.85
2.29
1.79
1.41
1.18
1.10
1.09
1.07
0.97
0.77
0.47
0.12
-0.24
-0.60
-0.92
-1.21
-1.47
-1.68
-1.84
-1.86
-1.67
-1.23
-0.58
0.12
0.65
0.83
0.60
0.10
-0.45
-0.83
-0.94
-0.85
-0.69
-0.62
-0.71
-0.95
-1.28
-1.70
-2.25
-2.98
-3.93
-4.96
-5.86
-6.39
-6.43
-6.02
-5.34
-4.58
-3.86
-3.19
-2.57
-1.98
-1.46
-0.99
-0.43
0.46
1.87
3.84
6.06
8.04
9.26
9.45
8.71
7.41
5.97
4.66
3.47
2.27
0.97
-0.29
-1.22
-1.50
-1.04
-0.02
1.11
1.93
2.15
1.80
1.11
0.41
-0.07
-0.26
-0.20
-0.02
0.17
0.33
0.41
0.39
0.26
0.03
-0.28
-0.57
-0.74
-0.68
-0.34
0.24
0.91
1.43
1.61
1.35
0.70
-0.17
-1.07
-1.83
-2.39
-2.77
-3.01
-3.17
-3.28
-3.39
-3.54
-3.75
-4.02
-4.26
-4.39
-4.34
-4.08
-3.66
-3.16
-2.65
-2.15
-1.68
-1.30
-1.03
-0.93
-0.95
-0.97
-0.83
-0.39
0.39
1.43
2.54
3.54
4.29
4.76
4.99
5.03
4.88
4.55
3.99
3.26
2.46
1.74
1.22
0.92
0.80
0.71
0.53
0.19
-0.27
-0.81
-1.33
-1.82
-2.28
-2.70
-3.06
-3.31
-3.38
-3.30
-3.11
-2.91
-2.78
-2.76
-2.85
-3.04
-3.31
-3.68
-4.12
-4.54
-4.76
-4.57
-3.88
-2.74
-1.35
0.06
1.38
2.62
3.87
5.20
6.49
7.52
8.08
8.09
7.65
6.96
6.21
5.46
4.64
3.71
2.67
1.66
0.86
0.40
0.28
0.40
0.61
0.79
0.91
0.97
1.02
1.08
1.16
1.23
1.27
1.22
1.01
0.58
-0.12
-1.06
-2.13
-3.15
-3.94
-4.40
-4.51
-4.39
-4.15
-3.91
-3.71
-3.59
-3.56
-3.66
-3.91
-4.28
-4.71
-5.13
-5.48
-5.75
-5.95
-6.11
-6.21
-6.25
-6.21
-6.12
-6.03
-6.00
-6.05
-6.19
-6.40
-6.72
-7.17
-7.75
-8.29
-8.45
-7.86
-6.20
-3.40
0.30
4.46
8.55
12.13
14.95
16.92
18.07
18.50
18.31
17.65
16.72
15.73
14.81
14.02
13.26
12.36
11.14
9.49
7.47
5.28
3.19
1.50
0.37
-0.18
-0.24
0.02
0.44
0.90
1.30
1.53
1.47
1.04
0.24
-0.82
-1.97
-3.02
-3.86
-4.40
-4.65
-4.59
-4.25
-3.69
-3.06
-2.54
-2.31
-2.44
-2.85
-3.35
-3.73
-3.85
-3.73
-3.46
-3.23
-3.17
-3.33
-3.66
-4.02
-4.28
-4.40
-4.38
-4.32
-4.31
-4.36
-4.42
-4.41
-4.29
-4.09
-3.91
-3.82
-3.77
-3.63
-3.25
-2.55
-1.61
-0.62
0.25
0.92
1.49
2.10
2.88
3.79
4.65
5.18
5.20
4.69
3.83
2.96
2.36
2.19
2.38
2.72
2.93
2.83
2.39
1.70
0.94
0.25
-0.28
-0.59
-0.67
-0.54
-0.23
0.17
0.56
0.80
0.82
0.60
0.21
-0.26
-0.77
-1.29
-1.86
-2.49
-3.17
-3.80
-4.27
-4.45
-4.28
-3.77
-3.03
-2.21
-1.49
-0.96
-0.68
-0.63
-0.77
-1.07
-1.47
-1.90
-2.22
-2.30
-2.03
-1.43
-0.59
0.36
1.27
2.10
2.86
3.60
4.31
4.94
5.36
5.46
5.19
4.63
3.95
3.33
2.88
2.64
2.52
2.39
2.13
1.70
1.11
0.48
-0.10
-0.52
-0.74
-0.79
-0.74
-0.67
-0.68
-0.80
-1.00
-1.19
-1.28
-1.23
-1.08
-0.94
-0.87
-0.93
-1.05
-1.18
-1.22
-1.19
-1.13
-1.12
-1.18
-1.30
-1.39
-1.40
-1.32
-1.19
-1.09
-1.07
-1.13
-1.20
-1.14
-0.82
-0.19
0.70
1.68
2.53
3.07
3.22
3.02
2.60
2.08
1.55
1.08
0.72
0.50
0.48
0.65
0.93
1.18
1.26
1.10
0.74
0.31
-0.07
-0.31
-0.45
-0.55
-0.69
-0.89
-1.14
-1.35
-1.43
-1.32
-0.99
-0.48
0.16
0.80
1.30
1.55
1.49
1.14
0.60
-0.01
-0.56
-1.00
-1.28
-1.38
-1.30
-1.06
-0.72
-0.43
-0.34
-0.54
-1.04
-1.71
-2.33
-2.70
-2.67
-2.23
-1.49
-0.69
-0.06
0.24
0.18
-0.09
-0.31
-0.21
0.37
1.39
2.61
3.68
4.30
4.30
3.71
2.71
1.60
0.64
0.03
-0.14
0.07
0.53
1.04
1.43
1.59
1.49
1.18
0.76
0.31
-0.13
-0.57
-0.98
-1.33
-1.52
-1.51
-1.34
-1.09
-0.89
-0.82
-0.86
-0.90
-0.82
-0.58
-0.21
0.19
0.49
0.65
0.71
0.76
0.89
1.14
1.45
1.72
1.84
1.73
1.41
0.95
0.42
-0.13
-0.69
-1.28
-1.93
-2.59
-3.21
-3.74
-4.16
-4.52
-4.84
-5.12
-5.29
-5.26
-4.92
-4.24
-3.32
-2.31
-1.40
-0.76
-0.44
-0.41
-0.50
-0.53
-0.27
0.45
1.67
3.26
4.98
6.50
7.52
7.87
7.54
6.67
5.46
4.12
2.77
1.50
0.39
-0.48
-1.00
-1.14
-0.95
-0.58
-0.21
-0.01
-0.05
-0.30
-0.72
-1.28
-1.94
-2.71
-3.51
-4.23
-4.73
-4.92
-4.80
-4.52
-4.26
-4.17
-4.32
-4.65
-5.02
-5.34
-5.54
-5.61
-5.55
-5.34
-4.92
-4.22
-3.25
-2.01
-0.52
1.24
3.28
5.57
7.96
10.13
11.71
12.42
12.15
11.02
9.34
7.49
5.76
4.36
3.36
2.77
2.50
2.44
2.46
2.44
2.31
2.08
1.79
1.51
1.31
1.23
1.29
1.49
1.74
1.93
1.90
1.52
0.79
-0.21
-1.32
-2.39
-3.35
-4.20
-4.95
-5.58
-6.01
-6.16
-5.98
-5.55
-5.01
-4.56
-4.30
-4.26
-4.41
-4.72
-5.16
-5.71
-6.33
-6.93
-7.40
-7.68
-7.76
-7.70
-7.54
-7.29
-6.95
-6.54
-6.19
-6.10
-6.43
-7.20
-8.18
-8.93
-8.94
-7.82
-5.42
-1.87
2.46
7.08
11.46
15.17
17.91
19.59
20.28
20.19
19.57
18.63
17.47
16.11
14.58
12.89
11.12
9.40
7.79
6.32
4.97
3.72
2.57
1.58
0.85
0.48
0.50
0.85
1.41
2.04
2.59
2.93
2.95
2.55
1.65
0.26
-1.53
-3.46
-5.23
-6.57
-7.35
-7.61
-7.50
-7.18
-6.73
-6.13
-5.34
-4.40
-3.47
-2.78
-2.49
-2.65
-3.07
-3.50
-3.68
-3.56
-3.24
-2.97
-2.95
-3.25
-3.77
-4.31
-4.68
-4.78
-4.63
-4.30
-3.93
-3.61
-3.41
-3.35
-3.41
-3.52
-3.56
-3.39
-2.92
-2.19
-1.29
-0.36
0.45
1.14
1.71
2.21
2.65
2.98
3.11
2.97
2.58
1.96
1.21
0.44
-0.22
-0.62
-0.63
-0.21
0.56
1.46
2.20
2.58
2.54
2.24
1.94
1.86
2.10
2.60
3.22
3.81
4.25
4.46
4.36
3.88
3.01
1.82
0.49
-0.76
-1.76
-2.46
-2.89
-3.12
-3.21
-3.14
-2.90
-2.45
-1.80
-1.01
-0.17
0.58
1.08
1.21
0.89
0.17
-0.78
-1.75
-2.51
-2.93
-3.00
-2.76
-2.32
-1.76
-1.16
-0.58
-0.03
0.53
1.10
1.71
2.34
2.92
3.38
3.66
3.77
3.83
3.97
4.31
4.86
5.48
5.92
5.95
5.48
4.56
3.39
2.22
1.21
0.38
-0.34
-1.07
-1.86
-2.64
-3.31
-3.79
-4.11
-4.36
-4.69
-5.14
-5.70
-6.24
-6.64
-6.85
-6.91
-6.89
-6.88
-6.85
-6.71
-6.38
-5.87
-5.28
-4.76
-4.35
-3.96
-3.37
-2.34
-0.77
1.30
3.69
6.15
8.48
10.49
12.02
12.91
13.05
12.40
11.10
9.41
7.66
6.12
4.93
4.06
3.36
2.73
2.10
1.48
0.94
0.55
0.32
0.22
0.16
0.05
-0.20
-0.62
-1.21
-1.91
-2.65
-3.34
-3.90
-4.26
-4.38
-4.20
-3.71
-2.93
-1.96
-0.96
-0.12
0.39
0.51
0.33
-0.03
-0.41
-0.74
-1.02
-1.29
-1.55
-1.76
-1.85
-1.80
-1.67
-1.61
-1.77
-2.22
-2.89
-3.57
-3.98
-3.97
-3.49
-2.69
-1.74
-0.87
-0.20
0.20
0.34
0.34
0.41
0.82
1.79
3.37
5.32
7.16
8.33
8.43
7.44
5.72
3.86
2.39
1.55
1.25
1.16
0.95
0.48
-0.19
-0.83
-1.19
-1.18
-0.84
-0.36
0.05
0.22
0.13
-0.16
-0.55
-0.96
-1.38
-1.85
-2.41
-3.04
-3.62
-3.97
-3.94
-3.48
-2.72
-1.88
-1.19
-0.76
-0.58
-0.56
-0.57
-0.53
-0.47
-0.46
-0.56
-0.79
-1.10
-1.43
-1.69
-1.85
-1.92
-1.93
-1.97
-2.11
-2.44
-2.96
-3.66
-4.44
-5.15
-5.65
-5.83
-5.65
-5.14
-4.38
-3.47
-2.55
-1.70
-0.93
-0.10
1.00
2.63
4.90
7.68
10.56
12.95
14.31
14.38
13.28
11.43
9.31
7.29
5.51
3.94
2.53
1.32
0.43
-0.07
-0.21
-0.19
-0.29
-0.72
-1.51
-2.51
-3.46
-4.12
-4.41
-4.38
-4.21
-4.11
-4.21
-4.50
-4.88
-5.19
-5.31
-5.22
-5.01
-4.78
-4.65
-4.66
-4.78
-4.93
-4.99
-4.89
-4.52
-3.84
-2.83
-1.60
-0.30
0.89
1.86
2.58
3.17
3.75
4.44
5.25
6.11
6.91
7.54
7.93
8.07
7.94
7.50
6.76
5.75
4.59
3.45
2.53
1.98
1.83
1.98
2.26
2.49
2.55
2.44
2.20
1.91
1.61
1.28
0.87
0.32
-0.36
-1.12
-1.85
-2.48
-3.00
-3.45
-3.89
-4.37
-4.85
-5.28
-5.59
-5.76
-5.83
-5.86
-5.90
-5.96
-6.01
-6.03
-6.02
-5.98
-5.93
-5.84
-5.68
-5.42
-5.05
-4.62
-4.19
-3.82
-3.54
-3.38
-3.40
-3.63
-4.11
-4.80
-5.58
-6.28
-6.66
-6.51
-5.71
-4.28
-2.36
-0.15
2.16
4.41
6.53
8.48
10.17
11.52
12.37
12.66
12.36
11.62
10.63
9.57
8.60
7.79
7.16
6.70
6.34
6.00
5.58
5.02
4.35
3.68
3.20
3.03
3.26
3.83
4.57
5.26
5.65
5.55
4.84
3.53
1.80
-0.05
-1.70
-2.95
-3.75
-4.20
-4.50
-4.80
-5.11
-5.31
-5.27
-4.89
-4.23
-3.44
-2.73
-2.27
-2.14
-2.31
-2.67
-3.10
-3.50
-3.80
-3.95
-3.97
-3.86
-3.63
-3.30
-2.89
-2.49
-2.20
-2.11
-2.23
-2.53
-2.84
-3.00
-2.89
-2.49
-1.89
-1.20
-0.55
0.07
0.70
1.45
2.34
3.32
4.23
4.91
5.26
5.27
5.02
4.59
4.03
3.35
2.55
1.68
0.84
0.17
-0.25
-0.40
-0.38
-0.31
-0.30
-0.38
-0.50
-0.60
-0.60
-0.46
-0.18
0.20
0.63
1.02
1.26
1.26
0.97
0.41
-0.31
-1.06
-1.69
-2.15
-2.45
-2.67
-2.85
-3.04
-3.18
-3.25
-3.20
-3.02
-2.76
-2.47
-2.20
-2.00
-1.91
-1.92
-2.00
-2.09
-2.13
-2.02
-1.78
-1.41
-0.97
-0.51
-0.04
0.46
1.00
1.58
2.16
2.67
3.06
3.29
3.43
3.56
3.78
4.12
4.57
5.03
5.41
5.62
5.63
5.43
5.00
4.30
3.32
2.09
0.72
-0.65
-1.86
-2.81
-3.51
-4.03
-4.46
-4.84
-5.17
-5.41
-5.55
-5.57
-5.51
-5.40
-5.26
-5.14
-5.06
-4.99
-4.89
-4.71
-4.34
-3.75
-2.91
-1.82
-0.53
0.89
2.36
3.74
4.91
5.74
6.22
6.40
6.42
6.43
6.51
6.63
6.68
6.51
6.02
5.22
4.24
3.21
2.28
1.50
0.89
0.40
0.02
-0.26
-0.43
-0.49
-0.48
-0.48
-0.56
-0.78
-1.11
-1.48
-1.76
-1.84
-1.68
-1.29
-0.78
-0.29
0.05
0.21
0.23
0.21
0.21
0.28
0.38
0.45
0.42
0.27
0.08
-0.07
-0.09
0.05
0.27
0.48
0.53
0.36
-0.06
-0.68
-1.41
-2.16
-2.83
-3.35
-3.64
-3.68
-3.50
-3.18
-2.82
-2.55
-2.43
-2.43
-2.50
-2.52
-2.37
-1.98
-1.33
-0.50
0.40
1.25
1.95
2.44
2.67
2.63
2.33
1.82
1.21
0.62
0.17
-0.10
-0.23
-0.31
-0.39
-0.44
-0.36
-0.04
0.55
1.32
2.08
2.61
2.78
2.54
1.98
1.24
0.47
-0.17
-0.63
-0.89
-1.00
-1.05
-1.13
-1.29
-1.53
-1.83
-2.13
-2.41
-2.64
-2.80
-2.86
-2.81
-2.67
-2.50
-2.37
-2.32
-2.25
-2.00
-1.35
-0.17
1.51
3.49
5.44
7.07
8.15
8.64
8.59
8.17
7.49
6.65
5.71
4.68
3.60
2.50
1.40
0.34
-0.70
-1.71
-2.67
-3.57
-4.38
-5.07
-5.70
-6.35
-7.06
-7.86
-8.63
-9.25
-9.59
-9.66
-9.57
-9.47
-9.51
-9.68
-9.88
-9.94
-9.75
-9.34
-8.85
-8.47
-8.29
-8.29
-8.33
-8.31
-8.21
-8.15
-8.30
-8.71
-9.29
-9.82
-10.05
-9.83
-9.16
-8.15
-6.88
-5.35
-3.46
-1.12
1.64
4.71
7.90
11.09
14.24
17.38
20.39
23.07
25.08
26.11
26.05
25.00
23.27
21.23
19.22
17.49
16.22
15.58
15.66
16.39
17.56
18.83
19.86
20.40
20.30
19.48
17.89
15.54
12.47
8.84
4.88
0.87
-2.97
-6.49
-9.57
-12.11
-13.96
-14.98
-15.15
-14.66
-13.89
-13.31
-13.23
-13.68
-14.33
-14.64
-14.12
-12.58
-10.27
-7.84
-6.08
-5.58
-6.44
-8.14
-9.69
-10.03
-8.52
-5.23
-0.98
3.00
5.58
6.19
4.96
2.62
0.20
-1.32
-1.31
0.37
3.29
6.60
9.29
10.56
10.10
8.24
5.74
3.44
1.91
1.22
1.03
0.85
0.32
-0.69
-2.06
-3.57
-4.96
-6.01
-6.55
-6.50
-5.87
-4.81
-3.55
-2.38
-1.59
-1.37
-1.79
-2.79
-4.15
-5.55
-6.56
-6.80
-6.05
-4.38
-2.13
0.10
1.71
2.30
1.83
0.63
-0.80
-1.98
-2.62
-2.69
-2.35
-1.82
-1.34
-1.02
-0.94
-1.10
-1.46
-1.97
-2.57
-3.20
-3.81
-4.34
-4.72
-4.87
-4.67
-4.06
-3.02
-1.67
-0.21
1.14
2.28
3.23
4.11
5.06
6.09
7.05
7.69
7.79
7.27
6.28
5.02
3.70
2.40
1.11
-0.23
-1.56
-2.74
-3.58
-3.99
-4.00
-3.82
-3.67
-3.72
-4.00
-4.39
-4.77
-5.10
-5.45
-5.93
-6.67
-7.66
-8.83
-10.00
-11.05
-11.95
-12.79
-13.78
-15.14
-17.00
-19.34
-21.98
-24.60
-26.98
-29.05
-31.05
-33.41
-36.55
-40.67
-45.58
-50.76
-55.59
-59.73
-63.30
-66.93
-71.44
-77.50
-85.19
-93.96
-102.91
-111.17
-118.34
-124.65
-130.83
-137.83
-146.47
-157.29
-170.35
-185.10
-200.19
-213.42
-221.98
-223.02
-214.56
-196.06
-168.67
-134.64
-96.38
-55.46
-12.29
33.38
81.42
130.18
176.29
215.41
243.88
260.15
265.44
263.09
257.07
250.41
244.47
239.15
233.90
228.71
224.45
222.46
223.63
227.81
233.66
239.25
242.98
244.23
243.66
242.79
243.21
245.91
250.84
257.15
263.55
268.72
271.36
270.16
263.71
250.70
230.39
202.98
169.67
132.21
92.17
50.25
6.23
-40.39
-89.30
-138.48
-184.19
-221.82
-247.58
-259.90
-260.00
-251.28
-237.88
-223.16
-208.83
-195.14
-181.70
-168.40
-155.76
-144.59
-135.40
-127.88
-121.02
-113.60
-104.88
-94.93
-84.60
-75.09
-67.33
-61.59
-57.40
-53.78
-49.75
-44.74
-38.81
-32.55
-26.83
-22.30
-19.18
-17.15
-15.57
-13.83
-11.59
-8.89
-6.06
-3.46
-1.32
0.31
1.50
2.32
2.80
2.91
2.63
1.99
1.06
-0.07
-1.31
-2.59
-3.82
-4.89
-5.71
-6.24
-6.52
-6.61
-6.56
-6.39
-6.04
-5.47
-4.66
-3.67
-2.58
-1.46
-0.35
0.72
1.71
2.54
3.08
3.19
2.83
2.08
1.09
0.03
-0.96
-1.81
-2.50
-3.02
-3.36
-3.48
-3.39
-3.13
-2.77
-2.38
-1.97
-1.55
-1.11
-0.65
-0.23
0.09
0.28
0.37
0.42
0.54
0.74
0.96
1.06
0.93
0.55
0.04
-0.41
-0.61
-0.53
-0.30
-0.19
-0.41
-1.09
-2.13
-3.28
-4.26
-4.89
-5.11
-4.99
-4.70
-4.35
-4.05
-3.81
-3.64
-3.51
-3.44
-3.42
-3.44
-3.48
-3.51
-3.53
-3.60
-3.75
-4.02
-4.41
-4.85
-5.26
-5.51
-5.52
-5.27
-4.82
-4.30
-3.86
-3.63
-3.57
-3.44
-2.95
-1.83
-0.05
2.17
4.43
6.36
7.71
8.51
8.96
9.25
9.47
9.51
9.19
8.36
7.06
5.50
3.99
2.77
1.96
1.52
1.31
1.22
1.21
1.33
1.62
2.09
2.68
3.29
3.86
4.29
4.54
4.55
4.29
3.77
3.07
2.32
1.69
1.30
1.15
1.17
1.25
1.28
1.27
1.32
1.61
2.27
3.29
4.46
5.46
6.00
5.91
5.30
4.46
3.73
3.37
3.40
3.59
3.57
2.96
1.47
-1.01
-4.40
-8.46
-12.86
-17.24
-21.35
-25.03
-28.29
-31.17
-33.70
-35.78
-37.27
-38.09
-38.42
-38.74
-39.70
-41.82
-45.20
-49.34
-53.39
-56.52
-58.29
-58.81
-58.63
-58.43
-58.74
-60.05
-62.73
-66.84
-71.56
-74.75
-73.06
-62.93
-42.23
-11.65
25.00
62.01
93.79
116.91
130.92
137.88
141.04
143.53
147.46
153.54
160.85
166.76
167.38
158.35
136.55
101.67
57.12
9.84
-30.93
-55.64
-56.79
-31.39
17.41
80.05
142.33
189.06
208.64
196.62
156.87
99.72
38.04
-17.04
-58.85
-85.64
-99.21
-102.97
-100.33
-94.01
-86.12
-78.37
-72.10
-68.10
-66.33
-65.91
-65.24
-62.75
-57.57
-50.07
-41.70
-34.39
-29.70
-28.15
-28.99
-30.60
-31.35
-30.21
-27.19
-23.15
-19.32
-16.75
-15.82
-16.20
-17.07
-17.51
-16.89
-15.07
-12.35
-9.37
-6.75
-4.94
-4.03
-3.81
-3.88
-3.79
-3.28
-2.24
-0.79
0.82
2.30
3.42
4.07
4.21
3.94
3.43
2.85
2.37
2.10
2.03
2.14
2.36
2.57
2.66
2.45
1.79
0.68
-0.72
-2.01
-2.74
-2.59
-1.56
0.03
1.60
2.60
2.73
1.99
0.65
-0.91
-2.38
-3.56
-4.44
-5.03
-5.40
-5.55
-5.45
-5.05
-4.36
-3.47
-2.54
-1.75
-1.20
-0.85
-0.59
-0.18
0.60
1.94
3.96
6.66
9.84
13.12
15.94
17.66
17.83
16.31
13.37
9.60
5.65
2.02
-1.05
-3.56
-5.61
-7.30
