1660931591.00
64.000000
-0.00
-0.00
-0.00
-0.00
-0.00
-0.00
-0.00
-0.00
-0.00
-0.00
0.00
0.01
0.01
-0.00
-0.03
-0.05
-0.05
0.00
0.13
0.36
0.66
1.01
1.37
1.72
2.06
2.40
2.79
3.25
3.81
4.44
5.09
5.73
6.32
6.91
7.54
8.27
9.15
10.23
11.42
12.60
13.68
14.62
15.50
16.52
17.88
19.70
22.18
25.08
28.14
31.09
33.81
36.42
39.27
42.78
47.23
52.91
59.42
66.25
72.88
79.09
85.07
91.39
98.71
107.42
117.88
129.41
141.22
152.57
163.18
173.37
183.96
196.20
208.51
222.74
239.18
257.83
277.76
296.54
310.38
314.94
306.78
284.53
249.89
206.16
157.51
107.48
58.24
10.77
-34.65
-77.80
-118.40
-156.14
-191.73
-226.54
-262.15
-299.35
-337.14
-372.42
-400.63
-417.36
-419.89
-408.51
-386.36
-358.21
-328.61
-300.49
-274.82
-251.13
-228.67
-207.05
-186.59
-167.84
-151.03
-135.87
-121.68
-107.82
-93.98
-80.33
-67.43
-55.85
-45.94
-37.66
-30.55
-24.00
-17.51
-10.91
-4.38
1.62
6.66
10.51
13.27
15.31
17.10
19.01
21.15
23.39
25.43
26.94
27.76
27.87
27.44
26.71
25.88
25.10
24.40
23.75
23.08
22.39
21.67
20.96
20.28
19.64
19.03
18.46
17.97
17.60
17.39
17.31
17.27
17.12
16.79
16.26
15.63
15.03
14.55
14.20
13.94
13.66
13.33
12.95
12.59
12.30
12.08
11.91
11.69
11.40
11.01
10.62
10.31
10.15
10.13
10.15
10.09
9.82
9.29
8.57
7.76
6.98
6.35
5.89
5.60
5.45
5.40
5.37
5.32
5.18
4.91
4.50
3.97
3.33
2.68
2.06
1.54
1.17
0.94
0.78
0.60
0.30
-0.17
-0.79
-1.49
-2.17
-2.77
-3.28
-3.74
-4.24
-4.79
-5.38
-5.97
-6.46
-6.83
-7.08
-7.28
-7.53
-7.93
-8.52
-9.29
-10.16
-11.02
-11.74
-12.21
-12.37
-12.22
-11.83
-11.29
-10.71
-10.20
-9.81
-9.49
-9.14
-8.57
-7.62
-6.22
-4.40
-2.36
-0.35
1.41
2.81
3.85
4.65
5.31
5.93
6.51
7.06
7.60
8.20
8.91
9.71
10.46
10.96
11.04
10.64
9.85
8.86
7.86
6.97
6.24
5.63
5.12
4.72
4.46
4.34
4.33
4.40
4.50
4.62
4.79
5.00
5.22
5.41
5.53
5.56
5.52
5.46
5.40
5.35
5.31
5.29
5.29
5.34
5.41
5.44
5.32
4.92
4.19
3.17
2.00
0.87
-0.08
-0.78
-1.24
-1.48
-1.55
-1.42
-1.12
-0.69
-0.25
0.09
0.20
0.08
-0.19
-0.49
-0.70
-0.78
-0.75
-0.67
-0.59
-0.56
-0.58
-0.65
-0.73
-0.81
-0.84
-0.76
-0.51
-0.04
0.63
1.41
2.16
2.70
2.93
2.84
2.54
2.23
2.08
2.18
2.55
3.08
3.64
4.10
4.38
4.43
4.23
3.82
3.27
2.65
2.05
1.51
1.07
0.72
0.45
0.27
0.20
0.24
0.40
0.64
0.90
1.14
1.37
1.58
1.77
1.89
1.89
1.71
1.37
0.97
0.62
0.44
0.44
0.52
0.54
0.39
0.06
-0.36
-0.72
-0.92
-0.90
-0.73
-0.45
-0.12
0.25
0.64
1.02
1.32
1.45
1.38
1.13
0.80
0.54
0.43
0.50
0.70
0.95
1.15
1.24
1.19
1.00
0.74
0.48
0.31
0.26
0.32
0.43
0.50
0.45
0.24
-0.08
-0.45
-0.77
-0.98
-1.02
-0.91
-0.70
-0.44
-0.18
0.07
0.31
0.54
0.73
0.86
0.90
0.86
0.79
0.76
0.82
0.93
1.00
0.92
0.68
0.36
0.07
-0.05
-0.00
0.18
0.43
0.73
1.12
1.68
2.47
3.44
4.47
5.41
6.15
6.67
7.00
7.21
7.30
7.18
6.75
5.96
4.87
3.69
2.67
1.97
1.66
1.64
1.76
1.91
2.06
2.25
2.50
2.75
2.91
2.92
2.80
2.66
2.63
2.80
3.07
3.28
3.19
2.65
1.62
0.21
-1.35
-2.77
-3.82
-4.39
-4.49
-4.28
-3.97
-3.76
-3.78
-4.01
-4.37
-4.69
-4.85
-4.81
-4.59
-4.30
-4.05
-3.92
-3.93
-4.05
-4.21
-4.34
-4.36
-4.23
-3.95
-3.47
-2.82
-2.03
-1.19
-0.40
0.24
0.67
0.87
0.88
0.75
0.54
0.25
-0.09
-0.48
-0.84
-1.11
-1.19
-1.03
-0.65
-0.11
0.46
0.91
1.16
1.16
0.95
0.58
0.14
-0.30
-0.69
-0.98
-1.13
-1.12
-0.98
-0.77
-0.60
-0.60
-0.80
-1.17
-1.61
-1.94
-2.05
-1.86
-1.36
-0.61
0.26
1.14
1.91
2.52
2.95
3.25
3.53
3.85
4.21
4.58
4.89
5.11
5.22
5.24
5.14
4.88
4.42
3.79
3.06
2.35
1.78
1.38
1.11
0.90
0.68
0.41
0.12
-0.23
-0.66
-1.22
-1.89
-2.59
-3.19
-3.57
-3.69
-3.59
-3.40
-3.22
-3.12
-3.11
-3.16
-3.27
-3.44
-3.67
-3.96
-4.26
-4.54
-4.75
-4.90
-5.02
-5.15
-5.29
-5.43
-5.55
-5.64
-5.69
-5.69
-5.55
-5.20
-4.54
-3.55
-2.31
-0.95
0.40
1.65
2.78
3.82
4.79
5.68
6.45
7.04
7.42
7.60
7.65
7.65
7.63
7.61
7.55
7.39
7.08
6.66
6.20
5.85
5.70
5.80
6.06
6.33
6.42
6.20
5.63
4.78
3.75
2.66
1.56
0.51
-0.40
-1.07
-1.44
-1.53
-1.45
-1.37
-1.44
-1.70
-2.07
-2.42
-2.60
-2.55
-2.29
-1.92
-1.55
-1.27
-1.09
-0.97
-0.89
-0.79
-0.72
-0.72
-0.85
-1.11
-1.41
-1.65
-1.74
-1.68
-1.55
-1.47
-1.50
-1.63
-1.74
-1.75
-1.61
-1.37
-1.12
-0.93
-0.84
-0.78
-0.70
-0.54
-0.25
0.15
0.61
1.04
1.32
1.37
1.19
0.83
0.41
0.04
-0.24
-0.43
-0.58
-0.70
-0.77
-0.76
-0.65
-0.48
-0.31
-0.26
-0.35
-0.59
-0.88
-1.15
-1.29
-1.26
-1.06
-0.73
-0.37
-0.07
0.07
0.02
-0.17
-0.44
-0.70
-0.91
-1.04
-1.07
-1.01
-0.85
-0.64
-0.43
-0.32
-0.35
-0.51
-0.72
-0.85
-0.83
-0.64
-0.35
-0.06
0.12
0.15
0.09
-0.02
-0.11
-0.20
-0.33
-0.52
-0.76
-0.99
-1.13
-1.13
-0.97
-0.71
-0.39
-0.02
0.39
0.83
1.24
1.52
1.57
1.39
1.07
0.77
0.63
0.65
0.75
0.79
0.69
0.46
0.21
0.08
0.08
0.16
0.18
0.05
-0.21
-0.48
-0.64
-0.58
-0.33
0.03
0.39
0.69
0.90
1.03
1.09
1.10
1.03
0.89
0.73
0.60
0.56
0.65
0.84
1.08
1.25
1.26
1.06
0.65
0.13
-0.35
-0.64
-0.69
-0.50
-0.18
0.13
0.33
0.37
0.27
0.08
-0.13
-0.32
-0.46
-0.54
-0.52
-0.36
-0.08
0.27
0.59
0.75
0.67
0.36
-0.09
-0.52
-0.82
-0.93
-0.89
-0.78
-0.70
-0.67
-0.66
-0.61
-0.46
-0.20
0.10
0.39
0.57
0.66
0.67
0.69
0.76
0.92
1.11
1.27
1.33
1.27
1.09
0.85
0.57
0.25
-0.09
-0.43
-0.73
-0.90
-0.92
-0.78
-0.54
-0.26
0.01
0.24
0.41
0.51
0.50
0.38
0.18
-0.05
-0.25
-0.40
-0.48
-0.52
-0.51
-0.44
-0.32
-0.17
-0.08
-0.11
-0.31
-0.64
-1.02
-1.35
-1.57
-1.62
-1.50
-1.22
-0.85
-0.47
-0.19
-0.06
-0.03
0.01
0.17
0.52
1.00
1.45
1.74
1.82
1.74
1.61
1.51
1.45
1.35
1.13
0.75
0.27
-0.24
-0.67
-0.95
-1.07
-1.06
-0.98
-0.86
-0.73
-0.59
-0.42
-0.22
-0.03
0.10
0.13
0.06
-0.08
-0.19
-0.21
-0.07
0.19
0.49
0.73
0.80
0.69
0.43
0.12
-0.14
-0.28
-0.27
-0.09
0.21
0.60
0.98
1.23
1.23
0.97
0.49
-0.05
-0.48
-0.67
-0.62
-0.42
-0.20
-0.06
-0.05
-0.16
-0.32
-0.48
-0.57
-0.54
-0.36
-0.08
0.19
0.35
0.32
0.12
-0.18
-0.48
-0.70
-0.82
-0.83
-0.76
-0.62
-0.42
-0.20
-0.03
0.06
0.06
0.04
0.09
0.23
0.43
0.58
0.59
0.44
0.18
-0.07
-0.23
-0.29
-0.29
-0.27
-0.24
-0.13
0.15
0.57
1.03
1.35
1.40
1.17
0.79
0.45
0.29
0.33
0.44
0.49
0.38
0.15
-0.08
-0.20
-0.20
-0.15
-0.18
-0.35
-0.64
-0.95
-1.16
-1.18
-1.04
-0.80
-0.51
-0.25
-0.04
0.10
0.14
0.04
-0.20
-0.53
-0.84
-1.03
-1.02
-0.82
-0.53
-0.25
-0.06
0.03
0.07
0.13
0.23
0.33
0.38
0.34
0.21
0.03
-0.18
-0.42
-0.69
-0.99
-1.27
-1.42
-1.38
-1.13
-0.73
-0.29
0.11
0.45
0.75
1.03
1.26
1.38
1.31
1.04
0.66
0.33
0.20
0.32
0.65
1.03
1.29
1.31
1.04
0.58
0.05
-0.41
-0.76
-1.00
-1.16
-1.29
-1.33
-1.25
-0.99
-0.56
-0.07
0.36
0.62
0.62
0.39
0.02
-0.38
-0.68
-0.81
-0.74
-0.52
-0.22
0.09
0.32
0.44
0.45
0.36
0.20
0.02
-0.16
-0.28
-0.32
-0.26
-0.11
0.08
0.25
0.34
0.35
0.31
0.25
0.20
0.18
0.15
0.10
0.03
-0.08
-0.21
-0.34
-0.41
-0.35
-0.14
0.22
0.64
0.98
1.13
1.05
0.79
0.46
0.14
-0.14
-0.41
-0.67
-0.91
-1.05
-1.04
-0.91
-0.75
-0.71
-0.84
-1.09
-1.34
-1.43
-1.30
-0.97
-0.55
-0.14
0.20
0.44
0.63
0.77
0.88
0.91
0.86
0.73
0.59
0.48
0.43
0.44
0.45
0.41
0.26
0.03
-0.26
-0.55
-0.79
-0.96
-1.05
-1.09
-1.09
-1.06
-1.00
-0.92
-0.78
-0.54
-0.16
0.32
0.83
1.21
1.36
1.26
1.00
0.72
0.55
0.50
0.52
0.50
0.40
0.24
0.14
0.15
0.26
0.36
0.29
-0.03
-0.57
-1.18
-1.64
-1.80
-1.61
-1.18
-0.63
-0.10
0.31
0.56
0.64
0.55
0.32
-0.03
-0.43
-0.81
-1.12
-1.28
-1.27
-1.07
-0.69
-0.21
0.27
0.63
0.78
0.70
0.49
0.25
0.12
0.10
0.17
0.22
0.23
0.19
0.17
0.17
0.14
0.01
-0.28
-0.69
-1.08
-1.26
-1.13
-0.70
-0.17
0.26
0.39
0.17
-0.33
-0.93
-1.45
-1.77
-1.87
-1.82
-1.75
-1.77
-1.92
-2.15
-2.31
-2.31
-2.07
-1.66
-1.22
-0.90
-0.78
-0.87
-1.10
-1.38
-1.62
-1.79
-1.88
-1.91
-1.89
-1.84
-1.72
-1.52
-1.23
-0.84
-0.36
0.29
1.17
2.33
3.72
5.16
6.39
7.18
7.51
7.51
7.47
7.60
7.94
8.34
8.56
8.47
8.09
7.57
7.02
6.46
5.76
4.81
3.57
2.14
0.71
-0.58
-1.71
-2.77
-3.79
-4.75
-5.49
-5.85
-5.78
-5.39
-4.90
-4.48
-4.23
-4.05
-3.80
-3.36
-2.75
-2.05
-1.42
-0.99
-0.78
-0.75
-0.81
-0.87
-0.90
-0.91
-0.97
-1.14
-1.46
-1.93
-2.44
-2.88
-3.15
-3.18
-2.96
-2.54
-1.99
-1.39
-0.82
-0.31
0.16
0.61
1.10
1.69
2.38
3.14
3.92
4.64
5.20
5.55
5.64
5.46
5.00
4.34
3.58
2.88
2.33
1.99
1.80
1.65
1.43
1.13
0.81
0.56
0.45
0.45
0.45
0.36
0.13
-0.18
-0.51
-0.78
-0.99
-1.15
-1.28
-1.36
-1.33
-1.15
-0.80
-0.32
0.21
0.70
1.05
1.20
1.10
0.75
0.21
-0.43
-1.05
-1.56
-1.88
-1.97
-1.85
-1.58
-1.24
-0.98
-0.90
-1.07
-1.48
-1.98
-2.39
-2.57
-2.45
-2.12
-1.71
-1.37
-1.19
-1.18
-1.30
-1.48
-1.62
-1.68
-1.62
-1.41
-1.13
-0.86
-0.72
-0.76
-0.96
-1.20
-1.40
-1.49
-1.50
-1.51
-1.57
-1.69
-1.80
-1.83
-1.73
-1.55
-1.36
-1.26
-1.29
-1.45
-1.66
-1.88
-2.06
-2.19
-2.25
-2.22
-2.06
-1.71
-1.13
-0.36
0.53
1.40
2.11
2.59
2.86
2.98
3.03
3.05
2.99
2.83
2.55
2.24
2.03
2.03
2.24
2.52
2.70
2.60
2.21
1.66
1.18
0.98
1.15
1.62
2.22
2.75
3.10
3.23
3.21
3.09
2.92
2.69
2.38
1.96
1.44
0.86
0.32
-0.12
-0.44
-0.66
-0.82
-0.98
-1.14
-1.28
-1.34
-1.30
-1.14
-0.91
-0.66
-0.45
-0.34
-0.32
-0.38
-0.47
-0.55
-0.58
-0.53
-0.42
-0.25
-0.03
0.20
0.42
0.59
0.66
0.59
0.42
0.18
-0.05
-0.23
-0.32
-0.33
-0.30
-0.26
-0.27
-0.35
-0.49
-0.65
-0.80
-0.90
-0.94
-0.92
-0.85
-0.75
-0.62
-0.45
-0.27
-0.10
0.02
0.04
-0.06
-0.27
-0.57
-0.89
-1.13
-1.23
-1.16
-0.97
-0.75
-0.60
-0.55
-0.55
-0.54
-0.46
-0.33
-0.22
-0.23
-0.38
-0.62
-0.86
-1.00
-0.99
-0.84
-0.63
-0.42
-0.28
-0.24
-0.30
-0.44
-0.60
-0.70
-0.68
-0.49
-0.15
0.29
0.75
1.16
1.47
1.67
1.75
1.75
1.70
1.63
1.53
1.39
1.14
0.79
0.34
-0.11
-0.46
-0.64
-0.66
-0.60
-0.55
-0.57
-0.62
-0.60
-0.46
-0.18
0.16
0.45
0.59
0.59
0.49
0.36
0.21
0.02
-0.19
-0.41
-0.55
-0.59
-0.51
-0.38
-0.26
-0.19
-0.18
-0.18
-0.19
-0.21
-0.27
-0.37
-0.46
-0.50
-0.45
-0.32
-0.15
-0.00
0.11
0.19
0.28
0.38
0.52
0.67
0.79
0.85
0.84
0.76
0.62
0.44
0.24
0.06
-0.07
-0.14
-0.14
-0.10
-0.04
-0.03
-0.08
-0.18
-0.26
-0.25
-0.13
0.10
0.36
0.57
0.63
0.55
0.34
0.11
-0.08
-0.15
-0.06
0.17
0.50
0.85
1.16
1.35
1.37
1.21
0.93
0.61
0.35
0.22
0.23
0.33
0.46
0.57
0.64
0.67
0.69
0.68
0.63
0.53
0.39
0.24
0.12
0.04
-0.00
-0.03
-0.06
-0.09
-0.14
-0.21
-0.29
-0.38
-0.44
-0.41
-0.28
-0.05
0.26
0.56
0.81
0.94
0.92
0.74
0.40
-0.08
-0.64
-1.24
-1.83
-2.40
-2.95
-3.52
-4.13
-4.75
-5.28
-5.66
-5.86
-5.94
-6.01
-6.17
-6.41
-6.64
-6.72
-6.58
-6.24
-5.86
-5.71
-6.02
-6.94
-8.47
-10.40
-12.42
-14.21
-15.49
-16.24
-16.66
-17.21
-18.42
-20.66
-23.95
-27.89
-31.80
-35.01
-37.20
-38.61
-40.00
-42.31
-46.24
-51.88
-58.55
-65.16
-70.63
-74.45
-76.96
-79.17
-82.39
-87.72
-95.67
-105.87
-116.92
-126.17
-129.94
-124.20
-105.98
-74.89
-33.95
10.90
52.63
85.54
106.99
117.76
120.83
119.50
115.99
111.10
104.87
97.50
89.87
83.28
78.75
76.44
75.56
74.74
72.77
69.10
64.01
58.45
53.49
49.83
47.51
45.91
44.12
41.45
37.74
33.43
29.31
26.13
24.25
23.55
23.52
23.52
22.98
21.57
19.28
16.43
13.55
11.29
10.12
10.19
11.21
12.57
13.61
13.87
13.33
12.48
12.06
12.75
14.85
18.06
21.60
24.48
25.98
25.93
24.89
23.96
24.33
26.90
32.01
39.30
47.77
55.71
60.85
60.80
53.96
40.37
22.22
3.30
-12.34
-22.02
-25.30
-23.88
-20.22
-16.26
-12.45
-8.02
-1.69
7.40
19.18
32.34
44.21
50.96
48.31
32.97
4.51
-33.73
-75.25
-112.51
-139.69
-154.50
-158.14
-153.82
-144.75
-133.11
-120.16
-107.17
-95.86
-88.00
-84.43
-84.19
-84.75
-83.25
-77.82
-68.59
-57.45
-47.16
-39.98
-36.76
-36.68
-37.81
-38.05
-36.11
-32.08
-27.23
-23.30
-21.75
-23.13
-27.04
-32.77
-39.89
-48.77
-60.22
-74.45
-89.86
-102.67
-107.78
-100.77
-79.92
-47.25
-7.85
31.98
67.02
94.42
113.76
125.98
132.21
133.11
129.15
121.14
110.58
99.46
89.53
81.76
76.11
71.83
67.89
63.49
58.30
52.49
46.64
41.42
37.27
34.25
32.03
30.06
27.83
25.09
21.88
18.51
15.31
12.52
10.20
8.24
6.44
4.65
2.86
1.15
-0.36
-1.58
-2.53
-3.36
-4.18
-5.04
-5.84
-6.39
-6.53
-6.27
-5.76
-5.21
-4.81
-4.56
-4.34
-4.00
-3.48
-2.87
-2.35
-2.08
-2.12
-2.40
-2.80
-3.17
-3.39
-3.29
-2.65
-1.26
1.00
4.12
7.96
12.44
17.54
23.41
30.16
37.82
46.13
54.68
63.03
70.91
78.35
85.62
93.07
100.94
109.26
117.86
126.49
134.97
143.31
151.68
160.21
168.76
176.86
183.92
189.59
194.06
197.77
200.81
202.28
200.06
191.39
173.96
146.88
110.89
67.89
20.03
-30.61
-81.79
-130.48
-172.75
-204.43
-222.62
-227.00
-220.15
-206.54
-190.81
-176.11
-163.57
-152.77
-142.79
-133.11
-123.87
-115.45
-108.02
-101.23
-94.43
-87.05
-78.97
-70.59
-62.64
-55.79
-50.27
-45.81
-41.80
-37.55
-32.68
-27.18
-21.45
-16.04
-11.44
-7.84
-5.09
-2.81
-0.48
2.32
5.79
9.90
14.32
18.44
21.42
22.47
21.05
17.22
11.64
5.44
-0.27
-4.75
-7.86
-9.95
-11.50
-12.82
-13.95
-14.79
-15.31
-15.66
-16.09
-16.74
-17.49
-18.05
-18.09
-17.47
-16.29
-14.88
-13.54
-12.52
-11.83
-11.32
-10.77
-9.92
-8.62
-6.84
-4.69
-2.42
-0.29
1.50
2.85
3.77
4.36
4.72
4.92
4.99
4.91
4.69
4.36
3.99
3.61
3.26
2.85
2.28
1.43
0.20
-1.37
-3.18
-5.04
-6.79
-8.27
-9.40
-10.13
-10.43
-10.31
-9.82
-9.04
-8.09
-7.12
-6.24
-5.53
-5.02
-4.68
-4.49
-4.41
-4.42
-4.52
-4.64
-4.70
-4.61
-4.29
-3.76
-3.11
-2.51
-2.11
-1.99
-2.12
-2.34
-2.51
-2.49
-2.25
-1.87
-1.44
-1.08
-0.86
-0.78
-0.83
-0.99
-1.22
-1.46
-1.63
-1.66
-1.45
-0.98
-0.29
0.53
1.33
1.98
2.40
2.54
2.46
2.21
1.88
1.52
1.16
0.81
0.52
0.34
0.33
0.46
0.66
0.79
0.72
0.38
-0.23
-1.01
-1.82
-2.53
-3.02
-3.19
-2.99
-2.50
-1.89
-1.35
-1.07
-1.08
-1.25
-1.40
-1.37
-1.17
-0.92
-0.78
-0.79
-0.85
-0.75
-0.31
0.42
1.24
1.87
2.12
2.02
1.80
1.72
1.93
2.35
2.75
2.90
2.69
2.25
1.80
1.61
1.75
2.15
2.56
2.72
2.47
1.84
1.00
0.19
-0.41
-0.74
-0.82
-0.79
-0.76
-0.82
-0.97
-1.18
-1.42
-1.68
-1.96
-2.27
-2.57
-2.77
-2.80
-2.58
-2.11
-1.43
-0.60
0.31
1.25
2.14
2.88
3.37
3.56
3.49
3.27
3.07
3.01
3.11
3.32
3.53
3.63
3.56
3.29
2.85
2.29
1.64
0.98
0.32
-0.30
-0.88
-1.43
-1.92
-2.31
-2.59
-2.73
-2.77
-2.75
-2.72
-2.72
-2.75
-2.79
-2.83
-2.84
-2.85
-2.87
-2.95
-3.12
-3.42
-3.77
-4.08
-4.20
-4.03
-3.60
-3.04
-2.53
-2.20
-2.05
-1.99
-1.87
-1.62
-1.24
-0.80
-0.36
0.06
0.48
0.95
1.47
1.98
2.45
2.86
3.21
3.51
3.73
3.83
3.75
3.52
3.21
2.92
2.69
2.55
2.44
2.33
2.22
2.15
2.16
2.24
2.31
2.23
1.93
1.43
0.85
0.42
0.31
0.58
1.15
1.79
2.24
2.31
1.89
1.04
-0.06
-1.18
-2.11
-2.75
-3.10
-3.25
-3.30
-3.34
-3.35
-3.27
-3.02
-2.61
-2.15
-1.77
-1.58
-1.57
-1.65
-1.69
-1.61
-1.46
-1.37
-1.41
-1.61
-1.88
-2.13
-2.29
-2.37
-2.42
-2.49
-2.55
-2.56
-2.46
-2.20
-1.80
-1.30
-0.78
-0.32
0.00
0.16
0.19
0.20
0.35
0.71
1.27
1.92
2.49
2.91
3.16
3.32
3.47
3.63
3.77
3.85
3.88
3.89
3.95
4.04
4.09
3.97
3.58
2.94
2.17
1.46
0.98
0.78
0.83
0.98
1.10
1.08
0.89
0.59
0.26
0.01
-0.08
0.01
0.22
0.40
0.41
0.13
-0.44
-1.21
-2.02
-2.69
-3.10
-3.20
-3.03
-2.65
-2.17
-1.68
-1.27
-1.07
-1.14
-1.48
-1.97
-2.42
-2.65
-2.55
-2.14
-1.51
-0.84
-0.25
0.16
0.37
0.41
0.35
0.24
0.17
0.19
0.35
0.61
0.95
1.33
1.70
2.04
2.30
2.41
2.34
2.09
1.74
1.40
1.14
0.98
0.90
0.86
0.87
1.02
1.36
1.88
2.45
2.87
2.94
2.57
1.81
0.81
-0.25
-1.21
-1.96
-2.43
-2.58
-2.41
-1.99
-1.46
-0.98
-0.69
-0.67
-0.91
-1.30
-1.68
-1.89
-1.84
-1.51
-1.06
-0.66
-0.52
-0.71
-1.18
-1.76
-2.23
-2.46
-2.42
-2.19
-1.87
-1.54
-1.23
-0.93
-0.64
-0.39
-0.22
-0.11
-0.03
0.05
0.17
0.33
0.47
0.55
0.56
0.50
0.43
0.40
0.44
0.56
0.75
0.98
1.19
1.31
1.26
1.02
0.65
0.26
-0.02
-0.12
-0.03
0.19
0.46
0.70
0.86
0.89
0.81
0.63
0.42
0.24
0.14
0.10
0.04
-0.14
-0.49
-0.98
-1.51
-1.96
-2.26
-2.38
-2.38
-2.33
-2.28
-2.23
-2.16
-2.08
-1.96
-1.82
-1.65
-1.44
-1.18
-0.85
-0.47
-0.03
0.46
0.97
1.46
1.89
2.18
2.29
2.22
2.04
1.82
1.64
1.51
1.41
1.29
1.12
0.92
0.77
0.72
0.78
0.90
0.99
0.98
0.89
0.78
0.73
0.78
0.92
1.04
1.07
0.95
0.72
0.42
0.14
-0.07
-0.22
-0.30
-0.33
-0.28
-0.13
0.15
0.55
1.04
1.57
2.05
2.39
2.53
2.42
2.07
1.55
0.97
0.42
-0.07
-0.52
-0.99
-1.50
-2.03
-2.49
-2.79
-2.92
-2.93
-2.96
-3.12
-3.41
-3.75
-3.98
-3.97
-3.70
-3.23
-2.65
-2.02
-1.35
-0.64
0.11
0.84
1.50
2.06
2.53
3.01
3.60
4.29
4.99
5.45
5.43
4.78
3.56
1.99
0.39
-0.95
-1.88
-2.41
-2.65
-2.69
-2.56
-2.20
-1.57
-0.69
0.30
1.18
1.82
2.14
2.23
2.18
2.06
1.87
1.58
1.18
0.69
0.19
-0.24
-0.57
-0.79
-0.94
-1.00
-0.92
-0.65
-0.19
0.39
0.94
1.30
1.39
1.21
0.86
0.42
0.00
-0.38
-0.70
-0.93
-1.03
-0.95
-0.68
-0.26
0.17
0.43
0.40
0.05
-0.50
-1.06
-1.43
-1.52
-1.38
-1.09
-0.77
-0.40
0.04
0.61
1.25
1.80
2.06
1.93
1.50
1.00
0.71
0.79
1.20
1.71
2.05
2.06
1.72
1.18
0.61
0.10
-0.32
-0.75
-1.26
-1.89
-2.55
-3.12
-3.43
-3.41
-3.06
-2.53
-2.01
-1.69
-1.66
-1.90
-2.23
-2.48
-2.49
-2.24
-1.85
-1.47
-1.22
-1.14
-1.21
-1.35
-1.46
-1.54
-1.57
-1.55
-1.46
-1.27
-0.95
-0.57
-0.24
-0.09
-0.20
-0.53
-0.93
-1.16
-1.03
-0.46
0.48
1.57
2.60
3.39
3.91
4.19
4.33
4.42
4.48
4.46
4.30
3.93
3.38
2.75
2.20
1.90
1.94
2.26
2.71
3.09
3.24
3.14
2.87
2.57
2.33
2.16
2.03
1.90
1.73
1.52
1.20
0.69
-0.11
-1.20
-2.48
-3.70
-4.56
-4.89
-4.64
-3.99
-3.14
-2.32
-1.63
-1.11
-0.74
-0.53
-0.47
-0.55
-0.73
-0.96
-1.20
-1.43
-1.72
-2.13
-2.67
-3.28
-3.84
-4.22
-4.34
-4.19
-3.84
-3.35
-2.80
-2.22
-1.60
-0.93
-0.24
0.45
1.10
1.63
1.99
2.14
2.08
1.88
1.65
1.50
1.50
1.67
1.95
2.29
2.64
2.95
3.19
3.33
3.31
3.09
2.70
2.21
1.73
1.35
1.05
0.80
0.52
0.18
-0.19
-0.55
-0.85
-1.10
-1.33
-1.55
-1.76
-1.95
-2.09
-2.16
-2.16
-2.10
-2.00
-1.84
-1.65
-1.41
-1.13
-0.83
-0.55
-0.34
-0.25
-0.31
-0.47
-0.61
-0.61
-0.35
0.21
1.00
1.85
2.60
3.08
3.20
2.95
2.40
1.63
0.77
-0.06
-0.75
-1.20
-1.33
-1.11
-0.59
0.09
0.76
1.25
1.49
1.51
1.42
1.33
1.32
1.39
1.51
1.66
1.80
1.89
1.91
1.79
1.51
1.08
0.51
-0.14
-0.81
-1.49
-2.12
-2.65
-3.00
-3.11
-3.00
-2.74
-2.46
-2.27
-2.21
-2.22
-2.21
-2.08
-1.86
-1.63
-1.52
-1.57
-1.75
-1.92
-1.93
-1.72
-1.32
-0.86
-0.48
-0.25
-0.16
-0.09
0.08
0.42
0.93
1.54
2.13
2.60
2.83
2.79
2.49
1.97
1.32
0.65
0.07
-0.36
-0.61
-0.70
-0.65
-0.48
-0.21
0.13
0.48
0.76
0.89
0.81
0.57
0.26
-0.03
-0.22
-0.28
-0.21
-0.03
0.22
0.46
0.60
0.54
0.25
-0.21
-0.68
-0.98
-0.98
-0.66
-0.12
0.47
0.97
1.31
1.52
1.63
1.67
1.60
1.37
0.91
0.30
-0.35
-0.84
-1.04
-0.91
-0.54
-0.09
0.25
0.40
0.35
0.18
-0.04
-0.25
-0.43
-0.61
-0.77
-0.88
-0.91
-0.83
-0.66
-0.43
-0.21
-0.06
0.01
0.00
-0.04
-0.09
-0.12
-0.07
0.09
0.35
0.68
0.98
1.14
1.10
0.86
0.51
0.14
-0.18
-0.44
-0.69
-0.99
-1.35
-1.73
-2.04
-2.20
-2.15
-1.89
-1.51
-1.11
-0.80
-0.65
-0.64
-0.70
-0.71
-0.58
-0.33
-0.03
0.21
0.30
0.25
0.13
0.01
-0.06
-0.06
0.01
0.16
0.39
0.73
1.18
1.66
2.08
2.33
2.33
2.07
1.59
0.98
0.34
-0.22
-0.65
-0.93
-1.06
-1.06
-0.98
-0.85
-0.74
-0.70
-0.77
-0.94
-1.17
-1.39
-1.51
-1.48
-1.28
-0.96
-0.56
-0.18
0.16
0.45
0.75
1.10
1.53
2.03
2.56
3.09
3.61
4.11
4.54
4.81
4.79
4.35
3.49
2.31
1.04
-0.06
-0.79
-1.08
-1.02
-0.78
-0.58
-0.53
-0.67
-0.92
-1.16
-1.29
-1.33
-1.31
-1.30
-1.32
-1.36
-1.37
-1.34
-1.29
-1.27
-1.33
-1.44
-1.57
-1.68
-1.73
-1.77
-1.82
-1.89
-1.93
-1.94
-1.92
-1.91
-1.94
-1.99
-1.99
-1.83
-1.46
-0.87
-0.16
0.52
1.05
1.34
1.37
1.19
0.90
0.58
0.34
0.21
0.23
0.39
0.69
1.13
1.66
2.23
2.72
2.99
2.95
2.65
2.22
1.85
1.66
1.64
1.67
1.58
1.30
0.83
0.31
-0.11
-0.31
-0.24
0.07
0.51
0.98
1.34
1.52
1.44
1.09
0.49
-0.28
-1.10
-1.84
-2.35
-2.56
-2.44
-2.05
-1.50
-0.93
-0.49
-0.27
-0.31
-0.63
-1.12
-1.64
-2.02
-2.12
-1.90
-1.44
-0.94
-0.61
-0.60
-0.96
-1.63
-2.48
-3.33
-4.03
-4.46
-4.61
-4.53
-4.34
-4.16
-4.09
-4.11
-4.18
-4.19
-4.07
-3.84
-3.51
-3.13
-2.75
-2.37
-2.03
-1.77
-1.61
-1.47
-1.18
-0.53
0.63
2.24
4.06
5.77
7.11
8.01
8.56
8.93
9.19
9.24
8.88
7.99
6.62
5.05
3.66
2.76
2.46
2.64
3.06
3.48
3.81
4.02
4.18
4.35
4.50
4.55
4.43
4.07
3.45
2.62
1.66
0.68
-0.23
-0.99
-1.56
-1.98
-2.29
-2.58
-2.90
-3.23
-3.50
-3.61
-3.49
-3.11
-2.59
-2.07
-1.71
-1.60
-1.67
-1.80
-1.81
-1.63
-1.30
-0.95
-0.72
-0.66
-0.72
-0.76
-0.68
-0.48
-0.22
-0.02
0.07
0.07
0.08
0.18
0.38
0.63
0.80
0.83
0.76
0.70
0.79
1.10
1.59
2.11
2.53
2.71
2.66
2.40
2.00
1.50
0.92
0.27
-0.36
-0.90
-1.26
-1.39
-1.38
-1.34
-1.40
-1.65
-2.07
-2.56
-2.97
-3.20
-3.19
-3.01
-2.71
-2.42
-2.19
-2.06
-2.02
-2.06
-2.18
-2.33
-2.46
-2.50
-2.32
-1.85
-1.08
-0.10
0.89
1.69
2.18
2.34
2.28
2.14
2.04
2.04
2.11
2.17
2.17
2.09
1.94
1.77
1.61
1.52
1.52
1.60
1.73
1.86
1.93
1.90
1.77
1.52
1.13
0.60
-0.04
-0.70
-1.23
-1.52
-1.51
-1.25
-0.83
-0.38
0.02
0.32
0.45
0.38
0.04
-0.53
-1.26
-1.98
-2.54
-2.86
-2.93
-2.80
-2.56
-2.24
-1.90
-1.58
-1.34
-1.23
-1.28
-1.45
-1.66
-1.81
-1.81
-1.66
-1.36
-1.02
-0.69
-0.46
-0.32
-0.26
-0.22
-0.18
-0.16
-0.15
-0.16
-0.15
-0.08
0.07
0.25
0.37
0.37
0.19
-0.11
-0.47
-0.78
-1.00
-1.11
-1.11
-1.00
-0.75
-0.39
0.07
0.55
1.01
1.39
1.68
1.87
1.93
1.84
1.61
1.31
1.01
0.84
0.85
1.03
1.26
1.42
1.40
1.18
0.85
0.53
0.35
0.36
0.53
0.76
0.95
1.06
1.12
1.21
1.41
1.70
2.00
2.16
2.07
1.69
1.05
0.26
-0.55
-1.26
-1.80
-2.12
-2.20
-2.05
-1.72
-1.29
-0.87
-0.57
-0.43
-0.46
-0.60
-0.74
-0.84
-0.87
-0.84
-0.78
-0.71
-0.63
-0.52
-0.37
-0.16
0.08
0.33
0.51
0.59
0.55
0.42
0.30
0.30
0.47
0.74
0.95
0.90
0.45
-0.32
-1.18
-1.86
-2.15
-2.02
-1.63
-1.16
-0.75
-0.41
-0.04
0.44
1.00
1.49
1.70
1.47
0.85
0.01
-0.76
-1.22
-1.30
-1.03
-0.56
-0.03
0.48
0.92
1.29
1.54
1.62
1.52
1.24
0.91
0.62
0.50
0.58
0.82
1.11
1.30
1.23
0.78
-0.05
-1.13
-2.21
-3.03
-3.35
-3.13
-2.47
-1.60
-0.75
-0.08
0.36
0.64
0.81
0.89
0.86
0.66
0.29
-0.21
-0.68
-0.97
-0.96
-0.65
-0.12
0.48
0.99
1.32
1.43
1.36
1.16
0.91
0.69
0.62
0.76
1.16
1.76
2.39
2.86
3.00
2.73
2.09
1.20
0.21
-0.75
-1.59
-2.27
-2.76
-3.03
-3.08
-2.93
-2.63
-2.24
-1.87
-1.60
-1.48
-1.51
-1.64
-1.76
-1.82
-1.76
-1.62
-1.45
-1.33
-1.29
-1.29
-1.31
-1.30
-1.26
-1.19
-1.12
-1.06
-1.01
-0.98
-0.95
-0.93
-0.87
-0.68
-0.30
0.34
1.22
2.25
3.23
4.01
4.44
4.51
4.31
3.97
3.63
3.36
3.15
2.94
2.68
2.36
2.02
1.76
1.60
1.54
1.46
1.28
0.91
0.40
-0.15
-0.58
-0.80
-0.77
-0.61
-0.43
-0.38
-0.48
-0.62
-0.64
-0.42
0.04
0.60
1.01
1.09
0.75
0.11
-0.62
-1.22
-1.55
-1.62
-1.53
-1.42
-1.37
-1.37
-1.39
-1.37
-1.25
-1.03
-0.72
-0.37
-0.08
0.10
0.09
-0.07
-0.27
-0.41
-0.41
-0.28
-0.12
-0.12
-0.36
-0.85
-1.44
-1.95
-2.25
-2.31
-2.23
-2.11
-2.04
-2.02
-2.00
-1.91
-1.74
-1.50
-1.24
-0.98
-0.75
-0.51
-0.21
0.19
0.70
1.31
1.93
2.51
2.96
3.27
3.43
3.49
3.49
3.45
3.39
3.28
3.12
2.87
2.58
2.26
1.92
1.59
1.24
0.90
0.59
0.36
0.26
0.28
0.36
0.39
0.29
0.05
-0.26
-0.51
-0.57
-0.40
-0.05
0.32
0.54
0.45
0.02
-0.70
-1.57
-2.42
-3.14
-3.66
-3.97
-4.03
-3.80
-3.25
-2.41
-1.38
-0.33
0.59
1.27
1.74
2.05
2.26
2.38
2.35
2.12
1.66
1.00
0.24
-0.52
-1.18
-1.65
-1.87
-1.78
-1.43
-0.85
-0.16
0.56
1.23
1.78
2.13
2.26
2.17
1.94
1.72
1.64
1.74
1.94
2.05
1.93
1.51
0.90
0.29
-0.15
-0.33
-0.32
-0.23
-0.17
-0.20
-0.35
-0.59
-0.94
-1.40
-1.98
-2.66
-3.36
-4.02
-4.55
-4.88
-5.00
-4.88
-4.58
-4.17
-3.77
-3.49
-3.33
-3.22
-2.97
-2.45
-1.63
-0.62
0.37
1.12
1.54
1.66
1.59
1.44
1.26
1.04
0.78
0.54
0.43
0.60
1.07
1.82
2.69
3.55
4.28
4.84
5.19
5.29
5.09
4.58
3.79
2.84
1.87
0.98
0.21
-0.49
-1.13
-1.67
-1.96
-1.90
-1.48
-0.81
-0.13
0.37
0.60
0.68
0.77
1.06
1.58
2.22
2.82
3.19
3.25
2.98
2.45
1.72
0.89
0.06
-0.68
-1.24
-1.58
-1.77
-1.88
-2.05
-2.32
-2.68
-3.08
-3.45
-3.74
-3.95
-4.09
-4.17
-4.18
-4.09
-3.87
-3.53
-3.12
-2.70
-2.30
-1.95
-1.66
-1.42
-1.22
-1.05
-0.88
-0.62
-0.19
0.47
1.35
2.29
3.09
3.55
3.60
3.28
2.75
2.15
1.60
1.12
0.69
0.26
-0.18
-0.60
-0.97
-1.20
-1.21
-0.91
-0.29
0.56
1.45
2.15
2.46
2.37
1.96
1.41
0.84
0.34
-0.10
-0.45
-0.70
-0.79
-0.68
-0.42
-0.07
0.27
0.53
0.70
0.79
0.82
0.85
0.95
1.21
1.69
2.37
3.07
3.57
3.65
3.23
2.42
1.45
0.60
0.01
-0.31
-0.46
-0.62
-0.87
-1.25
-1.72
-2.22
-2.70
-3.14
-3.56
-3.93
-4.22
-4.39
-4.38
-4.15
-3.75
-3.22
-2.64
-2.02
-1.34
-0.59
0.22
1.07
1.90
2.70
3.48
4.26
4.99
5.56
5.82
5.65
5.09
4.27
3.40
2.62
1.93
1.24
0.44
-0.46
-1.34
-2.04
-2.41
-2.44
-2.23
-1.94
-1.67
-1.44
-1.23
-1.04
-0.90
-0.87
-1.01
-1.28
-1.62
-1.90
-2.09
-2.22
-2.36
-2.57
-2.82
-3.03
-3.13
-3.09
-2.99
-2.87
-2.76
-2.59
-2.25
-1.71
-1.05
-0.41
0.02
0.19
0.14
-0.02
-0.16
-0.20
-0.12
0.10
0.48
1.06
1.81
2.67
3.51
4.22
4.73
5.00
5.06
4.94
4.64
4.19
3.61
2.94
2.24
1.61
1.12
0.84
0.80
0.95
1.21
1.42
1.49
1.37
1.12
0.84
0.63
0.52
0.49
0.51
0.56
0.66
0.81
0.97
1.03
0.86
0.39
-0.31
-1.08
-1.74
-2.20
-2.49
-2.76
-3.14
-3.66
-4.20
-4.53
-4.48
-4.01
-3.29
-2.58
-2.13
-2.03
-2.20
-2.45
-2.60
-2.55
-2.37
-2.19
-2.13
-2.22
-2.44
-2.73
-3.07
-3.51
-4.11
-4.89
-5.83
-6.80
-7.69
-8.41
-8.93
-9.28
-9.53
-9.67
-9.66
-9.38
-8.72
-7.64
-6.24
-4.76
-3.49
-2.71
-2.58
-3.12
-4.29
-5.97
-8.07
-10.49
-13.15
-16.02
-19.14
-22.69
-26.94
-32.07
-38.04
-44.51
-50.93
-56.79
-61.90
-66.49
-71.11
-76.38
-82.64
-89.81
-97.43
-104.93
-111.91
-118.39
-124.72
-131.46
-139.07
-147.73
-157.37
-167.68
-178.19
-188.10
-196.15
-200.52
-199.05
-189.82
-171.69
-144.76
-110.13
-69.41
-24.08
24.55
75.00
124.93
170.99
209.44
237.39
253.91
260.46
260.17
256.42
251.60
246.59
241.22
235.22
228.97
223.48
219.84
218.38
218.39
218.44
217.13
213.88
209.24
204.66
201.79
201.77
205.00
211.11
219.22
228.02
235.69
239.78
237.59
226.73
205.95
175.64
137.60
94.13
47.02
-2.99
-55.60
-109.94
-163.46
-212.01
-250.96
-276.96
-289.31
-290.19
-283.66
-274.04
-264.35
-255.72
-247.82
-239.98
-232.22
-225.68
-222.12
-222.82
-227.56
-234.41
-240.36
-242.70
-240.20
-233.46
-224.05
-213.10
-200.09
-182.76
-158.05
-123.68
-79.13
-25.76
33.76
96.08
157.55
214.37
262.80
299.81
324.08
336.52
340.16
339.17
337.52
337.83
340.75
344.94
347.62
345.39
335.12
314.78
283.96
243.73
196.04
142.90
86.11
27.68
-29.47
-81.22
-122.93
-150.96
-164.14
-164.46
-156.25
-144.51
-133.23
-124.44
-118.37
-114.22
-111.07
-108.41
-106.09
-104.11
-102.31
-100.40
-98.04
-94.99
-91.22
-86.99
-82.68
-78.63
-74.93
-71.33
-67.35
-62.59
-56.98
-50.85
-44.86
-39.65
-35.69
-33.00
-31.14
-29.14
-25.80
-20.21
-12.37
-3.50
4.16
8.23
7.35
1.95
-5.82
-12.98
-17.05
-17.05
-13.60
-8.40
-3.16
1.05
3.94
5.71
6.59
6.63
5.77
4.07
1.81
-0.42
-1.98
-2.46
-1.85
-0.61
0.50
0.74
-0.29
-2.49
-5.32
-8.07
-10.20
-11.57
-12.45
-13.39
-14.89
-17.22
-20.30
-23.79
-27.26
-30.38
-33.01
-35.26
-37.41
-39.75
-42.49
-45.65
-49.01
-52.24
-55.06
-57.29
-58.89
-59.82
-59.96
-59.10
-57.17
-54.19
-49.98
-43.63
-33.20
-16.07
9.82
44.46
85.07
126.57
163.10
189.70
203.29
202.79
188.69
162.82
128.32
89.84
53.01
23.12
3.43
-5.87
-7.45
-5.33
-3.03
-2.36
-3.45
-5.51
-7.81
-10.07
-12.36
-14.72
-16.92
-18.59
-19.34
-19.09
-18.14
-17.03
-16.27
-16.15
-16.55
-17.09
-17.25
-16.67
-15.33
-13.51
-11.67
-10.23
-9.38
-9.03
-8.86
-8.56
-7.89
-6.86
-5.66
-4.57
-3.84
-3.58
-3.68
-3.90
-3.93
-3.56
-2.75
-1.72
-0.76
-0.14
0.06
-0.06
-0.31
-0.49
-0.53
-0.47
-0.42
-0.42
-0.48
-0.53
-0.52
-0.49
-0.48
-0.55
-0.70
-0.85
-0.89
-0.77
-0.50
-0.19
0.05
0.16
0.16
0.14
0.20
0.42
0.74
1.03
1.19
1.18
1.06
0.97
1.03
1.26
1.61
1.96
2.22
2.34
2.34
2.26
2.15
2.08
2.10
2.27
2.62
3.10
3.62
4.08
4.43
4.67
4.84
4.99
5.11
5.18
5.16
5.02
4.75
4.34
3.79
3.11
2.35
1.55
0.78
0.07
-0.58
-1.16
-1.73
-2.29
-2.87
-3.45
-4.04
-4.59
-5.05
-5.35
-5.44
-5.28
-4.88
-4.30
-3.62
-2.94
-2.35
-1.93
-1.73
-1.74
-1.91
-2.13
-2.36
-2.52
-2.60
-2.59
-2.50
-2.36
-2.19
-2.06
-2.02
-2.12
-2.34
-2.60
-2.77
-2.70
-2.35
-1.79
-1.16
-0.64
-0.32
-0.14
0.02
0.27
0.64
1.03
1.30
1.35
1.20
0.97
0.75
0.57
0.38
0.12
-0.20
-0.46
-0.54
-0.34
0.11
0.67
1.17
1.48
1.55
1.44
1.24
1.02
0.85
0.74
0.70
0.71
0.72
0.69
0.57
0.39
0.21
0.14
0.24
0.56
1.03
1.58
2.13
2.63
3.09
3.51
3.87
4.18
4.43
4.61
4.77
4.97
5.26
5.70
6.32
7.12
8.03
8.93
9.69
10.20
10.48
10.63
10.81
11.18
11.83
12.76
13.96
15.40
17.03
18.63
19.81
20.06
18.92
16.20
12.16
7.38
2.63
-1.52
-4.84
-7.46
-9.67
-11.70
-13.59
-15.18
-16.28
-16.85
-16.99
-16.87
-16.66
-16.38
-15.97
-15.35
-14.51
-13.56
-12.64
-11.91
-11.41
-11.08
-10.78
-10.37
-9.79
-9.02
-8.14
-7.22
-6.34
-5.56
-4.90
-4.38
-3.97
-3.64
-3.34
-3.03
-2.71
-2.40
-2.12
-1.89
-1.71
-1.53
-1.34
-1.14
-0.95
-0.83
-0.82
-0.92
-1.08
-1.23
-1.28
-1.17
-0.92
-0.64
-0.44
-0.42
-0.58
-0.84
-1.11
-1.31
-1.44
-1.52
-1.54
-1.47
-1.23
-0.78
-0.14
0.57
1.21
1.66
1.92
2.03
2.09
2.18
2.34
2.54
2.72
2.78
2.67
2.34
1.81
1.15
0.49
-0.04
-0.33
-0.32
-0.06
0.37
0.86
1.28
1.56
1.66
1.58
1.37
1.10
0.81
0.56
0.41
0.34
0.32
0.29
0.18
-0.06
-0.42
-0.83
-1.19
-1.42
-1.47
-1.37
-1.17
-0.96
-0.78
-0.66
-0.57
-0.50
-0.46
-0.47
-0.55
-0.70
-0.84
-0.88
-0.76
-0.47
-0.11
0.18
0.31
0.28
0.18
0.16
0.28
0.54
0.85
1.11
1.25
1.28
1.27
1.27
1.29
1.30
1.25
1.10
0.86
0.62
0.46
0.42
0.51
0.64
0.71
0.63
0.38
0.01
-0.38
-0.69
-0.89
-0.99
-1.09
-1.22
-1.40
-1.57
-1.61
-1.49
-1.19
-0.84
-0.54
-0.40
-0.42
-0.50
-0.52
-0.38
-0.08
0.32
0.66
0.85
0.84
0.67
0.44
0.22
0.08
0.02
0.04
0.11
0.20
0.32
0.43
0.51
0.52
0.42
0.20
-0.10
-0.40
-0.63
-0.72
-0.68
-0.55
-0.37
-0.21
-0.10
-0.06
-0.07
-0.14
-0.25
-0.41
-0.57
-0.70
-0.76
-0.71
-0.54
-0.31
-0.08
0.08
0.13
0.07
-0.04
-0.14
-0.17
-0.11
0.02
0.18
0.32
0.43
0.52
0.58
0.60
0.59
0.54
0.51
0.56
0.70
0.91
1.08
1.10
0.95
0.69
0.43
0.28
0.25
0.28
0.26
0.16
-0.00
-0.12
-0.13
-0.04
0.06
0.08
0.00
-0.13
-0.25
-0.29
-0.26
-0.23
-0.26
-0.38
-0.54
-0.70
-0.80
-0.82
-0.78
-0.70
-0.58
-0.41
-0.17
0.11
0.35
0.50
0.52
0.40
0.18
-0.07
-0.28
-0.40
-0.41
-0.32
-0.16
-0.01
0.09
0.13
0.11
0.09
0.15
0.31
0.54
0.76
0.88
0.85
0.69
0.47
0.31
0.27
0.33
0.42
0.43
0.29
0.01
-0.32
-0.54
-0.54
-0.31
0.07
0.46
0.70
0.72
0.53
0.21
-0.14
-0.47
-0.75
-0.97
-1.10
-1.12
-1.00
-0.76
-0.46
-0.16
0.05
0.14
0.13
0.07
-0.01
-0.08
-0.14
-0.18
-0.19
-0.15
-0.07
0.06
0.19
0.29
0.33
0.29
0.17
0.04
-0.05
-0.05
0.07
0.25
0.45
0.56
0.53
0.33
0.02
-0.30
-0.55
-0.67
-0.66
-0.54
-0.36
-0.15
0.06
0.24
0.34
0.31
0.16
-0.06
-0.25
-0.31
-0.21
0.01
0.25
0.45
0.55
0.59
0.58
0.54
0.46
0.30
0.03
-0.30
-0.63
-0.87
-0.95
-0.88
-0.71
-0.53
-0.41
-0.37
-0.38
-0.36
-0.26
-0.08
0.13
0.29
0.34
0.27
0.14
0.03
0.01
0.08
0.20
0.31
0.34
0.28
0.16
0.05
0.05
0.21
0.51
0.84
1.05
1.02
0.76
0.36
-0.01
-0.20
-0.16
0.03
0.24
0.35
0.27
0.05
-0.24
-0.50
-0.68
-0.80
-0.86
-0.92
-0.99
-1.07
-1.16
-1.24
-1.28
-1.24
-1.09
-0.85
-0.52
-0.17
0.12
0.29
0.35
0.35
0.37
0.47
0.67
0.93
1.17
1.34
1.38
1.29
1.10
0.82
0.52
0.24
0.04
-0.03
0.03
0.21
0.42
0.59
0.65
0.56
0.32
-0.02
-0.40
-0.75
-0.97
-1.01
-0.85
-0.57
-0.25
-0.04
0.00
-0.12
-0.31
-0.47
-0.51
-0.44
-0.32
-0.20
-0.08
0.06
0.25
0.47
0.67
0.75
0.68
0.51
0.31
0.17
0.16
0.25
0.39
0.50
0.53
0.48
0.39
0.30
0.24
0.21
0.18
0.12
0.01
-0.13
-0.27
-0.38
-0.46
-0.50
-0.51
-0.50
-0.50
-0.50
-0.52
-0.57
-0.60
-0.56
-0.38
-0.10
0.22
0.46
0.53
0.43
0.19
-0.09
-0.34
-0.52
-0.64
-0.69
-0.65
-0.51
-0.26
0.06
0.36
0.56
0.61
0.51
0.30
0.06
-0.18
-0.36
-0.50
-0.57
-0.59
-0.53
-0.38
-0.14
0.16
0.45
0.67
0.75
0.72
0.62
0.54
0.51
0.52
0.50
0.40
0.18
-0.11
-0.37
-0.50
-0.44
-0.20
0.13
0.45
0.63
0.61
0.38
0.01
-0.39
-0.71
-0.88
-0.87
-0.72
-0.49
-0.25
-0.06
0.06
0.08
0.04
-0.04
-0.11
-0.12
-0.06
0.05
0.16
0.25
0.27
0.24
0.16
0.05
-0.09
-0.24
-0.36
-0.41
-0.36
-0.22
-0.02
0.16
0.26
0.24
0.13
-0.04
-0.23
-0.40
-0.54
-0.63
-0.63
-0.53
-0.33
-0.08
0.15
0.27
0.26
0.14
-0.03
-0.18
-0.24
-0.20
-0.04
0.25
0.64
1.10
1.53
1.80
1.80
1.50
0.94
0.28
-0.32
-0.68
-0.75
-0.56
-0.22
0.10
0.26
0.19
-0.11
-0.55
-1.01
-1.34
-1.49
-1.44
-1.25
-1.02
-0.83
-0.75
-0.76
-0.83
-0.90
-0.93
-0.94
-1.00
-1.17
-1.47
-1.82
-2.08
-2.12
-1.83
-1.23
-0.44
0.37
1.03
1.43
1.58
1.52
1.35
1.16
1.01
0.93
0.92
0.98
1.08
1.19
1.30
1.37
1.36
1.30
1.22
1.15
1.13
1.16
1.20
1.20
1.14
1.03
0.90
0.77
0.63
0.42
0.11
-0.27
-0.63
-0.88
-0.95
-0.89
-0.80
-0.75
-0.75
-0.73
-0.59
-0.30
0.06
0.37
0.50
0.42
0.23
0.10
0.14
0.39
0.72
0.98
1.03
0.85
0.48
0.07
-0.29
-0.54
-0.69
-0.77
-0.82
-0.84
-0.80
-0.68
-0.47
-0.19
0.13
0.46
0.80
1.10
1.28
1.26
0.98
0.45
-0.19
-0.76
-1.07
-1.04
-0.72
-0.28
0.08
0.24
0.23
0.16
0.16
0.29
0.50
0.67
0.69
0.54
0.31
0.13
0.10
0.23
0.40
0.49
0.39
0.11
-0.27
-0.58
-0.74
-0.72
-0.60
-0.47
-0.41
-0.41
-0.41
-0.34
-0.20
-0.04
0.06
0.02
-0.13
-0.33
-0.45
-0.45
-0.34
-0.22
-0.18
-0.22
-0.30
-0.28
-0.13
0.15
0.46
0.68
0.77
0.74
0.66
0.61
0.59
0.54
0.40
0.14
-0.20
-0.54
-0.77
-0.83
-0.69
-0.39
-0.02
0.31
0.49
0.46
0.24
-0.06
-0.34
-0.48
-0.47
-0.37
-0.29
-0.30
-0.40
-0.52
-0.56
-0.46
-0.23
0.06
0.33
0.50
0.54
0.45
0.27
0.01
-0.31
-0.64
-0.92
-1.10
-1.12
-0.99
-0.75
-0.48
-0.25
-0.10
0.00
0.07
0.13
0.19
0.22
0.20
0.15
0.11
0.13
0.22
0.34
0.43
0.47
0.47
0.47
0.50
0.51
0.44
0.23
-0.10
-0.44
-0.63
-0.55
-0.19
0.35
0.88
1.24
1.35
1.24
1.00
0.71
0.40
0.08
-0.25
-0.54
-0.71
-0.68
-0.47
-0.14
0.17
0.36
0.39
0.32
0.20
0.09
0.02
-0.05
-0.12
-0.21
-0.28
-0.31
-0.29
-0.24
-0.17
-0.10
-0.05
-0.04
-0.09
-0.25
-0.51
-0.82
-1.09
-1.19
-1.04
-0.66
-0.15
0.32
0.60
0.63
0.48
0.27
0.14
0.14
0.25
0.38
0.47
0.50
0.48
0.45
0.44
0.46
0.51
0.58
0.68
0.79
0.88
0.91
0.86
0.73
0.56
0.34
0.08
-0.22
-0.52
-0.76
-0.86
-0.76
-0.52
-0.26
-0.14
-0.23
-0.50
-0.80
-0.97
-0.90
-0.62
-0.28
-0.02
0.08
0.06
0.01
0.04
0.18
0.38
0.55
0.63
0.62
0.57
0.53
0.50
0.45
0.32
0.08
-0.23
-0.49
-0.64
-0.66
-0.60
-0.57
-0.65
-0.84
-1.05
-1.16
-1.09
-0.87
-0.62
-0.48
-0.55
-0.82
-1.18
-1.49
-1.67
-1.70
-1.62
-1.50
-1.41
-1.34
-1.32
-1.35
-1.47
-1.70
-2.02
-2.35
-2.53
-2.41
-1.88
-0.99
0.08
1.06
1.74
2.03
2.02
1.87
1.77
1.80
1.89
1.91
1.72
1.23
0.49
-0.34
-1.05
-1.46
-1.47
-1.09
-0.43
0.38
1.20
2.01
2.83
3.72
4.65
5.47
5.94
5.83
5.08
3.86
2.48
1.30
0.52
0.11
-0.15
-0.48
-0.99
-1.63
-2.20
-2.56
-2.64
-2.51
-2.31
-2.15
-2.07
-2.07
-2.15
-2.32
-2.56
-2.88
-3.21
-3.52
-3.77
-3.94
-4.07
-4.17
-4.25
-4.23
-4.03
-3.54
-2.73
-1.61
-0.33
0.92
1.94
2.60
2.90
2.91
2.79
2.68
2.71
2.89
3.18
3.50
3.73
3.75
3.52
3.03
2.38
1.70
1.12
0.70
0.48
0.41
0.45
0.57
0.73
0.89
1.00
1.01
0.89
0.67
0.40
0.20
0.14
0.25
0.50
0.77
0.92
0.85
0.58
0.20
-0.16
-0.38
-0.42
-0.35
-0.26
-0.23
-0.27
-0.35
-0.46
-0.56
-0.65
-0.71
-0.71
-0.59
-0.35
0.00
0.39
0.70
0.87
0.89
0.80
0.68
0.58
0.52
0.45
0.31
0.04
-0.32
-0.68
-0.92
-0.93
-0.71
-0.33
0.06
0.36
0.46
0.39
0.18
-0.05
-0.20
-0.21
-0.06
0.18
0.39
0.44
0.26
-0.08
-0.44
-0.62
-0.52
-0.18
0.24
0.57
0.71
0.65
0.48
0.27
0.06
-0.15
-0.35
-0.50
-0.53
-0.40
-0.10
0.29
0.65
0.88
0.93
0.81
0.55
0.23
-0.08
-0.29
-0.34
-0.22
0.02
0.28
0.44
0.45
0.28
-0.02
-0.36
-0.65
-0.78
-0.69
-0.38
0.08
0.58
0.99
1.24
1.31
1.24
1.08
0.88
0.62
0.34
0.07
-0.16
-0.29
-0.30
-0.24
-0.16
-0.14
-0.21
-0.35
-0.53
-0.69
-0.76
-0.72
-0.60
-0.46
-0.39
-0.44
-0.60
-0.82
-1.02
-1.15
-1.17
-1.12
-1.03
-0.90
-0.74
-0.54
-0.32
-0.09
0.10
0.23
0.30
0.32
0.33
0.30
0.25
0.16
0.07
0.02
0.04
0.12
0.21
0.24
0.21
0.11
0.01
-0.02
0.03
0.15
0.26
0.32
0.29
0.21
0.09
-0.02
-0.12
-0.21
-0.27
-0.30
-0.28
-0.22
-0.14
-0.08
-0.08
-0.14
-0.24
-0.31
-0.30
-0.16
0.10
0.42
0.70
0.87
0.89
0.76
0.56
0.38
0.26
0.24
0.29
0.35
0.38
0.34
0.25
0.13
0.02
-0.05
-0.07
-0.04
0.01
0.05
0.02
-0.08
-0.26
-0.47
-0.65
-0.75
-0.77
-0.73
-0.66
-0.57
-0.44
-0.25
-0.04
0.14
0.19
0.07
-0.18
-0.45
-0.60
-0.58
-0.40
-0.16
0.05
0.17
0.23
0.28
0.35
0.43
0.52
0.60
0.66
0.69
0.69
0.64
0.54
0.43
0.33
0.26
0.25
0.28
0.35
0.44
0.55
0.61
0.56
0.34
-0.05
-0.51
-0.90
-1.07
-0.98
-0.70
-0.35
-0.06
0.13
0.26
0.39
0.52
0.59
0.49
0.17
-0.32
-0.83
-1.17
-1.25
-1.06
-0.73
-0.42
-0.23
-0.17
-0.17
-0.14
-0.02
0.17
0.36
0.49
0.53
0.50
0.47
0.48
0.53
0.61
0.64
0.59
0.45
0.27
0.15
0.18
0.38
0.71
1.05
1.28
1.32
1.18
0.92
0.62
0.35
0.10
-0.12
-0.31
-0.46
-0.52
-0.51
-0.44
-0.40
-0.44
-0.58
-0.77
-0.94
-1.03
-1.01
-0.91
-0.77
-0.65
-0.56
-0.46
-0.35
-0.20
-0.04
0.10
0.19
0.24
0.30
0.41
0.59
0.80
0.99
1.06
0.96
0.69
0.34
0.01
-0.17
-0.16
0.00
0.21
0.37
0.42
0.34
0.19
0.01
-0.17
-0.33
-0.47
-0.57
-0.61
-0.56
-0.44
-0.30
-0.24
-0.31
-0.55
-0.89
-1.22
-1.44
-1.48
-1.34
-1.09
-0.83
-0.62
-0.45
-0.26
0.01
0.32
0.61
0.76
0.70
0.49
0.25
0.13
0.22
0.50
0.85
1.16
1.33
1.37
1.31
1.22
1.14
1.08
1.03
0.95
0.85
0.73
0.58
0.44
0.31
0.20
0.12
0.02
-0.12
-0.32
-0.57
-0.83
-1.02
-1.13
-1.16
-1.17
-1.21
-1.29
-1.38
-1.44
-1.40
-1.24
-0.97
-0.62
-0.25
0.06
0.26
0.32
0.26
0.15
0.06
0.05
0.13
0.27
0.45
0.66
0.89
1.10
1.21
1.14
0.86
0.44
0.00
-0.32
-0.46
-0.43
-0.34
-0.25
-0.21
-0.17
-0.09
0.04
0.18
0.26
0.25
0.17
0.09
0.10
0.22
0.41
0.56
0.59
0.45
0.19
-0.13
-0.39
-0.53
-0.53
-0.42
-0.22
0.03
0.28
0.50
0.63
0.65
0.54
0.30
-0.02
-0.37
-0.66
-0.82
-0.80
-0.63
-0.39
-0.19
-0.11
-0.14
-0.22
-0.26
-0.19
0.00
0.26
0.52
0.73
0.87
0.93
0.90
0.79
0.58
0.30
0.02
-0.22
-0.37
-0.42
-0.39
-0.33
-0.29
-0.27
-0.28
-0.32
-0.37
-0.42
-0.48
-0.54
-0.57
-0.57
-0.51
-0.43
-0.38
-0.38
-0.44
-0.52
-0.58
-0.57
-0.50
-0.37
-0.17
0.06
0.32
0.52
0.59
0.47
0.18
-0.16
-0.41
-0.47
-0.35
-0.15
-0.00
0.01
-0.14
-0.36
-0.56
-0.66
-0.62
-0.44
-0.16
0.16
0.44
0.61
0.65
0.57
0.41
0.23
0.08
-0.02
-0.05
-0.04
-0.03
-0.08
-0.20
-0.39
-0.62
-0.82
-0.95
-0.99
-1.00
-1.04
-1.16
-1.35
-1.57
-1.74
-1.82
-1.83
-1.90
-2.17
-2.70
-3.44
-4.21
-4.80
-5.05
-5.01
-4.87
-4.91
-5.30
-6.04
-6.94
-7.67
-7.98
-7.74
-6.97
-5.69
-3.88
-1.42
1.71
5.42
9.43
13.45
17.32
21.09
24.86
28.49
31.41
32.68
31.37
27.06
20.11
11.65
3.07
-4.44
-10.34
-14.64
-17.69
-19.70
-20.70
-20.58
-19.38
-17.41
-15.26
-13.47
-12.30
-11.56
-10.69
-9.09
-6.40
-2.69
1.56
5.63
8.82
10.73
11.33
10.98
10.22
9.52
9.08
8.77
8.20
7.02
5.11
2.72
0.30
-1.69
-3.06
-3.95
-4.71
-5.64
-6.81
-8.01
-8.88
-9.15
-8.83
-8.17
-7.48
-7.02
-6.92
-7.24
-8.13
-9.80
-12.48
-16.23
-20.86
-25.87
-30.71
-34.94
-38.35
-41.08
-43.45
-45.89
-48.64
-51.67
-54.74
-57.53
-59.91
-61.90
-63.61
-65.00
-65.91
-66.20
-65.90
-65.31
-64.66
-63.92
-62.63
-60.10
-55.94
-50.49
-44.95
-41.09
-40.65
-44.70
-53.14
-64.48
-75.84
-83.30
-82.72
-70.69
-45.37
-6.96
42.50
99.56
159.82
218.57
271.41
315.02
347.86
370.20
383.33
388.42
385.49
373.37
350.62
316.76
272.98
221.76
165.96
108.14
50.62
-3.87
-51.86
-89.66
-114.69
-126.77
-128.38
-123.75
-117.17
-111.48
-107.63
-105.15
-103.09
-100.82
-98.28
-95.64
-93.06
-90.43
-87.49
-84.01
-79.94
-75.40
-70.64
-65.91
-61.40
-57.16
-53.13
-49.18
-45.14
-40.95
-36.70
-32.62
-28.97
-25.93
-23.49
-21.44
-19.46
-17.31
-14.93
-12.49
-10.29
-8.64
-7.65
-7.25
-7.20
-7.22
-7.15
-6.94
-6.63
-6.33
-6.07
-5.85
-5.64
-5.47
-5.40
-5.55
-5.99
-6.71
-7.64
-8.64
-9.60
-10.46
-11.27
-12.11
-13.12
-14.42
-16.06
-18.03
-20.21
-22.43
-24.53
-26.45
-28.31
-30.39
-33.01
-36.43
-40.63
-45.32
-50.04
-54.35
-58.11
-61.56
-65.26
-69.84
-75.65
-82.62
-90.22
-97.75
-104.69
-110.91
-116.71
-122.57
-128.83
-135.59
-142.78
-150.34
-158.23
-166.08
-172.76
-176.14
-173.48
-162.28
-141.20
-110.50
-71.67
-26.58
23.16
76.10
130.22
182.18
227.49
261.74
282.39
290.02
288.16
281.77
275.19
270.59
267.77
265.22
261.49
256.25
250.35
245.16
241.84
240.94
242.55
246.52
252.43
259.26
265.01
266.70
261.04
245.49
219.22
183.33
140.18
92.24
41.20
-12.00
-66.28
-119.43
-167.79
-207.08
-233.98
-247.65
-250.01
-244.86
-236.15
-226.55
-217.03
-207.26
-196.76
-185.64
-174.70
-165.01
-157.31
-151.67
-147.49
-143.81
-139.64
-134.18
-127.12
-118.69
-109.60
-100.88
-93.47
-87.99
-84.64
-83.21
-83.39
-84.85
-87.28
-90.27
-93.44
-96.63
-100.04
-104.10
-108.92
-113.53
-115.51
-111.28
-97.02
-69.91
-29.12
23.67
84.45
147.47
206.28
254.98
289.65
309.37
316.68
316.82
315.84
318.09
324.24
330.77
331.23
319.07
290.56
246.70
193.27
139.03
92.76
60.52
43.98
40.22
43.06
45.14
40.10
24.27
-2.47
-36.96
-73.90
-107.55
-133.40
-149.19
-154.97
-152.58
-144.62
-133.65
-121.85
-110.99
-102.42
-96.88
-94.29
-93.61
-93.16
-91.23
-86.87
-80.22
-72.37
-64.84
-58.90
-55.06
-52.97
-51.71
-50.20
-47.69
-44.01
-39.56
-35.06
-31.21
-28.29
-26.11
-24.11
-21.68
-18.48
-14.59
-10.47
-6.67
-3.63
-1.45
0.07
1.37
2.96
5.23
8.34
12.09
15.91
18.98
20.50
19.98
17.51
13.73
9.60
6.03
3.57
2.34
2.12
2.55
3.35
4.33
5.37
6.34
7.06
7.39
7.27
6.79
6.07
5.24
4.38
3.51
2.63
1.78
1.02
0.42
-0.08
-0.58
-1.19
-1.95
-2.80
-3.56
-4.08
-4.29
-4.25
-4.07
-3.86
-3.69
-3.55
-3.37
-3.11
-2.79
-2.45
-2.18
-2.04
-2.06
-2.18
-2.30
-2.32
-2.15
-1.77
-1.24
-0.68
-0.21
0.08
0.17
0.12
0.03
-0.02
0.03
0.15
0.30
0.38
0.37
0.30
0.20
0.11
0.03
-0.10
-0.33
-0.64
-1.00
-1.31
-1.54
-1.70
-1.79
-1.82
-1.77
-1.60
-1.31
-0.99
-0.73
-0.63
-0.69
-0.80
-0.82
-0.66
-0.33
0.05
0.36
0.52
0.55
0.53
0.55
0.61
0.64
0.54
0.21
-0.34
-0.99
-1.59
-2.02
-2.22
-2.22
-2.10
-1.93
-1.76
-1.59
-1.41
-1.21
-0.98
-0.77
-0.62
-0.56
-0.58
-0.64
-0.69
-0.67
-0.58
-0.46
-0.32
-0.21
-0.10
0.01
0.13
0.24
0.30
0.29
0.21
0.11
0.03
-0.02
-0.06
-0.11
-0.18
-0.23
-0.21
-0.10
0.07
0.21
0.26
0.18
0.00
-0.21
-0.37
-0.44
-0.42
-0.30
-0.11
0.11
0.34
0.51
0.54
0.40
0.11
-0.23
-0.49
-0.54
-0.35
0.05
0.51
0.88
1.04
0.95
0.70
0.42
0.22
0.19
0.28
0.42
0.51
0.48
0.35
0.18
0.05
-0.04
-0.07
-0.11
-0.16
-0.22
-0.25
-0.22
-0.12
0.01
0.08
0.04
-0.15
-0.47
-0.82
-1.08
-1.16
-1.05
-0.80
-0.49
-0.19
0.07
0.29
0.46
0.56
0.56
0.46
0.33
0.25
0.30
0.49
0.71
0.84
0.78
0.51
0.13
-0.20
-0.38
-0.37
-0.26
-0.13
-0.08
-0.13
-0.21
-0.27
-0.25
-0.17
-0.08
-0.01
0.05
0.11
0.26
0.48
0.75
0.96
1.01
0.85
0.50
0.08
-0.25
-0.37
-0.23
0.10
0.48
0.74
0.79
0.64
0.38
0.13
-0.02
-0.04
0.08
0.29
0.55
0.82
1.02
1.07
0.90
0.48
-0.13
-0.82
-1.41
-1.78
-1.85
-1.65
-1.28
-0.88
-0.59
-0.49
-0.59
-0.82
-1.10
-1.33
-1.40
-1.28
-0.95
-0.49
-0.04
0.26
0.28
0.02
-0.40
-0.78
-0.90
-0.68
-0.21
0.33
0.72
0.86
0.78
0.60
0.50
0.54
0.70
0.88
0.96
0.90
0.71
0.47
0.29
0.21
0.25
0.36
0.44
0.39
0.17
-0.21
-0.63
-0.96
-1.07
-0.91
-0.55
-0.12
0.26
0.49
0.56
0.52
0.40
0.23
0.01
-0.24
-0.49
-0.66
-0.69
-0.58
-0.38
-0.17
-0.03
0.04
0.06
0.04
-0.01
-0.11
-0.24
-0.36
-0.40
-0.32
-0.17
-0.03
0.02
-0.04
-0.17
-0.28
-0.28
-0.17
-0.00
0.16
0.30
0.43
0.56
0.70
0.80
0.83
0.76
0.62
0.48
0.37
0.30
0.21
0.05
-0.18
-0.43
-0.63
-0.68
-0.58
-0.37
-0.10
0.13
0.29
0.37
0.38
0.33
0.24
0.11
-0.05
-0.21
-0.36
-0.50
-0.60
-0.64
-0.61
-0.49
-0.28
-0.01
0.28
0.54
0.73
0.83
0.83
0.74
0.58
0.37
0.16
-0.01
-0.09
-0.12
-0.14
-0.23
-0.42
-0.67
-0.89
-0.98
-0.85
-0.51
-0.04
0.43
0.79
1.00
1.05
0.97
0.80
0.57
0.34
0.13
-0.02
-0.10
-0.11
-0.08
-0.04
-0.00
0.04
0.09
0.14
0.15
0.11
0.01
-0.08
-0.14
-0.12
-0.05
0.02
0.01
-0.11
-0.35
-0.66
-0.93
-1.08
-1.04
-0.82
-0.50
-0.18
0.04
0.14
0.17
0.18
0.23
0.31
0.41
0.50
0.59
0.69
0.78
0.81
0.70
0.43
0.05
-0.28
-0.42
-0.32
-0.08
0.14
0.22
0.13
-0.01
-0.08
-0.01
0.16
0.27
0.20
-0.11
-0.57
-1.01
-1.24
-1.15
-0.79
-0.30
0.10
0.25
0.08
-0.30
-0.71
-0.95
-0.90
-0.59
-0.16
0.19
0.35
0.30
0.15
0.05
0.06
0.18
0.31
0.36
0.27
0.10
-0.04
-0.06
0.08
0.30
0.49
0.52
0.38
0.12
-0.12
-0.25
-0.24
-0.12
0.03
0.16
0.27
0.40
0.56
0.73
0.81
0.71
0.41
0.01
-0.32
-0.43
-0.26
0.11
0.52
0.77
0.77
0.53
0.15
-0.21
-0.43
-0.45
-0.28
-0.02
0.24
0.40
0.45
0.41
0.34
0.30
0.27
0.21
0.11
-0.04
-0.15
-0.15
0.02
0.31
0.59
0.70
0.56
0.20
-0.24
-0.58
-0.70
-0.63
-0.47
-0.39
-0.46
-0.68
-0.93
-1.08
-1.05
-0.84
-0.53
-0.26
-0.08
0.01
0.06
0.17
0.37
0.66
0.97
1.20
1.28
1.17
0.92
0.59
0.26
0.02
-0.13
-0.20
-0.24
-0.28
-0.33
-0.38
-0.39
-0.30
-0.14
0.05
0.19
0.23
0.17
0.05
-0.08
-0.21
-0.36
-0.54
-0.72
-0.85
-0.85
-0.72
-0.48
-0.23
-0.03
0.12
0.25
0.39
0.56
0.69
0.71
0.61
0.40
0.17
0.02
-0.03
-0.01
0.02
0.00
-0.03
-0.02
0.08
0.28
0.49
0.59
0.50
0.23
-0.13
-0.45
-0.61
-0.60
-0.47
-0.32
-0.23
-0.23
-0.32
-0.47
-0.62
-0.73
-0.73
-0.60
-0.32
0.05
0.44
0.74
0.89
0.90
0.79
0.63
0.47
0.31
0.15
-0.04
-0.25
-0.45
-0.60
-0.63
-0.52
-0.30
-0.06
0.11
0.13
0.03
-0.09
-0.12
0.01
0.27
0.54
0.69
0.63
0.39
0.08
-0.17
-0.27
-0.22
-0.10
-0.02
-0.04
-0.15
-0.25
-0.26
-0.10
0.18
0.50
0.72
0.76
0.61
0.33
0.02
-0.23
-0.39
-0.47
-0.51
-0.55
-0.60
-0.65
-0.69
-0.70
-0.68
-0.61
-0.47
-0.23
0.09
0.46
0.80
1.04
1.13
1.07
0.87
0.60
0.29
-0.03
-0.34
-0.58
-0.70
-0.67
-0.52
-0.29
-0.07
0.08
0.13
0.11
0.05
-0.01
-0.04
-0.05
-0.04
-0.05
-0.09
-0.16
-0.22
-0.24
-0.18
-0.04
0.16
0.37
0.54
0.65
0.72
0.76
0.77
0.72
0.58
0.35
0.08
-0.15
-0.27
-0.25
-0.09
0.13
0.35
0.52
0.58
0.53
0.33
-0.02
-0.46
-0.90
-1.21
-1.29
-1.14
-0.82
-0.48
-0.23
-0.13
-0.14
-0.19
-0.20
-0.14
0.02
0.26
0.53
0.79
0.95
0.95
0.78
0.47
0.10
-0.24
-0.47
-0.56
-0.51
-0.38
-0.22
-0.11
-0.08
-0.11
-0.18
-0.23
-0.23
-0.19
-0.14
-0.16
-0.26
-0.44
-0.63
-0.78
-0.86
-0.85
-0.79
-0.71
-0.66
-0.64
-0.64
-0.56
-0.34
0.03
0.50
0.92
1.15
1.12
0.88
0.58
0.37
0.34
0.48
0.70
0.87
0.92
0.82
0.58
0.30
0.08
-0.00
0.10
0.35
0.62
0.76
0.66
0.34
-0.04
-0.32
-0.34
-0.12
0.21
0.44
0.41
0.12
-0.28
-0.59
-0.68
-0.53
-0.25
0.03
0.23
0.34
0.40
0.43
0.40
0.27
0.01
-0.34
-0.64
-0.79
-0.72
-0.50
-0.23
-0.04
0.01
-0.06
-0.21
-0.37
-0.52
-0.66
-0.76
-0.81
-0.74
-0.52
-0.17
0.25
0.63
0.86
0.89
0.72
0.43
0.10
-0.18
-0.33
-0.36
-0.29
-0.18
-0.04
0.10
0.24
0.35
0.39
0.29
0.00
-0.44
-0.93
-1.31
-1.45
-1.32
-1.01
-0.67
-0.43
-0.30
-0.22
-0.09
0.19
0.59
1.03
1.39
1.58
1.58
1.42
1.20
0.99
0.86
0.83
0.86
0.88
0.85
0.76
0.62
0.46
0.32
0.18
0.05
-0.10
-0.23
-0.30
-0.30
-0.25
-0.25
-0.38
-0.66
-0.99
-1.23
-1.22
-0.95
-0.49
-0.05
0.20
0.16
-0.11
-0.48
-0.76
-0.85
-0.73
-0.48
-0.22
-0.04
0.00
-0.07
-0.18
-0.24
-0.20
-0.04
0.17
0.34
0.42
0.38
0.29
0.18
0.11
0.05
-0.04
-0.18
-0.35
-0.45
-0.40
-0.18
0.17
0.53
0.77
0.83
0.73
0.55
0.34
0.14
-0.02
-0.12
-0.12
0.03
0.29
0.57
0.74
0.68
0.40
-0.02
-0.42
-0.71
-0.84
-0.86
-0.84
-0.81
-0.77
-0.68
-0.54
-0.34
-0.10
0.15
0.41
0.66
0.91
1.18
1.45
1.68
1.78
1.66
1.28
0.71
0.10
-0.35
-0.51
-0.38
-0.11
0.13
0.20
0.06
-0.22
-0.53
-0.78
-0.94
-0.98
-0.92
-0.73
-0.44
-0.06
0.33
0.65
0.79
0.68
0.34
-0.15
-0.62
-0.92
-0.98
-0.84
-0.62
-0.46
-0.42
-0.50
-0.61
-0.69
-0.72
-0.74
-0.80
-0.90
-0.98
-0.95
-0.75
-0.40
0.02
0.38
0.58
0.59
0.46
0.29
0.17
0.16
0.25
0.35
0.40
0.34
0.20
0.07
0.01
0.09
0.29
0.53
0.73
0.80
0.74
0.56
0.33
0.10
-0.09
-0.20
-0.21
-0.13
0.06
0.31
0.57
0.73
0.74
0.58
0.32
0.08
-0.02
0.05
0.22
0.36
0.33
0.10
-0.26
-0.61
-0.80
-0.78
-0.59
-0.34
-0.14
-0.04
-0.02
0.00
0.08
0.22
0.36
0.42
0.36
0.20
0.02
-0.06
0.00
0.18
0.38
0.47
0.40
0.17
-0.11
-0.35
-0.48
-0.55
-0.60
-0.65
-0.67
-0.62
-0.44
-0.17
0.10
0.28
0.33
0.29
0.23
0.22
0.28
0.36
0.42
0.43
0.43
0.44
0.48
0.52
0.53
0.47
0.33
0.13
-0.08
-0.27
-0.40
-0.43
-0.35
-0.17
0.03
0.19
0.25
0.19
0.08
-0.00
0.00
0.10
0.23
0.31
0.29
0.16
-0.01
-0.16
-0.23
-0.21
-0.14
-0.11
-0.16
-0.27
-0.37
-0.37
-0.21
0.10
0.47
0.75
0.83
0.68
0.36
-0.05
-0.41
-0.66
-0.80
-0.83
-0.80
-0.72
-0.60
-0.43
-0.24
-0.07
0.04
0.06
-0.00
-0.10
-0.19
-0.21
-0.17
-0.10
-0.06
-0.08
-0.15
-0.25
-0.31
-0.30
-0.22
-0.07
0.15
0.43
0.71
0.92
0.98
0.82
0.49
0.11
-0.20
-0.36
-0.42
-0.49
-0.63
-0.84
-0.98
-0.91
-0.58
-0.09
0.38
0.69
0.78
0.73
0.67
0.69
0.77
0.86
0.87
0.76
0.53
0.22
-0.12
-0.42
-0.66
-0.81
-0.82
-0.72
-0.53
-0.30
-0.07
0.14
0.31
0.45
0.53
0.52
0.39
0.19
-0.04
-0.19
-0.21
-0.09
0.09
0.26
0.36
0.38
0.34
0.29
0.24
0.19
0.11
-0.01
-0.15
-0.29
-0.41
-0.54
-0.69
-0.87
-1.04
-1.13
-1.06
-0.81
-0.42
0.02
0.41
0.66
0.77
0.79
0.78
0.80
0.83
0.81
0.66
0.37
-0.00
-0.32
-0.44
-0.32
-0.01
0.33
0.52
0.48
0.23
-0.09
-0.31
-0.35
-0.23
-0.07
0.01
-0.11
-0.39
-0.73
-0.98
-1.03
-0.84
-0.48
-0.08
0.25
0.43
0.48
0.46
0.44
0.49
0.57
0.65
0.66
0.54
0.32
0.04
-0.21
-0.37
-0.43
-0.41
-0.37
-0.33
-0.30
-0.25
-0.15
-0.03
0.08
0.14
0.13
0.08
0.04
0.04
0.09
0.13
0.14
0.08
-0.05
-0.22
-0.38
-0.47
-0.46
-0.33
-0.11
0.14
0.33
0.39
0.31
0.12
-0.08
-0.22
-0.23
-0.12
0.06
0.23
0.34
0.37
0.32
0.23
0.14
0.06
-0.02
-0.09
-0.15
-0.19
-0.15
-0.04
0.14
0.33
0.48
0.54
0.48
0.32
0.06
-0.23
-0.50
-0.67
-0.71
-0.61
-0.43
-0.28
-0.24
-0.36
-0.59
-0.78
-0.79
-0.55
-0.11
0.36
0.69
0.77
0.62
0.36
0.13
0.00
-0.00
0.05
0.11
0.18
0.25
0.35
0.46
0.52
0.48
0.31
0.05
-0.23
-0.46
-0.60
-0.64
-0.59
-0.46
-0.24
0.00
0.20
0.26
0.12
-0.22
-0.61
-0.89
-0.93
-0.72
-0.39
-0.10
0.02
-0.07
-0.27
-0.46
-0.54
-0.50
-0.36
-0.15
0.07
0.29
0.45
0.54
0.53
0.46
0.42
0.49
0.70
0.97
1.17
1.20
1.05
0.79
0.57
0.46
0.46
0.46
0.35
0.11
-0.23
-0.54
-0.74
-0.82
-0.83
-0.83
-0.84
-0.84
-0.77
-0.60
-0.37
-0.12
0.10
0.32
0.55
0.82
1.09
1.29
1.34
1.24
1.03
0.76
0.50
0.24
-0.03
-0.30
-0.54
-0.66
-0.61
-0.39
-0.08
0.23
0.46
0.57
0.62
0.64
0.64
0.57
0.40
0.13
-0.15
-0.33
-0.34
-0.19
-0.00
0.07
-0.08
-0.45
-0.95
-1.40
-1.68
-1.71
-1.53
-1.21
-0.86
-0.55
-0.33
-0.17
-0.05
0.05
0.14
0.22
0.26
0.24
0.18
0.09
0.02
0.01
0.05
0.14
0.22
0.24
0.22
0.20
0.25
0.40
0.60
0.72
0.64
0.33
-0.12
-0.50
-0.63
-0.45
-0.08
0.31
0.51
0.49
0.33
0.17
0.14
0.24
0.40
0.48
0.42
0.22
-0.05
-0.30
-0.45
-0.50
-0.46
-0.35
-0.22
-0.07
0.09
0.26
0.44
0.61
0.73
0.75
0.62
0.38
0.11
-0.06
-0.01
0.23
0.56
0.78
0.74
0.43
-0.04
-0.50
-0.80
-0.90
-0.87
-0.82
-0.80
-0.78
-0.72
-0.55
-0.29
-0.03
0.13
0.14
0.02
-0.17
-0.39
-0.59
-0.77
-0.91
-0.98
-0.94
-0.80
-0.59
-0.40
-0.26
-0.15
-0.04
0.13
0.37
0.61
0.75
0.77
0.68
0.57
0.52
0.56
0.66
0.75
0.79
0.75
0.65
0.50
0.34
0.17
0.00
-0.13
-0.18
-0.16
-0.09
-0.00
0.03
-0.01
-0.15
-0.35
-0.55
-0.68
-0.67
-0.46
-0.09
0.35
0.73
0.92
0.87
0.65
0.39
0.23
0.21
0.29
0.37
0.35
0.18
-0.08
-0.33
-0.48
-0.46
-0.29
-0.04
0.21
0.40
0.49
0.46
0.30
0.05
-0.23
-0.47
-0.61
-0.63
-0.54
-0.39
-0.27
-0.27
-0.40
-0.63
-0.87
-1.01
-0.96
-0.71
-0.30
0.16
0.59
0.89
1.03
0.98
0.76
0.44
0.09
-0.19
-0.33
-0.34
-0.27
-0.24
-0.30
-0.44
-0.58
-0.63
-0.52
-0.30
-0.04
0.19
0.34
0.45
0.56
0.69
0.81
0.87
0.82
0.67
0.46
0.24
0.06
-0.05
-0.08
-0.05
0.01
0.04
0.01
-0.12
-0.32
-0.52
-0.64
-0.63
-0.50
-0.33
-0.18
-0.12
-0.12
-0.14
-0.15
-0.14
-0.15
-0.23
-0.42
-0.68
-0.91
-0.99
-0.83
-0.46
-0.03
0.26
0.25
-0.11
-0.70
-1.31
-1.76
-1.97
-2.00
-1.98
-2.01
-2.14
-2.33
-2.52
-2.70
-2.86
-3.03
-3.23
-3.46
-3.70
-3.95
-4.24
-4.59
-5.01
-5.52
-6.10
-6.73
-7.43
-8.13
-8.77
-9.22
-9.40
-9.33
-9.18
-9.17
-9.49
-10.08
-10.67
-10.83
-10.13
-8.33
-5.44
-1.67
2.65
7.18
11.56
15.50
18.77
21.34
23.36
25.14
26.92
28.71
30.12
30.46
28.90
24.84
18.21
9.59
0.14
-8.65
-15.42
-19.26
-20.01
-18.22
-14.85
-10.95
-7.26
-4.15
-1.64
0.38
1.93
2.98
3.49
3.57
3.46
3.49
3.92
4.75
5.80
6.74
7.31
7.45
7.28
6.99
6.78
6.63
6.39
5.78
4.56
2.65
0.14
-2.69
-5.53
-8.12
-10.33
-12.15
-13.64
-14.90
-15.98
-16.89
-17.58
-18.02
-18.25
-18.42
-18.85
-19.86
-21.68
-24.31
-27.46
-30.68
-33.49
-35.57
-36.81
-37.33
-37.40
-37.41
-37.83
-39.13
-41.59
-45.19
-49.60
-54.25
-58.71
-62.87
-67.05
-71.77
-77.47
-84.15
-91.14
-97.26
-101.17
-101.92
-99.35
-94.25
-88.30
-83.46
-81.26
-81.90
-83.74
-83.46
-77.02
-60.92
-33.37
5.33
53.13
106.83
162.67
216.65
264.79
303.62
331.15
347.58
355.42
358.29
359.10
358.39
353.92
341.98
319.39
285.12
240.53
188.44
131.89
73.51
15.96
-37.52
-83.05
-116.99
-137.41
-145.10
-143.48
-137.21
-130.39
-125.26
-122.02
-119.62
-116.85
-113.21
-108.96
-104.76
-101.12
-98.10
-95.38
-92.46
-89.03
-85.20
-81.51
-78.56
-76.85
-76.39
-76.79
-77.38
-77.63
-77.32
-76.57
-75.80
-75.43
-75.75
-76.86
-78.65
-80.77
-82.66
-83.96
-84.95
-87.05
-92.51
-103.68
-121.83
-146.34
-174.75
-203.46
-228.82
-247.91
-258.71
-259.90
-250.75
-231.17
-202.08
-165.40
-123.60
-78.79
-32.05
16.40
66.27
115.98
162.30
201.11
228.99
244.68
249.74
247.75
242.73
237.59
233.34
229.51
225.20
220.12
215.05
211.37
210.26
211.88
215.25
218.62
220.41
219.82
217.37
214.61
213.53
215.74
221.92
231.66
243.61
255.84
266.11
272.07
271.55
262.85
245.29
219.35
186.60
149.19
109.03
67.19
23.67
-22.06
-70.08
-119.02
-165.78
-206.10
-235.94
-252.94
-257.29
-251.56
-239.59
-224.97
-210.01
-195.54
-181.58
-168.10
-155.53
-144.64
-135.87
-128.92
-122.71
-115.91
-107.59
-97.71
-87.05
-76.91
-68.42
-62.05
-57.48
-53.83
-50.07
-45.52
-40.11
-34.35
-28.98
-24.63
-21.52
-19.41
-17.76
-16.07
-14.13
-12.03
-10.10
-8.69
-7.94
-7.76
-7.91
-8.10
-8.18
-8.12
-7.99
-7.88
-7.86
-7.94
-8.06
-8.17
-8.24
-8.27
-8.33
-8.47
-8.68
-8.88
-8.88
-8.48
-7.59
-6.24
-4.58
-2.79
-0.95
0.97
3.03
5.15
7.05
8.34
8.77
8.39
7.66
7.20
7.50
8.66
10.29
11.72
12.34
11.88
10.57
8.97
7.75
7.33
7.80
8.85
9.98
10.64
10.45
9.22
7.05
4.17
0.92
-2.27
-5.01
-6.93
-7.80
-7.55
-6.36
-4.56
-2.57
-0.79
0.46
1.03
0.94
0.37
-0.41
-1.16
-1.73
-2.11
-2.41
-2.77
-3.32
-4.15
-5.33
-6.93
-8.89
-11.04
-12.96
-14.10
-13.97
-12.38
-9.53
-6.05
-2.75
-0.38
0.60
0.13
-1.47
-3.60
-5.60
-6.85
-6.98
-5.88
-3.78
-1.12
1.54
3.68
4.97
5.34
4.97
4.20
3.39
2.86
2.81
3.31
4.34
5.76
7.33
8.71
9.58
9.70
9.12
8.13
7.19
6.74
7.01
7.94
9.20
10.37
11.04
10.93
9.89
7.93
5.20
1.93
-1.52
-4.77
-7.45
-9.30
-10.20
-10.22
-9.63
-8.80
-8.10
-7.83
-8.07
-8.68
-9.39
-9.90
-9.98
-9.61
-8.86
-7.93
-6.95
-6.01
-5.17
-4.50
-4.10
-4.02
-4.22
-4.44
-4.29
-3.43
-1.73
0.61
3.10
5.19
6.42
6.59
5.79
4.25
2.26
0.10
-2.00
-3.76
-4.87
-4.99
-3.89
-1.52
1.81
5.45
8.57
10.37
10.39
8.64
5.65
2.35
-0.27
-1.39
-0.66
1.74
5.15
8.65
11.36
12.69
12.49
11.01
8.67
5.94
3.15
0.59
-1.44
-2.58
-2.50
-1.13
1.22
3.87
5.99
6.93
6.52
5.09
3.34
2.04
1.68
2.42
4.15
6.60
9.55
12.88
16.42
19.89
22.80
24.57
24.72
23.10
19.95
15.77
11.19
6.70
2.50
-1.38
-4.98
-8.27
-11.10
-13.32
-14.86
-15.81
-16.39
-16.75
-16.96
-16.95
-16.64
-16.02
-15.24
-14.50
-13.93
-13.52
-13.08
-12.45
-11.61
-10.68
-9.88
-9.38
-9.20
-9.21
-9.27
-9.26
-9.16
-8.97
-8.69
-8.25
-7.56
-6.62
-5.52
-4.44
-3.54
-2.92
-2.57
-2.43
-2.43
-2.52
-2.68
-2.87
-3.04
-3.12
-3.06
-2.77
-2.21
-1.38
-0.37
0.64
1.44
1.86
1.90
1.76
1.75
2.13
2.97
4.10
5.29
6.38
7.36
8.36
9.44
10.49
11.20
11.21
10.31
8.58
6.42
4.29
2.57
1.38
0.61
0.09
-0.32
-0.58
-0.58
-0.22
0.50
1.45
2.44
3.31
4.02
4.58
5.08
5.60
6.16
6.78
7.42
8.02
8.50
8.72
8.58
8.05
7.21
6.18
5.11
4.03
2.93
1.69
0.25
