1660755613.00
64.000000
-0.00
-0.00
-0.00
-0.00
-0.00
-0.00
-0.00
-0.00
-0.00
-0.00
0.00
0.01
0.01
-0.00
-0.03
-0.05
-0.05
0.00
0.13
0.36
0.66
1.01
1.37
1.72
2.06
2.40
2.79
3.24
3.80
4.42
5.06
5.66
6.20
6.68
7.15
7.68
8.31
9.14
10.09
11.04
11.88
12.56
13.14
13.76
14.65
15.96
17.91
20.32
22.90
25.38
27.58
29.57
31.68
34.32
37.81
42.54
48.15
54.10
59.83
64.97
69.58
74.14
79.34
85.71
93.76
103.00
112.62
121.73
129.77
136.75
143.30
150.75
157.77
166.64
177.95
191.79
206.97
220.57
228.25
225.36
208.53
176.87
132.76
80.05
23.07
-34.94
-92.44
-149.16
-205.23
-260.37
-313.74
-363.87
-409.83
-450.91
-486.50
-515.74
-537.23
-549.22
-549.96
-538.37
-514.21
-478.67
-433.88
-382.45
-327.02
-269.84
-212.63
-156.66
-102.95
-52.37
-5.90
35.58
71.43
101.35
125.50
144.38
158.69
169.15
176.37
180.75
182.57
182.07
179.51
175.23
169.65
163.18
156.15
148.81
141.30
133.69
126.02
118.33
110.69
103.16
95.80
88.68
81.83
75.25
68.95
62.95
57.25
51.86
46.78
42.03
37.59
33.45
29.61
26.07
22.81
19.83
17.11
14.67
12.48
10.54
8.83
7.35
6.07
4.97
4.05
3.27
2.62
2.09
1.65
1.30
1.01
0.79
0.61
0.47
0.37
0.28
0.22
0.18
0.14
0.12
0.11
0.11
0.11
0.12
0.14
0.16
0.19
0.22
0.26
0.30
0.36
0.43
0.48
0.51
0.50
0.46
0.39
0.33
0.31
0.34
0.42
0.51
0.60
0.64
0.65
0.64
0.65
0.72
0.88
1.10
1.34
1.53
1.65
1.67
1.66
1.71
1.90
2.29
2.83
3.39
3.81
3.98
3.89
3.68
3.57
3.78
4.43
5.40
6.44
7.19
7.40
7.04
6.40
5.89
5.98
6.85
8.33
9.90
10.90
10.82
9.50
7.24
4.61
2.10
-0.07
-2.12
-4.57
-8.00
-12.87
-19.34
-27.42
-36.78
-46.57
-55.05
-59.94
-59.00
-51.17
-37.35
-20.34
-3.91
8.70
15.94
18.35
17.75
16.15
14.71
13.58
12.28
10.51
8.49
6.88
6.31
6.92
8.23
9.41
9.65
8.64
6.72
4.59
3.05
2.55
2.99
3.84
4.41
4.25
3.33
2.01
0.79
0.02
-0.20
-0.08
0.06
-0.01
-0.30
-0.57
-0.45
0.33
1.79
3.61
5.29
6.37
6.69
6.39
5.81
5.34
5.16
5.22
5.31
5.28
5.08
4.80
4.56
4.29
4.01
3.71
3.45
3.28
3.22
3.18
3.03
2.62
1.92
0.98
-0.10
-1.25
-2.44
-3.59
-4.65
-5.57
-6.36
-7.12
-8.00
-9.10
-10.46
-11.94
-13.37
-14.58
-15.40
-15.65
-15.13
-13.69
-11.32
-8.18
-4.66
-1.16
2.02
4.86
7.51
10.19
12.93
15.57
17.79
19.27
19.84
19.60
18.82
17.83
16.91
16.11
15.40
14.63
13.69
12.62
11.53
10.53
9.65
8.82
7.87
6.64
5.09
3.26
1.28
-0.78
-2.84
-4.91
-6.96
-8.97
-10.93
-12.88
-14.92
-17.08
-19.27
-21.23
-22.67
-23.31
-23.07
-21.98
-20.17
-17.78
-14.86
-11.45
-7.65
-3.64
0.31
3.88
6.82
8.96
10.31
11.01
11.27
11.29
11.19
11.04
10.81
10.52
10.21
9.92
9.66
9.36
8.87
8.08
6.98
5.68
4.39
3.26
2.30
1.37
0.22
-1.31
-3.29
-5.59
-7.94
-10.04
-11.60
-12.54
-12.97
-13.23
-13.77
-14.95
-16.86
-19.27
-21.69
-23.56
-24.44
-24.19
-22.86
-20.69
-17.93
-14.77
-11.36
-7.86
-4.45
-1.35
1.23
3.17
4.48
5.29
5.79
6.12
6.34
6.35
6.10
5.58
4.98
4.53
4.40
4.66
5.13
5.51
5.50
4.94
3.80
2.26
0.54
-1.11
-2.49
-3.56
-4.34
-4.97
-5.59
-6.28
-7.09
-7.98
-8.96
-10.01
-11.09
-12.10
-12.94
-13.58
-14.12
-14.74
-15.58
-16.58
-17.44
-17.69
-16.89
-14.84
-11.66
-7.68
-3.37
0.91
4.85
8.30
11.14
13.31
14.87
15.90
16.62
17.22
17.83
18.51
19.20
19.74
20.01
19.97
19.70
19.49
19.60
20.25
21.38
22.68
23.69
24.02
23.49
22.21
20.43
18.53
16.75
15.25
14.04
13.05
12.16
11.22
10.12
8.80
7.28
5.62
3.90
2.14
0.36
-1.39
-2.99
-4.24
-4.95
-5.01
-4.48
-3.50
-2.24
-0.77
0.95
2.99
5.36
7.91
10.40
12.50
13.96
14.64
14.54
13.80
12.56
11.03
9.34
7.69
6.26
5.24
4.76
4.78
5.08
5.31
5.16
4.43
3.18
1.65
0.14
-1.20
-2.37
-3.46
-4.56
-5.62
-6.54
-7.29
-7.91
-8.53
-9.33
-10.38
-11.62
-12.95
-14.29
-15.69
-17.20
-18.82
-20.41
-21.66
-22.20
-21.75
-20.18
-17.62
-14.41
-11.03
-7.86
-5.11
-2.75
-0.61
1.49
3.61
5.63
7.39
8.74
9.64
10.11
10.15
9.76
8.94
7.82
6.67
5.76
5.24
5.04
4.90
4.50
3.65
2.36
0.80
-0.86
-2.48
-3.98
-5.30
-6.38
-7.16
-7.65
-7.98
-8.32
-8.79
-9.42
-10.15
-10.83
-11.41
-11.86
-12.24
-12.61
-12.95
-13.18
-13.15
-12.71
-11.78
-10.40
-8.70
-6.73
-4.48
-1.80
1.54
5.65
10.40
15.33
19.87
23.52
26.15
28.00
29.55
31.21
33.14
35.17
36.99
38.25
38.82
38.82
38.52
38.38
38.87
40.36
42.85
45.81
48.07
48.06
44.44
36.64
25.33
12.36
0.31
-8.27
-11.55
-9.01
-1.50
8.97
19.78
28.52
33.55
34.31
31.31
25.75
19.09
12.65
7.37
3.79
2.08
2.07
3.36
5.50
8.15
11.27
15.16
20.32
27.31
36.66
48.82
64.16
82.73
103.91
125.93
145.85
159.94
164.69
157.81
138.92
109.53
72.20
29.60
-16.01
-62.71
-108.35
-149.94
-183.88
-206.76
-216.60
-213.62
-200.17
-179.75
-155.75
-130.62
-105.69
-81.61
-58.86
-37.99
-19.48
-3.44
10.43
22.58
33.22
42.08
48.36
51.12
49.78
44.57
36.66
28.05
21.11
17.93
19.76
26.59
37.12
49.20
60.50
69.15
74.31
76.09
75.21
72.31
67.34
59.40
46.99
28.86
4.68
-24.39
-55.83
-86.51
-113.51
-134.93
-149.99
-158.83
-161.90
-159.75
-152.95
-142.41
-129.53
-116.09
-103.81
-93.84
-86.45
-81.08
-76.75
-72.60
-68.22
-63.66
-59.30
-55.52
-52.49
-50.11
-48.15
-46.39
-44.64
-42.78
-40.63
-37.93
-34.41
-29.91
-24.58
-18.87
-13.40
-8.66
-4.81
-1.54
1.61
5.11
9.14
13.57
18.10
22.50
26.69
30.74
34.74
38.61
41.98
44.34
45.15
44.13
41.43
37.71
34.00
31.39
30.63
31.81
34.38
37.36
39.80
41.21
41.67
41.69
41.88
42.64
44.10
46.22
48.84
51.73
54.47
56.29
56.31
53.94
49.41
44.01
39.85
39.01
42.50
49.67
58.05
64.27
65.41
60.31
50.19
38.29
28.60
24.34
26.87
35.52
48.35
63.28
78.97
95.10
112.07
130.35
150.11
170.99
192.25
212.85
231.52
246.83
257.42
262.54
262.68
259.79
256.73
256.02
258.41
262.24
263.87
259.20
245.58
222.98
193.93
162.23
131.19
102.43
75.69
49.70
23.36
-3.41
-29.93
-55.12
-78.23
-99.28
-118.96
-138.43
-159.50
-184.59
-216.19
-255.73
-301.77
-348.91
-388.31
-409.93
-405.63
-371.72
-309.97
-226.83
-131.89
-35.99
50.42
118.49
162.56
181.14
177.45
157.64
129.69
101.19
77.33
59.96
48.12
39.47
31.58
22.59
10.51
-5.61
-25.49
-48.12
-72.64
-98.60
-125.12
-150.20
-170.47
-184.02
-189.19
-184.67
-169.45
-143.24
-106.25
-59.21
-4.37
53.32
101.00
126.95
126.40
103.36
66.88
26.66
-9.96
-39.48
-61.98
-90.33
-133.42
-189.83
-248.96
-300.40
-339.40
-366.33
-383.96
-395.22
-419.41
-468.45
-539.04
-615.20
-682.49
-735.15
-774.48
-804.77
-830.20
-876.11
-958.67
-1074.45
-1203.57
-1327.88
-1439.76
-1539.78
-1631.49
-1575.69
-1306.64
-869.10
-387.41
33.48
351.77
572.10
717.44
812.36
876.81
902.07
882.09
820.21
744.16
679.39
640.40
631.98
652.41
696.20
738.98
762.60
764.70
757.16
750.67
743.64
727.59
693.83
639.66
560.57
464.06
370.10
303.69
279.67
296.88
341.41
393.42
434.32
446.45
421.96
364.54
286.40
200.21
115.06
36.10
-34.55
-96.52
-152.41
-205.15
-257.51
-312.11
-371.90
-438.21
-508.04
-573.41
-623.38
-647.98
-642.40
-609.10
-556.71
-496.53
-438.21
-386.85
-342.87
-303.92
-267.42
-232.14
-198.37
-166.89
-137.98
-111.02
-84.92
-58.82
-32.65
-7.20
16.43
37.52
56.17
73.31
90.32
108.28
127.58
147.73
167.72
186.52
203.64
219.24
234.09
249.33
266.28
286.23
309.85
336.53
363.80
387.57
403.20
407.24
398.67
379.14
351.99
320.70
287.72
254.22
220.61
187.49
156.07
128.00
104.79
87.12
74.75
66.79
62.39
61.21
63.42
69.31
78.71
90.41
102.34
112.22
118.39
120.43
119.01
115.04
108.73
99.26
85.42
66.67
43.80
18.83
-5.82
-28.25
-47.67
-64.47
-79.91
-95.42
-111.98
-129.28
-145.46
-157.53
-162.70
-160.11
-151.73
-141.78
-134.53
-132.14
-133.46
-135.61
-135.55
-132.15
-126.33
-119.34
-110.93
-98.55
-78.51
-47.84
-6.45
43.60
99.43
158.94
220.87
283.25
341.59
388.69
417.31
422.44
405.45
374.01
339.35
311.90
297.24
294.51
297.55
299.24
291.44
270.42
235.82
189.50
134.12
72.68
8.95
-51.80
-100.32
-131.91
-141.75
-129.78
-101.83
-67.97
-39.27
-24.04
-25.77
-39.55
-65.95
-102.10
-146.85
-199.84
-259.16
-319.54
-372.25
-407.63
-413.55
-393.13
-350.45
-293.39
-229.93
-164.88
-98.84
-30.31
9.37
52.34
83.43
92.16
72.38
25.66
-39.02
-109.29
-174.39
-228.40
-265.45
-291.67
-307.39
-311.02
-300.48
-275.68
-239.92
-199.09
-159.21
-119.97
-85.27
-52.77
-19.85
14.71
50.18
84.75
116.66
145.41
174.57
204.58
238.99
280.32
328.40
379.07
423.90
451.68
452.17
421.32
361.26
284.09
207.31
148.65
120.82
128.46
168.32
231.61
307.51
384.11
450.76
497.84
518.84
512.01
480.88
433.03
377.59
322.55
272.89
230.14
192.11
156.49
122.06
88.62
55.81
22.73
-11.50
-46.81
-82.00
-117.59
-153.09
-187.16
-218.44
-246.96
-274.31
-302.94
-335.38
-373.70
-421.72
-479.50
-541.66
-598.47
-639.87
-659.36
-656.00
-634.24
-583.79
-506.99
-417.83
-333.93
-265.30
-212.84
-173.59
-144.84
-124.51
-110.57
-103.35
-101.53
-102.22
-101.45
-97.06
-89.42
-80.40
-71.68
-63.85
-59.28
-58.81
-61.85
-64.88
-64.95
-60.83
-53.14
-43.05
-32.29
-24.09
-20.26
-21.41
-23.30
-20.62
-8.29
12.83
41.10
73.51
105.55
134.27
157.60
179.47
205.81
242.19
290.88
351.00
419.26
491.56
566.32
618.58
628.07
583.94
490.97
365.93
231.13
107.91
12.35
-40.05
-57.10
-49.39
-27.29
2.47
36.48
75.49
122.74
166.58
198.73
223.78
241.87
244.79
231.14
203.50
167.51
129.20
92.53
59.98
29.77
-0.27
-30.19
-56.75
-76.68
-88.35
-93.15
-95.39
-99.14
-108.66
-126.04
-149.85
-175.41
-198.59
-217.25
-232.11
-246.32
-263.11
-285.83
-317.15
-358.01
-407.53
-464.07
-524.47
-583.52
-634.08
-668.11
-679.78
-667.88
-635.69
-589.41
-536.09
-481.21
-427.72
-376.60
-327.87
-281.77
-238.84
-198.96
-160.72
-121.81
-80.15
-34.87
13.11
61.53
107.70
149.66
187.05
221.28
255.32
292.69
336.11
385.72
437.91
485.36
518.92
530.58
516.52
478.57
423.72
361.66
301.58
249.61
207.93
175.43
149.31
126.58
104.58
81.07
54.12
22.66
-12.62
-48.57
-79.94
-100.88
-107.21
-98.39
-77.89
-51.94
-26.98
-7.34
5.87
14.27
20.51
26.68
33.23
39.15
42.77
42.83
38.95
31.61
21.97
11.42
1.52
-6.22
-10.42
-10.01
-4.50
5.56
18.52
32.25
45.32
57.71
70.72
85.89
103.90
123.78
142.47
155.43
158.28
148.81
128.45
102.29
78.43
66.60
75.57
109.37
164.55
230.34
292.02
335.97
353.46
342.89
309.91
264.71
217.23
173.69
135.91
103.03
73.43
44.69
13.05
-25.80
-75.40
-137.64
-211.48
-291.53
-368.15
-423.91
-440.10
-411.30
-351.11
-282.27
-222.80
-180.18
-152.90
-134.86
-119.98
-105.06
-89.75
-73.98
-56.28
-34.63
-9.49
15.15
32.99
37.60
24.91
-4.65
-44.99
-85.67
-115.79
-128.48
-122.78
-100.72
-69.15
-37.09
-12.88
-1.42
-3.01
-14.24
-30.02
-45.36
-56.51
-62.08
-62.62
-60.12
-56.87
-54.54
-54.00
-55.72
-60.02
-67.00
-76.61
-87.99
-99.63
-110.00
-118.57
-126.52
-136.27
-149.84
-167.07
-185.05
-198.77
-203.41
-196.73
-180.06
-157.45
-133.46
-111.02
-90.59
-70.92
-50.48
-28.87
-7.12
12.93
29.81
43.19
54.03
64.05
75.06
88.48
105.31
126.37
152.32
183.24
217.97
253.62
285.87
310.07
322.85
323.37
313.59
297.51
279.56
263.16
249.96
240.09
233.02
228.41
226.58
228.18
233.69
242.83
254.37
266.37
276.59
282.97
283.93
278.45
265.96
246.22
219.43
186.28
148.16
107.12
65.70
26.54
-8.07
-36.57
-58.39
-73.97
-84.51
-91.57
-96.60
-100.60
-104.03
-106.93
-109.17
-110.68
-111.44
-111.52
-110.94
-109.68
-107.65
-104.83
-101.30
-97.28
-93.09
-89.17
-85.98
-83.95
-83.32
-84.04
-85.63
-87.24
-87.95
-87.06
-84.36
-80.21
-75.32
-70.40
-65.86
-61.60
-57.20
-52.14
-46.20
-39.63
-33.06
-27.37
-23.19
-20.64
-19.08
-17.31
-14.03
-8.45
-0.83
7.34
13.73
16.06
13.06
5.32
-4.85
-14.11
-19.66
-20.66
-19.07
-19.38
-27.34
-48.11
-84.82
-137.25
-201.39
-269.92
-333.44
-382.41
-409.58
-412.22
-393.31
-360.73
-324.65
-293.92
-273.22
-262.20
-256.84
-252.14
-244.51
-232.57
-216.42
-196.27
-171.53
-141.21
-105.01
-64.28
-22.13
17.67
52.43
81.65
107.30
132.90
162.02
196.97
237.34
279.77
318.66
347.66
361.72
358.74
340.29
311.03
277.11
244.15
215.86
193.57
176.79
164.30
155.17
149.09
146.20
146.45
149.15
153.12
157.22
161.02
165.14
171.12
180.67
194.86
213.51
235.20
257.67
278.32
294.71
304.88
307.61
302.56
290.43
272.71
251.27
227.94
204.06
180.57
158.17
137.60
119.60
104.80
93.49
85.48
80.23
77.10
75.61
75.64
77.22
80.31
84.57
89.13
92.83
94.43
93.09
88.53
81.12
71.57
60.59
48.50
35.17
20.15
3.07
-16.01
-36.35
-56.71
-75.69
-92.25
-106.08
-117.61
-127.61
-136.65
-144.58
-150.35
-152.39
-149.36
-140.74
-127.21
-110.52
-92.91
-76.49
-63.06
-53.93
-49.67
-49.42
-50.37
-48.09
-38.04
-17.82
11.09
43.35
71.79
90.53
97.48
94.82
87.18
78.93
72.15
66.28
59.51
50.71
40.34
30.21
22.22
17.11
14.03
11.06
5.99
-2.46
-14.07
-27.26
-39.72
-49.99
-56.42
-59.60
-61.49
-64.61
-71.08
-81.73
-95.87
-111.59
-127.32
-140.77
-151.47
-160.04
-167.85
-176.55
-188.05
-204.54
-228.07
-260.38
-296.14
-327.02
-341.86
-331.21
-292.64
-233.63
-169.99
-119.91
-100.89
-111.87
-146.52
-192.73
-238.45
-276.09
-303.55
-322.53
-336.31
-356.78
-377.56
-401.35
-429.65
-461.15
-490.90
-510.78
-512.43
-491.17
-463.28
-424.59
-391.16
-377.91
-392.29
-430.88
-480.70
-524.95
-550.08
-567.96
-561.67
-538.64
-506.24
-468.58
-426.36
-378.65
-325.05
-155.39
-13.95
118.84
240.59
348.17
437.72
505.19
547.82
565.53
561.29
523.05
477.10
429.82
386.37
349.87
321.08
298.29
277.62
253.84
208.33
153.24
89.47
22.90
-36.45
-76.64
-87.94
-66.80
-18.06
37.15
91.85
131.03
145.61
134.12
100.86
52.05
-7.87
-77.47
-160.72
-250.94
-341.83
-423.12
-483.85
-516.55
-520.38
-501.17
-468.39
-432.45
-396.83
-362.34
-327.16
-289.67
-250.20
-210.90
-174.24
-141.12
-110.40
-79.66
-47.03
-12.35
22.52
54.64
81.70
103.31
121.24
138.53
157.83
180.02
203.83
226.35
244.62
257.12
264.48
269.22
275.11
286.00
304.73
331.82
364.21
394.60
412.14
405.31
366.25
294.89
200.59
100.02
11.73
-50.23
-80.38
-82.20
-64.83
-38.22
-9.48
18.26
44.65
70.26
95.25
119.53
143.70
169.72
200.51
237.88
280.44
322.98
358.06
379.26
384.98
380.26
375.33
381.48
405.85
447.98
499.69
548.35
581.67
591.93
577.71
542.91
494.22
438.25
379.83
321.61
264.62
209.16
155.65
104.68
56.60
11.23
-32.40
-75.75
-120.24
-166.91
-216.60
-270.42
-329.99
-396.54
-469.15
-543.19
-610.14
-659.68
-683.21
-677.34
-645.39
-595.93
-539.25
-483.48
-432.17
-384.53
-337.31
-287.31
-233.19
-176.06
-118.81
-64.76
-16.46
25.28
61.75
95.85
130.80
169.38
213.21
262.65
316.65
371.96
422.61
460.31
476.59
466.73
433.09
385.46
337.33
300.37
279.71
272.84
272.59
272.69
271.56
272.74
281.50
300.57
327.61
355.84
377.19
386.12
382.14
369.17
352.74
336.66
321.54
305.56
286.32
262.76
236.18
210.52
189.30
173.27
158.91
140.21
111.98
72.39
23.63
-29.15
-79.53
-123.96
-162.85
-201.07
-245.49
-301.49
-371.15
-453.87
-547.59
-648.42
-746.42
-821.46
-853.30
-834.84
-775.18
-692.09
-603.69
-529.59
-470.33
-423.12
-384.56
-352.59
-326.42
-304.80
-286.05
-267.60
-246.63
-220.00
-187.55
-151.27
-115.24
-83.85
-59.61
-41.92
-27.87
-13.94
3.28
24.32
47.86
71.19
91.69
108.36
122.39
136.31
152.48
172.40
195.18
219.02
241.73
261.80
279.17
295.52
313.68
336.77
367.37
406.36
453.27
504.55
553.46
591.44
611.23
609.35
587.06
549.03
501.52
451.92
405.34
363.94
327.57
296.12
269.90
248.61
229.55
208.48
183.73
154.62
121.69
85.54
47.73
9.40
-30.17
-74.95
-130.14
-197.12
-276.31
-367.39
-469.69
-579.02
-684.67
-763.96
-795.81
-790.01
-760.31
-719.87
-671.87
-622.42
-575.10
-530.36
-487.02
-445.38
-407.22
-371.66
-337.73
-302.93
-266.07
-225.91
-182.13
-135.86
-90.24
-49.11
-13.14
18.40
49.89
83.67
120.72
160.34
200.94
240.22
275.90
307.26
334.88
364.56
399.45
439.82
483.23
526.82
569.02
610.34
652.74
699.13
756.48
824.23
893.81
951.73
986.48
993.55
976.51
943.70
863.38
725.93
544.07
349.65
174.02
34.43
-65.78
-125.58
-159.38
-177.76
-181.34
-174.41
-163.57
-156.73
-157.91
-167.88
-185.47
-210.09
-239.65
-267.40
-294.40
-324.42
-361.39
-406.21
-456.73
-509.45
-561.84
-610.72
-650.88
-686.43
-723.51
-767.00
-817.71
-873.44
-931.64
-991.82
-1054.00
-1073.66
-1023.23
-899.02
-722.37
-523.76
-327.68
-149.47
1.37
120.07
207.08
260.70
283.83
283.80
270.39
252.28
234.95
220.92
211.80
208.96
207.98
204.56
196.27
183.53
168.03
152.40
138.66
128.34
122.53
118.20
112.26
102.73
89.49
73.66
56.68
39.75
23.91
9.98
-3.27
-17.02
-32.03
-48.09
-64.38
-79.82
-93.38
-104.00
-110.57
-114.15
-115.43
-114.99
-113.17
-110.13
-105.95
-100.79
-94.86
-88.42
-81.84
-75.35
-69.25
-63.84
-59.33
-55.80
-53.25
-51.62
-50.80
-50.70
-51.08
-51.74
-52.53
-53.31
-53.98
-54.48
-54.78
-54.86
-54.78
-54.47
-53.92
-53.13
-52.11
-50.82
-49.22
-47.31
-45.07
-42.58
-39.88
-37.10
-34.37
-31.87
-29.77
-28.25
-27.51
-27.80
-29.34
-32.34
-36.90
-42.99
-50.39
-58.65
-67.12
-75.06
-81.75
-86.53
-88.99
-88.88
-86.11
-80.70
-72.72
-62.31
-49.77
-35.60
-20.59
-5.72
7.95
19.56
28.63
35.20
39.72
42.83
45.04
46.61
47.42
47.26
46.14
44.62
43.92
45.70
51.67
63.01
80.05
102.25
128.52
157.67
188.85
221.79
256.66
293.95
334.26
378.03
425.03
473.71
520.65
560.79
588.50
599.38
592.05
568.87
535.23
497.58
461.30
429.17
401.37
376.48
352.90
329.78
307.08
285.11
263.99
243.44
223.03
202.59
182.35
162.97
145.24
129.64
116.16
104.28
93.19
82.11
70.55
58.57
46.60
35.39
25.57
17.51
11.10
5.92
1.42
-2.82
-6.87
-10.46
-13.07
-14.08
-12.91
-9.11
-2.49
6.75
18.01
30.30
42.43
53.34
62.45
69.71
75.52
80.41
84.69
88.36
91.22
93.12
94.16
94.62
94.78
94.84
95.16
96.54
100.36
108.27
121.36
139.37
160.35
181.01
197.57
206.64
205.82
193.72
169.92
134.86
89.92
37.56
-18.89
-75.79
-130.13
-180.10
-225.46
-267.38
-307.62
-347.43
-386.51
-422.50
-451.28
-468.25
-470.06
-456.01
-428.54
-392.40
-353.00
-314.85
-280.65
-251.42
-227.11
-207.39
-191.82
-179.77
-170.18
-161.61
-152.59
-142.12
-129.97
-116.65
-103.18
-90.62
-79.65
-70.46
-62.77
-56.02
-49.62
-43.13
-36.33
-29.27
-22.11
-15.08
-8.45
-2.45
2.71
6.89
10.07
12.38
14.10
15.65
17.51
20.15
23.86
28.54
33.65
38.26
41.36
42.40
41.70
40.56
40.84
44.33
52.01
63.67
78.06
93.26
107.15
117.67
123.04
121.97
114.06
100.14
82.20
62.93
44.78
29.17
16.25
5.43
-3.87
-11.53
-16.74
-18.58
-16.71
-11.67
-4.62
3.42
12.08
21.78
33.29
47.17
63.35
81.30
100.25
119.53
138.69
157.30
174.75
190.31
203.41
214.03
222.73
230.28
236.91
241.83
243.19
238.68
226.61
206.59
179.82
148.56
115.33
82.11
50.03
19.42
-9.87
-38.12
-65.62
-92.60
-119.16
-145.18
-170.29
-193.95
-215.79
-235.81
-254.51
-272.78
-291.49
-311.08
-331.39
-351.86
-371.77
-390.71
-408.74
-426.29
-444.11
-463.31
-485.59
-513.01
-546.95
-586.54
-627.48
-662.03
-681.05
-677.16
-647.58
-595.22
-527.40
-452.89
-378.92
-309.77
-246.90
-190.29
-139.42
-93.32
-49.80
-5.14
44.79
102.03
163.91
222.65
267.72
290.47
289.07
270.66
249.43
241.24
257.35
299.98
361.84
429.06
486.08
520.11
523.97
497.48
447.45
386.42
330.02
292.75
283.28
301.30
337.46
376.56
403.14
406.95
386.39
348.36
304.94
268.29
246.10
239.46
243.38
249.87
251.51
243.95
226.51
200.86
169.04
132.41
91.87
48.92
6.53
-31.56
-62.45
-85.88
-104.86
-124.46
-149.34
-181.64
-220.13
-260.74
-298.66
-330.49
-355.53
-376.08
-396.72
-422.86
-458.96
-506.54
-562.65
-619.58
-666.45
-692.47
-690.73
-660.80
-608.82
-544.85
-478.78
-416.89
-360.53
-307.41
-254.12
-198.56
-140.82
-82.61
-25.71
29.07
82.17
134.81
188.11
242.77
299.06
357.50
419.08
484.45
552.46
618.88
676.32
716.16
731.60
720.49
686.33
636.80
580.63
524.53
471.70
422.15
374.54
327.94
282.69
240.27
202.24
169.34
140.83
114.80
88.73
60.43
29.12
-4.48
-38.49
-70.98
-101.06
-129.42
-157.89
-188.33
-221.46
-256.31
-290.62
-322.09
-349.34
-372.58
-393.38
-413.82
-435.75
-460.46
-489.03
-522.53
-561.54
-604.96
-648.99
-686.97
-711.06
-714.92
-696.41
-658.43
-607.90
-552.93
-500.11
-452.97
-412.06
-376.16
-343.48
-312.28
-280.89
-247.76
-211.83
-173.11
-132.97
-93.61
-56.93
-23.59
7.61
39.15
73.44
111.46
152.16
192.69
229.77
261.32
287.56
311.18
336.58
368.60
410.54
462.42
519.89
574.12
613.66
627.70
610.15
562.88
496.65
428.63
377.23
355.60
367.01
403.84
450.87
491.39
513.06
511.24
488.55
451.57
407.07
359.67
311.72
264.79
221.28
184.17
155.65
135.32
119.64
103.06
80.53
49.91
12.61
-27.32
-65.40
-99.15
-129.31
-159.63
-195.73
-243.30
-306.15
-384.52
-473.98
-565.64
-647.98
-710.01
-744.79
-751.61
-735.80
-706.10
-671.00
-635.70
-601.33
-566.20
-528.18
-486.58
-442.44
-397.69
-353.73
-310.71
-267.64
-223.27
-176.86
-128.53
-79.38
-30.84
15.85
60.08
102.12
142.90
183.64
225.14
267.61
310.57
353.56
396.96
442.21
490.73
542.21
593.24
637.71
669.06
683.22
680.44
664.92
642.25
616.50
588.62
557.14
520.39
478.48
433.80
389.86
349.31
312.86
279.48
247.48
215.68
183.72
151.62
119.30
86.41
52.50
17.08
-19.86
-57.97
-96.81
-136.13
-176.35
-219.12
-267.50
-325.26
-394.98
-475.63
-561.02
-640.32
-701.02
-733.40
-734.21
-707.87
-664.25
-614.34
-565.82
-520.94
-477.22
-430.34
-377.23
-317.95
-255.46
-193.79
-136.13
-83.35
-33.93
15.25
67.40
124.81
188.48
258.34
332.92
408.81
479.89
537.31
571.65
576.82
554.28
514.41
473.56
447.33
443.54
458.68
480.06
492.48
485.52
457.62
414.84
366.00
317.53
271.15
225.07
177.18
127.64
79.30
35.61
-1.76
-34.08
-65.12
-99.18
-138.98
-184.99
-235.51
-287.99
-340.22
-391.05
-440.38
-488.46
-534.83
-577.50
-612.84
-636.38
-644.45
-635.76
-612.32
-579.13
-542.58
-508.37
-479.76
-456.92
-437.59
-418.51
-396.94
-371.52
-342.35
-310.59
-277.85
-245.76
-215.49
-187.36
-161.08
-135.71
-110.11
-83.40
-55.08
-25.34
5.13
35.50
65.12
94.02
123.66
156.84
196.73
245.26
300.96
357.69
405.34
432.54
430.25
394.83
328.86
240.12
139.51
38.77
-51.23
-121.83
-167.73
-187.75
-184.67
-164.80
-136.23
-106.40
-80.43
-60.57
-46.92
-38.56
-33.88
-29.73
-23.13
-12.00
4.35
25.18
48.95
74.05
99.33
124.81
153.98
190.04
235.00
289.86
355.13
430.50
513.49
598.10
675.12
738.26
781.95
803.46
804.36
790.45
769.32
747.24
726.72
706.74
689.50
674.93
659.99
639.03
605.56
554.73
485.49
401.94
281.54
124.72
-50.11
-216.28
-354.23
-459.21
-537.01
-595.45
-639.29
-669.99
-683.05
-676.75
-655.59
-626.45
-595.07
-564.40
-534.75
-505.38
-475.57
-441.17
-400.14
-352.73
-302.84
-253.59
-206.54
-161.99
-119.72
-79.68
-39.71
1.14
42.69
83.79
123.56
161.15
195.27
224.40
247.46
265.98
282.73
300.75
322.28
348.20
377.30
406.34
430.62
444.76
444.40
426.83
391.91
342.43
283.82
222.47
163.71
110.37
62.30
17.12
-28.41
-77.12
-130.21
-186.32
-241.42
-289.31
-323.01
-337.59
-332.38
-311.71
-283.93
-258.60
-243.34
-241.78
-253.11
-272.81
-294.27
-310.47
-315.60
-306.43
-283.03
-248.65
-208.47
-167.87
-130.73
-98.94
-72.73
-51.63
-35.57
-25.30
-22.15
-27.98
-45.02
-75.59
-120.99
-179.71
-245.98
-309.73
-358.94
-383.37
-378.65
-347.89
-300.23
-246.42
-194.56
-147.89
-105.51
-64.92
-24.31
15.66
52.82
84.82
111.69
135.80
160.66
189.23
223.09
263.46
310.79
364.70
422.32
478.73
526.71
558.11
566.42
548.98
509.31
454.86
394.36
334.15
278.46
229.28
187.35
152.89
120.23
86.44
50.51
17.92
-11.46
-39.23
-67.57
-96.48
-125.00
-153.08
-180.34
-206.99
-233.41
-260.42
-287.26
-312.07
-332.30
-340.09
-330.00
-300.10
-253.99
-199.28
-144.76
-96.48
-57.07
-26.33
-2.56
15.48
29.16
39.28
46.30
50.24
51.56
51.00
49.62
48.46
47.61
46.88
45.38
42.01
35.77
26.27
13.43
-2.10
-19.16
-37.03
-55.21
-73.87
-93.50
-114.24
-136.10
-159.26
-184.29
-211.60
-240.75
-269.18
-292.01
-302.82
-295.33
-266.41
-217.72
-155.21
-86.16
-16.35
52.28
119.46
181.31
232.85
269.38
288.31
290.11
278.64
259.15
236.54
213.79
191.92
171.20
151.34
132.25
113.81
96.85
82.18
70.40
61.12
53.23
45.64
37.30
30.29
22.66
13.89
4.16
-5.76
-15.47
-25.04
-34.61
-44.43
-54.50
-64.79
-74.05
-80.72
-82.72
-78.67
-68.16
-51.67
-30.30
-5.18
22.84
54.74
88.58
124.22
161.97
202.51
246.67
294.71
345.34
394.70
436.93
465.29
475.03
464.78
437.25
398.12
353.73
308.88
265.76
224.76
185.54
148.72
115.43
86.75
62.94
43.16
26.04
10.55
-3.40
-15.04
-22.97
-26.22
-24.84
-19.86
-12.98
-5.88
0.27
5.09
8.84
12.14
15.32
18.19
20.07
20.14
17.95
13.73
8.31
2.90
-1.43
-4.23
-5.83
-7.17
-9.49
-13.84
-20.77
-29.95
-40.14
-49.42
-55.82
-58.01
-55.95
-51.01
-45.49
-41.70
-41.13
-44.06
-49.78
-57.34
-66.13
-76.08
-87.27
-99.43
-111.67
-122.81
-132.01
-139.16
-144.72
-149.16
-152.48
-154.25
-154.24
-153.16
-152.67
-154.38
-158.30
-162.27
-162.84
-157.46
-146.34
-132.76
-121.29
-115.18
-114.55
-116.70
-118.52
-119.25
-121.85
-131.89
-154.42
-190.43
-234.93
-277.85
-307.27
-313.69
-293.03
-247.69
-185.23
-115.85
-49.58
5.39
43.35
61.24
59.14
41.18
15.76
-5.65
-11.68
4.78
43.50
96.54
151.08
194.10
216.74
216.41
196.15
162.03
120.18
74.87
28.08
-19.64
-67.87
-115.39
-160.07
-199.41
-231.36
-254.99
-270.28
-277.69
-277.52
-269.73
-254.31
-232.09
-205.26
-177.26
-151.86
-131.85
-118.22
-110.04
-105.47
-103.14
-103.34
-108.32
-121.78
-147.83
-189.51
-247.20
-317.24
-391.66
-459.35
-508.68
-530.97
-523.10
-488.15
-433.74
-368.81
-300.63
-233.25
-168.00
-104.85
-43.57
15.86
73.64
130.11
184.94
235.83
277.80
304.12
308.80
289.61
250.00
199.02
148.98
111.93
96.54
106.36
139.89
191.69
253.62
315.77
367.45
399.08
405.11
386.93
353.91
320.78
301.80
304.34
325.36
353.25
373.94
378.13
365.51
343.67
322.98
310.77
308.14
310.85
312.74
309.14
298.35
280.79
257.33
228.08
192.28
149.11
98.68
42.43
-16.98
-76.34
-132.64
-184.10
-230.38
-272.72
-313.30
-354.34
-397.37
-443.07
-491.85
-544.17
-600.15
-658.29
-714.30
-760.96
-789.90
-794.54
-772.94
-728.81
-670.04
-605.53
