1660332073.00
64.000000
-0.00
-0.00
-0.00
-0.00
-0.00
-0.00
-0.00
-0.00
-0.00
-0.00
0.00
0.01
0.01
-0.00
-0.03
-0.05
-0.05
0.00
0.13
0.36
0.66
1.01
1.37
1.72
2.06
2.40
2.79
3.24
3.80
4.42
5.06
5.66
6.19
6.67
7.15
7.70
8.36
9.20
10.12
10.98
11.66
12.13
12.46
12.87
13.60
14.80
16.69
19.02
21.50
23.82
25.81
27.59
29.52
32.08
35.56
40.30
45.85
51.62
57.00
61.65
65.76
69.91
74.90
81.21
89.25
98.29
107.34
115.43
122.09
127.61
132.93
139.59
146.28
154.96
165.79
178.46
191.58
202.43
207.17
201.78
183.29
150.85
106.38
52.99
-5.69
-66.73
-128.32
-189.49
-249.50
-307.43
-362.28
-412.95
-459.21
-501.18
-539.12
-572.82
-601.06
-621.27
-629.42
-620.92
-591.70
-540.30
-468.70
-382.37
-288.92
-195.96
-109.23
-31.72
35.85
94.00
143.13
183.20
214.05
235.99
250.18
258.40
262.45
263.55
262.09
257.79
250.22
239.42
226.09
211.44
196.80
183.12
170.69
159.20
148.02
136.60
124.79
112.85
101.36
90.96
82.06
74.66
68.36
62.52
56.49
49.85
42.54
34.79
27.01
19.63
12.96
7.24
2.50
-1.30
-4.18
-6.16
-7.33
-7.86
-7.98
-7.96
-8.03
-8.32
-8.79
-9.30
-9.71
-9.94
-10.04
-10.14
-10.39
-10.81
-11.35
-11.79
-11.91
-11.59
-10.78
-9.53
-7.93
-6.05
-4.00
-1.93
-0.05
1.39
2.21
2.34
1.86
0.95
-0.19
-1.38
-2.46
-3.33
-3.87
-4.00
-3.69
-3.01
-2.12
-1.24
-0.58
-0.27
-0.34
-0.70
-1.16
-1.57
-1.88
-2.11
-2.36
-2.75
-3.27
-3.84
-4.32
-4.55
-4.37
-3.66
-2.38
-0.58
1.55
3.63
5.22
5.99
5.83
4.93
3.67
2.44
1.53
0.98
0.70
0.59
0.61
0.84
1.42
2.35
3.55
4.78
5.77
6.29
6.23
5.59
4.45
2.91
1.07
-0.90
-2.86
-4.60
-5.92
-6.67
-6.80
-6.35
-5.43
-4.15
-2.62
-0.94
0.73
2.22
3.33
3.90
3.88
3.29
2.23
0.78
-0.98
-3.00
-5.12
-7.10
-8.64
-9.46
-9.44
-8.68
-7.48
-6.28
-5.43
-5.17
-5.45
-6.04
-6.61
-6.90
-6.79
-6.36
-5.78
-5.19
-4.65
-4.10
-3.45
-2.68
-1.82
-0.96
-0.06
0.97
2.34
4.12
6.19
8.21
9.74
10.45
10.23
9.25
7.77
6.06
4.23
2.28
0.19
-2.00
-4.07
-5.76
-6.82
-7.15
-6.84
-6.10
-5.19
-4.27
-3.46
-2.81
-2.39
-2.24
-2.43
-2.96
-3.82
-4.91
-6.17
-7.52
-8.90
-10.18
-11.09
-11.27
-10.37
-8.20
-4.85
-0.70
3.67
7.68
10.88
13.05
14.14
14.20
13.34
11.71
9.51
7.04
4.61
2.54
1.07
0.28
0.06
0.15
0.24
0.08
-0.43
-1.19
-2.00
-2.66
-3.12
-3.45
-3.87
-4.61
-5.79
-7.42
-9.33
-11.23
-12.67
-13.12
-12.13
-9.46
-5.26
-0.08
5.26
9.96
13.48
15.67
16.69
16.83
16.32
15.29
13.79
11.90
9.77
7.67
5.83
4.43
3.52
3.00
2.70
2.41
1.97
1.29
0.38
-0.70
-1.83
-2.89
-3.83
-4.64
-5.37
-6.10
-6.91
-7.86
-9.04
-10.44
-11.93
-13.16
-13.64
-12.82
-10.35
-6.30
-1.17
4.20
8.96
12.52
14.74
15.79
16.01
15.69
14.99
14.01
12.87
11.75
10.80
10.08
9.51
8.90
8.12
7.17
6.18
5.32
4.69
4.24
3.86
3.42
2.82
2.01
0.97
-0.35
-1.96
-3.84
-5.85
-7.72
-9.15
-9.90
-9.92
-9.35
-8.49
-7.73
-7.41
-7.77
-8.89
-10.72
-13.03
-15.47
-17.52
-18.62
-18.27
-16.19
-12.45
-7.51
-2.05
3.18
7.63
11.05
13.43
14.95
15.78
16.05
15.86
15.26
14.37
13.31
12.15
10.94
9.70
8.46
7.32
6.37
5.69
5.28
4.99
4.67
4.15
3.39
2.43
1.40
0.41
-0.49
-1.33
-2.16
-3.02
-3.93
-4.89
-5.88
-6.87
-7.80
-8.64
-9.40
-10.14
-11.00
-12.14
-13.64
-15.50
-17.51
-19.33
-20.48
-20.48
-18.96
-15.78
-11.17
-5.68
-0.06
4.97
8.89
11.51
12.93
13.42
13.24
12.60
11.62
10.40
9.10
7.88
6.89
6.24
5.90
5.82
5.86
5.92
5.89
5.71
5.33
4.76
4.00
3.11
2.13
1.10
0.07
-0.92
-1.87
-2.75
-3.55
-4.26
-4.88
-5.42
-5.89
-6.34
-6.79
-7.32
-7.99
-8.91
-10.21
-11.91
-13.87
-15.68
-16.77
-16.52
-14.56
-10.94
-6.13
-0.90
3.95
7.84
10.52
12.03
12.58
12.42
11.78
10.83
9.76
8.74
7.90
7.33
7.00
6.80
6.60
6.27
5.76
5.13
4.53
4.13
3.98
3.97
3.88
3.46
2.60
1.37
-0.00
-1.25
-2.19
-2.81
-3.22
-3.58
-4.00
-4.51
-5.12
-5.79
-6.51
-7.27
-8.04
-8.83
-9.68
-10.70
-12.05
-13.81
-15.80
-17.58
-18.48
-17.81
-15.20
-10.74
-4.98
1.18
6.85
11.38
14.49
16.23
16.87
16.71
15.97
14.81
13.32
11.66
9.99
8.49
7.31
6.46
5.86
5.35
4.83
4.24
3.67
3.19
2.86
2.61
2.37
2.00
1.48
0.82
0.10
-0.61
-1.31
-2.02
-2.80
-3.67
-4.62
-5.62
-6.62
-7.58
-8.43
-9.17
-9.77
-10.32
-10.94
-11.82
-13.09
-14.73
-16.43
-17.64
-17.67
-15.98
-12.40
-7.33
-1.53
4.03
8.61
11.86
13.84
14.83
15.10
14.78
13.87
12.36
10.40
8.31
6.53
5.39
5.07
5.46
6.30
7.26
8.06
8.49
8.47
7.94
6.92
5.46
3.70
1.78
-0.13
-1.88
-3.40
-4.72
-5.95
-7.22
-8.62
-10.16
-11.72
-13.11
-14.11
-14.59
-14.53
-14.06
-13.41
-12.89
-12.75
-13.14
-14.03
-15.11
-15.84
-15.59
-13.83
-10.40
-5.59
-0.13
5.10
9.36
12.25
13.74
14.06
13.53
12.43
11.02
9.54
8.28
7.52
7.39
7.87
8.75
9.75
10.62
11.22
11.48
11.42
11.06
10.43
9.59
8.57
7.40
6.13
4.82
3.55
2.39
1.37
0.47
-0.41
-1.43
-2.71
-4.28
-6.06
-7.85
-9.42
-10.51
-11.01
-10.88
-10.29
-9.54
-8.96
-8.84
-9.22
-9.87
-10.35
-10.19
-9.05
-6.95
-4.22
-1.38
1.06
2.84
3.99
4.72
5.31
5.85
6.29
6.41
6.05
5.22
4.12
3.03
2.21
1.72
1.47
1.28
1.07
0.86
0.78
0.96
1.40
1.93
2.32
2.32
1.82
0.85
-0.43
-1.84
-3.21
-4.41
-5.33
-5.93
-6.24
-6.38
-6.52
-6.87
-7.56
-8.66
-10.05
-11.47
-12.55
-12.86
-12.06
-9.95
-6.62
-2.42
2.05
6.21
9.57
11.92
13.27
13.78
13.62
12.92
11.78
10.31
8.68
7.11
5.82
4.98
4.69
4.91
5.51
6.24
6.86
7.18
7.10
6.65
5.94
5.05
4.06
2.93
1.63
0.14
-1.49
-3.19
-4.81
-6.25
-7.43
-8.30
-8.88
-9.21
-9.43
-9.71
-10.24
-11.13
-12.32
-13.55
-14.40
-14.38
-13.07
-10.31
-6.28
-1.44
3.60
8.24
12.11
15.05
17.06
18.25
18.66
18.31
17.18
15.32
12.89
10.14
7.41
4.99
3.12
1.95
1.50
1.74
2.54
3.73
5.05
6.22
6.96
7.04
6.35
4.94
2.95
0.60
-1.88
-4.31
-6.58
-8.61
-10.37
-11.81
-12.92
-13.73
-14.28
-14.68
-15.03
-15.43
-15.90
-16.34
-16.49
-15.97
-14.43
-11.66
-7.79
-3.24
1.36
5.39
8.46
10.47
11.51
11.83
11.63
11.09
10.34
9.52
8.80
8.26
7.93
7.72
7.49
7.10
6.47
5.67
4.83
4.15
3.74
3.59
3.52
3.28
2.58
1.31
-0.47
-2.50
-4.49
-6.20
-7.55
-8.58
-9.43
-10.29
-11.29
-12.56
-14.14
-15.92
-17.58
-18.60
-18.37
-16.42
-12.63
-7.37
-1.37
4.44
9.22
12.47
14.08
14.26
13.42
11.98
10.24
8.40
6.56
4.79
3.22
1.98
1.18
0.84
0.89
1.21
1.65
2.13
2.58
2.97
3.21
3.18
2.77
1.92
0.67
-0.87
-2.53
-4.17
-5.69
-7.09
-8.42
-9.82
-11.38
-13.09
-14.70
-15.78
-15.74
-14.14
-10.80
-6.03
-0.52
4.85
9.29
12.33
13.89
14.21
13.67
12.62
11.33
9.93
8.53
7.20
6.03
5.08
4.39
3.92
3.63
3.41
3.20
2.96
2.71
2.46
2.21
1.91
1.45
0.74
-0.26
-1.50
-2.85
-4.14
-5.20
-5.98
-6.57
-7.16
-7.99
-9.19
-10.71
-12.18
-13.04
-12.70
-10.80
-7.38
-2.87
2.02
6.55
10.16
12.57
13.76
13.88
13.19
11.93
10.35
8.67
7.09
5.78
4.82
4.21
3.89
3.71
3.52
3.18
2.59
1.73
0.65
-0.56
-1.79
-2.92
-3.90
-4.74
-5.53
-6.42
-7.57
-8.99
-10.59
-12.20
-13.63
-14.83
-15.79
-16.56
-17.03
-16.92
-15.79
-13.31
-9.37
-4.27
1.39
6.85
11.40
14.60
16.29
16.54
15.58
13.68
11.14
8.24
5.30
2.65
0.57
-0.78
-1.43
-1.68
-1.93
-2.58
-3.79
-5.47
-7.23
-8.60
-9.19
-8.83
-7.60
-5.82
-3.89
-2.25
-1.20
-0.90
-1.28
-2.15
-3.22
-4.26
-5.14
-5.79
-6.14
-6.08
-5.40
-3.88
-1.41
1.97
6.02
10.39
14.68
18.51
21.60
23.80
25.08
25.52
25.26
24.49
23.45
22.35
21.28
20.24
19.11
17.64
15.60
12.81
9.28
5.23
1.07
-2.77
-5.88
-7.99
-8.95
-8.80
-7.70
-5.89
-3.65
-1.26
0.85
2.33
3.01
2.95
2.42
1.82
1.57
2.08
3.62
6.00
8.91
12.06
15.25
18.34
21.09
23.25
24.72
25.40
24.91
22.97
19.61
15.19
10.18
4.85
-0.66
-6.19
-11.82
-18.16
-25.73
-34.54
-44.04
-53.38
-61.92
-69.34
-75.47
-77.13
-72.24
-61.08
-46.59
-32.22
-20.00
-10.46
-4.18
0.26
3.77
6.42
8.12
8.99
9.41
10.22
11.59
13.37
15.36
17.02
17.62
16.71
14.39
11.21
7.91
5.03
2.86
1.43
0.29
-1.17
-3.20
-5.49
-7.28
-7.75
-6.42
-3.26
1.90
7.92
12.84
14.89
13.56
9.59
4.38
-0.66
-4.63
-7.46
-9.77
-12.21
-15.03
-17.94
-20.38
-21.79
-22.05
-20.58
-17.04
-11.47
-4.15
4.18
12.28
18.78
22.20
22.60
21.71
21.66
23.64
27.25
30.71
31.96
29.83
24.70
18.33
12.75
9.15
7.49
6.81
5.95
4.28
1.83
-0.80
-2.86
-3.95
-4.26
-4.42
-5.06
-6.51
-8.56
-10.71
-12.40
-13.27
-13.32
-12.85
-12.08
-10.99
-9.32
-6.78
-3.35
0.56
4.29
7.14
8.64
8.69
7.60
5.73
3.53
1.45
-0.15
-1.04
-1.16
-0.66
0.15
0.90
1.32
1.33
1.03
0.62
0.27
0.04
-0.11
-0.32
-0.67
-1.19
-1.81
-2.40
-2.86
-3.13
-3.26
-3.28
-3.31
-3.44
-3.78
-4.36
-5.16
-5.97
-6.49
-6.35
-5.26
-3.17
-0.26
3.01
6.05
8.34
9.48
9.35
7.99
5.65
2.69
-0.51
-3.62
-6.39
-8.69
-10.45
-11.59
-12.07
-11.90
-11.12
-9.84
-8.24
-6.51
-4.89
-3.58
-2.71
-2.34
-2.42
-2.84
-3.45
-4.11
-4.74
-5.33
-5.90
-6.51
-7.21
-8.09
-9.21
-10.60
-12.12
-13.41
-13.92
-13.06
-10.43
-6.08
-0.53
5.35
10.63
14.61
16.96
17.67
17.02
15.34
13.01
10.42
7.98
6.06
4.89
4.52
4.73
5.22
5.60
5.63
5.22
4.45
3.49
2.51
1.60
0.74
-0.13
-1.07
-2.04
-2.90
-3.48
-3.63
-3.29
-2.57
-1.71
-1.06
-0.97
-1.67
-3.06
-4.65
-5.59
-4.98
-2.18
2.85
9.48
16.56
22.79
27.09
28.79
27.72
24.14
18.66
12.23
5.98
1.09
-1.56
-1.58
0.78
4.72
9.22
13.27
16.18
17.62
17.59
16.38
14.37
11.97
9.55
7.30
5.27
3.37
1.47
-0.52
-2.62
-4.79
-6.99
-9.27
-11.68
-14.27
-16.95
-19.51
-21.59
-22.80
-22.75
-21.19
-17.97
-13.15
-6.94
0.30
8.03
15.55
22.03
26.61
28.55
27.46
23.46
17.34
10.33
3.92
-0.63
-2.59
-1.96
0.63
4.19
7.71
10.35
11.59
11.18
9.08
5.49
0.79
-4.35
-9.14
-12.81
-14.92
-15.46
-15.00
-14.41
-14.59
-16.11
-18.99
-22.70
-26.38
-29.13
-30.28
-29.52
-26.95
-22.94
-17.97
-12.54
-7.09
-2.03
2.33
5.75
8.16
9.56
10.09
9.97
9.46
8.79
8.15
7.64
7.30
7.05
6.70
6.08
5.19
4.23
3.52
3.30
3.59
4.28
5.01
5.39
5.12
4.21
2.95
1.69
0.67
-0.08
-0.45
-0.45
-0.19
0.15
0.57
1.31
2.74
5.29
9.28
15.09
22.57
30.88
38.67
44.54
47.34
46.38
41.35
30.88
15.48
-1.95
-17.17
-27.10
-31.25
-31.39
-30.19
-29.82
-31.62
-34.62
-37.38
-38.95
-39.31
-39.08
-38.94
-39.12
-39.36
-38.29
-35.03
-29.64
-23.19
-17.34
-13.57
-12.47
-13.63
-15.86
-17.75
-18.18
-16.72
-13.74
-10.05
-6.45
-3.37
-0.80
1.53
3.94
6.63
9.58
12.52
15.04
16.80
17.56
17.30
16.19
14.51
12.56
10.49
8.34
6.05
3.57
1.04
-1.23
-2.88
-3.63
-3.47
-2.67
-1.65
-0.81
-0.36
-0.27
-0.29
-0.15
0.30
0.95
1.54
1.77
1.48
0.83
0.25
0.37
1.84
5.02
9.92
16.06
22.63
28.70
33.44
36.36
37.35
36.70
34.95
32.72
30.55
28.81
27.58
26.58
25.28
22.95
19.03
13.30
6.14
-1.54
-8.64
-14.16
-17.64
-19.20
-19.46
-19.16
-18.93
-19.04
-19.43
-19.81
-19.88
-19.50
-18.69
-17.66
-16.66
-15.88
-15.36
-14.96
-14.41
-13.38
-11.65
-9.13
-5.95
-2.43
0.95
3.69
5.43
6.07
5.83
5.24
4.89
5.23
6.39
8.16
10.11
11.82
13.02
13.66
13.81
13.58
13.03
12.18
11.04
9.68
8.21
6.74
5.30
3.84
2.28
0.60
-1.13
-2.76
-4.04
-4.80
-4.95
-4.50
-3.55
-2.16
-0.24
2.38
5.91
10.41
15.71
21.39
26.88
31.58
35.10
37.21
37.86
37.01
34.66
30.86
25.75
19.68
13.20
6.94
1.52
-2.61
-5.27
-6.61
-7.08
-7.31
-7.96
-9.53
-12.22
-15.84
-19.88
-23.71
-26.72
-28.55
-29.13
-28.61
-27.27
-25.39
-23.16
-20.67
-17.97
-15.13
-12.23
-9.45
-7.04
-5.32
-4.66
-5.39
-7.65
-11.25
-15.59
-19.83
-23.11
-24.88
-25.08
-24.15
-22.75
-21.47
-20.50
-19.65
-18.47
-16.53
-13.62
-9.80
-5.40
-0.80
3.63
7.67
11.23
14.32
17.02
19.39
21.39
22.88
23.60
23.31
21.90
19.47
16.36
12.99
9.74
6.87
4.49
2.74
1.88
2.25
4.22
7.96
13.32
19.78
26.54
32.72
37.53
40.35
40.81
38.82
34.55
28.47
21.27
13.75
6.68
0.56
-4.42
-8.35
-11.48
-13.97
-15.85
-17.04
-17.42
-17.03
-16.06
-14.77
-13.45
-12.26
-11.31
-10.65
-10.37
-10.59
-11.36
-12.58
-14.02
-15.31
-16.16
-16.48
-16.39
-16.13
-15.93
-15.83
-15.77
-15.65
-15.47
-15.30
-15.22
-15.24
-15.29
-15.39
-15.80
-17.00
-19.51
-23.47
-28.46
-33.40
-36.93
-37.89
-35.80
-30.95
-24.28
-17.00
-10.10
-4.10
0.98
5.49
9.82
14.18
18.45
22.29
25.38
27.60
29.09
30.11
30.87
31.33
31.27
30.46
28.90
26.88
24.93
23.56
23.03
23.32
24.18
25.38
26.83
28.67
31.15
34.48
38.58
42.92
46.57
48.25
46.73
41.15
31.38
18.14
2.81
-12.81
-26.98
-38.29
-45.83
-49.25
-48.67
-44.65
-38.12
-30.23
-22.14
-14.80
-8.82
-4.37
-1.21
1.12
3.11
5.15
7.33
9.44
11.01
11.45
10.27
7.34
3.00
-1.97
-6.55
-9.83
-11.28
-10.94
-9.34
-7.27
-5.51
-4.62
-4.91
-6.49
-9.38
-13.51
-18.64
-24.34
-29.98
-34.88
-38.52
-40.71
-41.57
-41.44
-40.61
-39.23
-37.24
-34.50
-30.94
-26.65
-21.84
-16.81
-11.80
-6.95
-2.34
2.02
6.09
9.80
13.06
15.74
17.79
19.24
20.31
21.34
22.70
24.65
27.22
30.19
33.15
35.72
37.71
39.17
40.38
41.76
43.68
46.44
50.13
54.59
59.19
62.85
64.08
61.38
53.74
41.12
24.59
6.13
-12.04
-28.05
-40.83
-50.11
-56.17
-59.41
-60.11
-58.49
-54.82
-49.60
-43.52
-37.27
-31.31
-25.78
-20.60
-15.62
-10.79
-6.30
-2.47
0.34
1.84
1.92
0.66
-1.70
-4.74
-7.94
-10.73
-12.62
-13.27
-12.66
-11.08
-9.04
-7.18
-5.97
-5.65
-6.08
-6.86
-7.47
-7.48
-6.66
-5.04
-2.84
-0.43
1.79
3.42
4.20
4.03
3.05
1.60
0.14
-0.88
-1.15
-0.51
1.04
3.45
6.62
10.39
14.59
18.95
23.16
26.87
29.77
31.64
32.41
32.27
31.71
31.50
32.58
35.78
41.49
49.31
57.89
65.06
68.37
65.76
56.46
41.37
22.94
4.42
-11.25
-22.37
-28.87
-31.99
-33.38
-34.39
-35.55
-36.74
-37.59
-37.85
-37.58
-37.00
-36.27
-35.43
-34.41
-33.28
-32.22
-31.50
-31.25
-31.29
-31.16
-30.28
-28.22
-24.93
-20.76
-16.36
-12.44
-9.51
-7.82
-7.35
-7.89
-9.18
-10.94
-12.93
-14.85
-16.38
-17.27
-17.37
-16.69
-15.39
-13.63
-11.45
-8.85
-5.77
-2.32
1.16
4.21
6.37
7.39
7.31
6.41
5.11
3.80
2.78
2.25
2.33
3.06
4.28
5.71
6.98
7.76
7.90
7.51
6.92
6.59
6.97
8.37
11.02
14.95
20.00
25.79
31.76
37.21
41.48
44.10
44.78
43.46
40.21
35.18
28.64
21.04
13.05
5.47
-0.94
-5.71
-8.82
-10.61
-11.65
-12.46
-13.37
-14.40
-15.35
-15.97
-16.00
-15.35
-14.07
-12.40
-10.61
-9.01
-7.84
-7.17
-6.94
-7.03
-7.31
-7.68
-8.08
-8.51
-8.94
-9.40
-9.94
-10.64
-11.53
-12.52
-13.38
-13.75
-13.25
-11.66
-8.97
-5.52
-1.87
1.36
3.70
5.04
5.62
5.96
6.58
7.75
9.43
11.30
12.93
14.03
14.47
14.24
13.37
11.83
9.59
6.70
3.41
0.12
-2.70
-4.71
-5.81
-6.16
-6.09
-5.95
-5.95
-6.08
-6.15
-5.91
-5.21
-4.06
-2.70
-1.44
-0.56
-0.13
0.11
0.66
2.20
5.25
10.03
16.27
23.20
29.78
35.00
38.10
38.88
37.62
35.02
31.91
29.04
26.85
25.46
24.61
23.90
22.85
21.10
18.49
15.08
11.07
6.79
2.53
-1.42
-4.85
-7.59
-9.55
-10.71
-11.16
-11.15
-11.07
-11.28
-12.08
-13.55
-15.49
-17.55
-19.27
-20.36
-20.73
-20.66
-20.72
-21.61
-23.93
-27.86
-33.01
-38.39
-42.68
-44.64
-43.48
-39.15
-32.29
-23.94
-15.17
-6.82
0.59
6.85
11.90
15.72
18.40
20.03
20.83
21.02
20.80
20.34
19.72
19.03
18.30
17.55
16.77
15.96
15.15
14.50
14.19
14.44
15.30
16.63
18.14
19.48
20.42
20.91
21.06
21.05
21.04
21.15
21.45
21.94
22.52
22.88
22.59
21.16
18.22
13.69
7.80
0.98
-6.25
-13.42
-20.13
-25.93
-30.38
-33.09
-33.88
-32.90
-30.66
-27.78
-24.83
-22.14
-19.80
-17.78
-16.05
-14.71
-13.86
-13.56
-13.73
-14.14
-14.52
-14.68
-14.54
-14.16
-13.68
-13.24
-13.02
-13.20
-14.04
-15.77
-18.50
-21.99
-25.61
-28.53
-30.06
-30.00
-28.85
-27.60
-27.30
-28.53
-31.13
-34.21
-36.61
-37.28
-35.70
-31.90
-26.36
-19.73
-12.66
-5.64
0.98
7.00
12.31
16.80
20.40
23.03
24.67
25.44
25.61
25.53
25.51
25.75
26.26
26.96
27.76
28.69
29.87
31.51
33.73
36.53
39.76
43.16
46.45
49.28
51.31
52.11
51.21
48.17
42.72
34.89
25.04
13.83
2.10
-9.25
-19.39
-27.62
-33.46
-36.68
-37.34
-35.75
-32.43
-27.99
-22.98
-17.80
-12.72
-7.91
-3.51
0.33
3.42
5.57
6.68
6.75
5.91
4.40
2.52
0.55
-1.26
-2.78
-3.99
-4.99
-5.97
-7.10
-8.47
-10.11
-11.95
-13.90
-15.78
-17.40
-18.55
-19.06
-18.90
-18.21
-17.25
-16.24
-15.29
-14.33
-13.20
-11.76
-10.04
-8.14
-6.13
-3.97
-1.45
1.62
5.36
9.66
14.24
18.74
22.82
26.20
28.66
30.09
30.51
30.09
29.15
28.05
27.13
26.62
26.69
27.50
29.16
31.65
34.65
37.52
39.35
39.22
36.58
31.41
24.18
15.69
6.75
-1.97
-10.06
-17.23
-23.26
-27.98
-31.33
-33.44
-34.64
-35.40
-36.19
-37.27
-38.63
-39.95
-40.69
-40.27
-38.21
-34.34
-28.77
-21.91
-14.39
-6.87
-0.02
5.61
9.60
11.74
12.03
10.71
8.23
5.20
2.25
-0.09
-1.51
-1.99
-1.79
-1.30
-0.90
-0.85
-1.24
-2.05
-3.27
-4.90
-6.92
-9.18
-11.37
-13.13
-14.20
-14.53
-14.40
-14.27
-14.60
-15.70
-17.54
-19.73
-21.69
-22.74
-22.33
-20.24
-16.60
-11.87
-6.67
-1.58
3.06
7.11
10.61
13.58
16.02
17.88
19.21
20.16
21.03
22.20
23.95
26.43
29.66
33.57
38.07
42.97
47.85
52.04
54.68
55.02
52.79
48.25
42.09
34.90
26.91
17.88
7.52
-4.04
-15.93
-26.78
-35.36
-41.13
-44.47
-46.32
-47.46
-48.04
-47.47
-44.92
-39.93
-32.77
-24.40
-16.02
-8.53
-2.24
3.06
7.85
12.48
16.97
21.01
24.13
25.88
26.01
24.49
21.47
17.15
11.80
5.72
-0.65
-6.75
-11.99
-15.89
-18.23
-19.16
-19.04
-18.35
-17.44
-16.52
-15.60
-14.69
-13.78
-12.96
-12.35
-12.05
-12.16
-12.77
-13.95
-15.67
-17.72
-19.66
-20.88
-20.78
-18.99
-15.53
-10.75
-5.21
0.51
5.95
10.77
14.74
17.73
19.73
20.92
21.63
22.28
23.24
24.67
26.54
28.75
31.29
34.32
38.08
42.72
47.96
53.05
56.84
58.14
56.11
50.51
41.82
31.11
19.74
9.14
0.56
-5.17
-7.82
-7.96
-6.98
-6.81
-9.34
-15.71
-25.73
-37.71
-49.02
-56.94
-59.67
-56.96
-50.05
-41.02
-31.94
-24.18
-18.11
-13.44
-9.68
-6.55
-4.05
-2.29
-1.26
-0.71
-0.22
0.49
1.46
2.45
3.15
3.31
2.87
1.90
0.48
-1.34
-3.57
-6.18
-9.04
-11.93
-14.61
-16.85
-18.53
-19.58
-19.99
-19.92
-19.69
-19.80
-20.74
-22.73
-25.50
-28.30
-30.12
-30.09
-27.83
-23.59
-18.16
-12.48
-7.38
-3.28
-0.26
1.92
3.61
5.19
6.97
9.20
11.97
15.25
18.86
22.57
26.17
29.49
32.55
35.47
38.46
41.71
45.22
48.76
51.87
53.90
54.25
52.52
48.60
42.74
35.38
27.14
18.62
10.33
2.62
-4.38
-10.71
-16.54
-21.98
-26.93
-31.02
-33.72
-34.48
-33.09
-29.74
-25.01
-19.63
-14.29
-9.42
-5.25
-1.86
0.67
2.31
3.10
3.22
3.02
2.86
2.96
3.38
3.96
4.48
4.72
4.55
3.86
2.52
0.44
-2.42
-5.93
-9.78
-13.44
-16.37
-18.08
-18.38
-17.34
-15.31
-12.80
-10.35
-8.42
-7.33
-7.27
-8.21
-9.88
-11.77
-13.18
-13.44
-12.08
-9.01
-4.56
0.61
5.84
10.58
14.59
17.80
20.24
21.94
22.93
23.33
23.39
23.47
23.95
25.06
26.82
29.04
31.39
33.54
35.18
36.04
35.86
34.41
31.55
27.35
22.06
16.08
9.88
3.90
-1.49
-6.04
-9.62
-12.31
-14.41
-16.42
-18.86
-22.03
-25.82
-29.59
-32.42
-33.44
-32.19
-28.83
-24.06
-18.88
-14.16
-10.37
-7.52
-5.26
-3.17
-0.98
1.27
3.29
4.67
5.02
4.07
1.69
-2.13
-7.20
-13.09
-19.17
-24.64
-28.80
-31.14
-31.57
-30.36
-27.97
-24.94
-21.69
-18.51
-15.59
-13.02
-10.87
-9.16
-7.81
-6.74
-5.78
-4.74
-3.36
-1.38
1.44
5.21
9.82
14.93
20.00
24.44
27.77
29.76
30.43
30.06
29.03
27.79
26.74
26.23
26.42
27.25
28.30
29.02
28.88
27.65
25.50
22.88
20.25
17.77
15.27
12.30
8.49
3.69
-1.86
-7.68
-13.25
-18.18
-22.29
-25.55
-28.09
-30.11
-31.85
-33.52
-35.21
-36.77
-37.87
-37.99
-36.59
-33.29
-28.04
-21.22
-13.68
-6.52
-0.83
2.68
3.94
3.52
2.40
1.56
1.65
2.75
4.58
6.61
8.42
9.68
10.16
9.66
7.97
5.01
0.98
-3.60
-7.98
-11.41
-13.35
-13.69
-12.65
-10.75
-8.60
-6.68
-5.27
-4.40
-3.96
-3.74
-3.59
-3.37
-2.91
-1.98
-0.25
2.57
6.58
11.66
17.37
23.08
28.19
32.19
34.81
35.99
35.90
34.82
33.17
31.38
29.81
28.72
28.22
28.39
29.35
31.34
34.51
38.76
43.54
47.90
50.76
51.24
48.88
43.65
35.70
25.26
12.68
-1.46
-16.14
-29.98
-41.63
-50.23
-55.75
-58.88
-60.56
-61.41
-61.44
-60.10
-56.76
-51.15
-43.61
-34.95
-26.21
-18.21
-11.47
-6.08
-1.96
1.04
2.97
3.78
3.45
2.06
-0.17
-2.85
-5.54
-7.81
-9.34
-10.00
-9.90
-9.30
-8.59
-8.10
-8.03
-8.43
-9.17
-10.16
-11.35
-12.80
-14.58
-16.64
-18.73
-20.47
-21.54
-21.91
-21.87
-21.93
-22.54
-23.77
-25.17
-25.85
-24.75
-21.06
-14.51
-5.61
4.48
14.32
22.63
28.72
32.68
35.27
37.57
40.46
44.27
48.60
52.55
55.06
55.42
53.60
50.42
47.30
45.84
47.29
52.05
59.43
67.58
73.76
74.75
67.76
51.36
26.34
-3.96
-34.44
-59.78
-76.22
-82.86
-81.67
-76.29
-70.24
-65.47
-62.00
-58.57
-53.88
-47.54
-40.20
-33.09
-27.14
-22.56
-18.81
-15.14
-11.10
-6.85
-3.01
-0.28
1.03
1.16
0.71
0.25
0.00
-0.32
-1.28
-3.39
-6.74
-10.94
-15.17
-18.60
-20.63
-21.14
-20.50
-19.37
-18.45
-18.17
-18.59
-19.39
-20.12
-20.42
-20.21
-19.67
-19.11
-18.76
-18.50
-17.95
-16.60
-14.05
-10.27
-5.57
-0.47
4.49
8.99
12.90
16.30
19.30
21.94
24.22
26.14
27.74
29.13
30.50
31.98
33.66
35.55
37.57
39.63
41.60
43.43
45.10
46.68
48.25
49.80
51.12
51.78
51.26
49.08
45.08
39.51
32.97
26.20
19.87
14.41
10.06
6.81
4.49
2.73
0.92
-1.67
-5.56
-10.77
-16.57
-21.68
-24.71
-24.83
-22.19
-17.90
-13.55
-10.48
-9.25
-9.51
-10.36
-10.85
-10.50
-9.39
-7.96
-6.66
-5.69
-4.91
-4.06
-2.90
-1.38
0.39
2.17
3.65
4.44
4.04
1.97
-2.13
-8.20
-15.74
-23.85
-31.54
-37.98
-42.70
-45.49
-46.30
-45.06
-41.75
-36.51
-29.80
-22.37
-15.13
-8.80
-3.72
0.22
3.34
5.92
8.03
9.46
9.94
9.33
7.76
5.62
3.41
1.52
0.17
-0.61
-0.92
-0.90
-0.62
-0.06
0.90
2.45
4.81
8.12
12.30
17.06
21.86
26.02
28.95
30.24
29.80
27.76
24.46
20.26
15.57
10.85
6.61
3.42
1.78
1.97
3.86
6.93
10.32
13.13
14.65
14.60
13.13
10.71
7.89
5.15
2.74
0.69
-1.13
-2.86
-4.65
-6.53
-8.50
-10.54
-12.67
-14.90
-17.22
-19.56
-21.75
-23.66
-25.19
-26.40
-27.40
-28.34
-29.33
-30.31
-31.13
-31.57
-31.40
-30.49
-28.78
-26.33
-23.26
-19.68
-15.69
-11.38
-6.86
-2.31
1.98
5.70
8.60
10.61
11.91
12.80
13.61
14.52
15.49
16.38
17.01
17.38
17.64
18.02
18.68
19.63
20.68
21.55
21.96
21.75
20.91
19.45
17.48
15.11
12.59
10.24
8.46
7.54
7.50
8.03
8.54
8.39
7.21
5.03
2.26
-0.44
-2.42
-3.19
-2.54
-0.45
2.83
6.90
11.16
14.95
17.69
19.06
19.13
18.37
17.45
17.05
17.53
18.84
20.58
22.15
23.07
23.06
22.08
20.21
17.49
13.82
9.10
3.35
-3.25
-10.25
-17.18
-23.66
-29.50
-34.71
-39.36
-43.53
-47.20
-50.24
-52.47
-53.59
-53.32
-51.41
-47.79
-42.65
-36.40
-29.61
-22.89
-16.72
-11.45
-7.23
-4.03
-1.70
0.00
1.33
2.46
3.44
4.21
4.73
5.04
5.30
5.77
6.69
8.12
9.99
12.07
14.06
15.77
17.12
18.20
19.25
20.49
22.11
24.14
26.40
28.50
29.83
29.70
27.54
23.14
16.86
9.67
2.96
-1.89
-3.96
-3.11
0.02
4.38
8.89
12.88
16.16
18.86
21.13
22.93
23.98
23.90
22.43
19.53
15.47
10.64
5.45
0.22
-4.81
-9.45
-13.49
-16.73
-19.09
-20.60
-21.51
-22.14
-22.79
-23.65
-24.75
-26.05
-27.47
-29.00
-30.68
-32.48
-34.27
-35.71
-36.38
-35.83
-33.86
-30.55
-26.29
-21.65
-17.22
-13.37
-10.22
-7.67
-5.56
-3.74
-2.14
-0.77
0.39
1.39
2.33
3.24
4.13
4.89
5.47
5.85
6.17
6.72
7.80
9.66
12.40
15.93
20.10
24.71
29.56
34.40
38.82
42.21
43.90
43.31
40.23
34.90
28.02
20.53
13.37
7.30
2.83
0.22
-0.50
0.48
2.73
5.66
8.57
10.92
12.44
13.16
13.28
13.04
12.58
11.98
11.29
10.65
10.23
10.10
10.11
9.85
8.77
6.38
2.46
-2.87
-9.19
-15.88
-22.29
-27.87
-32.17
-34.99
-36.34
-36.48
-35.78
-34.64
-33.42
-32.33
-31.58
-31.27
-31.46
-32.06
-32.74
-32.95
-32.07
-29.65
-25.64
-20.44
-14.74
-9.32
-4.71
-1.11
1.60
3.69
5.39
6.80
7.92
8.72
9.28
9.77
10.46
11.63
13.49
16.18
19.73
23.99
28.65
33.18
36.98
39.40
40.00
38.66
35.59
31.33
26.56
21.92
17.89
14.64
12.07
9.83
7.46
4.59
1.17
-2.46
-5.55
-7.23
-6.82
-4.15
0.31
5.56
10.44
13.97
15.57
15.06
12.58
8.42
2.97
-3.22
-9.50
-15.13
-19.49
-22.35
-23.88
-24.61
-25.14
-25.89
-26.90
-27.91
-28.51
-28.41
-27.57
-26.16
-24.47
-22.78
-21.25
-19.96
-18.91
-18.16
-17.76
-17.84
-18.48
-19.70
-21.45
-23.53
-25.60
-27.21
-27.85
-27.08
-24.64
-20.55
-15.14
-8.98
-2.67
3.25
8.50
13.08
17.19
21.14
25.16
29.34
33.61
37.78
41.68
45.11
47.93
49.97
51.06
51.04
49.88
47.75
44.97
41.88
38.73
35.56
32.23
28.55
24.47
20.13
15.84
11.90
8.46
5.35
2.14
-1.73
-6.69
-12.78
-19.53
-26.04
-31.26
-34.38
-35.14
-33.90
-31.42
-28.57
-25.95
-23.83
-22.21
-21.07
-20.49
-20.65
-21.71
-23.56
-25.79
-27.80
-28.99
-29.03
-27.91
-25.93
-23.49
-20.96
-18.59
-16.49
-14.70
-13.23
-12.08
-11.21
-10.56
-10.06
-9.61
-9.15
-8.68
-8.26
-8.06
-8.24
-8.86
-9.72
-10.28
-9.73
-7.19
-2.08
5.65
15.46
26.35
37.27
47.35
56.06
63.12
68.36
71.61
72.70
71.57
68.31
63.30
57.09
50.35
43.80
38.10
33.76
31.07
29.90
29.71
29.57
28.37
25.18
19.50
11.48
1.81
-8.49
-18.38
-27.17
-34.59
-40.79
-46.21
-51.33
-56.46
-61.63
-66.49
-70.38
-72.50
-72.17
-69.07
-63.45
-56.06
-47.93
-40.05
-33.07
-27.18
-22.27
-18.09
-14.42
-11.13
-8.18
-5.53
-3.09
-0.86
1.12
2.69
3.72
4.17
4.18
3.99
3.88
3.99
4.30
4.65
4.85
4.75
4.38
3.87
3.45
3.35
3.72
4.58
5.77
7.09
8.33
9.46
10.67
12.43
15.29
19.69
25.69
32.84
40.23
46.65
51.02
52.64
51.46
47.98
43.10
37.79
32.75
28.31
24.36
20.57
16.61
12.36
8.01
3.97
0.71
-1.44
-2.38
-2.27
-1.42
-0.14
1.23
2.37
2.85
2.15
-0.31
-4.93
-11.72
-20.19
-29.36
-38.12
-45.56
-51.21
-55.15
-57.71
-59.14
-59.40
-58.12
-54.90
-49.66
-42.81
-35.18
-27.66
-20.87
-15.00
-9.90
-5.35
-1.33
2.00
4.36
5.63
5.93
5.60
5.05
4.60
4.43
4.59
5.04
5.74
6.62
7.52
8.26
8.70
8.82
8.81
8.95
9.52
10.67
12.29
14.17
16.02
17.72
19.36
21.25
23.80
27.37
32.01
37.38
42.75
47.15
49.68
49.72
47.09
42.08
35.36
27.77
20.22
13.49
8.14
4.38
2.05
0.63
-0.58
-2.23
-4.65
-7.75
-11.07
-13.94
-15.75
-16.12
-15.09
-13.07
-10.75
-8.92
-8.27
-9.20
-11.78
-15.70
-20.44
-25.35
-29.90
-33.78
-36.95
-39.64
-42.09
-44.39
-46.32
-47.37
-46.88
-44.31
-39.47
-32.66
-24.54
-15.99
-7.79
-0.56
5.36
9.81
12.76
14.31
14.65
14.07
12.91
11.52
10.22
9.18
8.50
8.12
7.90
7.65
7.20
6.53
5.75
5.16
5.06
5.63
6.84
8.43
10.08
11.54
12.80
14.04
15.57
17.63
20.27
23.33
26.52
29.51
31.99
33.70
34.47
34.21
33.06
31.32
29.50
28.17
27.73
28.31
29.59
30.96
31.64
30.98
28.67
24.80
19.80
14.33
9.02
4.34
0.52
-2.53
-5.13
-7.79
-11.04
-15.30
-20.74
-27.17
-34.08
-40.74
-46.38
-50.45
-52.68
-53.21
-52.45
-51.01
-49.50
-48.32
-47.55
-46.91
-45.83
-43.71
-40.12
-34.97
-28.53
-21.32
-13.95
-6.95
-0.69
4.53
8.53
11.20
12.53
12.61
11.66
10.00
8.01
6.07
4.49
3.50
3.12
3.28
3.74
4.29
4.73
5.00
5.15
5.28
5.49
5.86
6.42
7.16
8.06
9.14
10.46
12.07
14.07
16.55
19.67
23.51
27.97
32.80
37.59
41.93
45.42
47.77
48.69
47.93
45.18
40.27
33.38
25.29
17.19
10.29
5.41
2.73
1.83
1.88
1.90
1.11
-0.51
-2.66
-4.91
-6.76
-7.81
-7.61
-6.04
-3.63
-1.46
-0.06
0.06
-1.41
-4.31
-8.14
-11.91
-14.97
-17.67
-21.23
-25.94
-31.75
-38.00
-43.13
-45.24
-41.93
-31.85
-16.01
2.04
18.27
27.55
24.61
5.64
-30.48
-77.89
-123.71
-153.56
-165.22
-159.13
-138.03
-106.77
-68.01
-28.05
7.13
33.32
48.53
53.07
50.33
44.00
36.92
30.98
26.75
24.69
24.59
25.19
24.55
21.87
16.74
9.45
1.07
-7.06
-12.96
-15.05
-12.95
-7.52
0.11
8.38
15.79
21.43
24.88
26.58
27.28
27.57
27.64
27.72
27.85
28.05
28.36
28.56
28.51
28.11
27.37
26.38
25.46
24.97
25.47
27.24
29.97
32.83
34.82
35.29
34.14
31.95
29.66
28.64
29.67
32.41
35.45
37.06
36.02
32.03
25.73
18.49
12.56
9.95
11.60
17.07
24.90
33.10
39.66
42.96
38.86
25.93
6.90
-12.62
-28.05
-38.22
-44.65
-49.65
-54.84
-60.59
-65.68
-68.57
-68.33
-64.97
-59.10
-51.61
-43.57
-36.24
-30.79
-27.31
-25.14
-23.24
-20.72
-17.11
-12.46
-7.53
-3.25
-0.41
1.01
1.87
3.61
7.79
15.44
26.19
38.35
48.86
54.53
53.70
46.90
36.43
25.20
15.42
8.01
2.63
-1.61
-5.38
-8.79
-11.50
-13.19
-13.91
-14.25
-14.98
-16.69
-19.41
-22.48
-24.80
-25.27
-23.33
-19.29
-14.20
-9.40
-6.04
-4.43
-4.23
-4.63
-4.81
-4.34
-3.31
-2.20
-1.59
-1.82
-2.78
-3.96
-4.63
-4.15
-2.25
0.81
4.43
7.78
10.22
11.42
11.44
10.64
9.43
8.08
6.67
5.13
3.43
1.69
0.17
-0.81
-1.10
-0.78
-0.14
0.43
0.63
0.40
-0.12
-0.68
-1.14
-1.49
-1.88
-2.49
-3.44
-4.66
-5.96
-7.07
-7.83
-8.21
-8.42
-8.81
-9.77
-11.57
-14.25
-17.47
-20.60
-22.83
-23.39
-21.82
-18.08
-12.56
-5.96
0.93
7.42
13.04
17.54
20.86
22.98
23.94
23.82
22.78
21.03
18.84
16.47
14.12
11.93
9.98
8.29
6.87
5.66
4.59
3.54
2.41
1.13
-0.33
-1.91
-3.58
-5.27
-6.95
-8.65
-10.41
-12.35
-14.62
-17.29
-20.31
-23.41
-26.07
-27.68
-27.68
-25.81
-22.12
-17.05
-11.20
-5.21
0.39
5.29
9.31
12.43
14.63
15.97
16.44
16.06
14.91
13.07
10.74
8.13
5.52
3.16
1.29
0.09
-0.33
-0.01
0.91
2.19
3.53
4.67
5.41
5.66
5.39
4.58
3.22
1.27
-1.25
-4.20
-7.31
-10.15
-12.14
-12.75
-11.55
-8.45
-3.78
1.73
7.11
11.45
14.10
14.92
14.26
12.72
10.95
9.44
8.40
7.86
7.75
8.03
8.71
9.79
11.23
12.90
14.58
15.99
16.85
16.87
15.78
13.44
9.85
5.33
0.41
-4.20
-7.90
-10.39
-11.83
-12.73
-13.83
-15.75
-18.84
-23.03
-27.83
-32.47
-36.00
-37.58
-36.59
-32.90
-26.89
-19.41
-11.51
-4.20
1.83
6.29
9.27
11.11
12.25
13.07
13.72
14.13
14.00
13.01
11.04
8.29
5.33
2.85
1.39
1.14
1.87
3.13
4.56
6.05
7.77
10.02
13.02
16.83
21.27
26.02
30.61
34.34
36.36
35.83
32.22
25.64
17.10
8.25
0.93
-3.47
-4.47
-2.57
1.10
5.25
9.00
11.96
14.21
15.96
17.30
18.16
18.36
17.86
16.85
15.76
15.03
14.98
15.54
16.28
16.45
15.22
11.93
6.34
-1.26
-10.08
-19.07
-27.26
-34.02
-39.25
-43.28
-46.69
-49.94
-53.25
-56.44
-59.04
-60.45
-60.10
-57.62
-52.98
-46.51
-38.81
-30.68
-22.83
-15.78
-9.76
-4.77
-0.76
2.37
4.66
6.16
7.02
7.49
7.80
8.12
8.42
8.55
8.34
7.75
6.91
6.16
5.90
6.48
8.13
10.97
14.93
19.74
24.90
29.75
33.61
35.93
36.41
35.01
31.93
27.53
22.40
17.34
13.36
11.41
12.10
15.33
20.28
25.68
30.32
33.48
35.05
35.41
34.95
33.84
31.90
28.86
24.59
19.26
13.27
7.01
0.71
-5.62
-12.00
-18.38
-24.52
-30.12
-35.00
-39.16
-42.79
-46.02
-48.80
-50.88
-51.95
-51.90
-50.90
-49.41
-47.95
-46.82
-45.96
-44.95
-43.21
-40.18
-35.63
-29.66
-22.70
-15.37
-8.31
-1.98
3.33
7.56
10.73
12.88
14.03
14.20
13.52
12.22
10.68
9.31
8.50
8.56
9.73
12.13
15.74
20.37
25.59
30.80
35.37
38.88
41.19
42.46
42.91
42.59
41.25
38.46
33.93
27.84
20.90
14.23
8.95
5.81
5.01
6.25
8.93
12.38
16.03
19.43
22.29
24.47
25.92
26.65
26.51
25.08
21.75
15.97
7.61
-2.76
-14.01
-24.80
-34.15
-41.68
-47.65
-52.55
-56.73
-60.09
-62.24
-62.76
-61.57
-58.99
-55.58
-51.83
-48.03
-44.29
-40.73
-37.62
-35.29
-33.91
-33.22
-32.45
-30.62
-26.90
-21.02
-13.44
-5.14
2.75
9.33
14.16
17.26
18.94
19.63
19.78
19.74
19.75
19.95
20.43
21.21
22.35
23.99
26.33
29.60
33.94
39.32
45.40
51.50
56.62
59.61
59.44
55.52
47.96
37.66
26.14
15.13
6.00
-0.58
-4.76
