1660935394.00
64.000000
-0.00
-0.00
-0.00
-0.00
-0.00
-0.00
-0.00
-0.00
-0.00
-0.00
0.00
0.01
0.01
-0.00
-0.03
-0.05
-0.05
0.00
0.13
0.36
0.66
1.01
1.37
1.72
2.06
2.40
2.79
3.25
3.81
4.44
5.10
5.73
6.32
6.90
7.52
8.25
9.15
10.28
11.54
12.79
13.92
14.88
15.77
16.78
18.13
19.96
22.48
25.45
28.58
31.58
34.32
36.91
39.73
43.23
47.71
53.50
60.18
67.19
73.95
80.20
86.13
92.37
99.67
108.51
119.27
131.25
143.54
155.25
166.00
176.12
186.53
198.71
211.25
226.09
243.42
263.04
283.71
302.83
316.58
320.86
312.55
290.60
256.88
214.55
167.40
118.57
69.98
22.54
-23.19
-66.64
-107.19
-144.31
-178.55
-211.24
-244.14
-278.65
-314.93
-351.22
-383.91
-408.57
-421.19
-419.93
-405.83
-382.40
-354.25
-325.38
-298.05
-272.73
-248.89
-225.87
-203.72
-183.04
-164.41
-147.93
-133.06
-118.95
-104.87
-90.65
-76.61
-63.53
-52.11
-42.67
-35.00
-28.48
-22.35
-16.06
-9.47
-2.92
3.07
7.97
11.61
14.13
15.98
17.60
19.30
21.12
22.89
24.38
25.40
25.96
26.14
26.14
26.10
26.09
26.09
26.03
25.83
25.43
24.81
24.00
23.06
22.05
21.03
20.05
19.18
18.48
17.97
17.65
17.44
17.21
16.83
16.24
15.49
14.74
14.14
13.80
13.70
13.71
13.70
13.55
13.25
12.85
12.41
11.97
11.52
11.05
10.56
10.11
9.73
9.49
9.39
9.38
9.38
9.33
9.23
9.07
8.90
8.73
8.54
8.33
8.05
7.70
7.29
6.82
6.33
5.85
5.39
4.93
4.47
4.01
3.58
3.21
2.92
2.67
2.41
2.08
1.67
1.16
0.60
-0.00
-0.63
-1.29
-1.97
-2.66
-3.26
-3.69
-3.91
-3.95
-3.97
-4.14
-4.61
-5.39
-6.35
-7.27
-7.97
-8.39
-8.58
-8.69
-8.83
-8.97
-9.03
-8.91
-8.57
-8.11
-7.64
-7.22
-6.83
-6.37
-5.78
-5.08
-4.41
-3.89
-3.60
-3.48
-3.38
-3.13
-2.62
-1.90
-1.10
-0.38
0.15
0.47
0.67
0.86
1.11
1.42
1.72
1.93
2.01
1.98
1.92
1.89
1.93
2.06
2.26
2.52
2.82
3.12
3.37
3.53
3.60
3.64
3.69
3.77
3.87
3.93
3.91
3.84
3.78
3.80
3.92
4.13
4.37
4.56
4.68
4.71
4.66
4.54
4.40
4.25
4.16
4.14
4.14
4.13
4.06
3.93
3.79
3.69
3.63
3.55
3.34
2.97
2.51
2.13
2.00
2.19
2.58
2.98
3.20
3.18
2.98
2.76
2.62
2.55
2.48
2.32
2.07
1.81
1.63
1.59
1.66
1.72
1.70
1.59
1.47
1.45
1.58
1.86
2.18
2.43
2.51
2.41
2.20
1.93
1.68
1.43
1.16
0.87
0.63
0.53
0.66
1.02
1.47
1.86
2.02
1.90
1.60
1.31
1.17
1.23
1.42
1.56
1.52
1.27
0.92
0.62
0.50
0.58
0.78
0.93
0.94
0.80
0.62
0.52
0.62
0.90
1.28
1.64
1.90
2.05
2.11
2.11
2.04
1.89
1.65
1.37
1.12
0.93
0.80
0.69
0.53
0.32
0.12
0.02
0.09
0.32
0.61
0.88
1.05
1.16
1.23
1.29
1.30
1.20
0.98
0.66
0.36
0.21
0.28
0.53
0.81
0.99
0.99
0.86
0.68
0.56
0.54
0.55
0.54
0.47
0.34
0.21
0.14
0.14
0.19
0.29
0.42
0.58
0.74
0.87
0.96
0.97
0.92
0.81
0.63
0.39
0.11
-0.17
-0.33
-0.31
-0.09
0.23
0.54
0.74
0.78
0.71
0.61
0.53
0.50
0.50
0.49
0.47
0.42
0.36
0.31
0.28
0.27
0.27
0.30
0.34
0.38
0.39
0.36
0.27
0.14
-0.02
-0.13
-0.15
-0.03
0.22
0.55
0.86
1.12
1.29
1.39
1.46
1.47
1.42
1.27
1.06
0.80
0.55
0.33
0.15
-0.03
-0.19
-0.29
-0.28
-0.14
0.10
0.37
0.58
0.70
0.72
0.66
0.53
0.31
0.02
-0.34
-0.68
-0.90
-0.95
-0.81
-0.50
-0.12
0.24
0.51
0.60
0.51
0.26
-0.05
-0.31
-0.42
-0.35
-0.11
0.19
0.46
0.63
0.71
0.76
0.85
1.01
1.20
1.35
1.36
1.19
0.86
0.48
0.15
-0.02
-0.00
0.18
0.43
0.63
0.70
0.59
0.33
-0.03
-0.39
-0.65
-0.77
-0.75
-0.60
-0.39
-0.17
0.01
0.11
0.12
0.04
-0.10
-0.24
-0.34
-0.35
-0.28
-0.16
-0.03
0.03
-0.01
-0.17
-0.39
-0.61
-0.70
-0.62
-0.34
0.11
0.60
1.02
1.26
1.27
1.09
0.79
0.50
0.32
0.31
0.43
0.60
0.75
0.81
0.79
0.72
0.67
0.65
0.65
0.65
0.59
0.48
0.32
0.17
0.03
-0.07
-0.13
-0.18
-0.20
-0.18
-0.14
-0.08
-0.06
-0.13
-0.35
-0.71
-1.16
-1.59
-1.90
-1.96
-1.79
-1.45
-1.16
-1.13
-1.50
-2.31
-3.41
-4.53
-5.41
-5.88
-5.96
-5.82
-5.75
-6.00
-6.70
-7.83
-9.15
-10.36
-11.14
-11.33
-10.94
-10.21
-9.45
-9.01
-9.09
-9.75
-10.87
-12.27
-13.74
-15.23
-16.84
-18.79
-21.33
-24.49
-28.08
-31.70
-34.90
-37.47
-39.60
-41.76
-44.58
-48.46
-53.42
-59.06
-64.72
-69.82
-74.02
-77.37
-80.24
-83.21
-86.85
-91.74
-98.36
-106.96
-117.28
-128.36
-138.60
-146.31
-150.62
-152.13
-152.86
-155.18
-160.23
-166.73
-171.01
-168.37
-155.19
-130.26
-94.97
-52.10
-4.53
45.48
95.77
143.48
184.69
215.26
232.44
236.29
229.92
218.38
206.62
197.84
192.90
190.88
190.21
189.82
189.50
189.73
191.18
194.23
198.79
204.37
210.24
215.81
220.74
225.11
229.38
234.19
240.13
247.45
255.89
264.53
271.85
275.92
274.70
266.47
250.31
226.34
195.66
160.01
121.16
80.25
37.47
-7.65
-55.39
-104.81
-153.15
-196.17
-229.42
-249.90
-257.23
-253.73
-243.30
-229.82
-215.84
-202.24
-188.83
-175.37
-162.17
-150.10
-139.97
-131.85
-124.98
-118.13
-110.31
-101.22
-91.37
-81.79
-73.48
-66.96
-62.06
-58.10
-54.19
-49.64
-44.26
-38.37
-32.61
-27.62
-23.77
-21.00
-18.95
-17.15
-15.29
-13.26
-11.20
-9.33
-7.78
-6.57
-5.57
-4.61
-3.55
-2.35
-1.10
0.07
0.96
1.50
1.67
1.60
1.46
1.38
1.39
1.40
1.28
0.94
0.38
-0.27
-0.87
-1.30
-1.52
-1.58
-1.55
-1.52
-1.52
-1.59
-1.70
-1.81
-1.83
-1.70
-1.38
-0.94
-0.51
-0.20
-0.11
-0.20
-0.37
-0.47
-0.35
0.04
0.69
1.54
2.45
3.30
3.89
4.06
3.73
2.92
1.81
0.65
-0.30
-0.89
-1.07
-0.92
-0.61
-0.26
0.00
0.13
0.13
0.02
-0.17
-0.41
-0.68
-0.97
-1.26
-1.52
-1.69
-1.69
-1.49
-1.11
-0.65
-0.19
0.18
0.41
0.53
0.60
0.75
1.11
1.76
2.66
3.63
4.43
4.79
4.58
3.87
2.89
1.93
1.20
0.76
0.55
0.40
0.19
-0.10
-0.45
-0.76
-0.99
-1.10
-1.17
-1.28
-1.54
-1.94
-2.41
-2.79
-2.96
-2.87
-2.59
-2.24
-1.91
-1.62
-1.30
-0.87
-0.31
0.32
0.85
1.17
1.25
1.19
1.14
1.19
1.36
1.56
1.66
1.64
1.52
1.41
1.35
1.33
1.21
0.90
0.36
-0.30
-0.94
-1.47
-1.93
-2.42
-3.00
-3.62
-4.11
-4.27
-4.00
-3.37
-2.59
-1.89
-1.40
-1.08
-0.79
-0.41
0.14
0.85
1.66
2.57
3.56
4.60
5.53
6.10
6.07
5.34
4.08
2.64
1.45
0.81
0.75
1.04
1.30
1.22
0.69
-0.18
-1.11
-1.87
-2.35
-2.61
-2.79
-3.02
-3.30
-3.53
-3.55
-3.28
-2.77
-2.20
-1.74
-1.47
-1.35
-1.19
-0.83
-0.21
0.62
1.51
2.29
2.84
3.08
3.01
2.67
2.16
1.62
1.25
1.18
1.41
1.77
2.01
1.92
1.41
0.57
-0.38
-1.22
-1.84
-2.27
-2.62
-2.98
-3.31
-3.52
-3.46
-3.09
-2.49
-1.82
-1.24
-0.81
-0.50
-0.23
0.06
0.40
0.77
1.19
1.71
2.39
3.19
3.95
4.41
4.38
3.79
2.82
1.76
0.94
0.53
0.50
0.65
0.73
0.56
0.11
-0.52
-1.17
-1.69
-2.04
-2.25
-2.40
-2.56
-2.71
-2.79
-2.71
-2.44
-2.05
-1.65
-1.37
-1.27
-1.30
-1.32
-1.15
-0.67
0.18
1.30
2.51
3.57
4.24
4.39
4.02
3.26
2.36
1.59
1.18
1.19
1.54
1.99
2.24
2.05
1.33
0.21
-1.06
-2.17
-2.89
-3.17
-3.11
-2.91
-2.77
-2.76
-2.86
-2.95
-2.94
-2.82
-2.58
-2.28
-1.95
-1.58
-1.13
-0.62
-0.10
0.35
0.68
0.92
1.19
1.62
2.30
3.19
4.15
4.93
5.31
5.15
4.45
3.34
2.05
0.84
-0.06
-0.54
-0.58
-0.30
0.13
0.51
0.66
0.52
0.07
-0.58
-1.28
-1.89
-2.27
-2.39
-2.27
-2.04
-1.82
-1.71
-1.75
-1.89
-2.07
-2.22
-2.35
-2.46
-2.58
-2.68
-2.71
-2.69
-2.64
-2.66
-2.75
-2.81
-2.65
-2.13
-1.24
-0.18
0.70
1.16
1.11
0.71
0.29
0.14
0.45
1.20
2.24
3.35
4.31
4.89
4.94
4.37
3.17
1.53
-0.29
-1.93
-3.11
-3.61
-3.42
-2.69
-1.72
-0.83
-0.17
0.31
0.84
1.66
2.82
4.13
5.15
5.48
4.90
3.50
1.59
-0.42
-2.09
-2.96
-2.48
-0.26
3.60
8.28
12.31
14.14
13.00
9.34
4.70
0.89
-0.94
-0.85
0.09
0.65
0.17
-1.09
-2.29
-2.71
-2.25
-1.43
-0.99
-1.33
-2.35
-3.52
-4.26
-4.28
-3.71
-2.98
-2.58
-2.80
-3.64
-4.80
-5.85
-6.42
-6.36
-5.78
-5.00
-4.31
-3.92
-3.81
-3.86
-3.89
-3.85
-3.78
-3.80
-4.01
-4.34
-4.66
-4.71
-4.30
-3.33
-1.90
-0.22
1.39
2.65
3.40
3.65
3.54
3.30
3.10
3.09
3.30
3.77
4.52
5.53
6.69
7.81
8.63
8.95
8.73
8.06
7.16
6.26
5.47
4.79
4.08
3.26
2.28
1.22
0.26
-0.47
-0.86
-0.95
-0.85
-0.70
-0.57
-0.49
-0.44
-0.42
-0.49
-0.73
-1.17
-1.80
-2.49
-3.15
-3.66
-4.03
-4.31
-4.57
-4.85
-5.11
-5.30
-5.37
-5.33
-5.23
-5.14
-5.09
-5.03
-4.94
-4.78
-4.64
-4.60
-4.77
-5.18
-5.79
-6.50
-7.23
-8.01
-8.97
-10.28
-11.97
-13.94
-15.91
-17.59
-18.85
-19.88
-21.17
-23.34
-26.92
-32.08
-38.59
-45.84
-53.13
-59.93
-66.08
-71.79
-77.44
-83.36
-89.62
-96.00
-102.19
-108.07
-113.83
-119.98
-127.09
-135.59
-145.58
-157.01
-169.78
-183.81
-198.64
-212.95
-224.25
-229.25
-224.74
-208.82
-181.60
-145.04
-102.05
-55.33
-6.80
42.14
89.88
134.04
171.70
200.43
219.43
229.99
234.97
237.41
239.33
241.25
242.63
242.90
242.28
241.93
243.26
247.04
252.83
259.09
263.88
265.86
264.86
262.03
259.44
259.37
263.43
271.90
283.17
293.87
299.58
296.11
280.94
254.08
217.99
176.48
133.20
90.39
48.43
6.36
-37.38
-84.07
-134.06
-186.36
-238.36
-286.12
-325.23
-352.18
-365.74
-367.36
-360.48
-348.75
-334.53
-318.43
-300.11
-279.79
-259.19
-241.26
-228.73
-222.56
-221.38
-222.23
-222.14
-219.43
-213.91
-205.98
-195.54
-181.17
-160.43
-130.97
-91.69
-43.21
12.43
72.56
134.49
195.51
252.71
302.91
343.24
372.14
390.22
400.26
406.08
410.67
414.68
416.11
411.38
397.21
372.35
338.03
297.22
253.06
207.54
160.85
111.92
59.52
3.59
-53.86
-109.02
-157.27
-194.70
-219.43
-232.08
-235.26
-232.31
-226.11
-218.33
-209.73
-200.77
-192.33
-185.73
-182.09
-181.60
-183.10
-184.58
-184.18
-181.19
-176.43
-171.78
-169.30
-170.22
-174.57
-181.27
-188.59
-194.73
-198.22
-198.33
-195.35
-190.80
-187.00
-186.17
-189.02
-193.88
-196.78
-192.77
-178.06
-151.63
-115.55
-73.80
-30.18
13.45
57.75
104.84
156.38
211.73
267.34
317.73
357.52
383.59
396.22
398.81
396.35
393.45
392.89
395.22
399.29
403.10
404.49
401.49
392.40
375.89
351.32
319.01
280.25
236.96
191.07
143.95
96.00
46.82
-4.09
-56.40
-108.23
-156.17
-196.06
-224.37
-239.52
-242.45
-236.15
-224.40
-210.49
-196.46
-183.15
-170.81
-159.64
-149.96
-141.97
-135.38
-129.34
-122.77
-114.86
-105.57
-95.55
-85.92
-77.70
-71.30
-66.41
-62.14
-57.53
-51.99
-45.57
-38.89
-32.84
-28.09
-24.88
-22.93
-21.63
-20.32
-18.56
-16.23
-13.50
-10.66
-8.02
-5.76
-3.96
-2.57
-1.50
-0.65
0.06
0.66
1.13
1.43
1.52
1.41
1.18
0.96
0.89
1.04
1.35
1.73
2.04
2.22
2.28
2.27
2.21
2.12
1.94
1.65
1.25
0.81
0.44
0.22
0.17
0.26
0.38
0.43
0.33
0.05
-0.35
-0.77
-1.07
-1.13
-0.87
-0.33
0.36
1.04
1.55
1.79
1.78
1.61
1.42
1.29
1.24
1.23
1.21
1.15
1.03
0.88
0.68
0.42
0.13
-0.17
-0.38
-0.48
-0.47
-0.41
-0.36
-0.38
-0.48
-0.62
-0.77
-0.90
-1.01
-1.10
-1.16
-1.17
-1.10
-0.97
-0.82
-0.69
-0.60
-0.52
-0.43
-0.27
-0.03
0.24
0.48
0.62
0.60
0.45
0.22
-0.04
-0.27
-0.45
-0.59
-0.67
-0.68
-0.57
-0.35
-0.03
0.31
0.58
0.69
0.64
0.46
0.28
0.20
0.31
0.58
0.91
1.16
1.23
1.07
0.78
0.47
0.25
0.18
0.23
0.33
0.44
0.55
0.66
0.73
0.71
0.55
0.25
-0.14
-0.53
-0.81
-0.91
-0.87
-0.76
-0.66
-0.68
-0.82
-1.05
-1.27
-1.37
-1.30
-1.07
-0.77
-0.52
-0.37
-0.32
-0.28
-0.14
0.12
0.43
0.67
0.73
0.59
0.32
0.03
-0.21
-0.37
-0.50
-0.66
-0.86
-1.06
-1.20
-1.21
-1.09
-0.90
-0.70
-0.53
-0.41
-0.32
-0.22
-0.12
-0.04
0.05
0.13
0.21
0.30
0.36
0.35
0.21
-0.10
-0.56
-1.09
-1.60
-2.00
-2.26
-2.41
-2.54
-2.71
-2.97
-3.32
-3.73
-4.17
-4.64
-5.17
-5.78
-6.47
-7.19
-7.85
-8.38
-8.75
-9.00
-9.26
-9.66
-10.35
-11.36
-12.66
-14.10
-15.53
-16.78
-17.72
-18.30
-18.60
-18.88
-19.54
-20.98
-23.48
-27.01
-31.22
-35.54
-39.45
-42.58
-44.87
-46.41
-47.33
-47.67
-47.29
-45.92
-43.29
-39.21
-33.71
-27.14
-20.29
-14.38
-10.69
-10.16
-12.78
-17.39
-21.89
-23.91
-21.62
-14.38
-2.81
11.62
27.20
42.57
56.95
70.03
81.81
92.36
101.81
110.36
118.27
125.88
133.62
141.92
151.20
161.70
173.20
184.72
194.17
198.42
193.88
177.71
149.17
110.55
66.95
24.86
-10.02
-34.61
-49.13
-56.32
-59.84
-62.56
-65.79
-69.55
-73.31
-76.77
-79.95
-82.90
-85.28
-86.33
-85.21
-81.48
-75.48
-68.18
-60.90
-54.77
-50.38
-47.70
-46.11
-44.78
-42.93
-40.16
-36.58
-32.69
-29.16
-26.51
-24.92
-24.17
-23.75
-23.11
-21.91
-20.11
-17.95
-15.81
-14.00
-12.67
-11.79
-11.14
-10.47
-9.50
-8.04
-6.04
-3.55
-0.75
2.09
4.71
6.89
8.50
9.52
9.97
9.94
9.52
8.83
8.00
7.18
6.47
5.97
5.72
5.69
5.81
5.92
5.92
5.71
5.32
4.82
4.34
3.97
3.73
3.57
3.42
3.23
3.00
2.76
2.56
2.41
2.28
2.10
1.85
1.54
1.23
0.98
0.84
0.83
0.90
0.97
1.00
0.96
0.85
0.70
0.56
0.45
0.37
0.31
0.24
0.14
0.02
-0.10
-0.20
-0.25
-0.27
-0.26
-0.24
-0.22
-0.21
-0.20
-0.17
-0.12
-0.02
0.12
0.27
0.42
0.53
0.61
0.67
0.72
0.74
0.71
0.56
0.29
-0.06
-0.38
-0.55
-0.50
-0.23
0.12
0.40
0.50
0.40
0.20
0.03
0.02
0.19
0.49
0.79
1.00
1.05
0.92
0.64
0.22
-0.28
-0.82
-1.29
-1.61
-1.69
-1.53
-1.22
-0.85
-0.53
-0.29
-0.13
-0.04
0.01
0.01
-0.04
-0.14
-0.21
-0.21
-0.09
0.11
0.31
0.39
0.31
0.05
-0.27
-0.53
-0.63
-0.51
-0.21
0.15
0.48
0.68
0.74
0.68
0.56
0.41
0.26
0.13
0.04
-0.01
-0.02
0.01
0.06
0.11
0.12
0.12
0.11
0.15
0.28
0.47
0.70
0.92
1.05
1.07
1.00
0.89
0.80
0.76
0.77
0.79
0.79
0.72
0.57
0.35
0.09
-0.18
-0.43
-0.65
-0.82
-0.96
-1.03
-1.03
-0.93
-0.74
-0.49
-0.24
-0.04
0.07
0.11
0.12
0.12
0.12
0.09
0.00
-0.14
-0.31
-0.45
-0.52
-0.52
-0.45
-0.37
-0.30
-0.24
-0.16
-0.09
-0.02
-0.02
-0.10
-0.25
-0.40
-0.49
-0.44
-0.23
0.10
0.46
0.75
0.91
0.92
0.84
0.74
0.67
0.64
0.64
0.64
0.63
0.60
0.56
0.48
0.33
0.09
-0.24
-0.56
-0.78
-0.79
-0.59
-0.24
0.11
0.30
0.26
0.02
-0.34
-0.67
-0.86
-0.85
