1660324313.00
64.000000
-0.00
-0.00
-0.00
-0.00
-0.00
-0.00
-0.00
-0.00
-0.00
-0.00
0.00
0.01
0.01
-0.00
-0.03
-0.05
-0.05
0.00
0.13
0.36
0.66
1.01
1.37
1.72
2.06
2.40
2.79
3.24
3.80
4.42
5.06
5.66
6.19
6.67
7.15
7.71
8.37
9.20
10.11
10.95
11.60
12.05
12.38
12.79
13.52
14.74
16.62
18.94
21.40
23.68
25.66
27.44
29.39
31.98
35.48
40.22
45.74
51.46
56.77
61.39
65.49
69.69
74.73
81.08
89.10
98.05
106.95
114.88
121.42
126.92
132.31
139.10
145.87
154.53
165.19
177.56
190.36
200.97
205.67
200.41
182.16
149.90
105.43
51.78
-7.37
-68.92
-130.87
-192.13
-251.94
-309.49
-363.97
-414.45
-460.80
-503.16
-541.75
-576.26
-605.25
-625.74
-633.31
-623.04
-590.90
-535.90
-460.84
-371.98
-277.33
-184.34
-98.17
-21.14
46.41
104.93
154.38
194.29
224.28
244.72
257.05
263.36
265.66
265.26
262.58
257.25
248.79
237.19
223.11
207.79
192.62
178.58
166.00
154.52
143.40
132.04
120.18
108.07
96.24
85.26
75.50
66.99
59.47
52.56
45.90
39.36
33.03
27.10
21.80
17.18
13.16
9.62
6.39
3.38
0.66
-1.66
-3.53
-5.00
-6.15
-7.06
-7.76
-8.24
-8.49
-8.56
-8.53
-8.49
-8.45
-8.36
-8.13
-7.68
-7.08
-6.47
-6.03
-5.88
-5.95
-6.06
-5.94
-5.45
-4.60
-3.58
-2.65
-1.99
-1.67
-1.61
-1.69
-1.82
-1.99
-2.19
-2.46
-2.76
-3.05
-3.25
-3.30
-3.18
-2.92
-2.56
-2.17
-1.81
-1.52
-1.29
-1.11
-0.98
-0.92
-0.98
-1.19
-1.51
-1.86
-2.11
-2.20
-2.09
-1.86
-1.57
-1.25
-0.89
-0.44
0.07
0.60
1.05
1.31
1.32
1.12
0.79
0.43
0.16
0.04
0.12
0.36
0.74
1.18
1.62
2.01
2.34
2.58
2.72
2.79
2.83
2.91
3.11
3.43
3.79
4.00
3.83
3.16
2.02
0.54
-1.01
-2.35
-3.31
-3.88
-4.18
-4.35
-4.53
-4.76
-5.02
-5.23
-5.30
-5.14
-4.66
-3.77
-2.47
-0.90
0.60
1.62
1.78
0.97
-0.60
-2.42
-3.93
-4.68
-4.53
-3.65
-2.40
-1.16
-0.26
0.14
0.05
-0.43
-1.10
-1.76
-2.20
-2.30
-2.04
-1.48
-0.75
-0.02
0.60
1.05
1.32
1.46
1.51
1.51
1.44
1.30
1.08
0.85
0.69
0.63
0.69
0.80
0.89
0.95
1.01
1.12
1.31
1.56
1.77
1.84
1.66
1.24
0.63
-0.08
-0.82
-1.61
-2.46
-3.39
-4.32
-5.10
-5.58
-5.68
-5.43
-4.94
-4.34
-3.74
-3.15
-2.50
-1.68
-0.63
0.64
2.01
3.28
4.23
4.66
4.55
4.02
3.30
2.64
2.18
1.91
1.69
1.35
0.83
0.19
-0.39
-0.74
-0.80
-0.62
-0.37
-0.21
-0.24
-0.48
-0.86
-1.28
-1.64
-1.87
-1.97
-1.96
-1.88
-1.73
-1.48
-1.10
-0.59
-0.02
0.47
0.72
0.64
0.25
-0.30
-0.85
-1.24
-1.42
-1.44
-1.36
-1.24
-1.08
-0.89
-0.65
-0.38
-0.11
0.17
0.49
0.90
1.39
1.91
2.30
2.41
2.13
1.50
0.70
-0.06
-0.54
-0.69
-0.56
-0.34
-0.21
-0.23
-0.35
-0.41
-0.26
0.14
0.68
1.13
1.29
1.07
0.57
-0.02
-0.48
-0.68
-0.59
-0.29
0.06
0.27
0.18
-0.31
-1.16
-2.13
-2.85
-2.91
-2.05
-0.25
2.19
4.78
6.96
8.23
8.28
6.97
4.40
0.92
-2.92
-6.43
-9.00
-10.24
-10.12
-8.94
-7.16
-5.22
-3.37
-1.67
-0.12
1.31
2.54
3.51
4.21
4.70
5.09
5.46
5.80
5.99
5.88
5.42
4.66
3.75
2.84
2.03
1.28
0.55
-0.22
-0.97
-1.60
-1.97
-2.04
-1.85
-1.52
-1.17
-0.88
-0.64
-0.45
-0.31
-0.32
-0.53
-0.96
-1.45
-1.79
-1.76
-1.31
-0.60
0.13
0.61
0.72
0.50
0.06
-0.46
-0.99
-1.49
-1.92
-2.18
-2.18
-1.86
-1.26
-0.51
0.26
0.92
1.43
1.73
1.82
1.66
1.26
0.70
0.12
-0.32
-0.50
-0.38
-0.02
0.46
0.91
1.17
1.12
0.67
-0.20
-1.35
-2.56
-3.56
-4.14
-4.21
-3.84
-3.20
-2.46
-1.77
-1.14
-0.56
-0.01
0.49
0.90
1.23
1.51
1.86
2.36
3.04
3.81
4.51
4.94
4.98
4.60
3.87
2.92
1.90
0.95
0.23
-0.15
-0.13
0.27
0.87
1.44
1.73
1.58
0.95
-0.05
-1.24
-2.39
-3.29
-3.78
-3.78
-3.32
-2.55
-1.68
-0.93
-0.42
-0.16
-0.01
0.16
0.45
0.82
1.16
1.33
1.26
0.96
0.53
0.10
-0.24
-0.48
-0.69
-0.93
-1.24
-1.56
-1.77
-1.76
-1.48
-1.04
-0.60
-0.35
-0.38
-0.61
-0.87
-1.02
-0.99
-0.85
-0.72
-0.67
-0.69
-0.67
-0.48
-0.08
0.49
1.09
1.60
1.93
2.08
2.09
2.03
1.94
1.81
1.61
1.34
0.99
0.59
0.20
-0.13
-0.38
-0.58
-0.77
-1.02
-1.39
-1.86
-2.35
-2.75
-2.93
-2.86
-2.55
-2.11
-1.69
-1.40
-1.31
-1.41
-1.61
-1.81
-1.89
-1.77
-1.42
-0.86
-0.17
0.53
1.14
1.56
1.76
1.78
1.70
1.62
1.59
1.63
1.72
1.81
1.85
1.84
1.79
1.73
1.69
1.66
1.61
1.51
1.27
0.87
0.30
-0.38
-1.03
-1.56
-1.89
-2.03
-2.06
-2.08
-2.14
-2.23
-2.29
-2.23
-2.00
-1.57
-0.98
-0.28
0.44
1.11
1.63
1.97
2.13
2.16
2.08
1.94
1.74
1.51
1.27
1.05
0.88
0.76
0.68
0.64
0.62
0.62
0.63
0.62
0.53
0.33
0.04
-0.31
-0.64
-0.92
-1.14
-1.33
-1.50
-1.60
-1.60
-1.46
-1.20
-0.89
-0.58
-0.29
0.01
0.33
0.70
1.03
1.25
1.30
1.16
0.91
0.62
0.37
0.21
0.13
0.14
0.22
0.35
0.49
0.60
0.61
0.50
0.27
-0.04
-0.35
-0.63
-0.83
-0.95
-0.98
-0.96
-0.93
-0.96
-1.11
-1.39
-1.73
-2.00
-2.06
-1.82
-1.30
-0.62
0.08
0.67
1.11
1.42
1.67
1.86
1.97
1.96
1.78
1.47
1.09
0.75
0.51
0.39
0.35
0.33
0.30
0.23
0.11
-0.06
-0.25
-0.45
-0.59
-0.67
-0.68
-0.64
-0.61
-0.63
-0.71
-0.83
-0.95
-1.05
-1.10
-1.11
-1.07
-0.95
-0.71
-0.36
0.06
0.47
0.77
0.94
0.98
0.95
0.88
0.79
0.66
0.48
0.28
0.11
0.05
0.10
0.25
0.39
0.44
0.35
0.17
-0.04
-0.18
-0.21
-0.11
0.11
0.41
0.73
0.98
1.06
0.92
0.55
0.03
-0.50
-0.89
-1.00
-0.82
-0.39
0.17
0.69
1.05
1.16
1.01
0.66
0.18
-0.31
-0.74
-1.01
-1.07
-0.92
-0.61
-0.27
-0.01
0.07
-0.04
-0.26
-0.48
-0.64
-0.73
-0.79
-0.88
-0.97
-0.98
-0.83
-0.51
-0.13
0.12
0.12
-0.14
-0.52
-0.78
-0.75
-0.39
0.20
0.83
1.32
1.62
1.72
1.72
1.68
1.63
1.60
1.57
1.55
1.52
1.42
1.24
0.93
0.55
0.14
-0.22
-0.47
-0.61
-0.66
-0.70
-0.79
-0.97
-1.23
-1.56
-1.90
-2.16
-2.30
-2.30
-2.20
-2.06
-1.92
-1.76
-1.50
-1.10
-0.55
0.05
0.55
0.83
0.85
0.66
0.35
0.04
-0.22
-0.45
-0.69
-0.92
-1.08
-1.06
-0.84
-0.43
0.04
0.41
0.57
0.51
0.28
-0.02
-0.29
-0.48
-0.55
-0.49
-0.35
-0.19
-0.07
-0.08
-0.21
-0.41
-0.55
-0.53
-0.28
0.19
0.79
1.40
1.91
2.21
2.27
2.09
1.75
1.35
0.95
0.59
0.24
-0.10
-0.41
-0.62
-0.68
-0.59
-0.43
-0.32
-0.35
-0.53
-0.76
-0.90
-0.89
-0.70
-0.42
-0.17
-0.01
0.03
-0.01
-0.08
-0.12
-0.11
-0.03
0.11
0.27
0.44
0.58
0.72
0.87
1.06
1.29
1.52
1.65
1.61
1.38
1.00
0.60
0.29
0.11
0.04
-0.00
-0.07
-0.20
-0.35
-0.45
-0.49
-0.48
-0.47
-0.51
-0.61
-0.73
-0.80
-0.78
-0.70
-0.60
-0.58
-0.70
-0.96
-1.32
-1.70
-2.01
-2.16
-2.10
-1.79
-1.23
-0.49
0.31
1.05
1.62
1.96
2.05
1.96
1.76
1.55
1.40
1.35
1.41
1.51
1.59
1.58
1.44
1.23
1.00
0.82
0.72
0.68
0.68
0.66
0.56
0.33
-0.04
-0.51
-0.98
-1.32
-1.41
-1.25
-0.91
-0.56
-0.36
-0.39
-0.61
-0.89
-1.08
-1.09
-0.94
-0.67
-0.36
-0.03
0.33
0.70
1.08
1.42
1.68
1.84
1.94
2.02
2.12
2.22
2.28
2.21
1.99
1.62
1.17
0.71
0.31
0.02
-0.15
-0.20
-0.11
0.06
0.27
0.42
0.42
0.23
-0.13
-0.56
-0.99
-1.34
-1.60
-1.80
-1.98
-2.14
-2.22
-2.17
-1.95
-1.61
-1.25
-0.98
-0.91
-1.04
-1.28
-1.50
-1.55
-1.36
-0.94
-0.41
0.08
0.45
0.72
1.00
1.40
1.95
2.57
3.13
3.50
3.62
3.49
3.15
2.64
2.02
1.37
0.86
0.62
0.73
1.10
1.56
1.93
2.11
2.16
2.21
2.42
2.80
3.28
3.76
4.18
4.55
4.90
5.27
5.62
5.90
6.10
6.27
6.49
6.76
6.96
6.88
6.31
5.19
3.68
2.11
0.84
0.07
-0.22
-0.25
-0.31
-0.59
-1.17
-1.94
-2.72
-3.35
-3.69
-3.65
-3.18
-2.33
-1.20
-0.01
0.95
1.39
1.14
0.24
-1.02
-2.25
-3.04
-3.19
-2.76
-2.00
-1.23
-0.69
-0.42
-0.33
-0.24
-0.01
0.40
0.94
1.53
2.09
2.56
2.91
3.13
3.31
3.65
4.48
6.18
9.05
13.22
18.51
24.52
30.75
36.46
41.18
44.85
47.81
50.63
53.83
57.76
62.56
68.27
74.57
81.11
87.55
93.53
98.68
102.60
105.08
106.04
105.38
102.26
95.85
85.97
73.60
60.75
50.02
43.87
43.90
50.40
60.84
72.17
82.17
89.88
94.87
96.58
94.52
88.75
80.14
67.13
49.16
27.55
5.08
-16.08
-35.55
-54.14
-72.66
-91.33
-114.58
-145.29
-182.63
-222.41
-260.16
-293.45
-321.75
-345.46
-365.28
-388.33
-420.09
-460.74
-505.11
-546.80
-581.75
-608.53
-627.47
-600.29
-507.84
-361.87
-199.47
-55.63
53.70
128.51
175.98
204.76
222.83
230.11
226.10
213.38
197.60
183.59
172.76
163.94
155.68
147.41
136.69
123.19
110.23
103.54
107.10
120.66
140.87
161.19
177.06
183.93
180.38
168.81
154.06
140.54
130.32
123.20
117.65
112.01
103.45
90.07
72.15
52.16
33.26
17.81
6.76
-0.14
-3.70
-5.24
-5.95
-6.40
-6.81
-7.44
-8.78
-11.22
-14.70
-18.51
-21.72
-23.76
-24.37
-23.80
-22.54
-21.11
-19.92
-19.23
-19.12
-19.55
-20.44
-21.50
-22.46
-23.16
-23.54
-23.65
-23.51
-22.93
-21.51
-19.56
-17.18
-14.56
-12.03
-9.90
-8.38
-7.42
-6.81
-6.21
-5.34
-3.93
-2.01
0.21
2.36
4.06
5.06
5.24
4.64
3.38
1.68
-0.30
-2.45
-4.70
-7.03
-9.36
-11.57
-13.38
-14.37
-14.05
-12.00
-8.17
-2.92
2.93
8.35
12.39
14.59
15.01
14.23
13.05
12.05
11.48
11.22
11.03
10.80
10.69
11.10
12.37
14.59
17.45
20.31
22.49
23.54
23.42
22.42
20.98
19.42
17.80
15.93
13.52
10.45
6.85
3.09
-0.38
-3.23
-5.39
-7.01
-8.41
-9.86
-11.51
-13.36
-15.29
-17.10
-18.57
-19.48
-19.56
-18.59
-16.37
-12.90
-8.49
-3.77
0.30
2.75
2.92
0.76
-3.01
-7.05
-9.84
-10.13
-7.44
-2.26
4.13
10.00
13.78
14.54
12.31
7.98
3.04
-1.08
-3.42
-3.83
-2.87
-1.46
-0.47
-0.35
-1.08
-2.10
-2.49
-1.10
3.21
11.11
22.30
35.09
46.64
53.83
54.64
49.23
40.17
31.47
26.84
28.14
34.61
43.41
50.96
54.41
52.58
45.96
36.19
25.24
14.86
6.31
0.34
-2.84
-3.50
-2.40
-0.69
0.32
-0.51
-3.76
-9.16
-15.58
-21.24
-24.26
-23.24
-17.85
-9.09
0.85
9.25
13.74
13.18
8.13
0.65
-6.49
-10.84
-11.16
-7.77
-2.23
3.42
7.38
8.65
7.13
3.39
-1.60
-6.77
-11.15
-14.00
-14.91
-13.88
-11.26
-7.67
-3.71
0.16
3.81
7.31
10.90
14.74
18.91
23.34
27.71
31.39
33.44
32.93
29.44
23.48
16.60
11.00
8.62
10.24
15.07
20.97
25.30
25.90
21.89
13.78
3.16
-7.89
-17.43
-24.10
-27.35
-27.44
-25.32
-22.29
-19.60
-18.14
-18.25
-19.68
-21.75
-23.49
-23.89
-22.12
-17.81
-11.29
-3.71
3.18
7.51
8.03
4.67
-1.28
-7.57
-11.84
-12.47
-9.16
-2.92
4.35
10.63
14.32
14.59
11.41
5.43
-2.12
-9.70
-15.70
-18.84
-18.49
-14.89
-9.04
-2.31
3.99
9.00
12.48
14.66
16.08
17.38
19.15
21.74
24.99
28.09
29.81
29.00
25.36
19.84
14.50
11.60
12.54
17.02
23.00
27.54
27.97
22.88
12.61
-1.14
-15.92
-29.40
-39.82
-46.28
-48.63
-47.40
-43.52
-38.14
-32.47
-27.63
-24.50
-23.44
-24.12
-25.41
-25.68
-23.33
-17.53
-8.71
1.40
10.29
15.69
16.47
13.11
7.50
2.14
-0.81
-0.27
3.54
9.36
15.39
19.90
21.63
19.98
15.09
7.70
-0.99
-9.57
-16.68
-21.25
-22.74
-21.26
-17.51
-12.62
-7.75
-3.72
-0.76
1.56
4.03
7.35
11.86
17.50
23.80
30.03
35.07
37.55
36.15
30.32
20.90
10.29
1.78
-1.70
1.07
8.98
18.94
27.05
30.13
26.68
17.24
3.89
-10.56
-23.46
-32.93
-38.08
-39.06
-36.78
-32.54
-27.72
-23.60
-21.18
-21.04
-23.18
-26.82
-30.54
-32.55
-31.37
-26.40
-18.29
-8.83
-0.43
4.78
5.72
2.82
-2.12
-6.55
-8.27
-6.32
-1.30
4.90
10.07
12.71
12.70
11.05
9.12
7.68
6.45
4.35
0.44
-5.33
-11.80
-17.14
-19.75
-19.15
-16.14
-12.30
-9.18
-7.52
-7.06
-6.84
-5.82
-3.30
0.87
6.40
12.73
19.03
24.26
27.26
27.10
23.51
17.19
9.77
3.22
-0.88
-1.93
-0.45
2.30
5.07
7.12
8.40
9.23
9.92
10.43
10.39
9.45
7.58
5.21
3.06
1.76
1.49
1.86
2.08
1.35
-0.70
-3.82
-7.18
-9.82
-10.98
-10.49
-8.75
-6.56
-4.78
-3.95
-4.19
-5.14
-6.19
-6.77
-6.53
-5.48
-3.91
-2.22
-0.72
0.50
1.57
2.69
4.01
5.51
7.07
8.51
9.78
10.95
12.14
13.45
14.89
16.31
17.53
18.41
18.87
18.97
18.89
18.88
19.23
20.25
22.10
24.76
28.01
31.43
34.52
36.90
38.37
39.02
39.19
39.35
39.96
41.35
43.53
46.17
48.53
49.59
48.37
44.45
38.19
30.70
23.18
16.13
8.86
-0.25
-12.53
-27.80
-43.57
-55.69
-59.87
-53.69
-37.62
-14.96
9.50
31.17
46.85
55.30
56.91
53.22
46.52
39.77
36.37
39.52
50.90
69.17
89.56
105.13
109.57
100.01
78.66
51.90
27.29
10.26
2.23
1.28
4.15
8.56
13.66
18.86
22.20
19.60
5.65
-24.38
-72.34
-135.74
-207.67
-277.80
-334.66
-368.33
-372.93
-347.85
-297.35
-229.05
-151.84
-74.48
-4.54
51.82
90.35
109.42
110.78
99.36
81.94
65.03
52.87
46.86
46.15
49.01
53.61
58.51
62.53
64.62
64.01
60.39
54.21
46.53
38.61
31.45
25.45
20.50
16.16
11.97
7.21
1.46
-5.17
-12.09
-18.49
-23.69
-27.25
-29.14
-29.66
-30.35
-32.79
-37.96
-45.77
-55.20
-64.72
-72.67
-77.70
-79.26
-79.18
-79.83
-82.88
-88.52
-95.79
-103.36
-109.90
-114.27
-115.52
-114.80
-113.29
-111.67
-110.05
-108.81
-109.15
-112.69
-120.67
-121.88
-108.71
-80.23
-43.16
-6.29
24.66
47.97
64.49
76.18
85.34
92.15
96.45
98.19
97.93
96.27
93.10
88.12
81.10
72.15
60.87
48.24
36.38
29.15
29.53
38.05
52.48
68.78
82.77
90.64
90.66
83.42
71.27
57.00
42.91
30.59
21.06
14.82
11.47
10.08
9.52
8.91
7.57
5.40
2.50
-0.75
-3.79
-6.01
-7.19
-7.37
-6.75
-5.78
-4.93
-4.53
-4.68
-5.31
-6.30
-7.61
-9.26
-11.33
-13.87
-16.82
-20.03
-23.24
-26.16
-28.54
-30.18
-30.88
-30.42
-28.73
-25.90
-22.25
-18.26
-14.41
-11.08
-8.47
-6.64
-5.62
-5.41
-6.00
-7.33
-9.23
-11.48
-13.85
-16.13
-18.08
-19.40
-19.67
-18.58
-16.02
-12.30
-8.07
-4.16
-1.30
0.04
-0.24
-1.87
-4.34
-6.94
-8.93
-9.66
-8.76
-6.18
-2.25
2.49
7.36
11.78
15.37
18.10
20.29
22.55
25.52
29.58
34.66
40.26
45.62
50.15
53.66
56.40
58.91
61.65
64.82
68.30
71.76
74.82
77.17
78.61
78.98
78.12
75.86
72.14
67.07
61.18
55.45
51.23
49.83
51.94
57.06
63.38
68.20
68.84
63.76
53.13
38.82
23.74
10.77
1.72
-3.16
-5.12
-6.27
-8.80
-14.43
-24.15
-38.28
-56.42
-77.46
-99.42
-119.57
-134.97
-143.29
-143.69
-137.28
-126.72
-115.24
-105.35
-98.02
-92.68
-87.97
-82.79
-76.97
-71.39
-67.30
-65.39
-65.03
-64.34
-61.20
-54.53
-45.28
-36.05
-29.72
-27.77
-29.52
-32.70
-34.97
-35.39
-34.69
-34.34
-35.26
-37.26
-39.57
-41.95
-45.07
-49.66
-55.04
-58.18
-54.63
-40.85
-16.66
14.08
44.93
69.84
85.78
93.54
96.59
98.81
102.70
108.82
116.47
124.64
132.46
139.11
143.48
144.16
139.96
130.59
117.09
101.70
87.08
75.24
66.59
59.38
49.54
31.41
-0.76
-50.28
-115.76
-190.00
-261.16
-316.09
-344.62
-342.69
-312.98
-262.82
-200.80
-134.01
-67.16
-3.57
53.32
99.35
130.64
145.46
145.67
136.58
125.14
117.28
115.88
120.23
126.92
131.84
132.07
126.86
117.48
106.12
94.65
83.77
72.99
61.38
48.46
34.88
22.37
13.14
8.76
9.28
12.86
16.42
16.80
12.17
2.87
-8.76
-19.47
-26.49
-28.52
-25.99
-20.39
-13.45
-6.77
-2.03
-1.45
-7.55
-21.96
-43.78
-68.61
-89.18
-97.86
-89.85
-65.41
-30.09
7.38
38.42
57.50
63.37
58.56
47.60
35.17
24.87
18.88
18.01
22.05
29.87
39.61
48.95
55.40
56.94
52.64
43.12
30.41
17.35
6.54
-0.61
-4.34
-6.11
-7.76
-10.33
-13.54
-15.91
-15.70
-11.86
-4.90
3.08
8.92
9.46
2.65
-11.55
-30.95
-51.73
-69.55
-80.95
-84.45
-80.89
-72.88
-63.74
-56.15
-51.32
-48.70
-46.53
-42.79
-36.21
-26.77
-15.61
-4.08
7.04
18.11
30.19
44.18
59.78
75.32
88.35
96.86
100.20
99.24
95.69
90.99
85.76
79.81
72.75
64.64
56.03
47.72
40.22
33.53
27.21
20.74
13.77
6.27
-1.48
-9.00
-15.71
-21.09
-24.74
-26.58
-26.85
-26.09
-24.98
-24.10
-23.80
-24.07
-24.64
-25.09
-24.99
-24.12
-22.56
-20.72
-19.24
-18.70
-19.34
-20.89
-22.69
-23.98
-24.26
-23.51
-22.14
-20.64
-19.30
-18.03
-16.53
-14.58
-12.30
-10.12
-8.56
-7.88
-7.88
-8.01
-7.59
-6.21
-3.85
-0.84
2.37
5.40
8.11
10.68
13.49
17.15
22.28
29.36
38.41
48.86
59.48
68.68
75.18
78.44
79.03
78.31
77.82
78.53
80.61
83.56
86.67
89.39
91.41
92.52
92.50
91.28
89.18
87.23
86.94
89.79
96.55
107.00
120.20
135.01
150.78
167.37
184.96
203.57
222.80
241.88
260.06
276.83
291.72
303.88
311.63
312.57
304.26
285.38
256.84
221.69
184.16
148.06
115.24
84.94
54.56
20.97
-18.19
-63.61
-113.76
-164.51
-209.43
-241.22
-254.33
-247.81
-226.89
-201.84
-184.18
-182.29
-198.38
-228.75
-266.92
-307.48
-348.49
-391.43
-439.24
-493.97
-555.34
