1660334734.00
64.000000
-0.00
-0.00
-0.00
-0.00
-0.00
-0.00
-0.00
-0.00
-0.00
-0.00
0.00
0.01
0.01
-0.00
-0.03
-0.05
-0.05
0.00
0.13
0.36
0.66
1.01
1.37
1.72
2.06
2.40
2.79
3.24
3.80
4.42
5.06
5.67
6.21
6.69
7.15
7.67
8.30
9.14
10.10
11.08
11.94
12.62
13.13
13.63
14.34
15.42
17.16
19.39
21.86
24.27
26.42
28.34
30.32
32.78
36.07
40.62
46.12
52.05
57.80
62.93
67.44
71.73
76.52
82.39
90.01
98.98
108.51
117.65
125.63
132.26
138.04
144.30
149.94
157.52
167.93
181.34
196.40
209.79
216.73
212.28
193.09
158.66
111.96
57.37
-0.58
-58.90
-116.70
-174.46
-232.82
-291.46
-349.00
-403.13
-452.15
-494.99
-531.23
-560.57
-582.42
-595.86
-599.91
-593.91
-577.31
-549.70
-510.23
-457.77
-391.76
-313.28
-225.70
-134.47
-45.83
34.85
104.09
160.69
205.11
238.52
262.10
276.94
284.22
285.44
282.39
276.65
269.23
260.45
250.10
237.76
223.35
207.34
190.65
174.38
159.40
146.08
134.25
123.33
112.67
101.89
90.94
80.16
70.09
61.20
53.72
47.54
42.22
37.18
31.96
26.36
20.55
14.98
10.00
5.82
2.43
-0.28
-2.49
-4.31
-5.79
-6.93
-7.77
-8.36
-8.76
-9.01
-9.10
-9.04
-8.83
-8.54
-8.26
-8.07
-7.99
-7.96
-7.86
-7.63
-7.26
-6.83
-6.48
-6.30
-6.24
-6.16
-5.86
-5.15
-4.02
-2.64
-1.26
-0.20
0.38
0.45
0.12
-0.44
-1.06
-1.68
-2.24
-2.73
-3.13
-3.38
-3.43
-3.26
-2.86
-2.27
-1.58
-0.87
-0.21
0.36
0.76
0.91
0.76
0.26
-0.55
-1.56
-2.55
-3.32
-3.70
-3.66
-3.29
-2.73
-2.18
-1.69
-1.20
-0.53
0.46
1.80
3.29
4.55
5.24
5.13
4.25
2.82
1.18
-0.39
-1.70
-2.60
-3.00
-2.89
-2.35
-1.66
-1.18
-1.24
-1.91
-2.92
-3.77
-3.98
-3.32
-1.95
-0.31
1.09
1.91
2.13
1.93
1.63
1.45
1.55
1.96
2.70
3.72
4.92
6.07
6.79
6.72
5.61
3.56
1.02
-1.36
-2.97
-3.51
-3.05
-1.97
-0.79
0.05
0.33
0.01
-0.82
-1.99
-3.36
-4.75
-6.01
-7.04
-7.73
-8.09
-8.16
-8.02
-7.73
-7.36
-6.93
-6.47
-5.97
-5.45
-4.91
-4.37
-3.83
-3.30
-2.79
-2.33
-1.96
-1.75
-1.72
-1.85
-1.96
-1.81
-1.17
0.01
1.56
3.12
4.33
4.94
4.97
4.61
4.11
3.59
3.07
2.48
1.76
0.98
0.29
-0.18
-0.35
-0.29
-0.10
0.11
0.28
0.38
0.41
0.37
0.23
0.00
-0.27
-0.52
-0.72
-0.90
-1.14
-1.55
-2.18
-3.00
-3.91
-4.79
-5.47
-5.84
-5.77
-5.18
-4.02
-2.32
-0.25
1.92
3.89
5.40
6.30
6.60
6.40
5.86
5.16
4.40
3.65
2.90
2.16
1.46
0.87
0.45
0.22
0.13
0.05
-0.13
-0.46
-0.93
-1.45
-1.92
-2.33
-2.67
-3.02
-3.41
-3.86
-4.34
-4.78
-5.15
-5.44
-5.66
-5.83
-5.93
-5.84
-5.38
-4.38
-2.79
-0.73
1.50
3.52
5.01
5.84
6.07
5.86
5.41
4.77
3.96
2.97
1.87
0.83
0.05
-0.31
-0.24
0.13
0.61
0.99
1.17
1.13
0.93
0.60
0.16
-0.36
-0.94
-1.49
-1.93
-2.21
-2.37
-2.55
-2.89
-3.46
-4.21
-4.94
-5.38
-5.29
-4.57
-3.29
-1.68
-0.04
1.41
2.51
3.22
3.56
3.61
3.43
3.09
2.61
2.00
1.27
0.43
-0.43
-1.19
-1.74
-2.00
-1.95
-1.68
-1.30
-0.96
-0.82
-0.96
-1.42
-2.13
-2.94
-3.64
-4.04
-4.09
-3.85
-3.52
-3.34
-3.44
-3.81
-4.27
-4.53
-4.31
-3.45
-1.98
-0.13
1.82
3.61
5.08
6.21
7.02
7.47
7.48
6.95
5.87
4.42
2.91
1.69
0.97
0.78
0.95
1.28
1.57
1.76
1.83
1.81
1.67
1.41
1.02
0.54
0.03
-0.45
-0.90
-1.33
-1.79
-2.31
-2.93
-3.63
-4.33
-4.90
-5.11
-4.74
-3.65
-1.90
0.27
2.51
4.48
6.00
7.06
7.72
8.05
8.03
7.62
6.78
5.58
4.19
2.82
1.66
0.81
0.34
0.21
0.37
0.69
1.03
1.22
1.18
0.92
0.56
0.23
0.01
-0.15
-0.38
-0.82
-1.52
-2.42
-3.38
-4.24
-4.85
-5.10
-4.87
-4.13
-2.86
-1.16
0.80
2.81
4.66
6.18
7.27
7.87
7.96
7.57
6.75
5.60
4.27
2.92
1.68
0.66
-0.07
-0.50
-0.62
-0.48
-0.16
0.20
0.45
0.47
0.23
-0.24
-0.80
-1.33
-1.76
-2.10
-2.42
-2.84
-3.42
-4.15
-4.96
-5.73
-6.28
-6.47
-6.19
-5.37
-4.00
-2.14
0.03
2.31
4.41
6.07
7.10
7.43
7.13
6.37
5.36
4.25
3.10
1.94
0.79
-0.24
-0.99
-1.31
-1.18
-0.71
-0.18
0.17
0.20
-0.04
-0.37
-0.64
-0.76
-0.81
-0.94
-1.24
-1.74
-2.35
-2.98
-3.55
-4.04
-4.45
-4.70
-4.62
-4.00
-2.69
-0.69
1.78
4.36
6.62
8.23
9.00
8.92
8.11
6.75
5.07
3.26
1.54
0.06
-1.05
-1.70
-1.90
-1.73
-1.35
-0.95
-0.67
-0.59
-0.67
-0.85
-1.09
-1.39
-1.79
-2.30
-2.86
-3.38
-3.77
-4.06
-4.33
-4.71
-5.20
-5.66
-5.79
-5.30
-4.04
-2.08
0.30
2.72
4.85
6.45
7.41
7.73
7.42
6.58
5.31
3.82
2.31
1.01
0.09
-0.41
-0.53
-0.40
-0.13
0.15
0.36
0.45
0.42
0.28
0.07
-0.13
-0.31
-0.47
-0.67
-1.00
-1.53
-2.27
-3.15
-4.07
-4.86
-5.36
-5.42
-4.91
-3.78
-2.07
0.04
2.28
4.34
5.97
7.01
7.45
7.34
6.76
5.79
4.53
3.15
1.81
0.68
-0.14
-0.69
-1.05
-1.33
-1.58
-1.79
-1.92
-1.94
-1.92
-1.92
-2.01
-2.21
-2.52
-2.89
-3.35
-3.87
-4.48
-5.14
-5.80
-6.37
-6.76
-6.85
-6.52
-5.65
-4.22
-2.33
-0.20
1.88
3.66
4.96
5.74
6.01
5.78
5.10
3.98
2.54
0.94
-0.55
-1.68
-2.26
-2.26
-1.78
-1.06
-0.38
0.05
0.15
-0.05
-0.43
-0.85
-1.20
-1.46
-1.65
-1.88
-2.23
-2.81
-3.65
-4.75
-5.99
-7.17
-7.98
-8.12
-7.36
-5.68
-3.25
-0.37
2.58
5.26
7.42
8.93
9.75
9.86
9.28
8.06
6.34
4.28
2.09
-0.02
-1.76
-2.90
-3.34
-3.13
-2.51
-1.81
-1.39
-1.55
-2.47
-4.03
-6.04
-8.33
-10.86
-13.57
-16.35
-18.94
-21.09
-22.60
-23.09
-22.42
-20.79
-18.72
-16.74
-15.10
-13.68
-12.12
-10.00
-6.52
-1.31
5.36
12.62
19.50
25.42
30.24
34.09
37.17
40.31
44.20
49.07
54.60
60.29
65.71
70.50
74.36
73.01
63.96
48.02
29.12
11.62
-2.08
-11.62
-17.76
-21.60
-24.07
-25.18
-24.83
-23.23
-20.95
-18.66
-16.66
-14.95
-13.45
-12.16
-10.73
-8.95
-6.94
-5.15
-4.11
-4.20
-5.58
-8.14
-11.47
-14.54
-16.31
-16.23
-14.54
-12.13
-10.02
-8.89
-8.86
-9.52
-10.05
-9.77
-8.47
-6.44
-4.30
-2.74
-2.32
-3.51
-6.54
-11.18
-16.78
-22.28
-26.64
-29.06
-29.60
-28.53
-26.60
-24.48
-22.48
-20.43
-17.65
-13.10
-5.53
5.59
19.75
34.83
47.49
54.29
53.28
44.97
32.30
19.21
8.88
2.51
-0.79
-2.78
-4.77
-6.80
-7.99
-7.53
-5.51
-3.03
-1.47
-1.66
-3.37
-5.58
-7.12
-7.32
-6.34
-4.95
-4.07
-4.25
-5.40
-6.89
-7.87
-7.66
-6.04
-3.40
-0.58
1.38
1.60
-0.29
-4.01
-8.58
-12.69
-15.11
-15.22
-13.19
-9.86
-6.40
-3.69
-2.04
-1.21
-0.61
0.27
1.62
3.18
4.49
5.17
5.10
4.50
3.81
3.37
3.33
3.51
3.56
3.13
2.10
0.63
-0.87
-1.97
-2.33
-1.85
-0.65
0.95
2.57
3.86
4.61
4.72
4.24
3.27
2.01
0.59
-0.80
-1.96
-2.71
-2.89
-2.42
-1.40
-0.12
1.05
1.82
2.04
1.87
1.64
1.67
2.20
3.15
4.19
4.87
4.87
4.12
2.87
1.50
0.45
0.03
0.33
1.22
2.47
3.88
5.29
6.59
7.68
8.16
7.77
6.41
4.15
1.21
-2.20
-5.96
-10.04
-14.37
-18.72
-22.58
-25.33
-26.53
-26.04
-24.15
-21.46
-18.59
-15.99
-13.84
-12.06
-10.42
-8.67
-6.53
-3.85
-0.64
2.82
6.09
8.62
10.04
10.18
9.21
7.53
5.70
4.32
3.86
4.57
6.38
8.91
11.57
13.72
14.92
14.96
13.91
11.98
9.39
6.35
3.10
-0.08
-2.92
-5.21
-6.96
-8.30
-9.46
-10.62
-11.83
-12.98
-13.92
-14.50
-14.63
-14.24
-13.34
-11.93
-10.09
-7.89
-5.39
-2.61
0.46
3.80
7.30
10.76
13.96
16.71
18.99
20.88
22.52
23.91
24.84
24.96
23.88
21.45
17.86
13.58
9.21
5.24
1.95
-0.62
-2.55
-3.86
-4.44
-4.15
-2.94
-0.95
1.44
3.76
5.66
7.05
8.05
8.87
9.63
10.19
10.19
9.23
7.08
3.81
-0.15
-4.11
-7.30
-9.05
-9.04
-7.39
-4.69
-1.92
-0.01
0.41
-0.67
-2.64
-4.56
-5.61
-5.43
-4.29
-2.88
-1.99
-2.11
-3.28
-5.13
-7.19
-9.05
-10.58
-11.84
-13.01
-14.18
-15.28
-16.18
-16.71
-16.86
-16.75
-16.57
-16.49
-16.51
-16.49
-16.19
-15.38
-13.96
-11.94
-9.38
-6.29
-2.65
1.58
6.31
11.26
15.94
19.72
22.08
22.77
21.87
19.79
17.09
14.28
11.73
9.60
7.89
6.51
5.32
4.14
2.82
1.25
-0.59
-2.59
-4.54
-6.19
-7.34
-7.88
-7.86
-7.43
-6.80
-6.23
-5.91
-5.92
-6.26
-6.74
-7.14
-7.16
-6.55
-5.14
-2.91
-0.01
3.27
6.53
9.43
11.82
13.78
15.57
17.40
19.24
20.71
21.25
20.36
18.01
14.67
11.16
8.32
6.61
5.99
6.01
6.09
5.76
4.83
3.34
1.43
-0.70
-2.87
-4.88
-6.58
-7.87
-8.84
-9.68
-10.67
-12.00
-13.69
-15.51
-17.10
-18.02
-17.93
-16.64
-14.25
-11.07
-7.57
-4.27
-1.56
0.34
1.45
1.90
1.87
1.54
1.00
0.30
-0.45
-1.11
-1.46
-1.33
-0.63
0.51
1.82
2.89
3.41
3.24
2.52
1.56
0.74
0.27
0.18
0.30
0.43
0.40
0.18
-0.25
-0.89
-1.81
-3.11
-4.78
-6.61
-8.19
-8.97
-8.50
-6.62
-3.59
0.03
3.50
6.18
7.74
8.16
7.72
6.83
5.89
5.22
5.03
5.40
6.26
7.42
8.67
9.87
11.05
12.47
14.41
17.05
20.26
23.60
26.46
28.30
28.87
28.17
26.40
23.79
20.48
16.59
12.24
7.62
2.95
-1.59
-5.89
-9.92
-13.57
-16.70
-19.10
-20.62
-21.26
-21.20
-20.73
-20.11
-19.51
-18.90
-18.11
-16.92
-15.10
-12.50
-9.11
-5.12
-0.91
2.98
6.04
7.95
8.72
8.72
8.50
8.62
9.44
11.01
13.03
14.97
16.18
16.11
14.41
11.07
6.37
0.83
-4.98
-10.60
-15.77
-20.41
-24.42
-27.70
-30.00
-31.09
-30.80
-29.15
-26.27
-22.33
-17.50
-11.94
-5.81
0.59
6.87
12.58
17.36
21.02
23.57
25.25
26.38
27.24
27.97
28.47
28.46
27.61
25.72
22.91
19.64
16.55
14.20
12.79
12.13
11.65
10.76
9.03
6.32
2.76
-1.40
-5.90
-10.49
-14.85
-18.58
-21.19
-22.28
-21.70
-19.68
-16.77
-13.63
-10.78
-8.40
-6.32
-4.16
-1.52
1.76
5.62
9.73
13.66
16.96
19.25
20.25
19.86
18.15
15.36
11.85
7.95
3.93
-0.13
-4.25
-8.46
-12.69
-16.69
-20.12
-22.65
-24.15
-24.75
-24.80
-24.69
-24.74
-25.05
-25.52
-25.89
-25.82
-24.96
-23.07
-20.04
-15.93
-11.02
-5.66
-0.20
5.11
10.20
15.07
19.65
23.74
27.01
29.16
30.04
29.75
28.56
26.83
24.81
22.68
20.50
18.34
16.29
14.51
13.11
12.09
11.34
10.63
9.68
8.24
6.21
3.64
0.68
-2.52
-5.90
-9.57
-13.69
-18.29
-23.18
-27.87
-31.73
-34.16
-34.89
-33.99
-31.90
-29.21
-26.43
-23.91
-21.70
-19.72
-17.77
-15.59
-12.88
-9.32
-4.67
1.15
7.80
14.62
20.70
25.24
27.86
28.71
28.40
27.67
27.04
26.53
25.73
23.97
20.73
15.86
9.66
2.74
-4.26
-10.86
-16.87
-22.28
-27.13
-31.33
-34.62
-36.68
-37.29
-36.40
-34.21
-31.02
-27.18
-22.95
-18.49
-13.95
-9.45
-5.13
-1.14
2.46
5.70
8.74
11.84
15.20
18.87
22.63
25.94
28.15
28.71
27.42
24.53
20.71
16.78
13.48
11.25
10.16
10.03
10.52
11.24
11.87
12.11
11.79
10.81
9.28
7.44
5.74
4.68
4.65
5.81
7.95
10.55
12.87
14.19
13.98
12.01
8.45
3.68
-1.77
-7.36
-12.68
-17.45
-21.57
-25.04
-27.95
-30.30
-31.96
-32.57
-31.62
-28.57
-23.09
-15.22
-5.48
5.16
15.46
24.21
30.51
34.04
35.03
34.12
32.06
29.39
26.35
22.87
18.80
14.12
9.01
3.88
-0.82
-4.77
-7.81
-9.96
-11.31
-11.96
-11.95
-11.35
-10.23
-8.68
-6.79
-4.62
-2.27
0.18
2.59
4.81
6.66
8.01
8.80
9.10
9.00
8.65
8.15
7.51
6.65
5.40
3.61
1.18
-1.84
-5.27
-8.84
-12.36
-15.70
-18.86
-21.86
-24.64
-26.97
-28.57
-29.17
-28.67
-27.21
-25.12
-22.80
-20.53
-18.44
-16.51
-14.66
-12.93
-11.47
-10.49
-10.12
-10.29
-10.68
-10.80
-10.16
-8.46
-5.64
-1.95
2.17
6.18
9.60
12.09
13.54
14.05
13.87
13.28
12.50
11.62
10.59
9.30
7.62
5.49
2.95
0.19
-2.46
-4.51
-5.45
-4.87
-2.68
0.86
5.16
9.50
13.26
16.07
17.85
18.65
18.57
17.68
16.05
13.88
11.46
9.17
7.31
5.99
5.07
4.29
3.45
2.56
1.87
1.65
2.09
3.04
4.08
4.64
4.24
2.71
0.25
-2.69
-5.60
-8.12
-10.06
-11.40
-12.13
-12.24
-11.70
-10.57
-9.04
-7.46
-6.17
-5.43
-5.23
-5.35
-5.51
-5.49
-5.31
-5.23
-5.58
-6.58
-8.18
-10.02
-11.56
-12.33
-12.10
-10.97
-9.31
-7.50
-5.80
-4.23
-2.73
-1.26
0.10
1.21
2.03
2.79
3.89
5.70
8.17
10.76
12.58
12.81
11.18
8.21
4.99
2.72
2.19
3.47
5.96
8.79
11.13
12.50
12.79
12.10
10.64
8.57
6.07
3.33
0.61
-1.81
-3.68
-4.89
-5.50
-5.74
-5.91
-6.28
-6.93
-7.75
-8.40
-8.46
-7.61
-5.73
-3.10
-0.27
2.03
3.12
2.67
0.75
-2.11
-5.14
-7.56
-8.82
-8.73
-7.52
-5.65
-3.67
-1.96
-0.68
0.31
1.26
2.41
3.80
5.24
6.41
6.98
6.76
5.77
4.19
2.30
0.40
-1.25
-2.48
-3.19
-3.36
-3.11
-2.64
-2.18
-1.86
-1.72
-1.60
-1.29
-0.55
0.75
2.62
4.91
7.31
9.41
10.85
11.41
11.20
10.59
10.16
10.48
11.85
14.21
17.10
19.88
21.92
22.78
22.30
20.56
17.80
14.28
10.26
5.93
1.51
-2.79
-6.69
-9.95
-12.42
-14.09
-15.06
-15.53
-15.68
-15.61
-15.31
-14.70
-13.62
-11.97
-9.74
-7.07
-4.20
-1.48
0.72
2.17
2.77
2.66
2.14
1.57
1.24
1.29
1.64
2.06
2.26
2.04
1.39
0.46
-0.48
-1.25
-1.77
-2.12
-2.47
-2.94
-3.54
-4.18
-4.70
-5.00
-5.06
-5.01
-5.00
-5.19
-5.63
-6.35
-7.34
-8.64
-10.33
-12.45
-14.91
-17.42
-19.56
-20.91
-21.24
-20.55
-19.10
-17.23
-15.13
-12.78
-9.94
-6.34
-1.93
3.03
7.98
12.31
15.57
17.61
18.57
18.69
18.16
16.96
15.01
12.27
8.95
5.51
2.52
0.40
-0.69
-0.92
-0.71
-0.44
-0.34
-0.43
-0.49
-0.28
0.39
1.56
3.17
5.04
6.94
8.57
9.67
9.98
9.39
7.94
5.92
3.78
2.13
1.54
2.37
4.65
8.05
11.95
15.62
18.49
20.20
20.65
19.91
18.07
15.24
11.60
7.42
3.12
-0.86
-4.16
-6.69
-8.56
-10.07
-11.49
-12.96
-14.50
-16.03
-17.50
-18.85
-20.08
-21.14
-21.98
-22.53
-22.74
-22.65
-22.31
-21.84
-21.33
-20.75
-20.01
-18.92
-17.24
-14.77
-11.43
-7.29
-2.64
2.10
6.47
10.10
12.74
14.32
14.88
14.51
13.29
11.34
8.83
6.00
3.18
0.67
-1.33
-2.79
-3.85
-4.68
-5.44
-6.20
-6.94
-7.64
-8.20
-8.49
-8.32
-7.48
-5.84
-3.45
-0.49
2.71
5.85
8.71
11.20
13.33
15.12
16.59
17.63
18.19
18.32
18.23
18.31
18.90
20.20
22.04
24.05
25.78
27.01
27.82
28.47
29.11
29.57
29.33
27.77
24.52
19.72
13.95
7.96
2.33
-2.71
-7.25
-11.52
-15.67
-19.71
-23.52
-26.91
-29.78
-32.01
-33.56
-34.34
-34.29
-33.42
-31.80
-29.63
-27.11
-24.34
-21.22
-17.44
-12.65
-6.70
0.16
7.29
13.78
18.83
22.04
23.42
23.34
22.29
20.63
18.57
16.20
13.64
11.04
8.62
6.52
4.75
3.13
1.43
-0.56
-2.89
-5.42
-7.88
-9.95
-11.33
-11.85
-11.43
-10.09
-7.94
-5.16
-1.98
1.28
4.33
6.86
8.65
9.57
9.64
8.98
7.88
6.65
5.65
5.09
4.99
5.17
5.33
5.20
4.69
3.91
3.13
2.59
2.35
2.25
1.96
1.14
-0.35
-2.42
-4.73
-6.86
-8.48
-9.43
-9.81
-9.89
-9.98
-10.35
-11.06
-12.03
-13.07
-13.96
-14.59
-14.96
-15.10
-15.03
-14.68
-13.91
-12.62
-10.84
-8.79
-6.76
-4.97
-3.50
-2.23
-0.95
0.52
2.30
4.42
6.87
9.57
12.28
14.68
16.34
16.93
16.41
15.11
13.66
12.69
12.62
13.42
14.68
15.78
16.12
15.29
13.13
9.75
5.39
0.46
-4.50
-8.98
-12.55
-15.05
-16.55
-17.37
-17.84
-18.21
-18.49
-18.51
-17.99
-16.71
-14.65
-11.97
-8.94
-5.80
-2.69
0.45
3.77
7.48
11.66
16.14
20.50
24.11
26.33
26.72
25.17
21.91
17.44
12.38
7.34
2.81
-0.85
-3.45
-5.00
-5.67
-5.79
-5.78
-5.90
-6.25
-6.65
-6.83
-6.54
-5.74
-4.61
-3.45
-2.59
-2.19
-2.29
-2.84
-3.75
-4.97
-6.52
-8.41
-10.61
-12.99
-15.36
-17.46
-19.07
-19.97
-20.07
-19.38
-17.98
-16.07
-13.84
-11.42
-8.85
-6.00
-2.67
1.35
6.03
11.06
15.86
19.76
22.25
23.18
22.78
21.54
20.00
18.51
17.17
15.88
14.53
13.05
11.48
9.89
8.32
6.71
4.92
2.85
0.47
-2.11
-4.66
-6.94
-8.78
-10.13
-11.04
-11.67
-12.17
-12.69
-13.26
-13.82
-14.19
-14.10
-13.32
-11.70
-9.28
-6.29
-3.08
-0.07
2.46
4.33
5.53
6.14
6.25
5.95
5.29
4.36
3.26
2.15
1.20
0.50
0.00
-0.49
-1.23
-2.42
-4.04
-5.93
-7.80
-9.42
-10.66
-11.52
-12.07
-12.39
-12.50
-12.43
-12.15
-11.67
-10.95
-9.97
-8.69
-7.15
-5.45
-3.74
-2.12
-0.56
1.18
3.40
6.35
10.01
13.96
17.52
19.96
20.86
20.25
18.65
16.80
15.30
14.34
13.67
12.83
11.42
9.37
6.92
4.50
2.41
0.73
-0.73
-2.26
-4.06
-6.12
-8.20
-9.99
-11.27
-12.05
-12.55
-13.08
-13.86
-14.86
-15.75
-15.99
-15.03
-12.48
-8.22
-2.52
4.06
10.64
16.29
20.18
21.92
21.60
19.83
17.50
15.44
14.26
14.17
15.09
16.79
19.01
21.44
23.67
25.20
25.51
24.29
21.50
17.46
12.68
7.67
2.86
-1.56
-5.49
-8.92
-11.81
-14.12
-15.82
-16.94
-17.61
-18.02
-18.40
-18.89
-19.56
-20.29
-20.83
-20.83
-19.87
-17.64
-14.03
-9.34
-4.25
0.29
3.38
4.51
3.77
1.78
-0.64
-2.79
-4.36
-5.40
-6.06
-6.42
-6.38
-5.77
-4.59
-3.11
-1.80
-1.17
-1.47
-2.64
-4.33
-6.05
-7.35
-7.92
-7.72
-6.89
-5.69
-4.43
-3.27
-2.16
-0.84
1.08
3.87
7.56
11.86
16.25
20.19
23.19
24.86
24.91
23.25
20.07
16.04
12.10
9.15
7.60
7.16
6.92
5.97
3.87
0.92
-2.05
-4.18
-5.10
-4.98
-4.34
-3.66
-3.08
-2.52
-1.86
-1.25
-1.04
-1.62
-3.23
-5.78
-8.84
-11.85
-14.27
-15.72
-16.12
-15.58
-14.41
-12.99
-11.63
-10.52
-9.68
-8.95
-8.05
-6.72
-4.74
-2.06
1.23
4.87
8.46
11.57
13.73
14.63
14.21
12.70
10.57
8.31
6.31
4.60
2.96
0.99
-1.64
-4.98
-8.82
-12.77
-16.39
-19.41
-21.71
-23.28
-24.13
-24.26
-23.63
-22.28
-20.37
-18.17
-15.93
-13.80
-11.80
-9.75
-7.49
-4.89
-1.94
1.25
4.57
7.93
11.31
14.65
17.86
20.78
23.18
24.88
25.72
25.66
24.74
23.06
20.77
18.11
15.35
12.85
10.97
10.03
10.20
11.42
13.44
15.79
17.93
19.28
19.38
17.94
14.90
10.53
5.32
0.03
-4.63
-8.14
-10.37
-11.60
-12.36
-13.17
-14.40
-16.15
-18.32
-20.78
-23.35
-25.80
-27.83
-29.01
-28.90
-27.24
-24.05
-19.67
-14.61
-9.36
-4.19
0.87
5.91
10.95
15.82
20.14
23.39
25.20
25.49
24.49
22.65
20.45
18.12
15.69
12.97
9.84
6.32
2.64
-0.89
-4.03
-6.69
-8.94
-10.81
-12.23
-12.97
-12.77
-11.48
-9.16
-6.09
-2.64
0.87
4.19
7.17
9.65
11.47
12.48
12.67
12.20
11.45
10.80
10.50
10.42
10.18
9.19
6.95
3.33
-1.39
-6.45
-10.92
-13.93
-15.06
-14.43
-12.70
-10.69
-9.11
-8.26
-8.04
-8.15
-8.34
-8.57
-9.01
-9.79
-10.91
-12.13
-13.17
-13.80
-14.00
-13.84
-13.40
-12.66
-11.48
-9.73
-7.38
-4.52
-1.32
2.03
5.40
8.61
11.47
13.72
15.16
15.72
15.51
14.81
13.93
13.03
12.10
10.98
9.48
7.54
5.22
2.74
0.39
-1.59
-3.05
-3.95
-4.37
-4.43
-4.27
-3.99
-3.68
-3.37
-3.10
-2.92
-2.90
-3.09
-3.53
-4.18
-5.03
-6.03
-7.15
-8.35
-9.51
-10.42
-10.84
-10.51
-9.32
-7.33
-4.77
-1.94
0.92
3.70
6.37
8.91
11.19
12.98
14.00
14.15
13.58
12.65
11.78
11.23
11.01
10.89
10.61
10.02
9.21
8.37
7.66
7.07
6.43
5.45
3.90
1.76
-0.84
-3.58
-6.19
-8.47
-10.39
-11.99
-13.36
-14.51
-15.37
-15.80
-15.66
-14.87
-13.46
-11.51
-9.15
-6.47
-3.53
-0.40
2.81
5.89
8.58
10.62
11.85
12.25
11.98
11.32
10.58
10.00
9.79
10.03
10.73
11.73
12.72
13.29
13.07
11.87
9.82
7.29
4.79
2.67
1.01
-0.34
-1.67
-3.22
-5.04
-7.00
-8.88
-10.45
-11.57
-12.14
-12.17
-11.69
-10.85
-9.82
-8.85
-8.15
-7.80
-7.68
-7.50
-6.86
-5.40
-2.95
0.41
4.29
8.09
11.14
12.95
13.31
12.41
10.66
8.57
6.51
4.60
2.78
0.94
-0.89
-2.53
-3.76
-4.43
-4.64
-4.63
-4.65
-4.80
-5.04
-5.25
-5.33
-5.35
-5.46
-5.80
-6.47
-7.38
-8.40
-9.30
-9.88
-9.94
-9.31
-7.88
-5.63
-2.72
0.49
3.48
5.70
6.70
6.36
4.93
3.05
1.51
0.96
1.67
3.40
5.53
7.32
8.27
8.21
7.35
6.03
4.57
3.14
1.80
0.58
-0.45
-1.14
-1.38
-1.11
-0.43
0.46
1.37
2.17
2.86
3.47
4.05
4.54
4.84
4.84
4.49
3.88
3.17
2.52
1.96
1.33
0.37
-1.20
-3.46
-6.24
-9.10
-11.49
-12.94
-13.22
-12.44
-10.94
-9.10
-7.22
-5.36
-3.47
-1.46
0.63
2.61
4.22
5.20
5.45
5.01
4.08
2.92
1.79
0.87
0.26
-0.05
-0.16
-0.22
-0.36
-0.67
-1.22
-2.01
-3.06
-4.34
-5.75
-7.12
-8.19
-8.73
-8.60
-7.84
-6.67
-5.41
-4.43
-3.98
-4.11
-4.69
-5.43
-5.93
-5.83
-4.89
-3.04
-0.40
2.71
5.88
8.66
10.67
11.66
11.61
10.66
9.18
7.60
6.32
5.52
5.19
5.09
4.90
4.42
3.61
2.61
1.68
1.03
0.73
0.72
0.85
0.97
0.97
0.83
0.54
0.13
-0.38
-0.96
-1.59
-2.29
-3.09
-4.02
-5.10
-6.28
-7.51
-8.68
-9.74
-10.58
-11.07
-11.01
-10.19
-8.47
-5.88
-2.70
0.62
3.55
5.73
7.03
7.67
8.03
8.53
9.42
10.66
12.00
13.01
13.35
12.86
11.66
10.03
8.36
6.96
6.00
5.48
5.34
5.47
5.75
6.10
6.42
6.55
6.35
5.65
4.41
2.68
0.68
-1.34
-3.16
-4.71
-6.09
-7.48
-9.02
-10.65
-12.10
-12.95
-12.85
-11.67
-9.57
-6.91
-4.06
-1.34
1.10
3.10
4.43
4.86
4.20
2.55
0.33
-1.81
-3.22
-3.55
-2.82
-1.42
0.12
1.42
2.30
2.85
3.23
3.58
3.82
3.68
2.78
0.86
-2.12
-5.85
-9.74
-13.19
-15.77
-17.45
-18.53
-19.46
-20.52
-21.74
-22.77
-23.11
-22.25
-19.84
-15.73
-10.02
-3.04
4.58
11.98
18.20
22.49
24.63
25.10
24.90
25.03
26.01
27.54
28.65
28.16
25.30
20.18
13.70
7.25
2.12
-0.81
-1.27
0.51
3.86
7.93
11.88
15.03
17.06
17.94
17.85
16.92
15.10
12.10
7.58
1.58
-5.39
-12.41
-18.52
-23.02
-25.62
-26.47
-26.16
-25.31
-24.10
-22.16
-18.73
-13.16
-5.30
4.36
14.60
23.60
29.61
32.15
32.08
31.11
30.79
31.78
33.72
35.48
35.02
30.42
21.26
8.44
-6.04
-19.40
-28.20
-28.66
-18.03
2.88
28.81
51.80
63.19
56.84
31.26
-10.04
-59.45
-104.15
-132.35
-141.13
-136.65
-128.36
-122.54
-120.50
-119.84
-116.14
-104.75
-83.26
-55.05
-22.23
11.11
40.17
60.98
71.95
74.46
71.79
66.76
60.76
54.69
49.10
44.35
41.53
41.41
44.01
48.41
52.55
54.09
51.74
45.44
36.51
27.19
19.72
15.70
15.78
19.49
25.57
32.79
39.63
44.32
44.92
39.99
29.49
15.21
0.21
-12.56
-21.48
-27.21
-32.51
-41.34
-57.72
-84.53
-122.10
-167.23
-213.08
-250.06
-268.40
-261.14
-226.62
-169.34
-98.58
-25.54
39.83
90.99
125.51
144.52
151.43
150.54
145.62
139.16
132.10
124.40
115.69
106.02
95.96
86.27
77.39
69.25
61.36
53.25
44.90
36.42
27.98
19.62
11.46
3.71
-3.32
-9.32
-14.13
-17.68
-20.48
-23.37
-26.92
-30.78
-33.71
-34.13
-30.99
-24.50
-15.78
-7.24
-1.57
-0.45
-3.51
-8.51
-12.30
-12.03
-6.19
5.45
20.88
36.71
49.52
57.24
59.45
56.92
50.97
39.24
22.72
4.94
-10.57
-22.05
-29.00
-31.48
-30.16
-26.43
-22.20
-18.75
-17.08
-17.63
-19.95
-22.74
-24.62
-24.87
-23.72
-22.02
-20.58
-19.78
-19.98
-21.16
-22.73
-23.97
-24.30
-23.42
-21.18
-17.30
-11.73
-4.55
2.90
9.30
13.63
15.24
13.95
10.11
4.63
-1.31
-6.60
-10.31
-11.86
-11.36
-9.67
-8.16
-8.08
-10.42
-15.61
-23.52
-33.25
-43.25
-51.58
-56.38
-56.37
-51.63
-43.64
-34.80
-27.69
-24.02
-24.36
-27.79
-31.97
-33.77
-30.54
-21.01
-5.53
13.78
33.87
51.33
63.59
70.03
72.06
72.20
73.03
76.35
82.53
90.70
98.14
101.17
96.84
84.24
64.55
40.77
16.76
-6.49
-24.57
-33.72
-34.13
-29.31
-22.64
-16.71
-13.21
-12.94
-15.72
-21.13
-28.04
-35.34
-41.95
-46.53
-48.32
-47.26
-43.90
-38.99
-32.97
-26.41
-19.88
-13.43
-6.06
2.93
13.23
23.61
32.62
39.27
43.22
44.79
45.08
46.36
50.38
57.54
66.90
76.96
86.11
92.94
96.31
90.69
74.04
49.52
23.71
2.16
-12.96
-22.75
-30.10
-38.02
-48.22
-60.29
-73.10
-85.91
-99.05
-110.85
-120.22
-125.85
-126.15
-119.63
-105.09
-83.03
-56.23
-28.94
-5.21
12.06
22.06
25.61
24.30
20.14
14.86
9.93
6.78
6.95
11.37
19.81
30.47
40.41
46.83
48.12
44.49
37.85
30.96
25.88
23.29
22.36
21.58
19.83
16.82
12.94
8.65
4.26
-0.15
-4.20
-7.05
-7.57
-5.04
0.31
7.04
13.04
16.35
15.95
12.14
6.30
0.23
-4.49
-7.01
-7.27
-5.95
-4.02
-2.37
-1.41
-1.09
-1.03
-0.90
-0.62
-0.37
-0.36
-0.64
-0.93
-0.70
0.72
3.83
8.77
15.26
22.62
29.90
36.22
40.88
43.47
43.74
41.39
36.01
27.22
15.00
0.07
-15.97
-30.88
-42.35
-48.67
-49.16
-44.28
-35.41
-24.53
-13.75
-4.92
0.81
3.19
2.92
1.31
-0.33
-1.16
-1.13
-0.80
-0.86
-1.74
-3.44
-5.69
-8.11
-10.44
-12.37
-13.53
-13.42
-11.63
-8.08
-3.12
2.51
7.93
12.43
15.55
17.10
17.07
15.57
12.76
8.94
4.49
-0.20
-4.86
-9.33
-13.52
-17.33
-20.54
-22.79
-23.78
-23.33
-21.55
-18.74
-15.24
-11.22
-6.61
-1.16
5.34
12.79
20.74
28.49
35.36
40.81
44.40
45.52
43.36
37.14
26.63
12.69
-2.65
-16.81
-27.53
-33.77
-35.96
-35.55
-34.10
-32.57
-31.11
-29.42
-27.40
-25.56
-24.84
-26.06
-29.28
-33.50
-36.97
-37.93
-35.39
-29.52
-21.63
-13.59
-7.20
-3.76
-3.77
-6.87
-11.89
-16.94
-19.81
-18.51
-11.97
-0.45
14.53
30.69
45.68
57.74
65.84
69.62
69.22
65.19
58.51
50.43
42.21
34.63
27.77
21.13
14.13
6.64
-0.79
-7.15
-11.51
-13.50
-13.53
-12.49
-11.38
-10.89
-11.25
-12.35
-13.91
-15.73
-17.73
-20.00
-22.71
-26.14
-30.48
-35.75
-41.65
-47.47
-52.24
-54.97
-54.92
-51.81
-45.72
-37.07
-26.47
-14.80
-3.17
7.12
14.97
19.82
22.00
22.60
22.97
23.99
25.65
27.11
27.26
25.43
21.80
17.26
12.86
9.25
6.44
4.05
1.78
-0.17
-1.09
-0.14
3.15
8.52
15.06
21.53
26.86
30.44
32.17
32.32
31.17
28.85
25.29
20.43
14.37
7.59
0.94
-4.55
-7.95
-8.74
-7.04
-3.53
0.74
4.72
7.72
9.49
10.15
10.01
9.26
7.97
6.11
3.64
0.66
-2.58
-5.78
-8.70
-11.28
-13.61
-15.92
-18.42
-21.31
-24.70
-28.64
-33.09
-37.96
-42.96
-47.65
-51.35
-53.26
-52.60
-48.74
-41.50
-31.17
-18.58
-5.07
7.67
17.86
23.99
25.14
21.26
13.32
3.21
-6.61
-13.76
-16.58
-14.58
-8.44
0.23
9.48
17.47
22.89
25.11
24.16
20.68
15.70
10.49
6.27
3.98
4.07
6.42
10.42
15.19
19.83
23.58
25.90
26.57
25.67
23.52
20.53
17.06
13.32
9.36
