1660927629.00
64.000000
-0.00
-0.00
-0.00
-0.00
-0.00
-0.00
-0.00
-0.00
-0.00
-0.00
0.00
0.01
0.01
-0.00
-0.03
-0.05
-0.05
0.00
0.13
0.36
0.66
1.01
1.37
1.72
2.06
2.40
2.79
3.25
3.81
4.44
5.09
5.73
6.32
6.90
7.53
8.27
9.15
10.25
11.45
12.65
13.72
14.66
15.55
16.57
17.93
19.76
22.25
25.17
28.23
31.18
33.90
36.50
39.36
42.88
47.35
53.06
59.61
66.46
73.09
79.29
85.25
91.57
98.92
107.70
118.25
129.87
141.74
153.11
163.68
173.84
184.42
196.73
209.18
223.60
240.21
258.99
278.95
297.70
311.49
316.06
308.01
285.98
251.63
208.18
159.71
109.73
60.48
12.97
-32.42
-75.43
-115.82
-153.29
-188.54
-222.94
-258.08
-294.90
-332.66
-368.53
-398.02
-416.53
-420.92
-411.02
-389.73
-361.86
-332.26
-304.14
-278.52
-254.85
-232.17
-210.06
-189.02
-169.89
-153.10
-138.36
-124.75
-111.31
-97.54
-83.60
-70.15
-58.00
-47.68
-39.22
-32.18
-25.85
-19.59
-13.07
-6.39
0.02
5.61
9.99
13.12
15.31
17.05
18.80
20.74
22.76
24.55
25.78
26.33
26.30
25.94
25.50
25.15
24.91
24.70
24.41
23.98
23.41
22.76
22.07
21.41
20.78
20.20
19.64
19.10
18.57
18.05
17.57
17.18
16.88
16.64
16.37
15.98
15.40
14.68
13.89
13.13
12.53
12.11
11.88
11.79
11.78
11.76
11.67
11.48
11.20
10.89
10.60
10.35
10.08
9.76
9.33
8.83
8.33
7.91
7.59
7.35
7.15
6.96
6.75
6.53
6.33
6.14
5.97
5.80
5.63
5.44
5.20
4.89
4.53
4.17
3.86
3.63
3.45
3.24
2.92
2.48
1.97
1.51
1.15
0.85
0.52
0.05
-0.60
-1.40
-2.21
-2.93
-3.50
-3.96
-4.39
-4.86
-5.38
-5.91
-6.37
-6.74
-7.03
-7.28
-7.50
-7.68
-7.76
-7.72
-7.57
-7.37
-7.17
-7.04
-6.94
-6.84
-6.63
-6.25
-5.66
-4.88
-4.01
-3.17
-2.49
-2.05
-1.83
-1.76
-1.71
-1.59
-1.33
-0.96
-0.53
-0.13
0.18
0.39
0.55
0.71
0.94
1.23
1.55
1.82
1.99
2.03
1.99
1.95
2.00
2.20
2.54
3.00
3.51
3.99
4.36
4.58
4.62
4.53
4.36
4.20
4.08
4.04
4.07
4.17
4.33
4.52
4.68
4.76
4.70
4.53
4.27
4.03
3.87
3.82
3.81
3.79
3.69
3.51
3.33
3.21
3.20
3.30
3.41
3.43
3.31
3.05
2.75
2.51
2.38
2.33
2.30
2.21
2.08
1.97
1.96
2.06
2.22
2.34
2.35
2.25
2.10
1.98
1.93
1.91
1.88
1.78
1.60
1.39
1.22
1.12
1.14
1.27
1.48
1.73
1.95
2.08
2.05
1.87
1.59
1.31
1.10
1.00
0.96
0.95
0.93
0.91
0.95
1.08
1.29
1.48
1.56
1.46
1.20
0.92
0.75
0.78
0.98
1.25
1.42
1.41
1.18
0.81
0.41
0.08
-0.10
-0.10
0.08
0.40
0.80
1.19
1.51
1.68
1.72
1.65
1.52
1.40
1.32
1.28
1.24
1.17
1.04
0.85
0.65
0.51
0.50
0.64
0.90
1.18
1.35
1.33
1.10
0.78
0.52
0.48
0.68
1.04
1.39
1.54
1.40
0.99
0.46
-0.02
-0.32
-0.40
-0.29
-0.07
0.21
0.49
0.76
0.98
1.14
1.21
1.22
1.18
1.09
0.95
0.76
0.53
0.32
0.19
0.13
0.12
0.09
0.01
-0.08
-0.12
-0.04
0.21
0.54
0.85
1.02
0.98
0.76
0.45
0.16
-0.02
-0.04
0.09
0.31
0.53
0.67
0.65
0.49
0.23
0.01
-0.05
0.10
0.47
0.94
1.35
1.56
1.53
1.30
0.97
0.65
0.40
0.22
0.10
0.03
0.03
0.15
0.39
0.72
1.02
1.18
1.13
0.88
0.52
0.16
-0.11
-0.25
-0.28
-0.27
-0.29
-0.38
-0.52
-0.67
-0.75
-0.67
-0.40
0.06
0.65
1.24
1.72
1.95
1.90
1.56
1.03
0.44
-0.07
-0.38
-0.46
-0.34
-0.14
0.04
0.11
0.07
0.00
-0.01
0.11
0.33
0.58
0.73
0.73
0.59
0.39
0.24
0.22
0.35
0.55
0.72
0.78
0.68
0.49
0.28
0.15
0.13
0.20
0.25
0.22
0.08
-0.10
-0.22
-0.22
-0.09
0.06
0.12
0.02
-0.22
-0.54
-0.81
-0.95
-0.91
-0.71
-0.42
-0.10
0.16
0.32
0.36
0.28
0.13
-0.05
-0.17
-0.21
-0.13
0.03
0.25
0.51
0.76
0.98
1.15
1.24
1.21
1.07
0.80
0.47
0.14
-0.11
-0.23
-0.19
-0.05
0.12
0.27
0.35
0.37
0.36
0.31
0.24
0.13
-0.02
-0.18
-0.28
-0.26
-0.10
0.17
0.46
0.67
0.72
0.59
0.29
-0.10
-0.49
-0.81
-1.01
-1.05
-0.93
-0.70
-0.39
-0.10
0.11
0.21
0.22
0.20
0.19
0.22
0.28
0.33
0.35
0.36
0.41
0.52
0.65
0.76
0.78
0.67
0.47
0.26
0.10
0.02
0.01
0.04
0.09
0.12
0.14
0.15
0.15
0.14
0.11
0.06
-0.04
-0.17
-0.31
-0.41
-0.39
-0.24
0.01
0.27
0.47
0.54
0.47
0.31
0.15
0.09
0.17
0.42
0.76
1.08
1.27
1.29
1.15
0.96
0.83
0.85
1.05
1.36
1.68
1.89
1.92
1.74
1.36
0.84
0.28
-0.24
-0.63
-0.88
-1.00
-1.07
-1.16
-1.30
-1.47
-1.63
-1.71
-1.71
-1.62
-1.47
-1.26
-1.00
-0.70
-0.40
-0.18
-0.11
-0.23
-0.50
-0.82
-1.05
-1.07
-0.85
-0.43
0.10
0.59
0.96
1.11
1.05
0.85
0.58
0.34
0.17
0.05
-0.07
-0.23
-0.47
-0.75
-1.01
-1.15
-1.11
-0.88
-0.50
-0.05
0.38
0.73
0.98
1.14
1.24
1.31
1.34
1.31
1.18
0.97
0.74
0.58
0.54
0.58
0.62
0.56
0.37
0.09
-0.19
-0.38
-0.46
-0.47
-0.46
-0.48
-0.53
-0.55
-0.52
-0.41
-0.26
-0.07
0.12
0.32
0.50
0.62
0.66
0.58
0.41
0.18
-0.11
-0.42
-0.73
-1.02
-1.23
-1.33
-1.34
-1.29
-1.21
-1.13
-1.03
-0.90
-0.73
-0.58
-0.51
-0.56
-0.67
-0.78
-0.79
-0.65
-0.35
0.03
0.43
0.78
1.01
1.10
1.06
0.94
0.86
0.88
1.05
1.32
1.61
1.83
1.95
1.98
1.94
1.84
1.64
1.28
0.77
0.13
-0.52
-1.09
-1.50
-1.71
-1.73
-1.57
-1.29
-0.96
-0.64
-0.43
-0.39
-0.57
-0.95
-1.47
-2.00
-2.44
-2.71
-2.82
-2.86
-2.94
-3.16
-3.52
-3.93
-4.29
-4.51
-4.59
-4.65
-4.86
-5.41
-6.42
-7.85
-9.49
-10.98
-11.93
-12.11
-11.61
-10.90
-10.72
-11.75
-14.27
-17.92
-21.79
-24.75
-25.99
-25.41
-23.83
-22.62
-23.12
-26.02
-30.94
-36.54
-41.09
-43.19
-42.41
-39.57
-36.42
-35.16
-37.44
-43.46
-51.35
-57.10
-55.10
-39.47
-5.93
46.04
111.80
181.66
242.97
283.53
295.19
276.26
231.68
171.11
105.84
45.74
-2.63
-36.47
-56.06
-63.63
-62.34
-55.62
-46.81
-38.73
-33.33
-31.39
-32.48
-35.28
-37.93
-38.82
-37.16
-33.22
-28.18
-23.57
-20.58
-19.63
-20.28
-21.45
-22.03
-21.24
-19.00
-15.81
-12.55
-10.09
-8.98
-9.15
-10.07
-10.99
-11.25
-10.56
-9.10
-7.36
-5.89
-5.02
-4.79
-4.92
-5.06
-4.92
-4.41
-3.57
-2.58
-1.62
-0.87
-0.43
-0.34
-0.57
-1.03
-1.58
-2.10
-2.51
-2.77
-2.90
-2.95
-2.95
-2.93
-2.92
-2.95
-3.06
-3.25
-3.48
-3.68
-3.78
-3.73
-3.52
-3.19
-2.86
-2.65
-2.69
-3.03
-3.64
-4.36
-4.97
-5.28
-5.19
-4.69
-3.88
-2.88
-1.79
-0.69
0.36
1.28
1.98
2.41
2.54
2.42
2.12
1.70
1.23
0.73
0.25
-0.15
-0.40
-0.46
-0.33
-0.06
0.29
0.64
0.99
1.30
1.59
1.83
1.98
2.00
1.93
1.87
2.01
2.50
3.37
4.46
5.50
6.24
6.52
6.37
5.96
5.50
5.14
4.92
4.81
4.75
4.69
4.61
4.54
4.47
4.41
4.33
4.25
4.16
4.09
4.07
4.11
4.22
4.42
4.67
4.95
5.24
5.47
5.64
5.73
5.76
5.76
5.81
5.97
6.27
6.70
7.17
7.49
7.43
6.80
5.54
3.84
2.05
0.56
-0.40
-0.89
-1.25
-1.92
-3.17
-4.90
-6.74
-8.17
-8.85
-8.78
-8.24
-7.62
-7.21
-7.08
-7.13
-7.23
-7.26
-7.13
-6.70
-5.81
-4.31
-2.27
0.03
2.08
3.39
3.64
2.87
1.36
-0.42
-2.07
-3.30
-4.03
-4.27
-4.15
-3.83
-3.44
-3.10
-2.85
-2.70
-2.64
-2.67
-2.75
-2.84
-2.81
-2.58
-2.12
-1.51
-0.98
-0.69
-0.73
-1.02
-1.32
-1.42
-1.19
-0.64
0.08
0.79
1.38
1.78
2.00
2.08
2.07
1.98
1.84
1.66
1.45
1.21
0.98
0.79
0.65
0.58
0.49
0.32
-0.01
-0.51
-1.09
-1.62
-1.98
-2.09
-1.97
-1.73
-1.46
-1.24
-1.06
-0.87
-0.64
-0.35
-0.03
0.25
0.47
0.61
0.65
0.61
0.47
0.25
0.01
-0.16
-0.17
0.02
0.37
0.78
1.13
1.35
1.40
1.30
1.08
0.80
0.47
0.14
-0.20
-0.51
-0.81
-1.09
-1.34
-1.53
-1.62
-1.57
-1.37
-1.09
-0.82
-0.63
-0.54
-0.50
-0.43
-0.30
-0.13
-0.00
0.03
-0.05
-0.14
-0.15
-0.01
0.26
0.57
0.82
0.98
1.09
1.23
1.45
1.70
1.86
1.82
1.52
1.01
0.45
-0.03
-0.31
-0.39
-0.32
-0.19
-0.08
-0.01
0.02
0.05
0.12
0.19
0.23
0.19
0.03
-0.22
-0.46
-0.61
-0.60
-0.46
-0.25
-0.08
-0.02
-0.06
-0.16
-0.28
-0.37
-0.45
-0.57
-0.69
-0.78
-0.73
-0.52
-0.17
0.19
0.42
0.49
0.42
0.36
0.38
0.48
0.55
0.45
0.14
-0.30
-0.68
-0.82
-0.63
-0.20
0.27
0.59
0.68
0.60
0.50
0.50
0.59
0.69
0.68
0.47
0.11
-0.28
-0.59
-0.76
-0.79
-0.75
-0.71
-0.69
-0.68
-0.65
-0.60
-0.56
-0.57
-0.67
-0.83
-0.98
-1.05
-0.99
-0.78
-0.51
-0.27
-0.13
-0.11
-0.16
-0.21
-0.25
-0.29
-0.38
-0.54
-0.78
-1.04
-1.28
-1.43
-1.45
-1.29
-0.92
-0.31
0.50
1.42
2.31
3.02
3.48
3.63
3.48
3.08
2.50
1.81
1.10
0.47
-0.01
-0.30
-0.40
-0.34
-0.16
0.08
0.38
0.72
1.11
1.51
1.87
2.08
2.05
1.73
1.19
0.53
-0.08
-0.51
-0.73
-0.78
-0.76
-0.76
-0.88
-1.18
-1.66
-2.26
-2.83
-3.16
-3.08
-2.56
-1.72
-0.84
-0.22
-0.01
-0.18
-0.57
-0.92
-1.08
-1.04
-0.84
-0.59
-0.32
-0.05
0.25
0.55
0.79
0.92
0.93
0.86
0.83
0.93
1.22
1.69
2.27
2.86
3.35
3.64
3.66
3.38
2.84
2.10
1.25
0.41
-0.35
-1.00
-1.50
-1.86
-2.08
-2.14
-2.07
-1.89
-1.69
-1.54
-1.47
-1.47
-1.44
-1.29
-0.94
-0.40
0.20
0.70
0.95
0.89
0.58
0.12
-0.36
-0.76
-1.07
-1.29
-1.47
-1.62
-1.72
-1.76
-1.72
-1.60
-1.39
-1.15
-0.91
-0.67
-0.46
-0.27
-0.10
0.06
0.21
0.34
0.42
0.47
0.55
0.69
0.94
1.27
1.60
1.84
1.93
1.86
1.68
1.45
1.20
0.94
0.65
0.33
0.01
-0.25
-0.41
-0.46
-0.44
-0.38
-0.31
-0.23
-0.15
-0.01
0.17
0.35
0.45
0.42
0.21
-0.10
-0.42
-0.61
-0.59
-0.38
-0.03
0.30
0.50
0.53
0.43
0.31
0.28
0.37
0.53
0.67
0.70
0.63
0.54
0.53
0.66
0.89
1.06
1.01
0.65
0.05
-0.63
-1.20
-1.53
-1.56
-1.34
-0.96
-0.49
0.00
0.43
0.75
0.91
0.86
0.62
0.26
-0.10
-0.36
-0.43
-0.31
-0.07
0.19
0.35
0.39
0.33
0.23
0.14
0.07
0.00
-0.07
-0.14
-0.17
-0.13
-0.04
0.06
0.13
0.15
0.14
0.11
0.09
0.06
0.00
-0.08
-0.20
-0.32
-0.47
-0.66
-0.90
-1.18
-1.41
-1.50
-1.36
-0.97
-0.42
0.16
0.57
0.71
0.56
0.23
-0.11
-0.31
-0.28
-0.07
0.21
0.46
0.62
0.71
0.80
0.90
1.00
1.04
0.96
0.75
0.45
0.18
0.01
-0.01
0.08
0.20
0.26
0.19
0.01
-0.22
-0.43
-0.55
-0.58
-0.56
-0.53
-0.56
-0.65
-0.81
-0.99
-1.08
-1.00
-0.71
-0.24
0.26
0.62
0.69
0.45
-0.03
-0.56
-0.99
-1.22
-1.24
-1.09
-0.82
-0.45
-0.04
0.37
0.69
0.84
0.81
0.65
0.45
0.32
0.30
0.38
0.50
0.60
0.61
0.52
0.37
0.19
0.04
-0.05
-0.04
0.06
0.24
0.41
0.46
0.32
-0.03
-0.51
-0.96
-1.23
-1.26
-1.07
-0.78
-0.53
-0.42
-0.47
-0.63
-0.85
-1.07
-1.28
-1.48
-1.68
-1.88
-2.07
-2.24
-2.40
-2.55
-2.71
-2.92
-3.22
-3.63
-4.14
-4.68
-5.17
-5.55
-5.81
-6.03
-6.31
-6.75
-7.41
-8.25
-9.20
-10.14
-10.97
-11.61
-11.99
-12.09
-11.86
-11.29
-10.37
-9.09
-7.46
-5.48
-3.22
-0.75
1.78
4.21
6.37
8.13
9.44
10.30
10.77
10.94
10.94
10.85
10.72
10.57
10.38
10.11
9.76
9.34
8.88
8.44
8.02
7.60
7.11
6.49
5.73
4.89
4.10
3.49
3.15
3.05
3.08
3.06
2.88
2.54
2.12
1.75
1.46
1.22
0.95
0.59
0.14
-0.28
-0.55
-0.61
-0.50
-0.36
-0.32
-0.43
-0.64
-0.79
-0.73
-0.45
-0.01
0.41
0.63
0.61
0.43
0.30
0.37
0.72
1.25
1.81
2.19
2.31
2.19
1.93
1.66
1.51
1.51
1.63
1.79
1.87
1.79
1.49
1.01
0.43
-0.13
-0.63
-1.11
-1.68
-2.45
-3.48
-4.69
-5.94
-7.01
-7.71
-7.96
-7.83
-7.53
-7.40
-7.77
-8.88
-10.72
-12.93
-14.90
-15.86
-15.23
-12.82
-8.95
-4.37
0.03
3.50
5.67
6.61
6.71
6.39
5.98
5.59
5.13
4.38
3.03
0.79
-2.59
-7.18
-12.83
-19.20
-25.87
-32.50
-38.87
-44.90
-50.49
-55.52
-59.88
-63.64
-67.07
-70.70
-75.09
-80.50
-86.82
-93.61
-100.32
-106.57
-112.33
-117.82
-123.44
-129.69
-137.12
-146.41
-158.03
-171.69
-185.82
-197.40
-202.52
-197.60
-180.54
-151.40
-111.98
-65.04
-13.45
39.92
91.86
138.53
175.83
200.54
211.61
210.87
202.45
191.31
181.49
175.12
172.40
172.36
173.82
176.00
178.55
181.43
184.58
187.87
191.12
194.14
196.77
199.06
201.06
202.76
203.93
204.10
202.79
199.99
196.46
193.57
192.53
193.36
194.20
191.55
181.36
160.54
127.90
84.47
33.04
-22.48
-77.60
-127.60
-168.11
-195.89
-209.73
-210.94
-202.94
-190.09
-176.24
-163.72
-153.23
-144.49
-136.98
-130.31
-124.17
-118.04
-111.11
-102.52
-91.89
-79.56
-66.54
-54.21
-43.73
-35.64
-29.82
-25.61
-22.24
-19.05
-15.74
-12.29
-8.86
-5.64
-2.76
-0.23
2.05
4.25
6.54
8.95
11.40
13.60
15.21
15.98
15.94
15.50
15.35
16.23
18.58
22.28
26.62
30.61
33.44
34.80
35.09
35.13
35.82
37.83
41.55
47.03
53.79
60.55
65.04
64.52
56.82
41.54
20.74
-1.60
-21.12
-34.82
-42.09
-44.45
-44.37
-43.82
-43.49
-43.08
-42.10
-40.56
-39.08
-38.47
-39.04
-40.34
-41.36
-41.12
-39.05
-35.37
-30.87
-26.57
-23.26
-21.23
-20.23
-19.68
-18.95
-17.67
-15.89
-13.95
-12.30
-11.25
-10.82
-10.71
-10.44
-9.61
-8.07
-6.02
-3.91
-2.22
-1.24
-0.99
-1.18
-1.42
-1.38
-0.93
-0.13
0.80
1.67
2.32
2.75
3.00
3.12
3.12
3.00
2.73
2.33
1.92
1.60
1.47
1.49
1.52
1.36
0.88
0.08
-0.86
-1.70
-2.19
-2.28
-2.05
-1.72
-1.50
-1.48
-1.63
-1.84
-2.01
-2.11
-2.16
-2.19
-2.18
-2.06
-1.78
-1.32
-0.75
-0.21
0.19
0.39
0.37
0.18
-0.14
-0.57
-1.11
-1.75
-2.45
-3.13
-3.66
-3.95
-3.94
-3.67
-3.25
-2.84
-2.58
-2.51
-2.56
-2.55
-2.35
-1.88
-1.18
-0.35
0.52
1.42
2.37
3.37
4.34
5.13
5.55
5.47
4.91
4.00
2.92
1.86
0.96
0.29
-0.12
-0.31
-0.38
-0.46
-0.64
-0.96
-1.35
-1.68
-1.78
-1.58
-1.09
-0.39
0.38
1.11
1.70
2.12
2.36
2.42
2.37
2.28
2.26
2.38
2.71
3.21
3.83
4.45
4.92
5.05
4.66
3.67
2.15
0.37
-1.30
-2.48
-2.96
-2.76
-2.09
-1.25
-0.46
0.16
0.56
0.74
0.65
0.24
-0.48
-1.43
-2.46
-3.42
-4.18
-4.71
-5.05
-5.23
-5.29
-5.23
-5.10
-4.90
-4.66
-4.38
-4.02
-3.55
-2.96
-2.30
-1.63
-0.95
-0.24
0.59
1.60
2.75
3.88
4.76
5.14
4.88
4.01
2.73
1.35
0.17
-0.58
-0.81
-0.58
-0.03
0.64
1.24
1.62
1.71
1.51
1.06
0.45
-0.20
-0.77
-1.16
-1.29
-1.15
-0.82
-0.44
-0.19
-0.15
-0.33
-0.62
-0.86
-0.92
-0.79
-0.54
-0.32
-0.19
-0.17
-0.17
-0.08
0.18
0.64
1.24
1.86
2.38
2.74
2.90
2.90
2.77
2.53
2.16
1.66
1.04
0.37
-0.25
-0.76
-1.14
-1.45
-1.78
-2.12
-2.43
-2.56
-2.48
-2.21
-1.92
-1.78
-1.91
-2.32
-2.85
-3.35
-3.69
-3.83
-3.85
-3.85
-3.91
-4.08
-4.31
-4.55
-4.75
-4.86
-4.84
-4.66
-4.24
-3.53
-2.50
-1.20
0.24
1.62
2.75
3.53
3.96
4.20
4.46
4.95
5.77
6.84
8.00
8.98
9.54
9.52
8.84
7.58
5.88
3.96
2.07
0.45
-0.76
-1.47
-1.74
-1.65
-1.29
-0.78
-0.23
0.24
0.52
0.58
0.48
0.33
0.23
0.22
0.25
0.26
0.21
0.17
0.26
0.58
1.15
1.83
2.42
2.69
2.49
1.82
0.78
-0.41
-1.55
-2.47
-3.08
-3.35
-3.32
-3.03
-2.55
-1.98
-1.46
-1.12
-1.02
-1.13
-1.33
-1.47
-1.46
-1.32
-1.16
-1.08
-1.14
-1.33
-1.59
-1.88
-2.15
-2.42
-2.66
-2.86
-2.97
-2.99
-2.94
-2.84
-2.70
-2.47
-2.13
-1.62
-0.93
-0.06
0.91
1.89
2.73
3.25
3.33
2.94
2.20
1.36
0.68
0.40
0.62
1.28
2.21
3.17
3.94
4.35
4.33
3.89
3.12
2.18
1.23
0.46
-0.03
-0.22
-0.18
-0.04
0.08
0.11
0.02
-0.12
-0.24
-0.28
-0.21
-0.03
0.20
0.44
0.64
0.78
0.82
0.76
0.64
0.53
0.47
0.50
0.60
0.68
0.65
0.43
-0.00
-0.62
-1.32
-2.02
-2.58
-2.92
-2.95
-2.66
-2.11
-1.44
-0.80
-0.33
-0.07
-0.02
-0.08
-0.18
-0.29
-0.44
-0.70
-1.12
-1.67
-2.29
-2.84
-3.21
-3.32
-3.15
-2.77
-2.28
-1.77
-1.27
-0.77
-0.22
0.36
0.92
1.31
1.39
1.09
0.48
-0.24
-0.85
-1.19
-1.23
-1.06
-0.80
-0.57
-0.38
-0.20
-0.01
0.16
0.26
0.25
0.14
-0.00
-0.06
0.04
0.30
0.66
1.09
1.57
2.07
2.59
3.01
3.23
3.16
2.83
2.34
1.84
1.45
1.16
0.93
0.72
0.55
0.48
0.58
0.86
1.18
1.42
1.48
1.40
1.28
1.26
1.37
1.55
1.69
1.68
1.54
1.33
1.17
1.10
1.09
1.09
1.01
0.86
0.65
0.42
0.14
-0.26
-0.85
-1.60
-2.39
-3.03
-3.37
-3.34
-3.00
-2.52
-2.09
-1.87
-1.93
-2.29
-2.89
-3.62
-4.26
-4.57
-4.26
-3.18
-1.35
0.98
3.35
5.26
6.29
6.25
5.17
3.30
1.02
-1.29
-3.28
-4.71
-5.43
-5.38
-4.66
-3.48
-2.18
-1.08
-0.45
-0.39
-0.77
-1.35
-1.78
-1.82
-1.32
-0.32
1.02
2.46
3.81
4.90
5.65
6.07
6.16
5.97
5.55
4.96
4.29
3.62
3.04
2.59
2.27
2.06
1.95
1.87
1.77
1.61
1.32
0.85
0.18
-0.68
-1.67
-2.69
-3.60
-4.27
-4.55
-4.41
-3.91
-3.21
-2.52
-2.03
-1.81
-1.83
-1.96
-2.05
-2.02
-1.84
-1.57
-1.28
-1.07
-1.02
-1.14
-1.39
-1.66
-1.81
-1.72
-1.34
-0.72
-0.00
0.64
1.09
1.31
1.40
1.51
1.81
2.34
3.03
3.69
4.09
4.06
3.56
2.67
1.55
0.37
-0.75
-1.70
-2.40
-2.79
-2.86
-2.67
-2.38
-2.13
-2.05
-2.15
-2.35
-2.46
-2.32
-1.82
-1.02
-0.08
0.79
1.39
1.62
1.53
1.26
1.02
0.98
1.16
1.52
1.89
2.17
2.29
2.25
2.09
1.86
1.55
1.20
0.87
0.67
0.72
1.07
1.65
2.26
2.67
2.69
2.29
1.57
0.76
0.02
-0.56
-0.98
-1.34
-1.68
-1.98
-2.18
-2.21
-2.08
-1.87
-1.67
-1.56
-1.58
-1.67
-1.76
-1.81
-1.80
-1.80
-1.87
-2.06
-2.31
-2.53
-2.62
-2.51
-2.25
-1.95
-1.74
-1.68
-1.72
-1.72
-1.53
-1.03
-0.22
0.80
1.91
2.96
3.79
4.32
4.46
4.18
3.52
2.58
1.50
0.42
-0.51
-1.20
-1.57
-1.61
-1.32
-0.79
-0.17
0.39
0.71
0.73
0.48
0.12
-0.18
-0.26
-0.08
0.29
0.71
1.00
1.08
0.96
0.72
0.49
0.36
0.40
0.63
1.03
1.57
2.20
2.89
3.56
4.12
4.46
4.47
4.10
3.35
2.31
1.14
-0.01
-1.04
-1.92
-2.68
-3.39
-4.06
-4.62
-4.92
-4.85
-4.36
-3.57
-2.66
-1.84
-1.27
-0.95
-0.84
-0.83
-0.83
-0.83
-0.86
-0.95
-1.08
-1.23
-1.35
-1.42
-1.44
-1.46
-1.47
-1.44
-1.27
-0.87
-0.22
0.61
1.49
2.30
2.91
3.27
3.40
3.28
2.95
2.41
1.70
0.91
0.13
-0.50
-0.88
-0.95
-0.70
-0.22
0.35
0.84
1.12
1.15
0.97
0.73
0.54
0.46
0.44
0.39
0.23
-0.01
-0.27
-0.43
-0.42
-0.29
-0.09
0.10
0.27
0.45
0.68
0.94
1.17
1.30
1.30
1.23
1.20
1.28
1.46
1.64
1.68
1.45
0.98
0.34
-0.33
-0.93
-1.42
-1.84
-2.21
-2.55
-2.79
-2.84
-2.64
-2.17
-1.50
-0.80
-0.24
0.05
0.03
-0.22
-0.58
-0.92
-1.16
-1.28
-1.35
-1.40
-1.49
-1.60
-1.70
-1.71
-1.60
-1.35
-0.99
-0.59
-0.19
0.17
0.51
0.81
1.08
1.25
1.25
1.06
0.70
0.26
-0.14
-0.44
-0.66
-0.90
-1.27
-1.80
-2.41
-2.96
-3.27
-3.20
-2.75
-2.05
-1.31
-0.77
-0.60
-0.87
-1.51
-2.36
-3.23
-3.95
-4.44
-4.68
-4.67
-4.39
-3.83
-3.01
-2.05
-1.11
-0.38
0.01
0.11
0.10
0.20
0.62
1.47
2.73
4.33
6.12
7.93
9.55
10.74
11.32
11.18
10.36
9.03
7.45
5.86
4.38
3.01
1.68
0.34
-0.95
-2.03
-2.75
-2.99
-2.81
-2.39
-1.93
-1.59
-1.37
-1.16
-0.83
-0.30
0.37
1.03
1.49
1.65
1.49
1.11
0.67
0.31
0.14
0.15
0.30
0.53
0.80
1.10
1.48
1.96
2.54
3.11
3.50
3.47
2.81
1.49
-0.37
-2.48
-4.47
-6.03
-7.00
-7.38
-7.24
-6.65
-5.66
-4.33
-2.81
-1.29
-0.02
0.85
1.29
1.44
1.48
1.55
1.71
1.88
1.95
1.84
1.53
1.12
0.77
0.61
0.69
0.95
1.23
1.38
1.28
0.99
0.65
0.39
0.30
0.38
0.55
0.78
1.11
1.58
2.21
2.85
3.28
3.25
2.63
1.54
0.25
-0.88
-1.60
-1.83
-1.65
-1.28
-0.93
-0.76
-0.80
-1.00
-1.29
-1.58
-1.84
-2.10
-2.35
-2.60
-2.83
-2.99
-3.09
-3.17
-3.32
-3.60
-4.01
-4.42
-4.69
-4.63
-4.17
-3.34
-2.21
-0.87
0.60
2.09
3.44
4.42
4.82
4.55
3.72
2.59
1.51
0.74
0.39
0.42
0.69
1.07
1.46
1.81
2.08
2.23
2.22
2.07
1.84
1.60
1.44
1.35
1.31
1.30
1.29
1.29
1.29
1.25
1.11
0.83
0.41
-0.08
-0.53
-0.83
-0.93
-0.83
-0.56
-0.20
0.19
0.51
0.71
0.77
0.75
0.74
0.86
1.09
1.33
1.41
1.17
0.56
-0.30
-1.20
-1.89
-2.24
-2.23
-1.99
-1.69
-1.47
-1.41
-1.52
-1.75
-2.01
-2.22
-2.32
-2.24
-1.99
-1.63
-1.23
-0.89
-0.65
-0.51
-0.45
-0.39
-0.31
-0.21
-0.13
-0.11
-0.15
-0.24
-0.33
-0.36
-0.25
0.06
0.65
1.45
2.34
3.07
3.40
3.18
2.43
1.29
0.02
-1.15
-2.06
-2.62
-2.82
-2.68
-2.25
-1.61
-0.89
-0.22
0.34
0.74
1.02
1.24
1.44
1.65
1.90
2.17
2.46
2.73
2.94
3.02
2.96
2.78
2.52
2.24
1.99
1.77
1.57
1.37
1.22
1.14
1.20
1.41
1.67
1.86
1.79
1.38
0.65
-0.26
-1.17
-1.93
-2.53
-3.01
-3.43
-3.75
-3.88
-3.70
-3.20
-2.50
-1.81
-1.36
-1.24
-1.44
-1.84
-2.27
-2.62
-2.80
-2.81
-2.65
-2.37
-2.01
-1.66
-1.38
-1.20
-1.16
-1.20
-1.25
-1.22
-1.01
-0.59
0.04
0.78
1.54
2.24
2.82
3.29
3.65
3.86
3.85
3.53
2.88
1.91
0.74
-0.48
-1.61
-2.51
-3.10
-3.34
-3.25
-2.89
-2.37
-1.81
-1.30
-0.90
-0.58
-0.28
0.04
0.37
0.71
1.00
1.24
1.41
1.54
1.66
1.77
1.86
1.94
1.96
1.90
1.76
1.52
1.25
1.02
0.89
0.87
0.93
1.00
1.03
1.01
1.02
1.11
1.29
1.47
1.54
1.41
1.08
0.64
0.20
-0.12
-0.27
-0.27
-0.19
-0.10
-0.06
-0.14
-0.35
-0.71
-1.18
-1.68
-2.10
-2.34
-2.37
-2.22
-2.01
-1.82
-1.72
-1.72
-1.78
-1.91
-2.08
-2.28
-2.46
-2.51
-2.37
-2.02
-1.54
-1.07
-0.69
-0.40
-0.05
0.50
1.34
2.38
3.42
4.23
4.61
4.50
3.92
2.93
1.62
0.11
-1.44
-2.78
-3.66
-3.89
-3.45
-2.48
-1.31
-0.27
0.39
0.56
0.32
-0.17
-0.71
-1.13
-1.31
-1.21
-0.82
-0.20
0.59
1.42
2.19
2.80
3.21
3.38
3.35
3.16
2.87
2.54
2.21
1.89
1.58
1.28
0.99
0.77
0.66
0.73
0.97
1.32
1.65
1.81
1.68
1.23
0.51
-0.37
-1.29
-2.11
-2.75
-3.11
-3.16
-2.92
-2.51
-2.05
-1.68
-1.45
-1.36
-1.36
-1.44
-1.60
-1.87
-2.23
-2.60
-2.87
-2.95
-2.87
-2.74
-2.67
-2.71
-2.78
-2.75
-2.47
-1.90
-1.10
-0.17
0.79
1.75
2.70
3.64
4.53
5.28
5.76
5.84
5.45
4.62
3.46
2.13
0.82
-0.33
-1.22
-1.81
-2.12
-2.16
-2.02
-1.78
-1.54
-1.38
-1.31
-1.32
-1.34
-1.29
-1.14
-0.88
-0.53
-0.12
0.31
0.69
0.97
1.12
1.16
1.13
1.09
1.07
1.06
1.05
1.05
1.11
1.32
1.72
2.26
2.81
3.21
3.35
3.24
2.94
2.53
2.01
1.37
0.59
-0.25
-1.02
-1.55
-1.77
-1.74
-1.61
-1.54
-1.64
-1.87
-2.15
-2.35
-2.39
-2.31
-2.13
-1.94
-1.75
-1.55
-1.36
-1.20
-1.13
-1.19
-1.42
-1.75
-2.09
-2.37
-2.49
-2.44
-2.20
-1.79
-1.24
-0.62
-0.04
0.39
0.61
0.69
0.77
1.01
1.51
2.22
2.94
3.43
3.50
3.10
2.37
1.52
0.79
0.31
0.14
0.25
0.56
0.98
1.40
1.71
1.83
1.69
1.34
0.87
0.40
0.02
-0.26
-0.47
-0.61
-0.69
-0.66
-0.52
-0.31
-0.16
-0.17
-0.41
-0.83
-1.29
-1.60
-1.62
-1.30
-0.67
0.15
1.02
1.80
2.37
2.67
2.70
2.49
2.09
1.56
0.94
0.28
-0.38
-0.95
-1.37
-1.56
-1.51
-1.25
-0.86
-0.45
-0.11
0.09
0.14
0.05
-0.12
-0.30
-0.42
-0.45
-0.37
-0.24
-0.11
-0.08
-0.22
-0.56
-1.03
-1.47
-1.74
-1.71
-1.37
-0.85
-0.35
-0.02
0.07
-0.02
-0.15
-0.15
0.08
0.58
1.29
2.09
2.78
3.13
2.96
2.23
1.07
-0.24
-1.40
-2.17
-2.48
-2.43
-2.17
-1.86
-1.60
-1.45
-1.41
-1.52
-1.76
-2.11
-2.48
-2.75
-2.85
-2.72
-2.38
-1.88
-1.28
-0.65
-0.06
0.44
0.78
0.98
1.05
1.08
1.17
1.33
1.57
1.81
1.97
1.99
1.86
1.63
1.41
1.30
1.39
1.65
1.98
2.21
2.19
1.86
1.33
0.74
0.25
-0.07
-0.29
-0.52
-0.81
-1.16
-1.44
-1.58
-1.51
-1.29
-0.99
-0.67
-0.39
-0.16
-0.01
-0.01
-0.20
-0.57
-1.04
-1.45
-1.71
-1.75
-1.63
-1.46
-1.34
-1.32
-1.36
-1.36
-1.25
-1.01
-0.68
-0.42
-0.35
-0.56
-1.01
-1.55
-1.91
-1.84
-1.20
-0.04
1.40
2.75
3.67
3.91
3.49
2.59
1.54
0.62
0.03
-0.19
-0.10
0.19
0.61
1.08
1.56
1.95
2.18
2.14
1.79
1.20
0.52
-0.03
-0.31
-0.24
0.14
0.69
1.29
1.80
2.15
2.32
2.28
2.05
1.69
1.30
1.02
0.95
1.14
1.52
1.97
2.36
2.58
2.59
2.36
1.90
1.23
0.43
-0.40
-1.13
-1.66
-1.93
-1.99
-1.95
-1.94
-2.04
-2.27
-2.56
-2.83
-2.99
-3.01
-2.90
-2.66
-2.33
-1.96
-1.58
-1.24
-0.98
-0.83
-0.80
-0.87
-0.99
-1.09
-1.11
-1.02
-0.81
-0.53
-0.24
-0.00
0.15
0.18
0.08
-0.15
-0.51
-0.92
-1.24
-1.32
-1.06
-0.48
0.28
0.99
1.40
1.43
1.07
0.49
-0.12
-0.56
-0.70
-0.50
-0.00
0.65
1.27
1.71
1.86
1.73
1.39
0.95
0.47
0.02
-0.39
-0.73
-0.94
-1.01
-0.93
-0.74
-0.46
-0.13
0.23
0.59
0.89
1.04
1.02
0.85
0.65
0.56
0.68
1.04
1.57
2.14
2.61
2.86
2.81
2.44
1.80
1.02
0.23
-0.46
-1.01
-1.39
-1.60
-1.60
-1.33
-0.82
-0.19
0.33
0.48
0.14
-0.65
-1.66
-2.60
-3.25
-3.54
-3.54
-3.36
-3.09
-2.76
-2.35
-1.88
-1.41
-1.03
-0.79
-0.65
-0.50
-0.22
0.25
0.88
1.50
1.96
2.12
2.02
1.77
1.59
1.62
1.95
2.47
3.00
3.33
3.29
2.88
2.19
1.39
0.64
0.01
-0.55
-1.06
-1.53
-1.87
-1.96
-1.77
-1.33
-0.80
-0.36
-0.14
-0.17
-0.37
-0.65
-0.89
-1.03
-1.00
-0.79
-0.39
0.11
0.56
0.83
0.85
0.64
0.33
0.06
-0.06
0.01
0.29
0.77
1.43
2.20
2.98
3.59
3.88
3.73
3.15
2.23
1.16
0.11
-0.76
-1.35
-1.63
-1.61
-1.37
-1.04
-0.72
-0.49
-0.39
-0.45
-0.63
-0.95
-1.36
-1.81
-2.24
-2.57
-2.75
-2.78
-2.71
-2.58
-2.44
-2.28
-2.12
-1.93
-1.74
-1.55
-1.37
-1.19
-0.98
-0.67
-0.24
0.31
0.92
1.54
2.06
2.46
2.72
2.88
2.98
2.99
2.85
2.46
1.78
0.86
-0.15
-1.06
-1.71
-2.01
-1.99
-1.74
-1.38
-0.97
-0.57
-0.21
0.08
0.28
0.36
0.35
0.28
0.16
0.04
-0.07
-0.15
-0.16
-0.05
0.18
0.52
0.92
1.27
1.51
1.59
1.52
1.35
1.16
1.02
0.99
1.08
1.30
1.61
1.97
2.31
2.56
2.62
2.43
1.96
1.25
0.39
-0.46
-1.18
-1.65
-1.88
-1.91
-1.85
-1.79
-1.75
-1.68
-1.51
-1.22
-0.88
-0.62
-0.62
-0.91
-1.41
-1.95
-2.33
-2.46
-2.36
-2.16
-1.98
-1.88
-1.84
-1.82
-1.77
-1.68
-1.62
-1.62
-1.66
-1.67
-1.54
-1.20
-0.60
0.19
1.05
1.85
2.50
2.96
3.23
3.28
3.10
2.65
1.93
1.05
0.18
-0.48
-0.76
-0.67
-0.30
0.17
0.55
0.77
0.84
0.85
0.86
0.91
0.96
0.97
0.93
0.87
0.87
0.96
1.12
1.28
1.38
1.36
1.25
1.11
1.01
1.02
1.17
1.43
1.79
2.16
2.45
2.60
2.56
2.37
2.10
1.79
1.46
1.09
0.66
0.21
-0.14
-0.28
-0.10
0.37
0.99
1.56
1.87
1.80
1.31
0.46
-0.64
-1.86
-3.05
-4.03
-4.67
-4.91
-4.77
-4.35
-3.78
-3.18
-2.61
-2.12
-1.69
-1.35
-1.08
-0.92
-0.88
-0.97
-1.20
-1.53
-1.90
-2.21
-2.39
-2.41
-2.30
-2.14
-2.00
-1.91
-1.86
-1.80
-1.72
-1.65
-1.66
-1.81
-2.14
-2.59
-3.08
-3.52
-3.91
-4.25
-4.59
-4.92
-5.19
-5.35
-5.40
-5.39
-5.40
-5.47
-5.53
-5.40
-4.95
-4.12
-3.04
-1.95
-1.08
-0.55
-0.32
-0.27
-0.30
-0.32
-0.29
-0.15
0.26
1.03
2.14
3.29
4.01
3.85
2.54
0.21
-2.71
-5.54
-7.55
-8.14
-6.97
-4.10
-0.04
4.30
7.85
9.74
9.70
8.09
5.81
3.86
2.90
3.06
4.00
5.18
6.21
6.97
7.53
8.03
8.45
8.62
8.33
7.44
6.02
4.35
2.80
1.65
1.01
0.78
0.73
0.69
0.59
0.52
0.62
0.95
1.45
1.96
2.30
2.36
2.15
1.76
1.25
0.69
0.09
-0.53
-1.12
-1.62
-1.98
-2.16
-2.15
-1.94
-1.54
-0.98
-0.33
0.30
0.79
1.06
1.10
0.97
0.75
0.47
0.13
-0.29
-0.81
-1.33
-1.76
-1.96
-1.87
-1.51
-0.92
-0.23
0.44
0.99
1.33
1.42
1.27
0.98
0.63
0.33
0.13
0.05
0.05
0.12
0.22
0.33
0.40
0.35
0.11
-0.33
-0.85
-1.32
-1.56
-1.50
-1.19
-0.79
-0.48
-0.40
-0.58
-0.92
-1.32
-1.65
-1.89
-2.05
-2.24
-2.56
-3.08
-3.82
-4.71
-5.66
-6.52
-7.22
-7.71
-8.05
-8.38
-8.87
-9.71
-11.00
-12.69
-14.61
-16.49
-18.08
-19.29
-20.25
-21.31
-22.86
-25.23
-28.44
-32.23
-36.06
-39.39
-41.83
-43.35
-44.35
-45.57
-47.75
-51.40
-56.43
-62.23
-67.84
-72.43
-75.72
-78.16
-80.80
-84.91
-91.45
-100.68
-111.84
-123.05
-131.31
-132.96
-124.54
-103.91
-71.32
-29.65
16.21
60.94
100.45
132.77
157.97
177.12
191.17
200.42
204.79
204.46
200.45
194.55
188.70
184.41
182.46
183.06
185.96
190.27
194.00
194.08
187.16
170.80
144.59
110.40
71.70
32.26
-4.74
-37.12
-63.36
-82.28
-93.17
-96.19
-92.82
-85.70
-77.77
-71.27
-67.05
-64.66
-63.05
-61.33
-59.06
-56.32
-53.34
-50.40
-47.69
-45.24
-42.99
-40.83
-38.62
-36.20
-33.53
-30.65
-27.70
-24.86
-22.26
-19.98
-18.01
-16.29
-14.71
-13.18
-11.61
-9.96
-8.23
-6.47
-4.81
-3.40
-2.36
-1.72
-1.39
-1.17
-0.86
-0.30
0.53
1.53
2.54
3.39
3.97
4.23
4.14
3.74
3.06
2.19
1.26
0.40
-0.27
-0.71
-0.93
-1.02
-1.07
-1.18
-1.35
-1.57
-1.77
-1.91
-1.91
-1.77
-1.50
-1.18
-0.87
-0.64
-0.53
-0.52
-0.58
-0.69
-0.81
-0.95
-1.11
-1.26
-1.38
-1.48
-1.59
-1.72
-1.87
-1.99
-1.96
-1.69
-1.11
-0.30
0.62
1.45
2.04
2.34
2.40
2.38
2.41
2.58
2.86
3.14
3.24
3.03
2.41
1.40
0.09
-1.38
-2.84
-4.12
-5.07
-5.59
-5.65
-5.28
-4.57
-3.68
-2.76
-1.94
-1.34
-0.98
-0.83
-0.79
-0.79
-0.75
-0.68
-0.61
-0.62
-0.74
-0.99
-1.33
-1.66
-1.90
-1.98
-1.86
-1.57
-1.17
-0.74
-0.34
-0.03
0.16
0.24
0.24
0.19
0.14
0.12
0.11
0.07
-0.05
-0.28
-0.58
-0.87
-1.05
-1.07
-0.94
-0.73
-0.52
-0.34
-0.21
-0.07
0.10
0.28
0.43
0.50
0.48
0.38
0.22
0.07
-0.04
-0.12
-0.16
-0.17
-0.17
-0.13
-0.07
-0.00
0.05
0.06
-0.00
-0.13
-0.26
-0.32
-0.24
0.02
0.45
0.96
1.42
1.71
1.71
1.40
0.85
0.19
-0.37
-0.73
-0.82
-0.72
-0.54
-0.37
-0.28
-0.25
-0.22
-0.15
-0.03
0.10
0.20
0.21
0.15
0.04
-0.04
-0.03
0.12
0.39
0.73
1.06
1.29
1.36
1.24
0.93
0.45
-0.11
-0.69
-1.19
-1.52
-1.62
-1.50
-1.20
-0.79
-0.36
-0.02
0.18
0.22
0.14
0.01
-0.08
-0.09
0.01
0.17
0.33
0.46
0.53
0.55
0.53
0.47
0.38
0.22
0.04
-0.13
-0.24
-0.30
-0.35
-0.45
-0.62
-0.83
-0.99
-0.99
-0.79
-0.45
-0.08
0.20
0.38
0.48
0.61
0.79
1.00
1.09
0.95
0.54
-0.05
-0.63
-1.01
-1.11
-0.98
-0.76
-0.59
-0.55
-0.62
-0.68
-0.63
-0.43
-0.10
0.27
0.60
0.81
0.90
0.87
0.77
0.62
0.42
0.17
-0.12
-0.43
-0.72
-0.97
-1.16
-1.29
-1.39
-1.46
-1.48
-1.43
-1.29
-1.07
-0.77
-0.43
-0.07
0.31
0.69
1.05
1.35
1.53
1.57
1.45
1.24
1.00
0.77
0.55
0.31
0.02
-0.27
-0.48
-0.50
-0.29
0.08
0.43
0.59
0.45
0.08
-0.38
-0.73
-0.85
-0.72
-0.42
-0.05
0.32
0.64
0.89
1.07
1.12
1.04
0.82
0.54
0.24
-0.02
-0.24
-0.42
-0.59
-0.74
-0.84
-0.88
-0.89
-0.90
-0.97
-1.08
-1.18
-1.20
-1.13
-1.00
-0.93
-0.99
-1.19
-1.41
-1.52
-1.42
-1.11
-0.72
-0.41
-0.29
-0.37
-0.60
-0.87
-1.10
-1.24
-1.27
-1.14
-0.83
-0.31
0.36
1.09
1.73
2.16
2.31
2.21
1.95
1.68
1.51
1.53
1.71
1.98
2.21
2.29
2.12
1.71
1.12
0.48
-0.06
-0.41
-0.55
-0.51
-0.34
-0.11
0.12
0.30
0.39
0.34
0.17
-0.06
-0.23
-0.27
-0.11
0.20
0.58
0.90
1.06
1.03
0.79
0.39
-0.06
-0.45
-0.70
-0.76
-0.64
-0.41
-0.16
0.05
0.23
0.38
0.50
0.54
0.47
0.28
0.01
-0.21
-0.28
-0.13
0.18
0.53
0.76
0.78
0.59
0.29
0.01
-0.14
-0.13
-0.04
0.03
0.01
-0.13
-0.33
-0.49
-0.52
-0.36
-0.05
0.33
0.63
0.71
0.53
0.12
-0.39
-0.83
-1.11
-1.20
-1.17
-1.09
-1.02
-0.97
-0.92
-0.80
-0.60
-0.32
0.03
0.40
0.72
0.90
0.90
0.72
0.44
0.18
0.05
0.08
0.21
0.33
0.35
0.22
-0.01
-0.27
-0.48
-0.59
-0.60
-0.52
-0.38
-0.22
-0.06
0.05
0.11
0.11
0.09
0.06
0.05
0.06
0.08
0.12
0.19
0.29
0.41
0.50
0.49
0.35
0.11
-0.12
-0.24
-0.16
0.08
0.35
0.50
0.42
0.11
-0.31
-0.68
-0.89
-0.93
-0.83
-0.68
-0.51
-0.33
-0.12
0.08
0.20
0.20
0.05
-0.15
-0.30
-0.30
-0.17
0.01
0.13
0.12
0.00
-0.14
-0.22
-0.22
-0.18
-0.15
-0.17
-0.20
-0.21
-0.18
-0.15
-0.19
-0.33
-0.51
-0.63
-0.55
-0.21
0.31
0.84
1.16
1.13
0.75
0.16
-0.42
-0.82
-0.96
-0.88
-0.69
-0.52
-0.41
-0.36
-0.29
-0.15
0.05
0.27
0.38
0.35
0.20
0.03
-0.04
0.06
0.28
0.48
0.55
0.41
0.14
-0.13
-0.24
-0.14
0.10
0.34
0.43
0.36
0.20
0.10
0.17
0.42
0.77
1.05
1.16
1.06
0.84
0.61
0.47
0.45
0.49
0.53
0.49
0.37
0.18
-0.01
-0.18
-0.29
-0.36
-0.41
-0.46
-0.52
-0.57
-0.59
-0.57
-0.48
-0.34
-0.18
-0.03
0.08
0.16
0.21
0.26
0.29
0.30
0.24
0.11
-0.07
-0.24
-0.32
-0.28
-0.13
0.06
0.20
0.23
0.17
0.06
-0.03
-0.07
-0.07
-0.05
-0.04
-0.03
0.01
0.13
0.31
0.48
0.52
0.38
0.08
-0.29
-0.59
-0.73
-0.71
-0.59
-0.50
-0.51
-0.63
-0.83
-1.02
-1.14
-1.15
-1.05
-0.87
-0.65
-0.44
-0.26
-0.14
-0.08
-0.05
-0.05
-0.05
-0.03
0.00
0.03
0.02
-0.04
-0.14
-0.21
-0.19
-0.02
0.28
0.62
0.90
1.05
1.06
0.96
0.82
0.71
0.67
0.74
0.91
1.13
1.32
1.41
1.30
0.99
0.58
0.20
-0.00
0.01
0.19
0.40
0.52
0.44
0.18
-0.20
-0.63
-1.00
-1.26
-1.36
-1.30
-1.11
-0.84
-0.58
-0.37
-0.26
-0.22
-0.23
-0.22
-0.18
-0.08
0.04
0.17
0.29
0.36
0.38
0.35
0.30
0.26
0.21
0.14
0.02
-0.17
-0.37
-0.52
-0.54
-0.39
-0.11
0.23
0.55
0.78
0.90
0.95
0.93
0.89
0.83
0.73
0.58
0.36
0.10
-0.19
-0.47
-0.70
-0.86
-0.94
-0.97
-0.97
-0.94
-0.87
-0.75
-0.60
-0.44
-0.34
-0.33
-0.39
-0.48
-0.52
-0.44
-0.23
0.11
0.49
0.84
1.10
1.22
1.22
1.13
1.00
0.86
0.72
0.59
0.46
0.33
0.19
0.08
0.00
-0.02
0.02
0.10
0.20
0.27
0.31
0.30
0.25
0.18
0.10
0.04
0.01
0.04
0.13
0.26
0.37
0.42
0.38
0.29
0.20
0.15
0.13
0.10
-0.02
-0.23
-0.49
-0.67
-0.66
-0.45
-0.13
0.15
0.23
0.06
-0.29
-0.68
-0.94
-0.99
-0.83
-0.58
-0.36
-0.29
-0.40
-0.63
-0.86
-0.99
-0.93
-0.72
-0.41
-0.11
0.10
0.19
0.17
0.07
-0.11
-0.32
-0.55
-0.72
-0.75
-0.57
-0.21
0.25
0.63
0.78
0.64
0.27
-0.15
-0.43
-0.43
-0.16
0.22
0.52
0.61
0.49
0.25
0.08
0.07
0.23
0.45
0.61
0.65
0.58
0.47
0.37
0.28
0.17
-0.00
-0.21
-0.38
-0.45
-0.38
-0.23
-0.05
0.09
0.14
0.11
0.04
-0.06
-0.17
-0.30
-0.39
-0.42
-0.37
-0.24
-0.07
0.11
0.24
0.31
0.30
0.24
0.14
0.03
-0.07
-0.14
-0.16
-0.14
-0.05
0.08
0.25
0.40
0.48
0.43
0.25
-0.02
-0.27
-0.42
-0.41
-0.25
0.00
0.25
0.39
0.37
0.19
-0.09
-0.39
-0.60
-0.68
-0.61
-0.46
-0.31
-0.23
-0.23
-0.28
-0.31
-0.29
-0.23
-0.16
-0.13
-0.14
-0.15
-0.08
0.10
0.38
0.67
0.88
0.94
0.87
0.71
0.55
0.42
0.32
0.23
0.11
-0.03
-0.16
-0.24
-0.28
-0.27
-0.25
-0.21
-0.12
0.05
0.28
0.50
0.62
0.57
0.37
0.10
-0.13
-0.24
-0.23
-0.14
0.00
0.16
0.32
0.47
0.57
0.58
0.48
0.29
0.07
-0.09
-0.15
-0.12
-0.05
-0.01
-0.04
-0.19
-0.45
-0.79
-1.16
-1.48
-1.64
-1.60
-1.34
-0.91
-0.44
-0.05
0.16
0.19
0.08
-0.04
-0.07
0.01
0.17
0.32
0.31
0.07
-0.39
-0.98
-1.55
-1.97
-2.21
-2.32
-2.36
-2.42
-2.48
-2.51
-2.46
-2.33
-2.22
-2.28
-2.64
-3.36
-4.34
-5.40
-6.33
-6.98
-7.34
-7.52
-7.76
-8.26
-9.18
-10.54
-12.17
-13.85
-15.31
-16.42
-17.30
-18.28
-19.83
-22.28
-25.69
-29.66
-33.49
-36.48
-38.32
-39.33
-40.41
-42.65
-46.78
-52.74
-59.62
-66.06
-70.92
-73.82
-75.45
-77.25
-80.82
-87.20
-96.46
-107.52
-118.23
-125.55
-125.94
-116.19
-94.49
-61.62
-21.29
20.45
57.03
83.45
97.77
101.31
97.41
89.75
80.87
71.78
62.48
52.85
43.33
35.09
29.58
28.04
30.97
37.92
47.52
57.86
67.18
74.34
79.23
82.55
85.27
88.01
90.69
92.69
93.37
92.62
91.04
89.73
89.76
91.62
95.05
99.16
102.86
105.40
106.62
106.95
107.22
108.35
110.98
115.41
121.67
129.58
138.58
147.52
154.30
156.08
150.13
135.04
111.62
82.83
52.67
24.50
-0.17
-21.81
-41.85
-61.33
-79.96
-96.31
-108.76
-116.60
-120.45
-121.85
-122.29
-122.40
-121.81
-119.64
-115.17
-108.47
-100.46
-92.49
-85.76
-80.85
-77.47
-74.68
-71.46
-67.14
-61.69
-55.65
-49.81
-44.81
-40.90
-37.92
-35.44
-32.99
-30.25
-27.16
-23.91
-20.78
-18.08
-15.94
-14.29
-12.94
-11.62
-10.21
-8.67
-7.15
-5.77
-4.61
-3.66
-2.82
-2.02
-1.27
-0.65
-0.21
-0.01
0.03
-0.01
-0.05
-0.05
0.01
0.11
0.23
0.36
0.48
0.60
0.69
0.74
0.74
0.68
0.55
0.37
0.13
-0.14
-0.41
-0.64
-0.76
-0.77
-0.67
-0.50
-0.32
-0.20
-0.14
-0.14
-0.16
-0.16
-0.14
-0.14
-0.23
-0.45
-0.77
-1.11
-1.36
-1.43
-1.28
-0.97
-0.59
-0.23
0.02
0.12
0.09
-0.05
-0.21
-0.29
-0.24
-0.06
0.21
0.50
0.73
0.85
0.84
0.72
0.52
0.24
-0.03
-0.24
-0.32
-0.24
-0.07
0.10
0.16
0.02
-0.28
-0.64
-0.94
-1.06
-0.95
-0.62
-0.14
0.36
0.78
1.03
1.09
0.96
0.71
0.39
0.03
-0.33
-0.65
-0.88
-0.96
-0.84
-0.57
-0.22
0.07
0.24
0.26
0.19
0.14
0.17
0.26
0.37
0.42
0.36
0.23
0.06
-0.08
-0.17
-0.20
-0.14
-0.02
0.14
0.28
0.32
0.21
-0.06
-0.41
-0.73
-0.91
-0.92
-0.77
-0.51
-0.20
0.13
0.44
0.69
0.83
0.81
0.65
0.38
0.10
-0.15
-0.33
-0.44
-0.51
-0.54
-0.51
-0.42
-0.29
-0.13
-0.01
0.06
0.06
0.04
0.03
0.08
0.19
0.33
0.44
0.47
0.40
0.26
0.07
-0.11
-0.27
-0.41
-0.53
-0.63
-0.68
-0.67
-0.62
-0.54
-0.48
-0.42
-0.35
-0.25
-0.12
-0.01
0.04
-0.00
-0.10
-0.16
-0.10
0.09
0.36
0.58
0.65
0.53
0.31
0.11
0.04
0.14
0.34
0.57
0.73
0.80
0.76
0.62
0.36
-0.02
-0.47
-0.91
-1.26
-1.43
-1.40
-1.22
-0.95
-0.66
-0.41
-0.24
-0.17
-0.21
-0.35
-0.55
-0.73
-0.80
-0.72
-0.45
-0.06
0.36
0.69
0.84
0.76
0.50
0.18
-0.03
-0.05
0.13
0.40
0.59
0.62
0.49
0.29
0.16
0.13
0.19
0.23
0.21
0.13
0.03
0.01
0.07
0.21
0.35
0.45
0.49
0.52
0.55
0.58
0.59
0.53
0.38
0.19
0.01
-0.08
-0.06
0.05
0.17
0.22
0.17
0.03
-0.14
-0.29
-0.38
-0.44
-0.53
-0.68
-0.90
-1.15
-1.35
-1.43
-1.34
-1.06
-0.64
-0.15
0.32
0.69
0.92
0.97
0.86
0.61
0.31
0.04
-0.09
-0.03
0.19
0.49
0.75
0.86
0.78
0.54
0.23
-0.06
-0.25
-0.32
-0.31
-0.24
-0.14
-0.02
0.10
0.19
0.21
0.14
-0.02
-0.23
-0.40
-0.44
-0.34
-0.15
0.02
0.05
-0.08
-0.29
-0.46
-0.45
-0.22
0.16
0.53
0.73
0.65
0.34
-0.10
-0.48
-0.68
-0.67
-0.50
-0.26
-0.05
0.08
0.13
0.11
0.05
-0.05
-0.20
-0.36
-0.50
-0.57
-0.54
-0.43
-0.30
-0.21
-0.19
-0.22
-0.26
-0.26
-0.23
-0.18
-0.11
-0.02
0.12
0.32
0.56
0.76
0.85
0.80
0.63
0.44
0.31
0.31
0.40
0.52
0.56
0.50
0.35
0.20
0.11
0.08
0.06
-0.01
-0.17
-0.37
-0.53
-0.57
-0.50
-0.38
-0.28
-0.26
-0.25
-0.18
0.00
0.29
0.61
0.88
1.02
1.06
1.02
0.92
0.77
0.56
0.31
0.08
-0.05
-0.04
0.07
0.18
0.17
0.00
-0.27
-0.50
-0.55
-0.34
0.09
0.57
0.95
1.10
1.01
0.75
0.43
0.13
-0.14
-0.39
-0.62
-0.80
-0.88
-0.82
-0.66
-0.46
-0.32
-0.31
-0.40
-0.53
-0.60
-0.58
-0.47
-0.33
-0.22
-0.11
0.03
0.25
0.54
0.84
1.05
1.10
0.98
0.72
0.41
0.09
-0.22
-0.49
-0.70
-0.85
-0.91
-0.88
-0.78
-0.63
-0.48
-0.33
-0.20
-0.09
0.05
0.25
0.54
0.88
1.20
1.42
1.46
1.28
0.96
0.60
0.30
0.14
0.10
0.15
0.20
0.20
0.14
0.04
-0.06
-0.14
-0.21
-0.25
-0.28
-0.30
-0.30
-0.25
-0.16
-0.04
0.07
0.12
0.10
-0.00
-0.14
-0.26
-0.30
-0.21
-0.05
0.12
0.19
0.10
-0.14
-0.46
-0.76
-0.95
-1.01
-1.00
-0.95
-0.91
-0.82
-0.66
-0.38
-0.03
0.29
0.48
0.48
0.31
0.07
-0.13
-0.23
-0.20
-0.11
-0.01
0.04
0.02
-0.03
-0.09
-0.13
-0.14
-0.12
-0.08
-0.03
0.05
0.14
0.24
0.30
0.30
0.23
0.14
0.12
0.26
0.58
1.04
1.48
1.75
1.76
1.53
1.17
0.85
0.65
0.59
0.59
0.58
0.51
0.39
0.26
0.13
0.03
-0.04
-0.07
-0.07
-0.10
-0.17
-0.34
-0.59
-0.83
-0.96
-0.88
-0.61
-0.28
-0.11
-0.28
-0.83
-1.64
-2.41
-2.81
-2.62
-1.82
-0.65
0.43
0.88
0.35
-1.19
-3.30
-5.23
-6.25
-5.95
-4.54
-2.86
-1.99
-2.89
-5.84
-10.31
-15.08
-18.68
-19.89
-18.30
-14.77
-11.47
-11.41
-17.31
-30.39
-49.47
-71.14
-90.95
-105.19
-112.44
-113.96
-112.96
-113.09
-116.94
-125.22
-136.46
-147.39
-153.50
-150.27
-134.54
-106.03
-68.21
-27.78
7.18
30.23
38.94
35.92
27.70
21.91
24.41
37.61
60.75
91.40
127.18
166.32
207.22
247.50
283.84
312.79
332.40
343.14
347.42
347.93
345.58
338.74
324.09
298.68
261.60
214.36
160.00
101.90
43.22
-12.94
-63.20
-104.01
-132.73
-148.70
-153.75
-151.55
-146.07
-140.15
-134.85
-129.94
-124.67
-118.77
-112.55
-106.64
-101.43
-96.85
-92.46
-87.77
-82.54
-76.82
-70.91
-65.22
-60.03
-55.43
-51.30
-47.46
-43.73
-40.05
-36.47
-33.15
-30.22
-27.75
-25.67
-23.82
-21.97
-19.92
-17.53
-14.81
-11.93
-9.14
-6.71
-4.82
-3.50
-2.70
-2.27
-2.08
-2.01
-1.99
-1.94
-1.78
-1.46
-0.97
-0.38
0.19
0.58
0.72
0.57
0.21
-0.20
-0.53
-0.69
-0.68
-0.57
-0.43
-0.31
-0.22
-0.16
-0.16
-0.29
-0.61
-1.11
-1.70
-2.21
-2.49
-2.50
-2.33
-2.16
-2.21
-2.58
-3.26
-4.09
-4.91
-5.56
-6.03
-6.41
-6.86
-7.50
-8.35
-9.27
-10.04
-10.46
-10.53
-10.46
-10.66
-11.49
-13.08
-15.25
-17.51
-19.34
-20.44
-20.91
-21.25
-22.12
-24.02
-26.99
-30.61
-34.12
-36.81
-38.36
-39.00
-39.46
-40.68
-43.38
-47.74
-53.29
-59.07
-64.01
-67.52
-69.69
-71.29
-73.36
-76.60
-81.10
-86.47
-92.41
-98.89
-105.82
-112.24
-115.89
-113.73
-103.63
-86.14
-64.88
-44.97
-30.15
-20.42
-12.05
-0.16
17.89
40.62
63.42
81.86
94.76
104.96
117.12
134.10
154.58
173.35
184.24
183.52
171.93
154.14
136.31
123.27
116.88
116.01
117.84
119.56
119.58
117.94
115.82
114.69
115.38
117.70
120.71
123.32
125.01
126.12
127.69
130.78
136.12
143.76
153.20
163.59
173.60
181.41
184.61
180.50
166.60
141.39
104.94
59.27
8.29
-42.78
-88.40
-123.91
-146.68
-156.68
-156.32
-149.58
-140.61
-132.58
-127.04
-124.00
-122.56
-121.59
-120.04
-117.19
-112.57
-106.02
-97.82
-88.74
-79.85
-72.23
-66.57
-62.97
-60.87
-59.38
-57.58
-54.86
-51.10
-46.57
-41.78
-37.19
-33.04
-29.42
-26.25
-23.45
-20.96
-18.81
-17.05
-15.69
-14.72
-14.06
-13.58
-13.13
-12.51
-11.56
-10.17
-8.37
-6.34
-4.37
-2.76
-1.72
-1.27
-1.28
-1.51
-1.76
-1.88
-1.79
-1.45
-0.86
-0.04
0.93
1.93
2.83
3.47
3.79
3.74
3.33
2.56
1.51
0.27
-0.95
-1.97
-2.65
-2.95
-2.96
-2.82
-2.68
-2.60
-2.59
-2.63
-2.69
-2.78
-2.91
-3.07
-3.19
-3.19
-2.99
-2.58
-2.04
-1.54
-1.22
-1.18
-1.39
-1.76
-2.13
-2.39
-2.49
-2.44
-2.30
-2.12
-1.90
-1.66
-1.44
-1.29
-1.25
-1.33
-1.48
-1.57
-1.51
-1.26
-0.84
-0.36
0.08
0.39
0.55
0.59
0.55
0.47
0.36
0.21
0.01
-0.22
-0.45
-0.65
-0.83
-1.04
-1.34
-1.78
-2.36
-2.96
-3.46
-3.75
-3.82
-3.73
-3.59
-3.40
-3.09
-2.45
-1.33
0.29
2.26
4.27
5.99
7.19
7.77
7.80
7.43
6.84
6.19
5.59
5.11
4.78
4.60
4.59
4.69
4.87
5.06
5.21
5.26
5.17
4.90
4.44
3.82
3.10
2.34
1.66
1.11
0.71
0.41
0.15
-0.13
-0.44
-0.71
-0.87
-0.89
-0.81
-0.68
-0.59
-0.56
-0.53
-0.43
-0.20
0.14
0.52
0.83
1.01
1.01
0.85
0.54
0.09
-0.45
-1.04
-1.58
-1.97
-2.15
-2.12
-1.93
-1.69
-1.50
-1.40
-1.39
-1.43
-1.42
-1.31
-1.07
-0.73
-0.33
0.04
0.34
0.52
0.58
0.56
0.51
0.46
0.46
0.51
0.62
0.77
0.91
0.99
0.97
0.84
0.59
0.26
-0.10
-0.45
-0.70
-0.81
-0.72
-0.43
0.00
0.51
0.97
1.29
1.42
1.36
1.15
0.86
0.53
0.21
-0.05
-0.22
-0.30
-0.31
-0.29
-0.29
-0.33
-0.37
-0.36
-0.25
-0.04
0.22
0.48
0.67
0.77
0.78
0.71
0.55
0.32
0.04
-0.24
-0.47
-0.63
-0.75
-0.86
-0.98
-1.09
-1.12
-1.01
-0.75
-0.40
-0.04
0.23
0.37
0.39
0.35
0.31
0.28
0.26
0.22
0.12
-0.05
-0.26
-0.47
-0.65
-0.78
-0.86
-0.89
-0.88
-0.80
-0.68
-0.51
-0.34
-0.16
0.03
0.24
0.47
0.67
0.79
0.79
0.72
0.66
0.65
0.70
0.75
0.71
0.54
0.32
0.17
0.16
0.28
0.44
0.50
0.42
0.22
-0.01
-0.19
-0.33
-0.46
-0.60
-0.74
-0.79
-0.68
-0.41
-0.04
0.29
0.44
0.37
0.13
-0.14
-0.26
-0.13
0.25
0.74
1.15
1.34
1.26
1.01
0.74
0.55
0.45
0.38
0.22
-0.04
-0.37
-0.65
-0.82
-0.86
-0.83
-0.79
-0.77
-0.75
-0.68
-0.50
-0.22
0.12
0.45
0.70
0.84
0.84
0.70
0.39
-0.05
-0.53
-0.93
-1.14
-1.08
-0.81
-0.41
-0.04
0.21
0.29
0.22
0.06
-0.11
-0.23
-0.27
-0.22
-0.12
0.02
0.17
0.34
0.53
0.70
0.79
0.74
0.51
0.16
-0.19
-0.43
-0.52
-0.52
-0.51
-0.57
-0.66
-0.70
-0.62
-0.38
-0.06
0.26
0.50
0.65
0.75
0.85
0.96
1.04
1.01
0.83
0.53
0.19
-0.08
-0.20
-0.15
-0.04
0.03
-0.06
-0.30
-0.60
-0.82
-0.88
-0.79
-0.63
-0.49
-0.41
-0.35
-0.29
-0.23
-0.26
-0.45
-0.84
-1.36
-1.89
-2.28
-2.52
-2.64
-2.76
-2.97
-3.31
-3.77
-4.33
-4.91
-5.45
-5.90
-6.21
-6.42
-6.60
-6.88
-7.30
-7.85
-8.42
-8.93
-9.39
-9.96
-10.85
-12.25
-14.21
-16.58
-19.08
-21.36
-23.24
-24.70
-25.99
-27.53
-29.80
-33.07
-37.27
-41.92
-46.32
-49.85
-52.33
-54.18
-56.27
-59.43
-63.90
-69.12
-73.81
-76.55
-76.44
-73.46
-68.59
-63.42
-59.73
-58.94
-61.62
-66.96
-72.48
-74.11
-66.95
-46.66
-11.22
37.78
94.98
152.49
202.33
238.85
260.32
269.05
270.03
268.81
269.44
273.13
278.13
280.53
275.73
259.86
230.97
189.46
138.16
81.82
26.15
-23.31
-62.36
-88.89
-103.16
-107.47
-105.24
-100.04
-94.72
-90.95
-89.19
-89.00
-89.42
-89.37
-87.94
-84.66
-79.63
-73.47
-67.14
-61.48
-57.03
-53.80
-51.37
-49.13
-46.55
-43.35
-39.58
-35.54
-31.65
-28.32
-25.72
-23.82
-22.35
-20.91
-19.18
-17.02
-14.54
-12.08
-9.97
-8.46
-7.52
-6.94
-6.42
-5.74
-4.82
-3.73
-2.64
-1.67
-0.91
-0.34
0.04
0.25
0.30
0.22
0.09
-0.02
-0.06
0.00
0.13
0.25
0.34
0.34
0.29
0.22
0.16
0.14
0.16
0.19
0.21
0.21
0.18
0.13
0.09
0.05
0.03
0.03
0.06
0.14
0.30
0.50
0.70
0.83
0.83
0.70
0.47
0.22
0.03
-0.08
-0.09
0.00
0.19
0.43
0.68
0.85
0.85
0.67
0.36
0.03
-0.23
-0.37
-0.44
-0.50
-0.62
-0.80
-0.97
-1.02
-0.92
-0.69
-0.40
-0.12
0.08
0.21
0.28
0.29
0.22
0.08
-0.10
-0.23
-0.22
-0.04
0.28
0.61
0.81
0.78
0.50
0.05
-0.44
-0.82
-1.02
-1.00
-0.83
-0.57
-0.33
-0.15
-0.06
-0.05
-0.07
-0.09
-0.06
0.02
0.13
0.26
0.36
0.43
0.45
0.46
0.47
0.46
0.41
0.26
0.03
-0.25
-0.50
-0.62
-0.57
-0.39
-0.18
-0.05
-0.09
-0.29
-0.59
-0.88
-1.06
-1.08
-0.94
-0.68
-0.39
-0.14
-0.02
-0.03
-0.14
-0.26
-0.30
-0.27
-0.20
-0.20
-0.35
-0.62
-0.93
-1.15
-1.20
-1.09
-0.91
-0.73
-0.60
-0.48
-0.29
-0.00
0.37
0.73
0.99
1.08
1.05
0.98
0.94
0.99
1.09
1.19
1.24
1.21
1.09
0.85
0.51
0.09
-0.32
-0.63
-0.75
-0.67
-0.41
-0.10
0.16
0.31
0.33
0.23
0.07
-0.11
-0.25
-0.32
-0.27
-0.13
0.03
0.13
0.12
0.01
-0.14
-0.23
-0.22
-0.14
-0.04
-0.02
-0.07
-0.17
-0.27
-0.33
-0.35
-0.38
-0.40
-0.41
-0.36
-0.22
0.00
0.22
0.36
0.38
0.29
0.16
0.09
0.11
0.19
0.30
0.37
0.38
0.33
0.27
0.22
0.18
0.16
0.15
0.16
0.20
0.28
0.40
0.49
0.47
0.31
0.05
-0.19
-0.28
-0.17
0.07
0.26
0.26
0.03
-0.33
-0.60
-0.62
-0.35
0.10
0.57
0.89
1.03
1.05
1.02
0.98
0.94
0.85
0.71
0.53
0.34
0.14
-0.09
-0.33
-0.55
-0.70
-0.70
-0.54
-0.27
-0.02
0.10
0.03
-0.20
-0.48
-0.72
-0.87
-0.91
-0.87
-0.80
-0.72
-0.62
-0.50
-0.37
-0.25
-0.19
-0.20
-0.26
-0.32
-0.28
-0.13
0.13
0.42
0.64
0.71
0.61
0.37
0.08
-0.16
-0.29
-0.26
-0.07
0.23
0.57
0.85
0.97
0.90
0.67
0.39
0.15
0.03
0.01
0.04
0.07
0.05
-0.02
-0.08
-0.10
-0.06
0.01
0.08
0.09
0.06
0.02
0.01
0.04
0.09
0.11
0.08
0.02
-0.05
-0.10
-0.11
-0.11
-0.14
-0.20
-0.26
-0.28
-0.25
-0.21
-0.24
-0.37
-0.55
-0.71
-0.75
-0.61
-0.30
0.07
0.39
0.56
0.58
0.47
0.34
0.25
0.24
0.29
0.37
0.44
0.47
0.43
0.34
0.23
0.11
0.05
0.05
0.11
0.19
0.24
0.22
0.15
0.09
0.06
0.07
0.10
0.08
-0.02
-0.19
-0.40
-0.57
-0.65
-0.60
-0.44
-0.24
-0.10
-0.07
-0.18
-0.36
-0.54
-0.63
-0.60
-0.45
-0.24
-0.04
0.13
0.25
0.30
0.25
0.12
-0.08
-0.25
-0.31
-0.23
-0.03
0.18
0.32
0.35
0.29
0.17
0.03
-0.11
-0.26
-0.41
-0.56
-0.68
-0.77
-0.83
-0.91
-0.98
-1.03
-1.03
-0.96
-0.85
-0.75
-0.68
-0.67
-0.67
-0.66
-0.60
-0.49
-0.32
-0.10
0.16
0.42
0.64
0.75
0.76
0.68
0.59
0.54
0.53
0.54
0.51
0.45
0.40
0.43
0.56
0.75
0.87
0.84
0.66
0.39
0.18
0.14
0.29
0.54
0.76
0.84
0.74
0.54
0.33
0.19
0.13
0.11
0.07
0.00
-0.08
-0.14
-0.16
-0.13
-0.08
-0.03
-0.01
-0.04
-0.15
-0.34
-0.59
-0.84
-0.99
-0.93
-0.66
-0.22
0.22
0.54
0.67
0.65
0.58
0.54
0.55
0.53
0.45
0.29
0.13
0.05
0.11
0.25
0.34
0.27
-0.01
-0.44
-0.86
-1.12
-1.15
-0.97
-0.69
-0.44
-0.27
-0.17
-0.07
0.11
0.39
0.73
1.00
1.06
0.86
0.44
-0.07
-0.46
-0.59
-0.43
-0.09
0.26
0.47
0.48
0.34
0.14
-0.05
-0.24
-0.43
-0.61
-0.73
-0.68
-0.40
0.08
0.62
1.04
1.22
1.15
0.93
0.71
0.57
0.53
0.53
0.49
0.38
0.20
0.01
-0.12
-0.15
-0.08
0.04
0.14
0.16
0.07
-0.12
-0.35
-0.55
-0.63
-0.55
-0.32
0.02
0.38
0.65
0.75
0.66
0.44
0.18
-0.06
-0.22
-0.31
-0.38
-0.45
-0.53
-0.58
-0.60
-0.61
-0.67
-0.81
-1.01
-1.19
-1.24
-1.10
-0.82
-0.49
-0.25
-0.14
-0.13
-0.15
-0.11
0.04
0.28
0.58
0.84
1.00
0.98
0.78
0.45
0.08
-0.22
-0.37
-0.38
-0.30
-0.23
-0.19
-0.17
-0.10
0.04
0.24
0.45
0.61
0.69
0.69
0.62
0.46
0.18
-0.19
-0.61
-0.97
-1.15
-1.10
-0.85
-0.49
-0.15
0.10
0.22
0.21
0.14
0.05
-0.01
-0.03
-0.01
0.07
0.19
0.34
0.50
0.62
0.67
0.62
0.47
0.27
0.06
-0.10
-0.18
-0.15
-0.03
0.15
0.32
0.45
0.48
0.39
0.18
-0.09
-0.38
-0.62
-0.78
-0.83
-0.77
-0.59
-0.34
-0.05
0.21
0.35
0.35
0.24
0.07
-0.06
-0.08
0.02
0.21
0.43
0.62
0.75
0.81
0.80
0.73
0.60
0.42
0.18
-0.08
-0.31
-0.47
-0.52
-0.48
-0.40
-0.31
-0.29
-0.35
-0.46
-0.56
-0.57
-0.46
-0.22
0.08
0.37
0.58
0.66
0.63
0.53
0.42
0.32
0.25
0.21
0.19
0.21
0.27
0.38
0.47
0.50
0.44
0.30
0.09
-0.17
-0.43
-0.69
-0.89
-0.98
-0.91
-0.67
-0.31
0.06
0.30
0.30
0.06
-0.33
-0.73
-0.99
-1.02
-0.85
-0.57
-0.30
-0.12
-0.06
-0.08
-0.10
-0.07
0.03
0.22
0.49
0.82
1.16
1.45
1.61
1.59
1.41
1.11
0.77
0.42
0.07
-0.25
-0.54
-0.75
-0.83
-0.78
-0.66
-0.54
-0.50
-0.53
-0.58
-0.57
-0.44
-0.25
-0.07
0.00
-0.08
-0.26
-0.43
-0.46
-0.32
-0.03
0.29
0.51
0.57
0.51
0.46
0.51
0.68
0.90
1.02
0.92
0.58
0.11
-0.33
-0.62
-0.71
-0.67
-0.59
-0.51
-0.41
-0.25
-0.00
0.30
0.56
0.71
0.73
0.69
0.62
0.57
0.47
0.26
-0.06
-0.41
-0.67
-0.72
-0.52
-0.17
0.17
0.35
0.32
0.11
-0.15
-0.38
-0.53
-0.60
-0.61
-0.62
-0.62
-0.62
-0.59
-0.51
-0.36
-0.15
0.10
0.37
0.59
0.73
0.74
0.62
0.43
0.24
0.09
0.03
0.02
0.03
-0.00
-0.13
-0.34
-0.59
-0.83
-0.96
-0.96
-0.83
-0.61
-0.36
-0.14
0.02
0.12
0.19
0.25
0.30
0.29
0.23
0.12
0.00
-0.05
0.02
0.19
0.43
0.64
0.71
0.58
0.26
-0.15
-0.50
-0.69
-0.64
-0.40
-0.09
0.19
0.35
0.42
0.43
0.41
0.33
0.14
-0.17
-0.50
-0.70
-0.63
-0.25
0.29
0.75
0.91
0.72
0.31
-0.10
-0.30
-0.18
0.16
0.55
0.85
0.99
1.05
1.09
1.16
1.23
1.16
0.86
0.32
-0.35
-0.94
-1.26
-1.22
-0.87
-0.39
0.02
0.21
0.19
0.05
-0.07
-0.09
-0.00
0.11
0.13
0.01
-0.23
-0.48
-0.64
-0.61
-0.41
-0.11
0.15
0.26
0.19
-0.00
-0.22
-0.38
-0.43
-0.41
-0.36
-0.32
-0.30
-0.26
-0.19
-0.11
-0.07
-0.09
-0.18
-0.26
-0.25
-0.13
0.07
0.28
0.39
0.38
0.25
0.04
-0.20
-0.44
-0.66
-0.83
-0.88
-0.75
-0.41
0.05
0.49
0.75
0.70
0.33
-0.24
-0.80
-1.14
-1.12
-0.76
-0.20
0.36
0.72
0.79
0.61
0.29
-0.04
-0.29
-0.40
-0.37
-0.20
0.09
0.43
0.76
0.94
0.91
0.67
0.31
0.01
-0.12
-0.01
0.26
0.58
0.81
0.87
0.73
0.44
0.07
-0.32
-0.68
-0.97
-1.16
-1.23
-1.20
-1.07
-0.90
-0.70
-0.49
-0.26
-0.01
0.25
0.47
0.61
0.63
0.57
0.48
0.43
0.46
0.55
0.65
0.70
0.70
0.66
0.59
0.51
0.41
0.31
0.25
0.28
0.42
0.64
0.85
0.94
0.80
0.44
-0.07
-0.57
-0.91
-1.00
-0.81
-0.44
-0.07
0.16
0.16
-0.04
-0.34
-0.58
-0.67
-0.60
-0.39
-0.11
0.18
0.45
0.65
0.74
0.71
0.52
0.21
-0.16
-0.53
-0.80
-0.94
-0.93
-0.79
-0.58
-0.37
-0.21
-0.08
0.04
0.17
0.34
0.49
0.57
0.53
0.37
0.17
-0.01
-0.12
-0.16
-0.20
-0.28
-0.42
-0.56
-0.63
-0.58
-0.44
-0.30
-0.23
-0.28
-0.40
-0.49
-0.46
-0.27
0.02
0.27
0.41
0.37
0.20
-0.05
-0.26
-0.38
-0.37
-0.24
-0.02
0.21
0.38
0.46
0.46
0.41
0.36
0.34
0.35
0.35
0.31
0.27
0.26
0.31
0.42
0.53
0.53
0.38
0.07
-0.29
-0.59
-0.72
-0.66
-0.45
-0.18
0.06
0.21
0.28
0.29
0.29
0.29
0.29
0.30
0.30
0.31
0.36
0.45
0.58
0.70
0.76
0.73
0.60
0.43
0.27
0.21
0.27
0.41
0.55
0.57
0.44
0.21
-0.05
-0.24
-0.31
-0.28
-0.20
-0.15
-0.16
-0.26
-0.45
-0.69
-0.93
-1.10
-1.15
-1.08
-0.93
-0.79
-0.71
-0.69
-0.68
-0.62
-0.50
-0.36
-0.26
-0.19
-0.12
0.03
0.28
0.60
0.90
1.10
1.15
1.08
0.91
0.70
0.46
0.22
0.02
-0.09
-0.12
-0.11
-0.10
-0.14
-0.18
-0.14
0.07
0.44
0.82
1.04
0.99
0.69
0.29
-0.04
-0.20
-0.20
-0.16
-0.18
-0.30
-0.48
-0.66
-0.79
-0.85
-0.87
-0.86
-0.83
-0.78
-0.73
-0.69
-0.71
-0.77
-0.81
-0.78
-0.62
-0.35
-0.01
0.32
0.56
0.69
0.70
0.65
0.58
0.53
0.46
0.34
0.13
-0.16
-0.43
-0.55
-0.44
-0.05
0.53
1.14
1.59
1.78
1.67
1.37
1.00
0.66
0.42
0.27
0.19
0.15
0.15
0.18
0.22
0.23
0.14
-0.11
-0.47
-0.87
-1.15
-1.19
-0.96
-0.52
-0.01
0.40
0.64
0.66
0.55
0.39
0.21
0.03
-0.23
-0.59
-1.04
-1.46
-1.72
-1.74
-1.51
-1.14
-0.75
-0.42
-0.13
0.13
0.39
0.59
0.63
0.47
0.18
-0.11
-0.24
-0.16
0.04
0.22
0.28
0.23
0.16
0.15
0.21
0.24
0.15
-0.07
-0.32
-0.46
-0.41
-0.21
0.04
0.21
0.25
0.18
0.09
0.03
0.02
0.06
0.12
0.19
0.24
0.26
0.25
0.20
0.15
0.10
0.03
-0.08
-0.29
-0.55
-0.78
-0.85
-0.64
-0.18
0.41
0.91
1.16
1.06
0.66
0.08
-0.51
-0.99
-1.29
-1.38
-1.26
-0.96
-0.55
-0.12
0.22
0.41
0.41
0.29
0.15
0.11
0.26
0.59
1.00
1.35
1.52
1.47
1.22
0.88
0.55
0.28
0.09
-0.07
-0.25
-0.43
-0.55
-0.56
-0.44
-0.23
-0.05
0.01
-0.08
-0.25
-0.40
-0.41
-0.26
-0.01
0.23
0.36
0.30
0.11
-0.12
-0.30
-0.37
-0.36
-0.34
-0.41
-0.61
-0.88
-1.12
-1.26
-1.26
-1.19
-1.17
-1.30
-1.60
-2.02
-2.45
-2.78
-2.98
-3.03
-2.97
-2.83
-2.68
-2.58
-2.59
-2.74
-2.96
-3.16
-3.24
-3.15
-2.98
-2.91
-3.15
-3.83
-4.87
-6.02
-6.89
-7.11
-6.55
-5.40
-4.18
-3.54
-3.99
-5.59
-7.87
-10.01
-11.27
-11.40
-10.80
-10.29
-10.72
-12.42
-15.00
-17.49
-18.91
-18.65
-16.69
-13.42
-9.27
-4.47
0.82
6.48
12.42
18.86
26.55
36.72
50.47
67.81
86.78
103.49
113.21
112.31
99.86
78.26
52.25
27.01
6.20
-8.90
-19.11
-26.07
-31.12
-34.65
-36.41
-36.26
-34.70
-32.88
-32.07
-32.87
-34.90
-37.02
-37.96
-36.99
-34.34
-31.09
-28.64
-28.03
-29.55
-32.55
-35.87
-38.35
-39.41
-39.30
-38.98
-39.64
-42.10
-46.51
-52.21
-58.10
-63.16
-66.97
-69.85
-72.78
-76.77
-82.45
-89.69
-97.72
-105.50
-112.27
-117.92
-123.08
-128.81
-136.18
-146.00
-158.61
-173.78
-190.56
-207.05
-220.46
-227.45
-225.11
-211.84
-187.98
-155.66
-117.91
-77.39
-35.38
8.28
54.30
102.51
150.84
195.39
231.56
255.93
267.59
268.47
262.42
253.56
244.79
237.21
230.52
223.96
217.13
210.26
203.84
198.08
192.71
187.22
181.35
175.44
170.36
167.15
166.41
167.91
170.65
173.28
174.81
175.10
174.92
175.41
177.14
179.28
179.33
173.72
158.86
132.38
93.96
45.68
-8.22
-62.12
-110.18
-147.51
-171.33
-181.49
-180.25
-171.32
-158.56
-144.90
-131.91
-120.10
-109.52
-100.27
-92.47
-85.98
-80.18
-74.05
-66.71
-57.92
-48.25
-38.81
-30.76
-24.64
-20.23
-16.62
-12.67
-7.44
-0.54
7.74
16.54
24.55
30.28
32.43
30.24
23.89
14.55
4.16
-5.29
-12.40
-16.84
-19.28
-20.95
-22.92
-25.67
-28.98
-32.21
-34.73
-36.26
-36.91
-36.99
-36.75
-36.17
-35.06
-33.21
-30.61
-27.54
-24.45
-21.85
-20.08
-19.29
-19.42
-20.34
-21.84
-23.71
-25.68
-27.47
-28.88
-29.78
-30.27
-30.58
-31.05
-32.00
-33.63
-35.92
-38.59
-41.22
-43.34
-44.72
-45.44
-45.87
-46.53
-47.76
-49.60
-51.67
-53.51
-54.67
-54.98
-54.53
-53.54
-52.35
-51.46
-51.70
-53.96
-58.50
-63.99
-67.18
-63.64
-49.62
-24.18
9.80
46.28
78.42
101.36
113.84
118.03
117.76
116.56
116.44
118.00
121.24
126.31
133.46
142.58
152.63
161.69
167.73
169.49
167.24
162.48
157.01
151.52
144.65
133.32
113.97
84.57
46.08
2.62
-39.70
-75.01
-99.66
-113.08
-117.27
-115.36
-110.17
-103.55
-96.39
-89.24
-82.62
-77.11
-72.93
-69.60
-65.99
-60.69
-52.75
-42.24
-30.32
-18.90
-9.92
-4.69
-3.50
-5.70
-10.00
-14.98
-19.49
-22.85
-24.90
-25.86
-26.07
-25.84
-25.29
-24.38
-23.00
-21.13
-18.91
-16.64
-14.63
-13.08
-11.98
-11.20
-10.54
-9.89
-9.24
-8.68
-8.26
-7.91
-7.49
-6.86
-5.94
-4.80
-3.64
-2.64
-1.90
-1.38
-0.93
-0.44
0.14
0.70
1.08
1.16
0.97
0.64
0.38
0.34
0.54
0.86
1.13
1.20
1.05
0.77
0.54
0.49
0.69
1.06
1.51
1.87
2.04
1.96
1.67
1.24
0.77
0.38
0.14
0.04
0.06
0.15
0.23
0.29
0.30
0.24
0.11
-0.08
-0.31
-0.51
-0.60
-0.54
-0.36
-0.15
-0.03
-0.08
-0.31
-0.61
-0.84
-0.83
-0.55
-0.05
0.48
0.85
0.91
0.62
0.10
-0.46
-0.88
-1.04
-0.91
-0.59
-0.21
0.14
0.36
0.43
0.35
0.16
-0.07
-0.26
-0.26
-0.01
0.49
1.11
1.64
1.91
1.90
1.72
1.59
1.69
2.04
2.53
2.97
3.21
3.20
3.04
2.80
2.55
2.26
1.83
1.22
0.40
-0.55
-1.46
-2.16
-2.51
-2.49
-2.18
-1.76
-1.37
-1.04
-0.66
-0.06
0.77
1.65
2.22
2.15
1.36
0.06
-1.27
-2.19
-2.50
-2.30
-1.91
-1.63
-1.56
-1.53
-1.29
-0.66
0.30
1.35
2.13
2.39
2.08
1.39
0.61
-0.02
-0.39
-0.57
-0.72
-1.03
-1.57
-2.30
-3.08
-3.76
-4.20
-4.30
-4.03
-3.35
-2.33
-1.04
0.38
1.77
3.00
3.93
4.47
4.57
4.22
3.52
2.64
1.78
1.08
0.59
0.24
-0.10
-0.52
-1.01
-1.47
-1.78
-1.89
-1.82
-1.70
-1.64
-1.66
-1.75
-1.80
-1.75
-1.55
-1.23
-0.87
-0.55
-0.33
-0.22
-0.17
-0.09
0.13
0.50
0.98
1.45
1.79
1.92
1.83
1.60
1.29
0.95
0.57
0.09
-0.45
-1.00
-1.44
-1.64
-1.55
-1.18
-0.63
-0.00
0.61
1.15
1.60
1.93
2.09
2.04
1.74
1.25
0.66
0.16
-0.08
0.03
0.49
1.17
1.84
2.30
2.38
2.04
1.37
0.56
-0.19
-0.71
-0.92
-0.83
-0.55
-0.20
0.07
0.19
0.11
-0.13
-0.45
-0.74
-0.91
-0.88
