1660334893.00
64.000000
-0.00
-0.00
-0.00
-0.00
-0.00
-0.00
-0.00
-0.00
-0.00
-0.00
0.00
0.01
0.01
-0.00
-0.03
-0.05
-0.05
0.00
0.13
0.36
0.66
1.01
1.37
1.72
2.06
2.40
2.79
3.24
3.80
4.42
5.06
5.67
6.21
6.68
7.15
7.67
8.30
9.14
10.10
11.08
11.94
12.61
13.11
13.60
14.30
15.39
17.13
19.37
21.85
24.27
26.41
28.32
30.28
32.74
36.04
40.61
46.13
52.07
57.82
62.93
67.40
71.66
76.42
82.31
89.97
98.98
108.56
117.68
125.60
132.14
137.83
144.04
149.70
157.39
167.91
181.41
196.46
209.74
216.49
211.85
192.57
158.19
111.68
57.34
-0.43
-58.75
-116.74
-174.83
-233.49
-292.29
-349.73
-403.56
-452.19
-494.72
-530.86
-560.36
-582.56
-596.45
-600.90
-595.14
-578.46
-550.30
-509.71
-455.65
-387.87
-307.89
-219.53
-128.41
-40.67
38.73
106.75
162.46
206.31
239.23
262.14
276.01
282.11
282.23
278.47
272.57
265.57
257.56
248.00
236.21
221.98
205.85
189.00
172.77
158.12
145.30
133.86
122.99
111.97
100.59
89.14
78.24
68.51
60.26
53.44
47.62
42.28
36.95
31.44
25.84
20.49
15.83
12.04
9.06
6.62
4.43
2.26
0.04
-2.15
-4.22
-6.10
-7.85
-9.49
-11.03
-12.32
-13.19
-13.49
-13.18
-12.42
-11.43
-10.44
-9.55
-8.69
-7.75
-6.66
-5.48
-4.34
-3.43
-2.83
-2.52
-2.40
-2.39
-2.44
-2.58
-2.79
-3.02
-3.13
-3.03
-2.68
-2.17
-1.67
-1.33
-1.23
-1.37
-1.68
-2.03
-2.34
-2.55
-2.66
-2.67
-2.61
-2.48
-2.28
-2.00
-1.64
-1.26
-0.96
-0.88
-1.12
-1.70
-2.48
-3.24
-3.74
-3.80
-3.43
-2.76
-2.00
-1.34
-0.81
-0.36
0.16
0.84
1.65
2.49
3.22
3.73
3.96
3.97
3.84
3.63
3.41
3.21
3.03
2.87
2.71
2.62
2.64
2.83
3.19
3.65
4.05
4.23
4.05
3.51
2.64
1.49
0.18
-1.25
-2.70
-4.11
-5.35
-6.27
-6.77
-6.79
-6.41
-5.80
-5.17
-4.68
-4.35
-4.12
-3.82
-3.36
-2.76
-2.14
-1.67
-1.46
-1.49
-1.65
-1.80
-1.88
-1.94
-2.08
-2.36
-2.72
-3.00
-3.03
-2.74
-2.17
-1.47
-0.83
-0.36
-0.09
0.03
0.06
0.06
0.03
-0.02
-0.12
-0.26
-0.44
-0.64
-0.80
-0.85
-0.69
-0.27
0.45
1.41
2.50
3.54
4.39
4.89
4.97
4.65
3.97
3.01
1.81
0.41
-1.20
-2.92
-4.62
-6.12
-7.24
-7.85
-7.92
-7.50
-6.72
-5.75
-4.75
-3.92
-3.42
-3.33
-3.63
-4.15
-4.67
-4.95
-4.84
-4.28
-3.29
-1.91
-0.18
1.87
4.14
6.46
8.56
10.22
11.29
11.73
11.59
10.99
10.05
8.91
7.68
6.47
5.32
4.22
3.15
2.09
1.07
0.16
-0.58
-1.16
-1.66
-2.20
-2.86
-3.65
-4.48
-5.23
-5.81
-6.19
-6.41
-6.53
-6.62
-6.68
-6.73
-6.72
-6.64
-6.41
-5.96
-5.20
-4.04
-2.47
-0.59
1.39
3.19
4.58
5.41
5.66
5.42
4.81
4.00
3.11
2.29
1.65
1.27
1.18
1.32
1.59
1.87
2.07
2.13
2.06
1.91
1.75
1.62
1.53
1.47
1.35
1.12
0.77
0.35
-0.02
-0.20
-0.13
0.21
0.79
1.54
2.38
3.19
3.86
4.28
4.36
4.13
3.64
3.00
2.28
1.51
0.69
-0.19
-1.13
-2.09
-3.02
-3.84
-4.47
-4.78
-4.71
-4.26
-3.53
-2.76
-2.21
-2.04
-2.25
-2.63
-2.93
-2.93
-2.63
-2.20
-1.89
-1.93
-2.40
-3.19
-4.06
-4.75
-5.03
-4.76
-3.88
-2.41
-0.50
1.60
3.51
4.86
5.36
4.97
3.94
2.73
1.89
1.80
2.59
4.04
5.72
7.14
7.96
8.03
7.39
6.19
4.63
2.86
1.03
-0.79
-2.54
-4.22
-5.87
-7.49
-9.04
-10.39
-11.32
-11.69
-11.45
-10.72
-9.70
-8.56
-7.34
-5.97
-4.36
-2.51
-0.54
1.31
2.80
3.76
4.19
4.13
3.71
3.05
2.27
1.49
0.85
0.43
0.23
0.15
0.09
-0.05
-0.30
-0.63
-0.97
-1.29
-1.58
-1.88
-2.17
-2.43
-2.57
-2.55
-2.36
-2.08
-1.81
-1.63
-1.57
-1.57
-1.54
-1.32
-0.74
0.30
1.87
3.88
6.14
8.32
10.10
11.25
11.72
11.66
11.33
10.99
10.79
10.74
10.79
10.84
10.88
10.92
10.95
10.95
10.83
10.56
10.13
9.56
8.88
8.04
6.99
5.67
4.09
2.34
0.53
-1.24
-2.94
-4.60
-6.18
-7.59
-8.64
-9.17
-9.11
-8.56
-7.72
-6.82
-6.01
-5.32
-4.71
-4.11
-3.47
-2.83
-2.23
-1.72
-1.31
-1.00
-0.84
-0.90
-1.27
-2.04
-3.16
-4.52
-5.96
-7.32
-8.50
-9.45
-10.18
-10.68
-10.95
-11.02
-10.95
-10.84
-10.74
-10.59
-10.24
-9.49
-8.20
-6.33
-3.98
-1.29
1.58
4.48
7.23
9.65
11.52
12.62
12.88
12.32
11.14
9.56
7.82
6.09
4.45
2.87
1.29
-0.34
-2.04
-3.75
-5.33
-6.61
-7.49
-7.93
-7.99
-7.77
-7.34
-6.71
-5.88
-4.84
-3.63
-2.35
-1.12
-0.06
0.79
1.42
1.89
2.34
2.96
4.01
5.71
8.21
11.52
15.45
19.67
23.74
27.28
29.99
31.79
32.73
33.00
32.84
32.54
32.31
32.31
32.58
32.99
33.39
33.62
33.58
33.29
32.79
32.11
31.20
29.99
28.48
26.81
25.23
24.06
23.54
23.71
24.44
25.46
26.44
26.90
26.49
25.12
22.95
20.33
17.72
15.60
14.34
14.09
14.59
15.42
16.29
17.15
18.26
19.92
22.36
25.48
28.78
31.20
31.82
30.36
27.19
23.07
18.70
14.55
10.76
7.23
2.80
-3.17
-10.28
-17.36
-23.31
-27.61
-30.31
-31.82
-32.63
-35.13
-40.62
-48.43
-56.40
-62.69
-66.71
-69.07
-70.90
-73.38
-80.39
-93.86
-112.37
-132.17
-149.89
-164.18
-175.42
-184.88
-193.94
-207.70
-228.91
-255.88
-283.56
-306.88
-322.78
-330.07
-328.76
-294.57
-219.62
-118.07
-17.38
61.41
111.97
138.37
148.93
152.04
153.99
153.99
150.23
142.79
134.06
126.51
121.34
118.70
117.90
118.38
116.32
109.45
98.55
86.79
77.11
70.72
67.36
66.02
65.61
63.25
57.31
48.39
38.75
30.59
25.01
22.19
21.60
22.48
23.11
22.29
19.97
16.92
14.03
11.72
10.01
8.61
7.14
4.83
1.19
-3.77
-9.51
-15.30
-20.40
-24.18
-26.20
-26.17
-24.05
-19.97
-14.28
-7.49
-0.35
6.18
11.11
13.62
13.33
10.47
5.82
0.44
-4.70
-8.98
-12.25
-14.68
-16.52
-17.87
-18.61
-18.47
-17.27
-15.01
-12.02
-8.78
-5.74
-3.09
-0.71
1.83
4.99
8.97
13.55
18.05
21.53
23.09
22.26
19.13
14.47
9.44
5.25
2.79
2.34
3.57
5.70
7.89
9.51
10.30
10.32
9.77
8.84
7.56
5.92
3.96
1.83
-0.22
-1.94
-3.16
-3.72
-3.36
-1.69
1.69
6.91
13.46
20.14
25.29
27.33
25.42
19.80
11.73
3.01
-4.63
-9.98
-12.52
-12.23
-9.44
-4.76
0.99
6.78
11.53
14.52
15.61
15.39
14.88
15.07
16.39
18.51
20.50
21.33
20.42
17.93
14.71
11.91
10.50
10.89
12.74
15.16
17.01
17.31
15.59
11.92
6.86
1.16
-4.41
-9.30
-13.13
-15.74
-17.08
-17.24
-16.43
-14.99
-13.34
-11.83
-10.63
-9.77
-9.20
-8.93
-9.11
-9.89
-11.29
-13.11
-14.86
-15.98
-16.06
-15.01
-13.04
-10.52
-7.79
-5.07
-2.49
-0.21
1.50
2.36
2.18
1.06
-0.61
-2.29
-3.48
-3.95
-3.79
-3.27
-2.69
-2.18
-1.64
-0.83
0.47
2.30
4.50
6.78
8.90
10.74
12.40
14.05
15.85
17.80
19.66
21.07
21.71
21.43
20.35
18.80
17.19
15.84
14.95
14.56
14.61
14.96
15.40
15.68
15.50
14.68
13.19
11.23
9.17
7.39
6.06
5.11
4.22
2.98
1.08
-1.61
-5.03
-8.97
-13.14
-17.16
-20.62
-23.13
-24.40
-24.34
-23.12
-21.06
-18.60
-16.15
-13.99
-12.21
-10.78
-9.60
-8.54
-7.56
-6.70
-6.01
-5.51
-5.10
-4.54
-3.53
-1.91
0.19
2.37
4.07
4.87
4.66
3.70
2.40
1.10
-0.09
-1.24
-2.39
-3.47
-4.22
-4.33
-3.68
-2.44
-0.90
0.64
2.09
3.63
5.49
7.87
10.71
13.81
16.88
19.76
22.38
24.77
26.92
28.74
30.03
30.57
30.23
29.02
27.13
24.85
22.49
20.25
18.18
16.15
14.00
11.56
8.82
5.89
2.99
0.30
-2.09
-4.22
-6.21
-8.20
-10.23
-12.24
-14.10
-15.71
-17.03
-18.12
-19.09
-20.00
-20.84
-21.51
-21.85
-21.76
-21.18
-20.10
-18.55
-16.49
-13.90
-10.74
-7.06
-3.07
0.84
4.19
6.50
7.54
7.34
6.26
4.79
3.31
1.95
0.55
-1.09
-3.04
-5.05
-6.64
-7.37
-7.01
-5.72
-3.90
-1.96
-0.14
1.53
3.10
4.63
6.02
7.14
7.92
8.45
8.95
9.63
10.68
12.12
13.91
15.95
18.18
20.56
23.03
25.44
27.53
28.98
29.51
28.99
27.41
24.92
21.75
18.12
14.25
10.34
6.61
3.29
0.62
-1.18
-2.00
-1.84
-0.88
0.51
1.80
2.47
2.13
0.77
-1.33
-3.63
-5.70
-7.38
-8.87
-10.59
-12.92
-15.95
-19.43
-22.87
-25.74
-27.63
-28.33
-27.78
-26.07
-23.32
-19.78
-15.81
-11.94
-8.70
-6.51
-5.50
-5.43
-5.78
-5.90
-5.22
-3.45
-0.71
2.47
5.35
7.24
7.73
6.81
4.79
2.07
-0.97
-4.07
-6.99
-9.37
-10.78
-10.85
-9.51
-7.13
-4.37
-1.90
-0.02
1.46
3.01
5.07
7.75
10.75
13.59
15.86
17.42
18.40
19.12
19.82
20.57
21.18
21.34
20.72
19.17
16.76
13.79
10.75
8.12
6.23
5.17
4.81
4.89
5.12
5.31
5.34
5.15
4.70
3.93
2.80
1.32
-0.46
-2.40
-4.34
-6.15
-7.83
-9.45
-11.13
-12.96
-14.88
-16.66
-17.97
-18.52
-18.19
-17.17
-15.86
-14.71
-13.97
-13.54
-13.02
-11.89
-9.88
-7.09
-3.90
-0.81
1.94
4.41
6.79
9.21
11.49
13.22
13.96
13.50
12.02
10.02
8.07
6.74
6.50
7.75
10.69
15.10
20.17
24.64
27.20
27.05
24.29
19.82
14.91
10.59
7.34
4.99
3.13
1.37
-0.42
-2.14
-3.63
-4.80
-5.68
-6.35
-6.87
-7.35
-7.88
-8.61
-9.63
-10.90
-12.33
-13.82
-15.32
-16.88
-18.55
-20.34
-22.26
-24.17
-25.92
-27.34
-28.38
-28.98
-29.07
-28.61
-27.62
-26.28
-24.60
-22.47
-19.74
-16.44
-12.75
-9.03
-5.74
-3.25
-1.90
-1.24
-0.48
0.96
2.92
4.67
5.79
6.89
9.86
17.00
30.60
51.09
75.79
99.02
114.14
116.58
105.88
85.90
62.67
42.87
31.51
30.78
40.14
57.71
81.38
108.54
135.26
149.00
137.22
95.48
32.91
-32.56
-84.36
-114.07
-124.10
-121.47
-112.93
-102.35
-90.91
-78.50
-65.73
-53.64
-44.38
-39.68
-39.97
-44.57
-51.16
-56.76
-59.11
-57.85
-54.48
-51.30
-50.04
-51.02
-53.45
-55.34
-54.47
-49.34
-39.97
-27.94
-15.71
-5.71
0.53
2.56
1.46
-0.68
-1.63
-0.05
4.02
9.47
14.99
19.85
24.04
28.08
32.16
35.59
36.78
34.13
27.20
17.44
7.83
1.58
0.57
4.54
11.36
18.22
23.07
25.38
26.01
26.23
26.82
27.69
28.25
28.08
27.37
26.74
26.74
27.23
27.35
25.94
22.29
16.47
9.39
2.25
-3.90
-8.56
-11.92
-14.65
-17.43
-20.62
-24.21
-27.89
-31.53
-34.84
-37.60
-39.69
-41.30
-42.80
-44.62
-47.17
-50.49
-54.19
-56.82
-56.55
-52.42
-45.24
-37.46
-31.98
-30.75
-33.81
-39.66
-45.36
-47.85
-45.15
-36.81
-23.36
-5.73
14.77
37.53
57.88
69.43
68.22
55.39
36.07
16.43
1.36
-6.69
-7.88
-4.55
0.83
6.56
11.71
15.86
18.89
20.88
21.85
21.76
20.20
17.16
13.58
10.36
8.08
6.78
6.18
5.82
5.20
3.58
0.85
-2.52
-5.83
-8.28
-9.20
-7.96
-4.18
3.04
12.45
21.87
29.00
32.08
30.54
24.86
16.41
6.90
-2.15
-9.87
-15.64
-19.08
-20.70
-20.36
-18.29
-15.03
-11.34
-7.98
-5.63
-4.59
-4.82
-6.12
-8.00
-9.93
-11.40
-11.94
-11.32
-9.70
-7.61
-5.42
-4.05
-4.22
-6.28
-9.99
-14.61
-19.40
-23.87
-27.96
-31.92
-35.94
-39.67
-42.37
-43.25
-41.97
-38.89
-34.73
-30.52
-27.22
-25.47
-25.26
-26.13
-27.56
-29.29
-31.38
-33.52
-35.77
-38.52
-42.14
-46.38
-50.05
-51.23
-47.65
-37.20
-17.44
12.27
49.98
91.23
130.29
161.62
181.27
187.79
182.52
170.23
155.88
142.82
132.20
123.73
116.43
109.09
100.42
82.08
51.48
12.89
-25.21
-56.14
-77.62
-90.47
-96.53
-97.45
-94.69
-87.90
-77.67
-66.06
-55.79
-48.65
-44.58
-42.15
-39.43
-36.05
-31.12
-24.80
-18.17
-12.48
-8.49
-6.30
-5.82
-6.95
-9.65
-12.92
-15.93
-18.36
-20.41
-22.43
-24.45
-25.85
-25.48
-22.12
-14.77
-3.74
9.17
21.41
30.82
36.44
38.62
38.52
37.30
35.86
34.46
33.09
31.80
30.87
30.64
31.21
32.28
33.23
33.48
32.70
31.00
28.86
26.97
25.95
26.17
27.73
30.40
33.75
37.25
40.43
43.07
45.26
47.36
49.77
52.70
55.96
58.93
60.74
60.67
58.57
55.09
51.60
49.73
50.66
54.46
59.82
64.45
65.96
62.98
55.80
46.19
36.42
27.80
19.77
10.05
-4.01
-23.66
-47.42
-71.25
-90.16
-100.28
-100.37
-91.88
-77.76
-61.46
-46.58
-37.19
-37.78
-51.81
-79.09
-113.71
-144.63
-159.53
-150.62
-118.76
-73.60
-29.10
2.93
17.72
18.15
11.41
4.11
-1.02
-5.03
-10.33
-17.80
-25.60
-30.16
-28.62
-20.64
-8.80
2.66
10.02
11.67
8.49
3.08
-1.83
-4.82
-6.32
-8.10
-12.10
-19.18
-28.65
-38.53
-46.56
-51.32
-52.84
-52.47
-52.07
-52.93
-55.09
-57.24
-57.32
-53.59
-45.40
-33.50
-19.68
-5.97
6.07
15.80
23.44
29.77
35.72
42.07
49.15
56.79
64.21
70.17
73.26
72.41
67.22
58.22
46.82
34.93
24.47
16.85
12.60
11.26
11.55
11.88
11.03
8.60
5.27
2.45
1.66
3.94
9.37
17.09
25.60
33.20
38.41
40.24
38.22
32.47
23.50
12.08
-0.97
-14.74
-28.04
-39.09
-45.57
-45.11
-36.40
-20.12
0.67
21.32
37.20
45.47
46.13
41.70
