1660327943.00
64.000000
-0.00
-0.00
-0.00
-0.00
-0.00
-0.00
-0.00
-0.00
-0.00
-0.00
0.00
0.01
0.01
-0.00
-0.03
-0.05
-0.05
0.00
0.13
0.36
0.66
1.01
1.37
1.72
2.06
2.40
2.79
3.24
3.80
4.42
5.06
5.66
6.20
6.68
7.15
7.68
8.31
9.14
10.09
11.04
11.88
12.56
13.14
13.76
14.65
15.96
17.91
20.32
22.90
25.38
27.58
29.57
31.68
34.32
37.81
42.54
48.15
54.10
59.83
64.97
69.58
74.14
79.34
85.71
93.76
103.00
112.62
121.73
129.77
136.75
143.30
150.75
157.77
166.64
177.95
191.79
206.97
220.57
228.25
225.36
208.53
176.87
132.76
80.05
23.07
-34.94
-92.44
-149.16
-205.23
-260.37
-313.74
-363.87
-409.83
-450.91
-486.50
-515.74
-537.23
-549.22
-549.96
-538.37
-514.21
-478.67
-433.88
-382.45
-327.02
-269.84
-212.63
-156.66
-102.95
-52.37
-5.90
35.58
71.43
101.35
125.50
144.38
158.69
169.15
176.37
180.75
182.57
182.07
179.51
175.23
169.65
163.18
156.15
148.81
141.30
133.69
126.02
118.33
110.69
103.16
95.80
88.68
81.83
75.25
68.95
62.95
57.25
51.86
46.78
42.03
37.59
33.45
29.61
26.07
22.81
19.83
17.11
14.67
12.48
10.54
8.83
7.35
6.07
4.97
4.05
3.27
2.62
2.09
1.65
1.30
1.01
0.79
0.61
0.47
0.37
0.29
0.23
0.18
0.15
0.14
0.13
0.13
0.14
0.16
0.19
0.22
0.25
0.29
0.33
0.37
0.42
0.47
0.51
0.56
0.62
0.67
0.73
0.79
0.85
0.93
1.01
1.09
1.19
1.30
1.43
1.57
1.72
1.90
2.09
2.31
2.54
2.81
3.10
3.42
3.77
4.16
4.58
5.03
5.52
6.05
6.62
7.23
7.88
8.58
9.32
10.10
10.94
11.81
12.73
13.69
14.72
15.81
16.97
18.18
19.43
20.71
21.94
23.08
24.01
24.64
24.82
24.45
23.44
21.71
19.26
16.14
12.40
8.21
3.73
-0.87
-5.38
-9.61
-13.35
-16.46
-18.81
-20.37
-21.13
-21.19
-20.73
-19.86
-18.75
-17.47
-16.10
-14.65
-13.12
-11.50
-9.91
-8.42
-7.09
-5.95
-4.93
-3.92
-2.78
-1.42
0.23
1.94
3.47
4.65
5.38
5.78
6.09
6.64
7.67
9.32
11.14
12.65
13.47
13.42
12.68
11.70
11.09
11.29
12.53
14.07
15.09
14.89
13.11
9.99
6.12
2.32
-0.71
-2.60
-4.17
-6.46
-10.69
-18.12
-29.84
-46.43
-67.75
-93.20
-116.63
-133.76
-141.52
-139.04
-127.90
-111.49
-93.62
-77.11
-63.01
-50.66
-39.35
-28.32
-17.38
-6.84
2.91
11.66
19.52
26.73
33.42
38.98
42.77
44.32
43.58
41.01
37.46
33.92
31.25
29.91
29.54
29.54
29.21
28.06
25.99
23.28
20.39
17.74
15.50
13.40
10.98
7.88
3.99
-0.36
-4.45
-7.39
-8.34
-6.82
-2.89
2.88
9.53
16.01
21.34
24.88
26.32
25.71
23.30
19.55
14.99
10.23
5.88
2.44
0.16
-0.97
-1.26
-1.11
-0.94
-1.04
-1.50
-2.26
-3.18
-4.11
-4.94
-5.63
-6.24
-6.99
-8.07
-9.54
-11.23
-12.66
-13.22
-12.42
-10.02
-6.21
-1.49
3.40
7.73
10.91
12.60
12.68
11.34
8.97
6.15
3.50
1.57
0.74
1.14
2.57
4.58
6.59
8.01
8.46
7.89
6.46
4.46
2.11
-0.52
-3.46
-6.70
-10.12
-13.43
-16.18
-17.96
-18.42
-17.40
-14.94
-11.27
-6.78
-1.96
2.68
6.69
9.72
11.59
12.24
11.77
10.40
8.43
6.18
3.95
1.92
0.15
-1.38
-2.79
-4.17
-5.55
-6.95
-8.25
-9.36
-10.21
-10.82
-11.33
-12.00
-13.12
-14.81
-16.96
-19.07
-20.42
-20.29
-18.22
-14.25
-8.87
-2.89
2.85
7.69
11.30
13.59
14.68
14.79
14.23
13.40
12.67
12.38
12.71
13.63
14.91
16.20
17.13
17.43
16.99
15.79
13.80
10.83
6.59
0.74
-6.67
-15.09
-23.43
-30.29
-34.42
-35.13
-32.44
-27.05
-19.99
-12.39
-5.18
0.96
5.70
8.96
10.97
12.16
13.05
14.03
15.19
16.23
16.57
15.67
13.30
9.75
5.78
2.26
-0.17
-1.36
-1.59
-1.39
-1.15
-1.11
-1.34
-1.91
-2.93
-4.41
-6.09
-7.37
-7.49
-5.91
-2.59
1.90
6.64
10.62
13.16
13.99
13.30
11.55
9.33
7.20
5.57
4.60
4.20
4.14
4.15
4.07
3.90
3.75
3.72
3.81
3.88
3.69
2.97
1.60
-0.46
-3.09
-6.04
-8.92
-11.27
-12.59
-12.45
-10.67
-7.38
-3.06
1.57
5.79
9.05
11.11
12.00
11.94
11.23
10.16
9.00
8.03
7.45
7.38
7.85
8.71
9.71
10.62
11.25
11.58
11.61
11.35
10.66
9.32
7.02
3.59
-0.95
-6.24
-11.64
-16.42
-19.93
-21.74
-21.67
-19.88
-16.77
-12.93
-9.02
-5.66
-3.25
-1.91
-1.45
-1.49
-1.62
-1.58
-1.31
-0.92
-0.59
-0.40
-0.34
-0.29
-0.13
0.15
0.47
0.70
0.68
0.26
-0.66
-2.09
-3.92
-5.80
-7.16
-7.28
-5.56
-1.88
3.24
8.67
12.99
15.02
14.26
10.99
6.11
0.71
-4.27
-8.27
-10.97
-12.25
-12.04
-10.36
-7.44
-3.73
0.13
3.59
6.28
8.10
9.17
9.61
9.56
9.03
7.99
6.39
4.17
1.34
-1.93
-5.22
-7.85
-9.06
-8.29
-5.47
-1.05
4.11
9.13
13.45
16.93
19.76
22.19
24.26
25.78
26.59
26.64
26.21
25.72
25.58
25.89
26.45
26.78
26.40
25.04
22.65
19.41
15.54
11.23
6.59
1.72
-3.14
-7.68
-11.58
-14.68
-17.06
-18.93
-20.37
-21.16
-20.73
-18.42
-13.91
-7.47
0.05
7.50
13.89
18.69
21.81
23.52
24.13
23.89
22.93
21.37
19.45
17.44
15.66
14.34
13.61
13.37
13.37
13.24
12.60
11.17
8.93
6.08
2.99
0.08
-2.35
-4.15
-5.35
-6.14
-6.76
-7.53
-8.78
-10.75
-13.49
-16.73
-19.90
-22.15
-22.73
-21.15
-17.48
-12.34
-6.67
-1.44
2.66
5.40
6.89
7.45
7.40
6.96
6.27
5.51
4.86
4.56
4.76
5.51
6.68
8.01
9.17
9.89
10.00
9.45
8.34
6.88
5.26
3.61
1.97
0.19
-1.89
-4.49
-7.75
-11.67
-16.07
-20.56
-24.52
-27.19
-27.85
-26.10
-22.00
-16.09
-9.25
-2.43
3.56
8.19
11.15
12.35
11.84
9.91
7.10
4.17
1.84
0.58
0.43
1.03
1.79
2.20
1.97
1.07
-0.37
-2.18
-4.21
-6.36
-8.55
-10.69
-12.72
-14.62
-16.46
-18.30
-20.08
-21.59
-22.35
-21.88
-19.84
-16.22
-11.34
-5.78
-0.08
5.40
10.50
15.16
19.22
22.42
24.38
24.86
23.87
21.73
19.03
16.35
14.11
12.47
11.22
9.93
8.18
5.73
2.67
-0.63
-3.67
-6.12
-7.91
-9.24
-10.39
-11.61
-12.99
-14.43
-15.63
-16.14
-15.44
-13.08
-8.87
-3.07
3.73
10.71
17.12
22.47
26.60
29.50
31.26
31.94
31.59
30.42
28.74
26.90
25.17
23.53
21.73
19.36
16.08
11.78
6.73
1.53
-3.19
-7.07
-10.28
-13.44
-17.35
-22.46
-28.55
-34.64
-39.35
-41.39
-40.04
-35.31
-27.82
-18.49
-8.24
2.13
11.97
20.70
27.83
33.01
36.02
36.88
35.73
32.81
28.37
22.71
16.23
9.44
2.94
-2.69
-6.95
-9.58
-10.53
-9.97
-8.17
-5.50
-2.41
0.62
3.14
4.76
5.30
4.79
3.52
1.90
0.39
-0.57
-0.69
0.17
1.97
4.46
7.20
9.70
11.54
12.42
12.27
11.16
9.25
6.69
3.65
0.25
-3.36
-7.08
-10.80
-14.48
-18.04
-21.32
-24.08
-26.15
-27.52
-28.38
-29.12
-30.05
-31.32
-32.83
-34.42
-35.97
-37.45
-38.86
-39.96
-40.28
-39.18
-36.15
-31.12
-24.55
-17.30
-10.35
-4.44
0.08
3.18
5.11
6.26
6.98
7.60
8.24
8.91
9.48
9.78
9.62
8.90
7.51
5.35
2.37
-1.32
-5.40
-9.41
-12.93
-15.74
-17.95
-19.87
-21.81
-23.80
-25.50
-26.33
-25.72
-23.36
-19.35
-14.15
-8.48
-3.00
1.77
5.56
8.33
10.23
11.42
12.07
12.37
12.51
12.71
13.13
13.73
14.21
14.13
13.10
11.05
8.31
5.46
3.06
1.28
-0.18
-2.04
-5.03
-9.42
-14.86
-20.21
-24.05
-25.17
-23.12
-18.51
-12.77
-7.57
-4.05
-2.39
-1.84
-1.18
0.78
4.71
10.57
17.62
24.28
28.33
27.25
19.27
4.76
-12.79
-27.21
-31.58
-20.95
5.32
43.23
85.70
125.37
157.16
179.32
192.82
199.92
203.06
204.48
206.44
211.23
220.49
234.00
249.09
261.22
265.78
260.18
244.99
223.61
200.51
179.24
161.24
145.96
131.98
118.28
104.84
92.33
81.28
71.57
62.43
52.92
42.64
31.92
21.63
12.55
4.92
-1.79
-8.64
-16.67
-26.31
-37.01
-47.31
-55.29
-59.33
-58.92
-55.05
-50.14
-47.28
-48.99
-56.18
-67.51
-79.86
-89.69
-94.56
-94.28
-91.03
-88.42
-90.06
-98.61
-115.52
-141.31
-175.61
-216.56
-259.82
-298.28
-323.10
-326.51
-305.00
-261.27
-203.57
-142.72
-87.99
-44.20
-11.37
13.15
31.60
43.99
48.34
42.66
27.17
5.10
-18.41
-38.52
-52.64
-61.17
-66.51
-71.27
-76.69
-82.33
-86.66
-88.33
-87.13
-84.16
-81.27
-80.15
-81.48
-84.77
-88.63
-91.48
-92.39
-91.45
-89.67
-88.24
-87.80
-88.03
-87.73
-85.56
-80.74
-73.50
-64.93
-56.53
-49.47
-44.26
-40.65
-37.89
-35.17
-31.90
-27.92
-23.32
-18.41
-13.53
-9.00
-5.17
-2.40
-1.05
-1.35
-3.24
-6.34
-10.03
-13.69
-16.96
-19.89
-22.84
-26.35
-30.80
-36.24
-42.33
-48.29
-53.08
-55.56
-54.83
-50.43
-42.63
-32.35
-20.92
-9.69
0.34
8.63
15.13
20.03
23.64
26.28
28.33
30.12
32.01
34.22
36.71
39.10
40.56
39.91
35.95
27.81
15.42
-0.43
-18.22
-36.24
-53.08
-67.82
-79.84
-88.53
-93.01
-92.45
-86.52
-75.94
-62.50
-48.40
-35.34
-23.65
-12.22
0.75
16.69
35.62
56.01
75.18
90.46
100.14
103.90
102.63
97.66
90.36
81.75
72.69
64.08
56.78
51.40
47.94
45.88
44.47
43.22
42.01
40.85
39.37
36.39
30.10
18.65
1.28
-20.97
-44.99
-66.29
-80.30
-83.86
-76.35
-59.98
-39.07
-18.45
-1.83
9.37
15.97
20.08
23.71
27.73
31.82
35.16
37.33
38.60
39.65
40.83
41.65
40.88
37.28
30.39
20.77
9.84
-0.91
-10.49
-18.69
-25.88
-32.71
-39.86
-48.00
-57.67
-69.19
-82.40
-96.38
-109.34
-118.86
-122.47
-118.42
-106.41
-87.90
-65.91
-44.21
-26.12
-13.43
-5.80
-0.98
4.20
12.44
24.82
40.48
57.13
72.10
83.36
90.09
92.65
92.08
89.47
85.61
80.96
75.94
71.19
67.58
66.02
67.01
70.31
74.98
79.56
82.54
82.66
79.10
71.27
58.69
41.02
18.48
-7.62
-34.64
-58.93
-76.90
-86.28
-87.07
-81.47
-72.92
-64.62
-58.28
-53.76
-49.73
-44.78
-38.46
-31.56
-25.55
-21.68
-20.11
-19.72
-18.58
-14.83
-7.52
3.01
15.44
28.05
39.35
48.49
55.15
59.34
61.07
60.18
56.37
49.27
38.49
23.74
4.92
-17.49
-42.06
-66.16
-86.22
-98.55
-100.59
-92.01
-75.09
-54.10
-33.85
-18.03
-8.01
-2.79
0.30
4.17
10.84
20.90
33.62
47.53
61.05
72.86
82.03
87.92
90.14
88.52
83.37
75.50
66.34
57.55
50.57
46.10
43.89
42.90
41.80
39.61
35.99
31.14
25.28
18.15
9.05
-2.65
-16.66
-31.36
-44.15
-52.54
-55.32
-53.19
-48.45
-43.72
-40.60
-38.92
-37.02
-32.82
-25.04
-13.77
-0.29
13.79
27.26
39.60
50.73
60.49
68.37
73.68
76.03
75.77
73.88
71.43
68.81
65.32
59.46
49.57
34.78
15.33
-7.52
-32.28
-57.96
-84.41
-111.86
-139.92
-166.69
-188.55
-201.16
-201.08
-187.46
-162.66
-131.43
-98.97
-68.92
-42.28
-17.81
6.47
31.66
57.18
81.11
101.31
116.48
126.63
132.73
136.02
137.31
136.75
134.05
128.85
121.00
110.77
98.76
85.79
72.79
60.49
49.28
39.00
28.89
17.67
3.75
-14.37
-37.52
-65.02
-94.20
-120.56
-138.78
-144.62
-136.62
-116.89
-90.31
-62.49
-37.40
-16.09
2.96
22.12
42.56
63.22
81.22
93.39
97.83
94.81
86.37
75.33
64.12
54.04
45.29
37.54
30.48
24.16
18.89
14.80
11.65
8.83
5.59
1.32
-4.57
-12.79
-24.41
-40.55
-61.58
-86.18
-110.86
-130.55
-140.14
-136.42
-119.42
-92.56
-61.30
-31.31
-6.61
11.40
23.83
33.36
42.85
54.28
68.15
83.58
98.89
112.28
122.30
128.02
128.94
124.81
115.72
102.28
85.89
68.64
52.86
40.48
32.43
28.36
26.97
26.49
25.22
21.97
16.07
7.26
-4.46
-18.84
-35.16
-51.94
-66.94
-77.48
-81.37
-77.84
-68.13
-55.28
-42.98
-34.02
-29.13
-26.77
-24.03
-18.17
-7.99
5.72
20.69
34.37
44.90
51.60
54.75
54.96
52.66
47.98
41.00
32.09
22.12
12.33
4.09
-1.52
-4.10
-4.24
-3.65
-4.95
-11.07
-24.31
-45.31
-72.38
-101.47
-127.07
-143.75
-147.79
-138.37
-117.84
-90.98
-63.53
-40.41
-24.30
-14.99
-9.84
-5.02
2.81
15.29
31.90
50.47
68.29
83.21
94.14
101.11
104.62
105.14
102.87
97.97
90.84
82.42
73.99
66.81
61.65
58.50
56.71
55.35
53.75
51.65
48.99
45.48
40.34
32.37
20.58
5.04
-12.49
-28.93
-40.84
-45.89
-43.85
-36.69
-27.50
-19.09
-12.81
-8.29
-4.15
0.98
7.52
14.81
21.57
26.69
29.75
31.16
31.74
32.19
32.77
33.15
32.79
31.26
28.66
25.63
22.96
21.12
19.77
17.80
13.70
6.18
-5.30
-20.31
-37.70
-56.09
-74.25
-91.40
-107.14
-121.11
-132.70
-140.86
-144.35
-142.15
-134.07
-121.04
-104.91
-87.84
-71.58
-56.94
-43.96
-32.40
-22.30
-14.15
-8.56
-5.65
-4.75
-4.52
-3.55
-1.12
2.46
5.99
7.89
6.92
2.53
-5.00
-14.72
-25.34
-35.47
-43.90
-49.68
-52.24
-51.43
-47.72
-42.22
-36.49
-32.06
-29.73
-29.15
-28.74
-26.40
-20.51
-10.71
1.85
15.13
27.20
37.09
45.00
51.79
58.19
64.15
68.90
71.39
71.02
68.11
63.85
59.88
57.68
58.12
61.09
65.62
70.27
73.64
75.01
74.69
74.05
75.13
79.73
88.57
100.61
113.05
122.00
123.82
116.55
100.88
80.35
60.38
46.38
41.59
45.77
55.03
63.47
65.41
57.64
40.83
19.62
1.43
-5.72
3.89
31.19
71.38
114.90
150.30
167.91
162.94
136.85
96.60
52.00
12.39
-16.36
-33.09
-40.81
-44.32
-47.49
-51.25
-53.34
-50.41
-40.90
-26.95
-13.73
-6.49
-6.81
-11.09
-12.11
-2.95
18.79
49.34
80.44
103.38
113.54
112.52
107.07
105.21
112.00
126.69
143.07
152.44
147.59
125.51
87.75
38.59
-17.31
-75.98
-133.69
-185.50
-224.79
-244.66
-240.70
-213.28
-167.85
-113.13
-57.93
-9.01
29.95
57.96
75.67
84.54
86.28
82.39
73.73
60.55
42.86
21.43
-1.71
-23.61
-41.65
-54.83
-64.18
-71.83
-79.13
-85.38
-87.94
-83.97
-72.47
-55.35
-36.83
-21.46
-12.09
-8.92
-9.85
-12.05
-13.47
-13.63
-13.32
-13.59
-14.81
-16.25
-16.44
-14.02
-8.52
-0.76
7.50
14.31
18.38
19.56
18.81
17.70
17.80
20.20
25.48
34.08
46.68
64.10
86.64
113.07
139.92
162.07
174.26
173.33
159.64
136.99
110.87
86.08
64.95
47.05
30.43
13.24
-5.26
-24.83
-44.99
-65.48
-85.82
-104.36
-117.83
-121.96
-113.26
-90.73
-56.68
-15.92
26.21
65.79
101.19
132.66
161.10
187.03
210.27
230.32
246.91
260.09
269.78
275.31
275.22
267.84
252.00
227.84
196.72
160.86
122.37
82.60
41.85
-0.38
-45.05
-93.12
-145.05
-200.30
-256.82
-310.96
-357.94
-393.10
-413.28
-418.03
-409.77
-392.85
-372.05
-351.07
-331.80
-314.51
-298.57
-283.31
-268.44
-254.05
-240.32
-227.23
-214.39
-201.16
-186.79
-170.68
-152.68
-133.09
-112.53
-91.68
-71.01
-50.61
-30.48
-10.80
7.87
24.63
38.59
49.31
57.06
62.70
67.38
72.05
77.05
82.02
86.03
87.95
86.87
82.44
74.86
64.81
53.14
40.52
27.50
14.46
1.84
-9.78
-19.80
-27.92
-34.32
-39.69
-44.95
-50.83
-57.48
-64.37
-70.48
-74.61
-75.90
-74.03
-69.28
-62.37
-54.14
-45.29
-36.23
-27.13
-18.10
-9.36
-1.26
5.85
11.60
15.92
18.87
20.68
21.52
21.45
20.34
18.00
14.34
9.52
3.96
-1.86
-7.79
-14.31
-22.40
-33.05
-46.53
-61.85
-76.86
-88.99
-96.29
-98.22
-95.80
-90.99
-85.86
-81.84
-79.36
-78.07
-77.02
-75.04
-70.98
-64.03
-54.14
-42.14
-29.61
-18.34
-9.62
-3.77
-0.09
2.69
5.88
10.37
16.49
24.09
32.68
41.54
49.59
55.52
58.01
56.30
50.55
42.04
32.82
25.00
19.93
17.64
17.05
16.40
14.23
9.92
4.04
-2.06
-6.78
-8.99
-8.33
-5.36
-1.35
2.25
4.24
4.06
2.01
-0.93
-3.53
-4.92
-4.87
-4.01
-3.37
-4.02
-6.61
-11.02
-16.20
-20.05
-19.65
-11.94
4.93
30.20
59.70
86.54
103.28
104.87
90.84
65.72
37.17
12.87
-2.31
-7.59
-5.56
-0.26
4.79
7.61
7.66
5.16
0.38
-6.46
-14.87
-23.73
-31.32
-35.89
-36.47
-33.49
-28.73
-24.70
-23.54
-26.21
-32.28
-40.29
-48.57
-56.05
-62.61
-68.90
-75.85
-83.86
-92.34
-99.64
-103.56
-102.12
-94.38
-80.80
-63.19
-44.09
-25.93
-10.49
1.56
10.54
17.57
24.09
31.47
40.59
51.49
63.31
74.49
83.25
88.32
89.40
87.20
83.24
79.19
76.29
74.97
74.76
74.52
72.97
69.17
62.92
54.79
45.87
37.37
30.11
24.29
19.48
14.71
8.72
0.20
-11.90
-27.93
-47.08
-67.25
-85.22
-97.50
-101.43
-96.30
-83.70
-66.98
-49.87
-35.06
-23.28
-13.47
-3.88
6.79
18.69
30.91
42.15
51.16
56.95
58.55
54.82
44.81
28.37
6.65
-17.81
-41.94
-63.26
-80.84
-95.53
-109.37
-124.49
-142.25
-162.69
-184.50
-205.46
-222.91
-234.29
-237.63
-232.03
-217.85
-196.72
-171.30
-144.68
-119.64
-97.88
-79.59
-63.47
-47.19
-28.28
-4.87
23.70
56.70
92.20
127.50
159.66
186.03
204.78
215.18
217.66
213.50
204.36
191.80
177.11
161.37
145.64
131.05
118.70
109.30
102.96
99.20
97.09
95.52
93.51
90.32
85.64
79.55
