1660321910.00
64.000000
-0.00
-0.00
-0.00
-0.00
-0.00
-0.00
-0.00
-0.00
-0.00
-0.00
0.00
0.01
0.01
-0.00
-0.03
-0.05
-0.05
0.00
0.13
0.36
0.66
1.01
1.37
1.72
2.06
2.40
2.79
3.24
3.80
4.42
5.06
5.66
6.20
6.68
7.15
7.68
8.31
9.14
10.09
11.04
11.89
12.57
13.14
13.76
14.65
15.96
17.91
20.31
22.91
25.41
27.63
29.63
31.70
34.26
37.61
42.16
47.58
53.39
59.02
64.11
68.70
73.22
78.35
84.59
92.49
101.58
111.10
120.18
128.24
135.25
141.75
149.01
155.73
164.20
175.12
188.71
203.81
217.45
225.16
222.10
204.74
172.19
126.95
73.15
15.36
-43.03
-100.56
-157.28
-213.71
-269.89
-325.01
-377.36
-425.51
-468.25
-504.71
-534.14
-555.64
-568.13
-570.36
-561.35
-540.50
-508.30
-466.16
-416.29
-361.38
-304.14
-246.96
-191.80
-140.36
-93.94
-53.52
-18.96
11.26
39.96
70.28
104.34
142.06
181.01
217.29
247.06
267.96
279.62
283.18
280.35
272.56
260.86
246.13
229.50
212.39
196.13
181.55
168.67
156.88
145.27
133.14
120.27
106.99
93.97
81.99
71.68
63.30
56.62
51.03
45.77
40.17
34.08
27.63
21.28
15.57
10.83
7.12
4.23
1.89
-0.06
-1.62
-2.74
-3.40
-3.71
-3.88
-4.16
-4.67
-5.39
-6.18
-6.89
-7.45
-7.86
-8.13
-8.32
-8.40
-8.33
-8.11
-7.74
-7.27
-6.78
-6.34
-6.00
-5.79
-5.65
-5.53
-5.29
-4.84
-4.18
-3.40
-2.75
-2.44
-2.58
-3.07
-3.64
-3.98
-3.88
-3.35
-2.54
-1.70
-0.98
-0.44
-0.06
0.19
0.31
0.20
-0.16
-0.75
-1.39
-1.91
-2.15
-2.10
-1.84
-1.52
-1.26
-1.08
-0.95
-0.82
-0.66
-0.51
-0.46
-0.53
-0.73
-1.00
-1.21
-1.27
-1.10
-0.72
-0.19
0.40
0.95
1.46
2.01
2.72
3.63
4.75
5.96
7.03
7.79
8.10
7.92
7.32
6.42
5.32
4.13
2.80
1.35
-0.20
-1.74
-3.17
-4.35
-5.20
-5.75
-6.08
-6.31
-6.55
-6.84
-7.11
-7.24
-7.12
-6.72
-6.11
-5.47
-4.97
-4.73
-4.76
-4.94
-5.15
-5.28
-5.20
-4.87
-4.26
-3.40
-2.38
-1.36
-0.53
0.00
0.23
0.22
0.09
-0.07
-0.23
-0.42
-0.68
-1.02
-1.43
-1.81
-2.06
-2.10
-1.93
-1.63
-1.34
-1.21
-1.33
-1.67
-2.14
-2.61
-2.97
-3.13
-3.05
-2.75
-2.33
-1.95
-1.76
-1.86
-2.23
-2.68
-2.98
-2.90
-2.33
-1.29
0.07
1.55
2.97
4.20
5.12
5.66
5.77
5.48
4.86
4.06
3.24
2.53
2.00
1.64
1.38
1.16
0.89
0.56
0.23
-0.02
-0.09
0.04
0.30
0.54
0.59
0.36
-0.15
-0.84
-1.61
-2.34
-2.96
-3.37
-3.50
-3.33
-2.87
-2.22
-1.48
-0.71
0.08
0.88
1.67
2.33
2.71
2.68
2.23
1.52
0.79
0.29
0.17
0.39
0.79
1.16
1.34
1.28
1.03
0.69
0.37
0.11
-0.11
-0.37
-0.71
-1.13
-1.57
-1.95
-2.21
-2.34
-2.35
-2.24
-1.98
-1.48
-0.68
0.39
1.63
2.83
3.73
4.17
4.08
3.57
2.83
2.08
1.49
1.09
0.81
0.53
0.15
-0.33
-0.86
-1.32
-1.66
-1.87
-2.03
-2.18
-2.32
-2.41
-2.41
-2.34
-2.29
-2.42
-2.84
-3.53
-4.35
-5.03
-5.34
-5.16
-4.53
-3.58
-2.49
-1.37
-0.31
0.67
1.53
2.20
2.67
2.99
3.24
3.51
3.83
4.14
4.31
4.25
3.92
3.41
2.83
2.28
1.79
1.33
0.86
0.40
0.00
-0.27
-0.40
-0.46
-0.58
-0.86
-1.35
-1.98
-2.63
-3.17
-3.52
-3.62
-3.47
-3.08
-2.48
-1.71
-0.88
-0.06
0.64
1.17
1.55
1.83
2.07
2.28
2.43
2.43
2.24
1.87
1.38
0.91
0.56
0.37
0.29
0.22
0.11
-0.05
-0.22
-0.31
-0.32
-0.30
-0.34
-0.51
-0.79
-1.10
-1.36
-1.49
-1.48
-1.36
-1.17
-0.91
-0.56
-0.10
0.49
1.17
1.85
2.45
2.87
3.07
3.07
2.93
2.72
2.48
2.23
1.91
1.52
1.07
0.61
0.21
-0.03
-0.11
-0.05
0.07
0.17
0.19
0.08
-0.19
-0.59
-1.09
-1.61
-2.04
-2.28
-2.30
-2.11
-1.80
-1.45
-1.13
-0.79
-0.37
0.21
0.96
1.78
2.49
2.94
3.00
2.68
2.08
1.36
0.70
0.25
0.10
0.20
0.46
0.70
0.78
0.60
0.19
-0.33
-0.83
-1.17
-1.33
-1.34
-1.34
-1.43
-1.67
-2.03
-2.42
-2.71
-2.78
-2.60
-2.18
-1.60
-0.95
-0.28
0.33
0.85
1.26
1.53
1.68
1.73
1.70
1.62
1.51
1.36
1.17
0.91
0.59
0.20
-0.21
-0.58
-0.82
-0.88
-0.74
-0.51
-0.30
-0.23
-0.36
-0.65
-1.04
-1.46
-1.89
-2.34
-2.77
-3.10
-3.22
-3.02
-2.47
-1.67
-0.84
-0.18
0.16
0.18
-0.03
-0.30
-0.48
-0.53
-0.46
-0.35
-0.28
-0.32
-0.53
-0.93
-1.52
-2.25
-3.03
-3.75
-4.29
-4.62
-4.77
-4.88
-5.10
-5.55
-6.28
-7.19
-8.14
-8.91
-9.33
-9.28
-8.70
-7.63
-6.18
-4.46
-2.59
-0.61
1.41
3.40
5.27
6.87
8.08
8.84
9.18
9.21
9.06
8.82
8.51
8.14
7.69
7.21
6.76
6.37
6.03
5.69
5.28
4.79
4.24
3.66
3.13
2.67
2.25
1.83
1.35
0.82
0.26
-0.22
-0.55
-0.68
-0.62
-0.46
-0.23
0.03
0.35
0.78
1.30
1.87
2.40
2.80
3.03
3.10
2.98
2.66
2.14
1.49
0.82
0.28
-0.03
-0.13
-0.09
-0.03
-0.01
-0.02
-0.04
-0.05
-0.11
-0.25
-0.48
-0.76
-0.99
-1.14
-1.23
-1.33
-1.51
-1.79
-2.07
-2.22
-2.12
-1.71
-1.04
-0.19
0.72
1.57
2.30
2.85
3.21
3.38
3.41
3.36
3.31
3.39
3.67
4.17
4.87
5.71
6.58
7.41
8.16
8.82
9.40
9.96
10.54
11.17
11.89
12.71
13.70
14.92
16.46
18.33
20.49
22.83
25.22
27.63
30.11
32.86
36.05
39.85
44.29
49.30
54.65
59.90
64.44
67.50
68.37
66.68
62.54
56.56
49.74
43.06
37.31
32.94
30.18
29.18
30.10
33.07
37.98
44.37
51.38
57.88
62.66
64.70
63.35
58.48
50.49
40.22
28.73
17.05
5.98
-3.98
-12.52
-19.47
-24.68
-28.17
-30.19
-31.23
-31.86
-32.42
-32.79
-32.34
-30.26
-25.94
-19.36
-11.21
-2.71
4.75
9.91
11.86
10.10
4.49
-4.73
-16.87
-30.77
-44.87
-57.49
-67.20
-73.22
-75.52
-74.79
-72.13
-68.70
-65.37
-62.63
-60.58
-59.05
-57.77
-56.45
-54.85
-52.82
-50.34
-47.45
-44.28
-41.03
-37.94
-35.29
-33.26
-31.91
-31.08
-30.44
-29.67
-28.57
-27.18
-25.74
-24.50
-23.64
-23.15
-22.91
-22.78
-22.68
-22.62
-22.66
-22.76
-22.83
-22.70
-22.28
-21.58
-20.74
-19.98
-19.50
-19.41
-19.68
-20.18
-20.70
-20.97
-20.71
-19.75
-18.03
-15.71
-13.06
-10.45
-8.13
-6.19
-4.55
-3.08
-1.67
-0.38
0.62
1.19
1.35
1.32
1.45
2.10
3.41
5.26
7.27
8.94
9.77
9.44
7.91
5.44
2.55
-0.13
-2.07
-3.05
-3.23
-3.10
-3.25
-4.09
-5.69
-7.73
-9.64
-10.93
-11.29
-10.78
-9.65
-8.24
-6.71
-5.09
-3.27
-1.26
0.81
2.63
3.95
4.70
5.12
5.66
6.75
8.53
10.73
12.74
13.88
13.66
11.88
8.74
4.67
0.30
-3.68
-6.63
-8.13
-8.17
-7.17
-5.92
-5.28
-5.82
-7.57
-9.98
-12.26
-13.67
-13.90
-13.08
-11.61
-9.88
-8.10
-6.29
-4.35
-2.29
-0.24
1.61
3.13
4.38
5.55
6.93
8.70
10.89
13.29
15.53
17.11
17.57
16.53
13.88
9.86
5.00
0.10
-4.04
-6.85
-8.16
-8.31
-7.95
-7.81
-8.39
-9.75
-11.58
-13.33
-14.54
-14.99
-14.75
-14.05
-13.15
-12.14
-11.02
-9.74
-8.29
-6.70
-5.02
-3.16
-0.93
1.92
5.48
9.53
13.46
16.43
17.64
16.69
13.80
9.78
5.72
2.58
0.86
0.45
0.86
1.47
1.87
1.90
1.61
1.13
0.52
-0.23
-1.16
-2.24
-3.34
-4.30
-5.02
-5.45
-5.67
-5.79
-5.91
-6.05
-6.19
-6.24
-6.05
-5.50
-4.47
-2.90
-0.76
1.89
4.88
7.83
10.19
11.43
11.23
9.69
7.40
5.17
3.69
3.20
3.42
3.78
3.72
3.05
1.98
0.91
0.13
-0.38
-0.89
-1.74
-3.09
-4.79
-6.44
-7.60
-7.88
-7.14
-5.46
-3.04
-0.21
2.77
5.67
8.35
10.76
12.97
15.17
17.57
20.30
23.20
25.79
27.32
27.11
24.83
20.75
15.64
10.46
6.04
2.75
0.59
-0.68
-1.31
-1.43
-1.16
-0.67
-0.25
-0.25
-0.94
-2.37
-4.35
-6.50
-8.37
-9.61
-9.97
-9.42
-8.02
-5.94
-3.33
-0.32
2.98
6.43
9.86
13.06
15.78
17.83
18.97
19.04
17.94
15.72
12.66
9.23
6.03
3.59
2.18
1.73
1.90
2.21
2.27
1.87
1.05
0.02
-0.98
-1.73
-2.12
-2.09
-1.62
-0.71
0.63
2.27
3.91
5.15
5.60
5.09
3.79
2.18
0.85
0.24
0.45
1.31
2.46
3.55
4.39
4.88
5.01
4.69
3.84
2.44
0.60
-1.43
-3.36
-4.90
-5.89
-6.24
-5.97
-5.13
-3.86
-2.33
-0.72
0.78
2.09
3.24
4.35
5.57
6.98
8.59
10.31
11.96
13.30
13.96
13.60
11.97
9.16
5.63
2.19
-0.35
-1.46
-1.13
0.05
1.25
1.67
0.90
-0.99
-3.60
-6.35
-8.76
-10.59
-11.78
-12.43
-12.67
-12.62
-12.31
-11.74
-10.90
-9.80
-8.50
-7.08
-5.65
-4.29
-3.02
-1.85
-0.76
0.20
0.92
1.31
1.33
1.11
0.94
1.12
1.79
2.80
3.69
3.94
3.26
1.81
0.15
-1.04
-1.29
-0.64
0.42
1.27
1.44
0.92
0.02
-0.80
-1.22
-1.18
-0.79
-0.20
0.52
1.39
2.40
3.49
4.49
5.21
5.54
5.48
5.12
4.64
4.18
3.86
3.78
3.95
4.33
4.78
5.13
5.16
4.79
4.02
3.01
1.96
1.09
0.54
0.33
0.43
0.75
1.18
1.61
1.99
2.32
2.66
3.08
3.67
4.43
5.28
6.08
6.69
7.03
7.11
7.03
6.88
6.73
6.57
6.34
5.99
5.50
4.90
4.21
3.42
2.52
1.50
0.45
-0.47
-1.07
-1.23
-0.97
-0.44
0.13
0.52
0.64
0.51
0.23
-0.02
-0.13
0.01
0.44
1.13
1.96
2.77
3.43
3.87
4.08
4.10
3.94
3.55
2.88
1.95
0.91
-0.02
-0.72
-1.21
-1.71
-2.45
-3.45
-4.48
-5.13
-5.04
-4.13
-2.71
-1.28
-0.25
0.22
0.34
0.43
0.73
1.28
1.88
2.33
2.55
2.68
3.02
3.80
5.08
6.65
8.09
8.98
9.04
8.29
6.96
5.45
4.10
3.16
2.70
2.69
3.00
3.46
3.85
4.02
3.90
3.66
3.60
4.10
5.36
7.23
9.28
10.91
11.75
11.78
11.37
11.01
11.06
11.52
12.09
12.44
12.35
11.92
11.42
11.17
11.28
11.62
11.86
11.54
10.29
7.88
4.29
-0.23
-5.26
-10.20
-14.46
-17.60
-19.43
-20.06
-19.89
-19.37
-18.86
-18.53
-18.30
-17.97
-17.36
-16.44
-15.31
-14.13
-12.97
-11.77
-10.37
-8.62
-6.54
-4.30
-2.13
-0.19
1.53
3.17
4.89
6.72
8.51
10.00
10.97
11.31
11.04
10.27
9.11
7.58
5.70
3.50
1.12
-1.21
-3.28
-4.92
-6.04
-6.68
-6.93
-6.97
-7.02
-7.28
-7.88
-8.76
-9.70
-10.34
-10.38
-9.73
-8.58
-7.30
-6.28
-5.67
-5.34
-4.94
-4.14
-2.81
-1.04
0.88
2.68
4.15
5.18
5.64
5.38
4.28
2.48
0.39
-1.38
-2.32
-2.34
-1.84
-1.55
-2.05
-3.46
-5.31
-6.77
-7.18
-6.36
-4.71
-2.95
-1.64
-0.92
-0.43
0.40
1.98
4.38
7.18
9.83
11.81
12.93
13.34
13.39
13.46
13.86
14.77
16.24
18.25
20.62
22.93
24.53
24.67
22.79
18.82
13.29
7.25
1.88
-1.93
-3.87
-4.32
-4.01
-3.70
-3.83
-4.46
-5.36
-6.29
-7.16
-8.04
-9.05
-10.16
-11.12
-11.55
-11.09
-9.56
-7.14
-4.19
-1.25
1.21
2.84
3.52
3.33
2.56
1.61
0.87
0.55
0.59
0.62
0.18
-1.05
-3.06
-5.41
-7.41
-8.37
-7.92
-6.14
-3.56
-0.86
1.41
2.97
3.92
4.58
5.29
6.27
7.59
9.27
11.28
13.57
15.90
17.76
18.44
17.35
14.31
9.79
4.87
0.79
-1.51
-1.85
-0.88
0.26
0.46
-0.90
-3.68
-7.21
-10.63
-13.25
-14.82
-15.48
-15.57
-15.45
-15.30
-15.20
-15.09
-14.96
-14.81
-14.67
-14.51
-14.26
-13.82
-13.08
-11.96
-10.45
-8.63
-6.64
-4.68
-2.93
-1.46
-0.20
1.01
2.33
3.76
5.09
5.96
6.03
5.18
3.51
1.34
-0.97
-3.18
-5.13
-6.75
-7.92
-8.52
-8.45
-7.75
-6.67
-5.54
-4.67
-4.20
-4.05
-3.97
-3.68
-3.03
-2.00
-0.70
0.72
2.15
3.55
4.88
6.03
6.84
7.08
6.58
5.32
3.48
1.37
-0.65
-2.28
-3.29
-3.61
-3.34
-2.72
-2.07
-1.72
-1.88
-2.52
-3.39
-4.10
-4.33
-3.95
-3.06
-1.97
-1.01
-0.39
-0.16
-0.22
-0.38
-0.44
-0.27
0.19
0.96
1.99
3.20
4.48
5.73
6.84
7.72
8.26
8.43
8.23
7.71
6.97
6.03
4.83
3.26
1.27
-1.06
-3.39
-5.29
-6.38
-6.60
-6.21
-5.67
-5.39
-5.49
-5.77
-5.85
-5.46
-4.58
-3.47
-2.41
-1.58
-0.91
-0.15
0.91
2.35
4.01
5.63
6.91
7.70
8.07
8.26
8.52
9.00
9.62
10.04
9.83
8.70
6.59
3.73
0.56
-2.47
-5.00
-6.77
-7.63
-7.52
-6.55
-4.95
-3.13
-1.53
-0.51
-0.14
-0.29
-0.67
-1.00
-1.11
-0.92
-0.43
0.33
1.28
2.27
3.15
3.73
3.93
3.73
3.23
2.56
1.83
1.15
0.53
-0.08
-0.85
-1.99
-3.64
-5.76
-8.04
-9.98
-11.08
-11.06
-9.99
-8.29
-6.53
-5.15
-4.31
-3.89
-3.63
-3.27
-2.69
-1.95
-1.18
-0.55
-0.15
0.06
0.15
0.24
0.34
0.43
0.45
0.34
0.15
-0.03
-0.08
0.05
0.34
0.74
1.19
1.67
2.20
2.79
3.37
3.90
4.38
4.94
5.71
6.79
8.07
9.30
10.22
10.68
10.80
10.83
11.02
11.45
12.00
12.47
12.70
12.71
12.62
12.54
12.48
12.32
11.93
11.27
10.43
9.58
8.79
7.96
6.82
5.07
2.61
-0.32
-3.22
-5.54
-6.93
-7.38
-7.21
-6.77
-6.26
-5.64
-4.72
-3.39
-1.78
-0.24
0.87
1.42
1.57
1.73
2.27
3.31
4.69
6.05
7.11
7.79
8.27
8.82
9.61
10.61
11.59
12.24
12.29
11.59
10.06
7.72
4.66
1.03
-2.93
-7.01
-11.01
-14.89
-18.61
-22.09
-25.08
-27.17
-27.94
-27.20
-25.06
-21.93
-18.31
-14.58
-10.88
-7.12
-3.16
1.02
5.20
9.06
12.29
14.74
16.56
18.06
19.57
21.28
23.16
24.94
26.25
26.71
25.97
23.72
19.82
14.33
7.67
0.53
-6.22
-11.91
-16.28
-19.55
-22.19
-24.65
-27.03
-29.06
-30.28
-30.35
-29.32
-27.55
-25.63
-24.00
-22.84
-21.95
-20.90
-19.24
-16.68
-13.24
-9.21
-5.05
-1.22
2.00
4.55
6.51
8.05
9.34
10.52
11.79
13.31
15.15
17.09
18.59
18.92
17.42
13.90
8.77
2.99
-2.27
-6.11
-8.16
-8.70
-8.33
-7.68
-7.13
-6.75
-6.44
-6.11
-5.78
-5.57
-5.58
-5.78
-5.97
-5.95
-5.59
-4.96
-4.23
-3.60
-3.16
-2.88
-2.65
-2.40
-2.07
-1.62
-1.03
-0.30
0.46
1.00
1.03
0.36
-0.91
-2.35
-3.39
-3.55
-2.74
-1.23
0.47
1.87
2.76
3.21
3.51
3.97
4.80
6.01
7.47
8.97
10.31
11.32
11.93
12.14
12.07
11.87
11.77
11.96
12.50
13.30
13.99
14.06
12.96
10.35
6.33
1.42
-3.52
-7.65
-10.35
-11.48
-11.32
-10.39
-9.22
-8.15
-7.26
-6.46
-5.60
-4.59
-3.46
-2.30
-1.21
-0.26
0.55
1.24
1.82
2.30
2.70
3.08
3.52
4.04
4.59
4.92
4.73
3.82
2.25
0.37
-1.36
-2.60
-3.36
-3.95
-4.83
-6.26
-8.12
-9.95
-11.18
-11.42
-10.64
-9.16
-7.42
-5.78
-4.35
-3.08
-1.82
-0.50
0.83
2.08
3.15
4.06
4.91
5.83
6.81
7.68
8.20
8.17
7.63
6.86
6.25
6.06
6.28
6.56
6.40
5.42
3.53
1.01
-1.63
-3.90
-5.50
-6.41
-6.81
-6.97
-7.08
-7.23
-7.41
-7.54
-7.58
-7.50
-7.29
-6.92
-6.31
-5.36
-4.01
-2.27
-0.32
1.59
3.17
4.28
4.91
5.27
5.58
5.98
6.49
6.97
7.20
6.99
6.22
4.87
3.01
0.85
-1.30
-3.13
-4.39
-5.06
-5.28
-5.33
-5.48
-5.85
-6.35
-6.82
-7.06
-6.97
-6.48
-5.57
-4.18
-2.31
-0.01
2.50
4.93
6.97
8.39
9.16
9.40
9.35
9.28
9.43
9.94
10.82
11.93
12.97
13.56
13.32
12.03
9.79
7.00
4.28
2.24
1.25
1.33
2.14
3.20
4.03
4.37
4.20
3.71
3.14
2.71
2.50
2.51
2.64
2.80
2.92
2.99
3.04
3.15
3.41
3.88
4.59
5.55
6.79
8.31
10.07
11.93
13.65
14.92
15.46
15.22
14.40
13.44
12.71
12.34
12.04
11.23
9.34
6.25
2.37
-1.45
-4.34
-5.87
-6.27
-6.21
-6.40
-7.22
-8.48
-9.67
-10.25
-10.02
-9.17
-8.17
-7.45
-7.18
-7.31
-7.59
-7.83
-7.94
-7.98
-8.04
-8.29
-8.84
-9.79
-11.23
-13.17
-15.53
-18.11
-20.61
-22.70
-24.07
-24.56
-24.19
-23.15
-21.74
-20.25
-18.87
-17.70
-16.65
-15.56
-14.22
-12.46
-10.24
-7.66
-4.92
-2.28
0.04
1.91
3.26
4.16
4.71
5.11
5.60
6.38
7.50
8.82
9.96
10.50
10.16
8.94
7.14
5.19
3.46
2.08
0.99
0.05
-0.82
-1.60
-2.16
-2.38
-2.22
-1.69
-0.88
0.15
1.38
2.81
4.51
6.53
8.93
11.64
14.44
17.01
19.07
20.44
21.20
21.61
21.92
22.31
22.78
23.20
23.47
23.60
23.63
23.55
23.22
22.37
20.73
18.22
15.03
11.56
8.28
5.53
3.37
1.60
-0.11
-2.07
-4.37
-6.82
-9.05
-10.72
-11.64
-11.88
-11.67
-11.25
-10.73
-10.11
-9.37
-8.55
-7.81
-7.29
-6.97
-6.62
-5.91
-4.62
-2.83
-0.91
0.49
0.73
-0.65
-3.82
-8.52
-14.20
-20.06
-25.24
-29.12
-31.48
-32.63
-33.19
-33.85
-35.02
-36.61
-38.14
-38.97
-38.63
-37.01
-34.40
-31.26
-28.00
-24.77
-21.44
-17.69
-13.25
-8.09
-2.50
3.05
8.04
12.11
15.18
17.45
19.25
20.97
22.94
25.42
28.56
32.25
36.00
38.85
39.60
37.19
31.27
22.47
12.32
2.73
-4.70
-9.20
-10.95
-10.76
-9.63
-8.33
-7.27
-6.67
-6.59
-7.13
-8.31
-10.02
-11.93
-13.59
-14.54
-14.50
-13.51
-11.88
-10.13
-8.74
-8.01
-7.98
-8.43
-8.98
-9.31
-9.21
-8.69
-7.90
-7.06
-6.44
-6.21
-6.41
-6.92
-7.48
-7.77
-7.52
-6.66
-5.35
-3.87
-2.52
-1.47
-0.68
0.08
1.09
2.53
4.41
6.53
8.60
10.41
11.85
12.99
13.97
14.98
16.16
17.61
19.39
21.41
23.40
24.87
25.24
24.00
21.03
16.73
11.91
7.52
4.27
2.38
1.53
1.08
0.44
-0.70
-2.27
-3.93
-5.23
-5.87
-5.77
-5.03
-3.85
-2.48
-1.06
0.31
1.62
2.87
4.06
5.16
6.17
7.11
8.04
8.96
9.77
10.23
10.05
9.02
7.15
4.70
2.09
-0.33
-2.44
-4.39
-6.40
-8.62
-10.91
-12.91
-14.20
-14.52
-13.92
-12.61
-10.93
-9.10
-7.22
-5.28
-3.24
-1.15
0.88
2.71
4.29
5.60
6.70
7.61
8.31
8.75
8.90
8.83
8.63
8.41
8.19
7.89
7.34
6.37
4.92
3.07
1.03
-0.92
-2.50
-3.56
-4.09
-4.23
-4.23
-4.35
-4.80
-5.59
-6.56
-7.46
-8.00
-8.06
-7.61
-6.80
-5.78
-4.69
-3.58
-2.44
-1.25
-0.06
1.03
1.94
2.61
3.12
3.55
3.96
4.28
4.32
3.86
2.80
1.18
-0.82
-2.96
-5.10
-7.16
-9.14
-10.95
-12.40
-13.30
-13.55
-13.30
-12.83
-12.46
-12.34
-12.38
-12.27
-11.72
-10.56
-8.89
-6.92
-4.87
-2.85
-0.84
1.22
3.28
5.19
6.73
7.75
8.28
8.51
8.79
9.39
10.41
11.76
13.15
14.18
14.48
13.82
12.15
9.72
6.96
4.48
2.81
2.30
2.89
4.18
5.56
6.46
6.59
6.08
5.33
4.84
4.91
5.52
6.33
6.89
6.82
6.09
4.93
3.80
3.15
3.15
3.68
4.30
4.49
3.90
2.49
0.54
-1.52
-3.26
-4.47
-5.16
-5.50
-5.69
-5.90
-6.15
-6.37
-6.43
-6.23
-5.69
-4.85
-3.78
-2.56
-1.23
0.26
1.97
3.93
6.02
8.00
9.61
10.63
11.04
10.97
10.68
10.42
10.46
10.95
11.94
13.28
14.58
15.24
14.63
12.31
8.22
2.74
-3.34
-9.13
-13.82
-16.93
-18.38
-18.38
-17.35
-15.77
-14.05
-12.47
-11.21
-10.32
-9.78
-9.47
-9.24
-8.88
-8.20
-7.09
-5.57
-3.84
-2.17
-0.87
-0.10
0.16
0.13
0.07
0.20
0.52
0.85
0.87
0.27
-1.09
-3.15
-5.69
-8.38
-10.93
-13.09
-14.66
-15.50
-15.58
-14.94
-13.78
-12.40
-11.11
-10.10
-9.40
-8.85
-8.20
-7.25
-5.95
-4.37
-2.72
-1.16
0.18
1.30
2.30
3.27
4.23
5.16
5.93
6.41
6.52
6.28
5.83
5.37
5.09
5.14
5.51
6.10
6.71
7.14
7.22
6.90
6.27
5.59
5.18
5.40
6.44
8.29
10.66
13.04
14.90
15.89
15.98
15.48
14.87
14.55
14.68
15.16
15.77
16.26
16.55
16.59
16.39
15.87
14.97
13.63
11.87
9.75
7.23
4.22
0.54
-3.82
-8.58
-13.20
-17.00
-19.46
-20.48
-20.36
-19.64
-18.81
-18.15
-17.66
-17.16
-16.45
-15.46
-14.24
-12.91
-11.54
-10.13
-8.60
-6.83
-4.77
-2.43
0.08
2.63
5.06
7.33
9.42
11.35
13.16
14.80
16.19
17.22
17.80
17.93
17.67
17.07
16.05
14.36
11.68
7.81
2.89
-2.57
-7.75
-11.84
-14.33
-15.19
-14.83
-13.85
-12.81
-11.99
-11.41
-10.87
-10.17
-9.13
-7.74
-6.07
-4.29
-2.58
-1.12
0.01
0.76
1.18
1.31
1.26
1.15
1.10
1.14
1.17
0.95
0.20
-1.18
-3.06
-5.06
-6.73
-7.78
-8.23
-8.31
-8.29
-8.25
-8.04
-7.41
-6.22
-4.61
-2.92
-1.53
-0.54
0.22
1.17
2.75
5.22
8.51
12.25
15.95
19.16
21.62
23.40
24.81
26.28
28.19
30.71
33.67
36.59
38.75
39.34
37.66
33.31
26.42
17.67
8.23
-0.55
-7.48
-11.87
-13.78
-13.97
-13.56
-13.68
-15.00
-17.63
-21.09
-24.62
-27.50
-29.28
-29.84
-29.33
-28.01
-26.09
-23.73
-21.12
-18.56
-16.36
-14.84
-14.05
-13.78
-13.57
-12.98
-11.75
-10.02
-8.20
-6.80
-6.12
-6.12
-6.48
-6.76
-6.62
-6.01
-5.08
-4.08
-3.20
-2.46
-1.74
-0.89
0.14
1.33
2.54
3.68
4.71
5.72
6.86
8.23
9.87
11.68
13.49
15.12
16.42
17.34
17.93
18.31
18.66
19.11
19.76
20.49
21.05
21.07
20.18
18.21
15.26
11.67
7.91
4.43
1.56
-0.59
-2.01
-2.80
-3.10
-3.10
-3.02
-3.11
-3.60
-4.61
-6.08
-7.78
-9.33
-10.39
-10.70
-10.22
-9.12
-7.70
-6.33
-5.30
-4.77
-4.66
-4.76
-4.81
-4.58
-4.00
-3.15
-2.26
-1.50
-0.98
-0.68
-0.48
-0.22
0.17
0.70
1.32
1.98
2.66
3.36
4.02
4.54
4.78
4.64
4.14
3.43
2.77
2.39
2.42
2.83
3.51
4.33
5.24
6.17
7.02
7.59
7.65
7.04
5.81
4.23
2.71
1.59
0.98
0.69
0.35
-0.39
-1.74
-3.63
-5.77
-7.78
-9.32
-10.14
-10.18
-9.57
-8.54
-7.40
-6.39
-5.62
-5.01
-4.37
-3.53
-2.37
-0.94
0.63
2.22
3.77
5.26
6.71
8.16
9.65
11.29
13.14
15.18
17.20
18.77
19.32
18.34
15.65
11.45
6.33
1.09
-3.55
-7.09
-9.36
-10.44
-10.55
-9.97
-9.03
-8.12
-7.66
-8.03
-9.40
-11.66
-14.33
-16.78
-18.38
-18.80
-18.08
-16.58
-14.78
-13.06
-11.62
-10.47
-9.53
-8.80
-8.35
-8.30
-8.68
-9.38
-10.11
-10.51
-10.33
-9.52
-8.27
-6.93
-5.83
-5.23
-5.24
-5.83
-6.87
-8.18
-9.58
-10.87
-11.88
-12.46
-12.49
-11.89
-10.64
-8.83
-6.68
-4.51
-2.67
-1.48
-1.04
-1.27
-1.92
-2.65
-3.16
-3.26
-2.90
-2.15
-1.13
0.05
1.28
2.52
3.72
4.81
5.71
6.31
6.52
6.29
5.69
4.88
4.08
3.47
3.12
2.94
2.77
2.45
1.94
1.36
0.91
0.79
1.11
1.81
2.72
3.66
4.53
5.32
6.09
6.84
7.47
7.81
7.69
7.06
6.06
4.94
3.95
3.27
2.95
2.91
3.06
3.30
3.59
3.90
4.19
4.39
4.42
4.16
3.56
2.62
1.44
0.20
-0.92
-1.76
-2.23
-2.34
-2.13
-1.68
-1.02
-0.17
0.83
1.93
3.00
3.93
4.60
4.95
4.96
4.73
4.42
4.23
4.31
4.69
5.28
5.89
6.32
6.46
6.28
5.81
5.11
4.19
3.10
1.93
0.83
-0.03
-0.51
-0.61
-0.48
-0.31
-0.27
-0.38
-0.54
-0.60
-0.42
0.04
0.72
1.48
2.18
2.69
2.97
3.02
2.86
2.55
2.15
1.71
1.26
0.85
0.51
0.28
0.18
0.23
0.41
0.67
0.95
1.22
1.50
1.82
2.20
2.65
3.12
3.49
3.64
3.41
2.73
1.58
0.10
-1.46
-2.82
-3.76
-4.16
-4.07
-3.67
-3.09
-2.47
-1.79
-1.01
-0.05
1.08
2.29
3.43
4.33
4.90
5.12
5.06
4.77
4.30
3.66
2.83
1.83
0.74
-0.32
-1.25
-1.99
-2.56
-3.05
-3.49
-3.90
-4.26
-4.55
-4.74
-4.83
-4.82
-4.66
-4.32
-3.75
-2.96
-2.00
-0.95
0.02
0.78
1.24
1.40
1.39
1.39
1.55
1.88
2.27
2.54
2.52
2.21
1.72
1.23
0.87
0.70
0.68
0.77
0.93
1.16
1.41
1.62
1.66
1.39
0.75
-0.17
-1.21
-2.10
-2.62
-2.68
-2.33
-1.76
-1.21
-0.88
-0.83
-0.99
-1.20
-1.28
-1.13
-0.75
-0.20
0.40
0.93
1.29
1.41
1.30
1.05
0.86
0.94
1.44
2.42
3.71
5.06
6.16
6.72
6.59
5.75
4.30
2.45
0.43
-1.50
-3.15
-4.36
-5.08
-5.32
-5.17
-4.77
-4.27
-3.84
-3.55
-3.38
-3.22
-2.94
-2.44
-1.71
-0.90
-0.18
0.32
0.56
0.61
0.58
0.53
0.48
0.38
0.22
0.00
-0.19
-0.27
-0.22
-0.07
0.09
0.17
0.10
-0.10
-0.41
-0.78
-1.22
-1.79
-2.48
-3.26
-3.97
-4.44
-4.53
-4.23
-3.60
-2.83
-2.05
-1.36
-0.74
-0.16
0.36
0.81
1.10
1.18
1.01
0.63
0.07
-0.57
-1.19
-1.68
-1.93
-1.88
-1.52
-0.89
-0.10
0.72
1.41
1.81
1.86
1.57
1.11
0.66
0.40
0.31
0.27
0.07
-0.38
-1.05
-1.72
-2.13
-2.10
-1.63
-0.86
-0.00
0.77
1.36
1.75
1.97
2.03
1.95
1.74
1.46
1.20
1.10
1.25
1.69
2.35
3.09
3.72
4.13
4.24
4.05
3.62
3.04
2.36
1.66
0.97
0.30
-0.33
-0.95
-1.54
-2.05
-2.39
-2.48
-2.25
-1.74
-1.02
-0.23
0.53
1.24
1.88
2.47
2.99
3.38
3.55
3.46
3.13
2.68
2.25
1.98
1.92
2.04
2.22
2.33
2.26
1.99
1.58
1.16
0.81
0.58
0.43
0.27
0.04
-0.30
-0.76
-1.31
-1.90
-2.50
-3.07
-3.57
-3.91
-4.03
-3.88
-3.46
-2.80
-1.95
-1.00
0.00
0.99
1.93
2.78
3.51
4.07
4.40
4.46
4.25
3.82
3.25
2.61
1.98
1.36
0.74
0.12
-0.49
-1.05
-1.49
-1.78
-1.97
-2.13
-2.41
-2.90
-3.69
-4.73
-5.89
-6.97
-7.74
-8.04
-7.79
-7.05
-5.95
-4.68
-3.39
-2.15
-1.02
-0.00
0.86
1.49
1.83
1.85
1.61
1.25
0.96
0.89
1.08
1.43
1.76
1.90
1.79
1.48
1.11
0.85
0.76
0.83
0.91
0.88
0.63
0.13
-0.60
-1.49
-2.51
-3.62
-4.74
-5.73
-6.41
-6.60
-6.24
-5.37
-4.21
-3.00
-1.94
-1.08
-0.39
0.26
0.94
1.62
2.15
2.37
2.19
1.71
1.13
0.69
0.56
0.74
1.13
1.52
1.76
1.76
1.55
1.18
0.68
0.08
-0.57
-1.21
-1.72
-1.99
-1.97
-1.73
-1.43
-1.21
-1.13
-1.08
-0.86
-0.23
0.88
2.40
4.08
5.64
6.88
7.73
8.20
8.36
8.28
8.00
7.55
7.02
6.47
5.95
5.47
4.93
4.24
3.32
2.18
0.95
-0.18
-1.01
-1.43
-1.47
-1.27
-1.04
-0.97
-1.17
-1.62
-2.21
-2.80
-3.21
-3.35
-3.17
-2.73
-2.14
-1.54
-1.02
-0.62
-0.28
0.11
0.63
1.30
2.06
2.78
3.36
3.74
3.92
3.94
3.82
3.53
3.03
2.24
1.15
-0.23
-1.78
-3.36
-4.77
-5.83
-6.40
-6.47
-6.12
-5.52
-4.82
-4.13
-3.46
-2.77
-2.00
-1.20
-0.42
0.23
0.69
0.97
1.13
1.26
1.40
1.53
1.57
1.46
1.18
0.74
0.29
-0.00
0.03
0.50
1.36
2.44
3.48
4.24
4.55
4.42
3.93
3.20
2.30
1.28
0.21
-0.83
-1.73
-2.40
-2.87
-3.27
-3.74
-4.29
-4.80
-4.98
-4.63
-3.67
-2.31
-0.88
0.28
1.02
1.35
1.42
1.41
1.38
1.35
1.29
1.20
1.08
0.96
0.82
0.62
0.38
0.13
-0.02
0.01
0.27
0.70
1.19
1.62
1.91
2.02
1.95
1.71
1.30
0.76
0.14
-0.47
-1.00
-1.41
-1.68
-1.84
-1.93
-1.96
-1.87
-1.59
-1.02
-0.13
0.99
2.19
3.24
3.96
4.27
4.25
4.05
3.83
3.67
3.54
3.40
3.21
3.01
2.83
2.71
2.58
2.33
1.86
1.17
0.35
-0.47
-1.20
-1.84
-2.46
-3.10
-3.78
-4.43
-5.06
-5.68
-6.36
-7.15
-8.02
-8.84
-9.39
-9.53
-9.24
-8.61
-7.84
-7.06
-6.34
-5.62
-4.78
-3.75
-2.54
-1.29
-0.18
0.63
1.07
1.17
1.03
0.79
0.55
0.37
0.30
0.39
0.63
1.01
1.44
1.80
2.00
1.95
1.64
1.10
0.38
-0.46
-1.37
-2.30
-3.18
-3.98
-4.65
-5.16
-5.49
-5.63
-5.59
-5.33
-4.83
-4.08
-3.09
-1.92
-0.70
0.42
1.29
1.83
2.03
1.97
1.81
1.72
1.82
2.15
2.66
3.24
3.73
4.02
4.04
3.78
3.31
2.77
2.30
2.03
2.04
2.33
2.78
3.22
3.45
3.35
2.89
2.11
1.16
0.19
-0.65
-1.24
-1.45
-1.25
-0.67
0.14
1.00
1.75
2.32
2.72
3.01
3.25
3.45
3.58
3.60
3.49
3.30
3.09
2.93
2.84
2.81
2.76
2.66
2.46
2.20
1.89
1.56
1.19
0.75
0.25
-0.24
-0.62
-0.77
-0.67
-0.43
-0.28
-0.41
-0.91
-1.67
-2.45
-3.01
-3.17
-2.98
-2.54
-2.01
-1.45
-0.83
-0.07
0.89
1.95
2.94
3.71
4.13
4.23
4.13
3.96
3.78
3.58
3.27
2.80
2.16
1.45
0.83
0.41
0.26
0.28
0.31
0.16
-0.27
-0.98
-1.86
-2.77
-3.66
-4.52
-5.36
-6.07
-6.44
-6.23
-5.32
-3.79
-1.97
-0.29
0.92
1.53
1.63
1.41
1.09
0.77
0.44
0.07
-0.35
-0.76
-1.10
-1.32
-1.43
-1.51
-1.66
-1.90
-2.22
-2.49
-2.61
-2.48
-2.09
-1.52
-0.92
-0.42
-0.19
-0.29
-0.75
-1.51
-2.42
-3.33
-4.10
-4.66
-4.98
-5.08
-4.94
-4.54
-3.87
-2.98
-1.95
-0.88
0.14
1.05
1.80
2.38
2.77
2.98
3.04
3.03
3.01
3.01
2.99
2.88
2.63
2.25
1.78
1.33
0.97
0.72
0.54
0.38
0.17
-0.12
-0.48
-0.88
-1.29
-1.69
-2.08
-2.49
-2.93
-3.40
-3.88
-4.33
-4.70
-5.00
-5.22
-5.37
-5.44
-5.36
-5.07
-4.52
-3.73
-2.77
-1.75
-0.79
0.02
0.63
1.04
1.27
1.35
1.29
1.09
0.81
0.50
0.26
0.13
0.17
0.37
0.72
1.16
1.61
1.97
2.14
2.07
1.78
1.32
0.77
0.20
-0.34
-0.86
-1.38
-1.89
-2.32
-2.59
-2.57
-2.18
-1.39
-0.26
1.05
2.38
3.57
4.57
5.43
6.23
7.01
7.74
8.25
8.39
8.08
7.33
6.34
5.31
4.46
3.90
3.65
3.65
3.81
4.01
4.15
4.09
3.72
2.96
1.81
0.36
-1.19
-2.63
-3.79
-4.59
-5.07
-5.32
-5.42
-5.39
-5.22
-4.89
-4.41
-3.82
-3.17
-2.45
-1.63
-0.69
0.40
1.58
2.71
3.64
4.28
4.54
4.40
3.91
3.17
2.30
1.46
0.78
0.31
0.07
-0.04
-0.08
-0.12
-0.17
-0.21
-0.21
-0.21
-0.28
-0.53
-1.04
-1.77
-2.59
-3.31
-3.74
-3.78
-3.44
-2.85
-2.17
-1.55
-1.01
-0.52
0.01
0.70
1.56
2.53
3.47
4.23
4.70
4.86
4.77
4.54
4.24
3.87
3.42
2.87
2.27
1.70
1.28
1.04
0.92
0.80
0.55
0.12
-0.46
-1.09
-1.67
-2.15
-2.54
-2.88
-3.22
-3.59
-3.93
-4.20
-4.34
-4.33
-4.19
-3.96
-3.66
-3.29
-2.83
-2.24
-1.48
-0.55
0.47
1.48
2.28
2.77
2.87
2.66
2.29
1.93
1.68
1.57
1.52
1.50
1.49
1.55
1.70
1.88
1.94
1.71
1.12
0.20
-0.87
-1.85
-2.60
-3.10
-3.49
-3.90
-4.42
-5.03
-5.61
-6.05
-6.26
-6.24
-6.01
-5.63
-5.08
-4.34
-3.44
-2.42
-1.44
-0.63
-0.09
0.18
0.25
0.23
0.22
0.27
0.41
0.64
0.95
1.28
1.55
1.70
1.65
1.44
1.15
0.90
0.80
0.88
1.10
1.35
1.48
1.37
0.99
0.42
-0.20
-0.73
-1.10
-1.33
-1.54
-1.83
-2.27
-2.78
-3.23
-3.46
-3.40
-3.08
-2.59
-2.04
-1.47
-0.85
-0.15
0.66
1.53
2.37
3.07
3.58
3.91
4.12
4.28
4.39
4.45
4.44
4.35
4.24
4.12
4.00
3.82
3.51
3.02
2.35
1.56
0.78
0.12
-0.36
-0.65
-0.84
-1.06
-1.43
-2.02
-2.79
-3.62
-4.32
-4.71
-4.74
-4.42
-3.86
-3.17
-2.42
-1.60
-0.73
0.17
1.01
1.68
2.12
2.30
2.32
2.31
2.41
2.67
3.04
3.39
3.60
3.58
3.35
3.04
2.75
2.58
2.54
2.56
2.53
2.38
2.08
1.68
1.20
0.68
0.11
-0.55
-1.28
-2.00
-2.61
-2.98
-3.04
-2.80
-2.34
-1.79
-1.25
-0.78
-0.37
0.04
0.48
0.95
1.42
1.85
2.19
2.46
2.65
2.74
2.71
2.55
2.29
2.07
2.02
2.24
2.69
3.21
3.62
3.72
3.47
2.95
2.31
1.70
1.17
0.72
0.28
-0.22
-0.79
-1.42
-2.06
-2.61
-2.99
-3.09
-2.87
-2.38
-1.71
-1.01
-0.40
0.07
0.44
0.76
1.11
1.50
1.91
2.27
2.52
2.64
2.63
2.49
2.25
1.91
1.45
0.90
0.28
-0.33
-0.79
-1.02
-0.98
-0.72
-0.42
-0.28
-0.48
-1.08
-2.03
-3.16
-4.30
-5.30
-6.07
-6.57
-6.82
-6.85
-6.68
-6.34
-5.87
-5.32
-4.73
-4.18
-3.71
-3.36
-3.13
-2.99
-2.89
-2.81
-2.73
-2.67
-2.68
-2.80
-3.03
-3.34
-3.68
-3.96
-4.12
-4.10
-3.84
-3.35
-2.64
-1.80
-0.96
-0.25
0.22
0.39
0.26
-0.07
-0.48
-0.82
-1.04
-1.12
-1.15
-1.26
-1.55
-2.07
-2.77
-3.48
-4.00
-4.18
-3.95
-3.39
-2.65
-1.95
-1.43
-1.13
-0.97
-0.80
-0.44
0.21
1.13
2.18
3.13
3.75
3.89
3.60
3.01
2.38
1.91
1.73
1.83
2.12
2.47
2.76
2.93
2.95
2.83
2.57
2.20
1.73
1.19
0.64
0.12
-0.31
-0.60
-0.71
-0.61
-0.31
0.16
0.73
1.32
1.83
2.20
2.40
2.47
2.51
2.62
2.91
3.39
4.02
4.69
5.31
5.85
6.30
6.69
6.96
6.99
6.63
5.79
4.51
2.97
1.42
0.05
-1.04
-1.87
-2.51
-3.01
-3.42
-3.76
-4.06
-4.37
-4.73
-5.16
-5.65
-6.17
-6.64
-6.97
-7.08
-6.83
-6.17
-5.11
-3.75
-2.23
-0.73
0.64
1.83
2.83
3.64
4.22
4.54
4.59
4.43
4.18
3.97
3.87
3.88
3.89
3.78
3.46
2.92
2.26
1.62
1.10
0.71
0.37
-0.01
-0.51
-1.12
-1.75
-2.27
-2.59
-2.68
-2.60
-2.49
-2.49
-2.67
-2.99
-3.32
-3.44
-3.17
-2.43
-1.26
0.13
1.52
2.73
3.70
4.46
5.09
5.61
6.00
6.21
6.21
6.09
5.96
5.93
5.99
6.06
6.00
5.71
5.19
4.54
3.89
3.32
2.82
2.33
1.77
1.11
0.40
-0.28
-0.84
-1.28
-1.66
-2.08
-2.63
-3.29
-3.91
-4.27
-4.17
-3.53
-2.41
-1.01
0.42
1.70
2.71
3.44
3.91
4.17
4.25
4.15
3.85
3.33
2.63
1.82
1.07
0.51
0.23
0.18
0.22
0.21
0.05
-0.29
-0.73
-1.23
-1.75
-2.32
-2.97
-3.68
-4.42
-5.12
-5.77
-6.37
-6.95
-7.47
-7.85
-7.97
-7.74
-7.15
-6.27
-5.23
-4.16
-3.14
-2.18
-1.24
-0.25
0.87
2.16
3.59
5.08
6.52
7.75
8.64
9.09
9.08
8.67
8.00
7.20
6.42
5.77
5.29
4.99
4.84
4.78
4.72
4.58
4.27
3.78
3.12
2.37
1.63
0.95
0.34
-0.25
-0.86
-1.53
-2.20
-2.74
-3.02
-2.94
-2.48
-1.70
-0.72
0.29
1.22
1.95
2.44
2.72
2.84
2.91
2.99
3.11
3.22
3.24
3.13
2.89
2.57
2.29
2.14
2.13
2.18
2.18
2.00
1.58
0.93
0.16
-0.61
-1.26
-1.75
-2.10
-2.35
-2.59
-2.84
-3.09
-3.32
-3.51
-3.63
-3.69
-3.68
-3.58
-3.38
-3.06
-2.61
-2.05
-1.41
-0.76
-0.19
0.17
0.23
0.00
-0.44
-0.94
-1.44
-1.93
-2.54
-3.40
-4.55
-5.88
-7.17
-8.22
-8.91
-9.24
-9.27
-9.08
-8.68
-8.07
-7.28
-6.38
-5.54
-4.90
-4.53
-4.41
-4.44
-4.48
-4.44
-4.31
-4.16
-4.09
-4.20
-4.50
-4.94
-5.35
-5.57
-5.45
-4.93
-4.04
-2.89
-1.63
-0.38
0.74
1.65
2.29
2.64
2.69
2.49
2.11
1.70
1.38
1.23
1.28
1.51
1.86
2.26
2.65
3.01
3.34
3.65
3.93
4.14
4.22
4.11
3.79
3.30
2.70
2.05
1.36
0.67
-0.03
-0.64
-1.05
-1.13
-0.84
-0.22
0.56
1.35
2.06
2.71
3.34
3.98
4.56
4.97
5.12
5.02
4.77
4.51
4.35
4.33
4.39
4.46
4.51
4.51
4.45
4.26
3.87
3.22
2.35
1.39
0.51
-0.15
-0.51
-0.63
-0.62
-0.62
-0.77
-1.14
-1.79
-2.71
-3.85
-5.06
-6.15
-6.92
-7.23
-7.01
-6.30
-5.23
-3.89
-2.41
-0.92
0.41
1.41
1.97
2.07
1.85
1.54
1.37
1.46
1.77
2.13
2.37
2.40
2.26
2.09
2.02
2.14
2.43
2.80
3.12
3.32
3.34
3.19
2.90
2.48
1.98
1.40
0.75
0.02
-0.76
-1.58
-2.40
-3.16
-3.84
-4.45
-5.00
-5.54
-6.05
-6.45
-6.61
-6.42
-5.87
-5.08
-4.24
-3.54
-3.07
-2.78
-2.55
-2.22
-1.68
-0.93
-0.02
0.96
1.94
2.82
3.51
3.95
4.10
3.96
3.58
3.05
2.43
1.78
1.16
0.66
0.33
0.20
0.24
0.34
0.40
0.30
0.01
-0.40
-0.81
-1.07
-1.12
-0.98
-0.80
-0.68
-0.71
-0.85
-0.97
-0.97
-0.80
-0.52
-0.20
0.09
0.34
0.63
1.00
1.46
1.91
2.22
2.28
2.03
1.46
0.62
-0.38
-1.42
-2.35
-3.02
-3.39
-3.51
-3.52
-3.63
-3.96
-4.53
-5.26
-6.02
-6.70
-7.30
-7.84
-8.36
-8.84
-9.20
-9.33
-9.14
-8.63
-7.84
-6.86
-5.84
-4.88
-4.09
-3.49
-3.00
-2.40
-1.42
0.17
2.39
5.09
7.90
10.41
12.28
13.39
13.77
13.61
13.14
12.55
12.03
11.61
11.22
10.62
9.49
7.47
4.36
0.26
-4.40
-8.92
-12.54
-14.67
-15.09
-14.03
-11.98
-9.55
-7.15
-4.94
-2.83
-0.69
1.52
3.66
5.48
6.84
7.76
8.39
8.87
9.21
9.24
8.79
7.83
6.53
5.24
4.25
3.65
3.34
3.17
3.04
3.08
3.45
4.24
5.30
6.25
6.69
6.39
5.45
4.26
3.26
2.81
2.97
3.59
4.38
5.11
5.61
5.76
5.45
4.56
3.09
1.23
-0.64
-1.99
-2.42
-1.79
-0.32
1.53
3.24
4.45
4.95
4.75
3.97
2.76
1.32
-0.17
-1.48
-2.42
-2.91
-2.98
-2.84
-2.73
-2.88
-3.41
-4.28
-5.34
-6.35
-7.14
-7.65
-7.90
-7.95
-7.86
-7.64
-7.26
-6.70
-5.98
-5.15
-4.27
-3.38
-2.49
-1.61
-0.78
-0.06
0.48
0.81
0.95
0.98
0.99
1.07
1.25
1.51
1.77
1.96
2.01
1.92
1.72
1.42
1.00
0.38
-0.53
-1.68
-2.90
-3.92
-4.47
-4.48
-4.05
-3.50
-3.12
-3.06
-3.22
-3.38
-3.26
-2.75
-1.91
-0.92
0.03
0.85
1.59
2.35
3.16
3.98
4.67
5.07
5.13
4.96
4.77
4.77
5.03
5.53
6.13
6.66
7.04
7.25
7.33
7.25
7.01
6.54
5.85
4.97
3.98
2.94
1.93
1.04
0.31
-0.22
-0.56
-0.79
-0.93
-1.00
-0.88
-0.44
0.48
1.89
3.68
5.61
7.37
8.67
9.32
9.24
8.50
7.28
5.76
4.10
2.41
0.75
-0.73
-1.86
-2.39
-2.18
-1.34
-0.16
0.96
1.77
2.20
2.44
2.73
3.22
3.90
4.71
5.65
6.86
8.58
10.93
13.88
17.15
20.37
23.21
25.49
27.22
28.56
29.73
30.95
32.35
33.92
35.54
36.93
37.82
38.01
37.49
36.41
34.99
33.42
31.79
30.16
28.51
26.80
24.88
22.53
19.53
15.76
11.38
6.74
2.30
-1.64
-5.03
-8.08
-11.03
-13.98
-16.72
-18.88
-20.07
-20.10
-19.04
-17.23
-15.15
-13.24
-11.83
-11.01
-10.67
-10.65
-10.82
-11.30
-12.34
-14.22
-16.96
-20.18
-23.20
-25.27
-25.96
-25.31
-23.84
-22.27
-21.16
-20.74
-20.82
-21.03
-20.99
-20.54
-19.74
-18.78
-17.85
-17.00
-16.06
-14.78
-12.92
-10.36
-7.19
-3.68
-0.14
3.01
5.35
6.36
5.50
2.39
-3.03
-10.34
-18.70
-26.99
-34.21
-39.70
-43.27
-45.11
-45.62
-45.21
-44.20
-42.80
-41.13
-39.29
-37.32
-35.19
-32.80
-30.03
-26.85
-23.37
-19.89
-16.82
-14.48
-13.03
-12.33
-12.07
-11.85
-11.42
-10.72
-9.85
-8.97
-8.16
-7.40
-6.59
-5.67
-4.67
-3.72
-3.00
-2.68
-2.85
-3.49
-4.53
-5.82
-7.20
-8.48
-9.54
-10.35
-11.02
-11.79
-12.88
-14.39
-16.14
-17.74
-18.74
-18.84
-18.06
-16.73
-15.28
-14.07
-13.17
-12.42
-11.55
-10.40
-8.99
-7.50
-6.13
-4.98
-4.06
-3.32
-2.75
-2.41
-2.37
-2.64
-3.07
-3.47
-3.60
-3.30
-2.55
-1.47
-0.31
0.62
1.02
0.70
-0.34
-1.86
-3.46
-4.64
-5.03
-4.44
-2.90
-0.60
2.17
5.12
8.02
10.66
12.92
14.76
16.20
17.32
18.18
18.83
19.26
19.41
19.21
18.61
17.62
16.35
14.96
13.61
12.41
11.36
10.38
9.33
8.16
6.89
5.65
4.55
3.64
2.92
2.37
2.00
1.90
2.18
2.87
3.88
5.04
6.13
7.08
7.92
8.75
9.65
10.60
11.47
12.15
12.59
12.85
13.03
13.17
13.23
13.10
12.71
12.12
11.48
10.98
10.75
10.77
10.92
11.07
11.10
10.96
10.68
10.29
9.82
9.28
8.66
7.92
7.04
6.04
5.01
4.10
3.51
3.37
3.74
4.52
5.60
6.84
8.14
9.50
10.87
12.18
13.28
14.00
14.20
13.86
13.08
11.94
10.57
9.01
7.30
5.53
3.84
2.41
1.40
0.89
0.84
1.08
1.39
1.56
1.40
0.78
-0.31
-1.79
-3.48
-5.07
-6.24
-6.75
-6.48
-5.42
-3.72
-1.60
0.69
2.87
4.71
6.05
6.84
7.15
7.09
6.81
6.42
6.02
5.73
5.63
5.79
6.14
6.50
6.64
6.38
5.71
4.79
3.84
3.04
2.40
1.81
1.16
0.35
-0.60
-1.63
-2.71
-3.81
-4.87
-5.73
-6.16
-5.94
-4.97
-3.36
-1.42
0.48
2.06
3.20
4.01
4.64
5.28
5.99
6.72
7.32
7.68
7.69
7.34
6.69
5.79
4.72
3.53
2.33
1.20
0.27
-0.42
-0.86
-1.14
-1.42
-1.85
-2.52
-3.38
-4.31
-5.12
-5.66
-5.86
-5.78
-5.58
-5.44
-5.48
-5.75
-6.14
-6.48
-6.55
-6.14
-5.16
-3.61
-1.63
0.55
2.65
4.39
5.55
6.02
5.79
4.99
3.83
2.61
1.60
1.00
0.89
1.19
1.72
2.22
2.50
2.45
2.08
1.48
0.77
0.07
-0.54
-1.03
-1.42
-1.75
-2.10
-2.55
-3.13
-3.86
-4.62
-5.27
-5.60
-5.48
-4.83
-3.71
-2.27
-0.70
0.81
2.13
3.18
3.97
4.55
5.01
5.40
5.75
6.05
6.19
6.10
5.75
5.20
4.64
4.26
4.17
4.34
4.61
4.76
4.68
4.33
3.77
3.09
2.36
1.55
0.64
-0.39
-1.52
-2.72
-3.96
-5.17
-6.25
-7.03
-7.29
-6.90
-5.82
-4.16
-2.16
-0.07
1.91
3.59
4.84
5.57
5.81
5.70
5.51
5.52
5.90
6.62
7.40
7.83
7.59
6.53
4.82
2.80
0.89
-0.59
-1.47
-1.80
-1.72
-1.47
-1.25
-1.26
-1.61
-2.35
-3.45
-4.78
-6.09
-7.09
-7.49
-7.10
-5.89
-4.02
-1.79
0.45
2.41
3.93
4.98
5.64
6.07
6.37
6.58
6.65
6.48
6.00
5.26
4.43
3.72
3.32
3.24
3.39
3.56
3.55
3.30
2.83
2.24
1.59
0.83
-0.13
-1.38
-2.90
-4.56
-6.13
-7.37
-8.12
-8.32
-8.01
-7.31
-6.36
-5.28
-4.17
-3.11
-2.13
-1.25
-0.46
0.24
0.86
1.37
1.72
1.88
1.88
1.81
1.76
1.82
1.98
2.17
2.30
2.26
2.04
1.66
1.19
0.70
0.24
-0.14
-0.43
-0.66
-0.90
-1.23
-1.73
-2.44
-3.32
-4.28
-5.25
-6.14
-6.92
-7.53
-7.87
-7.80
-7.20
-6.08
-4.60
-3.05
-1.75
-0.87
-0.42
-0.26
-0.24
-0.31
-0.53
-1.00
-1.74
-2.62
-3.39
-3.77
-3.63
-3.05
-2.29
-1.67
-1.45
-1.73
-2.38
-3.17
-3.87
-4.31
-4.51
-4.59
-4.72
-5.05
-5.59
-6.31
-7.11
-7.95
-8.76
-9.49
-9.97
-9.99
-9.37
-8.06
-6.26
-4.36
-2.82
-1.94
-1.77
-1.98
-2.10
-1.67
-0.50
1.30
3.36
5.22
6.54
7.12
7.01
6.39
5.52
4.69
4.12
3.96
4.20
4.68
5.13
5.31
5.04
4.34
3.38
2.46
1.82
1.61
1.84
2.39
3.07
3.66
3.96
3.86
3.32
2.47
1.52
0.77
0.43
0.65
1.42
2.64
4.10
5.55
6.77
7.53
7.72
7.34
6.53
5.54
4.68
4.20
4.24
4.78
5.68
6.69
7.49
7.83
7.55
6.67
5.40
4.06
2.96
2.24
1.88
1.69
1.45
1.06
0.55
0.06
-0.33
-0.58
-0.77
-1.01
-1.32
-1.63
-1.82
-1.84
-1.76
-1.80
-2.17
-2.98
-4.14
-5.39
-6.37
-6.80
-6.50
-5.51
-3.99
-2.20
-0.45
0.97
1.85
2.07
1.69
0.96
0.18
-0.32
-0.37
0.01
0.61
1.15
1.39
1.26
0.80
0.24
-0.18
-0.21
0.27
1.21
2.42
3.58
4.36
4.60
4.34
3.77
3.22
2.90
2.87
3.01
3.13
3.06
2.70
2.02
1.01
-0.32
-1.90
-3.55
-4.94
-5.69
-5.59
-4.61
-3.04
-1.34
0.02
0.71
0.64
-0.10
-1.26
-2.57
-3.73
-4.46
-4.58
-3.99
-2.77
-1.17
0.49
1.90
2.79
3.08
2.86
2.30
1.65
1.11
0.81
0.76
0.88
1.04
1.14
1.08
0.86
0.49
-0.02
-0.70
-1.58
-2.66
-3.85
-5.01
-5.94
-6.53
-6.73
-6.64
-6.42
-6.22
-6.12
-6.15
-6.29
-6.52
-6.80
-7.08
-7.24
-7.16
-6.75
-5.99
-4.94
-3.75
-2.55
-1.46
-0.55
0.14
0.59
0.77
0.70
0.44
0.09
-0.22
-0.36
-0.30
-0.10
0.12
0.26
0.28
0.22
0.19
0.25
0.38
0.49
0.45
0.19
-0.34
-1.15
-2.24
-3.58
-5.09
-6.62
-7.93
-8.81
-9.12
-8.86
-8.14
-7.14
-6.01
-4.88
-3.80
-2.83
-2.00
-1.32
-0.78
-0.36
-0.01
0.29
0.59
0.91
1.26
1.63
1.97
2.22
2.35
2.39
2.39
2.41
2.44
2.40
2.17
1.66
0.86
-0.12
-1.14
-2.04
-2.76
-3.26
-3.57
-3.69
-3.60
-3.27
-2.69
-1.86
-0.86
0.22
1.28
2.23
3.01
3.57
3.90
3.99
3.85
3.51
3.01
2.40
1.75
1.05
0.30
-0.48
-1.23
-1.85
-2.22
-2.30
-2.17
-1.99
-1.93
-2.07
-2.39
-2.77
-3.09
-3.28
-3.34
-3.27
-3.00
-2.45
-1.53
-0.28
1.12
2.41
3.34
3.83
3.94
3.86
3.77
3.77
3.87
4.00
4.15
4.35
4.70
5.25
5.99
6.75
7.32
7.48
7.08
6.13
4.74
3.13
1.53
0.14
-0.88
-1.47
-1.65
-1.53
-1.30
-1.15
-1.22
-1.49
-1.83
-2.02
-1.85
-1.20
-0.09
1.32
2.81
4.14
5.15
5.75
5.90
5.63
5.00
4.02
2.73
1.20
-0.46
-2.03
-3.28
-3.99
-4.09
-3.66
-2.92
-2.12
-1.44
-1.02
-0.94
-1.24
-2.00
-3.19
-4.78
-6.56
-8.31
-9.82
-10.95
-11.65
-11.95
-11.88
-11.44
-10.66
-9.59
-8.38
-7.17
-6.09
-5.21
-4.46
-3.76
-3.03
-2.22
-1.36
-0.51
0.27
0.97
1.64
2.28
2.91
3.48
3.92
4.20
4.34
4.43
4.58
4.88
5.32
5.82
6.24
6.51
6.61
6.57
6.44
6.24
5.94
5.53
5.07
4.69
4.59
4.89
5.63
6.73
8.03
9.38
10.68
11.84
12.77
13.35
13.48
13.09
12.23
11.05
9.72
8.40
7.21
6.19
5.36
4.72
4.27
3.97
3.72
3.42
3.01
2.49
1.92
1.39
0.95
0.56
0.13
-0.49
-1.38
-2.52
-3.81
-5.06
-6.09
-6.75
-6.98
-6.80
-6.29
-5.56
-4.71
-3.83
-3.02
-2.34
-1.81
-1.43
-1.20
-1.08
-1.06
-1.15
-1.33
-1.50
-1.56
-1.42
-1.09
-0.69
-0.46
-0.57
-1.13
-2.03
-3.02
-3.79
-4.14
-3.99
-3.42
-2.64
-1.90
-1.41
-1.32
-1.69
-2.44
-3.39
-4.32
-4.99
-5.25
-5.02
-4.34
-3.34
-2.22
-1.15
-0.24
0.46
1.01
1.52
2.11
2.80
3.51
4.07
4.29
4.04
3.37
2.44
1.50
0.76
0.31
0.11
0.06
0.01
-0.11
-0.31
-0.58
-0.88
-1.18
-1.47
-1.75
-2.01
-2.23
-2.44
-2.66
-2.89
-3.12
-3.28
-3.30
-3.09
-2.64
-2.00
-1.27
-0.55
0.08
0.61
1.05
1.44
1.71
1.80
1.65
1.26
0.74
0.22
-0.17
-0.41
-0.54
-0.62
-0.66
-0.59
-0.28
0.31
1.11
1.91
2.43
2.46
1.94
1.00
-0.09
-1.04
-1.60
-1.67
-1.27
-0.56
0.27
1.05
1.67
2.15
2.57
3.08
3.81
4.82
6.09
7.49
8.80
9.79
10.30
10.24
9.62
8.56
7.23
5.83
4.53
3.44
2.57
1.84
1.13
0.36
-0.49
-1.33
-1.99
-2.35
-2.39
-2.21
-2.05
-2.12
-2.56
-3.32
-4.20
-4.92
-5.26
-5.11
-4.51
-3.60
-2.57
-1.57
-0.75
-0.17
0.07
-0.02
-0.42
-0.98
-1.51
-1.84
-1.88
-1.67
-1.33
-0.99
-0.74
-0.60
-0.51
-0.44
-0.39
-0.37
-0.40
-0.51
-0.71
-1.03
-1.48
-2.08
-2.82
-3.64
-4.46
-5.14
-5.54
-5.57
-5.17
-4.40
-3.37
-2.26
-1.21
-0.36
0.25
0.61
0.76
0.77
0.68
0.57
0.49
0.47
0.54
0.67
0.81
0.90
0.87
0.70
0.37
-0.07
-0.54
-0.97
-1.28
-1.44
-1.42
-1.23
-0.91
-0.55
-0.25
-0.15
-0.30
-0.74
-1.41
-2.18
-2.89
-3.40
-3.59
-3.40
-2.88
-2.09
-1.17
-0.25
0.58
1.27
1.81
2.22
2.48
2.53
2.30
1.79
1.05
0.21
-0.59
-1.25
-1.72
-2.03
-2.22
-2.34
-2.38
-2.34
-2.19
-1.92
-1.60
-1.31
-1.16
-1.24
-1.57
-2.11
-2.77
-3.39
-3.88
-4.16
-4.20
-4.04
-3.73
-3.30
-2.77
-2.12
-1.29
-0.27
0.91
2.16
3.37
4.44
5.32
6.02
6.55
6.92
7.11
7.09
6.86
6.49
6.12
5.92
5.99
6.33
6.85
7.32
7.53
7.30
6.51
5.18
3.40
1.36
-0.77
-2.81
-4.60
-6.02
-6.98
-7.44
-7.43
-7.04
-6.39
-5.60
-4.76
-3.90
-2.98
-1.96
-0.80
0.46
1.72
2.81
3.58
3.94
3.87
3.42
2.71
1.86
0.93
-0.03
-0.99
-1.92
-2.76
-3.47
-4.06
-4.53
-4.96
-5.37
-5.76
-6.12
-6.37
-6.49
-6.43
-6.21
-5.81
-5.21
-4.37
-3.29
-2.04
-0.76
0.38
1.25
1.83
2.21
2.57
3.05
3.69
4.39
5.01
5.38
5.43
5.15
4.60
3.86
3.02
2.20
1.52
1.09
0.95
1.01
1.09
0.99
0.60
-0.07
-0.91
-1.78
-2.57
-3.26
-3.84
-4.24
-4.40
-4.22
-3.68
-2.85
-1.85
-0.82
0.20
1.21
2.28
3.37
4.38
5.11
5.40
5.20
4.60
3.83
3.13
2.66
2.44
2.36
2.27
2.01
1.57
0.97
0.30
-0.36
-0.99
-1.55
-2.00
-2.32
-2.49
-2.57
-2.66
-2.83
-3.09
-3.31
-3.37
-3.14
-2.66
-2.01
-1.31
-0.60
0.20
1.18
2.36
3.61
4.69
5.40
5.65
5.51
5.20
4.89
4.70
4.60
4.48
4.24
3.82
3.21
2.43
1.52
0.51
-0.54
-1.55
-2.35
-2.82
-2.90
-2.68
-2.35
-2.19
-2.37
-2.95
-3.80
-4.68
-5.35
-5.65
-5.57
-5.22
-4.71
-4.15
-3.57
-2.97
-2.37
-1.79
-1.28
-0.82
-0.32
0.33
1.21
2.27
3.34
4.17
4.52
4.29
3.54
2.48
1.36
0.47
-0.04
-0.10
0.22
0.76
1.30
1.63
1.58
1.14
0.38
-0.53
-1.41
-2.13
-2.62
-2.90
-2.94
-2.72
-2.23
-1.50
-0.62
0.25
1.00
1.59
2.09
2.60
3.20
3.84
4.40
4.71
4.69
4.36
3.88
3.42
3.10
2.89
2.69
2.40
1.98
1.47
0.98
0.57
0.24
-0.06
-0.39
-0.75
-1.06
-1.20
-1.11
-0.86
-0.63
-0.67
-1.19
-2.18
-3.47
-4.70
-5.54
-5.76
-5.35
-4.49
-3.45
-2.43
-1.50
-0.62
0.30
1.26
2.18
2.89
3.25
3.26
2.98
2.56
2.11
1.70
1.32
0.98
0.67
0.43
0.28
0.20
0.13
-0.02
-0.30
-0.73
-1.25
-1.80
-2.31
-2.79
-3.28
-3.84
-4.47
-5.11
-5.59
-5.76
-5.46
-4.68
-3.55
-2.25
-1.01
0.01
0.76
1.31
1.75
2.17
2.57
2.89
3.04
2.96
2.70
2.35
2.01
1.72
1.47
1.18
0.77
0.26
-0.29
-0.77
-1.14
-1.41
-1.64
-1.89
-2.14
-2.34
-2.45
-2.46
-2.43
-2.44
-2.54
-2.72
-2.91
-2.98
-2.87
-2.54
-2.02
-1.40
-0.75
-0.10
0.51
1.09
1.58
1.88
1.90
1.58
1.02
0.42
0.03
0.03
0.44
1.08
1.67
1.98
1.89
1.45
0.81
0.16
-0.42
-0.91
-1.31
-1.63
-1.86
-1.98
-2.06
-2.18
-2.45
-2.89
-3.37
-3.69
-3.60
-2.97
-1.82
-0.32
1.35
3.01
4.52
5.83
6.88
7.61
8.03
8.14
8.03
7.75
7.32
6.76
6.08
5.33
4.65
4.16
3.91
3.85
3.87
3.80
3.52
2.97
2.15
1.11
-0.08
-1.35
-2.63
-3.83
-4.87
-5.67
-6.17
-6.35
-6.20
-5.74
-5.04
-4.15
-3.10
-1.90
-0.57
0.85
2.27
3.56
4.62
5.41
5.95
6.33
6.60
6.74
6.72
6.46
5.93
5.15
4.21
3.22
2.29
1.55
1.08
0.93
1.04
1.32
1.58
1.64
1.41
0.85
0.04
-0.87
-1.76
-2.48
-2.90
-2.91
-2.46
-1.55
-0.33
0.96
2.08
2.86
3.25
3.36
3.35
3.30
3.21
2.94
2.30
1.17
-0.43
-2.33
-4.28
-6.04
-7.51
-8.69
-9.66
-10.52
-11.29
-11.96
-12.48
-12.86
-13.17
-13.53
-14.05
-14.75
-15.58
-16.39
-17.00
-17.29
-17.13
-16.46
-15.25
-13.53
-11.41
-9.03
-6.56
-4.13
-1.83
0.32
2.33
4.20
5.94
7.53
8.96
10.20
11.23
12.01
12.51
12.68
12.50
12.01
11.27
10.39
9.49
8.63
7.86
7.15
6.44
5.65
4.77
3.82
2.88
1.97
1.13
0.31
-0.50
-1.32
-2.07
-2.69
-3.13
-3.36
-3.40
-3.28
-2.98
-2.49
-1.79
-0.92
0.02
0.89
1.58
2.04
2.28
2.36
2.30
2.12
1.82
1.45
1.10
0.85
0.76
0.79
0.82
0.70
0.35
-0.17
-0.72
-1.13
-1.31
-1.29
-1.20
-1.18
-1.32
-1.63
-2.10
-2.68
-3.36
-4.04
-4.64
-4.99
-4.95
-4.45
-3.54
-2.36
-1.09
0.12
1.22
2.20
3.07
3.80
4.37
4.73
4.87
4.82
4.62
4.30
3.89
3.41
2.94
2.54
2.34
2.41
2.76
3.28
3.76
4.02
3.92
3.44
2.70
1.86
1.11
0.56
0.31
0.34
0.61
1.06
1.60
2.16
2.73
3.31
3.95
4.72
5.60
6.51
7.30
7.83
8.05
8.00
7.86
7.80
7.92
8.16
8.30
8.06
7.15
5.37
2.54
-1.42
-6.43
-12.21
-18.16
-23.43
-27.19
-28.88
-28.42
-26.26
-23.14
-19.84
-16.87
-14.44
-12.50
-10.91
-9.60
-8.55
-7.75
-7.12
-6.47
-5.51
-4.01
-1.82
1.01
4.28
7.67
10.85
13.50
15.38
16.29
16.08
14.74
12.40
9.43
6.40
3.94
2.59
2.61
3.89
5.96
8.09
9.56
9.86
8.87
6.89
4.54
2.55
1.41
1.29
1.93
2.80
3.31
3.10
2.10
0.49
-1.38
-3.19
-4.71
-5.79
-6.33
-6.32
-5.81
-4.95
-3.95
-3.04
-2.30
-1.70
-1.09
-0.31
0.68
1.83
2.95
3.89
4.55
4.92
5.01
4.82
4.38
3.80
3.27
3.00
3.11
3.48
3.86
3.90
3.41
2.41
1.11
-0.21
-1.29
-2.05
-2.47
-2.59
-2.44
-2.02
-1.39
-0.58
0.36
1.43
2.67
4.09
5.62
7.11
8.34
9.17
9.59
9.73
9.77
9.85
10.00
10.17
10.24
10.06
9.50
8.51
7.16
5.61
4.02
2.58
1.40
0.52
-0.23
-1.09
-2.20
-3.51
-4.84
-5.96
-6.70
-7.00
-6.92
-6.79
-6.89
-7.31
-7.85
-8.19
-8.14
-7.69
-6.95
-6.10
-5.64
-5.97
-7.17
-8.89
-10.55
-11.67
-12.03
-11.67
-10.79
-10.18
-10.50
-12.16
-15.06
-18.96
-23.70
-29.29
-35.56
-38.63
-35.13
-23.65
-5.97
14.38
33.96
50.44
62.67
70.57
74.94
76.51
76.31
75.17
73.85
72.77
71.68
69.79
66.10
59.93
50.56
38.71
25.61
12.94
2.21
-5.76
-10.88
-13.57
-14.38
-14.16
-13.65
-13.57
-14.30
-15.92
-18.30
-21.09
-23.87
-26.31
-28.34
-30.04
-31.61
-33.18
-34.79
-36.44
-38.06
-39.48
-40.46
-40.80
-40.38
-39.26
-37.65
-35.77
-33.83
-31.92
-30.01
-28.01
-25.81
-23.38
-20.87
-18.45
-16.33
-14.61
-13.25
-12.11
-11.05
-9.97
-8.87
-7.88
-7.07
-6.48
-6.04
-5.59
-5.03
-4.30
-3.46
-2.60
-1.84
-1.24
-0.81
-0.50
-0.29
-0.12
0.03
0.22
0.53
1.02
1.75
2.68
3.69
4.59
5.18
5.34
5.05
4.42
3.61
2.75
1.91
1.09
0.23
-0.69
-1.65
-2.59
-3.42
-4.09
-4.54
-4.80
-4.90
-4.89
-4.84
-4.81
-4.88
-5.11
-5.56
-6.21
-6.98
-7.67
-8.06
-7.96
-7.27
-6.03
-4.41
-2.63
-0.91
0.59
1.75
2.55
3.02
3.29
3.55
4.03
4.91
6.22
7.84
9.53
11.03
12.15
12.81
13.07
13.00
12.67
12.12
11.30
10.18
8.71
6.88
4.78
2.56
0.41
-1.50
-3.06
-4.24
-5.11
-5.72
-6.10
-6.16
-5.74
-4.73
-3.19
-1.37
0.26
1.22
1.19
0.17
-1.51
-3.32
-4.70
-5.26
-4.95
-3.94
-2.61
-1.34
-0.42
0.01
-0.07
-0.54
-1.28
-2.09
-2.85
-3.44
-3.83
-4.04
-4.13
-4.20
-4.31
-4.44
-4.52
-4.45
-4.11
-3.45
-2.48
-1.28
0.03
1.29
2.36
3.15
3.57
3.58
3.21
2.56
1.76
1.01
0.49
0.26
0.30
0.44
0.52
0.41
0.11
-0.24
-0.51
-0.63
-0.64
-0.71
-1.01
-1.61
-2.48
-3.45
-4.37
-5.10
-5.53
-5.62
-5.35
-4.76
-3.93
-3.05
-2.31
-1.84
-1.71
-1.86
-2.16
-2.46
-2.64
-2.64
-2.42
-1.98
-1.34
-0.63
-0.01
0.32
0.23
-0.30
-1.11
-1.98
-2.71
-3.21
-3.56
-3.95
-4.61
-5.63
-6.92
-8.17
-9.01
-9.13
-8.42
-6.97
-5.03
-2.88
-0.73
1.30
3.10
4.55
5.52
5.89
5.69
5.05
4.23
3.45
2.87
2.49
2.24
2.04
1.84
1.62
1.37
1.05
0.61
0.04
-0.65
-1.42
-2.22
-3.06
-3.91
-4.74
-5.39
-5.69
-5.53
-4.89
-3.89
-2.68
-1.39
-0.04
1.37
2.82
4.22
5.39
6.13
6.37
6.18
5.73
5.25
4.85
4.51
4.16
3.69
3.11
2.52
2.02
1.66
1.36
0.91
0.13
-1.05
-2.47
-3.85
-4.86
-5.27
-5.03
-4.20
-2.91
-1.28
0.54
2.42
4.16
5.57
6.55
7.08
7.30
7.37
7.40
7.40
7.26
6.85
6.06
4.89
3.46
1.98
0.64
-0.39
-1.08
-1.49
-1.76
-2.04
-2.39
-2.79
-3.13
-3.25
-3.05
-2.47
-1.51
-0.25
1.24
2.86
4.54
6.18
7.71
9.05
10.15
10.94
11.38
11.45
11.19
10.68
10.06
9.51
9.21
9.25
9.55
