1660331821.00
64.000000
-0.00
-0.00
-0.00
-0.00
-0.00
-0.00
-0.00
-0.00
-0.00
-0.00
0.00
0.01
0.01
-0.00
-0.03
-0.05
-0.05
0.00
0.13
0.36
0.66
1.01
1.37
1.72
2.06
2.40
2.79
3.24
3.80
4.42
5.06
5.65
6.19
6.68
7.18
7.73
8.37
9.16
10.00
10.77
11.37
11.80
12.15
12.60
13.38
14.62
16.49
18.76
21.17
23.42
25.40
27.23
29.26
31.90
35.40
40.05
45.43
50.98
56.19
60.80
65.01
69.37
74.54
80.86
88.64
97.17
105.62
113.22
119.72
125.47
131.28
138.41
145.21
153.46
163.34
174.84
187.02
197.53
202.68
198.20
180.64
148.55
103.53
48.72
-11.74
-74.23
-136.40
-197.08
-255.81
-312.28
-366.11
-416.63
-463.81
-507.78
-548.55
-585.26
-615.36
-634.47
-637.04
-618.07
-574.93
-509.19
-426.36
-334.38
-241.31
-153.17
-73.14
-2.07
60.19
113.81
158.40
193.57
219.53
237.38
248.82
255.57
258.83
259.09
256.23
249.97
240.34
227.93
213.87
199.52
186.12
174.31
163.98
154.37
144.48
133.55
121.44
108.60
95.88
84.08
73.61
64.42
56.12
48.30
40.79
33.71
27.32
21.83
17.29
13.57
10.45
7.77
5.35
3.06
0.80
-1.43
-3.60
-5.56
-7.13
-8.18
-8.72
-8.92
-9.02
-9.18
-9.45
-9.73
-9.86
-9.72
-9.24
-8.41
-7.21
-5.65
-3.78
-1.80
-0.06
1.06
1.30
0.67
-0.57
-2.02
-3.31
-4.25
-4.85
-5.21
-5.40
-5.41
-5.21
-4.74
-4.07
-3.34
-2.70
-2.26
-2.00
-1.88
-1.82
-1.80
-1.84
-1.99
-2.26
-2.59
-2.85
-2.91
-2.68
-2.22
-1.69
-1.35
-1.38
-1.80
-2.38
-2.74
-2.47
-1.37
0.46
2.59
4.47
5.60
5.79
5.16
4.01
2.68
1.40
0.27
-0.67
-1.35
-1.66
-1.55
-1.02
-0.25
0.56
1.22
1.66
1.92
2.13
2.36
2.64
2.91
3.09
3.12
2.97
2.63
2.08
1.34
0.44
-0.51
-1.40
-2.17
-2.84
-3.48
-4.18
-4.93
-5.58
-5.86
-5.51
-4.46
-2.85
-1.08
0.38
1.16
1.12
0.38
-0.74
-1.90
-2.86
-3.51
-3.90
-4.10
-4.17
-4.06
-3.73
-3.19
-2.49
-1.81
-1.27
-0.94
-0.80
-0.75
-0.74
-0.77
-0.88
-1.11
-1.44
-1.75
-1.94
-1.92
-1.75
-1.54
-1.44
-1.51
-1.75
-2.02
-2.10
-1.79
-0.91
0.55
2.44
4.49
6.30
7.56
8.03
7.66
6.58
5.00
3.21
1.43
-0.14
-1.43
-2.39
-2.98
-3.19
-3.07
-2.71
-2.22
-1.68
-1.16
-0.70
-0.30
0.01
0.16
0.08
-0.30
-0.98
-1.91
-2.99
-4.10
-5.17
-6.14
-7.03
-7.91
-8.82
-9.72
-10.43
-10.64
-9.96
-8.17
-5.28
-1.62
2.25
5.75
8.43
10.08
10.73
10.57
9.80
8.64
7.23
5.70
4.19
2.80
1.69
0.94
0.63
0.72
1.10
1.54
1.75
1.56
0.90
-0.08
-1.12
-1.99
-2.56
-2.85
-3.04
-3.29
-3.75
-4.44
-5.35
-6.48
-7.80
-9.24
-10.60
-11.52
-11.58
-10.42
-7.93
-4.32
-0.10
4.13
7.80
10.54
12.22
12.90
12.76
12.00
10.80
9.35
7.83
6.48
5.50
5.04
5.10
5.57
6.17
6.66
6.82
6.59
5.99
5.14
4.12
3.03
1.89
0.78
-0.23
-1.10
-1.78
-2.36
-2.97
-3.78
-4.96
-6.54
-8.43
-10.38
-12.01
-12.91
-12.74
-11.34
-8.78
-5.36
-1.55
2.18
5.40
7.79
9.25
9.79
9.53
8.64
7.31
5.70
3.99
2.31
0.84
-0.29
-0.94
-1.10
-0.89
-0.52
-0.22
-0.17
-0.40
-0.83
-1.33
-1.82
-2.29
-2.78
-3.32
-3.89
-4.42
-4.90
-5.34
-5.85
-6.53
-7.41
-8.33
-9.00
-8.99
-7.98
-5.85
-2.74
0.92
4.58
7.72
9.98
11.20
11.39
10.71
9.37
7.64
5.78
4.05
2.60
1.54
0.84
0.45
0.29
0.32
0.50
0.75
0.92
0.85
0.39
-0.47
-1.62
-2.84
-3.93
-4.73
-5.26
-5.61
-5.97
-6.51
-7.34
-8.47
-9.76
-10.98
-11.81
-11.86
-10.80
-8.48
-5.02
-0.85
3.41
7.14
9.89
11.53
12.16
12.04
11.42
10.42
9.11
7.51
5.74
4.02
2.58
1.62
1.21
1.31
1.76
2.35
2.87
3.16
3.10
2.66
1.89
0.90
-0.20
-1.28
-2.24
-3.03
-3.64
-4.11
-4.57
-5.18
-6.12
-7.42
-8.95
-10.33
-11.06
-10.65
-8.89
-5.87
-2.01
2.06
5.74
8.56
10.29
10.92
10.60
9.58
8.15
6.63
5.27
4.27
3.68
3.46
3.49
3.65
3.85
4.04
4.18
4.24
4.18
3.92
3.45
2.78
1.97
1.13
0.32
-0.38
-0.99
-1.56
-2.19
-2.95
-3.90
-5.06
-6.40
-7.80
-9.04
-9.79
-9.70
-8.48
-6.06
-2.66
1.22
4.96
8.02
10.06
11.07
11.22
10.78
9.97
8.94
7.79
6.62
5.59
4.82
4.46
4.59
5.23
6.35
7.84
9.49
11.04
12.25
12.98
13.32
13.50
13.83
14.57
15.77
17.27
18.86
20.32
21.64
23.02
24.80
27.37
31.01
35.74
41.25
46.81
51.29
53.37
51.78
45.77
35.47
21.96
6.98
-7.55
-20.17
-30.30
-38.25
-44.90
-51.23
-57.84
-64.72
-71.36
-76.92
-80.52
-81.52
-79.70
-75.27
-68.82
-61.17
-53.11
-45.29
-38.18
-32.02
-26.95
-23.03
-20.21
-18.38
-17.37
-16.98
-17.06
-17.56
-18.44
-19.58
-20.70
-21.34
-20.99
-19.22
-15.89
-11.22
-5.69
0.06
5.39
9.84
13.15
15.24
16.19
16.22
15.61
14.67
13.69
12.89
12.34
12.03
11.90
11.90
11.97
12.04
12.06
11.93
11.57
10.95
10.09
9.07
8.01
7.01
6.11
5.30
4.53
3.71
2.76
1.59
0.15
-1.53
-3.32
-4.94
-6.05
-6.33
-5.61
-3.92
-1.51
1.24
3.90
6.16
7.80
8.75
9.03
8.75
8.15
7.47
6.95
6.72
6.79
7.07
7.47
7.94
8.49
9.12
9.77
10.33
10.66
10.69
10.44
10.01
9.47
8.80
7.92
6.73
5.24
3.60
2.01
0.64
-0.50
-1.52
-2.55
-3.57
-4.32
-4.41
-3.46
-1.36
1.66
5.09
8.28
10.76
12.30
12.94
12.84
12.18
11.07
9.60
7.90
6.20
4.80
3.97
3.80
4.22
4.99
5.76
6.25
6.30
5.91
5.20
4.34
3.50
2.74
2.06
1.38
0.64
-0.15
-0.97
-1.76
-2.52
-3.26
-4.04
-4.82
-5.45
-5.69
-5.26
-4.00
-1.92
0.72
3.52
6.01
7.83
8.80
8.93
8.39
7.40
6.18
4.86
3.51
2.11
0.71
-0.55
-1.48
-1.87
-1.64
-0.91
0.01
0.78
1.14
1.00
0.50
-0.17
-0.85
-1.48
-2.11
-2.79
-3.52
-4.24
-4.94
-5.64
-6.47
-7.53
-8.81
-10.07
-10.88
-10.81
-9.57
-7.19
-4.04
-0.69
2.31
4.51
5.76
6.05
5.50
4.27
2.52
0.50
-1.51
-3.15
-4.18
-4.50
-4.25
-3.72
-3.18
-2.77
-2.48
-2.20
-1.82
-1.39
-1.06
-1.03
-1.40
-2.14
-3.05
-3.88
-4.44
-4.73
-4.91
-5.23
-5.94
-7.07
-8.46
-9.72
-10.32
-9.74
-7.65
-4.00
0.81
5.93
10.20
12.39
11.67
7.95
1.99
-4.80
-10.85
-14.85
-16.14
-14.70
-10.99
-5.78
0.09
5.79
10.54
13.78
15.36
15.57
15.10
14.72
14.98
16.05
17.67
19.30
20.34
20.35
19.26
17.23
14.62
11.87
9.35
7.31
5.77
4.52
3.20
1.55
-0.55
-3.10
-5.95
-8.89
-11.36
-12.82
-13.12
-12.62
-11.69
-10.44
-8.87
-6.89
-4.56
-2.10
0.09
1.57
1.93
1.23
-0.01
-1.20
-1.82
-1.65
-0.71
0.68
2.10
3.01
3.29
3.38
3.76
4.85
6.76
9.52
12.92
16.62
19.44
20.31
18.66
14.29
7.78
-0.46
-9.77
-19.29
-28.34
-37.22
-46.54
-55.20
-62.67
-68.53
-72.28
-73.11
-70.36
-60.65
-44.34
-24.87
-6.08
10.12
24.07
36.49
47.19
54.85
57.84
54.94
46.91
36.36
26.17
18.38
13.53
11.17
10.46
10.73
11.15
11.28
11.04
10.34
9.13
7.35
5.08
2.58
0.13
-2.31
-4.65
-6.61
-7.90
-8.42
-8.27
-7.70
-6.98
-6.31
-5.87
-5.66
-5.54
-5.30
-4.85
-4.28
-3.70
-3.16
-2.67
-2.22
-1.80
-1.44
-1.24
-1.27
-1.54
-1.86
-1.88
-1.22
0.33
2.68
5.44
8.01
9.84
10.60
10.27
9.07
7.35
5.43
3.51
1.67
-0.07
-1.65
-3.02
-4.11
-4.88
-5.36
-5.68
-6.01
-6.49
-7.24
-8.24
-9.35
-10.36
-11.09
-11.43
-11.39
-11.10
-10.73
-10.43
-10.30
-10.39
-10.76
-11.43
-12.34
-13.31
-13.99
-13.92
-12.73
-10.22
-6.53
-2.08
2.53
6.74
10.13
12.47
13.70
13.86
13.03
11.35
9.01
6.37
3.85
1.82
0.59
0.20
0.56
1.44
2.61
3.88
5.17
6.44
7.68
8.87
9.91
10.61
10.69
9.88
8.00
5.12
1.50
-2.42
-6.15
-9.27
-11.49
-12.65
-12.70
-11.65
-9.64
-6.87
-3.64
-0.28
2.90
5.65
7.78
9.16
9.71
9.42
8.34
6.59
4.41
2.15
0.20
-1.01
-1.21
-0.35
1.32
3.28
4.93
5.77
5.60
4.57
3.17
2.02
1.65
2.34
4.01
6.28
8.58
10.38
11.31
11.25
10.37
9.09
7.90
7.29
7.54
8.67
10.43
12.37
13.98
14.89
14.90
14.01
12.40
10.25
7.78
5.19
2.69
0.51
-1.15
-2.16
-2.49
-2.15
-1.21
0.27
2.20
4.39
6.51
8.08
8.53
7.43
4.64
0.39
-4.77
-10.17
-15.17
-19.30
-22.31
-24.05
-24.44
-23.47
-21.19
-17.84
-13.89
-9.95
-6.64
-4.44
-3.53
-3.75
-4.72
-5.97
-7.11
-7.97
-8.59
-9.14
-9.76
-10.48
-11.17
-11.58
-11.49
-10.80
-9.59
-8.08
-6.53
-5.13
-3.96
-2.89
-1.71
-0.15
1.93
4.51
7.38
10.15
12.39
13.69
13.85
12.89
11.09
8.94
7.01
5.84
5.79
7.00
9.33
12.42
15.76
18.79
21.03
22.19
22.15
21.05
19.20
17.00
14.91
13.32
12.49
12.47
13.10
13.99
14.63
14.55
13.45
11.30
8.36
5.10
2.12
-0.05
-1.07
-0.86
0.25
1.60
2.34
1.64
-1.00
-5.56
-11.48
-17.83
-23.59
-27.93
-30.43
-31.02
-29.86
-27.23
-23.42
-18.74
-13.56
-8.34
-3.57
0.37
3.29
5.23
6.45
7.25
7.93
8.63
9.34
9.95
10.26
10.12
9.42
8.10
6.19
3.72
0.76
-2.58
-6.06
-9.35
-12.04
-13.77
-14.42
-14.14
-13.44
-12.95
-13.21
-14.39
-16.21
-17.97
-18.81
-18.03
-15.31
-10.80
-5.10
1.00
6.66
11.21
14.21
15.50
15.17
13.50
10.97
8.10
5.40
3.25
1.81
1.03
0.73
0.69
0.81
1.09
1.69
2.74
4.30
6.28
8.46
10.52
12.21
13.45
14.40
15.46
17.11
19.65
22.95
26.36
28.74
28.86
25.78
19.25
9.81
-1.32
-12.55
-22.33
-29.46
-33.34
-34.03
-32.17
-28.77
-24.94
-21.53
-18.96
-17.18
-15.84
-14.53
-13.04
-11.37
-9.63
-7.93
-6.20
-4.26
-1.94
0.80
3.79
6.70
9.09
10.54
10.67
9.26
6.30
2.08
-2.85
-7.77
-12.03
-15.28
-17.63
-19.51
-21.49
-23.91
-26.66
-29.16
-30.60
-30.28
-27.84
-23.48
-17.77
-11.48
-5.31
0.25
4.90
8.49
10.93
12.21
12.43
11.89
11.01
10.29
10.08
10.51
11.46
12.67
13.84
14.74
15.24
15.34
15.16
14.95
14.94
15.30
15.96
16.52
16.38
14.93
11.85
7.30
1.93
-3.42
-8.00
-11.44
-13.79
-15.34
-16.37
-16.88
-16.66
-15.39
-12.93
-9.46
-5.48
-1.59
1.70
4.19
5.99
7.36
8.59
9.81
11.03
12.22
13.37
14.54
15.81
17.13
18.25
18.66
17.73
14.96
10.28
4.22
-2.16
-7.59
-11.02
-12.11
-11.25
-9.38
-7.56
-6.47
-6.34
-7.01
-8.20
-9.78
-11.67
-13.78
-15.77
-17.08
-17.06
-15.28
-11.74
-6.93
-1.66
3.21
7.03
9.52
10.77
11.16
11.10
10.95
10.90
11.03
11.27
11.55
11.79
11.91
11.90
11.79
11.76
12.07
13.06
15.00
18.01
21.90
26.17
29.99
32.33
32.22
29.04
22.79
14.19
4.55
-4.60
-11.99
-16.97
-19.63
-20.64
-20.88
-21.14
-21.82
-22.93
-24.14
-24.97
-24.97
-23.87
-21.63
-18.47
-14.81
-11.15
-7.94
-5.50
-3.96
-3.31
-3.40
-4.04
-4.99
-6.00
-6.82
-7.23
-7.04
-6.17
-4.68
-2.75
-0.71
1.08
2.31
2.84
2.67
2.01
1.16
0.41
0.01
0.11
0.78
2.02
3.72
5.61
7.25
8.09
7.66
5.72
2.57
-1.06
-4.13
-5.68
-5.14
-2.57
1.44
5.95
10.03
13.01
14.58
14.75
13.73
11.85
9.42
6.78
4.28
2.29
1.21
1.34
2.79
5.43
8.80
12.22
14.93
16.33
16.10
14.35
11.51
8.19
5.04
2.55
0.99
0.42
0.65
1.31
1.84
1.63
0.19
-2.67
-6.70
-11.25
-15.46
-18.44
-19.62
-18.83
-16.40
-13.02
-9.57
-6.87
-5.49
-5.59
-6.91
-8.91
-10.93
-12.45
-13.14
-12.91
-11.82
-10.03
-7.73
-5.13
-2.47
0.05
2.29
4.18
5.71
6.78
7.20
6.70
5.04
2.19
-1.56
-5.65
-9.35
-12.00
-13.27
-13.30
-12.61
-11.95
-11.88
-12.59
-13.67
-14.33
-13.68
-11.11
-6.59
-0.63
5.84
11.84
16.58
19.64
20.96
20.73
19.32
17.13
14.59
12.12
10.13
8.88
8.48
8.79
9.52
10.30
10.91
11.40
12.00
12.95
14.30
15.72
16.60
16.25
14.28
10.72
6.06
1.02
-3.70
-7.61
-10.51
-12.41
-13.42
-13.75
-13.60
-13.19
-12.72
-12.32
-11.99
-11.62
-10.99
-9.86
-8.08
-5.75
-3.22
-1.10
-0.02
-0.37
-2.12
-4.77
-7.57
-9.82
-11.18
-11.70
-11.69
-11.49
-11.23
-10.87
-10.33
-9.60
-8.77
-7.93
-7.04
-5.92
-4.33
-2.12
0.66
3.77
6.90
9.77
12.20
14.09
15.27
15.54
14.69
12.55
9.20
5.05
0.76
-2.84
-4.99
-5.28
-3.76
-0.91
2.54
5.93
8.81
11.02
12.66
13.85
14.69
15.15
15.15
14.62
13.58
12.17
10.67
9.50
9.12
10.00
12.41
16.34
21.43
27.01
32.12
35.74
36.92
34.97
29.68
21.42
11.18
0.35
-9.54
-17.25
-22.12
-24.19
-24.09
-22.69
-20.75
-18.72
-16.72
-14.76
-12.97
-11.61
-10.98
-11.19
-11.96
-12.75
-13.05
-12.66
-11.82
-11.08
-10.92
-11.45
-12.37
-13.12
-13.21
-12.53
-11.29
-9.91
-8.75
-7.94
-7.39
-6.98
-6.62
-6.38
-6.40
-6.86
-7.87
-9.37
-11.16
-12.93
-14.30
-14.94
-14.67
-13.54
-11.81
-9.89
-8.20
-7.11
-6.76
-7.04
-7.59
-7.81
-7.09
-4.96
-1.25
3.81
9.69
15.70
21.19
25.71
29.02
31.04
31.82
31.46
30.11
28.00
25.41
22.68
20.16
18.21
17.17
17.29
18.71
21.32
24.75
28.29
31.03
32.11
30.90
27.34
21.88
15.38
8.81
2.94
-1.89
-5.82
-9.36
-13.19
-17.94
-23.88
-30.88
-38.28
-45.11
-50.22
-52.67
-51.94
-48.11
-41.75
-33.79
-25.28
-17.17
-10.17
-4.65
-0.65
2.06
3.90
5.31
6.69
8.37
10.61
13.47
16.83
20.21
22.86
23.93
22.74
19.05
13.17
5.89
-1.86
-9.20
-15.57
-20.65
-24.33
-26.56
-27.34
-26.78
-25.17
-22.98
-20.80
-19.18
-18.50
-18.79
-19.77
-20.84
-21.34
-20.68
-18.55
-15.04
-10.57
-5.77
-1.25
2.58
5.55
7.75
9.40
10.71
11.81
12.76
13.55
14.24
14.96
15.89
17.21
18.96
21.00
23.02
24.62
25.42
25.17
23.81
21.42
18.22
14.47
10.46
6.43
2.56
-1.02
-4.29
-7.29
-10.10
-12.87
-15.72
-18.68
-21.59
-24.10
-25.68
-25.79
-24.06
-20.43
-15.21
-9.00
-2.49
3.71
9.18
13.74
17.35
20.09
22.07
23.38
24.08
24.23
23.85
22.95
21.49
19.48
16.92
13.87
10.49
7.04
3.81
1.10
-0.92
-2.26
-3.11
-3.76
-4.53
-5.60
-7.00
-8.62
-10.27
-11.78
-13.00
-13.88
-14.41
-14.65
-14.74
-14.84
-15.12
-15.63
-16.23
-16.64
-16.50
-15.48
-13.43
-10.47
-6.87
-3.03
0.70
4.06
6.91
9.20
10.91
11.99
12.44
12.29
11.73
11.02
10.46
10.17
10.06
9.84
9.18
7.94
6.38
5.01
4.52
5.39
7.73
11.21
15.13
18.63
20.93
21.45
20.01
16.83
12.50
7.84
3.58
0.21
-2.17
-3.77
-4.93
-5.94
-6.92
-7.81
-8.51
-8.93
-9.08
-9.04
-8.86
-8.59
-8.18
-7.61
-6.87
-6.04
-5.30
-4.84
-4.81
-5.23
-5.94
-6.68
-7.17
-7.23
-6.85
-6.17
-5.37
-4.56
-3.76
-2.87
-1.75
-0.31
1.43
3.35
5.19
6.62
7.27
6.81
5.04
2.04
-1.83
-5.99
-9.78
-12.62
-14.16
-14.25
-12.96
-10.44
-6.97
-2.92
1.24
5.01
7.98
9.96
11.03
11.42
11.41
11.19
10.85
10.39
9.80
9.10
8.34
7.54
6.71
5.85
5.00
4.24
3.71
3.59
4.04
5.23
7.29
10.19
13.67
17.21
20.04
21.38
20.59
17.47
12.26
5.59
-1.63
-8.55
-14.44
-18.91
-21.88
-23.55
-24.25
-24.24
-23.66
-22.44
-20.44
-17.60
-14.06
-10.18
-6.44
-3.21
-0.71
1.11
2.37
3.20
3.62
3.59
3.11
2.31
1.46
0.88
0.84
1.43
2.56
4.01
5.55
6.99
8.14
8.79
8.64
7.37
4.80
1.01
-3.53
-8.09
-11.89
-14.34
-15.24
-14.79
-13.46
-11.73
-10.04
-8.63
-7.66
-7.13
-6.87
-6.57
-5.76
-3.98
-0.91
3.43
8.69
14.23
19.31
23.31
25.84
26.84
26.49
25.15
23.24
21.12
19.06
17.18
15.55
14.21
13.25
12.77
12.92
13.82
15.50
17.79
20.35
22.60
23.81
23.20
20.23
14.77
7.21
-1.63
-10.69
-19.03
-26.04
-31.51
-35.55
-38.33
-40.00
-40.53
-39.85
-37.95
-34.91
-30.94
-26.29
-21.19
-15.80
-10.25
-4.72
0.53
5.11
8.63
10.77
11.39
10.66
8.99
7.00
5.38
4.75
5.45
7.43
10.17
12.75
14.09
13.29
9.98
4.46
-2.35
-9.26
-15.18
-19.46
-21.92
-22.81
-22.56
-21.62
-20.39
-19.24
-18.52
-18.58
-19.56
-21.40
-23.69
-25.73
-26.79
-26.23
-23.74
-19.40
-13.62
-7.06
-0.42
5.63
10.59
14.19
16.43
17.53
17.91
18.00
18.08
18.18
18.19
17.95
17.45
16.91
16.76
17.44
19.25
22.23
26.10
30.34
34.15
36.63
36.82
34.00
27.92
19.03
8.48
-2.13
-11.24
-17.77
-21.51
-22.98
-23.19
-23.10
-23.26
-23.64
-23.83
-23.28
-21.70
-19.17
-16.09
-12.99
-10.27
-8.11
-6.45
-5.19
-4.29
-3.78
-3.76
-4.20
-4.92
-5.60
-5.92
-5.72
-5.04
-4.06
-3.00
-1.94
-0.82
0.43
1.82
3.19
4.26
4.79
4.73
4.26
3.72
3.46
3.69
4.39
5.31
6.16
6.71
6.82
6.41
5.49
4.16
2.63
1.31
0.71
1.30
3.24
6.27
9.72
12.71
14.50
14.79
13.75
11.92
9.92
8.20
6.99
6.27
5.92
5.81
5.82
5.88
6.00
6.20
6.58
7.26
8.39
10.07
12.37
15.25
18.49
21.68
24.15
25.16
24.05
20.55
14.94
7.95
0.63
-6.05
-11.40
-15.10
-17.08
-17.43
-16.29
-13.88
-10.60
-7.03
-3.83
-1.49
-0.23
0.17
0.14
0.11
0.34
0.81
1.32
1.63
1.61
1.26
0.59
-0.39
-1.77
-3.61
-5.92
-8.55
-11.17
-13.39
-14.84
-15.29
-14.75
-13.47
-11.91
-10.63
-10.13
-10.66
-12.12
-14.09
-15.97
-17.16
-17.28
-16.19
-14.04
-11.12
-7.74
-4.17
-0.63
2.68
5.55
7.78
9.21
9.76
9.48
8.48
6.94
4.99
2.74
0.29
-2.27
-4.72
-6.79
-8.18
-8.70
-8.31
-7.14
-5.41
-3.29
-0.84
2.00
5.28
8.95
12.69
16.02
18.38
19.31
18.61
16.38
12.94
8.81
4.53
0.66
-2.34
-4.11
-4.53
-3.71
-2.05
-0.07
1.70
2.89
3.36
3.17
2.53
1.70
0.92
0.41
0.33
0.69
1.40
2.23
2.93
3.34
3.46
3.48
3.59
3.90
4.30
4.53
4.36
3.63
2.37
0.68
-1.32
-3.55
-5.93
-8.35
-10.60
-12.52
-14.12
-15.61
-17.37
-19.71
-22.63
-25.73
-28.27
-29.42
-28.60
-25.70
-21.09
-15.52
-9.87
-4.88
-0.98
1.69
3.25
3.85
3.67
2.83
1.47
-0.18
-1.76
-2.85
-3.14
-2.49
-1.02
0.95
3.04
4.96
6.58
7.91
9.04
10.09
11.18
12.41
13.89
15.70
17.81
20.03
21.97
23.13
23.06
21.51
18.63
14.90
11.01
7.62
5.17
3.80
3.40
3.73
4.62
5.94
7.62
9.46
11.07
11.94
11.53
9.57
6.18
1.83
-2.73
-6.74
-9.60
-10.98
-10.95
-9.83
-8.16
-6.53
-5.46
-5.27
-6.07
-7.71
-9.89
-12.20
-14.24
-15.70
-16.45
-16.59
-16.48
-16.60
-17.38
-18.94
-20.88
-22.36
-22.31
-19.90
-14.89
-7.82
0.14
7.58
13.26
16.55
17.44
16.47
14.39
11.93
9.65
7.93
7.02
7.04
7.96
9.55
11.34
12.73
13.22
12.54
10.80
8.40
5.88
3.73
2.20
1.29
0.74
0.23
-0.57
-1.86
-3.73
-6.17
-9.08
-12.27
-15.47
-18.24
-19.99
-20.07
-17.91
-13.29
-6.45
1.92
10.76
18.98
25.64
30.17
32.37
32.39
30.61
27.52
23.71
19.73
16.08
13.11
10.96
9.57
8.73
8.19
7.76
7.33
6.85
6.28
5.55
4.51
3.04
1.10
-1.20
-3.67
-6.03
-8.12
-9.95
-11.71
-13.71
-16.24
-19.45
-23.20
-27.07
-30.37
-32.35
-32.39
-30.18
-25.91
-20.14
-13.73
-7.56
-2.38
1.36
3.51
4.19
3.71
2.53
1.16
0.10
-0.28
0.15
1.30
2.90
4.59
6.08
7.18
7.83
8.12
8.17
8.14
8.15
8.32
8.68
9.22
9.82
10.30
10.39
9.88
8.62
6.63
4.04
1.10
-1.88
-4.60
-6.73
-7.93
-7.84
-6.19
-2.83
2.17
8.42
15.29
21.91
27.30
30.58
31.15
28.85
24.01
17.37
9.84
2.33
-4.40
-9.80
-13.51
-15.37
-15.45
-14.08
-11.83
-9.36
-7.25
-5.82
-5.13
-5.01
-5.23
-5.57
-5.85
-5.99
-5.98
-5.94
-6.07
-6.62
-7.76
-9.46
-11.46
-13.30
-14.47
-14.58
-13.44
-11.16
-8.11
-4.84
-2.02
-0.19
0.30
-0.58
-2.52
-4.99
-7.46
-9.55
-11.09
-12.09
-12.64
-12.81
-12.61
-11.97
-10.87
-9.32
-7.46
-5.49
-3.63
-2.09
-1.00
-0.36
-0.05
0.10
0.26
0.52
0.92
1.40
1.93
2.48
2.98
3.36
3.54
3.47
3.21
2.95
2.96
3.47
4.63
6.43
8.69
11.17
13.64
15.95
18.10
20.15
22.22
24.37
26.49
28.24
29.06
28.32
25.47
20.37
13.29
5.02
-3.44
-11.06
-17.09
-21.17
-23.31
-23.83
-23.18
-21.85
-20.28
-18.77
-17.53
-16.64
-16.14
-16.12
-16.71
-17.97
-19.81
-21.83
-23.37
-23.72
-22.33
-19.07
-14.24
-8.46
-2.47
3.18
8.15
12.33
15.68
18.18
19.71
20.19
19.60
18.09
15.97
13.67
11.62
10.16
9.52
9.77
10.83
12.36
13.82
14.47
13.66
11.10
7.12
2.61
-1.30
-3.70
-4.36
-3.74
-2.80
-2.53
-3.50
-5.74
-8.81
-12.04
-14.72
-16.31
-16.44
-14.98
-12.07
-8.14
-3.77
0.48
4.19
7.23
9.67
11.70
13.47
15.09
16.56
17.92
19.15
20.25
21.18
21.92
22.57
23.36
24.63
26.69
29.61
33.04
36.18
37.91
37.10
33.04
25.70
15.87
4.95
-5.43
-13.95
-19.95
-23.55
-25.51
-26.76
-28.06
-29.66
-31.30
-32.40
-32.40
-30.99
-28.27
-24.69
-20.80
-17.09
-13.83
-11.10
-8.89
-7.22
-6.16
-5.69
-5.62
-5.54
-4.98
-3.68
-1.74
0.35
2.02
2.91
3.06
2.83
2.61
2.59
2.60
2.30
1.42
-0.02
-1.76
-3.47
-5.03
-6.55
-8.34
-10.63
-13.35
-16.11
-18.26
-19.14
-18.37
-15.92
-12.17
-7.76
-3.40
0.36
3.19
5.04
6.04
6.38
6.27
5.86
5.27
4.63
4.07
3.71
3.62
3.85
4.34
5.04
5.95
7.09
8.56
10.41
12.66
15.19
17.80
20.20
22.13
23.31
23.57
22.80
20.91
17.81
13.37
7.44
0.05
-8.42
-17.10
-24.79
-30.22
-32.52
-31.59
-28.14
-23.40
-18.60
-14.55
-11.43
-8.96
-6.71
-4.45
-2.23
-0.24
1.37
2.64
3.81
5.15
6.79
8.61
10.33
11.61
12.25
12.20
11.60
10.69
9.75
9.01
8.56
8.39
8.31
8.04
7.23
5.54
2.67
-1.50
-6.83
-12.82
-18.67
-23.38
-26.08
-26.29
-24.10
-20.12
-15.22
-10.28
-5.92
-2.41
0.16
1.85
2.70
2.78
2.18
1.08
-0.30
-1.76
-3.08
-4.11
-4.70
-4.76
-4.27
-3.30
-2.04
-0.74
0.33
0.97
1.12
0.80
0.16
-0.60
-1.30
-1.77
-1.92
-1.70
-1.18
-0.50
0.15
0.59
0.77
0.75
0.79
1.20
2.24
4.00
6.37
9.07
11.74
14.08
15.85
16.92
17.29
17.03
16.34
15.47
14.69
14.17
13.96
13.96
14.01
14.00
13.88
13.70
13.55
13.52
13.66
13.95
14.32
14.66
14.78
14.51
13.75
12.49
10.84
8.94
6.96
5.00
3.16
1.48
0.01
-1.25
-2.33
-3.33
-4.33
-5.42
-6.52
-7.46
-8.00
-7.98
-7.43
-6.60
-5.88
-5.61
-5.94
-6.79
-7.87
-8.88
-9.61
-10.01
-10.14
-10.10
-9.90
-9.51
-8.90
-8.10
-7.19
-6.35
-5.68
-5.28
-5.15
-5.28
-5.64
-6.30
-7.39
-9.03
-11.31
-14.09
-16.97
-19.33
-20.47
-19.87
-17.35
-13.22
-8.16
-3.03
1.37
4.56
6.37
6.98
6.71
5.94
4.94
3.90
2.91
1.96
1.00
-0.08
-1.32
-2.74
-4.28
-5.75
-6.97
-7.73
-7.93
-7.61
-6.89
-5.94
-4.93
-3.97
-3.11
-2.37
-1.75
-1.31
-1.17
-1.48
-2.35
-3.76
-5.43
-6.88
-7.53
-6.87
-4.70
-1.20
3.11
7.51
11.35
14.18
15.84
16.41
16.11
15.18
13.82
12.21
10.46
8.69
7.01
5.52
4.29
3.36
2.73
2.35
2.14
1.95
1.66
1.16
0.42
-0.53
-1.61
-2.70
-3.73
-4.65
-5.46
-6.20
-6.97
-7.91
-9.13
-10.61
-12.09
-13.13
-13.16
-11.73
-8.69
-4.30
0.81
5.86
10.15
13.23
15.00
15.61
15.35
14.51
13.32
11.91
10.35
8.72
7.11
5.64
4.45
3.58
3.01
2.60
2.21
1.69
1.02
0.27
-0.41
-0.94
-1.34
-1.77
-2.41
-3.37
-4.62
-6.05
-7.59
-9.20
-10.94
-12.75
-14.37
-15.35
-15.12
-13.33
-9.98
-5.50
-0.58
4.08
7.99
10.97
13.02
14.26
14.75
14.52
13.59
12.04
10.04
7.84
5.69
3.80
2.31
1.22
0.48
-0.02
-0.37
-0.66
-0.95
-1.27
-1.64
-2.07
-2.55
-3.12
-3.82
-4.71
-5.86
-7.35
-9.16
-11.20
-13.20
-14.76
-15.39
-14.68
-12.42
-8.74
-4.08
0.86
5.38
8.91
11.20
12.29
12.45
12.01
11.20
10.18
8.99
7.65
6.21
4.73
3.32
2.06
1.05
0.35
-0.01
-0.06
0.07
0.17
0.04
-0.47
-1.36
-2.50
-3.69
-4.75
-5.66
-6.53
-7.56
-8.92
-10.62
-12.44
-13.91
-14.49
-13.69
-11.32
-7.53
-2.80
2.18
6.75
10.41
12.91
14.23
14.49
13.92
12.74
11.14
9.34
7.47
5.67
4.04
2.61
1.41
0.39
-0.45
-1.14
-1.64
-1.92
-1.93
-1.64
-1.12
-0.47
0.11
0.43
0.33
-0.30
-1.49
-3.20
-5.30
-7.64
-9.95
-11.92
-13.16
-13.32
-12.17
-9.72
-6.23
-2.20
1.83
5.34
8.02
9.79
10.74
11.10
11.08
10.83
10.40
9.80
9.03
8.14
7.25
6.49
5.94
5.58
5.26
4.83
4.13
3.16
1.97
0.76
-0.33
-1.17
-1.78
-2.22
-2.62
-3.11
-3.80
-4.79
-6.18
-7.96
-10.00
-12.01
-13.50
-13.93
-12.88
-10.21
-6.21
-1.48
3.19
7.07
9.74
11.08
11.27
10.65
9.57
8.25
6.80
5.28
3.73
2.26
0.99
0.05
-0.50
-0.74
-0.81
-0.92
-1.21
-1.72
-2.40
-3.10
-3.70
-4.11
-4.39
-4.66
-5.09
-5.82
-6.91
-8.27
-9.71
-10.94
-11.66
-11.59
-10.56
-8.56
-5.72
-2.31
1.29
4.71
7.61
9.74
11.00
11.36
10.96
9.96
8.59
7.03
5.45
3.92
2.49
1.19
0.03
-0.96
-1.71
-2.21
-2.48
-2.58
-2.59
-2.60
-2.65
-2.74
-2.85
-2.95
-3.09
-3.35
-3.88
-4.78
-6.09
-7.71
-9.39
-10.73
-11.28
-10.63
-8.60
-5.31
-1.24
2.98
6.69
9.42
11.01
11.57
11.34
10.58
9.43
8.00
6.39
4.74
3.29
2.23
1.69
1.61
1.79
2.00
2.03
1.80
1.36
0.83
0.32
-0.15
-0.62
-1.21
-1.98
-2.94
-4.05
-5.25
-6.52
-7.90
-9.40
-10.89
-12.05
-12.40
-11.46
-9.01
-5.21
-0.60
4.06
8.05
10.94
12.62
13.29
13.26
12.75
11.87
10.64
9.10
7.37
5.67
4.25
3.26
2.75
2.62
2.69
2.77
2.71
2.39
1.75
0.78
-0.44
-1.76
-3.05
-4.19
-5.19
-6.11
-7.08
-8.19
-9.52
-11.11
-12.92
-14.82
-16.53
-17.62
-17.62
-16.23
-13.49
-9.81
-5.95
-2.73
-0.76
-0.31
-1.23
-3.06
-5.24
-7.27
-8.85
-9.89
-10.46
-10.66
-10.55
-10.09
-9.18
-7.77
-5.88
-3.64
-1.22
1.21
3.56
5.78
7.77
9.42
10.56
11.03
10.76
9.81
8.32
6.49
4.52
2.58
0.83
-0.53
-1.23
-1.00
0.34
2.77
6.02
9.59
12.93
15.58
17.25
17.86
17.50
16.29
14.39
12.03
9.49
7.16
5.39
4.43
4.31
4.83
5.63
6.32
6.61
6.38
5.67
4.61
3.33
1.90
0.34
-1.35
-3.18
-5.13
-7.15
-9.24
-11.40
-13.58
-15.64
-17.26
-18.04
-17.54
-15.48
-11.87
-7.03
-1.55
3.91
8.77
12.67
15.53
17.43
18.55
19.02
18.90
18.22
17.01
15.36
13.48
11.56
9.79
8.29
7.07
6.11
5.32
4.59
3.84
3.00
2.09
1.16
0.31
-0.36
-0.80
-1.06
-1.28
-1.68
-2.54
-4.09
-6.46
-9.56
-12.99
-16.15
-18.35
-19.07
-18.18
-15.95
-12.92
-9.69
-6.68
-4.05
-1.78
0.17
1.81
3.04
3.77
3.96
3.73
3.25
2.77
2.49
2.54
2.92
3.54
4.24
4.84
5.22
5.33
5.20
4.90
4.46
3.85
3.04
2.07
0.99
-0.10
-1.20
-2.38
-3.76
-5.50
-7.60
-9.89
-11.92
-13.21
-13.35
-12.20
-9.75
-6.17
-1.75
3.08
7.82
11.98
15.07
16.77
16.94
16.04
14.79
13.93
13.86
14.57
15.70
16.82
17.54
17.71
17.74
18.24
19.78
22.55
26.42
31.05
35.92
40.24
41.20
36.27
24.36
6.79
-13.41
-32.81
-48.61
-59.06
-63.64
-63.04
-58.50
-51.52
-43.54
-35.74
-28.92
-23.58
-19.91
-17.88
-17.26
-17.41
-17.59
-17.18
-15.99
-14.08
-11.80
-9.50
-7.54
-6.16
-5.51
-5.52
-5.89
-5.97
-4.78
-1.46
4.39
12.43
21.65
30.79
38.71
44.60
47.36
46.89
43.17
36.42
27.37
17.29
7.77
0.13
-5.00
-7.89
-9.26
-9.99
-10.54
-10.84
-10.63
-9.74
-8.30
-6.68
-5.30
-4.40
-4.09
-4.32
-4.98
-5.99
-7.21
-8.51
-9.69
-10.54
-10.87
-10.63
-9.85
-8.70
-7.25
-5.66
-4.12
-2.80
-1.84
-1.25
-0.94
-0.76
-0.54
-0.18
0.26
0.67
0.93
0.97
0.82
0.57
0.28
-0.04
-0.39
-0.75
-1.03
-0.97
-0.29
1.19
3.43
6.07
8.57
10.36
11.05
10.57
9.16
7.20
5.10
3.16
1.52
0.26
-0.66
-1.27
-1.64
-1.85
-1.99
-2.10
-2.18
-2.18
-2.09
-1.89
-1.70
-1.63
-1.85
-2.40
-3.24
-4.21
-5.13
-5.84
-6.30
-6.54
-6.76
-7.21
-8.15
-9.70
-11.77
-13.95
-15.58
-15.91
-14.38
-10.83
-5.63
0.41
6.29
11.17
14.60
16.60
17.49
17.69
17.56
17.32
17.05
16.79
16.54
16.27
15.90
15.29
14.33
12.93
11.17
9.21
7.25
5.45
3.87
2.44
1.08
-0.28
-1.59
-2.76
-3.65
-4.23
-4.62
-5.03
-5.77
-7.08
-9.09
-11.70
-14.56
-17.17
-18.90
-19.24
-17.90
-14.95
-10.78
-6.01
-1.36
2.54
5.25
6.62
6.73
5.91
4.59
3.21
2.07
1.33
0.97
0.96
1.26
1.83
2.63
3.51
4.23
4.55
4.35
3.66
2.72
1.79
1.04
0.52
0.15
-0.24
-0.73
-1.42
-2.35
-3.60
-5.27
-7.38
-9.80
-12.18
-14.01
-14.78
-14.15
-12.10
-8.92
-5.12
-1.24
2.28
5.23
7.56
9.33
10.60
11.37
11.54
10.98
9.57
7.33
4.44
1.27
-1.73
-4.16
-5.75
-6.38
-6.08
-4.97
-3.24
-1.10
1.13
3.08
4.34
4.56
3.55
1.34
-1.81
-5.48
-9.19
-12.52
-15.08
-16.60
-16.87
-15.74
-13.17
-9.31
-4.48
0.74
5.72
9.92
13.05
15.19
16.71
18.06
19.54
21.15
22.64
23.59
23.70
22.91
21.42
19.59
17.78
