1660939305.00
64.000000
-0.00
-0.00
-0.00
-0.00
-0.00
-0.00
-0.00
-0.00
-0.00
-0.00
0.00
0.01
0.01
-0.00
-0.03
-0.05
-0.05
0.00
0.13
0.36
0.66
1.01
1.37
1.72
2.06
2.40
2.79
3.25
3.81
4.44
5.10
5.73
6.32
6.89
7.50
8.24
9.14
10.29
11.58
12.88
14.05
15.05
15.96
16.96
18.30
20.13
22.66
25.66
28.84
31.88
34.65
37.24
40.05
43.53
48.02
53.85
60.62
67.74
74.61
80.92
86.86
93.05
100.31
109.16
120.04
132.27
144.87
156.87
167.81
177.98
188.31
200.39
212.95
228.03
245.83
266.08
287.35
306.87
320.74
324.91
316.42
294.48
261.11
219.51
173.33
125.43
77.49
30.33
-15.48
-59.13
-99.79
-136.73
-170.40
-202.03
-233.39
-266.07
-300.72
-336.44
-370.51
-398.95
-417.47
-423.17
-415.60
-397.03
-371.52
-343.31
-315.41
-289.02
-263.96
-239.63
-216.01
-193.77
-173.78
-156.47
-141.41
-127.55
-113.82
-99.63
-85.12
-71.03
-58.25
-47.37
-38.45
-31.04
-24.47
-18.12
-11.69
-5.26
0.81
6.08
10.29
13.43
15.77
17.65
19.41
21.21
23.03
24.71
26.06
26.89
27.16
26.93
26.38
25.76
25.28
25.04
25.01
25.04
24.92
24.52
23.80
22.84
21.77
20.75
19.89
19.22
18.74
18.36
18.01
17.59
17.04
16.40
15.75
15.21
14.87
14.71
14.67
14.62
14.47
14.20
13.86
13.52
13.25
13.03
12.81
12.52
12.17
11.77
11.39
11.05
10.71
10.31
9.82
9.27
8.74
8.32
8.07
7.97
7.94
7.85
7.63
7.24
6.74
6.26
5.89
5.69
5.59
5.48
5.20
4.70
4.04
3.35
2.79
2.44
2.25
2.10
1.85
1.41
0.81
0.14
-0.52
-1.10
-1.59
-2.05
-2.53
-3.09
-3.73
-4.40
-5.04
-5.55
-5.92
-6.20
-6.51
-6.95
-7.56
-8.30
-9.04
-9.63
-10.00
-10.13
-10.08
-9.91
-9.67
-9.39
-9.04
-8.63
-8.15
-7.63
-7.06
-6.46
-5.83
-5.16
-4.47
-3.76
-3.05
-2.38
-1.81
-1.40
-1.16
-1.03
-0.90
-0.66
-0.27
0.19
0.61
0.89
1.06
1.23
1.55
2.08
2.74
3.35
3.75
3.87
3.78
3.64
3.59
3.67
3.82
3.94
3.96
3.88
3.77
3.68
3.65
3.67
3.73
3.85
4.05
4.34
4.71
5.06
5.30
5.39
5.32
5.11
4.82
4.48
4.13
3.84
3.66
3.68
3.92
4.31
4.71
4.97
4.98
4.77
4.43
4.10
3.90
3.85
3.92
4.00
4.01
3.90
3.68
3.40
3.12
2.84
2.55
2.23
1.88
1.56
1.33
1.23
1.24
1.30
1.34
1.33
1.33
1.40
1.60
1.90
2.18
2.32
2.23
1.95
1.62
1.42
1.46
1.70
2.02
2.24
2.26
2.08
1.82
1.59
1.46
1.43
1.45
1.49
1.54
1.63
1.77
1.92
2.01
1.96
1.79
1.54
1.30
1.13
1.05
1.01
0.99
0.94
0.85
0.73
0.59
0.43
0.27
0.13
0.05
0.07
0.21
0.45
0.75
1.05
1.30
1.46
1.55
1.58
1.54
1.44
1.25
0.98
0.69
0.47
0.42
0.58
0.93
1.34
1.66
1.72
1.48
0.99
0.40
-0.10
-0.38
-0.38
-0.16
0.17
0.50
0.74
0.90
1.02
1.15
1.29
1.40
1.41
1.29
1.08
0.87
0.76
0.82
1.00
1.18
1.27
1.18
0.96
0.70
0.51
0.47
0.56
0.70
0.80
0.79
0.67
0.48
0.29
0.18
0.22
0.39
0.61
0.77
0.79
0.66
0.45
0.27
0.19
0.21
0.25
0.25
0.17
0.04
-0.08
-0.13
-0.11
-0.04
0.03
0.10
0.16
0.25
0.33
0.40
0.43
0.42
0.37
0.32
0.27
0.22
0.16
0.11
0.09
0.13
0.27
0.50
0.78
1.04
1.22
1.30
1.25
1.12
0.95
0.78
0.67
0.61
0.62
0.66
0.73
0.81
0.89
0.95
0.99
0.96
0.88
0.76
0.66
0.62
0.66
0.74
0.82
0.88
0.90
0.91
0.90
0.85
0.72
0.48
0.17
-0.13
-0.32
-0.32
-0.16
0.08
0.26
0.28
0.13
-0.10
-0.31
-0.45
-0.51
-0.56
-0.65
-0.75
-0.81
-0.74
-0.52
-0.19
0.16
0.42
0.59
0.67
0.71
0.69
0.59
0.38
0.10
-0.13
-0.23
-0.15
0.04
0.19
0.19
-0.01
-0.37
-0.76
-1.05
-1.15
-0.98
-0.57
0.02
0.69
1.28
1.67
1.76
1.59
1.25
0.91
0.69
0.60
0.57
0.51
0.35
0.13
-0.04
-0.08
0.06
0.30
0.52
0.62
0.58
0.45
0.35
0.35
0.46
0.61
0.71
0.68
0.52
0.23
-0.09
-0.38
-0.55
-0.57
-0.46
-0.24
0.03
0.30
0.51
0.64
0.65
0.52
0.28
-0.02
-0.26
-0.34
-0.20
0.13
0.54
0.87
1.02
0.92
0.59
0.12
-0.41
-0.86
-1.13
-1.16
-0.94
-0.56
-0.14
0.19
0.40
0.47
0.44
0.31
0.07
-0.27
-0.62
-0.86
-0.84
-0.50
0.05
0.61
0.98
1.05
0.84
0.49
0.12
-0.16
-0.33
-0.35
-0.24
0.01
0.34
0.67
0.86
0.87
0.69
0.46
0.29
0.25
0.31
0.37
0.33
0.14
-0.13
-0.39
-0.53
-0.53
-0.41
-0.24
-0.10
-0.03
-0.00
0.02
0.05
0.12
0.22
0.31
0.39
0.43
0.45
0.46
0.49
0.56
0.69
0.86
1.03
1.13
1.08
0.84
0.44
-0.04
-0.46
-0.71
-0.73
-0.56
-0.30
-0.08
0.02
0.00
-0.09
-0.16
-0.17
-0.12
-0.07
-0.08
-0.19
-0.35
-0.51
-0.59
-0.51
-0.26
0.11
0.51
0.81
0.90
0.75
0.42
0.06
-0.17
-0.20
-0.04
0.18
0.31
0.29
0.14
-0.05
-0.20
-0.31
-0.40
-0.49
-0.57
-0.55
-0.37
-0.03
0.38
0.71
0.81
0.64
0.28
-0.11
-0.37
-0.41
-0.28
-0.11
0.01
0.02
-0.04
-0.13
-0.21
-0.30
-0.44
-0.64
-0.85
-0.97
-0.94
-0.74
-0.42
-0.08
0.20
0.39
0.48
0.51
0.50
0.46
0.38
0.26
0.13
0.04
0.04
0.18
0.43
0.72
0.95
1.06
1.01
0.85
0.61
0.33
0.02
-0.29
-0.58
-0.76
-0.80
-0.70
-0.51
-0.30
-0.13
0.02
0.16
0.31
0.45
0.51
0.48
0.34
0.16
0.00
-0.11
-0.19
-0.27
-0.38
-0.51
-0.63
-0.68
-0.66
-0.60
-0.52
-0.44
-0.34
-0.18
0.03
0.27
0.46
0.54
0.48
0.34
0.20
0.17
0.27
0.48
0.72
0.90
0.96
0.90
0.75
0.58
0.45
0.40
0.40
0.43
0.41
0.30
0.10
-0.14
-0.38
-0.55
-0.62
-0.58
-0.44
-0.24
-0.00
0.19
0.31
0.33
0.28
0.22
0.22
0.29
0.38
0.43
0.43
0.37
0.32
0.30
0.31
0.29
0.18
-0.04
-0.30
-0.52
-0.64
-0.67
-0.66
-0.63
-0.58
-0.46
-0.28
-0.03
0.19
0.32
0.34
0.28
0.23
0.26
0.36
0.45
0.45
0.30
0.06
-0.18
-0.32
-0.31
-0.18
-0.06
-0.06
-0.26
-0.65
-1.12
-1.53
-1.73
-1.66
-1.34
-0.88
-0.44
-0.13
-0.02
-0.05
-0.11
-0.08
0.08
0.35
0.63
0.82
0.87
0.78
0.57
0.31
0.04
-0.20
-0.38
-0.47
-0.48
-0.50
-0.67
-1.13
-1.98
-3.18
-4.55
-5.80
-6.68
-7.04
-6.93
-6.54
-6.15
-6.07
-6.44
-7.30
-8.50
-9.86
-11.19
-12.40
-13.49
-14.52
-15.57
-16.73
-18.05
-19.57
-21.27
-23.17
-25.25
-27.60
-30.31
-33.48
-37.14
-41.13
-45.14
-48.83
-52.03
-54.97
-58.22
-62.54
-68.58
-76.49
-85.87
-95.84
-105.46
-114.10
-121.65
-128.48
-135.11
-142.01
-149.45
-157.78
-167.41
-178.60
-190.79
-202.16
-209.57
-209.34
-198.58
-176.23
-143.33
-102.26
-55.63
-5.64
45.64
95.57
140.49
176.31
199.96
210.82
211.22
205.52
198.34
192.87
190.26
190.08
191.42
193.88
197.74
203.55
211.46
220.83
230.37
238.67
244.80
248.65
251.07
253.42
257.03
262.69
270.37
279.23
287.82
294.26
296.47
292.45
280.64
260.36
232.05
197.19
157.77
115.47
71.01
24.20
-25.31
-76.75
-127.47
-173.07
-208.80
-231.35
-240.17
-237.64
-227.89
-215.13
-202.12
-189.80
-177.87
-165.85
-153.86
-142.66
-133.11
-125.45
-119.10
-112.94
-105.93
-97.68
-88.53
-79.43
-71.30
-64.72
-59.62
-55.43
-51.39
-46.90
-41.78
-36.32
-31.08
-26.63
-23.28
-20.97
-19.31
-17.80
-15.99
-13.69
-11.04
-8.39
-6.16
-4.59
-3.71
-3.33
-3.15
-2.91
-2.49
-1.94
-1.39
-0.97
-0.76
-0.75
-0.90
-1.11
-1.33
-1.50
-1.59
-1.57
-1.47
-1.32
-1.19
-1.11
-1.06
-0.97
-0.80
-0.52
-0.19
0.07
0.18
0.09
-0.15
-0.46
-0.78
-1.07
-1.35
-1.62
-1.83
-1.91
-1.77
-1.40
-0.85
-0.22
0.41
0.97
1.48
1.95
2.37
2.64
2.67
2.33
1.61
0.57
-0.58
-1.62
-2.33
-2.60
-2.51
-2.20
-1.87
-1.60
-1.37
-1.07
-0.61
0.02
0.74
1.41
1.94
2.34
2.64
2.89
3.08
3.14
3.03
2.76
2.44
2.19
2.05
1.97
1.82
1.47
0.86
0.07
-0.79
-1.53
-2.02
-2.12
-1.71
-0.71
0.89
2.88
4.91
6.46
7.07
6.52
4.88
2.54
0.04
-2.16
-3.81
-4.85
-5.40
-5.56
-5.37
-4.83
-3.93
-2.76
-1.51
-0.43
0.32
0.67
0.73
0.72
0.83
1.18
1.76
2.46
3.08
3.48
3.65
3.67
3.71
3.89
4.27
4.72
5.02
4.90
4.17
2.76
0.76
-1.55
-3.84
-5.77
-7.12
-7.83
-8.02
-7.96
-7.89
-7.91
-7.93
-7.72
-7.04
-5.81
-4.11
-2.20
-0.33
1.31
2.68
3.79
4.70
5.42
5.96
6.31
6.48
6.48
6.30
5.90
5.20
4.17
2.81
1.28
-0.18
-1.26
-1.63
-1.10
0.29
2.19
4.04
5.24
5.35
4.25
2.17
-0.43
-2.98
-5.04
-6.32
-6.76
-6.42
-5.49
-4.21
-2.81
-1.49
-0.46
0.16
0.27
-0.12
-0.85
-1.65
-2.20
-2.25
-1.77
-0.92
0.02
0.83
1.42
1.88
2.35
2.92
3.57
4.10
4.31
4.01
3.11
1.66
-0.20
-2.19
-4.06
-5.55
-6.50
-6.91
-6.84
-6.45
-5.88
-5.21
-4.45
-3.55
-2.41
-0.97
0.80
2.81
4.87
6.80
8.42
9.65
10.48
10.91
10.90
10.37
9.22
7.45
5.20
2.72
0.36
-1.57
-2.83
-3.36
-3.21
-2.55
-1.61
-0.66
0.10
0.53
0.53
0.09
-0.77
-2.02
-3.52
-5.09
-6.45
-7.31
-7.44
-6.76
-5.41
-3.66
-1.88
-0.39
0.59
1.01
0.93
0.54
0.03
-0.40
-0.62
-0.58
-0.33
0.05
0.51
1.02
1.66
2.50
3.55
4.69
5.69
6.28
6.20
5.37
3.87
1.91
-0.21
-2.20
-3.84
-5.03
-5.79
-6.18
-6.29
-6.14
-5.75
-5.08
-4.16
-3.07
-1.93
-0.86
0.10
0.94
1.74
2.52
3.28
3.98
4.53
4.82
4.80
4.42
3.68
2.64
1.40
0.07
-1.16
-2.15
-2.76
-2.91
-2.58
-1.84
-0.87
0.09
0.77
0.96
0.55
-0.40
-1.73
-3.19
-4.52
-5.55
-6.19
-6.46
-6.46
-6.30
-6.05
-5.70
-5.20
-4.51
-3.70
-2.89
-2.30
-2.03
-2.07
-2.17
-1.97
-1.12
0.50
2.76
5.29
7.61
9.36
10.40
10.80
10.76
10.47
9.97
9.15
7.90
6.20
4.20
2.15
0.34
-1.04
-1.96
-2.46
-2.66
-2.63
-2.41
-2.03
-1.51
-0.93
-0.36
0.10
0.43
0.61
0.66
0.65
0.65
0.75
0.97
1.32
1.70
2.01
2.17
2.14
1.91
1.52
1.02
0.47
-0.08
-0.56
-0.94
-1.22
-1.46
-1.75
-2.18
-2.77
-3.50
-4.28
-5.02
-5.69
-6.29
-6.88
-7.46
-8.02
-8.49
-8.82
-8.98
-8.99
-8.91
-8.83
-8.78
-8.79
-8.84
-8.90
-8.96
-9.02
-9.13
-9.37
-9.85
-10.71
-12.07
-14.01
-16.45
-19.23
-22.05
-24.62
-26.75
-28.52
-30.23
-32.36
-35.38
-39.54
-44.74
-50.51
-56.24
-61.39
-65.74
-69.47
-73.03
-76.98
-81.70
-87.29
-93.59
-100.20
-106.63
-112.40
-117.18
-120.96
-124.27
-128.32
-134.66
-144.33
-156.83
-169.57
-178.16
-177.84
-165.25
-139.63
-102.83
-58.28
-9.70
39.81
87.82
132.24
171.00
202.22
224.76
238.62
244.99
245.82
243.22
239.04
234.61
230.59
226.50
220.49
209.45
189.50
156.98
109.67
47.95
-24.40
-100.21
-169.83
-223.17
-252.35
-253.66
-228.47
-182.41
-123.56
-60.39
-0.39
50.65
88.79
112.16
121.10
118.25
107.91
94.83
82.86
74.06
68.64
65.64
63.68
61.64
58.91
55.39
51.39
47.46
44.13
41.66
39.89
38.25
36.04
32.68
28.01
22.33
16.24
10.44
5.53
1.87
-0.47
-1.63
-1.89
-1.59
-1.05
-0.53
-0.20
-0.08
-0.10
-0.14
-0.05
0.22
0.63
1.05
1.29
1.19
0.70
-0.12
-1.14
-2.15
-3.00
-3.61
-4.00
-4.26
-4.55
-5.00
-5.68
-6.61
-7.72
-8.92
-10.16
-11.38
-12.54
-13.58
-14.47
-15.18
-15.77
-16.35
-17.06
-17.96
-19.05
-20.24
-21.36
-22.25
-22.74
-22.66
-21.83
-20.08
-17.29
-13.44
-8.66
-3.23
2.43
7.81
12.42
15.94
18.27
19.61
20.47
21.49
23.30
26.28
30.43
35.33
40.25
44.36
47.04
48.24
48.45
48.59
49.49
51.40
53.75
55.27
54.56
50.80
44.20
35.97
27.97
21.99
19.39
20.88
26.37
34.60
42.69
46.47
41.65
25.61
-0.94
-33.56
-65.33
-89.29
-100.96
-99.66
-88.16
-71.01
-52.67
-36.23
-23.17
-13.90
-8.31
-6.08
-6.68
-9.20
-12.45
-15.19
-16.40
-15.57
-12.85
-9.06
-5.30
-2.58
-1.37
-1.52
-2.32
-2.87
-2.47
-0.95
1.37
3.82
5.65
6.32
5.64
3.83
1.37
-1.20
-3.48
-5.29
-6.68
-7.90
-9.18
-10.69
-12.41
-14.16
-15.69
-16.73
-17.13
-16.77
-15.66
-13.86
-11.59
-9.16
-6.99
-5.42
-4.60
-4.43
-4.53
-4.41
-3.57
-1.67
1.37
5.34
9.75
14.00
17.45
19.70
20.62
20.43
19.53
18.22
16.59
14.50
11.79
8.47
4.91
1.66
-0.75
-2.05
-2.42
-2.24
-1.94
-1.75
-1.65
-1.50
-1.18
-0.74
-0.35
-0.13
-0.11
-0.18
-0.17
0.05
0.47
0.98
1.41
1.64
1.60
1.31
0.83
0.25
-0.36
-0.90
-1.31
-1.53
-1.53
-1.35
-1.06
-0.78
-0.57
-0.44
-0.35
-0.23
-0.04
0.19
0.35
0.39
0.29
0.14
0.06
0.14
0.37
0.64
0.83
0.90
0.87
0.82
0.83
0.90
0.94
0.86
0.61
0.18
-0.34
-0.83
-1.22
-1.44
-1.47
-1.35
-1.14
-0.91
-0.72
-0.58
-0.47
-0.37
-0.28
-0.23
-0.29
-0.46
-0.68
-0.83
-0.79
-0.50
-0.01
0.54
0.97
1.18
1.10
0.79
0.34
-0.14
-0.53
-0.77
-0.82
-0.69
-0.45
-0.18
0.04
0.16
0.24
0.34
0.55
0.87
1.25
1.59
1.78
1.80
1.69
1.55
1.49
1.53
1.64
1.74
1.80
1.78
1.69
1.56
1.41
1.25
1.14
1.16
1.36
1.74
2.20
2.60
2.81
2.79
2.61
2.41
2.32
2.37
2.55
2.78
3.03
3.27
3.51
3.73
3.86
3.84
3.64
3.31
2.99
2.84
3.00
3.50
4.26
5.12
5.89
6.45
6.73
6.74
6.61
6.44
6.40
6.55
6.93
7.45
7.88
7.94
7.34
5.92
3.74
1.10
-1.57
-3.86
-5.55
-6.70
-7.52
-8.23
-8.94
-9.54
-9.86
-9.77
-9.36
-8.88
-8.60
-8.70
-9.15
-9.72
-10.15
-10.24
-9.99
-9.54
-9.05
-8.66
-8.37
-8.11
-7.83
-7.50
-7.18
-6.98
-6.95
-7.08
-7.28
-7.41
-7.39
-7.26
-7.17
-7.29
-7.74
-8.49
-9.32
-9.98
-10.29
-10.27
-10.12
-10.17
-10.68
-11.74
-13.22
-14.80
-16.19
-17.17
-17.75
-18.11
-18.51
-19.28
-20.75
-23.26
-26.98
-31.61
-36.16
-39.08
-38.70
-33.93
-24.83
-12.79
0.04
11.44
19.95
25.16
27.46
27.60
26.24
23.80
20.64
17.19
14.03
11.66
10.32
9.84
9.73
9.47
8.68
7.30
5.53
3.77
2.45
2.03
2.82
4.99
8.39
12.58
16.88
20.61
23.28
24.78
25.40
25.67
26.07
26.89
28.11
29.50
30.74
31.51
31.62
30.97
29.62
27.70
25.39
22.86
20.28
17.79
15.53
13.65
12.26
11.41
11.05
11.05
11.23
11.49
11.84
12.40
13.45
15.30
18.18
22.16
27.06
32.45
37.81
42.70
47.00
50.97
55.18
60.28
66.63
74.14
82.24
90.15
97.25
103.39
108.96
114.64
121.08
128.62
137.35
147.28
158.46
170.66
182.85
192.85
197.43
193.27
178.14
151.83
116.13
73.86
27.62
-20.95
-70.81
-120.46
-167.02
-206.33
-234.20
-248.17
-248.76
-239.41
-225.21
-210.95
-199.73
-192.43
-188.19
-185.55
-183.28
-180.73
-177.47
-172.75
-165.30
-153.64
-136.91
-115.64
-92.20
-70.20
-53.28
-43.74
-41.68
-45.18
-51.32
-57.55
-62.59
-66.61
-70.41
-74.45
-78.30
