1660753798.00
64.000000
-0.00
-0.00
-0.00
-0.00
-0.00
-0.00
-0.00
-0.00
-0.00
-0.00
0.00
0.01
0.01
-0.00
-0.03
-0.05
-0.05
0.00
0.13
0.36
0.66
1.01
1.37
1.72
2.06
2.40
2.79
3.24
3.80
4.42
5.06
5.66
6.20
6.68
7.15
7.68
8.31
9.14
10.09
11.04
11.88
12.56
13.14
13.76
14.65
15.96
17.91
20.32
22.90
25.38
27.58
29.57
31.68
34.32
37.81
42.54
48.15
54.10
59.83
64.97
69.58
74.14
79.34
85.71
93.76
103.00
112.62
121.73
129.77
136.75
143.30
150.75
157.77
166.64
177.95
191.79
206.97
220.57
228.25
225.36
208.53
176.87
132.76
80.05
23.07
-34.94
-92.44
-149.16
-205.23
-260.37
-313.74
-363.87
-409.83
-450.91
-486.50
-515.74
-537.23
-549.22
-549.96
-538.37
-514.21
-478.67
-433.88
-382.45
-327.02
-269.84
-212.63
-156.66
-102.95
-52.37
-5.90
35.58
71.43
101.35
125.50
144.38
158.69
169.15
176.37
180.75
182.57
182.07
179.51
175.23
169.65
163.18
156.15
148.81
141.30
133.69
126.02
118.33
110.69
103.16
95.80
88.68
81.83
75.25
68.95
62.95
57.25
51.86
46.78
42.03
37.59
33.45
29.61
26.07
22.81
19.83
17.11
14.67
12.48
10.54
8.83
7.35
6.07
4.97
4.05
3.27
2.62
2.09
1.65
1.30
1.01
0.79
0.61
0.48
0.37
0.29
0.23
0.19
0.16
0.15
0.15
0.17
0.20
0.24
0.26
0.26
0.23
0.17
0.10
0.06
0.06
0.10
0.16
0.22
0.25
0.24
0.19
0.14
0.12
0.16
0.26
0.38
0.49
0.54
0.50
0.40
0.31
0.30
0.44
0.72
1.07
1.36
1.46
1.33
1.02
0.69
0.57
0.78
1.34
2.07
2.69
2.91
2.62
1.95
1.20
0.79
0.99
1.82
3.00
4.05
4.50
4.13
3.13
1.94
1.12
1.01
1.62
2.53
3.13
2.80
1.01
-2.68
-8.46
-16.01
-24.20
-31.08
-34.37
-32.37
-24.99
-13.98
-2.36
6.79
11.63
12.13
9.74
6.41
3.65
2.04
1.42
1.45
1.95
3.00
4.56
6.37
7.87
8.54
8.06
6.59
4.64
2.84
1.71
1.35
1.57
1.91
1.97
1.52
0.65
-0.35
-1.13
-1.47
-1.32
-0.86
-0.36
-0.04
-0.04
-0.34
-0.78
-1.20
-1.47
-1.57
-1.57
-1.70
-2.14
-3.05
-4.43
-6.07
-7.71
-9.08
-10.02
-10.53
-10.74
-10.78
-10.73
-10.55
-10.10
-9.24
-7.85
-6.00
-3.80
-1.54
0.51
2.20
3.54
4.68
5.69
6.53
7.00
6.90
6.24
5.27
4.45
4.18
4.57
5.39
6.15
6.41
5.98
5.06
4.04
3.35
3.20
3.48
3.89
4.09
3.92
3.40
2.75
2.24
2.01
2.06
2.23
2.26
1.87
0.92
-0.71
-2.97
-5.72
-8.73
-11.74
-14.46
-16.62
-17.90
-18.02
-16.81
-14.28
-10.77
-6.84
-3.15
-0.17
1.97
3.45
4.64
5.77
6.81
7.55
7.81
7.66
7.41
7.48
8.11
9.26
10.69
12.18
13.72
15.47
17.46
19.34
20.40
19.84
17.22
12.77
7.35
2.05
-2.23
-5.09
-6.64
-7.29
-7.50
-7.65
-7.98
-8.57
-9.41
-10.37
-11.28
-11.98
-12.36
-12.34
-11.84
-10.72
-8.93
-6.59
-4.04
-1.77
-0.24
0.30
-0.08
-1.07
-2.26
-3.27
-3.78
-3.69
-3.09
-2.22
-1.42
-0.93
-0.80
-0.90
-1.00
-0.99
-0.92
-0.99
-1.36
-2.09
-3.03
-3.96
-4.68
-5.15
-5.50
-5.90
-6.55
-7.57
-8.92
-10.39
-11.69
-12.50
-12.57
-11.84
-10.36
-8.35
-5.96
-3.40
-0.82
1.57
3.56
5.04
6.02
6.65
7.11
7.54
7.90
8.10
8.02
7.60
6.92
6.09
5.31
4.75
4.55
4.72
5.11
5.45
5.39
4.70
3.37
1.64
-0.18
-1.86
-3.32
-4.67
-6.04
-7.51
-9.05
-10.55
-11.89
-12.90
-13.44
-13.34
-12.53
-10.99
-8.89
-6.48
-4.01
-1.66
0.51
2.45
4.13
5.49
6.50
7.15
7.53
7.71
7.68
7.43
6.94
6.23
5.43
4.73
4.29
4.15
4.26
4.45
4.50
4.22
3.52
2.44
1.15
-0.18
-1.46
-2.72
-4.11
-5.72
-7.55
-9.43
-11.19
-12.77
-14.35
-16.12
-18.15
-20.20
-21.77
-22.32
-21.65
-19.97
-17.89
-16.09
-15.03
-14.77
-15.12
-15.81
-16.73
-18.06
-20.15
-23.33
-27.67
-32.80
-37.92
-41.89
-43.55
-41.94
-36.57
-27.47
-15.20
-0.78
14.57
29.58
43.13
54.30
62.48
67.41
69.27
68.74
66.93
65.23
64.85
66.43
69.78
74.03
77.97
80.56
81.24
79.90
76.70
71.79
65.19
57.02
47.59
37.50
27.50
18.22
9.95
2.53
-4.48
-11.65
-19.47
-28.23
-38.20
-49.74
-63.42
-79.95
-99.77
-122.67
-147.44
-172.00
-193.93
-211.32
-223.52
-231.40
-236.98
-242.49
-249.36
-257.60
-265.91
-272.31
-274.99
-272.80
-265.40
-253.15
-236.90
-217.94
-197.90
-178.46
-160.81
-145.24
-130.97
-116.51
-100.52
-82.34
-62.11
-40.28
-17.08
7.87
35.14
64.69
95.19
124.04
148.22
165.63
176.13
181.61
185.17
189.54
195.60
201.94
205.49
203.19
193.74
178.56
161.27
146.21
136.47
132.56
132.34
132.01
127.64
116.49
98.05
74.41
50.22
32.24
28.03
43.70
81.10
135.77
196.78
249.35
279.71
280.19
252.22
205.73
155.03
113.30
88.17
80.19
84.46
93.86
102.46
107.37
108.87
109.17
110.90
116.12
125.90
140.22
158.24
178.85
201.17
224.72
249.14
273.49
295.82
313.40
323.63
324.90
317.74
304.88
290.06
276.27
264.34
253.02
240.08
223.85
203.29
178.98
152.99
127.85
105.11
84.56
64.89
44.88
24.27
2.00
-22.07
-46.52
-68.61
-85.86
-97.55
-104.36
-107.43
-107.77
-109.09
-114.66
-125.23
-138.70
-151.98
-163.72
-174.11
-184.12
-195.00
-212.04
-240.22
-281.21
-332.52
-389.56
-449.53
-511.12
-573.87
-611.60
-603.70
-549.31
-468.87
-386.09
-313.39
-253.79
-205.01
-163.30
-125.66
-94.15
-71.58
-58.33
-56.00
-57.89
-59.88
-59.93
-56.78
-49.34
-39.12
-27.73
-15.53
-1.61
15.11
32.92
49.11
64.33
77.71
87.24
91.51
90.51
85.82
80.00
74.37
69.97
67.81
68.28
70.55
73.12
74.61
74.43
73.23
71.73
70.90
71.65
73.97
77.04
79.47
80.10
78.47
75.07
70.64
66.13
62.49
60.35
60.24
62.33
66.26
71.10
75.63
78.63
79.48
78.35
76.05
73.74
72.20
71.46
70.67
68.56
63.98
56.38
45.89
32.96
18.15
1.83
-15.54
-33.15
-49.61
-63.15
-72.21
-76.07
-75.31
-71.65
-67.48
-65.08
-66.16
-71.53
-81.11
-93.99
-108.69
-123.57
-137.24
-149.00
-159.06
-168.28
-177.69
-187.94
-198.88
-209.60
-218.71
-224.67
-226.30
-223.11
-215.73
-205.94
-196.37
-189.79
-187.98
-190.77
-195.82
-199.33
-197.53
-188.38
-172.57
-153.50
-135.94
-124.18
-120.43
-124.07
-132.03
-140.08
-144.15
-141.48
-131.03
-113.29
-89.64
-61.73
-31.06
1.31
34.84
69.35
104.70
140.22
174.33
204.57
228.24
243.47
250.15
250.11
246.51
242.48
240.02
239.52
240.11
240.66
240.40
239.00
236.00
230.18
219.49
201.70
175.39
140.67
99.34
54.53
10.34
-28.41
-56.44
-68.72
-62.01
-36.71
1.82
43.64
76.57
89.91
78.08
42.62
-8.32
-62.78
-108.93
-138.51
-148.64
-141.52
-122.63
-98.33
-73.96
-53.00
-37.19
-27.14
-22.78
-23.38
-27.28
-31.81
-33.75
-30.32
-20.31
-4.81
13.02
29.01
39.44
42.05
36.55
24.19
7.02
-12.56
-31.89
-48.06
-58.16
-59.93
-52.88
-39.04
-22.99
-10.61
-7.16
-15.42
-34.67
-61.11
-89.16
-113.07
-128.18
-131.59
-122.28
-101.12
-70.70
-35.05
0.95
32.54
56.23
70.76
77.49
79.91
82.29
88.14
99.05
114.33
131.55
147.61
159.96
167.34
169.95
169.06
166.35
163.34
160.91
159.13
157.15
153.51
146.79
136.65
124.60
113.93
108.55
111.08
121.05
134.40
144.53
144.65
130.25
100.76
59.64
13.14
-31.70
-68.97
-95.23
-109.84
-114.54
-112.41
-106.69
-99.91
-93.47
-87.92
-83.36
-79.81
-77.28
-75.56
-74.07
-72.02
-68.69
-63.92
-58.29
-53.03
-49.59
-49.11
-51.89
-57.22
-63.66
-69.75
-74.88
-79.67
-85.53
-93.48
-102.98
-111.64
-116.02
-113.41
-103.38
-88.38
-72.81
-61.11
-55.83
-56.53
-60.13
-62.26
-59.00
-48.31
-30.65
-8.65
13.93
33.61
48.48
58.72
66.18
73.15
81.13
90.18
99.35
107.70
115.36
123.73
134.65
149.08
166.12
183.07
196.46
203.40
202.60
194.62
181.59
166.83
154.29
147.93
150.59
162.78
181.74
201.64
215.16
215.98
201.21
172.36
134.65
94.84
58.77
29.70
7.94
-8.36
-21.96
-35.28
-49.77
-65.62
-81.96
-97.25
-109.95
-118.94
-124.00
-125.75
-125.27
-123.59
-121.19
-117.97
-113.70
-108.50
-103.13
-98.77
-96.44
-96.55
-98.84
-102.85
-108.57
-116.52
-127.10
-139.64
-151.84
-160.36
-162.15
-156.17
-144.16
-130.11
-118.55
-112.50
-112.23
-115.27
-117.47
-114.73
-104.31
-85.64
-60.33
-31.54
-2.95
22.31
42.57
58.01
70.26
81.54
93.60
107.09
121.53
135.73
148.55
159.21
167.40
173.06
176.12
176.69
175.17
172.43
169.50
167.06
164.95
162.23
158.06
152.68
147.99
146.85
151.38
161.02
171.67
176.64
169.07
144.82
104.37
52.92
-1.49
-50.67
-88.92
-114.30
-128.41
-134.92
-137.62
-138.87
-138.92
-136.45
-129.83
-118.47
-103.55
-87.55
-73.13
-61.90
-53.85
-47.74
-42.31
-37.30
-33.85
-33.99
-39.47
-50.77
-66.83
-85.29
-103.20
-117.61
-126.03
-126.88
-120.11
-107.77
-93.90
-83.47
-80.63
-86.76
-99.63
-113.95
-123.29
-122.29
-108.33
-81.91
-46.06
-5.26
35.56
71.67
99.12
115.31
119.61
113.66
101.06
86.47
74.36
67.84
68.03
74.14
84.09
95.49
106.40
115.73
123.20
128.96
133.22
135.89
136.48
134.36
129.21
121.59
113.14
106.42
104.09
107.75
116.98
128.85
138.39
139.98
129.09
104.14
67.33
24.28
-17.53
-51.19
-72.59
-81.62
-81.89
-79.04
-78.40
-83.09
-93.30
-106.71
-119.91
-129.71
-134.06
-132.25
-124.71
-112.74
-98.27
-83.63
-71.23
-63.08
-60.23
-62.46
-68.38
-76.05
-83.80
-90.70
-96.49
-100.93
-103.33
-102.33
-96.42
-84.68
-67.51
-46.73
-25.34
-6.94
4.92
7.66
0.38
-15.50
-36.17
-56.17
-69.96
-73.67
-66.46
-50.61
-30.55
-11.20
3.42
11.05
11.18
4.80
-6.03
-18.48
-29.36
-35.64
-35.33
-28.02
-15.21
0.04
14.06
23.62
27.09
24.91
19.44
14.03
11.68
13.66
18.78
23.86
25.14
20.29
10.10
-1.32
-7.87
-4.00
13.01
41.93
78.20
115.88
149.39
174.53
188.24
188.10
172.25
140.29
94.61
41.20
-11.24
-53.70
-79.82
-88.11
-82.25
-69.36
-57.20
-51.75
-55.98
-69.82
-90.93
-115.67
-139.90
-159.49
-171.14
-173.04
-165.32
-149.88
-129.60
-107.25
-84.69
-62.66
-41.37
-21.00
-2.09
14.65
28.68
39.82
48.37
54.87
60.01
64.68
69.87
76.42
84.58
93.72
102.32
108.56
111.12
109.85
105.91
101.29
98.06
97.64
100.45
106.08
113.70
122.39
131.45
140.46
149.21
157.68
165.97
174.28
182.98
192.52
203.39
215.81
229.56
243.81
257.40
269.14
278.28
284.60
288.20
289.07
286.60
279.69
266.97
247.61
221.80
191.00
157.63
124.43
93.72
66.87
44.19
25.21
9.12
-4.65
-16.34
-25.98
-33.82
-40.64
-47.66
-56.04
-66.14
-77.22
-87.62
-95.54
-99.93
-100.93
-99.78
-98.10
-97.09
-97.04
-97.39
-97.13
-95.34
-91.57
-85.92
-78.92
-71.38
-64.23
-58.36
-54.53
-53.18
-54.25
-57.19
-61.13
-65.25
-69.21
-73.43
-78.94
-86.97
-98.24
-112.60
-128.94
-145.46
-160.21
-171.39
-177.73
-178.55
-174.10
-165.45
-154.33
-142.48
-130.91
-119.60
-107.93
-95.55
-83.30
-73.42
-68.60
-70.38
-77.62
-86.28
-90.62
-85.61
-69.24
-43.49
-13.72
13.58
33.20
42.77
43.04
36.74
27.04
16.31
5.76
-4.15
-13.00
-20.12
-24.68
-26.28
-25.39
-23.32
-21.70
-21.86
-24.21
-28.09
-32.10
-34.77
-35.08
-32.93
-29.01
-24.54
-20.72
-18.35
-17.67
-18.45
-20.24
-22.62
-25.26
-27.92
-30.33
-32.15
-33.04
-32.75
-31.23
-28.71
-25.61
-22.49
-20.05
-18.99
-20.01
-23.47
-29.27
-36.62
-44.24
-50.66
-54.64
-55.51
-53.22
-48.29
-41.44
-33.48
-25.18
-17.23
-10.13
-4.21
0.45
4.02
6.79
9.01
10.80
12.15
12.96
13.08
12.47
11.14
9.23
6.92
4.38
1.78
-0.85
-3.51
-6.21
-8.84
-11.16
-12.83
-13.55
-13.21
-11.92
-9.97
-7.69
-5.34
-3.06
-0.89
1.12
2.91
4.37
5.49
6.34
7.12
8.09
9.37
10.87
12.25
13.09
13.12
12.37
11.24
10.30
9.98
10.47
11.58
13.01
14.49
15.94
17.39
18.90
20.39
21.68
22.64
23.24
23.54
23.50
22.77
20.71
16.53
9.65
-0.04
-12.05
-25.45
-39.08
-51.71
-62.16
-69.34
-72.41
-70.95
-65.16
-55.96
-44.80
-33.26
-22.60
-13.52
-6.18
-0.37
4.04
7.06
8.60
8.72
7.77
6.41
5.39
5.21
5.90
7.08
8.19
8.78
8.72
8.14
7.31
6.36
5.30
4.04
2.56
1.05
-0.19
-0.86
-0.90
-0.51
-0.15
-0.31
-1.30
-3.18
-5.71
-8.51
-11.19
-13.37
-14.79
-15.21
-14.56
-12.92
-10.60
-8.05
-5.72
-3.89
-2.55
-1.46
-0.30
1.07
2.54
3.76
4.38
4.25
3.52
2.58
1.86
1.61
1.79
2.23
2.63
2.87
2.96
3.02
3.16
3.33
3.33
2.95
2.09
0.82
-0.64
-2.00
-3.06
-3.73
-4.04
-4.12
-4.17
-4.34
-4.78
-5.56
-6.69
-8.07
-9.57
-10.97
-12.03
-12.45
-11.94
-10.36
-7.80
-4.61
-1.31
1.60
3.81
5.29
6.28
7.07
7.92
8.95
10.15
11.39
12.51
13.32
13.67
13.52
12.96
12.14
11.23
10.34
9.48
8.65
7.89
7.26
6.85
6.60
6.36
5.93
5.19
4.12
2.89
1.69
0.72
0.04
-0.36
-0.59
-0.89
-1.60
-3.02
-5.24
-8.03
-10.79
-12.72
-13.16
-11.86
-9.14
-5.69
-2.31
0.46
2.44
3.85
5.00
6.15
7.36
8.52
9.45
10.06
10.37
10.49
10.56
10.59
10.44
9.95
8.98
7.61
6.11
4.87
4.17
4.02
4.13
4.02
3.25
1.70
-0.47
-2.79
-4.79
-6.19
-6.94
-7.26
-7.47
-7.90
-8.79
-10.23
-12.21
-14.49
-16.74
-18.48
-19.32
-18.97
-17.40
-14.85
-11.72
-8.46
-5.45
-2.95
-1.05
0.27
1.07
1.54
1.90
2.34
3.01
3.91
4.87
5.73
6.35
6.73
6.97
7.20
7.43
7.62
7.71
7.67
7.53
7.33
7.02
6.48
5.59
4.36
2.92
1.51
0.33
-0.56
-1.29
-2.11
-3.27
-4.93
-7.03
-9.29
-11.23
-12.30
-12.02
-10.25
-7.29
-3.77
-0.45
2.13
3.84
4.96
5.96
7.25
8.92
10.75
12.36
13.39
13.68
13.33
12.64
11.93
11.47
11.32
11.39
11.50
11.51
11.40
11.19
10.94
10.57
9.95
8.90
7.42
5.68
4.04
2.84
2.21
1.96
1.64
0.74
-1.07
-3.81
-7.10
-10.38
-13.03
-14.59
-14.87
-13.96
-12.18
-9.95
-7.60
-5.37
-3.29
-1.28
0.81
3.07
5.42
7.72
9.81
11.59
13.11
14.42
15.60
16.58
17.22
17.36
16.93
16.05
14.94
13.89
13.06
12.48
12.02
11.53
10.90
10.08
9.06
7.79
6.17
4.18
1.84
-0.64
-2.96
-4.84
-6.16
-7.00
-7.64
-8.45
-9.75
-11.65
-13.95
-16.23
-17.87
-18.37
-17.55
-15.59
-12.98
-10.20
-7.54
-4.98
-2.34
0.45
3.25
5.74
7.62
8.85
9.65
10.39
11.37
12.57
13.74
14.53
14.67
14.12
13.02
11.64
10.21
8.92
7.86
7.05
6.50
6.16
5.99
5.88
5.65
5.10
4.07
2.53
0.64
-1.33
-3.16
-4.72
-6.12
-7.56
-9.29
-11.43
-13.90
-16.44
-18.67
-20.18
-20.63
-19.87
-18.01
-15.37
-12.37
-9.35
-6.53
-3.96
-1.63
0.45
2.30
3.89
5.29
6.59
7.86
9.10
10.20
11.00
11.41
11.39
11.04
10.48
9.84
9.21
8.70
8.34
8.12
7.91
7.49
6.69
5.40
3.71
1.79
-0.15
-1.99
-3.75
-5.50
-7.36
-9.37
-11.48
-13.58
-15.53
-17.16
-18.37
-19.03
-19.07
-18.39
-16.94
-14.73
-11.83
-8.47
-4.92
-1.54
1.41
3.80
5.63
7.05
8.17
9.10
9.88
10.52
11.03
11.46
11.82
12.05
12.07
11.78
11.12
10.17
9.10
8.10
7.30
6.65
6.00
5.13
3.80
1.96
-0.30
-2.72
-4.96
-6.75
-8.01
-8.87
-9.61
-10.53
-11.72
-13.09
-14.29
-14.96
-14.77
-13.55
-11.39
-8.53
-5.31
-2.09
0.84
3.37
5.50
7.34
8.99
10.49
11.79
12.78
13.39
13.58
13.33
12.71
11.80
10.78
9.84
9.15
8.73
8.48
8.17
7.61
6.69
5.45
4.03
2.57
1.18
-0.14
-1.45
-2.85
-4.44
-6.26
-8.21
-10.09
-11.61
-12.45
-12.47
-11.69
-10.32
-8.61
-6.73
-4.72
-2.54
-0.10
2.57
5.36
8.05
10.43
12.32
13.70
14.63
15.26
15.69
15.93
15.90
15.49
14.63
13.43
12.12
10.91
9.89
8.93
7.82
6.40
4.68
2.92
1.41
0.32
-0.48
-1.31
-2.58
-4.53
-7.12
-10.03
-12.84
-15.16
-16.76
-17.55
-17.51
-16.64
-14.89
-12.31
-9.04
-5.36
-1.69
1.59
4.20
6.08
7.40
8.43
9.45
10.61
11.91
13.19
14.22
14.78
14.78
14.28
13.46
12.60
11.90
11.44
11.19
11.00
10.72
10.20
9.36
8.13
6.55
4.74
2.93
1.34
0.10
-0.84
-1.69
-2.69
-3.99
-5.58
-7.28
-8.89
-10.22
-11.14
-11.51
-11.17
-9.90
-7.64
-4.49
-0.80
3.07
6.85
10.50
13.95
17.02
19.18
19.71
18.02
14.03
8.31
1.97
-3.77
-7.99
-10.37
-11.19
-11.03
-10.44
-9.73
-8.93
-7.96
-6.79
-5.55
-4.46
-3.70
-3.24
-2.90
-2.45
-1.83
-1.25
-1.10
-1.68
-3.02
-4.80
-6.50
-7.74
-8.41
-8.76
-9.23
-10.20
-11.81
-13.89
-16.05
-17.80
-18.71
-18.52
-17.21
-14.95
-12.07
-8.90
-5.68
-2.54
0.53
3.48
6.26
8.71
10.66
12.06
13.00
13.67
14.32
15.06
15.80
16.27
16.16
15.33
13.92
12.34
11.06
10.34
10.11
10.01
9.65
8.78
7.44
5.86
4.30
2.87
1.55
0.22
-1.23
-2.78
-4.43
-6.09
-7.75
-9.36
-10.94
-12.48
-14.00
-15.50
-16.97
-18.34
-19.54
-20.39
-20.76
-20.50
-19.50
-17.74
-15.29
-12.34
-9.18
-6.12
-3.40
-1.11
0.84
2.61
4.33
5.97
7.39
8.41
8.99
9.19
9.20
9.16
9.08
8.90
8.51
7.90
7.20
6.61
6.27
6.20
6.28
6.32
6.13
5.58
4.59
3.15
1.30
-0.77
-2.81
-4.54
-5.79
-6.62
-7.28
-8.15
-9.48
-11.29
-13.35
-15.22
-16.49
-16.89
-16.36
-14.93
-12.80
-10.17
-7.29
-4.41
-1.77
0.43
2.08
3.20
3.95
4.51
5.06
5.73
6.58
7.54
8.47
9.23
9.62
9.62
9.23
8.57
7.78
7.03
6.40
5.92
5.51
5.03
4.34
3.33
1.97
0.37
-1.33
-3.00
-4.60
-6.20
-7.91
-9.79
-11.80
-13.83
-15.70
-17.25
-18.29
-18.62
-18.07
-16.55
-14.18
-11.22
-8.07
-5.07
-2.39
-0.00
2.25
4.50
6.75
8.87
10.60
11.73
12.14
11.88
11.10
10.05
8.98
8.04
7.32
6.82
6.44
6.07
5.60
4.96
4.08
2.96
1.63
0.11
-1.49
-3.10
-4.62
-5.96
-7.10
-8.11
-9.15
-10.45
-12.18
-14.32
-16.59
-18.47
-19.35
-18.80
-16.74
-13.52
-9.74
-6.05
-2.85
-0.21
2.06
4.20
6.37
8.51
10.49
12.15
13.46
14.53
15.47
16.33
17.04
17.45
17.41
16.92
16.11
15.20
14.40
13.80
13.36
12.90
12.19
11.04
9.41
7.38
5.16
3.02
1.12
-0.54
-2.12
-3.83
-5.84
-8.16
-10.65
-13.12
-15.37
-17.27
-18.68
-19.41
-19.24
-17.99
-15.64
-12.46
-8.87
-5.32
-2.14
0.60
3.04
5.35
7.68
10.04
12.32
14.42
16.19
17.50
18.25
18.40
18.02
17.28
16.41
15.56
14.80
14.09
13.36
12.64
11.99
11.51
11.22
11.01
10.66
10.00
8.97
7.67
6.28
4.92
3.60
2.23
0.71
-1.01
-2.87
-4.74
-6.47
-7.98
-9.30
-10.56
-11.95
-13.59
-15.52
-17.62
-19.69
-21.52
-22.88
-23.61
-23.52
-22.50
-20.50
-17.62
-14.14
-10.43
-6.82
-3.50
-0.46
2.35
5.01
7.43
9.53
11.27
12.71
14.01
15.25
16.42
17.35
17.83
17.78
17.26
16.46
15.64
14.97
14.45
14.04
13.63
13.18
12.70
12.23
11.72
11.08
10.12
8.72
6.89
4.81
2.80
1.18
0.10
-0.54
-1.00
-1.58
-2.42
-3.48
-4.56
-5.53
-6.34
-7.13
-8.06
-9.30
-10.88
-12.76
-14.85
-17.04
-19.21
-21.19
-22.77
-23.69
-23.68
-22.61
-20.50
-17.65
-14.45
-11.32
-8.43
-5.79
-3.14
-0.25
2.96
6.35
9.57
12.23
14.05
15.01
15.22
14.94
14.40
13.76
13.09
12.40
11.75
11.23
11.00
11.11
11.53
12.02
12.25
11.91
10.89
9.29
7.33
5.34
3.56
2.16
1.19
0.62
0.28
-0.03
-0.53
-1.36
-2.51
-3.89
-5.36
-6.85
-8.37
-9.96
-11.61
-13.27
-14.92
-16.65
-18.58
-20.75
-23.00
-24.90
-25.90
-25.56
-23.77
-20.79
-17.16
-13.46
-10.16
-7.44
-5.24
-3.34
-1.46
0.60
2.83
5.12
7.21
8.90
10.10
10.84
11.30
11.65
12.05
12.50
12.94
13.29
13.45
13.41
13.21
12.93
12.57
12.07
11.34
10.34
9.18
8.08
7.29
6.92
6.85
6.76
6.30
5.32
3.87
2.22
0.57
-0.98
-2.51
-4.16
-5.98
-7.93
-9.83
-11.52
-12.94
-14.14
-15.26
-16.46
-17.80
-19.22
-20.49
-21.32
-21.37
-20.44
-18.57
-16.04
-13.23
-10.53
-8.12
-5.98
-3.94
-1.89
0.17
2.08
3.67
4.88
5.77
6.53
7.30
8.08
8.68
8.89
8.57
7.80
6.85
6.03
5.59
5.55
5.77
6.00
6.05
5.80
5.23
4.38
3.31
2.10
0.79
-0.53
-1.77
-2.89
-3.91
-4.86
-5.79
-6.67
-7.50
-8.30
-9.12
-10.02
-11.04
-12.14
-13.23
-14.15
-14.76
-14.91
-14.50
-13.48
-11.84
-9.68
-7.18
-4.58
-2.12
0.05
1.88
3.38
4.63
5.71
6.70
7.71
8.79
9.91
10.95
11.70
11.99
11.79
11.20
10.46
9.82
9.42
9.29
9.30
9.28
9.03
8.38
7.23
5.56
3.50
1.26
-0.88
-2.70
-4.10
-5.09
-5.80
-6.38
-7.01
-7.86
-9.05
-10.61
-12.43
-14.24
-15.68
-16.40
-16.21
-15.11
-13.30
-11.10
-8.82
-6.73
-4.92
-3.34
-1.79
-0.13
1.70
3.56
5.22
6.41
7.08
7.33
7.37
7.46
7.69
8.07
8.49
8.86
9.12
9.29
9.40
9.42
9.30
8.97
8.32
7.28
5.91
4.27
2.51
0.75
-0.96
-2.63
-4.33
-6.14
-8.06
-10.10
-12.20
-14.32
-16.37
-18.22
-19.66
-20.43
-20.29
-19.15
-17.14
-14.52
-11.65
-8.86
-6.28
-3.90
-1.58
0.80
3.31
5.90
8.47
10.91
13.12
15.01
16.48
17.40
17.68
17.30
16.39
15.21
14.03
13.08
12.45
12.07
11.77
11.33
10.60
9.54
8.22
6.75
5.20
3.59
1.87
-0.00
-1.96
-3.87
-5.57
-6.98
-8.22
-9.53
-11.19
-13.31
-15.78
-18.26
-20.34
-21.71
-22.25
-21.97
-20.93
-19.22
-16.94
-14.23
-11.28
-8.26
-5.30
-2.40
0.53
3.58
6.80
10.09
13.26
16.04
18.16
19.47
19.97
19.84
19.35
18.81
18.42
18.25
18.26
18.37
18.46
18.43
18.17
17.58
16.56
15.18
13.63
12.15
10.88
9.83
8.80
7.59
6.11
4.48
2.90
1.60
0.57
-0.35
-1.42
-2.80
-4.50
-6.37
-8.23
-9.93
-11.44
-12.87
-14.29
-15.78
-17.34
-18.96
-20.67
-22.59
-24.78
-27.15
-29.33
-30.72
-30.72
-28.97
-25.57
-21.07
-16.24
-11.71
-7.76
-4.29
-0.95
2.49
6.08
9.57
12.67
15.12
16.88
18.08
18.94
19.64
20.21
20.59
20.64
20.32
19.72
19.04
18.48
18.16
18.07
18.06
17.96
17.67
17.11
16.31
15.31
14.13
12.79
11.33
9.78
8.18
6.56
4.98
3.50
2.25
1.26
0.50
-0.20
-1.07
-2.31
-4.00
-6.07
-8.37
-10.70
-12.90
-14.85
-16.47
-17.78
-18.83
-19.79
-20.85
-22.16
-23.75
-25.50
-27.12
-28.28
-28.63
-27.90
-26.01
-23.06
-19.38
-15.43
-11.67
-8.37
-5.53
-2.92
-0.21
2.78
6.02
9.25
12.10
14.24
15.56
16.13
16.20
16.05
15.93
15.96
16.09
16.26
16.39
16.49
16.58
16.71
16.79
16.63
16.01
14.81
13.11
11.23
9.56
8.39
7.78
7.52
7.22
6.50
5.15
3.18
0.76
-1.78
-4.20
-6.29
-7.98
-9.31
-10.41
-11.40
-12.47
-13.76
-15.43
-17.50
-19.84
-22.09
-23.76
-24.39
-23.71
-21.75
-18.78
-15.24
-11.53
-7.94
-4.65
-1.72
0.81
3.01
4.97
6.83
8.73
10.72
12.77
14.71
16.32
17.36
17.71
17.40
16.61
15.70
15.02
14.82
15.12
15.77
16.47
16.92
16.93
16.40
15.36
13.86
12.03
10.06
8.13
6.41
4.91
3.52
2.13
0.65
-0.84
-2.23
-3.40
-4.35
-5.20
-6.16
-7.39
-8.95
-10.81
-12.86
-15.00
-17.16
-19.23
-20.98
-22.14
-22.39
-21.52
-19.58
-16.85
-13.79
-10.82
-8.15
-5.70
-3.25
-0.58
2.32
5.19
7.70
9.57
10.79
11.54
12.12
12.73
13.42
14.07
14.50
14.58
14.33
13.84
13.29
12.77
12.33
11.98
11.74
11.56
11.41
11.20
10.79
10.05
8.90
7.33
5.48
3.53
1.68
0.07
-1.27
-2.36
-3.26
-4.09
-5.00
-6.15
-7.66
-9.48
-11.50
-13.48
-15.31
-16.96
-18.54
-20.21
-21.92
-23.50
-24.58
-24.83
-24.10
-22.45
-20.13
-17.45
-14.66
-11.90
-9.15
-6.36
-3.47
-0.53
2.38
5.10
7.49
9.52
11.21
12.59
13.67
14.37
14.58
14.28
13.60
12.78
12.11
11.76
11.75
11.95
12.19
12.33
12.28
12.01
11.51
10.79
9.92
8.98
8.04
7.10
6.12
5.00
3.74
2.41
1.14
0.06
-0.83
-1.63
-2.51
-3.59
-4.84
-6.15
-7.39
-8.57
-9.78
-11.22
-13.04
-15.24
-17.70
-20.20
-22.49
-24.32
-25.50
-25.89
-25.37
-23.91
-21.57
-18.54
-15.20
-11.92
-8.98
-6.48
-4.30
-2.23
-0.06
2.20
4.44
6.42
7.97
9.05
9.71
10.09
10.29
10.38
10.43
10.47
10.57
10.77
11.07
11.43
11.78
12.00
11.97
11.59
10.82
9.72
8.43
7.13
5.94
4.92
4.01
3.16
2.30
1.41
0.46
-0.56
-1.70
-2.93
-4.18
-5.44
-6.68
-8.00
-9.51
-11.27
-13.21
-15.19
-16.98
-18.40
-19.35
-19.74
-19.53
-18.68
-17.15
-15.01
-12.44
-9.68
-6.99
-4.51
-2.30
-0.28
1.70
3.74
5.91
8.16
10.35
12.24
13.63
14.37
14.47
14.05
13.32
12.53
11.85
11.30
10.78
10.13
9.18
7.92
6.46
5.02
3.82
2.91
2.21
1.49
0.53
-0.78
-2.38
-4.10
-5.75
-7.22
-8.58
-9.92
-11.38
-13.03
-14.83
-16.66
-18.39
-19.84
-20.86
-21.31
-21.03
-19.90
-17.84
-14.88
-11.23
-7.28
-3.49
-0.24
2.36
4.46
6.31
8.12
9.83
11.12
11.63
11.26
10.28
9.24
8.73
9.02
9.96
11.07
11.82
11.90
11.25
9.98
8.16
5.78
2.69
-1.20
-5.85
-11.05
-16.52
-21.97
-27.26
-32.35
-37.31
-42.24
-47.16
-52.07
-56.92
-61.65
-66.19
-70.43
-74.12
-76.90
-78.41
-78.42
-76.97
-74.39
-71.21
-67.94
-64.89
-62.14
-59.56
-56.97
-54.21
-51.12
-47.52
-43.21
-37.96
-31.63
-24.25
-16.01
-7.20
1.86
10.93
19.88
28.72
37.61
46.74
56.25
66.11
76.10
85.82
94.85
102.80
109.41
114.50
118.11
120.40
121.76
122.70
123.73
125.26
127.40
130.00
132.76
135.31
137.41
138.91
139.79
140.11
140.06
139.90
139.90
140.26
140.98
141.82
142.35
142.06
140.57
137.67
133.38
127.85
121.38
114.33
107.03
99.73
92.54
85.57
79.02
73.38
69.43
68.06
69.79
74.41
80.83
87.21
91.42
91.56
86.41
75.64
59.73
39.80
17.42
-5.61
-27.53
-46.81
-62.39
-73.95
-81.84
-86.97
-90.42
-93.25
-96.35
-100.56
-106.74
-115.81
-128.49
-144.98
-164.54
-185.35
-204.86
-220.39
-229.92
-232.61
-228.95
-220.38
-208.61
-195.06
-180.49
-165.10
-148.81
-131.59
-113.74
-95.90
-78.89
-63.38
-49.83
-38.38
-28.97
-21.42
-15.47
-10.80
-6.95
-3.41
0.17
3.82
7.05
8.90
8.35
4.69
-1.89
-10.22
-18.41
-24.58
-27.65
-27.71
-25.99
-24.18
-23.54
-24.36
-25.87
-26.81
-26.16
-23.77
-20.32
-17.08
-15.06
-14.64
-15.45
-16.42
-16.06
-12.72
-5.02
7.59
24.37
43.01
60.10
72.11
76.54
72.84
62.53
48.81
35.51
26.16
23.22
27.66
38.84
54.77
72.58
89.24
102.25
110.13
112.33
108.93
100.10
85.93
66.59
42.66
15.36
-13.60
-42.54
-70.37
-96.91
-122.68
-148.34
-174.10
-199.36
-222.85
-243.10
-258.77
-268.81
-272.38
-268.79
-257.66
-239.27
-214.71
-185.79
-154.64
-123.24
-93.23
-65.93
-42.41
-23.48
-9.34
0.41
6.76
10.72
12.99
13.86
13.63
13.07
13.48
16.15
21.62
29.15
36.94
43.04
46.12
46.01
43.43
39.42
34.82
30.06
25.20
20.21
14.99
9.52
3.93
-1.28
-5.12
-6.22
-3.19
4.85
18.05
35.94
57.58
81.94
107.97
134.56
160.52
184.72
206.28
224.82
240.43
253.42
264.06
272.36
278.09
281.02
281.04
278.24
272.93
265.44
256.07
244.98
232.11
217.15
199.52
178.69
154.47
127.44
99.02
71.17
45.85
24.30
6.77
-7.28
-18.75
-28.33
-36.35
-42.97
-48.47
-53.48
-58.72
-64.62
-70.93
-76.69
-80.60
-81.65
-79.56
-74.87
-68.51
-61.32
-53.69
-45.39
-36.01
-25.22
-13.16
-0.49
11.69
22.06
29.23
31.85
28.71
18.96
2.37
-20.30
-47.15
-75.17
-100.79
-120.68
-132.56
-135.84
-131.70
-122.59
-111.37
-100.47
-91.26
-83.99
-78.12
-72.79
-67.32
-61.43
-55.27
-49.30
-44.06
-40.01
-37.40
-36.18
-36.01
-36.37
-36.75
-36.80
-36.43
-35.71
-34.92
-34.40
-34.60
-36.09
-39.47
-45.17
-53.23
-63.15
-73.89
-84.10
-92.44
-97.93
-100.10
-99.08
-95.42
-89.94
-83.36
-76.17
-68.47
-60.12
-50.95
-41.00
-30.67
-20.63
-11.71
-4.62
0.22
2.77
3.42
2.89
2.16
2.18
3.68
6.97
11.83
17.67
23.65
28.97
33.02
35.50
36.29
35.51
33.36
30.12
26.10
21.61
17.01
12.68
9.03
6.37
4.77
3.97
3.45
2.63
1.13
-1.06
-3.66
-6.30
-8.79
-11.15
-13.61
-16.28
-18.99
-21.26
-22.44
-21.99
-19.68
-15.72
-10.66
-5.24
-0.23
3.84
6.71
8.49
9.53
10.23
10.88
11.59
12.29
12.93
13.52
14.16
14.97
15.92
16.82
17.40
17.38
16.63
15.16
13.15
10.82
8.47
6.31
4.45
2.88
1.47
-0.05
-1.97
-4.47
-7.55
-10.86
-13.88
-15.96
-16.62
-15.67
-13.33
-10.08
-6.45
-2.88
0.44
3.49
6.28
8.85
11.10
12.97
14.41
15.42
16.07
16.44
16.62
16.68
16.66
16.55
16.28
15.75
14.93
13.89
12.80
11.82
11.02
10.32
9.55
8.49
7.03
5.21
3.23
1.33
-0.26
-1.45
-2.28
-2.94
-3.68
-4.78
-6.41
-8.58
-11.16
-13.85
-16.24
-17.95
-18.67
-18.28
-16.87
-14.68
-12.06
-9.32
-6.64
-4.10
-1.68
0.71
3.08
5.39
7.57
9.53
11.18
12.40
13.17
13.49
13.51
13.40
13.34
13.39
13.45
13.37
12.97
12.21
11.16
10.00
8.87
7.86
6.95
6.03
4.89
3.40
1.47
-0.77
-3.09
-5.17
-6.78
-7.95
-8.89
-9.94
-11.36
-13.16
-15.21
-17.26
-19.07
-20.43
-21.15
-20.98
-19.75
-17.43
-14.26
-10.70
-7.26
-4.30
-1.95
-0.05
1.63
3.35
5.22
7.23
9.32
11.35
13.19
14.65
15.60
15.97
15.85
15.39
14.84
14.43
14.28
14.40
14.64
14.81
14.72
14.29
13.53
12.57
11.48
10.27
8.87
7.21
5.28
3.21
1.16
-0.72
-2.41
-3.92
-5.25
-6.38
-7.30
-8.07
-8.93
-10.18
-12.06
-14.60
-17.52
-20.28
-22.22
-22.79
-21.74
-19.15
-15.44
-11.24
-7.18
-3.68
-0.87
1.40
3.40
5.37
7.42
9.42
11.26
12.78
13.98
14.87
15.55
16.08
16.42
16.49
16.17
15.43
14.39
13.33
12.57
12.31
12.48
12.80
12.90
12.53
11.71
10.67
9.69
8.88
8.08
7.01
5.44
3.42
1.23
-0.71
-2.15
-3.06
-3.72
-4.52
-5.76
-7.56
-9.80
-12.30
-14.79
-17.13
-19.20
-20.81
-21.70
-21.55
-20.06
-17.20
-13.30
-8.89
-4.63
-1.01
1.85
4.08
5.97
7.75
9.43
10.90
12.06
12.88
13.47
14.02
14.65
15.33
15.91
16.16
15.93
15.21
14.15
13.01
11.99
11.20
10.60
10.03
9.35
8.50
7.52
6.48
5.43
4.37
3.20
1.86
0.35
-1.25
-2.85
-4.38
-5.84
-7.29
-8.82
-10.54
-12.45
-14.46
-16.34
-17.69
-18.15
-17.44
-15.51
-12.62
-9.20
-5.73
-2.53
0.30
2.89
5.41
7.92
10.34
12.41
13.85
14.50
14.48
14.06
13.60
13.32
13.21
13.11
12.83
12.30
11.60
10.95
10.51
10.29
10.18
9.92
9.34
8.36
7.05
5.48
3.76
1.90
-0.11
-2.23
-4.38
-6.45
-8.35
-10.04
-11.57
-13.05
-14.64
-16.53
-18.75
-21.16
-23.35
-24.80
-24.96
-23.54
-20.59
-16.59
-12.26
-8.34
-5.26
-3.07
-1.46
0.07
1.89
4.09
6.48
8.68
10.38
11.47
12.02
12.24
12.31
12.25
12.02
11.61
11.09
10.62
10.36
10.34
10.40
10.29
9.76
8.66
7.04
5.07
3.00
1.04
-0.66
-2.08
-3.29
-4.42
-5.59
-6.85
-8.20
-9.68
-11.36
-13.39
-15.86
-18.64
-21.32
-23.22
-23.71
-22.43
-19.52
-15.51
-11.16
-7.07
-3.54
-0.52
2.25
5.00
7.78
10.49
12.91
14.88
16.34
17.36
17.99
18.30
18.30
17.99
17.41
16.66
15.87
15.16
14.59
14.19
13.88
13.58
13.14
12.39
11.24
9.73
7.98
6.27
4.76
3.49
2.29
0.92
-0.78
-2.76
-4.81
-6.70
-8.34
-9.87
-11.56
-13.66
-16.23
-19.06
-21.74
-23.78
-24.73
-24.29
-22.38
-19.20
-15.18
-10.86
-6.79
-3.28
-0.38
2.10
4.41
6.76
9.16
11.49
13.58
15.23
16.35
16.95
17.11
17.00
16.76
16.51
16.32
16.19
16.10
16.03
15.98
15.99
16.06
16.16
16.19
16.00
15.45
14.43
12.93
11.00
8.75
6.28
3.69
1.07
-1.56
-4.11
-6.50
-8.68
-10.72
-12.81
-15.21
-18.07
-21.36
-24.74
-27.67
-29.53
-29.80
-28.25
-24.94
-20.24
-14.72
-9.04
-3.74
0.87
4.73
8.00
10.86
13.39
15.57
17.26
18.37
18.96
19.23
19.41
19.65
19.93
20.11
20.01
19.52
18.66
17.60
16.51
15.60
14.93
14.46
13.99
13.28
12.09
10.32
8.03
5.41
2.75
0.30
-1.81
-3.58
-5.11
-6.58
-8.15
-9.97
-12.15
-14.65
-17.31
-19.83
-21.72
-22.50
-21.78
-19.43
-15.69
-11.06
-6.21
-1.67
2.25
5.55
8.37
10.85
12.99
14.73
15.94
16.67
17.08
17.33
17.54
17.67
17.58
17.15
16.42
15.51
14.62
13.90
13.41
13.13
12.93
12.60
11.93
10.70
8.83
6.43
3.77
1.16
-1.19
-3.30
-5.33
-7.47
-9.77
-12.13
-14.37
-16.37
-18.11
-19.62
-20.89
-21.71
-21.78
-20.80
-18.65
-15.42
-11.46
-7.19
-2.99
0.92
4.52
7.85
10.90
13.56
15.70
17.19
18.07
18.51
18.75
18.92
19.00
18.81
18.24
17.30
16.18
15.18
14.47
14.04
13.67
13.13
12.23
10.89
9.10
6.89
4.31
1.52
-1.31
-3.95
-6.28
-8.34
-10.38
-12.72
-15.62
-19.10
-22.92
-26.55
-29.33
-30.67
-30.23
-28.10
-24.75
-20.82
-16.92
-13.32
-9.96
-6.56
-2.87
1.15
5.25
9.09
12.34
14.82
16.56
17.66
18.25
18.44
18.36
18.11
17.82
17.58
17.41
17.25
16.95
16.27
15.03
13.25
11.12
9.00
7.20
5.82
4.70
3.47
1.81
-0.37
-2.93
-5.53
-7.89
-9.92
-11.80
-13.75
-16.04
-18.77
-21.86
-25.06
-27.99
-30.18
-31.20
-30.81
-28.96
-25.89
-21.89
-17.32
-12.49
-7.66
-3.11
0.88
4.12
6.61
8.57
10.34
12.23
14.32
16.41
18.15
19.26
19.64
19.46
19.03
18.66
18.53
18.56
18.61
18.52
18.20
17.69
17.04
16.27
15.33
14.16
12.75
11.18
9.53
7.83
6.03
4.02
1.73
-0.82
-3.48
-6.10
-8.55
-10.81
-12.90
-14.79
-16.48
-17.95
-19.30
-20.70
-22.32
-24.13
-25.84
-26.93
-26.85
-25.31
-22.38
-18.50
-14.28
-10.27
-6.67
-3.39
-0.17
3.28
6.98
10.75
14.25
17.18
19.36
20.81
21.64
21.92
21.72
21.12
20.25
19.30
18.49
17.93
17.60
17.37
17.06
16.44
15.34
13.64
11.41
8.82
6.19
3.84
1.92
0.39
-0.95
-2.34
-3.88
-5.53
-7.11
-8.53
-9.85
-11.23
-12.81
-14.59
-16.47
-18.31
-20.04
-21.69
-23.28
-24.74
-25.82
-26.20
-25.60
-23.88
-21.15
-17.69
-13.87
-10.00
-6.28
-2.82
0.39
3.36
6.04
8.35
10.16
11.36
11.97
12.13
12.06
12.00
12.06
12.21
12.31
12.18
11.71
10.87
9.83
8.76
7.86
7.22
6.82
6.54
6.20
5.62
4.72
3.46
1.84
-0.12
-2.34
-4.68
-6.92
-8.80
-10.16
-11.04
-11.69
-12.51
-13.83
-15.76
-18.08
-20.33
-21.95
-22.47
-21.69
-19.66
-16.73
-13.33
-9.83
-6.47
-3.25
-0.15
2.88
5.74
8.27
10.29
11.75
12.75
13.46
14.07
14.67
15.26
15.73
15.95
15.80
15.22
14.24
13.02
11.78
10.69
9.79
8.95
7.96
6.67
5.07
3.33
1.62
0.06
-1.39
-2.87
-4.54
-6.41
-8.36
-10.27
-12.06
-13.80
-15.66
-17.76
-19.97
-21.90
-22.98
-22.68
-20.87
-17.77
-14.01
-10.27
-7.04
-4.40
-2.17
-0.06
2.12
4.36
6.54
8.49
10.13
11.47
12.57
13.51
14.30
14.90
15.21
15.11
14.53
13.53
12.28
11.01
9.95
9.19
8.67
8.16
7.47
6.43
5.01
3.21
1.09
-1.24
-3.61
-5.83
-7.76
-9.34
-10.70
-12.07
-13.72
-15.80
-18.25
-20.84
-23.17
-24.82
-25.41
-24.72
-22.72
-19.61
-15.75
-11.62
-7.60
-3.94
-0.73
2.11
4.72
7.26
9.78
12.19
14.26
15.71
16.45
16.57
16.40
16.32
16.57
17.06
17.49
17.50
16.92
15.85
14.54
13.23
11.97
10.65
9.15
7.50
5.84
4.30
2.95
1.65
0.21
-1.50
-3.48
-5.56
-7.51
-9.14
-10.46
-11.61
-12.90
-14.61
-16.93
-19.81
-22.91
-25.67
-27.40
-27.56
-25.93
-22.69
-18.37
-13.64
-9.06
-4.90
-1.16
2.36
5.88
9.53
13.21
16.73
19.82
22.29
24.07
25.22
25.88
26.24
26.47
26.63
26.64
26.36
25.63
24.41
22.79
20.95
19.05
17.17
15.25
13.28
11.33
9.58
8.22
7.29
6.62
5.84
4.63
2.82
0.53
-2.05
-4.69
-7.36
-10.21
-13.55
-17.65
-22.67
-28.56
-35.03
-41.58
-47.58
-52.35
-55.37
-56.35
-55.32
-52.56
-48.54
-43.74
-38.57
-33.27
-27.94
-22.55
-17.06
-11.49
-6.03
-1.00
3.30
6.70
9.26
11.20
12.82
14.31
15.70
16.88
17.74
18.31
18.62
18.79
18.76
18.40
17.55
16.11
14.11
11.73
9.21
6.80
4.71
3.07
1.88
1.01
0.17
-0.97
-2.74
-5.25
-8.39
-11.85
-15.14
-17.79
-19.48
-19.98
-19.26
-17.36
-14.45
-10.81
-6.78
-2.78
0.86
3.90
6.28
8.12
9.63
11.05
12.51
14.00
15.39
16.48
17.10
17.15
16.61
15.55
14.17
12.75
11.61
10.97
10.82
10.94
10.93
10.41
9.19
7.31
5.00
2.53
0.14
-2.07
-4.04
-5.72
-7.14
-8.39
-9.69
-11.29
-13.33
-15.69
-17.99
-19.69
-20.28
-19.52
-17.51
-14.63
-11.36
-8.10
-5.01
-2.04
1.01
4.21
7.47
10.51
12.99
14.72
15.76
16.38
16.89
17.44
17.93
18.11
17.74
16.79
15.50
14.26
13.40
13.05
13.03
12.91
12.27
10.86
8.72
6.16
3.64
1.46
-0.26
-1.66
-3.01
-4.53
-6.33
-8.44
-10.83
-13.49
-16.41
-19.45
-22.34
-24.67
-25.96
-25.86
-24.30
-21.43
-17.68
-13.59
-9.61
-5.98
-2.75
0.22
3.07
5.84
8.47
10.83
12.88
14.70
16.37
17.88
19.07
19.73
19.67
18.94
17.75
16.47
15.39
14.61
14.04
13.47
12.68
11.57
10.16
8.57
6.95
5.42
4.06
2.83
1.59
0.16
-1.58
-3.60
-5.71
-7.71
-9.45
-10.98
-12.52
-14.37
-16.76
-19.72
-23.02
-26.25
-28.88
-30.45
-30.64
-29.35
-26.75
-23.22
-19.24
-15.24
-11.50
-8.03
-4.69
-1.33
2.07
5.41
8.49
11.19
13.50
15.51
17.30
18.78
19.80
20.13
19.77
18.88
17.87
17.14
16.89
17.08
17.40
17.46
16.99
15.89
14.30
12.47
10.68
9.09
7.77
6.59
5.43
4.12
2.60
0.84
-1.10
-3.21
-5.41
-7.67
-9.89
-12.03
-14.05
-16.05
-18.20
-20.64
-23.36
-26.12
-28.46
-29.83
-29.78
-28.15
-25.18
-21.35
-17.28
-13.43
-9.98
-6.87
-3.88
-0.82
2.34
5.50
8.50
11.15
13.38
15.16
16.48
17.34
17.79
17.86
17.67
17.33
16.91
16.45
15.92
15.31
14.60
13.75
12.70
11.45
10.04
8.69
7.66
7.20
7.32
7.71
7.77
6.83
4.50
0.75
-3.97
-8.91
-13.43
-17.08
-19.81
-21.87
-23.62
-25.37
-27.14
-28.76
-29.87
-30.12
-29.31
-27.39
-24.45
-20.67
-16.25
-11.38
-6.29
-1.28
3.38
7.49
10.92
13.70
15.88
17.49
18.56
19.14
19.29
19.12
18.76
18.25
17.66
17.04
16.45
15.93
15.47
15.12
14.90
14.89
15.14
15.56
15.87
15.64
14.51
12.31
9.20
5.59
1.91
-1.55
-4.78
-7.94
-11.25
-14.80
-18.53
-22.24
-25.64
-28.46
-30.42
-31.34
-31.17
-29.92
-27.68
-24.57
-20.72
-16.35
-11.72
-7.18
-3.03
0.55
3.57
6.18
8.58
10.88
13.09
15.13
16.88
18.29
19.30
19.92
20.14
19.96
19.40
18.50
17.33
15.97
14.54
13.14
11.86
10.67
9.44
8.01
6.18
3.95
1.47
-0.96
-3.01
-4.42
-5.15
-5.34
-5.28
-5.31
-5.78
-6.90
-8.73
-11.12
-13.75
-16.27
-18.34
-19.68
-20.11
-19.51
-17.88
-15.41
-12.55
-9.87
-7.91
-6.91
-6.72
-6.80
-6.50
-5.31
-3.06
0.03
3.52
6.92
9.86
12.19
13.89
15.07
15.78
16.05
15.90
15.42
14.85
14.48
14.55
15.07
15.78
16.25
16.06
15.08
13.46
11.58
9.80
8.29
6.93
5.42
3.44
0.79
-2.44
-6.02
-9.57
-12.82
-15.64
-18.15
-20.62
-23.27
-26.23
-29.32
-32.18
-34.34
-35.47
-35.38
-34.16
-32.01
-29.17
-25.78
-21.88
-17.46
-12.55
-7.30
-1.96
3.09
7.54
11.20
14.08
16.31
18.07
19.43
20.36
20.78
20.64
20.05
19.26
18.58
18.21
18.15
18.24
18.17
17.69
16.67
15.17
13.36
11.46
9.64
7.99
6.49
5.06
3.58
1.97
0.10
-2.07
-4.57
-7.33
-10.22
-13.04
-15.65
-18.03
-20.31
-22.64
-25.13
-27.66
-29.95
-31.63
-32.39
-32.09
-30.78
-28.55
-25.55
-21.90
-17.75
-13.33
-8.84
-4.46
-0.27
3.71
7.42
10.77
13.60
15.84
17.49
18.66
19.44
19.89
19.97
19.70
19.17
18.52
17.94
17.48
17.10
16.67
16.06
15.22
14.13
12.82
11.28
9.56
7.78
6.11
4.68
3.47
2.33
1.04
-0.60
-2.60
-4.80
-6.98
-8.96
-10.77
-12.60
-14.66
-17.04
-19.56
-21.75
-23.03
-22.93
-21.35
-18.54
-14.97
-11.13
-7.26
-3.43
0.37
4.04
7.34
9.99
11.92
13.24
14.21
15.04
15.80
16.39
16.70
16.75
16.69
16.67
16.74
16.80
16.66
16.15
15.19
13.82
12.14
10.27
8.35
6.48
4.79
3.29
1.90
0.51
-0.95
-2.46
-3.91
-5.25
-6.52
-7.92
-9.66
-11.88
-14.55
-17.49
-20.39
-22.86
-24.59
-25.29
-24.78
-23.06
-20.32
-16.88
-13.16
-9.46
-5.94
-2.55
0.80
4.19
7.55
10.68
13.37
15.44
16.89
17.84
18.47
18.95
19.32
19.55
19.54
19.25
18.66
17.82
16.82
15.74
14.63
13.49
12.35
11.24
10.19
9.17
8.07
6.69
4.87
2.54
-0.21
-3.13
-5.90
-8.26
-10.12
-11.61
-13.00
-14.61
-16.65
-19.22
-22.17
-25.17
-27.77
-29.50
-29.95
-28.91
-26.42
-22.81
-18.61
-14.34
-10.42
-6.94
-3.75
-0.58
2.75
6.30
9.92
13.40
16.53
19.11
21.02
22.15
22.51
22.17
21.36
20.31
19.23
18.23
17.33
16.50
15.70
14.94
14.17
13.24
11.96
10.23
8.13
5.92
3.97
2.46
1.36
0.42
-0.71
-2.26
-4.24
-6.45
-8.66
-10.65
-12.39
-14.04
-15.82
-17.95
-20.54
-23.50
-26.52
-29.13
-30.82
-31.20
-30.07
-27.56
-23.96
-19.68
-15.14
-10.67
-6.47
-2.64
0.79
3.90
6.78
9.44
11.89
14.05
15.82
17.15
18.00
18.43
18.56
18.53
18.40
18.23
17.99
17.60
17.01
16.19
15.19
14.13
13.12
12.19
11.23
10.06
8.51
6.54
4.30
2.00
-0.15
-2.10
-3.96
-5.91
-8.06
-10.40
-12.78
-15.00
-16.96
-18.71
-20.45
-22.36
-24.60
-27.14
-29.74
-31.99
-33.39
-33.46
-31.96
-28.94
-24.75
-19.99
-15.31
-11.16
-7.71
-4.80
-2.09
0.76
3.88
7.12
10.12
12.46
13.89
14.40
14.22
13.68
13.05
12.53
12.23
12.26
12.70
13.59
14.87
16.36
17.79
18.86
19.37
19.27
18.70
17.95
17.42
17.43
18.23
19.86
22.25
25.23
28.71
32.63
36.93
41.46
45.89
49.78
52.74
54.61
55.58
56.18
57.13
59.16
62.74
67.89
74.14
80.71
86.74
91.63
95.20
97.69
99.54
101.14
102.65
103.96
104.70
104.38
102.40
98.00
90.53
79.70
65.92
50.21
33.91
17.93
2.31
-13.90
-32.13
-53.55
-78.38
-105.69
-133.63
-159.89
-182.09
-198.07
-206.16
-205.45
-196.31
-180.54
-161.12
-141.50
-124.55
-111.80
-103.22
-97.55
-93.04
-88.10
-81.76
-73.76
-64.37
-54.22
-44.08
-34.63
-26.33
-19.23
-13.07
-7.48
-2.23
2.58
6.55
9.15
10.10
9.50
7.80
5.57
3.31
1.21
-0.75
-2.63
-4.41
-5.92
-7.00
-7.65
-8.13
-8.92
-10.47
-13.00
-16.33
-20.04
-23.53
-26.41
-28.63
-30.57
-32.83
-35.96
-40.25
-45.59
-51.41
-56.73
-60.41
-61.55
-59.82
-55.65
-50.09
-44.61
-40.60
-38.99
-39.74
-41.77
-43.19
-41.82
-35.84
-24.60
-9.19
7.70
22.51
32.53
36.62
35.34
30.22
23.06
15.23
7.28
-0.80
-9.02
-15.91
-19.46
-18.29
-12.65
-3.89
6.47
17.31
28.01
37.96
47.24
54.88
58.42
54.87
43.37
26.65
10.19
-0.15
-0.54
11.57
36.19
70.88
111.57
154.47
196.85
236.16
269.33
282.37
265.12
219.99
163.21
113.02
79.24
61.15
51.51
42.20
28.37
11.98
-1.43
-7.15
-4.99
1.79
8.94
13.04
13.00
9.74
6.34
5.35
6.86
7.80
4.85
-3.60
-17.51
-35.20
-54.31
-72.02
-86.56
-95.53
-101.42
-106.91
-113.11
-120.05
-126.47
-130.72
-131.24
-127.41
-119.99
-111.17
-105.06
-101.25
-99.61
-99.67
-100.49
-100.42
-97.28
-88.83
-73.96
-52.74
-26.74
0.40
24.68
43.10
54.58
60.01
61.47
60.89
59.71
58.73
57.90
57.21
56.96
57.60
59.32
61.87
64.54
66.62
67.86
68.32
68.60
69.50
71.64
75.07
79.31
83.66
87.79
92.21
98.05
106.64
118.72
133.71
149.52
162.96
170.60
169.80
159.56
140.84
116.47
90.58
67.57
51.00
42.76
42.45
47.65
54.77
60.28
61.78
58.61
51.75
43.17
35.05
29.09
26.11
25.89
27.22
28.19
26.74
21.17
10.68
-4.47
-23.15
-43.84
-65.37
-87.25
-109.85
-134.28
-162.20
-195.41
-234.96
-279.82
-325.94
-366.25
-392.34
-397.41
-379.09
-340.76
-290.48
-237.90
-190.79
-152.93
-124.18
-102.24
-84.79
-70.71
-59.84
-52.00
-46.21
-40.71
-33.91
-25.32
-15.89
-7.55
-2.17
-0.44
-1.49
-3.19
-3.26
-0.24
5.77
13.20
19.63
22.84
21.71
16.62
9.43
2.81
-0.76
-0.05
4.24
9.45
11.61
6.86
-7.21
-30.48
-60.19
-91.71
-119.89
-140.40
-150.65
-150.06
-139.62
-121.42
-98.01
-72.06
-46.21
-22.98
-4.64
7.09
11.37
8.51
-0.02
-11.80
-24.03
-34.00
-39.54
-39.21
-32.34
-19.11
-0.65
20.87
42.50
61.04
73.99
80.33
80.65
76.75
70.60
63.56
56.08
48.05
39.46
30.87
23.48
18.61
17.23
19.65
25.36
33.06
40.66
45.48
44.79
36.78
21.76
2.85
-14.37
-23.24
-18.28
2.64
37.10
78.39
117.19
143.95
151.33
135.66
97.44
40.93
-26.67
-96.34
-158.51
-204.84
-229.94
-232.75
-216.81
-188.80
-155.89
-123.01
-91.59
-60.30
-27.45
6.72
39.21
65.44
81.70
87.27
85.03
80.39
79.53
87.49
107.37
139.59
181.39
226.53
265.84
288.77
286.29
254.41
196.82
125.05
55.44
3.58
-21.54
-21.09
-5.87
8.56
8.55
-12.03
-49.98
-95.02
-134.94
-160.42
-167.54
-157.42
-133.80
-100.90
-62.59
-22.90
13.40
41.15
56.45
58.39
50.22
38.63
31.47
34.67
50.08
74.89
103.05
127.84
144.52
151.75
151.55
147.92
144.91
145.11
148.69
153.37
154.63
147.09
126.42
91.63
46.74
1.03
-32.91
-43.27
-23.57
23.93
88.04
151.94
198.71
216.41
201.06
156.54
92.27
20.24
-47.75
-101.88
-135.68
-147.02
-138.74
-118.10
-94.88
-78.52
-74.99
-85.15
-104.88
-127.28
-145.34
-153.75
-149.93
-133.78
-106.97
-72.37
-33.56
5.65
41.72
71.73
93.56
105.51
105.81
92.70
65.26
24.92
-23.43
