1660932271.00
64.000000
-0.00
-0.00
-0.00
-0.00
-0.00
-0.00
-0.00
-0.00
-0.00
-0.00
0.00
0.01
0.01
-0.00
-0.03
-0.05
-0.05
0.00
0.13
0.36
0.66
1.01
1.37
1.72
2.06
2.40
2.79
3.25
3.81
4.44
5.10
5.73
6.32
6.90
7.51
8.25
9.15
10.28
11.54
12.79
13.92
14.89
15.78
16.78
18.13
19.97
22.48
25.45
28.58
31.58
34.32
36.91
39.73
43.23
47.72
53.51
60.20
67.20
73.96
80.21
86.15
92.39
99.69
108.53
119.30
131.29
143.58
155.29
166.04
176.16
186.57
198.75
211.30
226.15
243.48
263.10
283.77
302.89
316.65
320.94
312.65
290.74
257.04
214.72
167.58
118.74
70.14
22.72
-22.99
-66.39
-106.89
-143.98
-178.22
-210.91
-243.78
-278.23
-314.39
-350.59
-383.28
-408.04
-420.89
-419.91
-406.05
-382.79
-354.74
-325.94
-298.66
-273.35
-249.39
-226.06
-203.44
-182.23
-163.18
-146.53
-131.76
-117.94
-104.24
-90.36
-76.58
-63.65
-52.30
-42.87
-35.16
-28.56
-22.35
-16.04
-9.56
-3.25
2.42
7.07
10.68
13.61
16.39
19.44
22.85
26.32
29.33
31.36
32.16
31.85
30.79
29.44
28.12
26.99
26.03
25.15
24.32
23.54
22.84
22.20
21.53
20.76
19.84
18.81
17.75
16.77
15.96
15.32
14.83
14.39
13.94
13.40
12.75
12.02
11.28
10.65
10.21
10.02
10.04
10.17
10.27
10.23
10.00
9.63
9.23
8.93
8.83
8.96
9.27
9.60
9.83
9.86
9.70
9.46
9.26
9.20
9.26
9.34
9.32
9.09
8.68
8.20
7.76
7.42
7.19
7.02
6.84
6.63
6.36
6.02
5.57
4.98
4.23
3.39
2.58
1.96
1.58
1.42
1.34
1.17
0.76
0.11
-0.72
-1.61
-2.46
-3.21
-3.91
-4.59
-5.30
-6.03
-6.76
-7.44
-8.03
-8.52
-8.90
-9.15
-9.30
-9.36
-9.35
-9.31
-9.24
-9.13
-8.98
-8.74
-8.41
-7.97
-7.42
-6.78
-6.06
-5.33
-4.63
-4.02
-3.52
-3.13
-2.82
-2.51
-2.13
-1.68
-1.17
-0.63
-0.13
0.33
0.72
1.08
1.41
1.72
2.00
2.25
2.48
2.70
2.93
3.17
3.42
3.68
3.96
4.25
4.51
4.67
4.65
4.39
3.92
3.34
2.83
2.50
2.43
2.57
2.84
3.09
3.26
3.31
3.28
3.24
3.25
3.36
3.55
3.80
4.06
4.29
4.46
4.56
4.60
4.59
4.55
4.50
4.48
4.48
4.50
4.51
4.46
4.35
4.17
3.97
3.76
3.52
3.23
2.87
2.48
2.14
1.93
1.88
1.96
2.11
2.25
2.32
2.31
2.26
2.16
2.01
1.82
1.60
1.40
1.28
1.24
1.27
1.32
1.36
1.37
1.37
1.39
1.43
1.49
1.52
1.51
1.50
1.56
1.73
2.03
2.36
2.58
2.60
2.36
1.92
1.40
0.94
0.61
0.45
0.44
0.57
0.83
1.20
1.61
1.95
2.10
2.01
1.71
1.31
0.95
0.73
0.68
0.78
0.96
1.16
1.34
1.47
1.53
1.50
1.39
1.24
1.10
1.04
1.08
1.15
1.19
1.14
0.95
0.70
0.47
0.34
0.36
0.51
0.72
0.93
1.05
1.07
1.01
0.91
0.82
0.77
0.78
0.80
0.81
0.79
0.75
0.74
0.77
0.87
0.97
1.04
1.04
0.99
0.94
0.92
0.92
0.91
0.84
0.71
0.56
0.45
0.40
0.38
0.31
0.14
-0.11
-0.33
-0.40
-0.24
0.13
0.62
1.04
1.28
1.28
1.08
0.80
0.55
0.41
0.38
0.42
0.44
0.38
0.23
0.03
-0.12
-0.15
-0.05
0.13
0.32
0.42
0.42
0.36
0.30
0.24
0.18
0.06
-0.15
-0.42
-0.65
-0.72
-0.57
-0.25
0.12
0.43
0.61
0.67
0.69
0.72
0.79
0.86
0.87
0.82
0.73
0.65
0.62
0.64
0.69
0.75
0.79
0.82
0.85
0.90
0.94
0.97
0.93
0.79
0.56
0.28
0.03
-0.11
-0.11
-0.00
0.14
0.23
0.21
0.09
-0.08
-0.22
-0.31
-0.33
-0.29
-0.18
-0.02
0.21
0.49
0.77
0.96
1.02
0.93
0.74
0.50
0.30
0.17
0.12
0.14
0.22
0.37
0.60
0.92
1.27
1.57
1.75
1.75
1.57
1.25
0.84
0.43
0.08
-0.14
-0.18
-0.05
0.17
0.39
0.47
0.38
0.12
-0.20
-0.47
-0.63
-0.66
-0.62
-0.57
-0.51
-0.46
-0.39
-0.31
-0.25
-0.23
-0.25
-0.24
-0.18
-0.02
0.20
0.39
0.51
0.50
0.40
0.26
0.16
0.11
0.13
0.18
0.25
0.32
0.37
0.37
0.34
0.27
0.17
0.06
-0.08
-0.22
-0.36
-0.43
-0.42
-0.30
-0.09
0.17
0.44
0.69
0.92
1.10
1.18
1.14
0.98
0.76
0.57
0.48
0.51
0.61
0.70
0.70
0.60
0.40
0.17
-0.03
-0.14
-0.16
-0.11
-0.05
-0.01
-0.03
-0.10
-0.15
-0.17
-0.16
-0.14
-0.17
-0.29
-0.47
-0.64
-0.73
-0.69
-0.55
-0.37
-0.22
-0.14
-0.09
-0.02
0.12
0.33
0.54
0.68
0.67
0.53
0.30
0.06
-0.11
-0.19
-0.17
-0.07
0.12
0.38
0.67
0.87
0.91
0.73
0.36
-0.07
-0.41
-0.54
-0.42
-0.10
0.29
0.65
0.90
1.00
0.97
0.80
0.52
0.19
-0.09
-0.22
-0.10
0.25
0.71
1.13
1.34
1.29
1.04
0.68
0.34
0.04
-0.22
-0.46
-0.65
-0.75
-0.72
-0.55
-0.33
-0.21
-0.26
-0.50
-0.84
-1.12
-1.20
-1.03
-0.63
-0.12
0.34
0.64
0.74
0.63
0.38
0.04
-0.32
-0.60
-0.77
-0.77
-0.65
-0.50
-0.41
-0.44
-0.56
-0.67
-0.67
-0.51
-0.23
0.07
0.29
0.34
0.26
0.10
-0.08
-0.23
-0.34
-0.42
-0.49
-0.60
-0.73
-0.86
-0.93
-0.88
-0.69
-0.40
-0.10
0.14
0.26
0.26
0.17
0.01
-0.19
-0.44
-0.73
-1.03
-1.26
-1.36
-1.26
-0.98
-0.58
-0.13
0.27
0.60
0.83
0.97
1.02
0.95
0.74
0.42
0.04
-0.30
-0.55
-0.70
-0.79
-0.90
-1.07
-1.27
-1.44
-1.55
-1.57
-1.55
-1.49
-1.34
-1.01
-0.42
0.41
1.37
2.28
2.94
3.26
3.25
2.99
2.57
2.10
1.62
1.21
0.91
0.77
0.78
0.91
1.09
1.24
1.35
1.45
1.53
1.58
1.50
1.23
0.76
0.18
-0.33
-0.64
-0.67
-0.48
-0.16
0.16
0.42
0.59
0.66
0.59
0.38
0.05
-0.31
-0.58
-0.72
-0.77
-0.84
-1.01
-1.25
-1.48
-1.57
-1.52
-1.38
-1.32
-1.40
-1.60
-1.75
-1.69
-1.34
-0.79
-0.22
0.20
0.40
0.46
0.52
0.67
0.91
1.16
1.33
1.41
1.46
1.55
1.75
2.04
2.32
2.51
2.57
2.55
2.52
2.57
2.73
2.98
3.30
3.66
4.04
4.41
4.68
4.78
4.60
4.10
3.29
2.24
1.10
0.01
-0.91
-1.63
-2.16
-2.54
-2.79
-2.89
-2.79
-2.48
-2.01
-1.48
-1.04
-0.82
-0.85
-1.08
-1.37
-1.61
-1.72
-1.72
-1.64
-1.55
-1.44
-1.33
-1.16
-0.95
-0.73
-0.59
-0.58
-0.72
-0.96
-1.18
-1.26
-1.15
-0.87
-0.55
-0.30
-0.22
-0.33
-0.57
-0.83
-1.04
-1.12
-1.05
-0.85
-0.54
-0.18
0.16
0.42
0.53
0.45
0.19
-0.18
-0.57
-0.86
-0.96
-0.87
-0.68
-0.51
-0.49
-0.58
-0.69
-0.64
-0.36
0.09
0.50
0.65
0.40
-0.24
-1.10
-1.99
-2.77
-3.40
-3.87
-4.18
-4.23
-3.92
-3.20
-2.10
-0.83
0.35
1.22
1.70
1.86
1.92
2.07
2.41
2.89
3.35
3.64
3.70
3.56
3.37
3.24
3.24
3.40
3.69
4.06
4.42
4.65
4.60
4.16
3.31
2.15
0.84
-0.41
-1.47
-2.27
-2.83
-3.23
-3.50
-3.68
-3.76
-3.76
-3.68
-3.54
-3.36
-3.17
-2.96
-2.76
-2.56
-2.31
-1.96
-1.43
-0.69
0.24
1.31
2.40
3.43
4.31
4.98
5.35
5.34
4.90
4.07
2.99
1.89
1.00
0.43
0.15
0.03
-0.12
-0.40
-0.78
-1.16
-1.38
-1.37
-1.20
-0.99
-0.91
-1.03
-1.33
-1.69
-1.97
-2.09
-2.04
-1.90
-1.77
-1.68
-1.62
-1.54
-1.38
-1.15
-0.87
-0.62
-0.42
-0.28
-0.17
-0.08
0.02
0.08
0.06
-0.08
-0.31
-0.57
-0.79
-0.90
-0.89
-0.82
-0.76
-0.78
-0.95
-1.24
-1.62
-2.00
-2.26
-2.33
-2.21
-1.99
-1.81
-1.82
-2.04
-2.39
-2.67
-2.74
-2.55
-2.19
-1.79
-1.39
-0.90
-0.13
1.03
2.55
4.16
5.53
6.34
6.48
6.06
5.32
4.51
3.75
3.06
2.36
1.58
0.74
-0.08
-0.77
-1.25
-1.50
-1.59
-1.63
-1.69
-1.78
-1.84
-1.80
-1.61
-1.31
-0.95
-0.63
-0.41
-0.33
-0.40
-0.61
-0.89
-1.16
-1.29
-1.21
-0.95
-0.57
-0.21
0.04
0.15
0.18
0.15
0.09
-0.04
-0.26
-0.51
-0.72
-0.82
-0.86
-1.01
-1.49
-2.43
-3.80
-5.42
-7.04
-8.52
-9.87
-11.26
-12.88
-14.90
-17.39
-20.26
-23.33
-26.37
-29.17
-31.60
-33.73
-35.83
-38.27
-41.41
-45.33
-49.78
-54.26
-58.27
-61.59
-64.47
-67.50
-71.32
-76.29
-82.35
-88.97
-95.48
-101.38
-106.57
-111.31
-116.11
-121.44
-127.65
-135.04
-143.90
-154.47
-166.47
-178.62
-188.37
-192.31
-187.08
-170.55
-142.47
-104.35
-58.72
-8.32
44.32
96.69
146.00
189.21
223.70
248.26
263.70
272.58
278.18
283.07
288.26
293.32
297.20
299.20
299.62
299.64
300.68
303.67
308.74
315.14
321.50
326.07
326.88
321.97
309.70
289.15
260.44
224.78
184.05
140.02
93.75
45.36
-5.31
-57.63
-109.30
-156.36
-194.27
-219.58
-231.33
-231.39
-223.58
-212.07
-199.83
-188.09
-176.72
-165.27
-153.75
-142.86
-133.43
-125.80
-119.44
-113.23
-106.04
-97.41
-87.69
-77.89
-69.14
-62.11
-56.78
-52.44
-48.16
-43.16
-37.21
-30.67
-24.34
-19.09
-15.55
-13.83
-13.59
-14.13
-14.72
-14.83
-14.28
-13.23
-12.00
-10.85
-9.88
-9.01
-8.14
-7.28
-6.61
-6.43
-6.93
-8.06
-9.44
-10.58
-11.03
-10.68
-9.78
-8.89
-8.57
-9.15
-10.50
-12.06
-13.06
-12.83
-11.15
-8.32
-5.11
-2.43
-0.95
-0.91
-2.05
-3.73
-5.05
-4.81
-1.76
5.07
15.68
28.59
40.88
49.12
50.69
45.07
34.15
21.39
10.28
2.95
-0.46
-1.19
-0.83
-0.34
0.15
0.94
2.11
3.23
3.53
2.39
-0.22
-3.63
-6.79
-8.70
-8.88
-7.50
-5.25
-2.99
-1.36
-0.56
-0.37
-0.42
-0.44
-0.39
-0.52
-1.06
-2.13
-3.54
-4.90
-5.79
-5.95
-5.39
-4.37
-3.27
-2.42
-2.05
-2.15
-2.62
-3.27
-3.90
-4.38
-4.68
-4.81
-4.84
-4.84
-4.86
-4.93
-5.06
-5.23
-5.37
-5.39
-5.21
-4.86
-4.41
-4.03
-3.84
-3.84
-3.92
-3.88
-3.59
-3.02
-2.21
-1.21
0.02
1.61
3.64
6.01
8.40
10.40
11.67
12.10
11.79
10.92
9.65
8.00
5.97
3.59
1.00
-1.57
-3.88
-5.77
-7.16
-8.05
-8.44
-8.39
-8.00
-7.47
-6.97
-6.65
-6.52
-6.41
-6.02
-4.95
-2.80
0.66
5.40
10.99
16.62
21.22
23.74
23.53
20.57
15.53
9.61
4.08
-0.12
-2.63
-3.60
-3.52
-2.91
-2.10
-1.24
-0.47
0.07
0.10
-0.58
-1.97
-3.81
-5.65
-7.00
-7.60
-7.46
-6.83
-6.02
-5.29
-4.70
-4.22
-3.78
-3.36
-3.00
-2.80
-2.80
-2.97
-3.23
-3.51
-3.80
-4.13
-4.48
-4.78
-4.86
-4.57
-3.90
-2.96
-1.96
-1.05
-0.24
0.62
1.66
2.87
4.04
4.80
4.84
4.07
2.69
1.08
-0.32
-1.26
-1.68
-1.70
-1.55
-1.42
-1.39
-1.45
-1.50
-1.43
-1.07
-0.17
1.48
3.99
7.21
10.64
13.58
15.33
15.49
14.11
11.66
8.79
6.07
3.79
1.95
0.37
-1.04
-2.29
-3.26
-3.85
-4.05
-3.97
-3.80
-3.68
-3.70
-3.82
-3.94
-3.93
-3.76
-3.50
-3.30
-3.28
-3.49
-3.85
-4.20
-4.34
-4.16
-3.69
-3.08
-2.53
-2.21
-2.15
-2.30
-2.50
-2.62
-2.58
-2.37
-2.06
-1.74
-1.51
-1.42
-1.41
-1.38
-1.15
-0.56
0.42
1.68
2.96
3.96
4.45
4.37
3.84
3.06
2.25
1.53
0.90
0.32
-0.24
-0.73
-1.06
-1.13
-0.91
-0.46
0.14
0.86
1.77
3.01
4.66
6.62
8.52
9.89
10.28
9.53
7.86
5.75
3.71
2.10
0.95
0.10
-0.67
-1.48
-2.24
-2.82
-3.08
-3.06
-2.87
-2.66
-2.49
-2.36
-2.24
-2.13
-2.11
-2.28
-2.69
-3.32
-4.03
-4.65
-5.04
-5.12
-4.90
-4.41
-3.78
-3.15
-2.69
-2.50
-2.55
-2.71
-2.83
-2.77
-2.54
-2.22
-1.96
-1.82
-1.77
-1.69
-1.45
-0.92
-0.08
1.08
2.49
4.00
5.39
6.42
6.87
6.61
5.68
4.23
2.55
0.87
-0.58
-1.64
-2.27
-2.46
-2.32
-1.97
-1.55
-1.17
-0.84
-0.49
0.01
0.82
2.04
3.64
5.48
7.25
8.61
9.20
8.83
7.57
5.66
3.56
1.70
0.37
-0.36
-0.60
-0.61
-0.60
-0.67
-0.80
-0.83
-0.67
-0.30
0.18
0.57
0.67
0.40
-0.22
-1.02
-1.83
-2.51
-3.01
-3.36
-3.62
-3.83
-3.96
-3.94
-3.72
-3.26
-2.58
-1.76
-0.95
-0.25
0.24
0.51
0.62
0.66
0.74
0.86
0.97
1.01
0.93
0.74
0.51
0.27
-0.01
-0.43
-1.07
-1.93
-2.86
-3.61
-3.94
-3.69
-2.87
-1.66
-0.29
0.99
1.95
2.41
2.27
1.54
0.39
-0.88
-1.93
-2.48
-2.44
-1.89
-1.05
-0.20
0.44
0.73
0.62
0.13
-0.63
-1.45
-2.13
-2.44
-2.30
-1.80
-1.14
-0.62
-0.51
-0.93
-1.87
-3.16
-4.50
-5.54
-5.95
-5.52
-4.26
-2.40
-0.41
1.18
1.98
1.83
0.92
-0.35
-1.47
-1.97
-1.56
-0.21
1.85
4.15
5.98
6.63
5.57
2.67
-1.65
-6.57
-11.15
-14.70
-17.12
-18.89
-20.78
-23.39
-26.76
-30.34
-33.12
-34.11
-32.75
-29.22
-24.36
-19.39
-15.56
-13.73
-14.41
-17.79
-23.75
-31.51
-39.18
-43.77
-42.02
-31.80
-13.51
9.61
32.52
50.46
60.82
63.92
62.14
58.25
53.89
49.27
43.93
37.78
31.68
26.95
24.42
23.78
23.67
22.46
19.13
13.76
7.46
1.65
-2.65
-5.26
-6.78
-8.09
-9.75
-11.66
-13.15
-13.39
-11.91
-8.85
-4.90
-1.01
1.98
3.55
3.55
2.07
-0.61
-4.04
-7.74
-11.24
-14.24
-16.67
-18.69
-20.53
-22.25
-23.75
-24.83
-25.46
-25.87
-26.55
-28.02
-30.58
-34.08
-38.02
-41.81
-45.09
-48.03
-51.26
-55.55
-61.40
-68.75
-76.96
-85.17
-92.74
-99.46
-105.66
-111.94
-118.84
-126.64
-135.40
-145.17
-156.03
-167.89
-179.89
-189.90
-194.73
-190.82
-175.60
-148.50
-111.22
-66.82
-18.34
32.29
84.29
137.08
189.02
236.91
276.73
305.19
321.29
326.82
325.57
321.77
318.59
317.46
318.28
320.35
323.14
326.52
330.32
333.70
334.74
330.67
318.73
297.18
266.02
227.00
182.74
135.54
86.55
35.78
-16.77
-69.86
-120.25
-163.24
-194.33
-211.12
-214.42
-207.83
-196.21
-183.70
-172.53
-162.90
-153.90
-144.78
-135.51
-126.77
-119.25
-113.11
-107.74
-102.21
-95.72
-88.09
-79.79
-71.67
-64.51
-58.69
-54.07
-50.15
-46.33
-42.20
-37.68
-33.03
-28.66
-24.92
-21.90
-19.43
-17.12
-14.57
-11.52
-8.00
-4.29
-0.85
1.91
3.72
4.55
4.55
3.96
3.05
1.98
0.84
-0.36
-1.62
-2.90
-4.12
-5.18
-6.00
-6.54
-6.77
-6.73
-6.44
-5.98
-5.47
-5.07
-4.89
-4.98
-5.25
-5.53
-5.63
-5.41
-4.85
-4.06
-3.18
-2.35
-1.69
-1.24
-1.00
-0.93
-0.94
-0.91
-0.73
-0.34
0.23
0.88
1.48
1.89
2.05
1.92
1.60
1.22
0.94
0.88
1.09
1.47
1.85
2.06
2.00
1.70
1.32
1.03
0.91
0.94
0.99
0.88
0.52
-0.09
-0.85
-1.58
-2.14
-2.43
-2.45
-2.26
-1.94
-1.52
-1.05
-0.60
-0.25
-0.10
-0.20
-0.52
-0.95
-1.34
-1.59
-1.66
-1.60
-1.48
-1.33
-1.13
-0.88
-0.56
-0.22
0.08
0.32
0.51
0.72
0.97
1.25
1.50
1.69
1.77
1.77
1.73
1.68
1.68
1.73
1.88
2.13
2.46
2.78
2.97
2.90
2.53
1.90
1.15
0.41
-0.23
-0.75
-1.23
-1.68
-2.12
-2.49
-2.77
-2.97
-3.15
-3.38
-3.67
-3.90
-3.98
-3.78
-3.35
-2.80
-2.28
-1.90
-1.67
-1.51
-1.38
-1.28
-1.26
-1.35
-1.50
-1.60
-1.55
-1.35
-1.11
-1.03
-1.24
-1.69
-2.17
-2.41
-2.25
-1.70
-0.97
-0.27
0.24
0.59
0.90
1.26
1.64
1.95
2.11
2.16
2.27
2.61
3.26
4.09
4.84
5.21
5.07
4.48
3.65
2.82
2.16
1.68
1.35
1.11
0.92
0.78
0.65
0.53
0.36
0.13
-0.13
-0.36
-0.50
-0.50
-0.35
-0.08
0.25
0.59
0.88
1.12
1.26
1.28
1.18
0.97
0.69
0.42
0.23
