1660755269.00
64.000000
-0.00
-0.00
-0.00
-0.00
-0.00
-0.00
-0.00
-0.00
-0.00
-0.00
0.00
0.01
0.01
-0.00
-0.03
-0.05
-0.05
0.00
0.13
0.36
0.66
1.01
1.37
1.72
2.06
2.40
2.79
3.24
3.80
4.42
5.06
5.66
6.20
6.68
7.15
7.68
8.31
9.14
10.09
11.04
11.88
12.56
13.14
13.76
14.65
15.96
17.91
20.32
22.90
25.38
27.58
29.57
31.68
34.32
37.81
42.54
48.15
54.10
59.83
64.97
69.58
74.14
79.34
85.71
93.76
103.00
112.62
121.73
129.77
136.75
143.30
150.75
157.77
166.64
177.95
191.79
206.97
220.57
228.25
225.36
208.53
176.87
132.76
80.05
23.07
-34.94
-92.44
-149.16
-205.23
-260.37
-313.74
-363.87
-409.83
-450.91
-486.50
-515.74
-537.23
-549.22
-549.96
-538.37
-514.21
-478.67
-433.88
-382.45
-327.02
-269.84
-212.63
-156.66
-102.95
-52.37
-5.90
35.58
71.43
101.35
125.50
144.38
158.69
169.15
176.37
180.75
182.57
182.07
179.51
175.23
169.65
163.18
156.15
148.81
141.30
133.69
126.02
118.33
110.69
103.16
95.80
88.68
81.83
75.25
68.95
62.95
57.25
51.86
46.78
42.03
37.59
33.45
29.61
26.07
22.81
19.83
17.11
14.67
12.48
10.54
8.83
7.35
6.07
4.97
4.05
3.27
2.62
2.09
1.65
1.30
1.01
0.79
0.61
0.47
0.37
0.29
0.23
0.20
0.17
0.16
0.16
0.18
0.20
0.22
0.25
0.29
0.33
0.37
0.42
0.46
0.51
0.56
0.61
0.66
0.72
0.78
0.84
0.92
1.00
1.08
1.18
1.29
1.41
1.54
1.70
1.87
2.06
2.27
2.51
2.77
3.06
3.37
3.72
4.10
4.51
4.96
5.45
5.97
6.53
7.14
7.78
8.47
9.21
9.99
10.82
11.68
12.60
13.56
14.59
15.67
16.83
18.04
19.31
20.59
21.87
23.05
24.06
24.78
25.09
24.86
23.98
22.41
20.09
17.07
13.40
9.24
4.78
0.21
-4.23
-8.32
-11.89
-14.80
-16.99
-18.45
-19.21
-19.37
-19.03
-18.27
-17.17
-15.81
-14.25
-12.56
-10.80
-9.01
-7.26
-5.59
-4.01
-2.47
-0.94
0.62
2.21
3.85
5.56
7.24
8.88
10.53
12.27
14.19
16.31
18.61
21.06
23.62
26.01
28.16
30.16
32.21
34.50
37.12
40.03
43.06
46.09
48.57
50.33
51.52
52.50
53.67
55.22
57.12
59.10
60.81
61.32
60.14
57.09
52.27
45.86
37.72
27.07
12.09
-5.19
-25.23
-48.79
-76.05
-105.97
-136.05
-162.73
-182.00
-190.43
-186.24
-170.89
-148.45
-124.84
-106.16
-96.93
-98.74
-110.08
-127.09
-144.81
-158.93
-165.78
-162.94
-149.53
-126.50
-96.54
-63.68
-32.37
-6.19
12.96
25.51
33.68
40.08
46.58
53.55
60.13
65.07
67.72
68.16
67.03
64.87
61.62
56.79
49.97
41.30
31.68
22.37
14.27
7.79
3.13
0.51
0.29
2.45
6.24
10.11
12.45
12.31
9.91
6.41
3.28
1.79
2.91
7.28
14.92
24.83
34.91
42.42
44.96
41.56
33.09
21.86
10.60
1.41
-4.70
-7.75
-8.26
-7.00
-4.61
-1.48
2.18
6.37
11.02
15.85
20.29
23.49
24.69
23.54
20.20
15.23
9.49
4.02
-0.16
-2.40
-2.57
-1.26
0.40
0.96
-0.89
-5.75
-13.12
-21.38
-28.05
-30.60
-27.45
-18.63
-5.89
7.80
19.38
26.66
28.96
26.95
22.08
15.85
9.35
3.25
-1.93
-5.75
-7.83
-7.90
-5.94
-2.29
2.34
6.96
10.57
12.52
12.78
11.93
10.81
9.87
8.88
7.35
5.15
2.91
1.70
2.29
4.40
6.58
6.82
3.64
-3.13
-12.18
-21.20
-27.71
-29.84
-26.74
-18.67
-7.01
6.02
17.71
25.66
28.49
26.33
20.56
13.10
5.56
-1.00
-5.90
-8.66
-9.02
-7.07
-3.43
0.75
4.30
6.40
6.77
5.61
3.25
-0.09
-4.20
-8.78
-13.25
-16.85
-18.84
-18.83
-16.97
-13.83
-9.98
-5.75
-1.41
2.60
5.60
6.89
6.29
4.57
3.29
4.14
7.96
14.10
20.62
25.32
26.87
25.49
22.58
19.67
17.39
15.20
11.87
6.60
-0.38
-7.96
-14.72
-19.69
-22.56
-23.50
-22.80
-20.60
-17.00
-12.35
-7.38
-2.88
0.52
2.64
3.90
5.14
7.24
10.67
15.18
19.85
23.45
24.88
23.46
19.16
12.55
4.64
-3.15
-9.25
-12.25
-11.31
-6.58
0.71
8.47
14.58
17.63
17.50
15.19
12.12
9.28
6.79
4.16
0.86
-3.24
-7.72
-11.80
-14.82
-16.51
-16.99
-16.56
-15.55
-14.11
-12.35
-10.31
-8.06
-5.80
-3.67
-1.62
0.58
3.20
6.34
9.80
12.98
15.14
15.46
13.31
8.51
1.45
-6.72
-14.25
-19.16
-19.97
-16.30
-9.20
-0.87
6.16
9.87
9.46
5.47
-0.55
-6.73
-11.42
-13.56
-12.76
-9.23
-3.66
2.90
8.92
12.31
10.78
2.66
-12.00
-30.59
-48.38
-60.16
-62.30
-54.23
-38.14
-17.33
5.69
29.87
54.81
79.30
100.56
114.75
118.45
110.09
90.66
63.10
31.23
-1.26
-31.10
-55.40
-71.34
-76.59
-70.21
-53.53
-30.42
-6.45
12.91
24.19
26.97
23.43
16.79
9.29
1.27
-8.18
-19.42
-30.75
-38.59
-39.38
-31.94
-18.45
-3.55
8.16
14.60
17.03
18.73
22.90
30.86
41.56
52.46
61.00
65.72
66.39
63.25
55.88
42.94
23.13
-3.25
-33.19
-61.48
-82.69
-93.49
-93.98
-87.01
-76.24
-64.25
-51.85
-38.62
-24.30
-9.82
2.82
11.44
15.01
14.16
10.68
6.28
1.79
-3.18
-9.62
-18.10
-27.95
-37.20
-43.39
-44.98
-42.23
-37.28
-33.01
-31.27
-31.71
-32.16
-30.22
-25.03
-18.05
-12.28
-10.82
-15.68
-27.50
-45.87
-69.56
-96.15
-121.56
-140.17
-146.14
-135.25
-106.75
-63.61
-11.13
45.23
102.13
159.40
219.47
285.54
359.20
438.51
517.52
587.44
639.54
668.23
673.19
659.31
634.55
606.50
579.73
555.02
530.55
504.05
474.57
442.75
409.89
376.77
342.88
306.69
266.67
222.18
173.99
124.43
76.63
33.68
-2.30
-30.84
-53.42
-73.09
-93.63
-118.36
-148.96
-184.89
-223.73
-262.10
-297.14
-327.84
-355.44
-383.13
-415.00
-454.61
-503.60
-560.41
-619.82
-673.35
-710.63
-721.86
-700.86
-647.89
-570.61
-483.04
-402.16
-342.89
-313.30
-312.18
-330.18
-353.81
-371.17
-375.23
-364.46
-340.93
-307.20
-264.12
-210.70
-145.87
-71.21
6.90
78.95
135.21
168.81
177.58
164.23
134.41
93.76
45.40
-12.34
-81.78
-161.95
-245.88
-321.38
-375.18
-398.11
-389.01
-355.07
-310.93
-269.74
-238.05
-214.79
-194.42
-171.53
-144.02
-113.47
-83.55
-60.89
-48.78
-45.87
-47.53
-49.18
-48.37
-45.62
-43.14
-23.22
20.72
82.98
148.76
204.81
245.61
272.35
288.24
296.25
298.41
292.71
279.48
261.24
242.15
225.91
215.25
210.80
211.74
216.71
222.41
225.62
226.11
225.82
226.90
231.65
240.62
252.76
265.92
276.08
280.31
277.65
268.83
246.96
209.16
157.34
97.90
38.37
-16.65
-65.22
-106.92
-141.66
-169.65
-190.27
-203.56
-210.44
-212.65
-212.36
-211.28
-210.24
-209.37
-207.91
-204.40
-198.08
-189.19
-178.86
-168.60
-159.77
-153.29
-149.05
-146.74
-145.42
-144.23
-142.65
-140.36
-136.94
-131.35
-125.89
-120.97
-116.49
-111.99
-107.09
-101.69
-95.98
-90.33
-85.10
-80.59
-76.42
-72.25
-67.80
-62.92
-57.68
-52.27
-46.97
-42.00
-37.42
-32.74
-27.47
-21.33
-14.24
-6.45
1.64
9.56
17.00
23.95
31.03
38.91
48.16
58.97
71.06
83.80
96.51
108.76
120.67
133.00
146.75
162.74
181.24
201.84
223.66
245.67
267.12
287.87
308.39
329.68
353.14
380.31
412.38
449.33
489.07
527.10
557.30
573.57
572.02
552.34
517.96
474.66
428.50
383.98
343.40
307.19
274.87
245.81
219.42
195.09
171.96
149.19
126.25
103.24
80.78
59.71
40.75
24.15
9.63
-3.37
-15.55
-27.48
-39.41
-51.17
-62.17
-71.62
-78.86
-83.70
-86.50
-88.01
-89.08
-90.28
-91.76
-93.31
-94.53
-95.11
-94.95
-94.15
-92.98
-91.83
-91.02
-90.74
-90.94
-91.33
-91.52
-91.23
-90.41
-89.30
-88.28
-87.60
-87.25
-86.96
-86.37
-85.19
-83.42
-81.30
-79.10
-77.00
-74.91
-72.56
-69.65
-66.00
-61.70
-56.96
-52.06
-47.14
-42.20
-37.18
-32.08
-27.02
-22.14
-17.46
-12.78
-7.80
-2.45
2.73
6.30
6.12
-0.19
-14.50
-37.52
-68.53
-105.38
-144.89
-183.39
-217.26
-243.37
-259.52
-264.57
-258.60
-242.67
-218.50
-188.07
-153.28
-115.79
-77.16
-39.10
-3.70
26.56
49.25
62.61
65.99
60.27
47.65
31.19
14.18
-0.44
-10.65
-15.58
-15.68
-12.53
-8.27
-4.89
-3.54
-4.17
-5.74
-6.74
-5.94
-2.76
2.55
9.19
16.16
22.57
27.85
31.84
34.83
37.51
40.87
45.98
53.65
64.27
77.73
93.51
110.76
128.24
144.45
157.71
166.63
170.57
170.03
166.60
162.36
159.07
157.45
157.10
156.93
155.85
153.30
149.16
143.22
134.73
122.45
105.16
82.52
55.36
25.49
-5.15
-35.34
-65.04
-95.38
-127.79
-162.99
-200.21
-236.90
-269.23
-293.28
-306.31
-307.72
-299.15
-283.80
-265.13
-245.74
-226.88
-208.75
-191.25
-174.69
-159.79
-147.26
-137.17
-128.71
-120.53
-111.42
-100.89
-89.26
-77.31
-65.69
-54.39
-42.84
-30.29
-16.49
-2.15
11.04
20.91
25.67
24.87
19.97
14.23
11.73
15.87
27.99
46.76
68.80
90.02
107.06
118.05
122.52
120.71
113.11
100.63
85.08
69.49
57.63
52.61
55.34
63.48
72.07
75.36
69.29
53.27
30.43
6.10
-14.63
-29.05
-37.65
-43.26
-48.99
-56.33
-64.47
-71.03
-73.82
-72.33
-68.28
-64.90
-65.67
-73.39
-89.77
-115.21
-148.40
-185.63
-220.30
-243.75
-247.94
-229.02
-190.03
-140.88
-94.80
-63.01
-49.95
-51.64
-58.12
-58.32
-45.11
-17.62
19.58
59.64
96.98
128.99
155.68
177.61
193.88
201.51
196.77
177.70
146.33
109.08
74.86
51.80
44.31
52.17
71.66
97.58
124.74
148.40
164.40
169.77
164.14
150.78
136.19
127.67
130.12
143.86
164.83
186.91
204.69
215.12
217.36
211.67
198.98
181.16
161.72
145.45
136.51
136.16
141.36
145.70
141.89
124.52
91.51
44.06
-14.08
-77.61
-140.24
-195.59
-238.57
-267.30
-284.39
-296.46
-311.68
-336.33
-372.46
-417.61
-466.65
-514.13
-555.62
-587.64
-606.82
-609.65
-593.30
-557.27
-504.31
-439.92
-370.43
-300.91
-234.04
-170.32
-109.40
-51.10
4.30
56.60
106.68
156.82
210.31
269.98
336.19
405.29
469.72
520.18
549.24
554.62
540.27
514.92
488.74
469.91
462.63
466.99
479.89
496.31
510.25
515.73
508.29
486.49
452.80
412.77
372.74
336.98
306.15
277.82
248.46
215.72
179.48
141.38
103.49
67.02
31.94
-2.75
-38.23
-75.36
-114.33
-154.72
-195.65
-236.19
-275.53
-313.47
-350.46
-387.43
-425.64
-466.25
-510.75
-560.32
-615.21
-673.45
-729.85
-776.07
-802.66
-802.69
-775.10
-726.01
-666.64
-608.77
-560.05
-521.58
-488.99
-456.02
-418.35
-375.37
-329.38
-283.15
-237.87
-192.78
-146.44
-98.45
-50.18
-4.29
37.11
73.86
108.18
143.50
182.63
226.52
273.70
321.13
365.98
407.29
446.36
485.96
528.70
575.68
625.65
675.31
719.95
754.28
773.17
772.77
752.07
714.12
665.98
616.77
574.27
541.84
517.34
494.77
467.80
433.10
391.56
347.00
303.40
262.59
223.87
185.24
145.22
103.92
62.96
24.27
-11.15
-43.78
-75.29
-107.77
-142.82
-180.92
-221.38
-262.65
-303.06
-341.45
-377.64
-412.61
-448.17
-486.14
-527.54
-572.09
-618.36
-664.29
-707.40
-744.78
-772.92
-788.03
-786.74
-767.31
-730.53
-679.82
-620.41
-557.56
-495.02
-434.52
-376.42
-320.73
-267.84
-218.26
-171.88
-127.80
-83.98
-38.13
11.23
63.88
117.90
170.50
219.42
263.93
304.06
341.49
379.52
422.18
472.65
531.35
594.72
655.36
703.67
728.61
723.57
689.37
633.97
568.46
502.27
440.17
382.35
326.66
267.82
203.49
135.51
68.81
7.64
-47.16
-97.97
-148.42
-201.62
-264.14
-340.18
-429.46
-526.29
-621.51
-705.40
-769.92
-810.36
-798.38
-721.91
-591.80
-438.58
-293.82
-174.95
-84.60
-18.10
30.10
64.12
82.56
85.44
76.51
62.79
50.98
44.78
44.10
46.47
49.30
47.66
39.12
24.77
8.73
-4.50
-12.42
-14.85
-12.86
-7.39
-2.84
-1.46
-3.18
-5.90
-7.21
-5.87
-1.88
3.92
10.38
15.51
18.12
18.07
16.22
13.70
11.17
9.69
9.89
11.98
15.40
19.47
23.57
27.46
31.08
34.28
38.95
46.79
58.73
74.71
93.60
113.66
133.24
151.08
166.24
181.62
200.12
223.64
252.68
285.85
320.80
355.42
388.43
419.23
452.47
492.97
544.07
607.08
679.97
758.75
839.58
920.30
971.18
970.15
905.31
780.25
612.26
421.75
225.14
33.90
-143.37
-299.78
-425.76
-512.25
-560.60
-573.55
-555.84
-514.03
-456.28
-391.89
-330.43
-276.22
-233.30
-202.84
-181.74
-165.60
-150.64
-134.73
-117.81
-101.82
-86.09
-72.56
-63.47
-59.92
-62.37
-70.15
-81.37
-93.83
-106.16
-117.43
-126.94
-134.13
-137.82
-136.95
-130.74
-119.06
-102.80
-83.92
-64.55
-46.77
-31.67
-18.95
-7.73
2.85
13.28
23.88
35.10
47.87
63.13
81.17
100.68
118.27
129.25
129.40
116.81
92.86
61.60
27.89
-4.55
-34.43
-62.50
-90.01
-116.89
-140.77
-157.68
-163.96
-158.39
-143.23
-123.53
-105.13
-92.18
-85.80
-84.24
-84.49
-84.20
-82.85
-81.51
-81.68
-83.96
-87.54
-90.59
-91.38
-89.30
-85.08
-80.37
-76.69
-74.59
-73.38
-71.47
-67.24
-59.92
-49.92
-38.72
-28.17
-19.71
-13.91
-10.41
-8.33
-6.79
-5.36
-4.21
-3.86
-4.91
-7.62
-11.77
-16.71
-21.52
-25.26
-27.26
-27.23
-25.22
-21.60
-16.84
-11.41
-5.66
0.15
5.82
11.18
15.98
19.96
22.88
24.58
25.09
24.61
23.52
22.21
21.01
20.04
19.29
18.66
18.07
17.55
17.20
17.11
17.22
17.36
17.25
16.64
15.39
13.58
11.41
9.13
7.00
5.21
3.92
3.22
3.14
3.63
4.53
5.62
6.67
7.54
8.19
8.67
9.07
9.45
9.77
9.95
9.89
9.59
9.16
8.74
8.44
8.26
8.06
7.70
7.12
6.40
5.73
5.23
4.92
4.64
4.16
3.34
2.21
0.94
-0.29
-1.39
-2.40
-3.42
-4.48
-5.46
-6.07
-6.07
-5.33
-4.00
-2.42
-0.99
0.06
0.70
1.14
1.66
2.45
3.51
4.66
5.68
6.40
6.78
6.88
6.82
6.69
6.52
6.34
6.16
6.00
5.88
5.81
5.78
5.79
5.82
5.83
5.78
5.62
5.27
4.68
3.87
2.93
1.99
1.22
0.74
0.62
0.88
1.44
2.20
3.07
3.95
4.81
5.58
6.21
6.62
6.79
6.75
6.55
6.24
5.80
5.17
4.29
3.18
1.94
0.76
-0.19
-0.82
-1.18
-1.34
-1.39
-1.35
-1.22
-1.03
-0.87
-0.89
-1.20
-1.84
-2.73
-3.71
-4.61
-5.28
-5.64
-5.63
-5.25
-4.51
-3.48
-2.24
-0.93
0.32
1.39
2.21
2.75
3.01
3.04
2.88
2.57
2.18
1.73
1.25
0.74
0.18
-0.42
-1.05
-1.68
-2.26
-2.74
-3.10
-3.33
-3.48
-3.62
-3.79
-4.05
-4.41
-4.91
-5.55
-6.32
-7.16
-7.88
-8.26
-8.12
-7.38
-6.13
-4.65
-3.27
-2.27
-1.68
-1.37
-1.09
-0.61
0.15
1.13
2.14
3.00
3.60
3.96
4.16
4.26
4.31
4.27
4.11
3.79
3.34
2.81
2.25
1.68
1.12
0.60
0.19
-0.07
-0.16
-0.16
-0.24
-0.53
-1.13
-1.97
-2.87
-3.56
-3.81
-3.54
-2.76
-1.64
-0.38
0.82
1.83
2.60
3.14
3.56
3.93
4.28
4.55
4.67
4.57
4.26
3.78
3.23
2.67
2.10
1.52
0.88
0.20
-0.49
-1.13
-1.66
-2.04
-2.30
-2.49
-2.71
-3.08
-3.69
-4.56
-5.58
-6.53
-7.13
-7.18
-6.58
-5.43
-3.93
-2.38
-1.04
-0.10
0.39
0.54
0.51
0.48
0.55
0.77
1.08
1.37
1.58
1.64
1.54
1.28
0.88
0.34
-0.31
-1.00
-1.63
-2.10
-2.36
-2.44
-2.44
-2.47
-2.66
-3.05
-3.63
-4.33
-5.04
-5.66
-6.09
-6.20
-5.91
-5.21
-4.17
-2.98
-1.87
-0.99
-0.35
0.14
0.67
1.36
2.18
3.00
3.61
3.88
3.83
3.57
3.25
3.00
2.86
2.79
2.72
2.56
2.27
1.83
1.29
0.70
0.16
-0.30
-0.66
-1.03
-1.50
-2.15
-2.98
-3.92
-4.82
-5.57
-6.09
-6.34
-6.31
-5.99
-5.38
-4.49
-3.40
-2.21
-1.06
-0.02
0.88
1.63
2.23
2.69
3.00
3.18
3.28
3.36
3.47
3.61
3.77
3.90
3.97
3.93
3.76
3.46
3.06
2.65
2.33
2.14
2.06
1.94
1.59
0.84
-0.30
-1.73
-3.22
-4.58
-5.66
-6.36
-6.64
-6.45
-5.75
-4.57
-3.03
-1.31
0.36
1.77
2.85
3.61
4.18
4.68
5.19
5.70
6.15
6.43
6.49
6.31
5.97
5.56
5.21
4.95
4.78
4.61
4.38
4.07
3.70
3.36
3.10
2.93
2.76
2.43
1.81
0.83
-0.43
-1.80
-3.08
-4.15
-4.96
-5.57
-6.00
-6.21
-6.09
-5.51
-4.43
-2.94
-1.23
0.45
1.88
2.95
3.64
4.07
4.39
4.76
5.27
5.88
6.43
6.71
6.59
6.07
5.33
4.60
4.06
3.72
3.50
3.24
2.86
2.40
1.98
1.73
1.76
2.06
2.57
3.13
3.59
3.79
3.64
3.10
2.19
0.98
-0.48
-2.07
-3.68
-5.11
-6.16
-6.63
-6.45
-5.71
-4.57
-3.24
-1.85
-0.45
0.96
2.35
3.62
4.64
5.32
5.62
5.64
5.47
5.21
4.88
4.46
3.88
3.16
2.38
1.69
1.23
1.09
1.26
1.66
2.12
2.54
2.84
3.03
3.15
3.23
3.23
3.06
2.59
1.77
0.61
-0.72
-2.02
-3.11
-3.87
-4.29
-4.39
-4.17
-3.60
-2.64
-1.32
0.24
1.82
3.19
4.18
4.79
5.13
5.34
5.51
5.63
5.57
5.24
4.56
3.59
2.44
1.33
0.44
-0.08
-0.19
0.01
0.37
0.71
0.94
1.11
1.33
1.65
1.97
2.04
1.58
0.45
-1.24
-3.16
-4.88
-6.10
-6.70
-6.70
-6.21
-5.29
-3.98
-2.39
-0.68
0.92
2.21
3.12
3.73
4.19
4.64
5.14
5.64
6.05
6.31
6.43
6.44
6.42
6.43
6.53
6.73
7.00
7.22
7.25
6.94
6.24
5.18
3.91
2.61
1.42
0.42
-0.36
-0.91
-1.21
-1.27
-1.11
-0.86
-0.64
-0.57
-0.63
-0.71
-0.63
-0.28
0.36
1.17
2.05
2.90
3.69
4.42
5.06
5.51
5.62
5.30
4.55
3.53
2.48
1.62
1.10
0.98
1.20
1.67
2.20
2.63
2.75
2.49
1.86
1.03
0.24
-0.33
-0.62
-0.73
-0.81
-1.03
-1.44
-2.04
-2.71
-3.37
-3.91
-4.25
-4.30
-3.99
-3.27
-2.15
-0.75
0.76
2.16
3.26
3.92
4.13
3.94
3.43
2.68
1.74
0.70
-0.35
-1.24
-1.83
-2.05
-1.96
-1.70
-1.46
-1.35
-1.38
-1.46
-1.54
-1.62
-1.81
-2.18
-2.78
-3.50
-4.21
-4.75
-5.12
-5.36
-5.59
-5.84
-6.07
-6.20
-6.14
-5.85
-5.34
-4.69
-3.90
-3.00
-2.00
-0.94
0.09
0.97
1.57
1.78
1.59
1.05
0.26
-0.62
-1.46
-2.20
-2.80
-3.30
-3.67
-3.88
-3.87
-3.64
-3.26
-2.90
-2.73
-2.83
-3.16
-3.57
-3.90
-4.05
-4.04
-3.93
-3.76
-3.54
-3.15
-2.50
-1.56
-0.38
0.89
2.13
3.28
4.36
5.42
6.43
7.29
7.83
7.85
7.32
6.36
5.20
4.13
3.32
2.82
2.53
2.35
2.18
2.01
1.89
1.83
1.84
1.82
1.70
1.39
0.91
0.32
-0.31
-0.95
-1.60
-2.26
-2.85
-3.28
-3.39
-3.11
-2.47
-1.60
-0.63
0.32
1.28
2.29
3.33
4.33
5.10
5.52
5.52
5.19
4.69
4.11
3.50
2.82
2.10
1.36
0.74
0.32
0.14
0.14
0.25
0.38
0.49
0.57
0.59
0.44
-0.01
-0.84
-2.04
-3.51
-5.05
-6.46
-7.60
-8.36
-8.66
-8.42
-7.57
-6.08
-4.06
-1.78
0.42
2.22
3.44
4.08
4.27
4.20
3.97
3.61
3.10
2.43
1.65
0.86
0.17
-0.36
-0.72
-0.98
-1.21
-1.48
-1.83
-2.28
-2.85
-3.51
-4.24
-4.96
-5.58
-5.92
-5.85
-5.25
-4.08
-2.44
-0.56
1.32
2.95
4.22
5.14
5.78
6.24
6.56
6.73
6.72
6.58
6.37
6.21
6.16
6.21
6.27
6.26
6.13
5.88
5.57
5.30
5.10
4.94
4.72
4.36
3.76
2.94
2.01
1.12
0.43
0.02
-0.12
-0.06
0.09
0.28
0.51
0.79
1.13
1.53
1.97
2.38
2.70
2.88
2.88
2.72
2.46
2.14
1.82
1.50
1.14
0.72
0.21
-0.32
-0.80
-1.15
-1.31
-1.29
-1.11
-0.87
-0.64
-0.51
-0.53
-0.67
-0.88
-1.11
-1.35
-1.67
-2.12
-2.67
-3.22
-3.60
-3.65
-3.37
-2.84
-2.23
-1.64
-1.06
-0.47
0.15
0.70
1.05
1.08
0.84
0.50
0.31
0.37
0.64
0.95
1.06
0.88
0.42
-0.14
-0.64
-0.99
-1.18
-1.29
-1.39
-1.56
-1.81
-2.12
-2.44
-2.71
-2.84
-2.79
-2.59
-2.30
-2.03
-1.84
-1.72
-1.57
-1.25
-0.70
0.06
0.90
1.61
2.02
2.10
1.92
1.65
1.45
1.37
1.41
1.47
1.49
1.43
1.32
1.18
1.04
0.91
0.76
0.60
0.41
0.21
0.00
-0.21
-0.45
-0.75
-1.17
-1.78
-2.57
-3.48
-4.36
-5.04
-5.36
-5.28
-4.87
-4.25
-3.54
-2.83
-2.12
-1.39
-0.61
0.20
0.99
1.67
2.19
2.54
2.71
2.77
2.76
2.77
2.84
3.01
3.25
3.51
3.74
3.90
3.94
3.87
3.67
3.31
2.79
2.13
1.36
0.56
-0.19
-0.81
-1.30
-1.74
-2.19
-2.71
-3.34
-4.03
-4.73
-5.37
-5.90
-6.25
-6.37
-6.21
-5.76
-5.05
-4.23
-3.46
-2.87
-2.46
-2.11
-1.66
-0.98
-0.09
0.87
1.72
2.36
2.80
3.16
3.55
4.04
4.61
5.20
5.75
6.22
6.60
6.87
6.96
6.86
6.56
6.10
5.54
4.92
4.28
3.61
2.90
2.16
1.45
0.83
0.34
0.00
-0.23
-0.43
-0.66
-0.96
-1.35
-1.79
-2.20
-2.52
-2.70
-2.75
-2.72
-2.64
-2.53
-2.33
-1.98
-1.40
-0.62
0.25
0.99
1.42
1.47
1.16
0.64
0.08
-0.42
-0.79
-1.00
-0.99
-0.69
-0.10
0.69
1.49
2.05
2.21
1.93
1.34
0.66
0.11
-0.22
-0.38
-0.48
-0.65
-0.93
-1.28
-1.58
-1.75
-1.80
-1.78
-1.78
-1.85
-1.96
-1.97
-1.79
-1.39
-0.86
-0.35
-0.02
0.08
0.03
-0.03
0.05
0.31
0.66
0.93
0.94
0.61
0.03
-0.66
-1.27
-1.71
-1.99
-2.18
-2.37
-2.54
-2.62
-2.52
-2.20
-1.72
-1.23
-0.88
-0.78
-0.95
-1.32
-1.80
-2.30
-2.77
-3.23
-3.66
-4.08
-4.46
-4.74
-4.86
-4.78
-4.51
-4.10
-3.61
-3.12
-2.66
-2.19
-1.64
-0.97
-0.16
0.70
1.49
2.07
2.36
2.37
2.19
1.95
1.76
1.69
1.72
1.79
1.83
1.81
1.72
1.57
1.32
0.95
0.44
-0.18
-0.77
-1.21
-1.38
-1.30
-1.08
-0.88
-0.85
-1.01
-1.30
-1.63
-1.95
-2.26
-2.59
-2.92
-3.19
-3.32
-3.24
-2.97
-2.55
-2.06
-1.53
-0.97
-0.36
0.29
0.94
1.53
1.98
2.22
2.24
2.10
1.86
1.63
1.49
1.47
1.57
1.72
1.83
1.85
1.76
1.59
1.41
1.27
1.16
1.06
0.90
0.65
0.31
-0.03
-0.30
-0.43
-0.44
-0.39
-0.37
-0.47
-0.74
-1.16
-1.66
-2.13
-2.47
-2.61
-2.52
-2.22
-1.79
-1.28
-0.73
-0.14
0.48
1.07
1.57
1.89
1.98
1.86
1.64
1.41
1.23
1.11
0.98
0.81
0.55
0.22
-0.14
-0.46
-0.71
-0.88
-0.97
-0.99
-0.96
-0.90
-0.82
-0.78
-0.82
-1.01
-1.36
-1.83
-2.35
-2.82
-3.15
-3.29
-3.25
-3.10
-2.91
-2.72
-2.53
-2.26
-1.87
-1.32
-0.65
0.02
0.61
1.03
1.27
1.38
1.40
1.38
1.31
1.24
1.18
1.18
1.23
1.29
1.29
1.17
0.95
0.72
0.57
0.56
0.68
0.82
0.90
0.86
0.71
0.51
0.30
0.06
-0.24
-0.62
-1.09
-1.62
-2.16
-2.66
-3.09
-3.41
-3.60
-3.64
-3.53
-3.29
-2.94
-2.53
-2.10
-1.65
-1.16
-0.60
0.07
0.83
1.61
2.31
2.81
3.07
3.09
2.95
2.79
2.69
2.68
2.74
2.79
2.77
2.67
2.49
2.29
2.11
1.97
1.92
1.95
2.05
2.20
2.32
2.37
2.34
2.25
2.11
1.94
1.69
1.29
0.66
-0.20
-1.23
-2.33
-3.40
-4.38
-5.22
-5.86
-6.23
-6.28
-6.01
-5.51
-4.87
-4.19
-3.48
-2.71
-1.82
-0.85
0.10
0.87
1.34
1.51
1.47
1.40
1.43
1.61
1.87
2.08
2.09
1.81
1.27
0.59
-0.05
-0.50
-0.71
-0.72
-0.67
-0.67
-0.82
-1.12
-1.48
-1.80
-2.00
-2.11
-2.22
-2.44
-2.85
-3.43
-4.10
-4.71
-5.13
-5.26
-5.10
-4.69
-4.10
-3.43
-2.76
-2.18
-1.72
-1.37
-1.10
-0.81
-0.45
0.01
0.55
1.11
1.63
2.08
2.44
2.77
3.09
3.44
3.79
4.11
4.28
4.21
3.82
3.15
2.30
1.42
0.67
0.14
-0.16
-0.28
-0.30
-0.25
-0.17
-0.12
-0.13
-0.27
-0.59
-1.09
-1.71
-2.40
-3.07
-3.63
-4.02
-4.20
-4.12
-3.79
-3.21
-2.46
-1.59
-0.69
0.16
0.86
1.32
1.51
1.47
1.33
1.23
1.30
1.57
1.98
2.40
2.70
2.84
2.84
2.79
2.81
2.99
3.33
3.78
4.19
4.38
4.19
3.51
2.34
0.83
-0.79
-2.28
-3.43
-4.16
-4.46
-4.38
-3.95
-3.15
-1.90
-0.16
2.01
4.37
6.54
8.12
8.85
8.67
7.80
6.58
5.29
4.06
2.84
1.47
-0.22
-2.24
-4.48
-6.67
-8.52
-9.79
-10.41
-10.44
-10.07
-9.51
-8.92
-8.30
-7.51
-6.36
-4.71
-2.58
-0.16
2.26
4.46
6.32
7.78
8.77
9.17
8.82
7.66
5.81
3.55
1.22
-0.91
-2.74
-4.33
-5.77
-7.06
-8.11
-8.71
-8.74
-8.16
-7.10
-5.75
-4.33
-3.01
-1.87
-0.95
-0.18
0.52
1.18
1.80
2.33
2.73
3.02
3.25
3.49
3.76
4.00
4.06
3.84
3.31
2.59
1.85
1.30
1.03
1.04
1.25
1.54
1.88
2.22
2.54
2.78
2.82
2.57
2.01
1.22
0.38
-0.35
-0.86
-1.16
-1.39
-1.71
-2.20
-2.86
-3.57
-4.13
-4.39
-4.24
-3.67
-2.74
-1.60
-0.40
0.73
1.71
2.50
3.10
3.53
3.79
3.87
3.75
3.48
3.16
2.92
2.88
3.02
3.26
3.40
3.28
2.87
2.26
1.63
1.16
0.88
0.75
0.59
0.33
-0.07
-0.51
-0.86
-1.07
-1.17
-1.33
-1.66
-2.24
-2.97
-3.66
-4.13
-4.26
-4.07
-3.65
-3.06
-2.37
-1.56
-0.62
0.42
1.49
2.46
3.19
3.64
3.78
3.70
3.49
3.27
3.09
2.99
2.93
2.89
2.84
2.77
2.68
2.59
2.49
2.34
2.15
1.90
1.58
1.19
0.69
0.09
-0.56
-1.21
-1.76
-2.15
-2.41
-2.61
-2.84
-3.18
-3.59
-3.99
-4.29
-4.36
-4.17
-3.68
-2.91
-1.89
-0.73
0.47
1.58
2.49
3.17
3.65
4.06
4.52
5.12
5.84
6.58
7.20
7.58
7.69
7.61
7.43
7.26
7.10
6.93
6.65
6.22
5.65
4.98
4.28
3.56
2.82
2.02
1.17
0.27
-0.61
-1.42
-2.14
-2.80
-3.46
-4.19
-4.98
-5.75
-6.33
-6.58
-6.40
-5.79
-4.82
-3.63
-2.35
-1.09
0.07
1.04
1.76
2.20
2.37
2.37
2.28
2.19
2.16
2.18
2.25
2.36
2.47
2.58
2.63
2.56
2.32
1.89
1.30
0.64
0.01
-0.56
-1.07
-1.61
-2.26
-3.08
-4.02
-4.98
-5.84
-6.57
-7.19
-7.78
-8.38
-8.92
-9.26
-9.23
-8.76
-7.90
-6.77
-5.50
-4.12
-2.60
-0.89
0.96
2.80
4.41
5.60
6.26
6.43
6.20
5.71
5.12
4.55
4.09
3.78
3.58
3.43
3.23
2.93
2.57
2.19
1.84
1.53
1.23
0.92
0.56
0.10
-0.51
-1.34
-2.41
-3.65
-4.89
-5.92
-6.53
-6.64
-6.28
-5.55
-4.59
-3.50
-2.38
-1.28
-0.20
0.86
1.93
3.02
4.09
5.07
5.82
6.26
6.33
6.10
5.68
5.19
4.77
4.48
4.38
4.44
4.59
4.69
4.62
4.36
3.92
3.39
2.87
2.37
1.85
1.27
0.56
-0.28
-1.24
-2.29
-3.42
-4.56
-5.60
-6.39
-6.78
-6.69
-6.15
-5.27
-4.20
-3.07
-1.94
-0.86
0.20
1.24
2.26
3.24
4.16
4.95
5.55
5.93
6.06
6.00
5.83
5.67
5.56
5.49
5.40
5.20
4.89
4.55
4.29
4.24
4.37
4.56
4.66
4.52
4.11
3.48
2.71
1.85
0.86
-0.28
-1.59
-2.98
-4.34
-5.53
-6.45
-7.03
-7.22
-6.94
-6.16
-4.93
-3.41
-1.86
-0.59
0.17
0.31
-0.07
-0.75
-1.47
-1.99
-2.22
-2.19
-2.03
-1.87
-1.72
-1.48
-0.93
0.12
1.74
3.84
6.19
8.58
10.87
13.06
15.23
17.44
19.71
21.94
24.00
25.81
27.45
29.06
30.82
32.86
35.15
37.50
39.67
41.48
42.93
44.25
45.89
48.35
52.00
56.92
62.80
68.89
74.13
77.27
77.22
73.21
64.99
52.83
37.48
19.97
1.39
-17.24
-35.21
-52.28
-68.55
-84.37
-99.89
-114.73
-127.75
-137.26
-141.54
-139.49
-131.13
-117.65
-101.08
-83.70
-67.47
-53.75
-43.31
-36.39
-32.81
-31.80
-31.99
-31.50
-28.51
-22.10
-12.80
-2.67
5.55
9.63
8.96
4.91
0.14
-2.56
-1.52
3.35
10.81
19.20
27.26
34.51
41.11
47.41
53.59
59.57
65.26
70.80
76.61
83.28
91.19
100.23
109.69
118.54
125.84
131.13
134.60
136.95
139.06
141.58
144.72
148.27
151.73
154.54
156.35
157.15
157.33
157.70
159.35
163.43
170.66
180.77
192.07
201.54
205.43
200.48
184.99
159.50
126.47
89.41
51.63
15.41
-18.28
-49.40
-78.41
-105.92
-132.63
-159.25
-186.19
-213.15
-238.71
-260.53
-275.96
-282.94
-280.60
-269.31
-250.13
-224.14
-192.15
-154.85
-113.50
-70.46
-29.33
6.05
32.81
50.14
59.32
62.73
62.55
59.61
53.05
40.84
21.22
-6.41
-41.33
-81.90
-126.01
-170.85
-212.27
-244.48
-261.27
-257.28
-229.94
-180.59
-114.22
-38.08
40.19
114.03
178.49
228.68
260.88
273.03
265.24
239.76
200.43
152.48
102.44
57.72
22.43
-1.88
-16.98
-27.52
-39.55
-58.59
-87.63
-126.01
-170.48
-222.20
-284.15
-359.37
-447.49
-542.27
-631.69
-700.63
-735.32
-728.67
-689.36
-635.18
-586.60
-558.52
-555.68
-573.64
-602.83
-633.46
-625.18
-553.54
-415.41
-232.72
-39.56
136.83
284.08
401.17
491.69
559.21
600.98
615.29
604.42
575.94
540.82
508.54
484.11
468.00
457.48
444.08
420.99
385.54
340.33
291.55
245.04
204.18
169.51
142.45
118.65
94.12
67.18
39.15
13.45
-6.94
-20.66
-28.06
-30.73
-31.88
-33.74
-36.84
-42.51
-47.16
-47.80
-42.93
-32.61
-18.30
-2.09
14.07
29.05
44.31
59.02
72.01
81.84
86.32
83.78
73.53
55.44
30.58
1.04
-30.92
-63.51
-96.03
-125.42
-151.77
-175.06
-196.20
-216.06
-234.94
-251.89
-263.94
-266.22
-253.44
-226.31
-182.99
-126.62
-63.93
-2.51
51.95
97.15
133.79
163.97
186.02
201.18
210.28
214.53
215.63
215.19
213.87
210.99
205.01
194.71
181.18
166.25
152.46
141.95
135.57
132.96
132.69
132.82
130.72
124.25
111.41
92.22
69.99
50.83
41.16
44.13
57.09
71.87
78.77
70.80
47.40
14.63
-18.12
-42.95
-56.55
-60.54
-59.18
-56.14
-52.93
-49.08
-43.51
-35.92
-27.57
-20.65
-16.94
-17.00
-19.86
-23.69
-26.93
-28.78
-29.54
-30.19
-31.47
-33.49
-35.66
-37.06
-36.93
-35.14
-32.22
-29.14
-26.98
-26.26
-27.23
-29.82
-34.01
-39.88
-47.54
-57.08
-67.89
-80.69
-95.40
-110.61
-123.10
-128.30
-121.89
-102.12
-71.25
-35.34
-2.13
22.28
35.59
39.51
38.07
35.14
32.72
30.77
28.41
25.14
21.67
19.33
19.03
20.57
22.79
24.13
23.48
20.75
16.76
12.86
10.26
9.44
10.03
11.10
11.58
10.77
8.66
5.77
2.92
0.75
-0.48
-1.01
-1.31
-1.84
-2.87
-4.32
-5.96
-7.55
-8.98
-10.34
-11.78
-13.39
-15.05
-16.54
-17.64
-18.26
-18.62
-19.10
-20.05
-21.58
-23.34
-24.63
-24.68
-22.97
-19.47
-14.67
-9.29
-3.99
0.99
5.87
11.30
17.88
26.09
36.20
48.16
61.36
74.26
84.29
88.36
83.94
70.37
49.54
25.53
3.16
-13.87
-24.09
-28.34
-28.70
-27.13
-24.68
-21.47
-17.41
-12.86
-8.74
-6.12
-5.63
-7.09
-9.61
-12.03
-13.38
-13.32
-12.05
-10.16
-8.28
-6.89
-6.12
-5.77
-5.39
-4.55
-3.01
-0.83
1.58
3.68
4.90
4.92
3.79
2.09
0.59
0.02
0.83
2.99
6.10
9.70
13.57
17.97
23.56
30.81
39.56
48.89
57.35
63.55
66.55
66.02
61.12
51.29
35.80
14.14
-13.36
-44.80
-76.68
-104.60
-124.35
-133.14
-130.13
-116.40
-94.12
-65.69
-33.16
1.60
36.39
68.40
94.52
112.45
121.63
123.76
122.12
120.00
118.83
117.36
112.31
100.39
80.66
55.53
30.18
10.47
0.48
1.01
9.46
21.03
30.55
33.93
28.87
14.88
-7.00
-34.36
-63.72
-90.81
-111.28
-121.82
-121.17
-110.74
-94.30
-76.88
-63.09
-55.70
-54.84
-58.28
-62.51
-64.25
-61.64
-54.68
-44.88
-34.34
-24.71
-16.73
-10.32
-5.08
-0.85
2.09
3.26
2.38
-0.32
-4.20
-8.61
-13.30
-18.57
-25.02
-33.12
-42.73
-53.06
-62.86
-70.89
-76.36
-79.08
-79.44
-78.12
-75.87
-73.30
-70.75
-68.25
-65.53
-62.15
-57.53
-51.24
-43.17
-33.79
-24.30
-16.45
-12.10
-12.47
-17.51
-25.70
-34.52
-41.23
-43.86
-41.71
-35.16
-25.11
-12.38
2.46
18.81
35.33
49.62
58.56
59.36
50.66
33.19
9.60
-16.56
-41.78
-63.33
-79.22
-88.21
-89.73
-84.24
-73.63
-60.91
-49.04
-39.30
-30.57
-20.17
-6.18
10.44
25.57
33.90
32.04
20.71
4.40
-11.37
-23.31
-32.00
-40.88
-53.13
-68.92
-84.83
-96.07
-99.89
-97.93
-95.63
-99.22
-112.08
-132.65
-155.37
-173.60
-183.08
-183.52
-177.67
-168.86
-158.72
-146.82
-132.07
-114.50
-95.89
-78.85
-65.17
-54.61
-45.21
-34.63
-21.52
-5.81
11.84
30.88
51.20
72.74
95.01
117.01
137.86
157.36
176.03
194.35
211.91
227.01
237.26
240.77
237.04
227.17
213.19
197.17
180.49
163.74
147.04
130.50
114.36
98.93
84.39
70.68
57.60
45.15
33.68
24.00
17.07
13.73
14.37
18.93
26.88
37.35
49.17
60.89
70.90
77.78
80.65
79.54
75.37
69.70
64.07
59.45
55.94
52.96
49.71
45.63
40.67
35.21
29.78
24.78
20.30
16.11
11.88
7.33
2.30
-3.18
-8.93
-14.68
-20.04
-24.54
-27.71
-29.16
-28.70
-26.42
-22.66
-17.90
-12.71
-7.59
-2.96
0.92
3.97
6.25
7.97
9.37
10.63
11.80
12.78
13.42
13.61
13.39
12.88
12.26
11.65
11.05
10.40
9.60
8.65
7.57
6.42
5.23
3.91
2.34
0.43
-1.88
-4.53
-7.42
-10.41
-13.41
-16.29
-18.84
-20.77
-21.72
-21.40
-19.63
-16.46
-12.14
-7.06
-1.64
3.74
8.80
13.39
17.45
20.98
