1660939761.00
64.000000
-0.00
-0.00
-0.00
-0.00
-0.00
-0.00
-0.00
-0.00
-0.00
-0.00
0.00
0.01
0.01
-0.00
-0.03
-0.05
-0.05
0.00
0.13
0.36
0.66
1.01
1.37
1.72
2.06
2.40
2.79
3.25
3.81
4.44
5.10
5.73
6.32
6.89
7.51
8.24
9.14
10.29
11.58
12.86
14.03
15.02
15.91
16.91
18.25
20.09
22.62
25.62
28.79
31.82
34.58
37.17
39.97
43.46
47.95
53.78
60.54
67.63
74.47
80.77
86.70
92.89
100.16
109.02
119.88
132.07
144.61
156.54
167.43
177.56
187.90
200.00
212.57
227.62
245.35
265.47
286.60
306.01
319.82
323.98
315.53
293.61
260.21
218.48
172.11
123.99
75.89
28.62
-17.20
-60.81
-101.43
-138.39
-172.15
-203.98
-235.64
-268.70
-303.73
-339.72
-373.73
-401.65
-419.16
-423.43
-414.27
-394.22
-367.57
-338.70
-310.57
-284.31
-259.64
-235.89
-212.99
-191.50
-172.19
-155.32
-140.40
-126.39
-112.30
-97.76
-83.03
-68.97
-56.46
-46.01
-37.56
-30.54
-24.20
-17.87
-11.30
-4.66
1.56
6.81
10.77
13.51
15.43
17.09
18.93
21.09
23.36
25.36
26.71
27.29
27.22
26.84
26.47
26.31
26.36
26.48
26.47
26.15
25.48
24.52
23.37
22.17
21.05
20.09
19.34
18.80
18.43
18.16
17.89
17.55
17.11
16.55
15.94
15.36
14.91
14.64
14.53
14.49
14.36
14.03
13.45
12.69
11.92
11.29
10.88
10.70
10.63
10.57
10.47
10.33
10.22
10.16
10.16
10.14
10.02
9.76
9.39
8.99
8.60
8.25
7.87
7.41
6.87
6.30
5.78
5.39
5.11
4.88
4.60
4.19
3.69
3.18
2.77
2.49
2.34
2.22
2.07
1.82
1.45
0.93
0.27
-0.53
-1.42
-2.30
-3.06
-3.66
-4.11
-4.52
-4.99
-5.59
-6.29
-7.02
-7.67
-8.20
-8.61
-8.93
-9.19
-9.39
-9.51
-9.53
-9.43
-9.25
-8.98
-8.66
-8.32
-7.99
-7.72
-7.50
-7.28
-6.98
-6.51
-5.82
-4.93
-3.92
-2.90
-1.95
-1.13
-0.45
0.08
0.47
0.70
0.77
0.70
0.56
0.45
0.45
0.63
0.95
1.35
1.73
2.01
2.18
2.26
2.36
2.57
2.92
3.40
3.88
4.24
4.37
4.25
3.95
3.60
3.35
3.27
3.40
3.70
4.12
4.59
5.03
5.38
5.54
5.46
5.15
4.69
4.22
3.88
3.74
3.83
4.05
4.32
4.54
4.67
4.69
4.59
4.38
4.10
3.78
3.50
3.33
3.29
3.40
3.61
3.85
4.05
4.16
4.13
3.95
3.63
3.24
2.84
2.51
2.32
2.25
2.26
2.27
2.24
2.18
2.11
2.08
2.10
2.14
2.14
2.04
1.83
1.55
1.24
0.94
0.67
0.44
0.27
0.19
0.25
0.45
0.75
1.08
1.36
1.52
1.56
1.53
1.46
1.40
1.34
1.26
1.16
1.06
1.00
1.02
1.14
1.33
1.53
1.66
1.66
1.54
1.35
1.21
1.21
1.40
1.73
2.09
2.33
2.36
2.19
1.90
1.64
1.48
1.40
1.31
1.13
0.87
0.61
0.47
0.53
0.78
1.11
1.39
1.54
1.54
1.43
1.30
1.19
1.10
1.04
0.97
0.91
0.85
0.79
0.74
0.67
0.61
0.56
0.54
0.56
0.56
0.47
0.25
-0.11
-0.49
-0.74
-0.74
-0.47
-0.01
0.48
0.85
1.03
1.04
0.96
0.86
0.79
0.74
0.73
0.74
0.78
0.86
0.94
0.97
0.91
0.75
0.54
0.34
0.19
0.14
0.16
0.19
0.20
0.14
0.02
-0.15
-0.30
-0.37
-0.30
-0.07
0.30
0.75
1.20
1.57
1.77
1.77
1.58
1.26
0.91
0.67
0.62
0.77
1.05
1.31
1.44
1.33
1.00
0.57
0.17
-0.04
-0.04
0.10
0.23
0.22
0.03
-0.25
-0.46
-0.47
-0.27
0.04
0.27
0.31
0.14
-0.10
-0.25
-0.23
-0.06
0.16
0.29
0.32
0.27
0.27
0.39
0.62
0.89
1.07
1.08
0.91
0.66
0.40
0.25
0.21
0.28
0.40
0.51
0.61
0.69
0.77
0.84
0.87
0.85
0.77
0.64
0.49
0.35
0.23
0.17
0.14
0.14
0.13
0.11
0.07
0.04
0.02
0.04
0.10
0.19
0.32
0.49
0.68
0.89
1.07
1.15
1.07
0.83
0.44
-0.03
-0.50
-0.87
-1.08
-1.08
-0.87
-0.50
-0.05
0.38
0.71
0.92
1.01
1.00
0.89
0.71
0.47
0.22
0.02
-0.07
-0.06
0.02
0.11
0.15
0.12
0.05
-0.03
-0.12
-0.20
-0.26
-0.30
-0.27
-0.19
-0.08
0.02
0.03
-0.05
-0.16
-0.20
-0.10
0.17
0.55
0.93
1.17
1.22
1.05
0.74
0.36
-0.03
-0.38
-0.64
-0.77
-0.76
-0.60
-0.36
-0.12
0.05
0.13
0.15
0.18
0.30
0.51
0.73
0.85
0.79
0.52
0.12
-0.31
-0.62
-0.70
-0.55
-0.21
0.20
0.53
0.69
0.66
0.52
0.39
0.37
0.48
0.65
0.78
0.81
0.71
0.56
0.42
0.30
0.22
0.11
-0.03
-0.19
-0.32
-0.35
-0.23
0.00
0.25
0.43
0.43
0.25
-0.06
-0.38
-0.58
-0.59
-0.44
-0.23
-0.10
-0.09
-0.21
-0.34
-0.33
-0.12
0.26
0.66
0.93
0.95
0.76
0.49
0.30
0.32
0.52
0.83
1.10
1.23
1.16
0.92
0.55
0.12
-0.29
-0.60
-0.79
-0.85
-0.82
-0.75
-0.69
-0.64
-0.56
-0.44
-0.31
-0.19
-0.11
-0.07
-0.04
0.03
0.18
0.37
0.53
0.56
0.40
0.03
-0.45
-0.90
-1.19
-1.23
-1.01
-0.64
-0.23
0.09
0.25
0.26
0.16
0.03
-0.03
0.01
0.16
0.37
0.56
0.63
0.57
0.40
0.21
0.06
0.03
0.12
0.32
0.58
0.87
1.16
1.39
1.49
1.41
1.11
0.63
0.09
-0.40
-0.72
-0.84
-0.79
-0.66
-0.53
-0.44
-0.40
-0.36
-0.28
-0.16
-0.04
0.01
-0.04
-0.19
-0.36
-0.50
-0.52
-0.41
-0.21
0.00
0.19
0.33
0.43
0.52
0.61
0.70
0.74
0.69
0.51
0.23
-0.11
-0.43
-0.63
-0.67
-0.58
-0.43
-0.31
-0.25
-0.22
-0.19
-0.12
-0.00
0.13
0.24
0.31
0.36
0.39
0.39
0.32
0.14
-0.17
-0.54
-0.87
-1.03
-0.94
-0.62
-0.16
0.30
0.63
0.76
0.69
0.49
0.26
0.07
-0.03
-0.04
0.00
0.07
0.12
0.12
0.09
0.04
0.01
0.03
0.09
0.15
0.16
0.08
-0.05
-0.14
-0.10
0.11
0.43
0.77
1.02
1.10
1.04
0.93
0.84
0.78
0.69
0.50
0.13
-0.36
-0.88
-1.27
-1.41
-1.30
-1.00
-0.68
-0.44
-0.36
-0.45
-0.63
-0.82
-0.97
-1.03
-1.01
-0.90
-0.73
-0.52
-0.29
-0.07
0.10
0.19
0.21
0.17
0.14
0.16
0.24
0.36
0.41
0.33
0.09
-0.26
-0.57
-0.72
-0.64
-0.39
-0.10
0.06
-0.00
-0.28
-0.65
-1.01
-1.29
-1.53
-1.85
-2.32
-2.92
-3.50
-3.88
-3.93
-3.66
-3.22
-2.83
-2.67
-2.81
-3.16
-3.52
-3.68
-3.48
-2.89
-2.03
-1.19
-0.81
-1.41
-3.42
-6.98
-11.83
-17.31
-22.67
-27.38
-31.41
-35.24
-39.54
-44.81
-51.03
-57.69
-64.09
-69.70
-74.48
-78.88
-83.52
-88.84
-94.90
-101.31
-107.44
-112.72
-116.83
-119.93
-122.65
-126.04
-131.22
-139.17
-150.42
-164.79
-181.19
-197.55
-211.00
-218.29
-216.66
-204.53
-181.97
-150.62
-112.92
-71.08
-26.39
20.80
70.23
120.55
168.73
210.55
241.96
260.79
267.61
265.44
258.38
249.93
241.98
234.85
228.22
222.18
217.67
216.09
218.42
224.39
232.47
240.45
246.52
250.07
251.83
253.45
256.67
262.55
271.01
280.73
289.31
293.87
291.62
280.65
260.46
232.08
197.59
159.38
119.15
77.40
33.48
-13.49
-63.50
-114.64
-163.08
-204.07
-233.51
-249.51
-252.96
-247.05
-235.85
-222.75
-209.54
-196.51
-183.29
-169.81
-156.74
-145.16
-135.81
-128.57
-122.38
-115.84
-107.93
-98.52
-88.39
-78.77
-70.74
-64.71
-60.33
-56.71
-52.92
-48.35
-42.98
-37.29
-31.98
-27.62
-24.39
-22.07
-20.15
-18.14
-15.74
-12.97
-10.11
-7.53
-5.52
-4.20
-3.45
-3.07
-2.78
-2.40
-1.84
-1.16
-0.51
-0.06
0.08
-0.06
-0.31
-0.49
-0.45
-0.18
0.18
0.45
0.47
0.21
-0.24
-0.70
-1.03
-1.14
-1.06
-0.85
-0.59
-0.34
-0.10
0.17
0.46
0.77
1.01
1.08
0.91
0.50
-0.07
-0.66
-1.15
-1.46
-1.56
-1.49
-1.28
-0.96
-0.52
0.04
0.67
1.30
1.84
2.18
2.31
2.24
2.01
1.66
1.21
0.67
0.09
-0.48
-0.95
-1.28
-1.49
-1.56
-1.51
-1.27
-0.80
-0.08
0.81
1.71
2.43
2.87
2.99
2.90
2.73
2.62
2.58
2.54
2.41
2.10
1.61
1.00
0.40
-0.11
-0.47
-0.72
-0.90
-1.05
-1.20
-1.33
-1.40
-1.41
-1.34
-1.23
-1.09
-0.95
-0.85
-0.81
-0.86
-1.00
-1.19
-1.42
-1.64
-1.82
-1.91
-1.83
-1.50
-0.91
-0.10
0.78
1.52
1.95
2.03
1.83
1.52
1.27
1.19
1.27
1.44
1.62
1.77
1.85
1.86
1.77
1.55
1.23
0.87
0.55
0.33
0.14
-0.16
-0.71
-1.61
-2.78
-4.04
-5.15
-5.93
-6.31
-6.35
-6.15
-5.76
-5.24
-4.60
-3.85
-3.06
-2.27
-1.47
-0.57
0.55
1.93
3.53
5.16
6.57
7.55
8.02
7.98
7.54
6.79
5.83
4.70
3.47
2.25
1.16
0.29
-0.29
-0.62
-0.76
-0.81
-0.84
-0.87
-0.89
-0.85
-0.72
-0.55
-0.44
-0.49
-0.78
-1.28
-1.90
-2.50
-2.92
-3.10
-2.99
-2.64
-2.11
-1.47
-0.85
-0.38
-0.16
-0.21
-0.48
-0.78
-0.90
-0.67
-0.06
0.82
1.79
2.62
3.22
3.58
3.82
4.04
4.25
4.35
4.12
3.43
2.22
0.64
-1.08
-2.69
-4.02
-5.01
-5.66
-5.99
-6.04
-5.82
-5.37
-4.78
-4.14
-3.51
-2.87
-2.10
-1.07
0.28
1.93
3.73
5.47
6.94
8.00
8.61
8.73
8.37
7.49
6.15
4.42
2.53
0.70
-0.86
-2.04
-2.83
-3.32
-3.56
-3.61
-3.47
-3.13
-2.65
-2.17
-1.82
-1.71
-1.85
-2.17
-2.52
-2.81
-2.97
-3.05
-3.11
-3.16
-3.21
-3.22
-3.14
-2.99
-2.80
-2.64
-2.57
-2.59
-2.63
-2.56
-2.27
-1.68
-0.82
0.19
1.23
2.20
3.11
4.01
4.93
5.81
6.46
6.62
6.14
5.04
3.54
1.97
0.65
-0.28
-0.87
-1.28
-1.72
-2.25
-2.83
-3.28
-3.42
-3.10
-2.27
-0.94
0.80
2.81
4.90
6.84
8.42
9.44
9.82
9.55
8.74
7.50
5.91
4.03
1.92
-0.31
-2.44
-4.20
-5.37
-5.82
-5.65
-5.05
-4.31
-3.63
-3.12
-2.75
-2.46
-2.25
-2.15
-2.22
-2.47
-2.80
-3.05
-3.05
-2.72
-2.05
-1.17
-0.25
0.56
1.13
1.43
1.47
1.33
1.13
0.98
0.97
1.15
1.47
1.83
2.13
2.29
2.36
2.43
2.63
3.04
3.59
4.08
4.30
4.10
3.47
2.53
1.47
0.41
-0.62
-1.69
-2.80
-3.92
-4.92
-5.67
-6.10
-6.25
-6.24
-6.15
-5.99
-5.71
-5.25
-4.60
-3.91
-3.39
-3.22
-3.44
-3.91
-4.32
-4.33
-3.76
-2.64
-1.18
0.35
1.75
2.96
3.97
4.77
5.29
5.44
5.19
4.62
3.94
3.38
3.05
2.90
2.77
2.51
2.04
1.40
0.71
0.10
-0.36
-0.66
-0.82
-0.88
-0.84
-0.72
-0.52
-0.28
-0.10
-0.07
-0.30
-0.79
-1.47
-2.18
-2.76
-3.13
-3.33
-3.49
-3.78
-4.28
-4.93
-5.55
-5.89
-5.83
-5.42
-4.91
-4.70
-5.19
-6.55
-8.64
-10.95
-12.83
-13.74
-13.56
-12.71
-12.04
-12.44
-14.38
-17.68
-21.46
-24.50
-25.82
-25.18
-23.28
-21.54
-21.47
-23.90
-28.43
-33.53
-37.10
-37.51
-34.43
-29.17
-24.26
-22.80
-27.38
-39.10
-56.92
-77.23
-94.03
-99.97
-88.56
-56.80
-7.38
51.00
105.50
143.02
154.48
137.82
98.33
46.41
-6.29
-50.63
-82.19
-101.31
-111.51
-117.16
-121.84
-127.41
-133.95
-140.29
-144.36
-143.58
-135.26
-117.17
-87.85
-47.16
3.45
61.12
121.90
181.34
235.06
279.25
310.81
327.38
327.37
310.19
276.86
230.70
177.46
124.65
79.74
48.03
31.13
26.69
29.76
34.97
38.41
38.56
36.01
32.38
29.39
28.09
28.66
30.23
30.92
27.92
18.18
-0.57
-28.57
-63.29
-99.57
-130.88
-151.32
-157.53
-149.54
-130.34
-104.24
-75.14
-45.66
-17.69
6.54
23.85
30.49
23.77
3.79
-25.50
-56.97
-82.12
-93.51
-86.76
-61.47
-21.23
27.00
73.93
109.88
127.13
122.31
97.52
59.67
17.82
-20.00
-49.10
-68.49
-79.50
-84.09
-83.62
-79.09
-71.82
-64.23
-59.28
-59.12
-63.88
-71.30
-77.84
-80.46
-78.26
-72.89
-67.64
-65.83
-69.38
-78.22
-90.53
-103.28
-112.89
-115.90
-109.81
-94.03
-70.52
-43.61
-18.68
-0.33
9.35
11.14
7.64
1.57
-5.70
-14.46
-25.69
-39.58
-54.37
-66.36
-71.27
-66.08
-50.62
-28.05
-3.92
15.94
27.59
30.41
27.11
22.41
21.06
26.11
38.16
55.72
76.16
96.85
115.82
132.09
145.49
156.42
165.50
173.20
179.77
185.37
190.26
194.91
199.96
205.92
212.79
219.99
226.41
231.04
233.48
234.27
234.60
235.54
236.96
237.05
232.61
220.26
197.93
165.79
126.01
81.49
34.52
-13.68
-62.39
-110.04
-153.53
-188.56
-211.32
-220.35
-217.30
-206.34
-192.29
-178.71
-166.98
-156.68
-146.73
-136.54
-126.41
-117.11
-109.22
-102.69
-96.85
-90.88
-84.26
-76.96
-69.52
-62.60
-56.72
-52.00
-48.16
-44.70
-41.12
-37.16
-32.90
-28.68
-24.88
-21.75
-19.28
-17.28
-15.42
-13.48
-11.40
-9.28
-7.36
-5.82
-4.74
-4.10
-3.73
-3.46
-3.12
-2.61
-1.95
-1.24
-0.63
-0.24
-0.13
-0.23
-0.42
-0.56
-0.57
-0.41
-0.15
0.17
0.46
0.69
0.84
0.89
0.84
0.69
0.50
0.31
0.20
0.22
0.35
0.53
0.67
0.71
0.62
0.46
0.30
0.20
0.19
0.26
0.35
0.41
0.42
0.36
0.25
0.12
-0.01
-0.10
-0.10
0.01
0.22
0.46
0.62
0.60
0.40
0.08
-0.24
-0.45
-0.51
-0.45
-0.36
-0.31
-0.28
-0.22
-0.05
0.24
0.54
0.73
0.67
0.34
-0.17
-0.66
-0.95
-0.97
-0.75
-0.48
-0.34
-0.49
-0.92
-1.55
-2.22
-2.80
-3.19
-3.37
-3.36
-3.23
-3.06
-2.92
-2.87
-2.94
-3.13
-3.38
-3.62
-3.80
-3.92
-4.06
-4.34
-4.88
-5.75
-6.87
-8.10
-9.22
-10.15
-10.93
-11.76
-12.87
-14.38
-16.24
-18.25
-20.17
-21.84
-23.29
-24.76
-26.59
-29.05
-32.18
-35.77
-39.38
-42.49
-44.89
-46.67
-48.31
-50.38
-53.24
-56.85
-60.96
-65.34
-69.89
-74.32
-77.76
-78.71
-75.42
-66.83
-53.22
-36.18
-17.74
0.77
19.27
38.54
58.90
79.22
96.76
108.39
112.18
108.58
100.29
90.90
83.28
78.49
75.90
74.04
71.53
67.65
62.24
55.39
47.15
37.57
26.98
16.09
5.90
-2.67
-9.07
-13.33
-15.90
-17.34
-18.10
-18.48
-18.73
-19.21
-20.44
-22.81
-26.34
-30.44
-33.92
-35.44
-34.07
-29.72
-23.32
-16.53
-11.23
-8.88
-10.24
-15.16
-22.65
-30.97
-37.78
-40.53
-37.09
-26.49
-9.56
11.09
31.80
49.12
60.92
66.90
68.32
67.17
65.26
63.61
62.49
61.64
60.48
58.20
53.74
46.12
34.91
20.67
5.12
-9.48
-21.05
-28.62
-32.40
-33.44
-32.82
-30.92
-27.34
-21.34
-12.52
-0.97
13.11
29.98
50.75
76.91
109.38
147.42
187.97
225.85
254.92
269.58
266.22
243.96
204.90
153.72
96.97
42.08
-3.88
-35.92
-52.65
-56.89
-54.76
-53.30
-57.69
-69.33
-85.68
-102.07
-114.26
