1660752313.00
64.000000
-0.00
-0.00
-0.00
-0.00
-0.00
-0.00
-0.00
-0.00
-0.00
-0.00
0.00
0.01
0.01
-0.00
-0.03
-0.05
-0.05
0.00
0.13
0.36
0.66
1.01
1.37
1.72
2.06
2.40
2.79
3.24
3.80
4.42
5.06
5.66
6.20
6.68
7.15
7.68
8.31
9.14
10.09
11.04
11.88
12.56
13.14
13.76
14.65
15.96
17.91
20.32
22.90
25.38
27.58
29.57
31.68
34.32
37.81
42.54
48.15
54.10
59.83
64.97
69.58
74.14
79.34
85.71
93.76
103.00
112.62
121.73
129.77
136.75
143.30
150.75
157.77
166.64
177.95
191.79
206.97
220.57
228.25
225.36
208.53
176.87
132.76
80.05
23.07
-34.94
-92.44
-149.16
-205.23
-260.37
-313.74
-363.87
-409.83
-450.91
-486.50
-515.74
-537.23
-549.22
-549.96
-538.37
-514.21
-478.67
-433.88
-382.45
-327.02
-269.84
-212.63
-156.66
-102.95
-52.37
-5.91
35.57
71.42
101.35
125.52
144.42
158.74
169.17
176.33
180.62
182.33
181.74
179.13
174.85
169.29
162.84
155.80
148.41
140.80
133.08
125.32
117.60
109.98
102.51
95.20
88.05
81.05
74.23
67.67
61.45
55.66
50.33
45.41
40.75
36.20
31.68
27.21
22.94
19.08
15.83
13.22
11.09
9.13
7.01
4.53
1.75
-1.02
-3.35
-4.89
-5.57
-5.68
-5.77
-6.42
-7.93
-10.23
-12.80
-14.94
-16.19
-16.38
-15.85
-15.22
-15.09
-15.88
-17.80
-20.93
-25.05
-29.37
-32.34
-31.97
-26.59
-15.87
-1.33
14.00
26.74
34.60
37.30
36.36
34.02
32.01
30.84
29.91
28.38
25.92
22.91
20.18
18.38
17.56
17.24
16.81
15.74
14.07
12.21
10.71
9.91
9.81
10.04
10.07
9.47
8.05
5.97
3.61
1.44
-0.13
-0.89
-0.85
-0.21
0.76
1.82
2.85
3.90
5.04
6.31
7.61
8.79
9.69
10.23
10.53
10.77
11.18
11.87
12.83
13.96
15.10
15.99
16.33
15.79
14.11
11.27
7.55
3.62
0.05
-2.67
-4.36
-5.20
-5.57
-5.92
-6.56
-7.63
-9.12
-10.87
-12.61
-14.07
-15.03
-15.39
-15.25
-14.84
-14.39
-14.04
-13.73
-13.27
-12.43
-11.14
-9.52
-7.86
-6.47
-5.55
-5.14
-5.06
-5.07
-4.96
-4.69
-4.39
-4.27
-4.46
-4.88
-5.23
-5.16
-4.42
-3.04
-1.29
0.41
1.79
2.75
3.42
4.02
4.75
5.73
6.91
8.26
9.71
11.25
12.91
14.63
16.39
18.05
19.45
20.35
20.42
19.31
16.70
12.42
6.49
-0.82
-8.91
-16.84
-23.67
-28.69
-31.59
-32.52
-31.95
-30.51
-28.78
-27.10
-25.52
-23.85
-21.75
-18.94
-15.33
-11.15
-6.95
-3.42
-1.29
-1.03
-2.79
-6.25
-10.66
-15.04
-18.40
-20.05
-19.71
-17.59
-14.18
-10.07
-5.74
-1.46
2.63
6.45
9.97
13.13
15.93
18.37
20.36
21.74
22.31
21.87
20.32
17.71
14.18
9.91
5.13
0.10
-4.77
-8.92
-11.74
-12.80
-11.94
-9.45
-5.95
-2.14
1.36
4.30
6.72
8.88
10.99
13.06
14.83
15.94
16.13
15.52
14.53
13.78
13.72
14.45
15.69
16.96
17.85
18.22
18.17
17.86
17.40
16.70
15.56
13.84
11.60
9.13
6.85
5.09
3.98
3.38
2.91
2.17
0.76
-1.41
-4.07
-6.56
-7.94
-7.32
-4.18
1.26
8.00
14.39
18.56
18.90
14.44
5.08
-8.36
-24.28
-40.57
-55.01
-65.78
-71.76
-72.79
-69.48
-62.91
-54.23
-44.32
-33.83
-23.24
-12.99
-3.61
4.44
10.83
15.46
18.46
20.06
20.49
19.94
18.67
17.04
15.60
15.03
15.87
18.28
21.81
25.48
28.13
28.86
27.44
24.40
20.78
17.67
15.76
15.16
15.49
16.08
16.27
15.48
13.33
9.65
4.59
-1.33
-7.23
-12.04
-14.88
-15.31
-13.48
-10.00
-5.66
-1.13
3.24
7.43
11.61
16.00
20.64
25.30
29.46
32.40
33.40
31.99
28.12
22.19
14.99
7.43
0.36
-5.64
-10.24
-13.36
-15.06
-15.53
-15.08
-14.10
-12.98
-12.02
-11.41
-11.11
-10.97
-10.82
-10.52
-10.06
-9.55
-9.19
-9.16
-9.57
-10.32
-11.05
-11.21
-10.15
-7.39
-2.76
3.44
10.61
17.99
24.95
31.10
36.29
40.41
43.41
45.33
46.60
48.15
51.30
57.19
66.07
76.71
86.50
92.27
91.49
83.27
68.67
50.23
30.96
13.43
-0.78
-11.12
-17.80
-21.54
-23.39
-24.62
-26.56
-30.25
-36.23
-44.34
-53.88
-63.87
-73.26
-81.15
-86.82
-89.75
-89.71
-86.83
-81.66
-75.05
-67.93
-61.02
-54.66
-48.83
-43.32
-37.97
-32.94
-28.67
-25.81
-24.85
-25.83
-28.19
-30.81
-32.37
-31.83
-28.83
-23.86
-17.97
-12.37
-7.89
-4.66
-2.12
0.78
5.22
12.08
21.54
32.70
43.47
50.76
51.23
42.50
24.32
-0.86
-28.33
-52.52
-68.86
-75.23
-72.37
-63.15
-51.15
-39.25
-29.01
-20.83
-14.56
-10.16
-7.88
-7.97
-10.26
-13.85
-17.38
-19.49
-19.42
-17.32
-14.06
-10.77
-8.34
-7.02
-6.52
-6.19
-5.53
-4.39
-3.11
-2.33
-2.76
-4.84
-8.60
-13.62
-19.26
-24.77
-29.48
-32.82
-34.28
-33.42
-29.85
-23.52
-14.78
-4.54
6.02
15.77
23.98
30.48
35.58
39.84
43.71
47.41
50.88
53.92
56.25
57.57
57.59
56.03
52.75
47.80
41.52
34.51
27.54
21.36
16.46
13.03
10.82
9.36
8.07
6.57
4.85
3.15
1.86
1.19
1.01
0.86
0.22
-1.13
-2.92
-4.39
-4.60
-2.83
1.08
6.67
13.02
19.12
24.23
28.03
30.55
31.99
32.52
32.24
31.14
29.31
26.98
24.45
21.97
19.68
17.50
15.27
12.88
10.33
7.73
5.31
3.25
1.67
0.58
-0.12
-0.55
-0.91
-1.36
-2.02
-3.01
-4.34
-5.98
-7.72
-9.26
-10.17
-10.01
-8.54
-5.79
-2.12
1.87
5.56
8.44
10.27
11.01
10.75
9.64
7.81
5.36
2.44
-0.68
-3.58
-5.73
-6.62
-6.02
-4.08
-1.36
1.38
3.53
4.80
5.45
5.95
6.76
8.02
9.42
10.31
9.93
7.71
3.38
-2.89
-10.49
-18.44
-25.52
-30.49
-32.37
-30.72
-25.79
-18.42
-9.85
-1.35
5.99
11.53
15.03
16.55
16.35
14.70
11.92
8.40
4.63
1.19
-1.38
-2.76
-2.93
-2.25
-1.22
-0.37
-0.05
-0.31
-1.02
-1.95
-2.91
-3.84
-4.81
-5.96
-7.35
-8.97
-10.58
-11.78
-12.08
-11.05
-8.46
-4.44
0.55
5.80
10.64
14.59
17.47
19.38
20.55
21.14
21.23
20.79
19.78
18.22
16.20
13.83
11.19
8.33
5.28
2.13
-1.00
-3.94
-6.54
-8.71
-10.37
-11.52
-12.22
-12.60
-12.88
-13.31
-14.13
-15.43
-17.08
-18.73
-19.88
-20.05
-18.89
-16.24
-12.15
-6.81
-0.68
5.62
11.27
15.52
17.85
18.20
17.01
15.02
12.92
11.11
9.57
8.00
6.13
3.92
1.69
-0.10
-1.05
-1.07
-0.43
0.43
1.06
1.27
1.22
1.35
2.31
4.78
9.49
17.04
27.69
41.00
55.64
69.61
80.91
88.49
92.91
96.26
101.27
110.11
123.39
140.00
157.77
174.49
188.65
199.64
207.44
212.17
213.98
213.12
210.18
205.97
201.29
196.61
191.86
186.63
179.97
171.50
161.80
152.06
143.25
135.53
128.33
120.70
111.77
100.64
87.14
71.90
55.97
40.17
24.94
10.78
-1.40
-10.22
-15.53
-17.28
-15.45
-10.37
-3.30
3.81
9.16
11.78
11.57
5.32
-8.54
-28.48
-50.44
-70.85
-88.00
-101.74
-112.78
-122.13
-138.26
-166.38
-204.76
-246.17
-283.96
-315.39
-340.66
-361.20
-378.51
-405.40
-449.21
-506.35
-564.66
-613.32
-648.17
-670.27
-682.94
-689.81
-708.92
-751.09
-812.68
-878.39
-934.25
-974.97
-1001.65
-1017.77
-930.17
-699.53
-367.03
-25.17
257.82
463.54
602.78
694.20
754.49
795.86
809.10
791.26
749.36
700.14
658.42
629.50
612.10
602.39
596.18
577.60
538.68
481.63
418.93
364.07
321.61
290.74
268.47
251.87
231.46
197.97
150.65
98.22
53.37
19.46
-4.60
-21.85
-35.49
-51.35
-78.61
-119.54
-167.38
-208.23
-238.80
-259.71
-273.47
-283.55
-293.65
-313.26
-345.35
-383.83
-413.33
-430.64
-436.42
-433.52
-426.94
-368.96
-245.73
-86.71
26.50
94.84
129.20
149.51
161.49
163.39
152.79
121.43
67.77
-1.62
-71.67
-139.78
-207.35
-247.56
-243.89
-199.16
-135.62
-69.95
-6.82
58.12
119.66
170.89
207.06
224.98
226.58
214.04
192.51
168.02
148.15
133.77
124.69
120.51
118.03
114.35
106.38
93.79
78.20
63.51
51.20
42.33
37.49
34.83
32.42
28.67
23.52
17.78
13.10
10.18
9.60
11.61
15.13
18.81
21.78
23.78
24.79
24.91
24.37
23.48
22.45
21.07
19.04
16.25
12.85
9.03
4.98
0.93
-2.82
-5.94
-8.07
-9.33
-10.53
-13.04
-18.38
-27.49
-40.37
-55.91
-72.52
-88.30
-101.86
-112.32
-119.07
-121.50
-118.95
-110.94
-97.19
-80.20
-62.41
-46.13
-32.85
-22.89
-15.63
-10.02
-5.27
-1.18
1.88
3.78
4.55
4.68
4.90
5.82
7.68
10.14
12.57
14.25
15.05
15.20
15.16
15.31
15.62
15.68
14.91
12.91
9.76
6.10
2.78
0.39
-0.98
-1.86
-3.11
-5.46
-9.07
-13.47
-17.60
-20.43
-21.44
-20.83
-19.39
-18.10
-17.72
-18.64
-20.90
-24.32
-28.56
-33.04
-36.82
-38.66
-37.34
-32.15
-23.35
-12.11
-0.19
10.74
19.57
26.06
30.61
33.94
36.65
38.99
40.89
42.09
42.46
42.14
41.53
41.06
41.02
41.31
41.54
41.29
40.35
38.83
37.06
35.29
33.53
31.49
28.90
25.76
22.60
20.45
20.55
23.84
30.52
39.72
49.58
57.69
61.76
60.38
53.47
42.26
28.90
15.68
4.34
-4.41
-10.96
-16.49
-22.32
-29.30
-37.37
-45.51
-52.05
-55.28
-54.02
-48.04
-38.10
-25.59
-12.10
1.03
13.00
23.49
32.64
40.80
48.34
55.49
62.25
68.45
73.80
78.03
80.97
82.51
82.61
81.25
78.44
74.22
68.75
62.32
55.43
48.72
42.87
38.45
35.64
34.20
33.51
32.81
31.48
29.28
26.31
22.82
19.03
14.80
9.66
2.94
-6.01
-17.49
-31.21
-46.12
-60.51
-72.27
-79.44
-80.60
-75.27
-63.93
-47.86
-28.88
-9.02
9.80
26.03
38.75
47.79
53.60
57.02
58.85
59.46
58.72
56.15
51.29
44.17
35.47
26.49
18.82
13.97
12.88
15.74
21.93
30.28
39.44
48.28
56.19
63.19
69.77
76.65
84.34
92.79
101.06
107.30
108.89
103.11
87.91
62.81
29.56
-7.94
-44.42
-74.62
-94.70
-103.26
-101.40
-92.00
-78.65
-64.50
-51.80
-41.73
-34.68
-30.44
-28.43
-27.76
-27.38
-26.35
-24.13
-20.80
-16.99
-13.64
-11.64
-11.49
-13.10
-15.80
-18.53
-20.19
-19.99
-17.59
-13.25
-7.62
-1.52
4.36
9.57
14.04
17.80
20.86
23.00
23.71
22.32
18.34
11.71
3.03
-6.42
-14.95
-20.91
-23.04
-20.88
-14.79
-5.70
5.20
16.91
28.83
40.75
52.63
64.20
74.68
82.69
86.50
84.46
75.61
60.25
40.09
18.02
-2.63
-18.99
-29.48
-34.03
-33.86
-30.75
-26.38
-21.88
-17.87
-14.66
-12.46
-11.46
-11.68
-12.93
-14.81
-16.88
-18.84
-20.65
-22.48
-24.52
-26.77
-28.92
-30.34
-30.27
-28.07
-23.51
-16.87
-8.86
-0.30
8.13
16.23
24.30
33.02
43.08
54.77
67.58
80.01
89.80
94.42
91.93
81.87
65.64
46.28
27.53
12.54
2.94
-1.47
-2.19
-1.04
0.73
2.81
5.53
9.35
14.34
20.05
25.90
31.57
37.24
43.46
50.57
58.34
65.74
71.20
73.17
70.58
63.18
51.40
36.01
17.85
-2.22
-23.28
-44.09
-63.16
-78.93
-90.18
-96.38
-97.80
-95.29
-89.97
-82.88
-74.89
-66.65
-58.76
-51.77
-46.05
-41.78
-38.75
-36.47
-34.32
-31.69
-28.22
-23.91
-19.10
-14.33
-10.14
-6.80
-4.24
-1.99
0.74
4.83
11.08
20.02
31.65
45.25
59.25
71.34
78.94
79.96
73.49
60.29
42.59
23.31
5.16
-10.05
-21.56
-29.28
-33.35
-33.85
-30.85
-24.64
-16.04
-6.35
3.11
11.58
19.22
26.98
36.10
47.51
61.35
76.60
91.06
101.81
105.89
101.22
87.11
64.57
36.11
5.45
-23.59
-47.92
-65.59
-75.72
-78.33
-74.21
-64.82
-52.03
-37.18
-21.86
-8.02
2.41
8.28
9.81
8.43
6.36
6.06
11.34
24.85
47.15
77.04
112.78
152.75
194.88
236.07
272.17
301.29
321.55
330.73
327.06
310.58
283.18
247.27
204.86
158.13
113.68
78.48
57.13
50.22
54.85
65.66
75.95
79.74
54.02
-8.28
-93.80
-176.95
-238.87
-275.83
-294.01
-301.33
-303.06
-301.04
-292.04
-274.14
-249.41
-223.14
-200.41
-183.56
-172.14
-164.30
-157.66
-147.98
-133.09
-114.15
-94.81
-78.51
-66.77
-59.17
-54.61
-51.53
-47.21
-40.29
-31.41
-22.97
-16.72
-13.27
-12.06
-12.53
-13.54
-13.52
-11.63
-8.18
-4.29
-0.98
1.20
2.17
1.50
-0.61
-3.66
-7.46
-12.12
-17.96
-25.19
-33.80
-39.67
-43.73
-46.54
-48.30
-49.11
-49.00
-48.04
-46.29
-43.83
-40.83
-38.03
-35.48
-33.11
-30.89
-28.82
-26.87
-25.01
-23.17
-21.35
-20.03
-19.11
-18.47
-18.02
-17.71
-17.51
-17.40
-17.24
-17.09
-17.27
-17.73
-18.39
-19.20
-20.11
-21.07
-22.05
-22.84
-23.47
-24.07
-24.49
-24.62
-24.24
-23.23
-21.40
-19.42
-16.26
-11.68
-5.74
1.34
9.24
17.55
25.81
33.71
40.91
47.39
52.87
57.15
60.07
61.59
61.83
60.93
59.34
57.58
56.40
56.13
56.76
57.96
59.23
60.17
60.11
59.01
57.15
55.29
53.78
52.39
50.34
46.78
41.31
33.08
22.69
11.54
1.88
-4.79
-8.35
-9.86
-10.73
-11.93
-15.32
-20.72
-26.86
-31.32
-32.70
-31.63
-30.45
-32.58
-41.98
-65.55
-102.49
-151.17
-206.33
-260.23
-304.55
-332.51
-340.93
-315.83
-258.33
-182.88
-109.92
-53.07
-15.15
8.05
22.03
30.43
34.59
32.73
24.99
13.78
3.11
-4.05
-7.17
-7.70
-7.72
-8.76
-12.98
-20.26
-28.76
-35.61
-38.62
-37.45
-33.96
-29.51
-25.49
-23.89
-25.32
-29.19
-34.19
-39.31
-44.40
-50.24
-57.84
-68.10
-81.89
-99.07
-118.67
-139.23
-159.03
-176.64
-191.35
-203.03
-211.78
-217.82
-220.87
-220.04
-213.97
-201.75
-182.73
-157.41
-127.68
-96.20
-65.57
-37.60
-13.23
7.34
27.01
48.64
73.46
100.27
126.71
150.54
170.77
187.78
202.81
221.56
248.61
285.20
328.03
371.91
411.93
445.42
472.55
495.42
522.58
561.28
614.47
678.96
749.29
820.12
888.50
954.47
983.12
951.08
852.32
703.85
535.27
373.96
233.46
113.17
5.03
-99.60
-199.14
-286.71
-349.42
-388.23
-408.00
-416.35
-421.87
-431.10
-446.81
-463.17
-472.18
-467.71
-449.60
-421.44
-386.39
-348.82
-311.80
-276.43
-239.14
-196.19
-146.05
-91.38
-36.62
13.32
54.63
85.96
107.85
122.98
133.50
140.20
142.31
139.45
132.31
122.59
113.00
106.15
104.05
106.97
113.07
118.80
120.35
114.87
101.33
80.96
56.04
29.45
3.50
-20.75
-43.32
-65.45
-88.63
-114.05
-142.42
-174.87
-211.38
-250.49
-289.21
-323.20
-349.45
-366.49
-374.78
-376.77
-377.54
-381.23
-389.63
-401.73
-413.82
-423.43
-428.98
-429.49
-424.50
-415.53
-403.06
-386.60
-365.64
-339.55
-311.35
-285.19
-264.23
-236.22
-195.58
-143.70
-88.09
-46.07
-18.13
-1.55
6.86
12.26
17.95
24.56
32.91
44.34
60.40
83.23
111.31
141.07
168.18
188.51
198.30
197.29
188.79
178.20
171.62
171.17
175.93
183.41
190.82
195.56
196.83
195.28
192.07
188.57
184.47
179.01
171.97
163.81
155.22
147.31
140.97
136.43
133.32
130.14
125.16
117.29
106.26
92.62
77.62
62.83
49.64
39.08
31.31
25.79
21.57
17.61
13.07
7.41
0.33
-8.17
-17.85
-28.23
-38.66
-48.35
-56.60
-62.94
-67.22
-69.52
-70.00
-68.90
-66.37
-62.65
-57.99
-52.79
-47.47
-42.62
-38.91
-36.86
-36.60
-37.59
-38.57
-37.90
-34.15
-26.82
-16.68
-5.57
4.25
10.91
13.44
11.80
6.53
-1.66
-12.02
-23.47
-34.28
-42.06
-44.34
-39.57
-27.95
-11.63
5.95
21.31
32.08
37.54
38.37
35.86
31.26
25.52
19.29
13.35
8.63
6.16
6.77
10.84
18.18
28.25
40.40
53.98
68.38
82.87
96.41
107.83
116.26
121.54
124.46
126.36
128.38
130.87
133.11
133.71
131.39
125.64
116.92
106.40
95.20
83.89
72.40
60.22
46.90
32.36
16.98
1.53
-13.03
-25.66
-35.47
-41.77
-44.35
-43.55
-40.37
-36.38
-33.35
-32.76
-35.27
-40.42
-46.68
-51.95
-54.26
-52.25
-45.60
-35.06
-22.08
-8.47
4.08
14.41
22.03
27.14
30.36
32.47
34.04
35.36
36.42
37.04
37.11
36.73
36.17
35.81
35.94
36.72
38.12
39.93
41.91
43.74
45.17
45.95
45.95
45.11
43.38
40.77
37.30
32.94
27.70
21.67
15.03
8.15
1.65
-3.66
-6.86
-7.17
-4.20
1.73
9.47
17.31
23.33
26.02
24.74
19.82
12.39
3.94
-4.14
-10.88
-15.84
-19.03
-20.70
-21.14
-20.61
-19.31
-17.54
-15.76
-14.60
-14.72
-16.56
-20.20
-25.30
-31.26
-37.31
