1660935229.00
64.000000
-0.00
-0.00
-0.00
-0.00
-0.00
-0.00
-0.00
-0.00
-0.00
-0.00
0.00
0.01
0.01
-0.00
-0.03
-0.05
-0.05
0.00
0.13
0.36
0.66
1.01
1.37
1.72
2.06
2.40
2.79
3.25
3.81
4.44
5.09
5.73
6.32
6.90
7.53
8.27
9.15
10.26
11.49
12.70
13.80
14.75
15.64
16.65
18.01
19.84
22.33
25.27
28.37
31.34
34.06
36.66
39.50
43.02
47.49
53.23
59.84
66.75
73.44
79.65
85.61
91.89
99.22
108.01
118.64
130.41
142.45
153.96
164.61
174.75
185.26
197.50
209.97
224.55
241.45
260.58
280.84
299.74
313.51
317.95
309.77
287.75
253.64
210.65
162.73
113.24
64.26
16.76
-28.80
-72.04
-112.52
-149.85
-184.69
-218.39
-252.66
-288.60
-325.82
-361.89
-392.64
-413.53
-421.11
-414.58
-396.10
-369.94
-340.80
-312.21
-285.72
-261.26
-238.11
-215.74
-194.39
-174.71
-157.16
-141.65
-127.54
-113.99
-100.40
-86.70
-73.29
-60.86
-49.99
-40.90
-33.38
-26.85
-20.68
-14.43
-8.05
-1.84
3.73
8.31
11.80
14.43
16.63
18.75
20.96
23.15
25.00
26.25
26.75
26.65
26.21
25.75
25.44
25.29
25.18
24.96
24.56
24.01
23.38
22.75
22.17
21.62
21.08
20.53
19.94
19.33
18.68
18.00
17.30
16.60
15.91
15.25
14.64
14.12
13.75
13.55
13.48
13.45
13.35
13.09
12.65
12.11
11.57
11.10
10.73
10.44
10.21
10.01
9.86
9.78
9.76
9.77
9.72
9.55
9.23
8.78
8.26
7.75
7.32
7.01
6.82
6.72
6.65
6.58
6.46
6.25
5.93
5.50
4.96
4.39
3.85
3.42
3.10
2.86
2.60
2.27
1.82
1.30
0.78
0.31
-0.10
-0.47
-0.83
-1.18
-1.54
-1.94
-2.41
-2.99
-3.68
-4.42
-5.10
-5.67
-6.11
-6.46
-6.81
-7.20
-7.65
-8.08
-8.40
-8.55
-8.48
-8.25
-7.96
-7.73
-7.61
-7.58
-7.53
-7.31
-6.86
-6.23
-5.53
-4.92
-4.47
-4.16
-3.88
-3.54
-3.08
-2.52
-1.91
-1.31
-0.73
-0.19
0.32
0.82
1.32
1.78
2.17
2.44
2.56
2.55
2.49
2.45
2.48
2.58
2.71
2.82
2.91
3.03
3.20
3.41
3.60
3.71
3.73
3.72
3.76
3.90
4.08
4.22
4.26
4.22
4.17
4.20
4.33
4.51
4.62
4.62
4.49
4.33
4.21
4.18
4.19
4.20
4.18
4.12
4.06
3.99
3.92
3.84
3.72
3.55
3.36
3.15
2.93
2.76
2.64
2.61
2.64
2.71
2.75
2.70
2.54
2.28
2.00
1.79
1.72
1.80
2.01
2.26
2.48
2.60
2.58
2.45
2.23
1.98
1.78
1.69
1.71
1.82
1.91
1.90
1.76
1.53
1.31
1.15
1.07
1.02
0.96
0.86
0.77
0.77
0.91
1.15
1.41
1.60
1.62
1.47
1.19
0.89
0.65
0.57
0.66
0.86
1.08
1.19
1.17
1.02
0.85
0.78
0.87
1.09
1.37
1.59
1.65
1.53
1.27
0.95
0.67
0.51
0.49
0.60
0.77
0.95
1.12
1.30
1.51
1.69
1.77
1.63
1.22
0.62
0.00
-0.41
-0.48
-0.23
0.19
0.60
0.86
0.93
0.87
0.77
0.68
0.63
0.59
0.52
0.40
0.21
-0.01
-0.19
-0.24
-0.10
0.20
0.58
0.89
1.06
1.10
1.07
1.09
1.23
1.45
1.66
1.78
1.72
1.47
1.05
0.55
0.08
-0.22
-0.24
0.05
0.56
1.12
1.49
1.51
1.17
0.57
-0.05
-0.48
-0.60
-0.40
-0.04
0.31
0.53
0.57
0.51
0.46
0.48
0.57
0.62
0.54
0.32
0.03
-0.20
-0.24
-0.05
0.30
0.66
0.91
0.94
0.81
0.62
0.50
0.53
0.67
0.86
0.98
0.98
0.88
0.75
0.65
0.60
0.57
0.50
0.38
0.23
0.12
0.12
0.24
0.44
0.65
0.78
0.79
0.71
0.62
0.60
0.69
0.84
0.94
0.89
0.67
0.33
0.00
-0.19
-0.22
-0.15
-0.07
-0.09
-0.23
-0.44
-0.61
-0.68
-0.64
-0.50
-0.31
-0.06
0.24
0.54
0.78
0.89
0.81
0.57
0.28
0.07
0.05
0.22
0.52
0.83
1.03
1.07
0.97
0.77
0.54
0.34
0.19
0.10
0.03
-0.06
-0.22
-0.43
-0.65
-0.81
-0.83
-0.71
-0.49
-0.25
-0.08
0.01
0.03
0.06
0.12
0.22
0.29
0.30
0.23
0.14
0.12
0.21
0.41
0.60
0.67
0.59
0.40
0.25
0.26
0.45
0.71
0.88
0.85
0.64
0.36
0.17
0.14
0.23
0.29
0.19
-0.10
-0.47
-0.74
-0.76
-0.54
-0.20
0.06
0.10
-0.05
-0.27
-0.35
-0.21
0.08
0.35
0.46
0.37
0.19
0.12
0.23
0.52
0.80
0.88
0.65
0.19
-0.35
-0.75
-0.87
-0.74
-0.46
-0.18
-0.04
-0.05
-0.13
-0.16
-0.06
0.20
0.54
0.83
1.01
1.04
0.96
0.84
0.72
0.61
0.51
0.44
0.42
0.47
0.58
0.69
0.69
0.53
0.18
-0.26
-0.68
-0.96
-1.05
-0.96
-0.76
-0.54
-0.36
-0.25
-0.19
-0.17
-0.17
-0.21
-0.31
-0.47
-0.68
-0.94
-1.21
-1.48
-1.76
-2.00
-2.12
-2.02
-1.63
-0.99
-0.29
0.22
0.38
0.20
-0.11
-0.25
0.01
0.64
1.41
1.99
2.12
1.76
1.05
0.28
-0.36
-0.78
-1.05
-1.27
-1.49
-1.70
-1.80
-1.70
-1.37
-0.86
-0.30
0.18
0.51
0.70
0.80
0.88
0.97
1.10
1.24
1.42
1.70
2.08
2.53
2.96
3.25
3.36
3.36
3.36
3.47
3.67
3.79
3.61
3.00
1.96
0.68
-0.60
-1.64
-2.34
-2.66
-2.66
-2.40
-2.00
-1.58
-1.31
-1.31
-1.60
-2.07
-2.48
-2.65
-2.50
-2.15
-1.86
-1.91
-2.49
-3.60
-5.11
-6.75
-8.34
-9.76
-11.06
-12.40
-13.97
-15.87
-18.07
-20.39
-22.64
-24.67
-26.52
-28.41
-30.61
-33.35
-36.67
-40.41
-44.30
-48.09
-51.64
-55.06
-58.68
-62.87
-67.97
-74.10
-81.10
-88.58
-96.07
-103.26
-110.06
-116.69
-123.48
-130.79
-138.96
-148.33
-159.12
-171.11
-183.11
-192.77
-196.83
-192.03
-176.19
-148.96
-111.75
-66.89
-16.81
36.34
90.32
142.20
188.13
224.11
247.49
258.26
259.37
255.65
251.85
250.96
253.51
258.15
262.97
266.81
269.74
272.82
277.19
283.44
291.33
300.01
308.37
315.21
319.21
318.73
311.93
297.16
273.59
241.62
202.82
159.31
112.92
64.55
14.42
-37.09
-88.44
-136.54
-177.32
-207.20
-224.53
-230.26
-227.44
-219.81
-210.37
-200.52
-190.29
-179.24
-167.34
-155.30
-144.22
-134.89
-127.28
-120.57
-113.66
-105.76
-96.83
-87.48
-78.75
-71.46
-65.88
-61.64
-57.90
-53.78
-48.79
-43.02
-37.06
-31.69
-27.46
-24.44
-22.25
-20.27
-17.97
-15.18
-12.12
-9.25
-6.98
-5.51
-4.71
-4.28
-3.89
-3.33
-2.61
-1.86
-1.23
-0.79
-0.53
-0.35
-0.24
-0.16
-0.16
-0.24
-0.34
-0.38
-0.25
0.09
0.64
1.33
2.10
2.90
3.67
4.31
4.68
4.59
3.97
2.84
1.43
0.08
-0.86
-1.16
-0.82
-0.03
0.87
1.53
1.72
1.42
0.73
-0.14
-0.99
-1.69
-2.18
-2.48
-2.64
-2.71
-2.71
-2.64
-2.51
-2.32
-2.11
-1.91
-1.73
-1.56
-1.38
-1.14
-0.79
-0.34
0.19
0.73
1.22
1.69
2.17
2.75
3.42
4.06
4.41
4.26
3.50
2.28
0.95
-0.08
-0.55
-0.42
0.08
0.64
0.99
1.05
0.89
0.68
0.54
0.52
0.57
0.61
0.57
0.42
0.20
-0.05
-0.29
-0.50
-0.75
-1.08
-1.54
-2.09
-2.62
-2.97
-3.05
-2.81
-2.31
-1.66
-0.98
-0.36
0.19
0.70
1.25
1.89
2.59
3.26
3.74
3.92
3.76
3.36
2.89
2.49
2.19
1.94
1.61
1.08
0.30
-0.64
-1.59
-2.37
-2.87
-3.03
-2.92
-2.67
-2.37
-2.08
-1.81
-1.54
-1.27
-1.07
-0.98
-1.05
-1.24
-1.47
-1.62
-1.65
-1.56
-1.42
-1.27
-1.08
-0.72
-0.02
1.14
2.71
4.39
5.70
6.20
5.65
4.24
2.46
0.93
0.12
0.08
0.55
1.11
1.42
1.38
1.10
0.78
0.51
0.28
0.01
-0.37
-0.83
-1.30
-1.67
-1.88
-1.90
-1.74
-1.49
-1.25
-1.13
-1.19
-1.41
-1.70
-1.91
-1.96
-1.82
-1.52
-1.10
-0.59
0.04
0.77
1.46
1.89
1.83
1.21
0.18
-0.98
-1.89
-2.31
-2.20
-1.66
-0.90
-0.10
0.63
1.22
1.66
1.91
1.94
1.75
1.38
0.90
0.43
0.08
-0.08
-0.06
0.06
0.14
0.06
-0.22
-0.67
-1.18
-1.61
-1.86
-1.88
-1.69
-1.35
-0.97
-0.66
-0.54
-0.65
-0.93
-1.23
-1.36
-1.13
-0.48
0.53
1.67
2.68
3.32
3.48
3.15
2.45
1.55
0.61
-0.24
-0.88
-1.24
-1.26
-0.95
-0.37
0.33
0.96
1.38
1.50
1.31
0.87
0.28
-0.36
-0.93
-1.34
-1.53
-1.51
-1.35
-1.19
-1.14
-1.24
-1.43
-1.57
-1.55
-1.31
-0.89
-0.39
0.13
0.66
1.20
1.75
2.24
2.52
2.48
2.06
1.36
0.57
-0.10
-0.51
-0.62
-0.48
-0.22
0.05
0.26
0.37
0.37
0.32
0.25
0.19
0.15
0.06
-0.14
-0.52
-1.05
-1.63
-2.09
-2.28
-2.16
-1.81
-1.38
-1.03
-0.83
-0.77
-0.76
-0.77
-0.79
-0.82
-0.83
-0.70
-0.25
0.65
1.96
3.40
4.55
5.00
4.58
3.37
1.76
0.18
-0.98
-1.57
-1.62
-1.30
-0.80
-0.30
0.12
0.42
0.59
0.64
0.56
0.37
0.06
-0.36
-0.83
-1.25
-1.50
-1.51
-1.28
-0.95
-0.65
-0.50
-0.50
-0.55
-0.53
-0.37
-0.13
0.09
0.24
0.35
0.57
1.06
1.85
2.81
3.64
4.05
3.83
3.04
1.90
0.76
-0.10
-0.54
-0.64
-0.55
-0.46
-0.47
-0.59
-0.73
-0.82
-0.85
-0.83
-0.83
-0.91
-1.10
-1.37
-1.67
-1.94
-2.16
-2.31
-2.39
-2.37
-2.23
-1.93
-1.44
-0.83
-0.23
0.21
0.37
0.24
-0.05
-0.26
-0.17
0.33
1.15
2.02
2.63
2.77
2.37
1.61
0.71
-0.06
-0.59
-0.85
-0.93
-0.90
-0.81
-0.63
-0.33
0.09
0.59
1.07
1.41
1.53
1.45
1.23
0.98
0.76
0.57
0.34
-0.03
-0.57
-1.20
-1.74
-2.00
-1.89
-1.48
-0.93
-0.47
-0.20
-0.12
-0.14
-0.16
-0.14
-0.09
-0.02
0.13
0.47
1.05
1.83
2.60
3.06
3.00
2.41
1.51
0.65
0.09
-0.13
-0.14
-0.20
-0.49
-0.99
-1.52
-1.88
-1.96
-1.82
-1.59
-1.42
-1.40
-1.48
-1.61
-1.69
-1.64
-1.45
-1.11
-0.65
-0.12
0.37
0.72
0.81
0.64
0.27
-0.19
-0.54
-0.65
-0.42
0.19
1.11
2.15
3.05
3.51
3.29
2.36
0.93
-0.60
-1.77
-2.23
-1.93
-1.06
0.04
1.02
1.66
1.92
1.86
1.59
1.21
0.80
0.43
0.15
-0.01
-0.07
-0.11
-0.20
-0.41
-0.75
-1.19
-1.65
-2.08
-2.42
-2.60
-2.56
-2.25
-1.69
-1.01
-0.38
0.04
0.20
0.19
0.18
0.33
0.76
1.45
2.25
2.96
3.43
3.52
3.23
2.64
1.89
1.14
0.53
0.12
-0.06
-0.04
0.11
0.29
0.37
0.24
-0.16
-0.77
-1.38
-1.78
-1.82
-1.54
-1.17
-0.99
-1.17
-1.69
-2.36
-2.91
-3.14
-3.02
-2.65
-2.17
-1.71
-1.35
-1.13
-1.07
-1.14
-1.21
-1.09
-0.53
0.60
2.22
3.99
5.45
6.19
6.01
5.02
3.57
2.12
1.07
0.59
0.63
0.95
1.26
1.34
1.05
0.46
-0.29
-0.98
-1.45
-1.65
-1.61
-1.45
-1.28
-1.16
-1.08
-1.01
-0.93
-0.84
-0.78
-0.80
-0.91
-1.09
-1.27
-1.31
-1.08
-0.54
0.25
1.11
1.79
2.07
1.88
1.32
0.65
0.13
-0.07
0.05
0.30
0.48
0.43
0.15
-0.23
-0.55
-0.69
-0.64
-0.51
-0.39
-0.37
-0.41
-0.44
-0.39
-0.27
-0.15
-0.17
-0.40
-0.81
-1.30
-1.69
-1.82
-1.63
-1.16
-0.56
0.00
0.35
0.41
0.20
-0.16
-0.49
-0.61
-0.40
0.15
0.94
1.78
2.48
2.90
3.00
2.84
2.54
2.24
2.00
1.81
1.60
1.31
0.90
0.40
-0.13
-0.61
-1.02
-1.35
-1.60
-1.73
-1.73
-1.56
-1.24
-0.84
-0.45
-0.20
-0.15
-0.32
-0.64
-1.02
-1.37
-1.62
-1.73
-1.63
-1.30
-0.69
0.14
1.07
1.87
2.31
2.28
1.82
1.11
0.38
-0.19
-0.53
-0.67
-0.67
-0.60
-0.50
-0.37
-0.22
-0.10
-0.04
-0.07
-0.18
-0.33
-0.48
-0.58
-0.60
-0.57
-0.53
-0.53
-0.63
-0.80
-0.99
-1.11
-1.10
-0.99
-0.82
-0.68
-0.58
-0.53
-0.49
-0.45
-0.41
-0.38
-0.29
-0.07
0.41
1.18
2.15
3.10
3.71
3.76
3.19
2.20
1.12
0.31
-0.08
-0.06
0.16
0.34
0.34
0.15
-0.10
-0.26
-0.29
-0.24
-0.25
-0.44
-0.84
-1.34
-1.77
-2.01
-2.01
-1.84
-1.63
-1.49
-1.45
-1.46
-1.46
-1.40
-1.30
-1.15
-0.91
-0.49
0.24
1.28
2.42
3.33
3.65
3.23
2.24
1.07
0.19
-0.11
0.12
0.57
0.84
0.73
0.29
-0.24
-0.61
-0.74
-0.75
-0.86
-1.20
-1.73
-2.26
-2.59
-2.64
-2.45
-2.11
-1.73
-1.34
-0.93
-0.45
0.04
0.49
0.80
0.95
1.01
1.07
1.28
1.71
2.33
2.98
3.41
3.44
2.98
2.16
1.22
0.44
0.00
-0.10
-0.00
0.14
0.19
0.17
0.14
0.19
0.37
0.61
0.83
0.90
0.75
0.36
-0.22
-0.85
-1.39
-1.71
-1.74
-1.58
-1.40
-1.39
-1.67
-2.17
-2.65
-2.83
-2.52
-1.76
-0.78
0.12
0.70
0.89
0.81
0.64
0.51
0.48
0.54
0.73
1.10
1.65
2.32
2.90
3.19
3.03
2.47
1.72
0.99
0.43
0.02
-0.40
-0.94
-1.62
-2.27
-2.71
-2.82
-2.63
-2.31
-2.03
-1.91
-1.92
-1.93
-1.82
-1.51
-1.03
-0.49
-0.02
0.29
0.41
0.38
0.25
0.09
-0.07
-0.19
-0.22
-0.12
0.20
0.82
1.74
2.84
3.89
4.58
4.65
4.02
2.78
1.20
-0.39
-1.67
-2.45
-2.64
-2.26
-1.47
-0.49
0.44
1.05
1.23
0.99
0.47
-0.11
-0.56
-0.80
-0.83
-0.72
-0.58
-0.46
-0.41
-0.44
-0.59
-0.89
-1.29
-1.71
-2.02
-2.08
-1.82
-1.30
-0.68
-0.16
0.14
0.22
0.23
0.33
0.70
1.35
2.17
2.96
3.46
3.49
3.03
2.21
1.31
0.61
0.26
0.24
0.36
0.38
0.13
-0.35
-0.89
-1.30
-1.45
-1.38
-1.25
-1.22
-1.39
-1.72
-2.07
-2.29
-2.30
-2.09
-1.73
-1.34
-1.03
-0.84
-0.80
-0.86
-0.99
-1.13
-1.20
-1.10
-0.69
0.15
1.41
2.93
4.39
5.41
5.72
5.22
4.08
2.64
1.27
0.29
-0.18
-0.18
0.12
0.49
0.75
0.79
0.61
0.31
0.01
-0.20
-0.29
-0.31
-0.37
-0.53
-0.78
-1.04
-1.21
-1.21
-1.06
-0.87
-0.80
-0.97
-1.36
-1.89
-2.35
-2.57
-2.42
-1.89
-1.07
-0.09
0.85
1.58
1.94
1.83
1.29
0.45
-0.49
-1.28
-1.74
-1.79
-1.45
-0.81
-0.03
0.74
1.34
1.68
1.69
1.42
0.97
0.48
0.10
-0.11
-0.13
-0.05
0.01
-0.03
-0.22
-0.56
-0.97
-1.40
-1.79
-2.11
-2.32
-2.42
-2.42
-2.31
-2.14
-1.94
-1.67
-1.23
-0.46
0.72
2.24
3.79
4.97
5.49
5.29
4.61
3.87
3.40
3.29
3.34
3.24
2.75
1.87
0.80
-0.17
-0.81
-1.08
-1.09
-1.03
-1.05
-1.24
-1.60
-2.02
-2.40
-2.63
-2.66
-2.52
-2.28
-2.03
-1.82
-1.66
-1.48
-1.24
-0.93
-0.58
-0.23
0.13
0.53
0.98
1.45
1.84
2.01
1.85
1.38
0.78
0.26
0.00
0.05
0.29
0.54
0.62
0.50
0.26
0.04
-0.03
0.09
0.31
0.49
0.50
0.32
-0.00
-0.36
-0.64
-0.79
-0.85
-0.88
-0.94
-1.05
-1.18
-1.28
-1.33
-1.33
-1.32
-1.31
-1.25
-1.07
-0.63
0.09
1.02
1.95
2.62
2.81
2.47
1.70
0.72
-0.20
-0.88
-1.20
-1.20
-0.96
-0.62
-0.34
-0.19
-0.21
-0.35
-0.55
-0.78
-1.02
-1.30
-1.62
-1.91
-2.08
-2.08
-1.90
-1.62
-1.36
-1.19
-1.12
-1.06
-0.97
-0.82
-0.68
-0.63
-0.72
-0.90
-1.09
-1.16
-1.04
-0.73
-0.32
0.05
0.24
0.14
-0.26
-0.91
-1.67
-2.42
-3.02
-3.44
-3.71
-3.93
-4.17
-4.47
-4.77
-4.98
-5.03
-4.92
-4.78
-4.73
-4.85
-5.07
-5.24
-5.15
-4.72
-3.99
-3.11
-2.26
-1.48
-0.73
0.11
1.16
2.51
4.20
6.28
8.75
11.52
14.31
16.70
18.17
18.31
16.95
14.22
10.54
6.46
2.58
-0.56
-2.60
-3.35
-2.86
-1.37
0.68
2.78
4.46
5.43
5.58
5.07
4.19
3.27
2.53
2.07
1.81
1.57
1.20
0.62
-0.16
-0.98
-1.68
-2.16
-2.39
-2.46
-2.48
-2.55
-2.72
-3.00
-3.30
-3.49
-3.36
-2.70
-1.42
0.37
2.32
3.94
4.82
4.79
4.00
2.87
1.84
1.19
0.90
0.74
0.42
-0.23
-1.11
-1.97
-2.52
-2.64
-2.42
-2.13
-2.05
-2.30
-2.83
-3.38
-3.70
-3.65
-3.25
-2.68
-2.13
-1.70
-1.43
-1.26
-1.15
-1.06
-0.97
-0.86
-0.67
-0.32
0.27
1.08
1.97
2.66
2.84
2.35
1.26
-0.13
-1.40
-2.19
-2.37
-2.06
-1.55
-1.08
-0.79
-0.65
-0.56
-0.44
-0.27
-0.13
-0.06
-0.11
-0.27
-0.47
-0.65
-0.77
-0.81
-0.80
-0.82
-0.91
-1.09
-1.31
-1.47
-1.47
-1.27
-0.93
-0.56
-0.28
-0.15
-0.17
-0.28
-0.41
-0.45
-0.27
0.18
0.91
1.74
2.41
2.62
2.24
1.38
0.39
-0.34
-0.54
-0.24
0.33
0.85
1.09
1.03
0.80
0.59
0.48
0.46
0.40
0.15
-0.32
-0.90
-1.43
-1.71
-1.70
-1.49
-1.27
-1.23
-1.47
-1.88
-2.27
-2.42
-2.20
-1.64
-0.86
-0.07
0.60
1.11
1.53
1.99
2.60
3.39
4.24
4.91
5.16
4.84
3.96
2.73
1.43
0.30
-0.49
-0.90
-0.97
-0.78
-0.45
-0.12
0.09
0.11
-0.06
-0.31
-0.55
-0.70
-0.80
-0.92
-1.10
-1.34
-1.55
-1.65
-1.57
-1.33
-1.03
-0.78
-0.64
-0.65
-0.76
-0.91
-1.02
-1.03
-0.92
-0.72
-0.47
-0.18
0.17
0.61
1.12
1.60
1.90
1.90
1.57
1.01
0.42
-0.02
-0.21
-0.13
0.17
0.58
0.99
1.28
1.37
1.22
0.87
0.42
-0.01
-0.31
-0.46
-0.47
-0.42
-0.39
-0.45
-0.62
-0.90
-1.21
-1.47
-1.61
-1.61
-1.50
-1.39
-1.34
-1.39
-1.51
-1.58
-1.48
-1.08
-0.33
0.70
1.80
2.70
3.11
2.91
2.16
1.10
0.08
-0.60
-0.83
-0.67
-0.33
-0.04
0.05
-0.06
-0.26
-0.43
-0.46
-0.33
-0.10
0.11
0.22
0.19
0.08
-0.01
0.01
0.16
0.39
0.57
0.58
0.36
-0.07
-0.59
-1.03
-1.29
-1.27
-0.96
-0.38
0.38
1.20
1.89
2.24
2.11
1.51
0.63
-0.21
-0.69
-0.64
-0.11
0.63
1.30
1.69
1.79
1.68
1.46
1.18
0.82
0.33
-0.22
-0.72
-1.02
-1.03
-0.78
-0.44
-0.24
-0.33
-0.74
-1.33
-1.90
-2.26
-2.33
-2.13
-1.81
-1.52
-1.40
-1.49
-1.74
-1.97
-2.00
-1.62
-0.76
0.55
2.07
3.48
4.48
4.87
4.68
4.11
3.40
2.78
2.30
1.93
1.58
1.21
0.83
0.49
0.21
-0.01
-0.23
-0.50
-0.81
-1.12
-1.36
-1.50
-1.51
-1.42
-1.26
-1.11
-1.01
-1.02
-1.19
-1.49
-1.89
-2.31
-2.66
-2.85
-2.85
-2.66
-2.30
-1.80
-1.17
-0.45
0.33
1.06
1.60
1.83
1.70
1.27
0.72
0.30
0.18
0.43
0.96
1.56
2.00
2.12
1.86
1.31
0.62
-0.04
-0.56
-0.88
-1.04
-1.09
-1.12
-1.19
-1.34
-1.55
-1.74
-1.83
-1.76
-1.54
-1.23
-0.94
-0.76
-0.72
-0.76
-0.80
-0.73
-0.47
0.04
0.80
1.77
2.82
3.73
4.25
4.18
3.49
2.37
1.18
0.27
-0.16
-0.13
0.14
0.37
0.40
0.26
0.05
-0.08
-0.11
-0.11
-0.21
-0.45
-0.79
-1.14
-1.39
-1.51
-1.55
-1.54
-1.51
-1.40
-1.18
-0.80
-0.37
-0.02
0.09
-0.08
-0.44
-0.80
-0.96
-0.80
-0.33
0.36
1.15
1.90
2.45
2.67
2.50
1.93
1.08
0.17
-0.54
-0.89
-0.88
-0.62
-0.33
-0.17
-0.20
-0.39
-0.63
-0.87
-1.08
-1.28
-1.51
-1.77
-2.05
-2.28
-2.41
-2.37
-2.14
-1.81
-1.49
-1.27
-1.18
-1.15
-1.02
-0.67
-0.03
0.88
1.98
3.14
4.23
5.09
5.55
5.44
4.72
3.48
1.97
0.55
-0.47
-0.93
-0.86
-0.41
0.17
0.69
1.02
1.12
1.04
0.82
0.54
0.21
-0.11
-0.37
-0.52
-0.53
-0.43
-0.30
-0.26
-0.41
-0.78
-1.26
-1.70
-1.91
-1.81
-1.40
-0.82
-0.25
0.12
0.17
-0.09
-0.57
-1.04
-1.25
-1.00
-0.27
0.75
1.69
2.19
2.04
1.29
0.22
-0.80
-1.46
-1.71
-1.65
-1.48
-1.36
-1.33
-1.32
-1.29
-1.22
-1.19
-1.29
-1.58
-2.04
-2.53
-2.90
-3.01
-2.83
-2.41
-1.91
-1.50
-1.29
-1.32
-1.51
-1.69
-1.71
-1.46
-0.91
-0.15
0.71
1.56
2.35
3.06
3.66
4.10
4.27
4.11
3.62
2.89
2.14
1.55
1.25
1.22
1.37
1.60
1.79
1.89
1.90
1.83
1.67
1.43
1.10
0.70
0.26
-0.20
-0.63
-0.99
-1.26
-1.46
-1.62
-1.78
-1.95
-2.14
-2.31
-2.41
-2.39
-2.22
-1.90
-1.43
-0.89
-0.36
0.05
0.30
0.41
0.49
0.68
1.05
1.58
2.15
2.60
2.80
2.70
2.37
1.93
1.49
1.16
0.96
0.87
0.84
0.79
0.65
0.35
-0.10
-0.64
-1.15
-1.51
-1.68
-1.67
-1.55
-1.40
-1.27
-1.14
-0.97
-0.77
-0.58
-0.53
-0.70
-1.10
-1.61
-2.01
-2.12
-1.83
-1.21
-0.38
0.51
1.37
2.17
2.89
3.44
3.71
3.59
3.07
2.30
1.47
0.79
0.33
0.07
-0.10
-0.25
-0.38
-0.49
-0.56
-0.62
-0.71
-0.86
-1.03
-1.15
-1.14
-0.99
-0.72
-0.46
-0.29
-0.32
-0.54
-0.90
-1.26
-1.47
-1.41
-1.09
-0.61
-0.13
0.18
0.27
0.16
-0.06
-0.28
-0.37
-0.26
0.10
0.67
1.31
1.84
2.08
1.92
1.45
0.87
0.43
0.29
0.50
0.94
1.41
1.77
1.90
1.80
1.50
1.08
0.61
0.17
-0.21
-0.47
-0.64
-0.74
-0.83
-0.99
-1.24
-1.62
-2.06
-2.48
-2.79
-2.88
-2.74
-2.42
-2.03
-1.71
-1.53
-1.49
-1.53
-1.52
-1.32
-0.84
-0.05
0.99
2.07
2.93
3.26
2.86
1.72
0.07
-1.72
-3.22
-4.17
-4.53
-4.49
-4.32
-4.25
-4.39
-4.67
-4.99
-5.32
-5.69
-6.22
-6.99
-7.96
-8.97
-9.83
-10.42
-10.77
-11.02
-11.35
-11.81
-12.34
-12.74
-12.85
-12.62
-12.15
-11.72
-11.59
-11.91
-12.58
-13.30
-13.68
-13.42
-12.49
-11.17
-9.90
-9.08
-8.85
-9.05
-9.30
-9.13
-8.22
-6.43
-3.88
-0.85
2.21
4.85
6.66
7.46
7.29
6.46
5.29
3.96
2.40
0.25
-2.91
-7.26
-12.31
-16.79
-18.89
-16.88
-10.08
0.66
12.97
23.82
30.72
32.68
30.51
26.38
22.90
22.38
26.34
35.37
49.05
65.95
83.65
99.15
109.51
112.50
107.18
93.88
74.12
50.22
25.08
1.75
-17.06
-29.64
-35.79
-36.77
-34.76
-31.94
-29.72
-28.43
-27.68
-26.91
-25.83
-24.53
-23.32
-22.43
-21.81
-21.25
-20.48
-19.32
-17.76
-15.92
-13.94
-11.99
-10.20
-8.65
-7.41
-6.49
-5.84
-5.34
-4.80
-4.05
-3.02
-1.79
-0.55
0.46
1.06
1.15
0.79
0.13
-0.54
-0.92
-0.71
0.19
1.68
3.42
5.02
6.17
6.84
7.27
7.81
8.69
9.87
11.07
11.92
12.15
11.71
10.75
9.42
7.85
6.05
3.97
1.65
-0.85
-3.35
-5.72
-7.89
-9.87
-11.72
-13.52
-15.27
-16.85
-18.07
-18.70
-18.57
-17.68
-16.18
-14.35
-12.51
-10.88
-9.50
-8.25
-6.93
-5.35
-3.45
-1.34
0.74
2.51
3.76
4.39
4.44
4.00
3.23
2.27
1.29
0.43
-0.20
-0.55
-0.64
-0.55
-0.37
-0.22
-0.14
-0.18
-0.32
-0.54
-0.78
-0.96
-1.03
-0.97
-0.82
-0.70
-0.69
-0.85
-1.16
-1.51
-1.79
-1.89
-1.79
-1.51
-1.16
-0.85
-0.66
-0.61
-0.64
-0.66
-0.58
-0.39
-0.14
0.09
0.24
0.26
0.17
0.00
-0.18
-0.33
-0.41
-0.40
-0.28
-0.08
0.14
0.31
0.37
0.29
0.10
-0.13
-0.33
-0.45
-0.50
-0.53
-0.58
-0.66
-0.73
-0.72
-0.61
-0.42
-0.24
-0.15
-0.12
-0.12
-0.09
-0.01
0.06
0.04
-0.11
-0.32
-0.51
-0.57
-0.49
-0.32
-0.14
-0.00
0.11
0.23
0.38
0.56
0.71
0.81
0.83
0.80
0.78
0.80
0.88
1.00
1.10
1.12
1.00
0.74
0.38
-0.03
-0.39
-0.66
-0.83
-0.91
-0.92
-0.89
-0.84
-0.78
-0.73
-0.67
-0.58
-0.46
-0.33
-0.21
-0.14
-0.12
-0.13
-0.11
-0.02
0.13
0.27
0.31
0.20
-0.05
-0.37
-0.62
-0.72
-0.64
-0.41
-0.11
0.20
0.44
0.59
0.62
0.54
0.40
0.25
0.14
0.08
0.06
0.01
-0.06
-0.11
-0.06
0.15
0.48
0.77
0.87
0.69
0.27
-0.25
-0.68
-0.91
-0.93
-0.80
-0.58
-0.34
-0.10
0.12
0.28
0.32
0.24
0.08
-0.06
-0.08
0.05
0.31
0.57
0.74
0.75
0.63
0.47
0.37
0.39
0.50
0.65
0.76
0.80
0.80
0.79
0.75
0.65
0.47
0.19
-0.10
-0.32
-0.39
-0.34
-0.28
-0.33
-0.54
-0.84
-1.07
-1.11
-0.91
-0.58
-0.27
-0.13
-0.17
-0.30
-0.39
-0.33
-0.14
0.09
0.25
0.31
0.31
0.34
0.40
0.44
0.41
0.25
-0.01
-0.28
-0.46
-0.50
-0.44
-0.31
-0.18
-0.07
0.00
0.03
-0.01
-0.11
-0.27
-0.44
-0.55
-0.57
-0.46
-0.28
-0.06
0.12
0.23
0.26
0.24
0.20
0.19
0.23
0.32
0.44
0.57
0.68
0.76
0.82
0.83
0.78
0.70
0.59
0.45
0.28
0.06
-0.21
-0.49
-0.70
-0.75
-0.63
-0.38
-0.11
0.06
0.07
-0.07
-0.27
-0.45
-0.55
-0.57
-0.52
-0.41
-0.24
-0.01
0.28
0.55
0.73
0.72
0.51
0.13
-0.33
-0.72
-0.90
-0.77
-0.33
0.31
0.94
1.34
1.36
0.96
0.28
-0.45
-1.02
-1.33
-1.38
-1.23
-0.97
-0.66
-0.33
-0.02
0.19
0.26
0.16
-0.01
-0.13
-0.11
0.08
0.34
0.52
0.50
0.28
-0.06
-0.38
-0.58
-0.62
-0.53
-0.33
-0.05
0.29
0.63
0.89
0.95
0.80
0.50
0.20
0.04
0.06
0.19
0.30
0.26
0.07
-0.20
-0.40
-0.41
-0.23
0.05
0.30
0.40
0.31
0.07
-0.21
-0.44
-0.56
-0.58
-0.57
-0.55
-0.54
-0.51
-0.41
-0.20
0.09
0.42
0.70
0.87
0.88
0.76
0.57
0.39
0.28
0.26
0.31
0.39
0.43
0.43
0.38
0.31
0.24
0.15
0.05
-0.08
-0.22
-0.33
-0.43
-0.52
-0.63
-0.75
-0.83
-0.81
-0.64
-0.37
-0.09
0.08
0.12
0.04
-0.07
-0.12
-0.09
0.02
0.15
0.26
0.37
0.51
0.67
0.83
0.91
0.80
0.51
0.08
-0.35
-0.66
-0.75
-0.60
-0.26
0.14
0.48
0.64
0.56
0.25
-0.19
-0.63
-0.89
-0.90
-0.68
-0.36
-0.08
0.05
0.06
0.03
0.04
0.10
0.17
0.17
0.08
-0.04
-0.10
-0.04
0.10
0.21
0.20
0.05
-0.17
-0.33
-0.33
-0.19
0.03
0.23
0.34
0.37
0.37
0.37
0.36
0.32
0.22
0.11
0.05
0.11
0.28
0.50
0.66
0.65
0.42
0.01
-0.49
-0.97
-1.31
-1.42
-1.27
-0.91
-0.46
-0.04
0.24
0.35
0.32
0.27
0.29
0.44
0.69
0.95
1.13
1.14
0.97
0.65
0.25
-0.15
-0.47
-0.62
-0.60
-0.42
-0.16
0.06
0.15
0.08
-0.11
-0.32
-0.46
-0.44
-0.28
-0.02
0.27
0.52
0.68
0.72
0.65
0.48
0.24
-0.04
-0.28
-0.46
-0.56
-0.58
-0.55
-0.50
-0.44
-0.42
-0.43
-0.47
-0.51
-0.53
-0.52
-0.44
-0.30
-0.12
0.05
0.17
0.21
0.16
0.04
-0.10
-0.19
-0.18
-0.08
0.09
0.27
0.38
0.39
0.31
0.18
0.07
-0.03
-0.13
-0.26
-0.43
-0.58
-0.65
-0.57
-0.35
-0.01
0.36
0.65
0.81
0.80
0.68
0.52
0.41
0.40
0.49
0.64
0.76
0.77
0.64
0.43
0.21
0.05
-0.02
-0.04
-0.05
-0.09
-0.17
-0.26
-0.32
-0.36
-0.40
-0.47
-0.58
-0.70
-0.75
-0.64
-0.35
0.07
0.49
0.77
0.83
0.67
0.38
0.07
-0.14
-0.27
-0.34
-0.45
-0.63
-0.83
-0.95
-0.87
-0.57
-0.12
0.35
0.70
0.88
0.89
0.79
0.63
0.45
0.23
-0.01
-0.24
-0.40
-0.43
-0.30
-0.06
0.23
0.48
0.58
0.52
0.30
-0.01
-0.29
-0.46
-0.49
-0.39
-0.26
-0.15
-0.12
-0.14
-0.18
-0.22
-0.24
-0.26
-0.25
-0.18
-0.02
0.25
0.58
0.89
1.03
0.91
0.56
0.09
-0.33
-0.54
-0.52
-0.35
-0.17
-0.07
-0.09
-0.16
-0.21
-0.21
-0.21
-0.27
-0.42
-0.60
-0.70
-0.63
-0.38
-0.04
0.27
0.47
0.54
0.54
0.52
0.53
0.59
0.67
0.73
0.75
0.69
0.56
0.36
0.13
-0.08
-0.22
-0.29
-0.26
-0.17
-0.05
0.07
0.17
0.22
0.20
0.11
-0.01
-0.10
-0.11
-0.02
0.13
0.24
0.23
0.06
-0.24
-0.57
-0.84
-0.98
-1.01
-0.96
-0.89
-0.80
-0.68
-0.52
-0.32
-0.14
-0.03
0.02
0.07
0.21
0.47
0.77
0.99
0.97
0.69
0.26
-0.11
-0.27
-0.17
0.05
0.19
0.08
-0.26
-0.67
-0.94
-0.92
-0.60
-0.17
0.19
0.35
0.32
0.21
0.17
0.25
0.40
0.49
0.39
0.12
-0.22
-0.47
-0.51
-0.35
-0.08
0.20
0.43
0.63
0.84
1.09
1.34
1.50
1.47
1.25
0.88
0.46
0.14
-0.01
0.03
0.21
0.43
0.57
0.56
0.40
0.16
-0.06
-0.21
-0.29
-0.34
-0.40
-0.49
-0.58
-0.63
-0.61
-0.57
-0.56
-0.63
-0.77
-0.89
-0.92
-0.80
-0.56
-0.32
-0.20
-0.24
-0.37
-0.45
-0.32
0.06
0.57
0.96
1.04
0.72
0.12
-0.50
-0.90
-0.96
-0.71
-0.30
0.12
0.46
0.70
0.86
0.92
0.86
0.65
0.29
-0.15
-0.52
-0.68
-0.56
-0.20
0.27
0.66
0.82
0.69
0.30
-0.23
-0.74
-1.11
-1.27
-1.19
-0.93
-0.55
-0.15
0.19
0.40
0.48
0.46
0.36
0.22
0.04
-0.15
-0.33
-0.42
-0.37
-0.13
0.27
0.71
1.03
1.12
0.91
0.51
0.07
-0.23
-0.27
-0.06
0.30
0.61
0.75
0.63
0.30
-0.11
-0.46
-0.68
-0.74
-0.68
-0.56
-0.43
-0.28
-0.11
0.09
0.30
0.45
0.47
0.37
0.20
0.08
0.05
0.13
0.21
0.20
0.07
-0.15
-0.34
-0.42
-0.32
-0.11
0.14
0.34
0.44
0.44
0.37
0.24
0.05
-0.17
-0.39
-0.56
-0.64
-0.62
-0.50
-0.33
-0.15
0.01
0.14
0.26
0.35
0.41
0.38
0.22
-0.05
-0.37
-0.64
-0.75
-0.67
-0.44
-0.16
0.08
0.22
0.25
0.25
0.24
0.24
0.22
0.14
-0.02
-0.22
-0.41
-0.51
-0.50
-0.40
-0.25
-0.13
-0.05
-0.02
-0.02
-0.01
0.02
0.09
0.18
0.30
0.41
0.49
0.54
0.53
0.47
0.36
0.20
-0.03
-0.27
-0.47
-0.56
-0.48
-0.26
-0.00
0.17
0.17
-0.02
-0.32
-0.58
-0.69
-0.59
-0.37
-0.13
0.01
0.02
-0.01
0.03
0.22
0.53
0.83
0.97
0.86
0.53
0.14
-0.13
-0.16
0.03
0.31
0.54
0.61
0.52
0.35
0.20
0.17
0.25
0.39
0.51
0.56
0.52
0.42
0.32
0.24
0.18
0.09
-0.06
-0.26
-0.42
-0.47
-0.39
-0.23
-0.10
-0.11
-0.26
-0.48
-0.64
-0.64
-0.48
-0.22
0.01
0.15
0.21
0.24
0.32
0.44
0.55
0.57
0.44
0.16
-0.16
-0.38
-0.39
-0.18
0.17
0.53
0.77
0.85
0.78
0.64
0.45
0.22
-0.05
-0.34
-0.61
-0.76
-0.73
-0.50
-0.12
0.29
0.59
0.70
0.59
0.28
-0.10
-0.45
-0.66
-0.72
-0.68
-0.63
-0.64
-0.70
-0.73
-0.66
-0.45
-0.15
0.12
0.28
0.29
0.20
0.08
-0.02
-0.08
-0.16
-0.28
-0.40
-0.46
-0.38
-0.15
0.16
0.43
0.59
0.58
0.43
0.22
0.02
-0.12
-0.19
-0.19
-0.16
-0.14
-0.16
-0.23
-0.32
-0.39
-0.39
-0.34
-0.26
-0.20
-0.20
-0.23
-0.23
-0.16
-0.03
0.10
0.13
0.03
-0.18
-0.39
-0.51
-0.45
-0.21
0.14
0.51
0.82
1.04
1.17
1.20
1.12
0.93
0.64
0.31
-0.03
-0.30
-0.49
-0.57
-0.54
-0.41
-0.19
0.09
0.36
0.56
0.66
0.65
0.55
0.43
0.33
0.28
0.28
0.27
0.23
0.10
-0.10
-0.31
-0.47
-0.52
-0.44
-0.25
-0.02
0.16
0.25
0.23
0.14
0.02
-0.10
-0.20
-0.29
-0.36
-0.41
-0.43
-0.39
-0.29
-0.15
0.02
0.15
0.19
0.11
-0.09
-0.37
-0.66
-0.88
-0.97
-0.91
-0.71
-0.41
-0.04
0.36
0.74
1.05
1.22
1.22
1.03
0.72
0.38
0.09
-0.10
-0.19
-0.24
-0.29
-0.34
-0.36
-0.32
-0.23
-0.13
-0.10
-0.22
-0.50
-0.84
-1.11
-1.19
-1.02
-0.66
-0.24
0.06
0.12
-0.06
-0.39
-0.68
-0.78
-0.59
-0.16
0.40
0.92
1.29
1.47
1.49
1.39
1.19
0.91
0.57
0.21
-0.12
-0.34
-0.42
-0.36
-0.19
0.05
0.32
0.54
0.65
0.59
0.36
0.04
-0.24
-0.38
-0.35
-0.21
-0.07
-0.01
-0.04
-0.12
-0.19
-0.22
-0.24
-0.29
-0.37
-0.48
-0.57
-0.59
-0.52
-0.35
-0.10
0.23
0.60
1.02
1.43
1.77
1.97
1.94
1.69
1.28
0.82
0.43
0.20
0.13
0.17
0.25
0.28
0.23
0.05
-0.22
-0.54
-0.82
-0.97
-0.92
-0.67
-0.32
0.01
0.17
0.07
-0.29
-0.82
-1.41
-1.91
-2.20
-2.22
-1.93
-1.42
-0.78
-0.17
0.28
0.50
0.49
0.31
0.05
-0.21
-0.42
-0.52
-0.51
-0.41
-0.26
-0.13
-0.06
-0.05
-0.05
0.02
0.22
0.57
1.01
1.44
1.78
1.95
1.94
1.78
1.48
1.10
0.68
0.30
0.04
-0.04
0.04
0.20
0.32
0.28
0.02
-0.41
-0.89
-1.25
-1.38
-1.24
-0.92
-0.57
-0.34
-0.30
-0.38
-0.48
-0.47
-0.34
-0.17
-0.10
-0.21
-0.48
-0.77
-0.90
-0.81
-0.54
-0.28
-0.16
-0.20
-0.28
-0.25
-0.02
0.35
0.69
0.86
0.81
0.61
0.41
0.36
0.44
0.57
0.63
0.56
0.39
0.20
0.09
0.08
0.14
0.20
0.22
0.16
0.08
0.01
-0.03
-0.03
-0.04
-0.07
-0.10
-0.10
-0.03
0.12
0.29
0.42
0.48
0.45
0.37
0.27
0.16
0.03
-0.13
-0.32
-0.48
-0.55
-0.49
-0.30
-0.04
0.26
0.55
0.79
0.95
0.98
0.89
0.68
0.43
0.19
-0.01
-0.18
-0.33
-0.44
-0.48
-0.39
-0.19
0.07
0.28
0.34
0.22
-0.05
-0.40
-0.71
-0.90
-0.92
-0.77
-0.48
-0.14
0.16
0.36
0.44
0.43
0.36
0.26
0.12
-0.10
-0.37
-0.64
-0.83
-0.87
-0.72
-0.44
-0.09
0.23
0.45
0.54
0.51
0.39
0.25
0.17
0.16
0.21
0.26
0.25
0.15
-0.04
-0.24
-0.42
-0.56
-0.65
-0.68
-0.64
-0.51
-0.28
-0.02
0.18
0.26
0.20
0.09
0.03
0.07
0.15
0.17
0.02
-0.32
-0.72
-1.02
-1.09
-0.94
-0.65
-0.34
-0.08
0.12
0.28
0.42
0.50
0.51
0.47
0.42
0.41
0.44
0.45
0.38
0.23
0.04
-0.06
0.01
0.29
0.71
1.15
1.47
1.60
1.56
1.38
1.14
0.92
0.72
0.55
0.37
0.15
-0.09
-0.32
-0.48
-0.55
-0.59
-0.68
-0.89
-1.20
-1.49
-1.63
-1.49
-1.08
-0.53
-0.02
0.29
0.33
0.16
-0.12
-0.38
-0.53
-0.51
-0.32
-0.03
0.30
0.56
0.72
0.74
0.65
0.50
0.34
0.20
0.05
-0.10
-0.23
-0.33
-0.35
-0.27
-0.12
0.07
0.22
0.31
0.32
0.28
0.24
0.23
0.26
0.28
0.26
0.22
0.18
0.19
0.27
0.39
0.50
0.57
0.60
0.64
0.71
0.78
0.77
0.62
0.27
-0.18
-0.62
-0.90
-0.96
-0.83
-0.61
-0.39
-0.26
-0.23
-0.29
-0.40
-0.57
-0.79
-1.04
-1.27
-1.40
-1.37
-1.16
-0.80
-0.42
-0.12
0.01
-0.03
-0.18
-0.36
-0.48
-0.49
-0.40
-0.21
0.04
0.31
0.56
0.73
0.78
0.72
0.57
0.41
0.30
0.27
0.29
0.30
0.26
0.14
-0.00
-0.08
-0.03
0.18
0.46
0.69
0.76
0.66
0.46
0.28
0.20
0.20
0.19
0.06
-0.20
-0.51
-0.72
-0.73
-0.54
-0.28
-0.09
-0.06
-0.18
-0.33
-0.39
-0.29
-0.08
0.18
0.36
0.42
0.33
0.12
-0.19
-0.51
-0.77
-0.88
-0.80
-0.55
-0.20
0.11
0.29
0.31
0.24
0.17
0.21
0.36
0.56
0.70
0.71
0.58
0.38
0.23
0.20
0.29
0.40
0.44
0.35
0.16
-0.03
-0.12
-0.07
0.10
0.31
0.46
0.52
0.46
0.33
0.17
-0.01
-0.15
-0.23
-0.18
0.04
0.40
0.84
1.20
1.31
1.06
0.49
-0.25
-0.93
-1.35
-1.41
-1.18
-0.81
-0.48
-0.32
-0.31
-0.38
-0.43
-0.41
-0.33
-0.26
-0.25
-0.29
-0.34
-0.36
-0.31
-0.17
0.00
0.17
0.26
0.24
0.10
-0.12
-0.34
-0.47
-0.44
-0.22
0.10
0.42
0.62
0.62
0.47
0.26
0.11
0.10
0.22
0.42
0.60
0.70
0.70
0.64
0.55
0.45
0.33
0.14
-0.09
-0.32
-0.49
-0.54
-0.44
-0.25
-0.06
0.06
0.07
-0.02
-0.18
-0.38
-0.60
-0.85
-1.08
-1.25
-1.32
-1.25
-1.06
-0.76
-0.43
-0.11
0.15
0.36
0.52
0.66
0.77
0.84
0.83
0.71
0.49
0.21
-0.06
-0.25
-0.30
-0.19
0.04
0.32
0.56
0.70
0.70
0.60
0.46
0.36
0.35
0.43
0.54
0.60
0.56
0.42
0.25
0.12
0.08
0.11
0.17
0.17
0.11
-0.00
-0.10
-0.12
-0.03
0.16
0.39
0.60
0.73
0.75
0.67
0.51
0.29
0.06
-0.17
-0.37
-0.51
-0.60
-0.63
-0.64
-0.61
-0.55
-0.49
-0.43
-0.40
-0.37
-0.31
-0.19
-0.01
0.22
0.41
0.50
0.47
0.33
0.14
-0.03
-0.12
-0.13
-0.08
-0.02
-0.01
-0.07
-0.22
-0.42
-0.61
-0.75
-0.81
-0.82
-0.82
-0.82
-0.78
-0.63
-0.32
0.11
0.55
0.83
0.87
0.66
0.32
0.01
-0.15
-0.13
0.03
0.24
0.44
0.59
0.68
0.68
0.60
0.42
0.17
-0.11
-0.36
-0.52
-0.57
-0.53
-0.43
-0.34
-0.30
-0.30
-0.30
-0.23
-0.06
0.19
0.45
0.62
0.65
0.53
0.33
0.10
-0.10
-0.24
-0.32
-0.31
-0.22
-0.07
0.09
0.16
0.07
-0.18
-0.49
-0.73
-0.77
-0.58
-0.22
0.21
0.57
0.79
0.85
0.80
0.67
0.52
0.34
0.14
-0.07
-0.24
-0.32
-0.27
-0.13
0.05
0.15
0.10
-0.09
-0.37
-0.61
-0.74
-0.75
-0.67
-0.59
-0.53
-0.49
-0.46
-0.41
-0.39
-0.43
-0.56
-0.74
-0.89
-0.92
-0.77
-0.49
-0.15
0.15
0.34
0.43
0.46
0.46
0.38
0.18
-0.16
-0.57
-0.95
-1.20
-1.33
-1.48
-1.83
-2.53
-3.51
-4.58
-5.47
-5.98
-6.11
-5.98
-5.83
-5.79
-5.94
-6.23
-6.60
-6.91
-7.02
-6.79
-6.04
-4.68
-2.76
-0.47
1.91
4.10
5.93
7.41
8.68
9.88
11.04
12.06
12.72
12.82
12.31
11.35
10.21
9.15
8.31
7.62
6.92
6.07
5.04
3.94
2.87
1.90
0.95
-0.10
-1.36
-2.82
-4.34
-5.70
-6.71
-7.26
-7.39
-7.28
-7.21
-7.50
-8.37
-9.85
-11.66
-13.34
-14.41
-14.59
-13.91
-12.73
-11.41
-10.20
-9.04
-7.70
-5.89
-3.31
0.24
4.79
10.09
15.42
19.75
22.11
22.07
20.17
17.73
16.24
16.40
17.65
18.37
16.62
11.24
2.44
-8.35
-19.17
-28.02
-33.06
-32.62
-25.51
-11.87
6.18
24.61
38.64
44.69
42.03
33.06
21.94
12.47
6.35
2.94
0.35
-2.92
-6.98
-10.76
-13.07
-13.47
-12.54
-11.24
-10.09
-8.93
-7.15
-4.21
-0.22
4.02
7.45
9.26
9.25
7.79
5.54
3.16
1.07
-0.61
-1.90
-2.90
-3.72
-4.48
-5.29
-6.22
-7.20
-8.06
-8.60
-8.66
-8.18
-7.30
-6.21
-5.19
-4.47
-4.13
-4.13
-4.29
-4.41
-4.28
-3.84
-3.16
-2.41
-1.78
-1.39
-1.26
-1.32
-1.43
-1.48
-1.40
-1.15
-0.72
-0.13
0.59
1.41
2.29
3.18
4.03
4.76
5.26
5.46
5.33
4.94
4.37
3.73
3.10
2.50
1.93
1.39
0.85
0.35
-0.11
-0.52
-0.84
-1.06
-1.15
-1.14
-1.05
-0.96
-0.92
-0.94
-1.02
-1.12
-1.23
-1.34
-1.45
-1.56
-1.64
-1.65
-1.56
-1.39
-1.19
-1.03
-0.95
-0.99
-1.13
-1.32
-1.50
-1.59
-1.57
-1.48
-1.43
-1.52
-1.83
-2.38
-3.14
-4.08
-5.18
-6.50
-7.99
-9.57
-11.01
-12.10
-12.72
-12.98
-13.18
-13.66
-14.67
-16.20
-18.02
-19.79
-21.28
-22.52
-23.86
-25.77
-28.63
-32.50
-36.96
-41.23
-44.52
-46.42
-47.01
-47.00
-47.33
-48.81
-51.89
-56.68
-63.04
-70.60
-78.68
-86.10
-91.33
-92.87
-89.90
-82.74
-72.88
-62.43
-53.20
-45.98
-40.33
-35.03
-28.76
-20.69
-10.74
0.79
13.62
27.86
43.96
62.39
83.21
105.79
128.88
150.90
170.63
187.50
201.73
214.07
225.41
236.38
247.14
257.32
266.06
271.96
273.15
267.45
252.80
227.69
191.67
145.65
92.04
34.65
-21.78
-72.34
-112.80
-140.51
-154.91
-157.52
-151.41
-140.25
-127.36
-115.11
-104.74
-96.57
-90.33
-85.57
-81.72
-78.29
-74.83
-71.05
-66.78
-62.05
-57.07
-52.17
-47.67
-43.76
-40.44
-37.50
-34.66
-31.69
-28.53
-25.32
-22.27
-19.55
-17.20
-15.14
-13.24
-11.36
-9.50
-7.74
-6.18
-4.91
-3.98
-3.33
-2.91
-2.65
-2.47
-2.29
-2.05
-1.68
-1.18
-0.61
-0.09
0.29
0.48
0.53
0.54
0.63
0.85
1.17
1.47
1.63
1.58
1.31
0.92
0.48
0.10
-0.20
-0.41
-0.53
-0.59
-0.58
-0.56
-0.58
-0.66
-0.85
-1.09
-1.32
-1.51
-1.62
-1.67
-1.71
-1.76
-1.85
-1.97
-2.11
-2.27
-2.44
-2.62
-2.80
-2.99
-3.22
-3.53
-3.96
-4.49
-5.04
-5.47
-5.69
-5.67
-5.50
-5.36
-5.42
-5.73
-6.24
-6.79
-7.25
-7.56
-7.75
-7.93
-8.16
-8.40
