1660936198.00
64.000000
-0.00
-0.00
-0.00
-0.00
-0.00
-0.00
-0.00
-0.00
-0.00
-0.00
0.00
0.01
0.01
-0.00
-0.03
-0.05
-0.05
0.00
0.13
0.36
0.66
1.01
1.37
1.72
2.06
2.40
2.79
3.25
3.81
4.44
5.10
5.73
6.32
6.89
7.51
8.25
9.15
10.29
11.56
12.82
13.97
14.94
15.83
16.84
18.18
20.02
22.54
25.52
28.67
31.69
34.43
37.02
39.83
43.33
47.82
53.64
60.35
67.39
74.19
80.45
86.38
92.60
99.89
108.75
119.57
131.65
144.04
155.84
166.63
176.74
187.12
199.28
211.86
226.82
244.34
264.17
285.02
304.23
317.98
322.21
313.86
291.98
258.45
216.41
169.59
121.03
72.60
25.20
-20.58
-64.06
-104.58
-141.56
-175.55
-207.85
-240.21
-274.15
-309.98
-346.28
-379.70
-405.88
-420.65
-421.72
-409.60
-387.48
-359.90
-331.04
-303.44
-277.77
-253.53
-230.01
-207.28
-186.02
-167.01
-150.46
-135.81
-121.99
-108.10
-93.82
-79.47
-65.93
-54.07
-44.32
-36.54
-30.08
-24.14
-18.07
-11.65
-5.11
1.07
6.36
10.48
13.49
15.73
17.65
19.57
21.61
23.64
25.42
26.73
27.46
27.65
27.47
27.08
26.64
26.21
25.78
25.28
24.66
23.88
22.96
21.99
21.06
20.27
19.65
19.21
18.88
18.61
18.31
17.94
17.44
16.82
16.14
15.50
15.01
14.75
14.71
14.77
14.76
14.52
14.04
13.41
12.80
12.35
12.10
11.97
11.80
11.50
11.05
10.57
10.15
9.84
9.59
9.30
8.87
8.28
7.61
6.98
6.53
6.31
6.29
6.37
6.46
6.51
6.52
6.51
6.48
6.40
6.21
5.89
5.45
4.93
4.41
3.92
3.46
3.01
2.55
2.10
1.68
1.33
1.02
0.68
0.23
-0.38
-1.16
-2.04
-2.93
-3.72
-4.38
-4.91
-5.38
-5.84
-6.33
-6.86
-7.41
-7.97
-8.51
-9.02
-9.49
-9.84
-10.01
-9.97
-9.69
-9.24
-8.69
-8.15
-7.65
-7.17
-6.68
-6.13
-5.55
-4.98
-4.47
-4.03
-3.61
-3.12
-2.54
-1.92
-1.37
-1.00
-0.84
-0.77
-0.62
-0.25
0.34
1.06
1.71
2.15
2.36
2.42
2.43
2.44
2.44
2.37
2.26
2.14
2.13
2.26
2.53
2.83
3.09
3.25
3.33
3.41
3.53
3.67
3.78
3.84
3.84
3.84
3.91
4.08
4.30
4.53
4.67
4.72
4.68
4.62
4.58
4.59
4.65
4.72
4.78
4.79
4.74
4.63
4.47
4.30
4.12
3.95
3.78
3.60
3.42
3.26
3.13
3.06
3.02
2.98
2.92
2.82
2.72
2.66
2.70
2.81
2.94
2.99
2.89
2.62
2.26
1.90
1.69
1.68
1.87
2.16
2.40
2.47
2.31
1.96
1.54
1.20
1.03
1.07
1.24
1.46
1.64
1.74
1.73
1.64
1.48
1.28
1.08
0.90
0.75
0.61
0.50
0.45
0.50
0.65
0.89
1.14
1.31
1.36
1.30
1.21
1.16
1.18
1.25
1.32
1.35
1.32
1.24
1.11
0.96
0.82
0.75
0.77
0.89
1.05
1.15
1.15
1.04
0.90
0.78
0.75
0.80
0.91
1.05
1.19
1.34
1.45
1.51
1.52
1.50
1.52
1.60
1.70
1.73
1.59
1.25
0.79
0.40
0.21
0.23
0.36
0.39
0.21
-0.16
-0.58
-0.86
-0.87
-0.65
-0.32
-0.03
0.16
0.27
0.38
0.53
0.71
0.85
0.88
0.82
0.73
0.75
0.94
1.28
1.68
1.95
1.99
1.74
1.26
0.69
0.17
-0.18
-0.30
-0.22
-0.01
0.24
0.43
0.56
0.64
0.74
0.94
1.25
1.61
1.88
1.92
1.61
1.01
0.23
-0.50
-1.02
-1.25
-1.23
-1.06
-0.83
-0.56
-0.24
0.13
0.52
0.83
1.00
1.01
0.98
1.06
1.35
1.82
2.31
2.56
2.42
1.86
1.08
0.37
-0.00
0.07
0.52
1.11
1.60
1.78
1.59
1.12
0.57
0.14
-0.06
-0.02
0.13
0.22
0.18
-0.01
-0.23
-0.36
-0.36
-0.25
-0.12
-0.07
-0.10
-0.18
-0.28
-0.40
-0.57
-0.82
-1.11
-1.32
-1.34
-1.11
-0.68
-0.18
0.26
0.60
0.84
1.04
1.21
1.31
1.28
1.07
0.72
0.34
0.10
0.09
0.36
0.81
1.31
1.67
1.77
1.58
1.18
0.71
0.34
0.17
0.18
0.24
0.21
-0.01
-0.40
-0.82
-1.09
-1.08
-0.77
-0.29
0.19
0.51
0.58
0.40
0.02
-0.43
-0.87
-1.18
-1.29
-1.14
-0.71
-0.07
0.65
1.28
1.63
1.63
1.29
0.72
0.09
-0.44
-0.78
-0.93
-0.91
-0.79
-0.59
-0.36
-0.09
0.18
0.44
0.66
0.79
0.83
0.73
0.51
0.20
-0.11
-0.29
-0.25
0.02
0.39
0.72
0.86
0.78
0.56
0.31
0.13
0.00
-0.16
-0.44
-0.83
-1.20
-1.36
-1.18
-0.65
0.10
0.81
1.28
1.39
1.15
0.69
0.16
-0.29
-0.57
-0.66
-0.59
-0.45
-0.31
-0.21
-0.11
0.02
0.23
0.50
0.77
0.96
1.05
1.04
0.96
0.86
0.74
0.56
0.35
0.14
-0.01
-0.03
0.06
0.20
0.33
0.38
0.37
0.34
0.31
0.28
0.20
0.03
-0.23
-0.54
-0.82
-1.02
-1.10
-1.05
-0.88
-0.61
-0.26
0.10
0.42
0.61
0.66
0.59
0.47
0.36
0.28
0.25
0.25
0.29
0.42
0.64
0.95
1.23
1.37
1.27
0.92
0.41
-0.09
-0.42
-0.49
-0.31
0.02
0.35
0.54
0.54
0.35
0.06
-0.21
-0.34
-0.28
-0.04
0.32
0.70
0.99
1.13
1.08
0.87
0.52
0.14
-0.22
-0.49
-0.63
-0.63
-0.51
-0.33
-0.14
-0.04
-0.06
-0.20
-0.35
-0.42
-0.35
-0.16
0.05
0.17
0.12
-0.07
-0.29
-0.45
-0.47
-0.40
-0.32
-0.31
-0.41
-0.56
-0.68
-0.71
-0.65
-0.54
-0.41
-0.31
-0.22
-0.10
0.08
0.32
0.57
0.74
0.75
0.55
0.16
-0.31
-0.71
-0.90
-0.80
-0.48
-0.09
0.20
0.29
0.19
-0.01
-0.17
-0.20
-0.08
0.15
0.41
0.64
0.81
0.94
1.02
1.04
0.98
0.82
0.59
0.30
0.03
-0.16
-0.24
-0.19
-0.05
0.10
0.23
0.33
0.43
0.58
0.76
0.91
0.96
0.89
0.72
0.54
0.43
0.44
0.51
0.54
0.41
0.10
-0.37
-0.87
-1.29
-1.52
-1.53
-1.34
-1.01
-0.61
-0.18
0.21
0.53
0.75
0.83
0.75
0.50
0.12
-0.29
-0.64
-0.84
-0.87
-0.77
-0.64
-0.55
-0.53
-0.52
-0.42
-0.20
0.10
0.35
0.45
0.35
0.12
-0.12
-0.21
-0.13
0.10
0.35
0.54
0.65
0.71
0.76
0.78
0.74
0.58
0.29
-0.05
-0.33
-0.46
-0.43
-0.29
-0.14
-0.07
-0.09
-0.15
-0.16
-0.04
0.18
0.42
0.57
0.55
0.37
0.14
0.00
0.02
0.18
0.37
0.44
0.36
0.16
-0.04
-0.15
-0.15
-0.08
-0.07
-0.15
-0.34
-0.58
-0.82
-1.00
-1.11
-1.11
-1.00
-0.78
-0.49
-0.19
0.06
0.23
0.33
0.37
0.36
0.28
0.12
-0.08
-0.23
-0.22
-0.01
0.32
0.61
0.74
0.66
0.41
0.13
-0.09
-0.19
-0.20
-0.12
0.04
0.29
0.61
0.93
1.14
1.12
0.85
0.37
-0.17
-0.64
-0.93
-0.95
-0.72
-0.26
0.31
0.85
1.17
1.14
0.72
0.03
-0.72
-1.27
-1.43
-1.22
-0.77
-0.33
-0.07
-0.03
-0.12
-0.18
-0.12
0.05
0.21
0.26
0.19
0.08
0.08
0.25
0.51
0.68
0.57
0.16
-0.42
-0.92
-1.12
-0.95
-0.53
-0.07
0.26
0.41
0.48
0.59
0.81
1.09
1.31
1.35
1.18
0.85
0.48
0.19
0.01
-0.06
-0.09
-0.10
-0.10
-0.05
0.05
0.20
0.36
0.45
0.43
0.28
0.03
-0.27
-0.55
-0.74
-0.75
-0.53
-0.12
0.40
0.87
1.14
1.17
0.99
0.74
0.52
0.37
0.24
0.05
-0.24
-0.55
-0.75
-0.69
-0.36
0.15
0.64
0.91
0.88
0.59
0.17
-0.22
-0.47
-0.57
-0.58
-0.59
-0.64
-0.72
-0.77
-0.74
-0.62
-0.46
-0.32
-0.25
-0.25
-0.29
-0.33
-0.36
-0.40
-0.45
-0.50
-0.49
-0.36
-0.07
0.33
0.74
1.05
1.18
1.11
0.92
0.70
0.56
0.56
0.73
1.09
1.60
2.17
2.66
2.94
2.96
2.77
2.59
2.66
3.16
4.07
5.16
6.05
6.40
6.01
4.90
3.27
1.43
-0.30
-1.65
-2.41
-2.49
-1.93
-0.93
0.21
1.10
1.44
1.10
0.15
-1.11
-2.35
-3.26
-3.73
-3.79
-3.59
-3.32
-3.09
-2.95
-2.87
-2.83
-2.88
-3.12
-3.69
-4.63
-5.87
-7.21
-8.41
-9.26
-9.69
-9.75
-9.58
-9.28
-8.94
-8.57
-8.20
-7.87
-7.67
-7.68
-7.95
-8.45
-9.11
-9.79
-10.41
-10.85
-11.03
-10.79
-9.97
-8.42
-6.15
-3.30
-0.23
2.66
5.02
6.68
7.70
8.25
8.51
8.56
8.37
7.92
7.26
6.59
6.18
6.19
6.65
7.35
8.02
8.40
8.38
7.98
7.36
6.66
5.97
5.28
4.51
3.58
2.52
1.51
0.83
0.79
1.54
2.97
4.75
6.39
7.52
7.95
7.80
7.35
6.93
6.71
6.74
6.91
7.12
7.30
7.41
7.45
7.39
7.16
6.73
6.11
5.34
4.50
3.63
2.79
1.99
1.25
0.58
0.00
-0.48
-0.85
-1.08
-1.12
-0.94
-0.55
-0.05
0.44
0.81
1.01
1.07
1.07
1.06
1.08
1.12
1.21
1.35
1.52
1.65
1.62
1.29
0.61
-0.37
-1.50
-2.59
-3.51
-4.19
-4.63
-4.86
-4.94
-4.97
-5.12
-5.51
-6.24
-7.25
-8.32
-9.16
-9.50
-9.22
-8.38
-7.14
-5.72
-4.31
-2.98
-1.78
-0.79
-0.10
0.17
-0.03
-0.65
-1.52
-2.43
-3.15
-3.53
-3.55
-3.28
-2.90
-2.63
-2.67
-3.12
-3.93
-4.85
-5.51
-5.53
-4.67
-3.00
-0.88
1.17
2.63
3.17
2.78
1.71
0.41
-0.65
-1.15
-1.00
-0.32
0.60
1.49
2.20
2.74
3.19
3.63
4.07
4.38
4.43
4.18
3.72
3.24
2.89
2.75
2.77
2.86
2.94
2.94
2.82
2.57
2.18
1.66
1.05
0.38
-0.32
-1.00
-1.61
-2.04
-2.17
-1.90
-1.26
-0.37
0.59
1.41
1.97
2.27
2.39
2.42
2.43
2.41
2.32
2.09
1.70
1.15
0.47
-0.34
-1.25
-2.28
-3.37
-4.47
-5.49
-6.38
-7.13
-7.72
-8.01
-7.69
-6.36
-3.74
0.04
4.31
8.01
10.05
9.80
7.36
3.56
-0.36
-3.28
-4.58
-4.27
-2.87
-1.09
0.47
1.45
1.82
1.71
1.35
0.94
0.59
0.35
0.19
0.09
0.04
0.03
0.01
-0.13
-0.52
-1.25
-2.29
-3.41
-4.29
-4.64
-4.27
-3.25
-1.80
-0.18
1.36
2.65
3.61
4.18
4.31
3.97
3.20
2.12
0.92
-0.18
-0.98
-1.37
-1.34
-0.99
-0.49
-0.03
0.24
0.25
0.04
-0.34
-0.79
-1.23
-1.57
-1.70
-1.51
-0.93
-0.03
1.04
2.01
2.63
2.72
2.29
1.50
0.61
-0.10
-0.43
-0.36
0.00
0.42
0.63
0.45
-0.17
-1.11
-2.11
-2.94
-3.42
-3.56
-3.49
-3.41
-3.47
-3.79
-4.41
-5.33
-6.57
-8.14
-10.04
-12.19
-14.42
-16.49
-18.16
-19.29
-19.87
-20.09
-20.24
-20.66
-21.66
-23.38
-25.76
-28.57
-31.49
-34.24
-36.76
-39.21
-41.94
-45.27
-49.36
-54.05
-58.92
-63.42
-67.04
-69.54
-70.97
-71.70
-72.27
-73.29
-75.22
-78.36
-82.74
-88.17
-94.23
-100.40
-106.12
-111.06
-115.34
-119.48
-124.01
-128.82
-132.67
-133.32
-128.24
-115.65
-95.20
-67.81
-34.78
3.19
46.34
95.00
148.21
202.76
253.52
295.12
324.13
340.48
347.27
349.29
350.87
354.51
360.47
367.44
373.34
376.05
373.71
364.67
347.67
322.23
288.82
248.93
204.56
157.49
108.64
58.12
5.85
-47.32
-98.96
-145.17
-181.76
-205.76
-216.67
-216.57
-209.17
-198.30
-186.62
-175.20
-164.06
-153.09
-142.60
-133.35
-125.95
-120.31
-115.56
-110.41
-103.88
-95.73
-86.56
-77.54
-69.77
-63.84
-59.63
-56.40
-53.19
-49.20
-44.16
-38.40
-32.66
-27.70
-24.01
-21.59
-19.98
-18.52
-16.63
-14.08
-11.00
-7.82
-5.03
-2.97
-1.76
-1.23
-1.08
-0.98
-0.72
-0.30
0.17
0.50
0.55
0.31
-0.09
-0.49
-0.77
-0.89
-0.91
-0.89
-0.88
-0.85
-0.73
-0.51
-0.21
0.06
0.18
0.07
-0.21
-0.55
-0.81
-0.89
-0.80
-0.62
-0.47
-0.40
-0.40
-0.37
-0.19
0.26
1.01
2.01
3.10
4.09
4.77
4.96
4.54
3.56
2.18
0.71
-0.58
-1.44
-1.81
-1.78
-1.53
-1.27
-1.12
-1.13
-1.24
-1.42
-1.62
-1.85
-2.13
-2.45
-2.76
-2.99
-3.09
-3.06
-2.94
-2.76
-2.56
-2.32
-1.99
-1.47
-0.70
0.40
1.83
3.50
5.22
6.72
7.73
8.01
7.53
6.39
4.89
3.37
2.13
1.32
0.95
0.86
0.86
0.77
0.48
0.01
-0.57
-1.19
-1.78
-2.35
-2.91
-3.45
-3.91
-4.18
-4.16
-3.84
-3.29
-2.68
-2.14
-1.76
-1.49
-1.22
-0.81
-0.24
0.46
1.16
1.75
2.18
2.46
2.60
2.60
2.44
2.12
1.68
1.26
0.97
0.87
0.89
0.84
0.55
-0.07
-0.96
-1.97
-2.93
-3.75
-4.41
-4.93
-5.32
-5.53
-5.50
-5.21
-4.69
-4.08
-3.48
-2.97
-2.50
-2.00
-1.33
-0.34
1.08
2.94
5.10
7.28
9.06
10.06
10.07
9.17
7.70
6.11
4.80
3.93
3.45
3.18
2.94
2.62
2.19
1.65
0.98
0.12
-0.92
-2.08
-3.17
-4.01
-4.41
-4.34
-3.88
-3.23
-2.59
-2.16
-2.00
-2.11
-2.37
-2.62
-2.69
-2.46
-1.91
-1.09
-0.14
0.74
1.37
1.64
1.54
1.17
0.70
0.31
0.10
0.08
0.18
0.28
0.27
0.05
-0.40
-1.11
-2.01
-3.00
-3.93
-4.66
-5.06
-5.11
-4.82
-4.31
-3.67
-2.99
-2.32
-1.69
-1.10
-0.49
0.23
1.19
2.49
4.15
6.04
7.86
9.27
9.97
9.84
8.96
7.60
6.11
4.83
3.95
3.47
3.23
3.01
2.61
1.92
0.97
-0.12
-1.22
-2.20
-3.03
-3.72
-4.32
-4.83
-5.20
-5.36
-5.26
-4.91
-4.40
-3.86
-3.41
-3.12
-2.94
-2.77
-2.50
-2.05
-1.40
-0.61
0.27
1.16
2.05
2.89
3.62
4.13
4.33
4.16
3.66
2.97
2.26
1.68
1.24
0.83
0.25
-0.63
-1.86
-3.32
-4.81
-6.17
-7.26
-8.05
-8.52
-8.70
-8.62
-8.40
-8.18
-8.14
-8.40
-8.95
-9.65
-10.36
-10.98
-11.60
-12.45
-13.76
-15.61
-17.86
-20.16
-22.10
-23.43
-24.19
-24.79
-25.86
-28.03
-31.58
-36.34
-41.61
-46.49
-50.34
-53.10
-55.48
-58.65
-63.71
-71.10
-80.30
-89.96
-98.52
-104.87
-108.98
-112.01
-115.90
-122.69
-133.73
-149.05
-167.11
-185.02
-199.16
-206.06
-203.31
-190.22
-167.84
-138.44
-104.48
-67.67
-28.30
14.67
62.77
116.68
174.93
233.04
283.79
318.83
331.35
318.73
284.06
235.62
184.24
139.67
107.39
87.40
75.41
65.47
52.83
35.61
14.87
-6.38
-24.69
-37.18
-42.04
-38.33
-25.79
-4.90
22.94
55.14
87.98
117.17
138.92
151.08
153.76
149.26
140.98
131.98
123.72
115.65
105.93
92.93
76.56
58.58
41.82
28.61
19.58
13.36
7.50
-0.05
-9.77
-20.49
-30.28
-37.60
-42.11
-44.48
-45.70
-46.32
-46.21
-44.92
-42.20
-38.36
-34.14
-30.31
-27.25
-24.85
-22.70
-20.42
-17.84
-15.17
-12.78
-10.98
-9.87
-9.24
-8.72
-7.96
-6.86
-5.57
-4.50
-4.05
-4.55
-6.06
-8.43
-11.32
-14.36
-17.25
-19.80
-22.02
-23.95
-25.64
-27.02
-27.95
-28.30
-28.14
-27.77
-27.70
-28.45
-30.28
-32.98
-35.90
-38.15
-38.94
-37.99
-35.71
-33.14
-31.59
-32.12
-35.10
-40.03
-45.78
-51.05
-54.90
-57.13
-58.29
-59.38
-61.46
-65.30
-71.07
-78.13
-84.85
-88.69
-86.72
-76.61
-57.74
-31.79
-2.46
25.68
48.77
64.82
73.90
77.52
77.52
75.36
71.95
68.03
64.53
62.65
63.48
67.40
73.83
81.35
88.27
93.29
96.08
97.36
98.55
101.11
105.84
112.46
119.74
126.02
129.95
131.15
130.42
129.42
130.10
134.01
141.65
152.03
162.59
169.46
168.22
154.99
127.69
87.13
37.33
-15.21
-63.19
-100.59
-124.33
-134.75
-134.88
-128.79
-120.05
-110.78
-101.69
-92.78
-84.08
-75.94
-68.88
-63.14
-58.32
-53.53
-47.84
-40.76
-32.46
-23.65
-15.28
-8.11
-2.42
1.99
5.68
9.23
13.09
17.48
22.40
27.92
34.26
41.48
48.93
54.77
56.02
49.39
32.61
5.74
-28.46
-65.20
-99.24
-126.64
-145.80
-157.42
-163.67
-166.96
-169.05
-170.72
-171.98
-172.44
-171.82
-170.19
-168.10
-166.41
-166.03
-167.55
-171.28
-177.46
-186.40
-198.15
-212.07
-226.08
-236.61
-239.38
-230.77
-209.34
-176.26
-134.67
-88.07
-39.06
11.02
61.13
109.39
152.52
186.60
208.63
217.98
216.75
208.79
198.02
186.98
176.48
166.09
155.23
143.86
132.61
122.35
113.64
106.47
100.41
94.88
89.49
84.12
78.95
74.27
70.32
67.24
64.92
63.05
61.18
58.91
56.04
52.75
49.48
46.90
45.56
45.68
47.05
49.06
50.93
52.04
52.25
51.97
52.03
53.34
56.44
61.21
66.79
71.94
75.56
77.29
77.79
78.43
80.79
85.85
93.50
102.61
111.58
119.14
124.72
128.39
130.52
131.39
131.12
129.65
126.64
120.97
110.55
92.49
64.46
26.49
-17.80
-61.43
-96.16
-115.62
-117.72
-105.16
-83.95
-61.01
-41.92
-29.98
-26.18
-29.68
-38.36
-49.79
-62.14
-75.22
-90.52
-110.22
-135.36
-164.36
-192.95
-216.08
-230.28
-235.39
-234.27
-230.75
-227.46
-224.66
-221.03
-215.49
-208.72
-203.16
-201.97
-207.21
-218.66
-233.75
-248.28
-257.72
-258.42
-248.46
-227.82
-198.15
-161.82
-120.93
-76.54
-28.70
22.62
76.20
128.76
175.41
211.10
232.66
240.12
236.61
226.90
215.45
204.97
196.21
188.70
181.85
175.71
170.81
167.56
165.69
164.23
162.07
158.67
154.50
150.83
149.15
150.25
153.82
158.53
162.67
164.96
165.17
164.17
163.66
165.64
171.64
182.12
195.96
210.16
220.19
221.26
210.20
187.04
155.37
121.03
89.66
64.38
44.70
27.15
7.20
-18.64
-51.38
-89.21
-128.36
-164.32
-193.14
-212.39
-221.50
-221.56
-214.58
-202.66
-187.49
-170.41
-152.84
-136.69
-124.13
-116.66
-114.25
-115.07
-116.14
-114.66
-109.24
-100.43
-90.14
-80.64
-73.29
-68.07
-63.70
-58.57
-51.57
-42.70
-33.02
-24.10
-17.20
-12.74
-10.27
-8.86
-7.59
-5.96
-3.92
-1.71
0.44
2.40
4.09
5.35
5.94
5.58
4.17
1.87
-0.95
-3.89
-6.65
-9.12
-11.32
-13.37
-15.34
-17.18
-18.73
-19.67
-19.48
-17.66
-13.89
-8.42
-2.06
3.93
8.40
10.79
11.37
11.08
10.97
11.67
13.11
14.63
15.46
15.07
13.47
11.05
8.39
5.94
3.91
2.26
0.89
-0.36
-1.55
-2.70
-3.75
-4.65
-5.38
-5.96
-6.42
-6.81
-7.12
-7.30
-7.23
-6.84
-6.07
-4.96
-3.61
-2.20
-0.90
0.15
0.91
1.41
1.73
1.89
1.94
1.87
1.72
1.54
1.36
1.16
0.86
0.42
-0.17
-0.83
-1.45
-1.92
-2.20
-2.35
-2.48
-2.65
-2.88
-3.10
-3.25
-3.29
-3.27
-3.26
-3.34
-3.53
-3.81
-4.08
-4.27
-4.32
-4.26
-4.11
-3.94
-3.77
-3.57
-3.26
-2.78
-2.14
-1.40
-0.68
-0.07
0.37
0.68
0.94
1.21
1.54
1.90
2.23
2.48
2.64
2.73
2.81
2.92
3.08
3.26
3.41
3.45
3.34
3.09
2.75
2.38
2.02
1.69
1.34
0.93
0.45
-0.05
-0.51
-0.92
-1.29
-1.65
-2.04
