1660321138.00
64.000000
-0.00
-0.00
-0.00
-0.00
-0.00
-0.00
-0.00
-0.00
-0.00
-0.00
0.00
0.01
0.01
-0.00
-0.03
-0.05
-0.05
0.00
0.13
0.36
0.66
1.01
1.37
1.72
2.06
2.40
2.79
3.24
3.80
4.42
5.06
5.66
6.20
6.68
7.15
7.68
8.31
9.15
10.09
11.04
11.88
12.55
13.13
13.77
14.69
16.02
17.97
20.33
22.80
25.10
27.10
28.89
30.84
33.39
36.84
41.54
47.09
52.95
58.52
63.48
67.93
72.39
77.58
83.98
92.04
101.19
110.57
119.30
126.88
133.47
139.78
147.18
154.27
163.13
174.15
187.30
201.38
213.69
220.19
216.51
199.37
167.71
123.53
70.25
11.89
-48.27
-108.32
-167.41
-225.14
-281.03
-334.50
-384.70
-431.45
-474.52
-513.32
-546.40
-571.55
-586.26
-588.42
-577.16
-552.84
-517.46
-473.89
-425.48
-375.26
-325.18
-275.53
-224.80
-170.51
-110.46
-44.44
25.08
93.44
155.21
206.15
244.38
270.47
286.47
294.63
296.52
293.02
284.82
272.96
258.90
244.24
230.11
216.86
204.14
191.09
177.05
161.88
146.09
130.66
116.63
104.65
94.74
86.30
78.46
70.53
62.26
53.92
46.02
39.01
33.05
27.94
23.36
18.89
14.31
9.74
5.47
1.81
-1.05
-3.15
-4.69
-5.85
-6.76
-7.45
-7.89
-8.12
-8.25
-8.42
-8.69
-9.03
-9.28
-9.28
-8.94
-8.27
-7.35
-6.37
-5.48
-4.81
-4.43
-4.33
-4.46
-4.70
-4.86
-4.81
-4.43
-3.72
-2.79
-1.81
-0.98
-0.49
-0.43
-0.76
-1.37
-2.09
-2.71
-3.13
-3.30
-3.28
-3.18
-3.14
-3.24
-3.48
-3.78
-3.98
-3.97
-3.71
-3.26
-2.79
-2.46
-2.36
-2.43
-2.47
-2.33
-1.94
-1.41
-0.95
-0.75
-0.86
-1.15
-1.39
-1.41
-1.16
-0.70
-0.09
0.69
1.73
3.04
4.45
5.61
6.17
5.96
5.15
4.19
3.57
3.57
4.12
4.90
5.50
5.71
5.49
4.99
4.38
3.70
2.91
1.99
0.91
-0.26
-1.39
-2.38
-3.22
-3.95
-4.67
-5.39
-6.04
-6.53
-6.76
-6.73
-6.52
-6.24
-5.96
-5.71
-5.45
-5.15
-4.78
-4.35
-3.90
-3.43
-2.98
-2.55
-2.16
-1.82
-1.56
-1.37
-1.23
-1.16
-1.16
-1.25
-1.44
-1.66
-1.84
-1.90
-1.80
-1.59
-1.37
-1.21
-1.16
-1.17
-1.18
-1.14
-1.01
-0.84
-0.68
-0.58
-0.53
-0.49
-0.41
-0.28
-0.10
0.05
0.15
0.22
0.30
0.49
0.80
1.16
1.47
1.63
1.60
1.44
1.27
1.22
1.35
1.60
1.86
1.98
1.87
1.56
1.13
0.73
0.45
0.33
0.32
0.39
0.49
0.65
0.87
1.16
1.48
1.76
1.96
2.05
2.08
2.08
2.07
1.99
1.75
1.29
0.61
-0.24
-1.13
-1.93
-2.54
-2.89
-3.00
-2.94
-2.81
-2.76
-2.85
-3.10
-3.45
-3.77
-3.91
-3.79
-3.37
-2.71
-1.87
-0.96
-0.05
0.82
1.59
2.27
2.84
3.36
3.85
4.34
4.84
5.31
5.72
6.01
6.15
6.15
6.04
5.85
5.62
5.35
5.06
4.74
4.37
3.95
3.49
3.01
2.54
2.11
1.72
1.37
1.05
0.70
0.26
-0.35
-1.19
-2.28
-3.50
-4.65
-5.49
-5.81
-5.53
-4.77
-3.78
-2.85
-2.24
-2.04
-2.22
-2.58
-2.92
-3.06
-2.94
-2.61
-2.23
-1.97
-1.93
-2.14
-2.53
-2.98
-3.39
-3.70
-3.88
-3.92
-3.82
-3.57
-3.20
-2.76
-2.33
-2.03
-1.92
-2.03
-2.30
-2.64
-2.97
-3.22
-3.39
-3.51
-3.64
-3.79
-3.93
-3.98
-3.87
-3.56
-3.08
-2.49
-1.86
-1.20
-0.50
0.28
1.12
1.93
2.58
2.93
2.92
2.63
2.22
1.86
1.65
1.56
1.51
1.38
1.17
0.93
0.81
0.90
1.17
1.53
1.80
1.85
1.66
1.28
0.82
0.38
-0.02
-0.38
-0.73
-1.07
-1.37
-1.57
-1.63
-1.52
-1.27
-0.90
-0.47
0.00
0.45
0.82
1.06
1.14
1.09
0.93
0.71
0.45
0.12
-0.31
-0.87
-1.54
-2.25
-2.91
-3.42
-3.71
-3.76
-3.56
-3.12
-2.49
-1.80
-1.22
-0.89
-0.90
-1.21
-1.69
-2.18
-2.55
-2.76
-2.83
-2.84
-2.83
-2.82
-2.81
-2.80
-2.78
-2.74
-2.67
-2.51
-2.17
-1.59
-0.74
0.35
1.58
2.78
3.77
4.44
4.78
4.82
4.67
4.42
4.13
3.81
3.47
3.17
2.97
2.93
3.07
3.35
3.65
3.88
4.02
4.09
4.17
4.32
4.52
4.70
4.78
4.65
4.29
3.73
3.00
2.14
1.12
-0.06
-1.37
-2.66
-3.69
-4.22
-4.05
-3.16
-1.70
0.02
1.62
2.80
3.42
3.53
3.34
3.06
2.82
2.58
2.25
1.80
1.29
0.89
0.76
0.97
1.44
1.98
2.41
2.65
2.72
2.67
2.55
2.35
2.03
1.57
0.97
0.27
-0.43
-1.08
-1.59
-1.90
-1.96
-1.79
-1.45
-1.05
-0.72
-0.51
-0.42
-0.34
-0.13
0.33
1.08
2.04
3.05
3.92
4.54
4.92
5.15
5.36
5.63
5.92
6.12
6.12
5.91
5.51
5.01
4.44
3.77
2.92
1.82
0.48
-0.99
-2.43
-3.66
-4.59
-5.25
-5.75
-6.21
-6.73
-7.34
-7.96
-8.50
-8.90
-9.11
-9.16
-9.06
-8.79
-8.31
-7.54
-6.44
-5.06
-3.46
-1.75
-0.02
1.68
3.28
4.68
5.78
6.46
6.71
6.61
6.35
6.13
6.06
6.11
6.12
5.94
5.50
4.91
4.36
4.02
3.97
4.11
4.22
4.04
3.39
2.23
0.69
-1.05
-2.75
-4.24
-5.44
-6.32
-6.92
-7.31
-7.56
-7.71
-7.78
-7.79
-7.80
-7.90
-8.15
-8.61
-9.25
-9.95
-10.53
-10.86
-10.86
-10.60
-10.16
-9.64
-9.00
-8.18
-7.06
-5.61
-3.94
-2.18
-0.54
0.86
1.96
2.74
3.27
3.58
3.78
3.95
4.18
4.54
5.04
5.64
6.28
6.87
7.29
7.43
7.17
6.45
5.30
3.86
2.33
0.98
0.06
-0.25
0.13
1.15
2.61
4.22
5.65
6.59
6.86
6.48
5.60
4.46
3.29
2.24
1.35
0.62
0.03
-0.40
-0.67
-0.77
-0.74
-0.57
-0.25
0.30
1.13
2.23
3.47
4.59
5.33
5.48
5.05
4.15
3.02
1.82
0.60
-0.71
-2.22
-4.00
-5.97
-7.92
-9.52
-10.41
-10.32
-9.13
-6.90
-3.92
-0.60
2.57
5.13
6.77
7.44
7.28
6.60
5.71
4.90
4.33
4.02
3.86
3.61
3.08
2.16
0.96
-0.19
-0.88
-0.78
0.13
1.55
2.97
3.92
4.28
4.25
4.35
5.08
6.73
9.30
12.53
16.08
19.68
23.19
26.53
29.57
32.11
33.89
34.74
34.70
33.96
32.85
31.61
30.32
28.87
27.04
24.67
21.83
18.76
15.88
13.58
12.13
11.62
11.90
12.72
13.74
14.66
15.26
15.44
15.18
14.48
13.36
11.75
9.63
7.06
4.25
1.50
-0.93
-2.91
-4.59
-6.27
-8.26
-10.67
-13.36
-15.95
-18.02
-19.29
-19.79
-19.72
-19.39
-19.04
-18.72
-18.24
-17.29
-15.48
-12.54
-8.38
-3.13
2.91
9.34
15.72
21.72
27.04
31.48
34.93
37.32
38.62
38.85
37.96
35.82
32.12
26.50
18.78
9.10
-1.82
-12.84
-22.65
-30.20
-34.99
-37.18
-37.44
-36.63
-35.55
-34.72
-34.42
-34.69
-35.44
-36.47
-37.47
-38.09
-38.04
-37.18
-35.58
-33.48
-31.27
-29.33
-27.98
-27.41
-27.61
-28.37
-29.36
-30.24
-30.74
-30.76
-30.36
-29.70
-28.95
-28.20
-27.49
-26.84
-26.26
-25.78
-25.44
-25.24
-25.10
-24.87
-24.37
-23.46
-22.09
-20.33
-18.32
-16.25
-14.27
-12.48
-10.90
-9.49
-8.24
-7.10
-6.06
-5.07
-4.15
-3.29
-2.55
-2.01
-1.72
-1.68
-1.82
-1.99
-2.06
-1.94
-1.66
-1.28
-0.94
-0.69
-0.58
-0.60
-0.75
-1.03
-1.45
-2.01
-2.65
-3.27
-3.79
-4.15
-4.42
-4.74
-5.24
-6.00
-6.95
-7.91
-8.60
-8.84
-8.57
-7.92
-7.11
-6.35
-5.72
-5.15
-4.46
-3.53
-2.36
-1.09
0.05
0.95
1.61
2.17
2.80
3.53
4.32
4.96
5.32
5.35
5.15
4.86
4.62
4.50
4.48
4.56
4.71
4.91
5.12
5.22
5.08
4.59
3.77
2.75
1.73
0.84
0.12
-0.46
-0.99
-1.50
-1.99
-2.39
-2.67
-2.81
-2.81
-2.63
-2.22
-1.51
-0.50
0.73
2.03
3.23
4.25
5.02
5.59
5.97
6.19
6.30
6.33
6.38
6.52
6.79
7.17
7.60
7.98
8.22
8.31
8.24
8.00
7.56
6.81
5.69
4.21
2.51
0.85
-0.48
-1.29
-1.61
-1.69
-1.88
-2.44
-3.45
-4.73
-5.97
-6.86
-7.24
-7.08
-6.51
-5.64
-4.59
-3.43
-2.24
-1.11
-0.08
0.89
2.02
3.50
5.42
7.58
9.53
10.72
10.74
9.60
7.71
5.71
4.21
3.52
3.56
3.97
4.37
4.51
4.43
4.27
4.19
4.18
4.05
3.51
2.39
0.74
-1.17
-2.90
-4.07
-4.47
-4.18
-3.40
-2.41
-1.33
-0.15
1.30
3.22
5.69
8.62
11.73
14.62
16.86
18.07
18.01
16.62
14.13
11.00
7.86
5.37
4.03
3.98
4.99
6.53
7.93
8.62
8.24
6.73
4.29
1.32
-1.72
-4.43
-6.59
-8.15
-9.23
-10.04
-10.69
-11.20
-11.45
-11.28
-10.50
-8.99
-6.65
-3.43
0.62
5.27
9.98
14.07
16.80
17.76
17.00
15.14
13.08
11.67
11.36
12.05
13.19
14.07
14.17
13.24
11.37
8.83
5.92
2.92
0.11
-2.20
-3.74
-4.31
-3.89
-2.64
-0.83
1.25
3.42
5.56
7.63
9.60
11.38
12.82
13.76
14.01
13.37
11.68
8.94
5.40
1.63
-1.64
-3.72
-4.21
-3.19
-1.16
1.13
2.98
3.89
3.76
2.72
1.07
-0.84
-2.70
-4.24
-5.23
-5.54
-5.21
-4.43
-3.53
-2.82
-2.42
-2.17
-1.66
-0.35
2.15
5.97
10.77
15.82
20.09
22.50
22.27
19.20
13.85
7.39
1.33
-3.03
-5.01
-4.73
-2.98
-0.86
0.71
1.22
0.63
-0.77
-2.61
-4.55
-6.35
-7.85
-8.88
-9.27
-8.88
-7.61
-5.49
-2.57
0.98
5.04
9.47
14.09
18.59
22.46
24.99
25.45
23.29
18.35
11.05
2.30
-6.64
-14.50
-20.30
-23.59
-24.46
-23.50
-21.58
-19.53
-17.97
-17.17
-17.06
-17.35
-17.71
-17.91
-17.80
-17.35
-16.55
-15.47
-14.18
-12.80
-11.40
-9.94
-8.25
-6.05
-3.11
0.64
5.00
9.54
13.67
16.75
18.30
18.06
16.17
13.12
9.66
6.60
4.57
3.77
3.99
4.70
5.28
5.30
4.60
3.28
1.53
-0.40
-2.29
-3.93
-5.12
-5.62
-5.27
-4.07
-2.10
0.43
3.37
6.67
10.42
14.66
19.25
23.81
27.67
30.11
30.46
28.36
23.73
16.93
8.64
-0.09
-8.07
-14.21
-17.81
-18.86
-18.00
-16.27
-14.71
-13.98
-14.22
-15.18
-16.43
-17.68
-18.74
-19.50
-19.82
-19.52
-18.45
-16.64
-14.27
-11.65
-8.98
-6.24
-3.21
0.41
4.77
9.71
14.72
19.05
21.90
22.70
21.21
17.71
12.90
7.80
3.43
0.56
-0.54
-0.19
0.92
1.98
2.39
1.88
0.54
-1.36
-3.48
-5.61
-7.58
-9.22
-10.31
-10.55
-9.63
-7.39
-3.81
0.88
6.33
12.11
17.78
22.83
26.71
28.81
28.60
25.76
20.41
13.10
4.83
-3.23
-9.99
-14.68
-17.06
-17.35
-16.16
-14.32
-12.59
-11.55
-11.45
-12.24
-13.56
-15.01
-16.18
-16.85
-16.95
-16.61
-16.01
-15.24
-14.31
-13.03
-11.17
-8.47
-4.80
-0.17
5.24
11.04
16.64
21.32
24.35
25.18
23.64
20.03
15.09
9.82
5.16
1.78
-0.14
-0.86
-0.92
-0.92
-1.30
-2.22
-3.65
-5.41
-7.34
-9.30
-11.20
-12.89
-14.16
-14.75
-14.43
-13.09
-10.79
-7.66
-3.93
0.20
4.49
8.69
12.51
15.63
17.81
18.82
18.53
16.87
13.85
9.63
4.58
-0.69
-5.43
-8.97
-10.95
-11.39
-10.76
-9.70
-8.83
-8.55
-8.97
-9.97
-11.31
-12.75
-14.04
-14.96
-15.29
-14.90
-13.80
-12.15
-10.25
-8.40
-6.78
-5.38
-3.98
-2.27
0.04
3.00
6.34
9.55
12.01
13.17
12.78
10.99
8.34
5.59
3.46
2.48
2.77
4.09
5.95
7.75
9.00
9.35
8.70
7.06
4.60
1.57
-1.72
-4.84
-7.36
-8.93
-9.32
-8.50
-6.61
-3.89
-0.60
3.07
6.96
10.90
14.59
17.57
19.33
19.43
17.70
14.41
10.12
5.61
1.58
-1.50
-3.44
-4.31
-4.30
-3.70
-2.88
-2.21
-2.06
-2.69
-4.14
-6.20
-8.47
-10.45
-11.72
-12.04
-11.36
-9.85
-7.81
-5.57
-3.40
-1.41
0.47
2.44
4.76
7.65
11.15
15.05
18.86
21.86
23.24
22.35
18.92
13.22
6.14
-1.10
-7.18
-11.12
-12.57
-11.85
-9.77
-7.32
-5.30
-4.07
-3.58
-3.52
-3.59
-3.64
-3.73
-3.97
-4.31
-4.46
-3.97
-2.44
0.34
4.26
9.02
14.23
19.48
24.33
28.28
30.73
31.11
28.99
24.29
17.29
8.63
-0.81
-10.04
-18.10
-24.21
-27.95
-29.37
-28.96
-27.53
-25.93
-24.76
-24.20
-24.06
-23.90
-23.26
-21.87
-19.71
-17.00
-14.09
-11.32
-8.86
-6.73
-4.70
-2.46
0.33
3.91
8.33
13.34
18.39
22.63
25.15
25.24
22.66
17.86
11.86
5.96
1.28
-1.58
-2.68
-2.62
-2.16
-1.96
-2.30
-3.19
-4.39
-5.70
-6.98
-8.17
-9.21
-9.95
-10.17
-9.64
-8.19
-5.80
-2.55
1.44
6.01
11.06
16.40
21.71
26.44
29.87
31.31
30.25
26.55
20.49
12.76
4.34
-3.62
-10.06
-14.20
-15.80
-15.16
-13.08
-10.54
-8.43
-7.29
-7.27
-8.21
-9.76
-11.57
-13.29
-14.59
-15.19
-14.91
-13.74
-11.89
-9.63
-7.20
-4.58
-1.51
2.39
7.35
13.21
19.31
24.57
27.87
28.40
26.00
21.23
15.18
9.11
4.05
0.54
-1.40
-2.15
-2.26
-2.22
-2.36
-2.86
-3.81
-5.22
-7.01
-9.04
-11.06
-12.75
-13.84
-14.12
-13.55
-12.15
-9.99
-7.11
-3.47
0.99
6.23
11.97
17.59
22.18
24.85
24.99
22.53
17.96
12.10
5.83
-0.13
-5.25
-9.19
-11.72
-12.70
-12.25
-10.78
-8.99
-7.65
-7.37
-8.31
-10.22
-12.48
-14.39
-15.41
-15.33
-14.35
-12.91
-11.58
-10.69
-10.30
-10.09
-9.51
-7.95
-4.99
-0.58
4.96
10.84
16.07
19.64
20.86
19.51
15.97
11.06
5.88
1.45
-1.47
-2.54
-1.86
0.06
2.50
4.67
5.91
5.84
4.46
2.12
-0.65
-3.28
-5.33
-6.54
-6.88
-6.43
-5.34
-3.74
-1.73
0.62
3.31
6.32
9.65
13.19
16.62
19.46
21.12
21.09
19.11
15.23
9.87
3.69
-2.51
-7.92
-11.90
-14.06
-14.36
-13.18
-11.16
-9.06
-7.52
-6.82
-6.92
-7.54
-8.35
-9.08
-9.60
-9.86
-9.80
-9.41
-8.70
-7.73
-6.64
-5.57
-4.57
-3.58
-2.41
-0.84
1.26
3.80
6.42
8.56
9.54
8.83
6.28
2.30
-2.20
-6.03
-8.12
-7.95
-5.71
-2.24
1.34
4.10
5.57
5.80
5.17
4.07
2.72
1.16
-0.62
-2.48
-4.13
-5.15
-5.26
-4.39
-2.78
-0.77
1.30
3.32
5.36
7.59
10.08
12.67
14.98
16.50
16.80
15.61
12.88
8.83
3.85
-1.50
-6.56
-10.64
-13.14
-13.67
-12.22
-9.13
-5.09
-0.97
2.39
4.41
4.87
3.92
2.04
-0.18
-2.22
-3.77
-4.74
-5.25
-5.43
-5.35
-5.01
-4.37
-3.39
-2.14
-0.72
0.80
2.39
4.02
5.57
6.69
6.88
5.72
3.13
-0.42
-4.01
-6.60
-7.50
-6.67
-4.65
-2.33
-0.42
0.73
1.24
1.37
1.33
1.08
0.44
-0.77
-2.50
-4.43
-6.09
-7.05
-7.10
-6.32
-4.98
-3.40
-1.81
-0.25
1.36
3.06
4.78
6.36
7.61
8.48
9.06
9.52
9.95
10.21
9.94
8.69
6.15
2.35
-2.26
-6.91
-10.75
-13.11
-13.67
-12.51
-10.00
-6.69
-3.12
0.24
3.00
4.92
5.85
5.77
4.81
3.29
1.62
0.25
-0.45
-0.29
0.67
2.18
3.86
5.34
6.33
6.77
6.78
6.66
6.72
7.16
7.97
8.94
9.76
10.15
10.03
9.62
9.27
9.35
10.05
11.37
13.18
15.26
17.38
19.38
21.25
22.94
24.43
25.71
26.89
28.22
29.91
32.02
34.35
36.74
38.87
40.27
40.55
39.57
37.47
34.60
31.31
27.96
25.11
23.14
22.16
21.99
22.29
22.62
22.49
21.45
17.79
11.32
3.45
-3.58
-8.21
-10.20
-10.20
-8.89
-7.03
-4.72
-1.64
2.27
6.64
10.77
14.03
16.02
17.04
17.20
16.47
14.72
11.35
5.55
-3.37
-15.40
-29.59
-44.19
-57.22
-66.93
-72.21
-72.96
-70.02
-64.81
-58.83
-53.27
-48.84
-45.87
-44.30
-43.78
-43.87
-44.19
-44.47
-44.55
-44.38
-44.03
-43.64
-43.30
-43.03
-42.73
-42.19
-41.15
-39.37
-36.67
-33.08
-28.80
-24.19
-19.69
-15.65
-12.33
-9.79
-7.93
-6.54
-5.39
-4.30
-3.17
-2.03
-0.98
-0.17
0.35
0.62
0.83
1.18
1.81
2.65
3.50
4.04
4.04
3.42
2.35
1.14
0.15
-0.34
-0.25
0.33
1.12
1.77
2.02
1.73
0.94
-0.14
-1.21
-1.96
-2.17
-1.72
-0.64
0.92
2.75
4.62
6.35
7.88
9.23
10.50
11.75
12.99
14.11
15.01
15.54
15.58
15.08
14.03
12.52
10.72
8.87
7.24
6.04
5.34
5.07
5.07
5.14
5.14
4.97
4.56
3.87
2.86
1.53
-0.06
-1.81
-3.58
-5.30
-6.94
-8.51
-9.99
-11.28
-12.17
-12.42
-11.83
-10.34
-8.09
-5.37
-2.56
0.02
2.14
3.74
4.89
5.74
6.44
7.06
7.60
7.96
8.05
7.81
7.30
6.62
5.90
5.23
4.57
3.86
3.00
1.95
0.77
-0.41
-1.43
-2.20
-2.71
-3.03
-3.32
-3.70
-4.26
-5.00
-5.85
-6.68
-7.31
-7.53
-7.20
-6.26
-4.77
-2.90
-0.87
1.07
2.78
4.23
5.53
6.92
8.64
10.85
13.47
16.19
18.50
19.80
19.62
17.74
14.33
9.95
5.46
1.74
-0.63
-1.49
-1.19
-0.37
0.30
0.47
0.09
-0.59
-1.30
-1.93
-2.51
-3.24
-4.23
-5.50
-6.94
-8.39
-9.69
-10.72
-11.36
-11.54
-11.18
-10.26
-8.83
-6.98
-4.82
-2.46
0.05
2.73
5.61
8.72
11.97
15.13
17.75
19.32
19.40
17.87
15.06
11.69
8.70
6.82
6.29
6.84
7.80
8.48
8.49
7.81
6.72
5.51
4.34
3.17
1.86
0.40
-1.08
-2.31
-3.04
-3.20
-2.87
-2.26
-1.57
-0.86
-0.07
1.02
2.64
4.91
7.83
11.19
14.62
17.65
19.80
20.65
19.90
17.46
13.53
8.63
3.56
-0.74
-3.48
-4.28
-3.29
-1.15
1.20
2.91
3.42
2.65
0.87
-1.41
-3.72
-5.70
-7.20
-8.19
-8.73
-8.88
-8.76
-8.50
-8.21
-7.96
-7.68
-7.16
-6.10
-4.25
-1.50
2.00
5.80
9.29
11.86
13.01
12.56
10.65
7.78
4.63
1.90
0.12
-0.54
-0.21
0.75
1.93
3.02
3.82
4.29
4.40
4.12
3.39
2.18
0.58
-1.19
-2.78
-3.90
-4.38
-4.25
-3.72
-2.96
-2.08
-0.97
0.56
2.67
5.32
8.24
11.02
13.21
14.49
14.68
13.76
11.78
8.95
5.65
2.47
0.06
-1.03
-0.62
1.03
3.28
5.39
6.73
7.01
6.24
4.66
2.57
0.30
-1.89
-3.76
-5.11
-5.90
-6.21
-6.23
-6.18
-6.14
-5.97
-5.39
-4.07
-1.87
0.99
4.02
6.52
7.84
7.55
5.59
2.24
-1.93
-6.17
-9.73
-11.97
-12.58
-11.60
-9.45
-6.73
-4.07
-1.93
-0.50
0.20
0.25
-0.22
-1.12
-2.31
-3.61
-4.74
-5.45
-5.53
-4.91
-3.66
-1.93
0.13
2.46
5.08
8.01
11.15
14.22
16.71
18.05
17.73
15.51
11.49
