1660325131.00
64.000000
-0.00
-0.00
-0.00
-0.00
-0.00
-0.00
-0.00
-0.00
-0.00
-0.00
0.00
0.01
0.01
-0.00
-0.03
-0.05
-0.05
0.00
0.13
0.36
0.66
1.01
1.37
1.72
2.06
2.40
2.79
3.24
3.80
4.42
5.06
5.66
6.20
6.68
7.15
7.68
8.31
9.14
10.09
11.04
11.88
12.56
13.14
13.76
14.65
15.96
17.91
20.32
22.90
25.38
27.58
29.57
31.68
34.32
37.81
42.54
48.15
54.10
59.83
64.97
69.58
74.14
79.34
85.71
93.76
103.00
112.62
121.73
129.77
136.75
143.30
150.75
157.77
166.64
177.95
191.79
206.97
220.57
228.25
225.36
208.53
176.87
132.76
80.05
23.07
-34.94
-92.44
-149.16
-205.23
-260.37
-313.74
-363.87
-409.83
-450.91
-486.50
-515.74
-537.23
-549.22
-549.96
-538.37
-514.21
-478.67
-433.88
-382.45
-327.02
-269.84
-212.63
-156.66
-102.95
-52.37
-5.90
35.58
71.43
101.35
125.50
144.38
158.69
169.15
176.37
180.75
182.57
182.07
179.51
175.23
169.65
163.18
156.15
148.81
141.30
133.69
126.02
118.33
110.69
103.16
95.80
88.68
81.83
75.25
68.95
62.95
57.25
51.86
46.78
42.03
37.59
33.45
29.61
26.07
22.81
19.83
17.11
14.67
12.48
10.54
8.83
7.35
6.07
4.97
4.05
3.27
2.62
2.09
1.65
1.30
1.01
0.79
0.61
0.48
0.37
0.29
0.24
0.20
0.19
0.18
0.18
0.19
0.21
0.23
0.27
0.32
0.38
0.43
0.48
0.49
0.46
0.40
0.33
0.28
0.28
0.34
0.43
0.53
0.60
0.62
0.61
0.59
0.61
0.70
0.88
1.11
1.34
1.51
1.58
1.56
1.54
1.62
1.87
2.32
2.88
3.40
3.73
3.77
3.58
3.33
3.27
3.61
4.38
5.42
6.39
6.93
6.87
6.29
5.57
5.19
5.57
6.77
8.47
10.04
10.82
10.37
8.72
6.32
3.79
1.62
-0.11
-1.77
-4.00
-7.44
-12.55
-19.52
-28.19
-37.98
-47.55
-54.81
-57.30
-53.19
-42.24
-26.39
-9.27
5.15
14.12
17.16
15.88
12.86
10.28
9.06
8.85
8.76
8.12
6.91
5.58
4.59
4.09
3.85
3.43
2.44
0.86
-1.02
-2.72
-3.81
-4.12
-3.86
-3.43
-3.12
-2.87
-2.13
-0.16
3.55
8.84
14.89
20.41
24.23
25.69
24.84
22.26
18.71
14.80
10.82
6.93
3.26
0.03
-2.41
-3.81
-4.07
-3.43
-2.36
-1.43
-1.07
-1.39
-2.20
-3.13
-3.87
-4.30
-4.55
-5.00
-6.05
-7.92
-10.66
-14.17
-18.33
-23.08
-28.25
-33.47
-37.90
-40.44
-39.94
-35.65
-27.58
-16.53
-3.88
8.87
20.46
30.14
37.65
43.04
46.46
47.96
47.52
45.21
41.28
36.24
30.85
25.89
21.96
19.24
17.42
15.87
13.88
10.98
7.13
2.68
-1.76
-5.65
-8.65
-10.77
-12.22
-13.34
-14.46
-15.90
-17.91
-20.64
-24.01
-27.59
-30.51
-31.63
-29.97
-25.06
-17.17
-7.31
3.12
12.74
20.55
26.10
29.39
30.79
30.78
29.88
28.57
27.21
26.04
25.12
24.36
23.58
22.59
21.21
19.35
17.05
14.38
11.49
8.46
5.26
1.81
-2.00
-6.17
-10.54
-14.84
-18.73
-21.97
-24.50
-26.50
-28.24
-30.00
-31.73
-33.03
-33.17
-31.33
-26.97
-20.12
-11.44
-2.11
6.54
13.40
17.86
19.82
19.59
17.76
14.97
11.84
8.89
6.47
4.67
3.39
2.34
1.16
-0.50
-2.85
-5.97
-9.78
-14.12
-18.83
-23.77
-28.85
-33.97
-39.10
-44.15
-49.10
-53.96
-58.79
-63.60
-68.34
-72.88
-76.95
-80.18
-82.01
-81.71
-78.35
-71.13
-59.56
-43.88
-25.07
-4.73
15.34
33.61
49.06
61.30
70.36
76.46
79.87
80.88
79.88
77.41
74.08
70.56
67.32
64.55
62.14
59.72
56.86
53.19
48.57
43.07
36.97
30.59
24.18
17.92
11.92
6.32
1.29
-2.95
-6.35
-9.07
-11.47
-14.01
-16.92
-20.07
-22.91
-24.59
-24.28
-21.49
-16.32
-9.35
-1.60
5.86
12.14
16.65
19.16
19.69
18.46
15.83
12.28
8.44
4.93
2.34
0.96
0.76
1.33
2.15
2.71
2.73
2.18
1.24
0.08
-1.17
-2.50
-4.00
-5.78
-7.94
-10.56
-13.66
-17.24
-21.27
-25.62
-30.06
-34.24
-37.68
-39.79
-40.01
-37.89
-33.23
-26.22
-17.41
-7.68
1.96
10.57
17.51
22.45
25.42
26.69
26.63
25.62
23.97
21.91
19.61
17.26
15.06
13.24
11.90
10.97
10.26
9.47
8.40
7.02
5.41
3.70
1.93
-0.03
-2.38
-5.23
-8.56
-12.13
-15.69
-19.09
-22.38
-25.74
-29.25
-32.61
-35.06
-35.56
-33.21
-27.71
-19.53
-9.83
-0.05
8.60
15.44
20.27
23.27
24.70
24.78
23.74
21.88
19.61
17.34
15.34
13.71
12.30
10.94
9.47
7.85
6.06
4.16
2.18
0.16
-1.88
-3.92
-5.94
-7.96
-10.04
-12.19
-14.47
-16.90
-19.52
-22.33
-25.23
-27.93
-29.91
-30.45
-28.87
-24.77
-18.27
-10.08
-1.27
7.02
13.86
18.82
21.87
23.31
23.51
22.79
21.35
19.34
16.95
14.44
12.13
10.30
9.10
8.44
8.05
7.53
6.52
4.85
2.60
0.02
-2.57
-4.88
-6.80
-8.42
-9.91
-11.48
-13.24
-15.23
-17.43
-19.73
-21.99
-23.87
-24.86
-24.33
-21.72
-16.84
-10.02
-2.11
5.81
12.70
17.87
21.11
22.59
22.65
21.65
19.85
17.50
14.82
12.09
9.61
7.67
6.42
5.81
5.60
5.37
4.68
3.21
0.93
-1.89
-4.84
-7.50
-9.69
-11.47
-13.18
-15.16
-17.61
-20.55
-23.78
-27.02
-29.84
-31.76
-32.17
-30.54
-26.56
-20.39
-12.63
-4.28
3.57
10.06
14.66
17.28
18.10
17.48
15.87
13.70
11.40
9.32
7.67
6.51
5.72
5.05
4.22
3.03
1.37
-0.67
-2.90
-5.07
-6.96
-8.48
-9.68
-10.79
-12.08
-13.88
-16.38
-19.62
-23.41
-27.40
-30.98
-33.44
-34.04
-32.15
-27.50
-20.21
-10.94
-0.67
9.39
18.03
24.22
27.27
27.02
23.95
19.20
14.33
10.80
9.49
10.38
12.56
14.66
15.45
14.17
10.76
5.66
-0.45
-6.88
-13.12
-18.96
-24.54
-30.38
-37.28
-45.92
-56.38
-67.65
-77.67
-83.79
-83.66
-76.06
-61.23
-40.67
-16.53
9.03
34.08
56.93
75.92
89.67
97.44
99.72
98.32
95.90
95.00
97.05
101.91
108.10
113.43
115.91
114.15
107.65
96.62
81.81
64.31
45.42
26.44
8.44
-8.01
-23.00
-37.31
-52.02
-68.01
-85.35
-103.01
-119.07
-131.31
-138.00
-138.49
-133.21
-123.27
-109.90
-94.29
-77.68
-61.56
-47.57
-36.76
-28.89
-21.97
-12.83
1.47
22.04
47.40
73.90
97.19
114.03
123.38
126.36
125.29
122.39
118.97
115.21
110.56
104.36
96.10
85.52
72.54
57.15
39.70
21.27
3.69
-10.80
-20.23
-23.70
-21.79
-16.26
-9.24
-2.14
4.90
12.48
20.85
29.28
36.41
41.37
44.88
48.90
55.47
64.91
74.89
80.89
78.19
64.10
39.26
7.33
-27.25
-60.79
-91.34
-118.57
-142.98
-164.82
-183.45
-197.48
-205.71
-208.85
-208.89
-207.87
-206.25
-202.31
-192.82
-174.51
-145.99
-108.83
-68.39
-30.39
2.02
29.28
53.71
76.65
96.99
111.32
115.59
105.41
79.44
40.49
-5.49
-52.01
-94.56
-130.74
-159.86
-171.06
-157.41
-120.63
-71.65
-23.19
16.91
46.40
67.23
82.57
95.20
104.62
109.03
107.08
98.83
85.23
66.82
44.68
20.61
-2.41
-21.57
-33.80
-36.32
-28.28
-9.71
12.00
29.05
37.24
37.47
33.54
29.53
27.22
24.43
16.37
-1.68
-29.70
-62.29
-91.23
-109.13
-112.35
-101.83
-82.62
-60.89
-41.51
-25.82
-12.71
-0.74
10.02
17.79
21.19
20.47
18.39
19.03
26.54
43.17
68.34
99.39
128.95
151.73
165.22
169.95
168.18
162.66
155.35
146.89
137.09
125.66
113.37
101.43
90.89
81.69
73.08
64.28
55.07
45.90
37.55
31.17
27.19
24.91
22.23
16.56
5.98
-10.11
-30.87
-54.37
-77.77
-97.85
-109.95
-111.36
-103.39
-90.07
-75.26
-61.03
-48.04
-36.15
-25.44
-16.18
-9.11
-4.61
-2.21
-0.71
1.13
4.06
8.25
13.16
18.17
22.44
25.39
27.10
28.14
29.19
30.57
32.27
33.67
34.44
34.22
32.86
30.50
27.75
25.26
23.50
22.68
22.22
22.04
22.01
21.95
21.78
21.46
20.94
20.06
18.56
15.42
10.47
3.71
-4.79
-14.87
-26.26
-38.69
-51.93
-60.88
-66.52
-69.74
-71.16
-71.12
-69.84
-67.50
-64.28
-60.37
-56.00
-52.14
-48.80
-45.94
-43.47
-41.24
-39.14
-37.09
-35.07
-33.10
-31.83
-31.14
-30.99
-31.23
-31.68
-32.17
-32.60
-32.99
-33.44
-34.47
-35.97
-37.86
-39.80
-41.29
-41.83
-41.08
-39.05
-36.02
-33.85
-32.01
-30.44
-28.89
-26.96
-24.19
-20.53
-16.42
-12.80
-10.82
-11.10
-13.88
-18.50
-23.72
-28.26
-31.22
-32.58
-33.02
-33.76
-35.84
-40.03
-46.46
-54.48
-62.56
-68.58
-70.35
-66.27
-56.27
-42.31
-28.38
-19.38
-19.35
-29.66
-48.19
-70.09
-89.75
-103.08
-108.99
-109.26
-107.37
-106.60
-108.60
-113.07
-118.40
-122.54
-123.68
-121.85
-116.50
-106.81
-92.06
-72.33
-49.09
-25.30
-4.66
9.53
15.55
14.11
7.59
-0.90
-8.73
-14.42
-17.76
-19.12
-18.87
-16.90
-12.47
-4.95
5.83
19.12
33.35
46.26
55.40
58.52
54.18
42.07
23.25
0.07
-24.27
-46.37
-63.59
-74.63
-79.92
-81.24
-80.99
-81.28
-83.12
-86.18
-89.02
-89.76
-86.97
-80.19
-70.10
-58.03
-45.46
-33.45
-22.53
-12.76
-4.03
3.67
10.24
15.58
19.83
23.29
26.47
29.93
34.27
40.18
48.44
59.76
74.32
91.30
108.73
124.25
136.03
143.89
149.74
156.81
168.44
186.80
212.44
244.55
281.45
320.52
358.02
389.23
409.49
416.00
409.13
392.40
370.73
347.93
325.25
301.73
276.26
249.27
223.27
201.44
185.53
174.49
165.01
153.34
137.32
117.23
95.10
73.38
53.78
36.82
22.20
9.27
-2.66
-14.23
-25.95
-37.92
-49.43
-59.14
-65.60
-68.17
-67.50
-65.44
-63.96
-64.08
-65.02
-64.56
-60.19
-50.42
-35.42
-16.77
3.67
24.75
46.32
68.55
90.93
111.64
127.89
137.21
138.89
134.77
128.70
124.87
126.04
132.39
141.91
151.57
158.62
161.22
158.30
148.95
132.21
107.45
75.09
37.00
-3.66
-43.15
-78.18
-106.80
-128.68
-144.78
-156.61
-165.47
-172.01
-176.28
-178.10
-177.61
-175.43
-172.60
-170.16
-168.83
-168.90
-170.27
-172.73
-176.12
-180.32
-185.08
-189.81
-193.48
-194.62
-191.69
-183.51
-169.86
-151.81
-131.46
-111.39
-93.69
-79.42
-68.35
-59.32
-50.84
-41.70
-31.47
-20.50
-9.70
0.00
8.32
16.15
25.57
39.11
58.73
84.37
113.27
140.48
160.25
168.07
162.25
144.73
120.54
96.33
78.15
69.68
71.33
80.69
93.79
106.55
115.87
119.79
117.39
108.46
93.51
73.95
51.99
30.18
10.68
-5.47
-18.40
-28.93
-37.79
-45.08
-50.27
-53.01
-53.50
-52.75
-52.30
-53.48
-56.82
-61.93
-67.63
-72.34
-74.47
-72.69
-66.28
-55.56
-42.34
-29.87
-22.20
-22.77
-32.88
-50.70
-71.57
-89.53
-99.63
-99.83
-91.63
-79.35
-68.04
-61.46
-60.85
-64.98
-71.20
-76.85
-80.13
-80.48
-78.21
-73.99
-68.44
-62.08
-55.36
-48.74
-42.60
-36.87
-30.72
-22.84
-12.14
1.26
15.56
27.84
35.45
37.40
34.95
30.94
28.30
28.57
31.46
35.61
39.73
43.45
47.15
51.14
55.10
58.22
59.86
59.98
59.08
57.43
54.62
49.39
40.12
25.65
6.07
-16.89
-39.81
-58.38
-68.70
-68.98
-60.55
-47.83
-36.74
-32.22
-36.09
-46.43
-58.83
-68.63
-73.11
-72.27
-68.05
-62.86
-58.38
-55.37
-54.00
-54.35
-56.48
-60.14
-64.36
-67.54
-67.99
-64.90
-59.00
-52.50
-48.13
-47.79
-51.68
-58.39
-65.87
-72.61
-78.18
-82.79
-86.21
-86.83
-81.82
-68.59
-46.62
-18.83
8.79
29.13
36.80
29.88
10.13
-18.45
-51.82
-87.37
-124.16
-162.22
-201.29
-239.74
-274.51
-302.03
-319.50
-325.76
-321.09
-306.38
-282.39
-249.84
-210.47
-168.24
-129.48
-101.12
-88.00
-90.69
-105.13
-124.63
-142.74
-155.42
-161.17
-159.74
-150.93
-134.68
-112.29
-87.20
-64.13
-46.34
-33.21
-19.42
2.73
39.28
90.78
151.09
209.55
255.04
280.00
282.51
265.91
236.67
201.82
167.14
136.36
111.22
91.67
75.95
60.74
41.39
13.31
-26.10
-75.64
-129.88
-180.42
-218.70
-238.99
-240.28
-226.15
-202.99
-177.30
-153.69
-134.18
-118.73
-106.49
-96.68
-88.80
-82.38
-76.57
-70.22
-62.31
-52.46
-41.07
-29.20
-18.09
-8.57
-0.81
5.63
11.48
17.24
22.91
27.86
31.12
31.80
29.62
25.10
19.46
14.22
10.72
9.68
11.06
14.25
18.46
23.18
28.43
34.70
42.68
52.74
64.69
77.66
90.34
102.24
113.04
122.57
130.73
137.65
143.59
148.56
152.25
154.19
154.88
155.10
155.59
156.94
159.82
165.23
174.57
189.29
209.96
236.98
267.39
294.57
310.60
310.04
292.86
264.46
233.19
206.94
195.46
202.46
224.76
255.01
286.98
318.31
349.51
381.27
412.72
451.72
501.62
557.92
609.96
647.69
665.81
663.37
642.23
606.43
579.03
579.00
612.44
671.53
742.95
814.76
877.76
925.48
955.10
989.75
1048.11
1132.82
1229.95
1321.50
1395.88
1449.13
1482.32
1363.45
1036.27
545.07
9.19
-464.24
-828.91
-1086.56
-1258.72
-1368.86
-1435.79
-1451.47
-1412.28
-1330.13
-1231.28
-1142.14
-1077.76
-1041.04
-1026.38
-1023.71
-1005.83
-954.64
-870.19
-769.01
-671.23
-589.67
-527.58
-482.36
-448.88
-411.45
-359.92
-294.54
-224.21
-160.91
-109.18
-69.03
-39.43
-20.93
-10.79
-8.72
-16.37
-35.21
-63.22
-94.03
-120.59
-138.29
-146.57
-145.49
-136.36
-121.12
-102.00
-80.82
-58.74
-37.17
-18.07
-3.26
6.42
10.37
10.08
8.19
7.08
8.04
10.21
11.01
7.61
-0.52
-11.91
-22.50
-27.59
-24.49
-14.15
-1.21
8.03
8.71
-0.19
-15.85
-33.08
-47.16
-55.84
-59.53
-60.12
-59.26
-57.24
-52.96
-45.30
-34.07
-20.70
-7.89
1.68
6.59
7.41
5.61
3.74
3.87
6.75
11.61
16.68
20.23
21.13
19.12
14.66
8.69
2.30
-3.22
-6.64
-7.05
-4.26
0.93
6.99
12.06
14.73
14.20
10.50
4.22
-3.74
-12.43
-20.98
-28.67
-34.89
-39.03
-40.50
-38.78
-33.45
-24.43
-12.11
2.62
18.50
34.08
48.09
59.54
67.86
72.77
74.34
72.86
68.93
63.38
57.16
51.15
45.97
41.78
38.30
34.95
31.08
26.18
20.05
12.89
5.26
-2.13
-8.62
-13.84
-17.85
-21.09
-24.22
-27.70
-31.48
-34.83
-36.52
-35.30
-30.40
-21.95
-10.95
1.12
12.82
23.20
31.84
38.71
43.77
46.83
47.58
45.87
41.98
36.65
30.88
25.57
21.18
17.65
14.56
11.42
7.95
4.21
0.47
-2.95
-5.87
-8.32
-10.58
-13.06
-16.20
-20.26
-25.19
-30.42
-34.88
-37.25
-36.38
-31.69
-23.50
-12.95
-1.55
9.24
18.45
25.64
30.71
33.70
34.62
33.52
30.66
26.58
22.00
17.60
13.76
10.43
7.25
3.78
-0.18
-4.51
-8.80
-12.61
-15.70
-18.13
-20.18
-22.24
-24.66
-27.68
-31.39
-35.73
-40.37
-44.65
-47.56
-47.98
-45.01
-38.32
-28.39
-16.36
-3.71
8.13
18.11
25.65
30.50
32.71
32.50
30.28
26.67
22.42
18.23
14.59
11.69
9.45
7.60
5.91
4.20
2.40
0.49
-1.54
-3.70
-5.93
-8.21
-10.61
-13.30
-16.55
-20.50
-24.93
-29.11
-31.85
-31.92
-28.50
-21.55
-11.90
-1.00
9.56
18.38
24.58
27.78
28.06
25.84
21.81
16.88
11.95
7.81
4.82
2.94
1.75
0.66
-0.78
-2.78
-5.24
-7.90
-10.49
-12.89
-15.21
-17.69
-20.66
-24.21
-28.10
-31.63
-33.82
-33.62
-30.40
-24.11
-15.39
-5.33
4.85
14.12
21.76
27.37
30.78
31.99
31.18
28.73
25.18
21.13
17.07
13.26
9.78
6.55
3.51
0.64
-2.01
-4.40
-6.51
-8.43
-10.32
-12.37
-14.80
-17.79
-21.41
-25.53
-29.66
-33.03
-34.66
-33.67
-29.58
-22.53
-13.30
-3.17
6.50
14.51
20.09
22.90
23.03
20.84
16.91
12.01
6.93
2.39
-1.11
-3.42
-4.69
-5.20
-5.28
-5.12
-4.81
-4.39
-3.97
-3.75
-4.04
-5.16
-7.36
-10.69
-14.88
-19.33
-23.14
-25.34
-25.13
-22.18
-16.75
-9.63
-1.91
5.35
11.35
15.63
18.04
18.63
17.60
15.23
11.96
8.34
4.95
2.26
0.62
0.14
0.79
2.40
4.64
7.03
8.98
9.81
8.96
6.16
1.55
-4.35
-10.76
-16.91
-22.03
-25.50
-26.78
-25.45
-21.37
-14.82
-6.53
2.39
10.79
17.80
23.00
26.41
28.29
28.91
28.42
26.85
24.28
20.87
16.92
12.74
8.56
4.53
0.73
-2.76
-5.75
-8.01
-9.33
-9.70
-9.32
-8.62
-8.22
-8.72
-10.60
-13.98
-18.46
-23.22
-27.09
-28.89
-27.82
-23.67
-16.87
-8.42
0.47
8.63
15.23
19.76
22.02
22.05
20.06
16.44
11.80
6.92
2.55
-0.72
-2.67
-3.50
-3.72
-3.95
-4.63
-6.00
-7.97
-10.36
-12.99
-15.83
-19.00
-22.68
-26.92
-31.45
-35.62
-38.45
-38.95
-36.39
-30.69
-22.40
-12.59
-2.45
6.99
15.09
21.52
26.13
28.90
29.89
29.33
27.72
25.64
23.65
21.99
20.57
18.99
16.81
13.75
9.83
5.33
0.71
-3.56
-7.09
-9.71
-11.50
-12.85
-14.34
-16.49
-19.54
-23.24
-26.78
-29.11
-29.22
-26.66
-21.59
-14.79
-7.34
-0.24
5.80
10.43
13.61
15.46
16.20
16.14
15.66
15.10
14.73
14.61
14.54
14.21
13.29
11.59
9.17
6.23
3.06
-0.04
-2.88
-5.42
-7.76
-10.14
-12.79
-15.81
-19.03
-21.88
-23.52
-23.13
-20.23
-14.91
-7.85
-0.14
7.09
12.94
16.90
18.87
19.02
17.62
15.06
11.82
8.47
5.56
3.49
2.36
1.89
1.56
0.76
-0.90
-3.47
-6.65
-9.93
-12.88
-15.26
-17.11
-18.73
-20.53
-22.84
-25.73
-28.85
-31.46
-32.54
-31.14
-26.74
-19.47
-10.19
-0.20
9.06
16.43
21.26
23.40
23.18
21.15
17.99
14.32
10.67
7.42
4.80
2.87
1.52
0.55
-0.34
-1.41
-2.83
-4.65
-6.78
-9.12
-11.63
-14.40
-17.62
-21.44
-25.79
-30.16
-33.62
-35.05
-33.47
-28.47
-20.39
-10.30
0.30
9.92
17.41
22.20
24.21
23.81
21.59
18.30
14.75
11.65
9.49
8.42
8.25
8.59
8.92
8.84
8.10
6.60
4.29
1.19
-2.69
-7.27
-12.43
-17.92
-23.38
-28.32
-32.04
-33.82
-32.95
-29.12
-22.51
-13.90
-4.49
4.45
11.91
17.35
20.69
22.18
22.20
21.08
19.10
16.50
13.55
10.54
7.73
5.28
3.18
1.29
-0.58
-2.60
-4.87
-7.39
-10.21
-13.48
-17.43
-22.19
-27.55
-32.76
-36.62
-37.81
-35.42
-29.30
-20.17
-9.35
1.66
11.65
19.85
25.95
29.92
31.90
32.10
30.85
28.58
25.77
22.85
20.09
17.56
15.20
12.90
10.55
8.11
5.60
3.01
0.36
-2.43
-5.47
-8.99
-13.24
-18.32
-23.99
-29.53
-33.80
-35.48
-33.58
-27.79
-18.64
-7.40
4.40
15.33
24.43
31.24
35.63
37.71
37.64
35.78
32.63
28.93
25.35
22.41
20.28
18.73
17.33
15.63
13.38
10.59
7.45
4.22
1.04
-2.09
-5.32
-8.90
-13.09
-18.04
-23.71
-29.62
-34.86
-38.17
-38.29
-34.41
-26.56
-15.69
-3.41
8.54
18.85
26.87
32.57
36.19
38.00
38.11
36.59
33.70
29.96
26.13
22.92
20.80
19.77
19.46
19.28
18.70
17.40
15.34
12.70
9.75
6.74
3.84
1.13
-1.38
-3.76
-6.20
-8.99
-12.49
-16.98
-22.44
-28.42
-33.89
-37.55
-38.11
-34.82
-27.73
-17.71
-6.17
5.37
15.67
23.99
30.04
33.86
35.62
35.62
34.27
32.10
29.72
27.60
25.97
24.73
23.53
22.02
20.00
17.55
14.96
12.61
10.72
9.29
8.07
6.74
5.07
2.97
0.53
-2.08
-4.73
-7.37
-10.01
-12.73
-15.61
-18.77
-22.23
-25.81
-29.00
-30.95
-30.62
-27.21
-20.48
-11.01
-0.05
10.83
20.26
27.44
32.22
34.89
35.97
35.93
35.13
33.89
32.52
31.31
30.42
29.80
29.10
27.86
25.69
22.47
18.42
13.98
9.64
5.66
2.04
-1.39
-4.79
-8.22
-11.52
-14.45
-16.81
-18.51
-19.64
-20.40
-21.10
-22.04
-23.51
-25.57
-28.03
-30.30
-31.48
-30.62
-27.07
-20.73
-12.26
-2.78
6.36
14.06
19.64
22.91
24.03
23.34
21.31
18.41
15.18
12.11
9.62
7.92
7.05
6.82
7.00
7.24
7.22
6.59
5.07
2.51
-1.04
-5.33
-10.02
-14.73
-19.23
-23.38
-27.18
-30.67
-33.87
-36.71
-38.97
-40.22
-39.74
-36.71
-30.37
-20.35
-6.94
8.90
25.61
41.44
54.81
64.64
70.48
72.44
70.97
66.65
60.08
51.80
42.40
32.42
22.42
12.83
3.93
-4.17
-11.46
-17.92
-23.44
-27.81
-30.81
-32.29
-32.24
-30.83
-28.40
-25.38
-22.29
-19.78
-18.52
-19.13
-21.93
-26.76
-32.80
-38.63
-42.58
-43.21
-39.85
-32.84
-23.36
-13.04
-3.31
4.97
11.57
16.66
20.48
23.05
24.25
23.99
22.37
19.79
16.78
13.83
11.20
8.91
6.81
4.75
2.64
0.57
-1.30
-2.82
-3.98
-4.93
-5.98
-7.52
-9.86
-13.16
-17.41
-22.39
-27.73
-32.89
-37.08
-39.39
-38.88
-34.94
-27.56
-17.53
-6.28
4.56
13.59
20.09
23.98
25.67
25.73
24.59
22.59
20.04
17.36
15.08
13.67
13.31
13.86
14.83
15.62
15.75
14.98
13.31
10.88
7.81
4.18
0.01
-4.64
-9.63
-14.74
-19.79
-24.64
-29.27
-33.65
-37.59
-40.66
-42.20
-41.51
-38.14
-32.13
-24.09
-15.06
-6.13
1.80
8.29
13.23
16.73
18.96
19.99
19.88
18.75
16.91
14.79
12.82
11.32
10.30
9.53
8.61
7.16
4.98
2.11
-1.22
-4.71
-8.16
-11.55
-15.02
-18.75
-22.82
-27.15
-31.51
-35.49
-38.60
-40.19
-39.62
-36.29
-29.95
-20.91
-10.16
0.88
10.64
17.94
22.27
23.76
22.97
20.48
16.72
11.94
6.42
0.62
-4.74
-8.95
-11.51
-12.37
-11.88
-10.60
-9.00
-7.28
-5.40
-3.29
-1.09
0.79
1.71
1.07
-1.45
-5.74
-11.27
-17.12
-22.16
-25.25
-25.45
-22.26
-15.92
-7.34
2.06
10.76
17.55
21.86
23.77
23.83
22.75
21.11
19.28
17.44
15.63
13.86
12.19
10.70
9.53
8.85
8.75
9.17
9.90
10.57
10.79
10.30
9.01
7.07
4.74
2.22
-0.46
-3.48
-7.12
-11.45
-16.16
-20.50
-23.47
-24.17
-22.26
-18.03
-12.35
-6.27
-0.60
4.26
8.27
11.51
13.91
15.23
15.27
14.10
12.14
9.99
8.22
6.98
5.98
4.66
2.49
-0.73
-4.77
-9.10
-13.13
-16.40
-18.80
-20.49
-21.89
-23.49
-25.75
-28.90
-32.94
-37.46
-41.65
-44.35
-44.26
-40.30
-32.01
-19.85
-5.09
10.49
25.19
37.87
48.02
55.59
60.50
62.35
60.44
54.08
43.11
28.25
11.10
-6.17
-21.29
-32.29
-37.91
-37.69
-32.06
-22.26
-10.03
2.74
14.34
23.44
29.14
30.84
28.13
20.92
9.53
-5.03
-21.14
-36.79
-49.95
-58.91
-62.57
-60.48
-52.87
-40.64
-25.17
-8.17
8.64
23.86
36.54
46.21
52.67
55.90
55.95
53.08
47.96
41.55
35.00
29.27
24.86
21.74
19.51
17.65
15.82
13.86
11.75
9.45
6.80
3.61
-0.20
-4.45
-8.77
-12.75
-16.20
-19.26
-22.27
-25.47
-28.72
-31.38
-32.47
-31.09
-26.87
-20.17
-12.08
-3.97
2.92
7.94
11.19
13.35
15.34
17.97
21.68
26.48
32.08
37.97
43.60
48.39
51.77
53.21
52.35
49.08
43.60
36.45
28.27
19.69
11.12
2.77
-5.29
-13.03
-20.37
-27.29
-33.89
-40.45
-47.27
-54.35
-61.05
-66.01
-67.44
-63.73
-54.26
-39.77
-22.23
-4.17
12.17
25.52
35.69
43.25
48.97
53.39
56.68
58.78
59.63
59.28
57.90
55.62
52.51
48.54
43.69
38.06
31.84
25.34
18.82
12.37
5.88
-1.01
-8.68
-17.43
-27.33
-38.09
-49.22
-60.03
-69.87
-78.11
-84.26
-87.87
-88.52
-85.89
-79.91
-70.95
-59.93
-48.19
-37.28
-28.45
-22.27
-18.47
-15.96
-13.27
-9.00
-2.31
6.88
17.93
29.73
41.04
50.80
58.24
62.95
64.79
63.76
59.95
53.59
45.10
35.14
24.58
14.40
5.42
-1.79
-7.07
-10.64
-12.90
-14.37
-15.57
-17.07
-19.43
-23.05
-28.01
-33.74
-39.10
-42.60
-42.87
-39.17
-31.64
-21.30
-9.59
1.99
12.30
20.76
27.21
31.80
34.81
36.53
37.20
37.03
36.16
34.74
32.91
30.77
28.42
25.92
23.31
20.58
17.72
14.74
11.63
8.41
5.10
1.80
-1.35
-4.12
-6.26
-7.58
-8.11
-8.20
-8.49
-9.79
-12.80
-17.67
-23.82
-29.97
-34.49
-36.01
-33.91
-28.55
-21.03
-12.69
-4.60
2.76
9.43
15.71
21.79
27.60
32.75
36.80
39.44
40.63
40.59
39.73
38.40
36.79
34.90
32.54
29.55
25.84
21.48
16.63
11.50
6.28
1.05
-4.11
-9.12
-13.88
-18.31
-22.36
-26.12
-29.79
-33.65
-37.90
-42.41
-46.56
-49.19
-48.89
-44.47
-35.48
-22.62
-7.58
7.33
19.88
28.51
32.58
32.33
28.60
22.53
15.28
7.94
1.49
-3.24
-5.68
-5.61
-3.28
0.63
5.16
9.27
12.14
13.29
12.69
10.64
7.63
4.21
0.82
-2.19
-4.67
-6.60
-8.09
-9.39
-10.81
-12.67
-15.21
-18.40
-21.83
-24.69
-25.95
-24.69
-20.44
-13.53
-4.99
3.74
11.33
17.00
20.63
22.57
23.34
23.26
22.41
20.77
18.40
15.55
12.67
10.17
8.20
6.60
4.96
2.77
-0.30
-4.28
-8.85
-13.44
-17.40
-20.16
-21.42
-21.17
-19.70
-17.47
-15.01
-12.81
-11.29
-10.69
-11.04
-12.05
-13.24
-14.03
-14.06
-13.28
-12.02
-10.70
-9.56
-8.48
-7.09
-5.04
-2.26
0.91
3.89
6.17
7.59
8.39
9.00
9.81
11.02
12.53
14.11
15.39
16.01
15.64
14.03
11.11
7.07
2.31
-2.66
-7.35
-11.45
-14.89
-17.81
-20.48
-23.25
-26.37
-29.90
-33.50
-36.46
-37.68
-36.06
-30.88
-22.18
-10.87
1.43
12.99
22.40
29.00
32.82
34.39
34.33
33.18
31.28
28.88
26.23
23.60
21.23
19.20
17.43
15.70
13.69
11.24
8.33
5.16
2.04
-0.69
-2.82
-4.32
-5.37
-6.32
-7.54
-9.32
-11.84
-15.08
-18.93
-23.16
-27.36
-30.94
-33.17
-33.31
-30.88
-25.89
-18.87
-10.73
-2.53
4.88
10.99
15.59
18.75
20.57
21.27
21.10
20.39
19.47
18.61
17.88
17.23
16.54
15.71
14.77
13.74
12.64
11.38
9.80
7.79
5.34
2.64
-0.06
-2.55
-4.72
-6.63
-8.44
-10.30
-12.28
-14.51
-17.05
-19.98
-23.19
-26.28
-28.50
-28.95
-26.92
-22.17
-15.13
-6.79
1.67
9.22
15.24
19.59
22.38
23.82
24.12
23.48
22.14
20.44
18.77
17.41
16.50
15.99
15.67
15.31
14.77
14.02
13.08
12.00
10.79
9.38
7.69
5.62
3.16
0.35
-2.65
-5.64
-8.43
-10.89
-13.03
-14.99
-17.03
-19.42
-22.26
-25.39
-28.24
-29.97
-29.75
-26.98
-21.70
-14.50
-6.39
1.57
8.52
14.03
17.99
20.50
21.73
21.82
20.93
19.24
17.01
14.54
12.12
10.03
8.45
7.49
7.09
7.04
7.04
6.77
6.00
4.69
2.91
0.87
-1.27
-3.41
-5.52
-7.65
-9.84
-12.15
-14.61
-17.29
-20.20
-23.26
-26.18
-28.38
-29.13
-27.76
-23.92
-17.80
-10.11
-1.89
5.77
12.05
16.51
19.13
20.14
19.90
18.79
17.12
15.19
13.23
11.42
9.90
8.72
7.86
7.24
6.73
6.16
5.38
4.28
2.82
1.07
-0.88
-2.93
-5.00
-7.04
-9.04
-11.00
-12.98
-15.09
-17.47
-20.24
-23.36
-26.47
-28.90
-29.79
-28.40
-24.41
-18.07
-10.19
-1.92
5.66
11.78
16.07
18.58
19.55
19.27
18.03
16.10
13.76
11.35
9.23
7.68
6.81
6.56
6.68
6.85
6.79
6.32
5.35
3.92
2.12
0.06
-2.13
-4.31
-6.38
-8.26
-9.99
-11.64
-13.40
-15.46
-17.92
-20.74
-23.63
-26.00
-27.11
-26.24
-22.95
-17.29
-9.86
-1.63
6.32
13.10
18.16
21.33
22.71
22.57
21.23
19.04
16.36
13.53
10.89
8.70
7.10
6.13
5.72
5.68
5.76
5.69
5.22
4.26
2.86
1.18
-0.62
-2.42
-4.25
-6.18
-8.31
-10.63
-13.08
-15.61
-18.20
-20.79
-23.22
-25.09
-25.78
-24.63
-21.24
-15.66
-8.46
-0.57
6.98
13.34
18.03
20.93
22.20
22.11
20.95
19.02
16.66
14.21
12.07
10.51
9.68
9.50
9.70
9.96
10.01
9.65
8.83
7.60
6.01
4.19
2.26
0.37
-1.36
-2.89
-4.33
-5.91
-7.93
-10.62
-13.99
-17.75
-21.31
-23.90
-24.76
-23.38
-19.68
-14.03
-7.19
-0.08
6.46
11.81
15.65
17.93
18.80
18.48
17.27
15.44
13.31
11.19
9.32
7.87
6.84
6.12
5.46
4.64
3.49
2.01
0.31
-1.44
-3.12
-4.68
-6.14
-7.59
-9.13
-10.82
-12.72
-14.86
-17.24
-19.77
-22.21
-24.11
-24.92
-24.15
-21.52
-17.10
-11.34
-4.90
1.50
7.29
12.08
15.68
18.02
19.07
18.88
17.55
15.32
12.56
9.73
7.26
5.41
4.21
3.47
2.87
2.12
1.03
-0.36
-1.88
-3.32
-4.53
-5.49
-6.29
-7.10
-8.12
-9.55
-11.60
-14.38
-17.82
-21.52
-24.77
-26.69
-26.48
-23.78
-18.79
-12.27
-5.22
1.40
6.96
11.22
14.14
15.83
16.34
15.80
14.42
12.58
10.78
9.48
8.94
9.10
9.64
10.11
10.13
9.50
8.30
6.81
5.36
4.18
3.30
2.51
1.47
-0.21
-2.83
-6.50
-11.12
-16.38
-21.68
-26.23
-29.09
-29.50
-27.06
-21.94
-14.85
-6.87
0.91
7.65
12.95
16.79
19.39
21.01
21.83
21.97
21.52
20.60
19.37
18.02
16.66
15.26
13.74
11.92
9.71
7.11
4.27
1.39
-1.28
-3.56
-5.42
-6.92
-8.31
-9.87
-11.94
-14.75
-18.29
-22.28
-26.07
-28.80
-29.59
-27.86
-23.47
-16.81
-8.68
-0.00
8.41
16.03
22.57
27.86
31.67
33.68
33.59
31.30
27.07
21.56
15.57
9.87
5.01
1.14
-1.83
-4.12
-5.98
-7.48
-8.62
-9.33
-9.63
-9.65
-9.64
-9.87
-10.59
-11.88
-13.70
-15.89
-18.23
-20.43
-22.07
-22.64
-21.60
-18.57
-13.56
-6.98
0.39
7.64
13.99
18.93
22.27
23.98
24.17
22.99
20.74
17.84
14.82
12.26
10.54
9.74
9.58
9.56
9.14
7.96
6.04
3.66
1.29
-0.72
-2.24
-3.48
-4.79
-6.53
-8.90
-11.88
-15.26
-18.63
-21.47
-23.15
-23.03
-20.67
-16.02
-9.50
-1.97
5.48
11.87
16.50
19.13
19.90
19.21
17.56
15.42
13.20
11.25
9.83
9.06
8.92
9.22
9.58
9.62
9.00
7.63
5.62
3.24
0.80
-1.55
-3.82
-6.16
-8.77
-11.75
-15.01
-18.23
-20.84
-22.18
-21.62
-18.82
-13.86
-7.26
0.08
7.17
13.17
17.54
20.12
21.01
20.48
18.88
16.55
13.91
11.34
9.19
7.61
6.54
5.76
4.98
4.02
2.89
1.71
0.64
-0.28
-1.20
-2.41
-4.23
-6.89
-10.45
-14.69
-19.11
-22.93
-25.21
-25.14
-22.28
-16.77
-9.32
-0.95
7.29
14.64
20.64
25.08
27.80
28.69
27.75
25.24
21.75
18.09
14.99
12.86
11.59
10.78
9.89
8.59
6.86
4.93
3.11
1.55
0.22
-1.11
-2.71
-4.83
-7.61
-11.04
-14.94
-18.85
-22.12
-23.96
-23.68
-20.91
-15.84
-9.09
-1.60
5.71
12.15
17.32
21.07
23.34
24.13
23.50
21.68
19.07
16.21
13.63
11.68
10.45
9.73
9.15
8.31
6.95
5.03
2.75
0.39
-1.77
-3.61
-5.23
-6.90
-8.94
-11.66
-15.14
-19.20
-23.31
-26.61
-28.16
-27.18
-23.40
-17.16
-9.38
-1.20
6.40
12.81
17.84
21.52
23.90
24.92
24.52
22.75
19.91
16.53
13.27
10.60
8.74
7.53
6.55
5.33
3.55
1.21
-1.38
-3.78
-5.63
-6.84
-7.63
-8.41
-9.57
-11.35
-13.82
-16.89
-20.36
-23.82
-26.60
-27.85
-26.73
-22.79
-16.23
-7.93
0.83
8.82
15.19
19.67
22.36
23.51
23.28
21.76
19.06
15.47
11.49
7.75
4.76
2.76
1.63
0.99
0.35
-0.68
-2.22
-4.12
-6.09
-7.89
-9.47
-11.00
-12.74
-14.96
-17.76
-21.07
-24.68
-28.25
-31.38
-33.48
-33.95
-32.23
-28.09
-21.75
-13.93
-5.63
2.20
8.95
14.35
18.44
21.34
23.09
23.65
23.05
21.48
19.34
17.12
15.27
14.00
13.21
12.62
11.84
10.62
8.89
6.85
4.79
2.98
1.55
0.45
-0.50
-1.53
-2.83
-4.52
-6.66
-9.28
-12.27
-15.32
-17.95
-19.47
-19.25
-16.94
-12.64
-6.92
-0.69
5.13
9.80
12.91
14.40
14.39
13.16
11.06
8.51
6.02
4.04
2.85
2.45
2.51
2.56
2.14
0.98
-0.88
-3.21
-5.65
-7.95
-9.95
-11.69
-13.28
-14.90
-16.74
-18.96
-21.59
-24.44
-27.06
-28.76
-28.78
-26.62
-22.17
-15.82
-8.39
-0.88
5.81
11.02
14.43
16.00
15.91
14.49
12.19
9.49
6.87
4.71
3.15
2.11
1.27
0.27
-1.20
-3.20
-5.53
-7.81
-9.67
-10.87
-11.46
-11.69
-11.96
-12.70
-14.25
-16.75
-20.02
-23.49
-26.26
-27.26
-25.66
-21.12
-13.99
-5.22
3.96
12.37
19.20
24.03
26.83
27.73
27.01
25.06
22.33
19.36
16.63
14.44
12.88
11.80
10.88
9.82
8.48
6.89
5.24
3.68
2.30
0.97
-0.53
-2.46
-4.98
-8.17
-11.98
-16.22
-20.52
-24.30
-26.81
-27.31
-25.33
-20.85
-14.43
-7.06
0.19
6.39
10.97
13.77
14.86
14.47
12.91
10.51
7.74
5.09
3.03
1.79
1.28
1.14
0.90
0.20
-1.03
-2.60
-4.13
-5.29
-5.96
-6.23
-6.42
-6.91
-8.01
-9.91
-12.59
-15.74
-18.82
-21.11
-21.85
-20.48
-16.80
-11.09
-4.04
3.37
10.14
15.47
18.92
20.42
20.25
18.87
16.76
14.34
11.91
9.68
7.80
6.35
5.33
4.62
4.04
3.40
2.53
1.36
-0.06
-1.61
-3.20
-4.79
-6.45
-8.32
-10.57
-13.28
-16.36
-19.53
-22.26
-23.88
-23.73
-21.36
-16.71
-10.19
-2.66
4.86
11.42
16.37
19.48
20.80
20.61
19.20
16.95
14.22
11.45
9.03
7.21
6.00
5.14
4.29
3.14
1.56
-0.35
-2.36
-4.29
-6.06
-7.77
-9.64
-11.94
-14.87
-18.44
-22.36
-26.07
-28.72
-29.46
-27.71
-23.34
-16.84
-9.11
-1.25
5.77
11.35
15.21
17.36
17.90
17.05
15.08
12.43
9.62
7.18
5.41
4.31
3.62
2.96
2.05
0.79
-0.69
-2.20
-3.63
-4.96
-6.32
-7.86
-9.74
-12.07
-14.92
-18.22
-21.65
-24.60
-26.21
-25.62
-22.30
-16.33
-8.41
0.33
8.69
15.74
20.96
24.22
25.58
25.24
23.50
20.77
17.62
14.69
12.47
11.18
10.69
10.59
10.36
9.60
8.12
5.97
3.36
0.54
-2.29
-5.05
-7.88
-11.05
-14.85
-19.46
-24.68
-29.92
-34.19
-36.44
-35.89
-32.30
-26.16
-18.47
-10.41
-3.06
2.87
7.09
9.60
10.63
10.56
9.93
9.41
9.65
11.16
14.07
18.08
22.50
26.44
29.11
30.01
29.02
26.38
22.58
18.14
13.49
8.95
4.65
0.60
-3.27
-7.10
-10.93
-14.55
-17.44
-18.75
-17.58
-13.27
-5.79
4.21
15.53
26.72
36.50
43.89
48.34
49.61
47.72
42.89
35.63
26.65
16.82
6.96
-2.28
-10.51
-17.52
-23.13
-27.04
-28.94
-28.59
-26.07
-21.91
-17.02
-12.43
-8.95
-6.99
-6.47
-6.99
-8.01
-8.97
-9.30
-8.41
-5.83
-1.41
4.52
11.04
16.99
21.31
23.54
23.88
23.04
21.82
20.69
19.75
18.76
17.48
15.92
14.37
13.24
12.82
13.08
13.61
13.78
13.00
10.94
7.66
3.55
-0.88
-5.20
-9.27
-13.18
-17.16
-21.43
-26.04
-30.86
-35.54
-39.59
-42.37
-43.26
-41.78
-37.77
-31.47
-23.48
-14.68
-5.95
1.93
8.37
12.99
15.66
16.44
15.69
14.00
12.10
10.64
10.03
10.32
11.21
12.21
12.79
12.59
11.51
9.73
7.53
5.19
2.81
0.30
-2.64
-6.32
-11.02
-16.73
-23.11
-29.39
-34.52
-37.38
-37.11
-33.43
-26.75
-18.02
-8.37
1.17
9.95
17.63
24.02
28.92
32.08
33.32
32.69
30.55
27.44
23.95
20.49
17.18
13.94
10.55
6.87
2.93
-1.04
-4.65
-7.54
-9.50
-10.61
-11.24
-11.94
-13.33
-15.84
-19.53
-23.99
-28.37
-31.51
-32.34
-30.21
-25.11
-17.75
-9.23
-0.69
7.01
13.46
18.58
22.38
24.87
25.97
25.68
24.21
21.98
19.58
17.53
16.13
15.36
14.95
14.49
13.59
12.01
9.77
7.04
4.14
1.34
-1.23
-3.59
-5.88
-8.32
-11.09
-14.36
-18.25
-22.70
-27.38
-31.58
-34.31
-34.53
-31.53
-25.30
-16.52
-6.43
3.60
12.51
19.72
25.12
28.84
31.04
31.83
31.30
29.62
27.19
24.50
22.07
20.25
19.04
18.15
17.11
15.49
13.13
10.16
6.96
3.94
1.38
-0.68
-2.40
-4.05
-5.87
-8.08
-10.82
-14.19
-18.21
-22.63
-26.86
-30.00
-31.07
-29.32
-24.66
-17.67
-9.51
-1.46
5.45
10.71
14.32
16.59
17.85
18.25
17.80
16.49
14.44
11.97
9.53
7.49
6.07
5.23
4.71
4.18
3.35
2.07
0.39
-1.53
-3.48
-5.31
-6.92
-8.34
-9.64
-10.99
-12.63
-14.85
-17.85
-21.62
-25.74
-29.35
-31.33
-30.66
-26.85
-20.23
-11.83
-3.02
4.93
11.29
15.89
18.93
20.72
21.45
21.22
20.13
18.42
16.43
14.53
12.92
11.60
10.39
9.08
7.54
5.72
3.66
1.47
-0.74
-2.87
-4.83
-6.57
-8.11
-9.52
-10.90
-12.38
-14.10
-16.18
-18.69
-21.48
-24.14
-25.94
-26.03
-23.74
-18.86
-11.86
-3.74
4.29
11.21
16.44
19.90
21.81
22.44
22.02
20.66
18.55
15.98
13.35
11.11
9.50
8.58
8.10
7.67
6.89
5.50
3.52
1.16
-1.23
-3.31
-4.93
-6.14
-7.19
-8.37
-10.01
-12.29
-15.26
-18.75
-22.33
-25.37
-27.06
-26.66
-23.73
-18.30
-10.96
-2.68
5.43
12.45
17.80
21.33
23.18
23.66
23.07
21.66
19.65
17.25
14.69
12.23
10.14
8.58
7.54
6.80
5.99
4.71
2.70
-0.04
-3.24
-6.45
-9.25
-11.43
-13.07
-14.48
-16.07
-18.15
-20.87
-24.11
-27.49
-30.40
-32.08
-31.80
-29.03
-23.71
-16.31
-7.81
0.59
7.86
13.38
17.03
19.07
19.86
19.68
18.61
16.61
13.71
10.12
6.24
2.60
-0.35
-2.38
-3.56
-4.15
-4.50
-4.88
-5.39
-5.95
-6.42
-6.68
-6.74
-6.76
-7.02
-7.86
-9.54
-12.20
-15.65
-19.36
-22.49
-24.06
-23.24
-19.63
-13.44
-5.44
3.20
11.32
17.99
22.74
25.54
26.62
26.35
25.07
23.01
20.46
17.68
15.01
12.75
11.07
9.91
9.07
8.21
7.05
5.49
3.58
1.54
-0.42
-2.15
-3.69
-5.19
-6.85
-8.90
-11.44
-14.49
-17.94
-21.52
-24.73
-26.89
-27.22
-25.09
-20.29
-13.17
-4.64
4.06
11.75
17.64
21.47
23.41
23.88
23.23
21.70
19.38
16.41
13.06
9.74
6.84
4.60
3.02
1.86
0.81
-0.37
-1.71
-3.07
-4.27
-5.17
-5.79
-6.26
-6.79
-7.56
-8.72
-10.33
-12.41
-14.91
-17.65
-20.25
-22.10
-22.50
-20.85
-16.90
-10.94
-3.75
3.64
10.24
15.41
18.90
20.76
21.20
20.38
18.48
15.73
12.52
9.39
6.88
5.34
4.76
4.77
4.83
4.47
3.49
2.02
0.39
-1.05
-2.12
-2.89
-3.59
-4.50
-5.84
-7.72
-10.18
-13.15
-16.43
-19.58
-21.96
-22.85
-21.68
-18.30
-13.00
-6.52
0.23
6.47
11.61
15.35
17.56
18.22
17.39
15.33
12.48
9.42
6.76
4.81
3.60
2.82
2.06
1.02
-0.39
-2.06
-3.80
-5.49
-7.13
-8.83
-10.71
-12.86
-15.38
-18.30
-21.62
-25.17
-28.50
-30.92
-31.65
-30.08
-26.04
-19.87
-12.31
-4.29
3.35
9.98
15.22
18.85
20.76
21.01
19.80
17.55
14.78
12.06
9.77
8.10
6.94
5.99
4.93
3.52
1.69
-0.39
-2.48
-4.34
-5.87
-7.12
-8.34
-9.88
-12.04
-15.04
-18.82
-22.96
-26.70
-29.08
-29.16
-26.43
-20.93
-13.35
-4.75
3.73
11.19
17.07
21.18
23.56
24.33
23.66
21.81
19.13
16.06
13.04
10.44
8.39
6.83
5.52
4.15
2.52
0.56
-1.60
-3.75
-5.68
-7.30
-8.75
-10.31
-12.37
-15.22
-18.94
-23.27
-27.52
-30.74
-31.91
-30.25
-25.55
-18.24
-9.29
0.13
8.99
16.63
22.77
27.36
30.37
31.70
31.29
29.29
26.18
22.73
19.77
17.87
17.17
17.31
17.67
17.62
16.78
15.07
12.70
9.97
7.13
4.29
1.38
-1.75
-5.29
-9.34
-13.92
-18.83
-23.61
-27.56
-29.81
-29.60
-26.52
-20.69
-12.81
-3.93
4.85
12.65
18.97
23.64
26.62
27.99
27.84
26.38
24.03
21.36
18.98
17.29
16.35
15.90
15.41
14.36
12.35
9.30
5.43
1.14
-3.07
-6.86
-10.06
-12.79
-15.28
-17.85
-20.75
-24.11
-27.94
-32.05
-35.99
-39.01
-40.21
-38.72
-34.10
-26.51
-16.82
-6.27
3.81
12.46
19.16
23.83
26.66
27.91
27.89
26.92
25.39
23.73
22.32
21.37
20.87
20.63
20.35
19.77
18.70
17.11
15.06
12.72
10.27
7.88
5.66
3.65
1.76
-0.16
-2.28
-4.79
-7.77
-11.14
-14.61
-17.60
-19.39
-19.24
-16.65
-11.62
-4.67
3.22
10.93
17.46
22.17
24.83
25.50
24.49
22.15
18.92
15.25
11.66
8.61
6.42
5.16
4.66
4.52
4.28
3.59
2.29
0.44
-1.72
-3.92
-5.89
-7.50
-8.73
-9.73
-10.76
-12.15
-14.17
-16.93
-20.22
-23.47
-25.79
-26.24
-24.11
-19.21
-11.99
-3.42
5.28
13.00
19.01
23.01
25.10
25.52
24.55
22.44
19.46
16.03
12.65
9.81
7.83
6.70
6.13
5.66
4.91
3.64
1.91
-0.09
-2.15
-4.07
-5.81
-7.38
-8.86
-10.39
-12.20
-14.57
-17.72
-21.64
-25.92
-29.71
-31.91
-31.50
-27.91
-21.30
-12.51
-2.83
6.47
14.42
20.52
24.70
27.10
27.91
27.31
25.52
22.83
19.67
16.54
13.85
11.90
10.71
10.14
9.90
9.70
9.37
8.83
8.14
7.40
6.69
6.00
5.20
4.10
2.42
-0.06
-3.47
-7.70
-12.33
-16.57
-19.35
-19.60
-16.51
-9.91
-0.30
11.23
23.36
34.89
44.97
53.10
59.11
62.96
64.60
63.98
60.92
55.22
46.78
35.72
22.64
8.65
-4.79
-16.31
-25.14
-31.38
-35.95
-40.13
-44.99
-51.07
-58.13
-65.48
-72.32
-77.95
-82.00
-84.35
-85.00
-83.94
-81.10
-76.23
-69.02
-59.27
-47.06
-32.93
-17.86
-3.15
9.99
20.73
28.76
34.28
37.87
40.20
41.96
43.76
46.00
48.56
50.53
50.25
45.90
36.46
22.60
6.79
-7.50
-17.30
-21.44
-21.06
-18.81
-17.30
-17.78
-19.62
-21.05
-20.42
-17.27
-12.61
-8.30
-6.05
-6.48
-8.98
-11.98
-13.72
-12.99
-9.47
-3.54
4.28
13.79
25.23
38.83
54.18
69.85
83.79
94.27
100.82
104.34
106.30
107.43
106.83
102.26
91.34
73.15
48.95
21.83
-4.57
-27.30
-44.72
-56.22
-61.90
-62.37
-58.84
-53.18
-47.64
-44.06
-43.03
-43.57
-43.42
-40.18
-32.32
-19.73
-3.63
13.87
30.51
44.48
54.83
61.60
65.63
67.67
68.18
66.86
62.63
54.18
40.75
22.98
3.25
-15.20
-29.99
-39.91
-45.32
-47.38
-47.05
-44.56
-39.45
-30.99
-19.82
-9.03
-2.56
-4.06
-15.54
-36.71
-65.45
-98.08
-129.46
-154.70
-170.81
-176.21
-171.34
-158.70
-142.26
-126.86
-116.51
-112.93
-107.71
-93.71
-66.65
-28.04
15.84
58.17
94.13
118.07
131.95
137.77
135.78
126.59
111.61
92.94
75.90
63.77
57.91
57.66
60.42
62.32
60.35
52.61
38.74
20.06
-1.10
-21.61
-39.35
-53.92
-66.56
-78.64
-90.94
-103.07
-113.45
-120.22
-121.81
-119.28
-115.26
-112.94
-114.40
-120.27
-129.97
-141.96
-154.39
-155.66
-138.53
-102.64
-55.38
-6.81
36.00
70.87
98.89
121.82
140.84
153.77
158.50
154.62
144.29
131.41
119.93
112.41
109.49
110.13
109.49
103.88
91.92
75.23
57.42
42.02
31.26
25.37
22.90
19.03
9.66
-7.66
-33.43
-66.60
-105.10
-145.73
-184.37
-205.49
-201.16
-171.15
-123.39
-70.35
-23.79
9.29
28.10
36.62
40.39
41.66
40.71
36.83
30.02
21.78
14.55
10.47
10.26
13.06
15.77
15.64
11.56
4.27
-4.20
-11.57
-16.27
-17.88
-17.09
-15.99
-16.23
-18.35
-21.67
-24.68
-25.82
-24.12
-19.51
-12.67
-5.12
1.78
7.34
11.59
15.04
18.28
21.65
25.03
27.93
29.66
29.70
28.18
25.61
22.78
20.36
18.79
18.04
17.82
17.76
17.52
17.18
16.80
16.48
16.38
16.84
18.37
21.50
26.20
31.50
35.53
35.66
29.70
16.97
-1.09
-21.29
-39.75
-53.19
-61.56
-65.40
-66.45
-66.79
-68.01
-70.75
-74.75
-79.11
-82.60
-83.78
-80.86
-72.48
-58.15
-38.81
-17.14
2.95
17.58
24.55
24.40
20.52
17.44
18.74
25.43
35.48
44.97
50.13
49.22
43.25
35.46
29.44
27.55
30.03
35.27
40.83
44.60
45.57
43.82
40.03
34.77
28.18
20.07
10.32
-0.75
-12.33
-23.35
-32.75
-39.73
-43.66
-44.04
-40.49
-32.92
-21.75
-7.90
7.45
23.38
39.51
55.91
72.59
88.78
102.53
110.92
110.96
100.82
80.91
54.12
25.22
-0.53
-18.91
-27.87
-27.79
-21.04
-10.91
-0.56
7.69
12.56
13.63
10.99
5.05
-3.55
-13.91
-24.80
-34.86
-42.84
-47.84
-49.58
-48.30
-44.63
-39.18
-32.41
-24.48
-15.35
-4.91
6.77
19.30
31.95
43.67
53.20
59.30
60.92
57.33
48.35
34.48
16.98
-2.15
-20.53
-35.81
-46.21
-50.93
-50.22
-45.24
-37.69
-29.42
-22.22
-17.64
-16.90
-20.72
-28.95
-40.33
-52.49
-62.39
-67.21
-65.17
-56.20
-41.75
-24.24
-6.06
11.11
26.61
40.49
53.13
64.92
76.19
87.24
98.16
108.45
116.70
120.59
117.68
106.45
87.28
62.76
37.05
14.56
-1.38
-9.46
-10.48
-6.76
-1.31
3.07
4.23
0.97
-6.84
-18.19
-31.01
-42.49
-49.78
-50.74
-44.73
-32.90
-17.85
-2.79
9.51
17.50
21.13
21.56
20.66
20.30
21.85
25.78
31.47
37.17
40.35
38.49
29.96
14.90
-4.55
-24.71
-41.47
-51.62
-53.78
-48.63
-38.37
-25.87
-13.80
-4.11
1.95
3.78
1.26
-5.10
-13.94
-23.12
-30.05
-32.46
-29.21
-20.63
-8.34
5.45
18.82
30.52
40.14
47.66
53.31
57.45
60.71
64.15
68.91
75.62
83.76
91.39
95.71
94.07
85.10
69.33
49.04
27.41
7.49
-8.58
-19.93
-26.78
-30.10
-31.23
-31.59
-32.47
-34.80
-38.83
-43.96
-48.82
-51.60
-50.69
-45.34
-36.02
-24.33
-12.50
-2.60
4.09
7.38
8.03
7.34
6.68
7.13
9.30
13.40
19.14
25.73
31.74
35.23
34.10
26.79
12.99
-5.93
-27.02
-46.57
-61.12
-68.57
-68.62
-62.62
-52.84
-41.71
-31.20
-22.65
-16.82
-14.01
-14.08
-16.37
-19.63
-22.27
-22.78
-20.15
-14.21
-5.62
4.44
14.69
24.08
31.89
37.72
41.42
43.21
43.70
44.05
45.71
50.03
57.48
67.15
76.67
82.79
82.50
74.16
58.23
37.14
14.51
-5.98
-21.65
-31.25
-34.97
-34.11
-30.51
-26.21
-23.08
-22.48
-24.86
-29.59
-35.06
-39.13
-39.97
-36.74
-29.95
-21.18
-12.48
-5.54
-1.18
0.69
0.79
-0.08
-1.33
-2.65
-3.80
-4.52
-4.55
-3.78
-2.42
-1.03
-0.41
-1.41
-4.70
-10.62
-19.08
-29.43
-40.44
-50.33
-57.11
-59.03
-55.18
-45.89
-32.69
-18.03
-4.57
5.39
10.46
10.34
5.88
-1.13
-8.27
-13.04
-13.39
-8.27
2.12
16.41
32.44
47.88
60.76
69.76
74.35
74.60
71.12
64.90
57.14
49.15
42.04
36.50
32.60
29.86
27.38
24.21
19.60
13.21
5.17
-4.05
-13.77
-23.30
-32.01
-39.39
-45.07
-48.88
-50.78
-50.96
-49.76
-47.65
-45.17
-42.74
-40.57
-38.54
-36.23
-33.07
-28.58
-22.65
-15.64
-8.25
-1.17
5.21
10.90
16.20
21.31
26.09
30.09
32.79
33.86
33.34
31.48
28.55
24.68
19.88
14.28
8.22
2.30
-2.90
-7.04
-10.13
-12.50
-14.57
-16.64
-18.79
-20.98
-23.07
-25.03
-26.93
-29.05
-31.74
-35.34
-39.88
-44.89
-49.35
-51.96
-51.52
-47.44
-39.94
-29.99
-18.92
-7.95
2.08
10.82
18.19
24.21
28.82
31.92
33.45
33.54
32.46
30.58
28.24
25.67
23.05
20.47
18.03
15.80
13.78
11.91
10.05
8.05
5.78
3.21
0.33
-2.78
-6.00
-9.23
-12.41
-15.53
-18.70
-22.12
-26.00
-30.35
-34.83
-38.68
-40.87
-40.39
-36.72
-29.98
-21.03
-11.14
-1.54
6.89
13.82
19.35
23.71
27.06
29.42
30.72
30.96
30.28
28.88
26.99
24.76
22.27
19.58
16.77
13.99
11.39
9.05
6.94
4.98
3.05
1.07
-0.99
-3.13
-5.27
-7.37
-9.38
-11.34
-13.36
-15.63
-18.38
-21.77
-25.79
-30.14
-34.14
-36.86
-37.26
-34.58
-28.64
-19.99
-9.76
0.67
10.07
17.74
23.48
27.50
30.08
31.43
31.62
30.74
29.00
26.74
24.36
22.15
20.20
18.40
16.54
14.47
12.16
9.66
7.07
4.42
1.64
-1.34
-4.52
-7.82
-11.01
-13.89
-16.33
-18.35
-20.12
-21.93
-24.07
-26.71
-29.77
-32.81
-35.11
-35.77
-34.03
-29.54
-22.54
-13.81
-4.50
4.23
11.52
16.97
20.64
22.81
23.85
23.98
23.32
21.95
19.99
17.68
15.37
13.36
11.85
10.81
10.00
9.13
7.90
6.17
3.96
1.38
-1.41
-4.30
-7.21
-10.12
-12.99
-15.83
-18.64
-21.48
-24.51
-27.85
-31.53
-35.35
-38.78
-41.01
-41.18
-38.61
-33.12
-25.16
-15.69
-5.93
3.05
10.52
16.26
20.40
23.23
24.98
25.75
25.56
24.46
22.63
20.37
18.01
15.82
13.93
12.30
10.85
9.41
7.84
6.03
3.95
1.62
-0.91
-3.57
-6.32
-9.13
-11.99
-14.88
-17.81
-20.79
-23.93
-27.29
-30.80
-34.08
-36.38
-36.79
-34.52
-29.25
-21.35
-11.74
-1.64
7.81
15.81
21.94
26.10
28.43
29.20
28.75
27.49
25.79
23.97
22.21
20.59
19.12
17.75
16.39
14.94
13.27
11.25
8.83
5.99
2.82
-0.56
-3.94
-7.17
-10.06
-12.56
-14.71
-16.68
-18.77
-21.28
-24.35
-27.84
-31.22
-33.67
-34.27
-32.28
-27.46
-20.15
-11.22
-1.76
7.16
14.78
20.70
24.80
27.21
28.12
27.81
26.60
24.81
22.77
20.71
18.79
17.10
15.62
14.34
13.19
12.08
10.89
9.48
7.77
5.69
3.26
0.54
-2.40
-5.46
-8.53
-11.50
-14.26
-16.74
-19.00
-21.17
-23.48
-26.08
-28.81
-31.18
-32.37
-31.53
-28.10
-22.06
-13.98
-4.88
4.10
11.97
18.10
22.25
24.46
25.02
24.32
22.81
20.89
18.92
17.12
15.60
14.38
13.44
12.74
12.17
11.58
10.79
9.67
8.19
6.41
4.45
2.40
0.27
-1.97
-4.33
-6.77
-9.13
-11.32
-13.34
-15.37
-17.67
-20.38
-23.26
-25.67
-26.72
-25.55
-21.78
-15.62
-7.91
0.24
7.77
13.93
18.39
21.11
22.22
21.88
20.31
17.78
14.72
11.64
9.00
7.07
5.82
4.99
4.23
3.23
1.82
-0.01
-2.16
-4.51
-6.98
-9.48
-11.98
-14.41
-16.76
-19.04
-21.33
-23.66
-26.03
-28.29
-30.11
-31.04
-30.55
-28.21
-23.87
-17.69
-10.15
-1.93
6.28
13.82
20.17
24.92
27.82
28.84
28.25
26.58
24.52
22.64
21.27
20.39
19.77
19.12
18.27
17.20
15.94
14.51
12.80
10.69
8.16
5.34
2.54
0.08
-1.92
-3.58
-5.34
-7.67
-10.91
-15.03
-19.64
-24.01
-27.34
-28.92
-28.34
-25.53
-20.76
-14.57
-7.62
-0.61
5.81
11.12
14.98
17.27
18.08
17.66
16.35
14.55
12.63
10.90
9.58
8.79
8.45
8.31
8.02
7.19
5.63
3.39
0.79
-1.75
-3.86
-5.41
-6.51
-7.51
-8.77
-10.60
-13.08
-16.03
-19.01
-21.35
-22.32
-21.34
-18.16
-12.95
-6.31
0.90
7.77
13.59
17.89
20.49
21.38
20.70
18.70
15.77
12.42
9.21
6.66
5.07
4.45
4.47
4.66
4.55
3.83
2.50
0.79
-1.00
-2.62
-3.99
-5.24
-6.62
-8.37
-10.65
-13.47
-16.66
-19.90
-22.67
-24.41
-24.56
-22.78
-19.06
-13.80
-7.68
-1.48
4.15
8.77
12.18
14.31
15.16
14.79
13.34
11.16
8.71
6.49
4.87
3.96
3.61
3.52
3.35
2.90
2.12
1.04
-0.25
-1.71
-3.33
-5.13
-7.10
-9.21
-11.43
-13.78
-16.27
-18.85
-21.28
-23.06
-23.54
-22.16
-18.68
-13.35
-6.85
-0.11
5.97
10.81
14.11
15.87
16.23
15.42
13.69
11.39
8.91
6.64
4.86
3.70
3.05
2.65
2.14
1.25
-0.15
-2.00
-4.08
-6.13
-7.96
-9.53
-10.98
-12.51
-14.35
-16.58
-19.04
-21.33
-22.81
-22.82
-20.89
-16.90
-11.16
-4.35
2.70
9.20
14.53
18.32
20.43
20.91
19.97
18.01
15.49
12.91
10.69
9.02
7.90
7.11
6.40
5.53
4.38
2.94
1.27
-0.55
-2.52
-4.69
-7.12
-9.82
-12.77
-15.89
-19.05
-22.02
-24.44
-25.84
-25.64
-23.43
-19.11
-13.05
-6.01
1.10
7.42
12.38
15.73
17.53
17.98
17.42
16.22
14.85
13.80
13.34
13.40
13.63
13.53
12.75
11.27
9.39
7.65
6.62
6.60
7.49
8.98
10.66
12.11
12.90
12.61
10.96
8.24
5.16
2.75
2.04
3.73
7.91
14.02
21.22
28.77
36.42
43.91
50.51
54.88
55.30
50.24
39.03
22.20
1.00
-21.15
-39.84
-51.56
-55.32
-52.65
-46.28
-38.62
-31.07
-24.13
-17.61
-11.37
-5.52
-0.39
3.69
6.47
8.04
8.65
8.71
8.90
9.82
11.75
14.63
18.06
21.20
23.32
23.84
22.56
19.91
16.65
13.35
10.31
7.27
3.10
-2.98
-11.73
-23.93
-40.18
-60.49
-83.40
-105.29
-119.14
-119.86
-104.72
-75.44
-38.16
-1.17
28.23
46.34
53.36
51.99
45.08
34.84
22.63
9.65
-2.33
-11.32
-16.02
-16.63
-14.70
-12.44
-11.11
-11.04
-11.80
-12.98
-14.54
-16.66
-19.16
-21.19
-21.62
-19.58
-14.66
-7.65
-0.10
6.45
11.09
13.89
15.69
17.31
19.15
20.95
22.03
21.80
20.13
17.45
14.46
11.83
9.86
8.49
7.44
6.36
5.04
3.44
1.62
-0.27
-2.06
-3.50
-4.27
-3.93
-2.18
1.08
5.63
10.90
16.06
20.24
22.69
22.96
20.97
16.92
11.27
4.68
-2.11
-8.29
-13.19
-16.44
-17.99
-18.14
-17.41
-16.34
-15.37
-14.75
-14.59
-14.89
-15.61
-16.84
-18.50
-20.38
-22.17
-23.59
-24.50
-25.00
-25.34
-25.91
-27.05
-28.90
-31.36
-33.99
-36.09
-36.82
-35.40
-31.38
-24.80
-16.28
-6.78
2.54
10.70
17.05
21.33
23.60
24.04
22.91
20.55
17.45
14.22
11.53
9.86
9.38
9.84
10.66
11.15
10.74
9.22
6.73
3.67
0.51
-2.38
-4.88
-7.06
-9.12
-11.39
-14.10
-17.46
-21.49
-25.95
-30.21
-33.34
-34.33
-32.35
-27.16
-19.21
-9.54
0.56
9.91
17.71
23.62
27.61
29.79
30.27
29.18
26.79
23.53
20.02
16.87
14.54
13.17
12.53
12.12
11.34
9.78
7.33
4.26
1.06
-1.82
-4.16
-6.07
-7.91
-10.11
-12.98
-16.61
-20.89
-25.54
-30.07
-33.82
-35.96
-35.63
-32.24
-25.71
-16.64
-6.06
4.77
14.84
23.49
30.40
35.45
38.55
39.64
38.77
36.30
32.79
28.97
25.46
22.65
20.65
19.29
18.31
17.36
16.16
14.52
12.35
9.71
6.76
3.75
0.88
-1.74
-4.13
-6.47
-8.97
-11.90
-15.42
-19.52
-23.91
-27.97
-30.83
-31.55
-29.48
-24.48
-17.09
-8.38
0.36
8.02
13.89
17.71
19.55
19.63
18.21
15.63
12.34
8.96
6.06
4.02
2.89
2.40
2.10
1.58
0.58
-0.94
-2.87
-5.04
-7.34
-9.72
-12.13
-14.52
-16.73
-18.60
-20.01
-20.94
-21.59
-22.21
-23.08
-24.30
-25.73
-26.95
-27.32
-26.07
-22.48
-16.10
-6.97
4.15
15.87
26.37
33.88
37.15
35.79
30.30
21.93
12.34
3.36
-3.40
-6.75
-6.20
-2.11
4.45
11.98
19.14
25.11
29.79
33.45
36.38
38.48
39.28
38.25
35.15
30.22
24.00
17.04
9.76
2.49
-4.16
-9.16
-11.21
-9.30
-3.32
5.68
15.75
24.71
31.00
33.99
33.94
31.48
27.29
21.79
15.27
8.17
1.11
-5.10
-9.76
-12.50
-13.45
-13.16
-12.26
-11.22
-10.22
-9.24
-8.39
-8.10
-9.06
-11.94
-16.96
-23.64
-30.91
-37.50
-42.36
-44.89
-44.89
-42.23
-36.81
-28.57
-17.83
-5.54
6.77
17.44
25.22
29.70
31.33
31.08
30.00
28.81
27.79
