1660326809.00
64.000000
-0.00
-0.00
-0.00
-0.00
-0.00
-0.00
-0.00
-0.00
-0.00
-0.00
0.00
0.01
0.01
-0.00
-0.03
-0.05
-0.05
0.00
0.13
0.36
0.66
1.01
1.37
1.72
2.06
2.40
2.79
3.24
3.80
4.42
5.06
5.66
6.20
6.68
7.15
7.68
8.31
9.14
10.09
11.04
11.88
12.56
13.14
13.76
14.65
15.96
17.91
20.32
22.90
25.38
27.58
29.57
31.68
34.32
37.81
42.54
48.15
54.10
59.83
64.97
69.58
74.14
79.34
85.71
93.76
103.00
112.62
121.73
129.77
136.75
143.30
150.75
157.77
166.64
177.95
191.79
206.97
220.57
228.25
225.36
208.53
176.87
132.76
80.05
23.07
-34.94
-92.44
-149.16
-205.23
-260.37
-313.74
-363.87
-409.83
-450.91
-486.50
-515.74
-537.23
-549.22
-549.96
-538.37
-514.21
-478.67
-433.88
-382.45
-327.02
-269.84
-212.63
-156.66
-102.95
-52.37
-5.90
35.58
71.43
101.35
125.50
144.38
158.69
169.15
176.37
180.75
182.57
182.07
179.51
175.23
169.65
163.18
156.15
148.81
141.30
133.69
126.02
118.33
110.69
103.16
95.80
88.68
81.83
75.25
68.95
62.95
57.25
51.86
46.78
42.03
37.59
33.45
29.61
26.07
22.81
19.82
17.11
14.67
12.49
10.56
8.86
7.35
6.03
4.88
3.89
3.05
2.37
1.83
1.40
1.05
0.74
0.46
0.19
-0.06
-0.27
-0.41
-0.47
-0.49
-0.48
-0.51
-0.59
-0.74
-0.91
-1.05
-1.11
-1.08
-0.99
-0.93
-0.99
-1.24
-1.66
-2.16
-2.59
-2.82
-2.80
-2.63
-2.50
-2.62
-3.15
-4.05
-5.14
-6.10
-6.66
-6.71
-6.39
-6.04
-6.09
-6.81
-8.18
-9.91
-11.50
-12.50
-12.69
-12.20
-11.46
-11.00
-11.29
-12.62
-14.99
-17.99
-20.80
-22.26
-21.17
-16.79
-9.27
0.28
10.03
18.18
23.60
26.27
27.27
28.25
30.65
35.20
41.56
48.52
54.56
58.31
59.00
56.61
51.64
44.85
36.91
28.36
19.43
10.51
2.25
-4.60
-9.42
-12.03
-12.84
-12.76
-12.87
-14.02
-16.46
-19.73
-22.93
-25.07
-25.52
-24.26
-21.88
-19.21
-17.00
-15.64
-15.19
-15.45
-16.15
-16.86
-17.07
-16.08
-13.32
-8.62
-2.41
4.22
9.90
13.40
14.11
12.07
7.83
2.19
-4.10
-10.41
-16.21
-20.94
-24.09
-25.29
-24.53
-22.28
-19.48
-17.31
-16.80
-18.44
-21.95
-26.36
-30.38
-32.93
-33.51
-32.47
-30.68
-29.28
-29.10
-30.47
-33.06
-36.06
-38.21
-38.12
-34.41
-25.80
-11.92
6.54
27.82
49.49
69.10
84.72
95.29
100.61
101.17
97.77
91.41
83.14
73.97
64.63
55.45
46.33
36.94
27.04
16.73
6.57
-2.53
-9.73
-14.60
-17.26
-18.34
-18.76
-19.35
-20.81
-23.60
-27.89
-33.39
-39.21
-43.76
-45.10
-41.57
-32.53
-18.78
-2.43
13.79
27.44
36.99
41.98
42.77
39.98
34.36
26.62
17.63
8.44
0.11
-6.65
-11.68
-15.34
-18.28
-21.07
-23.87
-26.47
-28.40
-29.25
-28.88
-27.50
-25.67
-24.17
-23.80
-25.14
-28.27
-32.56
-36.64
-38.70
-37.04
-30.75
-20.06
-6.35
8.27
21.74
32.50
39.81
43.56
44.05
41.78
37.37
31.68
25.71
20.46
16.63
14.35
13.17
12.26
10.79
8.23
4.47
-0.19
-5.30
-10.43
-15.33
-19.97
-24.52
-29.26
-34.50
-40.34
-46.55
-52.37
-56.56
-57.68
-54.58
-46.86
-35.17
-21.12
-6.75
6.11
16.34
23.73
28.69
31.80
33.38
33.42
31.81
28.68
24.63
20.57
17.38
15.50
14.67
14.11
12.96
10.73
7.55
3.96
0.56
-2.47
-5.52
-9.43
-15.06
-22.87
-32.50
-42.75
-51.77
-57.50
-58.28
-53.32
-42.97
-28.66
-12.49
3.28
16.79
26.87
33.11
35.66
35.04
32.04
27.58
22.71
18.47
15.57
14.26
14.20
14.58
14.41
12.94
9.88
5.54
0.65
-3.94
-7.60
-10.18
-12.04
-13.96
-16.89
-21.50
-27.85
-35.14
-41.80
-45.88
-45.67
-40.25
-29.88
-15.87
-0.18
15.14
28.41
38.54
45.01
47.68
46.78
42.94
37.19
30.89
25.35
21.52
19.66
19.36
19.77
19.96
19.29
17.54
14.90
11.74
8.43
5.19
1.97
-1.52
-5.70
-10.93
-17.29
-24.27
-30.78
-35.19
-35.84
-31.57
-22.17
-8.63
7.07
22.48
35.39
44.32
48.70
48.75
45.13
38.72
30.45
21.36
12.49
4.76
-1.27
-5.55
-8.54
-11.01
-13.60
-16.65
-20.00
-23.14
-25.47
-26.63
-26.73
-26.37
-26.52
-28.16
-31.79
-37.09
-42.72
-46.68
-46.85
-41.82
-31.40
-16.79
-0.16
16.02
29.72
39.71
45.68
47.87
46.85
43.29
37.97
31.72
25.49
20.06
15.92
13.05
10.99
9.11
6.83
3.87
0.27
-3.74
-7.89
-12.04
-16.19
-20.50
-25.27
-30.71
-36.81
-43.06
-48.31
-50.92
-49.21
-42.07
-29.48
-12.74
5.88
23.75
38.63
49.17
54.99
56.47
54.42
49.80
43.67
37.06
30.92
25.95
22.41
20.05
18.27
16.39
13.91
10.71
7.04
3.32
-0.07
-2.97
-5.56
-8.34
-12.00
-17.11
-23.80
-31.41
-38.42
-42.75
-42.46
-36.36
-24.63
-8.81
8.66
25.19
38.67
47.89
52.46
52.68
49.24
43.11
35.46
27.52
20.35
14.57
10.21
6.70
3.27
-0.69
-5.36
-10.45
-15.37
-19.62
-22.97
-25.63
-28.11
-31.08
-35.12
-40.43
-46.60
-52.47
-56.29
-56.17
-50.68
-39.53
-23.77
-5.56
12.49
28.08
39.71
46.86
49.77
49.08
45.59
40.18
33.80
27.40
21.87
17.76
15.08
13.36
11.82
9.76
6.83
3.15
-0.88
-4.80
-8.39
-11.71
-15.07
-18.90
-23.62
-29.42
-36.07
-42.75
-48.01
-50.02
-47.18
-38.79
-25.40
-8.88
8.28
23.66
35.57
43.33
46.98
47.01
44.01
38.67
31.85
24.66
18.31
13.75
11.32
10.64
10.79
10.69
9.65
7.55
4.80
2.06
-0.22
-2.03
-3.78
-6.07
-9.41
-14.02
-19.75
-26.03
-31.97
-36.32
-37.77
-35.23
-28.21
-17.07
-3.03
12.19
26.68
38.84
47.53
52.21
52.81
49.72
43.68
35.69
26.86
18.22
10.58
4.36
-0.39
-3.96
-6.82
-9.45
-12.20
-15.15
-18.17
-20.95
-23.30
-25.23
-27.08
-29.36
-32.52
-36.57
-40.92
-44.30
-45.06
-41.68
-33.37
-20.45
-4.41
12.52
27.96
40.02
47.65
50.70
49.72
45.66
39.66
32.79
26.05
20.15
15.48
12.03
9.44
7.11
4.39
0.83
-3.72
-9.05
-14.69
-20.03
-24.54
-27.96
-30.36
-32.08
-33.48
-34.67
-35.22
-34.14
-30.24
-22.60
-11.13
3.22
18.58
32.77
43.85
50.64
52.82
50.81
45.52
38.11
29.82
21.91
15.54
11.62
10.66
12.66
17.01
22.65
28.29
32.72
35.02
34.82
32.16
27.37
20.89
13.14
4.59
-4.13
-12.05
-17.94
-20.51
-18.86
-12.78
-2.87
9.49
22.50
34.31
43.32
48.47
49.66
47.96
45.50
44.84
47.97
55.61
66.89
79.87
92.20
101.72
106.53
104.63
93.92
72.94
42.21
5.12
-32.49
-64.09
-84.95
-94.21
-95.31
-94.37
-97.26
-106.98
-122.40
-139.16
-151.72
-155.72
-149.51
-134.47
-114.25
-92.73
-72.15
-52.35
-31.43
-7.28
20.80
51.42
81.68
107.66
126.53
137.60
142.01
141.13
135.35
123.95
106.10
81.92
51.33
15.42
-23.41
-61.79
-96.36
-124.30
-143.51
-152.92
-152.85
-147.91
-143.47
-143.10
-146.91
-152.59
-157.26
-158.75
-156.29
-150.60
-146.83
-150.10
-162.61
-182.84
-207.50
-233.60
-259.23
-283.22
-284.01
-248.01
-177.50
-90.29
-6.30
63.55
117.58
158.29
188.82
211.53
224.70
226.55
218.51
205.16
191.72
181.71
175.73
172.48
169.85
163.38
149.12
126.98
100.15
72.81
48.13
26.79
7.94
-9.98
-26.86
-45.19
-65.13
-84.49
-100.43
-110.88
-115.98
-117.14
-116.25
-115.90
-118.52
-124.70
-133.19
-143.62
-151.20
-151.97
-142.79
-122.21
-91.55
-55.10
-18.28
14.00
38.23
53.42
59.96
59.45
53.72
44.14
31.38
16.12
-0.12
-15.37
-27.12
-33.68
-34.37
-29.93
-22.17
-12.86
-5.65
-1.84
-0.96
-1.26
-1.34
-1.03
-1.73
-5.66
-14.42
-27.65
-42.34
-54.26
-59.61
-56.73
-46.55
-31.71
-15.15
1.33
17.39
33.95
51.45
68.95
83.95
93.46
95.51
90.19
79.68
67.22
55.79
46.90
40.43
35.24
29.93
23.24
14.21
2.14
-13.12
-30.56
-48.00
-62.65
-72.37
-76.81
-77.63
-77.37
-77.57
-77.43
-73.85
-63.15
-43.31
-15.58
15.82
45.38
68.38
82.39
87.34
84.78
76.76
65.18
51.66
37.79
25.10
14.88
7.87
4.05
2.67
2.66
3.20
3.87
4.64
5.31
5.04
2.40
-4.09
-14.89
-28.56
-41.58
-49.30
-47.55
-34.35
-10.91
18.76
49.15
75.17
93.69
104.09
107.86
107.58
105.72
103.87
102.45
100.96
98.65
95.13
90.79
86.66
83.85
82.80
82.78
82.19
79.49
74.33
68.19
63.78
63.55
68.01
75.05
80.63
80.77
73.48
59.83
43.39
28.63
19.06
16.09
18.87
24.96
31.17
34.36
32.02
22.66
6.29
-15.47
-39.62
-62.43
-80.35
-90.67
-91.99
-84.21
-68.54
-47.28
-23.61
-1.16
16.55
26.72
27.57
18.51
0.08
-26.19
-57.82
-91.43
-122.98
-148.49
-164.85
-170.63
-166.33
-153.94
-136.07
-115.07
-92.68
-70.04
-48.08
-27.69
-9.56
6.14
20.12
33.71
48.25
64.09
79.87
92.63
98.89
96.32
85.14
68.42
51.12
38.01
31.81
32.28
36.62
41.06
42.53
39.71
33.17
24.75
16.63
10.81
8.79
11.61
19.78
33.27
51.36
72.74
95.55
117.66
136.79
150.73
157.66
156.41
146.84
129.87
107.26
81.16
53.65
26.33
0.18
-24.69
-48.94
-73.85
-100.59
-129.21
-157.84
-182.53
-198.41
-201.64
-191.40
-170.77
-146.00
-124.20
-110.77
-107.53
-112.42
-120.72
-127.01
-127.02
-118.63
-101.89
-78.49
-50.87
-21.52
7.53
34.82
59.47
81.01
99.24
114.17
126.00
135.05
141.71
146.29
149.05
150.20
150.03
149.14
148.40
148.67
150.17
151.73
150.61
143.02
125.50
96.67
58.49
16.24
-22.92
-52.37
-68.34
-71.07
-64.17
-52.57
-40.08
-27.92
-14.75
1.83
23.34
49.08
76.09
100.38
118.60
129.24
132.96
131.71
127.64
122.19
115.83
108.38
99.42
88.54
75.06
57.93
35.81
7.83
-25.47
-61.61
-96.48
-125.57
-145.77
-156.51
-159.94
-159.65
-158.85
-158.90
-159.04
-157.26
-151.84
-142.56
-130.76
-118.58
-107.60
-98.07
-88.94
-78.78
-66.88
-53.88
-41.50
-31.41
-24.13
-18.60
-12.68
-4.38
6.99
20.35
33.48
44.12
51.09
54.71
56.26
57.10
57.85
58.30
57.93
56.79
55.99
57.57
63.48
74.43
88.96
103.47
113.06
113.00
100.19
74.11
37.01
-6.63
-51.10
-90.69
-120.86
-139.11
-145.41
-141.84
-131.69
-118.16
-103.27
-87.50
-70.21
-50.59
-28.64
-5.52
16.83
36.53
52.55
64.92
74.34
81.41
86.08
87.56
84.77
77.11
64.96
49.80
33.77
19.06
7.42
-0.21
-3.60
-3.21
-0.03
4.53
8.86
11.52
11.66
9.30
5.21
0.59
-3.41
-5.99
-6.78
-5.67
-2.73
1.66
6.72
11.20
13.74
13.37
10.06
5.04
0.58
-0.64
3.54
14.06
30.17
49.60
69.12
85.47
96.18
100.15
97.81
90.84
81.78
73.39
68.12
67.54
71.96
80.20
89.88
97.99
101.71
99.13
89.65
74.02
54.09
32.43
11.96
-4.64
-15.51
-20.08
-19.35
-15.39
-10.61
-6.77
-4.48
-3.39
-2.72
-2.01
-1.37
-1.39
-2.64
-5.38
-9.45
-14.68
-21.12
-29.14
-39.07
-50.69
-62.98
-74.22
-82.51
-86.21
-84.26
-76.11
-61.74
-41.59
-16.88
10.13
36.20
57.62
71.27
75.89
72.76
65.63
59.47
58.64
65.14
77.91
93.29
106.65
114.22
114.31
107.39
95.22
79.64
61.85
42.44
22.00
1.64
-16.93
-32.06
-42.92
-50.01
-54.94
-59.69
-65.74
-73.67
-83.13
-93.15
-102.56
-110.13
-114.65
-114.98
-110.36
-100.84
-87.86
-74.24
-63.69
-59.95
-65.80
-82.29
-108.47
-141.40
-176.67
-209.47
-235.40
-251.06
-254.53
-245.60
-225.59
-197.09
-163.25
-127.23
-92.17
-60.63
-34.18
-13.19
2.98
15.65
26.47
37.50
50.91
67.76
87.76
109.42
130.28
147.53
158.63
161.54
155.89
142.91
123.78
99.55
71.58
41.64
11.90
-15.71
-41.02
-63.98
-79.06
-81.68
-71.19
-51.62
-29.35
-9.52
5.05
12.16
12.55
7.94
1.73
-4.61
-11.47
-20.93
-35.08
-55.89
-87.31
-131.64
-184.06
-238.75
-288.87
-327.05
-347.64
-347.50
-314.63
-251.93
-174.71
-101.47
-43.84
-5.04
22.14
42.17
56.61
66.03
67.82
62.84
55.44
50.42
50.26
54.04
57.20
54.50
42.14
17.45
-17.40
-55.70
-88.73
-108.74
-111.17
-96.31
-67.97
-32.07
4.25
36.43
63.12
85.17
103.72
119.04
130.01
135.79
136.66
133.83
129.91
127.53
128.15
131.56
136.53
141.63
146.25
150.52
154.40
157.75
159.36
157.39
150.59
139.63
127.37
118.13
115.77
121.86
135.53
152.41
165.80
168.89
157.11
129.41
88.32
39.06
-11.61
-55.51
-86.45
-101.47
-100.82
-86.82
-62.61
-31.47
3.55
39.64
75.83
110.07
138.94
158.58
166.31
161.89
147.34
126.04
91.23
44.05
-7.49
-52.90
-85.83
-106.04
-116.17
-119.39
-118.36
-115.06
-109.12
-100.63
-90.52
-80.30
-71.71
-65.50
-61.99
-61.30
-63.22
-65.74
-67.62
-68.44
-68.84
-70.60
-74.87
-82.33
-93.24
-107.69
-124.88
-144.37
-165.58
-182.51
-191.45
-187.85
-168.97
-136.10
-95.27
-54.70
-21.90
-0.48
10.95
16.23
19.36
21.17
19.07
9.64
-7.73
-29.60
-50.10
-63.39
-67.06
-62.25
-53.04
-44.41
-39.95
-40.79
-46.72
-57.41
-72.84
-93.17
-117.04
-141.08
-160.57
-171.17
-170.33
-158.84
-140.48
-120.22
-102.47
-89.46
-80.88
-74.41
-70.07
-66.48
-62.36
-56.65
-48.38
-36.85
-21.74
-3.52
16.56
36.85
56.54
75.60
94.88
115.67
138.68
163.26
187.17
207.24
220.54
226.05
224.81
219.84
215.21
214.74
220.79
233.31
249.60
264.63
272.30
266.60
243.34
201.76
145.59
82.79
23.85
-21.02
-45.18
-47.54
-32.90
-9.93
12.29
27.50
34.02
34.33
32.85
33.48
38.03
46.00
55.74
65.73
75.31
84.60
93.68
102.03
108.08
109.64
104.40
90.70
67.96
36.86
-0.64
-41.54
-82.18
-118.87
-148.66
-170.09
-183.66
-191.66
-197.46
-204.26
-213.84
-225.76
-237.39
-244.71
-243.74
-231.84
-208.67
-176.30
-138.72
-100.83
-67.31
-41.71
-25.98
-20.28
-23.31
-32.62
-45.08
-57.21
-65.47
-66.73
-58.75
-40.79
-13.90
19.18
54.75
89.14
119.75
145.63
167.49
187.29
207.44
230.07
256.46
286.68
319.45
352.17
381.25
402.70
413.02
410.09
393.77
365.99
330.09
289.79
248.13
206.94
166.96
128.44
91.82
57.93
27.65
1.42
-21.17
-41.25
-60.02
-78.15
-95.50
-111.28
-124.63
-135.20
-143.46
-150.65
-158.41
-168.43
-182.33
-201.69
-228.07
-262.54
-304.71
-351.66
-397.48
-434.08
-453.25
-449.49
-422.31
-377.01
-323.43
-273.00
-235.10
-214.28
-209.28
-214.15
-220.87
-222.21
-213.82
-194.60
-166.02
-130.77
-91.86
-52.39
-15.76
14.38
34.85
44.14
43.45
36.62
28.87
24.87
27.16
35.56
47.77
60.71
71.74
79.40
83.44
84.60
84.27
84.47
87.61
96.27
112.55
137.28
169.35
205.62
241.42
271.50
291.12
296.92
287.59
264.02
229.33
188.44
147.31
111.66
85.65
70.94
66.52
69.46
76.25
83.99
91.00
96.75
101.18
104.06
104.77
102.50
96.64
87.13
74.52
59.66
43.28
25.75
7.01
-13.33
-35.79
-60.70
-88.02
-117.02
-145.91
-171.77
-190.86
-199.43
-195.06
-177.78
-150.63
-119.20
-90.33
-70.29
-63.10
-69.61
-87.34
-111.28
-135.13
-152.73
-159.52
-153.38
-135.11
-107.93
-76.63
-46.15
-20.41
-1.57
10.20
16.26
18.80
20.08
21.80
24.83
29.23
34.49
39.83
44.50
47.97
49.93
50.26
48.94
46.04
41.95
37.52
34.31
34.49
40.45
54.05
75.95
104.96
137.99
170.51
197.35
214.00
217.63
207.99
187.41
160.20
131.24
104.55
82.26
64.43
49.88
37.28
26.06
16.41
8.72
2.73
-2.73
-9.34
-18.31
-29.56
-41.66
-52.45
-60.11
-63.95
-64.67
-63.82
-63.09
-63.80
-66.61
-71.44
-77.27
-82.06
-82.71
-75.71
-58.31
-29.78
7.74
49.49
89.18
120.91
140.76
147.77
143.73
132.23
117.23
102.04
88.65
77.78
69.20
62.14
55.71
48.98
41.14
31.46
19.42
4.84
-12.11
-30.92
-51.13
-72.29
-94.13
-116.27
-137.95
-158.00
-175.02
-187.99
-196.80
-202.64
-207.72
-214.31
-223.54
-234.46
-243.85
-246.89
-238.71
-215.92
-177.99
-127.75
-71.27
-16.69
27.58
55.11
63.43
54.87
35.76
14.07
-3.62
-14.31
-18.88
-20.39
-21.47
-22.35
-20.77
-13.68
0.46
20.12
41.03
57.91
66.92
67.21
61.02
52.35
45.03
41.36
41.49
44.11
47.35
49.91
51.63
53.38
56.35
61.15
67.57
74.62
81.28
86.72
90.44
92.30
92.26
90.32
86.37
80.80
74.23
67.99
63.27
60.75
60.77
63.27
67.94
73.80
79.76
83.87
84.51
80.07
69.30
51.99
28.84
1.36
-29.09
-60.98
-93.77
-122.56
-140.29
-142.43
-130.64
-111.01
-89.43
-73.41
-63.48
-60.41
-65.61
-81.42
-110.42
-150.79
-198.65
-247.13
-287.80
-312.42
-316.67
-300.57
-268.54
-227.10
-181.79
-135.46
-88.08
-39.29
10.04
55.32
90.25
109.54
111.84
100.78
83.42
67.34
57.56
56.12
61.04
69.00
77.60
86.45
96.49
108.42
121.67
134.24
145.05
152.80
156.96
158.26
158.84
161.53
169.00
182.74
202.19
225.88
249.10
265.33
268.81
257.01
230.99
194.90
154.03
104.07
48.19
-5.69
-49.29
-78.58
-94.08
-99.46
-98.79
-95.83
-93.19
-90.61
-87.45
-83.68
-79.69
-76.27
-75.52
-78.74
-86.78
-99.93
-117.01
-137.32
-160.35
-184.53
-201.98
-206.98
-195.94
-169.38
-132.28
-91.48
-53.80
-23.37
-0.93
14.63
22.89
21.95
8.31
-19.70
-58.59
-99.53
-130.83
-142.25
-129.01
-94.28
-47.08
1.27
41.09
67.31
80.09
83.33
82.30
81.51
83.46
86.12
88.75
91.00
93.02
95.18
97.58
99.51
99.37
95.07
85.11
69.74
50.41
29.27
8.39
-10.89
-27.96
-42.48
-54.09
-62.59
-68.46
-74.27
-84.68
-105.01
-138.74
-185.14
-238.27
-288.37
-325.11
-341.02
-334.23
-308.42
-270.69
-228.51
-187.35
-149.75
-116.06
-85.70
-57.97
-32.33
-7.98
16.42
42.36
70.59
100.29
128.98
153.34
170.64
179.93
182.41
180.85
178.35
177.12
177.94
180.47
184.13
188.99
196.09
206.97
222.59
242.21
262.83
279.51
286.57
279.25
255.15
215.02
162.74
104.59
47.79
-1.06
-37.33
-59.18
-67.44
-64.75
-54.37
-39.05
-20.62
-0.25
20.96
41.48
59.36
72.82
80.81
83.38
81.43
76.08
68.00
57.17
42.92
24.43
1.11
-27.01
-59.10
-93.54
-128.01
-159.72
-185.86
-204.30
-214.35
-217.22
-215.95
-214.60
-216.72
-224.03
-235.48
-247.65
-256.07
-256.90
-248.39
-231.19
-207.83
-181.44
-154.68
-129.06
-105.08
-82.68
-61.68
-41.93
-23.19
-4.89
13.82
33.70
55.08
77.42
99.41
119.37
135.82
148.03
156.19
161.32
165.05
169.40
176.42
187.91
205.04
227.86
255.08
283.92
310.48
330.25
339.05
333.78
313.27
278.70
233.65
183.41
133.82
89.73
53.84
26.31
5.38
-11.20
-24.87
-35.59
-42.06
-42.77
-37.15
-26.23
-12.46
1.18
12.24
19.59
23.40
24.55
23.77
20.87
14.58
3.01
-15.67
-42.44
-76.91
-117.13
-159.83
-200.96
-236.46
-263.14
-279.41
-285.81
-284.85
-280.26
-275.64
-273.09
-272.28
-270.52
-263.79
-248.45
-222.76
-187.86
-147.59
-107.35
-72.57
-47.23
-33.07
-29.45
-33.80
-42.21
-50.14
-53.10
-47.40
-30.84
-3.39
32.83
73.90
115.18
152.52
183.22
206.46
222.97
234.48
243.01
250.44
258.31
267.58
278.41
289.77
299.44
304.23
300.77
286.40
259.87
221.51
173.24
118.45
61.81
8.90
-34.77
-65.07
-80.54
-82.94
-76.59
-66.70
-57.39
-50.56
-45.91
-42.08
-38.07
-34.13
-31.64
-32.25
-36.74
-44.30
-52.52
-58.05
-57.64
-49.33
-33.16
-11.27
12.56
33.98
49.26
56.41
55.66
49.27
40.47
31.94
24.56
16.73
5.04
-14.18
-42.96
-80.32
-122.13
-162.08
-193.32
-210.16
-209.48
-191.35
-159.16
-118.90
-77.78
-42.35
-16.71
-1.54
5.55
8.69
11.75
16.77
23.44
29.70
32.89
30.89
22.81
9.06
-8.93
-28.99
-48.63
-65.29
-76.54
-80.37
-75.37
-60.91
-37.40
-6.35
29.76
67.63
103.64
134.06
155.41
164.78
160.47
142.74
114.32
80.32
47.07
20.39
3.69
-2.90
-2.09
2.15
6.42
9.07
10.14
10.45
10.66
10.67
9.88
7.83
4.66
1.09
-1.93
-3.87
-5.03
-6.27
-8.69
-13.03
-19.33
-26.77
-33.70
-37.92
-37.18
-29.86
-15.74
3.38
23.51
39.13
44.57
35.84
12.21
-23.28
-64.37
-103.37
-133.18
-149.10
-149.79
-137.29
-116.11
-91.77
-69.26
-51.67
-39.73
-32.20
-26.84
-21.73
-16.19
-10.81
-6.79
-4.93
-4.95
-5.68
-5.78
-4.77
-3.41
-3.48
-6.91
-14.66
-26.01
-38.41
-48.19
-51.59
-45.94
-30.47
-6.58
22.47
52.34
78.60
97.73
107.89
109.37
104.38
96.21
88.01
81.63
77.02
72.62
66.43
57.29
45.58
33.05
21.87
13.53
8.42
5.96
5.42
6.51
9.53
14.87
22.32
30.75
38.31
43.19
44.42
42.43
39.05
36.86
38.19
43.99
53.21
62.83
68.77
67.19
56.00
35.80
9.80
-17.05
-39.54
-53.67
-57.57
-51.82
-39.14
-23.51
-8.96
1.72
7.72
10.26
11.50
13.05
14.70
14.15
8.34
-4.71
-24.22
-46.56
-66.69
-80.51
-86.83
-87.93
-88.51
-93.57
-106.46
-127.78
-155.67
-186.74
-216.94
-241.88
-257.01
-257.93
-241.50
-207.71
-161.03
-110.80
-68.84
-45.16
-43.60
-59.89
-83.16
-100.11
-100.09
-78.13
-36.19
18.75
78.09
134.22
181.64
216.63
236.93
241.57
231.79
210.27
181.10
149.53
121.36
101.57
92.98
95.89
108.08
126.24
145.39
160.10
166.03
161.20
145.98
122.24
93.06
57.40
19.41
-14.09
-37.93
-51.41
-56.67
-55.97
-51.18
-43.44
-34.18
-24.56
-16.63
-12.39
-12.66
-16.56
-22.15
-28.60
-35.22
-42.38
-50.63
-61.20
-75.34
-93.53
-115.56
-137.39
-158.29
-177.09
-191.22
-196.46
-189.31
-168.92
-137.92
-101.87
-67.40
-40.32
-22.81
-14.08
-10.47
-9.09
-8.40
-7.45
-5.12
0.01
8.62
20.15
31.44
37.05
30.71
8.26
-29.36
-75.33
-118.77
-148.78
-157.75
-143.68
-109.76
-61.09
-5.74
48.74
96.93
135.62
163.14
179.09
184.27
180.90
172.32
162.09
153.42
148.03
145.82
145.34
144.91
143.35
140.24
135.40
128.31
118.19
104.06
84.99
60.55
31.02
-2.64
-39.17
-77.33
-116.41
-156.03
-196.15
-236.74
-277.15
-315.48
-348.32
-371.27
-380.27
-373.23
-351.00
-317.22
-277.20
-235.98
-196.72
-160.25
-125.69
-91.85
-58.45
-26.43
2.58
27.31
47.45
63.79
77.58
89.76
100.47
109.12
114.88
117.32
116.69
113.78
109.53
104.56
99.19
93.66
88.66
85.52
85.98
91.40
101.95
116.06
130.86
143.25
151.39
155.65
158.61
164.00
175.00
192.88
216.42
242.47
267.10
286.86
299.52
304.26
301.42
292.00
277.21
258.23
236.02
211.28
184.49
156.06
126.43
96.19
66.10
37.01
9.65
-15.54
-38.66
-60.41
-82.10
-105.36
-131.63
-161.51
-194.10
-226.68
-255.05
-274.63
-282.02
-276.68
-261.82
-243.88
-230.57
-228.08
-238.51
-258.75
-281.50
-297.79
-300.15
-284.79
-252.35
-207.03
-154.93
-102.42
-54.93
-16.39
11.15
27.61
34.92
36.60
36.93
39.79
47.63
60.95
78.42
97.49
115.36
129.65
138.90
142.75
141.80
137.54
132.15
128.22
128.37
134.50
146.91
163.67
180.56
192.11
193.17
180.76
155.31
120.74
83.35
50.05
26.44
15.57
17.59
30.26
49.89
72.49
94.61
113.89
129.10
139.97
146.70
149.59
148.81
144.40
136.62
126.19
114.28
102.24
91.05
80.79
70.50
58.36
42.21
20.13
-9.20
-46.25
-90.39
-139.66
-190.65
-238.82
-279.34
-308.47
-324.80
-329.88
-327.70
-323.08
-319.69
-318.53
-317.53
-312.48
-298.83
-273.42
-235.74
-188.08
-134.84
-81.42
-32.96
6.69
35.45
53.23
61.63
63.47
62.03
60.30
60.46
63.55
69.54
77.58
86.48
95.16
102.92
109.71
115.92
122.15
128.78
135.80
142.74
148.95
153.86
157.27
159.39
160.61
161.14
160.68
158.13
151.78
139.68
120.31
93.19
59.38
21.64
-15.92
-48.52
-71.81
-82.80
-80.63
-66.78
-44.56
-18.34
7.57
29.75
46.27
56.67
61.61
62.45
60.67
57.53
53.80
49.70
45.00
39.22
32.03
23.82
16.03
11.25
12.58
22.60
42.12
69.31
99.56
126.38
143.06
144.62
129.38
99.46
60.07
17.88
-20.78
-51.38
-71.75
-81.74
-82.61
-76.35
-65.34
-52.31
-40.15
-31.62
-28.70
-32.13
-41.30
-54.71
-70.65
-87.86
-105.71
-123.93
-142.08
-159.18
-173.55
-183.16
-186.24
-181.89
-170.47
-153.63
-133.75
-113.12
-93.06
-73.61
-53.68
-31.82
-7.27
19.34
45.57
67.54
80.68
80.93
65.90
35.65
-7.04
-57.09
-108.14
-153.88
-189.19
-210.93
-217.93
-210.67
-190.69
-160.30
-122.40
-80.42
-38.03
1.30
34.99
61.79
81.86
96.35
106.72
114.11
118.97
121.11
120.22
116.28
109.82
101.86
93.53
85.82
79.41
74.63
71.47
69.26
66.35
59.79
45.67
20.01
-19.69
-73.00
-135.72
-200.28
-257.44
-298.63
-318.23
-314.82
-291.12
-252.81
-206.77
-159.43
-115.65
-78.37
-48.70
-26.33
-9.97
2.13
11.75
20.30
28.50
36.36
43.32
48.64
51.75
52.45
51.06
48.30
45.11
42.40
40.83
40.63
41.64
43.37
45.28
47.02
48.65
50.73
54.03
59.32
66.82
75.95
85.28
92.88
96.89
96.15
90.69
81.84
72.01
64.11
60.84
63.93
73.65
88.47
105.27
119.94
128.39
127.73
117.15
98.20
74.23
49.22
26.35
7.12
-8.97
-23.97
-40.48
-60.48
-84.26
-109.86
-133.28
-149.54
-154.40
-146.07
-125.99
-98.33
-68.10
-38.92
-11.76
14.61
42.04
71.28
101.16
129.40
153.90
174.16
191.87
209.99
231.00
255.34
281.28
305.58
325.37
338.85
345.80
347.54
345.74
341.01
332.05
316.46
291.65
256.58
211.09
155.75
92.41
24.63
-41.73
-99.05
-139.21
-157.19
-152.96
-134.02
-113.53
-104.80
-116.13
-148.03
-194.55
-246.72
-297.07
-332.17
-339.50
-315.55
-268.34
-211.08
-154.15
-108.83
-77.97
-64.77
-70.40
-92.80
-126.30
-157.90
-174.27
-165.87
-131.98
-83.15
-37.44
-11.26
-13.50
-42.96
-89.66
-140.31
-183.34
-202.82
-191.14
-152.97
-101.15
-48.15
-0.46
40.87
75.78
103.75
123.67
132.80
130.08
117.68
100.92
84.81
72.37
63.16
55.05
45.73
31.40
10.29
-16.37
-45.13
-73.26
-95.09
-109.27
-116.95
-111.30
-90.75
-58.32
-20.64
16.62
50.65
81.19
108.22
130.57
147.75
158.55
164.49
167.16
168.88
171.32
175.71
182.01
186.82
187.68
182.95
175.69
167.53
160.19
154.23
150.65
150.10
148.67
143.81
134.98
127.84
123.91
122.84
121.12
114.72
106.56
91.84
67.06
32.00
-5.27
-41.87
-76.97
-112.84
-150.43
-162.34
-134.53
-71.47
-23.80
1.04
2.49
-4.21
-15.79
-31.09
-49.40
-74.80
-108.88
-149.34
-185.88
-214.51
-234.51
-249.23
-261.35
-273.10
-290.18
-316.35
-351.35
-386.59
-415.30
-430.70
-428.56
-406.35
-365.46
-313.84
-261.10
-214.76
-175.77
-144.19
-118.63
-98.36
-82.68
-71.48
-65.79
-65.44
-68.47
-70.63
-69.76
-65.75
-60.67
-57.16
-57.39
-62.55
-72.07
-83.59
-93.08
-96.68
-91.06
-74.28
-46.00
-7.53
38.56
89.53
143.49
199.93
259.22
321.39
385.04
446.88
502.61
548.29
581.56
602.02
610.37
607.02
591.04
560.28
512.65
448.05
369.77
284.49
200.82
126.80
67.46
23.74
-7.10
-29.78
-48.88
-67.44
-86.53
-105.87
-124.72
-142.54
-159.17
-174.53
-188.55
-201.10
-212.23
-222.20
-231.23
-238.90
-243.69
-243.10
-234.49
-216.26
-188.88
-154.94
-118.44
-83.27
-52.11
-26.00
-4.94
11.25
22.33
27.73
27.23
21.61
12.79
3.24
-4.88
-10.58
-14.21
-17.10
-20.70
-25.87
-32.48
-39.55
-45.75
-50.16
-52.71
-54.24
-56.25
-60.25
-67.33
-77.77
-90.99
-105.41
-118.64
-127.51
-128.82
-120.17
-101.02
-73.11
-40.11
-6.43
24.21
49.75
69.84
85.00
95.79
102.12
103.49
99.68
91.35
80.27
68.68
58.65
51.18
46.00
41.88
37.23
30.93
22.76
13.39
3.88
-4.92
-12.88
-20.76
-29.82
-41.38
-56.27
-74.47
-94.98
-115.65
-133.33
-144.27
-145.10
-133.82
-110.76
-78.76
-42.30
-6.18
25.93
52.25
72.70
88.00
98.77
104.96
106.17
102.21
93.74
82.34
70.00
58.46
48.51
39.89
31.62
22.68
12.67
2.05
-8.10
-16.74
-23.55
-29.28
-35.49
-43.96
-55.95
-71.76
-90.74
-111.42
-131.62
-148.61
-159.20
-160.34
-149.95
-127.77
-95.82
-57.97
-18.80
17.78
49.31
74.79
93.98
106.70
112.67
111.91
105.30
94.76
82.85
71.93
63.33
57.01
51.90
46.55
39.97
32.02
23.38
15.05
7.75
1.51
-4.51
-11.76
-21.80
-35.80
-53.99
-75.27
-97.08
-115.64
-126.66
-126.54
-113.60
-88.83
-55.74
-19.23
16.07
47.02
72.57
93.09
109.30
121.40
128.77
130.56
126.46
117.31
105.02
91.89
79.77
69.39
60.39
51.70
42.35
32.01
21.10
10.46
0.83
-7.55
-15.10
-22.65
-31.10
-41.27
-53.74
-68.89
-86.58
-105.69
-123.68
-136.69
-140.48
-131.93
-110.40
-78.31
-40.37
-2.00
32.58
61.30
84.16
102.21
116.27
126.30
131.49
131.00
124.74
113.80
100.16
86.09
73.37
62.85
54.29
46.67
38.77
29.72
19.36
8.28
-2.52
-12.22
-20.53
-27.96
-35.53
-44.41
-55.56
-69.57
-86.54
-105.84
-125.78
-143.32
-154.32
-154.67
-141.69
-115.53
-79.42
-38.71
0.93
35.36
62.80
83.50
98.55
108.73
114.02
114.00
108.61
98.70
86.11
73.05
61.35
51.94
44.67
38.49
32.14
24.52
15.27
4.81
-5.86
-15.64
-23.94
-30.95
-37.70
-45.56
-55.84
-69.30
-86.03
-105.30
-125.42
-143.60
-156.17
-159.21
-149.85
-127.51
-94.48
-55.43
-15.85
19.74
49.06
71.88
89.15
101.76
109.80
112.71
110.08
102.28
90.83
77.96
65.88
56.08
48.90
43.55
38.70
33.01
25.75
16.98
7.32
-2.40
-11.69
-20.53
-29.44
-39.16
-50.39
-63.70
-79.46
-97.55
-117.02
-135.61
-149.79
-155.38
-148.91
-129.04
-97.38
-58.24
-17.21
20.55
51.85
75.89
93.62
106.59
115.81
121.36
122.76
119.65
112.39
102.14
90.55
79.12
68.73
59.48
50.90
42.37
33.44
24.07
14.54
5.26
-3.53
-11.85
-20.05
-28.70
-38.38
-49.63
-62.85
-78.34
-96.01
-114.89
-132.79
-146.13
-150.76
-143.27
-122.39
-89.88
-50.18
-8.95
28.68
59.58
82.94
99.66
111.21
118.83
123.13
124.30
122.49
117.99
111.30
102.93
93.41
83.29
73.22
63.95
56.11
49.92
45.01
40.43
34.94
27.44
17.44
5.20
-8.30
-21.78
-34.22
-45.18
-55.09
-65.11
-76.79
-91.41
-109.18
-128.59
-146.21
-157.35
-157.50
-143.97
-117.20
-80.78
-40.29
-1.37
32.04
58.51
78.68
94.08
105.94
114.53
119.49
120.43
117.55
111.67
103.96
95.31
86.15
76.50
66.34
56.01
46.31
38.28
32.62
29.21
26.96
24.06
18.71
9.86
-2.29
-16.34
-30.29
-42.43
-51.99
-59.52
-66.55
-75.07
-86.77
-102.41
-121.21
-140.66
-156.78
-164.95
-161.34
-144.35
-115.42
-78.71
-39.74
-3.47
27.20
51.90
72.04
89.48
105.22
118.97
129.48
135.48
136.46
133.00
126.50
118.52
110.12
101.60
92.72
83.18
73.12
63.24
54.53
47.66
42.48
37.91
32.28
24.02
12.41
-2.13
-18.14
-33.71
-47.22
-57.97
-66.34
-73.63
-81.57
-91.76
-105.27
-122.16
-141.12
-159.26
-172.42
-176.18
-167.19
-144.62
-110.68
-69.99
-28.07
10.54
43.38
70.16
91.89
109.64
123.79
133.95
139.47
140.12
136.39
129.53
121.02
112.19
103.85
96.25
89.18
82.29
75.35
68.41
61.74
55.66
50.21
44.97
39.11
31.63
21.85
9.76
-3.87
-17.70
-30.30
-40.76
-48.97
-55.65
-61.99
-69.28
-78.65
-90.86
-106.17
-123.93
-142.14
-157.30
-164.96
-161.01
-143.37
-113.08
-74.26
-32.72
6.02
38.45
63.70
82.78
97.33
108.39
115.96
119.42
118.31
112.98
104.69
95.27
86.34
78.88
72.99
67.99
62.93
57.06
50.20
42.78
35.58
29.22
23.75
18.46
12.18
3.82
-7.08
-19.87
-33.12
-45.02
-54.27
-60.50
-64.51
-67.94
-72.75
-80.75
-93.11
-109.89
-129.60
-149.06
-163.66
-168.47
-159.77
-136.60
-101.46
-59.60
-17.32
20.08
49.75
71.55
87.08
98.23
106.04
110.47
110.88
106.96
99.35
89.57
79.47
70.48
63.08
56.80
50.68
43.94
36.39
28.58
21.41
15.61
11.20
7.39
2.76
-4.11
-13.92
-26.32
-39.92
-52.84
-63.51
-71.35
-76.91
-81.62
-87.12
-94.78
-105.35
-119.03
-135.35
-152.89
-168.94
-179.57
-180.43
-168.17
-142.03
-104.53
-60.89
-17.38
20.88
51.23
73.79
90.30
102.75
112.21
118.62
121.38
120.11
115.27
108.05
99.97
92.31
85.68
80.00
74.70
69.18
63.04
56.27
49.23
42.33
35.85
29.69
23.39
16.28
7.80
-2.30
-13.77
-26.00
-38.12
-49.42
-59.52
-68.44
-76.68
-84.92
-93.97
-104.59
-117.47
-132.97
-150.51
-168.10
-182.11
-187.89
-181.24
-160.10
-125.74
-82.60
-36.84
5.80
41.68
69.85
91.34
107.84
120.56
129.87
135.53
137.39
135.71
131.27
125.02
117.84
110.37
102.91
95.60
88.41
81.32
74.27
67.25
60.29
53.36
46.34
38.98
30.94
21.88
11.64
0.35
-11.60
-23.56
-34.93
-45.35
-54.82
-63.72
-72.53
-81.78
-91.97
-103.59
-117.18
-133.06
-150.66
-167.98
-181.45
-186.61
-179.63
-158.91
-125.99
-85.19
-42.17
-1.91
32.58
60.63
83.14
101.33
115.97
127.04
134.16
137.03
135.96
131.72
125.39
118.02
110.30
102.63
95.06
87.51
79.96
72.48
65.26
58.50
52.22
46.22
40.05
33.20
25.16
15.66
4.70
-7.42
-20.15
-32.83
-44.87
-55.89
-65.80
-74.89
-83.74
-93.20
-104.36
-118.30
-135.54
-155.24
-174.74
-189.49
-194.35
-185.26
-161.12
-124.44
-80.70
-36.37
3.31
35.75
61.08
80.92
96.98
109.96
119.48
124.67
125.07
121.09
113.95
105.24
96.35
87.98
80.26
72.90
65.72
58.80
52.59
47.61
44.13
41.86
39.77
36.41
30.31
20.62
7.55
-7.63
-22.96
-36.51
-47.14
-54.95
-61.17
-67.66
-76.22
-88.12
-103.78
-122.62
-142.87
-161.42
-174.09
-176.55
-165.66
-140.90
-104.92
-62.96
-21.09
15.77
45.24
67.39
83.74
95.74
103.90
107.84
107.04
101.78
93.39
83.85
74.91
67.37
60.96
54.77
48.05
40.84
33.97
28.54
25.14
23.30
21.43
17.49
9.90
-1.67
-16.15
-31.37
-45.10
-55.82
-63.42
-69.14
-75.12
-83.69
-96.59
-114.29
-135.41
-156.66
-173.23
-180.03
-173.19
-151.58
-117.36
-75.46
-31.91
8.02
41.22
67.04
86.54
101.29
112.33
119.86
123.59
123.37
119.67
113.50
106.05
98.21
90.40
82.55
74.61
66.74
59.43
53.22
48.28
44.10
39.55
33.25
24.14
12.00
-2.38
-17.48
-31.58
-43.45
-52.81
-60.44
-68.05
-77.78
-91.53
-110.19
-132.84
-156.39
-175.85
-185.57
-181.05
-160.72
-126.74
-84.46
-40.41
-0.13
33.45
60.11
81.35
98.75
113.01
123.79
130.37
132.48
130.69
126.26
120.46
114.05
107.14
99.38
90.57
80.95
71.38
63.00
56.69
52.51
49.50
45.93
39.89
30.16
16.75
0.95
-15.18
-29.66
-41.41
-50.60
-58.53
-67.03
-77.81
-92.01
-109.83
-130.33
-151.25
-169.05
-179.44
-178.56
-164.38
-137.68
-102.14
-63.09
-25.56
7.41
35.34
59.61
81.91
102.92
121.88
137.06
146.90
150.77
149.35
144.09
136.59
128.06
119.15
110.06
100.90
91.86
83.28
75.54
68.81
62.98
57.53
51.66
44.45
35.11
23.36
9.49
-5.64
-20.84
-34.98
-47.40
-58.14
-67.81
-77.46
-88.11
-100.69
-115.88
-133.87
-154.02
-174.29
-191.16
-200.14
-197.10
-179.85
-149.22
-108.99
-64.65
-21.49
16.87
49.11
75.70
97.86
116.60
132.22
144.43
152.73
156.80
156.66
152.69
145.64
136.49
126.34
116.24
106.98
98.94
92.10
86.11
80.44
74.63
68.35
61.39
53.60
44.84
34.90
23.63
11.02
-2.62
-16.72
-30.50
-43.19
-54.30
-63.74
-71.89
-79.52
-87.65
-97.45
-109.97
-125.82
-144.45
-163.71
-179.68
-187.45
-182.63
-163.11
-130.20
-88.42
-44.10
-3.13
30.84
57.09
77.19
93.51
107.75
120.26
130.20
136.33
137.82
134.69
127.85
118.67
108.58
98.68
89.60
81.54
74.45
68.11
62.35
57.04
51.98
46.88
41.31
34.71
26.55
16.58
4.94
-7.78
-20.62
-32.57
-42.87
-51.29
-58.20
-64.47
-71.19
-79.55
-90.48
-104.50
-121.23
-138.97
-154.54
-163.72
-162.42
-148.13
-121.16
-84.83
-44.56
-6.03
26.63
51.82
70.24
83.77
93.99
101.49
105.83
106.33
102.83
96.15
87.88
79.69
72.68
67.02
62.11
57.09
51.44
45.25
39.17
33.98
29.99
26.71
22.92
17.10
8.23
-3.75
-17.76
-32.05
-44.85
-55.15
-62.98
-69.34
-75.78
-83.91
-95.00
-109.66
-127.48
-146.62
-163.73
-174.37
-174.25
-160.70
-133.95
-97.34
-56.31
-16.62
17.50
44.25
64.19
79.10
90.70
99.86
106.51
110.11
110.29
107.25
101.73
94.78
87.37
80.08
73.11
66.35
59.60
52.83
46.28
40.34
35.31
31.10
27.08
22.18
15.25
5.62
-6.54
-20.19
-33.86
-46.16
-56.35
-64.59
-71.72
-79.03
-87.83
-99.14
-113.52
-130.66
-148.98
-165.49
-176.05
-176.44
-163.86
-138.18
-102.36
-61.56
-21.45
13.63
41.71
63.13
79.47
92.38
102.68
110.29
114.69
115.52
113.02
107.99
101.57
94.79
88.28
82.12
76.00
69.49
62.42
55.05
48.00
41.86
36.81
32.35
27.42
20.77
11.56
-0.33
-14.12
-28.45
-41.90
-53.45
-62.88
-70.76
-78.16
-86.34
-96.41
-109.16
-124.80
-142.65
-160.80
-175.94
-183.87
-180.67
-164.14
-134.94
-96.66
-54.65
-14.29
20.74
49.08
71.34
89.00
103.30
114.72
123.04
127.87
129.09
127.02
122.40
116.11
108.97
101.55
94.15
86.86
79.66
72.54
65.62
59.09
53.06
47.47
41.98
36.03
28.91
20.06
9.24
-3.31
-16.84
-30.28
-42.61
-53.17
-61.92
-69.45
-76.80
-85.25
-96.02
-110.03
-127.29
-146.39
-164.17
-176.03
-177.23
-164.59
-137.94
-100.57
-58.17
-16.81
19.02
47.47
69.07
85.48
98.16
107.63
113.67
115.93
114.55
110.35
104.56
98.21
91.89
85.59
78.92
71.57
63.53
55.30
47.71
41.57
37.16
33.99
30.75
25.76
17.60
5.83
-8.78
-24.38
-38.77
-50.25
-58.27
-63.68
-68.34
-74.59
-84.53
-99.20
-118.17
-139.11
-158.00
-169.88
-170.26
-156.57
-129.32
-92.05
-50.27
-9.70
25.51
53.52
74.62
90.04
100.89
107.51
109.72
107.51
101.60
93.64
85.54
78.79
73.78
69.80
65.61
60.16
53.24
45.52
38.16
32.13
27.64
23.90
19.47
12.80
3.03
-9.66
-24.03
-38.21
-50.56
-60.27
-67.66
-74.02
-81.14
-90.67
-103.74
-120.63
-140.29
-160.21
-176.38
-184.00
-178.88
-159.05
-125.83
-83.70
-38.89
2.67
37.23
63.82
83.68
98.85
110.77
119.75
125.19
126.47
123.71
117.92
110.74
103.61
97.26
91.52
85.59
78.71
70.70
62.05
53.75
46.67
41.03
36.10
30.48
22.63
11.58
-2.55
-18.60
-34.74
-49.35
-61.60
-71.78
-81.02
-90.79
-102.39
-116.65
-133.83
-153.34
-173.46
-190.98
-201.59
-200.85
-185.85
-156.60
-116.40
-70.98
-26.47
12.53
44.09
68.75
88.21
104.04
116.81
126.10
131.22
131.91
128.72
122.95
116.13
109.44
103.39
97.77
91.95
85.42
78.10
70.50
63.46
57.65
53.11
49.04
43.97
36.42
25.51
11.54
-4.09
-19.41
-32.72
-43.27
-51.53
-59.04
-67.66
-79.06
-94.25
-113.29
-135.17
-157.67
-177.31
-189.90
-191.42
-179.40
-153.99
-118.28
-77.40
-36.76
-0.26
30.71
56.98
80.33
102.05
122.06
139.06
151.35
157.93
158.94
155.61
149.68
142.65
135.41
128.17
120.73
112.90
104.76
96.72
89.30
82.81
77.01
71.02
63.56
53.44
40.18
24.21
6.88
-10.11
-25.33
-38.12
-48.74
-58.12
-67.57
-78.37
-91.61
-107.95
-127.29
-148.32
-168.22
-182.86
-187.69
-179.31
-156.79
-122.41
-81.01
-38.39
0.55
33.15
59.05
79.38
95.44
107.86
116.44
120.65
120.42
116.45
110.18
103.16
96.56
90.76
85.41
79.82
73.49
66.43
59.24
52.77
47.59
43.48
39.37
33.69
25.06
13.01
-1.73
-17.52
-32.43
-45.01
-54.86
-62.69
-69.91
-78.24
-89.20
-103.69
-121.70
-141.86
-161.26
-175.68
-180.49
-172.16
-149.70
-115.34
-73.99
-31.69
6.45
37.57
61.39
79.32
93.05
103.49
110.56
113.61
112.35
107.33
100.02
92.17
85.22
79.71
75.25
70.94
65.95
59.95
53.32
46.83
41.18
36.53
32.38
27.63
21.06
11.84
-0.15
-14.17
-28.92
-42.94
-55.16
-65.27
-73.79
-81.85
-90.81
-101.96
-116.21
-133.70
-153.36
-172.54
-187.13
-192.36
-184.38
-161.84
-126.66
-83.71
-39.13
1.68
35.60
62.06
82.27
97.93
110.15
119.15
124.59
126.12
123.91
118.74
111.80
104.31
97.12
90.52
84.33
78.14
71.61
64.78
58.03
51.82
46.41
41.57
36.60
30.56
22.62
12.43
0.27
-13.07
-26.53
-39.23
-50.70
-61.01
-70.61
-80.18
-90.39
-101.94
-115.51
-131.49
-149.49
-167.75
-182.87
-190.43
-186.30
-168.37
-137.54
-97.66
-54.28
-12.64
23.71
53.56
77.45
96.58
111.86
123.58
131.68
136.15
137.42
136.14
132.98
128.36
122.44
115.36
107.47
99.51
92.36
86.76
82.86
80.06
77.19
72.92
66.34
57.31
46.58
35.38
24.90
15.68
7.40
-0.93
-10.41
-21.65
-34.49
-48.02
-61.04
-72.63
-82.59
-91.55
-100.76
-111.72
-125.66
-142.83
-162.01
-180.16
-192.83
-195.25
-183.96
-158.24
-120.74
-76.67
-32.21
7.52
39.80
64.44
83.00
97.35
108.69
117.19
122.35
123.67
121.22
115.73
108.42
100.51
92.89
85.89
79.38
73.04
66.58
60.01
53.62
47.86
42.98
38.80
34.65
29.52
22.39
12.72
0.68
-12.84
-26.54
-39.15
-49.98
-59.04
-66.98
-74.93
-84.08
-95.48
-109.74
-126.63
-144.75
-161.22
-171.99
-172.77
-160.51
-134.71
-98.04
-55.62
-13.42
23.69
53.24
75.24
91.22
102.89
111.14
115.92
116.81
113.83
107.87
100.54
93.55
88.06
84.24
81.42
78.53
74.81
70.16
65.18
60.75
57.52
55.37
53.40
50.27
44.79
36.48
25.80
14.02
2.68
-6.88
-14.03
-18.91
-22.51
-26.25
-31.74
-40.29
-52.33
-66.91
-81.42
-91.92
-94.01
-84.32
-61.95
-29.10
9.31
47.10
78.73
100.81
112.60
115.25
110.78
101.14
88.24
74.14
61.15
51.11
44.37
39.24
32.50
20.92
2.99
-20.43
-46.81
-73.49
-99.14
-124.18
-150.30
-179.39
-212.95
-251.98
-297.08
-348.30
-404.35
-461.84
-515.16
-558.02
-585.58
-596.11
-591.23
-574.88
-551.57
-524.72
-495.93
-464.90
-430.79
-393.34
-353.17
-311.32
-268.50
-224.49
-178.33
-128.63
-73.39
-11.35
57.21
130.27
204.33
274.84
336.75
385.49
418.33
437.35
446.48
449.13
446.99
440.50
429.50
413.62
392.69
367.12
342.48
323.09
309.30
298.04
286.26
273.13
259.53
246.98
236.94
237.65
254.13
284.24
319.75
352.18
376.72
392.41
400.84
404.79
416.58
444.28
486.61
534.55
579.33
617.56
650.78
682.74
657.05
545.98
367.17
171.07
-1.34
-136.19
-236.44
-309.35
-361.13
-396.42
-409.73
-399.24
-370.87
-336.57
-306.79
-285.94
-273.61
-267.49
-265.41
-258.82
-243.25
-220.54
-197.70
-181.12
-173.20
-172.78
-177.16
-184.05
-187.32
-184.37
-176.59
-168.74
-165.30
-168.43
-178.44
-194.68
-215.56
-230.73
-234.73
-223.61
-196.89
-158.18
-114.33
-73.66
-43.08
-25.58
-18.79
-18.51
-20.28
-22.04
-23.97
-27.08
-31.64
-36.65
-40.33
-41.23
-39.70
-36.73
-33.82
-32.18
-32.00
-32.57
-32.33
-30.05
-25.29
-19.07
-12.84
-8.34
-6.58
-7.82
-11.55
-16.73
-22.32
-27.70
-33.01
-38.79
-45.80
-54.09
-63.50
-73.61
-83.82
-93.61
-102.75
-111.43
-120.12
-129.49
-139.33
-149.43
-159.36
-168.45
-175.91
-180.80
-181.92
-177.49
-170.85
-162.76
-153.50
-142.96
-130.78
-116.50
-99.75
-80.49
-59.08
-36.35
-12.57
11.78
36.32
60.86
85.33
109.51
132.84
154.33
172.62
187.08
197.26
203.29
205.87
206.08
205.09
203.98
203.63
204.59
207.25
211.04
214.58
216.01
213.89
207.90
199.18
189.82
181.91
176.71
173.98
172.42
170.53
167.39
162.96
157.84
152.21
145.10
134.72
119.21
97.56
70.11
38.61
5.73
-25.42
-52.30
-73.66
-89.63
-101.22
-109.75
-116.38
-121.64
-125.61
-127.32
-126.13
-122.31
-117.02
-111.55
-106.83
-103.43
-101.43
-100.86
-99.74
-96.81
-92.17
-86.59
-79.59
-68.69
-51.13
-24.68
10.52
56.00
109.74
165.78
216.45
256.85
286.74
308.12
324.43
337.51
353.89
376.10
400.31
418.57
425.09
419.90
406.13
390.69
380.70
391.17
431.26
498.50
578.70
654.68
714.03
748.21
756.47
688.34
529.71
312.54
95.32
-81.42
-208.28
-284.25
-330.37
-359.36
-377.83
-381.66
-370.53
-350.04
-333.32
-329.82
-337.06
-351.11
-367.42
-382.75
-389.18
-383.06
-367.23
-352.51
-346.71
-345.62
-345.45
-343.59
-338.34
-325.25
-302.73
-251.00
-167.44
-94.13
-44.07
-7.07
21.60
44.86
66.13
87.00
106.92
119.75
121.47
117.44
111.29
103.63
95.04
86.55
78.75
71.55
60.44
42.78
23.46
6.20
-8.11
-18.94
-26.17
-29.88
-30.21
-32.51
-39.90
-48.72
-54.53
-55.41
-51.00
-42.08
-29.92
-15.83
-8.95
-14.89
-30.66
-49.38
-66.03
-78.78
-88.01
-94.91
-100.71
-118.00
-154.09
-204.93
-259.42
-308.59
-348.94
-380.99
-406.96
-429.52
-465.81
-526.29
-607.22
-695.11
-778.44
-852.62
-918.18
-977.82
-942.20
-776.19
-521.81
-261.39
-49.84
101.53
204.24
274.46
325.13
364.43
382.15
371.89
339.50
299.15
262.40
234.55
217.65
213.71
225.07
241.51
254.20
260.92
264.12
265.09
263.00
257.79
251.30
246.07
236.51
218.10
191.80
163.12
137.55
118.10
105.61
99.32
97.40
94.27
85.93
72.56
57.59
44.77
36.42
33.38
35.33
40.88
47.41
52.74
56.40
59.40
62.94
67.37
72.01
75.42
76.12
73.48
68.15
61.98
56.86
53.59
51.31
47.91
41.35
30.88
17.51
3.47
-8.85
-17.72
-22.29
-22.19
-17.02
-6.52
8.88
27.37
45.80
60.55
68.89
69.98
65.07
56.71
47.53
39.28
32.32
26.10
19.77
12.88
5.50
-1.83
-8.53
-14.33
-18.62
-21.45
-23.33
-24.91
-26.73
-29.05
-31.68
-34.26
-36.39
-37.98
-39.41
-41.39
-44.68
-49.91
-57.36
-66.82
-77.30
-86.90
-92.89
-92.34
-82.99
-64.28
-37.88
-7.42
22.63
48.49
68.08
81.23
88.96
92.48
92.42
88.80
81.47
70.78
57.92
44.70
32.90
23.65
17.01
12.12
7.64
2.40
-4.11
-11.61
-19.28
-26.20
-31.90
-36.61
-41.19
-46.83
-54.60
-65.12
-78.18
-92.58
-106.08
-115.57
-117.82
-110.39
-92.69
-66.40
-35.14
-3.30
25.32
48.57
66.07
78.59
87.03
91.78
92.58
89.10
81.56
71.05
59.33
48.28
39.15
32.20
26.65
21.15
14.44
5.88
-4.30
-15.14
-25.46
-34.35
-41.58
-47.66
-53.64
-60.74
-70.07
-82.29
-97.35
-114.16
-130.40
-142.64
-147.08
-140.69
-122.35
-93.54
-58.08
-20.89
13.45
42.04
63.97
79.97
91.39
99.41
104.53
106.72
105.79
101.70
94.88
86.06
76.17
66.04
56.23
47.00
38.32
30.05
22.05
14.34
6.93
-0.21
-7.31
-14.77
-23.00
-32.21
-42.28
-52.90
-63.86
-75.31
-87.76
-101.46
-115.73
-128.33
-135.77
-134.38
-121.85
-98.39
-66.77
-31.33
3.62
35.10
61.91
84.13
102.21
116.31
126.11
131.15
131.29
126.94
118.93
108.29
96.06
83.21
70.58
58.83
48.33
39.02
30.50
22.23
13.80
5.02
-3.99
-13.00
-21.78
-30.23
-38.47
-46.83
-55.90
-66.50
-79.41
-94.90
-112.05
-128.31
-139.81
-142.31
-132.80
-110.79
-78.74
-41.31
-3.81
29.56
56.61
77.19
92.28
102.92
109.62
112.24
110.50
104.51
95.02
83.32
71.00
59.47
49.63
41.77
35.55
30.22
24.89
18.84
11.74
3.66
-5.09
-14.22
-23.53
-33.04
-42.85
-53.08
-63.92
-75.69
-88.80
-103.30
-118.34
-131.63
-139.64
-138.53
-125.60
-100.62
-66.25
-27.28
10.92
44.24
70.70
90.38
104.47
114.07
119.49
120.31
116.10
107.04
94.31
79.89
65.89
53.87
44.37
36.88
30.23
23.20
15.06
5.81
-3.93
-13.31
-21.74
-29.20
-36.27
-43.91
-53.18
-64.95
-79.73
-97.23
-116.12
-133.69
-146.20
-149.67
-141.21
-120.20
-88.81
-51.36
-12.99
22.04
51.37
74.56
92.37
105.63
114.64
119.07
118.49
112.92
103.26
91.11
78.35
66.44
56.09
47.10
38.67
29.93
20.40
10.20
-0.08
-9.78
-18.54
-26.56
-34.57
-43.52
-54.33
-67.67
-83.84
-102.64
-123.04
-142.90
-158.87
-167.00
-163.80
-147.59
-119.34
-82.66
-42.62
-4.20
29.17
56.20
77.37
93.89
106.77
116.20
121.71
122.70
118.87
110.61
98.99
85.49
71.62
58.55
46.81
36.35
26.62
16.99
7.08
-3.10
-13.25
-22.98
-32.15
-40.97
-49.91
-59.56
-70.52
-83.35
-98.61
-116.55
-136.58
-156.74
-173.49
-182.40
-179.43
-162.61
-132.91
-94.14
-51.72
-10.82
24.96
54.16
76.89
94.00
106.30
114.32
118.54
119.63
118.57
116.34
113.58
110.42
106.56
101.67
95.66
88.96
82.37
76.73
72.47
69.24
65.87
60.72
52.29
39.85
23.85
5.84
-12.07
-28.04
-41.08
-51.39
-60.18
-69.24
-80.42
-95.05
-113.50
-134.57
-155.32
-171.39
-178.03
-171.75
-151.64
-119.82
-80.69
-39.30
0.29
35.93
67.16
94.27
117.28
135.59
148.26
154.77
155.53
151.83
145.38
137.63
129.41
120.84
111.69
101.83
91.48
81.28
72.09
64.51
58.56
53.55
48.24
41.31
31.89
19.91
6.19
-7.89
-20.93
-32.02
-41.05
-48.76
-56.39
-65.36
-76.90
-91.71
-109.67
-129.36
-147.93
-161.40
-165.57
-157.41
-136.25
-104.25
-65.76
-25.96
10.80
41.97
66.89
86.05
100.26
109.92
115.11
115.90
112.82
106.93
99.57
91.94
84.67
77.81
71.00
63.96
56.74
49.86
44.01
39.61
36.41
33.36
28.92
21.71
11.12
-2.31
-17.06
-31.14
-42.95
-51.85
-58.42
-64.20
-71.21
-81.23
-95.24
-112.89
-132.17
-149.49
-160.30
-160.40
-147.29
-121.35
-85.83
-45.91
-6.98
26.98
54.14
74.69
89.75
100.38
107.08
109.84
108.64
103.92
96.70
88.22
79.60
71.46
63.88
56.71
49.81
43.35
37.65
32.94
28.98
24.91
19.51
11.68
0.98
-12.12
-26.34
-40.12
-52.22
-62.24
-70.74
-79.09
-89.04
-102.10
-118.88
-138.34
-157.60
-172.21
-177.31
-169.27
-147.13
-113.25
-72.62
-31.09
6.51
37.67
62.33
81.85
97.68
110.42
119.71
124.84
125.52
122.30
116.42
109.26
101.79
94.26
86.44
78.07
69.24
60.53
52.82
46.78
42.37
38.67
34.14
27.14
16.76
3.16
-12.38
-27.99
-42.00
-53.57
-62.98
-71.44
-80.55
-91.85
-106.32
-124.14
-144.36
-164.65
-181.43
-190.45
-188.01
-172.31
-144.26
-107.38
-66.58
-26.50
9.77
41.18
68.05
91.14
110.71
126.32
137.18
142.72
143.11
139.27
132.62
124.65
116.61
109.22
102.72
96.94
91.53
86.19
80.79
75.43
70.24
65.20
59.94
53.80
45.95
35.80
23.24
8.75
-6.66
-21.83
-35.82
-48.17
-59.04
-69.09
-79.34
-90.94
-104.95
-121.97
-141.65
-162.14
-179.99
-190.66
-189.84
-175.05
-146.75
-108.50
-65.80
-24.18
12.43
42.53
66.56
85.80
101.17
112.76
120.08
122.73
121.01
115.94
108.95
101.29
93.70
86.28
78.82
71.18
63.56
56.50
50.67
46.44
43.51
40.84
36.82
29.91
19.20
4.94
-11.55
-28.26
-43.27
-55.46
-64.87
-72.59
-80.35
-89.93
-102.57
-118.63
-137.17
-155.80
-170.84
-178.00
-173.63
-155.97
-126.09
-87.74
-46.23
-6.70
27.34
54.59
75.56
91.43
103.12
110.83
114.29
113.42
108.77
101.59
93.41
85.45
78.33
71.89
65.68
59.32
52.89
46.96
42.23
38.93
36.56
33.72
28.70
20.16
7.86
-7.17
-22.98
-37.45
-49.20
-58.10
-65.28
-72.72
-82.56
-96.36
-114.47
-135.53
-156.32
-172.29
-178.62
-171.80
-151.04
-118.70
-79.59
-39.33
-2.51
28.54
53.73
74.30
91.50
105.79
116.66
123.29
125.20
122.76
117.10
109.68
101.81
94.25
87.13
80.21
73.19
66.00
58.94
52.52
47.10
42.54
38.11
32.58
24.75
13.94
0.39
-14.77
-29.95
-43.69
-55.26
-64.83
-73.46
-82.61
-93.81
-108.18
-126.07
-146.55
-167.18
-184.07
-192.68
-189.15
-171.73
-141.59
-102.64
-60.21
-19.32
16.74
46.82
71.44
91.73
108.46
121.73
131.17
136.41
137.54
135.19
130.30
123.87
116.69
109.30
102.00
94.97
88.29
82.02
76.14
70.54
65.06
59.43
53.32
46.32
37.97
27.88
15.85
2.04
-12.92
-28.13
-42.64
-55.82
-67.55
-78.26
-88.84
-100.33
-113.77
-129.91
-148.78
-169.20
-188.47
-202.56
-206.96
-198.25
-175.38
-140.31
-97.47
-52.28
-9.46
28.14
59.72
85.81
107.30
124.80
138.43
148.08
153.73
155.61
154.13
149.81
143.23
135.07
126.11
117.22
109.20
102.54
97.25
92.87
88.55
83.37
76.66
68.19
58.21
47.34
36.13
24.92
13.64
1.99
-10.33
-23.35
-36.75
-49.91
-62.24
-73.43
-83.69
-93.79
-104.90
-118.31
-134.83
-154.10
-174.11
-191.12
-200.43
-197.79
-181.01
-150.98
-111.58
-68.41
-26.95
9.08
38.37
61.56
80.19
95.48
107.78
116.67
121.54
122.11
118.80
112.67
105.05
97.12
89.68
82.99
76.91
71.12
65.36
59.64
54.18
49.24
44.87
40.64
35.77
29.29
20.46
9.15
-4.03
-17.86
-30.97
-42.35
-51.66
-59.33
-66.32
-73.79
-82.86
-94.37
-108.71
-125.43
-142.81
-157.70
-165.99
-163.75
-148.75
-121.49
-85.39
-45.64
-7.56
25.11
50.95
70.48
85.11
95.98
103.39
106.93
106.20
101.39
93.57
84.41
75.60
68.16
62.24
57.20
52.13
46.42
40.09
33.75
28.19
23.81
20.26
16.51
11.25
3.47
-6.99
-19.30
-32.00
-43.55
-52.99
-60.24
-66.11
-72.01
-79.54
-90.04
-104.21
-121.68
-140.55
-157.43
-167.88
-167.68
-154.29
-128.04
-92.24
-52.11
-13.02
21.18
48.94
70.69
87.70
100.90
110.39
115.65
116.29
112.66
105.99
97.90
89.85
82.53
75.81
69.09
61.78
53.81
45.67
38.19
31.99
27.08
22.65
17.30
9.66
-1.03
-14.46
-29.30
-43.72
-56.09
-65.65
-72.82
-78.97
-86.00
-95.75
-109.39
-126.95
-146.88
-165.92
-179.59
-183.20
-173.44
-149.69
-114.48
-72.82
-30.45
7.96
40.03
65.65
86.12
102.81
116.34
126.49
132.65
134.53
132.53
127.69
121.19
114.01
106.57
98.78
90.35
81.16
71.54
62.25
54.16
47.74
42.69
37.84
31.54
22.32
9.62
-5.95
-22.73
-38.70
-52.33
-63.12
-71.79
-79.91
-89.35
-101.72
-117.91
-137.64
-159.13
-179.00
-192.68
-195.58
-184.57
-159.34
-122.79
-80.16
-37.25
1.46
33.87
60.15
81.71
99.85
114.99
126.68
134.15
137.02
135.69
131.15
124.62
117.07
108.97
100.40
91.28
81.68
72.00
62.90
55.01
48.63
43.43
38.47
32.46
24.20
13.03
-0.86
-16.47
-32.33
-47.09
-59.95
-70.97
-80.88
-90.89
-102.27
-116.14
-133.18
-153.26
-174.96
-195.20
-209.59
-213.43
-203.34
-178.64
-141.85
-97.98
-52.73
-10.69
25.77
56.42
82.22
104.16
122.61
137.26
147.54
153.19
154.43
151.90
146.48
139.05
130.39
121.18
111.97
103.15
94.93
87.32
80.21
73.38
66.60
59.62
52.15
43.83
34.26
23.09
10.21
-4.09
-19.09
-33.83
-47.37
-59.19
-69.39
-78.65
-88.02
-98.78
-112.02
-128.38
-147.55
-167.79
-185.75
-196.95
-196.94
-182.89
-154.89
-116.17
-72.16
-28.63
10.06
42.01
67.45
87.75
104.11
116.92
125.76
130.11
129.90
125.83
119.20
111.43
103.62
96.27
89.39
82.72
76.06
69.55
63.65
58.93
55.72
53.70
51.84
48.68
42.80
33.50
21.10
6.91
-7.33
-20.10
-30.67
-39.29
-47.02
-55.37
-65.86
-79.65
-97.19
-117.77
-139.15
-157.55
-168.34
-167.29
-152.20
-123.86
-86.10
-44.52
-4.59
29.97
57.84
79.61
96.54
109.43
118.25
122.46
121.87
117.15
109.84
101.80
94.44
88.27
82.80
77.10
70.40
62.63
54.48
47.07
41.24
37.11
33.75
29.57
22.93
12.88
-0.38
-15.58
-30.87
-44.58
-55.80
-64.69
-72.34
-80.43
-90.76
-104.69
-122.60
-143.27
-163.64
-179.09
-184.61
-176.40
-153.45
-118.16
-75.70
-32.27
6.97
39.28
64.51
84.21
100.13
113.16
123.10
129.15
130.71
128.00
122.09
114.53
106.60
99.01
91.71
84.29
76.42
68.17
60.15
53.10
47.53
43.29
39.47
34.67
27.49
17.12
3.68
-11.78
-27.68
-42.46
-55.21
-65.87
-75.22
-84.50
-95.09
-108.16
-124.48
-143.98
-165.29
-185.37
-199.77
-203.66
-193.46
-168.35
-130.92
-86.40
-40.89
0.64
35.57
63.70
86.21
104.45
119.09
130.05
136.91
139.53
138.30
134.09
127.91
120.67
112.99
105.25
97.62
90.15
82.82
75.62
68.53
61.60
54.83
48.15
41.33
33.99
25.58
15.64
3.96
-9.22
-23.24
-37.22
-50.34
-62.20
-72.88
-82.93
-93.13
-104.43
-117.73
-133.74
-152.45
-172.60
-191.22
-203.95
-206.10
-194.27
-167.87
-129.62
-84.72
-39.13
2.37
37.35
65.69
88.63
107.52
122.99
134.81
142.37
145.27
143.73
138.60
131.06
122.31
113.26
104.40
95.97
87.97
80.41
73.31
66.73
60.68
55.09
49.72
44.13
37.73
29.86
20.06
8.26
-5.06
-18.98
-32.41
-44.44
-54.69
-63.43
-71.46
-79.90
-89.94
-102.64
-118.51
-137.04
-156.16
-172.12
-180.20
-176.10
-157.63
-125.87
-85.05
-41.21
-0.12
34.40
61.22
81.26
96.17
107.12
114.28
117.20
115.60
110.00
101.82
92.93
84.90
78.45
73.30
68.52
63.16
56.79
49.71
42.73
36.76
32.18
28.57
24.73
19.20
10.81
-0.76
-14.74
-29.61
-43.62
-55.54
-65.10
-73.01
-80.58
-89.24
-100.21
-114.22
-131.28
-150.30
-168.75
-182.74
-187.70
-179.86
-157.78
-123.20
-80.71
-36.25
4.86
39.44
66.76
87.85
104.26
116.99
126.17
131.38
132.25
128.95
122.37
113.88
104.91
96.52
89.16
82.66
76.47
70.02
63.03
55.70
48.54
42.06
36.42
31.17
25.35
17.85
7.96
-4.34
-18.21
-32.31
-45.39
-56.72
-66.42
-75.25
-84.33
-94.77
-107.49
-123.07
-141.50
-161.63
-180.86
-195.14
-199.84
-191.24
-168.06
-132.23
-88.46
-42.67
-0.15
35.90
64.66
87.04
104.55
118.31
128.74
135.70
138.97
138.67
135.27
129.51
122.20
114.06
105.69
97.57
90.08
83.42
77.55
72.21
66.98
61.42
55.24
48.31
40.63
32.24
23.09
13.07
1.98
-10.23
-23.41
-37.14
-50.84
-63.97
-76.16
-87.42
-98.07
-108.82
-120.64
-134.58
-151.38
-170.75
-190.77
-207.72
-216.72
-213.29
-195.02
-162.78
-120.55
-74.12
-29.10
10.70
43.85
70.76
92.58
110.21
123.97
133.83
139.87
142.44
142.15
139.45
134.61
127.71
118.98
109.09
99.09
90.13
82.99
77.71
73.56
69.38
64.13
57.29
49.04
40.04
30.99
22.26
13.69
4.69
-5.37
-16.75
-29.21
-42.03
-54.29
-65.28
-74.82
-83.34
-91.92
-101.98
-114.91
-131.42
-150.84
-170.59
-186.32
-192.90
-186.07
-164.19
-129.10
-85.75
-40.49
1.00
35.36
62.01
82.36
98.37
111.35
121.48
128.09
130.47
128.49
122.89
115.05
106.48
98.29
90.87
84.01
77.19
70.01
62.43
54.83
47.74
41.50
35.97
30.49
24.07
15.78
5.17
-7.52
-21.36
-35.09
-47.58
-58.26
-67.25
-75.26
-83.30
-92.44
-103.64
-117.64
-134.58
-153.49
-171.81
-185.47
-189.81
-181.12
-158.19
-123.12
-80.75
-37.04
2.89
36.14
62.23
82.33
97.99
110.17
118.97
123.95
124.85
121.92
116.12
108.73
100.99
93.73
87.27
81.51
76.17
70.97
65.74
60.40
54.91
49.19
43.12
36.54
29.21
20.81
11.08
-0.15
-12.72
-26.12
-39.54
-52.20
-63.63
-73.89
-83.56
-93.52
-104.71
-117.94
-133.76
-152.15
-172.05
-190.92
-204.82
-209.21
-200.42
-177.21
-141.48
-97.80
-51.86
-8.60
29.11
60.61
86.70
108.47
126.47
140.60
150.44
155.75
156.73
154.03
148.57
141.25
132.93
124.26
115.78
107.88
100.72
94.29
88.41
82.77
77.00
70.78
63.83
55.95
46.98
36.77
25.31
12.72
-0.63
-14.16
-27.23
-39.37
-50.39
-60.53
-70.35
-80.65
-92.39
-106.48
-123.44
-142.86
-162.79
-179.63
-188.66
-185.54
-167.90
-136.59
-95.67
-51.11
-8.73
27.55
56.48
78.96
96.66
110.85
121.78
128.93
131.73
130.22
125.20
117.97
109.86
101.78
94.03
86.51
78.94
71.21
63.49
56.17
49.72
44.35
39.84
35.51
30.28
23.05
13.09
0.37
-14.34
-29.69
-44.20
-56.85
-67.42
-76.54
-85.42
-95.49
-107.99
-123.76
-142.93
-164.49
-185.98
-203.49
-212.35
-208.63
-190.66
-160.05
-121.36
-80.56
-42.90
-11.37
13.64
33.49
49.80
63.37
74.04
81.29
85.04
86.03
85.66
85.33
85.82
87.11
88.53
89.28
88.74
86.78
83.61
79.70
75.44
71.00
66.15
60.28
52.57
42.30
29.26
14.03
-2.03
-17.09
-29.52
-38.46
-44.17
-48.02
-52.03
-58.30
-68.40
-82.88
-100.90
-120.03
-136.56
-146.23
-145.39
-132.30
-107.80
-75.17
-39.10
-4.15
26.47
51.51
71.33
87.09
100.02
110.95
120.32
128.27
134.81
139.80
142.79
143.19
140.36
134.00
124.40
112.57
100.07
88.69
79.93
74.57
72.38
72.00
71.29
67.80
59.64
46.09
27.98
7.49
-12.52
-29.57
-42.41
-51.38
-58.22
-65.45
-75.56
-90.32
-110.51
-135.94
-165.58
-197.80
-230.40
-261.24
-288.67
-311.66
-329.62
-342.02
-348.28
-347.86
-340.88
-328.56
-313.47
-298.85
-287.35
-279.34
-272.43
-262.12
-243.38
-212.48
-167.60
-109.60
-41.68
31.25
103.28
168.46
221.51
258.85
279.29
285.73
282.95
276.02
268.93
264.22
263.06
265.03
268.70
271.43
272.86
272.42
268.98
261.35
249.31
234.27
217.92
202.41
188.71
181.10
182.05
190.88
204.11
217.92
230.85
243.33
257.91
276.39
304.66
345.07
394.25
443.92
484.56
510.63
520.91
518.62
473.33
372.59
228.25
71.55
-68.16
-178.44
-252.15
-300.55
-332.76
-356.04
-370.94
-379.48
-386.99
-400.84
-427.99
-468.60
-515.68
-558.52
-588.21
-595.42
-577.68
-540.67
-486.60
-426.25
-379.89
-349.84
-328.30
-310.69
-292.38
-271.55
-248.82
-225.79
-204.48
-184.15
-161.70
-135.90
-108.51
-81.14
-55.57
-33.12
-14.15
1.25
15.04
30.77
50.08
72.19
95.91
119.86
143.00
165.08
186.17
207.94
233.93
267.15
309.01
358.59
411.50
459.91
494.12
504.95
487.29
442.29
376.21
298.58
219.90
149.24
92.96
54.15
32.72
26.11
30.38
40.90
53.54
65.45
75.11
81.99
85.55
84.90
79.17
68.38
53.89
38.21
23.95
12.82
5.47
0.62
-4.52
-12.89
-25.62
-40.98
-54.98
-63.24
-62.96
-52.85
-34.86
-13.88
4.01
13.91
13.05
0.86
-21.32
-49.64
-75.69
-90.19
-87.64
-69.66
-44.60
-24.09
-17.61
-27.14
-44.79
-52.98
-34.79
16.39
93.25
178.79
254.57
308.15
336.72
328.51
283.58
216.45
148.13
91.72
48.32
13.96
-13.35
-31.97
-38.77
-31.76
-13.22
9.59
27.40
33.98
28.77
15.83
0.46
-11.70
-16.91
-15.58
-12.31
-13.69
-24.74
-46.91
-78.52
-115.84
-154.03
-186.66
-207.52
-212.91
-203.02
-182.01
-157.00
-136.31
-126.89
-131.89
-149.20
-172.80
-195.41
-210.70
-214.27
-203.59
-178.01
-138.89
-89.82
-36.58
13.54
53.03
75.92
79.29
63.86
33.12
-7.86
-53.65
-99.08
-139.23
-169.50
-185.89
-185.70
-168.12
-134.54
-88.05
-32.72
27.12
87.24
143.23
190.41
224.04
240.28
237.37
216.54
182.04
140.09
97.31
59.12
28.73
6.99
-7.05
-15.28
-19.70
-21.93
-23.10
-24.05
-25.74
-29.44
-36.88
-49.98
-70.19
-97.42
-129.20
-160.30
-183.49
-191.48
-179.47
-147.25
-99.73
-45.45
6.48
49.40
80.88
102.31
116.92
127.48
134.97
138.67
137.40
130.68
119.41
105.41
90.54
75.89
61.48
46.59
30.53
13.19
-4.53
-20.86
-33.60
-41.07
-42.91
-40.74
-38.02
-39.19
-48.20
-67.02
-94.46
-126.12
-155.26
-174.64
-178.51
-164.19
-132.77
-88.48
-37.54
13.41
58.67
94.17
117.67
128.66
128.08
118.12
101.93
83.08
64.92
49.82
38.69
30.90
24.71
18.10
9.60
-1.16
-13.44
-25.91
-37.34
-47.13
-55.45
-63.00
-70.69
-79.41
-89.95
-102.78
-117.49
-132.22
-143.50
-146.92
-138.62
-116.96
-83.42
-42.25
1.04
41.46
75.70
102.25
120.67
130.84
132.72
126.64
113.81
96.32
76.68
56.99
38.18
20.15
2.23
-16.08
-34.50
-52.07
-67.57
-80.24
-90.20
-98.42
-106.44
-115.88
-127.98
-143.54
-162.68
-184.47
-206.44
-224.39
-232.94
-226.98
-203.48
-163.02
-109.82
-50.52
8.01
60.59
104.41
138.64
163.17
177.83
182.34
176.90
163.32
145.38
127.95
115.17
109.04
108.92
112.32
116.36
118.61
118.09
114.97
109.68
102.13
91.74
78.21
62.21
45.49
29.16
13.65
-1.27
-15.84
-29.33
-39.47
-42.61
-35.32
-16.08
10.88
38.70
60.82
73.45
75.98
70.28
59.73
47.95
38.34
28.47
15.93
0.65
-15.19
-29.86
-43.46
-56.77
-69.82
-79.61
-89.82
-103.01
-118.45
-132.78
-143.39
-149.88
-152.72
-152.61
-148.19
-149.44
-165.47
-199.40
-247.42
-303.52
-363.35
-424.87
-488.71
-499.20
-426.25
-280.17
-105.24
56.58
186.97
286.95
365.54
419.12
460.55
487.37
495.02
483.71
459.60
429.48
396.06
367.99
346.80
334.10
321.20
300.63
270.47
234.57
198.43
165.91
139.03
117.07
100.53
83.17
59.34
26.72
-13.23
-57.57
-103.60
-149.13
-193.44
-234.94
-275.90
-318.66
-364.31
-412.52
-462.70
-515.00
-569.71
-626.73
-682.80
-732.97
-770.30
-787.86
-781.58
-752.31
-705.57
-648.97
-589.49
-530.84
-473.91
-418.22
-363.64
-311.32
-263.05
-220.13
-182.39
-148.46
-116.61
-85.79
-56.25
-29.16
-5.90
12.76
27.15
38.53
48.53
58.49
68.97
79.65
89.60
97.81
103.71
107.37
109.42
110.76
112.09
113.69
115.34
116.53
116.72
115.64
113.39
110.37
107.10
104.01
101.35
99.08
97.07
95.09
93.03
90.89
88.72
86.65
84.73
83.00
81.38
79.85
78.36
76.90
75.54
74.33
73.36
72.68
72.33
72.32
72.65
73.29
74.16
75.16
76.14
76.97
77.46
77.47
76.82
75.41
73.18
70.10
66.21
61.59
56.40
50.82
45.07
39.39
34.00
29.14
25.00
21.75
19.52
19.00
20.62
24.38
29.74
35.95
42.41
48.75
54.79
60.45
66.31
72.67
79.51
86.30
92.34
97.10
100.35
102.12
102.56
103.42
105.97
110.52
116.24
121.85
126.43
129.68
131.75
133.00
137.97
149.79
168.77
192.09
215.69
236.59
253.60
266.93
277.42
294.63
325.21
370.07
423.55
477.43
525.49
565.19
596.68
621.45
654.87
707.56
781.14
866.74
951.34
1025.13
1084.11
1128.62
1160.98
1201.54
1264.20
1351.18
1450.78
1545.75
1622.93
1676.66
1707.03
1604.99
1315.97
855.21
307.86
-225.25
-677.53
-1026.63
-1279.05
-1453.01
-1568.37
-1620.26
-1614.70
-1562.11
-1481.32
-1393.25
-1312.67
-1245.70
-1192.27
-1149.40
-1099.60
-1033.21
-948.33
-853.63
-761.73
-681.73
-616.65
-565.06
-523.67
-480.86
-429.49
-368.51
-304.75
-248.20
-206.22
-181.15
-170.79
-170.27
-169.78
-162.08
-143.89
-117.51
-88.35
-61.55
-40.23
-25.47
-17.10
-12.98
-11.68
-12.27
-14.74
-18.93
-23.33
-25.42
-22.52
-12.66
4.90
29.49
59.42
91.94
123.75
152.44
176.38
194.68
206.95
212.92
212.50
206.08
195.00
181.81
171.70
169.68
178.45
196.88
220.59
244.12
263.40
276.93
285.39
292.85
302.40
314.42
326.26
333.99
334.83
328.20
315.08
296.70
277.42
261.47
252.44
252.82
264.04
286.44
318.51
355.98
371.19
342.79
263.27
145.24
14.90
-102.63
-193.14
-254.58
-292.72
-316.41
-329.28
-333.49
-330.32
-322.78
-316.38
-316.81
-327.27
-347.09
-372.96
-397.59
-410.58
-407.40
-390.54
-367.85
-347.89
-335.84
-332.18
-334.63
-337.53
-335.55
-325.81
-307.55
-281.54
-249.05
-211.73
-167.13
-118.60
-72.20
-34.13
-7.59
8.93
19.13
26.62
33.38
39.81
44.46
47.30
49.40
52.54
59.35
72.07
92.21
120.03
153.89
189.23
220.36
241.86
246.42
231.00
197.16
150.70
99.92
52.85
14.41
-13.87
-33.56
-47.36
