1660334949.00
64.000000
-0.00
-0.00
-0.00
-0.00
-0.00
-0.00
-0.00
-0.00
-0.00
-0.00
0.00
0.01
0.01
-0.00
-0.03
-0.05
-0.05
0.00
0.13
0.36
0.66
1.01
1.37
1.72
2.06
2.40
2.79
3.24
3.80
4.42
5.06
5.67
6.21
6.69
7.15
7.68
8.30
9.13
10.09
11.06
11.93
12.63
13.18
13.72
14.47
15.58
17.31
19.52
21.95
24.33
26.47
28.41
30.43
32.93
36.24
40.77
46.22
52.10
57.82
62.98
67.56
71.96
76.85
82.77
90.35
99.20
108.62
117.70
125.76
132.61
138.69
145.22
150.99
158.50
168.64
181.76
196.65
210.15
217.50
213.64
195.00
160.84
114.01
58.93
0.40
-58.31
-116.04
-173.23
-230.70
-288.51
-345.62
-399.87
-449.52
-493.19
-530.11
-559.73
-581.33
-593.96
-596.68
-589.07
-571.15
-543.43
-505.97
-458.14
-398.89
-327.86
-246.49
-158.57
-69.74
14.08
88.05
149.55
198.13
234.71
260.73
277.53
286.39
288.69
286.13
280.34
272.67
263.82
253.86
242.49
229.35
214.42
198.16
181.40
165.12
150.15
136.88
125.23
114.67
104.55
94.35
83.93
73.54
63.65
54.72
47.00
40.38
34.51
28.98
23.55
18.20
13.25
8.96
5.51
2.87
0.86
-0.82
-2.42
-4.03
-5.60
-6.99
-8.08
-8.83
-9.24
-9.37
-9.27
-8.96
-8.47
-7.88
-7.29
-6.84
-6.57
-6.48
-6.46
-6.39
-6.25
-6.03
-5.78
-5.53
-5.29
-5.02
-4.69
-4.28
-3.81
-3.34
-2.90
-2.53
-2.26
-2.12
-2.15
-2.32
-2.58
-2.85
-3.02
-3.02
-2.85
-2.54
-2.20
-1.91
-1.73
-1.70
-1.76
-1.83
-1.80
-1.62
-1.27
-0.83
-0.39
-0.05
0.14
0.19
0.13
-0.00
-0.19
-0.41
-0.64
-0.85
-1.00
-1.06
-1.02
-0.87
-0.62
-0.28
0.16
0.62
1.04
1.37
1.63
1.89
2.21
2.59
2.96
3.21
3.27
3.19
3.07
3.00
2.98
2.92
2.69
2.20
1.51
0.79
0.20
-0.23
-0.59
-1.06
-1.82
-2.86
-3.97
-4.79
-4.99
-4.41
-3.23
-1.88
-0.90
-0.67
-1.23
-2.26
-3.23
-3.64
-3.30
-2.39
-1.34
-0.65
-0.61
-1.20
-2.16
-3.12
-3.78
-3.97
-3.71
-3.11
-2.36
-1.64
-1.13
-0.94
-1.07
-1.43
-1.84
-2.11
-2.20
-2.15
-2.10
-2.22
-2.56
-3.05
-3.51
-3.78
-3.76
-3.51
-3.20
-3.02
-3.12
-3.55
-4.27
-5.21
-6.26
-7.38
-8.54
-9.64
-10.53
-10.95
-10.68
-9.61
-7.88
-5.80
-3.71
-2.04
-0.91
-0.19
0.52
1.55
2.99
4.58
5.92
6.73
7.04
7.17
7.51
8.20
9.05
9.64
9.58
8.73
7.32
5.69
4.21
3.05
2.23
1.65
1.24
0.95
0.71
0.43
0.03
-0.44
-0.84
-0.94
-0.54
0.40
1.68
3.01
4.14
4.94
5.50
5.94
6.30
6.48
6.30
5.62
4.49
3.11
1.81
0.84
0.28
0.03
-0.10
-0.28
-0.56
-0.85
-0.97
-0.74
-0.05
1.10
2.56
4.09
5.43
6.30
6.57
6.24
5.41
4.29
3.04
1.77
0.56
-0.59
-1.60
-2.36
-2.73
-2.60
-2.03
-1.20
-0.36
0.22
0.42
0.28
-0.08
-0.47
-0.80
-1.06
-1.29
-1.55
-1.84
-2.11
-2.28
-2.28
-2.07
-1.68
-1.17
-0.64
-0.18
0.08
0.07
-0.22
-0.77
-1.47
-2.22
-2.90
-3.45
-3.89
-4.26
-4.59
-4.89
-5.08
-5.07
-4.78
-4.23
-3.48
-2.69
-1.97
-1.36
-0.87
-0.47
-0.15
0.07
0.13
0.03
-0.19
-0.45
-0.63
-0.69
-0.65
-0.61
-0.66
-0.88
-1.25
-1.64
-1.88
-1.77
-1.21
-0.26
0.88
1.92
2.60
2.82
2.63
2.18
1.64
1.07
0.46
-0.18
-0.84
-1.39
-1.69
-1.65
-1.27
-0.61
0.24
1.16
2.03
2.72
3.10
3.10
2.71
2.01
1.12
0.20
-0.66
-1.41
-2.02
-2.47
-2.72
-2.77
-2.65
-2.44
-2.19
-1.93
-1.60
-1.11
-0.40
0.52
1.51
2.38
2.93
3.07
2.83
2.32
1.70
1.05
0.45
-0.11
-0.58
-0.87
-0.90
-0.62
-0.06
0.61
1.21
1.59
1.67
1.53
1.28
1.07
1.02
1.17
1.50
1.95
2.41
2.79
3.03
3.12
3.12
3.15
3.28
3.59
4.03
4.53
4.97
5.29
5.45
5.44
5.26
4.91
4.37
3.66
2.80
1.84
0.84
-0.15
-1.06
-1.82
-2.30
-2.40
-2.04
-1.32
-0.43
0.35
0.81
0.81
0.42
-0.22
-0.94
-1.63
-2.25
-2.80
-3.32
-3.82
-4.29
-4.67
-4.90
-4.93
-4.72
-4.25
-3.55
-2.73
-1.92
-1.31
-1.01
-1.09
-1.46
-1.93
-2.33
-2.55
-2.66
-2.81
-3.20
-3.92
-4.92
-6.00
-6.89
-7.44
-7.60
-7.53
-7.41
-7.40
-7.54
-7.77
-7.90
-7.75
-7.18
-6.17
-4.85
-3.36
-1.84
-0.31
1.26
3.08
5.35
8.23
11.74
15.78
20.10
24.33
27.88
29.83
29.15
25.26
18.85
11.68
5.68
2.16
1.42
2.88
4.97
7.23
9.73
12.79
16.62
21.05
25.64
29.79
32.96
35.18
36.71
37.96
39.27
40.80
42.51
44.22
45.73
46.66
46.66
45.63
43.62
40.85
37.67
34.46
31.53
28.93
26.01
22.10
17.02
11.03
4.70
-1.33
-6.57
-10.75
-13.94
-17.42
-22.04
-27.74
-33.66
-38.87
-42.89
-45.73
-47.73
-49.38
-52.63
-58.66
-67.31
-77.55
-88.49
-99.73
-111.08
-122.32
-132.94
-144.24
-156.56
-168.63
-178.22
-183.53
-183.96
-179.96
-172.64
-150.85
-111.67
-61.38
-11.52
28.98
56.83
72.77
79.45
80.13
78.08
74.13
69.09
64.20
60.84
59.59
59.67
60.64
61.84
62.71
61.37
56.86
49.67
41.45
34.01
28.61
25.93
25.92
27.92
29.84
29.86
27.27
22.31
15.96
9.39
3.72
-0.45
-3.07
-4.90
-6.62
-8.34
-9.65
-10.04
-9.34
-7.71
-5.65
-3.64
-2.18
-1.42
-1.24
-1.39
-1.66
-1.95
-2.23
-2.48
-2.61
-2.49
-1.98
-1.07
0.15
1.49
2.75
3.78
4.51
4.96
5.15
5.07
4.61
3.65
2.07
-0.13
-2.91
-6.13
-9.55
-12.85
-15.61
-17.40
-17.90
-17.07
-15.17
-12.64
-9.99
-7.52
-5.31
-3.25
-1.27
0.60
2.23
3.42
4.12
4.46
4.71
5.13
5.87
6.92
8.17
9.55
11.08
12.86
14.98
17.42
20.00
22.40
24.33
25.55
25.97
25.62
24.52
22.69
20.16
17.03
13.58
10.25
7.52
5.71
4.89
4.82
5.13
5.52
5.91
6.43
7.33
8.68
10.22
11.37
11.38
9.74
6.42
2.01
-2.47
-5.97
-7.80
-7.91
-6.78
-5.14
-3.67
-2.69
-2.20
-2.01
-2.00
-2.20
-2.76
-3.68
-4.70
-5.23
-4.61
-2.38
1.40
6.11
10.82
14.68
17.29
18.81
19.78
20.74
21.97
23.35
24.52
25.05
24.62
23.03
20.22
16.23
11.33
5.98
0.84
-3.48
-6.55
-8.32
-9.07
-9.29
-9.40
-9.74
-10.46
-11.55
-12.95
-14.48
-15.93
-17.13
-18.09
-19.01
-20.27
-22.14
-24.56
-27.02
-28.64
-28.57
-26.24
-21.66
-15.34
-8.10
-0.75
6.11
12.16
17.24
21.32
24.34
26.22
26.95
26.58
25.25
23.21
20.70
17.93
15.00
11.91
8.63
5.24
1.95
-0.94
-3.16
-4.61
-5.46
-6.06
-6.83
-8.03
-9.70
-11.58
-13.28
-14.40
-14.67
-14.04
-12.69
-10.97
-9.25
-7.80
-6.59
-5.30
-3.46
-0.68
3.17
7.83
12.73
17.21
20.79
23.27
24.73
25.47
25.78
25.86
25.74
25.38
24.74
23.87
22.89
21.98
21.18
20.33
19.10
17.08
14.01
9.95
5.33
0.76
-3.22
-6.37
-8.86
-11.19
-13.89
-17.29
-21.36
-25.62
-29.26
-31.38
-31.18
-28.30
-22.97
-15.99
-8.46
-1.42
4.62
9.79
14.71
20.11
26.31
33.01
39.32
44.13
46.52
46.07
43.01
38.10
32.42
27.01
22.54
19.13
16.35
13.53
10.12
5.89
1.02
-4.08
-9.08
-13.89
-18.63
-23.44
-28.28
-32.86
-36.77
-39.67
-41.45
-42.26
-42.45
-42.39
-42.36
-42.46
-42.60
-42.48
-41.74
-40.00
-36.89
-32.16
-25.66
-17.50
-8.08
1.81
11.16
18.96
24.54
27.69
28.74
28.26
26.87
25.02
22.93
20.69
18.29
15.71
12.94
9.95
6.76
3.47
0.27
-2.63
-5.06
-7.00
-8.55
-9.80
-10.76
-11.28
-11.18
-10.33
-8.72
-6.50
-3.91
-1.17
1.56
4.16
6.55
8.61
10.24
11.36
11.95
12.05
11.70
10.97
9.94
8.69
7.27
5.75
4.10
2.32
0.45
-1.36
-2.86
-3.80
-4.00
-3.50
-2.55
-1.54
-0.82
-0.62
-0.95
-1.64
-2.47
-3.23
-3.79
-4.12
-4.21
-4.05
-3.56
-2.64
-1.20
0.73
2.98
5.24
7.15
8.47
9.06
8.99
8.41
7.51
6.43
5.29
4.19
3.25
2.47
1.72
0.73
-0.79
-2.93
-5.37
-7.49
-8.55
-8.13
-6.37
-3.90
-1.54
0.09
0.81
0.87
0.70
0.55
0.43
0.11
-0.64
-1.85
-3.34
-4.84
-6.13
-7.12
-7.81
-8.16
-8.09
-7.46
-6.22
-4.49
-2.53
-0.71
0.65
1.25
0.90
-0.57
-3.18
-6.74
-10.73
-14.41
-16.92
-17.66
-16.43
-13.50
-9.42
-4.75
0.07
4.83
9.37
13.49
16.92
19.36
20.69
21.00
20.65
20.06
19.54
19.19
18.86
18.31
17.38
16.03
14.40
12.64
10.82
8.87
6.63
4.04
1.15
-1.82
-4.60
-7.05
-9.21
-11.33
-13.68
-16.43
-19.46
-22.34
-24.33
-24.65
-22.65
-18.11
-11.34
-3.25
4.94
11.98
17.00
19.67
20.24
19.28
17.47
15.39
13.43
11.75
10.37
9.17
7.87
6.20
3.95
1.07
-2.21
-5.49
-8.28
-10.20
-11.14
-11.25
-10.88
-10.45
-10.23
-10.25
-10.30
-10.06
-9.30
-7.98
-6.29
-4.45
-2.59
-0.62
1.66
4.35
7.28
10.00
11.96
12.87
12.83
12.32
11.89
11.79
11.89
11.75
10.96
9.40
7.38
5.37
3.72
2.37
0.94
-1.10
-4.05
-7.74
-11.58
-14.75
-16.56
-16.68
-15.22
-12.69
-9.77
-7.13
-5.31
-4.56
-4.88
-6.00
-7.42
-8.61
-9.10
-8.66
-7.29
-5.20
-2.71
-0.06
2.62
5.33
8.13
11.00
13.75
16.05
17.49
17.74
16.67
14.44
11.41
8.13
5.18
3.11
2.26
2.78
4.46
6.88
9.41
11.36
12.15
11.39
9.00
5.18
0.37
-4.86
-10.01
-14.74
-18.95
-22.70
-26.04
-28.80
-30.59
-30.95
-29.55
-26.37
-21.70
-15.99
-9.75
-3.51
2.13
6.52
9.09
9.64
8.48
6.42
4.37
2.96
2.27
1.81
0.94
-0.78
-3.35
-6.35
-9.18
-11.42
-12.91
-13.75
-14.17
-14.32
-14.27
-13.97
-13.35
-12.37
-11.00
-9.21
-6.96
-4.24
-1.06
2.48
6.20
9.85
13.21
16.12
18.53
20.47
21.99
23.10
23.77
23.90
23.50
22.68
21.75
21.10
21.11
22.01
23.84
26.44
29.60
33.06
36.48
39.45
41.39
41.77
40.20
36.64
31.35
24.73
17.19
9.04
0.56
-7.87
-15.74
-22.54
-27.97
-32.08
-35.24
-37.85
-40.12
-41.86
-42.67
-42.18
-40.37
-37.59
-34.40
-31.30
-28.48
-25.91
-23.48
-21.25
-19.46
-18.39
-18.11
-18.31
-18.38
-17.65
-15.77
-12.82
-9.25
-5.69
-2.62
-0.25
1.40
2.38
2.68
2.26
1.16
-0.39
-1.92
-2.87
-2.72
-1.25
1.44
4.90
8.50
11.59
13.68
14.55
14.32
13.32
11.98
10.59
9.33
8.23
7.33
6.79
6.90
7.92
9.87
12.46
15.07
17.03
17.84
17.35
15.72
13.27
10.36
7.32
4.57
2.62
2.04
3.20
6.01
9.79
13.42
15.80
16.24
14.75
11.95
8.70
5.63
3.00
0.61
-1.86
-4.67
-7.82
-11.18
-14.53
-17.71
-20.67
-23.33
-25.51
-26.89
-27.10
-25.93
-23.48
-20.17
-16.59
-13.31
-10.65
-8.62
-7.04
-5.66
-4.25
-2.68
-0.89
1.01
2.79
4.10
4.69
4.57
4.18
4.26
5.61
8.75
13.72
20.03
26.81
33.04
37.75
40.16
39.81
36.71
31.32
24.51
17.26
10.40
4.36
-0.87
-5.54
-9.88
-13.94
-17.62
-20.70
-23.00
-24.39
-24.84
-24.37
-23.13
-21.44
-19.85
-19.03
-19.54
-21.58
-24.83
-28.51
-31.63
-33.28
-32.92
-30.44
-26.14
-20.57
-14.43
-8.43
-3.16
1.05
4.15
6.35
7.96
9.24
10.37
11.43
12.45
13.40
14.17
14.54
14.20
12.98
11.07
9.00
7.51
7.19
8.16
10.04
12.10
13.65
14.36
14.31
13.93
13.70
14.00
14.96
16.47
18.22
19.79
20.76
20.91
20.28
19.21
18.12
17.30
16.67
15.80
14.16
11.41
7.66
3.41
-0.67
-4.05
-6.48
-8.04
-8.97
-9.61
-10.23
-11.09
-12.35
-14.07
-16.12
-18.15
-19.71
-20.40
-20.02
-18.67
-16.70
-14.54
-12.52
-10.77
-9.22
-7.69
-6.02
-4.18
-2.30
-0.58
0.76
1.57
1.83
1.58
0.93
0.01
-1.06
-2.17
-3.17
-3.89
-4.19
-3.99
-3.37
-2.60
-2.05
-1.97
-2.43
-3.23
-4.04
-4.60
-4.90
-5.15
-5.63
-6.46
-7.52
-8.54
-9.26
-9.62
-9.76
-9.93
-10.30
-10.90
-11.65
-12.40
-13.06
-13.57
-13.87
-13.90
-13.55
-12.73
-11.38
-9.50
-7.16
-4.46
-1.55
1.39
4.08
6.19
7.48
7.85
7.46
6.74
6.25
6.43
7.41
8.94
10.44
11.27
11.05
9.79
7.85
5.77
4.02
2.83
2.23
2.07
2.20
2.49
2.81
2.98
2.89
2.42
1.60
0.62
-0.21
-0.54
-0.11
1.16
3.16
5.63
8.29
10.88
13.22
15.17
16.66
17.66
18.26
18.69
19.22
20.04
21.08
22.00
22.27
21.46
19.47
16.59
13.41
10.56
8.44
7.04
5.99
4.71
2.64
-0.56
-4.93
-10.20
-15.90
-21.52
-26.61
-30.88
-34.22
-36.61
-38.12
-38.81
-38.80
-38.13
-36.83
-34.89
-32.28
-28.99
-25.15
-20.96
-16.66
-12.30
-7.75
-2.75
2.94
9.24
15.67
21.51
26.06
28.95
30.21
30.24
29.46
28.10
26.19
23.60
20.33
16.61
12.83
9.43
6.69
4.67
3.28
2.44
2.18
2.70
4.23
6.89
10.45
14.31
17.59
19.38
19.08
16.62
12.52
7.63
2.82
-1.36
-4.70
-7.28
-9.25
-10.58
-11.17
-10.87
-9.76
-8.19
-6.63
-5.55
-5.16
-5.38
-5.92
-6.46
-6.81
-6.94
-6.97
-7.04
-7.21
-7.47
-7.72
-7.79
-7.56
-6.92
-5.90
-4.64
-3.45
-2.72
-2.83
-4.06
-6.40
-9.53
-12.76
-15.07
-15.39
-12.88
-7.33
0.57
9.35
17.11
22.23
23.88
22.35
18.76
14.49
10.59
7.42
4.77
2.29
-0.10
-2.10
-3.26
-3.39
-2.84
-2.46
-3.21
-5.64
-9.59
-14.27
-18.62
-21.84
-23.62
-24.11
-23.68
-22.54
-20.53
-17.22
-12.23
-5.58
2.08
9.51
15.30
18.32
18.17
15.40
11.24
7.17
4.43
3.61
4.60
6.77
9.24
11.25
12.26
12.13
11.00
9.31
7.74
7.04
7.81
10.21
13.83
17.63
20.33
20.80
18.62
14.20
8.66
3.35
-0.76
-3.38
-4.91
-6.10
-7.55
-9.45
-11.54
-13.32
-14.42
-14.80
-14.79
-14.85
-15.35
-16.39
-17.82
-19.36
-20.78
-21.86
-22.20
-21.12
-17.71
-11.15
-1.21
11.38
24.93
37.28
46.51
51.60
52.66
50.58
46.50
41.27
35.20
28.30
20.59
12.29
3.84
-4.33
-12.01
-19.21
-25.99
-32.32
-37.91
-42.36
-45.34
-46.82
-47.13
-46.84
-46.47
-46.18
-45.61
-43.93
-40.07
-33.25
-23.42
-11.38
1.36
13.13
22.67
29.51
33.92
36.56
38.03
38.59
38.27
37.06
35.03
32.39
29.34
25.95
22.24
18.32
14.53
11.43
9.55
9.17
10.11
11.73
13.17
13.64
12.60
9.95
5.95
1.12
-3.93
-8.67
-12.70
-15.86
-18.11
-19.48
-20.05
-19.91
-19.26
-18.37
-17.57
-17.08
-17.03
-17.38
-18.08
-19.09
-20.41
-22.01
-23.74
-25.25
-26.10
-25.92
-24.51
-21.89
-18.21
-13.64
-8.27
-2.09
4.94
12.83
21.47
30.53
39.36
46.98
52.21
54.01
51.89
46.19
38.03
28.99
20.50
13.40
7.80
3.29
-0.59
-4.04
-6.95
-9.02
-10.12
-10.40
-10.30
-10.31
-10.70
-11.39
-12.06
-12.31
-11.91
-10.93
-9.69
-8.57
-7.88
-7.74
-8.07
-8.75
-9.69
-10.83
-12.11
-13.33
-14.19
-14.43
-14.05
-13.40
-13.20
-14.12
-16.38
-19.52
-22.48
-24.07
-23.61
-21.19
-17.69
-14.28
-11.88
-10.78
-10.62
-10.67
-10.22
-8.88
-6.61
-3.65
-0.34
3.08
6.45
9.69
12.70
15.35
17.42
18.74
19.24
19.08
18.62
18.25
18.29
18.82
19.66
20.50
20.94
20.62
19.25
16.68
12.98
8.50
3.80
-0.50
-3.91
-6.16
-7.22
-7.19
-6.22
-4.42
-2.00
0.74
3.39
5.50
6.76
7.14
6.77
5.92
4.73
3.25
1.38
-0.96
-3.74
-6.74
-9.58
-11.72
-12.66
-12.02
-9.71
-5.96
-1.35
3.40
7.54
10.48
11.87
11.62
9.81
6.73
2.86
-1.12
-4.44
-6.48
-7.05
-6.55
-5.81
-5.70
-6.66
-8.43
-10.11
-10.68
-9.45
-6.49
-2.49
1.60
5.01
7.45
9.01
9.92
10.29
10.08
9.21
7.78
6.03
4.22
2.41
0.33
-2.48
-6.35
-11.18
-16.33
-20.85
-23.91
-25.15
-24.78
-23.45
-21.88
-20.63
-19.85
-19.39
-18.89
-17.92
-16.09
-13.14
-9.04
-4.05
1.31
6.37
10.58
13.72
15.99
17.83
19.68
21.63
23.44
24.58
24.62
23.44
21.35
18.95
16.84
15.33
14.36
13.54
12.51
11.10
9.49
8.10
7.29
7.17
7.38
7.32
6.40
4.40
1.60
-1.35
-3.72
-5.08
-5.39
-5.00
-4.39
-3.93
-3.79
-4.06
-4.79
-6.01
-7.63
-9.31
-10.51
-10.68
-9.53
-7.26
-4.48
-1.83
0.42
2.65
5.65
10.11
15.96
22.14
26.91
28.61
26.36
20.54
12.47
3.82
-4.07
-10.60
-15.83
-20.11
-23.74
-26.76
-29.04
-30.44
-30.91
-30.52
-29.34
-27.32
-24.23
-19.75
-13.67
-6.15
2.08
9.77
15.47
18.19
17.77
15.08
11.62
8.88
7.68
7.99
9.08
10.04
10.22
9.41
7.71
5.27
2.20
-1.44
-5.48
-9.58
-13.18
-15.74
-16.88
-16.52
-14.88
-12.40
-9.56
-6.76
-4.19
-1.83
0.42
2.71
5.01
7.12
8.72
9.51
9.38
8.50
7.31
6.38
6.29
7.45
9.96
13.59
17.69
21.31
23.36
22.92
19.64
14.08
7.69
2.55
0.66
3.25
10.19
19.99
30.22
38.26
42.10
40.84
34.75
25.04
13.37
1.46
-9.15
-17.37
-22.64
-25.01
-25.14
-24.06
-22.92
-22.60
-23.51
-25.54
-28.27
-31.19
-33.85
-35.85
-36.77
-36.15
-33.59
-29.05
-22.99
-16.38
-10.30
-5.46
-1.90
1.02
4.22
8.26
13.04
17.74
21.26
22.82
22.30
20.19
17.25
14.07
10.79
7.16
2.93
-1.92
-6.98
-11.52
-14.81
-16.38
-16.21
-14.67
-12.33
-9.70
-7.06
-4.38
-1.45
1.92
5.71
9.59
12.93
15.12
15.78
14.96
13.14
11.03
9.29
8.30
8.11
8.48
9.08
9.61
9.90
9.91
9.68
9.37
9.38
10.35
12.95
17.60
24.00
31.00
36.83
39.76
38.79
34.12
26.98
19.06
11.74
5.64
0.55
-4.05
-8.50
-12.69
-16.17
-18.56
-19.87
-20.63
-21.55
-23.22
-25.71
-28.48
-30.66
-31.37
-30.09
-26.78
-21.80
-15.77
-9.41
-3.49
1.22
4.03
4.45
2.46
-1.47
-6.39
-11.20
-14.96
-17.14
-17.65
-16.72
-14.74
-12.12
-9.28
-6.63
-4.59
-3.53
-3.68
-5.01
-7.31
-10.15
-13.09
-15.75
-17.90
-19.52
-20.63
-21.24
-21.19
-20.20
-17.91
-14.10
-8.83
-2.50
4.25
10.76
16.54
21.46
25.68
29.53
33.31
37.11
40.75
43.77
45.60
45.69
43.75
39.84
34.37
28.02
21.57
15.69
10.84
7.21
4.66
2.83
1.23
-0.57
-2.86
-5.60
-8.52
-11.18
-13.17
-14.28
-14.56
-14.31
-13.94
-13.77
-14.00
-14.68
-15.70
-16.93
-18.24
-19.56
-20.84
-22.07
-23.19
-24.05
-24.38
-23.82
-22.00
-18.68
-13.87
-7.88
-1.32
5.03
10.45
14.44
16.87
17.98
18.23
18.10
17.93
17.80
17.64
17.27
16.51
15.31
13.74
11.98
10.31
9.07
8.49
8.63
9.26
9.91
10.06
9.34
7.73
5.55
3.27
1.28
-0.34
-1.76
-3.21
-4.76
-6.24
-7.28
-7.58
-7.06
-5.96
-4.69
-3.61
-2.86
-2.39
-2.09
-1.95
-2.14
-2.95
-4.58
-7.07
-10.13
-13.19
-15.62
-16.83
-16.56
-14.90
-12.34
-9.56
-7.20
-5.63
-4.86
-4.61
-4.48
-4.13
-3.48
-2.64
-1.85
-1.38
-1.42
-2.03
-3.11
-4.43
-5.71
-6.71
-7.32
-7.59
-7.66
-7.68
-7.66
-7.48
-6.90
-5.68
-3.67
-0.90
2.47
6.15
9.84
13.19
15.86
17.50
17.91
17.18
15.74
14.29
13.43
13.38
13.88
14.27
13.99
12.89
11.34
10.02
9.46
9.67
10.08
9.84
8.32
5.42
1.62
-2.30
-5.57
-7.74
-8.77
-8.87
-8.34
-7.41
-6.17
-4.72
-3.23
-2.06
-1.63
-2.26
-4.02
-6.63
-9.55
-12.23
-14.29
-15.66
-16.46
-16.88
-17.00
-16.70
-15.80
-14.18
-11.98
-9.60
-7.51
-6.07
-5.30
-4.89
-4.35
-3.26
-1.43
1.01
3.75
6.46
8.90
10.98
12.73
14.17
15.33
16.16
16.56
16.42
15.68
14.31
12.44
10.23
7.87
5.51
3.19
0.91
-1.27
-3.22
-4.73
-5.62
-5.83
-5.47
-4.77
-4.02
-3.46
-3.24
-3.40
-3.94
-4.82
-5.96
-7.26
-8.58
-9.75
-10.58
-10.89
-10.50
-9.28
-7.15
-4.15
-0.43
3.75
7.98
11.76
14.61
16.13
16.22
15.02
12.90
10.31
7.57
4.86
2.16
-0.56
-3.28
-5.80
-7.82
-9.05
-9.33
-8.63
-7.09
-4.96
-2.62
-0.52
0.86
1.17
0.35
-1.28
-3.14
-4.55
-5.00
-4.36
-2.82
-0.75
1.57
4.03
6.71
9.70
12.93
16.11
18.87
20.88
22.00
22.28
21.82
20.70
18.86
16.20
12.77
8.79
4.69
0.90
-2.28
-4.81
-6.87
-8.70
-10.39
-11.85
-12.87
-13.22
-12.87
-11.97
-10.80
-9.65
-8.69
-7.95
-7.38
-6.89
-6.38
-5.69
-4.63
-2.99
-0.71
2.06
4.83
6.97
7.88
7.28
5.28
2.40
-0.64
-3.09
-4.39
-4.30
-2.86
-0.39
2.66
5.83
8.77
11.29
13.30
14.76
15.60
15.66
14.77
12.86
10.01
6.46
2.54
-1.42
-5.09
-8.20
-10.53
-11.95
-12.47
-12.22
-11.44
-10.39
-9.23
-8.05
-6.86
-5.65
-4.41
-3.13
-1.86
-0.65
0.42
1.19
1.48
1.11
0.03
-1.63
-3.56
-5.31
-6.55
-7.07
-6.96
-6.47
-5.95
-5.67
-5.78
-6.29
-7.13
-8.23
-9.56
-11.17
-13.11
-15.37
-17.87
-20.41
-22.77
-24.71
-26.04
-26.65
-26.56
-25.96
-25.15
-24.46
-24.05
-23.77
-23.10
-21.23
-17.35
-11.00
-2.27
8.10
18.93
28.83
36.56
41.29
42.76
41.30
37.75
33.20
28.73
25.08
22.51
20.78
19.38
17.78
15.72
13.28
10.74
8.41
6.44
4.79
3.33
1.99
0.81
-0.02
-0.33
-0.05
0.65
1.48
2.06
2.14
1.65
0.67
-0.59
-1.85
-2.79
-2.96
-1.89
0.75
4.90
9.98
15.06
19.12
21.52
22.25
21.78
20.77
19.55
18.00
15.63
12.02
7.17
1.58
-3.96
-8.81
-12.76
-15.98
-18.73
-21.15
-23.08
-24.13
-23.92
-22.30
-19.46
-15.87
-12.01
-8.25
-4.76
-1.56
1.39
4.12
6.62
8.81
10.60
11.97
13.01
13.83
14.45
14.89
15.12
15.05
14.54
13.35
11.47
8.95
5.77
1.72
-3.21
-8.71
-14.17
-18.94
-22.86
-25.95
-28.64
-31.62
-35.43
-39.69
-43.08
-44.11
-42.13
-38.11
-33.34
-28.78
-24.47
-19.54
-12.35
-1.54
13.12
30.32
47.73
64.19
79.69
94.31
104.66
105.72
93.56
68.91
39.82
12.21
-9.48
-23.36
-29.68
-31.06
-30.83
-31.13
-32.15
-32.58
-31.07
-26.12
-17.25
-5.63
5.97
14.54
17.91
15.19
6.79
-5.92
-20.22
-31.90
-37.19
-35.64
-30.75
-27.59
-29.52
-36.79
-47.63
-59.31
-69.28
-75.55
-76.36
-69.82
-54.43
-30.52
-1.19
28.05
51.71
66.26
71.08
67.96
59.87
49.57
38.75
28.26
18.12
8.84
1.24
-4.20
-7.83
-10.62
-13.47
-16.63
-19.29
-19.98
-17.20
-10.41
-0.53
10.35
19.86
26.41
29.57
29.89
28.33
25.79
22.82
19.75
16.88
14.32
12.25
10.41
8.17
4.85
0.22
-5.38
-11.25
-16.66
-21.08
-23.98
-24.70
-22.40
-16.50
-7.28
3.79
14.35
22.21
26.26
26.99
25.94
24.68
23.79
22.61
19.89
14.78
7.66
0.06
-6.00
-9.06
-8.68
-5.43
-0.54
4.11
6.04
2.31
-9.53
-29.98
-56.39
-82.99
-102.80
-110.53
-105.06
-90.09
-72.31
-58.28
-51.62
-51.97
-56.15
-60.34
-62.05
-60.67
-56.70
-50.51
-41.59
-28.76
-10.99
11.50
36.80
61.54
81.95
95.16
100.11
97.90
91.21
83.13
76.11
71.29
68.68
67.75
67.94
68.93
70.43
71.88
72.36
70.82
66.58
59.69
51.05
41.99
33.74
27.08
22.20
18.84
16.51
14.61
12.70
10.68
8.76
7.32
6.65
6.94
8.03
9.58
10.77
10.84
9.32
6.02
0.92
-5.94
-14.04
-22.73
-30.91
-37.87
-43.01
-45.84
-46.22
-44.55
-41.69
-38.37
-35.47
-33.40
-32.86
-34.12
-36.90
-40.72
-45.31
-50.99
-58.04
-67.25
-74.27
-75.53
-70.28
-60.52
-48.80
-36.69
-27.55
-20.87
-16.39
-13.72
-12.76
-13.10
-12.83
-10.66
-6.05
0.59
8.56
16.49
23.24
27.73
29.59
29.58
29.09
29.42
31.02
33.60
35.77
36.05
33.30
27.51
20.11
12.93
6.99
1.78
-4.06
-12.00
-22.43
-34.21
-45.10
-52.23
-53.83
-50.52
-45.25
-41.69
-42.73
-49.50
-60.78
-73.62
-82.91
-82.92
-69.47
-41.70
-2.61
41.23
80.60
106.73
113.97
103.48
82.68
61.86
49.86
51.30
65.78
88.46
113.46
128.14
123.14
99.31
67.19
37.64
15.03
0.44
-11.21
-22.16
-32.05
-38.12
-37.76
-31.94
-23.61
-16.19
-11.87
-11.41
-13.38
-15.74
-15.76
-11.51
-3.21
6.91
16.07
22.24
24.44
23.41
20.64
18.25
17.92
20.00
23.53
27.06
29.38
29.65
27.96
24.77
20.92
16.93
12.59
5.29
-5.61
-17.69
-26.96
-30.25
-26.76
-17.80
-6.15
4.73
12.49
15.27
11.91
2.13
-13.20
-32.00
-51.26
-67.71
-78.79
-81.30
-74.29
-59.40
-40.40
-21.86
-7.40
1.35
4.87
4.95
3.68
2.32
1.20
0.13
-1.09
-2.33
-3.17
-3.36
-2.90
-2.05
-1.26
-0.78
-0.61
-0.55
-0.30
0.43
1.88
4.14
7.00
9.73
11.38
11.16
8.88
5.23
1.71
0.13
1.93
7.68
16.78
27.78
38.87
48.38
55.14
58.60
58.85
56.48
52.34
47.33
42.14
37.10
32.09
26.70
20.45
13.08
4.79
-3.82
-11.94
-18.89
-24.40
-28.62
-31.96
-34.90
-37.92
-41.50
-46.26
-52.75
-61.02
-70.12
-77.89
-81.58
-79.02
-69.76
-55.65
-40.14
-26.72
-17.23
-11.17
-6.22
0.08
8.75
18.69
27.32
32.10
31.91
27.50
20.81
13.91
8.22
4.53
3.62
6.61
14.70
28.21
45.62
63.29
76.54
81.40
76.31
62.65
43.87
23.91
5.63
-9.89
-22.83
-33.78
-42.86
-49.57
-53.20
-53.42
-50.63
-45.85
-40.32
-34.98
-30.13
-25.58
-20.89
-15.78
-10.35
-5.04
-0.36
3.42
6.45
9.03
11.35
13.15
13.80
12.56
9.08
3.71
-2.61
-8.61
-13.22
-15.80
-16.22
-14.69
-11.63
-7.56
-3.07
1.20
4.69
7.05
8.23
8.50
8.25
7.86
7.53
7.22
6.71
5.73
4.10
1.75
-1.14
-4.30
-7.35
-9.96
-11.82
-12.66
-12.16
-10.01
-5.97
-0.01
7.54
16.04
24.57
32.17
37.96
41.32
