1660333568.00
64.000000
-0.00
-0.00
-0.00
-0.00
-0.00
-0.00
-0.00
-0.00
-0.00
-0.00
0.00
0.01
0.01
-0.00
-0.03
-0.05
-0.05
0.00
0.13
0.36
0.66
1.01
1.37
1.72
2.06
2.40
2.79
3.24
3.80
4.42
5.06
5.67
6.21
6.69
7.15
7.67
8.30
9.14
10.10
11.08
11.94
12.62
13.13
13.63
14.34
15.43
17.17
19.40
21.87
24.28
26.43
28.34
30.32
32.79
36.09
40.64
46.14
52.07
57.82
62.94
67.43
71.71
76.50
82.38
90.01
98.99
108.54
117.68
125.65
132.27
138.04
144.30
149.95
157.55
167.98
181.40
196.44
209.81
216.71
212.25
193.07
158.68
112.05
57.51
-0.41
-58.76
-116.63
-174.48
-232.91
-291.56
-349.03
-403.06
-451.97
-494.74
-531.01
-560.46
-582.45
-596.03
-600.13
-594.09
-577.36
-549.61
-510.01
-457.50
-391.55
-313.24
-225.99
-135.20
-47.04
33.25
102.33
159.05
203.78
237.46
261.00
275.36
281.81
282.18
278.64
273.09
266.65
259.45
250.91
240.21
226.94
211.41
194.49
177.35
160.96
145.93
132.37
120.13
108.95
98.69
89.28
80.70
72.89
65.68
58.90
52.32
45.78
39.16
32.44
25.71
19.21
13.40
8.61
5.01
2.55
0.91
-0.39
-1.75
-3.32
-5.01
-6.53
-7.60
-8.11
-8.11
-7.78
-7.33
-6.87
-6.42
-6.00
-5.64
-5.40
-5.31
-5.38
-5.54
-5.70
-5.80
-5.80
-5.68
-5.42
-4.97
-4.29
-3.39
-2.38
-1.45
-0.86
-0.79
-1.28
-2.21
-3.37
-4.53
-5.57
-6.47
-7.26
-7.99
-8.64
-9.15
-9.44
-9.44
-9.06
-8.29
-7.10
-5.53
-3.70
-1.77
0.05
1.52
2.49
2.86
2.65
1.96
0.98
-0.09
-1.05
-1.77
-2.14
-2.16
-1.85
-1.26
-0.50
0.31
1.01
1.49
1.69
1.65
1.49
1.34
1.27
1.33
1.49
1.71
1.97
2.26
2.58
2.91
3.19
3.39
3.48
3.54
3.70
4.05
4.61
5.26
5.76
5.85
5.38
4.33
2.81
1.04
-0.81
-2.64
-4.39
-6.00
-7.32
-8.16
-8.34
-7.82
-6.73
-5.34
-4.01
-3.02
-2.53
-2.55
-2.94
-3.49
-4.00
-4.30
-4.33
-4.11
-3.75
-3.37
-3.06
-2.92
-2.96
-3.13
-3.28
-3.17
-2.60
-1.51
0.02
1.70
3.14
4.03
4.22
3.74
2.77
1.52
0.21
-1.03
-2.08
-2.88
-3.37
-3.57
-3.45
-3.02
-2.32
-1.40
-0.43
0.37
0.79
0.74
0.27
-0.41
-1.05
-1.44
-1.54
-1.44
-1.32
-1.34
-1.61
-2.14
-2.88
-3.66
-4.21
-4.21
-3.39
-1.62
0.95
3.96
6.90
9.31
10.87
11.48
11.22
10.26
8.81
7.07
5.22
3.41
1.75
0.33
-0.78
-1.54
-1.91
-1.87
-1.47
-0.82
-0.11
0.47
0.76
0.75
0.52
0.18
-0.17
-0.54
-0.99
-1.61
-2.46
-3.50
-4.63
-5.69
-6.50
-6.84
-6.55
-5.48
-3.61
-1.04
1.94
4.93
7.51
9.35
10.28
10.27
9.45
7.97
6.04
3.85
1.62
-0.36
-1.85
-2.70
-2.94
-2.71
-2.24
-1.72
-1.28
-0.99
-0.89
-1.04
-1.48
-2.20
-3.09
-3.96
-4.67
-5.15
-5.49
-5.83
-6.31
-6.93
-7.54
-7.87
-7.65
-6.69
-4.99
-2.69
-0.06
2.56
4.89
6.71
7.87
8.32
8.07
7.13
5.61
3.67
1.56
-0.41
-1.95
-2.86
-3.12
-2.89
-2.44
-2.02
-1.79
-1.80
-2.02
-2.33
-2.68
-3.01
-3.30
-3.55
-3.82
-4.18
-4.71
-5.46
-6.34
-7.19
-7.71
-7.62
-6.73
-5.02
-2.62
0.19
3.04
5.58
7.53
8.72
9.15
8.91
8.14
6.98
5.53
3.92
2.30
0.90
-0.06
-0.49
-0.42
-0.05
0.37
0.66
0.72
0.59
0.31
-0.09
-0.62
-1.31
-2.15
-3.13
-4.21
-5.39
-6.66
-7.92
-9.00
-9.60
-9.43
-8.28
-6.16
-3.28
-0.04
3.11
5.76
7.60
8.48
8.43
7.52
5.96
3.96
1.78
-0.32
-2.09
-3.32
-3.89
-3.79
-3.12
-2.11
-1.01
-0.08
0.54
0.82
0.85
0.74
0.57
0.34
-0.03
-0.64
-1.58
-2.89
-4.48
-6.14
-7.51
-8.17
-7.75
-6.08
-3.32
0.10
3.60
6.65
8.91
10.32
10.93
10.85
10.13
8.81
6.97
4.82
2.65
0.83
-0.37
-0.83
-0.63
-0.01
0.72
1.29
1.58
1.61
1.54
1.50
1.54
1.58
1.42
0.89
-0.09
-1.43
-2.94
-4.36
-5.42
-5.89
-5.63
-4.58
-2.79
-0.46
2.13
4.67
6.86
8.51
9.50
9.79
9.39
8.40
6.92
5.16
3.34
1.70
0.43
-0.35
-0.64
-0.55
-0.26
0.00
0.07
-0.12
-0.51
-0.94
-1.28
-1.51
-1.68
-1.93
-2.37
-3.02
-3.86
-4.84
-5.86
-6.80
-7.45
-7.52
-6.71
-4.90
-2.18
1.05
4.24
6.86
8.53
9.15
8.82
7.78
6.27
4.55
2.82
1.29
0.14
-0.52
-0.66
-0.39
0.07
0.45
0.53
0.20
-0.45
-1.25
-2.02
-2.62
-3.11
-3.62
-4.35
-5.46
-7.00
-8.85
-10.72
-12.26
-13.03
-12.72
-11.20
-8.56
-5.15
-1.47
1.96
4.75
6.70
7.79
8.10
7.73
6.81
5.45
3.85
2.27
0.96
0.11
-0.25
-0.20
0.09
0.46
0.79
0.98
0.97
0.72
0.20
-0.56
-1.43
-2.28
-3.01
-3.63
-4.28
-5.11
-6.16
-7.29
-8.16
-8.33
-7.43
-5.34
-2.28
1.29
4.75
7.58
9.45
10.31
10.27
9.53
8.26
6.60
4.72
2.85
1.26
0.21
-0.21
-0.12
0.18
0.36
0.20
-0.31
-1.02
-1.71
-2.23
-2.58
-2.87
-3.29
-3.99
-5.05
-6.39
-7.79
-8.92
-9.43
-9.03
-7.62
-5.27
-2.21
1.20
4.59
7.57
9.81
11.08
11.27
10.44
8.79
6.64
4.35
2.24
0.55
-0.58
-1.18
-1.37
-1.37
-1.38
-1.55
-1.91
-2.38
-2.88
-3.34
-3.79
-4.34
-5.09
-6.12
-7.43
-8.94
-10.47
-11.77
-12.49
-12.25
-10.80
-8.11
-4.46
-0.40
3.44
6.57
8.72
9.81
9.87
8.88
6.78
3.60
-0.33
-4.32
-7.53
-9.25
-9.24
-7.77
-5.52
-3.22
-1.29
0.23
1.65
3.22
4.98
6.69
8.08
8.89
8.91
8.12
6.64
4.85
3.23
2.29
2.41
3.93
6.74
10.36
14.11
17.42
20.09
22.13
23.73
25.09
26.58
28.27
29.89
31.01
31.19
30.21
27.98
24.56
19.03
11.58
3.32
-4.22
-10.08
-14.69
-18.50
-21.87
-24.71
-26.97
-28.51
-29.45
-30.09
-30.65
-31.19
-31.41
-30.95
-29.46
-26.73
-21.60
-14.10
-5.49
2.21
7.36
9.30
8.31
5.23
1.21
-2.56
-5.32
-6.79
-7.20
-6.97
-6.56
-6.31
-6.31
-6.37
-6.06
-5.15
-3.16
0.30
5.38
11.94
19.22
26.00
30.83
32.11
29.52
23.97
17.03
10.31
4.85
0.91
-1.84
-3.88
-5.54
-6.82
-7.69
-8.17
-8.40
-8.51
-8.60
-8.74
-9.00
-9.44
-10.04
-10.79
-11.62
-12.41
-13.04
-13.41
-13.44
-13.05
-12.16
-10.73
-8.88
-6.88
-5.04
-3.64
-2.69
-2.08
-1.68
-1.41
-1.27
-1.28
-1.44
-1.60
-1.52
-0.95
0.25
2.05
4.21
6.43
8.41
9.95
10.93
11.37
11.28
10.72
9.71
8.27
6.50
4.58
2.74
1.18
0.01
-0.80
-1.39
-1.89
-2.37
-2.81
-3.14
-3.41
-3.80
-4.69
-6.44
-9.27
-13.14
-17.73
-22.57
-27.14
-30.71
-32.66
-32.52
-30.06
-25.38
-18.95
-11.63
-4.49
1.48
5.58
7.59
7.77
6.72
5.11
3.45
1.99
0.73
-0.40
-1.51
-2.63
-3.70
-4.61
-5.23
-5.43
-5.13
-4.31
-3.01
-1.33
0.60
2.70
4.96
7.53
10.64
14.47
19.01
23.95
28.63
32.24
34.06
33.74
31.46
27.84
23.77
20.00
16.96
14.64
12.72
10.80
8.65
6.32
4.01
1.98
0.36
-0.90
-1.93
-2.84
-3.66
-4.34
-4.82
-5.11
-5.37
-5.81
-6.62
-7.83
-9.35
-10.92
-12.30
-13.33
-14.01
-14.39
-14.50
-14.25
-13.37
-11.64
-8.96
-5.50
-1.76
1.65
4.16
5.47
5.60
4.84
3.58
2.17
0.85
-0.29
-1.28
-2.24
-3.29
-4.51
-5.89
-7.31
-8.56
-9.39
-9.61
-9.19
-8.27
-7.14
-6.16
-5.59
-5.54
-5.93
-6.63
-7.48
-8.38
-9.22
-9.84
-9.93
-9.05
-6.74
-2.59
3.61
11.92
22.13
33.76
45.90
57.19
65.99
70.69
70.21
64.33
53.83
40.27
25.66
11.86
0.28
-8.42
-14.22
-17.59
-19.24
-19.91
-20.19
-20.53
-21.18
-22.24
-23.60
-25.02
-26.20
-26.88
-26.99
-26.66
-26.18
-25.84
-25.71
-25.66
-25.41
-24.69
-23.34
-21.36
-18.83
-15.86
-12.55
-9.11
-5.92
-3.51
-2.43
-2.99
-5.01
-7.84
-10.47
-12.04
-12.09
-10.83
-8.98
-7.40
-6.73
-7.12
-8.26
-9.61
-10.69
-11.31
-11.56
-11.73
-12.06
-12.54
-12.89
-12.60
-11.12
-8.05
-3.31
2.81
9.74
16.77
23.25
28.72
33.03
36.32
38.94
41.39
44.16
47.59
51.76
56.37
60.71
63.76
64.42
61.83
55.78
46.93
36.70
26.96
19.30
14.45
11.99
10.60
8.67
5.05
-0.50
-7.30
-14.16
-19.96
-24.00
-26.12
-26.52
-25.51
-23.33
-20.19
-16.27
-11.88
-7.40
-3.30
-0.03
2.05
2.76
2.14
0.51
-1.65
-3.79
-5.48
-6.54
-7.06
-7.33
-7.67
-8.34
-9.41
-10.77
-12.17
-13.31
-13.95
-14.04
-13.77
-13.45
-13.44
-13.98
-15.01
-16.22
-17.10
-17.17
-16.11
-13.90
-10.75
-7.03
-3.10
0.72
4.29
7.56
10.50
13.07
15.15
16.62
17.39
17.49
17.11
16.59
16.29
16.55
17.63
19.69
22.70
26.41
30.23
33.20
34.21
32.32
27.12
19.09
9.50
0.05
-7.68
-12.80
-15.31
-15.88
-15.47
-14.81
-14.23
-13.64
-12.77
-11.43
-9.54
-7.16
-4.35
-1.26
1.80
4.31
5.59
5.06
2.56
-1.47
-6.08
-10.12
-12.67
-13.33
-12.28
-10.14
-7.70
-5.63
-4.35
-3.95
-4.22
-4.77
-5.20
-5.22
-4.83
-4.19
-3.66
-3.51
-3.86
-4.63
-5.51
-6.10
-5.97
-4.77
-2.29
1.40
5.92
10.58
14.49
16.85
17.21
15.64
12.65
8.99
5.32
2.03
-0.82
-3.30
-5.51
-7.39
-8.80
-9.63
-9.90
-9.78
-9.49
-9.23
-9.05
-8.86
-8.53
-7.89
-6.84
-5.31
-3.24
-0.58
2.69
6.48
10.57
14.57
18.09
20.87
22.90
24.40
25.69
27.02
28.50
30.08
31.69
33.34
35.16
37.25
39.61
42.01
44.00
44.99
44.38
41.64
36.36
28.44
18.23
6.63
-5.02
-15.29
-23.15
-28.34
-31.44
-33.47
-35.39
-37.59
-39.83
-41.44
-41.85
-40.89
-38.90
-36.45
-33.99
-31.67
-29.34
-26.76
-23.86
-20.79
-17.85
-15.32
-13.26
-11.48
-9.68
-7.58
-5.13
-2.56
-0.34
1.03
1.17
0.05
-2.02
-4.44
-6.51
-7.67
-7.67
-6.61
-4.92
-3.14
-1.74
-0.98
-0.79
-0.87
-0.83
-0.33
0.73
2.17
3.65
4.83
5.55
6.05
6.99
9.29
13.92
21.55
32.16
44.79
57.44
67.43
72.07
69.58
59.72
43.98
25.06
6.03
-10.62
-23.48
-32.26
-37.41
-39.70
-39.90
-38.69
-36.77
-34.78
-33.27
-32.50
-32.35
-32.41
-32.14
-31.15
-29.28
-26.67
-23.64
-20.53
-17.65
-15.16
-13.17
-11.76
-10.95
-10.77
-11.15
-11.97
-12.95
-13.77
-13.97
-12.99
-10.31
-5.62
0.84
8.18
14.97
19.66
21.13
19.17
14.53
8.64
2.99
-1.34
-3.99
-5.21
-5.54
-5.49
-5.38
-5.31
-5.31
-5.43
-5.82
-6.63
-7.97
-9.85
-12.17
-14.80
-17.64
-20.55
-23.30
-25.47
-26.50
-25.88
-23.35
-19.03
-13.46
-7.33
-1.21
4.62
10.17
15.55
20.81
25.88
30.54
34.55
37.66
39.56
39.92
38.45
35.11
30.21
24.50
18.95
14.44
11.50
10.18
10.21
11.15
12.58
14.16
15.52
16.21
15.72
13.57
9.56
3.93
-2.54
-8.72
-13.45
-15.91
-15.88
-13.80
-10.46
-6.67
-2.97
0.52
3.89
7.22
10.36
12.96
14.64
15.24
14.94
14.22
13.65
13.59
14.08
14.78
15.15
14.65
12.86
9.57
4.79
-1.25
-8.13
-15.25
-21.88
-27.30
-31.01
-32.86
-33.14
-32.48
-31.58
-30.89
-30.45
-29.80
-28.22
-25.07
-20.07
-13.49
-6.11
1.07
7.17
11.73
14.80
16.80
18.25
19.58
20.98
22.41
23.71
24.75
25.58
26.48
28.03
30.96
36.08
43.94
54.64
67.50
80.86
92.18
98.40
96.72
85.53
65.17
38.02
7.95
-20.84
-44.94
-62.52
-73.38
-78.45
-79.04
-76.39
-71.48
-65.22
-58.52
-52.26
-47.07
-43.09
-39.98
-37.04
-33.64
-29.43
-24.53
-19.51
-15.14
-12.16
-10.99
-11.60
-13.52
-15.96
-18.08
-19.30
-19.41
-18.58
-17.20
-15.63
-14.06
-12.55
-11.17
-10.09
-9.66
-10.19
-11.68
-13.65
-15.15
-15.15
-12.95
-8.54
-2.66
3.46
8.58
11.85
13.02
12.36
10.38
7.58
4.33
0.86
-2.60
-5.77
-8.32
-9.98
-10.67
-10.54
-9.91
-9.17
-8.56
-8.12
-7.64
-6.78
-5.21
-2.76
0.53
4.43
8.67
12.99
17.25
21.38
25.40
29.32
33.08
36.48
39.20
40.81
40.97
39.45
36.33
31.97
26.92
21.77
17.01
12.94
9.64
7.04
4.94
3.13
1.41
-0.27
-1.77
-2.79
-2.96
-2.05
-0.10
2.48
5.06
6.93
7.55
6.63
4.23
0.64
-3.70
-8.29
-12.65
-16.40
-19.32
-21.38
-22.70
-23.41
-23.53
-22.95
-21.46
-18.91
-15.37
-11.21
-7.00
-3.33
-0.60
1.06
1.81
1.93
1.71
1.36
1.02
0.78
0.71
0.85
1.13
1.40
1.43
1.07
0.28
-0.76
-1.76
-2.38
-2.44
-1.97
-1.24
-0.72
-0.85
-2.00
-4.26
-7.48
-11.21
-14.88
-17.83
-19.54
-19.72
-18.42
-16.01
-13.01
-9.89
-6.95
-4.24
-1.62
1.04
3.77
6.45
8.90
10.95
12.55
13.76
14.66
15.35
15.84
16.17
16.35
16.45
16.53
16.59
16.57
16.35
15.77
14.73
13.21
11.28
9.07
6.72
4.40
2.34
0.91
0.64
2.16
5.90
11.86
19.33
26.96
33.05
36.12
35.40
31.11
24.45
17.12
10.77
6.56
4.91
5.60
7.93
11.01
13.81
15.28
14.42
10.61
3.78
-5.29
-15.16
-24.09
-30.56
-33.75
-33.69
-31.06
-26.83
-21.83
-16.66
-11.70
-7.31
-4.01
-2.38
-2.89
-5.59
-9.93
-14.82
-18.96
-21.25
-21.20
-18.99
-15.40
-11.43
-7.94
-5.41
-3.92
-3.27
-3.15
-3.28
-3.43
-3.30
-2.49
-0.54
2.97
8.07
14.25
20.51
25.60
28.56
29.12
27.83
25.79
24.21
23.81
24.63
26.09
27.32
27.64
26.68
24.46
21.21
17.16
12.60
7.91
3.69
0.75
-0.17
1.34
5.01
9.85
14.48
17.54
18.19
16.31
12.47
7.58
2.51
-2.13
-6.09
-9.34
-11.99
-14.17
-16.04
-17.81
-19.73
-21.95
-24.49
-27.22
-29.88
-32.27
-34.34
-36.20
-38.11
-40.33
-42.99
-46.00
-49.05
-51.70
-53.43
-53.77
-52.38
-49.10
-43.97
-37.34
-29.75
-21.89
-14.47
-8.04
-2.93
0.76
3.13
4.39
4.78
4.53
3.87
3.05
2.26
1.64
1.28
1.23
1.49
2.15
3.26
4.94
7.27
10.38
14.40
19.44
25.52
32.39
39.48
45.85
50.45
52.38
51.28
47.37
41.28
33.79
25.48
16.69
7.74
-0.86
-8.36
-13.91
-16.99
-17.74
-16.96
-15.78
-15.21
-15.70
-17.04
-18.58
-19.59
-19.60
-18.59
-16.90
-15.05
-13.52
-12.53
-12.02
-11.72
-11.22
-10.13
-8.19
-5.25
-1.31
3.35
8.02
11.54
12.55
10.01
3.81
-4.98
-14.38
-22.31
-27.33
-29.18
-28.53
-26.39
-23.42
-19.67
-14.85
-8.87
-2.22
4.11
9.05
12.09
13.49
14.14
15.03
16.77
19.27
21.86
23.69
24.10
22.94
20.64
17.94
15.66
14.37
14.22
14.97
16.15
17.23
17.93
18.25
18.56
19.51
21.95
26.71
34.28
44.48
56.10
66.93
74.14
75.20
68.78
55.34
37.08
17.10
-1.58
-16.93
-28.17
-35.51
-39.55
-40.87
-39.94
-37.25
-33.51
-29.65
-26.52
-24.54
-23.62
-23.19
-22.56
-21.25
-19.17
-16.62
-14.04
-11.82
-10.11
-8.79
-7.58
-6.18
-4.39
-2.18
0.32
2.84
5.05
6.56
7.08
6.47
4.80
2.27
-0.82
-4.22
-7.76
-11.33
-14.75
-17.71
-19.80
-20.65
-20.06
-18.13
-15.22
-11.81
-8.41
-5.41
-3.04
-1.45
-0.63
-0.47
-0.77
-1.20
-1.41
-1.09
-0.05
1.69
3.88
6.14
8.06
9.45
10.39
11.28
12.59
14.65
17.46
20.61
23.55
25.84
27.41
28.67
30.47
33.75
39.29
47.38
57.57
68.47
77.89
83.13
81.73
72.25
54.92
31.80
6.25
-18.00
-37.91
-51.87
-59.79
-62.71
-62.13
-59.46
-55.73
-51.66
-47.73
-44.31
-41.60
-39.55
-37.83
-35.89
-33.18
-29.36
-24.45
-18.87
-13.32
-8.62
-5.45
-4.24
-4.98
-7.26
-10.30
-13.24
-15.32
-16.15
-15.80
-14.75
-13.68
-13.20
-13.65
-15.02
-17.07
-19.37
-21.47
-22.88
-23.16
-21.93
-19.02
-14.63
-9.30
-3.91
0.64
3.67
4.89
4.44
2.80
0.56
-1.74
-3.68
-5.01
-5.67
-5.68
-5.20
-4.39
-3.45
-2.53
-1.68
-0.82
0.15
1.36
2.87
4.62
6.46
8.20
9.71
10.96
12.11
13.40
15.14
17.60
20.83
24.61
28.41
31.49
33.02
32.40
29.43
24.44
18.22
11.79
6.11
1.86
-0.74
-1.84
-1.90
-1.46
-1.00
-0.83
-1.04
-1.49
-1.92
-1.99
-1.45
-0.14
1.96
4.73
7.94
11.26
14.37
16.97
18.90
20.15
20.84
21.06
20.73
19.56
17.14
13.14
7.61
1.10
-5.45
-10.94
-14.57
-16.13
-16.08
-15.36
-15.04
-15.90
-18.16
-21.38
-24.66
-26.95
-27.44
-25.84
-22.46
-18.08
-13.67
-10.06
-7.73
-6.72
-6.77
-7.48
-8.51
-9.60
-10.57
-11.23
-11.38
-10.83
-9.50
-7.52
-5.19
-2.86
-0.83
0.84
2.32
3.91
5.90
8.42
11.36
14.45
17.45
20.19
22.67
24.86
26.64
27.80
28.09
27.42
25.84
23.49
20.36
16.32
11.21
5.20
-1.07
-6.57
-10.29
-11.76
-11.31
-9.86
-8.42
-7.58
-7.22
-6.76
-5.57
-3.39
-0.41
2.89
6.00
8.63
10.66
12.07
12.75
12.52
11.16
8.56
4.83
0.33
-4.38
-8.68
-12.01
-14.02
-14.67
-14.16
-12.89
-11.33
-9.87
-8.82
-8.39
-8.70
-9.76
-11.38
-13.17
-14.52
-14.79
-13.50
-10.52
-6.14
-0.98
4.20
8.77
12.31
14.74
16.18
16.85
16.92
16.46
15.43
13.76
11.41
8.48
5.21
1.94
-0.95
-3.14
-4.38
-4.56
-3.74
-2.16
-0.17
1.80
3.42
4.59
5.55
6.83
9.08
12.76
17.84
23.65
28.96
32.35
32.69
29.58
23.50
15.69
7.69
0.88
-3.89
-6.46
-7.20
-6.77
-5.82
-4.78
-3.86
-3.12
-2.62
-2.50
-2.92
-3.98
-5.61
-7.55
-9.45
-11.01
-12.13
-12.85
-13.28
-13.40
-13.03
-11.90
-9.78
-6.61
-2.49
2.33
7.51
12.67
17.29
20.75
22.42
21.84
18.98
14.23
8.35
2.20
-3.55
-8.55
-12.80
-16.43
-19.49
-21.89
-23.35
-23.63
-22.67
-20.64
-17.92
-14.95
-12.07
-9.49
-7.26
-5.39
-3.92
-2.94
-2.55
-2.78
-3.52
-4.60
-5.79
-6.91
-7.88
-8.63
-9.06
-9.09
-8.59
-7.45
-5.62
-3.08
0.17
4.20
9.14
15.11
22.10
29.84
37.64
44.47
49.16
50.71
48.57
42.83
34.09
23.30
11.54
-0.14
-10.82
-19.71
-26.21
-30.00
-31.13
-30.02
-27.35
-23.88
-20.34
-17.25
-14.91
-13.39
-12.53
-12.05
-11.59
-10.86
-9.74
-8.20
-6.28
-3.98
-1.22
2.15
6.27
11.13
16.54
22.12
27.29
31.24
33.05
31.93
27.40
19.68
9.63
-1.35
-11.82
-20.72
-27.55
-32.42
-35.71
-37.82
-38.92
-39.02
-38.06
-36.03
-33.05
-29.36
-25.20
-20.83
-16.49
-12.40
-8.73
-5.62
-3.13
-1.30
-0.06
0.69
1.11
1.40
1.73
2.20
2.83
3.55
4.29
5.01
5.77
6.71
8.01
9.80
12.09
14.81
17.79
20.87
23.95
27.00
29.92
32.48
34.18
34.42
32.73
29.01
23.66
17.44
11.16
5.39
0.30
-4.14
-7.95
-10.89
-12.54
-12.51
-10.78
-7.81
-4.39
-1.30
1.00
2.53
3.70
5.02
6.84
9.21
11.88
14.49
16.69
18.33
19.41
20.05
20.32
20.23
19.80
19.09
18.29
17.67
17.45
17.61
17.82
17.53
16.14
13.24
8.79
3.04
-3.56
-10.49
-17.31
-23.71
-29.56
-34.91
-40.02
-45.17
-50.48
-55.68
-60.10
-62.79
-62.89
-60.04
-54.55
-47.32
-39.53
-32.19
-25.80
-20.37
-15.54
-10.90
-6.23
-1.55
2.93
7.05
10.79
14.38
18.15
22.38
27.10
32.03
36.68
40.53
43.31
45.11
46.43
48.08
51.00
56.12
64.03
74.75
87.37
99.90
109.42
112.74
107.35
92.30
68.72
39.51
8.63
-20.11
-43.86
-61.22
-72.08
-77.25
-77.94
-75.45
-71.00
-65.68
-60.39
-55.82
-52.40
-50.20
-48.95
-48.15
-47.22
-45.72
-43.45
-40.63
-37.67
-34.99
-32.77
-30.87
-28.93
-26.60
-23.73
-20.40
-16.91
-13.59
-10.70
-8.42
-6.87
-6.27
-6.85
-8.71
-11.66
-15.20
-18.61
-21.11
-22.12
-21.42
-19.24
-16.18
-12.77
-9.32
-5.92
-2.55
0.88
4.40
7.93
11.16
13.65
15.39
16.78
18.37
20.53
23.37
26.67
30.06
32.86
34.45
34.97
35.23
36.28
38.83
43.28
49.72
57.93
66.99
75.21
80.87
82.34
78.14
67.30
50.31
28.65
7.16
-8.16
-15.90
-18.66
-20.25
-22.78
-27.91
-35.89
-45.59
-55.06
-62.78
-68.12
-70.79
-70.65
-67.83
-62.94
-56.65
-49.63
-42.49
-35.99
-30.82
-26.99
-23.83
-20.49
-16.37
-11.14
-4.88
1.93
8.38
13.41
16.43
17.51
17.14
15.86
14.19
12.41
10.61
8.59
6.11
3.14
-0.02
-2.96
-5.33
-6.97
-7.94
-8.53
-9.10
-9.92
-10.96
-11.90
-12.33
-11.89
-10.46
-8.15
-5.24
-2.09
1.03
3.89
6.37
8.30
9.53
9.94
9.49
8.31
6.69
5.08
3.91
3.47
3.79
4.62
5.51
6.04
6.06
5.72
5.56
6.20
8.15
11.57
16.16
21.31
26.17
29.93
31.90
31.64
29.07
24.57
18.96
13.27
8.40
4.75
2.07
-0.36
-3.26
-6.88
-10.76
-13.98
-15.54
-14.92
-12.27
-8.31
-3.92
0.22
3.81
6.92
9.80
12.76
16.02
19.76
24.14
29.29
35.18
41.52
47.66
52.60
55.23
54.68
50.71
43.79
35.03
25.71
16.77
8.57
0.88
-6.72
-14.45
-22.09
-29.06
-34.80
-39.05
-42.02
-44.14
-45.75
-46.88
-47.18
-46.23
-43.79
-40.07
-35.65
-31.28
-27.53
-24.62
-22.39
-20.52
-18.71
-16.86
-15.07
-13.54
-12.42
-11.74
-11.37
-11.16
-10.98
-10.75
-10.39
-9.71
-8.46
-6.36
-3.29
0.59
4.80
8.67
11.53
12.90
12.73
11.32
9.26
7.18
5.56
4.59
4.21
4.19
4.23
4.13
3.80
3.25
2.62
2.12
2.01
2.53
3.81
5.82
8.29
10.85
13.09
14.71
15.63
15.98
16.00
16.02
16.33
17.11
18.40
20.04
21.70
22.89
23.15
22.17
19.94
16.71
12.89
8.95
5.19
1.80
-1.22
-3.88
-6.20
-8.21
-9.96
-11.59
-13.28
-15.30
-17.82
-20.90
-24.33
-27.69
-30.37
-31.75
-31.43
-29.37
-25.96
-21.92
-18.06
-14.97
-12.85
-11.49
-10.44
-9.26
-7.72
-5.85
-3.86
-2.04
-0.56
0.54
1.42
2.32
3.58
5.53
8.47
12.58
17.83
23.92
30.29
36.22
40.96
43.96
45.07
44.51
42.83
40.70
38.56
36.49
34.17
31.00
26.46
20.32
12.86
4.84
-2.67
-8.59
-12.14
-13.00
-11.37
-7.92
-3.54
0.87
4.57
7.12
8.40
8.52
7.79
6.63
5.46
4.64
4.37
4.69
5.44
6.41
7.45
8.52
9.67
10.83
11.71
11.72
10.23
6.79
1.46
-5.12
-11.93
-17.90
-22.29
-24.88
-25.94
-25.99
-25.56
-25.01
-24.52
-24.16
-23.95
-23.91
-23.94
-23.84
-23.35
-22.23
-20.41
-18.06
-15.54
-13.26
-11.51
-10.36
-9.64
-9.11
-8.50
-7.69
-6.69
-5.59
-4.47
-3.33
-1.93
0.08
3.17
7.73
13.98
21.79
30.57
39.31
46.73
51.66
53.34
51.68
47.35
41.50
35.38
30.02
25.89
22.98
20.84
18.90
16.66
13.85
10.52
7.05
4.04
2.14
1.80
3.15
5.82
9.15
12.25
14.26
14.50
12.52
8.16
1.58
-6.69
-15.77
-24.55
-31.97
-37.29
-40.33
-41.48
-41.50
-41.17
-40.94
-40.86
-40.62
-39.81
-38.20
-35.86
-33.10
-30.35
-27.95
-26.11
-24.85
-24.13
-23.91
-24.23
-25.08
-26.40
-27.91
-29.09
-29.30
-28.00
-24.94
-20.34
-14.85
-9.28
-4.36
-0.45
2.47
4.69
6.53
8.17
9.58
10.65
11.39
12.01
12.91
14.45
16.82
19.85
23.08
25.96
28.05
29.13
29.11
28.03
25.98
23.08
19.53
15.56
11.50
7.67
4.35
1.70
-0.24
-1.48
-2.12
-2.37
-2.54
-2.89
-3.58
-4.59
-5.80
-7.08
-8.13
-8.73
-8.90
-8.83
-8.68
-8.45
-7.89
-6.77
-5.00
-2.31
1.20
4.95
7.93
9.30
8.85
7.26
5.53
4.68
5.93
9.79
15.65
21.92
27.10
30.50
32.62
34.21
35.89
38.73
43.48
50.27
58.44
66.84
73.70
76.67
72.54
54.91
22.08
-20.37
-61.56
-92.08
-108.22
-113.76
-112.60
-107.01
-97.93
-85.09
-68.83
-50.07
-32.06
-17.85
-8.74
-3.66
-0.62
2.25
6.54
12.81
20.41
27.72
33.40
36.76
38.01
37.51
35.63
33.09
30.55
28.32
26.11
23.66
20.88
18.09
15.54
13.36
11.64
10.31
9.08
7.47
5.20
2.30
-0.82
-3.70
-5.90
-7.10
-7.19
-6.32
-4.83
-3.02
-1.15
0.68
2.40
3.96
5.28
6.18
6.58
6.55
6.41
6.51
7.04
7.93
8.94
9.64
9.57
8.39
5.93
2.20
-2.86
-9.28
-16.91
-24.50
-29.99
-31.50
-28.55
-22.33
-14.83
-7.79
-2.37
0.92
2.15
1.46
-0.94
-4.69
-9.30
-14.25
-19.13
-23.78
-28.15
-32.13
-35.82
-39.34
-42.62
-45.08
-45.51
-42.23
-33.79
-20.37
-2.44
17.53
35.88
49.05
54.87
53.22
45.83
35.45
24.74
15.76
9.30
5.31
3.24
2.40
2.17
1.96
1.22
-0.34
-2.41
-4.29
-4.95
-3.49
0.46
6.47
13.43
20.27
25.47
28.10
27.94
25.51
21.73
17.53
13.62
10.39
8.01
6.44
5.64
5.47
5.73
6.16
6.55
6.69
6.53
6.07
5.40
4.71
4.16
3.81
3.56
3.21
2.50
1.26
-0.59
-3.08
-6.16
-9.72
-13.54
-17.19
-19.98
-21.06
-19.70
-15.65
-9.34
-1.78
5.65
11.67
15.49
16.94
16.44
14.74
12.56
10.35
8.23
6.10
3.81
1.31
-1.26
-3.68
-5.75
-7.43
-8.76
-9.88
-10.85
-11.70
-12.43
-13.08
-13.78
-14.67
-15.82
-17.14
-18.47
-19.61
-20.51
-21.26
-22.11
-23.37
-25.23
-27.70
-30.41
-32.66
-33.51
-32.02
-27.61
-20.32
-10.88
-0.58
9.14
17.03
22.40
25.12
25.58
24.39
22.23
19.63
17.00
14.58
12.46
10.66
9.13
7.78
6.53
5.32
4.14
3.00
1.95
1.00
0.14
-0.68
-1.50
-2.36
-3.27
-4.21
-5.22
-6.33
-7.60
-9.08
-10.80
-12.78
-15.02
-17.44
-19.79
-21.51
-21.82
-19.96
-15.48
-8.57
-0.10
8.58
16.12
21.55
24.59
25.53
25.01
23.61
21.70
19.43
16.86
14.11
11.41
8.94
6.82
4.99
3.29
1.59
-0.09
-1.60
-2.76
-3.50
-3.93
-4.37
-5.13
-6.43
-8.26
-10.39
-12.50
-14.32
-15.75
-16.88
-18.00
-19.52
-21.76
-24.83
-28.39
-31.67
-33.53
-32.80
-28.70
-21.17
-11.00
0.38
11.33
20.47
27.07
31.05
32.81
32.89
31.77
29.73
27.00
23.79
20.45
17.31
14.62
12.47
10.72
9.13
7.49
5.73
3.90
2.18
0.75
-0.31
-1.05
-1.72
-2.63
-4.07
-6.15
-8.71
-11.40
-13.82
-15.74
-17.17
-18.38
-19.77
-21.68
-24.31
-27.63
-31.36
-34.94
-37.53
-38.10
-35.73
-29.93
-20.96
-9.84
1.86
12.47
20.79
26.29
29.16
29.98
29.41
27.94
25.84
23.26
20.38
17.44
14.74
12.47
10.68
9.23
7.88
6.42
4.75
2.96
1.23
-0.23
-1.29
-1.98
-2.49
-3.14
-4.23
-5.94
-8.22
-10.86
-13.47
-15.73
-17.45
-18.68
-19.64
-20.67
-22.07
-24.04
-26.60
-29.56
-32.45
-34.51
-34.81
-32.41
-26.74
-17.89
-6.74
5.21
16.26
25.03
30.85
33.79
34.46
33.60
31.79
29.38
26.55
23.49
20.48
17.81
15.68
14.08
12.81
11.60
10.23
8.67
7.07
5.67
4.64
3.97
3.47
2.78
1.56
-0.33
-2.78
-5.44
-7.88
-9.75
-10.96
-11.72
-12.45
-13.65
-15.66
-18.55
-22.00
-25.28
-27.37
-27.23
-24.15
-17.99
-9.35
0.57
10.38
18.87
25.32
29.51
31.65
32.06
31.08
29.01
26.17
22.91
19.65
16.78
14.51
12.87
11.66
10.57
9.29
7.67
5.74
3.76
2.06
0.93
0.38
0.16
-0.25
-1.36
-3.49
-6.60
-10.29
-13.97
-17.12
-19.46
-21.07
-22.33
-23.78
-25.92
-29.01
-32.94
-37.12
-40.53
-41.93
-40.17
-34.59
-25.33
-13.39
-0.37
11.93
22.11
29.40
33.81
35.83
36.13
35.27
33.56
31.13
28.10
24.70
21.31
18.35
16.08
14.51
13.35
12.20
10.71
8.73
6.40
4.03
1.97
0.38
-0.82
-1.91
-3.27
-5.16
-7.63
-10.53
-13.56
-16.41
-18.86
-20.85
-22.52
-24.14
-26.00
-28.37
-31.42
-35.13
-39.18
-42.88
-45.18
-44.87
-40.92
-32.89
-21.20
-7.19
7.24
20.17
30.14
36.49
39.38
39.50
37.69
34.72
31.14
27.34
23.64
20.33
17.64
15.66
14.29
13.25
12.20
10.88
9.23
7.44
5.83
4.75
4.30
4.30
4.35
3.98
2.86
0.98
-1.41
-3.88
-6.08
-7.80
-9.08
-10.09
-11.07
-12.28
-13.90
-15.99
-18.40
-20.71
-22.21
-22.05
-19.53
-14.34
-6.72
2.46
12.02
20.71
27.56
32.13
34.43
34.88
33.98
32.18
29.77
26.91
23.74
20.46
17.33
14.57
12.27
10.32
8.52
6.69
4.79
2.97
1.42
0.23
-0.68
-1.58
-2.77
-4.48
-6.68
-9.16
-11.55
-13.52
-14.89
-15.75
-16.43
-17.40
-19.12
-21.84
-25.49
-29.56
-33.19
-35.35
-35.12
-31.96
-25.94
-17.73
-8.47
0.58
8.33
14.15
17.86
19.70
20.10
19.51
18.24
16.51
14.41
12.10
9.75
7.60
5.84
4.57
3.72
3.07
2.42
1.66
0.83
0.09
-0.41
-0.65
-0.80
-1.17
-2.11
-3.85
-6.36
-9.42
-12.60
-15.48
-17.75
-19.34
-20.46
-21.49
-22.92
-25.15
-28.41
-32.52
-36.85
-40.34
-41.67
-39.63
-33.53
-23.52
-10.69
3.20
16.24
26.87
34.31
38.53
40.02
39.48
37.52
34.57
30.94
26.95
22.97
19.38
16.43
14.17
12.41
10.89
9.35
7.71
6.00
4.39
3.00
1.89
1.02
0.23
-0.66
-1.84
-3.43
-5.48
-7.93
-10.64
-13.38
-15.94
-18.11
-19.82
-21.08
-22.05
-23.03
-24.42
-26.59
-29.72
-33.64
-37.68
-40.71
-41.46
-38.86
-32.43
-22.58
-10.48
2.22
13.86
23.21
29.68
33.32
34.58
34.08
32.39
29.95
27.12
24.20
21.43
19.00
17.00
15.36
13.87
12.29
10.41
8.22
5.89
3.78
2.24
1.44
1.27
1.34
1.11
0.14
-1.75
-4.39
-7.36
-10.22
-12.69
-14.74
-16.59
-18.56
-20.97
-24.00
-27.64
-31.54
-34.98
-36.88
-36.07
-31.61
-23.25
-11.64
1.76
15.08
26.57
35.13
40.47
42.91
43.12
41.71
39.14
35.69
31.62
27.32
23.25
19.87
17.45
15.92
14.93
13.94
12.52
10.52
8.14
5.81
3.96
2.75
2.00
1.27
0.02
-2.07
-5.03
-8.52
-12.05
-15.15
-17.60
-19.50
-21.23
-23.33
-26.33
-30.49
-35.72
-41.37
-46.30
-49.03
-48.07
-42.36
-31.71
-16.98
-0.05
16.74
31.16
41.72
47.94
50.27
49.69
47.29
43.90
39.98
35.80
31.56
27.53
24.00
21.16
18.98
17.25
15.64
13.82
11.65
9.21
6.73
4.51
2.78
1.58
0.72
-0.19
-1.62
-3.89
-7.06
-10.83
-14.67
-18.00
-20.44
-21.96
-22.88
-23.70
-25.02
-27.29
-30.73
-35.21
-40.20
-44.71
-47.43
-46.95
-42.23
-32.99
-19.97
-4.81
10.34
23.48
33.25
39.24
41.82
41.88
40.35
37.94
35.09
32.05
29.00
26.14
23.66
21.64
19.99
18.55
17.09
15.48
13.73
11.93
10.22
8.68
7.30
6.01
4.68
3.19
1.43
-0.67
-3.09
-5.81
-8.69
-11.57
-14.32
-16.82
-19.03
-20.94
-22.60
-24.08
-25.53
-27.23
-29.51
-32.63
-36.46
-40.33
-43.02
-43.09
-39.38
-31.54
-20.26
-7.11
5.94
17.17
25.48
30.56
32.74
32.65
30.97
28.24
24.87
21.14
17.38
13.90
10.97
8.74
7.21
6.16
5.28
4.33
3.20
2.04
1.07
0.52
0.42
0.59
0.64
0.18
-1.02
-2.98
-5.44
-7.99
-10.26
-11.96
-13.01
-13.53
-13.80
-14.15
-14.95
-16.45
-18.76
-21.70
-24.71
-26.93
-27.35
-25.12
-19.87
-11.91
-2.18
7.98
17.25
24.67
29.80
32.69
33.68
33.17
31.48
28.85
25.53
21.91
18.48
15.70
13.87
12.93
12.48
11.98
10.95
9.22
7.02
4.83
3.14
2.20
1.86
1.65
0.99
-0.51
-2.93
-6.01
-9.32
-12.44
-15.20
-17.68
-20.17
-23.02
-26.50
-30.66
-35.21
-39.52
-42.61
-43.38
-40.85
-34.54
-24.69
-12.34
0.94
13.47
23.89
31.45
36.05
38.04
37.94
36.28
33.43
29.73
25.53
21.21
17.19
13.81
11.22
9.35
7.96
6.74
5.43
3.91
2.20
0.41
-1.31
-2.81
-4.05
-5.11
-6.23
-7.72
-9.84
-12.69
-16.10
-19.66
-22.88
-25.40
-27.19
-28.57
-30.10
-32.36
-35.68
-39.98
-44.64
-48.62
-50.56
-49.17
-43.55
-33.56
-19.94
-4.28
11.42
25.21
35.68
42.22
45.01
44.79
42.52
39.08
35.13
31.05
27.05
23.31
19.97
17.24
15.20
13.76
12.71
11.74
10.58
9.12
7.37
5.49
3.63
1.88
0.26
-1.30
-2.88
-4.64
-6.71
-9.22
-12.18
-15.45
-18.72
-21.67
-24.05
-25.86
-27.39
-29.11
-31.54
-35.00
-39.48
-44.42
-48.72
-50.85
-49.25
-42.76
-31.16
-15.40
2.54
20.21
35.31
46.37
52.90
55.34
54.56
51.53
47.05
41.72
36.04
30.52
25.65
21.77
18.98
17.06
15.61
14.12
12.28
10.01
7.51
5.13
3.19
1.80
0.82
-0.10
-1.39
-3.34
-6.04
-9.32
-12.84
-16.21
-19.12
-21.43
-23.24
-24.84
-26.68
-29.20
-32.70
-37.15
-42.05
-46.35
-48.60
-47.27
-41.25
-30.27
-15.18
2.12
19.23
33.87
44.52
50.71
52.89
52.03
49.16
45.07
40.31
35.21
30.14
25.51
21.67
18.80
16.82
15.38
14.03
12.42
10.40
8.10
5.80
3.80
2.24
1.02
-0.14
-1.58
-3.56
-6.16
-9.28
-12.67
-16.01
-19.03
-21.58
-23.65
-25.42
-27.17
-29.25
-32.02
-35.70
-40.28
-45.35
-49.98
-52.83
-52.41
-47.60
-38.08
-24.68
-9.17
6.18
19.30
28.85
34.46
36.51
35.82
33.25
29.57
25.37
21.16
17.38
14.46
12.66
12.12
12.71
14.17
16.07
17.97
19.50
20.41
20.62
20.14
19.10
17.60
15.77
13.69
11.42
8.92
6.08
2.73
-1.24
-5.83
-10.82
-15.82
-20.42
-24.32
-27.46
-30.07
-32.62
-35.62
-39.44
-44.11
-49.08
-53.21
-54.92
-52.59
-45.19
-32.71
-16.42
1.47
18.41
32.27
41.88
47.11
48.69
47.73
45.29
42.18
38.93
35.81
33.00
30.58
28.53
26.77
25.19
23.63
21.98
20.15
18.09
15.79
13.26
10.56
7.78
5.02
2.33
-0.24
-2.72
-5.17
-7.66
-10.20
-12.77
-15.25
-17.55
-19.64
-21.54
-23.39
-25.32
-27.48
-29.99
-32.96
-36.49
-40.50
-44.58
-47.77
-48.65
-45.68
-37.76
-24.85
-8.24
9.75
26.43
39.67
48.37
52.63
53.27
51.32
47.55
42.47
36.48
30.11
24.13
19.32
16.16
14.63
14.16
13.94
13.26
11.82
9.80
7.68
5.97
4.88
4.23
3.46
1.97
-0.62
-4.27
-8.51
-12.60
-15.90
-18.05
-19.15
-19.72
-20.50
-22.22
-25.34
-29.88
-35.24
-40.21
-43.16
-42.41
-36.73
-25.84
-10.67
6.83
24.19
39.15
50.20
56.81
59.31
58.42
54.96
49.62
43.02
35.83
28.82
22.70
18.01
14.83
12.84
11.39
9.84
7.75
5.08
2.14
-0.54
-2.55
-3.73
-4.35
-5.00
-6.34
-8.83
-12.51
-16.95
-21.45
-25.32
-28.16
-30.04
-31.45
-33.14
-35.85
-40.01
-45.60
-51.98
-57.94
-61.79
-61.74
-56.40
-45.29
-29.19
-10.05
9.49
26.86
40.20
48.78
52.89
53.43
51.45
47.84
43.19
37.99
32.70
27.81
23.74
20.68
18.53
16.88
15.20
13.08
10.38
7.33
4.38
2.02
0.50
-0.29
-0.77
-1.52
-3.04
-5.56
-8.95
-12.86
-16.81
-20.36
-23.26
-25.47
-27.19
-28.83
-30.87
-33.78
-37.78
-42.67
-47.71
-51.65
-52.97
-50.28
-42.80
-30.75
-15.37
1.30
17.03
29.92
38.92
43.85
45.26
44.02
41.01
36.96
32.39
27.78
23.52
19.89
17.02
14.78
12.89
11.00
8.92
6.67
4.49
2.70
1.52
0.95
0.72
0.37
-0.59
-2.45
-5.19
-8.44
-11.66
-14.33
-16.26
-17.65
-18.99
-20.86
-23.70
-27.55
-32.05
-36.44
-39.69
-40.67
-38.37
-32.23
-22.41
-9.92
3.54
16.03
25.90
32.28
35.15
35.15
33.16
29.95
26.04
21.77
17.47
13.49
10.12
7.46
5.39
3.59
1.77
-0.14
-1.99
-3.47
-4.42
-4.95
-5.48
-6.57
-8.63
-11.74
-15.57
-19.51
-23.00
-25.78
-28.03
-30.25
-33.09
-37.03
-42.18
-48.15
-53.92
-58.02
-58.92
-55.34
-46.65
-33.11
-15.89
3.09
21.60
37.78
50.34
58.49
61.99
61.07
56.51
49.60
41.82
34.72
29.76
27.72
28.10
29.53
30.30
28.97
24.54
16.51
5.11
-8.46
-22.52
-35.78
-47.04
-55.45
-60.50
-62.35
-60.15
-54.24
-45.39
-33.58
-18.80
-1.68
14.70
25.29
26.83
17.42
-0.75
-21.46
-37.07
-42.71
-36.89
-21.89
-2.14
17.17
29.84
32.39
26.10
19.72
15.67
13.23
8.93
1.73
-7.42
-16.44
-22.71
-24.53
-22.01
-17.68
-13.49
-10.66
-9.35
-9.39
-10.41
-11.70
-12.61
-13.09
-13.99
-14.75
-14.52
-12.73
-9.82
-6.99
-5.35
-5.72
-8.56
-13.66
-18.10
-18.48
-12.34
0.66
19.17
41.12
64.30
86.52
106.29
124.71
142.97
161.36
178.91
194.41
207.48
218.46
227.47
222.76
197.18
152.04
97.26
44.38
0.55
-32.15
-53.08
-66.65
-75.83
-80.69
-81.06
-77.74
-72.73
-68.38
-66.06
-65.93
-67.50
-69.45
-69.67
-67.24
-62.78
-58.07
-54.77
-53.40
-53.29
-53.42
-52.46
-49.06
-43.05
-35.62
-28.79
-24.30
-22.59
-22.71
-23.41
-22.95
-20.05
-14.52
-7.27
0.05
5.80
8.99
9.36
7.26
3.66
-0.52
-4.47
-7.53
-9.28
-9.52
-8.17
-5.37
-1.57
2.51
5.94
7.82
7.53
5.39
1.91
-2.12
-5.90
-8.92
-11.07
-12.68
-14.29
-16.40
-19.38
-23.40
-28.35
-33.78
-38.85
-42.25
-42.43
-38.02
-28.37
-14.05
3.08
20.45
35.52
46.58
53.12
55.67
55.31
53.06
49.57
45.06
39.68
33.74
27.76
22.36
18.02
14.85
12.60
10.73
8.69
6.17
3.19
0.06
-2.77
-4.96
-6.45
-7.49
-8.56
-10.17
-12.65
-16.03
-20.01
-24.09
-27.77
-30.71
-32.84
-34.39
-35.76
-37.41
-39.78
-43.22
-47.78
-53.09
-58.13
-61.25
-60.47
-54.14
-41.60
-23.68
-2.58
18.75
37.51
51.81
61.01
65.39
65.76
62.93
57.63
50.57
42.63
34.81
28.09
23.04
19.70
17.58
15.93
14.10
11.85
9.35
7.07
5.44
4.60
4.21
3.58
1.96
-1.14
-5.65
-10.97
-16.23
-20.65
-23.88
-26.08
-27.86
-30.07
-33.52
-38.64
-45.25
-52.37
-58.18
-60.44
-57.08
-47.03
-30.75
-10.26
11.40
31.14
46.67
57.00
62.36
63.65
61.97
58.15
52.78
46.35
39.41
32.58
26.53
21.67
18.07
15.46
13.30
11.08
8.45
5.39
2.19
-0.73
-2.97
-4.43
-5.31
-6.14
-7.56
-10.06
-13.77
-18.39
-23.27
-27.71
-31.20
-33.61
-35.21
-36.54
-38.22
-40.76
-44.49
-49.47
-55.32
-61.01
-64.83
-64.66
-58.63
-45.93
-27.39
-5.38
16.84
36.19
50.69
59.76
64.01
64.56
62.49
58.57
53.34
47.28
40.93
34.85
29.47
24.94
21.21
18.08
15.32
12.79
10.41
8.20
6.19
4.35
2.62
0.83
-1.16
-3.43
-5.91
-8.46
-10.97
-13.44
-16.03
-18.95
-22.26
-25.80
-29.19
-31.99
-33.98
-35.26
-36.28
-37.72
-40.21
-44.14
-49.35
-54.98
-59.45
-60.69
-56.73
-46.48
-30.33
-10.24
10.74
29.51
43.82
52.87
57.12
57.70
55.70
51.85
46.54
40.21
33.50
27.25
22.23
18.75
16.57
15.06
13.50
11.45
8.91
6.27
4.05
2.64
2.06
1.91
1.52
0.16
-2.57
-6.59
-11.36
-16.02
-19.77
-22.22
-23.47
-24.12
-24.97
-26.78
-30.04
-34.82
-40.69
-46.60
-50.97
-51.91
-47.73
-37.63
-22.16
-3.30
16.04
32.99
45.55
53.09
56.20
56.11
53.97
50.48
45.89
40.36
34.25
28.20
22.94
18.95
16.25
14.46
12.96
11.23
9.05
6.54
4.00
1.73
-0.11
-1.55
-2.81
-4.17
-5.91
-8.22
-11.18
-14.64
-18.30
-21.74
-24.61
-26.75
-28.24
-29.39
-30.65
-32.48
-35.26
-39.16
-44.07
-49.30
-53.55
-55.00
-51.76
-42.63
-27.72
-8.73
11.49
29.80
43.86
52.65
56.57
56.86
54.87
51.61
47.64
43.19
38.53
33.98
29.90
26.51
23.83
21.64
19.68
17.75
15.81
13.92
12.20
10.66
9.25
7.86
6.44
5.03
3.73
2.64
1.69
0.68
-0.69
-2.56
-4.83
-7.09
-8.79
-9.51
-9.20
-8.22
-7.23
-6.89
-7.76
-10.02
-13.48
-17.38
-20.35
-20.55
-16.25
-6.63
7.51
23.67
38.31
48.10
51.14
47.53
39.13
28.49
17.75
8.00
-0.59
-8.28
-15.12
-20.81
-24.89
-27.20
-28.07
-28.29
-28.66
-29.62
-31.04
-32.34
-32.88
-32.31
-30.81
-28.94
-27.30
-26.26
-25.78
-25.55
-25.12
-24.03
-22.06
-19.26
-15.92
-12.44
-9.27
-6.79
-5.33
-4.92
-5.36
-6.27
-7.31
-8.29
-9.14
-9.91
-10.65
-11.44
-12.03
-11.76
-9.73
-5.13
2.50
12.98
25.43
38.34
49.47
57.19
60.91
60.86
57.78
52.83
47.49
43.44
42.01
42.78
45.09
48.26
51.46
53.69
54.15
52.62
49.28
44.21
35.51
22.00
3.38
-20.71
-51.56
-90.57
-137.56
-189.44
-240.11
-283.79
-313.77
-324.59
-314.66
-287.03
-247.45
-201.66
-153.91
-94.68
-27.78
32.77
73.28
90.56
91.59
87.37
87.23
95.34
110.03
123.89
130.71
128.47
119.02
105.81
92.01
79.67
69.96
62.17
54.13
45.31
36.87
30.33
26.25
24.01
22.55
20.90
18.29
13.43
6.12
-2.72
-11.73
-20.06
-27.52
-34.45
-41.28
-48.55
-57.02
-66.63
-76.30
-84.50
-89.98
-92.21
-91.35
-87.85
-82.01
-73.79
-62.58
-47.79
-29.52
-8.99
11.77
30.64
46.20
58.05
66.78
73.36
78.61
83.02
86.69
89.63
91.83
93.32
93.90
93.22
90.92
86.98
81.99
77.10
73.58
72.21
72.88
74.53
75.61
74.65
70.91
64.55
56.46
47.85
39.67
32.24
25.09
17.18
7.33
-5.22
-20.39
-37.16
-53.67
-67.55
-76.15
-76.96
-68.24
-50.22
-25.84
-0.96
17.10
22.36
13.12
-6.55
-28.07
-41.72
-41.17
-25.70
0.04
28.71
53.73
71.33
80.49
81.28
73.71
56.64
30.00
-3.93
-39.90
-70.92
-90.66
-95.84
-87.34
-69.07
-47.45
-27.68
-12.76
-3.25
1.85
3.85
3.38
0.24
-5.45
-14.24
-24.87
-35.01
-41.87
-43.12
-37.75
-26.28
-14.44
-0.09
13.81
25.67
34.77
41.12
45.06
46.99
47.17
45.74
43.48
40.21
36.71
33.88
32.40
32.39
33.28
34.09
33.82
32.34
28.96
23.78
17.09
9.40
1.63
-4.98
-9.14
-10.16
-8.08
-4.57
-1.41
0.10
-0.27
-1.77
-3.36
-4.61
-6.11
-9.09
-15.00
-24.22
-35.83
-47.93
-58.31
-65.18
-67.78
-66.30
-61.66
-55.15
-47.86
-40.59
-33.82
-27.84
-22.90
-19.29
-17.22
-16.72
-17.46
-18.77
-19.79
-19.69
-17.99
-14.62
-9.94
-4.53
1.07
6.38
11.04
14.72
17.07
17.87
17.18
15.51
13.79
13.08
14.21
17.39
22.23
27.78
32.92
36.68
38.39
37.82
35.08
30.60
25.07
19.40
14.62
11.58
10.81
12.34
15.72
20.20
25.03
29.74
34.45
39.52
45.15
50.95
55.89
58.46
57.22
51.35
41.17
28.44
15.55
4.59
-3.20
-7.55
-8.85
-7.83
-5.21
-1.63
2.71
7.39
11.47
13.71
13.35
10.59
6.58
2.88
0.85
1.68
5.54
11.50
17.99
23.67
27.74
29.53
28.09
19.09
0.81
-23.89
-48.53
-66.97
-76.34
-77.11
-71.86
-63.81
-55.51
-47.77
-40.66
-34.82
-31.85
-33.27
-39.20
-47.40
-53.61
-53.03
-42.20
-21.61
4.78
30.31
48.52
55.77
52.20
41.05
26.72
12.31
1.02
-6.65
-11.93
-16.05
-19.29
-21.22
-21.37
-19.83
-17.28
-14.52
-12.57
-11.70
-11.50
-11.14
-9.78
-6.98
-2.98
1.67
6.48
10.94
14.63
17.40
19.16
19.89
19.56
17.97
15.12
11.56
8.03
5.22
3.56
2.95
2.83
2.40
0.41
-4.09
-11.14
-19.93
-29.01
-36.61
-41.42
-42.93
-40.18
-34.51
-29.02
-26.24
-26.16
-27.24
-26.64
-22.79
-16.05
-8.29
-1.77
1.26
0.06
-4.50
-10.62
-16.39
-20.62
-22.85
-22.98
-21.12
-17.12
-10.54
-1.27
9.96
21.61
31.77
38.93
42.37
42.12
38.87
33.76
27.92
22.23
17.22
13.13
10.06
8.01
6.83
6.32
6.38
6.92
7.80
8.87
9.94
10.87
11.63
12.18
12.49
12.47
11.99
10.81
8.69
5.45
1.09
-4.13
-9.64
-14.62
-18.12
-19.39
-18.08
-14.42
-9.19
-3.51
1.64
5.63
8.28
9.76
10.33
10.23
9.61
8.54
7.16
5.74
4.58
3.81
3.20
2.28
0.60
-2.00
-5.31
-8.75
-11.41
-12.51
-11.77
-9.59
-6.70
-3.80
-1.25
0.81
2.29
3.34
4.05
4.35
3.95
2.65
0.50
-2.18
-4.91
-7.20
-7.97
-6.00
-0.35
9.16
21.96
36.95
52.70
67.73
77.98
79.89
72.68
59.30
44.27
30.86
20.04
11.16
3.12
-4.80
-12.08
-17.49
-20.07
-20.28
-19.04
-17.34
-15.81
-14.53
-13.42
-12.04
-10.23
-8.39
-7.51
-8.52
-11.93
-17.63
-24.18
-30.28
-34.71
-36.72
-36.28
-34.00
-30.68
-26.98
-23.15
-19.03
-14.39
-8.87
-2.34
4.97
12.44
19.29
24.85
28.77
31.15
32.37
32.95
33.34
33.57
33.30
31.94
29.04
24.55
18.90
12.89
7.41
3.26
0.99
0.94
3.17
7.29
12.24
16.15
16.66
11.65
0.28
-16.35
-35.21
-52.28
-64.11
-69.11
-68.04
-63.42
-58.30
-54.87
-53.79
-54.11
-54.25
-52.96
-49.86
-45.27
-39.80
-33.95
-28.27
-23.84
-22.26
-25.49
-34.82
-49.24
-64.60
-74.48
-72.73
-56.45
-27.88
6.83
39.63
63.49
74.60
72.83
60.39
39.98
13.97
-15.31
-43.62
-65.22
-74.73
-69.31
-50.16
-22.39
6.81
31.95
47.31
51.81
49.76
47.11
46.99
48.82
50.09
48.62
44.79
39.13
33.14
27.99
23.85
20.05
15.96
11.45
6.96
2.85
-0.54
-2.64
-3.29
-2.98
-2.58
-2.68
-3.40
-4.40
-5.16
-5.35
-4.48
-2.31
0.97
4.80
8.55
11.73
13.98
15.12
15.02
13.81
11.74
9.02
5.95
3.10
1.21
1.05
3.02
6.89
11.90
16.92
20.82
22.87
22.94
21.43
19.00
16.26
13.63
11.26
9.07
6.88
4.45
1.60
-1.75
-5.48
-9.33
-12.97
-16.08
-18.47
-20.08
-21.00
-21.42
-21.58
-21.71
-22.02
-22.61
-23.51
-24.68
-26.02
-27.49
-29.04
-30.60
-31.97
-32.75
-32.35
-30.16
-25.77
-19.17
-10.82
-1.54
7.77
16.40
23.99
30.47
35.88
40.20
43.22
44.61
44.10
41.70
37.77
32.95
28.01
23.56
19.95
17.16
14.99
13.18
11.52
9.90
8.18
6.18
3.68
0.60
-2.85
-6.19
-8.86
-10.56
-11.44
-12.14
-13.45
-15.88
-19.39
-23.25
-26.41
-27.82
-26.86
-23.49
-18.18
-11.67
-4.74
2.01
8.20
13.57
17.84
20.65
21.64
20.61
17.73
13.57
9.06
5.14
2.49
1.34
1.49
2.49
3.95
5.68
7.73
10.27
13.40
16.97
20.49
23.26
24.48
23.50
20.00
14.07
6.24
-2.54
-11.13
-18.46
-23.72
-26.48
-26.74
-24.73
-20.90
-15.73
-9.66
-3.17
3.13
8.66
12.94
15.89
17.92
19.77
22.32
26.38
32.25
39.57
47.29
53.80
57.34
56.46
50.37
39.45
25.38
10.44
-3.33
-14.97
-24.81
-34.40
-44.23
-53.98
-63.04
-69.78
-72.71
-71.16
-65.47
-56.61
-45.65
-33.27
-19.90
-5.83
8.65
22.95
36.26
47.74
56.64
62.57
65.59
66.06
64.65
62.25
59.72
57.71
56.47
55.72
54.80
53.02
49.95
45.77
41.44
38.23
37.18
38.47
41.12
43.44
43.75
41.10
35.59
28.21
20.36
13.24
7.35
2.08
-3.43
-9.43
-15.27
-19.77
-21.87
-21.17
-18.19
-14.20
-11.63
-12.32
-16.73
-23.94
-32.65
-41.87
-51.13
-60.18
-68.85
-78.34
-89.39
-101.58
-113.51
-123.76
-131.55
-136.69
-139.38
-139.96
-140.81
-143.91
-149.82
-157.59
-165.93
-174.00
-181.29
-187.25
-178.97
-149.80
-103.06
-50.01
-1.44
37.51
66.49
87.32
102.10
112.46
117.88
118.09
114.03
108.07
102.64
99.14
97.80
98.09
98.08
95.35
88.58
78.29
66.51
55.47
46.55
40.16
35.88
33.00
30.10
26.28
21.69
17.37
14.29
12.80
12.58
13.08
13.85
14.36
14.36
13.96
13.50
13.34
13.65
14.25
14.58
13.75
10.73
4.74
-4.13
-14.77
-25.02
-32.26
-34.48
-31.28
-23.96
-14.82
-6.11
0.85
5.59
8.60
10.84
12.79
13.95
13.41
10.65
6.10
0.96
-3.98
-8.28
-11.75
-13.91
-15.30
-16.95
-19.71
-24.03
-29.95
-38.10
-48.85
-61.42
-74.40
-86.40
-96.00
-101.75
-102.24
-91.86
-69.70
-40.60
-11.56
12.12
