1659461070.00
64.000000
-0.00
-0.00
-0.00
-0.00
-0.00
-0.00
-0.00
-0.00
-0.00
-0.00
0.00
0.01
0.01
-0.00
-0.03
-0.05
-0.05
0.00
0.13
0.36
0.66
1.01
1.37
1.72
2.06
2.40
2.79
3.24
3.80
4.42
5.06
5.66
6.20
6.68
7.15
7.68
8.31
9.14
10.09
11.04
11.88
12.56
13.14
13.76
14.65
15.96
17.91
20.32
22.90
25.38
27.58
29.57
31.68
34.32
37.81
42.54
48.15
54.11
59.84
64.98
69.59
74.14
79.34
85.70
93.76
103.01
112.65
121.78
129.81
136.74
143.19
150.50
157.38
166.13
177.36
191.18
206.37
219.97
227.63
224.66
207.70
175.90
131.69
78.95
21.99
-35.96
-93.44
-150.25
-206.55
-262.02
-315.74
-366.13
-412.18
-453.18
-488.65
-517.87
-539.63
-552.25
-553.88
-543.24
-519.82
-484.63
-439.77
-388.11
-332.63
-275.96
-219.97
-165.78
-113.98
-64.93
-19.23
22.27
58.52
88.62
112.09
129.17
140.78
148.28
153.04
156.01
157.56
157.52
155.49
151.13
144.25
134.87
123.22
110.10
97.11
86.72
81.66
83.84
93.25
107.58
122.90
135.09
141.42
141.32
136.13
128.02
118.81
109.36
99.76
89.87
79.89
70.58
62.57
56.15
51.10
46.79
42.43
37.52
32.07
26.50
21.50
17.59
14.96
13.33
12.08
10.58
8.47
5.85
3.24
1.26
0.34
0.45
1.16
1.79
1.81
1.02
-0.35
-1.85
-3.04
-3.80
-4.20
-4.47
-4.66
-4.69
-4.34
-3.52
-2.39
-1.32
-0.75
-0.91
-1.73
-2.84
-3.82
-4.36
-4.45
-4.25
-4.01
-3.91
-3.96
-4.07
-4.11
-4.01
-3.79
-3.53
-3.32
-3.22
-3.21
-3.21
-3.14
-2.94
-2.64
-2.30
-2.01
-1.78
-1.55
-1.24
-0.77
-0.16
0.50
1.09
1.52
1.77
1.88
1.95
2.04
2.16
2.27
2.36
2.45
2.65
3.06
3.74
4.68
5.76
6.83
7.76
8.50
9.02
9.27
9.20
8.71
7.76
6.36
4.68
2.77
0.74
-1.31
-3.29
-5.11
-6.69
-7.97
-8.96
-9.69
-10.24
-10.60
-10.79
-10.78
-10.57
-10.15
-9.58
-8.85
-8.00
-7.05
-6.06
-5.11
-4.30
-3.68
-3.30
-3.10
-3.03
-3.01
-3.01
-2.98
-2.91
-2.79
-2.66
-2.54
-2.46
-2.40
-2.30
-2.11
-1.78
-1.38
-1.03
-0.86
-0.91
-1.16
-1.48
-1.74
-1.87
-1.89
-1.86
-1.84
-1.83
-1.84
-1.82
-1.79
-1.77
-1.78
-1.80
-1.83
-1.81
-1.77
-1.76
-1.83
-2.05
-2.43
-2.93
-3.46
-3.87
-3.97
-3.62
-2.77
-1.49
-0.02
1.37
2.41
2.97
3.08
2.90
2.61
2.36
2.17
2.00
1.78
1.45
1.00
0.48
-0.04
-0.51
-0.89
-1.16
-1.34
-1.49
-1.61
-1.73
-1.84
-1.95
-2.13
-2.43
-2.93
-3.63
-4.47
-5.33
-6.08
-6.65
-7.09
-7.49
-8.01
-8.71
-9.60
-10.59
-11.60
-12.58
-13.51
-14.41
-15.24
-15.93
-16.34
-16.35
-15.87
-14.95
-13.67
-12.10
-10.31
-8.30
-6.02
-3.48
-0.68
2.30
5.38
8.41
11.25
13.77
15.86
17.49
18.65
19.42
19.82
19.87
19.56
18.89
17.91
16.74
15.52
14.34
13.21
12.09
10.90
9.63
8.35
7.17
6.20
5.52
5.08
4.77
4.37
3.70
2.64
1.20
-0.46
-2.04
-3.21
-3.72
-3.50
-2.66
-1.45
-0.18
0.94
1.77
2.31
2.63
2.80
2.89
2.94
2.95
2.89
2.73
2.48
2.15
1.77
1.37
0.99
0.66
0.42
0.34
0.42
0.65
0.92
1.10
1.06
0.77
0.29
-0.26
-0.75
-1.12
-1.38
-1.55
-1.69
-1.84
-1.99
-2.15
-2.29
-2.40
-2.45
-2.47
-2.53
-2.69
-3.01
-3.44
-3.81
-3.89
-3.51
-2.63
-1.39
-0.09
0.99
1.66
1.91
1.90
1.83
1.88
2.07
2.37
2.63
2.75
2.70
2.53
2.36
2.24
2.20
2.14
1.98
1.66
1.19
0.71
0.36
0.28
0.44
0.71
0.90
0.86
0.53
0.05
-0.40
-0.66
-0.71
-0.65
-0.64
-0.81
-1.15
-1.61
-2.09
-2.58
-3.13
-3.78
-4.51
-5.11
-5.34
-4.98
-4.00
-2.56
-0.99
0.39
1.38
1.93
2.17
2.28
2.39
2.56
2.74
2.86
2.87
2.75
2.53
2.27
2.05
1.89
1.80
1.73
1.66
1.55
1.41
1.25
1.06
0.82
0.53
0.20
-0.13
-0.44
-0.66
-0.78
-0.82
-0.81
-0.77
-0.74
-0.71
-0.69
-0.70
-0.78
-1.03
-1.57
-2.44
-3.53
-4.56
-5.18
-5.08
-4.22
-2.84
-1.36
-0.21
0.42
0.61
0.63
0.76
1.12
1.68
2.24
2.66
2.84
2.82
2.67
2.45
2.18
1.85
1.47
1.05
0.71
0.51
0.51
0.68
0.92
1.10
1.10
0.89
0.46
-0.07
-0.62
-1.07
-1.35
-1.45
-1.37
-1.15
-0.87
-0.65
-0.60
-0.77
-1.17
-1.73
-2.35
-2.95
-3.48
-3.89
-4.16
-4.23
-3.98
-3.35
-2.35
-1.09
0.22
1.36
2.20
2.75
3.05
3.24
3.35
3.40
3.36
3.20
2.95
2.67
2.38
2.09
1.75
1.36
0.93
0.54
0.30
0.28
0.47
0.76
0.99
0.99
0.71
0.22
-0.34
-0.82
-1.13
-1.32
-1.44
-1.57
-1.67
-1.72
-1.71
-1.69
-1.80
-2.12
-2.63
-3.21
-3.66
-3.83
-3.64
-3.15
-2.43
-1.57
-0.60
0.42
1.44
2.36
3.07
3.53
3.69
3.57
3.18
2.59
1.91
1.30
0.88
0.74
0.86
1.15
1.49
1.77
1.98
2.10
2.15
2.11
1.93
1.62
1.20
0.75
0.34
0.03
-0.13
-0.16
-0.10
0.00
0.06
0.03
-0.12
-0.40
-0.79
-1.22
-1.62
-1.97
-2.26
-2.53
-2.80
-3.04
-3.13
-2.93
-2.33
-1.34
-0.09
1.20
2.33
3.18
3.73
4.04
4.16
4.15
4.00
3.76
3.48
3.27
3.21
3.38
3.74
4.19
4.55
4.62
4.29
3.60
2.74
2.03
1.73
1.98
2.69
3.60
4.39
4.85
4.93
4.84
4.87
5.29
6.14
7.23
8.18
8.60
8.30
7.36
6.11
5.13
5.03
6.44
9.86
15.55
23.26
32.21
41.05
48.26
52.60
53.60
51.72
48.16
44.36
41.43
39.75
38.92
38.09
36.44
33.52
29.42
24.65
19.79
15.28
11.26
7.66
4.41
1.55
-0.79
-2.58
-4.02
-5.57
-7.73
-10.78
-14.57
-18.55
-22.06
-24.55
-25.90
-26.36
-26.41
-26.49
-26.83
-27.42
-28.09
-28.62
-28.83
-28.57
-27.77
-26.36
-24.35
-21.84
-18.97
-15.93
-12.86
-9.79
-6.63
-3.19
0.76
5.31
10.44
15.90
21.30
26.18
30.18
33.17
35.27
36.79
38.17
39.76
41.79
44.30
47.17
50.18
53.04
55.52
57.51
59.04
60.32
61.65
63.33
65.59
68.49
71.66
74.58
76.82
78.14
78.47
77.87
76.60
74.99
73.31
71.32
68.60
64.90
60.23
54.97
49.65
44.78
40.85
38.19
36.34
34.79
33.19
31.37
29.05
25.84
21.48
16.13
10.34
2.94
-6.89
-18.67
-30.47
-39.88
-45.10
-45.45
-41.37
-34.36
-30.23
-33.82
-46.37
-65.21
-86.14
-105.80
-122.55
-136.14
-147.29
-163.21
-189.53
-226.56
-269.19
-310.49
-345.35
-371.57
-389.41
-400.79
-416.65
-445.61
-488.74
-539.55
-589.31
-632.17
-666.65
-694.48
-670.77
-572.20
-408.49
-218.70
-42.32
101.12
209.89
289.68
346.90
386.72
404.13
394.34
363.71
324.70
289.31
264.08
249.42
241.93
236.77
221.09
185.04
126.13
53.29
-22.39
-90.60
-142.77
-172.49
-163.82
-117.78
-50.91
13.76
60.65
86.99
98.65
103.79
108.14
113.38
114.33
107.95
94.44
78.54
66.32
61.42
64.45
73.96
87.67
101.43
112.87
122.66
129.16
132.41
132.06
127.71
119.73
109.42
97.62
85.37
73.78
63.95
56.88
52.67
50.81
50.49
50.78
50.25
47.93
43.52
37.52
31.19
25.50
21.00
17.80
15.60
13.70
11.44
8.41
4.61
0.57
-3.16
-6.17
-8.18
-9.06
-8.83
-7.58
-5.42
-2.52
1.03
4.94
8.79
12.11
14.64
16.31
17.28
17.78
17.95
17.86
17.55
17.12
16.80
16.91
17.66
19.02
20.68
22.13
22.87
22.58
21.18
18.79
15.60
11.78
7.35
2.21
-3.75
-10.59
-18.18
-26.20
-34.23
-41.89
-48.99
-55.59
-61.99
-68.65
-75.92
-83.87
-92.12
-99.78
-105.73
-108.93
-108.80
-105.40
-99.39
-91.76
-83.47
-75.20
-67.33
-59.99
-53.16
-46.77
-40.70
-34.78
-28.88
-22.92
-16.98
-11.30
-6.19
-1.87
1.62
4.45
6.92
9.32
11.73
13.99
15.81
16.97
17.47
17.62
17.95
19.03
21.32
25.01
30.02
35.97
42.28
48.24
53.26
56.98
59.45
60.99
62.07
63.05
64.02
64.93
65.60
65.94
65.96
65.70
65.24
64.60
63.81
62.84
61.68
60.24
58.41
56.25
54.04
52.32
51.65
52.28
53.85
55.49
56.11
54.96
51.92
47.51
42.49
37.33
31.97
25.85
18.29
8.99
-1.79
-13.28
-24.67
-35.49
-45.80
-56.01
-66.57
-77.55
-88.54
-98.71
-107.10
-112.89
-115.58
-115.18
-112.14
-107.39
-102.03
-96.98
-92.56
-88.16
-82.44
-73.90
-61.71
-46.19
-28.86
-11.84
3.11
15.06
24.16
31.11
36.75
41.62
46.04
50.24
54.55
59.26
64.43
69.69
74.25
77.25
78.07
76.64
73.40
69.08
64.38
59.75
55.41
51.42
47.88
44.94
42.73
41.20
40.07
38.89
37.29
35.17
32.74
30.40
28.33
26.27
23.52
19.19
12.70
4.11
-5.84
-16.05
-25.49
-33.63
-40.47
-46.32
-51.48
-55.96
-59.45
-61.53
-61.93
-60.66
-58.01
-54.48
-50.62
-46.91
-43.62
-40.72
-37.87
-34.46
-29.90
-23.89
-16.62
-8.78
-1.30
5.06
9.95
13.48
16.07
18.17
20.09
21.99
23.95
26.05
28.42
31.05
33.78
36.28
38.16
39.07
38.92
37.80
35.99
33.83
31.65
29.65
27.95
26.56
25.47
24.80
24.79
25.81
28.15
31.80
36.24
40.59
43.80
45.10
44.20
41.33
36.97
31.60
25.52
18.89
11.86
4.62
-2.62
-9.78
-16.97
-24.46
-32.44
-40.75
-48.78
-55.62
-60.39
-62.64
-62.67
-61.38
-59.92
-59.17
-59.34
-59.84
-59.61
-57.53
-52.90
-45.65
-36.34
-25.94
-15.53
-6.14
1.52
7.10
10.81
13.37
15.76
18.92
23.32
28.76
34.47
39.45
42.97
44.81
45.33
45.27
45.40
46.21
47.86
50.07
52.20
53.46
53.06
50.51
45.80
39.43
32.37
25.67
20.24
16.53
14.45
13.44
12.64
11.12
8.18
3.61
-2.22
-8.38
-13.68
-17.05
-17.98
-16.61
-13.62
-9.97
-6.61
-4.21
-3.21
-3.76
-5.78
-8.93
-12.65
-16.30
-19.33
-21.51
-23.01
-24.33
-26.07
-28.68
-32.15
-36.00
-39.31
-41.10
-40.50
-37.13
-31.10
-23.09
-14.13
-5.42
1.96
7.35
10.57
11.89
11.76
10.58
8.48
5.39
1.19
-4.01
-9.67
-14.96
-18.95
-21.02
-21.00
-19.13
-15.92
-11.81
-7.15
-2.03
3.63
9.99
17.14
24.88
32.62
39.40
44.19
46.24
45.51
42.77
39.31
36.48
35.08
35.13
36.01
36.88
37.09
36.42
34.98
32.92
30.19
26.47
21.30
14.45
6.11
-3.05
-12.07
-20.09
-26.62
-31.71
-35.78
-39.33
-42.71
-46.06
-49.45
-52.87
-56.29
-59.38
-61.47
-61.54
-58.61
-52.19
-42.62
-31.13
-19.50
-9.50
-2.42
1.25
1.79
0.09
-2.75
-5.65
-7.80
-8.77
-8.46
-7.01
-4.64
-1.62
1.79
5.30
8.61
11.40
13.49
14.88
15.90
17.19
19.54
23.58
29.38
36.25
42.81
47.48
49.17
47.79
44.29
40.20
36.95
35.25
34.95
35.33
35.65
35.53
35.02
34.39
33.78
32.99
31.52
28.83
24.66
19.19
13.07
7.14
2.14
-1.55
-4.05
-5.83
-7.50
-9.64
-12.67
-16.88
-22.36
-28.88
-35.74
-41.79
-45.64
-46.18
-43.06
-36.98
-29.52
-22.63
-18.01
-16.55
-18.22
-22.21
-27.29
-32.17
-35.81
-37.57
-37.24
-34.93
-30.99
-25.85
-19.91
-13.63
-7.46
-1.91
2.59
5.84
8.01
9.69
11.67
14.69
19.11
24.77
30.99
36.81
41.32
43.87
44.28
42.73
39.72
35.87
31.69
27.54
23.57
19.72
15.88
11.95
7.90
3.72
-0.70
-5.53
-10.96
-16.93
-23.00
-28.35
-32.04
-33.49
-32.79
-30.77
-28.69
-27.70
-28.44
-30.81
-34.19
-37.64
-40.27
-41.32
-40.27
-36.90
-31.34
-24.17
-16.31
-8.81
-2.52
2.13
5.26
7.32
8.88
10.36
11.92
13.50
14.97
16.29
17.50
18.78
20.26
21.96
23.78
25.54
27.06
28.29
29.24
29.91
30.23
30.15
29.67
29.06
28.73
29.16
30.53
32.58
34.57
35.65
35.15
32.89
29.18
24.64
19.83
15.08
10.41
5.63
0.53
-5.01
-11.03
-17.45
-24.18
-31.06
-37.95
-44.64
-50.93
-56.59
-61.34
-64.91
-67.01
-67.45
-66.27
-63.84
-60.85
-58.08
-56.11
-55.05
-54.42
-53.32
-50.73
-45.90
-38.56
-29.01
-18.00
-6.51
4.43
13.91
21.30
26.39
29.42
31.00
31.95
32.96
34.46
36.47
38.67
40.60
41.84
42.13
41.45
39.93
37.80
35.28
32.47
29.34
25.76
21.64
17.19
12.93
9.63
7.99
8.30
10.19
12.78
14.98
16.03
15.71
14.42
12.74
11.07
9.30
6.95
3.51
-1.15
-6.58
-11.99
-16.65
-20.28
-23.15
-25.83
-28.77
-31.95
-34.95
-37.14
-38.19
-38.22
-37.78
-37.45
-37.53
-37.81
-37.71
-36.57
-34.01
-30.07
-25.20
-20.01
-15.05
-10.64
-6.89
-3.77
-1.26
0.60
1.76
2.27
2.35
2.41
2.89
4.09
6.05
8.53
11.19
13.68
15.78
17.39
18.53
19.24
19.59
19.69
19.72
19.85
20.29
21.18
22.67
24.82
27.61
30.79
33.96
36.60
38.33
39.09
39.14
38.90
38.66
38.32
37.33
34.95
30.64
24.42
16.89
8.98
1.53
-5.10
-11.13
-17.07
-23.31
-29.80
-36.00
-41.08
-44.50
-46.24
-46.83
-47.08
-47.55
-48.34
-49.01
-48.88
-47.39
-44.31
-39.78
-34.20
-28.02
-21.65
-15.39
-9.50
-4.18
0.38
4.05
6.81
8.80
10.28
11.59
13.12
15.10
17.55
20.28
22.92
25.11
26.65
27.54
27.94
27.98
27.71
27.00
25.68
23.69
21.16
18.49
16.17
14.65
14.10
14.36
15.01
15.55
15.60
14.99
13.79
12.22
10.56
9.09
8.05
7.59
7.70
8.14
8.48
8.24
7.05
4.84
1.79
-1.78
-5.57
-9.35
-12.90
-15.96
-18.21
-19.35
-19.27
-17.99
-15.71
-12.73
-9.51
-6.77
-5.43
-6.37
-10.04
-16.16
-23.65
-31.09
-37.22
-41.40
-43.71
-44.69
-44.86
-44.55
-43.82
-42.74
-41.54
-40.61
-40.37
-41.02
-42.32
-43.65
-44.10
-42.83
-39.34
-33.75
-26.79
-19.57
-13.18
-8.36
-5.26
-3.51
-2.43
-1.22
0.90
4.53
9.93
16.88
24.55
31.78
37.44
40.98
42.66
43.38
44.08
45.26
46.72
47.75
47.66
46.23
43.70
40.55
37.02
32.95
27.85
21.36
13.58
5.23
-2.65
-9.14
-13.76
-16.62
-18.32
-19.70
-21.54
-24.36
-28.18
-32.47
-36.13
-37.78
-36.14
-30.62
-21.71
-10.96
-0.51
7.58
12.10
12.96
11.05
7.75
4.33
1.55
-0.44
-1.86
-3.03
-4.09
-4.87
-5.03
-4.27
-2.52
0.03
3.05
6.21
9.40
12.76
16.58
21.09
26.26
31.76
36.89
40.76
42.51
41.67
38.41
33.71
29.11
26.23
26.07
28.58
32.61
36.49
38.78
38.87
37.19
34.74
32.43
30.50
28.47
25.47
20.85
14.62
7.48
0.52
-5.29
-9.48
-12.25
-14.28
-16.48
-19.63
-24.15
-29.96
-36.51
-42.89
-48.04
-51.01
-51.27
-48.83
-44.26
-38.51
-32.68
-27.72
-24.29
-22.66
-22.66
-23.83
-25.48
-26.91
-27.56
-27.13
-25.60
-23.18
-20.22
-17.03
-13.88
-10.89
-8.11
-5.61
-3.42
-1.56
0.06
1.73
3.87
6.86
10.91
15.82
21.02
25.67
28.97
30.47
30.22
28.70
26.59
24.53
22.88
21.74
21.01
20.54
20.18
19.76
19.02
17.62
15.17
11.41
6.39
0.58
-5.21
-10.01
-13.02
-13.83
-12.60
-10.06
-7.32
-5.57
-5.78
-8.34
-12.84
-18.10
-22.42
-24.15
-22.20
-16.54
-8.15
1.28
9.94
16.52
20.41
21.72
20.94
18.70
15.54
12.00
8.54
5.59
3.47
2.31
2.09
2.68
3.90
5.61
7.68
9.98
12.33
14.52
16.28
17.43
17.95
18.10
18.41
19.46
21.56
24.53
27.67
30.12
31.21
30.70
28.83
25.96
22.31
17.75
11.97
4.76
-3.77
-13.18
-22.84
-32.21
-40.96
-48.94
-56.09
-62.34
-67.53
-71.47
-73.92
-74.64
-73.43
-70.25
-65.33
-59.28
-52.97
-47.35
-43.06
-40.19
-38.19
-36.02
-32.62
-27.30
-19.97
-11.16
-1.77
7.23
15.10
21.35
25.86
28.80
30.58
31.80
33.04
34.69
36.83
39.18
41.30
42.83
43.61
43.74
43.43
42.83
41.93
40.56
38.50
35.69
32.28
28.69
25.49
23.20
22.11
22.18
23.09
24.31
25.35
25.83
25.61
24.67
23.06
20.80
17.87
14.24
9.98
5.24
0.27
-4.72
-9.66
-14.64
-19.95
-25.80
-32.22
-38.91
-45.27
-50.59
-54.36
-56.43
-57.06
-56.77
-56.04
-55.16
-54.07
-52.46
-49.92
-46.19
-41.24
-35.31
-28.82
-22.16
-15.65
-9.53
-4.02
0.64
4.30
6.96
8.90
10.66
12.82
15.79
19.59
23.79
27.74
30.78
32.51
32.91
32.28
31.14
29.96
29.08
28.60
28.47
28.57
28.82
29.25
29.98
31.11
32.68
34.59
36.64
38.61
40.25
41.32
41.53
40.52
37.88
33.35
26.95
19.11
10.54
1.99
-6.06
-13.55
-20.78
-28.12
-35.68
-43.17
-49.97
-55.45
-59.21
-61.24
-61.74
-61.03
-59.34
-56.82
-53.65
-49.98
-45.94
-41.49
-36.45
-30.58
-23.81
-16.36
-8.81
-1.89
3.75
7.83
10.47
12.18
13.66
15.47
17.90
20.86
23.96
26.69
28.73
30.05
30.88
31.57
32.31
32.98
33.19
32.49
30.60
27.53
23.62
19.39
15.41
12.17
10.04
9.18
9.55
10.81
12.42
13.76
14.38
14.17
13.39
12.43
11.65
11.11
10.71
10.27
9.70
9.03
8.26
7.16
5.30
2.16
-2.56
-8.75
-15.85
-23.08
-29.62
-34.81
-38.25
-39.84
-39.78
-38.59
-37.11
-36.21
-36.47
-37.84
-39.49
-40.00
-37.88
-32.22
-23.19
-12.14
-1.20
7.37
12.01
12.30
9.01
3.70
-1.92
-6.54
-9.51
-10.77
-10.57
-9.13
-6.59
-3.00
1.48
6.43
11.23
15.24
18.13
19.98
21.35
23.00
25.57
29.23
33.60
37.83
41.01
42.44
42.00
40.13
37.65
35.48
34.19
33.83
33.95
33.81
32.75
30.39
26.70
21.84
15.95
9.05
1.02
-8.15
-18.20
-28.53
-38.28
-46.52
-52.52
-55.91
-56.83
-55.85
-53.94
-52.27
-51.96
-53.69
-57.39
-62.05
-65.88
-66.86
-63.41
-55.04
-42.62
-28.16
-14.21
-3.06
3.97
6.78
6.34
4.20
1.85
0.33
-0.04
0.57
1.80
3.42
5.46
8.12
11.48
15.28
18.95
21.79
23.40
23.93
24.11
24.94
27.26
31.27
36.44
41.67
45.71
47.66
47.31
45.13
42.03
38.98
36.62
35.12
34.23
33.50
32.46
30.79
28.38
25.22
21.33
16.70
11.20
4.75
-2.56
-10.36
-18.03
-24.81
-30.10
-33.71
-35.89
-37.31
-38.79
-41.05
-44.49
-49.02
-54.05
-58.54
-61.21
-60.91
-56.93
-49.33
-38.92
-27.16
-15.62
-5.68
1.85
6.75
9.24
9.85
9.20
7.91
6.46
5.23
4.45
4.24
4.72
5.90
7.69
9.81
11.81
13.29
14.06
14.39
14.94
16.51
19.65
24.36
30.04
35.67
40.16
42.63
42.70
40.44
36.45
31.61
26.84
22.83
19.79
17.42
15.15
12.43
9.00
4.92
0.38
-4.50
-9.77
-15.51
-21.59
-27.53
-32.67
-36.35
-38.29
-38.66
-37.90
-36.55
-35.03
-33.64
-32.66
-32.32
-32.76
-33.79
-34.77
-34.80
-32.96
-28.81
-22.57
-15.12
-7.66
-1.23
3.58
6.75
8.67
9.86
10.76
11.68
12.80
14.24
16.06
18.28
20.82
23.57
26.36
28.94
31.07
32.57
33.36
33.50
33.11
32.35
31.37
30.34
29.52
29.28
29.88
31.35
33.30
35.02
35.80
35.26
33.51
31.09
28.64
26.51
24.63
22.58
19.80
15.77
10.19
3.05
-5.39
-14.55
-23.73
-32.26
-39.72
-46.04
-51.38
-55.90
-59.68
-62.63
-64.69
-65.89
-66.43
-66.48
-66.09
-65.06
-63.05
-59.74
-55.01
-49.01
-42.06
-34.53
-26.73
-18.86
-10.98
-3.16
4.46
11.67
18.17
23.74
28.28
31.93
34.94
37.59
40.04
42.32
44.30
45.74
46.42
46.14
44.85
42.69
40.01
37.26
34.88
33.12
31.96
31.22
30.67
30.15
29.62
28.99
28.07
26.55
24.14
20.82
16.97
13.21
10.17
8.04
6.41
4.39
1.03
-4.16
-10.98
-18.63
-26.17
-32.90
-38.72
-43.87
-48.68
-53.19
-57.04
-59.70
-60.78
-60.26
-58.56
-56.30
-54.02
-51.93
-49.88
-47.46
-44.14
-39.54
-33.56
-26.42
-18.65
-10.85
-3.55
2.90
8.38
12.91
16.55
19.40
21.58
23.35
24.99
26.80
28.89
31.16
33.31
35.02
36.06
36.38
36.13
35.51
34.72
33.85
32.92
31.95
31.01
30.26
29.88
30.03
30.76
31.94
33.30
34.48
35.14
35.07
34.18
32.48
30.02
26.82
22.90
18.27
13.02
7.19
0.81
-6.23
-14.07
-22.77
-32.11
-41.51
-50.01
-56.58
-60.43
-61.38
-59.91
-57.10
-54.16
-52.08
-51.28
-51.56
-52.26
-52.56
-51.75
-49.41
-45.47
-40.17
-33.95
-27.38
-21.09
-15.57
-11.12
-7.72
-5.06
-2.63
0.06
3.30
7.13
11.34
15.61
19.64
23.27
26.50
29.44
32.24
34.98
37.63
40.01
41.85
42.94
43.17
42.66
41.71
40.75
40.18
40.27
41.15
42.69
44.56
46.23
47.11
46.70
44.87
41.85
38.27
34.85
32.15
30.31
29.05
27.72
25.55
21.79
15.85
7.43
-3.36
-15.93
-29.19
-41.84
-52.72
-61.11
-66.98
-70.82
-73.36
-75.13
-76.29
-76.58
-75.41
-72.18
-66.41
-57.89
-46.77
-33.58
-19.19
-4.75
8.57
19.81
28.43
34.40
38.08
39.95
40.38
39.41
36.84
32.47
26.30
18.73
10.61
2.97
-3.23
-7.42
-9.51
-9.80
-8.77
-6.83
-4.22
-1.03
2.73
6.95
11.40
15.71
19.42
22.10
23.43
23.32
22.00
19.95
17.77
15.98
14.89
14.52
14.69
15.13
15.53
15.54
14.71
12.57
8.75
3.21
-3.65
-11.06
-18.15
-24.29
-29.28
-33.36
-37.00
-40.68
-44.64
-48.77
-52.59
-55.41
-56.45
-55.15
-51.34
-45.41
-38.20
-30.73
-23.94
-18.33
-13.93
-10.49
-7.64
-5.17
-3.09
-1.50
-0.46
0.19
0.82
1.87
3.60
6.02
8.81
11.55
13.95
16.02
18.02
20.38
23.47
27.45
32.22
37.34
42.18
45.88
47.62
46.86
43.57
38.39
32.49
27.17
23.48
21.77
21.76
22.68
23.70
24.24
24.04
23.06
21.31
18.63
14.79
9.61
3.18
-4.00
-11.21
-17.68
-22.94
-26.94
-30.05
-32.80
-35.64
-38.74
-42.05
-45.31
-48.16
-50.17
-50.82
-49.61
-46.15
-40.44
-32.93
-24.52
-16.28
-9.17
-3.72
0.09
2.61
4.27
5.36
5.91
5.93
5.60
5.42
6.09
8.20
11.87
16.61
21.52
25.74
28.83
30.97
32.78
34.93
37.78
41.24
44.89
48.09
50.16
50.43
48.25
43.22
35.41
25.51
14.76
4.57
-4.01
-10.68
-15.87
-20.45
-25.10
-29.99
-34.72
-38.62
-41.21
-42.48
-42.88
-43.05
-43.29
-43.46
-43.00
-41.28
-38.06
-33.69
-29.02
-25.12
-22.82
-22.37
-23.40
-25.02
-26.08
-25.52
-22.69
-17.56
-10.79
-3.54
2.89
7.50
9.91
10.39
9.64
8.47
7.52
7.19
7.68
9.11
11.56
15.02
19.31
24.09
28.88
33.23
36.80
39.46
41.21
42.22
42.71
42.89
42.92
42.86
42.56
41.69
39.69
35.96
30.14
22.40
13.66
5.40
-0.79
-3.93
-4.10
-2.50
-0.93
-1.03
-3.56
-8.27
-14.19
-20.23
-25.62
-30.08
-33.61
-36.12
-37.34
-36.93
-34.75
-31.22
-27.28
-24.18
-22.96
-24.08
-27.17
-31.18
-34.74
-36.70
-36.48
-34.25
-30.79
-27.05
-23.75
-21.11
-18.87
-16.52
-13.66
-10.19
-6.39
-2.67
0.64
3.53
6.27
9.27
12.77
16.73
20.78
24.39
27.17
29.00
30.16
31.10
32.21
33.65
35.30
36.87
38.11
38.92
39.35
39.52
39.50
39.26
38.73
37.78
36.33
34.27
31.56
28.18
24.23
19.98
15.79
12.03
8.95
6.54
4.51
2.43
-0.07
-3.16
-6.66
-10.20
-13.34
-15.85
-17.75
-19.24
-20.50
-21.48
-22.02
-21.96
-21.47
-21.06
-21.49
-23.40
-26.88
-31.38
-35.85
-39.10
-40.30
-39.18
-36.10
-31.78
-27.07
-22.66
-18.99
-16.23
-14.31
-12.96
-11.80
-10.45
-8.66
-6.44
-4.04
-1.80
0.12
1.88
3.96
6.91
11.04
16.14
21.51
26.19
29.33
30.46
29.69
27.63
25.26
23.60
23.46
25.14
28.37
32.36
36.05
38.50
39.13
37.88
35.12
31.45
27.52
23.90
20.92
18.69
17.06
15.63
13.89
11.38
7.77
2.93
-3.16
-10.44
-18.78
-27.90
-37.22
-45.92
-53.16
-58.34
-61.35
-62.59
-62.83
-62.94
-63.75
-65.81
-69.29
-73.68
-77.69
-79.30
-76.31
-67.21
-51.98
-32.29
-11.12
8.31
23.62
33.88
39.53
41.81
42.10
41.48
40.62
39.91
39.63
40.00
41.11
42.81
44.65
45.96
45.98
44.11
40.06
34.03
26.67
18.88
11.52
5.15
-0.14
-4.60
-8.58
-12.23
-15.34
-17.44
-18.12
-17.37
-15.67
-13.86
-12.73
-12.63
-13.35
-14.32
-14.97
-15.01
-14.48
-13.52
-12.08
-9.77
-6.02
-0.30
7.56
17.36
28.53
40.32
51.83
62.04
70.02
74.99
76.61
75.07
71.01
65.29
58.65
51.43
43.60
34.87
25.09
14.40
3.25
-7.84
-18.39
-27.96
-36.16
-42.59
-47.02
-49.65
-51.16
-52.49
-54.38
-56.82
-58.92
-59.23
-56.51
-50.66
-43.13
-36.63
-33.91
-36.47
-43.44
-51.83
-57.69
-57.99
-52.02
-41.62
-30.08
-20.30
-13.45
-8.77
-4.63
0.02
4.82
8.29
9.15
7.41
4.75
3.70
6.37
13.33
23.41
34.37
43.92
50.60
54.12
55.20
55.02
54.63
54.56
54.75
54.63
53.24
49.56
42.72
32.38
18.98
3.81
-11.15
-23.90
-33.15
-38.96
-42.73
-46.54
-52.08
-59.66
-67.79
-73.70
-74.39
-67.75
-53.31
-32.22
-6.69
20.82
48.19
73.95
97.18
117.26
133.75
146.25
154.23
157.09
154.14
145.03
130.20
111.36
91.77
75.93
68.62
73.26
90.34
116.30
143.96
164.21
168.80
153.09
117.53
67.49
11.46
-41.39
-83.55
-110.35
-120.25
-114.34
-95.75
-69.19
-40.32
-14.81
2.89
10.54
8.60
-0.18
-11.95
-23.10
-31.36
-36.11
-38.10
-38.77
-39.47
-40.98
-43.32
-45.88
-47.81
-48.42
-47.45
-45.22
-42.39
-39.74
-37.78
-36.60
-35.81
-34.64
-32.21
-27.73
-20.77
-11.33
0.09
12.75
25.90
38.98
51.72
64.13
76.35
88.74
101.74
115.74
130.78
146.17
160.51
172.17
180.11
184.51
186.64
187.95
188.81
187.69
181.45
166.62
140.85
103.93
57.83
6.12
-46.80
-96.36
-138.31
-169.38
-187.89
-194.28
-191.03
-181.86
-170.60
-160.02
-151.29
-144.03
-137.02
-128.92
-118.73
-106.03
-90.89
-73.87
-56.02
-39.02
-25.15
-16.81
-15.85
-22.60
-35.32
-50.42
-63.61
-71.35
-72.18
-66.93
-58.08
-48.55
-40.66
-35.74
-34.30
-36.35
-41.61
-49.41
-58.67
-67.88
-75.46
-80.11
-81.20
-78.86
-73.98
-67.89
-62.07
-57.73
-55.50
-55.38
-56.79
-58.80
-60.43
-60.78
-59.12
-55.03
-48.42
-39.59
-29.27
-18.49
-8.41
-0.17
5.34
7.62
6.61
2.74
-3.19
-10.29
-17.70
-24.82
-31.25
-36.74
-41.07
-44.02
-45.52
-45.73
-45.14
-44.37
-44.00
-44.35
-45.34
-46.68
-47.88
-48.46
-47.92
-45.87
-42.02
-36.35
-29.25
-21.49
-14.24
-8.76
-6.11
-6.79
-10.40
-15.59
-20.33
-22.48
-20.38
-13.35
-1.84
12.87
29.06
45.10
59.62
71.50
79.77
83.57
82.29
75.92
65.34
52.39
39.42
28.68
21.50
17.92
16.76
16.24
14.83
11.93
8.06
4.37
1.83
0.63
-0.03
-1.49
-4.83
-10.21
-16.72
-22.77
-26.84
-28.13
-26.79
-23.74
-20.15
-16.86
-14.19
-11.91
-9.49
-6.34
-1.98
3.86
11.18
19.55
28.22
36.18
42.38
46.09
47.02
45.44
42.08
37.96
34.14
31.45
30.27
30.41
31.17
31.65
31.09
29.30
26.73
24.29
22.80
22.53
23.00
23.18
22.03
18.99
14.20
8.40
2.50
-2.74
-6.99
-10.40
-13.35
-16.31
-19.55
-23.10
-26.58
-29.21
-29.90
-27.48
-21.18
-11.04
1.76
15.12
26.54
33.92
36.30
34.08
28.79
22.37
16.40
11.53
7.40
3.01
-2.61
-9.84
-18.21
-26.48
-33.13
-36.86
-37.05
-33.94
-28.59
-22.51
-17.24
-13.94
-13.14
-14.72
-18.01
-22.02
-25.63
-27.77
-27.65
-24.90
-19.74
-12.93
-5.60
1.18
6.79
11.24
15.07
18.90
22.95
26.82
29.58
30.39
28.88
25.46
21.06
16.70
13.05
10.27
8.19
6.56
5.31
4.53
4.26
4.32
4.30
3.75
2.47
0.66
-1.13
-2.35
-2.75
-2.46
-1.97
-1.77
-2.18
-3.20
-4.61
-6.09
-7.37
-8.28
-8.78
-9.03
-9.44
-10.57
-12.84
-16.17
-19.72
-22.00
-21.46
-17.18
-9.40
0.42
10.09
17.58
21.70
22.38
20.48
17.28
13.85
10.82
8.38
6.49
5.16
4.48
4.43
4.75
4.79
3.76
1.13
-2.95
-7.58
-11.48
-13.53
-13.34
-11.47
-9.20
-7.93
-8.52
-10.81
-13.63
-15.23
-14.10
-9.63
-2.47
5.65
12.61
16.69
17.29
15.12
11.82
9.29
8.94
11.26
15.77
21.32
26.48
29.99
31.15
29.92
26.89
22.98
19.06
15.69
13.02
10.96
9.38
8.20
7.29
6.43
5.12
2.83
-0.68
-5.05
-9.22
-11.90
-12.10
-9.70
-5.62
-1.36
1.61
2.48
1.37
-0.87
-3.14
-4.64
-5.18
-5.25
-5.70
-7.26
-10.13
-13.78
-17.06
-18.69
-17.73
-13.95
-7.98
-1.03
5.49
10.39
12.98
13.24
11.80
9.78
8.48
8.93
11.51
15.75
20.48
24.31
26.12
25.39
22.31
17.46
11.61
5.44
-0.44
-5.44
-9.05
-10.88
-10.85
-9.25
-6.68
-3.88
-1.37
0.57
2.00
3.16
4.21
5.10
5.53
5.24
4.26
3.14
2.83
4.33
8.14
13.86
20.24
25.58
28.36
27.80
24.13
18.43
12.19
6.88
3.48
2.33
3.12
5.09
7.16
8.27
7.72
5.38
1.75
-2.24
-5.63
-7.80
-8.66
-8.53
-7.87
-7.05
-6.24
-5.48
-4.80
-4.27
-3.89
-3.52
-2.97
-2.08
-0.98
-0.11
0.02
-0.82
-2.28
-3.39
-2.93
0.07
5.82
13.50
21.45
27.71
30.70
29.85
25.80
20.08
14.40
9.89
6.66
3.92
0.64
-3.78
-9.02
-13.92
-17.04
-17.35
-14.65
-9.72
-4.00
0.90
3.60
3.32
-0.02
-5.80
-12.82
-19.60
-24.74
-27.21
-26.59
-23.08
-17.46
-10.84
-4.57
0.06
2.10
1.31
-1.59
-5.01
-6.93
-5.71
-0.83
6.77
15.00
21.51
24.72
24.39
21.61
18.06
15.07
13.04
11.49
9.65
7.06
3.97
1.15
-0.66
-1.25
-1.07
-0.96
-1.62
-3.19
-5.21
-6.97
-7.96
-8.29
-8.62
-9.83
-12.47
-16.43
-20.83
-24.43
-26.11
-25.46
-22.94
-19.77
-17.34
-16.68
-17.99
-20.53
-22.95
-23.81
-22.10
-17.61
-11.12
-4.03
2.03
5.81
6.87
5.72
3.57
1.88
1.70
3.39
6.52
10.18
13.38
15.35
15.71
14.33
11.35
7.07
2.08
-2.75
-6.37
-7.86
-6.77
-3.41
1.25
5.83
9.07
10.23
9.36
7.23
4.90
3.41
3.25
4.29
5.77
6.63
5.99
3.56
-0.13
-3.87
-6.15
-5.82
-2.51
3.14
9.75
15.62
19.43
20.50
18.99
15.69
11.62
7.73
4.63
2.59
1.48
0.94
0.50
-0.27
-1.66
-3.71
-6.19
-8.61
-10.34
-10.78
-9.62
-7.01
-3.55
-0.13
2.46
3.75
3.73
2.89
1.89
1.41
1.87
3.31
5.36
7.28
8.20
7.50
5.19
2.08
-0.34
-0.45
2.81
9.43
18.16
26.87
33.34
36.04
34.56
29.69
22.96
15.98
9.89
5.12
1.52
-1.32
-3.72
-5.80
-7.53
-8.88
-9.99
-11.03
-12.11
-13.15
-13.84
-13.89
-13.16
-11.80
-10.17
-8.69
-7.59
-6.81
-6.08
-5.08
-3.62
-1.76
0.18
1.72
2.38
1.88
0.32
-1.71
-3.25
-3.19
-0.77
4.07
10.47
16.96
21.88
24.08
23.24
19.95
15.30
10.42
6.08
2.53
-0.31
-2.62
-4.45
-5.74
-6.38
-6.45
-6.31
-6.48
-7.46
-9.44
-12.15
-14.93
-17.06
-18.06
-17.93
-17.11
-16.23
-15.75
-15.80
-16.17
-16.52
-16.62
-16.43
-16.07
-15.76
-15.66
-15.83
-16.16
-16.30
-15.67
-13.61
-9.58
-3.54
3.86
11.31
17.25
20.44
20.45
17.86
13.97
10.26
7.79
6.91
7.26
8.11
8.68
8.49
7.42
5.63
3.44
1.20
-0.78
-2.26
-3.06
-3.13
-2.56
-1.58
-0.58
0.04
-0.07
-1.06
-2.90
-5.32
-7.87
-10.06
-11.47
-11.96
-11.72
-11.22
-11.03
-11.58
-12.92
-14.66
-16.07
-16.29
-14.63
-10.84
-5.23
1.40
7.98
13.50
17.21
18.86
18.64
17.02
14.60
11.86
9.07
6.28
3.43
0.49
-2.44
-5.00
-6.79
-7.45
-6.97
-5.67
-4.10
-2.79
-2.06
-1.86
-1.93
-1.97
-1.84
-1.64
-1.64
-2.14
-3.29
-4.94
-6.69
-8.02
-8.52
-8.00
-6.60
-4.66
-2.66
-1.07
-0.24
-0.27
-0.91
-1.49
-1.04
1.43
6.44
13.73
22.14
30.00
35.71
38.33
37.88
35.19
31.46
27.75
24.66
22.28
20.40
18.77
17.26
15.94
14.92
14.24
13.75
13.21
12.40
11.35
10.33
9.72
9.70
10.03
10.08
9.13
6.80
3.37
-0.25
-2.90
-3.64
-2.32
0.49
3.60
5.77
6.12
4.29
0.59
-4.22
-8.94
-12.18
-12.58
-9.18
-1.84
8.49
19.85
29.80
36.07
37.44
33.97
26.96
18.41
10.29
4.02
0.17
-1.44
-1.47
-0.79
-0.24
-0.46
-1.84
-4.48
-8.12
-12.18
-15.89
-18.51
-19.55
-19.00
-17.35
-15.40
-14.04
-13.95
-15.40
-18.23
-21.91
-25.65
-28.60
-30.10
-29.87
-28.16
-25.68
-23.36
-21.88
-21.29
-20.90
-19.60
-16.36
-10.80
-3.45
4.35
10.97
15.08
16.05
14.11
10.17
5.36
0.70
-3.23
-6.21
-8.33
-9.66
-10.21
-9.94
-8.90
-7.33
-5.69
-4.41
-3.70
-3.42
-3.20
-2.70
-1.87
-1.03
-0.70
-1.33
-3.00
-5.40
-7.87
-9.72
-10.48
-10.05
-8.73
-7.03
-5.54
-4.77
-5.02
-6.25
-8.02
-9.50
-9.74
-8.06
-4.35
0.81
6.32
10.92
13.63
14.03
12.28
9.01
5.02
1.07
-2.30
-4.85
-6.59
-7.72
-8.49
-9.19
-10.05
-11.36
-13.35
-16.07
-19.22
-22.03
-23.44
-22.48
-18.76
-12.72
-5.56
1.15
6.05
8.43
8.35
6.52
3.94
1.48
-0.27
-1.16
-1.41
-1.48
-1.87
-2.90
-4.50
-6.12
-6.84
-5.61
-1.71
4.90
13.37
22.09
29.22
33.20
33.33
29.93
24.14
17.45
11.23
6.40
3.33
1.92
1.74
2.24
2.84
3.08
2.69
1.68
0.27
-1.18
-2.30
-2.78
-2.47
-1.35
0.43
2.53
4.47
5.66
5.61
4.16
1.58
-1.45
-4.07
-5.56
-5.67
-4.64
-3.19
-2.17
-2.24
-3.60
-5.82
-7.94
-8.76
-7.30
-3.12
3.43
11.32
19.14
25.56
29.67
31.13
30.13
27.16
22.79
17.56
11.99
6.63
2.09
-1.04
-2.41
-2.12
-0.79
0.63
1.24
0.50
-1.51
-4.18
-6.68
-8.37
-9.11
-9.28
-9.68
-11.01
-13.60
-17.13
-20.63
-22.77
-22.28
-18.33
-10.93
-0.98
9.70
18.84
24.30
24.90
20.97
14.47
8.29
5.14
6.41
11.53
18.33
24.01
26.41
24.80
19.97
13.69
7.76
3.32
0.55
-1.08
-2.39
-4.01
-6.16
-8.64
-11.08
-13.19
-14.88
-16.24
-17.31
-18.06
-18.27
-17.84
-16.97
-16.20
-16.23
-17.45
-19.65
-21.98
-23.29
-22.64
-19.74
-14.95
-9.11
-3.12
2.25
6.41
8.95
9.67
8.76
6.90
5.22
4.93
6.78
10.68
15.64
20.22
23.17
23.89
22.54
19.79
16.34
12.59
8.60
4.22
-0.56
-5.40
-9.68
-12.66
-13.88
-13.26
-11.20
-8.36
-5.39
-2.69
-0.38
1.55
3.13
4.21
4.58
4.02
2.57
0.59
-1.29
-2.44
-2.51
-1.65
-0.41
0.50
0.55
-0.34
-1.80
-3.16
-3.66
-2.68
0.15
4.88
11.15
18.07
24.44
28.98
30.75
29.56
25.96
21.04
15.99
11.64
8.38
6.13
4.63
3.62
2.97
2.66
2.69
3.01
3.52
4.08
4.51
4.66
4.39
3.57
2.13
0.10
-2.45
-5.30
-8.20
-10.91
-13.19
-14.92
-15.99
-16.41
-16.22
-15.59
-14.84
-14.41
-14.78
-16.31
-19.08
-22.71
-26.32
-28.72
-28.76
-25.75
-19.77
-11.75
-3.25
4.12
9.22
11.71
12.02
11.06
9.73
8.61
7.79
6.92
5.47
2.96
-0.72
-5.27
-9.95
-13.86
-16.27
-16.88
-15.93
-13.96
-11.62
-9.41
-7.63
-6.40
-5.81
-6.01
-7.14
-9.23
-12.05
-14.98
-17.11
-17.56
-15.80
-11.96
-6.81
-1.49
2.87
5.56
6.41
5.66
3.81
1.50
-0.47
-1.08
0.73
5.66
13.58
23.24
32.52
39.10
41.35
39.01
33.22
26.02
19.56
15.25
13.50
13.81
15.27
17.06
18.77
20.30
21.64
22.62
22.82
21.78
19.26
15.48
11.09
6.96
3.86
2.25
2.03
2.67
3.30
3.06
1.41
-1.61
-5.45
-9.26
-12.23
-13.93
-14.45
-14.31
-14.23
-14.82
-16.33
-18.56
-20.84
-22.19
-21.62
-18.41
-12.45
-4.40
4.40
12.28
17.73
19.86
18.67
14.99
10.22
5.78
2.67
1.25
1.16
1.66
1.95
1.56
0.45
-1.06
-2.49
-3.36
-3.34
-2.22
0.15
3.71
8.14
12.71
16.39
17.97
16.54
11.78
4.21
-4.80
-13.41
-19.78
-22.63
-21.57
-17.14
-10.63
-3.77
1.67
4.36
3.77
0.39
-4.28
-8.27
-9.78
-7.91
-2.98
3.63
10.07
14.76
16.96
16.85
15.32
13.48
12.12
11.34
10.46
8.30
3.73
-3.64
-13.03
-22.61
-30.10
-33.78
-33.25
-29.62
-25.06
-21.79
-21.14
-23.18
-26.92
-30.94
-34.14
-36.12
-37.07
-37.50
-37.92
-38.70
-40.01
-41.59
-42.56
-41.25
-35.37
-22.86
-2.84
23.43
52.44
79.27
99.13
108.95
108.28
99.11
84.91
69.28
55.00
43.49
34.99
28.99
24.76
21.67
19.38
17.65
16.23
14.85
13.25
11.20
8.65
5.67
2.39
-0.97
-4.12
-6.79
-8.76
-10.00
-10.73
-11.30
-12.02
-13.04
-14.18
-15.17
-15.83
-16.18
-16.45
-16.92
-17.66
-18.55
-19.38
-20.05
-20.72
-21.81
-23.74
-26.70
-30.41
-34.19
-37.19
-38.75
-38.69
-37.37
-35.38
-33.24
-31.12
-28.80
-25.92
-22.39
-18.52
-15.03
-12.60
-11.51
-11.35
-11.27
-10.40
-8.34
-5.41
-2.49
-0.56
-0.27
-1.65
-4.10
-6.72
-8.63
-9.31
-8.67
-7.05
-5.03
-3.12
-1.68
-0.71
-0.01
0.75
1.71
2.79
3.64
3.90
3.35
2.13
0.65
-0.52
-0.89
-0.17
1.65
4.27
7.15
9.52
10.54
9.53
6.36
1.64
-3.19
-6.25
-5.80
-0.91
8.01
19.27
30.33
38.61
42.31
40.92
35.32
27.37
19.22
12.64
8.53
6.80
6.65
7.13
7.55
7.77
8.04
8.78
10.26
12.40
14.77
16.80
17.94
17.91
16.78
14.80
12.39
9.85
7.34
4.92
2.62
0.55
-1.19
-2.64
-4.03
-5.81
-8.41
-12.03
-16.44
-21.12
-25.46
-29.00
-31.49
-32.75
-32.39
-29.84
-24.53
-16.38
-6.13
4.64
13.90
19.93
21.95
20.38
16.60
12.31
8.86
6.87
6.23
6.43
7.00
7.76
8.88
10.68
13.30
16.57
19.98
22.84
24.54
24.74
23.43
20.94
17.73
14.28
10.99
8.07
5.58
3.51
1.82
0.55
-0.16
-0.21
0.39
1.41
2.34
2.60
1.71
-0.52
-3.98
-8.25
-12.67
-16.38
-18.45
-18.04
-14.64
-8.42
-0.39
7.81
14.37
17.91
18.01
15.26
11.01
6.82
3.93
2.89
3.55
5.22
6.98
8.00
7.77
6.18
3.51
0.28
-2.87
-5.44
-7.20
-8.29
-9.18
-10.45
-12.55
-15.57
-19.20
-22.80
-25.71
-27.49
-28.16
-28.18
-28.17
-28.74
-30.28
-32.95
-36.61
-40.60
-43.48
-42.99
-36.74
-23.23
-3.05
20.79
43.53
60.40
68.43
67.46
59.76
48.64
36.81
25.58
15.05
4.99
-4.29
-11.80
-16.49
-18.04
-17.32
-16.17
-16.60
-19.85
-25.81
-33.01
-39.29
-42.75
-42.46
-38.84
-33.33
-27.77
-23.65
-21.62
-21.37
-21.96
-22.25
-21.44
-19.30
-16.26
-13.06
-10.49
-9.02
-8.63
-8.96
-9.51
-9.88
-9.92
-9.58
-8.84
-7.64
-6.00
-4.06
-2.11
-0.31
1.51
3.93
7.72
13.37
20.60
28.30
34.85
38.74
39.23
36.60
32.03
26.96
22.54
19.19
16.73
14.64
12.59
10.70
9.49
9.58
11.33
14.58
18.57
22.29
24.68
25.08
23.30
19.71
15.03
10.14
5.78
2.28
-0.38
-2.44
-4.07
-5.15
-5.36
-4.41
-2.40
0.06
1.97
2.36
0.69
-2.97
-7.97
-13.25
-17.56
-19.69
-18.65
-13.98
-6.00
4.02
14.08
22.00
26.16
26.16
22.86
17.99
13.30
9.89
7.86
6.56
5.16
3.10
0.33
-2.84
-5.98
-8.75
-10.91
-12.38
-13.15
-13.28
-13.00
-12.57
-12.23
-12.07
-12.08
-12.27
-12.78
-13.85
-15.68
-18.21
-20.95
-23.22
-24.33
-23.97
-22.36
-20.22
-18.56
-18.32
-20.00
-23.30
-27.11
-29.75
-29.63
-25.93
-18.98
-10.23
-1.66
5.00
8.84
10.01
9.40
8.11
7.00
6.43
6.31
6.34
6.23
5.90
5.54
5.50
6.17
7.73
10.06
12.75
15.22
16.99
17.89
18.06
17.83
17.52
17.24
16.83
16.01
14.57
12.42
9.83
7.28
5.38
4.55
4.83
5.77
6.73
7.03
6.12
3.75
0.15
-4.02
-7.82
-10.26
-10.66
-8.67
-4.62
0.45
5.06
7.79
7.76
4.85
-0.36
-6.94
-13.33
-18.29
-21.37
-23.06
-24.32
-25.95
-28.39
-31.65
-35.75
-39.56
-42.26
-43.82
-44.96
-46.31
-47.89
-49.31
-50.19
-51.09
-51.04
-49.27
-45.90
-41.92
-38.32
-35.36
-32.56
-28.69
-23.01
-12.10
6.89
34.62
69.13
107.29
146.51
185.32
223.71
247.45
246.28
219.32
176.33
129.76
87.68
53.03
25.84
9.92
2.68
4.75
16.92
37.81
63.21
87.76
107.46
115.90
111.64
95.74
73.91
52.30
34.92
22.65
14.25
7.95
2.29
-3.07
-9.03
-14.97
-20.46
-25.62
-30.94
-36.60
-42.16
-46.91
-49.89
-51.39
-51.58
-51.09
-50.85
-51.75
-54.21
-58.01
-62.51
-66.59
-69.47
-70.30
-68.64
-64.62
-58.97
-52.83
-47.35
-43.45
-41.41
-41.07
-41.80
-42.74
-43.02
-41.96
-39.28
-35.10
-29.84
-23.93
-17.70
-11.25
-4.46
2.84
10.67
18.92
27.46
36.21
45.06
53.58
60.77
65.23
65.84
62.47
56.44
50.17
46.14
45.73
48.45
52.28
54.76
54.36
51.40
47.88
46.54
49.48
56.97
67.19
76.97
83.09
83.66
78.81
70.16
59.43
47.21
32.99
16.26
-2.10
-19.41
-32.67
-41.09
-47.70
-58.55
-79.20
-111.08
-150.04
-188.25
-218.42
-237.20
-246.06
-249.08
-249.94
-249.94
-248.42
-244.57
-238.93
-233.47
-229.99
-228.31
-225.58
-217.14
-198.58
-167.93
-126.75
-79.70
-32.98
7.78
39.45
62.22
78.70
92.11
104.42
115.74
125.01
131.29
134.48
135.03
133.08
128.06
119.26
106.96
93.14
81.02
73.55
71.87
74.80
79.61
83.57
85.15
83.98
80.04
72.90
61.65
45.93
26.88
7.31
-9.24
-20.02
-24.24
-23.20
-19.50
-15.89
-14.31
-15.59
-19.49
-25.09
-31.03
-35.74
-37.89
-36.82
-32.96
-27.62
-22.30
-18.01
-14.89
-12.43
-10.05
-7.64
-5.58
-4.51
-4.91
-6.70
-9.30
-11.82
-13.46
-13.52
-11.70
-8.21
-3.86
0.23
3.04
4.02
3.40
1.78
0.37
1.02
6.32
19.30
42.53
76.62
118.97
163.79
203.18
230.71
244.11
246.00
242.01
237.40
234.14
229.99
220.04
198.68
163.15
114.85
58.62
0.63
-53.61
-100.35
-137.68
-164.89
-182.90
-192.36
-193.53
-186.84
-174.20
-159.29
-147.22
-143.19
-143.10
-142.77
-138.13
-127.19
-110.27
-89.82
-68.83
-50.01
-34.73
-22.57
-13.16
-5.83
-0.35
3.19
4.02
2.48
-0.39
-3.12
-4.27
-4.06
-3.37
-4.40
-8.01
-15.82
-28.37
-45.17
-63.96
-80.41
-89.51
-86.42
-68.77
-35.33
5.45
43.60
71.49
86.23
89.90
86.99
82.17
78.26
76.09
74.86
74.51
75.18
76.37
77.27
74.79
66.54
51.94
32.84
12.52
-4.75
-15.77
-19.49
-17.02
-11.09
-4.58
0.16
1.84
0.08
-4.04
-8.69
-11.86
-12.11
-9.29
-4.37
0.87
4.56
5.47
3.73
0.06
-3.99
-6.90
-7.89
-6.99
-4.90
-2.51
-0.50
0.87
1.60
1.74
1.18
-0.28
-2.66
-5.56
-8.22
-9.72
-9.36
-7.14
-3.78
-0.72
0.54
-0.92
-4.87
-10.00
-14.44
-16.64
-16.16
-13.84
-11.40
-10.54
-12.14
-15.75
-19.79
-22.45
-22.38
-19.46
-14.58
-9.38
-5.38
-3.77
-5.49
-11.33
-21.36
-33.95
-45.22
-49.87
-43.46
-25.21
0.68
26.23
43.20
46.99
38.66
23.89
9.58
0.28
-3.52
-4.41
-5.65
-8.79
-13.11
-16.61
-17.73
-16.30
-13.46
-11.00
-10.34
-11.92
-15.07
-18.45
-20.51
-20.01
-16.23
-9.10
0.98
13.25
26.74
40.31
52.60
62.13
67.49
67.62
62.24
52.02
38.65
24.47
11.85
2.57
-2.64
-4.17
-3.16
-0.97
1.18
2.51
2.57
1.21
-1.60
-5.63
-10.41
-15.24
-19.38
-22.34
-24.03
-24.71
-24.78
-24.56
-24.15
-23.52
-22.60
-21.46
-20.22
-19.00
-17.76
-16.29
-14.31
-11.67
-8.43
-4.90
-1.50
1.28
3.09
3.70
3.11
1.53
-0.58
-2.56
-3.76
-3.67
-2.11
0.78
4.56
8.75
12.87
16.52
19.41
21.27
22.01
21.67
20.52
18.93
17.28
15.76
14.40
13.11
11.81
10.54
9.45
8.69
8.31
8.22
8.24
8.06
7.44
6.21
4.33
1.99
-0.53
-2.85
-4.74
-6.13
-7.16
-8.05
-8.95
-9.83
-10.57
-10.96
-10.85
-10.13
-8.77
-6.80
-4.39
-1.85
0.41
2.04
3.02
