1659460810.00
64.000000
-0.00
-0.00
-0.00
-0.00
-0.00
-0.00
-0.00
-0.00
-0.00
-0.00
0.00
0.01
0.01
-0.00
-0.03
-0.05
-0.05
0.00
0.13
0.36
0.66
1.01
1.37
1.72
2.06
2.40
2.79
3.24
3.80
4.42
5.06
5.66
6.20
6.68
7.15
7.68
8.31
9.14
10.09
11.04
11.88
12.56
13.14
13.76
14.65
15.96
17.91
20.32
22.90
25.38
27.58
29.57
31.68
34.32
37.81
42.54
48.15
54.11
59.83
64.97
69.59
74.15
79.34
85.70
93.75
103.00
112.63
121.77
129.82
136.79
143.28
150.62
157.51
166.24
177.43
191.21
206.37
219.98
227.66
224.74
207.83
176.04
131.80
78.99
21.98
-36.01
-93.46
-150.18
-206.36
-261.73
-315.43
-365.89
-412.08
-453.23
-488.75
-517.87
-539.38
-551.68
-553.07
-542.36
-519.12
-484.28
-439.78
-388.27
-332.63
-275.47
-218.84
-164.13
-112.19
-63.46
-18.43
22.36
58.24
88.53
112.75
130.84
143.28
151.05
155.40
157.44
157.95
157.21
155.09
151.27
145.49
137.60
127.53
115.49
102.20
89.35
79.45
75.15
78.15
88.15
102.57
117.42
128.78
134.20
133.44
128.00
119.96
110.97
101.79
92.52
83.21
74.37
66.55
60.18
55.24
51.24
47.40
43.04
37.87
32.11
26.34
21.21
17.19
14.41
12.59
11.24
9.82
8.00
5.78
3.42
1.32
-0.16
-0.92
-1.13
-1.11
-1.23
-1.68
-2.43
-3.32
-4.14
-4.77
-5.17
-5.31
-5.14
-4.62
-3.78
-2.80
-2.00
-1.67
-1.97
-2.77
-3.81
-4.71
-5.25
-5.39
-5.20
-4.78
-4.19
-3.44
-2.57
-1.67
-0.90
-0.42
-0.26
-0.37
-0.63
-0.96
-1.35
-1.83
-2.38
-2.91
-3.29
-3.39
-3.21
-2.82
-2.34
-1.87
-1.48
-1.18
-0.97
-0.85
-0.81
-0.78
-0.68
-0.38
0.13
0.82
1.54
2.20
2.74
3.22
3.74
4.39
5.21
6.17
7.15
8.00
8.63
8.96
9.00
8.82
8.48
8.03
7.43
6.61
5.43
3.80
1.79
-0.41
-2.53
-4.40
-5.93
-7.19
-8.29
-9.28
-10.10
-10.64
-10.79
-10.59
-10.15
-9.62
-9.12
-8.65
-8.16
-7.58
-6.90
-6.19
-5.51
-4.95
-4.54
-4.26
-4.09
-4.01
-3.99
-3.97
-3.89
-3.65
-3.24
-2.68
-2.10
-1.60
-1.31
-1.29
-1.51
-1.87
-2.24
-2.44
-2.31
-1.75
-0.76
0.51
1.80
2.84
3.43
3.51
3.23
2.83
2.53
2.41
2.42
2.40
2.23
1.88
1.41
0.98
0.70
0.60
0.63
0.67
0.64
0.45
0.11
-0.38
-0.96
-1.57
-2.13
-2.59
-2.93
-3.19
-3.42
-3.69
-4.00
-4.29
-4.50
-4.58
-4.51
-4.36
-4.17
-3.99
-3.80
-3.59
-3.37
-3.17
-3.01
-2.84
-2.54
-1.93
-0.89
0.59
2.34
4.08
5.58
6.67
7.38
7.83
8.20
8.55
8.82
8.91
8.71
8.24
7.62
6.99
6.41
5.81
5.05
3.99
2.61
1.05
-0.48
-1.76
-2.73
-3.41
-3.92
-4.33
-4.67
-4.87
-4.87
-4.67
-4.33
-4.00
-3.83
-3.94
-4.31
-4.82
-5.27
-5.49
-5.39
-4.99
-4.43
-3.88
-3.43
-3.04
-2.58
-1.86
-0.77
0.66
2.22
3.62
4.61
5.06
4.98
4.50
3.76
2.88
1.98
1.16
0.53
0.21
0.22
0.52
0.96
1.31
1.38
1.04
0.31
-0.70
-1.79
-2.75
-3.39
-3.68
-3.68
-3.58
-3.57
-3.78
-4.20
-4.68
-5.05
-5.18
-5.06
-4.78
-4.52
-4.41
-4.53
-4.86
-5.33
-5.83
-6.19
-6.19
-5.64
-4.43
-2.66
-0.59
1.36
2.87
3.81
4.28
4.53
4.74
4.95
5.02
4.75
4.08
3.13
2.20
1.58
1.42
1.66
2.04
2.28
2.20
1.78
1.21
0.68
0.36
0.27
0.32
0.39
0.39
0.33
0.26
0.25
0.29
0.35
0.35
0.26
0.12
0.01
0.03
0.19
0.44
0.70
0.90
1.07
1.37
1.98
3.06
4.59
6.38
8.10
9.48
10.36
10.79
10.96
11.01
10.99
10.79
10.26
9.33
8.05
6.60
5.16
3.85
2.66
1.53
0.39
-0.78
-1.93
-3.01
-4.03
-5.02
-6.05
-7.17
-8.32
-9.42
-10.37
-11.12
-11.69
-12.16
-12.57
-12.98
-13.40
-13.85
-14.36
-14.98
-15.73
-16.58
-17.45
-18.26
-18.90
-19.30
-19.42
-19.24
-18.76
-17.99
-16.98
-15.75
-14.34
-12.70
-10.75
-8.41
-5.67
-2.62
0.58
3.74
6.72
9.48
12.06
14.47
16.67
18.49
19.69
20.12
19.77
18.82
17.56
16.26
15.05
13.96
12.93
11.91
10.92
10.01
9.23
8.55
7.87
7.12
6.25
5.29
4.28
3.27
2.23
1.11
-0.11
-1.39
-2.57
-3.42
-3.70
-3.27
-2.16
-0.62
0.99
2.30
3.11
3.41
3.36
3.18
3.01
2.90
2.76
2.55
2.26
1.97
1.75
1.63
1.57
1.41
1.07
0.48
-0.27
-1.05
-1.67
-2.02
-2.09
-1.97
-1.84
-1.81
-1.92
-2.12
-2.30
-2.43
-2.53
-2.69
-3.00
-3.49
-4.09
-4.70
-5.27
-5.78
-6.28
-6.76
-7.11
-7.18
-6.77
-5.83
-4.48
-3.01
-1.71
-0.80
-0.28
0.02
0.31
0.70
1.13
1.42
1.40
1.06
0.60
0.30
0.40
0.94
1.72
2.45
2.86
2.92
2.73
2.51
2.43
2.57
2.89
3.34
3.85
4.43
5.05
5.68
6.24
6.65
6.91
7.09
7.34
7.75
8.27
8.69
8.72
8.17
7.08
5.70
4.42
3.59
3.31
3.47
3.83
4.12
4.22
4.16
4.02
3.87
3.65
3.20
2.36
1.08
-0.46
-1.93
-2.97
-3.37
-3.16
-2.63
-2.13
-1.89
-1.93
-2.02
-1.89
-1.42
-0.68
0.05
0.47
0.42
-0.06
-0.77
-1.45
-1.90
-2.06
-1.98
-1.77
-1.59
-1.56
-1.75
-2.19
-2.86
-3.65
-4.37
-4.81
-4.77
-4.15
-3.02
-1.54
0.04
1.47
2.58
3.32
3.77
4.06
4.33
4.65
5.03
5.38
5.65
5.82
5.91
5.97
6.04
6.11
6.21
6.35
6.61
7.00
7.47
7.86
8.02
7.80
7.18
6.22
4.99
3.55
1.97
0.37
-1.04
-2.07
-2.68
-3.01
-3.33
-3.86
-4.60
-5.40
-6.05
-6.53
-7.00
-7.70
-8.75
-9.95
-10.89
-11.17
-10.68
-9.68
-8.60
-7.85
-7.55
-7.56
-7.62
-7.54
-7.30
-7.06
-6.96
-7.04
-7.19
-7.28
-7.19
-6.91
-6.51
-6.03
-5.48
-4.83
-4.06
-3.22
-2.40
-1.69
-1.11
-0.62
-0.09
0.54
1.22
1.80
2.06
1.90
1.31
0.44
-0.52
-1.35
-1.94
-2.24
-2.26
-2.01
-1.54
-0.89
-0.19
0.44
0.90
1.15
1.22
1.13
0.89
0.50
-0.04
-0.65
-1.18
-1.44
-1.35
-0.94
-0.42
0.02
0.21
0.19
0.06
-0.04
-0.03
0.08
0.24
0.39
0.52
0.67
0.90
1.23
1.67
2.15
2.59
2.92
3.12
3.28
3.51
3.90
4.48
5.22
6.11
7.15
8.40
9.85
11.41
12.84
13.86
14.19
13.68
12.34
10.29
7.76
5.01
2.35
0.05
-1.73
-2.97
-3.81
-4.42
-4.94
-5.33
-5.48
-5.27
-4.66
-3.80
-2.90
-2.19
-1.81
-1.76
-1.94
-2.20
-2.40
-2.51
-2.51
-2.49
-2.56
-2.77
-3.16
-3.64
-4.13
-4.51
-4.72
-4.76
-4.61
-4.25
-3.63
-2.72
-1.53
-0.22
1.05
2.11
2.89
3.41
3.73
3.90
3.89
3.66
3.24
2.73
2.28
2.05
2.03
2.14
2.19
2.04
1.64
1.02
0.25
-0.61
-1.52
-2.45
-3.30
-3.92
-4.18
-4.09
-3.80
-3.60
-3.77
-4.46
-5.58
-6.94
-8.26
-9.37
-10.15
-10.55
-10.50
-9.91
-8.77
-7.17
-5.33
-3.56
-2.09
-0.99
-0.15
0.61
1.38
2.13
2.69
2.86
2.61
2.07
1.51
1.23
1.41
2.04
2.95
3.93
4.76
5.30
5.49
5.32
4.86
4.26
3.69
3.31
3.20
3.35
3.66
4.04
4.41
4.71
4.85
4.76
4.33
3.58
2.62
1.72
1.22
1.38
2.29
3.81
5.61
7.30
8.55
9.20
9.28
8.98
8.54
8.15
7.87
7.65
7.36
6.86
6.08
5.06
3.93
2.85
1.95
1.22
0.57
-0.16
-1.08
-2.20
-3.45
-4.69
-5.87
-6.92
-7.81
-8.46
-8.80
-8.74
-8.28
-7.52
-6.68
-5.97
-5.52
-5.37
-5.39
-5.40
-5.18
-4.59
-3.51
-1.90
0.15
2.44
4.61
6.27
7.10
6.98
6.08
4.77
3.46
2.41
1.64
0.99
0.31
-0.41
-1.01
-1.36
-1.41
-1.33
-1.38
-1.73
-2.37
-3.09
-3.61
-3.76
-3.56
-3.17
-2.78
-2.51
-2.36
-2.27
-2.12
-1.84
-1.41
-0.85
-0.24
0.32
0.70
0.82
0.65
0.23
-0.34
-0.94
-1.47
-1.90
-2.17
-2.21
-1.90
-1.22
-0.24
0.80
1.57
1.86
1.65
1.16
0.70
0.52
0.67
1.00
1.29
1.40
1.33
1.17
1.01
0.82
0.48
-0.10
-0.91
-1.79
-2.46
-2.71
-2.46
-1.84
-1.10
-0.51
-0.25
-0.33
-0.64
-1.02
-1.38
-1.73
-2.14
-2.72
-3.51
-4.43
-5.35
-6.10
-6.55
-6.64
-6.40
-5.94
-5.34
-4.72
-4.15
-3.70
-3.40
-3.26
-3.30
-3.54
-4.00
-4.72
-5.69
-6.84
-8.04
-9.15
-10.07
-10.81
-11.42
-12.00
-12.62
-13.25
-13.79
-14.12
-14.13
-13.73
-12.91
-11.67
-9.97
-7.80
-5.11
-1.97
1.47
5.00
8.38
11.39
13.90
15.82
17.08
17.64
17.50
16.75
15.57
14.26
13.16
12.52
12.44
12.80
13.34
13.79
13.96
13.80
13.33
12.68
11.91
11.10
10.28
9.44
8.59
7.71
6.80
5.85
4.83
3.77
2.72
1.76
0.98
0.44
0.16
0.11
0.20
0.29
0.19
-0.26
-1.17
-2.46
-3.90
-5.17
-5.98
-6.23
-6.03
-5.65
-5.41
-5.46
-5.76
-6.09
-6.20
-5.93
-5.33
-4.60
-3.96
-3.53
-3.33
-3.24
-3.11
-2.84
-2.36
-1.73
-1.12
-0.75
-0.88
-1.65
-3.02
-4.71
-6.26
-7.28
-7.62
-7.52
-7.57
-8.43
-10.54
-13.84
-17.70
-21.18
-23.40
-24.02
-23.50
-23.06
-24.15
-27.86
-34.17
-41.87
-48.99
-53.60
-54.80
-53.12
-50.34
-48.70
-50.13
-55.62
-64.93
-76.53
-87.58
-94.19
-91.96
-77.12
-47.95
-6.26
42.29
89.24
125.82
145.92
148.26
136.70
118.61
102.10
93.11
94.08
104.02
119.75
137.36
152.96
162.57
161.97
147.07
115.52
68.72
12.79
-42.49
-86.65
-112.29
-117.62
-106.52
-86.27
-64.18
-44.89
-29.65
-17.34
-6.31
4.10
13.31
20.16
24.02
25.27
25.25
25.57
27.33
30.68
34.70
37.79
38.43
35.88
30.57
23.92
17.67
13.03
10.14
8.06
5.32
0.63
-6.46
-15.36
-24.68
-32.67
-37.90
-39.59
-37.92
-33.92
-29.10
-24.97
-22.45
-21.61
-21.79
-22.09
-21.89
-21.10
-20.13
-19.49
-19.45
-19.95
-20.65
-21.22
-21.40
-21.03
-19.97
-18.02
-15.07
-11.23
-6.98
-3.00
0.06
1.83
2.34
1.90
0.86
-0.50
-1.98
-3.41
-4.49
-4.91
-4.41
-3.03
-1.11
0.78
2.11
2.60
2.32
1.58
0.76
0.15
-0.16
-0.21
-0.14
-0.07
-0.09
-0.21
-0.41
-0.64
-0.83
-0.92
-0.89
-0.79
-0.64
-0.53
-0.49
-0.55
-0.70
-0.94
-1.25
-1.61
-1.98
-2.29
-2.47
-2.45
-2.21
-1.79
-1.28
-0.79
-0.42
-0.20
-0.11
-0.08
-0.02
0.14
0.44
0.86
1.31
1.67
1.86
1.84
1.65
1.39
1.11
0.88
0.69
0.56
0.49
0.51
0.62
0.78
0.89
0.89
0.71
0.38
-0.08
-0.60
-1.12
-1.59
-1.95
-2.15
-2.21
-2.23
-2.33
-2.59
-2.99
-3.33
-3.38
-2.90
-1.87
-0.44
1.08
2.34
3.08
3.23
2.92
2.38
1.90
1.64
1.65
1.81
1.99
2.09
2.10
2.04
1.96
1.82
1.53
1.03
0.31
-0.52
-1.26
-1.76
-1.96
-1.93
-1.85
-1.87
-2.11
-2.58
-3.23
-3.99
-4.80
-5.62
-6.42
-7.17
-7.79
-8.20
-8.30
-8.07
-7.49
-6.64
-5.56
-4.28
-2.80
-1.19
0.43
1.82
2.76
3.11
2.92
2.43
1.94
1.70
1.78
2.10
2.49
2.82
3.04
3.23
3.50
3.91
4.39
4.81
5.02
4.93
4.59
4.10
3.59
3.16
2.83
2.59
2.40
2.22
2.04
1.81
1.43
0.83
0.01
-0.92
-1.70
-2.07
-1.82
-0.96
0.35
1.78
3.02
3.80
4.05
3.85
3.41
2.94
2.64
2.56
2.68
2.87
3.05
3.18
3.25
3.29
3.25
3.03
2.52
1.70
0.72
-0.15
-0.64
-0.60
-0.15
0.43
0.79
0.73
0.30
-0.29
-0.80
-1.09
-1.21
-1.30
-1.51
-1.86
-2.29
-2.69
-3.01
-3.23
-3.37
-3.36
-3.08
-2.42
-1.38
-0.14
0.98
1.69
1.89
1.69
1.35
1.10
1.05
1.11
1.13
1.05
0.93
0.88
0.98
1.19
1.38
1.43
1.40
1.44
1.68
2.14
2.59
2.76
2.46
1.74
0.89
0.23
0.00
0.17
0.47
0.59
0.29
-0.53
-1.75
-3.15
-4.44
-5.35
-5.67
-5.30
-4.29
-2.87
-1.36
-0.04
0.88
1.42
1.72
1.99
2.36
2.79
3.12
3.17
2.82
2.14
1.29
0.50
-0.11
-0.53
-0.86
-1.23
-1.71
-2.26
-2.74
-3.04
-3.06
-2.83
-2.43
-2.03
-1.75
-1.66
-1.79
-2.09
-2.50
-2.98
-3.50
-4.05
-4.63
-5.21
-5.77
-6.29
-6.70
-6.92
-6.82
-6.32
-5.41
-4.24
-3.06
-2.14
-1.66
-1.61
-1.82
-2.04
-2.05
-1.73
-1.10
-0.31
0.41
0.79
0.62
-0.17
-1.41
-2.66
-3.39
-3.26
-2.34
-1.24
-0.85
-1.95
-4.71
-8.46
-11.89
-13.68
-13.20
-10.95
-8.41
-7.39
-9.15
-13.74
-19.88
-25.59
-29.04
-29.41
-27.33
-24.52
-23.16
-25.13
-31.40
-41.74
-54.57
-66.87
-74.51
-73.17
-59.70
-33.95
0.11
34.52
59.34
66.14
51.41
18.27
-24.53
-66.07
-97.57
-115.10
-119.64
-114.71
-103.31
-86.26
-62.76
-32.59
1.98
35.96
63.78
82.12
91.61
96.36
101.32
109.42
120.02
129.64
134.03
130.72
120.11
105.13
89.70
77.08
68.92
65.14
64.52
65.43
66.48
66.71
65.59
62.94
58.87
53.66
47.72
41.49
35.33
29.44
23.87
18.54
13.35
8.24
3.23
-1.55
-5.98
-9.97
-13.53
-16.77
-19.80
-22.62
-25.06
-26.81
-27.66
-27.69
-27.35
-27.35
-28.25
-30.12
-32.41
-34.17
-34.54
-33.13
-30.19
-26.52
-23.03
-20.44
-19.10
-18.98
-19.78
-20.99
-22.03
-22.40
-21.84
-20.47
-18.65
-16.79
-15.05
-13.25
-11.05
-8.32
-5.30
-2.58
-0.75
-0.06
-0.26
-0.85
-1.37
-1.72
-2.05
-2.61
-3.43
-4.31
-4.96
-5.23
-5.18
-4.98
-4.72
-4.24
-3.30
-1.84
-0.21
0.81
0.29
-2.38
-7.17
-13.24
-19.24
-23.64
-25.31
-23.77
-19.40
-13.23
-6.71
-1.35
1.67
1.73
-1.02
-5.77
-11.27
-16.21
-19.53
-20.62
-19.37
-16.17
-11.92
-7.89
-5.37
-5.15
-6.90
-9.02
-9.05
-4.67
5.20
19.67
36.05
50.68
60.17
62.43
57.11
45.55
30.22
14.08
-0.17
-10.67
-16.89
-19.66
-20.79
-22.19
-24.97
-28.84
-32.24
-33.05
-29.69
-21.87
-10.84
1.19
11.91
19.72
24.07
25.31
24.20
21.55
18.07
14.43
11.35
9.43
8.88
9.39
10.22
10.62
10.32
9.67
9.48
10.48
12.91
16.40
20.24
23.71
26.28
27.62
27.33
24.90
19.92
12.36
2.86
-7.36
-16.82
-24.17
-28.47
-29.20
-26.23
-19.81
-10.67
-0.10
10.17
18.38
23.29
24.52
22.62
18.68
13.94
9.39
5.74
3.47
2.90
4.08
6.69
9.87
12.45
13.31
11.86
8.33
3.68
-0.91
-4.51
-6.89
-8.53
-10.23
-12.71
-16.19
-20.35
-24.42
-27.56
-29.12
-28.81
-26.74
-23.40
-19.49
-15.79
-12.93
-11.22
-10.60
-10.67
-10.95
-11.11
-11.05
-10.84
-10.55
-10.15
-9.51
-8.52
-7.29
-6.12
-5.37
-5.27
-5.74
-6.46
-7.03
-7.21
-7.08
-6.93
-7.13
-7.90
-9.27
-11.07
-12.99
-14.70
-15.91
-16.44
-16.16
-15.07
-13.25
-10.85
-8.08
-5.14
-2.21
0.56
2.97
4.75
5.68
5.65
4.92
4.13
4.13
5.55
8.42
12.01
15.06
16.34
15.27
12.24
8.43
5.23
3.61
3.69
4.77
5.69
5.37
3.33
-0.09
-3.84
-6.47
-6.74
-4.07
1.02
6.89
11.17
11.45
6.27
-4.14
-17.55
-30.11
-37.52
-36.44
-25.68
-6.74
16.66
39.66
57.67
67.41
67.50
58.60
43.09
24.57
7.08
-5.94
-12.64
-13.32
-10.16
-6.26
-4.23
-5.31
-9.20
-14.69
-20.55
-25.86
-29.91
-31.67
-29.78
-22.99
-11.15
4.10
19.55
31.66
38.01
38.45
34.90
30.26
26.90
25.65
25.83
26.00
24.96
22.34
18.56
14.41
10.52
7.12
4.07
0.93
-2.91
-8.11
-15.28
-24.58
-35.42
-46.37
-55.35
-60.30
-59.92
-54.23
-44.56
-33.13
-22.16
-13.20
-6.69
-2.07
1.69
5.54
9.89
14.58
19.11
23.01
26.09
28.38
30.02
31.06
31.39
30.76
28.81
25.07
19.06
10.60
0.20
-10.67
-19.76
-24.70
-24.07
-18.16
-9.14
-0.16
5.89
7.57
5.37
1.34
-1.74
-1.20
4.93
17.64
36.73
60.69
86.71
111.01
129.75
140.07
141.03
133.93
121.84
108.63
97.77
91.56
90.71
94.58
101.52
109.48
116.50
121.09
122.27
119.84
114.48
107.31
99.49
91.71
84.15
76.68
69.19
61.54
53.98
47.15
41.84
38.63
37.61
38.45
40.61
43.44
45.52
45.50
42.48
36.28
27.34
16.64
5.62
-4.09
-11.06
-16.52
-22.19
-29.07
-36.88
-44.54
-51.03
-55.63
-58.04
-58.32
-60.76
-68.99
-83.77
-102.62
-122.18
-140.23
-156.09
-169.88
-181.69
-197.46
-221.66
-254.33
-290.93
-326.06
-356.47
-381.51
-401.88
-418.12
-438.46
-469.34
-511.60
-560.23
-608.98
-654.21
-695.33
-733.24
-718.42
-621.93
-451.43
-249.25
-60.57
90.27
199.50
273.66
321.70
353.13
367.84
365.18
347.88
323.00
296.43
272.75
252.33
232.50
211.87
185.08
150.60
113.24
82.95
68.87
74.71
102.77
141.93
178.85
200.96
203.82
191.32
172.05
153.46
139.03
128.30
118.82
110.27
102.27
95.08
89.27
86.49
86.56
88.86
92.32
95.10
96.18
94.05
87.24
75.03
58.09
38.34
18.50
0.99
-13.11
-23.14
-29.00
-31.02
-29.67
-26.27
-22.09
-18.19
-15.50
-14.72
-15.69
-17.56
-19.27
-19.90
-19.04
-16.78
-13.53
-9.98
-6.94
-4.99
-4.44
-5.30
-7.28
-9.91
-12.69
-15.21
-17.34
-19.09
-20.47
-21.30
-21.22
-19.87
-17.08
-13.08
-8.46
-3.95
-0.16
2.69
4.69
6.16
7.46
8.82
10.36
12.12
14.10
16.28
18.60
20.99
23.33
25.51
27.39
28.85
29.78
30.07
29.69
28.65
27.08
25.17
23.06
20.86
18.63
16.42
14.33
12.47
10.90
9.59
8.49
7.56
6.85
6.45
6.29
6.02
5.05
2.78
-1.10
-6.31
-12.09
-17.52
-21.99
-25.46
-28.32
-31.01
-33.63
-35.77
-36.77
-36.15
-33.97
-30.79
-27.35
-24.14
-21.12
-17.82
-13.78
-8.89
-3.62
1.26
5.05
7.46
8.80
9.68
10.77
12.51
14.95
17.86
20.84
23.54
25.70
27.19
27.99
28.16
27.80
27.08
26.16
25.18
24.21
23.19
22.03
20.66
19.09
17.44
15.87
14.42
12.99
11.31
9.11
6.23
2.68
-1.37
-5.62
-9.73
-13.44
-16.54
-18.99
-20.99
-22.93
-25.30
-28.47
-32.45
-36.87
-41.08
-44.42
-46.44
-46.99
-46.13
-44.10
-41.21
-37.92
-34.76
-32.26
-30.76
-30.21
-30.20
-30.06
-29.13
-26.95
-23.47
-18.97
-13.96
-9.12
-5.05
-2.27
-1.06
-1.32
-2.58
-4.02
-4.73
-4.00
-1.52
2.53
7.64
13.12
18.41
23.19
27.45
31.42
35.43
39.69
44.23
48.81
52.99
56.25
58.17
58.50
57.30
54.89
51.76
48.51
45.70
43.81
43.10
43.53
44.71
45.93
46.22
44.73
40.93
34.85
27.09
18.62
10.43
3.22
-2.71
-7.45
-11.31
-14.65
-17.83
-21.22
-25.30
-30.51
-37.08
-44.74
-52.64
-59.58
-64.43
-66.61
-66.22
-63.95
-60.63
-56.97
-53.30
-49.76
-46.42
-43.36
-40.61
-37.95
-34.90
-30.84
-25.38
-18.70
-11.60
-5.26
-0.76
1.44
1.66
0.90
0.37
1.08
3.44
7.33
12.16
17.20
21.85
25.76
28.90
31.54
34.15
37.20
41.04
45.61
50.42
54.64
57.42
58.23
57.18
55.08
53.18
52.72
54.46
58.34
63.53
68.71
72.57
74.18
73.11
69.40
63.38
55.52
46.39
36.69
27.19
18.60
11.40
5.67
1.09
-2.94
-7.09
-11.97
-17.98
-25.25
-33.65
-42.75
-52.00
-60.76
-68.57
-75.06
-80.03
-83.30
-84.76
-84.49
-82.78
-80.13
-77.03
-73.69
-69.93
-65.17
-58.79
-50.50
-40.59
-29.96
-19.80
-11.21
-4.85
-0.79
1.38
2.42
3.15
4.39
6.79
10.70
16.19
22.86
30.02
36.81
42.53
46.84
49.89
52.22
54.42
56.95
59.85
62.81
65.25
66.59
66.40
64.64
61.66
58.14
54.84
52.32
50.71
49.76
49.01
48.00
46.49
44.33
41.36
37.29
31.73
24.43
15.51
5.58
-4.35
-13.22
-20.25
-25.20
-28.40
-30.57
-32.64
-35.40
-39.38
-44.73
-51.21
-58.29
-65.25
-71.36
-75.98
-78.67
-79.33
-78.14
-75.55
-72.19
-68.71
-65.63
-63.15
-61.10
-58.85
-55.50
-50.18
-42.48
-32.69
-21.80
-11.22
-2.26
4.29
8.35
10.55
11.94
13.64
16.63
21.46
28.19
36.34
45.01
53.11
59.75
64.41
67.15
68.45
68.93
69.16
69.43
69.79
69.99
69.63
68.21
65.35
60.97
55.44
49.47
43.90
39.38
36.17
34.20
33.20
32.83
32.73
32.42
31.16
28.12
22.60
14.45
4.29
-6.55
-16.47
-24.15
-29.08
-31.64
-33.01
-34.61
-37.67
-42.82
-49.95
-58.35
-67.00
-74.88
-81.19
-85.50
-87.76
-88.21
-87.33
-85.65
-83.64
-81.51
-79.04
-75.53
-69.85
-60.79
-47.71
-31.09
-12.82
4.11
16.69
23.06
23.31
19.48
14.61
11.51
11.69
15.14
20.81
27.40
33.96
40.03
45.42
49.89
53.09
54.71
54.75
53.63
52.05
50.71
50.08
50.19
50.80
51.46
51.86
51.86
51.51
50.97
50.32
49.49
48.32
46.58
44.04
40.60
36.19
30.91
24.87
18.13
10.55
1.61
-9.40
-23.07
-39.27
-56.89
-73.92
-88.10
-97.77
-102.51
-103.18
-101.42
-98.74
-95.92
-92.91
-89.30
-84.80
-79.65
-74.45
-69.80
-65.96
-62.76
-59.68
-55.98
-50.72
-42.78
-31.24
-15.80
2.72
22.51
41.28
57.18
69.25
77.45
82.05
83.34
81.91
78.91
75.95
73.96
72.12
67.55
56.70
37.61
11.71
-16.18
-40.04
-55.47
-61.50
-60.17
-54.52
-46.53
-36.43
-23.67
-8.45
7.57
21.99
33.19
41.33
48.16
55.76
65.31
76.35
87.10
95.20
98.67
96.62
89.45
78.85
67.43
57.98
52.60
51.96
55.03
59.64
63.41
64.83
63.73
61.05
58.05
55.60
53.83
52.47
51.39
50.93
51.85
54.81
59.97
66.80
74.38
81.74
88.24
93.57
97.68
100.63
102.44
103.20
103.03
102.15
100.81
99.22
97.63
96.34
95.73
96.16
97.84
100.67
103.95
106.37
106.08
101.01
89.41
70.28
43.59
10.02
-29.36
-73.35
-120.33
-167.90
-212.52
-249.98
-276.35
-289.26
-288.64
-276.71
-256.98
-233.06
-207.72
-182.67
-158.80
-136.59
-116.30
-97.92
-81.14
-65.51
-50.83
-37.61
-27.07
-20.71
-19.63
-23.78
-31.81
-41.40
-50.07
-56.08
-58.76
-58.47
-56.08
-52.41
-48.06
-43.42
-39.03
-35.69
-34.38
-35.87
-40.32
-47.06
-54.75
-61.71
-66.42
-67.89
-65.90
-60.98
-54.17
-46.61
-39.21
-32.40
-26.16
-20.26
-14.53
-9.04
-4.08
-0.08
2.66
3.97
3.94
2.77
0.74
-1.80
-4.38
-6.43
-7.32
-6.65
-4.37
-0.89
3.12
6.96
10.22
12.87
15.13
17.25
19.30
21.10
22.36
22.96
23.05
23.08
23.59
24.92
27.09
29.81
32.64
35.14
36.91
37.59
36.78
34.03
29.06
21.89
13.00
3.35
-5.90
-13.65
-19.16
-22.14
-22.80
-21.66
-19.39
-16.58
-13.67
-10.87
-8.25
-5.79
-3.54
-1.65
-0.41
-0.07
-0.79
-2.54
-5.05
-7.91
-10.65
-12.85
-14.28
-14.95
-15.13
-15.20
-15.43
-15.68
-15.42
-13.89
-10.58
-5.58
0.28
5.74
9.67
11.56
11.70
10.95
10.18
9.82
9.71
9.39
8.49
7.03
5.34
3.74
2.19
0.17
-2.92
-7.25
-12.16
-16.29
-18.11
-16.67
-12.03
-5.12
2.84
10.92
18.77
26.41
33.80
40.50
45.73
48.76
49.22
47.33
43.70
38.96
33.59
27.79
21.70
15.53
9.56
4.05
-0.79
-4.89
-8.21
-10.72
-12.34
-12.99
-12.67
-11.53
-9.85
-7.95
-6.22
-4.98
-4.54
-5.11
-6.80
-9.50
-12.87
-16.30
-19.01
-20.31
-19.76
-17.37
-13.67
-9.52
-5.94
-3.70
-3.09
-3.86
-5.25
-6.41
-6.65
-5.78
-4.14
-2.40
-1.28
-1.16
-1.94
-3.08
-3.85
-3.68
-2.42
-0.35
1.94
3.83
4.81
4.61
3.17
0.68
-2.39
-5.25
-6.87
-6.30
-3.05
2.69
9.96
17.36
23.54
27.66
29.58
29.79
29.01
27.89
26.72
25.53
24.15
22.48
20.57
18.59
16.82
15.49
14.67
14.31
14.19
14.08
13.72
12.94
11.61
9.72
7.33
4.64
1.95
-0.37
-1.93
-2.47
-1.88
-0.26
2.08
4.64
6.87
8.27
8.59
7.85
6.36
4.51
2.65
0.90
-0.79
-2.54
-4.38
-6.11
-7.37
-7.74
-6.99
-5.15
-2.59
0.17
2.59
4.27
5.08
5.13
4.70
4.11
3.59
3.18
2.79
2.31
1.70
1.06
0.52
0.20
0.07
0.02
-0.14
-0.47
-0.92
-1.35
-1.62
-1.72
-1.74
-1.81
-2.00
-2.29
-2.60
-2.82
-2.96
-3.11
-3.39
-3.89
-4.61
-5.36
-5.87
-5.77
-4.78
-2.82
-0.07
3.06
6.02
8.32
9.71
10.22
10.08
9.58
8.94
8.16
7.17
5.86
4.24
2.47
0.77
-0.63
-1.58
-2.08
-2.20
-2.07
-1.82
-1.60
-1.54
-1.78
-2.41
-3.44
-4.78
-6.27
-7.70
-8.88
-9.66
-9.96
-9.82
-9.42
-9.05
-9.06
-9.69
-10.95
-12.56
-14.01
-14.73
-14.36
-12.84
-10.43
-7.60
-4.88
-2.67
-1.22
-0.58
-0.64
-1.20
-2.04
-2.98
-3.92
-4.86
-5.81
-6.73
-7.53
-8.08
-8.27
-8.10
-7.62
-6.94
-6.15
-5.31
-4.45
-3.66
-3.05
-2.78
-2.95
-3.53
-4.37
-5.18
-5.63
-5.49
-4.69
-3.36
-1.87
-0.70
-0.30
-0.92
-2.46
-4.44
-6.08
-6.59
-5.47
-2.76
0.98
4.82
7.83
9.44
9.58
8.62
7.14
5.69
4.58
3.88
3.51
3.35
3.32
3.37
3.43
3.40
3.16
2.65
1.94
1.21
0.68
0.52
0.72
1.14
1.50
1.57
1.26
0.66
-0.01
-0.50
-0.66
-0.53
-0.33
-0.38
-1.00
-2.30
-4.11
-6.00
-7.35
-7.54
-6.21
-3.35
0.66
5.15
9.35
12.61
14.61
15.34
15.12
14.41
13.68
13.23
13.13
13.31
13.57
13.78
13.92
14.06
14.35
14.86
15.56
16.33
17.03
17.57
17.86
17.86
17.45
16.49
14.87
12.58
9.81
6.87
4.14
1.91
0.29
-0.78
-1.51
-2.09
-2.65
-3.13
-3.35
-3.07
-2.12
-0.48
1.67
4.00
6.14
7.78
8.73
8.95
8.52
7.57
6.26
4.70
3.01
1.31
-0.33
-1.85
-3.23
-4.45
-5.52
-6.43
-7.13
-7.57
-7.70
-7.52
-7.10
-6.59
-6.14
-5.87
-5.78
-5.78
-5.69
-5.40
-4.88
-4.27
-3.78
-3.63
-4.01
-4.97
-6.41
-8.10
-9.65
-10.62
-10.61
-9.38
-6.98
-3.78
-0.42
2.43
4.27
4.91
4.51
3.43
2.04
0.61
-0.74
-1.98
-3.05
-3.82
-4.09
-3.70
-2.60
-0.87
1.26
3.48
5.45
6.87
7.56
7.48
6.77
5.63
4.30
2.86
1.37
-0.19
-1.73
-3.05
-3.86
-4.02
-3.63
-3.05
-2.81
-3.35
-4.73
-6.66
-8.54
-9.70
-9.65
-8.26
-5.80
-2.83
0.02
2.18
3.38
3.60
3.07
2.13
1.06
0.01
-1.01
-2.02
-3.04
-4.05
-4.95
-5.71
-6.38
-7.09
-7.99
-9.13
-10.46
-11.79
-12.90
-13.66
-14.05
-14.17
-14.11
-13.94
-13.60
-13.01
-12.13
-10.97
-9.71
-8.59
-7.88
-7.82
-8.53
-9.93
-11.72
-13.39
-14.31
-13.94
-11.99
-8.58
-4.18
0.46
4.61
7.68
9.44
9.99
9.67
8.94
8.22
7.76
7.68
7.95
8.45
9.07
9.67
10.12
10.32
10.20
9.76
9.05
8.22
7.42
6.80
6.46
6.35
6.38
6.38
6.18
5.68
4.84
3.69
2.28
0.69
-1.05
-2.89
-4.80
-6.70
-8.47
-9.90
-10.72
-10.67
-9.50
-7.16
-3.81
0.15
4.20
7.81
10.65
12.64
13.99
14.99
15.88
16.67
17.11
16.76
15.24
12.49
8.83
4.92
1.56
-0.65
-1.45
-0.97
0.38
2.11
3.81
5.17
6.03
6.34
6.22
5.90
5.73
6.01
6.85
8.08
9.17
9.44
8.24
5.22
0.53
-5.16
-10.70
-14.81
-16.48
-15.29
-11.59
-6.43
-1.14
3.08
5.51
6.08
5.18
3.50
1.69
0.20
-0.74
-1.14
-1.18
-1.16
-1.43
-2.22
-3.41
-4.51
-4.69
-3.16
0.52
6.14
12.84
19.41
24.68
27.86
28.67
27.30
24.21
19.96
15.17
10.40
6.18
2.87
0.60
-0.76
-1.60
-2.37
-3.42
-4.84
-6.46
-7.90
-8.72
-8.64
-7.65
-6.01
-4.19
-2.62
-1.58
-1.14
-1.15
-1.40
-1.80
-2.32
-3.01
-3.89
-4.88
-5.77
-6.36
-6.54
-6.33
-5.91
-5.46
-5.06
-4.71
-4.31
-3.79
-3.19
-2.67
-2.39
-2.49
-2.92
-3.50
-3.99
-4.19
-4.06
-3.70
-3.33
-3.19
-3.41
-4.01
-4.88
-5.85
-6.61
-6.85
-6.29
-4.76
-2.36
0.52
3.35
5.58
6.91
7.38
7.25
6.90
6.54
6.16
5.56
4.56
3.11
1.39
-0.31
-1.70
-2.62
-3.09
-3.22
-3.17
-3.03
-2.86
-2.65
-2.39
-2.09
-1.83
-1.75
-1.96
-2.51
-3.38
-4.41
-5.38
-6.10
-6.48
-6.54
-6.42
-6.34
-6.49
-7.02
-7.94
-9.11
-10.15
-10.62
-10.09
-8.37
-5.62
-2.34
0.80
3.23
4.64
5.09
4.89
4.39
3.79
3.11
2.24
1.05
-0.46
-2.18
-3.91
-5.50
-6.91
-8.20
-9.41
-10.45
-11.16
-11.29
-10.67
-9.33
-7.52
-5.63
-4.12
-3.35
-3.50
-4.57
-6.31
-8.31
-10.07
-11.15
-11.26
-10.39
-8.83
-7.08
-5.69
-5.08
-5.37
-6.36
-7.53
-8.28
-8.07
-6.65
-4.13
-0.92
2.37
5.14
6.98
7.73
7.54
6.74
5.73
4.86
4.31
4.13
4.29
4.65
5.08
5.45
5.61
5.43
4.88
4.03
3.10
2.34
1.94
1.95
2.20
2.46
2.47
2.13
1.51
0.81
0.27
0.12
0.44
1.18
2.16
3.06
3.50
3.22
2.11
0.36
-1.54
-2.91
-3.14
-1.81
1.06
5.04
9.38
13.27
16.05
17.45
17.58
16.89
15.97
15.32
15.15
15.38
15.71
15.82
15.50
14.71
13.58
12.33
11.21
10.43
10.13
10.31
10.80
11.27
11.33
10.68
9.18
6.95
4.35
1.84
-0.13
-1.26
-1.43
-0.80
0.30
1.38
1.96
1.65
0.38
-1.60
-3.71
-5.21
-5.48
-4.21
-1.56
1.96
5.64
8.86
11.31
13.03
14.28
15.37
16.42
17.35
17.98
18.09
17.67
16.91
16.19
15.97
16.64
18.34
20.93
23.97
26.94
29.42
31.29
32.78
34.29
36.18
38.51
41.05
43.40
45.38
47.19
49.31
52.13
55.56
58.82
60.64
59.75
55.17
46.22
32.33
12.96
-12.10
-41.92
-73.93
-103.92
-127.10
-139.72
-140.45
-130.83
-114.53
-95.75
-77.80
-62.34
-49.59
-39.06
-30.28
-23.04
-17.32
-13.04
-9.87
-7.36
-5.14
-3.05
-1.25
-0.09
0.08
-0.84
-2.68
-4.98
-7.21
-8.94
-9.98
-10.49
-10.82
-11.46
-12.78
-14.94
-17.80
-20.99
-24.06
-26.62
-28.48
-29.65
-30.25
-30.27
-29.49
-27.53
-24.05
-19.01
-12.90
-6.71
-1.60
1.44
1.98
0.26
-2.93
-6.53
-9.62
-11.62
-12.41
-12.20
-11.40
-10.41
-9.51
-8.82
-8.38
-8.15
-8.16
-8.39
-8.80
-9.20
-9.30
-8.81
-7.58
-5.71
-3.58
-1.66
-0.38
0.16
0.09
-0.25
-0.61
-0.90
-1.25
-1.88
-2.98
-4.53
-6.32
-7.94
-8.86
-8.60
-6.84
-3.52
1.05
6.26
11.32
15.53
18.43
19.90
20.16
19.56
18.47
17.17
15.80
14.42
12.98
11.43
9.74
7.96
6.22
4.76
3.82
3.55
3.94
4.79
5.82
6.72
7.30
7.51
7.38
7.02
6.54
6.04
5.60
5.28
5.11
5.08
5.11
5.04
4.73
4.09
3.17
2.25
1.75
2.17
3.85
6.74
10.42
14.14
17.18
19.08
19.87
19.97
19.99
20.38
21.29
22.51
23.64
24.23
24.01
22.90
21.01
18.58
15.92
13.29
10.89
8.82
7.08
5.66
4.52
3.63
2.96
2.44
2.01
1.57
1.09
0.55
-0.01
-0.52
-0.95
-1.38
-1.93
-2.77
-4.00
-5.55
-7.11
-8.22
-8.41
-7.34
-5.00
-1.71
1.94
5.31
7.84
9.32
9.80
9.57
8.96
8.15
7.18
5.97
4.45
2.73
1.07
-0.19
-0.83
-0.86
-0.51
-0.13
-0.05
-0.40
-1.15
-2.12
-3.12
-4.01
-4.73
-5.29
-5.75
-6.19
-6.67
-7.19
-7.70
-8.12
-8.37
-8.46
-8.49
-8.61
-8.91
-9.35
-9.70
-9.60
-8.70
-6.80
-3.99
-0.62
2.74
5.49
7.21
7.72
7.18
5.97
4.58
3.36
2.49
1.93
1.53
1.11
0.58
-0.03
-0.70
-1.42
-2.24
-3.25
-4.48
-5.80
-6.95
-7.62
-7.60
-6.90
-5.79
-4.77
-4.30
-4.70
-5.97
-7.78
-9.68
-11.26
-12.35
-13.08
-13.81
-14.92
-16.56
-18.60
-20.63
-22.09
-22.46
-21.42
-18.99
-15.44
-11.31
-7.24
-3.80
-1.40
-0.15
0.06
-0.48
-1.47
-2.63
-3.75
-4.67
-5.25
-5.40
-5.15
-4.65
-4.20
-4.09
-4.56
-5.59
-6.93
-8.19
-8.89
-8.73
-7.68
-5.94
-3.95
-2.17
-0.98
-0.53
-0.78
-1.52
-2.44
-3.26
-3.80
-4.02
-4.07
-4.23
-4.79
-5.88
-7.33
-8.69
-9.40
-8.96
-7.16
-4.11
-0.23
3.88
7.66
10.68
12.76
13.91
14.32
14.17
13.61
12.74
11.62
10.35
9.11
8.11
7.51
7.30
7.33
7.41
7.37
7.23
7.11
7.16
7.47
7.96
8.40
8.47
7.93
6.72
5.02
3.25
1.85
1.18
1.29
1.96
2.72
3.09
2.73
1.57
-0.11
-1.79
-2.84
-2.70
-1.11
1.86
5.77
10.02
13.99
17.22
19.50
20.89
21.60
21.90
22.03
22.05
21.88
21.33
20.24
18.60
16.56
14.42
12.43
10.65
8.93
7.05
4.92
2.77
1.05
0.28
0.77
2.48
5.04
7.88
10.44
12.31
13.21
13.03
11.72
9.33
6.01
1.98
-2.43
-6.79
-10.57
-13.14
-13.95
-12.71
-9.60
-5.30
-0.78
2.99
5.44
6.51
6.60
6.22
5.79
5.41
4.99
4.36
3.46
2.31
1.05
-0.18
-1.29
-2.26
-3.15
-4.02
-4.88
-5.63
-6.14
-6.28
-6.04
-5.54
-5.09
-4.96
-5.31
-6.09
-7.05
-7.86
-8.29
-8.30
-8.06
-7.86
-8.07
-8.91
-10.44
-12.44
-14.45
-15.82
-15.93
-14.41
-11.28
-6.98
-2.24
2.16
5.60
7.81
8.84
9.01
8.72
8.27
7.78
7.23
6.50
5.53
4.30
2.94
1.61
0.42
-0.59
-1.50
-2.41
-3.39
-4.41
-5.36
-6.15
-6.71
-7.07
-7.31
-7.55
-7.84
-8.21
-8.59
-8.91
-9.07
-9.00
-8.70
-8.24
-7.78
-7.57
-7.86
-8.77
-10.18
-11.71
-12.76
-12.78
-11.44
-8.82
-5.43
-1.98
0.80
2.47
2.93
2.43
1.36
0.12
-1.03
-1.97
-2.74
-3.44
-4.16
-4.96
-5.84
-6.77
-7.69
-8.56
-9.37
-10.10
-10.67
-10.96
-10.84
-10.25
-9.29
-8.28
-7.59
-7.51
-8.07
-8.99
-9.84
-10.24
-10.08
-9.49
-8.80
-8.31
-8.16
-8.32
-8.64
-8.90
-8.89
-8.42
-7.24
-5.21
-2.37
1.02
4.48
7.44
9.51
10.54
10.70
10.37
9.91
9.56
9.32
9.04
8.54
7.74
6.68
5.53
4.47
3.61
2.96
2.47
2.09
1.79
1.60
1.50
1.48
1.46
1.31
0.94
0.29
-0.63
-1.65
-2.47
-2.69
-1.99
-0.31
2.05
4.42
6.01
6.25
5.02
2.74
0.26
-1.49
-1.79
-0.33
2.69
6.72
11.04
14.93
17.91
19.77
20.56
20.55
20.06
19.36
18.59
17.76
16.84
15.82
14.77
13.82
13.15
12.88
13.10
13.84
15.09
16.79
18.76
20.68
22.09
22.51
21.58
19.25
15.85
12.00
8.41
5.63
3.84
2.86
2.26
1.57
0.45
-1.12
-2.90
-4.46
-5.38
-5.41
-4.53
-3.02
-1.31
0.17
1.15
1.64
1.88
2.19
2.85
3.92
5.15
6.14
6.45
5.80
4.19
1.90
-0.60
-2.89
-4.70
-5.93
-6.60
-6.77
-6.56
-6.10
-5.65
-5.50
-5.89
-6.88
-8.27
-9.60
-10.40
-10.41
-9.66
-8.52
-7.51
-7.11
-7.59
-8.97
-11.05
-13.40
-15.45
-16.54
-16.15
-14.04
-10.44
-5.99
-1.56
2.09
4.54
5.83
6.36
6.64
7.06
7.73
8.51
9.11
9.23
8.69
7.50
5.81
3.87
1.90
0.04
-1.63
-3.04
-4.05
-4.47
-4.19
-3.29
-2.08
-1.06
-0.70
-1.25
-2.64
-4.47
-6.23
-7.55
-8.27
-8.51
-8.56
-8.72
-9.20
-10.04
-11.15
-12.22
-12.84
-12.57
-11.09
-8.40
-4.88
-1.25
1.70
3.39
3.69
2.96
1.82
0.84
0.31
0.17
0.12
-0.21
-1.09
-2.63
-4.81
-7.44
-10.23
-12.78
-14.68
-15.61
-15.44
-14.32
-12.64
-10.91
-9.65
-9.25
-9.87
-11.40
-13.49
-15.61
-17.18
-17.77
-17.24
-15.84
-14.09
-12.53
-11.60
-11.42
-11.85
-12.53
-13.03
-12.87
-11.66
-9.17
-5.47
-1.01
3.46
7.11
9.37
10.17
9.91
9.25
8.79
8.77
9.13
9.59
9.89
9.89
9.55
8.86
7.78
6.28
4.44
2.48
0.80
-0.19
-0.24
0.58
1.86
2.95
3.26
2.45
0.63
-1.60
-3.46
-4.25
-3.70
-2.11
-0.17
1.30
1.70
0.84
-1.01
-3.25
-5.18
-6.18
-5.80
-3.87
-0.50
3.85
8.46
12.50
15.26
16.40
16.05
14.79
13.40
12.52
12.39
12.82
13.24
13.07
11.98
10.03
7.68
5.57
4.25
4.02
4.84
6.39
8.22
9.89
11.05
11.54
11.37
10.67
9.69
8.71
8.04
7.92
8.46
9.52
10.66
11.32
10.93
9.23
6.45
3.27
0.60
-0.80
-0.62
0.93
3.23
5.63
7.63
9.03
9.89
10.32
10.43
10.20
9.58
8.49
6.94
4.98
2.75
0.42
-1.76
-3.54
-4.69
-5.08
-4.76
-3.94
-2.93
-2.05
-1.50
-1.41
-1.76
-2.52
-3.57
-4.75
-5.86
-6.65
-6.87
-6.42
-5.39
-4.14
-3.11
-2.71
-3.09
-3.99
-4.83
-4.87
-3.57
-0.82
3.00
7.11
10.69
13.17
14.41
14.64
14.29
13.68
12.95
12.04
10.84
9.33
7.64
5.93
4.34
2.85
1.31
-0.45
-2.47
-4.60
-6.51
-7.88
-8.51
-8.50
-8.17
-8.00
-8.35
-9.35
-10.83
-12.40
-13.70
-14.56
-15.08
-15.61
-16.54
-18.17
-20.54
-23.46
-26.48
-29.05
-30.63
-30.79
-29.45
-26.85
-23.65
-20.72
-18.94
-18.88
-20.63
-23.82
-27.79
-31.91
-35.85
-39.67
-43.74
-48.54
-54.30
-60.94
-68.02
-74.92
-81.11
-86.35
-90.84
-95.12
-99.88
-105.64
-112.46
-119.90
-127.13
-133.36
-138.39
-142.85
-148.21
-156.13
-167.58
-181.96
-196.74
-207.84
-210.81
-202.28
-181.22
-149.28
-109.95
-67.25
-24.08
18.61
61.70
107.07
156.51
210.98
270.29
333.08
396.84
457.77
511.07
551.52
574.41
576.89
558.69
522.08
471.17
410.71
344.70
275.93
206.26
137.89
74.33
20.30
-20.18
-46.27
-61.98
-75.23
-94.64
-125.30
-165.85
-209.05
-245.42
-268.12
-276.04
-273.75
-268.31
-265.19
-265.78
-267.50
-265.98
-258.10
-243.68
-225.71
-209.25
-199.04
-197.13
-201.91
-208.63
-211.34
-205.45
-189.16
-163.68
-132.23
-98.77
-67.00
-40.09
-20.20
-7.92
-1.44
3.92
14.96
38.40
78.07
132.59
195.11
255.44
303.51
332.67
341.51
333.43
314.72
292.14
270.72
252.91
238.68
226.48
214.07
199.43
181.24
158.92
132.71
103.71
73.99
46.81
26.12
15.23
15.05
23.11
34.01
41.69
41.86
33.41
17.95
-1.64
-22.45
-41.64
-55.91
-61.52
-55.61
-38.35
-14.06
9.75
25.70
30.18
24.89
15.33
7.31
4.06
5.40
9.27
13.95
19.04
25.04
32.24
39.84
46.25
50.19
51.46
51.13
51.03
52.81
57.20
63.66
70.41
74.80
73.89
65.31
48.19
23.69
-5.07
-33.83
-58.65
-77.21
-89.40
-96.87
-101.98
-106.58
-111.45
-116.40
-120.84
-124.32
-126.73
-128.14
-128.46
-127.37
-124.40
-119.31
-112.36
-104.34
-96.32
-89.25
-83.52
-78.83
-74.44
-69.67
-64.43
-59.33
-55.41
-53.40
-53.33
-54.48
-55.84
-56.53
-56.18
-54.91
-53.08
-51.11
-49.30
-48.02
-47.68
-48.42
-49.67
-49.92
-47.25
-40.36
-29.59
-16.74
-4.42
4.96
10.32
12.31
12.68
13.22
14.58
15.99
16.48
15.70
13.75
11.24
8.86
7.09
6.22
6.24
6.92
9.19
14.37
22.52
32.22
41.07
46.86
48.87
48.16
46.71
48.10
55.15
66.99
79.17
84.15
74.04
45.86
4.16
-45.00
-93.73
-131.07
-148.44
-141.75
-112.36
-66.69
-13.14
42.77
90.52
122.75
139.68
146.60
149.92
153.75
158.25
161.44
159.76
148.50
125.61
94.27
56.56
16.61
-20.25
-50.80
-73.56
-88.96
-99.08
-105.35
-108.84
-111.87
-117.86
-121.47
-121.33
-117.35
-109.98
-100.07
-87.54
-72.08
-54.73
-37.44
-22.32
-12.42
-9.22
-11.34
-15.98
-19.86
-20.91
-18.99
-16.53
-14.89
-17.13
-26.19
-42.42
-63.57
-84.79
-99.73
-102.27
-88.66
-59.11
-15.82
29.34
65.24
86.18
92.91
90.39
84.60
79.64
77.10
76.38
76.28
77.22
79.78
84.27
87.83
87.04
79.49
65.20
46.62
27.43
11.90
2.69
0.00
1.83
5.64
9.21
11.40
11.96
10.96
9.21
7.64
6.97
7.25
8.36
9.72
10.45
9.63
6.58
1.53
-4.64
-10.76
-15.86
-19.36
-21.21
-21.79
-21.64
-21.28
-20.95
-20.70
-20.50
-20.33
-20.10
-19.72
-19.10
-18.12
-16.76
-15.04
-13.16
-11.46
-10.34
-10.11
-10.82
-12.22
-13.80
-14.95
-15.25
-14.60
-13.23
-11.58
-10.08
-8.97
-8.28
-7.91
-7.66
-7.43
-7.12
-6.69
-6.17
-5.63
-5.22
-5.07
-5.19
-5.41
-5.42
-4.97
-4.02
-2.85
-1.95
-1.78
-2.53
-3.98
-5.65
-7.01
-7.76
-7.95
-7.92
-8.06
-8.63
-9.63
-10.84
-11.89
-12.45
-12.34
-11.55
-10.21
-8.55
-6.81
-5.17
-3.79
-2.71
-1.89
-1.22
-0.55
0.24
1.13
1.91
2.27
1.89
0.71
-0.91
-2.21
-2.35
-0.81
2.31
6.21
9.76
11.97
12.35
11.05
8.65
5.88
3.32
1.40
0.38
0.40
1.39
3.01
4.62
5.52
5.21
3.54
0.74
-2.72
-6.35
-9.72
-12.44
-14.15
-14.51
-13.39
-10.94
-7.66
-4.22
-1.23
0.98
2.38
3.27
4.00
4.93
6.21
7.79
9.43
10.74
11.40
11.17
9.98
7.96
5.36
2.52
-0.25
-2.68
-4.63
-6.11
-7.21
-8.06
-8.76
-9.34
-9.77
-10.00
-10.12
-10.28
-10.68
-11.54
-12.92
-14.78
-16.98
-19.30
-21.55
-23.51
-25.10
-26.32
-27.27
-28.06
-28.75
-29.24
-29.33
-28.84
-27.71
-26.16
-24.60
-23.57
-23.47
-24.40
-26.16
-28.29
-30.25
-31.57
-31.96
-31.32
-29.71
-27.30
