1660939814.00
64.000000
-0.00
-0.00
-0.00
-0.00
-0.00
-0.00
-0.00
-0.00
-0.00
-0.00
0.00
0.01
0.01
-0.00
-0.03
-0.05
-0.05
0.00
0.13
0.36
0.66
1.01
1.37
1.72
2.06
2.40
2.79
3.25
3.81
4.44
5.10
5.73
6.32
6.89
7.50
8.24
9.14
10.29
11.58
12.88
14.05
15.05
15.95
16.95
18.29
20.12
22.65
25.66
28.84
31.89
34.65
37.25
40.05
43.53
48.02
53.86
60.63
67.75
74.61
80.93
86.86
93.05
100.31
109.16
120.05
132.28
144.88
156.88
167.82
177.97
188.30
200.38
212.94
228.03
245.85
266.11
287.38
306.89
320.75
324.89
316.40
294.47
261.12
219.55
173.39
125.49
77.54
30.34
-15.50
-59.16
-99.80
-136.69
-170.31
-201.92
-233.31
-266.08
-300.83
-336.63
-370.69
-399.03
-417.43
-422.99
-415.29
-396.59
-370.90
-342.51
-314.48
-288.14
-263.37
-239.51
-216.37
-194.44
-174.51
-157.05
-141.81
-127.86
-114.12
-99.93
-85.29
-70.94
-57.86
-46.84
-38.06
-31.06
-25.00
-19.06
-12.76
-6.15
0.32
6.08
10.71
14.08
16.41
18.10
19.55
21.03
22.59
24.10
25.35
26.18
26.57
26.62
26.51
26.39
26.30
26.20
25.98
25.58
25.01
24.32
23.58
22.83
22.07
21.27
20.42
19.58
18.82
18.20
17.72
17.33
16.94
16.50
16.00
15.51
15.11
14.82
14.62
14.42
14.15
13.77
13.32
12.88
12.53
12.27
12.05
11.80
11.47
11.08
10.69
10.39
10.22
10.17
10.14
10.05
9.82
9.45
8.99
8.50
8.05
7.68
7.40
7.20
7.05
6.91
6.71
6.40
5.95
5.34
4.67
3.99
3.41
2.96
2.65
2.45
2.29
2.11
1.82
1.41
0.86
0.20
-0.53
-1.26
-1.94
-2.53
-2.98
-3.30
-3.55
-3.84
-4.28
-4.98
-5.90
-6.89
-7.75
-8.33
-8.62
-8.76
-8.94
-9.25
-9.65
-9.97
-10.02
-9.75
-9.24
-8.69
-8.25
-7.95
-7.70
-7.36
-6.88
-6.31
-5.74
-5.24
-4.80
-4.32
-3.72
-3.01
-2.30
-1.71
-1.31
-1.04
-0.78
-0.41
0.12
0.71
1.25
1.65
1.91
2.11
2.35
2.65
2.97
3.21
3.31
3.27
3.18
3.14
3.19
3.30
3.42
3.46
3.43
3.37
3.36
3.44
3.58
3.74
3.87
3.98
4.08
4.18
4.28
4.35
4.37
4.35
4.34
4.41
4.60
4.87
5.14
5.32
5.35
5.24
5.07
4.91
4.80
4.72
4.59
4.36
4.02
3.60
3.19
2.88
2.70
2.65
2.71
2.82
2.96
3.09
3.17
3.17
3.08
2.94
2.80
2.72
2.72
2.78
2.87
2.97
3.04
3.10
3.11
3.02
2.78
2.41
1.98
1.62
1.45
1.52
1.76
2.03
2.20
2.18
1.98
1.65
1.31
1.01
0.78
0.62
0.51
0.45
0.44
0.51
0.65
0.83
1.02
1.17
1.27
1.33
1.39
1.46
1.57
1.68
1.74
1.68
1.47
1.12
0.70
0.34
0.14
0.13
0.27
0.49
0.72
0.93
1.15
1.39
1.62
1.70
1.53
1.07
0.44
-0.15
-0.45
-0.35
0.12
0.73
1.27
1.57
1.63
1.55
1.45
1.37
1.29
1.09
0.76
0.35
0.01
-0.09
0.10
0.52
0.98
1.33
1.47
1.44
1.36
1.30
1.30
1.33
1.35
1.34
1.34
1.36
1.38
1.37
1.27
1.07
0.83
0.63
0.55
0.62
0.81
1.05
1.23
1.28
1.16
0.93
0.67
0.49
0.43
0.50
0.61
0.64
0.51
0.23
-0.10
-0.34
-0.42
-0.31
-0.11
0.06
0.10
-0.02
-0.27
-0.52
-0.69
-0.67
-0.48
-0.17
0.17
0.45
0.64
0.79
0.93
1.10
1.27
1.40
1.45
1.44
1.42
1.43
1.46
1.42
1.25
0.91
0.47
0.08
-0.13
-0.12
0.08
0.34
0.55
0.64
0.60
0.45
0.24
0.03
-0.14
-0.22
-0.21
-0.11
-0.00
0.05
-0.01
-0.14
-0.30
-0.41
-0.43
-0.34
-0.15
0.11
0.37
0.59
0.76
0.87
0.92
0.94
0.92
0.84
0.69
0.49
0.30
0.23
0.31
0.52
0.73
0.82
0.73
0.52
0.28
0.13
0.07
0.06
0.02
-0.09
-0.22
-0.29
-0.24
-0.07
0.13
0.25
0.25
0.14
-0.01
-0.11
-0.10
0.02
0.20
0.37
0.48
0.51
0.48
0.42
0.36
0.28
0.16
-0.01
-0.23
-0.43
-0.52
-0.43
-0.18
0.17
0.51
0.73
0.79
0.70
0.54
0.38
0.28
0.26
0.30
0.38
0.46
0.50
0.50
0.45
0.42
0.47
0.66
0.95
1.25
1.42
1.37
1.08
0.65
0.21
-0.13
-0.33
-0.40
-0.39
-0.35
-0.28
-0.21
-0.15
-0.15
-0.24
-0.39
-0.55
-0.62
-0.55
-0.34
-0.07
0.18
0.30
0.25
0.03
-0.26
-0.51
-0.62
-0.53
-0.27
0.05
0.30
0.40
0.36
0.23
0.12
0.08
0.13
0.26
0.42
0.62
0.85
1.07
1.23
1.27
1.13
0.87
0.60
0.42
0.38
0.42
0.42
0.26
-0.06
-0.47
-0.80
-0.93
-0.79
-0.45
-0.05
0.25
0.36
0.25
-0.00
-0.31
-0.57
-0.73
-0.74
-0.60
-0.36
-0.05
0.24
0.44
0.53
0.49
0.36
0.19
-0.02
-0.24
-0.46
-0.62
-0.69
-0.63
-0.45
-0.23
-0.04
0.10
0.20
0.31
0.46
0.59
0.64
0.57
0.38
0.17
0.04
0.06
0.19
0.35
0.46
0.48
0.42
0.34
0.27
0.24
0.24
0.23
0.19
0.13
0.05
-0.02
-0.07
-0.08
-0.06
-0.05
-0.02
0.03
0.13
0.31
0.55
0.78
0.90
0.82
0.49
-0.01
-0.57
-1.01
-1.19
-1.08
-0.77
-0.38
-0.07
0.06
0.01
-0.16
-0.35
-0.50
-0.56
-0.53
-0.41
-0.24
-0.05
0.11
0.18
0.16
0.05
-0.07
-0.12
-0.05
0.10
0.24
0.30
0.23
0.09
-0.01
-0.01
0.11
0.26
0.35
0.32
0.19
0.04
-0.07
-0.13
-0.22
-0.38
-0.60
-0.76
-0.73
-0.44
0.06
0.60
1.01
1.15
1.05
0.80
0.51
0.25
0.05
-0.14
-0.37
-0.62
-0.88
-1.09
-1.25
-1.38
-1.57
-1.92
-2.44
-3.08
-3.72
-4.21
-4.47
-4.52
-4.49
-4.57
-4.91
-5.53
-6.35
-7.20
-7.92
-8.39
-8.60
-8.60
-8.54
-8.58
-8.95
-9.81
-11.23
-13.15
-15.32
-17.39
-19.01
-20.06
-20.68
-21.37
-22.78
-25.48
-29.73
-35.36
-41.80
-48.43
-54.82
-61.02
-67.51
-74.91
-83.57
-93.31
-103.37
-112.82
-120.96
-127.76
-133.94
-140.64
-148.97
-159.63
-172.69
-187.63
-203.35
-218.08
-229.45
-234.66
-231.22
-217.66
-194.13
-162.31
-124.73
-83.66
-40.23
5.58
53.97
104.05
153.01
196.46
229.92
250.68
258.98
257.82
251.59
244.18
237.69
232.27
227.19
222.07
217.66
215.60
217.39
223.33
232.13
241.42
248.86
253.27
255.02
255.82
257.67
261.80
268.21
275.66
282.24
285.98
285.26
278.93
266.22
246.78
220.76
188.92
152.48
112.73
70.53
25.99
-21.11
-70.48
-120.41
-167.43
-207.10
-235.45
-250.55
-253.23
-246.59
-234.64
-220.71
-206.57
-192.57
-178.49
-164.44
-151.16
-139.69
-130.58
-123.50
-117.28
-110.59
-102.61
-93.36
-83.65
-74.62
-67.13
-61.47
-57.27
-53.75
-50.09
-45.74
-40.63
-35.17
-29.94
-25.50
-22.09
-19.59
-17.58
-15.61
-13.38
-10.86
-8.27
-5.95
-4.19
-3.05
-2.42
-2.04
-1.69
-1.21
-0.65
-0.09
0.34
0.57
0.65
0.68
0.75
0.88
0.99
0.97
0.76
0.37
-0.11
-0.54
-0.81
-0.87
-0.77
-0.53
-0.24
0.04
0.24
0.29
0.18
-0.09
-0.39
-0.62
-0.68
-0.58
-0.39
-0.23
-0.19
-0.21
-0.23
-0.15
0.07
0.35
0.59
0.67
0.56
0.28
-0.07
-0.36
-0.53
-0.57
-0.51
-0.44
-0.42
-0.48
-0.64
-0.85
-1.10
-1.36
-1.62
-1.87
-2.11
-2.29
-2.35
-2.29
-2.14
-1.96
-1.83
-1.77
-1.69
-1.47
-0.98
-0.15
0.98
2.31
3.71
5.05
6.24
7.17
7.68
7.63
6.92
5.60
3.87
2.03
0.39
-0.83
-1.53
-1.73
-1.51
-0.99
-0.30
0.43
0.99
1.24
1.04
0.42
-0.50
-1.51
-2.41
-3.06
-3.42
-3.49
-3.30
-2.84
-2.13
-1.17
-0.10
0.93
1.71
2.10
2.06
1.66
1.01
0.23
-0.54
-1.20
-1.62
-1.73
-1.51
-1.06
-0.55
-0.14
0.05
0.04
-0.12
-0.38
-0.76
-1.32
-2.10
-3.05
-4.03
-4.87
-5.43
-5.69
-5.73
-5.69
-5.62
-5.50
-5.17
-4.44
-3.20
-1.52
0.39
2.25
3.84
5.12
6.20
7.22
8.24
9.16
9.76
9.81
9.23
8.10
6.59
4.95
3.37
1.98
0.86
0.07
-0.35
-0.38
-0.09
0.46
1.14
1.86
2.49
2.90
2.98
2.65
1.93
0.92
-0.21
-1.29
-2.20
-2.89
-3.35
-3.59
-3.64
-3.50
-3.20
-2.77
-2.29
-1.83
-1.47
-1.26
-1.24
-1.37
-1.56
-1.72
-1.72
-1.52
-1.14
-0.67
-0.21
0.16
0.47
0.73
0.95
1.09
1.03
0.72
0.16
-0.52
-1.16
-1.61
-1.77
-1.69
-1.46
-1.17
-0.88
-0.60
-0.31
0.02
0.33
0.56
0.64
0.61
0.57
0.70
1.15
1.93
2.91
3.84
4.46
4.63
4.35
3.77
3.02
2.21
1.37
0.51
-0.32
-1.02
-1.48
-1.62
-1.50
-1.25
-1.08
-1.09
-1.31
-1.65
-1.97
-2.22
-2.40
-2.59
-2.90
-3.32
-3.77
-4.13
-4.31
-4.27
-4.06
-3.71
-3.28
-2.79
-2.29
-1.89
-1.74
-1.91
-2.33
-2.82
-3.04
-2.75
-1.84
-0.38
1.41
3.29
5.07
6.64
7.92
8.89
9.49
9.69
9.42
8.69
7.50
5.91
4.03
1.98
-0.06
-1.90
-3.37
-4.32
-4.69
-4.54
-4.02
-3.38
-2.82
-2.51
-2.45
-2.54
-2.58
-2.39
-1.88
-1.03
0.02
1.10
2.03
2.66
2.95
2.90
2.57
2.04
1.35
0.56
-0.24
-0.91
-1.27
-1.25
-0.87
-0.26
0.36
0.84
1.09
1.12
0.99
0.73
0.31
-0.27
-1.03
-1.89
-2.73
-3.43
-3.89
-4.11
-4.14
-4.06
-3.94
-3.82
-3.70
-3.56
-3.40
-3.24
-3.13
-3.07
-2.99
-2.77
-2.21
-1.15
0.48
2.64
5.19
7.95
10.66
13.07
14.91
15.91
15.87
14.74
12.67
9.98
7.07
4.31
1.93
-0.02
-1.60
-2.88
-3.89
-4.60
-5.00
-5.14
-5.15
-5.16
-5.23
-5.26
-5.07
-4.53
-3.69
-2.80
-2.21
-2.15
-2.59
-3.24
-3.74
-3.85
-3.60
-3.27
-3.15
-3.39
-3.87
-4.32
-4.47
-4.23
-3.73
-3.17
-2.75
-2.53
-2.50
-2.58
-2.78
-3.10
-3.57
-4.11
-4.56
-4.70
-4.40
-3.65
-2.59
-1.46
-0.50
0.15
0.50
0.65
0.74
0.86
0.96
0.89
0.46
-0.47
-1.88
-3.57
-5.21
-6.47
-7.19
-7.49
-7.72
-8.39
-9.88
-12.23
-14.98
-17.36
-18.59
-18.25
-16.66
-14.78
-13.89
-15.03
-18.42
-23.31
-28.17
-31.32
-31.71
-29.43
-25.70
-22.43
-21.33
-22.99
-26.52
-29.89
-30.80
-27.88
-21.58
-14.20
-9.17
-9.87
-18.31
-34.33
-55.30
-76.51
-91.74
-94.52
-79.85
-46.25
2.64
57.72
106.24
135.42
136.82
109.44
59.98
0.17
-57.84
-105.50
-139.38
-159.99
-168.90
-166.36
-151.15
-122.39
-81.85
-34.78
11.85
52.32
84.73
111.13
135.52
160.63
186.11
208.84
224.99
232.13
230.28
221.35
207.83
191.78
174.58
157.27
140.99
126.80
115.47
107.38
102.73
101.81
104.58
109.67
113.64
111.24
97.19
68.78
27.88
-19.05
-63.27
-97.06
-116.55
-122.61
-119.49
-112.25
-104.55
-97.77
-91.66
-85.67
-79.88
-75.07
-72.08
-71.02
-71.03
-70.62
-68.47
-64.06
-57.90
-51.30
-45.67
-41.90
-39.93
-38.90
-37.57
-35.01
-30.99
-26.08
-21.27
-17.47
-15.12
-14.00
-13.46
-12.78
-11.54
-9.72
-7.64
-5.75
-4.37
-3.59
-3.28
-3.19
-3.09
-2.83
-2.39
-1.80
-1.12
-0.41
0.30
0.91
1.34
1.49
1.31
0.84
0.18
-0.52
-1.12
-1.57
-1.87
-2.09
-2.31
-2.60
-3.01
-3.58
-4.30
-5.13
-5.96
-6.65
-7.07
-7.17
-7.00
-6.78
-6.83
-7.45
-8.83
-10.93
-13.50
-16.19
-18.71
-20.99
-23.23
-25.89
-29.41
-33.98
-39.41
-45.03
-50.00
-53.65
-55.80
-57.02
-58.40
-61.16
-66.09
-73.21
-81.75
-90.59
-98.78
-106.07
-112.94
-120.22
-128.65
-138.46
-149.53
-161.45
-173.65
-185.17
-194.46
-199.37
-197.60
-187.44
-168.36
-141.15
-107.35
-68.44
-25.21
22.07
72.86
125.33
176.02
220.59
255.29
278.47
291.19
296.61
298.40
299.26
300.14
300.51
299.47
296.92
293.82
291.72
291.96
294.97
300.09
305.86
310.40
311.58
307.26
295.63
275.59
247.15
211.44
170.17
124.80
76.06
24.19
-30.06
-84.42
-134.79
-176.17
-204.49
-218.33
-219.53
-212.34
-201.53
-190.56
-180.71
-171.46
-161.75
-151.12
-140.16
-130.05
-121.72
-115.23
-109.74
-104.02
-97.17
-89.05
-80.26
-71.80
-64.58
-58.96
-54.74
-51.22
-47.64
-43.47
-38.61
-33.42
-28.47
-24.26
-21.03
-18.66
-16.79
-15.00
-13.02
-10.81
-8.56
-6.54
-4.99
-4.01
-3.49
-3.25
-3.03
-2.65
-2.07
-1.33
-0.58
0.08
0.54
0.79
0.84
0.74
0.54
0.32
0.14
0.07
0.14
0.37
0.69
1.04
1.32
1.47
1.47
1.31
1.04
0.70
0.36
0.07
-0.08
-0.08
0.05
0.24
0.41
0.49
0.49
0.45
0.46
0.54
0.69
0.83
0.86
0.71
0.40
-0.01
-0.43
-0.77
-0.95
-0.97
-0.82
-0.52
-0.13
0.26
0.56
0.69
0.65
0.45
0.20
-0.03
-0.16
-0.20
-0.22
-0.29
-0.42
-0.57
-0.63
-0.57
-0.39
-0.21
-0.16
-0.28
-0.53
-0.75
-0.83
-0.73
-0.54
-0.43
-0.48
-0.67
-0.88
-0.93
-0.74
-0.35
0.09
0.44
0.62
0.68
0.71
0.80
0.94
1.06
1.03
0.80
0.42
-0.01
-0.36
-0.55
-0.57
-0.50
-0.40
-0.33
-0.29
-0.26
-0.18
-0.03
0.17
0.40
0.63
0.80
0.92
0.99
1.04
1.11
1.20
1.26
1.24
1.10
0.85
0.52
0.20
-0.06
-0.26
-0.39
-0.49
-0.56
-0.58
-0.49
-0.29
0.02
0.36
0.63
0.77
0.79
0.76
0.85
1.15
1.69
2.32
2.81
2.94
2.61
1.96
1.28
0.92
1.04
1.52
1.96
1.87
0.95
-0.75
-2.85
-4.76
-6.01
-6.46
-6.33
-6.18
-6.68
-8.40
-11.56
-15.89
-20.64
-24.79
-27.42
-28.18
-27.50
-26.55
-26.72
-28.93
-33.13
-38.17
-42.29
-43.86
-42.22
-38.14
-33.59
-31.33
-33.66
-41.33
-52.58
-62.98
-66.03
-54.85
-24.35
26.32
92.30
163.42
226.43
268.77
282.13
264.79
221.69
162.46
98.31
39.03
-8.84
-42.55
-62.42
-70.66
-70.35
-64.67
-56.70
-49.08
-43.88
-42.25
-44.26
-48.86
-54.09
-57.79
-58.25
-54.80
-47.84
-38.57
-28.43
-18.67
-10.06
-2.78
3.44
9.22
15.24
21.86
28.74
34.62
37.49
35.31
26.98
13.00
-4.45
-22.14
-37.01
-47.13
-52.25
-53.55
-52.80
-51.45
-50.14
-48.80
-47.20
-45.59
-44.87
-46.38
-51.26
-59.79
-71.04
-83.12
-93.83
-101.52
-105.82
-107.79
-109.49
-113.08
-120.07
-130.72
-144.06
-158.00
-169.73
-176.09
-174.20
-162.17
-139.67
-108.11
-70.07
-28.08
16.70
64.83
117.82
176.21
237.82
296.83
345.09
374.47
379.56
359.46
317.77
261.30
198.01
135.29
78.76
31.90
-4.09
-30.24
-49.33
-64.90
-79.67
-94.22
-106.51
-112.91
-110.32
-98.12
-79.01
-58.02
-40.22
-28.54
-22.92
-21.17
-20.80
-20.70
-21.57
-24.90
-31.46
-40.75
-51.19
-61.17
-69.79
-76.46
-79.90
-77.37
-65.34
-41.17
-5.25
38.22
82.27
119.67
145.53
158.63
161.03
156.58
149.29
142.45
138.54
139.41
146.24
159.19
176.89
196.28
212.98
222.21
220.30
