1659462780.00
64.000000
-0.00
-0.00
-0.00
-0.00
-0.00
-0.00
-0.00
-0.00
-0.00
-0.00
0.00
0.01
0.01
-0.00
-0.03
-0.05
-0.05
0.00
0.13
0.36
0.66
1.01
1.37
1.72
2.06
2.40
2.79
3.24
3.80
4.42
5.06
5.66
6.20
6.68
7.15
7.68
8.31
9.14
10.09
11.04
11.88
12.56
13.14
13.76
14.65
15.96
17.91
20.32
22.90
25.38
27.58
29.57
31.68
34.32
37.82
42.54
48.15
54.11
59.83
64.97
69.58
74.15
79.37
85.75
93.81
103.03
112.58
121.57
129.46
136.30
142.73
150.11
157.12
165.99
177.29
191.09
206.17
219.64
227.19
224.22
207.37
175.74
131.67
78.94
21.82
-36.46
-94.30
-151.35
-207.64
-262.83
-316.12
-366.17
-412.21
-453.68
-490.00
-520.19
-542.62
-555.28
-556.28
-544.60
-520.28
-484.88
-440.83
-390.83
-337.28
-281.98
-226.16
-170.80
-117.03
-66.15
-19.80
20.63
54.34
81.40
102.64
119.26
132.40
142.72
150.36
155.05
156.38
154.04
147.96
138.54
127.02
115.63
107.28
104.80
109.72
121.42
137.07
152.57
164.10
169.42
168.39
162.45
153.52
143.05
131.73
119.77
107.45
95.42
84.58
75.61
68.58
63.09
58.11
52.73
46.52
39.68
32.84
26.75
21.96
18.58
16.34
14.68
13.12
11.37
9.36
7.28
5.37
3.79
2.58
1.62
0.71
-0.34
-1.56
-2.85
-4.03
-4.90
-5.35
-5.42
-5.24
-5.05
-5.02
-5.23
-5.54
-5.71
-5.51
-4.84
-3.86
-2.93
-2.40
-2.47
-3.05
-3.82
-4.44
-4.69
-4.57
-4.26
-3.98
-3.85
-3.86
-3.93
-3.99
-3.98
-3.91
-3.73
-3.38
-2.80
-2.01
-1.10
-0.27
0.29
0.49
0.36
0.03
-0.33
-0.61
-0.78
-0.90
-1.03
-1.13
-1.15
-1.02
-0.70
-0.25
0.26
0.71
1.10
1.42
1.75
2.13
2.54
2.97
3.37
3.80
4.36
5.10
5.99
6.91
7.66
8.07
8.05
7.58
6.71
5.49
4.01
2.28
0.45
-1.33
-2.86
-4.04
-4.93
-5.65
-6.35
-7.08
-7.82
-8.45
-8.87
-9.04
-8.95
-8.66
-8.21
-7.67
-7.08
-6.51
-6.02
-5.66
-5.39
-5.13
-4.81
-4.40
-3.96
-3.61
-3.41
-3.36
-3.34
-3.25
-3.01
-2.62
-2.20
-1.85
-1.70
-1.74
-1.94
-2.22
-2.49
-2.69
-2.77
-2.70
-2.48
-2.11
-1.60
-0.99
-0.33
0.33
0.91
1.33
1.53
1.49
1.19
0.66
-0.02
-0.71
-1.25
-1.55
-1.61
-1.57
-1.57
-1.73
-2.06
-2.43
-2.59
-2.40
-1.89
-1.25
-0.79
-0.72
-1.10
-1.74
-2.35
-2.69
-2.69
-2.43
-2.11
-1.93
-1.98
-2.27
-2.72
-3.27
-3.88
-4.53
-5.17
-5.67
-5.85
-5.50
-4.56
-3.10
-1.37
0.35
1.81
2.91
3.68
4.24
4.69
5.06
5.29
5.29
5.02
4.51
3.91
3.37
3.01
2.89
2.94
3.04
3.07
2.95
2.66
2.27
1.85
1.43
1.02
0.58
0.08
-0.47
-1.03
-1.50
-1.85
-2.04
-2.15
-2.29
-2.55
-2.97
-3.52
-4.06
-4.44
-4.55
-4.34
-3.89
-3.31
-2.73
-2.18
-1.61
-0.96
-0.14
0.81
1.79
2.65
3.24
3.46
3.30
2.85
2.23
1.54
0.87
0.25
-0.33
-0.86
-1.36
-1.83
-2.26
-2.70
-3.24
-3.98
-4.95
-6.12
-7.34
-8.45
-9.33
-10.00
-10.57
-11.18
-11.90
-12.67
-13.35
-13.77
-13.81
-13.42
-12.61
-11.41
-9.80
-7.71
-5.09
-1.92
1.70
5.57
9.39
12.86
15.69
17.78
19.13
19.86
20.11
20.01
19.62
18.96
18.08
17.06
16.00
15.00
14.11
13.32
12.59
11.89
11.18
10.50
9.84
9.24
8.66
8.06
7.38
6.59
5.72
4.81
3.94
3.12
2.36
1.63
0.93
0.29
-0.24
-0.63
-0.92
-1.22
-1.64
-2.25
-2.96
-3.54
-3.70
-3.25
-2.17
-0.70
0.81
2.00
2.68
2.87
2.76
2.53
2.30
2.05
1.70
1.20
0.59
-0.01
-0.48
-0.72
-0.75
-0.64
-0.52
-0.47
-0.55
-0.75
-1.02
-1.29
-1.53
-1.73
-1.96
-2.31
-2.85
-3.62
-4.55
-5.50
-6.32
-6.87
-7.16
-7.27
-7.36
-7.60
-8.06
-8.67
-9.24
-9.55
-9.46
-8.99
-8.30
-7.62
-7.10
-6.82
-6.73
-6.75
-6.84
-6.99
-7.24
-7.62
-8.09
-8.55
-8.84
-8.82
-8.42
-7.64
-6.55
-5.28
-3.96
-2.69
-1.56
-0.59
0.16
0.67
0.95
1.02
0.98
0.95
1.03
1.25
1.54
1.76
1.78
1.54
1.10
0.60
0.24
0.15
0.37
0.82
1.40
1.99
2.57
3.15
3.77
4.40
4.97
5.39
5.60
5.60
5.48
5.35
5.28
5.27
5.23
5.09
4.79
4.36
3.89
3.48
3.19
3.02
2.94
2.91
2.86
2.76
2.58
2.29
1.90
1.43
0.90
0.34
-0.23
-0.77
-1.23
-1.52
-1.61
-1.52
-1.38
-1.34
-1.53
-1.97
-2.53
-2.99
-3.14
-2.84
-2.09
-0.97
0.37
1.73
2.95
3.83
4.30
4.35
4.06
3.62
3.19
2.90
2.78
2.85
3.05
3.35
3.66
3.86
3.86
3.58
3.08
2.45
1.88
1.49
1.30
1.25
1.21
1.07
0.80
0.46
0.14
-0.06
-0.14
-0.16
-0.25
-0.47
-0.86
-1.34
-1.82
-2.20
-2.43
-2.50
-2.42
-2.14
-1.64
-0.90
0.05
1.12
2.16
3.05
3.67
3.97
3.96
3.69
3.27
2.83
2.50
2.36
2.41
2.61
2.86
3.06
3.14
3.10
2.98
2.85
2.75
2.66
2.54
2.30
1.91
1.42
0.93
0.55
0.35
0.34
0.45
0.56
0.57
0.37
-0.05
-0.64
-1.30
-1.91
-2.35
-2.59
-2.62
-2.41
-1.95
-1.21
-0.21
0.92
1.99
2.84
3.38
3.65
3.76
3.81
3.85
3.84
3.73
3.51
3.22
2.93
2.65
2.39
2.14
1.92
1.79
1.75
1.75
1.67
1.36
0.77
-0.06
-1.03
-1.99
-2.82
-3.51
-4.06
-4.51
-4.93
-5.36
-5.86
-6.45
-7.10
-7.69
-8.07
-8.08
-7.67
-6.87
-5.82
-4.68
-3.58
-2.57
-1.68
-0.92
-0.33
0.02
0.07
-0.18
-0.64
-1.17
-1.57
-1.71
-1.55
-1.20
-0.81
-0.53
-0.46
-0.54
-0.69
-0.80
-0.83
-0.83
-0.85
-0.95
-1.12
-1.32
-1.49
-1.58
-1.60
-1.55
-1.48
-1.44
-1.50
-1.71
-2.08
-2.58
-3.11
-3.52
-3.68
-3.50
-2.94
-2.04
-0.93
0.26
1.41
2.40
3.15
3.63
3.81
3.70
3.36
2.90
2.44
2.09
1.91
1.87
1.92
1.97
2.00
1.98
1.93
1.82
1.62
1.29
0.84
0.31
-0.23
-0.69
-1.03
-1.26
-1.42
-1.56
-1.73
-1.96
-2.28
-2.69
-3.21
-3.80
-4.38
-4.83
-5.06
-4.95
-4.46
-3.62
-2.50
-1.24
-0.02
1.00
1.73
2.13
2.28
2.26
2.15
1.99
1.80
1.61
1.48
1.50
1.73
2.11
2.50
2.73
2.70
2.46
2.16
1.94
1.85
1.81
1.67
1.35
0.90
0.46
0.22
0.22
0.37
0.47
0.30
-0.24
-1.10
-2.11
-3.04
-3.72
-4.02
-3.92
-3.47
-2.76
-1.91
-1.01
-0.16
0.63
1.33
1.93
2.42
2.73
2.84
2.71
2.37
1.90
1.40
0.97
0.66
0.47
0.39
0.38
0.38
0.35
0.25
0.02
-0.35
-0.84
-1.42
-2.01
-2.54
-3.01
-3.42
-3.84
-4.34
-4.97
-5.74
-6.63
-7.59
-8.58
-9.59
-10.61
-11.66
-12.75
-13.82
-14.79
-15.54
-15.98
-16.12
-16.08
-16.07
-16.28
-16.89
-17.92
-19.29
-20.79
-22.18
-23.22
-23.69
-23.48
-22.58
-21.06
-19.09
-16.94
-14.90
-13.27
-12.19
-11.60
-11.23
-10.71
-9.72
-8.17
-6.14
-3.84
-1.35
1.43
4.76
8.86
13.77
19.21
24.73
29.88
34.42
38.36
41.84
45.06
48.07
50.87
53.41
55.69
57.80
59.92
62.22
64.78
67.55
70.37
72.96
75.10
76.65
77.64
78.18
78.40
78.54
78.95
80.22
83.14
88.43
96.41
106.75
118.41
129.95
139.99
147.64
152.71
155.66
157.23
158.15
158.90
159.65
160.25
160.18
158.24
152.92
142.87
127.60
107.42
83.77
59.03
36.00
16.96
2.76
-6.98
-13.40
-17.44
-19.93
-21.26
-21.68
-21.47
-21.17
-22.03
-24.99
-30.04
-35.59
-40.23
-42.92
-43.44
-42.17
-39.95
-39.35
-42.29
-49.15
-57.32
-65.66
-73.90
-82.55
-91.63
-100.65
-112.00
-127.04
-145.00
-160.22
-170.85
-177.15
-181.27
-184.57
-187.76
-196.24
-213.80
-240.55
-268.28
-294.09
-317.74
-341.62
-366.54
-391.64
-421.42
-457.83
-498.34
-531.00
-552.43
-564.70
-575.08
-590.11
-571.04
-496.33
-371.51
-268.37
-198.08
-153.23
-107.52
-51.69
15.56
90.39
160.14
214.61
256.66
293.89
325.79
351.23
371.09
386.78
396.93
396.47
383.30
359.80
335.80
315.40
299.05
283.69
267.22
249.39
228.57
204.49
178.50
155.73
137.73
124.28
113.38
103.62
94.46
84.64
73.42
60.97
49.45
39.76
32.15
26.01
20.74
16.07
11.49
6.64
1.47
-3.39
-7.61
-10.95
-13.46
-15.32
-16.67
-17.57
-18.06
-18.14
-17.83
-17.09
-15.91
-14.43
-12.98
-11.77
-10.89
-10.29
-9.96
-9.99
-10.55
-11.70
-13.24
-14.61
-15.12
-14.23
-11.85
-8.42
-4.70
-1.47
0.76
1.93
2.27
2.12
1.60
0.65
-0.90
-3.01
-5.28
-7.08
-7.88
-7.56
-6.56
-5.69
-5.67
-6.77
-8.67
-10.66
-12.09
-12.63
-12.38
-11.69
-10.87
-10.01
-8.98
-7.53
-5.49
-2.89
0.06
3.01
5.69
7.93
9.74
11.31
12.82
14.40
16.06
17.73
19.29
20.61
21.63
22.23
22.28
21.62
20.15
17.88
14.95
11.64
8.29
5.17
2.47
0.27
-1.46
-2.78
-3.72
-4.31
-4.57
-4.53
-4.26
-3.91
-3.58
-3.40
-3.40
-3.57
-3.91
-4.41
-5.10
-6.03
-7.15
-8.32
-9.30
-9.81
-9.68
-8.88
-7.57
-6.04
-4.54
-3.25
-2.18
-1.24
-0.32
0.71
1.87
3.17
4.51
5.81
6.95
7.84
8.41
8.61
8.47
8.02
7.39
6.67
5.99
5.44
5.04
4.77
4.55
4.37
4.21
4.08
3.94
3.66
3.07
2.04
0.62
-0.88
-1.99
-2.28
-1.51
0.21
2.42
4.52
5.98
6.52
6.19
5.32
4.40
3.92
4.30
5.76
8.19
11.17
13.97
15.79
16.04
14.55
11.66
8.13
4.82
2.39
1.10
0.81
1.12
1.64
2.06
2.28
2.29
2.11
1.68
0.91
-0.28
-1.91
-3.87
-5.89
-7.60
-8.63
-8.76
-8.00
-6.61
-4.98
-3.49
-2.35
-1.54
-0.85
-0.05
1.03
2.36
3.84
5.31
6.69
7.94
9.03
9.84
10.24
10.10
9.37
8.20
6.81
5.44
4.28
3.34
2.57
1.90
1.30
0.78
0.34
-0.02
-0.35
-0.72
-1.16
-1.65
-2.09
-2.29
-2.06
-1.27
0.06
1.73
3.42
4.81
5.68
6.02
5.99
5.92
6.20
7.19
9.13
11.93
15.15
18.03
19.68
19.49
17.39
13.93
10.08
6.78
4.53
3.26
2.53
1.83
0.88
-0.22
-1.22
-1.94
-2.43
-2.96
-3.86
-5.31
-7.25
-9.37
-11.31
-12.72
-13.38
-13.22
-12.30
-10.76
-8.82
-6.72
-4.72
-2.99
-1.57
-0.38
0.73
1.92
3.27
4.77
6.29
7.70
8.85
9.67
10.11
10.19
9.97
9.51
8.87
8.11
7.21
6.18
5.09
4.10
3.40
3.09
3.12
3.17
2.86
1.89
0.22
-1.85
-3.82
-5.25
-5.87
-5.70
-4.97
-3.91
-2.70
-1.40
-0.05
1.28
2.50
3.57
4.63
5.98
7.97
10.70
13.82
16.55
18.00
17.56
15.32
12.02
8.72
6.26
4.87
4.15
3.42
2.20
0.49
-1.26
-2.50
-2.94
-2.74
-2.38
-2.37
-3.04
-4.32
-5.92
-7.43
-8.59
-9.31
-9.69
-9.92
-10.09
-10.19
-10.09
-9.63
-8.71
-7.32
-5.55
-3.53
-1.37
0.80
2.87
4.67
6.04
6.85
7.10
6.89
6.36
5.70
4.98
4.23
3.40
2.44
1.35
0.19
-0.90
-1.78
-2.32
-2.50
-2.40
-2.16
-1.96
-1.86
-1.84
-1.78
-1.53
-1.02
-0.29
0.54
1.30
1.87
2.24
2.49
2.82
3.49
4.75
6.74
9.37
12.24
14.70
16.05
15.80
13.91
10.84
7.37
4.27
2.00
0.54
-0.41
-1.27
-2.24
-3.29
-4.20
-4.80
-5.11
-5.31
-5.63
-6.21
-7.00
-7.85
-8.55
-8.97
-9.06
-8.84
-8.38
-7.76
-7.08
-6.42
-5.83
-5.27
-4.64
-3.78
-2.57
-0.97
0.89
2.82
4.57
5.96
6.87
7.30
7.35
7.21
7.00
6.80
6.57
6.20
5.61
4.78
3.86
3.05
2.55
2.49
2.87
3.54
4.28
4.85
5.00
4.59
3.62
2.25
0.80
-0.37
-1.00
-1.01
-0.54
0.10
0.66
0.95
0.97
0.79
0.59
0.53
0.73
1.21
1.83
2.29
2.25
1.47
-0.04
-1.99
-3.90
-5.36
-6.16
-6.43
-6.48
-6.62
-6.96
-7.42
-7.77
-7.87
-7.68
-7.34
-7.05
-6.98
-7.19
-7.65
-8.23
-8.77
-9.15
-9.28
-9.14
-8.75
-8.19
-7.50
-6.69
-5.74
-4.56
-3.11
-1.39
0.50
2.41
4.13
5.45
6.27
6.57
6.44
6.04
5.53
5.00
4.47
3.85
3.10
2.16
1.10
0.05
-0.82
-1.38
-1.55
-1.36
-0.92
-0.40
0.06
0.33
0.39
0.29
0.13
0.01
0.03
0.22
0.55
0.92
1.22
1.37
1.40
1.41
1.65
2.31
3.53
5.23
7.14
8.81
9.79
9.74
8.61
6.63
4.29
2.15
0.65
-0.02
-0.03
0.20
0.26
-0.16
-1.08
-2.27
-3.46
-4.42
-5.09
-5.56
-5.95
-6.33
-6.68
-6.88
-6.83
-6.51
-5.99
-5.37
-4.75
-4.12
-3.42
-2.59
-1.61
-0.56
0.41
1.19
1.75
2.17
2.56
3.03
3.57
4.15
4.66
5.09
5.48
5.92
6.43
7.01
7.55
8.02
8.44
8.96
9.73
10.78
11.96
13.01
13.69
13.98
14.16
14.74
16.24
18.95
22.68
26.85
30.68
33.55
35.26
36.13
36.80
37.90
39.64
41.72
43.39
43.77
42.33
39.10
34.70
29.96
25.55
21.63
17.80
13.30
7.42
0.01
-8.23
-15.87
-21.27
-23.33
-21.91
-17.77
-12.38
-7.30
-3.51
-1.09
0.68
2.70
5.38
8.16
10.09
9.57
5.14
-3.79
-16.30
-29.90
-41.23
-46.76
-43.65
-29.77
-5.92
23.27
49.74
63.98
58.28
30.09
-16.12
-69.29
-114.65
-141.92
-149.50
-144.39
-136.75
-133.04
-132.16
-126.66
-106.86
-65.32
-3.36
68.96
137.44
190.04
221.12
230.84
222.21
190.43
136.90
70.15
3.17
-53.70
-96.34
-124.94
-142.11
-152.23
-162.02
-173.70
-188.57
-206.54
-225.00
-238.41
-239.92
-218.10
-173.13
-115.17
-57.19
-10.23
20.48
35.91
40.95
43.49
46.57
50.73
56.40
65.64
80.17
100.14
123.65
147.67
169.64
182.33
182.01
168.51
145.48
118.31
92.23
70.94
56.08
47.36
42.73
40.18
38.27
36.85
36.17
35.75
34.68
32.08
27.66
21.51
14.52
7.59
1.80
-2.05
-4.54
-6.13
-6.34
-3.78
2.46
12.20
23.36
33.65
41.33
44.68
44.45
43.74
46.34
53.42
61.78
64.42
54.91
29.38
-14.36
-74.57
-145.68
-218.97
-285.02
-335.73
-365.80
-371.64
-340.31
-270.67
-177.16
-82.57
-2.60
59.73
113.56
161.30
202.99
234.42
248.43
241.37
211.43
160.56
99.15
40.72
-4.57
-32.89
-47.29
-54.97
-61.09
-66.43
-68.06
-63.23
-52.71
-40.86
-31.80
-27.67
-28.76
-33.08
-37.49
-38.99
-36.12
-30.14
-24.18
-20.59
-20.20
-22.72
-26.88
-31.06
-33.36
-32.17
-27.17
-19.55
-11.40
-5.25
-3.18
-5.80
-12.05
-19.43
-25.43
-29.16
-31.90
-35.85
-42.21
-49.45
-53.28
-48.67
-32.44
-5.42
27.32
58.59
82.31
95.41
98.91
96.52
92.33
88.92
86.94
85.99
85.73
86.48
88.68
91.89
94.27
92.94
85.55
71.65
53.28
34.09
17.81
6.85
1.55
0.47
0.81
0.04
-3.03
-8.23
-14.67
-21.23
-26.46
-28.74
-26.13
-17.97
-4.80
11.42
26.69
35.85
35.07
24.34
8.08
-6.04
-12.36
-8.49
4.41
21.84
37.95
47.99
49.73
43.83
31.85
13.25
-12.43
-43.87
-71.92
-86.90
-85.03
-70.26
-58.45
-54.41
-62.74
-87.07
-121.03
-157.23
-188.01
-207.63
-213.04
-203.37
-179.53
-146.65
-111.48
-81.24
-63.53
-63.77
-81.87
-109.72
-132.75
-136.28
-114.16
-69.31
-10.88
50.07
105.50
149.59
175.24
182.89
179.65
170.41
156.35
138.10
117.88
99.38
86.10
80.51
83.85
94.16
105.79
113.76
112.23
98.28
72.71
39.98
7.14
-18.40
-32.53
-36.03
-32.68
-27.74
-25.77
-29.10
-37.36
-47.48
-55.49
-58.42
-54.90
-44.55
-28.86
-10.88
5.99
19.62
29.53
36.72
41.74
45.43
50.20
58.82
73.05
93.03
116.75
139.71
156.04
158.66
136.38
89.40
31.69
-19.40
-53.78
-70.12
-72.34
-65.03
-56.96
-52.73
-55.14
-65.90
-86.03
-113.62
-142.67
-165.08
-165.01
-134.46
-75.28
1.25
77.68
134.93
160.14
150.76
109.55
54.03
6.96
-17.97
-22.00
-14.47
-5.77
-5.06
-14.19
-32.43
-54.99
-76.52
-91.64
-95.68
-77.40
-32.74
34.84
111.26
178.06
221.21
233.46
215.14
173.12
118.56
61.88
10.68
-35.78
-81.37
-127.55
-174.37
-222.64
-274.57
-331.46
-391.93
-421.95
-396.33
-317.39
-209.78
-98.64
0.42
79.48
135.05
166.13
174.06
158.55
123.98
83.52
51.05
37.05
42.76
59.72
75.18
79.28
66.74
41.39
14.39
-2.38
-2.81
13.85
42.05
74.37
104.76
127.03
136.87
133.50
120.20
104.13
94.52
99.63
123.76
164.69
212.64
254.50
279.33
281.88
263.26
228.61
183.51
132.12
76.70
18.77
-38.33
-88.56
-124.88
-142.72
-143.23
-134.05
-126.18
-129.67
-149.80
-185.82
-232.12
-281.00
-324.79
-357.13
-373.64
-372.39
-354.64
-324.97
-290.01
-255.60
-223.95
-192.85
-157.98
-117.25
-73.63
-34.59
-7.92
3.41
4.02
4.21
14.61
40.48
79.16
121.97
159.36
185.98
202.55
213.79
224.29
234.77
241.57
239.12
223.42
194.33
155.49
112.74
72.07
38.31
14.82
3.48
4.53
15.89
32.96
49.32
59.03
59.02
50.15
36.41
22.87
13.43
9.16
8.11
5.86
-2.91
-22.52
-54.85
-98.24
-146.91
-191.45
-221.55
-228.95
-211.12
-172.11
-121.29
-70.67
-31.49
-10.55
-7.62
-16.64
-28.07
-33.51
-28.78
-14.92
2.28
14.78
15.94
4.80
-14.76
-32.77
-42.39
