1660322633.00
64.000000
-0.00
-0.00
-0.00
-0.00
-0.00
-0.00
-0.00
-0.00
-0.00
-0.00
0.00
0.01
0.01
-0.00
-0.03
-0.05
-0.05
0.00
0.13
0.36
0.66
1.01
1.37
1.72
2.06
2.40
2.79
3.24
3.80
4.42
5.06
5.67
6.21
6.68
7.15
7.67
8.30
9.14
10.11
11.08
11.94
12.60
13.10
13.58
14.27
15.36
17.11
19.35
21.83
24.25
26.39
28.30
30.26
32.71
36.01
40.58
46.10
52.05
57.80
62.91
67.38
71.63
76.38
82.26
89.92
98.93
108.50
117.63
125.55
132.07
137.73
143.91
149.55
157.23
167.76
181.27
196.33
209.61
216.33
211.65
192.31
157.88
111.33
56.98
-0.76
-59.03
-116.98
-175.05
-233.76
-292.64
-350.21
-404.14
-452.81
-495.29
-531.29
-560.60
-582.68
-596.60
-601.30
-595.92
-579.55
-551.38
-510.29
-455.26
-386.20
-304.95
-215.59
-123.94
-36.14
42.95
110.44
165.56
208.85
241.32
263.90
277.56
283.56
283.59
279.56
273.05
265.06
255.83
245.17
232.79
218.72
203.36
187.46
171.87
157.27
144.02
132.06
120.95
110.14
99.19
88.02
76.95
66.60
57.52
49.98
43.85
38.69
33.96
29.28
24.54
19.86
15.56
11.78
8.57
5.84
3.46
1.26
-0.84
-2.87
-4.72
-6.25
-7.35
-8.01
-8.32
-8.43
-8.46
-8.44
-8.35
-8.15
-7.84
-7.45
-7.03
-6.56
-6.03
-5.42
-4.78
-4.20
-3.81
-3.64
-3.71
-3.93
-4.20
-4.39
-4.36
-3.99
-3.22
-2.14
-0.97
-0.03
0.41
0.22
-0.55
-1.68
-2.88
-3.89
-4.58
-4.84
-4.70
-4.23
-3.59
-2.95
-2.46
-2.19
-2.08
-2.04
-1.94
-1.76
-1.51
-1.24
-1.04
-0.90
-0.81
-0.71
-0.60
-0.49
-0.47
-0.58
-0.80
-1.03
-1.13
-0.98
-0.56
0.05
0.72
1.29
1.73
2.01
2.19
2.33
2.46
2.63
2.85
3.13
3.46
3.79
4.06
4.25
4.34
4.34
4.22
3.92
3.35
2.49
1.35
0.08
-1.13
-2.12
-2.84
-3.37
-3.82
-4.28
-4.79
-5.28
-5.68
-5.95
-6.09
-6.10
-5.96
-5.65
-5.13
-4.39
-3.55
-2.74
-2.10
-1.72
-1.56
-1.56
-1.65
-1.79
-1.92
-2.03
-2.06
-1.99
-1.79
-1.50
-1.19
-0.91
-0.73
-0.66
-0.70
-0.80
-0.89
-0.92
-0.86
-0.73
-0.54
-0.37
-0.26
-0.24
-0.32
-0.49
-0.75
-1.06
-1.39
-1.65
-1.76
-1.64
-1.29
-0.76
-0.11
0.54
1.12
1.56
1.84
1.97
1.98
1.93
1.86
1.85
1.86
1.86
1.76
1.55
1.25
0.94
0.71
0.58
0.49
0.36
0.14
-0.12
-0.33
-0.36
-0.21
0.03
0.19
0.13
-0.17
-0.64
-1.13
-1.54
-1.85
-2.08
-2.28
-2.46
-2.57
-2.56
-2.37
-1.99
-1.45
-0.79
-0.07
0.64
1.27
1.80
2.23
2.60
2.92
3.16
3.22
3.01
2.53
1.88
1.23
0.72
0.41
0.23
0.11
-0.02
-0.13
-0.16
-0.08
0.08
0.21
0.22
0.05
-0.25
-0.58
-0.87
-1.09
-1.30
-1.55
-1.89
-2.32
-2.75
-3.10
-3.29
-3.26
-2.97
-2.44
-1.70
-0.81
0.13
0.99
1.68
2.18
2.49
2.67
2.76
2.76
2.70
2.60
2.50
2.42
2.32
2.14
1.81
1.30
0.71
0.15
-0.26
-0.48
-0.59
-0.67
-0.81
-1.02
-1.25
-1.43
-1.55
-1.63
-1.73
-1.89
-2.09
-2.30
-2.45
-2.51
-2.46
-2.33
-2.12
-1.86
-1.52
-1.12
-0.65
-0.15
0.36
0.85
1.28
1.64
1.89
2.00
1.93
1.66
1.24
0.76
0.31
0.01
-0.09
-0.01
0.20
0.44
0.62
0.68
0.61
0.45
0.29
0.17
0.08
-0.04
-0.29
-0.69
-1.22
-1.78
-2.25
-2.58
-2.75
-2.79
-2.69
-2.41
-1.92
-1.25
-0.48
0.27
0.88
1.32
1.58
1.72
1.79
1.82
1.84
1.85
1.86
1.86
1.79
1.63
1.35
0.98
0.61
0.27
0.01
-0.20
-0.38
-0.55
-0.65
-0.62
-0.45
-0.17
0.09
0.16
-0.08
-0.64
-1.43
-2.27
-2.96
-3.36
-3.41
-3.14
-2.65
-2.06
-1.47
-0.94
-0.50
-0.16
0.13
0.44
0.82
1.27
1.74
2.15
2.38
2.36
2.12
1.73
1.32
1.03
0.93
1.03
1.27
1.55
1.77
1.85
1.77
1.55
1.23
0.85
0.45
0.09
-0.22
-0.47
-0.67
-0.88
-1.15
-1.51
-1.93
-2.31
-2.53
-2.49
-2.16
-1.63
-1.00
-0.40
0.08
0.45
0.74
1.02
1.38
1.82
2.31
2.74
2.97
2.87
2.40
1.65
0.78
0.03
-0.40
-0.42
-0.07
0.47
0.93
1.07
0.77
0.05
-0.88
-1.79
-2.49
-2.90
-3.11
-3.28
-3.58
-4.07
-4.66
-5.17
-5.38
-5.17
-4.52
-3.54
-2.44
-1.42
-0.62
-0.08
0.28
0.53
0.72
0.84
0.85
0.71
0.47
0.23
0.10
0.16
0.39
0.70
0.97
1.12
1.12
1.01
0.84
0.65
0.45
0.28
0.16
0.11
0.12
0.15
0.13
0.01
-0.21
-0.48
-0.73
-0.90
-0.96
-0.89
-0.68
-0.36
0.08
0.60
1.18
1.75
2.25
2.60
2.74
2.67
2.41
2.07
1.76
1.56
1.46
1.43
1.41
1.38
1.39
1.49
1.67
1.84
1.87
1.68
1.27
0.71
0.14
-0.37
-0.80
-1.17
-1.51
-1.82
-2.08
-2.27
-2.37
-2.40
-2.33
-2.14
-1.76
-1.19
-0.42
0.46
1.35
2.15
2.75
3.12
3.24
3.17
2.95
2.64
2.30
1.98
1.70
1.48
1.32
1.22
1.14
1.03
0.85
0.56
0.17
-0.26
-0.65
-0.94
-1.11
-1.19
-1.23
-1.28
-1.38
-1.53
-1.76
-2.04
-2.34
-2.59
-2.71
-2.64
-2.35
-1.87
-1.25
-0.55
0.17
0.87
1.52
2.05
2.43
2.64
2.73
2.78
2.85
2.96
3.03
2.93
2.53
1.79
0.84
-0.13
-0.87
-1.24
-1.25
-1.09
-0.97
-1.05
-1.31
-1.58
-1.64
-1.39
-0.87
-0.29
0.13
0.24
0.04
-0.34
-0.73
-1.04
-1.26
-1.40
-1.52
-1.60
-1.59
-1.45
-1.15
-0.69
-0.10
0.55
1.21
1.80
2.24
2.49
2.55
2.44
2.22
1.95
1.69
1.50
1.43
1.47
1.61
1.78
1.89
1.85
1.64
1.27
0.79
0.27
-0.19
-0.55
-0.76
-0.85
-0.88
-0.95
-1.12
-1.41
-1.78
-2.17
-2.52
-2.82
-3.08
-3.33
-3.52
-3.56
-3.31
-2.68
-1.70
-0.48
0.75
1.80
2.53
2.91
2.99
2.89
2.71
2.50
2.28
2.07
1.86
1.69
1.58
1.54
1.53
1.46
1.26
0.91
0.45
0.01
-0.32
-0.48
-0.48
-0.42
-0.39
-0.43
-0.53
-0.62
-0.65
-0.61
-0.57
-0.61
-0.77
-1.08
-1.51
-2.02
-2.53
-3.00
-3.33
-3.44
-3.25
-2.76
-2.06
-1.28
-0.55
0.03
0.50
0.94
1.43
1.98
2.51
2.89
2.98
2.76
2.30
1.78
1.37
1.15
1.08
1.04
0.94
0.76
0.61
0.62
0.81
1.11
1.32
1.27
0.93
0.41
-0.10
-0.42
-0.52
-0.50
-0.50
-0.62
-0.89
-1.24
-1.61
-1.95
-2.26
-2.55
-2.81
-2.98
-2.99
-2.78
-2.33
-1.70
-0.99
-0.30
0.30
0.77
1.10
1.30
1.41
1.44
1.44
1.41
1.35
1.23
1.04
0.79
0.56
0.41
0.40
0.54
0.77
0.97
1.05
0.98
0.75
0.40
-0.02
-0.47
-0.85
-1.11
-1.18
-1.07
-0.85
-0.65
-0.61
-0.81
-1.23
-1.77
-2.27
-2.62
-2.71
-2.55
-2.16
-1.58
-0.87
-0.10
0.62
1.22
1.61
1.78
1.78
1.68
1.53
1.40
1.28
1.16
1.06
0.98
0.94
0.97
1.03
1.11
1.16
1.16
1.08
0.94
0.73
0.48
0.20
-0.07
-0.31
-0.50
-0.65
-0.78
-0.91
-1.05
-1.22
-1.42
-1.68
-1.99
-2.34
-2.68
-2.90
-2.90
-2.61
-2.03
-1.23
-0.35
0.47
1.12
1.57
1.84
1.97
2.02
2.06
2.09
2.11
2.11
2.05
1.92
1.69
1.38
0.99
0.56
0.15
-0.17
-0.35
-0.37
-0.25
-0.06
0.10
0.18
0.12
-0.10
-0.46
-0.92
-1.42
-1.88
-2.22
-2.39
-2.41
-2.35
-2.29
-2.27
-2.30
-2.29
-2.18
-1.87
-1.36
-0.68
0.09
0.86
1.50
1.89
1.97
1.77
1.39
1.02
0.80
0.81
1.04
1.34
1.59
1.69
1.63
1.48
1.29
1.11
0.92
0.76
0.64
0.59
0.62
0.64
0.54
0.22
-0.30
-0.91
-1.42
-1.69
-1.72
-1.65
-1.67
-1.91
-2.38
-2.94
-3.36
-3.52
-3.35
-2.93
-2.43
-1.96
-1.58
-1.26
-0.92
-0.52
-0.05
0.41
0.77
0.95
0.94
0.80
0.60
0.46
0.43
0.53
0.70
0.86
0.92
0.82
0.56
0.22
-0.13
-0.40
-0.59
-0.76
-0.98
-1.30
-1.72
-2.16
-2.53
-2.78
-2.92
-3.05
-3.26
-3.66
-4.23
-4.90
-5.53
-6.03
-6.34
-6.48
-6.51
-6.44
-6.22
-5.80
-5.14
-4.27
-3.28
-2.25
-1.22
-0.16
0.96
2.15
3.33
4.40
5.25
5.86
6.27
6.55
6.73
6.80
6.75
6.58
6.32
6.04
5.78
5.53
5.23
4.79
4.16
3.38
2.52
1.73
1.12
0.77
0.66
0.69
0.72
0.61
0.30
-0.18
-0.72
-1.19
-1.49
-1.56
-1.39
-0.99
-0.38
0.42
1.32
2.20
2.92
3.36
3.45
3.23
2.80
2.29
1.84
1.51
1.34
1.31
1.34
1.40
1.42
1.39
1.29
1.14
0.95
0.71
0.43
0.09
-0.30
-0.72
-1.12
-1.44
-1.61
-1.63
-1.52
-1.37
-1.28
-1.32
-1.51
-1.81
-2.15
-2.42
-2.55
-2.48
-2.19
-1.71
-1.10
-0.43
0.21
0.75
1.18
1.52
1.77
1.94
2.00
1.94
1.78
1.57
1.40
1.31
1.31
1.32
1.26
1.09
0.84
0.59
0.42
0.37
0.40
0.45
0.43
0.31
0.10
-0.14
-0.36
-0.52
-0.65
-0.80
-1.02
-1.37
-1.79
-2.21
-2.52
-2.68
-2.69
-2.65
-2.63
-2.66
-2.67
-2.55
-2.17
-1.52
-0.64
0.31
1.11
1.62
1.77
1.61
1.29
0.96
0.76
0.72
0.81
0.91
0.97
0.95
0.88
0.83
0.81
0.77
0.66
0.45
0.15
-0.17
-0.41
-0.53
-0.53
-0.44
-0.30
-0.14
0.04
0.19
0.26
0.15
-0.18
-0.69
-1.29
-1.83
-2.20
-2.33
-2.19
-1.82
-1.25
-0.58
0.08
0.59
0.85
0.85
0.70
0.53
0.50
0.63
0.88
1.15
1.35
1.52
1.74
2.10
2.61
3.20
3.77
4.20
4.46
4.55
4.45
4.10
3.40
2.30
0.89
-0.58
-1.80
-2.49
-2.61
-2.32
-1.93
-1.74
-1.86
-2.26
-2.73
-3.07
-3.11
-2.83
-2.29
-1.56
-0.77
-0.02
0.60
1.02
1.20
1.18
1.06
0.93
0.91
1.02
1.25
1.53
1.79
1.95
1.94
1.74
1.38
0.94
0.54
0.28
0.27
0.53
1.01
1.62
2.27
2.86
3.39
3.88
4.39
4.93
5.47
5.91
6.15
6.14
5.90
5.54
5.20
5.01
5.03
5.21
5.51
5.88
6.39
7.18
8.38
10.01
11.88
13.65
14.93
15.51
15.40
14.88
14.34
14.12
14.32
14.85
15.39
15.59
15.10
13.68
11.18
7.52
2.88
-2.40
-7.78
-12.70
-16.73
-19.71
-21.76
-23.13
-24.03
-24.47
-24.34
-23.55
-22.24
-20.71
-19.34
-18.37
-17.69
-16.98
-15.71
-13.54
-10.39
-6.46
-2.10
2.30
6.42
10.07
13.03
15.56
17.86
20.11
22.42
24.74
26.88
28.63
29.79
29.99
29.74
29.39
29.36
30.00
31.41
33.40
35.53
37.29
37.74
37.35
36.33
35.07
34.03
33.61
34.01
35.22
36.94
37.92
38.18
37.05
34.08
29.18
22.64
15.06
7.15
4.28
1.51
-0.18
-1.02
-1.72
-3.35
-7.09
-13.82
-23.73
-36.14
-50.33
-63.73
-74.60
-81.80
-85.05
-84.86
-82.24
-78.26
-73.74
-69.66
-65.59
-61.59
-57.75
-54.24
-51.17
-48.47
-45.88
-43.06
-40.13
-36.73
-33.10
-29.58
-26.44
-23.79
-21.58
-19.65
-17.87
-16.30
-14.76
-13.33
-12.09
-11.11
-10.35
-9.67
-8.85
-7.67
-6.09
-4.11
-1.92
0.27
2.29
4.09
5.70
7.17
8.49
9.60
10.47
11.10
11.57
11.98
12.41
12.86
13.26
13.52
13.61
13.53
13.32
13.08
12.84
12.67
12.55
12.46
12.35
12.13
11.70
10.94
9.82
8.36
6.67
4.89
3.18
1.65
0.29
-0.94
-2.16
-3.43
-4.72
-5.91
-6.85
-7.38
-7.47
-7.17
-6.63
-5.99
-5.36
-4.80
-4.33
-3.99
-3.81
-3.88
-4.24
-4.85
-5.63
-6.42
-7.05
-7.38
-7.38
-7.12
-6.76
-6.51
-6.50
-6.75
-7.15
-7.53
-7.74
-7.77
-7.73
-7.82
-8.15
-8.70
-9.31
-9.74
-9.84
-9.57
-9.01
-8.32
-7.57
-6.80
-5.97
-5.03
-4.01
-2.97
-2.02
-1.24
-0.58
0.14
1.20
2.86
5.23
8.17
11.21
13.69
14.99
14.64
12.57
9.15
5.06
1.14
-1.83
-3.34
-3.28
-1.98
-0.08
1.67
2.63
2.51
1.47
-0.01
-1.26
-1.77
-1.26
0.21
2.36
4.86
7.42
9.85
12.01
13.80
15.15
16.01
16.49
16.71
16.80
16.69
16.12
14.64
11.85
7.50
1.71
-5.00
-11.79
-17.64
-21.58
-22.99
-21.75
-18.33
-13.67
-8.93
-5.17
-2.95
-2.27
-2.58
-3.10
-3.08
-2.06
0.04
2.97
6.30
9.57
12.44
14.70
16.28
17.23
17.68
17.83
17.94
18.25
18.89
19.79
20.63
20.90
19.99
17.38
12.80
6.43
-1.06
-8.58
-14.87
-18.90
-20.27
-19.30
-16.96
-14.45
-12.67
-11.92
-11.80
-11.57
-10.46
-8.14
-4.77
-0.84
3.00
6.30
8.83
10.59
11.75
12.51
13.08
13.67
14.42
15.39
16.54
17.64
18.33
18.19
16.82
14.07
10.11
5.51
1.09
-2.28
-4.09
-4.35
-3.66
-2.85
-2.66
-3.31
-4.47
-5.46
-5.60
-4.58
-2.51
0.16
2.99
5.71
8.26
10.69
13.01
15.07
16.69
17.73
18.24
18.50
18.86
19.57
20.60
21.57
21.89
21.00
18.61
14.73
9.67
3.85
-2.26
-8.19
-13.41
-17.42
-19.85
-20.69
-20.37
-19.62
-19.11
-19.14
-19.42
-19.27
-18.00
-15.30
-11.41
-6.93
-2.58
1.17
4.12
6.36
8.08
9.49
10.76
12.04
13.47
15.11
16.91
18.64
19.99
20.56
20.05
18.28
15.35
11.61
7.64
4.18
1.79
0.70
0.59
0.76
0.41
-1.00
-3.41
-6.18
-8.45
-9.47
-8.95
-7.11
-4.48
-1.62
1.14
3.68
6.00
8.11
9.95
11.46
12.69
13.81
14.97
16.24
17.38
17.95
17.41
15.39
11.81
6.87
1.02
-5.21
-11.22
-16.35
-20.00
-21.77
-21.69
-20.37
-18.78
-17.86
-18.07
-19.12
-20.11
-20.03
-18.27
-14.89
-10.57
-6.16
-2.32
0.67
2.89
4.57
5.93
7.15
8.39
9.79
11.50
13.53
15.75
17.83
19.36
19.96
19.37
17.54
14.65
11.15
7.66
4.83
3.08
2.39
2.31
2.06
0.93
-1.42
-4.73
-8.28
-11.14
-12.53
-12.17
-10.26
-7.36
-4.19
-1.36
0.74
1.97
2.44
2.41
2.22
2.24
2.79
4.01
5.84
7.91
9.59
10.15
9.01
5.96
1.30
-4.18
-9.46
-13.63
-16.15
-17.08
-16.95
-16.59
-16.75
-17.81
-19.68
-21.78
-23.34
-23.70
-22.57
-20.06
-16.61
-12.74
-8.87
-5.33
-2.30
0.06
1.64
2.43
2.56
2.38
2.27
2.58
3.45
4.78
6.28
7.58
8.39
8.59
8.32
7.91
7.79
8.26
9.30
10.46
11.04
10.36
8.08
4.44
0.20
-3.71
-6.48
-7.78
-7.80
-7.08
-6.22
-5.68
-5.56
-5.77
-6.06
-6.21
-6.14
-5.88
-5.58
-5.36
-5.30
-5.39
-5.54
-5.63
-5.61
-5.51
-5.41
-5.39
-5.39
-5.22
-4.58
-3.20
-1.01
1.79
4.72
7.25
8.98
9.78
9.87
9.63
9.46
9.57
9.93
10.31
10.45
10.15
9.40
8.37
7.37
6.71
6.61
7.14
8.16
9.41
10.58
11.38
11.68
11.53
11.13
10.76
10.66
10.93
11.49
12.15
12.67
12.85
12.51
11.53
9.85
7.51
4.71
1.77
-0.99
-3.40
-5.52
-7.62
-9.93
-12.51
-15.12
-17.43
-19.25
-20.64
-21.95
-23.53
-25.49
-27.62
-29.44
-30.41
-30.19
-28.68
-26.02
-22.57
-18.80
-15.24
-12.39
-10.60
-9.91
-10.02
-10.39
-10.44
-9.73
-8.11
-5.74
-2.94
-0.16
2.19
3.84
4.71
4.93
4.80
4.64
4.72
5.18
6.05
7.32
9.02
11.19
13.82
16.75
19.69
22.30
24.34
25.73
26.57
26.95
26.87
26.21
24.90
23.00
20.82
18.73
17.01
15.65
14.39
12.92
11.17
9.37
8.04
7.66
8.43
10.14
12.27
14.26
15.78
16.80
17.55
18.26
19.04
19.77
20.31
20.59
20.80
21.33
22.64
25.02
28.39
32.28
36.00
38.79
40.10
39.63
37.30
33.16
27.36
20.14
11.88
3.11
-5.49
-13.23
-19.54
-24.06
-26.65
-27.41
-26.60
-24.56
-21.70
-18.46
-15.30
-12.57
-10.49
-9.10
-8.26
-7.77
-7.43
-7.12
-6.85
-6.72
-6.82
-7.25
-8.04
-9.15
-10.57
-12.26
-14.20
-16.27
-18.26
-19.87
-20.87
-21.19
-20.97
-20.47
-20.00
-19.70
-19.55
-19.44
-19.18
-18.70
-18.03
-17.27
-16.60
-16.17
-16.05
-16.17
-16.27
-15.97
-14.87
-12.77
-9.77
-6.26
-2.82
0.08
2.24
3.72
4.82
5.86
7.11
8.74
10.83
13.42
16.40
19.59
22.64
25.20
26.95
27.66
27.28
25.86
23.59
20.80
17.92
15.39
13.58
12.65
12.47
12.74
13.04
12.99
12.35
10.97
8.81
5.93
2.51
-1.16
-4.73
-7.95
-10.71
-13.10
-15.27
-17.38
-19.45
-21.39
-23.09
-24.46
-25.49
-26.25
-26.76
-27.02
-26.96
-26.54
-25.77
-24.79
-23.78
-22.94
-22.39
-22.09
-21.90
-21.63
-21.13
-20.35
-19.35
-18.22
-17.07
-15.91
-14.74
-13.50
-12.11
-10.58
-8.94
-7.27
-5.64
-4.11
-2.70
-1.41
-0.25
0.74
1.54
2.14
2.59
2.97
3.33
3.70
4.04
4.27
4.35
4.28
4.13
3.93
3.70
3.39
2.95
2.35
1.63
0.90
0.25
-0.26
-0.63
-0.97
-1.37
-1.87
-2.46
-3.06
-3.51
-3.74
-3.70
-3.41
-2.95
-2.39
-1.75
-1.06
-0.35
0.28
0.76
1.03
1.12
1.13
1.23
1.52
2.00
2.57
3.08
3.39
3.43
3.25
2.90
2.50
2.15
1.93
1.88
1.96
2.11
2.19
2.10
1.78
1.25
0.60
-0.05
-0.59
-0.96
-1.09
-1.03
-0.82
-0.57
-0.35
-0.23
-0.19
-0.14
-0.04
0.14
0.34
0.51
0.63
0.71
0.79
0.92
1.08
1.24
1.32
1.31
1.20
1.04
0.86
0.67
0.49
0.33
0.19
0.11
0.06
0.00
-0.12
-0.34
-0.64
-0.98
-1.26
-1.41
-1.40
-1.25
-1.01
-0.73
-0.42
-0.10
0.25
0.61
0.96
1.28
1.55
1.75
1.92
2.09
2.28
2.48
2.64
2.71
2.66
2.50
2.23
1.89
1.50
1.10
0.74
0.49
0.41
0.49
0.67
0.79
0.70
0.33
-0.30
-1.04
-1.69
-2.06
-2.07
-1.74
-1.17
-0.53
0.04
0.45
0.67
0.76
0.78
0.83
0.96
1.22
1.57
1.95
2.31
2.56
2.67
2.64
2.49
2.26
2.03
1.82
1.66
1.57
1.52
1.47
1.38
1.21
0.99
0.75
0.51
0.30
0.10
-0.12
-0.40
-0.73
-1.10
-1.47
-1.82
-2.12
-2.35
-2.48
-2.44
-2.18
-1.70
-1.03
-0.25
0.50
1.13
1.56
1.81
1.94
2.02
2.10
2.18
2.22
2.15
1.97
1.71
1.47
1.35
1.36
1.47
1.55
1.50
1.29
0.95
0.57
0.27
0.12
0.11
0.14
0.13
0.00
-0.20
-0.40
-0.53
-0.57
-0.61
-0.75
-1.02
-1.38
-1.67
-1.71
-1.43
-0.89
-0.28
0.20
0.50
0.67
0.85
1.16
1.59
2.00
2.23
2.18
1.92
1.58
1.36
1.35
1.52
1.74
1.91
1.95
1.87
1.72
1.56
1.37
1.15
0.85
0.48
0.09
-0.28
-0.57
-0.82
-1.07
-1.42
-1.85
-2.28
-2.57
-2.60
-2.31
-1.76
-1.07
-0.36
0.33
1.02
1.72
2.42
3.02
3.41
3.49
3.24
2.77
2.22
1.78
1.55
1.55
1.72
1.88
1.91
1.72
1.34
0.87
0.41
0.02
-0.32
-0.63
-0.96
-1.28
-1.54
-1.68
-1.65
-1.48
-1.27
-1.11
-1.09
-1.23
-1.47
-1.70
-1.79
-1.67
-1.35
-0.91
-0.46
-0.08
0.24
0.56
0.95
1.45
2.00
2.51
2.89
3.06
2.99
2.73
2.35
1.99
1.73
1.63
1.65
1.70
1.65
1.43
1.07
0.65
0.31
0.10
0.01
-0.02
-0.08
-0.23
-0.44
-0.68
-0.91
-1.13
-1.35
-1.57
-1.76
-1.85
-1.77
-1.52
-1.15
-0.76
-0.45
-0.24
-0.07
0.15
0.51
0.98
1.48
1.88
2.07
2.02
1.80
1.54
1.37
1.34
1.42
1.51
1.52
1.36
1.03
0.57
0.10
-0.25
-0.40
-0.31
-0.06
0.22
0.37
0.26
-0.11
-0.65
-1.19
-1.59
-1.77
-1.75
-1.65
-1.54
-1.47
-1.45
-1.42
-1.33
-1.15
-0.87
-0.55
-0.21
0.09
0.36
0.61
0.86
1.10
1.28
1.35
1.32
1.21
1.11
1.10
1.22
1.44
1.65
1.77
1.74
1.57
1.33
1.08
0.87
0.69
0.53
0.35
0.13
-0.07
-0.23
-0.31
-0.34
-0.41
-0.58
-0.91
-1.33
-1.72
-1.95
-1.91
-1.60
-1.10
-0.54
-0.06
0.29
0.50
0.63
0.72
0.85
1.03
1.24
1.40
1.47
1.43
1.34
1.30
1.38
1.58
1.83
1.96
1.86
1.49
0.90
0.22
-0.41
-0.90
-1.23
-1.40
-1.43
-1.34
-1.18
-1.05
-1.03
-1.20
-1.51
-1.88
-2.17
-2.29
-2.18
-1.89
-1.47
-0.98
-0.49
-0.03
0.35
0.60
0.68
0.59
0.37
0.11
-0.10
-0.15
-0.00
0.32
0.74
1.14
1.43
1.59
1.60
1.54
1.44
1.32
1.19
1.03
0.83
0.63
0.46
0.34
0.29
0.26
0.19
0.01
-0.29
-0.66
-1.02
-1.34
-1.61
-1.87
-2.14
-2.37
-2.47
-2.34
-1.93
-1.32
-0.67
-0.12
0.26
0.50
0.73
1.02
1.37
1.70
1.89
1.88
1.72
1.52
1.38
1.34
1.38
1.41
1.37
1.24
1.07
0.89
0.71
0.51
0.29
0.05
-0.16
-0.30
-0.37
-0.45
-0.63
-0.99
-1.50
-2.08
-2.63
-3.05
-3.34
-3.49
-3.55
-3.52
-3.38
-3.12
-2.74
-2.27
-1.79
-1.32
-0.89
-0.50
-0.12
0.28
0.72
1.20
1.71
2.20
2.59
2.82
2.84
2.71
2.49
2.26
2.06
1.88
1.68
1.45
1.18
0.93
0.71
0.50
0.28
0.01
-0.30
-0.61
-0.82
-0.89
-0.80
-0.59
-0.36
-0.20
-0.18
-0.30
-0.53
-0.81
-1.06
-1.26
-1.38
-1.38
-1.26
-0.99
-0.58
-0.05
0.51
1.00
1.35
1.49
1.43
1.24
1.00
0.76
0.59
0.48
0.47
0.58
0.85
1.27
1.80
2.28
2.57
2.52
2.10
1.42
0.64
-0.08
-0.61
-0.90
-0.99
-0.95
-0.87
-0.85
-1.00
-1.33
-1.80
-2.29
-2.64
-2.72
-2.50
-2.00
-1.36
-0.68
-0.07
0.42
0.76
0.97
1.07
1.10
1.08
1.04
0.99
0.96
0.97
1.04
1.12
1.17
1.11
0.92
0.64
0.33
0.08
-0.11
-0.27
-0.42
-0.57
-0.69
-0.73
-0.65
-0.52
-0.42
-0.46
-0.65
-0.95
-1.26
-1.49
-1.64
-1.71
-1.76
-1.80
-1.80
-1.72
-1.48
-1.07
-0.51
0.14
0.83
1.47
2.02
2.40
2.56
2.47
2.19
1.82
1.51
1.36
1.40
1.56
1.69
1.68
1.49
1.14
0.73
0.35
0.04
-0.19
-0.35
-0.46
-0.51
-0.56
-0.63
-0.79
-1.05
-1.38
-1.72
-2.02
-2.25
-2.40
-2.48
-2.45
-2.27
-1.89
-1.31
-0.63
0.02
0.52
0.82
0.97
1.06
1.16
1.29
1.40
1.48
1.52
1.54
1.58
1.61
1.58
1.46
1.23
0.97
0.78
0.73
0.85
1.04
1.21
1.27
1.16
0.90
0.53
0.10
-0.36
-0.82
-1.26
-1.63
-1.90
-2.08
-2.20
-2.34
-2.53
-2.79
-3.05
-3.24
-3.26
-3.10
-2.77
-2.35
-1.87
-1.30
-0.61
0.20
1.07
1.81
2.27
2.37
2.17
1.83
1.54
1.41
1.48
1.68
1.92
2.14
2.30
2.40
2.42
2.32
2.07
1.70
1.27
0.86
0.58
0.42
0.35
0.27
0.09
-0.25
-0.70
-1.16
-1.53
-1.75
-1.82
-1.81
-1.78
-1.77
-1.81
-1.91
-2.06
-2.21
-2.28
-2.17
-1.83
-1.29
-0.67
-0.12
0.27
0.51
0.68
0.90
1.16
1.42
1.57
1.55
1.39
1.19
1.08
1.13
1.31
1.52
1.64
1.61
1.40
1.01
0.52
-0.04
-0.57
-1.01
-1.27
-1.31
-1.18
-0.97
-0.84
-0.89
-1.14
-1.52
-1.90
-2.15
-2.23
-2.15
-1.98
-1.78
-1.57
-1.35
-1.12
-0.88
-0.63
-0.36
-0.02
0.43
1.01
1.65
2.23
2.62
2.71
2.48
2.00
1.39
0.79
0.32
0.06
0.02
0.18
0.45
0.73
0.93
0.99
0.90
0.69
0.42
0.17
-0.03
-0.15
-0.22
-0.29
-0.39
-0.51
-0.64
-0.79
-0.99
-1.30
-1.74
-2.23
-2.65
-2.82
-2.64
-2.11
-1.39
-0.66
-0.12
0.20
0.38
0.56
0.85
1.25
1.68
2.01
2.12
2.00
1.71
1.38
1.14
1.09
1.22
1.46
1.67
1.75
1.64
1.36
0.99
0.59
0.26
0.00
-0.17
-0.32
-0.49
-0.71
-1.01
-1.34
-1.67
-1.96
-2.23
-2.49
-2.77
-3.05
-3.24
-3.26
-3.04
-2.61
-2.06
-1.50
-1.02
-0.66
-0.39
-0.17
0.01
0.18
0.35
0.56
0.89
1.33
1.86
2.35
2.67
2.72
2.50
2.10
1.66
1.33
1.17
1.14
1.15
1.08
0.89
0.57
0.20
-0.15
-0.40
-0.49
-0.44
-0.32
-0.24
-0.30
-0.52
-0.87
-1.25
-1.58
-1.81
-1.95
-2.05
-2.11
-2.11
-1.96
-1.60
-1.05
-0.41
0.17
0.57
0.77
0.81
0.83
0.94
1.22
1.63
2.06
2.39
2.51
2.41
2.16
1.85
1.58
1.35
1.12
0.81
0.42
0.01
-0.29
-0.37
-0.25
-0.04
0.08
-0.04
-0.39
-0.85
-1.29
-1.60
-1.80
-1.99
-2.22
-2.50
-2.74
-2.84
-2.72
-2.39
-1.87
-1.23
-0.51
0.22
0.90
1.48
1.89
2.13
2.22
2.24
2.25
2.29
2.33
2.34
2.28
2.14
1.92
1.65
1.34
0.99
0.61
0.19
-0.21
-0.52
-0.65
-0.55
-0.29
-0.02
0.10
-0.04
-0.45
-1.03
-1.62
-2.07
-2.30
-2.31
-2.19
-2.04
-1.93
-1.89
-1.90
-1.89
-1.81
-1.62
-1.30
-0.83
-0.23
0.45
1.12
1.69
2.06
2.21
2.17
2.05
1.93
1.85
1.78
1.67
1.48
1.22
0.95
0.72
0.53
0.34
0.12
-0.10
-0.26
-0.33
-0.31
-0.27
-0.32
-0.54
-0.93
-1.39
-1.79
-2.02
-2.07
-2.02
-2.00
-2.12
-2.39
-2.73
-2.98
-2.99
-2.67
-2.05
-1.26
-0.50
0.04
0.30
0.34
0.32
0.39
0.65
1.07
1.58
2.05
2.41
2.61
2.65
2.51
2.21
1.82
1.44
1.15
1.01
0.99
1.00
0.91
0.65
0.25
-0.21
-0.63
-0.93
-1.09
-1.15
-1.17
-1.16
-1.15
-1.14
-1.13
-1.16
-1.27
-1.46
-1.74
-2.02
-2.21
-2.18
-1.87
-1.33
-0.67
-0.03
0.47
0.78
0.96
1.09
1.25
1.46
1.69
1.89
2.02
2.07
2.05
1.94
1.74
1.47
1.16
0.86
0.63
0.48
0.37
0.23
0.04
-0.19
-0.40
-0.52
-0.52
-0.46
-0.42
-0.44
-0.53
-0.67
-0.80
-0.91
-1.02
-1.18
-1.41
-1.67
-1.91
-2.07
-2.09
-1.96
-1.70
-1.31
-0.79
-0.21
0.34
0.74
0.89
0.80
0.58
0.40
0.40
0.62
0.98
1.34
1.55
1.60
1.55
1.54
1.60
1.69
1.73
1.62
1.38
1.11
0.96
0.95
0.98
0.89
0.53
-0.10
-0.85
-1.50
-1.93
-2.16
-2.31
-2.48
-2.70
-2.83
-2.76
-2.43
-1.92
-1.37
-0.90
-0.52
-0.17
0.23
0.67
1.05
1.28
1.30
1.19
1.08
1.12
1.34
1.70
2.07
2.32
2.41
2.33
2.15
1.93
1.70
1.48
1.26
1.02
0.76
0.51
0.31
0.20
0.20
0.26
0.31
0.26
0.04
-0.30
-0.65
-0.87
-0.88
-0.69
-0.47
-0.42
-0.70
-1.31
-2.12
-2.88
-3.35
-3.39
-3.01
-2.35
-1.60
-0.94
-0.45
-0.13
0.09
0.28
0.50
0.75
1.02
1.28
1.48
1.61
1.65
1.62
1.55
1.47
1.39
1.27
1.08
0.81
0.50
0.22
0.04
-0.01
0.03
0.09
0.10
-0.00
-0.21
-0.47
-0.73
-0.91
-0.98
-0.93
-0.83
-0.77
-0.85
-1.15
-1.63
-2.18
-2.63
-2.85
-2.77
-2.43
-1.95
-1.43
-0.94
-0.47
0.02
0.56
1.13
1.66
2.03
2.21
2.19
2.03
1.81
1.58
1.34
1.12
0.95
0.87
0.92
1.08
1.27
1.38
1.30
0.98
0.45
-0.18
-0.75
-1.13
-1.27
-1.20
-1.03
-0.90
-0.89
-1.03
-1.27
-1.52
-1.77
-2.03
-2.29
-2.51
-2.59
-2.41
-1.91
-1.16
-0.31
0.49
1.12
1.58
1.88
2.05
2.11
2.07
1.94
1.77
1.64
1.56
1.52
1.46
1.32
1.07
0.75
0.42
0.16
0.02
-0.03
-0.04
-0.09
-0.20
-0.38
-0.55
-0.66
-0.69
-0.66
-0.65
-0.72
-0.91
-1.22
-1.62
-2.06
-2.47
-2.77
-2.91
-2.83
-2.53
-2.05
-1.46
-0.86
-0.30
0.20
0.62
0.99
1.27
1.47
1.59
1.62
1.60
1.56
1.53
1.55
1.63
1.77
1.92
2.01
1.97
1.77
1.43
1.01
0.61
0.30
0.10
-0.00
-0.09
-0.20
-0.34
-0.48
-0.60
-0.68
-0.77
-0.91
-1.12
-1.42
-1.73
-2.00
-2.18
-2.26
-2.27
-2.26
-2.22
-2.13
-1.90
-1.49
-0.92
-0.27
0.32
0.75
0.98
1.08
1.15
1.30
1.57
1.89
2.17
2.32
2.33
2.24
2.12
1.99
1.85
1.68
1.47
1.23
1.00
0.82
0.67
0.53
0.36
0.17
-0.03
-0.19
-0.29
-0.35
-0.41
-0.49
-0.61
-0.76
-0.92
-1.11
-1.37
-1.71
-2.18
-2.76
-3.36
-3.86
-4.12
-4.06
-3.66
-3.03
-2.31
-1.61
-1.02
-0.51
-0.01
0.51
1.05
1.55
1.96
2.24
2.40
2.44
2.38
2.18
1.88
1.53
1.25
1.12
1.18
1.33
1.44
1.37
1.08
0.64
0.20
-0.13
-0.30
-0.36
-0.38
-0.43
-0.51
-0.58
-0.62
-0.65
-0.72
-0.93
-1.30
-1.79
-2.26
-2.56
-2.57
-2.29
-1.80
-1.27
-0.81
-0.48
-0.27
-0.08
0.15
0.42
0.73
1.00
1.23
1.43
1.61
1.77
1.88
1.88
1.75
1.50
1.20
0.91
0.66
0.47
0.34
0.27
0.26
0.29
0.34
0.37
0.35
0.29
0.18
-0.01
-0.30
-0.71
-1.24
-1.79
-2.27
-2.56
-2.63
-2.49
-2.22
-1.90
-1.62
-1.41
-1.27
-1.17
-1.04
-0.79
-0.36
0.23
0.92
1.56
2.00
2.17
2.10
1.84
1.53
1.22
0.96
0.74
0.56
0.37
0.15
-0.11
-0.41
-0.73
-1.01
-1.21
-1.31
-1.38
-1.49
-1.72
-2.10
-2.58
-3.06
-3.46
-3.72
-3.87
-3.98
-4.11
-4.30
-4.52
-4.71
-4.81
-4.80
-4.71
-4.62
-4.55
-4.51
-4.43
-4.18
-3.67
-2.87
-1.89
-0.89
-0.09
0.38
0.52
0.46
0.39
0.47
0.74
1.09
1.36
1.42
1.24
0.90
0.53
0.25
0.05
-0.12
-0.34
-0.61
-0.85
-0.95
-0.84
-0.58
-0.30
-0.13
-0.13
-0.26
-0.41
-0.47
-0.41
-0.24
-0.03
0.21
0.46
0.74
1.03
1.32
1.62
1.97
2.43
3.07
3.86
4.70
5.47
6.01
6.27
6.26
6.04
5.72
5.41
5.18
5.05
4.99
4.94
4.83
4.62
4.31
3.96
3.67
3.48
3.41
3.40
3.36
3.22
2.95
2.57
2.16
1.78
1.42
1.07
0.66
0.20
-0.28
-0.65
-0.84
-0.81
-0.62
-0.36
-0.12
0.11
0.35
0.68
1.08
1.50
1.83
2.03
2.14
2.23
2.35
2.51
2.62
2.57
2.29
1.78
1.16
0.51
-0.04
-0.48
-0.78
-0.96
-1.07
-1.13
-1.20
-1.32
-1.48
-1.64
-1.75
-1.81
-1.82
-1.85
-1.96
-2.19
-2.53
-2.91
-3.26
-3.50
-3.55
-3.41
-3.07
-2.56
-1.96
-1.32
-0.69
-0.09
0.48
0.98
1.39
1.63
1.68
1.54
1.26
0.93
0.65
0.52
0.59
0.84
1.22
1.64
1.96
2.10
2.07
1.88
1.63
1.37
1.12
0.87
0.58
0.22
-0.22
-0.68
-1.13
-1.50
-1.75
-1.86
-1.88
-1.87
-1.92
-2.05
-2.24
-2.34
-2.20
-1.72
-0.92
0.06
1.04
1.87
2.49
2.93
3.24
3.45
3.57
3.56
3.43
3.21
2.96
2.78
2.76
2.96
3.34
3.80
4.20
4.41
4.39
4.21
3.99
3.83
3.71
3.53
3.16
2.57
1.82
1.10
0.58
0.31
0.23
0.18
0.00
-0.33
-0.73
-1.02
-1.05
-0.76
-0.26
0.30
0.72
0.92
0.91
0.77
0.62
0.49
0.37
0.14
-0.30
-1.05
-2.15
-3.55
-5.21
-7.00
-8.84
-10.65
-12.44
-14.31
-16.46
-19.01
-21.99
-25.18
-28.27
-30.97
-33.14
-34.77
-35.96
-36.67
-36.75
-35.93
-34.03
-31.11
-27.47
-23.52
-19.59
-15.82
-12.13
-8.45
-4.77
-1.21
2.03
4.79
7.02
8.81
10.35
11.82
13.39
15.11
16.95
18.78
20.41
21.67
22.42
22.62
22.32
21.68
20.93
20.34
20.08
20.16
20.41
20.55
20.29
19.53
18.36
17.03
15.80
14.74
13.81
12.87
11.89
10.94
10.12
9.45
8.81
8.01
6.97
5.83
4.85
4.25
4.00
3.75
3.02
1.51
-0.70
-3.09
-4.98
-5.85
-5.56
-4.35
-2.70
-1.07
0.25
1.07
1.26
0.68
-0.80
-3.12
-5.97
-8.71
-10.50
-10.55
-8.40
-4.07
1.84
8.37
14.43
19.17
22.18
23.65
24.22
24.76
25.98
28.21
31.25
34.39
36.62
36.97
34.75
29.83
22.74
14.55
6.59
0.11
-4.06
-5.71
-5.23
-3.50
-1.58
-0.45
-0.65
-2.17
-4.46
-6.66
-7.94
-7.68
-5.72
-2.23
2.37
7.66
13.37
19.44
25.88
32.57
38.89
43.54
44.76
40.78
30.68
14.96
-4.43
-24.63
-42.78
-56.87
-66.17
-70.94
-71.99
-69.98
-65.33
-58.59
-50.80
-43.33
-37.47
-33.78
-31.82
-30.46
-28.12
-23.70
-17.31
-10.22
-4.09
-0.06
1.76
2.29
2.76
4.59
8.57
14.19
19.49
21.73
18.26
7.56
-10.10
-32.59
-55.33
-72.54
-79.27
-73.12
-54.93
-28.44
0.97
29.70
52.31
65.20
69.03
67.76
65.25
63.06
60.87
57.91
54.19
50.10
46.75
44.84
43.94
42.72
39.86
34.76
27.60
19.79
12.24
5.76
0.71
-3.24
-6.98
-11.51
-17.50
-25.15
-34.13
-43.90
-53.31
-60.92
-65.57
-66.72
-64.55
-59.77
-53.38
-46.38
-39.63
-33.38
-27.35
-21.07
-14.12
-6.46
1.49
8.86
14.54
17.41
16.69
12.24
4.59
-4.94
-14.46
-21.84
-25.34
-24.18
-18.91
-11.21
-3.22
3.21
7.17
8.75
8.68
7.81
6.66
5.38
3.95
2.51
1.39
0.98
1.40
2.40
3.44
3.90
3.39
1.95
0.03
-1.71
-2.70
-2.65
-1.68
-0.26
1.06
1.88
2.10
1.92
1.70
1.75
2.19
2.93
3.77
4.47
4.89
5.00
4.85
4.55
4.23
3.99
3.88
3.90
3.95
3.92
3.71
3.32
2.83
2.34
1.89
1.43
0.89
0.22
-0.53
-1.25
-1.81
-2.17
-2.32
-2.31
-2.13
-1.76
-1.20
-0.46
0.38
1.21
1.92
2.48
2.86
3.06
3.06
2.84
2.41
1.87
1.37
1.04
0.91
0.94
1.03
1.11
1.16
1.21
1.28
1.36
1.39
1.34
1.18
0.95
0.69
0.43
0.15
-0.19
-0.64
-1.19
-1.77
-2.28
-2.61
-2.72
-2.62
-2.34
-1.97
-1.54
-1.10
-0.63
-0.16
0.32
0.77
1.14
1.39
1.53
1.63
1.78
2.03
2.37
2.71
2.96
3.02
2.90
2.65
2.37
2.11
1.88
1.62
1.26
0.74
0.11
-0.57
-1.17
-1.64
-1.98
-2.25
-2.54
-2.86
-3.14
-3.25
-3.09
-2.63
-1.94
-1.16
-0.40
0.31
0.98
1.60
2.10
2.37
2.36
2.08
1.71
1.41
1.29
1.33
1.38
1.31
1.05
0.68
0.37
0.23
0.28
0.42
0.49
0.39
0.11
-0.26
-0.60
-0.89
-1.16
-1.49
-1.89
-2.30
-2.61
-2.68
-2.48
-2.07
-1.56
-1.04
-0.56
-0.11
0.33
0.78
1.21
1.62
1.99
2.28
2.45
2.46
2.31
2.05
1.80
1.63
1.52
1.40
1.19
0.87
0.51
0.23
0.14
0.21
0.31
0.29
0.00
-0.54
-1.23
-1.90
-2.39
-2.64
-2.62
-2.38
-1.97
-1.43
-0.81
-0.18
0.41
0.90
1.26
1.53
1.77
2.02
2.24
2.37
2.36
2.20
1.96
1.74
1.62
1.59
1.62
1.65
1.69
1.79
1.96
2.17
2.33
2.32
2.08
1.65
1.17
0.77
0.50
0.31
0.09
-0.29
-0.83
-1.46
-2.04
-2.43
-2.55
-2.40
-2.01
-1.42
-0.67
0.17
1.03
1.81
2.43
2.84
3.07
3.19
3.30
3.44
3.58
3.62
3.48
3.17
2.81
2.62
2.83
3.51
4.55
5.63
6.39
6.59
6.21
5.47
4.66
4.03
3.71
3.66
3.76
3.80
3.55
2.77
1.28
-0.94
-3.67
-6.43
-8.62
-9.77
-9.80
-9.05
-8.20
-7.91
-8.52
-9.88
-11.46
-12.63
-12.99
-12.50
-11.42
-10.14
-8.95
-7.90
-6.87
-5.68
-4.24
-2.55
-0.71
1.14
2.88
4.42
5.70
6.75
7.60
8.32
8.91
9.33
9.49
9.35
9.01
8.69
8.68
9.17
10.15
11.37
12.47
13.09
13.00
12.20
10.89
9.35
7.85
6.53
5.44
4.50
3.57
2.51
1.20
-0.39
-2.21
-4.08
-5.70
-6.72
-6.86
-6.07
-4.53
-2.64
-0.86
0.47
1.23
1.52
1.57
1.60
1.72
1.92
2.18
2.55
3.19
4.24
5.72
7.37
8.74
9.34
8.88
7.50
5.71
4.17
3.35
3.30
3.62
3.74
3.20
1.91
0.20
-1.41
-2.45
-2.72
