1660932813.00
64.000000
-0.00
-0.00
-0.00
-0.00
-0.00
-0.00
-0.00
-0.00
-0.00
-0.00
0.00
0.01
0.01
-0.00
-0.03
-0.05
-0.05
0.00
0.13
0.36
0.66
1.01
1.37
1.72
2.06
2.40
2.79
3.25
3.81
4.44
5.09
5.73
6.32
6.90
7.53
8.27
9.15
10.25
11.46
12.65
13.74
14.68
15.57
16.58
17.94
19.77
22.25
25.18
28.25
31.21
33.93
36.53
39.38
42.90
47.36
53.07
59.62
66.49
73.14
79.35
85.31
91.62
98.95
107.72
118.26
129.91
141.82
153.23
163.85
174.01
184.57
196.82
209.23
223.65
240.31
259.17
279.23
298.05
311.85
316.36
308.22
286.11
251.75
208.37
160.03
110.22
61.09
13.60
-31.86
-75.01
-115.52
-153.04
-188.24
-222.49
-257.42
-294.02
-331.59
-367.37
-396.96
-415.84
-420.88
-411.79
-391.25
-363.84
-334.25
-305.75
-279.62
-255.56
-232.83
-210.98
-190.29
-171.37
-154.49
-139.36
-125.21
-111.25
-97.05
-82.78
-69.07
-56.71
-46.29
-37.88
-31.01
-24.95
-18.97
-12.70
-6.25
-0.11
5.18
9.26
12.16
14.26
16.08
18.06
20.32
22.69
24.82
26.35
27.12
27.16
26.71
26.08
25.51
25.12
24.87
24.68
24.43
24.04
23.50
22.80
21.99
21.12
20.26
19.47
18.81
18.29
17.85
17.44
17.01
16.55
16.08
15.61
15.16
14.72
14.28
13.84
13.40
12.95
12.45
11.89
11.31
10.77
10.41
10.29
10.38
10.53
10.56
10.37
9.95
9.46
9.05
8.83
8.78
8.79
8.73
8.54
8.25
7.94
7.64
7.35
6.99
6.52
5.95
5.38
4.93
4.70
4.68
4.79
4.91
4.90
4.69
4.26
3.68
3.01
2.33
1.70
1.15
0.72
0.40
0.19
0.03
-0.12
-0.36
-0.73
-1.26
-1.91
-2.60
-3.26
-3.81
-4.29
-4.75
-5.27
-5.89
-6.58
-7.26
-7.81
-8.17
-8.34
-8.40
-8.41
-8.43
-8.42
-8.36
-8.20
-7.94
-7.64
-7.34
-7.07
-6.82
-6.51
-6.06
-5.43
-4.65
-3.78
-2.97
-2.26
-1.69
-1.17
-0.65
-0.09
0.44
0.80
0.89
0.67
0.23
-0.29
-0.74
-1.04
-1.16
-1.12
-0.95
-0.64
-0.19
0.38
0.99
1.59
2.13
2.66
3.23
3.91
4.72
5.61
6.52
7.36
8.06
8.57
8.86
8.95
8.88
8.73
8.56
8.43
8.35
8.28
8.18
7.96
7.56
6.95
6.14
5.22
4.29
3.49
2.89
2.47
2.18
1.92
1.65
1.42
1.34
1.48
1.85
2.35
2.84
3.25
3.53
3.75
3.95
4.09
4.10
3.88
3.39
2.74
2.11
1.67
1.50
1.55
1.66
1.69
1.58
1.37
1.16
1.03
1.01
1.09
1.19
1.27
1.32
1.35
1.36
1.34
1.27
1.12
0.88
0.59
0.31
0.11
0.09
0.24
0.50
0.76
0.90
0.87
0.72
0.56
0.50
0.60
0.81
1.02
1.15
1.17
1.15
1.14
1.21
1.29
1.29
1.13
0.81
0.43
0.16
0.09
0.20
0.37
0.44
0.36
0.17
0.03
0.08
0.31
0.63
0.87
0.93
0.80
0.61
0.48
0.50
0.67
0.88
1.01
1.01
0.86
0.66
0.49
0.42
0.45
0.53
0.62
0.69
0.77
0.89
1.06
1.26
1.41
1.46
1.41
1.32
1.28
1.32
1.45
1.57
1.59
1.46
1.21
0.94
0.76
0.73
0.83
0.98
1.08
1.07
0.99
0.87
0.77
0.69
0.61
0.50
0.40
0.37
0.45
0.61
0.76
0.79
0.67
0.46
0.27
0.23
0.34
0.56
0.78
0.92
0.93
0.80
0.54
0.19
-0.21
-0.59
-0.86
-0.96
-0.86
-0.58
-0.18
0.25
0.61
0.83
0.88
0.80
0.64
0.47
0.38
0.40
0.50
0.61
0.67
0.61
0.40
0.06
-0.34
-0.75
-1.07
-1.25
-1.27
-1.15
-0.92
-0.64
-0.37
-0.12
0.08
0.26
0.46
0.67
0.86
1.02
1.11
1.16
1.22
1.34
1.55
1.83
2.09
2.28
2.36
2.33
2.21
2.05
1.85
1.62
1.36
1.09
0.81
0.57
0.39
0.29
0.24
0.21
0.16
0.07
-0.01
-0.02
0.08
0.28
0.53
0.71
0.73
0.56
0.22
-0.20
-0.61
-0.97
-1.22
-1.36
-1.38
-1.29
-1.11
-0.90
-0.74
-0.66
-0.67
-0.72
-0.73
-0.66
-0.49
-0.27
-0.08
0.01
-0.00
-0.10
-0.21
-0.26
-0.21
-0.07
0.11
0.28
0.38
0.41
0.36
0.27
0.14
0.02
-0.03
0.05
0.30
0.72
1.23
1.69
1.94
1.93
1.67
1.26
0.82
0.41
0.08
-0.18
-0.36
-0.46
-0.47
-0.41
-0.36
-0.35
-0.41
-0.47
-0.43
-0.24
0.05
0.30
0.35
0.14
-0.28
-0.74
-1.05
-1.11
-0.96
-0.73
-0.54
-0.43
-0.34
-0.18
0.11
0.48
0.81
0.99
0.94
0.68
0.30
-0.07
-0.33
-0.45
-0.41
-0.29
-0.19
-0.21
-0.44
-0.91
-1.58
-2.34
-3.06
-3.58
-3.82
-3.82
-3.70
-3.63
-3.73
-4.01
-4.34
-4.55
-4.48
-4.12
-3.60
-3.11
-2.79
-2.69
-2.70
-2.68
-2.50
-2.08
-1.37
-0.28
1.25
3.27
5.67
8.19
10.46
12.16
13.11
13.35
13.06
12.47
11.67
10.66
9.36
7.72
5.83
3.86
2.05
0.57
-0.51
-1.25
-1.78
-2.19
-2.51
-2.70
-2.71
-2.54
-2.25
-1.96
-1.77
-1.68
-1.67
-1.63
-1.49
-1.24
-0.94
-0.70
-0.64
-0.81
-1.15
-1.54
-1.83
-1.88
-1.64
-1.18
-0.63
-0.14
0.17
0.26
0.17
-0.04
-0.28
-0.46
-0.51
-0.36
-0.02
0.48
1.02
1.44
1.64
1.54
1.17
0.63
0.04
-0.46
-0.78
-0.88
-0.80
-0.63
-0.52
-0.54
-0.72
-0.98
-1.21
-1.32
-1.29
-1.16
-1.00
-0.83
-0.66
-0.51
-0.45
-0.62
-1.17
-2.14
-3.45
-4.91
-6.30
-7.53
-8.59
-9.61
-10.69
-11.85
-13.01
-14.02
-14.74
-15.03
-14.77
-13.83
-12.00
-9.17
-5.39
-0.96
3.61
7.79
11.28
14.10
16.50
18.75
20.91
22.72
23.78
23.78
22.70
20.88
18.81
16.93
15.43
14.29
13.29
12.23
10.93
9.28
7.22
4.76
2.02
-0.84
-3.56
-5.85
-7.50
-8.40
-8.53
-8.00
-6.99
-5.73
-4.46
-3.40
-2.65
-2.22
-2.04
-1.98
-1.94
-1.88
-1.82
-1.82
-1.93
-2.15
-2.44
-2.73
-2.98
-3.21
-3.41
-3.58
-3.65
-3.58
-3.35
-3.04
-2.78
-2.67
-2.74
-2.91
-3.03
-2.99
-2.79
-2.53
-2.31
-2.20
-2.17
-2.12
-1.97
-1.74
-1.52
-1.41
-1.41
-1.45
-1.36
-1.00
-0.33
0.52
1.34
1.89
2.04
1.79
1.28
0.72
0.28
0.06
0.04
0.13
0.20
0.18
0.06
-0.11
-0.26
-0.34
-0.38
-0.40
-0.46
-0.58
-0.71
-0.79
-0.78
-0.69
-0.58
-0.52
-0.54
-0.62
-0.69
-0.66
-0.54
-0.37
-0.24
-0.22
-0.31
-0.45
-0.56
-0.57
-0.44
-0.25
-0.05
0.11
0.21
0.26
0.29
0.30
0.28
0.22
0.11
-0.02
-0.11
-0.10
0.01
0.24
0.54
0.88
1.24
1.58
1.81
1.87
1.66
1.18
0.50
-0.23
-0.84
-1.17
-1.19
-0.93
-0.53
-0.15
0.05
0.01
-0.24
-0.58
-0.83
-0.87
-0.70
-0.40
-0.11
0.04
0.03
-0.11
-0.29
-0.46
-0.62
-0.79
-0.99
-1.18
-1.27
-1.20
-0.93
-0.53
-0.09
0.29
0.58
0.82
1.07
1.37
1.65
1.84
1.89
1.84
1.78
1.84
2.06
2.38
2.64
2.72
2.57
2.23
1.83
1.49
1.27
1.16
1.12
1.07
0.98
0.85
0.67
0.46
0.23
0.01
-0.19
-0.37
-0.57
-0.82
-1.12
-1.43
-1.67
-1.79
-1.78
-1.68
-1.58
-1.50
-1.43
-1.29
-1.02
-0.65
-0.25
0.04
0.13
0.02
-0.18
-0.33
-0.30
-0.09
0.21
0.44
0.48
0.31
-0.00
-0.31
-0.49
-0.53
-0.50
-0.52
-0.68
-0.92
-1.13
-1.19
-1.07
-0.85
-0.72
-0.78
-1.03
-1.33
-1.47
-1.34
-0.96
-0.48
-0.12
0.02
-0.08
-0.30
-0.48
-0.54
-0.49
-0.43
-0.47
-0.69
-1.07
-1.52
-1.93
-2.22
-2.38
-2.42
-2.38
-2.27
-2.10
-1.92
-1.79
-1.76
-1.87
-2.10
-2.39
-2.66
-2.81
-2.77
-2.47
-1.86
-0.92
0.28
1.61
2.91
4.01
4.80
5.26
5.46
5.47
5.37
5.18
4.90
4.50
3.97
3.34
2.65
1.96
1.34
0.83
0.46
0.24
0.15
0.14
0.19
0.22
0.20
0.10
-0.06
-0.23
-0.34
-0.33
-0.19
0.02
0.20
0.22
0.05
-0.31
-0.75
-1.14
-1.38
-1.41
-1.28
-1.11
-0.99
-0.97
-1.03
-1.12
-1.15
-1.10
-1.00
-0.91
-0.90
-0.97
-1.07
-1.11
-1.02
-0.79
-0.48
-0.20
-0.03
0.03
0.01
0.00
0.10
0.34
0.68
1.03
1.25
1.27
1.10
0.82
0.56
0.42
0.40
0.46
0.48
0.43
0.32
0.22
0.19
0.27
0.42
0.58
0.69
0.72
0.68
0.56
0.37
0.08
-0.32
-0.80
-1.28
-1.64
-1.74
-1.53
-1.03
-0.35
0.36
0.91
1.23
1.31
1.21
1.04
0.87
0.72
0.58
0.42
0.22
0.01
-0.21
-0.38
-0.43
-0.31
-0.03
0.29
0.51
0.47
0.10
-0.50
-1.11
-1.48
-1.49
-1.15
-0.63
-0.13
0.22
0.41
0.53
0.66
0.86
1.11
1.36
1.59
1.79
2.00
2.22
2.46
2.68
2.84
2.92
2.94
2.97
3.13
3.53
4.25
5.26
6.42
7.48
8.20
8.45
8.29
7.89
7.52
7.36
7.42
7.58
7.58
7.16
6.18
4.67
2.89
1.24
0.14
-0.16
0.33
1.26
2.01
1.99
0.79
-1.55
-4.54
-7.44
-9.43
-9.90
-8.55
-5.73
-2.58
-1.00
-3.14
-10.47
-22.97
-38.79
-54.80
-67.85
-76.13
-79.85
-80.87
-81.50
-83.32
-86.52
-90.20
-93.23
-95.03
-95.75
-95.98
-96.17
-96.42
-96.72
-97.27
-98.43
-100.41
-102.42
-102.40
-97.57
-85.76
-66.71
-42.47
-16.59
7.57
28.26
45.60
60.73
74.38
86.03
94.17
97.44
95.77
90.63
84.37
78.89
74.84
71.55
67.75
62.49
55.62
47.87
40.23
33.51
27.93
23.21
18.92
14.84
11.24
8.70
7.80
8.70
10.90
13.40
15.05
15.05
13.20
9.89
5.84
1.81
-1.61
-4.07
-5.42
-5.71
-5.11
-3.90
-2.40
-0.86
0.56
1.75
2.67
3.32
3.74
4.04
4.45
5.20
6.47
8.27
10.47
12.94
15.69
18.93
22.88
27.64
33.04
38.82
44.94
51.88
60.53
71.87
86.31
103.34
121.57
139.18
154.74
167.68
178.43
188.09
197.81
208.45
220.41
233.70
247.96
262.20
274.65
282.74
283.61
274.95
255.91
227.46
192.02
152.53
111.22
68.93
25.08
-21.31
-70.28
-119.95
-166.46
-205.05
-231.75
-244.91
-245.75
-237.73
-225.07
-211.21
-197.92
-185.44
-173.34
-161.34
-149.81
-139.43
-130.67
-123.32
-116.50
-109.17
-100.67
-91.10
-81.28
-72.37
-65.27
-60.23
-56.77
-53.98
-50.89
-46.94
-42.14
-36.97
-32.09
-28.00
-24.87
-22.47
-20.35
-18.09
-15.47
-12.58
-9.76
-7.39
-5.75
-4.82
-4.36
-3.99
-3.36
-2.33
-1.00
0.37
1.49
2.15
2.30
2.05
1.60
1.15
0.85
0.78
0.91
1.16
1.38
1.41
1.06
0.20
-1.19
-2.95
-4.79
-6.33
-7.28
-7.53
-7.23
-6.68
-6.20
-6.00
-6.04
-6.10
-5.82
-4.93
-3.31
-1.08
1.49
4.04
6.27
8.00
9.19
9.92
10.32
10.55
10.74
10.94
11.11
11.06
10.53
9.28
7.21
4.48
1.52
-1.10
-2.95
-3.80
-3.75
-3.12
-2.27
-1.48
-0.89
-0.54
-0.41
-0.48
-0.72
-1.07
-1.42
-1.68
-1.82
-1.86
-1.89
-1.99
-2.19
-2.47
-2.78
-3.09
-3.36
-3.54
-3.60
-3.50
-3.23
-2.84
-2.44
-2.11
-1.92
-1.84
-1.77
-1.63
-1.37
-1.05
-0.81
-0.78
-1.04
-1.57
-2.24
-2.87
-3.29
-3.38
-3.13
-2.62
-1.99
-1.38
-0.90
-0.61
-0.48
-0.43
-0.35
-0.13
0.32
1.03
1.98
3.06
4.13
4.99
5.47
5.44
4.88
3.89
2.69
1.54
0.65
0.11
-0.13
-0.24
-0.39
-0.67
-1.03
-1.37
-1.53
-1.44
-1.15
-0.77
-0.46
-0.31
-0.36
-0.55
-0.80
-1.04
-1.25
-1.38
-1.38
-1.17
-0.68
0.09
1.04
1.98
2.72
3.14
3.25
3.16
3.04
2.98
2.96
2.87
2.55
1.92
1.02
0.00
-0.91
-1.52
-1.77
-1.70
-1.45
-1.15
-0.93
-0.80
-0.73
-0.70
-0.70
-0.74
-0.85
-0.98
-1.10
-1.13
-1.03
-0.84
-0.62
-0.41
-0.26
-0.16
-0.11
-0.12
-0.18
-0.24
-0.23
-0.04
0.38
0.99
1.58
1.90
1.72
1.00
-0.12
-1.33
-2.29
-2.77
-2.78
-2.49
-2.13
-1.93
-1.92
-2.02
-2.10
-2.03
-1.79
-1.45
-1.12
-0.86
-0.72
-0.68
-0.72
-0.85
-1.06
-1.30
-1.49
-1.50
-1.28
-0.82
-0.23
0.38
0.85
1.13
1.18
1.03
0.73
0.33
-0.09
-0.45
-0.66
-0.67
-0.50
-0.20
0.11
0.37
0.56
0.69
0.78
0.80
0.69
0.39
-0.14
-0.82
-1.50
-2.02
-2.26
-2.22
-1.98
-1.64
-1.32
-1.02
-0.75
-0.49
-0.27
-0.14
-0.06
0.05
0.41
1.21
2.51
4.13
5.72
6.88
7.31
6.97
6.02
4.75
3.41
2.17
1.04
0.02
-0.86
-1.53
-1.89
-1.92
-1.66
-1.23
-0.82
-0.59
-0.65
-1.03
-1.66
-2.42
-3.11
-3.60
-3.78
-3.58
-3.02
-2.18
-1.19
-0.26
0.39
0.57
0.23
-0.50
-1.39
-2.16
-2.61
-2.68
-2.44
-2.02
-1.57
-1.15
-0.78
-0.46
-0.13
0.26
0.78
1.43
2.18
2.90
3.42
3.57
3.27
2.57
1.64
0.71
0.01
-0.30
-0.21
0.19
0.71
1.14
1.33
1.26
0.99
0.70
0.65
1.05
2.03
3.54
5.31
6.96
8.05
8.31
7.67
6.32
4.59
2.85
1.32
0.08
-0.90
-1.70
-2.32
-2.71
-2.82
-2.70
-2.50
-2.44
-2.69
-3.24
-3.89
-4.36
-4.38
-3.92
-3.14
-2.38
-1.93
-1.91
-2.23
-2.65
-2.91
-2.82
-2.40
-1.75
-1.07
-0.50
-0.14
0.02
0.01
-0.07
-0.16
-0.21
-0.18
-0.02
0.30
0.77
1.34
1.93
2.40
2.65
2.62
2.34
1.89
1.35
0.76
0.12
-0.56
-1.23
-1.78
-2.08
-2.09
-1.86
-1.54
-1.27
-1.13
-1.05
-0.93
-0.67
-0.27
0.22
0.73
1.25
1.82
2.44
3.07
3.54
3.67
3.36
2.66
1.78
0.96
0.36
0.01
-0.21
-0.46
-0.82
-1.29
-1.78
-2.18
-2.46
-2.70
-3.03
-3.54
-4.22
-4.91
-5.37
-5.43
-5.07
-4.45
-3.82
-3.36
-3.14
-3.11
-3.17
-3.26
-3.45
-3.78
-4.30
-4.97
-5.70
-6.41
-7.09
-7.81
-8.64
-9.65
-10.89
-12.38
-14.12
-16.04
-17.89
-19.27
-19.78
-19.21
-17.80
-16.27
-15.58
-16.61
-19.74
-24.79
-31.06
-37.73
-44.23
-50.49
-56.96
-64.42
-73.57
-84.60
-97.09
-109.95
-121.91
-131.91
-139.64
-145.67
-151.24
-157.83
-166.65
-178.35
-192.78
-208.91
-224.70
-237.32
-243.56
-240.67
-227.23
-203.62
-171.85
-134.71
-94.60
-52.66
-8.78
37.53
85.90
134.13
178.33
213.91
237.31
247.32
245.48
235.37
221.11
205.92
191.37
177.70
164.66
152.40
141.65
133.40
128.14
125.37
123.72
121.50
117.48
111.34
103.73
95.81
88.63
82.69
77.81
73.35
68.60
63.20
57.28
51.40
46.30
42.48
40.07
38.71
37.82
36.77
35.22
33.23
31.21
29.70
29.13
29.57
30.75
32.17
33.39
34.27
35.06
36.23
38.21
41.22
45.10
49.46
53.80
57.80
61.42
64.90
68.66
73.09
78.39
84.47
91.02
97.71
104.31
110.83
117.42
124.23
131.27
138.60
146.46
155.37
165.68
176.93
187.22
193.29
191.38
178.63
154.15
119.29
76.90
30.06
-18.68
-67.34
-113.86
-155.62
-189.53
-212.98
-225.00
-226.80
-221.33
-212.11
-201.98
-192.42
-183.75
-175.69
-168.08
-161.16
-155.44
-151.29
-148.61
-146.68
-144.33
-140.38
-134.26
-126.35
-118.01
-111.09
-107.02
-106.18
-107.57
-109.32
-109.63
-107.75
-104.32
-101.09
-99.99
-102.13
-107.21
-113.55
-118.79
-120.86
-118.90
-113.63
-107.11
-102.00
-100.57
-103.94
-111.56
-121.16
-129.15
-131.33
-123.69
-103.38
-69.53
-23.93
28.95
82.79
131.14
169.24
195.48
211.52
221.09
228.28
235.84
244.52
253.56
261.73
268.37
273.73
278.59
283.58
288.82
294.09
299.11
303.72
307.45
309.08
306.46
296.97
278.44
250.04
212.74
168.74
120.46
69.56
16.83
-37.16
-90.97
-141.63
-185.00
-217.18
-236.01
-242.07
-238.38
-229.12
-217.98
-207.14
-197.09
-187.34
-177.40
-167.23
-157.22
-147.80
-139.00
-130.50
-121.99
-113.43
-105.23
-97.95
-91.95
-87.14
-82.96
-78.73
-74.07
-69.19
-64.81
-61.80
-60.71
-61.42
-63.08
-64.47
-64.55
-62.91
-60.13
-57.73
-57.80
-62.22
-71.53
-84.06
-95.65
-100.37
-92.20
-67.31
-25.78
27.89
85.99
140.04
183.50
213.57
231.39
240.79
246.09
249.99
252.46
250.86
241.20
219.80
184.95
137.81
82.33
24.12
-30.87
-78.06
-115.08
-141.90
-160.34
-172.94
-181.96
-188.65
-192.91
-193.72
-190.06
-181.92
-171.03
-160.70
-154.58
-155.32
-163.55
-177.88
-195.86
-214.94
-233.11
-248.38
-258.28
-259.62
-249.22
-225.39
-188.97
-143.17
-92.31
-40.06
11.40
60.96
107.55
149.15
182.94
206.39
218.55
220.57
215.26
205.83
194.85
183.74
172.99
162.77
153.35
145.14
138.37
132.85
127.89
122.69
116.71
109.92
102.82
96.22
90.82
86.92
84.31
82.42
80.64
78.60
76.34
74.20
72.66
72.06
72.49
73.81
75.75
78.07
80.62
83.35
86.33
89.61
93.21
97.11
101.22
105.53
110.13
115.23
121.11
127.95
135.76
144.44
153.91
164.05
174.45
183.96
190.48
191.16
183.23
165.01
136.47
99.14
55.35
7.51
-42.10
-90.99
-135.97
-173.34
-199.76
-213.53
-215.47
-208.73
-197.48
-185.31
-174.12
-164.12
-154.61
-145.01
-135.46
-126.71
-119.57
-114.36
-110.64
-107.43
-103.70
-98.69
-92.27
-84.83
-77.00
-69.42
-62.50
-56.40
-51.11
-46.59
-42.78
-39.59
-36.84
-34.15
-31.09
-27.33
-22.80
-17.83
-12.97
-8.84
-5.87
-4.11
-3.14
-2.24
-0.64
2.12
6.01
10.48
14.71
17.96
19.84
20.42
20.06
19.13
17.84
16.20
14.19
