1660328866.00
64.000000
-0.00
-0.00
-0.00
-0.00
-0.00
-0.00
-0.00
-0.00
-0.00
-0.00
0.00
0.01
0.01
-0.00
-0.03
-0.05
-0.05
0.00
0.13
0.36
0.66
1.01
1.37
1.72
2.06
2.40
2.79
3.24
3.80
4.42
5.06
5.66
6.20
6.68
7.15
7.68
8.31
9.14
10.09
11.04
11.88
12.56
13.14
13.76
14.65
15.96
17.91
20.32
22.90
25.38
27.58
29.57
31.68
34.32
37.81
42.54
48.15
54.10
59.83
64.97
69.58
74.14
79.34
85.71
93.76
103.00
112.62
121.73
129.77
136.75
143.30
150.75
157.77
166.64
177.95
191.79
206.97
220.57
228.25
225.36
208.53
176.87
132.76
80.05
23.07
-34.94
-92.44
-149.16
-205.23
-260.37
-313.74
-363.87
-409.83
-450.91
-486.50
-515.74
-537.23
-549.22
-549.96
-538.37
-514.21
-478.67
-433.88
-382.45
-327.02
-269.84
-212.63
-156.66
-102.95
-52.37
-5.90
35.58
71.43
101.35
125.50
144.38
158.69
169.15
176.37
180.75
182.57
182.07
179.51
175.23
169.65
163.18
156.14
148.81
141.30
133.69
126.03
118.35
110.71
103.19
95.86
88.77
81.94
75.39
69.14
63.18
57.52
52.18
47.16
42.45
38.06
33.99
30.20
26.72
23.52
20.60
17.96
15.59
13.48
11.63
10.03
8.65
7.50
6.54
5.77
5.16
4.71
4.40
4.20
4.11
4.12
4.23
4.40
4.66
4.98
5.37
5.81
6.31
6.87
7.47
8.14
8.85
9.62
10.44
11.32
12.24
13.22
14.26
15.34
16.50
17.73
19.03
20.40
21.82
23.27
24.70
26.01
27.13
27.90
28.21
27.92
26.92
25.13
22.54
19.18
15.12
10.52
5.59
0.56
-4.32
-8.82
-12.75
-15.93
-18.30
-19.81
-20.49
-20.42
-19.73
-18.56
-17.02
-15.25
-13.35
-11.39
-9.41
-7.40
-5.39
-3.39
-1.40
0.62
2.69
4.82
7.05
9.42
11.96
14.62
17.37
20.21
23.15
26.21
29.43
32.82
36.47
40.43
44.56
48.77
53.03
57.35
61.78
66.34
71.11
76.14
81.57
87.16
92.81
98.48
104.22
110.08
116.11
122.36
128.84
135.60
142.13
148.11
153.25
157.29
159.92
160.64
158.66
152.68
144.53
134.61
123.24
110.77
97.67
84.43
71.49
59.08
47.23
35.89
24.46
12.68
0.60
-11.44
-22.99
-33.70
-43.54
-52.84
-62.11
-72.22
-83.63
-96.25
-109.65
-123.14
-136.22
-148.75
-160.96
-173.44
-187.15
-203.12
-222.24
-244.83
-270.13
-295.95
-318.78
-334.65
-340.39
-334.84
-319.19
-296.48
-270.40
-244.05
-219.26
-196.59
-175.89
-156.94
-139.73
-124.29
-110.44
-97.68
-85.26
-72.64
-59.68
-46.78
-34.74
-24.38
-16.19
-10.13
-5.55
-1.54
2.83
8.03
14.01
20.23
25.90
30.36
33.28
34.84
35.57
36.16
37.23
39.09
41.72
44.89
48.35
52.00
55.93
60.31
65.22
70.47
75.61
79.99
83.00
84.25
83.58
81.09
77.01
71.62
65.21
58.10
50.62
43.21
36.40
30.76
26.83
24.90
25.00
26.73
29.36
32.02
33.79
34.01
32.31
28.71
23.59
17.64
11.61
6.27
2.14
-0.60
-2.04
-2.51
-2.43
-2.12
-1.76
-1.39
-0.93
-0.34
0.39
1.14
1.78
2.29
2.82
3.76
5.52
8.29
11.84
15.47
18.33
19.74
19.50
17.99
15.91
13.93
12.43
11.34
10.34
9.06
7.32
5.17
2.86
0.64
-1.29
-2.89
-4.25
-5.52
-6.87
-8.36
-9.91
-11.34
-12.44
-13.11
-13.37
-13.33
-13.02
-12.38
-11.24
-9.43
-6.94
-3.99
-0.92
1.90
4.19
5.82
6.84
7.35
7.52
7.55
7.58
7.71
7.95
8.22
8.47
8.62
8.62
8.48
8.17
7.70
7.09
6.42
5.80
5.36
5.16
5.19
5.32
5.33
4.89
3.73
1.69
-1.12
-4.34
-7.41
-9.78
-11.18
-11.71
-11.84
-12.16
-13.04
-14.46
-15.95
-16.77
-16.26
-14.13
-10.64
-6.55
-2.79
-0.09
1.26
1.59
1.52
1.69
2.40
3.45
4.30
4.38
3.35
1.26
-1.59
-4.80
-7.93
-10.44
-11.55
-10.37
-6.23
0.70
9.13
16.94
22.00
23.13
20.68
16.23
11.62
7.92
5.11
2.47
-0.28
-2.34
-1.88
2.68
11.39
21.91
30.31
32.77
27.45
15.54
1.00
-10.29
-12.30
-0.75
25.04
61.07
98.73
126.77
134.86
117.59
77.06
22.58
-32.54
-75.62
-98.59
-99.90
-83.79
-57.86
-30.47
-8.73
2.60
1.56
-10.91
-31.40
-55.03
-76.72
-92.19
-99.06
-97.05
-87.82
-74.47
-60.81
-50.42
-45.57
-46.26
-50.06
-53.11
-51.60
-43.38
-28.85
-10.73
7.17
21.49
30.38
33.79
33.02
29.93
26.38
23.94
23.61
25.48
28.35
29.82
27.23
19.06
6.05
-8.63
-20.52
-25.85
-23.22
-13.98
-1.25
11.76
23.25
33.13
42.30
51.48
60.47
68.30
73.92
76.98
78.14
78.62
79.63
81.84
85.20
89.10
92.80
95.62
96.99
96.35
93.19
87.16
78.35
67.34
55.04
42.42
30.12
18.35
6.93
-4.42
-15.76
-26.83
-36.90
-45.02
-50.22
-52.04
-51.09
-49.08
-48.48
-51.58
-59.35
-71.00
-84.25
-96.31
-104.82
-108.43
-106.68
-99.71
-88.02
-72.56
-54.86
-37.02
-21.25
-9.24
-1.67
1.69
1.67
-0.90
-5.47
-11.74
-19.35
-27.70
-35.87
-42.69
-46.92
-47.41
-43.16
-33.68
-19.11
-0.47
20.43
41.15
59.07
71.97
78.35
77.74
70.67
58.55
43.32
27.14
12.08
-0.24
-8.87
-13.65
-15.14
-14.39
-12.53
-10.52
-9.00
-8.29
-8.58
-9.87
-12.02
-14.68
-17.29
-19.28
-20.34
-20.55
-20.36
-20.45
-21.39
-23.41
-26.35
-29.68
-32.73
-34.95
-36.03
-35.92
-34.75
-32.72
-29.94
-26.32
-21.63
-15.61
-8.28
0.03
8.76
17.28
25.10
31.96
37.68
42.08
45.03
46.52
46.81
46.55
46.55
47.46
49.36
51.60
53.00
52.43
49.50
44.82
39.77
35.86
33.96
34.04
35.22
36.42
37.03
37.10
37.11
37.44
37.88
37.61
35.68
31.51
25.22
17.46
9.06
0.57
-7.79
-16.07
-24.39
-32.69
-40.75
-48.14
-54.35
-58.83
-61.05
-60.69
-57.67
-52.27
-44.98
-36.42
-27.11
-17.40
-7.51
2.36
11.98
20.97
28.98
35.67
40.76
43.94
44.93
43.50
39.59
33.52
26.01
18.14
11.00
5.46
1.86
0.08
-0.37
0.01
0.88
2.14
3.83
5.90
8.18
10.29
11.85
12.61
12.51
11.63
10.07
7.89
5.15
2.02
-1.12
-3.71
-5.21
-5.37
-4.37
-2.80
-1.42
-0.86
-1.36
-2.77
-4.69
-6.74
-8.80
-11.11
-14.26
-19.00
-25.96
-35.46
-47.44
-61.54
-77.36
-94.64
-113.39
-133.87
-156.39
-181.14
-208.07
-236.87
-266.68
-295.93
-322.05
-341.69
-351.42
-348.73
-332.97
-305.62
-269.88
-229.70
-188.88
-150.55
-116.93
-89.35
-68.09
-52.25
-39.79
-28.08
-14.90
0.70
18.03
35.26
50.41
62.27
70.69
76.29
79.80
81.73
82.38
82.27
82.36
83.93
87.94
94.46
102.50
110.35
116.50
120.26
122.02
122.87
123.89
125.67
128.26
131.45
135.13
139.34
143.96
148.32
151.14
150.93
146.68
138.48
127.66
116.34
106.57
99.51
95.00
91.75
88.03
82.41
74.39
64.37
53.29
42.19
31.77
22.52
14.91
9.65
7.57
9.27
14.63
22.65
31.68
39.88
45.71
48.03
46.19
39.95
29.68
16.53
2.42
-10.42
-20.16
-26.00
-28.33
-28.43
-27.76
-27.42
-27.98
-29.55
-32.15
-35.76
-40.20
-45.01
-49.36
-52.38
-53.38
-52.20
-49.18
-44.99
-40.27
-35.40
-30.46
-25.37
-20.09
-14.85
-10.07
-6.14
-3.06
-0.24
3.34
8.65
16.10
25.19
34.72
43.28
50.01
54.93
58.98
63.48
69.59
77.83
87.95
99.06
109.91
119.18
125.76
128.93
128.48
124.86
119.00
112.22
105.68
99.94
94.61
88.27
79.02
65.18
46.01
22.07
-4.91
-32.54
-58.44
-80.69
-98.02
-109.72
-115.56
-115.70
-110.75
-101.77
-90.15
-77.36
-64.66
-52.94
-42.63
-33.75
-26.07
-19.26
-13.04
-7.33
-2.23
2.04
5.23
7.25
8.18
8.27
7.90
7.34
6.77
6.15
5.33
4.14
2.55
0.63
-1.48
-3.75
-6.30
-9.35
-12.93
-16.73
-20.06
-22.18
-22.67
-21.73
-20.21
-19.18
-19.45
-21.21
-23.98
-26.92
-29.15
-30.13
-29.69
-27.93
-25.07
-21.36
-16.96
-12.01
-6.64
-0.94
5.00
11.09
17.17
23.02
28.31
32.74
36.14
38.55
40.24
41.62
43.16
45.21
48.02
51.62
55.84
60.12
63.54
64.96
63.50
59.05
52.59
45.97
41.14
39.19
39.72
40.90
40.33
36.23
28.25
17.73
7.01
-1.50
-6.20
-6.69
-3.58
1.98
8.74
15.64
21.77
26.32
28.64
28.27
25.23
20.03
13.52
6.54
-0.48
-7.71
-15.75
-25.12
-35.81
-47.01
-57.36
-65.51
-70.77
-73.47
-74.84
-76.51
-79.69
-84.61
-90.33
-95.13
-97.17
-95.22
-89.12
-79.64
-68.00
-55.31
-42.12
-28.54
-14.60
-0.64
12.51
23.78
32.35
37.94
40.96
42.25
42.63
42.62
42.27
41.35
39.53
36.74
33.23
29.57
26.50
24.68
24.57
26.38
30.09
35.45
41.74
47.65
51.23
50.45
43.95
31.86
16.06
-0.36
-14.25
-23.51
-27.72
-27.92
-25.84
-22.90
-19.78
-16.50
-12.85
-8.88
-5.09
-2.08
-0.25
0.51
0.85
1.64
3.59
6.86
10.92
14.74
17.03
16.75
13.25
6.52
-2.96
-14.18
-25.82
-36.44
-44.88
-50.82
-55.06
-59.46
-66.34
-77.34
-92.49
-109.85
-126.00
-137.18
-140.61
-135.27
-122.04
-103.05
-80.75
-57.16
-33.48
-10.28
12.06
32.92
51.29
65.84
75.44
79.63
79.00
75.07
69.83
64.97
61.40
59.09
57.38
55.66
53.68
51.70
50.26
49.79
50.47
52.23
54.90
58.16
61.40
63.45
62.66
57.33
46.55
30.83
12.30
-5.84
-20.30
-28.74
-30.37
-25.93
-17.25
-6.56
4.03
12.79
18.56
20.78
19.55
15.57
9.99
4.21
-0.52
-3.32
-3.81
-2.26
0.52
3.32
4.80
3.82
-0.31
-7.71
-17.95
-30.07
-42.84
-54.89
-65.16
-73.22
-79.70
-86.20
-94.75
-106.79
-122.27
-139.34
-154.87
-165.69
-169.72
-166.50
-156.81
-141.75
-121.96
-97.47
-68.24
-34.92
0.65
35.70
67.25
93.00
111.78
123.64
129.51
130.83
129.31
126.59
124.12
122.79
122.83
123.85
125.16
126.19
126.85
127.57
129.11
132.20
137.05
143.08
148.78
151.69
148.80
137.36
115.80
84.59
46.53
6.17
-31.48
-62.32
-84.09
-96.62
-101.22
-99.90
-94.55
-86.60
-76.89
-65.84
-53.55
-39.89
-24.70
-8.03
9.61
27.02
42.56
54.55
61.79
64.01
61.74
55.98
47.55
36.76
23.49
7.59
-10.56
-29.82
-48.56
-65.19
-78.63
-88.49
-94.84
-97.98
-98.48
-97.36
-96.18
-96.60
-99.53
-104.37
-108.93
-110.27
-106.12
-95.96
-81.23
-64.51
-48.22
-33.65
-20.73
-8.58
3.71
16.55
29.78
42.87
55.18
66.03
74.89
81.50
86.06
89.17
91.43
92.93
92.97
90.26
83.69
73.02
59.23
44.32
30.53
19.64
12.50
9.06
8.67
10.35
12.92
14.96
14.96
11.57
4.22
-6.55
-18.95
-30.54
-38.96
-42.80
-42.00
-37.69
-31.48
-24.68
-17.77
-10.34
-1.59
9.14
22.02
36.74
52.85
70.00
88.08
107.02
126.52
145.90
164.11
180.00
192.61
201.42
206.50
208.43
208.28
207.31
206.39
205.35
202.47
194.63
178.32
151.22
113.72
69.55
24.97
-13.15
-39.52
-52.04
-52.19
-44.02
-32.67
-22.89
-18.12
-20.36
-30.27
-47.32
-69.99
-95.74
-121.35
-143.51
-159.58
-168.36
-170.45
-168.01
-163.87
-160.54
-159.35
-160.29
-162.51
-165.00
-167.33
-169.67
-172.62
-176.46
-180.75
-184.27
-185.35
-182.56
-175.06
-162.82
-146.27
-126.13
-103.20
-78.63
-54.02
-31.26
-11.99
3.03
14.23
22.83
29.99
36.09
40.44
41.79
39.25
33.00
24.34
15.05
6.65
-0.22
-5.72
-10.36
-14.58
-18.49
-21.92
-24.61
-26.28
-26.75
-25.97
-24.02
-21.14
-17.61
-13.62
-9.20
-4.26
1.21
6.99
12.52
17.02
19.74
19.98
17.25
11.24
1.95
-10.10
-23.79
-37.53
-49.71
-59.06
-65.11
-68.08
-68.64
-67.54
-65.41
-62.74
-60.01
-57.65
-55.97
-54.93
-54.10
-52.93
-51.10
-48.80
-46.66
-45.37
-45.28
-46.00
-46.58
-45.89
-43.10
-38.05
-31.21
-23.31
-14.99
-6.49
2.36
11.95
22.72
35.08
49.38
65.89
84.76
105.67
127.57
148.55
166.03
177.51
181.33
177.30
166.78
152.23
136.48
122.00
110.54
103.02
99.64
99.93
102.70
106.08
107.81
105.75
98.56
86.08
69.34
50.16
30.54
12.18
-3.75
-16.54
-26.02
-32.40
-36.33
-38.82
-40.95
-43.65
-47.35
-51.90
-56.60
-60.42
-62.27
-61.36
-57.45
-51.05
-43.48
-36.72
-32.99
-33.97
-40.02
-49.83
-60.60
-68.95
-72.05
-68.55
-58.93
-45.12
-29.66
-14.93
-2.58
6.58
12.33
14.78
14.20
11.11
6.27
0.74
-4.35
-8.05
-9.75
-9.40
-7.37
-4.30
-0.83
2.58
5.69
8.54
11.35
14.48
18.45
23.91
31.51
41.60
53.85
66.92
78.42
85.30
84.77
75.32
57.58
34.29
9.58
-12.42
-28.82
-38.62
-42.60
-42.58
-40.48
-37.75
-35.18
-33.09
-31.54
-30.47
-29.68
-28.75
-27.20
-24.65
-21.08
-16.87
-12.73
-9.51
-7.86
-8.09
-10.14
-13.70
-18.38
-23.80
-29.54
-35.14
-40.01
-43.66
-45.77
-46.43
-46.10
-45.48
-45.34
-46.33
-48.91
-53.18
-58.75
-64.71
-69.64
-71.94
-70.28
-64.08
-53.79
-40.79
-26.92
-13.95
-3.00
5.66
12.46
18.11
23.18
27.82
31.74
34.55
36.13
36.93
37.86
39.90
43.58
48.57
53.84
58.03
60.15
60.04
58.45
56.59
55.58
55.92
57.47
59.63
61.76
63.16
62.97
60.03
53.06
41.39
25.59
7.71
-9.22
-22.38
-30.27
-33.25
-33.12
-32.06
-31.53
-31.83
-32.40
-32.50
-31.80
-30.58
-29.38
-28.55
-28.01
-27.14
-25.14
-21.33
-15.46
-7.93
0.20
7.40
12.06
12.89
9.39
1.97
-8.17
-19.38
-30.02
-38.76
-44.64
-46.98
-45.37
-39.79
-30.78
-19.65
-8.37
0.99
7.05
9.76
10.49
11.46
14.74
21.27
30.48
40.69
49.94
56.99
61.79
65.36
69.02
73.65
79.05
83.99
86.72
85.72
80.41
71.37
60.25
49.19
40.18
34.54
32.60
33.93
37.62
42.61
48.00
53.09
57.43
60.97
64.07
67.49
71.99
77.68
83.51
87.28
86.34
78.92
65.23
47.72
30.21
16.34
8.16
5.55
6.86
10.01
13.62
17.24
21.04
25.11
29.08
32.31
34.24
34.78
34.30
33.28
31.92
30.03
27.15
22.78
16.70
8.98
-0.10
-10.24
-21.24
-33.04
-45.69
-59.16
-73.37
-88.02
-102.60
-116.44
-128.81
-139.10
-147.07
-153.10
-158.14
-163.35
-169.38
-175.72
-180.49
-181.00
-174.87
-161.19
-141.07
-117.21
-92.83
-70.41
-51.01
-34.32
-19.39
-5.38
7.99
20.50
31.79
41.62
49.97
56.92
62.41
66.31
68.51
69.15
68.77
68.28
68.71
70.86
75.02
80.76
87.05
92.61
96.40
98.03
98.01
97.51
97.87
99.91
103.24
106.21
106.31
101.17
89.56
71.99
50.63
28.57
8.76
-6.79
-17.44
-23.62
-26.29
-26.38
-24.57
-21.31
-17.06
-12.47
-8.27
-5.07
-3.10
-2.14
-1.61
-0.85
0.58
2.69
5.00
6.72
7.06
5.51
2.06
-2.75
-8.01
-12.78
-16.42
-18.68
-19.71
-19.68
-18.85
-17.59
-16.85
-18.27
-23.73
-34.34
-49.46
-66.45
-81.48
-91.25
-94.42
-92.08
-86.79
-80.92
-75.35
-69.25
-61.13
-50.31
-37.76
-25.77
-16.68
-11.53
-9.50
-8.50
-6.42
-2.31
3.28
8.69
12.23
13.14
11.93
10.08
9.19
10.20
13.03
16.71
19.98
21.90
22.31
21.87
21.79
23.30
27.25
33.85
42.53
52.03
60.54
66.09
67.02
62.66
53.64
41.76
29.41
18.68
10.77
5.73
2.95
1.62
1.23
1.52
2.24
2.84
2.59
0.87
-2.39
-6.56
-10.59
-13.48
-14.67
-14.18
-12.50
-10.23
-7.92
-5.99
-4.78
-4.62
-5.78
-8.38
-12.21
-16.65
-20.62
-22.66
-21.25
-15.24
-4.38
10.32
26.48
40.88
50.50
53.61
50.55
43.57
35.84
30.27
28.40
30.23
34.54
39.55
43.56
45.20
43.57
38.39
30.13
20.20
10.66
3.68
0.64
1.67
5.53
10.28
14.24
16.61
17.71
18.56
20.18
22.94
26.36
29.38
30.80
29.88
26.65
21.91
16.97
13.24
11.81
13.08
16.37
19.69
19.86
13.20
-3.05
-29.25
-62.35
-96.26
-123.46
-137.56
-135.59
-118.95
-92.80
-63.97
-38.53
-20.07
-9.20
-4.18
-2.14
-0.28
3.56
10.56
21.03
34.60
50.39
67.28
84.15
100.06
114.44
127.11
138.04
147.20
154.27
158.60
159.35
155.80
147.75
135.88
121.75
107.35
94.17
82.34
70.25
54.95
33.50
4.65
-30.07
-66.19
-97.58
-118.31
-124.50
-115.42
-93.39
-63.07
-30.17
-0.41
21.38
31.90
29.85
16.29
-5.59
-31.10
-55.22
-73.84
-84.77
-87.97
-85.18
-79.03
-72.13
-66.56
-63.57
-63.72
-67.06
-73.29
-81.84
-92.06
-103.29
-114.90
-126.21
-136.27
-143.66
-146.61
-143.36
-132.80
-115.00
-91.60
-65.57
-40.59
-19.90
-5.38
2.90
6.30
6.75
5.79
4.12
1.73
-1.54
-5.39
-8.93
-11.05
-11.01
-8.76
-4.96
-0.56
3.70
7.51
10.94
14.19
17.41
20.61
23.59
26.10
27.74
28.04
26.51
22.65
16.16
6.98
-4.56
-17.79
-31.82
-45.83
-59.46
-72.94
-87.10
-103.06
-121.70
-143.06
-166.05
-188.40
-207.24
-219.91
-224.76
-221.57
-211.52
-196.52
-178.42
-158.40
-136.72
-113.06
-87.05
-58.80
-29.06
1.01
30.09
57.15
81.45
102.59
120.30
134.48
145.22
152.90
158.18
161.83
164.46
166.23
166.74
165.28
161.23
154.50
145.66
135.78
126.08
117.45
110.18
103.81
97.15
88.53
76.36
59.82
39.49
17.48
-3.23
-19.90
-31.16
-37.48
-40.62
-42.49
-43.99
-44.64
-43.07
-38.09
-29.52
-18.29
-5.93
6.31
17.88
28.90
39.65
50.05
59.52
67.19
72.26
74.39
73.62
70.20
64.27
55.75
44.49
30.56
14.48
-2.75
-19.93
-35.97
-50.23
-62.54
-73.06
-82.11
-90.11
-97.52
-104.70
-111.69
-117.91
-122.17
-122.88
-118.66
-108.90
-94.18
-76.18
-57.26
-39.80
-25.65
-15.71
-9.85
-7.06
-5.79
-4.41
-1.75
2.58
8.13
13.91
18.93
22.60
24.95
26.52
27.98
29.87
32.47
35.81
39.75
44.05
48.41
52.47
55.93
58.70
61.12
63.88
67.78
73.07
78.91
83.28
83.54
77.55
64.69
46.25
24.98
3.88
-14.85
-30.33
-42.79
-52.78
-60.55
-65.91
-68.56
-68.50
-66.21
-62.44
-57.72
-52.14
-45.35
-36.87
-26.37
-13.84
0.49
16.19
32.72
49.36
65.21
79.09
89.70
95.71
96.07
90.35
78.96
63.25
45.18
26.77
9.44
-6.47
-21.58
-37.01
-53.70
-71.84
-90.66
-108.64
-123.96
-135.03
-140.80
-141.04
-136.14
-127.06
-115.02
-101.23
-86.59
-71.61
-56.43
-40.98
-25.21
-9.37
6.00
20.07
31.94
40.84
46.44
48.89
48.83
47.19
44.99
43.15
42.35
43.04
45.38
49.23
54.10
59.21
63.65
66.66
67.93
67.77
67.12
67.11
68.55
71.33
74.22
75.29
72.62
65.21
53.48
39.15
24.63
12.22
3.51
-0.84
-0.82
3.23
10.81
21.20
33.33
45.76
56.86
65.24
70.17
71.74
70.88
68.87
66.99
65.99
65.92
66.15
65.71
63.60
59.13
51.85
41.55
28.04
11.21
-8.85
-31.64
-56.20
-81.20
-105.29
-127.30
-146.42
-162.08
-173.79
-180.97
-182.89
-178.94
-168.79
-152.73
-131.78
-107.71
-82.69
-58.81
-37.65
-19.83
-5.10
7.30
18.15
27.82
36.22
43.09
48.31
52.18
55.29
58.27
61.55
65.20
69.14
73.25
77.48
81.86
86.34
90.69
94.45
96.97
97.55
95.67
91.22
84.66
77.05
69.79
64.09
60.40
58.03
55.26
49.97
40.64
27.09
10.75
-5.87
-20.12
-30.19
-35.57
-36.91
-35.46
-32.42
-28.62
-24.50
-20.43
-16.88
-14.32
-12.93
-12.37
-11.71
-9.69
-5.23
2.19
12.34
24.41
37.33
50.14
62.21
73.20
82.97
91.37
98.37
104.05
108.74
112.90
116.81
120.22
122.11
120.85
114.66
102.33
83.74
60.08
33.50
6.50
-18.85
-41.43
-61.22
-79.00
-95.87
-112.66
-129.60
-146.30
-161.96
-175.76
-187.01
-195.13
-199.52
-199.58
-194.84
-185.41
-172.16
-156.75
-141.11
-126.82
-114.51
-103.71
-93.23
-81.89
-69.18
-55.53
-42.11
-30.20
-20.60
-13.26
-7.42
-1.89
4.41
12.27
21.97
33.22
45.08
55.99
64.01
67.44
65.61
59.24
50.33
41.32
34.12
29.46
26.84
25.25
23.90
22.65
21.88
21.95
22.72
23.53
23.48
21.92
18.80
14.59
10.16
6.41
4.12
3.85
6.02
10.86
18.45
28.55
40.55
53.41
65.80
76.28
83.66
87.09
86.12
80.42
69.64
53.39
31.60
5.05
-24.23
-53.19
-78.56
-97.99
-110.87
-118.36
-122.72
-126.18
-129.99
-134.18
-137.92
-140.17
-140.20
-137.78
-132.91
-125.61
-115.82
-103.57
-89.31
-74.10
-59.35
-46.51
-36.53
-29.53
-24.82
-21.29
-17.83
-13.83
-9.21
-4.24
0.72
5.55
10.40
15.67
21.74
28.85
37.07
46.29
56.39
67.15
78.28
89.36
100.05
110.23
120.06
129.83
139.64
148.99
156.76
161.57
162.33
158.84
151.89
142.97
133.66
125.01
117.38
110.57
104.22
98.13
92.37
87.17
82.78
79.31
76.76
74.99
73.83
73.08
72.42
71.32
68.98
64.39
56.65
45.41
31.23
15.43
-0.39
-15.21
-29.13
-43.45
-60.02
-80.37
-104.77
-131.97
-159.49
-184.46
-204.47
-218.30
-225.91
-228.22
-226.52
-221.83
-214.65
-204.91
-192.22
-176.28
-157.18
-135.47
-111.96
-87.48
-62.77
-38.45
-15.23
5.97
24.10
38.26
48.13
54.12
57.38
59.30
61.04
63.10
65.28
67.02
67.80
67.53
66.65
65.99
66.47
68.84
73.35
79.63
86.48
91.99
93.81
89.86
79.13
62.19
41.10
18.77
-2.03
-19.46
-32.84
-42.38
-48.55
-51.61
-51.58
-48.49
-42.81
-35.52
-27.96
-21.36
-16.34
-12.87
-10.37
-8.03
-5.19
-1.44
3.30
8.92
15.24
21.95
28.57
34.26
37.88
38.23
34.48
26.56
15.28
2.14
-11.30
-23.94
-35.49
-46.43
-57.62
-69.74
-82.89
-96.36
-108.79
-118.48
-123.98
-124.46
-119.93
-111.22
-99.56
-86.23
-72.21
-58.05
-44.05
-30.46
-17.55
-5.55
5.43
15.50
24.93
33.96
42.73
51.25
59.39
67.05
74.11
80.49
86.13
91.03
95.19
98.63
101.31
103.10
103.78
103.05
100.62
96.24
89.82
81.32
70.90
59.01
46.50
34.55
24.47
17.20
12.84
10.46
8.32
4.67
-1.47
-9.65
-18.17
-24.76
-27.65
-26.28
-21.48
-14.81
-7.86
-1.56
3.88
8.70
13.13
17.15
20.54
23.14
24.99
26.33
27.43
28.38
29.13
29.64
29.90
30.03
30.11
29.99
29.25
27.28
23.53
17.67
9.71
0.02
-10.84
-22.22
-33.61
-44.78
-55.97
-67.87
-81.38
-97.16
-115.09
-133.93
-151.49
-165.18
-172.89
-173.63
-167.74
-156.50
-141.63
-124.61
-106.49
-87.89
-69.25
-51.04
-33.75
-17.87
-3.60
9.16
20.78
31.71
42.31
52.70
62.71
72.02
80.18
86.85
91.86
95.28
97.30
98.21
98.17
97.28
95.40
92.31
87.77
81.60
73.89
64.98
55.51
46.24
37.93
31.15
26.17
22.93
21.02
19.82
18.63
16.80
13.85
9.51
3.74
-3.37
-11.56
-20.43
-29.23
-36.87
-41.99
-43.42
-40.60
-34.08
-25.53
-17.29
-11.53
-9.47
-11.12
-15.63
-22.08
-30.01
-39.53
-50.77
-63.33
-76.18
-88.38
-100.01
-112.59
-128.44
-148.94
-172.92
-195.95
-211.64
-213.94
-199.68
-169.85
-128.98
-82.68
-34.92
13.47
64.11
118.55
175.50
229.62
272.69
296.80
297.44
274.92
233.53
179.17
117.42
53.16
-8.37
-60.38
-94.89
-105.30
-89.52
-52.17
-3.99
41.50
72.53
82.97
73.56
50.63
22.98
-1.34
-17.08
-21.93
-15.52
1.75
29.18
65.37
107.37
150.23
187.42
212.26
219.75
208.45
181.11
144.12
105.62
73.02
50.67
38.88
34.38
32.32
28.82
22.52
14.82
8.67
6.61
9.41
15.77
23.29
29.83
34.16
36.29
36.96
36.96
36.63
35.84
34.17
31.42
27.93
24.50
22.16
21.58
22.75
24.90
26.88
27.74
27.22
25.86
24.76
25.07
27.47
31.85
37.42
43.04
47.78
51.25
53.75
56.04
58.94
62.98
68.17
74.10
80.24
86.42
93.12
101.43
112.51
126.84
143.45
159.74
171.98
176.61
171.52
156.98
135.48
110.71
86.15
63.93
44.51
27.09
10.35
-6.90
-25.56
-46.24
-69.34
-94.67
-121.22
-147.06
-169.75
-187.18
-198.34
-203.55
-204.18
-201.86
-197.85
-192.74
-186.72
-179.99
-173.05
-166.59
-161.18
-156.97
-153.59
-150.38
-146.67
-142.09
-136.60
-130.34
-123.39
-115.75
-107.27
-97.94
-87.92
-77.78
-68.37
-60.64
-55.32
-52.53
-51.59
-50.99
-48.90
-43.82
-35.34
-24.41
-12.93
-2.69
5.98
14.56
25.32
39.67
56.70
73.22
85.14
89.60
86.22
77.00
65.20
54.00
46.03
43.57
48.86
63.51
86.92
115.10
141.25
158.34
162.55
155.67
144.70
138.70
144.46
163.38
191.07
219.57
240.97
250.45
247.50
234.71
215.77
193.51
169.26
143.42
116.69
90.85
68.39
51.39
40.17
32.53
24.40
11.65
-8.08
-34.34
-64.27
-93.98
-120.56
-143.46
-164.59
-187.52
-216.19
-253.75
-301.63
-358.64
-420.48
-479.84
-527.53
-554.84
-556.41
-532.23
-487.68
-431.56
-372.97
-318.78
-272.75
-236.25
-209.60
-192.91
-185.79
-186.60
-191.76
-195.99
-193.44
-179.17
-150.46
-107.89
-55.84
-2.06
43.84
72.87
79.47
63.18
28.68
-16.49
-64.57
-109.62
-147.82
-176.63
-193.75
-197.03
-185.39
-160.01
-124.76
-85.12
-46.26
-11.25
19.59
47.81
75.29
102.77
129.35
152.90
171.12
182.52
186.95
185.38
179.30
169.82
157.23
141.18
121.22
97.61
71.84
46.61
25.29
10.92
5.33
8.64
19.32
34.64
51.45
66.78
78.24
84.16
83.64
76.54
63.57
46.38
27.36
9.27
-5.42
-15.16
-19.67
-19.84
-17.29
-13.75
-10.58
-8.60
-8.16
-9.29
-11.77
-15.24
-19.05
-22.38
-24.43
-24.81
-23.66
-21.78
-20.21
-19.78
-20.65
-22.08
-22.73
-21.12
-16.23
-7.86
3.20
15.51
27.35
37.29
44.59
49.36
52.62
55.90
60.84
68.60
79.34
92.05
104.66
114.71
120.13
120.04
115.15
107.46
99.51
93.44
90.25
89.61
90.31
90.90
90.39
88.41
85.26
81.61
78.31
76.21
76.05
78.26
82.78
89.00
95.85
102.14
106.90
109.64
110.25
108.93
105.97
101.73
96.79
91.98
88.30
86.62
87.34
90.21
94.35
98.62
101.95
103.78
104.13
103.56
102.74
102.07
101.16
98.88
93.54
83.58
68.10
47.10
21.13
-9.28
-43.81
-81.92
-121.91
-160.41
-192.73
-214.47
-223.46
-220.83
-210.45
-196.96
-183.67
-171.75
-160.87
-150.71
-142.07
-136.54
-135.09
-136.81
-138.82
-137.60
-131.00
-119.33
-105.00
-91.13
-79.95
-72.04
-66.86
-63.76
-62.86
-65.02
-71.13
-81.26
-94.15
-107.40
-118.10
-123.73
-122.68
-114.64
-100.42
-81.58
-60.00
-37.41
-15.12
6.02
25.33
42.21
56.12
66.81
74.59
80.52
86.16
93.07
102.23
113.62
126.32
138.87
149.80
158.01
162.97
164.70
163.83
161.51
159.11
157.84
158.13
159.27
159.49
156.61
148.79
135.24
116.36
93.43
68.07
41.77
15.85
-8.31
-29.19
-45.20
-55.25
-59.35
-58.91
-56.43
-54.81
-56.54
-63.12
-74.84
-90.74
-108.63
-125.19
-136.54
-139.20
-131.33
-113.58
-88.81
-60.95
-33.26
-7.20
17.45
41.52
65.08
86.80
104.51
116.50
122.47
123.75
122.45
120.21
117.52
113.67
