1659463198.00
64.000000
-0.00
-0.00
-0.00
-0.00
-0.00
-0.00
-0.00
-0.00
-0.00
-0.00
0.00
0.01
0.01
-0.00
-0.03
-0.05
-0.05
0.00
0.13
0.36
0.66
1.01
1.37
1.72
2.06
2.40
2.79
3.24
3.80
4.42
5.06
5.66
6.20
6.68
7.15
7.68
8.31
9.14
10.09
11.04
11.88
12.56
13.14
13.76
14.65
15.96
17.91
20.32
22.90
25.38
27.58
29.57
31.68
34.32
37.81
42.54
48.15
54.10
59.83
64.97
69.58
74.14
79.34
85.71
93.76
103.00
112.62
121.73
129.77
136.75
143.30
150.75
157.78
166.65
177.95
191.79
206.96
220.56
228.26
225.40
208.58
176.91
132.75
79.94
22.83
-35.32
-92.91
-149.69
-205.76
-260.88
-314.23
-364.39
-410.43
-451.63
-487.36
-516.69
-538.21
-550.16
-550.84
-539.23
-515.15
-479.84
-435.36
-384.26
-329.06
-271.93
-214.62
-158.49
-104.76
-54.44
-8.59
32.03
66.98
96.26
120.18
139.23
153.87
164.41
171.13
174.29
174.37
172.05
168.13
163.30
157.95
152.05
145.28
137.29
127.98
117.70
107.21
97.29
88.56
81.08
74.47
68.05
61.14
53.24
44.00
33.44
22.17
11.72
4.44
2.86
8.51
20.93
37.46
54.07
66.84
73.48
74.02
70.25
64.58
58.80
53.58
48.72
43.91
39.20
35.04
31.85
29.66
28.00
26.20
23.67
20.35
16.64
13.14
10.39
8.60
7.64
7.10
6.56
5.68
4.26
2.34
0.18
-1.70
-2.71
-2.43
-0.91
1.28
3.23
4.14
3.75
2.40
0.86
-0.14
-0.32
0.04
0.36
0.12
-0.79
-2.10
-3.31
-4.05
-4.19
-3.88
-3.43
-3.06
-2.96
-3.09
-3.34
-3.54
-3.54
-3.21
-2.61
-1.85
-1.13
-0.64
-0.45
-0.52
-0.69
-0.80
-0.77
-0.69
-0.71
-1.01
-1.59
-2.20
-2.46
-1.94
-0.45
1.90
4.70
7.41
9.66
11.32
12.51
13.41
14.09
14.42
14.14
13.05
11.21
8.92
6.53
4.36
2.35
0.30
-1.98
-4.55
-7.23
-9.70
-11.67
-13.01
-13.78
-14.13
-14.16
-13.84
-13.04
-11.65
-9.67
-7.28
-4.83
-2.73
-1.37
-0.97
-1.58
-2.96
-4.75
-6.48
-7.71
-8.19
-7.86
-6.90
-5.60
-4.23
-2.99
-1.97
-1.17
-0.59
-0.24
-0.16
-0.32
-0.62
-0.87
-0.91
-0.70
-0.34
0.01
0.14
-0.04
-0.50
-1.11
-1.71
-2.16
-2.40
-2.43
-2.34
-2.24
-2.26
-2.49
-3.00
-3.75
-4.67
-5.64
-6.50
-7.13
-7.48
-7.54
-7.33
-6.99
-6.67
-6.53
-6.65
-7.02
-7.53
-7.98
-8.19
-7.98
-7.24
-5.95
-4.15
-2.00
0.25
2.35
4.06
5.20
5.77
5.84
5.63
5.39
5.29
5.39
5.62
5.83
5.89
5.72
5.33
4.76
4.11
3.42
2.75
2.15
1.70
1.46
1.44
1.60
1.78
1.81
1.56
0.99
0.19
-0.67
-1.41
-1.93
-2.29
-2.68
-3.27
-4.18
-5.29
-6.34
-6.97
-6.94
-6.23
-5.02
-3.59
-2.17
-0.86
0.40
1.68
3.04
4.42
5.69
6.68
7.21
7.23
6.76
5.96
5.07
4.33
3.96
3.98
4.29
4.67
4.85
4.66
4.07
3.17
2.12
1.10
0.24
-0.37
-0.66
-0.57
-0.10
0.71
1.72
2.70
3.42
3.70
3.45
2.73
1.68
0.52
-0.55
-1.33
-1.72
-1.69
-1.29
-0.62
0.22
1.19
2.30
3.61
5.09
6.62
8.00
8.99
9.45
9.42
9.14
8.90
8.99
9.52
10.48
11.70
12.96
14.03
14.70
14.77
14.12
12.72
10.66
8.18
5.60
3.25
1.34
-0.08
-1.14
-2.09
-3.19
-4.64
-6.48
-8.53
-10.46
-11.92
-12.70
-12.88
-12.80
-12.92
-13.66
-15.14
-17.25
-19.61
-21.77
-23.24
-23.61
-22.63
-20.31
-17.04
-13.56
-10.70
-9.05
-8.67
-9.10
-9.55
-9.40
-8.42
-6.82
-5.01
-3.33
-1.81
-0.28
1.44
3.39
5.35
7.03
8.16
8.65
8.68
8.57
8.67
9.17
10.03
10.97
11.63
11.68
11.01
9.75
8.15
6.54
5.16
4.16
3.62
3.53
3.84
4.39
5.00
5.49
5.73
5.72
5.55
5.33
5.17
5.06
4.96
4.84
4.63
4.35
3.99
3.60
3.15
2.64
2.04
1.33
0.52
-0.35
-1.20
-2.00
-2.69
-3.29
-3.83
-4.36
-4.92
-5.50
-6.09
-6.62
-7.06
-7.39
-7.69
-8.06
-8.62
-9.35
-10.14
-10.76
-10.98
-10.64
-9.74
-8.42
-6.86
-5.27
-3.79
-2.50
-1.44
-0.59
0.04
0.46
0.69
0.72
0.57
0.28
-0.09
-0.49
-0.86
-1.19
-1.46
-1.62
-1.57
-1.25
-0.61
0.26
1.22
2.10
2.76
3.17
3.37
3.42
3.37
3.27
3.14
3.01
2.91
2.86
2.79
2.65
2.40
2.07
1.80
1.77
2.12
2.91
4.06
5.42
6.77
7.91
8.74
9.20
9.33
9.22
8.96
8.63
8.22
7.67
6.91
5.92
4.70
3.30
1.80
0.21
-1.46
-3.18
-4.92
-6.56
-7.99
-9.11
-9.93
-10.49
-10.86
-11.08
-11.20
-11.23
-11.21
-11.19
-11.17
-11.10
-10.88
-10.37
-9.48
-8.21
-6.62
-4.82
-2.88
-0.87
1.20
3.28
5.33
7.31
9.18
10.91
12.48
13.79
14.76
15.30
15.36
14.94
14.04
12.70
10.94
8.83
6.54
4.31
2.40
0.95
-0.07
-0.86
-1.63
-2.50
-3.42
-4.25
-4.88
-5.33
-5.75
-6.30
-7.07
-7.95
-8.76
-9.25
-9.32
-9.01
-8.48
-7.95
-7.55
-7.31
-7.13
-6.83
-6.26
-5.33
-4.04
-2.49
-0.83
0.80
2.32
3.69
4.88
5.85
6.56
6.94
6.96
6.66
6.17
5.64
5.20
4.93
4.79
4.65
4.39
3.94
3.33
2.70
2.16
1.82
1.65
1.53
1.32
0.93
0.36
-0.28
-0.86
-1.32
-1.68
-2.00
-2.40
-2.91
-3.52
-4.14
-4.72
-5.19
-5.47
-5.50
-5.18
-4.45
-3.34
-1.97
-0.55
0.71
1.67
2.28
2.57
2.63
2.54
2.36
2.15
1.93
1.72
1.56
1.44
1.38
1.38
1.44
1.50
1.53
1.44
1.20
0.82
0.39
0.04
-0.16
-0.26
-0.35
-0.59
-1.03
-1.65
-2.31
-2.87
-3.24
-3.45
-3.63
-3.89
-4.27
-4.73
-5.06
-5.08
-4.68
-3.86
-2.80
-1.68
-0.67
0.16
0.88
1.57
2.26
2.91
3.42
3.70
3.75
3.65
3.53
3.46
3.46
3.45
3.36
3.13
2.79
2.42
2.10
1.90
1.84
1.85
1.85
1.73
1.45
1.02
0.50
-0.01
-0.45
-0.80
-1.11
-1.44
-1.80
-2.21
-2.62
-3.01
-3.41
-3.81
-4.20
-4.46
-4.45
-4.05
-3.22
-2.06
-0.71
0.63
1.83
2.82
3.55
4.01
4.15
3.98
3.59
3.12
2.68
2.32
2.01
1.70
1.38
1.10
0.95
0.95
1.02
1.02
0.83
0.44
-0.09
-0.62
-1.07
-1.44
-1.80
-2.19
-2.61
-3.01
-3.35
-3.67
-4.05
-4.62
-5.41
-6.37
-7.33
-8.06
-8.41
-8.29
-7.76
-6.98
-6.15
-5.46
-5.03
-4.85
-4.88
-5.02
-5.20
-5.42
-5.70
-6.13
-6.75
-7.60
-8.65
-9.82
-11.00
-12.10
-13.10
-14.04
-14.98
-15.94
-16.86
-17.60
-17.96
-17.75
-16.86
-15.25
-12.96
-10.04
-6.63
-2.85
1.10
4.96
8.46
11.35
13.50
14.91
15.74
16.24
16.62
17.00
17.33
17.51
17.41
17.03
16.44
15.82
15.30
14.92
14.62
14.27
13.75
13.00
12.04
10.94
9.80
8.76
7.94
7.48
7.50
7.97
8.77
9.64
10.27
10.41
9.97
8.99
7.63
6.07
4.49
2.98
1.60
0.36
-0.74
-1.78
-2.79
-3.79
-4.71
-5.43
-5.81
-5.77
-5.32
-4.56
-3.60
-2.53
-1.41
-0.31
0.65
1.32
1.61
1.53
1.27
1.08
1.21
1.75
2.58
3.43
4.00
4.11
3.77
3.12
2.39
1.75
1.29
0.96
0.67
0.33
-0.10
-0.57
-1.02
-1.37
-1.62
-1.83
-2.10
-2.54
-3.17
-3.97
-4.79
-5.47
-5.86
-5.88
-5.56
-4.99
-4.32
-3.64
-2.97
-2.26
-1.45
-0.51
0.54
1.59
2.58
3.39
3.96
4.20
4.06
3.58
2.87
2.23
1.92
2.14
2.84
3.79
4.59
4.96
4.79
4.25
3.71
3.65
4.53
6.75
10.47
15.56
21.40
26.91
30.81
32.03
30.10
25.38
18.84
11.76
5.32
0.49
-1.88
-1.08
3.46
11.80
23.35
36.86
50.74
63.56
74.39
82.89
89.05
93.05
95.07
95.42
94.58
93.15
91.73
90.68
90.07
89.62
88.84
87.11
83.79
78.35
70.59
60.76
49.54
37.82
26.42
15.84
6.25
-2.31
-9.75
-15.83
-20.38
-23.39
-25.19
-26.26
-27.00
-27.42
-27.12
-25.49
-22.01
-16.55
-9.42
-1.19
7.61
16.69
26.03
35.67
45.46
54.85
62.93
68.61
70.86
68.81
61.88
49.75
32.61
11.31
-12.47
-36.33
-57.67
-74.37
-85.43
-91.17
-92.92
-92.39
-91.04
-89.69
-88.66
-87.95
-87.66
-87.96
-89.07
-91.04
-93.63
-96.44
-99.06
-101.24
-102.95
-104.33
-105.45
-106.20
-106.22
-105.09
-102.51
-98.47
-93.37
-87.80
-82.39
-77.53
-73.29
-69.45
-65.62
-61.43
-56.58
-50.95
-44.56
-37.61
-30.48
-23.64
-17.53
-12.49
-8.64
-5.84
-3.78
-2.12
-0.58
0.95
2.42
3.71
4.70
5.34
5.67
5.75
5.67
5.44
5.08
4.57
3.94
3.27
2.64
2.06
1.52
0.94
0.31
-0.26
-0.61
-0.53
0.05
1.08
2.39
3.75
4.91
5.69
6.01
5.85
5.30
4.50
3.64
2.87
2.29
1.93
1.74
1.64
1.55
1.44
1.30
1.12
0.86
0.48
-0.11
-0.95
-2.05
-3.35
-4.71
-6.00
-7.15
-8.19
-9.22
-10.34
-11.60
-12.96
-14.35
-15.71
-16.97
-18.10
-18.98
-19.46
-19.36
-18.59
-17.24
-15.56
-13.87
-12.29
-10.70
-8.77
-6.18
-2.83
1.06
5.01
8.50
11.20
13.10
14.38
15.29
15.95
16.30
16.16
15.39
14.03
12.26
10.38
8.64
7.20
6.21
5.88
6.48
8.27
11.30
15.16
19.05
22.04
23.43
23.17
21.84
20.43
19.85
20.56
22.46
25.07
27.89
30.61
33.15
35.53
37.67
39.29
40.04
39.66
38.11
35.62
32.52
29.11
25.51
21.70
17.61
13.22
8.61
3.89
-0.79
-5.30
-9.48
-13.05
-15.67
-17.02
-16.90
-15.39
-12.69
-9.04
-4.59
0.58
6.32
12.26
17.74
22.00
24.44
24.88
23.64
21.42
19.02
17.03
15.69
14.90
14.30
13.53
12.26
10.34
7.68
4.24
-0.00
-5.03
-10.70
-16.73
-22.68
-27.99
-32.17
-34.89
-36.11
-36.09
-35.23
-33.94
-32.42
-30.69
-28.67
-26.31
-23.82
-21.59
-20.07
-19.53
-19.87
-20.66
-21.33
-21.46
-20.94
-19.95
-18.82
-17.78
-16.81
-15.66
-13.96
-11.43
-7.99
-3.79
0.79
5.34
9.50
13.01
15.76
17.70
18.90
19.51
19.83
20.26
21.22
22.92
25.22
27.59
29.31
29.73
28.62
26.27
23.34
20.60
18.59
17.39
16.68
15.91
14.53
12.13
8.59
4.03
-1.26
-6.93
-12.57
-17.83
-22.42
-26.17
-28.98
-30.82
-31.63
-31.29
-29.64
-26.58
-22.15
-16.59
-10.32
-3.90
2.12
7.17
10.74
12.40
11.90
9.26
4.88
-0.53
-6.06
-10.88
-14.46
-16.61
-17.42
-17.19
-16.16
-14.54
-12.47
-10.11
-7.62
-5.18
-2.95
-0.99
0.73
2.27
3.62
4.69
5.34
5.52
5.44
5.58
6.55
8.84
12.55
17.26
22.18
26.43
29.45
31.13
31.84
32.12
32.43
32.86
33.14
32.86
31.67
29.51
26.58
23.17
19.45
15.41
10.89
5.75
0.07
-5.88
-11.65
-16.77
-20.80
-23.40
-24.39
-23.79
-21.89
-19.18
-16.26
-13.58
-11.33
-9.48
-7.90
-6.62
-5.87
-5.98
-7.17
-9.32
-11.88
-14.11
-15.33
-15.22
-13.97
-12.12
-10.25
-8.75
-7.60
-6.50
-5.00
-2.81
0.07
3.30
6.39
8.84
10.37
10.95
10.82
10.42
10.27
10.83
12.40
15.05
18.56
22.42
25.97
28.50
29.45
28.59
26.13
22.67
19.01
15.85
13.58
12.22
11.50
11.06
10.58
9.84
8.67
6.90
4.38
1.02
-3.04
-7.43
-11.59
-14.91
-16.97
-17.63
-17.08
-15.71
-13.98
-12.24
-10.63
-9.09
-7.47
-5.61
-3.52
-1.34
0.65
2.12
2.80
2.54
1.33
-0.60
-2.92
-5.18
-6.99
-8.09
-8.41
-8.07
-7.35
-6.58
-6.06
-5.92
-6.08
-6.22
-5.93
-4.84
-2.78
0.14
3.63
7.22
10.49
13.10
14.87
15.86
16.37
16.87
17.93
19.90
22.82
26.26
29.57
32.02
33.13
32.77
31.05
28.19
24.36
19.71
14.39
8.69
2.96
-2.43
-7.24
-11.46
-15.21
-18.65
-21.74
-24.23
-25.80
-26.27
-25.73
-24.58
-23.25
-21.95
-20.54
-18.60
-15.80
-12.14
-8.10
-4.44
-1.86
-0.64
-0.56
-1.07
-1.64
-1.92
-1.93
-1.84
-1.79
-1.79
-1.72
-1.39
-0.68
0.39
1.72
3.14
4.49
5.66
6.52
6.97
6.93
6.33
5.22
3.73
2.13
0.82
0.23
0.74
2.41
4.88
7.38
9.01
9.21
7.98
5.97
4.04
2.87
2.53
2.54
2.24
1.20
-0.51
-2.40
-3.90
-4.72
-4.98
-5.03
-5.25
-5.77
-6.43
-6.94
-7.06
-6.74
-6.13
-5.48
-5.00
-4.71
-4.42
-3.82
-2.63
-0.78
1.53
3.82
5.47
6.01
5.18
3.12
0.18
-3.17
-6.53
-9.67
-12.42
-14.68
-16.29
-17.07
-16.93
-15.91
-14.21
-12.06
-9.63
-6.92
-3.83
-0.26
3.71
7.84
11.81
15.35
18.29
20.61
22.29
23.30
23.64
23.45
23.03
22.74
22.78
23.09
23.26
22.84
21.59
19.77
17.99
16.85
16.52
16.48
15.66
12.95
7.85
0.75
-7.11
-14.19
-19.31
-22.08
-22.90
-22.63
-22.05
-21.55
-21.03
-20.19
-18.80
-16.92
-14.88
-13.06
-11.65
-10.50
-9.22
-7.39
-4.86
-1.92
0.74
2.29
2.19
0.40
-2.53
-5.73
-8.39
-10.03
-10.62
-10.36
-9.52
-8.28
-6.70
-4.81
-2.73
-0.60
1.48
3.54
5.72
8.20
11.04
14.13
17.20
19.91
21.94
23.13
23.54
23.41
23.11
22.93
22.92
22.90
22.47
21.30
19.35
16.88
14.44
12.53
11.36
10.71
9.97
8.41
5.49
1.11
-4.33
-10.11
-15.38
-19.49
-22.14
-23.41
-23.61
-23.06
-21.92
-20.19
-17.82
-14.93
-11.88
-9.20
-7.40
-6.67
-6.81
-7.30
-7.65
-7.63
-7.39
-7.36
-7.97
-9.40
-11.48
-13.83
-15.98
-17.53
-18.24
-18.06
-17.09
-15.58
-13.85
-12.20
-10.80
-9.62
-8.49
-7.18
-5.55
-3.59
-1.44
0.77
3.01
5.27
7.61
9.98
12.21
14.06
15.32
15.92
16.00
15.79
15.55
15.32
14.98
14.27
13.10
11.61
10.13
9.01
8.34
7.85
7.05
5.50
3.13
0.28
-2.41
-4.34
-5.24
-5.26
-4.89
-4.68
-5.05
-6.12
-7.77
-9.69
-11.55
-13.16
-14.47
-15.57
-16.56
-17.49
-18.27
-18.72
-18.62
-17.83
-16.33
-14.23
-11.64
-8.69
-5.43
-1.88
1.91
5.81
9.58
12.86
15.28
16.52
16.43
15.05
12.66
9.67
6.56
3.74
1.51
0.01
-0.76
-0.81
-0.12
1.43
3.95
7.46
11.77
16.47
21.00
24.83
27.57
29.04
29.22
28.17
26.03
23.08
19.75
16.63
14.25
12.96
12.75
13.19
13.65
13.55
12.58
10.86
8.84
7.10
6.12
6.07
6.73
7.63
8.21
8.00
6.78
4.61
1.70
-1.66
-5.21
-8.78
-12.24
-15.51
-18.45
-20.98
-22.95
-24.26
-24.74
-24.21
-22.54
-19.70
-15.90
-11.53
-7.09
-3.00
0.46
3.18
5.15
6.32
6.56
5.70
3.69
0.66
-2.96
-6.56
-9.44
-11.02
-11.01
-9.51
-7.00
-4.29
-2.20
-1.37
-2.09
-4.27
-7.50
-11.27
-15.08
-18.55
-21.51
-23.97
-26.08
-27.99
-29.65
-30.66
-30.36
-28.05
-23.37
-16.61
-8.69
-0.91
5.58
10.14
12.78
14.16
15.30
17.26
20.85
26.28
33.03
39.97
45.67
48.91
49.13
46.52
41.77
35.64
28.58
20.69
11.94
2.53
-6.88
-15.35
-21.88
-25.88
-27.30
-26.59
-24.47
-21.60
-18.39
-14.88
-10.93
-6.52
-1.91
2.31
5.42
6.89
6.68
5.20
3.09
0.87
-1.28
-3.46
-5.86
-8.42
-10.75
-12.26
-12.45
-11.17
-8.66
-5.46
-2.21
0.50
2.25
2.88
2.53
1.63
0.82
0.66
1.40
2.81
4.33
5.33
5.53
5.16
4.79
5.01
6.00
7.45
8.70
9.19
8.73
7.63
6.44
5.63
5.37
5.48
5.61
5.49
5.05
4.42
3.81
3.35
3.04
2.76
2.38
1.77
0.87
-0.32
-1.68
-3.01
-3.93
-4.01
-2.91
-0.52
2.88
6.68
10.05
12.25
12.77
11.47
8.49
4.22
-0.79
-5.91
-10.46
-13.79
-15.42
-15.15
-13.12
-9.84
-6.02
-2.37
0.54
2.47
3.49
3.89
4.01
4.16
4.46
4.88
5.28
5.49
5.48
5.39
5.52
6.17
7.45
9.13
10.61
11.23
10.55
8.73
6.44
4.59
3.80
4.08
4.77
4.87
3.60
0.73
-3.33
-7.83
-12.07
-15.67
-18.66
-21.37
-24.10
-26.88
-29.40
-31.06
-31.22
-29.50
-26.02
-21.40
-16.56
-12.30
-8.97
-6.41
-4.07
-1.44
1.60
4.68
7.10
8.18
7.60
5.53
2.51
-0.79
-3.85
-6.35
-8.20
-9.36
-9.80
-9.45
-8.28
-6.38
-3.96
-1.32
1.29
3.78
6.20
8.71
11.37
14.02
16.29
17.67
17.82
16.70
14.69
12.50
10.84
10.20
10.70
12.03
13.64
14.97
15.61
15.46
14.70
13.78
13.17
13.21
13.86
14.64
14.75
13.30
9.78
4.31
-2.29
-8.78
-14.02
-17.42
-19.06
-19.50
-19.38
-19.07
-18.54
-17.57
-16.05
-14.16
-12.35
-11.10
-10.65
-10.78
-10.98
-10.64
-9.37
-7.16
-4.40
-1.70
0.33
1.30
1.14
0.08
-1.51
-3.23
-4.86
-6.27
-7.46
-8.40
-8.98
-9.06
-8.48
-7.19
-5.27
-2.84
-0.05
2.99
6.23
9.64
13.14
16.52
19.50
21.77
23.08
23.28
22.41
20.72
18.67
16.81
15.62
15.24
15.41
15.49
14.81
13.04
10.44
7.78
5.96
5.51
6.22
7.15
7.07
5.04
0.89
-4.65
-10.36
-15.06
-18.08
-19.46
-19.73
-19.49
-19.08
-18.41
-17.12
-15.01
-12.24
-9.38
-7.18
-6.17
-6.40
-7.32
-8.16
-8.20
-7.21
-5.50
-3.74
-2.66
-2.66
-3.77
-5.61
-7.69
-9.63
-11.23
-12.49
-13.45
-14.16
-14.51
-14.32
-13.36
-11.45
-8.54
-4.74
-0.36
4.19
8.49
12.21
15.08
16.98
17.86
17.86
17.28
16.53
16.06
16.21
17.08
18.55
20.29
21.84
22.71
22.45
20.76
17.59
13.24
8.30
3.50
-0.55
-3.56
-5.56
-6.79
-7.46
-7.64
-7.24
-6.18
-4.55
-2.62
-0.82
0.53
1.30
1.63
1.75
1.89
2.11
2.29
2.18
1.59
0.48
-0.95
-2.34
-3.26
-3.33
-2.39
-0.53
1.91
4.46
6.69
8.37
9.55
10.47
11.37
12.37
13.38
14.23
14.75
14.84
14.42
13.36
11.48
8.61
4.73
0.11
-4.82
-9.59
-13.94
-17.80
-21.23
-24.25
-26.73
-28.47
-29.35
-29.37
-28.63
-27.21
-25.13
-22.34
-18.86
-14.88
-10.75
-6.90
-3.62
-1.05
0.80
1.98
2.55
2.58
2.27
1.97
2.07
2.82
4.16
5.73
7.03
7.68
7.62
7.14
6.61
6.28
6.09
5.68
4.64
2.76
0.17
-2.78
-5.65
-8.13
-10.05
-11.30
-11.77
-11.33
-9.98
-7.91
-5.51
-3.21
-1.33
0.07
1.12
1.96
2.62
2.98
2.87
2.18
0.99
-0.48
-1.97
-3.27
-4.33
-5.18
-5.92
-6.62
-7.33
-8.00
-8.51
-8.76
-8.62
-8.09
-7.21
-6.09
-4.82
-3.45
-2.03
-0.62
0.67
1.66
2.26
2.58
2.97
3.92
5.84
8.85
12.59
16.35
19.30
20.88
20.96
19.92
18.40
17.03
16.16
15.77
15.57
15.16
14.26
12.73
10.63
8.09
5.25
2.17
-1.14
-4.69
-8.49
-12.45
-16.41
-20.07
-23.06
-25.00
-25.64
-24.95
-23.21
-20.85
-18.31
-15.84
-13.45
-11.09
-8.81
-6.91
-5.84
-6.06
-7.75
-10.70
-14.47
-18.52
-22.42
-26.00
-29.21
-32.01
-34.32
-35.91
-36.54
-35.93
-33.84
-30.11
-24.70
-17.75
-9.64
-0.97
7.50
14.98
20.87
24.91
27.29
28.58
29.58
31.03
33.40
36.71
40.56
44.22
46.87
47.77
46.52
43.20
38.41
33.10
28.30
24.74
22.62
21.53
20.70
19.32
16.95
13.54
9.39
4.90
0.37
-4.04
-8.21
-11.96
-15.00
-17.06
-18.02
-18.01
-17.32
-16.30
-15.18
-14.01
-12.67
-10.99
-8.84
-6.23
-3.31
-0.39
2.12
3.81
4.37
3.71
1.98
-0.43
-3.02
-5.36
-7.12
-8.15
-8.35
-7.70
-6.23
-4.02
-1.22
2.03
5.58
9.29
13.00
16.44
19.32
21.37
22.48
22.75
22.40
21.68
20.68
19.40
17.82
16.12
14.69
13.98
14.22
15.15
16.02
15.80
13.62
9.08
2.47
-5.27
-12.89
-19.16
-23.27
-25.02
-24.81
-23.37
-21.52
-19.78
-18.35
-17.08
-15.74
-14.21
-12.52
-10.87
-9.39
-8.09
-6.74
-5.08
-2.96
-0.46
2.04
4.09
5.25
5.36
4.57
3.30
2.01
1.08
0.67
0.76
1.18
1.75
2.37
3.08
4.03
5.36
7.11
9.02
10.59
11.21
10.42
8.15
4.73
0.73
-3.32
-7.13
-10.54
-13.34
-15.11
-15.29
-13.54
-10.03
-5.52
-1.10
2.42
4.84
6.61
8.38
10.47
12.53
13.66
12.94
9.97
5.23
-0.14
-4.84
-8.01
-9.53
-9.91
-9.90
-10.03
-10.36
-10.60
-10.37
-9.46
-8.00
-6.34
-4.82
-3.62
-2.60
-1.49
0.00
1.97
4.24
6.37
7.81
8.03
6.79
4.21
0.83
-2.61
-5.33
-6.84
-6.99
-6.03
-4.44
-2.72
-1.22
-0.03
1.02
2.22
3.85
5.98
8.46
10.92
12.94
14.22
14.64
14.28
13.34
12.10
10.87
10.01
9.87
10.71
12.56
15.08
17.60
19.27
19.31
17.43
13.99
9.95
6.53
4.64
4.47
5.32
5.92
5.04
2.09
-2.60
-7.98
-12.87
-16.50
-18.81
-20.28
-21.57
-23.07
-24.73
-26.11
-26.70
-26.15
-24.46
-21.96
-19.12
-16.35
-13.80
-11.35
-8.70
-5.64
-2.34
0.63
2.43
2.39
0.37
-3.11
-7.05
-10.39
-12.47
-13.15
-12.77
-11.82
-10.66
-9.34
-7.74
-5.69
-3.18
-0.37
2.51
5.31
7.97
10.52
12.97
15.28
17.36
19.07
20.32
21.02
21.18
20.84
20.13
19.17
18.05
16.72
15.11
13.20
11.22
9.66
9.10
9.93
12.00
14.58
16.51
16.69
14.53
10.15
4.31
-1.98
-7.84
-12.82
-16.90
-20.31
-23.20
-25.45
-26.66
-26.42
-24.53
-21.23
-17.19
-13.25
-10.13
-8.11
-7.04
-6.47
-5.92
-5.10
-4.04
-2.96
-2.10
-1.57
-1.29
-1.11
-0.99
-1.03
-1.50
-2.68
-4.66
-7.22
-9.93
-12.30
-14.02
-15.08
-15.65
-16.01
-16.27
-16.38
-16.13
-15.26
-13.64
-11.27
-8.33
-5.07
-1.78
1.26
3.90
6.12
8.07
10.02
12.20
14.66
17.17
19.36
20.87
21.64
21.96
22.36
23.26
24.79
26.61
28.12
28.81
28.52
27.58
26.60
26.14
26.47
27.41
28.44
28.99
28.68
27.43
25.43
23.01
20.44
17.79
15.01
11.98
8.65
5.06
1.29
-2.62
-6.64
-10.68
-14.51
-17.77
-20.16
-21.61
-22.41
-23.08
-24.02
-25.29
-26.52
-27.16
-26.91
-25.96
-24.92
-24.49
-24.95
-26.02
-27.01
-27.23
-26.43
-24.90
-23.24
-21.97
-21.12
-20.17
-18.31
-14.90
-9.80
-3.54
3.01
8.94
13.60
16.69
18.25
18.34
17.04
14.45
10.78
6.57
2.55
-0.60
-2.50
-3.21
-3.15
-2.79
-2.38
-1.86
-1.01
0.35
2.12
3.95
5.39
6.12
6.07
5.41
4.40
3.22
1.90
0.33
-1.59
-3.87
-6.40
-8.96
-11.30
-13.25
-14.67
-15.48
-15.61
-14.97
-13.47
-11.11
-7.99
-4.38
-0.65
2.83
5.73
7.82
8.96
9.03
7.99
5.91
3.06
-0.04
-2.78
-4.61
-5.31
-5.08
-4.50
-4.23
-4.80
-6.36
-8.68
-11.31
-13.79
-15.76
-16.97
-17.14
-15.99
-13.34
-9.32
-4.47
0.38
4.44
7.33
9.21
10.69
12.40
14.56
16.94
18.94
20.04
20.07
19.32
18.36
17.71
17.61
17.92
18.27
18.27
17.63
16.29
14.40
12.15
9.70
7.04
4.01
0.40
-3.88
-8.65
-13.43
-17.55
-20.34
-21.37
-20.56
-18.22
-14.89
-11.22
-7.73
-4.72
-2.28
-0.37
1.04
1.84
1.85
0.88
-1.09
-3.86
-7.02
-10.14
-12.80
-14.76
-15.90
-16.20
-15.81
-15.07
-14.41
-14.26
-14.81
-15.87
-16.87
-17.26
-16.70
-15.26
-13.35
-11.36
-9.46
-7.47
-5.09
-2.16
1.22
4.66
7.72
10.17
12.05
13.57
14.93
16.17
17.25
18.17
19.07
20.23
21.95
24.26
26.90
29.35
31.04
31.63
31.09
29.65
27.54
24.84
21.45
17.22
12.21
6.82
1.77
-2.18
-4.45
-4.89
-3.76
-1.56
1.15
3.95
6.56
8.89
10.89
12.52
13.70
14.38
14.47
13.89
12.47
10.06
6.58
2.21
-2.50
-6.70
-9.39
-9.73
-7.39
-2.69
3.43
9.72
15.05
18.71
20.55
20.78
19.69
17.40
13.95
9.49
4.56
0.10
-2.79
-3.36
-1.47
2.34
7.28
12.69
18.34
24.20
30.04
35.13
38.23
38.04
33.74
25.43
14.12
1.28
-11.60
-23.49
-33.83
-42.54
-49.61
-55.02
-58.55
-59.88
-58.78
-55.29
-49.89
-43.37
-36.69
-30.61
-25.46
-21.14
-17.30
-13.73
-10.61
-8.52
-8.09
-9.52
-12.31
-15.23
-16.87
-16.15
-12.84
-7.62
-1.66
3.89
8.40
11.85
14.63
17.10
19.39
21.26
22.32
22.23
20.81
18.11
14.32
9.70
4.54
-0.80
-5.94
-10.53
-14.25
-16.85
-18.07
-17.75
-15.83
-12.49
-8.14
-3.31
1.50
5.99
10.06
13.66
16.55
18.23
18.08
15.64
10.94
4.56
-2.50
-9.19
-14.72
-18.80
-21.58
-23.44
-24.68
-25.35
-25.19
-23.84
-21.10
-17.20
-12.73
-8.47
-5.00
-2.48
-0.62
1.05
2.83
4.63
6.03
6.47
5.65
3.68
1.09
-1.37
-3.02
-3.46
-2.66
-0.93
1.28
3.47
5.30
6.62
7.44
7.91
8.17
8.31
8.36
8.32
8.26
8.31
8.59
9.16
9.90
10.52
10.71
10.26
9.26
8.07
7.18
6.92
7.30
7.94
8.32
8.06
7.22
6.24
5.68
5.77
6.20
6.20
4.92
1.98
-2.32
-7.07
-11.22
-14.06
-15.54
-16.13
-16.46
-16.91
-17.32
-17.23
-16.19
-14.09
-11.34
-8.61
-6.53
-5.31
-4.71
-4.19
-3.27
-1.77
0.10
1.94
3.35
4.19
4.59
4.80
5.05
5.34
5.46
5.12
4.11
2.50
0.61
-1.07
-2.08
-2.16
-1.31
0.22
2.11
4.05
5.86
7.47
8.84
9.96
10.76
11.19
11.19
10.78
10.01
9.02
7.98
7.11
6.61
6.65
7.28
8.38
9.66
10.71
11.16
10.84
9.84
8.44
6.99
5.75
4.79
4.06
3.45
2.96
2.65
2.62
2.86
3.22
3.46
3.31
2.63
1.44
-0.06
-1.63
-3.07
-4.29
-5.34
-6.35
-7.49
-8.82
-10.30
-11.76
-12.89
-13.35
-12.74
-10.85
-7.63
-3.36
1.46
6.24
10.46
13.81
16.27
18.00
19.26
20.28
21.19
21.93
22.34
22.18
21.30
19.65
17.30
14.38
11.05
7.38
3.32
-1.15
-6.00
-11.05
-15.97
-20.42
-24.15
-27.10
-29.39
-31.13
-32.29
-32.61
-31.73
-29.40
-25.72
-21.19
-16.57
-12.59
-9.64
-7.67
-6.32
-5.18
-4.04
-2.93
-2.07
-1.59
-1.44
-1.40
-1.19
-0.70
-0.04
0.46
0.43
-0.34
-1.75
-3.38
-4.69
-5.22
-4.87
-3.89
-2.77
-1.97
-1.73
-1.97
-2.37
-2.59
-2.36
-1.58
-0.32
1.31
3.15
4.99
6.55
7.54
7.73
7.03
5.57
3.66
1.73
0.22
-0.48
-0.12
1.39
3.89
6.99
10.12
12.66
14.12
14.21
12.86
10.23
6.56
2.21
-2.43
-6.92
-10.82
-13.75
-15.49
-15.97
-15.27
-13.55
-11.01
-7.86
-4.42
-0.99
2.15
4.90
7.33
9.67
12.18
14.99
18.04
21.09
23.85
26.07
27.60
28.38
28.39
27.70
26.42
24.66
22.54
20.12
17.41
14.45
11.31
8.19
5.30
2.78
0.57
-1.56
-3.90
-6.65
-9.77
-13.07
-16.31
-19.38
-22.34
-25.34
-28.46
-31.50
-33.96
-35.15
-34.45
-31.61
-26.87
-20.95
-14.83
-9.40
-5.16
-1.92
1.10
4.97
10.47
17.58
25.23
31.64
35.11
34.88
31.72
27.70
25.35
26.62
32.02
40.54
50.01
57.82
61.63
59.90
52.26
39.85
25.26
12.06
3.94
3.69
12.10
27.51
46.27
64.18
78.51
89.23
98.98
111.42
128.55
148.71
166.41
174.44
167.18
143.32
106.30
62.09
16.03
-29.52
-74.92
-120.94
-166.15
-205.87
-233.84
-245.31
-239.68
-221.08
-196.51
-172.72
-153.61
-139.45
-128.11
-117.13
-105.36
-93.42
-82.83
-74.89
-69.65
-65.91
-61.86
-56.07
-48.10
-38.75
-29.58
-22.21
-17.61
-15.73
-15.64
-15.93
-15.32
-13.08
-9.16
-4.02
1.71
7.47
12.98
18.20
23.25
28.21
33.07
37.61
41.51
44.46
46.25
46.91
46.73
46.15
45.61
45.36
45.31
45.17
44.57
43.32
41.60
39.92
38.97
39.30
41.02
43.69
46.49
48.53
49.27
48.86
48.12
48.22
50.11
54.01
59.16
64.21
67.85
69.53
69.73
69.69
70.52
72.72
76.07
79.99
84.05
88.34
93.35
99.58
107.26
116.11
126.16
137.85
151.64
166.97
181.27
189.79
186.50
166.40
127.97
75.81
20.64
-23.59
-44.71
-37.24
-4.43
43.08
91.85
129.83
151.33
157.39
152.73
141.84
126.92
108.53
87.26
64.69
40.23
13.13
-17.74
-53.63
-95.43
-143.04
-194.62
-247.41
-298.92
-352.01
-409.22
-471.02
-535.54
-600.02
-661.55
-716.20
-758.61
-782.31
-786.63
-771.37
-736.52
-682.77
-612.70
-530.49
-439.94
-344.11
-214.45
-45.83
141.37
310.37
432.31
499.95
523.66
521.13
507.34
491.82
473.02
447.66
415.59
380.67
347.85
320.10
297.95
277.49
254.15
220.43
177.04
128.09
79.83
37.62
3.74
-22.04
-44.85
-69.84
-102.26
-142.78
-188.36
-233.44
-272.50
-302.17
-302.23
-264.35
-195.36
-114.93
-41.61
15.31
55.69
83.87
104.32
120.89
132.61
137.85
135.86
128.01
116.56
103.84
91.73
80.23
70.29
59.81
46.57
29.63
9.79
-11.65
-33.95
-53.61
-71.78
-88.58
-103.35
-112.54
-110.84
-93.99
-62.17
-21.02
20.24
52.27
70.48
74.87
69.71
60.88
53.05
48.10
45.41
43.29
40.12
36.07
31.93
28.80
27.66
28.96
32.44
37.93
44.66
51.75
58.45
63.37
64.49
59.88
49.01
33.78
18.57
8.49
7.16
15.09
28.92
42.69
50.40
48.85
39.12
26.15
15.79
11.99
15.03
21.93
28.68
33.01
35.75
40.18
49.76
64.73
81.48
93.97
97.09
89.49
74.30
57.39
42.27
31.84
25.94
22.08
17.30
10.10
1.05
-8.03
-15.63
-21.63
-27.00
-33.27
-41.08
-49.36
-55.89
-58.91
-58.47
-56.71
-56.74
-60.50
-67.45
-74.65
-78.27
-75.54
-65.98
-50.87
-31.68
-9.02
17.04
45.04
70.84
88.27
91.95
80.61
58.71
34.82
17.59
11.69
15.92
25.05
33.61
39.44
44.39
52.05
64.41
79.44
91.01
91.18
73.57
36.27
-17.26
-79.41
-141.18
-195.29
-237.94
-268.71
-288.70
-297.92
-294.13
-273.90
-235.72
-183.11
-124.90
-72.16
-33.02
-8.77
6.24
20.87
41.69
69.63
100.53
128.79
151.29
168.82
184.01
197.69
206.55
203.54
181.13
135.41
68.76
-10.00
-87.68
-150.11
-186.17
-191.15
-168.05
-126.48
-79.17
-37.45
-7.97
8.38
14.88
16.10
15.37
13.64
10.16
3.98
-4.58
-13.56
-20.00
-21.20
-16.36
-7.43
1.65
6.86
6.05
0.15
-7.49
-13.41
-16.17
-16.90
-17.77
-19.56
-20.23
-15.67
-2.23
20.70
49.90
79.65
104.44
120.99
128.80
129.08
123.30
112.44
97.31
79.54
61.94
47.81
39.47
36.74
36.52
34.20
25.76
9.75
-12.05
-35.39
-55.47
-68.56
-72.96
-69.02
-58.68
-45.16
-32.52
-24.88
-25.11
-33.28
-45.84
-56.31
-57.64
-45.10
-18.47
17.71
55.99
88.65
110.33
119.29
117.05
107.31
94.48
82.61
74.58
71.44
71.86
71.95
66.18
49.10
17.73
-26.86
-79.52
-132.59
-178.72
-213.13
-234.44
-243.85
-243.51
-235.12
-219.74
-198.37
-172.63
-144.68
-116.26
-87.58
-57.18
-22.82
16.86
60.85
105.78
147.11
181.05
206.22
223.95
237.39
249.71
262.64
276.10
288.88
300.04
309.86
319.86
331.77
345.95
360.28
370.29
370.52
356.68
327.45
285.16
234.81
182.23
131.93
85.87
43.41
2.19
-40.68
-87.72
-140.34
-198.13
-258.08
-314.33
-358.71
-382.54
-379.18
-346.42
-287.75
-211.86
-130.47
-55.21
5.16
46.34
68.36
74.16
67.65
52.03
29.21
0.07
-34.76
-74.33
-117.50
-163.80
-214.39
-271.68
-337.50
-410.46
-484.28
-548.35
-590.98
-603.70
-584.84
-540.02
-479.69
-414.68
-352.38
-295.14
-241.32
-187.77
-132.16
-74.04
-14.64
43.86
98.84
147.44
186.77
