1660334155.00
64.000000
-0.00
-0.00
-0.00
-0.00
-0.00
-0.00
-0.00
-0.00
-0.00
-0.00
0.00
0.01
0.01
-0.00
-0.03
-0.05
-0.05
0.00
0.13
0.36
0.66
1.01
1.37
1.72
2.06
2.40
2.79
3.24
3.80
4.42
5.06
5.67
6.21
6.69
7.15
7.67
8.30
9.14
10.09
11.07
11.94
12.62
13.16
13.68
14.41
15.52
17.25
19.47
21.92
24.32
26.46
28.38
30.38
32.86
36.16
40.70
46.17
52.08
57.81
62.96
67.50
71.85
76.69
82.60
90.21
99.13
108.61
117.73
125.75
132.50
138.44
144.84
150.56
158.11
168.39
181.65
196.61
210.05
217.19
213.04
194.15
159.88
113.14
58.34
0.10
-58.43
-116.21
-173.71
-231.63
-289.84
-347.11
-401.25
-450.54
-493.78
-530.38
-559.89
-581.64
-594.66
-597.96
-591.06
-573.73
-546.07
-507.73
-457.83
-395.57
-321.30
-237.41
-148.44
-60.26
21.61
93.18
152.64
200.03
236.30
262.55
279.69
288.72
290.96
288.14
282.03
274.02
264.75
254.20
241.94
227.64
211.44
194.01
176.34
159.39
143.79
129.77
117.22
105.92
95.70
86.49
78.24
70.83
64.01
57.52
51.11
44.66
38.17
31.72
25.46
19.56
14.34
9.94
6.43
3.78
1.81
0.26
-1.08
-2.33
-3.51
-4.63
-5.73
-6.84
-7.98
-9.07
-9.91
-10.34
-10.29
-9.88
-9.31
-8.83
-8.51
-8.29
-8.04
-7.70
-7.34
-7.07
-6.96
-6.89
-6.60
-5.84
-4.50
-2.73
-0.89
0.61
1.44
1.51
0.92
-0.10
-1.29
-2.43
-3.39
-4.10
-4.54
-4.68
-4.55
-4.15
-3.55
-2.82
-2.06
-1.36
-0.75
-0.30
-0.01
0.09
-0.03
-0.38
-0.91
-1.48
-1.94
-2.14
-2.03
-1.69
-1.31
-1.10
-1.19
-1.60
-2.19
-2.74
-2.98
-2.67
-1.72
-0.18
1.69
3.51
4.82
5.30
4.84
3.61
2.05
0.66
-0.14
-0.16
0.47
1.46
2.45
3.19
3.62
3.84
3.98
4.11
4.14
3.88
3.23
2.15
0.80
-0.56
-1.72
-2.60
-3.24
-3.78
-4.25
-4.60
-4.75
-4.63
-4.31
-3.99
-3.93
-4.25
-4.94
-5.74
-6.25
-6.09
-5.05
-3.21
-0.95
1.19
2.72
3.36
3.12
2.24
1.01
-0.35
-1.71
-3.01
-4.15
-5.00
-5.41
-5.33
-4.86
-4.18
-3.56
-3.15
-2.96
-2.88
-2.79
-2.60
-2.34
-2.16
-2.22
-2.61
-3.28
-4.07
-4.79
-5.28
-5.53
-5.63
-5.72
-5.88
-6.13
-6.41
-6.63
-6.73
-6.61
-6.19
-5.36
-4.03
-2.13
0.23
2.81
5.37
7.66
9.52
10.84
11.57
11.65
11.09
9.93
8.32
6.45
4.54
2.78
1.26
0.06
-0.82
-1.40
-1.73
-1.89
-2.02
-2.26
-2.75
-3.57
-4.72
-6.07
-7.46
-8.66
-9.50
-9.92
-10.00
-9.91
-9.89
-10.05
-10.35
-10.52
-10.20
-8.98
-6.67
-3.28
0.90
5.42
9.76
13.52
16.36
18.12
18.73
18.23
16.76
14.60
12.10
9.64
7.49
5.80
4.57
3.75
3.25
3.05
3.11
3.36
3.66
3.82
3.65
3.07
2.12
0.93
-0.31
-1.49
-2.52
-3.49
-4.51
-5.75
-7.30
-9.06
-10.74
-11.84
-11.87
-10.49
-7.70
-3.82
0.55
4.76
8.30
10.87
12.37
12.84
12.36
11.03
8.99
6.46
3.74
1.17
-0.92
-2.28
-2.83
-2.62
-1.85
-0.78
0.32
1.22
1.76
1.93
1.77
1.40
0.92
0.39
-0.21
-0.96
-1.97
-3.32
-5.01
-6.95
-8.98
-10.84
-12.17
-12.58
-11.70
-9.33
-5.59
-0.87
4.15
8.75
12.34
14.58
15.43
15.07
13.72
11.67
9.20
6.61
4.20
2.24
0.87
0.13
-0.10
0.01
0.25
0.48
0.61
0.62
0.57
0.51
0.50
0.54
0.60
0.58
0.37
-0.10
-0.87
-1.93
-3.28
-4.85
-6.51
-7.98
-8.84
-8.66
-7.17
-4.36
-0.60
3.51
7.30
10.24
12.03
12.66
12.26
11.05
9.20
6.89
4.26
1.54
-1.05
-3.23
-4.80
-5.61
-5.64
-4.99
-3.88
-2.57
-1.33
-0.37
0.17
0.28
-0.00
-0.59
-1.40
-2.36
-3.42
-4.55
-5.70
-6.84
-7.95
-9.01
-9.97
-10.70
-10.97
-10.48
-9.04
-6.63
-3.52
-0.20
2.75
4.88
5.94
5.92
4.96
3.24
0.89
-1.98
-5.19
-8.51
-11.63
-14.31
-16.41
-17.95
-19.10
-20.08
-21.09
-22.13
-23.07
-23.72
-23.88
-23.38
-22.11
-20.09
-17.45
-14.41
-11.11
-7.73
-4.51
-1.63
0.87
3.23
5.88
9.29
13.73
19.38
25.96
32.77
38.97
43.90
47.34
49.38
50.26
50.17
49.45
48.27
46.66
44.54
41.97
39.09
36.05
32.82
27.59
19.60
9.51
-0.93
-10.08
-17.20
-22.28
-25.67
-27.75
-28.74
-28.41
-26.59
-23.39
-19.33
-15.16
-11.66
-9.49
-8.97
-10.04
-12.01
-14.03
-15.45
-15.97
-15.65
-14.73
-13.52
-12.23
-10.93
-9.46
-7.67
-5.59
-3.40
-1.34
0.47
1.98
3.18
4.03
4.48
4.38
3.48
1.60
-1.33
-5.15
-9.52
-14.01
-18.20
-21.76
-24.50
-26.45
-27.61
-27.91
-27.16
-25.18
-22.05
-18.13
-14.12
-10.36
-6.89
-3.18
1.58
8.07
16.41
25.98
35.47
43.49
48.80
50.59
48.63
43.34
35.72
27.15
19.07
12.64
8.36
6.04
4.93
4.14
3.01
1.32
-0.85
-3.22
-5.52
-7.54
-9.14
-10.25
-10.92
-11.23
-11.30
-11.30
-11.35
-11.46
-11.49
-11.22
-10.38
-8.78
-6.48
-3.74
-1.06
1.06
2.24
2.34
1.49
-0.06
-1.96
-3.93
-5.71
-7.16
-8.21
-8.81
-9.04
-8.96
-8.68
-8.26
-7.72
-7.08
-6.36
-5.64
-4.99
-4.47
-4.03
-3.58
-3.05
-2.39
-1.66
-0.95
-0.38
-0.05
0.03
-0.08
-0.27
-0.32
-0.01
0.86
2.39
4.51
6.97
9.30
10.98
11.58
10.87
8.96
6.23
3.29
0.73
-0.96
-1.58
-1.16
0.07
1.72
3.39
4.66
5.17
4.67
3.09
0.57
-2.47
-5.40
-7.55
-8.47
-8.04
-6.56
-4.64
-3.03
-2.33
-2.82
-4.38
-6.63
-8.99
-10.92
-11.97
-11.86
-10.58
-8.38
-5.69
-2.97
-0.66
1.01
1.97
2.35
2.34
2.13
1.93
1.49
0.87
0.22
-0.25
-0.27
0.40
1.92
4.30
7.33
10.56
13.39
15.21
15.49
13.99
10.86
6.61
1.93
-2.45
-6.01
-8.52
-10.12
-11.20
-12.19
-13.37
-14.70
-15.91
-16.58
-16.38
-15.19
-13.19
-10.74
-8.26
-6.09
-4.48
-3.54
-3.32
-3.80
-4.85
-6.24
-7.63
-8.66
-9.04
-8.68
-7.69
-6.32
-4.87
-3.56
-2.50
-1.61
-0.73
0.32
1.63
3.09
4.40
5.12
4.89
3.54
1.19
-1.74
-4.72
-7.18
-8.68
-8.95
-7.87
-5.46
-1.95
2.34
7.00
11.65
16.00
19.87
23.15
25.73
27.44
28.15
27.78
26.41
24.33
21.90
19.50
17.39
15.70
14.44
13.57
13.06
12.87
12.92
13.09
13.21
13.07
12.46
11.21
9.14
6.18
2.34
-2.17
-6.92
-11.26
-14.42
-15.74
-14.86
-11.87
-7.34
-2.13
2.81
6.71
9.14
10.01
9.43
7.59
4.68
0.88
-3.57
-8.27
-12.71
-16.36
-18.82
-19.98
-20.02
-19.31
-18.26
-17.20
-16.27
-15.47
-14.72
-13.87
-12.76
-11.19
-8.89
-5.62
-1.24
4.08
9.75
14.83
18.31
19.53
18.60
16.42
14.41
13.89
15.46
18.77
22.69
25.83
27.19
26.50
24.19
21.01
17.65
14.51
11.68
9.14
6.86
4.88
3.18
1.59
-0.14
-2.25
-4.73
-7.20
-9.04
-9.61
-8.67
-6.45
-3.66
-1.13
0.53
1.14
0.93
0.31
-0.38
-0.99
-1.54
-2.06
-2.47
-2.62
-2.38
-1.68
-0.60
0.70
2.09
3.45
4.63
5.45
5.66
5.02
3.40
0.86
-2.36
-5.84
-9.20
-12.11
-14.39
-16.05
-17.20
-18.02
-18.69
-19.27
-19.73
-19.96
-19.83
-19.29
-18.39
-17.24
-15.96
-14.62
-13.24
-11.77
-10.09
-8.01
-5.31
-1.83
2.49
7.47
12.76
17.87
22.40
26.11
29.02
31.32
33.20
34.75
35.82
36.07
35.07
32.50
28.25
22.51
15.74
8.60
1.79
-4.06
-8.61
-11.77
-13.72
-14.83
-15.48
-15.95
-16.35
-16.61
-16.55
-16.03
-15.04
-13.73
-12.38
-11.29
-10.62
-10.35
-10.26
-10.04
-9.37
-8.07
-6.08
-3.50
-0.51
2.61
5.50
7.78
9.21
9.74
9.61
9.27
9.10
9.28
9.65
9.77
9.20
7.65
5.17
2.04
-1.32
-4.58
-7.51
-10.01
-12.06
-13.67
-14.88
-15.76
-16.34
-16.68
-16.77
-16.61
-16.19
-15.56
-14.78
-13.87
-12.74
-11.14
-8.69
-5.01
0.21
7.00
15.00
23.36
30.82
36.00
37.84
36.00
31.08
24.49
17.97
13.03
10.44
10.07
11.13
12.54
13.38
13.18
11.89
9.78
7.23
4.60
2.21
0.31
-0.91
-1.35
-1.10
-0.49
-0.11
-0.65
-2.61
-6.11
-10.80
-15.95
-20.71
-24.37
-26.55
-27.13
-26.23
-24.01
-20.71
-16.58
-12.00
-7.47
-3.53
-0.67
0.85
1.10
0.42
-0.59
-1.29
-1.20
-0.11
1.79
3.94
5.65
6.33
5.69
3.77
0.96
-2.28
-5.57
-8.66
-11.40
-13.70
-15.40
-16.38
-16.62
-16.23
-15.49
-14.65
-13.89
-13.25
-12.69
-12.12
-11.47
-10.65
-9.50
-7.78
-5.19
-1.51
3.37
9.38
16.27
23.64
31.04
37.90
43.66
47.83
50.10
50.36
48.76
45.59
41.20
35.96
30.21
24.20
18.13
12.13
6.31
0.83
-4.05
-7.94
-10.46
-11.47
-11.19
-10.26
-9.56
-9.89
-11.68
-14.86
-18.87
-22.99
-26.54
-29.14
-30.71
-31.41
-31.38
-30.68
-29.19
-26.74
-23.28
-18.99
-14.33
-9.93
-6.42
-4.18
-3.30
-3.56
-4.57
-5.87
-6.99
-7.54
-7.18
-5.71
-3.08
0.55
4.89
9.48
13.86
17.58
20.33
21.99
22.67
22.69
22.53
22.68
23.58
25.49
28.51
32.61
37.58
43.04
48.39
52.88
55.71
56.19
53.79
48.28
39.71
28.48
15.30
1.07
-13.35
-27.35
-40.69
-53.42
-65.54
-76.70
-86.16
-92.95
-96.39
-96.42
-93.65
-89.12
-83.70
-77.72
-70.90
-62.60
-52.25
-39.78
-25.75
-11.31
2.08
12.96
20.21
23.33
22.60
19.02
14.01
9.06
5.27
3.23
3.02
4.47
7.40
11.71
17.32
24.10
31.72
39.70
47.47
54.50
60.25
64.22
65.89
64.77
60.44
52.70
41.69
28.06
13.13
-1.20
-12.82
-19.98
-21.90
-19.12
-13.32
-6.73
-1.43
1.32
1.21
-1.34
-5.63
-11.01
-17.14
-23.93
-31.30
-39.09
-46.91
-54.23
-60.48
-65.21
-68.15
-69.08
-67.66
-63.37
-55.62
-44.10
-29.20
-12.17
5.03
20.30
32.04
39.65
43.63
45.21
45.77
46.27
46.98
47.59
47.51
46.33
44.00
40.78
37.04
33.01
28.66
23.87
18.64
13.35
8.69
5.48
4.24
5.00
7.17
9.73
11.59
11.95
10.60
7.88
4.61
1.74
0.05
0.02
1.93
5.88
11.77
19.08
26.59
32.53
34.99
32.76
25.95
16.16
5.88
-2.55
-7.78
-9.88
-9.94
-9.36
-9.20
-9.84
-11.11
-12.59
-13.97
-15.13
-16.04
-16.62
-16.80
-16.65
-16.41
-16.38
-16.72
-17.27
-17.56
-17.09
-15.52
-13.09
-10.76
-9.83
-11.26
-15.28
-21.24
-27.78
-33.41
-36.56
-35.98
-31.17
-22.64
-12.05
-2.27
3.15
2.22
-6.19
-20.31
-35.66
-47.27
-52.10
-49.75
-41.86
-30.86
-18.95
-7.64
2.41
11.04
18.19
23.77
27.72
29.99
30.50
29.24
26.29
22.09
17.33
12.79
9.20
7.33
7.77
10.82
16.17
22.71
28.78
32.22
31.34
25.85
16.92
6.78
-2.22
-8.45
-11.45
-11.80
-10.67
-9.20
-8.09
-7.63
-7.58
-7.70
-7.85
-7.99
-8.10
-8.18
-8.09
-7.61
-6.54
-4.83
-2.65
-0.30
1.88
3.68
5.06
6.16
7.08
7.72
7.79
6.93
5.00
2.26
-0.70
-3.14
-4.47
-4.71
-4.18
-3.50
-3.31
-3.99
-5.53
-7.59
-9.66
-11.23
-11.97
-11.72
-10.50
-8.46
-5.83
-2.96
-0.24
1.94
3.26
3.57
2.92
1.52
-0.31
-2.24
-3.95
-5.17
-5.65
-5.25
-3.95
-1.90
0.59
3.12
5.33
6.99
8.07
8.68
8.97
9.12
9.21
9.23
9.10
8.78
8.20
7.41
6.45
5.35
4.09
2.55
0.59
-1.80
-4.42
-6.78
-8.24
-8.27
-6.69
-3.76
-0.06
3.74
7.21
10.22
12.89
15.45
18.09
20.90
23.91
27.04
30.11
32.81
34.72
35.47
34.89
33.14
30.61
27.72
24.74
21.65
18.24
14.25
9.52
4.08
-1.91
-8.22
-14.58
-20.76
-26.56
-31.84
-36.56
-40.81
-44.81
-48.81
-53.00
-57.31
-61.39
-64.53
-65.88
-64.66
-60.45
-53.41
-44.19
-33.71
-22.84
-12.10
-1.62
8.75
19.13
29.46
39.33
48.11
55.14
59.90
62.17
62.11
60.19
57.10
53.53
50.03
46.87
44.07
41.47
38.87
36.18
33.42
30.75
28.34
26.34
24.74
23.44
22.18
20.65
18.50
15.43
11.17
5.62
-1.08
-8.45
-15.68
-21.71
-25.56
-26.64
-24.97
-21.24
-16.60
-12.27
-9.22
-7.87
-8.15
-9.62
-11.72
-13.96
-16.06
-17.94
-19.64
-21.29
-23.01
-24.87
-26.86
-28.89
-30.84
-32.54
-33.83
-34.64
-34.91
-34.68
-34.04
-33.12
-32.07
-31.02
-30.11
-29.40
-28.92
-28.67
-28.63
-28.73
-28.75
-28.24
-26.43
-22.40
-15.28
-4.65
9.19
25.20
41.86
57.48
70.65
80.31
85.78
86.69
82.98
75.08
63.98
51.23
38.63
27.76
19.61
14.39
11.72
10.91
11.34
12.60
14.48
16.88
19.69
22.79
26.06
29.21
31.78
33.07
32.26
28.70
22.23
13.54
4.10
-4.12
-9.32
-10.51
-8.11
-4.00
-1.16
-2.85
-11.67
-28.60
-52.48
-80.15
-107.16
-128.99
-142.29
-145.66
-139.84
-127.09
-110.29
-92.09
-74.34
-58.13
-44.07
-32.57
-23.88
-18.02
-14.59
-12.79
-11.61
-10.20
-8.16
-5.62
-3.15
-1.39
-0.82
-1.46
-2.87
-4.22
-4.50
-2.74
1.83
9.62
20.60
34.26
49.56
65.01
78.89
89.58
95.95
97.62
94.96
88.89
80.45
70.58
59.93
48.94
38.08
27.91
19.06
11.97
6.78
3.19
0.68
-1.26
-2.90
-4.24
-5.11
-5.39
-5.22
-5.01
-5.35
-6.67
-9.15
-12.56
-16.44
-20.32
-23.92
-27.25
-30.51
-33.88
-37.10
-39.61
-40.72
-39.90
-37.02
-32.24
-26.05
-18.87
-11.04
-2.45
7.01
17.13
27.30
36.58
44.10
49.19
51.80
52.27
51.72
51.35
51.88
53.34
55.16
56.66
57.11
56.43
54.77
53.10
52.49
53.54
56.35
