1660935348.00
64.000000
-0.00
-0.00
-0.00
-0.00
-0.00
-0.00
-0.00
-0.00
-0.00
-0.00
0.00
0.01
0.01
-0.00
-0.03
-0.05
-0.05
0.00
0.13
0.36
0.66
1.01
1.37
1.72
2.06
2.40
2.79
3.25
3.81
4.44
5.09
5.73
6.32
6.90
7.52
8.26
9.15
10.26
11.49
12.71
13.81
14.76
15.65
16.66
18.01
19.85
22.35
25.29
28.39
31.36
34.08
36.68
39.51
43.03
47.50
53.25
59.86
66.78
73.47
79.68
85.63
91.91
99.24
108.04
118.69
130.48
142.53
154.05
164.69
174.83
185.32
197.57
210.06
224.68
241.62
260.77
281.04
299.94
313.69
318.11
309.94
287.96
253.91
210.97
163.09
113.61
64.62
17.11
-28.45
-71.66
-112.11
-149.39
-184.18
-217.81
-251.96
-287.76
-324.84
-360.88
-391.81
-413.08
-421.15
-415.06
-396.85
-370.79
-341.67
-313.15
-286.87
-262.70
-239.77
-217.43
-195.91
-175.94
-158.13
-142.46
-128.24
-114.53
-100.69
-86.64
-72.90
-60.26
-49.38
-40.43
-33.04
-26.53
-20.22
-13.73
-7.13
-0.88
4.53
8.76
11.86
14.17
16.17
18.26
20.52
22.77
24.69
26.00
26.58
26.54
26.15
25.72
25.46
25.40
25.41
25.30
24.92
24.23
23.33
22.39
21.53
20.80
20.15
19.52
18.89
18.29
17.78
17.38
17.04
16.68
16.19
15.54
14.82
14.15
13.66
13.41
13.35
13.36
13.31
13.13
12.79
12.32
11.79
11.26
10.79
10.46
10.34
10.45
10.74
11.09
11.30
11.22
10.77
10.02
9.15
8.35
7.79
7.49
7.39
7.39
7.37
7.27
7.09
6.82
6.52
6.20
5.88
5.58
5.28
4.98
4.65
4.30
3.90
3.47
3.00
2.49
1.93
1.33
0.68
-0.02
-0.78
-1.55
-2.28
-2.87
-3.26
-3.45
-3.52
-3.62
-3.91
-4.47
-5.25
-6.14
-6.95
-7.58
-7.96
-8.17
-8.27
-8.37
-8.49
-8.61
-8.70
-8.69
-8.54
-8.24
-7.79
-7.23
-6.60
-5.93
-5.24
-4.58
-3.99
-3.55
-3.27
-3.15
-3.07
-2.88
-2.44
-1.72
-0.82
0.06
0.71
0.99
0.94
0.70
0.43
0.25
0.22
0.34
0.61
1.01
1.52
2.08
2.59
2.93
3.07
3.07
3.03
3.05
3.16
3.32
3.45
3.50
3.49
3.47
3.55
3.74
4.03
4.37
4.67
4.88
4.98
5.01
4.98
4.90
4.76
4.51
4.17
3.79
3.46
3.27
3.26
3.39
3.58
3.73
3.79
3.78
3.71
3.61
3.47
3.28
3.09
2.95
2.92
3.00
3.08
3.07
2.89
2.60
2.38
2.37
2.61
2.96
3.19
3.12
2.71
2.13
1.59
1.27
1.19
1.26
1.34
1.39
1.46
1.64
1.96
2.35
2.66
2.73
2.54
2.16
1.76
1.47
1.38
1.45
1.56
1.59
1.49
1.24
0.90
0.57
0.33
0.24
0.29
0.47
0.70
0.91
1.08
1.19
1.25
1.30
1.33
1.36
1.37
1.38
1.39
1.42
1.45
1.45
1.41
1.31
1.22
1.21
1.33
1.59
1.94
2.27
2.44
2.39
2.11
1.68
1.24
0.91
0.77
0.82
1.02
1.26
1.42
1.42
1.20
0.79
0.29
-0.17
-0.47
-0.55
-0.43
-0.19
0.07
0.29
0.44
0.53
0.60
0.65
0.71
0.76
0.82
0.90
0.99
1.07
1.12
1.06
0.89
0.64
0.39
0.22
0.16
0.19
0.24
0.25
0.20
0.14
0.13
0.24
0.47
0.75
1.00
1.12
1.08
0.92
0.69
0.48
0.34
0.32
0.40
0.53
0.64
0.68
0.66
0.62
0.62
0.68
0.80
0.94
1.04
1.07
1.02
0.89
0.71
0.48
0.27
0.12
0.07
0.11
0.20
0.27
0.27
0.20
0.12
0.08
0.13
0.22
0.31
0.36
0.36
0.37
0.41
0.49
0.55
0.54
0.41
0.17
-0.10
-0.33
-0.48
-0.55
-0.54
-0.46
-0.32
-0.12
0.10
0.32
0.50
0.65
0.78
0.87
0.89
0.81
0.62
0.41
0.26
0.25
0.41
0.63
0.80
0.80
0.63
0.39
0.23
0.23
0.41
0.68
0.93
1.05
1.00
0.82
0.56
0.30
0.08
-0.06
-0.11
-0.07
0.03
0.17
0.32
0.46
0.57
0.62
0.59
0.48
0.30
0.08
-0.14
-0.34
-0.46
-0.49
-0.41
-0.24
-0.01
0.18
0.27
0.21
0.04
-0.17
-0.33
-0.41
-0.39
-0.32
-0.23
-0.08
0.14
0.44
0.76
1.00
1.07
0.92
0.60
0.23
-0.04
-0.11
0.04
0.38
0.80
1.15
1.33
1.28
1.02
0.64
0.25
-0.04
-0.21
-0.26
-0.29
-0.35
-0.46
-0.59
-0.68
-0.67
-0.57
-0.41
-0.24
-0.11
-0.01
0.09
0.19
0.31
0.41
0.48
0.49
0.45
0.35
0.22
0.05
-0.12
-0.23
-0.23
-0.08
0.22
0.59
0.94
1.17
1.25
1.16
0.94
0.64
0.32
0.03
-0.19
-0.31
-0.31
-0.21
-0.05
0.15
0.33
0.48
0.58
0.63
0.62
0.57
0.45
0.27
0.06
-0.17
-0.35
-0.45
-0.43
-0.32
-0.15
0.01
0.14
0.20
0.20
0.14
0.02
-0.11
-0.22
-0.28
-0.27
-0.20
-0.12
-0.08
-0.08
-0.12
-0.13
-0.09
-0.01
0.05
0.03
-0.07
-0.20
-0.26
-0.18
0.03
0.27
0.46
0.51
0.44
0.32
0.19
0.10
0.05
0.04
0.05
0.08
0.10
0.08
-0.01
-0.19
-0.39
-0.54
-0.56
-0.43
-0.20
0.05
0.25
0.38
0.47
0.55
0.62
0.66
0.64
0.56
0.46
0.39
0.40
0.47
0.52
0.49
0.34
0.12
-0.10
-0.23
-0.26
-0.23
-0.22
-0.25
-0.33
-0.40
-0.40
-0.32
-0.16
0.02
0.18
0.28
0.28
0.19
-0.00
-0.24
-0.46
-0.59
-0.60
-0.51
-0.39
-0.27
-0.19
-0.09
0.06
0.30
0.58
0.82
0.89
0.71
0.31
-0.23
-0.75
-1.08
-1.13
-0.89
-0.44
0.09
0.56
0.88
1.00
0.95
0.76
0.53
0.30
0.13
0.07
0.08
0.16
0.23
0.26
0.23
0.15
0.05
-0.02
-0.06
-0.05
-0.01
0.03
0.05
0.05
0.02
-0.00
-0.01
0.02
0.07
0.12
0.12
0.05
-0.06
-0.15
-0.17
-0.08
0.09
0.26
0.36
0.39
0.38
0.39
0.44
0.49
0.48
0.34
0.06
-0.30
-0.63
-0.82
-0.85
-0.71
-0.47
-0.22
-0.04
0.00
-0.12
-0.38
-0.72
-1.06
-1.32
-1.45
-1.46
-1.40
-1.31
-1.26
-1.24
-1.27
-1.33
-1.42
-1.56
-1.75
-2.01
-2.25
-2.39
-2.35
-2.10
-1.72
-1.36
-1.23
-1.45
-2.01
-2.72
-3.29
-3.44
-3.05
-2.18
-1.12
-0.26
0.05
-0.48
-1.90
-4.10
-6.82
-9.70
-12.38
-14.57
-16.09
-16.94
-17.36
-17.69
-18.36
-19.70
-21.80
-24.52
-27.54
-30.56
-33.44
-36.28
-39.36
-42.87
-46.80
-50.84
-54.59
-57.84
-60.72
-63.73
-67.49
-72.42
-78.47
-85.15
-91.80
-97.90
-103.37
-108.55
-113.97
-120.18
-127.63
-136.71
-147.74
-160.65
-174.37
-186.52
-193.57
-191.76
-178.41
-152.92
-116.81
-72.79
-23.59
28.69
82.23
134.62
182.30
221.01
247.28
260.03
261.34
255.75
248.52
243.75
243.29
246.85
252.73
259.09
264.66
269.03
272.56
276.02
280.25
285.96
293.55
302.89
313.24
322.99
329.68
330.35
322.38
304.27
276.34
240.65
200.22
158.00
115.78
73.84
31.19
-13.59
-61.27
-110.99
-159.99
-204.03
-238.59
-260.47
-268.88
-265.75
-254.86
-240.27
-224.99
-210.38
-196.52
-183.14
-170.37
-158.74
-148.77
-140.42
-132.87
-124.98
-115.88
-105.52
-94.62
-84.41
-75.96
-69.68
-65.22
-61.65
-57.90
-53.23
-47.50
-41.15
-34.99
-29.74
-25.81
-23.08
-21.10
-19.26
-17.11
-14.53
-11.72
-9.03
-6.79
-5.13
-4.00
-3.23
-2.61
-2.02
-1.44
-0.91
-0.48
-0.16
0.09
0.35
0.64
0.94
1.22
1.41
1.49
1.48
1.45
1.43
1.42
1.36
1.19
0.85
0.41
-0.03
-0.35
-0.49
-0.45
-0.36
-0.33
-0.43
-0.68
-0.98
-1.23
-1.38
-1.46
-1.53
-1.66
-1.86
-2.06
-2.15
-2.06
-1.79
-1.42
-1.05
-0.75
-0.51
-0.27
0.02
0.38
0.79
1.18
1.55
1.89
2.23
2.54
2.76
2.80
2.60
2.24
1.86
1.63
1.62
1.78
1.93
1.91
1.62
1.12
0.52
-0.02
-0.45
-0.78
-1.10
-1.46
-1.85
-2.21
-2.46
-2.56
-2.52
-2.40
-2.27
-2.16
-2.04
-1.83
-1.47
-0.98
-0.42
0.12
0.60
1.02
1.46
1.91
2.30
2.47
2.27
1.69
0.90
0.17
-0.26
-0.30
-0.07
0.21
0.36
0.30
0.10
-0.16
-0.40
-0.61
-0.83
-1.05
-1.26
-1.42
-1.50
-1.50
-1.47
-1.42
-1.35
-1.20
-0.92
-0.51
0.01
0.56
1.09
1.58
2.06
2.52
2.93
3.19
3.18
2.87
2.33
1.72
1.23
0.97
0.89
0.85
0.67
0.29
-0.25
-0.77
-1.11
-1.19
-1.06
-0.87
-0.76
-0.83
-1.09
-1.45
-1.80
-2.02
-2.07
-1.97
-1.80
-1.66
-1.62
-1.61
-1.55
-1.30
-0.82
-0.17
0.52
1.09
1.46
1.62
1.61
1.49
1.31
1.08
0.86
0.66
0.52
0.45
0.44
0.46
0.47
0.42
0.29
0.06
-0.26
-0.67
-1.14
-1.64
-2.09
-2.43
-2.57
-2.44
-1.99
-1.25
-0.34
0.56
1.30
1.76
1.97
2.02
2.05
2.16
2.38
2.65
2.86
2.88
2.68
2.28
1.82
1.41
1.12
0.94
0.75
0.46
0.03
-0.47
-0.87
-1.03
-0.88
-0.52
-0.18
-0.08
-0.37
-1.02
-1.85
-2.59
-3.04
-3.12
-2.90
-2.57
-2.26
-2.03
-1.87
-1.71
-1.50
-1.21
-0.86
-0.45
0.03
0.60
1.27
1.95
2.53
2.88
2.94
2.73
2.38
2.00
1.69
1.45
1.22
0.94
0.58
0.18
-0.22
-0.52
-0.73
-0.85
-0.93
-1.02
-1.16
-1.36
-1.59
-1.81
-1.95
-1.99
-1.92
-1.76
-1.51
-1.20
-0.82
-0.37
0.09
0.51
0.82
1.04
1.23
1.48
1.87
2.39
2.95
3.38
3.56
3.40
2.93
2.25
1.52
0.89
0.46
0.21
0.07
-0.07
-0.31
-0.63
-0.93
-1.06
-0.96
-0.69
-0.41
-0.31
-0.47
-0.83
-1.23
-1.49
-1.49
-1.27
-0.96
-0.73
-0.70
-0.89
-1.23
-1.61
-1.90
-2.03
-2.00
-1.86
-1.65
-1.40
-1.06
-0.65
-0.19
0.21
0.39
0.28
-0.10
-0.58
-1.00
-1.26
-1.44
-1.71
-2.23
-3.02
-3.90
-4.59
-4.86
-4.68
-4.28
-4.05
-4.31
-5.18
-6.48
-7.81
-8.72
-8.91
-8.40
-7.57
-6.96
-7.11
-8.25
-10.16
-12.21
-13.64
-13.92
-13.10
-11.89
-11.37
-12.52
-15.63
-20.13
-24.73
-28.00
-29.09
-28.14
-26.22
-24.88
-25.46
-28.69
-34.61
-42.78
-52.17
-60.89
-65.99
-64.08
-52.71
-32.00
-5.42
20.99
41.05
51.11
51.60
46.43
40.68
37.94
38.86
41.60
43.63
43.52
41.60
39.34
38.02
37.78
37.62
36.12
32.39
26.64
20.16
14.63
11.37
10.70
11.85
13.44
14.06
12.98
10.43
7.35
4.92
3.95
4.51
6.02
7.54
8.28
7.88
6.51
4.72
3.14
2.23
2.08
2.46
2.93
3.06
2.62
1.65
0.45
-0.61
-1.29
-1.52
-1.43
-1.24
-1.11
-1.09
-1.09
-1.01
-0.80
-0.50
-0.18
0.05
0.15
0.09
-0.08
-0.31
-0.53
-0.71
-0.84
-0.97
-1.17
-1.47
-1.83
-2.12
-2.22
-2.05
-1.66
-1.18
-0.77
-0.53
-0.42
-0.36
-0.26
-0.11
0.07
0.21
0.31
0.46
0.74
1.21
1.81
2.44
2.93
3.19
3.18
2.90
2.37
1.62
0.66
-0.45
-1.60
-2.64
-3.39
-3.76
-3.77
-3.54
-3.22
-2.98
-2.91
-3.02
-3.26
-3.51
-3.58
-3.26
-2.41
-1.00
0.80
2.71
4.40
5.62
6.33
6.65
6.76
6.79
6.77
6.62
6.30
5.83
5.32
4.93
4.70
4.55
4.32
3.87
3.18
2.34
1.50
0.75
0.11
-0.50
-1.17
-1.95
-2.86
-3.84
-4.84
-5.84
-6.83
-7.86
-8.98
-10.25
-11.68
-13.24
-14.79
-16.16
-17.20
-17.91
-18.43
-19.04
-19.97
-21.32
-22.95
-24.59
-25.96
-26.98
-27.84
-29.02
-31.08
-34.40
-38.99
-44.34
-49.57
-53.77
-56.44
-57.77
-58.66
-60.44
-64.26
-70.61
-79.10
-88.68
-98.23
-107.02
-115.10
-123.17
-132.23
-143.07
-156.02
-170.81
-186.62
-202.08
-215.30
-223.94
-225.54
-218.10
-200.66
-173.68
-138.86
-98.47
-54.48
-8.03
40.35
89.97
139.10
184.80
223.52
252.37
270.36
278.67
280.02
277.44
273.16
268.22
262.91
257.52
252.82
249.91
249.56
251.63
254.97
257.91
259.12
258.27
256.03
253.78
252.95
254.50
258.59
264.40
270.14
273.23
270.79
260.45
241.09
213.24
178.86
140.45
99.95
57.95
13.81
-33.39
-83.46
-134.07
-180.91
-218.93
-244.17
-255.38
-254.31
-244.91
-231.57
-217.60
-204.40
-191.85
-179.30
-166.53
-154.11
-143.01
-133.86
-126.47
-119.90
-112.93
-104.82
-95.58
-85.99
-77.16
-69.93
-64.50
-60.36
-56.58
-52.26
-47.02
-41.06
-35.09
-29.92
-26.06
-23.53
-21.84
-20.26
-18.21
-15.44
-12.15
-8.82
-5.97
-3.92
-2.71
-2.14
-1.92
-1.81
-1.66
-1.46
-1.20
-0.87
-0.44
0.12
0.76
1.36
1.79
1.95
1.84
1.56
1.25
1.03
0.93
0.93
0.96
0.98
0.96
0.89
0.72
0.41
-0.06
-0.65
-1.28
-1.79
-2.05
-1.98
-1.59
-0.98
-0.29
0.29
0.68
0.88
1.01
1.18
1.49
1.86
2.11
2.06
1.63
0.94
0.23
-0.27
-0.47
-0.44
-0.36
-0.35
-0.45
-0.56
-0.58
-0.49
-0.34
-0.30
-0.46
-0.83
-1.35
-1.90
-2.38
-2.73
-2.99
-3.20
-3.44
-3.77
-4.23
-4.79
-5.34
-5.78
-6.07
-6.26
-6.47
-6.86
-7.48
-8.26
-9.05
-9.63
-9.85
-9.68
-9.21
-8.67
-8.38
-8.68
-9.81
-11.92
-14.90
-18.47
-22.24
-25.87
-29.20
-32.31
-35.44
-38.86
-42.74
-47.11
-51.82
-56.71
-61.68
-66.77
-72.14
-77.98
-84.36
-91.24
-98.41
-105.66
-112.81
-119.80
-126.66
-133.42
-140.04
-146.37
-152.18
-157.30
-161.70
-165.48
-168.51
-170.18
-169.07
-163.17
-150.39
-129.30
-99.53
-61.80
-17.56
31.28
82.35
132.56
178.05
214.75
239.38
250.72
250.08
240.92
227.53
213.56
201.14
190.79
182.08
174.34
167.11
160.15
153.32
146.44
139.36
132.10
124.90
118.18
112.47
108.09
105.01
102.69
100.28
96.95
92.35
86.92
81.86
78.62
