1660932055.00
64.000000
-0.00
-0.00
-0.00
-0.00
-0.00
-0.00
-0.00
-0.00
-0.00
-0.00
0.00
0.01
0.01
-0.00
-0.03
-0.05
-0.05
0.00
0.13
0.36
0.66
1.01
1.37
1.72
2.06
2.40
2.79
3.25
3.81
4.44
5.10
5.73
6.32
6.89
7.51
8.25
9.15
10.29
11.55
12.81
13.95
14.92
15.81
16.81
18.16
19.99
22.52
25.49
28.64
31.64
34.38
36.97
39.78
43.28
47.77
53.58
60.29
67.32
74.09
80.34
86.27
92.49
99.78
108.64
119.44
131.49
143.85
155.61
166.37
176.47
186.85
199.01
211.59
226.52
243.98
263.73
284.49
303.64
317.37
321.59
313.25
291.36
257.78
215.65
168.70
120.01
71.47
24.01
-21.78
-65.26
-105.78
-142.80
-176.88
-209.32
-241.89
-276.02
-312.00
-348.33
-381.59
-407.38
-421.53
-421.83
-408.96
-386.23
-358.29
-329.32
-301.78
-276.22
-252.05
-228.54
-205.75
-184.43
-165.41
-148.89
-134.29
-120.58
-106.83
-92.71
-78.58
-65.25
-53.53
-43.81
-35.91
-29.20
-22.93
-16.58
-10.00
-3.50
2.42
7.32
10.99
13.62
15.62
17.44
19.39
21.47
23.52
25.25
26.44
27.02
27.09
26.81
26.38
25.94
25.54
25.20
24.87
24.50
24.08
23.58
23.02
22.45
21.90
21.38
20.87
20.34
19.70
18.92
18.00
17.02
16.11
15.37
14.85
14.51
14.27
14.07
13.88
13.70
13.54
13.37
13.16
12.90
12.59
12.29
12.03
11.81
11.57
11.24
10.81
10.30
9.77
9.29
8.91
8.63
8.47
8.43
8.47
8.54
8.54
8.41
8.16
7.84
7.53
7.27
7.03
6.76
6.41
5.99
5.56
5.19
4.87
4.54
4.11
3.53
2.85
2.13
1.50
1.01
0.62
0.21
-0.29
-0.92
-1.64
-2.32
-2.89
-3.33
-3.75
-4.27
-5.00
-5.90
-6.87
-7.75
-8.39
-8.77
-8.92
-8.94
-8.90
-8.86
-8.81
-8.75
-8.66
-8.58
-8.52
-8.49
-8.45
-8.35
-8.11
-7.68
-7.08
-6.36
-5.60
-4.89
-4.28
-3.75
-3.26
-2.76
-2.19
-1.58
-0.96
-0.40
0.06
0.40
0.65
0.85
1.04
1.20
1.30
1.33
1.33
1.41
1.65
2.06
2.56
3.05
3.44
3.72
3.95
4.19
4.46
4.70
4.79
4.70
4.44
4.13
3.91
3.84
3.90
4.00
4.08
4.11
4.11
4.14
4.20
4.27
4.25
4.12
3.88
3.63
3.47
3.48
3.63
3.88
4.13
4.33
4.47
4.56
4.59
4.50
4.25
3.83
3.28
2.72
2.28
2.03
1.99
2.08
2.18
2.22
2.22
2.21
2.25
2.37
2.52
2.64
2.66
2.59
2.46
2.35
2.30
2.34
2.45
2.59
2.72
2.80
2.81
2.75
2.64
2.54
2.48
2.46
2.44
2.37
2.21
1.97
1.70
1.49
1.37
1.33
1.31
1.28
1.21
1.12
1.04
0.96
0.86
0.72
0.53
0.31
0.14
0.09
0.20
0.43
0.72
0.97
1.10
1.09
0.97
0.85
0.79
0.87
1.09
1.40
1.74
2.03
2.19
2.20
2.05
1.77
1.41
1.03
0.69
0.42
0.26
0.22
0.34
0.61
1.00
1.43
1.75
1.85
1.65
1.20
0.64
0.15
-0.13
-0.12
0.12
0.46
0.77
0.98
1.07
1.04
0.93
0.75
0.51
0.26
0.06
0.01
0.17
0.51
0.89
1.15
1.18
0.99
0.71
0.51
0.49
0.62
0.80
0.93
0.95
0.87
0.73
0.58
0.40
0.21
-0.01
-0.21
-0.35
-0.38
-0.30
-0.14
0.05
0.22
0.35
0.42
0.44
0.44
0.46
0.55
0.71
0.88
1.02
1.07
1.02
0.94
0.86
0.84
0.90
1.01
1.13
1.22
1.24
1.18
1.03
0.81
0.52
0.20
-0.07
-0.25
-0.28
-0.17
0.03
0.24
0.36
0.39
0.34
0.28
0.27
0.30
0.34
0.31
0.22
0.07
-0.08
-0.20
-0.26
-0.27
-0.22
-0.11
0.06
0.27
0.47
0.60
0.63
0.57
0.45
0.34
0.27
0.25
0.26
0.33
0.49
0.74
1.06
1.32
1.40
1.21
0.79
0.29
-0.09
-0.19
0.02
0.41
0.80
1.03
1.06
0.98
0.90
0.92
1.04
1.17
1.22
1.10
0.84
0.52
0.26
0.14
0.16
0.26
0.31
0.22
-0.01
-0.30
-0.49
-0.46
-0.21
0.17
0.48
0.59
0.47
0.21
-0.03
-0.15
-0.13
-0.03
0.07
0.11
0.10
0.07
0.05
0.05
0.02
-0.05
-0.14
-0.21
-0.19
-0.05
0.20
0.49
0.76
0.94
1.01
0.92
0.66
0.26
-0.23
-0.74
-1.15
-1.39
-1.41
-1.25
-0.95
-0.61
-0.28
-0.02
0.14
0.17
0.09
-0.04
-0.17
-0.22
-0.17
-0.01
0.18
0.36
0.47
0.48
0.41
0.26
0.09
-0.07
-0.18
-0.23
-0.23
-0.19
-0.12
-0.02
0.13
0.31
0.50
0.64
0.66
0.53
0.24
-0.14
-0.49
-0.70
-0.71
-0.51
-0.17
0.20
0.53
0.74
0.84
0.83
0.72
0.53
0.28
-0.01
-0.27
-0.42
-0.41
-0.22
0.11
0.50
0.83
1.03
1.08
1.00
0.87
0.74
0.66
0.64
0.62
0.57
0.46
0.29
0.09
-0.08
-0.23
-0.33
-0.37
-0.39
-0.40
-0.43
-0.53
-0.65
-0.72
-0.67
-0.45
-0.10
0.25
0.46
0.47
0.33
0.19
0.22
0.48
0.92
1.35
1.60
1.54
1.19
0.68
0.17
-0.21
-0.43
-0.52
-0.55
-0.58
-0.60
-0.57
-0.41
-0.08
0.39
0.89
1.29
1.45
1.33
0.98
0.53
0.12
-0.13
-0.20
-0.12
0.01
0.09
0.08
0.03
0.02
0.15
0.48
0.97
1.51
1.96
2.20
2.19
1.93
1.50
0.99
0.49
0.12
-0.05
0.02
0.28
0.64
0.94
1.04
0.88
0.48
-0.03
-0.52
-0.88
-1.08
-1.15
-1.16
-1.20
-1.32
-1.51
-1.74
-1.95
-2.11
-2.22
-2.27
-2.26
-2.13
-1.82
-1.32
-0.74
-0.23
0.10
0.20
0.18
0.20
0.36
0.64
0.90
0.94
0.64
0.05
-0.68
-1.32
-1.73
-1.91
-1.92
-1.86
-1.79
-1.72
-1.62
-1.49
-1.36
-1.30
-1.38
-1.64
-2.03
-2.45
-2.80
-3.03
-3.13
-3.20
-3.33
-3.56
-3.87
-4.14
-4.24
-4.07
-3.61
-2.92
-2.06
-1.06
0.06
1.29
2.55
3.65
4.40
4.65
4.40
3.82
3.17
2.69
2.47
2.48
2.58
2.67
2.72
2.82
3.02
3.33
3.64
3.79
3.67
3.28
2.74
2.21
1.84
1.67
1.63
1.60
1.45
1.12
0.66
0.15
-0.30
-0.63
-0.84
-1.00
-1.19
-1.48
-1.84
-2.19
-2.40
-2.40
-2.18
-1.86
-1.60
-1.54
-1.72
-2.11
-2.57
-2.95
-3.10
-2.95
-2.51
-1.86
-1.15
-0.50
-0.04
0.23
0.33
0.27
0.03
-0.48
-1.34
-2.56
-4.01
-5.45
-6.60
-7.26
-7.38
-7.08
-6.59
-6.21
-6.14
-6.46
-7.13
-7.98
-8.86
-9.73
-10.71
-12.09
-14.22
-17.29
-21.26
-25.71
-30.03
-33.54
-35.82
-36.87
-37.15
-37.42
-38.48
-40.83
-44.46
-48.86
-53.28
-57.04
-59.84
-61.97
-64.14
-67.17
-71.57
-77.31
-83.82
-90.23
-95.72
-99.96
-103.18
-106.24
-110.45
-117.33
-128.09
-142.83
-159.94
-175.82
-185.51
-184.01
-168.09
-137.58
-95.65
-47.94
-0.71
40.85
73.87
97.88
114.15
124.65
131.17
134.83
136.04
134.87
131.45
126.38
120.80
116.26
114.22
115.60
120.52
128.26
137.52
146.88
155.30
162.36
168.22
173.45
178.59
183.85
189.06
193.83
197.89
201.37
204.87
209.19
215.03
222.64
231.75
241.74
251.77
260.78
267.39
269.87
266.22
254.76
234.63
206.25
171.16
131.47
88.95
44.44
-2.03
-50.47
-99.79
-147.19
-188.54
-219.62
-237.82
-243.12
-238.06
-226.60
-212.54
-198.38
-185.05
-172.51
-160.63
-149.71
-140.37
-133.01
-127.33
-122.30
-116.68
-109.62
-101.18
-92.19
-83.98
-77.56
-73.16
-70.12
-67.24
-63.36
-58.05
-51.83
-45.96
-41.81
-40.07
-40.40
-41.43
-41.45
-39.30
-34.96
-29.70
-25.45
-23.84
-25.30
-28.73
-31.96
-32.77
-29.93
-23.80
-16.10
-9.05
-4.49
-3.21
-4.82
-7.76
-9.36
-6.07
5.78
28.53
61.36
99.12
132.87
152.67
151.43
128.18
88.76
43.51
3.08
-25.44
-40.33
-44.16
-41.24
-35.13
-27.55
-19.05
-10.16
-2.26
2.65
2.99
-1.27
-8.35
-15.34
-19.45
-19.22
-15.05
-8.90
-3.30
-0.26
-0.52
-3.43
-7.41
-10.75
-12.33
-11.96
-10.30
-8.43
-7.30
-7.30
-8.19
-9.26
-9.74
-9.20
-7.72
-5.88
-4.44
-3.94
-4.49
-5.73
-7.04
-7.88
-8.02
-7.57
-6.88
-6.27
-5.84
-5.45
-4.82
-3.74
-2.22
-0.47
1.13
2.25
2.75
2.65
2.14
1.45
0.81
0.41
0.35
0.69
1.38
2.21
2.89
3.21
3.08
2.72
2.49
2.69
3.37
4.24
4.76
4.46
3.17
1.08
-1.31
-3.45
-4.97
-5.77
-6.00
-5.92
-5.79
-5.74
-5.75
-5.69
-5.38
-4.64
-3.33
-1.33
1.45
4.98
9.04
13.13
16.57
18.65
18.95
17.46
14.60
11.00
7.25
3.69
0.53
-2.09
-3.97
-4.89
-4.79
-3.87
-2.61
-1.59
-1.21
-1.53
-2.32
-3.22
-3.94
-4.40
-4.64
-4.80
-4.95
-5.08
-5.12
-5.04
-4.84
-4.57
-4.29
-4.00
-3.69
-3.33
-2.94
-2.59
-2.40
-2.40
-2.54
-2.65
-2.58
-2.26
-1.79
-1.43
-1.36
-1.65
-2.08
-2.27
-1.89
-0.81
0.81
2.61
4.17
5.21
5.57
5.25
4.29
2.78
0.86
-1.23
-3.16
-4.61
-5.32
-5.21
-4.37
-2.98
-1.18
0.99
3.58
6.62
9.95
13.18
15.68
16.89
16.48
14.55
11.64
8.48
5.68
3.50
1.87
0.48
-0.90
-2.28
-3.42
-4.05
-4.03
-3.46
-2.70
-2.14
-2.07
-2.51
-3.26
-4.00
-4.47
-4.58
-4.39
-4.09
-3.85
-3.78
-3.88
-4.07
-4.18
-4.09
-3.70
-3.03
-2.24
-1.56
-1.19
-1.23
-1.53
-1.83
-1.91
-1.68
-1.33
-1.14
-1.35
-1.99
-2.83
-3.51
-3.75
-3.48
-2.89
-2.30
-1.99
-2.08
-2.51
-3.03
-3.38
-3.37
-2.98
-2.36
-1.74
-1.38
-1.40
-1.76
-2.22
-2.44
-1.97
-0.44
2.35
6.30
10.92
15.45
18.96
20.75
20.53
18.52
15.33
11.71
8.28
5.35
2.97
1.06
-0.48
-1.66
-2.47
-2.90
-3.05
-3.06
-3.10
-3.26
-3.55
-3.89
-4.17
-4.32
-4.34
-4.29
-4.26
-4.33
-4.52
-4.79
-5.06
-5.21
-5.18
-4.92
-4.44
-3.78
-3.07
-2.44
-2.04
-1.94
-2.10
-2.38
-2.56
-2.46
-2.07
-1.49
-0.95
-0.65
-0.66
-0.88
-1.05
-0.95
-0.48
0.34
1.39
2.53
3.61
4.48
4.97
4.91
4.20
2.88
1.15
-0.68
-2.30
-3.48
-4.16
-4.38
-4.24
-3.79
-2.96
-1.60
0.48
3.34
6.78
10.30
13.18
14.74
14.62
12.90
10.13
7.06
4.31
2.18
0.64
-0.52
-1.50
-2.34
-2.93
-3.12
-2.88
-2.29
-1.57
-0.91
-0.44
-0.21
-0.19
-0.37
-0.73
-1.25
-1.91
-2.63
-3.30
-3.82
-4.12
-4.15
-3.91
-3.39
-2.62
-1.69
-0.76
-0.02
0.35
0.26
-0.21
-0.87
-1.48
-1.86
-1.96
-1.81
-1.52
-1.10
-0.53
0.27
1.33
2.56
3.78
4.73
5.19
5.00
4.18
2.90
1.37
-0.17
-1.51
-2.53
-3.15
-3.30
-2.99
-2.28
-1.34
-0.40
0.29
0.60
0.59
0.42
0.27
0.19
0.04
-0.36
-1.19
-2.36
-3.64
-4.67
-5.22
-5.19
-4.73
-4.05
-3.30
-2.59
-1.91
-1.26
-0.65
-0.16
0.15
0.28
0.33
0.42
0.66
1.08
1.55
1.90
1.96
1.69
1.16
0.48
-0.25
-1.06
-2.02
-3.22
-4.59
-5.94
-6.96
-7.43
-7.37
-7.08
-7.07
-7.81
-9.45
-11.67
-13.77
-14.91
-14.61
-13.06
-11.19
-10.27
-11.34
-14.48
-18.58
-21.64
-21.73
-17.98
-11.33
-3.97
1.54
3.68
2.47
-0.98
-5.42
-9.79
-12.79
-12.20
-5.13
10.35
33.13
58.19
77.87
85.32
78.01
59.16
36.05
16.18
3.72
-1.75
-3.65
-5.42
-8.29
-11.08
-11.71
-9.20
-4.40
0.46
3.16
2.73
-0.25
-3.94
-6.32
-6.24
-3.82
-0.33
2.49
3.34
1.91
-1.05
-4.13
-6.09
-6.30
-5.02
-3.10
-1.49
-0.83
-1.13
-1.95
-2.60
-2.61
-1.87
-0.68
0.44
1.02
0.81
-0.10
-1.36
-2.54
-3.29
-3.48
-3.22
-2.72
-2.24
-1.93
-1.81
-1.81
-1.76
-1.59
-1.29
-0.94
-0.68
-0.62
-0.74
-0.96
-1.12
-1.09
-0.85
-0.49
-0.15
0.06
0.10
0.03
-0.08
-0.18
-0.29
-0.45
-0.67
-0.91
-1.08
-1.11
-0.97
-0.75
-0.52
-0.35
-0.25
-0.17
-0.07
0.02
0.07
0.02
-0.16
-0.46
-0.87
-1.38
-1.97
-2.64
-3.34
-3.99
-4.50
-4.78
-4.74
-4.31
-3.42
-2.09
-0.45
1.18
2.42
2.86
2.36
1.04
-0.73
-2.49
-3.95
-5.05
-5.98
-7.01
-8.29
-9.78
-11.28
-12.53
-13.26
-13.24
-12.29
-10.27
-7.18
-3.24
1.12
5.34
8.86
11.31
12.55
12.70
12.04
10.91
9.66
8.52
7.59
6.82
6.09
5.24
4.26
3.24
2.37
1.77
1.39
0.95
0.08
-1.55
-4.02
-7.11
-10.39
-13.43
-16.00
-18.21
-20.40
-23.04
-26.45
-30.69
-35.55
-40.63
-45.56
-50.13
-54.47
-59.00
-64.26
-70.66
-78.17
-86.19
-93.71
-99.68
-103.51
-105.41
-106.44
-108.06
-111.62
-118.01
-127.42
-139.43
-152.94
-166.11
-176.35
-180.55
-175.85
-160.40
-134.03
-98.16
-55.08
-6.89
45.12
100.32
157.83
215.48
269.57
315.69
350.40
372.69
384.48
389.82
393.15
397.41
403.00
407.79
408.27
401.10
384.39
358.25
324.34
285.02
242.33
197.31
149.88
99.39
45.52
-10.67
-66.37
-117.35
-159.13
-188.53
-204.73
-209.49
-206.26
-198.72
-189.51
-179.66
-169.13
-157.73
-145.93
-134.92
-126.01
-119.74
-115.50
-111.79
-107.03
-100.31
-91.81
-82.59
-74.01
-67.10
-62.14
-58.69
-55.85
-52.75
-48.87
-44.18
-39.13
-34.36
-30.40
-27.53
-25.65
-24.39
-23.34
-22.16
-20.70
-18.97
-17.07
-15.12
-13.24
-11.48
-9.89
-8.42
-6.97
-5.37
-3.38
-0.69
3.10
8.35
15.19
23.26
31.50
38.32
41.97
41.25
36.00
27.25
16.93
7.06
-0.82
-6.12
-9.03
-10.17
-10.16
-9.37
-7.98
-6.21
-4.40
-3.00
-2.40
-2.63
-3.33
-3.86
-3.62
-2.37
-0.38
1.67
3.04
3.27
2.35
0.71
-1.10
-2.63
-3.71
-4.40
-4.87
-5.27
-5.60
-5.83
-5.91
-5.86
-5.74
-5.64
-5.57
-5.51
-5.38
-5.14
-4.75
-4.26
-3.75
-3.30
-2.98
-2.82
-2.77
-2.76
-2.71
-2.53
-2.19
-1.70
-1.08
-0.38
0.37
1.12
1.85
2.49
3.01
3.35
3.49
3.43
3.20
2.85
2.44
2.04
1.73
1.57
1.60
1.78
2.00
2.09
1.93
1.50
0.94
0.47
0.32
0.60
1.25
2.11
2.98
3.69
4.13
4.25
3.99
3.30
2.22
0.85
-0.64
-2.05
-3.26
-4.26
-5.08
-5.84
-6.55
-7.20
-7.72
-8.04
-8.12
-7.99
-7.69
-7.28
-6.83
-6.40
-6.03
-5.72
-5.46
-5.20
-4.92
-4.62
-4.31
-3.99
-3.62
-3.09
-2.30
-1.17
0.33
2.19
4.41
6.97
9.83
12.78
15.49
17.48
18.36
17.94
16.35
14.00
11.42
9.00
6.91
5.14
3.56
2.16
1.03
0.28
-0.09
-0.27
-0.63
-1.48
-2.92
-4.76
-6.55
-7.87
-8.47
-8.40
-7.88
-7.21
-6.58
-6.08
-5.72
-5.48
-5.29
-5.05
-4.70
-4.17
-3.52
-2.89
-2.40
-2.08
-1.83
-1.51
-1.02
-0.40
0.22
0.66
0.91
1.10
1.45
2.12
3.05
3.99
4.63
4.71
4.26
3.46
2.63
1.94
1.42
0.91
0.30
-0.42
-1.08
-1.43
-1.34
-0.85
-0.12
0.72
1.72
3.01
4.66
