1660755488.00
64.000000
-0.00
-0.00
-0.00
-0.00
-0.00
-0.00
-0.00
-0.00
-0.00
-0.00
0.00
0.01
0.01
-0.00
-0.03
-0.05
-0.05
0.00
0.13
0.36
0.66
1.01
1.37
1.72
2.06
2.40
2.79
3.24
3.80
4.42
5.06
5.66
6.20
6.68
7.15
7.68
8.31
9.14
10.09
11.04
11.88
12.56
13.14
13.76
14.65
15.96
17.91
20.32
22.90
25.38
27.58
29.57
31.68
34.32
37.81
42.54
48.15
54.10
59.83
64.97
69.58
74.14
79.34
85.71
93.76
103.00
112.62
121.73
129.77
136.75
143.30
150.75
157.77
166.64
177.95
191.79
206.97
220.57
228.25
225.36
208.53
176.87
132.76
80.05
23.07
-34.94
-92.44
-149.16
-205.23
-260.37
-313.74
-363.87
-409.83
-450.91
-486.50
-515.74
-537.23
-549.22
-549.96
-538.37
-514.21
-478.67
-433.88
-382.45
-327.02
-269.84
-212.63
-156.66
-102.95
-52.37
-5.90
35.58
71.43
101.35
125.50
144.38
158.69
169.15
176.37
180.75
182.57
182.07
179.51
175.23
169.65
163.18
156.15
148.81
141.30
133.69
126.02
118.33
110.69
103.16
95.80
88.68
81.83
75.25
68.95
62.95
57.25
51.86
46.78
42.03
37.59
33.45
29.61
26.07
22.81
19.83
17.11
14.67
12.48
10.54
8.83
7.35
6.07
4.97
4.05
3.27
2.62
2.09
1.65
1.30
1.01
0.79
0.61
0.48
0.37
0.29
0.24
0.20
0.18
0.17
0.17
0.18
0.20
0.23
0.26
0.29
0.33
0.38
0.42
0.46
0.51
0.56
0.60
0.66
0.71
0.77
0.84
0.91
0.99
1.08
1.18
1.28
1.40
1.54
1.70
1.89
2.10
2.33
2.56
2.77
2.97
3.17
3.39
3.67
4.03
4.47
4.97
5.49
6.02
6.54
7.06
7.61
8.24
8.97
9.80
10.69
11.58
12.43
13.22
13.99
14.82
15.78
16.95
18.25
19.55
20.61
21.22
21.19
20.49
19.20
17.45
15.35
12.85
9.80
5.91
1.05
-4.68
-10.92
-17.08
-22.52
-26.76
-29.71
-31.67
-33.17
-34.75
-36.68
-38.85
-40.81
-42.06
-42.32
-41.63
-40.42
-39.27
-38.76
-39.35
-41.44
-45.23
-50.35
-55.48
-58.35
-56.43
-48.01
-33.26
-14.53
4.39
19.70
29.15
32.59
31.67
28.60
25.11
21.93
19.14
16.69
14.75
13.65
13.53
14.10
14.62
14.35
12.86
10.38
7.51
4.93
3.07
1.96
1.32
0.82
0.33
0.01
0.66
3.28
8.70
17.23
28.46
41.38
54.77
67.79
78.91
87.58
93.94
98.43
101.25
102.06
100.06
94.39
84.72
71.41
55.72
39.09
22.60
6.61
-9.16
-25.26
-42.08
-59.58
-77.24
-94.07
-109.02
-121.09
-129.39
-133.03
-131.26
-123.63
-110.41
-92.76
-72.54
-51.97
-33.08
-17.20
-4.88
3.82
8.97
10.34
7.47
0.07
-11.57
-26.31
-42.30
-57.41
-69.68
-77.69
-80.73
-78.73
-72.27
-62.44
-50.74
-38.74
-27.70
-18.38
-11.02
-5.46
-1.32
1.84
4.56
7.42
10.87
15.01
19.52
23.72
26.94
28.93
29.93
30.49
31.00
31.37
31.00
29.16
25.51
20.44
14.94
10.27
7.44
6.91
8.56
11.91
16.47
21.87
27.84
34.09
40.05
45.02
48.35
49.76
49.58
48.61
47.81
47.83
48.75
50.10
51.10
51.08
49.72
47.16
43.77
39.96
36.03
32.14
28.38
24.91
21.97
19.85
18.70
18.51
19.04
19.98
21.11
22.42
24.20
26.79
30.25
34.23
37.80
39.82
39.30
35.90
30.04
22.73
15.10
7.87
1.11
-5.70
-13.30
-22.14
-32.15
-42.65
-52.65
-61.21
-67.80
-72.40
-75.38
-77.07
-77.35
-75.37
-69.79
-59.37
-43.61
-23.13
0.43
24.70
47.00
64.71
75.61
78.23
72.32
58.98
40.54
20.04
0.44
-16.05
-28.20
-35.75
-39.05
-38.86
-36.14
-32.05
-27.75
-24.12
-21.48
-19.54
-17.59
-14.86
-10.87
-5.65
0.16
5.37
8.59
8.76
5.67
0.22
-5.78
-10.30
-12.02
-10.82
-7.92
-5.26
-4.72
-7.27
-12.69
-19.75
-26.76
-32.16
-34.91
-34.67
-31.60
-26.18
-19.05
-10.92
-2.48
5.65
13.07
19.62
25.41
30.67
35.49
39.67
42.73
44.21
44.03
42.68
41.00
39.72
39.05
38.62
37.86
36.67
35.65
35.94
38.41
43.02
48.50
52.82
54.11
51.57
45.67
37.82
29.57
22.07
15.87
11.11
7.85
6.16
6.02
7.06
8.44
8.93
7.14
2.01
-6.80
-18.68
-32.25
-45.72
-57.53
-66.74
-73.15
-76.92
-78.13
-76.54
-71.89
-64.43
-55.21
-45.90
-37.92
-31.76
-26.74
-21.55
-15.19
-7.64
0.28
7.57
13.78
19.23
24.47
29.69
34.34
37.44
38.29
37.06
34.69
32.37
30.76
29.74
28.46
25.94
21.64
15.82
9.48
4.02
0.79
0.56
3.19
7.54
11.71
13.55
11.40
4.58
-6.44
-20.27
-35.10
-49.15
-61.10
-70.11
-75.73
-77.91
-76.95
-73.56
-68.75
-63.66
-59.11
-55.46
-52.44
-49.41
-45.75
-41.20
-35.92
-30.39
-25.01
-19.86
-14.63
-8.90
-2.41
4.59
11.40
17.08
20.95
22.81
23.10
22.57
22.01
21.84
22.03
22.24
22.10
21.49
20.53
19.49
18.59
17.86
17.19
16.44
15.58
14.65
13.69
12.57
11.08
8.89
5.79
1.82
-2.65
-7.06
-10.83
-13.48
-14.77
-14.69
-13.41
-11.26
-8.56
-5.63
-2.68
0.17
2.88
5.48
7.99
10.37
12.51
14.25
15.42
15.90
15.66
14.84
13.65
12.31
10.99
9.81
8.81
8.04
7.47
6.95
6.18
4.78
2.54
-0.41
-3.57
-6.25
-7.95
-8.57
-8.43
-8.03
-7.74
-7.63
-7.59
-7.44
-7.24
-7.11
-7.14
-7.20
-6.94
-5.98
-4.14
-1.57
1.36
4.24
6.82
9.02
10.79
12.07
12.74
12.71
11.96
10.62
8.94
7.16
5.54
4.23
3.31
2.80
2.63
2.66
2.68
2.50
2.00
1.24
0.46
0.02
0.28
1.42
3.32
5.59
7.63
8.83
8.80
7.49
5.14
2.22
-0.71
-3.18
-4.88
-5.69
-5.63
-4.87
-3.72
-2.59
-1.87
-1.86
-2.54
-3.57
-4.36
-4.37
-3.30
-1.31
1.11
3.35
4.94
5.73
5.85
5.58
5.14
4.68
4.25
3.88
3.49
2.94
2.07
0.75
-0.96
-2.83
-4.46
-5.48
-5.66
-5.03
-3.84
-2.54
-1.57
-1.32
-1.99
-3.50
-5.60
-7.92
-10.09
-11.84
-12.97
-13.36
-12.96
-11.71
-9.65
-6.90
-3.74
-0.55
2.17
3.90
4.29
3.31
1.24
-1.34
-3.85
-5.96
-7.71
-9.46
-11.68
-14.60
-18.05
-21.48
-24.22
-25.87
-26.47
-26.50
-26.63
-27.25
-28.37
-29.61
-30.56
-30.89
-30.38
-28.65
-25.01
-18.67
-9.29
2.39
14.33
23.82
28.50
27.53
22.08
14.74
8.42
5.16
5.65
9.53
15.96
24.10
33.05
41.69
48.62
52.48
52.45
48.68
42.31
34.99
28.36
23.34
19.99
17.65
15.42
12.65
9.27
5.85
3.26
2.30
3.30
5.94
9.36
12.57
14.77
15.64
15.18
13.55
10.80
6.87
1.84
-3.92
-9.62
-14.23
-16.91
-17.28
-15.64
-12.79
-9.65
-6.89
-4.69
-2.86
-1.03
1.12
3.68
6.46
9.14
11.21
12.19
11.75
9.86
6.89
3.40
-0.04
-3.12
-5.85
-8.45
-11.13
-13.93
-16.77
-19.60
-22.64
-26.46
-31.93
-39.76
-50.05
-61.88
-73.28
-81.87
-85.77
-84.50
-79.27
-72.39
-66.18
-61.93
-59.67
-58.73
-58.64
-59.77
-63.03
-69.04
-77.32
-86.34
-94.25
-100.08
-104.19
-107.84
-112.07
-116.70
-120.40
-121.84
-121.19
-120.84
-124.43
-134.55
-150.51
-167.66
-178.94
-177.84
-161.22
-130.26
-88.95
-41.33
10.38
65.63
123.63
181.01
231.30
266.69
281.18
272.91
244.63
202.12
151.98
100.42
53.37
16.96
-2.53
-0.17
25.59
71.68
130.90
194.20
253.38
303.08
341.10
367.81
385.14
395.56
401.62
405.34
407.78
408.70
406.77
400.34
388.21
370.25
347.37
321.00
292.49
262.82
232.66
202.49
172.71
143.63
115.17
86.81
57.67
26.97
-5.49
-38.89
-71.46
-100.94
-125.32
-143.58
-155.84
-163.16
-166.82
-167.81
-166.55
-163.16
-157.84
-151.13
-143.79
-136.46
-129.28
-121.86
-113.65
-104.37
-94.34
-84.29
-75.08
-67.22
-60.58
-54.55
-48.35
-41.37
-33.39
-24.64
-15.68
-7.11
0.52
6.90
11.89
15.55
18.09
19.90
21.49
23.55
26.84
31.91
39.01
47.92
58.05
68.61
78.86
88.29
96.54
103.35
108.39
111.24
110.75
106.44
98.99
90.20
82.15
76.33
73.36
72.72
73.06
71.97
67.70
60.03
50.09
39.33
28.64
18.03
6.85
-5.83
-22.52
-44.43
-70.49
-97.90
-123.75
-145.94
-163.17
-174.67
-180.15
-184.76
-192.04
-201.15
-208.03
-209.35
-204.51
-195.12
-183.67
-172.66
-174.10
-194.76
-230.83
-270.87
-304.74
-328.23
-342.18
-349.74
-354.52
-375.39
-422.91
-490.89
-561.29
-618.51
-656.81
-678.76
-690.75
-700.05
-734.13
-810.29
-924.14
-1054.54
-1180.20
-1287.80
-1370.48
-1424.33
-1316.36
-995.32
-528.17
-51.07
337.16
610.81
789.30
903.94
981.85
1039.95
1064.28
1042.72
980.11
896.88
812.24
737.07
675.11
627.89
595.25
559.10
506.31
438.02
366.49
301.74
252.29
216.46
189.56
167.14
136.82
93.22
42.51
-1.92
-29.63
-37.82
-30.74
-14.59
4.99
19.23
23.36
18.58
10.26
3.42
0.70
2.06
6.77
13.59
19.27
21.30
19.29
14.83
10.04
6.62
5.03
5.26
6.76
8.67
10.16
10.73
10.34
9.30
8.05
6.72
5.33
3.80
2.08
0.19
-1.68
-3.25
-4.34
-4.93
-5.28
-5.69
-6.49
-7.82
-9.71
-12.12
-15.03
-18.44
-22.24
-26.06
-29.14
-30.40
-28.79
-23.70
-15.31
-4.72
6.42
16.51
24.65
31.02
36.68
43.10
51.42
61.87
73.79
85.87
96.59
104.53
108.60
108.12
103.06
94.29
83.60
73.34
65.61
61.31
59.70
58.68
55.89
49.88
40.89
30.58
21.17
14.31
10.45
8.95
8.84
9.39
10.43
12.21
14.75
17.59
19.70
19.96
17.64
12.89
6.68
0.54
-3.92
-5.57
-3.91
0.95
8.52
18.22
29.66
42.75
57.84
75.63
96.99
122.64
152.46
184.95
216.98
244.16
261.79
266.20
255.79
231.32
195.30
150.93
101.05
47.99
-5.76
-56.84
-100.85
-133.49
-152.42
-158.83
-157.39
-154.49
-155.29
-161.34
-170.01
-176.17
-174.96
-164.32
-145.70
-122.90
-99.94
-79.23
-61.10
-44.49
-28.12
-11.20
6.24
23.33
38.26
48.11
49.15
38.46
16.18
-12.89
-40.01
-55.63
-53.42
-32.91
0.77
39.92
77.60
109.56
133.65
148.30
151.60
142.40
122.07
95.44
69.20
48.65
34.60
22.74
5.96
-21.88
-63.25
-116.45
-177.18
-240.60
-302.44
-359.43
-408.86
-448.31
-476.02
-491.28
-494.43
-486.63
-469.22
-443.21
-409.49
-369.54
-326.43
-285.06
-251.07
-228.84
-219.22
-218.51
-219.43
-213.98
-196.44
-165.31
-123.40
-75.88
-27.77
18.02
60.96
102.05
142.48
183.23
225.21
269.38
315.95
363.24
407.13
441.77
461.48
462.63
445.84
416.47
383.23
355.32
339.77
339.87
355.09
381.82
413.58
443.32
465.66
478.22
481.51
478.15
471.75
465.52
460.86
454.49
441.06
416.94
382.43
340.88
296.72
253.94
215.10
181.17
148.24
111.37
69.03
23.94
-19.91
-60.16
-96.66
-130.53
-163.18
-200.59
-249.45
-312.08
-385.53
-465.00
-547.14
-630.54
-714.82
-767.14
-761.24
-697.14
-601.08
-502.65
-417.92
-349.74
-294.47
-246.70
-210.80
-185.65
-173.61
-175.69
-189.58
-212.27
-242.45
-280.16
-325.43
-366.83
-398.00
-414.99
-414.10
-393.04
-353.48
-301.38
-243.94
-186.09
-129.10
-74.55
-24.58
19.40
57.24
89.47
117.24
142.65
168.67
198.21
231.29
265.58
298.16
327.20
352.11
373.61
393.65
414.84
439.72
469.48
504.44
544.68
589.74
637.40
682.69
718.23
736.19
731.09
701.92
652.85
591.69
526.96
465.14
409.51
360.65
317.98
281.07
249.66
223.30
200.63
179.42
157.24
132.43
104.51
74.00
41.85
8.67
-25.65
-61.64
-99.77
-139.81
-180.62
-220.35
-257.16
-289.87
-318.36
-343.53
-366.68
-388.90
-410.65
-431.77
-451.86
-470.72
-488.77
-507.05
-527.20
-551.40
-581.91
-620.15
-665.44
-713.80
-757.95
-788.93
-798.86
-783.92
-745.76
-690.71
-627.21
-562.71
-501.72
-445.62
-393.85
-345.57
-300.43
-258.50
-219.66
-183.17
-148.07
-113.67
-80.14
-48.26
-19.05
7.10
30.78
53.30
76.13
100.01
124.54
148.42
170.23
189.39
206.62
223.92
243.62
267.22
294.70
324.25
353.14
378.96
400.81
419.99
440.00
465.42
500.39
546.28
600.14
654.38
698.20
720.57
713.56
674.99
609.79
529.39
449.19
384.60
346.48
337.65
351.77
375.40
392.64
390.44
362.45
309.76
238.61
156.91
71.02
-15.07
-98.87
-178.30
-251.28
-316.60
-375.32
-431.32
-489.96
-555.43
-627.52
-700.19
-762.65
-803.09
-813.41
-792.63
-747.32
-688.75
-628.41
-573.87
-527.39
-487.01
-449.48
-412.75
-376.92
-343.51
-313.96
-288.58
-266.34
-245.67
-225.33
-204.93
-185.10
-166.75
-150.56
-136.46
-123.67
-111.00
-97.43
-82.49
-66.45
-50.10
-34.30
-19.69
-6.44
5.61
16.80
27.44
37.74
47.81
57.78
67.80
78.01
88.36
98.61
108.35
117.25
125.34
133.10
141.40
151.07
162.56
175.56
189.15
202.13
213.74
223.95
233.71
244.55
257.90
274.68
294.94
318.04
342.62
366.82
388.52
405.83
417.93
425.98
433.58
445.93
467.73
500.31
539.65
576.48
599.09
597.55
567.45
511.42
437.55
355.74
274.12
196.93
124.77
56.26
-10.19
-75.86
-142.05
-210.84
-284.26
-362.50
-442.01
-515.11
-572.04
-604.54
-609.32
-589.56
-553.39
-510.52
-468.65
-431.62
-399.65
-371.11
-344.41
-318.73
-293.91
-269.62
-245.05
-219.13
-191.29
-161.94
-132.37
-104.44
-79.54
-57.99
-38.90
-20.52
-1.06
20.51
43.91
67.74
90.10
109.64
126.23
141.21
156.86
175.45
198.19
224.70
253.14
280.86
305.54
326.06
342.95
358.47
376.21
400.11
432.92
474.39
520.05
561.41
588.05
591.04
566.29
515.98
447.68
371.16
294.67
222.48
154.50
87.55
17.45
-58.78
-141.43
-226.99
-308.24
-375.53
-419.57
-434.86
-421.99
-387.74
-342.28
-295.31
-252.45
-214.16
-176.69
-134.77
-84.54
-25.64
37.64
96.49
139.11
153.95
134.17
81.51
7.45
-69.83
-131.55
-164.98
-167.14
-143.85
-105.38
-61.31
-17.49
23.81
62.06
97.03
128.69
158.22
188.13
220.51
254.64
285.33
304.45
305.34
287.26
256.60
224.13
199.75
187.50
184.38
182.68
174.83
157.39
132.57
107.18
89.59
86.19
98.98
125.24
158.70
192.11
219.78
238.52
246.88
243.32
225.01
189.19
136.50
74.33
17.39
-16.24
-12.49
32.01
107.31
193.47
268.42
316.08
331.10
318.22
287.87
250.33
211.91
174.18
136.09
96.88
57.63
20.87
-11.18
-38.42
-63.44
-90.23
-121.93
-159.20
-199.86
-239.96
-275.85
-305.98
-331.58
-356.22
-384.62
-421.01
-467.55
-523.05
-582.41
-637.39
-678.64
-698.58
-693.98
-666.90
-623.65
-572.11
-518.77
-467.13
-417.82
-370.10
-323.46
-278.20
-234.94
-193.56
-152.73
-110.26
-64.33
-14.46
38.23
91.45
142.92
191.36
236.97
281.41
327.27
377.22
432.96
494.14
557.63
617.71
667.54
701.26
716.01
712.74
695.39
668.84
636.96
601.58
563.02
521.43
477.94
434.82
394.63
358.99
327.86
299.76
272.80
245.61
218.01
190.91
165.70
143.50
124.55
108.10
92.58
76.33
58.18
38.02
16.89
-3.39
-21.05
-35.09
-45.88
-55.05
-64.86
-77.21
-92.72
-110.27
-127.43
-141.42
-150.58
-155.28
-158.13
-163.04
-173.65
-191.64
-215.83
-242.68
-267.73
-287.73
-302.17
-313.67
-326.97
-347.46
-379.33
-424.30
-480.49
-541.90
-598.75
-639.02
-651.92
-632.32
-584.34
-521.46
-462.34
-423.38
-411.55
-421.60
-438.74
-445.63
-429.78
-387.92
-325.98
-255.68
-189.91
-139.03
-108.72
-99.29
-105.91
-120.13
-131.97
-132.66
-117.00
-84.39
-37.79
18.13
78.69
139.98
198.91
253.17
301.70
345.83
389.72
439.37
499.70
571.46
649.02
721.17
774.84
800.05
793.94
761.72
714.22
663.26
617.37
579.68
548.72
521.04
493.78
465.97
438.26
411.71
386.68
362.57
337.99
311.36
281.31
247.10
208.50
165.75
119.50
70.69
20.44
-30.13
-80.04
-128.59
-175.37
-220.11
-262.62
-302.55
-339.78
-374.39
-407.05
-439.04
-472.03
-507.88
-548.53
-596.04
-652.12
-717.08
-788.45
-860.08
-922.78
-966.69
-984.66
-974.92
-941.72
-893.35
-838.89
-785.05
-734.93
-688.73
-645.52
-604.81
-566.89
-532.10
-500.01
-469.03
-437.13
-402.73
-365.56
-326.60
-287.73
-250.62
-216.10
-183.91
-153.04
-122.36
-91.37
-60.44
-30.84
-4.16
18.35
36.18
49.71
59.95
68.09
75.06
81.31
86.87
91.67
95.76
99.53
103.58
108.45
114.29
120.69
126.83
131.75
134.82
136.04
136.01
135.75
136.17
137.81
140.63
144.27
148.44
153.28
159.53
168.28
180.57
196.81
216.55
238.68
261.90
285.23
308.43
331.90
356.37
382.73
412.07
445.72
484.93
529.69
577.41
622.13
655.39
668.54
655.88
616.91
556.53
483.13
405.42
329.78
259.15
193.62
131.84
72.22
13.10
-47.81
-113.70
-187.81
-271.43
-361.89
-451.84
-530.81
-588.50
-618.72
-621.60
-603.22
-572.69
-538.43
-505.40
-474.60
-444.48
-413.25
-380.40
-346.89
-314.15
-282.99
-253.09
-223.38
-192.83
-161.21
-129.35
-98.94
-71.72
-48.84
-30.31
-15.02
-1.13
13.18
29.18
47.11
66.29
85.58
103.96
121.15
137.78
155.20
174.94
197.98
224.31
252.81
281.77
309.53
335.18
358.93
381.94
406.06
433.44
466.42
507.10
556.49
613.18
672.26
725.60
763.69
778.80
767.87
733.70
683.69
626.74
569.95
516.71
467.02
419.18
371.81
324.84
279.28
236.11
195.46
156.37
117.26
76.78
34.28
-9.76
-54.07
-97.12
-137.84
-175.95
-212.11
-247.60
-283.78
-321.79
-362.70
-407.97
-459.45
-518.47
-584.23
-652.36
-714.90
-762.30
-786.75
-785.23
-760.74
-720.91
-674.74
-629.25
-587.68
-549.67
-513.03
-475.66
-436.67
-396.35
-355.67
-315.54
-276.61
-239.12
-202.83
-166.97
-130.62
-92.94
-53.72
-13.75
25.41
61.81
94.01
121.69
146.03
169.58
195.86
228.63
270.47
320.70
373.76
419.27
444.96
441.78
408.91
355.91
300.26
260.94
251.16
273.16
317.90
369.15
409.73
426.86
414.85
375.08
314.29
242.08
168.39
101.08
43.70
-5.45
-52.06
-102.96
-162.21
-228.62
-295.49
-353.10
-392.45
-408.42
-401.10
-374.97
-336.66
-292.89
-249.33
-210.40
-179.48
-158.81
-148.76
-147.25
-149.36
-148.46
-138.28
-115.18
-79.56
-35.75
9.72
50.78
84.18
110.55
133.70
158.62
189.53
228.67
275.98
329.01
382.91
431.06
466.66
485.25
487.06
477.65
465.74
459.24
461.18
468.41
473.46
468.71
450.24
419.30
380.92
341.06
304.33
273.31
249.52
234.44
229.47
234.93
249.00
267.35
284.25
294.19
293.50
281.35
259.29
230.21
197.14
162.70
129.24
99.31
75.79
61.10
56.00
58.66
64.78
69.19
67.81
59.26
45.04
28.22
11.78
-2.78
-15.55
-27.49
-39.33
-51.14
-62.48
-72.93
-82.52
-91.60
-100.50
-109.41
-118.27
-127.09
-136.24
-146.54
-159.03
-174.52
-193.31
-215.16
-239.44
-265.59
-293.42
-323.20
-355.70
-392.19
-434.44
-484.28
-542.39
-606.92
-672.37
-730.14
-770.73
-786.96
-776.61
-743.13
-693.90
-637.14
-579.03
-522.47
-467.71
-413.95
-360.75
-308.31
-256.80
-205.77
-153.96
-99.99
-43.28
15.44
74.49
131.82
186.14
237.70
288.38
341.08
398.48
461.48
528.19
593.75
651.29
693.89
716.61
717.86
699.72
666.89
625.12
579.56
533.89
490.14
449.28
411.69
377.60
347.05
319.78
295.08
272.04
249.75
227.72
206.07
185.29
165.91
148.06
131.35
114.97
98.11
80.41
62.15
44.16
27.34
12.20
-1.46
-14.46
-27.87
-42.44
-58.23
-74.56
-90.41
-105.07
-118.62
-132.10
-147.16
-165.38
-187.56
-213.36
-241.62
-270.86
-300.11
-329.43
-359.82
-393.01
-431.21
-476.80
-531.76
-596.59
-668.94
-742.77
-809.04
-857.98
-882.37
-880.14
-854.96
-814.39
-766.65
-717.75
-670.26
-624.14
-578.58
-533.52
-489.88
-448.86
-410.85
-375.03
-339.86
-304.06
-267.42
-230.82
-196.04
-164.79
-137.96
-115.42
-96.06
-78.33
-60.82
-42.78
-24.27
-6.04
10.96
25.96
38.77
49.92
60.54
72.04
85.69
102.17
121.36
142.31
163.56
183.64
201.64
217.62
232.65
248.42
266.51
287.68
311.39
336.11
359.88
381.24
400.01
417.46
435.85
457.92
486.18
522.26
566.10
615.12
663.90
704.81
729.91
733.40
713.73
673.89
619.98
558.50
494.12
429.04
363.95
299.73
238.42
182.55
133.64
90.69
50.23
7.66
-40.66
-96.37
-159.06
-227.04
-297.45
-365.76
-425.62
-470.23
-495.58
-503.52
-502.36
-503.58
-515.94
-540.32
-568.66
-588.04
-587.48
-563.56
-521.48
-471.39
-422.60
-379.43
-340.69
-302.41
-261.33
-216.77
-170.37
-124.58
-81.02
-39.92
-0.44
38.50
77.70
117.12
156.64
196.62
238.66
285.28
338.33
396.31
452.58
495.97
514.61
501.70
459.98
402.37
347.92
314.90
314.45
347.59
406.34
477.58
547.53
604.69
641.22
653.19
640.46
606.49
557.51
501.09
444.19
391.94
346.84
309.16
277.67
250.03
223.48
195.43
164.27
129.96
94.14
59.41
28.18
1.64
-20.84
-41.36
-62.56
-86.40
-113.34
-142.14
-170.53
-196.17
-217.93
-236.29
-253.12
-270.97
-292.15
-318.04
-349.38
-386.73
-430.39
-479.69
-532.17
-583.69
-629.71
-667.07
-695.08
-715.00
-728.19
-734.15
-730.23
-713.13
-681.56
-637.92
-587.90
-538.01
-492.35
-451.53
-412.74
-372.32
-328.27
-281.41
-234.70
-191.43
-153.55
-120.66
-90.75
-60.72
-28.21
7.60
46.07
85.82
125.31
163.07
197.11
223.95
240.68
246.06
241.96
233.27
226.40
226.52
235.88
254.49
278.51
306.77
340.60
382.67
434.03
491.20
545.48
585.73
604.03
592.82
554.76
498.23
433.72
369.38
308.39
248.99
188.11
124.55
51.98
-27.69
-109.33
-185.83
-249.82
-295.32
-319.30
-319.39
-296.09
-260.18
-215.91
-165.83
-110.99
-51.81
10.94
75.42
105.66
137.18
157.63
161.80
146.96
114.73
71.63
27.66
-7.18
-20.64
-12.07
9.05
37.83
70.67
106.82
147.56
193.92
207.97
231.26
253.51
261.50
248.43
211.41
152.85
80.09
3.18
-68.55
-123.31
-162.65
-190.26
-207.11
-212.85
-206.00
-185.71
-153.39
-113.36
-66.92
-22.44
16.85
52.75
88.91
127.88
167.89
202.12
221.09
220.10
196.14
157.88
122.14
107.24
125.35
176.97
250.55
327.30
390.23
426.39
433.86
418.33
388.56
352.22
313.80
274.92
236.24
199.47
166.14
138.16
115.87
97.22
78.53
56.28
28.89
-2.47
-34.74
-64.51
-89.93
-111.64
-132.31
-155.29
-182.92
-215.73
-252.23
-290.02
-326.91
-362.00
-396.04
-431.32
-471.11
-518.52
-574.88
-638.11
-701.93
-756.72
-792.11
-800.45
-779.57
-733.38
-670.12
-599.07
-527.44
-458.96
-394.29
-332.55
-272.80
-214.55
-157.52
-101.23
-44.97
11.83
69.03
125.69
180.55
232.52
281.46
328.71
377.02
429.87
489.95
557.18
627.32
692.15
741.59
767.22
765.50
739.13
695.78
644.84
593.95
546.97
504.15
463.90
424.87
386.94
350.99
317.81
287.29
258.28
229.29
199.25
168.07
136.67
106.52
78.96
54.66
33.48
14.51
-3.48
-21.55
-40.25
-59.45
-78.37
-96.02
-111.48
-124.42
-135.32
-145.45
-156.56
-170.37
-187.94
-209.35
-233.63
-259.46
-285.55
-311.42
-337.60
-365.37
-396.40
-432.50
-475.46
-526.72
-586.47
-652.38
-718.87
-777.63
-819.74
-838.69
-832.75
-805.43
-763.75
-715.20
-665.22
-616.27
-568.68
-522.27
-477.44
-435.03
-395.32
-357.23
-318.45
-276.67
-231.00
-182.70
-134.71
-90.35
-51.55
-17.79
13.67
46.54
83.69
125.68
170.56
214.93
255.61
291.33
323.42
354.97
389.51
429.79
477.16
531.49
591.09
652.19
708.49
751.71
774.04
771.49
746.45
707.34
665.24
628.65
599.83
574.61
546.09
509.68
466.31
421.83
383.08
353.64
331.72
311.76
288.10
258.37
224.44
190.79
161.31
137.00
115.73
93.87
68.57
39.58
9.18
-19.38
-43.89
-64.51
-83.67
-104.83
-130.70
-161.87
-196.72
-232.37
-266.18
-297.05
-325.75
-354.48
-385.91
-422.53
-465.98
-516.66
-572.94
-630.64
-683.04
-722.12
-740.72
-734.95
-705.48
-657.23
-597.47
-533.45
-470.50
-411.25
-356.24
-304.73
-255.43
-207.08
-158.32
-107.52
-52.72
7.92
74.93
145.86
214.00
269.24
301.32
304.51
280.81
239.93
195.55
159.52
137.24
126.98
122.71
118.61
112.00
102.98
91.45
74.19
44.77
-3.14
-70.93
-151.98
-232.68
-297.10
-333.44
-338.39
-317.31
-280.81
-239.28
-198.70
-159.70
-119.61
-75.75
-27.85
21.92
70.45
115.73
158.24
200.64
246.64
299.41
360.28
427.67
496.93
560.96
611.66
642.12
648.55
631.38
594.93
545.72
490.25
433.27
377.06
322.00
267.70
214.01
161.32
110.41
61.71
15.01
-30.49
-75.95
-122.42
-170.55
-221.01
-274.91
-333.93
-399.56
-471.45
-546.00
-616.01
-672.32
-706.82
-715.52
-700.02
-666.54
-623.19
-576.83
-531.30
-487.59
-445.32
-404.38
-365.46
-329.56
-296.91
-266.40
-235.95
-203.67
-168.91
-132.71
-97.44
-65.62
-38.70
-16.22
4.06
25.27
50.02
79.24
111.78
145.01
176.16
203.65
227.79
250.57
274.55
301.66
332.78
367.89
406.63
448.27
490.94
530.66
561.11
574.93
566.04
532.10
475.46
402.07
318.73
230.69
140.92
51.45
-34.36
-110.55
-169.38
-204.18
-212.16
-195.73
-161.31
-116.47
-66.89
-14.95
39.59
97.05
155.49
209.95
253.55
280.16
286.73
274.10
246.06
207.04
159.82
104.46
39.31
-36.27
-119.13
-201.11
-270.59
-316.21
-331.16
-315.92
-277.82
-227.86
-176.22
-128.66
-85.09
-41.09
8.91
68.11
134.78
202.11
260.11
298.98
312.62
300.45
266.77
218.04
159.63
94.53
24.64
-46.29
-110.64
-157.50
-176.49
-162.32
-117.61
-51.42
24.95
102.68
177.13
246.01
306.43
353.60
382.91
393.89
392.57
389.77
395.68
413.96
439.43
460.93
467.35
453.57
422.25
381.26
338.84
299.83
264.95
232.81
202.39
174.14
149.14
127.73
108.47
88.61
65.38
37.40
5.26
-28.69
-61.48
-90.80
-115.94
-138.01
-159.45
-182.84
-209.70
-239.94
-271.91
-303.40
-332.73
-359.60
-385.42
-413.19
-446.75
-489.60
-543.16
-605.09
-668.69
-723.99
-760.59
-771.32
-754.89
-716.11
-663.67
-606.35
-549.98
-496.32
-444.16
-391.67
-338.15
-284.50
-232.20
-182.10
-133.66
-85.31
-35.51
16.69
71.48
128.44
186.81
245.45
302.52
355.50
401.66
438.84
466.71
487.00
502.99
518.20
535.13
554.56
575.36
594.97
609.62
615.45
609.40
590.07
558.11
516.19
468.21
418.15
368.91
321.05
274.42
229.16
186.23
146.86
111.62
79.91
49.96
19.70
-14.17
-52.99
-95.44
-138.36
-178.52
-214.29
-246.10
-275.90
-306.24
-342.57
-388.87
-446.37
-513.02
-583.87
-651.79
-708.05
-744.22
-754.59
-742.06
-713.39
-676.26
-636.50
-597.25
-559.59
-523.18
-487.97
-431.23
-344.74
-235.46
-122.00
-22.03
56.27
113.29
153.62
181.66
200.37
208.05
204.49
192.44
177.33
164.79
158.51
160.35
169.70
184.75
200.49
213.78
224.22
233.86
245.33
255.40
262.75
266.46
266.29
260.52
248.96
232.82
214.29
195.49
177.55
161.53
147.75
136.48
126.74
118.25
110.88
104.36
98.02
90.84
82.64
73.81
67.47
63.68
63.09
65.86
70.98
76.53
80.39
81.67
80.94
80.32
82.09
88.88
102.27
122.25
146.85
172.23
193.39
205.15
203.87
188.33
161.44
128.95
97.21
70.69
50.30
33.43
15.24
-5.74
-29.46
-52.23
-67.35
-67.29
-46.94
-6.43
47.86
105.02
153.31
183.83
193.88
186.63
168.57
146.12
123.38
101.90
82.06
64.71
51.34
43.74
42.47
45.89
50.44
51.99
47.73
37.34
22.95
7.73
-5.45
-15.29
-22.47
-29.08
-37.46
-49.29
-65.08
-84.16
-105.01
-125.31
-142.17
-152.65
-154.50
-146.98
-131.13
-109.28
-83.99
-57.12
-29.43
-1.24
26.78
52.98
75.08
91.13
100.39
103.57
102.23
97.75
90.74
81.03
68.24
52.24
33.31
11.98
-11.27
-36.21
-62.74
-90.76
-119.82
-148.94
-176.46
-200.04
-217.33
-226.78
-228.56
-224.75
-218.74
-213.85
-211.92
-212.51
-213.11
-210.37
-201.53
-185.55
-163.41
-137.71
-111.80
-88.93
-71.53
-60.82
-56.73
-58.34
-64.48
-74.32
-87.67
-104.62
-124.89
-147.17
-169.05
-187.56
-199.99
-204.73
-201.50
-191.04
-174.57
-153.34
-128.58
-101.82
-75.18
-51.24
-32.57
-20.98
-16.83
-18.87
-24.57
-30.82
-34.94
-35.33
-31.99
-26.36
-20.64
-16.94
-16.50
-19.28
-24.32
-30.31
-36.25
-41.77
-46.87
-51.41
-54.70
-55.59
-52.85
-45.94
-35.42
-22.87
-10.34
0.45
8.75
14.79
19.40
23.37
26.97
29.92
31.68
31.86
30.50
28.10
25.27
22.53
20.10
17.99
16.18
14.66
13.44
12.56
11.97
11.65
11.71
12.31
13.62
15.65
18.16
20.64
22.49
23.31
23.02
21.95
20.66
19.69
19.39
19.78
20.60
21.49
22.14
22.44
22.48
22.50
22.78
23.43
24.41
25.50
26.39
26.77
26.46
25.40
23.68
21.44
18.81
15.91
12.88
9.87
6.98
4.28
1.72
-0.90
-3.81
-7.05
-10.41
-13.38
-15.32
-15.70
-14.35
-11.53
-7.86
-4.07
-0.78
1.72
3.43
4.59
5.48
6.27
6.99
7.53
7.80
7.75
7.48
7.08
6.60
6.01
5.13
3.81
2.03
-0.06
-2.23
-4.24
-6.01
-7.59
-9.11
-10.62
-11.92
-12.66
-12.44
-11.04
-8.57
-5.42
-2.11
0.91
3.44
5.53
7.36
9.05
10.57
11.69
12.16
11.87
10.95
9.76
8.69
8.02
7.80
7.89
8.06
8.17
8.18
8.12
8.06
8.03
8.02
7.99
7.84
7.46
6.75
5.66
4.28
2.79
1.42
0.32
-0.56
-1.45
-2.63
-4.29
-6.40
-8.72
-10.92
-12.73
-14.06
-14.92
-15.35
-15.35
-14.80
-13.61
-11.71
-9.19
-6.26
-3.17
-0.18
2.53
4.81
6.54
7.65
8.06
7.71
6.62
4.87
2.65
0.26
-1.96
-3.67
-4.57
-4.39
-2.97
-0.24
3.67
8.37
13.26
17.64
20.95
22.94
23.82
24.07
24.22
24.62
25.24
25.79
25.79
24.89
22.88
19.81
15.87
11.41
6.82
2.51
-1.13
-3.83
-5.44
-6.00
-5.69
-4.79
-3.59
-2.29
-0.93
0.61
2.46
4.63
6.91
8.90
10.21
10.67
10.42
9.86
9.46
9.45
9.81
10.31
10.80
11.27
11.88
12.81
14.01
15.16
15.81
15.56
14.30
12.18
9.56
6.84
4.31
2.13
0.37
-1.00
-2.04
-2.83
-3.45
-3.91
-4.19
-4.23
-3.93
-3.18
-1.99
-0.42
1.34
3.03
4.43
5.42
6.05
6.47
6.92
7.59
8.57
9.82
11.20
12.50
13.47
13.87
13.59
12.63
11.25
9.79
8.67
8.17
8.39
9.22
10.41
11.62
12.47
12.69
12.08
10.66
8.67
6.48
4.50
3.01
2.12
1.72
1.57
1.35
0.79
-0.27
-1.85
-3.77
-5.73
-7.37
-8.39
-8.63
-8.10
-6.99
-5.59
-4.23
-3.16
-2.44
-1.93
-1.38
-0.59
0.45
1.56
2.39
2.65
2.25
1.29
0.04
-1.21
-2.25
-2.98
-3.34
-3.30
-2.89
-2.18
-1.37
-0.73
-0.49
-0.80
-1.60
-2.74
-3.96
-4.99
-5.63
-5.84
-5.74
-5.63
-5.90
-6.85
-8.58
-10.88
-13.31
-15.28
-16.34
-16.22
-14.99
-12.91
-10.31
-7.51
-4.69
-1.96
0.63
3.06
5.34
7.48
9.46
11.25
12.72
13.73
14.15
13.97
13.30
12.42
11.62
11.13
10.97
10.98
10.89
10.43
9.46
8.04
6.36
4.69
3.20
1.92
0.78
-0.33
-1.49
-2.69
-3.92
-5.15
-6.36
-7.45
-8.29
-8.65
-8.34
-7.26
-5.42
-2.97
-0.13
2.94
6.07
9.14
11.99
14.42
16.19
17.11
17.06
16.14
14.62
12.94
11.54
10.72
10.52
10.77
11.15
11.42
11.44
11.22
10.77
10.11
9.21
8.07
6.77
5.43
4.21
3.15
2.19
1.16
-0.10
-1.66
-3.55
-5.72
-8.06
-10.35
-12.26
-13.39
-13.36
-12.00
-9.45
-6.07
-2.37
1.23
4.51
7.46
10.12
12.50
14.41
15.58
15.81
15.14
13.89
12.62
11.81
11.71
12.21
12.89
13.28
13.09
12.28
11.06
9.74
8.53
7.48
6.53
5.58
4.51
3.30
1.92
0.33
-1.48
-3.52
-5.79
-8.19
-10.55
-12.62
-14.10
-14.64
-14.02
-12.16
-9.28
-5.75
-2.04
1.53
4.84
7.98
11.08
14.17
17.03
19.35
20.83
21.36
21.11
20.42
19.69
19.16
18.91
18.85
18.82
18.68
18.36
17.83
17.09
16.12
14.80
12.99
10.65
7.85
4.87
2.12
-0.08
-1.62
-2.71
-3.76
-5.15
-7.03
-9.27
-11.50
-13.42
-14.84
-15.84
-16.54
-16.95
-16.89
-16.09
-14.39
-11.92
-9.08
-6.38
-4.11
-2.25
-0.43
1.80
4.68
8.10
11.57
14.47
16.33
16.98
16.68
15.89
15.10
14.63
14.55
14.65
14.64
14.27
13.42
12.14
10.58
8.86
7.07
5.23
3.39
1.66
0.17
-1.03
-1.96
-2.77
-3.59
-4.55
-5.66
-6.92
-8.36
-10.04
-12.08
-14.54
-17.37
-20.40
-23.30
-25.67
-27.09
-27.25
-26.07
-23.70
-20.53
-17.00
-13.45
-9.93
-6.32
-2.39
1.94
6.50
10.91
14.74
17.63
19.48
20.38
20.57
20.33
19.91
19.48
19.11
18.84
18.65
18.55
18.53
18.54
18.44
18.04
17.16
15.70
13.68
11.35
8.98
6.88
5.23
4.04
3.20
2.50
1.78
0.90
-0.22
-1.53
-2.97
-4.44
-5.93
-7.51
-9.30
-11.39
-13.73
-16.19
-18.47
-20.28
-21.36
-21.49
-20.63
-18.80
-16.17
-13.02
-9.66
-6.34
-3.21
-0.24
2.63
5.40
7.93
9.95
11.21
11.64
11.38
10.76
10.15
9.83
9.85
10.15
10.52
10.76
10.79
10.52
10.00
9.24
8.31
7.31
6.32
5.41
4.59
3.82
2.96
1.91
0.60
-0.94
-2.55
-4.01
-5.22
-6.19
-7.08
-8.18
-9.63
-11.42
-13.34
-15.12
-16.47
-17.25
-17.39
-16.82
-15.50
-13.38
-10.50
-7.06
-3.33
0.34
3.66
6.43
8.53
9.91
10.60
10.70
10.41
9.98
9.64
9.49
9.52
9.65
9.75
9.79
9.75
9.62
9.44
9.21
8.94
8.62
8.21
7.66
6.90
5.87
4.58
3.06
1.43
-0.21
-1.72
-3.05
-4.21
-5.31
-6.52
-7.98
-9.78
-11.85
-14.00
-15.94
-17.39
-18.05
-17.74
-16.34
-13.91
-10.63
-6.80
-2.80
1.05
4.49
7.33
9.46
10.84
11.50
11.61
11.41
11.16
11.07
11.22
11.59
12.10
12.62
13.03
13.21
13.02
12.32
11.11
9.50
7.76
6.17
4.90
3.97
3.22
2.42
1.43
0.22
-1.09
-2.37
-3.51
-4.55
-5.66
-7.02
-8.76
-10.80
-12.95
-14.94
-16.56
-17.66
-18.17
-18.08
-17.37
-16.10
-14.33
-12.17
-9.76
-7.16
-4.45
-1.66
1.09
3.63
5.72
7.19
8.00
8.30
8.37
8.49
8.87
9.53
10.35
11.13
11.68
11.90
11.80
11.47
10.93
10.16
9.11
7.79
6.31
4.94
3.92
3.34
3.05
2.73
2.09
0.98
-0.48
-2.03
-3.43
-4.66
-5.90
-7.40
-9.34
-11.73
-14.39
-17.05
-19.42
-21.24
-22.29
-22.32
-21.20
-18.98
-15.97
-12.67
-9.60
-7.09
-5.14
-3.44
-1.60
0.68
3.40
6.22
8.69
10.44
11.36
11.65
11.71
11.86
12.26
12.80
13.24
13.28
12.82
11.90
10.70
9.41
8.14
6.92
5.73
4.54
3.34
2.13
0.95
-0.20
-1.31
-2.37
-3.43
-4.50
-5.63
-6.83
-8.07
-9.37
-10.74
-12.23
-13.92
-15.82
-17.88
-19.86
-21.44
-22.28
-22.12
-20.93
-18.83
-16.20
-13.40
-10.72
-8.23
-5.84
-3.39
-0.83
1.70
3.89
5.44
6.26
6.52
6.60
6.90
7.62
8.64
9.64
10.27
10.41
10.19
9.91
9.79
9.83
9.83
9.46
8.58
7.25
5.76
4.45
3.50
2.86
2.32
1.63
0.63
-0.68
-2.19
-3.76
-5.30
-6.79
-8.25
-9.72
-11.22
-12.73
-14.13
-15.22
-15.72
-15.36
-13.96
-11.55
-8.39
-4.85
-1.31
1.95
4.79
7.11
8.88
10.05
10.61
10.70
10.52
10.35
10.36
10.59
10.89
11.05
10.94
10.57
10.10
9.72
9.54
9.54
9.60
9.56
9.34
8.87
8.13
7.08
5.70
4.04
2.19
0.38
-1.25
-2.63
-3.88
-5.22
-6.85
-8.85
-11.06
-13.27
-15.16
-16.48
-17.02
-16.63
-15.28
-13.07
-10.24
-7.13
-4.09
-1.32
1.11
3.28
5.26
6.99
8.39
9.36
9.93
10.32
10.81
11.55
12.49
13.38
13.92
13.92
13.40
12.51
11.45
10.36
9.26
8.16
7.08
6.07
5.16
4.29
3.39
2.41
1.34
0.24
-0.84
-1.91
-3.01
-4.22
-5.55
-6.98
-8.50
-10.12
-11.88
-13.77
-15.63
-17.15
-17.95
-17.77
-16.56
-14.52
-12.02
-9.42
-6.94
-4.62
-2.38
-0.12
2.14
4.30
6.23
7.84
9.18
10.38
11.59
12.82
13.95
14.80
15.22
15.21
14.93
14.61
14.35
14.16
13.88
13.30
12.35
11.07
9.65
8.33
7.32
6.71
6.39
6.11
5.58
4.52
2.84
0.65
-1.77
-4.16
-6.34
-8.30
-10.14
-12.03
-14.03
-16.04
-17.93
-19.49
-20.63
-21.24
-21.27
-20.68
-19.46
-17.68
-15.48
-13.09
-10.64
-8.22
-5.76
-3.18
-0.47
2.24
4.74
6.82
8.37
9.43
10.13
10.57
10.83
10.95
10.97
11.01
11.20
11.57
12.06
12.43
12.45
11.94
10.89
9.51
8.03
6.68
5.55
4.65
3.87
3.07
2.16
1.05
-0.29
-1.76
-3.24
-4.59
-5.73
-6.66
-7.49
-8.36
-9.39
-10.59
-11.96
-13.43
-14.96
-16.50
-17.96
-19.20
-20.01
-20.25
-19.80
-18.73
-17.13
-15.11
-12.75
-10.01
-6.88
-3.44
0.05
3.22
5.68
7.23
7.92
8.04
7.94
7.93
8.15
8.58
9.14
9.76
10.39
10.98
11.45
11.69
11.57
10.99
9.93
8.43
6.64
4.73
2.97
1.55
0.61
0.13
-0.12
-0.41
-0.94
-1.75
-2.70
-3.63
-4.46
-5.30
-6.39
-7.89
-9.75
-11.72
-13.40
-14.43
-14.63
-14.01
-12.68
-10.78
-8.44
-5.73
-2.78
0.27
3.22
5.82
7.85
9.14
9.66
9.55
9.15
8.83
8.85
9.31
10.06
10.85
11.48
11.85
11.89
11.60
10.93
9.88
8.52
7.08
5.75
4.71
3.92
3.20
2.36
1.31
0.10
-1.11
-2.22
-3.21
-4.16
-5.20
-6.38
-7.73
-9.20
-10.73
-12.19
-13.41
-14.19
-14.30
-13.61
-12.12
-9.97
-7.38
-4.62
-1.93
0.51
2.57
4.26
5.58
6.56
7.20
7.49
7.45
7.20
6.97
6.98
7.40
8.26
9.35
10.41
11.20
11.60
11.63
11.39
11.01
10.57
10.07
9.49
8.73
7.71
6.35
4.70
2.90
1.18
-0.27
-1.33
-2.08
-2.68
-3.34
-4.24
-5.56
-7.39
-9.75
-12.54
-15.43
-17.99
-19.75
-20.37
-19.82
-18.30
-16.18
-13.82
-11.43
-9.09
-6.80
-4.52
-2.25
-0.04
2.06
4.02
5.76
7.23
8.40
9.28
9.91
10.38
10.72
10.94
11.03
11.00
10.91
10.85
10.85
10.87
10.69
10.10
8.91
7.09
4.83
2.46
0.29
-1.51
-2.89
-3.98
-4.89
-5.72
-6.54
-7.48
-8.65
-10.22
-12.21
-14.44
-16.58
-18.25
-19.18
-19.37
-18.97
-18.20
-17.15
-15.74
-13.80
-11.25
-8.22
-5.02
-2.05
0.46
2.41
3.90
5.06
5.99
6.69
7.16
7.48
7.77
8.21
8.87
9.73
10.58
11.18
11.34
11.02
10.29
9.32
8.26
7.17
6.08
4.96
3.80
2.59
1.37
0.14
-1.10
-2.34
-3.58
-4.81
-6.05
-7.39
-8.93
-10.76
-12.86
-15.05
-17.02
-18.35
-18.71
-17.96
-16.12
-13.45
-10.27
-6.91
-3.65
-0.69
1.80
3.71
4.96
5.61
5.83
5.89
6.15
6.87
8.16
9.82
11.47
12.69
13.23
13.10
12.54
11.90
11.40
11.01
10.54
9.74
8.55
7.06
5.50
4.09
2.87
1.71
0.43
-1.09
-2.86
-4.77
-6.73
-8.72
-10.77
-12.93
-15.12
-17.11
-18.49
-18.86
-17.92
-15.64
-12.27
-8.29
-4.23
-0.55
2.53
4.99
6.98
8.60
9.90
10.80
11.28
11.40
11.30
11.20
11.25
11.45
11.76
12.07
12.37
12.68
13.06
13.43
13.61
13.26
12.05
9.88
6.90
3.54
0.39
-2.03
-3.48
-4.03
-4.00
-3.78
-3.72
-4.01
-4.72
-5.81
-7.25
-8.91
-10.57
-11.91
-12.61
-12.40
-11.19
-9.10
-6.38
-3.38
-0.41
2.29
4.65
6.68
8.47
10.12
11.62
12.90
13.86
14.40
14.54
14.37
14.03
13.68
13.40
13.20
13.02
12.75
12.33
11.70
10.89
9.96
8.95
7.90
6.76
5.47
3.99
2.32
0.53
-1.29
-3.09
-4.85
-6.56
-8.28
-10.11
-12.16
-14.53
-17.20
-19.89
-22.16
-23.53
-23.67
-22.57
-20.54
-18.02
-15.48
-13.17
-11.14
-9.19
-7.07
-4.56
-1.58
1.76
5.16
8.25
10.71
12.40
13.37
13.77
13.78
13.54
13.16
12.78
12.55
12.56
12.76
12.94
12.78
12.05
10.68
8.81
6.71
4.65
2.85
1.37
0.19
-0.74
-1.53
-2.25
-2.94
-3.56
-4.12
-4.70
-5.49
-6.73
-8.56
-10.93
-13.61
-16.25
-18.55
-20.29
-21.36
-21.67
-21.19
-19.90
-17.93
-15.53
-13.00
-10.55
-8.27
-6.07
-3.81
-1.43
1.01
3.35
5.43
7.10
8.30
9.03
9.40
9.63
9.85
10.20
10.67
11.14
11.50
11.66
11.64
11.45
11.05
10.35
9.24
7.67
5.74
3.67
1.71
0.05
-1.23
-2.17
-2.93
-3.72
-4.76
-6.16
-7.85
-9.62
-11.19
-12.34
-13.11
-13.68
-14.32
-15.14
-16.02
-16.57
-16.36
-15.09
-12.70
-9.42
-5.64
-1.85
1.55
4.32
6.38
7.81
8.78
9.43
9.89
10.17
10.27
10.22
10.05
9.88
9.79
9.80
9.88
9.92
9.83
9.58
9.16
8.66
8.15
7.64
7.08
6.39
5.52
4.49
3.41
2.38
1.40
0.32
-1.13
-3.13
-5.69
-8.57
-11.39
-13.77
-15.44
-16.29
-16.28
-15.40
-13.70
-11.31
-8.44
-5.42
-2.53
0.04
2.25
4.18
5.88
7.33
8.44
9.14
9.47
9.50
9.34
9.08
8.75
8.38
8.05
7.83
7.79
7.91
8.07
8.09
7.85
7.25
6.36
5.25
4.03
2.77
1.46
0.07
-1.42
-3.00
-4.62
-6.21
-7.72
-9.18
-10.63
-12.11
-13.52
-14.70
-15.40
-15.40
-14.64
-13.17
-11.17
-8.87
-6.48
-4.16
-1.98
0.04
1.96
3.83
5.64
7.26
8.56
9.42
9.84
10.00
10.11
10.33
10.68
11.04
11.25
11.22
10.94
10.43
9.75
8.91
7.93
6.82
5.59
4.22
2.69
0.99
-0.78
-2.38
-3.58
-4.22
-4.44
-4.59
-5.17
-6.60
-9.02
-12.21
-15.70
-18.92
-21.36
-22.66
-22.66
-21.40
-19.04
-15.87
-12.24
-8.48
-4.87
-1.55
1.43
4.03
6.22
7.87
8.86
9.13
8.81
8.16
7.56
7.26
7.33
7.63
7.95
8.14
8.20
8.22
8.28
8.38
8.35
7.99
7.09
5.63
3.70
1.53
-0.58
-2.38
-3.68
-4.42
-4.68
-4.65
-4.57
-4.77
-5.54
-7.07
-9.37
-12.22
-15.15
-17.56
-18.97
-19.18
-18.34
-16.87
-15.17
-13.47
-11.71
-9.71
-7.34
-4.66
-1.88
0.81
3.26
5.50
7.54
9.37
10.90
12.01
12.68
12.98
13.07
13.07
13.06
13.01
12.88
12.64
12.24
11.63
10.75
9.53
7.98
6.18
4.30
2.49
0.89
-0.47
-1.63
-2.76
-4.00
-5.44
-7.10
-8.85
-10.54
-12.09
-13.52
-14.92
-16.40
-17.84
-18.88
-19.00
-17.78
-15.17
-11.50
-7.51
-3.91
-1.19
0.61
1.76
2.67
3.63
4.73
5.83
6.65
6.98
6.70
5.91
4.89
3.99
3.58
3.72
4.17
4.33
3.58
1.57
-1.54
-5.01
-7.83
-9.11
-8.48
-6.31
-3.54
-1.37
-0.86
-2.60
-6.39
-11.07
-14.43
-13.41
-4.83
13.39
41.04
75.07
110.10
140.09
160.36
169.24
168.33
161.54
153.29
146.97
144.31
145.55
150.10
156.96
164.70
171.26
174.23
171.41
161.79
146.04
126.32
105.60
86.54
70.84
58.91
50.08
42.87
35.41
25.80
12.58
-4.80
-25.90
-49.61
-74.80
-101.01
-128.38
-157.05
-186.30
-214.14
-237.76
-254.48
-262.73
-262.31
-254.14
-239.52
-219.76
-196.01
-169.48
-141.44
-112.91
-84.30
-55.32
-25.46
5.27
35.82
64.25
88.48
107.22
120.51
129.60
136.01
141.29
146.84
152.96
159.21
164.92
169.53
172.74
174.45
174.46
172.79
169.96
166.22
161.53
155.92
149.18
140.83
129.95
114.90
95.01
71.96
48.07
25.93
8.44
-2.20
-5.26
-1.90
3.18
5.59
4.80
-0.32
-10.70
-25.22
-41.81
-58.77
-75.84
-98.19
-128.95
-163.04
-197.49
-231.41
-263.06
-291.55
-317.77
-344.20
-380.12
-430.05
-485.33
-541.79
-599.15
-654.47
-702.53
-736.66
-750.15
-746.66
-728.17
-685.03
-618.10
-535.77
-443.78
-344.77
-239.49
-77.89
144.81
337.99
476.13
571.61
627.20
648.55
644.17
623.12
592.42
547.11
484.52
416.85
350.54
288.14
235.88
200.69
186.90
193.41
208.35
222.06
238.19
257.36
277.46
298.57
320.77
343.05
362.48
371.95
368.17
357.61
344.65
330.08
314.95
300.03
285.76
270.08
247.98
215.98
176.05
130.66
80.03
26.34
-26.47
-72.40
-110.36
-142.40
-171.05
-196.23
-217.66
-240.60
-268.65
-301.52
-331.82
-358.86
-384.47
-411.43
-439.92
-467.94
-499.80
-535.88
-569.99
-585.99
-580.92
-558.55
-526.36
-489.47
-451.40
-425.33
-420.32
-436.14
-456.37
-476.45
-495.40
-514.01
-529.99
-474.73
-318.77
-89.56
95.22
220.80
296.13
348.09
384.24
408.20
421.54
414.65
382.53
330.08
278.06
233.85
198.47
168.42
141.95
117.73
86.16
40.94
-16.78
-72.77
-120.09
-152.93
-166.82
-155.97
-117.63
-59.67
7.02
72.93
136.23
192.39
238.74
273.08
296.28
310.04
311.30
300.78
287.35
280.80
284.32
293.88
299.43
291.38
263.81
215.68
152.74
84.06
17.94
-41.91
-95.85
-148.67
-201.00
-248.78
-285.56
-305.02
-305.74
-292.47
-272.40
-237.27
-189.77
-138.85
-95.59
-66.95
-51.90
-45.47
-42.19
-37.60
-27.53
-14.57
0.64
17.74
36.87
61.53
96.65
142.02
195.95
255.92
315.20
373.25
432.19
474.91
486.96
462.41
405.22
325.23
249.32
175.67
105.07
40.83
-14.55
-61.04
-96.81
-122.08
-137.65
-143.84
-143.82
-137.47
-126.01
-112.46
-98.28
-83.70
-69.21
-55.87
-45.28
-41.50
-44.77
-53.31
-63.92
-71.41
-71.09
-61.32
-43.69
-22.04
-2.05
13.63
24.13
29.67
31.26
30.03
26.53
21.29
15.04
7.98
0.98
-5.75
-12.74
-21.32
-31.23
-39.68
-41.75
-32.66
-10.24
24.76
68.97
117.84
165.32
207.62
244.23
276.66
305.44
328.48
342.07
342.93
329.12
297.13
245.96
178.79
102.61
25.03
-48.38
-114.30
-171.29
-220.44
-268.64
-321.99
-381.81
-444.03
-503.16
-555.10
-596.31
-621.59
-593.15
-487.29
-313.75
-114.60
64.38
195.55
272.15
302.93
309.84
308.51
303.16
293.36
279.14
263.49
250.30
241.77
235.96
230.49
221.88
204.45
175.19
136.24
94.33
56.84
28.92
12.79
8.16
11.28
14.11
8.23
-11.47
-44.68
-86.72
-131.28
-173.16
-209.99
-243.31
-277.08
-313.73
-351.73
-386.02
-411.01
-423.15
-421.66
-407.63
-383.32
-351.19
-313.20
-271.02
-226.68
-182.76
-141.58
-103.88
-69.06
-36.60
-6.57
20.82
45.45
67.08
85.20
99.45
111.18
123.09
137.97
157.40
181.37
206.91
227.22
233.16
217.91
182.48
136.90
96.59
76.52
87.08
131.19
204.41
293.41
374.41
425.62
441.05
428.12
395.31
347.91
290.22
228.36
170.31
124.29
97.23
90.27
100.36
119.82
139.96
154.07
158.73
153.83
142.32
129.61
120.19
117.70
119.83
121.47
116.86
101.20
71.82
29.24
-22.09
-73.69
-114.55
-134.72
-128.04
-95.31
-45.38
6.87
45.85
60.65
48.97
16.54
-27.37
-74.26
-119.32
-161.26
-199.88
-233.44
-258.95
-272.36
-270.81
-255.15
-230.39
-203.57
-180.36
-162.51
-147.50
-133.06
-115.43
-89.98
-53.44
-6.27
47.10
100.13
146.38
181.14
195.64
186.04
156.06
114.20
67.94
21.12
-24.82
-68.74
-108.86
-153.40
-206.94
-266.02
-321.89
-368.24
-403.91
-430.89
-451.45
-467.19
-492.72
-537.37
-598.76
-666.26
-731.38
-792.28
-851.59
-912.69
-891.32
-749.14
-517.10
-268.80
-58.78
97.11
205.58
279.18
329.37
364.49
376.69
361.81
326.73
286.83
255.46
239.11
238.29
250.36
270.11
280.81
270.44
238.95
196.93
157.32
129.78
116.26
117.67
130.76
144.17
149.67
146.60
140.24
135.51
133.76
132.60
128.77
120.27
105.40
86.90
71.47
66.65
76.37
99.80
131.07
161.88
183.32
187.41
169.95
131.76
78.38
14.41
-50.10
-104.24
-138.92
-149.33
-134.53
-97.23
-42.39
23.99
95.03
163.17
218.79
251.74
253.35
220.75
157.04
71.14
-23.82
-113.31
-184.33
-229.02
-245.43
-237.20
-209.35
-168.34
-121.15
-73.20
-27.75
14.20
52.70
88.81
123.18
158.50
195.73
232.65
265.87
291.77
307.97
314.00
311.95
286.79
232.79
156.38
72.16
-5.18
-68.06
-112.21
-140.94
-154.70
-152.76
-132.16
-91.87
-35.71
31.04
100.83
157.82
185.20
174.32
129.34
66.78
11.51
-32.83
-70.63
-109.61
-156.55
-213.50
-274.18
-328.25
-364.72
-377.76
-368.51
-342.42
-307.92
-272.90
-240.87
-209.92
-176.50
-138.05
-95.38
-50.52
-5.16
39.05
81.01
121.15
161.11
201.74
242.20
279.83
314.10
345.35
373.35
396.94
415.28
428.41
436.35
438.39
413.31
350.88
256.41
147.77
43.38
-45.66
-116.15
-169.60
-209.55
-239.88
-260.81
-272.58
-276.78
-276.71
-275.30
-274.26
-274.01
-274.21
-274.21
-270.90
-262.98
-249.79
-232.96
-214.45
-195.96
-178.64
-163.25
-150.41
-139.16
-128.97
-120.21
-114.36
-112.19
-113.87
-118.80
-125.89
-133.79
-140.16
-142.80
-139.73
-134.00
-127.02
-119.57
-112.02
-104.55
-97.29
-89.90
-82.06
-73.63
-64.86
-55.62
-45.90
-35.85
-25.82
-16.23
-7.05
1.95
11.11
20.70
31.06
42.59
55.39
69.05
82.91
97.36
112.84
129.65
147.77
166.38
185.60
205.57
225.92
245.92
266.76
289.18
313.11
337.90
361.80
386.77
415.97
451.08
490.58
531.79
567.90
589.46
587.45
554.03
491.33
408.04
315.79
227.19
157.29
116.57
108.31
127.81
160.92
196.75
227.18
247.06
226.42
150.53
23.36
-133.25
-267.99
-371.46
-445.75
-494.70
-528.24
-550.41
-559.77
-555.65
-539.78
-516.32
-493.88
-474.78
-458.35
-443.36
-427.99
-408.20
-381.63
-348.46
-311.27
-276.43
-245.59
-218.03
-192.51
-167.20
-139.12
-106.66
-70.19
-31.83
3.73
34.82
61.44
84.28
104.81
125.47
148.49
175.23
205.60
236.89
266.11
289.70
304.24
307.88
301.18
286.69
267.93
248.09
228.76
210.62
193.45
176.54
159.27
141.14
121.89
101.61
80.77
60.23
40.95
23.67
8.54
-4.71
-16.49
-26.83
-35.03
-39.65
-39.09
-32.31
-19.49
-2.43
15.79
31.63
42.14
45.93
43.53
36.99
29.07
22.36
18.63
18.66
22.40
29.31
38.48
48.83
59.16
68.33
75.53
80.33
82.61
82.35
79.33
73.18
63.70
51.27
37.22
23.69
13.10
7.26
6.71
10.39
15.93
20.38
21.00
15.95
4.59
-12.41
-33.24
-55.27
-75.50
-91.11
-100.14
-102.00
-97.55
-88.88
-78.64
-69.29
-62.51
-58.89
-58.01
-58.74
-59.77
-60.04
-59.06
-57.06
-54.70
-52.75
-51.65
-51.32
-51.18
-50.42
-48.36
-44.66
-39.54
-33.63
-27.94
-23.61
-21.74
-23.09
-27.81
-35.16
-43.53
-50.70
-54.45
-53.26
-46.81
-35.94
-22.35
-7.81
6.36
19.44
31.14
41.20
49.20
54.67
57.59
58.72
59.70
62.52
68.83
79.16
92.60
106.98
119.42
127.22
128.42
122.30
109.34
91.06
69.59
