1660937329.00
64.000000
-0.00
-0.00
-0.00
-0.00
-0.00
-0.00
-0.00
-0.00
-0.00
-0.00
0.00
0.01
0.01
-0.00
-0.03
-0.05
-0.05
0.00
0.13
0.36
0.66
1.01
1.37
1.72
2.06
2.40
2.79
3.25
3.81
4.44
5.09
5.73
6.32
6.90
7.52
8.26
9.15
10.27
11.50
12.72
13.82
14.78
15.67
16.68
18.04
19.87
22.37
25.31
28.41
31.39
34.11
36.72
39.55
43.07
47.55
53.30
59.92
66.84
73.54
79.76
85.72
92.00
99.34
108.15
118.80
130.61
142.68
154.22
164.89
175.05
185.56
197.82
210.32
224.95
241.92
261.11
281.43
300.37
314.17
318.64
310.49
288.53
254.49
211.57
163.73
114.31
65.41
17.99
-27.49
-70.64
-111.06
-148.37
-183.20
-216.83
-250.90
-286.53
-323.42
-359.36
-390.37
-412.01
-420.75
-415.51
-398.21
-372.93
-344.34
-316.02
-289.58
-264.94
-241.34
-218.28
-196.19
-175.95
-158.23
-142.93
-129.17
-115.79
-102.00
-87.71
-73.57
-60.57
-49.52
-40.68
-33.63
-27.50
-21.47
-15.03
-8.23
-1.58
4.29
8.93
12.27
14.63
16.49
18.27
20.16
22.09
23.86
25.25
26.15
26.56
26.59
26.39
26.12
25.85
25.64
25.45
25.23
24.89
24.39
23.71
22.86
21.87
20.83
19.81
18.89
18.14
17.58
17.17
16.86
16.58
16.26
15.86
15.38
14.82
14.22
13.62
13.08
12.64
12.31
12.08
11.89
11.72
11.55
11.42
11.34
11.28
11.20
11.05
10.80
10.47
10.09
9.70
9.33
8.97
8.60
8.23
7.89
7.64
7.53
7.54
7.62
7.67
7.60
7.37
6.98
6.49
5.96
5.47
5.05
4.70
4.40
4.11
3.80
3.47
3.13
2.80
2.48
2.18
1.88
1.55
1.16
0.72
0.22
-0.34
-0.97
-1.68
-2.47
-3.29
-4.10
-4.88
-5.62
-6.35
-7.09
-7.83
-8.54
-9.15
-9.64
-9.96
-10.13
-10.14
-10.00
-9.72
-9.32
-8.85
-8.36
-7.87
-7.40
-6.91
-6.36
-5.77
-5.17
-4.65
-4.25
-3.95
-3.64
-3.20
-2.59
-1.87
-1.19
-0.68
-0.40
-0.26
-0.12
0.16
0.62
1.16
1.63
1.93
2.02
1.99
1.96
2.05
2.28
2.63
3.03
3.39
3.66
3.83
3.90
3.87
3.74
3.53
3.28
3.08
3.01
3.17
3.57
4.12
4.67
5.04
5.14
4.97
4.64
4.31
4.10
4.02
4.02
4.00
3.92
3.79
3.70
3.72
3.83
3.97
4.04
3.97
3.76
3.48
3.20
2.99
2.87
2.82
2.79
2.75
2.70
2.64
2.64
2.73
2.93
3.20
3.43
3.50
3.34
2.99
2.56
2.21
2.05
2.04
2.06
1.96
1.68
1.30
0.97
0.85
0.99
1.31
1.66
1.90
2.00
2.00
1.99
2.01
2.05
1.99
1.77
1.38
0.92
0.55
0.39
0.48
0.75
1.06
1.26
1.28
1.12
0.89
0.68
0.57
0.59
0.72
0.94
1.21
1.49
1.72
1.83
1.79
1.60
1.34
1.11
0.95
0.89
0.88
0.85
0.79
0.74
0.78
0.98
1.34
1.78
2.20
2.48
2.55
2.43
2.16
1.81
1.43
1.08
0.79
0.56
0.38
0.26
0.18
0.15
0.19
0.30
0.43
0.52
0.51
0.40
0.28
0.22
0.27
0.40
0.54
0.59
0.53
0.43
0.40
0.51
0.75
0.99
1.10
1.00
0.73
0.41
0.19
0.18
0.39
0.74
1.07
1.23
1.13
0.78
0.32
-0.05
-0.22
-0.13
0.13
0.43
0.64
0.71
0.67
0.61
0.59
0.65
0.73
0.78
0.75
0.66
0.58
0.57
0.64
0.75
0.81
0.76
0.58
0.38
0.25
0.30
0.51
0.78
0.96
0.96
0.79
0.54
0.34
0.27
0.32
0.42
0.49
0.49
0.47
0.48
0.56
0.69
0.79
0.81
0.70
0.49
0.27
0.12
0.09
0.16
0.24
0.25
0.15
-0.03
-0.23
-0.33
-0.29
-0.11
0.17
0.44
0.66
0.78
0.80
0.73
0.58
0.41
0.28
0.25
0.36
0.56
0.74
0.81
0.70
0.45
0.18
0.02
0.01
0.13
0.29
0.42
0.49
0.52
0.55
0.60
0.64
0.61
0.50
0.37
0.28
0.30
0.39
0.45
0.39
0.16
-0.17
-0.49
-0.68
-0.72
-0.65
-0.53
-0.40
-0.26
-0.12
0.04
0.15
0.17
0.05
-0.16
-0.35
-0.41
-0.28
0.05
0.50
0.92
1.20
1.22
0.99
0.57
0.07
-0.37
-0.64
-0.70
-0.54
-0.22
0.18
0.59
0.95
1.20
1.30
1.23
1.01
0.69
0.37
0.11
-0.01
0.03
0.21
0.46
0.67
0.80
0.80
0.70
0.52
0.31
0.08
-0.15
-0.38
-0.59
-0.74
-0.81
-0.74
-0.54
-0.23
0.11
0.37
0.44
0.25
-0.20
-0.80
-1.42
-1.93
-2.28
-2.49
-2.65
-2.84
-3.12
-3.50
-3.98
-4.49
-5.00
-5.44
-5.82
-6.15
-6.52
-7.02
-7.72
-8.62
-9.63
-10.65
-11.61
-12.46
-13.26
-14.05
-14.91
-15.89
-17.05
-18.42
-20.00
-21.80
-23.85
-26.26
-29.13
-32.54
-36.43
-40.60
-44.83
-48.98
-53.17
-57.69
-62.84
-68.79
-75.45
-82.55
-89.81
-97.17
-104.67
-112.41
-120.29
-128.03
-135.35
-142.37
-149.87
-159.02
-170.65
-184.27
-197.50
-206.31
-206.31
-194.30
-169.41
-133.07
-88.28
-38.45
13.22
63.65
109.58
147.55
174.61
189.48
193.30
189.42
182.17
175.20
170.35
167.57
165.81
164.02
161.92
159.89
158.50
157.95
157.91
157.87
157.60
157.46
158.34
161.22
166.51
173.79
181.90
189.51
195.70
200.42
204.41
208.78
214.44
221.72
230.35
239.52
248.07
254.43
256.71
252.84
241.15
220.87
192.50
157.64
118.35
76.16
31.62
-15.45
-64.89
-115.11
-162.56
-202.49
-230.64
-244.88
-246.20
-238.09
-225.07
-210.87
-197.44
-184.93
-172.73
-160.45
-148.47
-137.65
-128.67
-121.48
-115.23
-108.76
-101.24
-92.57
-83.35
-74.58
-67.12
-61.31
-56.85
-53.03
-49.05
-44.39
-39.08
-33.56
-28.50
-24.44
-21.55
-19.63
-18.16
-16.62
-14.68
-12.34
-9.86
-7.60
-5.86
-4.72
-4.03
-3.51
-2.90
-2.06
-1.06
-0.10
0.59
0.86
0.72
0.28
-0.28
-0.79
-1.12
-1.23
-1.12
-0.86
-0.56
-0.32
-0.21
-0.21
-0.23
-0.13
0.20
0.73
1.35
1.87
2.11
2.03
1.66
1.14
0.63
0.24
-0.02
-0.18
-0.34
-0.56
-0.87
-1.22
-1.51
-1.64
-1.56
-1.31
-0.97
-0.65
-0.42
-0.30
-0.22
-0.12
0.02
0.15
0.23
0.21
0.13
0.06
0.09
0.23
0.41
0.48
0.33
-0.05
-0.56
-1.01
-1.26
-1.27
-1.13
-0.97
-0.90
-0.94
-1.03
-1.05
-0.93
-0.69
-0.40
-0.20
-0.15
-0.26
-0.45
-0.64
-0.77
-0.84
-0.86
-0.84
-0.76
-0.56
-0.18
0.41
1.12
1.85
2.46
2.89
3.15
3.29
3.36
3.38
3.34
3.24
3.12
2.99
2.89
2.82
2.73
2.57
2.32
2.01
1.72
1.58
1.65
1.88
2.12
2.13
1.70
0.72
-0.74
-2.45
-4.05
-5.25
-5.85
-5.85
-5.42
-4.79
-4.19
-3.76
-3.49
-3.26
-2.94
-2.41
-1.68
-0.84
0.01
0.80
1.53
2.22
2.86
3.35
3.57
3.43
2.92
2.22
1.54
1.08
0.94
1.04
1.25
1.41
1.43
1.28
1.01
0.70
0.40
0.13
-0.09
-0.24
-0.31
-0.31
-0.26
-0.25
-0.36
-0.65
-1.10
-1.63
-2.09
-2.34
-2.35
-2.12
-1.73
-1.29
-0.86
-0.51
-0.27
-0.15
-0.17
-0.32
-0.58
-0.92
-1.30
-1.64
-1.83
-1.77
-1.42
-0.81
-0.10
0.53
1.01
1.35
1.65
2.02
2.46
2.86
3.08
3.01
2.64
2.02
1.27
0.47
-0.31
-1.02
-1.57
-1.92
-2.03
-1.92
-1.67
-1.35
-1.05
-0.79
-0.56
-0.30
0.05
0.56
1.24
2.06
2.92
3.67
4.14
4.17
3.68
2.68
1.33
-0.16
-1.49
-2.42
-2.85
-2.83
-2.51
-2.09
-1.72
-1.48
-1.38
-1.40
-1.51
-1.67
-1.81
-1.86
-1.80
-1.67
-1.58
-1.64
-1.86
-2.14
-2.30
-2.22
-1.86
-1.33
-0.79
-0.34
0.02
0.36
0.73
1.12
1.46
1.68
1.76
1.75
1.73
1.77
1.91
2.11
2.37
2.70
3.10
3.60
4.14
4.65
5.00
5.06
4.73
3.92
2.62
0.92
-0.99
-2.85
-4.43
-5.54
-6.16
-6.42
-6.50
-6.54
-6.59
-6.56
-6.32
-5.75
-4.80
-3.49
-1.89
-0.06
1.88
3.80
5.51
6.77
7.40
7.34
6.65
5.56
4.35
3.27
2.47
1.98
1.68
1.44
1.12
0.65
0.07
-0.52
-1.00
-1.26
-1.28
-1.11
-0.85
-0.67
-0.68
-0.97
-1.51
-2.23
-3.01
-3.75
-4.35
-4.75
-4.89
-4.72
-4.22
-3.40
-2.34
-1.19
-0.12
0.73
1.28
1.57
1.69
1.74
1.83
2.04
2.37
2.79
3.26
3.69
3.99
4.12
4.08
3.92
3.77
3.79
4.06
4.52
4.99
5.16
4.76
3.66
1.90
-0.26
-2.52
-4.59
-6.23
-7.32
-7.82
-7.75
-7.23
-6.46
-5.69
-5.13
-4.85
-4.80
-4.78
-4.56
-3.92
-2.75
-1.05
1.04
3.25
5.25
6.74
7.57
7.73
7.35
6.63
5.76
4.91
4.15
3.54
3.05
2.64
2.22
1.73
1.23
0.80
0.56
0.50
0.56
0.58
0.49
0.31
0.18
0.24
0.49
0.81
0.99
0.88
0.48
-0.09
-0.61
-0.94
-1.03
-0.92
-0.72
-0.52
-0.36
-0.26
-0.24
-0.28
-0.37
-0.53
-0.75
-1.01
-1.31
-1.64
-1.98
-2.31
-2.59
-2.82
-2.98
-3.02
-2.94
-2.73
-2.42
-2.08
-1.79
-1.63
-1.61
-1.72
-1.88
-2.03
-2.13
-2.16
-2.11
-1.97
-1.72
-1.34
-0.83
-0.24
0.32
0.71
0.84
0.71
0.41
0.11
-0.07
-0.08
-0.00
0.05
-0.06
-0.39
-0.93
-1.63
-2.44
-3.29
-4.11
-4.82
-5.30
-5.50
-5.48
-5.40
-5.43
-5.70
-6.22
-6.85
-7.39
-7.71
-7.74
-7.55
-7.21
-6.77
-6.22
-5.53
-4.72
-3.87
-3.09
-2.51
-2.20
-2.12
-2.21
-2.37
-2.55
-2.67
-2.62
-2.24
-1.36
0.11
2.13
4.52
7.00
9.31
11.29
12.81
13.85
14.35
14.27
13.57
12.26
10.46
8.33
5.97
3.44
0.66
-2.46
-6.00
-9.92
-14.08
-18.29
-22.38
-26.26
-30.01
-33.81
-37.87
-42.37
-47.31
-52.54
-57.76
-62.71
-67.24
-71.45
-75.62
-80.09
-85.05
-90.43
-95.88
-100.83
-104.63
-106.76
-107.09
-106.00
-104.59
-104.57
-107.69
-114.81
-124.95
-134.96
-140.24
-136.15
-119.69
-90.44
-50.53
-3.76
45.55
93.45
136.64
172.54
199.32
216.12
223.27
222.31
215.59
205.69
194.76
184.27
175.05
167.53
161.82
157.93
155.72
154.66
153.28
149.11
139.09
120.76
93.71
60.40
25.74
-4.66
-26.64
-38.97
-43.36
-43.08
-41.17
-39.21
-37.31
-34.95
-31.97
-28.99
-27.05
-26.87
-28.30
-30.33
-31.66
-31.26
-28.90
-25.24
-21.46
-18.69
-17.51
-17.74
-18.52
-18.79
-17.84
-15.62
-12.69
-9.93
-8.07
-7.38
-7.58
-8.07
-8.24
-7.74
-6.60
-5.13
-3.73
-2.73
-2.23
-2.15
-2.29
-2.42
-2.41
-2.20
-1.81
-1.31
-0.79
-0.33
0.03
0.24
0.34
0.35
0.35
0.39
0.46
0.55
0.63
0.68
0.73
0.80
0.91
1.04
1.15
1.20
1.15
1.04
0.90
0.76
0.59
0.38
0.10
-0.23
-0.58
-0.90
-1.16
-1.35
-1.47
-1.52
-1.48
-1.39
-1.27
-1.21
-1.28
-1.53
-1.94
-2.41
-2.84
-3.16
-3.31
-3.30
-3.15
-2.89
-2.54
-2.14
-1.70
-1.27
-0.89
-0.61
-0.43
-0.32
-0.24
-0.15
-0.02
0.13
0.26
0.38
0.50
0.63
0.84
1.12
1.45
1.75
1.92
1.93
1.78
1.56
1.33
1.16
1.05
1.01
0.99
1.02
1.13
1.32
1.59
1.84
1.98
1.92
1.65
1.22
0.72
0.24
-0.15
-0.44
-0.63
-0.75
-0.88
-1.03
-1.24
-1.50
-1.76
-1.93
-1.95
-1.80
-1.51
-1.18
-0.91
-0.83
-0.97
-1.33
-1.78
-2.17
-2.37
-2.33
-2.13
-1.91
-1.81
-1.86
-1.97
-2.03
-1.95
-1.77
-1.59
-1.51
-1.53
-1.57
-1.52
-1.32
-1.05
-0.83
-0.78
-0.91
-1.13
-1.30
-1.34
-1.28
-1.21
-1.22
-1.31
-1.42
-1.44
-1.32
-1.06
-0.76
-0.51
-0.33
-0.21
-0.06
0.15
0.39
0.60
0.67
0.60
0.44
0.27
0.20
0.27
0.44
0.62
0.73
0.69
0.51
0.21
-0.13
-0.45
-0.69
-0.80
-0.78
-0.67
-0.51
-0.35
-0.21
-0.11
-0.05
-0.05
-0.12
-0.27
-0.47
-0.66
-0.79
-0.79
-0.65
-0.42
-0.17
0.00
0.04
-0.05
-0.21
-0.34
-0.38
-0.33
-0.25
-0.22
-0.30
-0.47
-0.66
-0.77
-0.73
-0.56
-0.32
-0.08
0.12
0.28
0.45
0.64
0.88
1.14
1.37
1.54
1.61
1.55
1.38
1.15
0.93
0.79
0.74
0.74
0.69
0.54
0.27
-0.04
-0.29
-0.40
-0.39
-0.33
-0.30
-0.32
-0.35
-0.30
-0.09
0.23
0.54
0.70
0.63
0.35
-0.02
-0.37
-0.61
-0.71
-0.68
-0.55
-0.38
-0.18
-0.00
0.13
0.21
0.25
0.27
0.27
0.25
0.19
0.10
0.00
-0.05
-0.03
0.08
0.23
0.36
0.43
0.39
0.28
0.14
0.04
0.02
0.11
0.28
0.46
0.57
0.52
0.33
0.06
-0.21
-0.38
-0.42
-0.37
-0.28
-0.23
-0.23
-0.25
-0.24
-0.19
-0.09
0.03
0.13
0.23
0.34
0.48
0.68
0.91
1.13
1.30
1.39
1.41
1.37
1.29
1.21
1.15
1.12
1.09
1.00
0.81
0.53
0.19
-0.13
-0.36
-0.49
-0.57
-0.67
-0.79
-0.92
-0.94
-0.81
-0.55
-0.28
-0.13
-0.16
-0.31
-0.43
-0.39
-0.18
0.09
0.20
0.04
-0.39
-0.96
-1.46
-1.71
-1.65
-1.36
-0.96
-0.63
-0.46
-0.49
-0.66
-0.86
-0.97
-0.97
-0.89
-0.85
-0.92
-1.10
-1.31
-1.41
-1.33
-1.08
-0.77
-0.51
-0.34
-0.24
-0.15
-0.02
0.13
0.26
0.30
0.25
0.16
0.13
0.22
0.42
0.67
0.88
0.98
0.91
0.71
0.45
0.20
0.05
0.02
0.09
0.19
0.27
0.25
0.13
-0.04
-0.17
-0.20
-0.12
0.01
0.14
0.21
0.21
0.15
0.06
-0.08
-0.25
-0.42
-0.55
-0.54
-0.34
0.01
0.40
0.69
0.74
0.53
0.16
-0.24
-0.50
-0.58
-0.49
-0.30
-0.11
0.06
0.19
0.33
0.46
0.55
0.53
0.38
0.13
-0.12
-0.29
-0.31
-0.20
-0.06
-0.01
-0.14
-0.46
-0.87
-1.25
-1.45
-1.40
-1.12
-0.71
-0.29
0.04
0.23
0.26
0.16
-0.01
-0.18
-0.27
-0.22
-0.04
0.22
0.48
0.64
0.66
0.53
0.28
-0.04
-0.38
-0.74
-1.08
-1.39
-1.64
-1.80
-1.87
-1.87
-1.88
-1.94
-2.12
-2.40
-2.71
-2.97
-3.11
-3.14
-3.15
-3.25
-3.48
-3.83
-4.17
-4.39
-4.44
-4.33
-4.14
-3.98
-3.86
-3.77
-3.59
-3.26
-2.72
-1.99
-1.16
-0.37
0.23
0.56
0.57
0.27
-0.25
-0.88
-1.47
-1.89
-2.03
-1.87
-1.46
-0.91
-0.33
0.22
0.76
1.35
2.03
2.79
3.56
4.26
4.82
5.25
5.62
6.00
6.40
6.81
7.14
7.31
7.29
7.08
6.77
6.40
5.98
5.48
4.83
4.02
3.08
2.15
1.35
0.81
0.52
0.46
0.51
0.60
0.69
0.77
0.88
1.04
1.26
1.52
1.77
1.96
2.03
1.96
1.76
1.47
1.10
0.68
0.25
-0.14
-0.44
-0.58
-0.55
-0.38
-0.16
-0.04
-0.10
-0.33
-0.64
-0.88
-0.90
-0.67
-0.25
0.21
0.57
0.72
0.72
0.67
0.69
0.80
0.96
1.10
1.17
1.21
1.29
1.42
1.55
1.57
1.40
1.03
0.57
0.12
-0.25
-0.58
-0.94
-1.39
-1.88
-2.29
-2.51
-2.48
-2.26
-1.97
-1.71
-1.52
-1.35
-1.15
-0.90
-0.62
-0.38
-0.25
-0.29
-0.47
-0.76
-1.06
-1.29
-1.37
-1.31
-1.14
-0.90
-0.63
-0.34
-0.06
0.17
0.31
0.32
0.17
-0.09
-0.39
-0.61
-0.68
-0.59
-0.40
-0.16
0.03
0.13
0.17
0.17
0.19
0.25
0.33
0.38
0.35
0.19
-0.07
-0.36
-0.58
-0.64
-0.50
-0.23
0.06
0.25
0.24
0.08
-0.15
-0.31
-0.33
-0.25
-0.15
-0.12
-0.17
-0.24
-0.24
-0.14
0.03
0.14
0.10
-0.09
-0.34
-0.51
-0.50
-0.30
-0.01
0.26
0.39
0.37
0.23
0.01
-0.24
-0.50
-0.71
-0.84
-0.84
-0.68
-0.39
-0.02
0.35
0.63
0.77
0.76
0.62
0.42
0.22
0.08
-0.01
-0.04
-0.03
-0.00
0.04
0.07
0.07
0.02
-0.09
-0.22
-0.31
-0.30
-0.17
0.09
0.41
0.70
0.88
0.88
0.72
0.45
0.18
-0.03
-0.14
-0.20
-0.26
-0.37
-0.51
-0.64
-0.69
-0.68
-0.62
-0.60
-0.63
-0.67
-0.63
-0.46
-0.16
0.18
0.42
0.48
0.34
0.08
-0.21
-0.46
-0.63
-0.71
-0.69
-0.54
-0.25
0.16
0.62
1.02
1.24
1.23
1.00
0.61
0.15
-0.29
-0.65
-0.85
-0.87
-0.69
-0.34
0.09
0.50
0.78
0.86
0.77
0.60
0.43
0.32
0.29
0.27
0.22
0.13
0.03
-0.03
-0.00
0.07
0.11
0.07
-0.03
-0.13
-0.13
-0.00
0.22
0.42
0.47
0.34
0.06
-0.23
-0.44
-0.50
-0.41
-0.25
-0.07
0.09
0.21
0.29
0.29
0.20
0.02
-0.22
-0.44
-0.58
-0.57
-0.41
-0.14
0.16
0.41
0.56
0.59
0.51
0.33
0.11
-0.11
-0.28
-0.36
-0.34
-0.24
-0.10
0.01
0.07
0.07
0.05
0.02
0.01
-0.02
-0.06
-0.14
-0.22
-0.27
-0.27
-0.21
-0.10
0.01
0.08
0.11
0.07
-0.02
-0.15
-0.30
-0.46
-0.59
-0.65
-0.62
-0.51
-0.36
-0.22
-0.13
-0.09
-0.10
-0.15
-0.22
-0.33
-0.46
-0.59
-0.66
-0.60
-0.40
-0.12
0.12
0.23
0.19
0.06
-0.04
-0.02
0.14
0.35
0.51
0.55
0.46
0.30
0.14
0.01
-0.06
-0.06
0.00
0.11
0.25
0.36
0.40
0.35
0.23
0.08
-0.04
-0.08
-0.05
0.03
0.12
0.18
0.17
0.10
-0.01
-0.11
-0.14
-0.07
0.06
0.21
0.27
0.23
0.09
-0.07
-0.20
-0.22
-0.16
-0.03
0.10
0.20
0.26
0.26
0.22
0.18
0.14
0.14
0.16
0.18
0.19
0.19
0.18
0.23
0.38
0.60
0.84
0.98
0.97
0.78
0.48
0.16
-0.10
-0.26
-0.37
-0.43
-0.45
-0.43
-0.35
-0.23
-0.15
-0.19
-0.36
-0.62
-0.85
-0.93
-0.79
-0.45
-0.05
0.27
0.38
0.26
-0.03
-0.37
-0.63
-0.76
-0.74
-0.59
-0.35
-0.06
0.26
0.55
0.76
0.81
0.70
0.46
0.19
-0.03
-0.13
-0.13
-0.06
0.02
0.06
0.07
0.03
-0.05
-0.18
-0.37
-0.58
-0.75
-0.77
-0.60
-0.28
0.08
0.34
0.40
0.26
0.04
-0.11
-0.10
0.09
0.39
0.68
0.85
0.88
0.80
0.66
0.54
0.44
0.34
0.20
0.01
-0.17
-0.30
-0.32
-0.22
-0.05
0.10
0.17
0.14
0.02
-0.10
-0.19
-0.22
-0.23
-0.22
-0.19
-0.11
0.05
0.26
0.47
0.60
0.57
0.37
0.05
-0.28
-0.53
-0.64
-0.61
-0.50
-0.37
-0.25
-0.13
0.00
0.15
0.26
0.31
0.25
0.08
-0.14
-0.36
-0.51
-0.56
-0.53
-0.43
-0.29
-0.12
0.04
0.13
0.09
-0.10
-0.41
-0.75
-0.98
-1.01
-0.82
-0.49
-0.15
0.07
0.13
0.02
-0.21
-0.48
-0.72
-0.89
-0.94
-0.85
-0.62
-0.24
0.21
0.65
0.97
1.08
0.92
0.55
0.09
-0.28
-0.39
-0.16
0.35
0.93
1.37
1.49
1.29
0.89
0.47
0.17
0.02
0.00
0.07
0.19
0.41
0.74
1.13
1.48
1.69
1.66
1.41
1.03
0.66
0.39
0.30
0.38
0.57
0.76
0.82
0.68
0.31
-0.22
-0.77
-1.19
-1.42
-1.46
-1.35
-1.17
-0.95
-0.71
-0.48
-0.27
-0.13
-0.10
-0.21
-0.43
-0.71
-0.98
-1.16
-1.19
-1.02
-0.68
-0.26
0.11
0.31
0.29
0.10
-0.13
-0.28
-0.30
-0.23
-0.13
-0.05
0.04
0.17
0.39
0.65
0.86
0.94
0.86
0.66
0.45
0.26
0.11
-0.07
-0.31
-0.59
-0.84
-0.98
-0.99
-0.88
-0.74
-0.61
-0.48
-0.32
-0.15
0.01
0.07
-0.00
-0.19
-0.40
-0.52
-0.48
-0.30
-0.08
0.09
0.16
0.13
0.09
0.09
0.16
0.29
0.41
0.46
0.41
0.28
0.11
-0.06
-0.16
-0.20
-0.16
-0.05
0.12
0.31
0.50
0.63
0.69
0.69
0.68
0.73
0.83
0.96
1.00
0.92
0.70
0.42
0.17
0.03
-0.02
-0.03
-0.05
-0.11
-0.18
-0.21
-0.20
-0.16
-0.14
-0.14
-0.15
-0.10
0.04
0.27
0.53
0.71
0.76
0.65
0.43
0.21
0.08
0.08
0.20
0.34
0.41
0.34
0.12
-0.19
-0.50
-0.74
-0.87
-0.89
-0.80
-0.62
-0.38
-0.13
0.05
0.07
-0.07
-0.33
-0.58
-0.68
-0.59
-0.36
-0.08
0.12
0.21
0.20
0.15
0.09
0.04
-0.04
-0.14
-0.28
-0.43
-0.55
-0.64
-0.70
-0.70
-0.64
-0.53
-0.38
-0.22
-0.09
-0.01
0.04
0.06
0.05
0.03
-0.00
0.02
0.14
0.38
0.71
1.02
1.20
1.17
0.96
0.69
0.46
0.32
0.26
0.20
0.08
-0.08
-0.23
-0.30
-0.25
-0.11
0.06
0.21
0.33
0.42
0.51
0.61
0.72
0.81
0.85
0.79
0.62
0.36
0.05
-0.24
-0.42
-0.47
-0.44
-0.39
-0.39
-0.47
-0.57
-0.62
-0.57
-0.42
-0.23
-0.09
-0.07
-0.17
-0.32
-0.42
-0.41
-0.30
-0.17
-0.09
-0.11
-0.24
-0.44
-0.66
-0.86
-1.00
-1.07
-1.07
-0.99
-0.84
-0.65
-0.44
-0.26
-0.11
-0.01
0.07
0.13
0.20
0.27
0.37
0.49
0.62
0.74
0.82
0.81
0.73
0.57
0.39
0.24
0.16
0.19
0.28
0.36
0.35
0.20
-0.05
-0.30
-0.43
-0.35
-0.09
0.26
0.54
0.63
0.49
0.15
-0.27
-0.61
-0.77
-0.66
-0.31
0.21
0.76
1.16
1.34
1.24
0.92
0.49
0.07
-0.26
-0.45
-0.53
-0.55
-0.59
-0.65
-0.71
-0.69
-0.52
-0.22
0.11
0.33
0.35
0.17
-0.09
-0.27
-0.27
-0.09
0.13
0.25
0.17
-0.07
-0.35
-0.54
-0.55
-0.40
-0.17
0.02
0.10
0.05
-0.07
-0.21
-0.31
-0.33
-0.28
-0.16
-0.02
0.13
0.26
0.35
0.39
0.39
0.35
0.30
0.27
0.30
0.41
0.57
0.74
0.83
0.75
0.47
0.07
-0.31
-0.49
-0.40
-0.07
0.34
0.62
0.66
0.47
0.20
-0.01
-0.07
-0.01
0.05
0.02
-0.13
-0.33
-0.45
-0.38
-0.09
0.31
0.66
0.78
0.60
0.14
-0.44
-0.97
-1.30
-1.40
-1.30
-1.09
-0.83
-0.53
-0.20
0.13
0.42
0.59
0.60
0.47
0.27
0.06
-0.07
-0.12
-0.11
-0.08
-0.08
-0.12
-0.19
-0.24
-0.21
-0.06
0.18
0.41
0.53
0.45
0.19
-0.17
-0.49
-0.65
-0.62
-0.45
-0.21
0.02
0.22
0.37
0.48
0.52
0.46
0.30
0.06
-0.17
-0.30
-0.28
-0.14
0.05
0.19
0.22
0.15
0.05
0.00
0.05
0.20
0.39
0.53
0.58
0.49
0.26
-0.07
-0.46
-0.83
-1.07
-1.09
-0.87
-0.46
-0.03
0.24
0.25
0.02
-0.32
-0.58
-0.63
-0.47
-0.19
0.05
0.16
0.14
0.05
-0.00
0.02
0.13
0.28
0.40
0.47
0.48
0.47
0.49
0.52
0.57
0.57
0.50
0.38
0.22
0.11
0.07
0.11
0.18
0.22
0.19
0.10
-0.02
-0.15
-0.29
-0.47
-0.69
-0.93
-1.10
-1.11
-0.89
-0.47
0.02
0.44
0.68
0.72
0.65
0.61
0.69
0.90
1.17
1.36
1.38
1.22
0.93
0.61
0.35
0.17
0.05
-0.08
-0.29
-0.60
-0.99
-1.36
-1.62
-1.68
-1.51
-1.16
-0.74
-0.37
-0.17
-0.17
-0.33
-0.55
-0.71
-0.72
-0.57
-0.30
-0.03
0.12
0.11
-0.04
-0.27
-0.48
-0.61
-0.68
-0.70
-0.65
-0.53
-0.33
-0.04
0.26
0.46
0.50
0.37
0.14
-0.04
-0.08
0.07
0.35
0.67
0.92
1.05
1.08
1.06
1.04
1.01
0.94
0.79
0.55
0.27
0.04
-0.06
0.00
0.19
0.42
0.61
0.66
0.56
0.32
0.01
-0.29
-0.49
-0.53
-0.42
-0.20
0.04
0.25
0.42
0.53
0.61
0.61
0.48
0.18
-0.24
-0.67
-0.97
-1.04
-0.86
-0.48
-0.06
0.27
0.39
0.29
0.02
-0.32
-0.62
-0.82
-0.91
-0.95
-0.98
-1.01
-1.01
-0.94
-0.74
-0.42
-0.06
0.25
0.43
0.49
0.44
0.38
0.33
0.31
0.32
0.34
0.38
0.44
0.52
0.59
0.62
0.62
0.57
0.53
0.53
0.57
0.61
0.61
0.48
0.23
-0.12
-0.48
-0.75
-0.86
-0.80
-0.61
-0.37
-0.17
-0.06
-0.05
-0.11
-0.19
-0.21
-0.12
0.09
0.37
0.63
0.78
0.75
0.57
0.34
0.20
0.23
0.39
0.60
0.72
0.67
0.48
0.22
-0.01
-0.15
-0.18
-0.12
0.01
0.19
0.38
0.51
0.52
0.40
0.19
-0.03
-0.18
-0.22
-0.21
-0.23
-0.32
-0.47
-0.58
-0.56
-0.40
-0.17
0.02
0.07
-0.05
-0.25
-0.41
-0.43
-0.30
-0.11
0.03
0.08
0.08
0.12
0.26
0.47
0.59
0.48
0.07
-0.50
-1.00
-1.18
-0.98
-0.54
-0.13
0.01
-0.18
-0.55
-0.88
-0.97
-0.82
-0.53
-0.29
-0.20
-0.25
-0.34
-0.40
-0.40
-0.36
-0.31
-0.26
-0.18
-0.02
0.22
0.49
0.66
0.66
0.45
0.11
-0.23
-0.46
-0.50
-0.35
-0.05
0.31
0.65
0.88
0.94
0.78
0.44
0.04
-0.27
-0.34
-0.14
0.23
0.60
0.79
0.72
0.45
0.12
-0.13
-0.23
-0.24
-0.25
-0.34
-0.51
-0.69
-0.78
-0.76
-0.67
-0.60
-0.66
-0.88
-1.21
-1.54
-1.79
-1.93
-1.98
-2.02
-2.09
-2.22
-2.38
-2.50
-2.55
-2.52
-2.47
-2.50
-2.74
-3.25
-4.02
-4.91
-5.74
-6.35
-6.69
-6.88
-7.14
-7.69
-8.68
-10.02
-11.48
-12.77
-13.65
-14.10
-14.32
-14.63
-15.37
-16.70
-18.57
-20.73
-22.90
-24.87
-26.57
-28.14
-29.79
-31.77
-34.25
-37.25
-40.65
-44.20
-47.55
-50.38
-52.45
-53.72
-54.33
-54.66
-55.25
-56.64
-59.16
-62.54
-65.81
-67.34
-65.30
-58.32
-46.00
-29.16
-9.54
10.72
29.71
46.10
59.29
69.30
76.68
82.60
88.82
97.49
110.45
128.39
150.27
173.37
194.23
209.94
219.36
223.45
224.69
225.85
228.81
234.00
240.69
247.63
253.53
257.17
257.08
251.41
238.23
216.21
185.26
146.64
102.35
54.36
4.18
-46.87
-96.87
-142.78
-180.77
-207.39
-221.05
-222.84
-216.04
-204.82
-192.55
-180.96
-170.22
-159.77
-149.30
-139.09
-129.78
-121.74
-114.76
-108.07
-100.87
-92.76
-83.95
-75.17
-67.23
-60.62
-55.35
-50.97
-46.83
-42.42
-37.52
-32.32
-27.27
-22.89
-19.56
-17.36
-16.05
-15.17
-14.24
-12.90
-11.11
-9.09
-7.18
-5.66
-4.61
-3.89
-3.29
-2.61
-1.82
-1.02
-0.40
-0.11
-0.18
-0.48
-0.83
-1.02
-0.94
-0.62
-0.17
0.19
0.30
0.08
-0.36
-0.84
-1.15
-1.18
-0.98
-0.67
-0.41
-0.27
-0.25
-0.30
-0.42
-0.61
-0.89
-1.24
-1.56
-1.73
-1.66
-1.37
-0.95
-0.56
-0.29
-0.14
-0.05
0.05
0.18
0.30
0.34
0.26
0.08
-0.15
-0.38
-0.54
-0.64
-0.69
-0.72
-0.79
-0.97
-1.34
-1.95
-2.80
-3.83
-4.93
-6.03
-7.14
-8.36
-9.81
-11.54
-13.45
-15.31
-16.85
-17.85
-18.27
-18.33
-18.38
-18.86
-20.05
-21.98
-24.31
-26.49
-27.90
-28.19
-27.41
-26.03
-24.78
-24.21
-24.43
-24.98
-25.09
-24.15
-22.23
-20.24
-19.74
-22.21
-28.36
-37.59
-48.03
-57.33
-63.47
-65.71
-64.85
-62.97
-62.58
-65.81
-73.65
-85.51
-99.22
-111.22
-117.14
-112.74
-95.05
-63.57
-20.93
27.34
74.37
113.96
142.59
160.27
169.91
175.35
179.03
180.53
176.95
164.91
142.94
113.10
80.48
51.15
29.47
16.44
9.86
6.20
2.67
-1.43
-4.93
-6.19
-4.64
-1.36
1.45
1.77
-1.08
-6.22
-11.75
-15.76
-17.18
-16.16
-13.67
-10.88
-8.56
-6.81
-5.28
-3.50
-1.24
1.36
3.80
5.55
6.19
5.68
4.28
2.58
1.20
0.64
1.00
1.99
3.07
3.66
3.46
2.51
1.26
0.42
0.77
2.98
7.41
13.91
21.86
30.27
38.08
44.40
48.61
50.33
49.23
45.11
38.00
28.42
17.54
6.92
-1.93
-8.02
-11.23
-12.18
-11.83
-11.00
-10.07
-9.09
-7.90
-6.44
-4.88
-3.54
-2.76
-2.76
-3.49
-4.72
-6.13
-7.42
-8.46
-9.22
-9.81
-10.35
-10.88
-11.34
-11.57
-11.41
-10.77
-9.74
-8.52
-7.38
-6.52
-5.99
-5.66
-5.33
-4.83
-4.15
-3.42
-2.87
-2.66
-2.80
-3.12
-3.39
-3.38
-3.02
-2.42
-1.80
-1.36
-1.22
-1.32
-1.52
-1.62
-1.51
-1.19
-0.75
-0.33
-0.06
0.02
-0.05
-0.18
-0.27
-0.25
-0.12
0.08
0.29
0.42
0.46
0.40
0.28
0.15
0.07
0.06
0.11
0.19
0.24
0.23
0.16
0.07
0.01
0.04
0.17
0.37
0.59
0.76
0.81
0.72
0.47
0.10
-0.30
-0.65
-0.84
-0.86
-0.73
-0.56
-0.46
-0.46
-0.54
-0.62
-0.63
-0.52
-0.31
-0.04
0.23
0.49
0.71
0.85
0.91
0.86
0.73
0.57
0.43
0.31
0.21
0.07
-0.12
-0.36
-0.59
-0.71
-0.69
-0.50
-0.22
0.06
0.26
0.31
0.24
0.10
-0.03
-0.11
-0.11
-0.07
-0.04
-0.06
-0.16
-0.32
-0.50
-0.65
-0.75
-0.78
-0.73
-0.62
-0.45
-0.26
-0.07
0.07
0.15
0.20
0.25
0.35
0.49
0.65
0.79
0.85
0.85
0.78
0.67
0.53
0.35
0.11
-0.15
-0.40
-0.55
-0.56
-0.44
-0.25
-0.07
0.04
0.03
-0.07
-0.22
-0.35
-0.44
-0.47
-0.48
-0.49
-0.53
-0.59
-0.61
-0.52
-0.26
0.15
0.59
0.90
0.92
0.65
0.21
-0.19
-0.37
-0.28
-0.04
0.18
0.23
0.11
-0.06
-0.10
0.08
0.45
0.85
1.10
1.11
0.89
0.55
0.26
0.11
0.15
0.32
0.55
0.76
0.90
0.93
0.86
0.69
0.42
0.11
-0.15
-0.29
-0.27
-0.14
-0.02
-0.04
-0.25
-0.65
-1.10
-1.46
-1.64
-1.60
-1.36
-0.98
-0.53
-0.09
0.24
0.37
0.28
0.01
-0.30
-0.50
-0.51
-0.32
-0.06
0.16
0.26
0.23
0.16
0.13
0.18
0.28
0.37
0.37
0.25
0.01
-0.29
-0.58
-0.78
-0.80
-0.59
-0.16
0.39
0.90
1.21
1.24
1.00
0.59
0.15
-0.22
-0.47
-0.59
-0.60
-0.50
-0.32
-0.09
0.11
0.22
0.20
0.08
-0.07
-0.20
-0.29
-0.35
-0.40
-0.44
-0.44
-0.37
-0.22
-0.01
0.21
0.36
0.40
0.30
0.10
-0.15
-0.37
-0.51
-0.56
-0.55
-0.53
-0.48
-0.37
-0.14
0.20
0.56
0.79
0.77
0.47
0.02
-0.37
-0.52
-0.36
0.02
0.43
0.66
0.62
0.31
-0.13
-0.55
-0.83
-0.90
-0.78
-0.52
-0.20
0.11
0.38
0.59
0.73
0.78
0.72
0.58
0.39
0.24
0.22
0.37
0.67
1.00
1.21
1.22
1.00
0.66
0.30
0.05
-0.03
0.02
0.15
0.25
0.26
0.15
-0.05
-0.27
-0.41
-0.40
-0.22
0.03
0.22
0.24
0.04
-0.30
-0.66
-0.88
-0.92
-0.78
-0.56
-0.33
-0.13
0.02
0.14
0.21
0.24
0.21
0.15
0.10
0.10
0.16
0.26
0.38
0.48
0.57
0.61
0.56
0.37
0.02
-0.47
-0.98
-1.39
-1.56
-1.45
-1.14
-0.75
-0.42
-0.20
-0.07
0.02
0.12
0.26
0.39
0.45
0.41
0.26
0.06
-0.12
-0.19
-0.14
0.03
0.21
0.32
0.30
0.16
-0.05
-0.21
-0.28
-0.26
-0.20
-0.19
-0.32
-0.57
-0.93
-1.29
-1.60
-1.77
-1.79
-1.62
-1.27
-0.80
-0.29
0.11
0.29
0.20
-0.10
-0.47
-0.75
-0.82
-0.67
-0.41
-0.17
-0.04
0.01
0.06
0.22
0.54
0.97
1.39
1.66
1.68
1.44
1.02
0.56
0.19
0.01
0.05
0.24
0.48
0.69
0.80
0.81
0.75
0.67
0.58
0.48
0.38
0.32
0.31
0.36
0.41
0.42
0.31
0.10
-0.13
-0.29
-0.32
-0.24
-0.13
-0.05
-0.03
-0.03
0.02
0.14
0.32
0.52
0.69
0.80
0.85
0.81
0.69
0.49
0.26
0.04
-0.13
-0.24
-0.34
-0.47
-0.62
-0.75
-0.76
-0.61
-0.35
-0.06
0.11
0.14
0.05
-0.08
-0.16
-0.18
-0.17
-0.17
-0.20
-0.25
-0.28
-0.26
-0.21
-0.13
-0.08
-0.05
-0.05
-0.09
-0.15
-0.24
-0.33
-0.38
-0.32
-0.15
0.14
0.48
0.80
1.01
1.06
0.97
0.75
0.50
0.26
0.08
-0.00
0.01
0.10
0.25
0.44
0.61
0.72
0.73
0.65
0.50
0.30
0.09
-0.12
-0.32
-0.52
-0.69
-0.81
-0.86
-0.84
-0.75
-0.65
-0.57
-0.58
-0.70
-0.88
-1.02
-1.04
-0.89
-0.62
-0.32
-0.12
-0.03
-0.02
-0.01
0.05
0.15
0.24
0.30
0.32
0.37
0.52
0.76
1.05
1.29
1.40
1.37
1.24
1.09
0.95
0.81
0.65
0.45
0.21
0.02
-0.08
-0.07
-0.01
0.02
-0.05
-0.22
-0.46
-0.65
-0.72
-0.66
-0.54
-0.44
-0.44
-0.52
-0.60
-0.59
-0.46
-0.24
-0.02
0.11
0.15
0.11
0.06
0.05
0.05
0.03
-0.02
-0.11
-0.18
-0.17
-0.08
0.09
0.31
0.53
0.76
0.97
1.12
1.15
0.98
0.58
-0.03
-0.73
-1.33
-1.66
-1.60
-1.17
-0.51
0.17
0.62
0.73
0.48
0.02
-0.46
-0.80
-0.89
-0.72
-0.39
-0.02
0.28
0.43
0.45
0.35
0.18
-0.02
-0.23
-0.47
-0.70
-0.89
-1.00
-0.98
-0.82
-0.56
-0.27
-0.04
0.09
0.12
0.10
0.10
0.15
0.23
0.30
0.32
0.30
0.28
0.34
0.52
0.79
1.06
1.21
1.19
1.02
0.75
0.46
0.22
0.05
-0.05
-0.09
-0.08
-0.03
0.05
0.15
0.27
0.36
0.39
0.34
0.20
-0.01
-0.22
-0.37
-0.41
-0.33
-0.15
0.09
0.34
0.53
0.62
0.59
0.42
0.17
-0.11
-0.36
-0.53
-0.60
-0.57
-0.49
-0.39
-0.33
-0.29
-0.27
-0.22
-0.12
0.01
0.12
0.16
0.13
0.09
0.12
0.27
0.52
0.75
0.86
0.77
0.54
0.27
0.10
0.08
0.17
0.28
0.32
0.27
0.15
0.04
-0.00
0.00
0.03
0.03
-0.03
-0.14
-0.28
-0.39
-0.45
-0.41
-0.26
0.00
0.30
0.53
0.55
0.31
-0.12
-0.59
-0.91
-0.99
-0.83
-0.59
-0.39
-0.34
-0.41
-0.55
-0.69
-0.82
-0.94
-1.07
-1.18
-1.21
-1.08
-0.79
-0.38
0.02
0.30
0.39
0.29
0.10
-0.06
-0.08
0.09
0.38
0.66
0.82
0.77
0.56
0.31
0.20
0.31
0.62
0.98
1.20
1.18
0.94
0.61
0.34
0.22
0.24
0.29
0.27
0.14
-0.08
-0.26
-0.32
-0.23
-0.07
0.04
0.02
-0.13
-0.31
-0.40
-0.33
-0.14
0.04
0.07
-0.11
-0.48
-0.89
-1.18
-1.27
-1.16
-0.95
-0.78
-0.74
-0.80
-0.88
-0.85
-0.61
-0.18
0.32
0.74
0.94
0.90
0.68
0.43
0.26
0.22
0.30
0.39
0.42
0.35
0.18
-0.01
-0.12
-0.13
-0.02
0.17
0.36
0.54
0.69
0.78
0.80
0.69
0.43
0.06
-0.33
-0.61
-0.72
-0.66
-0.50
-0.33
-0.15
0.04
0.27
0.50
0.65
0.62
0.39
0.02
-0.34
-0.57
-0.57
-0.38
-0.07
0.26
0.53
0.69
0.70
0.54
0.21
-0.24
-0.72
-1.12
-1.34
-1.33
-1.10
-0.70
-0.19
0.34
0.80
1.11
1.24
1.15
0.90
0.56
0.25
0.06
0.06
0.24
0.48
0.65
0.63
0.41
0.08
-0.21
-0.33
-0.28
-0.15
-0.10
-0.19
-0.41
-0.61
-0.64
-0.46
-0.11
0.27
0.50
0.54
0.40
0.22
0.09
0.07
0.14
0.23
0.28
0.28
0.22
0.15
0.08
0.03
-0.03
-0.08
-0.14
-0.19
-0.22
-0.23
-0.22
-0.22
-0.27
-0.39
-0.57
-0.78
-0.95
-1.01
-0.93
-0.72
-0.44
-0.17
0.03
0.15
0.22
0.30
0.41
0.55
0.65
0.65
0.51
0.23
-0.09
-0.34
-0.40
-0.24
0.06
0.34
0.44
0.30
0.01
-0.26
-0.35
-0.18
0.16
0.50
0.64
0.51
0.17
-0.21
-0.46
-0.52
-0.42
-0.30
-0.26
-0.34
-0.48
-0.58
-0.60
-0.54
-0.50
-0.56
-0.74
-1.00
-1.23
-1.35
-1.31
-1.16
-0.98
-0.83
-0.73
-0.67
-0.59
-0.48
-0.35
-0.25
-0.18
-0.13
-0.07
0.08
0.34
0.68
1.05
1.36
1.56
1.62
1.55
1.42
1.28
1.17
1.10
1.02
0.88
0.63
0.29
-0.07
-0.39
-0.60
-0.72
-0.75
-0.74
-0.68
-0.52
-0.25
0.12
0.51
0.82
0.93
0.85
0.63
0.38
0.21
0.18
0.30
0.53
0.79
0.98
1.00
0.79
0.36
-0.19
-0.71
-1.03
-1.08
-0.87
-0.52
-0.16
0.12
0.29
0.36
0.34
0.20
-0.04
-0.34
-0.58
-0.65
-0.50
-0.21
0.04
0.10
-0.09
-0.42
-0.71
-0.78
-0.58
-0.23
0.10
0.28
0.27
0.16
0.08
0.11
0.26
0.43
0.53
0.48
0.31
0.12
-0.01
-0.03
0.03
0.09
0.09
0.04
-0.00
0.05
0.23
0.50
0.76
0.93
0.93
0.79
0.56
0.28
0.02
-0.19
-0.34
-0.41
-0.39
-0.30
-0.20
-0.12
-0.08
-0.06
-0.05
-0.04
-0.05
-0.09
-0.15
-0.23
-0.27
-0.28
-0.28
-0.31
-0.40
-0.54
-0.69
-0.79
-0.80
-0.74
-0.64
-0.54
-0.47
-0.41
-0.35
-0.28
-0.20
-0.07
0.13
0.39
0.71
0.98
1.10
0.96
0.58
0.10
-0.30
-0.48
-0.42
-0.23
-0.05
0.02
-0.00
-0.04
-0.03
0.05
0.13
0.14
0.05
-0.08
-0.17
-0.15
-0.02
0.17
0.35
0.45
0.46
0.37
0.21
0.03
-0.11
-0.15
-0.09
0.02
0.09
0.05
-0.09
-0.24
-0.29
-0.17
0.10
0.39
0.59
0.61
0.52
0.43
0.43
0.55
0.67
0.66
0.43
0.02
-0.40
-0.64
-0.58
-0.26
0.13
0.39
0.38
0.13
-0.23
-0.49
-0.54
-0.38
-0.13
0.06
0.10
0.01
-0.16
-0.30
-0.34
-0.28
-0.17
-0.06
0.02
0.07
0.11
0.16
0.23
0.30
0.34
0.33
0.26
0.14
0.00
-0.13
-0.26
-0.37
-0.47
-0.54
-0.58
-0.57
-0.51
-0.41
-0.29
-0.15
0.02
0.22
0.41
0.52
0.50
0.33
0.06
-0.17
-0.28
-0.23
-0.06
0.10
0.20
0.21
0.18
0.15
0.16
0.18
0.18
0.12
0.01
-0.15
-0.30
-0.41
-0.40
-0.24
0.07
0.45
0.77
0.87
0.73
0.39
0.01
-0.27
-0.38
-0.38
-0.34
-0.33
-0.35
-0.36
-0.33
-0.27
-0.23
-0.25
-0.32
-0.38
-0.33
-0.15
0.14
0.42
0.58
0.56
0.39
0.13
-0.14
-0.35
-0.50
-0.58
-0.60
-0.53
-0.35
-0.06
0.29
0.61
0.83
0.91
0.87
0.76
0.66
0.57
0.50
0.44
0.36
0.29
0.23
0.23
0.24
0.24
0.17
0.01
-0.24
-0.52
-0.76
-0.89
-0.88
-0.73
-0.50
-0.27
-0.15
-0.17
-0.33
-0.52
-0.65
-0.64
-0.49
-0.27
-0.07
0.04
0.04
-0.01
-0.08
-0.14
-0.21
-0.32
-0.47
-0.63
-0.73
-0.70
-0.54
-0.30
-0.05
0.13
0.23
0.27
0.30
0.38
0.53
0.72
0.93
1.11
1.22
1.26
1.22
1.11
0.93
0.69
0.41
0.08
-0.25
-0.56
-0.77
-0.86
-0.79
-0.60
-0.36
-0.14
0.00
0.06
0.06
0.02
-0.03
-0.09
-0.19
-0.30
-0.42
-0.51
-0.52
-0.45
-0.30
-0.07
0.17
0.38
0.52
0.55
0.48
0.34
0.20
0.07
-0.02
-0.09
-0.15
-0.20
-0.18
-0.07
0.12
0.36
0.54
0.59
0.50
0.29
0.05
-0.16
-0.28
-0.32
-0.32
-0.30
-0.31
-0.35
-0.42
-0.47
-0.49
-0.44
-0.33
-0.17
0.02
0.18
0.30
0.37
0.37
0.33
0.24
0.12
-0.02
-0.16
-0.29
-0.39
-0.45
-0.45
-0.40
-0.30
-0.19
-0.07
0.03
0.12
0.21
0.32
0.44
0.53
0.57
0.51
0.37
0.21
0.09
0.08
0.21
0.42
0.62
0.74
0.75
0.69
0.59
0.48
0.37
0.24
0.08
-0.05
-0.08
0.02
0.21
0.40
0.45
0.31
0.03
-0.29
-0.56
-0.73
-0.84
-0.93
-1.05
-1.15
-1.16
-1.02
-0.74
-0.38
-0.04
0.23
0.38
0.46
0.51
0.57
0.64
0.70
0.71
0.65
0.52
0.36
0.20
0.13
0.18
0.35
0.56
0.71
0.69
0.48
0.16
-0.16
-0.35
-0.39
-0.34
-0.29
-0.28
-0.26
-0.15
0.11
0.47
0.80
0.97
0.94
0.78
0.60
0.47
0.36
0.21
-0.05
-0.41
-0.78
-1.06
-1.14
-1.03
-0.77
-0.44
-0.13
0.11
0.24
0.25
0.15
0.02
-0.08
-0.11
-0.09
-0.06
-0.05
-0.06
-0.03
0.04
0.13
0.21
0.21
0.14
0.05
0.01
0.08
0.20
0.30
0.27
0.09
-0.17
-0.38
-0.46
-0.42
-0.31
-0.25
-0.29
-0.41
-0.52
-0.52
-0.38
-0.11
0.20
0.43
0.51
0.41
0.18
-0.11
-0.36
-0.53
-0.58
-0.55
-0.46
-0.36
-0.24
-0.11
0.02
0.11
0.12
0.04
-0.12
-0.29
-0.38
-0.36
-0.25
-0.12
-0.02
-0.01
-0.04
-0.07
-0.04
0.05
0.16
0.25
0.27
0.20
0.08
-0.06
-0.20
-0.31
-0.38
-0.38
-0.31
-0.19
-0.05
0.10
0.23
0.31
0.33
0.29
0.19
0.05
-0.08
-0.18
-0.23
-0.25
-0.27
-0.34
-0.43
-0.52
-0.55
-0.48
-0.30
-0.06
0.19
0.39
0.49
0.49
0.39
0.25
0.12
0.03
0.00
0.04
0.13
0.23
0.32
0.35
0.32
0.24
0.12
0.03
-0.00
0.05
0.17
0.32
0.42
0.44
0.35
0.18
-0.02
-0.18
-0.28
-0.33
-0.36
-0.41
-0.48
-0.53
-0.53
-0.44
-0.32
-0.24
-0.26
-0.39
-0.57
-0.74
-0.83
-0.82
-0.73
-0.55
-0.28
0.06
0.42
0.71
0.89
0.96
0.98
1.01
1.07
1.14
1.15
1.06
0.91
0.77
0.71
0.75
0.85
0.89
0.80
0.58
0.27
-0.04
-0.30
-0.53
-0.71
-0.82
-0.80
-0.55
-0.06
0.58
1.19
1.56
1.54
1.16
0.57
-0.00
-0.34
-0.37
-0.16
0.11
0.29
0.26
0.06
-0.19
-0.34
-0.29
-0.03
0.35
0.71
0.94
0.98
0.85
0.62
0.37
0.14
-0.05
-0.19
-0.27
-0.30
-0.26
-0.19
-0.11
-0.09
-0.14
-0.27
-0.44
-0.57
-0.60
-0.49
-0.24
0.05
0.27
0.35
0.26
0.05
-0.20
-0.38
-0.44
-0.39
-0.29
-0.19
-0.14
-0.11
-0.07
0.00
0.08
0.13
0.09
-0.04
-0.21
-0.33
-0.32
-0.15
0.14
0.48
0.75
0.86
0.74
0.40
-0.05
-0.48
-0.77
-0.85
-0.77
-0.65
-0.63
-0.79
-1.13
-1.53
-1.85
-1.99
-1.90
-1.64
-1.30
-0.98
-0.73
-0.58
-0.50
-0.43
-0.33
-0.17
0.05
0.30
0.54
0.72
0.82
0.82
0.74
0.59
0.39
0.18
-0.00
-0.10
-0.08
0.07
0.28
0.43
0.43
0.24
-0.07
-0.35
-0.46
-0.33
-0.05
0.23
0.38
0.34
0.17
-0.01
-0.13
-0.17
-0.20
-0.26
-0.36
-0.45
-0.44
-0.30
-0.04
0.23
0.42
0.46
0.32
0.03
-0.37
-0.79
-1.13
-1.26
-1.13
-0.77
-0.28
0.17
0.46
0.54
0.49
0.41
0.40
0.48
0.65
0.83
0.98
1.02
0.93
0.69
0.30
-0.17
-0.64
-1.00
-1.13
-1.02
-0.70
-0.29
0.09
0.31
0.29
0.05
-0.32
-0.69
-0.93
-0.97
-0.80
-0.51
-0.17
0.12
0.34
0.46
0.47
0.32
-0.04
-0.59
-1.26
-1.91
-2.43
-2.77
-2.96
-3.14
-3.41
-3.86
-4.48
-5.18
-5.84
-6.36
-6.70
-6.86
-6.95
-7.11
-7.49
-8.15
-9.01
-9.86
-10.44
-10.61
-10.46
-10.25
-10.34
-10.97
-12.10
-13.44
-14.57
-15.21
-15.40
-15.54
-16.23
-17.98
-20.95
-24.81
-28.85
-32.25
-34.49
-35.55
-35.98
-36.69
-38.52
-41.89
-46.55
-51.77
-56.56
-60.14
-62.18
-62.89
-62.90
-63.10
-64.51
-68.00
-73.79
-80.88
-86.73
-87.60
-79.72
-60.89
-31.78
3.91
40.59
72.78
97.03
112.81
122.14
128.23
133.98
141.09
149.91
159.89
170.19
180.00
188.72
195.95
201.47
205.34
207.87
209.66
211.50
214.18
218.35
224.30
231.68
239.18
244.53
244.76
237.02
219.48
192.00
156.05
113.99
68.06
19.74
-29.94
-79.51
-126.29
-166.42
-196.03
-212.77
-216.98
-211.61
-200.95
-188.90
-177.75
-167.95
-158.88
-149.77
-140.44
-131.25
-122.71
-115.04
-108.01
-101.21
-94.24
-87.04
-79.86
-73.16
-67.36
-62.61
-58.74
-55.30
-51.77
-47.81
-43.42
-38.90
-34.75
-31.37
-28.90
-27.16
-25.76
-24.27
-22.46
-20.34
-18.18
-16.35
-15.15
-14.73
-15.03
-15.85
-16.88
-17.86
-18.59
-19.06
-19.41
-19.89
-20.73
-22.06
-23.75
-25.53
-27.08
-28.26
-29.16
-30.02
-30.96
-31.84
-32.27
-31.93
-30.93
-29.86
-29.57
-30.63
-32.91
-35.58
-37.56
-38.21
-37.88
-37.93
-40.12
-45.53
-53.73
-62.59
-69.00
-70.22
-65.29
-55.66
-44.79
-36.78
-34.81
-40.09
-51.84
-68.04
-86.29
-104.06
-118.58
-126.90
-126.54
-116.82
-100.04
-81.40
-67.26
-62.21
-66.62
-75.94
-82.36
-78.25
-59.38
-26.64
14.77
57.79
96.38
127.37
150.55
167.44
179.72
188.14
192.46
192.36
188.50
182.91
178.47
177.66
181.41
188.50
196.11
201.11
201.53
197.41
190.70
184.32
180.85
181.55
185.97
192.14
197.19
197.82
190.86
173.71
145.05
105.64
58.79
10.05
-34.13
-68.43
-90.35
-100.91
-103.76
-103.24
-102.47
-102.41
-102.27
-100.77
-97.42
-92.81
-88.17
-84.39
-81.34
-78.04
-73.36
-66.91
-59.32
-52.05
-46.53
-43.40
-42.25
-41.83
-40.74
-38.07
-33.83
-28.83
-24.23
-20.91
-19.10
-18.27
-17.46
-15.77
-12.80
-8.81
-4.66
-1.28
0.70
1.38
1.49
2.11
4.06
7.52
11.89
16.06
19.00
20.32
20.46
20.55
21.80
24.89
29.58
34.76
39.09
41.56
42.07
41.39
40.83
41.64
44.64
50.14
57.90
66.87
74.86
78.53
74.15
59.11
33.48
0.58
-33.85
-63.92
-85.75
-98.74
-104.95
-107.42
-108.31
-108.26
-106.85
-103.86
-100.10
-97.20
-96.71
-99.10
-103.45
-107.93
-110.64
-110.47
-107.26
-101.71
-95.01
-88.34
-82.49
-77.44
-72.20
-64.77
-52.68
-33.80
-7.52
24.70
59.39
92.11
118.93
137.70
148.34
152.34
151.60
147.42
140.23
129.96
116.85
101.92
87.00
74.03
64.25
57.72
53.27
49.30
44.54
38.49
31.56
24.71
18.85
14.54
11.92
10.94
11.59
13.96
17.99
23.25
28.89
33.84
37.38
39.62
41.50
44.49
49.97
58.70
70.52
84.13
96.89
104.91
103.72
89.63
61.56
22.24
-21.97
-63.00
-93.94
-111.40
-116.31
-112.66
-105.12
-97.00
-89.48
-82.30
-74.99
-67.78
-61.57
-57.22
-54.81
-53.50
-52.00
-49.30
-45.26
-40.57
-36.39
-33.66
-32.62
-32.75
-33.02
-32.40
-30.37
-27.04
-23.07
-19.35
-16.57
-14.99
-14.43
-14.36
-14.20
-13.56
-12.32
-10.66
-8.91
-7.40
-6.30
-5.60
-5.12
-4.63
-3.96
-3.10
-2.13
-1.23
-0.53
-0.06
0.16
0.18
0.03
-0.24
-0.54
-0.76
-0.76
-0.48
0.07
0.77
1.49
2.15
2.74
3.29
3.85
4.39
4.83
5.02
4.84
4.22
3.20
1.95
0.69
-0.34
-0.97
-1.15
-1.01
-0.78
-0.69
-0.89
-1.36
-1.94
-2.42
-2.67
-2.64
-2.39
-2.08
-1.83
-1.74
-1.84
-2.13
-2.53
-2.93
-3.23
-3.35
-3.27
-3.03
-2.72
-2.43
-2.20
-2.04
-1.91
-1.76
-1.49
-1.04
-0.37
0.47
1.32
1.88
1.88
1.19
-0.10
-1.66
-3.07
-4.01
-4.44
-4.62
-4.95
-5.78
-7.20
-8.93
-10.57
-11.76
-12.50
-13.16
-14.30
-16.40
-19.50
-23.15
-26.59
-29.11
-30.44
-30.91
-31.33
-32.66
-35.53
-39.92
-45.16
-50.15
-53.97
-56.16
-57.00
-57.37
-58.35
-60.91
-65.60
-72.56
-81.26
-90.28
-97.06
-98.17
-90.24
-71.41
-42.54
-7.40
28.50
59.87
83.50
98.97
107.93
112.55
114.18
112.93
108.32
100.30
89.90
79.03
69.67
