1660333391.00
64.000000
-0.00
-0.00
-0.00
-0.00
-0.00
-0.00
-0.00
-0.00
-0.00
-0.00
0.00
0.01
0.01
-0.00
-0.03
-0.05
-0.05
0.00
0.13
0.36
0.66
1.01
1.37
1.72
2.06
2.40
2.79
3.24
3.80
4.42
5.06
5.67
6.20
6.68
7.14
7.67
8.32
9.18
10.15
11.10
11.89
12.44
12.82
13.22
13.88
15.00
16.83
19.15
21.68
24.08
26.15
27.95
29.84
32.28
35.65
40.33
45.95
51.91
57.53
62.42
66.61
70.67
75.41
81.47
89.42
98.67
108.25
117.03
124.28
130.06
135.15
141.21
147.23
155.59
166.73
180.37
194.83
206.86
212.12
206.33
186.72
152.97
107.73
54.61
-2.70
-61.74
-121.51
-181.81
-242.23
-301.63
-358.35
-410.51
-457.30
-498.57
-534.54
-565.17
-589.85
-607.36
-615.72
-612.39
-594.19
-558.46
-503.77
-431.17
-344.70
-250.75
-156.57
-68.28
10.25
77.75
134.43
180.97
217.81
245.19
263.59
274.22
278.90
279.50
277.34
272.81
265.60
255.18
241.42
224.90
206.84
188.76
171.94
157.10
144.23
132.82
122.18
111.77
101.42
91.31
81.79
73.12
65.34
58.26
51.60
45.12
38.70
32.36
26.21
20.40
15.06
10.40
6.44
3.15
0.44
-1.73
-3.37
-4.36
-4.63
-4.20
-3.32
-2.42
-1.98
-2.31
-3.45
-5.15
-7.00
-8.65
-9.90
-10.73
-11.24
-11.45
-11.32
-10.71
-9.58
-7.99
-6.21
-4.62
-3.49
-2.97
-2.93
-3.12
-3.24
-3.18
-2.97
-2.78
-2.76
-2.93
-3.21
-3.44
-3.53
-3.49
-3.38
-3.23
-2.97
-2.46
-1.58
-0.35
1.04
2.27
3.03
3.12
2.58
1.58
0.40
-0.74
-1.71
-2.49
-3.14
-3.69
-4.12
-4.31
-4.16
-3.60
-2.70
-1.64
-0.68
-0.02
0.25
0.20
-0.04
-0.32
-0.51
-0.57
-0.50
-0.33
-0.13
0.07
0.25
0.40
0.56
0.75
1.04
1.50
2.22
3.26
4.60
6.11
7.55
8.58
8.93
8.41
7.07
5.10
2.86
0.62
-1.40
-3.08
-4.41
-5.40
-6.06
-6.35
-6.24
-5.77
-5.12
-4.51
-4.16
-4.18
-4.50
-4.90
-5.17
-5.15
-4.86
-4.42
-3.99
-3.65
-3.41
-3.26
-3.18
-3.17
-3.23
-3.27
-3.10
-2.52
-1.40
0.19
1.95
3.46
4.32
4.36
3.65
2.45
1.10
-0.16
-1.21
-2.06
-2.72
-3.21
-3.50
-3.53
-3.28
-2.78
-2.10
-1.31
-0.50
0.24
0.82
1.14
1.13
0.76
0.09
-0.78
-1.69
-2.52
-3.22
-3.84
-4.46
-5.13
-5.73
-6.02
-5.66
-4.32
-1.83
1.66
5.69
9.56
12.61
14.34
14.60
13.50
11.34
8.45
5.15
1.75
-1.41
-3.92
-5.40
-5.62
-4.60
-2.65
-0.24
2.08
3.90
5.03
5.48
5.42
5.04
4.51
3.91
3.30
2.67
1.93
0.98
-0.38
-2.31
-4.86
-7.91
-11.11
-13.97
-16.01
-16.95
-16.79
-15.82
-14.45
-13.08
-11.94
-11.08
-10.48
-10.09
-9.90
-9.93
-10.09
-10.23
-10.07
-9.38
-8.05
-6.13
-3.85
-1.49
0.73
2.67
4.33
5.77
7.11
8.41
9.68
10.83
11.70
12.12
11.98
11.32
10.28
9.12
8.15
7.65
7.84
8.85
10.64
13.03
15.69
18.19
20.10
21.10
21.04
19.91
17.86
15.07
11.71
8.00
4.19
0.56
-2.59
-5.01
-6.61
-7.41
-7.57
-7.33
-6.91
-6.53
-6.28
-6.23
-6.38
-6.70
-7.19
-7.82
-8.61
-9.58
-10.71
-11.95
-13.18
-14.15
-14.57
-14.14
-12.69
-10.23
-6.97
-3.27
0.48
3.93
6.83
8.96
10.19
10.41
9.64
8.08
6.03
3.90
2.03
0.66
-0.12
-0.31
-0.01
0.62
1.34
1.93
2.22
2.20
1.96
1.70
1.55
1.50
1.41
1.05
0.24
-1.09
-2.86
-4.85
-6.74
-8.20
-8.90
-8.62
-7.30
-5.07
-2.25
0.75
3.44
5.48
6.66
6.96
6.51
5.51
4.19
2.75
1.39
0.29
-0.39
-0.54
-0.22
0.33
0.81
0.91
0.52
-0.24
-1.11
-1.82
-2.29
-2.62
-3.05
-3.78
-4.87
-6.23
-7.62
-8.79
-9.48
-9.43
-8.46
-6.47
-3.54
0.01
3.64
6.76
8.90
9.86
9.74
8.82
7.41
5.74
3.94
2.11
0.42
-0.94
-1.75
-1.94
-1.59
-0.95
-0.32
0.07
0.16
0.05
-0.13
-0.25
-0.33
-0.45
-0.72
-1.22
-1.92
-2.75
-3.63
-4.52
-5.36
-6.03
-6.33
-5.99
-4.75
-2.55
0.43
3.80
7.05
9.74
11.58
12.47
12.45
11.66
10.29
8.51
6.55
4.60
2.90
1.63
0.91
0.76
1.07
1.62
2.14
2.42
2.34
1.94
1.34
0.67
0.03
-0.58
-1.18
-1.79
-2.43
-3.12
-3.90
-4.82
-5.84
-6.78
-7.31
-7.07
-5.82
-3.59
-0.69
2.36
5.06
7.05
8.23
8.62
8.31
7.33
5.76
3.67
1.32
-0.96
-2.79
-3.90
-4.23
-3.91
-3.22
-2.49
-1.94
-1.69
-1.74
-1.98
-2.30
-2.60
-2.84
-3.07
-3.37
-3.85
-4.58
-5.57
-6.74
-7.90
-8.81
-9.14
-8.63
-7.09
-4.53
-1.20
2.42
5.78
8.38
9.91
10.32
9.76
8.49
6.77
4.78
2.70
0.71
-0.95
-2.06
-2.51
-2.34
-1.77
-1.06
-0.46
-0.08
0.11
0.16
0.13
-0.03
-0.40
-1.06
-2.05
-3.27
-4.59
-5.85
-6.88
-7.56
-7.74
-7.26
-6.03
-4.02
-1.38
1.60
4.54
7.09
9.02
10.21
10.64
10.30
9.20
7.34
4.89
2.12
-0.51
-2.55
-3.72
-3.97
-3.52
-2.73
-1.98
-1.52
-1.43
-1.60
-1.87
-2.06
-2.06
-1.88
-1.64
-1.57
-1.87
-2.67
-3.95
-5.48
-6.85
-7.62
-7.41
-6.04
-3.59
-0.37
3.16
6.49
9.18
10.99
11.83
11.78
10.99
9.62
7.82
5.80
3.78
2.02
0.70
-0.10
-0.44
-0.50
-0.44
-0.38
-0.36
-0.39
-0.48
-0.69
-1.05
-1.57
-2.20
-2.87
-3.56
-4.35
-5.32
-6.52
-7.83
-9.01
-9.72
-9.67
-8.71
-6.91
-4.45
-1.64
1.22
3.83
5.97
7.47
8.24
8.25
7.54
6.19
4.32
2.17
0.02
-1.80
-3.00
-3.48
-3.33
-2.81
-2.26
-1.90
-1.81
-1.87
-1.88
-1.68
-1.17
-0.41
0.44
1.16
1.50
1.21
0.15
-1.68
-4.00
-6.33
-8.06
-8.59
-7.61
-5.14
-1.61
2.33
6.00
8.89
10.71
11.43
11.09
9.82
7.77
5.19
2.44
0.00
-1.65
-2.21
-1.67
-0.30
1.43
3.02
4.15
4.71
4.78
4.50
3.96
3.20
2.23
1.05
-0.25
-1.62
-3.02
-4.49
-6.03
-7.57
-8.82
-9.39
-8.91
-7.25
-4.64
-1.58
1.28
3.40
4.53
4.69
4.12
3.12
1.90
0.60
-0.68
-1.82
-2.65
-3.01
-2.80
-2.06
-1.01
0.11
1.05
1.68
1.99
2.06
1.95
1.69
1.22
0.48
-0.59
-2.03
-3.82
-5.94
-8.26
-10.58
-12.54
-13.75
-13.85
-12.69
-10.34
-7.12
-3.45
0.23
3.55
6.26
8.13
9.05
9.01
8.12
6.60
4.79
3.05
1.68
0.85
0.61
0.86
1.41
2.08
2.71
3.20
3.53
3.65
3.52
3.08
2.28
1.16
-0.19
-1.63
-3.09
-4.53
-5.90
-7.08
-7.80
-7.75
-6.66
-4.53
-1.60
1.62
4.58
6.90
8.39
9.11
9.22
8.88
8.22
7.30
6.24
5.15
4.17
3.42
2.90
2.54
2.22
1.80
1.18
0.35
-0.66
-1.74
-2.79
-3.70
-4.44
-5.03
-5.57
-6.18
-6.99
-8.04
-9.28
-10.56
-11.62
-12.18
-11.96
-10.72
-8.38
-5.03
-0.95
3.40
7.51
10.90
13.20
14.22
13.94
12.47
10.05
7.00
3.73
0.66
-1.83
-3.52
-4.35
-4.43
-4.01
-3.35
-2.68
-2.11
-1.64
-1.23
-0.81
-0.39
-0.01
0.22
0.14
-0.41
-1.50
-3.09
-4.95
-6.68
-7.81
-7.90
-6.73
-4.35
-1.10
2.51
5.93
8.71
10.58
11.46
11.47
10.80
9.67
8.30
6.82
5.33
3.91
2.68
1.72
1.11
0.84
0.76
0.67
0.34
-0.32
-1.29
-2.43
-3.54
-4.45
-5.08
-5.44
-5.60
-5.65
-5.68
-5.71
-5.69
-5.54
-5.14
-4.34
-3.04
-1.20
1.09
3.67
6.24
8.52
10.22
11.17
11.26
10.52
9.03
6.93
4.41
1.77
-0.66
-2.55
-3.64
-3.86
-3.32
-2.27
-1.00
0.18
1.10
1.66
1.86
1.75
1.39
0.83
0.08
-0.92
-2.18
-3.72
-5.42
-7.09
-8.40
-8.97
-8.56
-7.12
-4.85
-2.13
0.66
3.18
5.30
6.99
8.22
8.90
8.89
8.03
6.32
4.01
1.53
-0.63
-2.08
-2.66
-2.48
-1.83
-1.07
-0.51
-0.33
-0.51
-0.94
-1.39
-1.71
-1.83
-1.77
-1.68
-1.70
-1.98
-2.54
-3.30
-4.09
-4.65
-4.75
-4.14
-2.76
-0.66
1.92
4.63
7.10
9.04
10.29
10.79
10.59
9.76
8.38
6.56
4.48
2.36
0.47
-0.95
-1.76
-1.96
-1.69
-1.12
-0.47
0.14
0.64
1.02
1.25
1.29
1.06
0.46
-0.54
-1.94
-3.65
-5.54
-7.45
-9.15
-10.40
-10.92
-10.49
-8.99
-6.53
-3.37
0.07
3.34
6.07
8.01
9.04
9.16
8.44
7.02
5.11
2.97
0.87
-0.92
-2.21
-2.94
-3.17
-3.08
-2.92
-2.89
-3.05
-3.35
-3.61
-3.69
-3.55
-3.31
-3.21
-3.48
-4.24
-5.44
-6.87
-8.19
-9.07
-9.24
-8.55
-7.00
-4.71
-1.95
0.95
3.65
5.83
7.34
8.09
8.12
7.46
6.22
4.47
2.38
0.21
-1.72
-3.07
-3.64
-3.46
-2.75
-1.88
-1.19
-0.85
-0.87
-1.11
-1.45
-1.84
-2.28
-2.84
-3.59
-4.55
-5.75
-7.11
-8.49
-9.63
-10.19
-9.87
-8.52
-6.21
-3.20
0.09
3.29
6.05
8.16
9.46
9.85
9.29
7.87
5.81
3.47
1.23
-0.55
-1.66
-2.09
-2.00
-1.67
-1.36
-1.22
-1.29
-1.48
-1.67
-1.79
-1.86
-2.03
-2.44
-3.25
-4.49
-6.04
-7.59
-8.70
-8.87
-7.70
-5.10
-1.34
3.00
7.17
10.48
12.53
13.21
12.65
11.12
8.89
6.24
3.41
0.70
-1.56
-3.14
-3.89
-3.88
-3.29
-2.41
-1.45
-0.55
0.24
0.93
1.52
1.96
2.19
2.09
1.61
0.71
-0.60
-2.23
-3.98
-5.56
-6.58
-6.68
-5.59
-3.29
-0.04
3.69
7.28
10.18
12.03
12.70
12.28
11.00
9.13
6.92
4.62
2.47
0.71
-0.45
-0.94
-0.84
-0.41
0.05
0.27
0.18
-0.12
-0.41
-0.52
-0.38
-0.11
0.07
-0.12
-0.88
-2.29
-4.29
-6.63
-8.91
-10.61
-11.24
-10.45
-8.20
-4.80
-0.78
3.22
6.67
9.26
10.87
11.51
11.24
10.18
8.46
6.34
4.09
2.03
0.36
-0.84
-1.58
-1.97
-2.07
-2.01
-1.87
-1.78
-1.82
-2.03
-2.38
-2.82
-3.31
-3.91
-4.71
-5.83
-7.24
-8.75
-9.96
-10.43
-9.78
-7.90
-4.92
-1.26
2.58
6.12
8.98
10.96
11.94
11.91
10.89
9.02
6.53
3.75
1.10
-1.08
-2.54
-3.22
-3.26
-2.93
-2.53
-2.27
-2.23
-2.29
-2.29
-2.08
-1.65
-1.15
-0.78
-0.78
-1.27
-2.29
-3.73
-5.38
-6.92
-7.95
-8.08
-6.98
-4.63
-1.30
2.45
5.97
8.66
10.20
10.56
9.89
8.48
6.58
4.44
2.25
0.23
-1.39
-2.43
-2.82
-2.68
-2.26
-1.88
-1.74
-1.92
-2.25
-2.51
-2.47
-2.08
-1.50
-1.02
-0.97
-1.54
-2.72
-4.30
-5.91
-7.13
-7.56
-6.93
-5.12
-2.26
1.29
5.02
8.36
10.86
12.30
12.69
12.19
11.02
9.36
7.36
5.19
3.04
1.20
-0.08
-0.67
-0.58
-0.02
0.73
1.43
1.92
2.19
2.31
2.35
2.38
2.39
2.38
2.33
2.27
2.22
2.11
1.85
1.31
0.45
-0.61
-1.59
-2.15
-2.01
-1.12
0.35
2.05
3.57
4.62
5.06
4.93
4.37
3.51
2.46
1.27
-0.06
-1.49
-2.90
-4.11
-4.94
-5.33
-5.35
-5.21
-5.10
-5.12
-5.19
-5.10
-4.62
-3.67
-2.32
-0.85
0.40
1.08
1.00
0.12
-1.38
-3.14
-4.67
-5.47
-5.20
-3.79
-1.49
1.21
3.79
5.77
6.92
7.21
6.74
5.65
4.11
2.30
0.49
-1.03
-1.98
-2.20
-1.77
-0.95
-0.14
0.31
0.22
-0.35
-1.21
-2.08
-2.80
-3.31
-3.71
-4.14
-4.73
-5.54
-6.61
-7.89
-9.21
-10.32
-10.80
-10.27
-8.44
-5.33
-1.29
3.08
7.15
10.42
12.67
13.93
14.34
14.04
13.09
11.53
9.45
7.10
4.84
3.02
1.86
1.34
1.26
1.32
1.26
0.97
0.48
-0.11
-0.70
-1.24
-1.75
-2.29
-2.91
-3.66
-4.58
-5.70
-7.02
-8.46
-9.86
-10.94
-11.33
-10.70
-8.84
-5.85
-2.13
1.67
4.88
7.06
8.06
8.04
7.30
6.12
4.66
2.94
1.06
-0.83
-2.42
-3.43
-3.72
-3.38
-2.72
-2.13
-1.91
-2.19
-2.87
-3.68
-4.37
-4.76
-4.86
-4.81
-4.85
-5.16
-5.85
-6.88
-8.06
-9.15
-9.85
-9.92
-9.24
-7.78
-5.64
-2.99
-0.08
2.84
5.49
7.61
8.99
9.51
9.18
8.13
6.57
4.78
3.01
1.52
0.52
0.14
0.38
1.06
1.88
2.46
2.54
2.04
1.12
0.07
-0.84
-1.48
-1.90
-2.26
-2.80
-3.68
-4.94
-6.44
-7.84
-8.71
-8.59
-7.20
-4.53
-0.94
2.96
6.50
9.20
10.82
11.42
11.19
10.28
8.76
6.70
4.27
1.80
-0.29
-1.65
-2.15
-1.96
-1.44
-0.95
-0.70
-0.71
-0.90
-1.14
-1.38
-1.60
-1.85
-2.14
-2.53
-3.12
-4.01
-5.25
-6.76
-8.22
-9.17
-9.12
-7.73
-5.03
-1.39
2.58
6.18
8.88
10.46
10.99
10.76
10.06
9.07
7.85
6.39
4.70
2.92
1.33
0.24
-0.13
0.23
1.12
2.20
3.14
3.72
3.88
3.71
3.30
2.73
2.01
1.13
0.08
-1.09
-2.35
-3.64
-4.92
-6.12
-7.11
-7.68
-7.54
-6.48
-4.43
-1.57
1.72
4.90
7.53
9.28
10.04
9.85
8.86
7.21
5.06
2.61
0.10
-2.15
-3.79
-4.59
-4.45
-3.53
-2.15
-0.68
0.64
1.70
2.51
3.13
3.51
3.53
3.07
2.12
0.82
-0.61
-1.93
-3.03
-3.90
-4.55
-4.91
-4.77
-3.85
-1.96
0.83
4.16
7.45
10.13
11.83
12.48
12.29
11.61
10.78
9.95
9.17
8.45
7.92
7.77
8.22
9.31
10.85
12.42
13.47
13.66
13.04
11.97
10.93
10.21
9.80
9.35
8.41
6.40
3.00
-1.77
-7.55
-13.82
-19.96
-25.35
-29.37
-31.63
-32.25
-31.67
-30.46
-29.09
-27.91
-27.08
-26.65
-26.53
-26.61
-27.10
-28.04
-29.24
-30.30
-30.85
-30.84
-30.60
-30.64
-29.34
-25.69
-19.58
-11.93
-3.95
3.50
10.01
15.36
19.48
22.46
24.14
24.47
23.57
21.82
19.70
17.75
16.35
15.72
15.86
16.31
16.54
16.21
15.40
14.43
13.65
13.27
13.26
13.30
12.65
10.77
7.52
3.33
-1.03
-4.68
-7.02
-7.89
-7.61
-6.87
-6.25
-6.28
-6.58
-6.65
-6.06
-4.62
-2.24
1.10
5.44
10.76
16.29
20.92
23.41
23.11
20.37
16.43
12.79
10.45
9.42
8.81
7.58
5.10
1.56
-2.24
-5.44
-7.67
-9.14
-10.35
-11.75
-13.31
-14.61
-15.14
-14.63
-13.23
-11.48
-10.04
-9.34
-9.50
-10.21
-10.95
-11.24
-10.84
-9.80
-8.40
-7.07
-6.01
-5.30
-4.89
-4.56
-4.07
-3.17
-1.67
0.49
3.18
6.06
8.64
10.44
11.17
10.85
9.72
8.14
6.36
4.47
2.47
0.32
-1.84
-3.74
-5.05
-5.56
-5.33
-4.65
-3.95
-3.66
-4.01
-5.01
-6.47
-8.06
-9.51
-10.65
-11.52
-12.31
-13.27
-14.60
-16.37
-18.45
-20.52
-22.08
-22.58
-21.59
-18.91
-14.69
-9.39
-3.67
1.78
6.39
9.82
11.93
12.73
12.36
11.04
9.07
6.79
4.56
2.69
1.45
0.96
1.18
1.92
2.84
3.54
3.70
3.16
2.02
0.55
-0.91
-2.16
-3.15
-4.05
-5.08
-6.40
-7.99
-9.63
-10.95
-11.58
-11.22
-9.80
-7.42
-4.36
-0.98
2.37
5.38
7.88
9.75
10.90
11.25
10.71
9.27
7.02
4.30
1.59
-0.57
-1.76
-1.85
-1.00
0.37
1.80
2.90
3.50
3.62
3.41
3.14
2.97
3.02
3.30
3.74
4.28
4.89
5.63
6.56
7.64
8.78
9.79
10.53
11.02
11.44
12.02
12.92
14.17
15.62
17.13
18.60
20.03
21.48
22.97
24.37
25.48
26.00
25.64
24.19
21.55
17.83
13.39
8.85
4.92
2.17
0.84
0.67
1.05
1.28
0.80
-0.62
-2.94
-5.97
-9.47
-13.14
-16.60
-19.35
-20.89
-20.90
-19.37
-16.71
-13.50
-10.32
-7.54
-5.26
-3.40
-1.87
-0.58
0.58
1.80
3.44
5.90
9.55
14.45
20.29
26.34
31.57
34.93
35.65
33.55
29.13
23.43
17.67
12.86
9.47
7.37
5.99
4.63
2.70
-0.01
-3.39
-6.97
-10.18
-12.47
-13.49
-13.21
-11.92
-10.16
-8.50
-7.43
-7.19
-7.82
-9.15
-10.90
-12.72
-14.27
-15.24
-15.38
-14.57
-12.87
-10.47
-7.71
-5.02
-2.78
-1.28
-0.63
-0.79
-1.59
-2.81
-4.29
-5.90
-7.56
-9.18
-10.65
-11.78
-12.31
-12.02
-10.79
-8.68
-5.97
-3.07
-0.40
1.74
3.23
4.11
4.49
4.44
3.94
2.98
1.62
0.05
-1.41
-2.43
-2.74
-2.19
-0.76
1.55
4.77
9.01
14.45
21.16
28.92
36.97
44.05
48.64
49.41
45.70
37.87
27.14
15.30
4.12
-5.09
-11.62
-15.35
-16.52
-15.60
-13.16
-9.86
-6.40
-3.42
-1.36
-0.34
-0.16
-0.47
-0.89
-1.17
-1.26
-1.28
-1.47
-2.05
-3.18
-4.95
-7.33
-10.20
-13.28
-16.20
-18.58
-20.15
-20.82
-20.77
-20.36
-19.93
-19.75
-19.89
-20.29
-20.83
-21.39
-21.88
-22.17
-22.05
-21.25
-19.54
-16.87
-13.46
-9.77
-6.37
-3.66
-1.79
-0.59
0.25
1.01
1.76
2.37
2.64
2.42
1.76
0.92
0.27
0.15
0.70
1.82
3.25
4.70
6.03
7.37
9.09
11.68
15.55
20.84
27.32
34.36
40.99
46.06
48.45
47.36
42.61
34.81
25.23
15.58
7.47
2.02
-0.42
-0.19
1.91
4.97
8.20
11.04
13.12
14.24
14.32
13.43
11.68
9.23
6.21
2.75
-1.07
-5.12
-9.26
-13.33
-17.24
-20.91
-24.25
-27.09
-29.20
-30.32
-30.36
-29.49
-28.08
-26.63
-25.54
-24.96
-24.84
-24.98
-25.19
-25.40
-25.63
-25.90
-26.10
-25.98
-25.17
-23.36
-20.45
-16.66
-12.48
-8.50
-5.20
-2.78
-1.17
-0.11
0.70
1.45
2.20
2.89
3.48
3.87
4.08
4.13
4.12
4.17
4.46
5.15
6.35
8.00
9.95
11.99
13.95
15.85
17.89
20.42
23.72
27.84
32.48
37.01
40.67
42.82
43.25
42.29
40.80
39.97
40.87
44.06
49.27
55.32
60.41
62.52
60.02
52.05
38.82
21.56
2.31
-16.45
-32.36
-43.66
-49.60
-50.58
-47.91
-43.29
-38.32
-34.06
-30.94
-28.97
-28.00
-27.85
-28.33
-29.15
-29.92
-30.23
-29.83
-28.75
-27.32
-25.97
-25.08
-24.87
-25.33
-26.29
-27.50
-28.69
-29.62
-30.17
-30.40
-30.52
-30.83
-31.47
-32.29
-32.75
-32.11
-29.67
-25.06
-18.34
-10.03
-0.87
8.32
16.80
24.04
29.73
33.90
36.90
39.21
41.27
43.22
44.94
46.13
46.64
46.54
46.04
45.35
44.45
43.15
41.27
38.78
35.75
32.23
27.98
22.43
14.93
5.06
-7.01
-20.39
-33.63
-45.12
-53.54
-58.16
-59.00
-56.68
-52.13
-46.22
-39.48
-32.11
-24.16
-15.86
-7.78
-0.78
4.33
7.21
8.13
7.91
7.55
7.96
9.59
12.46
16.11
19.92
23.20
25.40
26.15
25.33
23.16
20.12
16.90
14.16
12.39
11.85
12.47
13.63
14.56
14.49
12.97
10.06
5.96
1.19
-3.63
-7.95
-11.78
-15.29
-18.48
-21.09
-22.42
-22.21
-20.39
-17.03
-12.48
-7.76
-3.89
-1.46
-0.57
-0.63
-1.68
-3.83
-7.15
-11.65
-17.93
-26.26
-36.20
-46.65
-55.89
-63.37
-69.19
-73.66
-72.61
-63.64
-47.55
-28.27
-13.39
-3.42
2.60
5.75
8.07
10.66
13.45
15.91
17.56
18.25
18.70
19.01
19.22
19.48
19.73
19.25
17.32
13.72
8.93
4.27
0.49
-1.95
-2.71
-1.52
1.44
5.87
11.38
17.66
24.51
31.29
37.24
41.81
44.90
46.54
46.89
46.20
44.80
43.06
40.96
38.15
33.29
25.80
16.22
5.97
-3.67
-12.02
-18.80
-23.70
-26.37
-26.39
-23.55
-18.38
-12.15
-6.48
-2.52
-0.81
-0.58
-0.98
-1.42
-1.62
-1.71
-1.96
-2.65
-3.82
-5.32
-6.88
-8.27
-9.05
-8.53
-6.12
-0.84
7.04
16.30
25.23
32.29
36.62
38.34
38.28
37.34
36.00
33.94
30.59
25.50
18.86
11.39
4.16
-1.83
-6.07
-8.59
-9.97
-10.80
-11.45
-11.87
-11.79
-10.96
-9.42
-7.55
-5.96
-5.22
-5.59
-6.92
-8.71
-10.46
-11.80
-12.71
-13.40
-14.19
-15.34
-16.93
-18.83
-20.84
-22.75
-24.31
-25.22
-25.09
-23.48
-20.09
-14.93
-8.42
-1.30
5.56
11.41
15.82
18.68
20.16
20.54
20.12
19.16
17.93
16.70
15.65
14.87
14.26
13.61
12.70
11.43
9.86
8.23
6.82
5.76
5.02
4.32
3.34
1.85
-0.16
-2.48
-4.78
-6.80
-8.44
-9.84
-11.35
-13.36
-16.17
-19.88
-24.28
-28.89
-32.96
-35.58
-35.85
-33.14
-27.30
-18.82
-8.82
1.28
10.15
16.88
21.20
23.39
24.04
23.76
22.95
21.84
20.51
19.04
17.57
16.22
15.09
14.14
13.22
12.11
10.65
8.78
6.63
4.44
2.47
0.90
-0.29
-1.29
-2.39
-3.89
-5.89
-8.30
-10.87
-13.33
-15.48
-17.31
-19.01
-20.87
-23.16
-26.06
-29.57
-33.53
-37.56
-41.05
-43.23
-43.27
-40.51
-34.76
-26.42
-16.45
-6.12
3.41
11.32
17.33
21.56
24.32
25.91
26.52
26.31
25.44
24.18
22.75
21.35
20.00
18.60
16.99
15.12
13.05
10.94
9.01
7.36
6.00
4.83
3.73
2.57
1.28
-0.15
-1.74
-3.50
-5.42
-7.48
-9.65
-11.83
-13.92
-15.85
-17.60
-19.24
-20.91
-22.83
-25.19
-28.12
-31.62
-35.45
-39.17
-42.08
-43.33
-42.11
-37.93
-30.77
-21.28
-10.57
0.01
9.30
16.63
21.84
25.24
27.28
28.35
28.68
28.35
27.43
26.04
24.42
22.80
21.34
20.05
18.80
17.42
15.75
13.73
11.42
8.98
6.56
4.35
2.37
0.58
-1.14
-2.94
-4.93
-7.15
-9.56
-12.07
-14.59
-17.00
-19.22
-21.21
-23.06
-25.00
-27.33
-30.33
-34.04
-38.11
-41.72
-43.66
-42.72
-38.05
-29.55
-18.00
-4.87
8.06
19.27
27.83
33.46
36.50
37.50
37.11
35.85
34.11
32.21
30.35
28.63
27.03
25.49
23.93
22.29
20.54
18.67
16.61
14.37
11.99
9.60
7.38
5.41
3.66
1.95
0.02
-2.34
-5.15
-8.30
-11.55
-14.67
-17.54
-20.17
-22.67
-25.18
-27.84
-30.77
-34.08
-37.84
-41.91
-45.87
-48.91
-49.92
-47.82
-41.98
-32.52
-20.35
-6.97
6.04
17.42
26.54
33.32
38.04
41.02
42.53
42.71
41.73
39.87
37.55
35.20
33.11
31.37
29.81
28.17
26.16
23.71
20.94
18.17
15.70
13.68
11.98
10.30
8.27
5.68
2.60
-0.64
-3.60
-5.94
-7.57
-8.71
-9.75
-11.15
-13.20
-15.93
-19.12
-22.40
-25.35
-27.73
-29.54
-31.07
-32.83
-35.33
-38.93
-43.61
-48.89
-53.87
-57.30
-57.92
-54.69
-47.20
-35.81
-21.65
-6.36
8.29
20.88
30.57
37.22
41.15
42.98
43.28
42.54
41.11
39.23
37.15
35.05
33.06
31.21
29.43
27.63
25.73
23.76
21.81
19.98
18.28
16.65
14.94
13.01
10.80
8.37
5.87
3.50
1.39
-0.45
-2.15
-3.93
-5.99
-8.45
-11.23
-14.09
-16.74
-18.95
-20.70
-22.18
-23.78
-25.91
-28.84
-32.56
-36.67
-40.39
-42.63
-42.25
-38.38
-30.78
-19.98
-7.21
5.89
17.76
27.28
33.97
37.90
39.52
39.40
38.04
35.91
33.38
30.80
28.45
26.45
24.83
23.44
22.11
20.67
19.03
17.18
15.20
13.16
11.11
9.07
7.01
4.89
2.65
0.28
-2.27
-5.01
-7.94
-11.02
-14.17
-17.25
-20.17
-22.82
-25.23
-27.53
-29.96
-32.78
-36.20
-40.31
-44.96
-49.71
-53.76
-56.03
-55.40
-51.07
-42.90
-31.53
-18.30
-4.81
7.57
17.97
26.16
32.26
36.58
39.34
40.70
40.84
40.04
38.67
37.09
35.51
33.97
32.34
30.43
28.15
25.55
22.81
20.21
17.93
16.05
14.40
12.73
10.75
8.29
5.41
2.31
-0.72
-3.47
-5.89
-8.10
-10.32
-12.80
-15.68
-18.96
-22.48
-25.99
-29.20
-31.94
-34.20
-36.19
-38.32
-41.07
-44.82
-49.58
-54.86
-59.60
-62.36
-61.70
-56.63
-47.01
-33.65
-18.14
-2.39
11.89
23.63
32.49
38.69
42.76
45.21
46.40
46.55
45.85
44.51
42.81
40.98
39.16
37.33
35.35
33.11
30.57
27.87
25.22
22.83
20.77
18.92
17.05
14.87
12.24
9.21
5.98
2.86
0.02
-2.48
-4.83
-7.28
-10.08
-13.30
-16.83
-20.39
-23.72
-26.62
-29.08
-31.30
-33.64
-36.51
-40.20
-44.75
-49.75
-54.33
-57.22
-57.10
-53.00
-44.65
-32.70
-18.55
-4.00
9.30
20.22
28.33
33.77
37.02
38.59
38.89
38.20
36.73
34.75
32.60
30.65
29.18
28.29
27.84
27.51
26.92
25.76
23.94
21.57
18.91
16.26
13.77
11.40
8.98
6.28
3.13
-0.48
-4.41
-8.44
-12.31
-15.83
-18.94
-21.74
-24.44
-27.37
-30.85
-35.15
-40.37
-46.36
-52.54
-57.83
-60.71
-59.61
-53.43
-42.11
-26.85
-9.82
6.56
20.37
30.70
37.72
42.18
44.88
46.28
46.48
45.50
43.59
41.23
39.04
37.45
36.48
35.79
34.85
33.29
31.03
28.38
25.79
23.66
22.10
20.89
19.57
17.67
14.92
11.35
7.32
3.31
-0.27
-3.22
-5.69
-8.01
-10.61
-13.77
-17.49
-21.50
-25.37
-28.71
-31.35
-33.42
-35.35
-37.72
-41.06
-45.71
-51.59
-58.17
-64.37
-68.66
-69.35
-65.05
-55.23
-40.55
-22.84
-4.60
11.75
24.65
33.68
39.39
42.80
44.79
45.79
45.84
44.89
43.10
40.94
38.95
37.49
36.54
35.76
34.65
32.93
30.64
28.14
25.92
24.26
23.19
22.39
21.40
19.73
17.15
13.68
9.63
5.47
1.66
-1.49
-3.99
-6.11
-8.31
-10.99
-14.34
-18.25
-22.34
-26.14
-29.32
-31.81
-33.84
-35.85
-38.33
-41.66
-46.06
-51.38
-57.08
-62.13
-65.09
-64.46
-59.12
-48.86
-34.59
-18.20
-1.95
12.19
23.12
30.70
35.48
38.22
39.51
39.64
38.74
36.99
34.75
32.52
30.73
29.57
28.92
28.43
27.74
26.69
25.35
23.97
22.76
21.73
20.66
19.22
17.20
14.63
11.80
9.06
6.63
4.39
2.01
-0.93
-4.60
-8.85
-13.22
-17.21
-20.54
-23.27
-25.77
-28.57
-32.16
-36.81
-42.56
-49.13
-55.76
-61.18
-63.69
-61.64
-54.09
-41.34
-25.07
-7.83
7.81
20.19
28.89
34.54
38.16
40.53
41.93
42.23
41.35
39.49
37.17
35.00
33.38
32.35
31.65
30.90
29.84
28.40
26.71
24.99
23.40
21.99
20.71
19.46
18.09
16.49
14.54
12.14
9.26
6.00
2.57
-0.74
-3.66
-6.12
-8.23
-10.29
-12.67
-15.59
-19.09
-22.93
-26.75
-30.23
-33.15
-35.55
-37.69
-39.93
-42.70
-46.35
-51.09
-56.77
-62.80
-67.97
-70.64
-69.09
-62.17
-49.84
-33.42
-15.23
2.13
16.62
27.34
34.53
39.08
42.00
43.85
44.76
44.59
43.36
41.38
39.20
37.34
36.03
35.13
34.28
33.11
31.47
29.48
27.46
25.75
24.51
23.64
22.88
21.87
20.28
17.97
14.94
11.42
7.74
4.28
1.28
-1.20
-3.33
-5.45
-7.88
-10.81
-14.21
-17.82
-21.30
-24.33
-26.79
-28.72
-30.41
-32.22
-34.53
-37.65
-41.76
-46.81
-52.39
-57.64
-61.21
-61.56
-57.39
-48.23
-34.75
-18.74
-2.53
11.76
22.82
30.46
35.24
38.02
39.48
39.92
39.40
38.04
36.17
34.24
32.69
31.67
31.07
30.57
29.86
28.77
27.39
25.94
24.66
23.65
22.78
21.75
20.17
17.77
14.57
10.89
7.21
4.02
1.48
-0.59
-2.67
-5.28
-8.74
-12.95
-17.47
-21.70
-25.20
-27.86
-29.94
-32.00
-34.63
-38.30
-43.20
-49.14
-55.47
-61.10
-64.62
-64.55
-59.85
-50.33
-36.86
-21.22
-5.57
8.24
19.12
26.97
32.33
35.98
38.49
40.11
40.85
40.72
39.85
38.56
37.17
35.91
34.84
33.87
32.85
31.63
30.17
28.49
26.70
24.94
23.29
21.70
20.04
18.09
15.71
12.88
9.69
6.36
3.09
-0.00
-2.86
-5.48
-7.89
-10.17
-12.43
-14.84
-17.54
-20.60
-23.93
-27.31
-30.47
-33.24
-35.65
-37.90
-40.36
-43.47
-47.57
-52.71
-58.55
-64.17
-68.16
-68.88
-65.00
-55.95
-42.34
-25.85
-8.72
6.91
19.63
28.97
35.28
39.27
41.61
42.69
42.68
41.75
40.18
38.38
36.75
35.53
34.67
33.93
33.00
31.71
30.05
28.19
26.35
24.74
23.40
22.26
21.11
19.69
17.76
15.24
12.20
8.90
5.66
2.79
0.37
-1.78
-4.00
-6.66
-9.92
-13.64
-17.43
-20.84
-23.56
-25.58
-27.18
-28.79
-30.82
-33.52
-36.99
-41.15
-45.74
-50.23
-53.70
-54.94
-52.69
-46.16
-35.42
-21.56
-6.47
7.82
19.74
28.60
34.56
38.24
40.27
41.02
40.65
39.27
37.20
34.95
33.10
31.96
31.51
31.35
31.02
30.14
28.63
26.68
24.63
22.79
21.26
19.96
18.65
17.01
14.82
11.96
8.50
4.67
0.84
-2.64
-5.54
-7.91
-10.05
-12.42
-15.39
-19.06
-23.15
-27.13
-30.49
-32.96
-34.72
-36.27
-38.25
-41.17
-45.30
-50.59
-56.60
-62.52
-67.11
-68.88
-66.44
-58.97
-46.67
-30.89
-13.77
2.41
15.93
26.04
32.92
37.32
40.01
41.53
42.08
41.76
40.76
39.41
38.09
37.07
36.39
35.84
35.13
34.04
32.53
30.75
28.92
27.22
25.74
24.43
23.12
21.68
19.97
17.96
15.68
13.19
10.57
7.86
5.06
2.17
-0.78
-3.68
-6.42
-8.93
-11.27
-13.62
-16.24
-19.23
-22.57
-26.01
-29.22
-31.97
-34.26
-36.32
-38.55
-41.39
-45.14
-49.85
-55.15
-60.16
-63.60
-63.92
-59.86
-50.93
-37.72
-21.93
-5.82
8.49
19.67
27.44
32.34
35.27
36.99
37.88
38.05
37.48
36.33
34.89
33.52
32.44
31.65
30.93
30.02
28.77
27.17
25.45
23.90
22.77
22.11
21.72
21.23
20.20
18.31
15.50
11.97
8.15
4.52
1.40
-1.16
-3.37
-5.64
-8.34
-11.63
-15.37
-19.16
-22.52
-25.17
-27.09
-28.64
-30.34
-32.72
-36.13
-40.63
-45.90
-51.20
-55.37
-56.98
-54.70
-47.74
-36.34
-21.75
-6.04
8.63
20.63
29.28
34.83
38.02
39.62
40.11
39.65
38.33
36.38
34.25
32.46
31.34
30.87
30.64
30.12
28.90
26.93
24.54
22.22
20.39
19.14
18.26
17.33
15.99
14.02
11.45
8.43
5.18
1.92
-1.17
-3.96
-6.45
-8.77
-11.17
-13.95
-17.31
-21.19
-25.27
-29.11
-32.31
-34.69
-36.46
-38.11
-40.30
-43.59
-48.29
-54.20
-60.59
-66.16
-69.32
-68.52
-62.76
-52.00
-37.31
-20.63
-4.17
10.16
21.31
29.12
34.12
37.09
38.64
39.15
38.78
37.71
36.22
34.70
33.47
32.61
31.96
31.21
30.06
28.43
26.47
24.52
22.93
21.87
21.23
20.61
19.50
17.53
14.63
11.13
7.59
4.57
2.33
0.72
-0.76
-2.71
-5.54
-9.22
-13.37
-17.41
-20.87
-23.58
-25.71
-27.72
-30.17
-33.55
-38.15
-43.87
-50.14
-55.81
-59.30
-59.03
-53.93
-44.00
-30.39
-15.13
-0.42
12.10
21.72
28.65
33.48
36.79
38.80
39.54
39.06
37.68
35.98
34.54
33.63
33.09
32.51
31.44
29.70
27.48
25.23
23.41
22.24
21.58
20.96
19.84
17.80
14.79
11.13
7.43
4.27
1.98
0.44
-0.82
-2.47
-4.97
-8.45
-12.57
-16.77
-20.46
-23.34
-25.44
-27.14
-29.00
-31.57
-35.27
-40.21
-46.10
-52.05
-56.64
-58.18
-55.20
-47.13
-34.59
-19.39
-3.89
9.78
20.34
27.66
32.35
35.30
37.14
38.08
38.11
37.27
35.83
34.24
32.89
31.96
31.29
30.53
29.35
27.56
25.26
22.70
20.22
18.11
16.45
15.17
14.02
12.67
10.84
8.34
5.21
1.64
-2.03
-5.47
-8.47
-11.02
-13.33
-15.74
-18.62
-22.26
-26.77
-32.06
-37.80
-43.35
-47.77
-49.89
-48.58
-43.20
-33.91
-21.79
-8.56
3.96
14.46
22.41
28.00
31.77
34.18
35.40
35.42
34.29
32.25
29.79
27.43
25.47
23.87
22.32
20.41
17.88
14.77
11.37
8.14
5.46
3.47
2.02
0.65
-1.17
-3.81
-7.36
-11.50
-15.64
-19.16
-21.69
-23.23
-24.25
-25.45
-27.54
-30.95
-35.69
-41.23
-46.66
-50.74
-52.23
-50.12
-43.97
-34.14
-21.80
-8.66
3.55
13.59
20.94
25.85
28.93
30.75
31.58
31.43
30.29
28.35
26.07
23.99
22.43
21.35
20.40
19.14
17.34
15.08
12.68
10.52
8.79
7.44
6.19
4.67
2.57
-0.25
-3.75
-7.66
-11.56
-15.00
-17.70
-19.68
-21.32
-23.23
-26.02
-30.06
-35.33
-41.34
-47.14
-51.46
-52.90
-50.30
-43.19
-32.03
-18.27
-3.91
9.14
19.60
27.09
31.89
34.55
35.50
34.96
33.11
30.33
27.28
24.72
23.15
22.57
22.49
22.20
21.10
19.03
16.33
13.62
11.48
10.16
9.45
8.77
7.41
4.90
1.17
-3.33
-7.89
-11.83
-14.79
-16.88
-18.58
-20.53
-23.32
-27.29
-32.45
-38.37
-44.15
-48.40
-49.53
-46.24
-38.06
-25.71
-11.01
3.72
16.44
26.03
32.43
36.29
38.44
39.43
39.42
38.35
36.26
33.44
30.39
27.60
25.35
23.62
22.16
20.65
18.86
16.75
14.45
12.15
10.00
8.05
6.22
4.36
2.30
-0.15
-3.11
-6.61
-10.56
-14.69
-18.67
-22.15
-24.97
-27.25
-29.36
-31.84
-35.20
-39.80
-45.68
-52.43
-59.00
-63.80
-64.93
-60.85
-51.05
-36.39
-19.03
-1.67
13.36
24.80
32.63
37.65
40.81
42.74
43.61
43.39
42.19
40.35
38.40
36.74
35.45
34.30
32.89
30.93
28.45
25.76
23.37
21.69
20.84
20.51
20.08
18.87
16.44
12.86
8.65
4.56
1.26
-1.04
-2.63
-4.18
-6.38
-9.61
-13.79
-18.44
-22.95
-26.84
-29.94
-32.41
-34.70
-37.30
-40.76
-45.47
-51.51
-58.46
-65.17
-69.80
-70.30
-65.08
-53.78
-37.59
-18.99
-0.89
14.33
25.52
32.82
37.20
39.75
41.17
41.66
41.16
39.67
37.40
34.79
32.29
30.17
28.44
26.93
25.34
23.50
21.35
19.01
16.71
14.67
12.99
11.64
10.41
9.02
7.19
4.76
1.71
-1.83
-5.60
-9.32
-12.77
-15.84
-18.54
-21.00
-23.43
-26.05
-29.16
-33.03
-37.80
-43.17
-48.21
-51.40
-51.02
-45.79
-35.51
-21.38
-5.64
9.20
21.21
29.61
34.67
37.31
38.48
38.70
38.09
36.58
34.24
31.37
28.48
26.04
24.27
23.06
22.05
20.81
19.05
16.75
14.13
11.51
9.19
7.25
5.61
3.99
2.06
-0.42
-3.60
-7.37
-11.43
-15.33
-18.65
-21.16
-22.97
-24.53
-26.47
-29.40
-33.74
-39.54
-46.38
-53.33
-58.93
-61.47
-59.40
-51.92
-39.40
-23.45
-6.47
9.15
21.74
30.72
36.47
39.85
41.65
42.33
42.06
40.91
39.09
36.97
34.91
33.13
31.61
30.10
28.29
26.06
23.53
21.08
19.16
18.05
17.67
17.61
17.22
15.94
13.53
10.19
6.42
2.82
-0.20
-2.57
-4.56
-6.64
-9.22
-12.51
-16.41
-20.60
-24.65
-28.19
-31.07
-33.42
-35.62
-38.22
-41.81
-46.77
-53.00
-59.67
-65.15
-67.39
-64.52
-55.62
-41.28
-23.46
-4.90
11.82
25.10
34.60
40.94
45.13
47.96
49.84
50.91
51.29
51.29
51.30
51.59
52.08
52.31
51.65
49.56
45.93
41.19
36.18
31.82
28.72
26.97
26.14
25.49
24.38
22.53
20.16
17.80
15.90
14.51
13.13
10.89
6.95
0.91
-6.89
-15.53
-23.83
-30.86
-36.21
-40.12
-43.27
-46.41
-50.15
-54.77
-60.24
-66.26
-72.21
-77.13
-79.80
-79.07
-74.24
-65.41
-53.60
-40.39
-27.30
-15.23
-4.22
6.22
16.43
26.09
33.97
38.33
37.72
31.73
21.49
9.26
-2.45
-11.82
-18.15
-21.70
-23.26
-23.58
-23.03
-21.43
-18.55
-14.70
-10.92
-8.46
-8.15
-10.00
-13.28
-16.93
-19.57
-20.30
-19.14
-16.91
-14.62
-12.81
-11.36
-9.84
-7.78
-4.24
1.66
10.32
21.48
34.48
48.58
62.90
76.39
84.22
82.11
69.29
49.52
28.14
9.10
-5.81
-16.40
-23.37
-27.84
-30.13
-30.10
-27.65
-23.20
-17.62
-11.94
-7.19
-3.61
-1.62
-0.74
-0.12
0.83
2.07
3.12
3.41
2.53
0.46
-2.67
-6.16
-9.05
-10.55
-10.26
-8.13
-4.29
0.00
3.94
6.79
8.26
8.51
8.04
7.63
8.14
10.25
14.17
19.54
25.19
29.59
31.28
29.24
23.24
13.94
2.72
-8.69
-18.49
-25.46
-29.02
-29.33
-27.11
-23.33
-19.05
-15.19
-12.51
-11.38
-11.84
-13.42
-15.14
-15.69
-13.79
-8.76
-0.83
8.84
18.59
26.85
32.72
36.22
38.02
38.98
39.62
39.89
39.39
37.69
34.74
31.02
27.36
24.68
23.61
24.41
26.95
30.93
35.88
41.23
46.35
50.66
53.91
56.24
58.22
60.45
63.09
65.59
66.78
65.43
60.89
53.42
43.97
33.59
22.96
12.28
1.61
-8.65
-17.65
-24.44
-28.60
-30.69
-32.13
-34.61
-39.31
-46.44
-55.22
-64.37
-72.54
-78.68
-82.15
-82.67
-80.37
-75.82
-70.03
-64.29
-59.91
-57.96
-58.95
-62.73
-68.46
-74.69
-79.60
-81.34
-78.60
-71.07
-59.59
-45.95
-32.24
-20.16
-10.50
-3.13
2.67
7.60
11.96
15.58
18.10
19.31
19.35
18.60
17.43
16.01
14.26
11.97
9.10
5.87
2.76
0.30
-1.19
-1.76
-1.71
-1.43
-1.25
-1.28
-1.40
-1.38
-1.03
-0.28
0.76
2.06
3.65
5.49
7.48
9.48
11.33
12.92
14.25
15.42
16.97
19.52
23.43
28.64
34.82
41.62
48.63
55.28
60.67
63.98
64.53
61.84
56.14
48.71
41.64
36.94
35.47
36.55
38.90
41.37
43.14
44.15
45.13
46.94
49.79
52.62
50.25
38.88
18.33
-8.41
-37.47
-66.15
-92.81
-115.53
-131.56
-137.86
-134.36
-120.57
-98.47
-72.51
-47.67
-27.45
-12.57
-1.91
6.01
12.51
17.94
22.21
25.24
27.50
30.10
34.45
40.92
48.39
55.07
59.34
59.86
55.77
46.99
32.50
14.55
-1.90
-12.10
-14.82
-12.82
-10.78
-12.34
-18.14
-25.87
-31.71
-33.16
-30.52
-26.21
-23.12
-22.91
-25.58
-29.59
-32.60
-32.13
-26.81
-16.89
-4.08
9.21
21.01
30.06
35.92
38.88
39.74
39.00
36.62
32.20
25.04
16.19
7.04
-1.01
-6.95
-10.43
-12.01
-12.75
-13.69
-15.30
-17.25
-18.85
-19.40
-18.53
-16.38
-13.63
-11.24
-9.73
-9.22
-9.22
-9.07
-8.18
-6.33
-3.78
-1.23
0.50
0.85
-0.27
-2.34
-4.50
-5.88
-5.82
-4.12
-1.09
2.66
6.35
9.18
10.48
9.87
7.37
3.52
-0.64
-3.96
-5.55
-5.06
-2.81
0.56
4.33
7.95
10.94
12.97
13.78
13.17
11.06
7.71
3.70
-0.17
-3.21
-5.08
-5.90
-6.12
-6.28
-6.79
-7.78
-9.13
-10.58
-11.94
-13.16
-14.26
-15.32
-16.34
-17.21
-17.74
-17.73
-17.08
-15.85
-14.26
-12.55
-10.97
-9.71
-8.93
-8.73
-9.08
-9.77
-10.30
-9.96
-8.07
-4.20
1.59
8.67
16.11
22.88
28.17
31.55
32.97
32.69
31.11
28.64
25.74
22.76
20.05
17.90
16.48
15.75
15.49
15.24
14.52
12.94
10.38
7.04
3.33
-0.40
-3.96
-7.35
-10.67
-13.91
-16.91
-19.42
-21.30
-22.69
-24.00
-25.74
-28.22
-31.35
-34.61
-37.20
-38.27
-37.26
-33.96
-28.58
-21.66
-13.89
-6.03
1.27
7.50
12.39
15.86
18.00
19.01
19.15
18.70
17.95
17.12
16.39
15.83
15.41
15.08
14.77
14.46
14.16
13.90
13.67
13.40
12.97
12.21
11.02
9.36
7.27
4.91
2.43
-0.07
-2.53
-4.98
-7.54
-10.33
-13.47
-16.97
-20.64
-24.02
-26.47
-27.29
-25.93
-22.23
-16.46
-9.32
-1.66
5.66
12.03
17.11
20.84
23.28
24.62
25.10
24.97
24.51
23.97
23.59
23.50
23.76
24.22
24.65
24.70
24.04
22.50
20.13
17.19
14.00
10.81
7.69
4.57
1.37
-1.90
-5.09
-7.97
-10.35
-12.23
-13.79
-15.25
-16.81
-18.53
-20.36
-22.15
-23.80
-25.19
-26.18
-26.62
-26.31
-25.07
-22.86
-19.78
-16.15
-12.39
-8.93
-6.12
-4.11
-2.84
-2.11
-1.66
-1.29
-0.90
-0.52
-0.26
-0.27
-0.64
-1.36
-2.25
-3.02
-3.30
-2.81
-1.46
0.56
2.78
4.65
5.69
5.67
4.68
3.08
1.33
-0.16
-1.15
-1.62
-1.80
-2.06
-2.83
-4.51
-7.21
-10.70
-14.37
-17.38
-18.91
-18.37
-15.63
-10.94
-4.89
1.86
8.72
15.25
21.18
26.39
30.81
34.42
37.21
39.16
40.25
40.46
39.75
38.03
