1660927081.00
64.000000
-0.00
-0.00
-0.00
-0.00
-0.00
-0.00
-0.00
-0.00
-0.00
-0.00
0.00
0.01
0.01
-0.00
-0.03
-0.05
-0.05
0.00
0.13
0.36
0.66
1.01
1.37
1.72
2.06
2.40
2.79
3.25
3.81
4.44
5.09
5.73
6.33
6.91
7.54
8.28
9.14
10.21
11.39
12.56
13.62
14.56
15.45
16.48
17.84
19.66
22.12
25.01
28.05
30.99
33.71
36.33
39.19
42.70
47.13
52.78
59.26
66.05
72.67
78.88
84.89
91.22
98.54
107.21
117.58
129.01
140.74
152.04
162.65
172.89
183.52
195.76
207.99
222.06
238.29
256.76
276.59
295.37
309.29
313.95
305.80
283.42
248.53
204.48
155.53
105.31
56.05
8.69
-36.56
-79.61
-120.24
-158.21
-194.24
-229.64
-265.83
-303.36
-340.96
-375.37
-402.03
-416.75
-417.21
-404.11
-380.90
-352.42
-323.10
-295.60
-270.58
-247.42
-225.30
-203.90
-183.63
-165.09
-148.51
-133.52
-119.38
-105.44
-91.47
-77.78
-65.02
-53.79
-44.38
-36.61
-29.92
-23.61
-17.20
-10.53
-3.85
2.30
7.39
11.14
13.61
15.23
16.59
18.13
20.02
22.05
23.83
25.03
25.56
25.57
25.37
25.20
25.13
25.08
24.89
24.46
23.82
23.04
22.22
21.43
20.69
20.00
19.38
18.84
18.36
17.92
17.47
16.99
16.51
16.04
15.61
15.20
14.77
14.34
13.93
13.59
13.35
13.19
13.04
12.83
12.52
12.15
11.74
11.32
10.86
10.37
9.86
9.39
9.03
8.79
8.61
8.40
8.10
7.72
7.34
7.02
6.80
6.63
6.47
6.30
6.18
6.14
6.17
6.19
6.10
5.84
5.48
5.15
4.95
4.92
4.93
4.82
4.48
3.89
3.14
2.36
1.66
1.09
0.69
0.46
0.38
0.40
0.43
0.33
-0.04
-0.76
-1.79
-2.98
-4.11
-4.99
-5.49
-5.67
-5.69
-5.73
-5.93
-6.31
-6.77
-7.16
-7.40
-7.47
-7.43
-7.37
-7.32
-7.23
-7.06
-6.74
-6.30
-5.81
-5.33
-4.91
-4.54
-4.15
-3.69
-3.15
-2.57
-2.02
-1.56
-1.20
-0.94
-0.71
-0.45
-0.15
0.21
0.60
0.97
1.29
1.54
1.71
1.85
1.99
2.14
2.32
2.54
2.74
2.90
2.98
2.97
2.92
2.89
2.96
3.14
3.38
3.58
3.69
3.69
3.66
3.67
3.76
3.84
3.84
3.69
3.48
3.34
3.39
3.65
4.01
4.29
4.38
4.28
4.10
3.97
3.95
4.00
4.03
4.00
3.89
3.78
3.72
3.72
3.74
3.68
3.48
3.11
2.66
2.23
1.96
1.87
1.95
2.09
2.18
2.16
2.03
1.87
1.77
1.78
1.90
2.07
2.20
2.22
2.10
1.89
1.68
1.52
1.44
1.43
1.44
1.45
1.44
1.45
1.47
1.50
1.49
1.43
1.31
1.19
1.15
1.24
1.48
1.81
2.14
2.39
2.49
2.41
2.19
1.92
1.67
1.48
1.36
1.26
1.14
0.99
0.83
0.70
0.65
0.65
0.68
0.71
0.77
0.90
1.11
1.37
1.61
1.72
1.65
1.43
1.13
0.84
0.62
0.46
0.34
0.22
0.12
0.06
0.08
0.16
0.28
0.33
0.26
0.03
-0.34
-0.74
-1.06
-1.19
-1.12
-0.88
-0.57
-0.30
-0.08
0.12
0.37
0.74
1.25
1.84
2.41
2.84
3.06
3.06
2.88
2.63
2.40
2.30
2.35
2.54
2.78
2.98
3.06
3.00
2.84
2.65
2.51
2.43
2.38
2.29
2.14
1.96
1.82
1.79
1.87
1.99
2.03
1.92
1.70
1.49
1.44
1.64
2.06
2.52
2.81
2.80
2.49
2.01
1.56
1.27
1.16
1.16
1.12
0.91
0.47
-0.17
-0.93
-1.71
-2.41
-2.99
-3.46
-3.86
-4.25
-4.67
-5.09
-5.46
-5.69
-5.72
-5.52
-5.15
-4.63
-4.01
-3.34
-2.64
-1.97
-1.41
-1.00
-0.76
-0.64
-0.59
-0.55
-0.50
-0.43
-0.32
-0.11
0.24
0.73
1.30
1.81
2.18
2.41
2.54
2.66
2.84
3.06
3.26
3.38
3.36
3.21
2.93
2.57
2.16
1.77
1.48
1.36
1.43
1.61
1.77
1.78
1.57
1.17
0.69
0.27
-0.04
-0.25
-0.42
-0.63
-0.91
-1.22
-1.52
-1.73
-1.83
-1.83
-1.78
-1.76
-1.79
-1.90
-2.06
-2.19
-2.26
-2.24
-2.14
-1.98
-1.79
-1.54
-1.16
-0.63
0.04
0.75
1.34
1.70
1.76
1.59
1.33
1.12
1.05
1.11
1.22
1.30
1.32
1.29
1.26
1.26
1.28
1.27
1.16
0.91
0.52
0.00
-0.59
-1.21
-1.82
-2.37
-2.82
-3.13
-3.26
-3.16
-2.81
-2.20
-1.32
-0.20
1.11
2.56
4.06
5.51
6.73
7.53
7.79
7.45
6.58
5.33
3.83
2.24
0.66
-0.80
-2.00
-2.82
-3.21
-3.18
-2.84
-2.31
-1.70
-1.08
-0.49
0.01
0.38
0.62
0.80
0.98
1.22
1.46
1.61
1.58
1.38
1.07
0.79
0.57
0.42
0.26
0.03
-0.28
-0.62
-0.98
-1.32
-1.62
-1.85
-1.97
-1.94
-1.77
-1.55
-1.38
-1.36
-1.50
-1.75
-2.07
-2.40
-2.73
-3.01
-3.21
-3.28
-3.18
-2.96
-2.66
-2.36
-2.04
-1.65
-1.13
-0.47
0.27
0.98
1.59
2.10
2.59
3.12
3.69
4.19
4.46
4.40
3.99
3.30
2.47
1.62
0.80
0.10
-0.38
-0.56
-0.34
0.23
1.01
1.74
2.22
2.33
2.12
1.70
1.23
0.81
0.45
0.14
-0.14
-0.39
-0.59
-0.70
-0.69
-0.54
-0.28
0.02
0.24
0.30
0.15
-0.13
-0.43
-0.63
-0.66
-0.53
-0.31
-0.05
0.24
0.57
0.94
1.33
1.64
1.77
1.64
1.25
0.66
-0.01
-0.63
-1.09
-1.39
-1.57
-1.74
-1.99
-2.34
-2.73
-3.05
-3.20
-3.14
-2.93
-2.65
-2.38
-2.18
-2.03
-1.93
-1.86
-1.83
-1.83
-1.85
-1.84
-1.80
-1.74
-1.66
-1.58
-1.49
-1.35
-1.14
-0.89
-0.61
-0.34
-0.04
0.39
1.09
2.15
3.57
5.21
6.81
8.09
8.79
8.83
8.19
7.02
5.48
3.80
2.15
0.68
-0.48
-1.26
-1.70
-1.83
-1.79
-1.67
-1.51
-1.33
-1.09
-0.74
-0.31
0.14
0.51
0.71
0.67
0.42
0.02
-0.43
-0.84
-1.19
-1.50
-1.81
-2.10
-2.34
-2.42
-2.29
-1.99
-1.65
-1.41
-1.33
-1.35
-1.33
-1.14
-0.74
-0.20
0.31
0.71
0.94
1.06
1.10
1.09
0.99
0.75
0.39
0.01
-0.23
-0.20
0.15
0.74
1.37
1.76
1.71
1.13
0.12
-1.07
-2.13
-2.80
-2.93
-2.54
-1.74
-0.76
0.20
0.97
1.46
1.68
1.68
1.57
1.43
1.29
1.14
0.98
0.80
0.62
0.43
0.22
-0.05
-0.42
-0.89
-1.35
-1.68
-1.74
-1.48
-0.94
-0.25
0.41
0.92
1.25
1.41
1.43
1.35
1.21
1.03
0.84
0.70
0.65
0.67
0.69
0.62
0.39
-0.01
-0.48
-0.92
-1.22
-1.34
-1.30
-1.16
-1.02
-0.97
-1.07
-1.31
-1.63
-1.91
-2.03
-1.97
-1.79
-1.63
-1.63
-1.80
-2.07
-2.28
-2.33
-2.23
-2.07
-1.97
-1.98
-2.01
-1.88
-1.46
-0.71
0.22
1.09
1.65
1.76
1.45
0.91
0.38
0.08
0.09
0.36
0.69
0.83
0.54
-0.31
-1.66
-3.25
-4.65
-5.40
-5.26
-4.28
-2.83
-1.47
-0.71
-0.89
-2.18
-4.54
-7.70
-11.00
-13.35
-13.50
-10.59
-4.69
2.90
10.12
14.99
16.50
15.05
12.10
9.36
7.95
8.02
8.98
10.07
10.84
11.31
11.74
12.31
12.97
13.44
13.39
12.60
11.05
8.89
6.37
3.77
1.28
-0.98
-2.96
-4.67
-6.06
-7.01
-7.38
-7.04
-6.06
-4.68
-3.28
-2.27
-1.87
-2.08
-2.68
-3.40
-3.98
-4.27
-4.21
-3.82
-3.16
-2.38
-1.66
-1.20
-1.05
-1.16
-1.31
-1.30
-1.04
-0.63
-0.30
-0.28
-0.62
-1.23
-1.87
-2.36
-2.59
-2.59
-2.42
-2.13
-1.75
-1.29
-0.81
-0.39
-0.14
-0.08
-0.19
-0.38
-0.59
-0.74
-0.81
-0.81
-0.73
-0.57
-0.38
-0.22
-0.18
-0.30
-0.54
-0.80
-0.97
-0.95
-0.76
-0.47
-0.16
0.09
0.29
0.44
0.57
0.67
0.72
0.69
0.54
0.30
-0.01
-0.35
-0.67
-0.93
-1.08
-1.12
-1.07
-0.95
-0.79
-0.62
-0.42
-0.22
-0.01
0.19
0.37
0.55
0.74
0.96
1.18
1.34
1.40
1.36
1.27
1.17
1.09
0.99
0.82
0.56
0.24
-0.03
-0.17
-0.15
-0.02
0.13
0.21
0.19
0.09
-0.04
-0.14
-0.20
-0.21
-0.18
-0.14
-0.09
-0.06
-0.09
-0.21
-0.43
-0.72
-1.01
-1.20
-1.19
-0.92
-0.44
0.12
0.59
0.85
0.86
0.72
0.56
0.51
0.59
0.75
0.84
0.80
0.60
0.33
0.12
0.06
0.18
0.43
0.68
0.81
0.76
0.53
0.18
-0.21
-0.55
-0.80
-0.94
-0.97
-0.92
-0.81
-0.67
-0.52
-0.38
-0.28
-0.21
-0.20
-0.22
-0.27
-0.31
-0.34
-0.31
-0.23
-0.06
0.16
0.42
0.67
0.86
0.94
0.88
0.70
0.42
0.11
-0.14
-0.29
-0.30
-0.19
-0.03
0.09
0.09
-0.04
-0.28
-0.56
-0.79
-0.95
-1.02
-1.04
-1.01
-0.97
-0.89
-0.77
-0.62
-0.48
-0.43
-0.51
-0.73
-1.04
-1.32
-1.46
-1.41
-1.15
-0.75
-0.30
0.12
0.45
0.65
0.75
0.78
0.77
0.76
0.74
0.71
0.64
0.53
0.40
0.33
0.38
0.58
0.90
1.26
1.52
1.59
1.41
1.04
0.57
0.16
-0.12
-0.23
-0.22
-0.16
-0.12
-0.12
-0.16
-0.20
-0.21
-0.16
-0.03
0.18
0.45
0.72
0.92
0.98
0.89
0.66
0.37
0.11
-0.04
-0.03
0.12
0.38
0.68
0.92
1.00
0.87
0.53
0.04
-0.46
-0.82
-0.96
-0.87
-0.61
-0.35
-0.21
-0.25
-0.47
-0.73
-0.91
-0.93
-0.76
-0.48
-0.18
0.07
0.25
0.38
0.49
0.57
0.60
0.55
0.43
0.27
0.13
0.03
-0.05
-0.14
-0.27
-0.39
-0.46
-0.41
-0.25
-0.02
0.16
0.19
0.02
-0.31
-0.69
-0.99
-1.09
-0.98
-0.70
-0.35
-0.04
0.21
0.38
0.49
0.56
0.55
0.48
0.35
0.22
0.15
0.17
0.24
0.31
0.29
0.15
-0.05
-0.25
-0.36
-0.33
-0.20
-0.01
0.12
0.14
0.01
-0.21
-0.44
-0.62
-0.71
-0.76
-0.85
-1.03
-1.29
-1.54
-1.69
-1.72
-1.71
-1.80
-2.07
-2.52
-3.01
-3.37
-3.49
-3.37
-3.11
-2.88
-2.80
-2.95
-3.35
-4.00
-4.85
-5.83
-6.82
-7.66
-8.23
-8.49
-8.49
-8.36
-8.18
-8.03
-7.89
-7.73
-7.59
-7.55
-7.74
-8.24
-8.97
-9.75
-10.33
-10.58
-10.62
-10.80
-11.57
-13.22
-15.65
-18.40
-20.80
-22.25
-22.52
-21.90
-21.05
-20.70
-21.37
-23.08
-25.38
-27.57
-29.02
-29.49
-29.35
-29.44
-30.85
-34.42
-40.29
-47.70
-55.00
-60.25
-61.96
-59.75
-54.68
-48.94
-45.08
-45.16
-50.11
-59.38
-70.96
-81.72
-88.09
-87.13
-77.61
-60.67
-39.67
-19.03
-2.46
8.61
15.49
21.36
29.45
41.29
56.04
71.03
83.20
90.54
92.76
90.99
86.93
81.99
76.69
70.69
63.13
53.35
41.34
27.90
14.46
2.53
-6.86
-13.61
-18.46
-22.69
-27.40
-33.21
-40.18
-48.11
-56.79
-65.84
-74.20
-79.71
-79.26
-69.88
-50.23
-21.74
11.44
43.70
69.98
87.48
96.17
98.11
96.11
92.53
88.83
85.86
84.23
84.59
87.32
92.20
98.28
104.18
108.75
111.63
113.48
115.64
119.50
125.80
134.16
143.18
150.95
155.78
156.95
155.10
151.99
150.01
150.99
155.18
160.64
163.48
158.87
142.53
112.24
68.91
16.65
-38.08
-88.10
-127.43
-152.73
-163.84
-163.31
-155.09
-143.14
-130.35
-118.27
-107.50
-98.23
-90.72
-85.26
-81.81
-79.75
-77.92
-75.11
-70.59
-64.48
-57.67
-51.36
-46.46
-43.13
-40.74
-38.27
-34.87
-30.29
-25.01
-19.88
-15.71
-12.81
-10.96
-9.55
-7.98
-5.84
-3.08
0.12
3.48
6.65
9.34
11.25
12.13
11.88
10.62
8.75
6.82
5.37
4.75
4.99
5.83
6.90
7.82
8.41
8.68
8.82
9.15
9.99
11.64
14.25
17.75
21.87
26.14
29.98
32.88
34.49
34.77
34.09
33.15
32.83
33.70
35.57
37.20
36.54
31.64
21.54
7.10
-9.12
-23.81
-34.11
-38.62
-37.65
-32.88
-26.62
-21.14
-18.17
-18.67
-22.69
-29.32
-36.97
-43.77
-48.24
-49.72
-48.54
-45.57
-41.79
-37.94
-34.34
-31.14
-28.44
-26.37
-24.93
-23.94
-23.05
-21.84
-20.12
-17.82
-15.20
-12.59
-10.34
-8.60
-7.33
-6.34
-5.35
-4.13
-2.64
-1.05
0.30
1.07
1.10
0.46
-0.51
-1.37
-1.78
-1.60
-0.94
-0.11
0.58
0.96
1.02
0.91
0.80
0.85
1.08
1.40
1.67
1.77
1.62
1.23
0.69
0.12
-0.36
-0.76
-1.13
-1.58
-2.14
-2.79
-3.39
-3.81
-3.97
-3.90
-3.70
-3.51
-3.36
-3.22
-2.99
-2.63
-2.14
-1.62
-1.17
-0.87
-0.69
-0.61
-0.61
-0.71
-0.94
-1.30
-1.72
-2.10
-2.32
-2.32
-2.08
-1.64
-1.01
-0.20
0.78
1.88
3.00
4.02
4.81
5.26
5.29
4.84
3.92
2.60
1.05
-0.51
-1.81
-2.65
-2.90
-2.58
-1.83
-0.85
0.07
0.74
1.03
0.93
0.56
0.11
-0.27
-0.50
-0.55
-0.47
-0.28
-0.02
0.27
0.53
0.68
0.70
0.63
0.60
0.69
0.93
1.22
1.41
1.39
1.13
0.76
0.38
0.09
-0.11
-0.28
-0.47
-0.67
-0.83
-0.87
-0.78
-0.58
-0.38
-0.27
-0.32
-0.58
-1.05
-1.64
-2.26
-2.73
-2.95
-2.87
-2.57
-2.20
-1.94
-1.92
-2.13
-2.47
-2.77
-2.92
-2.88
-2.73
-2.58
-2.47
-2.32
-1.95
-1.10
0.34
2.32
4.58
6.70
8.31
9.11
9.02
8.13
6.62
4.76
2.82
1.00
-0.54
-1.70
-2.39
-2.58
-2.30
-1.69
-0.95
-0.35
-0.10
-0.30
-0.85
-1.52
-2.05
-2.23
-1.99
-1.40
-0.64
0.10
0.64
0.87
0.80
0.55
0.33
0.35
0.72
1.40
2.21
2.93
3.38
3.46
3.16
2.52
1.60
0.49
-0.68
-1.70
-2.37
-2.53
-2.18
-1.49
-0.73
-0.19
-0.05
-0.34
-0.93
-1.64
-2.24
-2.62
-2.73
-2.59
-2.29
-1.94
-1.65
-1.51
-1.58
-1.88
-2.37
-2.94
-3.43
-3.67
-3.54
-3.03
-2.24
-1.38
-0.62
-0.03
0.44
0.99
1.77
2.82
4.00
5.08
5.78
5.93
5.48
4.52
3.25
1.89
0.69
-0.18
-0.59
-0.56
-0.22
0.24
0.61
0.79
0.73
0.46
0.07
-0.36
-0.76
-1.08
-1.26
-1.30
-1.17
-0.93
-0.60
-0.23
0.16
0.56
0.92
1.18
1.32
1.30
1.20
1.11
1.13
1.34
1.70
2.14
2.51
2.68
2.58
2.20
1.60
0.83
-0.05
-1.01
-1.97
-2.82
-3.39
-3.55
-3.24
-2.54
-1.65
-0.87
-0.39
-0.31
-0.59
-1.08
-1.61
-2.08
-2.41
-2.64
-2.76
-2.80
-2.76
-2.63
-2.42
-2.15
-1.84
-1.51
-1.16
-0.79
-0.42
-0.08
0.21
0.47
0.77
1.19
1.80
2.62
3.57
4.50
5.22
5.54
5.32
4.56
3.39
2.05
0.85
0.01
-0.37
-0.36
-0.17
0.01
0.07
0.00
-0.10
-0.14
-0.11
-0.06
-0.06
-0.13
-0.23
-0.26
-0.20
-0.06
0.06
0.05
-0.11
-0.36
-0.56
-0.59
-0.44
-0.17
0.09
0.22
0.22
0.18
0.24
0.49
0.91
1.39
1.74
1.84
1.66
1.27
0.79
0.33
-0.05
-0.37
-0.66
-0.96
-1.27
-1.58
-1.83
-2.00
-2.09
-2.12
-2.10
-2.07
-2.04
-2.00
-1.94
-1.84
-1.71
-1.58
-1.53
-1.61
-1.85
-2.20
-2.58
-2.86
-2.93
-2.74
-2.31
-1.76
-1.23
-0.84
-0.61
-0.50
-0.41
-0.29
-0.17
-0.15
-0.35
-0.78
-1.34
-1.83
-2.13
-2.22
-2.29
-2.58
-3.30
-4.47
-5.87
-7.18
-8.05
-8.28
-7.94
-7.34
-6.94
-7.14
-8.11
-9.72
-11.55
-13.09
-14.05
-14.51
-14.89
-15.78
-17.61
-20.38
-23.63
-26.63
-28.73
-29.69
-29.85
-30.08
-31.38
-34.37
-38.85
-43.76
-47.52
-48.81
-47.23
-43.69
-40.08
-38.54
-40.42
-45.72
-53.10
-60.51
-66.17
-69.36
-70.80
-72.32
-76.24
-84.56
-98.24
-116.58
-137.00
-155.04
-165.23
-162.70
-144.98
-113.61
-74.38
-35.91
-6.81
7.61
7.54
-1.17
-9.25
-7.70
8.66
39.29
78.46
117.87
150.11
171.37
182.11
185.91
186.94
187.95
189.52
190.80
190.94
190.03
188.83
187.64
185.39
179.59
167.52
147.92
122.17
94.00
68.17
48.50
36.59
31.65
31.30
32.93
34.76
36.40
38.58
42.44
48.47
55.71
61.51
62.39
55.54
40.42
19.47
-2.58
-20.56
-31.04
-33.50
-30.13
-24.19
-18.24
-13.02
-7.61
-0.61
8.52
18.86
28.29
34.36
35.13
29.58
17.80
0.92
-19.09
-39.65
-58.04
-72.02
-80.36
-83.08
-81.22
-76.31
-69.82
-62.85
-56.13
-50.22
-45.60
-42.57
-41.07
-40.51
-39.95
-38.53
-35.82
-32.00
-27.71
-23.78
-20.83
-19.04
-18.17
-17.67
-16.96
-15.65
-13.69
-11.38
-9.20
-7.59
-6.77
-6.60
-6.71
-6.64
-6.05
-4.88
-3.33
-1.77
-0.57
0.09
0.24
0.08
-0.14
-0.28
-0.31
-0.31
-0.33
-0.35
-0.31
-0.11
0.24
0.66
1.01
1.19
1.17
1.00
0.79
0.62
0.54
0.53
0.57
0.62
0.63
0.58
0.43
0.17
-0.19
-0.60
-0.97
-1.27
-1.44
-1.49
-1.45
-1.40
-1.40
-1.53
-1.78
-2.07
-2.28
-2.30
-2.06
-1.58
-0.98
-0.40
0.03
0.21
0.13
-0.16
-0.55
-0.93
-1.16
-1.17
-0.98
-0.66
-0.34
-0.09
0.05
0.15
0.30
0.56
0.91
1.24
1.44
1.43
1.23
0.93
0.65
0.45
0.35
0.29
0.23
0.14
0.04
-0.06
-0.16
-0.28
-0.43
-0.63
-0.82
-0.95
-0.91
-0.69
-0.29
0.22
0.75
1.22
1.60
1.87
1.99
1.95
1.72
1.31
0.81
0.36
0.06
-0.04
0.01
0.14
0.27
0.39
0.53
0.69
0.82
0.85
0.72
0.45
0.11
-0.22
-0.51
-0.75
-0.96
-1.10
-1.11
-0.90
-0.50
-0.04
0.30
0.40
0.24
-0.07
-0.35
-0.48
-0.44
-0.29
-0.16
-0.13
-0.19
-0.23
-0.11
0.29
0.93
1.67
2.26
2.52
2.38
1.98
1.58
1.40
1.56
1.96
2.39
2.62
2.56
2.28
1.96
1.84
2.04
2.57
3.30
4.04
4.63
4.96
4.99
4.68
4.00
2.98
1.73
0.43
-0.67
-1.36
-1.60
-1.50
-1.28
-1.11
-1.10
-1.20
-1.33
-1.45
-1.57
-1.74
-1.96
-2.10
-1.97
-1.44
-0.49
0.67
1.74
2.43
2.68
2.70
2.87
3.59
5.04
7.06
9.21
10.99
12.03
12.33
12.21
12.15
12.61
13.79
15.53
17.40
18.93
19.75
19.82
19.43
19.06
19.28
20.58
23.24
27.21
31.90
36.07
37.91
35.63
28.11
15.64
0.12
-15.53
-28.35
-36.46
-39.60
-38.97
-36.35
-33.32
-30.60
-28.25
-26.01
-23.78
-21.81
-20.46
-19.90
-19.93
-19.98
-19.43
-17.91
-15.55
-12.87
-10.58
-9.18
-8.80
-9.12
-9.59
-9.69
-9.13
-7.99
-6.61
-5.39
-4.63
-4.37
-4.44
-4.53
-4.39
-3.90
-3.12
-2.22
-1.38
-0.73
-0.33
-0.14
-0.12
-0.20
-0.34
-0.50
-0.66
-0.80
-0.91
-0.99
-1.00
-0.94
-0.82
-0.68
-0.57
-0.52
-0.53
-0.56
-0.58
-0.56
-0.54
-0.56
-0.67
-0.84
-1.01
-1.12
-1.09
-0.91
-0.62
-0.31
-0.05
0.11
0.17
0.19
0.25
0.41
0.62
0.81
0.85
0.69
0.36
-0.01
-0.27
-0.30
-0.10
0.20
0.48
0.60
0.55
0.39
0.23
0.20
0.35
0.66
1.04
1.39
1.62
1.66
1.52
1.24
0.86
0.49
0.18
-0.01
-0.11
-0.15
-0.21
-0.32
-0.46
-0.58
-0.61
-0.52
-0.31
-0.03
0.24
0.42
0.44
0.29
0.03
-0.23
-0.37
-0.32
-0.10
0.19
0.42
0.51
0.43
0.26
0.10
0.02
0.02
0.08
0.16
0.23
0.31
0.41
0.52
0.61
0.66
0.63
0.52
0.34
0.14
-0.06
-0.20
-0.24
-0.15
0.07
0.37
0.67
0.88
0.94
0.83
0.60
0.33
0.09
-0.06
-0.14
-0.17
-0.17
-0.19
-0.22
-0.28
-0.36
-0.46
-0.58
-0.72
-0.83
-0.85
-0.75
-0.56
-0.36
-0.26
-0.31
-0.50
-0.69
-0.75
-0.59
-0.24
0.17
0.47
0.58
0.52
0.38
0.25
0.18
0.14
0.08
-0.02
-0.11
-0.09
0.10
0.43
0.76
0.94
0.87
0.57
0.21
-0.02
-0.02
0.20
0.48
0.64
0.55
0.19
-0.30
-0.76
-1.02
-1.02
-0.84
-0.61
-0.47
-0.46
-0.53
-0.57
-0.47
-0.24
0.05
0.28
0.39
0.37
0.27
0.18
0.14
0.13
0.15
0.19
0.25
0.33
0.40
0.41
0.33
0.17
-0.01
-0.15
-0.21
-0.20
-0.17
-0.17
-0.17
-0.14
-0.01
0.23
0.54
0.85
1.09
1.18
1.09
0.87
0.57
0.26
0.05
-0.03
0.02
0.13
0.21
0.18
0.05
-0.15
-0.36
-0.51
-0.61
-0.69
-0.77
-0.86
-0.92
-0.95
-0.95
-0.96
-0.95
-0.91
-0.78
-0.54
-0.25
0.02
0.18
0.20
0.14
0.05
-0.03
-0.09
-0.20
-0.37
-0.59
-0.78
-0.84
-0.72
-0.45
-0.11
0.20
0.40
0.45
0.36
0.16
-0.07
-0.29
-0.46
-0.58
-0.63
-0.60
-0.47
-0.22
0.10
0.48
0.84
1.13
1.32
1.37
1.29
1.10
0.84
0.57
0.35
0.19
0.10
0.02
-0.08
-0.23
-0.40
-0.55
-0.66
-0.73
-0.81
-0.90
-1.02
-1.14
-1.21
-1.18
-1.04
-0.79
-0.44
-0.07
0.27
0.54
0.74
0.90
1.05
1.18
1.21
1.10
0.83
0.51
0.26
0.17
0.24
0.36
0.45
0.46
0.42
0.44
0.53
0.67
0.73
0.63
0.39
0.10
-0.08
-0.08
0.08
0.25
0.31
0.22
0.06
-0.04
0.03
0.32
0.72
1.09
1.29
1.25
0.99
0.58
0.12
-0.33
-0.70
-0.98
-1.11
-1.07
-0.82
-0.38
0.21
0.82
1.31
1.53
1.39
0.91
0.22
-0.50
-1.10
-1.49
-1.64
-1.59
-1.37
-1.03
-0.63
-0.22
0.10
0.30
0.34
0.26
0.09
-0.09
-0.24
-0.34
-0.38
-0.36
-0.29
-0.16
0.02
0.21
0.38
0.47
0.42
0.27
0.08
-0.05
-0.04
0.11
0.31
0.44
0.42
0.25
0.02
-0.13
-0.13
0.02
0.23
0.39
0.43
0.36
0.25
0.18
0.21
0.30
0.36
0.33
0.18
-0.03
-0.22
-0.29
-0.22
-0.03
0.20
0.39
0.51
0.54
0.48
0.38
0.26
0.15
0.03
-0.10
-0.29
-0.53
-0.75
-0.85
-0.75
-0.46
-0.08
0.22
0.31
0.16
-0.15
-0.45
-0.61
-0.58
-0.41
-0.21
-0.08
-0.05
-0.09
-0.16
-0.20
-0.23
-0.24
-0.25
-0.24
-0.20
-0.12
-0.01
0.08
0.09
-0.02
-0.23
-0.49
-0.70
-0.77
-0.67
-0.46
-0.21
0.01
0.16
0.24
0.27
0.26
0.19
0.06
-0.11
-0.26
-0.33
-0.29
-0.17
-0.05
0.03
0.04
-0.01
-0.10
-0.20
-0.31
-0.41
-0.50
-0.53
-0.50
-0.41
-0.29
-0.18
-0.10
-0.06
-0.03
0.04
0.19
0.41
0.67
0.94
1.15
1.27
1.28
1.17
0.98
0.75
0.53
0.38
0.32
0.37
0.51
0.69
0.83
0.90
0.85
0.71
0.48
0.22
-0.06
-0.32
-0.51
-0.59
-0.54
-0.39
-0.18
0.00
0.11
0.12
0.05
-0.04
-0.10
-0.10
-0.03
0.07
0.18
0.23
0.19
0.08
-0.08
-0.21
-0.26
-0.20
-0.05
0.15
0.33
0.47
0.58
0.67
0.73
0.71
0.60
0.36
0.06
-0.25
-0.50
-0.66
-0.76
-0.86
-0.96
-1.05
-1.06
-0.95
-0.72
-0.43
-0.14
0.06
0.15
0.15
0.12
0.11
0.15
0.22
0.29
0.33
0.29
0.19
0.04
-0.09
-0.15
-0.13
-0.02
0.11
0.22
0.29
0.32
0.32
0.29
0.23
0.11
-0.04
-0.19
-0.29
-0.30
-0.23
-0.13
-0.07
-0.10
-0.21
-0.38
-0.54
-0.62
-0.60
-0.48
-0.31
-0.15
-0.04
-0.00
-0.01
-0.02
-0.03
-0.06
-0.16
-0.33
-0.54
-0.66
-0.58
-0.28
0.16
0.58
0.81
0.77
0.51
0.19
-0.03
-0.05
0.12
0.39
0.62
0.73
0.69
0.55
0.42
0.35
0.39
0.51
0.66
0.80
0.90
0.97
0.99
0.95
0.80
0.51
0.09
-0.38
-0.78
-1.02
-1.04
-0.84
-0.50
-0.12
0.19
0.37
0.38
0.28
0.10
-0.07
-0.17
-0.21
-0.18
-0.12
-0.06
-0.06
-0.12
-0.25
-0.40
-0.53
-0.59
-0.54
-0.40
-0.21
-0.04
0.06
0.10
0.08
0.04
-0.01
-0.04
-0.00
0.11
0.31
0.52
0.70
0.76
0.70
0.54
0.36
0.18
0.04
-0.10
-0.21
-0.27
-0.26
-0.18
-0.10
-0.08
-0.19
-0.41
-0.65
-0.79
-0.76
-0.57
-0.33
-0.17
-0.14
-0.27
-0.49
-0.74
-1.00
-1.23
-1.39
-1.42
-1.24
-0.84
-0.29
0.25
0.63
0.76
0.68
0.53
0.44
0.52
0.74
1.02
1.26
1.39
1.39
1.31
1.18
1.08
1.03
1.05
1.11
1.16
1.13
0.99
0.76
0.49
0.26
0.13
0.10
0.12
0.09
-0.05
-0.32
-0.68
-1.07
-1.42
-1.69
-1.87
-1.93
-1.88
-1.73
-1.50
-1.19
-0.87
-0.58
-0.36
-0.24
-0.22
-0.29
-0.40
-0.52
-0.61
-0.66
-0.68
-0.66
-0.59
-0.46
-0.26
-0.02
0.21
0.36
0.39
0.31
0.20
0.15
0.21
0.38
0.64
0.90
1.13
1.28
1.36
1.36
1.27
1.11
0.91
0.71
0.58
0.53
0.55
0.59
0.61
0.59
0.53
0.42
0.30
0.17
0.08
0.07
0.14
0.25
0.32
0.21
-0.09
-0.54
-0.95
-1.16
-1.08
-0.76
-0.34
0.02
0.25
0.35
0.42
0.51
0.58
0.58
0.43
0.14
-0.24
-0.59
-0.86
-1.02
-1.13
-1.21
-1.27
-1.29
-1.22
-1.05
-0.83
-0.60
-0.42
-0.29
-0.17
-0.02
0.17
0.38
0.58
0.77
0.95
1.14
1.31
1.40
1.35
1.15
0.86
0.55
0.26
0.01
-0.21
-0.40
-0.53
-0.57
-0.53
-0.43
-0.31
-0.25
-0.27
-0.35
-0.46
-0.54
-0.55
-0.46
-0.25
0.00
0.22
0.30
0.20
-0.10
-0.50
-0.87
-1.11
-1.16
-1.03
-0.77
-0.46
-0.18
-0.01
-0.00
-0.17
-0.47
-0.79
-0.99
-0.93
-0.60
-0.06
0.51
0.95
1.17
1.17
1.05
0.89
0.71
0.50
0.20
-0.14
-0.44
-0.53
-0.34
0.09
0.58
0.91
0.94
0.68
0.26
-0.11
-0.30
-0.26
-0.08
0.14
0.30
0.33
0.24
0.04
-0.18
-0.36
-0.42
-0.33
-0.16
0.00
0.07
0.02
-0.08
-0.12
-0.03
0.12
0.22
0.14
-0.16
-0.55
-0.84
-0.88
-0.63
-0.23
0.13
0.29
0.21
-0.02
-0.25
-0.36
-0.36
-0.32
-0.33
-0.42
-0.55
-0.65
-0.66
-0.56
-0.40
-0.22
-0.06
0.11
0.31
0.54
0.75
0.91
0.97
0.94
0.85
0.74
0.60
0.45
0.27
0.08
-0.07
-0.10
0.05
0.37
0.77
1.12
1.31
1.29
1.10
0.83
0.59
0.44
0.36
0.32
0.25
0.14
0.03
-0.03
0.02
0.16
0.33
0.40
0.31
0.05
-0.28
-0.52
-0.54
-0.32
0.05
0.43
0.66
0.70
0.58
0.40
0.26
0.17
0.09
-0.04
-0.21
-0.39
-0.50
-0.52
-0.46
-0.40
-0.42
-0.54
-0.72
-0.85
-0.84
-0.67
-0.42
-0.19
-0.10
-0.19
-0.44
-0.74
-0.99
-1.12
-1.09
-0.90
-0.60
-0.25
0.08
0.29
0.32
0.16
-0.14
-0.47
-0.70
-0.73
-0.54
-0.20
0.18
0.50
0.73
0.90
1.03
1.14
1.21
1.23
1.18
1.09
1.00
0.92
0.82
0.65
0.38
0.04
-0.31
-0.56
-0.63
-0.51
-0.30
-0.16
-0.19
-0.45
-0.86
-1.26
-1.49
-1.46
-1.20
-0.83
-0.52
-0.39
-0.43
-0.58
-0.72
-0.79
-0.77
-0.72
-0.66
-0.62
-0.55
-0.41
-0.17
0.14
0.44
0.67
0.79
0.82
0.78
0.70
0.55
0.32
0.04
-0.24
-0.40
-0.40
-0.20
0.13
0.50
0.83
1.06
1.15
1.10
0.93
0.66
0.35
0.08
-0.06
-0.01
0.22
0.57
0.94
1.20
1.28
1.11
0.72
0.18
-0.37
-0.77
-0.92
-0.78
-0.42
0.01
0.35
0.47
0.33
-0.01
-0.41
-0.73
-0.82
-0.65
-0.24
0.30
0.82
1.18
1.29
1.14
0.82
0.43
0.08
-0.16
-0.25
-0.20
-0.05
0.12
0.23
0.18
-0.07
-0.48
-0.90
-1.15
-1.10
-0.74
-0.23
0.23
0.46
0.41
0.14
-0.19
-0.45
-0.55
-0.49
-0.35
-0.20
-0.09
-0.06
-0.07
-0.09
-0.06
0.03
0.15
0.23
0.20
0.04
-0.20
-0.42
-0.55
-0.60
-0.62
-0.68
-0.81
-0.96
-1.05
-1.00
-0.79
-0.50
-0.24
-0.11
-0.14
-0.28
-0.41
-0.44
-0.32
-0.06
0.27
0.62
0.91
1.11
1.18
1.09
0.83
0.44
0.00
-0.36
-0.53
-0.46
-0.20
0.12
0.39
0.51
0.46
0.32
0.16
0.07
0.10
0.26
0.51
0.77
0.99
1.12
1.12
0.99
0.76
0.44
0.09
-0.23
-0.48
-0.61
-0.61
-0.54
-0.43
-0.34
-0.28
-0.27
-0.30
-0.37
-0.49
-0.62
-0.69
-0.61
-0.33
0.09
0.52
0.82
0.90
0.79
0.59
0.44
0.38
0.38
0.38
0.33
0.21
0.07
-0.07
-0.18
-0.29
-0.39
-0.48
-0.53
-0.51
-0.41
-0.30
-0.25
-0.31
-0.49
-0.73
-0.92
-0.99
-0.86
-0.58
-0.22
0.09
0.29
0.34
0.29
0.24
0.24
0.33
0.44
0.49
0.43
0.27
0.07
-0.10
-0.19
-0.23
-0.27
-0.31
-0.34
-0.26
-0.02
0.37
0.81
1.11
1.10
0.78
0.24
-0.31
-0.68
-0.80
-0.72
-0.59
-0.53
-0.56
-0.59
-0.51
-0.28
0.07
0.41
0.62
0.68
0.62
0.53
0.48
0.46
0.44
0.33
0.10
-0.22
-0.58
-0.91
-1.15
-1.27
-1.25
-1.08
-0.79
-0.41
-0.03
0.26
0.43
0.49
0.51
0.57
0.73
0.95
1.16
1.30
1.33
1.25
1.11
0.96
0.85
0.79
0.77
0.72
0.60
0.36
0.03
-0.31
-0.53
-0.56
-0.38
-0.10
0.15
0.24
0.12
-0.18
-0.56
-0.92
-1.19
-1.33
-1.33
-1.19
-0.94
-0.64
-0.34
-0.12
0.03
0.12
0.21
0.35
0.53
0.71
0.82
0.83
0.74
0.61
0.49
0.40
0.29
0.08
-0.25
-0.67
-1.06
-1.27
-1.23
-0.96
-0.56
-0.17
0.12
0.28
0.34
0.36
0.37
0.35
0.30
0.19
0.06
-0.07
-0.19
-0.30
-0.43
-0.56
-0.65
-0.65
-0.56
-0.41
-0.32
-0.35
-0.51
-0.70
-0.80
-0.72
-0.43
-0.02
0.42
0.78
1.03
1.17
1.23
1.23
1.19
1.13
1.07
1.03
1.04
1.08
1.10
1.04
0.83
0.48
0.06
-0.34
-0.61
-0.72
-0.73
-0.74
-0.81
-0.94
-1.06
-1.10
-1.03
-0.90
-0.82
-0.86
-1.00
-1.13
-1.11
-0.86
-0.42
0.10
0.52
0.70
0.65
0.43
0.18
0.02
0.01
0.14
0.37
0.63
0.86
1.03
1.11
1.04
0.82
0.47
0.06
-0.30
-0.50
-0.49
-0.30
-0.03
0.22
0.35
0.35
0.28
0.20
0.17
0.20
0.24
0.24
0.19
0.08
-0.04
-0.16
-0.25
-0.31
-0.36
-0.37
-0.34
-0.23
-0.05
0.19
0.42
0.56
0.56
0.40
0.14
-0.13
-0.30
-0.33
-0.21
0.00
0.23
0.44
0.59
0.69
0.75
0.75
0.70
0.63
0.57
0.54
0.53
0.48
0.31
-0.02
-0.48
-0.94
-1.28
-1.39
-1.27
-0.98
-0.64
-0.33
-0.09
0.10
0.26
0.37
0.40
0.33
0.18
0.04
-0.01
0.09
0.32
0.59
0.78
0.84
0.74
0.53
0.24
-0.09
-0.43
-0.73
-0.90
-0.87
-0.64
-0.29
0.05
0.24
0.23
0.10
-0.04
-0.11
-0.10
-0.10
-0.20
-0.42
-0.70
-0.93
-1.00
-0.90
-0.69
-0.46
-0.26
-0.09
0.09
0.30
0.50
0.63
0.60
0.36
-0.02
-0.41
-0.64
-0.63
-0.43
-0.16
0.02
-0.01
-0.22
-0.53
-0.80
-0.93
-0.86
-0.64
-0.30
0.08
0.44
0.72
0.86
0.83
0.65
0.41
0.23
0.17
0.24
0.35
0.42
0.38
0.25
0.10
0.04
0.11
0.29
0.51
0.67
0.75
0.78
0.79
0.81
0.77
0.60
0.25
-0.25
-0.73
-1.01
-0.96
-0.62
-0.16
0.20
0.29
0.11
-0.22
-0.54
-0.71
-0.67
-0.48
-0.19
0.12
0.41
0.62
0.70
0.63
0.43
0.17
-0.06
-0.17
-0.15
-0.03
0.10
0.17
0.17
0.12
0.06
0.05
0.11
0.25
0.41
0.59
0.75
0.91
1.06
1.24
1.46
1.74
2.05
2.33
2.52
2.56
2.46
2.28
2.18
2.30
2.70
3.32
4.01
4.61
5.00
5.26
5.56
6.10
6.99
8.17
9.44
10.55
11.34
11.81
12.18
12.73
13.72
15.21
17.04
18.88
20.37
21.27
21.59
21.52
21.44
21.73
22.68
24.39
26.77
29.38
31.48
32.02
29.89
24.42
15.71
4.84
-6.39
-16.14
-23.13
-27.04
-28.47
-28.42
-27.78
-26.98
-26.00
-24.71
-23.12
-21.44
-19.98
-18.94
-18.24
-17.59
-16.75
-15.65
-14.53
-13.81
-13.88
-14.86
-16.41
-17.87
-18.51
-17.82
-15.78
-12.80
-9.58
-6.74
-4.67
-3.42
-2.83
-2.72
-2.95
-3.44
-4.13
-4.87
-5.45
-5.71
-5.58
-5.10
-4.39
-3.55
-2.66
-1.78
-0.96
-0.29
0.14
0.28
0.14
-0.20
-0.62
-1.05
-1.42
-1.75
-2.10
-2.52
-3.03
-3.61
-4.20
-4.72
-5.10
-5.28
-5.25
-5.00
-4.55
-3.94
-3.27
-2.63
-2.13
-1.84
-1.69
-1.58
-1.33
-0.83
-0.05
0.89
1.83
2.57
2.98
3.00
2.66
2.08
1.44
0.90
0.61
0.59
0.77
1.02
1.23
1.36
1.42
1.51
1.65
1.81
1.91
1.88
1.71
1.49
1.38
1.46
1.71
2.02
2.25
2.30
2.21
2.13
2.19
2.44
2.78
3.06
3.12
2.92
2.57
2.25
2.12
2.23
2.49
2.74
2.84
2.72
2.45
2.14
1.92
1.84
1.85
1.87
1.82
1.66
1.43
1.21
1.11
1.19
1.42
1.73
2.03
2.23
2.29
2.23
2.10
2.00
2.00
2.13
2.39
2.73
3.05
3.27
3.35
3.31
3.16
2.94
2.63
2.22
1.73
1.23
0.80
0.49
0.31
0.19
0.05
-0.15
-0.41
-0.69
-0.99
-1.29
-1.60
-1.86
-1.97
-1.86
-1.54
-1.12
-0.79
-0.75
-1.10
-1.80
-2.68
-3.52
-4.07
-4.18
-3.81
-3.08
-2.22
-1.60
-1.52
-2.14
-3.39
-4.94
-6.36
-7.27
-7.51
-7.18
-6.56
-5.97
-5.65
-5.64
-5.85
-6.16
-6.53
-7.00
-7.64
-8.44
-9.28
-9.93
-10.26
-10.29
-10.22
-10.34
-10.76
-11.43
-12.09
-12.43
-12.26
-11.56
-10.37
-8.74
-6.61
-3.89
-0.60
3.08
6.82
10.33
13.44
16.21
18.72
21.00
22.86
24.08
24.49
24.15
23.33
22.33
21.27
20.07
18.52
16.50
14.13
11.67
9.40
7.40
5.51
3.52
1.28
-1.04
-3.12
-4.64
-5.47
-5.68
-5.42
-4.77
-3.68
-2.17
-0.55
0.53
0.32
-1.60
-4.95
-8.70
-11.46
-12.16
-10.56
-7.41
-4.08
-1.82
-1.22
-1.92
-2.92
-3.20
-2.27
-0.42
1.46
2.47
2.13
0.60
-1.56
-3.68
-5.36
-6.39
-6.63
-5.83
-3.79
-0.65
2.90
5.71
6.65
5.29
2.16
-1.51
-4.38
-5.75
-5.76
-5.22
-4.96
-5.40
-6.32
-7.18
-7.54
-7.32
-6.85
-6.60
-6.93
-7.84
-9.03
-10.09
-10.75
-10.99
-11.10
-11.52
-12.60
-14.43
-16.79
-19.26
-21.50
-23.36
-24.99
-26.75
-29.01
-31.97
-35.60
-39.64
-43.74
-47.56
-50.91
-53.79
-56.37
-59.03
-62.15
-66.08
-70.91
-76.38
-82.00
-87.15
-91.46
-95.12
-98.94
-104.01
-111.02
-119.39
-126.78
-129.43
-123.14
-104.69
-72.86
-28.75
24.61
83.06
141.87
196.44
242.79
278.33
302.35
316.15
322.27
323.09
319.52
310.44
293.21
265.11
224.96
174.12
116.65
58.42
5.65
-36.52
-65.33
-80.72
-85.09
-82.16
-75.63
-68.29
-61.59
-56.10
-51.99
-49.41
-48.40
-48.62
-49.21
-49.05
-47.28
-43.84
-39.45
-35.32
-32.53
-31.51
-31.87
-32.63
-32.68
-31.28
-28.29
-24.23
-19.97
-16.36
-13.95
-12.76
-12.41
-12.29
-11.81
-10.66
-8.83
-6.59
-4.31
-2.27
-0.56
0.91
2.33
3.83
5.38
6.80
7.81
8.08
7.42
5.77
3.25
0.17
-3.09
-6.11
-8.53
-10.16
-10.98
-11.12
-10.77
-10.14
-9.36
-8.52
-7.66
-6.84
-6.11
-5.52
-5.06
-4.63
-4.16
-3.60
-3.00
-2.50
-2.21
-2.17
-2.30
-2.45
-2.46
-2.25
-1.87
-1.42
-1.02
-0.73
-0.51
-0.33
-0.16
-0.02
0.04
-0.01
-0.17
-0.37
-0.54
-0.65
-0.69
-0.68
-0.69
-0.73
-0.82
-0.94
-1.06
-1.17
-1.26
-1.32
-1.35
-1.33
-1.26
-1.13
-0.98
-0.83
-0.74
-0.71
-0.74
-0.78
-0.78
-0.69
-0.56
-0.46
-0.45
-0.55
-0.69
-0.76
-0.66
-0.38
-0.01
0.31
0.45
0.36
0.11
-0.17
-0.34
-0.31
-0.10
0.21
0.50
0.68
0.70
0.57
0.37
0.19
0.09
0.11
0.19
0.27
0.27
0.17
0.01
-0.13
-0.19
-0.12
0.05
0.27
0.49
0.66
0.77
0.86
0.96
1.06
1.13
1.11
0.98
0.73
0.45
0.24
0.17
0.24
0.39
0.53
0.62
0.66
0.68
0.73
0.76
0.72
0.53
0.19
-0.26
-0.71
-1.05
-1.20
-1.13
-0.90
-0.57
-0.22
0.07
0.26
0.38
0.44
0.49
0.56
0.63
0.68
0.68
0.61
0.50
0.36
0.20
0.04
-0.08
-0.15
-0.09
0.13
0.50
0.95
1.35
1.58
1.58
1.37
1.07
0.83
0.77
0.91
1.23
1.62
2.02
2.35
2.58
2.69
2.66
2.49
2.19
1.83
1.52
1.35
1.39
1.66
2.12
2.71
3.34
3.93
4.42
4.70
4.67
4.23
3.34
2.07
0.60
-0.82
-1.99
-2.78
-3.21
-3.38
-3.44
-3.52
-3.66
-3.89
-4.19
-4.49
-4.72
-4.82
-4.76
-4.54
-4.22
-3.85
-3.47
-3.11
-2.77
-2.49
-2.31
-2.22
-2.22
-2.22
-2.14
-1.94
-1.65
-1.34
-1.11
-1.02
-1.05
-1.17
-1.32
-1.40
-1.36
-1.17
-0.83
-0.44
-0.10
0.09
0.11
0.01
-0.14
-0.26
-0.33
-0.37
-0.43
-0.50
-0.53
-0.48
-0.29
0.00
0.32
0.59
0.77
0.86
0.91
0.95
1.02
1.11
1.21
1.28
1.31
1.28
1.17
1.02
0.88
0.76
0.65
0.50
0.24
-0.17
-0.73
-1.33
-1.77
-1.88
-1.60
-0.96
-0.15
0.58
1.03
1.11
0.86
0.44
0.05
-0.18
-0.20
-0.05
0.15
0.31
0.36
0.32
0.22
0.11
0.04
0.04
0.07
0.12
0.15
0.15
0.10
0.05
-0.01
-0.07
-0.16
-0.32
-0.55
-0.81
-1.00
-1.02
-0.85
-0.58
-0.31
-0.16
-0.13
-0.16
-0.15
-0.05
0.12
0.27
0.35
0.33
0.23
0.08
-0.11
-0.33
-0.58
-0.75
-0.75
-0.48
0.01
0.59
1.06
1.24
1.09
0.72
0.30
-0.03
-0.22
-0.30
-0.32
-0.28
-0.16
0.09
0.40
0.67
0.77
0.62
0.29
-0.06
-0.27
-0.22
0.06
0.45
0.82
1.06
1.14
1.10
0.96
0.79
0.61
0.45
0.33
0.27
0.29
0.35
0.42
0.42
0.30
0.06
-0.25
-0.53
-0.68
-0.65
-0.48
-0.25
-0.03
0.14
0.29
0.46
0.66
0.84
0.91
0.78
0.43
-0.05
-0.51
-0.83
-0.92
-0.85
-0.73
-0.68
-0.77
-0.93
-1.06
-1.04
-0.84
-0.51
-0.19
0.01
0.05
-0.04
-0.16
-0.22
-0.18
-0.06
0.09
0.22
0.29
0.32
0.31
0.31
0.33
0.36
0.36
0.26
0.05
-0.28
-0.65
-0.96
-1.13
-1.12
-0.99
-0.81
-0.66
-0.55
-0.43
-0.22
0.12
0.55
0.94
1.16
1.11
0.84
0.48
0.17
0.01
-0.05
-0.11
-0.29
-0.59
-0.94
-1.17
-1.17
-0.96
-0.64
-0.39
-0.30
-0.35
-0.44
-0.47
-0.42
-0.41
-0.55
-0.92
-1.49
-2.10
-2.60
-2.91
-3.01
-3.03
-3.10
-3.32
-3.72
-4.27
-4.92
-5.62
-6.36
-7.14
-7.97
-8.82
-9.66
-10.47
-11.27
-12.14
-13.20
-14.55
-16.21
-18.11
-20.11
-22.14
-24.25
-26.61
-29.47
-32.98
-37.08
-41.48
-45.78
-49.65
-53.04
-56.25
-59.84
-64.38
-70.21
-77.23
-84.97
-92.70
-99.75
-105.79
-110.97
-115.95
-121.73
-129.45
-139.93
-153.05
-167.23
-179.31
-185.07
-180.25
-162.01
-130.00
-86.66
-36.68
14.27
60.93
99.44
127.79
145.74
154.43
155.95
152.90
147.95
143.33
140.44
139.66
140.41
141.61
142.06
140.92
137.91
133.30
127.74
122.05
117.00
113.18
110.86
109.89
109.81
109.95
109.70
108.75
107.24
105.68
104.69
104.73
105.89
107.88
110.18
112.35
114.22
115.97
118.04
120.97
125.15
130.68
137.21
143.70
148.25
148.32
141.12
124.53
97.98
62.98
22.98
-17.47
-53.95
-83.31
-104.23
-117.12
-123.45
-124.98
-123.30
-119.61
-114.89
-110.04
-105.92
-103.12
-101.79
-101.46
-101.17
-99.85
-96.77
-91.88
-85.72
-79.22
-73.17
-67.96
-63.44
-59.16
-54.66
-49.72
-44.55
-39.57
-35.20
-31.68
-28.90
-26.50
-24.06
-21.28
-18.15
-14.89
-11.84
-9.26
-7.23
-5.63
-4.24
-2.88
-1.51
-0.26
0.70
1.26
1.51
1.65
1.98
2.64
3.56
4.44
4.90
4.71
3.93
2.92
2.20
2.25
3.29
5.20
7.55
9.79
11.45
12.35
12.68
12.97
13.82
15.63
18.39
21.64
24.65
26.80
27.86
28.08
28.11
28.65
30.25
33.21
37.64
43.22
48.88
52.61
51.75
44.05
28.88
8.01
-14.61
-34.33
-47.64
-53.44
-53.14
-49.45
-44.91
-40.80
-37.14
-33.39
-29.39
-25.60
-22.79
-21.45
-21.30
-21.48
-21.03
-19.33
-16.46
-13.15
-10.35
-8.79
-8.72
-9.80
-11.32
-12.50
-12.81
-12.16
-10.88
-9.53
-8.59
-8.31
-8.56
-9.01
-9.25
-9.08
-8.54
-7.86
-7.32
-7.06
-7.09
-7.25
-7.40
-7.45
-7.40
-7.23
-6.98
-6.60
-6.07
-5.41
-4.68
-3.95
-3.28
-2.68
-2.13
-1.63
-1.17
-0.78
-0.44
-0.09
0.39
1.08
2.02
3.12
4.20
5.07
5.59
5.77
5.76
5.81
6.11
6.74
7.60
8.42
8.86
8.63
7.57
5.76
3.47
1.11
-0.92
-2.29
-2.90
-2.83
-2.37
-1.87
-1.63
-1.80
-2.37
-3.13
-3.82
-4.25
-4.36
-4.21
-3.97
-3.81
-3.82
-4.00
-4.27
-4.53
-4.72
-4.79
-4.74
-4.55
-4.25
-3.83
-3.34
-2.81
-2.32
-1.94
-1.73
-1.69
-1.75
-1.80
-1.77
-1.62
-1.39
-1.18
-1.09
-1.18
-1.41
-1.65
-1.79
-1.78
-1.64
-1.48
-1.43
-1.51
-1.64
-1.68
-1.47
-0.94
-0.11
0.89
1.91
2.80
3.47
3.83
3.84
3.53
2.94
2.18
1.35
0.57
-0.09
-0.53
-0.69
-0.57
-0.21
0.26
0.65
0.77
0.54
-0.04
-0.79
-1.46
-1.79
-1.64
-0.97
0.05
1.18
2.17
2.82
3.09
3.03
2.82
2.60
2.47
2.41
2.36
2.22
1.94
1.55
1.15
0.81
0.56
0.35
0.08
-0.30
-0.77
-1.20
-1.45
-1.41
-1.16
-0.83
-0.61
-0.56
-0.66
-0.79
-0.82
-0.69
-0.42
-0.11
0.16
0.30
0.28
0.11
-0.13
-0.36
-0.48
-0.44
-0.27
-0.03
0.18
0.30
0.34
0.33
0.31
0.26
0.13
-0.09
-0.40
-0.71
-0.93
-0.95
-0.77
-0.46
-0.14
0.07
0.12
0.06
-0.04
-0.06
0.04
0.24
0.47
0.65
0.73
0.72
0.63
0.51
0.38
0.26
0.15
0.07
0.01
-0.03
-0.08
-0.15
-0.27
-0.39
-0.50
-0.55
-0.56
-0.55
-0.52
-0.48
-0.40
-0.25
-0.04
0.22
0.45
0.62
0.68
0.65
0.55
0.43
0.30
0.16
0.02
-0.09
-0.13
-0.10
-0.01
0.05
0.01
-0.15
-0.39
-0.60
-0.66
-0.53
-0.26
0.02
0.22
0.27
0.21
0.10
0.02
-0.03
-0.05
-0.08
-0.14
-0.22
-0.28
-0.29
-0.22
-0.07
0.10
0.22
0.22
0.09
-0.13
-0.40
-0.63
-0.79
-0.86
-0.84
-0.74
-0.56
-0.32
-0.05
0.19
0.33
0.35
0.26
0.12
-0.02
-0.16
-0.27
-0.36
-0.40
-0.37
-0.24
-0.02
0.24
0.49
0.69
0.82
0.86
0.80
0.66
0.47
0.28
0.15
0.14
0.22
0.35
0.45
0.48
0.46
0.44
0.45
0.49
0.54
0.54
0.47
0.38
0.31
0.31
0.36
0.40
0.40
0.35
0.30
0.31
0.37
0.44
0.43
0.29
0.02
-0.30
-0.54
-0.61
-0.47
-0.17
0.19
0.48
0.61
0.51
0.22
-0.16
-0.47
-0.61
-0.54
-0.29
0.02
0.30
0.51
0.68
0.79
0.82
0.69
0.35
-0.18
-0.74
-1.14
-1.22
-0.95
-0.44
0.08
0.42
0.48
0.26
-0.14
-0.57
-0.90
-1.01
-0.85
-0.42
0.19
0.83
1.34
1.60
1.58
1.33
0.96
0.61
0.34
0.16
0.02
-0.11
-0.24
-0.38
-0.50
-0.62
-0.73
-0.83
-0.90
-0.89
-0.81
-0.67
-0.52
-0.40
-0.31
-0.22
-0.11
0.02
0.13
0.16
0.07
-0.09
-0.27
-0.38
-0.44
-0.47
-0.54
-0.65
-0.74
-0.69
-0.45
-0.05
0.40
0.74
0.89
0.83
0.66
0.47
0.33
0.24
0.15
0.05
-0.04
-0.03
0.10
0.34
0.55
0.59
0.40
0.06
-0.26
-0.38
-0.25
0.04
0.29
0.37
0.24
0.02
-0.18
-0.27
-0.30
-0.32
-0.37
-0.39
-0.29
-0.02
0.36
0.70
0.85
0.75
0.46
0.14
-0.09
-0.20
-0.23
-0.26
-0.34
-0.44
-0.52
-0.50
-0.38
-0.21
-0.09
-0.06
-0.15
-0.32
-0.50
-0.63
-0.68
-0.63
-0.49
-0.27
-0.05
0.13
0.19
0.12
-0.01
-0.08
-0.01
0.25
0.59
0.86
0.93
0.77
0.47
0.19
0.03
-0.01
-0.03
-0.12
-0.32
-0.52
-0.61
-0.48
-0.19
0.14
0.34
0.34
0.20
0.05
0.00
0.05
0.11
0.05
-0.20
-0.55
-0.83
-0.85
-0.55
0.01
0.61
1.04
1.16
0.98
0.62
0.26
0.05
0.00
0.04
0.05
-0.03
-0.18
-0.36
-0.47
-0.52
-0.53
-0.55
-0.59
-0.64
-0.66
-0.61
-0.51
-0.42
-0.38
-0.39
-0.38
-0.27
-0.02
0.30
0.58
0.69
0.59
0.34
0.06
-0.12
-0.14
-0.03
0.16
0.35
0.49
0.58
0.60
0.55
0.42
0.23
0.02
-0.14
-0.21
-0.18
-0.07
0.09
0.27
0.43
0.55
0.57
0.45
0.20
-0.14
-0.43
-0.60
-0.60
-0.45
-0.26
-0.09
0.03
0.14
0.31
0.58
0.88
1.07
1.02
0.67
0.09
-0.54
-1.06
-1.31
-1.29
-1.07
-0.78
-0.55
-0.44
-0.46
-0.54
-0.60
-0.58
-0.44
-0.21
0.05
0.25
0.36
0.39
0.37
0.37
0.42
0.51
0.56
0.50
0.28
-0.09
-0.48
-0.73
-0.74
-0.47
-0.03
0.43
0.75
0.87
0.82
0.70
0.59
0.51
0.44
0.35
0.26
0.24
0.36
0.65
1.02
1.35
1.46
1.30
0.88
0.37
-0.05
-0.27
-0.24
-0.05
0.17
0.33
0.37
0.32
0.23
0.10
-0.08
-0.33
-0.66
-1.00
-1.21
-1.19
-0.90
-0.43
0.05
0.36
0.36
0.07
-0.36
-0.76
-0.97
-0.94
-0.73
-0.47
-0.27
-0.16
-0.12
-0.05
0.10
0.30
0.47
0.48
0.27
-0.13
-0.59
-0.94
-1.07
-0.96
-0.68
-0.36
-0.12
-0.02
-0.02
-0.07
-0.07
0.02
0.21
0.43
0.63
0.73
0.73
0.64
0.49
0.30
0.09
-0.11
-0.24
-0.24
-0.07
0.22
0.53
0.71
0.66
0.40
0.06
-0.19
-0.23
-0.11
0.07
0.15
0.10
-0.05
-0.17
-0.17
-0.07
0.05
0.11
0.05
-0.07
-0.19
-0.23
-0.14
0.04
0.28
0.53
0.73
0.84
0.83
0.71
0.48
0.20
-0.11
-0.43
-0.73
-0.94
-0.97
-0.75
-0.28
0.30
0.79
1.03
0.98
0.74
0.46
0.25
0.14
0.07
0.01
-0.04
-0.03
0.08
0.29
0.50
0.60
0.53
0.29
-0.00
-0.22
-0.28
-0.18
-0.01
0.12
0.12
-0.02
-0.28
-0.56
-0.78
-0.90
-0.94
-0.93
-0.92
-0.90
-0.87
-0.81
-0.70
-0.54
-0.32
-0.07
0.18
0.40
0.55
0.61
0.60
0.55
0.45
0.31
0.09
-0.20
-0.49
-0.66
-0.64
-0.41
-0.08
0.19
0.29
0.19
-0.04
-0.28
-0.45
-0.55
-0.63
-0.72
-0.80
-0.78
-0.58
-0.20
0.27
0.65
0.77
0.58
0.15
-0.34
-0.68
-0.75
-0.57
-0.24
0.09
0.32
0.43
0.47
0.50
0.52
0.49
0.39
0.22
0.06
0.02
0.15
0.38
0.59
0.63
0.47
0.16
-0.14
-0.26
-0.16
0.13
0.46
0.66
0.65
0.44
0.12
-0.18
-0.35
-0.38
-0.31
-0.18
-0.06
0.05
0.15
0.22
0.24
0.17
0.01
-0.22
-0.44
-0.55
-0.53
-0.37
-0.15
0.06
0.21
0.27
0.23
0.12
-0.01
-0.12
-0.18
-0.16
-0.10
-0.04
-0.04
-0.13
-0.26
-0.36
-0.36
-0.20
0.09
0.47
0.82
1.08
1.19
1.11
0.87
0.52
0.16
-0.12
-0.26
-0.24
-0.13
-0.02
0.03
0.01
-0.03
-0.04
0.01
0.11
0.21
0.26
0.26
0.25
0.26
0.29
0.29
0.18
-0.06
-0.38
-0.65
-0.76
-0.67
-0.46
-0.25
-0.16
-0.24
-0.43
-0.62
-0.75
-0.77
-0.73
-0.65
-0.55
-0.42
-0.24
-0.01
0.24
0.47
0.65
0.76
0.79
0.73
0.61
0.47
0.37
0.35
0.45
0.60
0.69
0.63
0.40
0.04
-0.31
-0.54
-0.60
-0.56
-0.53
-0.58
-0.72
-0.86
-0.88
-0.73
-0.50
-0.33
-0.33
-0.52
-0.80
-0.99
-1.00
-0.85
-0.64
-0.50
-0.49
-0.56
-0.62
-0.59
-0.45
-0.24
-0.01
0.24
0.50
0.76
0.99
1.13
1.12
0.97
0.73
0.51
0.35
0.31
0.35
0.43
0.50
0.51
0.46
0.39
0.32
0.29
0.30
0.32
0.32
0.28
0.21
0.15
0.15
0.23
0.35
0.46
0.50
0.45
0.33
0.21
0.12
0.07
0.02
-0.05
-0.17
-0.32
-0.46
-0.56
-0.61
-0.61
-0.60
-0.55
-0.46
-0.33
-0.20
-0.16
-0.26
-0.52
-0.84
-1.10
-1.18
-1.04
-0.71
-0.29
0.16
0.55
0.81
0.88
0.74
0.42
0.03
-0.28
-0.40
-0.29
-0.02
0.31
0.59
0.79
0.89
0.91
0.84
0.68
0.44
0.15
-0.09
-0.20
-0.16
-0.05
0.06
0.08
0.01
-0.10
-0.19
-0.20
-0.17
-0.15
-0.19
-0.27
-0.30
-0.18
0.11
0.52
0.91
1.11
1.06
0.78
0.42
0.10
-0.09
-0.16
-0.14
-0.10
-0.05
0.01
0.07
0.12
0.11
0.02
-0.16
-0.35
-0.46
-0.45
-0.30
-0.09
0.06
0.09
0.02
-0.07
-0.09
0.02
0.22
0.41
0.50
0.44
0.26
0.06
-0.06
-0.08
-0.01
0.09
0.15
0.16
0.14
0.12
0.14
0.19
0.27
0.37
0.47
0.55
0.56
0.45
0.20
-0.19
-0.61
-0.93
-1.02
-0.83
-0.41
0.13
0.61
0.91
0.95
0.77
0.43
0.08
-0.19
-0.31
-0.31
-0.26
-0.27
-0.41
-0.66
-0.95
-1.21
-1.40
-1.53
-1.68
-1.91
-2.21
-2.53
-2.78
-2.91
-2.92
-2.88
-2.89
-3.03
-3.31
-3.70
-4.16
-4.61
-5.03
-5.41
-5.76
-6.12
-6.54
-7.07
-7.79
-8.77
-10.05
-11.65
-13.48
-15.43
-17.32
-19.04
-20.55
-22.03
-23.72
-25.90
-28.67
-31.95
-35.42
-38.72
-41.63
-44.21
-46.84
-50.00
-54.06
-59.08
-64.78
-70.65
-76.27
-81.40
-86.11
-90.66
-95.26
-100.19
-105.77
-112.53
-120.94
-130.90
-140.91
-148.06
-148.72
-140.10
-121.44
-94.22
-61.24
-25.24
11.90
48.82
83.72
113.60
134.76
144.31
141.93
130.39
114.63
99.49
87.78
79.56
72.98
65.95
57.33
47.16
35.96
24.11
11.93
0.39
-8.09
-9.72
-0.65
20.96
53.48
91.72
128.70
158.16
176.73
184.44
183.78
178.02
169.81
160.97
152.97
147.62
146.87
151.83
161.45
171.81
176.78
169.71
146.00
105.17
51.57
-6.81
-60.89
-103.53
-131.54
-146.00
-150.84
-150.60
-148.57
-146.03
-142.80
-138.43
-133.15
-128.14
-124.93
-124.67
-127.42
-132.23
-137.53
-141.71
-143.40
-141.59
-135.75
-125.82
-112.46
-96.95
-80.86
-65.36
-50.79
-36.50
-21.50
-5.26
11.66
27.65
40.90
50.53
57.14
62.51
68.40
75.45
82.67
87.99
89.48
86.50
80.04
72.20
65.08
59.80
56.20
53.20
49.69
45.11
39.77
34.48
30.06
26.92
24.89
23.35
21.50
18.78
15.09
10.83
6.74
3.60
1.93
1.85
3.08
5.11
7.43
9.73
11.96
14.32
17.15
20.83
25.63
31.63
38.60
46.08
53.45
60.26
66.35
72.06
78.02
84.93
93.12
102.40
111.98
120.78
127.80
132.47
134.90
135.84
136.45
138.12
141.94
148.11
155.47
161.18
161.07
150.71
126.97
89.63
42.24
-8.53
-54.65
-89.36
-109.15
-114.54
-109.22
-98.02
-85.08
-72.58
-60.91
-49.46
-37.66
-25.38
-12.92
-0.77
10.37
19.35
24.35
23.21
14.35
-2.24
-24.56
-48.91
-71.11
-87.93
-98.04
-102.05
-101.83
-99.49
-96.54
-93.68
-90.94
-88.12
-85.07
-81.70
-77.97
-73.76
-68.92
-63.33
-57.19
-51.00
-45.45
-41.13
-38.26
-36.55
-35.33
-33.85
-31.57
-28.36
-24.48
-20.46
-16.87
-14.13
-12.38
-11.47
-11.02
-10.59
-9.88
-8.86
-7.79
-7.05
-6.94
-7.51
-8.46
-9.35
-9.76
-9.49
-8.59
-7.36
-6.10
-5.03
-4.25
-3.72
-3.40
-3.27
-3.35
-3.62
-4.06
-4.58
-5.08
-5.53
-5.88
-6.15
-6.32
-6.32
-6.08
-5.55
-4.76
-3.84
-2.96
-2.28
-1.87
-1.69
-1.64
-1.58
-1.43
-1.14
-0.72
-0.20
0.37
0.98
1.56
2.05
2.37
2.45
2.26
1.88
1.42
1.05
0.90
0.98
1.20
1.42
1.53
1.53
1.48
1.50
1.61
1.78
1.86
1.73
1.38
0.89
0.45
0.24
0.32
0.64
1.03
1.32
1.42
1.35
1.18
1.00
0.80
0.57
0.28
-0.06
-0.40
-0.71
-1.03
-1.46
-2.11
-3.00
-4.02
-4.99
-5.76
-6.27
-6.56
-6.74
-6.91
-7.12
-7.37
-7.70
-8.13
-8.72
-9.42
-10.17
-10.87
-11.50
-12.11
-12.85
-13.84
-15.12
-16.63
-18.22
-19.80
-21.35
-22.99
-24.87
-27.12
-29.77
-32.74
-35.92
-39.21
-42.55
-46.00
-49.72
-53.86
-58.49
-63.53
-68.77
-73.97
-79.05
-84.13
-89.53
-95.54
-102.26
-109.50
-117.05
-124.90
-133.39
-142.72
-152.23
-159.89
-162.30
-155.65
-137.21
-106.34
-64.74
-15.51
38.07
93.39
148.51
201.48
249.82
290.57
320.99
339.34
345.43
340.46
326.59
306.39
282.57
257.84
234.80
215.83
202.78
196.43
195.88
198.31
199.04
192.44
173.64
140.52
95.23
43.79
-5.98
-47.51
-77.76
-97.68
-110.60
-119.76
-126.49
-130.13
-129.30
-123.60
-114.40
-104.31
-95.81
-89.96
-86.02
-82.26
-77.18
-70.49
-63.17
-56.80
-52.69
-51.11
-51.22
-51.47
-50.46
-47.60
-43.31
-38.80
-35.40
-33.90
-34.17
-35.31
-36.11
-35.69
-33.78
-30.77
-27.40
-24.33
-21.90
-20.03
-18.38
-16.55
-14.28
-11.54
-8.46
-5.35
-2.50
-0.19
1.40
2.21
2.33
1.89
1.10
0.11
-0.92
-1.88
-2.68
-3.18
-3.30
-3.02
-2.41
-1.68
-1.06
-0.72
-0.71
-0.89
-1.06
-1.02
-0.63
0.10
1.12
2.32
3.59
4.80
5.78
6.39
6.54
6.24
5.63
4.87
4.10
3.34
2.49
1.44
0.16
-1.30
-2.75
-3.97
-4.81
-5.25
-5.38
-5.33
-5.21
-5.05
-4.86
-4.64
-4.42
-4.27
-4.21
-4.21
-4.18
-4.02
-3.69
-3.23
-2.76
-2.35
-2.03
-1.77
-1.50
-1.17
-0.81
-0.43
-0.07
0.25
0.53
0.77
0.93
0.97
0.83
0.54
0.17
-0.17
-0.37
-0.34
-0.10
0.24
0.57
0.76
0.77
0.61
0.36
0.08
-0.16
-0.35
-0.45
-0.48
-0.43
-0.36
-0.34
-0.46
-0.73
-1.07
-1.34
-1.38
-1.13
-0.64
-0.10
0.31
0.51
0.53
0.50
0.54
0.68
0.83
0.87
0.71
0.35
-0.12
-0.59
-0.99
-1.31
-1.58
-1.84
-2.10
-2.36
-2.58
-2.70
-2.69
-2.54
-2.27
-1.96
-1.69
-1.50
-1.37
-1.18
-0.81
-0.20
0.63
1.57
2.48
3.25
3.82
4.17
4.34
4.33
4.17
3.91
3.62
3.38
3.28
3.33
3.50
3.70
3.81
3.77
3.57
3.26
2.94
2.66
2.41
2.08
1.56
0.73
-0.38
-1.63
-2.78
