1660932888.00
64.000000
-0.00
-0.00
-0.00
-0.00
-0.00
-0.00
-0.00
-0.00
-0.00
-0.00
0.00
0.01
0.01
-0.00
-0.03
-0.05
-0.05
0.00
0.13
0.36
0.66
1.01
1.37
1.72
2.06
2.40
2.79
3.25
3.81
4.44
5.09
5.73
6.32
6.91
7.53
8.27
9.15
10.25
11.44
12.63
13.70
14.64
15.53
16.54
17.90
19.73
22.22
25.13
28.20
31.14
33.86
36.46
39.31
42.83
47.29
52.99
59.53
66.37
73.00
79.19
85.15
91.47
98.81
107.57
118.09
129.68
141.53
152.87
163.44
173.60
184.17
196.46
208.87
223.23
239.79
258.52
278.44
297.16
310.93
315.47
307.38
285.28
250.85
207.31
158.76
108.73
59.42
11.86
-33.59
-76.67
-117.11
-154.64
-189.97
-224.50
-259.84
-296.88
-334.78
-370.58
-399.71
-417.60
-421.21
-410.54
-388.61
-360.29
-330.40
-302.14
-276.55
-253.06
-230.72
-209.00
-188.26
-169.23
-152.34
-137.35
-123.45
-109.75
-95.79
-81.70
-68.14
-55.91
-45.56
-37.11
-30.08
-23.75
-17.48
-11.02
-4.54
1.45
6.47
10.27
12.94
14.90
16.61
18.38
20.28
22.15
23.73
24.86
25.49
25.71
25.68
25.52
25.33
25.17
25.03
24.89
24.69
24.34
23.78
22.98
21.99
20.91
19.89
19.06
18.48
18.14
17.91
17.63
17.17
16.54
15.81
15.15
14.65
14.33
14.12
13.90
13.58
13.17
12.72
12.32
12.00
11.74
11.46
11.11
10.68
10.24
9.92
9.78
9.83
9.97
10.05
9.95
9.63
9.18
8.73
8.38
8.16
8.01
7.82
7.52
7.09
6.57
6.03
5.52
5.09
4.78
4.60
4.49
4.36
4.12
3.69
3.13
2.54
2.06
1.78
1.68
1.66
1.60
1.40
1.07
0.61
0.06
-0.57
-1.26
-2.00
-2.72
-3.33
-3.82
-4.20
-4.55
-4.96
-5.47
-6.05
-6.61
-7.06
-7.36
-7.52
-7.63
-7.74
-7.90
-8.09
-8.24
-8.28
-8.17
-7.89
-7.43
-6.81
-6.06
-5.27
-4.54
-3.98
-3.66
-3.53
-3.44
-3.23
-2.77
-2.05
-1.19
-0.34
0.36
0.84
1.16
1.41
1.69
2.05
2.49
2.93
3.27
3.45
3.45
3.34
3.17
3.00
2.84
2.68
2.50
2.32
2.20
2.20
2.36
2.65
3.01
3.35
3.61
3.80
3.95
4.10
4.23
4.30
4.26
4.12
3.92
3.75
3.67
3.71
3.83
3.95
4.03
4.03
3.98
3.89
3.76
3.59
3.39
3.20
3.08
3.09
3.24
3.49
3.76
3.95
3.98
3.80
3.45
3.02
2.65
2.43
2.41
2.57
2.82
3.04
3.13
3.03
2.76
2.37
1.96
1.65
1.53
1.63
1.90
2.20
2.36
2.27
1.91
1.41
0.96
0.72
0.74
0.97
1.24
1.45
1.54
1.54
1.54
1.59
1.65
1.63
1.43
1.03
0.54
0.11
-0.10
-0.03
0.25
0.59
0.83
0.91
0.88
0.86
0.93
1.12
1.38
1.59
1.70
1.72
1.69
1.64
1.55
1.36
1.04
0.64
0.29
0.11
0.15
0.35
0.59
0.75
0.79
0.74
0.71
0.74
0.87
1.03
1.15
1.16
1.04
0.81
0.55
0.32
0.18
0.13
0.16
0.23
0.29
0.35
0.45
0.57
0.73
0.88
0.98
1.03
1.01
0.94
0.84
0.73
0.63
0.54
0.47
0.40
0.31
0.19
0.08
0.00
0.02
0.11
0.20
0.24
0.17
0.05
-0.04
-0.00
0.15
0.36
0.50
0.53
0.46
0.39
0.44
0.62
0.89
1.14
1.29
1.30
1.20
1.06
0.94
0.86
0.81
0.75
0.70
0.65
0.64
0.71
0.83
1.00
1.16
1.27
1.32
1.32
1.33
1.38
1.49
1.61
1.67
1.58
1.33
0.97
0.63
0.40
0.34
0.41
0.49
0.48
0.32
0.02
-0.30
-0.55
-0.67
-0.65
-0.53
-0.35
-0.14
0.11
0.39
0.67
0.90
1.01
0.93
0.66
0.25
-0.16
-0.40
-0.34
0.01
0.55
1.07
1.41
1.51
1.42
1.26
1.09
0.92
0.71
0.46
0.24
0.17
0.35
0.75
1.23
1.58
1.66
1.43
1.01
0.58
0.30
0.26
0.40
0.60
0.73
0.72
0.59
0.42
0.28
0.21
0.14
-0.03
-0.35
-0.79
-1.22
-1.52
-1.63
-1.55
-1.37
-1.17
-0.99
-0.82
-0.67
-0.53
-0.43
-0.38
-0.39
-0.43
-0.45
-0.41
-0.27
-0.03
0.29
0.63
0.86
0.91
0.72
0.36
-0.04
-0.32
-0.38
-0.23
0.06
0.41
0.77
1.09
1.36
1.50
1.41
1.09
0.60
0.12
-0.15
-0.15
0.03
0.22
0.22
-0.02
-0.41
-0.75
-0.90
-0.82
-0.64
-0.50
-0.51
-0.66
-0.89
-1.08
-1.19
-1.22
-1.22
-1.20
-1.18
-1.11
-0.99
-0.80
-0.60
-0.44
-0.35
-0.31
-0.25
-0.12
0.07
0.28
0.41
0.43
0.37
0.32
0.35
0.48
0.65
0.76
0.73
0.59
0.42
0.35
0.47
0.75
1.14
1.53
1.88
2.18
2.45
2.75
3.07
3.37
3.57
3.54
3.23
2.63
1.88
1.15
0.63
0.39
0.39
0.53
0.70
0.83
0.95
1.10
1.29
1.45
1.46
1.22
0.70
-0.02
-0.79
-1.45
-1.87
-2.03
-1.96
-1.74
-1.45
-1.16
-0.89
-0.69
-0.60
-0.66
-0.87
-1.21
-1.61
-2.00
-2.31
-2.55
-2.72
-2.89
-3.07
-3.28
-3.49
-3.69
-3.82
-3.87
-3.83
-3.73
-3.63
-3.59
-3.66
-3.85
-4.18
-4.67
-5.39
-6.41
-7.82
-9.64
-11.77
-14.05
-16.29
-18.39
-20.38
-22.51
-25.09
-28.41
-32.56
-37.40
-42.56
-47.60
-52.21
-56.42
-60.60
-65.33
-71.10
-78.06
-85.83
-93.68
-100.81
-106.75
-111.61
-116.10
-121.14
-127.46
-135.37
-144.74
-155.07
-165.49
-174.58
-180.18
-179.59
-170.23
-150.53
-120.62
-82.25
-37.88
10.51
62.07
116.62
173.35
229.71
281.17
322.56
350.16
363.44
365.34
361.03
355.73
352.93
353.71
357.16
361.42
364.49
364.53
359.68
348.14
328.39
299.79
263.01
219.81
172.43
122.65
71.35
18.75
-34.60
-86.89
-134.83
-174.36
-202.10
-216.74
-219.55
-213.77
-203.29
-191.25
-179.35
-168.05
-157.31
-147.27
-138.38
-131.09
-125.36
-120.52
-115.51
-109.47
-102.16
-94.06
-86.12
-79.26
-73.91
-69.87
-66.37
-62.52
-57.67
-51.72
-45.16
-38.76
-33.26
-29.00
-25.86
-23.37
-20.99
-18.32
-15.24
-11.84
-8.37
-5.16
-2.39
0.03
2.60
6.02
10.83
16.96
23.53
29.01
31.85
31.16
27.13
20.88
13.97
7.72
2.81
-0.67
-2.94
-4.24
-4.71
-4.51
-3.92
-3.32
-3.10
-3.45
-4.32
-5.49
-6.65
-7.59
-8.20
-8.50
-8.58
-8.52
-8.37
-8.18
-7.93
-7.58
-7.07
-6.35
-5.40
-4.32
-3.24
-2.35
-1.76
-1.47
-1.34
-1.17
-0.82
-0.25
0.38
0.85
0.95
0.57
-0.18
-1.09
-1.90
-2.45
-2.71
-2.73
-2.66
-2.54
-2.38
-2.12
-1.70
-1.12
-0.52
-0.02
0.25
0.30
0.24
0.27
0.52
1.04
1.69
2.31
2.71
2.81
2.61
2.18
1.60
0.97
0.36
-0.15
-0.51
-0.69
-0.73
-0.70
-0.65
-0.63
-0.67
-0.78
-0.94
-1.14
-1.37
-1.58
-1.72
-1.75
-1.63
-1.39
-1.08
-0.79
-0.59
-0.54
-0.62
-0.75
-0.79
-0.65
-0.31
0.15
0.59
0.90
1.09
1.24
1.48
1.88
2.37
2.80
3.05
3.07
2.96
2.86
2.89
3.02
3.12
3.01
2.55
1.71
0.59
-0.62
-1.75
-2.66
-3.27
-3.59
-3.70
-3.65
-3.50
-3.25
-2.85
-2.26
-1.45
-0.42
0.74
1.94
3.07
4.01
4.70
5.14
5.36
5.44
5.46
5.45
5.37
5.08
4.46
3.45
2.13
0.74
-0.42
-1.16
-1.43
-1.38
-1.26
-1.25
-1.37
-1.47
-1.42
-1.16
-0.81
-0.59
-0.68
-1.13
-1.79
-2.47
-3.00
-3.33
-3.55
-3.76
-4.05
-4.43
-4.83
-5.15
-5.31
-5.22
-4.90
-4.44
-3.99
-3.73
-3.77
-4.14
-4.72
-5.33
-5.80
-6.02
-5.93
-5.51
-4.69
-3.41
-1.65
0.49
2.82
5.04
6.86
8.09
8.63
8.55
8.03
7.27
6.51
5.89
5.47
5.23
5.07
4.95
4.84
4.77
4.77
4.81
4.84
4.80
4.66
4.48
4.32
4.20
4.05
3.72
3.08
2.12
1.00
-0.00
-0.61
-0.69
-0.31
0.23
0.60
0.54
-0.03
-1.00
-2.14
-3.26
-4.21
-4.96
-5.48
-5.74
-5.71
-5.35
-4.72
-3.95
-3.23
-2.72
-2.51
-2.57
-2.79
-3.04
-3.20
-3.23
-3.11
-2.88
-2.57
-2.22
-1.85
-1.45
-1.04
-0.60
-0.14
0.29
0.65
0.87
0.90
0.75
0.45
0.07
-0.31
-0.62
-0.82
-0.90
-0.90
-0.84
-0.73
-0.59
-0.41
-0.18
0.13
0.51
0.90
1.26
1.55
1.76
1.97
2.21
2.50
2.77
2.93
2.88
2.62
2.24
1.84
1.49
1.19
0.92
0.65
0.43
0.33
0.39
0.59
0.82
1.00
1.06
0.99
0.79
0.45
-0.01
-0.51
-0.93
-1.13
-0.98
-0.51
0.15
0.79
1.19
1.25
1.00
0.57
0.16
-0.07
-0.08
0.10
0.34
0.46
0.37
0.06
-0.38
-0.78
-0.99
-0.95
-0.72
-0.38
-0.06
0.17
0.27
0.23
0.07
-0.20
-0.54
-0.86
-1.08
-1.11
-0.96
-0.70
-0.48
-0.39
-0.47
-0.61
-0.68
-0.54
-0.12
0.50
1.17
1.71
1.96
1.82
1.28
0.36
-0.90
-2.44
-4.20
-6.03
-7.74
-9.12
-10.03
-10.49
-10.63
-10.60
-10.44
-9.99
-8.94
-7.05
-4.24
-0.68
3.31
7.42
11.43
15.13
18.16
20.03
20.23
18.53
15.22
11.14
7.32
4.60
3.23
2.85
2.81
2.57
2.03
1.43
1.17
1.42
2.00
2.47
2.38
1.59
0.25
-1.22
-2.42
-3.15
-3.42
-3.41
-3.28
-3.18
-3.12
-3.08
-3.05
-3.01
-2.95
-2.86
-2.72
-2.53
-2.26
-1.94
-1.53
-0.99
-0.30
0.47
1.21
1.73
1.88
1.64
1.09
0.40
-0.24
-0.73
-1.02
-1.16
-1.16
-1.07
-0.89
-0.68
-0.51
-0.54
-0.86
-1.54
-2.53
-3.70
-4.89
-5.93
-6.71
-7.21
-7.43
-7.43
-7.27
-7.01
-6.69
-6.30
-5.83
-5.29
-4.71
-4.09
-3.40
-2.51
-1.23
0.60
2.97
5.62
8.08
9.86
10.62
10.38
9.45
8.27
7.19
6.31
5.53
4.66
3.57
2.36
1.24
0.50
0.33
0.73
1.50
2.35
2.98
3.17
2.84
2.05
0.97
-0.22
-1.37
-2.38
-3.21
-3.82
-4.16
-4.14
-3.75
-3.02
-2.12
-1.28
-0.73
-0.61
-0.87
-1.33
-1.68
-1.68
-1.21
-0.33
0.78
1.85
2.67
3.10
3.12
2.80
2.25
1.61
0.97
0.39
-0.14
-0.68
-1.25
-1.90
-2.65
-3.50
-4.41
-5.31
-6.09
-6.60
-6.76
-6.52
-5.98
-5.27
-4.56
-3.95
-3.47
-3.06
-2.66
-2.16
-1.48
-0.55
0.70
2.26
4.04
5.82
7.28
8.13
8.15
7.30
5.69
3.61
1.38
-0.69
-2.43
-3.80
-4.80
-5.47
-5.77
-5.59
-4.85
-3.54
-1.82
0.03
1.64
2.79
3.38
3.49
3.26
2.81
2.12
1.14
-0.17
-1.67
-3.06
-3.94
-3.95
-2.99
-1.24
0.85
2.75
4.08
4.70
4.73
4.48
4.22
4.09
3.99
3.73
3.13
2.13
0.87
-0.43
-1.49
-2.16
-2.35
-2.07
-1.32
-0.10
1.57
3.60
5.77
7.78
9.33
10.20
10.37
9.96
9.13
8.06
6.87
5.63
4.40
3.28
2.33
1.63
1.20
1.03
1.14
1.52
2.14
2.96
3.86
4.71
5.40
5.83
5.90
5.54
4.70
3.44
1.93
0.51
-0.50
-0.96
-1.03
-1.19
-1.95
-3.58
-5.94
-8.51
-10.70
-12.10
-12.68
-12.69
-12.45
-12.13
-11.72
-11.07
-10.09
-8.88
-7.67
-6.69
-6.05
-5.65
-5.23
-4.52
-3.39
-1.93
-0.40
0.90
1.77
2.17
2.24
2.19
2.17
2.24
2.37
2.46
2.45
2.31
2.00
1.52
0.90
0.22
-0.42
-0.86
-1.00
-0.85
-0.50
-0.09
0.26
0.51
0.68
0.82
0.94
1.00
0.91
0.64
0.19
-0.37
-0.93
-1.42
-1.81
-2.10
-2.27
-2.30
-2.12
-1.66
-0.93
-0.02
0.91
1.70
2.27
2.66
3.03
3.55
4.26
5.04
5.61
5.69
5.12
3.99
2.59
1.24
0.21
-0.47
-0.87
-1.13
-1.34
-1.47
-1.47
-1.35
-1.15
-0.99
-0.92
-0.98
-1.10
-1.21
-1.24
-1.16
-1.01
-0.85
-0.75
-0.75
-0.86
-1.00
-1.07
-1.00
-0.79
-0.52
-0.32
-0.33
-0.58
-1.02
-1.54
-2.04
-2.45
-2.76
-2.93
-2.92
-2.67
-2.14
-1.35
-0.39
0.56
1.32
1.75
1.85
1.73
1.57
1.58
1.88
2.45
3.16
3.81
4.20
4.22
3.86
3.23
2.49
1.78
1.19
0.72
0.34
-0.00
-0.33
-0.57
-0.62
-0.40
0.11
0.85
1.74
2.65
3.46
4.08
4.39
4.30
3.79
2.97
2.05
1.30
0.91
0.94
1.26
1.67
1.96
2.02
1.85
1.55
1.18
0.70
0.04
-0.88
-2.06
-3.33
-4.42
-5.03
-4.99
-4.34
-3.34
-2.34
-1.64
-1.37
-1.50
-1.87
-2.32
-2.74
-3.06
-3.21
-3.09
-2.62
-1.80
-0.77
0.18
0.74
0.69
0.02
-1.03
-2.07
-2.74
-2.81
-2.31
-1.46
-0.59
0.03
0.21
-0.06
-0.71
-1.58
-2.50
-3.34
-4.01
-4.49
-4.83
-5.11
-5.40
-5.71
-5.99
-6.18
-6.23
-6.17
-6.04
-5.84
-5.47
-4.76
-3.58
-1.95
-0.02
2.02
4.03
6.05
8.12
10.18
11.94
12.95
12.80
11.42
9.13
6.55
4.32
2.84
2.16
2.05
2.18
2.31
2.38
2.41
2.43
2.44
2.38
2.23
1.98
1.69
1.43
1.23
1.08
0.95
0.79
0.58
0.33
0.05
-0.26
-0.61
-0.99
-1.32
-1.52
-1.51
-1.29
-0.94
-0.58
-0.29
-0.06
0.14
0.37
0.63
0.83
0.88
0.71
0.39
0.01
-0.28
-0.42
-0.44
-0.45
-0.57
-0.89
-1.42
-2.08
-2.76
-3.38
-3.90
-4.34
-4.78
-5.26
-5.80
-6.37
-6.87
-7.21
-7.33
-7.20
-6.83
-6.26
-5.55
-4.74
-3.90
-3.05
-2.13
-1.05
0.40
2.37
4.89
7.80
10.73
13.18
14.68
14.95
13.99
12.04
9.52
6.86
4.42
2.43
1.01
0.17
-0.17
-0.13
0.13
0.44
0.65
0.66
0.44
0.02
-0.55
-1.20
-1.87
-2.45
-2.86
-3.02
-2.89
-2.51
-2.02
-1.58
-1.32
-1.28
-1.40
-1.59
-1.75
-1.86
-1.95
-2.06
-2.20
-2.34
-2.43
-2.43
-2.36
-2.26
-2.11
-1.84
-1.35
-0.58
0.41
1.45
2.29
2.73
2.71
2.31
1.72
1.14
0.73
0.55
0.56
0.69
0.84
0.93
0.92
0.82
0.69
0.62
0.67
0.83
1.06
1.27
1.40
1.48
1.55
1.68
1.90
2.25
2.74
3.42
4.36
5.54
6.77
7.72
8.00
7.38
5.92
3.99
2.12
0.73
-0.05
-0.41
-0.71
-1.25
-2.07
-3.04
-3.89
-4.43
-4.68
-4.75
-4.82
-4.93
-5.02
-4.97
-4.71
-4.30
-3.92
-3.75
-3.90
-4.28
-4.68
-4.82
-4.56
-3.95
-3.18
-2.55
-2.26
-2.39
-2.85
-3.46
-4.02
-4.38
-4.46
-4.21
-3.62
-2.78
-1.81
-0.93
-0.32
-0.05
-0.01
0.00
0.22
0.76
1.55
2.43
3.22
3.79
4.15
4.31
4.29
4.06
3.58
2.89
2.10
1.44
1.10
1.16
1.55
2.06
2.40
2.34
1.83
0.99
0.10
-0.50
-0.59
-0.10
0.79
1.78
2.50
2.69
2.22
1.17
-0.21
-1.61
-2.70
-3.29
-3.36
-3.02
-2.51
-2.06
-1.81
-1.79
-1.88
-1.94
-1.83
-1.49
-1.01
-0.52
-0.17
-0.03
-0.07
-0.23
-0.44
-0.69
-1.05
-1.58
-2.24
-2.89
-3.32
-3.33
-2.89
-2.18
-1.44
-0.91
-0.66
-0.64
-0.70
-0.78
-0.90
-1.15
-1.53
-1.93
-2.12
-1.90
-1.20
-0.18
0.82
1.45
1.51
1.08
0.45
0.03
0.14
0.84
1.95
3.16
4.15
4.75
5.02
5.07
5.05
4.93
4.64
4.11
3.42
2.80
2.49
2.64
3.11
3.59
3.73
3.32
2.41
1.31
0.39
-0.04
0.07
0.53
1.01
1.14
0.76
-0.08
-1.09
-1.90
-2.20
-1.92
-1.17
-0.23
0.61
1.19
1.49
1.61
1.64
1.60
1.42
0.99
0.26
-0.67
-1.56
-2.13
-2.16
-1.61
-0.71
0.21
0.80
0.89
0.50
-0.16
-0.87
-1.45
-1.85
-2.09
-2.19
-2.13
-1.88
-1.46
-0.96
-0.57
-0.44
-0.65
-1.10
-1.59
-1.89
-1.85
-1.47
-0.89
-0.30
0.09
0.18
-0.05
-0.52
-1.11
-1.69
-2.19
-2.61
-3.00
-3.41
-3.89
-4.42
-4.93
-5.36
-5.63
-5.76
-5.79
-5.75
-5.65
-5.42
-5.00
-4.39
-3.64
-2.83
-1.95
-0.84
0.78
3.17
6.33
9.92
13.29
15.73
16.78
16.44
15.12
13.37
11.64
10.10
8.68
7.30
5.98
4.90
4.20
3.86
3.62
3.15
2.20
0.84
-0.60
-1.69
-2.17
-2.04
-1.55
-1.04
-0.77
-0.81
-1.09
-1.47
-1.84
-2.14
-2.40
-2.64
-2.89
-3.17
-3.43
-3.63
-3.69
-3.53
-3.13
-2.52
-1.81
-1.10
-0.50
-0.06
0.20
0.26
0.05
-0.45
-1.23
-2.19
-3.08
-3.67
-3.79
-3.47
-2.91
-2.40
-2.19
-2.38
-2.91
-3.65
-4.46
-5.27
-6.03
-6.70
-7.22
-7.51
-7.56
-7.42
-7.26
-7.22
-7.36
-7.64
-7.88
-7.92
-7.61
-6.88
-5.65
-3.83
-1.37
1.69
5.03
8.13
10.45
11.58
11.45
10.36
8.82
7.27
5.97
4.89
3.93
2.99
2.15
1.56
1.41
1.74
2.43
3.22
3.83
4.04
3.81
3.20
2.40
1.58
0.86
0.30
-0.11
-0.41
-0.66
-0.88
-1.09
-1.25
-1.35
-1.34
-1.20
-0.90
-0.46
0.14
0.88
1.73
2.59
3.35
3.86
4.00
3.74
3.12
2.28
1.41
0.66
0.12
-0.18
-0.31
-0.36
-0.44
-0.62
-0.96
-1.42
-1.96
-2.50
-2.96
-3.30
-3.47
-3.46
-3.29
-2.98
-2.58
-2.14
-1.66
-1.13
-0.53
0.13
0.79
1.37
1.81
2.11
2.34
2.63
3.04
3.54
3.99
4.18
3.99
3.38
2.47
1.49
0.65
0.10
-0.17
-0.26
-0.28
-0.33
-0.37
-0.34
-0.13
0.26
0.78
1.26
1.56
1.58
1.29
0.73
-0.00
-0.83
-1.69
-2.51
-3.20
-3.66
-3.81
-3.61
-3.14
-2.55
-2.05
-1.80
-1.87
-2.18
-2.62
-3.05
-3.39
-3.61
-3.74
-3.84
-3.89
-3.87
-3.71
-3.32
-2.63
-1.62
-0.34
1.07
2.48
3.76
4.84
5.72
6.41
6.87
7.06
6.90
6.42
5.72
4.97
4.36
3.98
3.79
3.67
3.45
2.99
2.28
1.41
0.55
-0.14
-0.54
-0.55
-0.19
0.50
1.34
2.08
2.47
2.28
1.48
0.21
-1.18
-2.36
-3.09
-3.37
-3.39
-3.41
-3.62
-4.04
-4.57
-5.04
-5.31
-5.30
-5.00
-4.41
-3.60
-2.68
-1.79
-1.11
-0.74
-0.69
-0.88
-1.15
-1.37
-1.48
-1.42
-1.17
-0.72
-0.11
0.57
1.14
1.46
1.44
1.16
0.76
0.42
0.19
0.02
-0.23
-0.67
-1.26
-1.85
-2.24
-2.31
-2.06
-1.65
-1.20
-0.82
-0.46
-0.02
0.60
1.38
2.21
2.88
3.26
3.33
3.15
2.84
2.47
2.04
1.50
0.87
0.21
-0.38
-0.80
-1.03
-1.14
-1.17
-1.20
-1.19
-1.13
-1.02
-0.87
-0.70
-0.49
-0.17
0.34
0.99
1.63
2.05
2.10
1.75
1.16
0.57
0.16
0.01
0.05
0.17
0.29
0.39
0.50
0.64
0.78
0.91
0.98
0.97
0.91
0.81
0.69
0.56
0.43
0.31
0.23
0.23
0.33
0.52
0.76
0.96
0.99
0.79
0.35
-0.20
-0.67
-0.87
-0.73
-0.31
0.18
0.54
0.65
0.52
0.30
0.14
0.16
0.38
0.76
1.24
1.73
2.14
2.41
2.45
2.19
1.60
0.68
-0.51
-1.82
-3.09
-4.14
-4.84
-5.15
-5.15
-4.98
-4.81
-4.73
-4.78
-4.88
-4.97
-4.97
-4.86
-4.59
-4.03
-3.04
-1.54
0.39
2.42
4.10
5.04
5.04
4.27
3.18
2.26
1.83
1.91
2.24
2.52
2.58
2.50
2.52
2.86
3.58
4.50
5.32
5.73
5.59
4.94
3.98
2.94
1.97
1.15
0.48
-0.03
-0.36
-0.51
-0.53
-0.51
-0.53
-0.62
-0.74
-0.77
-0.64
-0.30
0.19
0.72
1.18
1.51
1.65
1.57
1.21
0.55
-0.39
-1.48
-2.54
-3.37
-3.82
-3.87
-3.57
-3.08
-2.58
-2.23
-2.12
-2.25
-2.56
-2.92
-3.27
-3.59
-3.95
-4.42
-5.01
-5.64
-6.17
-6.47
-6.46
-6.20
-5.80
-5.39
-5.02
-4.66
-4.20
-3.55
-2.65
-1.51
-0.17
1.34
2.99
4.75
6.48
7.92
8.83
9.00
8.43
7.34
6.04
4.85
3.91
3.18
2.53
1.90
1.35
1.09
1.30
2.05
3.17
4.33
5.20
5.51
5.21
4.38
3.16
1.73
0.27
-1.05
-2.10
-2.75
-3.02
-3.02
-2.94
-2.94
-3.09
-3.31
-3.48
-3.43
-3.10
-2.43
-1.43
-0.11
1.45
3.06
4.46
5.33
5.46
4.82
3.61
2.13
0.73
-0.38
-1.11
-1.51
-1.65
-1.59
-1.38
-1.07
-0.75
-0.52
-0.52
-0.79
-1.31
-1.97
-2.63
-3.17
-3.51
-3.66
-3.68
-3.61
-3.48
-3.25
-2.89
-2.42
-1.86
-1.32
-0.86
-0.53
-0.29
-0.00
0.49
1.31
2.49
3.89
5.28
6.38
6.95
6.85
6.04
4.66
2.91
1.09
-0.52
-1.66
-2.24
-2.28
-1.95
-1.45
-0.95
-0.51
-0.17
0.06
0.16
0.08
-0.19
-0.59
-1.03
-1.37
-1.59
-1.73
-1.92
-2.24
-2.69
-3.20
-3.61
-3.75
-3.55
-3.02
-2.26
-1.45
-0.80
-0.48
-0.57
-1.00
-1.58
-2.07
-2.28
-2.16
-1.83
-1.45
-1.18
-1.07
-1.08
-1.13
-1.12
-1.00
-0.68
-0.08
0.84
2.07
3.45
4.74
5.72
6.26
6.39
6.23
5.90
5.47
4.92
4.20
3.32
2.36
1.46
0.77
0.39
0.36
0.63
1.12
1.73
2.34
2.79
2.96
2.69
1.91
0.64
-0.95
-2.62
-4.09
-5.17
-5.86
-6.28
-6.67
-7.22
-7.99
-8.92
-9.87
-10.71
-11.41
-12.04
-12.71
-13.51
-14.44
-15.45
-16.51
-17.59
-18.75
-19.98
-21.23
-22.33
-23.08
-23.36
-23.26
-23.06
-23.26
-24.34
-26.68
-30.33
-35.02
-40.23
-45.33
-49.90
-53.86
-57.61
-61.94
-67.65
-75.26
-84.67
-95.14
-105.58
-114.98
-122.87
-129.50
-135.68
-142.34
-150.11
-159.16
-169.27
-180.03
-190.75
-200.35
-207.01
-208.32
-201.85
-185.95
-160.49
-126.91
-87.43
-43.94
2.59
51.74
102.31
151.21
193.42
223.48
237.80
236.49
223.52
205.10
187.07
172.78
162.47
154.35
146.37
137.72
129.03
121.63
116.30
112.66
109.37
105.02
98.95
91.60
84.25
78.23
74.12
71.50
69.22
66.01
61.14
54.76
47.71
41.10
35.79
32.06
29.62
27.86
26.10
23.93
21.25
18.33
15.57
13.38
11.93
11.18
10.86
10.62
10.19
9.51
8.69
8.00
7.68
7.86
8.49
9.39
10.38
11.37
12.37
13.55
15.05
16.92
19.09
21.39
23.68
25.92
28.19
30.65
33.44
36.61
40.09
43.73
47.38
50.90
54.30
57.65
61.16
65.08
69.64
74.93
80.87
87.21
93.64
99.91
105.93
111.78
117.57
123.40
129.47
136.21
144.23
153.77
164.17
173.30
177.78
173.91
158.98
132.25
95.00
49.83
-0.17
-51.94
-102.34
-147.91
-184.97
-210.50
-223.28
-224.60
-217.93
-207.60
-197.13
-188.28
-181.06
-174.62
-168.24
-161.89
-156.05
-151.17
-147.23
-143.84
-140.56
-137.43
-134.98
-134.07
-135.28
-138.50
-142.91
-147.31
-150.71
-152.78
-153.95
-155.15
-157.47
-161.87
-168.96
-178.84
-190.63
-202.31
-210.65
-211.88
-202.78
-181.65
-148.79
-106.09
-56.30
-2.37
52.58
105.06
151.12
186.91
209.81
219.58
218.59
211.05
201.34
192.48
185.52
180.00
175.02
170.15
165.74
162.50
160.85
160.59
161.05
161.54
161.78
161.99
162.65
164.06
166.17
168.77
171.78
175.29
179.07
181.99
181.63
174.67
157.99
129.88
90.66
42.36
-12.33
-70.87
-131.09
-190.69
-246.64
-295.37
-333.52
-359.06
-371.75
-372.65
-363.08
-343.67
-314.23
-274.38
-224.49
-166.47
-103.88
-41.37
16.29
65.17
102.98
129.38
145.84
154.93
159.38
161.28
161.86
161.73
161.45
161.87
163.85
167.88
173.55
179.60
184.46
187.11
187.63
187.35
188.44
192.96
201.77
213.65
225.20
231.56
228.00
211.32
180.89
138.66
88.42
34.88
-17.25
-63.90
-102.21
-131.09
-151.39
-165.57
-176.66
-187.02
-197.44
-207.16
-214.76
-219.32
-221.05
-221.04
-220.42
-219.67
-218.52
-216.55
-213.85
-211.25
-209.84
-210.29
-212.36
-214.92
-216.64
-216.63
-214.60
-210.85
-205.83
-199.82
-192.76
-184.17
-173.14
-158.22
-137.50
-109.02
-71.69
-26.22
24.22
74.41
118.49
151.68
171.71
179.19
176.87
168.31
156.72
144.40
132.78
122.87
115.39
110.77
108.90
108.86
109.14
108.14
104.78
98.83
90.94
82.26
73.89
66.53
60.32
55.04
50.33
46.02
42.14
38.81
36.11
33.96
32.17
30.54
28.95
27.40
25.91
24.47
23.02
21.49
19.93
18.43
17.16
16.20
15.52
15.00
14.47
13.85
13.15
12.43
11.77
11.19
10.68
10.22
9.82
9.54
9.42
9.47
9.67
9.95
10.25
10.58
10.97
11.45
12.04
12.74
13.52
14.42
15.50
16.86
18.53
20.43
22.42
24.37
26.31
28.40
30.90
34.07
38.01
42.62
47.63
52.71
57.66
62.46
67.28
72.38
77.95
84.01
90.38
96.76
102.90
108.64
114.01
119.09
124.02
128.99
134.46
141.17
149.85
160.55
171.98
181.31
184.71
178.60
160.90
131.61
92.56
46.50
-3.54
-54.50
-102.93
-144.91
-176.56
-195.22
-200.57
-195.05
-183.06
-169.25
-156.96
-147.47
-140.34
-134.39
-128.70
-122.96
-117.37
-112.12
-107.18
-102.21
-96.83
-90.86
-84.40
-77.83
-71.57
-65.90
-60.83
-56.19
-51.68
-47.09
-42.42
-37.85
-33.69
-30.21
-27.50
-25.45
-23.78
-22.19
-20.45
-18.50
-16.40
-14.32
-12.45
-10.95
-9.91
-9.31
-9.01
-8.78
-8.41
-7.76
-6.84
-5.77
-4.75
-3.89
-3.22
-2.67
-2.19
-1.79
-1.55
-1.58
-1.87
-2.31
-2.69
-2.85
-2.75
-2.48
-2.21
-2.08
-2.13
-2.34
-2.62
-2.91
-3.17
-3.37
-3.49
-3.48
-3.35
-3.12
-2.89
-2.75
-2.75
-2.87
-3.00
