1660756974.00
64.000000
-0.00
-0.00
-0.00
-0.00
-0.00
-0.00
-0.00
-0.00
-0.00
-0.00
0.00
0.01
0.01
-0.00
-0.03
-0.05
-0.05
0.00
0.13
0.36
0.66
1.01
1.37
1.72
2.06
2.40
2.79
3.24
3.80
4.42
5.06
5.66
6.20
6.68
7.15
7.68
8.31
9.14
10.09
11.04
11.88
12.56
13.14
13.76
14.65
15.96
17.91
20.32
22.90
25.38
27.58
29.57
31.68
34.32
37.81
42.54
48.15
54.10
59.83
64.97
69.58
74.14
79.34
85.71
93.76
103.00
112.62
121.73
129.77
136.75
143.30
150.75
157.77
166.64
177.95
191.79
206.97
220.57
228.25
225.36
208.53
176.87
132.76
80.05
23.07
-34.94
-92.44
-149.16
-205.23
-260.37
-313.74
-363.87
-409.83
-450.91
-486.50
-515.74
-537.23
-549.22
-549.96
-538.37
-514.21
-478.67
-433.88
-382.45
-327.02
-269.84
-212.63
-156.66
-102.95
-52.37
-5.90
35.58
71.43
101.35
125.50
144.38
158.69
169.15
176.37
180.75
182.57
182.07
179.51
175.23
169.65
163.18
156.15
148.81
141.30
133.69
126.02
118.33
110.69
103.16
95.80
88.68
81.83
75.25
68.95
62.95
57.25
51.86
46.78
42.03
37.59
33.45
29.61
26.07
22.81
19.83
17.11
14.67
12.48
10.54
8.83
7.35
6.07
4.97
4.05
3.27
2.62
2.09
1.65
1.30
1.01
0.79
0.61
0.47
0.37
0.29
0.23
0.19
0.17
0.16
0.16
0.17
0.19
0.21
0.24
0.28
0.32
0.36
0.40
0.45
0.50
0.54
0.58
0.63
0.69
0.76
0.84
0.91
0.95
0.95
0.92
0.87
0.86
0.92
1.06
1.29
1.54
1.77
1.95
2.06
2.16
2.32
2.58
2.99
3.51
4.07
4.59
4.99
5.28
5.54
5.90
6.47
7.31
8.37
9.45
10.32
10.83
10.96
10.94
11.11
11.78
13.11
14.92
16.75
18.06
18.41
17.73
16.35
14.85
13.78
13.28
13.02
12.16
9.78
5.29
-1.20
-8.79
-16.12
-22.01
-25.86
-27.86
-28.95
-30.15
-32.17
-35.15
-38.77
-42.44
-45.21
-45.50
-41.20
-30.36
-12.37
10.97
35.39
55.49
67.03
68.71
63.00
54.80
48.63
46.56
47.71
49.46
49.41
46.60
41.61
35.51
28.83
21.13
11.45
-0.92
-15.78
-31.95
-47.72
-60.76
-70.41
-76.77
-80.54
-82.66
-83.79
-84.09
-83.13
-80.16
-75.30
-67.43
-56.39
-42.68
-27.41
-11.84
2.71
15.12
24.79
31.66
36.27
39.42
41.97
44.32
46.55
48.25
48.80
47.72
45.13
41.65
38.16
35.09
32.16
28.45
22.64
13.49
0.25
-17.24
-38.71
-63.42
-87.91
-109.13
-122.35
-122.91
-108.45
-80.77
-45.74
-11.36
15.45
31.31
36.85
35.82
32.29
28.83
26.04
23.44
20.71
18.32
17.11
17.31
18.45
19.37
19.06
17.08
14.01
11.05
9.34
9.26
10.20
11.06
10.66
8.43
4.79
0.85
-1.94
-2.35
-0.11
3.69
6.76
6.28
0.13
-11.55
-26.06
-38.61
-44.20
-39.92
-26.66
-9.21
5.35
10.42
2.97
-15.46
-39.26
-60.80
-73.08
-71.76
-56.12
-28.87
4.67
37.74
63.60
77.34
76.97
64.15
43.65
21.70
3.86
-6.64
-9.30
-5.76
1.65
10.92
20.66
29.72
36.75
40.22
38.99
32.90
23.12
11.87
1.69
-5.45
-8.70
-8.44
-5.89
-2.53
0.46
2.46
3.38
3.34
2.21
-0.54
-5.63
-13.45
-23.53
-34.35
-43.68
-49.12
-48.91
-42.47
-30.58
-15.24
0.94
15.24
25.22
28.87
24.99
13.79
-2.78
-21.00
-36.23
-44.38
-43.34
-33.40
-17.80
-1.49
10.94
17.09
17.43
14.53
11.39
9.97
10.52
11.88
12.66
12.21
10.97
9.94
9.85
10.42
10.17
7.23
0.37
-9.75
-20.51
-28.37
-30.71
-27.21
-20.17
-13.18
-9.14
-8.82
-10.73
-12.36
-11.96
-9.62
-6.97
-5.88
-7.02
-9.42
-11.08
-10.17
-6.10
0.31
7.38
13.45
17.50
19.20
18.71
16.39
12.79
8.86
5.91
5.34
8.02
13.72
21.07
28.00
32.67
34.25
33.36
31.78
31.73
34.91
41.70
50.67
58.63
61.26
54.41
35.82
6.86
-26.83
-56.19
-71.56
-66.37
-40.11
0.79
44.83
79.14
93.49
83.24
50.33
2.39
-49.40
-93.16
-119.21
-122.54
-104.09
-70.46
-31.64
2.27
24.24
32.07
28.13
17.53
5.80
-2.78
-5.97
-3.40
3.72
13.20
22.31
28.46
29.78
25.63
16.82
5.45
-5.67
-13.83
-17.18
-15.36
-9.67
-2.64
2.86
4.64
2.07
-3.65
-10.07
-14.52
-15.24
-12.14
-6.75
-1.51
1.29
0.47
-3.59
-9.19
-14.09
-16.47
-15.62
-12.05
-7.11
-2.23
1.61
4.18
5.77
6.89
7.88
8.79
9.43
9.59
9.10
8.03
6.64
5.41
4.83
5.22
6.51
8.14
9.29
9.28
7.87
5.45
2.72
0.40
-1.22
-2.26
-3.18
-4.43
-6.24
-8.56
-11.17
-13.85
-16.42
-18.83
-21.09
-23.33
-25.73
-28.39
-31.17
-33.67
-35.28
-35.57
-34.57
-32.94
-31.63
-31.60
-33.22
-36.21
-39.72
-42.89
-45.18
-46.59
-47.54
-48.54
-50.17
-53.13
-58.32
-66.71
-78.62
-92.96
-106.79
-115.76
-115.41
-102.70
-77.13
-40.78
2.53
48.33
92.23
130.16
158.35
173.72
174.51
161.30
137.34
107.93
78.84
54.24
35.42
20.68
6.79
-9.00
-27.20
-45.70
-60.89
-69.58
-70.69
-65.64
-57.26
-47.92
-38.20
-26.87
-12.20
6.25
26.77
46.08
60.95
69.74
72.80
71.64
67.55
60.82
50.99
38.15
23.86
11.21
3.58
2.92
8.81
18.73
29.33
37.91
43.16
45.07
44.05
40.38
34.17
25.67
15.63
5.27
-4.26
-12.34
-19.01
-24.73
-29.80
-34.03
-36.64
-36.58
-32.95
-25.41
-14.43
-1.51
11.00
20.25
23.67
19.87
9.22
-6.13
-22.89
-37.79
-48.50
-54.17
-55.15
-52.56
-47.64
-41.56
-35.35
-29.87
-25.70
-22.89
-20.82
-18.45
-14.72
-9.09
-1.78
6.31
13.96
20.07
23.93
25.39
24.79
22.88
20.70
19.25
19.31
21.11
24.32
28.11
31.51
33.74
34.40
33.63
31.90
29.86
28.13
27.17
27.19
28.15
29.86
31.96
34.04
35.65
36.36
35.87
34.08
31.14
27.43
23.43
19.59
16.17
13.22
10.61
8.13
5.64
3.10
0.53
-2.04
-4.59
-7.05
-9.25
-10.90
-11.65
-11.24
-9.64
-7.12
-4.18
-1.36
0.88
2.33
3.03
3.23
3.24
3.34
3.65
4.08
4.40
4.40
3.99
3.28
2.55
2.05
1.85
1.89
1.97
1.97
1.91
1.92
2.11
2.45
2.79
2.91
2.64
2.00
1.12
0.17
-0.71
-1.58
-2.55
-3.78
-5.25
-6.75
-7.85
-8.08
-7.14
-5.07
-2.30
0.54
2.92
4.59
5.64
6.35
6.96
7.55
8.03
8.29
8.35
8.34
8.42
8.69
9.02
9.20
9.04
8.49
7.72
6.95
6.31
5.76
5.15
4.26
2.98
1.41
-0.21
-1.58
-2.48
-2.89
-3.08
-3.46
-4.43
-6.18
-8.54
-11.09
-13.25
-14.53
-14.63
-13.58
-11.61
-9.15
-6.62
-4.32
-2.29
-0.28
2.16
5.43
9.71
14.69
19.71
23.95
26.81
28.17
28.47
28.44
28.80
30.00
32.01
34.38
36.38
37.21
36.39
33.90
30.40
27.15
25.60
26.83
30.97
37.02
43.19
47.59
49.05
47.49
43.63
38.57
33.20
28.19
24.18
22.02
22.80
27.43
36.30
49.06
64.85
82.66
101.52
120.23
137.06
149.68
155.65
153.39
142.93
126.10
105.83
85.14
66.21
50.10
37.13
27.45
21.31
18.96
20.20
24.17
29.48
34.62
38.43
40.05
38.76
33.80
24.53
10.80
-6.41
-24.93
-41.86
-54.69
-62.21
-65.12
-65.51
-65.86
-68.15
-73.14
-80.27
-88.27
-95.93
-102.46
-107.29
-109.35
-106.70
-97.48
-80.74
-57.62
-31.84
-8.67
6.82
11.78
6.70
-5.07
-19.79
-34.61
-48.43
-61.31
-73.66
-85.52
-96.48
-106.06
-114.20
-122.32
-132.14
-144.88
-160.23
-176.34
-190.56
-200.43
-204.26
-196.09
-172.58
-134.23
-86.31
-36.11
10.35
50.18
82.68
108.28
127.69
140.45
146.00
143.87
135.08
121.91
107.16
93.21
80.48
68.66
56.49
42.87
27.13
10.48
-4.32
-13.86
-16.28
-11.06
0.62
15.98
34.72
53.49
69.29
80.60
87.72
89.93
87.41
79.27
63.61
38.45
1.79
-47.44
-110.39
-178.96
-244.76
-298.37
-331.04
-336.52
-312.91
-264.22
-199.37
-130.10
-67.24
-18.66
13.48
31.68
40.55
44.15
44.39
42.00
37.75
33.49
30.75
30.65
32.98
36.21
38.34
37.54
33.36
26.85
20.14
14.84
11.89
11.01
11.01
10.35
7.81
3.08
-3.23
-9.83
-15.66
-20.10
-23.29
-25.93
-28.90
-32.86
-37.99
-43.97
-50.06
-55.60
-60.00
-63.05
-64.73
-65.04
-63.91
-61.12
-56.41
-49.55
-40.92
-30.47
-18.56
-5.77
7.30
20.09
32.17
43.11
52.51
59.97
65.26
68.21
69.01
68.15
66.39
64.45
62.86
61.73
60.81
59.70
57.97
55.57
52.87
50.56
49.32
49.50
50.92
52.92
54.73
55.69
55.64
55.00
54.49
54.96
57.14
61.64
68.72
77.92
87.59
94.93
96.59
89.86
73.96
50.67
23.86
-1.92
-23.14
-38.26
-47.74
-53.04
-55.53
-55.78
-53.69
-49.18
-42.68
-35.28
-28.36
-22.96
-19.38
-17.11
-15.18
-12.71
-9.43
-5.67
-2.18
0.37
1.78
2.50
3.39
5.28
8.48
12.63
16.89
20.46
23.08
25.25
27.94
32.01
37.65
44.12
50.01
53.83
54.59
52.23
47.61
42.30
38.14
36.80
39.31
45.74
55.03
65.17
73.62
77.95
76.49
68.64
54.97
36.79
15.58
-7.48
-31.66
-56.39
-80.89
-103.92
-123.98
-139.56
-149.61
-153.56
-151.24
-142.71
-128.45
-109.51
-87.82
-65.99
-46.66
-31.73
-21.76
-15.92
-12.64
-10.24
-7.41
-3.24
2.96
11.75
23.23
36.74
50.69
62.90
71.37
75.20
75.07
72.93
71.02
70.34
69.72
65.82
54.07
30.31
-7.41
-57.43
-114.17
-168.94
-212.43
-236.96
-238.75
-218.85
-182.49
-137.15
-90.31
-47.59
-12.08
14.72
32.64
41.98
43.35
37.61
26.03
10.07
-8.91
-29.93
-53.34
-79.81
-109.74
-142.55
-176.25
-207.58
-232.84
-248.79
-248.77
-229.20
-190.18
-135.94
-73.64
-10.96
46.18
94.57
133.37
163.06
183.94
196.39
201.05
199.02
191.99
181.94
170.64
159.36
148.57
137.76
126.12
113.08
98.60
83.27
68.10
54.15
42.65
33.80
27.41
23.09
20.96
21.17
23.80
28.59
34.91
41.86
48.37
53.68
57.49
60.10
62.14
64.24
66.53
68.65
69.88
69.34
66.43
61.13
53.85
45.12
35.18
23.94
10.68
-5.11
-23.59
-44.58
-68.00
-93.78
-121.50
-148.18
-170.26
-182.77
-181.28
-164.26
-134.62
-99.17
-66.13
-42.08
-29.45
-26.70
-29.50
-33.27
-34.98
-33.30
-27.70
-17.41
-1.63
19.15
42.14
61.85
71.94
68.17
51.03
26.07
1.86
-13.69
-16.44
-7.34
9.36
27.94
44.56
58.26
69.99
80.85
90.88
99.11
104.37
106.35
105.89
104.52
104.08
105.24
107.33
108.62
107.10
101.33
91.08
77.48
62.01
46.46
31.71
17.47
2.55
-14.39
-34.03
-55.79
-77.12
-95.93
-110.23
-119.21
-123.52
-124.93
-125.41
-126.63
-129.71
-135.27
-143.83
-153.57
-161.43
-163.22
-154.87
-134.63
-104.39
-69.72
-37.79
-14.68
-2.81
-0.78
-4.75
-10.80
-16.72
-22.24
-28.06
-34.42
-40.49
-44.57
-45.42
-42.82
-37.67
-31.34
-25.10
-19.33
-13.64
-6.93
1.69
12.34
24.24
35.99
46.05
53.37
57.68
59.51
59.80
59.51
59.15
58.68
57.68
55.57
52.00
46.93
40.78
34.12
27.53
21.37
15.75
10.54
5.55
0.59
-4.40
-9.38
-14.27
-19.01
-23.59
-28.10
-32.67
-37.41
-42.38
-47.57
-52.94
-58.48
-64.01
-69.44
-74.73
-79.88
-84.90
-89.83
-94.76
-99.81
-105.16
-110.78
-116.69
-122.94
-129.56
-136.51
-143.77
-151.24
-158.89
-166.71
-174.38
-181.64
-188.22
-193.79
-197.90
-199.92
-199.09
-194.40
-187.31
-178.49
-168.66
-158.49
-148.55
-139.25
-130.79
-123.26
-116.72
-111.42
-107.35
-104.66
-103.40
-103.29
-103.65
-103.38
-101.27
-96.24
-87.73
-75.46
-59.68
-40.83
-19.11
5.67
34.10
66.80
104.02
145.28
189.52
235.16
280.60
324.59
366.50
406.26
444.26
481.24
518.04
555.23
592.12
626.06
652.38
665.34
660.04
634.38
590.14
532.54
468.46
404.15
343.69
288.67
239.14
194.88
156.18
123.74
98.11
79.05
65.48
55.82
48.53
42.30
36.17
29.34
21.05
10.79
-1.50
-15.22
-29.26
-42.27
-53.17
-61.43
-67.10
-70.71
-72.95
-74.42
-75.50
-76.39
-77.06
-77.36
-77.06
-75.93
-73.80
-70.65
-66.75
-62.62
-58.96
-56.35
-54.91
-54.00
-52.31
-48.35
-41.23
-31.27
-20.16
-10.48
-4.67
-4.07
-8.38
-15.74
-23.53
-29.27
-31.43
-29.83
-25.49
-20.00
-14.88
-10.96
-8.26
-6.33
-4.56
-2.62
-0.37
2.20
5.18
8.46
11.44
12.72
10.36
2.55
-11.35
-30.23
-51.22
-70.63
-85.25
-93.50
-95.94
-95.03
-94.30
-97.12
-105.36
-118.52
-133.46
-145.30
-149.16
-142.11
-124.66
-100.86
-77.09
-59.92
-53.99
-60.82
-78.76
-104.01
-131.86
-157.87
-178.55
-191.58
-196.00
-192.18
-181.68
-166.97
-150.80
-135.60
-122.98
-113.47
-106.62
-101.29
-96.18
-90.29
-83.20
-75.19
-66.95
-59.20
-52.34
-46.17
-39.96
-32.71
-23.60
-12.28
0.98
15.47
30.24
44.48
57.62
69.41
79.81
88.96
97.09
104.50
111.54
118.45
125.11
130.88
134.65
135.08
131.18
122.75
110.65
96.69
83.29
72.89
67.50
68.29
75.23
87.01
100.96
113.60
121.32
121.63
114.15
100.95
85.95
73.51
66.71
66.11
69.70
73.98
75.67
73.35
67.91
61.90
58.04
57.96
61.59
67.57
74.23
80.46
85.96
90.87
94.91
97.12
96.19
91.13
81.95
69.80
56.50
43.75
32.51
22.37
12.34
1.81
-8.70
-17.52
-22.67
-22.92
-18.42
-10.65
-2.69
2.58
3.88
2.16
-0.03
-0.16
2.76
7.73
12.41
12.81
5.90
-8.89
-29.14
-50.72
-69.78
-84.51
-95.48
-104.89
-117.50
-138.52
-172.25
-220.91
-284.00
-358.05
-436.74
-511.41
-560.29
-565.00
-518.62
-431.02
-324.34
-221.39
-136.29
-72.46
-26.12
8.79
35.27
53.74
64.14
68.15
69.55
72.59
80.21
93.26
110.20
128.55
145.89
161.12
175.26
190.69
209.35
231.06
253.23
271.81
282.30
281.75
270.14
250.32
226.28
201.02
175.19
147.44
115.91
80.07
41.24
2.51
-32.45
-61.03
-82.79
-99.77
-115.63
-134.18
-157.94
-187.06
-218.85
-248.09
-268.18
-272.59
-256.66
-219.16
-163.30
-96.85
-30.97
22.37
53.33
56.54
32.00
-15.51
-77.83
-144.91
-206.05
-251.15
-272.41
-266.24
-234.90
-186.36
-132.09
-83.34
-47.55
-26.81
-18.64
-18.61
-22.80
-28.90
-35.84
-42.59
-47.31
-47.67
-41.75
-29.06
-10.84
10.35
31.66
50.77
66.39
78.10
86.04
90.51
91.77
90.06
85.61
78.75
69.81
59.31
47.92
36.58
26.42
18.44
13.33
11.20
11.63
13.72
16.46
18.96
20.86
22.39
24.28
27.36
31.85
36.90
40.53
40.25
34.04
21.46
4.23
-13.89
-28.07
-33.71
-27.88
-10.28
16.40
46.90
74.53
92.79
97.07
86.05
62.15
30.93
-0.56
-25.84
-40.83
-44.68
-39.57
-29.56
-19.01
-11.38
-8.46
-10.33
-15.66
-22.19
-27.28
-28.51
-24.28
-14.33
0.05
16.50
32.27
45.26
54.53
60.41
63.96
66.33
68.09
68.79
66.77
59.48
44.47
20.84
-9.43
-41.28
-67.90
-83.23
-84.36
-72.76
-53.65
-34.01
-20.19
-16.19
-22.91
-38.46
-58.77
-78.52
-92.25
-95.76
-87.32
-68.30
-42.68
-15.46
9.20
29.18
44.31
55.47
63.48
68.54
70.68
70.59
70.19
72.39
79.93
93.85
112.49
131.67
146.02
150.76
143.26
123.75
95.36
63.58
35.29
17.39
14.87
28.86
55.40
85.96
109.80
117.48
104.26
71.77
27.34
-18.70
-56.46
-79.41
-85.70
-77.79
-60.90
-40.94
-22.79
-9.41
-1.84
0.17
-2.61
-9.20
-18.25
-27.74
-34.91
-36.87
-31.72
-19.68
-3.48
12.22
22.33
23.07
13.25
-5.37
-28.61
-51.10
-67.65
-74.56
-70.67
-57.67
-39.82
-22.68
-11.46
-9.47
-17.18
-32.30
-50.56
-66.88
-76.56
-76.35
-65.16
-44.37
-17.65
10.04
33.77
50.12
58.01
58.79
55.27
50.56
47.02
45.75
46.77
49.47
53.11
57.18
61.43
65.87
70.43
74.90
78.66
80.66
79.31
72.81
59.89
40.97
19.07
-0.36
-11.05
-8.53
7.42
32.01
56.97
73.63
76.26
63.97
40.50
12.28
-14.04
-33.49
-43.69
-44.74
-38.65
-28.60
-18.10
-10.15
-6.53
-7.52
-12.08
-18.36
-24.24
-27.91
-28.17
-24.65
-17.94
-9.62
-1.88
2.93
3.03
-2.27
-12.33
-25.37
-38.99
-50.72
-58.42
-60.58
-56.65
-47.35
-34.78
-22.05
-12.51
-8.64
-11.26
-19.19
-29.66
-39.23
-44.92
-45.09
-39.70
-30.21
-18.94
-8.29
-0.06
5.11
7.77
9.41
11.76
15.93
22.02
29.08
35.75
40.87
44.11
45.99
47.67
50.36
54.80
61.03
68.33
75.17
79.32
78.33
70.46
55.99
38.06
22.32
15.01
20.17
37.30
60.88
82.12
92.41
86.72
65.38
33.67
-0.49
-29.47
-48.21
-55.19
-52.02
-42.26
-29.95
-18.52
-10.12
-5.60
-4.89
-7.41
-12.29
-18.36
-24.21
-28.34
-29.61
-27.79
-23.78
-19.33
-16.41
-16.43
-19.89
-26.44
-35.27
-45.30
-55.18
-63.01
-66.55
-63.89
-54.54
-40.26
-24.97
-13.47
-9.55
-14.34
-25.84
-39.75
-51.20
-56.49
-54.17
-45.25
-32.47
-19.18
-8.23
-1.13
2.22
3.24
3.91
5.82
9.51
14.46
19.60
24.14
28.14
32.54
38.56
46.93
57.30
68.42
78.51
85.68
88.05
83.78
71.49
51.28
26.07
2.07
-12.53
-10.59
10.37
46.08
86.10
117.32
128.76
115.56
80.33
31.78
-18.76
-61.13
-89.04
-100.99
-99.52
-89.37
-75.34
-60.75
-47.01
-34.22
-22.39
-12.32
-5.55
-3.43
-5.98
-11.51
-17.29
-20.95
-21.63
-20.21
-18.56
-18.28
-19.98
-23.48
-28.42
-34.64
-41.72
-48.16
-51.09
-47.18
-34.57
-14.70
7.37
24.56
30.93
24.57
8.79
-9.26
-21.69
-23.19
-13.09
4.87
24.49
39.94
47.91
48.49
44.34
39.08
35.44
34.24
34.58
34.90
34.02
31.69
28.35
24.49
20.30
15.70
10.63
5.26
-0.02
-4.88
-9.16
-12.69
-15.06
-15.57
-13.33
-7.59
1.93
14.92
30.47
47.08
62.61
74.32
79.34
75.61
62.92
43.56
21.86
2.86
-9.47
-13.44
-9.93
-1.68
7.79
15.20
18.30
16.16
9.23
-0.88
-11.85
-21.17
-26.80
-27.68
-24.07
-17.47
-10.32
-5.19
-3.93
-6.96
-13.14
-20.32
-26.51
-30.81
-33.80
-37.13
-42.41
-50.16
-59.24
-67.08
-70.75
-68.03
-58.51
-43.85
-27.27
-12.39
-1.88
3.57
5.34
5.90
7.38
10.25
12.92
12.60
6.81
-5.07
-21.19
-37.82
-50.93
-57.71
-57.67
-52.48
-45.04
-38.25
-33.99
-32.89
-34.35
-37.04
-38.89
-37.30
-29.72
-14.98
5.14
25.34
38.16
37.27
20.95
-6.06
-33.91
-51.20
-49.08
-24.05
21.45
80.44
143.83
202.68
249.81
280.89
294.94
294.31
283.66
268.25
252.20
237.45
223.88
210.45
196.21
180.74
164.12
146.52
128.03
108.69
88.42
66.45
41.12
10.44
-26.78
-69.10
-111.81
-147.44
-168.01
-167.62
-144.40
-100.78
-42.58
22.40
85.62
138.55
173.77
186.23
174.85
143.37
99.79
53.99
14.64
-13.18
-28.77
-34.74
-35.13
-33.67
-32.97
-34.68
-39.90
-49.37
-63.19
-80.50
-99.10
-115.70
-126.78
-130.08
-125.58
-115.80
-104.91
-97.07
-94.81
-97.94
-104.09
-109.69
-112.32
-111.40
-107.44
-100.09
-86.75
-63.37
-26.16
24.77
84.62
143.88
192.15
222.48
233.88
230.89
219.79
206.35
193.09
180.55
167.66
153.63
138.53
122.80
106.90
89.99
72.60
48.45
15.19
-26.54
-72.79
-118.28
-159.34
-191.40
-220.06
-252.01
-291.51
-337.10
-383.08
-420.88
-441.52
-439.56
-414.86
-373.99
-324.80
-274.00
-223.70
-171.80
-113.41
-43.89
34.99
122.13
207.72
280.48
329.78
348.76
335.79
295.02
235.26
167.65
103.98
53.21
22.18
14.06
27.60
57.56
96.22
135.34
167.93
189.91
199.16
196.35
183.71
163.64
138.58
111.27
84.52
60.39
40.32
24.06
10.85
-0.34
-11.89
-27.26
-50.37
-84.72
-132.20
-191.07
-255.68
-317.00
-358.03
-364.23
-329.84
-261.51
-175.70
-91.48
-23.28
21.02
39.48
34.60
11.22
-25.70
-68.29
-108.12
-138.87
-157.44
-164.44
-162.61
-154.75
-143.53
-130.93
-118.33
-103.34
-85.93
-66.84
-47.06
-27.31
-7.82
10.77
27.29
40.51
49.60
54.14
55.18
54.65
54.59
56.29
59.51
62.99
65.36
65.94
64.70
62.72
61.45
62.06
65.06
70.21
76.88
84.55
93.07
102.32
112.38
123.00
133.26
141.41
145.22
142.63
132.58
115.59
93.58
69.49
46.42
26.64
11.33
0.64
-5.89
-8.84
-8.70
-5.99
-1.35
4.33
9.96
14.55
17.40
18.37
17.81
16.44
15.15
14.61
15.19
16.78
18.90
20.84
21.85
21.34
18.96
14.53
7.99
-0.78
-11.95
-25.74
-42.35
-62.07
-85.31
-112.74
-144.77
-180.91
-218.97
-254.98
-283.95
-301.61
-306.01
-298.38
-282.46
-262.60
-241.86
-221.03
-199.10
-174.77
-147.83
-119.75
-93.10
-70.25
-52.25
-38.30
-26.27
-13.71
0.88
17.43
34.13
48.01
55.69
54.01
40.36
12.91
-28.91
-83.55
-146.35
-209.41
-262.71
-296.66
-304.91
-286.30
-244.68
-186.81
-119.51
-47.51
26.76
101.82
175.05
241.55
294.79
328.93
341.64
335.66
318.09
297.61
280.99
270.65
264.54
258.36
248.61
234.74
219.22
205.57
195.86
189.05
181.51
168.83
148.31
120.38
88.22
55.83
25.89
-1.54
-28.50
-57.34
-88.65
-120.25
-147.78
-166.50
-173.26
-167.78
-152.74
-132.86
-113.36
-98.38
-89.78
-86.73
-86.17
-84.02
-76.84
-62.98
-42.80
-18.02
9.51
38.42
67.63
95.52
119.42
135.60
140.48
131.85
109.24
73.62
26.76
-28.86
-89.49
-149.40
-201.48
-237.99
-252.35
-240.97
-204.14
-146.23
-75.09
-1.11
64.58
111.00
129.94
118.13
78.25
18.85
-47.45
-106.76
-147.43
-162.63
-152.95
-125.35
-90.71
-60.18
-41.61
-37.63
-45.69
-60.40
-70.39
-66.57
-44.69
-7.07
39.08
85.69
126.59
158.00
176.82
181.66
170.74
143.86
103.94
56.53
7.96
-37.72
-76.15
-106.19
-128.99
-146.35
-158.11
-162.20
-156.99
-143.46
-125.44
-107.96
-94.07
-85.49
-79.08
-70.76
-58.03
-41.01
-21.56
-1.73
16.82
34.50
52.96
74.39
100.73
134.43
177.50
230.46
291.34
354.14
411.20
454.36
469.54
449.30
396.61
323.72
245.57
179.38
124.95
77.12
32.13
-10.44
-49.05
-81.28
-107.82
-132.75
-160.67
-192.84
-224.24
-247.09
-256.07
-251.11
-237.47
-222.77
-212.81
-209.15
-210.51
-213.70
-216.35
-218.00
-218.66
-218.14
-216.35
-213.46
-210.40
-207.68
-205.48
-203.57
-201.55
-198.26
-192.21
-182.34
-168.34
-150.31
-129.27
-106.57
-83.29
-60.12
-36.68
-12.09
14.73
41.09
64.85
84.11
97.43
104.90
107.89
109.42
112.46
119.10
130.07
145.06
162.71
180.84
198.38
215.60
235.43
261.86
298.65
347.64
406.93
469.60
524.27
559.77
567.87
547.07
501.14
437.84
366.64
296.56
234.62
184.25
147.45
113.65
74.25
22.42
-44.07
-121.43
-201.73
-270.46
-324.72
-365.22
-393.39
-408.60
-409.49
-395.90
-368.45
-329.95
-285.13
-240.37
-200.05
-166.20
-137.50
-111.14
-83.49
-50.87
-10.61
37.81
91.00
143.15
185.81
210.24
209.19
179.69
124.78
53.40
-21.61
-87.13
-132.00
-149.96
-140.16
-106.79
-57.32
-0.73
53.87
98.27
