1660931932.00
64.000000
-0.00
-0.00
-0.00
-0.00
-0.00
-0.00
-0.00
-0.00
-0.00
-0.00
0.00
0.01
0.01
-0.00
-0.03
-0.05
-0.05
0.00
0.13
0.36
0.66
1.01
1.37
1.72
2.06
2.40
2.79
3.25
3.81
4.44
5.09
5.73
6.32
6.91
7.54
8.28
9.15
10.24
11.43
12.61
13.68
14.62
15.52
16.54
17.90
19.73
22.21
25.12
28.18
31.12
33.84
36.45
39.31
42.84
47.29
52.98
59.50
66.33
72.96
79.17
85.16
91.49
98.84
107.58
118.05
129.60
141.41
152.76
163.36
173.57
184.19
196.49
208.86
223.14
239.59
258.25
278.16
296.95
310.83
315.48
307.43
285.29
250.73
207.03
158.36
108.31
59.09
11.70
-33.58
-76.56
-117.02
-154.68
-190.24
-225.02
-260.59
-297.73
-335.48
-370.82
-399.17
-416.09
-418.78
-407.51
-385.47
-357.54
-328.38
-300.95
-276.03
-252.95
-230.74
-209.01
-188.25
-169.29
-152.54
-137.72
-123.98
-110.44
-96.68
-82.93
-69.92
-58.41
-48.77
-40.85
-34.01
-27.55
-21.00
-14.29
-7.76
-1.84
3.15
7.19
10.49
13.40
16.22
19.09
21.93
24.50
26.51
27.77
28.21
28.00
27.43
26.82
26.39
26.24
26.31
26.44
26.44
26.22
25.74
25.01
24.09
23.04
21.92
20.81
19.76
18.81
17.94
17.09
16.23
15.39
14.63
14.02
13.59
13.26
12.91
12.47
11.94
11.38
10.91
10.58
10.35
10.16
9.93
9.68
9.46
9.30
9.25
9.27
9.36
9.55
9.85
10.28
10.75
11.15
11.33
11.23
10.85
10.28
9.64
8.99
8.35
7.69
7.03
6.41
5.90
5.55
5.36
5.26
5.14
4.88
4.46
3.94
3.41
3.00
2.75
2.62
2.53
2.34
2.00
1.48
0.86
0.20
-0.44
-1.05
-1.65
-2.25
-2.81
-3.32
-3.75
-4.13
-4.54
-5.02
-5.58
-6.18
-6.74
-7.20
-7.53
-7.73
-7.81
-7.81
-7.73
-7.60
-7.49
-7.42
-7.40
-7.37
-7.27
-7.06
-6.74
-6.36
-5.98
-5.60
-5.20
-4.72
-4.18
-3.63
-3.10
-2.61
-2.12
-1.58
-0.94
-0.20
0.59
1.35
1.95
2.31
2.38
2.19
1.88
1.63
1.60
1.84
2.30
2.82
3.25
3.50
3.58
3.57
3.51
3.43
3.31
3.16
3.05
3.08
3.32
3.73
4.21
4.60
4.77
4.67
4.36
3.97
3.62
3.38
3.30
3.32
3.40
3.47
3.53
3.57
3.61
3.66
3.69
3.64
3.48
3.22
2.97
2.84
2.91
3.16
3.47
3.69
3.73
3.59
3.34
3.09
2.88
2.67
2.40
2.02
1.57
1.15
0.86
0.74
0.77
0.86
0.92
0.93
0.90
0.88
0.89
0.93
0.96
0.97
0.99
1.10
1.37
1.78
2.20
2.48
2.48
2.21
1.84
1.61
1.69
2.12
2.75
3.36
3.73
3.82
3.71
3.58
3.57
3.74
4.00
4.22
4.26
4.06
3.63
3.02
2.34
1.64
1.00
0.46
0.07
-0.13
-0.15
-0.04
0.09
0.16
0.13
0.06
0.04
0.13
0.34
0.59
0.77
0.82
0.74
0.59
0.46
0.38
0.36
0.38
0.40
0.40
0.39
0.37
0.34
0.31
0.28
0.25
0.21
0.16
0.12
0.10
0.13
0.20
0.32
0.44
0.53
0.60
0.62
0.63
0.67
0.80
1.05
1.40
1.79
2.12
2.27
2.21
1.98
1.71
1.53
1.52
1.63
1.77
1.85
1.85
1.78
1.71
1.62
1.48
1.26
0.98
0.70
0.52
0.45
0.48
0.52
0.52
0.52
0.60
0.86
1.35
2.01
2.70
3.22
3.39
3.10
2.38
1.39
0.38
-0.41
-0.83
-0.86
-0.64
-0.38
-0.24
-0.30
-0.55
-0.88
-1.21
-1.43
-1.53
-1.47
-1.27
-0.97
-0.63
-0.27
0.09
0.47
0.89
1.34
1.73
1.93
1.83
1.41
0.79
0.16
-0.27
-0.38
-0.19
0.21
0.66
0.99
1.13
1.01
0.68
0.18
-0.38
-0.89
-1.25
-1.43
-1.45
-1.34
-1.14
-0.84
-0.42
0.07
0.54
0.87
0.94
0.76
0.39
-0.03
-0.39
-0.62
-0.69
-0.63
-0.48
-0.25
0.01
0.26
0.47
0.61
0.68
0.68
0.59
0.40
0.12
-0.20
-0.52
-0.76
-0.85
-0.78
-0.59
-0.35
-0.15
-0.06
-0.07
-0.16
-0.25
-0.30
-0.29
-0.24
-0.20
-0.18
-0.18
-0.14
-0.03
0.15
0.33
0.46
0.48
0.41
0.33
0.32
0.44
0.68
0.98
1.21
1.29
1.23
1.07
0.91
0.84
0.88
0.98
1.07
1.08
0.97
0.73
0.38
-0.02
-0.42
-0.75
-0.94
-0.96
-0.83
-0.63
-0.45
-0.37
-0.42
-0.55
-0.67
-0.69
-0.55
-0.29
0.01
0.19
0.20
0.06
-0.10
-0.14
0.02
0.36
0.73
0.96
0.95
0.71
0.36
0.00
-0.27
-0.44
-0.50
-0.48
-0.37
-0.17
0.08
0.30
0.40
0.32
0.08
-0.20
-0.40
-0.42
-0.25
0.01
0.23
0.32
0.26
0.13
0.02
-0.03
-0.04
-0.09
-0.21
-0.41
-0.62
-0.76
-0.83
-0.86
-0.90
-0.98
-1.06
-1.03
-0.80
-0.37
0.17
0.67
1.00
1.12
1.09
1.02
0.99
1.02
1.05
1.00
0.84
0.62
0.44
0.37
0.45
0.60
0.74
0.82
0.85
0.89
1.00
1.15
1.25
1.18
0.90
0.45
-0.02
-0.34
-0.42
-0.27
-0.03
0.16
0.19
0.07
-0.09
-0.21
-0.21
-0.09
0.04
0.13
0.12
0.01
-0.15
-0.32
-0.45
-0.53
-0.50
-0.35
-0.08
0.26
0.58
0.79
0.84
0.71
0.46
0.17
-0.12
-0.33
-0.45
-0.50
-0.53
-0.65
-0.92
-1.36
-1.85
-2.20
-2.16
-1.61
-0.66
0.46
1.39
1.88
1.83
1.35
0.66
0.01
-0.45
-0.63
-0.61
-0.50
-0.46
-0.63
-1.08
-1.81
-2.70
-3.58
-4.33
-4.85
-5.15
-5.31
-5.43
-5.57
-5.73
-5.83
-5.69
-5.17
-4.13
-2.62
-0.79
1.09
2.71
3.89
4.56
4.85
4.98
5.11
5.29
5.43
5.33
4.85
3.98
2.91
1.99
1.64
2.11
3.42
5.28
7.20
8.67
9.34
9.15
8.31
7.17
6.06
5.16
4.42
3.68
2.82
1.87
1.01
0.51
0.50
0.94
1.53
1.86
1.55
0.44
-1.39
-3.64
-5.93
-8.02
-9.83
-11.44
-12.99
-14.55
-16.10
-17.56
-18.88
-20.13
-21.38
-22.60
-23.51
-23.67
-22.67
-20.48
-17.65
-15.22
-14.30
-15.55
-18.80
-23.11
-27.16
-29.85
-30.84
-30.64
-30.45
-31.52
-34.71
-40.13
-47.18
-54.84
-62.19
-68.71
-74.42
-79.83
-85.70
-92.89
-102.16
-114.19
-129.29
-147.06
-165.80
-182.25
-192.19
-191.85
-179.72
-157.45
-129.22
-99.70
-71.83
-45.83
-20.05
7.01
34.92
61.09
82.22
96.44
104.67
110.34
117.47
128.61
143.75
160.73
176.59
189.14
197.78
203.39
207.66
212.03
217.19
222.75
227.68
230.98
232.33
232.42
232.73
234.88
239.99
248.21
258.84
270.50
281.40
289.52
292.76
289.10
277.11
256.31
227.41
192.08
152.37
109.96
65.56
19.03
-29.94
-80.71
-130.99
-176.81
-213.70
-238.21
-249.33
-248.76
-240.10
-227.36
-213.49
-199.78
-186.26
-172.62
-159.08
-146.46
-135.76
-127.38
-120.79
-114.75
-107.96
-99.73
-90.25
-80.48
-71.59
-64.43
-59.13
-55.15
-51.54
-47.41
-42.36
-36.55
-30.60
-25.25
-21.00
-17.94
-15.73
-13.88
-11.92
-9.66
-7.18
-4.75
-2.63
-0.99
0.15
0.87
1.31
1.53
1.56
1.40
1.04
0.49
-0.21
-1.00
-1.81
-2.57
-3.23
-3.70
-3.95
-3.92
-3.65
-3.23
-2.81
-2.56
-2.58
-2.90
-3.43
-4.02
-4.51
-4.77
-4.75
-4.46
-3.97
-3.38
-2.80
-2.32
-1.96
-1.67
-1.40
-1.11
-0.84
-0.66
-0.63
-0.75
-0.95
-1.16
-1.33
-1.49
-1.68
-1.91
-2.12
-2.20
-2.05
-1.66
-1.16
-0.76
-0.62
-0.83
-1.37
-2.09
-2.85
-3.48
-3.91
-4.11
-4.13
-4.02
-3.86
-3.68
-3.54
-3.46
-3.45
-3.52
-3.62
-3.70
-3.65
-3.42
-3.00
-2.47
-1.98
-1.65
-1.58
-1.76
-2.10
-2.45
-2.66
-2.61
-2.29
-1.77
-1.19
-0.74
-0.58
-0.78
-1.30
-2.02
-2.78
-3.46
-4.00
-4.45
-4.87
-5.32
-5.74
-6.05
-6.14
-6.03
-5.77
-5.47
-5.14
-4.69
-3.99
-2.92
-1.54
-0.04
1.34
2.48
3.37
4.11
4.72
5.16
5.37
5.41
5.58
6.26
7.69
9.78
12.08
13.97
14.98
15.03
14.37
13.40
12.40
11.38
10.11
8.34
5.95
3.09
0.09
-2.63
-4.73
-5.99
-6.43
-6.24
-5.70
-5.09
-4.59
-4.18
-3.74
-3.16
-2.42
-1.71
-1.26
-1.21
-1.55
-2.05
-2.42
-2.43
-2.07
-1.51
-1.03
-0.85
-1.09
-1.73
-2.65
-3.71
-4.75
-5.63
-6.26
-6.58
-6.66
-6.65
-6.77
-7.16
-7.87
-8.74
-9.46
-9.63
-8.93
-7.20
-4.56
-1.38
1.92
4.90
7.34
9.18
10.50
11.38
11.86
11.92
11.63
11.16
10.80
10.83
11.38
12.34
13.39
14.16
14.35
13.89
12.89
11.61
10.29
9.12
8.11
7.18
6.10
4.69
2.84
0.67
-1.57
-3.50
-4.81
-5.41
-5.44
-5.20
-4.99
-5.01
-5.25
-5.60
-5.90
-6.11
-6.25
-6.42
-6.67
-6.97
-7.21
-7.25
-7.02
-6.53
-5.92
-5.34
-4.91
-4.64
-4.47
-4.31
-4.08
-3.77
-3.40
-3.01
-2.62
-2.20
-1.70
-1.10
-0.39
0.38
1.19
1.99
2.78
3.54
4.26
4.94
5.55
6.05
6.43
6.62
6.59
6.28
5.74
5.06
4.40
3.94
3.82
4.06
4.55
5.10
5.50
5.59
5.30
4.65
3.71
2.59
1.47
0.60
0.17
0.21
0.50
0.60
0.04
-1.44
-3.68
-6.19
-8.32
-9.61
-9.96
-9.68
-9.21
-8.89
-8.78
-8.68
-8.36
-7.74
-6.95
-6.28
-5.94
-5.93
-6.00
-5.78
-5.04
-3.79
-2.38
-1.24
-0.72
-0.92
-1.62
-2.43
-2.98
-3.08
-2.72
-2.07
-1.34
-0.69
-0.23
-0.04
-0.18
-0.64
-1.36
-2.21
-2.97
-3.49
-3.65
-3.46
-3.03
-2.46
-1.78
-0.99
-0.01
1.22
2.69
4.29
5.86
7.27
8.42
9.26
9.76
9.85
9.47
8.65
7.48
6.20
5.03
4.19
3.74
3.61
3.61
3.60
3.44
3.12
2.69
2.28
2.04
2.07
2.42
2.94
3.34
3.31
2.64
1.37
-0.22
-1.72
-2.78
-3.26
-3.19
-2.71
-1.98
-1.09
-0.13
0.76
1.36
1.46
1.00
0.06
-1.08
-2.12
-2.83
-3.19
-3.31
-3.31
-3.27
-3.20
-3.04
-2.80
-2.53
-2.32
-2.29
-2.44
-2.67
-2.74
-2.35
-1.30
0.42
2.52
4.50
5.83
6.13
5.33
3.71
1.71
-0.23
-1.84
-3.09
-4.11
-5.08
-6.10
-7.16
-8.13
-8.80
-9.03
-8.80
-8.32
-7.95
-8.06
-8.87
-10.31
-12.12
-13.90
-15.34
-16.34
-16.87
-16.96
-16.59
-15.66
-14.21
-12.45
-10.74
-9.27
-7.67
-4.97
-0.02
7.72
17.60
27.74
35.78
39.97
39.95
36.87
32.60
28.65
25.57
22.89
19.88
16.22
12.30
8.97
6.94
6.24
6.32
6.33
5.64
4.06
1.89
-0.32
-2.11
-3.22
-3.74
-3.94
-4.18
-4.73
-5.66
-6.75
-7.68
-8.13
-7.98
-7.34
-6.49
-5.72
-5.14
-4.70
-4.23
-3.66
-2.99
-2.37
-1.94
-1.73
-1.67
-1.61
-1.43
-1.13
-0.77
-0.44
-0.19
-0.04
0.01
-0.11
-0.44
-1.04
-1.85
-2.76
-3.63
-4.41
-5.10
-5.73
-6.28
-6.69
-6.86
-6.73
-6.41
-6.05
-5.81
-5.72
-5.66
-5.42
-4.82
-3.80
-2.37
-0.56
1.59
4.04
6.56
8.77
10.17
10.41
9.48
7.78
5.99
4.67
4.06
3.95
3.89
3.50
2.64
1.54
0.55
-0.01
-0.06
0.24
0.63
0.84
0.77
0.43
-0.08
-0.62
-1.11
-1.51
-1.85
-2.15
-2.36
-2.40
-2.19
-1.67
-0.93
-0.16
0.39
0.51
0.19
-0.36
-0.83
-0.92
-0.48
0.39
1.45
2.43
3.13
3.46
3.43
3.09
2.48
1.67
0.77
-0.05
-0.65
-0.99
-1.18
-1.41
-1.88
-2.68
-3.73
-4.80
-5.66
-6.15
-6.23
-5.96
-5.43
-4.73
-3.89
-2.94
-1.95
-1.02
-0.22
0.48
1.24
2.28
3.80
5.79
7.99
9.96
11.23
11.53
10.84
9.42
7.62
5.76
4.08
2.64
1.47
0.54
-0.18
-0.75
-1.23
-1.69
-2.15
-2.61
-3.06
-3.47
-3.83
-4.14
-4.36
-4.49
-4.50
-4.45
-4.38
-4.34
-4.36
-4.44
-4.54
-4.63
-4.66
-4.61
-4.45
-4.18
-3.84
-3.50
-3.23
-3.07
-3.00
-3.00
-3.00
-3.03
-3.12
-3.33
-3.64
-3.94
-4.06
-3.82
-3.13
-2.00
-0.56
1.04
2.67
4.27
5.82
7.31
8.66
9.74
10.40
10.52
10.07
9.13
7.91
6.66
5.64
5.02
4.88
5.12
5.57
5.96
6.10
5.88
5.35
4.62
3.85
3.14
2.53
2.08
1.85
1.98
2.56
3.51
4.52
5.17
5.04
3.98
2.19
0.18
-1.55
-2.69
-3.32
-3.79
-4.51
-5.66
-7.11
-8.49
-9.38
-9.59
-9.18
-8.46
-7.77
-7.33
-7.12
-6.95
-6.56
-5.83
-4.80
-3.69
-2.78
-2.23
-2.06
-2.11
-2.19
-2.14
-1.92
-1.59
-1.22
-0.91
-0.65
-0.42
-0.19
0.04
0.22
0.30
0.21
-0.00
-0.28
-0.51
-0.62
-0.60
-0.47
-0.30
-0.14
0.04
0.32
0.81
1.54
2.45
3.36
4.04
4.30
4.13
3.63
3.04
2.60
2.44
2.56
2.80
3.01
3.05
2.89
2.59
2.20
1.78
1.32
0.81
0.29
-0.19
-0.49
-0.52
-0.21
0.35
0.94
1.31
1.28
0.83
0.12
-0.60
-1.12
-1.32
-1.29
-1.17
-1.10
-1.14
-1.25
-1.35
-1.35
-1.23
-1.00
-0.73
-0.51
-0.38
-0.35
-0.40
-0.47
-0.51
-0.50
-0.46
-0.40
-0.33
-0.26
-0.18
-0.10
-0.07
-0.11
-0.21
-0.30
-0.31
-0.18
0.07
0.36
0.58
0.67
0.64
0.57
0.54
0.63
0.89
1.30
1.83
2.47
3.20
4.01
4.87
5.70
6.33
6.57
6.26
5.36
3.97
2.33
0.73
-0.67
-1.84
-2.86
-3.86
-4.88
-5.87
-6.68
-7.18
-7.34
-7.27
-7.14
-7.10
-7.18
-7.24
-7.00
-6.16
-4.54
-2.20
0.51
3.06
4.96
5.91
5.93
5.32
4.49
3.74
3.23
2.90
2.61
2.29
1.90
1.51
1.21
1.06
1.04
1.09
1.14
1.12
1.02
0.85
0.67
0.58
0.65
0.91
1.28
1.62
1.81
1.76
1.49
1.07
0.60
0.15
-0.24
-0.54
-0.67
-0.57
-0.23
0.24
0.62
0.66
0.19
-0.73
-1.85
-2.82
-3.40
-3.51
-3.28
-2.96
-2.77
-2.83
-3.15
-3.69
-4.33
-4.98
-5.53
-5.91
-6.11
-6.15
-6.11
-6.05
-6.02
-6.04
-6.11
-6.22
-6.36
-6.50
-6.57
-6.55
-6.49
-6.49
-6.62
-6.72
-6.37
-4.99
-2.12
2.20
7.35
12.30
16.00
17.82
17.74
16.24
13.93
11.31
8.67
6.19
4.07
2.61
2.06
2.45
3.46
4.58
5.29
5.27
4.52
3.27
1.88
0.61
-0.38
-1.09
-1.56
-1.87
-2.08
-2.23
-2.36
-2.50
-2.65
-2.75
-2.70
-2.38
-1.70
-0.61
0.84
2.54
4.30
5.84
6.91
7.33
7.06
6.24
5.11
3.92
2.83
1.85
0.88
-0.15
-1.28
-2.45
-3.56
-4.58
-5.49
-6.33
-7.11
-7.76
-8.23
-8.44
-8.38
-8.10
-7.69
-7.24
-6.82
-6.48
-6.19
-5.88
-5.45
-4.81
-3.89
-2.68
-1.20
0.49
2.35
4.37
6.47
8.54
10.32
11.50
11.80
11.13
9.60
7.56
5.41
3.48
1.93
0.77
-0.06
-0.58
-0.74
-0.52
0.00
0.67
1.26
1.58
1.57
1.29
0.89
0.52
0.29
0.25
0.37
0.60
0.86
1.02
0.96
0.63
0.02
-0.75
-1.56
-2.27
-2.82
-3.20
-3.50
-3.77
-4.06
-4.38
-4.69
-4.95
-5.10
-5.13
-5.03
-4.81
-4.49
-4.06
-3.47
-2.65
-1.56
-0.22
1.25
2.67
3.86
4.69
5.15
5.27
5.15
4.85
4.42
3.86
3.19
2.45
1.69
0.98
0.43
0.16
0.27
0.79
1.68
2.80
3.95
4.88
5.39
5.35
4.75
3.68
2.35
1.05
0.06
-0.45
-0.49
-0.26
-0.05
-0.10
-0.51
-1.15
-1.80
-2.22
-2.31
-2.13
-1.80
-1.49
-1.30
-1.24
-1.33
-1.54
-1.88
-2.32
-2.82
-3.29
-3.63
-3.79
-3.75
-3.55
-3.25
-2.95
-2.72
-2.61
-2.62
-2.68
-2.65
-2.40
-1.84
-0.99
0.02
1.01
1.75
2.05
1.86
1.24
0.37
-0.51
-1.19
-1.57
-1.64
-1.48
-1.22
-0.98
-0.85
-0.82
-0.88
-0.99
-1.11
-1.27
-1.47
-1.66
-1.72
-1.47
-0.73
0.54
2.15
3.78
5.05
5.71
5.71
5.19
4.37
3.47
2.61
1.83
1.17
0.67
0.38
0.29
0.35
0.45
0.49
0.46
0.42
0.51
0.81
1.31
1.87
2.29
2.38
2.10
1.50
0.75
0.04
-0.54
-0.95
-1.24
-1.43
-1.55
-1.58
-1.52
-1.42
-1.34
-1.34
-1.45
-1.61
-1.73
-1.73
-1.57
-1.28
-0.96
-0.67
-0.48
-0.36
-0.27
-0.16
-0.02
0.14
0.29
0.38
0.40
0.29
0.02
-0.41
-0.96
-1.52
-1.96
-2.18
-2.13
-1.87
-1.51
-1.19
-0.98
-0.90
-0.87
-0.80
-0.61
-0.28
0.15
0.57
0.88
1.04
1.06
1.04
1.11
1.37
1.82
2.38
2.86
3.06
2.78
1.94
0.57
-1.18
-3.06
-4.78
-6.03
-6.63
-6.50
-5.71
-4.48
-3.07
-1.75
-0.70
0.09
0.78
1.64
2.83
4.31
5.81
6.89
7.22
6.69
5.51
4.10
2.87
2.09
1.87
2.18
2.95
4.08
5.44
6.77
7.73
8.02
7.52
6.35
4.84
3.34
2.09
1.07
0.11
-0.97
-2.25
-3.58
-4.71
-5.39
-5.52
-5.16
-4.54
-3.87
-3.32
-2.94
-2.64
-2.30
-1.82
-1.14
-0.32
0.50
1.15
1.49
1.49
1.21
0.77
0.24
-0.34
-1.00
-1.77
-2.57
-3.30
-3.83
-4.09
-4.14
-4.15
-4.27
-4.59
-5.07
-5.59
-6.00
-6.22
-6.29
-6.29
-6.33
-6.45
-6.58
-6.61
-6.43
-6.06
-5.61
-5.27
-5.17
-5.29
-5.43
-5.22
-4.32
-2.56
-0.07
2.74
5.32
7.21
8.21
8.42
8.18
7.88
7.79
7.99
8.38
8.76
8.95
8.78
8.15
7.07
5.66
4.19
2.98
2.29
2.15
2.34
2.51
2.31
1.58
0.41
-0.96
-2.27
-3.31
-4.04
-4.49
-4.73
-4.81
-4.78
-4.65
-4.40
-4.06
-3.57
-2.84
-1.74
-0.14
1.97
4.43
6.94
9.09
10.49
10.89
10.20
8.60
6.42
4.10
2.08
0.67
-0.01
-0.13
-0.04
-0.16
-0.79
-2.00
-3.64
-5.36
-6.83
-7.84
-8.33
-8.43
-8.35
-8.30
-8.43
-8.73
-9.11
-9.38
-9.37
-8.97
-8.16
-6.99
-5.55
-3.93
-2.22
-0.47
1.32
3.25
5.53
8.29
11.48
14.80
17.66
19.44
19.66
18.19
15.32
11.60
7.64
3.97
0.93
-1.28
-2.58
-2.99
-2.63
-1.74
-0.65
0.28
0.80
0.77
0.23
-0.68
-1.74
-2.74
-3.52
-4.00
-4.19
-4.18
-4.06
-3.93
-3.82
-3.68
-3.42
-2.98
-2.38
-1.72
-1.17
-0.88
-0.91
-1.21
-1.66
-2.11
-2.47
-2.71
-2.85
-2.94
-3.03
-3.15
-3.26
-3.31
-3.24
-2.96
-2.42
-1.60
-0.55
0.63
1.80
2.80
3.50
3.84
3.81
3.50
3.03
2.52
2.07
1.71
1.44
1.27
1.21
1.25
1.41
1.65
1.91
2.11
2.15
2.02
1.73
1.43
1.29
1.50
2.19
3.31
4.59
5.66
6.11
5.71
4.49
2.78
1.01
-0.43
-1.34
-1.73
-1.79
-1.72
-1.69
-1.81
-2.12
-2.62
-3.29
-4.04
-4.76
-5.34
-5.68
-5.76
-5.62
-5.29
-4.83
-4.29
-3.75
-3.29
-2.96
-2.72
-2.52
-2.24
-1.88
-1.49
-1.17
-1.03
-1.02
-1.02
-0.87
-0.51
0.02
0.58
1.01
1.25
1.30
1.22
1.03
0.69
0.17
-0.52
-1.25
-1.84
-2.07
-1.85
-1.27
-0.54
0.11
0.57
0.87
1.18
1.69
2.42
3.26
3.93
4.22
4.04
3.48
2.82
2.30
2.10
2.25
2.63
3.09
3.46
3.65
3.62
3.37
2.91
2.27
1.54
0.87
0.45
0.48
1.02
1.95
2.97
3.70
3.83
3.26
2.11
0.68
-0.72
-1.90
-2.78
-3.38
-3.70
-3.76
-3.54
-3.06
-2.43
-1.79
-1.30
-1.06
-1.08
-1.32
-1.68
-2.06
-2.40
-2.65
-2.80
-2.86
-2.90
-2.96
-3.06
-3.18
-3.28
-3.31
-3.26
-3.16
-3.06
-2.97
-2.85
-2.63
-2.25
-1.73
-1.15
-0.64
-0.32
-0.23
-0.26
-0.24
0.03
0.68
1.69
2.95
4.30
5.61
6.79
7.79
8.53
8.88
8.73
8.04
6.87
5.41
3.86
2.34
0.90
-0.54
-2.02
-3.57
-5.12
-6.56
-7.75
-8.55
-8.83
-8.55
-7.74
-6.53
-5.11
-3.69
-2.41
-1.30
-0.25
0.91
2.35
4.13
6.10
7.93
9.27
9.88
9.80
9.26
8.59
8.03
7.56
7.00
6.10
4.79
3.21
1.66
0.41
-0.44
-0.97
-1.36
-1.76
-2.16
-2.46
-2.56
-2.42
-2.11
-1.76
-1.50
-1.37
-1.33
-1.34
-1.34
-1.34
-1.35
-1.38
-1.43
-1.44
-1.41
-1.36
-1.36
-1.44
-1.62
-1.86
-2.10
-2.31
-2.48
-2.63
-2.76
-2.83
-2.78
-2.57
-2.19
-1.73
-1.28
-0.92
-0.66
-0.45
-0.24
-0.03
0.14
0.20
0.08
-0.21
-0.62
-1.05
-1.40
-1.65
-1.79
-1.89
-2.01
-2.16
-2.32
-2.43
-2.43
-2.25
-1.90
-1.41
-0.80
-0.13
0.57
1.24
1.78
2.11
2.17
1.96
1.56
1.09
0.66
0.32
0.06
-0.14
-0.33
-0.49
-0.57
-0.52
-0.28
0.17
0.80
1.52
2.21
2.77
3.11
3.20
3.09
2.82
2.46
2.02
1.50
0.89
0.23
-0.37
-0.76
-0.79
-0.42
0.26
1.04
1.68
1.99
1.94
1.63
1.21
0.88
0.71
0.70
0.79
0.89
0.94
0.92
0.89
0.89
0.99
1.17
1.37
1.45
1.29
0.81
0.04
-0.93
-1.98
-3.01
-3.94
-4.71
-5.26
-5.52
-5.46
-5.08
-4.51
-3.95
-3.59
-3.52
-3.63
-3.69
-3.43
-2.72
-1.63
-0.47
0.46
0.94
1.00
0.81
0.63
0.74
1.40
2.86
5.24
8.44
11.95
14.90
16.33
15.54
12.52
7.98
3.09
-1.01
-3.60
-4.61
-4.44
-3.70
-2.91
-2.38
-2.18
-2.28
-2.62
-3.11
-3.66
-4.17
-4.54
-4.72
-4.67
-4.42
-4.03
-3.57
-3.11
-2.73
-2.45
-2.26
-2.07
-1.81
-1.44
-1.01
-0.63
-0.41
-0.39
-0.54
-0.74
-0.90
-1.02
-1.13
-1.25
-1.30
-1.08
-0.41
0.79
2.36
3.97
5.23
5.87
5.81
5.16
4.13
2.89
1.59
0.34
-0.74
-1.48
-1.78
-1.63
-1.17
-0.63
-0.26
-0.18
-0.38
-0.75
-1.17
-1.56
-1.92
-2.27
-2.55
-2.67
-2.52
-2.03
-1.24
-0.33
0.49
1.02
1.16
0.96
0.60
0.37
0.58
1.38
2.70
4.22
5.46
5.97
5.54
4.25
2.46
0.63
-0.85
-1.75
-2.05
-1.81
-1.17
-0.24
0.84
1.93
2.84
3.42
3.52
3.10
2.23
1.09
-0.08
-1.08
-1.72
-1.97
-1.84
-1.46
-0.95
-0.39
0.17
0.71
1.20
1.56
1.69
1.51
1.04
0.36
-0.39
-1.08
-1.67
-2.18
-2.64
-3.07
-3.42
-3.61
-3.57
-3.35
-3.09
-2.93
-2.96
-3.12
-3.24
-3.12
-2.67
-1.94
-1.14
-0.52
-0.27
-0.43
-0.90
-1.56
-2.28
-3.04
-3.79
-4.47
-4.92
-4.96
-4.48
-3.53
-2.30
-1.08
-0.11
0.53
0.86
0.98
0.93
0.71
0.35
-0.04
-0.24
-0.07
0.55
1.50
2.51
3.37
3.97
4.36
4.67
4.94
5.14
5.21
5.17
5.12
5.18
5.30
5.27
4.73
3.45
1.41
-1.10
-3.64
-5.77
-7.25
-8.03
-8.25
-8.16
-8.04
-8.13
-8.52
-9.18
-9.92
-10.47
-10.65
-10.41
-9.84
-9.11
-8.34
-7.59
-6.82
-5.91
-4.79
-3.40
-1.77
-0.02
1.66
3.05
3.95
4.27
4.08
3.58
3.02
2.56
2.17
1.66
0.78
-0.68
-2.73
-5.18
-7.73
-10.04
-11.94
-13.48
-14.90
-16.55
-18.71
-21.46
-24.69
-28.06
-31.13
-33.46
-34.75
-34.94
-34.26
-33.22
-32.42
-32.36
-33.20
-34.65
-36.10
-36.87
-36.76
-36.14
-35.87
-36.80
-39.16
-42.34
-45.06
-45.86
-43.52
-37.18
-26.36
-10.98
8.37
30.17
51.86
70.40
83.18
89.04
88.70
84.37
78.68
73.65
70.13
67.96
66.48
65.06
63.25
60.75
57.22
52.32
45.87
37.99
29.18
20.24
12.06
5.39
0.60
-2.35
-3.86
-4.56
-5.05
-5.72
-6.66
-7.72
-8.67
-9.37
-9.87
-10.34
-10.98
-11.85
-12.87
-13.80
-14.49
-14.86
-15.00
-15.07
-15.14
-15.15
-14.92
-14.19
-12.80
-10.78
-8.31
-5.73
-3.35
-1.39
0.02
0.85
1.13
1.02
0.86
1.18
2.64
5.77
10.68
16.88
23.33
28.82
32.39
33.77
33.41
32.25
31.22
30.88
31.13
31.49
31.35
30.33
28.52
26.34
24.30
22.72
21.57
20.52
19.18
17.31
15.04
12.79
11.10
10.31
10.41
11.06
11.81
12.28
12.41
12.37
12.48
12.91
13.60
14.23
14.34
13.48
11.36
7.99
3.67
-0.98
-5.19
-8.14
-9.25
-8.35
-5.86
-2.76
-0.42
-0.15
-2.82
-8.46
-16.22
-24.62
-32.09
-37.51
-40.53
-41.52
-41.20
-40.19
-38.76
-36.88
-34.44
-31.56
-28.61
-26.06
-24.22
-23.08
-22.32
-21.49
-20.26
-18.49
-16.32
-13.99
-11.69
-9.49
-7.27
-4.84
-2.03
1.16
4.53
7.71
10.29
12.01
12.83
12.92
12.56
12.02
11.44
10.87
10.29
9.71
9.21
8.87
8.79
8.94
9.15
9.20
8.86
8.03
6.80
5.40
4.04
2.82
1.69
0.50
-0.91
-2.52
-4.15
-5.57
-6.57
-7.13
-7.39
-7.54
-7.69
-7.86
-7.98
-7.97
-7.80
-7.55
-7.28
-7.02
-6.79
-6.55
-6.31
-6.09
-5.91
-5.76
-5.59
-5.34
-4.97
-4.54
-4.11
-3.78
-3.57
-3.47
-3.41
-3.29
-3.08
-2.73
-2.25
-1.70
-1.13
-0.63
-0.25
0.01
0.20
0.38
0.62
0.88
1.09
1.15
1.01
0.68
0.26
-0.12
-0.37
-0.48
-0.52
-0.57
-0.70
-0.91
-1.13
-1.26
-1.26
-1.14
-0.96
-0.80
-0.74
-0.81
-0.98
-1.21
-1.41
-1.53
-1.53
-1.37
-1.09
-0.75
-0.41
-0.15
0.03
0.18
0.35
0.57
0.80
0.96
1.01
0.92
0.73
0.51
0.34
0.26
0.23
0.22
0.17
0.08
-0.03
-0.09
-0.08
0.04
0.24
0.48
0.72
0.93
1.10
1.19
1.19
1.06
0.82
0.50
0.19
0.01
0.03
0.24
0.56
0.86
1.03
1.04
0.93
0.79
0.68
0.61
0.58
0.53
0.46
0.39
0.37
0.43
0.54
0.66
0.69
0.60
0.38
0.10
-0.12
-0.19
-0.06
0.24
0.62
0.94
1.08
1.01
0.77
0.48
0.27
0.22
0.32
0.52
0.74
0.94
1.12
1.30
1.46
1.53
1.42
1.11
0.64
0.13
-0.31
-0.59
-0.72
-0.73
-0.71
-0.70
-0.72
-0.75
-0.80
-0.85
-0.88
-0.89
-0.86
-0.80
-0.71
-0.59
-0.46
-0.31
-0.14
0.02
0.15
0.25
0.32
0.37
0.44
0.51
0.56
0.57
0.54
0.48
0.40
0.28
0.09
-0.18
-0.49
-0.74
-0.86
-0.78
-0.55
-0.25
0.03
0.24
0.41
0.54
0.63
0.64
0.54
0.35
0.16
0.08
0.13
0.30
0.44
0.44
0.25
-0.08
-0.41
-0.62
-0.66
-0.55
-0.39
-0.25
-0.17
-0.15
-0.16
-0.17
-0.20
-0.27
-0.42
-0.63
-0.85
-0.99
-0.97
-0.76
-0.44
-0.13
0.07
0.08
-0.09
-0.35
-0.60
-0.74
-0.74
-0.62
-0.49
-0.43
-0.50
-0.70
-0.96
-1.16
-1.23
-1.13
-0.92
-0.67
-0.48
-0.37
-0.32
-0.27
-0.17
0.03
0.29
0.59
0.87
1.08
1.21
1.27
1.26
1.16
0.94
0.60
0.19
-0.21
-0.47
-0.50
-0.30
0.03
0.33
0.45
0.35
0.07
-0.26
-0.53
-0.68
-0.73
-0.75
-0.76
-0.78
-0.77
-0.71
-0.61
-0.53
-0.51
-0.55
-0.59
-0.52
-0.30
0.03
0.38
0.64
0.72
0.64
0.47
0.25
0.05
-0.13
-0.27
-0.30
-0.19
0.11
0.53
0.96
1.27
1.36
1.21
0.90
0.52
0.17
-0.09
-0.21
-0.21
-0.10
0.07
0.21
0.28
0.20
-0.02
-0.33
-0.66
-0.91
-1.01
-0.94
-0.74
-0.47
-0.21
-0.02
0.08
0.10
0.08
0.06
0.07
0.13
0.27
0.48
0.74
0.97
1.12
1.13
1.02
0.87
0.78
0.80
0.92
1.03
1.03
0.85
0.52
0.12
-0.20
-0.38
-0.42
-0.42
-0.46
-0.58
-0.74
-0.87
-0.88
-0.78
-0.63
-0.51
-0.49
-0.56
-0.65
-0.65
-0.52
-0.29
-0.01
0.24
0.41
0.49
0.46
0.34
0.12
-0.16
-0.42
-0.57
-0.57
-0.44
-0.27
-0.16
-0.13
-0.16
-0.16
-0.04
0.19
0.49
0.75
0.90
0.88
0.68
0.30
-0.18
-0.67
-1.02
-1.11
-0.87
-0.35
0.29
0.87
1.24
1.39
1.35
1.21
1.04
0.84
0.58
0.29
-0.01
-0.23
-0.33
-0.32
-0.26
-0.24
-0.32
-0.45
-0.56
-0.57
-0.42
-0.18
0.05
0.15
0.08
-0.11
-0.27
-0.25
-0.01
0.42
0.89
1.21
1.27
1.02
0.57
0.05
-0.40
-0.70
-0.86
-0.90
-0.89
-0.84
-0.75
-0.59
-0.38
-0.15
0.03
0.09
0.00
-0.17
-0.34
-0.39
-0.29
-0.08
0.13
0.23
0.19
0.08
0.01
0.03
0.14
0.23
0.21
0.04
-0.20
-0.38
-0.38
-0.18
0.14
0.42
0.52
0.40
0.14
-0.15
-0.31
-0.28
-0.08
0.19
0.39
0.47
0.43
0.32
0.21
0.12
0.01
-0.17
-0.43
-0.74
-0.99
-1.13
-1.12
-1.04
-0.98
-0.97
-0.98
-0.92
-0.71
-0.38
-0.05
0.16
0.16
-0.01
-0.23
-0.38
-0.35
-0.19
0.02
0.15
0.12
-0.06
-0.33
-0.61
-0.81
-0.87
-0.77
-0.54
-0.23
0.11
0.41
0.63
0.71
0.64
0.43
0.12
-0.20
-0.45
-0.55
-0.49
-0.29
-0.03
0.23
0.46
0.64
0.76
0.77
0.66
0.40
0.03
-0.37
-0.69
-0.82
-0.73
-0.45
-0.05
0.35
0.69
0.90
0.99
0.98
0.91
0.81
0.72
0.65
0.60
0.56
0.52
0.48
0.45
0.42
0.38
0.33
0.27
0.27
0.34
0.53
0.78
1.02
1.15
1.13
0.98
0.80
0.67
0.62
0.62
0.59
0.48
0.32
0.20
0.23
0.42
0.71
0.96
1.01
0.76
0.22
-0.50
-1.21
-1.74
-1.99
-1.92
-1.64
-1.25
-0.91
-0.72
-0.72
-0.87
-1.06
-1.14
-1.04
-0.74
-0.33
0.03
0.21
0.16
-0.04
-0.29
-0.46
-0.51
-0.46
-0.34
-0.19
0.01
0.26
0.54
0.77
0.85
0.72
0.42
0.08
-0.16
-0.21
-0.06
0.16
0.32
0.34
0.22
0.07
-0.02
0.02
0.17
0.35
0.45
0.43
0.29
0.12
-0.03
-0.12
-0.18
-0.26
-0.40
-0.58
-0.76
-0.86
-0.82
-0.61
-0.29
0.08
0.40
0.63
0.75
0.83
0.92
1.08
1.33
1.59
1.76
1.75
1.49
1.02
0.48
0.02
-0.22
-0.23
-0.07
0.09
0.14
0.04
-0.18
-0.41
-0.58
-0.66
-0.67
-0.64
-0.60
-0.55
-0.45
-0.29
-0.06
0.18
0.40
0.50
0.47
0.32
0.10
-0.08
-0.14
-0.04
0.18
0.45
0.64
0.67
0.48
0.13
-0.30
-0.67
-0.87
-0.86
-0.66
-0.36
-0.07
0.11
0.17
0.14
0.07
-0.01
-0.10
-0.19
-0.30
-0.38
-0.43
-0.45
-0.48
-0.54
-0.62
-0.67
-0.64
-0.52
-0.35
-0.22
-0.19
-0.27
-0.39
-0.47
-0.45
-0.35
-0.21
-0.08
0.04
0.17
0.31
0.44
0.51
0.47
0.30
0.08
-0.11
-0.18
-0.09
0.11
0.34
0.54
0.67
0.76
0.88
1.05
1.25
1.43
1.51
1.46
1.28
1.02
0.72
0.41
0.10
-0.16
-0.33
-0.36
-0.24
-0.05
0.09
0.10
-0.05
-0.30
-0.56
-0.74
-0.81
-0.80
-0.74
-0.63
-0.48
-0.27
-0.05
0.12
0.17
0.06
-0.18
-0.44
-0.63
-0.68
-0.59
-0.43
-0.26
-0.18
-0.20
-0.28
-0.36
-0.36
-0.28
-0.15
-0.04
0.03
0.07
0.13
0.29
0.55
0.87
1.12
1.19
1.02
0.62
0.08
-0.45
-0.85
-1.03
-0.99
-0.77
-0.46
-0.16
0.07
0.19
0.23
0.21
0.14
0.05
-0.06
-0.17
-0.28
-0.34
-0.35
-0.32
-0.31
-0.37
-0.52
-0.71
-0.85
-0.84
-0.61
-0.19
0.32
0.75
0.98
0.96
0.75
0.50
0.36
0.42
0.67
1.00
1.26
1.36
1.28
1.10
0.89
0.71
0.60
0.55
0.53
0.54
0.53
0.45
0.27
-0.03
-0.40
-0.75
-1.01
-1.15
-1.18
-1.17
-1.16
-1.18
-1.22
-1.21
-1.12
-0.92
-0.62
-0.28
0.06
0.29
0.38
0.31
0.15
-0.02
-0.08
-0.01
0.16
0.32
0.41
0.39
0.32
0.28
0.32
0.44
0.58
0.63
0.55
0.34
0.10
-0.06
-0.06
0.09
0.33
0.56
0.66
0.61
0.41
0.15
-0.11
-0.32
-0.45
-0.54
-0.61
-0.65
-0.64
-0.53
-0.30
0.00
0.32
0.55
0.63
0.55
0.37
0.16
-0.01
-0.10
-0.12
-0.08
0.01
0.12
0.22
0.29
0.29
0.21
0.09
-0.04
-0.13
-0.17
-0.20
-0.25
-0.31
-0.38
-0.39
-0.33
-0.19
-0.04
0.08
0.12
0.08
-0.00
-0.09
-0.11
-0.06
0.06
0.22
0.37
0.46
0.48
0.39
0.19
-0.07
-0.34
-0.53
-0.58
-0.46
-0.23
-0.00
0.11
0.03
-0.22
-0.53
-0.74
-0.72
-0.46
-0.05
0.31
0.47
0.34
-0.03
-0.47
-0.81
-0.93
-0.80
-0.50
-0.14
0.19
0.42
0.50
0.41
0.19
-0.11
-0.36
-0.44
-0.30
-0.01
0.30
0.46
0.40
0.14
-0.17
-0.38
-0.41
-0.29
-0.13
-0.04
-0.07
-0.20
-0.35
-0.45
-0.46
-0.44
-0.42
-0.42
-0.43
-0.37
-0.22
-0.00
0.20
0.29
0.23
0.04
-0.17
-0.31
-0.31
-0.21
-0.06
0.08
0.20
0.30
0.41
0.51
0.55
0.53
0.46
0.41
0.45
0.60
0.82
1.03
1.14
1.12
0.98
0.77
0.54
0.28
0.01
-0.26
-0.48
-0.58
-0.53
-0.33
-0.05
0.22
0.39
0.45
0.42
0.34
0.29
0.30
0.38
0.51
0.61
0.63
0.53
0.34
0.10
-0.08
-0.14
-0.08
0.06
0.18
0.22
0.17
0.07
-0.02
-0.05
-0.03
-0.02
-0.07
-0.18
-0.30
-0.38
-0.35
-0.25
-0.14
-0.07
-0.08
-0.13
-0.17
-0.17
-0.19
-0.30
-0.54
-0.89
-1.25
-1.48
-1.48
-1.22
-0.76
-0.20
0.31
0.67
0.84
0.81
0.66
0.48
0.37
0.35
0.38
0.40
0.34
0.22
0.08
0.02
0.04
0.12
0.19
0.18
0.15
0.12
0.16
0.25
0.33
0.31
0.13
-0.17
-0.53
-0.84
-1.05
-1.11
-0.98
-0.67
-0.21
0.32
0.74
0.91
0.72
0.23
-0.37
-0.85
-1.03
-0.93
-0.67
-0.46
-0.45
-0.65
-0.95
-1.19
-1.26
-1.17
-0.96
-0.74
-0.52
-0.32
-0.12
0.09
0.22
0.24
0.13
-0.04
-0.14
-0.08
0.20
0.59
0.97
1.18
1.16
0.97
0.74
0.59
0.61
0.74
0.87
0.87
0.70
0.40
0.10
-0.08
-0.11
-0.02
0.08
0.12
0.09
0.06
0.11
0.26
0.45
0.58
0.59
0.47
0.27
0.04
-0.17
-0.36
-0.50
-0.59
-0.60
-0.54
-0.44
-0.35
-0.28
-0.22
-0.14
-0.04
0.08
0.16
0.18
0.12
0.02
-0.09
-0.17
-0.21
-0.23
-0.21
-0.15
-0.05
0.06
0.14
0.15
0.08
-0.02
-0.08
-0.06
0.03
0.08
0.01
-0.22
-0.56
-0.87
-0.98
-0.79
-0.34
0.23
0.73
0.98
0.94
0.67
0.35
0.17
0.20
0.42
0.66
0.77
0.66
0.37
0.03
-0.22
-0.28
-0.16
0.02
0.11
0.04
-0.19
-0.47
-0.68
-0.76
-0.71
-0.62
-0.58
-0.64
-0.76
-0.86
-0.88
-0.81
-0.71
-0.64
-0.64
-0.65
-0.58
-0.38
-0.07
0.23
0.43
0.46
0.36
0.20
0.07
0.00
-0.03
-0.06
-0.09
-0.09
-0.02
0.09
0.18
0.14
-0.08
-0.42
-0.77
-0.95
-0.88
-0.59
-0.20
0.11
0.23
0.16
0.01
-0.11
-0.16
-0.15
-0.17
-0.26
-0.41
-0.54
-0.55
-0.39
-0.12
0.18
0.41
0.55
0.62
0.68
0.79
0.93
1.04
1.05
0.94
0.74
0.51
0.33
0.22
0.19
0.21
0.22
0.21
0.19
0.21
0.28
0.43
0.60
0.71
0.71
0.56
0.32
0.11
0.02
0.10
0.33
0.59
0.77
0.78
0.59
0.27
-0.09
-0.37
-0.51
-0.48
-0.31
-0.07
0.14
0.24
0.18
-0.03
-0.33
-0.62
-0.81
-0.86
-0.76
-0.55
-0.28
-0.03
0.13
0.19
0.15
0.09
0.09
0.23
0.51
0.82
1.00
0.92
0.57
0.10
-0.27
-0.38
-0.19
0.17
0.48
0.61
0.55
0.40
0.30
0.33
0.45
0.54
0.51
0.37
0.21
0.18
0.31
0.56
0.77
0.80
0.62
0.30
0.01
-0.10
0.02
0.29
0.58
0.76
0.76
0.61
0.40
0.21
0.13
0.16
0.29
0.45
0.56
0.57
0.43
0.17
-0.11
-0.32
-0.38
-0.25
0.02
0.32
0.51
0.50
0.25
-0.16
-0.59
-0.92
-1.04
-0.93
-0.69
-0.43
-0.26
-0.26
-0.39
-0.60
-0.79
-0.91
-0.97
-1.02
-1.06
-1.08
-0.99
-0.72
-0.26
0.29
0.75
0.97
0.85
0.45
-0.06
-0.49
-0.68
-0.61
-0.35
-0.05
0.22
0.42
0.53
0.56
0.51
0.38
0.20
0.06
0.04
0.15
0.35
0.53
0.56
0.39
0.08
-0.28
-0.58
-0.76
-0.83
-0.84
-0.82
-0.79
-0.73
-0.61
-0.46
-0.30
-0.15
-0.04
0.01
0.01
-0.01
-0.02
0.03
0.16
0.33
0.49
0.59
0.57
0.43
0.20
-0.07
-0.31
-0.46
-0.50
-0.43
-0.28
-0.12
0.00
0.05
0.05
0.09
0.24
0.53
0.88
1.17
1.25
1.04
0.59
0.05
-0.41
-0.70
-0.83
-0.88
-0.95
-1.02
-1.03
-0.89
-0.58
-0.21
0.08
0.13
-0.07
-0.40
-0.69
-0.82
-0.74
-0.55
-0.36
-0.25
-0.20
-0.16
-0.07
0.05
0.17
0.25
0.30
0.38
0.56
0.84
1.12
1.28
1.22
0.97
0.63
0.33
0.15
0.06
-0.03
-0.20
-0.44
-0.67
-0.79
-0.73
-0.54
-0.30
-0.13
-0.08
-0.15
-0.28
-0.43
-0.57
-0.73
-0.92
-1.16
-1.41
-1.57
-1.55
-1.31
-0.90
-0.42
-0.02
0.20
0.22
0.09
-0.07
-0.17
-0.16
-0.05
0.11
0.28
0.41
0.51
0.56
0.57
0.55
0.54
0.56
0.63
0.72
0.74
0.64
0.43
0.17
-0.01
0.00
0.21
0.51
0.76
0.81
0.63
0.29
-0.08
-0.35
-0.48
-0.50
-0.44
-0.36
-0.22
-0.01
0.31
0.70
1.11
1.42
1.55
1.45
1.13
0.65
0.15
-0.23
-0.38
-0.29
-0.02
0.31
0.58
0.71
0.69
0.53
0.26
-0.09
-0.49
-0.86
-1.09
-1.10
-0.87
-0.48
-0.06
0.23
0.31
0.24
0.10
-0.02
-0.06
-0.07
-0.09
-0.14
-0.17
-0.10
0.12
0.45
0.78
0.95
0.90
0.61
0.20
-0.18
-0.41
-0.45
-0.32
-0.13
0.01
0.03
-0.05
-0.12
-0.09
0.09
0.41
0.76
0.99
0.99
0.73
0.27
-0.24
-0.67
-0.93
-1.02
-1.01
-0.98
-0.98
-1.01
-1.02
-0.98
-0.90
-0.84
-0.86
-0.98
-1.15
-1.26
-1.23
-1.05
-0.79
-0.59
-0.57
-0.76
-1.12
-1.54
-1.93
-2.28
-2.57
-2.85
-3.11
-3.34
-3.54
-3.69
-3.81
-3.91
-4.03
-4.22
-4.53
-5.03
-5.76
-6.72
-7.82
-8.95
-9.95
-10.75
-11.33
-11.75
-12.13
-12.60
-13.25
-14.09
-15.13
-16.24
-17.33
-18.28
-19.03
-19.63
-20.20
-20.85
-21.59
-22.22
-22.38
-21.58
-19.42
-15.66
-10.23
-3.27
4.87
13.69
22.46
30.34
36.58
40.70
42.62
42.69
41.50
39.61
37.39
34.99
32.49
29.99
27.70
25.80
24.36
23.22
22.14
20.88
19.41
17.92
16.74
16.22
16.54
17.67
19.35
21.07
22.19
21.99
19.91
15.76
9.84
2.88
-4.21
-10.65
-15.94
-19.93
-22.63
-24.06
-24.21
-23.12
-21.02
-18.40
-15.87
-13.88
-12.61
-11.81
-11.07
-10.01
-8.57
-7.05
-6.02
-5.97
-6.94
-8.32
-8.86
-7.07
-1.88
6.92
18.46
31.04
42.60
51.22
55.48
54.68
48.86
38.86
26.15
12.66
0.32
-9.42
-15.90
-19.30
-20.36
-20.02
-19.10
-18.18
-17.60
-17.62
-18.32
-19.66
-21.37
-23.05
-24.29
-24.85
-24.71
-24.13
-23.54
-23.31
-23.66
-24.40
-25.01
-24.79
-23.15
-19.98
-15.83
-11.71
-8.70
-7.42
-7.76
-8.92
-9.89
-10.04
-9.47
-9.07
-9.99
-13.05
-18.24
-24.64
-30.82
-35.49
-38.05
-38.70
-38.31
-37.92
-38.36
-40.29
-44.28
-50.72
-59.21
-67.86
-73.29
-71.58
-60.08
-39.16
-12.71
13.06
32.01
40.56
38.89
30.19
18.81
8.14
-0.46
-7.50
-14.20
-21.44
-29.16
-36.59
-42.90
-47.89
-52.18
-56.96
-63.21
-70.82
-78.39
-83.86
-85.68
-83.75
-79.43
-74.61
-70.39
-66.60
-62.33
-57.33
-52.78
-50.82
-52.83
-57.62
-60.70
-55.53
-36.24
-0.42
49.36
106.22
161.37
207.19
239.23
256.86
262.11
258.02
247.48
232.86
216.64
201.81
191.13
185.60
183.16
178.87
167.09
144.63
112.90
77.76
46.85
26.10
17.31
18.09
23.80
30.10
34.64
37.23
38.97
41.25
45.17
51.48
60.56
72.02
84.12
93.51
95.69
86.44
63.54
28.17
-14.68
-57.72
-93.66
-117.66
-128.62
-128.93
-122.81
-114.29
-105.92
-98.54
-92.06
-86.29
-81.43
-77.92
-75.91
-74.91
-73.88
-71.67
-67.65
-62.03
-55.75
-50.01
-45.73
-43.22
-42.21
-42.11
-42.36
-42.59
-42.65
-42.55
-42.35
-42.18
-42.31
-42.97
-44.28
-46.09
-47.94
-49.31
-49.98
-50.20
-50.73
-52.56
-56.39
-62.35
-69.87
-77.96
-85.65
-92.41
-98.31
-103.85
-109.54
-115.62
-121.97
-128.38
-134.82
-141.43
-148.06
-153.67
-156.08
-152.19
-139.00
-114.67
-79.17
-34.13
17.95
74.49
133.20
191.60
246.74
295.15
333.68
360.76
377.27
386.40
392.26
397.92
403.84
407.70
405.49
393.53
370.28
336.89
296.45
252.46
207.28
161.31
113.37
61.95
6.75
-50.20
-104.62
-151.20
-185.41
-205.17
-211.54
-208.03
-199.12
-188.46
-177.89
-167.53
-156.73
-145.20
-133.53
-122.96
-114.52
-108.39
-103.66
-98.85
-92.77
-85.07
-76.43
-68.17
-61.54
-57.08
-54.45
-52.60
-50.36
-47.01
-42.55
-37.59
-32.91
-29.06
-26.08
-23.56
-20.94
-17.82
-14.14
-10.14
-6.21
-2.67
0.33
2.79
4.81
6.48
7.84
8.88
9.61
10.00
10.03
9.67
8.86
7.59
5.91
3.94
1.83
-0.26
-2.15
-3.73
-4.92
-5.71
-6.16
-6.42
-6.59
-6.79
-7.00
-7.19
-7.30
-7.35
-7.39
-7.50
-7.71
-7.94
-8.05
-7.95
-7.62
-7.21
-6.96
-7.06
-7.59
-8.47
-9.51
-10.50
-11.27
-11.76
-11.96
-11.91
-11.67
-11.29
-10.75
-10.01
-9.02
-7.76
-6.31
-4.85
-3.58
-2.56
-1.71
-0.76
0.58
2.56
5.24
8.56
12.35
16.39
20.43
24.15
27.19
29.15
29.74
28.84
26.54
23.12
18.96
14.42
9.87
5.63
2.02
-0.71
-2.40
-3.00
-2.68
-1.77
-0.65
0.36
1.17
1.92
2.86
4.18
5.75
7.12
7.66
6.83
4.42
0.69
-3.73
-8.11
-11.81
-14.46
-15.98
-16.47
-16.15
-15.24
-13.97
-12.54
-11.10
-9.76
-8.62
-7.74
-7.19
-6.93
-6.83
-6.63
-6.07
-5.04
-3.66
-2.27
-1.24
-0.77
-0.80
-1.00
-1.03
-0.67
0.06
1.01
1.97
2.83
3.59
4.31
5.06
5.83
6.59
7.25
7.71
7.92
7.78
7.27
6.40
5.24
3.94
2.65
1.50
0.59
-0.04
-0.35
-0.29
0.15
0.94
1.94
2.86
3.38
3.20
2.20
0.48
-1.63
-3.72
-5.48
-6.76
-7.68
-8.46
-9.22
-9.90
-10.21
-9.82
-8.54
-6.47
-4.01
-1.65
0.19
1.36
1.93
2.10
2.04
1.81
1.40
0.82
0.14
-0.50
-0.98
-1.22
-1.24
-1.10
-0.83
-0.42
0.13
0.84
1.63
2.45
3.22
3.94
4.64
5.28
5.70
5.68
5.00
3.58
1.60
-0.57
-2.48
-3.79
-4.40
-4.45
-4.22
-3.99
-3.99
-4.28
-4.86
-5.61
-6.32
-6.75
-6.70
-6.14
-5.30
-4.58
-4.37
-4.87
-5.99
-7.45
-8.95
-10.33
-11.61
-12.84
-14.05
-15.09
-15.67
-15.60
-14.84
-13.71
-12.73
-12.49
-13.40
-15.44
-18.16
-20.73
-22.34
-22.44
-21.07
-18.79
-16.45
-14.87
-14.65
-16.04
-18.79
-21.99
-24.08
