1660750248.00
64.000000
-0.00
-0.00
-0.00
-0.00
-0.00
-0.00
-0.00
-0.00
-0.00
-0.00
0.00
0.01
0.01
-0.00
-0.03
-0.05
-0.05
0.00
0.13
0.36
0.66
1.01
1.37
1.72
2.06
2.40
2.79
3.24
3.80
4.42
5.06
5.66
6.20
6.68
7.15
7.68
8.31
9.14
10.09
11.04
11.88
12.56
13.14
13.76
14.65
15.96
17.91
20.32
22.90
25.38
27.58
29.57
31.68
34.32
37.81
42.54
48.15
54.10
59.83
64.97
69.58
74.14
79.34
85.71
93.76
103.00
112.62
121.73
129.77
136.75
143.30
150.75
157.77
166.64
177.95
191.79
206.97
220.57
228.25
225.36
208.53
176.87
132.76
80.05
23.07
-34.94
-92.44
-149.16
-205.23
-260.37
-313.74
-363.87
-409.83
-450.91
-486.50
-515.74
-537.23
-549.22
-549.96
-538.37
-514.20
-478.67
-433.88
-382.46
-327.03
-269.84
-212.62
-156.63
-102.92
-52.34
-5.92
35.50
71.25
101.08
125.15
144.00
158.31
168.77
175.99
180.33
182.07
181.47
178.82
174.50
168.92
162.48
155.49
148.14
140.53
132.73
124.82
116.90
109.12
101.57
94.31
87.28
80.39
73.55
66.76
60.10
53.77
47.97
42.79
38.17
33.90
29.70
25.33
20.77
16.19
11.95
8.39
5.69
3.71
2.07
0.27
-2.06
-4.95
-8.11
-10.99
-13.12
-14.28
-14.66
-14.72
-15.02
-15.90
-17.57
-20.09
-23.44
-27.26
-30.66
-32.14
-29.97
-22.97
-11.39
2.92
17.09
28.46
35.68
39.12
40.22
40.43
40.32
39.48
37.16
33.11
28.04
23.25
19.97
18.58
18.52
18.70
18.14
16.50
14.12
11.69
9.82
8.68
8.02
7.37
6.30
4.68
2.69
0.75
-0.70
-1.41
-1.34
-0.77
-0.11
0.19
-0.13
-1.08
-2.38
-3.57
-4.15
-3.78
-2.40
-0.21
2.34
4.75
6.61
7.72
8.13
8.12
7.99
8.01
8.27
8.74
9.40
10.23
11.25
12.47
13.77
14.93
15.65
15.68
14.90
13.37
11.28
8.93
6.42
3.80
1.04
-1.89
-4.95
-8.01
-10.81
-13.11
-14.72
-15.62
-15.88
-15.69
-15.24
-14.67
-14.12
-13.67
-13.39
-13.22
-13.06
-12.68
-11.80
-10.24
-8.01
-5.41
-2.92
-1.05
-0.14
-0.25
-1.11
-2.28
-3.32
-3.95
-4.14
-4.04
-3.90
-3.85
-3.85
-3.75
-3.38
-2.68
-1.81
-1.06
-0.71
-0.90
-1.49
-2.14
-2.46
-2.18
-1.38
-0.40
0.26
0.28
-0.40
-1.44
-2.33
-2.63
-2.20
-1.25
-0.23
0.39
0.33
-0.43
-1.73
-3.20
-4.53
-5.44
-5.71
-5.16
-3.74
-1.53
1.16
3.89
6.15
7.58
8.07
7.80
7.11
6.37
5.81
5.48
5.23
4.94
4.49
3.98
3.58
3.51
3.82
4.39
4.94
5.11
4.61
3.33
1.35
-1.12
-3.82
-6.48
-8.95
-11.12
-12.90
-14.26
-15.15
-15.58
-15.59
-15.29
-14.80
-14.26
-13.82
-13.59
-13.63
-13.88
-14.17
-14.27
-13.97
-13.15
-11.84
-10.19
-8.40
-6.69
-5.18
-3.89
-2.84
-1.97
-1.26
-0.73
-0.42
-0.33
-0.47
-0.74
-0.97
-0.98
-0.64
0.06
0.96
1.86
2.58
3.05
3.33
3.50
3.67
3.87
4.09
4.26
4.28
4.11
3.77
3.38
3.08
2.97
3.07
3.27
3.38
3.29
2.97
2.47
1.90
1.29
0.64
-0.01
-0.48
-0.49
0.30
2.01
4.48
7.24
9.69
11.36
12.06
11.99
11.52
11.00
10.62
10.33
9.95
9.33
8.46
7.52
6.71
6.17
5.90
5.73
5.47
5.01
4.41
3.83
3.49
3.51
3.87
4.36
4.72
4.75
4.31
3.47
2.37
1.22
0.20
-0.58
-1.10
-1.37
-1.42
-1.27
-1.04
-0.86
-0.96
-1.57
-2.76
-4.38
-6.00
-7.01
-6.84
-5.19
-2.20
1.61
5.49
8.85
11.39
13.21
14.64
16.00
17.40
18.70
19.59
19.78
19.12
17.69
15.70
13.45
11.15
8.94
6.84
4.82
2.86
0.97
-0.79
-2.35
-3.67
-4.80
-5.81
-6.81
-7.83
-8.79
-9.55
-9.96
-10.02
-9.83
-9.63
-9.62
-9.95
-10.62
-11.51
-12.45
-13.31
-14.05
-14.74
-15.50
-16.37
-17.18
-17.60
-17.18
-15.60
-12.86
-9.35
-5.71
-2.62
-0.48
0.67
1.15
1.33
1.50
1.68
1.75
1.55
1.06
0.48
0.08
0.13
0.71
1.65
2.65
3.37
3.67
3.63
3.55
3.70
4.22
4.98
5.59
5.59
4.66
2.74
0.05
-2.98
-5.90
-8.30
-9.93
-10.69
-10.65
-9.99
-9.02
-8.09
-7.53
-7.46
-7.77
-8.10
-7.95
-6.85
-4.51
-0.93
3.62
8.65
13.59
17.89
21.16
23.23
24.18
24.31
24.02
23.66
23.40
23.21
22.86
22.10
20.75
18.74
16.17
13.20
10.09
7.09
4.47
2.44
1.09
0.34
-0.11
-0.68
-1.75
-3.57
-6.15
-9.30
-12.69
-15.95
-18.82
-21.15
-22.93
-24.26
-25.27
-26.10
-26.83
-27.50
-28.05
-28.39
-28.42
-28.10
-27.41
-26.39
-25.05
-23.41
-21.49
-19.33
-17.09
-15.01
-13.37
-12.39
-12.18
-12.60
-13.41
-14.30
-15.07
-15.67
-16.17
-16.74
-17.49
-18.45
-19.53
-20.60
-21.50
-22.10
-22.20
-21.60
-20.11
-17.60
-14.09
-9.74
-4.86
0.22
5.23
9.99
14.46
18.63
22.45
25.81
28.47
30.23
30.97
30.78
29.94
28.88
28.08
27.90
28.52
29.88
31.72
33.74
35.66
37.37
38.90
40.39
41.88
43.26
44.18
44.14
42.67
39.53
34.76
28.76
22.15
15.64
9.90
5.44
2.51
1.03
0.64
0.79
0.94
0.75
0.15
-0.72
-1.64
-2.45
-3.05
-3.41
-3.51
-3.28
-2.71
-1.88
-1.00
-0.45
-0.60
-1.74
-3.92
-6.87
-9.99
-12.53
-13.78
-13.36
-11.41
-8.52
-5.49
-2.96
-1.19
-0.04
0.82
1.67
2.50
3.08
3.10
2.41
1.05
-0.72
-2.60
-4.35
-5.89
-7.21
-8.39
-9.51
-10.63
-11.76
-12.83
-13.73
-14.28
-14.37
-14.01
-13.36
-12.69
-12.29
-12.35
-12.93
-13.96
-15.25
-16.63
-17.99
-19.25
-20.38
-21.30
-21.91
-22.03
-21.49
-20.15
-18.02
-15.24
-12.10
-8.92
-5.95
-3.29
-0.84
1.59
4.19
7.00
9.86
12.50
14.63
16.11
17.03
17.68
18.33
19.15
20.09
20.93
21.47
21.61
21.41
21.04
20.67
20.34
20.01
19.54
18.83
17.84
16.64
15.34
14.04
12.75
11.40
9.77
7.63
4.81
1.30
-2.75
-6.98
-10.94
-14.16
-16.22
-16.80
-15.78
-13.35
-9.94
-6.21
-2.77
-0.07
1.77
2.87
3.42
3.55
3.23
2.37
0.97
-0.85
-2.78
-4.50
-5.69
-6.13
-5.73
-4.54
-2.72
-0.55
1.62
3.41
4.58
5.12
5.23
5.19
5.30
5.60
5.89
5.74
4.69
2.42
-1.08
-5.49
-10.25
-14.73
-18.42
-21.02
-22.49
-22.96
-22.68
-21.92
-20.87
-19.61
-18.10
-16.24
-13.94
-11.23
-8.23
-5.14
-2.20
0.44
2.72
4.69
6.45
8.14
9.88
11.74
13.70
15.61
17.19
18.12
18.15
17.20
15.44
13.24
11.11
9.54
8.81
8.90
9.54
10.34
10.95
11.22
11.19
11.03
10.86
10.66
10.31
9.70
8.76
7.62
6.46
5.39
4.41
3.32
1.85
-0.19
-2.80
-5.73
-8.57
-10.94
-12.64
-13.74
-14.50
-15.24
-16.13
-17.17
-18.25
-19.23
-20.10
-20.88
-21.46
-21.58
-20.87
-18.97
-15.80
-11.67
-7.18
-3.04
0.25
2.50
3.88
4.79
5.60
6.52
7.55
8.53
9.26
9.63
9.66
9.44
9.10
8.72
8.27
7.73
7.06
6.27
5.49
4.82
4.39
4.23
4.29
4.40
4.34
3.97
3.24
2.26
1.22
0.30
-0.47
-1.16
-1.93
-2.95
-4.22
-5.63
-6.98
-8.08
-8.83
-9.30
-9.63
-10.05
-10.68
-11.54
-12.49
-13.38
-14.15
-14.81
-15.50
-16.22
-16.73
-16.59
-15.27
-12.46
-8.31
-3.45
1.25
5.02
7.52
8.88
9.61
10.29
11.28
12.65
14.21
15.68
16.85
17.68
18.20
18.47
18.48
18.18
17.51
16.49
15.21
13.86
12.61
11.58
10.77
10.09
9.40
8.60
7.72
6.85
6.15
5.74
5.60
5.56
5.33
4.67
3.47
1.82
0.02
-1.59
-2.73
-3.39
-3.75
-4.15
-4.85
-5.95
-7.31
-8.71
-9.91
-10.86
-11.67
-12.54
-13.68
-15.16
-16.93
-18.81
-20.51
-21.69
-21.93
-20.94
-18.65
-15.25
-11.21
-7.11
-3.42
-0.41
1.87
3.50
4.59
5.20
5.42
5.38
5.28
5.30
5.54
5.97
6.41
6.71
6.79
6.71
6.62
6.68
6.95
7.40
7.87
8.18
8.17
7.76
6.92
5.74
4.36
2.99
1.87
1.20
1.11
1.54
2.25
2.92
3.21
2.95
2.15
1.04
-0.04
-0.82
-1.18
-1.20
-1.16
-1.37
-2.12
-3.50
-5.41
-7.51
-9.27
-10.09
-9.47
-7.24
-3.63
0.75
5.09
8.69
11.17
12.54
13.08
13.15
12.95
12.51
11.74
10.66
9.44
8.35
7.67
7.45
7.54
7.66
7.57
7.25
6.89
6.79
7.14
7.92
8.87
9.62
9.87
9.47
8.51
7.17
5.72
4.38
3.27
2.44
1.81
1.19
0.37
-0.82
-2.45
-4.47
-6.76
-9.12
-11.36
-13.28
-14.73
-15.69
-16.32
-16.97
-18.10
-19.98
-22.54
-25.20
-27.05
-27.18
-25.05
-20.81
-15.21
-9.33
-4.17
-0.31
2.19
3.67
4.61
5.36
6.09
6.79
7.36
7.76
8.01
8.12
8.01
7.54
6.56
4.99
2.98
0.85
-0.95
-1.99
-1.98
-0.93
0.89
3.02
4.95
6.29
6.88
6.74
6.00
4.82
3.30
1.56
-0.27
-1.99
-3.40
-4.42
-5.11
-5.72
-6.53
-7.68
-9.09
-10.49
-11.53
-12.00
-11.90
-11.44
-10.94
-10.61
-10.44
-10.18
-9.44
-7.85
-5.19
-1.53
2.80
7.31
11.49
14.92
17.37
18.84
19.39
19.17
18.30
16.88
14.98
12.76
10.45
8.31
6.57
5.34
4.60
4.21
4.01
3.93
3.99
4.26
4.76
5.40
5.92
6.02
5.43
4.06
2.06
-0.26
-2.57
-4.70
-6.65
-8.59
-10.62
-12.69
-14.58
-15.95
-16.59
-16.49
-15.86
-15.08
-14.51
-14.40
-14.81
-15.61
-16.52
-17.11
-16.94
-15.62
-12.98
-9.17
-4.70
-0.25
3.45
5.93
7.12
7.27
6.85
6.27
5.80
5.49
5.29
5.14
5.07
5.09
5.22
5.39
5.50
5.44
5.17
4.72
4.15
3.55
2.89
2.14
1.23
0.10
-1.23
-2.65
-3.96
-4.96
-5.47
-5.50
-5.21
-4.86
-4.69
-4.86
-5.40
-6.22
-7.25
-8.41
-9.68
-11.03
-12.50
-14.13
-16.00
-18.16
-20.47
-22.61
-24.05
-24.22
-22.73
-19.58
-15.19
-10.28
-5.68
-1.98
0.52
1.90
2.48
2.66
2.72
2.80
2.91
3.01
3.07
3.14
3.28
3.53
3.84
4.14
4.41
4.67
5.02
5.57
6.31
7.08
7.68
7.94
7.90
7.82
8.02
8.77
10.06
11.57
12.80
13.37
13.13
12.41
11.83
12.08
13.51
16.00
18.89
21.27
22.51
22.49
21.84
21.62
22.89
26.27
31.65
38.31
45.28
51.79
57.58
62.93
68.49
75.08
83.53
94.57
108.48
124.45
139.98
150.83
151.99
139.69
113.39
76.86
37.35
3.26
-18.84
-25.98
-18.88
-0.55
25.26
54.80
83.98
107.66
119.74
114.53
89.07
45.12
-10.44
-67.28
-114.79
-145.31
-156.04
-149.11
-130.09
-105.79
-82.51
-65.10
-56.58
-58.22
-69.45
-87.92
-109.75
-130.20
-144.95
-151.23
-148.51
-138.28
-123.26
-106.39
-90.01
-75.48
-63.13
-52.49
-42.52
-32.15
-20.36
-6.48
9.69
27.71
46.61
65.05
81.66
95.38
105.43
111.50
113.58
111.74
105.90
95.76
81.14
62.38
40.63
17.43
-5.09
-24.62
-39.09
-47.34
-49.44
-46.54
-40.47
-33.21
-27.56
-25.60
-28.03
-34.13
-42.59
-52.17
-61.82
-70.45
-76.98
-82.72
-88.96
-95.89
-102.32
-106.74
-108.24
-106.55
-101.70
-93.78
-86.48
-82.70
-82.55
-83.29
-81.96
-77.79
-72.52
-69.14
-70.37
-82.25
-108.15
-146.74
-192.46
-239.21
-283.29
-323.64
-360.29
-364.94
-320.54
-231.29
-121.82
-18.46
64.72
125.59
167.79
196.72
217.32
228.59
229.20
220.25
205.95
190.99
178.38
168.92
161.88
157.51
152.30
143.32
130.20
115.37
101.80
93.06
89.11
89.31
93.10
97.56
100.14
99.75
97.05
93.06
88.82
84.62
80.97
78.47
76.26
73.06
67.82
60.03
48.95
35.07
19.07
2.43
-13.20
-27.08
-39.27
-50.45
-59.54
-68.09
-76.92
-86.62
-97.25
-108.02
-116.83
-120.27
-114.53
-97.26
-69.65
-36.28
-4.41
19.15
30.75
31.20
24.74
16.50
9.96
5.64
2.39
-1.24
-5.55
-9.40
-11.13
-9.79
-5.68
-0.16
4.86
8.64
11.25
13.41
15.97
19.36
23.34
27.11
29.79
30.67
29.83
27.81
25.48
23.67
22.66
22.23
21.71
20.35
17.65
13.59
8.48
2.91
-2.55
-7.41
-11.20
-13.57
-14.43
-14.16
-13.62
-13.94
-15.82
-19.34
-23.81
-28.14
-31.47
-33.63
-35.18
-36.98
-39.65
-43.03
-46.46
-49.20
-50.91
-51.82
-52.51
-53.52
-54.93
-57.18
-59.83
-61.98
-62.63
-60.93
-56.44
-49.32
-40.19
-30.11
-20.17
-11.15
-3.56
2.42
6.73
9.48
10.91
11.48
11.80
12.46
13.90
16.10
18.60
20.71
21.86
21.84
20.87
19.48
18.23
17.47
17.17
16.89
16.09
14.45
12.03
9.28
6.76
4.82
3.44
2.21
0.60
-1.85
-5.33
-9.77
-14.83
-19.92
-24.18
-26.71
-26.90
-24.90
-21.83
-19.50
-19.66
-23.07
-28.98
-35.31
-39.55
-39.87
-35.91
-28.84
-20.67
-13.28
-7.71
-3.94
-1.29
0.99
3.23
5.25
6.55
6.76
5.91
4.43
3.00
2.29
2.75
4.58
7.87
12.57
18.52
25.34
32.27
38.35
42.61
44.47
43.98
41.84
39.06
36.50
34.50
32.82
30.86
28.02
24.00
18.86
12.86
6.36
-0.39
-7.17
-13.78
-19.86
-24.88
-28.17
-28.99
-26.77
-21.24
-12.56
-1.35
11.48
24.85
37.75
49.32
59.00
66.47
71.67
74.66
75.55
74.43
71.43
66.72
60.70
53.96
47.23
41.18
36.18
32.24
29.00
25.88
22.30
17.86
12.41
6.10
-0.73
-7.59
-14.02
-19.74
-24.73
-29.21
-33.54
-38.12
-43.22
-48.93
-55.06
-61.26
-66.96
-71.51
-74.30
-74.88
-73.03
-68.77
-62.27
-53.68
-43.07
-30.41
-15.73
0.69
18.10
35.27
50.72
63.00
71.12
74.85
74.77
72.04
68.07
64.08
60.89
58.83
57.82
57.59
57.77
58.03
58.04
57.53
56.29
54.21
51.27
47.51
43.01
37.87
32.22
26.24
20.12
13.97
7.79
1.54
-4.86
-11.39
-17.90
-24.17
-29.93
-34.98
-39.17
-42.33
-44.29
-44.81
-43.67
-40.77
-36.18
-30.18
-23.24
-15.98
-9.10
-3.30
0.88
3.17
3.62
2.57
0.61
-1.56
-3.28
-3.98
-3.34
-1.42
1.38
4.32
6.63
7.82
7.93
7.56
7.60
8.76
11.24
14.55
17.75
19.89
20.41
19.34
17.22
14.78
12.61
10.93
9.60
8.35
6.88
5.14
3.25
1.55
0.45
0.38
1.58
4.12
7.74
11.97
16.27
20.17
23.46
26.15
28.37
30.23
31.70
32.66
33.02
32.74
31.85
30.39
28.37
25.80
22.75
19.46
16.28
13.63
11.80
10.87
10.74
11.09
11.56
11.77
11.40
10.28
8.39
5.93
3.23
0.62
-1.74
-3.93
-6.29
-9.29
-13.26
-18.23
-23.75
-28.92
-32.61
-33.76
-31.70
-26.37
-18.33
-8.60
1.62
11.27
19.62
26.35
31.49
35.33
38.28
40.83
43.43
46.36
49.73
53.48
57.44
61.48
65.49
69.33
72.77
75.43
76.90
76.90
75.45
72.84
69.51
65.78
61.67
56.74
50.34
41.88
31.28
19.12
6.60
-4.84
-14.10
-20.74
-25.11
-28.03
-30.39
-32.72
-35.12
-37.30
-38.86
-39.45
-38.88
-37.18
-34.55
-31.35
-28.15
-25.55
-24.07
-23.98
-25.19
-27.29
-29.74
-31.96
-33.53
-34.20
-33.94
-32.91
-31.42
-29.93
-28.92
-28.80
-29.72
-31.52
-33.69
-35.51
-36.28
-35.60
-33.49
-30.41
-27.13
-24.41
-22.82
-22.52
-23.20
-24.21
-24.78
-24.33
-22.75
-20.51
-18.44
-17.45
-18.05
-20.13
-22.93
-25.39
-26.55
-25.88
-23.41
-19.58
-15.02
-10.31
-5.87
-1.96
1.34
4.02
6.20
8.09
9.94
12.01
14.50
17.50
20.93
24.59
28.13
31.09
33.01
33.64
32.97
31.35
29.32
27.47
26.21
25.69
25.87
26.56
27.60
28.83
30.15
31.40
32.43
33.04
33.09
32.44
31.02
28.76
25.67
21.81
17.34
12.52
7.65
3.08
-0.86
-3.86
-5.64
-6.04
-5.03
-2.78
0.29
3.60
6.41
8.01
7.92
6.09
2.95
-0.61
-3.60
-5.23
-5.27
-4.04
-2.29
-0.89
-0.43
-1.07
-2.55
-4.29
-5.73
-6.47
-6.40
-5.72
-4.75
-3.84
-3.25
-3.07
-3.24
-3.65
-4.14
-4.52
-4.64
-4.38
-3.71
-2.71
-1.63
-0.79
-0.55
-1.17
-2.66
-4.73
-6.82
-8.26
-8.55
-7.61
-5.89
-4.21
-3.43
-4.02
-5.83
-8.14
-9.97
-10.57
-9.75
-7.93
-5.86
-4.26
-3.41
-3.16
-3.01
-2.51
-1.48
-0.12
1.14
1.89
1.84
0.93
-0.71
-2.79
-4.90
-6.50
-7.01
-6.05
-3.70
-0.66
1.89
2.63
0.62
-4.26
-11.17
-18.51
-24.44
-27.48
-27.00
-23.37
-17.73
-11.54
-6.05
-1.95
0.75
2.52
4.01
5.70
7.77
10.07
12.24
13.91
14.81
14.92
14.44
13.76
13.36
13.72
15.25
18.13
22.28
27.08
31.40
33.68
32.40
26.66
16.78
4.39
-7.96
-17.73
-23.37
-24.80
-23.34
-20.85
-18.86
-17.98
-17.92
-18.00
-17.80
-17.50
-17.72
-18.99
-21.25
-23.67
-25.02
-24.31
-21.35
-16.92
-12.42
-9.21
-7.96
-8.36
-9.27
-9.22
-6.98
-1.95
5.76
15.29
25.26
33.79
38.79
38.39
31.64
19.05
2.78
-13.90
-27.70
-36.40
-39.50
-38.09
-34.05
-29.13
-24.33
-19.94
-15.89
-12.20
-9.11
-6.89
-5.53
-4.61
-3.46
-1.52
1.29
4.47
7.10
8.29
7.52
4.93
1.33
-2.17
-4.51
-5.08
-3.97
-1.84
0.37
1.83
2.20
1.65
0.70
-0.10
-0.42
-0.35
-0.25
-0.53
-1.42
-2.84
-4.51
-6.07
-7.27
-8.04
-8.46
-8.66
-8.73
-8.72
-8.64
-8.52
-8.47
-8.70
-9.45
-10.91
-13.04
-15.53
-17.81
-19.19
-19.11
-17.38
-14.28
-10.44
-6.57
-3.22
-0.58
1.51
3.42
5.58
8.36
11.91
16.08
20.28
23.62
25.07
23.96
20.27
14.82
8.97
4.21
1.60
1.49
3.60
7.23
11.54
15.72
19.00
20.75
20.52
18.27
14.46
10.04
6.16
3.77
3.36
4.81
7.47
10.45
12.82
13.92
13.43
11.40
8.24
4.54
0.90
-2.32
-5.18
-8.13
-11.82
-16.76
-23.06
-30.21
-37.28
-43.17
-47.08
-48.78
-48.68
-47.66
-46.72
-46.65
-47.79
-50.00
-52.74
-55.30
-56.95
-57.10
-55.39
-51.78
-46.62
-40.54
-34.35
-28.71
-23.80
-19.21
-14.06
-7.31
1.75
13.21
26.49
40.49
53.97
65.76
74.94
80.96
83.70
83.58
81.57
79.06
77.44
77.73
80.13
83.97
87.81
89.78
88.10
81.43
69.29
52.29
32.18
11.56
-6.71
-20.28
-27.97
-29.95
-27.49
-22.37
-16.30
-10.49
-5.72
-2.48
-1.13
-1.96
-4.93
-9.64
-15.29
-20.98
-25.97
-29.93
-32.94
-35.24
-37.08
-38.46
-39.23
-39.15
-38.19
-36.56
-34.71
-33.15
-32.21
-31.99
-32.35
-33.05
-33.88
-34.72
-35.56
-36.35
-36.99
-37.29
-37.09
-36.28
-34.79
-32.56
-29.43
-25.18
-19.66
-12.97
-5.56
1.80
8.21
12.96
15.67
16.41
15.56
13.70
11.43
9.33
7.88
7.45
8.22
10.19
13.22
17.19
22.01
27.64
33.89
40.26
45.90
49.69
50.60
48.04
42.16
33.90
24.80
16.58
10.58
7.43
6.77
7.35
7.53
5.83
1.54
-4.97
-12.40
-19.05
-23.46
-24.99
-23.94
-21.29
-18.24
-15.78
-14.44
-14.31
-15.19
-16.78
-18.73
-20.67
-22.24
-23.14
-23.30
-22.98
-22.67
-22.90
-23.99
-25.93
-28.39
-30.80
-32.59
-33.33
-32.80
-31.14
-28.80
-26.50
-24.92
-24.40
-24.71
-25.06
-24.40
-21.94
-17.61
-12.11
-6.70
-2.65
-0.64
-0.57
-1.64
-2.73
-2.94
-1.87
0.30
3.05
5.84
8.39
10.74
13.15
15.85
18.88
22.03
24.95
27.27
28.72
29.26
29.04
28.41
27.74
27.36
27.40
27.73
28.13
28.35
28.27
27.93
27.42
26.71
25.62
23.81
20.98
17.09
12.49
7.84
3.90
1.17
-0.26
-0.69
-0.71
-0.85
-1.43
-2.46
-3.76
-5.13
-6.43
-7.66
-8.83
-9.92
-10.85
-11.52
-11.83
-11.75
-11.30
-10.58
-9.69
-8.76
-7.93
-7.41
-7.38
-8.02
-9.42
-11.50
-13.99
-16.45
-18.41
-19.58
-19.92
-19.72
-19.43
-19.47
-20.08
-21.18
-22.48
-23.58
-24.12
-23.93
-22.93
-21.20
-18.84
-15.98
-12.71
-9.20
-5.66
-2.40
0.26
2.05
2.87
2.87
2.36
1.78
1.52
1.79
2.66
4.02
5.76
7.77
10.00
12.47
15.18
18.09
21.06
23.83
26.09
27.54
28.00
27.53
26.51
25.60
25.56
26.98
30.07
34.49
39.39
43.71
46.49
47.21
45.93
43.17
39.62
35.84
31.96
27.70
22.60
16.30
8.81
0.68
-7.21
-13.84
-18.32
-20.08
-18.92
-15.13
-9.58
-3.74
0.54
1.60
-1.29
-7.44
-14.80
-20.71
-23.06
-21.11
-15.75
-8.82
-2.18
3.18
7.34
11.01
14.97
19.48
24.36
29.19
33.78
38.28
43.17
48.90
55.70
63.52
72.14
81.37
91.08
101.13
111.04
119.76
125.46
125.81
118.44
101.81
75.91
42.64
5.59
-30.81
-62.32
-85.98
-100.70
-107.24
-107.76
-104.99
-101.43
-98.83
-97.98
-98.86
-100.90
-103.27
-105.14
-105.77
-104.61
-101.40
-96.29
-89.86
-83.01
-76.78
-72.01
-69.07
-67.79
-67.56
-67.59
-67.13
-65.64
-62.77
-58.46
-52.92
-46.70
-40.57
-35.27
-31.21
-28.19
-25.50
-22.18
-17.51
-11.40
-4.40
2.53
8.42
12.75
15.61
17.55
19.35
21.67
24.89
29.07
33.96
39.19
44.35
48.96
52.53
54.56
54.67
52.76
49.22
44.88
40.87
38.15
37.16
37.65
38.74
39.33
38.50
35.87
31.64
26.43
21.02
16.10
12.09
9.12
7.04
5.52
4.15
2.51
0.28
-2.62
-6.11
-9.90
-13.63
-16.93
-19.50
-21.19
-22.02
-22.12
-21.72
-21.12
-20.64
-20.52
-20.87
-21.59
-22.39
-22.85
-22.50
-21.02
-18.32
-14.56
-10.05
-5.09
0.21
5.87
11.93
18.21
24.22
29.20
32.43
33.40
32.03
28.61
23.63
17.69
11.51
5.93
1.88
0.14
1.05
4.32
9.06
14.14
18.56
21.74
23.58
24.27
24.09
23.27
21.87
19.94
17.54
14.82
11.93
9.03
6.19
3.40
0.54
-2.59
-6.12
-10.04
-14.11
-17.91
-20.93
-22.86
-23.64
-23.58
-23.20
-23.00
-23.26
-23.87
-24.38
-24.22
-23.01
-20.74
-17.84
-15.04
-13.00
-12.07
-12.10
-12.53
-12.70
-12.16
-10.87
-9.16
-7.45
-6.01
-4.76
-3.27
-0.99
2.49
7.31
13.33
20.24
27.55
34.48
39.90
42.41
40.81
34.76
25.21
14.30
4.64
-1.74
-4.11
-3.10
-0.22
3.14
6.32
9.51
13.30
18.20
24.23
30.96
37.67
43.57
47.83
49.55
47.86
42.10
32.17
18.86
3.78
-10.92
-23.14
-31.37
-35.10
-34.78
-31.53
-26.78
-21.86
-17.76
-15.03
-13.77
-13.70
-14.33
-15.11
-15.62
-15.72
-15.54
-15.36
-15.41
-15.78
-16.36
-16.96
-17.44
-17.77
-18.06
-18.54
-19.42
-20.86
-22.81
-24.99
-26.90
-27.98
-27.80
-26.26
-23.60
-20.37
-17.16
-14.42
-12.32
-10.74
-9.30
-7.61
-5.39
-2.58
0.59
3.80
6.68
8.96
10.59
11.59
12.10
12.28
12.27
12.27
12.36
12.54
12.67
12.54
12.03
11.24
10.46
10.06
10.35
11.37
12.92
14.68
16.32
17.58
18.25
18.16
17.16
15.17
12.27
8.77
5.12
1.80
-0.76
-2.28
-2.62
-1.87
-0.25
1.87
4.10
6.11
7.69
8.83
9.62
10.23
10.76
11.20
11.45
11.35
10.79
9.79
8.47
6.98
5.38
3.60
1.42
-1.34
-4.80
-8.86
-13.30
-17.79
-22.02
-25.74
-28.80
-31.06
-32.41
-32.77
-32.13
-30.55
-28.20
-25.35
-22.27
-19.20
-16.25
-13.33
-10.20
-6.56
-2.26
2.64
7.74
12.50
16.39
19.08
20.65
21.50
22.21
23.33
25.21
27.90
31.09
34.25
36.60
37.37
35.94
32.04
25.96
18.57
11.04
4.60
0.02
-2.58
-3.75
-4.41
-5.47
-7.46
-10.40
-13.84
-17.14
-19.68
-21.06
-21.20
-20.26
-18.60
-16.62
-14.74
-13.28
-12.48
-12.43
-13.02
-13.90
-14.51
-14.20
-12.40
-8.86
-3.70
2.56
9.16
15.43
20.91
25.42
28.96
31.41
32.45
31.58
28.53
23.62
17.82
12.46
8.63
6.57
5.66
4.69
2.70
-0.45
-4.06
-6.99
-8.43
-8.38
-7.64
-7.30
-8.06
-9.88
-12.04
-13.65
-14.12
-13.61
-12.80
-12.60
-13.62
-15.91
-18.97
-22.02
-24.31
-25.33
-24.88
-23.02
-20.07
-16.53
-13.02
-10.17
-8.40
-7.72
-7.74
-7.77
-7.18
-5.73
-3.61
-1.35
0.51
1.78
2.64
3.53
4.89
6.85
9.18
11.41
13.07
13.94
14.13
13.97
13.86
14.05
14.60
15.39
16.22
16.88
17.25
17.37
17.35
17.38
17.58
17.86
17.95
17.45
16.05
13.68
10.69
7.66
5.30
4.08
4.05
4.78
5.60
5.87
5.31
4.20
3.17
2.96
3.99
6.18
9.03
11.91
14.36
16.28
17.78
18.96
19.65
19.46
17.97
15.09
11.28
7.47
4.78
4.25
6.45
11.37
18.40
26.43
34.01
39.55
41.49
38.67
30.49
17.24
0.28
-18.11
-35.15
-48.30
-56.04
-58.38
-56.74
-53.28
-49.98
-47.90
-46.89
-46.03
-44.34
-41.36
-37.41
-33.15
-29.18
-25.52
-21.69
-17.03
-11.17
-4.37
2.56
8.57
12.87
15.20
15.83
15.40
14.52
13.65
12.96
12.52
12.34
12.51
13.12
14.18
15.57
16.98
17.96
18.05
16.96
14.60
11.15
7.01
2.66
-1.44
-5.02
-7.99
-10.47
-12.68
-14.89
-17.23
-19.69
-22.12
-24.31
-26.05
-27.30
-28.19
-28.95
-29.81
-30.93
-32.24
-33.48
-34.22
-34.00
-32.50
-29.67
-25.80
-21.40
-17.02
-13.02
-9.56
-6.55
-3.75
-0.85
2.31
5.62
8.62
10.60
10.85
9.10
5.74
1.88
-1.03
-1.81
-0.04
3.77
8.52
13.01
16.45
18.68
19.93
20.51
20.61
20.23
19.34
18.01
16.54
15.33
14.73
14.86
15.57
16.61
17.70
18.71
19.63
20.54
21.42
22.08
22.23
21.51
19.76
16.98
13.44
9.56
5.77
2.40
-0.41
-2.69
-4.57
-6.21
-7.72
-9.12
-10.44
-11.71
-13.01
-14.44
-16.09
-18.03
-20.25
-22.69
-25.27
-27.83
-30.22
-32.24
-33.72
-34.55
-34.70
-34.21
-33.18
-31.70
-29.80
-27.43
-24.47
-20.74
-16.07
-10.40
-3.84
3.28
10.34
16.61
21.35
24.10
24.78
23.79
21.87
19.91
18.67
18.63
19.90
22.35
25.72
29.76
34.19
38.68
42.74
45.68
46.70
45.11
40.54
33.17
23.83
13.85
4.73
-2.27
-6.48
-8.00
-7.52
-5.97
-4.19
-2.65
-1.54
-0.90
-0.90
-1.83
-3.93
-7.13
-10.87
-14.22
-16.19
-16.22
-14.44
-11.60
-8.76
-6.78
-5.96
-6.02
-6.30
-6.19
-5.47
-4.38
-3.45
-3.18
-3.74
-4.92
-6.23
-7.13
-7.32
-6.71
-5.47
-3.89
-2.30
-1.02
-0.28
-0.17
-0.50
-0.75
-0.13
2.31
7.37
15.36
25.80
37.32
47.77
54.67
55.86
50.27
38.36
22.15
4.77
-10.48
-20.97
-25.40
-23.91
-17.64
-8.20
2.94
14.60
25.95
36.24
44.75
50.94
54.64
56.39
57.40
59.19
63.01
69.09
76.39
82.62
84.91
80.61
68.24
48.06
22.17
-5.87
-31.99
-52.64
-65.62
-70.52
-68.55
-61.88
-52.94
-43.74
-35.71
-29.67
-26.09
-25.12
-26.59
-29.95
-34.26
-38.60
-42.37
-45.49
-48.35
-51.35
-54.53
-57.43
-59.22
-59.21
-57.15
-53.41
-48.73
-43.84
-39.20
-34.92
-31.00
-27.49
-24.62
-22.66
-21.70
-21.53
-21.58
-21.16
-19.69
-16.93
-13.08
-8.75
-4.79
-2.05
-1.06
-1.84
-3.88
-6.28
-8.12
-8.80
-8.29
-7.07
-5.91
-5.48
-6.01
-7.27
-8.68
-9.65
-9.81
-9.11
-7.71
-5.82
-3.56
-0.91
2.14
5.50
8.93
12.08
14.69
16.68
18.21
19.55
20.94
22.46
23.95
25.15
25.83
25.91
25.53
24.93
24.33
23.82
23.38
22.96
22.57
22.32
22.23
22.09
21.43
19.60
16.05
10.74
4.21
-2.46
-8.15
-12.07
-14.03
-14.42
-13.92
-13.18
-12.55
-12.10
-11.71
-11.33
-11.02
-10.93
-11.22
-11.93
-12.92
-13.98
-14.85
-15.34
-15.32
-14.75
-13.62
-11.87
-9.49
-6.53
-3.25
-0.09
2.37
3.65
3.59
2.48
0.98
-0.08
-0.12
1.01
2.88
4.70
5.64
5.11
3.04
-0.14
-3.56
-6.26
-7.40
-6.63
-4.03
-0.14
4.39
8.91
12.92
15.98
17.70
17.71
15.84
12.32
7.90
3.63
0.52
-0.83
-0.40
1.33
3.77
6.44
9.16
11.88
14.48
16.63
17.81
17.63
16.07
13.61
11.10
9.37
8.78
9.08
9.44
8.90
6.83
3.21
-1.36
-5.95
-9.72
-12.15
-13.23
-13.23
-12.61
-11.74
-10.87
-10.04
-9.17
-8.14
-6.89
-5.46
-4.00
-2.72
-1.79
-1.26
-1.11
-1.24
-1.62
-2.19
-2.86
-3.48
-3.84
-3.87
-3.72
-3.75
-4.36
-5.78
-7.80
-9.88
-11.32
-11.63
-10.73
-8.94
-6.80
-4.76
-3.04
-1.57
-0.16
1.36
3.04
4.81
6.61
8.41
10.25
12.13
13.97
15.59
16.81
17.54
17.82
17.83
17.77
17.73
17.70
17.64
17.57
17.64
18.01
18.70
19.46
19.87
19.54
18.37
16.73
15.29
14.80
15.69
17.92
21.04
24.39
27.36
29.44
30.31
29.63
27.10
22.57
16.18
8.54
0.60
-6.57
-12.11
-15.71
-17.63
-18.59
-19.36
-20.48
-22.07
-23.85
-25.30
-25.98
-25.69
-24.56
-22.94
-21.32
-20.09
-19.48
-19.55
-20.23
-21.45
-23.11
-25.08
-27.10
-28.78
-29.67
-29.43
-28.04
-25.77
-23.19
-20.81
-18.95
-17.55
-16.34
-14.92
-13.06
-10.80
-8.40
-6.24
-4.62
-3.62
-3.07
-2.63
-1.87
-0.47
1.70
4.51
7.60
10.51
12.82
14.37
15.25
15.79
16.33
17.09
18.00
18.80
19.22
19.11
18.57
17.81
17.04
16.25
15.27
13.87
11.96
9.68
7.37
5.47
4.42
4.57
6.18
9.43
14.22
20.15
26.32
31.42
33.97
32.70
27.03
17.33
4.98
-7.93
-19.07
-26.50
-29.16
-27.06
-21.16
-12.96
-4.05
4.28
11.24
16.50
20.17
22.58
24.32
26.03
28.32
31.54
35.52
39.46
42.05
41.80
37.55
28.96
16.76
2.72
-10.87
-21.78
-28.52
-30.71
-29.06
-25.07
-20.40
-16.51
-14.29
-14.01
-15.49
-18.20
-21.43
-24.32
-26.00
-25.70
-23.00
-18.01
-11.46
-4.61
1.15
4.60
5.13
2.86
-1.41
-6.49
-11.20
-14.64
-16.34
-16.22
-14.38
-11.05
-6.55
-1.27
4.21
9.26
13.29
15.99
17.40
17.86
17.93
18.10
18.72
19.92
21.59
23.51
25.29
26.44
26.45
24.87
21.47
16.39
10.10
3.35
-3.04
-8.40
-12.38
-15.06
-16.89
-18.59
-20.82
-24.04
-28.21
-32.81
-37.00
-39.90
-40.85
-39.61
-36.34
-31.54
-25.87
-19.99
-14.48
-9.82
-6.26
-3.81
-2.31
-1.46
-0.95
-0.52
-0.04
0.52
1.13
1.69
2.17
2.50
2.70
2.85
3.10
3.66
4.63
5.98
7.51
8.91
9.92
10.41
10.44
10.17
9.78
9.30
8.64
7.63
6.14
4.16
1.88
-0.41
-2.43
-3.94
-4.88
-5.23
-5.09
-4.58
-3.86
-3.13
-2.59
-2.40
-2.56
-2.94
-3.29
-3.38
-3.12
-2.61
-2.09
-1.75
-1.66
-1.72
-1.71
-1.46
-0.92
-0.20
0.57
1.28
1.92
2.54
3.20
3.93
4.71
5.45
6.03
6.33
6.23
5.67
4.63
3.24
1.65
0.10
-1.26
-2.43
-3.53
-4.82
-6.51
-8.66
-11.05
-13.26
-14.82
-15.40
-14.88
-13.46
-11.46
-9.23
-7.07
-5.14
-3.53
-2.25
-1.29
-0.56
0.05
0.67
1.43
2.38
3.55
4.88
6.26
7.51
8.47
9.02
9.17
9.03
8.83
8.71
8.74
8.84
8.89
8.78
8.52
8.20
7.90
7.62
7.25
6.70
5.93
5.04
4.22
3.62
3.26
3.04
2.76
2.30
1.62
0.81
-0.01
-0.75
-1.38
-1.94
-2.51
-3.18
-4.02
-5.00
-6.09
-7.19
-8.17
-8.94
-9.40
-9.43
-8.95
-7.92
-6.38
-4.52
-2.58
-0.80
0.68
1.82
2.69
3.35
3.83
4.12
4.30
4.47
4.77
5.25
5.83
6.31
6.52
6.38
6.01
5.65
5.56
5.88
6.59
7.59
8.65
9.62
10.33
10.70
10.62
10.04
8.96
7.50
5.89
4.39
3.24
2.53
2.19
2.07
1.97
1.79
1.51
1.16
0.78
0.35
-0.19
-0.89
-1.79
-2.89
-4.17
-5.65
-7.40
-9.55
-12.26
-15.77
-20.24
-25.73
-32.05
-38.67
-44.72
-49.17
-51.16
-50.23
-46.50
-40.59
-33.23
-25.06
-16.43
-7.46
1.78
11.11
20.18
28.49
35.50
40.55
42.78
41.21
35.10
24.46
10.47
-4.62
-18.09
-27.74
-32.64
-33.34
-31.39
-28.59
-26.30
-25.18
-25.34
-26.69
-29.17
-32.69
-36.97
-41.37
-44.95
-46.65
-45.55
-41.09
-33.18
-22.12
-8.58
6.63
22.70
39.04
55.24
71.13
86.55
101.31
115.07
127.36
137.62
145.25
149.73
150.73
148.34
143.11
135.95
127.86
119.62
111.51
103.14
93.42
80.97
64.44
43.12
17.48
-10.68
-38.17
-61.08
-75.95
-81.08
-77.04
-66.30
-52.21
-37.61
-24.18
-12.20
-1.04
10.01
20.88
31.18
40.66
49.47
58.18
66.66
74.11
79.25
80.48
75.74
63.80
44.91
20.89
-5.04
-30.26
-52.58
-70.32
-82.80
-91.26
-97.20
-101.44
-103.80
-102.90
-98.91
-92.60
-84.76
-76.53
-70.21
-67.38
-68.13
-71.18
-73.86
-75.76
-77.30
-78.95
-71.71
-50.51
-17.27
19.49
43.76
54.86
54.73
45.01
30.60
14.46
-2.45
-19.49
-35.82
-50.32
-60.97
-67.96
-71.72
-72.19
-69.46
-64.75
-59.39
-54.22
-49.30
-43.40
-36.58
-29.15
-21.29
-13.64
-7.37
-3.28
-1.36
-0.75
0.21
2.00
4.54
7.58
10.62
13.03
14.53
15.30
15.79
16.71
18.06
19.56
20.93
21.91
22.33
22.20
21.69
21.05
20.62
20.48
20.60
20.89
21.21
21.46
21.58
21.59
21.53
21.48
21.46
21.53
21.70
22.04
22.59
23.37
24.31
25.22
25.87
25.99
25.42
24.03
21.83
18.86
15.22
11.05
6.59
2.16
-1.87
-5.17
-7.56
-9.10
-10.02
-10.67
-11.37
-12.25
-13.25
-14.15
-14.70
-14.72
-14.20
-13.24
-12.09
-11.03
-10.29
-9.92
-9.83
-9.79
-9.62
-9.20
-8.56
-7.85
-7.14
-6.53
-6.00
-5.64
-5.52
-5.83
-6.69
-8.12
-9.98
-11.98
-13.75
-14.97
-15.46
-15.22
-14.44
-13.40
-12.42
-11.77
-11.61
-11.97
-12.81
-13.95
-15.15
-16.17
-16.73
-16.72
-16.15
-15.23
-14.24
-13.47
-13.14
-13.31
-13.89
-14.67
-15.42
-15.96
-16.14
-15.93
-15.34
-14.39
-13.14
-11.65
-10.02
-8.36
-6.75
-5.24
-3.89
-2.74
-1.86
-1.31
-1.05
-0.98
-0.94
-0.78
-0.46
-0.04
0.34
0.62
0.80
0.96
1.11
1.16
0.96
0.41
-0.42
-1.23
-1.68
-1.49
-0.67
0.56
1.87
3.01
3.97
4.90
5.97
7.17
8.33
9.19
9.57
9.48
9.20
9.09
9.43
10.33
11.66
13.13
14.44
15.35
15.77
15.71
15.23
14.45
13.47
12.44
11.47
10.68
10.03
9.42
8.62
7.42
5.74
3.66
1.44
-0.63
-2.37
-3.77
-4.97
-6.17
-7.48
-8.89
-10.33
-11.68
-12.90
-13.98
-14.94
-15.78
-16.39
-16.63
-16.35
-15.45
-13.97
-12.02
-9.83
-7.64
-5.68
-4.08
-2.91
-2.15
-1.71
-1.47
-1.32
-1.10
-0.75
-0.24
0.34
0.80
0.99
0.82
0.40
-0.07
-0.33
-0.23
0.24
0.91
1.57
2.07
2.43
2.75
3.12
3.48
3.61
3.21
2.09
0.33
-1.73
-3.59
-4.89
-5.52
-5.73
-5.97
-6.61
-7.84
-9.44
-11.00
-12.02
-12.12
-11.23
-9.49
-7.28
-4.97
-2.84
-1.00
0.58
1.95
3.14
4.04
4.53
4.56
4.25
3.88
3.76
4.11
4.87
5.83
6.66
7.13
7.22
7.04
6.75
6.44
6.04
5.42
4.41
2.99
1.32
-0.35
-1.80
-2.85
-3.49
-3.90
-4.35
-5.08
-6.23
-7.71
-9.28
-10.73
-11.98
-13.15
-14.44
-15.93
-17.37
-18.24
-17.97
-16.22
-13.09
-9.12
-4.99
-1.29
1.77
4.25
6.39
8.37
10.22
11.81
12.94
13.52
13.63
13.51
13.45
13.62
14.00
14.33
14.32
13.77
12.74
11.56
10.60
10.13
10.14
10.38
10.49
10.26
9.65
8.83
8.00
7.32
6.74
6.13
5.32
4.26
2.99
1.64
0.33
-0.94
-2.22
-3.69
-5.45
-7.53
-9.81
-12.04
-13.86
-14.96
-15.11
-14.22
-12.39
-9.86
-6.92
-3.87
-0.93
1.76
4.10
6.11
7.81
9.25
10.50
11.61
12.61
13.49
14.28
14.97
15.61
16.19
16.71
17.10
17.34
17.41
17.37
17.26
17.12
16.90
16.56
16.09
15.54
15.05
14.67
14.35
13.92
13.13
11.88
10.24
8.46
6.87
5.67
4.83
4.11
3.18
1.81
-0.04
-2.26
-4.67
-7.08
-9.31
-11.13
-12.27
-12.43
-11.46
-9.38
-6.46
-3.13
0.14
2.99
5.24
6.90
8.13
9.13
10.07
10.97
11.72
12.13
12.06
11.53
10.70
9.79
9.01
8.39
7.87
7.36
6.85
6.42
6.18
6.15
6.24
6.24
5.92
5.14
3.92
2.41
0.84
-0.62
-1.87
-2.92
-3.86
-4.79
-5.77
-6.79
-7.81
-8.82
-9.88
-11.04
-12.26
-13.33
-13.90
-13.56
-12.04
-9.34
-5.74
-1.74
2.17
5.59
8.35
10.46
12.04
13.24
14.15
14.80
15.20
15.37
15.41
15.45
15.59
15.83
16.07
16.15
15.96
15.45
14.72
13.94
13.27
12.79
12.43
12.05
11.44
10.44
8.99
7.14
5.05
2.87
0.74
-1.30
-3.29
-5.30
-7.39
-9.59
-11.88
-14.20
-16.47
-18.55
-20.23
-21.20
-21.16
-19.86
-17.28
-13.59
-9.14
-4.40
0.21
4.34
7.77
10.39
12.20
13.31
13.90
14.18
14.28
14.21
13.90
13.29
12.43
11.44
10.52
9.79
9.28
8.95
8.71
8.51
8.33
8.13
7.84
7.38
6.69
5.78
4.76
3.78
2.93
2.21
1.47
0.53
-0.82
-2.60
-4.67
-6.74
-8.50
-9.75
-10.54
-11.13
-11.85
-12.92
-14.33
-15.77
-16.73
-16.65
-15.17
-12.21
-8.05
-3.25
1.49
5.58
8.71
10.86
12.20
12.96
13.29
13.21
12.74
11.92
10.96
10.06
9.39
8.96
8.63
8.24
7.71
7.15
6.78
6.80
7.26
8.02
8.74
9.03
8.66
7.54
5.82
3.74
1.59
-0.39
-1.99
-3.09
-3.65
-3.74
-3.53
-3.28
-3.20
-3.40
-3.85
-4.45
-5.07
-5.65
-6.17
-6.67
-7.14
-7.66
-8.35
-9.41
-11.01
-13.14
-15.48
-17.41
-18.22
-17.39
-14.85
-11.04
-6.73
-2.72
0.46
2.69
4.21
5.35
6.39
7.41
8.35
9.21
10.06
11.07
12.37
13.87
15.31
16.27
16.46
15.83
14.66
13.34
12.26
11.57
11.22
11.02
10.78
10.42
9.95
9.40
8.75
7.91
6.77
5.25
3.35
1.16
-1.18
-3.50
-5.65
-7.50
-8.97
-9.98
-10.47
-10.37
-9.67
-8.41
-6.81
-5.23
-4.13
-3.90
-4.75
-6.48
-8.59
-10.37
-11.23
-10.84
-9.24
-6.81
-4.05
-1.40
0.90
2.85
4.64
6.48
8.52
10.70
12.84
14.64
15.89
16.49
16.48
15.98
15.04
13.70
11.99
10.00
7.98
6.21
4.94
4.22
3.91
3.77
3.56
3.16
2.58
1.89
1.17
0.40
-0.47
-1.60
-3.06
-4.80
-6.64
-8.28
-9.38
-9.76
-9.40
-8.53
-7.46
-6.49
-5.84
-5.58
-5.61
-5.77
-5.83
-5.55
-4.73
-3.23
-1.07
1.58
4.41
7.01
8.98
10.02
10.05
9.23
7.99
6.75
5.83
5.27
4.84
4.22
3.19
1.79
0.32
-0.85
-1.45
-1.46
-1.04
-0.43
0.17
0.71
1.24
1.82
2.44
2.98
3.29
3.19
2.61
1.57
0.23
-1.17
-2.36
-3.11
-3.33
-3.02
-2.25
-1.11
0.36
2.15
4.21
6.36
8.34
9.87
10.80
11.24
11.53
12.15
13.45
15.47
17.94
20.30
21.95
22.43
21.55
19.40
16.28
12.59
8.76
5.18
2.17
-0.08
-1.53
-2.24
-2.46
-2.48
-2.64
-3.25
-4.48
-6.30
-8.49
-10.66
-12.43
-13.54
-13.97
-13.90
-13.58
-13.18
-12.69
-11.98
-10.97
-9.75
-8.64
-8.07
-8.37
-9.58
-11.43
-13.44
-15.14
-16.22
-16.62
-16.43
-15.80
-14.81
-13.47
-11.73
-9.58
-7.04
-4.12
-0.87
2.69
6.50
10.40
14.16
17.43
19.86
21.14
21.12
19.87
17.65
14.91
12.18
9.99
8.75
8.70
9.96
12.42
15.87
19.91
23.90
27.07
28.62
27.93
24.68
18.98
11.31
2.37
-7.02
-16.08
-24.13
-30.60
-35.08
-37.40
-37.70
-36.37
-34.06
-31.40
-28.97
-27.07
-25.79
-25.05
-24.69
-24.60
-24.68
-24.78
-24.73
-24.25
-23.03
-20.87
-17.73
-13.82
-9.54
-5.36
-1.71
1.11
3.00
4.05
4.41
4.34
4.05
3.73
3.48
3.32
3.17
2.94
2.54
1.98
1.36
0.88
0.70
0.96
1.63
2.59
3.60
4.38
4.71
4.47
3.63
2.21
0.31
-2.00
-4.60
-7.35
-10.03
-12.39
-14.19
-15.32
-15.80
-15.80
-15.60
-15.46
-15.60
-16.07
-16.81
-17.64
-18.31
-18.54
-18.04
-16.68
-14.42
-11.42
-7.94
-4.36
-1.04
1.74
3.83
5.24
6.13
6.75
7.30
7.88
8.45
8.87
8.96
8.64
7.99
7.15
6.36
5.72
5.23
4.77
4.22
3.60
2.99
2.57
2.41
2.40
2.29
1.79
0.73
-0.81
-2.49
-3.92
-4.82
-5.16
-5.16
-5.17
-5.44
-6.04
-6.82
-7.55
-8.04
-8.21
-8.09
-7.71
-7.05
-5.99
-4.38
-2.19
0.45
3.23
5.79
7.84
9.29
10.29
11.07
11.88
12.81
13.77
14.56
14.99
14.96
14.53
13.83
13.01
12.17
11.33
10.44
9.47
8.40
7.29
6.27
5.45
4.89
4.55
4.29
3.90
3.22
2.14
0.66
-1.11
-3.04
-5.01
-6.96
-8.87
-10.72
-12.44
-13.97
-15.25
-16.37
-17.44
-18.62
-19.91
-21.06
-21.59
-20.99
-18.95
-15.60
-11.49
-7.46
-4.24
-2.22
-1.39
-1.38
-1.72
-2.05
-2.22
-2.27
-2.33
-2.40
-2.37
-2.03
-1.21
0.07
1.58
2.95
3.88
4.24
4.14
3.86
3.62
3.53
3.51
3.40
3.07
2.47
1.63
0.61
-0.55
-1.83
-3.20
-4.55
-5.75
-6.64
-7.14
-7.25
-7.07
-6.79
-6.63
-6.77
-7.34
-8.32
-9.53
-10.64
-11.21
-10.82
-9.29
-6.76
-3.62
-0.40
2.43
4.66
6.31
7.53
8.45
9.09
9.40
9.36
9.05
8.62
8.25
8.03
8.00
8.12
8.32
8.54
8.72
8.89
9.10
9.47
10.11
11.01
12.01
12.78
13.00
12.44
11.15
9.37
7.44
5.62
3.99
2.49
1.05
-0.29
-1.38
-2.08
-2.37
-2.46
-2.78
-3.74
-5.60
-8.27
-11.34
-14.23
-16.34
-17.21
-16.64
-14.67
-11.54
-7.64
-3.42
0.66
4.18
6.88
8.63
9.51
9.75
9.69
9.65
9.79
10.06
10.24
10.09
9.47
8.47
7.35
6.38
5.71
5.33
5.07
4.75
4.31
3.75
3.14
2.49
1.68
0.56
-0.98
-2.91
-5.04
-7.17
-9.09
-10.75
-12.15
-13.33
-14.28
-14.91
-15.19
-15.10
-14.74
-14.26
-13.84
-13.65
-13.80
-14.32
-15.10
-15.88
-16.22
-15.65
-13.88
-10.86
-6.91
-2.61
1.43
4.71
7.04
8.53
9.47
10.18
10.89
11.66
12.34
12.70
12.51
11.68
10.31
8.63
6.93
5.50
4.55
4.19
4.41
5.14
6.19
7.35
8.40
9.14
9.45
9.26
8.59
7.46
5.93
4.12
2.17
0.26
-1.50
-2.98
-4.12
-4.86
-5.16
-4.98
-4.43
-3.72
-3.17
-3.04
-3.37
-3.89
-4.10
-3.49
-1.75
0.96
4.11
6.99
9.00
9.92
9.85
9.12
8.10
7.03
5.98
4.98
4.08
3.41
3.08
3.10
3.34
3.54
3.47
3.00
2.22
1.31
0.50
-0.09
-0.51
-0.93
-1.53
-2.39
-3.46
-4.56
-5.50
-6.20
-6.69
-7.13
-7.69
-8.46
-9.46
-10.61
-11.80
-12.94
-13.99
-14.93
-15.79
-16.55
-17.22
-17.78
-18.21
-18.50
-18.52
-18.06
-16.80
-14.50
-11.10
-6.84
-2.28
1.91
5.13
7.12
7.95
7.99
7.68
7.43
7.45
7.79
8.32
8.88
9.29
9.43
9.27
8.85
8.21
7.39
6.42
5.33
4.20
3.14
2.25
1.58
1.08
0.61
0.05
-0.66
-1.49
-2.35
-3.16
-3.89
-4.62
-5.46
-6.49
-7.69
-8.94
-10.05
-10.85
-11.27
-11.39
-11.36
-11.35
-11.36
-11.21
-10.55
-9.04
-6.50
-3.07
0.85
4.74
8.08
10.57
12.16
12.95
13.14
12.92
12.40
11.69
10.87
10.05
9.29
8.65
8.14
7.74
7.42
7.17
7.01
6.95
6.99
7.12
7.30
7.46
7.51
7.32
6.76
5.71
4.17
2.21
0.01
-2.22
-4.26
-5.96
-7.27
-8.18
-8.78
-9.17
-9.48
-9.82
-10.29
-11.02
-12.10
-13.58
-15.33
-17.07
-18.29
-18.49
-17.26
-14.51
-10.50
-5.74
-0.86
3.67
7.55
10.73
13.27
15.21
16.55
17.22
17.14
16.32
14.87
13.00
10.95
8.93
7.03
5.29
3.70
2.31
1.18
0.41
0.03
-0.02
0.10
0.18
0.04
-0.41
-1.14
-2.07
-3.11
-4.21
-5.42
-6.75
-8.22
-9.75
-11.20
-12.38
-13.18
-13.58
-13.68
-13.63
-13.56
-13.53
-13.52
-13.48
-13.31
-12.95
-12.33
-11.42
-10.23
-8.84
-7.42
-6.09
-4.97
-4.04
-3.26
-2.61
-2.18
-2.16
-2.71
-3.90
-5.53
-7.17
-8.32
-8.52
-7.56
-5.47
-2.53
0.85
4.22
7.12
9.20
10.26
10.32
9.64
8.64
7.81
7.52
7.94
9.01
10.57
12.45
14.49
16.62
18.82
21.08
23.34
25.56
27.70
29.75
31.85
34.24
37.26
41.24
46.36
52.56
59.61
67.18
75.08
83.26
91.65
99.94
107.23
112.08
112.69
107.47
95.50
76.90
52.80
25.11
-3.76
-31.34
-55.33
-73.94
-86.19
-92.12
-92.77
-89.84
-85.14
-80.05
-75.18
-70.51
-65.65
-60.39
-54.81
-49.34
-44.51
-40.71
-38.04
-36.38
-35.40
-34.72
-33.95
-32.77
-30.95
-28.41
-25.19
-21.49
-17.58
-13.77
-10.40
-7.77
-6.11
-5.51
-5.91
-7.03
-8.42
-9.59
-10.08
-9.69
-8.43
-6.58
-4.52
-2.60
-1.02
0.21
1.23
2.16
3.08
3.97
4.73
5.28
5.58
5.69
5.67
5.62
5.59
5.58
5.58
5.59
5.62
5.69
5.77
5.82
5.76
5.61
5.34
5.01
4.63
4.19
3.73
3.34
3.19
3.41
4.01
4.82
5.55
5.95
5.94
5.64
5.32
5.19
5.27
5.33
4.96
3.69
1.14
-2.86
-8.12
-14.09
-19.90
-24.56
-27.27
-27.67
-25.95
-22.78
-19.04
-15.47
-12.50
-10.24
-8.60
-7.45
-6.68
-6.24
-6.01
-5.80
-5.43
-4.78
-3.92
-3.03
-2.30
-1.81
-1.43
-0.96
-0.21
0.85
2.05
3.16
3.97
4.42
4.58
4.53
4.32
3.94
3.34
2.47
1.32
-0.06
-1.67
-3.54
-5.74
-8.32
-11.27
-14.38
-17.28
-19.47
-20.47
-20.02
-18.18
-15.32
-11.94
-8.48
-5.04
-1.42
2.83
8.05
14.20
20.78
26.92
31.54
33.74
32.95
29.16
22.91
15.20
7.33
0.62
-3.95
-5.92
-5.46
-3.25
-0.20
2.80
5.05
6.15
5.97
4.60
2.32
-0.40
-3.06
-5.19
-6.50
-6.92
-6.57
-5.67
-4.51
-3.35
-2.44
-1.94
-1.86
-2.00
-1.99
-1.41
0.04
2.39
5.34
8.44
11.17
13.21
14.41
14.89
14.90
14.75
14.71
14.95
15.57
16.54
17.75
19.05
20.20
20.85
20.68
19.42
16.99
13.57
9.55
5.41
1.50
-2.04
-5.26
-8.26
-11.04
-13.46
-15.25
-16.25
-16.48
-16.22
-15.93
-16.05
-16.82
-18.25
-20.05
-21.76
-22.83
-22.73
-21.16
-18.10
-13.94
-9.32
-4.93
-1.28
1.40
3.17
4.23
4.74
4.77
4.35
3.62
2.85
2.39
2.57
3.51
5.07
6.88
8.50
9.57
9.92
9.64
9.00
8.33
7.82
7.46
7.11
6.55
5.70
4.64
3.60
2.85
2.51
2.54
2.72
2.73
2.32
1.34
-0.17
-1.95
-3.65
-4.86
-5.25
-4.61
-2.93
-0.38
2.74
6.08
9.25
11.96
13.99
15.22
15.67
15.44
14.68
13.57
12.29
11.01
9.85
8.86
8.00
7.18
6.32
5.39
4.43
3.53
2.77
2.23
1.93
1.80
1.75
1.60
1.21
0.49
-0.55
-1.81
-3.13
-4.34
-5.33
-6.08
-6.66
-7.19
-7.80
-8.59
-9.55
-10.56
-11.35
-11.58
-10.95
-9.24
-6.51
-2.97
0.95
4.77
8.08
10.58
12.18
12.95
13.06
12.72
12.12
11.40
10.68
10.05
9.54
9.13
8.75
8.24
7.45
6.36
5.07
3.80
2.84
2.34
2.31
2.52
2.70
2.62
2.23
1.61
0.90
0.16
-0.65
-1.65
-2.93
-4.51
-6.24
-7.91
-9.32
-10.34
-11.02
-11.46
-11.84
-12.25
-12.63
-12.74
-12.22
-10.79
-8.40
-5.28
-1.91
1.19
3.64
5.39
6.59
7.57
8.59
9.72
10.92
12.00
12.78
13.18
13.19
12.88
12.33
11.59
10.65
9.47
8.02
6.35
4.59
2.91
1.48
0.34
-0.56
-1.36
-2.14
-2.96
-3.79
-4.56
-5.22
-5.74
-6.19
-6.63
-7.15
-7.80
-8.64
-9.63
-10.73
-11.86
-12.97
-14.01
-14.97
-15.78
-16.27
-16.21
-15.37
-13.64
-11.14
-8.18
-5.17
-2.51
-0.42
1.07
2.04
2.61
2.89
2.91
2.77
2.57
2.45
2.57
2.99
3.70
4.54
5.34
5.93
6.28
6.45
6.56
6.70
6.84
6.83
6.43
5.52
4.17
2.68
1.43
0.71
0.59
0.83
1.09
1.05
0.59
-0.26
-1.33
-2.48
-3.66
-4.89
-6.16
-7.44
-8.62
-9.65
-10.52
-11.31
-12.12
-12.95
-13.64
-13.91
-13.45
-12.05
-9.75
-6.80
-3.58
-0.53
1.98
3.76
4.77
5.11
5.00
4.70
4.44
4.39
4.63
5.17
5.96
6.96
8.09
9.21
10.17
10.79
10.92
10.49
9.55
8.24
6.74
5.26
3.96
2.95
2.25
1.79
1.47
1.19
0.89
0.61
0.36
0.10
-0.32
-1.14
-2.53
-4.51
-6.94
-9.45
-11.65
-13.27
-14.23
-14.62
-14.69
-14.63
-14.56
-14.46
-14.19
-13.58
-12.46
-10.72
-8.33
-5.38
-2.02
1.50
4.89
7.87
10.14
11.53
12.06
11.89
11.39
10.93
10.76
10.97
11.42
11.88
12.10
11.96
11.44
10.61
9.57
8.41
7.18
5.96
4.84
3.92
3.28
2.92
2.78
2.71
2.61
2.42
2.15
1.89
1.66
1.42
1.02
0.30
-0.88
-2.53
-4.54
-6.72
-8.85
-10.74
-12.31
-13.53
-14.49
-15.29
-16.04
-16.79
-17.49
-17.94
-17.92
-17.21
-15.72
-13.51
-10.79
-7.81
-4.83
-2.00
0.61
2.95
4.98
6.62
7.80
8.47
8.73
8.75
8.72
8.80
9.02
9.29
9.45
9.38
9.05
8.58
8.12
7.83
7.72
7.62
7.28
6.50
5.20
3.54
1.85
0.42
-0.53
-1.03
-1.24
-1.41
-1.76
-2.41
-3.41
-4.71
-6.21
-7.72
-9.03
-9.99
-10.50
-10.64
-10.58
-10.55
-10.72
-11.18
-11.92
-12.82
-13.66
-14.16
-14.01
-12.97
-10.97
-8.18
-5.01
-1.96
0.55
2.33
3.48
4.27
5.00
5.83
6.72
7.50
7.97
8.10
7.98
7.80
7.72
7.75
7.76
7.62
7.25
6.71
6.16
5.76
5.53
5.36
5.11
4.72
4.24
3.86
3.74
3.93
4.32
4.71
4.89
4.72
4.17
3.27
2.10
0.77
-0.63
-2.00
-3.25
-4.33
-5.23
-5.98
-6.59
-7.02
-7.25
-7.24
-7.10
-7.00
-7.19
-7.87
-9.06
-10.57
-12.03
-13.00
-13.14
-12.32
-10.63
-8.35
-5.81
-3.28
-0.94
1.18
3.06
4.72
6.14
7.28
8.08
8.50
8.53
8.16
7.45
6.49
5.41
4.37
3.52
2.95
2.71
2.78
3.11
3.62
4.23
4.85
5.44
5.96
6.38
6.63
6.63
6.29
5.60
4.63
3.51
2.39
1.35
0.41
-0.45
-1.23
-1.91
-2.48
-2.90
-3.22
-3.49
-3.73
-3.93
-3.99
-3.84
-3.45
-2.95
-2.56
-2.52
-3.01
-4.02
-5.28
-6.39
-6.89
-6.43
-4.88
-2.31
0.95
4.51
7.98
11.04
13.55
15.45
16.82
17.73
18.27
18.55
18.65
18.62
18.43
17.98
17.12
15.75
13.88
11.67
9.33
7.10
5.11
3.44
2.10
1.16
0.67
0.64
0.95
1.36
1.55
1.28
0.48
-0.66
-1.88
-2.89
-3.54
-3.87
-4.04
-4.23
-4.52
-4.92
-5.34
-5.76
-6.20
-6.78
-7.55
-8.49
-9.49
-10.33
-10.91
-11.21
-11.37
-11.62
-12.12
-12.87
-13.65
-14.11
-13.83
-12.55
-10.23
-7.05
-3.40
0.29
3.58
6.20
7.99
8.98
9.31
9.20
8.89
8.52
8.18
7.86
7.52
7.13
6.64
6.05
5.34
4.53
3.74
3.11
2.81
2.90
3.31
3.78
4.05
3.92
3.37
2.54
1.64
0.84
0.16
-0.49
-1.28
-2.35
-3.72
-5.31
-6.87
-8.14
-8.89
-9.06
-8.75
-8.20
-7.70
-7.45
-7.56
-7.97
-8.53
-9.02
-9.21
-8.84
-7.73
-5.80
-3.17
-0.19
2.70
5.10
6.79
7.77
8.20
8.26
8.09
7.82
7.51
7.25
7.11
7.08
7.09
7.04
6.89
6.67
6.47
6.32
6.15
5.79
5.08
4.03
2.81
1.72
1.02
0.76
0.79
0.79
0.55
-0.01
-0.76
-1.52
-2.18
-2.81
-3.60
-4.73
-6.20
-7.82
-9.28
-10.33
-10.94
-11.32
-11.72
-12.37
-13.30
-14.42
-15.53
-16.42
-16.95
-16.94
-16.28
-14.85
-12.64
-9.79
-6.59
-3.41
-0.62
1.56
3.06
3.98
4.52
4.88
5.24
5.69
6.26
6.93
7.65
8.31
8.80
8.98
8.77
8.15
7.22
6.14
5.13
4.35
3.92
3.82
3.94
4.11
4.14
3.89
3.32
2.51
1.60
0.73
-0.03
-0.70
-1.39
-2.24
-3.34
-4.73
-6.34
-8.06
-9.78
-11.41
-12.85
-14.00
-14.74
-15.03
-14.90
-14.52
-14.02
-13.49
-12.82
-11.80
-10.20
-7.89
-4.98
-1.76
1.43
4.27
6.58
8.33
9.58
10.44
11.01
11.36
11.56
11.68
11.80
11.94
12.12
12.26
12.21
11.78
10.87
9.51
7.85
6.15
4.62
3.38
2.44
1.76
1.27
0.96
0.81
0.83
0.99
1.23
1.46
1.55
1.37
0.79
-0.24
-1.68
-3.44
-5.32
-7.15
-8.85
-10.38
-11.78
-13.09
-14.37
-15.62
-16.80
-17.75
-18.19
-17.76
-16.17
-13.32
-9.41
-4.97
-0.66
2.90
5.37
6.75
7.33
7.50
7.58
7.73
7.98
8.26
8.50
8.67
8.72
8.60
8.23
7.57
6.61
5.46
4.33
3.44
2.95
2.90
3.16
3.57
3.88
3.96
3.76
3.31
2.69
1.96
1.15
0.22
-0.85
-2.05
-3.32
-4.52
-5.46
-5.93
-5.79
-5.05
-3.84
-2.49
-1.38
-0.85
-1.12
-2.23
-4.00
-6.09
-8.02
-9.34
-9.66
-8.82
-6.88
-4.12
-0.90
2.41
5.59
8.52
11.12
13.33
15.06
16.24
16.86
16.98
16.67
15.95
14.84
13.35
11.62
9.85
8.31
7.17
6.49
6.18
6.06
5.94
5.69
5.20
4.40
3.24
1.73
-0.03
-1.87
-3.57
-4.98
-6.06
-6.85
-7.46
-7.99
-8.45
-8.87
-9.31
-9.84
-10.57
-11.56
-12.83
-14.33
-16.01
-17.80
-19.59
-21.18
-22.21
-22.25
-20.97
-18.27
-14.37
-9.77
-5.06
-0.76
2.84
5.67
7.90
9.72
11.34
12.82
14.14
15.25
16.04
16.52
16.71
16.68
16.45
16.03
15.38
14.51
13.53
12.60
11.87
11.40
11.05
10.56
9.68
8.24
6.27
3.90
1.32
-1.35
-4.06
-6.78
-9.44
-11.91
-13.98
-15.45
-16.22
-16.31
-15.89
-15.19
-14.45
-13.85
-13.48
-13.34
-13.30
-13.15
-12.65
-11.50
-9.50
-6.60
-2.95
1.12
5.19
8.88
12.06
14.74
17.06
19.11
20.83
22.06
22.60
22.38
21.43
19.94
18.11
16.06
13.84
11.45
8.89
6.29
3.80
1.63
-0.09
-1.37
-2.29
-2.99
-3.59
-4.11
-4.54
-4.87
-5.15
-5.52
-6.16
-7.19
-8.62
-10.32
-12.07
-13.63
-14.83
-15.65
-16.19
-16.69
-17.37
-18.39
-19.71
-21.11
-22.19
-22.48
-21.55
-19.19
-15.45
-10.69
-5.54
-0.70
3.20
5.85
7.32
7.96
8.25
8.56
9.04
9.64
10.23
10.69
11.00
11.23
11.43
11.66
11.88
12.05
12.14
12.19
12.26
12.44
12.73
13.04
13.13
12.71
11.50
9.41
6.54
3.24
-0.06
-2.92
-5.08
-6.46
-7.17
-7.44
-7.49
-7.52
-7.64
-7.92
-8.36
-8.94
-9.67
-10.56
-11.61
-12.86
-14.34
-15.99
-17.56
-18.61
-18.58
-17.03
-13.81
-9.26
-4.02
1.10
5.50
8.89
11.31
12.98
14.10
14.75
14.98
14.84
14.52
14.29
14.39
14.87
15.61
16.35
16.87
17.12
17.30
17.73
18.69
20.25
22.21
24.16
25.62
26.22
25.83
24.56
22.69
20.52
18.23
15.85
13.30
10.53
7.50
4.30
0.97
-2.52
-6.34
-10.70
-15.68
-21.13
-26.66
-31.74
-35.82
-38.52
-39.66
-39.18
-37.11
-33.56
-28.78
-23.15
-17.24
-11.69
-7.06
-3.64
-1.43
-0.09
0.88
2.00
3.56
5.59
7.86
9.98
11.58
12.44
12.49
11.87
10.75
9.31
7.66
5.90
4.11
2.42
0.96
-0.22
-1.16
-2.04
-3.04
-4.32
-5.85
-7.45
-8.86
-9.84
-10.29
-10.26
-9.96
-9.57
-9.22
-8.89
-8.47
-7.86
-7.03
-6.10
-5.19
-4.39
-3.65
-2.83
-1.72
-0.16
1.92
4.51
7.56
10.98
14.61
18.15
21.13
22.89
22.77
20.17
14.89
7.15
-2.27
-12.16
-21.14
-27.96
-31.81
-32.52
-30.57
-26.93
-22.70
-18.83
-15.90
-14.05
-13.11
-12.77
-12.70
-12.66
-12.48
-12.06
-11.38
-10.44
-9.36
-8.28
-7.32
-6.54
-5.95
-5.50
-5.17
-4.98
-4.92
-4.91
-4.83
-4.59
-4.17
-3.66
-3.23
-3.00
-3.01
-3.20
-3.50
-3.88
-4.39
-4.99
-5.52
-5.65
-4.94
-3.14
-0.30
3.21
6.76
9.77
11.97
13.45
14.59
15.85
17.55
19.73
22.19
24.55
26.41
27.42
27.34
26.08
23.69
20.43
16.72
13.07
10.00
7.91
6.95
7.03
7.81
8.84
9.72
10.26
10.53
10.79
11.36
12.46
14.05
15.87
17.60
18.98
20.04
21.03
22.39
24.48
27.45
31.16
35.29
39.46
43.38
47.02
50.58
54.50
59.28
65.34
72.83
81.57
91.03
100.55
109.44
117.13
123.12
126.87
127.67
124.69
117.05
104.11
85.61
61.74
33.23
1.33
-32.18
-65.01
-94.65
-118.76
-135.77
-145.29
-148.22
-146.40
-142.03
-137.01
-132.56
-129.06
-126.30
-123.79
-121.09
-117.89
-114.05
-109.47
-104.07
-97.82
-90.81
-83.33
-75.79
-68.66
-62.28
-56.74
-51.87
-47.41
-43.10
-38.86
-34.77
-31.07
-27.92
-25.36
-23.20
-21.07
-18.56
-15.34
-11.38
-6.91
-2.43
1.55
4.67
6.87
8.40
9.63
10.88
12.29
13.75
15.03
15.93
16.37
16.46
16.35
16.22
16.09
15.91
15.58
15.10
14.60
14.29
14.37
14.86
15.58
16.18
16.29
15.75
14.68
13.39
12.25
11.47
10.99
10.57
9.96
9.03
7.87
6.68
5.65
4.85
4.19
3.51
2.70
1.71
0.56
-0.64
-1.75
-2.60
-3.03
-2.92
-2.26
-1.12
0.32
1.88
3.45
4.93
6.29
7.51
8.55
9.42
10.13
10.76
11.42
12.16
12.93
13.63
14.12
14.34
14.29
14.10
13.90
13.81
13.89
14.08
14.27
14.35
14.23
13.92
13.50
13.12
12.87
12.76
12.66
12.36
11.64
10.48
8.97
7.40
6.03
4.98
4.17
3.35
2.29
0.89
-0.83
-2.76
-4.77
-6.83
-8.93
-10.96
-12.62
-13.45
-13.01
-11.06
-7.71
-3.46
1.00
5.02
8.21
10.51
12.09
13.18
13.97
14.53
14.89
15.09
15.19
15.27
15.39
15.55
15.70
15.74
15.57
15.11
14.34
13.30
12.12
10.97
9.99
9.22
8.64
8.13
7.61
7.04
6.40
5.70
4.89
3.85
2.43
0.53
-1.84
-4.49
-7.14
-9.48
-11.31
-12.63
-13.62
-14.59
-15.74
-17.10
-18.45
-19.45
-19.69
-18.88
-16.91
-13.82
-9.80
-5.18
-0.39
4.10
7.82
10.46
11.95
12.46
12.39
12.19
12.21
12.58
13.18
13.76
14.06
13.94
13.39
12.52
11.44
10.18
8.77
7.23
5.68
4.29
3.22
2.56
2.21
2.01
1.76
1.32
0.66
-0.20
-1.19
-2.30
-3.55
-4.95
-6.53
-8.25
-10.01
-11.70
-13.17
-14.31
-15.07
-15.48
-15.66
-15.76
-15.91
-16.17
-16.53
-16.84
-16.86
-16.34
-15.06
-12.99
-10.26
-7.14
-3.87
-0.63
2.57
5.87
9.39
13.16
17.03
20.67
23.70
25.75
26.56
26.10
24.57
22.36
20.00
17.93
16.43
15.48
14.87
14.29
13.54
12.53
11.31
9.94
8.42
6.72
4.85
2.94
1.20
-0.17
-1.12
-1.87
-2.80
-4.28
-6.50
-9.27
-12.10
-14.35
-15.47
-15.26
-13.96
-12.18
-10.72
-10.28
-11.16
-13.18
-15.65
-17.67
-18.35
-17.14
-13.96
-9.25
-3.81
1.48
5.86
8.94
10.74
11.59
11.90
12.01
12.04
11.95
11.66
11.15
10.47
9.74
9.05
8.40
7.69
6.84
5.82
4.74
3.79
3.18
3.03
3.31
3.84
4.34
4.56
4.32
3.56
2.35
0.80
-1.00
-2.96
-5.05
-7.26
-9.53
-11.82
-14.03
-16.06
-17.84
-19.33
-20.57
-21.65
-22.59
-23.29
-23.43
-22.58
-20.40
-16.82
-12.23
-7.34
-3.03
0.06
1.69
2.08
1.80
1.48
1.61
2.40
3.81
5.67
7.74
9.75
11.44
12.55
12.89
12.32
10.93
8.93
6.73
4.78
3.49
3.10
3.62
4.82
6.30
7.62
8.41
8.44
7.72
6.34
4.51
2.36
0.01
-2.48
-5.00
-7.33
-9.13
-10.09
-10.00
-8.94
-7.34
-5.83
-5.03
-5.28
-6.46
-8.08
-9.40
-9.78
-8.91
-6.84
-3.98
-0.88
1.94
4.11
5.42
5.84
5.45
4.49
3.29
2.21
1.57
1.53
1.98
2.58
2.86
2.43
1.20
-0.57
-2.35
-3.61
-4.00
-3.52
-2.43
-1.15
-0.04
0.64
0.78
0.39
-0.39
-1.32
-2.14
-2.59
-2.55
-2.04
-1.24
-0.40
0.27
0.65
0.67
0.32
-0.41
-1.48
-2.82
-4.27
-5.69
-7.03
-8.26
-9.36
-10.17
-10.30
-9.31
-6.84
-2.94
1.95
6.97
11.26
14.19
15.62
15.84
15.35
14.68
14.16
13.96
14.13
14.64
15.43
16.41
17.43
18.32
18.90
19.09
18.89
18.34
17.54
16.60
15.61
14.59
13.49
12.23
10.65
8.75
6.68
4.68
3.05
1.87
0.96
-0.10
-1.76
-4.19
-7.16
-10.10
-12.37
-13.63
-13.99
-14.03
-14.48
-15.90
-18.42
-21.62
-24.67
-26.63
-26.73
-24.64
-20.58
-15.21
-9.41
-4.03
0.37
3.58
5.66
6.81
7.20
6.84
5.69
3.73
1.01
-2.28
-5.95
-9.79
-13.55
-16.85
-19.22
-20.16
-19.43
-17.24
-14.30
-11.62
-10.09
-10.10
-11.32
-12.91
-13.95
-13.79
-12.40
-10.19
-7.76
-5.56
-3.71
-2.00
-0.18
1.87
4.00
5.86
7.12
7.68
7.74
7.68
7.87
8.56
9.77
11.38
13.29
15.50
18.13
21.35
25.25
29.72
34.45
39.02
43.06
46.44
49.42
52.60
56.77
62.58
70.26
79.51
89.48
99.01
106.96
112.34
114.45
112.93
107.63
98.56
85.81
69.53
50.00
27.76
3.66
-21.10
-45.08
-66.79
-84.89
-98.36
-106.71
-109.99
-108.83
-104.42
-98.32
-92.04
-86.62
-82.42
-79.04
-75.78
-71.92
-67.17
-61.82
-56.53
-51.96
-48.27
-45.09
-41.64
-37.36
-31.98
-25.78
-19.60
-14.46
-11.11
-9.65
-9.50
-9.67
-9.54
-8.66
-7.11
-5.45
-4.54
-5.17
-7.65
-11.73
-16.57
-21.36
-24.77
-25.39
-22.19
-15.05
-5.10
5.49
13.66
19.20
20.83
18.29
13.36
9.00
7.65
9.88
14.94
21.26
27.54
32.93
37.44
41.50
45.28
48.52
50.55
51.31
51.05
50.33
49.54
48.88
48.33
47.57
46.04
42.38
36.54
28.56
18.65
7.19
-5.44
-18.68
-31.91
-42.69
-51.50
-58.69
-64.76
-70.19
-75.12
-79.69
-83.55
-86.10
-86.89
-86.12
-83.99
-81.05
-79.55
-78.85
-79.12
-80.58
-83.23
-86.39
-88.46
-86.63
-78.06
-61.38
-37.55
-10.48
14.81
33.98
45.04
48.52
46.94
42.99
38.35
33.65
28.56
23.24
18.46
15.32
14.44
15.67
18.07
20.47
22.33
22.64
21.68
20.28
19.25
18.94
19.15
19.29
18.70
17.08
14.45
11.43
8.76
6.94
6.13
6.07
6.29
6.29
5.80
4.78
3.56
2.49
1.82
1.55
1.49
1.31
0.80
-0.07
-1.10
-1.96
-2.45
-2.58
-2.60
-2.83
-3.52
-4.72
-6.24
-7.78
-8.92
-9.37
-8.98
-7.73
-5.73
-3.11
-0.01
3.39
6.87
10.11
12.72
14.37
14.91
14.47
13.44
12.25
11.21
10.37
9.57
8.55
7.15
5.38
3.46
1.60
-0.01
-1.35
-2.51
-3.65
-4.82
-6.00
-7.09
-7.95
-8.49
-8.78
-8.98
-9.32
-9.94
-10.82
-11.78
-12.61
-13.17
-13.45
-13.56
-13.48
-13.01
-11.73
-9.19
-5.19
0.01
5.78
11.28
15.83
19.12
21.22
22.42
23.05
23.31
23.24
22.81
21.90
20.49
18.61
16.36
13.94
11.57
9.39
7.49
5.85
4.35
2.88
1.34
-0.31
-2.06
-3.83
-5.55
-7.20
-8.76
-10.30
-11.86
-13.50
-15.29
-17.34
-19.81
-22.86
-26.46
-30.23
-33.41
-35.02
-34.23
-30.70
-24.77
-17.34
-9.47
-2.04
4.49
10.05
14.82
18.95
22.52
25.52
27.94
29.89
31.50
32.92
34.21
35.29
36.06
36.43
36.46
36.38
36.54
37.27
38.70
40.81
43.50
46.76
50.84
56.16
63.12
71.90
82.22
93.27
103.67
111.42
114.10
109.32
95.49
72.68
43.16
11.07
-18.60
-41.52
-55.31
-59.92
-57.29
-50.34
-42.02
-34.64
-29.72
-28.00
-29.53
-33.71
-39.35
-44.98
-49.17
-50.92
-49.79
-45.90
-39.72
-31.86
-22.89
-13.22
-3.07
7.63
19.06
31.38
44.56
58.33
72.17
85.53
97.94
109.04
118.57
126.25
131.77
134.80
135.05
132.38
126.88
118.99
109.50
99.55
90.45
83.44
79.41
78.67
80.90
85.31
90.82
96.29
100.73
103.34
103.60
101.14
95.74
87.41
76.34
63.07
48.36
33.06
17.90
3.24
-10.92
-24.87
-38.99
-53.62
-68.93
-84.86
-101.05
-116.90
-131.63
-144.59
-155.45
-164.28
-171.58
-177.99
-184.10
-190.26
-196.61
-203.13
-209.69
-216.01
-221.76
-226.91
-231.98
-237.82
-245.10
-253.79
-262.90
-270.73
-275.51
-275.73
-270.82
-261.25
-248.18
-233.12
-217.75
-203.67
-192.05
-182.95
-174.18
-162.65
-145.44
-120.82
-88.57
-49.89
-7.00
37.46
80.95
122.93
162.66
198.85
230.04
255.77
276.89
295.06
311.90
328.40
347.06
368.41
390.52
409.86
423.25
429.00
426.70
416.82
400.45
382.06
364.55
348.02
330.25
309.04
283.61
254.45
222.81
171.55
96.99
9.98
-70.87
-132.83
-173.54
-196.86
-208.12
-211.66
-210.38
-202.97
-189.15
-170.79
-151.73
-135.26
-122.78
-114.23
-108.74
-105.17
-100.01
-91.43
-79.69
-67.59
-58.27
-53.12
