1660751202.00
64.000000
-0.00
-0.00
-0.00
-0.00
-0.00
-0.00
-0.00
-0.00
-0.00
-0.00
0.00
0.01
0.01
-0.00
-0.03
-0.05
-0.05
0.00
0.13
0.36
0.66
1.01
1.37
1.72
2.06
2.40
2.79
3.24
3.80
4.42
5.06
5.66
6.20
6.68
7.15
7.68
8.31
9.14
10.09
11.04
11.88
12.56
13.14
13.76
14.65
15.96
17.91
20.32
22.90
25.38
27.58
29.57
31.68
34.32
37.81
42.54
48.15
54.10
59.83
64.97
69.58
74.14
79.34
85.71
93.76
103.00
112.62
121.73
129.77
136.75
143.30
150.75
157.77
166.64
177.95
191.79
206.97
220.57
228.25
225.36
208.53
176.87
132.76
80.05
23.07
-34.94
-92.44
-149.16
-205.23
-260.37
-313.74
-363.87
-409.83
-450.91
-486.50
-515.74
-537.23
-549.22
-549.96
-538.37
-514.21
-478.67
-433.88
-382.45
-327.02
-269.84
-212.63
-156.66
-102.95
-52.38
-5.91
35.57
71.42
101.36
125.53
144.42
158.72
169.12
176.26
180.55
182.29
181.76
179.22
175.02
169.53
163.11
156.09
148.70
141.12
133.45
125.77
118.12
110.54
103.04
95.62
88.33
81.20
74.33
67.83
61.79
56.23
51.08
46.21
41.44
36.69
31.98
27.47
23.42
20.02
17.33
15.18
13.23
11.11
8.60
5.76
2.94
0.64
-0.76
-1.18
-0.97
-0.78
-1.24
-2.71
-5.01
-7.50
-9.38
-10.08
-9.59
-8.43
-7.45
-7.38
-8.50
-10.69
-13.61
-16.88
-20.00
-22.06
-21.70
-17.55
-9.04
2.88
15.54
25.44
29.57
26.77
18.09
6.14
-6.29
-17.47
-27.04
-35.32
-42.12
-46.06
-44.93
-36.96
-22.25
-3.26
15.85
30.84
39.11
40.73
37.90
33.75
30.67
29.48
29.47
29.26
27.79
24.97
21.54
18.59
16.88
16.51
16.95
17.33
16.97
15.69
13.77
11.80
10.25
9.27
8.75
8.43
8.19
8.09
8.37
9.16
10.35
11.48
12.00
11.53
10.11
8.30
6.87
6.46
7.16
8.52
9.75
10.19
9.65
8.41
7.08
5.85
4.62
3.03
0.80
-2.05
-5.10
-7.75
-9.60
-10.55
-10.88
-10.87
-10.65
-10.09
-8.90
-6.92
-4.36
-1.81
-0.04
0.30
-0.94
-3.40
-6.40
-9.17
-11.22
-12.38
-12.81
-12.78
-12.61
-12.58
-13.04
-14.29
-16.51
-19.55
-22.78
-25.25
-25.94
-24.25
-20.23
-14.66
-8.85
-4.12
-1.39
-0.80
-1.77
-3.28
-4.32
-4.25
-3.00
-1.08
0.81
2.18
3.00
3.71
4.95
7.02
9.78
12.56
14.54
15.32
15.29
15.71
18.23
24.38
34.61
48.44
64.54
80.80
94.32
101.50
98.63
83.09
54.76
16.91
-24.22
-61.29
-88.37
-102.76
-105.49
-99.95
-89.99
-78.28
-66.05
-53.68
-41.76
-31.47
-24.16
-20.52
-20.09
-21.28
-22.15
-21.35
-18.57
-14.59
-10.79
-8.41
-7.98
-9.20
-11.09
-12.50
-12.71
-11.63
-9.89
-8.48
-8.33
-9.87
-12.90
-16.72
-20.49
-23.68
-26.28
-28.78
-31.91
-36.19
-41.60
-47.50
-52.85
-56.60
-58.01
-56.85
-53.41
-48.22
-41.90
-34.93
-27.68
-20.45
-13.48
-6.89
-0.64
5.45
11.60
17.80
23.72
28.85
32.77
35.48
37.57
40.08
44.05
50.05
57.85
66.49
74.66
81.13
85.14
86.54
85.69
83.25
79.93
76.29
72.56
68.63
64.20
58.93
52.71
45.71
38.32
30.99
24.00
17.44
11.23
5.28
-0.47
-6.01
-11.33
-16.43
-21.29
-25.80
-29.73
-32.80
-34.82
-35.79
-35.94
-35.61
-35.13
-34.61
-33.98
-32.97
-31.22
-28.43
-24.44
-19.34
-13.44
-7.30
-1.58
3.08
6.22
7.68
7.68
6.76
5.66
5.13
5.66
7.36
9.91
12.68
14.96
16.26
16.40
15.56
14.15
12.64
11.33
10.37
9.69
9.13
8.52
7.74
6.70
5.41
3.89
2.24
0.59
-0.90
-2.08
-2.82
-3.09
-2.98
-2.66
-2.34
-2.14
-2.08
-2.01
-1.69
-0.92
0.34
1.84
3.21
4.03
4.05
3.30
2.00
0.45
-1.09
-2.47
-3.67
-4.77
-5.94
-7.38
-9.27
-11.68
-14.50
-17.38
-19.83
-21.34
-21.58
-20.51
-18.39
-15.71
-13.03
-10.77
-9.14
-8.02
-7.06
-5.81
-3.93
-1.35
1.69
4.82
7.71
10.23
12.49
14.69
16.96
19.22
21.21
22.62
23.23
23.07
22.29
21.10
19.62
17.82
15.61
12.96
9.94
6.75
3.61
0.67
-2.04
-4.56
-7.00
-9.35
-11.52
-13.32
-14.55
-15.10
-14.99
-14.43
-13.73
-13.22
-13.03
-13.08
-13.04
-12.43
-10.91
-8.41
-5.20
-1.78
1.32
3.75
5.43
6.45
7.04
7.36
7.48
7.37
6.99
6.33
5.49
4.57
3.68
2.86
2.11
1.39
0.69
0.09
-0.26
-0.22
0.30
1.23
2.42
3.60
4.53
4.99
4.86
4.16
3.02
1.66
0.34
-0.79
-1.70
-2.51
-3.43
-4.60
-6.02
-7.58
-9.12
-10.49
-11.58
-12.28
-12.37
-11.60
-9.81
-7.05
-3.64
-0.10
3.07
5.53
7.20
8.21
8.74
8.96
9.03
9.03
9.05
9.14
9.26
9.31
9.19
8.85
8.32
7.73
7.20
6.81
6.59
6.53
6.60
6.75
6.87
6.82
6.45
5.71
4.68
3.57
2.59
1.90
1.53
1.32
1.07
0.59
-0.19
-1.24
-2.44
-3.65
-4.80
-5.92
-7.14
-8.53
-10.12
-11.82
-13.46
-14.86
-15.86
-16.34
-16.22
-15.42
-13.93
-11.82
-9.31
-6.70
-4.30
-2.33
-0.84
0.25
1.07
1.70
2.17
2.46
2.62
2.73
2.89
3.22
3.75
4.44
5.19
5.89
6.39
6.61
6.53
6.22
5.86
5.64
5.67
5.92
6.20
6.21
5.77
4.86
3.59
2.22
0.94
-0.17
-1.18
-2.19
-3.27
-4.36
-5.26
-5.79
-5.81
-5.35
-4.61
-3.85
-3.33
-3.15
-3.32
-3.75
-4.37
-5.12
-5.95
-6.70
-7.10
-6.86
-5.74
-3.76
-1.17
1.57
4.00
5.80
6.86
7.32
7.37
7.23
7.01
6.76
6.49
6.23
5.99
5.79
5.61
5.46
5.35
5.31
5.35
5.46
5.51
5.34
4.88
4.22
3.68
3.62
4.28
5.50
6.82
7.60
7.39
6.15
4.41
2.99
2.68
3.84
6.20
9.00
11.27
12.28
11.86
10.60
9.62
10.02
12.35
16.48
21.78
27.45
32.73
37.07
40.04
41.49
41.38
40.03
38.51
38.46
41.17
46.49
52.50
56.17
55.08
48.54
38.21
27.60
20.56
19.40
23.83
31.39
39.00
44.64
47.53
47.72
45.50
40.72
32.60
19.86
1.69
-22.53
-49.00
-71.16
-83.60
-85.18
-78.62
-68.06
-57.07
-47.51
-39.37
-31.32
-22.52
-13.09
-3.81
4.44
11.36
17.04
22.07
27.38
33.97
41.81
50.23
58.24
64.52
69.21
72.69
75.53
78.49
82.41
87.12
92.19
97.19
101.91
106.56
111.44
116.94
123.46
131.39
140.01
148.59
156.47
163.09
168.11
170.97
170.72
165.45
158.59
150.67
141.80
132.04
121.59
110.91
100.47
90.72
81.92
74.19
66.54
58.26
48.94
38.59
27.67
16.81
6.59
-2.70
-11.12
-19.74
-29.39
-40.52
-53.00
-66.12
-79.03
-91.01
-101.79
-111.56
-121.24
-131.71
-143.79
-158.19
-175.31
-194.73
-214.61
-231.45
-240.70
-238.42
-222.72
-194.81
-158.63
-119.42
-81.68
-47.98
-18.93
5.83
26.39
42.17
52.38
56.92
56.91
54.46
51.76
50.10
48.70
46.30
42.32
37.22
32.06
27.97
25.82
25.93
27.92
29.95
30.29
28.17
23.75
17.64
10.59
3.51
-2.79
-7.80
-13.59
-21.61
-31.40
-41.15
-49.29
-55.08
-58.32
-59.21
-58.20
-61.83
-74.04
-93.00
-113.39
-131.02
-144.39
-153.54
-159.15
-162.19
-175.63
-206.93
-251.74
-298.47
-338.11
-367.10
-385.19
-393.42
-393.39
-406.02
-443.64
-500.03
-557.81
-603.98
-634.59
-651.36
-658.09
-659.30
-684.09
-749.62
-848.30
-957.87
-1062.24
-1157.42
-1245.66
-1329.05
-1251.77
-953.86
-513.03
-69.82
288.82
544.98
713.02
815.09
872.87
904.99
900.74
855.11
781.91
705.61
643.27
600.26
575.52
565.88
567.70
557.99
522.75
466.99
407.82
358.60
323.98
303.23
293.59
292.02
283.39
258.44
220.14
179.17
143.86
117.11
98.39
85.73
77.18
64.84
43.87
15.75
-13.98
-40.54
-61.59
-76.26
-86.70
-93.88
-100.66
-108.59
-116.81
-122.90
-124.89
-121.96
-114.36
-103.01
-88.76
-72.75
-55.95
-38.97
-22.09
-5.20
12.11
30.45
50.35
72.17
95.12
117.17
135.32
146.54
148.82
141.97
127.71
109.01
89.24
71.03
56.04
45.05
38.34
35.85
37.07
40.87
45.58
49.44
51.10
50.08
46.85
42.42
37.91
34.00
30.84
28.19
25.67
23.00
20.08
17.00
13.92
11.08
8.66
6.81
5.60
4.97
4.69
4.43
3.82
2.59
0.78
-1.39
-3.45
-5.01
-5.88
-6.26
-6.57
-7.37
-9.00
-11.51
-14.69
-18.19
-21.77
-25.43
-29.39
-33.96
-39.37
-45.62
-52.32
-58.73
-63.78
-66.32
-65.35
-60.39
-51.66
-40.13
-27.20
-14.35
-2.69
7.29
15.65
22.78
29.14
34.97
40.28
44.95
48.81
51.82
54.02
55.57
56.63
57.35
57.85
58.26
58.71
59.31
60.10
61.00
61.83
62.35
62.42
62.00
61.15
59.90
58.14
55.65
52.16
47.59
42.11
36.10
29.94
23.83
17.65
11.15
4.11
-3.41
-11.05
-18.31
-24.81
-30.53
-35.87
-41.49
-47.95
-55.39
-63.29
-70.61
-75.99
-78.27
-76.77
-71.62
-63.61
-53.94
-43.82
-34.02
-24.75
-15.64
-6.06
4.46
15.88
27.54
38.35
47.27
53.74
57.92
60.55
62.57
64.70
67.11
69.46
71.08
71.36
69.98
67.03
62.86
57.96
52.73
47.47
42.37
37.61
33.43
30.11
27.93
27.00
27.21
28.22
29.66
31.30
33.10
35.24
38.01
41.59
45.93
50.69
55.30
59.04
61.24
61.35
59.14
54.70
48.49
41.27
34.02
27.70
22.97
20.06
18.60
17.82
16.80
14.86
11.80
7.91
3.74
-0.26
-3.89
-7.38
-11.22
-15.90
-21.70
-28.45
-35.55
-42.09
-47.11
-49.85
-49.90
-47.25
-42.16
-35.13
-26.75
-17.80
-9.08
-1.36
4.91
9.77
13.75
17.55
21.55
25.48
28.44
29.34
27.48
23.08
17.17
11.22
6.46
3.48
2.14
1.86
2.03
2.37
2.95
4.08
6.11
9.33
13.95
20.01
27.31
35.37
43.45
50.65
56.29
60.05
62.13
63.09
63.59
64.07
64.57
64.80
64.34
62.83
60.10
56.07
50.62
43.58
34.79
24.41
13.04
1.73
-8.23
-15.81
-20.61
-23.02
-24.08
-25.08
-27.20
-31.10
-36.76
-43.57
-50.51
-56.44
-60.47
-62.12
-61.30
-58.33
-53.66
-47.86
-41.49
-35.02
-28.81
-22.91
-17.10
-11.03
-4.45
2.44
9.00
14.36
17.91
19.74
20.70
22.09
25.10
30.26
37.27
45.19
52.87
59.46
64.63
68.61
71.99
75.37
79.25
83.69
88.36
92.47
95.09
95.34
92.65
86.92
78.43
67.78
55.71
43.13
31.08
20.68
12.87
8.17
6.31
6.17
6.02
4.13
-0.64
-8.38
-18.17
-28.49
-37.78
-45.03
-50.02
-53.25
-55.70
-58.36
-61.92
-66.68
-72.39
-78.37
-83.62
-87.08
-87.84
-85.35
-79.53
-70.62
-59.10
-45.55
-30.52
-14.59
1.66
17.71
33.06
47.23
59.64
69.38
75.20
75.73
70.11
58.76
43.76
28.51
16.73
11.19
12.64
19.68
29.43
38.75
45.44
48.85
49.68
49.44
49.76
51.97
56.94
64.97
75.59
87.26
97.36
102.52
99.53
86.38
63.21
32.59
-1.04
-32.56
-57.57
-73.57
-80.36
-79.64
-74.22
-67.03
-60.39
-55.77
-53.75
-54.27
-56.86
-60.78
-65.12
-68.98
-71.69
-73.02
-73.25
-73.02
-73.07
-73.89
-75.55
-77.68
-79.63
-80.77
-80.72
-79.40
-76.86
-73.13
-68.12
-61.68
-53.74
-44.52
-34.51
-24.33
-14.52
-5.38
3.08
10.93
18.08
24.12
28.41
30.37
29.82
27.27
23.77
20.62
18.80
18.67
19.83
21.46
22.76
23.35
23.38
23.44
24.20
26.23
29.79
34.91
41.31
48.48
55.54
61.33
64.57
64.22
59.89
52.09
42.21
32.16
23.81
18.44
16.53
17.71
21.03
25.31
29.42
32.41
33.57
32.37
28.54
22.15
13.66
3.82
-6.44
-16.20
-24.84
-32.03
-37.81
-42.41
-46.16
-49.36
-52.26
-55.01
-57.69
-60.35
-62.91
-65.26
-67.19
-68.46
-68.81
-67.94
-65.49
-61.07
-54.36
-45.26
-34.15
-21.95
-10.04
0.20
7.88
13.09
16.94
21.20
27.62
37.35
50.60
66.68
84.19
101.18
115.26
123.72
124.02
114.66
96.11
71.24
44.72
21.57
5.51
-2.18
-2.62
1.70
8.26
15.52
23.05
30.97
39.16
46.84
52.73
55.52
54.48
49.75
42.27
33.49
24.83
17.38
11.65
7.69
5.32
4.49
5.45
8.51
13.61
19.72
24.80
26.36
22.59
13.69
2.44
-6.38
-7.82
1.43
21.84
51.06
84.88
118.55
147.79
169.26
180.71
181.23
171.34
153.02
129.13
102.36
74.02
43.48
8.62
-32.60
-80.31
-131.69
-181.35
-223.07
-252.07
-266.62
-268.45
-261.73
-251.24
-240.49
-231.05
-222.75
-214.71
-206.28
-197.31
-188.00
-178.25
-167.47
-154.79
-139.61
-122.16
-103.50
-85.34
-69.39
-56.69
-47.27
-40.26
-34.33
-28.34
-21.75
-14.84
-8.42
-3.40
-0.34
0.76
0.46
-0.43
-1.20
-1.44
-1.14
-0.57
-0.12
-0.04
-0.33
-0.82
-1.16
-1.05
-0.26
1.26
3.37
5.83
8.31
10.54
12.32
13.69
14.86
16.23
18.25
21.24
25.34
30.33
35.79
41.12
45.75
49.34
51.79
53.21
53.82
53.83
53.37
52.47
51.15
49.46
47.38
44.69
40.99
35.89
29.25
21.36
12.88
4.61
-2.87
-9.32
-14.70
-18.89
-21.63
-22.53
-21.44
-18.66
-14.87
-10.82
-6.81
-2.49
3.07
10.86
21.50
34.99
50.90
68.64
87.75
107.86
128.63
149.45
169.30
186.75
200.20
208.22
209.75
204.01
190.35
168.17
137.13
97.54
50.98
0.55
-49.14
-92.97
-126.82
-148.58
-158.64
-159.27
-153.73
-145.08
-135.47
-125.66
-115.66
-105.52
-95.68
-86.63
-78.43
-70.77
-63.34
-56.30
-49.88
-44.61
-41.09
-39.60
-39.67
-40.10
-39.75
-38.09
-35.15
-30.28
-22.32
-10.16
6.40
26.39
47.57
66.71
80.21
81.64
67.62
41.34
11.78
-12.21
-26.57
-32.06
-31.92
-29.56
-26.87
-23.51
-18.35
-10.99
-2.46
5.36
11.01
14.02
14.75
14.48
15.00
17.57
22.14
27.46
31.63
33.26
31.89
27.25
20.33
12.41
4.40
-3.55
-11.87
-21.52
-32.96
-44.20
-55.07
-64.75
-72.28
-77.09
-79.30
-79.51
-78.93
-78.44
-78.35
-78.66
-78.57
-77.19
-74.02
-70.63
-66.53
-62.45
-59.12
-56.79
-55.41
-54.16
-52.35
-49.61
-46.21
-42.69
-40.18
-39.68
-41.95
-47.52
-56.04
-66.21
-75.53
-80.75
-78.66
-67.96
-49.81
-27.80
-6.77
9.24
18.24
20.76
19.03
15.76
12.71
10.58
9.48
8.66
8.04
7.76
8.01
8.64
9.26
9.17
7.72
4.67
0.32
-4.42
-8.35
-10.35
-9.74
-6.50
-1.27
4.91
11.00
16.21
20.24
23.11
24.97
26.03
26.39
26.13
25.34
24.18
22.85
21.60
20.62
19.94
19.40
18.75
17.76
16.34
14.58
12.74
11.05
9.65
8.55
7.68
6.99
6.45
6.07
5.79
5.50
5.14
4.75
4.49
4.62
5.22
6.23
7.33
8.03
7.88
6.54
3.96
0.37
-3.65
-7.25
-9.35
-8.78
-4.62
3.51
15.12
28.72
42.13
53.02
59.62
61.20
58.13
51.67
43.36
34.55
26.18
18.67
12.13
6.39
1.15
-3.95
-9.18
-14.56
-19.76
-24.20
-27.37
-29.02
-29.38
-28.92
-28.10
-27.04
-25.41
-22.70
-18.55
-13.07
-6.86
-0.79
4.39
8.44
11.63
14.69
18.35
22.99
28.36
33.60
37.45
38.70
36.72
31.71
24.77
17.56
11.74
8.37
7.57
8.57
10.04
10.70
9.64
6.53
1.51
-4.94
-12.18
-19.41
-25.66
-29.86
-31.02
-28.54
-22.43
-13.50
-3.14
7.05
15.81
22.65
28.08
33.44
40.47
50.75
65.17
83.60
104.67
125.80
143.41
153.37
152.30
138.47
112.75
78.60
41.71
8.10
-17.85
-34.69
-43.75
-47.58
-48.70
-48.76
-48.62
-48.44
-48.57
-49.71
-52.82
-58.39
-65.60
-73.03
-79.37
-84.46
-88.27
-91.12
-93.38
-95.26
-96.45
-94.67
-87.71
-74.72
-58.06
-39.65
-21.41
-4.80
8.94
19.50
30.36
44.96
64.59
85.25
105.08
122.92
138.11
148.96
153.83
156.39
160.59
168.35
174.82
180.06
185.96
195.00
207.13
220.80
239.84
267.14
302.10
335.25
364.19
390.11
416.18
442.71
431.97
361.17
234.42
114.55
14.63
-66.20
-140.34
-207.80
-266.04
-312.44
-339.78
-344.34
-328.94
-307.53
-288.24
-275.43
-268.97
-267.81
-270.78
-272.23
-267.63
-255.41
-241.88
-229.30
-218.27
-208.27
-200.33
-195.85
-192.61
-187.87
-179.90
-170.66
-159.12
-143.49
-122.36
-96.80
-69.93
-43.77
-20.20
-0.73
13.75
25.21
36.61
50.40
67.01
84.71
101.97
116.94
127.85
134.61
138.35
140.31
141.33
141.79
141.29
140.62
140.27
140.28
142.38
147.58
155.58
164.95
174.20
181.95
189.46
198.24
196.41
176.15
136.35
83.00
24.09
-28.82
-77.09
-120.63
-157.68
-186.69
-203.69
-206.85
-198.05
