1660323350.00
64.000000
-0.00
-0.00
-0.00
-0.00
-0.00
-0.00
-0.00
-0.00
-0.00
-0.00
0.00
0.01
0.01
-0.00
-0.03
-0.05
-0.05
0.00
0.13
0.36
0.66
1.01
1.37
1.72
2.06
2.40
2.79
3.24
3.80
4.42
5.06
5.66
6.20
6.68
7.15
7.68
8.31
9.14
10.09
11.04
11.88
12.56
13.14
13.76
14.65
15.96
17.91
20.32
22.91
25.38
27.58
29.57
31.67
34.31
37.81
42.56
48.19
54.17
59.88
64.96
69.46
73.86
78.90
85.12
93.07
102.23
111.76
120.73
128.54
135.24
141.52
148.78
155.80
164.85
176.46
190.60
205.92
219.41
226.74
223.37
206.10
174.23
130.20
77.79
21.08
-36.99
-95.11
-153.03
-210.64
-267.22
-321.52
-371.85
-417.47
-458.19
-494.10
-524.79
-548.84
-563.88
-567.21
-556.86
-532.27
-495.13
-448.74
-397.11
-343.79
-290.90
-238.99
-187.49
-135.89
-84.46
-35.03
9.65
46.79
74.74
93.53
104.75
110.95
114.88
119.11
125.61
135.53
148.85
164.25
179.68
193.30
204.75
215.74
229.55
249.14
274.75
302.16
323.17
328.29
310.71
269.68
211.31
146.21
85.36
36.09
0.15
-25.18
-44.14
-59.80
-72.93
-82.77
-88.41
-89.42
-85.46
-75.61
-58.28
-32.19
2.17
41.82
82.10
118.27
147.03
166.64
175.95
173.43
157.27
126.98
84.99
37.13
-8.85
-46.31
-72.26
-87.95
-97.41
-105.13
-113.52
-122.05
-127.60
-125.83
-113.12
-88.10
-53.04
-13.47
23.43
51.51
68.35
76.43
81.61
89.54
101.89
114.62
119.72
109.51
81.36
39.60
-6.16
-45.49
-71.91
-85.37
-91.33
-96.83
-105.59
-115.36
-118.92
-108.18
-79.29
-35.66
13.21
56.12
85.49
100.18
104.35
103.48
100.09
92.21
75.48
47.21
9.26
-32.09
-69.13
-96.26
-111.69
-116.18
-110.87
-96.09
-71.41
-37.83
1.08
39.46
71.15
91.88
100.21
97.11
84.90
66.74
46.12
26.76
11.97
3.56
1.30
3.26
7.11
11.47
16.40
22.04
27.79
31.58
30.75
23.88
12.17
-0.61
-9.76
-12.00
-7.39
1.05
8.82
12.00
9.23
2.08
-5.93
-11.15
-11.39
-6.66
1.19
9.26
14.40
14.11
7.07
-6.55
-24.86
-44.36
-60.78
-69.99
-69.84
-61.19
-47.96
-35.79
-30.13
-34.26
-48.03
-67.49
-85.42
-93.99
-87.96
-67.34
-38.17
-10.91
4.19
1.19
-19.00
-48.92
-79.23
-103.60
-121.65
-137.68
-156.67
-179.37
-200.46
-210.81
-201.68
-169.83
-119.27
-59.19
-0.04
49.85
85.64
105.50
104.08
78.29
28.94
-37.31
-107.91
-167.42
-202.41
-206.03
-179.87
-132.35
-73.85
-13.74
42.02
91.09
133.66
171.07
205.00
236.98
268.33
300.63
334.45
368.38
398.29
417.65
418.97
397.03
351.94
290.33
223.95
164.89
120.82
92.34
73.98
57.64
36.84
9.08
-24.00
-58.14
-88.70
-112.27
-127.79
-136.58
-141.64
-146.19
-151.93
-158.05
-161.61
-159.17
-148.90
-131.84
-111.22
-90.89
-73.44
-59.44
-47.90
-37.61
-28.03
-19.44
-12.45
-7.31
-3.77
-1.38
0.11
0.42
-1.08
-5.06
-11.72
-20.45
-29.61
-36.98
-40.65
-39.98
-35.93
-30.53
-25.73
-22.62
-21.17
-20.76
-20.99
-21.89
-23.75
-26.55
-29.58
-31.65
-31.65
-29.03
-23.88
-16.97
-9.52
-3.01
0.90
0.70
-4.12
-11.98
-19.05
-20.49
-12.72
4.88
29.90
58.35
86.88
113.76
138.53
160.57
178.11
188.66
190.34
183.22
169.18
150.82
129.79
106.09
78.51
45.95
8.40
-33.02
-76.56
-120.20
-161.27
-195.99
-220.06
-229.95
-224.60
-206.50
-180.97
-153.87
-129.12
-107.44
-87.09
-66.05
-43.90
-22.28
-3.60
11.05
22.90
34.80
49.11
65.86
82.43
95.23
102.04
103.24
101.23
98.30
94.68
88.35
76.72
58.82
36.41
13.24
-6.96
-22.17
-32.50
-39.20
-43.36
-45.25
-44.80
-42.35
-38.90
-35.70
-33.28
-30.74
-25.91
-16.19
0.28
23.77
52.62
83.40
111.56
132.56
143.15
142.37
131.68
114.13
92.84
69.64
44.69
17.32
-12.31
-41.96
-67.56
-84.69
-90.89
-87.25
-78.41
-70.61
-68.84
-74.47
-84.77
-94.53
-98.54
-94.06
-81.52
-63.63
-43.45
-22.96
-2.92
16.18
33.09
45.62
51.59
50.22
43.06
33.51
25.26
20.60
19.46
19.95
19.86
18.02
14.78
11.48
9.42
9.01
9.69
10.46
10.40
8.85
5.18
-1.32
-11.25
-24.53
-39.99
-55.37
-67.96
-75.61
-77.52
-74.46
-68.13
-60.19
-51.36
-41.32
-29.18
-14.35
2.78
20.87
38.00
52.34
62.63
68.40
69.90
67.82
62.95
56.02
47.73
38.86
30.29
22.95
17.45
13.99
12.22
11.48
11.14
11.01
11.48
13.08
15.90
19.16
21.49
21.63
19.30
15.35
11.25
8.18
6.52
5.85
5.53
5.26
5.17
5.55
6.39
7.22
7.36
6.35
4.29
1.80
-0.29
-1.33
-1.21
-0.45
-0.01
-0.85
-3.40
-7.33
-11.61
-15.05
-16.87
-17.10
-16.52
-16.11
-16.32
-16.77
-16.43
-14.35
-10.25
-4.85
0.38
3.81
4.44
2.16
-2.29
-7.78
-13.00
-16.56
-16.89
-12.47
-2.33
13.27
32.48
52.05
68.30
78.31
80.71
75.50
63.18
43.72
16.29
-19.81
-63.50
-110.91
-155.68
-190.74
-210.55
-212.78
-198.73
-172.45
-139.02
-102.97
-67.22
-32.99
-0.29
31.29
61.74
90.28
115.27
134.81
147.53
153.27
153.27
149.38
143.11
134.78
123.51
107.93
87.28
62.12
34.46
7.13
-17.18
-36.76
-51.16
-60.94
-67.07
-70.38
-71.26
-69.73
-65.67
-59.14
-50.56
-40.68
-30.35
-20.24
-10.71
-1.78
6.69
14.74
22.01
27.76
31.16
31.57
28.97
24.18
18.67
13.81
10.00
6.23
0.21
-10.62
-27.75
-50.38
-74.96
-95.57
-104.98
-96.51
-66.17
-14.67
51.51
120.72
178.71
212.38
213.13
179.10
115.30
32.34
-55.76
-133.89
-188.12
-208.42
-191.86
-144.64
-81.54
-21.75
17.62
27.66
10.42
-22.84
-56.80
-77.96
-78.77
-58.89
-23.87
17.43
55.72
84.05
99.50
103.76
101.69
98.58
97.01
95.48
89.82
76.67
56.17
32.28
10.25
-6.66
-18.57
-27.69
-35.44
-40.19
-37.95
-25.19
-2.21
25.89
51.20
66.64
69.29
61.14
47.47
33.87
23.91
18.33
15.85
14.27
11.74
7.47
1.70
-4.51
-10.00
-14.03
-16.58
-18.13
-19.13
-19.49
-18.50
-15.30
-9.61
-2.13
5.56
11.67
14.96
15.16
12.78
8.46
2.18
-6.86
-19.91
-37.81
-60.18
-85.11
-109.58
-130.25
-144.51
-151.32
-151.24
-146.18
-138.48
-129.85
-120.83
-110.73
-98.25
-82.42
-63.31
-42.15
-20.82
-0.80
17.57
34.95
52.26
69.75
86.33
99.88
108.15
109.84
105.22
96.08
84.97
74.31
65.65
59.23
54.27
49.76
45.20
41.04
38.25
37.16
36.90
35.24
29.61
18.55
2.84
-14.69
-30.37
-41.47
-47.32
-49.21
-49.42
-49.77
-50.78
-51.62
-51.01
-47.93
-42.20
-34.41
-25.33
-15.39
-4.46
7.97
22.16
37.49
52.34
64.48
71.90
73.68
70.09
62.14
50.89
36.91
20.54
2.52
-15.34
-30.31
-39.64
-41.91
-37.91
-30.44
-23.15
-18.99
-19.20
-23.36
-30.32
-39.25
-49.96
-62.29
-75.14
-86.04
-91.80
-89.93
-80.00
-64.00
-45.54
-28.21
-14.12
-3.42
5.18
13.40
22.35
32.13
42.05
51.13
58.52
63.80
66.92
68.02
67.16
64.27
59.20
51.93
42.90
33.11
23.90
16.49
11.49
8.71
7.41
6.75
6.22
5.85
5.93
6.70
8.09
9.75
11.32
12.69
14.02
15.55
17.34
19.10
20.32
20.48
19.34
17.06
14.05
10.78
7.50
4.19
0.56
-3.57
-8.10
-12.51
-16.03
-18.00
-18.23
-17.05
-15.19
-13.41
-12.17
-11.61
-11.72
-12.44
-13.66
-15.07
-16.05
-15.81
-13.71
-9.61
-4.05
1.99
7.48
11.76
14.71
16.60
17.80
18.51
18.68
18.11
16.65
14.28
11.16
7.57
3.82
0.23
-2.97
-5.62
-7.70
-9.18
-10.06
-10.35
-10.12
-9.47
-8.57
-7.57
-6.56
-5.56
-4.46
-3.19
-1.71
-0.08
1.52
2.87
3.71
3.85
3.24
2.03
0.60
-0.56
-1.06
-0.83
-0.05
0.85
1.51
1.80
1.85
1.89
2.08
2.38
2.59
2.49
1.99
1.21
0.42
-0.09
-0.20
0.05
0.52
1.02
1.48
1.90
2.32
2.73
3.00
3.00
2.59
1.72
0.47
-0.95
-2.27
-3.17
-3.42
-3.00
-2.10
-1.10
-0.40
-0.28
-0.74
-1.65
-2.77
-3.96
-5.11
-6.05
-6.48
-5.99
-4.26
-1.26
2.60
6.56
9.81
11.81
12.45
11.99
10.86
9.35
7.57
5.45
2.91
0.05
-2.78
-5.07
-6.35
-6.45
-5.58
-4.28
-3.17
-2.61
-2.62
-2.88
-2.98
-2.60
-1.72
-0.54
0.67
1.62
2.23
2.53
2.63
2.65
2.58
2.32
1.63
0.28
-1.81
-4.39
-6.85
-8.42
-8.50
-6.93
-4.06
-0.60
2.74
5.45
7.32
8.33
8.54
7.98
6.75
5.02
3.04
1.07
-0.75
-2.34
-3.67
-4.65
-5.14
-5.12
-4.70
-4.12
-3.57
-3.10
-2.59
-1.98
-1.32
-0.86
-0.89
-1.46
-2.39
-3.23
-3.58
-3.38
-2.92
-2.67
-3.05
-4.23
-6.11
-8.51
-11.22
-14.08
-16.83
-19.00
-19.92
-18.99
-15.94
-11.11
-5.36
0.21
4.69
7.65
9.21
9.76
9.72
9.31
8.61
7.63
6.40
5.07
3.76
2.57
1.49
0.48
-0.45
-1.24
-1.88
-2.44
-3.07
-3.91
-5.00
-6.17
-7.19
-7.88
-8.21
-8.27
-8.20
-8.03
-7.62
-6.84
-5.61
-4.08
-2.57
-1.45
-1.01
-1.32
-2.22
-3.35
-4.35
-4.87
-4.67
-3.59
-1.66
0.93
3.81
6.56
8.78
10.20
10.69
10.23
8.86
6.73
4.17
1.73
-0.04
-0.74
-0.39
0.60
1.62
2.13
1.99
1.44
0.90
0.70
0.86
1.19
1.36
1.18
0.68
0.10
-0.29
-0.27
0.19
0.98
1.95
2.92
3.75
4.37
4.70
4.72
4.45
4.05
3.78
3.93
4.75
6.28
8.32
10.49
12.34
13.51
13.83
13.27
11.94
10.06
7.83
5.41
2.93
0.44
-1.99
-4.19
-5.81
-6.52
-6.20
-5.08
-3.74
-2.89
-3.07
-4.58
-7.41
-11.34
-15.93
-20.53
-24.31
-26.37
-25.99
-23.02
-18.03
-12.28
-7.23
-4.02
-3.06
-3.97
-5.90
-8.00
-9.77
-11.15
-12.38
-13.72
-15.34
-17.34
-19.82
-23.04
-27.16
-32.04
-36.98
-40.82
-42.31
-40.64
-35.80
-28.61
-20.43
-12.67
-6.42
-2.24
-0.20
-0.12
-1.65
-4.24
-7.13
-9.32
-9.69
-7.26
-1.44
7.73
19.39
31.99
43.57
52.26
56.80
56.95
53.50
47.91
41.74
36.06
31.19
26.87
22.67
18.58
15.10
13.03
12.88
14.51
17.05
19.35
20.53
20.29
19.00
17.29
15.70
14.38
13.10
11.47
9.24
6.45
3.46
0.79
-1.09
-1.93
-1.76
-0.86
0.34
1.41
2.06
2.22
2.00
1.65
1.39
1.33
1.46
1.65
1.78
1.72
1.46
1.05
0.65
0.39
0.41
0.74
1.26
1.74
1.91
1.61
0.88
-0.01
-0.79
-1.27
-1.47
-1.58
-1.74
-1.98
-2.18
-2.16
-1.84
-1.34
-0.91
-0.79
-1.06
-1.60
-2.16
-2.49
-2.50
-2.27
-1.96
-1.76
-1.76
-1.92
-2.14
-2.33
-2.43
-2.45
-2.44
-2.46
-2.52
-2.65
-2.95
-3.51
-4.43
-5.74
-7.36
-9.08
-10.70
-12.04
-13.10
-14.02
-14.98
-16.01
-16.95
-17.44
-17.14
-15.90
-13.90
-11.63
-9.64
-8.34
-7.78
-7.63
-7.32
-6.27
-4.14
-0.91
3.14
7.57
11.90
15.75
18.86
21.08
22.31
22.49
21.65
19.91
17.49
14.70
11.86
9.27
7.13
5.56
4.51
3.89
3.49
3.14
2.76
2.35
1.96
1.67
1.45
1.15
0.60
-0.39
-1.83
-3.56
-5.26
-6.60
-7.29
-7.26
-6.60
-5.57
-4.49
-3.62
-3.08
-2.87
-2.83
-2.79
-2.67
-2.45
-2.29
-2.55
-3.48
-5.03
-6.96
-8.92
-10.63
-12.00
-13.07
-14.02
-15.19
-16.67
-18.33
-19.92
-21.23
-22.19
-22.92
-23.42
-23.85
-24.75
-26.43
-28.77
-31.48
-34.02
-35.78
-36.35
-35.31
-33.19
-31.99
-32.83
-35.15
-37.16
-36.62
-32.13
-24.21
-14.15
-4.57
0.33
-0.74
-6.09
-13.23
-20.11
-25.65
-29.37
-29.02
-23.12
-14.85
-7.30
-2.95
-4.12
-10.63
-18.28
-19.21
-2.52
38.22
97.73
165.26
227.68
271.54
287.46
272.46
214.97
117.71
15.81
-72.57
-142.19
-185.55
-197.30
-176.36
-127.82
-62.91
5.79
65.04
101.22
109.62
94.41
63.68
26.48
-9.75
-40.17
-60.50
-69.06
-69.26
-64.08
-55.57
-46.57
-39.61
-35.91
-34.74
-32.51
-25.90
-15.18
-1.78
12.08
23.41
29.93
31.17
28.40
24.53
21.56
18.87
15.13
9.62
2.95
-2.53
-3.67
1.87
14.96
33.67
53.64
70.43
81.35
86.10
86.29
84.12
81.16
78.92
77.94
78.05
78.80
79.90
81.34
83.18
85.21
86.78
88.32
90.18
92.45
94.94
97.59
100.55
104.14
108.48
105.69
91.03
64.42
30.76
-3.48
-33.52
-57.13
-73.65
-83.39
-87.61
-86.81
-82.01
-74.78
-67.35
-60.97
-56.25
-53.31
-51.99
-52.29
-53.07
-53.27
-52.47
-51.17
-50.32
-50.96
-53.74
-56.65
-58.27
-56.87
-51.42
-42.10
-30.35
-18.53
-9.46
-5.82
-9.46
-20.96
-38.47
-58.24
-75.70
-87.17
-91.01
-88.01
-80.62
-71.68
-63.50
-56.89
-51.60
-47.06
-43.03
-39.68
-37.29
-35.93
-35.32
-35.21
-35.39
-35.99
-37.37
-39.84
-43.25
-46.81
-49.28
-49.38
-46.40
-40.47
-32.53
-23.96
-16.04
-9.55
-4.64
-1.01
1.85
4.36
6.82
9.42
12.21
15.24
18.41
21.46
23.97
25.52
25.86
25.12
23.79
22.64
22.36
23.31
25.38
28.13
30.93
33.29
34.95
35.98
36.75
37.79
39.70
42.89
47.34
52.53
57.49
61.13
62.69
62.07
60.00
57.77
56.83
58.24
62.36
68.67
75.91
82.39
86.49
87.24
84.63
79.68
73.93
68.61
63.99
59.10
52.05
40.77
23.90
1.47
-25.02
-52.48
-76.74
-93.74
-101.07
-99.40
-92.59
-86.48
-86.32
-94.53
-109.21
-125.04
-136.02
-138.37
-131.95
-119.24
-102.99
-84.09
-61.78
-34.42
-1.54
34.88
70.43
100.20
121.31
134.40
143.40
152.00
163.21
178.34
196.90
216.46
233.24
243.40
243.71
232.09
205.31
163.92
114.46
68.90
39.50
33.15
48.32
75.78
102.55
112.59
97.26
58.35
6.17
-48.50
-99.79
-147.13
-192.17
-235.78
-282.98
-335.71
-392.46
-448.55
-501.48
-552.07
-602.22
-652.08
-659.80
-598.33
-471.48
-313.96
-162.53
-38.89
50.81
109.71
145.74
168.39
176.81
173.82
161.93
145.91
128.13
108.45
85.81
59.66
29.73
-10.09
-58.46
-111.36
-147.93
-150.24
-112.81
-45.57
33.32
106.78
161.08
191.53
200.66
196.51
185.69
172.09
158.09
146.25
141.13
144.06
155.55
173.21
191.89
202.14
194.50
165.39
120.34
72.98
39.21
30.86
49.42
86.07
123.61
143.62
134.08
93.12
28.64
-45.62
-114.55
-165.75
-190.66
-185.83
-151.31
-91.73
-17.38
57.03
116.29
149.18
151.25
125.55
79.34
22.03
-31.33
-67.54
-83.00
-83.15
-75.75
-65.70
-54.69
-47.33
-44.03
-45.77
-54.23
-70.48
-94.17
-124.47
-161.74
-196.66
-222.89
-233.74
-224.42
-193.89
-145.35
-85.52
-23.42
32.21
75.12
101.87
114.00
115.44
110.40
102.20
93.64
87.14
86.67
94.59
110.62
131.90
151.88
161.68
153.90
127.36
88.96
52.57
32.89
37.82
64.72
101.06
129.84
137.72
119.78
75.88
13.88
-54.60
-117.93
-166.19
-191.73
-189.85
-158.36
-99.89
-23.86
55.15
120.88
160.14
166.77
142.94
96.55
38.11
-16.30
-52.70
-66.76
-64.55
-55.71
-47.00
-40.31
-38.73
-40.66
-45.06
-53.00
-66.23
-86.00
-112.66
-146.75
-179.19
-205.65
-223.83
-232.83
-231.36
-216.53
-185.27
-137.22
-76.96
-13.50
41.42
79.73
99.38
103.52
98.19
89.52
82.10
78.71
80.83
88.65
100.52
113.26
122.52
123.86
115.57
100.70
87.18
84.39
97.65
125.42
158.23
182.45
184.46
156.75
101.44
29.61
-43.17
-102.43
-135.73
-135.62
-101.56
-42.13
27.41
89.67
130.40
141.68
123.55
83.23
28.95
-24.65
-64.52
-85.56
-91.18
-88.05
-81.38
-73.57
-65.19
-59.99
-58.62
-62.62
-73.23
-90.05
-111.70
-137.42
-168.47
-198.95
-225.64
-244.01
-249.40
-237.51
-205.70
-155.99
-96.19
-37.66
9.52
39.88
54.84
59.76
61.88
66.15
74.17
84.94
96.36
107.28
117.56
127.73
137.80
147.79
160.20
178.12
203.82
237.79
273.20
302.21
316.60
310.11
271.57
203.66
121.86
46.13
-10.41
-45.79
-64.99
-74.31
-77.61
-76.16
-68.78
-56.20
-41.69
-29.59
-22.90
-21.45
-23.09
-24.81
-24.47
-21.05
-15.17
-9.41
-7.00
-10.06
-18.31
-29.93
-42.56
-54.33
-60.39
-61.20
-58.90
-55.93
-53.93
-53.04
-52.47
-51.08
-48.00
-42.45
-35.14
-27.25
-19.94
-13.86
-8.72
-3.74
2.06
7.76
14.75
23.06
31.73
39.82
46.74
52.58
57.78
62.84
68.18
73.70
78.88
82.14
82.36
79.40
74.26
68.55
63.77
61.08
60.58
61.87
62.25
59.30
51.79
39.85
24.22
4.55
-14.59
-32.05
-47.87
-65.70
-89.01
-119.71
-157.50
-200.34
-246.33
-293.74
-342.03
-371.98
-371.70
-340.24
-288.09
-229.65
-174.96
-128.52
-90.04
-57.66
-29.08
-6.00
9.68
17.01
17.28
14.12
10.21
7.59
7.12
9.45
13.24
18.15
25.20
33.02
44.46
58.71
73.57
86.97
98.45
107.67
115.07
121.04
125.38
128.47
128.39
124.37
116.71
105.94
91.10
69.84
38.88
-4.81
-56.32
-111.21
-161.89
-198.60
-211.92
-195.95
-150.71
-83.10
-9.78
59.60
115.66
152.52
168.62
166.51
151.70
130.16
109.21
94.36
88.35
88.64
90.78
91.99
90.66
85.92
76.77
61.73
39.65
11.52
-21.11
-52.51
-77.06
-90.86
-92.43
-78.23
-49.06
-9.98
31.72
68.56
96.44
114.43
123.19
124.59
118.86
104.18
78.17
39.20
-13.74
-78.49
-148.44
-216.21
-274.82
-318.59
-343.37
-345.91
-324.73
-281.96
-224.09
-161.54
-105.42
-63.51
-38.25
-27.46
-26.54
-31.20
-38.56
-47.06
-55.81
-63.73
-69.27
-71.14
-69.09
-63.80
-56.38
-48.20
-38.44
-25.79
-8.90
13.13
40.16
70.83
102.90
131.76
154.75
170.86
180.15
183.52
182.35
177.83
170.77
161.55
150.31
137.58
124.05
110.47
97.65
86.33
76.87
69.26
63.14
57.98
53.48
49.45
45.68
42.14
38.83
35.75
32.81
29.92
27.01
24.18
21.55
19.11
16.94
15.05
13.44
12.02
10.82
9.80
8.98
8.41
8.02
7.83
7.83
8.00
8.25
8.57
8.90
9.18
9.65
9.83
9.55
8.62
7.22
4.97
1.75
-2.39
-7.34
-12.91
-18.91
-24.97
-30.79
-36.05
-40.56
-44.11
-46.57
-47.96
-48.35
-47.96
-46.93
-45.50
-43.86
-42.26
-40.75
-39.42
-38.30
-37.39
-36.74
-36.32
-36.12
-36.15
-36.50
-37.04
-37.75
-38.62
-39.68
-40.96
-42.50
-44.37
-46.65
-49.51
-52.74
-56.29
-60.12
-64.20
-68.56
-73.19
-78.16
-83.56
-89.57
-95.90
-102.41
-109.07
-115.84
-122.75
-129.79
-136.99
-144.41
-152.22
-159.95
-167.29
-174.04
-179.92
-184.52
-187.20
-186.97
-182.23
-175.62
-167.82
-159.29
-150.37
-141.29
-132.15
-123.02
-113.91
-104.94
-96.45
-88.23
-80.37
-73.07
-66.40
-60.28
-54.36
-48.21
-41.50
-34.23
-26.27
-17.94
-9.74
-2.01
5.38
13.02
21.72
32.15
44.35
57.91
71.70
84.48
95.50
104.99
114.19
124.78
138.20
154.75
173.56
192.83
210.69
226.30
240.35
254.76
271.83
293.17
318.97
348.18
378.96
409.17
436.56
458.62
472.43
474.97
463.97
438.92
401.54
355.27
303.99
250.59
196.60
142.76
90.50
42.78
3.23
-26.23
-47.84
-68.39
-96.35
-137.02
-188.48
-240.50
-277.96
-287.23
-262.11
-207.07
-136.13
-68.14
-20.65
-4.24
-19.47
-57.01
-100.81
-133.27
-140.79
-117.92
-68.65
-4.14
61.59
116.27
151.96
165.54
157.85
132.64
95.95
55.53
19.59
-5.28
-16.14
-14.82
-6.84
1.31
4.98
3.35
-0.81
-2.90
1.13
13.03
31.47
52.29
69.52
77.30
72.19
55.35
33.13
15.25
11.09
25.40
55.83
93.82
128.43
150.76
156.78
147.34
126.25
98.06
66.94
36.78
11.64
-4.63
-9.69
-4.30
7.13
17.61
19.93
9.37
-14.69
-48.55
-85.83
-119.79
-145.75
-162.40
-171.51
-176.61
-181.42
-189.03
-201.75
-221.06
-246.83
-276.24
-303.22
-319.57
-317.70
-293.78
-249.56
-191.60
-128.47
-67.36
-12.24
35.76
76.72
110.38
135.94
152.81
161.45
163.40
160.45
153.79
143.82
130.83
115.70
100.48
88.04
80.89
79.91
83.58
88.16
88.82
81.34
63.73
37.30
6.69
-21.18
-39.30
-43.16
-32.66
-12.37
10.09
26.85
32.69
26.73
12.27
-5.06
-19.73
-28.31
-30.16
-26.68
-19.96
-11.75
-3.31
3.99
8.15
6.61
-2.62
-19.57
-41.39
-62.91
-78.21
-83.13
-77.06
-63.27
-47.45
-35.45
-31.27
-36.10
-48.34
-64.22
-78.55
-85.46
-79.43
-56.96
-18.34
31.33
82.75
125.07
149.55
152.60
136.89
109.91
80.77
56.95
42.39
37.42
40.10
47.61
57.06
65.61
70.63
69.92
62.56
49.60
33.93
19.48
9.77
6.35
8.00
10.94
10.04
0.54
-19.87
-49.47
-82.21
-109.28
-122.32
-116.89
-94.32
-61.07
-25.85
3.67
23.16
31.96
31.95
26.13
17.83
10.55
7.74
11.95
23.25
38.27
50.79
54.06
43.86
20.77
-9.90
-40.18
-62.38
-71.65
-67.41
-53.31
-36.03
-23.61
-23.68
-41.40
-77.59
-127.72
-181.93
-227.14
-250.72
-244.87
-209.76
-153.99
-91.42
-35.81
4.35
28.44
42.35
54.14
69.27
87.90
105.17
114.42
110.97
94.48
69.09
41.21
16.85
-0.62
-10.55
-14.11
-12.61
-6.54
4.24
19.54
37.07
52.03
58.35
51.48
31.51
4.47
-19.38
-29.95
-21.92
2.57
35.11
64.92
83.48
87.65
79.87
66.15
53.25
46.61
49.07
60.53
77.89
95.26
105.18
100.90
78.90
40.63
-7.58
-56.98
-99.54
-130.45
-148.99
-157.51
-159.60
-158.07
-153.95
-146.30
-132.90
-111.16
-79.30
-37.75
9.91
56.73
93.79
112.93
109.90
86.39
49.97
11.52
-18.45
-32.91
-29.75
-11.30
17.44
50.53
82.19
107.41
122.41
125.00
115.19
95.14
68.49
39.32
11.26
-12.92
-31.48
-43.83
-50.74
-54.31
-57.24
-61.47
-66.45
-68.61
-62.68
-44.68
-15.03
20.38
52.06
70.89
72.06
