1660326372.00
64.000000
-0.00
-0.00
-0.00
-0.00
-0.00
-0.00
-0.00
-0.00
-0.00
-0.00
0.00
0.01
0.01
-0.00
-0.03
-0.05
-0.05
0.00
0.13
0.36
0.66
1.01
1.37
1.72
2.06
2.40
2.79
3.24
3.80
4.42
5.06
5.66
6.20
6.68
7.15
7.68
8.31
9.14
10.09
11.04
11.88
12.56
13.14
13.76
14.65
15.96
17.91
20.32
22.90
25.38
27.58
29.57
31.68
34.32
37.81
42.54
48.15
54.10
59.83
64.97
69.58
74.14
79.34
85.71
93.76
103.00
112.62
121.73
129.77
136.75
143.30
150.75
157.77
166.64
177.95
191.79
206.97
220.57
228.25
225.36
208.53
176.87
132.76
80.05
23.07
-34.94
-92.44
-149.16
-205.23
-260.37
-313.74
-363.87
-409.83
-450.91
-486.50
-515.74
-537.23
-549.22
-549.96
-538.37
-514.21
-478.67
-433.88
-382.45
-327.02
-269.84
-212.63
-156.66
-102.95
-52.37
-5.90
35.58
71.43
101.35
125.50
144.38
158.69
169.15
176.37
180.75
182.57
182.07
179.51
175.23
169.65
163.18
156.15
148.81
141.30
133.69
126.02
118.33
110.69
103.16
95.80
88.68
81.83
75.25
68.95
62.95
57.25
51.86
46.78
42.03
37.59
33.45
29.61
26.07
22.81
19.83
17.11
14.67
12.48
10.54
8.83
7.35
6.07
4.97
4.05
3.27
2.62
2.09
1.65
1.30
1.01
0.79
0.61
0.47
0.37
0.28
0.22
0.18
0.15
0.13
0.12
0.12
0.13
0.14
0.16
0.18
0.21
0.25
0.28
0.32
0.37
0.41
0.45
0.50
0.55
0.60
0.66
0.71
0.78
0.85
0.92
1.00
1.09
1.19
1.31
1.43
1.57
1.72
1.90
2.09
2.31
2.56
2.85
3.16
3.46
3.75
4.04
4.31
4.61
4.95
5.37
5.86
6.41
7.02
7.66
8.32
9.00
9.71
10.50
11.38
12.34
13.37
14.43
15.45
16.43
17.36
18.28
19.20
20.11
20.91
21.40
21.34
20.50
18.76
16.13
12.75
8.90
4.76
0.50
-3.86
-8.41
-13.21
-18.25
-23.29
-27.98
-31.91
-34.80
-36.61
-37.65
-38.39
-39.32
-40.73
-42.61
-44.64
-46.42
-47.60
-48.05
-47.93
-47.57
-47.44
-48.13
-50.35
-54.48
-60.19
-65.96
-69.24
-67.18
-57.81
-40.99
-18.58
6.16
29.73
49.50
64.08
73.20
77.03
75.87
70.05
60.29
47.80
34.34
21.65
11.06
3.17
-2.13
-5.41
-7.54
-9.32
-11.34
-13.85
-16.77
-19.76
-22.35
-24.26
-25.48
-26.40
-27.61
-29.78
-33.38
-38.65
-45.34
-52.75
-59.48
-63.60
-63.02
-56.22
-42.81
-23.93
-1.93
20.26
40.03
55.64
66.33
72.11
73.35
70.60
64.48
55.84
45.71
35.20
25.26
16.46
8.94
2.42
-3.58
-9.51
-15.60
-21.89
-28.25
-34.63
-41.18
-48.48
-57.38
-68.77
-83.04
-99.57
-116.44
-130.65
-138.96
-139.03
-130.33
-114.47
-94.55
-74.07
-55.72
-40.92
-29.89
-22.35
-18.08
-17.03
-19.00
-23.24
-28.42
-32.97
-35.82
-36.89
-37.09
-37.94
-40.86
-46.58
-55.00
-65.30
-76.36
-87.14
-96.96
-105.60
-113.28
-120.55
-127.96
-135.67
-143.05
-148.55
-149.97
-145.08
-132.39
-111.75
-84.57
-53.48
-21.68
7.84
32.87
52.29
65.96
74.59
79.31
81.45
82.25
82.75
83.60
85.08
87.06
89.14
90.83
91.77
91.90
91.50
90.96
90.61
90.50
90.39
89.77
88.02
84.61
79.34
72.61
65.54
59.93
57.85
60.86
69.41
82.40
97.51
111.85
122.94
129.34
130.92
128.52
123.46
117.00
110.11
103.36
97.02
91.11
85.58
80.34
75.34
70.64
66.28
62.32
58.63
54.97
50.88
45.80
39.11
30.26
19.05
5.97
-7.61
-19.40
-26.69
-27.09
-19.42
-4.24
16.13
38.26
58.56
74.16
83.52
86.46
83.92
77.46
68.86
59.74
51.38
44.56
39.54
36.10
33.73
31.72
29.40
26.27
22.06
16.81
10.76
4.28
-2.43
-9.38
-16.88
-25.27
-34.46
-43.60
-51.04
-54.75
-53.06
-45.42
-32.71
-17.07
-1.15
12.71
23.05
29.40
31.94
31.10
27.30
20.84
12.14
1.79
-9.38
-20.65
-31.53
-41.98
-52.26
-62.71
-73.47
-84.28
-94.52
-103.51
-110.75
-116.15
-120.01
-122.91
-125.19
-126.67
-126.31
-122.40
-113.03
-96.90
-73.89
-45.40
-14.01
17.23
45.54
69.03
86.82
98.81
105.40
107.23
105.16
100.28
93.83
87.01
80.69
75.20
70.28
65.37
59.86
53.37
45.91
37.83
29.55
21.38
13.39
5.34
-3.03
-11.81
-20.61
-28.44
-33.88
-35.43
-32.05
-23.61
-11.07
3.84
19.07
32.88
44.24
52.87
58.97
62.91
64.94
65.16
63.69
60.72
56.62
51.75
46.39
40.65
34.53
28.10
21.64
15.64
10.71
7.28
5.47
4.89
4.82
4.34
2.76
-0.16
-3.96
-7.59
-9.60
-8.61
-3.74
5.12
17.17
30.99
44.86
57.33
67.52
75.27
81.03
85.54
89.46
93.07
96.21
98.42
99.19
98.15
95.18
90.43
84.26
77.18
69.77
62.69
56.51
51.58
47.84
44.67
41.02
35.68
27.77
17.19
4.89
-7.28
-17.04
-22.33
-22.04
-16.25
-6.27
5.83
17.82
27.88
34.87
38.46
38.95
36.98
33.31
28.49
22.76
15.98
7.82
-2.02
-13.45
-25.86
-38.19
-49.28
-58.17
-64.44
-68.27
-70.31
-71.45
-72.72
-75.01
-78.91
-84.42
-90.60
-95.68
-97.35
-93.54
-83.16
-66.63
-45.72
-22.96
-0.89
18.59
34.33
45.86
53.09
56.25
55.90
53.01
48.83
44.64
41.29
39.07
37.58
36.13
34.09
31.22
27.76
24.19
20.88
17.62
13.53
7.31
-2.14
-14.94
-29.78
-44.02
-54.40
-58.17
-54.08
-42.93
-27.17
-10.08
5.38
17.29
25.07
29.14
30.40
29.61
27.05
22.47
15.23
4.81
-8.82
-24.73
-41.11
-55.47
-65.25
-68.61
-65.08
-56.03
-44.82
-36.56
-37.15
-51.70
-82.40
-126.81
-177.54
-223.76
-254.36
-261.41
-242.48
-201.11
-145.35
-85.26
-30.57
10.88
34.20
37.97
24.44
-0.81
-29.95
-54.76
-68.66
-68.13
-53.00
-25.58
10.51
51.30
92.81
130.80
160.76
178.75
182.80
174.37
158.38
141.58
129.59
124.45
123.78
122.28
114.65
98.08
72.85
41.21
5.59
-32.05
-69.41
-102.76
-126.59
-134.95
-123.91
-93.50
-48.10
4.97
57.70
103.40
137.60
158.10
164.45
157.34
138.36
109.85
74.99
37.97
3.94
-21.63
-34.08
-31.20
-14.24
12.44
42.92
71.71
95.25
112.01
121.72
124.59
121.19
113.18
103.94
98.04
99.51
109.83
126.85
145.58
160.58
168.50
169.32
165.74
161.01
156.91
152.76
146.21
134.86
117.84
96.21
72.28
48.36
25.82
4.84
-15.17
-34.81
-54.30
-73.47
-92.22
-110.98
-130.79
-152.75
-177.21
-202.92
-227.05
-245.98
-256.80
-258.59
-252.94
-243.28
-233.43
-226.32
-223.30
-224.43
-229.24
-237.34
-248.46
-262.02
-276.68
-290.35
-300.74
-306.20
-306.38
-302.26
-295.80
-289.20
-284.27
-281.91
-281.80
-282.30
-280.65
-273.70
-258.77
-234.67
-202.18
-163.84
-123.23
-84.03
-49.30
-21.26
-1.36
9.51
11.05
3.64
-11.44
-32.15
-55.77
-79.27
-99.57
-113.78
-119.54
-115.55
-102.00
-80.79
-55.26
-29.44
-7.18
8.83
17.47
19.41
16.63
11.89
8.05
7.61
12.39
23.49
41.20
64.89
92.93
122.74
151.35
176.30
196.57
213.01
227.82
243.36
260.71
278.96
295.57
307.52
312.07
308.09
296.18
278.03
255.42
229.85
202.59
174.98
148.45
123.70
101.16
81.21
64.39
51.33
42.62
38.86
40.53
48.03
60.44
77.05
97.74
122.52
150.61
180.02
207.95
231.49
248.07
252.67
242.38
218.24
184.71
146.95
108.91
72.88
39.81
9.71
-24.47
-67.39
-117.73
-169.24
-215.96
-255.37
-287.83
-314.85
-337.85
-368.15
-412.64
-468.76
-526.46
-576.50
-615.07
-642.96
-662.56
-676.19
-699.00
-740.43
-797.63
-858.00
-909.68
-947.66
-972.68
-987.24
-908.70
-700.65
-395.92
-75.11
196.76
397.62
534.19
622.24
677.65
713.05
723.64
706.25
666.78
618.80
574.04
537.30
507.62
482.85
461.59
432.64
388.98
332.39
271.66
215.02
170.15
136.21
110.20
89.43
66.40
38.56
11.15
-5.49
-3.59
17.25
49.82
84.34
112.35
126.46
125.28
113.34
97.84
84.10
73.74
65.49
58.35
52.54
47.78
43.99
40.91
38.12
34.92
30.57
24.84
18.72
13.67
10.81
10.26
11.09
11.84
11.21
8.80
5.03
1.12
-1.68
-2.87
-2.86
-2.77
-3.66
-6.13
-9.85
-13.84
-16.99
-18.47
-17.95
-15.49
-11.55
-6.98
-3.21
-2.01
-4.71
-11.59
-21.05
-30.24
-36.05
-36.55
-31.81
-23.70
-14.68
-6.46
0.69
7.58
14.90
22.26
28.15
30.85
29.90
26.91
25.14
27.82
36.31
48.77
60.55
65.93
60.45
42.60
14.47
-18.91
-51.10
-75.80
-88.51
-87.33
-73.49
-50.86
-24.81
-0.54
18.41
30.98
38.24
42.08
43.76
43.09
38.90
30.26
17.78
4.16
-6.54
-10.56
-6.23
4.99
18.99
30.76
36.48
34.94
27.67
17.72
7.96
-0.09
-6.78
-13.64
-22.28
-33.44
-46.51
-59.53
-69.71
-74.60
-71.87
-60.48
-41.56
-18.86
1.64
13.13
10.21
-8.97
-41.52
-80.20
-115.66
-139.29
-145.81
-134.54
-109.17
-76.11
-42.53
-14.50
4.28
12.76
12.42
6.64
-0.21
-3.91
-1.48
8.13
23.77
42.55
60.57
74.12
80.66
79.43
71.49
59.09
44.85
31.19
20.10
13.22
11.79
16.26
25.62
36.79
44.75
43.50
27.72
-5.42
-54.87
-115.37
-178.34
-233.82
-273.17
-291.25
-287.70
-266.53
-234.25
-197.35
-160.32
-125.02
-91.61
-60.11
-31.50
-7.66
9.60
19.90
24.91
27.77
31.68
38.39
47.50
56.71
63.09
64.47
60.48
52.74
44.39
39.34
41.28
53.06
75.94
109.05
148.88
189.41
222.87
241.15
237.74
209.62
158.57
91.51
19.38
-45.19
-90.96
-110.91
-104.02
-75.08
-32.98
12.11
51.42
79.33
93.77
95.68
87.83
73.74
56.94
40.49
26.86
18.00
15.39
20.08
32.34
51.26
74.40
97.92
117.15
127.78
126.96
114.15
91.14
61.38
28.99
-2.22
-29.37
-50.96
-66.88
-78.54
-88.85
-101.76
-121.14
-149.24
-185.15
-224.28
-259.42
-283.11
-290.26
-279.91
-255.21
-222.06
-186.87
-154.83
-129.02
-110.49
-98.86
-92.75
-90.07
-88.02
-83.36
-72.90
-54.34
-27.07
7.38
45.46
82.38
113.42
135.33
147.20
150.64
149.16
146.99
148.17
155.74
171.15
193.87
220.97
247.08
265.13
268.14
251.58
215.48
165.06
109.45
58.76
20.89
-0.54
-6.34
-0.24
13.20
30.12
47.87
64.67
79.26
90.98
100.08
107.96
116.66
127.81
141.62
156.54
169.86
178.92
182.21
179.66
172.14
160.41
144.38
122.93
94.50
58.06
13.89
-35.98
-87.84
-136.75
-177.28
-204.60
-215.90
-211.61
-196.01
-176.41
-160.97
-155.71
-162.00
-175.90
-189.76
-195.25
-186.57
-162.32
-125.43
-81.49
-36.62
4.12
37.40
61.36
75.11
78.49
72.14
57.93
39.01
19.61
4.09
-4.24
-4.21
2.70
12.88
21.83
25.80
22.98
14.05
1.80
-9.60
-15.76
-13.12
-0.10
22.20
49.78
76.56
96.16
104.02
99.12
84.39
65.55
49.04
39.79
40.06
49.34
65.26
84.73
104.70
122.50
135.93
143.31
143.69
137.12
124.81
108.92
92.06
76.65
64.32
55.61
49.97
46.03
42.02
36.27
27.51
15.01
-1.45
-21.56
-44.39
-68.29
-90.95
-109.79
-122.67
-128.59
-128.07
-122.96
-115.72
-108.65
-103.29
-100.38
-99.99
-101.73
-104.81
-107.86
-108.88
-105.56
-96.06
-79.80
-58.14
-34.17
-11.92
4.91
14.14
15.69
11.43
4.28
-2.83
-7.91
-10.28
-10.41
-9.40
-8.44
-8.41
-9.82
-12.76
-17.05
-22.24
-27.72
-32.68
-36.13
-37.00
-34.35
-27.70
-17.35
-4.47
9.14
21.48
30.96
36.77
39.03
38.83
37.91
38.37
42.17
50.53
63.44
79.49
96.22
110.88
121.32
126.59
126.90
123.20
116.59
108.01
98.27
88.29
79.20
72.12
67.72
65.71
64.90
63.48
59.75
52.85
43.31
33.13
25.55
24.20
32.00
49.98
76.33
106.23
132.80
148.97
149.69
133.62
103.52
65.28
26.10
-7.49
-30.97
-42.39
-42.32
-33.40
-19.73
-5.99
3.57
6.37
2.14
-7.03
-17.58
-25.89
-29.63
-28.43
-23.65
-17.71
-13.10
-11.76
-14.75
-22.25
-33.78
-48.52
-65.36
-82.88
-99.16
-111.77
-117.93
-115.15
-101.98
-78.79
-48.05
-14.23
16.92
39.49
48.83
42.93
23.28
-5.26
-35.60
-60.36
-74.01
-74.32
-62.56
-42.52
-18.82
4.59
25.22
41.98
54.65
63.32
68.01
68.65
65.24
57.99
47.47
34.73
21.29
8.95
-0.62
-6.40
-8.55
-8.58
-8.84
-11.55
-17.46
-25.01
-30.70
-30.52
-22.12
-6.45
11.96
26.40
30.19
18.77
-9.27
-52.06
-104.92
-160.87
-211.33
-247.29
-261.39
-250.37
-216.71
-168.45
-116.72
-71.98
-40.70
-23.84
-17.80
-16.90
-16.19
-13.06
-7.47
-0.90
4.82
8.46
9.62
8.53
5.58
1.05
-4.89
-12.09
-20.30
-29.11
-37.98
-46.13
-52.46
-55.39
-53.04
-43.64
-26.34
-1.99
26.27
53.20
72.53
78.69
68.90
44.53
11.22
-22.59
-48.23
-59.44
-54.25
-35.19
-8.01
20.53
44.77
61.52
70.28
72.64
71.31
69.09
68.17
69.75
73.89
79.71
85.59
89.54
89.59
84.17
72.39
54.14
30.08
1.47
-29.99
-62.27
-93.10
-119.85
-139.81
-150.57
-150.67
-140.22
-121.16
-97.09
-72.65
-52.49
-40.31
-37.97
-44.95
-58.33
-73.27
-84.00
-85.15
-73.23
-47.70
-11.35
30.32
70.52
103.03
123.82
131.93
129.44
120.45
109.69
100.97
96.31
95.61
97.25
98.81
98.11
93.72
85.24
73.18
58.66
43.08
27.73
13.43
0.43
-11.40
-22.00
-30.38
-34.36
-30.79
-16.77
8.84
44.09
83.60
119.58
143.95
150.73
137.80
107.43
65.50
19.89
-21.46
-52.20
-68.67
-70.36
-59.75
-41.43
-20.92
-3.14
8.80
14.20
14.49
12.17
9.56
7.81
6.75
5.29
2.16
-3.34
-11.10
-20.40
-30.39
-40.73
-51.99
-65.63
-83.31
-105.86
-132.22
-159.10
-181.50
-194.24
-193.98
-180.70
-158.26
-133.53
-114.51
-107.89
-116.97
-140.55
-173.20
-206.65
-232.06
-242.40
-234.18
-208.29
-169.39
-124.44
-80.73
-44.01
-17.38
-1.04
7.21
10.84
13.39
17.60
24.98
35.90
49.89
65.99
82.88
98.98
112.58
122.21
127.09
127.70
125.94
124.90
128.03
138.16
156.47
181.92
211.25
239.54
261.29
271.52
266.67
245.15
207.52
156.69
97.87
38.22
-14.27
-52.71
-73.25
-76.37
-66.63
-50.88
-35.62
-24.87
-19.43
-17.72
-17.52
-17.46
-17.51
-18.31
-20.25
-22.71
-24.33
-23.77
-20.80
-16.81
-14.78
-18.28
-30.03
-50.71
-78.22
-108.08
-134.41
-151.46
-155.05
-143.64
-118.91
-85.71
-51.35
-24.03
-10.57
-14.15
-32.79
-59.68
-85.27
-100.51
-100.06
-83.87
-56.72
-25.97
1.25
20.31
29.83
31.17
27.17
20.94
15.07
11.50
11.45
15.50
23.43
34.12
45.67
55.71
61.99
62.97
58.14
48.16
34.70
20.36
8.45
2.62
6.17
21.16
47.54
82.73
121.84
158.70
187.21
202.66
202.56
186.93
158.22
120.83
80.51
43.35
14.59
-2.58
-7.86
-3.67
5.81
16.28
24.68
29.81
31.99
32.13
30.73
27.60
22.10
13.88
3.38
-8.25
-19.72
-30.36
-40.58
-51.80
-65.87
-84.34
-107.99
-136.62
-169.05
-202.89
-234.42
-258.64
-270.08
-264.35
-240.02
-199.78
-150.23
-99.96
-56.92
-26.05
-8.35
-1.52
-1.62
-4.75
-7.97
-9.42
-7.97
-2.90
5.94
17.92
31.47
44.37
54.40
60.19
61.69
60.20
57.81
56.64
57.97
61.85
67.17
72.21
75.47
76.38
75.63
75.04
76.84
82.69
93.09
107.34
124.14
142.53
162.48
184.62
209.31
235.40
259.78
277.87
285.19
278.91
258.81
226.94
186.77
142.13
96.74
54.13
17.62
-10.04
-27.36
-34.77
-34.51
-29.94
-24.30
-19.72
-16.80
-15.05
-13.69
-12.38
-11.49
-11.93
-14.66
-20.14
-27.96
-36.70
-44.31
-48.68
-48.53
-44.01
-36.83
-29.88
-26.58
-29.99
-42.21
-63.85
-93.86
-129.43
-166.28
-199.54
-225.16
-241.32
-249.35
-253.41
-258.50
-268.05
-281.87
-295.88
-303.75
-299.65
-280.49
-246.76
-201.70
-149.83
-95.80
-44.04
1.03
35.31
55.87
62.31
57.48
46.81
36.28
30.14
29.45
32.40
35.95
37.85
37.75
37.01
37.42
39.85
43.79
47.92
51.50
55.36
62.05
74.70
95.21
122.91
154.31
184.08
206.66
217.70
214.71
197.13
166.19
125.09
79.06
35.00
0.15
-19.90
-23.04
-11.18
10.60
36.02
59.55
77.39
87.48
88.84
81.19
65.03
42.09
15.57
-10.20
-30.86
-43.15
-45.73
-39.39
-26.40
-9.63
8.32
25.73
41.84
56.65
70.42
83.11
94.10
102.14
105.75
103.78
95.98
83.11
66.54
47.56
26.68
3.04
-25.39
-60.90
-104.53
-154.65
-206.27
-251.97
-284.21
-298.20
-294.05
-276.82
-254.59
-235.09
-222.69
-217.20
-214.87
-210.99
-202.39
-188.73
-171.95
-154.56
-138.03
-122.04
-105.16
-86.04
-64.61
-42.54
-22.42
-6.47
4.72
12.63
20.27
30.84
46.34
66.68
89.55
110.90
125.97
130.58
122.53
102.70
75.39
47.47
26.30
17.15
21.25
35.31
52.99
67.56
74.48
72.67
64.22
52.85
42.15
34.53
30.91
31.25
35.05
41.74
50.83
61.70
73.61
85.56
96.45
105.06
110.07
110.26
104.70
93.12
76.08
54.96
31.67
8.04
-14.84
-37.01
-59.57
-84.01
-111.27
-140.94
-170.92
-197.88
-218.17
-228.92
-228.77
-218.22
-199.40
-175.59
-150.48
-127.39
-108.44
-94.04
-82.91
-72.49
-60.16
-44.27
-24.90
-3.76
16.61
33.87
46.76
55.36
60.78
64.43
67.32
69.64
70.75
69.73
65.99
60.02
53.68
49.94
52.14
62.83
82.78
110.36
141.51
170.25
189.87
194.48
180.82
149.58
105.74
57.64
14.65
-15.50
-28.94
-26.45
-12.45
7.15
27.24
44.88
59.32
71.03
80.37
86.92
89.65
87.73
81.40
72.37
63.19
56.11
51.73
48.31
42.11
28.93
6.09
-25.84
-62.50
-96.60
-119.96
-126.12
-112.37
-80.71
-37.39
8.71
48.16
73.09
78.42
62.39
26.46
-24.98
-84.81
-143.91
-192.51
-222.47
-229.70
-215.68
-187.04
-152.93
-121.45
-96.73
-78.12
-61.81
-43.61
-21.39
4.08
30.06
53.55
72.65
86.88
96.67
102.55
104.74
103.31
98.52
91.17
82.56
74.08
66.68
60.57
55.51
51.34
48.62
48.74
53.61
64.77
82.49
105.20
129.37
150.12
162.26
161.58
146.06
116.60
77.07
33.42
-7.78
-41.15
-63.64
-75.09
-77.60
-74.45
-68.83
-63.05
-58.19
-54.22
-50.33
-45.45
-38.68
-29.72
-19.17
-8.38
0.90
7.23
10.05
9.90
8.23
6.71
6.53
7.82
9.55
9.74
5.84
-4.62
-23.29
-50.22
-83.41
-119.20
-153.53
-183.60
-209.04
-231.65
-253.70
-275.72
-295.22
-307.22
-306.45
-289.84
-258.05
-215.08
-166.52
-117.61
-72.02
-31.88
1.51
27.24
44.63
53.75
55.76
53.03
48.63
45.65
46.40
51.88
61.49
73.26
84.40
92.23
95.08
92.89
87.28
81.04
77.39
79.16
87.96
103.46
122.88
141.07
151.62
148.79
129.82
96.55
55.41
15.72
-13.09
-24.24
-15.28
11.81
51.76
97.84
143.38
182.94
212.88
231.58
239.46
238.57
232.02
223.13
214.69
208.31
204.29
201.64
198.52
192.80
182.60
166.83
145.41
119.12
89.20
56.88
22.75
-13.58
-53.33
-97.90
-147.77
-201.44
-255.07
-303.05
-339.67
-361.14
-367.11
-360.94
-348.29
-334.81
-323.73
-314.80
-304.76
-289.32
-265.27
-231.82
-190.55
-144.50
-96.96
-50.91
-8.97
26.42
53.00
69.29
75.26
72.70
64.90
55.63
48.16
44.56
45.50
50.60
58.69
68.20
77.35
84.39
87.95
87.51
83.76
78.88
76.21
79.59
92.08
114.43
144.08
175.18
199.92
210.93
203.87
179.06
141.63
100.08
63.78
40.31
33.50
42.65
63.19
88.28
111.01
126.39
132.42
130.11
122.51
113.15
104.84
99.04
95.88
94.68
94.45
93.99
91.86
86.35
75.72
58.66
34.82
4.96
-29.47
-66.91
-105.97
-145.19
-182.42
-214.26
-236.42
-244.90
-237.79
-216.68
-186.99
-156.91
-135.06
-127.89
-137.56
-161.26
-191.99
-220.65
-238.62
-240.16
-223.74
-192.04
-150.69
-106.41
-65.20
-31.28
-6.81
7.86
13.72
12.80
7.85
2.03
-1.71
-1.35
3.51
11.54
20.05
26.18
28.13
26.06
22.21
20.18
23.81
36.19
59.01
92.31
134.42
181.86
229.55
271.34
301.27
315.08
311.63
293.37
265.71
235.23
207.70
186.49
172.11
162.88
156.13
149.40
141.17
130.82
118.36
103.95
87.81
70.24
51.85
33.46
15.89
-0.39
-15.47
-30.02
-45.00
-61.30
-79.31
-98.70
-118.45
-137.15
-153.64
-167.60
-179.66
-190.82
-201.45
-210.33
-214.54
-210.41
-195.38
-169.80
-137.77
-106.52
-84.23
-77.23
-87.73
-112.66
-144.36
-172.77
-188.34
-184.84
-161.15
-121.24
-72.79
-24.51
16.29
45.36
61.87
67.62
65.83
59.93
52.83
46.61
42.37
40.22
39.31
38.08
34.86
28.70
19.90
10.05
1.32
-4.63
-7.28
-7.24
-5.24
-1.08
6.87
21.04
42.98
71.64
102.54
128.76
143.35
142.12
125.55
98.91
70.43
48.48
38.87
43.23
58.98
80.56
101.48
116.31
121.99
118.19
106.78
90.74
73.06
56.04
41.10
29.08
20.63
16.44
17.10
22.74
32.89
46.59
62.91
81.37
101.88
124.34
147.72
169.57
186.23
193.80
189.77
174.16
149.96
122.21
96.17
75.60
61.50
52.07
43.61
31.81
12.61
-17.22
-59.62
-114.36
-178.05
-243.92
-303.01
-346.90
-370.89
-375.74
-367.08
-352.47
-337.85
-325.40
-313.85
-300.76
-284.96
-267.60
-251.07
-236.95
-224.51
-210.87
-192.68
-168.25
-138.65
-107.32
-78.77
-56.52
-41.68
-32.35
-24.21
-11.82
9.48
41.78
83.27
127.97
166.88
190.59
192.49
171.42
132.65
86.40
44.59
16.99
8.30
17.40
38.55
63.94
86.16
99.91
102.63
94.39
77.40
55.44
33.25
15.59
6.13
6.54
16.07
31.99
50.49
67.81
81.10
88.65
89.87
85.35
77.03
68.37
63.66
66.46
77.72
94.53
110.48
117.85
110.40
85.31
43.48
-11.55
-74.80
-140.35
-201.17
-249.32
-277.26
-280.44
-259.61
-221.44
-176.56
-135.69
-105.88
-88.63
-80.61
-76.01
-69.57
-58.31
-41.95
-22.13
-1.16
18.98
37.22
53.37
67.82
80.86
92.29
101.27
106.44
106.45
100.59
89.37
74.81
60.26
49.78
47.11
54.48
71.68
95.52
120.18
138.32
143.16
130.82
102.02
62.42
21.04
-12.61
-31.67
-34.03
-22.52
-3.26
16.92
32.82
42.22
45.87
46.51
47.50
51.58
59.92
71.90
85.10
95.97
100.63
95.81
79.77
53.03
18.79
-17.33
-48.37
-67.90
-72.08
-61.07
-38.96
-12.15
13.00
32.23
44.10
49.42
49.63
45.54
36.77
22.14
0.26
-29.84
-68.59
-115.58
-169.14
-225.70
-279.59
-323.78
-351.59
-358.79
-344.93
-313.35
-269.78
-220.37
-170.08
-122.08
-78.07
-39.01
-5.58
21.73
42.94
58.71
70.23
78.96
86.29
93.36
100.91
109.21
118.01
126.57
134.04
140.07
145.38
151.96
162.40
178.66
200.58
225.12
246.76
259.18
257.20
238.33
203.32
155.66
100.72
44.81
-5.65
-44.95
-69.09
-76.72
-69.49
-51.59
-28.26
-4.21
17.51
35.69
50.22
61.27
68.73
72.28
71.76
67.34
59.44
48.54
34.94
18.87
0.50
-19.90
-42.09
-65.98
-91.73
-119.67
-149.84
-181.55
-212.86
-240.61
-260.91
-270.28
-266.94
-251.83
-228.82
-203.90
-183.62
-173.04
-174.08
-184.78
-199.78
-212.05
-215.00
-204.22
-178.39
-139.16
-90.39
-37.19
14.98
61.00
96.93
120.69
132.49
134.87
131.75
127.08
123.52
121.80
120.90
119.11
115.04
108.32
99.59
90.06
80.80
72.50
65.49
60.11
57.14
57.93
64.02
76.34
94.44
115.90
136.38
150.47
152.99
140.60
113.14
74.21
30.84
-8.11
-34.28
-42.17
-30.77
-3.61
32.69
70.66
104.21
129.74
146.05
153.56
153.34
146.66
135.03
120.41
105.21
91.74
81.60
75.11
71.33
68.64
65.55
61.26
55.76
49.54
43.06
36.39
29.12
20.47
9.43
-5.07
-23.97
-47.96
-77.18
-111.24
-149.22
-189.94
-232.04
-273.95
-313.51
-347.67
-372.66
-384.70
-381.24
-361.96
-329.05
-286.50
-238.71
-189.46
-141.42
-96.59
-56.79
-23.89
0.71
16.89
26.21
31.63
36.27
42.19
49.63
57.41
63.88
68.10
70.30
71.56
72.98
74.98
77.07
78.21
77.47
74.47
69.62
63.93
58.65
54.74
52.54
51.43
49.87
45.73
36.94
22.31
2.14
-21.59
-45.64
-66.50
-81.35
-88.78
-88.91
-82.83
-71.91
-57.27
-39.69
-19.92
0.86
20.94
38.28
51.16
58.82
61.75
61.55
60.21
59.48
60.35
62.83
66.14
68.98
69.91
67.68
61.65
52.14
40.51
28.89
19.56
14.15
13.11
15.68
20.32
25.40
29.88
33.60
37.06
41.10
46.36
53.18
61.57
71.45
82.77
95.42
109.12
123.21
136.67
148.26
156.97
162.27
164.43
164.26
162.79
160.91
159.05
157.07
154.38
150.20
143.98
135.82
126.76
118.69
113.99
114.73
121.91
134.84
151.17
167.42
179.80
185.29
182.10
170.19
151.28
128.29
104.56
82.85
64.77
50.36
38.57
27.26
14.72
0.31
-15.31
-30.95
-45.89
-60.16
-75.31
-93.53
-118.38
-152.40
-195.69
-245.09
-294.45
-336.08
-362.08
-367.68
-351.96
-320.72
-283.23
-249.07
-224.84
-212.29
-208.77
-208.13
-205.00
-195.38
-180.58
-164.13
-149.59
-139.00
-132.34
-128.79
-126.44
-125.40
-107.68
-60.81
17.31
115.40
215.66
304.67
369.86
416.35
448.43
467.95
472.16
457.90
427.28
384.59
336.07
287.51
243.76
205.69
172.64
141.37
109.12
75.08
40.48
8.11
-19.52
-40.38
-55.30
-66.07
-75.98
-87.85
-102.93
-120.80
-139.55
-156.98
-171.15
-182.00
-190.44
-198.56
-208.44
-221.51
-238.44
-259.28
-283.90
-311.75
-342.03
-372.76
-400.95
-423.18
-436.73
-440.55
-435.25
-422.33
-402.74
-376.21
-341.38
-296.98
-243.41
-183.52
-122.21
-64.78
-15.25
24.61
55.11
77.64
93.52
103.53
108.09
107.97
104.79
100.73
97.65
96.26
95.73
94.27
90.31
83.51
75.09
67.11
61.39
58.50
57.77
57.76
57.18
55.38
52.24
47.64
41.01
31.35
17.81
0.35
-19.72
-39.80
-56.65
-67.29
-69.79
-63.72
-50.06
-30.75
-8.06
15.95
39.70
62.10
82.40
100.04
114.48
125.22
131.90
134.44
133.13
128.62
121.86
113.88
105.58
97.51
89.78
82.24
74.66
66.94
59.26
51.96
45.30
39.25
33.38
26.95
19.25
10.01
-0.48
-11.37
-21.64
-30.57
-38.05
-44.59
-51.09
-58.44
-67.23
-77.62
-89.27
-101.22
-111.76
-118.42
-118.45
-109.56
-90.89
-63.63
-30.86
3.30
34.92
61.29
81.26
94.95
103.11
106.60
106.08
102.20
95.66
87.30
78.02
68.58
59.46
50.96
43.28
36.68
31.46
27.88
26.01
25.54
25.91
26.36
26.25
25.14
22.81
19.27
14.56
8.86
2.47
-4.16
-10.49
-16.18
-21.17
-25.81
-30.58
-35.83
-41.47
-46.88
-51.05
-52.73
-50.86
-44.61
-33.73
-18.49
0.15
20.70
41.37
60.51
76.97
90.36
100.97
109.56
117.03
124.11
131.14
137.93
143.76
147.58
148.22
144.83
137.13
125.62
111.38
95.83
80.36
66.19
54.32
45.47
39.80
36.71
34.57
31.07
24.01
12.25
-3.68
-21.69
-39.02
-53.44
-64.13
-71.91
-78.62
-86.09
-95.21
-105.54
-115.49
-122.79
-125.27
-121.40
-110.72
-93.91
-72.59
-48.85
-24.72
-1.74
19.17
37.56
53.13
65.64
74.81
80.57
83.20
83.45
82.43
81.29
80.87
81.39
82.26
82.23
79.77
73.67
63.61
50.44
36.00
22.49
11.67
4.26
-0.16
-2.74
-4.76
-7.11
-10.25
-14.28
-19.32
-25.52
-33.09
-42.15
-52.67
-64.57
-77.72
-91.94
-106.84
-121.70
-135.35
-146.38
-153.38
-155.31
-151.79
-143.15
-130.44
-115.10
-98.70
-82.51
-67.26
-53.10
-39.77
-26.92
-14.38
-2.19
9.44
20.33
30.40
39.58
47.73
54.60
59.96
63.74
66.20
67.83
69.10
70.07
70.28
68.85
64.94
58.14
48.85
38.15
27.50
18.29
11.43
7.15
4.86
3.28
0.69
-4.63
-13.92
-27.49
-44.57
-63.35
-81.38
-96.03
-104.82
-105.96
-98.66
-83.45
-62.23
-37.82
-13.41
8.27
25.38
37.04
43.14
44.03
40.51
33.89
26.08
19.33
15.67
16.16
20.55
27.24
33.97
38.64
39.98
37.78
32.68
25.62
17.38
8.30
-1.60
-12.41
-24.06
-36.17
-48.16
-59.51
-70.09
-80.25
-90.83
-102.82
-116.96
-133.38
-151.43
-169.71
-186.34
-199.41
-207.40
-209.50
-205.63
-196.31
-182.50
-165.32
-145.87
-125.13
-103.85
-82.54
-61.43
-40.59
-20.06
-0.01
19.01
36.09
50.13
60.22
65.96
67.60
65.92
61.91
56.41
49.97
42.91
35.55
28.31
21.78
16.50
12.68
10.04
7.83
5.11
1.13
-4.26
-10.59
-16.98
-22.57
-27.01
-30.75
-34.93
-40.96
-49.91
-61.93
-75.90
-89.67
-100.51
-105.92
-104.25
-95.04
-78.94
-57.36
-31.97
-4.30
24.29
52.56
79.23
102.83
121.92
135.37
142.67
144.14
140.82
134.19
125.69
116.45
107.08
97.77
88.55
79.45
70.61
62.19
54.23
46.57
38.80
30.39
20.93
10.31
-1.05
-12.17
-21.73
-28.44
-31.50
-30.95
-27.88
-24.11
-21.81
-22.83
-28.37
-38.67
-53.01
-69.73
-86.31
-99.61
-106.28
-103.67
-90.61
-67.99
-38.66
-6.65
24.05
50.57
71.62
87.26
98.27
105.28
108.48
107.64
102.59
93.73
82.24
69.86
58.37
48.94
41.82
36.50
32.07
27.87
23.78
20.10
17.24
15.32
13.96
12.48
10.23
6.85
2.31
-3.22
-9.54
-16.44
-23.75
-31.20
-38.45
-45.11
-50.92
-55.96
-60.82
-66.55
-74.32
-84.76
-97.37
-110.11
-119.80
-123.01
-117.35
-102.35
-79.65
-52.26
-23.44
4.37
29.96
53.02
73.56
91.38
106.06
117.16
124.67
129.07
131.21
131.89
131.56
130.33
127.99
124.31
119.16
112.58
104.78
96.09
86.92
77.66
68.62
59.95
51.59
43.29
34.72
25.56
15.63
4.94
-6.26
-17.56
-28.49
-38.63
-47.80
-56.10
-63.92
-71.84
-80.42
-89.89
-99.93
-109.44
-116.55
-119.07
-115.06
-103.68
-85.47
-62.35
-36.91
-11.56
12.07
33.27
51.82
67.64
80.37
89.48
94.63
95.99
94.37
90.94
86.91
83.10
79.84
76.96
74.10
70.93
67.34
63.37
59.17
54.74
49.81
43.90
36.46
27.20
16.28
4.39
-7.40
-18.01
-26.69
-33.32
-38.40
-42.89
-47.87
-54.26
-62.60
-72.80
-84.09
-94.93
-103.23
-106.78
-103.84
-93.74
-77.15
-55.84
-32.14
-8.26
14.24
34.58
52.44
67.67
79.87
88.50
93.07
93.54
90.58
85.45
79.63
74.34
70.15
66.84
63.73
60.03
55.26
49.37
42.70
35.69
28.65
21.69
14.67
7.34
-0.46
-8.78
-17.44
-26.11
-34.44
-42.24
-49.51
-56.51
-63.60
-71.21
-79.72
-89.23
-99.39
-109.10
-116.54
-119.50
-116.06
-105.25
-87.52
-64.71
-39.40
-14.10
9.33
30.03
47.85
62.98
75.49
85.27
92.05
95.68
96.36
94.62
91.18
86.71
81.56
75.70
68.98
61.40
53.35
45.60
39.03
34.16
30.86
28.29
25.23
20.47
13.36
3.98
-6.88
-18.03
-28.33
-37.00
-43.87
-49.38
-54.41
-60.01
-67.13
-76.33
-87.52
-99.84
-111.60
-120.53
-124.30
-121.12
-110.33
-92.60
-69.68
-43.92
-17.58
7.64
30.72
51.18
68.73
83.07
93.80
100.56
103.18
101.95
97.59
91.23
84.10
77.23
71.22
66.11
61.60
57.26
52.78
48.11
43.36
38.61
33.72
28.31
21.94
14.36
5.65
-3.72
-13.05
-21.69
-29.22
-35.63
-41.27
-46.76
-52.80
-60.02
-68.87
-79.44
-91.22
-103.01
-112.85
-118.41
-117.54
-109.00
-92.89
-70.80
-45.28
-19.17
5.19
26.39
43.96
58.07
69.13
77.53
83.46
87.03
88.35
87.59
85.03
81.04
76.06
70.55
64.96
59.60
54.66
50.08
45.71
41.28
36.58
31.50
26.01
20.17
13.99
7.45
0.48
-6.91
-14.64
-22.54
-30.34
-37.83
-44.88
-51.52
-57.98
-64.66
-72.17
-81.05
-91.54
-103.21
-114.74
-124.01
-128.60
-126.44
-116.58
-99.48
-76.90
-51.38
-25.48
-1.23
20.15
38.16
52.73
63.95
71.91
76.71
78.57
77.98
75.69
72.60
69.54
67.04
65.14
63.48
61.37
58.17
53.53
47.58
40.87
34.16
28.16
23.15
18.95
14.99
10.53
5.01
-1.79
-9.68
-18.22
-26.90
-35.30
-43.24
-50.63
-57.53
-64.04
-70.40
-76.88
-83.67
-90.64
-97.00
-101.27
-101.58
-96.27
-84.52
-66.76
-44.59
-20.29
3.84
26.01
45.10
60.56
72.19
80.00
84.21
85.38
84.39
82.28
79.94
77.88
76.01
73.78
70.46
65.49
58.80
50.93
42.81
35.45
29.46
24.80
20.75
16.15
9.98
1.70
-8.39
-19.40
-30.15
-39.76
-47.93
-55.02
-61.79
-69.03
-77.29
-86.62
-96.47
-105.61
-112.23
-114.25
-109.86
-98.12
-79.49
-55.74
-29.48
-3.30
20.86
42.00
59.79
74.13
84.76
91.25
93.33
91.15
85.50
77.65
68.95
60.46
52.76
45.91
39.72
34.06
28.96
24.63
21.22
18.60
16.17
12.96
7.94
0.51
-9.19
-20.33
-31.66
-42.08
-51.01
-58.58
-65.48
-72.61
-80.79
-90.41
-101.17
-111.97
-120.92
-125.65
-123.93
-114.45
-97.34
-74.26
-47.93
-21.25
3.50
25.02
42.95
57.38
68.52
76.48
81.34
83.30
82.81
80.44
76.84
72.49
67.73
62.71
57.54
52.35
47.37
42.88
39.01
35.67
32.31
28.05
21.94
13.30
2.10
-10.99
-24.75
-37.99
-49.97
-60.71
-70.94
-81.78
-94.18
-108.38
-123.56
-137.77
-148.28
-152.31
-147.88
-134.54
-113.57
-87.58
-59.71
-32.64
-7.99
13.80
33.08
50.39
65.98
79.66
90.89
99.08
103.77
104.80
102.28
96.65
88.65
79.27
69.69
61.01
54.01
48.88
45.11
41.63
37.09
30.37
20.91
8.95
-4.61
-18.52
-31.56
-42.96
-52.52
-60.72
-68.52
-77.02
-87.06
-98.65
-110.67
-120.90
-126.49
-124.89
-114.72
-96.35
-71.76
-43.92
-15.83
10.28
33.32
53.11
69.98
84.27
96.08
105.20
111.30
114.10
113.47
109.54
102.70
93.55
82.89
71.65
60.84
51.40
44.03
39.01
36.08
34.49
33.34
31.93
30.11
28.34
27.40
27.88
29.76
32.21
33.88
33.35
29.63
22.47
12.59
1.60
-8.17
-14.05
-13.63
-5.28
11.19
34.30
61.19
88.44
113.11
133.70
150.50
164.96
178.59
191.70
202.95
210.06
211.01
205.15
193.20
176.50
155.92
131.33
102.16
68.36
31.56
-4.96
-37.41
-63.25
-82.24
-96.27
-108.25
-120.69
-135.19
-151.84
-169.38
-185.87
-199.69
-210.18
-217.76
-223.63
-229.16
-236.17
-245.29
-255.40
-263.81
-267.52
-264.31
-253.09
-233.90
-207.59
-176.97
-144.65
-111.96
-78.72
-44.56
-10.19
22.05
48.25
63.58
61.47
37.56
-7.75
-68.45
-134.80
-196.32
-244.78
-276.24
-280.16
-254.98
-210.18
-162.00
-123.08
-96.81
-80.06
-68.38
-59.12
-51.57
-48.62
-50.03
-53.09
-53.88
-49.43
-39.11
-24.28
-6.95
11.78
31.19
50.15
69.80
92.21
118.46
147.30
175.66
200.28
219.35
232.35
240.81
247.62
255.35
264.90
275.29
284.64
291.44
295.14
295.35
291.77
284.21
272.78
258.13
241.62
224.99
209.65
196.03
183.14
169.22
152.72
132.97
110.38
86.12
61.68
38.47
17.58
-0.22
-14.64
-25.84
-34.57
-41.94
-49.15
-56.98
-65.73
-75.23
-85.30
-96.08
-108.12
-122.13
-138.34
-155.91
-172.63
-185.34
-190.70
-186.40
-171.98
-149.12
-121.09
-91.68
-64.08
-40.10
-19.96
-2.75
12.87
28.03
43.24
58.26
72.23
83.75
91.10
92.50
86.53
72.60
51.22
24.13
-6.06
-36.48
-64.55
-88.39
-106.74
-118.71
-123.62
-121.17
-111.97
-97.92
-82.15
-68.32
-59.40
-56.69
-59.56
-66.02
-73.97
-82.24
-90.95
-101.23
-114.43
-131.44
-152.38
-176.54
-202.41
-227.89
-250.47
-267.81
-278.35
-281.85
-279.38
-272.86
-264.21
-254.69
-244.81
-234.67
-224.42
-214.40
-204.80
-195.07
-183.65
-168.28
-146.91
-118.64
-84.39
-46.47
-7.88
28.94
62.95
94.75
126.29
160.39
200.05
247.63
303.51
364.89
425.27
475.52
506.63
513.05
495.17
459.23
414.81
370.91
332.88
301.50
274.41
248.42
221.44
192.90
163.24
133.21
103.84
76.80
54.66
40.34
35.91
41.60
55.19
72.66
89.57
102.37
109.33
110.47
107.13
101.15
94.43
88.49
84.43
82.80
83.46
85.56
87.63
88.00
85.36
79.31
70.58
60.77
51.69
44.73
40.45
38.51
38.02
38.12
38.30
38.68
39.83
42.50
47.16
53.63
60.84
67.02
70.22
69.18
63.93
55.86
47.11
39.39
33.14
27.18
19.43
8.14
-6.95
-24.22
-40.76
-53.54
-60.59
-61.56
-57.43
-49.79
-40.09
-29.31
-18.03
-6.84
3.38
11.33
15.55
15.02
9.62
0.50
-10.18
-19.86
-26.48
-29.23
-29.02
-27.79
-27.58
-29.60
-33.83
-39.31
-44.83
-49.58
-53.60
-57.90
-63.68
-71.70
-81.80
-92.99
-103.93
-113.47
-121.08
-126.92
-132.05
-137.52
-143.95
-151.35
-159.44
-167.87
-176.08
-182.96
-186.51
-185.42
-178.05
-162.98
-139.56
-108.65
-72.74
-35.24
0.52
32.07
55.19
67.06
66.93
56.28
37.57
12.86
-16.59
-50.48
-88.68
-135.36
-192.80
-259.29
-328.51
-391.80
-441.33
-472.06
-482.98
-476.08
-461.41
-448.13
-441.27
-440.70
-443.40
-446.63
-448.84
-450.16
-417.38
-332.04
-196.10
-34.07
122.53
252.42
348.88
415.25
454.73
475.53
475.68
451.92
403.91
335.72
253.61
162.83
77.12
10.85
-22.92
-22.36
6.02
50.09
97.35
138.59
169.45
188.22
199.60
207.02
208.54
201.74
186.26
164.96
142.88
124.82
115.18
114.31
119.47
125.10
126.47
121.45
110.82
97.33
84.25
74.36
68.60
65.97
63.87
59.74
52.17
41.28
28.46
15.51
3.83
-6.32
-15.62
-24.64
-33.00
-39.17
-41.18
-37.76
-29.27
-17.82
-6.60
1.54
5.36
5.65
4.53
4.21
6.00
9.84
14.63
18.89
21.25
20.82
17.06
9.81
-0.64
-13.17
-25.72
-35.55
-40.14
-38.21
-30.42
-19.36
-8.56
-1.24
0.85
-2.22
-8.84
-16.80
-24.15
-29.85
-33.89
-37.11
-40.88
-46.50
-54.78
-65.57
-77.77
-89.41
-98.33
-102.67
-101.36
-94.26
-82.04
-65.95
-47.60
-28.63
-10.50
5.83
20.00
32.10
42.41
50.97
57.41
61.04
61.27
58.18
52.67
46.36
40.94
37.42
35.82
35.15
34.08
31.64
27.65
22.67
17.50
12.57
7.74
2.45
-3.74
-10.78
-18.07
-24.88
-30.92
-36.51
-42.48
-49.61
-58.15
-67.45
-76.12
-82.46
-84.99
-82.93
-76.37
-66.13
-53.49
-39.71
-25.73
-12.05
1.20
14.02
26.33
37.80
47.89
55.97
61.56
64.55
65.29
64.52
63.11
61.75
60.71
59.76
58.33
55.96
52.52
48.44
44.44
41.22
39.01
37.41
35.55
32.48
27.64
21.04
13.33
5.38
-2.03
-8.54
-14.22
-19.46
-24.75
-30.52
-37.20
-45.03
-54.08
-63.92
-73.54
-81.38
-85.65
-84.85
-78.35
-66.55
-50.86
-33.25
-15.63
0.60
14.77
26.89
37.31
46.38
54.17
60.46
64.82
66.95
66.90
65.09
62.22
59.07
56.25
54.09
52.61
51.53
50.43
48.84
46.34
42.67
37.80
31.88
25.23
18.20
11.12
4.22
-2.31
-8.41
-14.08
-19.43
-24.70
-30.13
-36.00
-42.47
-49.65
-57.50
-65.79
-74.05
-81.46
-86.93
-89.32
-87.68
-81.64
-71.48
-58.10
-42.70
-26.47
-10.33
5.09
19.39
32.33
43.69
53.28
60.91
66.39
69.60
70.60
69.69
67.41
64.38
61.18
58.16
55.40
52.85
50.31
47.58
44.51
40.95
36.81
32.09
26.96
21.61
16.19
10.64
4.67
-2.00
-9.48
-17.49
-25.40
-32.54
-38.45
-43.14
-47.03
-50.78
-54.94
-59.86
-65.59
-71.85
-78.11
-83.51
-86.90
-87.04
-82.92
-74.19
-61.36
-45.71
-29.00
-12.82
1.75
14.35
25.10
34.31
42.18
48.67
53.61
56.82
58.28
58.17
56.84
54.66
51.95
48.98
45.86
42.70
39.56
36.48
33.40
30.29
27.04
23.59
19.92
15.96
11.66
6.99
1.96
-3.26
-8.46
-13.41
-18.02
-22.40
-26.83
-31.69
-37.29
-43.80
-51.14
-58.98
-66.65
-73.18
-77.36
-78.03
-74.44
-66.48
-54.82
-40.70
-25.56
-10.67
3.17
15.57
26.38
35.48
42.71
47.82
50.73
51.57
50.80
49.10
47.13
45.39
43.98
42.69
41.07
38.69
35.39
31.33
26.98
22.82
19.17
16.02
13.02
9.69
5.63
0.67
-5.11
-11.50
-18.32
-25.51
-33.12
-41.29
-50.13
-59.67
-69.92
-80.70
-91.70
-102.36
-111.89
-119.41
-124.22
-126.01
-125.10
-122.36
-119.06
-116.52
-115.84
-117.71
-122.31
-129.33
-138.06
-147.54
-156.81
-165.04
-171.67
-176.47
-179.43
-180.65
-180.31
-178.51
-175.17
-169.93
-162.11
-150.89
-135.58
-116.02
-92.81
-67.21
-40.79
-14.77
10.47
35.62
62.21
91.96
125.96
163.59
201.79
235.16
257.06
261.61
245.76
210.59
160.90
103.43
44.39
-12.51
-66.77
-120.32
-175.99
-235.85
-300.02
-366.22
-429.88
-484.97
-525.23
-545.72
-544.12
-521.40
-481.28
-429.04
-369.99
-308.40
-247.21
-188.26
-132.80
-81.64
-35.22
6.52
44.02
77.67
107.36
132.25
150.79
161.44
163.23
156.36
142.25
123.26
101.99
80.69
60.74
42.64
26.31
11.47
-1.91
-13.53
-22.76
-29.00
-31.97
-31.88
-29.45
-25.59
-21.13
-16.53
-11.68
-6.13
0.72
9.31
19.64
31.34
43.76
56.32
68.73
81.13
94.02
108.01
123.57
140.83
159.58
179.35
199.66
220.14
240.62
261.23
282.47
305.32
331.01
360.45
393.30
427.22
457.94
480.18
489.40
483.37
462.96
431.52
393.54
352.99
312.47
273.17
235.48
199.50
165.28
132.58
100.90
69.77
39.39
10.98
-13.44
-32.02
-44.07
-50.68
-54.34
-57.83
-63.00
-69.93
-77.05
-81.90
-82.29
-77.13
-66.81
-53.07
-38.38
-25.36
-16.08
-11.66
-12.07
-16.27
-22.69
-29.77
-36.39
-41.97
-46.30
-49.25
-50.66
-50.46
-48.87
-46.61
-44.74
-44.29
-45.91
-49.70
-55.38
-62.56
-70.93
-80.03
-88.88
-95.72
-98.30
-94.54
-83.38
-65.28
-42.00
-15.97
10.50
35.49
57.45
74.80
85.94
89.61
85.52
74.87
60.30
45.12
32.31
23.63
19.22
17.87
17.69
16.96
14.79
11.24
7.26
4.13
2.96
4.17
7.32
11.21
14.17
14.76
12.29
7.23
1.27
-2.98
-2.74
4.19
18.76
40.23
66.47
94.51
121.44
145.14
164.70
180.41
193.35
204.87
216.01
227.30
238.80
250.30
261.54
272.31
282.37
291.39
298.96
304.72
308.70
311.33
313.39
315.72
318.85
322.82
327.27
331.63
335.25
337.36
336.89
332.46
322.55
305.90
281.94
250.74
212.57
167.20
113.66
50.92
-20.53
-97.14
-171.95
-235.85
-280.33
-300.38
-295.97
-271.71
-234.83
-192.96
-152.65
-118.97
-95.80
-85.79
-89.92
-106.85
-132.81
-162.46
-190.58
-213.55
-230.13
-241.09
-248.47
-254.46
-260.74
-268.15
-276.60
-285.12
-292.06
-295.61
-294.41
-287.94
-276.62
-261.18
-242.12
-219.25
-191.88
-159.45
-122.34
-82.15
-41.39
-2.65
32.33
63.07
90.18
114.72
137.38
158.20
176.60
191.93
203.83
212.33
217.66
219.78
218.14
211.89
200.22
182.86
160.31
133.57
103.64
71.00
35.57
-2.79
-43.56
-85.14
-125.09
-160.84
-190.42
-212.58
-226.35
-230.37
-222.75
-201.93
-167.90
-123.26
-73.07
-23.51
20.17
55.12
81.43
101.22
117.24
131.54
144.91
156.99
166.99
174.28
178.79
180.94
181.25
179.78
175.77
167.79
154.25
134.18
107.85
76.90
43.97
12.07
-16.27
-39.41
-56.81
-68.91
-76.78
-81.74
-84.88
-86.86
-87.76
-87.40
-85.55
-82.43
-78.77
-75.76
-74.62
-76.17
-80.49
-87.02
-94.83
-103.01
-110.85
-117.78
-123.12
-126.00
-125.59
-121.62
-114.87
-107.31
-101.63
-100.41
-105.31
-116.65
-133.54
-154.25
-176.53
-197.67
-214.53
-223.82
-222.92
-210.79
-188.59
-159.53
-127.72
-96.69
-68.34
-42.77
-19.12
3.22
23.86
41.45
54.48
62.20
65.02
64.30
61.58
57.93
53.73
48.85
43.14
36.74
30.05
23.45
16.95
10.14
2.32
-7.22
-18.94
-32.94
-48.97
-66.44
-84.26
-100.66
-113.21
-119.30
-116.89
-105.37
-85.93
-61.27
-34.66
-8.87
14.60
35.60
54.74
72.61
89.16
103.51
114.21
119.89
119.70
113.72
102.93
88.90
73.27
57.37
41.99
27.58
14.50
3.19
-5.81
-12.28
-16.59
-19.90
-23.87
-30.18
-39.88
-52.88
-67.70
-81.66
-91.62
-94.85
-90.03
-77.72
-60.27
-40.87
-22.44
-6.68
6.22
17.08
26.92
36.21
44.71
51.68
56.48
58.86
59.04
57.40
54.21
49.49
43.03
34.66
24.35
12.41
-0.58
-13.83
-26.44
-37.70
-47.24
-55.25
-62.49
-70.05
-79.07
-90.23
-103.35
-117.16
-129.30
-136.82
-136.79
-127.19
-107.60
-79.41
-45.58
-9.82
24.48
55.00
80.86
102.33
120.13
134.77
146.21
153.90
157.22
155.92
150.37
141.52
130.60
118.74
106.78
95.24
84.41
74.50
65.64
57.79
50.61
43.42
35.31
25.49
13.51
-0.52
-15.90
-31.63
-46.76
-60.69
-73.47
-85.78
-98.45
-111.87
-125.35
-136.88
-143.54
-142.47
-131.98
-112.34
-85.64
-55.09
-23.87
5.71
32.46
56.02
76.26
92.86
105.33
113.25
116.66
116.06
112.32
106.36
98.96
90.61
81.55
71.86
61.71
51.38
41.35
32.12
24.06
17.10
10.62
3.58
-5.13
-16.18
-29.37
-43.64
-57.42
-69.23
-78.26
-84.63
-89.26
-93.45
-98.52
-105.52
-115.11
-127.37
-141.60
-156.03
-167.85
-173.76
-170.88
-157.79
-135.19
-105.67
-72.88
-40.29
-10.31
16.06
38.79
58.26
74.65
87.82
97.49
103.64
106.58
106.90
105.22
101.96
97.32
91.40
84.39
76.71
68.93
61.68
55.44
50.37
46.26
42.49
38.12
32.14
23.81
12.99
0.29
-13.13
-25.96
-37.35
-47.20
-56.20
-65.55
-76.51
-89.95
-105.94
-123.48
-140.42
-153.70
-160.05
-156.91
-143.39
-120.66
-91.64
-60.08
-29.38
-1.72
22.14
42.45
59.81
74.53
86.40
94.85
99.33
99.72
96.44
90.47
83.05
75.35
68.25
62.27
57.63
54.37
52.43
51.59
51.33
50.93
49.45
46.09
40.35
32.26
22.36
11.46
0.44
-10.00
-19.55
-28.31
-36.72
-45.44
-55.13
-66.27
-79.08
-93.66
-110.00
-127.91
-146.69
-164.74
-179.43
-187.50
-186.03
-173.49
-150.48
-119.67
-84.97
-50.26
-18.32
9.61
33.59
54.36
72.65
88.75
102.50
113.42
120.94
124.69
124.64
121.24
115.33
108.01
100.35
93.15
86.79
81.23
76.14
71.13
65.84
60.01
53.44
46.00
37.65
28.53
18.96
9.34
0.03
-8.87
-17.47
-26.05
-34.77
-43.61
-52.33
-60.70
-68.80
-77.12
-86.62
-98.18
-112.07
-127.37
-141.73
-151.85
-154.41
-147.25
-130.14
-104.85
-74.54
-42.52
-11.41
17.31
43.01
65.36
83.92
98.08
107.45
112.26
113.54
112.89
111.95
111.82
112.83
114.41
115.47
114.87
111.76
105.88
97.50
87.31
76.16
64.90
54.17
44.34
35.43
27.07
18.61
9.22
-1.79
-14.73
-29.34
-44.76
-59.75
-73.10
-84.03
-92.44
-98.97
-104.81
-111.42
-120.14
-131.71
-145.78
-160.65
-173.35
-180.31
-178.45
-166.28
-144.58
-116.08
-84.56
-53.43
-24.83
0.64
23.36
43.90
62.41
78.41
91.15
100.04
105.00
106.50
105.45
102.86
99.65
96.44
93.54
90.98
88.58
86.05
83.07
79.29
74.38
68.15
60.62
52.10
43.15
34.41
26.25
18.53
10.63
1.57
-9.48
-22.83
-38.07
-54.10
-69.54
-83.20
-94.53
-103.86
-112.33
-121.50
-132.63
-145.92
-159.95
-171.68
-177.23
-173.19
-157.89
-132.15
-99.05
-62.83
-27.52
4.21
31.36
54.16
73.29
89.21
101.89
111.08
116.66
118.87
118.35
115.84
111.98
107.20
101.72
95.72
89.38
82.89
76.36
69.88
63.42
56.94
50.38
43.61
36.41
28.43
19.30
8.79
-2.94
-15.40
-27.83
-39.54
-50.11
-59.59
-68.35
-77.03
-86.36
-97.10
-109.88
-124.88
-141.40
-157.51
-170.09
-175.51
-170.77
-154.74
-128.76
-96.22
-61.47
-28.28
1.12
26.15
47.30
65.11
79.67
90.48
97.06
99.41
98.30
95.12
91.31
87.89
85.14
82.69
79.86
76.06
71.04
65.04
58.53
51.99
45.62
39.23
32.23
23.98
14.00
2.30
-10.63
-24.00
-36.98
-49.00
-59.93
-70.07
-80.03
-90.58
-102.57
-116.64
-132.90
-150.51
-167.30
-180.00
-185.01
-179.56
-162.90
-136.66
-104.33
-70.03
-37.07
-7.17
19.45
43.28
64.73
83.55
99.03
110.54
117.99
121.95
123.41
123.33
122.28
120.28
116.98
111.96
105.04
96.53
87.20
77.99
69.63
62.21
55.05
46.90
36.52
23.25
7.39
-9.88
-26.94
-42.41
-55.60
-66.82
-77.08
-87.83
-100.40
-115.57
-133.12
-151.55
-168.12
-179.31
-181.75
-173.26
-153.71
-125.10
-90.94
-55.08
-20.52
11.22
39.99
66.30
90.50
112.20
130.36
143.76
151.59
153.93
151.72
146.42
139.45
131.75
123.55
114.63
104.72
93.84
82.56
71.77
62.25
54.28
47.33
40.26
31.72
20.82
7.52
-7.25
-22.01
-35.36
-46.65
-56.21
-65.24
-75.32
-87.87
-103.64
-122.42
-142.90
-162.66
-178.48
-186.87
-184.95
-171.40
-146.97
-114.31
-77.20
-39.36
-3.50
29.04
58.02
83.70
106.24
125.37
140.53
151.10
156.74
157.62
154.43
148.28
140.41
131.93
123.51
115.35
107.29
99.10
90.77
82.50
74.54
66.88
59.05
50.17
39.30
25.92
10.23
-6.78
-23.72
-39.26
-52.60
-63.73
-73.28
-82.38
-92.25
-104.04
-118.52
-135.83
-155.01
-173.80
-188.78
-196.09
-192.58
-176.88
-149.96
-114.87
-75.73
-36.51
-0.01
32.47
60.84
85.55
107.02
125.22
139.71
149.90
155.31
155.92
152.27
145.49
136.96
128.02
119.60
112.05
105.27
98.89
92.56
86.02
79.06
71.49
63.04
53.47
42.69
30.89
18.52
6.09
-5.98
-17.55
-28.77
-39.90
-51.22
-62.84
-74.77
-87.07
-100.03
-114.29
-130.54
-149.05
-168.93
-187.85
-202.20
-207.98
-202.16
-183.74
-154.27
-117.34
-77.31
-38.01
-1.86
30.31
58.71
83.83
105.87
124.55
139.28
149.53
155.17
156.47
154.14
149.04
142.12
134.22
126.06
118.19
110.95
104.37
98.16
91.82
84.77
76.56
67.07
56.52
45.35
33.95
22.47
10.78
-1.43
-14.39
-28.05
-42.06
-55.83
-68.75
-80.43
-90.80
-100.26
-109.66
-120.21
-133.15
-149.09
-167.28
-185.21
-198.84
-203.70
-196.50
-176.38
-145.40
-107.75
-68.17
-30.44
3.54
33.55
60.23
84.08
104.96
122.21
135.09
143.28
146.98
146.82
143.56
137.95
130.67
122.37
113.70
105.25
97.44
90.46
84.22
78.42
72.61
66.34
59.30
51.40
42.81
33.79
24.48
14.83
4.52
-6.84
-19.36
-32.78
-46.46
-59.65
-71.85
-83.06
-93.90
-105.47
-119.09
-135.69
-155.21
-175.96
-194.51
-206.29
-207.00
-194.20
-168.33
-132.75
-92.56
-52.80
-16.92
13.83
39.94
62.53
82.38
99.38
112.88
122.10
126.80
127.38
124.83
120.31
114.87
109.19
103.57
97.94
92.09
85.78
78.91
71.61
64.13
56.77
49.65
42.70
35.50
27.51
18.20
7.27
-5.17
-18.58
-32.19
-45.18
-56.98
-67.50
-77.07
-86.51
-96.92
-109.50
-125.14
-143.96
-164.62
-184.15
-198.37
-202.98
-195.15
-174.64
-144.03
-107.76
-70.51
-35.69
-4.65
22.88
47.81
70.62
90.87
107.49
119.34
125.94
127.70
125.78
121.66
116.60
111.38
106.18
100.87
95.23
89.31
83.44
78.01
73.11
68.26
62.35
54.08
42.43
27.25
9.44
-9.30
-27.05
-42.34
-54.62
-64.38
-72.86
-81.54
-91.77
-104.37
-119.42
-136.11
-152.57
-166.02
-173.11
-170.90
-157.81
-134.36
-103.15
-68.11
-33.19
-1.31
26.17
49.10
67.80
82.36
92.42
97.60
98.06
94.80
89.50
83.93
79.22
75.50
72.08
67.96
62.57
56.16
49.69
44.33
40.71
38.47
36.25
32.25
25.08
14.37
0.99
-13.31
-26.68
-37.91
-46.83
-54.33
-61.98
-71.43
-83.90
-99.62
-117.42
-134.73
-147.99
-153.60
-149.05
-133.90
-110.00
-80.86
-50.40
-21.72
3.59
25.32
43.92
59.71
72.52
81.83
87.29
89.12
88.20
85.70
82.65
79.53
76.35
72.84
68.86
64.55
60.30
56.51
53.16
49.73
45.22
38.55
28.97
16.54
2.14
-12.75
-26.59
-38.46
-48.46
-57.74
-68.07
-81.12
-97.63
-116.78
-136.11
-151.89
-160.17
-157.91
-144.03
-119.70
-88.00
-52.86
-17.91
14.37
42.89
67.59
88.75
106.46
120.37
129.86
134.40
133.90
128.96
120.70
110.54
99.90
89.87
81.05
73.47
66.69
60.02
52.68
44.14
34.17
22.77
9.85
-4.83
-21.68
-40.99
-62.52
-85.43
-108.34
-129.60
-147.45
-160.02
-165.29
-161.27
-146.66
-121.70
-88.71
-51.90
-16.26
14.01
36.78
52.41
63.16
71.90
80.93
91.20
102.20
112.48
120.45
125.02
126.04
124.14
120.31
115.31
109.33
102.14
93.46
83.48
73.03
63.28
55.11
48.52
42.47
35.33
25.63
12.78
-2.59
-18.96
-34.56
-48.23
-59.81
-70.30
-81.48
-95.30
-113.22
-135.59
-161.24
-187.33
-209.67
-223.64
-225.46
-213.44
-188.59
-154.37
-115.43
-76.10
-39.20
-5.61
25.11
53.80
80.82
105.62
127.13
144.19
156.13
163.08
165.81
165.61
163.81
161.49
159.20
156.78
153.49
148.43
140.91
130.79
118.53
104.87
90.40
75.36
59.57
42.77
24.99
6.73
-11.13
-27.60
-42.04
-54.45
-65.51
-76.42
-88.59
-103.27
-121.14
-141.87
-163.87
-184.30
-199.61
-206.31
-202.05
-186.29
-160.48
-127.54
-90.95
-53.76
-18.00
15.47
46.57
75.42
101.93
125.51
145.17
159.71
168.19
170.22
166.27
157.63
146.17
133.90
122.48
112.90
105.46
99.87
95.53
91.74
87.77
82.93
76.65
68.52
58.42
46.54
33.39
19.67
6.08
-6.85
-18.91
-30.32
-41.65
-53.68
-67.17
-82.65
-100.37
-120.21
-141.63
-163.48
-183.76
-199.66
-208.08
-206.49
-193.94
-171.50
-142.08
-109.39
-76.62
-45.50
-16.15
12.38
41.07
70.14
98.62
124.73
146.40
162.06
171.02
173.62
171.00
164.69
156.25
146.97
137.81
129.37
121.85
115.05
108.35
100.79
91.45
79.83
66.15
51.24
36.05
21.11
6.08
-10.07
-28.48
-49.68
-73.07
-97.06
-119.60
-138.99
-154.43
-166.23
-175.58
-184.07
-193.15
-203.50
-214.57
-224.38
-229.88
-227.84
-215.97
-193.81
-163.01
-126.79
-88.79
-52.01
-18.13
12.43
40.00
65.07
87.80
107.87
124.67
137.47
145.75
149.39
148.79
144.84
138.78
131.90
125.33
119.79
115.54
112.30
109.33
105.65
100.31
92.74
82.93
71.49
59.29
47.12
35.33
23.74
11.86
-0.78
-14.33
-28.50
-42.71
-56.31
-68.78
-79.94
-90.03
-99.70
-110.03
-122.15
-136.71
-153.09
-169.02
-180.76
-184.17
-176.16
-155.97
-125.53
-88.81
-50.39
-14.04
18.13
45.56
68.61
87.74
103.08
114.44
121.71
125.04
124.96
122.22
117.53
111.45
104.37
96.51
88.02
79.03
69.73
60.41
51.48
43.31
36.13
29.79
23.66
16.85
8.48
-1.88
-13.96
-26.88
-39.54
-51.08
-61.19
-70.15
-78.63
-87.42
-97.22
-108.72
-122.39
-138.25
-155.32
-171.32
-182.71
-185.61
-177.15
-156.70
-126.33
-90.17
-52.91
-18.24
12.10
38.18
60.97
81.26
99.01
113.39
123.47
128.81
129.81
127.55
123.32
118.22
112.78
106.96
100.35
92.54
83.38
73.20
62.70
52.71
43.73
35.68
27.88
19.31
9.14
-2.92
-16.44
-30.53
-44.29
-57.26
-69.54
-81.70
-94.57
-108.86
-125.10
-143.56
-163.97
-185.22
-205.08
-220.17
-226.70
-221.61
-203.75
-174.50
-137.52
-97.47
-58.56
-23.40
7.34
34.28
58.39
80.11
99.01
114.05
124.20
129.01
128.90
125.02
118.86
111.73
104.41
97.17
89.92
82.63
75.42
68.63
62.56
57.15
51.82
45.50
36.99
25.44
10.77
-6.15
-23.76
-40.31
-54.60
-66.35
-76.30
-85.84
-96.52
-109.61
-125.74
-144.74
-165.37
-185.30
-201.22
-209.48
-207.08
-192.70
-167.28
-133.75
-96.14
-58.15
-22.29
10.52
40.55
68.47
94.56
118.35
138.71
154.31
164.27
168.50
167.79
163.57
157.37
150.40
143.31
136.16
128.70
120.62
111.75
102.22
92.31
82.29
72.18
61.71
50.35
37.55
23.10
7.24
-9.30
-25.65
-41.11
-55.45
-68.96
-82.26
-96.04
-110.85
-127.13
-145.08
-164.46
-184.23
-202.22
-215.19
-219.60
-212.65
-193.44
-163.39
-125.86
-84.96
-44.31
-6.14
28.81
60.71
89.86
116.19
139.03
157.49
170.77
178.54
181.01
178.92
173.34
165.47
156.44
147.15
138.19
129.73
121.61
113.39
104.57
94.78
83.95
72.32
60.35
48.41
36.61
24.66
12.04
-1.68
-16.64
-32.48
-48.48
-63.83
-77.95
-90.78
-102.78
-114.91
-128.42
-144.39
-163.20
-184.01
-204.37
-220.50
-228.06
-223.55
-205.53
-175.26
-136.34
-93.50
-50.95
-11.30
24.82
58.04
89.22
118.37
144.32
165.09
178.86
184.84
183.81
177.88
169.67
161.40
154.12
147.65
141.10
133.64
125.10
116.10
107.59
100.16
93.57
86.70
78.07
66.47
51.57
34.11
15.52
-2.56
-18.93
-33.16
-45.71
-57.64
-70.30
-84.93
-102.41
-122.92
-145.66
-168.59
-188.47
-201.29
-203.32
-192.31
-168.38
-134.07
-93.58
-51.41
-11.03
25.68
58.24
86.77
111.16
130.80
144.78
152.52
154.26
151.10
144.69
136.64
128.04
119.24
110.01
99.98
89.13
78.00
67.51
58.47
51.00
44.18
36.29
25.44
10.43
-8.67
-30.49
-52.87
-73.74
-91.89
-107.27
-120.98
-134.71
-150.13
-168.23
-188.80
-210.13
-229.08
-241.65
-244.03
-233.79
-210.70
-176.95
-136.30
-92.94
-50.17
-9.86
27.49
61.96
93.45
121.16
143.80
160.12
169.57
172.66
170.74
165.47
158.27
149.99
140.93
131.25
121.23
111.39
102.30
94.13
86.41
78.04
67.68
54.27
37.63
18.49
-1.64
-20.93
-37.91
-51.89
-63.33
-73.71
-85.19
-99.85
-118.82
-141.47
-165.06
-185.18
-196.83
-196.03
-181.18
-153.68
-117.39
-77.22
-37.50
-0.77
32.30
62.29
89.87
115.01
136.83
154.01
165.48
170.85
170.61
165.75
157.54
147.09
135.27
122.71
109.91
97.36
85.63
75.28
66.53
59.05
51.75
43.05
31.40
15.98
-2.86
-23.68
-44.47
-63.41
-79.46
-92.68
-104.13
-115.47
-128.53
-144.68
-164.14
-185.54
-205.74
-220.52
-225.73
-218.76
-199.52
-170.48
-135.78
-99.81
-65.91
-35.79
-9.75
12.68
31.92
48.01
60.53
68.75
71.90
69.41
61.00
46.72
27.02
2.56
-25.80
-56.92
-89.33
-121.08
-149.98
-173.94
-191.65
-203.03
-209.35
-212.76
-215.39
-218.53
-222.15
-225.04
-225.41
-221.62
-212.73
-198.60
-179.64
-156.51
-129.81
-100.04
-67.70
-33.37
2.41
39.18
76.92
116.10
157.70
202.79
251.91
304.40
357.91
408.46
451.10
481.01
494.58
490.09
467.79
429.43
377.70
315.73
246.89
174.57
101.91
31.40
-35.70
-99.61
-161.88
-225.02
-292.03
-365.73
-447.80
-537.45
-630.31
-718.44
-791.82
-841.31
-861.59
-852.88
-820.37
-771.64
-713.56
-650.17
-582.60
-510.61
-434.43
-355.83
-277.80
-203.29
-134.05
-70.35
-11.57
42.79
92.45
136.26
172.66
200.68
220.49
233.64
242.63
250.16
258.29
267.88
278.54
289.08
298.23
305.24
310.23
314.01
317.75
322.50
329.13
338.26
350.30
365.19
381.97
398.43
411.31
417.23
413.92
401.22
381.49
358.39
335.42
314.55
295.91
278.39
260.66
241.96
222.24
202.10
182.01
162.18
142.96
125.39
111.34
103.09
102.30
109.23
123.01
141.48
161.93
181.87
199.71
214.79
227.13
236.97
244.55
251.83
260.33
270.45
281.11
290.36
296.29
297.85
294.93
288.25
282.47
281.72
288.06
300.93
317.99
336.51
353.82
367.07
373.43
376.03
378.03
381.01
384.00
384.46
380.16
369.98
353.69
331.82
312.60
303.04
305.93
318.73
335.84
352.38
366.15
377.45
344.44
245.12
82.80
-112.41
-301.42
-457.06
-570.30
-644.54
-688.27
-710.44
-711.55
-692.05
-655.42
-608.58
-559.83
-515.59
-479.05
-450.98
-431.02
-413.20
-392.79
-369.24
-345.10
-324.28
-309.55
-301.73
-300.43
-305.04
-311.79
-314.39
-311.64
-304.49
-294.62
-283.30
-270.94
-258.03
-245.47
-232.85
-220.19
-208.83
-200.41
-196.15
-195.52
-195.33
-190.50
-175.87
-148.27
-109.01
-64.42
-22.82
8.74
27.25
34.40
34.71
32.88
31.67
31.35
30.53
28.04
23.71
18.19
12.35
6.74
1.20
-4.18
-9.54
-14.74
-19.26
-22.06
-21.89
-17.53
-8.43
4.81
20.40
35.76
48.72
58.16
64.41
68.69
72.20
75.53
78.71
81.63
84.63
88.28
92.52
95.84
95.46
88.51
73.61
51.84
26.27
0.70
-21.79
-39.46
-51.37
-56.77
-55.22
-47.80
-38.36
-33.53
-40.07
-61.28
-94.52
-131.32
-160.54
-173.02
-164.99
-137.83
-99.07
-59.11
-27.64
-10.71
-9.53
-20.68
-37.50
-52.09
-57.73
-51.18
-33.20
-7.96
18.66
41.24
56.41
63.37
63.07
56.83
45.31
28.67
7.23
-17.50
-42.44
-63.36
-76.02
-77.63
-67.73
-47.80
-20.08
13.57
51.66
92.13
131.12
162.78
180.69
180.53
162.73
133.30
102.01
78.94
70.95
79.66
101.73
130.59
158.47
179.00
188.19
184.37
167.88
140.63
105.76
67.29
28.98
-6.75
-38.00
-63.43
-82.63
-95.70
-102.83
-103.63
-96.84
-81.21
-57.24
-26.03
10.19
47.56
81.86
109.97
131.14
146.67
158.20
165.34
167.41
163.56
153.06
136.80
117.69
94.10
65.58
41.61
23.78
5.95
-18.14
-54.30
-106.19
-173.79
-251.99
-332.51
-405.56
-463.34
-494.51
-492.08
-459.08
-407.96
-360.10
-321.72
-290.64
-262.20
-232.85
-202.03
-171.30
-142.88
-117.41
-93.15
-65.93
-33.08
5.98
49.61
95.58
141.58
185.24
224.41
257.34
283.48
302.01
312.91
317.31
317.34
314.92
310.58
303.67
293.25
279.40
262.54
243.42
222.70
200.39
175.65
147.31
114.57
77.09
34.86
-12.86
-66.64
-125.25
-184.35
-236.23
-271.43
-281.73
-263.27
-218.59
-156.84
-91.44
-36.40
-2.68
4.39
-14.00
-50.94
-95.90
-137.42
-165.69
-174.49
-162.10
-131.18
-87.60
-38.75
7.96
46.98
75.48
93.50
103.34
108.20
110.73
112.11
111.64
107.22
96.39
77.34
49.80
15.53
-21.65
-56.41
-83.18
-97.46
-97.05
-82.13
-55.18
-20.01
19.39
59.78
98.73
134.07
163.06
182.13
188.21
179.23
154.79
116.07
65.32
5.43
-60.12
-126.76
-188.53
-237.25
