1660939665.00
64.000000
-0.00
-0.00
-0.00
-0.00
-0.00
-0.00
-0.00
-0.00
-0.00
-0.00
0.00
0.01
0.01
-0.00
-0.03
-0.05
-0.05
0.00
0.13
0.36
0.66
1.01
1.37
1.72
2.06
2.40
2.79
3.24
3.81
4.44
5.10
5.74
6.33
6.89
7.50
8.22
9.12
10.29
11.61
12.95
14.18
15.22
16.15
17.16
18.48
20.30
22.83
25.86
29.09
32.19
35.00
37.61
40.41
43.86
48.33
54.19
61.04
68.28
75.28
81.70
87.68
93.84
101.02
109.84
120.78
133.22
146.14
158.51
169.74
180.04
190.32
202.26
214.73
229.92
248.13
269.03
291.03
311.16
325.33
329.44
320.71
298.59
265.37
224.38
179.21
132.47
85.49
38.85
-6.91
-50.83
-91.76
-128.73
-162.00
-192.72
-222.62
-253.37
-286.01
-320.39
-354.79
-386.05
-410.08
-423.15
-423.29
-411.05
-389.34
-362.26
-333.59
-305.65
-279.20
-253.88
-229.46
-206.22
-184.94
-166.25
-150.13
-135.81
-122.13
-108.17
-93.64
-78.98
-65.11
-52.91
-42.85
-34.79
-28.11
-21.95
-15.63
-8.94
-2.14
4.15
9.31
13.03
15.48
17.14
18.59
20.23
22.12
24.07
25.71
26.80
27.29
27.28
27.01
26.69
26.43
26.27
26.14
25.91
25.49
24.84
23.98
23.02
22.07
21.23
20.50
19.87
19.30
18.81
18.43
18.17
17.99
17.80
17.47
16.96
16.30
15.61
15.00
14.54
14.16
13.79
13.36
12.89
12.43
12.07
11.83
11.66
11.46
11.17
10.81
10.46
10.18
10.00
9.87
9.76
9.66
9.59
9.60
9.64
9.59
9.33
8.77
7.96
7.07
6.28
5.68
5.30
5.04
4.81
4.58
4.34
4.11
3.85
3.48
2.98
2.35
1.71
1.17
0.80
0.55
0.30
-0.08
-0.62
-1.29
-1.97
-2.58
-3.11
-3.63
-4.25
-5.00
-5.85
-6.72
-7.55
-8.32
-9.07
-9.80
-10.45
-10.86
-10.90
-10.56
-9.95
-9.32
-8.86
-8.66
-8.65
-8.66
-8.54
-8.23
-7.79
-7.30
-6.84
-6.39
-5.90
-5.29
-4.53
-3.69
-2.86
-2.15
-1.59
-1.17
-0.80
-0.40
0.06
0.59
1.11
1.56
1.89
2.12
2.30
2.50
2.73
2.94
3.06
3.05
2.91
2.71
2.56
2.54
2.69
2.96
3.30
3.62
3.89
4.12
4.34
4.57
4.82
5.05
5.21
5.27
5.18
4.94
4.60
4.28
4.07
4.07
4.25
4.50
4.68
4.66
4.44
4.13
3.88
3.83
4.02
4.39
4.80
5.08
5.12
4.91
4.49
3.98
3.52
3.22
3.13
3.23
3.44
3.67
3.85
3.93
3.90
3.74
3.44
3.01
2.48
1.91
1.41
1.06
0.95
1.06
1.31
1.59
1.79
1.89
1.89
1.85
1.80
1.74
1.66
1.56
1.49
1.51
1.66
1.93
2.22
2.41
2.43
2.29
2.08
1.91
1.86
1.91
2.01
2.05
2.00
1.84
1.64
1.46
1.31
1.21
1.12
1.04
0.99
1.00
1.07
1.17
1.22
1.19
1.08
0.96
0.93
1.04
1.27
1.52
1.68
1.71
1.63
1.50
1.41
1.38
1.37
1.31
1.16
0.93
0.70
0.55
0.57
0.77
1.08
1.38
1.54
1.50
1.27
0.93
0.59
0.32
0.14
0.04
-0.01
-0.00
0.06
0.20
0.43
0.72
1.04
1.32
1.53
1.58
1.47
1.19
0.81
0.44
0.19
0.12
0.23
0.46
0.70
0.91
1.07
1.20
1.30
1.36
1.31
1.14
0.87
0.59
0.42
0.41
0.53
0.72
0.85
0.86
0.78
0.66
0.58
0.56
0.58
0.59
0.52
0.39
0.23
0.12
0.09
0.14
0.22
0.27
0.26
0.23
0.24
0.31
0.43
0.52
0.50
0.33
0.07
-0.14
-0.16
0.05
0.47
0.96
1.35
1.53
1.45
1.14
0.70
0.29
0.00
-0.10
-0.02
0.15
0.33
0.47
0.55
0.59
0.58
0.49
0.30
0.03
-0.23
-0.36
-0.28
-0.03
0.30
0.56
0.67
0.61
0.47
0.31
0.18
0.11
0.09
0.14
0.23
0.35
0.47
0.58
0.68
0.78
0.87
0.90
0.81
0.57
0.22
-0.14
-0.38
-0.46
-0.40
-0.27
-0.14
-0.04
0.07
0.23
0.43
0.63
0.78
0.83
0.77
0.66
0.56
0.53
0.55
0.59
0.56
0.43
0.17
-0.15
-0.44
-0.63
-0.67
-0.57
-0.37
-0.12
0.13
0.36
0.53
0.67
0.77
0.85
0.95
1.08
1.24
1.41
1.54
1.60
1.55
1.36
1.04
0.61
0.10
-0.42
-0.87
-1.18
-1.31
-1.25
-1.04
-0.72
-0.37
-0.04
0.23
0.37
0.38
0.30
0.14
-0.01
-0.12
-0.17
-0.13
-0.01
0.14
0.29
0.36
0.32
0.19
0.04
0.01
0.15
0.47
0.86
1.20
1.41
1.45
1.35
1.12
0.77
0.32
-0.19
-0.66
-1.01
-1.17
-1.14
-0.96
-0.72
-0.46
-0.23
-0.05
0.07
0.13
0.14
0.16
0.20
0.24
0.26
0.20
0.08
-0.05
-0.11
-0.05
0.12
0.36
0.60
0.78
0.87
0.85
0.74
0.56
0.35
0.16
0.04
-0.01
0.00
0.05
0.11
0.17
0.21
0.22
0.18
0.05
-0.18
-0.46
-0.72
-0.87
-0.86
-0.70
-0.45
-0.17
0.05
0.18
0.23
0.27
0.32
0.42
0.56
0.71
0.80
0.81
0.70
0.50
0.24
-0.05
-0.33
-0.57
-0.78
-0.93
-1.00
-1.01
-1.00
-1.07
-1.29
-1.72
-2.36
-3.11
-3.88
-4.52
-4.94
-5.11
-5.07
-4.97
-5.01
-5.36
-6.13
-7.26
-8.56
-9.79
-10.75
-11.41
-11.94
-12.59
-13.65
-15.25
-17.34
-19.68
-21.96
-23.93
-25.58
-27.17
-29.18
-32.04
-35.98
-40.86
-46.16
-51.29
-55.90
-60.06
-64.39
-69.73
-76.83
-85.95
-96.65
-108.07
-119.14
-129.10
-137.76
-145.53
-153.27
-162.08
-172.95
-186.42
-202.04
-218.09
-231.51
-238.56
-235.93
-221.90
-197.04
-163.94
-126.08
-86.38
-46.17
-4.94
38.85
86.41
137.30
188.90
236.89
276.71
305.21
321.83
328.70
329.58
328.25
327.06
326.49
325.69
323.74
320.61
317.41
315.81
317.16
321.91
329.42
338.16
345.94
350.16
348.23
338.10
318.86
291.04
256.49
217.58
176.41
134.15
90.91
46.09
-0.98
-50.34
-100.78
-149.77
-193.73
-228.90
-252.42
-263.31
-262.77
-253.75
-239.74
-223.72
-207.54
-192.03
-177.57
-164.57
-153.53
-144.65
-137.54
-131.14
-124.16
-115.72
-105.76
-95.01
-84.66
-75.80
-68.93
-63.85
-59.81
-55.91
-51.43
-46.12
-40.21
-34.32
-29.10
-25.05
-22.26
-20.41
-18.94
-17.28
-15.11
-12.41
-9.48
-6.66
-4.26
-2.36
-0.92
0.19
1.03
1.60
1.84
1.69
1.17
0.45
-0.27
-0.74
-0.80
-0.44
0.22
0.98
1.59
1.92
1.92
1.64
1.22
0.82
0.60
0.68
1.06
1.68
2.33
2.81
2.97
2.73
2.14
1.32
0.42
-0.41
-1.07
-1.46
-1.54
-1.35
-0.98
-0.61
-0.41
-0.47
-0.80
-1.30
-1.81
-2.19
-2.35
-2.29
-2.11
-1.97
-1.99
-2.24
-2.63
-3.03
-3.28
-3.31
-3.18
-3.00
-2.90
-2.91
-2.98
-3.01
-2.90
-2.63
-2.26
-1.88
-1.57
-1.41
-1.45
-1.67
-2.02
-2.31
-2.25
-1.53
0.04
2.39
5.13
7.70
9.54
10.28
9.88
8.55
6.66
4.59
2.61
0.94
-0.25
-0.88
-0.95
-0.62
-0.16
0.11
-0.02
-0.60
-1.48
-2.45
-3.25
-3.71
-3.76
-3.39
-2.64
-1.61
-0.44
0.68
1.60
2.18
2.37
2.25
1.95
1.64
1.48
1.57
1.94
2.57
3.36
4.21
4.98
5.51
5.72
5.56
5.05
4.30
3.44
2.57
1.72
0.81
-0.28
-1.65
-3.31
-5.14
-6.92
-8.40
-9.39
-9.83
-9.77
-9.35
-8.72
-8.03
-7.35
-6.73
-6.17
-5.57
-4.73
-3.35
-1.07
2.27
6.56
11.35
15.95
19.65
21.96
22.75
22.11
20.38
17.84
14.77
11.37
7.83
4.43
1.41
-1.04
-2.85
-4.13
-5.06
-5.84
-6.59
-7.35
-8.04
-8.57
-8.89
-9.01
-9.01
-9.00
-9.04
-9.11
-9.13
-9.02
-8.76
-8.39
-8.02
-7.75
-7.61
-7.62
-7.70
-7.77
-7.71
-7.39
-6.74
-5.76
-4.51
-3.16
-1.86
-0.67
0.44
1.58
2.84
4.16
5.41
6.35
6.84
6.85
6.51
6.02
5.58
5.34
5.36
5.65
6.19
6.94
7.82
8.74
9.56
10.14
10.40
10.32
9.94
9.35
8.66
7.94
7.28
6.68
6.14
5.56
4.79
3.66
2.05
0.01
-2.28
-4.49
-6.32
-7.63
-8.45
-8.99
-9.49
-10.08
-10.74
-11.29
-11.51
-11.32
-10.74
-9.98
-9.30
-8.90
-8.87
-9.15
-9.59
-9.99
-10.22
-10.25
-10.11
-9.85
-9.54
-9.25
-9.02
-8.94
-9.04
-9.31
-9.62
-9.67
-9.09
-7.55
-4.94
-1.44
2.49
6.23
9.28
11.35
12.50
12.99
13.16
13.24
13.27
13.19
12.95
12.56
12.15
11.86
11.76
11.74
11.66
11.32
10.69
9.85
8.99
8.29
7.84
7.59
7.41
7.16
6.82
6.49
6.35
6.57
7.18
8.00
8.71
8.92
8.34
6.89
4.71
2.12
-0.51
-2.89
-4.90
-6.51
-7.77
-8.75
-9.45
-9.86
-9.97
-9.81
-9.45
-8.95
-8.40
-7.90
-7.52
-7.34
-7.37
-7.60
-7.94
-8.29
-8.53
-8.62
-8.58
-8.45
-8.25
-8.00
-7.70
-7.36
-7.00
-6.64
-6.28
-5.91
-5.49
-4.98
-4.38
-3.65
-2.75
-1.61
-0.16
1.61
3.62
5.70
7.65
9.27
10.41
11.01
11.04
10.55
9.63
8.42
7.06
5.74
4.58
3.68
3.03
2.61
2.32
2.10
1.93
1.85
1.94
2.24
2.77
3.41
4.01
4.37
4.37
3.98
3.27
2.40
1.56
0.88
0.40
0.08
-0.19
-0.52
-0.98
-1.57
-2.20
-2.73
-3.00
-2.92
-2.49
-1.85
-1.21
-0.80
-0.73
-0.95
-1.30
-1.58
-1.62
-1.39
-0.97
-0.48
-0.02
0.38
0.74
1.06
1.35
1.59
1.79
2.01
2.29
2.64
3.00
3.24
3.26
3.03
2.67
2.33
2.14
2.14
2.24
2.31
2.24
2.03
1.75
1.52
1.41
1.41
1.42
1.27
0.82
0.02
-1.04
-2.20
-3.21
-3.94
-4.40
-4.75
-5.17
-5.74
-6.42
-6.98
-7.22
-7.01
-6.38
-5.52
-4.65
-3.97
-3.63
-3.66
-4.02
-4.60
-5.17
-5.40
-4.88
-3.32
-0.66
2.75
6.26
9.08
10.64
10.74
9.71
8.21
6.92
6.31
6.49
7.24
8.16
8.89
9.17
8.84
7.84
6.14
3.85
1.19
-1.51
-3.83
-5.43
-6.15
-6.06
-5.41
-4.55
-3.75
-3.21
-2.97
-2.98
-3.16
-3.40
-3.61
-3.67
-3.53
-3.15
-2.60
-1.98
-1.42
-0.99
-0.69
-0.47
-0.26
-0.06
0.11
0.16
0.00
-0.42
-1.09
-1.93
-2.74
-3.36
-3.63
-3.56
-3.28
-3.05
-3.12
-3.62
-4.49
-5.48
-6.31
-6.77
-6.82
-6.60
-6.31
-6.09
-5.97
-5.95
-5.96
-5.96
-5.86
-5.45
-4.45
-2.53
0.40
4.09
7.95
11.22
13.31
14.04
13.64
12.65
11.57
10.62
9.76
8.78
7.50
5.90
4.16
2.52
1.14
0.07
-0.75
-1.40
-1.94
-2.33
-2.55
-2.57
-2.43
-2.22
-2.00
-1.78
-1.52
-1.18
-0.78
-0.40
-0.14
-0.06
-0.18
-0.39
-0.63
-0.83
-1.00
-1.15
-1.24
-1.18
-0.86
-0.26
0.51
1.21
1.58
1.45
0.84
-0.04
-0.94
-1.67
-2.18
-2.54
-2.91
-3.41
-4.11
-4.98
-5.91
-6.74
-7.29
-7.45
-7.16
-6.51
-5.67
-4.89
-4.31
-3.97
-3.74
-3.39
-2.59
-1.04
1.48
4.98
9.21
13.62
17.54
20.32
21.60
21.38
20.02
18.00
15.76
13.53
11.34
9.09
6.71
4.21
1.69
-0.71
-2.90
-4.87
-6.63
-8.18
-9.52
-10.57
-11.23
-11.50
-11.41
-11.10
-10.74
-10.45
-10.27
-10.17
-10.07
-9.90
-9.65
-9.38
-9.19
-9.15
-9.25
-9.42
-9.45
-9.10
-8.17
-6.58
-4.38
-1.83
0.74
3.00
4.75
5.99
6.90
7.76
8.78
10.01
11.28
12.31
12.82
12.72
12.07
11.11
10.10
9.20
8.48
7.92
7.47
7.12
6.91
6.85
6.91
7.02
7.13
7.18
7.17
7.11
6.98
6.72
6.17
5.21
3.75
1.82
-0.47
-2.88
-5.17
-7.11
-8.54
-9.40
-9.75
-9.70
-9.41
-9.06
-8.72
-8.43
-8.17
-7.92
-7.66
-7.44
-7.29
-7.24
-7.23
-7.14
-6.86
-6.32
-5.59
-4.80
-4.12
-3.63
-3.34
-3.15
-2.96
-2.74
-2.53
-2.42
-2.46
-2.57
-2.57
-2.27
-1.56
-0.45
0.87
2.20
3.39
4.41
5.36
6.31
7.28
8.12
8.61
8.57
7.97
6.99
5.90
5.01
4.45
4.22
4.20
4.22
4.16
4.00
3.78
3.57
3.39
3.22
3.01
2.74
2.43
2.15
2.00
1.98
2.02
1.92
1.51
0.70
-0.45
-1.74
-2.92
-3.87
-4.59
-5.21
-5.82
-6.44
-6.97
-7.27
-7.24
-6.93
-6.48
-6.09
-5.90
-5.99
-6.31
-6.77
-7.26
-7.66
-7.93
-8.05
-8.07
-8.06
-8.04
-8.03
-7.93
-7.65
-7.12
-6.34
-5.44
-4.61
-4.05
-3.93
-4.27
-4.92
-5.54
-5.73
-5.06
-3.29
-0.39
3.43
7.74
12.04
15.85
18.76
20.55
21.16
20.67
19.27
17.18
14.61
11.80
8.99
6.41
4.26
2.64
1.54
0.87
0.47
0.26
0.18
0.23
0.40
0.67
0.95
1.13
1.13
0.90
0.43
-0.23
-1.02
-1.82
-2.53
-3.03
-3.27
-3.21
-2.92
-2.47
-1.95
-1.41
-0.82
-0.12
0.73
1.68
2.57
3.23
3.49
3.36
2.96
2.52
2.20
2.10
2.16
2.30
2.46
2.60
2.77
3.00
3.23
3.32
3.10
2.39
1.18
-0.41
-2.12
-3.70
-4.95
-5.81
-6.32
-6.56
-6.60
-6.44
-6.09
-5.58
-5.00
-4.50
-4.19
-4.12
-4.27
-4.59
-5.00
-5.44
-5.80
-5.99
-5.91
-5.56
-5.05
-4.64
-4.56
-4.95
-5.71
-6.56
-7.14
-7.18
-6.58
-5.45
-3.99
-2.41
-0.89
0.43
1.43
2.13
2.74
3.70
5.58
8.73
13.03
17.70
21.54
23.40
22.71
19.74
15.50
11.27
8.08
6.31
5.68
5.60
5.46
4.98
4.16
3.21
2.29
1.43
0.53
-0.53
-1.79
-3.09
-4.17
-4.74
-4.72
-4.22
-3.59
-3.18
-3.22
-3.65
-4.18
-4.47
-4.25
-3.52
-2.49
-1.48
-0.75
-0.39
-0.32
-0.34
-0.30
-0.12
0.12
0.25
0.13
-0.34
-1.07
-1.91
-2.62
-3.05
-3.18
-3.14
-3.15
-3.36
-3.81
-4.41
-5.03
-5.60
-6.11
-6.66
-7.28
-7.97
-8.58
-8.98
-9.07
-8.87
-8.52
-8.18
-7.97
-7.85
-7.59
-6.85
-5.32
-2.91
0.17
3.43
6.33
8.43
9.62
10.05
10.02
9.74
9.24
8.44
7.24
5.73
4.14
2.75
1.79
1.25
0.99
0.82
0.63
0.39
0.22
0.18
0.27
0.44
0.60
0.67
0.66
0.59
0.51
0.42
0.34
0.25
0.18
0.20
0.38
0.85
1.69
2.90
4.39
5.90
7.11
7.73
7.63
6.90
5.83
4.73
3.82
3.13
2.54
1.88
1.00
-0.12
-1.41
-2.75
-4.04
-5.18
-6.10
-6.78
-7.17
-7.25
-7.03
-6.53
-5.82
-4.99
-4.12
-3.30
-2.54
-1.76
-0.83
0.40
1.97
3.79
5.61
7.12
8.05
8.28
7.90
7.12
6.20
5.31
4.48
3.62
2.62
1.44
0.16
-1.09
-2.20
-3.10
-3.86
-4.57
-5.35
-6.26
-7.31
-8.46
-9.65
-10.84
-11.96
-12.96
-13.81
-14.51
-15.03
-15.42
-15.72
-15.99
-16.30
-16.72
-17.26
-17.90
-18.46
-18.69
-18.18
-16.52
-13.34
-8.52
-2.27
4.84
11.95
18.15
22.76
25.50
26.52
26.27
25.29
23.99
22.59
21.13
19.61
18.10
16.73
15.67
15.00
14.69
14.60
14.53
14.34
13.99
13.55
13.09
12.67
12.23
11.68
10.91
9.90
8.66
7.28
5.79
4.17
2.33
0.19
-2.23
-4.77
-7.15
-9.09
-10.39
-11.04
-11.22
-11.18
-11.13
-11.16
-11.22
-11.21
-11.11
-10.97
-10.89
-10.94
-11.06
-11.13
-11.02
-10.69
-10.25
-9.89
-9.73
-9.76
-9.84
-9.79
-9.46
-8.84
-8.06
-7.31
-6.79
-6.59
-6.73
-7.08
-7.48
-7.74
-7.68
-7.20
-6.21
-4.70
-2.72
-0.38
2.18
4.82
7.38
9.76
11.86
13.62
14.92
15.65
15.72
15.06
13.72
11.86
9.75
7.70
6.00
4.85
4.30
4.22
4.41
4.59
4.56
4.25
3.69
3.07
2.57
2.38
2.54
2.97
3.46
3.79
3.78
3.38
2.63
1.68
0.66
-0.33
-1.28
-2.21
-3.16
-4.15
-5.17
-6.16
-7.04
-7.74
-8.21
-8.47
-8.60
-8.67
-8.72
-8.72
-8.59
-8.27
-7.83
-7.41
-7.20
-7.34
-7.78
-8.35
-8.77
-8.80
-8.33
-7.38
-6.10
-4.72
-3.49
-2.59
-2.13
-2.08
-2.22
-2.19
-1.53
0.17
3.05
6.95
11.31
15.43
18.64
20.55
21.09
20.53
19.26
17.61
15.82
13.96
12.04
10.10
8.20
6.42
4.80
3.29
1.83
0.38
-1.03
-2.25
-3.14
-3.64
-3.85
-4.00
-4.41
-5.28
-6.64
-8.33
-10.03
-11.43
-12.33
-12.69
-12.62
-12.28
-11.82
-11.32
-10.78
-10.18
-9.46
-8.51
-7.18
-5.26
-2.61
0.75
4.50
8.06
10.76
12.11
12.04
10.88
9.25
7.74
6.66
6.00
5.56
5.08
4.49
3.85
3.29
2.90
2.63
2.43
2.20
1.92
1.60
1.30
1.02
0.75
0.51
0.29
0.12
0.01
-0.03
-0.00
0.09
0.23
0.42
0.60
0.68
0.54
0.07
-0.78
-1.95
-3.27
-4.47
-5.34
-5.73
-5.60
-5.05
-4.27
-3.50
-2.96
-2.83
-3.15
-3.84
-4.69
-5.41
-5.77
-5.68
-5.23
-4.63
-4.15
-4.00
-4.25
-4.76
-5.23
-5.21
-4.18
-1.76
2.10
6.97
11.99
16.09
18.38
18.52
16.78
13.96
10.99
8.59
7.05
6.22
5.74
5.29
4.67
3.83
2.80
1.63
0.32
-1.04
-2.35
-3.40
-4.00
-4.03
-3.53
-2.67
-1.72
-0.92
-0.45
-0.36
-0.59
-0.98
-1.37
-1.57
-1.48
-1.10
-0.47
0.29
1.07
1.78
2.37
2.83
3.12
3.24
3.12
2.77
2.22
1.55
0.86
0.21
-0.39
-0.99
-1.67
-2.50
-3.50
-4.62
-5.77
-6.81
-7.66
-8.27
-8.67
-8.95
-9.18
-9.40
-9.57
-9.56
-9.29
-8.69
-7.83
-6.86
-5.93
-5.20
-4.72
-4.46
-4.32
-4.13
-3.63
-2.57
-0.76
1.80
4.87
7.97
10.51
12.05
12.40
11.72
10.38
8.84
7.38
6.10
4.87
3.56
2.13
0.73
-0.35
-0.86
-0.72
-0.08
0.71
1.28
1.37
0.99
0.28
-0.53
-1.30
-1.99
-2.65
-3.30
-3.87
-4.24
-4.28
-3.99
-3.48
-2.96
-2.58
-2.36
-2.19
-1.85
-1.19
-0.17
1.11
2.47
3.71
4.66
5.25
5.45
5.30
4.89
4.32
3.71
3.12
2.60
2.16
1.77
1.43
1.14
0.90
0.68
0.46
0.21
-0.03
-0.20
-0.23
-0.09
0.15
0.38
0.49
0.40
0.12
-0.30
-0.73
-1.10
-1.34
-1.47
-1.56
-1.73
-2.09
-2.68
-3.43
-4.20
-4.85
-5.27
-5.46
-5.46
-5.35
-5.17
-4.93
-4.62
-4.32
-4.13
-4.16
-4.45
-4.90
-5.39
-5.79
-6.03
-6.16
-6.28
-6.42
-6.53
-6.47
-6.12
-5.49
-4.71
-4.07
-3.82
-4.08
-4.79
-5.79
-6.84
-7.78
-8.45
-8.70
-8.36
-7.31
-5.57
-3.34
-0.92
1.44
3.70
6.00
8.55
11.37
14.23
16.66
18.27
18.88
18.69
18.11
17.54
17.18
16.96
16.66
16.01
14.86
13.21
11.22
9.12
7.19
5.70
4.82
4.60
4.98
5.73
6.61
7.32
7.58
7.17
5.95
3.94
1.31
-1.62
-4.46
-6.85
-8.54
-9.46
-9.70
-9.41
-8.81
-8.04
-7.23
-6.47
-5.81
-5.30
-4.95
-4.74
-4.62
-4.54
-4.43
-4.27
-4.09
-3.93
-3.85
-3.83
-3.78
-3.61
-3.30
-2.92
-2.67
-2.75
-3.30
-4.26
-5.41
-6.44
-7.02
-6.97
-6.22
-4.85
-3.02
-0.94
1.20
3.22
4.98
6.43
7.58
8.51
9.31
9.95
10.33
10.26
9.58
8.24
6.40
4.32
2.32
0.64
-0.62
-1.49
-2.07
-2.45
-2.66
-2.70
-2.58
-2.33
-2.04
-1.79
-1.64
-1.57
-1.54
-1.47
-1.33
-1.13
-0.94
-0.88
-1.00
-1.33
-1.82
-2.40
-2.96
-3.41
-3.65
-3.63
-3.33
-2.82
-2.23
-1.70
-1.36
-1.25
-1.34
-1.54
-1.79
-2.05
-2.35
-2.70
-3.07
-3.39
-3.57
-3.55
-3.35
-2.99
-2.50
-1.86
-1.04
-0.05
1.06
2.23
3.36
4.41
5.37
6.27
7.19
8.16
9.20
10.27
11.27
12.07
12.52
12.50
12.00
11.09
9.91
8.57
7.16
5.67
4.10
2.46
0.85
-0.63
-1.86
-2.80
-3.49
-4.01
-4.42
-4.73
-4.92
-4.92
-4.74
-4.45
-4.15
-3.96
-3.94
-4.08
-4.32
-4.59
-4.86
-5.19
-5.64
-6.26
-7.04
-7.89
-8.64
-9.14
-9.27
-8.97
-8.23
-7.07
-5.48
-3.46
-1.07
1.51
4.00
6.06
7.44
8.05
8.01
7.54
6.88
6.20
5.59
5.05
4.59
4.22
3.96
3.82
3.81
3.96
4.32
4.95
5.81
6.77
7.56
7.84
7.33
5.96
3.85
1.35
-1.10
-3.13
-4.51
-5.19
-5.23
-4.80
-4.09
-3.28
-2.59
-2.20
-2.22
-2.70
-3.55
-4.64
-5.81
-6.88
-7.73
-8.22
-8.28
-7.90
-7.21
-6.43
-5.84
-5.63
-5.82
-6.25
-6.62
-6.67
-6.29
-5.49
-4.45
-3.35
-2.32
-1.49
-0.91
-0.59
-0.36
0.12
1.32
3.66
7.16
11.33
15.24
17.85
18.44
16.93
13.89
10.23
6.83
4.20
2.44
1.39
0.80
0.52
0.45
0.54
0.65
0.59
0.21
-0.58
-1.71
-2.99
-4.16
-4.95
-5.20
-4.90
-4.19
-3.36
-2.70
-2.39
-2.46
-2.74
-3.01
-3.10
-2.93
-2.58
-2.16
-1.78
-1.44
-1.13
-0.84
-0.61
-0.51
-0.65
-1.08
-1.75
-2.52
-3.23
-3.69
-3.82
-3.64
-3.28
-2.93
-2.76
-2.86
-3.20
-3.62
-3.92
-3.93
-3.58
-2.94
-2.16
-1.43
-0.88
-0.54
-0.30
-0.02
0.44
1.15
2.10
3.22
4.40
5.51
6.39
6.88
6.92
6.50
5.80
5.07
4.57
4.44
4.64
4.93
5.04
4.76
4.05
3.00
1.79
0.56
-0.63
-1.76
-2.85
-3.88
-4.79
-5.48
-5.91
-6.09
-6.12
-6.17
-6.40
-6.90
-7.65
-8.50
-9.22
-9.61
-9.61
-9.30
-8.92
-8.76
-9.02
-9.75
-10.77
-11.74
-12.23
-11.79
-10.06
-6.87
-2.28
3.38
9.51
15.37
20.24
23.57
25.18
25.18
23.95
21.90
19.39
16.66
13.83
11.02
8.38
6.07
4.22
2.88
2.00
1.48
1.21
1.12
1.13
1.20
1.25
1.22
1.05
0.74
0.35
-0.01
-0.24
-0.27
-0.16
-0.02
-0.05
-0.42
-1.20
-2.31
-3.56
-4.73
-5.62
-6.15
-6.35
-6.28
-6.04
-5.70
-5.31
-4.95
-4.67
-4.55
-4.60
-4.84
-5.23
-5.68
-6.12
-6.40
-6.43
-6.10
-5.43
-4.49
-3.45
-2.48
-1.74
-1.27
-1.02
-0.93
-0.88
-0.81
-0.65
-0.33
0.29
1.31
2.80
4.70
6.79
8.79
10.40
11.45
11.89
11.77
11.17
10.16
8.84
7.32
5.80
4.49
3.52
2.87
2.39
1.86
1.12
0.16
-0.87
-1.74
-2.25
-2.28
-1.86
-1.12
-0.21
0.72
1.59
2.33
2.95
3.45
3.84
4.15
4.40
4.58
4.61
4.32
3.53
2.09
0.03
-2.44
-4.91
-6.98
-8.34
-8.87
-8.69
-8.00
-7.03
-5.98
-4.98
-4.15
-3.58
-3.37
-3.52
-3.95
-4.47
-4.90
-5.08
-4.99
-4.65
-4.16
-3.59
-2.99
-2.37
-1.77
-1.26
-0.89
-0.71
-0.71
-0.83
-1.01
-1.21
-1.34
-1.29
-0.87
0.10
1.67
3.70
5.84
7.69
8.95
9.51
9.46
8.99
8.22
7.22
5.96
4.47
2.81
1.09
-0.60
-2.21
-3.72
-5.03
-6.01
-6.51
-6.48
-6.00
-5.33
-4.74
-4.39
-4.28
-4.22
-3.99
-3.41
-2.45
-1.19
0.21
1.58
2.76
3.63
4.07
4.03
3.58
2.86
2.09
1.41
0.82
0.19
-0.66
-1.82
-3.17
-4.38
-5.05
-4.89
-3.89
-2.33
-0.68
0.58
1.11
0.85
-0.08
-1.37
-2.75
-3.98
-4.97
-5.73
-6.27
-6.59
-6.64
-6.36
-5.77
-5.00
-4.27
-3.85
-3.88
-4.26
-4.71
-4.81
-4.18
-2.68
-0.41
2.32
5.13
7.74
9.97
11.76
13.06
13.84
14.06
13.74
12.99
11.97
10.84
9.68
8.48
7.17
5.73
4.16
2.59
1.13
-0.09
-1.01
-1.59
-1.87
-1.95
-1.98
-2.20
-2.78
-3.80
-5.22
-6.89
-8.60
-10.14
-11.42
-12.38
-13.04
-13.46
-13.72
-13.89
-13.99
-14.04
-13.97
-13.72
-13.23
-12.55
-11.84
-11.34
-11.38
-12.19
-13.86
-16.26
-19.12
-22.07
-24.83
-27.31
-29.62
-32.08
-34.99
-38.59
-42.86
-47.63
-52.54
-57.29
-61.74
-66.03
-70.56
-75.85
-82.28
-89.92
-98.40
-107.11
-115.37
-122.83
-129.70
-136.69
-144.74
-154.56
-166.29
-179.38
-192.69
-204.63
-213.32
-216.82
-213.35
-201.71
-181.70
-154.22
-121.14
-84.55
-45.86
-5.24
38.09
84.72
133.67
181.62
223.45
253.97
270.02
271.77
262.53
247.30
230.80
216.16
204.54
195.52
187.72
179.24
167.92
151.70
129.41
101.41
69.94
38.69
11.84
-7.11
-16.07
-14.74
-4.56
11.59
29.95
46.54
58.22
63.41
62.53
57.59
51.21
45.60
41.86
39.97
39.25
38.81
38.08
36.88
35.39
33.97
32.98
32.64
32.87
33.38
33.83
33.99
33.91
33.92
34.50
36.08
38.77
42.31
46.12
49.51
51.99
53.48
54.39
55.50
57.71
61.70
67.62
74.89
82.05
86.82
86.40
78.22
60.85
34.86
3.08
-30.00
-59.52
-81.76
-95.16
-100.42
-99.75
-95.77
-90.58
-85.38
-80.67
-76.65
-73.45
-71.19
-69.83
-69.03
-68.33
-67.31
-65.80
-63.95
-62.15
-60.86
-60.39
-60.89
-62.27
-64.29
-66.66
-69.12
-71.48
-73.64
-75.61
-77.46
-79.19
-80.49
-80.72
-78.89
-74.07
-65.82
-54.54
-41.28
-27.22
-13.06
1.24
16.18
31.95
47.89
62.37
73.44
79.70
81.04
78.64
74.32
69.67
65.51
61.88
58.45
54.92
51.31
47.83
44.69
41.92
39.37
36.83
34.14
31.26
28.32
25.45
22.82
20.55
18.60
16.89
15.23
13.49
11.67
10.04
9.00
8.81
9.28
9.65
8.75
5.60
-0.06
-7.47
-15.02
-20.91
-23.80
-23.33
-20.07
-15.11
-9.57
-4.12
1.06
6.24
11.81
18.07
25.11
32.79
40.75
48.51
55.64
61.84
66.91
70.67
72.91
73.40
71.97
68.68
63.66
57.01
48.54
37.88
24.74
9.44
-6.89
-22.36
-34.99
-43.39
-47.27
-47.44
-45.34
-42.34
-39.31
-36.50
-33.81
-31.09
-28.39
-25.91
-23.84
-22.25
-21.00
-19.80
-18.43
-16.75
-14.80
-12.71
-10.65
-8.76
-7.06
-5.50
-4.00
-2.48
-0.94
0.52
1.79
2.78
3.48
4.02
4.61
5.47
6.71
8.30
10.09
11.90
13.56
15.01
16.24
17.28
18.06
18.44
18.28
17.53
16.38
15.24
14.63
14.96
16.37
18.64
21.30
23.88
26.09
27.94
29.69
31.69
34.23
37.34
40.75
43.90
46.03
46.44
44.73
41.08
36.27
31.47
27.85
26.22
26.79
29.25
32.93
37.03
40.71
43.31
44.39
43.94
42.45
40.78
39.85
40.21
41.94
44.70
48.32
53.13
59.95
69.55
81.61
94.03
102.95
103.66
92.05
65.98
26.05
-24.33
-79.72
-133.91
-181.18
-217.54
-241.27
-253.02
-255.27
-251.47
-245.24
-239.56
-236.42
-236.68
-240.14
-245.84
-252.54
-259.19
-265.27
-270.56
-274.65
-276.24
-273.00
-262.15
-241.60
-210.80
-170.91
-124.21
-73.24
-20.38
31.95
80.89
123.07
155.34
175.93
185.29
186.00
181.70
175.65
169.67
164.08
158.29
151.66
144.09
135.98
127.86
120.01
112.28
104.26
95.57
86.12
76.20
66.44
57.49
49.82
43.52
38.33
33.80
29.54
25.36
21.30
17.51
14.08
10.96
8.01
5.15
2.52
0.45
-0.53
0.07
2.50
6.65
11.96
17.63
22.84
27.01
29.95
31.94
33.54
35.40
38.03
41.61
45.95
50.58
54.97
58.76
61.98
65.05
68.65
73.41
79.62
87.09
95.31
103.69
111.87
119.84
127.90
136.38
145.54
155.64
167.05
180.13
194.79
209.87
222.88
230.25
228.50
215.44
191.07
157.33
117.12
72.92
26.25
-21.96
-70.28
-115.97
-155.08
-183.76
-199.87
-204.03
-199.35
-190.12
-179.99
-170.91
-163.01
-155.38
-147.25
-138.71
-130.64
-124.17
-119.94
-117.69
-116.36
-114.61
-111.39
-106.43
-100.27
-93.93
-88.43
-84.27
-81.28
-78.73
-75.72
-71.64
-66.49
-60.80
-55.40
-50.98
-47.95
-46.34
-46.04
-46.93
-48.94
-51.87
-55.26
-58.45
-60.83
-62.29
-63.44
-65.51
-69.84
-77.20
-87.43
-99.38
-111.22
-121.08
-127.64
-130.57
-130.39
-128.03
-124.05
-118.05
-108.39
-92.73
-68.69
-34.60
9.86
63.41
123.24
185.25
244.28
294.56
330.60
348.42
347.09
329.64
302.82
275.18
254.32
244.11
243.34
246.47
245.95
235.08
210.21
171.38
121.70
66.10
10.07
-41.14
