1659460971.00
64.000000
-0.00
-0.00
-0.00
-0.00
-0.00
-0.00
-0.00
-0.00
-0.00
-0.00
0.00
0.01
0.01
-0.00
-0.03
-0.05
-0.05
0.00
0.13
0.36
0.66
1.01
1.37
1.72
2.06
2.40
2.79
3.24
3.80
4.42
5.06
5.66
6.20
6.68
7.15
7.68
8.31
9.14
10.09
11.04
11.88
12.56
13.14
13.76
14.65
15.96
17.91
20.32
22.90
25.38
27.58
29.57
31.68
34.32
37.81
42.54
48.15
54.10
59.83
64.97
69.58
74.14
79.35
85.71
93.76
103.00
112.61
121.72
129.77
136.77
143.34
150.79
157.80
166.61
177.81
191.52
206.57
220.06
227.69
224.79
207.97
176.31
132.16
79.36
22.26
-35.87
-93.45
-150.19
-206.23
-261.34
-314.73
-364.98
-411.18
-452.56
-488.46
-517.89
-539.42
-551.33
-551.99
-540.46
-516.65
-481.78
-437.84
-387.26
-332.42
-275.45
-218.14
-162.00
-108.40
-58.49
-13.31
26.46
60.61
89.29
112.91
131.88
146.49
156.85
163.13
165.57
164.80
161.66
157.07
151.75
146.04
139.93
133.17
125.41
116.30
105.57
93.28
80.17
67.90
58.93
55.71
59.62
70.03
84.25
98.41
108.95
113.85
113.13
108.23
101.00
92.80
84.40
75.89
67.42
59.52
52.82
47.73
44.03
41.05
37.91
34.00
29.23
24.12
19.41
15.76
13.40
12.12
11.37
10.53
9.18
7.24
4.98
2.86
1.28
0.48
0.39
0.69
1.00
0.97
0.48
-0.43
-1.48
-2.32
-2.64
-2.31
-1.44
-0.41
0.31
0.36
-0.34
-1.57
-2.88
-3.89
-4.39
-4.48
-4.39
-4.35
-4.42
-4.49
-4.41
-4.10
-3.66
-3.27
-3.08
-3.12
-3.30
-3.46
-3.47
-3.27
-2.96
-2.65
-2.44
-2.38
-2.43
-2.52
-2.58
-2.59
-2.51
-2.28
-1.83
-1.13
-0.18
0.91
1.96
2.79
3.29
3.51
3.61
3.80
4.23
4.98
5.96
7.04
8.03
8.77
9.20
9.31
9.16
8.78
8.20
7.36
6.17
4.66
2.78
0.63
-1.64
-3.86
-5.90
-7.67
-9.12
-10.18
-10.79
-10.93
-10.64
-10.00
-9.14
-8.20
-7.21
-6.21
-5.23
-4.36
-3.72
-3.41
-3.44
-3.73
-4.07
-4.29
-4.24
-3.95
-3.53
-3.12
-2.83
-2.65
-2.51
-2.35
-2.15
-1.95
-1.85
-1.90
-2.12
-2.43
-2.69
-2.78
-2.66
-2.36
-2.00
-1.70
-1.53
-1.50
-1.51
-1.46
-1.28
-0.99
-0.68
-0.48
-0.51
-0.77
-1.19
-1.61
-1.87
-1.91
-1.79
-1.64
-1.60
-1.77
-2.12
-2.53
-2.87
-3.03
-2.95
-2.63
-2.09
-1.31
-0.29
0.94
2.28
3.60
4.72
5.56
6.08
6.34
6.42
6.38
6.30
6.22
6.18
6.16
6.12
5.93
5.52
4.90
4.18
3.57
3.20
3.09
3.10
3.06
2.82
2.37
1.78
1.15
0.46
-0.33
-1.30
-2.42
-3.54
-4.46
-5.01
-5.17
-5.11
-5.09
-5.36
-6.04
-7.08
-8.24
-9.23
-9.76
-9.65
-8.87
-7.54
-5.86
-4.09
-2.45
-1.07
0.00
0.80
1.38
1.82
2.14
2.37
2.52
2.58
2.54
2.41
2.18
1.87
1.54
1.23
0.99
0.80
0.63
0.44
0.25
0.07
-0.08
-0.21
-0.41
-0.75
-1.25
-1.85
-2.39
-2.76
-2.95
-3.04
-3.20
-3.58
-4.21
-5.02
-5.92
-6.81
-7.60
-8.20
-8.46
-8.23
-7.41
-6.02
-4.26
-2.42
-0.76
0.58
1.61
2.46
3.24
3.99
4.67
5.16
5.38
5.29
4.98
4.58
4.27
4.15
4.26
4.51
4.72
4.70
4.37
3.75
2.99
2.31
1.85
1.64
1.59
1.55
1.41
1.14
0.79
0.41
0.05
-0.34
-0.82
-1.46
-2.24
-3.05
-3.77
-4.27
-4.46
-4.34
-3.93
-3.31
-2.54
-1.70
-0.85
-0.04
0.69
1.33
1.89
2.38
2.82
3.23
3.64
4.01
4.30
4.45
4.41
4.19
3.85
3.51
3.28
3.22
3.29
3.41
3.48
3.42
3.24
2.95
2.59
2.15
1.63
1.05
0.47
-0.02
-0.35
-0.51
-0.59
-0.71
-0.97
-1.40
-1.97
-2.59
-3.16
-3.64
-3.98
-4.16
-4.17
-3.98
-3.54
-2.83
-1.87
-0.71
0.53
1.67
2.57
3.11
3.32
3.28
3.12
2.93
2.74
2.52
2.25
1.96
1.72
1.58
1.52
1.46
1.29
1.00
0.63
0.33
0.15
0.07
-0.07
-0.43
-1.09
-1.96
-2.77
-3.29
-3.37
-3.10
-2.68
-2.39
-2.41
-2.77
-3.41
-4.19
-5.01
-5.73
-6.27
-6.53
-6.46
-6.04
-5.34
-4.50
-3.74
-3.24
-3.09
-3.27
-3.63
-4.01
-4.29
-4.44
-4.54
-4.72
-5.08
-5.63
-6.32
-7.05
-7.77
-8.51
-9.36
-10.37
-11.52
-12.67
-13.62
-14.21
-14.34
-14.03
-13.33
-12.27
-10.81
-8.92
-6.56
-3.82
-0.83
2.19
5.05
7.58
9.68
11.25
12.28
12.78
12.88
12.77
12.67
12.69
12.83
12.98
13.00
12.80
12.42
12.01
11.69
11.49
11.34
11.08
10.59
9.86
9.00
8.15
7.43
6.86
6.42
6.07
5.77
5.52
5.30
5.05
4.68
4.16
3.50
2.80
2.16
1.63
1.18
0.70
0.18
-0.35
-0.78
-1.02
-1.08
-1.09
-1.24
-1.66
-2.33
-3.07
-3.61
-3.74
-3.37
-2.60
-1.69
-0.89
-0.36
-0.10
0.04
0.28
0.75
1.43
2.15
2.65
2.75
2.45
1.88
1.32
0.96
0.91
1.11
1.44
1.79
2.07
2.29
2.45
2.56
2.54
2.34
1.95
1.43
0.91
0.52
0.29
0.19
0.09
-0.17
-0.66
-1.36
-2.13
-2.85
-3.41
-3.82
-4.10
-4.30
-4.42
-4.39
-4.16
-3.71
-3.07
-2.31
-1.53
-0.80
-0.14
0.46
1.00
1.44
1.71
1.74
1.50
1.06
0.54
0.09
-0.15
-0.12
0.13
0.48
0.77
0.86
0.69
0.27
-0.31
-0.95
-1.54
-2.00
-2.26
-2.33
-2.28
-2.24
-2.33
-2.63
-3.08
-3.56
-3.91
-4.06
-4.06
-4.00
-4.00
-4.07
-4.12
-3.97
-3.50
-2.68
-1.65
-0.58
0.33
1.01
1.47
1.81
2.12
2.42
2.65
2.71
2.55
2.21
1.81
1.49
1.34
1.37
1.47
1.57
1.58
1.50
1.38
1.22
1.08
0.92
0.74
0.51
0.22
-0.11
-0.43
-0.69
-0.83
-0.84
-0.75
-0.65
-0.67
-0.88
-1.28
-1.85
-2.49
-3.13
-3.70
-4.09
-4.20
-3.92
-3.19
-2.10
-0.86
0.29
1.15
1.64
1.86
1.95
2.05
2.20
2.35
2.43
2.40
2.31
2.22
2.19
2.25
2.32
2.36
2.29
2.12
1.86
1.57
1.28
1.01
0.74
0.47
0.20
-0.04
-0.24
-0.38
-0.46
-0.52
-0.59
-0.71
-0.89
-1.14
-1.46
-1.83
-2.21
-2.52
-2.70
-2.69
-2.47
-2.09
-1.63
-1.14
-0.64
-0.12
0.46
1.08
1.73
2.34
2.81
3.07
3.06
2.82
2.40
1.93
1.51
1.23
1.07
0.98
0.88
0.73
0.57
0.50
0.60
0.90
1.35
1.86
2.36
2.86
3.41
4.06
4.82
5.65
6.47
7.24
7.99
8.77
9.64
10.56
11.45
12.16
12.59
12.73
12.64
12.45
12.24
11.97
11.54
10.73
9.42
7.56
5.22
2.60
-0.16
-2.93
-5.72
-8.54
-11.37
-14.15
-16.79
-19.18
-21.29
-23.12
-24.66
-25.84
-26.58
-26.75
-26.29
-25.24
-23.70
-21.85
-19.86
-17.82
-15.80
-13.77
-11.71
-9.58
-7.41
-5.31
-3.42
-1.92
-0.91
-0.35
-0.10
0.10
0.49
1.19
2.17
3.26
4.23
4.92
5.32
5.56
5.79
6.09
6.37
6.44
6.12
5.34
4.25
3.09
2.08
1.31
0.72
0.16
-0.51
-1.32
-2.19
-2.97
-3.60
-4.10
-4.63
-5.34
-6.36
-7.65
-9.06
-10.42
-11.58
-12.52
-13.25
-13.81
-14.21
-14.36
-14.20
-13.60
-12.49
-10.78
-8.38
-5.24
-1.45
2.76
7.02
10.93
14.22
16.76
18.58
19.77
20.39
20.47
20.06
19.26
18.27
17.25
16.33
15.49
14.61
13.60
12.42
11.13
9.89
8.84
8.04
7.47
7.06
6.69
6.29
5.81
5.24
4.61
3.95
3.29
2.63
1.96
1.26
0.55
-0.16
-0.79
-1.31
-1.70
-1.95
-2.07
-2.05
-1.87
-1.51
-0.97
-0.28
0.51
1.30
2.01
2.55
2.86
2.93
2.76
2.45
2.09
1.80
1.62
1.58
1.59
1.59
1.53
1.41
1.26
1.11
0.96
0.76
0.45
0.05
-0.39
-0.73
-0.87
-0.76
-0.45
-0.09
0.17
0.19
-0.06
-0.52
-1.10
-1.68
-2.19
-2.57
-2.82
-2.91
-2.79
-2.44
-1.87
-1.17
-0.46
0.08
0.39
0.50
0.56
0.71
1.07
1.58
2.07
2.36
2.39
2.20
1.95
1.83
1.93
2.21
2.56
2.86
3.04
3.06
2.93
2.66
2.22
1.63
0.92
0.17
-0.50
-1.02
-1.36
-1.55
-1.64
-1.66
-1.61
-1.48
-1.30
-1.17
-1.22
-1.59
-2.28
-3.19
-4.10
-4.75
-4.95
-4.61
-3.85
-2.86
-1.94
-1.34
-1.16
-1.37
-1.75
-2.01
-1.89
-1.32
-0.41
0.53
1.21
1.46
1.35
1.14
1.22
1.83
3.01
4.54
6.01
7.02
7.34
7.03
6.37
5.78
5.68
6.43
8.24
11.13
14.85
18.95
22.85
26.05
28.38
30.14
32.02
34.86
39.29
45.39
52.55
59.73
65.80
70.21
73.30
76.26
80.60
87.43
96.74
107.31
117.18
124.57
128.67
129.89
129.55
129.05
129.14
129.72
130.08
129.37
126.97
122.43
115.26
104.77
90.23
71.42
48.98
24.49
0.06
-22.36
-41.53
-57.00
-68.87
-77.35
-82.51
-84.37
-83.10
-79.22
-73.57
-67.02
-60.28
-53.74
-47.56
-41.78
-36.34
-31.07
-25.71
-19.95
-13.72
-7.30
-1.27
3.72
7.32
9.64
11.22
12.74
14.75
17.45
20.71
24.22
27.56
30.24
31.70
31.40
28.94
24.41
18.43
12.08
6.54
2.71
0.92
0.93
2.14
3.88
5.68
7.33
8.84
10.28
11.54
12.34
12.21
10.73
7.79
3.78
-0.51
-4.05
-6.09
-6.39
-5.30
-3.47
-1.53
0.25
1.90
3.54
5.05
6.01
5.81
4.01
0.63
-3.84
-8.64
-13.15
-17.10
-20.69
-24.27
-28.09
-32.06
-35.75
-38.61
-40.29
-40.84
-40.76
-40.74
-41.32
-42.71
-44.67
-46.74
-48.45
-49.54
-50.01
-50.06
-49.86
-49.57
-49.24
-48.87
-48.46
-47.98
-47.31
-46.30
-44.81
-42.82
-40.46
-37.97
-35.62
-33.56
-31.89
-30.63
-29.73
-29.19
-28.86
-28.58
-28.12
-27.31
-26.17
-24.93
-23.94
-23.50
-23.71
-24.37
-25.16
-26.14
-27.31
-28.44
-29.20
-29.41
-29.10
-28.40
-27.42
-26.19
-25.23
-24.78
-24.76
-24.88
-25.00
-25.25
-25.84
-26.83
-28.09
-30.41
-34.03
-38.33
-42.30
-45.40
-47.69
-49.55
-51.28
-53.04
-58.02
-67.86
-81.38
-95.62
-108.20
-118.34
-126.38
-132.99
-138.72
-150.38
-171.29
-198.89
-226.92
-250.44
-267.86
-279.91
-287.92
-293.03
-306.35
-333.68
-371.61
-411.01
-444.96
-472.16
-495.28
-518.02
-543.35
-585.66
-650.08
-727.38
-799.12
-849.66
-872.34
-868.58
-844.32
-723.00
-484.72
-175.92
124.21
362.99
529.58
636.07
699.14
733.00
748.03
738.32
702.56
649.67
595.11
550.22
519.39
499.88
487.63
479.34
462.82
432.30
391.78
352.06
321.75
303.92
297.50
300.01
308.50
313.63
309.94
293.95
269.07
239.86
209.79
181.31
156.35
135.91
116.61
95.76
73.17
51.59
33.53
20.07
10.86
4.89
0.96
-3.07
-8.31
-14.48
-19.86
-23.19
-24.19
-23.48
-22.05
-20.79
-20.27
-20.57
-21.43
-22.10
-22.02
-20.99
-19.20
-17.11
-15.21
-13.86
-13.17
-12.99
-12.90
-12.57
-11.83
-10.74
-9.54
-8.51
-7.83
-7.59
-7.71
-7.96
-8.15
-8.18
-8.07
-7.96
-8.02
-8.38
-9.08
-10.01
-10.98
-11.65
-11.74
-11.05
-9.55
-7.41
-4.93
-2.37
0.08
2.37
4.51
6.44
7.95
8.81
8.85
8.13
6.96
5.75
4.84
4.35
4.18
4.13
4.06
3.97
3.97
4.13
4.34
4.28
3.57
1.95
-0.47
-3.22
-5.68
-7.27
-7.82
-7.65
-7.43
-7.98
-9.93
-13.46
-18.32
-23.76
-28.74
-32.04
-32.43
-28.86
-20.92
-9.06
5.21
19.55
31.49
39.23
42.23
41.31
38.16
34.56
31.67
29.68
28.06
26.01
22.96
18.80
13.88
8.73
3.95
-0.02
-2.93
-4.72
-5.54
-5.71
-5.63
-5.63
-5.95
-6.61
-7.53
-8.58
-9.70
-10.88
-12.22
-13.78
-15.59
-17.72
-20.19
-22.86
-25.32
-26.71
-25.90
-21.97
-14.72
-5.11
4.89
12.93
17.25
17.40
14.41
10.24
6.94
5.69
6.60
8.82
11.25
13.06
14.01
14.34
14.43
14.51
14.49
14.13
13.23
11.89
10.53
9.74
9.97
11.21
12.98
14.49
14.98
14.09
12.01
9.36
6.91
5.34
5.09
6.40
9.35
13.83
19.41
25.18
29.91
32.39
31.98
28.98
24.58
20.34
17.51
16.53
16.88
17.51
17.45
16.24
14.08
11.54
9.17
7.21
5.58
4.01
2.30
0.48
-1.24
-2.64
-3.66
-4.55
-5.83
-8.04
-11.48
-16.06
-21.22
-26.08
-29.75
-31.55
-31.17
-28.73
-24.74
-20.02
-15.58
-12.41
-11.14
-11.78
-13.60
-15.39
-15.91
-14.42
-11.00
-6.42
-1.71
2.39
5.64
8.33
10.93
13.67
16.44
18.76
20.14
20.28
19.29
17.60
15.78
14.28
13.22
12.35
11.14
9.04
5.78
1.57
-2.89
-6.62
-8.67
-8.38
-5.51
-0.25
6.78
14.51
21.53
26.31
27.66
25.26
20.05
13.98
9.30
7.62
9.11
12.55
15.95
17.57
16.77
14.05
10.65
7.65
5.51
3.94
2.31
0.19
-2.34
-4.81
-6.66
-7.64
-8.00
-8.34
-9.30
-11.26
-14.08
-17.17
-19.72
-21.00
-20.58
-18.54
-15.29
-11.49
-7.83
-4.89
-3.08
-2.56
-3.26
-4.83
-6.73
-8.34
-9.20
-9.16
-8.36
-7.11
-5.61
-3.79
-1.40
1.77
5.64
9.72
13.24
15.55
16.38
16.04
15.25
14.78
15.11
16.18
17.46
18.19
17.71
15.76
12.56
8.67
4.83
1.81
0.35
1.13
4.54
10.41
17.69
24.45
28.47
28.14
23.26
15.36
7.08
1.03
-1.43
-0.68
1.56
3.26
3.16
1.30
-1.30
-3.37
-4.13
-3.60
-2.38
-1.15
-0.27
0.40
1.19
2.32
3.65
4.62
4.58
3.08
0.15
-3.69
-7.61
-10.75
-12.55
-12.82
-11.80
-9.97
-7.90
-6.08
-4.89
-4.52
-5.07
-6.52
-8.69
-11.22
-13.54
-15.02
-15.19
-13.96
-11.76
-9.36
-7.60
-6.88
-7.04
-7.41
-7.24
-6.09
-4.11
-1.86
-0.02
1.04
1.45
1.67
2.23
3.46
5.29
7.38
9.23
10.40
10.63
9.93
8.55
6.95
5.73
5.59
7.11
10.63
15.98
22.32
28.21
31.94
32.15
28.43
21.64
13.68
6.79
2.61
1.55
2.71
4.44
5.15
4.03
1.25
-2.33
-5.70
-8.20
-9.64
-10.22
-10.18
-9.67
-8.68
-7.27
-5.64
-4.23
-3.53
-3.85
-5.18
-7.18
-9.28
-10.91
-11.56
-10.92
-8.89
-5.63
-1.66
2.23
5.05
5.94
4.52
1.10
-3.41
-7.80
-11.02
-12.61
-12.72
-11.94
-10.92
-10.08
-9.52
-9.09
-8.64
-8.13
-7.69
-7.48
-7.57
-7.83
-8.03
-7.89
-7.19
-5.87
-4.01
-1.77
0.57
2.72
4.34
5.20
5.24
4.63
3.80
3.36
4.01
6.36
10.65
16.55
23.05
28.57
31.39
30.35
25.32
17.48
8.95
1.99
-1.85
-2.25
-0.14
2.88
5.21
5.85
4.53
1.61
-2.34
-6.69
-10.92
-14.59
-17.27
-18.61
-18.41
-16.79
-14.19
-11.32
-8.94
-7.60
-7.47
-8.25
-9.35
-10.09
-10.02
-9.06
-7.40
-5.38
-3.24
-1.09
0.99
2.83
4.04
4.16
2.87
0.30
-2.97
-6.06
-8.22
-9.10
-8.90
-8.21
-7.67
-7.64
-8.14
-8.85
-9.46
-9.84
-10.16
-10.81
-12.19
-14.38
-17.07
-19.59
-21.15
-21.18
-19.59
-16.75
-13.32
-9.94
-6.97
-4.38
-1.88
0.88
4.20
8.25
13.10
18.69
24.74
30.61
35.27
37.64
36.99
33.40
27.92
22.24
17.96
15.92
15.89
16.73
17.08
16.04
13.55
10.20
6.83
4.02
1.86
0.12
-1.48
-3.01
-4.31
-5.16
-5.55
-5.72
-6.06
-6.90
-8.28
-9.91
-11.32
-12.08
-11.94
-10.88
-9.09
-6.81
-4.38
-2.21
-0.74
-0.31
-1.03
-2.60
-4.43
-5.84
-6.42
-6.15
-5.45
-4.87
-4.81
-5.28
-5.94
-6.28
-5.94
-4.90
-3.51
-2.35
-1.93
-2.45
-3.67
-5.04
-5.92
-5.85
-4.73
-2.84
-0.62
1.44
3.00
3.84
3.91
3.31
2.36
1.53
1.33
2.09
3.84
6.20
8.62
10.53
11.56
11.65
10.92
9.63
8.08
6.55
5.28
4.43
3.98
3.74
3.45
2.92
2.19
1.50
1.20
1.58
2.65
4.16
5.72
7.01
7.93
8.62
9.32
10.13
10.97
11.57
11.75
11.53
11.26
11.47
12.63
14.89
18.00
21.32
24.09
25.65
25.70
24.39
22.23
19.93
18.16
17.28
17.29
17.80
18.21
17.77
15.69
11.31
4.35
-4.82
-15.07
-24.71
-31.99
-35.71
-35.62
-32.39
-27.12
-20.84
-14.13
-7.13
0.10
7.34
14.06
19.64
23.59
25.86
26.85
27.33
28.29
30.61
34.77
40.53
46.74
51.51
52.60
48.18
37.61
21.84
3.29
-14.85
-29.65
-39.35
-43.75
-43.89
-41.38
-37.66
-33.58
-29.49
-25.55
-22.05
-19.35
-17.61
-16.51
-15.22
-12.83
-8.82
-3.50
2.02
6.29
8.16
7.22
3.93
-0.64
-5.27
-8.99
-11.30
-12.11
-11.56
-9.83
-7.00
-3.08
1.90
7.91
14.83
22.54
30.81
39.23
47.19
53.89
58.53
60.56
59.93
57.14
53.02
48.34
43.49
38.45
33.00
27.17
21.51
16.95
14.35
13.88
14.57
14.49
11.35
3.46
-9.42
-25.97
-43.70
-59.87
-72.39
-80.37
-84.14
-84.91
-84.36
-84.08
-85.57
-89.93
-97.35
-106.60
-114.77
-118.01
-113.02
-98.69
-76.72
-51.22
-26.92
-7.14
7.28
17.74
26.37
34.60
42.33
48.77
53.21
55.78
57.50
59.71
63.50
69.39
77.24
84.31
87.65
84.34
72.81
53.72
30.00
5.83
-14.82
-29.53
-38.14
-41.92
-42.73
-41.76
-39.35
-35.26
-29.34
-22.15
-14.88
-9.15
-5.64
-4.06
-3.31
-2.13
0.29
4.03
8.43
12.48
14.76
14.87
12.59
9.23
5.98
3.68
2.75
3.16
4.66
6.20
7.56
8.92
10.70
13.09
16.04
19.23
22.13
24.17
23.90
20.88
15.19
7.22
-2.65
-14.15
-27.12
-41.59
-51.60
-57.17
-59.32
-59.12
-57.30
-54.40
-50.76
-46.58
-42.00
-37.10
-32.86
-29.48
-26.80
-24.52
-22.48
-20.57
-18.70
-16.77
-14.70
-13.15
-12.20
-11.70
-11.36
-11.10
-10.88
-10.65
-10.34
-9.96
-9.89
-10.17
-10.72
-11.20
-11.58
-11.73
-11.51
-10.73
-9.22
-7.01
-3.97
-1.11
2.50
7.02
12.40
18.48
25.02
31.74
38.30
44.44
49.86
54.55
58.32
61.18
63.21
64.60
65.57
66.39
67.37
68.46
69.82
71.42
73.25
75.32
77.67
80.36
83.49
87.28
91.39
95.81
100.44
105.31
110.46
115.96
121.95
128.57
136.10
144.06
152.25
160.44
168.37
175.70
181.92
186.22
187.23
187.94
189.09
191.04
193.88
197.53
201.82
206.48
211.23
215.83
220.11
223.28
224.84
224.46
221.98
217.43
210.98
203.01
193.99
184.51
174.58
164.29
153.67
142.72
131.34
119.50
107.15
94.37
81.29
67.71
53.52
38.64
23.02
6.71
-10.10
-26.99
-43.42
-58.79
-72.79
-85.33
-96.55
-106.77
-116.32
-125.29
-133.49
-140.48
-145.82
-149.46
-151.89
-154.14
-157.50
-163.15
-171.64
-182.76
-195.60
-209.08
-222.51
-235.98
-250.45
-267.30
-287.71
-311.98
-339.34
-368.26
-397.06
-424.65
-451.05
-477.19
-504.77
-535.84
-572.63
-616.94
-669.15
-726.84
-784.09
-832.11
-861.60
-865.92
-843.72
-799.31
-740.76
-676.66
-613.09
-552.63
-495.12
-439.69
-386.27
-335.87
-289.72
-248.16
-210.13
-173.74
-137.32
-100.36
-63.73
-29.45
0.44
24.72
43.59
58.60
72.07
86.21
102.28
120.17
138.60
155.69
169.88
180.61
188.65
195.82
204.26
215.57
230.00
246.46
262.85
276.95
287.34
294.04
298.52
303.28
311.47
325.76
347.77
377.04
410.24
441.18
461.79
464.42
444.62
403.09
345.95
282.91
224.33
178.05
147.70
132.22
127.19
126.60
124.78
117.71
103.68
83.11
57.84
30.25
2.31
-24.52
-49.21
-70.71
-87.88
-99.76
-106.23
-108.55
-108.71
-108.77
-109.52
-110.00
-107.91
-100.67
-86.67
-65.99
-40.19
-11.30
18.98
50.00
81.76
114.03
145.31
172.15
189.58
192.66
178.72
149.16
110.07
70.73
40.70
26.54
29.51
45.84
68.86
91.98
110.68
122.80
127.46
124.09
112.47
93.76
71.33
50.23
35.34
29.05
30.20
34.84
38.34
37.77
32.83
25.54
18.85
15.44
17.23
25.40
40.46
61.90
87.94
115.21
139.21
155.28
159.48
149.17
123.20
82.15
28.85
-31.24
-90.42
-140.41
-174.77
-191.38
-193.05
-186.22
-178.09
-173.56
-173.91
-177.56
-182.24
-186.69
-191.05
-195.54
-199.04
-198.66
-191.20
-175.55
-154.51
-134.37
-122.47
-123.90
-138.73
-161.84
-184.98
-200.08
-202.21
-190.82
-168.86
-140.65
-109.84
-78.38
-46.96
-16.08
13.16
38.96
59.68
74.76
84.98
92.16
98.30
104.96
113.16
123.79
138.18
157.83
183.53
214.09
245.69
272.43
288.13
288.69
273.80
247.12
214.95
183.90
158.51
140.03
126.45
113.83
98.06
76.35
47.91
14.06
-22.11
-56.22
-83.03
-97.41
-95.67
-77.34
-46.29
-10.35
21.15
40.96
46.88
42.45
34.74
30.21
31.17
34.54
33.94
23.49
1.46
-28.50
-58.80
-81.36
-91.06
-87.68
-75.48
-60.99
-50.03
-45.31
-45.79
-47.74
-46.76
-39.97
-27.00
-9.78
8.42
24.17
34.79
38.76
35.85
27.10
14.73
1.95
-7.49
-9.69
-1.32
19.53
52.35
93.59
136.83
174.21
198.96
208.04
203.44
191.13
178.05
168.35
161.14
151.01
131.06
97.21
51.33
1.63
-39.82
-61.59
-57.39
-28.41
17.21
67.41
110.43
138.25
148.02
141.62
123.76
100.15
75.97
55.10
39.60
29.42
22.51
15.39
4.33
-13.15
-37.15
-64.93
-91.25
-109.60
-113.87
-100.20
-68.55
-23.36
27.12
73.08
106.10
121.69
120.10
105.04
81.05
51.19
16.42
-23.17
-66.32
-109.46
-147.43
-175.71
-192.75
-200.80
-204.91
-210.54
-221.31
-237.87
-258.35
-279.50
-298.00
-310.92
-315.84
-310.82
-294.55
-266.74
-228.46
-182.09
-130.92
-78.41
-27.82
18.40
58.99
94.14
125.75
157.38
193.52
238.29
293.44
356.60
420.85
476.09
512.12
522.24
505.73
467.79
417.16
362.50
309.28
258.93
209.90
159.97
108.01
54.50
0.75
-52.17
-104.05
-155.17
-205.31
-253.08
-295.93
-330.80
-355.46
-369.41
-373.88
-371.13
-363.26
-351.37
-335.53
-315.62
-292.45
-268.25
-246.10
-228.59
-216.42
-207.93
-199.71
-188.20
-170.91
-146.95
-116.59
-80.38
-38.90
6.87
54.50
99.61
136.28
158.81
163.99
152.76
130.60
105.92
87.30
80.51
86.43
100.87
116.45
125.68
123.96
111.19
91.20
69.48
50.51
36.16
25.86
18.17
12.32
8.48
6.84
6.12
3.09
-6.47
-25.61
-54.07
-87.52
-118.69
-139.77
-144.97
-132.09
-102.85
-62.24
-17.05
25.64
60.25
83.99
97.64
105.01
111.23
120.47
134.10
150.13
164.21
171.66
169.51
157.70
139.04
118.11
99.84
88.35
86.12
93.70
109.70
130.81
152.32
168.87
175.54
169.24
149.42
118.25
79.81
38.80
-0.67
-36.06
-66.62
-93.18
-117.60
-141.95
-167.39
-193.11
-215.96
-231.02
-233.38
-220.49
-193.72
-158.30
-121.42
-89.35
-65.21
-48.65
-37.22
-28.55
-21.94
-18.47
-19.59
-25.53
-34.24
-41.61
-42.61
-32.92
-10.51
23.56
65.12
107.89
145.15
171.49
184.09
183.10
170.92
151.13
127.50
103.48
82.19
66.20
57.06
54.59
56.41
58.22
55.04
43.08
21.40
-7.44
-38.16
-64.55
-81.52
-86.44
-79.49
-62.72
-38.78
-9.68
23.86
62.43
107.44
160.00
219.46
282.21
341.40
388.19
414.33
415.13
391.41
349.21
297.40
244.28
194.92
150.38
108.75
67.18
23.63
-22.11
-68.27
-111.54
-147.63
-172.27
-182.51
-178.16
-162.27
-140.49
-119.56
-105.36
-101.51
-109.05
-126.92
-152.46
-181.68
-209.26
-228.93
-234.63
-222.41
-192.21
-148.47
-99.28
-53.92
-20.26
-2.94
-3.05
-19.05
-47.90
-85.70
-127.37
-166.46
-195.51
-207.66
-199.12
-171.11
-130.29
-86.82
-50.94
-29.17
-22.28
-25.70
-32.26
-35.52
-32.23
-22.67
-9.34
4.98
18.31
29.23
35.85
35.19
23.68
-1.00
-37.91
-81.84
-124.24
-155.65
-168.69
-160.11
-131.47
-88.29
-38.23
10.79
52.12
81.31
96.23
96.72
84.11
60.53
28.65
-8.48
-47.43
-84.47
-115.79
-137.85
-147.95
-144.72
-128.66
-102.18
-69.36
-35.10
-4.09
20.31
36.72
45.58
48.72
48.47
47.00
45.98
46.32
48.08
50.39
51.68
50.23
44.95
35.98
24.83
14.00
6.45
5.09
12.42
29.88
57.10
91.16
126.73
157.36
177.68
185.28
181.53
170.41
156.19
141.31
125.57
107.00
83.71
55.44
24.08
-7.07
-34.37
-55.06
-67.73
-72.74
-72.08
-68.96
-66.89
-68.51
-74.51
-83.61
-93.38
-101.70
-107.82
-112.48
-117.16
-123.07
-130.73
-140.12
-151.15
-163.75
-177.51
-191.21
-202.60
-208.92
-207.80
-198.05
-179.79
-154.07
-122.42
-86.88
-50.20
-15.92
12.47
32.76
44.90
50.88
53.30
53.64
51.50
45.21
33.72
18.17
2.31
-8.80
-11.07
-3.39
12.04
30.93
49.04
63.93
75.48
85.05
93.92
102.03
107.60
107.92
101.01
87.06
69.09
52.21
41.66
40.74
49.49
64.91
82.41
97.59
107.67
112.02
111.93
110.08
109.94
115.15
128.68
151.76
182.92
218.03
251.26
277.04
292.10
296.45
293.03
286.09
279.20
273.86
269.37
263.77
255.37
243.71
229.65
214.43
198.44
180.68
159.39
133.69
105.17
78.35
59.31
52.74
59.14
73.64
87.31
90.51
76.88
46.08
3.95
-39.85
-75.76
-97.91
-105.89
-104.05
-98.91
-96.10
-98.00
-103.14
-107.31
-105.86
-96.07
-78.47
-56.60
-35.42
-19.15
-9.76
-6.76
-8.43
-13.50
-22.31
-36.58
-58.01
-86.36
-118.49
-148.84
-171.46
-182.40
-181.20
-170.96
-156.73
-143.19
-132.90
-125.64
-119.39
-112.02
-102.92
-93.63
-87.25
-86.82
-93.89
-107.42
-124.19
-140.09
-151.74
-157.56
-157.99
-154.77
-150.01
-145.25
-141.08
-137.12
-132.29
-125.33
-115.25
-101.64
-84.71
-65.17
-43.88
-21.74
0.12
19.81
34.27
39.57
31.98
9.80
-25.28
-67.75
-109.43
-141.84
-158.58
-157.08
-139.14
-110.13
-77.46
-48.58
-29.20
-22.07
-26.68
-39.79
-56.55
-71.71
-80.70
-80.35
-69.33
-48.51
-20.93
8.76
35.57
55.66
67.39
71.52
70.47
67.26
64.98
66.79
76.04
95.71
126.81
166.80
209.07
244.55
265.11
266.79
251.36
225.30
196.53
171.05
150.97
134.75
119.03
100.94
79.67
56.67
34.92
17.59
6.88
3.23
5.20
9.93
14.21
15.53
12.77
6.17
-3.28
-14.59
-27.09
-40.30
-53.50
-65.49
-74.78
-80.09
-81.02
-78.25
-73.28
-67.67
-62.14
-55.84
-46.47
-31.22
-8.20
22.16
56.61
89.92
116.75
133.80
141.11
141.78
140.31
140.50
143.82
149.06
153.14
152.41
144.06
127.01
102.44
73.80
46.10
24.57
12.96
12.04
19.34
30.10
39.25
43.19
40.60
32.16
19.54
4.70
-10.34
-23.29
-31.80
-34.20
-30.67
-23.73
-17.71
-17.06
-24.41
-39.19
-57.53
-73.49
-80.70
-74.27
-52.06
-15.48
30.51
78.21
118.86
145.17
153.37
144.33
122.88
95.52
67.73
41.95
17.41
-8.21
-36.49
-66.45
-94.55
-116.30
-128.73
-132.06
-129.58
-125.86
-124.17
-124.90
-125.66
-123.00
-114.58
-100.37
-82.33
-63.00
-43.98
-25.40
-6.59
12.60
30.92
45.73
53.89
52.99
42.34
23.25
-1.29
-27.34
-50.84
-68.33
-77.36
-76.68
-66.21
-46.89
-20.52
10.44
43.04
74.03
100.17
118.57
127.34
126.37
117.71
105.45
94.60
89.57
92.60
102.96
117.34
131.23
140.53
142.82
137.54
125.36
107.30
84.15
56.33
24.30
-10.98
-47.80
-83.77
-116.54
-144.45
-167.18
-185.62
-201.09
-214.30
-224.64
-230.36
-229.51
-221.17
-206.08
-186.36
-164.53
-142.61
-121.67
-102.18
-84.37
-68.52
-54.75
-42.89
-32.49
-23.35
-16.01
-11.78
-12.09
-17.54
-26.99
-37.56
-45.50
-47.63
-42.56
-31.19
-16.14
-0.60
12.94
23.31
30.53
35.14
37.37
36.87
33.14
26.14
16.82
6.87
-2.09
-9.41
-15.84
-22.98
-32.34
-44.37
-58.05
-71.00
-80.19
-82.60
-76.02
-59.85
-35.59
-7.05
20.32
41.04
51.53
51.48
43.90
33.50
24.54
19.05
16.43
14.48
10.95
4.88
-3.13
-11.41
-18.01
-21.43
-20.94
-16.73
-9.72
-1.41
6.57
12.82
16.46
17.09
14.59
9.04
1.00
-7.94
-14.94
-16.51
-9.97
5.03
25.66
46.56
61.80
67.18
61.87
48.81
33.78
23.56
23.84
37.39
62.93
95.39
127.35
151.43
162.80
160.56
147.53
128.47
107.88
88.36
70.37
53.09
35.74
18.32
1.71
-12.98
-24.88
-33.75
-39.73
-43.11
-44.14
-43.12
-40.61
-37.60
-35.30
-34.82
-36.83
-41.30
-47.58
-54.58
-60.91
-65.12
-66.06
-63.27
-57.43
-50.47
-45.12
-43.93
-48.15
-56.85
-66.76
-73.21
-71.75
-59.96
-38.69
-11.95
14.34
34.54
45.37
46.76
41.46
33.21
24.82
17.03
8.70
-1.82
-15.18
-30.17
-44.18
-54.34
-58.73
-56.96
-50.08
-39.96
-28.69
-18.08
-9.40
-3.28
0.37
2.26
3.32
4.17
4.67
3.97
1.08
-4.35
-11.54
-18.78
-24.33
-27.45
-29.01
-31.10
-36.13
-45.46
-58.60
-73.08
-85.16
-91.06
-88.16
-75.80
-55.41
-30.12
-3.70
20.38
39.91
54.24
63.85
69.69
72.38
72.05
68.69
62.79
55.89
50.39
48.87
52.98
62.51
75.28
87.96
97.41
102.05
102.34
100.22
97.80
96.04
94.31
90.98
84.61
75.06
63.69
52.64
43.53
36.65
30.78
24.16
15.44
4.62
-6.87
-16.51
-21.39
-19.10
-8.60
8.92
29.73
48.23
58.50
56.43
41.25
15.68
-15.41
-47.12
-76.36
-102.20
-125.03
-145.10
-161.50
-172.26
-175.41
-170.10
-157.11
-138.56
-117.10
-95.13
-74.56
-57.04
-44.25
-37.84
-38.86
-46.92
-59.53
-72.33
-80.24
-79.36
-68.59
-50.32
-29.70
-12.73
-4.04
-5.26
-14.57
-27.51
-38.47
-42.42
-36.22
-19.34
6.15
36.14
65.62
90.04
106.49
114.30
114.80
110.40
103.41
95.20
85.85
74.58
60.44
43.06
23.21
2.82
-15.47
-29.11
-36.48
-37.42
-33.15
-25.63
-16.91
-8.66
-2.29
0.90
-0.24
-6.22
-16.07
-26.99
-35.04
-36.83
-31.34
-20.76
-9.76
-3.30
-4.28
-12.23
-23.47
-32.72
-34.95
-27.05
-8.64
17.85
47.71
75.09
94.68
103.45
101.76
93.20
83.02
75.78
73.36
74.37
75.21
72.12
63.14
49.04
32.80
18.16
8.01
3.41
3.53
6.44
10.15
13.36
15.72
17.43
18.75
19.51
19.19
17.34
14.10
10.43
7.89
7.90
10.92
15.97
20.86
22.85
19.83
11.22
-1.58
-15.44
-26.29
-30.35
-25.35
-11.49
8.40
29.60
47.09
57.38
59.75
56.20
50.16
44.65
40.79
37.46
32.31
23.26
9.89
-6.21
-22.10
-34.77
-42.31
-44.41
-42.15
-37.36
-31.88
-27.18
-24.16
-23.45
-25.41
-30.22
-37.56
-46.52
-55.53
-62.68
-66.34
-65.67
-61.04
-53.78
-45.79
-38.89
-34.36
-32.72
-33.64
-35.85
-37.17
-34.82
-26.35
-10.64
11.13
35.53
58.02
74.74
84.12
87.26
86.88
85.58
84.30
81.95
76.56
66.84
53.36
38.55
25.50
16.53
12.11
10.80
10.12
7.85
3.26
-2.49
-6.80
-6.90
-1.30
9.30
22.18
33.77
41.31
44.17
43.90
43.24
44.47
48.08
52.69
55.98
56.16
52.97
47.71
42.50
39.30
39.30
42.91
49.94
59.83
71.48
83.17
92.59
97.26
95.21
85.47
68.32
45.16
18.10
-10.29
-37.31
-60.33
-77.32
-87.23
-90.43
-88.65
-84.50
-80.60
-78.90
-80.23
-84.52
-91.28
-100.24
-111.58
-125.70
-142.42
-160.17
-175.79
-185.25
-185.14
-174.41
-155.27
-132.83
-113.41
-102.29
-101.99
-111.62
-127.49
-144.45
-157.45
-162.61
-157.88
-143.18
-120.26
-92.29
-63.15
-36.55
-15.22
-0.43
7.96
11.05
10.34
7.31
3.36
-0.14
-1.83
-0.55
4.32
12.67
23.56
35.48
46.87
56.48
63.64
68.28
70.70
71.45
71.15
70.46
70.00
70.28
71.47
73.24
74.76
74.81
72.12
65.76
55.43
41.82
26.75
13.08
4.11
2.73
10.17
25.18
43.94
61.14
71.86
73.46
66.56
54.50
41.75
31.86
26.16
23.76
22.54
20.64
17.54
14.11
11.97
12.32
15.10
18.80
21.18
20.31
15.71
8.64
1.54
-3.27
-4.89
-4.38
-3.91
-5.43
-9.34
-14.29
-18.16
-19.52
-18.69
-17.65
-19.03
-24.71
-34.67
-46.71
-57.08
-61.61
-57.09
-42.45
-19.31
8.18
34.61
54.96
66.39
69.03
65.50
59.43
53.63
49.09
44.93
39.39
31.05
19.68
6.46
-6.49
-16.84
-22.89
-24.22
-21.68
-16.99
-11.91
-7.57
-4.16
-1.34
1.16
3.16
4.16
3.92
3.03
2.79
4.57
8.92
14.94
20.47
22.98
20.63
13.12
1.95
-9.84
-18.52
-20.75
-14.80
-1.35
16.46
33.83
45.99
49.81
44.73
32.63
16.87
0.95
-12.56
-22.59
-29.58
-35.08
-40.89
-48.33
-57.45
-66.75
-73.62
-75.39
-70.62
-59.84
-45.38
-30.05
-16.05
-4.26
5.50
13.66
20.30
25.15
28.10
29.75
31.90
36.29
43.43
51.76
57.97
58.34
50.50
34.68
13.88
-5.79
-17.89
-17.89
-5.14
16.64
40.69
59.54
67.51
62.04
45.47
22.34
-2.24
-23.90
-39.54
-47.28
-46.55
-38.42
-25.51
-8.39
14.10
45.18
88.82
147.47
220.59
304.64
394.41
469.10
510.74
507.97
461.28
382.46
288.07
192.24
103.53
25.55
-41.12
-94.89
-134.44
-159.37
-171.01
-172.56
-168.24
-162.00
-156.78
-154.40
-153.76
-152.78
-149.35
-142.33
-132.11
-120.16
-108.08
-96.83
-86.81
-77.17
-67.79
-60.06
-56.71
-60.54
-72.51
-90.50
-109.87
-125.50
-133.48
-132.80
-125.24
-113.88
-101.48
-89.46
-77.87
-66.20
-54.21
-42.06
-30.59
-20.89
-13.80
-9.74
-8.50
-9.21
-10.73
-12.05
-12.69
-12.84
-13.14
-13.86
-14.66
-14.74
-13.26
-9.89
-5.00
0.55
5.78
9.80
12.62
14.55
15.65
15.30
12.36
5.73
-4.94
-18.81
-34.25
-48.59
-59.50
-65.92
-68.27
-68.09
-67.06
-66.20
-62.81
-57.20
-49.58
-40.47
-30.77
-21.61
-13.88
-7.76
-2.49
2.88
8.80
15.70
22.90
28.24
30.33
28.29
22.44
14.25
4.94
-4.80
-13.93
-21.44
-26.40
-28.02
-26.18
-21.91
-17.42
-16.27
-21.17
-32.01
-46.83
-63.63
-81.86
-103.33
-131.63
-165.41
-202.93
-238.77
-263.65
-268.49
-248.64
-205.96
-147.90
-84.31
-23.52
29.63
69.04
92.45
102.22
102.26
95.01
81.49
63.15
46.27
33.22
25.93
25.80
32.31
43.19
56.47
72.55
91.19
114.45
142.85
175.04
207.90
236.86
257.23
265.71
261.21
244.48
217.57
181.85
139.01
91.62
43.00
-3.44
-44.99
-80.03
-107.82
-127.20
-136.49
-132.65
-112.22
-73.60
-19.16
43.67
103.89
150.48
176.57
181.59
170.93
152.62
133.25
115.24
97.03
75.39
48.62
18.21
-11.93
-37.90
-57.99
-73.13
-85.67
-97.68
-110.19
-122.65
-133.74
-142.28
-147.98
-151.08
-151.65
-149.46
-144.33
-137.45
-129.81
-121.60
-111.99
-100.71
-89.12
-80.06
-76.54
-79.78
-88.76
-97.86
-99.30
-87.10
-61.82
-30.73
-3.29
14.23
21.95
24.44
30.12
46.60
77.67
121.41
168.58
206.81
226.38
234.37
233.91
225.50
203.55
167.97
122.78
75.14
33.88
6.86
-2.29
3.76
20.25
42.10
65.21
85.35
98.74
103.27
98.72
84.75
59.67
23.10
-23.30
-75.95
-130.81
-184.11
-232.56
-265.31
-273.62
-257.15
-224.05
-185.37
-148.88
-117.29
-90.20
-66.04
-44.02
-25.57
-13.19
-8.10
-9.19
-14.03
-19.20
-22.99
-23.22
-19.85
-15.20
-12.39
-13.63
-19.65
-30.86
-46.06
-62.65
-76.60
-83.55
-79.86
-63.63
-35.27
6.75
53.85
94.37
120.01
129.42
126.48
116.81
104.68
92.14
79.85
67.68
57.32
51.47
52.91
60.40
70.26
77.45
77.48
68.31
50.57
28.51
7.89
-6.72
-13.91
-15.13
-13.48
-11.91
-11.78
-13.31
-15.20
-15.84
-14.51
-11.88
-9.25
-7.80
-7.94
-9.28
-11.11
-12.53
-12.98
-12.51
-11.75
-11.27
-11.30
-11.69
-11.98
-11.81
-10.98
-9.51
-7.69
-5.91
-4.41
-3.32
-2.65
-2.40
-2.59
-3.22
-4.24
-5.42
-6.39
-6.73
-6.13
-4.59
-2.47
-0.33
1.29
2.10
2.15
1.80
1.47
1.41
1.60
1.77
1.67
1.21
0.61
0.30
0.71
2.05
4.19
6.73
9.17
11.11
12.40
13.18
13.74
14.35
15.15
16.13
17.13
17.91
18.22
17.79
16.35
13.63
9.48
3.90
-2.86
-10.31
-17.84
-24.82
-30.81
-35.55
-39.10
-41.65
-43.50
-44.87
-45.81
-46.16
-45.60
-43.83
-40.71
-36.38
-31.27
-25.97
-21.01
-16.65
-12.84
-9.15
-5.06
-0.12
5.83
12.60
19.61
26.09
31.25
34.52
35.68
34.83
32.30
28.48
23.72
18.30
12.48
6.62
1.24
-3.11
-5.95
-7.07
-6.66
-5.27
-3.70
-2.65
-2.51
-3.17
-4.09
-4.56
-4.13
-2.78
-0.92
1.07
3.31
6.68
12.50
21.75
34.31
48.68
62.61
74.27
83.19
90.34
97.24
104.61
111.64
116.33
116.82
112.79
106.04
99.73
96.87
98.93
105.37
114.47
124.65
135.61
148.28
163.79
182.01
201.02
217.88
230.44
239.09
247.01
258.56
276.57
300.16
324.46
342.59
348.80
340.87
320.49
291.70
258.36
222.47
184.15
142.88
98.89
53.72
9.51
-32.15
-71.19
-109.04
-147.88
-189.40
-233.99
-280.69
-327.59
-372.95
-415.95
-457.07
-497.98
-541.14
-589.17
-643.89
-705.04
-769.12
-829.11
-875.63
-899.54
-895.12
-862.13
-805.83
-734.64
-656.94
-578.35
-501.09
-425.06
-349.77
-275.72
-204.30
-136.91
-73.78
-13.81
44.80
103.59
163.01
222.25
279.11
330.64
373.67
405.66
425.37
433.24
431.10
421.31
405.82
385.62
361.02
332.41
301.04
269.20
239.59
214.33
193.99
177.57
163.08
148.78
133.92
118.94
105.00
93.20
83.94
76.72
70.59
64.65
58.60
52.77
47.84
44.34
42.29
41.09
39.85
