1660753274.00
64.000000
-0.00
-0.00
-0.00
-0.00
-0.00
-0.00
-0.00
-0.00
-0.00
-0.00
0.00
0.01
0.01
-0.00
-0.03
-0.05
-0.05
0.00
0.13
0.36
0.66
1.01
1.37
1.72
2.06
2.40
2.79
3.24
3.80
4.42
5.06
5.66
6.20
6.68
7.15
7.68
8.31
9.14
10.09
11.04
11.88
12.56
13.14
13.76
14.65
15.96
17.91
20.32
22.90
25.38
27.58
29.57
31.68
34.32
37.81
42.54
48.15
54.10
59.83
64.97
69.58
74.14
79.34
85.71
93.76
103.00
112.62
121.73
129.77
136.75
143.30
150.75
157.77
166.64
177.95
191.79
206.97
220.57
228.25
225.36
208.53
176.87
132.76
80.05
23.07
-34.94
-92.44
-149.16
-205.23
-260.37
-313.74
-363.87
-409.83
-450.91
-486.50
-515.74
-537.23
-549.22
-549.96
-538.37
-514.21
-478.67
-433.88
-382.45
-327.02
-269.84
-212.63
-156.66
-102.95
-52.37
-5.90
35.58
71.43
101.35
125.50
144.38
158.69
169.15
176.37
180.75
182.57
182.07
179.51
175.23
169.65
163.18
156.15
148.81
141.30
133.69
126.02
118.33
110.69
103.16
95.80
88.68
81.83
75.25
68.95
62.95
57.25
51.86
46.78
42.03
37.59
33.45
29.61
26.07
22.81
19.83
17.11
14.67
12.48
10.54
8.83
7.35
6.07
4.97
4.05
3.27
2.62
2.09
1.65
1.30
1.01
0.79
0.61
0.48
0.37
0.29
0.24
0.21
0.19
0.18
0.18
0.20
0.22
0.25
0.28
0.32
0.36
0.40
0.45
0.49
0.54
0.59
0.64
0.70
0.76
0.82
0.89
0.97
1.06
1.15
1.25
1.37
1.50
1.65
1.82
2.00
2.21
2.43
2.69
2.96
3.27
3.60
3.97
4.38
4.81
5.29
5.80
6.35
6.94
7.57
8.25
8.97
9.73
10.54
11.40
12.30
13.25
14.25
15.32
16.45
17.64
18.89
20.17
21.44
22.66
23.72
24.53
24.96
24.90
24.24
22.88
20.81
18.01
14.57
10.56
6.19
1.64
-2.86
-7.10
-10.89
-14.07
-16.51
-18.19
-19.13
-19.37
-19.08
-18.38
-17.39
-16.20
-14.88
-13.45
-11.95
-10.40
-8.80
-7.24
-5.73
-4.30
-2.89
-1.43
0.12
1.82
3.67
5.67
7.65
9.53
11.29
13.01
14.81
16.83
19.14
21.74
24.58
27.25
29.51
31.34
32.90
34.50
36.45
38.92
41.88
45.18
48.07
50.10
51.19
51.63
51.95
52.67
54.03
55.92
57.92
58.79
57.70
54.31
48.75
41.33
32.22
20.87
5.64
-11.21
-29.80
-50.72
-74.73
-102.33
-133.12
-165.29
-195.30
-218.51
-230.34
-228.70
-214.14
-189.96
-161.01
-132.00
-106.08
-84.40
-66.74
-52.35
-41.17
-33.17
-27.99
-24.68
-21.85
-18.24
-13.27
-7.28
-1.19
3.77
7.10
9.13
10.79
12.99
16.21
20.27
24.54
28.32
30.99
32.42
32.97
33.34
34.20
35.89
38.17
40.24
41.08
39.70
35.63
29.03
20.67
11.67
3.31
-3.21
-6.96
-7.58
-5.43
-1.66
2.13
4.50
4.79
3.40
1.50
0.42
0.89
2.76
5.21
7.27
8.28
8.09
6.95
5.27
3.42
1.68
0.30
-0.57
-0.91
-0.92
-0.92
-1.26
-2.13
-3.55
-5.35
-7.19
-8.72
-9.76
-10.24
-10.39
-10.60
-11.23
-12.40
-13.96
-15.64
-17.42
-19.73
-23.31
-28.96
-37.07
-47.52
-59.69
-72.65
-85.36
-96.73
-105.62
-110.97
-112.15
-109.19
-102.92
-94.55
-85.14
-75.23
-64.74
-53.21
-40.18
-25.55
-9.54
7.31
24.30
40.71
55.96
69.64
81.53
91.49
99.30
104.67
107.34
107.32
105.11
101.68
98.19
95.49
93.76
92.43
90.53
87.29
82.53
76.84
71.30
66.84
63.72
61.42
59.02
55.81
51.57
46.53
41.01
35.13
28.83
22.15
15.57
9.89
5.85
3.59
2.57
1.82
0.57
-1.34
-3.49
-5.11
-5.65
-4.93
-3.13
-0.59
2.37
5.44
8.26
10.46
11.65
11.62
10.42
8.30
5.67
2.96
0.56
-1.18
-2.00
-1.79
-0.71
0.90
2.49
3.60
4.03
3.93
3.60
3.27
2.88
2.07
0.39
-2.52
-6.85
-12.49
-18.95
-25.39
-30.60
-33.31
-32.59
-28.43
-21.84
-14.54
-8.26
-3.93
-1.51
-0.20
0.94
2.40
4.20
6.06
7.88
9.72
11.77
14.00
16.02
17.25
17.18
15.73
13.26
10.39
7.66
5.27
3.12
0.95
-1.39
-3.89
-6.41
-8.81
-11.05
-12.97
-14.32
-14.83
-14.45
-13.64
-13.31
-14.51
-18.01
-23.94
-31.69
-40.06
-47.69
-53.45
-56.74
-57.65
-56.98
-56.02
-56.18
-58.47
-63.13
-69.50
-76.48
-83.04
-88.79
-94.07
-99.61
-106.12
-113.93
-123.05
-133.37
-144.90
-157.91
-172.75
-189.60
-208.36
-228.74
-250.39
-272.85
-295.17
-315.61
-331.65
-340.64
-340.77
-332.00
-316.18
-296.44
-275.95
-256.82
-239.78
-224.54
-210.63
-197.92
-186.70
-177.28
-169.60
-163.06
-156.82
-150.26
-143.17
-135.70
-128.15
-120.56
-112.67
-103.97
-94.00
-82.69
-70.40
-57.90
-46.09
-35.63
-26.65
-18.71
-10.97
-2.40
7.77
19.95
34.16
50.24
68.05
87.72
109.62
134.20
161.59
191.45
222.75
253.93
283.28
309.52
332.51
353.87
377.20
407.11
446.96
496.46
550.11
597.94
628.77
634.13
611.11
562.36
494.09
413.39
327.36
243.85
172.01
120.83
95.31
92.62
101.35
105.62
92.55
58.67
11.61
-33.98
-64.16
-71.46
-56.64
-25.45
16.15
64.47
116.95
169.01
212.25
236.81
236.77
215.53
186.58
168.34
175.58
211.78
267.25
323.97
364.50
379.80
371.81
350.21
325.96
305.85
290.92
278.61
266.35
253.92
243.44
237.41
236.61
239.46
242.62
242.89
238.66
230.52
220.74
211.90
205.54
201.39
197.51
191.30
180.83
165.85
148.14
130.89
117.37
109.64
107.71
109.71
112.88
114.89
114.86
113.70
113.51
116.40
123.45
134.08
146.29
157.48
165.50
169.36
169.37
166.75
162.90
158.78
154.67
150.29
145.24
139.24
132.18
124.03
114.53
103.17
89.22
72.08
51.44
27.40
0.46
-28.73
-59.50
-91.34
-123.83
-156.65
-189.40
-221.57
-252.53
-281.53
-307.91
-331.11
-350.74
-366.65
-378.81
-387.37
-392.57
-394.70
-394.11
-391.19
-386.28
-379.72
-371.86
-363.07
-353.72
-344.30
-335.38
-327.67
-322.12
-319.80
-321.62
-327.78
-337.52
-348.97
-359.69
-367.37
-370.47
-369.25
-364.53
-356.91
-346.52
-333.44
-318.00
-300.78
-282.45
-263.57
-245.22
-227.92
-211.29
-194.21
-175.43
-153.80
-128.31
-98.00
-62.25
-22.97
17.60
57.55
95.16
128.23
154.40
172.09
181.44
184.19
177.86
161.66
138.19
112.42
88.28
67.14
48.62
31.75
15.88
-9.57
-50.94
-105.45
-163.30
-215.43
-257.69
-289.75
-312.74
-327.66
-351.79
-396.36
-458.86
-526.02
-585.61
-632.76
-668.02
-693.86
-712.47
-747.38
-814.38
-911.25
-1021.67
-1130.18
-1230.37
-1322.64
-1410.09
-1361.19
-1116.79
-723.35
-296.65
72.69
355.65
561.26
708.47
812.65
884.76
911.26
886.48
823.50
749.03
686.02
644.39
623.82
616.76
621.23
619.24
598.74
560.56
515.06
470.76
429.05
387.56
344.24
301.21
252.84
198.61
145.67
105.10
83.84
81.28
95.28
118.43
143.18
157.56
153.11
127.45
83.48
25.83
-40.95
-111.78
-181.10
-241.83
-289.28
-319.93
-331.81
-325.38
-304.24
-274.29
-241.54
-210.76
-183.81
-160.71
-140.70
-123.37
-108.89
-97.60
-89.38
-83.37
-78.54
-73.66
-68.03
-61.69
-55.18
-49.10
-43.66
-38.50
-32.75
-25.61
-16.44
-5.21
7.53
20.76
33.33
44.26
52.99
59.44
63.77
66.38
67.66
67.85
66.99
65.00
61.81
57.50
52.43
47.22
42.71
39.61
38.35
38.89
40.69
43.04
45.29
47.23
49.30
52.32
57.30
64.96
75.45
88.27
102.57
117.37
131.89
145.74
158.85
171.43
184.29
198.92
217.15
240.19
267.16
293.96
313.80
319.40
306.25
275.50
234.61
195.12
168.36
161.26
174.22
201.89
235.88
267.72
290.45
298.90
289.58
261.33
216.48
161.81
107.25
62.73
34.16
20.79
15.77
9.93
-3.42
-25.18
-50.46
-71.81
-83.54
-84.62
-78.53
-70.92
-66.13
-65.00
-65.23
-63.10
-55.89
-43.28
-27.24
-11.25
0.47
3.26
-7.56
-35.56
-81.38
-140.94
-205.30
-262.73
-302.55
-318.64
-311.18
-285.45
-249.02
-208.72
-169.17
-132.86
-100.92
-73.82
-51.00
-30.39
-8.20
19.89
56.88
102.22
151.04
195.16
225.75
237.15
229.48
208.98
185.52
168.38
162.29
165.78
172.77
176.25
172.25
161.68
149.74
143.21
147.39
163.94
190.08
218.99
241.26
247.37
230.84
191.32
136.17
79.19
36.39
20.35
35.67
77.52
133.99
190.66
235.35
260.81
265.05
249.85
218.96
176.78
127.62
75.40
23.19
-27.47
-76.96
-126.94
-178.87
-232.27
-283.71
-327.55
-358.19
-372.64
-371.71
-359.49
-340.84
-318.93
-294.32
-265.76
-232.17
-194.11
-154.02
-115.57
-83.07
-61.09
-54.29
-66.34
-97.90
-144.77
-197.56
-244.12
-273.44
-279.62
-263.29
-230.31
-188.64
-145.10
-103.89
-66.75
-33.96
-5.11
20.85
46.15
74.32
109.49
154.77
210.07
270.68
327.32
368.14
382.59
365.58
320.11
256.94
191.04
136.38
101.39
87.41
90.42
104.47
124.59
147.34
169.21
184.60
185.53
164.35
118.18
52.28
-19.69
-79.51
-110.86
-105.29
-65.04
-1.50
69.31
132.18
176.58
197.79
195.80
173.41
135.12
86.72
35.03
-13.27
-53.66
-85.68
-112.89
-140.43
-171.44
-204.33
-232.74
-248.78
-247.40
-229.16
-199.77
-166.76
-135.80
-109.10
-86.45
-67.50
-53.25
-45.25
-43.88
-47.41
-53.41
-61.26
-73.79
-96.05
-131.46
-177.87
-226.37
-264.29
-280.71
-271.42
-240.48
-197.34
-151.84
-109.99
-72.67
-37.17
-0.12
40.11
82.87
125.77
165.89
200.62
228.07
247.04
257.16
258.78
252.70
239.96
221.71
199.28
174.62
150.43
130.08
116.79
112.91
119.22
134.76
156.95
181.75
203.71
216.34
213.32
190.67
149.23
96.08
43.61
6.15
-4.78
15.49
63.23
127.85
195.53
253.37
292.26
308.03
301.01
274.75
234.68
186.92
137.28
90.18
48.18
11.70
-20.61
-50.97
-81.99
-116.27
-156.10
-202.92
-256.23
-312.57
-365.74
-408.47
-435.41
-445.55
-442.57
-432.58
-420.50
-407.43
-391.09
-369.00
-341.94
-315.32
-296.75
-291.54
-299.04
-312.29
-321.39
-318.34
-300.51
-270.65
-234.24
-196.33
-159.40
-123.54
-88.02
-52.67
-18.03
15.32
47.83
81.43
119.04
163.23
214.57
270.52
325.26
371.19
401.50
412.85
406.92
389.90
370.06
354.53
346.84
346.35
349.76
353.46
355.62
356.61
358.04
360.78
363.66
363.32
355.51
336.85
306.16
265.10
217.82
170.02
127.83
96.27
77.97
72.14
74.69
79.57
80.95
75.15
61.48
41.39
16.70
-11.93
-45.10
-83.63
-126.94
-172.31
-215.67
-253.44
-284.43
-310.90
-337.95
-371.78
-416.79
-473.06
-535.02
-592.35
-633.21
-648.55
-635.66
-599.01
-548.06
-492.91
-440.31
-391.96
-345.58
-297.89
-247.47
-195.83
-146.25
-101.95
-63.96
-30.63
1.34
35.53
74.46
119.03
168.53
220.92
273.01
320.50
358.28
381.48
387.02
375.18
350.13
319.02
289.67
267.97
256.11
252.31
252.11
250.37
243.15
228.89
208.60
185.19
162.31
142.93
128.54
119.03
113.41
110.40
108.88
107.65
104.91
98.01
84.29
62.54
34.31
3.79
-23.76
-44.37
-57.00
-63.29
-65.92
-66.62
-65.54
-62.15
-56.89
-51.72
-49.36
-51.66
-58.62
-68.80
-80.75
-93.95
-108.54
-123.88
-137.40
-145.04
-143.30
-131.69
-113.58
-94.62
-79.89
-71.41
-67.59
-64.90
-60.29
-53.00
-44.55
-37.55
-34.16
-35.03
-39.23
-44.86
-50.00
-53.45
-55.05
-55.44
-55.44
-55.40
-55.07
-53.93
-51.88
-49.66
-48.64
-50.11
-54.35
-60.33
-66.13
-69.88
-70.47
-67.86
-62.76
-56.10
-48.68
-41.06
-33.62
-26.58
-19.87
-13.08
-5.74
2.42
11.14
19.72
27.37
33.61
38.51
42.63
46.72
51.36
56.61
61.99
66.62
69.50
69.68
66.53
59.89
50.27
38.77
26.87
16.08
7.63
2.20
-0.16
0.04
1.94
4.52
6.88
8.46
9.13
9.12
8.86
8.75
8.93
9.15
8.84
7.47
4.73
0.79
-3.82
-8.37
-12.19
-14.81
-16.01
-15.59
-13.35
-9.22
-3.39
3.51
10.57
16.76
21.34
23.94
24.55
23.38
20.64
16.45
10.93
4.29
-3.06
-10.48
-17.30
-22.88
-26.88
-29.24
-30.14
-29.81
-28.43
-26.02
-22.51
-17.95
-12.52
-6.65
-0.88
4.31
8.53
11.49
13.13
13.55
13.10
12.27
11.53
11.19
11.15
11.06
10.52
9.32
7.57
5.62
3.78
2.18
0.74
-0.70
-2.29
-4.13
-6.35
-9.24
-13.19
-18.57
-25.40
-33.18
-40.78
-46.75
-49.82
-49.30
-45.50
-39.48
-32.74
-26.64
-21.98
-18.96
-17.15
-15.69
-13.50
-9.50
-2.95
6.11
16.76
27.36
36.05
41.65
44.03
44.18
43.55
43.29
43.63
43.91
43.03
40.21
35.43
29.42
23.23
17.82
13.69
10.91
9.17
8.02
6.95
5.55
3.49
0.54
-3.33
-7.85
-12.35
-15.91
-17.57
-16.76
-13.42
-8.12
-1.85
4.27
9.24
12.52
13.96
13.86
12.71
11.07
9.42
8.15
7.43
7.23
7.34
7.45
7.24
6.59
5.50
4.15
2.76
1.49
0.40
-0.55
-1.41
-2.20
-2.86
-3.28
-3.27
-2.74
-1.84
-0.99
-0.86
-2.10
-5.01
-9.35
-14.41
-19.16
-22.68
-24.36
-23.97
-21.59
-17.54
-12.30
-6.56
-1.25
2.72
4.69
4.58
2.98
0.86
-0.91
-1.85
-2.05
-1.96
-2.10
-2.72
-3.77
-4.93
-5.86
-6.32
-6.29
-5.85
-5.18
-4.32
-3.24
-1.86
-0.16
1.71
3.45
4.73
5.45
5.79
6.15
6.84
7.86
8.73
8.69
7.10
3.73
-1.07
-6.44
-11.35
-14.89
-16.53
-16.23
-14.40
-11.77
-9.12
-7.09
-5.98
-5.72
-6.05
-6.71
-7.51
-8.29
-8.86
-8.90
-8.21
-6.82
-5.05
-3.32
-1.89
-0.64
0.82
2.90
5.77
9.18
12.70
15.90
18.49
20.30
21.22
21.18
20.22
18.68
17.31
16.92
17.94
20.05
22.10
22.58
20.35
15.09
7.38
-1.67
-10.87
-19.25
-26.03
-30.53
-32.27
-31.06
-27.24
-21.71
-15.61
-9.89
-5.06
-1.10
2.21
5.03
7.25
8.58
8.77
7.65
5.27
1.86
-2.23
-6.50
-10.34
-13.19
-14.71
-14.88
-13.91
-12.04
-9.43
-6.13
-2.23
2.05
6.42
10.61
14.48
17.98
20.98
23.15
23.98
22.98
19.84
14.67
8.01
0.72
-6.22
-11.90
-15.67
-17.31
-17.06
-15.57
-13.65
-12.00
-10.96
-10.41
-9.92
-9.03
-7.44
-5.14
-2.33
0.72
3.72
6.42
8.60
10.18
11.16
11.66
11.88
11.99
12.07
12.11
11.97
11.50
10.61
9.26
7.51
5.49
3.45
1.71
0.51
-0.05
-0.20
-0.38
-1.12
-2.73
-5.24
-8.34
-11.52
-14.21
-15.90
-16.18
-14.89
-12.21
-8.65
-5.02
-2.08
-0.33
0.08
-0.61
-2.01
-3.84
-5.90
-8.04
-9.99
-11.40
-11.89
-11.27
-9.64
-7.24
-4.41
-1.42
1.51
4.08
5.98
6.97
6.96
6.15
4.93
3.70
2.76
2.21
2.01
2.09
2.29
2.29
1.67
-0.03
-3.16
-7.72
-13.31
-19.15
-24.29
-27.82
-29.11
-28.05
-25.09
-21.17
-17.35
-14.49
-12.85
-12.11
-11.58
-10.58
-8.86
-6.69
-4.59
-3.03
-2.29
-2.46
-3.53
-5.51
-8.39
-12.06
-16.27
-20.75
-25.24
-29.62
-33.82
-37.74
-41.13
-43.84
-45.92
-47.71
-49.67
-52.10
-54.86
-57.31
-58.58
-57.98
-55.34
-51.11
-45.97
-40.38
-34.26
-27.23
-18.97
-9.70
-0.07
9.18
17.72
25.81
33.86
41.85
48.96
53.80
55.26
53.29
49.10
44.64
41.51
40.12
39.66
38.76
36.39
32.54
28.08
24.06
21.18
19.42
18.25
17.09
15.70
14.33
13.49
13.55
14.37
15.34
15.66
14.82
12.95
10.78
9.11
8.35
8.34
8.59
8.83
9.42
11.26
15.22
21.38
28.73
35.51
40.02
41.55
40.57
38.25
35.71
33.42
31.21
28.72
25.93
23.41
22.02
22.41
24.58
27.76
30.77
32.51
32.50
30.97
28.73
26.74
25.71
25.85
26.79
27.79
28.12
27.41
25.92
24.41
23.74
24.62
27.05
30.30
33.17
34.54
34.14
32.64
31.27
31.33
33.68
38.57
45.71
54.55
64.29
73.74
80.76
82.26
74.87
56.41
26.63
-12.77
-59.35
-111.61
-169.27
-232.69
-300.90
-369.42
-429.14
-469.43
-482.33
-466.09
-426.81
-374.46
-319.54
-269.55
-227.14
-189.42
-152.17
-112.89
-71.68
-31.43
7.61
46.88
87.23
127.47
165.70
198.08
220.45
230.73
228.20
218.72
210.13
207.76
213.21
227.34
248.22
272.18
295.08
311.04
320.43
326.47
331.92
315.64
263.68
174.39
61.29
-36.03
-108.89
-156.87
-180.84
-188.04
-182.00
-162.15
-128.16
-81.26
-24.66
33.99
91.57
148.64
206.53
266.97
333.31
406.13
481.18
549.11
594.61
607.69
587.50
539.34
472.99
401.74
336.93
284.69
245.16
210.73
174.51
135.21
92.14
44.21
-7.82
-62.34
-117.41
-171.02
-224.41
-277.26
-323.36
-358.23
-381.30
-393.11
-395.37
-390.54
-364.87
-309.94
-251.62
-202.64
-157.85
-116.34
-78.29
-44.72
-16.93
4.08
15.52
16.09
11.01
4.91
-0.75
-5.11
-8.14
-10.54
-13.45
-19.82
-31.69
-45.99
-59.76
-72.11
-82.34
-90.32
-96.67
-102.67
-111.21
-124.92
-143.13
-164.44
-187.26
-208.27
-222.98
-226.97
-217.43
-194.93
-163.06
-126.35
-90.17
-59.43
-36.66
-21.80
-13.06
-7.96
-4.59
-1.72
1.59
5.84
11.22
18.07
26.76
37.22
48.80
60.32
70.66
79.40
87.17
95.45
105.82
119.07
134.61
150.47
163.93
172.49
174.48
169.38
157.77
141.29
122.55
104.98
92.25
87.10
90.17
99.51
111.00
120.06
123.38
120.27
112.48
103.14
95.04
89.53
86.40
84.44
82.38
79.27
74.42
67.05
56.17
40.97
21.25
-2.05
-27.07
-51.70
-74.42
-95.03
-114.62
-135.08
-158.23
-184.98
-214.95
-246.72
-278.45
-308.77
-337.32
-364.96
-393.60
-425.87
-464.41
-510.84
-564.35
-620.70
-672.34
-710.13
-726.26
-717.22
-685.12
-636.78
-580.90
-524.86
-472.71
-425.29
-381.75
-341.45
-304.82
-272.93
-246.29
-223.98
-203.69
-182.79
-159.57
-134.01
-107.76
-83.29
-62.56
-46.03
-32.28
-18.56
-1.85
19.87
46.82
77.38
108.89
138.98
166.55
192.28
218.20
246.67
279.47
317.28
359.78
405.74
452.80
497.29
534.51
560.06
571.74
571.18
563.57
555.38
550.85
549.45
545.70
531.93
502.31
455.80
396.45
331.07
265.76
203.52
143.95
84.87
24.14
-39.39
-106.00
-175.25
-245.96
-315.35
-378.49
-428.76
-459.68
-467.30
-451.68
-416.75
-368.60
-313.35
-255.98
-200.31
-149.88
-108.22
-78.19
-60.63
-53.50
-52.34
-52.07
-49.23
-43.28
-36.25
-31.15
-30.15
-33.25
-38.33
-42.13
-41.36
-33.70
-18.09
5.20
34.75
68.18
102.67
135.63
165.44
192.00
216.66
241.34
267.06
292.71
314.70
328.02
328.16
313.12
284.43
246.76
206.26
168.50
136.95
112.64
94.70
81.33
70.71
61.53
53.10
45.19
37.64
29.86
20.51
7.43
-11.73
-38.21
-71.07
-106.92
-140.97
-168.88
-188.46
-200.21
-206.22
-208.38
-207.13
-201.54
-190.71
-175.22
-157.63
-141.54
-129.74
-122.72
-118.77
-115.37
-110.78
-104.69
-97.89
-90.91
-83.06
-72.14
-54.97
-28.49
9.15
57.78
114.37
172.70
223.88
258.02
267.08
248.44
206.24
150.77
95.22
51.53
26.48
19.80
24.83
31.52
31.45
20.01
-2.49
-31.41
-59.56
-79.58
-86.16
-77.17
-53.47
-15.37
35.21
93.79
152.88
203.28
236.40
246.87
234.25
203.49
166.92
136.89
120.96
119.57
127.84
139.14
148.64
155.09
160.63
173.79
201.41
244.60
297.97
352.90
401.54
439.50
465.91
453.10
386.36
269.42
124.53
-21.34
-149.69
-253.31
-332.06
-388.80
-427.33
-447.05
-447.86
-433.83
-411.32
