1660937440.00
64.000000
-0.00
-0.00
-0.00
-0.00
-0.00
-0.00
-0.00
-0.00
-0.00
-0.00
0.00
0.01
0.01
-0.00
-0.03
-0.05
-0.05
0.00
0.13
0.36
0.66
1.01
1.37
1.72
2.06
2.40
2.79
3.25
3.81
4.44
5.10
5.73
6.32
6.89
7.51
8.24
9.15
10.29
11.57
12.85
14.01
14.99
15.88
16.88
18.22
20.06
22.59
25.58
28.74
31.76
34.51
37.10
39.91
43.40
47.90
53.73
60.47
67.54
74.36
80.63
86.56
92.76
100.04
108.90
119.76
131.92
144.40
156.27
167.10
177.21
187.55
199.68
212.27
227.31
244.97
264.98
285.97
305.26
319.02
323.19
314.79
292.92
259.50
217.68
171.12
122.78
74.48
27.10
-18.72
-62.27
-102.81
-139.73
-173.56
-205.58
-237.57
-271.04
-306.48
-342.68
-376.57
-403.92
-420.45
-423.50
-413.14
-392.15
-364.96
-335.89
-307.82
-281.64
-256.97
-233.05
-209.85
-188.09
-168.67
-151.98
-137.50
-124.10
-110.58
-96.42
-81.83
-67.74
-55.20
-44.81
-36.50
-29.67
-23.49
-17.30
-10.88
-4.44
1.57
6.70
10.71
13.65
15.81
17.57
19.27
21.07
22.95
24.72
26.11
26.96
27.24
27.09
26.76
26.44
26.22
26.03
25.72
25.18
24.40
23.49
22.61
21.90
21.39
21.00
20.56
19.98
19.22
18.37
17.55
16.86
16.33
15.90
15.48
15.04
14.56
14.10
13.72
13.44
13.26
13.15
13.03
12.83
12.52
12.09
11.58
11.08
10.65
10.37
10.22
10.16
10.10
9.99
9.78
9.47
9.08
8.62
8.13
7.62
7.13
6.69
6.31
6.02
5.83
5.72
5.70
5.72
5.73
5.70
5.59
5.39
5.11
4.78
4.40
3.92
3.35
2.70
2.06
1.50
1.06
0.70
0.31
-0.22
-0.91
-1.70
-2.47
-3.10
-3.55
-3.87
-4.21
-4.68
-5.33
-6.12
-6.96
-7.74
-8.41
-8.94
-9.35
-9.64
-9.81
-9.85
-9.77
-9.62
-9.43
-9.21
-8.94
-8.57
-8.05
-7.35
-6.54
-5.76
-5.14
-4.78
-4.68
-4.70
-4.64
-4.30
-3.62
-2.66
-1.63
-0.73
-0.10
0.31
0.60
0.96
1.46
2.04
2.56
2.89
2.99
2.90
2.75
2.65
2.64
2.71
2.83
2.97
3.11
3.25
3.38
3.49
3.59
3.70
3.86
4.08
4.31
4.48
4.52
4.43
4.30
4.26
4.41
4.75
5.21
5.61
5.82
5.75
5.44
5.00
4.54
4.16
3.88
3.67
3.53
3.47
3.52
3.69
3.95
4.21
4.36
4.34
4.17
3.96
3.79
3.72
3.71
3.66
3.50
3.19
2.77
2.32
1.95
1.70
1.60
1.61
1.69
1.80
1.91
2.00
2.04
2.02
1.94
1.78
1.56
1.31
1.11
1.02
1.11
1.35
1.68
1.98
2.14
2.12
1.95
1.71
1.50
1.41
1.43
1.53
1.66
1.79
1.89
1.98
2.03
2.03
1.95
1.74
1.44
1.10
0.82
0.65
0.60
0.63
0.67
0.69
0.65
0.58
0.51
0.48
0.51
0.63
0.81
1.05
1.27
1.44
1.52
1.52
1.45
1.36
1.27
1.21
1.16
1.14
1.15
1.21
1.31
1.44
1.53
1.57
1.52
1.40
1.22
1.01
0.76
0.50
0.25
0.00
-0.21
-0.34
-0.40
-0.37
-0.27
-0.12
0.05
0.21
0.33
0.38
0.36
0.32
0.31
0.43
0.68
1.04
1.42
1.71
1.84
1.79
1.61
1.34
1.04
0.75
0.51
0.36
0.33
0.43
0.65
0.92
1.18
1.38
1.47
1.43
1.27
1.01
0.72
0.48
0.36
0.38
0.48
0.59
0.62
0.56
0.42
0.30
0.25
0.29
0.41
0.53
0.61
0.62
0.57
0.47
0.34
0.21
0.13
0.14
0.29
0.57
0.92
1.24
1.44
1.44
1.26
0.98
0.71
0.52
0.44
0.44
0.46
0.45
0.39
0.29
0.20
0.13
0.09
0.07
0.02
-0.11
-0.31
-0.54
-0.71
-0.72
-0.50
-0.09
0.41
0.84
1.12
1.19
1.08
0.85
0.57
0.29
0.05
-0.10
-0.13
-0.03
0.18
0.43
0.61
0.67
0.55
0.27
-0.12
-0.52
-0.85
-1.01
-0.96
-0.75
-0.42
-0.08
0.21
0.42
0.54
0.57
0.51
0.37
0.19
0.02
-0.09
-0.11
-0.04
0.06
0.16
0.24
0.33
0.45
0.57
0.63
0.54
0.29
-0.09
-0.47
-0.75
-0.86
-0.85
-0.83
-0.94
-1.21
-1.58
-1.90
-2.05
-1.98
-1.76
-1.58
-1.57
-1.78
-2.15
-2.52
-2.76
-2.81
-2.72
-2.61
-2.60
-2.74
-3.05
-3.47
-3.97
-4.51
-5.05
-5.55
-5.96
-6.20
-6.28
-6.23
-6.22
-6.43
-6.99
-7.85
-8.80
-9.52
-9.76
-9.47
-8.88
-8.41
-8.44
-9.12
-10.29
-11.50
-12.21
-12.03
-10.91
-9.17
-7.35
-6.09
-5.79
-6.57
-8.21
-10.31
-12.51
-14.68
-16.97
-19.62
-22.74
-26.05
-28.91
-30.61
-30.79
-29.81
-28.71
-28.87
-31.35
-36.36
-43.12
-50.13
-55.92
-59.65
-61.50
-62.61
-64.50
-68.50
-75.36
-85.21
-97.58
-111.44
-124.85
-134.67
-136.99
-128.30
-107.27
-75.87
-38.89
-1.84
31.80
62.07
91.83
124.29
160.14
196.42
227.71
249.08
258.66
258.59
253.64
248.92
247.74
250.76
256.35
261.53
262.93
257.39
242.40
216.39
178.88
130.51
73.24
10.50
-52.84
-110.90
-157.92
-189.83
-205.70
-208.20
-202.69
-195.19
-190.23
-189.57
-192.34
-196.42
-199.87
-201.99
-203.43
-205.56
-209.63
-216.43
-226.15
-238.44
-252.36
-266.17
-277.14
-281.80
-276.85
-260.20
-231.78
-193.68
-149.15
-101.31
-52.00
-1.61
49.97
102.11
152.55
197.63
233.55
257.93
270.78
274.42
272.46
268.46
264.88
262.84
262.54
263.82
266.51
270.47
275.35
280.44
284.89
288.00
289.60
290.19
290.79
292.53
295.95
300.31
303.48
302.27
293.47
275.08
247.11
211.56
171.57
130.03
88.51
46.79
3.44
-42.92
-92.20
-142.10
-188.39
-226.19
-251.69
-263.57
-263.36
-254.63
-241.52
-227.14
-213.01
-199.32
-185.80
-172.57
-160.30
-149.73
-141.08
-133.71
-126.43
-118.14
-108.43
-97.78
-87.31
-78.18
-71.05
-65.79
-61.62
-57.55
-52.80
-47.11
-40.84
-34.65
-29.24
-25.04
-22.04
-19.91
-18.13
-16.26
-14.06
-11.58
-9.10
-6.96
-5.41
-4.49
-4.00
-3.61
-3.02
-2.10
-0.93
0.21
1.07
1.50
1.50
1.24
0.92
0.68
0.59
0.62
0.73
0.84
0.89
0.87
0.81
0.72
0.65
0.58
0.49
0.35
0.19
0.04
-0.01
0.09
0.30
0.56
0.78
0.89
0.89
0.82
0.74
0.69
0.71
0.79
0.96
1.19
1.49
1.81
2.08
2.23
2.21
2.06
1.83
1.60
1.48
1.49
1.61
1.77
1.90
1.91
1.78
1.53
1.21
0.91
0.71
0.70
0.87
1.17
1.43
1.46
1.12
0.38
-0.67
-1.83
-2.90
-3.75
-4.33
-4.65
-4.75
-4.63
-4.37
-4.02
-3.69
-3.46
-3.34
-3.25
-3.04
-2.63
-2.03
-1.42
-0.99
-0.89
-1.13
-1.57
-2.02
-2.28
-2.28
-2.07
-1.78
-1.52
-1.39
-1.39
-1.53
-1.76
-2.05
-2.36
-2.62
-2.80
-2.83
-2.70
-2.44
-2.11
-1.83
-1.69
-1.78
-2.07
-2.49
-2.87
-3.03
-2.80
-2.16
-1.17
-0.01
1.13
2.15
3.01
3.75
4.43
5.07
5.67
6.18
6.60
6.92
7.18
7.33
7.31
7.04
6.49
5.73
4.86
4.04
3.33
2.74
2.21
1.65
1.01
0.28
-0.49
-1.25
-1.97
-2.64
-3.25
-3.78
-4.17
-4.33
-4.19
-3.76
-3.10
-2.37
-1.71
-1.19
-0.79
-0.38
0.22
1.10
2.27
3.64
5.02
6.18
6.97
7.24
6.99
6.30
5.30
4.17
3.03
1.94
0.93
0.01
-0.81
-1.49
-2.02
-2.42
-2.76
-3.10
-3.44
-3.75
-3.97
-4.05
-4.06
-4.07
-4.18
-4.41
-4.71
-4.98
-5.16
-5.23
-5.22
-5.18
-5.13
-5.06
-4.99
-4.96
-5.05
-5.31
-5.71
-6.12
-6.32
-6.09
-5.33
-4.10
-2.53
-0.83
0.88
2.53
4.08
5.49
6.65
7.44
7.81
7.78
7.48
7.04
6.57
6.10
5.60
5.06
4.48
3.90
3.39
2.97
2.66
2.44
2.32
2.33
2.46
2.67
2.85
2.92
2.84
2.69
2.58
2.63
2.87
3.21
3.51
3.63
3.49
3.07
2.42
1.58
0.58
-0.48
-1.51
-2.40
-3.10
-3.63
-4.07
-4.47
-4.84
-5.11
-5.20
-5.11
-4.87
-4.59
-4.33
-4.14
-4.01
-3.91
-3.85
-3.84
-3.89
-3.94
-3.94
-3.79
-3.46
-3.00
-2.49
-2.00
-1.60
-1.33
-1.20
-1.19
-1.25
-1.29
-1.18
-0.82
-0.19
0.64
1.51
2.23
2.66
2.80
2.73
2.65
2.68
2.91
3.27
3.60
3.71
3.50
2.97
2.22
1.42
0.68
0.08
-0.38
-0.72
-0.94
-1.01
-0.90
-0.58
-0.09
0.50
1.07
1.50
1.71
1.69
1.47
1.14
0.84
0.70
0.80
1.15
1.63
2.05
2.22
2.06
1.61
1.07
0.64
0.43
0.38
0.33
0.09
-0.39
-1.03
-1.63
-1.98
-1.99
-1.72
-1.29
-0.89
-0.62
-0.54
-0.66
-0.96
-1.41
-1.96
-2.54
-3.07
-3.47
-3.68
-3.70
-3.57
-3.35
-3.08
-2.77
-2.38
-1.88
-1.28
-0.64
-0.06
0.37
0.59
0.62
0.56
0.54
0.66
0.99
1.50
2.11
2.73
3.26
3.65
3.84
3.78
3.44
2.81
1.93
0.88
-0.19
-1.15
-1.89
-2.39
-2.69
-2.88
-3.03
-3.19
-3.32
-3.35
-3.17
-2.72
-1.98
-0.99
0.15
1.34
2.51
3.56
4.44
5.06
5.35
5.29
4.95
4.46
3.99
3.66
3.47
3.29
2.97
2.40
1.63
0.85
0.27
0.07
0.21
0.53
0.78
0.78
0.47
-0.09
-0.76
-1.42
-1.97
-2.38
-2.63
-2.75
-2.77
-2.70
-2.57
-2.36
-2.05
-1.60
-1.04
-0.46
0.04
0.38
0.55
0.62
0.67
0.73
0.81
0.84
0.78
0.67
0.57
0.56
0.65
0.76
0.77
0.61
0.28
-0.08
-0.34
-0.41
-0.34
-0.23
-0.20
-0.31
-0.51
-0.68
-0.76
-0.73
-0.67
-0.70
-0.91
-1.30
-1.78
-2.20
-2.45
-2.42
-2.13
-1.62
-1.03
-0.47
-0.03
0.26
0.39
0.41
0.41
0.46
0.61
0.90
1.33
1.85
2.36
2.73
2.86
2.71
2.33
1.83
1.40
1.16
1.16
1.33
1.52
1.60
1.50
1.30
1.08
0.94
0.86
0.76
0.53
0.14
-0.31
-0.69
-0.86
-0.82
-0.67
-0.57
-0.61
-0.79
-0.99
-1.12
-1.15
-1.14
-1.19
-1.33
-1.52
-1.69
-1.76
-1.74
-1.64
-1.52
-1.39
-1.20
-0.86
-0.34
0.31
0.95
1.39
1.48
1.19
0.61
-0.10
-0.77
-1.28
-1.62
-1.83
-1.97
-2.09
-2.23
-2.36
-2.49
-2.58
-2.61
-2.53
-2.29
-1.86
-1.26
-0.57
0.11
0.69
1.14
1.47
1.72
1.93
2.13
2.35
2.56
2.73
2.77
2.59
2.15
1.48
0.71
0.05
-0.36
-0.48
-0.43
-0.43
-0.66
-1.13
-1.71
-2.17
-2.30
-2.04
-1.51
-0.94
-0.56
-0.51
-0.75
-1.15
-1.53
-1.76
-1.79
-1.67
-1.46
-1.23
-0.98
-0.69
-0.36
0.00
0.38
0.71
0.98
1.18
1.35
1.54
1.78
2.11
2.54
3.04
3.52
3.84
3.92
3.70
3.23
2.61
1.97
1.42
1.02
0.76
0.62
0.52
0.34
0.02
-0.45
-1.00
-1.48
-1.74
-1.74
-1.48
-1.10
-0.71
-0.42
-0.25
-0.18
-0.21
-0.32
-0.50
-0.69
-0.81
-0.75
-0.42
0.17
0.93
1.72
2.37
2.75
2.81
2.58
2.17
1.69
1.23
0.81
0.37
-0.11
-0.67
-1.28
-1.90
-2.45
-2.87
-3.12
-3.16
-3.00
-2.71
-2.39
-2.16
-2.11
-2.24
-2.45
-2.62
-2.64
-2.52
-2.33
-2.22
-2.26
-2.48
-2.82
-3.19
-3.54
-3.87
-4.16
-4.33
-4.23
-3.67
-2.56
-0.97
0.86
2.60
3.98
4.86
5.31
5.52
5.63
5.74
5.84
5.88
5.86
5.82
5.82
5.89
5.94
5.84
5.49
4.86
4.08
3.34
2.78
2.48
2.36
2.29
2.16
1.92
1.59
1.27
1.00
0.81
0.68
0.59
0.50
0.42
0.34
0.22
-0.01
-0.39
-0.94
-1.63
-2.34
-3.01
-3.56
-3.99
-4.35
-4.66
-4.89
-5.00
-4.94
-4.70
-4.35
-3.98
-3.68
-3.51
-3.43
-3.37
-3.29
-3.18
-3.06
-2.99
-3.00
-3.07
-3.17
-3.23
-3.21
-3.08
-2.81
-2.42
-1.90
-1.29
-0.64
0.04
0.73
1.46
2.24
3.06
3.85
4.50
4.94
5.15
5.19
5.17
5.16
5.15
5.08
4.88
4.50
3.97
3.33
2.63
1.90
1.18
0.51
-0.05
-0.45
-0.66
-0.75
-0.83
-0.99
-1.27
-1.61
-1.88
-1.98
-1.83
-1.50
-1.08
-0.68
-0.36
-0.09
0.16
0.43
0.65
0.74
0.62
0.29
-0.15
-0.56
-0.84
-0.99
-1.12
-1.36
-1.77
-2.27
-2.68
-2.80
-2.55
-2.02
-1.44
-1.05
-1.03
-1.37
-1.98
-2.66
-3.27
-3.73
-4.00
-4.12
-4.09
-3.93
-3.64
-3.26
-2.81
-2.35
-1.91
-1.49
-1.14
-0.89
-0.80
-0.93
-1.27
-1.75
-2.20
-2.44
-2.33
-1.79
-0.83
0.46
1.94
3.45
4.79
5.79
6.31
6.27
5.69
4.68
3.41
2.07
0.81
-0.23
-0.97
-1.34
-1.32
-0.93
-0.22
0.67
1.56
2.31
2.78
2.96
2.90
2.76
2.68
2.78
3.08
3.48
3.83
3.92
3.63
2.96
2.05
1.13
0.43
0.07
0.02
0.12
0.21
0.17
0.02
-0.17
-0.31
-0.39
-0.49
-0.68
-0.97
-1.31
-1.55
-1.59
-1.43
-1.15
-0.91
-0.84
-0.99
-1.28
-1.56
-1.68
-1.54
-1.14
-0.53
0.15
0.74
1.12
1.22
1.08
0.84
0.66
0.66
0.91
1.39
2.07
2.88
3.81
4.76
5.61
6.10
6.03
5.29
3.99
2.45
1.02
-0.00
-0.56
-0.80
-0.97
-1.27
-1.76
-2.33
-2.84
-3.18
-3.38
-3.58
-3.94
-4.55
-5.39
-6.30
-7.12
-7.68
-7.89
-7.78
-7.43
-6.98
-6.58
-6.35
-6.32
-6.43
-6.54
-6.42
-5.85
-4.62
-2.67
-0.08
2.90
5.86
8.36
10.04
10.74
10.55
9.78
8.81
7.91
7.17
6.53
5.85
5.03
4.06
3.04
2.07
1.21
0.45
-0.25
-0.92
-1.53
-2.01
-2.31
-2.41
-2.39
-2.33
-2.31
-2.33
-2.36
-2.28
-2.00
-1.50
-0.79
-0.01
0.72
1.29
1.70
2.03
2.46
3.10
3.97
4.88
5.57
5.74
5.23
4.07
2.43
0.59
-1.16
-2.66
-3.76
-4.45
-4.74
-4.73
-4.52
-4.27
-4.11
-4.15
-4.40
-4.84
-5.36
-5.82
-6.08
-6.06
-5.78
-5.34
-4.87
-4.48
-4.18
-3.90
-3.52
-2.99
-2.32
-1.59
-0.83
-0.05
0.84
1.87
3.01
4.15
5.19
6.13
7.05
8.04
9.01
9.72
9.83
9.10
7.56
5.55
3.58
2.07
1.16
0.71
0.42
0.03
-0.50
-1.02
-1.32
-1.22
-0.74
-0.03
0.74
1.40
1.87
2.12
2.21
2.19
2.13
2.09
2.04
1.97
1.82
1.62
1.46
1.48
1.76
2.25
2.77
3.06
2.92
2.37
1.59
0.85
0.33
0.00
-0.30
-0.81
-1.63
-2.72
-3.89
-4.87
-5.51
-5.75
-5.67
-5.34
-4.86
-4.27
-3.58
-2.85
-2.16
-1.55
-1.06
-0.61
-0.08
0.64
1.62
2.83
4.13
5.36
6.33
6.96
7.21
7.09
6.64
5.92
4.98
3.91
2.78
1.67
0.64
-0.26
-1.01
-1.59
-2.03
-2.32
-2.46
-2.47
-2.38
-2.27
-2.27
-2.44
-2.84
-3.40
-4.00
-4.51
-4.81
-4.88
-4.80
-4.68
-4.59
-4.56
-4.57
-4.61
-4.68
-4.86
-5.20
-5.70
-6.30
-6.83
-7.08
-6.87
-6.14
-4.96
-3.52
-2.01
-0.54
0.91
2.43
4.14
6.01
7.89
9.48
10.52
10.84
10.49
9.65
8.55
7.35
6.14
4.92
3.73
2.61
1.68
1.01
0.63
0.52
0.60
0.74
0.88
0.96
0.99
1.06
1.23
1.56
2.01
2.47
2.76
2.72
2.28
1.45
0.37
-0.77
-1.82
-2.68
-3.37
-3.92
-4.38
-4.77
-5.03
-5.11
-4.96
-4.58
-4.08
-3.56
-3.16
-2.95
-2.90
-2.98
-3.10
-3.22
-3.31
-3.38
-3.40
-3.37
-3.24
-3.02
-2.75
-2.54
-2.50
-2.69
-3.08
-3.54
-3.88
-3.96
-3.68
-3.13
-2.46
-1.88
-1.50
-1.37
-1.37
-1.32
-1.04
-0.39
0.64
1.96
3.38
4.68
5.64
6.13
6.10
5.56
4.65
3.56
2.49
1.63
1.08
0.88
0.96
1.24
1.65
2.18
2.85
3.67
4.62
5.61
6.57
7.45
8.20
8.82
9.25
9.40
9.13
8.31
6.94
5.12
3.10
1.15
-0.53
-1.88
-2.94
-3.84
-4.66
-5.43
-6.10
-6.57
-6.80
-6.75
-6.46
-6.00
-5.46
-4.92
-4.43
-4.02
-3.71
-3.52
-3.47
-3.58
-3.80
-4.06
-4.25
-4.28
-4.14
-3.88
-3.61
-3.40
-3.27
-3.19
-3.10
-2.95
-2.76
-2.55
-2.34
-2.12
-1.83
-1.40
-0.76
0.12
1.21
2.41
3.57
4.51
5.11
5.32
5.20
4.88
4.50
4.14
3.81
3.47
3.09
2.65
2.17
1.71
1.29
0.90
0.53
0.18
-0.13
-0.35
-0.42
-0.37
-0.27
-0.18
-0.10
0.07
0.47
1.24
2.37
3.65
4.75
5.35
5.27
4.57
3.50
2.36
1.35
0.51
-0.23
-0.97
-1.72
-2.37
-2.76
-2.81
-2.53
-2.08
-1.64
-1.33
-1.16
-1.06
-0.94
-0.77
-0.58
-0.45
-0.43
-0.51
-0.61
-0.63
-0.53
-0.33
-0.06
0.21
0.46
0.70
0.95
1.18
1.34
1.37
1.24
0.94
0.55
0.13
-0.23
-0.49
-0.64
-0.67
-0.64
-0.60
-0.60
-0.62
-0.62
-0.54
-0.39
-0.23
-0.20
-0.42
-0.92
-1.61
-2.29
-2.76
-2.89
-2.69
-2.22
-1.63
-1.05
-0.57
-0.27
-0.20
-0.35
-0.70
-1.13
-1.48
-1.60
-1.36
-0.72
0.25
1.39
2.51
3.37
3.81
3.74
3.25
2.53
1.86
1.45
1.40
1.66
2.06
2.46
2.75
2.91
2.99
3.02
2.97
2.77
2.37
1.76
1.01
0.25
-0.36
-0.70
-0.78
-0.71
-0.66
-0.79
-1.16
-1.68
-2.16
-2.41
-2.35
-2.05
-1.65
-1.30
-1.04
-0.86
-0.67
-0.45
-0.26
-0.21
-0.37
-0.69
-1.01
-1.15
-0.98
-0.47
0.28
1.13
1.94
2.61
3.05
3.20
2.99
2.45
1.68
0.82
0.04
-0.57
-0.96
-1.17
-1.24
-1.26
-1.29
-1.43
-1.75
-2.29
-2.95
-3.61
-4.08
-4.27
-4.16
-3.84
-3.41
-2.94
-2.43
-1.88
-1.31
-0.79
-0.44
-0.33
-0.43
-0.62
-0.68
-0.50
-0.09
0.43
0.86
1.05
0.99
0.78
0.57
0.41
0.25
-0.08
-0.72
-1.68
-2.83
-3.93
-4.74
-5.10
-5.01
-4.57
-3.99
-3.48
-3.19
-3.22
-3.58
-4.21
-5.02
-5.87
-6.59
-7.04
-7.08
-6.61
-5.63
-4.19
-2.42
-0.46
1.55
3.55
5.58
7.72
10.01
12.43
14.80
16.80
18.10
18.41
17.63
15.87
13.41
10.55
7.54
4.55
1.67
-1.05
-3.52
-5.67
-7.41
-8.74
-9.67
-10.23
-10.46
-10.39
-10.08
-9.61
-9.03
-8.34
-7.44
-6.20
-4.46
-2.13
0.80
4.28
8.13
12.12
15.91
19.08
21.24
22.08
21.51
19.67
16.92
13.71
10.49
7.58
5.12
3.08
1.32
-0.31
-1.89
-3.36
-4.59
-5.45
-5.90
-6.05
-6.08
-6.19
-6.47
-6.91
-7.41
-7.89
-8.30
-8.64
-8.92
-9.11
-9.22
-9.23
-9.20
-9.17
-9.17
-9.21
-9.25
-9.25
-9.24
-9.27
-9.39
-9.61
-9.87
-10.02
-9.91
-9.38
-8.36
-6.83
-4.76
-2.16
0.93
4.43
8.12
11.68
14.74
16.96
18.18
18.42
17.90
16.89
15.63
14.23
12.70
11.06
9.37
7.75
6.37
5.29
4.49
3.85
3.23
2.54
1.83
1.19
0.78
0.70
1.01
1.65
2.48
3.26
3.74
3.64
2.81
1.27
-0.75
-2.90
-4.81
-6.25
-7.16
-7.61
-7.77
-7.76
-7.61
-7.29
-6.79
-6.15
-5.48
-4.97
-4.74
-4.87
-5.28
-5.80
-6.24
-6.41
-6.27
-5.88
-5.37
-4.89
-4.52
-4.25
-4.03
-3.81
-3.57
-3.35
-3.21
-3.14
-3.09
-2.94
-2.53
-1.78
-0.67
0.68
2.10
3.41
4.47
5.29
5.99
6.66
7.35
7.94
8.21
7.95
7.11
5.83
4.39
3.12
2.22
1.73
1.56
1.53
1.50
1.38
1.19
0.98
0.80
0.70
0.68
0.71
0.74
0.77
0.81
0.89
1.03
1.20
1.34
1.32
1.02
0.39
-0.54
-1.62
-2.64
-3.43
-3.86
-3.95
-3.81
-3.60
-3.45
-3.41
-3.45
-3.49
-3.43
-3.26
-3.00
-2.76
-2.60
-2.60
-2.75
-2.99
-3.23
-3.39
-3.41
-3.30
-3.09
-2.83
-2.54
-2.23
-1.88
-1.52
-1.16
-0.83
-0.52
-0.21
0.17
0.64
1.21
1.83
2.40
2.83
3.05
3.02
2.76
2.35
1.92
1.60
1.52
1.76
2.29
3.00
3.72
4.27
4.52
4.41
3.94
3.18
2.24
1.29
0.44
-0.20
-0.61
-0.87
-1.01
-1.09
-1.07
-0.89
-0.51
0.02
0.61
1.12
1.50
1.71
1.81
1.80
1.67
1.36
0.84
0.14
-0.64
-1.37
-1.93
-2.27
-2.41
-2.37
-2.18
-1.87
-1.50
-1.17
-0.99
-1.04
-1.27
-1.60
-1.88
-2.02
-2.05
-2.05
-2.11
-2.28
-2.48
-2.64
-2.68
-2.61
-2.50
-2.40
-2.26
-2.01
-1.52
-0.80
0.05
0.82
1.33
1.52
1.48
1.38
1.40
1.59
1.88
2.16
2.28
2.23
2.05
1.83
1.65
1.52
1.43
1.32
1.15
0.95
0.77
0.70
0.79
1.05
1.41
1.76
1.98
1.97
1.73
1.29
0.74
0.20
-0.27
-0.59
-0.68
-0.50
-0.01
0.77
1.71
2.65
3.43
3.93
4.13
4.10
3.93
3.68
3.37
2.94
2.38
1.73
1.04
0.42
-0.08
-0.43
-0.64
-0.72
-0.65
-0.41
0.03
0.68
1.51
2.49
3.54
4.55
5.38
5.85
5.85
5.34
4.40
3.18
1.86
0.61
-0.44
-1.26
-1.85
-2.24
-2.50
-2.66
-2.74
-2.76
-2.73
-2.69
-2.71
-2.85
-3.11
-3.42
-3.62
-3.62
-3.40
-3.08
-2.83
-2.80
-3.02
-3.36
-3.64
-3.69
-3.47
-3.03
-2.47
-1.92
-1.42
-1.01
-0.69
-0.45
-0.28
-0.14
0.02
0.23
0.48
0.73
0.96
1.18
1.40
1.65
1.90
2.04
1.99
1.68
1.16
0.55
0.00
-0.39
-0.61
-0.70
-0.71
-0.69
-0.65
-0.59
-0.49
-0.33
-0.10
0.15
0.38
0.48
0.41
0.15
-0.24
-0.64
-0.97
-1.17
-1.25
-1.26
-1.21
-1.08
-0.86
-0.55
-0.21
0.07
0.22
0.23
0.14
0.03
-0.03
-0.01
0.07
0.18
0.29
0.43
0.67
1.10
1.69
2.36
2.92
3.21
3.17
2.87
2.50
2.22
2.11
2.11
2.02
1.65
0.94
-0.02
-1.05
-1.90
-2.47
-2.77
-2.91
-3.04
-3.21
-3.41
-3.57
-3.61
-3.48
-3.20
-2.80
-2.28
-1.65
-0.93
-0.18
0.48
0.98
1.23
1.27
1.16
0.96
0.73
0.43
0.04
-0.50
-1.12
-1.74
-2.23
-2.49
-2.50
-2.33
-2.08
-1.84
-1.68
-1.62
-1.69
-1.89
-2.23
-2.68
-3.19
-3.69
-4.19
-4.71
-5.35
-6.14
-7.03
-7.89
-8.56
-8.96
-9.11
-9.14
-9.21
-9.39
-9.67
-9.92
-10.02
-9.90
-9.55
-9.00
-8.22
-7.09
-5.45
-3.23
-0.52
2.36
4.94
6.76
7.54
7.24
6.07
4.33
2.38
0.49
-1.13
-2.38
-3.17
-3.55
-3.57
-3.38
-3.12
-2.91
-2.88
-3.14
-3.81
-4.91
-6.47
-8.45
-10.85
-13.74
-17.26
-21.56
-26.70
-32.52
-38.72
-44.96
-51.15
-57.45
-64.26
-71.93
-80.45
-89.33
-97.72
-104.83
-110.31
-114.45
-118.06
-122.13
-127.41
-134.28
-142.86
-153.30
-165.64
-179.44
-193.17
-203.98
-208.16
-202.30
-184.50
-155.06
-116.16
-70.82
-21.95
28.06
77.06
122.53
161.51
191.12
209.61
217.19
215.98
209.21
199.95
190.22
180.80
171.66
162.54
153.46
144.70
136.55
129.12
122.27
115.67
109.09
102.43
95.85
89.62
83.99
79.03
74.63
70.56
66.61
62.76
59.15
56.05
53.63
51.87
50.51
49.26
47.95
46.71
45.93
46.11
47.64
50.57
54.56
59.01
63.24
66.74
69.37
71.49
73.99
78.11
84.88
94.45
105.59
115.60
120.89
117.90
104.18
79.16
44.56
4.11
-37.20
-74.22
-102.79
-120.70
-128.01
-126.70
-119.81
-110.33
-100.46
-91.39
-83.51
-76.90
-71.55
-67.40
-64.12
-61.10
-57.68
-53.39
-48.28
-42.84
-37.81
-33.83
-31.14
-29.48
-28.25
-26.75
-24.46
-21.26
-17.45
-13.54
-10.06
-7.31
-5.32
-3.91
-2.78
-1.73
-0.69
0.28
1.06
1.59
1.89
2.02
2.03
1.93
1.63
1.07
0.16
-1.08
-2.58
-4.22
-5.82
-7.22
-8.26
-8.87
-9.08
-9.04
-8.93
-8.92
-9.04
-9.23
-9.33
-9.23
-8.86
-8.24
-7.43
-6.51
-5.54
-4.58
-3.75
-3.16
-2.87
-2.81
-2.83
-2.76
-2.50
-2.04
-1.48
-0.90
-0.37
0.08
0.48
0.82
1.10
1.34
1.59
1.94
2.48
3.20
4.05
4.89
5.55
5.96
6.11
6.09
6.05
6.10
6.32
6.74
7.38
8.21
9.20
10.29
11.41
12.49
13.48
14.36
15.17
15.99
16.88
17.88
18.97
20.04
20.92
21.44
21.41
20.66
19.02
16.42
12.85
8.49
3.64
-1.28
-5.87
-9.82
-13.01
-15.45
-17.23
-18.44
-19.09
-19.19
-18.74
-17.86
-16.74
-15.59
-14.55
-13.67
-12.93
-12.23
-11.52
-10.75
-9.95
-9.15
-8.41
-7.76
-7.26
-6.89
-6.59
-6.24
-5.72
-4.97
-4.02
-2.96
-1.93
-1.04
-0.28
0.40
1.11
1.87
2.65
3.32
3.75
3.91
3.86
3.84
4.09
4.77
5.89
7.23
8.52
9.50
10.08
10.38
10.66
11.20
12.18
13.64
15.46
17.36
18.90
19.47
18.46
15.43
10.32
3.62
-3.71
-10.54
-15.93
-19.38
-20.91
-20.95
-20.07
-18.74
-17.28
-15.87
-14.63
-13.68
-13.08
-12.78
-12.62
-12.38
-11.88
-11.09
-10.10
-9.09
-8.23
-7.60
-7.20
-6.95
-6.78
-6.60
-6.35
-6.02
-5.62
-5.21
-4.86
-4.61
-4.47
-4.35
-4.16
-3.84
-3.41
-2.98
-2.64
-2.45
-2.37
-2.32
-2.25
-2.11
-1.90
-1.63
-1.33
-0.97
-0.57
-0.15
0.25
0.58
0.80
0.90
0.91
0.86
0.81
0.74
0.67
0.61
0.55
0.54
0.61
0.75
0.94
1.13
1.29
1.37
1.37
1.28
1.07
0.72
0.24
-0.30
-0.74
-0.93
-0.79
-0.35
0.25
0.82
1.18
1.23
1.00
0.57
0.11
-0.26
-0.43
-0.40
-0.20
0.06
0.26
0.33
0.25
0.05
-0.17
-0.35
-0.40
-0.29
0.02
0.46
0.95
1.34
1.51
1.39
1.05
0.60
0.18
-0.10
-0.22
-0.20
-0.07
0.14
0.43
0.74
0.96
0.98
0.74
0.31
-0.14
-0.42
-0.43
-0.21
0.09
0.30
0.36
0.31
0.24
0.21
0.20
0.13
-0.06
-0.33
-0.57
-0.65
-0.53
-0.26
0.01
0.13
0.09
-0.05
-0.19
-0.22
-0.18
-0.11
-0.06
-0.05
-0.02
0.06
0.18
0.30
0.34
0.29
0.16
0.04
-0.03
-0.06
-0.10
-0.21
-0.43
-0.72
-0.99
-1.18
-1.24
-1.16
-0.97
-0.73
-0.49
-0.27
-0.12
-0.02
0.03
0.07
0.13
0.21
0.31
0.39
0.46
0.51
0.55
0.59
0.63
0.67
0.66
0.57
0.38
0.11
-0.18
-0.41
-0.56
-0.63
-0.66
-0.70
-0.76
-0.79
-0.74
-0.59
-0.39
-0.22
-0.18
-0.31
-0.55
-0.76
-0.83
-0.71
-0.46
-0.19
-0.03
-0.01
-0.09
-0.16
-0.12
0.04
0.24
0.37
0.37
0.26
0.15
0.15
0.31
0.56
0.74
0.73
0.50
0.12
-0.22
-0.36
-0.24
0.12
0.57
0.93
1.08
0.99
0.72
0.40
0.15
0.00
-0.06
-0.13
-0.28
-0.53
-0.77
-0.89
-0.79
-0.47
-0.03
0.38
0.64
0.73
0.70
0.66
0.67
0.71
0.73
0.68
0.55
0.37
0.19
0.02
-0.15
-0.32
-0.48
-0.57
-0.54
-0.36
-0.10
0.16
0.37
0.50
0.57
0.62
0.63
0.56
0.35
-0.01
-0.48
-0.91
-1.19
-1.21
-0.97
-0.56
-0.15
0.11
0.15
0.01
-0.20
-0.32
-0.29
-0.15
-0.00
0.05
-0.01
-0.15
-0.27
-0.29
-0.21
-0.11
-0.04
-0.04
-0.08
-0.09
-0.05
0.05
0.10
0.05
-0.17
-0.49
-0.80
-0.95
-0.84
-0.49
-0.06
0.26
0.32
0.09
-0.31
-0.70
-0.90
-0.87
-0.68
-0.43
-0.22
-0.11
-0.05
-0.00
0.07
0.14
0.16
0.06
-0.17
-0.47
-0.76
-0.93
-0.89
-0.64
-0.25
0.17
0.48
0.60
0.52
0.30
0.02
-0.26
-0.50
-0.72
-0.92
-1.14
-1.39
-1.69
-2.04
-2.42
-2.82
-3.20
-3.53
-3.82
-4.05
-4.26
-4.41
-4.52
-4.56
-4.57
-4.60
-4.71
-4.94
-5.27
-5.67
-6.08
-6.43
-6.69
-6.82
-6.88
-6.93
-7.07
-7.40
-7.97
-8.74
-9.62
-10.50
-11.37
-12.30
-13.46
-14.94
-16.69
-18.49
-19.97
-20.78
-20.66
-19.53
-17.45
-14.54
-10.98
-6.97
-2.77
1.30
4.95
8.09
10.83
13.43
16.14
19.00
21.78
24.10
25.61
26.20
25.94
25.07
23.82
22.31
20.58
18.67
16.67
14.80
13.26
12.17
11.53
11.18
10.95
10.70
10.35
9.92
9.46
9.00
8.55
8.08
7.58
7.03
6.42
5.73
4.94
4.01
2.95
1.81
0.71
-0.20
-0.82
-1.12
-1.16
-1.07
-0.92
-0.78
-0.68
-0.66
-0.81
-1.20
-1.86
-2.69
-3.48
-4.02
-4.14
-3.84
-3.25
-2.56
-1.94
-1.49
-1.25
-1.20
-1.31
-1.49
-1.66
-1.68
-1.47
-1.04
-0.46
0.12
0.56
0.81
0.83
0.68
0.39
-0.01
-0.46
-0.90
-1.25
-1.44
-1.43
-1.27
-1.07
-0.92
-0.85
-0.85
-0.84
-0.77
-0.64
-0.49
-0.35
-0.25
-0.19
-0.14
-0.08
-0.01
0.06
0.12
0.20
0.29
0.42
0.59
0.76
0.89
0.96
0.90
0.72
0.44
0.12
-0.16
-0.32
-0.33
-0.21
-0.04
0.10
0.15
0.09
-0.06
-0.24
-0.41
-0.57
-0.72
-0.87
-1.03
-1.18
-1.28
-1.28
-1.15
-0.90
-0.60
-0.32
-0.15
-0.14
-0.26
-0.45
-0.59
-0.61
-0.49
-0.28
-0.05
0.12
0.22
0.31
0.43
0.62
0.81
0.92
0.85
0.56
0.13
-0.31
-0.64
-0.80
-0.84
-0.83
-0.85
-0.90
-0.92
-0.83
-0.59
-0.25
0.10
0.35
0.48
0.52
0.56
0.72
1.01
1.38
1.76
2.06
2.26
2.39
2.44
2.37
2.09
1.51
0.64
-0.40
-1.41
-2.20
-2.69
-2.88
-2.89
-2.81
-2.73
-2.65
-2.53
-2.35
-2.10
-1.81
-1.53
-1.29
-1.16
-1.14
-1.25
-1.41
-1.55
-1.59
-1.47
-1.20
-0.85
-0.51
-0.27
-0.16
-0.18
-0.30
-0.49
-0.70
-0.93
-1.10
-1.17
-1.09
-0.88
-0.60
-0.39
-0.35
-0.51
-0.80
-1.08
-1.20
-1.07
-0.70
-0.18
0.35
0.78
1.01
1.02
0.85
0.58
0.29
0.04
-0.13
-0.23
-0.29
-0.31
-0.29
-0.20
-0.05
0.15
0.37
0.57
0.74
0.90
1.08
1.27
1.40
1.41
1.24
0.93
0.53
0.17
-0.08
-0.16
-0.07
0.14
0.41
0.66
0.80
0.78
0.59
0.27
-0.09
-0.41
-0.61
-0.65
-0.54
-0.36
-0.18
-0.07
-0.09
-0.24
-0.49
-0.77
-1.02
-1.19
-1.27
-1.27
-1.20
-1.10
-0.95
-0.76
-0.53
-0.25
0.06
0.38
0.70
0.99
1.23
1.36
1.36
1.17
0.82
0.39
-0.01
-0.27
-0.32
-0.21
0.00
0.21
0.33
0.37
0.34
0.28
0.21
0.14
0.05
-0.07
-0.20
-0.29
-0.29
-0.14
0.14
0.47
0.71
0.78
0.65
0.40
0.15
-0.02
-0.09
-0.12
-0.21
-0.38
-0.58
-0.72
-0.69
-0.48
-0.15
0.21
0.52
0.75
0.91
1.03
1.11
1.13
1.05
0.85
0.55
0.24
-0.02
-0.16
-0.18
-0.15
-0.16
-0.27
-0.51
-0.81
-1.05
-1.16
-1.10
-0.90
-0.63
-0.36
-0.13
0.06
0.22
0.34
0.41
0.39
0.29
0.13
-0.01
-0.08
-0.06
0.06
0.24
0.41
0.54
0.62
0.64
0.65
0.60
0.48
0.21
-0.22
-0.73
-1.20
-1.41
-1.25
-0.70
0.07
0.83
1.32
1.42
1.17
0.73
0.29
-0.01
-0.10
-0.03
0.11
0.24
0.28
0.21
0.04
-0.14
-0.26
-0.27
-0.18
-0.02
0.13
0.25
0.36
0.45
0.53
0.55
0.45
0.23
-0.05
-0.27
-0.36
-0.31
-0.23
-0.23
-0.36
-0.58
-0.78
-0.87
-0.87
-0.84
-0.88
-1.05
-1.29
-1.49
-1.59
-1.54
-1.41
-1.26
-1.08
-0.86
-0.55
-0.16
0.24
0.56
0.69
0.63
0.48
0.34
0.29
0.33
0.36
0.31
0.13
-0.16
-0.43
-0.59
-0.56
-0.36
-0.08
0.16
0.27
0.24
0.10
-0.06
-0.19
-0.27
-0.31
-0.35
-0.38
-0.38
-0.28
-0.06
0.24
0.54
0.72
0.74
0.58
0.31
0.02
-0.24
-0.44
-0.56
-0.61
-0.58
-0.47
-0.27
0.04
0.44
0.94
1.48
1.97
2.31
2.44
2.37
2.17
1.91
1.66
1.38
1.02
0.54
0.03
-0.37
-0.50
-0.33
0.03
0.39
0.53
0.42
0.14
-0.11
-0.17
-0.00
0.29
0.55
0.62
0.46
0.12
-0.29
-0.65
-0.85
-0.88
-0.74
-0.51
-0.26
-0.09
-0.03
-0.08
-0.22
-0.38
-0.53
-0.64
-0.72
-0.76
-0.74
-0.62
-0.39
-0.07
0.27
0.56
0.73
0.77
0.70
0.59
0.45
0.30
0.13
-0.03
-0.13
-0.10
0.10
0.41
0.71
0.85
0.75
0.44
0.04
-0.32
-0.52
-0.56
-0.46
-0.28
-0.06
0.14
0.31
0.41
0.47
0.52
0.60
0.74
0.91
1.04
1.05
0.87
0.51
0.08
-0.33
-0.61
-0.74
-0.76
-0.74
-0.76
-0.82
-0.92
-1.00
-1.05
-1.04
-0.98
-0.89
-0.77
-0.60
-0.37
-0.08
0.25
0.58
0.83
0.93
0.83
0.54
0.11
-0.38
-0.83
-1.18
-1.38
-1.42
-1.33
-1.15
-0.93
-0.70
-0.48
-0.28
-0.06
0.16
0.36
0.50
0.53
0.44
0.26
0.03
-0.19
-0.37
-0.48
-0.50
-0.43
-0.26
-0.05
0.10
0.11
-0.05
-0.35
-0.64
-0.78
-0.69
-0.40
0.00
0.35
0.55
0.56
0.44
0.30
0.23
0.26
0.37
0.50
0.58
0.62
0.62
0.63
0.64
0.62
0.50
0.26
-0.05
-0.32
-0.43
-0.34
-0.11
0.16
0.33
0.34
0.22
0.03
-0.17
-0.35
-0.47
-0.52
-0.46
-0.27
0.00
0.27
0.44
0.47
0.39
0.30
0.28
0.35
0.44
0.44
0.31
0.07
-0.18
-0.32
-0.29
-0.13
0.06
0.18
0.18
0.08
-0.06
-0.19
-0.25
-0.23
-0.16
-0.03
0.11
0.23
0.25
0.13
-0.14
-0.54
-0.94
-1.20
-1.23
-0.99
-0.55
-0.06
0.34
0.56
0.58
0.44
0.21
-0.05
-0.25
-0.33
-0.26
-0.05
0.25
0.53
0.69
0.69
0.56
0.42
0.36
0.47
0.69
0.94
1.07
1.03
0.82
0.52
0.26
0.12
0.14
0.27
0.41
0.46
0.40
0.27
0.14
0.08
0.11
0.16
0.18
0.11
-0.07
-0.30
-0.51
-0.66
-0.70
-0.67
-0.59
-0.50
-0.41
-0.31
-0.22
-0.11
-0.01
0.06
0.08
0.05
-0.05
-0.23
-0.47
-0.72
-0.91
-0.97
-0.86
-0.63
-0.40
-0.27
-0.30
-0.44
-0.57
-0.61
-0.51
-0.34
-0.21
-0.16
-0.17
-0.18
-0.11
0.02
0.15
0.20
0.14
0.01
-0.09
-0.09
0.03
0.21
0.36
0.42
0.39
0.30
0.20
0.12
0.07
0.05
0.05
0.09
0.16
0.25
0.30
0.28
0.16
-0.04
-0.25
-0.37
-0.31
-0.03
0.43
0.97
1.40
1.57
1.42
0.99
0.45
-0.00
-0.24
-0.26
-0.19
-0.17
-0.29
-0.52
-0.75
-0.83
-0.73
-0.46
-0.14
0.15
0.34
0.43
0.41
0.30
0.09
-0.17
-0.41
-0.56
-0.55
-0.39
-0.13
0.11
0.27
0.31
0.23
0.07
-0.19
-0.51
-0.86
-1.14
-1.24
-1.09
-0.71
-0.24
0.16
0.36
0.33
0.16
-0.04
-0.18
-0.24
-0.22
-0.18
-0.10
0.02
0.19
0.39
0.55
0.62
0.56
0.38
0.17
0.01
-0.05
0.02
0.15
0.28
0.38
0.44
0.52
0.63
0.77
0.87
0.86
0.69
0.38
0.02
-0.26
-0.39
-0.36
-0.25
-0.15
-0.15
-0.26
-0.44
-0.58
-0.64
-0.59
-0.47
-0.36
-0.30
-0.27
-0.23
-0.14
-0.03
0.04
-0.04
-0.29
-0.61
-0.80
-0.72
-0.30
0.34
0.98
1.40
1.49
1.29
0.93
0.57
0.30
0.11
-0.04
-0.21
-0.39
-0.50
-0.44
-0.14
0.36
0.94
1.41
1.58
1.39
0.89
0.26
-0.29
-0.60
-0.65
-0.48
-0.25
-0.05
0.03
-0.01
-0.11
-0.25
-0.36
-0.46
-0.54
-0.59
-0.62
-0.60
-0.49
-0.31
-0.07
0.16
0.30
0.30
0.16
-0.05
-0.21
-0.24
-0.10
0.13
0.32
0.34
0.16
-0.18
-0.54
-0.81
-0.92
-0.87
-0.75
-0.65
-0.61
-0.63
-0.65
-0.57
-0.34
-0.00
0.36
0.60
0.64
0.48
0.23
0.03
-0.04
0.03
0.16
0.25
0.24
0.15
0.05
0.01
0.08
0.23
0.41
0.55
0.60
0.54
0.39
0.17
-0.07
-0.25
-0.32
-0.26
-0.09
0.10
0.22
0.25
0.19
0.12
0.10
0.17
0.29
0.40
0.43
0.32
0.11
-0.14
-0.38
-0.52
-0.56
-0.53
-0.48
-0.46
-0.50
-0.58
-0.64
-0.65
-0.57
-0.45
-0.32
-0.22
-0.13
0.01
0.20
0.42
0.57
0.61
0.51
0.35
0.28
0.36
0.60
0.91
1.14
1.18
0.97
0.57
0.09
-0.34
-0.60
-0.66
-0.52
-0.27
-0.01
0.18
0.29
0.34
0.39
0.47
0.57
0.60
0.54
0.37
0.14
-0.10
-0.30
-0.47
-0.65
-0.86
-1.11
-1.36
-1.56
-1.63
-1.55
-1.31
-0.93
-0.47
-0.02
0.35
0.59
0.73
0.79
0.82
0.84
0.82
0.70
0.49
0.23
0.02
-0.07
-0.02
0.12
0.24
0.30
0.28
0.24
0.27
0.39
0.56
0.69
0.68
0.47
0.09
-0.36
-0.72
-0.89
-0.79
-0.47
-0.01
0.45
0.80
1.02
1.10
1.10
1.03
0.91
0.71
0.44
0.12
-0.18
-0.40
-0.49
-0.47
-0.39
-0.30
-0.24
-0.22
-0.20
-0.16
-0.07
0.05
0.16
0.21
0.20
0.13
0.05
-0.02
-0.03
0.03
0.14
0.30
0.46
0.61
0.67
0.62
0.46
0.23
0.00
-0.14
-0.16
-0.09
0.03
0.16
0.28
0.42
0.56
0.67
0.66
0.47
0.11
-0.36
-0.78
-1.03
-1.05
-0.83
-0.45
-0.03
0.32
0.50
0.51
0.37
0.15
-0.09
-0.33
-0.57
-0.83
-1.08
-1.23
-1.20
-0.93
-0.47
0.04
0.44
0.63
0.60
0.43
0.26
0.15
0.11
0.11
0.08
-0.00
-0.12
-0.23
-0.31
-0.34
-0.34
-0.33
-0.33
-0.34
-0.34
-0.32
-0.26
-0.19
-0.14
-0.13
-0.17
-0.19
-0.15
0.02
0.28
0.56
0.75
0.76
0.57
0.23
-0.12
-0.38
-0.45
-0.32
-0.02
0.35
0.69
0.91
0.92
0.70
0.29
-0.20
-0.62
-0.86
-0.88
-0.73
-0.52
-0.38
-0.37
-0.46
-0.59
-0.66
-0.63
-0.53
-0.46
-0.46
-0.57
-0.74
-0.92
-1.05
-1.13
-1.16
-1.16
-1.08
-0.91
-0.62
-0.26
0.07
0.28
0.29
0.11
-0.18
-0.48
-0.69
-0.78
-0.78
-0.76
-0.77
-0.86
-1.02
-1.19
-1.34
-1.47
-1.60
-1.79
-2.06
-2.39
-2.72
-2.98
-3.15
-3.28
-3.44
-3.69
-4.04
-4.40
-4.65
-4.69
-4.49
-4.14
-3.82
-3.68
-3.84
-4.35
-5.20
-6.39
-7.81
-9.15
-9.82
-9.04
-6.11
-0.75
6.66
15.14
23.37
30.08
34.30
35.49
33.50
28.64
21.70
13.89
6.73
1.49
-1.23
-1.86
-1.63
-1.98
-3.77
-6.76
-9.67
-10.90
-9.36
-5.20
0.10
4.33
5.55
3.06
-2.19
-7.93
-11.64
-11.68
-8.15
-2.76
2.04
4.15
2.74
-1.71
-7.77
-13.54
-16.59
-13.65
-1.00
24.10
61.11
104.76
145.79
174.32
184.30
176.34
157.02
134.79
114.91
96.79
75.39
45.67
7.05
-35.16
-72.26
-96.86
-106.69
-105.22
-99.06
-94.11
-92.78
-93.82
-93.99
-90.70
-83.43
-73.79
-64.16
-56.26
-50.35
-45.44
-40.07
-33.37
-25.49
-17.57
-11.08
-7.06
-5.70
-6.31
-7.72
-8.86
-9.16
-8.68
-7.81
-6.90
-6.00
-4.80
-2.92
-0.21
3.03
6.02
7.81
7.78
6.16
4.39
4.78
9.77
20.92
38.10
59.23
80.53
97.31
105.25
101.64
86.32
61.94
33.29
5.82
-16.01
-30.00
-36.48
-37.61
-36.02
-33.69
-31.50
-29.51
-27.67
-26.29
-25.87
-26.69
-28.39
-30.07
-30.74
-29.79
-27.36
-24.30
-21.68
-20.33
-20.48
-21.74
-23.30
-24.35
-24.39
-23.40
-21.79
-20.23
-19.30
-19.36
-20.38
-22.02
-23.75
-25.11
-25.87
-26.12
-26.24
-26.79
-28.25
-30.90
-34.67
-39.18
-43.80
-47.91
-51.17
-53.64
-55.87
-58.63
-62.61
-68.10
-74.81
-81.93
-88.54
-93.98
-98.20
-101.84
-105.95
-111.52
-119.14
-128.73
-139.76
-151.32
-162.19
-170.57
-174.08
-170.12
-156.79
-133.87
-103.28
-68.35
-32.31
3.21
38.60
75.19
113.42
151.45
185.33
210.67
224.80
227.95
222.90
213.28
201.87
189.83
176.95
162.63
146.67
129.58
112.24
95.59
80.32
66.88
55.46
46.00
38.21
31.68
26.11
21.43
17.75
15.16
13.43
12.01
10.21
7.59
4.08
0.12
-3.63
-6.40
-7.60
-6.98
-4.61
-0.92
3.50
8.02
12.21
15.89
19.08
21.90
24.37
26.33
27.47
27.53
26.49
24.59
22.29
19.94
17.63
15.14
12.13
8.40
4.17
0.02
-3.29
-5.26
-5.78
-5.18
-3.97
-2.58
-1.22
0.09
1.34
2.49
3.45
4.27
5.11
6.25
7.91
10.08
12.48
14.67
16.31
17.35
18.13
19.25
21.26
24.31
28.10
32.00
35.46
38.36
41.11
44.48
49.13
55.31
62.85
71.40
80.59
89.88
98.13
103.46
103.61
96.94
83.40
64.92
44.70
25.82
9.93
-3.20
-14.99
-26.75
-38.72
-49.87
-58.75
-64.52
-67.54
-69.11
-70.62
-72.76
-75.16
-76.78
-76.56
-74.04
-69.67
-64.51
-59.68
-55.87
-53.08
-50.76
-48.21
-44.96
-41.02
-36.80
-32.86
-29.62
-27.18
-25.32
-23.65
-21.80
-19.59
-17.08
-14.52
-12.19
-10.26
-8.78
-7.64
-6.68
-5.81
-5.01
-4.33
-3.83
-3.55
-3.44
-3.40
-3.33
-3.11
-2.70
-2.08
-1.32
-0.54
0.09
0.41
0.38
0.09
-0.26
-0.46
-0.39
-0.10
0.23
0.41
0.29
-0.08
-0.54
-0.87
-0.90
-0.64
-0.21
0.20
0.46
0.52
0.44
0.31
0.20
0.12
0.02
-0.10
-0.24
-0.32
-0.32
-0.22
-0.07
0.07
0.18
0.23
0.24
0.18
0.04
-0.19
-0.46
-0.72
-0.88
-0.91
-0.87
-0.83
-0.91
-1.11
-1.38
-1.62
-1.75
-1.78
-1.75
-1.77
-1.84
-1.94
-1.99
-1.93
-1.76
-1.56
-1.39
-1.26
-1.11
-0.88
-0.49
0.03
0.60
1.09
1.42
1.56
1.54
1.42
1.27
1.12
0.96
0.80
0.64
0.48
0.35
0.26
0.24
0.31
0.50
0.80
1.15
1.44
1.53
1.31
0.78
0.10
-0.54
-0.93
-0.98
-0.76
-0.43
-0.19
-0.16
-0.36
-0.71
-1.08
-1.34
-1.39
-1.18
-0.68
0.03
0.84
1.58
2.09
2.29
2.19
1.88
1.50
1.13
0.80
0.54
0.34
0.21
0.19
0.26
0.37
0.44
0.41
0.32
0.21
0.17
0.21
0.29
0.33
0.28
0.14
-0.01
-0.10
-0.07
0.05
0.18
0.25
0.21
0.06
-0.14
-0.32
-0.44
-0.47
-0.40
-0.24
-0.02
0.20
0.35
0.38
0.27
0.07
-0.15
-0.32
-0.42
-0.48
-0.54
-0.62
-0.69
-0.71
-0.67
-0.57
-0.47
-0.41
-0.40
-0.41
-0.38
-0.27
-0.08
0.17
0.44
0.69
0.87
0.96
0.94
0.82
0.67
0.55
0.51
0.58
0.75
0.97
1.18
1.35
1.41
1.36
1.19
0.92
0.56
0.15
-0.23
-0.55
-0.73
-0.73
-0.57
-0.27
0.09
0.44
0.70
0.82
0.81
0.70
0.56
0.46
0.41
0.34
0.17
-0.19
-0.71
-1.28
-1.69
-1.80
-1.59
-1.17
-0.75
-0.45
-0.33
-0.31
-0.30
-0.29
-0.33
-0.52
-0.88
-1.30
-1.62
-1.68
-1.42
-0.96
-0.46
-0.08
0.12
0.20
0.26
0.38
0.56
0.73
0.82
0.82
0.75
0.63
0.51
0.40
0.29
0.23
0.27
0.46
0.81
1.26
1.71
2.02
2.11
1.97
1.68
1.33
1.02
0.82
0.75
0.77
0.83
0.88
0.88
0.87
0.88
0.93
1.01
1.05
0.98
0.75
0.34
-0.16
-0.62
-0.91
-0.98
-0.85
-0.61
-0.39
-0.29
-0.31
-0.39
-0.42
-0.34
-0.14
0.12
0.34
0.47
0.51
0.52
0.54
0.60
0.65
0.65
0.54
0.33
0.09
-0.10
-0.17
-0.09
0.08
0.28
0.46
0.61
0.75
0.94
1.21
1.53
1.77
1.85
1.68
1.33
0.94
0.68
0.63
0.77
0.93
0.95
0.74
0.33
-0.13
-0.48
-0.64
-0.60
-0.45
-0.33
-0.33
-0.49
-0.79
-1.20
-1.67
-2.13
-2.54
-2.85
-3.02
-3.01
-2.81
-2.41
-1.89
-1.32
-0.83
-0.51
-0.40
-0.47
-0.62
-0.78
-0.90
-0.96
-0.97
-0.93
-0.83
-0.64
-0.37
-0.05
0.25
0.48
0.60
0.64
0.61
0.54
0.43
0.29
0.12
-0.07
-0.25
-0.39
-0.50
-0.58
-0.61
-0.59
-0.52
-0.40
-0.23
-0.04
0.15
0.34
0.52
0.67
0.79
0.82
0.75
0.58
0.37
0.20
0.12
0.15
0.25
0.34
0.35
0.25
0.07
-0.13
-0.29
-0.35
-0.30
-0.18
0.01
0.20
0.38
0.51
0.57
0.55
0.47
0.33
0.18
0.01
-0.15
-0.27
-0.34
-0.38
-0.40
-0.45
-0.58
-0.76
-0.94
-1.05
-1.03
-0.90
-0.71
-0.51
-0.34
-0.18
0.02
0.29
0.63
0.96
1.18
1.22
1.06
0.76
0.43
0.18
0.08
0.10
0.17
0.19
0.10
-0.07
-0.24
-0.34
-0.32
-0.23
-0.15
-0.17
-0.29
-0.41
-0.44
-0.28
0.03
0.37
0.58
0.53
0.26
-0.10
-0.36
-0.40
-0.22
0.02
0.17
0.12
-0.08
-0.27
-0.33
-0.18
0.10
0.36
0.48
0.41
0.20
-0.05
-0.27
-0.43
-0.55
-0.68
-0.83
-0.98
-1.13
-1.26
-1.41
-1.61
-1.90
-2.22
-2.51
-2.68
-2.69
-2.56
-2.38
-2.26
-2.28
-2.50
-2.89
-3.39
-3.92
-4.42
-4.82
-5.11
-5.29
-5.41
-5.59
-5.91
-6.45
-7.22
-8.15
-9.14
-10.10
-10.95
-11.64
-12.19
-12.67
-13.20
-13.96
-15.05
-16.51
-18.17
-19.72
-20.78
-21.03
-20.33
-18.82
-16.84
-14.82
-13.07
-11.68
-10.58
-9.58
-8.57
-7.58
-6.75
-6.22
-6.00
-5.96
-5.89
-5.65
-5.21
-4.71
-4.30
-4.06
-4.00
-4.11
-4.52
-5.45
-7.14
-9.52
-11.98
-13.32
-11.95
-6.48
3.64
17.73
33.90
49.56
62.30
70.66
74.51
74.86
73.34
71.49
70.34
70.32
71.29
72.71
73.67
72.87
68.89
60.59
47.79
31.59
14.30
-1.36
-13.16
-20.12
-22.72
-22.43
-20.92
-19.42
-18.43
-17.86
-17.50
-17.22
-17.10
-17.28
-17.77
-18.35
-18.71
-18.62
-18.02
-17.10
-16.17
-15.50
-15.15
-14.99
-14.74
-14.19
-13.23
-11.97
-10.61
-9.39
-8.42
-7.74
-7.23
-6.76
-6.20
-5.53
-4.78
-4.09
-3.55
-3.23
-3.12
-3.15
-3.18
-3.09
-2.81
-2.34
-1.74
-1.11
-0.57
-0.19
-0.03
-0.10
-0.34
-0.69
-1.07
-1.40
-1.64
-1.78
-1.79
-1.70
-1.51
-1.27
-1.05
-0.90
-0.86
-0.91
-1.02
-1.17
-1.35
-1.57
-1.80
-1.97
-2.05
-2.00
-1.85
-1.68
-1.57
-1.55
-1.57
-1.60
-1.61
-1.62
-1.68
-1.81
-1.92
-1.91
-1.67
-1.20
-0.58
0.01
0.42
0.57
0.48
0.27
0.07
-0.02
0.02
0.18
0.37
0.52
0.57
0.51
0.33
0.09
-0.16
-0.36
-0.46
-0.46
-0.40
-0.32
-0.28
-0.28
-0.30
-0.31
-0.31
-0.32
-0.37
-0.47
-0.59
-0.70
-0.76
-0.74
-0.64
-0.47
-0.23
0.07
0.40
0.72
0.98
1.14
1.17
1.08
0.90
0.67
0.43
0.22
0.04
-0.13
-0.29
-0.45
-0.60
-0.69
-0.67
-0.52
-0.30
-0.07
0.06
0.04
-0.11
-0.34
-0.51
-0.55
-0.41
-0.12
0.19
0.40
0.40
0.18
-0.20
-0.59
-0.87
-0.93
-0.74
-0.38
0.08
0.53
0.91
1.19
1.37
1.42
1.32
1.06
0.69
0.29
-0.05
-0.23
-0.24
-0.14
-0.00
0.08
0.12
0.16
0.26
0.43
0.62
0.72
0.66
0.44
0.15
-0.08
-0.18
-0.14
-0.08
-0.11
-0.31
-0.65
-0.98
-1.16
-1.07
-0.75
-0.30
0.12
0.40
0.50
0.46
0.37
0.26
0.18
0.14
0.13
0.14
0.15
0.16
0.14
0.11
0.09
0.08
0.08
0.05
-0.03
-0.14
-0.25
-0.29
-0.25
-0.14
-0.02
0.07
0.09
0.05
-0.04
-0.17
-0.30
-0.40
-0.44
-0.40
-0.33
-0.28
-0.32
-0.46
-0.65
-0.78
-0.76
-0.56
-0.23
0.12
0.38
0.48
0.43
0.27
0.06
-0.11
-0.20
-0.16
-0.01
0.21
0.42
0.58
0.65
0.62
0.52
0.38
0.23
0.11
0.02
-0.05
-0.14
-0.26
-0.43
-0.62
-0.75
-0.74
-0.54
-0.19
0.25
0.65
0.93
1.01
0.92
0.68
0.39
0.10
-0.15
-0.34
-0.49
-0.60
-0.67
-0.66
-0.55
-0.37
-0.16
-0.00
0.10
0.19
0.29
0.44
0.59
0.66
0.62
0.50
0.40
0.41
0.53
0.70
0.81
0.77
0.61
0.40
0.19
0.00
-0.17
-0.36
-0.52
-0.58
-0.49
-0.25
0.07
0.31
0.37
0.21
-0.10
-0.45
-0.72
-0.82
-0.77
-0.58
-0.35
-0.14
-0.02
-0.04
-0.20
-0.47
-0.78
-1.01
-1.08
-0.98
-0.72
-0.37
-0.02
0.28
0.46
0.52
0.43
0.22
-0.06
-0.32
-0.44
-0.33
-0.01
0.43
0.85
1.13
1.21
1.13
1.01
0.97
1.07
1.24
1.39
1.38
1.19
0.86
0.52
0.27
0.13
0.04
-0.09
-0.33
-0.67
-0.98
-1.18
-1.18
-1.01
-0.72
-0.41
-0.11
0.17
0.45
0.73
0.97
1.09
1.02
0.74
0.29
-0.20
-0.59
-0.75
-0.61
-0.22
0.30
0.77
1.08
1.17
1.10
0.94
0.81
0.77
0.85
1.00
1.15
1.23
1.18
0.99
0.66
0.25
-0.23
-0.73
-1.23
-1.68
-2.05
-2.29
-2.36
-2.25
-1.97
-1.56
-1.10
-0.70
-0.42
-0.32
-0.39
-0.56
-0.69
-0.67
-0.45
-0.05
0.42
0.81
1.01
0.99
0.79
0.52
0.29
0.17
0.15
0.18
0.18
0.10
-0.05
-0.22
-0.35
-0.42
-0.45
-0.51
-0.62
-0.77
-0.89
-0.91
-0.78
-0.56
-0.34
-0.20
-0.17
-0.17
-0.12
0.01
0.19
0.30
0.26
0.07
-0.18
-0.35
-0.34
-0.15
0.15
0.41
0.53
0.49
0.36
0.26
0.30
0.48
0.74
0.96
1.05
0.98
0.81
0.65
0.58
0.59
0.62
0.58
0.41
0.15
-0.11
-0.28
-0.28
-0.12
0.13
0.39
0.56
0.58
0.43
0.18
-0.10
-0.33
-0.43
-0.39
-0.23
-0.03
0.16
0.27
0.25
0.10
-0.12
-0.35
-0.45
-0.36
-0.06
0.36
0.75
0.99
0.99
0.76
0.39
-0.02
-0.38
-0.64
-0.77
-0.78
-0.67
-0.50
-0.30
-0.11
0.02
0.09
0.09
0.02
-0.09
-0.22
-0.34
-0.39
-0.33
-0.19
0.02
0.21
0.33
0.35
0.29
0.17
0.04
-0.09
-0.20
-0.31
-0.41
-0.48
-0.53
-0.53
-0.48
-0.43
-0.42
-0.50
-0.65
-0.83
-0.96
-0.96
-0.84
-0.66
-0.52
-0.49
-0.58
-0.73
-0.80
-0.72
-0.46
-0.11
0.19
0.34
0.33
0.25
0.22
0.34
0.60
0.90
1.11
1.09
0.81
0.34
-0.19
-0.60
-0.79
-0.69
-0.37
0.05
0.40
0.55
0.44
0.13
-0.26
-0.57
-0.73
-0.73
-0.65
-0.55
-0.45
-0.32
-0.11
0.16
0.44
0.63
0.66
0.55
0.37
0.23
0.18
0.21
0.26
0.27
0.22
0.15
0.13
0.17
0.26
0.36
0.40
0.38
0.29
0.17
0.03
-0.13
-0.27
-0.36
-0.37
-0.27
-0.11
0.07
0.21
0.27
0.29
0.32
0.42
0.55
0.68
0.75
0.73
0.68
0.62
0.60
0.57
0.49
0.35
0.18
0.05
0.03
0.12
0.24
0.26
0.09
-0.26
-0.64
-0.88
-0.85
-0.54
-0.11
0.25
0.38
0.25
-0.03
-0.30
-0.43
-0.36
-0.19
-0.02
0.05
-0.01
-0.16
-0.34
-0.48
-0.56
-0.58
-0.55
-0.48
-0.38
-0.23
-0.05
0.14
0.30
0.38
0.36
0.22
0.02
-0.16
-0.28
-0.29
-0.24
-0.19
-0.22
-0.37
-0.61
-0.88
-1.06
-1.04
-0.80
-0.39
0.06
0.38
0.49
0.39
0.13
-0.18
-0.46
-0.64
-0.70
-0.66
-0.54
-0.37
-0.20
-0.09
-0.04
-0.03
-0.01
0.07
0.21
0.39
0.56
0.67
0.73
0.72
0.62
0.43
0.16
-0.15
-0.41
-0.53
-0.47
-0.21
0.16
0.56
0.91
1.15
1.24
1.17
0.96
0.62
0.22
-0.17
-0.47
-0.64
-0.67
-0.57
-0.41
-0.24
-0.13
-0.12
-0.19
-0.32
-0.46
-0.56
-0.62
-0.65
-0.69
-0.73
-0.78
-0.79
-0.73
-0.59
-0.38
-0.14
0.10
0.29
0.43
0.51
0.54
0.56
0.60
0.66
0.75
0.86
0.96
1.03
1.06
1.07
1.05
1.01
0.92
0.73
0.41
-0.04
-0.54
-0.96
-1.17
-1.10
-0.79
-0.39
-0.05
0.10
0.04
-0.16
-0.38
-0.53
-0.60
-0.63
-0.65
-0.67
-0.65
-0.53
-0.28
0.05
0.39
0.64
0.72
0.61
0.35
0.04
-0.19
-0.29
-0.25
-0.14
-0.09
-0.16
-0.35
-0.57
-0.71
-0.72
-0.60
-0.43
-0.30
-0.21
-0.14
-0.03
0.16
0.40
0.61
0.71
0.68
0.51
0.28
0.01
-0.26
-0.49
-0.65
-0.69
-0.54
-0.20
0.30
0.83
1.24
1.42
1.32
0.98
0.54
0.15
-0.06
-0.06
0.12
0.34
0.49
0.48
0.32
0.08
-0.16
-0.33
-0.46
-0.58
-0.73
-0.90
-1.04
-1.08
-1.00
-0.82
-0.61
-0.46
-0.40
-0.43
-0.48
-0.49
-0.40
-0.19
0.06
0.24
0.25
0.05
-0.30
-0.67
-0.92
-0.98
-0.82
-0.50
-0.08
0.35
0.74
1.03
1.15
1.10
0.89
0.63
0.41
0.31
0.31
0.36
0.41
0.41
0.38
0.33
0.28
0.23
0.19
0.21
0.31
0.48
0.65
0.70
0.53
0.17
-0.24
-0.52
-0.52
-0.25
0.17
0.52
0.66
0.56
0.28
-0.01
-0.23
-0.33
-0.32
-0.27
-0.21
-0.18
-0.16
-0.16
-0.16
-0.18
-0.19
-0.17
-0.09
0.05
0.24
0.39
0.44
0.35
0.13
-0.16
-0.43
-0.61
-0.68
-0.66
-0.58
-0.50
-0.44
-0.40
-0.37
-0.35
-0.29
-0.18
0.02
0.27
0.49
0.62
0.60
0.45
0.21
-0.02
-0.20
-0.31
-0.35
-0.36
-0.35
-0.35
-0.36
-0.38
-0.37
-0.26
-0.03
0.33
0.73
1.06
1.22
1.19
1.03
0.79
0.55
0.27
-0.06
-0.45
-0.82
-1.02
-0.97
-0.68
-0.29
0.01
0.09
-0.07
-0.37
-0.66
-0.80
-0.75
-0.56
-0.30
-0.05
0.18
0.37
0.55
0.71
0.84
0.92
0.93
0.89
0.85
0.84
0.85
0.83
0.71
0.48
0.15
-0.17
-0.39
-0.44
-0.34
-0.18
-0.06
-0.05
-0.17
-0.39
-0.64
-0.88
-1.06
-1.15
-1.12
-0.98
-0.76
-0.52
-0.33
-0.23
-0.20
-0.19
-0.14
-0.00
0.20
0.40
0.54
0.56
0.49
0.35
0.18
0.01
-0.15
-0.30
-0.42
-0.47
-0.47
-0.41
-0.35
-0.32
-0.33
-0.35
-0.34
-0.29
-0.21
-0.12
-0.06
-0.02
0.06
0.21
0.45
0.74
0.97
1.02
0.85
0.51
0.10
-0.22
-0.38
-0.37
-0.24
-0.11
-0.03
-0.01
-0.01
0.01
0.08
0.22
0.38
0.54
0.68
0.78
0.82
0.75
0.53
0.16
-0.31
-0.77
-1.05
-1.05
-0.73
-0.20
0.38
0.83
1.02
0.94
0.66
0.28
-0.12
-0.49
-0.77
-0.92
-0.88
-0.63
-0.22
0.27
0.72
1.03
1.14
1.05
0.78
0.40
0.04
-0.18
-0.17
0.09
0.51
0.88
1.01
0.84
0.40
-0.12
-0.54
-0.73
-0.68
-0.45
-0.14
0.16
0.42
0.58
0.62
0.51
0.25
-0.08
-0.37
-0.53
-0.51
-0.34
-0.12
0.07
0.14
0.09
-0.03
-0.14
-0.16
-0.10
0.03
0.13
0.15
0.05
-0.13
-0.31
-0.45
-0.53
-0.58
-0.67
-0.80
-0.91
-0.91
-0.73
-0.37
0.03
0.31
0.33
0.07
-0.34
-0.70
-0.83
-0.68
-0.32
0.08
0.38
0.49
0.43
0.29
0.14
0.04
-0.01
-0.03
-0.05
-0.07
-0.08
-0.06
-0.01
0.06
0.12
0.16
0.19
0.24
0.29
0.35
0.40
0.42
0.44
0.49
0.58
0.68
0.73
0.66
0.43
0.11
-0.21
-0.45
-0.59
-0.66
-0.73
-0.84
-0.95
-1.01
-1.00
-0.95
-0.91
-0.96
-1.13
-1.39
-1.66
-1.87
-1.98
-1.99
-1.96
-1.96
-2.04
-2.22
-2.46
-2.70
-2.87
-2.94
-2.96
-3.00
-3.18
-3.55
-4.10
-4.76
-5.42
-6.01
-6.53
-7.02
-7.54
-8.12
-8.74
-9.32
-9.81
-10.19
-10.51
-10.92
-11.55
-12.50
-13.83
-15.49
-17.29
-18.88
-19.66
-18.93
-16.12
-11.03
-4.09
3.66
10.80
16.00
18.44
18.10
15.75
12.55
9.65
7.74
6.85
6.43
5.67
3.91
1.04
-2.44
-5.57
-7.41
-7.53
-6.26
-4.69
-4.13
-5.55
-9.01
-13.61
-17.86
-20.32
-20.27
-18.06
-14.87
-12.27
-11.76
-14.34
-20.28
-28.76
-37.42
-42.27
-38.22
-20.66
12.48
59.17
113.20
165.98
209.54
239.32
255.42
261.71
263.22
263.49
262.96
259.31
249.11
229.80
200.74
162.97
118.35
68.80
16.19
-36.89
-86.68
-128.53
-158.12
-173.15
-174.43
-165.73
-152.27
-138.80
-128.08
-120.59
-115.18
-110.22
-104.52
-97.67
-89.91
-81.77
-73.78
-66.34
-59.65
-53.75
-48.57
-44.01
-39.95
-36.31
-33.11
-30.44
-28.45
-27.34
-27.18
-27.89
-29.13
-30.42
-31.26
-31.33
-30.57
-29.13
-27.31
-25.33
-23.30
-21.16
-18.84
-16.32
-13.79
-11.58
-10.11
-9.74
-10.60
-12.64
-15.58
-19.12
-23.02
-27.20
-31.67
-36.50
-41.67
-47.09
-52.55
-57.81
-62.73
-67.32
-71.82
-76.64
-82.21
-88.84
-96.48
-104.76
-113.13
-121.07
-128.38
-135.28
-142.31
-150.09
-159.15
-169.71
-181.66
-194.45
-206.90
-217.22
-223.20
-222.64
-214.00
-196.89
-172.11
-141.34
-106.37
-68.47
-28.18
14.37
58.67
103.15
144.99
180.69
207.21
223.11
229.07
227.54
221.79
214.68
207.86
201.67
195.78
189.80
183.81
178.25
173.63
170.11
167.44
165.10
162.63
159.83
156.79
153.78
151.08
148.86
147.18
146.05
145.50
145.67
146.74
148.76
151.54
154.56
157.10
158.47
158.42
157.30
156.00
155.38
155.56
155.32
152.11
142.62
123.77
93.74
52.82
3.66
-48.99
-99.23
-141.31
-171.01
-186.67
-189.43
-182.60
-170.34
-156.37
-143.05
-131.38
-121.45
-113.11
-106.26
-100.82
-96.41
-92.33
-87.71
-81.97
-75.11
-67.72
-60.70
-54.83
-50.40
-47.12
-44.34
-41.37
-37.74
-33.45
-28.83
-24.44
-20.75
-17.96
-15.98
-14.45
-12.99
-11.30
-9.29
-7.10
-5.02
-3.32
-2.19
-1.65
-1.58
-1.73
-1.80
-1.56
-0.91
0.07
1.14
2.03
2.52
2.56
2.30
1.93
1.65
1.50
1.42
1.28
1.05
0.76
0.56
0.57
0.82
1.21
1.56
1.69
1.52
1.09
0.55
0.11
-0.11
-0.08
0.13
0.39
0.56
0.60
0.50
0.30
0.05
-0.21
-0.42
-0.56
-0.59
-0.48
-0.26
0.00
0.22
0.32
0.29
0.18
0.07
0.04
0.12
0.26
0.41
0.51
0.52
0.42
0.23
-0.01
-0.26
-0.43
-0.48
-0.36
-0.06
0.38
0.86
1.28
1.55
1.62
1.50
1.21
0.86
0.51
0.28
0.19
0.26
0.39
0.48
0.43
0.18
-0.22
-0.66
-0.99
-1.10
-0.97
-0.68
-0.35
-0.09
0.02
-0.01
-0.13
-0.29
-0.46
-0.60
-0.70
-0.74
-0.72
-0.64
-0.53
-0.38
-0.22
-0.03
0.17
0.35
0.48
0.49
0.39
0.19
-0.05
-0.26
-0.36
-0.32
-0.13
0.14
0.41
0.63
0.79
0.91
1.04
1.19
1.34
1.42
1.36
1.15
0.87
0.62
0.49
0.51
0.64
0.79
0.89
0.88
0.73
0.48
0.18
-0.07
-0.16
-0.05
0.25
0.64
0.98
1.13
1.08
0.88
0.67
0.62
0.85
1.33
1.90
2.25
2.12
1.40
0.27
-0.82
-1.36
-1.02
0.10
1.39
1.97
1.04
-1.68
-5.83
-10.53
-14.73
-17.77
-19.63
-20.99
-22.87
-26.13
-30.99
-36.84
-42.49
-46.69
-48.67
-48.58
-47.37
-46.49
-47.33
-50.93
-57.63
-66.88
-76.84
-84.13
-84.35
-73.35
-49.16
-13.40
28.62
69.59
102.91
125.15
136.88
141.59
143.47
145.35
147.93
150.51
152.27
153.28
154.46
156.85
160.90
166.28
172.50
179.49
187.65
197.13
206.98
214.52
215.83
207.00
185.54
151.11
105.53
52.15
-4.74
-60.34
-109.71
-148.33
-173.16
-183.63
-182.02
-172.68
-160.50
-149.15
-140.17
-133.21
-127.12
-120.92
-114.42
-107.96
-101.96
-96.48
-91.18
-85.65
-79.69
-73.37
-67.11
-61.36
-56.42
-52.30
-48.73
-45.30
-41.62
-37.55
-33.19
-28.88
-25.01
-21.83
-19.34
-17.32
-15.45
-13.49
-11.39
-9.29
-7.43
-5.98
-4.96
-4.30
-3.80
-3.32
-2.79
-2.21
-1.65
-1.18
-0.85
-0.65
-0.55
-0.48
-0.43
-0.35
-0.23
-0.04
0.18
0.41
0.56
0.56
0.40
0.09
-0.26
-0.57
-0.76
-0.82
-0.79
-0.68
-0.53
-0.35
-0.16
0.01
0.12
0.17
0.18
0.20
0.25
0.29
0.26
0.11
-0.12
-0.34
-0.41
-0.27
0.03
0.36
0.57
0.61
0.54
0.48
0.54
0.72
0.94
1.05
