1660752254.00
64.000000
-0.00
-0.00
-0.00
-0.00
-0.00
-0.00
-0.00
-0.00
-0.00
-0.00
0.00
0.01
0.01
-0.00
-0.03
-0.05
-0.05
0.00
0.13
0.36
0.66
1.01
1.37
1.72
2.06
2.40
2.79
3.24
3.80
4.42
5.06
5.66
6.20
6.68
7.15
7.68
8.31
9.14
10.09
11.04
11.88
12.56
13.14
13.76
14.65
15.96
17.91
20.32
22.90
25.38
27.58
29.57
31.68
34.32
37.81
42.54
48.15
54.10
59.83
64.97
69.58
74.14
79.34
85.71
93.76
103.00
112.62
121.73
129.77
136.75
143.30
150.75
157.77
166.64
177.95
191.79
206.97
220.57
228.25
225.36
208.53
176.87
132.76
80.05
23.07
-34.94
-92.44
-149.16
-205.23
-260.37
-313.74
-363.87
-409.83
-450.91
-486.50
-515.74
-537.23
-549.23
-549.96
-538.36
-514.18
-478.64
-433.85
-382.46
-327.11
-270.02
-212.92
-157.02
-103.35
-52.78
-6.30
35.19
71.01
100.88
124.94
143.73
157.97
168.40
175.62
180.01
181.81
181.21
178.48
173.99
168.19
161.56
154.49
147.20
139.76
132.12
124.22
116.07
107.81
99.65
91.83
84.52
77.72
71.25
64.90
58.45
51.85
45.23
38.90
33.17
28.25
24.08
20.38
16.74
12.81
8.48
3.94
-0.39
-4.12
-6.98
-9.02
-10.50
-11.80
-13.25
-15.18
-17.89
-21.59
-26.09
-30.42
-32.89
-31.49
-24.82
-12.98
2.17
17.59
30.20
38.12
41.19
40.61
37.97
34.45
30.59
26.66
23.17
21.00
20.98
23.23
26.86
30.27
31.87
30.80
27.36
22.69
18.12
14.55
12.19
10.70
9.52
8.27
6.81
5.20
3.60
2.09
0.76
-0.34
-1.16
-1.60
-1.61
-1.27
-0.77
-0.38
-0.27
-0.55
-1.09
-1.70
-2.17
-2.41
-2.43
-2.35
-2.26
-2.19
-2.12
-2.00
-1.82
-1.62
-1.40
-1.08
-0.47
0.69
2.58
5.17
8.17
11.13
13.60
15.30
16.26
16.69
16.83
16.81
16.57
15.90
14.61
12.62
10.04
7.15
4.10
1.05
-1.88
-4.61
-7.13
-9.42
-11.47
-13.23
-14.59
-15.45
-15.76
-15.61
-15.21
-14.79
-14.48
-14.21
-13.78
-13.01
-11.90
-10.60
-9.43
-8.67
-8.48
-8.76
-9.33
-9.89
-10.16
-9.84
-8.70
-6.59
-3.59
0.01
3.77
7.12
9.58
10.75
10.41
8.54
5.34
1.26
-3.11
-7.09
-10.09
-11.73
-11.95
-10.94
-9.08
-6.81
-4.55
-2.59
-1.09
-0.06
0.65
1.15
1.55
1.82
1.88
1.64
1.08
0.28
-0.60
-1.46
-2.27
-3.09
-3.98
-4.95
-5.95
-6.83
-7.44
-7.68
-7.51
-7.08
-6.61
-6.35
-6.51
-7.18
-8.28
-9.61
-10.81
-11.43
-11.07
-9.39
-6.32
-2.08
2.80
7.68
11.95
15.21
17.37
18.49
18.77
18.34
17.31
15.82
14.01
12.11
10.30
8.70
7.32
6.10
4.96
3.83
2.72
1.66
0.72
-0.08
-0.68
-1.10
-1.36
-1.47
-1.48
-1.41
-1.31
-1.28
-1.38
-1.67
-2.14
-2.72
-3.28
-3.77
-4.12
-4.33
-4.41
-4.38
-4.29
-4.29
-4.58
-5.30
-6.42
-7.62
-8.39
-8.17
-6.63
-3.79
-0.09
3.86
7.42
10.17
11.97
12.88
13.11
12.93
12.54
12.05
11.51
10.90
10.20
9.43
8.63
7.82
7.03
6.20
5.26
4.23
3.13
2.05
1.10
0.38
-0.07
-0.29
-0.33
-0.33
-0.39
-0.62
-1.04
-1.59
-2.16
-2.69
-3.16
-3.64
-4.21
-4.92
-5.74
-6.57
-7.36
-8.10
-8.85
-9.63
-10.38
-10.92
-11.09
-10.86
-10.39
-10.02
-10.09
-10.77
-11.85
-12.83
-13.07
-12.02
-9.49
-5.72
-1.21
3.37
7.47
10.78
13.20
14.83
15.75
16.04
15.78
15.09
14.14
13.13
12.21
11.38
10.55
9.54
8.29
6.82
5.28
3.83
2.55
1.46
0.49
-0.42
-1.29
-2.13
-2.90
-3.56
-4.05
-4.34
-4.42
-4.40
-4.45
-4.73
-5.32
-6.18
-7.18
-8.17
-9.04
-9.80
-10.42
-10.90
-11.15
-11.06
-10.63
-9.96
-9.30
-8.87
-8.77
-8.87
-8.83
-8.15
-6.39
-3.39
0.68
5.26
9.67
13.22
15.56
16.60
16.54
15.65
14.18
12.26
9.95
7.31
4.54
1.87
-0.36
-1.94
-2.74
-2.81
-2.31
-1.48
-0.52
0.49
1.55
2.77
4.19
5.79
7.36
8.66
9.47
9.72
9.44
8.80
7.95
6.95
5.83
4.57
3.22
1.88
0.69
-0.26
-0.97
-1.58
-2.27
-3.30
-4.81
-6.88
-9.41
-12.25
-15.17
-17.88
-20.11
-21.51
-21.76
-20.71
-18.42
-15.23
-11.71
-8.47
-5.95
-4.30
-3.36
-2.83
-2.40
-1.93
-1.47
-1.16
-1.13
-1.31
-1.46
-1.23
-0.28
1.48
3.85
6.43
8.76
10.54
11.77
12.67
13.49
14.32
15.03
15.35
15.08
14.24
13.03
11.79
10.73
9.87
9.05
8.04
6.72
5.14
3.50
2.04
0.94
0.16
-0.50
-1.42
-2.93
-5.21
-8.17
-11.42
-14.43
-16.61
-17.58
-17.17
-15.51
-12.95
-9.94
-6.93
-4.25
-2.09
-0.48
0.67
1.49
2.04
2.37
2.45
2.35
2.17
2.07
2.20
2.59
3.20
3.91
4.61
5.25
5.78
6.16
6.33
6.26
5.97
5.56
5.13
4.75
4.39
3.96
3.35
2.52
1.48
0.30
-0.93
-2.13
-3.23
-4.19
-5.08
-6.05
-7.33
-9.11
-11.48
-14.32
-17.26
-19.77
-21.30
-21.43
-20.04
-17.28
-13.54
-9.34
-5.20
-1.51
1.50
3.75
5.30
6.26
6.81
7.17
7.58
8.14
8.84
9.49
9.85
9.77
9.28
8.55
7.81
7.21
6.79
6.45
6.12
5.72
5.29
4.83
4.30
3.66
2.85
1.92
0.94
0.00
-0.86
-1.65
-2.39
-3.08
-3.69
-4.21
-4.69
-5.24
-5.92
-6.72
-7.59
-8.48
-9.38
-10.35
-11.36
-12.23
-12.61
-12.07
-10.37
-7.59
-4.16
-0.69
2.29
4.47
5.84
6.57
6.89
6.92
6.75
6.42
5.97
5.53
5.24
5.19
5.36
5.64
5.87
5.91
5.75
5.47
5.21
5.10
5.12
5.19
5.10
4.70
3.96
2.98
1.97
1.16
0.63
0.30
-0.03
-0.58
-1.44
-2.51
-3.59
-4.46
-5.04
-5.42
-5.84
-6.48
-7.44
-8.71
-10.19
-11.75
-13.21
-14.31
-14.71
-14.06
-12.14
-9.04
-5.16
-1.12
2.45
5.11
6.76
7.55
7.81
7.81
7.74
7.64
7.44
7.08
6.54
5.88
5.19
4.57
4.02
3.52
3.03
2.54
2.08
1.69
1.43
1.26
1.11
0.91
0.60
0.16
-0.38
-1.02
-1.74
-2.53
-3.40
-4.29
-5.16
-5.96
-6.65
-7.25
-7.83
-8.48
-9.32
-10.41
-11.78
-13.35
-14.94
-16.25
-16.97
-16.82
-15.70
-13.65
-10.88
-7.73
-4.57
-1.75
0.50
2.09
3.12
3.78
4.33
4.97
5.75
6.61
7.39
7.97
8.34
8.67
9.15
9.99
11.27
12.91
14.70
16.34
17.53
18.06
17.86
16.98
15.60
13.96
12.28
10.71
9.30
7.99
6.67
5.29
3.84
2.45
1.35
0.74
0.72
1.17
1.73
1.95
1.46
0.22
-1.42
-2.79
-3.10
-1.80
1.20
5.33
9.66
13.17
15.22
15.75
15.34
14.77
14.66
14.89
14.64
12.90
9.12
3.67
-2.16
-6.53
-7.94
-5.89
-1.33
3.76
7.44
8.78
8.25
7.20
7.57
10.83
17.84
28.49
41.96
57.00
71.98
84.60
91.89
92.05
85.40
75.39
67.36
66.12
73.74
88.37
104.74
115.97
116.71
105.26
86.46
69.12
59.80
59.42
64.91
72.70
77.95
81.48
85.08
89.87
95.06
98.18
96.29
87.04
73.05
56.45
39.78
24.51
10.87
-2.36
-17.08
-34.40
-53.45
-71.20
-83.95
-87.80
-80.84
-63.74
-39.84
-14.11
8.66
25.37
35.25
38.71
37.64
34.32
31.20
30.54
34.26
43.68
59.02
78.86
99.31
115.71
123.84
121.53
109.22
89.53
66.09
42.16
19.62
-2.07
-24.35
-48.53
-75.30
-105.09
-138.21
-174.63
-213.26
-251.34
-286.38
-314.56
-331.60
-334.59
-324.21
-304.75
-282.00
-260.62
-242.52
-230.62
-225.10
-223.18
-220.76
-215.38
-207.37
-198.55
-190.66
-184.59
-186.21
-198.70
-219.78
-242.65
-260.57
-269.75
-269.21
-260.04
-244.92
-235.70
-242.21
-266.99
-305.06
-348.97
-392.71
-432.29
-465.45
-442.96
-342.48
-182.17
-8.65
139.81
249.81
324.95
374.36
406.61
427.93
434.54
424.04
399.90
370.82
344.96
326.33
315.26
310.27
309.30
304.24
289.82
266.50
239.80
215.49
196.63
183.60
175.18
169.41
159.91
142.57
117.22
87.47
57.80
31.45
9.88
-6.73
-17.47
-26.45
-36.62
-48.98
-62.77
-77.02
-91.04
-103.72
-112.55
-113.78
-104.71
-84.23
-54.53
-20.91
9.86
32.15
43.76
46.38
44.01
40.25
37.22
34.97
32.64
29.60
26.02
22.50
19.35
16.29
12.54
7.79
2.09
-3.75
-8.70
-11.48
-11.14
-7.30
-0.30
8.73
18.19
26.30
31.75
34.02
33.51
31.23
28.27
25.40
22.82
20.32
17.54
14.27
10.54
6.63
2.89
-0.33
-2.79
-4.44
-5.46
-6.23
-7.12
-8.43
-10.30
-12.60
-15.07
-17.46
-19.65
-21.71
-23.86
-26.13
-28.56
-31.17
-33.90
-36.80
-39.89
-43.20
-46.76
-50.54
-54.39
-58.18
-61.90
-65.52
-68.95
-72.08
-74.73
-76.62
-78.76
-81.43
-84.58
-87.88
-90.71
-92.37
-92.25
-89.99
-85.47
-78.74
-69.74
-58.58
-45.60
-31.46
-17.13
-3.72
7.82
16.96
23.67
28.44
31.83
34.16
35.51
35.81
35.02
33.24
30.69
27.56
24.05
20.36
16.85
14.20
13.17
14.26
17.27
21.23
24.62
26.02
24.57
20.30
14.02
7.00
0.54
-4.37
-7.22
-8.02
-7.22
-5.61
-4.03
-3.21
-3.59
-5.26
-8.04
-11.53
-15.16
-18.37
-20.68
-21.81
-21.68
-20.32
-17.77
-13.95
-8.76
-2.17
5.62
14.15
22.78
30.94
38.32
44.87
50.68
55.78
60.02
63.03
64.42
64.07
62.29
59.85
57.83
57.09
57.98
60.04
62.21
63.27
62.33
59.18
54.32
48.58
42.69
37.03
31.51
25.88
19.92
13.65
7.21
0.81
-5.46
-11.56
-17.43
-22.87
-27.48
-30.73
-32.19
-31.77
-29.85
-27.31
-25.30
-24.74
-25.95
-28.35
-30.66
-31.39
-29.51
-24.89
-18.36
-11.25
-4.72
0.66
5.12
9.28
13.76
18.81
24.24
29.59
34.43
38.56
42.02
45.01
47.81
50.62
53.54
56.57
59.60
62.46
64.94
66.74
67.43
66.47
63.44
58.21
51.14
43.03
34.96
27.84
22.13
17.68
13.86
9.88
5.18
-0.40
-6.61
-13.03
-19.32
-25.31
-31.04
-36.64
-42.18
-47.61
-52.69
-57.10
-60.45
-62.37
-62.52
-60.60
-56.43
-50.00
-41.55
-31.49
-20.39
-8.95
2.07
11.87
19.73
25.32
28.90
31.36
33.95
37.72
43.02
49.20
54.88
58.54
59.16
56.75
52.28
47.40
43.80
42.77
44.87
49.88
57.02
65.29
73.86
82.31
90.81
99.83
109.88
121.01
132.49
142.60
148.81
148.10
137.71
116.04
83.44
42.54
-2.19
-45.32
-81.94
-108.70
-124.43
-129.93
-127.32
-119.14
-107.76
-95.15
-82.82
-71.93
-63.25
-57.01
-52.86
-49.98
-47.39
-44.39
-40.77
-36.89
-33.48
-31.19
-30.23
-30.26
-30.45
-29.80
-27.46
-23.02
-16.56
-8.58
0.08
8.51
15.92
21.87
26.40
29.96
33.16
36.38
39.45
41.59
41.68
38.72
32.39
23.38
13.34
4.47
-1.16
-2.21
1.58
9.45
19.98
31.65
43.41
54.96
66.71
79.48
93.89
109.76
125.73
139.21
146.75
144.89
131.18
105.21
69.16
27.63
-13.46
-48.40
-73.22
-86.66
-90.03
-86.33
-78.93
-70.56
-62.91
-56.82
-52.75
-50.97
-51.61
-54.27
-57.93
-61.17
-62.69
-61.88
-59.12
-55.64
-53.03
-52.55
-54.64
-58.77
-63.58
-67.34
-68.43
-65.80
-59.13
-48.98
-36.56
-23.36
-10.73
0.47
10.07
18.54
26.63
34.94
43.44
51.33
57.25
59.70
57.81
51.84
43.38
34.88
28.93
27.27
30.18
36.55
44.46
52.14
59.01
65.57
72.97
82.25
93.71
106.62
119.20
128.83
132.56
127.77
112.59
86.51
50.90
9.32
-33.10
-70.84
-99.57
-117.19
-123.54
-120.49
-111.02
-98.21
-84.37
-70.82
-58.27
-47.23
-38.20
-30.08
-22.12
-14.30
-7.24
-1.25
4.19
10.08
17.15
25.44
37.25
53.20
71.52
88.81
102.49
112.29
119.81
127.26
136.39
152.79
179.06
213.16
249.26
281.46
306.61
324.34
335.97
343.60
355.89
378.54
411.42
448.48
481.79
505.25
515.46
511.67
456.43
336.05
167.03
-10.99
-162.86
-274.17
-347.09
-390.54
-413.49
-422.75
-416.96
-397.15
-368.25
-338.34
-315.07
-300.75
-294.23
-292.90
-294.22
-291.50
-282.46
-268.72
-254.90
-245.08
-240.44
-240.14
-242.90
-248.38
-243.39
-222.48
-186.76
-143.07
-99.38
-60.77
-28.91
-3.19
18.02
38.08
57.34
75.28
90.80
103.26
113.03
120.99
128.08
135.09
142.84
150.27
156.39
160.47
162.36
162.55
161.79
160.81
160.28
160.99
161.73
161.80
160.90
158.95
155.84
151.01
143.09
129.40
114.72
99.92
85.64
72.53
61.32
52.59
46.72
43.82
43.86
46.86
51.66
57.57
64.22
71.40
78.81
85.96
92.12
96.57
98.86
98.17
94.47
88.32
80.50
71.49
61.27
49.19
34.40
16.38
-5.08
-28.96
-53.31
-75.97
-95.39
-111.31
-124.78
-137.64
-152.24
-169.73
-188.97
-207.18
-221.46
-230.18
-233.55
-233.68
-233.88
-238.68
-251.67
-273.83
-302.95
-333.61
-357.66
-365.40
-348.08
-301.14
-228.60
-140.87
-51.47
26.71
84.65
119.57
135.05
138.41
136.98
130.48
117.60
99.68
80.52
63.29
49.15
37.41
25.76
11.00
-19.81
-73.15
-143.48
-217.77
-285.08
-340.41
-383.30
-415.66
-440.14
-474.99
-529.86
-597.61
-661.34
-708.72
-736.69
-748.09
-747.94
-741.21
-752.57
-795.94
-863.56
-934.67
-993.58
-1035.10
-1060.22
-1071.55
-940.95
-627.86
-209.88
186.12
486.66
684.68
803.05
868.64
902.97
920.64
909.32
861.75
787.38
706.25
632.51
569.44
513.86
460.86
405.87
344.29
277.43
219.16
186.62
186.14
210.81
246.89
281.38
306.71
312.03
294.14
261.08
225.65
195.90
173.39
156.86
145.36
139.01
133.41
124.24
111.14
96.63
82.56
69.68
58.48
49.84
44.68
41.76
38.87
34.94
29.98
24.20
17.84
11.43
5.83
1.88
0.08
-0.20
0.07
-0.12
-1.36
-3.66
-6.62
-9.65
-12.21
-14.05
-15.45
-16.77
-18.39
-20.41
-22.69
-24.96
-26.99
-28.65
-29.97
-31.01
-31.78
-32.08
-31.54
-29.71
-26.31
-21.34
-15.13
-8.29
-1.29
5.46
11.87
18.08
24.35
30.80
37.33
43.54
48.98
53.24
56.18
57.90
58.74
59.27
60.36
63.20
68.87
77.40
87.13
94.45
94.67
83.84
60.64
27.07
-12.14
-51.36
-85.59
-111.37
-126.73
-130.89
-124.16
-108.16
-86.24
-62.97
-43.19
-30.44
-26.06
-28.70
-35.24
-42.54
-48.14
-51.29
-52.04
-50.98
-49.00
-46.87
-45.27
-44.63
-45.02
-46.33
-48.40
-51.27
-55.32
-61.16
-68.85
-78.05
-87.98
-97.51
-105.53
-111.46
-115.54
-118.90
-123.19
-129.23
-137.08
-145.74
-153.49
-158.50
-159.66
-156.95
-151.21
-145.97
-142.52
-140.44
-137.79
-131.80
-119.71
-99.42
-69.71
-30.63
15.76
66.09
113.65
149.99
168.09
165.98
148.45
125.44
107.82
102.84
114.03
138.52
169.77
201.33
229.53
253.64
274.09
290.53
301.67
309.93
318.12
329.33
346.35
371.56
406.30
450.05
499.71
549.53
596.36
634.79
658.39
661.90
643.92
607.93
560.86
510.10
434.69
328.37
198.96
66.14
-49.80
-137.05
-193.65
-224.21
-236.27
-237.44
-229.18
-212.91
-190.46
-164.67
-138.52
-114.45
-93.89
-77.57
-65.54
-53.88
-40.29
-24.12
-6.62
10.15
24.40
34.96
40.86
40.77
39.88
40.48
42.96
46.04
47.84
47.01
43.22
36.98
29.34
22.47
16.99
12.36
6.93
-1.40
-14.27
-32.39
-55.59
-83.12
-113.63
-146.77
-182.69
-221.98
-265.48
-313.96
-368.13
-428.16
-492.85
-558.59
-619.33
-667.27
-694.89
-697.65
-675.49
-632.77
-576.30
-512.91
-447.81
-384.63
-326.15
-275.04
-233.56
-202.31
-179.30
-160.26
-140.40
-116.60
-88.75
-59.36
-31.95
-9.40
7.14
18.01
24.34
27.46
28.85
30.39
34.22
41.88
53.29
66.32
77.51
83.36
82.10
74.27
62.44
49.88
39.26
31.63
26.59
22.93
19.80
17.42
16.83
19.13
24.48
31.72
38.62
42.79
42.72
38.32
30.92
22.33
13.95
6.19
-1.15
-8.37
-15.26
-21.08
-24.90
-25.99
-24.41
-21.12
-17.56
-14.42
-11.19
-6.36
1.81
14.35
31.39
51.50
72.15
90.25
104.28
114.46
122.19
128.89
135.23
141.71
147.91
152.82
154.55
152.66
147.79
141.29
134.38
128.15
124.58
124.92
129.07
134.26
138.07
138.57
134.85
126.57
107.49
74.73
29.79
-14.61
-53.32
-83.28
-103.48
-111.35
-105.63
-87.48
-59.46
-25.93
7.93
36.20
55.56
64.90
64.84
56.70
42.44
25.27
8.37
-5.98
-17.63
-26.43
-32.41
-35.54
-36.18
-34.84
-31.50
-26.08
-18.64
-10.13
-1.17
7.64
15.85
23.19
29.93
37.14
45.91
56.70
68.80
81.01
92.12
101.33
108.20
112.50
113.99
112.10
106.12
95.53
80.68
62.84
44.12
26.97
13.68
