1660323467.00
64.000000
-0.00
-0.00
-0.00
-0.00
-0.00
-0.00
-0.00
-0.00
-0.00
-0.00
0.00
0.01
0.01
-0.00
-0.03
-0.05
-0.05
0.00
0.13
0.36
0.66
1.01
1.37
1.72
2.06
2.40
2.79
3.24
3.80
4.42
5.06
5.66
6.20
6.68
7.15
7.68
8.32
9.15
10.09
11.03
11.87
12.56
13.15
13.81
14.72
16.01
17.89
20.15
22.54
24.81
26.82
28.67
30.69
33.29
36.75
41.40
46.87
52.65
58.20
63.19
67.74
72.30
77.54
83.89
91.80
100.74
109.93
118.59
126.26
133.07
139.62
147.11
154.03
162.46
172.89
185.52
199.38
211.89
218.92
215.84
199.01
167.11
122.11
67.67
8.28
-52.35
-112.07
-170.18
-226.77
-281.97
-335.65
-387.04
-435.54
-480.20
-519.74
-552.44
-576.28
-589.34
-590.23
-578.56
-554.89
-521.19
-480.21
-434.82
-386.98
-336.98
-283.35
-223.77
-156.69
-82.72
-5.40
69.73
136.92
192.10
233.88
263.30
282.63
294.01
298.81
297.72
291.41
281.03
268.12
254.20
240.20
226.29
212.09
197.12
181.27
165.02
149.20
134.69
122.02
111.23
101.94
93.52
85.33
76.94
68.18
59.19
50.32
42.00
34.57
28.22
22.90
18.52
14.76
11.37
8.24
5.38
2.87
0.75
-1.06
-2.72
-4.37
-6.05
-7.62
-8.83
-9.52
-9.72
-9.75
-10.11
-11.18
-12.98
-15.01
-16.52
-16.81
-15.63
-13.28
-10.44
-7.78
-5.68
-4.19
-3.16
-2.56
-2.44
-2.87
-3.68
-4.40
-4.43
-3.35
-1.25
1.29
3.40
4.37
3.94
2.42
0.38
-1.59
-3.14
-4.22
-4.83
-4.89
-4.31
-3.12
-1.71
-0.76
-0.90
-2.28
-4.45
-6.52
-7.70
-7.80
-7.20
-6.49
-5.90
-5.12
-3.59
-1.02
2.19
5.02
6.50
6.29
4.83
3.11
1.97
1.74
2.17
2.76
3.05
2.83
2.08
0.84
-0.80
-2.61
-4.10
-4.62
-3.64
-1.08
2.54
6.27
9.15
10.63
10.74
10.03
9.21
8.70
8.56
8.34
7.52
5.83
3.37
0.55
-2.09
-4.18
-5.62
-6.56
-7.23
-7.73
-7.98
-7.79
-7.04
-5.86
-4.65
-3.88
-3.93
-4.76
-5.92
-6.70
-6.50
-5.14
-2.99
-0.76
0.92
1.80
2.08
2.16
2.33
2.53
2.47
1.83
0.53
-1.20
-2.98
-4.49
-5.57
-6.25
-6.58
-6.46
-5.71
-4.23
-2.27
-0.58
-0.23
-2.20
-6.78
-13.25
-19.92
-24.74
-26.11
-23.64
-18.19
-11.50
-5.33
-0.78
2.00
3.52
4.48
5.33
6.10
6.67
6.80
6.57
6.26
6.18
6.49
7.19
8.10
8.97
9.59
9.84
9.82
9.69
9.72
10.09
10.82
11.70
12.42
12.68
12.36
11.56
10.46
9.17
7.67
5.83
3.55
0.96
-1.59
-3.63
-4.78
-4.88
-4.05
-2.66
-1.20
-0.09
0.41
0.31
-0.08
-0.35
-0.10
0.78
2.11
3.42
4.22
4.17
3.23
1.67
-0.06
-1.49
-2.28
-2.27
-1.53
-0.34
0.91
1.83
2.14
1.78
0.88
-0.26
-1.26
-1.85
-1.88
-1.39
-0.64
0.02
0.24
-0.15
-1.07
-2.21
-3.16
-3.58
-3.21
-1.95
0.20
3.02
6.00
8.30
8.94
7.13
2.70
-3.75
-10.91
-17.30
-21.77
-23.90
-24.08
-23.26
-22.50
-22.58
-23.65
-25.19
-26.19
-25.63
-22.96
-18.40
-12.97
-7.93
-4.24
-2.13
-1.13
-0.55
0.03
0.53
0.64
0.13
-0.75
-1.36
-1.07
0.32
2.49
4.79
6.67
8.00
9.05
10.29
12.03
14.24
16.63
18.76
20.31
21.19
21.48
21.23
20.32
18.42
15.20
10.57
4.93
-0.89
-5.95
-9.57
-11.60
-12.41
-12.62
-12.67
-12.65
-12.39
-11.73
-10.76
-9.76
-8.95
-8.25
-7.26
-5.49
-2.68
0.94
4.82
8.27
10.83
12.37
13.09
13.26
13.11
12.75
12.23
11.54
10.75
9.89
8.97
7.96
6.77
5.30
3.46
1.19
-1.46
-4.28
-6.88
-8.81
-9.65
-9.25
-7.79
-5.69
-3.44
-1.42
0.30
1.81
3.30
4.85
6.31
7.32
7.53
6.79
5.27
3.47
2.01
1.33
1.55
2.37
3.29
3.84
3.79
3.16
2.16
1.04
-0.04
-0.99
-1.82
-2.60
-3.40
-4.26
-5.21
-6.26
-7.39
-8.60
-9.80
-10.77
-11.20
-10.71
-9.10
-6.45
-3.19
0.06
2.78
4.82
6.37
7.84
9.50
11.30
12.89
13.91
14.24
14.06
13.78
13.69
13.77
13.66
12.93
11.30
8.91
6.21
3.82
2.22
1.56
1.67
2.11
2.39
2.04
0.77
-1.49
-4.52
-7.85
-10.95
-13.35
-14.84
-15.43
-15.21
-14.20
-12.40
-9.82
-6.68
-3.43
-0.63
1.32
2.38
2.92
3.62
5.22
8.22
12.69
18.05
23.04
25.90
24.74
18.17
5.87
-11.05
-30.11
-48.05
-61.60
-68.38
-67.48
-59.79
-47.68
-34.41
-23.23
-16.52
-15.21
-18.61
-24.81
-31.21
-35.36
-35.51
-31.02
-22.35
-10.85
1.63
13.22
22.47
28.63
31.78
32.70
32.55
32.44
33.00
34.29
35.82
36.84
36.64
34.87
31.53
27.00
21.84
16.62
11.85
7.88
4.88
2.79
1.38
0.31
-0.79
-2.24
-4.26
-6.89
-9.96
-13.04
-15.58
-17.03
-17.09
-15.80
-13.51
-10.72
-7.89
-5.38
-3.42
-2.27
-2.08
-2.89
-4.48
-6.38
-8.07
-9.25
-9.96
-10.62
-11.68
-13.40
-15.60
-17.74
-19.22
-19.72
-19.39
-18.83
-18.82
-19.92
-22.30
-25.59
-29.02
-31.67
-32.63
-31.44
-28.19
-23.75
-19.43
-16.48
-15.44
-15.76
-16.10
-15.06
-12.16
-8.27
-5.31
-5.31
-9.39
-17.01
-26.08
-33.61
-36.87
-34.39
-26.54
-15.52
-4.48
3.72
7.84
8.92
9.72
13.49
22.34
36.19
52.69
68.04
78.12
79.57
70.79
52.48
27.91
2.47
-17.53
-26.77
-23.08
-8.63
10.35
25.79
30.79
22.30
2.14
-23.97
-48.62
-65.21
-69.83
-61.91
-44.00
-20.86
1.83
18.77
26.36
23.62
12.42
-3.21
-18.40
-29.12
-33.38
-31.41
-25.09
-16.95
-9.33
-3.79
-0.92
-0.28
-0.45
0.68
5.28
14.67
28.62
45.21
61.33
73.81
80.54
81.27
77.59
72.13
67.45
65.06
65.07
66.52
68.11
68.86
68.48
67.25
65.63
63.78
61.41
58.02
53.41
47.87
42.18
37.24
33.58
31.10
29.03
26.37
22.45
17.53
12.45
8.18
5.42
4.36
4.75
6.03
7.62
9.15
11.06
13.81
17.52
21.85
26.29
30.37
33.76
36.28
37.98
39.74
42.09
44.85
47.32
48.92
49.59
49.75
49.88
50.32
51.95
54.74
57.72
59.41
58.84
56.05
51.90
47.47
36.96
18.10
-6.98
-33.06
-55.93
-74.35
-89.01
-100.87
-110.38
-117.21
-120.12
-118.85
-114.66
-109.95
-107.01
-106.86
-108.87
-112.14
-113.52
-109.66
-98.76
-81.20
-59.39
-36.98
-17.78
-4.69
-0.16
-3.45
-11.15
-19.18
-24.63
-26.67
-26.26
-24.94
-23.74
-22.66
-20.67
-16.82
-11.17
-5.18
-0.20
2.78
3.80
3.78
3.90
5.08
7.37
9.90
11.51
11.36
9.34
6.15
3.01
1.02
0.96
2.76
5.72
8.88
11.46
13.08
13.87
14.28
14.73
15.46
16.39
17.26
17.83
18.03
17.98
17.97
18.30
19.12
20.32
21.54
22.25
22.09
21.04
19.55
18.49
18.80
21.15
25.53
31.24
37.00
41.56
44.28
45.51
46.54
49.11
54.62
63.48
74.68
85.85
93.64
94.49
85.76
67.18
41.84
16.23
-1.58
-5.18
7.05
30.35
54.99
70.10
67.83
45.85
7.03
-42.84
-97.53
-151.65
-200.38
-238.95
-262.53
-267.50
-253.04
-222.13
-180.98
-137.14
-97.50
-66.94
-47.85
-40.59
-44.16
-56.32
-73.56
-91.12
-103.87
-108.19
-104.14
-96.70
-94.77
-107.61
-139.72
-187.54
-239.53
-280.46
-297.81
-286.71
-251.04
-200.15
-143.73
-87.67
-33.30
20.46
73.92
124.86
168.94
201.72
220.74
226.49
221.87
210.81
197.11
183.96
173.64
167.78
167.27
172.10
181.15
192.18
201.83
205.95
200.43
182.52
152.74
115.98
81.03
57.78
53.09
67.43
94.08
121.75
139.27
140.00
123.70
95.53
63.12
33.69
12.46
2.40
4.65
18.49
41.13
67.66
91.81
107.62
111.20
101.84
81.70
54.60
24.24
-6.99
-38.43
-70.82
-105.88
-145.86
-192.84
-247.58
-308.04
-368.93
-421.93
-457.67
-468.70
-452.31
-411.68
-354.34
-289.00
-222.30
-157.84
-96.57
-38.53
15.68
64.62
106.36
139.90
165.60
185.19
199.92
210.43
217.23
221.38
224.91
229.34
235.90
245.30
258.52
274.25
290.25
303.76
312.42
314.56
308.17
294.09
277.30
267.54
269.90
283.66
301.68
314.47
313.77
293.14
252.43
197.69
141.00
86.85
34.63
-19.07
-75.04
-131.01
-186.75
-242.07
-296.15
-343.53
-387.12
-431.56
-480.60
-532.64
-559.29
-539.53
-471.96
-403.15
-349.09
-319.48
-308.75
-315.86
-337.21
-367.96
-407.22
-453.68
-501.84
-518.05
-482.80
-396.32
-279.83
-160.03
-57.23
16.39
58.80
78.01
89.03
96.33
100.18
99.62
97.13
97.64
104.88
117.39
134.65
157.84
182.96
206.07
225.13
242.02
260.47
282.78
309.32
339.35
372.24
404.91
435.33
462.80
487.46
507.80
519.51
516.68
494.72
452.55
391.92
317.81
237.05
157.13
84.75
25.78
-16.03
-40.75
-53.14
-62.21
-78.44
-109.81
-158.03
-217.70
-277.65
-326.05
-356.40
-368.94
-369.17
-364.74
-361.92
-363.72
-370.42
-378.91
-384.56
-383.88
-373.85
-352.12
-317.76
-271.91
-214.11
-152.47
-97.10
-47.54
-2.52
38.95
77.42
113.22
147.21
181.34
217.47
257.59
301.87
345.87
382.61
405.38
410.48
398.87
375.96
348.98
325.07
308.53
298.30
289.81
277.28
255.51
220.91
171.82
108.39
34.13
-43.28
-112.87
-161.94
-180.09
-164.30
-122.04
-70.22
-29.70
-16.88
-36.90
-82.04
-135.04
-176.33
-191.44
-174.89
-129.88
-65.15
8.73
81.72
145.18
192.37
219.08
224.04
209.21
179.09
139.27
95.10
50.52
7.92
-31.82
-69.19
-106.05
-145.36
-190.43
-243.90
-306.31
-375.15
-444.63
-506.65
-552.63
-575.97
-574.07
-549.02
-506.62
-453.85
-396.11
-335.88
-273.20
-207.69
-140.60
-75.30
-15.91
35.32
79.85
122.70
170.19
226.67
291.98
360.68
423.22
468.72
488.03
476.75
437.41
380.11
320.43
274.99
255.20
262.41
286.87
311.31
318.03
295.91
244.32
172.63
96.11
30.41
-12.63
-27.54
-15.95
14.37
51.44
81.91
94.50
83.38
49.93
2.06
-49.26
-94.41
-128.92
-154.71
-177.92
-204.20
-234.36
-262.68
-279.50
-277.06
-255.28
-223.55
-197.63
-192.90
-217.35
-268.34
-334.23
-399.64
-451.31
-481.80
-489.81
-478.35
-451.85
-413.96
-367.05
-312.56
-252.11
-188.44
-125.86
-69.19
-21.91
15.74
47.33
79.31
118.70
170.42
235.16
307.96
379.60
439.42
478.41
491.02
476.03
436.70
380.33
317.39
258.92
215.99
197.88
209.64
249.27
306.85
367.07
414.30
437.57
431.42
397.50
343.04
277.80
210.45
146.17
86.83
33.02
-15.05
-60.04
-105.39
-153.65
-205.23
-258.66
-312.12
-364.23
-413.15
-440.96
-433.57
-389.96
-324.21
-254.46
-192.21
-141.47
-102.64
-73.63
-51.44
-35.78
-27.03
-24.72
-28.05
-32.78
-36.02
-37.92
-39.34
-41.46
-48.12
-63.43
-89.00
-121.74
-154.10
-167.36
-151.27
-105.16
-38.22
32.94
91.55
127.38
140.09
137.69
130.51
128.18
135.19
152.29
176.09
200.11
216.62
218.53
201.48
163.77
108.82
46.81
-9.06
-47.21
-59.25
-44.85
-13.28
19.83
36.29
24.58
-14.03
-67.78
-120.24
-156.93
-169.04
-155.15
-110.94
-44.22
30.01
99.36
159.21
209.77
246.41
263.00
252.09
213.35
152.96
82.22
20.96
-14.81
-22.25
-11.50
3.92
10.76
5.25
-11.95
-35.76
-59.50
-80.58
-97.38
-113.12
-130.92
-152.14
-179.94
-217.44
-264.18
-315.84
-367.23
-413.12
-447.76
-464.19
-434.22
-349.16
-227.60
-103.16
-2.01
66.89
107.87
130.63
144.65
156.52
164.68
165.71
159.53
150.04
143.42
142.17
146.33
155.04
168.38
183.35
197.74
211.44
225.08
237.29
243.69
238.99
211.91
164.01
104.21
45.53
-0.84
-29.65
-42.38
-44.67
-42.50
-38.91
-33.25
-25.89
-18.22
-12.20
-9.32
-10.12
-14.18
-21.65
-30.21
-37.13
-41.78
-45.10
-48.87
-54.83
-64.15
-74.16
-84.70
-94.56
-101.47
-104.00
-102.21
-97.47
-92.05
-88.15
-87.03
-89.19
-93.80
-99.53
-105.42
-110.38
-112.48
-108.81
-96.49
-74.04
-43.25
-8.41
24.93
52.05
70.69
81.40
86.28
87.43
86.17
83.29
79.46
76.29
75.93
80.36
90.39
104.74
119.91
131.04
132.63
120.72
94.36
56.65
14.04
-26.22
-57.39
-78.29
-91.46
-101.89
-114.16
-129.67
-145.93
-157.43
-158.26
-145.56
-120.50
-87.15
-50.79
-15.95
14.25
37.51
50.85
50.13
30.14
-12.55
-76.65
-155.57
-238.55
-313.71
-371.47
-407.32
-417.08
-402.83
-371.01
-329.65
-286.15
-245.52
-209.79
-178.65
-150.80
-125.26
-102.72
-83.93
-68.46
-54.70
-40.44
-23.89
-4.59
16.47
37.40
55.77
70.45
83.00
96.19
112.85
134.82
162.38
194.27
228.46
262.47
294.87
327.18
361.24
398.47
439.58
485.26
536.18
592.09
650.24
704.81
749.95
778.28
783.60
763.67
721.69
665.10
601.98
537.77
473.92
412.58
353.78
296.79
240.62
184.69
128.93
73.08
16.71
-58.80
-154.09
-254.69
-339.75
-395.82
-421.67
-423.89
-411.70
-393.52
-376.36
-360.68
-346.47
-331.74
-315.92
-300.26
-286.28
-275.49
-269.46
-271.18
-280.78
-298.28
-323.51
-351.32
-375.97
-389.70
-384.81
-346.32
-272.87
-177.69
-83.37
-8.18
40.72
66.10
76.09
78.69
79.03
78.47
79.58
84.04
94.01
109.38
125.95
136.98
135.78
115.38
77.49
31.64
-9.67
-36.57
-45.94
-41.51
-30.00
-17.38
-6.69
1.47
7.39
11.62
14.57
16.53
17.83
19.26
21.73
25.94
31.67
36.90
40.13
40.10
36.34
29.23
19.91
9.72
-0.38
-8.68
-16.07
-23.55
-31.62
-39.90
-47.24
-52.20
-53.83
-52.22
-48.39
-44.39
-41.82
-41.46
-42.76
-44.18
-44.04
-41.56
-37.18
-32.14
-28.29
-26.62
-27.40
-30.26
-34.61
-39.55
-43.14
-42.43
-34.35
-17.87
4.61
26.82
41.31
43.03
31.66
12.84
-5.49
-16.76
-18.53
-12.58
-3.33
5.66
13.31
20.59
28.96
38.58
47.98
54.98
58.27
57.31
53.24
48.02
43.10
38.94
34.80
29.17
20.60
9.85
-3.37
-17.91
-31.92
-43.65
-51.90
-56.28
-57.29
-57.48
-56.78
-55.96
-55.25
-54.40
-52.86
-49.94
-45.11
-38.50
-30.74
-22.74
-16.50
-13.56
-14.74
-19.99
-28.51
-39.18
-51.17
-63.81
-76.76
-90.87
-107.06
-126.36
-149.90
-178.25
-210.51
-243.78
-272.14
-288.23
-286.52
-264.93
-225.82
-175.08
-119.12
-59.54
1.98
66.25
135.43
206.61
272.19
322.75
351.74
358.45
347.91
327.34
303.64
281.51
262.28
245.56
230.54
216.03
200.14
180.00
151.49
111.56
61.12
5.90
-44.71
-81.70
-100.98
-104.83
-100.06
-93.27
-87.43
-80.76
-69.92
-53.94
-36.41
-24.47
-26.14
-42.89
-67.92
-92.41
-106.90
-105.79
-89.50
-63.45
-35.67
-13.31
-0.82
0.82
-5.13
-11.29
-8.52
10.48
48.50
99.26
152.23
194.19
212.67
200.41
158.67
96.80
28.53
-32.35
-75.69
-97.04
-97.72
-83.99
-66.71
-55.72
-54.13
-59.78
-68.86
-78.77
-89.11
-99.12
-107.99
-112.45
-108.38
-92.04
-62.64
-22.47
25.35
72.37
112.06
140.66
158.44
167.73
172.45
175.23
176.71
176.99
174.76
169.53
161.22
154.45
146.40
134.14
114.93
82.14
39.00
-8.41
-52.51
-86.75
-107.34
-114.93
-112.01
-102.29
-89.77
-77.00
-66.72
-60.82
-59.73
-63.39
-72.11
-84.74
-99.33
-114.69
-129.60
-145.00
-162.66
-183.82
-207.92
-232.75
-251.74
-256.37
-240.21
-200.96
-143.00
-75.64
-8.88
50.30
96.22
123.89
131.61
121.88
101.38
76.88
52.62
31.32
17.20
8.35
5.21
9.04
20.28
39.63
68.13
103.76
145.19
191.63
239.20
287.45
337.74
381.46
411.97
426.92
426.87
413.13
398.55
375.40
338.10
287.63
230.68
172.13
120.51
80.67
52.88
33.88
13.60
-13.47
-48.18
-87.95
-128.04
-164.99
-198.55
-230.24
-261.84
-300.87
-350.48
-409.54
-473.29
-534.95
-590.04
-637.78
-679.91
-690.46
-656.45
-581.45
-485.78
-392.48
-314.69
-255.71
-211.86
-175.13
-136.44
-93.79
-48.02
-2.39
36.52
69.78
97.82
121.27
141.82
161.96
180.25
195.94
210.14
223.48
238.44
255.33
272.55
287.33
296.54
295.84
283.66
261.86
236.44
215.16
203.31
202.59
210.46
219.80
219.32
202.12
162.80
105.82
44.52
-5.08
-30.14
-25.78
2.90
42.29
76.43
92.38
84.75
55.49
11.32
-39.18
-87.57
-123.16
-140.26
-139.39
-125.75
-105.22
-82.58
-60.69
-41.86
-26.62
-16.52
-13.95
-20.19
-34.95
-56.31
-82.38
-109.68
-136.36
-160.45
-178.89
-187.38
-181.70
-160.32
-125.97
-85.58
-47.54
-18.50
-0.95
6.58
8.08
7.22
5.72
3.57
0.23
-3.46
-5.08
-1.70
8.37
25.38
47.51
71.28
93.03
110.51
121.01
126.17
129.13
132.47
138.76
149.48
164.16
179.89
191.75
193.28
178.77
148.24
102.67
50.44
4.60
-22.80
-25.27
-3.57
34.78
78.37
115.40
136.53
137.83
120.33
87.01
42.20
-8.26
-58.15
-102.85
-140.12
-170.45
-195.80
-213.13
-215.88
-201.69
-172.37
-133.69
-93.93
-59.64
-33.90
-18.58
-8.08
0.71
7.82
11.90
11.23
2.90
-13.13
-36.53
-65.93
-99.49
-137.09
-178.01
-218.63
-241.17
-230.15
-182.10
-109.41
-32.19
32.69
75.86
97.01
102.64
101.49
99.89
99.80
101.53
106.16
115.52
130.19
148.68
167.14
176.72
170.51
148.05
116.07
84.87
62.88
53.23
53.13
58.88
67.38
75.90
81.75
81.90
73.51
53.79
20.25
-23.48
-70.71
-112.21
-137.73
-138.91
-112.20
-59.85
8.41
77.62
130.63
154.48
145.44
110.37
61.02
9.68
-32.90
-61.64
-76.10
-81.18
-83.32
-87.72
-97.55
-108.58
-120.24
-132.37
-146.93
-164.66
-187.75
-217.09
-251.78
-289.65
-329.33
-372.12
-418.16
-468.11
-498.57
-490.37
-437.20
-350.15
-250.07
-156.72
-90.14
-46.81
-20.61
-2.63
11.91
25.77
41.32
61.06
87.74
119.96
154.39
183.61
204.34
213.55
209.89
193.70
167.50
135.24
100.92
75.59
58.72
50.24
47.00
44.58
39.16
29.37
16.72
5.24
1.68
4.29
15.49
34.97
59.29
83.45
103.04
115.57
121.38
124.09
130.19
148.49
183.49
232.52
286.38
332.30
357.87
355.22
322.93
268.13
203.23
139.95
86.82
49.62
31.37
30.95
42.10
53.88
58.55
53.65
42.47
32.56
33.08
50.02
82.74
124.75
147.15
129.78
72.06
-6.56
-83.58
-147.47
-199.40
-246.10
-288.75
-328.65
-357.60
-366.06
-350.03
-313.80
-266.12
-216.73
-174.76
-143.24
-119.79
-95.00
-59.81
-9.78
53.36
126.06
201.47
270.60
324.49
355.76
363.29
351.57
330.48
312.06
308.94
324.53
350.63
371.42
370.77
340.31
281.55
204.43
105.02
-4.05
-102.65
-176.18
-222.44
-247.04
-255.55
-252.47
-239.74
-221.94
-204.74
-196.93
-206.46
-235.72
-277.70
-319.02
-344.94
-343.99
-313.65
-258.72
-191.22
-124.51
-67.23
-20.66
15.35
39.88
53.89
58.58
55.76
45.51
27.63
3.75
-22.29
-44.11
-58.94
-63.21
-56.12
-39.84
-18.80
2.93
24.09
46.54
70.62
97.37
130.37
171.39
219.39
270.42
318.97
358.82
383.35
386.29
349.82
271.20
165.73
59.79
-24.58
-79.12
-107.60
-119.02
-121.98
-120.92
-114.20
-100.17
-80.35
-59.18
-41.34
-29.15
-22.01
-18.69
-16.35
-11.32
-2.78
6.74
12.84
11.79
2.53
-11.93
-28.53
-44.03
-54.80
-59.65
-60.22
-59.56
-60.19
-62.66
-65.50
-67.52
-69.99
-70.29
-67.48
-62.63
-57.21
-51.74
-45.26
-35.46
-22.04
-5.63
12.81
30.93
44.63
50.40
45.87
30.29
10.39
-10.14
-26.46
-38.22
-41.54
-35.84
-23.74
-10.02
0.11
3.24
0.41
-7.82
-12.56
-5.80
14.39
44.98
80.25
109.26
133.01
152.68
167.91
177.32
180.44
172.27
149.47
112.84
67.62
22.02
-18.58
-51.45
-76.16
-94.57
-114.15
-141.46
-179.17
-225.41
-275.26
-325.39
-374.32
-421.92
-445.09
-430.89
-381.03
-311.17
-239.27
-175.53
-123.18
-81.12
-46.85
-18.27
2.15
12.35
12.23
3.90
-9.22
-23.91
-36.08
-40.20
-30.34
-5.73
30.40
71.37
108.99
136.31
149.49
149.13
139.54
126.80
114.00
102.61
93.60
88.52
88.59
92.44
96.16
94.15
82.26
60.05
33.02
10.94
3.37
15.24
44.35
82.43
118.61
143.16
150.46
140.59
118.95
94.37
76.75
74.08
89.66
120.44
157.61
189.32
205.33
200.65
176.37
139.16
98.05
61.01
32.67
13.88
2.87
-3.41
-7.06
-10.79
-17.04
-27.80
-44.68
-68.51
-99.21
-135.88
-177.33
-222.57
-270.68
-319.89
-366.81
-407.02
-436.12
-451.20
-451.42
-437.61
-411.47
-375.20
-330.65
-279.35
-223.25
-164.49
-105.12
-46.20
12.99
74.54
138.26
198.73
248.20
280.71
295.72
296.17
285.73
267.82
244.96
219.21
192.51
167.11
144.43
125.30
109.47
95.36
81.48
66.79
50.78
33.79
20.07
9.20
0.76
-6.01
-12.78
-21.02
-31.57
-44.29
-58.11
-71.37
-83.18
-93.28
-102.33
-112.33
-124.46
-138.95
-154.69
-169.32
-179.64
-182.38
-178.12
-165.86
-145.56
-117.62
-85.68
-56.80
-39.49
-39.59
-57.19
-85.52
-113.53
-131.35
-130.81
-110.52
-75.54
-34.11
7.09
45.37
81.60
117.88
154.81
196.39
244.37
296.98
349.10
395.07
431.51
458.01
476.09
488.08
503.01
527.94
564.68
609.43
656.47
701.76
743.80
782.47
775.93
701.04
564.10
400.25
248.79
131.62
49.70
-8.83
-59.37
-113.30
-167.47
-212.71
-239.95
-245.62
-232.24
-206.85
-176.12
-146.25
-122.20
-102.46
-84.60
-67.33
-52.38
-43.24
-42.90
-53.00
-74.75
-109.21
-150.96
-194.87
-237.23
-277.62
-318.21
-360.88
-405.25
-448.54
-486.65
-515.97
-533.91
-540.03
-537.24
-530.83
-525.76
-524.81
-528.66
-536.34
-547.72
-558.96
-562.18
-548.72
-512.97
-454.47
-378.46
-294.37
-194.29
-88.31
5.43
73.65
114.82
134.20
137.15
127.75
108.68
83.49
54.73
29.02
14.62
17.65
37.99
70.98
110.13
150.69
189.90
225.18
257.76
291.18
328.28
369.26
412.48
454.80
493.36
522.80
535.37
527.16
501.50
468.92
443.36
436.83
453.06
486.25
519.90
533.27
511.65
452.21
362.98
257.59
149.75
36.59
-72.31
-161.99
-221.33
-248.07
-246.67
-225.22
-195.21
-164.97
-141.66
-129.19
-128.84
-139.51
-159.02
-184.48
-214.39
-248.89
-288.95
-336.07
-389.71
-445.13
-492.99
-521.44
-519.79
-482.84
-413.19
-320.41
-208.34
-95.31
-3.89
52.72
76.28
77.68
67.65
53.09
39.52
27.70
17.50
10.76
10.04
17.03
32.36
55.00
82.60
114.23
150.16
190.69
236.49
286.19
334.36
372.60
391.04
382.84
347.75
291.84
224.39
155.34
91.65
31.48
-23.24
-69.47
-104.62
-127.62
-139.03
-140.72
-134.83
-123.70
-109.35
-92.71
-75.09
-57.51
-40.45
-24.20
-9.67
3.17
13.50
19.98
21.77
17.68
7.00
-9.81
-30.29
-51.32
-70.29
-85.95
-98.24
-107.54
-114.71
-120.55
-125.50
-129.80
-133.70
-136.64
-136.94
-131.45
-116.53
-90.34
-54.50
-13.97
24.53
54.92
74.21
82.65
82.77
77.71
69.49
59.03
47.28
35.97
27.55
25.01
30.24
43.10
60.86
78.45
89.46
88.56
73.64
46.53
14.70
-13.02
-30.14
-35.04
-31.03
-23.92
-18.61
-16.84
-17.19
-16.81
-14.05
-9.45
-5.17
-3.41
-4.98
-8.68
-11.95
-11.87
-6.67
3.31
15.91
28.03
36.74
40.33
38.88
33.77
27.01
20.03
13.18
5.60
-4.06
-17.02
-33.39
-52.72
-74.07
-95.88
-115.65
-129.73
-133.92
-125.00
-102.65
-70.76
-36.42
-7.46
10.73
17.34
15.86
11.65
8.97
9.06
10.20
9.57
5.89
0.17
-4.88
-6.51
-3.22
4.95
17.09
32.22
49.54
67.52
82.93
91.13
88.14
73.61
52.43
33.15
24.13
29.37
46.33
67.47
84.21
91.25
88.54
80.27
71.54
65.31
61.59
58.94
56.62
55.22
55.51
56.51
54.63
44.61
22.43
-11.89
-52.99
-91.10
-116.18
-123.12
-113.35
-93.26
-70.64
-51.09
-36.51
-25.57
-15.68
-5.20
5.78
16.02
24.00
28.62
29.80
28.23
25.01
20.97
15.88
8.60
-2.27
-17.39
-36.30
-56.36
-75.54
-92.07
-104.54
-111.83
-112.63
-105.42
-89.03
-64.45
-35.16
-6.61
16.04
30.05
36.75
39.90
44.01
51.71
61.96
70.27
71.21
61.41
42.54
20.46
2.28
-6.91
-6.38
0.57
8.97
15.10
18.28
20.68
25.09
32.74
42.78
52.82
60.42
64.45
65.34
64.37
63.04
61.83
59.98
55.95
48.17
35.76
19.19
-0.04
-19.81
-37.82
-52.35
-62.63
-68.80
-71.79
-73.00
-73.77
-75.17
-77.75
-81.25
-84.88
-87.66
-88.86
-88.23
-86.26
-83.78
-81.78
-81.34
-83.29
-88.23
-95.96
-104.79
-111.41
-111.56
-102.10
-81.95
-54.24
-25.12
-1.34
12.74
17.07
15.62
13.78
15.87
23.38
34.96
48.32
61.75
74.69
87.97
102.19
117.04
131.55
144.88
156.04
164.06
167.44
163.07
148.57
123.43
90.36
55.01
24.15
2.55
-8.82
-12.63
-13.57
-15.28
-19.09
-24.41
-30.51
-38.30
-50.41
-69.08
-93.03
-117.39
-134.64
-138.25
-126.04
-101.53
-71.11
-41.56
-17.05
1.52
14.38
20.73
18.26
5.32
-15.68
-37.74
-51.31
-49.01
-29.93
-0.50
28.75
48.69
55.37
51.33
42.72
35.28
31.59
30.78
30.71
29.97
29.20
29.78
33.00
38.88
45.81
51.49
53.60
51.21
44.66
35.83
26.55
18.29
12.17
9.03
9.29
13.48
22.32
36.26
55.80
79.95
106.52
133.06
157.38
177.43
192.66
204.52
216.05
231.88
253.53
278.85
302.31
315.96
311.17
283.38
233.83
165.10
88.68
14.91
-48.89
-98.96
-135.60
-162.96
-184.32
-200.88
-212.28
-214.84
-209.91
-200.84
-190.98
-184.17
-185.94
-199.06
-223.28
-256.05
-290.50
-325.10
-360.34
-396.89
-416.34
-407.83
-371.93
-321.53
-293.50
-291.48
-311.99
-349.59
-385.58
-407.54
-410.00
-390.73
-351.77
-298.34
-233.45
-162.83
-89.77
-14.35
62.41
136.55
206.03
269.92
328.48
385.26
441.62
498.79
557.98
618.49
660.03
667.48
638.16
582.23
514.90
444.41
372.13
297.33
221.01
147.38
85.07
41.48
18.16
9.73
8.98
9.90
9.02
5.06
-1.98
-10.36
-18.67
-27.53
-38.07
-51.15
-64.37
-76.11
-86.27
-96.45
-109.41
-121.42
-130.43
-135.90
-138.00
-137.43
-133.94
-126.94
-116.59
-104.65
-93.14
-84.68
-80.14
-77.72
-75.48
-71.21
-67.71
-63.59
-59.32
-55.59
-53.32
-52.50
-51.77
-51.09
-49.19
-43.43
-30.80
-10.45
15.65
41.92
60.95
71.32
69.63
57.08
45.69
48.80
74.68
121.78
179.92
232.08
274.82
308.21
334.27
354.48
368.52
374.33
370.67
358.72
342.35
327.43
317.35
313.93
316.80
323.05
328.35
328.49
320.93
305.36
283.50
255.87
223.44
187.34
148.42
107.44
65.29
23.46
-15.87
-50.14
-78.60
-101.19
-118.29
-130.67
-139.45
-146.00
-151.47
-156.55
-161.34
-167.16
-174.99
-184.74
-195.35
-205.48
-214.16
-220.73
-224.76
-225.92
-227.37
-231.21
-237.16
-242.94
-246.18
-246.19
-243.77
-239.97
-235.89
-238.91
-253.39
-277.87
-306.35
-332.63
-353.76
-369.90
-382.62
-393.72
-414.86
-453.01
-505.79
-563.55
-616.27
-658.77
-690.75
-714.08
-730.93
-756.73
-800.96
-861.86
-928.56
-990.19
-1042.27
-1086.22
-1125.82
-1075.61
-897.26
-615.39
-302.26
-23.04
196.16
361.31
490.18
598.51
693.62
761.15
788.05
773.47
730.25
675.57
623.02
579.35
546.45
523.33
497.43
459.14
410.17
360.53
320.70
296.62
289.86
299.32
323.02
352.21
378.52
398.73
414.34
426.12
431.26
425.05
404.32
370.38
325.58
278.30
233.10
194.03
161.19
130.62
97.17
58.10
15.22
-27.02
-61.04
-81.60
-87.52
-83.07
-75.45
-71.02
-72.60
-78.74
-85.58
-90.07
-91.99
-92.97
-95.38
-100.51
-107.44
-113.82
-117.57
-118.47
-117.02
-114.98
-113.38
-111.64
-107.70
-98.68
-81.96
-56.76
-24.78
10.37
43.60
70.21
86.78
92.10
86.85
73.47
55.12
35.04
16.25
1.34
-7.45
-8.53
-0.72
13.44
32.58
54.49
76.49
95.89
110.56
119.41
122.37
120.17
114.03
105.66
96.31
86.93
78.14
70.16
63.06
56.76
51.01
45.59
40.66
36.24
32.20
28.59
25.43
22.76
20.63
19.05
18.15
18.34
20.01
23.28
28.35
35.11
44.56
55.17
65.48
73.98
79.40
80.56
76.54
67.00
51.94
30.00
3.61
-25.09
-54.33
-82.32
-107.48
-128.51
-144.32
-154.57
-159.40
-158.93
-153.77
-144.83
-133.03
-119.36
-104.73
-89.70
-75.00
-61.16
-48.36
-36.66
-26.03
-16.20
-7.02
0.25
6.39
11.77
16.55
20.82
24.81
28.73
32.96
37.76
43.13
49.33
56.02
64.07
71.80
77.97
81.48
81.33
76.77
67.41
53.50
35.51
14.16
-9.45
-33.92
-58.02
-80.72
-101.34
-119.49
-134.99
-148.12
-159.32
-168.76
-176.47
-182.61
-187.32
-190.81
-193.28
-194.98
-196.40
-198.07
-199.92
-201.86
-203.79
-205.45
-206.46
-206.11
-203.30
-196.31
-187.52
-177.53
-166.57
-154.89
-142.70
-130.27
-117.86
-105.79
-94.40
-84.07
-74.56
-65.77
-57.69
-50.31
-43.74
-38.16
-33.78
-30.82
-29.47
-29.33
-29.97
-30.90
-31.56
-31.49
-30.31
-27.90
-24.33
-19.90
-14.72
-9.07
-3.27
2.32
7.34
11.46
14.45
16.28
17.22
18.02
19.68
23.20
29.40
38.60
50.56
64.54
79.44
94.23
108.23
121.23
133.31
144.73
155.58
165.75
175.00
183.12
190.26
197.00
204.31
213.29
225.06
240.61
260.63
285.15
313.10
341.94
367.83
386.63
395.01
391.65
377.66
355.99
330.27
303.60
277.98
254.25
232.71
213.46
196.60
182.04
169.17
156.96
144.09
129.46
112.55
93.52
73.33
53.29
34.60
17.91
3.20
-10.12
-22.69
-34.67
-45.40
-53.47
-57.50
-56.71
-51.56
-43.56
-34.70
-26.83
-21.06
-17.62
-16.22
-16.52
-18.40
-21.90
-26.91
-32.85
-38.69
-43.18
-45.21
-44.21
-40.21
-33.82
-25.93
-17.52
-9.43
-2.25
3.61
7.88
10.35
10.74
8.69
4.01
-3.26
-12.49
-22.63
-32.39
-40.63
-46.66
-50.36
-52.18
-52.83
-53.22
-54.05
-55.70
-57.88
-59.50
-58.79
-53.97
-44.08
-29.82
-13.71
0.55
9.34
10.59
4.35
-7.25
-21.05
-33.94
-43.73
-49.35
-50.67
-47.92
-41.60
-32.37
-21.28
-9.66
1.10
9.87
16.18
20.29
23.01
25.29
27.71
30.12
31.82
31.88
29.45
24.33
16.96
8.40
0.01
-6.85
-11.32
-13.18
-12.95
-11.65
-10.22
-9.02
-7.63
-5.00
-0.15
7.19
16.18
25.06
31.82
34.91
33.78
28.83
21.22
12.39
3.72
-3.52
-8.53
-10.99
-11.12
-9.64
-7.45
-5.25
-3.38
-1.84
-0.45
0.74
1.38
0.93
-0.94
-4.25
-8.61
-13.41
-18.08
-22.11
-25.22
-27.28
-28.30
-28.50
-28.29
-28.19
-28.42
-28.72
-28.13
-25.66
-20.98
-15.05
-10.28
-9.68
-15.72
-29.09
-48.15
-69.34
-88.40
-101.70
-107.17
-104.66
-95.45
-81.50
-64.84
-47.26
-30.20
-14.81
-2.04
7.63
14.10
17.83
19.63
20.50
21.19
21.91
22.36
21.84
19.76
15.86
10.58
4.88
0.17
-2.15
-1.03
4.20
13.67
26.91
42.73
59.25
74.09
84.79
89.52
87.28
78.16
63.13
43.89
22.67
2.12
-15.09
-27.05
-33.17
-34.62
-33.81
-33.48
-35.42
-39.86
-45.63
-51.14
-55.47
-58.80
-62.25
-66.86
-72.92
-79.62
-85.48
-89.14
-90.07
-88.68
-85.92
-82.53
-78.51
-73.24
-65.75
-54.87
-39.68
-19.53
5.55
34.25
63.55
88.95
105.61
110.12
102.28
85.20
64.41
45.69
33.31
29.01
32.25
41.05
53.04
66.00
77.84
86.64
90.82
89.38
82.39
71.01
57.14
42.92
29.93
18.60
8.33
-2.36
-15.19
-31.26
-50.36
