1660327877.00
64.000000
-0.00
-0.00
-0.00
-0.00
-0.00
-0.00
-0.00
-0.00
-0.00
-0.00
0.00
0.01
0.01
-0.00
-0.03
-0.05
-0.05
0.00
0.13
0.36
0.66
1.01
1.37
1.72
2.06
2.40
2.79
3.24
3.80
4.42
5.06
5.66
6.20
6.68
7.15
7.68
8.31
9.14
10.09
11.04
11.88
12.56
13.14
13.76
14.65
15.96
17.91
20.32
22.90
25.38
27.58
29.57
31.68
34.32
37.81
42.54
48.15
54.10
59.83
64.97
69.58
74.14
79.34
85.71
93.76
103.00
112.62
121.73
129.77
136.75
143.30
150.75
157.77
166.64
177.95
191.79
206.97
220.57
228.25
225.36
208.53
176.87
132.76
80.05
23.07
-34.94
-92.44
-149.16
-205.23
-260.37
-313.74
-363.87
-409.83
-450.91
-486.50
-515.74
-537.23
-549.22
-549.96
-538.37
-514.21
-478.67
-433.88
-382.45
-327.02
-269.84
-212.63
-156.66
-102.95
-52.37
-5.90
35.58
71.43
101.35
125.50
144.38
158.69
169.15
176.37
180.75
182.57
182.07
179.51
175.23
169.65
163.18
156.15
148.81
141.30
133.69
126.02
118.33
110.69
103.16
95.80
88.68
81.83
75.25
68.95
62.95
57.25
51.86
46.78
42.03
37.59
33.45
29.61
26.07
22.81
19.83
17.11
14.67
12.48
10.54
8.83
7.35
6.07
4.97
4.05
3.27
2.62
2.09
1.65
1.30
1.01
0.79
0.61
0.48
0.37
0.30
0.24
0.21
0.19
0.18
0.19
0.21
0.23
0.26
0.29
0.33
0.38
0.42
0.46
0.51
0.56
0.61
0.66
0.72
0.78
0.85
0.92
1.00
1.09
1.18
1.29
1.42
1.55
1.70
1.88
2.07
2.28
2.51
2.77
3.06
3.38
3.72
4.10
4.52
4.97
5.45
5.98
6.55
7.15
7.80
8.50
9.24
10.02
10.85
11.73
12.65
13.62
14.65
15.74
16.89
18.11
19.38
20.68
21.96
23.17
24.20
24.96
25.30
25.12
24.30
22.76
20.49
17.50
13.84
9.66
5.16
0.53
-3.99
-8.19
-11.88
-14.91
-17.19
-18.67
-19.37
-19.37
-18.79
-17.77
-16.45
-14.98
-13.46
-11.94
-10.42
-8.84
-7.22
-5.54
-3.81
-2.07
-0.33
1.41
3.15
4.98
7.01
9.17
11.43
13.73
15.99
18.14
20.21
22.25
24.47
27.12
30.13
33.41
36.81
40.12
43.14
45.78
48.18
50.68
53.78
57.44
61.52
65.72
69.58
72.62
74.65
75.81
76.65
77.96
79.69
81.56
82.87
82.55
79.43
72.53
61.09
44.23
25.59
6.51
-12.44
-31.39
-50.95
-71.88
-94.94
-120.66
-149.05
-179.11
-209.26
-236.39
-256.69
-266.90
-265.59
-253.86
-234.89
-212.59
-189.91
-168.51
-148.11
-127.61
-106.36
-84.84
-64.43
-46.52
-31.77
-19.74
-9.76
-1.13
6.19
11.58
14.24
13.88
11.12
7.47
4.79
4.37
6.65
11.06
16.35
21.23
24.91
27.39
29.36
31.86
35.68
41.08
47.62
54.38
60.34
64.79
67.53
68.83
69.23
69.27
69.32
69.51
69.65
69.25
67.45
63.10
54.99
42.35
25.32
5.21
-15.79
-35.17
-50.84
-61.67
-67.39
-68.38
-65.11
-57.98
-47.40
-34.11
-19.38
-4.85
7.80
17.47
23.95
27.89
30.42
32.58
34.94
37.49
39.83
41.55
42.52
43.04
43.67
45.00
47.28
50.20
52.81
53.54
50.64
42.69
29.22
11.04
-9.80
-30.55
-48.55
-61.91
-69.76
-72.12
-69.39
-62.02
-50.45
-35.32
-17.77
0.46
17.37
31.20
40.92
46.45
48.46
48.05
46.24
43.71
40.77
37.46
33.79
29.89
25.96
22.28
18.98
16.03
13.21
10.24
6.86
2.92
-1.70
-6.99
-12.86
-18.98
-24.78
-29.36
-31.73
-31.07
-27.11
-20.28
-11.66
-2.67
5.44
11.92
16.73
20.22
22.79
24.45
24.71
22.83
18.29
11.21
2.38
-7.02
-15.87
-23.43
-29.40
-33.72
-36.31
-37.04
-35.80
-32.73
-28.27
-23.12
-18.01
-13.52
-9.99
-7.60
-6.43
-6.46
-7.48
-8.97
-10.11
-9.94
-7.71
-3.19
3.17
10.35
17.07
22.23
25.23
25.98
24.72
21.74
17.28
11.52
4.73
-2.63
-9.99
-16.86
-23.06
-28.67
-33.93
-38.98
-43.69
-47.71
-50.66
-52.41
-53.18
-53.50
-53.99
-55.04
-56.69
-58.65
-60.51
-61.92
-62.68
-62.65
-61.49
-58.61
-53.24
-44.79
-33.15
-19.01
-3.70
11.19
24.25
34.72
42.50
48.09
52.19
55.45
58.25
60.68
62.68
64.16
65.18
65.82
66.07
65.65
64.00
60.51
54.83
47.27
38.77
30.64
23.98
19.27
16.21
13.95
11.58
8.48
4.50
-0.08
-4.83
-9.25
-12.90
-15.33
-16.11
-14.85
-11.37
-5.77
1.49
9.63
17.75
24.98
30.73
34.76
37.21
38.38
38.61
38.08
36.90
35.11
32.92
30.58
28.26
25.83
22.63
17.82
10.74
1.44
-9.15
-19.49
-28.09
-34.17
-38.00
-40.80
-44.09
-49.15
-56.35
-65.02
-73.62
-80.22
-83.07
-81.09
-74.11
-62.84
-48.63
-33.12
-17.84
-4.02
7.58
16.67
23.49
28.69
33.33
38.53
45.24
53.97
64.54
76.05
87.01
95.58
100.10
99.66
94.40
85.44
74.26
61.95
48.68
33.70
15.97
-4.96
-28.32
-52.23
-74.35
-92.68
-106.25
-115.14
-120.09
-121.87
-120.96
-117.52
-111.65
-103.68
-94.24
-84.06
-73.68
-63.31
-52.77
-41.83
-30.43
-18.98
-8.20
1.01
7.96
12.40
14.57
15.22
15.32
15.83
17.36
20.15
23.96
28.20
32.27
35.83
38.99
42.34
46.72
52.81
60.92
70.72
81.30
91.44
99.81
105.31
107.21
105.29
99.91
91.89
82.36
72.49
63.28
55.31
48.76
43.43
38.91
34.67
30.18
24.94
18.50
10.46
0.47
-11.66
-25.71
-40.90
-55.68
-67.99
-75.80
-77.77
-73.72
-64.66
-52.32
-38.59
-25.23
-13.78
-5.58
-1.61
-1.98
-5.66
-10.56
-14.32
-15.38
-13.64
-10.45
-7.72
-6.89
-8.28
-11.12
-14.10
-15.95
-15.73
-12.74
-6.51
2.99
14.95
27.41
37.52
42.41
40.31
31.33
17.54
2.17
-11.56
-21.50
-27.04
-28.86
-28.28
-26.54
-24.35
-21.89
-19.13
-16.10
-13.09
-10.59
-9.04
-8.64
-9.44
-11.32
-14.14
-17.65
-21.40
-24.52
-25.86
-24.28
-19.17
-10.87
-0.64
9.71
18.47
24.59
27.81
28.56
27.56
25.51
23.00
20.62
18.94
18.54
19.75
22.55
26.45
30.67
34.37
36.94
38.21
38.43
38.14
37.94
38.21
38.99
39.97
40.60
40.25
38.42
34.78
29.38
22.69
15.57
9.21
4.83
3.27
4.67
8.26
12.53
15.72
16.34
13.63
7.63
-0.90
-10.87
-21.09
-30.48
-38.00
-42.69
-43.68
-40.35
-32.56
-20.94
-6.86
7.80
21.25
32.21
40.19
45.40
48.26
49.10
47.99
44.94
40.07
33.79
26.48
18.23
8.70
-2.58
-15.71
-30.08
-44.34
-56.95
-66.76
-73.25
-76.30
-75.78
-71.19
-61.96
-47.98
-30.26
-11.05
6.75
20.52
28.88
31.98
31.16
28.16
24.39
20.60
16.90
13.16
9.33
5.57
2.18
-0.59
-2.76
-4.59
-6.52
-9.10
-12.74
-17.62
-23.56
-29.95
-35.91
-40.42
-42.69
-42.25
-39.07
-33.51
-26.15
-17.62
-8.57
0.42
8.84
16.24
22.27
26.70
29.46
30.72
30.84
30.35
29.86
29.86
30.54
31.76
33.07
33.87
33.65
32.20
29.72
26.73
23.90
21.73
20.31
19.20
17.59
14.52
9.27
1.60
-8.11
-18.91
-29.43
-38.14
-43.64
-45.06
-42.34
-36.29
-28.41
-20.32
-13.26
-7.72
-3.51
-0.19
2.47
4.37
5.14
4.66
3.26
1.81
1.31
2.44
5.23
9.16
13.27
16.57
18.24
17.86
15.50
11.74
7.67
4.54
3.33
4.32
6.83
9.46
10.52
8.69
3.37
-5.15
-15.92
-27.51
-38.27
-46.54
-50.86
-50.26
-44.69
-35.06
-23.27
-11.64
-2.31
3.36
5.15
3.83
0.72
-2.81
-5.80
-7.77
-8.70
-8.78
-8.31
-7.50
-6.54
-5.56
-4.67
-3.93
-3.37
-2.97
-2.72
-2.62
-2.75
-3.24
-4.31
-6.20
-9.12
-13.20
-18.40
-24.47
-30.96
-37.19
-42.39
-45.76
-46.76
-45.21
-41.40
-35.95
-29.60
-22.99
-16.44
-10.11
-4.08
1.50
6.39
10.44
13.70
16.46
19.12
22.00
25.16
28.43
31.48
34.04
35.98
37.31
38.15
38.66
39.04
39.48
40.05
40.61
40.75
39.85
37.33
32.88
26.64
19.23
11.63
4.90
-0.03
-2.66
-2.91
-1.19
1.83
5.39
8.81
11.64
13.67
14.83
15.06
14.34
12.64
10.09
6.96
3.69
0.71
-1.64
-3.27
-4.29
-4.96
-5.50
-5.98
-6.33
-6.32
-5.71
-4.41
-2.55
-0.46
1.38
2.48
2.51
1.32
-0.96
-3.97
-7.22
-10.12
-12.24
-13.29
-13.33
-12.58
-11.44
-10.30
-9.48
-9.10
-9.14
-9.43
-9.72
-9.71
-9.22
-8.13
-6.49
-4.43
-2.12
0.23
2.44
4.35
5.82
6.72
7.02
6.77
6.12
5.28
4.41
3.67
3.11
2.67
2.22
1.57
0.55
-0.91
-2.73
-4.60
-6.02
-6.48
-5.59
-3.31
0.01
3.69
6.89
8.96
9.58
8.83
7.01
4.44
1.37
-2.06
-5.64
-8.98
-11.57
-12.92
-12.85
-11.57
-9.65
-7.71
-6.21
-5.26
-4.72
-4.37
-4.10
-3.98
-4.17
-4.86
-6.10
-7.80
-9.80
-11.98
-14.24
-16.63
-19.10
-21.44
-23.22
-23.81
-22.65
-19.49
-14.50
-8.32
-1.79
4.28
9.33
13.16
15.76
17.23
17.65
17.17
16.00
14.48
13.00
11.87
11.20
10.90
10.73
10.42
9.83
8.89
7.68
6.30
4.85
3.35
1.85
0.36
-1.07
-2.45
-3.79
-5.15
-6.64
-8.35
-10.34
-12.58
-14.87
-16.87
-18.11
-18.11
-16.62
-13.64
-9.55
-4.97
-0.59
3.06
5.72
7.34
8.02
7.87
7.06
5.80
4.38
3.18
2.46
2.28
2.48
2.77
2.88
2.70
2.24
1.62
0.92
0.13
-0.82
-1.97
-3.27
-4.62
-5.92
-7.11
-8.23
-9.33
-10.50
-11.83
-13.35
-15.01
-16.60
-17.75
-18.00
-16.96
-14.51
-10.90
-6.65
-2.38
1.39
4.38
6.56
8.00
8.80
9.04
8.71
7.90
6.71
5.35
4.01
2.84
1.95
1.37
1.08
0.94
0.79
0.43
-0.29
-1.41
-2.81
-4.25
-5.45
-6.27
-6.72
-7.01
-7.50
-8.53
-10.24
-12.58
-15.18
-17.54
-19.04
-19.16
-17.62
-14.47
-10.08
-5.10
-0.19
4.06
7.34
9.52
10.58
10.57
9.52
7.61
5.13
2.56
0.42
-0.94
-1.39
-1.15
-0.51
0.17
0.64
0.75
0.41
-0.39
-1.61
-3.05
-4.50
-5.66
-6.40
-6.73
-6.82
-6.88
-7.13
-7.71
-8.73
-10.18
-11.92
-13.64
-14.81
-14.85
-13.32
-10.17
-5.74
-0.71
4.16
8.23
11.20
13.00
13.76
13.66
12.86
11.57
10.01
8.44
7.12
6.19
5.64
5.32
4.97
4.41
3.59
2.55
1.41
0.26
-0.90
-2.07
-3.31
-4.57
-5.77
-6.78
-7.59
-8.27
-9.06
-10.19
-11.82
-13.85
-15.85
-17.25
-17.46
-16.15
-13.45
-9.83
-6.03
-2.68
-0.20
1.29
1.87
1.68
0.88
-0.44
-2.11
-3.93
-5.72
-7.38
-8.84
-10.14
-11.32
-12.39
-13.37
-14.33
-15.38
-16.66
-18.27
-20.22
-22.41
-24.60
-26.38
-27.14
-26.19
-23.00
-17.45
-10.05
-1.75
6.34
13.52
19.69
25.19
30.49
35.67
40.21
43.26
44.02
42.30
38.61
33.95
29.41
25.64
22.70
20.15
17.39
14.03
10.21
6.52
3.89
3.17
4.88
8.86
14.27
19.61
22.95
22.47
17.17
7.64
-3.59
-12.45
-14.68
-7.40
9.56
33.42
59.28
81.75
96.63
101.98
98.35
88.35
75.70
64.25
57.00
55.30
58.40
63.65
67.10
64.88
54.39
35.36
9.99
-17.50
-42.07
-59.25
-66.31
-62.86
-50.72
-33.17
-13.71
4.85
21.03
34.65
46.45
57.61
69.22
82.05
96.30
111.56
126.89
141.04
152.91
162.04
169.03
175.58
183.90
195.66
210.92
227.59
241.85
249.41
247.08
233.84
210.93
181.11
147.41
112.33
77.47
43.70
11.57
-18.74
-47.61
-76.16
-106.15
-139.67
-178.60
-223.95
-275.30
-330.13
-383.69
-429.67
-461.57
-474.63
-467.27
-441.50
-401.82
-353.38
-300.36
-245.23
-189.48
-134.93
-84.57
-42.27
-11.38
7.07
15.31
18.30
21.74
29.69
42.81
58.05
70.17
74.13
67.21
49.84
24.90
-3.86
-33.63
-63.19
-92.64
-122.20
-150.95
-176.29
-194.28
-200.93
-193.57
-171.76
-137.42
-93.95
-44.98
6.67
59.42
112.21
163.42
210.10
248.07
273.15
282.61
276.38
256.98
228.67
196.07
163.15
132.83
107.09
87.30
74.39
68.69
69.76
76.40
86.94
99.79
113.80
128.32
143.13
158.13
173.10
187.51
200.41
210.58
216.77
218.06
214.12
205.20
192.09
175.73
156.95
136.39
114.51
91.83
68.99
46.69
25.49
5.65
-12.88
-30.17
-45.93
-59.33
-69.15
-74.28
-74.25
-69.59
-61.84
-53.06
-45.35
-40.28
-38.54
-39.77
-42.63
-45.24
-45.84
-43.56
-38.95
-33.96
-31.19
-32.78
-39.42
-50.15
-62.82
-75.33
-86.66
-97.46
-109.81
-126.63
-150.92
-184.74
-228.19
-278.44
-329.54
-373.43
-402.35
-411.40
-400.43
-373.76
-338.04
-299.33
-260.76
-222.04
-180.72
-134.45
-82.92
-28.68
23.59
68.72
102.87
124.81
136.08
140.19
141.00
140.80
139.48
134.88
124.14
105.69
80.42
51.53
23.19
-1.30
-20.63
-35.52
-47.70
-58.59
-68.57
-76.88
-82.58
-85.36
-85.94
-85.67
-85.74
-86.39
-86.74
-85.35
-80.94
-73.13
-62.64
-51.02
-40.14
-31.55
-26.04
-23.51
-23.09
-23.58
-23.94
-23.63
-22.67
-21.44
-20.41
-19.81
-19.65
-19.78
-19.98
-20.11
-20.04
-19.72
-19.18
-18.56
-18.11
-18.22
-19.29
-21.60
-25.29
-30.24
-35.97
-41.64
-46.08
-48.09
-46.78
-41.82
-33.70
-23.50
-12.60
-2.21
6.87
14.28
19.95
23.94
26.29
27.15
26.78
25.68
24.44
23.64
23.72
24.83
26.89
29.55
32.27
34.38
34.94
32.92
27.36
17.79
4.50
-11.15
-27.01
-40.67
-50.11
-54.37
-53.82
-49.90
-44.54
-39.49
-35.66
-33.01
-30.62
-27.18
-21.57
-13.25
-2.53
9.60
21.77
32.64
41.15
46.71
49.17
48.84
46.30
42.30
37.57
32.73
28.16
23.93
19.76
15.05
9.04
1.09
-8.90
-20.15
-31.08
-39.74
-44.57
-45.09
-42.03
-36.92
-31.28
-25.92
-20.75
-15.11
-8.39
-0.50
8.16
16.78
24.52
30.70
34.80
36.34
34.96
30.50
23.26
14.17
4.81
-2.80
-6.70
-5.53
1.03
12.19
26.32
41.45
55.86
68.37
78.46
86.13
91.65
95.22
96.83
96.06
92.20
84.64
73.27
58.95
43.42
28.72
16.43
6.95
-0.52
-7.42
-14.90
-23.11
-31.15
-37.61
-41.40
-42.32
-41.13
-39.18
-37.80
-37.83
-39.35
-41.73
-43.71
-43.74
-40.21
-31.95
-18.58
-0.78
19.53
39.48
55.88
65.91
67.99
62.13
49.80
33.21
14.41
-5.46
-26.16
-47.91
-70.48
-92.50
-111.36
-123.80
-127.13
-120.26
-104.31
-82.48
-59.04
-38.03
-21.97
-11.27
-4.38
1.29
8.17
17.55
29.22
41.84
53.70
63.26
69.50
71.80
69.88
63.87
54.61
44.07
35.20
31.31
34.89
46.45
64.03
83.72
101.08
112.68
117.29
116.00
111.51
106.83
104.11
103.84
104.75
104.20
99.17
87.34
68.22
43.56
17.00
-7.22
-25.85
-37.88
-44.64
-48.82
-52.76
-57.17
-60.79
-61.27
-56.64
-46.44
-32.03
-15.80
-0.15
13.46
24.58
33.43
40.36
45.60
49.41
52.33
55.09
58.08
60.75
61.44
57.89
48.32
32.40
11.59
-11.55
-34.43
-55.44
-74.08
-90.52
-104.70
-115.71
-121.79
-121.05
-112.41
-96.25
-74.55
-50.25
-26.43
-5.39
11.87
25.51
36.49
45.86
54.39
62.38
69.87
76.72
82.76
87.63
90.64
90.83
87.26
79.44
67.78
53.76
39.68
28.05
20.79
18.64
20.95
26.06
32.09
37.82
43.18
49.09
56.77
66.77
78.26
88.95
95.61
95.29
86.33
69.23
46.55
22.12
-0.26
-18.12
-30.89
-39.65
-46.07
-51.27
-55.08
-56.22
-53.13
-45.01
-32.41
-17.09
-1.31
12.96
24.51
32.91
38.39
41.50
43.10
44.16
45.49
47.16
48.18
46.62
40.35
28.00
9.67
-13.12
-38.10
-63.09
-86.67
-108.07
-126.75
-141.96
-152.71
-158.12
-157.80
-151.98
-141.33
-126.77
-109.25
-89.87
-69.98
-51.06
-34.37
-20.40
-8.78
1.59
11.89
22.77
34.14
45.35
55.62
64.35
71.16
75.73
77.62
76.51
72.60
67.10
62.31
61.08
65.80
77.24
93.92
112.46
128.66
138.90
141.22
135.70
124.03
108.64
91.78
75.01
58.88
43.10
26.77
8.99
-10.59
-31.19
-50.89
-67.15
-77.70
-81.60
-79.54
-73.50
-65.63
-57.22
-48.27
-37.84
-25.00
-9.73
6.72
22.30
34.95
43.57
48.24
49.95
49.94
48.98
47.07
43.65
38.03
29.87
19.38
7.34
-5.14
-16.95
-27.29
-36.02
-43.78
-51.90
-61.83
-74.50
-89.69
-105.84
-120.45
-130.89
-135.13
-132.29
-122.69
-107.73
-89.64
-71.13
-54.89
-42.82
-35.38
-31.20
-27.58
-21.52
-11.05
3.93
21.75
39.87
55.92
68.48
77.11
81.95
83.22
81.19
76.38
69.98
63.87
60.18
60.61
65.74
74.83
86.09
97.41
106.98
113.69
117.14
117.35
114.52
108.75
99.87
87.40
70.66
49.11
23.03
-5.91
-34.47
-58.68
-75.21
-82.96
-83.65
-81.03
-78.93
-79.30
-81.26
-81.77
-77.56
-67.07
-51.28
-33.09
-15.82
-1.78
8.29
14.86
18.81
20.73
20.89
19.46
16.76
13.43
10.26
7.99
7.10
7.70
9.54
12.01
14.30
15.53
15.01
12.52
8.32
3.14
-2.11
-6.61
-9.81
-11.49
-11.72
-10.72
-8.80
-6.24
-3.28
-0.10
3.11
5.98
8.05
8.67
7.18
3.07
-3.93
-13.83
-26.28
-40.65
-56.04
-71.43
-85.92
-98.83
-109.84
-118.92
-126.23
-132.04
-136.72
-140.64
-144.05
-146.77
-148.05
-146.55
-140.77
-129.75
-113.68
-94.02
-73.05
-53.08
-35.61
-21.06
-9.03
1.22
10.22
18.11
24.76
30.01
33.83
36.37
37.91
38.85
39.82
41.62
45.06
50.61
58.11
66.62
74.74
81.08
84.82
86.00
85.42
84.15
83.05
82.29
81.29
78.97
74.25
66.56
56.18
44.32
32.85
23.74
18.33
16.87
18.39
20.94
22.35
21.06
16.67
10.09
3.27
-1.37
-1.52
4.29
15.82
30.47
43.32
48.31
40.82
20.27
-8.76
-37.99
-59.12
-67.63
-64.83
-56.76
-50.89
-52.22
-61.21
-74.44
-87.19
-96.05
-100.12
-100.32
-97.66
-91.80
-81.12
-64.08
-41.20
-16.28
4.36
14.52
11.39
-2.28
-18.86
-29.35
-27.95
-15.03
3.59
20.31
30.22
33.49
34.29
37.36
44.71
54.52
62.91
66.91
66.74
65.84
68.91
79.21
96.87
118.85
140.65
158.40
170.53
178.07
183.16
186.93
188.00
182.63
166.76
139.26
104.04
69.69
46.01
39.42
49.73
70.30
91.26
104.00
104.29
92.75
73.02
49.39
25.57
4.75
-9.85
-15.04
-8.71
9.04
35.35
65.55
94.68
118.95
136.24
145.65
146.78
139.45
124.03
101.64
73.89
42.15
6.72
-32.99
-77.35
-124.79
-170.92
-209.06
-232.46
-237.09
-223.34
-195.95
-161.90
-127.57
-96.55
-69.31
-44.54
-21.19
0.23
17.85
29.76
35.57
36.97
37.09
38.91
43.76
50.86
57.96
62.72
63.89
61.83
58.04
54.25
51.60
50.38
50.21
50.54
50.98
51.40
51.93
52.72
53.94
55.72
58.29
61.94
67.11
74.42
84.53
97.71
113.22
128.99
141.94
148.80
147.34
137.23
120.17
99.17
77.35
57.00
39.18
23.95
10.88
-0.63
-11.32
-22.20
-34.33
-48.12
-62.54
-74.66
-80.32
-75.54
-58.22
-29.40
6.79
44.49
78.32
105.14
124.63
138.45
148.53
155.69
159.17
157.36
149.02
134.16
113.96
89.97
63.38
34.70
4.03
-28.44
-62.15
-96.07
-128.97
-159.62
-186.82
-209.57
-227.19
-239.64
-247.57
-252.12
-254.40
-255.01
-253.93
-250.84
-245.66
-238.88
-231.38
-223.92
-216.67
-209.06
-200.30
-189.77
-177.37
-163.48
-148.70
-133.35
-117.23
-99.75
-80.29
-58.66
-35.37
-11.50
11.61
32.86
51.61
67.49
80.25
89.46
94.78
96.18
94.29
90.19
84.87
78.54
70.25
58.14
40.15
14.79
-18.37
-58.63
-104.23
-152.59
-200.52
-244.49
-281.05
-307.28
-320.97
-320.64
-305.52
-275.88
-233.59
-182.79
-129.55
-80.52
-40.77
-11.73
9.37
28.31
51.14
81.54
119.27
160.32
198.53
227.62
242.74
241.27
222.87
189.46
145.09
95.38
46.66
4.38
-28.44
-52.09
-69.86
-86.48
-106.06
-130.39
-158.47
-187.24
-212.97
-232.62
-244.29
-247.07
-240.41
-224.00
-198.13
-164.46
-126.38
-88.50
-55.43
-30.12
-12.70
-0.49
10.65
24.56
43.08
65.58
89.48
111.68
129.73
142.45
149.70
151.69
148.52
140.08
126.35
107.88
86.10
63.21
41.61
23.23
8.93
-1.62
-9.78
-17.24
-25.40
-34.99
-46.12
-58.37
-70.83
-81.87
-89.05
-89.44
-80.68
-62.30
-36.50
-7.77
18.54
38.37
50.29
55.71
57.70
59.41
62.90
68.97
77.54
88.30
100.82
114.26
127.21
137.87
144.59
146.39
143.10
135.03
122.44
105.23
83.05
55.69
23.39
-12.98
-51.89
-91.16
-127.97
-158.98
-180.91
-191.45
-190.41
-180.34
-166.25
-154.36
-149.93
-155.24
-168.28
-183.18
-192.34
-189.50
-172.36
-143.58
-109.43
-76.91
-50.62
-31.15
-15.61
0.25
19.45
42.44
67.37
91.38
112.14
128.49
140.30
147.66
150.52
148.69
142.24
132.00
119.61
107.14
96.42
88.36
82.73
78.36
73.78
67.88
60.44
52.09
43.91
36.89
31.38
26.94
22.56
17.08
9.63
-0.11
-11.75
-24.26
-36.12
-45.74
-51.77
-53.49
-50.99
-45.01
-36.61
-26.68
-15.67
-3.48
10.34
26.24
44.24
63.71
83.38
101.58
116.69
127.48
133.22
133.53
128.15
116.60
98.37
73.33
42.24
6.89
-30.32
-67.22
-102.65
-136.62
-169.92
-202.89
-234.32
-261.02
-278.57
-282.86
-272.13
-247.99
-215.34
-180.59
-149.29
-124.21
-104.73
-87.89
-70.41
-50.47
-28.36
-5.94
14.77
32.73
48.09
61.67
73.99
84.84
93.32
98.55
100.40
99.73
98.19
97.46
98.47
100.86
103.25
103.81
101.32
95.83
88.79
82.51
79.13
79.66
83.43
88.24
91.12
89.39
81.51
67.46
48.62
27.08
4.87
-16.54
-36.47
-54.63
-70.64
-83.53
-91.76
-93.66
-88.17
-75.40
-56.70
-34.20
-10.13
13.82
36.71
58.23
78.16
96.12
111.38
123.06
130.32
132.47
128.96
119.35
103.39
81.24
53.58
21.52
-13.74
-51.20
