1660935453.00
64.000000
-0.00
-0.00
-0.00
-0.00
-0.00
-0.00
-0.00
-0.00
-0.00
-0.00
0.00
0.01
0.01
-0.00
-0.03
-0.05
-0.05
0.00
0.13
0.36
0.66
1.01
1.37
1.72
2.06
2.40
2.79
3.25
3.81
4.44
5.10
5.73
6.32
6.90
7.52
8.26
9.15
10.28
11.52
12.76
13.87
14.84
15.73
16.74
18.09
19.93
22.44
25.40
28.51
31.50
34.23
36.83
39.65
43.17
47.65
53.43
60.08
67.05
73.78
80.01
85.96
92.22
99.54
108.38
119.09
131.00
143.19
154.81
165.52
175.65
186.12
198.35
210.90
225.66
242.84
262.26
282.75
301.77
315.54
319.92
311.72
289.82
255.99
213.41
165.93
116.80
68.05
20.62
-24.97
-68.23
-108.67
-145.83
-180.31
-213.43
-246.86
-281.88
-318.45
-354.60
-386.57
-409.90
-420.77
-417.68
-402.07
-377.76
-349.44
-320.96
-294.28
-269.55
-246.04
-223.11
-200.96
-180.38
-162.07
-146.09
-131.74
-117.97
-104.01
-89.72
-75.65
-62.73
-51.71
-42.83
-35.65
-29.33
-23.04
-16.28
-9.13
-2.12
4.06
8.92
12.34
14.65
16.40
18.10
19.99
22.04
23.95
25.44
26.33
26.67
26.60
26.33
26.00
25.68
25.37
25.06
24.76
24.47
24.15
23.73
23.13
22.35
21.44
20.53
19.72
19.08
18.55
18.06
17.53
16.97
16.46
16.04
15.71
15.39
14.94
14.30
13.53
12.80
12.30
12.13
12.24
12.45
12.53
12.33
11.81
11.09
10.32
9.68
9.24
9.02
8.96
9.00
9.07
9.11
9.06
8.92
8.68
8.36
8.00
7.63
7.28
6.93
6.57
6.20
5.82
5.46
5.18
5.01
4.94
4.90
4.82
4.62
4.30
3.89
3.47
3.08
2.71
2.30
1.75
1.06
0.28
-0.47
-1.08
-1.53
-1.89
-2.29
-2.85
-3.61
-4.51
-5.44
-6.29
-7.02
-7.65
-8.23
-8.78
-9.28
-9.64
-9.81
-9.77
-9.60
-9.39
-9.23
-9.15
-9.09
-8.98
-8.74
-8.31
-7.70
-6.94
-6.10
-5.27
-4.53
-3.93
-3.46
-3.03
-2.55
-1.97
-1.30
-0.61
0.00
0.48
0.81
1.07
1.29
1.51
1.74
1.96
2.16
2.35
2.55
2.75
2.93
3.07
3.17
3.24
3.28
3.33
3.39
3.46
3.55
3.67
3.84
4.05
4.26
4.40
4.41
4.24
3.96
3.68
3.52
3.57
3.77
4.00
4.16
4.16
4.05
3.91
3.84
3.86
3.95
4.03
4.04
3.97
3.90
3.88
3.97
4.13
4.27
4.32
4.23
4.06
3.88
3.76
3.72
3.70
3.64
3.53
3.39
3.27
3.19
3.09
2.90
2.59
2.22
1.88
1.67
1.57
1.54
1.49
1.39
1.31
1.29
1.38
1.53
1.67
1.74
1.74
1.73
1.76
1.83
1.89
1.90
1.85
1.78
1.75
1.77
1.81
1.78
1.66
1.44
1.20
0.98
0.83
0.73
0.65
0.57
0.46
0.32
0.17
0.05
-0.01
0.06
0.27
0.59
0.95
1.25
1.45
1.54
1.59
1.65
1.76
1.87
1.94
1.93
1.85
1.74
1.65
1.60
1.60
1.60
1.56
1.48
1.35
1.21
1.09
1.01
0.93
0.80
0.57
0.26
-0.04
-0.22
-0.16
0.17
0.70
1.27
1.72
1.95
1.92
1.69
1.31
0.86
0.38
-0.07
-0.39
-0.51
-0.37
0.00
0.50
0.95
1.20
1.18
0.91
0.50
0.10
-0.20
-0.34
-0.34
-0.21
0.03
0.37
0.76
1.11
1.31
1.24
0.91
0.42
-0.05
-0.32
-0.32
-0.12
0.15
0.32
0.34
0.27
0.23
0.31
0.52
0.77
0.96
1.03
0.98
0.89
0.83
0.83
0.86
0.85
0.76
0.60
0.41
0.28
0.25
0.33
0.47
0.62
0.73
0.78
0.80
0.82
0.83
0.81
0.73
0.58
0.43
0.32
0.30
0.36
0.40
0.32
0.05
-0.36
-0.81
-1.12
-1.18
-0.96
-0.56
-0.10
0.29
0.55
0.73
0.87
1.05
1.24
1.42
1.51
1.48
1.31
1.03
0.68
0.32
0.02
-0.17
-0.20
-0.06
0.17
0.44
0.66
0.79
0.85
0.85
0.80
0.71
0.56
0.37
0.18
0.06
0.02
0.05
0.10
0.14
0.17
0.20
0.23
0.23
0.18
0.05
-0.14
-0.34
-0.48
-0.57
-0.61
-0.64
-0.68
-0.69
-0.64
-0.49
-0.28
-0.05
0.12
0.22
0.24
0.25
0.27
0.31
0.36
0.41
0.43
0.44
0.45
0.45
0.45
0.46
0.51
0.61
0.74
0.87
0.94
0.89
0.77
0.62
0.51
0.48
0.49
0.49
0.42
0.26
0.04
-0.19
-0.38
-0.49
-0.51
-0.44
-0.28
-0.06
0.18
0.37
0.43
0.32
0.06
-0.25
-0.48
-0.57
-0.55
-0.56
-0.75
-1.25
-1.99
-2.78
-3.35
-3.53
-3.38
-3.19
-3.31
-3.95
-5.09
-6.46
-7.64
-8.35
-8.53
-8.39
-8.27
-8.48
-9.15
-10.24
-11.60
-13.08
-14.59
-16.03
-17.17
-17.67
-17.16
-15.53
-13.08
-10.53
-8.77
-8.57
-10.28
-13.79
-18.65
-24.33
-30.35
-36.32
-41.92
-46.89
-51.11
-54.79
-58.45
-62.85
-68.61
-75.97
-84.58
-93.64
-102.29
-109.98
-116.76
-123.18
-130.07
-138.14
-147.74
-158.79
-170.74
-182.53
-192.47
-198.31
-197.53
-187.89
-168.15
-138.46
-100.18
-55.23
-5.46
47.49
101.76
154.73
202.86
242.48
271.01
288.03
295.56
297.11
296.27
295.45
295.52
296.34
297.63
299.66
303.19
308.93
316.90
326.11
334.65
340.15
340.32
333.31
318.16
294.92
264.53
228.55
188.61
145.88
100.65
52.59
1.42
-51.95
-104.84
-152.94
-191.54
-217.19
-229.10
-229.33
-221.87
-210.93
-199.45
-188.52
-177.87
-166.90
-155.62
-144.74
-135.25
-127.65
-121.52
-115.76
-109.14
-101.02
-91.60
-81.85
-72.99
-65.87
-60.68
-56.86
-53.48
-49.72
-45.20
-40.10
-34.95
-30.32
-26.50
-23.47
-20.92
-18.51
-16.04
-13.49
-11.00
-8.79
-7.01
-5.70
-4.84
-4.29
-3.89
-3.48
-2.93
-2.18
-1.26
-0.30
0.55
1.12
1.32
1.15
0.72
0.18
-0.28
-0.53
-0.54
-0.40
-0.26
-0.24
-0.36
-0.52
-0.55
-0.30
0.26
1.03
1.81
2.39
2.65
2.59
2.24
1.66
0.92
0.09
-0.69
-1.24
-1.42
-1.17
-0.57
0.14
0.70
0.94
0.83
0.52
0.22
0.05
0.01
-0.01
-0.17
-0.52
-1.01
-1.49
-1.81
-1.89
-1.78
-1.57
-1.35
-1.19
-1.06
-0.93
-0.72
-0.38
0.10
0.73
1.45
2.16
2.74
3.06
3.02
2.58
1.79
0.81
-0.15
-0.83
-1.07
-0.81
-0.22
0.45
0.89
0.93
0.55
-0.06
-0.65
-0.99
-0.98
-0.67
-0.24
0.12
0.25
0.07
-0.35
-0.87
-1.30
-1.50
-1.43
-1.14
-0.75
-0.37
-0.08
0.10
0.21
0.28
0.33
0.37
0.43
0.59
0.93
1.46
2.12
2.76
3.18
3.25
2.96
2.40
1.73
1.08
0.53
0.08
-0.30
-0.60
-0.83
-0.99
-1.13
-1.30
-1.57
-1.94
-2.31
-2.55
-2.52
-2.19
-1.61
-0.93
-0.32
0.10
0.26
0.21
0.02
-0.22
-0.40
-0.49
-0.41
-0.11
0.46
1.28
2.22
3.06
3.52
3.45
2.87
2.01
1.25
0.84
0.84
1.07
1.21
0.99
0.39
-0.43
-1.18
-1.65
-1.80
-1.75
-1.69
-1.76
-1.99
-2.26
-2.44
-2.39
-2.17
-1.87
-1.64
-1.57
-1.65
-1.72
-1.62
-1.19
-0.43
0.54
1.47
2.11
2.32
2.08
1.55
0.95
0.50
0.32
0.41
0.66
0.93
1.11
1.14
1.03
0.84
0.65
0.51
0.43
0.37
0.27
0.05
-0.28
-0.66
-0.95
-1.05
-0.92
-0.64
-0.34
-0.19
-0.26
-0.51
-0.82
-1.07
-1.17
-1.12
-0.96
-0.76
-0.54
-0.24
0.17
0.72
1.34
1.87
2.18
2.18
1.94
1.65
1.49
1.57
1.83
2.09
2.15
1.91
1.38
0.71
0.07
-0.42
-0.75
-0.97
-1.16
-1.36
-1.55
-1.69
-1.70
-1.56
-1.33
-1.09
-0.96
-0.99
-1.16
-1.36
-1.46
-1.41
-1.20
-0.89
-0.55
-0.17
0.25
0.70
1.10
1.32
1.27
0.90
0.27
-0.43
-1.04
-1.40
-1.51
-1.43
-1.29
-1.20
-1.27
-1.49
-1.82
-2.16
-2.43
-2.59
-2.66
-2.69
-2.72
-2.76
-2.76
-2.66
-2.40
-1.98
-1.45
-0.85
-0.23
0.43
1.15
1.95
2.82
3.71
4.53
5.25
5.87
6.49
7.18
8.00
8.89
9.72
10.33
10.60
10.50
10.04
9.27
8.24
6.96
5.48
3.89
2.29
0.81
-0.51
-1.70
-2.82
-3.90
-4.93
-5.82
-6.46
-6.79
-6.77
-6.41
-5.80
-5.01
-4.21
-3.55
-3.20
-3.20
-3.45
-3.74
-3.79
-3.41
-2.61
-1.54
-0.49
0.33
0.83
1.06
1.13
1.12
1.03
0.81
0.39
-0.23
-0.93
-1.55
-1.89
-1.87
-1.50
-0.90
-0.23
0.38
0.83
1.09
1.15
0.98
0.59
0.01
-0.69
-1.42
-2.07
-2.51
-2.66
-2.49
-1.99
-1.23
-0.24
0.86
1.98
2.95
3.59
3.75
3.35
2.45
1.20
-0.16
-1.39
-2.27
-2.68
-2.60
-2.06
-1.19
-0.18
0.76
1.47
1.85
1.90
1.68
1.24
0.62
-0.16
-1.03
-1.88
-2.57
-2.96
-2.98
-2.61
-1.95
-1.08
-0.12
0.83
1.65
2.21
2.38
2.05
1.24
0.08
-1.20
-2.28
-2.89
-2.85
-2.15
-0.91
0.58
1.99
3.03
3.52
3.43
2.85
1.95
0.88
-0.26
-1.44
-2.63
-3.80
-4.86
-5.69
-6.20
-6.38
-6.32
-6.14
-5.94
-5.77
-5.70
-5.78
-6.04
-6.45
-6.83
-6.89
-6.32
-4.98
-2.93
-0.46
2.05
4.30
6.11
7.40
8.17
8.41
8.15
7.51
6.74
6.11
5.82
5.87
6.11
6.33
6.35
6.15
5.81
5.41
5.01
4.59
4.12
3.57
2.93
2.20
1.41
0.61
-0.15
-0.82
-1.32
-1.63
-1.74
-1.73
-1.67
-1.69
-1.83
-2.15
-2.61
-3.12
-3.53
-3.69
-3.51
-2.97
-2.18
-1.34
-0.66
-0.26
-0.18
-0.30
-0.50
-0.65
-0.74
-0.85
-1.06
-1.41
-1.87
-2.30
-2.52
-2.42
-1.98
-1.35
-0.70
-0.23
-0.01
0.01
-0.03
0.01
0.19
0.47
0.74
0.88
0.87
0.76
0.65
0.63
0.75
1.01
1.40
1.88
2.40
2.89
3.26
3.43
3.35
2.98
2.33
1.45
0.47
-0.45
-1.10
-1.34
-1.14
-0.62
-0.03
0.37
0.44
0.16
-0.31
-0.80
-1.17
-1.39
-1.51
-1.59
-1.64
-1.63
-1.50
-1.25
-0.95
-0.75
-0.79
-1.08
-1.51
-1.86
-1.94
-1.66
-1.06
-0.29
0.49
1.17
1.66
1.92
1.90
1.57
0.99
0.29
-0.31
-0.61
-0.50
-0.04
0.59
1.13
1.41
1.35
1.03
0.60
0.21
-0.01
-0.05
0.03
0.15
0.25
0.26
0.21
0.07
-0.14
-0.43
-0.74
-1.03
-1.21
-1.23
-1.09
-0.86
-0.62
-0.43
-0.30
-0.18
0.04
0.44
0.98
1.59
2.09
2.31
2.17
1.67
0.99
0.30
-0.21
-0.48
-0.52
-0.43
-0.34
-0.33
-0.43
-0.61
-0.79
-0.90
-0.91
-0.85
-0.79
-0.79
-0.88
-1.03
-1.14
-1.15
-1.01
-0.74
-0.40
-0.08
0.16
0.30
0.34
0.30
0.25
0.25
0.34
0.55
0.85
1.17
1.41
1.49
1.34
0.98
0.48
-0.01
-0.33
-0.41
-0.25
0.06
0.40
0.67
0.81
0.84
0.78
0.65
0.49
0.28
0.03
-0.29
-0.64
-0.96
-1.14
-1.10
-0.79
-0.30
0.20
0.49
0.44
0.07
-0.46
-0.95
-1.26
-1.36
-1.35
-1.36
-1.39
-1.37
-1.12
-0.50
0.46
1.54
2.40
2.78
2.57
1.96
1.25
0.79
0.71
0.94
1.21
1.30
1.08
0.66
0.25
0.05
0.09
0.28
0.39
0.24
-0.18
-0.76
-1.30
-1.63
-1.71
-1.66
-1.63
-1.75
-2.04
-2.38
-2.59
-2.52
-2.12
-1.48
-0.76
-0.15
0.25
0.43
0.46
0.47
0.55
0.76
1.07
1.41
1.67
1.76
1.66
1.40
1.07
0.76
0.50
0.30
0.15
0.03
-0.09
-0.18
-0.24
-0.29
-0.33
-0.37
-0.40
-0.40
-0.38
-0.35
-0.33
-0.36
-0.39
-0.40
-0.35
-0.25
-0.12
-0.02
0.05
0.10
0.15
0.21
0.29
0.43
0.68
1.13
1.76
2.44
2.91
2.91
2.30
1.18
-0.17
-1.38
-2.16
-2.40
-2.20
-1.73
-1.22
-0.79
-0.51
-0.38
-0.41
-0.55
-0.76
-0.96
-1.10
-1.13
-1.05
-0.92
-0.74
-0.54
-0.33
-0.08
0.18
0.43
0.63
0.76
0.79
0.74
0.63
0.49
0.32
0.13
-0.05
-0.22
-0.33
-0.34
-0.23
0.01
0.30
0.61
0.84
0.95
0.92
0.77
0.56
0.31
0.09
-0.11
-0.30
-0.48
-0.67
-0.83
-0.94
-0.92
-0.76
-0.48
-0.17
0.11
0.32
0.46
0.60
0.78
0.99
1.18
1.27
1.22
1.06
0.81
0.52
0.25
0.02
-0.12
-0.11
0.07
0.40
0.78
1.05
1.11
0.90
0.49
-0.02
-0.49
-0.81
-0.93
-0.83
-0.59
-0.27
0.01
0.17
0.17
0.06
-0.06
-0.06
0.10
0.38
0.66
0.79
0.66
0.25
-0.36
-1.02
-1.58
-1.91
-1.96
-1.75
-1.34
-0.85
-0.40
-0.07
0.06
-0.01
-0.23
-0.47
-0.59
-0.47
-0.09
0.48
1.01
1.32
1.28
0.93
0.40
-0.12
-0.55
-0.87
-1.15
-1.40
-1.61
-1.69
-1.58
-1.28
-0.90
-0.56
-0.38
-0.39
-0.54
-0.76
-0.94
-1.03
-1.03
-0.94
-0.82
-0.71
-0.62
-0.58
-0.58
-0.57
-0.50
-0.33
-0.02
0.42
0.92
1.44
1.92
2.37
2.79
3.19
3.55
3.79
3.80
3.50
2.90
2.09
1.23
0.52
0.08
-0.02
0.18
0.54
0.86
0.95
0.70
0.18
-0.45
-0.98
-1.24
-1.24
-1.07
-0.89
-0.83
-0.90
-1.04
-1.15
-1.19
-1.19
-1.22
-1.33
-1.51
-1.68
-1.74
-1.64
-1.40
-1.06
-0.67
-0.25
0.23
0.74
1.22
1.53
1.51
1.11
0.41
-0.36
-0.95
-1.14
-0.89
-0.33
0.31
0.84
1.14
1.26
1.29
1.30
1.28
1.17
0.89
0.46
-0.01
-0.41
-0.66
-0.77
-0.83
-0.94
-1.10
-1.25
-1.30
-1.20
-0.95
-0.64
-0.34
-0.10
0.06
0.19
0.34
0.55
0.85
1.26
1.75
2.22
2.56
2.64
2.39
1.86
1.20
0.55
0.08
-0.18
-0.27
-0.30
-0.36
-0.44
-0.51
-0.54
-0.51
-0.48
-0.54
-0.71
-0.98
-1.26
-1.45
-1.48
-1.34
-1.06
-0.73
-0.43
-0.24
-0.19
-0.28
-0.47
-0.70
-0.91
-1.04
-1.07
-0.97
-0.74
-0.40
0.03
0.49
0.92
1.26
1.45
1.49
1.37
1.15
0.87
0.63
0.48
0.47
0.57
0.73
0.85
0.90
0.86
0.81
0.80
0.86
0.96
1.01
0.94
0.70
0.31
-0.20
-0.75
-1.26
-1.66
-1.91
-1.99
-1.95
-1.85
-1.78
-1.77
-1.78
-1.77
-1.68
-1.45
-1.05
-0.44
0.36
1.28
2.18
2.84
3.06
2.75
2.02
1.13
0.41
0.07
0.11
0.36
0.57
0.58
0.36
0.05
-0.19
-0.26
-0.17
-0.05
-0.03
-0.18
-0.50
-0.89
-1.25
-1.51
-1.63
-1.65
-1.59
-1.48
-1.31
-1.08
-0.79
-0.48
-0.21
-0.04
-0.01
-0.13
-0.31
-0.42
-0.31
0.13
0.87
1.76
2.55
2.97
2.87
2.32
1.58
0.95
0.68
0.80
1.11
1.34
1.24
0.78
0.07
-0.65
-1.20
-1.50
-1.57
-1.46
-1.27
-1.05
-0.86
-0.75
-0.77
-0.92
-1.14
-1.33
-1.38
-1.24
-0.92
-0.51
-0.07
0.32
0.61
0.79
0.89
0.96
1.12
1.42
1.80
2.09
2.08
1.61
0.75
-0.30
-1.22
-1.78
-1.93
-1.79
-1.55
-1.36
-1.27
-1.21
-1.10
-0.91
-0.64
-0.34
-0.06
0.19
0.44
0.75
1.17
1.69
2.25
2.73
3.00
2.96
2.64
2.13
1.58
1.07
0.62
0.20
-0.27
-0.81
-1.37
-1.78
-1.91
-1.68
-1.13
-0.45
0.13
0.43
0.43
0.22
-0.05
-0.23
-0.32
-0.39
-0.55
-0.83
-1.18
-1.47
-1.61
-1.56
-1.40
-1.23
-1.12
-1.09
-1.09
-1.04
-0.90
-0.65
-0.37
-0.15
-0.09
-0.23
-0.51
-0.81
-0.96
-0.86
-0.49
0.06
0.67
1.25
1.79
2.31
2.82
3.22
3.38
3.14
2.47
1.50
0.48
-0.31
-0.70
-0.70
-0.49
-0.31
-0.29
-0.42
-0.58
-0.60
-0.41
-0.07
0.26
0.42
0.36
0.15
-0.10
-0.24
-0.23
-0.11
-0.01
-0.06
-0.31
-0.74
-1.24
-1.68
-1.92
-1.93
-1.74
-1.42
-1.00
-0.50
0.10
0.78
1.40
1.81
1.83
1.48
0.88
0.29
-0.06
-0.10
0.07
0.26
0.25
-0.04
-0.58
-1.24
-1.85
-2.28
-2.45
-2.35
-2.01
-1.56
-1.11
-0.78
-0.61
-0.54
-0.48
-0.35
-0.12
0.14
0.38
0.56
0.70
0.86
1.10
1.40
1.70
1.94
2.09
2.19
2.29
2.44
2.66
2.90
3.07
3.10
2.93
2.57
2.04
1.43
0.82
0.27
-0.21
-0.64
-1.02
-1.33
-1.51
-1.52
-1.39
-1.21
-1.12
-1.23
-1.52
-1.92
-2.30
-2.53
-2.59
-2.47
-2.26
-2.01
-1.79
-1.62
-1.49
-1.37
-1.18
-0.87
-0.42
0.11
0.64
1.03
1.18
1.04
0.63
0.07
-0.52
-0.96
-1.11
-0.92
-0.45
0.18
0.76
1.15
1.26
1.10
0.76
0.39
0.10
-0.03
0.03
0.27
0.60
0.93
1.14
1.15
0.96
0.62
0.25
-0.04
-0.20
-0.24
-0.24
-0.25
-0.29
-0.36
-0.46
-0.59
-0.71
-0.78
-0.66
-0.25
0.48
1.40
2.24
2.72
2.71
2.28
1.69
1.22
1.02
1.06
1.20
1.27
1.15
0.88
0.53
0.17
-0.16
-0.50
-0.87
-1.29
-1.72
-2.08
-2.23
-2.10
-1.69
-1.11
-0.57
-0.24
-0.22
-0.43
-0.68
-0.81
-0.73
-0.46
-0.12
0.21
0.50
0.81
1.17
1.53
1.76
1.77
1.53
1.16
0.86
0.79
0.97
1.29
1.53
1.53
1.24
0.74
0.18
-0.30
-0.65
-0.91
-1.12
-1.30
-1.41
-1.40
-1.23
-0.95
-0.70
-0.62
-0.81
-1.21
-1.66
-1.99
-2.04
-1.80
-1.38
-0.98
-0.73
-0.70
-0.84
-1.04
-1.14
-1.00
-0.51
0.35
1.51
2.78
3.87
4.49
4.50
3.94
3.07
2.23
1.68
1.52
1.63
1.77
1.73
1.40
0.83
0.17
-0.44
-0.90
-1.22
-1.46
-1.68
-1.91
-2.10
-2.18
-2.06
-1.73
-1.27
-0.80
-0.46
-0.29
-0.23
-0.18
-0.02
0.28
0.64
0.93
1.08
1.12
1.18
1.40
1.82
2.31
2.69
2.75
2.44
1.87
1.27
0.83
0.66
0.68
0.75
0.69
0.42
-0.02
-0.55
-1.05
-1.45
-1.70
-1.80
-1.78
-1.67
-1.54
-1.44
-1.44
-1.54
-1.68
-1.81
-1.84
-1.77
-1.58
-1.32
-1.03
-0.75
-0.53
-0.39
-0.36
-0.40
-0.41
-0.30
0.04
0.60
1.28
1.85
2.10
1.89
1.25
0.34
-0.54
-1.16
-1.39
-1.27
-0.98
-0.67
-0.48
-0.40
-0.35
-0.27
-0.14
-0.01
0.04
-0.05
-0.24
-0.48
-0.68
-0.75
-0.69
-0.51
-0.29
-0.09
0.05
0.11
0.14
0.20
0.30
0.41
0.47
0.42
0.27
0.10
0.09
0.35
0.90
1.58
2.17
2.44
2.30
1.85
1.27
0.76
0.39
0.16
-0.02
-0.22
-0.45
-0.69
-0.93
-1.16
-1.41
-1.67
-1.93
-2.15
-2.27
-2.23
-2.01
-1.65
-1.20
-0.76
-0.44
-0.30
-0.38
-0.58
-0.78
-0.85
-0.73
-0.43
-0.05
0.34
0.74
1.15
1.61
2.08
2.47
2.64
2.45
1.89
1.03
0.09
-0.70
-1.13
-1.13
-0.81
-0.34
0.07
0.30
0.39
0.41
0.46
0.56
0.60
0.48
0.15
-0.32
-0.78
-1.05
-1.08
-0.90
-0.66
-0.51
-0.57
-0.82
-1.16
-1.44
-1.53
-1.39
-1.06
-0.63
-0.19
0.22
0.62
1.03
1.41
1.68
1.72
1.50
1.07
0.59
0.23
0.05
0.02
0.01
-0.13
-0.42
-0.76
-0.99
-0.98
-0.72
-0.32
0.02
0.17
0.09
-0.14
-0.37
-0.52
-0.58
-0.64
-0.76
-0.94
-1.08
-1.07
-0.82
-0.39
0.08
0.42
0.53
0.42
0.25
0.18
0.35
0.76
1.23
1.56
1.59
1.29
0.81
0.35
0.05
-0.04
0.00
0.09
0.19
0.33
0.54
0.78
0.95
0.91
0.59
0.07
-0.50
-0.94
-1.16
-1.17
-1.05
-0.86
-0.64
-0.41
-0.18
-0.03
0.00
-0.13
-0.38
-0.64
-0.81
-0.81
-0.69
-0.54
-0.43
-0.38
-0.33
-0.17
0.19
0.71
1.21
1.51
1.44
1.02
0.37
-0.23
-0.56
-0.51
-0.15
0.32
0.68
0.77
0.59
0.28
0.02
-0.07
-0.01
0.09
0.07
-0.14
-0.48
-0.78
-0.88
-0.73
-0.39
-0.04
0.17
0.16
-0.05
-0.34
-0.59
-0.75
-0.78
-0.70
-0.54
-0.31
-0.03
0.32
0.73
1.17
1.56
1.81
1.87
1.74
1.48
1.20
1.00
0.88
0.85
0.82
0.75
0.62
0.47
0.32
0.19
0.09
-0.03
-0.21
-0.46
-0.77
-1.05
-1.23
-1.25
-1.14
-0.98
-0.87
-0.81
-0.76
-0.63
-0.40
-0.11
0.07
0.01
-0.29
-0.70
-0.95
-0.85
-0.34
0.44
1.24
1.83
2.10
2.06
1.83
1.49
1.08
0.57
-0.06
-0.77
-1.42
-1.86
-1.97
-1.72
-1.21
-0.57
0.04
0.51
0.80
0.92
0.90
0.82
0.72
0.64
0.59
0.57
0.57
0.57
0.56
0.52
0.43
0.27
0.02
-0.30
-0.65
-0.95
-1.17
-1.27
-1.23
-1.06
-0.76
-0.33
0.16
0.65
1.02
1.19
1.13
0.89
0.55
0.20
-0.08
-0.23
-0.24
-0.10
0.12
0.35
0.50
0.52
0.39
0.17
-0.05
-0.18
-0.19
-0.07
0.11
0.30
0.43
0.45
0.33
0.05
-0.33
-0.77
-1.15
-1.41
-1.48
-1.35
-1.05
-0.64
-0.21
0.16
0.42
0.54
0.52
0.41
0.27
0.15
0.09
0.14
0.32
0.61
0.94
1.21
1.31
1.17
0.78
0.27
-0.22
-0.53
-0.62
-0.54
-0.44
-0.45
-0.60
-0.83
-1.01
-1.03
-0.85
-0.55
-0.25
-0.05
-0.01
-0.11
-0.30
-0.53
-0.78
-1.03
-1.23
-1.30
-1.10
-0.50
0.48
1.67
2.78
3.48
3.58
3.13
2.38
1.65
1.20
1.05
1.06
1.01
0.73
0.23
-0.33
-0.73
-0.85
-0.70
-0.42
-0.21
-0.22
-0.45
-0.82
-1.16
-1.30
-1.21
-0.96
-0.72
-0.62
-0.73
-1.00
-1.29
-1.48
-1.53
-1.45
-1.34
-1.28
-1.31
-1.41
-1.51
-1.47
-1.20
-0.66
0.07
0.85
1.49
1.78
1.65
1.13
0.40
-0.32
-0.82
-0.96
-0.75
-0.25
0.38
1.01
1.51
1.80
1.86
1.75
1.56
1.38
1.22
1.09
0.93
0.75
0.56
0.43
0.40
0.42
0.39
0.20
-0.15
-0.58
-0.91
-1.03
-0.91
-0.66
-0.44
-0.34
-0.39
-0.50
-0.60
-0.62
-0.57
-0.48
-0.33
-0.09
0.26
0.67
1.03
1.19
1.05
0.62
0.01
-0.60
-1.05
-1.24
-1.20
-0.97
-0.65
-0.28
0.09
0.39
0.57
0.53
0.22
-0.29
-0.88
-1.35
-1.53
-1.36
-0.93
-0.39
0.11
0.48
0.70
0.81
0.84
0.77
0.59
0.30
-0.03
-0.32
-0.47
-0.45
-0.27
0.00
0.31
0.61
0.91
1.20
1.46
1.67
1.76
1.70
1.49
1.16
0.79
0.47
0.26
0.20
0.26
0.39
0.53
0.63
0.69
0.73
0.75
0.74
0.63
0.38
-0.03
-0.52
-0.97
-1.24
-1.27
-1.11
-0.90
-0.81
-0.92
-1.17
-1.41
-1.48
-1.32
-1.00
-0.69
-0.53
-0.54
-0.60
-0.57
-0.31
0.16
0.73
1.25
1.58
1.72
1.69
1.56
1.38
1.20
1.04
0.94
0.93
1.01
1.08
1.04
0.79
0.31
-0.28
-0.79
-1.07
-1.03
-0.77
-0.46
-0.30
-0.40
-0.74
-1.21
-1.66
-1.94
-1.99
-1.81
-1.41
-0.89
-0.33
0.17
0.54
0.74
0.84
0.93
1.07
1.30
1.54
1.71
1.72
1.58
1.34
1.11
0.93
0.82
0.73
0.61
0.42
0.19
-0.05
-0.25
-0.39
-0.46
-0.49
-0.53
-0.64
-0.88
-1.25
-1.71
-2.12
-2.35
-2.30
-2.00
-1.55
-1.11
-0.83
-0.74
-0.81
-0.94
-1.02
-0.95
-0.70
-0.25
0.34
0.97
1.44
1.56
1.24
0.52
-0.33
-0.99
-1.17
-0.78
0.03
0.94
1.64
1.94
1.84
1.48
0.97
0.37
-0.32
-1.12
-1.94
-2.59
-2.87
-2.67
-2.07
-1.31
-0.68
-0.39
-0.48
-0.81
-1.18
-1.42
-1.50
-1.51
-1.56
-1.74
-2.03
-2.32
-2.48
-2.45
-2.33
-2.30
-2.53
-3.13
-4.00
-4.86
-5.40
-5.32
-4.53
-3.14
-1.41
0.32
1.77
2.86
3.69
4.47
5.46
6.76
8.28
9.78
10.93
11.48
11.21
10.00
7.74
4.48
0.69
-2.71
-4.52
-3.86
-0.73
3.74
7.73
9.59
8.73
5.88
2.65
0.50
0.01
0.59
1.08
0.57
-1.06
-3.11
-4.67
-5.18
-4.75
-4.02
-3.68
-4.06
-4.99
-5.94
-6.32
-5.82
-4.58
-3.02
-1.65
-0.85
-0.62
-0.69
-0.62
-0.09
0.90
2.05
2.91
3.13
2.64
1.68
0.61
-0.24
-0.74
-1.01
-1.23
-1.55
-1.95
-2.30
-2.48
-2.41
-2.17
-1.94
-1.89
-2.10
-2.53
-3.02
-3.33
-3.24
-2.66
-1.61
-0.27
1.12
2.31
3.18
3.66
3.81
3.70
3.46
3.18
2.93
2.79
2.74
2.75
2.72
2.59
2.32
1.92
1.46
1.01
0.62
0.34
0.17
0.07
-0.01
-0.15
-0.43
-0.84
-1.33
-1.78
-2.12
-2.30
-2.39
-2.49
-2.66
-2.90
-3.14
-3.28
-3.28
-3.15
-2.91
-2.58
-2.10
-1.43
-0.58
0.34
1.18
1.81
2.17
2.33
2.36
2.28
2.09
1.73
1.18
0.53
-0.11
-0.60
-0.93
-1.13
-1.36
-1.72
-2.25
-2.89
-3.50
-3.94
-4.19
-4.34
-4.61
-5.20
-6.20
-7.57
-9.14
-10.74
-12.32
-13.94
-15.74
-17.79
-20.04
-22.30
-24.43
-26.44
-28.55
-31.11
-34.44
-38.60
-43.34
-48.13
-52.47
-56.11
-59.29
-62.77
-67.46
-74.03
-82.44
-91.86
-100.88
-108.18
-113.07
-115.93
-118.09
-121.39
-127.59
-137.81
-152.31
-170.40
-190.30
-209.24
-223.74
-230.23
-226.01
-210.06
-183.35
-148.37
-108.13
-65.00
-20.07
26.77
76.01
127.31
178.84
227.29
268.91
300.84
322.15
334.06
339.24
340.53
339.93
338.18
335.35
331.74
328.47
327.32
329.88
336.51
345.79
354.73
359.73
357.64
346.65
326.56
298.66
264.97
227.61
188.12
147.13
104.36
58.96
10.20
-41.67
-94.75
-145.45
-189.29
-222.21
-242.00
-249.03
-245.94
-236.53
-224.26
-211.28
-198.34
-185.41
-172.49
-160.09
-149.01
-139.75
-132.19
-125.43
-118.41
-110.38
-101.31
-91.81
-82.87
-75.28
-69.33
-64.71
-60.68
-56.42
-51.41
-45.63
-39.51
-33.77
-29.02
-25.47
-22.91
-20.81
-18.63
-16.03
-13.04
-9.97
-7.27
-5.25
-4.01
-3.41
-3.11
-2.76
-2.10
-1.08
0.19
1.45
2.46
3.05
3.23
3.09
2.80
2.49
2.20
1.88
1.46
0.94
0.34
-0.25
-0.77
-1.20
-1.54
-1.77
-1.85
-1.69
-1.28
-0.66
0.03
0.63
1.00
1.13
1.08
0.99
0.94
0.99
1.11
1.25
1.34
1.35
1.23
0.99
0.66
0.27
-0.13
-0.51
-0.85
-1.13
-1.32
-1.37
-1.25
-0.98
-0.64
-0.37
-0.31
-0.50
-0.89
-1.35
-1.76
-2.03
-2.17
-2.24
-2.29
-2.34
-2.35
-2.26
-1.98
-1.50
-0.88
-0.25
0.26
0.53
0.56
0.48
0.47
0.72
1.30
2.14
3.04
3.75
4.12
4.10
3.77
3.28
2.75
2.25
1.80
1.42
1.12
0.91
0.81
0.81
0.86
0.94
0.98
0.97
0.86
0.62
0.26
-0.19
-0.66
-1.11
-1.50
-1.84
-2.18
-2.60
-3.10
-3.63
-4.06
-4.23
-4.05
-3.52
-2.73
-1.88
-1.14
-0.60
-0.24
0.02
0.33
0.78
1.44
2.32
3.33
4.33
5.15
5.62
5.63
5.18
4.38
3.39
2.37
1.44
0.66
0.06
-0.30
-0.41
-0.32
-0.12
0.05
0.07
-0.11
-0.42
-0.76
-1.05
-1.25
-1.40
-1.58
-1.86
-2.23
-2.64
-3.00
-3.20
-3.20
-2.98
-2.62
-2.20
-1.83
-1.55
-1.36
-1.23
-1.06
-0.79
-0.36
0.26
1.09
2.09
3.17
4.14
4.72
4.71
4.04
2.86
1.51
0.41
-0.16
-0.15
0.28
0.80
1.15
1.21
1.03
0.76
0.49
0.20
-0.21
-0.80
-1.56
-2.29
-2.76
-2.80
-2.45
-1.93
-1.56
-1.59
-2.04
-2.71
-3.24
-3.35
-2.93
-2.13
-1.22
-0.45
0.05
0.36
0.67
1.18
1.95
2.90
3.84
4.56
4.93
4.95
4.68
4.19
3.55
2.78
1.95
1.16
0.54
0.23
0.23
0.45
0.71
0.80
0.61
0.14
-0.51
-1.19
-1.78
-2.20
-2.43
-2.53
-2.52
-2.46
-2.40
-2.38
-2.40
-2.47
-2.51
-2.45
-2.23
-1.80
-1.21
-0.55
0.08
0.61
1.04
1.48
2.02
2.75
3.58
4.26
4.49
4.03
2.88
1.30
-0.24
-1.28
-1.56
-1.19
-0.51
0.03
0.15
