1660936014.00
64.000000
-0.00
-0.00
-0.00
-0.00
-0.00
-0.00
-0.00
-0.00
-0.00
-0.00
0.00
0.01
0.01
-0.00
-0.03
-0.05
-0.05
0.00
0.13
0.36
0.66
1.01
1.37
1.72
2.06
2.40
2.79
3.25
3.81
4.44
5.10
5.73
6.32
6.90
7.52
8.26
9.15
10.28
11.52
12.76
13.88
14.84
15.73
16.73
18.09
19.92
22.43
25.39
28.52
31.51
34.23
36.82
39.64
43.15
47.63
53.41
60.07
67.04
73.77
79.99
85.91
92.14
99.43
108.24
118.96
130.87
143.08
154.71
165.40
175.50
185.92
198.10
210.62
225.39
242.61
262.08
282.60
301.61
315.31
319.60
311.31
289.37
255.56
213.01
165.51
116.25
67.23
19.44
-26.53
-70.08
-110.67
-147.86
-182.30
-215.38
-248.87
-284.04
-320.81
-357.19
-389.37
-412.88
-423.95
-421.09
-405.73
-381.65
-353.52
-325.17
-298.59
-273.99
-250.68
-228.05
-206.29
-186.15
-168.30
-152.77
-138.83
-125.38
-111.57
-97.28
-83.06
-69.92
-58.64
-49.31
-41.26
-33.37
-24.68
-14.98
-5.01
3.78
10.01
13.03
13.31
12.34
11.87
13.01
15.69
18.68
20.29
19.26
15.40
9.48
2.61
-4.24
-10.19
-13.86
-12.93
-4.63
12.92
39.21
70.75
102.06
127.93
145.61
155.43
159.47
159.20
153.85
140.78
117.68
85.11
47.48
11.67
-15.94
-32.24
-38.35
-38.29
-36.53
-35.68
-35.73
-35.01
-31.93
-26.31
-19.57
-13.79
-10.55
-10.08
-11.31
-12.56
-12.47
-10.64
-7.71
-4.86
-3.18
-3.12
-4.33
-5.91
-6.87
-6.58
-5.03
-2.73
-0.47
1.08
1.67
1.49
1.04
0.87
1.30
2.31
3.55
4.63
5.26
5.40
5.25
5.04
4.93
4.89
4.76
4.36
3.63
2.65
1.59
0.61
-0.17
-0.73
-1.17
-1.59
-2.11
-2.77
-3.54
-4.33
-5.05
-5.62
-6.06
-6.45
-6.86
-7.35
-7.89
-8.40
-8.81
-9.09
-9.29
-9.45
-9.58
-9.65
-9.58
-9.29
-8.80
-8.15
-7.44
-6.74
-6.10
-5.54
-5.06
-4.67
-4.35
-4.09
-3.84
-3.53
-3.07
-2.39
-1.52
-0.54
0.37
1.07
1.46
1.58
1.58
1.63
1.87
2.26
2.70
3.01
3.08
2.93
2.65
2.41
2.31
2.38
2.57
2.80
3.03
3.24
3.44
3.66
3.88
4.07
4.21
4.25
4.24
4.19
4.14
4.11
4.07
4.01
3.89
3.78
3.74
3.84
4.11
4.45
4.74
4.85
4.76
4.55
4.36
4.31
4.41
4.58
4.68
4.61
4.35
4.01
3.74
3.63
3.70
3.83
3.88
3.74
3.39
2.93
2.49
2.18
2.05
2.06
2.14
2.24
2.31
2.33
2.30
2.18
1.95
1.62
1.24
0.94
0.84
0.96
1.25
1.55
1.68
1.57
1.28
0.95
0.75
0.74
0.89
1.09
1.23
1.28
1.29
1.33
1.42
1.52
1.59
1.58
1.52
1.49
1.53
1.65
1.81
1.93
1.98
1.93
1.82
1.69
1.55
1.39
1.21
0.98
0.73
0.52
0.40
0.39
0.50
0.69
0.90
1.11
1.31
1.49
1.62
1.67
1.60
1.36
1.00
0.61
0.33
0.24
0.37
0.60
0.81
0.89
0.82
0.67
0.52
0.46
0.49
0.58
0.70
0.83
0.99
1.18
1.41
1.63
1.78
1.81
1.67
1.38
1.00
0.63
0.39
0.35
0.49
0.73
0.93
1.00
0.95
0.83
0.76
0.75
0.80
0.82
0.76
0.63
0.50
0.42
0.42
0.48
0.56
0.61
0.64
0.65
0.65
0.63
0.61
0.60
0.63
0.72
0.84
0.97
1.04
1.04
0.96
0.81
0.61
0.36
0.04
-0.28
-0.55
-0.69
-0.67
-0.48
-0.19
0.10
0.32
0.39
0.34
0.22
0.11
0.10
0.23
0.45
0.69
0.83
0.81
0.65
0.44
0.26
0.19
0.22
0.28
0.32
0.32
0.32
0.33
0.38
0.42
0.42
0.38
0.36
0.40
0.55
0.74
0.86
0.82
0.61
0.31
0.07
-0.03
0.02
0.11
0.16
0.13
0.07
0.06
0.19
0.43
0.70
0.89
0.90
0.70
0.34
-0.08
-0.40
-0.51
-0.38
-0.08
0.24
0.44
0.43
0.24
-0.01
-0.24
-0.37
-0.40
-0.34
-0.20
0.05
0.39
0.75
1.05
1.17
1.10
0.90
0.68
0.55
0.53
0.60
0.69
0.77
0.83
0.88
0.94
0.99
1.03
1.04
1.04
1.02
0.95
0.81
0.62
0.41
0.25
0.17
0.13
0.05
-0.15
-0.50
-0.90
-1.23
-1.36
-1.22
-0.89
-0.48
-0.08
0.24
0.45
0.54
0.52
0.39
0.18
-0.07
-0.29
-0.44
-0.51
-0.50
-0.40
-0.20
0.07
0.35
0.53
0.54
0.38
0.14
-0.02
0.01
0.24
0.58
0.89
1.08
1.09
1.01
0.90
0.82
0.79
0.74
0.62
0.37
0.03
-0.35
-0.64
-0.75
-0.65
-0.38
-0.06
0.18
0.26
0.20
0.08
-0.01
-0.05
-0.08
-0.18
-0.35
-0.54
-0.62
-0.51
-0.20
0.17
0.38
0.28
-0.18
-0.86
-1.52
-1.91
-1.90
-1.54
-1.00
-0.56
-0.41
-0.64
-1.19
-1.88
-2.53
-2.97
-3.14
-3.05
-2.80
-2.53
-2.39
-2.51
-3.00
-3.86
-4.98
-6.05
-6.66
-6.41
-5.18
-3.23
-1.23
0.05
-0.00
-1.54
-4.18
-7.23
-9.97
-11.97
-13.19
-13.89
-14.39
-14.95
-15.67
-16.62
-17.91
-19.72
-22.31
-25.82
-30.18
-35.07
-39.98
-44.42
-48.18
-51.51
-55.13
-60.01
-66.94
-76.13
-86.98
-98.28
-108.59
-116.84
-122.82
-127.26
-131.56
-137.31
-145.81
-157.57
-172.01
-187.29
-200.39
-207.65
-205.66
-192.33
-167.59
-133.40
-92.94
-49.27
-4.11
42.57
91.95
144.89
200.53
255.79
306.01
346.65
375.06
391.53
398.93
401.45
402.76
404.83
407.52
409.26
407.93
401.71
389.43
370.53
344.93
312.93
275.23
232.92
187.26
139.27
89.53
38.22
-14.38
-67.12
-117.51
-161.95
-196.73
-219.33
-229.38
-228.83
-221.09
-209.71
-197.31
-185.16
-173.63
-162.79
-152.94
-144.50
-137.64
-131.89
-126.27
-119.64
-111.32
-101.37
-90.52
-79.91
-70.56
-62.99
-57.13
-52.43
-48.12
-43.57
-38.52
-33.16
-28.02
-23.66
-20.39
-18.14
-16.47
-14.82
-12.77
-10.25
-7.51
-4.99
-3.07
-1.95
-1.49
-1.40
-1.32
-0.98
-0.32
0.56
1.45
2.15
2.53
2.57
2.36
2.01
1.65
1.35
1.16
1.05
0.97
0.87
0.72
0.57
0.48
0.49
0.61
0.77
0.87
0.85
0.70
0.47
0.26
0.10
0.01
-0.06
-0.15
-0.28
-0.44
-0.63
-0.84
-1.05
-1.20
-1.22
-1.08
-0.76
-0.36
0.01
0.22
0.19
-0.05
-0.42
-0.79
-1.05
-1.11
-0.93
-0.51
0.12
0.89
1.68
2.36
2.81
2.97
2.82
2.45
1.96
1.45
0.99
0.61
0.28
-0.01
-0.28
-0.50
-0.62
-0.64
-0.59
-0.55
-0.58
-0.71
-0.86
-0.92
-0.83
-0.60
-0.33
-0.15
-0.09
-0.10
-0.07
0.06
0.28
0.49
0.63
0.72
0.86
1.17
1.65
2.23
2.73
2.96
2.80
2.23
1.33
0.24
-0.88
-1.86
-2.56
-2.90
-2.90
-2.62
-2.21
-1.76
-1.34
-0.97
-0.67
-0.45
-0.34
-0.38
-0.61
-1.02
-1.54
-2.06
-2.46
-2.66
-2.61
-2.39
-2.08
-1.78
-1.54
-1.32
-1.06
-0.67
-0.11
0.62
1.48
2.43
3.42
4.32
5.04
5.45
5.49
5.19
4.67
4.09
3.58
3.19
2.88
2.57
2.15
1.57
0.85
0.06
-0.73
-1.46
-2.14
-2.76
-3.28
-3.63
-3.70
-3.44
-2.88
-2.16
-1.50
-1.09
-1.00
-1.14
-1.32
-1.33
-1.06
-0.48
0.29
1.12
1.87
2.43
2.76
2.83
2.66
2.30
1.84
1.38
1.05
0.93
1.00
1.15
1.21
1.03
0.56
-0.16
-0.99
-1.81
-2.52
-3.14
-3.68
-4.15
-4.49
-4.55
-4.22
-3.49
-2.53
-1.59
-0.97
-0.81
-1.02
-1.34
-1.44
-1.11
-0.32
0.83
2.13
3.38
4.45
5.18
5.48
5.32
4.78
4.07
3.46
3.13
3.06
3.07
2.88
2.32
1.42
0.37
-0.60
-1.34
-1.86
-2.27
-2.70
-3.20
-3.66
-3.95
-3.93
-3.55
-2.93
-2.27
-1.76
-1.50
-1.47
-1.53
-1.50
-1.24
-0.70
0.07
0.95
1.80
2.49
2.93
3.09
3.03
2.86
2.74
2.81
3.09
3.44
3.64
3.46
2.78
1.68
0.33
-0.99
-2.11
-2.96
-3.57
-4.01
-4.30
-4.42
-4.33
-4.00
-3.51
-2.98
-2.53
-2.19
-1.93
-1.65
-1.28
-0.79
-0.19
0.53
1.36
2.30
3.29
4.17
4.71
4.79
4.43
3.84
3.33
3.10
3.16
3.33
3.32
2.97
2.25
1.32
0.38
-0.40
-1.00
-1.48
-1.92
-2.34
-2.71
-2.94
-2.98
-2.86
-2.63
-2.37
-2.15
-1.95
-1.76
-1.52
-1.24
-0.94
-0.64
-0.30
0.14
0.72
1.40
2.02
2.35
2.25
1.69
0.90
0.19
-0.18
-0.10
0.30
0.74
0.94
0.77
0.28
-0.33
-0.88
-1.24
-1.44
-1.54
-1.62
-1.71
-1.78
-1.80
-1.74
-1.57
-1.30
-0.93
-0.46
0.14
0.93
1.89
2.96
3.97
4.67
4.82
4.34
3.35
2.21
1.27
0.80
0.75
0.86
0.79
0.38
-0.33
-1.08
-1.61
-1.85
-1.88
-1.95
-2.25
-2.83
-3.58
-4.33
-4.93
-5.27
-5.34
-5.15
-4.75
-4.19
-3.57
-3.00
-2.66
-2.73
-3.32
-4.50
-6.13
-7.92
-9.49
-10.55
-11.00
-11.02
-11.00
-11.32
-12.19
-13.54
-15.09
-16.53
-17.65
-18.47
-19.25
-20.30
-21.91
-24.21
-27.13
-30.45
-33.91
-37.32
-40.65
-44.08
-47.87
-52.30
-57.48
-63.27
-69.36
-75.27
-80.54
-84.93
-88.48
-91.64
-95.35
-100.85
-109.10
-120.10
-132.24
-142.16
-145.55
-138.48
-118.70
-86.21
-42.92
8.25
64.11
121.43
176.67
226.05
266.20
295.02
312.08
318.25
314.61
301.85
280.60
252.46
220.73
189.99
164.15
144.71
130.28
117.81
104.88
91.15
78.07
67.24
58.89
51.74
43.93
34.36
22.95
10.06
-4.44
-21.12
-40.22
-60.59
-79.60
-94.14
-102.24
-104.13
-101.90
-98.17
-94.71
-91.78
-88.68
-84.69
-79.72
-74.39
-69.48
-65.35
-61.81
-58.29
-54.18
-49.24
-43.75
-38.33
-33.71
-30.35
-28.25
-26.96
-25.77
-24.07
-21.62
-18.59
-15.45
-12.75
-10.82
-9.71
-9.18
-8.85
-8.38
-7.66
-6.78
-5.95
-5.42
-5.31
-5.61
-6.16
-6.79
-7.34
-7.77
-8.12
-8.48
-8.93
-9.47
-10.06
-10.63
-11.13
-11.56
-12.02
-12.70
-13.83
-15.52
-17.71
-20.17
-22.53
-24.53
-26.11
-27.50
-29.14
-31.54
-34.98
-39.45
-44.61
-49.90
-54.78
-58.97
-62.61
-66.22
-70.58
-76.34
-83.75
-92.43
-101.47
-109.80
-116.68
-122.12
-126.90
-132.25
-139.38
-149.04
-161.34
-175.73
-190.93
-204.91
-214.92
-217.94
-211.34
-193.76
-165.67
-129.15
-87.07
-41.87
5.04
53.09
101.66
149.09
192.55
228.67
254.95
270.77
277.62
278.36
276.03
272.81
269.71
266.92
264.46
262.52
261.46
261.49
262.39
263.50
264.13
263.99
263.42
263.19
264.21
266.93
271.02
275.31
277.90
276.61
269.36
254.71
232.28
202.75
167.71
129.08
88.40
46.25
2.27
-44.17
-92.79
-141.56
-186.56
-223.11
-247.41
-258.05
-256.60
-246.78
-233.01
-218.75
-205.73
-194.12
-183.40
-173.17
-163.51
-154.79
-147.22
-140.56
-134.24
-127.69
-120.77
-113.80
-107.47
-102.50
-99.27
-97.61
-96.91
-96.33
-95.19
-93.23
-90.70
-88.15
-86.11
-84.78
-83.89
-82.97
-81.69
-80.16
-78.97
-78.87
-80.43
-83.70
-88.35
-94.01
-100.64
-108.69
-118.91
-131.86
-147.57
-165.32
-183.75
-200.95
-214.74
-222.79
-223.02
-214.01
-195.38
-168.04
-133.81
-94.71
-52.21
-6.94
40.80
89.97
138.05
181.00
214.43
235.28
243.07
240.08
230.32
217.79
205.09
193.12
181.55
169.93
158.40
147.73
138.70
131.52
125.56
119.68
112.88
104.81
96.00
87.56
80.68
76.08
73.67
72.64
71.84
70.29
67.60
64.15
60.82
58.57
57.92
58.79
60.52
62.24
63.36
63.79
63.99
64.68
66.41
69.33
73.05
76.93
80.33
82.93
84.88
86.68
88.92
92.09
96.56
102.40
109.45
116.99
123.51
126.73
123.78
111.77
88.44
52.79
5.78
-49.39
-107.59
-162.66
-208.61
-240.72
-256.23
-254.72
-238.03
-210.07
-176.45
-143.63
-117.71
-102.93
-100.39
-107.80
-120.44
-133.18
-142.40
-147.19
-149.12
-150.85
-154.36
-159.64
-164.06
-163.19
-152.47
-129.40
-95.06
-54.26
-13.86
19.67
42.54
54.46
57.80
55.66
50.17
42.08
31.73
20.25
10.20
4.79
6.39
15.13
28.59
42.84
54.12
60.51
62.37
61.81
61.40
62.83
66.24
70.44
73.69
74.67
73.04
69.50
65.32
61.67
59.20
57.83
56.98
55.97
54.42
52.33
50.05
47.98
46.39
45.27
44.47
43.75
42.94
42.00
41.00
40.10
39.46
39.24
39.52
40.24
41.24
42.28
43.23
44.13
45.25
46.92
49.40
52.71
56.57
60.58
64.38
67.86
71.19
74.78
79.04
84.20
90.18
96.63
103.12
109.35
115.29
121.04
126.62
131.81
136.33
140.30
144.52
150.23
158.16
167.54
175.66
178.36
171.71
153.56
124.39
86.73
43.74
-2.10
-49.25
-96.31
-140.99
-179.72
-208.60
-224.96
-228.81
-222.89
-211.61
-199.26
-188.62
-180.51
-174.23
-168.61
-162.70
-156.15
-148.97
-141.30
-133.26
-125.02
-116.92
-109.44
-103.03
-97.88
-93.67
-89.71
-85.23
-79.70
-73.12
-66.00
-59.14
-53.36
-49.38
-47.73
-48.28
-49.77
-49.51
-43.99
-30.38
-8.40
18.71
44.86
63.37
69.77
63.79
49.49
33.13
20.61
15.16
16.79
23.34
32.18
41.44
50.06
57.05
60.76
59.11
50.58
35.47
16.49
-1.81
-14.93
-20.36
-18.66
-13.02
-7.50
-5.09
-6.63
-10.93
-15.87
-19.61
-21.30
-20.98
-19.17
-16.39
-13.04
-9.47
-5.94
-2.87
-0.59
0.73
1.23
1.25
1.24
1.47
1.94
2.36
2.31
1.44
-0.27
-2.50
-4.62
-5.92
-5.90
-4.44
-1.92
0.90
3.18
4.26
3.90
2.35
0.14
-2.12
-4.02
-5.36
-6.17
-6.53
-6.47
-6.01
-5.19
-4.16
-3.16
-2.44
-2.10
-2.03
-2.03
-1.92
-1.63
-1.26
-0.98
-0.89
-1.01
-1.26
-1.57
-1.92
-2.35
-2.86
-3.41
-3.87
-4.16
-4.27
-4.28
-4.32
-4.47
-4.66
-4.77
-4.68
-4.35
-3.83
-3.25
-2.73
-2.34
-2.09
-1.96
-1.91
-1.93
-1.98
-2.06
-2.15
-2.22
-2.28
-2.33
-2.38
-2.41
-2.42
-2.38
-2.26
