1660756500.00
64.000000
-0.00
-0.00
-0.00
-0.00
-0.00
-0.00
-0.00
-0.00
-0.00
-0.00
0.00
0.01
0.01
-0.00
-0.03
-0.05
-0.05
0.00
0.13
0.36
0.66
1.01
1.37
1.72
2.06
2.40
2.79
3.24
3.80
4.42
5.06
5.66
6.20
6.68
7.15
7.68
8.31
9.14
10.09
11.04
11.88
12.56
13.14
13.76
14.65
15.96
17.91
20.32
22.90
25.38
27.58
29.57
31.68
34.32
37.81
42.54
48.15
54.10
59.83
64.97
69.58
74.14
79.34
85.71
93.76
103.00
112.62
121.73
129.77
136.75
143.30
150.75
157.77
166.64
177.95
191.79
206.97
220.57
228.25
225.36
208.53
176.87
132.76
80.05
23.07
-34.94
-92.44
-149.16
-205.23
-260.37
-313.74
-363.87
-409.83
-450.91
-486.50
-515.74
-537.23
-549.22
-549.96
-538.37
-514.21
-478.67
-433.88
-382.45
-327.02
-269.84
-212.63
-156.66
-102.95
-52.37
-5.90
35.58
71.43
101.35
125.50
144.38
158.69
169.15
176.37
180.75
182.57
182.07
179.51
175.23
169.65
163.18
156.15
148.81
141.30
133.69
126.02
118.33
110.69
103.16
95.80
88.68
81.83
75.25
68.95
62.95
57.25
51.86
46.78
42.03
37.59
33.45
29.61
26.07
22.81
19.83
17.11
14.67
12.48
10.54
8.83
7.35
6.07
4.97
4.05
3.27
2.62
2.09
1.65
1.30
1.01
0.79
0.61
0.48
0.37
0.29
0.22
0.18
0.14
0.11
0.09
0.08
0.07
0.06
0.06
0.06
0.07
0.08
0.09
0.10
0.13
0.15
0.18
0.22
0.25
0.29
0.32
0.36
0.41
0.47
0.52
0.57
0.59
0.58
0.56
0.53
0.52
0.54
0.61
0.72
0.83
0.91
0.97
1.00
1.03
1.09
1.22
1.44
1.73
2.06
2.37
2.63
2.84
3.02
3.23
3.52
3.91
4.36
4.81
5.17
5.40
5.52
5.63
5.88
6.40
7.21
8.21
9.18
9.89
10.21
10.18
10.00
9.98
10.33
11.09
11.99
12.58
12.38
11.03
8.47
4.93
0.85
-3.44
-7.62
-11.69
-15.73
-19.84
-24.11
-28.78
-34.08
-40.01
-45.96
-50.56
-51.93
-48.37
-39.36
-26.01
-11.02
2.30
11.34
15.14
14.65
12.21
10.50
11.37
15.43
21.79
28.48
33.21
33.89
29.04
17.95
1.09
-19.44
-39.77
-54.71
-59.20
-50.41
-29.29
-0.63
28.48
51.10
62.32
61.52
51.27
35.84
19.33
4.72
-6.20
-13.05
-16.09
-16.29
-15.04
-13.84
-13.51
-14.00
-14.82
-15.21
-14.67
-12.92
-9.80
-5.20
0.65
7.22
13.30
17.25
17.70
13.91
5.98
-5.41
-19.07
-32.87
-43.76
-47.63
-41.26
-23.67
2.75
32.64
59.47
77.72
83.34
77.06
62.70
44.65
26.16
9.00
-6.88
-21.10
-32.84
-41.12
-45.14
-44.81
-40.79
-34.15
-26.25
-18.24
-10.88
-4.50
0.95
5.92
10.52
14.24
16.10
15.02
10.47
3.08
-5.60
-13.50
-18.76
-20.43
-18.84
-15.18
-10.98
-7.44
-5.09
-3.90
-3.49
-3.39
-3.28
-3.16
-3.16
-3.44
-4.08
-4.98
-5.99
-6.83
-7.23
-6.91
-5.65
-3.22
0.53
5.60
11.78
18.74
26.10
33.44
40.43
46.75
52.05
55.91
57.89
57.76
55.67
52.25
48.17
44.00
40.12
36.83
34.33
32.75
32.17
32.65
34.34
37.11
40.59
44.29
47.58
49.21
46.91
37.37
16.85
-17.13
-64.79
-122.78
-183.52
-236.56
-271.67
-282.09
-266.19
-227.19
-171.20
-106.06
-40.19
18.63
63.95
91.16
98.49
88.02
63.96
36.07
15.69
8.70
13.22
23.37
33.99
42.47
48.64
53.25
57.16
60.24
61.57
60.82
58.69
56.50
55.45
56.08
58.26
61.55
64.88
66.78
66.61
64.75
62.26
60.09
58.73
57.95
56.98
54.48
48.63
38.70
25.14
9.35
-6.88
-22.07
-35.44
-47.10
-56.34
-65.06
-74.25
-83.73
-92.42
-98.80
-101.87
-101.38
-98.14
-93.72
-89.99
-88.14
-88.83
-92.42
-98.63
-106.10
-111.74
-111.32
-100.78
-78.67
-47.05
-11.58
20.58
43.77
55.95
58.99
56.90
53.49
50.52
47.89
44.73
40.64
36.37
33.25
32.27
33.22
34.94
35.85
34.77
31.62
27.28
23.11
20.20
19.16
19.63
20.66
21.13
20.31
18.15
15.21
12.33
10.26
9.30
9.27
9.65
9.85
9.49
8.53
7.22
5.93
4.94
4.38
4.18
4.21
4.34
4.51
4.70
4.90
5.04
5.01
4.76
4.34
3.96
3.91
4.41
5.48
6.89
8.17
8.89
8.77
7.95
6.91
6.29
6.56
7.80
9.63
11.32
12.23
11.95
10.61
8.72
6.97
5.97
6.19
7.90
11.09
14.96
17.83
17.26
10.88
-2.45
-21.84
-44.25
-65.60
-82.28
-92.62
-97.10
-97.65
-96.31
-94.17
-91.11
-86.43
-79.88
-71.33
-61.31
-50.46
-39.13
-27.32
-14.98
-2.28
10.13
21.27
30.22
36.35
39.60
40.48
39.82
38.48
37.13
36.10
35.37
34.76
33.98
32.78
31.03
28.84
26.35
23.81
21.39
19.15
17.14
15.34
13.84
12.84
12.48
12.79
13.57
14.40
14.83
14.56
13.58
12.12
10.54
9.13
7.98
6.95
5.87
4.58
3.17
1.79
0.66
-0.07
-0.44
-0.65
-0.93
-1.47
-2.34
-3.39
-4.42
-5.23
-5.67
-5.77
-5.70
-5.73
-6.06
-6.82
-7.95
-9.24
-10.43
-11.29
-11.66
-11.49
-10.74
-9.40
-7.51
-5.18
-2.68
-0.33
1.60
2.98
3.92
4.64
5.37
6.16
6.90
7.38
7.47
7.25
6.96
6.88
7.15
7.72
8.33
8.73
8.79
8.57
8.26
8.01
7.90
7.84
7.69
7.39
7.03
6.86
7.17
8.22
10.13
12.92
16.46
20.61
25.20
30.11
35.27
40.79
46.85
53.78
61.74
70.69
80.16
89.52
98.15
105.91
113.12
120.41
128.19
136.18
143.22
147.60
147.47
141.37
128.51
108.87
83.31
53.78
23.30
-4.41
-25.86
-39.10
-44.62
-45.36
-45.61
-49.31
-58.41
-72.26
-88.14
-102.63
-113.10
-118.50
-119.36
-117.12
-113.28
-108.87
-104.35
-99.89
-95.73
-92.25
-89.86
-88.65
-88.17
-87.43
-85.31
-81.09
-74.79
-67.28
-59.84
-53.60
-49.11
-46.12
-43.90
-41.62
-38.75
-35.24
-31.39
-27.58
-24.08
-20.91
-17.93
-14.95
-11.91
-8.93
-6.21
-3.93
-2.13
-0.75
0.37
1.31
2.09
2.62
2.82
2.70
2.43
2.14
1.90
1.55
0.76
-0.79
-3.15
-6.05
-8.90
-10.98
-11.78
-11.07
-9.06
-6.21
-3.04
0.03
2.78
5.15
7.24
9.13
10.88
12.49
13.94
15.22
16.30
17.18
17.83
18.20
18.29
18.13
17.84
17.56
17.40
17.43
17.61
17.78
17.76
17.36
16.49
15.22
13.75
12.35
11.21
10.35
9.64
8.89
7.92
6.71
5.32
3.81
2.20
0.43
-1.59
-3.85
-6.26
-8.71
-11.11
-13.41
-15.56
-17.39
-18.63
-18.99
-18.28
-16.51
-13.84
-10.52
-6.77
-2.81
1.23
5.20
8.90
12.19
14.95
17.15
18.83
20.11
21.09
21.83
22.35
22.63
22.65
22.44
22.04
21.55
21.00
20.40
19.68
18.78
17.65
16.34
14.94
13.53
12.14
10.74
9.25
7.64
5.95
4.27
2.72
1.35
0.18
-0.82
-1.71
-2.54
-3.41
-4.38
-5.56
-7.03
-8.87
-11.15
-13.85
-16.89
-20.06
-23.04
-25.44
-26.93
-27.24
-26.32
-24.27
-21.38
-17.97
-14.41
-10.97
-7.84
-5.12
-2.79
-0.78
1.02
2.69
4.31
5.87
7.34
8.65
9.72
10.53
11.09
11.48
11.80
12.15
12.53
12.92
13.20
13.25
12.98
12.41
11.65
10.85
10.19
9.71
9.39
9.10
8.68
8.03
7.16
6.12
5.00
3.84
2.60
1.23
-0.26
-1.79
-3.18
-4.19
-4.56
-4.10
-2.69
-0.37
2.72
6.34
10.20
14.09
17.89
21.68
25.61
29.81
34.28
38.92
43.47
47.68
51.35
54.36
56.88
59.45
62.99
68.51
76.43
86.08
95.52
102.11
103.49
98.65
88.45
75.14
61.52
49.97
41.96
38.13
38.54
42.63
49.37
57.24
64.47
69.65
72.39
73.52
74.68
77.13
80.27
81.77
78.49
68.06
50.34
27.71
4.11
-16.57
-31.97
-42.82
-51.46
-60.51
-71.62
-85.11
-100.39
-116.74
-133.82
-151.53
-171.16
-193.42
-218.11
-244.07
-269.66
-293.49
-315.06
-334.86
-354.00
-375.51
-401.45
-432.11
-465.51
-497.96
-525.28
-544.12
-552.63
-537.73
-491.02
-409.65
-298.73
-170.42
-39.70
80.75
183.23
264.95
326.54
368.49
392.24
399.92
394.71
380.69
362.28
343.45
327.15
314.83
305.44
297.10
287.70
275.95
261.72
245.97
230.26
216.24
204.78
195.27
186.80
177.22
164.78
148.62
129.02
107.23
84.93
62.95
41.39
19.59
-3.81
-30.02
-59.74
-93.21
-130.43
-167.66
-203.25
-234.11
-255.26
-261.32
-248.94
-219.08
-177.70
-133.96
-96.74
-71.78
-59.44
-55.87
-56.14
-56.49
-55.26
-52.12
-46.69
-37.89
-24.90
-8.61
9.53
26.16
37.74
42.23
40.25
34.71
29.38
26.97
28.61
33.78
40.74
47.69
53.35
56.98
58.20
56.74
52.50
45.90
38.00
30.03
23.15
18.19
15.30
14.01
13.48
12.77
11.16
8.38
4.47
-0.17
-4.88
-8.90
-11.49
-12.54
-12.02
-10.27
-8.10
-6.70
-7.36
-11.04
-17.90
-27.10
-36.91
-45.10
-49.56
-48.91
-42.76
-31.42
-15.36
5.38
31.18
62.45
98.60
137.28
174.34
204.78
224.26
230.44
223.25
204.39
176.25
141.16
101.36
59.43
18.68
-17.08
-44.47
-61.66
-68.93
-68.59
-64.09
-59.08
-56.45
-57.84
-63.37
-71.79
-80.94
-88.36
-92.28
-92.14
-88.67
-83.42
-78.03
-73.62
-70.64
-69.13
-68.93
-69.76
-71.06
-71.99
-71.76
-70.35
-68.89
-69.31
-73.21
-80.45
-88.59
-93.50
-91.24
-80.00
-61.13
-38.68
-17.65
-2.09
6.24
7.98
5.39
1.36
-1.48
-1.36
2.43
9.35
17.81
25.64
30.76
31.92
28.91
22.39
13.38
2.80
-8.68
-20.41
-31.70
-41.77
-50.24
-57.42
-64.38
-72.36
-81.83
-91.87
-100.38
-105.13
-105.07
-100.89
-94.53
-87.80
-81.21
-73.74
-63.87
-51.02
-36.44
-22.80
-12.70
-7.14
-4.94
-3.45
-0.17
5.83
13.63
21.25
27.05
30.76
33.44
36.70
41.59
47.83
54.01
58.34
59.74
58.40
55.75
53.69
53.67
56.03
59.96
64.07
67.09
68.46
68.31
67.03
64.73
60.97
55.15
47.14
37.96
29.81
25.30
26.35
33.00
43.30
53.96
61.70
64.38
61.73
55.03
46.39
37.89
31.00
26.32
23.64
22.18
20.89
18.81
15.40
10.66
5.09
-0.67
-6.10
-11.06
-15.67
-20.11
-24.41
-28.38
-31.76
-34.48
-36.66
-38.65
-40.69
-42.75
-44.52
-45.62
-45.77
-44.96
-43.17
-40.17
-35.31
-27.73
-16.85
-2.90
12.92
28.66
42.30
52.48
58.89
62.23
63.62
63.98
63.65
62.35
59.58
55.03
48.96
42.14
35.60
30.19
26.15
23.11
20.35
17.31
13.92
10.67
8.25
7.03
6.65
6.05
3.89
-0.90
-8.53
-18.17
-28.15
-36.41
-41.23
-41.71
-38.12
-31.74
-24.42
-17.82
-13.00
-10.28
-9.52
-10.51
-13.14
-17.27
-22.35
-27.16
-29.93
-28.82
-22.64
-11.31
3.89
20.59
35.79
46.55
50.72
47.60
38.10
24.63
10.22
-2.48
-12.01
-18.34
-22.50
-25.79
-29.14
-32.82
-36.69
-40.47
-43.96
-46.92
-48.76
-48.51
-45.23
-38.68
-29.79
-20.50
-12.72
-7.07
-2.21
4.65
16.09
32.73
52.37
70.60
82.71
85.80
79.92
67.80
53.42
40.31
30.48
24.17
20.56
18.55
17.30
16.40
15.65
14.81
13.51
11.37
8.28
4.50
0.68
-2.45
-4.40
-5.11
-4.81
-3.88
-2.61
-1.11
0.65
2.79
5.48
8.95
13.21
17.98
22.54
26.01
27.79
28.02
27.51
27.35
28.17
29.72
31.01
30.88
28.86
25.49
22.12
20.19
20.47
22.79
26.21
29.62
32.20
33.54
33.56
32.13
28.95
23.64
15.98
6.24
-4.71
-15.55
-24.91
-31.78
-35.77
-37.10
-36.36
-34.23
-31.29
-27.91
-24.34
-20.73
-17.13
-13.44
-9.52
-5.43
-1.71
0.62
0.49
-2.41
-7.04
-11.01
-11.41
-6.23
4.52
18.61
32.44
42.53
46.87
45.45
39.80
32.09
24.23
17.48
12.44
9.28
7.91
7.99
8.91
9.91
10.23
9.27
6.72
2.65
-2.45
-7.69
-11.89
-13.90
-12.99
-9.19
-3.20
3.81
10.72
16.80
21.65
25.00
26.41
25.36
21.67
15.90
9.47
4.26
1.84
2.93
7.26
13.82
21.40
28.89
35.48
40.62
43.98
45.54
45.58
44.48
42.43
39.22
34.37
27.60
19.35
10.95
4.22
0.59
0.34
2.33
4.49
4.70
1.61
-4.95
-14.04
-24.11
-33.65
-41.56
-47.18
-50.11
-49.90
-46.16
-38.97
-29.49
-20.25
-14.49
-14.83
-21.64
-32.34
-42.07
-45.75
-40.41
-26.66
-8.38
9.02
21.06
25.94
24.93
21.39
18.97
20.07
25.02
32.29
39.48
44.37
45.95
44.57
41.53
38.16
35.02
31.67
27.26
21.29
14.34
8.02
4.24
4.29
8.34
15.38
23.86
32.10
38.48
41.31
38.99
30.57
16.81
0.61
-13.43
-20.69
-18.57
-7.84
7.56
22.17
31.23
32.39
26.08
14.79
1.73
-10.18
-18.85
-23.18
-23.04
-19.27
-13.60
-8.23
-5.14
-5.33
-8.50
-13.22
-17.59
-20.16
-20.46
-19.00
-16.82
-14.81
-13.27
-11.92
-10.22
-7.82
-4.71
-1.13
2.49
5.41
6.25
3.03
-6.05
-21.28
-40.29
-57.97
-68.17
-66.25
-51.59
-28.23
-3.42
15.33
23.30
20.11
9.30
-3.73
-14.05
-18.92
-18.15
-13.53
-7.53
-2.27
1.19
2.91
3.60
4.01
4.48
4.88
5.03
5.03
5.54
7.49
11.58
17.81
25.38
33.14
40.17
46.09
50.91
54.29
55.06
51.49
42.37
28.41
12.81
0.45
-4.08
1.17
14.49
31.00
44.86
51.63
49.81
40.88
28.07
14.86
3.81
-3.79
-7.75
-8.60
-7.37
-5.30
-3.72
-3.69
-5.75
-9.80
-15.10
-20.49
-24.78
-27.11
-27.27
-25.73
-23.49
-21.61
-20.68
-20.58
-20.48
-19.29
-16.24
-11.41
-5.94
-1.70
-0.51
-3.29
-9.39
-16.76
-22.66
-24.91
-22.78
-17.18
-10.10
-3.58
1.12
3.82
5.04
5.47
5.53
5.35
5.01
4.73
4.82
5.48
6.62
7.89
8.90
9.40
9.37
8.88
8.04
6.98
5.98
5.50
6.18
8.55
12.74
18.31
24.24
29.16
31.69
30.82
26.19
18.35
8.80
-0.13
-5.90
-6.46
-1.09
9.23
22.00
33.92
41.94
44.16
40.32
31.72
20.67
9.67
0.69
-5.27
-8.28
-9.22
-9.27
-9.54
-10.75
-13.19
-16.87
-21.57
-26.96
-32.55
-37.71
-41.80
-44.42
-45.66
-46.03
-46.34
-47.21
-48.73
-50.39
-51.22
-50.22
-46.88
-41.51
-35.28
-29.93
-26.98
-26.99
-28.99
-30.61
-28.92
-21.68
-8.45
8.99
27.20
42.37
51.65
54.11
50.73
43.82
35.93
29.03
24.00
20.71
18.38
16.10
13.28
9.90
6.47
3.65
2.01
1.69
2.44
3.86
5.63
7.59
9.72
11.93
14.04
15.83
17.23
18.42
19.88
22.16
25.55
29.80
34.06
37.03
37.40
34.41
28.19
19.83
11.03
3.35
-2.41
-6.48
-9.89
-13.85
-19.06
-25.23
-31.15
-35.19
-35.97
-33.01
-27.07
-20.00
-14.32
-12.38
-15.51
-23.50
-34.61
-46.13
-55.39
-60.71
-61.89
-60.12
-57.30
-55.25
-54.96
-56.35
-58.40
-59.68
-58.88
-55.05
-47.73
-37.04
-23.85
-9.96
1.97
9.30
10.64
7.11
2.47
1.86
9.36
25.76
47.73
69.08
83.50
87.27
80.62
67.10
51.50
37.73
27.63
21.08
17.01
14.37
12.62
11.59
11.03
10.39
8.87
5.89
1.54
-3.27
-7.03
-8.28
-6.22
-1.18
5.60
12.42
17.88
21.43
23.44
24.95
27.08
30.59
35.49
41.01
45.77
48.19
47.10
42.28
34.69
26.29
19.23
14.94
13.48
13.65
13.68
12.29
9.35
5.87
3.19
2.18
2.70
3.84
4.58
4.35
3.20
1.38
-1.15
-4.91
-10.57
-18.43
-27.90
-37.55
-45.58
-50.60
-52.19
-50.98
-48.40
-45.97
-44.86
-45.45
-47.39
-49.75
-51.38
-51.29
-48.87
-44.03
-37.21
-29.43
-22.31
-17.77
-17.41
-21.65
-29.06
-36.42
-39.77
-36.10
-24.86
-8.45
8.68
21.96
28.45
27.95
22.57
15.51
9.60
6.37
5.94
7.50
9.96
12.53
14.82
16.90
18.95
21.07
23.08
24.55
25.10
24.70
23.90
23.65
24.90
28.11
32.96
38.53
43.67
47.44
49.16
48.19
43.71
34.97
22.03
6.54
-8.12
-17.78
-19.33
-12.25
0.92
15.52
26.84
31.90
30.31
23.83
15.14
6.69
0.08
-3.96
-5.28
-4.20
-1.53
1.45
3.24
2.62
-0.91
-6.85
-13.89
-20.41
-25.09
-27.33
-27.47
-26.51
-25.66
-25.70
-26.67
-27.85
-28.13
-26.55
-22.83
-17.68
-12.79
-10.46
-12.94
-21.47
-35.33
-51.42
-64.73
-69.83
-63.04
-44.22
-17.26
11.03
33.44
45.06
45.00
36.26
24.05
13.40
7.26
5.86
7.47
9.88
11.62
12.47
12.98
13.65
14.26
13.87
11.50
6.93
1.18
-3.84
-6.10
-4.45
0.94
8.69
16.97
24.03
28.59
29.71
26.74
19.59
9.21
-2.04
-10.72
-13.49
-8.52
3.40
18.99
33.63
43.09
45.00
39.35
28.04
13.95
0.03
-11.30
-18.48
-21.00
-19.44
-15.40
-10.98
-8.09
-7.74
-9.76
-12.99
-15.95
-17.50
-17.32
-15.89
-14.16
-13.13
-13.50
-15.41
-18.49
-21.86
-24.34
-24.78
-22.44
-17.49
-11.28
-6.30
-5.35
-10.30
-20.88
-34.26
-45.81
-50.89
-46.83
-34.18
-16.58
0.73
13.09
18.18
16.66
11.44
6.08
3.24
3.86
7.20
11.64
15.61
18.17
19.06
18.36
16.14
12.30
6.87
0.36
-6.03
-10.68
-12.09
-9.62
-3.67
4.49
13.32
21.54
28.23
32.62
33.84
31.03
23.81
12.93
0.32
-11.31
-19.55
-23.15
-22.41
-18.70
-13.69
-8.64
-4.20
-0.60
1.98
3.26
3.03
1.36
-1.25
-3.94
-5.85
-6.34
-5.26
-2.95
-0.17
2.15
3.25
2.82
1.16
-0.94
-2.60
-3.20
-2.55
-0.91
1.26
3.56
5.73
7.69
9.47
11.14
12.80
14.45
15.95
16.86
16.46
13.97
8.97
1.81
-6.16
-12.89
-16.34
-15.26
-9.72
-1.10
8.50
17.01
23.01
25.91
25.82
23.25
18.90
13.59
8.27
3.88
1.18
0.52
1.69
3.99
6.49
8.28
8.74
7.74
5.69
3.52
2.43
3.43
6.90
12.38
18.63
24.02
27.04
26.68
22.66
15.49
6.50
-2.31
-8.66
-10.69
-7.77
-1.02
6.78
12.13
12.24
6.26
-4.29
-16.11
-25.49
-29.75
-28.16
-21.98
-13.74
-6.29
-1.92
-1.84
-6.02
-13.44
-22.34
-30.77
-37.03
-40.08
-39.72
-36.59
-31.88
-26.96
-22.98
-20.56
-19.68
-19.71
-19.65
-18.48
-15.67
-11.51
-7.24
-4.62
-5.11
-8.92
-14.59
-19.38
-20.30
-15.54
-5.35
7.89
20.55
29.13
31.44
27.18
17.79
5.77
-6.08
-15.38
-20.56
-21.14
-17.65
-11.46
-4.31
2.14
6.84
9.45
10.34
10.21
9.77
9.54
9.78
10.59
12.00
13.99
16.42
18.99
21.30
23.02
24.12
24.93
25.89
27.20
28.41
28.49
26.30
21.24
13.81
5.49
-1.87
-6.91
-9.38
-10.11
-10.49
-11.65
-13.86
-16.48
-18.40
-18.63
-16.82
-13.51
-9.87
-7.34
-7.06
-9.50
-14.27
-20.28
-26.06
-30.30
-32.23
-31.75
-29.38
-25.89
-22.01
-18.18
-14.52
-10.97
-7.41
-3.84
-0.32
3.02
6.02
8.38
9.57
8.93
5.99
1.01
-4.71
-8.95
-9.40
-4.71
4.73
16.69
27.89
35.23
36.95
33.15
25.49
16.40
8.18
2.31
-0.71
-1.29
-0.29
1.30
2.69
3.42
3.31
2.42
0.96
-0.77
-2.34
-3.20
-2.81
-0.86
2.55
6.82
11.02
14.27
16.10
16.72
16.96
17.88
20.27
24.19
28.72
32.15
32.58
28.81
21.02
10.96
1.47
-4.60
-5.62
-1.97
4.17
9.66
11.80
9.42
3.14
-5.15
-13.25
-19.52
-23.26
-24.55
-23.90
-21.89
-19.11
-16.13
-13.61
-12.12
-12.06
-13.43
-15.86
-18.73
-21.37
-23.18
-23.78
-23.03
-21.08
-18.32
-15.33
-12.76
-11.38
-12.01
-15.44
-22.07
-31.31
-41.29
-49.03
-51.38
-46.37
-34.29
-17.84
-1.25
11.40
17.64
17.35
12.52
6.12
0.98
-1.06
0.56
5.32
11.99
19.12
25.48
30.33
33.45
34.98
35.13
34.01
31.74
28.56
25.04
21.94
19.93
19.37
20.08
21.55
23.09
24.04
23.71
21.47
16.92
10.31
2.80
-3.68
-7.08
-6.26
-1.62
4.97
10.96
14.26
14.07
10.99
6.51
2.21
-0.79
-2.06
-1.74
-0.36
1.32
2.41
2.15
0.20
-3.07
-6.66
-9.42
-10.51
-9.98
-8.66
-7.84
-8.56
-11.13
-14.88
-18.55
-20.79
-20.75
-18.41
-14.64
-11.11
-9.96
-13.35
-22.70
-37.68
-55.62
-71.80
-80.73
-78.32
-63.72
-39.99
-13.17
10.04
24.77
29.58
26.47
19.46
12.67
8.72
8.26
10.49
14.11
18.19
22.46
26.99
31.65
35.72
38.00
37.46
33.90
28.35
22.81
19.37
19.30
22.54
27.84
33.42
37.69
39.67
38.86
35.03
28.15
18.73
8.16
-1.22
-6.87
-7.12
-2.19
5.68
13.03
16.63
14.70
7.46
-3.26
-14.99
-25.54
-33.38
-37.76
-38.45
-35.74
-30.40
-23.72
-17.27
-12.51
-10.32
-10.67
-12.62
-14.64
-15.25
-13.63
-10.06
-5.82
-2.71
-2.28
-5.12
-10.65
-17.34
-23.31
-27.04
-27.83
-25.99
-22.86
-20.42
-20.82
-25.50
-34.37
-45.31
-54.60
-58.14
-53.21
-39.78
-20.74
-0.85
15.16
24.40
26.64
23.90
19.19
15.13
13.17
13.45
15.36
18.15
21.25
24.29
26.85
28.32
28.05
25.59
21.11
15.51
10.28
6.95
6.58
9.35
14.55
20.80
26.47
30.12
30.69
27.70
21.25
12.12
1.68
-8.23
-15.80
-19.73
-19.81
-17.05
-13.36
-10.96
-11.56
-15.85
-23.30
-32.35
-40.98
-47.28
-50.04
-49.02
-44.92
-38.93
-32.20
-25.39
-18.61
-11.66
-4.45
2.69
9.11
14.25
18.08
21.22
24.59
28.88
34.09
39.43
43.81
46.39
47.07
46.58
46.11
46.66
48.48
51.03
53.19
53.69
51.51
45.99
37.03
25.15
11.68
-1.28
-11.29
-16.35
-15.78
-10.69
-3.74
1.87
3.61
0.64
-5.96
-13.83
-20.39
-23.89
-23.97
-21.50
-18.01
-14.88
-12.81
-11.74
-11.13
-10.45
-9.54
-8.56
-7.78
-7.16
-6.35
-4.80
-2.22
1.10
4.40
6.81
7.79
7.46
6.51
5.75
5.75
6.58
8.05
9.93
12.18
14.78
17.40
19.12
18.65
14.84
7.53
-2.08
-11.62
-18.44
-20.72
-18.24
-12.48
-5.91
-0.97
0.83
-0.68
-4.57
-9.44
-14.13
-18.11
-21.53
-24.78
-28.04
-31.04
-33.07
-33.45
-31.93
-29.01
-25.73
-23.27
-22.52
-23.93
-27.65
-33.52
-40.90
-48.35
-53.47
-53.47
-46.25
-31.64
-11.94
8.57
25.13
34.22
34.78
28.33
18.07
7.59
-0.36
-4.42
-4.54
-1.62
3.05
8.23
13.02
16.93
19.79
21.65
22.59
22.77
22.40
21.80
21.38
21.54
22.61
24.69
27.71
31.40
35.42
39.50
43.46
47.17
50.26
51.95
51.03
46.43
37.89
26.51
14.62
4.94
-0.65
-1.95
-0.51
1.11
0.57
-3.22
-9.80
-17.37
-23.62
-26.56
-25.17
-19.81
-12.16
-4.82
-0.52
-1.16
-7.11
-17.05
-28.66
-39.60
-48.51
-55.23
-60.52
-65.17
-69.37
-72.62
-74.12
-73.41
-70.68
-66.66
-62.12
-57.51
-52.95
-48.61
-44.96
-42.55
-41.29
-39.77
-35.28
-24.87
-6.99
17.19
43.84
67.83
84.98
93.82
95.92
94.73
93.58
94.07
95.54
95.86
92.65
84.54
71.60
55.07
36.81
18.63
1.99
-12.07
-22.76
-29.59
-32.34
-31.24
-26.98
-20.67
-13.62
-7.01
-1.56
2.58
5.87
9.00
12.41
15.82
18.06
17.62
13.55
6.32
-1.85
-7.76
-8.68
-3.81
5.11
14.47
20.40
20.52
14.79
5.25
-5.16
-13.92
-19.61
-22.00
-21.57
-19.08
-15.43
-11.67
-9.02
-8.70
-11.47
-17.36
-25.49
-34.35
-42.25
-47.86
-50.57
-50.59
-48.81
-46.43
-44.51
-43.71
-44.13
-45.47
-47.14
-48.41
-48.39
-46.09
-40.59
-31.42
-19.04
-5.08
7.96
17.36
21.18
19.01
12.19
3.30
-4.73
-9.68
-10.57
-7.70
-2.30
4.17
10.49
16.00
20.55
24.27
27.37
29.98
32.14
33.90
35.35
36.63
37.79
38.74
39.23
38.96
37.76
35.61
32.57
28.52
23.16
16.06
7.09
-3.27
-13.79
-22.85
-29.11
-32.17
-32.71
-32.21
-32.15
-33.38
-35.63
-37.79
-38.33
-36.04
-30.42
-21.86
-11.54
-1.03
8.18
15.11
19.55
21.95
23.15
23.87
24.38
24.39
23.40
20.97
17.14
12.34
7.18
2.13
-2.59
-6.91
-10.74
-13.81
-15.97
-17.36
-18.56
-20.30
-22.92
-25.86
-27.69
-26.66
-21.69
-13.09
-2.63
7.17
14.19
17.57
17.92
16.76
15.64
15.36
15.75
16.09
15.73
14.60
13.22
12.21
11.81
11.50
10.26
7.22
2.26
-3.68
-8.93
-11.77
-11.09
-6.77
0.44
9.11
17.62
24.32
28.04
28.51
26.83
25.36
26.95
33.65
45.55
60.37
74.18
82.92
83.91
76.75
63.09
45.76
27.65
10.94
-3.12
-14.07
-21.90
-26.88
-29.48
-30.30
-30.07
-29.45
-29.00
-28.98
-29.19
-28.96
-27.48
-24.15
-19.14
-13.53
-8.98
-7.07
-8.50
-12.74
-18.13
-22.64
-24.76
-24.08
-21.55
-19.17
-19.34
-24.01
-33.81
-47.49
-61.90
-72.78
-76.21
-70.17
-55.53
-35.83
-15.97
-0.35
8.75
11.65
10.69
8.88
8.65
11.06
15.85
21.96
28.11
33.26
36.78
38.37
37.89
35.22
30.36
23.64
16.00
9.12
5.02
5.45
11.14
21.29
33.74
45.65
54.25
57.54
54.53
45.35
31.29
14.86
-0.46
-10.98
-14.08
-9.37
0.84
12.27
20.33
21.97
16.76
6.73
-4.74
-14.52
-20.70
-22.97
-22.23
-19.92
-17.46
-15.86
-15.59
-16.66
-18.82
-21.80
-25.53
-30.08
-35.39
-41.05
-46.18
-49.65
-50.54
-48.59
-44.28
-38.57
-32.56
-27.29
-23.77
-23.12
-26.25
-33.25
-42.68
-51.39
-55.37
-51.33
-38.28
-18.37
3.80
22.85
34.66
37.75
33.39
24.73
15.39
8.18
4.46
4.12
5.99
8.56
10.55
11.30
10.72
9.11
6.76
3.80
0.33
-3.44
-7.02
-9.77
-11.21
-11.47
-11.40
-12.26
-15.15
-20.42
-27.45
-34.99
-41.84
-47.56
-52.50
-57.39
-62.62
-67.78
-71.82
-73.72
-73.12
-70.60
-67.19
-63.58
-59.56
-54.05
-45.71
-33.80
-18.67
-1.67
15.51
31.44
45.42
57.41
67.66
76.35
83.47
88.88
92.59
94.84
96.08
96.68
96.72
95.92
93.75
89.82
84.10
77.04
69.37
61.88
55.19
49.70
45.55
42.62
40.43
38.18
35.04
30.66
25.59
21.31
19.69
22.08
28.45
37.10
45.18
49.84
49.30
43.53
34.05
23.14
12.84
4.20
-2.87
-9.20
-15.73
-22.76
-29.66
-35.03
-37.36
-35.76
-30.41
-22.55
-13.91
-6.03
0.18
4.49
7.02
7.92
7.14
4.68
0.82
-3.62
-7.49
-9.89
-10.75
-10.97
-12.00
-14.85
-19.43
-24.45
-28.16
-29.40
-28.33
-26.23
-24.60
-24.10
-24.00
-22.70
-18.73
-11.77
-2.86
6.27
14.20
20.59
26.14
31.91
38.49
45.54
51.89
56.12
57.21
54.98
49.99
43.28
35.79
28.20
20.70
13.24
5.68
-1.98
-9.48
-16.31
-21.80
-25.19
-25.84
-23.29
-17.42
-8.47
2.86
15.48
27.96
38.81
46.74
50.87
50.92
47.06
39.72
29.24
15.70
-1.09
-21.37
-45.15
-71.88
-100.28
-128.47
-154.43
-176.76
-195.20
-210.74
-225.06
-239.61
-254.95
-270.75
-286.44
-301.81
-316.91
-331.22
-342.64
-347.31
-340.78
-319.98
-285.15
-240.19
-191.16
-143.79
-101.33
-63.97
-29.85
2.92
34.78
64.57
90.41
111.07
127.05
140.53
154.72
173.04
198.45
232.94
276.90
328.21
381.62
429.21
462.26
474.21
463.25
433.19
391.99
348.63
309.90
278.79
255.00
236.78
222.81
212.70
206.43
203.27
201.36
198.23
192.02
182.35
170.32
158.08
147.54
139.61
134.08
129.97
126.03
121.07
113.97
103.69
89.59
71.34
49.21
24.09
-2.74
-30.00
-56.71
-82.32
-106.43
-128.29
-147.04
-161.89
-172.40
-178.65
-181.19
-180.74
-177.78
-174.46
-171.61
-169.38
-167.37
-164.92
-161.47
-156.85
-151.33
-145.41
-139.62
-133.89
-128.05
-121.82
-115.05
-107.79
-100.32
-93.03
-86.28
-80.33
-74.95
-69.82
-64.60
-59.10
-53.28
-47.29
-41.39
-35.88
-31.01
-26.69
-22.78
-19.00
-15.10
-10.91
-6.39
-1.70
2.87
6.90
10.20
12.81
15.01
17.28
20.14
23.88
28.40
33.19
37.39
40.34
41.70
41.65
40.76
39.63
38.56
37.18
34.46
29.01
19.72
6.41
-10.07
-28.00
-45.53
-61.20
-74.48
-84.95
-93.86
-102.40
-111.48
-121.78
-133.40
-145.24
-154.58
-157.33
-149.40
-128.85
-97.29
-60.14
-24.79
2.37
18.41
24.64
25.02
23.62
22.51
21.39
18.74
13.49
6.33
-0.60
-4.91
-5.42
-2.84
0.52
1.86
-0.61
-7.09
-15.93
-24.51
-30.30
-31.71
-28.17
-19.77
-7.07
8.65
24.74
37.52
42.98
38.61
25.15
6.89
-9.88
-19.39
-18.99
-10.20
2.78
15.58
25.66
32.86
38.34
42.83
45.98
46.75
44.41
39.36
33.17
27.73
24.62
24.20
25.60
27.30
27.82
26.40
23.27
19.47
16.28
14.63
14.74
16.07
17.66
18.64
18.55
17.58
16.31
15.46
15.46
16.39
17.89
19.49
20.81
21.78
22.58
23.56
24.94
26.70
28.64
30.44
31.95
33.25
34.69
36.68
39.42
42.72
45.91
48.21
48.94
47.81
45.09
41.35
37.18
32.77
27.69
20.91
11.38
-1.43
-17.24
-34.79
-52.28
-68.16
-81.45
-91.53
-99.52
-106.57
-113.64
-121.49
-130.69
-141.23
-152.00
-160.24
-162.40
-154.47
-134.81
-105.54
-72.29
-42.16
-20.80
-10.40
-9.29
-13.65
-19.73
-25.59
-31.22
-37.52
-44.80
-52.23
-58.34
-61.94
-62.79
-61.63
-59.49
-57.11
-54.24
-49.86
-42.36
-30.63
-14.55
4.94
26.03
46.66
65.15
80.53
91.91
100.02
105.63
109.25
111.02
110.84
108.58
104.31
98.44
92.15
85.91
80.22
75.28
71.08
67.34
63.80
60.24
56.56
52.89
49.44
46.38
43.75
41.52
39.58
37.89
36.35
34.89
33.48
32.04
30.43
28.44
25.89
22.64
18.64
14.31
9.48
4.28
-1.10
-6.48
-11.69
-16.62
-21.09
-24.93
-27.93
-29.98
-30.95
-30.94
-30.14
-28.89
-27.51
-26.17
-24.81
-23.20
-21.00
-18.00
-14.21
-9.94
-5.72
-2.08
0.78
3.07
5.45
8.67
13.20
19.03
25.54
31.69
36.45
39.38
40.88
42.19
44.92
50.15
58.24
68.49
79.60
89.93
98.48
105.22
111.15
118.11
128.04
142.95
163.91
189.96
217.25
239.53
249.91
243.37
219.06
180.64
136.10
95.07
65.63
51.85
53.04
64.49
79.21
93.31
101.91
102.08
93.42
77.78
58.26
38.21
20.32
6.34
-2.60
-6.44
-5.39
-0.29
7.26
15.15
21.53
25.36
26.74
26.82
26.69
27.37
29.20
31.66
33.63
33.85
31.44
26.15
18.47
9.07
-1.18
-11.56
-21.81
-32.19
-43.25
-55.66
-69.83
-85.76
-103.07
-121.03
-138.80
-155.76
-171.74
-187.00
-202.20
-218.15
-235.81
-256.10
-279.52
-305.69
-332.87
-357.97
-377.04
-386.36
-383.75
-369.19
-344.94
-314.59
-281.86
-249.66
-219.73
-192.88
-169.29
-148.87
-131.23
-115.71
-101.45
-87.74
-74.35
-61.56
-49.93
-39.87
-31.38
-24.01
-17.28
-10.96
-5.29
-0.80
1.99
2.83
1.92
-0.08
-1.87
-1.48
3.72
16.37
38.03
68.03
102.92
137.02
164.14
179.66
182.23
174.15
160.13
145.14
132.42
122.90
116.03
111.17
108.79
110.36
117.62
132.01
154.63
