1660332299.00
64.000000
-0.00
-0.00
-0.00
-0.00
-0.00
-0.00
-0.00
-0.00
-0.00
-0.00
0.00
0.01
0.01
-0.00
-0.03
-0.05
-0.05
0.00
0.13
0.36
0.66
1.01
1.37
1.72
2.06
2.40
2.79
3.24
3.80
4.42
5.06
5.67
6.20
6.67
7.14
7.67
8.32
9.18
10.15
11.09
11.86
12.40
12.78
13.18
13.85
14.98
16.81
19.14
21.66
24.05
26.10
27.90
29.79
32.25
35.64
40.34
45.96
51.90
57.49
62.34
66.51
70.57
75.34
81.44
89.41
98.65
108.15
116.83
124.00
129.72
134.84
140.98
147.11
155.54
166.67
180.18
194.45
206.30
211.47
205.73
186.29
152.76
107.67
54.55
-2.93
-62.27
-122.36
-182.84
-243.23
-302.42
-358.83
-410.71
-457.35
-498.69
-534.92
-566.00
-591.25
-609.25
-617.74
-613.87
-594.30
-556.51
-499.59
-425.25
-338.05
-244.54
-151.62
-64.86
12.45
79.28
135.76
182.25
218.85
245.59
262.96
272.30
275.61
274.97
271.88
266.86
259.68
249.83
237.13
222.05
205.69
189.34
174.09
160.46
148.43
137.55
127.27
117.17
107.07
97.01
87.22
77.88
69.12
60.87
52.95
45.17
37.42
29.79
22.57
16.11
10.73
6.63
3.72
1.70
0.22
-1.02
-2.28
-3.67
-5.19
-6.76
-8.21
-9.38
-10.13
-10.41
-10.26
-9.85
-9.37
-8.97
-8.76
-8.70
-8.74
-8.75
-8.57
-8.03
-6.98
-5.41
-3.43
-1.37
0.34
1.29
1.29
0.44
-0.93
-2.37
-3.54
-4.27
-4.59
-4.63
-4.52
-4.33
-4.06
-3.70
-3.23
-2.68
-2.11
-1.61
-1.23
-1.04
-1.02
-1.14
-1.35
-1.62
-1.92
-2.22
-2.46
-2.59
-2.60
-2.52
-2.42
-2.35
-2.24
-1.97
-1.37
-0.33
1.05
2.54
3.79
4.55
4.67
4.20
3.31
2.17
0.96
-0.18
-1.12
-1.76
-2.01
-1.83
-1.24
-0.38
0.61
1.59
2.46
3.18
3.75
4.16
4.39
4.42
4.21
3.77
3.15
2.38
1.50
0.53
-0.58
-1.80
-3.06
-4.22
-5.16
-5.77
-6.00
-5.87
-5.37
-4.54
-3.42
-2.14
-0.91
-0.01
0.33
0.00
-0.87
-2.04
-3.20
-4.13
-4.78
-5.15
-5.30
-5.19
-4.75
-3.94
-2.81
-1.57
-0.53
0.06
0.12
-0.26
-0.84
-1.36
-1.65
-1.65
-1.45
-1.19
-1.02
-1.00
-1.13
-1.36
-1.60
-1.77
-1.77
-1.54
-0.96
0.03
1.43
3.11
4.84
6.30
7.21
7.42
6.94
5.90
4.48
2.86
1.18
-0.44
-1.92
-3.14
-4.03
-4.45
-4.35
-3.76
-2.83
-1.78
-0.83
-0.19
0.04
-0.15
-0.65
-1.32
-2.01
-2.60
-3.04
-3.32
-3.48
-3.60
-3.79
-4.16
-4.75
-5.45
-6.01
-6.05
-5.27
-3.61
-1.26
1.31
3.58
5.19
6.03
6.27
6.19
6.03
5.97
6.07
6.38
6.94
7.70
8.49
9.03
9.06
8.46
7.38
6.14
5.07
4.31
3.78
3.20
2.34
1.10
-0.42
-2.04
-3.66
-5.25
-6.88
-8.62
-10.46
-12.31
-13.98
-15.24
-15.83
-15.52
-14.14
-11.68
-8.37
-4.61
-0.92
2.24
4.59
6.04
6.68
6.67
6.13
5.18
3.97
2.68
1.54
0.73
0.35
0.35
0.61
0.95
1.25
1.44
1.50
1.41
1.15
0.69
-0.00
-0.90
-1.97
-3.18
-4.51
-5.93
-7.40
-8.86
-10.23
-11.38
-12.16
-12.32
-11.62
-9.85
-6.99
-3.24
0.92
4.96
8.38
10.86
12.31
12.72
12.18
10.78
8.66
6.10
3.49
1.31
-0.03
-0.32
0.37
1.72
3.29
4.65
5.50
5.78
5.61
5.19
4.72
4.27
3.77
3.06
1.98
0.46
-1.52
-3.87
-6.47
-9.06
-11.30
-12.74
-12.96
-11.71
-9.06
-5.43
-1.45
2.24
5.13
6.98
7.74
7.53
6.54
5.01
3.21
1.45
0.04
-0.78
-0.91
-0.40
0.56
1.69
2.68
3.29
3.35
2.84
1.87
0.64
-0.66
-1.87
-2.97
-3.99
-4.99
-6.03
-7.14
-8.31
-9.45
-10.37
-10.78
-10.35
-8.80
-6.06
-2.32
1.95
6.16
9.74
12.30
13.65
13.79
12.87
11.12
8.83
6.34
3.97
2.01
0.66
-0.01
-0.05
0.40
1.12
1.88
2.49
2.90
3.14
3.30
3.49
3.70
3.83
3.69
3.12
2.04
0.52
-1.23
-3.01
-4.60
-5.86
-6.68
-6.95
-6.52
-5.25
-3.11
-0.21
3.09
6.34
9.08
11.02
12.08
12.36
12.04
11.25
10.07
8.51
6.66
4.68
2.83
1.38
0.50
0.19
0.31
0.63
0.92
0.99
0.74
0.15
-0.73
-1.80
-2.92
-3.95
-4.77
-5.34
-5.73
-6.12
-6.73
-7.72
-9.06
-10.51
-11.64
-11.96
-11.12
-9.02
-5.87
-2.13
1.64
4.95
7.46
8.98
9.45
8.91
7.49
5.35
2.81
0.23
-2.03
-3.68
-4.59
-4.82
-4.56
-4.10
-3.65
-3.33
-3.13
-2.96
-2.73
-2.43
-2.13
-1.96
-2.02
-2.38
-3.02
-3.89
-4.94
-6.16
-7.51
-8.89
-10.06
-10.67
-10.37
-8.86
-6.13
-2.41
1.78
5.81
9.10
11.29
12.31
12.34
11.67
10.58
9.24
7.71
6.04
4.31
2.75
1.57
0.94
0.87
1.19
1.62
1.91
1.88
1.48
0.76
-0.21
-1.32
-2.47
-3.59
-4.62
-5.56
-6.46
-7.43
-8.53
-9.81
-11.15
-12.29
-12.84
-12.40
-10.68
-7.65
-3.61
0.89
5.16
8.64
10.94
11.97
11.88
10.93
9.44
7.70
5.93
4.30
2.93
1.89
1.20
0.86
0.83
1.00
1.23
1.42
1.49
1.45
1.35
1.25
1.16
0.96
0.49
-0.38
-1.70
-3.36
-5.18
-6.97
-8.56
-9.87
-10.79
-11.19
-10.86
-9.62
-7.40
-4.32
-0.74
2.84
5.97
8.32
9.81
10.52
10.63
10.25
9.45
8.24
6.71
5.05
3.55
2.50
2.10
2.35
3.06
3.95
4.77
5.42
5.90
6.25
6.49
6.58
6.48
6.18
5.79
5.44
5.22
5.08
4.75
3.88
2.15
-0.50
-3.82
-7.22
-9.99
-11.48
-11.35
-9.62
-6.65
-3.02
0.67
3.93
6.42
7.96
8.47
7.97
6.55
4.39
1.78
-0.94
-3.40
-5.31
-6.52
-6.98
-6.78
-6.10
-5.13
-4.04
-2.95
-1.90
-0.88
0.13
1.15
2.14
3.04
3.75
4.18
4.28
4.04
3.51
2.80
2.02
1.37
1.13
1.61
3.11
5.78
9.53
13.99
18.59
22.76
26.10
28.43
29.78
30.30
30.06
29.11
27.46
25.20
22.53
19.78
17.28
15.26
13.84
12.98
12.53
12.25
11.80
10.81
8.92
5.85
1.51
-3.95
-10.19
-16.72
-23.03
-28.71
-33.58
-37.68
-41.22
-44.44
-47.40
-49.87
-51.39
-51.37
-49.41
-45.47
-39.93
-33.51
-27.03
-21.21
-16.54
-13.32
-11.61
-11.31
-12.17
-13.83
-15.86
-17.77
-19.20
-19.91
-19.85
-19.11
-17.87
-16.34
-14.73
-13.18
-11.73
-10.42
-9.27
-8.30
-7.54
-6.98
-6.58
-6.34
-6.25
-6.28
-6.45
-6.81
-7.38
-8.00
-8.37
-8.01
-6.58
-3.79
0.39
5.56
11.01
15.85
19.28
20.77
21.02
20.60
20.06
19.70
19.32
18.57
17.29
15.75
14.56
14.34
15.24
16.63
18.08
19.07
19.26
18.63
17.54
16.43
15.58
14.91
14.09
12.77
10.86
8.36
5.37
2.17
-0.98
-3.87
-6.47
-8.71
-10.39
-11.32
-11.31
-10.20
-7.74
-3.68
2.01
9.02
16.68
23.98
29.71
32.63
31.08
24.10
12.32
-2.08
-16.33
-28.43
-37.47
-43.50
-47.13
-49.01
-49.41
-48.16
-44.97
-39.55
-32.29
-24.10
-16.15
-9.67
-5.55
-4.07
-4.78
-6.50
-7.27
-5.09
1.66
13.71
30.43
49.76
68.73
84.17
91.84
90.84
82.16
68.10
51.48
34.82
19.92
7.68
-1.66
-8.29
-12.27
-13.96
-13.92
-12.84
-11.53
-10.70
-10.74
-11.56
-12.73
-13.53
-13.65
-13.17
-12.52
-12.14
-12.34
-13.09
-14.13
-15.06
-15.42
-15.06
-14.15
-12.98
-11.87
-10.85
-9.75
-8.22
-6.00
-2.96
0.62
4.18
7.04
8.74
9.11
8.31
6.75
4.83
2.90
1.16
-0.34
-1.56
-2.47
-3.01
-3.15
-2.96
-2.55
-2.12
-1.82
-1.71
-1.73
-1.73
-1.56
-1.13
-0.44
0.39
1.21
1.83
2.10
1.92
1.22
0.01
-1.62
-3.46
-5.12
-6.16
-6.19
-4.98
-2.57
0.73
4.37
7.71
10.26
11.82
12.49
12.55
12.24
11.66
10.72
9.29
7.33
4.95
2.43
0.07
-1.95
-3.63
-5.13
-6.68
-8.43
-10.35
-12.21
-13.69
-14.48
-14.50
-13.88
-12.99
-12.32
-12.29
-13.17
-14.94
-17.25
-19.50
-20.93
-20.82
-18.69
-14.48
-8.62
-1.88
4.82
10.70
15.29
18.50
20.54
21.74
22.40
22.59
22.21
20.95
18.52
14.82
10.03
4.71
-0.42
-4.69
-7.70
-9.42
-10.09
-10.00
-9.38
-8.33
-6.92
-5.33
-3.87
-2.98
-3.02
-4.19
-6.42
-9.41
-12.70
-15.72
-17.94
-18.90
-18.34
-16.28
-12.98
-8.85
-4.34
0.16
4.31
7.77
10.25
11.48
11.42
10.34
8.82
7.64
7.49
8.77
11.40
14.86
18.30
20.84
21.85
21.14
19.00
16.05
13.00
10.37
8.37
6.91
5.71
4.51
3.13
1.49
-0.43
-2.52
-4.56
-6.15
-6.85
-6.27
-4.31
-1.21
2.55
6.38
9.82
12.61
14.68
16.03
16.69
16.64
15.88
14.47
12.51
10.20
7.74
5.31
2.99
0.78
-1.43
-3.70
-6.03
-8.26
-10.12
-11.36
-11.90
-11.90
-11.68
-11.60
-11.94
-12.82
-14.18
-15.81
-17.42
-18.60
-18.98
-18.26
-16.35
-13.46
-10.05
-6.67
-3.84
-1.91
-1.00
-1.07
-1.93
-3.32
-4.97
-6.53
-7.68
-8.17
-7.82
-6.61
-4.68
-2.33
0.08
2.26
4.11
5.76
7.53
9.76
12.57
15.78
18.87
21.15
21.96
20.99
18.34
14.57
10.57
7.28
5.47
5.52
7.33
10.35
13.74
16.65
18.45
18.91
18.19
16.70
14.84
12.85
10.73
8.36
5.64
2.71
-0.14
-2.62
-4.58
-6.18
-7.79
-9.78
-12.24
-14.90
-17.20
-18.50
-18.43
-17.02
-14.72
-12.22
-10.21
-9.16
-9.26
-10.42
-12.33
-14.52
-16.38
-17.30
-16.78
-14.62
-10.99
-6.45
-1.81
2.16
4.92
6.29
6.43
5.65
4.27
2.51
0.50
-1.72
-4.06
-6.36
-8.36
-9.79
-10.48
-10.37
-9.64
-8.54
-7.39
-6.35
-5.39
-4.26
-2.62
-0.13
3.32
7.56
12.10
16.24
19.25
20.56
20.01
17.95
15.20
12.90
12.12
13.59
17.40
22.95
29.13
34.66
38.46
39.87
38.82
35.70
31.16
25.85
20.32
14.94
9.94
5.46
1.55
-1.82
-4.79
-7.58
-10.33
-13.10
-15.76
-18.04
-19.63
-20.28
-19.93
-18.67
-16.84
-14.91
-13.41
-12.84
-13.50
-15.47
-18.54
-22.27
-26.15
-29.63
-32.18
-33.36
-32.79
-30.31
-26.06
-20.54
-14.58
-9.05
-4.68
-1.77
-0.20
0.40
0.45
0.22
-0.19
-0.78
-1.52
-2.31
-2.96
-3.27
-3.10
-2.42
-1.24
0.43
2.59
5.26
8.38
11.86
15.57
19.38
23.25
27.16
31.04
34.62
37.40
38.70
37.85
34.48
28.76
21.50
14.04
7.89
4.32
3.98
6.74
11.77
17.76
23.37
27.48
29.44
29.09
26.73
22.88
18.19
13.24
8.51
4.29
0.62
-2.66
-5.89
-9.47
-13.65
-18.47
-23.63
-28.59
-32.74
-35.56
-36.84
-36.72
-35.63
-34.10
-32.60
-31.40
-30.50
-29.74
-28.88
-27.75
-26.34
-24.81
-23.47
-22.57
-22.24
-22.32
-22.47
-22.22
-21.14
-19.00
-15.82
-11.85
-7.54
-3.39
0.14
2.74
4.32
5.00
5.06
4.83
4.60
4.56
4.81
5.40
6.35
7.61
9.04
10.42
11.50
12.14
12.35
12.40
12.65
13.47
15.03
17.32
20.07
22.91
25.35
26.92
27.19
25.92
23.14
19.18
14.61
10.03
5.88
2.22
-1.14
-4.56
-8.20
-11.90
-15.09
-17.07
-17.27
-15.51
-12.12
-7.75
-3.12
1.21
5.00
8.24
10.93
12.95
14.01
13.76
12.07
9.09
5.30
1.35
-2.19
-4.93
-6.72
-7.61
-7.77
-7.44
-6.96
-6.68
-6.92
-7.86
-9.43
-11.38
-13.32
-14.86
-15.76
-15.90
-15.38
-14.43
-13.40
-12.66
-12.48
-12.92
-13.72
-14.30
-13.93
-11.91
-7.87
-1.90
5.42
13.15
20.31
26.10
30.10
32.36
33.28
33.46
33.51
33.86
34.61
35.57
36.31
36.35
35.35
33.23
30.14
26.39
22.30
18.09
13.90
9.79
5.79
1.93
-1.82
-5.56
-9.45
-13.63
-18.13
-22.79
-27.25
-31.10
-33.99
-35.84
-36.87
-37.58
-38.49
-39.89
-41.61
-43.00
-43.10
-41.08
-36.60
-29.96
-22.02
-13.89
-6.59
-0.80
3.08
4.95
4.91
3.27
0.62
-2.24
-4.50
-5.58
-5.36
-4.18
-2.58
-1.06
0.14
1.08
1.93
2.80
3.72
4.58
5.33
5.97
6.63
7.46
8.60
10.12
11.93
13.89
15.75
17.31
18.47
19.31
20.08
21.07
22.41
23.95
25.22
25.70
25.09
23.53
21.62
20.10
19.45
19.65
20.13
20.13
19.16
17.26
14.89
12.64
10.83
9.34
7.68
5.33
2.07
-1.77
-5.57
-8.75
-10.97
-12.26
-12.81
-12.83
-12.53
-12.14
-11.66
-11.05
-10.19
-8.82
-6.65
-3.33
1.31
7.05
13.28
19.39
24.55
27.75
28.02
24.86
18.69
11.31
5.18
0.56
-2.62
-4.90
-7.14
-8.93
-10.27
-11.16
-11.58
-11.75
-12.13
-13.03
-14.79
-17.64
-21.63
-26.73
-32.60
-38.63
-44.10
-48.39
-50.83
-50.96
-48.61
-43.78
-36.78
-28.08
-18.36
-8.56
0.31
7.66
13.33
17.68
21.37
25.07
29.24
33.99
39.01
43.65
47.23
49.12
48.90
46.41
41.72
35.19
27.33
18.77
10.12
2.02
-5.02
-10.64
-14.69
-17.26
-18.56
-18.90
-18.54
-17.70
-16.51
-15.06
-13.47
-11.81
-10.11
-8.34
-6.44
-4.32
-2.01
0.38
2.66
4.57
5.88
6.42
6.10
5.00
3.25
1.09
-1.25
-3.56
-5.65
-7.39
-8.67
-9.43
-9.73
-9.80
-10.04
-10.87
-12.56
-15.03
-17.81
-20.18
-21.44
-21.16
-19.36
-16.43
-12.98
-9.58
-6.64
-4.36
-2.77
-1.92
-1.88
-2.70
-4.35
-6.58
-8.95
-10.90
-12.03
-12.18
-11.54
-10.49
-9.42
-8.55
-7.84
-7.11
-6.21
-5.13
-4.04
-3.15
-2.61
-2.38
-2.30
-2.18
-1.99
-1.83
-1.96
-2.66
-4.14
-6.43
-9.36
-12.59
-15.58
-17.74
-18.48
-17.41
-14.44
-9.88
-4.38
1.28
6.37
10.39
13.13
14.65
15.13
14.82
13.99
12.87
11.68
10.57
9.56
8.58
7.45
5.98
4.08
1.79
-0.71
-3.13
-5.19
-6.67
-7.52
-7.84
-7.87
-7.88
-8.13
-8.74
-9.74
-11.06
-12.61
-14.34
-16.29
-18.57
-21.33
-24.65
-28.40
-32.19
-35.39
-37.30
-37.37
-35.37
-31.53
-26.41
-20.72
-15.06
-9.75
-4.82
-0.15
4.38
8.78
12.89
16.46
19.33
21.43
22.86
23.71
24.07
23.95
23.30
22.13
20.57
18.85
17.25
16.00
15.13
14.49
13.82
12.85
11.44
9.66
7.73
5.98
4.66
3.91
3.64
3.62
3.55
3.12
2.12
0.48
-1.72
-4.22
-6.63
-8.46
-9.19
-8.40
-5.91
-1.81
3.46
9.23
14.79
19.52
23.08
25.38
26.58
26.97
26.84
26.42
25.84
25.14
24.33
23.45
22.56
21.74
21.08
20.59
20.21
19.81
19.28
18.54
17.55
16.36
15.03
13.55
11.90
10.06
8.05
5.97
3.94
2.10
0.40
-1.30
-3.30
-5.78
-8.78
-12.01
-14.96
-17.07
-17.89
-17.21
-15.12
-11.90
-7.95
-3.66
0.64
4.65
8.14
10.94
12.94
14.15
14.66
14.64
14.29
13.76
13.18
12.57
11.94
11.27
10.52
9.68
8.77
7.84
6.98
6.27
5.72
5.26
4.73
3.95
2.80
1.27
-0.50
-2.29
-3.90
-5.26
-6.42
-7.55
-8.86
-10.50
-12.55
-14.91
-17.40
-19.69
-21.40
-22.10
-21.46
-19.31
-15.74
-11.10
-5.94
-0.85
3.67
7.32
10.02
11.85
12.97
13.52
13.63
13.38
12.89
12.29
11.69
11.19
10.73
10.22
9.50
8.48
7.22
5.90
4.76
3.96
3.53
3.29
2.96
2.30
1.17
-0.38
-2.15
-3.89
-5.41
-6.62
-7.60
-8.52
-9.59
-11.01
-12.88
-15.18
-17.77
-20.37
-22.61
-24.05
-24.29
-23.04
-20.20
-15.99
-10.92
-5.64
-0.85
2.97
5.59
7.09
7.71
7.77
7.54
7.16
6.70
6.19
5.66
5.14
4.68
4.26
3.86
3.44
3.01
2.65
2.42
2.40
2.54
2.72
2.76
2.52
1.94
1.10
0.11
-0.90
-1.87
-2.84
-3.87
-5.12
-6.73
-8.77
-11.18
-13.67
-15.77
-16.92
-16.65
-14.77
-11.40
-7.02
-2.24
2.37
6.37
9.58
11.96
13.57
14.46
14.70
14.37
13.58
12.54
11.44
10.48
9.72
9.14
8.59
7.95
7.18
6.34
5.55
4.88
4.30
3.72
2.98
2.00
0.79
-0.56
-1.94
-3.30
-4.63
-5.93
-7.24
-8.57
-9.98
-11.58
-13.53
-15.92
-18.62
-21.25
-23.22
-23.94
-23.01
-20.40
-16.46
-11.76
-6.91
-2.33
1.72
5.18
8.02
10.23
11.72
12.46
12.49
11.98
11.20
10.43
9.87
9.54
9.35
9.12
8.72
8.10
7.36
6.62
6.03
5.64
5.37
5.04
4.47
3.55
2.27
0.77
-0.74
-2.08
-3.14
-3.96
-4.67
-5.48
-6.57
-8.10
-10.11
-12.55
-15.24
-17.79
-19.74
-20.56
-19.88
-17.60
-13.94
-9.41
-4.66
-0.26
3.36
6.03
7.76
8.68
8.97
8.81
8.36
7.76
7.13
6.58
6.21
6.06
6.06
6.08
5.91
5.41
4.58
3.57
2.65
2.06
1.89
2.01
2.15
2.04
1.49
0.49
-0.86
-2.38
-3.90
-5.28
-6.49
-7.54
-8.55
-9.68
-11.13
-13.03
-15.34
-17.86
-20.15
-21.68
-21.95
-20.62
-17.70
-13.50
-8.55
-3.47
1.21
5.17
8.26
10.46
11.82
12.37
12.21
11.53
10.59
9.68
9.05
8.78
8.82
8.98
9.06
8.94
8.62
8.20
7.86
7.67
7.61
7.52
7.16
6.33
5.00
3.30
1.50
-0.15
-1.48
-2.49
-3.31
-4.16
-5.26
-6.81
-8.93
-11.58
-14.50
-17.26
-19.22
-19.79
-18.56
-15.51
-11.00
-5.73
-0.48
4.13
7.79
10.46
12.30
13.52
14.20
14.38
14.06
13.31
12.29
11.23
10.33
9.65
9.16
8.71
8.22
7.64
7.05
6.53
6.12
5.80
5.44
4.88
4.01
2.81
1.37
-0.20
-1.73
-3.15
-4.46
-5.71
-6.96
-8.28
-9.73
-11.35
-13.22
-15.39
-17.85
-20.42
-22.75
-24.30
-24.54
-23.09
-19.89
-15.24
-9.72
-4.02
1.26
5.74
9.26
11.87
13.68
14.82
15.37
15.42
15.05
14.39
13.63
12.95
12.50
12.29
12.22
12.13
11.91
11.49
10.94
10.34
9.76
9.19
8.58
7.85
6.92
5.76
4.36
2.74
0.95
-0.90
-2.66
-4.22
-5.51
-6.58
-7.55
-8.60
-9.85
-11.40
-13.34
-15.68
-18.38
-21.20
-23.66
-25.13
-24.97
-22.81
-18.73
-13.30
-7.39
-1.86
2.74
6.23
8.77
10.62
11.98
12.90
13.29
13.10
12.40
11.45
10.56
9.94
9.62
9.42
9.12
8.55
7.76
6.91
6.24
5.86
5.72
5.63
5.35
4.72
3.73
2.46
1.07
-0.32
-1.64
-2.90
-4.11
-5.27
-6.39
-7.52
-8.72
-10.14
-11.87
-13.95
-16.25
-18.40
-19.91
-20.26
-19.10
-16.39
-12.39
-7.59
-2.56
2.23
6.48
10.03
12.79
14.69
15.64
15.61
14.74
13.29
11.65
10.19
9.15
8.57
8.33
8.23
8.10
7.83
7.45
7.01
6.58
6.18
5.76
5.22
4.50
3.53
2.34
0.95
-0.57
-2.16
-3.76
-5.32
-6.79
-8.19
-9.56
-11.02
-12.76
-14.90
-17.46
-20.25
-22.90
-24.86
-25.60
-24.70
-22.03
-17.79
-12.47
-6.74
-1.27
3.41
7.01
9.48
10.95
11.71
12.04
12.19
12.29
12.36
12.38
12.28
12.03
11.66
11.25
10.91
10.68
10.56
10.46
10.28
9.94
9.38
8.60
7.67
6.66
5.63
4.63
3.61
2.52
1.30
-0.08
-1.57
-3.12
-4.65
-6.13
-7.55
-8.94
-10.33
-11.79
-13.42
-15.32
-17.51
-19.81
-21.84
-23.06
-22.90
-21.04
-17.51
-12.71
-7.31
-2.02
2.61
6.30
9.07
11.07
12.52
13.53
14.14
14.36
14.24
13.91
13.54
13.25
13.08
12.94
12.70
12.27
11.69
11.11
10.65
10.37
10.17
9.90
9.39
8.60
7.58
6.46
5.34
4.23
3.07
1.74
0.17
-1.60
-3.46
-5.26
-6.89
-8.32
-9.63
-11.02
-12.65
-14.63
-16.98
-19.56
-22.11
-24.28
-25.67
-25.90
-24.70
-21.97
-17.88
-12.82
-7.39
-2.17
2.33
5.83
8.25
9.71
10.40
10.51
10.23
9.68
8.97
8.24
7.61
7.19
7.04
7.12
7.33
7.53
7.64
7.60
7.43
7.16
6.78
6.29
5.65
4.81
3.78
2.58
1.27
-0.10
-1.46
-2.78
-4.05
-5.32
-6.67
-8.22
-10.05
-12.19
-14.56
-16.96
-19.08
-20.53
-20.93
-19.98
-17.56
-13.80
-9.09
-3.93
1.11
5.59
9.22
11.89
13.59
14.41
14.48
14.00
13.20
12.32
11.55
10.96
10.53
10.19
9.87
9.55
9.20
8.83
8.41
7.90
7.28
6.53
5.65
4.67
3.59
2.41
1.12
-0.32
-1.90
-3.55
-5.16
-6.59
-7.72
-8.56
-9.27
-10.10
-11.35
-13.18
-15.57
-18.29
-20.96
-23.14
-24.43
-24.47
-23.04
-20.08
-15.79
-10.58
-5.02
0.30
4.91
8.59
11.29
13.14
14.30
14.93
15.18
15.14
14.93
14.67
14.44
14.29
14.23
14.20
14.11
13.87
13.44
12.81
12.08
11.35
10.68
10.04
9.33
8.47
7.42
6.24
5.00
3.72
2.37
0.88
-0.76
-2.48
-4.15
-5.68
-7.03
-8.26
-9.51
-10.88
-12.51
-14.46
-16.79
-19.43
-22.10
-24.35
-25.55
-25.16
-22.91
-18.95
-13.80
-8.18
-2.76
2.01
5.95
9.02
11.27
12.71
13.34
13.18
12.41
11.30
10.18
9.31
8.81
8.65
8.71
8.84
8.92
8.88
8.68
8.31
7.77
7.11
6.40
5.69
4.99
4.25
3.40
2.37
1.14
-0.25
-1.75
-3.28
-4.76
-6.13
-7.35
-8.46
-9.52
-10.66
-12.01
-13.63
-15.45
-17.26
-18.71
-19.41
-18.99
-17.23
-14.14
-9.95
-5.07
-0.04
4.63
8.55
11.47
13.31
14.14
14.15
13.58
12.72
11.82
11.05
10.47
10.04
9.69
9.34
8.93
8.45
7.94
7.40
6.87
6.35
5.84
5.32
4.71
3.93
2.88
1.51
-0.16
-2.01
-3.87
-5.61
-7.13
-8.46
-9.73
-11.12
-12.83
-14.98
-17.58
-20.38
-22.92
-24.57
-24.73
-23.01
-19.42
-14.39
-8.65
-2.95
2.12
6.27
9.46
11.78
13.34
14.22
14.48
14.24
13.70
13.06
12.49
12.06
11.71
11.33
10.82
10.18
9.48
8.83
8.33
7.98
7.73
7.43
6.97
6.28
5.38
4.35
3.23
2.05
0.76
-0.70
-2.33
-4.10
-5.88
-7.54
-8.98
-10.24
-11.45
-12.83
-14.65
-17.01
-19.76
-22.45
-24.40
-24.94
-23.59
-20.31
-15.46
-9.72
-3.82
1.59
6.15
9.71
12.30
14.04
15.09
15.63
15.80
15.77
15.64
15.48
15.30
15.09
14.80
14.41
13.88
13.23
12.54
11.88
11.32
10.88
10.44
9.86
8.99
7.79
6.34
4.80
3.30
1.92
0.62
-0.73
-2.19
-3.77
-5.35
-6.80
-8.04
-9.08
-10.02
-11.02
-12.25
-13.89
-16.06
-18.78
-21.86
-24.88
-27.20
-28.14
-27.16
-24.10
-19.19
-13.08
-6.60
-0.55
4.50
8.29
10.84
12.37
13.16
13.40
13.19
12.55
11.53
10.25
8.99
8.00
7.47
7.39
7.55
7.68
7.57
7.19
6.70
6.32
6.15
6.16
6.13
5.81
5.09
3.98
2.62
1.20
-0.18
-1.46
-2.65
-3.76
-4.81
-5.87
-7.02
-8.43
-10.27
-12.61
-15.39
-18.31
-20.86
-22.44
-22.49
-20.69
-17.08
-12.10
-6.42
-0.78
4.25
8.37
11.54
13.79
15.21
15.82
15.64
14.79
13.53
12.19
11.10
10.46
10.26
10.34
10.49
10.53
10.38
10.08
9.67
9.22
8.73
8.14
7.40
6.42
5.18
3.68
1.98
0.18
-1.58
-3.22
-4.72
-6.14
-7.60
-9.20
-11.02
-13.10
-15.44
-18.07
-20.94
-23.92
-26.70
-28.78
-29.60
-28.69
-25.87
-21.32
-15.60
-9.42
-3.52
1.57
5.61
8.62
10.78
12.33
13.44
14.21
14.65
14.73
14.45
13.87
13.12
12.38
11.80
11.46
11.33
11.28
11.17
10.88
10.38
9.71
8.92
8.06
7.17
6.25
5.31
4.37
3.40
2.37
1.23
-0.05
-1.43
-2.85
-4.23
-5.53
-6.80
-8.16
-9.76
-11.71
-14.05
-16.73
-19.54
-22.10
-23.87
-24.26
-22.83
-19.42
-14.34
-8.25
-2.00
3.65
8.22
11.60
13.92
15.42
16.30
16.63
16.44
15.76
14.77
13.68
12.74
12.07
11.66
11.35
11.01
10.56
10.05
9.59
9.24
8.94
8.54
7.90
6.93
5.72
4.45
3.28
2.32
1.49
0.63
-0.45
-1.85
-3.55
-5.39
-7.15
-8.66
-9.86
-10.85
-11.87
-13.20
-15.06
-17.47
-20.19
-22.75
-24.55
-25.02
-23.75
-20.66
-16.01
-10.35
-4.37
1.22
5.92
9.45
11.79
13.08
13.53
13.31
12.54
11.34
9.88
8.41
7.21
6.51
6.34
6.57
6.92
7.14
7.06
6.69
6.12
5.49
4.86
4.27
3.65
2.97
2.16
1.21
0.14
-1.02
-2.21
-3.39
-4.52
-5.60
-6.67
-7.81
-9.15
-10.77
-12.70
-14.87
-17.06
-18.88
-19.90
-19.70
-18.02
-14.87
-10.49
-5.38
-0.14
4.63
8.53
11.35
13.12
14.04
14.30
14.09
13.51
12.66
11.66
10.65
9.77
9.10
8.65
8.31
7.96
7.52
6.97
6.34
5.73
5.19
4.75
4.35
3.88
3.14
1.98
0.35
-1.62
-3.69
-5.53
-6.93
-7.84
-8.43
-9.00
-9.83
-11.13
-12.91
-15.08
-17.39
-19.52
-21.06
-21.57
-20.65
-18.11
-14.03
-8.78
-2.97
2.71
7.68
11.56
14.22
15.74
16.32
16.25
15.82
15.28
14.77
14.34
13.94
13.46
12.79
11.91
10.91
9.92
9.05
8.38
7.88
7.47
7.06
6.58
6.02
5.36
4.57
3.60
2.44
1.09
-0.39
-1.91
-3.42
-4.89
-6.34
-7.77
-9.19
-10.58
-11.99
-13.55
-15.45
-17.84
-20.68
-23.60
-25.97
-27.01
-26.12
-23.10
-18.27
-12.33
-6.14
-0.39
4.51
8.44
11.44
13.59
14.88
15.32
15.00
14.16
13.10
12.13
11.39
10.84
10.35
9.73
8.96
8.10
7.31
6.70
6.32
6.11
5.99
5.86
5.61
5.13
4.30
3.04
1.36
-0.60
-2.57
-4.29
-5.58
-6.47
-7.13
-7.87
-8.95
-10.56
-12.70
-15.26
-18.02
-20.62
-22.65
-23.63
-23.20
-21.14
-17.50
-12.65
-7.13
-1.59
3.44
7.58
10.65
12.64
13.60
13.62
12.87
11.58
10.08
8.70
7.69
7.18
7.10
7.26
7.44
7.49
7.35
7.11
6.84
6.58
6.31
5.92
5.28
4.33
3.04
1.45
-0.31
-2.13
-3.86
-5.45
-6.89
-8.27
-9.77
-11.54
-13.70
-16.20
-18.83
-21.17
-22.76
-23.13
-21.98
-19.26
-15.13
-10.00
-4.38
1.20
6.26
10.43
13.53
15.51
16.50
16.70
16.38
15.72
14.84
13.85
12.84
11.96
11.32
10.97
10.84
10.74
10.50
10.01
9.31
8.52
7.77
7.12
6.55
5.94
5.16
4.10
2.75
1.12
-0.72
-2.64
-4.53
-6.30
-7.90
-9.33
-10.67
-12.04
-13.59
-15.50
-17.83
-20.48
-23.11
-25.14
-25.91
-24.90
-21.88
-17.05
-11.00
-4.53
1.58
6.75
10.70
13.44
15.15
16.09
16.50
16.55
16.36
15.99
15.52
14.99
14.45
13.92
13.40
12.87
12.34
11.81
11.31
10.79
10.20
9.43
8.41
7.16
5.76
4.41
3.24
2.28
1.44
0.51
-0.68
-2.23
-4.05
-5.96
-7.75
-9.24
-10.40
-11.30
-12.17
-13.29
-14.90
-17.11
-19.80
-22.53
-24.66
-25.50
-24.53
-21.59
-16.92
-11.09
-4.83
1.19
6.46
10.68
13.74
15.68
16.58
16.61
15.94
14.81
13.45
12.08
10.87
9.92
9.27
8.89
8.72
8.66
8.62
8.50
8.23
7.81
7.26
6.60
5.84
4.97
3.93
2.67
1.22
-0.36
-1.95
-3.42
-4.69
-5.75
-6.69
-7.64
-8.78
-10.27
-12.23
-14.67
-17.44
-20.21
-22.49
-23.74
-23.53
-21.62
-18.08
-13.24
-7.66
-1.92
3.41
7.92
11.40
13.78
15.11
15.50
15.06
13.94
12.35
10.55
8.86
7.58
6.88
6.76
7.09
7.59
8.00
8.13
7.89
7.33
6.55
5.70
4.87
4.08
3.22
2.15
0.77
-0.92
-2.77
-4.57
-6.17
-7.50
-8.65
-9.77
-11.02
-12.50
-14.31
-16.46
-18.89
-21.38
-23.54
-24.79
-24.59
-22.56
-18.67
-13.32
-7.19
-1.07
4.36
8.71
11.87
13.94
15.11
15.58
15.50
15.02
14.32
13.58
12.94
12.46
12.11
11.78
11.35
10.77
10.03
9.25
8.55
8.00
7.60
7.25
6.83
6.22
5.32
4.05
2.41
0.48
-1.67
-4.00
-6.49
-9.08
-11.74
-14.37
-16.93
-19.29
-21.43
-23.52
-25.91
-28.92
-32.45
-35.79
-37.69
-36.76
-31.89
-22.96
-11.29
0.67
10.25
15.73
16.91
15.15
12.58
11.48
13.20
17.52
22.82
27.02
28.75
27.86
25.41
22.89
22.10
24.26
29.34
36.19
43.17
48.84
51.97
51.37
43.55
26.48
2.35
-22.11
-39.44
-45.65
-41.66
-32.57
-25.18
-25.25
-34.38
-49.51
-64.84
-74.97
-77.20
-72.12
-63.80
-54.20
-43.92
-31.77
-15.85
4.62
28.27
51.08
68.88
79.19
81.89
78.37
70.73
60.73
49.31
36.86
23.88
11.51
1.42
-5.53
-8.99
-9.23
-7.13
-3.92
-0.87
1.01
1.27
0.04
-2.19
-4.73
-7.00
-8.63
-9.58
-10.17
-10.96
-12.50
-15.12
-18.93
-23.56
-28.40
-32.75
-35.98
-37.76
-38.13
-37.44
-36.26
-35.13
-34.42
-34.19
-34.18
-33.86
-32.55
-29.65
-24.82
-18.06
-9.82
-0.79
8.16
16.22
22.81
27.65
30.79
32.50
33.18
33.15
32.68
31.90
30.87
29.67
28.41
27.21
26.15
25.19
24.14
22.79
21.02
18.98
17.08
15.89
15.93
17.44
20.27
23.78
27.07
29.19
29.41
27.37
23.08
16.84
9.12
0.41
-8.70
-17.30
-24.13
-27.82
-27.24
-21.96
-12.28
0.83
15.92
31.22
44.81
54.75
59.25
57.13
48.37
34.64
19.05
5.17
-4.29
-8.33
-8.03
-6.00
-5.41
-9.21
-18.73
-32.42
-46.31
-56.38
-60.58
-59.17
-53.82
-46.44
-38.54
-30.92
-23.89
-17.82
-13.48
-11.88
-13.54
-18.19
-24.54
-30.82
-35.35
-36.96
-35.28
-30.59
-22.38
-11.39
1.28
14.38
26.28
35.25
40.09
40.46
36.96
30.82
23.88
16.70
9.80
3.66
-1.23
-4.29
-5.23
-4.24
-2.13
-0.11
0.80
0.27
-1.48
-3.81
-5.78
-6.74
-6.50
-5.42
-4.26
-3.67
-3.84
-4.72
-6.04
-7.13
-7.38
-6.48
-4.62
-2.30
-0.07
1.86
3.47
5.04
7.55
12.09
19.32
29.23
41.16
54.13
67.18
79.25
86.94
87.48
80.10
66.78
50.81
35.12
21.51
10.75
2.80
-3.38
-8.23
-12.00
-15.03
-17.91
-21.30
-25.73
-30.49
-35.11
-39.24
-42.30
-43.94
-44.12
-43.10
-41.24
-38.86
-36.17
-33.53
-31.26
-29.47
-28.16
-27.39
-27.22
-27.57
-28.11
-28.19
-27.17
-24.54
-20.04
-13.88
-6.77
0.38
6.77
11.95
15.87
18.62
20.36
21.25
21.41
20.96
20.04
18.83
17.49
16.09
14.58
12.88
10.98
8.99
7.09
5.51
4.37
3.66
3.21
2.73
1.93
0.62
-1.22
-3.43
-5.79
-8.12
-10.40
-12.77
-15.49
-18.80
-22.83
-27.43
-32.13
-36.18
-38.62
-38.57
-35.41
-29.12
-20.26
-9.94
0.51
9.82
17.09
21.89
24.28
24.63
23.51
21.55
19.30
17.18
15.41
14.03
12.95
11.97
10.89
9.57
7.96
6.21
4.56
3.31
2.67
2.59
2.75
2.73
2.12
0.79
-1.10
-3.23
-5.27
-7.06
-8.68
-10.41
-12.56
-15.38
-18.92
-22.92
-26.78
-29.61
-30.45
-28.55
-23.69
-16.33
-7.46
1.68
9.95
16.65
21.55
24.76
26.57
27.23
26.94
25.82
24.02
21.71
19.12
16.48
13.95
11.65
9.67
8.05
6.82
5.93
5.22
4.50
3.51
2.07
0.15
-2.13
-4.53
-6.81
-8.83
-10.61
-12.36
-14.37
-16.95
-20.31
-24.38
-28.76
-32.65
-35.00
-34.78
-31.38
-24.82
-15.87
-5.77
4.15
12.81
19.63
24.47
27.46
28.85
28.88
27.81
25.96
23.71
21.41
19.28
17.35
15.46
13.46
11.24
8.90
6.67
4.80
3.44
2.52
1.77
0.86
-0.46
-2.23
-4.33
-6.54
-8.66
-10.63
-12.53
-14.56
-16.98
-20.01
-23.82
-28.32
-33.06
-37.18
-39.55
-39.06
-35.10
-27.79
-18.02
-7.14
3.46
12.74
20.14
25.51
28.94
30.60
30.72
29.64
27.79
25.68
23.72
22.08
20.65
19.17
17.39
15.23
12.81
10.39
8.25
6.56
5.33
4.36
3.42
2.23
0.64
-1.37
-3.66
-6.04
-8.31
-10.33
-12.13
-13.89
-15.90
-18.50
-21.94
-26.20
-30.89
-35.17
-37.94
-38.08
-34.85
-28.21
-18.89
-8.13
2.62
12.15
19.74
25.13
28.43
29.90
29.88
28.70
26.73
24.37
21.97
19.74
17.75
15.94
14.14
12.29
10.40
8.61
7.07
5.89
5.01
4.22
3.24
1.87
0.06
-2.08
-4.31
-6.44
-8.36
-10.12
-11.90
-13.96
-16.53
-19.77
-23.64
-27.80
-31.57
-33.96
-33.96
-30.89
-24.66
-15.94
-5.98
3.82
12.27
18.69
22.97
25.33
26.15
25.75
24.37
22.27
19.72
17.03
14.45
12.12
10.04
8.13
6.37
4.79
3.48
2.54
1.94
1.54
1.10
0.35
-0.88
-2.60
-4.68
-6.90
-9.01
-10.91
-12.63
-14.46
-16.80
-19.99
-24.13
-28.84
-33.25
-36.18
-36.48
-33.50
-27.26
-18.53
-8.55
1.38
10.23
17.39
22.68
26.15
27.94
28.26
27.34
25.50
23.13
20.58
18.15
15.94
13.94
12.05
10.20
8.39
6.70
5.22
4.04
3.11
2.31
1.39
0.13
-1.59
-3.76
-6.20
-8.62
-10.79
-12.62
-14.23
-15.90
-18.03
-20.92
-24.71
-29.17
-33.68
-37.28
-38.87
-37.57
-32.98
-25.41
-15.80
-5.46
4.29
12.53
18.81
23.17
25.85
27.17
27.37
26.64
25.20
23.36
21.45
19.70
18.22
16.90
15.55
13.99
12.21
10.36
8.68
7.38
6.48
5.84
5.15
4.12
2.60
0.63
-1.59
-3.78
-5.73
-7.41
-8.93
-10.56
-12.63
-15.41
-19.00
-23.29
-27.83
-31.88
-34.49
-34.74
-32.06
-26.48
-18.65
-9.68
-0.78
7.07
13.36
17.98
21.08
22.90
23.57
23.18
21.89
19.93
17.65
15.44
13.56
12.10
10.97
10.00
9.05
8.13
7.32
6.74
6.41
6.18
5.81
5.03
3.74
1.97
-0.08
-2.20
-4.22
-6.11
-7.94
-9.90
-12.24
-15.15
-18.66
-22.52
-26.10
-28.50
-28.83
-26.52
-21.54
-14.44
-6.20
2.11
9.61
15.74
20.26
23.17
24.57
24.64
23.60
21.74
19.41
16.96
14.67
12.70
11.10
9.78
8.61
7.51
6.49
5.61
4.95
4.50
4.14
3.63
2.72
1.23
-0.83
-3.29
-5.86
-8.27
-10.35
-12.14
-13.88
-15.98
-18.83
-22.60
-26.99
-31.24
-34.23
-34.83
-32.33
-26.74
-18.78
-9.63
-0.58
7.38
13.72
18.35
21.43
23.19
23.87
23.66
22.77
21.46
19.97
18.51
17.13
15.76
14.30
12.67
10.91
9.22
7.84
6.96
6.60
6.60
6.60
6.21
5.15
3.33
0.89
-1.86
-4.54
-6.88
-8.75
-10.25
-11.65
-13.37
-15.79
-19.11
-23.18
-27.50
-31.17
-33.16
-32.58
-29.01
-22.67
-14.38
-5.32
3.32
10.69
16.37
20.37
22.93
24.35
24.83
24.56
23.69
22.42
20.98
19.57
18.26
17.00
15.66
14.11
12.38
10.60
9.05
7.95
7.41
7.27
7.18
6.72
5.55
3.60
1.08
-1.63
-4.09
-6.07
-7.58
-8.85
-10.26
-12.15
-14.75
-18.08
-21.96
-25.91
-29.25
-31.17
-30.96
-28.23
-23.07
-16.10
-8.26
-0.52
6.34
11.93
16.12
18.99
20.64
21.18
20.75
19.56
17.89
16.04
14.26
12.68
11.31
10.09
8.95
7.90
6.97
6.22
5.66
5.24
4.83
4.26
3.41
2.17
0.56
-1.32
-3.31
-5.20
-6.88
-8.35
-9.75
-11.37
-13.52
-16.39
-19.92
-23.68
-26.91
-28.72
-28.34
-25.41
-20.10
-13.09
-5.35
2.15
8.68
13.87
17.62
20.02
21.16
21.16
20.20
18.57
16.65
14.85
13.42
12.40
11.62
10.87
9.98
8.95
7.90
7.02
6.38
5.94
5.50
4.81
3.67
1.99
-0.19
-2.72
-5.40
-8.01
-10.37
-12.42
-14.24
-16.06
-18.23
-21.06
-24.66
-28.79
-32.83
-35.88
-36.99
-35.53
-31.33
-24.83
-16.89
-8.53
-0.66
6.11
11.54
15.62
18.49
20.29
21.12
21.08
20.29
18.96
17.37
15.84
14.59
13.73
13.19
12.79
12.34
11.73
10.94
10.11
9.38
8.87
8.59
8.39
7.97
7.07
5.46
3.18
0.45
-2.33
-4.79
-6.74
-8.25
-9.62
-11.24
-13.39
-16.19
-19.56
-23.26
-26.85
-29.76
-31.28
-30.74
-27.72
-22.27
-14.95
-6.73
1.30
8.25
13.62
17.33
19.60
20.74
21.04
20.66
19.77
18.51
17.09
15.75
14.64
13.79
13.09
12.32
11.36
10.20
9.06
8.18
7.74
7.68
7.73
7.48
6.59
4.93
2.60
-0.08
-2.75
-5.11
-7.00
-8.45
-9.66
-10.91
-12.55
-14.89
-18.06
-21.88
-25.80
-28.98
-30.50
-29.63
-26.13
-20.34
-13.06
-5.31
1.95
8.06
12.69
15.79
17.49
17.93
17.33
15.97
14.20
12.44
11.05
10.22
9.87
9.77
9.60
9.17
8.48
7.74
7.20
6.98
7.00
6.97
6.57
5.53
3.80
1.51
-1.07
-3.64
-5.95
-7.84
-9.34
-10.64
-12.06
-13.98
-16.70
-20.27
-24.36
-28.27
-31.08
-31.88
-30.12
-25.73
-19.21
-11.44
-3.42
4.04
10.39
15.44
19.26
21.97
23.70
24.53
24.49
23.64
22.11
20.14
18.05
16.14
14.63
13.53
12.72
11.94
11.01
9.85
8.54
7.27
6.18
5.27
4.39
3.28
1.70
-0.44
-3.03
-5.80
-8.45
-10.75
-12.64
-14.23
-15.70
-17.23
-19.01
-21.17
-23.79
-26.83
-30.04
-32.86
-34.51
-34.16
-31.29
-25.89
-18.49
-10.09
-1.73
5.77
11.95
16.72
20.19
22.47
23.63
23.74
22.95
21.57
20.00
18.59
17.52
16.79
16.22
15.60
14.83
13.93
13.03
12.29
11.78
11.48
11.22
10.82
10.07
8.86
7.18
5.09
2.75
0.34
-1.99
-4.15
-6.07
-7.80
-9.43
-11.10
-13.01
-15.32
-18.16
-21.50
-25.04
-28.23
-30.32
-30.57
-28.53
-24.21
-18.15
-11.19
-4.23
2.05
7.29
11.41
14.41
16.26
16.91
16.40
14.96
13.04
11.13
9.61
8.61
8.02
7.61
7.18
6.64
6.04
5.48
5.03
4.68
4.36
3.96
3.39
2.53
1.30
-0.32
-2.28
-4.42
-6.49
-8.32
-9.85
-11.20
-12.66
-14.53
-17.02
-20.06
-23.33
-26.24
-28.04
-28.08
-25.93
-21.58
-15.48
-8.38
-1.15
5.45
10.98
15.25
18.26
20.11
20.88
20.66
19.60
17.95
15.99
14.07
12.42
11.18
10.34
9.79
9.37
8.91
8.35
7.68
6.96
6.28
5.66
5.05
4.30
3.24
1.73
-0.22
-2.45
-4.73
-6.78
-8.44
-9.77
-10.98
-12.37
-14.20
-16.63
-19.64
-23.03
-26.44
-29.30
-30.88
-30.48
-27.64
-22.35
-15.19
-7.15
0.65
7.35
12.52
16.18
18.63
20.18
21.06
21.37
21.19
20.61
19.77
18.80
17.83
16.94
16.15
15.47
14.86
14.31
13.77
13.22
12.67
12.10
11.47
10.69
9.68
8.37
6.77
4.93
2.95
0.87
-1.28
-3.47
-5.68
-7.81
-9.79
-11.55
-13.14
-14.70
-16.50
-18.77
-21.59
-24.73
-27.64
-29.48
-29.44
-26.99
-22.13
-15.43
-7.81
-0.28
6.36
11.67
15.56
18.12
19.50
19.87
19.39
18.26
16.75
15.18
13.82
12.84
12.24
11.90
11.63
11.22
10.57
9.69
8.71
7.82
7.13
6.65
6.24
5.65
4.64
3.13
1.18
-0.99
-3.10
-4.96
-6.50
-7.81
-9.05
-10.43
-12.13
-14.31
-17.04
-20.29
-23.76
-26.89
-28.91
-29.03
-26.76
-22.07
-15.49
-7.94
-0.45
6.12
11.28
14.86
16.95
17.78
17.57
16.56
14.99
13.18
11.45
10.03
9.03
8.41
7.99
7.58
7.04
6.38
5.70
5.12
4.71
4.41
4.05
3.45
2.44
0.98
-0.84
-2.85
-4.82
-6.58
-8.06
-9.37
-10.72
-12.40
-14.64
-17.55
-20.99
-24.52
-27.47
-29.06
-28.64
-25.90
-21.02
-14.58
-7.45
-0.48
5.69
10.69
14.43
16.99
18.51
19.14
19.04
18.40
17.38
16.16
14.86
13.60
12.45
11.50
10.79
10.29
9.90
9.46
8.87
8.10
7.23
6.40
5.67
5.02
4.28
3.25
1.80
-0.05
-2.13
-4.24
-6.19
-7.97
-9.64
-11.36
-13.25
-15.44
-18.03
-21.04
-24.34
-27.60
-30.22
-31.46
-30.66
-27.46
-22.01
-14.96
-7.24
0.22
6.70
11.88
15.73
18.39
20.06
20.86
20.90
20.30
19.29
18.14
17.10
16.35
15.90
15.64
15.40
15.00
14.39
13.64
12.89
12.24
11.75
11.35
10.89
10.19
9.08
7.47
5.35
2.76
-0.17
-3.19
-6.03
-8.39
-10.11
-11.20
-11.93
-12.73
-14.08
-16.29
-19.41
-23.12
-26.75
-29.44
-30.35
-28.93
-25.10
-19.29
-12.37
-5.34
0.95
5.95
9.46
11.55
12.41
12.21
11.13
9.41
7.39
5.45
3.94
3.03
2.68
2.67
2.75
2.73
2.59
2.40
2.33
2.49
2.90
3.45
3.96
4.23
4.09
3.51
2.54
1.31
-0.02
-1.32
-2.55
-3.75
-5.08
-6.72
-8.82
-11.46
-14.54
-17.77
-20.68
-22.67
-23.16
-21.75
-18.34
-13.23
-7.04
-0.57
5.42
10.45
14.33
17.11
18.92
19.87
20.01
19.45
18.36
17.08
15.91
15.09
14.62
14.34
14.03
13.50
12.72
11.82
10.95
10.24
9.67
9.08
8.22
6.89
5.00
2.61
-0.06
-2.72
-5.11
-7.14
-8.88
-10.56
-12.51
-15.02
-18.22
-21.99
-25.92
-29.32
-31.40
-31.44
-29.07
-24.41
-18.01
-10.73
-3.45
3.15
8.67
12.94
15.97
17.80
18.51
18.22
17.18
15.74
14.28
13.09
12.34
11.98
11.84
11.68
11.31
10.64
9.69
8.60
7.52
6.53
5.65
4.77
3.76
2.45
0.78
-1.26
-3.56
-5.92
-8.13
-10.00
-11.46
-12.61
-13.74
-15.20
-17.35
-20.33
-23.96
-27.74
-30.87
-32.49
-31.90
-28.77
-23.31
-16.19
-8.36
-0.81
5.76
10.99
14.87
17.58
19.34
20.29
20.56
20.25
19.51
18.54
17.49
16.49
15.57
14.73
13.92
13.14
12.37
11.65
11.01
10.49
10.09
9.79
9.51
9.12
8.48
7.43
5.95
4.06
1.92
-0.33
-2.53
-4.62
-6.59
-8.50
-10.44
-12.52
-14.84
-17.51
-20.52
-23.73
-26.73
-28.89
-29.48
-27.95
-24.09
-18.22
-11.10
-3.70
3.07
8.62
12.75
15.59
17.40
18.43
18.84
18.68
17.98
16.85
15.49
14.17
13.09
12.34
11.85
11.41
10.85
10.06
9.10
8.12
7.28
6.65
6.18
5.68
4.92
3.76
2.15
0.19
-1.93
-4.00
-5.89
-7.55
-9.02
-10.36
-11.68
-13.10
-14.76
-16.83
-19.39
-22.30
-25.15
-27.26
-27.88
-26.47
-22.86
-17.38
-10.74
-3.82
2.58
7.91
11.94
14.69
16.29
16.90
16.66
15.72
14.30
12.66
11.11
9.92
9.19
8.86
8.71
8.52
8.13
7.54
6.91
6.39
6.06
5.80
5.37
4.49
3.02
1.02
-1.28
-3.54
-5.51
-7.08
-8.35
-9.52
-10.86
-12.62
-14.96
-17.94
-21.40
-24.98
-28.02
-29.74
-29.41
-26.63
-21.53
-14.79
-7.39
-0.33
5.68
10.35
13.76
16.16
17.78
18.73
19.03
18.70
17.82
16.59
15.24
13.98
12.92
12.10
11.50
11.07
10.75
10.47
10.16
9.78
9.32
8.78
8.16
7.42
6.49
5.26
3.70
1.80
-0.35
-2.62
-4.86
-6.97
-8.92
-10.72
-12.48
-14.34
-16.49
-19.08
-22.16
-25.51
-28.65
-30.84
-31.26
-29.32
-24.88
-18.39
-10.73
-2.98
3.97
9.61
13.83
16.87
18.99
20.43
21.27
21.52
21.23
20.47
19.44
18.31
17.25
16.31
15.50
14.77
14.06
13.31
12.51
11.65
10.79
9.94
9.14
8.37
7.56
6.64
5.50
4.08
2.42
0.58
-1.31
-3.16
-4.96
-6.77
-8.70
-10.81
-13.10
-15.55
-18.14
-20.91
-23.83
-26.71
-29.10
-30.30
-29.63
-26.69
-21.54
-14.82
-7.46
-0.40
5.67
10.45
13.96
16.31
17.63
18.05
17.67
16.65
15.23
13.66
12.18
10.94
10.03
9.43
9.03
8.70
8.32
7.86
7.36
6.90
6.54
6.21
5.72
4.87
3.49
1.58
-0.67
-2.99
-5.10
-6.80
-8.07
-9.07
-10.09
-11.43
-13.33
-15.86
-18.92
-22.17
-25.09
-27.04
-27.40
-25.71
-21.84
-16.10
-9.17
-1.92
4.78
10.33
14.46
17.23
18.83
19.48
19.35
18.57
17.32
15.81
14.29
12.96
11.93
11.17
10.59
10.06
9.47
8.76
7.93
7.03
6.14
5.32
4.54
3.71
2.66
1.26
-0.57
-2.74
-5.06
-7.27
-9.21
-10.85
-12.29
-13.74
-15.39
-17.39
-19.83
-22.73
-25.96
-29.20
-31.85
-33.18
-32.51
-29.46
-24.11
-17.05
-9.15
-1.39
5.47
10.92
14.81
17.22
18.39
18.63
18.24
17.47
16.48
15.35
14.17
13.03
12.06
11.34
10.88
10.59
10.35
10.07
9.73
9.41
9.11
8.80
8.32
7.52
6.28
4.63
2.71
0.67
-1.38
-3.36
-5.24
-6.97
-8.52
-9.85
-11.04
-12.26
-13.76
-15.78
-18.42
-21.55
-24.71
-27.21
-28.27
-27.29
-24.03
-18.78
-12.22
-5.22
1.44
7.24
11.98
15.65
18.28
19.87
20.44
20.07
18.97
17.49
15.96
14.65
13.65
12.94
12.43
11.98
11.53
11.04
10.54
10.06
9.61
9.17
8.61
7.79
6.58
4.93
2.93
0.78
-1.29
-3.13
-4.70
-6.11
-7.56
-9.24
-11.32
-13.91
-17.02
-20.52
-24.08
-27.13
-28.97
-28.96
-26.75
-22.43
-16.56
-9.96
-3.47
2.27
6.93
10.43
12.84
14.24
14.71
14.33
13.23
11.65
9.87
8.23
6.96
6.16
5.75
5.55
5.37
5.08
4.67
4.23
3.85
3.51
3.08
2.32
1.06
-0.77
-3.05
-5.55
-8.01
-10.27
-12.30
-14.17
-16.04
-18.11
-20.52
-23.33
-26.45
-29.59
-32.22
-33.63
-33.16
-30.37
-25.25
-18.27
-10.26
-2.18
5.18
11.33
16.14
19.73
22.31
24.09
25.17
25.63
25.56
25.14
24.58
24.11
23.85
23.83
23.94
24.03
23.99
23.87
23.84
24.04
24.41
24.69
24.40
23.04
20.39
16.57
12.07
7.62
3.85
1.08
-0.78
-2.06
-3.25
-4.73
-6.68
-8.94
-11.08
-12.56
-12.75
-11.09
-7.13
-0.85
7.19
15.90
23.94
30.20
33.98
35.32
34.91
33.97
33.36
33.36
33.52
32.97
31.03
26.99
20.46
11.32
0.32
-11.57
-23.20
-33.55
-41.87
-47.46
-50.19
-50.42
-49.02
-46.39
-43.20
-40.41
-39.43
-41.67
-45.09
-47.26
-46.50
-45.91
-46.49
-49.08
-53.29
-59.74
-69.07
-80.33
-91.35
-99.42
-102.24
-97.47
-83.71
-61.22
-29.63
5.92
37.35
59.56
73.39
81.20
83.70
82.05
77.44
70.70
62.28
53.17
44.59
37.31
31.20
26.25
22.70
20.67
20.01
20.08
20.54
21.24
21.84
21.56
19.91
16.91
12.82
8.05
3.01
-1.50
-4.51
-5.46
-4.60
-2.67
-0.61
0.43
-0.54
-4.17
-10.22
-17.61
-24.73
-30.00
-32.17
-30.59
-25.46
-17.57
-8.17
1.52
10.52
18.23
24.34
28.70
31.32
32.21
31.68
30.12
27.99
25.70
23.63
22.07
21.13
20.66
20.31
19.86
19.13
17.90
16.10
13.89
11.71
10.03
9.20
9.23
10.31
12.43
15.32
18.63
22.12
25.74
29.45
33.14
34.32
31.27
23.54
12.01
-1.81
-16.46
-30.55
-42.54
-51.12
-55.77
-56.62
-55.28
-54.22
-55.52
-59.81
-65.93
-71.35
-72.99
-68.07
-55.14
-33.53
-5.06
26.03
54.07
73.42
80.28
74.01
55.40
31.35
9.13
-6.82
-15.65
-19.19
-20.11
-20.34
-20.61
-20.47
-19.12
-16.83
-14.66
-13.69
-14.37
-16.30
-18.47
-19.70
-19.07
-15.96
-10.77
-4.61
1.32
6.25
10.02
13.12
16.27
19.41
22.33
24.36
24.81
23.37
20.38
16.60
12.96
10.08
8.11
6.89
5.94
4.78
3.20
1.30
-0.61
-2.21
-3.29
-3.87
-4.05
-4.11
-4.36
-5.05
-6.26
-7.98
-10.11
-12.56
-15.23
-18.03
-20.88
-23.74
-26.58
-29.27
-31.57
-32.96
-32.79
-30.45
-25.59
-18.43
-9.69
-0.47
8.10
15.20
20.44
23.80
25.55
26.05
25.62
24.55
23.07
21.36
19.55
17.73
15.93
14.13
12.32
10.48
8.60
6.75
5.02
3.56
2.48
1.77
1.24
0.63
-0.37
-1.97
-4.21
-6.88
-9.67
-12.23
-14.32
-15.99
-17.51
-19.23
-21.33
-23.55
-25.14
-25.07
-22.37
-16.55
-7.86
2.79
14.01
24.29
32.33
37.21
38.52
36.43
31.62
25.20
18.43
12.41
7.78
4.64
2.51
0.70
-1.47
-4.34
-7.81
-11.45
-14.61
-16.72
-17.44
-16.74
-14.88
-12.31
-9.58
-7.23
-5.73
-5.40
-6.37
-8.54
-11.71
-15.60
-19.94
-24.44
-28.61
-31.78
-33.19
-32.19
-28.57
-22.67
-15.25
-7.18
0.82
8.42
15.54
22.16
28.14
33.18
36.97
39.49
41.07
42.37
44.10
46.72
50.22
53.94
56.83
57.70
55.68
50.57
42.94
33.92
24.79
16.50
9.46
3.54
-1.64
-6.39
-10.78
-14.60
-17.63
-19.79
-21.28
-22.44
-23.62
-25.03
-26.61
-28.09
-29.03
-28.96
-27.52
-24.61
-20.48
-15.68
-10.97
-7.05
-4.36
-2.95
-2.53
-2.55
-2.49
-1.99
-1.03
0.07
0.75
0.41
-1.37
-4.64
-8.99
-13.72
-18.03
-21.31
-23.30
-24.16
-24.22
-23.85
-23.25
-22.46
-21.40
-20.06
-18.56
-17.12
-15.98
-15.30
-15.11
-15.36
-16.00
-16.94
-18.02
-18.82
-18.57
-16.27
-11.16
-3.13
6.94
17.32
26.08
31.87
34.55
35.17
35.40
36.67
39.47
43.22
46.72
48.87
49.13
47.63
44.83
41.14
36.63
31.25
25.09
18.63
12.72
8.21
5.56
4.62
4.64
4.66
3.91
2.11
-0.57
-3.72
-7.06
-10.63
-14.76
-19.79
-25.81
-32.38
-38.60
-43.33
