1660326537.00
64.000000
-0.00
-0.00
-0.00
-0.00
-0.00
-0.00
-0.00
-0.00
-0.00
-0.00
0.00
0.01
0.01
-0.00
-0.03
-0.05
-0.05
0.00
0.13
0.36
0.66
1.01
1.37
1.72
2.06
2.40
2.79
3.24
3.80
4.42
5.06
5.66
6.20
6.68
7.15
7.68
8.31
9.14
10.09
11.04
11.88
12.56
13.14
13.76
14.65
15.96
17.91
20.32
22.90
25.38
27.58
29.57
31.68
34.32
37.81
42.54
48.15
54.10
59.83
64.97
69.58
74.14
79.34
85.71
93.76
103.00
112.62
121.73
129.77
136.75
143.30
150.75
157.77
166.64
177.95
191.79
206.97
220.57
228.25
225.36
208.53
176.87
132.76
80.05
23.07
-34.94
-92.44
-149.16
-205.23
-260.37
-313.74
-363.87
-409.83
-450.91
-486.50
-515.74
-537.23
-549.22
-549.96
-538.37
-514.21
-478.67
-433.88
-382.45
-327.02
-269.84
-212.63
-156.66
-102.95
-52.37
-5.90
35.58
71.43
101.35
125.50
144.38
158.69
169.15
176.37
180.75
182.57
182.07
179.51
175.23
169.65
163.18
156.15
148.81
141.30
133.69
126.02
118.33
110.69
103.16
95.80
88.68
81.83
75.25
68.95
62.95
57.25
51.86
46.78
42.03
37.59
33.45
29.61
26.07
22.81
19.83
17.11
14.67
12.48
10.54
8.83
7.35
6.07
4.97
4.05
3.27
2.62
2.09
1.65
1.30
1.01
0.79
0.61
0.48
0.37
0.29
0.22
0.18
0.14
0.11
0.09
0.08
0.07
0.06
0.05
0.04
0.04
0.04
0.04
0.04
0.04
0.05
0.06
0.08
0.11
0.14
0.18
0.23
0.29
0.34
0.41
0.47
0.53
0.59
0.66
0.72
0.78
0.84
0.90
0.97
1.04
1.11
1.20
1.30
1.41
1.54
1.69
1.85
2.04
2.25
2.49
2.75
3.04
3.36
3.73
4.14
4.60
5.10
5.62
6.14
6.66
7.18
7.74
8.36
9.09
9.92
10.84
11.82
12.81
13.78
14.72
15.68
16.69
17.84
19.14
20.58
22.10
23.60
24.99
26.19
27.18
27.89
28.26
28.09
27.11
24.98
21.40
16.22
9.50
1.64
-6.77
-15.09
-22.80
-29.64
-35.56
-40.69
-45.08
-48.60
-50.89
-51.55
-50.29
-47.21
-42.92
-38.42
-34.76
-32.70
-32.42
-33.43
-34.85
-35.89
-36.06
-35.48
-34.76
-34.71
-36.07
-39.46
-45.12
-52.61
-60.42
-65.98
-66.23
-58.94
-43.86
-23.45
-2.17
15.20
25.37
27.74
24.32
18.54
13.82
12.42
15.03
21.11
29.29
37.94
45.40
50.29
51.78
49.80
44.98
38.31
30.91
23.83
17.91
13.69
11.32
10.49
10.53
10.54
9.74
7.80
4.36
-0.13
-4.83
-8.94
-11.90
-13.52
-13.99
-13.75
-13.36
-13.38
-14.21
-16.15
-19.51
-24.44
-30.76
-37.65
-43.47
-45.98
-43.08
-33.61
-18.13
1.06
20.65
37.49
49.59
56.43
58.56
56.82
51.90
44.15
34.04
22.51
11.10
1.46
-5.22
-8.67
-9.65
-9.52
-9.83
-11.68
-15.53
-21.11
-27.66
-34.16
-39.67
-43.66
-46.10
-47.47
-48.64
-50.58
-54.20
-60.02
-67.80
-76.29
-83.23
-85.85
-81.78
-70.07
-51.67
-29.25
-6.29
14.17
30.36
41.92
49.50
54.01
56.11
56.15
54.37
51.27
47.69
44.56
42.52
41.58
41.06
39.79
36.62
30.96
23.00
13.71
4.37
-3.95
-10.76
-16.20
-20.88
-25.45
-30.49
-36.40
-43.55
-52.16
-62.02
-72.17
-80.75
-85.37
-83.86
-75.25
-60.17
-40.77
-19.90
-0.12
16.97
30.85
41.67
49.72
55.09
57.75
57.77
55.73
52.64
49.64
47.64
46.91
46.97
46.86
45.52
42.21
36.83
29.93
22.34
14.84
7.80
1.06
-5.87
-13.59
-22.51
-32.76
-44.00
-55.42
-65.63
-72.75
-74.82
-70.43
-59.29
-42.55
-22.46
-1.66
17.68
34.30
47.81
58.27
65.61
69.50
69.54
65.72
58.73
49.92
40.84
32.71
26.03
20.55
15.47
9.94
3.43
-4.12
-12.29
-20.36
-27.58
-33.30
-37.15
-39.17
-39.94
-40.54
-42.38
-46.72
-54.09
-63.72
-73.45
-80.22
-80.99
-73.97
-59.21
-38.56
-14.92
8.82
30.60
49.32
64.51
75.78
82.66
84.77
82.35
76.49
69.06
62.09
57.13
54.74
54.50
55.36
56.07
55.64
53.53
49.69
44.40
38.10
31.20
23.94
16.29
8.07
-0.93
-10.85
-21.77
-33.54
-45.74
-57.47
-67.16
-72.84
-72.53
-65.04
-50.51
-30.61
-8.07
14.10
33.45
48.49
58.76
64.42
65.93
63.88
59.02
52.44
45.44
39.36
35.16
33.09
32.60
32.59
31.76
29.15
24.40
17.80
10.08
2.04
-5.70
-12.95
-19.86
-26.87
-34.50
-43.23
-53.28
-64.41
-75.64
-85.17
-90.70
-90.03
-81.89
-66.55
-45.82
-22.50
0.54
21.10
37.92
50.60
59.06
63.36
63.57
60.11
53.88
46.18
38.44
31.83
26.91
23.55
21.04
18.38
14.65
9.28
2.30
-5.72
-13.87
-21.25
-27.27
-31.69
-34.62
-36.29
-37.03
-37.27
-37.53
-38.12
-38.87
-38.81
-36.26
-29.41
-17.13
0.35
21.31
43.03
62.64
77.96
87.85
92.15
91.25
85.77
76.44
64.20
50.49
37.08
25.83
18.06
14.10
13.19
13.77
14.17
13.28
10.90
7.70
4.68
2.60
1.64
1.28
0.67
-1.05
-4.47
-9.79
-16.73
-24.57
-32.09
-37.60
-39.31
-35.79
-26.61
-12.70
3.89
20.52
34.76
45.10
51.06
52.89
51.15
46.39
39.10
29.97
20.03
10.56
2.65
-3.15
-7.19
-10.51
-14.51
-20.37
-28.75
-39.57
-52.26
-66.03
-80.13
-94.12
-107.87
-121.53
-135.46
-150.05
-165.62
-182.07
-198.60
-213.45
-224.14
-228.00
-223.12
-209.13
-187.58
-161.61
-134.95
-110.95
-91.66
-77.74
-68.70
-63.35
-60.11
-57.12
-52.25
-43.58
-29.98
-11.79
8.86
28.68
44.19
53.00
54.65
50.66
43.84
37.26
33.35
33.40
37.53
44.94
54.27
63.92
72.40
78.59
81.98
82.82
82.07
81.30
82.31
86.71
95.45
108.43
124.36
141.14
156.43
168.48
176.58
181.04
182.59
181.66
177.89
170.27
157.80
140.46
119.58
97.80
78.13
62.94
53.08
47.70
44.80
42.20
38.36
32.91
26.39
19.70
13.39
7.37
0.98
-6.47
-15.29
-25.12
-35.07
-44.01
-50.87
-54.75
-54.90
-50.79
-42.17
-29.32
-13.21
4.56
21.94
36.89
47.70
53.34
53.53
48.76
40.12
29.21
17.81
7.65
-0.01
-4.58
-6.30
-6.04
-4.99
-4.17
-4.13
-4.83
-5.91
-7.01
-8.20
-10.04
-13.35
-18.87
-26.77
-36.57
-47.31
-57.74
-66.69
-73.04
-75.75
-73.91
-66.92
-54.85
-38.74
-20.48
-2.44
13.25
25.18
32.96
36.94
37.83
36.25
32.74
27.77
22.08
16.65
12.52
10.42
10.52
12.34
14.95
17.37
18.92
19.41
19.02
18.09
16.80
15.02
12.32
8.13
1.94
-6.43
-16.68
-27.93
-38.75
-47.32
-51.85
-51.01
-44.34
-32.46
-16.85
0.53
17.68
32.98
45.25
53.68
57.82
57.58
53.38
46.30
37.92
30.14
24.57
22.09
22.53
24.69
26.68
26.50
22.63
14.53
2.83
-10.83
-24.16
-34.82
-40.92
-41.47
-36.56
-27.34
-15.76
-4.24
4.75
9.20
7.98
1.23
-9.42
-21.06
-29.99
-32.77
-27.27
-13.45
6.38
28.19
47.41
60.30
64.94
61.56
51.99
38.90
24.90
11.99
1.48
-5.93
-9.88
-10.48
-8.27
-4.44
-0.68
1.14
-0.53
-6.47
-16.44
-29.25
-43.08
-55.82
-65.38
-70.03
-68.61
-60.86
-47.58
-30.57
-12.32
4.51
17.83
26.53
30.65
31.17
29.53
27.17
25.13
23.96
23.83
24.63
26.13
27.88
29.25
29.37
27.44
22.92
15.96
7.48
-1.06
-8.08
-12.51
-14.16
-13.87
-13.13
-13.52
-16.10
-21.04
-27.50
-34.02
-38.91
-40.78
-38.90
-33.21
-24.24
-12.87
-0.09
13.05
25.50
36.22
44.26
48.91
49.90
47.46
42.35
35.67
28.63
22.24
17.14
13.53
11.16
9.56
8.12
6.33
3.95
1.00
-2.25
-5.44
-8.30
-10.72
-12.82
-14.82
-17.06
-19.74
-22.88
-26.11
-28.70
-29.63
-27.95
-23.21
-15.70
-6.40
3.37
12.62
20.87
28.08
34.22
38.92
41.54
41.51
38.83
34.16
28.45
22.47
16.41
10.00
3.02
-4.30
-11.15
-16.56
-19.94
-21.28
-20.92
-19.10
-15.82
-11.19
-5.99
-1.91
-0.85
-3.89
-10.36
-17.74
-22.71
-22.72
-17.15
-7.33
4.61
17.16
30.23
44.66
61.03
78.58
95.15
108.41
117.21
122.51
126.93
133.30
142.71
153.63
162.51
165.47
160.48
148.55
133.41
119.69
110.59
106.28
104.34
101.60
96.22
88.68
81.03
75.20
71.41
67.79
61.03
48.74
30.95
10.21
-9.87
-26.55
-39.00
-48.33
-56.61
-66.48
-78.61
-90.72
-98.32
-97.01
-84.95
-63.86
-38.55
-15.27
-1.88
-3.10
-18.60
-43.63
-71.95
-98.72
-121.43
-139.48
-153.31
-167.31
-185.00
-207.14
-231.79
-256.53
-280.05
-301.65
-320.20
-334.11
-346.93
-362.20
-381.25
-402.51
-423.57
-443.09
-460.47
-475.15
-456.45
-387.27
-273.63
-142.42
-20.83
77.75
151.98
206.22
245.80
275.27
292.83
296.99
289.52
275.82
261.75
250.06
241.25
234.96
230.65
223.71
210.78
191.86
170.35
150.52
133.48
119.34
108.43
101.70
96.76
91.32
84.45
76.98
69.98
60.79
46.69
25.83
2.68
-21.93
-48.08
-75.71
-104.01
-131.73
-161.26
-193.38
-226.33
-255.85
-279.03
-294.43
-301.77
-301.37
-271.98
-207.63
-119.98
-30.70
45.00
102.30
143.13
171.29
190.00
201.36
203.10
194.48
176.74
153.93
129.85
106.69
84.80
63.21
40.30
11.63
-17.85
-45.68
-68.74
-84.78
-93.10
-94.48
-90.81
-84.42
-79.05
-77.09
-80.08
-87.27
-96.79
-105.85
-110.57
-106.41
-89.90
-61.42
-24.96
12.20
43.15
63.59
72.91
73.89
70.71
66.78
63.19
59.50
54.55
48.50
42.62
38.44
36.67
36.81
37.47
37.12
34.84
30.56
25.26
20.35
16.91
15.23
14.77
14.49
13.37
10.89
7.13
2.77
-1.33
-4.55
-6.76
-8.29
-9.72
-11.54
-14.02
-17.05
-20.29
-23.43
-26.30
-28.95
-31.57
-34.11
-36.35
-37.93
-38.47
-37.70
-35.66
-32.63
-28.93
-24.73
-19.95
-14.13
-6.85
1.95
11.77
21.52
29.87
35.72
38.70
39.40
39.09
39.23
40.73
43.59
46.80
48.95
48.85
46.17
41.67
36.86
33.49
32.93
35.91
42.30
50.83
58.91
62.65
57.71
41.04
12.91
-22.24
-56.60
-81.57
-91.11
-84.12
-64.62
-39.81
-16.97
-0.71
7.63
9.14
5.79
-0.91
-10.13
-21.30
-33.38
-44.83
-53.52
-57.98
-57.86
-54.14
-48.52
-42.63
-37.28
-32.24
-26.56
-18.70
-7.62
7.01
24.95
45.73
68.75
93.40
119.03
141.51
157.16
162.27
153.85
130.59
93.47
46.14
-5.46
-54.09
-92.74
-115.76
-120.72
-108.95
-85.01
-55.38
-26.75
-4.59
7.67
8.69
-0.60
-17.69
-38.59
-58.20
-70.89
-71.69
-57.82
-30.01
7.22
46.88
81.36
104.84
115.12
113.93
105.80
95.85
87.45
80.85
73.36
60.52
37.83
2.18
-47.18
-108.26
-176.33
-244.35
-304.13
-347.97
-370.84
-371.73
-353.61
-322.01
-282.90
-241.34
-201.23
-165.91
-138.56
-121.60
-115.16
-116.02
-117.93
-113.75
-98.32
-70.44
-32.85
9.47
51.62
90.41
124.56
154.01
179.09
200.40
219.13
237.25
256.78
278.32
299.65
315.58
319.63
306.87
276.68
233.64
186.24
143.71
112.75
95.51
89.71
90.35
92.09
91.04
85.43
75.35
61.99
47.15
33.01
22.14
17.39
21.35
35.65
60.09
92.20
127.51
160.52
186.01
200.27
201.76
191.14
170.74
143.63
112.83
80.70
48.58
16.85
-14.99
-48.27
-85.00
-127.49
-177.40
-234.35
-294.81
-352.06
-397.81
-424.90
-429.96
-414.53
-384.08
-345.31
-303.58
-261.61
-220.14
-179.56
-141.12
-106.87
-78.34
-55.33
-35.57
-15.84
6.38
31.76
59.12
86.33
111.58
134.21
154.66
173.90
192.78
211.77
231.09
250.68
270.15
288.31
302.95
311.05
309.56
296.44
271.31
235.52
191.52
142.06
89.78
37.32
-12.10
-54.44
-85.29
-101.01
-100.27
-84.86
-59.51
-30.54
-3.85
16.63
29.55
35.60
36.35
33.15
26.72
17.63
6.78
-4.22
-13.39
-18.97
-20.00
-16.44
-9.07
0.70
10.81
18.56
20.60
13.40
-5.98
-39.05
-85.17
-141.32
-202.22
-261.05
-310.44
-343.86
-357.00
-348.76
-321.41
-279.94
-230.72
-180.08
-133.28
-93.84
-63.44
-41.91
-27.46
-17.32
-8.43
1.68
14.48
30.35
49.01
69.80
91.84
114.03
135.03
153.80
170.08
184.85
199.93
217.07
236.59
256.57
272.93
280.68
275.63
255.78
221.98
177.60
127.63
77.68
33.02
-2.07
-24.77
-34.06
-30.79
-17.51
2.00
23.54
43.25
58.33
67.48
70.92
69.99
66.56
62.28
58.06
53.94
49.25
43.01
34.21
22.07
6.24
-12.93
-34.26
-55.90
-75.91
-93.15
-107.95
-122.31
-139.34
-162.08
-192.22
-229.04
-269.15
-307.15
-336.88
-353.12
-352.95
-336.35
-305.79
-265.07
-218.13
-168.42
-118.94
-72.73
-32.87
-1.79
19.75
33.48
43.09
52.77
65.25
80.65
96.67
110.06
118.50
121.88
122.17
122.35
124.85
130.52
138.55
147.32
155.54
163.11
171.06
180.51
191.41
201.64
207.32
204.14
188.95
160.71
120.49
70.85
15.30
-41.71
-94.48
-136.29
-160.73
-163.90
-146.36
-113.67
-74.82
-39.12
-13.09
1.23
5.86
4.80
1.70
-1.62
-5.21
-10.01
-16.76
-25.38
-35.21
-45.63
-56.61
-68.61
-81.86
-95.53
-107.40
-114.41
-114.00
-105.45
-90.40
-72.49
-55.95
-44.15
-38.63
-38.93
-43.10
-48.65
-53.24
-55.36
-54.51
-51.10
-46.20
-40.93
-35.96
-31.21
-25.96
-19.35
-10.94
-1.02
9.51
19.71
29.05
37.63
45.92
54.24
62.38
69.40
73.97
74.88
71.65
64.68
55.20
44.81
35.12
27.36
22.30
20.20
20.75
23.11
25.95
27.76
27.12
23.07
15.22
3.87
-10.24
-26.07
-42.47
-58.24
-72.25
-83.52
-91.21
-94.65
-93.30
-86.85
-75.56
-60.59
-44.22
-29.39
-18.85
-14.00
-14.28
-17.27
-19.63
-18.33
-11.48
1.43
19.83
42.46
67.57
92.95
116.05
134.44
146.40
151.52
150.73
145.86
138.97
131.82
125.49
120.47
116.53
112.67
107.10
97.65
82.60
61.60
36.27
9.75
-14.35
-33.36
-46.52
-55.06
-61.46
-68.47
-78.20
-91.62
-108.20
-125.71
-140.34
-147.53
-143.46
-126.84
-99.97
-68.34
-38.56
-15.57
-0.58
9.12
18.32
31.11
48.74
69.22
88.78
104.17
114.24
120.20
124.40
128.68
133.36
137.35
139.27
138.86
137.63
138.37
143.86
155.30
171.57
189.42
204.78
214.28
216.54
212.41
204.37
195.38
187.70
182.16
178.20
174.29
168.80
160.55
149.01
134.21
116.32
95.54
72.38
48.04
24.73
5.43
-6.88
-10.44
-5.56
5.46
19.49
34.36
50.03
68.27
90.93
117.67
144.86
166.39
176.12
170.71
151.07
121.70
88.33
55.46
24.86
-4.08
-32.80
-62.03
-91.13
-118.57
-142.97
-164.11
-183.27
-202.96
-225.91
-253.86
-286.35
-320.38
-350.80
-371.78
-378.47
-368.38
-341.72
-301.09
-250.46
-194.36
-137.36
-83.71
-36.88
0.97
29.61
50.79
67.61
83.17
99.23
115.41
129.45
138.41
140.33
135.50
127.01
119.86
119.26
128.44
147.13
171.44
195.13
211.92
217.62
211.11
193.95
169.05
139.18
106.19
71.17
34.94
-1.43
-36.79
-70.51
-102.99
-135.89
-171.59
-212.30
-259.10
-311.24
-366.12
-419.90
-468.47
-508.55
-538.16
-556.60
-563.77
-559.52
-543.48
-515.56
-477.05
-431.01
-381.83
-334.07
-290.84
-252.79
-218.00
-183.07
-144.52
-100.12
-49.35
6.76
65.78
124.08
177.34
221.74
255.66
280.60
300.37
319.41
340.04
360.52
375.28
377.13
360.50
324.08
271.16
207.24
139.79
76.90
26.28
-6.11
-17.79
-10.77
9.31
34.05
52.53
57.29
46.10
21.63
-11.11
-47.63
-85.66
-123.88
-163.02
-208.91
-266.82
-339.90
-427.35
-523.99
-621.03
-706.70
-766.66
-790.39
-779.42
-742.63
-693.98
-647.51
-613.22
-595.66
-593.68
-600.18
-569.30
-470.71
-297.85
-74.90
157.51
365.38
532.72
649.10
730.52
789.02
824.76
835.91
823.14
792.35
754.57
719.12
691.23
673.15
661.24
646.17
620.78
582.58
534.72
483.92
436.40
395.61
363.12
336.29
309.03
276.77
238.09
195.51
154.24
119.36
93.87
78.46
69.71
61.38
48.25
28.15
3.02
-22.24
-42.70
-55.89
-62.56
-66.93
-74.29
-87.79
-106.94
-127.78
-144.89
-154.12
-154.25
-147.18
-136.93
-127.38
-120.46
-115.68
-110.88
-103.78
-93.61
-81.99
-72.68
-70.50
-80.11
-104.48
-143.56
-193.45
-246.12
-290.14
-313.10
-305.16
-263.05
-192.64
-108.64
-30.83
22.21
39.47
21.20
-21.79
-72.91
-116.47
-143.02
-151.19
-145.93
-134.68
-123.85
-117.31
-116.58
-122.03
-133.29
-148.73
-164.90
-176.79
-179.32
-169.31
-147.08
-116.38
-82.75
-51.44
-25.97
-7.66
3.85
9.82
12.01
12.29
12.53
14.07
17.33
21.65
25.55
27.52
26.83
23.82
19.73
15.96
13.32
11.70
10.18
7.61
3.24
-3.02
-10.56
-18.63
-26.65
-34.41
-41.79
-48.29
-52.75
-53.47
-48.86
-38.22
-22.30
-3.19
16.33
33.78
47.71
57.91
64.99
69.79
72.76
73.88
72.79
69.23
63.36
55.82
47.63
39.80
33.13
27.90
23.96
20.87
18.13
15.29
12.15
8.64
4.84
0.84
-3.28
-7.54
-12.01
-16.82
-22.05
-27.72
-33.86
-40.47
-47.47
-54.53
-60.78
-64.83
-64.97
-59.68
-48.28
-31.34
-10.62
11.36
32.10
49.73
63.28
72.66
78.27
80.70
80.49
78.14
74.16
69.15
63.70
58.32
53.19
48.25
43.23
38.00
32.74
27.79
23.55
20.06
16.87
13.23
8.38
2.04
-5.46
-13.33
-20.66
-26.86
-31.87
-36.19
-40.72
-46.51
-54.33
-64.36
-75.72
-86.41
-93.67
-94.77
-88.01
-73.41
-52.78
-29.07
-5.26
16.47
35.13
50.58
62.96
72.15
77.76
79.53
77.74
73.35
67.76
62.33
57.83
54.25
50.98
47.32
42.87
37.80
32.76
28.51
25.44
23.34
21.44
18.63
14.03
7.33
-1.04
-10.09
-18.67
-25.95
-31.72
-36.40
-40.81
-45.89
-52.39
-60.76
-71.10
-82.97
-95.23
-105.90
-112.39
-112.15
-103.61
-86.79
-63.51
-36.85
-10.13
14.07
34.40
50.69
63.38
72.98
79.74
83.71
84.94
83.75
80.72
76.51
71.75
66.88
62.11
57.54
53.30
49.55
46.48
44.10
42.22
40.31
37.77
34.09
29.19
23.44
17.48
11.96
7.15
2.79
-1.75
-7.10
-13.59
-20.99
-28.61
-35.72
-41.85
-47.09
-52.09
-57.86
-65.41
-75.38
-87.68
-101.15
-113.51
-121.64
-122.45
-113.91
-95.86
-70.27
-40.60
-10.70
16.40
39.20
57.59
72.31
84.12
93.37
99.95
103.56
104.06
101.73
97.22
91.44
85.26
79.41
74.28
69.98
66.42
63.42
60.75
58.17
55.39
52.17
48.33
43.82
38.69
33.00
26.76
19.91
12.42
4.38
-3.89
-12.01
-19.63
-26.59
-33.01
-39.24
-45.83
-53.50
-62.88
-74.18
-86.76
-98.85
-107.71
-110.39
-104.71
-90.11
-68.01
-41.35
-13.62
12.11
33.93
51.23
64.38
74.18
81.41
86.59
89.85
91.13
90.33
87.54
83.17
77.86
72.40
67.37
63.12
59.61
56.63
53.92
51.23
48.36
45.15
41.42
37.05
32.02
26.46
20.57
14.51
8.26
1.66
-5.53
-13.46
-22.04
-30.90
-39.55
-47.52
-54.59
-60.88
-66.93
-73.61
-81.83
-92.14
-104.13
-116.14
-125.47
-129.05
-124.56
-111.32
-90.62
-65.28
-38.64
-13.46
8.69
27.43
43.03
55.81
65.76
72.65
76.26
76.72
74.62
70.78
66.09
61.19
56.49
52.32
49.09
47.28
47.21
48.77
51.25
53.42
53.98
52.01
47.42
40.85
33.36
25.88
18.89
12.25
5.50
-1.81
-9.85
-18.39
-26.99
-35.19
-42.73
-49.65
-56.30
-63.17
-70.92
-80.09
-90.91
-102.97
-114.93
-124.57
-129.25
-126.70
-115.81
-97.15
-72.76
-45.51
-18.17
7.26
29.83
49.31
65.86
79.51
90.12
97.52
101.74
103.13
102.34
100.06
96.83
92.95
88.52
83.64
78.60
73.88
70.03
67.40
65.93
65.11
64.12
62.12
58.55
53.24
46.51
39.00
31.47
24.56
18.52
13.17
7.95
2.18
-4.63
-12.54
-21.13
-29.73
-37.70
-44.70
-50.84
-56.63
-62.83
-70.30
-79.71
-91.23
-104.16
-116.79
-126.49
-130.46
-126.56
-114.14
-94.30
-69.52
-42.80
-16.65
7.34
28.56
46.95
62.52
75.12
84.50
90.52
93.37
93.55
91.76
88.65
84.72
80.35
75.85
71.55
67.82
64.96
63.06
61.90
61.01
59.82
57.91
55.12
51.59
47.56
43.27
38.87
34.37
29.81
25.24
20.76
16.41
12.08
7.50
2.31
-3.74
-10.66
-18.13
-25.69
-32.79
-39.13
-44.65
-49.59
-54.40
-59.62
-65.86
-73.67
-83.38
-94.68
-106.35
-116.15
-121.26
-119.19
-108.67
-90.31
-66.44
-40.35
-15.16
7.08
25.62
40.74
53.05
62.95
70.45
75.32
77.46
77.13
74.94
71.68
68.04
64.41
60.87
57.32
53.72
50.23
47.15
44.84
43.43
42.70
42.11
40.93
38.58
34.78
29.73
24.01
18.30
13.21
8.99
5.47
2.14
-1.65
-6.39
-12.24
-18.97
-25.98
-32.56
-38.18
-42.62
-46.08
-49.19
-52.85
-58.03
-65.45
-75.20
-86.34
-96.88
-104.10
-105.36
-99.02
-85.05
-65.14
-42.11
-19.00
1.92
19.48
33.57
44.61
53.00
58.87
62.17
62.92
61.40
58.21
54.11
49.72
45.45
41.41
37.57
33.94
30.60
27.73
25.55
24.05
22.98
21.81
19.84
16.41
11.20
4.39
-3.39
-11.18
-18.13
-23.79
-28.21
-31.88
-35.36
-39.05
-42.96
-46.80
-50.21
-53.03
-55.48
-58.20
-62.16
-68.29
-77.14
-88.27
-100.05
-109.78
-114.28
-110.96
-98.79
-78.83
-53.94
-27.88
-4.01
15.54
30.25
40.77
48.26
53.64
57.37
59.40
59.58
57.92
54.72
50.56
46.10
41.92
38.39
35.66
33.68
32.29
31.27
30.34
29.15
27.30
24.47
20.47
15.38
9.55
3.48
-2.36
-7.68
-12.49
-17.05
-21.75
-26.92
-32.66
-38.81
-45.03
-51.00
-56.57
-61.93
-67.66
-74.63
-83.61
-94.78
-107.22
-118.78
-126.45
-127.28
-119.45
-103.12
-80.44
-54.78
-29.58
-7.19
11.55
27.08
40.34
52.06
62.33
70.76
76.84
80.31
81.33
80.33
77.84
74.25
69.87
64.94
59.83
55.05
51.16
48.53
47.12
46.37
45.34
43.04
38.88
32.93
25.88
18.77
12.51
7.46
3.29
-0.82
-5.80
-12.25
-20.21
-29.14
-38.25
-46.82
-54.49
-61.36
-67.96
-75.11
-83.72
-94.45
-107.25
-120.95
-133.15
-140.67
-140.55
-131.17
-112.97
-88.34
-60.73
-33.41
-8.56
13.03
31.50
47.30
60.67
71.57
79.93
85.86
89.66
91.70
92.23
91.29
88.87
85.04
80.16
74.86
69.89
65.90
63.20
61.63
60.57
59.12
56.44
52.05
45.99
38.83
31.41
24.47
18.32
12.78
7.26
1.07
-6.16
-14.36
-23.07
-31.63
-39.53
-46.63
-53.21
-59.95
-67.74
-77.45
-89.56
-103.76
-118.54
-131.25
-138.63
-137.80
-127.34
-107.89
-81.99
-53.21
-24.89
0.72
22.85
41.75
58.00
71.93
83.40
92.04
97.58
100.10
100.10
98.18
94.89
90.57
85.41
79.67
73.86
68.73
65.02
63.17
62.95
63.46
63.37
61.43
56.94
50.09
41.79
33.36
25.89
19.81
14.80
9.97
4.37
-2.58
-10.83
-19.72
-28.39
-36.11
-42.64
-48.28
-53.83
-60.33
-68.75
-79.69
-92.89
-106.92
-119.14
-126.24
-125.15
-114.27
-94.09
-67.28
-37.71
-9.23
15.48
35.37
50.80
62.70
71.89
78.68
82.97
84.54
83.48
80.21
75.47
70.09
64.78
60.02
56.03
52.88
50.48
48.63
47.03
45.32
43.08
40.06
36.15
31.46
26.24
20.65
14.75
8.39
1.39
-6.32
-14.62
-23.11
-31.33
-38.90
-45.73
-52.03
-58.34
-65.41
-74.05
-84.84
-97.71
-111.43
-123.56
-130.78
-129.89
-119.09
-98.84
-71.88
-42.41
-14.59
8.79
26.84
40.28
50.50
58.55
64.75
68.78
70.19
68.94
65.64
61.30
57.03
53.52
50.92
48.87
46.83
44.35
41.35
38.08
34.89
32.00
29.34
26.46
22.81
17.85
11.37
3.52
-5.19
-14.03
-22.31
-29.56
-35.70
-40.96
-45.78
-50.74
-56.44
-63.55
-72.62
-83.76
-96.19
-107.99
-116.29
-118.05
-111.15
-95.29
-72.21
-45.12
-17.60
7.55
28.92
46.41
60.68
72.46
82.14
89.69
94.96
97.88
98.58
97.32
94.39
90.00
84.45
78.13
71.67
65.80
61.14
57.88
55.69
53.82
51.40
47.76
42.73
36.61
29.95
23.26
16.79
10.46
3.97
-2.97
-10.47
-18.41
-26.48
-34.33
-41.71
-48.55
-54.99
-61.40
-68.40
-76.77
-87.21
-99.81
-113.54
-126.06
-134.03
-134.22
-124.75
-105.97
-80.39
-51.81
-23.92
0.87
21.78
39.16
53.74
65.98
75.88
83.30
88.26
91.03
92.02
91.49
89.49
85.94
80.81
74.38
67.30
60.47
54.80
50.90
48.88
48.21
47.84
46.59
43.53
38.34
31.47
23.86
16.56
10.33
5.32
1.10
-3.16
-8.25
-14.64
-22.26
-30.54
-38.73
-46.16
-52.55
-58.16
-63.63
-69.80
-77.56
-87.48
-99.52
-112.70
-124.91
-133.23
-134.70
-127.31
-110.94
-87.46
-60.20
-32.68
-7.58
13.91
31.86
46.93
59.69
70.24
78.37
83.86
86.76
87.46
86.46
84.20
80.88
76.59
71.41
65.62
59.74
54.49
50.54
48.29
47.62
47.87
47.94
46.68
43.26
37.52
30.05
21.99
14.60
8.79
4.75
1.87
-0.93
-4.81
-10.42
-17.70
-25.94
-34.08
-41.27
-47.09
-51.78
-56.04
-60.85
-67.24
-75.92
-86.90
-99.09
-110.18
-117.03
-116.60
-107.08
-88.75
-64.06
-36.77
-10.68
11.59
29.06
42.17
51.96
59.32
64.60
67.74
68.63
67.39
64.48
60.57
56.27
51.97
47.79
43.77
40.02
36.79
34.39
32.94
32.21
31.52
30.00
26.93
22.10
15.94
9.31
3.12
-2.12
-6.51
-10.68
-15.40
-21.23
-28.18
-35.74
-43.13
-49.63
-54.92
-59.14
-62.97
-67.43
-73.65
-82.53
-94.10
-107.21
-119.31
-127.00
-127.02
-117.52
-98.79
-73.35
-44.98
-17.46
6.53
25.96
41.07
52.70
61.57
68.03
72.14
73.94
73.74
72.01
69.32
66.01
62.25
58.03
53.37
48.52
43.88
40.01
37.29
35.78
35.09
34.49
33.09
30.19
25.53
19.42
12.65
6.13
0.60
-3.75
-7.29
-10.85
-15.34
-21.37
-29.00
-37.65
-46.38
-54.24
-60.66
-65.71
-70.07
-74.88
-81.34
-90.35
-102.05
-115.38
-128.06
-136.87
-138.54
-130.84
-113.49
-88.40
-59.09
-29.48
-2.67
19.76
37.73
51.92
63.10
71.63
77.54
80.79
81.64
80.64
78.44
75.58
72.22
68.29
63.65
58.41
53.05
48.33
45.06
43.65
43.94
45.06
45.77
44.88
41.72
36.43
29.84
23.11
17.20
12.49
8.68
5.03
0.70
-4.85
-11.64
-19.26
-27.05
-34.40
-40.98
-46.83
-52.35
-58.21
-65.26
-74.28
-85.59
-98.67
-111.74
-121.90
-125.78
-120.64
-105.49
-81.73
-52.76
-22.86
4.22
26.41
43.46
56.40
66.51
74.58
80.71
84.54
85.79
84.52
81.23
76.59
71.20
65.53
59.93
54.71
50.15
46.46
43.61
41.31
39.00
36.09
32.13
27.03
21.08
14.80
8.62
2.73
-3.08
-9.28
-16.27
-24.15
-32.55
-40.79
-48.10
-54.01
-58.52
-62.17
-65.91
-70.86
-77.99
-87.66
-99.18
-110.52
-118.55
-119.87
-112.01
-94.52
-69.34
-40.23
-11.53
13.33
32.70
46.71
56.57
63.60
68.54
71.44
72.02
70.18
66.25
61.02
55.42
50.24
45.80
42.01
38.48
34.84
30.89
26.79
22.84
19.36
16.47
13.95
11.26
7.78
2.99
-3.28
-10.71
-18.59
-26.12
-32.65
-38.02
-42.56
-46.94
-52.00
-58.57
-67.31
-78.57
-92.10
-106.61
-119.63
-127.84
-127.92
-117.78
-97.58
-69.78
-38.50
-8.05
18.39
39.49
55.61
68.01
77.85
85.66
91.29
94.32
94.49
92.06
87.71
82.35
76.80
71.56
66.82
62.52
58.48
54.57
50.71
46.86
42.97
38.91
34.43
29.25
23.11
15.84
7.46
-1.80
-11.54
-21.29
-30.66
-39.40
-47.48
-55.09
-62.54
-70.33
-79.08
-89.46
-102.03
-116.72
-132.43
-146.69
-156.12
-157.27
-147.91
-128.00
-99.83
-67.29
-34.53
-4.72
20.62
41.46
58.55
72.71
84.40
93.67
100.40
104.50
106.02
105.15
102.22
97.70
92.18
86.32
80.73
75.83
71.73
68.24
64.94
61.36
57.14
52.12
46.32
39.87
32.84
25.18
16.72
7.35
-2.83
-13.48
-24.04
-34.03
-43.14
-51.49
-59.55
-67.99
-77.62
-89.13
-102.90
-118.62
-134.93
-149.29
-158.37
-158.98
-149.28
-129.60
-102.60
-72.25
-42.39
-15.41
8.24
29.46
49.40
68.48
86.06
100.97
112.22
119.50
123.27
124.21
122.83
119.34
113.74
106.39
98.11
90.17
83.79
79.72
77.76
76.93
75.75
72.83
67.37
59.43
49.83
39.80
30.52
22.65
16.12
10.20
3.81
-3.93
-13.38
-24.12
-35.14
-45.29
-53.75
-60.46
-66.10
-72.04
-79.74
-90.35
-104.14
-120.07
-135.73
-147.63
-152.12
-146.47
-129.95
-104.14
-72.45
-38.99
-7.26
20.67
44.24
63.89
80.29
93.82
104.45
112.01
116.41
117.86
116.78
113.64
108.87
102.85
95.95
88.71
81.79
75.92
71.64
69.07
67.79
66.83
65.05
61.51
55.82
48.35
40.01
31.91
24.79
18.78
13.35
7.63
0.84
-7.30
-16.49
-26.02
-35.04
-43.02
-49.80
-55.74
-61.60
-68.35
-76.97
-88.05
-101.28
-115.07
-126.68
-132.70
-130.21
-117.81
-96.30
-68.47
-38.19
-9.15
16.17
36.81
53.03
65.56
75.04
81.68
85.45
86.39
84.84
81.46
77.05
72.28
67.50
62.80
58.10
53.40
48.93
45.12
42.40
40.87
40.13
39.30
37.34
33.48
27.62
20.41
12.97
6.37
1.11
-3.09
-7.14
-12.11
-18.67
-26.81
-35.86
-44.82
-52.81
-59.41
-64.80
-69.67
-75.02
-81.91
-91.19
-103.11
-116.84
-130.32
-140.42
-143.71
-137.69
-121.69
-97.32
-67.88
-37.22
-8.51
16.51
37.51
54.97
69.45
81.20
90.09
95.99
98.94
99.34
97.73
94.66
90.52
85.51
79.83
73.75
67.75
62.41
58.29
55.64
54.37
53.93
53.41
51.84
48.43
42.89
35.52
27.19
19.01
11.89
6.24
1.79
-2.29
-6.98
-13.01
-20.57
-29.23
-38.20
-46.64
-53.95
-59.99
-65.07
-69.91
-75.42
-82.56
-92.00
-103.76
-116.75
-128.71
-136.54
-137.09
-128.30
-110.05
-84.33
-54.65
-24.84
2.09
24.67
42.87
57.47
69.29
78.75
85.79
90.22
92.00
91.38
88.88
85.06
80.36
75.09
69.45
63.68
58.12
53.18
49.28
46.65
45.23
44.56
43.83
42.10
38.64
33.21
26.23
18.64
11.60
5.89
1.68
-1.60
-4.94
-9.33
-15.27
-22.59
-30.53
-38.12
-44.58
-49.63
-53.56
-57.18
-61.52
-67.60
-76.13
-87.13
-99.63
-111.49
-119.77
-121.42
-114.34
-98.22
-74.87
-47.66
-20.45
3.64
22.87
37.08
47.05
53.78
58.04
60.15
60.25
58.44
55.10
50.67
45.65
40.39
35.09
29.83
24.76
20.11
16.20
13.29
11.34
10.03
8.80
7.03
4.43
1.12
-2.41
-5.56
-8.01
-9.94
-12.04
-15.17
-19.95
-26.40
-33.92
-41.57
-48.44
-54.02
-58.35
-61.97
-65.73
-70.59
-77.37
-86.31
-96.75
-106.83
-113.75
-114.54
-107.07
-91.01
-68.06
-41.40
-14.68
9.18
28.63
43.53
54.58
62.75
68.72
72.82
75.10
75.62
74.56
72.24
69.06
65.35
61.37
57.29
53.25
49.43
46.00
43.09
40.60
38.23
35.50
31.94
27.30
21.70
15.58
9.47
3.78
-1.47
-6.63
-12.29
-18.92
-26.63
-35.06
-43.53
-51.32
-58.01
-63.66
-68.80
-74.33
-81.26
-90.38
-101.82
-114.71
-126.98
-135.71
-137.89
-131.40
-115.90
-93.05
-65.92
-38.01
-12.12
10.22
28.74
43.89
56.27
66.26
73.96
79.39
82.67
84.06
83.87
82.30
79.49
75.54
70.67
65.33
60.18
55.92
53.03
51.55
50.99
50.42
48.79
45.39
40.07
33.35
26.11
19.20
13.03
7.43
1.81
-4.48
-11.81
-20.09
-28.83
-37.37
-45.19
-52.12
-58.35
-64.43
-71.09
-79.12
-89.18
-101.34
-114.71
-127.30
-136.17
-138.25
-131.43
-115.34
-91.69
-63.64
-34.71
-7.65
16.11
36.42
53.70
68.40
80.63
90.27
97.22
101.54
103.50
103.42
101.58
98.23
93.65
88.27
82.68
77.51
73.35
70.48
68.86
68.03
67.29
65.85
63.15
59.04
53.86
48.20
42.68
37.64
33.08
28.72
24.26
19.58
14.83
10.34
6.55
3.88
2.75
3.62
6.89
12.76
21.12
31.56
43.69
57.38
72.84
90.41
110.14
131.36
152.61
171.89
187.17
196.83
199.85
195.75
184.56
166.81
143.56
116.47
87.40
58.12
29.90
3.48
-20.68
-42.08
-60.13
-74.25
-84.10
-89.86
-92.17
-91.98
-90.50
-88.98
-88.60
-90.14
-93.68
-98.45
-103.05
-106.09
-106.89
-105.80
-104.01
-102.79
-102.77
-103.79
-105.22
-106.78
-109.17
-114.03
-123.68
-140.77
-167.87
-206.82
-257.76
-317.82
-380.64
-437.07
-477.41
-494.76
-487.41
-459.34
-418.28
-372.44
-327.60
-286.15
-247.89
-211.68
-177.15
-145.02
-116.30
-91.21
-68.67
-46.80
-24.17
-0.53
23.78
47.44
68.91
87.02
101.48
113.02
122.88
131.91
139.95
147.22
153.25
156.89
156.54
151.06
140.47
126.08
109.62
92.58
78.22
69.09
66.20
68.75
75.05
84.05
96.02
112.19
134.11
166.17
211.60
270.76
339.74
411.73
479.90
539.92
590.94
614.89
599.56
543.31
458.50
363.64
272.95
192.97
124.98
68.21
21.40
-13.87
-36.97
-48.84
-52.98
-54.24
-56.79
-63.00
-73.40
-87.37
-100.88
-112.08
-120.57
-128.50
-139.32
-155.94
-179.67
-210.44
-247.35
-283.18
-312.36
-328.98
-328.52
-309.59
-275.02
-231.64
-188.31
-152.94
-128.84
-115.22
-107.85
-102.47
-96.91
-91.08
-86.58
-83.48
-80.96
-77.33
-71.77
-64.47
-57.07
-51.90
-50.64
-53.69
-59.94
-67.51
-74.44
-79.76
-83.39
-86.19
-89.54
-94.12
-99.97
-106.28
-111.86
-115.44
-116.26
-113.84
-107.80
-100.93
-94.41
-88.64
-83.33
-77.86
-71.65
-64.42
-56.29
-47.65
-39.05
-30.34
-21.25
-11.29
0.01
12.90
27.33
42.95
59.18
75.41
91.53
107.51
123.49
139.75
156.77
175.07
194.99
216.25
237.64
257.33
272.94
282.37
284.46
279.33
268.21
252.79
234.57
214.53
193.34
171.59
150.04
129.82
112.01
97.42
86.47
79.23
75.38
74.05
73.51
71.28
64.78
52.01
32.30
6.56
-22.90
-53.06
-80.93
-104.26
-121.84
-133.33
-139.68
-143.02
-146.06
-150.87
-157.82
-165.12
-169.49
-167.43
-155.68
-133.31
-102.12
-65.86
-28.71
6.08
36.69
62.42
83.04
100.72
116.99
132.08
144.75
153.38
157.49
158.38
158.64
161.13
171.52
193.04
225.28
264.11
304.06
341.12
373.61
401.54
425.29
449.48
477.01
507.76
538.18
563.73
581.62
591.65
595.44
565.20
485.34
356.71
199.04
39.45
-100.96
-212.42
-294.10
-349.90
-385.39
-401.81
-401.32
-388.22
-369.57
-354.00
-347.72
-353.44
-370.62
-395.88
-420.05
-433.70
-425.65
-393.48
-343.50
-287.14
-236.30
-199.13
-178.00
-167.94
-161.97
-154.82
-145.62
-136.58
-130.11
-127.14
-126.91
-127.66
-126.77
-122.64
-116.05
-108.02
-99.71
-91.26
-81.59
-68.85
-51.24
-28.01
-0.52
27.97
53.37
72.51
85.00
93.41
100.70
110.37
123.39
137.28
147.21
148.73
139.89
122.32
100.18
78.05
59.25
44.68
33.64
24.03
14.63
4.85
-5.30
-16.03
-28.17
-42.97
-61.58
-83.61
-106.82
-126.33
-136.38
-132.49
-114.19
-85.79
-54.98
-29.83
-15.12
-11.78
-14.36
-16.56
-12.82
-1.55
14.52
30.29
40.60
43.40
36.24
17.10
-15.09
-58.56
-108.84
-156.90
-192.82
-209.62
-199.49
-164.96
-117.71
-72.74
-40.07
-21.20
-12.00
-4.63
6.68
26.11
54.32
90.21
130.43
169.82
202.05
221.57
225.68
210.84
181.50
146.92
117.12
97.83
89.26
88.23
91.36
96.38
101.97
108.18
113.80
116.99
116.39
111.98
105.28
98.65
94.20
91.79
91.15
90.99
89.79
86.59
81.41
75.42
70.45
67.48
66.60
67.62
69.42
70.46
69.28
64.21
53.94
41.32
27.84
14.27
1.02
-11.95
-24.77
-37.27
-50.44
-64.14
-76.94
-87.15
-93.40
-94.95
-91.70
-83.69
-70.96
-56.81
-43.37
-30.74
-18.09
-5.11
7.17
16.87
22.29
22.28
11.21
-13.77
-51.24
-96.83
-146.50
-198.69
-254.16
-314.57
-380.59
-457.18
-543.25
-630.08
-704.64
-756.43
-781.60
-782.88
-767.03
-698.40
-566.61
-389.64
-204.16
-41.43
84.65
174.26
234.25
273.00
298.35
310.02
309.04
298.87
288.17
284.08
290.08
305.82
327.68
349.91
360.94
352.98
325.61
285.83
243.51
206.99
182.84
173.55
177.30
185.97
192.20
192.62
188.43
182.69
178.23
176.58
177.78
181.00
183.61
183.89
181.54
177.19
171.14
163.26
153.84
144.13
136.58
133.29
135.33
141.72
149.27
153.51
150.68
139.66
122.27
102.27
83.48
68.20
56.70
47.95
40.80
34.76
30.00
26.57
23.55
18.78
9.35
-7.73
-34.78
-72.96
-121.74
-178.29
-237.26
-291.35
-332.76
-355.42
-356.93
-339.25
-307.83
-269.70
-231.14
-196.48
-167.81
-145.59
-129.45
-118.49
-111.31
-105.90
-99.94
-91.37
-79.19
-63.92
-47.55
-33.16
-23.95
-22.23
-28.48
-41.10
-56.73
-71.31
-81.48
-85.52
-83.87
-78.71
-72.97
-69.22
-68.68
-70.95
-74.44
-77.15
-77.69
-75.77
-72.21
-68.40
-65.61
-64.46
-64.75
-65.78
-66.77
-67.27
-67.21
-66.60
-65.08
-61.68
-55.16
-44.51
-29.72
-12.06
6.17
22.42
34.80
42.59
46.27
46.95
45.83
43.80
41.38
38.94
36.70
34.71
32.82
30.65
27.79
24.05
19.46
14.29
8.83
3.30
-2.24
-7.91
-13.94
-20.79
-28.83
-38.12
-48.04
-57.05
-63.03
-63.85
-58.26
-46.39
-29.85
-11.06
7.51
24.04
37.75
48.58
56.92
63.10
67.29
69.49
69.80
68.44
65.76
62.18
58.01
53.42
48.49
43.29
37.94
32.62
27.47
22.49
17.44
12.00
5.84
-1.17
-8.85
-16.84
-24.68
-32.09
-39.15
-46.25
-54.00
-62.81
-72.58
-82.44
-90.79
-95.69
-95.42
-89.10
-76.97
-60.35
-41.12
-21.20
-2.08
15.39
30.87
44.21
55.29
63.86
69.64
72.43
72.33
69.71
65.25
59.79
54.27
49.52
46.14
44.29
43.64
43.40
42.48
39.85
34.88
27.60
18.68
9.19
0.17
-7.72
-14.37
-20.19
-25.89
-32.30
-40.12
-49.76
-61.06
-73.10
-84.11
-91.74
-93.72
-88.70
-76.71
-59.20
-38.36
-16.34
5.37
26.05
45.25
62.37
76.42
86.41
91.80
92.99
91.19
87.95
84.51
81.44
78.58
75.44
71.64
67.18
62.44
57.90
53.97
50.68
47.67
44.24
39.60
33.12
24.57
14.30
3.16
-7.82
-17.76
-26.26
-33.55
-40.42
-47.94
-57.16
-68.71
-82.54
-97.60
-111.75
-122.06
-125.45
-119.60
-103.80
-79.34
-49.18
-17.04
13.68
40.68
62.98
80.63
94.08
103.74
109.80
112.37
111.73
108.49
103.54
97.88
92.38
87.57
83.57
80.17
77.00
73.74
70.21
66.35
62.20
57.75
52.92
47.55
41.48
34.61
26.98
18.78
10.28
1.72
-6.71
-15.01
-23.29
-31.71
-40.42
-49.53
-59.12
-69.43
-80.79
-93.45
-107.15
-120.69
-131.78
-137.61
-135.65
-124.76
-105.59
-80.36
-51.95
-22.93
5.05
31.21
55.09
76.15
93.58
106.59
114.83
118.60
118.68
116.05
111.52
105.78
99.38
92.95
87.09
82.28
78.66
75.97
73.62
70.90
67.23
62.35
56.31
49.51
42.41
35.43
28.67
21.95
14.88
7.08
-1.56
-10.77
-20.05
-28.88
-36.99
-44.51
-51.96
-60.15
-69.87
-81.55
-94.85
-108.35
-119.56
-125.45
-123.28
-111.65
-91.15
-64.26
-34.66
-5.96
19.24
39.83
55.95
68.29
77.48
83.71
86.87
86.93
84.17
79.33
73.31
67.04
61.16
56.05
51.85
48.53
45.98
43.89
41.86
39.38
36.02
31.60
26.25
20.34
14.29
8.35
2.48
-3.55
-10.05
-17.15
-24.81
-32.74
-40.59
-48.07
-55.03
-61.59
-68.08
-75.13
-83.50
-93.77
-105.86
-118.52
-129.27
-134.84
-132.32
-120.18
-99.10
-71.72
-41.77
-12.75
12.96
34.41
51.73
65.35
75.57
82.37
85.76
86.01
83.88
80.36
76.42
72.60
69.01
65.40
61.46
57.15
52.81
48.96
46.11
44.28
43.03
41.52
38.89
34.69
29.00
22.44
15.77
9.61
4.10
-1.06
-6.51
-12.82
-20.29
-28.76
-37.71
-46.48
-54.53
-61.67
-68.15
-74.56
-81.72
-90.44
-101.28
-114.14
-127.93
-140.46
-148.72
-149.69
-141.44
-123.88
-98.98
-70.13
-41.00
-14.46
8.07
26.46
41.35
53.52
63.43
71.27
77.07
80.88
82.85
83.25
82.32
80.35
77.66
74.61
71.64
69.19
67.60
66.95
66.92
66.88
66.02
63.63
59.46
53.81
47.39
41.01
35.18
29.95
24.80
19.03
12.03
3.65
-5.81
-15.69
-25.26
-34.05
-41.94
-49.25
-56.69
-65.17
-75.51
-87.98
-101.78
-114.80
-123.91
-125.84
-118.38
-101.36
-76.88
-48.60
-20.47
4.52
24.99
41.03
53.49
63.19
70.54
75.55
78.17
78.51
76.99
74.14
70.50
66.46
62.28
58.19
54.42
51.21
48.71
46.87
45.35
43.68
41.29
37.81
33.16
27.52
21.26
14.67
7.85
0.66
-7.09
-15.46
-24.30
-33.21
-41.77
-49.69
-57.01
-64.06
-71.37
-79.61
-89.38
-101.00
-114.09
-127.26
-138.00
-143.14
-139.87
-126.79
-104.71
-76.56
-46.50
-18.48
4.86
22.74
35.86
45.53
52.83
58.13
61.22
61.76
59.74
55.69
50.67
45.83
42.05
39.64
38.31
37.39
36.12
33.99
30.87
26.94
22.56
18.00
13.28
8.17
2.29
-4.65
-12.73
-21.64
-30.87
-39.85
-48.20
-55.88
-63.15
-70.46
-78.29
-87.10
-97.34
-109.38
-123.21
-138.07
-152.05
-162.20
-165.20
-158.52
-141.46
-115.62
-84.45
-52.06
-21.92
4.04
25.50
43.17
57.98
70.55
80.98
89.14
94.89
98.28
99.57
99.06
97.09
94.01
90.21
86.17
82.46
79.56
77.64
76.49
75.47
73.71
70.43
65.28
58.45
50.57
42.40
34.43
26.71
18.85
10.33
0.81
-9.65
-20.57
-31.36
-41.53
-51.07
-60.40
-70.44
-82.23
-96.69
-114.04
-133.38
-152.37
-167.46
-174.80
-171.39
-156.28
-130.99
-99.04
-64.70
-31.57
-1.72
24.43
47.37
67.74
85.70
100.92
112.86
121.22
125.98
127.48
126.17
122.51
116.98
110.12
102.63
95.39
89.30
84.98
82.48
81.22
80.10
77.94
73.89
67.79
60.21
52.15
44.55
37.91
32.05
26.23
19.49
11.08
0.74
-11.16
-23.83
-36.39
-48.27
-59.44
-70.44
-82.24
-95.91
-112.06
-130.36
-149.04
-164.96
-174.24
-173.43
-160.83
-137.19
-105.71
-70.80
-36.73
-6.30
19.49
41.07
59.34
74.98
88.01
98.08
104.81
108.12
108.29
105.91
101.71
96.44
90.84
85.53
81.00
77.51
74.98
73.04
71.14
68.69
65.27
60.67
54.98
48.37
41.05
33.09
24.38
14.82
4.34
-6.89
-18.47
-29.88
-40.64
-50.51
-59.60
-68.46
-78.00
-89.27
-103.02
-119.13
-136.03
-150.61
-158.85
-157.10
-143.48
-118.81
-86.50
-51.38
-18.03
10.55
33.47
51.43
65.71
77.23
86.17
92.14
94.78
94.12
90.80
85.90
80.60
75.88
72.23
69.58
67.47
65.24
62.37
58.70
54.42
49.95
45.57
41.26
36.66
31.13
24.15
15.53
5.51
-5.32
-16.22
-26.60
-36.21
-45.15
-53.90
-63.17
-73.71
-86.23
-101.12
-118.07
-135.73
-151.48
-161.79
-163.02
-152.74
-130.72
-99.30
-62.74
-25.91
7.24
34.61
55.99
72.41
85.08
94.74
101.46
105.00
105.25
102.61
98.06
92.81
87.97
84.15
81.37
79.17
76.89
74.03
70.43
66.28
61.88
57.39
52.67
47.22
40.44
31.87
21.47
9.74
-2.41
-13.99
-24.34
-33.32
-41.41
-49.44
-58.39
-69.10
-82.23
-98.07
-116.26
-135.33
-152.47
-163.83
-165.56
-155.15
-132.65
-100.93
-64.81
-29.42
1.39
25.93
44.53
58.65
69.71
78.49
85.05
89.06
90.35
89.18
86.25
82.46
78.59
75.05
71.82
68.57
64.91
60.65
55.92
51.16
46.84
43.09
39.54
35.32
29.40
21.12
10.46
-1.79
-14.41
-26.22
-36.55
-45.48
-53.72
-62.20
-71.87
-83.49
-97.59
-114.18
-132.39
-150.06
-163.74
-169.47
-164.05
-146.46
-118.42
-83.96
-48.03
-14.79
13.47
36.38
54.82
69.87
82.12
91.64
98.30
102.20
103.76
103.65
102.37
100.16
96.93
92.48
86.78
80.04
72.84
65.96
60.12
55.71
52.49
49.60
45.76
39.70
30.71
18.97
5.49
-8.23
-20.82
-31.54
-40.51
-48.65
-57.23
-67.62
-80.89
-97.50
-116.91
-137.27
-155.30
-166.88
-168.20
-157.08
-134.06
-102.32
-66.69
-32.04
-1.86
22.42
41.16
55.76
67.77
78.29
87.83
96.28
103.15
107.83
109.76
108.80
105.27
99.84
93.25
86.09
78.73
71.41
64.42
58.15
52.91
48.65
44.81
40.33
34.11
25.35
13.97
0.72
-13.20
-26.55
-38.52
-48.98
-58.39
-67.58
-77.43
-88.72
-102.04
-117.68
-135.26
-153.33
-169.13
-178.96
-179.23
-167.72
-144.67
-112.78
-76.42
-40.07
-7.02
21.26
44.88
64.69
81.44
95.45
106.60
114.72
119.76
121.88
121.30
118.30
113.19
106.50
99.00
91.67
85.32
80.45
76.92
74.11
71.10
67.03
61.43
54.30
46.12
37.51
28.97
20.61
12.12
3.00
-7.18
-18.48
-30.47
-42.48
-53.81
-64.14
-73.61
-82.86
-92.86
-104.60
-118.77
-135.21
-152.50
-167.89
-177.72
-178.41
-167.71
-145.64
-114.59
-78.57
-41.93
-8.02
21.41
46.10
66.59
83.53
97.31
107.99
115.59
120.24
122.23
121.89
119.53
115.41
109.89
103.46
96.84
90.79
85.96
82.55
80.24
78.22
75.47
71.09
64.66
56.43
47.11
37.58
28.48
19.93
11.55
2.73
-7.02
-17.75
-29.07
-40.26
-50.67
-59.96
-68.31
-76.36
-85.14
-95.68
-108.68
-123.83
-139.46
-152.48
-159.00
-155.56
-140.42
-114.46
-81.05
-44.96
-10.75
18.48
41.68
59.40
72.89
83.20
90.80
95.64
97.58
96.69
93.34
88.14
81.81
74.99
68.23
61.96
56.41
51.66
47.54
43.76
39.94
35.76
31.05
25.80
20.10
14.04
7.61
0.68
-6.92
-15.20
-24.01
-32.97
-41.68
-49.83
-57.32
-64.30
-71.16
-78.50
-87.14
-97.90
-111.14
-126.19
-140.84
-151.58
-154.42
-146.35
-126.64
-97.37
-62.81
-28.01
2.85
27.57
46.00
59.38
69.16
76.28
80.95
82.93
82.09
78.73
73.58
67.59
61.58
56.06
51.21
46.99
43.29
39.99
36.91
33.85
30.58
26.93
22.82
18.30
13.39
8.05
2.10
-4.67
-12.42
-21.10
-30.41
-39.93
-49.25
-58.08
-66.35
-74.21
-82.05
-90.51
-100.44
-112.55
-126.90
-142.27
-155.91
-164.03
-162.90
-150.28
-126.43
-94.17
-57.93
-22.23
9.66
36.29
57.79
75.06
89.00
100.09
108.39
113.82
116.31
116.01
113.28
108.59
102.59
95.93
89.31
83.29
78.32
74.61
72.03
70.09
68.03
64.97
60.24
53.66
45.56
36.63
27.53
18.60
9.68
0.40
-9.60
-20.26
-31.15
-41.60
-51.10
-59.54
-67.30
-75.19
-84.20
-95.38
-109.45
-126.25
-144.26
-160.41
-170.55
-170.68
-158.45
-134.19
-101.02
-63.74
-27.18
5.28
32.29
54.20
72.07
86.82
98.80
107.84
113.68
116.24
115.69
112.49
107.20
100.48
93.03
85.52
78.55
72.54
67.64
63.67
60.21
56.68
52.53
47.41
41.22
34.11
26.31
18.02
9.27
-0.05
-10.06
-20.77
-31.92
-43.05
-53.57
-63.07
-71.49
-79.37
-87.72
-97.88
-110.87
-126.71
-143.75
-158.60
-166.83
-164.40
-149.28
-122.41
-87.58
-50.10
-14.91
14.86
38.40
56.57
70.78
81.99
90.35
95.48
97.10
95.40
91.09
85.22
78.79
72.59
67.00
62.06
57.57
53.23
48.84
44.32
39.80
35.44
31.22
26.91
21.98
15.81
7.91
-1.86
-13.13
-25.20
-37.16
-48.30
-58.30
-67.34
-76.02
-85.22
-95.92
-108.97
-124.72
-142.58
-160.63
-175.57
-183.39
-180.54
-165.35
-138.81
-104.43
-67.10
-31.42
-0.48
24.72
44.77
60.95
74.26
85.06
93.21
98.41
100.64
100.26
97.89
94.29
90.11
85.83
81.76
77.98
74.51
71.20
67.90
64.43
60.59
56.26
51.27
45.51
38.82
31.05
22.07
11.92
0.83
-10.78
-22.41
-33.61
-44.23
-54.44
-64.73
-75.77
-88.31
-103.02
-120.22
-139.44
-158.91
-175.54
-185.31
-184.48
-170.98
-145.30
-110.60
-71.55
-32.83
2.25
32.28
57.37
78.30
95.77
110.04
121.11
128.95
133.71
135.69
135.22
132.57
127.98
121.83
114.69
107.37
100.77
95.58
91.99
89.52
87.11
83.49
77.66
69.38
59.21
48.28
37.69
28.02
19.06
10.04
0.03
-11.53
-24.52
-38.19
-51.59
-63.97
-75.12
-85.46
-95.97
-107.90
-122.43
-140.07
-160.14
-180.22
-196.46
-204.33
-200.13
-182.44
-152.82
-115.34
-75.29
-37.36
-4.44
22.75
45.13
64.28
81.51
97.47
112.13
125.06
135.64
143.33
147.73
148.71
146.44
141.41
134.49
126.80
119.62
114.05
110.70
109.36
108.99
108.00
104.85
98.63
89.42
78.29
66.78
56.21
47.14
39.16
31.12
21.80
10.44
-2.79
-16.97
-30.88
-43.51
-54.54
-64.42
-74.17
-85.13
-98.51
-114.91
-133.77
-152.98
-168.96
-177.40
-174.62
-158.90
-131.37
-95.69
-56.92
-19.81
12.42
38.64
59.38
75.83
89.09
99.66
107.52
112.50
114.59
114.02
111.22
106.77
101.19
95.05
88.84
83.06
78.03
73.85
70.29
66.92
63.24
58.90
53.77
47.93
41.46
34.35
26.40
17.40
7.23
-3.95
-15.66
-27.27
-38.22
-48.15
-57.13
-65.56
-74.23
-84.11
-96.22
-111.12
-128.40
-146.17
-161.00
-168.63
-165.37
-149.50
-122.21
-87.41
-50.36
-15.98
12.68
34.86
51.54
64.32
74.37
81.99
86.86
88.58
87.14
83.15
77.58
71.46
65.62
60.53
56.31
52.88
50.01
47.39
44.73
41.73
38.18
33.93
28.87
22.90
15.93
7.91
-1.12
-10.95
-21.21
-31.52
-41.53
-51.04
-60.03
-68.61
-77.06
-85.79
-95.41
-106.71
-120.33
-136.21
-153.04
-167.94
-176.95
-176.15
-163.12
-138.07
-103.99
-65.69
-28.20
4.69
31.30
51.75
67.26
79.12
88.22
94.90
99.20
101.13
100.82
98.57
94.77
89.89
84.42
78.87
73.73
69.37
65.99
63.46
61.30
58.80
55.23
50.14
43.53
35.85
27.71
19.53
11.35
2.84
-6.43
-16.69
-27.78
-39.26
-50.53
-61.17
-71.03
-80.31
-89.57
-99.67
-111.69
-126.46
-143.81
-162.02
-177.58
-185.96
-183.05
-166.87
-138.47
-101.75
-62.05
-24.25
8.60
35.64
57.51
75.32
89.83
101.28
109.69
115.25
118.48
119.89
119.80
118.14
114.65
109.22
102.22
94.53
87.31
81.58
77.71
75.31
73.28
70.31
65.39
58.29
49.53
40.13
31.04
22.65
14.72
6.52
-2.71
-13.31
-25.01
-37.11
-48.76
-59.37
-68.86
-77.61
-86.41
-96.28
-108.22
-122.88
-139.96
-157.72
-172.90
-181.29
-178.99
-163.93
-136.83
-101.06
-61.58
-23.17
10.85
39.17
62.06
80.45
95.18
106.68
115.09
120.58
123.47
124.16
122.92
119.90
115.11
108.68
101.06
93.03
85.58
79.59
75.45
72.88
70.97
68.47
64.28
57.92
49.67
40.43
31.32
23.16
16.06
9.44
2.29
-6.31
-16.66
-28.36
-40.39
-51.64
-61.39
-69.60
-77.01
-84.89
-94.64
-107.38
-123.35
-141.39
-158.66
-170.97
-173.87
-164.18
-141.33
-107.91
-68.89
-29.95
4.33
31.62
51.88
66.51
77.10
84.67
89.48
91.44
90.57
87.22
82.10
75.97
69.45
63.01
56.95
51.55
47.00
43.36
40.43
37.75
34.67
30.60
25.13
18.24
10.22
1.55
-7.34
-16.28
-25.37
-34.90
-45.18
-56.32
-68.13
-80.14
-91.80
-102.76
-113.06
-123.28
-134.53
-147.98
-164.25
-182.61
-200.54
-213.98
-218.43
-210.56
-189.70
-158.22
-120.80
-82.62
-47.68
-17.91
6.77
27.33
44.67
58.92
69.67
76.60
80.05
81.11
80.99
80.45
79.54
77.90
75.40
72.78
71.35
72.29
75.23
77.81
76.49
68.40
53.10
32.53
9.91
-12.59
-34.24
-56.00
-78.97
-102.85
-125.66
-144.88
-159.97
-172.60
-186.62
-204.00
-224.01
-243.02
-256.14
-259.73
-252.69
-237.47
-216.79
-193.45
-166.33
-133.01
-91.67
-42.81
10.39
64.05
114.10
160.75
205.53
253.47
308.25
370.38
437.12
503.78
566.68
622.41
671.94
691.57
661.57
574.80
444.84
299.72
165.51
68.73
3.16
-41.19
-72.99
-93.98
-102.54
-100.77
-90.74
-76.87
-64.26
-58.55
-59.62
-65.71
-72.29
-75.69
-74.37
-68.88
-61.54
-54.36
-49.49
-44.82
-38.37
-27.96
-13.00
5.44
25.26
43.52
57.80
59.99
48.12
25.44
-0.36
-21.56
-34.03
-37.51
-34.40
-27.89
-21.15
-14.81
-9.08
-4.34
-0.77
1.78
3.83
6.01
8.57
11.12
13.91
16.78
18.60
18.82
17.67
15.40
12.37
8.46
2.81
-5.28
-16.43
-31.63
-50.29
-70.78
-91.33
-110.50
-128.00
-144.71
-161.75
-174.62
-184.89
-194.76
-205.82
-217.87
-228.18
-231.95
-224.04
-201.30
-164.98
-121.85
-80.55
-48.56
-29.52
-22.28
-22.52
-25.48
-27.90
-29.00
-30.02
-31.49
-32.71
-32.76
-30.16
-24.96
-18.62
-12.87
-9.33
-8.98
-11.29
-14.92
-18.48
-21.20
-23.34
-25.90
-29.57
-34.87
-41.87
-49.90
-57.99
-65.36
-71.66
-77.08
-82.07
-86.36
-89.59
-91.30
-91.09
-88.82
-84.60
-78.45
-69.62
-60.40
-50.69
-39.73
-26.85
-12.18
3.06
16.92
27.57
34.23
37.78
41.15
47.61
59.40
76.65
97.16
117.34
133.65
144.22
149.48
152.37
156.44
164.77
179.10
199.54
224.30
249.26
267.98
272.64
256.84
218.47
162.14
98.80
42.16
3.35
-13.64
-13.04
-4.31
3.36
5.49
3.57
2.45
5.95
13.38
19.51
17.54
3.40
-21.35
-49.56
-71.65
-79.74
-70.81
-47.35
-15.56
17.62
47.12
70.79
89.02
103.46
115.94
127.74
139.23
149.87
158.18
162.21
160.08
150.97
135.61
116.32
96.17
77.84
62.60
50.07
38.87
27.65
16.02
4.76
-4.81
-11.75
-16.28
-19.89
-24.78
-33.03
-45.70
-62.30
-80.62
-97.11
-107.61
-108.42
-97.44
-74.94
-43.60
-7.67
28.44
61.60
90.54
115.47
137.05
155.14
168.33
174.49
171.90
160.17
140.61
115.61
87.70
58.80
29.79
0.76
-28.44
-57.76
-86.76
-114.76
-141.01
-164.74
-184.94
-200.60
-211.11
-216.78
-219.10
-220.68
-224.59
-233.36
-248.05
-266.96
-286.50
-302.08
-309.41
-305.52
-289.15
-260.78
-222.31
-176.65
-125.93
-72.62
-19.71
29.31
71.10
103.51
126.19
140.43
148.71
155.70
165.25
179.15
196.50
214.53
230.20
241.44
247.78
250.31
253.78
262.77
279.86
304.22
332.10
358.43
378.83
390.68
378.93
336.66
267.49
185.95
109.42
48.99
6.64
-21.57
-41.38
-57.28
-68.93
-74.89
-73.96
-66.92
-55.82
-44.33
-35.47
-31.38
-33.47
-40.88
-53.16
-69.46
-87.95
-105.14
-116.14
-116.41
-104.99
-86.40
-64.82
-49.30
-47.95
-63.81
-92.99
-126.41
-153.99
-169.21
-171.35
-163.85
-152.72
-142.88
-136.99
-135.70
-138.34
-143.22
-147.67
-147.84
-139.03
-117.72
-82.78
-36.87
13.65
60.52
96.16
116.04
119.92
111.47
96.24
80.27
68.30
62.72
63.49
68.73
75.72
81.85
85.16
84.10
77.86
66.38
50.33
31.13
10.58
-9.51
-27.82
-43.87
-58.33
-72.23
-86.36
-101.04
-116.26
-131.89
-147.45
-161.74
-172.47
-177.41
-173.84
-159.23
-132.15
-93.37
-46.42
3.02
48.54
84.58
105.87
110.70
101.63
84.84
67.12
53.28
44.88
40.46
36.75
26.79
4.60
-32.90
-84.87
-147.29
-213.75
-275.91
-324.67
-352.74
-361.48
-357.05
-347.49
-339.05
-335.11
-336.19
-340.48
-344.73
-319.60
-248.38
-133.75
2.27
134.11
246.02
333.77
399.60
447.68
481.86
500.64
503.79
492.94
473.26
451.18
431.89
418.00
409.61
404.87
397.71
382.64
356.69
323.77
289.34
258.31
233.82
216.80
206.19
197.38
185.55
167.51
142.91
112.97
79.29
43.01
4.33
-37.49
-84.84
-139.99
-204.38
-278.22
-361.17
-452.02
-547.78
-642.82
-728.79
-796.73
-839.32
-853.43
-841.12
-808.92
-765.17
-716.90
-668.23
-620.34
-572.95
-525.89
-479.89
-436.07
-395.18
-356.84
-319.85
-282.99
-245.77
-208.81
-173.56
-141.57
-113.78
-90.15
-69.81
-51.43
-33.82
-16.37
0.79
17.02
31.52
43.73
53.86
62.47
70.18
77.45
84.58
91.79
99.24
106.89
114.47
121.94
129.11
135.69
141.53
146.92
152.57
159.41
168.03
178.32
190.41
203.68
216.95
228.95
239.03
247.56
255.80
265.37
277.58
295.37
319.26
346.06
368.87
379.52
371.73
343.48
297.74
241.30
188.12
149.47
129.72
125.41
128.81
132.69
132.88
128.69
121.24
121.48
137.74
172.08
220.03
275.01
332.75
392.19
453.95
517.49
592.66
684.57
790.30
898.89
997.30
1076.30
1132.08
1165.00
1111.02
939.00
661.22
332.13
13.67
-254.85
-461.33
-610.58
-706.98
-769.10
-798.55
-794.98
-761.25
-706.96
-644.03
-581.24
-524.58
-475.72
-435.39
-394.03
-344.28
-283.42
-216.08
-150.43
-93.75
-50.38
-21.37
-6.71
0.51
-5.57
-28.70
-69.89
-125.02
-186.45
-246.93
-301.42
-345.07
-377.16
-397.56
-405.54
-402.57
-391.67
-376.04
-359.23
-343.13
-328.81
-315.86
-303.18
-289.06
-273.23
-256.65
-240.84
-227.16
-216.01
-207.17
-200.30
-194.45
-188.02
-179.99
-169.96
-157.89
-143.69
-126.79
-106.47
-82.41
-54.48
-22.73
12.03
48.55
85.42
121.41
155.93
188.97
221.02
253.03
285.73
318.53
348.96
372.88
385.77
384.61
369.32
343.12
311.63
280.96
255.84
238.74
229.92
228.23
231.88
238.87
246.93
253.52
256.06
252.54
242.05
224.98
202.82
177.71
151.92
127.39
105.58
87.39
73.09
62.41
54.60
48.58
43.23
37.60
31.03
23.15
13.86
3.15
-8.84
-21.84
-35.31
-48.55
-60.81
-71.59
-80.57
-87.60
-92.41
-94.39
-92.90
-87.62
-78.97
-67.99
-55.80
-42.84
-28.57
-11.85
7.91
29.67
50.39
65.92
72.72
69.41
57.31
39.55
19.60
-0.13
-18.50
-34.97
-48.56
-57.48
-59.60
-53.71
-40.45
-22.49
-3.71
12.14
22.80
27.73
27.68
23.81
17.00
7.84
-2.97
-13.89
-22.39
-25.36
-20.14
-5.65
17.07
45.01
74.07
100.01
119.15
128.52
125.90
110.05
81.61
43.84
2.63
-34.75
-61.89
-75.39
-75.82
-67.01
-54.09
-41.32
-30.96
-23.42
-18.26
-15.25
-14.70
-17.15
-22.70
-30.76
-40.24
-50.04
-59.39
-67.78
-74.66
-79.14
-80.06
-76.28
-67.19
-53.10
-35.27
-15.61
3.81
21.24
35.47
45.83
52.12
54.45
53.20
49.06
42.89
35.60
27.94
20.33
12.80
5.21
-2.57
-10.45
-17.94
-24.38
-29.16
-32.03
-33.30
-33.78
-34.51
-36.50
-40.39
-46.22
-53.34
-60.42
-65.60
-66.97
-62.99
-53.09
-37.88
-19.11
0.81
19.51
35.25
47.23
55.48
60.49
62.76
62.55
59.96
55.13
48.44
40.58
32.40
24.64
17.62
11.24
5.09
-1.22
-7.77
-14.28
-20.27
-25.38
-29.57
-33.23
-37.02
-41.63
-47.55
-54.94
-63.41
-72.03
-79.26
-83.23
-82.30
-75.54
-63.17
-46.54
-27.79
-9.19
7.45
21.21
31.92
39.90
45.80
50.37
54.48
59.02
64.77
72.10
81.05
91.00
100.68
108.52
113.05
113.40
109.55
102.34
93.12
83.91
76.15
70.10
64.82
58.52
49.38
36.22
18.99
-1.05
-20.19
-34.18
-39.22
-33.03
-15.29
12.48
47.45
86.09
124.88
162.90
199.57
234.14
265.20
291.07
310.77
324.57
333.85
340.41
348.19
359.50
374.15
389.45
401.48
406.94
404.45
394.75
364.15
307.07
226.42
133.87
44.74
-29.19
-83.03
-117.44
-135.75
-141.94
-136.68
-122.60
-103.44
-83.89
-68.59
-60.55
-60.58
-67.85
-81.41
-99.53
-119.75
-142.08
-168.09
-199.38
-235.92
-275.52
-314.72
