1659458880.00
64.000000
-0.00
-0.00
-0.00
-0.00
-0.00
-0.00
-0.00
-0.00
-0.00
-0.00
0.00
0.01
0.01
-0.00
-0.03
-0.05
-0.05
0.00
0.13
0.36
0.66
1.01
1.37
1.72
2.06
2.40
2.79
3.24
3.80
4.42
5.06
5.66
6.20
6.68
7.15
7.68
8.31
9.14
10.09
11.04
11.88
12.56
13.14
13.76
14.65
15.96
17.91
20.32
22.90
25.38
27.58
29.57
31.68
34.32
37.81
42.54
48.15
54.10
59.83
64.97
69.58
74.14
79.35
85.71
93.76
103.00
112.62
121.72
129.76
136.75
143.32
150.78
157.82
166.68
177.94
191.69
206.74
220.20
227.77
224.82
207.98
176.33
132.23
79.49
22.42
-35.72
-93.34
-150.16
-206.25
-261.36
-314.68
-364.80
-410.85
-452.15
-488.06
-517.62
-539.34
-551.40
-552.05
-540.32
-516.15
-480.89
-436.71
-386.14
-331.61
-275.11
-218.17
-162.08
-108.11
-57.48
-11.53
28.75
62.87
90.98
113.74
131.99
146.42
157.33
164.71
168.37
168.36
165.20
159.83
153.32
146.57
140.02
133.54
126.71
119.00
109.98
99.41
87.28
74.18
61.59
51.79
47.33
49.92
59.37
73.32
87.93
99.34
105.15
105.15
100.89
94.50
87.74
81.05
74.14
66.72
59.01
51.74
45.69
41.22
38.01
35.32
32.25
28.39
23.90
19.38
15.53
12.81
11.21
10.29
9.47
8.30
6.68
4.86
3.20
2.01
1.32
0.97
0.69
0.21
-0.63
-1.82
-3.17
-4.32
-4.80
-4.31
-2.85
-0.85
0.99
1.94
1.64
0.21
-1.77
-3.59
-4.72
-4.98
-4.56
-3.80
-3.07
-2.57
-2.37
-2.38
-2.47
-2.54
-2.55
-2.55
-2.63
-2.82
-3.04
-3.17
-3.11
-2.87
-2.55
-2.31
-2.24
-2.28
-2.29
-2.11
-1.66
-1.02
-0.38
0.06
0.19
-0.01
-0.37
-0.64
-0.60
-0.11
0.77
1.88
3.02
4.03
4.83
5.48
6.08
6.74
7.49
8.32
9.16
9.90
10.42
10.59
10.32
9.59
8.42
6.91
5.08
2.93
0.57
-1.87
-4.21
-6.30
-8.04
-9.42
-10.44
-11.11
-11.44
-11.44
-11.15
-10.64
-9.99
-9.31
-8.65
-8.04
-7.52
-7.05
-6.63
-6.21
-5.76
-5.30
-4.89
-4.63
-4.53
-4.55
-4.52
-4.27
-3.73
-3.03
-2.37
-1.98
-1.95
-2.20
-2.51
-2.66
-2.52
-2.12
-1.62
-1.14
-0.77
-0.43
-0.06
0.40
0.89
1.26
1.41
1.30
1.02
0.71
0.47
0.32
0.20
0.05
-0.13
-0.28
-0.32
-0.22
-0.03
0.15
0.30
0.38
0.44
0.51
0.61
0.73
0.81
0.83
0.87
1.06
1.47
2.08
2.72
3.26
3.62
3.77
3.79
3.91
4.33
5.18
6.42
7.90
9.45
10.90
12.14
13.34
14.99
17.68
21.62
26.31
30.72
33.90
35.42
35.47
34.56
33.02
30.59
26.51
20.18
11.70
2.44
-5.53
-11.20
-15.67
-21.05
-28.43
-37.01
-44.61
-49.50
-50.92
-49.64
-47.04
-44.02
-40.59
-36.37
-31.58
-27.11
-24.55
-24.58
-26.96
-30.51
-33.76
-35.42
-35.22
-34.12
-33.68
-36.64
-43.97
-56.31
-73.34
-93.17
-111.76
-123.63
-123.65
-106.89
-76.20
-38.36
-2.07
25.53
41.59
48.01
50.23
52.12
55.38
58.97
61.37
61.55
60.12
58.84
59.67
63.26
68.63
74.13
77.74
78.84
77.83
75.76
73.36
70.62
66.30
58.72
46.98
31.20
12.83
-6.22
-24.21
-41.17
-56.12
-67.90
-75.32
-77.44
-74.62
-68.66
-62.51
-58.97
-59.24
-62.13
-65.04
-65.72
-63.46
-59.65
-56.77
-56.83
-60.34
-66.15
-71.98
-75.73
-76.16
-73.13
-67.66
-61.56
-56.94
-55.63
-58.43
-64.59
-72.04
-77.84
-79.10
-73.99
-62.12
-44.42
-22.46
2.27
28.90
57.20
87.10
118.01
148.18
174.61
193.68
202.38
199.67
187.06
167.99
146.42
125.43
106.66
90.63
77.41
67.05
59.46
53.95
49.39
44.76
39.95
36.01
34.39
35.70
38.92
41.88
42.66
41.08
38.83
38.21
40.02
42.56
42.36
36.41
24.50
9.72
-3.02
-9.80
-9.84
-5.77
-1.81
-1.24
-4.73
-10.44
-15.65
-18.66
-19.65
-20.27
-22.23
-26.12
-31.02
-35.16
-36.98
-35.99
-32.87
-28.99
-25.64
-23.54
-22.71
-22.72
-23.05
-23.31
-23.33
-23.03
-22.44
-21.61
-20.64
-19.72
-19.04
-18.72
-18.71
-18.79
-18.67
-18.07
-16.85
-15.04
-12.77
-10.24
-7.68
-5.33
-3.42
-2.13
-1.53
-1.53
-1.90
-2.34
-2.57
-2.39
-1.74
-0.67
0.70
2.22
3.73
5.12
6.31
7.34
8.29
9.22
10.14
10.95
11.54
11.84
11.90
11.82
11.65
11.39
10.91
10.07
8.87
7.43
6.04
4.97
4.34
4.09
3.98
3.73
3.05
1.83
0.14
-1.81
-3.68
-5.17
-6.06
-6.34
-6.10
-5.50
-4.57
-3.23
-1.38
0.98
3.58
5.91
7.36
7.50
6.22
3.76
0.61
-2.71
-5.80
-8.36
-10.23
-11.28
-11.49
-11.01
-10.14
-9.32
-8.93
-9.12
-9.81
-10.66
-11.32
-11.51
-11.13
-10.22
-8.90
-7.30
-5.52
-3.75
-2.18
-1.05
-0.50
-0.49
-0.84
-1.32
-1.75
-2.05
-2.27
-2.36
-2.23
-1.67
-0.58
0.92
2.47
3.58
3.88
3.37
2.35
1.34
0.74
0.66
0.93
1.23
1.32
1.12
0.75
0.41
0.25
0.33
0.57
0.86
1.07
1.13
1.03
0.79
0.45
0.07
-0.28
-0.49
-0.45
-0.10
0.56
1.39
2.17
2.72
2.91
2.73
2.26
1.63
0.90
0.12
-0.74
-1.70
-2.75
-3.83
-4.87
-5.78
-6.47
-6.87
-6.94
-6.73
-6.33
-5.90
-5.56
-5.38
-5.31
-5.27
-5.14
-4.88
-4.47
-3.97
-3.43
-2.86
-2.27
-1.65
-1.02
-0.44
0.04
0.35
0.49
0.48
0.41
0.37
0.40
0.52
0.72
1.03
1.51
2.25
3.34
4.77
6.42
8.10
9.61
10.77
11.52
11.85
11.77
11.30
10.47
9.38
8.18
7.07
6.22
5.65
5.25
4.83
4.22
3.34
2.26
1.13
0.05
-0.88
-1.64
-2.17
-2.45
-2.50
-2.41
-2.37
-2.58
-3.14
-3.96
-4.85
-5.58
-6.07
-6.36
-6.63
-7.00
-7.48
-7.92
-8.13
-7.95
-7.40
-6.57
-5.63
-4.73
-3.97
-3.49
-3.38
-3.74
-4.57
-5.69
-6.77
-7.39
-7.17
-5.95
-3.82
-1.14
1.56
3.73
5.00
5.28
4.81
4.07
3.64
3.90
4.90
6.34
7.70
8.45
8.29
7.16
5.35
3.36
1.89
1.59
2.84
5.55
9.00
12.07
13.68
13.36
11.48
9.14
7.53
7.42
8.86
11.27
13.81
15.78
16.84
17.06
16.68
15.97
15.21
14.57
14.08
13.35
11.67
8.27
2.87
-4.18
-11.78
-18.28
-22.06
-22.05
-18.09
-10.71
-0.56
12.06
26.83
42.99
59.17
73.66
84.85
91.84
94.64
94.04
91.25
86.81
80.51
71.79
60.36
46.19
29.12
8.67
-16.48
-44.31
-69.99
-88.45
-97.30
-97.39
-91.62
-83.25
-74.69
-66.90
-59.48
-51.95
-44.42
-37.54
-31.94
-27.77
-24.72
-22.07
-19.02
-14.84
-9.48
-3.54
2.13
6.83
10.40
13.06
15.24
17.36
19.74
22.26
24.41
25.04
23.84
20.87
16.41
10.85
4.67
-1.71
-8.04
-14.28
-18.95
-22.74
-25.88
-28.35
-30.08
-30.95
-31.04
-30.50
-29.50
-28.31
-27.25
-26.36
-25.62
-24.99
-24.34
-23.73
-23.17
-22.64
-22.16
-21.86
-21.70
-21.63
-21.61
-21.48
-21.33
-21.02
-20.40
-19.27
-17.45
-14.68
-10.72
-6.13
-0.19
7.04
15.40
24.58
34.11
43.35
51.69
58.49
63.23
65.66
65.33
62.28
56.73
49.06
39.81
29.48
18.62
7.74
-1.51
-9.47
-16.11
-21.41
-25.41
-28.09
-29.65
-30.31
-30.23
-29.56
-28.70
-27.73
-26.78
-25.89
-24.93
-23.94
-22.88
-21.67
-20.11
-18.15
-15.63
-12.56
-9.74
-6.44
-2.64
1.55
5.97
10.42
14.68
18.71
22.38
25.83
29.38
33.07
36.97
41.03
45.09
48.81
51.80
53.38
53.14
50.93
46.52
39.85
31.15
20.74
9.08
-1.69
-11.67
-20.68
-28.43
-34.80
-39.75
-43.26
-45.56
-46.96
-47.71
-48.34
-48.96
-49.63
-50.44
-51.46
-52.56
-53.85
-55.35
-57.08
-59.24
-61.79
-64.68
-67.90
-71.39
-74.87
-78.28
-81.45
-84.13
-86.10
-86.92
-86.16
-83.39
-79.40
-73.16
-64.42
-53.41
-40.59
-26.68
-12.41
1.45
14.30
25.68
35.47
43.41
49.29
53.12
54.89
54.75
53.05
50.28
47.14
44.63
43.43
44.05
46.85
51.93
59.28
68.76
80.23
93.31
107.67
122.57
136.75
148.81
157.21
160.69
158.70
151.47
139.98
125.46
109.33
91.33
70.92
47.33
20.11
-10.39
-42.87
-75.13
-105.02
-130.82
-151.95
-168.81
-182.29
-193.27
-202.75
-211.60
-220.23
-227.89
-232.07
-228.65
-213.05
-182.71
-138.87
-87.22
-36.43
5.19
32.48
44.58
44.00
34.50
19.11
-0.42
-23.54
-49.50
-76.56
-101.49
-121.20
-133.73
-139.28
-138.31
-130.94
-117.10
-96.28
-67.91
-31.89
10.92
58.55
108.32
153.38
189.67
215.31
230.36
236.30
235.25
229.10
219.39
206.95
192.29
176.38
159.99
143.84
128.58
114.68
102.29
91.19
81.00
71.23
62.00
53.34
45.36
38.14
31.74
26.10
21.07
16.48
12.12
8.18
4.70
1.73
-0.73
-2.76
-4.43
-5.84
-7.07
-8.22
-9.17
-9.89
-10.37
-10.57
-10.54
-10.33
-9.95
-9.46
-8.92
-8.27
-7.54
-6.67
-5.66
-4.51
-3.24
-1.89
-0.49
0.84
2.45
3.90
5.01
5.64
5.67
4.97
3.46
1.45
-1.36
-4.91
-9.09
-13.64
-18.31
-22.79
-26.86
-30.29
-32.93
-34.76
-35.75
-35.99
-35.58
-34.72
-33.58
-32.37
-31.28
-30.43
-29.99
-29.89
-30.10
-30.53
-31.09
-31.69
-32.28
-32.84
-33.39
-34.06
-34.81
-35.66
-36.71
-38.05
-39.78
-41.99
-44.76
-48.16
-52.33
-57.00
-62.01
-67.25
-72.64
-78.13
-83.71
-89.42
-95.36
-101.76
-108.30
-114.86
-121.38
-127.84
-134.24
-140.63
-147.09
-153.73
-160.82
-167.87
-174.58
-180.72
-185.97
-189.93
-191.99
-191.15
-185.74
-178.64
-170.55
-161.86
-152.80
-143.51
-134.14
-124.80
-115.67
-106.95
-98.99
-91.43
-84.12
-77.04
-70.18
-63.58
-57.28
-51.37
-45.95
-41.23
-36.88
-32.74
-28.78
-25.02
-21.48
-18.24
-15.34
-12.83
-10.82
-9.03
-7.33
-5.68
-4.04
-2.43
-0.89
0.59
1.99
3.32
4.71
6.21
7.81
9.42
10.92
12.26
13.48
14.74
16.22
18.20
20.78
23.92
27.41
30.94
34.33
37.59
40.98
44.91
49.81
55.91
63.09
71.00
79.16
87.21
95.16
103.39
112.54
123.22
135.73
149.90
165.15
180.77
196.21
211.29
226.25
241.64
258.27
277.09
299.03
324.48
352.68
381.26
406.32
423.44
429.09
421.97
403.45
376.99
346.72
316.03
286.80
259.59
234.31
210.90
189.54
170.40
153.31
137.59
122.36
107.01
91.46
76.15
61.81
49.06
38.14
28.84
20.70
13.18
5.93
-1.08
-7.64
-13.40
-18.11
-21.77
-24.66
-27.23
-29.87
-32.79
-35.84
-38.70
-40.97
-42.49
-43.34
-43.88
-44.42
-45.19
-46.09
-46.85
-47.11
-46.68
-45.56
-43.95
-42.08
-40.13
-38.20
-36.40
-34.87
-33.79
-33.26
-33.18
-33.25
-33.04
-32.20
-30.66
-28.63
-26.45
-24.41
-22.67
-21.21
-19.94
-18.77
-17.63
-16.47
-15.18
-13.71
-12.11
-10.56
-9.34
-8.68
-8.73
-9.47
-10.79
-12.51
-14.45
-16.41
-18.15
-19.40
-20.06
-20.18
-20.00
-19.83
-19.92
-20.33
-20.95
-21.63
-22.20
-22.54
-22.64
-22.51
-22.18
-21.71
-21.14
-20.51
-19.84
-19.13
-18.38
-17.63
-16.97
-16.44
-16.05
-15.64
-15.07
-14.20
-13.07
-11.80
-10.60
-9.56
-8.68
-7.83
-6.90
-5.93
-5.02
-4.39
-4.16
-4.33
-4.77
-5.30
-5.86
-6.47
-7.25
-8.26
-9.41
-10.49
-11.27
-11.63
-11.65
-11.65
-12.01
-13.04
-14.79
-16.99
-19.11
-20.49
-20.54
-18.99
-15.98
-12.11
-8.25
-5.33
-4.01
-4.49
-6.47
-9.26
-12.03
-14.00
-14.65
-13.85
-11.83
-9.10
-6.30
-4.00
-2.52
-1.87
-1.79
-1.90
-1.94
-1.81
-1.63
-1.55
-1.66
-1.92
-2.16
-2.28
-2.26
-2.23
-2.36
-2.72
-3.24
-3.71
-3.93
-3.86
-3.66
-3.57
-3.78
-4.33
-5.05
-5.70
-6.11
-6.23
-6.16
-6.05
-5.99
-6.03
-6.12
-6.20
-6.18
-6.02
-5.76
-5.48
-5.30
-5.26
-5.28
-5.18
-4.80
-4.10
-3.21
-2.34
-1.62
-1.02
-0.36
0.50
1.52
2.39
2.71
2.21
0.92
-0.86
-2.71
-4.32
-5.55
-6.45
-7.12
-7.63
-8.01
-8.29
-8.53
-8.82
-9.23
-9.74
-10.22
-10.48
-10.39
-9.92
-9.17
-8.25
-7.23
-6.12
-4.91
-3.66
-2.52
-1.63
-1.11
-0.92
-0.93
-0.99
-1.06
-1.16
-1.38
-1.73
-2.11
-2.46
-2.76
-3.13
-3.70
-4.47
-5.23
-5.65
-5.47
-4.74
-3.83
-3.29
-3.55
-4.68
-6.33
-7.99
-9.23
-9.94
-10.37
-10.90
-11.80
-13.05
-14.34
-15.27
-15.54
-15.15
-14.32
-13.34
-12.45
-11.66
-10.86
-9.97
-8.96
-7.99
-7.29
-7.00
-7.13
-7.47
-7.78
-7.85
-7.58
-7.01
-6.19
-5.11
-3.73
-1.94
0.30
2.86
5.45
7.66
9.08
9.47
8.84
7.44
5.69
4.01
2.71
1.86
1.34
0.94
0.47
-0.16
-0.86
-1.46
-1.78
-1.74
-1.41
-0.96
-0.64
-0.64
-1.03
-1.78
-2.72
-3.69
-4.50
-5.00
-5.13
-4.89
-4.38
-3.76
-3.20
-2.84
-2.74
-2.91
-3.27
-3.70
-4.06
-4.23
-4.12
-3.72
-3.06
-2.28
-1.55
-1.01
-0.78
-0.82
-0.99
-1.08
-0.98
-0.71
-0.44
-0.40
-0.72
-1.38
-2.18
-2.87
-3.26
-3.32
-3.16
-2.93
-2.75
-2.67
-2.71
-2.87
-3.20
-3.73
-4.42
-5.12
-5.70
-6.04
-6.15
-6.12
-6.02
-5.88
-5.68
-5.38
-5.01
-4.66
-4.50
-4.62
-4.99
-5.39
-5.56
-5.22
-4.28
-2.84
-1.17
0.38
1.53
2.15
2.30
2.17
1.99
1.92
1.93
1.89
1.61
0.95
-0.08
-1.30
-2.45
-3.27
-3.65
-3.66
-3.47
-3.32
-3.32
-3.49
-3.71
-3.80
-3.61
-3.07
-2.24
-1.24
-0.30
0.33
0.51
0.17
-0.58
-1.54
-2.47
-3.20
-3.64
-3.82
-3.79
-3.61
-3.38
-3.19
-3.11
-3.14
-3.20
-3.11
-2.71
-1.91
-0.78
0.51
1.74
2.76
3.47
3.83
3.78
3.24
2.20
0.72
-0.97
-2.53
-3.62
-4.03
-3.72
-2.90
-1.92
-1.12
-0.81
-1.09
-1.83
-2.73
-3.44
-3.73
-3.63
-3.39
-3.36
-3.78
-4.58
-5.44
-5.98
-5.95
-5.39
-4.64
-4.05
-3.83
-3.89
-3.89
-3.47
-2.45
-0.88
0.94
2.66
3.94
4.64
4.71
4.30
3.58
2.81
2.19
1.82
1.68
1.61
1.44
1.04
0.40
-0.35
-1.03
-1.48
-1.67
-1.69
-1.70
-1.82
-2.13
-2.63
-3.29
-4.02
-4.70
-5.18
-5.31
-4.98
-4.25
-3.29
-2.38
-1.77
-1.61
-1.88
-2.41
-2.96
-3.28
-3.29
-3.02
-2.63
-2.28
-2.08
-1.96
-1.72
-1.18
-0.29
0.80
1.80
2.43
2.59
2.40
2.14
2.02
2.10
2.23
2.18
1.78
1.02
0.07
-0.89
-1.70
-2.32
-2.79
-3.16
-3.45
-3.59
-3.51
-3.16
-2.58
-1.92
-1.35
-1.03
-1.00
-1.18
-1.42
-1.57
-1.51
-1.22
-0.74
-0.19
0.27
0.51
0.47
0.13
-0.44
-1.13
-1.82
-2.37
-2.70
-2.70
-2.36
-1.67
-0.74
0.27
1.17
1.80
2.12
2.14
1.96
1.68
1.39
1.15
0.97
0.79
0.55
0.18
-0.31
-0.84
-1.27
-1.47
-1.45
-1.32
-1.25
-1.38
-1.69
-1.99
-2.08
-1.86
-1.38
-0.86
-0.50
-0.40
-0.50
-0.67
-0.77
-0.72
-0.53
-0.28
-0.03
0.14
0.18
0.07
-0.18
-0.53
-0.93
-1.40
-1.95
-2.61
-3.25
-3.66
-3.59
-2.92
-1.79
-0.54
0.42
0.83
0.69
0.28
-0.04
-0.00
0.39
0.92
1.31
1.38
1.18
0.89
0.75
0.90
1.29
1.78
2.16
2.26
2.00
1.38
0.51
-0.51
-1.49
-2.26
-2.71
-2.78
-2.58
-2.27
-2.05
-2.04
-2.25
-2.59
-2.94
-3.22
-3.40
-3.51
-3.65
-3.87
-4.23
-4.69
-5.17
-5.51
-5.52
-5.07
-4.09
-2.65
-0.94
0.80
2.33
3.49
4.19
4.43
4.21
3.56
2.57
1.38
0.26
-0.53
-0.78
-0.49
0.21
1.03
1.70
2.04
2.05
1.81
1.44
1.07
0.75
0.45
0.17
-0.13
-0.47
-0.82
-1.17
-1.52
-1.90
-2.31
-2.76
-3.18
-3.53
-3.77
-3.90
-3.97
-4.03
-4.13
-4.31
-4.52
-4.71
-4.78
-4.69
-4.39
-3.92
-3.26
-2.40
-1.30
0.05
1.61
3.18
4.49
5.30
5.52
5.19
4.53
3.73
2.97
2.27
1.64
1.08
0.66
0.46
0.53
0.83
1.25
1.64
1.90
1.98
1.86
1.53
1.00
0.30
-0.47
-1.21
-1.82
-2.22
-2.41
-2.44
-2.40
-2.38
-2.45
-2.59
-2.78
-2.92
-2.93
-2.73
-2.36
-1.94
-1.67
-1.73
-2.15
-2.74
-3.16
-3.09
-2.35
-1.01
0.68
2.35
3.65
4.35
4.35
3.74
2.73
1.65
0.83
0.44
0.44
0.59
0.57
0.18
-0.53
-1.33
-1.91
-2.09
-1.89
-1.50
-1.11
-0.85
-0.69
-0.57
-0.43
-0.30
-0.25
-0.39
-0.74
-1.22
-1.67
-1.94
-1.89
-1.56
-1.13
-0.80
-0.80
-1.20
-1.96
-2.87
-3.73
-4.33
-4.57
-4.44
-3.94
-3.12
-2.02
-0.72
0.62
1.78
2.56
2.86
2.71
2.26
1.78
1.46
1.40
1.58
1.88
2.16
2.30
2.26
2.04
1.68
1.22
0.74
0.31
-0.02
-0.27
-0.45
-0.62
-0.79
-0.89
-0.88
-0.73
-0.51
-0.32
-0.30
-0.49
-0.83
-1.21
-1.50
-1.65
-1.68
-1.61
-1.48
-1.32
-1.16
-1.11
-1.25
-1.66
-2.25
-2.77
-2.96
-2.64
-1.84
-0.75
0.32
1.17
1.70
1.95
1.99
1.89
1.68
1.41
1.12
0.86
0.63
0.42
0.13
-0.21
-0.53
-0.70
-0.60
-0.27
0.13
0.39
0.38
0.12
-0.19
-0.37
-0.27
0.03
0.36
0.51
0.39
0.06
-0.33
-0.60
-0.74
-0.82
-0.98
-1.30
-1.74
-2.15
-2.39
-2.41
-2.25
-2.06
-1.96
-2.00
-2.09
-2.13
-2.00
-1.63
-1.07
-0.40
0.29
0.88
1.32
1.61
1.78
1.90
2.01
2.14
2.25
2.28
2.17
1.88
1.43
0.96
0.68
0.88
1.78
3.36
5.28
6.93
7.61
6.82
4.53
1.19
-2.42
-5.45
-7.23
-7.46
-6.23
-4.04
-1.66
0.03
0.23
-1.44
-4.81
-9.01
-12.75
-14.71
-14.00
-10.57
-5.23
0.56
5.29
7.90
8.12
6.51
4.09
1.94
0.80
1.02
2.54
5.22
8.71
12.48
15.77
17.64
17.38
14.86
10.67
5.92
1.60
-1.93
-5.18
-9.10
-14.36
-20.66
-26.61
-30.31
-30.28
-26.20
-19.10
-10.80
-3.03
3.15
7.54
10.31
11.51
10.93
8.33
3.99
-1.01
-5.07
-6.80
-5.80
-2.88
0.26
1.94
1.29
-1.46
-5.21
-8.60
-10.65
-10.98
-9.77
-7.45
-4.46
-1.17
2.13
5.14
7.53
9.00
9.36
8.60
6.93
4.71
2.45
0.64
-0.41
-0.64
-0.30
0.21
0.49
0.35
-0.12
-0.60
-0.70
-0.21
0.86
2.30
3.85
5.34
6.71
7.81
8.38
8.03
6.56
4.16
1.50
-0.47
-1.03
-0.10
1.68
3.27
3.75
2.71
0.43
-2.39
-4.90
-6.40
-6.49
-5.07
-2.36
1.05
4.31
6.51
6.96
5.43
2.30
-1.62
-5.38
-8.18
-9.56
-9.49
-8.28
-6.46
-4.58
-3.05
-2.04
-1.47
-1.10
-0.70
-0.17
0.46
1.07
1.58
1.98
2.35
2.69
2.91
2.79
2.08
0.67
-1.38
-3.76
-6.11
-8.05
-9.36
-9.99
-9.98
-9.42
-8.45
-7.23
-5.95
-4.85
-4.09
-3.75
-3.72
-3.75
-3.53
-2.78
-1.34
0.79
3.47
6.40
9.16
11.31
12.48
12.44
11.21
9.03
6.30
3.46
0.92
-0.98
-2.06
-2.26
-1.69
-0.56
0.80
2.07
2.99
3.42
3.35
2.86
2.08
1.15
0.19
-0.67
-1.37
-1.84
-2.07
-2.08
-1.87
-1.50
-1.04
-0.61
-0.33
-0.25
-0.36
-0.56
-0.71
-0.70
-0.49
-0.11
0.33
0.74
1.00
1.08
1.02
0.91
0.86
1.00
1.37
1.90
2.45
2.81
2.85
2.54
2.01
1.42
0.93
0.59
0.38
0.22
0.08
0.02
0.11
0.40
0.81
1.15
1.22
0.94
0.41
-0.13
-0.43
-0.35
0.02
0.40
0.44
-0.10
-1.23
-2.64
-3.86
-4.45
-4.13
-2.91
-1.11
0.82
2.40
3.30
3.35
2.56
1.10
-0.74
-2.49
-3.61
-3.55
-2.03
0.81
4.30
7.43
9.22
9.09
7.10
3.94
0.66
-1.76
-2.71
-2.17
-0.57
1.40
3.12
4.21
4.59
4.43
3.96
3.40
2.93
2.65
2.62
2.84
3.26
3.70
3.95
3.86
3.34
2.45
1.29
-0.03
-1.41
-2.75
-3.87
-4.52
-4.53
-3.85
-2.70
-1.44
-0.50
-0.11
-0.33
-1.01
-1.93
-2.89
-3.78
-4.52
-5.06
-5.33
-5.29
-4.99
-4.55
-4.18
-4.04
-4.21
-4.57
-4.90
-4.95
-4.56
-3.79
-2.79
-1.81
-1.04
-0.55
-0.33
-0.29
-0.30
-0.28
-0.13
0.22
0.77
1.45
2.08
2.50
2.56
2.26
1.73
1.17
0.72
0.48
0.41
0.48
0.64
0.92
1.34
1.91
2.56
3.20
3.75
4.16
4.41
4.44
4.19
3.54
2.44
0.90
-0.85
-2.51
-3.72
-4.24
-4.03
-3.25
-2.25
-1.36
-0.82
-0.69
-0.84
-1.07
-1.19
-1.12
-0.94
-0.82
-0.92
-1.31
-1.91
-2.46
-2.71
-2.52
-1.98
-1.41
-1.19
-1.58
-2.60
-4.02
-5.51
-6.77
-7.57
-7.74
-7.12
-5.64
-3.38
-0.75
1.71
3.53
4.58
5.16
5.76
6.70
7.89
8.90
9.28
8.90
8.03
7.10
6.43
5.98
5.51
4.83
4.14
3.85
4.33
5.57
7.07
8.07
7.98
6.66
4.45
2.01
-0.07
-1.49
-2.30
-2.79
-3.28
-3.95
-4.79
-5.59
-6.11
-6.19
-5.82
-5.17
-4.51
-4.06
-3.88
-3.89
-3.90
-3.79
-3.53
-3.20
-2.91
-2.73
-2.68
-2.67
-2.64
-2.53
-2.33
-2.04
-1.67
-1.20
-0.56
0.31
1.40
2.61
3.65
4.16
3.82
2.60
0.80
-0.94
-1.92
-1.62
0.04
2.64
5.49
7.85
9.22
9.54
9.14
8.65
8.74
9.92
12.26
15.39
18.55
20.87
21.63
20.64
18.23
15.23
12.69
11.52
12.24
14.84
18.83
23.38
27.63
30.88
32.75
33.19
32.31
30.21
26.86
22.23
16.48
10.02
3.48
-2.48
-7.39
-11.06
-13.53
-15.04
-15.94
-16.76
-18.09
-20.38
-23.63
-27.10
-29.46
-29.19
-25.32
-17.99
-8.61
0.57
7.32
10.10
8.55
3.33
-4.26
-12.80
-21.18
-28.71
-35.05
-39.87
-42.76
-43.14
-40.55
-35.02
-27.49
-19.77
-14.15
-12.55
-15.48
-21.61
-27.99
-31.36
-29.63
-23.01
-13.93
-5.91
-1.91
-3.02
-8.30
-15.57
-22.69
-28.55
-33.16
-37.01
-40.26
-42.38
-42.47
-40.01
-35.55
-30.82
-27.98
-28.78
-33.79
-42.27
-52.66
-63.08
-71.38
-74.65
-69.40
-52.65
-24.03
12.36
47.87
72.07
77.30
62.68
35.10
6.28
-12.44
-15.06
-2.81
17.63
38.09
52.71
59.58
60.05
56.71
51.73
46.40
41.53
37.99
36.92
39.46
46.13
56.51
69.26
82.37
93.62
100.95
102.87
98.73
88.94
74.88
58.65
42.46
27.94
15.63
5.09
-4.46
-13.49
-21.79
-28.74
-33.87
-37.39
-40.32
-43.97
-49.23
-55.94
-62.81
-67.91
-69.53
-66.82
-60.02
-50.30
-39.24
-28.31
-18.46
-9.88
-2.11
5.67
14.12
23.38
33.00
42.08
49.73
55.32
58.52
59.26
57.60
53.66
47.87
41.17
34.93
30.73
29.80
32.53
38.30
45.69
52.92
58.32
60.73
59.68
55.51
49.22
42.31
36.37
32.62
31.54
32.72
34.97
36.65
36.29
33.09
27.31
20.14
13.21
7.93
4.88
3.71
3.43
3.08
2.08
0.46
-1.50
-3.74
-6.56
-10.48
-15.79
-22.18
-28.66
-34.11
-37.76
-39.57
-40.24
-40.62
-41.29
-42.19
-42.73
-42.22
-40.27
-37.11
-33.48
-30.29
-28.28
-27.74
-28.49
-30.13
-32.19
-34.36
-36.39
-38.12
-39.40
-40.03
-39.91
-39.07
-37.65
-35.91
-34.06
-32.17
-30.16
-27.86
-25.17
-22.19
-19.25
-16.79
-15.17
-14.51
-14.58
-14.90
-14.95
-14.37
-13.09
-11.34
-9.54
-8.16
-7.54
-7.90
-9.21
-11.28
-13.74
-16.23
-18.54
-20.80
-23.45
-27.13
-32.26
-38.75
-45.87
-52.38
-56.99
-58.81
-57.62
-53.86
-48.44
-42.34
-36.38
-31.09
-26.72
-23.28
-20.58
-18.24
-15.77
-12.71
-8.73
-3.79
1.82
7.54
12.76
16.94
19.77
21.16
21.27
20.46
19.23
18.13
17.67
18.21
19.87
22.49
25.48
27.95
28.84
27.21
22.66
15.69
7.71
0.73
-3.31
-3.22
0.95
8.07
16.40
24.23
30.39
34.33
36.02
35.65
33.49
29.93
25.50
20.96
17.07
14.40
13.13
12.93
13.15
13.05
12.08
10.09
7.38
4.66
2.74
2.29
3.57
6.35
9.93
13.45
16.14
17.62
17.99
17.75
17.53
17.77
18.62
19.93
21.45
22.96
24.39
25.83
27.48
29.71
33.03
38.08
45.38
54.97
66.20
77.75
88.00
95.62
99.99
101.23
99.88
96.38
90.73
82.61
71.77
58.48
43.64
28.61
14.66
2.55
-7.73
-16.74
-25.22
-33.79
-42.64
-51.59
-60.25
-68.20
-75.16
-81.01
-85.74
-89.33
-91.63
-92.36
-91.20
-87.96
-82.71
-75.82
-67.80
-59.15
-50.13
-40.70
-30.67
-19.96
-8.81
2.15
12.05
20.08
25.85
29.37
30.94
30.84
29.22
26.18
22.17
18.16
15.61
16.05
20.52
29.24
41.61
56.55
72.85
89.36
105.03
118.96
130.52
139.46
145.87
149.85
151.12
148.92
142.33
130.84
114.95
96.10
76.22
56.97
39.25
23.31
9.24
-2.66
-11.87
-17.99
-21.32
-22.82
-23.77
-25.04
-26.60
-27.56
-26.75
-23.42
-17.79
-11.01
-4.63
0.01
2.28
2.31
0.64
-2.18
-5.90
-10.50
-16.06
-22.50
-29.53
-36.79
-43.92
-50.74
-57.14
-62.95
-67.95
-71.84
-74.46
-75.85
-76.29
-76.19
-75.87
-75.49
-74.95
-74.02
-72.40
-69.85
-66.24
-61.56
-55.92
-49.57
-42.77
-35.88
-29.27
-23.30
-18.24
-14.25
-11.28
-9.11
-7.45
-6.00
-4.60
-3.26
-2.10
-1.25
-0.73
-0.45
-0.25
-0.06
0.06
-0.06
-0.64
-1.77
-3.30
-4.88
-6.08
-6.67
-6.83
-7.25
-8.95
-12.97
-19.90
-29.66
-41.71
-54.92
-67.73
-78.57
-86.14
-90.15
-90.93
-89.10
-85.47
-81.04
-76.63
-72.70
-69.28
-66.04
-62.90
-59.78
-56.49
-52.87
-49.44
-46.64
-44.45
-42.40
-39.56
-35.98
-31.93
-27.43
-22.38
-18.55
-17.32
-18.79
-21.72
-23.48
-24.18
-24.50
-24.73
-24.96
-29.00
-39.56
-56.27
-75.62
-91.02
-101.70
-108.46
-111.73
-111.96
-115.47
-126.91
-146.06
-167.83
-182.39
-189.59
-192.62
-195.09
-201.26
-222.32
-265.65
-330.13
-406.34
-477.97
-541.60
-599.04
-652.55
-649.31
-557.15
-383.39
-172.51
-5.64
118.02
209.36
276.00
330.15
373.38
397.11
395.04
368.92
329.33
295.21
273.61
266.09
271.09
283.51
291.82
287.45
269.35
243.85
223.11
209.37
200.90
195.38
190.60
182.46
169.01
151.30
132.82
119.23
109.73
102.05
94.91
87.79
79.44
69.34
58.16
47.66
40.70
37.05
35.49
34.80
33.73
30.95
25.89
18.99
11.56
5.47
1.31
-1.05
-2.17
-2.94
-4.07
-5.84
-7.90
-9.38
-9.33
-7.29
-3.61
0.68
4.48
7.17
8.80
9.76
10.20
9.85
8.26
5.37
1.79
-1.45
-3.61
-4.84
-6.33
-9.66
-15.91
-25.04
-35.87
-46.61
-55.60
-61.78
-64.76
-64.59
-61.59
-56.38
-49.84
-43.10
-37.26
-33.17
-31.10
-30.68
-30.86
-30.14
-26.85
-19.57
-7.49
9.30
29.72
51.76
72.93
90.89
104.02
111.84
115.02
114.90
112.89
109.88
106.00
100.78
93.48
83.70
71.68
58.42
45.37
33.94
25.03
18.68
14.12
10.08
5.27
-1.06
-8.91
-17.64
-26.30
-33.95
-39.91
-43.62
-44.28
-40.81
-32.34
-19.09
-3.14
11.92
22.33
26.08
24.20
20.48
19.50
24.08
33.71
44.89
53.17
55.60
52.15
45.29
38.26
33.21
30.30
28.03
24.55
18.77
10.92
2.39
-4.94
-9.51
-10.89
-9.88
-8.35
-8.39
-11.24
-16.38
-21.40
-23.01
-18.82
-8.83
4.05
15.33
21.07
19.88
13.54
5.84
0.37
-1.24
0.23
2.70
4.23
4.12
3.00
2.13
2.41
3.81
5.42
5.89
3.92
-1.39
-10.24
-21.94
-34.89
-46.74
-54.89
-57.11
-52.34
-41.20
-26.22
-11.39
-1.08
1.46
-4.44
-16.18
-28.58
-36.06
-35.07
-25.70
-11.71
1.26
8.31
7.45
0.25
-9.33
-17.08
-20.66
-20.33
-18.23
-16.62
-16.42
-16.65
-15.31
-10.77
-3.03
6.22
14.34
19.11
19.90
17.90
15.63
15.61
19.16
25.64
32.66
37.14
36.71
30.82
20.93
9.72
-0.27
-7.63
-12.27
-14.75
-15.40
-14.03
-10.31
-4.57
1.90
7.33
10.60
12.08
13.51
17.07
23.98
33.72
44.29
53.32
59.33
62.16
62.66
61.80
59.98
57.00
52.40
45.97
37.96
29.01
19.95
11.52
4.30
-1.44
-5.75
-9.05
-11.96
-15.20
-19.23
-24.00
-28.85
-32.66
-34.32
-33.21
-29.60
-24.61
-19.84
-16.68
-15.65
-16.08
-16.35
-14.73
-10.22
-2.99
5.88
15.10
23.65
30.83
35.88
37.76
35.37
28.28
17.38
4.94
-6.15
-13.45
-15.90
-14.00
-9.27
-3.42
2.25
6.96
10.26
11.78
11.25
8.77
4.92
0.68
-2.88
-5.02
-5.55
-4.75
-3.15
-1.13
1.16
3.70
6.46
9.14
11.39
12.97
13.97
14.56
14.69
13.90
11.52
7.26
1.67
-3.87
-7.80
-9.20
-8.39
-6.71
-5.72
-6.37
-8.59
-11.60
-14.67
-17.63
-20.96
-25.37
-31.31
-38.58
-46.20
-52.49
-55.45
-53.39
-45.46
-32.06
-14.54
5.34
25.95
45.98
64.14
78.73
87.64
89.06
82.54
69.72
54.08
39.78
29.97
25.72
25.95
28.37
30.65
31.39
30.28
27.64
23.95
19.41
14.01
7.72
0.84
-6.02
-12.05
-16.60
-19.45
-20.85
-21.27
-21.11
-20.47
-19.23
-17.28
-14.77
-12.13
-9.98
-8.95
-9.63
-12.45
-17.57
-24.51
-32.01
-38.18
-41.17
-39.98
-35.05
-28.19
-21.67
-17.10
-14.64
-13.09
-10.68
-6.25
0.11
7.08
12.82
15.81
15.56
12.62
8.29
4.01
0.84
-0.69
-0.49
1.41
5.09
10.77
18.45
27.55
36.75
44.09
47.67
46.45
40.74
32.18
23.17
15.93
11.66
10.19
10.24
10.09
8.42
4.84
-0.04
-5.04
-8.98
-11.18
-11.66
-10.96
-9.87
-9.13
-9.21
-10.21
-11.92
-13.93
-15.78
-17.14
-17.94
-18.34
-18.50
-18.29
-17.19
-14.52
-10.01
-4.16
1.69
5.83
7.00
4.95
0.56
-4.61
-9.09
-12.00
-13.14
-12.67
-10.66
-6.97
-1.45
5.65
13.50
20.78
26.02
28.06
26.44
21.50
14.37
6.68
0.13
-4.04
-5.42
-4.55
-2.62
-0.84
0.04
0.01
-0.51
-1.09
-1.74
-2.90
-5.02
-8.13
-11.59
-14.33
-15.46
-14.81
-13.04
-11.22
-10.16
-9.89
-9.69
-8.53
-5.75
-1.51
3.30
7.56
10.47
11.91
12.38
12.55
12.83
13.16
13.09
12.09
9.91
6.75
3.23
0.15
-1.77
-2.16
-1.16
0.68
2.59
3.81
3.81
2.44
-0.13
-3.46
-6.94
-9.83
-11.36
-10.82
-7.85
-2.64
3.91
10.33
14.91
16.36
14.28
9.33
2.90
-3.50
-8.85
-12.87
-15.72
-17.60
-18.43
-17.96
-16.01
-12.84
-9.01
-4.96
-0.71
4.03
9.34
14.55
18.25
18.97
16.17
10.86
5.22
1.49
0.70
2.10
3.77
3.71
1.07
-3.49
-8.26
-11.43
-11.96
-9.94
-6.38
-2.72
-0.31
-0.05
-2.16
-6.22
-11.27
-16.15
-19.84
-21.63
-21.15
-18.42
-13.90
-8.64
-4.25
-2.40
-4.07
-8.76
-14.36
-17.91
-16.98
-11.00
-1.68
7.77
14.25
16.34
14.83
12.05
10.39
11.00
13.41
16.08
17.54
17.19
15.50
13.54
12.18
11.63
11.32
10.42
8.34
5.10
1.39
-1.74
-3.29
-2.63
0.18
4.35
8.46
10.92
10.62
7.45
2.49
-2.44
-5.61
-6.20
-4.66
-2.33
-0.65
-0.32
-1.03
-1.80
-1.71
-0.51
1.20
2.50
2.67
1.68
0.08
-1.35
-2.09
-2.10
-1.72
-1.35
-1.17
-1.11
-1.08
-1.11
-1.42
-2.16
-3.20
-4.09
-4.34
-3.91
-3.42
-3.96
-6.43
-10.81
-15.84
-19.44
-19.63
-15.63
-8.25
0.36
7.65
11.76
12.17
9.63
5.61
1.53
-1.85
-4.43
-6.59
-8.68
-10.75
-12.45
-13.18
-12.32
-9.35
-3.93
3.91
13.46
23.04
30.24
32.53
28.46
18.50
5.32
-7.20
-15.41
-17.50
-14.08
-7.67
-1.34
2.64
3.57
2.14
-0.30
-2.61
-4.38
-5.86
-7.61
-10.07
-13.26
-16.72
-19.71
-21.52
-21.75
-20.38
-17.80
-14.64
-11.51
-8.78
-6.54
-4.66
-3.04
-1.80
-1.25
-1.74
-3.33
-5.58
-7.63
-8.56
-7.91
-6.01
-3.95
-3.08
-4.35
-7.83
-12.65
-17.43
-20.89
-22.42
-22.26
-21.24
-20.22
-19.51
-18.71
-16.81
-12.84
-6.41
2.01
11.29
20.16
27.62
33.20
36.64
37.69
35.94
31.12
23.69
15.10
7.55
3.17
3.05
6.68
12.28
17.72
21.49
23.21
23.34
22.52
21.00
18.59
15.11
10.81
6.60
3.65
2.70
3.58
5.32
6.65
6.68
5.23
2.69
-0.36
-3.55
-6.65
-9.45
-11.55
-12.56
-12.52
-12.09
-12.33
-14.01
-16.97
-20.00
-21.49
-20.46
-17.37
-13.99
-12.45
-14.01
-18.38
-23.91
-28.62
-31.21
-31.54
-30.35
-28.57
-26.68
-24.66
-22.20
-19.03
-15.10
-10.52
-5.43
0.13
6.13
12.49
19.09
25.69
31.90
37.10
40.42
40.99
38.39
33.06
26.40
20.33
16.58
15.90
17.76
20.66
22.82
23.01
20.95
17.22
12.85
8.79
5.59
3.36
1.97
1.18
0.76
0.52
0.22
-0.44
-1.73
-3.78
-6.54
-9.73
-13.07
-16.30
-19.15
-21.28
-22.28
-21.87
-20.31
-18.47
-17.55
-18.37
-20.73
-23.35
-24.53
-23.17
-19.55
-15.18
-12.01
-11.14
-12.30
-14.08
-14.86
-13.86
-11.49
-9.01
-7.68
-8.04
-9.67
-11.52
-12.43
-11.62
-8.91
-4.69
0.45
5.98
11.67
17.62
24.01
30.66
36.83
41.15
42.21
39.15
32.30
23.23
14.26
7.51
4.12
3.82
5.27
6.79
7.15
5.99
3.70
0.95
-1.75
-4.26
-6.58
-8.62
-10.02
-10.30
-9.23
-7.12
-4.84
-3.42
-3.55
-5.13
-7.31
-8.86
-8.80
-6.80
-3.28
0.80
4.29
6.15
5.67
2.67
-2.39
-8.33
-13.48
-16.26
-15.80
-12.42
-7.53
-2.98
-0.25
0.19
-1.12
-3.01
-4.43
-4.88
-4.43
-3.51
-2.49
-1.52
-0.54
0.62
1.96
3.30
4.24
4.46
3.93
3.08
2.79
4.08
7.71
13.76
21.42
29.08
34.74
36.58
33.68
26.37
16.23
5.60
-3.21
-8.76
-10.87
-10.56
-9.42
-8.79
-9.21
-10.37
-11.43
-11.63
-10.80
-9.34
-8.05
-7.70
-8.61
-10.51
-12.66
-14.22
-14.54
-13.51
-11.47
-9.00
-6.65
-4.71
-3.29
-2.46
-2.31
-2.88
-3.92
-4.80
-4.71
-3.09
-0.06
3.42
5.99
6.62
5.22
2.73
0.75
0.56
2.58
6.11
9.85
12.51
13.44
12.65
10.65
8.00
5.08
2.11
-0.72
-3.15
-4.85
-5.59
-5.33
-4.29
-2.79
-1.10
0.62
2.22
3.41
3.78
2.96
1.04
-1.36
-3.29
-4.00
-3.50
-2.57
-2.42
-3.90
-6.95
-10.54
-13.23
-13.99
-12.74
-10.30
-7.88
-6.32
-5.73
-5.55
-4.97
-3.39
-0.73
2.62
5.94
8.58
10.09
10.39
9.68
8.25
6.36
4.12
1.57
-1.23
-4.12
-6.86
-9.24
-11.18
-12.70
-13.78
-14.19
-13.50
-11.20
-7.02
-1.28
5.11
10.89
14.81
16.11
14.71
11.09
6.16
0.95
-3.65
-6.99
-8.78
-9.07
-8.14
-6.40
-4.24
-1.90
0.55
3.25
6.37
9.89
13.35
15.81
16.19
13.83
9.08
3.44
-0.93
-2.18
0.27
5.30
10.57
13.65
13.19
9.48
4.20
-0.60
-3.56
-4.51
-4.35
-4.30
-5.16
-6.97
-9.01
-10.34
-10.29
-8.83
-6.43
-3.75
-1.23
0.98
2.86
4.19
4.38
2.75
-1.00
-6.30
-11.68
-15.29
-15.73
-12.77
-7.39
-1.32
3.92
7.63
10.09
12.06
14.10
16.25
17.99
18.74
18.23
16.70
14.62
12.34
9.88
7.01
3.58
-0.17
-3.63
-6.07
-7.07
-6.67
-5.33
-3.60
-1.82
-0.12
1.41
2.48
2.59
1.31
-1.27
-4.42
-7.05
-8.38
-8.43
-8.02
-8.23
-9.65
-11.92
-13.90
-14.40
-12.90
-9.88
-6.54
-4.07
-3.06
-3.23
-3.74
-3.69
-2.64
-0.77
1.24
2.58
2.73
1.66
-0.15
-2.03
-3.51
-4.54
-5.41
-6.52
-7.98
-9.55
-10.82
-11.50
-11.74
-12.04
-12.96
-14.71
-16.88
-18.61
-18.89
-17.06
-13.08
-7.56
-1.52
3.96
8.09
10.53
11.37
11.01
9.90
8.38
6.62
4.62
2.31
-0.22
-2.66
-4.39
-4.54
-2.38
2.27
8.61
14.96
19.23
19.82
16.36
9.91
2.46
-3.96
-8.10
-9.73
-9.33
-7.51
-4.64
-0.82
3.73
8.48
12.57
15.25
16.27
16.04
15.43
15.30
16.20
18.08
20.48
22.74
24.27
24.65
23.77
21.80
19.16
16.51
14.62
14.07
14.90
16.34
16.96
15.13
9.76
0.78
-10.67
-22.61
-33.03
-40.56
-44.91
-46.74
-47.24
-47.51
-48.20
-49.34
-50.49
-51.02
-50.31
-47.99
-44.00
-38.70
-32.68
-26.60
-20.92
-15.78
-11.09
-6.59
-1.98
2.99
8.42
14.14
19.56
23.68
25.30
23.62
18.82
12.32
6.43
3.38
4.29
8.61
14.43
19.49
22.30
22.70
21.56
20.00
18.64
17.35
15.54
12.81
9.29
5.62
2.58
0.66
-0.20
-0.34
-0.15
0.30
1.27
3.06
5.69
8.64
11.05
12.15
11.68
10.03
7.98
6.24
5.16
4.70
4.70
5.11
6.02
7.42
8.89
9.66
8.89
6.10
1.46
-4.30
-10.34
-16.00
-21.00
-25.35
-29.12
-32.30
-34.80
-36.52
-37.30
-36.93
-35.00
-31.03
-24.59
-15.55
-4.22
8.63
21.83
33.92
43.42
49.06
50.22
47.18
41.18
33.98
27.29
22.16
18.73
16.42
14.49
12.44
10.27
8.30
6.87
6.03
5.53
4.95
3.98
2.52
0.60
-1.65
-4.15
-6.76
-9.25
-11.22
-12.11
-11.47
-9.15
-5.45
-1.04
3.36
7.26
10.37
12.36
12.72
10.72
5.92
-1.36
-9.80
-17.56
-23.04
-25.75
-26.49
-26.79
-27.96
-30.33
-33.09
-34.84
-34.46
-31.67
-27.07
-21.75
-16.82
-13.05
-10.82
-9.98
-10.03
-10.19
-9.70
-8.02
-4.96
-0.64
4.77
11.17
18.44
26.13
33.21
38.18
39.60
36.83
30.55
22.67
15.65
11.43
10.64
12.40
14.93
16.38
15.70
12.93
8.91
4.74
1.25
-1.23
-2.73
-3.39
-3.35
-2.66
-1.50
-0.24
0.62
0.67
-0.20
-1.81
-3.70
-5.44
-6.58
-6.70
-5.39
-2.50
1.60
5.82
8.61
8.58
5.24
-0.65
-7.36
-13.14
-17.01
-19.18
-20.65
-22.30
-24.18
-25.27
-24.09
-19.62
-11.97
-2.46
6.86
14.11
18.21
19.13
17.64
14.85
11.74
8.85
6.29
3.88
1.42
-1.06
-3.14
-4.18
-3.47
-0.65
3.99
9.42
14.11
16.62
16.18
13.11
8.60
4.14
0.82
-1.09
-2.08
-2.91
-4.05
-5.51
-6.91
-7.83
-8.17
-8.15
-8.15
-8.42
-8.95
-9.52
-9.81
-9.58
-8.70
-7.25
-5.42
-3.49
-1.67
-0.02
1.51
2.88
3.78
3.72
2.25
-0.47
-3.53
-5.44
-4.91
-1.63
3.42
8.39
11.51
12.07
10.70
8.91
8.15
8.97
10.83
12.55
13.07
12.02
9.75
7.01
4.48
2.40
0.66
-0.93
-2.48
-3.84
-4.79
-5.22
-5.18
-4.93
-4.70
-4.56
-4.41
-4.13
-3.75
-3.41
-3.26
-3.23
-3.10
-2.64
-1.95
-1.50
-2.07
-4.26
-8.12
-12.94
-17.48
-20.47
-21.14
-19.52
-16.37
-12.82
-9.83
-7.88
-6.84
-6.10
-4.95
-2.95
-0.06
3.33
6.70
9.54
11.49
12.22
11.47
9.10
5.25
0.56
-3.96
-7.19
-8.45
-7.74
-5.74
-3.32
-1.09
0.96
3.32
6.46
10.40
14.54
17.93
19.76
19.75
18.23
15.91
13.38
10.90
8.39
5.70
2.82
0.02
-2.36
-4.08
-5.16
-5.77
-6.06
-5.97
-5.38
-4.32
-3.21
-2.73
-3.47
-5.41
-7.70
-8.92
-7.88
-4.34
0.66
5.16
7.25
6.08
2.23
-2.57
-6.37
-7.95
-7.28
-5.33
-3.41
-2.52
-2.87
-4.03
-5.23
-5.77
-5.34
-4.02
-2.12
0.01
2.09
3.88
5.14
5.60
5.04
3.57
1.67
0.18
-0.12
1.08
3.37
5.75
7.12
6.90
5.32
3.25
1.69
1.19
1.57
2.15
2.23
1.56
0.47
-0.40
-0.53
0.16
1.20
1.91
1.68
0.30
-1.97
-4.55
-6.66
-7.47
-6.17
-2.20
4.39
12.61
20.42
25.35
25.46
20.36
11.63
2.30
-4.51
-6.95
-5.20
-1.20
2.55
4.23
3.45
1.12
-1.30
-2.77
-3.08
-2.79
-2.74
-3.51
-5.11
-7.10
-8.95
-10.49
-12.07
-14.41
-18.12
-23.26
-29.18
-34.79
-39.00
-41.17
-41.18
-39.15
-35.15
-29.03
-20.67
-10.35
0.88
11.35
19.25
23.24
22.97
19.14
13.24
7.08
2.25
-0.28
-0.36
1.44
4.07
6.47
7.97
8.46
8.31
8.04
8.12
8.80
10.24
12.56
15.89
20.14
24.78
28.75
30.81
30.12
26.76
21.79
16.86
13.49
12.46
13.54
15.76
17.99
19.44
19.95
19.90
19.77
19.85
19.99
19.79
18.81
16.90
14.31
11.54
9.13
7.33
5.94
4.49
2.43
-0.57
-4.46
-8.87
-13.26
-17.22
-20.66
-23.81
-27.03
-30.54
-34.16
-37.24
-38.95
-38.65
-36.29
-32.56
-28.63
-25.63
-24.20
-24.27
-25.27
-26.59
-27.96
-29.54
-31.70
-34.59
-38.01
-41.35
-43.94
-45.25
-44.92
-42.66
-38.11
-30.93
-21.06
-9.03
3.90
16.01
25.62
31.71
34.21
33.99
32.47
31.13
31.07
32.72
35.78
39.42
42.51
44.07
43.57
41.02
36.81
31.43
25.32
18.81
12.33
6.43
1.65
-1.77
-4.06
-5.87
-7.87
-10.31
-12.84
-14.73
-15.29
-14.23
-11.75
-8.18
-3.79
1.20
6.28
10.45
12.35
10.96
6.31
-0.15
-6.12
-9.51
-9.46
-6.69
-2.99
-0.14
0.95
0.52
-0.57
-1.55
-2.39
-3.72
-6.30
-10.40
-15.54
-20.61
-24.44
-26.24
-25.80
-23.37
-19.29
-13.77
-6.84
1.36
10.33
19.00
25.98
29.97
30.35
27.49
22.72
17.87
14.58
13.73
15.14
17.71
20.03
20.96
20.15
18.03
15.47
13.26
11.67
10.45
9.09
7.19
4.72
1.97
-0.65
-2.88
-4.63
-5.87
-6.51
-6.46
-5.74
-4.70
-3.91
-3.93
-4.92
-6.54
-8.15
-9.22
-9.62
-9.59
-9.53
-9.71
-10.23
-11.23
-13.02
-16.02
-20.40
-25.72
-30.75
-33.91
-33.81
-29.89
-22.71
-13.71
-4.83
2.05
5.46
4.60
-0.47
-8.61
-17.79
-25.47
-29.40
-28.25
-22.00
-11.73
0.88
14.03
26.19
36.14
42.97
46.09
45.49
41.83
36.45
31.00
26.75
24.08
22.39
20.46
17.17
12.16
5.99
-0.09
-4.67
-6.89
-6.76
-5.19
-3.63
-3.40
-5.16
-8.66
-12.84
-16.36
-18.16
-17.82
-15.63
-12.27
-8.44
-4.54
-0.79
2.69
5.59
7.53
8.26
7.86
6.77
5.56
4.62
4.03
3.67
3.49
3.68
4.58
6.37
8.79
11.09
12.44
12.27
10.65
8.11
5.30
2.70
0.48
-1.39
-2.90
-3.98
-4.64
-5.03
-5.48
-6.25
-7.13
-7.49
-6.59
-4.16
-0.87
1.85
2.55
0.70
-2.86
-6.31
-7.95
-7.27
-5.35
-4.18
-5.47
-9.57
-15.22
-20.25
-22.79
-22.29
-19.60
-16.40
-14.07
-13.02
-12.58
-11.59
-9.21
-5.38
-0.83
3.43
6.63
8.41
8.90
8.38
7.11
5.29
3.13
0.94
-1.00
-2.51
-3.67
-4.61
-5.29
-5.32
-4.07
-1.11
3.46
8.87
13.93
17.60
19.36
19.36
18.17
16.40
14.41
12.26
9.93
7.44
4.89
2.44
0.09
-2.16
-4.18
-5.56
-5.71
-4.23
-1.45
1.49
3.05
2.10
-1.28
-5.67
-9.01
-9.71
-7.63
-4.09
-1.02
0.25
-0.13
-0.67
0.45
4.24
10.18
16.59
21.50
23.75
23.48
21.87
20.34
19.74
20.00
20.32
19.78
17.85
14.71
10.98
7.34
4.15
1.35
-1.33
-4.09
-6.82
-9.20
-10.93
-12.06
-13.00
-14.37
-16.63
-19.81
-23.48
-26.94
-29.52
-30.78
-30.60
-29.16
-26.78
-23.90
-21.00
-18.42
-16.24
-14.18
-11.78
-8.68
-4.91
-0.95
2.57
5.27
7.33
9.37
11.98
15.17
18.18
19.78
18.99
15.75
11.08
6.69
4.08
3.82
5.25
6.93
7.42
5.95
2.82
-0.90
-3.93
-5.43
-5.25
-3.87
-2.05
-0.42
0.72
1.32
1.43
1.15
0.53
-0.26
-0.99
-1.39
-1.27
-0.61
0.39
1.43
2.19
2.43
2.03
1.03
-0.30
-1.48
-1.94
-1.38
0.04
1.65
2.51
1.91
-0.24
-3.34
-6.47
-8.90
-10.45
-11.43
-12.36
-13.51
-14.79
-15.89
-16.57
-16.92
-17.25
-17.81
-18.56
-19.09
-18.85
-17.36
-14.48
-10.29
-4.87
1.82
9.82
18.70
27.27
33.63
35.85
32.97
25.77
16.78
9.32
6.06
7.79
13.14
19.37
23.79
24.97
23.15
19.73
16.29
13.76
12.09
10.66
8.77
6.14
3.04
-0.06
-2.81
-5.19
-7.41
-9.74
-12.14
-14.25
-15.41
-14.98
-12.74
-9.16
-5.38
-2.88
-2.86
-5.63
-10.30
-15.06
-17.92
-17.62
-14.31
-9.50
-5.34
-3.60
-4.90
-8.56
-13.06
-16.87
-19.04
-19.40
-18.29
-16.19
-13.42
-10.19
-6.74
-3.52
-1.08
0.14
0.15
-0.57
-1.16
-0.72
1.41
5.55
11.59
18.96
26.64
33.23
37.21
37.54
34.09
27.95
21.02
15.34
12.15
11.43
12.02
12.36
11.28
8.60
5.05
1.77
-0.26
-0.68
0.25
1.83
3.30
4.02
3.66
2.11
-0.51
-3.95
-7.85
-11.70
-14.92
-16.95
-17.36
-15.99
-13.14
-9.50
-6.11
-3.96
-3.62
-4.96
-7.11
-8.79
-8.94
-7.21
-4.25
-1.43
-0.19
-1.35
-4.67
-9.02
-12.86
-14.93
-14.74
-12.71
-9.87
-7.36
-6.02
-6.02
-6.98
-8.14
-8.82
-8.59
-7.48
-5.74
-3.74
-1.61
0.78
3.83
7.87
12.93
18.50
23.64
27.35
28.94
28.44
26.49
24.08
22.02
20.57
19.42
17.97
15.79
12.82
9.35
5.71
2.08
-1.55
-5.17
-8.53
-11.10
-12.24
-11.58
-9.19
-5.62
-1.57
2.32
5.70
8.48
10.64
12.13
12.71
12.09
10.10
6.82
2.71
-1.46
-4.82
-6.71
-7.03
-6.27
-5.37
-5.28
-6.52
-8.93
-11.69
-13.73
-14.17
-12.75
-9.88
-6.46
-3.59
-2.20
-2.86
-5.62
-9.99
-15.10
-19.89
-23.47
-25.32
-25.38
-23.84
-20.94
-16.79
-11.37
-4.63
3.24
11.70
19.83
26.55
30.91
32.35
30.86
26.90
21.24
14.77
8.27
2.38
-2.48
-6.01
-8.03
-8.44
-7.38
-5.23
-2.57
-0.08
1.70
2.49
2.31
1.44
0.26
-0.81
-1.42
-1.40
-0.74
0.30
1.31
1.74
1.16
-0.58
-3.23
-6.14
-8.46
-9.52
-9.04
-7.28
-4.91
-2.64
-0.92
0.21
1.08
2.11
3.51
5.14
6.63
7.56
7.74
7.21
6.17
4.68
2.59
-0.41
-4.45
-9.30
-14.31
-18.61
-21.49
-22.62
-22.01
-19.77
-15.83
-9.95
-1.93
7.86
18.22
27.21
32.76
33.47
29.17
21.10
11.41
2.34
-4.50
-8.52
-10.00
-9.69
-8.25
-6.02
-3.07
0.53
4.41
7.87
10.06
10.35
8.68
5.60
2.12
-0.68
-2.06
-1.88
-0.48
1.49
3.40
4.94
6.06
6.86
7.38
7.48
6.99
5.81
4.12
2.27
0.63
-0.61
-1.65
-2.86
-4.60
-6.88
-9.34
-11.32
-12.20
-11.62
-9.71
-7.01
-4.28
-2.34
-1.79
-2.86
-5.36
-8.82
-12.61
-16.32
-19.67
-22.49
-24.45
-24.94
-23.22
-18.75
-11.64
-2.78
6.39
14.40
20.22
23.61
24.91
24.75
23.57
21.44
18.12
13.41
7.47
0.95
-5.14
-9.78
-12.44
-13.27
-12.94
-12.28
-11.71
-11.06
-9.72
-7.14
-3.29
1.27
5.64
9.14
11.64
13.55
15.47
17.69
19.95
21.47
21.37
19.14
14.92
9.51
4.13
-0.08
-2.40
-2.80
-1.90
-0.64
0.11
-0.09
-1.16
-2.64
-4.06
-5.14
-5.95
-6.80
-7.97
-9.58
-11.61
-13.98
-16.64
-19.61
-22.84
-26.09
-28.83
-30.39
-30.13
-27.66
-22.89
-16.09
-7.72
1.52
10.76
19.03
25.37
29.19
30.42
29.54
27.28
24.26
20.69
16.48
11.46
5.84
0.23
-4.51
-7.75
-9.35
-9.70
-9.42
-8.94
-8.36
-7.52
-6.26
-4.66
-3.05
-1.74
-0.87
-0.24
0.59
2.01
4.19
6.88
9.53
11.40
11.84
10.54
7.69
3.98
0.40
-2.09
-2.93
-2.15
-0.34
1.58
2.85
3.09
2.49
1.61
1.04
1.15
1.82
2.58
2.72
1.61
-1.17
-5.62
-11.26
-17.16
-22.23
-25.47
-26.41
-25.14
-22.14
-18.02
-13.19
-7.72
-1.60
5.04
11.76
17.83
22.55
25.40
26.20
24.96
21.70
16.49
9.63
1.88
-5.56
-11.34
-14.50
-14.93
-13.37
-11.07
-9.10
-7.88
-7.05
-5.80
-3.52
-0.22
3.47
6.64
8.66
9.45
9.51
9.48
9.85
10.70
11.84
12.90
13.54
13.48
12.47
10.34
7.12
3.13
-1.11
-5.02
-8.22
-10.63
-12.39
-13.67
-14.49
-14.70
-14.07
-12.51
-10.18
-7.49
-5.00
-3.32
-2.85
-3.66
-5.47
-7.66
-9.53
-10.60
-10.66
-9.82
-8.27
-6.06
-3.11
0.66
5.15
9.97
14.53
18.33
21.02
22.47
22.61
21.30
18.37
13.72
7.45
-0.02
-8.01
-15.68
-22.16
-26.67
-28.67
-27.95
-24.76
-19.78
-13.98
-8.36
-3.68
-0.26
1.92
3.09
3.57
3.67
3.72
4.05
4.94
6.46
8.32
9.96
10.76
10.47
9.38
8.27
7.96
8.79
10.30
11.45
11.12
8.76
4.63
-0.25
-4.67
-7.66
-8.79
-8.11
-5.93
-2.63
1.41
5.72
9.69
12.58
13.77
12.93
10.23
6.40
2.48
-0.44
-1.62
-0.94
1.16
3.86
6.37
8.23
9.46
10.40
11.55
13.25
15.63
18.44
21.08
22.60
21.85
17.80
9.96
-1.21
-14.12
-26.41
-35.57
-39.84
-38.81
-33.56
-26.23
-19.30
-14.79
-13.75
-16.10
-20.85
-26.46
-31.31
-34.15
-34.34
-32.00
-27.87
-23.09
-18.72
-15.42
-13.30
-11.97
-10.84
-9.40
-7.35
-4.61
-1.27
2.49
6.31
9.65
11.85
12.34
11.00
8.28
5.16
2.78
1.94
2.80
4.81
7.09
8.84
9.72
9.89
9.69
9.40
9.00
8.31
7.19
5.69
4.13
2.74
1.56
0.35
-1.31
-3.75
-6.95
-10.60
-14.09
-16.68
-17.74
-16.79
-13.58
-8.16
-1.00
7.05
14.87
21.54
26.67
30.48
33.68
37.16
41.47
46.48
51.45
55.13
56.56
55.49
52.16
47.65
43.73
42.22
44.24
49.90
57.61
65.47
72.09
75.98
76.43
73.82
69.64
66.15
66.59
72.65
84.36
99.07
110.45
112.23
102.29
84.42
66.37
56.20
55.40
59.05
57.92
41.55
4.71
-49.46
-111.53
-171.34
-221.44
-261.86
-295.86
-313.86
-306.74
-271.88
-215.96
-150.49
-94.32
-47.91
-10.60
17.38
34.12
38.77
29.75
8.28
-21.86
-56.08
-89.48
-120.81
-141.86
-146.50
-134.88
-113.21
-88.63
-65.45
-44.64
-24.62
-5.35
12.82
28.37
39.12
43.65
42.79
38.94
34.94
33.43
34.93
38.89
43.28
45.52
42.93
35.25
23.09
7.72
-8.72
-23.94
-34.86
-38.86
-34.41
-21.90
-3.59
16.49
33.80
44.93
48.44
45.30
37.81
28.70
20.12
13.40
9.09
6.99
6.94
8.68
11.88
15.74
19.10
20.60
19.36
15.42
9.91
4.69
1.44
0.84
2.34
4.54
5.91
5.61
3.60
0.51
-2.65
-4.87
-5.22
-3.08
1.57
7.89
14.25
18.79
20.21
18.55
15.13
11.84
10.10
10.13
10.88
10.83
8.91
5.15
0.62
-3.22
-5.34
-5.60
-4.74
-3.69
-2.99
-2.50
-1.64
0.02
2.22
3.99
4.12
1.99
-1.99
-6.47
-9.83
-11.02
-9.93
-7.34
-4.34
-1.87
-0.53
-0.63
-2.23
-5.10
-8.57
-11.55
-12.87
-11.77
-8.37
-3.58
1.29
5.21
7.81
9.34
10.32
11.11
11.79
12.22
12.33
12.26
12.41
13.17
14.76
17.08
19.72
22.06
23.51
23.75
22.92
21.63
20.72
20.86
22.19
24.26
26.25
27.47
27.73
27.47
27.41
28.05
29.31
30.44
30.39
28.44
24.61
19.54
13.98
8.48
3.19
-1.98
-7.27
-12.94
-19.06
-25.48
-31.51
-35.87
-36.86
-33.12
-24.28
-11.65
2.15
14.58
24.44
32.52
40.82
51.37
65.01
81.44
99.21
116.60
132.33
145.63
155.53
160.26
157.62
146.11
126.67
101.52
72.91
42.02
8.61
-28.52
-70.10
-114.18
-154.85
-182.28
-187.96
-168.69
-128.00
-74.53
-18.69
30.72
69.16
96.81
118.32
137.32
153.82
164.71
166.01
154.92
130.48
94.02
40.69
-23.31
-83.19
-125.60
-147.19
-153.10
-150.13
-143.26
-134.59
-124.50
-111.62
-96.38
-81.34
-69.49
-63.21
-61.41
-62.64
-65.74
-70.40
-76.32
-85.14
-99.78
-119.37
-140.98
-157.88
-162.38
-149.35
-119.03
-77.04
-33.22
2.34
23.67
30.60
27.83
21.03
13.98
7.95
2.61
-2.76
-7.65
-11.01
-11.44
-7.88
-0.65
8.80
18.90
28.36
36.59
43.57
49.70
55.33
60.47
64.59
67.12
68.78
70.57
73.39
77.21
80.72
81.72
78.37
70.63
56.54
39.31
23.99
15.10
14.84
22.63
35.77
50.41
62.94
70.55
72.18
67.51
57.18
42.70
26.74
12.42
1.91
-3.61
-3.85
1.26
11.14
24.63
39.56
53.90
65.69
72.13
70.79
60.34
41.11
14.85
-15.28
-45.59
-70.89
-86.41
-91.48
-89.17
-85.59
-88.08
-102.94
-132.82
-176.15
-224.81
-266.84
-292.37
-295.30
-274.69
-234.65
-182.40
-119.42
-55.61
-2.55
42.43
81.31
112.88
134.06
141.75
134.85
115.22
