1660334438.00
64.000000
-0.00
-0.00
-0.00
-0.00
-0.00
-0.00
-0.00
-0.00
-0.00
-0.00
0.00
0.01
0.01
-0.00
-0.03
-0.05
-0.05
0.00
0.13
0.36
0.66
1.01
1.37
1.72
2.06
2.40
2.79
3.24
3.80
4.42
5.06
5.67
6.21
6.69
7.15
7.68
8.30
9.13
10.09
11.07
11.93
12.62
13.17
13.70
14.43
15.54
17.27
19.49
21.94
24.33
26.48
28.41
30.42
32.90
36.20
40.74
46.20
52.10
57.84
63.00
67.56
71.93
76.79
82.69
90.28
99.17
108.64
117.75
125.80
132.59
138.57
145.01
150.74
158.27
168.52
181.76
196.74
210.23
217.46
213.40
194.57
160.30
113.51
58.63
0.35
-58.15
-115.83
-173.17
-230.93
-289.05
-346.33
-400.56
-449.97
-493.29
-529.88
-559.33
-580.96
-593.85
-597.01
-589.94
-572.46
-544.80
-506.74
-457.48
-396.14
-322.83
-239.67
-151.03
-62.80
19.31
91.01
150.33
197.30
233.06
258.92
275.99
285.26
287.95
285.58
279.73
271.71
262.21
251.38
239.01
225.00
209.57
193.39
177.35
162.26
148.63
136.46
125.33
114.61
103.78
92.68
81.60
71.15
61.99
54.52
48.73
44.10
39.86
35.25
29.84
23.67
17.31
11.33
6.22
2.19
-0.84
-3.14
-4.93
-6.33
-7.39
-8.13
-8.62
-8.99
-9.28
-9.49
-9.53
-9.33
-8.94
-8.50
-8.18
-8.06
-8.08
-8.10
-8.01
-7.76
-7.43
-7.07
-6.73
-6.40
-6.09
-5.83
-5.61
-5.36
-4.87
-3.93
-2.43
-0.52
1.38
2.78
3.28
2.80
1.52
-0.14
-1.81
-3.23
-4.31
-5.07
-5.54
-5.67
-5.37
-4.59
-3.37
-1.96
-0.69
0.13
0.33
-0.02
-0.66
-1.27
-1.63
-1.66
-1.51
-1.33
-1.24
-1.26
-1.32
-1.35
-1.35
-1.37
-1.43
-1.49
-1.42
-1.05
-0.24
1.02
2.59
4.22
5.61
6.48
6.69
6.22
5.25
4.07
3.00
2.28
1.98
2.03
2.28
2.57
2.85
3.08
3.26
3.29
3.08
2.43
1.27
-0.32
-2.09
-3.78
-5.12
-6.03
-6.54
-6.78
-6.87
-6.84
-6.72
-6.48
-6.17
-5.88
-5.65
-5.47
-5.15
-4.47
-3.26
-1.56
0.33
1.98
2.96
3.10
2.44
1.28
-0.07
-1.35
-2.46
-3.37
-4.06
-4.45
-4.45
-4.01
-3.20
-2.23
-1.35
-0.72
-0.41
-0.34
-0.38
-0.49
-0.67
-0.97
-1.42
-1.97
-2.46
-2.73
-2.66
-2.30
-1.80
-1.41
-1.32
-1.62
-2.24
-2.97
-3.53
-3.60
-2.95
-1.47
0.83
3.76
6.97
9.96
12.17
13.23
12.98
11.56
9.30
6.64
4.01
1.69
-0.12
-1.36
-2.01
-2.09
-1.72
-1.05
-0.32
0.25
0.47
0.26
-0.31
-1.05
-1.73
-2.20
-2.43
-2.52
-2.57
-2.68
-2.86
-3.06
-3.26
-3.51
-3.95
-4.70
-5.72
-6.80
-7.51
-7.36
-5.99
-3.30
0.41
4.58
8.52
11.65
13.59
14.29
13.89
12.66
10.89
8.79
6.55
4.35
2.36
0.77
-0.31
-0.90
-1.18
-1.45
-1.97
-2.89
-4.15
-5.58
-6.92
-8.02
-8.83
-9.38
-9.73
-9.88
-9.80
-9.47
-8.95
-8.38
-7.94
-7.80
-7.93
-8.16
-8.15
-7.51
-5.95
-3.39
-0.07
3.53
6.83
9.32
10.72
11.00
10.32
8.95
7.12
5.04
2.95
1.09
-0.28
-0.96
-0.89
-0.17
0.94
2.11
3.03
3.51
3.46
2.92
2.02
0.94
-0.17
-1.16
-2.00
-2.67
-3.22
-3.68
-4.11
-4.59
-5.22
-6.04
-7.00
-7.88
-8.34
-8.04
-6.82
-4.79
-2.32
0.07
1.91
2.98
3.32
3.13
2.67
2.07
1.37
0.54
-0.41
-1.35
-2.11
-2.47
-2.34
-1.76
-0.90
-0.00
0.75
1.27
1.60
1.86
2.16
2.56
3.04
3.49
3.79
3.84
3.59
2.99
1.98
0.54
-1.27
-3.22
-4.91
-5.85
-5.70
-4.37
-2.13
0.52
2.93
4.63
5.38
5.25
4.54
3.66
2.99
2.79
3.13
3.98
5.19
6.55
7.87
8.94
9.59
9.75
9.46
8.84
8.06
7.26
6.50
5.81
5.14
4.48
3.82
3.12
2.37
1.54
0.62
-0.35
-1.38
-2.51
-3.81
-5.35
-7.08
-8.77
-10.06
-10.67
-10.46
-9.65
-8.61
-7.78
-7.42
-7.54
-7.95
-8.42
-8.75
-8.83
-8.59
-7.95
-6.80
-5.05
-2.73
0.02
2.98
5.84
8.34
10.22
11.35
11.68
11.31
10.39
9.11
7.61
5.92
4.03
1.93
-0.31
-2.61
-4.86
-6.96
-8.80
-10.19
-10.86
-10.51
-8.97
-6.27
-2.76
1.01
4.43
7.04
8.59
9.07
8.65
7.59
6.14
4.53
2.95
1.57
0.50
-0.15
-0.36
-0.14
0.44
1.24
2.08
2.80
3.22
3.24
2.81
1.97
0.83
-0.51
-1.92
-3.35
-4.76
-6.15
-7.49
-8.74
-9.81
-10.58
-10.93
-10.71
-9.79
-8.10
-5.64
-2.54
0.95
4.49
7.66
10.12
11.64
12.13
11.67
10.42
8.64
6.57
4.48
2.62
1.20
0.33
0.04
0.19
0.52
0.79
0.75
0.34
-0.42
-1.39
-2.45
-3.48
-4.47
-5.40
-6.29
-7.12
-7.88
-8.61
-9.38
-10.23
-11.09
-11.69
-11.63
-10.50
-8.11
-4.60
-0.46
3.67
7.19
9.73
11.18
11.63
11.24
10.19
8.64
6.81
4.95
3.36
2.21
1.57
1.32
1.26
1.20
1.03
0.71
0.32
-0.12
-0.56
-1.06
-1.63
-2.29
-3.01
-3.72
-4.32
-4.76
-5.01
-5.12
-5.19
-5.36
-5.72
-6.27
-6.81
-6.99
-6.42
-4.82
-2.17
1.23
4.83
8.07
10.49
11.91
12.35
12.00
11.09
9.82
8.36
6.87
5.51
4.41
3.64
3.17
2.89
2.70
2.52
2.33
2.19
2.14
2.17
2.21
2.16
1.90
1.36
0.58
-0.36
-1.34
-2.26
-3.08
-3.80
-4.48
-5.21
-6.05
-6.92
-7.64
-7.86
-7.22
-5.49
-2.70
0.76
4.30
7.27
9.16
9.75
9.12
7.51
5.28
2.77
0.31
-1.88
-3.62
-4.80
-5.43
-5.53
-5.21
-4.54
-3.64
-2.64
-1.63
-0.66
0.28
1.22
2.21
3.21
4.13
4.81
5.15
5.05
4.53
3.59
2.30
0.72
-1.01
-2.66
-3.87
-4.23
-3.37
-1.14
2.30
6.46
10.65
14.11
16.28
16.93
16.17
14.42
12.20
9.97
8.04
6.56
5.54
4.98
4.89
5.30
6.17
7.38
8.67
9.71
10.18
9.86
8.65
6.65
4.07
1.24
-1.50
-3.87
-5.69
-6.96
-7.84
-8.54
-9.32
-10.36
-11.75
-13.40
-15.06
-16.30
-16.59
-15.41
-12.42
-7.67
-1.63
4.87
10.86
15.54
18.48
19.69
19.54
18.59
17.33
16.09
14.98
14.00
13.05
12.06
10.93
9.55
7.80
5.57
2.87
-0.10
-3.05
-5.67
-7.79
-9.41
-10.67
-11.80
-12.95
-14.17
-15.42
-16.67
-17.94
-19.35
-21.01
-23.05
-25.40
-27.86
-30.04
-31.49
-31.85
-30.93
-28.84
-25.93
-22.65
-19.41
-16.49
-13.98
-11.85
-10.00
-8.34
-6.78
-5.22
-3.59
-1.88
-0.14
1.43
2.66
3.41
3.70
3.73
3.82
4.31
5.40
7.04
8.92
10.64
11.78
12.06
11.39
9.84
7.58
4.84
1.86
-1.12
-3.87
-6.21
-8.06
-9.44
-10.33
-10.65
-10.23
-9.00
-7.01
-4.45
-1.65
0.94
2.90
3.97
4.14
3.65
2.69
1.51
0.48
-0.09
-0.17
0.03
0.16
-0.07
-0.74
-2.11
-4.21
-6.78
-9.45
-11.98
-14.34
-16.61
-18.82
-20.93
-23.23
-25.84
-28.47
-30.57
-31.71
-31.70
-30.63
-28.76
-23.52
-14.18
-2.22
9.54
19.00
25.74
30.34
33.55
35.75
36.92
36.29
33.37
28.35
22.16
15.96
10.74
6.99
4.80
3.86
3.41
2.94
2.42
2.24
2.74
3.92
5.35
6.38
6.30
4.38
0.29
-5.60
-12.27
-18.24
-22.19
-23.30
-21.43
-17.23
-11.94
-6.86
-2.97
-0.62
0.61
1.69
3.94
8.79
17.18
28.93
42.46
55.06
63.23
65.03
60.19
50.34
38.19
26.35
16.35
8.48
2.24
-2.89
-6.86
-9.27
-9.76
-8.53
-6.43
-4.68
-4.22
-5.30
-7.42
-9.57
-10.91
-11.09
-10.35
-9.25
-8.43
-8.22
-8.60
-9.28
-9.81
-9.92
-9.57
-9.00
-8.53
-8.42
-8.64
-8.85
-8.52
-7.22
-4.88
-1.97
0.79
2.63
3.14
2.33
0.59
-1.57
-3.71
-5.59
-7.06
-8.04
-8.40
-8.09
-7.12
-5.66
-3.99
-2.30
-0.78
0.51
1.54
2.29
2.74
2.87
2.75
2.43
2.06
1.74
1.54
1.50
1.59
1.72
1.78
1.60
1.07
0.23
-0.64
-1.08
-0.63
0.91
3.38
6.20
8.64
10.04
10.13
8.98
7.02
4.76
2.64
0.89
-0.44
-1.41
-2.11
-2.57
-2.79
-2.77
-2.56
-2.26
-2.05
-2.07
-2.41
-3.08
-4.00
-5.13
-6.43
-7.88
-9.38
-10.79
-11.88
-12.52
-12.68
-12.48
-12.12
-11.77
-11.60
-11.65
-11.88
-12.11
-12.05
-11.27
-9.44
-6.38
-2.21
2.59
7.33
11.32
14.10
15.50
15.65
14.87
13.57
12.13
10.86
9.95
9.45
9.29
9.29
9.21
8.82
7.91
6.32
3.98
1.00
-2.34
-5.60
-8.31
-10.10
-10.90
-10.86
-10.30
-9.58
-9.00
-8.72
-8.84
-9.31
-9.95
-10.48
-10.61
-10.16
-9.16
-7.87
-6.67
-5.92
-5.80
-6.32
-7.35
-8.71
-10.28
-11.94
-13.60
-15.14
-16.36
-17.02
-16.78
-15.32
-12.43
-8.19
-3.00
2.41
7.27
11.01
13.41
14.63
15.10
15.33
15.73
16.57
17.87
19.41
20.72
21.27
20.67
18.93
16.54
14.38
13.33
13.96
16.22
19.57
23.17
26.25
28.30
29.10
28.65
27.08
24.63
21.64
18.57
15.94
14.13
13.28
13.14
13.18
12.77
11.48
9.18
6.12
2.77
-0.40
-3.11
-5.37
-7.43
-9.67
-12.47
-16.06
-20.39
-25.09
-29.51
-32.92
-34.70
-34.55
-32.70
-29.79
-26.69
-24.18
-22.66
-22.10
-22.10
-22.12
-21.77
-20.93
-19.74
-18.46
-17.19
-15.78
-13.77
-10.51
-5.33
2.16
11.92
23.34
35.21
45.96
53.95
58.00
57.75
53.93
48.10
42.14
37.57
34.99
33.88
33.03
31.09
27.36
22.01
16.08
10.88
7.42
6.04
6.35
7.57
8.90
9.74
9.76
8.69
6.29
2.40
-2.88
-9.03
-15.16
-20.22
-23.40
-24.42
-23.64
-21.84
-19.97
-18.73
-18.44
-18.99
-19.94
-20.76
-21.06
-20.75
-20.10
-19.63
-19.88
-21.20
-23.58
-26.59
-29.57
-31.77
-32.62
-31.88
-29.67
-26.40
-22.64
-18.95
-15.73
-13.15
-11.17
-9.61
-8.29
-7.10
-6.02
-5.08
-4.29
-3.50
-2.43
-0.69
2.09
6.24
11.97
19.33
28.07
37.60
46.93
54.87
60.28
62.47
61.32
57.30
51.22
43.91
36.02
28.03
20.31
13.26
7.31
2.80
-0.14
-1.66
-2.13
-1.97
-1.47
-0.76
0.24
1.62
3.43
5.55
7.72
9.60
10.79
10.88
9.55
6.59
2.09
-3.50
-9.42
-14.74
-18.74
-21.13
-22.20
-22.62
-23.10
-24.00
-25.25
-26.50
-27.42
-28.00
-28.61
-29.79
-31.92
-34.93
-38.22
-40.90
-42.12
-41.45
-39.01
-35.39
-31.30
-27.33
-23.60
-19.89
-15.85
-11.24
-6.18
-1.04
3.68
7.60
10.64
13.20
15.92
19.46
24.09
29.59
35.32
40.51
44.49
46.77
47.30
46.21
43.67
39.75
34.59
28.60
22.63
17.74
14.73
14.03
15.39
18.05
21.03
23.70
26.01
28.27
30.30
29.41
22.20
6.59
-15.73
-39.55
-58.64
-68.76
-68.89
-61.15
-49.33
-36.49
-24.10
-12.10
-0.51
10.14
17.67
19.46
14.45
3.72
-9.71
-22.68
-33.03
-40.24
-44.81
-47.38
-47.90
-45.50
-39.88
-30.14
-16.58
-0.74
14.81
27.09
33.52
32.38
24.68
13.64
3.53
-2.38
-3.07
0.07
4.31
7.40
8.72
9.15
9.96
11.89
14.63
17.07
18.11
17.32
15.11
12.44
10.49
10.04
11.42
14.28
17.65
20.26
20.48
17.65
12.25
5.69
-0.54
-5.73
-10.18
-14.82
-20.29
-26.24
-31.30
-33.89
-33.09
-29.15
-23.68
-17.94
-13.02
-9.41
-7.04
-5.39
-3.85
-1.92
0.68
3.89
7.35
10.41
12.43
13.11
12.74
11.99
11.58
11.88
12.76
13.69
14.02
13.29
11.39
8.55
5.32
1.98
-1.03
-3.34
-4.68
-5.00
-4.65
-4.28
-4.55
-5.98
-8.53
-11.59
-14.35
-16.23
-16.84
-16.12
-14.27
-11.59
-8.37
-4.87
-1.27
2.25
5.35
7.92
9.95
11.45
12.37
12.48
11.53
9.31
6.10
2.11
-2.00
-5.44
-7.59
-8.22
-7.64
-6.52
-5.58
-5.34
-5.87
-6.69
-7.12
-6.48
-4.41
-1.02
3.10
7.13
10.32
12.26
12.97
12.77
12.10
11.33
10.64
10.10
9.68
9.34
8.97
8.44
7.58
6.26
4.54
2.73
1.29
0.68
1.14
2.61
4.73
7.00
8.89
10.02
10.12
9.14
7.25
4.87
2.56
0.79
-0.28
-0.91
-1.57
-2.72
-4.46
-6.51
-8.38
-9.68
-10.52
-11.31
-12.61
-14.65
-17.23
-19.74
-21.49
-22.02
-21.12
-18.72
-14.39
-7.83
1.16
12.04
23.20
32.26
36.95
36.14
30.35
21.57
12.33
4.67
-0.52
-3.52
-5.20
-6.31
-7.16
-7.65
-7.58
-7.00
-6.23
-5.70
-5.72
-6.33
-7.19
-7.85
-7.96
-7.44
-6.57
-5.78
-5.45
-5.74
-6.53
-7.52
-8.39
-8.95
-9.17
-9.12
-8.90
-8.54
-8.08
-7.51
-6.85
-6.14
-5.42
-4.70
-3.98
-3.26
-2.50
-1.64
-0.57
0.84
2.60
4.64
6.73
8.56
9.83
10.31
9.93
8.85
7.33
5.72
4.35
3.40
2.91
2.74
2.70
2.60
2.36
2.00
1.63
1.36
1.27
1.32
1.41
1.44
1.31
1.00
0.53
-0.08
-0.76
-1.46
-2.11
-2.63
-2.92
-2.93
-2.73
-2.41
-2.18
-2.17
-2.42
-2.82
-3.21
-3.48
-3.62
-3.75
-4.01
-4.49
-5.17
-5.91
-6.51
-6.77
-6.54
-5.77
-4.47
-2.71
-0.63
1.67
3.96
6.02
7.74
9.09
10.08
10.77
11.14
11.17
10.81
10.05
8.95
7.60
6.12
4.62
3.24
2.12
1.38
1.07
1.15
1.49
1.91
2.20
2.27
2.14
1.91
1.69
1.55
1.48
1.39
1.19
0.84
0.36
-0.16
-0.62
-0.98
-1.23
-1.46
-1.75
-2.18
-2.77
-3.56
-4.56
-5.80
-7.29
-8.98
-10.74
-12.42
-13.88
-15.10
-16.11
-16.95
-17.56
-17.82
-17.52
-16.54
-14.93
-12.89
-10.74
-8.75
-7.07
-5.69
-4.49
-3.31
-1.99
-0.46
1.25
2.96
4.45
5.51
6.02
6.04
5.88
5.95
6.60
8.02
10.11
12.54
14.88
16.66
17.54
17.50
16.80
15.89
15.30
15.37
16.07
17.09
17.81
17.61
16.25
13.87
10.93
7.99
5.56
3.94
3.17
2.84
2.31
1.11
-0.90
-3.39
-5.57
-6.38
-5.27
-1.50
5.01
13.06
20.50
25.01
25.08
20.67
13.23
5.19
-1.00
-3.83
-3.70
-1.59
1.30
4.07
6.32
7.95
8.74
8.35
6.21
1.30
-6.29
-15.70
-25.33
-33.21
-37.75
-38.42
-36.03
-33.53
-32.64
-33.68
-35.44
-35.56
-31.61
-22.33
-8.45
7.68
23.18
35.28
42.70
45.99
46.87
47.05
47.32
47.43
46.60
44.05
39.88
35.04
30.81
28.08
27.01
27.02
27.25
26.99
25.64
23.23
20.40
18.09
16.94
17.02
17.94
19.21
20.55
21.13
20.55
19.13
17.77
17.25
17.75
18.94
20.22
20.92
19.03
12.86
1.96
-12.61
-28.99
-45.22
-59.58
-71.01
-79.55
-88.50
-101.70
-121.39
-146.67
-174.36
-200.30
-220.78
-233.58
-227.02
-195.32
-141.87
-78.20
-16.74
33.90
69.42
88.82
93.83
88.68
77.09
62.68
47.99
34.98
24.35
15.76
8.43
1.48
-5.84
-15.46
-28.58
-44.38
-58.43
-67.14
-68.81
-64.27
-56.53
-49.37
-46.77
-50.37
-57.75
-63.98
-63.67
-52.13
-26.45
13.97
67.14
127.76
187.91
239.24
273.47
284.64
271.68
239.17
195.96
152.13
115.49
83.80
56.57
32.92
11.72
