1660935624.00
64.000000
-0.00
-0.00
-0.00
-0.00
-0.00
-0.00
-0.00
-0.00
-0.00
-0.00
0.00
0.01
0.01
-0.00
-0.03
-0.05
-0.05
0.00
0.13
0.36
0.66
1.01
1.37
1.72
2.06
2.40
2.79
3.25
3.81
4.44
5.10
5.73
6.32
6.90
7.52
8.26
9.15
10.28
11.52
12.76
13.88
14.85
15.73
16.74
18.09
19.93
22.44
25.41
28.53
31.52
34.25
36.84
39.67
43.17
47.66
53.44
60.10
67.08
73.81
80.05
85.99
92.24
99.55
108.38
119.11
131.04
143.26
154.90
165.61
175.73
186.17
198.38
210.93
225.72
242.94
262.42
282.96
301.99
315.73
320.06
311.81
289.89
256.11
213.61
166.24
117.19
68.44
20.96
-24.72
-68.06
-108.51
-145.62
-179.99
-212.98
-246.31
-281.28
-317.83
-354.04
-386.14
-409.68
-420.83
-418.02
-402.63
-378.42
-350.09
-321.54
-294.81
-270.12
-246.73
-223.95
-201.87
-181.24
-162.75
-146.52
-131.97
-118.12
-104.18
-89.97
-75.93
-62.89
-51.59
-42.32
-34.81
-28.36
-22.22
-15.85
-9.19
-2.54
3.56
8.63
12.46
15.16
17.13
18.78
20.41
22.10
23.69
24.98
25.78
26.06
25.93
25.57
25.18
24.87
24.69
24.61
24.54
24.36
23.96
23.28
22.36
21.33
20.36
19.59
19.07
18.74
18.49
18.21
17.82
17.33
16.78
16.22
15.73
15.33
15.02
14.76
14.46
14.06
13.50
12.83
12.16
11.63
11.33
11.26
11.29
11.30
11.13
10.77
10.23
9.62
9.07
8.66
8.41
8.29
8.20
8.09
7.93
7.77
7.64
7.57
7.53
7.46
7.34
7.16
6.96
6.78
6.61
6.39
6.05
5.58
4.99
4.35
3.74
3.20
2.72
2.29
1.90
1.54
1.19
0.85
0.47
0.01
-0.55
-1.21
-1.96
-2.75
-3.55
-4.29
-4.94
-5.48
-5.97
-6.43
-6.89
-7.31
-7.66
-7.90
-8.04
-8.16
-8.29
-8.46
-8.61
-8.67
-8.56
-8.30
-7.92
-7.51
-7.10
-6.71
-6.32
-5.91
-5.48
-5.08
-4.73
-4.44
-4.17
-3.81
-3.31
-2.64
-1.88
-1.15
-0.55
-0.13
0.13
0.31
0.49
0.70
0.96
1.25
1.58
1.97
2.42
2.86
3.20
3.35
3.31
3.12
2.92
2.82
2.88
3.11
3.46
3.88
4.31
4.70
4.95
5.01
4.85
4.52
4.14
3.86
3.79
3.96
4.27
4.60
4.84
4.94
4.93
4.90
4.91
4.99
5.13
5.24
5.24
5.07
4.76
4.35
3.95
3.62
3.39
3.23
3.09
2.94
2.79
2.64
2.53
2.46
2.40
2.33
2.21
2.04
1.86
1.73
1.68
1.74
1.86
2.04
2.24
2.45
2.66
2.87
3.01
3.04
2.89
2.56
2.11
1.67
1.34
1.18
1.19
1.28
1.34
1.32
1.21
1.09
1.02
1.08
1.23
1.41
1.54
1.56
1.48
1.34
1.23
1.18
1.19
1.19
1.16
1.06
0.95
0.89
0.89
0.96
1.00
0.94
0.74
0.44
0.16
0.02
0.11
0.40
0.78
1.11
1.25
1.20
1.00
0.76
0.61
0.57
0.65
0.79
0.92
1.01
1.03
1.03
1.03
1.06
1.14
1.22
1.27
1.23
1.10
0.88
0.63
0.42
0.31
0.35
0.54
0.86
1.26
1.66
1.97
2.11
2.04
1.76
1.36
0.96
0.65
0.51
0.52
0.64
0.80
0.97
1.13
1.29
1.44
1.53
1.52
1.39
1.16
0.87
0.61
0.39
0.22
0.07
-0.09
-0.23
-0.34
-0.39
-0.38
-0.31
-0.18
0.01
0.26
0.52
0.73
0.80
0.68
0.37
-0.05
-0.44
-0.67
-0.62
-0.27
0.29
0.90
1.39
1.67
1.71
1.60
1.44
1.33
1.22
1.04
0.74
0.32
-0.11
-0.40
-0.48
-0.37
-0.21
-0.13
-0.14
-0.20
-0.17
0.02
0.35
0.71
0.95
1.03
0.97
0.88
0.83
0.85
0.85
0.75
0.49
0.10
-0.29
-0.59
-0.71
-0.65
-0.48
-0.29
-0.16
-0.09
-0.06
0.01
0.14
0.37
0.64
0.90
1.08
1.14
1.09
0.99
0.89
0.84
0.87
0.93
0.98
0.94
0.79
0.54
0.25
0.01
-0.07
0.06
0.37
0.74
1.00
1.01
0.75
0.32
-0.11
-0.36
-0.38
-0.26
-0.14
-0.15
-0.31
-0.55
-0.74
-0.77
-0.63
-0.40
-0.16
0.01
0.11
0.18
0.28
0.43
0.64
0.85
0.99
1.04
0.96
0.78
0.56
0.39
0.32
0.37
0.49
0.58
0.56
0.40
0.15
-0.10
-0.28
-0.37
-0.42
-0.44
-0.45
-0.40
-0.27
-0.08
0.10
0.17
0.09
-0.11
-0.29
-0.35
-0.24
-0.06
0.06
0.04
-0.15
-0.42
-0.68
-0.91
-1.14
-1.48
-1.99
-2.68
-3.45
-4.17
-4.76
-5.15
-5.40
-5.61
-5.87
-6.27
-6.82
-7.48
-8.15
-8.69
-8.99
-8.95
-8.51
-7.74
-6.82
-6.04
-5.82
-6.52
-8.33
-11.11
-14.43
-17.69
-20.41
-22.50
-24.30
-26.44
-29.58
-33.94
-39.25
-44.77
-49.68
-53.52
-56.41
-59.08
-62.51
-67.49
-74.26
-82.42
-91.22
-99.97
-108.34
-116.53
-125.03
-134.29
-144.49
-155.57
-167.33
-179.40
-191.07
-200.86
-206.45
-205.03
-194.12
-172.50
-140.70
-100.71
-55.07
-5.86
45.56
98.18
150.42
199.60
242.29
275.47
297.82
310.30
315.69
317.32
317.79
318.36
319.24
320.37
322.03
324.97
329.96
337.10
345.28
352.27
355.11
350.95
337.76
314.99
283.69
246.06
204.67
161.50
117.25
71.33
22.59
-29.38
-83.09
-134.87
-179.73
-213.11
-232.55
-238.60
-234.41
-224.28
-211.95
-199.54
-187.50
-175.50
-163.36
-151.57
-141.07
-132.52
-125.76
-119.81
-113.34
-105.47
-96.14
-86.11
-76.61
-68.68
-62.69
-58.30
-54.67
-50.88
-46.34
-40.99
-35.24
-29.76
-25.15
-21.71
-19.36
-17.72
-16.26
-14.54
-12.38
-9.89
-7.42
-5.34
-3.93
-3.22
-3.04
-3.07
-3.04
-2.76
-2.19
-1.42
-0.57
0.23
0.91
1.42
1.76
1.95
1.95
1.77
1.41
0.93
0.44
0.04
-0.17
-0.21
-0.13
-0.03
0.02
0.01
-0.04
-0.08
-0.10
-0.12
-0.15
-0.18
-0.19
-0.17
-0.14
-0.19
-0.34
-0.54
-0.63
-0.41
0.21
1.14
2.08
2.70
2.79
2.32
1.49
0.57
-0.24
-0.81
-1.13
-1.21
-1.07
-0.74
-0.32
0.07
0.32
0.36
0.25
0.04
-0.19
-0.43
-0.71
-1.07
-1.47
-1.82
-2.00
-1.93
-1.64
-1.26
-0.97
-0.89
-1.04
-1.32
-1.60
-1.71
-1.58
-1.19
-0.59
0.16
1.05
2.06
3.14
4.17
4.93
5.21
4.87
3.97
2.74
1.52
0.59
0.09
-0.05
0.01
0.07
0.04
-0.06
-0.16
-0.21
-0.22
-0.25
-0.38
-0.60
-0.89
-1.16
-1.35
-1.43
-1.42
-1.39
-1.38
-1.40
-1.41
-1.38
-1.27
-1.13
-0.99
-0.88
-0.80
-0.69
-0.47
-0.06
0.57
1.41
2.38
3.35
4.12
4.48
4.28
3.51
2.33
1.08
0.08
-0.46
-0.54
-0.35
-0.15
-0.12
-0.32
-0.66
-1.03
-1.33
-1.54
-1.71
-1.87
-2.00
-2.06
-2.03
-1.86
-1.58
-1.23
-0.93
-0.73
-0.70
-0.83
-1.02
-1.14
-1.07
-0.73
-0.11
0.70
1.61
2.50
3.28
3.87
4.22
4.27
4.00
3.45
2.70
1.88
1.17
0.64
0.33
0.16
0.03
-0.17
-0.44
-0.76
-1.04
-1.24
-1.37
-1.50
-1.72
-2.02
-2.30
-2.43
-2.26
-1.79
-1.16
-0.61
-0.37
-0.59
-1.17
-1.86
-2.35
-2.37
-1.83
-0.83
0.39
1.54
2.32
2.58
2.25
1.45
0.43
-0.48
-1.00
-0.94
-0.37
0.50
1.36
1.97
2.23
2.19
1.97
1.70
1.41
1.12
0.86
0.68
0.62
0.68
0.79
0.79
0.54
-0.00
-0.75
-1.54
-2.19
-2.59
-2.72
-2.65
-2.46
-2.24
-2.04
-1.88
-1.79
-1.71
-1.59
-1.29
-0.74
0.09
1.06
1.94
2.48
2.53
2.10
1.36
0.58
0.00
-0.25
-0.19
0.06
0.30
0.42
0.33
0.07
-0.28
-0.64
-0.96
-1.23
-1.46
-1.66
-1.78
-1.72
-1.41
-0.87
-0.22
0.32
0.58
0.49
0.15
-0.23
-0.44
-0.38
-0.04
0.48
1.12
1.84
2.60
3.28
3.70
3.65
3.04
1.99
0.80
-0.16
-0.64
-0.61
-0.28
0.05
0.16
0.03
-0.22
-0.37
-0.29
0.00
0.36
0.61
0.64
0.46
0.16
-0.16
-0.43
-0.68
-0.92
-1.18
-1.44
-1.65
-1.78
-1.83
-1.83
-1.77
-1.63
-1.35
-0.94
-0.39
0.27
1.03
1.86
2.72
3.45
3.84
3.67
2.83
1.48
-0.02
-1.18
-1.67
-1.42
-0.69
0.09
0.51
0.41
-0.10
-0.73
-1.16
-1.26
-1.08
-0.82
-0.68
-0.77
-1.00
-1.20
-1.20
-0.94
-0.56
-0.25
-0.16
-0.31
-0.55
-0.66
-0.53
-0.17
0.28
0.66
0.94
1.22
1.60
2.14
2.71
3.08
3.03
2.51
1.64
0.69
-0.11
-0.64
-0.94
-1.13
-1.28
-1.39
-1.36
-1.13
-0.73
-0.33
-0.12
-0.25
-0.74
-1.42
-2.04
-2.37
-2.31
-1.95
-1.49
-1.18
-1.15
-1.38
-1.73
-1.99
-2.04
-1.80
-1.28
-0.47
0.62
1.96
3.34
4.47
4.99
4.68
3.56
1.97
0.38
-0.77
-1.29
-1.24
-0.88
-0.48
-0.18
-0.00
0.14
0.30
0.50
0.67
0.75
0.72
0.59
0.39
0.16
-0.12
-0.46
-0.83
-1.15
-1.32
-1.23
-0.87
-0.32
0.28
0.77
1.02
0.98
0.68
0.21
-0.29
-0.68
-0.81
-0.53
0.18
1.22
2.33
3.15
3.41
2.99
2.05
0.95
0.05
-0.48
-0.69
-0.84
-1.19
-1.81
-2.54
-3.10
-3.25
-2.96
-2.41
-1.92
-1.69
-1.76
-1.94
-2.00
-1.77
-1.30
-0.75
-0.34
-0.20
-0.30
-0.50
-0.63
-0.57
-0.32
0.08
0.59
1.21
1.97
2.81
3.57
4.01
3.93
3.26
2.13
0.85
-0.25
-0.92
-1.07
-0.79
-0.25
0.34
0.84
1.16
1.28
1.17
0.89
0.50
0.08
-0.28
-0.52
-0.64
-0.69
-0.70
-0.74
-0.79
-0.84
-0.87
-0.86
-0.82
-0.74
-0.61
-0.40
-0.08
0.32
0.71
0.95
0.99
0.85
0.66
0.57
0.71
1.07
1.54
1.92
2.04
1.84
1.35
0.75
0.21
-0.15
-0.34
-0.45
-0.61
-0.92
-1.35
-1.80
-2.12
-2.25
-2.20
-2.10
-2.07
-2.17
-2.34
-2.47
-2.43
-2.20
-1.86
-1.54
-1.36
-1.33
-1.37
-1.34
-1.15
-0.78
-0.27
0.30
0.89
1.49
2.13
2.81
3.53
4.25
4.87
5.28
5.38
5.06
4.32
3.22
1.96
0.75
-0.23
-0.87
-1.17
-1.18
-1.03
-0.83
-0.71
-0.74
-0.94
-1.22
-1.45
-1.52
-1.39
-1.12
-0.84
-0.66
-0.61
-0.66
-0.72
-0.75
-0.77
-0.85
-1.02
-1.27
-1.52
-1.66
-1.61
-1.38
-1.01
-0.52
0.05
0.69
1.36
1.92
2.19
2.04
1.44
0.53
-0.38
-0.98
-1.06
-0.64
0.09
0.83
1.33
1.45
1.22
0.80
0.36
0.06
-0.02
0.10
0.31
0.49
0.54
0.40
0.11
-0.26
-0.59
-0.81
-0.90
-0.92
-0.94
-1.00
-1.10
-1.20
-1.25
-1.25
-1.17
-0.98
-0.60
0.03
0.88
1.79
2.51
2.80
2.56
1.90
1.08
0.40
0.03
-0.01
0.17
0.38
0.53
0.57
0.53
0.45
0.33
0.16
-0.11
-0.48
-0.92
-1.34
-1.62
-1.67
-1.48
-1.12
-0.73
-0.48
-0.46
-0.66
-0.98
-1.26
-1.32
-1.06
-0.47
0.39
1.36
2.23
2.79
2.89
2.50
1.72
0.78
-0.09
-0.67
-0.91
-0.86
-0.65
-0.40
-0.19
-0.05
0.03
0.04
-0.00
-0.08
-0.14
-0.13
-0.02
0.17
0.37
0.51
0.53
0.42
0.18
-0.17
-0.58
-1.00
-1.38
-1.64
-1.74
-1.64
-1.34
-0.92
-0.48
-0.15
0.01
0.00
-0.06
-0.04
0.18
0.63
1.23
1.78
2.08
1.98
1.47
0.68
-0.18
-0.83
-1.10
-0.92
-0.44
0.12
0.51
0.61
0.44
0.14
-0.13
-0.28
-0.33
-0.35
-0.39
-0.48
-0.58
-0.65
-0.69
-0.73
-0.80
-0.90
-0.99
-1.00
-0.89
-0.70
-0.49
-0.37
-0.38
-0.54
-0.74
-0.87
-0.82
-0.55
-0.09
0.43
0.86
1.10
1.07
0.79
0.37
-0.08
-0.42
-0.56
-0.46
-0.17
0.21
0.55
0.74
0.72
0.51
0.19
-0.16
-0.44
-0.61
-0.72
-0.85
-1.05
-1.31
-1.52
-1.54
-1.24
-0.62
0.19
0.99
1.58
1.93
2.11
2.28
2.59
3.05
3.59
4.05
4.31
4.27
3.90
3.21
2.25
1.14
0.04
-0.84
-1.37
-1.54
-1.47
-1.37
-1.39
-1.57
-1.77
-1.83
-1.64
-1.25
-0.82
-0.59
-0.67
-1.02
-1.46
-1.79
-1.89
-1.76
-1.54
-1.37
-1.31
-1.33
-1.33
-1.22
-0.99
-0.70
-0.46
-0.32
-0.18
0.12
0.74
1.69
2.77
3.65
4.01
3.70
2.83
1.69
0.61
-0.22
-0.78
-1.16
-1.46
-1.71
-1.81
-1.68
-1.31
-0.80
-0.28
0.09
0.25
0.17
-0.11
-0.57
-1.14
-1.74
-2.24
-2.54
-2.56
-2.32
-1.92
-1.48
-1.09
-0.74
-0.34
0.20
0.91
1.74
2.51
3.01
3.08
2.71
2.03
1.28
0.70
0.43
0.45
0.60
0.70
0.66
0.49
0.35
0.38
0.66
1.12
1.55
1.73
1.51
0.90
0.11
-0.60
-1.01
-1.04
-0.81
-0.51
-0.32
-0.30
-0.40
-0.54
-0.62
-0.66
-0.70
-0.78
-0.90
-1.00
-1.02
-0.93
-0.69
-0.28
0.33
1.14
2.10
3.02
3.68
3.84
3.43
2.55
1.47
0.51
-0.15
-0.49
-0.65
-0.83
-1.11
-1.48
-1.80
-1.92
-1.81
-1.55
-1.28
-1.12
-1.07
-1.05
-0.94
-0.70
-0.37
-0.13
-0.13
-0.44
-1.00
-1.61
-2.09
-2.29
-2.15
-1.68
-0.95
-0.02
1.04
2.08
2.92
3.35
3.25
2.62
1.65
0.62
-0.19
-0.64
-0.72
-0.56
-0.32
-0.15
-0.07
-0.08
-0.14
-0.21
-0.29
-0.35
-0.38
-0.32
-0.19
-0.03
0.08
0.04
-0.18
-0.57
-1.04
-1.46
-1.72
-1.78
-1.65
-1.39
-1.08
-0.78
-0.53
-0.30
-0.08
0.20
0.58
1.08
1.68
2.29
2.80
3.05
2.96
2.54
1.93
1.30
0.85
0.68
0.77
1.01
1.23
1.28
1.11
0.71
0.17
-0.38
-0.84
-1.15
-1.34
-1.49
-1.67
-1.91
-2.15
-2.28
-2.22
-1.93
-1.47
-0.97
-0.55
-0.30
-0.21
-0.25
-0.39
-0.59
-0.83
-1.03
-1.03
-0.69
0.06
1.13
2.26
3.11
3.43
3.17
2.50
1.76
1.25
1.08
1.18
1.30
1.24
0.89
0.30
-0.35
-0.88
-1.16
-1.16
-0.94
-0.63
-0.37
-0.28
-0.43
-0.76
-1.15
-1.44
-1.52
-1.38
-1.16
-0.99
-0.96
-1.06
-1.15
-1.14
-1.00
-0.83
-0.73
-0.73
-0.74
-0.57
-0.09
0.67
1.46
1.95
1.90
1.27
0.30
-0.64
-1.17
-1.13
-0.59
0.19
0.91
1.36
1.52
1.48
1.37
1.26
1.14
1.01
0.88
0.80
0.84
1.01
1.20
1.25
1.00
0.41
-0.41
-1.31
-2.09
-2.66
-2.98
-3.11
-3.11
-3.04
-2.92
-2.75
-2.45
-1.96
-1.20
-0.16
1.05
2.26
3.25
3.84
3.99
3.75
3.28
2.74
2.22
1.74
1.27
0.76
0.21
-0.34
-0.84
-1.20
-1.39
-1.39
-1.26
-1.11
-1.02
-1.02
-1.08
-1.11
-1.03
-0.83
-0.59
-0.42
-0.39
-0.48
-0.57
-0.55
-0.36
-0.03
0.35
0.69
0.96
1.18
1.39
1.57
1.68
1.64
1.41
1.01
0.51
0.03
-0.35
-0.59
-0.66
-0.57
-0.36
-0.09
0.14
0.22
0.12
-0.14
-0.45
-0.71
-0.81
-0.73
-0.51
-0.24
-0.01
0.10
0.04
-0.20
-0.58
-1.00
-1.32
-1.41
-1.21
-0.79
-0.30
0.06
0.14
-0.07
-0.44
-0.74
-0.74
-0.30
0.54
1.59
2.53
3.04
2.95
2.28
1.29
0.32
-0.35
-0.62
-0.60
-0.51
-0.50
-0.60
-0.64
-0.45
0.04
0.72
1.29
1.49
1.20
0.54
-0.21
-0.77
-0.99
-0.93
-0.78
-0.72
-0.85
-1.08
-1.27
-1.30
-1.17
-0.97
-0.80
-0.66
-0.46
-0.09
0.50
1.18
1.73
1.98
1.93
1.73
1.59
1.65
1.81
1.85
1.55
0.86
-0.06
-0.93
-1.49
-1.69
-1.67
-1.65
-1.82
-2.20
-2.68
-3.08
-3.23
-3.06
-2.55
-1.77
-0.85
0.06
0.80
1.23
1.34
1.21
1.04
0.98
1.15
1.53
2.01
2.44
2.69
2.68
2.36
1.76
0.98
0.15
-0.56
-1.02
-1.17
-1.06
-0.77
-0.39
0.02
0.44
0.83
1.13
1.28
1.22
0.98
0.63
0.28
0.00
-0.18
-0.33
-0.53
-0.80
-1.11
-1.35
-1.43
-1.32
-1.08
-0.85
-0.78
-0.90
-1.17
-1.47
-1.67
-1.69
-1.50
-1.09
-0.44
0.43
1.44
2.36
2.90
2.83
2.12
1.00
-0.11
-0.80
-0.93
-0.65
-0.34
-0.32
-0.69
-1.27
-1.74
-1.88
-1.66
-1.26
-0.93
-0.82
-0.87
-0.94
-0.86
-0.62
-0.31
-0.11
-0.13
-0.35
-0.66
-0.89
-0.91
-0.67
-0.22
0.33
0.87
1.34
1.74
2.10
2.43
2.66
2.68
2.42
1.86
1.12
0.39
-0.15
-0.39
-0.35
-0.12
0.18
0.44
0.64
0.78
0.89
0.99
1.07
1.10
1.00
0.75
0.36
-0.10
-0.48
-0.69
-0.70
-0.60
-0.54
-0.64
-0.93
-1.32
-1.67
-1.84
-1.78
-1.54
-1.24
-0.98
-0.84
-0.81
-0.83
-0.76
-0.50
0.03
0.84
1.81
2.79
3.54
3.91
3.82
3.31
2.52
1.65
0.84
0.19
-0.27
-0.56
-0.71
-0.78
-0.80
-0.81
-0.85
-0.95
-1.12
-1.32
-1.49
-1.56
-1.51
-1.34
-1.10
-0.89
-0.77
-0.77
-0.89
-1.08
-1.26
-1.35
-1.28
-1.02
-0.64
-0.23
0.12
0.34
0.50
0.69
1.02
1.51
2.03
2.39
2.44
2.13
1.63
1.14
0.86
0.81
0.86
0.79
0.45
-0.18
-0.94
-1.59
-1.92
-1.88
-1.53
-1.07
-0.72
-0.60
-0.71
-0.95
-1.15
-1.19
-1.00
-0.63
-0.17
0.23
0.49
0.55
0.44
0.24
0.05
-0.04
0.02
0.23
0.57
0.95
1.31
1.55
1.63
1.52
1.23
0.84
0.43
0.13
-0.01
0.07
0.31
0.62
0.90
1.02
0.96
0.69
0.26
-0.25
-0.78
-1.22
-1.53
-1.67
-1.67
-1.58
-1.48
-1.44
-1.48
-1.56
-1.60
-1.54
-1.38
-1.14
-0.92
-0.80
-0.81
-0.97
-1.20
-1.37
-1.30
-0.81
0.15
1.46
2.80
3.82
4.20
3.90
3.13
2.24
1.57
1.26
1.25
1.34
1.33
1.16
0.89
0.61
0.38
0.18
-0.08
-0.45
-0.95
-1.46
-1.85
-2.01
-1.90
-1.57
-1.14
-0.72
-0.40
-0.22
-0.18
-0.25
-0.37
-0.47
-0.48
-0.38
-0.19
-0.00
0.16
0.31
0.56
0.99
1.59
2.21
2.58
2.47
1.81
0.80
-0.24
-0.96
-1.20
-1.04
-0.72
-0.47
-0.38
-0.42
-0.44
-0.33
-0.06
0.29
0.59
0.73
0.64
0.32
-0.17
-0.75
-1.28
-1.67
-1.84
-1.80
-1.57
-1.23
-0.83
-0.43
-0.04
0.30
0.56
0.65
0.55
0.27
-0.06
-0.23
-0.04
0.56
1.46
2.35
2.91
2.88
2.26
1.28
0.29
-0.38
-0.62
-0.49
-0.22
-0.01
0.05
-0.01
-0.08
-0.10
-0.07
-0.06
-0.16
-0.46
-0.95
-1.56
-2.13
-2.51
-2.59
-2.34
-1.84
-1.21
-0.60
-0.09
0.29
0.53
0.65
0.64
0.49
0.22
-0.08
-0.22
-0.05
0.52
1.37
2.19
2.64
2.48
1.79
0.88
0.15
-0.16
-0.06
0.19
0.29
0.07
-0.38
-0.83
-1.06
-1.00
-0.79
-0.63
-0.66
-0.87
-1.12
-1.24
-1.16
-0.93
-0.69
-0.60
-0.70
-0.96
-1.26
-1.46
-1.45
-1.21
-0.82
-0.37
0.05
0.42
0.78
1.19
1.65
2.09
2.34
2.26
1.77
0.92
-0.07
-0.96
-1.52
-1.66
-1.45
-1.06
-0.67
-0.37
-0.16
0.10
0.46
0.92
1.33
1.49
1.26
0.66
-0.12
-0.79
-1.09
-0.94
-0.46
0.10
0.52
0.70
0.69
0.62
0.59
0.63
0.62
0.49
0.18
-0.24
-0.62
-0.84
-0.84
-0.69
-0.46
-0.25
-0.02
0.27
0.68
1.18
1.68
2.04
2.15
1.98
1.62
1.15
0.71
0.30
-0.10
-0.54
-1.01
-1.47
-1.81
-1.95
-1.87
-1.61
-1.26
-0.91
-0.62
-0.40
-0.27
-0.19
-0.18
-0.22
-0.31
-0.47
-0.65
-0.82
-0.95
-0.99
-0.93
-0.77
-0.54
-0.33
-0.23
-0.30
-0.52
-0.75
-0.78
-0.42
0.40
1.52
2.63
3.38
3.50
3.00
2.08
1.06
0.22
-0.33
-0.61
-0.72
-0.76
-0.71
-0.57
-0.34
-0.07
0.14
0.22
0.14
-0.05
-0.27
-0.45
-0.56
-0.54
-0.40
-0.16
0.07
0.17
0.05
-0.30
-0.74
-1.10
-1.25
-1.17
-0.95
-0.74
-0.61
-0.56
-0.50
-0.30
0.10
0.67
1.34
1.99
2.50
2.79
2.79
2.51
2.01
1.41
0.86
0.49
0.35
0.37
0.45
0.45
0.29
-0.03
-0.43
-0.81
-1.07
-1.17
-1.10
-0.90
-0.66
-0.44
-0.35
-0.44
-0.69
-1.03
-1.32
-1.46
-1.39
-1.18
-0.98
-0.88
-0.97
-1.18
-1.45
-1.64
-1.68
-1.49
-1.04
-0.32
0.58
1.47
2.12
2.38
2.24
1.89
1.57
1.48
1.59
1.72
1.63
1.19
0.47
-0.34
-0.98
-1.34
-1.43
-1.38
-1.33
-1.34
-1.36
-1.32
-1.14
-0.84
-0.51
-0.29
-0.29
-0.50
-0.84
-1.15
-1.32
-1.27
-1.03
-0.65
-0.21
0.24
0.63
0.87
0.88
0.61
0.14
-0.33
-0.55
-0.32
0.37
1.35
2.31
3.00
3.28
3.22
2.97
2.72
2.55
2.41
2.20
1.79
1.14
0.29
-0.64
-1.51
-2.20
-2.68
-2.97
-3.17
-3.41
-3.78
-4.28
-4.82
-5.18
-5.14
-4.47
-3.13
-1.20
1.04
3.24
5.04
6.20
6.62
6.34
5.53
4.38
3.11
1.90
0.88
0.09
-0.45
-0.76
-0.86
-0.78
-0.53
-0.16
0.26
0.63
0.86
0.90
0.75
0.46
0.06
-0.38
-0.80
-1.14
-1.34
-1.36
-1.21
-0.93
-0.60
-0.23
0.16
0.61
1.14
1.74
2.30
2.72
2.89
2.78
2.46
2.05
1.63
1.23
0.82
0.32
-0.31
-1.02
-1.72
-2.27
-2.58
-2.64
-2.52
-2.34
-2.22
-2.22
-2.31
-2.40
-2.42
-2.33
-2.18
-2.01
-1.83
-1.56
-1.09
-0.37
0.52
1.44
2.20
2.69
2.93
2.97
2.88
2.65
2.25
1.66
0.97
0.30
-0.26
-0.68
-1.02
-1.35
-1.69
-1.96
-2.04
-1.83
-1.32
-0.57
0.29
1.12
1.78
2.20
2.33
2.15
1.70
1.05
0.29
-0.52
-1.30
-2.01
-2.60
-3.01
-3.18
-3.02
-2.56
-1.90
-1.24
-0.77
-0.60
-0.70
-0.90
-0.99
-0.81
-0.34
0.34
1.03
1.60
1.94
2.06
2.05
2.00
1.97
1.98
1.98
1.88
1.60
1.11
0.47
-0.20
-0.75
-1.08
-1.18
-1.14
-1.06
-1.03
-1.08
-1.20
-1.33
-1.45
-1.48
-1.33
-0.92
-0.20
0.78
1.85
2.78
3.42
3.73
3.84
3.89
3.99
4.09
4.10
3.87
3.31
2.39
0.99
-0.99
-3.60
-6.65
-9.58
-11.57
-11.86
-10.13
-6.69
-2.43
1.57
4.46
5.91
6.11
5.58
4.79
4.00
3.18
2.20
0.93
-0.60
-2.28
-4.01
-5.80
-7.77
-9.90
-11.84
-12.78
-11.76
-8.07
-1.82
5.90
13.35
18.75
21.07
20.26
17.10
12.66
7.76
2.68
-2.57
-8.01
-13.49
-18.65
-22.98
-25.90
-26.71
-24.76
-19.72
-11.95
-2.67
6.27
13.01
16.47
16.76
14.99
12.62
10.67
9.38
8.38
7.16
5.63
4.14
3.26
3.28
3.99
4.78
5.04
4.48
3.31
2.09
1.40
1.52
2.34
3.38
4.11
4.10
3.24
1.72
-0.06
-1.70
-2.87
-3.43
-3.39
-2.84
-1.99
-1.08
-0.32
0.13
0.22
0.04
-0.23
-0.40
-0.40
-0.29
-0.24
-0.38
-0.77
-1.36
-2.02
-2.61
-3.06
-3.36
-3.59
-3.82
-4.12
-4.53
-5.01
-5.46
-5.77
-5.82
-5.58
-5.13
-4.70
-4.56
-4.96
-6.01
-7.55
-9.29
-10.86
-12.00
-12.75
-13.37
-14.24
-15.65
-17.65
-20.03
-22.43
-24.53
-26.21
-27.57
-28.87
-30.41
-32.43
-35.05
-38.23
-41.77
-45.42
-48.95
-52.31
-55.74
-59.78
-65.04
-71.90
-80.26
-89.42
-98.44
-106.51
-113.39
-119.59
-126.16
-134.35
-145.28
-159.63
-177.38
-197.52
-217.77
-234.71
-244.42
-243.57
-230.57
-206.09
-172.71
-133.79
-92.11
-48.96
-4.20
42.83
92.05
141.78
188.80
229.28
260.18
280.30
290.62
293.67
292.34
288.88
284.43
279.38
274.04
269.19
265.98
265.33
267.27
270.79
274.22
276.15
276.10
274.77
273.63
274.23
277.43
282.92
289.05
293.13
292.14
283.53
266.02
240.03
207.47
170.89
132.61
93.79
54.19
12.55
-32.41
-80.85
-130.97
-179.01
-220.20
-250.25
-266.88
-270.53
-264.08
-251.55
-236.60
-221.47
-206.88
-192.68
-178.80
-165.67
-154.06
-144.49
-136.71
-129.69
-122.11
-113.08
-102.54
-91.34
-80.84
-72.20
-65.92
-61.61
-58.23
-54.64
-50.09
-44.52
-38.52
-32.92
-28.33
-24.90
-22.26
-19.83
-17.13
-14.01
-10.67
-7.45
-4.70
-2.64
-1.28
-0.53
-0.25
-0.28
-0.45
-0.64
-0.80
-0.95
-1.15
-1.45
-1.86
-2.30
-2.68
-2.93
-3.07
-3.17
-3.33
-3.61
-3.97
-4.27
-4.37
-4.12
-3.52
-2.69
-1.83
-1.12
-0.63
-0.32
-0.03
0.39
0.97
1.60
2.08
2.27
2.15
1.80
1.34
0.84
0.28
-0.40
-1.25
-2.22
-3.18
-4.02
-4.65
-5.08
-5.36
-5.56
-5.73
-5.93
-6.18
-6.52
-6.96
-7.46
-7.98
-8.44
-8.81
-9.09
-9.32
-9.53
-9.70
-9.74
-9.56
-8.99
-7.85
-5.87
-2.79
1.57
7.18
13.66
20.31
26.27
30.76
33.33
34.00
33.12
31.22
28.74
25.91
22.80
19.41
15.78
11.99
8.17
4.41
0.78
-2.56
-5.41
-7.48
-8.57
-8.66
-8.01
-7.02
-6.14
-5.65
-5.59
-5.79
-6.03
-6.13
-6.03
-5.82
-5.58
-5.36
-5.10
-4.75
-4.27
-3.73
-3.29
-3.10
-3.22
-3.56
-3.91
-4.05
-3.84
-3.31
-2.65
-2.08
-1.82
-1.91
-2.24
-2.58
-2.70
-2.45
-1.82
-0.91
0.14
1.19
2.17
3.01
3.63
3.94
3.85
3.34
2.53
1.65
0.97
0.63
0.62
0.76
0.83
0.61
0.09
-0.64
-1.36
-1.85
-1.99
-1.82
-1.48
-1.17
-1.03
-1.15
-1.48
-1.91
-2.29
-2.51
-2.49
-2.25
-1.88
-1.55
-1.40
-1.49
-1.75
-1.98
-1.89
-1.28
-0.09
1.51
3.23
4.69
5.60
5.80
5.27
4.15
2.69
1.18
-0.13
-1.03
-1.46
-1.45
-1.13
-0.63
-0.08
0.41
0.75
0.88
0.78
0.49
0.07
-0.37
-0.75
-1.03
-1.20
-1.31
-1.37
-1.43
-1.54
-1.74
-2.04
-2.42
-2.81
-3.10
-3.20
-3.04
-2.69
-2.24
-1.82
-1.49
-1.26
-1.07
-0.84
-0.52
-0.10
0.42
1.05
1.81
2.66
3.47
4.06
4.23
3.88
3.09
2.11
1.22
0.68
0.55
0.77
1.18
1.62
2.00
2.26
2.40
2.36
2.06
1.49
0.70
-0.16
-0.85
-1.23
-1.26
-1.07
-0.86
-0.83
-1.05
-1.47
-1.96
-2.37
-2.61
-2.69
-2.65
-2.56
-2.47
-2.39
-2.29
-2.14
-1.88
-1.46
-0.84
-0.01
0.98
2.04
2.98
3.63
3.81
3.47
2.69
1.68
0.72
0.06
-0.15
0.05
0.49
0.92
1.11
0.97
0.53
-0.06
-0.62
-1.02
-1.23
-1.27
-1.23
-1.17
-1.12
-1.12
-1.19
-1.36
-1.61
-1.90
-2.14
-2.25
-2.20
-2.02
-1.80
-1.59
-1.40
-1.18
-0.85
-0.36
0.32
1.20
2.26
