1660749445.00
64.000000
-0.00
-0.00
-0.00
-0.00
-0.00
-0.00
-0.00
-0.00
-0.00
-0.00
0.00
0.01
0.01
-0.00
-0.03
-0.05
-0.05
0.00
0.13
0.36
0.66
1.01
1.37
1.72
2.06
2.40
2.79
3.24
3.80
4.42
5.06
5.66
6.20
6.68
7.15
7.68
8.31
9.14
10.09
11.04
11.88
12.56
13.14
13.76
14.65
15.96
17.91
20.32
22.90
25.38
27.58
29.57
31.68
34.32
37.81
42.54
48.15
54.10
59.83
64.97
69.58
74.14
79.34
85.71
93.76
103.00
112.62
121.73
129.77
136.75
143.30
150.75
157.77
166.64
177.95
191.79
206.97
220.57
228.25
225.36
208.53
176.87
132.76
80.05
23.07
-34.94
-92.44
-149.16
-205.23
-260.37
-313.74
-363.87
-409.83
-450.91
-486.50
-515.74
-537.23
-549.22
-549.96
-538.37
-514.21
-478.67
-433.86
-382.42
-326.99
-269.83
-212.67
-156.77
-103.16
-52.68
-6.27
35.18
71.03
100.98
125.13
143.98
158.21
168.56
175.68
179.99
181.79
181.32
178.79
174.51
168.84
162.18
154.90
147.33
139.68
132.06
124.47
116.87
109.18
101.37
93.49
85.70
78.20
71.19
64.79
58.94
53.42
47.98
42.37
36.57
30.76
25.29
20.51
16.65
13.60
10.99
8.31
5.14
1.37
-2.72
-6.60
-9.72
-11.73
-12.69
-13.02
-13.33
-14.21
-16.17
-19.44
-23.84
-28.58
-32.16
-32.71
-28.64
-19.44
-6.16
8.76
22.37
32.30
37.54
38.55
36.81
34.04
31.56
30.00
29.34
29.22
29.11
28.65
27.63
26.12
24.30
22.38
20.35
18.08
15.44
12.51
9.67
7.44
6.15
5.77
5.82
5.72
5.03
3.74
2.14
0.76
-0.02
-0.07
0.41
1.06
1.47
1.42
0.86
-0.06
-1.07
-1.92
-2.42
-2.54
-2.34
-1.98
-1.55
-1.13
-0.69
-0.15
0.53
1.30
2.06
2.73
3.32
3.95
4.85
6.30
8.43
11.16
14.11
16.76
18.59
19.30
18.86
17.51
15.62
13.50
11.24
8.88
6.20
3.13
-0.19
-3.51
-6.52
-9.03
-11.00
-12.53
-13.77
-14.82
-15.60
-15.97
-15.81
-15.15
-14.18
-13.18
-12.40
-11.94
-11.67
-11.38
-10.82
-9.93
-8.86
-7.86
-7.16
-6.87
-6.91
-7.03
-6.96
-6.46
-5.46
-4.01
-2.33
-0.65
0.79
1.80
2.30
2.30
1.93
1.36
0.77
0.24
-0.21
-0.63
-1.01
-1.29
-1.39
-1.22
-0.80
-0.22
0.36
0.78
0.97
0.92
0.69
0.33
-0.09
-0.50
-0.84
-1.08
-1.23
-1.35
-1.56
-1.88
-2.33
-2.91
-3.57
-4.24
-4.88
-5.50
-6.14
-6.83
-7.58
-8.30
-8.80
-8.81
-8.07
-6.43
-3.97
-1.00
2.03
4.69
6.68
7.88
8.42
8.48
8.30
8.00
7.66
7.24
6.73
6.16
5.61
5.20
5.00
5.00
5.04
4.96
4.64
4.13
3.61
3.28
3.24
3.38
3.41
3.02
2.04
0.54
-1.20
-2.80
-3.97
-4.62
-4.88
-5.06
-5.47
-6.27
-7.46
-8.89
-10.34
-11.58
-12.37
-12.53
-11.90
-10.42
-8.19
-5.52
-2.81
-0.49
1.15
2.07
2.41
2.42
2.32
2.26
2.29
2.41
2.60
2.86
3.22
3.67
4.16
4.62
4.92
4.95
4.71
4.24
3.72
3.27
2.96
2.68
2.28
1.58
0.54
-0.74
-2.03
-3.10
-3.81
-4.16
-4.28
-4.41
-4.75
-5.44
-6.49
-7.73
-8.85
-9.45
-9.17
-7.79
-5.38
-2.26
1.09
4.18
6.66
8.42
9.57
10.32
10.88
11.42
12.01
12.64
13.23
13.61
13.55
12.80
11.12
8.45
4.88
0.75
-3.46
-7.19
-9.95
-11.49
-11.83
-11.21
-10.03
-8.62
-7.21
-5.83
-4.45
-3.05
-1.72
-0.65
0.01
0.18
-0.04
-0.46
-0.87
-1.11
-1.10
-0.84
-0.34
0.35
1.16
1.95
2.51
2.69
2.43
1.82
1.05
0.36
-0.08
-0.26
-0.24
-0.08
0.20
0.66
1.37
2.32
3.44
4.56
5.54
6.30
6.84
7.19
7.39
7.41
7.22
6.70
5.79
4.41
2.59
0.46
-1.76
-3.82
-5.57
-6.94
-8.05
-9.08
-10.19
-11.46
-12.81
-14.05
-14.92
-15.13
-14.45
-12.81
-10.31
-7.23
-3.97
-0.95
1.51
3.22
4.15
4.31
3.79
2.76
1.41
0.01
-1.16
-1.89
-2.07
-1.68
-0.75
0.62
2.30
4.16
6.03
7.72
9.11
10.09
10.64
10.72
10.30
9.33
7.73
5.55
2.96
0.27
-2.19
-4.15
-5.51
-6.33
-6.79
-7.10
-7.44
-7.89
-8.45
-8.97
-9.20
-8.79
-7.44
-5.02
-1.69
2.09
5.74
8.70
10.70
11.77
12.13
12.05
11.65
10.93
9.81
8.31
6.59
4.92
3.61
2.80
2.49
2.52
2.69
2.84
2.94
3.03
3.22
3.57
4.04
4.52
4.82
4.80
4.39
3.67
2.82
2.04
1.42
0.93
0.43
-0.25
-1.22
-2.51
-4.05
-5.82
-7.71
-9.55
-11.03
-11.78
-11.49
-10.06
-7.72
-4.89
-2.07
0.36
2.27
3.69
4.72
5.46
5.92
6.09
5.99
5.68
5.21
4.66
4.05
3.38
2.70
2.07
1.52
1.06
0.63
0.20
-0.27
-0.71
-1.06
-1.27
-1.40
-1.61
-2.06
-2.81
-3.79
-4.81
-5.70
-6.44
-7.14
-7.97
-9.02
-10.23
-11.45
-12.51
-13.42
-14.23
-15.01
-15.64
-15.83
-15.18
-13.40
-10.52
-6.90
-3.10
0.31
2.96
4.78
5.90
6.57
6.93
7.03
6.84
6.33
5.59
4.83
4.26
4.06
4.24
4.67
5.16
5.51
5.63
5.53
5.24
4.82
4.30
3.71
3.05
2.34
1.57
0.82
0.18
-0.23
-0.31
-0.06
0.36
0.73
0.78
0.37
-0.49
-1.67
-2.94
-4.02
-4.66
-4.61
-3.67
-1.80
0.86
3.92
6.81
9.04
10.27
10.50
9.99
9.10
8.20
7.47
6.93
6.50
6.07
5.63
5.28
5.17
5.38
5.83
6.27
6.38
5.91
4.87
3.53
2.33
1.68
1.68
2.18
2.80
3.16
3.04
2.47
1.63
0.79
0.09
-0.48
-1.06
-1.88
-3.10
-4.77
-6.82
-9.06
-11.31
-13.32
-14.88
-15.76
-15.72
-14.58
-12.32
-9.12
-5.36
-1.57
1.76
4.24
5.75
6.38
6.34
5.91
5.29
4.61
3.91
3.22
2.63
2.21
2.04
2.17
2.54
3.02
3.43
3.61
3.50
3.18
2.81
2.59
2.59
2.73
2.77
2.46
1.62
0.33
-1.18
-2.60
-3.69
-4.42
-4.94
-5.54
-6.44
-7.80
-9.58
-11.62
-13.65
-15.35
-16.38
-16.42
-15.30
-13.01
-9.79
-6.08
-2.43
0.71
3.07
4.63
5.57
6.16
6.58
6.91
7.08
6.99
6.60
5.96
5.22
4.61
4.25
4.19
4.27
4.29
4.05
3.47
2.62
1.73
0.99
0.51
0.20
-0.20
-0.93
-2.14
-3.74
-5.45
-6.94
-7.96
-8.47
-8.62
-8.67
-8.86
-9.33
-10.10
-11.08
-12.07
-12.83
-13.06
-12.50
-10.96
-8.48
-5.34
-1.97
1.13
3.59
5.25
6.15
6.48
6.42
6.15
5.76
5.32
4.89
4.50
4.13
3.73
3.27
2.78
2.34
2.06
2.02
2.21
2.54
2.91
3.20
3.34
3.27
2.95
2.36
1.47
0.33
-0.98
-2.36
-3.74
-5.07
-6.36
-7.62
-8.86
-10.08
-11.27
-12.29
-12.92
-12.86
-11.84
-9.76
-6.77
-3.27
0.21
3.21
5.46
6.97
7.93
8.58
9.08
9.45
9.60
9.42
8.91
8.21
7.54
7.16
7.16
7.43
7.66
7.53
6.87
5.74
4.43
3.28
2.47
1.96
1.50
0.83
-0.19
-1.44
-2.66
-3.56
-4.02
-4.13
-4.14
-4.39
-5.09
-6.31
-7.94
-9.68
-11.17
-11.97
-11.74
-10.30
-7.74
-4.35
-0.60
3.06
6.26
8.82
10.70
11.93
12.58
12.74
12.51
12.02
11.43
10.87
10.43
10.14
9.97
9.84
9.67
9.37
8.88
8.25
7.56
6.95
6.55
6.36
6.30
6.17
5.77
5.04
4.00
2.87
1.95
1.44
1.37
1.49
1.36
0.63
-0.75
-2.47
-3.95
-4.61
-4.10
-2.52
-0.31
1.97
4.03
5.99
8.34
11.65
16.36
22.46
29.36
36.06
41.47
44.87
46.22
45.98
45.17
45.36
48.39
55.79
67.80
82.51
95.80
102.36
97.17
78.33
48.77
15.85
-11.14
-24.82
-22.44
-6.61
15.98
36.20
45.89
40.12
18.37
-16.04
-57.26
-98.32
-132.38
-153.96
-161.52
-156.89
-144.52
-129.93
-118.45
-114.56
-121.02
-138.18
-155.84
-163.23
-153.64
-128.72
-95.93
-62.59
-33.03
-8.72
10.50
25.58
36.27
42.22
43.75
42.51
40.92
41.06
43.86
49.08
55.90
62.32
66.51
67.67
66.47
64.52
63.37
63.77
65.54
68.18
70.31
70.71
68.81
64.98
60.18
55.19
50.24
44.51
37.70
29.15
18.61
6.44
-6.44
-18.86
-30.10
-38.81
-46.04
-52.51
-58.75
-64.77
-70.10
-74.05
-76.11
-76.39
-75.55
-74.70
-74.60
-75.86
-78.87
-83.66
-89.63
-95.13
-97.59
-94.06
-82.69
-63.54
-39.26
-14.20
7.25
22.18
30.86
35.08
37.23
38.96
40.86
42.49
43.27
43.06
42.33
41.76
41.63
41.70
41.21
39.46
36.08
31.42
26.42
22.14
19.36
18.01
17.40
16.45
14.30
10.67
6.13
1.67
-1.64
-3.17
-2.97
-1.64
-0.08
0.85
0.57
-0.99
-3.62
-6.95
-10.52
-14.00
-17.09
-19.66
-21.75
-23.52
-25.10
-26.63
-28.19
-29.71
-31.03
-31.87
-31.88
-30.65
-28.71
-26.25
-23.55
-20.97
-18.85
-17.38
-16.55
-16.14
-15.86
-15.48
-14.88
-14.15
-13.56
-13.33
-13.63
-14.46
-15.68
-17.08
-18.53
-19.82
-20.96
-22.05
-23.33
-25.02
-27.27
-30.13
-33.42
-36.73
-39.28
-40.17
-38.64
-34.42
-27.98
-20.50
-13.45
-8.11
-5.01
-3.81
-3.67
-3.73
-3.54
-3.16
-2.93
-3.09
-3.54
-3.91
-3.77
-2.96
-1.62
-0.08
1.37
2.64
3.85
5.21
6.77
8.40
9.81
10.65
10.70
9.93
8.47
6.57
4.52
2.57
0.93
-0.36
-1.44
-2.53
-3.94
-5.87
-8.45
-11.69
-15.48
-19.49
-23.18
-25.70
-26.13
-23.82
-18.81
-11.96
-4.80
1.09
4.74
6.32
7.02
8.53
12.15
18.15
25.60
32.84
38.18
40.76
40.77
39.31
37.83
37.38
38.25
39.98
41.71
42.68
42.57
41.51
39.85
37.89
35.64
32.90
29.47
25.43
21.16
17.31
14.50
13.03
12.75
13.12
13.36
12.66
10.38
6.14
-0.14
-8.08
-16.79
-24.90
-30.79
-33.00
-30.77
-24.42
-15.27
-5.28
3.69
10.43
14.66
16.83
17.70
17.92
17.78
17.34
16.59
15.68
14.91
14.55
14.71
15.27
15.99
16.65
17.25
17.97
19.15
21.09
23.86
27.23
30.54
32.92
33.51
31.79
27.91
22.74
17.67
14.14
13.09
14.57
17.68
20.89
22.69
22.17
19.44
15.60
12.33
11.34
13.78
19.89
29.03
39.82
50.49
59.15
64.16
64.37
59.42
49.92
37.48
24.29
12.55
3.87
-1.15
-2.91
-2.38
-0.65
1.38
3.07
3.93
3.46
1.23
-2.88
-8.43
-14.41
-19.47
-22.44
-22.83
-21.04
-18.19
-15.56
-14.13
-14.21
-15.63
-18.01
-21.08
-24.80
-29.07
-33.42
-36.87
-38.18
-36.43
-31.43
-23.95
-15.36
-7.09
-0.16
5.00
8.45
10.53
11.74
12.75
14.27
16.90
20.76
25.18
28.87
30.45
29.19
25.55
21.14
18.03
17.74
20.54
25.30
30.13
33.26
33.81
32.07
29.18
26.36
24.40
23.34
22.58
21.27
18.73
14.69
9.35
3.28
-2.79
-8.09
-12.02
-14.17
-14.37
-12.74
-9.71
-6.01
-2.42
0.40
2.35
3.96
6.22
10.13
15.98
23.02
29.50
33.24
32.70
27.63
19.39
10.38
3.07
-1.00
-1.69
-0.05
2.41
4.54
5.95
6.93
7.93
9.05
9.89
9.79
8.33
5.71
2.74
0.37
-0.92
-1.44
-2.25
-4.66
-9.48
-16.47
-24.31
-30.93
-34.19
-32.63
-25.81
-14.52
-0.56
13.70
25.76
33.52
35.77
32.57
25.30
16.36
8.45
3.67
2.86
5.46
9.93
14.55
18.14
20.40
21.65
22.38
22.79
22.69
21.73
19.77
17.08
14.21
11.60
9.23
6.55
2.75
-2.81
-10.13
-18.48
-26.65
-33.41
-37.91
-39.82
-39.29
-36.64
-32.24
-26.56
-20.28
-14.31
-9.59
-6.73
-5.61
-5.41
-4.93
-3.18
0.14
4.52
9.00
12.64
14.99
16.12
16.38
16.10
15.37
14.13
12.35
10.26
8.30
6.87
6.03
5.39
4.31
2.26
-0.76
-4.04
-6.44
-6.81
-4.59
-0.15
5.29
9.96
12.10
10.42
4.50
-5.02
-16.48
-27.51
-35.56
-38.67
-36.12
-28.71
-18.48
-7.96
0.77
6.61
9.66
10.70
10.67
10.17
9.44
8.50
7.38
6.24
5.26
4.47
3.73
2.78
1.48
-0.04
-1.44
-2.32
-2.42
-1.72
-0.42
1.19
2.77
3.89
4.02
2.65
-0.53
-5.27
-10.73
-15.62
-18.72
-19.29
-17.45
-13.95
-9.85
-5.96
-2.61
0.37
3.38
6.71
10.42
14.32
18.05
21.29
23.76
25.31
25.82
25.17
23.29
20.23
16.23
11.78
7.48
3.85
1.15
-0.69
-1.95
-2.90
-3.65
-4.06
-3.84
-2.79
-0.97
1.13
2.68
2.63
0.02
-5.61
-13.95
-23.84
-33.48
-41.00
-45.06
-45.33
-42.46
-37.73
-32.48
-27.63
-23.53
-20.06
-16.97
-14.13
-11.53
-9.26
-7.32
-5.55
-3.71
-1.72
0.20
1.42
1.20
-1.02
-5.16
-10.44
-15.56
-19.27
-20.96
-21.04
-20.78
-21.75
-25.04
-30.76
-37.93
-44.97
-50.29
-52.80
-52.04
-48.17
-41.71
-33.44
-24.30
-15.32
-7.42
-1.24
3.06
5.85
7.79
9.67
12.09
15.36
19.45
24.00
28.37
31.81
33.66
33.67
32.16
29.97
28.25
28.01
29.89
33.91
39.52
45.70
51.17
54.60
54.85
51.34
44.27
34.87
25.14
17.39
13.52
14.33
19.22
26.41
33.58
38.69
40.55
39.04
34.89
29.16
22.86
16.62
10.65
4.79
-1.31
-8.05
-15.73
-24.28
-33.16
-41.36
-47.60
-50.70
-49.93
-45.36
-37.83
-28.81
-20.08
-13.32
-9.67
-9.45
-12.02
-15.95
-19.48
-21.06
-19.93
-16.26
-11.04
-5.63
-1.16
1.74
3.05
3.07
2.26
0.97
-0.48
-1.75
-2.46
-2.23
-1.00
0.93
2.94
4.33
4.76
4.45
4.16
4.94
7.74
12.98
20.33
28.66
36.14
40.72
40.65
35.24
25.33
13.29
2.35
-4.49
-5.56
-1.07
7.06
16.14
23.83
28.88
31.29
31.87
31.50
30.64
29.14
26.54
22.34
16.29
8.42
-0.98
-11.46
-22.35
-32.76
-41.69
-48.17
-51.57
-51.85
-49.61
-45.98
-42.32
-39.76
-38.90
-39.70
-41.47
-43.24
-44.02
-43.11
-40.25
-35.63
-29.74
-23.24
-16.77
-10.91
-6.10
-2.62
-0.52
0.44
0.72
0.92
1.54
2.80
4.56
6.39
7.80
8.48
8.57
8.62
9.56
12.29
17.41
24.97
34.27
43.87
51.75
55.67
53.89
45.88
32.88
17.81
4.41
-4.04
-5.99
-2.06
5.34
13.19
19.17
22.33
23.04
22.25
20.79
18.84
16.11
12.23
7.13
1.08
-5.52
-12.40
-19.49
-26.74
-33.77
-39.72
-43.34
-43.50
-39.79
-32.94
-24.78
-17.77
-14.07
-14.77
-19.38
-26.04
-32.17
-35.46
-34.69
-30.04
-22.90
-15.12
-8.34
-3.47
-0.68
0.33
-0.02
-1.37
-3.46
-6.00
-8.65
-11.07
-13.12
-14.93
-16.75
-18.67
-20.42
-21.21
-19.93
-15.56
-7.62
3.53
16.62
29.63
40.21
46.17
46.15
40.08
29.49
17.17
6.39
-0.15
-1.24
2.47
8.87
15.37
19.94
21.79
21.36
19.84
18.43
17.84
18.09
18.67
18.82
17.77
14.97
10.26
3.92
-3.30
-10.33
-16.05
-19.57
-20.51
-19.15
-16.46
-13.93
-13.21
-15.59
-21.42
-29.79
-38.63
-45.40
-48.02
-45.69
-39.18
-30.41
-21.58
-14.40
-9.57
-6.91
-5.75
-5.38
-5.28
-5.08
-4.52
-3.36
-1.53
0.75
3.02
4.68
5.32
4.97
4.21
4.12
5.88
10.33
17.66
27.12
37.14
45.66
50.64
50.71
45.62
36.45
25.38
15.05
7.76
4.81
6.21
10.87
17.20
23.72
29.46
34.01
37.29
39.25
39.72
38.46
35.20
29.76
22.08
12.20
0.39
-12.76
-26.24
-38.74
-48.91
-55.67
-58.47
-57.40
-53.15
-46.80
-39.66
-33.01
-27.95
-25.11
-24.49
-25.41
-26.72
-27.24
-26.20
-23.53
-19.77
-15.83
-12.57
-10.55
-9.94
-10.58
-12.17
-14.29
-16.53
-18.47
-19.72
-20.06
-19.47
-18.03
-15.87
-13.04
-9.36
-4.58
1.59
9.25
18.15
27.60
36.38
42.95
45.82
44.12
38.13
29.48
20.81
14.88
13.59
17.19
24.27
32.46
39.46
43.88
45.57
45.27
43.91
42.04
39.56
36.02
30.98
24.32
16.25
7.14
-2.66
-12.97
-23.55
-34.00
-43.55
-51.19
-55.99
-57.47
-55.90
-52.25
-47.81
-43.70
-40.43
-37.78
-35.01
-31.36
-26.50
-20.67
-14.58
-9.06
-4.71
-1.73
-0.01
0.71
0.70
0.13
-0.84
-1.99
-3.03
-3.60
-3.46
-2.52
-1.01
0.66
2.02
2.73
2.80
2.60
2.85
4.34
7.68
12.96
19.60
26.36
31.62
33.88
32.30
27.11
19.62
11.92
6.16
3.89
5.56
10.51
17.32
24.46
30.74
35.65
39.20
41.67
43.30
44.18
44.28
43.50
41.74
38.75
34.08
27.17
17.70
5.95
-6.96
-19.22
-28.90
-34.64
-36.12
-34.24
-30.76
-27.70
-26.68
-28.41
-32.53
-37.78
-42.50
-45.23
-45.23
-42.69
-38.56
-34.10
-30.33
-27.79
-26.48
-26.12
-26.34
-26.81
-27.18
-27.07
-26.01
-23.64
-19.87
-15.02
-9.75
-4.91
-1.26
0.84
1.50
1.30
1.15
1.94
4.38
8.81
15.11
22.69
30.46
37.02
40.89
41.02
37.22
30.47
22.61
15.85
11.87
11.22
13.20
16.22
18.61
19.29
18.12
15.75
13.13
10.98
9.50
8.44
7.36
5.98
4.21
2.05
-0.73
-4.58
-10.03
-17.22
-25.54
-33.64
-39.82
-42.66
-41.61
-37.14
-30.46
-23.03
-16.06
-10.37
-6.44
-4.53
-4.75
-6.87
-10.28
-13.92
-16.57
-17.29
-15.80
-12.60
-8.80
-5.62
-3.88
-3.78
-4.83
-6.25
-7.31
-7.63
-7.36
-6.88
-6.69
-6.99
-7.66
-8.30
-8.42
-7.73
-6.34
-4.63
-3.13
-2.20
-1.83
-1.66
-1.22
-0.15
1.57
3.79
6.30
9.05
12.12
15.51
18.90
21.66
23.07
22.75
20.99
18.77
17.31
17.59
19.84
23.46
27.28
30.11
31.18
30.34
27.97
24.66
21.02
17.43
14.08
10.98
8.10
5.44
3.01
0.84
-1.06
-2.66
-3.86
-4.63
-5.03
-5.33
-5.88
-6.95
-8.51
-10.13
-11.01
-10.25
-7.22
-2.04
4.48
11.15
16.91
21.23
24.26
26.67
29.39
33.21
38.30
44.57
51.90
60.03
68.07
74.23
76.42
73.40
65.93
56.22
47.78
44.02
46.96
56.44
70.29
85.55
99.70
111.26
118.24
119.26
113.75
102.65
87.90
71.42
54.25
36.43
17.28
-5.71
-34.14
-68.04
-105.35
-143.21
-179.45
-213.03
-243.69
-262.08
-260.66
-237.69
-200.36
-159.10
-121.44
-90.45
-66.09
-46.85
-30.80
-20.36
-15.13
-14.60
-17.40
-21.74
-26.27
-30.33
-33.85
-32.49
-26.67
-18.06
-8.83
-0.03
8.25
16.23
24.08
31.83
39.68
46.44
51.48
54.43
55.69
56.07
56.25
56.70
57.57
59.15
60.71
61.68
61.42
59.57
55.98
50.71
43.67
35.19
26.08
16.48
6.53
-4.04
-15.57
-28.25
-41.95
-54.00
-64.29
-72.13
-77.21
-79.57
-79.93
-79.33
-78.78
-79.08
-80.79
-84.45
-89.62
-94.93
-97.82
-95.29
-85.02
-66.79
-43.11
-18.55
1.74
14.61
19.60
18.75
14.97
10.69
6.97
3.78
0.91
-1.48
-2.44
-1.22
2.82
9.13
16.37
23.02
27.91
30.74
31.88
32.22
32.56
33.29
34.03
34.00
32.46
29.04
24.09
18.48
13.33
9.50
7.30
6.27
5.53
4.18
1.56
-2.48
-7.57
-12.98
-17.84
-21.42
-23.38
-23.89
-23.35
-22.54
-22.24
-23.07
-25.31
-28.85
-33.30
-38.19
-43.07
-47.56
-51.50
-54.93
-57.95
-60.48
-62.19
-62.41
-60.27
-56.08
-49.98
-42.44
-34.27
-26.36
-19.50
-14.13
-10.31
-7.86
-6.43
-5.53
-4.84
-4.22
-3.74
-3.62
-4.03
-5.03
-6.41
-7.79
-8.68
-8.89
-8.59
-8.22
-8.19
-8.57
-9.01
-8.91
-7.86
-5.85
-3.50
-1.80
-1.61
-3.26
-6.37
-10.03
-13.22
-15.32
-16.34
-16.88
-17.76
-19.51
-22.09
-24.82
-26.63
-26.53
-23.98
-19.17
-12.94
-6.54
-1.16
2.45
4.20
4.65
4.78
5.64
7.97
12.09
17.82
24.59
31.57
37.76
42.11
43.67
41.83
36.63
28.99
20.67
13.91
10.74
12.22
18.05
26.56
35.35
42.06
45.19
44.41
40.50
34.86
28.93
23.77
19.92
17.44
16.05
15.27
14.51
13.22
11.13
8.40
5.72
4.17
4.78
8.12
13.91
21.00
27.72
32.36
33.76
31.71
27.06
21.43
16.71
14.35
14.91
17.89
21.89
25.21
26.48
25.03
20.97
14.98
7.95
0.69
-6.08
-11.73
-15.76
-18.01
-18.97
-19.79
-21.96
-26.66
-34.14
-43.39
-52.45
-59.10
-61.74
-59.94
-54.65
-47.74
-41.46
-37.59
-36.89
-38.79
-41.48
-42.52
-39.71
-32.02
-20.05
-5.90
7.77
18.84
26.59
31.92
36.77
43.01
51.55
61.87
72.43
81.56
88.40
93.49
98.63
106.23
118.30
135.58
157.24
180.41
200.40
211.58
208.93
189.85
155.24
109.91
61.27
17.55
-14.93
-33.57
-39.87
-38.33
-34.42
-32.77
-35.76
-43.48
-53.62
-63.34
-70.63
-74.93
-76.75
-76.90
-75.95
-73.65
-69.46
-61.24
-48.03
-31.03
-13.24
2.55
15.39
26.09
37.20
50.78
71.20
100.03
134.89
170.33
201.12
224.83
241.09
252.12
259.44
269.24
285.18
306.43
328.17
345.75
357.79
364.84
370.82
378.45
396.51
430.41
479.16
535.11
588.90
633.68
664.42
681.09
635.28
502.89
297.61
67.10
-140.21
-299.93
-402.74
-471.84
-524.33
-569.98
-605.22
-625.20
-626.73
-612.54
-588.25
-558.76
-528.72
-498.78
-469.80
-436.83
-396.25
-348.69
-300.16
-258.19
-227.79
-210.94
-204.23
-203.44
-201.52
-193.10
-176.68
-155.19
-133.41
-114.91
-101.03
-89.88
-79.59
-68.34
-54.64
-38.26
-20.63
-3.97
10.04
21.37
31.40
40.75
47.94
52.84
56.47
60.44
65.89
73.45
84.47
100.21
120.70
142.27
163.18
183.29
202.87
220.46
224.24
204.70
161.22
112.17
62.63
11.99
-43.08
-102.27
-163.52
-222.95
-273.37
-306.99
-310.84
-282.41
-230.11
-170.87
-120.41
-86.59
-68.53
-59.61
-51.29
-39.77
-28.37
-20.93
-19.26
-21.75
-25.93
-30.32
-33.36
-33.75
-31.37
-28.29
-25.47
-22.48
-17.33
-9.13
-0.19
7.26
12.33
14.94
15.15
14.07
13.42
16.40
25.08
37.63
52.45
69.08
86.79
104.41
120.35
133.29
144.64
156.38
167.52
178.53
191.42
207.15
225.05
241.82
241.40
212.70
170.75
122.54
65.43
1.57
-64.34
-125.55
-175.66
-209.73
-223.56
-217.00
-197.34
-170.02
-142.29
-123.47
-114.68
-113.16
-115.56
-117.21
-114.76
-108.84
-100.17
-89.20
-76.79
-63.86
-52.02
-43.08
-37.20
-34.03
-33.15
-32.25
-28.26
-19.27
-5.24
11.76
28.10
40.58
46.40
45.40
40.54
36.17
35.55
39.92
49.33
62.46
77.56
91.37
102.55
111.53
119.51
126.78
132.99
139.22
146.82
156.92
168.02
180.07
193.85
209.71
225.68
226.91
202.17
149.21
88.33
26.74
-33.27
-92.33
-146.43
-190.88
-221.91
-235.81
-231.54
-211.70
-180.79
-146.49
-117.23
-98.07
-89.45
-88.27
-88.77
-86.90
-81.09
-73.65
-66.75
-61.57
-58.09
-56.30
-56.30
-57.31
-58.26
-58.06
-56.81
-54.13
-49.21
-41.45
-31.64
-21.78
-13.70
-8.48
-5.93
-5.22
-4.63
-2.15
3.78
13.39
25.82
39.79
54.09
67.87
80.45
91.45
100.90
109.21
117.03
125.25
134.89
146.83
161.32
