1660751379.00
64.000000
-0.00
-0.00
-0.00
-0.00
-0.00
-0.00
-0.00
-0.00
-0.00
-0.00
0.00
0.01
0.01
-0.00
-0.03
-0.05
-0.05
0.00
0.13
0.36
0.66
1.01
1.37
1.72
2.06
2.40
2.79
3.24
3.80
4.42
5.06
5.66
6.20
6.68
7.15
7.68
8.31
9.14
10.09
11.04
11.88
12.56
13.14
13.76
14.65
15.96
17.91
20.32
22.90
25.38
27.58
29.57
31.68
34.32
37.81
42.54
48.15
54.10
59.83
64.97
69.58
74.14
79.34
85.71
93.76
103.00
112.62
121.73
129.77
136.75
143.30
150.75
157.77
166.64
177.95
191.79
206.97
220.57
228.25
225.36
208.53
176.87
132.76
80.05
23.07
-34.94
-92.44
-149.16
-205.23
-260.37
-313.74
-363.87
-409.83
-450.91
-486.50
-515.74
-537.23
-549.22
-549.96
-538.37
-514.21
-478.68
-433.87
-382.43
-326.99
-269.81
-212.63
-156.71
-103.09
-52.61
-6.22
35.21
71.05
100.98
125.14
144.00
158.25
168.61
175.71
179.99
181.78
181.29
178.79
174.55
168.94
162.33
155.07
147.47
139.75
132.06
124.43
116.86
109.27
101.60
93.86
86.12
78.56
71.41
64.83
58.88
53.41
48.15
42.83
37.28
31.57
25.98
20.93
16.75
13.51
10.96
8.58
5.85
2.45
-1.51
-5.57
-9.07
-11.51
-12.76
-13.12
-13.23
-13.75
-15.20
-17.86
-21.68
-26.21
-30.43
-32.81
-31.72
-25.97
-15.62
-2.22
11.67
23.30
30.93
34.31
34.66
33.90
33.61
34.41
35.83
36.82
36.41
34.25
30.70
26.56
22.65
19.44
16.91
14.69
12.49
10.26
8.30
7.00
6.59
6.84
7.24
7.18
6.34
4.87
3.18
1.82
1.15
1.18
1.66
2.19
2.41
2.14
1.34
0.18
-1.08
-2.11
-2.63
-2.49
-1.77
-0.80
0.03
0.44
0.48
0.49
0.93
2.09
3.98
6.28
8.49
10.21
11.28
11.78
12.03
12.28
12.70
13.32
13.96
14.41
14.46
13.98
12.95
11.44
9.63
7.45
4.87
1.90
-1.37
-4.71
-7.79
-10.33
-12.16
-13.35
-14.11
-14.65
-15.13
-15.50
-15.64
-15.39
-14.69
-13.65
-12.52
-11.56
-10.95
-10.72
-10.75
-10.85
-10.72
-10.16
-9.04
-7.40
-5.42
-3.36
-1.51
-0.11
0.72
0.99
0.80
0.31
-0.31
-0.95
-1.50
-1.88
-2.02
-1.88
-1.53
-1.05
-0.61
-0.34
-0.27
-0.33
-0.37
-0.27
0.02
0.39
0.69
0.81
0.74
0.54
0.34
0.22
0.13
-0.00
-0.29
-0.75
-1.32
-1.90
-2.37
-2.71
-2.98
-3.34
-3.91
-4.81
-6.05
-7.48
-8.84
-9.71
-9.65
-8.32
-5.66
-1.96
2.16
5.96
8.85
10.54
11.17
11.14
10.86
10.55
10.23
9.79
9.13
8.32
7.53
6.96
6.69
6.72
6.96
7.34
7.81
8.39
9.08
9.87
10.72
11.54
12.25
12.73
12.89
12.66
12.07
11.23
10.29
9.38
8.49
7.48
6.08
4.05
1.29
-2.09
-5.79
-9.40
-12.53
-14.90
-16.35
-16.82
-16.31
-14.88
-12.69
-9.97
-7.08
-4.37
-2.09
-0.29
1.07
2.09
2.75
2.89
2.28
0.68
-1.98
-5.59
-9.91
-14.64
-19.52
-24.32
-28.92
-33.22
-37.16
-40.66
-43.57
-45.66
-46.61
-46.11
-43.99
-40.29
-35.28
-29.43
-23.29
-17.33
-11.97
-7.42
-3.76
-0.95
1.11
2.57
3.55
4.14
4.41
4.47
4.53
4.84
5.64
7.11
9.22
11.75
14.40
16.86
18.90
20.41
21.36
21.77
21.70
21.21
20.39
19.35
18.17
16.91
15.63
14.40
13.31
12.39
11.61
10.85
9.99
8.99
7.91
6.90
6.07
5.42
4.77
3.96
2.88
1.65
0.49
-0.38
-0.88
-1.10
-1.25
-1.51
-1.96
-2.53
-3.13
-3.66
-4.10
-4.49
-4.88
-5.29
-5.74
-6.20
-6.61
-6.88
-6.88
-6.45
-5.47
-3.92
-1.96
0.17
2.16
3.79
4.97
5.75
6.24
6.56
6.79
6.96
7.08
7.17
7.25
7.35
7.49
7.70
8.02
8.54
9.35
10.47
11.85
13.31
14.58
15.40
15.61
15.24
14.50
13.72
13.21
13.09
13.27
13.48
13.46
13.11
12.50
11.87
11.37
11.04
10.75
10.33
9.70
8.85
7.88
6.82
5.61
4.16
2.49
0.75
-0.76
-1.85
-2.57
-3.27
-4.48
-6.62
-9.82
-13.87
-18.31
-22.65
-26.53
-29.77
-32.31
-34.14
-35.20
-35.49
-35.01
-33.86
-32.23
-30.29
-28.23
-26.15
-24.11
-22.14
-20.23
-18.39
-16.64
-15.07
-13.79
-12.96
-12.70
-13.04
-13.90
-15.12
-16.53
-17.99
-19.49
-21.12
-22.96
-25.04
-27.22
-29.17
-30.42
-30.50
-29.08
-26.09
-21.72
-16.24
-9.87
-2.68
5.42
14.46
24.30
34.55
44.65
54.01
62.13
68.54
72.67
73.88
71.66
65.95
57.43
47.57
38.12
30.54
25.39
22.28
20.15
17.91
14.94
11.25
7.30
3.59
0.35
-2.53
-5.27
-7.90
-10.16
-11.63
-11.97
-10.96
-8.92
-6.67
-5.28
-5.67
-8.36
-13.32
-20.06
-27.76
-35.09
-40.92
-44.61
-46.23
-46.24
-45.18
-43.42
-40.92
-37.30
-31.14
-21.40
-8.07
7.46
22.98
36.27
45.70
50.77
52.14
52.90
55.87
62.32
71.53
81.52
90.17
95.90
98.12
97.54
98.31
103.81
115.20
131.40
150.16
169.33
187.27
202.47
205.34
190.51
156.93
110.01
58.70
10.69
-28.74
-62.71
-96.32
-133.76
-173.77
-215.44
-254.44
-286.38
-307.17
-314.33
-298.96
-260.95
-222.56
-191.72
-164.90
-140.35
-117.06
-94.95
-74.93
-58.53
-47.72
-42.63
-38.31
-30.81
-18.84
-3.07
14.49
31.31
45.40
55.19
60.75
65.67
72.25
80.61
89.65
97.66
102.97
104.52
101.68
95.02
87.31
80.50
75.16
71.12
67.63
63.68
58.35
50.84
40.97
29.74
17.89
5.79
-6.30
-18.13
-29.47
-40.08
-49.53
-57.23
-62.28
-64.07
-62.36
-57.17
-48.70
-37.58
-24.84
-11.35
1.91
13.96
23.80
30.64
34.13
34.79
33.56
31.48
29.99
29.89
31.14
32.89
34.11
34.18
33.82
34.14
36.06
40.69
48.24
58.29
69.99
82.74
96.20
110.69
125.57
134.49
131.15
112.40
80.97
42.94
4.92
-32.73
-69.91
-105.72
-138.78
-163.00
-173.56
-168.55
-150.16
-123.89
-96.70
-73.91
-58.55
-51.20
-49.88
-52.11
-55.51
-58.46
-60.00
-59.80
-57.58
-53.90
-50.13
-47.52
-47.34
-50.06
-55.19
-61.20
-65.97
-67.14
-63.44
-55.31
-44.57
-34.07
-26.31
-22.48
-21.98
-22.80
-22.32
-18.55
-10.91
-0.08
12.38
24.81
35.92
45.06
52.10
57.37
61.42
64.76
67.88
70.99
74.11
77.06
79.55
81.27
81.97
81.48
79.65
76.39
71.72
65.80
58.94
51.56
44.02
36.51
29.05
21.55
14.00
6.58
-0.36
-6.42
-11.37
-15.34
-18.74
-22.16
-26.07
-30.62
-35.60
-40.48
-44.62
-47.48
-48.73
-48.42
-46.91
-44.85
-42.95
-41.81
-41.72
-42.54
-43.83
-44.95
-45.33
-44.63
-42.78
-39.98
-36.49
-32.51
-28.10
-23.18
-17.60
-11.26
-4.17
3.55
11.73
20.19
28.79
37.32
45.47
52.77
58.65
62.54
64.08
63.20
60.23
55.92
51.27
47.29
44.72
43.71
43.82
44.15
43.80
42.23
39.40
35.73
31.70
27.56
23.22
18.35
12.69
6.24
-0.72
-7.79
-14.71
-21.39
-27.93
-34.30
-40.23
-45.16
-48.40
-49.45
-48.22
-45.13
-41.01
-36.79
-33.28
-30.93
-29.75
-29.31
-28.97
-28.01
-25.96
-22.76
-18.78
-14.68
-11.11
-8.44
-6.62
-5.23
-3.68
-1.46
1.72
5.93
11.01
16.65
22.39
27.74
32.24
35.63
37.97
39.55
40.74
41.70
42.31
42.28
41.45
39.97
38.37
37.14
36.44
35.89
34.82
32.74
29.82
27.05
25.72
26.77
30.10
34.36
37.43
37.20
32.55
23.75
12.43
0.96
-8.24
-13.40
-13.71
-9.48
-2.04
6.53
13.86
17.97
17.95
14.26
8.58
3.05
-0.62
-1.83
-1.08
0.55
2.21
3.78
5.75
8.68
12.57
16.64
19.53
20.01
17.45
12.13
4.99
-2.75
-10.00
-16.09
-20.73
-23.93
-25.90
-26.92
-27.42
-27.93
-29.04
-31.20
-34.62
-39.06
-43.95
-48.48
-51.93
-53.85
-54.26
-53.52
-52.20
-50.88
-49.86
-49.13
-48.34
-46.87
-44.11
-39.70
-33.69
-26.64
-19.54
-13.43
-9.12
-6.90
-6.46
-7.07
-7.83
-7.97
-7.03
-4.90
-1.74
2.05
6.02
9.70
12.70
14.77
15.83
15.93
15.26
14.01
12.35
10.41
8.25
5.95
3.67
1.67
0.30
-0.16
0.40
1.81
3.68
5.55
7.02
7.93
8.34
8.39
8.26
8.00
7.61
7.09
6.50
5.93
5.47
5.12
4.85
4.59
4.32
4.07
3.93
3.97
4.26
4.79
5.57
6.57
7.80
9.21
10.76
12.36
13.83
15.03
15.84
16.23
16.23
15.91
15.32
14.44
13.22
11.57
9.39
6.65
3.37
-0.34
-4.25
-8.08
-11.46
-14.09
-15.77
-16.45
-16.24
-15.36
-14.09
-12.71
-11.42
-10.31
-9.36
-8.43
-7.32
-5.93
-4.25
-2.43
-0.67
0.85
2.07
3.02
3.77
4.38
4.85
5.14
5.22
5.09
4.79
4.38
3.95
3.59
3.39
3.40
3.60
3.88
4.09
4.08
3.76
3.11
2.22
1.16
-0.01
-1.29
-2.70
-4.27
-5.95
-7.70
-9.35
-10.75
-11.64
-11.81
-11.10
-9.48
-7.11
-4.32
-1.49
1.02
2.98
4.31
5.05
5.25
5.01
4.37
3.42
2.25
0.98
-0.28
-1.43
-2.38
-3.07
-3.44
-3.50
-3.30
-2.88
-2.30
-1.54
-0.59
0.58
1.88
3.12
4.07
4.52
4.44
3.91
3.18
2.50
2.07
1.90
1.85
1.66
1.00
-0.33
-2.41
-5.05
-7.91
-10.47
-12.27
-12.98
-12.48
-10.89
-8.45
-5.55
-2.54
0.24
2.58
4.44
5.89
7.09
8.23
9.36
10.42
11.26
11.74
11.82
11.57
11.11
10.53
9.87
9.08
8.12
7.02
5.85
4.73
3.76
2.97
2.31
1.72
1.15
0.59
0.01
-0.59
-1.24
-2.00
-2.96
-4.20
-5.82
-7.84
-10.23
-12.89
-15.71
-18.56
-21.25
-23.56
-25.19
-25.82
-25.23
-23.41
-20.58
-17.20
-13.77
-10.71
-8.17
-6.06
-4.11
-2.08
0.19
2.68
5.24
7.66
9.74
11.40
12.63
13.52
14.22
14.85
15.46
15.96
16.19
15.92
15.13
14.00
12.97
12.53
12.86
13.77
14.70
14.96
14.10
12.10
9.37
6.69
4.96
5.05
7.52
12.30
18.41
23.88
26.30
23.77
16.10
5.23
-5.21
-11.19
-9.87
-0.59
14.98
33.50
51.28
65.29
73.62
75.41
70.88
61.30
49.15
37.49
29.18
26.08
28.74
36.35
46.95
58.07
67.27
72.44
71.62
63.23
46.87
24.17
-1.33
-25.14
-43.23
-52.95
-53.58
-46.74
-36.02
-25.80
-19.90
-20.91
-30.03
-47.08
-70.53
-95.10
-113.15
-118.80
-112.07
-97.74
-80.95
-64.69
-49.92
-36.61
-24.61
-14.45
-7.31
-4.01
-4.17
-6.27
-8.46
-9.40
-8.50
-5.82
-2.16
1.17
3.25
4.03
4.29
5.02
6.73
9.45
12.80
16.02
18.13
18.48
17.19
14.59
11.76
9.34
7.59
6.48
5.75
4.95
3.80
2.59
1.83
2.13
3.70
6.48
10.11
15.04
20.14
24.57
28.36
31.78
35.10
38.22
40.65
41.63
40.04
35.64
28.43
19.35
9.59
0.19
-8.46
-16.65
-25.19
-34.99
-44.27
-53.61
-62.19
-68.70
-72.24
-72.73
-71.08
-68.75
-67.09
-67.02
-69.21
-73.61
-79.80
-86.40
-90.70
-89.00
-78.13
-57.38
-29.75
-1.60
20.43
31.92
32.69
26.44
18.38
12.41
9.54
8.25
6.23
2.52
-2.03
-5.57
-6.57
-4.94
-1.86
1.07
2.68
2.69
2.40
3.13
5.72
10.07
15.24
19.97
23.31
25.07
25.73
26.23
27.24
28.90
30.74
31.93
31.77
29.93
26.62
22.43
18.17
14.42
11.47
9.29
7.59
5.98
4.14
1.86
-0.80
-3.53
-5.99
-7.97
-9.46
-10.65
-11.84
-13.27
-15.08
-17.33
-19.91
-22.81
-26.01
-29.42
-32.90
-36.17
-39.04
-41.47
-43.65
-45.72
-47.93
-50.43
-53.17
-55.93
-58.30
-59.80
-59.88
-59.26
-58.34
-57.55
-57.31
-57.95
-59.45
-61.50
-63.45
-64.45
-63.61
-60.12
-53.68
-44.64
-33.94
-22.88
-12.73
-4.44
1.62
5.57
8.05
9.67
10.92
12.05
13.17
14.32
15.54
16.87
18.29
19.81
21.32
22.74
24.03
25.24
26.43
27.60
28.67
29.39
29.44
28.46
26.14
22.35
17.29
11.53
5.94
1.38
-1.65
-3.19
-3.84
-4.43
-5.64
-7.75
-10.56
-13.67
-16.76
-19.72
-22.58
-25.38
-28.03
-30.37
-32.27
-33.72
-34.80
-35.46
-35.34
-33.79
-30.12
-23.96
-15.49
-5.48
4.97
14.86
23.55
30.80
36.69
41.32
44.77
47.02
48.19
48.58
48.60
48.71
49.16
50.01
51.16
52.45
53.75
54.97
56.03
56.79
57.09
56.76
55.62
53.57
50.47
46.21
40.78
34.29
27.06
19.58
12.38
5.86
0.11
-5.12
-10.33
-15.98
-22.21
-28.67
-34.64
-39.23
-41.87
-42.50
-41.71
-40.47
-39.78
-40.35
-42.38
-45.47
-48.74
-50.99
-50.93
-47.49
-40.10
-28.86
-14.70
0.88
16.17
29.70
40.58
48.49
53.61
56.26
56.78
55.40
52.41
48.24
43.39
38.23
32.79
26.76
19.65
11.19
1.64
-8.13
-16.87
-23.39
-26.94
-27.44
-25.40
-21.74
-17.52
-13.62
-10.53
-8.21
-6.06
-3.12
1.60
8.69
18.13
29.19
40.69
51.42
60.52
67.56
72.55
75.68
77.20
77.38
76.66
75.69
75.26
75.86
77.42
79.08
79.48
77.23
71.61
62.82
52.00
40.65
30.10
20.93
12.85
4.99
-3.69
-13.83
-25.42
-37.76
-49.74
-60.13
-67.97
-72.65
-73.92
-71.91
-67.01
-59.96
-51.81
-43.66
-36.46
-30.59
-25.83
-21.42
-16.57
-10.91
-4.82
0.69
4.34
5.18
2.95
-1.75
-7.79
-13.89
-19.08
-22.94
-25.46
-26.81
-26.98
-25.64
-22.21
-16.08
-6.91
5.26
20.04
36.73
54.59
72.84
90.63
107.01
120.86
131.02
136.62
137.44
134.08
128.12
121.35
114.62
108.24
101.98
95.06
86.65
76.34
64.33
51.55
39.00
26.85
15.08
3.68
-7.48
-18.47
-29.23
-39.60
-48.72
-56.03
-62.54
-68.97
-75.28
-81.37
-87.00
-91.74
-95.00
-94.15
-87.15
-76.23
-62.76
-46.42
-27.41
-6.43
15.40
36.78
60.41
88.13
113.83
134.03
149.65
161.34
169.46
174.30
176.23
182.22
197.63
214.50
228.20
240.32
251.51
261.71
270.63
278.13
292.74
321.06
352.69
381.74
410.49
439.57
467.93
493.22
460.92
341.31
212.74
107.38
9.31
-82.41
-165.78
-237.62
-295.18
-337.47
-357.65
-353.25
-340.04
-328.82
-320.48
-315.21
-312.57
-311.92
-312.60
-307.81
-292.67
-275.79
-262.42
-251.38
-242.26
-235.06
-229.92
-226.81
-221.34
-210.04
-197.64
-186.74
-176.01
-164.77
-152.90
-140.62
-128.23
-113.86
-95.87
-76.36
-56.32
-35.16
-13.34
7.46
24.71
35.87
39.97
37.48
29.07
17.06
4.74
-5.33
-11.84
-14.81
-15.10
-13.80
-11.85
-9.74
-7.63
-5.39
-2.80
0.52
5.08
11.38
19.72
29.83
40.74
50.81
58.19
61.41
60.04
54.89
47.84
41.22
36.96
35.96
37.85
41.20
44.17
45.20
43.54
39.32
33.20
25.96
18.05
9.47
0.04
-10.26
-21.06
-31.62
-41.07
-48.87
-55.00
-59.93
-64.35
-68.84
-73.51
-78.09
-82.05
-84.81
-86.02
-85.55
-83.53
-80.22
-75.84
-70.47
-63.95
-55.89
-45.78
-33.20
-18.00
-0.47
18.45
37.16
53.50
65.19
70.44
68.56
60.35
47.95
34.22
21.84
12.58
7.01
4.79
5.13
7.29
10.64
14.60
18.44
21.28
22.40
21.63
19.56
17.39
16.38
17.24
19.66
22.42
23.90
22.95
19.43
14.38
9.51
6.51
6.37
9.06
13.77
19.30
24.62
29.04
32.22
34.02
34.32
33.02
30.14
25.89
20.61
14.76
8.66
2.46
-3.84
-10.26
-16.74
-23.05
-28.88
-33.95
-38.10
-41.33
-43.78
-45.57
-46.79
-47.49
-47.69
-47.46
-46.93
-46.28
-45.65
-45.10
-44.53
-43.69
-42.28
-40.06
-36.96
-33.08
-28.76
-24.44
-20.50
-17.09
-14.14
-11.29
-8.08
-4.07
1.00
7.00
13.48
19.73
25.11
29.19
31.86
33.15
33.17
32.00
29.71
26.51
22.82
19.41
16.93
15.60
15.09
14.69
13.68
11.60
8.59
5.23
2.88
2.76
5.42
10.34
16.30
21.78
25.56
27.33
27.64
28.77
32.76
40.39
50.42
60.28
66.99
68.35
64.02
55.27
46.58
42.20
44.77
54.17
68.21
83.50
96.56
105.36
109.15
111.56
116.32
126.43
142.86
164.83
189.67
213.49
232.45
231.30
201.85
145.69
76.75
12.07
-37.69
-70.52
-95.46
-120.80
-151.75
-186.65
-224.52
-261.80
-297.05
-322.24
-329.78
-315.43
-281.39
-246.79
-213.92
-181.34
-147.04
-106.81
-61.38
-14.72
28.44
63.42
87.18
101.93
107.73
103.76
90.94
73.36
55.16
38.64
20.91
-3.26
-34.74
-72.88
-114.79
-156.71
-191.33
-213.85
-214.06
-188.59
-144.24
-94.62
-54.33
-30.30
-21.52
-19.19
-17.36
-13.77
-10.43
-10.24
-12.78
-16.51
-18.65
-16.39
-7.89
6.31
24.57
43.47
59.84
71.97
79.74
84.51
88.43
93.65
100.85
109.45
116.95
120.22
117.05
107.03
91.76
74.00
56.57
41.28
29.27
20.97
16.71
16.58
19.80
24.18
26.36
23.02
12.27
-5.01
-25.59
-45.22
-60.33
-69.19
-71.92
-69.62
-63.57
-54.98
-44.81
-34.17
-24.37
-16.71
-12.15
-10.81
-11.84
-13.79
-15.20
-15.14
-13.55
-11.04
-8.74
-7.72
-8.42
-10.26
-11.87
-11.71
-8.66
-2.48
6.54
17.38
28.86
40.32
51.98
64.34
77.54
90.94
103.34
114.06
122.26
126.93
127.20
122.88
114.59
103.79
92.54
83.12
78.06
78.11
81.58
85.15
85.34
79.39
66.04
45.54
15.42
-20.64
-54.37
-78.02
-89.07
-89.94
-84.97
-77.45
-69.14
-60.59
-51.16
-41.00
-31.25
-23.30
-17.64
-14.02
-11.30
-8.53
-5.21
-0.90
3.97
8.33
10.84
10.83
7.64
1.90
-5.78
-14.98
-24.94
-35.25
-45.74
-56.61
-65.82
-73.93
-81.14
-87.54
-93.14
-97.59
-100.57
-101.77
-101.47
-100.02
-98.15
-96.10
-94.11
-92.45
-91.38
-92.51
-94.22
-94.77
-91.67
-82.56
-65.80
-42.00
-14.17
13.21
35.84
51.35
59.34
61.34
59.45
55.73
51.40
47.16
43.63
41.48
41.36
42.94
45.09
46.08
44.63
40.20
33.36
25.60
18.70
14.27
13.01
14.87
18.50
22.57
25.83
27.50
27.41
25.95
23.83
21.66
19.81
18.23
16.64
14.56
11.51
7.14
1.34
-5.76
-13.83
-22.31
-30.52
-37.73
-43.42
-47.37
-49.73
-51.00
-51.77
-52.55
-53.51
-54.51
-55.05
-54.44
-52.11
-47.75
-41.42
-33.42
-24.21
-14.24
-4.05
5.78
14.66
22.18
28.12
32.65
36.24
39.74
43.96
49.43
56.20
63.82
71.22
76.87
79.08
76.47
69.03
57.88
45.04
32.92
23.91
19.85
21.09
26.55
33.43
38.95
40.21
34.78
21.47
1.17
-22.97
-46.64
-64.97
-74.40
-72.05
-57.96
-35.61
-10.94
10.18
24.38
31.05
32.93
33.73
38.62
50.95
71.03
96.56
124.46
152.65
179.43
204.54
214.45
200.13
162.52
112.30
61.28
16.22
-16.17
-38.79
-53.22
-60.43
-59.76
-51.55
-39.30
-27.98
-22.54
-25.45
-37.03
-54.84
-76.03
-96.75
-114.17
-125.59
-129.40
-126.38
-118.88
-109.78
-100.55
-92.09
-84.17
-76.41
-68.78
-61.44
-54.96
-48.30
-40.14
-29.56
-16.92
-3.72
7.66
14.65
15.71
11.03
0.80
-11.06
-19.21
-19.84
-12.80
-0.70
12.52
23.94
32.03
36.76
39.43
39.61
37.89
35.26
33.00
32.61
35.82
43.74
56.29
72.11
88.46
102.61
112.65
118.40
116.78
107.86
94.58
80.33
66.32
51.30
33.88
14.16
-6.32
-25.52
-42.28
-57.19
-71.39
-85.39
-98.39
-108.24
-112.75
-111.32
-100.64
-83.78
-65.76
-50.19
-37.85
-27.52
-18.11
-10.59
-8.71
-16.11
-33.23
-55.94
-76.71
-87.81
-84.74
-68.14
-40.98
-13.24
5.95
12.23
7.44
-2.75
-12.38
-18.04
-18.63
-14.25
-6.28
4.00
15.03
25.47
34.10
39.96
42.81
41.12
36.46
31.97
31.07
34.80
41.15
45.95
44.93
36.04
20.94
4.89
-6.31
-8.27
-0.27
15.13
33.76
51.27
64.56
72.35
75.03
72.97
66.20
54.35
37.44
16.62
-5.92
-27.76
-47.30
-63.07
-75.35
-84.30
-90.63
-95.21
-98.47
-99.96
-98.44
-92.64
-81.80
-66.49
-48.52
-30.61
-15.75
-5.91
-2.02
-4.11
-10.98
-20.14
-28.74
-34.19
-34.90
-30.49
-21.72
-10.48
0.79
8.48
9.70
3.47
-8.22
-20.38
-26.59
-21.39
-3.06
25.33
56.95
84.04
100.54
103.65
93.82
73.57
46.60
17.04
-10.24
-29.41
-34.27
-20.43
12.46
59.23
109.78
152.36
176.67
176.95
153.24
111.02
59.42
9.08
-29.66
-48.88
-44.92
-20.80
13.74
46.09
66.19
71.12
66.22
61.64
66.25
82.96
106.43
126.14
133.21
125.08
106.13
84.32
66.32
50.58
35.88
21.53
7.41
-5.08
-14.24
-19.05
-19.79
-17.94
-15.06
-12.10
-8.46
-5.17
-4.36
-9.46
-24.22
-50.65
-87.74
-130.96
-172.80
-199.31
-201.49
-176.90
