1660325692.00
64.000000
-0.00
-0.00
-0.00
-0.00
-0.00
-0.00
-0.00
-0.00
-0.00
-0.00
0.00
0.01
0.01
-0.00
-0.03
-0.05
-0.05
0.00
0.13
0.36
0.66
1.01
1.37
1.72
2.06
2.40
2.79
3.24
3.80
4.42
5.06
5.66
6.20
6.68
7.15
7.68
8.31
9.14
10.09
11.04
11.88
12.56
13.14
13.76
14.65
15.96
17.91
20.32
22.90
25.38
27.58
29.57
31.68
34.32
37.81
42.54
48.15
54.10
59.83
64.97
69.58
74.14
79.34
85.71
93.76
103.00
112.62
121.73
129.77
136.75
143.30
150.75
157.77
166.64
177.95
191.79
206.97
220.57
228.25
225.36
208.53
176.87
132.76
80.05
23.07
-34.94
-92.44
-149.16
-205.23
-260.37
-313.74
-363.87
-409.83
-450.91
-486.50
-515.74
-537.23
-549.22
-549.96
-538.37
-514.21
-478.67
-433.88
-382.45
-327.02
-269.84
-212.63
-156.66
-102.95
-52.37
-5.90
35.58
71.43
101.35
125.50
144.38
158.69
169.15
176.37
180.75
182.57
182.07
179.51
175.23
169.65
163.18
156.15
148.81
141.30
133.69
126.02
118.33
110.69
103.16
95.80
88.68
81.83
75.25
68.95
62.95
57.25
51.86
46.78
42.03
37.59
33.45
29.61
26.07
22.81
19.83
17.11
14.67
12.48
10.54
8.83
7.34
6.07
4.98
4.07
3.29
2.64
2.08
1.59
1.18
0.83
0.56
0.36
0.23
0.15
0.09
0.02
-0.08
-0.19
-0.30
-0.39
-0.44
-0.45
-0.43
-0.41
-0.44
-0.53
-0.68
-0.84
-0.96
-0.98
-0.92
-0.83
-0.77
-0.86
-1.12
-1.54
-1.98
-2.32
-2.44
-2.34
-2.13
-2.01
-2.17
-2.71
-3.56
-4.50
-5.25
-5.59
-5.48
-5.12
-4.83
-4.96
-5.70
-6.98
-8.46
-9.73
-10.44
-10.47
-9.96
-9.27
-8.82
-9.04
-10.25
-12.54
-15.56
-18.38
-19.60
-17.76
-12.02
-2.78
8.25
18.60
26.02
29.29
28.69
25.64
22.04
19.49
18.85
20.28
23.36
27.36
31.33
34.40
35.61
34.51
31.21
26.39
21.07
16.23
12.43
9.66
7.41
4.95
1.67
-2.60
-7.55
-12.43
-16.43
-18.91
-19.67
-18.94
-17.29
-15.41
-13.99
-13.58
-14.45
-16.47
-18.94
-20.73
-20.61
-17.76
-12.23
-5.02
2.18
7.69
10.50
10.59
8.86
6.57
4.84
4.25
4.68
5.50
5.92
5.30
3.40
0.39
-3.31
-7.18
-10.75
-13.72
-16.00
-17.65
-18.81
-19.63
-20.25
-20.71
-20.85
-20.11
-17.67
-12.77
-5.03
5.26
17.10
29.09
39.94
47.99
52.41
53.29
51.51
48.19
44.38
40.69
37.33
34.19
30.91
27.12
22.38
16.19
8.23
-1.45
-12.27
-23.18
-32.83
-39.99
-43.61
-43.21
-38.89
-31.30
-21.43
-10.42
0.68
11.07
20.18
27.73
33.51
37.29
38.78
37.73
34.02
27.69
18.99
8.35
-3.53
-15.70
-26.93
-35.93
-41.65
-43.61
-42.15
-38.29
-33.43
-28.80
-25.06
-22.27
-20.13
-18.44
-17.32
-17.15
-18.16
-20.05
-21.92
-22.58
-21.15
-17.60
-12.69
-7.61
-3.35
-0.26
2.00
4.09
6.52
9.31
11.97
13.74
13.97
12.39
9.21
5.03
0.57
-3.63
-7.33
-10.68
-14.09
-18.00
-22.76
-28.51
-35.12
-42.13
-48.54
-52.78
-52.92
-47.19
-34.74
-16.23
6.09
28.94
48.93
63.58
71.89
74.29
72.17
67.11
60.45
52.98
45.04
36.71
28.00
18.96
9.75
0.56
-8.37
-16.89
-24.96
-32.69
-40.26
-47.93
-55.99
-64.83
-74.74
-85.65
-96.79
-106.50
-112.46
-112.35
-104.74
-89.74
-69.11
-45.64
-22.37
-1.70
14.87
26.52
32.75
33.08
27.23
15.54
-0.64
-18.86
-36.02
-49.12
-56.14
-56.51
-51.15
-41.94
-31.01
-20.04
-10.09
-1.73
4.53
7.95
7.66
3.13
-5.21
-15.59
-25.20
-30.99
-30.68
-23.54
-10.50
6.25
24.15
40.93
55.09
65.89
73.25
77.43
78.93
78.28
76.00
72.42
67.69
61.87
55.07
47.64
40.17
33.34
27.68
23.51
20.89
19.70
19.63
20.14
20.35
19.18
15.75
9.93
2.77
-3.65
-6.79
-4.69
3.25
15.99
31.24
46.34
59.09
68.28
73.66
75.62
74.88
72.27
68.65
64.83
61.43
58.63
56.05
52.94
48.54
42.54
35.27
27.55
20.33
14.25
9.31
4.96
0.27
-5.65
-13.39
-22.93
-33.46
-43.39
-50.55
-52.74
-48.52
-37.79
-22.13
-4.39
12.10
24.52
31.23
32.08
28.04
20.82
12.26
3.98
-2.80
-7.37
-9.60
-9.91
-9.13
-8.28
-8.20
-9.33
-11.57
-14.44
-17.23
-19.31
-20.39
-20.55
-20.36
-20.72
-22.60
-26.68
-32.86
-40.05
-46.28
-49.26
-47.24
-39.68
-27.57
-13.06
1.33
13.49
22.28
27.48
29.49
28.88
26.14
21.79
16.51
11.25
7.01
4.52
3.87
4.47
5.30
5.35
4.03
1.31
-2.35
-6.29
-10.01
-13.34
-16.42
-19.64
-23.28
-27.29
-31.03
-33.30
-32.69
-28.13
-19.38
-7.34
6.20
19.07
29.36
35.92
38.44
37.36
33.53
27.97
21.76
15.84
10.91
7.34
5.05
3.59
2.35
0.80
-1.28
-3.83
-6.55
-9.18
-11.62
-14.01
-16.70
-20.10
-24.42
-29.49
-34.60
-38.52
-39.76
-37.00
-29.73
-18.54
-5.16
8.05
18.81
25.64
28.14
26.93
23.21
18.43
13.85
10.47
8.87
9.11
10.75
12.91
14.60
15.08
14.03
11.57
8.05
3.81
-0.99
-6.21
-11.70
-17.16
-22.14
-26.13
-28.56
-28.84
-26.38
-20.75
-11.92
-0.49
12.21
24.35
34.14
40.26
42.32
40.76
36.56
30.88
24.71
18.75
13.41
8.89
5.21
2.15
-0.61
-3.48
-6.70
-10.31
-14.10
-17.73
-20.90
-23.51
-25.68
-27.69
-29.86
-32.27
-34.60
-36.08
-35.62
-32.27
-25.63
-16.09
-4.84
6.49
16.32
23.51
27.51
28.35
26.51
22.74
18.05
13.44
9.81
7.75
7.39
8.48
10.40
12.33
13.41
12.95
10.58
6.36
0.68
-5.89
-12.91
-20.21
-27.81
-35.54
-42.71
-48.04
-50.00
-47.42
-40.15
-29.18
-16.41
-3.93
6.60
14.38
19.38
22.03
22.89
22.41
21.04
19.30
17.81
17.20
17.76
19.37
21.43
23.08
23.51
22.23
19.20
14.74
9.30
3.21
-3.47
-10.80
-18.75
-26.80
-33.86
-38.43
-39.15
-35.38
-27.63
-17.45
-6.91
2.13
8.58
12.35
14.00
14.39
14.17
13.64
12.76
11.33
9.20
6.29
2.64
-1.63
-6.34
-11.20
-15.81
-19.66
-22.24
-23.11
-22.16
-19.64
-16.15
-12.46
-9.22
-6.67
-4.52
-2.08
1.38
6.26
12.41
19.13
25.43
30.37
33.23
33.70
31.73
27.49
21.36
13.94
6.13
-1.02
-6.49
-9.67
-10.48
-9.45
-7.50
-5.61
-4.52
-4.61
-5.94
-8.35
-11.65
-15.61
-19.91
-24.03
-27.21
-28.62
-27.60
-23.98
-18.23
-11.36
-4.65
0.68
3.82
4.48
2.91
-0.31
-4.43
-8.76
-12.81
-16.31
-19.22
-21.61
-23.49
-24.78
-25.28
-24.80
-23.28
-20.89
-18.05
-15.34
-13.38
-12.65
-13.39
-15.56
-18.67
-21.84
-23.88
-23.55
-20.00
-13.14
-3.81
6.45
15.86
23.06
27.42
29.18
29.05
27.76
25.78
23.17
19.86
15.94
11.84
8.25
5.87
5.06
5.59
6.67
7.26
6.37
3.50
-1.29
-7.39
-13.85
-19.56
-23.44
-24.60
-22.47
-16.92
-8.42
2.15
13.57
24.64
34.49
42.73
49.56
55.46
60.93
65.89
69.49
70.21
66.52
57.90
45.53
32.23
21.46
15.84
16.09
20.90
27.82
34.62
40.24
44.88
49.28
53.84
58.26
61.87
64.59
67.47
72.26
80.97
94.81
113.50
135.17
157.19
177.37
194.65
209.15
221.15
230.68
237.44
240.97
240.96
237.44
230.77
221.33
209.33
194.05
175.15
153.42
130.65
108.73
88.86
71.29
55.61
41.14
25.05
5.26
-18.40
-44.46
-71.39
-98.70
-126.92
-156.97
-189.66
-229.69
-279.22
-335.28
-390.37
-436.41
-467.97
-482.96
-481.79
-466.40
-446.78
-431.00
-421.51
-415.62
-410.64
-406.94
-407.04
-413.19
-425.75
-452.67
-497.76
-556.91
-619.49
-675.47
-719.83
-752.22
-774.54
-729.26
-588.32
-369.86
-129.12
83.55
246.59
361.72
439.89
492.68
529.03
545.31
538.62
512.65
477.90
444.96
420.20
405.05
397.87
395.62
387.72
366.65
332.15
290.95
250.66
216.21
188.99
167.83
150.48
130.06
101.77
65.26
26.75
-9.96
-41.62
-64.97
-76.34
-72.31
-54.06
-25.96
5.58
34.12
54.33
64.35
65.81
62.51
58.36
54.56
50.49
45.18
38.69
31.95
26.66
23.98
23.84
25.14
26.34
26.07
23.98
20.59
16.82
13.85
12.39
12.41
13.24
13.90
13.56
11.98
9.58
7.19
5.66
5.23
5.18
4.04
0.29
-6.79
-16.59
-27.38
-37.14
-44.29
-48.38
-50.01
-49.83
-48.23
-44.97
-39.51
-31.53
-21.33
-9.69
2.43
14.49
26.12
36.86
45.87
51.88
53.49
49.63
40.24
26.48
10.70
-4.02
-14.65
-18.93
-16.09
-7.03
5.70
18.78
28.95
33.96
33.15
27.33
18.29
8.05
-1.82
-10.49
-17.67
-23.22
-26.67
-27.13
-23.80
-16.69
-7.12
2.55
9.83
13.35
13.46
11.73
9.75
7.76
4.43
-2.26
-13.31
-27.51
-41.53
-51.22
-53.68
-48.49
-37.94
-25.77
-15.61
-9.71
-8.61
-11.51
-17.13
-24.32
-32.24
-40.39
-48.32
-55.60
-61.83
-66.65
-69.82
-71.07
-70.33
-66.97
-59.86
-47.74
-29.85
-6.66
19.94
47.05
71.68
91.84
106.96
117.51
124.03
126.20
122.68
111.75
92.46
65.62
34.01
1.76
-26.88
-48.69
-62.19
-67.57
-66.19
-59.87
-50.40
-39.38
-28.29
-18.81
-12.76
-11.69
-16.06
-24.53
-33.79
-39.36
-37.12
-25.01
-4.08
21.81
47.28
67.36
78.87
81.17
75.88
66.12
55.37
46.46
40.75
37.53
34.01
26.06
9.61
-17.59
-54.73
-97.71
-140.05
-174.78
-196.52
-202.94
-195.11
-176.83
-153.23
-129.29
-108.68
-93.24
-83.09
-76.98
-72.84
-68.24
-60.90
-49.14
-32.30
-10.81
13.96
40.17
65.94
89.68
110.15
126.46
138.29
146.17
151.67
157.10
164.53
174.54
185.42
193.36
193.94
184.08
163.66
135.73
105.31
77.30
54.72
38.03
25.62
15.27
5.25
-4.99
-14.96
-23.67
-30.06
-33.25
-32.60
-27.61
-18.08
-4.23
13.17
32.90
53.44
73.14
90.35
103.33
110.25
109.53
100.34
83.30
60.68
35.91
12.49
-7.35
-23.52
-37.96
-53.58
-72.72
-95.77
-120.79
-143.99
-161.06
-168.55
-165.00
-151.24
-130.05
-105.16
-80.30
-58.38
-41.28
-29.95
-24.59
-24.62
-28.45
-33.31
-35.65
-32.11
-20.74
-1.82
22.21
47.71
71.28
90.81
105.90
117.37
126.66
135.15
143.82
153.19
163.05
172.37
179.27
181.43
176.87
164.84
146.26
123.48
99.45
76.61
56.16
38.01
21.31
5.26
-10.40
-25.26
-38.71
-50.46
-60.86
-70.77
-81.07
-92.10
-103.19
-112.81
-118.92
-119.71
-114.23
-102.69
-86.41
-67.52
-48.29
-30.56
-15.27
-2.35
9.06
20.02
31.07
41.76
50.45
54.65
51.80
40.25
20.04
-6.77
-36.38
-64.08
-85.39
-97.19
-98.51
-90.65
-76.69
-60.42
-45.26
-33.49
-26.07
-22.94
-23.56
-27.18
-32.98
-39.89
-46.61
-51.84
-54.53
-54.12
-50.42
-43.46
-33.26
-20.01
-4.37
12.46
28.98
44.09
57.81
71.38
86.53
104.16
123.15
140.22
151.01
151.94
141.97
123.27
100.46
78.77
62.16
52.08
47.63
46.63
46.93
47.38
47.83
48.49
49.29
49.51
48.07
44.20
37.97
30.33
22.69
16.19
11.12
6.82
2.03
-4.63
-14.30
-27.64
-44.79
-65.18
-87.33
-108.75
-126.41
-137.46
-140.27
-135.15
-124.44
-111.89
-101.62
-96.95
-99.45
-108.67
-122.18
-136.33
-147.06
-150.98
-146.17
-132.58
-111.82
-86.62
-60.08
-35.10
-14.05
1.47
10.68
13.86
12.31
8.23
4.19
2.51
4.67
10.87
20.03
30.02
38.24
42.35
41.02
34.60
25.26
16.61
12.58
16.13
27.87
45.47
64.10
77.93
82.20
75.10
58.68
38.15
20.12
10.03
10.26
19.35
32.97
45.81
53.74
55.05
50.50
42.27
32.64
23.09
14.14
5.75
-2.19
-9.73
-17.02
-24.49
-32.73
-41.77
-50.50
-56.59
-57.39
-51.39
-39.48
-25.15
-13.36
-8.40
-11.97
-22.26
-34.57
-43.07
-42.89
-31.55
-9.46
20.66
54.83
88.92
119.53
144.49
163.25
176.80
187.33
197.54
209.74
225.03
242.84
261.15
277.13
287.94
291.61
287.44
276.09
259.35
239.66
219.56
201.01
184.76
170.09
155.05
137.31
115.24
88.95
60.58
33.94
13.34
2.26
2.06
11.39
26.64
42.96
55.92
62.71
62.74
57.32
48.59
38.42
27.77
16.56
4.17
-9.95
-26.11
-44.55
-65.77
-90.60
-119.82
-153.67
-191.48
-231.84
-273.10
-313.80
-352.77
-388.66
-419.39
-442.07
-453.45
-451.17
-434.74
-405.85
-367.82
-324.37
-278.58
-232.42
-187.04
-143.44
-103.02
-67.63
-39.21
-19.08
-7.14
-1.48
1.46
5.98
15.84
32.95
56.69
84.25
111.74
135.64
153.77
165.47
170.97
170.62
164.37
151.90
133.15
108.82
80.51
50.43
20.79
-6.56
-30.50
-50.53
-66.75
-79.66
-90.06
-98.97
-107.53
-116.72
-127.14
-138.82
-151.21
-163.42
-174.49
-183.77
-191.03
-196.46
-200.50
-203.77
-206.89
-210.25
-213.72
-216.45
-216.90
-213.16
-203.62
-187.71
-166.16
-140.87
-114.26
-88.47
-64.80
-43.67
-24.84
-7.80
8.02
23.27
38.85
55.80
75.02
96.69
119.83
142.21
160.92
173.23
177.57
173.91
163.60
148.71
131.13
112.17
92.45
72.32
52.37
33.54
16.98
3.55
-6.63
-14.33
-20.98
-28.06
-36.38
-45.57
-54.03
-59.48
-59.75
-53.70
-41.65
-25.27
-6.93
11.17
27.58
41.83
54.04
64.37
72.72
78.65
81.77
82.07
80.09
76.82
73.20
69.87
66.90
64.01
60.84
57.24
53.36
49.50
45.97
42.77
39.68
36.34
32.39
27.69
22.34
16.63
10.93
5.54
0.62
-3.91
-8.42
-13.46
-19.60
-27.08
-35.46
-43.47
-49.21
-50.73
-46.72
-37.04
-22.83
-6.13
10.93
26.70
40.35
51.79
61.22
68.72
74.12
77.08
77.46
75.51
71.94
67.64
63.40
59.60
56.15
52.66
48.70
44.11
39.09
34.11
29.64
25.92
22.79
19.73
16.09
11.42
5.67
-0.76
-7.19
-13.00
-17.91
-22.05
-25.85
-29.81
-34.29
-39.41
-45.08
-51.06
-56.85
-61.62
-64.26
-63.45
-58.18
-48.12
-33.91
-17.07
0.45
16.84
30.96
42.41
51.37
58.15
62.88
65.51
65.94
64.23
60.80
56.24
51.14
45.82
40.36
34.73
28.98
23.34
18.17
13.79
10.25
7.31
4.51
1.29
-2.71
-7.57
-13.06
-18.72
-24.06
-28.74
-32.71
-36.29
-40.05
-44.57
-50.17
-56.52
-62.60
-66.77
-67.32
-63.00
-53.53
-39.82
-23.65
-7.12
7.99
20.63
30.46
37.65
42.52
45.29
46.14
45.28
43.08
40.02
36.61
33.24
30.10
27.17
24.32
21.40
18.26
14.82
11.09
7.14
3.09
-0.93
-4.82
-8.52
-12.06
-15.49
-18.97
-22.67
-26.88
-31.82
-37.51
-43.48
-48.72
-51.75
-51.13
-45.90
-36.06
-22.59
-7.18
8.34
22.50
34.42
43.78
50.51
54.57
55.88
54.42
50.41
44.43
37.41
30.42
24.40
19.89
16.89
14.91
13.21
11.13
8.32
4.80
0.94
-2.83
-6.19
-9.10
-11.75
-14.50
-17.73
-21.75
-26.71
-32.47
-38.52
-43.95
-47.48
-47.83
-44.11
-36.15
-24.70
-11.21
2.55
15.10
25.51
33.46
39.07
42.56
44.08
43.68
41.50
37.88
33.41
28.82
24.73
21.48
18.97
16.79
14.42
11.54
8.11
4.44
0.95
-2.07
-4.58
-6.85
-9.30
-12.30
-16.09
-20.74
-26.16
-32.07
-37.85
-42.50
-44.72
-43.28
-37.47
-27.44
-14.21
0.69
15.72
29.74
42.07
52.33
60.11
64.88
66.11
63.60
57.76
49.55
40.30
31.30
23.52
17.45
13.12
10.23
8.32
6.92
5.69
4.48
3.37
2.54
2.05
1.72
1.07
-0.60
-3.97
-9.46
-17.10
-26.40
-36.39
-45.73
-52.87
-56.35
-55.19
-49.13
-38.80
-25.58
-11.26
2.44
14.24
23.60
30.60
35.79
39.74
42.82
44.97
45.78
44.80
41.78
36.89
30.73
24.08
17.65
11.89
6.87
2.46
-1.64
-5.68
-9.82
-14.07
-18.36
-22.55
-26.53
-30.22
-33.57
-36.59
-39.45
-42.49
-46.18
-50.98
-56.92
-63.34
-68.78
-71.28
-69.12
-61.45
-48.76
-32.67
-15.38
1.11
15.51
27.28
36.46
43.22
47.68
49.90
50.04
48.52
45.95
43.09
40.50
38.44
36.84
35.34
33.61
31.37
28.64
25.62
22.62
19.89
17.47
15.20
12.73
9.64
5.62
0.53
-5.46
-11.94
-18.33
-24.02
-28.62
-32.04
-34.58
-36.81
-39.38
-42.85
-47.43
-52.88
-58.41
-62.80
-64.63
-62.68
-56.31
-45.67
-31.77
-16.09
-0.32
14.18
26.48
36.15
43.10
47.48
49.55
49.67
48.31
45.96
43.09
40.12
37.36
35.02
33.19
31.75
30.44
28.91
26.86
24.21
21.15
18.07
15.30
12.99
10.93
8.70
5.84
2.08
-2.50
-7.52
-12.47
-16.92
-20.67
-23.81
-26.60
-29.29
-32.13
-35.26
-38.86
-43.09
-47.89
-52.75
-56.59
-57.91
-55.31
-48.05
-36.49
-21.98
-6.46
8.27
20.95
31.08
38.67
43.98
47.20
48.46
47.91
45.89
42.94
39.68
36.64
34.07
31.94
30.06
28.20
26.22
24.11
21.90
19.61
17.23
14.71
12.07
9.28
6.29
3.00
-0.73
-4.96
-9.57
-14.26
-18.59
-22.23
-25.03
-27.19
-29.15
-31.49
-34.71
-39.16
-44.81
-51.21
-57.40
-62.06
-63.75
-61.33
-54.32
-43.15
-29.02
-13.49
1.90
16.07
28.42
38.70
46.80
52.60
56.03
57.17
56.39
54.26
51.44
48.44
45.61
43.06
40.78
38.67
36.63
34.52
32.19
29.55
26.53
23.18
19.57
15.81
11.95
7.93
3.58
-1.23
-6.58
-12.32
-18.15
-23.66
-28.56
-32.79
-36.53
-40.15
-43.98
-48.28
-53.15
-58.56
-64.31
-69.85
-74.29
-76.41
-75.04
-69.42
-59.62
-46.53
-31.64
-16.58
-2.68
9.29
19.07
26.72
32.35
36.05
37.88
38.00
36.74
34.60
32.14
29.82
27.87
26.27
24.90
23.53
22.06
20.48
18.78
16.96
14.91
12.51
9.70
6.47
2.92
-0.81
-4.61
-8.38
-12.09
-15.74
-19.36
-22.95
-26.50
-29.98
-33.38
-36.70
-40.06
-43.68
-47.80
-52.48
-57.35
-61.48
-63.56
-62.23
-56.65
-46.93
-34.12
-19.90
-5.99
6.35
16.56
24.64
30.77
35.07
37.50
38.04
36.88
34.50
31.62
28.92
26.86
25.54
24.70
23.89
22.69
20.87
18.46
15.67
12.81
10.09
7.52
4.94
2.08
-1.30
-5.22
-9.52
-13.82
-17.72
-20.96
-23.46
-25.40
-27.17
-29.22
-31.98
-35.78
-40.64
-46.19
-51.56
-55.49
-56.61
-53.90
-46.99
-36.36
-23.19
-8.94
5.01
17.57
28.03
36.01
41.34
44.09
44.63
43.51
41.45
39.11
36.92
35.10
33.59
32.23
30.84
29.30
27.55
25.58
23.38
20.95
18.22
15.07
11.40
7.11
2.25
-3.02
-8.41
-13.59
-18.36
-22.63
-26.59
-30.57
-35.00
-40.26
-46.45
-53.25
-59.83
-64.90
-67.01
-65.03
-58.53
-47.97
-34.67
-20.26
-6.26
6.34
17.07
25.84
32.63
37.33
39.87
40.28
38.96
36.54
33.75
31.16
29.01
27.22
25.50
23.60
21.42
19.08
16.75
14.58
12.44
10.02
6.91
2.85
-2.12
-7.64
-13.14
-18.13
-22.38
-26.05
-29.62
-33.69
-38.81
-45.21
-52.77
-60.83
-68.28
-73.70
-75.66
-73.15
-65.90
-54.54
-40.38
-25.09
-10.14
3.40
14.95
24.26
31.14
35.41
36.98
36.02
33.05
28.86
24.32
20.13
16.73
14.23
12.64
11.92
12.07
13.06
14.77
16.91
18.97
20.36
20.48
18.96
15.77
11.24
5.98
0.64
-4.36
-8.95
-13.46
-18.44
-24.39
-31.58
-39.77
-48.14
-55.42
-60.08
-60.75
-56.67
-47.92
-35.46
-20.84
-5.67
8.73
21.62
32.73
41.98
49.22
54.16
56.53
56.29
53.91
50.33
46.63
43.69
41.75
40.41
38.94
36.70
33.52
29.78
26.12
23.02
20.49
18.02
14.82
10.25
4.13
-3.18
-10.94
-18.33
-24.75
-29.91
-33.84
-36.84
-39.33
-41.85
-44.94
-48.99
-54.02
-59.48
-64.17
-66.45
-64.75
-58.12
-46.66
-31.50
-14.47
2.52
17.98
31.09
41.56
49.37
54.54
57.05
57.00
54.75
51.07
46.85
42.98
39.92
37.68
35.87
33.96
31.59
28.73
25.62
22.62
19.95
17.53
14.98
11.83
7.71
2.56
-3.24
-9.03
-14.10
-17.96
-20.56
-22.35
-24.06
-26.56
-30.47
-35.97
-42.63
-49.39
-54.74
-57.10
-55.16
-48.35
-37.06
-22.47
-6.28
9.84
24.58
37.16
47.20
54.55
59.12
60.92
60.18
57.48
53.64
49.56
45.92
42.94
40.45
38.03
35.32
32.19
28.80
25.37
22.04
18.72
15.14
11.01
6.23
0.95
-4.41
-9.36
-13.47
-16.57
-18.82
-20.70
-22.87
-26.03
-30.67
-36.87
-44.15
-51.36
-56.90
-59.03
-56.44
-48.68
-36.36
-21.08
-4.92
10.16
22.79
32.46
39.38
44.06
47.05
48.66
49.01
48.19
46.40
44.00
41.42
39.03
36.99
35.19
33.37
31.30
28.83
25.97
22.77
19.22
15.21
10.58
5.24
-0.65
-6.71
-12.35
-17.00
-20.42
-22.83
-24.84
-27.35
-31.10
-36.33
-42.56
-48.53
-52.53
-52.88
-48.48
-39.25
-26.12
-10.86
4.58
18.56
30.14
39.06
45.50
49.72
51.89
52.09
50.53
47.64
44.08
40.53
37.43
34.86
32.59
30.28
27.71
24.92
22.09
19.46
17.06
14.63
11.76
8.04
3.34
-2.14
-7.87
-13.24
-17.78
-21.40
-24.42
-27.43
-31.14
-36.03
-42.19
-49.04
-55.42
-59.77
-60.54
-56.74
-48.26
-35.96
-21.39
-6.27
7.91
20.22
30.23
37.86
43.19
46.37
47.62
47.31
45.89
43.78
41.30
38.61
35.77
32.85
29.94
27.16
24.63
22.41
20.42
18.51
16.44
13.89
10.56
6.25
0.95
-5.06
-11.25
-17.06
-22.06
-26.15
-29.65
-33.12
-37.17
-42.25
-48.29
-54.71
-60.36
-63.75
-63.54
-58.90
-49.90
-37.49
-23.25
-8.85
4.38
15.71
24.92
32.07
37.25
40.46
41.72
41.22
39.39
36.93
34.55
32.82
31.91
31.59
31.29
30.42
28.57
25.71
22.15
18.36
14.76
11.47
8.27
4.70
0.30
-5.16
-11.56
-18.44
-25.20
-31.35
-36.69
-41.39
-45.93
-50.94
-56.97
-64.28
-72.63
-81.17
-88.53
-93.08
-93.33
-88.44
-78.45
-64.35
-47.70
-30.24
-13.42
1.81
14.95
25.81
34.26
40.25
43.77
45.09
44.71
43.37
41.76
40.39
39.36
38.45
37.24
35.36
32.65
29.28
25.59
22.02
18.91
16.38
14.31
12.41
10.31
7.72
4.56
0.94
-2.88
-6.65
-10.21
-13.68
-17.30
-21.48
-26.56
-32.78
-40.04
-47.83
-55.19
-60.72
-63.02
-60.95
-54.13
-43.06
-29.00
-13.64
1.42
15.00
26.46
35.54
42.24
46.61
48.75
48.88
47.43
44.98
42.16
39.39
36.86
34.46
31.95
29.12
25.90
22.47
19.13
16.21
13.87
12.08
10.54
8.80
6.41
3.12
-1.01
-5.68
-10.44
-14.95
-19.04
-22.78
-26.33
-29.94
-33.85
-38.30
-43.46
-49.29
-55.30
-60.47
-63.46
-62.93
-58.08
-48.99
-36.64
-22.57
-8.43
4.50
15.45
24.11
30.41
34.33
35.91
35.34
33.01
29.59
25.84
22.42
19.67
17.60
15.93
14.26
12.24
9.79
7.04
4.27
1.76
-0.36
-2.18
-3.96
-5.97
-8.40
-11.26
-14.36
-17.45
-20.31
-22.90
-25.35
-27.92
-30.92
-34.59
-39.05
-44.27
-49.94
-55.45
-59.79
-61.75
-60.19
-54.39
-44.46
-31.37
-16.75
-2.40
10.28
20.52
28.19
33.50
36.70
37.89
37.21
34.94
31.65
28.03
24.70
21.92
19.60
17.39
15.00
12.36
9.67
7.22
5.16
3.39
1.53
-0.84
-4.02
-8.00
-12.51
-17.12
-21.42
-25.18
-28.42
-31.46
-34.79
-38.92
-44.14
-50.21
-56.22
-60.69
-61.92
-58.58
-50.16
-37.29
-21.58
-5.04
10.37
23.33
33.29
40.31
44.78
47.19
47.99
47.56
46.28
44.52
42.62
40.81
39.22
37.82
36.54
35.20
33.59
31.51
28.82
25.50
21.62
17.36
12.90
8.38
3.93
-0.36
-4.39
-8.14
-11.72
-15.48
-19.95
-25.67
-32.88
-41.19
-49.45
-55.94
-58.88
-56.97
-49.89
-38.46
-24.25
-9.20
5.04
17.36
27.27
34.68
39.68
42.45
43.22
42.39
40.44
37.90
35.16
32.43
29.78
27.26
24.93
22.86
21.08
19.43
17.61
15.22
12.00
7.85
2.93
-2.46
-7.95
-13.27
-18.27
-22.92
-27.36
-31.86
-36.84
-42.70
-49.63
-57.33
-64.76
-70.32
-72.20
-69.01
-60.33
-46.95
-30.61
-13.38
2.92
17.16
28.94
38.33
45.54
50.71
53.88
55.16
54.79
53.23
51.01
48.56
46.14
43.76
41.36
38.84
36.23
33.66
31.24
28.98
26.63
23.75
19.85
14.64
8.17
0.89
-6.53
-13.41
-19.39
-24.52
-29.28
-34.37
-40.46
-47.85
-56.25
-64.62
-71.31
-74.45
-72.52
-64.91
-52.17
-35.91
-18.22
-0.99
14.54
27.94
39.24
48.52
55.58
60.04
61.58
60.36
57.05
52.75
48.51
45.05
42.49
40.52
38.59
36.30
33.54
30.51
27.56
24.87
22.38
19.70
16.31
11.80
6.14
-0.33
-6.94
-12.96
-17.89
-21.63
-24.51
-27.15
-30.29
-34.50
-40.09
-47.00
-54.69
-62.12
-67.82
-70.20
-67.98
-60.61
-48.61
-33.40
-16.89
-0.90
13.36
25.37
35.14
42.85
48.53
52.02
53.22
52.31
49.86
46.70
43.66
41.23
39.48
38.10
36.62
34.70
32.24
29.37
26.36
23.45
20.74
18.09
15.18
11.64
7.21
1.91
-3.93
-9.79
-15.16
-19.78
-23.73
-27.34
-31.07
-35.30
-40.27
-46.05
-52.56
-59.47
-66.03
-71.06
-73.13
-70.97
-63.92
-52.29
-37.34
-20.88
-4.68
9.94
22.35
32.42
40.19
45.65
48.72
49.36
47.88
44.92
41.43
38.27
36.05
34.80
34.16
33.51
32.27
30.14
27.16
23.69
20.16
16.92
13.98
11.06
7.64
3.33
-1.92
-7.72
-13.41
-18.32
-22.13
-24.96
-27.25
-29.60
-32.52
-36.34
-41.13
-46.69
-52.41
-57.24
-59.76
-58.57
-52.77
-42.34
-28.27
-12.26
3.83
18.49
30.82
40.50
47.54
52.06
54.17
54.11
52.31
49.45
46.28
43.41
41.14
39.40
37.86
36.16
34.05
31.56
28.86
26.23
23.81
21.50
19.00
15.88
11.84
6.84
1.18
-4.58
-9.87
-14.28
-17.74
-20.53
-23.15
-26.23
-30.26
-35.49
-41.61
-47.79
-52.66
-54.72
-52.79
-46.44
-36.20
-23.38
-9.67
3.45
15.04
24.74
32.57
38.59
42.74
44.82
44.77
42.80
39.49
35.63
31.90
28.69
26.03
23.66
21.26
18.63
15.76
12.82
9.92
7.09
4.15
0.82
-3.16
-7.82
-12.89
-17.88
-22.27
-25.76
-28.48
-30.84
-33.45
-36.80
-41.15
-46.40
-52.17
-57.73
-62.04
-63.91
-62.21
-56.35
-46.50
-33.68
-19.48
-5.56
6.87
17.18
25.30
31.40
35.61
38.00
38.62
37.76
35.91
33.72
31.74
30.23
29.06
27.87
26.27
24.08
21.43
18.66
16.12
13.95
11.93
9.60
6.45
2.21
-3.03
-8.80
-14.43
-19.32
-23.19
-26.16
-28.71
-31.53
-35.28
-40.38
-46.76
-53.79
-60.32
-64.88
-66.11
-63.12
-55.82
-44.98
-32.01
-18.49
-5.75
5.42
14.78
22.41
28.42
32.76
35.24
35.76
34.53
32.12
29.34
26.92
25.27
24.33
23.65
22.72
21.17
19.01
16.47
13.93
11.62
9.50
7.26
4.49
0.80
-3.89
-9.37
-15.13
-20.59
-25.28
-29.04
-32.05
-34.79
-37.88
-41.95
-47.38
-54.10
-61.45
-68.21
-72.74
-73.48
-69.39
-60.38
-47.36
-31.97
-16.10
-1.31
11.38
21.59
29.30
34.63
37.72
38.68
37.81
35.55
32.57
29.51
26.85
24.80
23.23
21.84
20.35
18.62
16.78
15.15
13.94
13.16
12.45
11.29
9.13
5.76
1.37
-3.48
-8.08
-11.90
-14.73
-16.72
-18.32
-20.09
-22.56
-26.08
-30.63
-35.67
-40.13
-42.58
-41.59
-36.27
-26.51
-13.23
1.98
17.28
31.10
42.47
51.12
57.19
60.97
62.71
62.56
60.77
57.74
54.10
50.40
47.02
43.94
40.85
37.38
33.37
28.94
24.43
20.18
16.27
12.56
8.69
4.35
-0.58
-5.97
-11.53
-16.95
-22.02
-26.69
-31.05
-35.29
-39.72
-44.66
-50.33
-56.58
-62.73
-67.52
-69.36
-66.86
-59.39
-47.37
-32.26
-16.07
-0.72
12.46
22.95
30.82
36.39
39.94
41.63
41.62
40.29
38.28
36.36
35.15
34.88
35.23
35.57
35.23
33.88
31.65
29.01
26.47
24.27
22.36
20.46
18.39
16.21
14.28
13.11
13.05
14.16
16.14
18.45
20.46
21.62
21.67
20.78
19.72
19.84
22.82
30.25
43.07
61.18
83.46
108.14
133.43
158.03
181.40
203.46
224.19
243.17
259.52
272.20
280.46
284.17
283.73
279.76
272.65
262.34
248.62
231.43
211.26
189.13
166.11
142.87
119.29
94.62
67.88
38.49
6.53
-27.26
-61.85
-96.36
-130.35
-163.85
-197.26
-231.10
-265.90
-302.13
-340.17
-380.08
-421.19
-461.67
-498.34
-527.05
-543.71
-545.60
-532.38
-506.33
-471.73
-433.46
-395.73
-360.91
-329.14
-298.76
-267.00
-230.86
-187.79
-136.22
-76.06
-9.21
60.55
127.97
187.59
235.08
268.37
288.15
297.42
300.25
299.98
298.22
294.25
285.51
268.54
240.34
199.48
146.89
85.93
21.03
-42.96
-101.89
-153.16
-195.97
-231.17
-260.46
-285.48
-306.93
-325.25
-339.31
-346.22
-341.76
-321.62
-283.17
-226.68
-155.77
-76.76
0.85
67.97
118.24
149.35
162.54
160.93
148.15
127.36
101.42
70.59
35.12
-3.85
-43.94
-82.39
-117.37
-148.22
-175.13
-183.93
-164.53
-115.17
-45.01
31.19
100.87
157.16
198.23
225.08
240.89
247.54
246.63
239.78
228.92
215.71
201.07
185.03
166.62
144.70
117.06
82.84
44.12
6.59
-22.38
-36.67
-30.80
-9.01
19.52
44.40
59.08
62.67
58.80
51.74
43.34
32.51
16.92
-3.16
-24.44
-41.60
-51.04
-50.91
-42.93
-31.29
-20.56
-13.86
-11.32
-11.15
-11.18
-10.12
-7.79
-5.07
-2.89
-1.74
-1.68
-2.14
-2.64
-3.38
-5.09
-8.38
-13.32
-18.73
-22.41
-21.81
-14.78
-0.81
18.40
39.53
58.95
73.86
83.29
87.87
89.10
88.30
86.00
82.01
76.03
68.32
59.76
51.57
44.74
39.57
35.71
32.45
29.27
25.98
22.72
19.56
16.29
12.36
7.26
0.82
-6.64
-14.35
-21.42
-27.25
-31.76
-35.42
-39.08
-43.70
-50.02
-58.20
-67.54
-76.40
-82.49
-83.56
-78.11
-66.04
-48.71
-28.47
-7.95
10.78
26.47
38.79
47.97
54.47
58.78
61.27
62.21
61.76
59.96
56.88
52.62
47.46
41.79
35.98
30.25
24.62
19.04
13.47
7.92
2.34
-3.47
-9.81
-16.84
-24.24
-31.11
-36.24
-38.60
-38.02
-35.40
-32.63
-31.88
-34.86
-42.20
-53.11
-65.49
-76.45
-82.89
-82.39
-73.69
-57.09
-34.31
-8.04
18.65
43.06
63.36
78.91
90.24
98.71
105.93
113.08
120.53
127.81
134.07
138.79
142.36
146.16
152.06
161.54
174.78
190.35
205.53
217.27
223.30
222.95
217.22
208.14
197.67
186.75
174.95
160.80
142.62
119.17
89.94
54.94
14.62
-29.82
-76.08
-120.86
-160.77
-193.99
-221.28
-245.61
-270.28
-296.44
-321.66
-340.65
-347.66
-339.24
-315.71
-280.68
-239.31
-196.30
-154.84
-116.46
-81.43
-48.65
-15.68
20.56
62.32
109.54
158.95
205.08
242.39
267.15
278.86
279.87
273.85
264.17
252.89
240.78
227.89
214.14
198.74
180.58
158.02
128.99
91.64
45.78
-6.45
-59.71
-106.39
-140.48
-158.40
-160.37
-150.24
-134.19
-117.77
-105.21
-97.49
-92.95
-92.16
-95.86
-104.40
-117.20
-133.13
-149.65
-166.31
-182.74
-198.53
-218.18
-245.36
-280.52
-320.73
-361.69
-398.20
-430.20
-459.31
-487.58
-522.68
-569.50
-626.63
-686.64
-739.94
-776.61
-795.25
-798.65
-753.83
-647.67
-491.10
-314.74
-150.28
-32.09
48.49
103.14
140.48
166.45
181.74
185.49
179.99
170.66
163.04
162.61
167.93
176.30
186.00
192.09
191.82
186.26
179.31
174.90
176.85
183.54
192.45
201.98
208.94
211.77
211.71
212.04
216.05
226.37
241.09
256.17
266.90
267.76
255.41
230.50
197.62
163.52
135.34
117.07
109.79
112.10
120.57
131.50
142.19
151.22
158.12
162.98
165.54
165.58
163.04
158.10
151.26
143.17
134.47
125.53
116.40
106.92
96.97
86.63
76.34
66.74
58.39
51.44
45.56
39.99
33.94
26.91
18.95
10.60
2.62
-4.38
-10.27
-15.44
-20.72
-27.04
-34.95
-44.29
-53.84
-61.52
-64.81
-61.57
-50.80
-33.07
-10.45
14.20
38.05
59.07
76.30
89.61
99.29
105.61
108.76
108.99
106.76
102.80
97.89
92.64
87.29
81.77
75.91
69.64
63.17
56.88
51.16
46.09
41.40
36.50
30.76
23.73
15.36
6.04
-3.61
-12.94
-21.47
-29.03
-35.83
-42.34
-49.26
-57.24
-66.58
-76.85
-86.65
-93.77
-95.73
-90.66
-78.02
-58.94
-35.86
-11.73
10.82
30.14
45.62
57.35
65.76
71.21
73.98
74.34
72.64
69.36
65.02
60.10
54.97
49.81
44.76
39.85
35.14
30.60
26.17
21.71
16.98
11.71
5.71
-1.05
-8.37
-15.93
-23.32
-30.31
-36.95
-43.67
-51.12
-59.87
-69.96
-80.56
-89.89
-95.58
-95.44
-88.22
-74.18
-55.01
-33.28
-11.65
7.89
24.31
37.34
47.11
53.76
57.32
57.83
55.60
51.30
45.91
40.50
35.86
32.35
29.79
27.64
25.24
22.16
18.27
13.79
9.12
4.65
0.65
-2.89
-6.17
-9.51
-13.23
-17.66
-23.11
-29.85
-38.02
-47.29
-56.65
-64.25
-67.77
-65.12
-55.24
-38.67
-17.52
5.20
26.55
44.44
57.97
67.18
72.61
74.87
74.47
71.88
67.68
62.50
57.03
51.73
46.79
42.08
37.39
32.47
27.19
21.59
15.75
9.76
3.61
-2.70
-9.27
-16.10
-23.17
-30.37
-37.55
-44.59
-51.56
-58.74
-66.56
-75.31
-84.76
-93.85
-100.71
-103.13
-99.27
-88.43
-71.34
-50.03
-27.10
-5.01
14.53
30.69
43.37
52.75
59.08
62.52
63.31
61.90
58.94
55.28
51.68
48.62
46.22
44.29
42.55
40.75
38.79
36.56
33.93
30.62
26.30
20.81
14.25
7.06
-0.14
-6.81
-12.71
-18.01
-23.28
-29.23
-36.52
-45.34
-55.18
-64.74
-72.09
-75.18
-72.47
-63.44
-48.96
-30.88
-11.60
6.75
22.74
35.73
45.71
52.87
57.45
59.62
59.64
57.88
54.84
50.99
46.73
42.28
37.73
33.13
28.52
23.95
19.40
14.78
9.86
4.34
-2.10
-9.67
-18.44
-28.24
-38.69
-49.29
-59.52
-69.08
-77.96
-86.55
-95.40
-104.91
-114.97
-124.62
-132.08
-135.24
-132.34
-122.58
-106.58
-86.16
-63.81
-41.96
-22.37
-5.96
7.09
16.96
23.92
28.17
29.87
29.23
26.63
22.66
17.95
13.13
8.56
4.41
0.60
-3.03
-6.61
-10.29
-14.23
-18.67
-23.95
-30.34
-37.92
-46.42
-55.24
-63.52
-70.42
-75.34
-78.05
-78.83
-78.34
-77.35
-76.35
-75.17
-72.87
-67.93
-58.87
-44.91
-26.45
-5.13
16.79
37.06
54.18
67.61
77.48
84.24
88.20
89.47
88.19
84.72
79.75
74.22
69.00
64.69
61.47
59.12
57.17
55.11
52.55
49.26
45.31
40.92
36.41
32.07
28.01
24.13
20.18
15.89
11.02
5.44
-0.87
-7.76
-14.73
-20.84
-24.62
-24.47
-19.16
-8.51
6.33
23.13
39.22
52.40
61.55
66.79
69.04
69.36
68.44
66.42
63.12
58.45
52.67
46.60
41.29
37.71
36.31
36.89
38.59
40.20
40.47
38.47
33.70
26.13
16.05
4.00
-9.38
-23.38
-37.39
-51.04
-64.30
-77.45
-90.85
-104.47
-117.53
-128.33
-134.63
-134.38
-126.47
-111.34
-90.89
-67.91
-45.18
-24.76
-7.68
5.91
16.28
23.71
28.31
30.11
29.33
26.48
22.41
18.06
14.16
11.07
8.66
6.49
4.13
1.28
-2.00
-5.40
-8.51
-11.05
-12.97
-14.50
-16.01
-17.86
-20.32
-23.58
-27.82
-33.28
-40.06
-47.90
-55.82
-62.14
-64.73
-61.75
-52.34
-37.07
-17.82
2.82
22.33
38.95
51.81
60.80
66.25
68.66
68.50
66.35
62.83
58.50
53.82
49.01
44.07
38.88
33.39
27.71
22.14
17.05
12.71
9.18
6.21
3.36
0.10
-4.03
-9.16
-15.19
-21.67
-28.07
-33.96
-39.23
-44.21
-49.68
-56.46
-64.99
-74.85
-84.57
-91.90
-94.44
-90.52
-79.80
-63.42
-43.56
-22.74
-3.04
14.32
28.90
40.71
49.75
55.87
58.86
58.80
56.25
52.28
48.09
44.58
42.07
40.27
38.65
36.78
34.63
32.55
30.99
30.19
30.05
30.07
29.55
27.81
24.43
19.41
13.19
6.55
0.30
-5.01
-9.33
-13.16
-17.34
-22.81
-30.26
-39.88
-51.13
-62.74
-72.78
-79.02
-79.54
-73.25
-60.45
-42.71
-22.51
-2.47
15.42
30.08
41.29
49.30
54.45
56.95
56.95
54.74
50.92
46.30
41.80
38.07
35.37
33.46
31.74
29.51
26.31
22.05
17.06
11.84
6.80
2.00
-2.86
-8.32
-14.87
-22.61
-31.19
-39.91
-47.95
-54.71
-60.04
-64.22
-67.85
-71.70
-76.47
-82.57
-89.94
-97.82
-104.72
-108.66
-107.68
-100.52
-87.18
-69.01
-48.30
-27.45
-8.33
8.20
22.11
33.69
43.19
50.57
55.69
58.56
59.57
59.46
59.02
58.79
58.89
58.97
58.48
56.91
54.05
50.14
45.69
41.30
37.32
33.70
30.01
25.68
20.29
13.87
6.84
-0.12
-6.44
-11.83
-16.43
-20.75
-25.44
-31.17
-38.37
-47.06
-56.61
-65.66
-72.26
-74.35
-70.33
-59.76
-43.49
-23.47
-2.06
18.64
37.25
53.09
65.86
75.37
81.34
83.53
82.04
77.49
71.02
63.99
57.57
52.43
48.63
45.76
43.26
40.69
37.92
35.14
32.66
30.68
29.11
27.55
25.40
22.09
17.34
11.27
4.37
-2.71
-9.37
-15.18
-19.99
-23.87
-27.05
-29.99
-33.37
-37.97
-44.38
-52.50
-61.21
-68.45
-71.75
-69.16
-60.06
-45.40
-27.37
-8.51
9.11
24.44
37.27
47.84
56.31
62.55
66.29
67.45
66.38
63.89
60.96
58.30
56.09
53.99
51.38
47.73
42.91
37.24
31.33
25.87
21.32
17.75
14.89
12.14
8.75
4.00
-2.58
-11.11
-21.24
-32.25
-43.34
-53.83
-63.38
-72.01
-80.05
-88.01
-96.41
-105.62
-115.54
-125.42
-133.70
-138.31
-137.27
-129.37
-114.83
-95.24
-73.13
-51.05
-30.83
-13.31
1.47
13.66
23.17
29.62
32.60
32.15
29.00
24.46
19.96
16.56
14.58
13.65
12.99
11.91
10.14
7.96
5.96
4.77
4.65
5.45
6.62
7.52
7.68
6.95
5.51
3.74
1.98
0.41
-1.02
-2.59
-4.74
-8.07
-13.15
-20.35
-29.56
-39.93
-49.83
-57.21
-60.16
-57.46
-49.12
-36.27
-20.85
-4.95
9.68
21.88
30.97
36.58
38.47
36.66
31.55
24.12
15.75
7.97
1.95
-1.75
-3.24
-3.07
-1.85
-0.07
2.00
4.11
5.91
6.85
6.39
4.19
0.27
-4.90
-10.69
-16.44
-21.74
-26.47
-30.85
-35.31
-40.53
-47.21
-55.90
-66.54
-78.22
-89.03
-96.49
-98.25
-92.93
-80.68
-63.16
-42.89
-22.43
-3.65
12.50
25.88
36.63
44.86
50.56
53.76
54.73
54.10
52.75
51.53
51.01
51.36
52.28
53.23
53.62
52.97
51.08
47.97
43.91
39.18
34.06
28.72
23.27
17.75
12.10
6.14
-0.40
-7.77
-15.84
-23.86
-30.40
-33.63
-31.95
-24.60
-12.07
4.03
21.46
38.03
52.16
63.11
70.74
75.28
76.96
75.95
72.42
66.78
59.75
52.36
45.64
40.29
36.49
33.78
31.32
28.25
24.06
18.82
13.01
7.31
2.23
-2.16
-6.17
-10.39
-15.35
-21.51
-29.05
-37.96
-47.83
-57.71
-66.06
-70.83
-70.12
-62.79
-49.03
-30.42
-9.45
11.35
30.07
45.76
58.29
67.81
74.46
78.17
78.91
76.83
72.45
66.61
60.19
53.98
48.46
43.76
39.75
36.05
32.13
27.45
21.64
14.62
6.65
-1.77
-10.07
-17.92
-25.29
-32.45
-39.84
-47.94
-57.08
-67.33
-78.31
-89.07
-97.99
-103.05
-102.34
-94.69
-80.22
-60.42
-37.79
-15.10
5.38
22.30
35.22
44.36
50.14
52.98
53.29
51.66
48.84
45.79
43.26
41.65
40.80
40.18
39.23
37.70
35.75
33.80
32.19
30.87
29.34
26.83
22.65
16.61
9.05
0.76
-7.29
-14.37
-20.23
-25.11
-29.67
-34.76
-41.17
-49.35
-59.13
-69.52
-78.69
-84.24
-83.92
-76.34
-61.63
-41.44
-18.43
4.60
25.55
43.31
57.66
68.65
76.27
80.33
80.72
77.83
72.67
66.71
61.39
57.66
55.69
54.91
54.37
53.21
51.00
47.84
44.20
40.64
37.38
34.31
30.96
26.75
21.33
14.72
7.41
0.12
-6.45
-11.90
-16.31
-20.15
-24.08
-28.76
-34.63
-41.91
-50.43
-59.55
-68.03
-74.11
-75.80
-71.51
-60.68
-44.10
-23.77
-2.33
17.79
34.89
48.23
57.71
63.55
66.02
65.40
62.16
57.04
51.07
45.30
40.55
37.16
34.88
33.10
31.07
28.25
24.50
20.07
15.43
10.92
6.60
2.17
-2.84
-8.80
-15.74
-23.21
-30.46
-36.74
-41.64
-45.22
-48.01
-50.82
-54.52
-59.76
-66.79
-75.28
-84.20
-91.86
-96.20
-95.33
-88.20
-74.95
-57.02
-36.65
-16.28
2.22
17.70
29.74
38.30
43.46
45.40
44.42
41.15
36.51
31.59
27.25
23.99
21.82
20.41
19.34
18.29
17.20
16.12
15.14
14.11
12.68
10.36
6.77
1.86
-4.07
-10.38
-16.38
-21.62
-25.97
-29.73
-33.46
-37.88
-43.55
-50.62
-58.51
-65.86
-70.70
-70.98
-65.35
-53.72
-37.46
-18.95
-0.88
14.66
26.55
34.65
39.44
41.52
41.34
39.22
35.48
30.63
25.45
20.77
17.27
15.23
14.46
14.36
14.20
13.33
11.40
8.38
4.52
0.11
-4.56
-9.37
-14.23
-19.15
-24.06
-28.96
-33.96
-39.36
-45.61
-53.00
-61.34
-69.63
-76.03
-78.33
-74.70
-64.41
-48.27
-28.43
-7.68
11.47
27.39
39.49
47.94
53.18
55.59
55.44
53.09
49.10
44.31
39.59
35.62
32.67
30.57
28.86
27.06
24.76
21.71
17.85
13.21
7.92
2.19
-3.71
-9.57
-15.30
-21.03
-27.03
-33.70
-41.37
-50.28
-60.40
-71.29
-81.90
-90.55
-95.16
-93.83
-85.53
-70.67
-51.09
-29.49
-8.58
9.81
24.93
36.94
46.24
53.05
57.31
58.89
58.01
55.33
51.77
48.18
45.05
42.38
39.92
37.41
34.80
32.14
29.50
26.77
23.61
19.69
14.78
8.96
2.54
-4.07
-10.54
-16.73
-22.80
-29.15
-36.33
-44.86
-54.98
-66.26
-77.45
-86.54
-91.27
-89.74
-81.18
-66.24
-46.87
-25.64
-4.99
13.38
28.61
40.52
49.18
54.67
57.10
56.78
54.42
51.02
47.62
44.93
43.11
41.81
40.40
38.42
35.80
32.82
29.87
27.15
24.42
21.10
16.58
10.45
2.84
-5.74
-14.52
-22.83
-30.29
-36.93
-43.12
-49.49
-56.77
-65.59
-76.20
-88.12
-99.93
-109.40
-113.96
-111.50
-101.12
-83.55
-60.91
-36.08
-11.77
10.12
28.71
43.84
55.69
64.31
69.69
71.90
71.34
68.93
65.79
62.90
60.72
59.11
57.54
55.42
52.47
48.81
44.82
40.82
36.83
32.51
27.30
20.70
12.58
3.29
-6.42
-15.65
-23.69
-30.30
-35.78
-40.94
-46.78
-54.23
-63.79
-75.24
-87.39
-98.18
-105.03
-105.53
-98.28
-83.44
-62.78
-39.18
-15.63
5.57
23.34
37.59
48.77
57.26
63.15
66.46
67.39
66.61
65.22
64.23
64.27
65.20
66.28
66.53
65.23
62.23
57.96
53.19
48.55
44.26
40.00
35.14
28.98
21.18
11.89
1.76
-8.32
-17.55
-25.49
-32.21
-38.27
-44.49
-51.75
-60.79
-71.89
-84.61
-97.60
-108.63
-115.05
-114.51
-105.72
-88.98
-66.18
-40.17
-13.96
10.19
31.00
48.19
61.87
72.20
79.15
82.65
82.88
80.38
76.17
71.41
67.15
63.96
61.87
60.42
58.91
56.75
53.62
49.57
44.92
40.03
35.08
30.01
24.45
17.92
10.05
0.83
-9.38
-19.92
-30.07
-39.29
-47.41
-54.59
-61.21
-67.78
-74.82
-82.85
-92.25
-102.97
-114.23
-124.33
-130.83
-131.19
-123.63
-107.90
-85.45
-59.01
-31.74
-6.32
15.66
33.65
47.81
58.53
66.10
70.76
72.79
72.77
71.59
70.17
69.25
69.08
69.39
69.52
68.76
66.65
63.15
58.65
53.77
49.04
44.71
40.60
36.13
30.64
23.60
14.98
5.22
-4.83
-14.28
-22.55
-29.50
-35.50
-41.16
-47.22
-54.31
-62.89
-73.06
-84.33
-95.44
-104.30
-108.39
-105.50
-94.47
-75.79
-51.56
-24.84
1.25
24.42
43.53
58.42
69.47
77.07
81.49
82.94
81.85
79.03
75.51
72.30
69.99
68.52
67.31
65.53
62.60
58.42
53.49
48.55
44.24
40.69
37.37
33.36
27.75
20.03
10.36
-0.52
-11.68
-22.28
-31.90
-40.50
-48.37
-55.90
-63.51
-71.59
-80.34
-89.54
-98.31
-105.02
-107.62
-104.19
-93.78
-76.83
-55.15
-31.36
-8.10
12.64
29.74
42.73
51.57
56.36
57.41
55.34
51.22
46.39
42.06
39.03
37.39
36.61
35.85
34.37
31.81
28.36
24.53
20.90
17.71
14.74
11.36
6.86
0.75
-6.91
-15.54
-24.18
-31.96
-38.34
-43.37
-47.64
-52.12
-57.82
-65.46
-75.05
-85.61
-95.21
-101.26
-101.31
-93.85
-78.94
-58.29
-34.67
-11.06
10.23
27.99
41.98
52.46
59.71
63.86
65.06
63.72
60.72
57.21
54.26
52.47
51.73
51.35
50.45
48.38
45.05
40.99
37.00
33.75
31.34
29.19
26.26
21.58
14.73
6.14
-3.13
-11.78
-18.92
-24.37
-28.71
-32.98
-38.30
-45.49
-54.89
-66.17
-78.18
-88.89
-95.73
-96.17
-88.57
-72.92
-51.00
-25.82
-0.65
22.02
40.93
55.86
67.08
74.81
79.05
79.81
77.56
73.27
68.23
63.58
59.91
57.03
54.32
51.00
46.66
41.44
35.96
31.01
27.09
24.12
21.38
17.77
12.28
4.50
-5.17
-15.67
-25.73
-34.38
-41.37
-47.19
-52.74
-59.09
-67.07
-77.04
-88.74
-101.06
-112.12
-119.51
-120.87
-114.60
-100.51
-80.02
-55.60
-30.16
-6.04
15.31
33.42
48.32
60.11
68.78
74.28
76.86
77.23
76.53
75.91
76.11
77.12
78.18
78.26
76.53
72.85
67.76
62.24
57.06
52.43
47.86
42.38
35.17
25.87
14.85
2.98
-8.74
-19.59
-29.35
-38.25
-46.87
-55.85
-65.75
-76.91
-89.19
-101.76
-112.97
-120.52
-122.01
-115.73
-101.40
-80.39
-55.39
-29.49
-5.31
15.63
32.81
46.33
56.29
62.65
65.32
64.58
61.26
56.76
52.52
49.56
48.07
47.50
46.94
45.63
43.34
40.40
37.40
34.79
32.57
30.23
27.00
22.22
15.65
7.55
-1.38
-10.35
-18.64
-25.91
-32.24
-38.16
-44.52
-52.26
-61.93
-73.29
-84.97
-94.62
-99.43
-97.08
-86.59
-68.79
-46.09
-21.73
1.20
20.52
35.20
45.22
51.04
53.29
52.63
49.74
45.43
40.61
36.07
32.30
29.41
27.16
25.20
23.23
21.15
18.93
16.53
13.71
10.09
5.26
-0.98
-8.43
-16.57
-24.67
-32.08
-38.53
-44.19
-49.68
-55.89
-63.73
-73.81
-86.11
-99.53
-111.87
-120.09
-121.20
-113.24
-96.11
-71.68
-43.19
-14.22
12.32
34.70
52.34
65.27
73.81
78.36
79.46
77.91
74.76
71.02
67.47
64.47
62.12
60.39
59.37
59.29
60.39
62.67
65.78
68.98
71.26
71.66
69.47
64.54
57.39
49.23
41.63
35.99
32.96
32.01
31.50
29.28
23.61
14.10
2.02
-10.14
-19.63
-24.51
-24.23
-19.55
-11.93
-2.84
6.64
15.66
23.28
28.16
28.78
23.85
13.07
-2.51
-20.62
-38.38
-53.26
-63.85
-70.24
-73.70
-76.04
-78.65
-81.84
-84.73
-85.64
-82.93
-75.75
-64.48
-50.71
-36.95
-25.90
-19.90
-20.20
-26.30
-35.77
-44.76
-49.19
-46.66
-38.01
-27.55
-21.61
-25.77
-42.04
-67.54
-95.47
-118.04
-129.99
-130.61
-123.58
-114.65
-108.57
-106.94
-107.97
-108.03
-103.87
-94.32
-80.88
-67.13
-57.45
-55.74
-64.30
-83.26
-110.41
-141.46
-171.05
-193.93
-206.42
-207.26
-197.54
-179.68
-156.38
-129.65
-100.47
-68.97
-34.96
1.44
39.25
76.38
109.98
136.37
151.92
154.61
145.27
128.09
109.54
96.24
92.77
101.29
120.38
146.17
174.28
201.28
225.36
245.63
261.10
270.03
271.77
265.84
252.67
234.35
214.79
198.81
190.52
191.80
201.70
218.85
239.99
260.59
276.16
283.46
281.43
271.05
254.75
223.69
175.73
115.56
52.95
-2.09
-43.80
-70.96
-85.44
-90.59
-90.31
-86.38
-80.29
-73.76
-67.81
-62.77
-58.26
-53.86
-49.82
-47.22
-46.16
-47.06
-51.42
-59.88
-72.08
-86.81
-102.71
-118.85
-135.20
-151.37
-163.98
-173.56
-181.48
-189.30
-197.94
-206.83
-213.17
-212.37
-199.16
-170.72
-129.16
-80.61
-33.44
4.69
29.29
39.84
38.71
29.45
15.10
-2.40
-20.75
-36.96
-47.60
-49.96
-43.36
-29.73
-12.93
2.53
12.84
16.61
14.78
9.91
4.86
1.82
1.30
3.20
6.65
10.60
14.45
17.97
21.16
23.98
26.39
28.33
29.84
30.88
31.24
30.56
28.41
24.46
18.79
12.02
5.27
-0.09
-3.05
-3.23
-1.08
2.26
5.21
6.05
3.37
-3.47
-13.61
-24.58
-32.64
-33.79
-25.34
-7.30
17.25
42.92
63.81
75.61
76.66
68.08
53.00
35.24
18.23
4.40
-4.91
-10.15
-12.11
-12.37
-12.87
-15.34
-20.68
-28.77
-38.59
-48.73
-58.03
-65.76
-71.98
-77.27
-82.43
-88.23
-95.14
-103.18
-111.77
-119.58
-124.80
-125.92
-122.63
-116.34
-109.77
-105.60
-104.76
-105.39
-103.10
-92.68
-70.62
-36.89
4.69
47.85
86.28
115.69
134.73
144.49
147.26
145.19
139.78
131.84
121.91
110.57
98.56
86.58
75.10
64.28
53.98
44.10
34.81
26.71
20.82
18.21
19.46
24.02
30.10
34.98
35.98
31.43
21.26
6.71
-10.52
-29.07
-48.00
-66.24
-81.74
-91.36
-91.81
-81.17
-60.07
-31.61
0.06
31.43
60.79
87.78
111.91
131.23
142.03
140.17
123.15
91.72
50.07
4.65
-37.72
-71.46
-93.11
-101.39
-96.87
-81.67
-59.23
-34.00
-10.81
6.05
13.83
11.96
2.11
-12.48
-28.08
-41.65
-51.72
-58.48
-63.10
-66.63
-68.88
-68.15
-61.72
-46.93
-22.42
10.93
49.78
88.82
121.83
143.17
149.14
139.01
115.34
83.41
49.92
21.31
2.30
-5.05
-1.42
10.22
25.56
40.00
49.52
51.41
44.60
29.54
7.85
-18.27
-46.44
-74.42
-100.18
-122.03
-138.63
-149.13
-153.13
-150.64
-141.87
-127.10
-106.63
-80.79
-50.03
-14.98
23.46
64.05
105.14
144.57
179.65
207.15
223.74
226.76
215.14
190.22
155.76
117.26
80.48
49.83
27.28
12.17
2.21
-5.16
-11.49
-17.01
-21.05
-23.12
-23.52
-23.41
-24.20
-26.69
-30.52
-34.14
-35.39
-32.09
-22.67
-6.46
16.01
42.69
69.77
91.88
103.26
99.63
80.03
47.84
10.05
-25.14
-51.43
-66.80
-74.10
-79.30
-88.61
-105.56
-129.66
-156.78
-181.10
-197.22
-201.85
-194.17
-175.50
-148.50
-116.57
-83.54
-53.51
-30.40
-17.36
-15.74
-24.34
-39.26
-54.68
-64.43
-63.84
-51.17
-27.95
1.84
33.46
62.98
88.24
108.74
124.99
137.60
146.95
153.40
157.77
161.55
166.41
173.21
181.00
186.68
185.58
172.91
145.58
103.54
50.14
-8.57
-65.44
-113.88
-149.15
-169.06
-173.94
-166.18
-149.70
-129.24
-109.51
-94.23
-85.20
-81.82
-81.44
-80.39
-75.40
-64.88
-49.32
-30.76
-11.61
6.45
22.94
38.17
52.35
64.99
74.91
81.01
83.18
82.74
81.96
82.78
85.55
88.34
87.50
79.20
61.25
34.25
1.66
-31.35
-59.66
-79.58
-89.54
-89.91
-82.31
-69.00
-52.59
-36.01
-22.32
-14.07
-12.33
-15.93
-21.48
-24.38
-20.64
-8.45
11.15
34.74
58.09
77.80
92.30
101.89
107.98
112.06
114.94
116.72
117.06
115.85
113.54
111.14
109.89
110.82
114.48
120.74
128.79
137.01
143.05
143.93
