1660926696.00
64.000000
-0.00
-0.00
-0.00
-0.00
-0.00
-0.00
-0.00
-0.00
-0.00
-0.00
0.00
0.01
0.01
-0.00
-0.03
-0.05
-0.05
0.00
0.13
0.36
0.66
1.01
1.37
1.72
2.06
2.40
2.79
3.25
3.81
4.44
5.09
5.73
6.32
6.90
7.52
8.26
9.15
10.26
11.49
12.70
13.80
14.75
15.64
16.65
18.01
19.84
22.34
25.27
28.37
31.34
34.06
36.67
39.51
43.02
47.49
53.23
59.83
66.74
73.43
79.64
85.60
91.89
99.21
108.01
118.63
130.39
142.43
153.94
164.60
174.76
185.27
197.52
209.98
224.55
241.43
260.54
280.81
299.73
313.53
317.99
309.81
287.77
253.62
210.58
162.64
113.15
64.21
16.78
-28.73
-71.95
-112.46
-149.87
-184.79
-218.52
-252.72
-288.52
-325.58
-361.55
-392.33
-413.39
-421.24
-415.02
-396.84
-370.93
-341.96
-313.42
-286.86
-262.18
-238.71
-216.03
-194.50
-174.84
-157.52
-142.29
-128.33
-114.67
-100.71
-86.47
-72.54
-59.75
-48.76
-39.70
-32.21
-25.59
-19.18
-12.64
-6.09
0.04
5.27
9.30
12.20
14.35
16.22
18.19
20.36
22.57
24.54
26.00
26.82
27.11
27.06
26.91
26.78
26.67
26.44
25.98
25.22
24.21
23.06
21.89
20.82
19.90
19.16
18.63
18.28
18.07
17.90
17.66
17.22
16.56
15.72
14.83
14.02
13.41
13.02
12.85
12.83
12.93
13.06
13.16
13.13
12.89
12.38
11.67
10.84
10.04
9.38
8.89
8.59
8.45
8.43
8.48
8.55
8.61
8.61
8.51
8.32
8.08
7.84
7.62
7.46
7.34
7.22
7.07
6.85
6.56
6.23
5.91
5.65
5.42
5.15
4.78
4.25
3.59
2.90
2.28
1.80
1.48
1.22
0.93
0.52
-0.03
-0.67
-1.32
-1.94
-2.51
-3.09
-3.73
-4.46
-5.25
-5.99
-6.58
-6.95
-7.12
-7.21
-7.36
-7.64
-8.04
-8.47
-8.78
-8.89
-8.80
-8.60
-8.39
-8.17
-7.93
-7.58
-7.04
-6.31
-5.46
-4.62
-3.87
-3.27
-2.81
-2.44
-2.07
-1.67
-1.21
-0.71
-0.21
0.26
0.69
1.10
1.49
1.85
2.18
2.44
2.61
2.70
2.76
2.85
2.97
3.10
3.18
3.15
3.04
2.92
2.88
2.95
3.11
3.24
3.22
2.98
2.60
2.23
2.02
2.07
2.36
2.77
3.20
3.60
3.95
4.27
4.54
4.70
4.67
4.44
4.08
3.70
3.44
3.36
3.44
3.61
3.77
3.87
3.87
3.81
3.71
3.59
3.48
3.43
3.45
3.56
3.73
3.88
3.92
3.81
3.52
3.12
2.68
2.30
2.04
1.92
1.91
1.94
1.95
1.89
1.77
1.64
1.55
1.57
1.73
2.02
2.36
2.67
2.85
2.86
2.67
2.32
1.86
1.36
0.88
0.47
0.18
0.02
-0.03
0.04
0.22
0.50
0.86
1.25
1.61
1.89
2.03
2.01
1.86
1.64
1.46
1.38
1.44
1.58
1.72
1.79
1.74
1.63
1.51
1.45
1.44
1.45
1.44
1.43
1.46
1.59
1.79
1.96
2.01
1.87
1.58
1.26
1.04
0.96
0.95
0.89
0.67
0.30
-0.11
-0.44
-0.59
-0.53
-0.33
-0.07
0.18
0.38
0.52
0.59
0.59
0.52
0.39
0.24
0.13
0.10
0.16
0.28
0.40
0.48
0.49
0.46
0.43
0.42
0.48
0.62
0.82
1.06
1.27
1.36
1.26
0.94
0.45
-0.10
-0.52
-0.68
-0.52
-0.07
0.52
1.10
1.55
1.81
1.88
1.81
1.65
1.40
1.06
0.64
0.22
-0.11
-0.24
-0.12
0.22
0.66
1.05
1.26
1.24
0.99
0.61
0.20
-0.13
-0.30
-0.29
-0.15
0.09
0.36
0.65
0.93
1.16
1.27
1.17
0.84
0.37
-0.07
-0.34
-0.36
-0.20
0.02
0.18
0.23
0.24
0.28
0.38
0.50
0.55
0.49
0.38
0.30
0.34
0.49
0.64
0.69
0.56
0.31
0.02
-0.18
-0.23
-0.13
0.08
0.31
0.53
0.70
0.82
0.88
0.89
0.88
0.88
0.90
0.94
0.94
0.82
0.57
0.20
-0.20
-0.52
-0.67
-0.64
-0.45
-0.19
0.08
0.33
0.56
0.77
0.95
1.03
0.97
0.77
0.46
0.14
-0.08
-0.15
-0.05
0.13
0.33
0.45
0.48
0.46
0.44
0.47
0.56
0.65
0.70
0.65
0.51
0.30
0.08
-0.11
-0.23
-0.26
-0.21
-0.13
-0.05
-0.01
-0.02
-0.05
-0.02
0.12
0.38
0.68
0.92
1.00
0.92
0.73
0.51
0.31
0.16
0.06
0.03
0.08
0.22
0.38
0.46
0.39
0.16
-0.16
-0.43
-0.54
-0.46
-0.28
-0.11
-0.05
-0.13
-0.29
-0.47
-0.61
-0.72
-0.83
-0.95
-1.09
-1.23
-1.28
-1.19
-0.90
-0.44
0.12
0.64
0.98
1.06
0.91
0.62
0.32
0.14
0.09
0.15
0.28
0.43
0.64
0.91
1.26
1.60
1.81
1.79
1.47
0.91
0.25
-0.33
-0.67
-0.67
-0.37
0.12
0.61
0.92
0.96
0.73
0.36
-0.03
-0.33
-0.50
-0.56
-0.56
-0.54
-0.51
-0.47
-0.42
-0.39
-0.38
-0.40
-0.40
-0.32
-0.11
0.24
0.67
1.10
1.41
1.52
1.40
1.06
0.56
0.01
-0.47
-0.81
-0.93
-0.85
-0.64
-0.40
-0.23
-0.17
-0.18
-0.19
-0.13
0.03
0.23
0.39
0.45
0.37
0.21
0.04
-0.08
-0.14
-0.18
-0.27
-0.44
-0.70
-1.00
-1.28
-1.47
-1.52
-1.38
-0.99
-0.35
0.51
1.46
2.34
2.95
3.16
2.88
2.16
1.16
0.07
-0.89
-1.53
-1.74
-1.47
-0.78
0.18
1.21
2.10
2.67
2.85
2.62
2.04
1.24
0.34
-0.53
-1.26
-1.75
-1.94
-1.81
-1.41
-0.83
-0.18
0.37
0.69
0.69
0.35
-0.23
-0.88
-1.38
-1.57
-1.38
-0.90
-0.31
0.20
0.52
0.63
0.59
0.51
0.44
0.39
0.33
0.24
0.13
0.07
0.09
0.24
0.50
0.78
1.00
1.08
1.01
0.81
0.53
0.20
-0.16
-0.54
-0.86
-1.02
-0.95
-0.59
-0.04
0.52
0.86
0.85
0.50
-0.03
-0.54
-0.87
-0.98
-0.95
-0.87
-0.81
-0.76
-0.63
-0.40
-0.04
0.36
0.70
0.91
0.95
0.87
0.73
0.57
0.41
0.23
0.02
-0.22
-0.45
-0.64
-0.79
-0.92
-1.04
-1.18
-1.33
-1.44
-1.48
-1.46
-1.42
-1.45
-1.61
-1.87
-2.12
-2.26
-2.22
-2.09
-2.00
-2.13
-2.53
-3.12
-3.71
-4.11
-4.25
-4.21
-4.26
-4.70
-5.75
-7.40
-9.38
-11.22
-12.43
-12.71
-12.19
-11.39
-11.08
-11.88
-13.96
-16.82
-19.43
-20.72
-20.08
-17.77
-15.01
-13.49
-14.71
-19.22
-26.23
-33.84
-39.70
-42.06
-40.42
-35.80
-30.29
-26.24
-25.42
-28.22
-33.12
-36.69
-33.94
-19.68
9.59
53.71
107.62
161.86
204.89
226.57
221.60
191.27
142.90
87.16
34.51
-7.67
-36.30
-51.97
-57.35
-55.56
-49.20
-40.34
-30.81
-22.50
-17.08
-15.42
-17.04
-20.14
-22.32
-21.63
-17.52
-11.10
-4.57
-0.28
0.38
-2.46
-7.30
-11.94
-14.55
-14.28
-11.59
-7.86
-4.68
-3.23
-3.86
-6.16
-9.15
-11.59
-12.30
-10.47
-5.99
0.37
7.01
12.05
13.98
12.38
8.08
2.80
-1.69
-4.31
-5.02
-4.57
-3.88
-3.50
-3.42
-3.24
-2.63
-1.63
-0.60
-0.00
-0.15
-0.94
-1.95
-2.65
-2.67
-1.96
-0.85
0.21
0.79
0.75
0.22
-0.44
-0.89
-0.91
-0.51
0.10
0.67
0.96
0.82
0.27
-0.62
-1.67
-2.63
-3.22
-3.21
-2.54
-1.35
-0.00
1.10
1.66
1.63
1.16
0.56
0.04
-0.31
-0.55
-0.77
-0.98
-1.09
-0.99
-0.61
-0.00
0.66
1.21
1.55
1.68
1.64
1.48
1.22
0.85
0.37
-0.20
-0.82
-1.44
-2.06
-2.69
-3.29
-3.78
-4.05
-4.07
-3.90
-3.68
-3.57
-3.61
-3.70
-3.69
-3.47
-3.09
-2.72
-2.55
-2.73
-3.18
-3.68
-3.95
-3.79
-3.20
-2.40
-1.67
-1.30
-1.45
-2.09
-3.09
-4.15
-4.91
-4.93
-3.82
-1.37
2.32
6.68
10.91
14.10
15.67
15.53
14.08
12.01
9.94
8.20
6.85
5.77
4.87
4.17
3.83
3.91
4.35
4.90
5.29
5.36
5.15
4.84
4.64
4.62
4.63
4.46
3.89
2.85
1.45
-0.11
-1.63
-2.98
-4.06
-4.81
-5.19
-5.18
-4.86
-4.39
-3.96
-3.75
-3.85
-4.21
-4.73
-5.24
-5.64
-5.84
-5.84
-5.66
-5.33
-4.92
-4.50
-4.14
-3.90
-3.81
-3.85
-3.93
-3.96
-3.86
-3.58
-3.15
-2.62
-2.08
-1.61
-1.25
-1.03
-0.91
-0.82
-0.66
-0.34
0.14
0.77
1.43
2.03
2.48
2.75
2.83
2.80
2.73
2.70
2.77
2.92
3.08
3.13
3.02
2.77
2.46
2.20
2.06
2.03
2.04
2.01
1.90
1.78
1.70
1.72
1.83
1.94
1.96
1.83
1.58
1.28
1.02
0.85
0.73
0.60
0.40
0.15
-0.08
-0.20
-0.17
-0.07
-0.02
-0.08
-0.25
-0.40
-0.38
-0.12
0.30
0.73
0.98
0.98
0.83
0.71
0.82
1.23
1.83
2.35
2.55
2.25
1.47
0.38
-0.78
-1.81
-2.55
-2.94
-2.95
-2.53
-1.72
-0.63
0.53
1.50
2.05
2.14
1.89
1.57
1.45
1.66
2.15
2.73
3.18
3.34
3.16
2.65
1.88
0.92
-0.16
-1.28
-2.32
-3.11
-3.56
-3.64
-3.50
-3.31
-3.25
-3.40
-3.68
-3.97
-4.14
-4.18
-4.11
-4.05
-4.06
-4.14
-4.26
-4.36
-4.45
-4.57
-4.76
-5.03
-5.33
-5.58
-5.76
-5.91
-6.13
-6.48
-6.93
-7.40
-7.75
-7.92
-7.97
-8.07
-8.36
-8.90
-9.61
-10.28
-10.65
-10.50
-9.61
-7.87
-5.29
-2.07
1.43
4.74
7.45
9.37
10.54
11.18
11.52
11.67
11.56
11.05
10.06
8.61
6.85
4.96
3.07
1.24
-0.51
-2.18
-3.71
-5.04
-6.10
-6.85
-7.26
-7.31
-7.02
-6.51
-5.94
-5.53
-5.44
-5.64
-5.89
-5.79
-5.01
-3.48
-1.54
0.14
0.84
0.12
-1.95
-4.73
-7.33
-8.95
-9.35
-8.95
-8.62
-9.29
-11.47
-14.94
-18.86
-22.15
-23.99
-24.21
-23.29
-22.20
-21.90
-23.21
-26.69
-32.64
-40.82
-49.76
-56.51
-57.13
-48.17
-28.55
-0.73
29.73
56.16
73.46
79.90
77.24
69.16
59.17
49.28
39.88
30.78
22.25
15.49
12.08
13.11
18.45
26.72
35.76
43.38
48.10
49.56
48.45
46.09
43.77
42.29
41.75
41.84
42.26
42.97
43.91
44.57
43.69
39.55
30.73
17.11
0.25
-17.00
-31.56
-41.38
-46.04
-46.62
-44.84
-42.19
-39.47
-36.88
-34.45
-32.33
-30.86
-30.33
-30.73
-31.69
-32.65
-33.10
-32.86
-32.09
-31.22
-30.70
-30.75
-31.26
-31.87
-32.14
-31.85
-31.16
-30.55
-30.62
-31.76
-33.95
-36.78
-39.61
-42.01
-43.95
-45.85
-48.28
-51.57
-55.48
-59.12
-61.20
-60.43
-55.83
-46.89
-33.74
-17.12
1.52
20.13
36.33
48.05
54.10
54.65
51.12
45.61
40.10
35.73
32.65
30.30
27.97
25.25
22.13
18.86
15.59
12.26
8.54
4.07
-1.28
-7.22
-13.12
-18.20
-21.94
-24.27
-25.69
-27.08
-29.43
-33.51
-39.56
-47.11
-54.94
-61.30
-64.32
-62.66
-55.97
-45.15
-32.04
-18.81
-7.27
1.64
7.95
12.32
15.70
18.84
22.26
26.15
30.53
35.21
39.83
43.91
46.91
48.51
48.69
47.75
46.22
44.63
43.45
42.89
43.03
43.74
44.78
45.81
46.44
46.37
45.44
43.77
41.66
39.47
37.45
35.70
34.11
32.54
30.94
29.42
28.16
27.33
26.93
26.80
26.71
26.47
26.10
25.80
25.88
26.54
27.77
29.29
30.70
31.64
31.98
31.96
32.03
32.75
34.61
37.85
42.28
47.19
51.24
52.71
49.92
41.83
28.48
11.17
-7.84
-26.01
-41.20
-52.18
-58.75
-61.50
-61.39
-59.43
-56.47
-53.20
-50.15
-47.74
-46.24
-45.68
-45.83
-46.23
-46.40
-46.01
-45.08
-43.98
-43.30
-43.50
-44.77
-46.87
-49.25
-51.33
-52.76
-53.61
-54.34
-55.57
-57.72
-60.80
-64.30
-67.36
-68.87
-67.70
-62.83
-53.47
-39.41
-21.25
-0.64
20.02
38.10
51.61
59.71
62.87
62.42
59.84
56.23
52.14
47.76
43.32
39.16
35.71
33.16
31.36
29.83
27.98
25.38
21.92
17.88
13.77
10.30
8.16
7.87
9.58
12.95
17.25
21.52
24.89
26.90
27.52
27.09
26.09
24.85
23.51
22.03
20.34
18.45
16.47
14.60
12.96
11.56
10.28
8.93
7.33
5.44
3.37
1.37
-0.28
-1.40
-2.00
-2.20
-2.23
-2.25
-2.33
-2.40
-2.41
-2.30
-2.10
-1.89
-1.74
-1.69
-1.76
-1.92
-2.17
-2.46
-2.72
-2.87
-2.82
-2.53
-2.06
-1.53
-1.09
-0.82
-0.75
-0.82
-0.96
-1.11
-1.23
-1.29
-1.29
-1.21
-1.07
-0.87
-0.66
-0.47
-0.34
-0.29
-0.34
-0.50
-0.74
-1.03
-1.27
-1.38
-1.34
-1.17
-0.93
-0.72
-0.61
-0.66
-0.85
-1.12
-1.37
-1.50
-1.42
-1.12
-0.64
-0.06
0.51
0.99
1.33
1.52
1.54
1.40
1.17
0.92
0.78
0.84
1.13
1.55
1.96
2.23
2.27
2.14
1.92
1.71
1.56
1.47
1.39
1.27
1.10
0.90
0.68
0.47
0.25
-0.00
-0.30
-0.67
-1.08
-1.49
-1.85
-2.13
-2.32
-2.43
-2.48
-2.51
-2.55
-2.65
-2.86
-3.18
-3.59
-4.03
-4.43
-4.75
-4.97
-5.15
-5.35
-5.65
-6.10
-6.69
-7.36
-8.02
-8.57
-8.96
-9.18
-9.26
-9.26
-9.25
-9.27
-9.32
-9.33
-9.20
-8.76
-7.86
-6.43
-4.54
-2.41
-0.36
1.33
2.52
3.21
3.56
3.76
3.94
4.16
4.45
4.79
5.24
5.85
6.67
7.65
8.68
9.54
10.03
10.06
9.69
9.11
8.53
8.08
7.73
7.34
6.77
5.97
4.99
3.99
3.09
2.34
1.72
1.17
0.70
0.35
0.20
0.26
0.43
0.54
0.40
-0.10
-0.91
-1.85
-2.68
-3.22
-3.40
-3.31
-3.11
-2.95
-2.92
-3.05
-3.34
-3.74
-4.20
-4.61
-4.84
-4.76
-4.27
-3.44
-2.39
-1.34
-0.46
0.19
0.73
1.37
2.36
3.89
6.01
8.62
11.57
14.70
17.99
21.54
25.56
30.22
35.58
41.52
47.77
54.03
60.13
66.06
72.06
78.46
85.56
93.45
101.91
110.52
118.82
126.57
133.87
141.05
148.50
156.32
164.30
172.13
179.68
187.04
194.14
200.18
203.32
200.90
190.28
169.98
140.17
102.50
59.11
11.82
-37.94
-88.46
-136.86
-179.01
-210.44
-228.14
-231.93
-224.75
-211.36
-196.47
-183.02
-171.79
-161.91
-152.22
-142.17
-132.09
-122.67
-114.39
-107.13
-100.27
-93.16
-85.47
-77.36
-69.42
-62.29
-56.37
-51.63
-47.67
-43.90
-39.83
-35.22
-30.25
-25.37
-21.12
-17.86
-15.64
-14.15
-12.92
-11.49
-9.67
-7.52
-5.38
-3.58
-2.31
-1.55
-1.02
-0.41
0.51
1.74
3.09
4.28
5.07
5.37
5.28
4.97
4.64
4.36
4.11
3.78
3.28
2.61
1.82
1.03
0.36
-0.18
-0.65
-1.17
-1.88
-2.84
-4.03
-5.31
-6.52
-7.46
-8.06
-8.29
-8.18
-7.75
-7.02
-6.00
-4.80
-3.55
-2.43
-1.60
-1.12
-0.93
-0.93
-1.02
-1.10
-1.17
-1.22
-1.29
-1.38
-1.52
-1.71
-1.96
-2.22
-2.42
-2.48
-2.37
-2.10
-1.73
-1.32
-0.93
-0.57
-0.22
0.10
0.36
0.53
0.58
0.53
0.43
0.29
0.11
-0.09
-0.30
-0.47
-0.53
-0.45
-0.27
-0.09
-0.03
-0.16
-0.48
-0.91
-1.33
-1.61
-1.70
-1.62
-1.45
-1.30
-1.28
-1.45
-1.77
-2.20
-2.66
-3.07
-3.35
-3.44
-3.26
-2.79
-2.10
-1.34
-0.71
-0.37
-0.39
-0.70
-1.18
-1.64
-1.96
-2.08
-1.98
-1.68
-1.23
-0.66
-0.05
0.53
1.02
1.41
1.70
1.92
2.10
2.25
2.35
2.35
2.24
1.99
1.63
1.17
0.68
0.18
-0.31
-0.77
-1.17
-1.46
-1.54
-1.36
-0.95
-0.40
0.12
0.48
0.60
0.53
0.37
0.25
0.22
0.25
0.32
0.37
0.40
0.46
0.59
0.79
1.02
1.22
1.34
1.35
1.29
1.20
1.15
1.12
1.09
0.99
0.76
0.39
-0.08
-0.54
-0.89
-1.09
-1.13
-1.06
-0.93
-0.83
-0.78
-0.82
-0.95
-1.17
-1.42
-1.67
-1.88
-2.05
-2.19
-2.34
-2.54
-2.74
-2.85
-2.75
-2.36
-1.71
-0.97
-0.33
0.03
0.09
-0.01
0.00
0.35
1.13
2.25
3.45
4.44
4.94
4.83
4.11
2.91
1.42
-0.10
-1.44
-2.43
-2.97
-3.05
-2.77
-2.25
-1.64
-1.08
-0.63
-0.32
-0.12
0.01
0.11
0.20
0.33
0.53
0.82
1.23
1.74
2.28
2.74
2.97
2.88
2.45
1.78
1.08
0.56
0.41
0.64
1.13
1.63
1.88
1.72
1.15
0.33
-0.52
-1.20
-1.61
-1.77
-1.76
-1.73
-1.74
-1.79
-1.85
-1.89
-1.90
-1.95
-2.09
-2.34
-2.67
-2.99
-3.20
-3.22
-3.02
-2.67
-2.25
-1.88
-1.62
-1.48
-1.41
-1.33
-1.18
-0.94
-0.58
-0.08
0.63
1.61
2.79
3.96
4.76
4.89
4.24
2.97
1.51
0.31
-0.29
-0.27
0.15
0.62
0.83
0.67
0.21
-0.37
-0.87
-1.15
-1.19
-1.01
-0.68
-0.26
0.23
0.77
1.32
1.78
2.08
2.14
1.97
1.65
1.33
1.14
1.15
1.33
1.60
1.85
2.01
2.05
2.00
1.86
1.65
1.36
0.98
0.50
-0.04
-0.64
-1.25
-1.85
-2.40
-2.83
-3.08
-3.13
-2.98
-2.73
-2.47
-2.31
-2.26
-2.31
-2.38
-2.45
-2.49
-2.53
-2.62
-2.73
-2.85
-2.89
-2.80
-2.57
-2.21
-1.78
-1.31
-0.82
-0.28
0.32
1.01
1.76
2.50
3.16
3.62
3.80
3.65
3.21
2.57
1.88
1.29
0.89
0.73
0.80
1.03
1.38
1.74
2.01
2.06
1.81
1.27
0.56
-0.13
-0.59
-0.70
-0.47
-0.02
0.45
0.79
0.95
0.94
0.84
0.72
0.65
0.63
0.64
0.64
0.59
0.43
0.17
-0.15
-0.46
-0.67
-0.69
-0.54
-0.29
-0.08
-0.04
-0.25
-0.68
-1.26
-1.84
-2.32
-2.64
-2.79
-2.80
-2.72
-2.61
-2.55
-2.52
-2.48
-2.26
-1.72
-0.80
0.42
1.69
2.74
3.33
3.41
3.11
2.60
2.05
1.56
1.15
0.84
0.66
0.65
0.83
1.16
1.55
1.86
2.00
1.95
1.78
1.65
1.73
2.16
2.92
3.84
4.64
5.01
4.78
3.97
2.82
1.65
0.74
0.21
-0.01
-0.06
-0.09
-0.16
-0.27
-0.34
-0.35
-0.33
-0.35
-0.50
-0.81
-1.25
-1.73
-2.17
-2.49
-2.65
-2.64
-2.40
-1.94
-1.28
-0.54
0.10
0.43
0.29
-0.33
-1.29
-2.35
-3.22
-3.72
-3.80
-3.55
-3.11
-2.64
-2.22
-1.89
-1.61
-1.38
-1.20
-1.04
-0.88
-0.66
-0.34
0.08
0.49
0.76
0.77
0.51
0.06
-0.44
-0.87
-1.18
-1.40
-1.57
-1.69
-1.70
-1.51
-1.10
-0.53
0.11
0.71
1.22
1.68
2.13
2.59
2.98
3.17
3.07
2.65
1.97
1.19
0.46
-0.11
-0.43
-0.44
-0.12
0.52
1.32
2.06
2.48
2.44
1.97
1.30
0.70
0.36
0.24
0.18
-0.06
-0.58
-1.28
-1.94
-2.34
-2.39
-2.18
-1.88
-1.67
-1.60
-1.63
-1.68
-1.72
-1.82
-2.03
-2.40
-2.89
-3.37
-3.74
-3.92
-3.95
-3.90
-3.89
-4.08
-4.62
-5.66
-7.29
-9.42
-11.76
-13.80
-15.03
-15.12
-14.17
-12.74
-11.67
-11.74
-13.31
-16.09
-19.18
-21.44
-22.00
-20.77
-18.57
-16.81
-16.85
-19.22
-23.23
-27.13
-28.92
-27.22
-22.05
-14.86
-7.89
-3.17
-1.83
-3.87
-8.22
-12.83
-14.80
-10.63
2.92
27.30
60.57
96.67
126.67
141.77
136.88
112.98
76.77
37.80
4.50
-18.76
-32.24
-39.12
-42.82
-45.12
-45.88
-44.34
-40.50
-35.90
-33.08
-34.25
-39.90
-48.48
-57.17
-63.18
-65.10
-63.53
-60.61
-58.97
-60.50
-65.52
-72.83
-80.36
-86.16
-89.27
-90.03
-89.97
-91.23
-95.89
-105.25
-119.16
-135.58
-150.61
-159.23
-156.51
-139.07
-106.28
-60.71
-7.68
46.07
94.07
131.67
156.84
170.10
173.79
170.94
164.30
155.76
146.31
136.29
125.95
115.74
106.37
98.49
92.35
87.68
83.78
79.96
75.86
71.67
68.09
65.90
65.62
67.24
70.22
73.73
77.03
79.68
81.70
83.43
85.36
87.95
91.57
96.50
102.80
110.11
117.24
122.08
122.01
114.81
99.83
78.65
54.80
32.42
14.61
2.25
-5.97
-12.58
-19.90
-29.06
-39.94
-51.64
-63.25
-74.13
-83.86
-92.00
-97.97
-101.23
-101.57
-99.41
-95.70
-91.65
-88.24
-85.95
-84.59
-83.55
-82.01
-79.40
-75.58
-70.93
-66.12
-61.81
-58.40
-55.95
-54.20
-52.80
-51.46
-50.04
-48.46
-46.63
-44.48
-41.98
-39.26
-36.46
-33.40
-29.22
-22.41
-11.42
4.46
24.35
45.81
65.69
81.46
91.99
97.52
98.72
95.78
88.22
75.62
58.67
39.83
22.70
10.59
5.00
5.00
7.87
10.59
11.16
9.23
5.72
1.95
-1.22
-3.67
-5.78
-7.96
-10.17
-11.92
-12.48
-11.30
-8.39
-4.40
-0.37
2.72
4.31
4.52
4.00
3.63
4.13
5.83
8.65
12.15
15.65
18.28
19.15
17.45
12.84
5.60
-3.28
-12.34
-20.15
-25.69
-28.65
-29.34
-28.43
-26.59
-24.33
-21.91
-19.53
-17.34
-15.53
-14.22
-13.46
-13.17
-13.17
-13.21
-13.09
-12.69
-12.01
-11.17
-10.36
-9.75
-9.39
-9.17
-8.87
-8.25
-7.20
-5.81
-4.32
-3.05
-2.19
-1.79
-1.71
-1.72
-1.62
-1.33
-0.87
-0.34
0.14
0.51
0.78
0.95
1.01
0.94
0.68
0.21
-0.37
-0.92
-1.26
-1.28
-1.03
-0.66
-0.34
-0.17
-0.13
-0.11
-0.02
0.17
0.38
0.50
0.48
0.32
0.09
-0.13
-0.30
-0.39
-0.37
-0.21
0.11
0.56
1.03
1.40
1.59
1.58
1.44
1.22
0.99
0.75
0.50
0.28
0.17
0.25
0.52
0.88
1.20
1.32
1.20
0.90
0.56
0.32
0.24
0.26
0.31
0.36
0.41
0.53
0.75
1.03
1.27
1.36
1.26
1.02
0.77
0.66
0.75
1.02
1.38
1.72
1.96
2.05
1.98
1.78
1.48
1.16
0.91
0.79
0.81
0.88
0.92
0.90
0.84
0.80
0.86
1.00
1.15
1.24
1.17
0.93
0.54
0.03
-0.58
-1.23
-1.85
-2.32
-2.55
-2.53
-2.34
-2.14
-2.04
-2.12
-2.27
-2.35
-2.21
-1.79
-1.17
-0.55
-0.13
0.02
-0.09
-0.30
-0.45
-0.47
-0.37
-0.27
-0.24
-0.28
-0.35
-0.32
-0.17
0.10
0.37
0.52
0.47
0.21
-0.19
-0.59
-0.83
-0.84
-0.63
-0.32
-0.07
0.01
-0.13
-0.42
-0.75
-1.02
-1.20
-1.30
-1.33
-1.33
-1.27
-1.16
-0.99
-0.79
-0.61
-0.49
-0.49
-0.62
-0.90
-1.30
-1.77
-2.25
-2.69
-3.08
-3.40
-3.68
-3.97
-4.25
-4.52
-4.77
-5.00
-5.18
-5.30
-5.32
-5.18
-4.86
-4.35
-3.71
-3.00
-2.33
-1.72
-1.13
-0.41
0.62
2.15
4.23
6.73
9.37
11.79
13.65
14.78
15.23
15.17
14.84
14.45
14.08
13.72
13.29
12.72
11.89
10.70
9.08
7.03
4.64
2.13
-0.26
-2.27
-3.77
-4.70
-5.14
-5.21
-5.10
-4.95
-4.89
-4.96
-5.14
-5.33
-5.45
-5.41
-5.20
-4.86
-4.47
-4.10
-3.77
-3.46
-3.16
-2.86
-2.55
-2.29
-2.11
-2.06
-2.12
-2.23
-2.31
-2.28
-2.12
-1.89
-1.66
-1.51
-1.42
-1.35
-1.20
-0.96
-0.66
-0.44
-0.42
-0.65
-1.04
-1.41
-1.59
-1.50
-1.19
-0.79
-0.45
-0.26
-0.21
-0.24
-0.24
-0.18
-0.07
0.05
0.12
0.12
0.07
-0.02
-0.10
-0.16
-0.16
-0.11
0.02
0.18
0.37
0.52
0.63
0.66
0.60
0.45
0.20
-0.11
-0.43
-0.65
-0.68
-0.49
-0.14
0.21
0.42
0.37
0.08
-0.35
-0.75
-1.01
-1.07
-0.96
-0.73
-0.46
-0.22
-0.06
0.01
-0.00
-0.05
-0.06
-0.03
0.06
0.16
0.22
0.23
0.19
0.13
0.08
0.06
0.09
0.15
0.26
0.41
0.53
0.59
0.51
0.31
0.07
-0.11
-0.12
0.03
0.25
0.42
0.44
0.30
0.08
-0.11
-0.20
-0.17
-0.07
0.03
0.04
-0.04
-0.19
-0.34
-0.42
-0.40
-0.27
-0.09
0.07
0.14
0.12
0.04
-0.05
-0.13
-0.20
-0.32
-0.49
-0.69
-0.85
-0.89
-0.78
-0.55
-0.25
0.04
0.23
0.29
0.23
0.04
-0.21
-0.46
-0.65
-0.69
-0.56
-0.28
0.07
0.44
0.76
0.97
1.09
1.13
1.13
1.13
1.15
1.14
1.06
0.85
0.50
0.07
-0.34
-0.65
-0.78
-0.76
-0.62
-0.39
-0.11
0.19
0.45
0.57
0.47
0.14
-0.32
-0.73
-0.89
-0.71
-0.25
0.30
0.73
0.87
0.72
0.38
0.04
-0.18
-0.24
-0.20
-0.18
-0.24
-0.40
-0.62
-0.77
-0.78
-0.59
-0.25
0.17
0.53
0.76
0.79
0.64
0.37
0.08
-0.13
-0.22
-0.19
-0.10
-0.02
-0.00
-0.04
-0.13
-0.21
-0.25
-0.22
-0.13
0.03
0.24
0.47
0.68
0.83
0.87
0.81
0.67
0.52
0.40
0.33
0.29
0.27
0.24
0.20
0.17
0.18
0.22
0.24
0.23
0.14
-0.00
-0.16
-0.26
-0.24
-0.12
0.07
0.22
0.28
0.22
0.04
-0.19
-0.40
-0.54
-0.58
-0.53
-0.41
-0.25
-0.10
-0.02
-0.02
-0.10
-0.21
-0.29
-0.32
-0.32
-0.37
-0.49
-0.67
-0.84
-0.89
-0.79
-0.58
-0.36
-0.23
-0.27
-0.43
-0.64
-0.77
-0.76
-0.62
-0.39
-0.15
0.04
0.19
0.31
0.44
0.59
0.72
0.77
0.68
0.46
0.15
-0.14
-0.32
-0.31
-0.10
0.24
0.62
0.95
1.16
1.24
1.18
1.02
0.78
0.48
0.17
-0.12
-0.32
-0.39
-0.34
-0.20
-0.07
-0.04
-0.12
-0.29
-0.44
-0.48
-0.38
-0.17
0.04
0.17
0.18
0.09
-0.01
-0.07
-0.06
-0.02
-0.01
-0.05
-0.14
-0.21
-0.25
-0.25
-0.25
-0.27
-0.32
-0.35
-0.33
-0.23
-0.09
0.03
0.08
0.05
-0.05
-0.14
-0.20
-0.18
-0.09
0.07
0.29
0.52
0.71
0.79
0.73
0.55
0.32
0.09
-0.08
-0.21
-0.29
-0.36
-0.37
-0.32
-0.21
-0.05
0.10
0.19
0.21
0.20
0.19
0.19
0.19
0.18
0.15
0.12
0.15
0.22
0.32
0.38
0.38
0.31
0.21
0.13
0.07
0.04
0.02
0.04
0.10
0.21
0.30
0.29
0.12
-0.22
-0.60
-0.90
-1.00
-0.90
-0.66
-0.38
-0.13
0.06
0.23
0.38
0.50
0.55
0.50
0.32
0.04
-0.26
-0.51
-0.64
-0.59
-0.40
-0.14
0.10
0.23
0.23
0.13
-0.00
-0.13
-0.20
-0.21
-0.16
-0.06
0.06
0.20
0.33
0.47
0.64
0.84
1.03
1.15
1.15
1.00
0.75
0.47
0.25
0.10
-0.01
-0.13
-0.30
-0.49
-0.65
-0.72
-0.67
-0.53
-0.38
-0.26
-0.21
-0.19
-0.14
-0.01
0.20
0.46
0.66
0.73
0.64
0.42
0.16
-0.05
-0.20
-0.32
-0.46
-0.65
-0.83
-0.88
-0.73
-0.39
0.04
0.39
0.50
0.36
0.07
-0.19
-0.30
-0.23
-0.07
0.06
0.12
0.12
0.14
0.24
0.44
0.64
0.74
0.67
0.44
0.12
-0.23
-0.55
-0.83
-1.03
-1.13
-1.09
-0.90
-0.59
-0.26
-0.01
0.12
0.12
0.04
-0.08
-0.23
-0.41
-0.62
-0.80
-0.89
-0.82
-0.58
-0.23
0.11
0.33
0.38
0.28
0.10
-0.06
-0.16
-0.23
-0.30
-0.44
-0.61
-0.75
-0.76
-0.60
-0.33
-0.06
0.07
0.00
-0.23
-0.50
-0.68
-0.74
-0.69
-0.60
-0.54
-0.49
-0.38
-0.16
0.19
0.59
0.94
1.17
1.28
1.32
1.38
1.48
1.56
1.54
1.35
0.98
0.51
0.09
-0.18
-0.23
-0.09
0.15
0.40
0.56
0.59
0.51
0.38
0.25
0.17
0.11
0.03
-0.10
-0.28
-0.44
-0.50
-0.45
-0.30
-0.12
0.02
0.08
0.12
0.19
0.36
0.60
0.82
0.92
0.81
0.51
0.10
-0.29
-0.55
-0.63
-0.59
-0.52
-0.49
-0.50
-0.50
-0.40
-0.16
0.18
0.51
0.72
0.76
0.66
0.48
0.32
0.24
0.24
0.29
0.33
0.28
0.12
-0.14
-0.43
-0.62
-0.60
-0.34
0.09
0.51
0.79
0.87
0.83
0.78
0.81
0.90
0.91
0.71
0.22
-0.44
-1.09
-1.51
-1.62
-1.45
-1.14
-0.86
-0.69
-0.64
-0.65
-0.66
-0.63
-0.56
-0.49
-0.44
-0.42
-0.41
-0.39
-0.38
-0.40
-0.43
-0.42
-0.33
-0.18
-0.03
0.01
-0.10
-0.35
-0.66
-0.92
-1.08
-1.13
-1.13
-1.09
-1.03
-0.91
-0.76
-0.65
-0.67
-0.86
-1.16
-1.46
-1.67
-1.77
-1.83
-1.94
-2.13
-2.36
-2.55
-2.68
-2.78
-2.90
-3.01
-2.99
-2.65
-1.86
-0.60
0.98
2.66
4.29
5.80
7.23
8.58
9.79
10.67
10.97
10.53
9.35
7.62
5.64
3.73
2.12
0.94
0.16
-0.34
-0.71
-1.08
-1.51
-2.00
-2.49
-2.91
-3.19
-3.28
-3.15
-2.80
-2.24
-1.56
-0.89
-0.38
-0.15
-0.26
-0.66
-1.19
-1.71
-2.06
-2.17
-2.04
-1.71
-1.28
-0.82
-0.45
-0.22
-0.14
-0.15
-0.18
-0.18
-0.13
-0.09
-0.11
-0.21
-0.33
-0.36
-0.21
0.12
0.52
0.82
0.89
0.70
0.35
-0.02
-0.27
-0.40
-0.46
-0.56
-0.72
-0.92
-1.11
-1.20
-1.20
-1.12
-1.02
-0.94
-0.86
-0.74
-0.50
-0.13
0.34
0.77
1.05
1.08
0.86
0.51
0.18
-0.01
-0.01
0.13
0.32
0.47
0.53
0.52
0.47
0.44
0.45
0.48
0.51
0.54
0.55
0.57
0.63
0.76
0.92
1.06
1.09
1.00
0.80
0.57
0.35
0.17
-0.04
-0.34
-0.71
-1.05
-1.24
-1.17
-0.87
-0.45
-0.09
0.09
0.04
-0.19
-0.50
-0.82
-1.11
-1.35
-1.55
-1.68
-1.71
-1.61
-1.40
-1.16
-1.00
-0.97
-1.05
-1.15
-1.14
-0.91
-0.45
0.17
0.81
1.31
1.59
1.63
1.51
1.33
1.21
1.20
1.31
1.48
1.60
1.58
1.35
0.93
0.39
-0.20
-0.72
-1.09
-1.25
-1.19
-0.96
-0.65
-0.37
-0.17
-0.05
0.05
0.19
0.39
0.59
0.70
0.66
0.49
0.27
0.14
0.16
0.30
0.47
0.54
0.43
0.13
-0.27
-0.68
-1.00
-1.15
-1.14
-0.99
-0.75
-0.49
-0.26
-0.12
-0.06
-0.07
-0.12
-0.23
-0.38
-0.56
-0.70
-0.70
-0.48
-0.04
0.53
1.10
1.53
1.72
1.68
1.48
1.21
0.96
0.80
0.76
0.84
0.97
1.06
1.05
0.91
0.70
0.53
0.49
0.60
0.83
1.11
1.36
1.51
1.54
1.42
1.15
0.72
0.14
-0.51
-1.10
-1.47
-1.48
-1.07
-0.30
0.67
1.59
2.23
2.45
2.21
1.65
0.97
0.39
0.07
0.08
0.37
0.86
1.42
1.93
2.30
2.47
2.38
2.06
1.53
0.89
0.23
-0.36
-0.79
-1.01
-0.97
-0.70
-0.30
0.03
0.08
-0.26
-0.91
-1.66
-2.25
-2.54
-2.58
-2.56
-2.69
-3.00
-3.39
-3.62
-3.54
-3.13
-2.56
-2.04
-1.77
-1.77
-1.95
-2.16
-2.28
-2.28
-2.17
-2.04
-1.92
-1.86
-1.85
-1.89
-1.96
-2.07
-2.19
-2.28
-2.27
-2.09
-1.69
-1.11
-0.43
0.21
0.66
0.84
0.72
0.36
-0.14
-0.69
-1.21
-1.66
-2.03
-2.30
-2.45
-2.47
-2.38
-2.26
-2.21
-2.37
-2.83
-3.52
-4.26
-4.67
-4.35
-2.99
-0.54
2.75
6.34
9.58
11.95
13.20
13.43
12.99
12.29
11.69
11.36
11.26
11.25
11.09
10.62
9.75
8.54
7.13
5.73
4.49
3.52
2.79
2.22
1.67
1.00
0.06
-1.21
-2.76
-4.44
-5.97
-7.10
-7.66
-7.65
-7.23
-6.65
-6.10
-5.65
-5.27
-4.88
-4.42
-3.94
-3.55
-3.35
-3.36
-3.50
-3.62
-3.56
-3.26
-2.79
-2.29
-1.92
-1.76
-1.79
-1.90
-1.96
-1.86
-1.58
-1.19
-0.78
-0.42
-0.15
0.05
0.24
0.44
0.69
0.98
1.29
1.58
1.83
1.99
2.06
2.07
2.04
2.01
1.98
1.94
1.86
1.72
1.52
1.30
1.15
1.12
1.25
1.52
1.89
2.26
2.55
2.70
2.66
2.44
2.04
1.51
0.89
0.23
-0.40
-0.93
-1.30
-1.48
-1.49
-1.37
-1.19
-1.00
-0.84
-0.74
-0.71
-0.76
-0.90
-1.11
-1.32
-1.40
-1.23
-0.75
0.02
0.93
1.73
2.18
2.12
1.52
0.53
-0.56
-1.47
-1.94
-1.91
-1.47
-0.81
-0.15
0.35
0.64
0.75
0.76
0.72
0.64
0.49
0.20
-0.25
-0.81
-1.36
-1.73
-1.81
-1.59
-1.15
-0.65
-0.21
0.12
0.36
0.54
0.64
0.59
0.30
-0.26
-1.02
-1.78
-2.32
-2.47
-2.24
-1.76
-1.29
-1.02
-1.09
-1.48
-2.13
-2.96
-3.94
-5.05
-6.26
-7.47
-8.54
-9.37
-9.91
-10.24
-10.49
-10.83
-11.34
-12.06
-13.00
-14.20
-15.72
-17.62
-19.88
-22.37
-24.87
-27.19
-29.28
-31.25
-33.39
-36.06
-39.51
-43.71
-48.41
-53.17
-57.65
-61.77
-65.79
-70.17
-75.33
-81.42
-88.22
-95.24
-101.92
-107.91
-113.10
-117.67
-122.00
-126.57
-131.69
-137.20
-141.96
-143.78
-139.66
-126.52
-102.15
-66.00
-19.55
33.88
89.71
142.98
189.24
225.34
250.01
263.93
269.42
269.64
267.64
265.53
264.30
264.09
264.77
266.36
269.02
272.75
276.85
279.70
278.97
272.13
257.16
233.13
200.16
159.12
111.29
58.34
2.75
-51.86
-100.85
-139.55
-164.66
-175.56
-174.51
-165.77
-153.99
-142.63
-133.26
-125.86
-119.70
-114.14
-108.99
-104.29
-99.95
-95.67
-90.95
-85.52
-79.42
-73.02
-66.88
-61.45
-56.89
-53.05
-49.53
-45.90
-41.88
-37.43
-32.82
-28.44
-24.68
-21.73
-19.52
-17.76
-16.09
-14.25
-12.18
-10.03
-8.10
-6.66
-5.80
-5.44
-5.32
-5.20
-4.93
-4.50
-4.05
-3.75
-3.71
-3.96
-4.45
-5.06
-5.72
-6.35
-6.93
-7.46
-7.99
-8.55
-9.21
-10.00
-10.93
-11.97
-13.13
-14.46
-16.03
-17.88
-20.00
-22.26
-24.54
-26.77
-29.07
-31.67
-34.81
-38.59
-42.91
-47.47
-52.00
-56.37
-60.71
-65.34
-70.65
-76.82
-83.78
-91.22
-98.76
-106.22
-113.73
-121.61
-130.14
-139.27
-148.57
-157.54
-165.95
-174.01
-182.01
-189.58
-195.16
-196.02
-189.07
-172.10
-144.74
-108.40
-65.50
-18.44
30.83
80.42
127.81
169.45
201.51
221.15
227.92
224.08
213.70
201.00
188.86
178.27
168.81
159.60
150.23
140.95
132.38
124.92
118.46
112.48
106.40
99.95
93.29
86.99
81.62
77.52
74.63
72.53
70.74
68.91
67.06
65.49
64.65
64.88
66.18
68.20
70.41
72.31
73.80
75.20
77.15
80.34
85.12
91.25
98.03
104.63
110.49
115.71
120.92
127.00
134.62
144.04
155.18
167.66
180.85
193.55
203.69
208.51
205.09
191.41
167.13
133.66
93.45
48.81
1.29
-48.04
-97.61
-144.47
-184.46
-213.41
-228.96
-231.70
-225.02
-213.60
-201.52
-190.93
-181.99
-173.68
-165.09
-156.15
-147.57
-140.23
-134.49
-129.99
-125.82
-121.14
-115.59
-109.53
-103.86
-99.54
-97.09
-96.40
-96.72
-97.08
-96.77
-95.65
-94.28
-93.58
-94.36
-96.96
-101.08
-105.99
-110.93
-115.44
-119.53
-123.56
-127.97
-133.05
-138.98
-146.06
-154.76
-165.39
-177.40
-188.82
-196.27
-195.81
-184.33
-160.69
-125.99
-82.85
-34.35
16.76
67.91
116.23
158.19
190.13
209.43
215.79
211.55
200.89
188.16
176.43
166.78
158.76
151.27
143.57
135.66
128.15
121.73
116.81
113.29
110.66
108.25
105.50
102.22
98.65
95.28
92.68
91.19
90.79
91.10
91.52
91.58
91.12
90.41
90.14
91.04
93.67
98.11
103.91
110.22
116.19
121.29
125.51
129.34
133.46
138.42
144.53
152.03
161.12
171.84
183.57
194.51
201.73
201.70
191.61
170.38
139.09
100.25
56.54
9.83
-38.78
-88.06
-135.55
-177.35
-209.10
-227.72
-232.90
-227.34
-215.52
-201.87
-189.20
-178.24
-168.25
-158.24
-147.86
-137.64
-128.46
-120.85
-114.55
-108.65
-102.02
-93.98
-84.53
-74.45
-64.77
-56.39
-49.65
-44.28
-39.61
-34.96
-30.01
-24.91
-20.18
-16.42
-13.95
-12.71
-12.24
-11.93
-11.28
-10.10
-8.54
-6.95
-5.68
-4.88
-4.49
-4.32
-4.17
-3.95
-3.72
-3.59
-3.63
-3.81
-3.99
-4.02
-3.86
-3.57
-3.34
-3.33
-3.62
-4.13
-4.70
-5.15
-5.41
-5.56
-5.74
-6.11
-6.74
-7.59
-8.51
-9.32
-9.89
-10.21
-10.36
-10.53
-10.88
-11.51
-12.40
-13.45
-14.48
-15.31
-15.86
-16.15
-16.35
-16.67
-17.28
-18.23
-19.31
-20.13
-20.20
-19.16
-16.99
-14.14
-11.32
-9.27
-8.39
-8.53
-9.08
-9.39
-9.01
-8.08
-7.23
-7.27
-8.83
-12.28
-17.54
-24.09
-30.77
-35.75
-36.92
-32.61
-22.54
-8.30
6.99
19.80
27.66
30.03
28.24
24.41
20.23
16.16
11.63
5.82
-1.44
-9.37
-16.64
-21.91
-24.36
-23.88
-20.94
-16.57
-12.20
-9.43
-9.36
-11.62
-13.88
-12.22
-2.80
16.22
43.35
74.15
102.89
124.58
136.35
137.55
129.05
112.42
89.71
63.71
38.00
16.35
1.66
-5.20
-5.56
-2.16
2.11
5.38
7.05
7.42
7.24
7.15
7.63
8.96
11.26
14.34
17.87
21.44
24.68
27.33
29.15
29.88
29.30
27.34
24.16
20.17
15.82
11.49
7.39
3.67
0.61
-1.37
-1.74
-0.25
2.97
7.31
12.04
16.61
20.92
25.29
30.15
35.69
41.62
47.03
50.63
51.14
47.80
40.74
31.05
20.44
10.63
2.62
-3.61
-8.93
-14.52
-21.13
-28.76
-36.76
-44.26
-50.66
-55.81
-59.86
-62.92
-64.85
-65.27
-63.82
-60.47
-55.66
-50.24
-45.12
-40.96
-38.03
-36.16
-34.95
-34.02
-33.12
-32.22
-31.41
-30.78
-30.29
-29.77
-28.95
-27.62
-25.69
-23.30
-20.72
-18.29
-16.35
-15.10
-14.65
-14.96
-15.84
-17.00
-18.06
-18.65
-18.49
-17.49
-15.78
-13.64
-11.43
-9.38
-7.57
-5.90
-4.24
-2.53
-0.91
0.35
0.93
0.63
-0.55
-2.38
-4.50
-6.40
-7.47
-7.10
-4.78
-0.41
5.67
12.54
19.02
24.05
26.97
27.76
26.91
25.16
23.17
21.35
19.81
18.45
17.14
15.76
14.29
12.77
11.27
9.86
8.63
7.62
6.83
6.22
5.74
5.35
5.03
4.78
4.61
4.50
4.45
4.43
4.44
4.42
4.32
4.07
3.62
2.97
2.19
1.38
0.67
0.15
-0.18
-0.36
-0.45
-0.52
-0.54
-0.45
-0.16
0.37
1.09
1.84
2.36
2.46
2.02
1.10
-0.13
-1.39
-2.49
-3.28
-3.74
-3.91
-3.88
-3.73
-3.52
-3.27
-2.98
-2.67
-2.35
-2.03
-1.76
-1.54
-1.36
-1.16
-0.89
-0.52
-0.06
0.39
0.68
0.68
0.36
-0.17
-0.75
-1.17
-1.30
-1.17
-0.88
-0.61
-0.46
-0.44
-0.49
-0.51
-0.46
-0.34
-0.22
-0.14
-0.11
-0.11
-0.11
-0.08
-0.00
0.12
0.29
0.47
0.67
0.85
1.02
1.16
1.26
1.34
1.40
1.43
1.42
1.36
1.26
1.16
1.13
1.23
1.46
1.79
2.14
2.44
2.64
2.79
2.97
3.23
3.59
4.00
4.36
4.61
4.76
4.85
4.94
5.05
5.17
5.18
4.98
4.43
3.47
2.12
0.52
-1.11
-2.54
-3.60
-4.23
-4.52
-4.65
-4.77
-4.95
-5.13
-5.22
-5.11
-4.78
-4.28
-3.70
-3.16
-2.75
-2.54
-2.57
-2.84
-3.26
-3.71
-3.98
-3.90
-3.40
-2.53
-1.51
-0.63
-0.12
-0.06
-0.37
-0.84
-1.21
-1.32
-1.10
-0.64
-0.04
0.53
0.93
1.04
0.78
0.19
-0.61
-1.38
-1.89
-1.96
-1.58
-0.89
-0.12
0.49
0.80
0.73
0.36
-0.19
-0.74
-1.12
-1.22
-0.99
-0.49
0.15
0.78
1.20
1.33
1.10
0.59
-0.09
-0.77
-1.29
-1.54
-1.48
-1.14
-0.62
-0.07
0.36
0.54
0.44
0.13
-0.25
-0.50
-0.48
-0.16
0.35
0.85
1.15
1.18
0.98
0.71
0.52
0.50
0.63
0.82
0.93
0.87
0.65
0.36
0.11
0.00
0.05
0.19
0.32
0.35
0.26
0.13
0.03
0.07
0.25
0.54
0.85
1.08
1.16
1.05
0.76
0.34
-0.11
-0.48
-0.68
-0.68
-0.49
-0.17
0.18
0.50
0.74
0.87
0.90
0.84
0.71
0.49
0.20
-0.12
-0.38
-0.52
-0.51
-0.38
-0.22
-0.13
-0.18
-0.33
-0.53
-0.70
-0.78
-0.78
-0.71
-0.59
-0.47
-0.38
-0.35
-0.38
-0.43
-0.44
-0.35
-0.17
0.01
0.12
0.11
0.00
-0.10
-0.13
-0.08
-0.00
0.03
-0.02
-0.13
-0.24
-0.28
-0.26
-0.22
-0.23
-0.30
-0.43
-0.59
-0.73
-0.82
-0.85
-0.78
-0.60
-0.32
0.02
0.32
0.48
0.45
0.26
-0.01
-0.28
-0.48
-0.64
-0.74
-0.78
-0.73
-0.53
-0.20
0.18
0.48
0.62
0.60
0.51
0.48
0.57
0.73
0.85
0.80
0.53
0.09
-0.40
-0.80
-0.99
-0.93
-0.69
-0.35
-0.05
0.13
0.17
0.10
0.03
0.01
0.07
0.17
0.21
0.14
-0.05
-0.30
-0.49
-0.55
-0.43
-0.18
0.09
0.30
0.37
0.28
0.06
-0.19
-0.39
-0.45
-0.30
0.06
0.55
1.03
1.34
1.38
1.13
0.70
0.26
-0.01
-0.04
0.12
0.34
0.48
0.45
0.26
-0.01
-0.25
-0.39
-0.43
-0.38
-0.30
-0.24
-0.22
-0.27
-0.38
-0.52
-0.63
-0.67
-0.61
-0.47
-0.31
-0.20
-0.14
-0.13
-0.11
-0.06
0.00
0.02
-0.04
-0.19
-0.38
-0.52
-0.53
-0.43
-0.25
-0.08
0.05
0.13
0.18
0.26
0.38
0.50
0.57
0.55
0.42
0.21
0.00
-0.12
-0.10
0.09
0.40
0.73
0.98
1.06
0.94
0.67
0.34
0.02
-0.24
-0.44
-0.57
-0.64
-0.61
-0.46
-0.17
0.20
0.53
0.72
0.70
0.48
0.17
-0.09
-0.20
-0.12
0.11
0.43
0.75
1.00
1.12
1.07
0.83
0.46
0.05
-0.26
-0.36
-0.25
0.01
0.26
0.37
0.32
0.18
0.09
0.16
0.40
0.70
0.91
0.92
0.74
0.41
0.05
-0.28
-0.57
-0.83
-1.06
-1.21
-1.22
-1.03
-0.69
-0.29
0.02
0.16
0.07
-0.21
-0.58
-0.92
-1.15
-1.21
-1.12
-0.91
-0.64
-0.36
-0.09
0.15
0.40
0.64
0.85
0.99
1.00
0.89
0.65
0.33
0.00
-0.26
-0.39
-0.35
-0.14
0.21
0.59
0.86
0.93
0.76
0.41
0.01
-0.31
-0.51
-0.61
-0.70
-0.83
-0.97
-1.08
-1.05
-0.88
-0.57
-0.21
0.12
0.37
0.52
0.56
0.52
0.40
0.21
-0.01
-0.24
-0.42
-0.50
-0.44
-0.25
0.03
0.30
0.46
0.48
0.37
0.19
0.05
0.01
0.09
0.25
0.40
0.46
0.41
0.28
0.14
0.06
0.04
0.04
-0.03
-0.19
-0.43
-0.65
-0.74
-0.66
-0.47
-0.29
-0.20
-0.25
-0.38
-0.49
-0.50
-0.39
-0.21
-0.02
0.15
0.32
0.51
0.71
0.85
0.84
0.65
0.27
-0.17
-0.53
-0.72
-0.69
-0.50
-0.26
-0.06
0.05
0.06
0.03
0.00
0.03
0.13
0.27
0.41
0.51
0.54
0.52
0.52
0.56
0.67
0.78
0.82
0.73
0.51
0.21
-0.07
-0.28
-0.36
-0.34
-0.23
-0.06
0.15
0.37
0.57
0.65
0.56
0.34
0.08
-0.07
-0.03
0.22
0.52
0.69
0.58
0.20
-0.33
-0.79
-1.01
-0.94
-0.64
-0.26
0.08
0.33
0.49
0.58
0.63
0.64
0.61
0.54
0.41
0.22
-0.02
-0.31
-0.61
-0.86
-0.99
-0.94
-0.72
-0.39
-0.07
0.10
0.04
-0.23
-0.60
-0.91
-1.02
-0.90
-0.65
-0.39
-0.25
-0.25
-0.32
-0.33
-0.22
0.01
0.29
0.51
0.61
0.58
0.48
0.36
0.21
0.03
-0.21
-0.47
-0.67
-0.71
-0.49
-0.03
0.58
1.18
1.59
1.72
1.58
1.27
0.92
0.61
0.36
0.16
-0.03
-0.20
-0.36
-0.50
-0.62
-0.76
-0.89
-1.00
-1.03
-0.93
-0.71
-0.43
-0.17
-0.04
-0.08
-0.27
-0.53
-0.79
-0.93
-0.92
-0.73
-0.41
-0.03
0.32
0.57
0.70
0.70
0.60
0.45
0.32
0.25
0.31
0.51
0.79
1.05
1.18
1.10
0.82
0.43
0.08
-0.10
-0.08
0.09
0.28
0.40
0.39
0.27
0.08
-0.13
-0.35
-0.57
-0.77
-0.92
-0.97
-0.90
-0.74
-0.53
-0.36
-0.26
-0.25
-0.33
-0.46
-0.61
-0.70
-0.67
-0.46
-0.12
0.25
0.52
0.56
0.34
-0.07
-0.53
-0.88
-0.98
-0.81
-0.43
0.03
0.40
0.53
0.42
0.13
-0.18
-0.37
-0.37
-0.23
-0.05
0.07
0.12
0.12
0.16
0.26
0.40
0.53
0.59
0.59
0.59
0.69
0.94
1.31
1.71
1.99
2.04
1.82
1.40
0.91
0.50
0.28
0.26
0.39
0.54
0.62
0.53
0.27
-0.11
-0.51
-0.83
-1.02
-1.08
-1.05
-1.02
-1.01
-1.02
-1.01
-0.92
-0.74
-0.51
-0.28
-0.06
0.16
0.41
0.69
0.95
1.10
1.08
0.88
0.56
0.22
-0.03
-0.17
-0.20
-0.17
-0.11
-0.07
-0.05
-0.07
-0.12
-0.16
-0.16
-0.11
-0.04
-0.00
-0.05
-0.20
-0.41
-0.64
-0.83
-0.95
-1.00
-0.96
-0.82
-0.61
-0.37
-0.19
-0.15
-0.27
-0.49
-0.69
-0.74
-0.63
-0.40
-0.13
0.07
0.21
0.31
0.44
0.60
0.78
0.89
0.88
0.71
0.38
-0.03
-0.45
-0.78
-0.96
-0.94
-0.74
-0.43
-0.09
0.20
0.40
0.53
0.61
0.69
0.74
0.73
0.65
0.48
0.27
0.04
-0.16
-0.30
-0.35
-0.30
-0.17
0.02
0.19
0.29
0.28
0.17
0.02
-0.11
-0.19
-0.19
-0.08
0.14
0.48
0.92
1.37
1.71
1.82
1.63
1.18
0.60
0.06
-0.29
-0.38
-0.26
-0.02
0.23
0.39
0.46
0.43
0.34
0.18
-0.01
-0.21
-0.39
-0.48
-0.44
-0.24
0.08
0.45
0.79
1.02
1.05
0.88
0.57
0.25
0.07
0.14
0.43
0.80
1.05
1.02
0.70
0.19
-0.32
-0.69
-0.86
-0.86
-0.76
-0.61
-0.43
-0.22
0.01
0.19
0.24
0.13
-0.13
-0.40
-0.50
-0.27
0.31
1.10
1.79
2.05
1.66
0.60
-0.89
-2.40
-3.52
-3.91
-3.50
-2.40
-0.93
0.53
1.62
2.11
1.93
1.17
0.07
-1.06
-1.92
-2.26
-2.00
-1.18
-0.03
1.13
1.96
2.17
1.65
0.53
-0.90
-2.22
-3.04
-3.13
-2.47
-1.28
0.09
1.23
1.80
1.65
0.80
-0.48
-1.79
-2.68
-2.81
-2.11
-0.79
0.72
1.96
2.55
2.37
1.53
0.33
-0.90
-1.84
-2.24
-1.98
-1.10
0.19
1.52
2.48
2.71
2.12
0.86
-0.66
-1.96
-2.63
-2.44
-1.48
-0.04
1.44
2.52
2.91
2.53
1.51
0.15
-1.16
-2.08
-2.39
-2.01
-1.08
0.11
1.22
1.89
1.90
1.24
0.12
-1.14
-2.12
-2.53
-2.23
-1.29
0.02
1.30
2.16
2.31
1.71
0.56
-0.76
-1.81
-2.26
-2.00
-1.13
0.04
1.17
1.95
2.20
1.87
1.05
-0.08
-1.22
-2.03
-2.23
-1.70
-0.52
0.93
2.12
2.59
2.11
0.84
-0.73
-2.05
-2.65
-2.43
-1.57
-0.49
0.45
0.99
1.10
0.86
0.38
-0.18
-0.70
-1.03
-1.05
-0.73
-0.14
0.55
1.11
1.36
1.28
0.93
0.48
0.11
-0.08
-0.05
0.12
0.35
0.51
0.56
0.50
0.40
0.35
0.44
0.67
0.97
1.23
1.35
1.29
1.06
0.71
0.34
-0.01
-0.30
-0.52
-0.64
-0.64
-0.54
-0.36
-0.13
0.11
0.30
0.42
0.42
0.28
-0.02
-0.40
-0.77
-1.05
-1.16
-1.13
-1.00
-0.86
-0.69
-0.47
-0.14
0.29
0.71
0.99
1.03
0.80
0.41
0.00
-0.29
-0.41
-0.34
-0.17
0.05
0.26
0.41
0.50
0.50
0.43
0.28
0.10
-0.07
-0.20
-0.27
-0.30
-0.30
-0.32
-0.36
-0.44
-0.52
-0.57
-0.54
-0.42
-0.24
-0.02
0.17
0.30
0.34
0.29
0.16
0.01
-0.07
-0.06
0.06
0.21
0.29
0.23
0.02
-0.26
-0.51
-0.64
-0.64
-0.54
-0.42
-0.34
-0.32
-0.32
-0.32
-0.28
-0.19
-0.05
0.14
0.35
0.57
0.72
0.73
0.59
0.30
-0.03
-0.29
-0.41
-0.38
-0.23
-0.05
0.09
0.17
0.18
0.13
0.01
-0.21
-0.52
-0.84
-1.02
-0.92
-0.47
0.23
0.95
1.40
1.38
0.86
0.03
-0.76
-1.19
-1.07
-0.47
0.32
0.97
1.18
0.89
0.25
-0.46
-0.94
-1.07
-0.90
-0.58
-0.31
-0.18
-0.17
-0.21
-0.25
-0.29
-0.39
-0.56
-0.78
-0.96
-0.98
-0.80
-0.46
-0.05
0.28
0.44
0.39
0.19
-0.07
-0.27
-0.32
-0.18
0.09
0.37
0.57
0.60
0.50
0.32
0.14
-0.00
-0.10
-0.16
-0.18
-0.13
0.03
0.30
0.57
0.77
0.81
0.69
0.49
0.33
0.29
0.39
0.59
0.82
1.01
1.14
1.19
1.15
1.04
0.87
0.68
0.51
0.41
0.41
0.48
0.56
0.58
0.47
0.24
-0.08
-0.38
-0.55
-0.51
-0.28
0.05
0.32
0.37
0.17
-0.27
-0.80
-1.29
-1.64
-1.79
-1.78
-1.63
-1.39
-1.07
-0.71
-0.36
-0.08
0.10
0.21
0.32
0.51
0.78
1.09
1.35
1.48
1.43
1.23
0.91
0.55
0.17
-0.19
-0.49
-0.69
-0.78
-0.80
-0.78
-0.76
-0.75
-0.71
-0.57
-0.28
0.14
0.62
1.05
1.30
1.28
0.96
0.43
-0.15
-0.55
-0.60
-0.27
0.35
1.04
1.52
1.65
1.42
0.93
0.36
-0.16
-0.57
-0.85
-1.01
-1.04
-0.95
-0.75
-0.52
-0.35
-0.32
-0.44
-0.66
-0.88
-0.97
-0.84
-0.51
-0.05
0.38
0.62
0.60
0.31
-0.11
-0.49
-0.67
-0.61
-0.36
-0.10
0.01
-0.13
-0.46
-0.86
-1.17
-1.29
-1.22
-1.02
-0.79
-0.62
-0.53
-0.50
-0.49
-0.41
-0.24
0.03
0.41
0.83
1.22
1.50
1.59
1.43
1.06
0.54
0.01
-0.43
-0.70
-0.77
-0.67
-0.48
-0.25
-0.07
0.02
0.00
-0.09
-0.20
-0.26
-0.26
-0.21
-0.20
-0.28
-0.46
-0.65
-0.75
-0.68
-0.44
-0.11
0.22
0.49
0.70
0.87
1.02
1.11
1.11
0.99
0.78
0.58
0.46
0.43
0.43
0.39
0.29
0.20
0.21
0.37
0.65
0.96
1.16
1.21
1.14
1.05
1.02
1.06
1.08
1.02
0.81
0.50
0.16
-0.11
-0.29
-0.41
-0.52
-0.64
-0.77
-0.87
-0.87
-0.76
-0.56
-0.29
-0.01
0.23
0.39
0.43
0.35
0.16
-0.08
-0.32
-0.54
-0.75
-0.96
-1.18
-1.34
-1.35
-1.11
-0.64
-0.06
0.43
0.66
0.63
0.47
0.33
0.31
0.35
0.33
0.14
-0.19
-0.55
-0.75
-0.71
-0.49
-0.21
0.00
0.10
0.11
0.11
0.13
0.16
0.17
0.17
0.21
0.32
0.49
0.63
0.65
0.52
0.28
0.05
-0.07
-0.02
0.17
0.40
0.56
0.57
0.44
0.20
-0.10
-0.41
-0.67
-0.86
-0.97
-0.98
-0.90
-0.74
-0.51
-0.28
-0.09
-0.01
-0.02
-0.10
-0.16
-0.16
-0.08
0.03
0.11
0.12
0.03
-0.11
-0.27
-0.41
-0.54
-0.67
-0.80
-0.88
-0.87
-0.75
-0.57
-0.42
-0.36
-0.39
-0.42
-0.32
-0.04
0.35
0.66
0.73
0.46
-0.02
-0.49
-0.73
-0.66
-0.36
0.01
0.29
0.41
0.43
0.44
0.51
0.65
0.78
0.84
0.81
0.71
0.60
0.52
0.49
0.48
0.47
0.41
0.34
0.30
0.33
0.44
0.57
0.65
0.66
0.60
0.53
0.51
0.57
0.68
0.78
0.82
0.77
0.66
0.51
0.37
0.24
0.11
-0.04
-0.22
-0.41
-0.58
-0.65
-0.60
-0.43
-0.20
-0.03
0.00
-0.12
-0.35
-0.58
-0.70
-0.68
-0.56
-0.41
-0.30
-0.24
-0.16
-0.03
0.17
0.34
0.37
0.22
-0.08
-0.41
-0.60
-0.57
-0.35
-0.06
0.16
0.24
0.20
0.11
0.04
0.03
0.06
0.13
0.23
0.39
0.58
0.76
0.87
0.84
0.68
0.46
0.25
0.10
0.02
0.01
0.03
0.08
0.16
0.25
0.34
0.39
0.37
0.28
0.14
-0.04
-0.24
-0.43
-0.61
-0.78
-0.92
-1.03
-1.07
-1.02
-0.86
-0.60
-0.29
0.01
0.24
0.37
0.40
0.36
0.26
0.06
-0.21
-0.52
-0.78
-0.90
-0.83
-0.60
-0.31
-0.09
0.01
-0.03
-0.13
-0.23
-0.26
-0.24
-0.19
-0.15
-0.15
-0.21
-0.32
-0.46
-0.60
-0.72
-0.79
-0.79
-0.68
-0.49
-0.23
0.07
0.35
0.59
0.73
0.78
0.74
0.63
0.50
0.38
0.28
0.21
0.15
0.11
0.08
0.06
0.05
0.05
0.06
0.03
-0.02
-0.12
-0.25
-0.38
-0.47
-0.46
-0.36
-0.19
0.00
0.14
0.21
0.21
0.16
0.13
0.14
0.20
0.30
0.43
0.55
0.61
0.57
0.42
0.14
-0.19
-0.48
-0.61
-0.54
-0.26
0.10
0.38
0.42
0.15
-0.35
-0.94
-1.43
-1.70
-1.75
-1.69
-1.64
-1.71
-1.94
-2.34
-2.86
-3.48
-4.12
-4.71
-5.15
-5.45
-5.67
-5.96
-6.45
-7.22
-8.22
-9.35
-10.50
-11.64
-12.80
-14.07
-15.48
-17.04
-18.68
-20.36
-22.09
-23.94
-25.99
-28.35
-31.10
-34.26
-37.88
-41.94
-46.36
-51.03
-55.83
-60.68
-65.56
-70.56
-75.77
-81.24
-87.00
-92.99
-99.07
-105.10
-110.98
-116.73
-122.62
-129.23
-137.13
-146.42
-156.10
-163.79
-166.09
-159.49
-141.56
-111.64
-70.95
-22.13
31.35
85.53
136.16
178.93
210.11
227.52
231.44
224.78
212.34
199.25
189.35
184.21
183.18
184.24
185.21
184.75
182.67
179.52
175.90
171.83
166.74
159.94
151.21
140.71
128.26
112.58
91.25
62.07
25.06
-16.17
-54.75
-83.17
-96.49
-94.67
-82.42
-66.72
-53.45
-45.05
-40.29
-35.97
-29.25
-19.25
-7.22
4.23
12.54
16.06
14.52
8.76
0.31
-9.24
-18.59
-26.93
-33.81
-38.88
-41.76
-42.10
-39.78
-35.20
-29.33
-23.35
-18.31
-14.84
-13.06
-12.89
-14.28
-17.23
-21.56
-26.78
-32.02
-36.35
-39.18
-40.57
-41.14
-41.68
-42.72
-44.27
-45.95
-47.31
-48.19
-48.77
-49.45
-50.60
-52.52
-55.44
-59.72
-65.78
-73.98
-84.18
-95.54
-106.61
-115.89
-122.56
-127.12
-131.43
-137.97
-148.59
-163.24
-179.33
-192.28
-196.94
-189.34
-167.82
-133.23
-88.24
-36.52
17.92
70.92
118.31
156.21
181.87
194.47
195.63
188.93
178.82
169.23
162.57
159.53
159.59
161.55
164.22
166.69
168.49
169.62
170.49
171.74
173.86
176.96
180.69
184.37
187.44
189.74
191.65
193.92
197.25
202.04
208.26
215.56
223.25
230.23
234.87
235.01
228.42
213.49
189.87
158.70
122.10
82.21
40.21
-3.90
-50.59
-99.49
-148.42
-193.30
-229.39
-253.07
-263.33
-262.10
-253.29
-241.06
-228.43
-216.61
-205.57
-194.98
-185.03
-176.47
-170.09
-166.02
-163.43
-160.94
-157.33
-152.27
-146.46
-141.35
-138.32
-138.02
-140.06
-143.23
-146.16
-147.99
-148.80
-149.53
-151.50
-155.78
-162.83
-172.39
-183.59
-195.11
-205.10
-211.26
-211.01
-202.09
-183.16
-154.34
-117.15
-73.78
-26.19
24.40
77.18
130.77
182.43
228.15
263.94
287.40
298.65
299.78
293.10
279.49
258.06
227.37
187.45
141.40
95.39
57.00
32.79
26.14
36.55
60.11
90.99
123.03
151.25
172.87
187.73
197.95
206.73
216.57
227.70
237.50
241.20
233.72
211.72
175.20
127.75
75.60
25.82
-15.79
-46.04
-64.73
-73.84
-76.36
-75.06
-71.73
-67.14
-61.46
-54.59
-46.44
-37.14
-27.41
-18.81
-13.76
-14.90
-23.90
-40.30
-61.15
-81.94
-98.32
-107.74
-110.19
-107.58
-102.39
-96.37
-90.16
-83.80
-77.44
-71.76
-67.65
-65.54
-64.93
-64.54
-62.91
-59.11
-53.20
-46.18
-39.51
-34.44
-31.58
-30.66
-30.82
-30.95
-30.15
-28.13
-25.19
-22.10
-19.69
-18.49
-18.53
-19.34
-20.24
-20.62
-20.21
-19.20
-18.03
-17.25
-17.21
-18.00
-19.44
-21.20
-22.90
-24.30
-25.31
-26.09
-26.95
-28.31
-30.56
-33.91
-38.32
-43.48
-48.93
-54.17
-58.91
-63.11
-67.00
-70.96
-75.33
-80.34
-86.05
-92.33
-98.84
-105.01
-110.14
-113.75
-115.95
-117.47
-119.28
-121.66
-123.44
-121.87
-113.25
-94.25
-63.13
-20.31
31.78
89.32
147.80
202.45
248.80
283.31
304.21
312.19
310.51
304.19
298.32
296.36
298.77
302.97
304.35
297.83
279.54
247.71
203.00
148.23
87.89
27.60
-26.77
-69.97
-98.61
-112.01
-112.37
-104.05
-92.07
-80.52
-71.71
-66.07
-62.92
-61.29
-60.29
-59.23
-57.47
-54.41
-49.81
-43.98
-37.85
-32.61
-29.37
-28.69
-30.42
-33.89
-38.16
-42.30
-45.66
-47.85
-48.84
-48.77
-47.89
-46.42
-44.53
-42.29
-39.71
-36.84
-33.82
-30.88
-28.22
-25.97
-24.12
-22.52
-20.98
-19.38
-17.65
-15.85
-14.09
-12.52
-11.26
-10.36
-9.81
-9.50
-9.26
-8.89
-8.28
-7.40
-6.34
-5.23
-4.24
-3.43
-2.85
-2.45
-2.20
-2.04
-1.95
-1.90
-1.88
-1.92
-2.00
-2.11
-2.24
-2.35
-2.42
-2.41
-2.35
-2.21
-1.98
-1.62
-1.13
-0.51
0.12
0.61
0.81
0.62
0.05
-0.81
-1.87
-3.00
-4.12
-5.13
-5.95
-6.44
-6.48
-6.02
-5.07
-3.71
-2.14
-0.52
0.94
2.12
2.95
3.49
3.83
4.08
4.31
4.52
4.62
4.52
4.22
3.76
3.28
2.91
2.74
2.78
2.98
3.29
3.69
4.26
5.15
6.45
8.15
10.03
11.68
12.66
12.62
11.50
9.51
7.06
4.56
2.28
0.29
-1.43
-2.91
-4.10
-4.94
-5.42
-5.64
-5.79
-6.04
-6.48
-7.05
-7.62
-8.07
-8.36
-8.56
-8.80
-9.18
-9.76
-10.47
-11.13
-11.55
-11.60
-11.31
-10.90
-10.71
-11.05
-12.04
-13.55
-15.26
-16.92
-18.48
-20.19
-22.44
-25.48
-29.24
-33.25
-36.87
-39.60
-41.38
-42.64
-44.09
-46.43
-49.93
-54.41
-59.28
-63.92
-68.02
-71.66
-75.21
-79.09
-83.45
-88.16
-93.00
-97.91
-102.98
-108.06
-112.36
-113.94
-110.03
-97.77
-75.15
-41.57
2.19
54.51
113.41
176.32
239.55
297.72
344.05
371.68
375.60
354.40
311.09
252.63
188.19
