1660932327.00
64.000000
-0.00
-0.00
-0.00
-0.00
-0.00
-0.00
-0.00
-0.00
-0.00
-0.00
0.00
0.01
0.01
-0.00
-0.03
-0.05
-0.05
0.00
0.13
0.36
0.66
1.01
1.37
1.72
2.06
2.40
2.79
3.25
3.81
4.44
5.09
5.73
6.32
6.90
7.53
8.27
9.15
10.25
11.47
12.67
13.76
14.71
15.60
16.61
17.97
19.80
22.29
25.22
28.30
31.27
33.99
36.60
39.44
42.95
47.42
53.14
59.71
66.60
73.27
79.49
85.45
91.75
99.07
107.84
118.41
130.12
142.09
153.55
164.20
174.36
184.90
197.14
209.55
224.02
240.77
259.76
279.93
298.82
312.63
317.12
308.94
286.83
252.53
209.30
161.16
111.53
62.52
15.08
-30.41
-73.63
-114.19
-151.69
-186.77
-220.78
-255.37
-291.59
-328.90
-364.72
-394.78
-414.58
-420.87
-413.11
-393.71
-367.05
-337.78
-309.24
-282.83
-258.42
-235.31
-213.10
-192.12
-172.98
-156.01
-140.93
-126.92
-113.13
-99.07
-84.86
-71.14
-58.67
-48.02
-39.25
-31.97
-25.54
-19.34
-13.06
-6.75
-0.78
4.47
8.73
12.04
14.68
17.03
19.38
21.77
24.06
25.98
27.31
27.98
28.09
27.84
27.44
27.00
26.59
26.17
25.67
25.07
24.33
23.48
22.56
21.61
20.68
19.78
18.89
18.01
17.17
16.41
15.77
15.29
14.95
14.71
14.52
14.36
14.20
14.03
13.82
13.54
13.19
12.79
12.41
12.11
11.89
11.73
11.55
11.29
10.94
10.54
10.17
9.90
9.70
9.52
9.29
8.99
8.65
8.37
8.23
8.27
8.48
8.80
9.14
9.40
9.49
9.33
8.88
8.13
7.16
6.05
4.91
3.86
2.94
2.17
1.56
1.11
0.78
0.53
0.30
0.04
-0.30
-0.71
-1.14
-1.51
-1.81
-2.06
-2.32
-2.67
-3.14
-3.70
-4.27
-4.76
-5.17
-5.52
-5.87
-6.24
-6.65
-7.07
-7.48
-7.83
-8.09
-8.20
-8.17
-8.00
-7.75
-7.46
-7.14
-6.76
-6.27
-5.63
-4.88
-4.10
-3.39
-2.80
-2.33
-1.94
-1.60
-1.30
-1.08
-0.96
-0.90
-0.86
-0.76
-0.58
-0.36
-0.17
-0.07
-0.04
-0.05
-0.00
0.14
0.40
0.70
1.01
1.28
1.51
1.73
1.94
2.13
2.28
2.40
2.54
2.76
3.14
3.65
4.22
4.75
5.14
5.38
5.50
5.57
5.63
5.66
5.62
5.48
5.24
4.95
4.68
4.48
4.38
4.37
4.42
4.47
4.47
4.37
4.16
3.82
3.39
2.90
2.42
2.02
1.76
1.66
1.68
1.78
1.87
1.92
1.92
1.94
2.02
2.17
2.35
2.47
2.47
2.32
2.05
1.71
1.35
1.00
0.72
0.57
0.58
0.75
1.01
1.23
1.28
1.10
0.72
0.26
-0.10
-0.21
0.02
0.57
1.41
2.40
3.42
4.30
4.90
5.15
5.02
4.58
3.95
3.24
2.51
1.77
1.04
0.31
-0.36
-0.91
-1.30
-1.50
-1.54
-1.44
-1.21
-0.85
-0.37
0.18
0.75
1.29
1.78
2.22
2.65
3.09
3.54
3.99
4.41
4.80
5.12
5.37
5.50
5.53
5.46
5.36
5.29
5.26
5.20
4.99
4.52
3.76
2.85
2.00
1.44
1.32
1.57
2.00
2.33
2.32
1.85
0.96
-0.18
-1.35
-2.32
-2.91
-3.06
-2.80
-2.25
-1.58
-0.99
-0.61
-0.48
-0.57
-0.79
-1.03
-1.26
-1.49
-1.74
-2.03
-2.29
-2.43
-2.39
-2.18
-1.91
-1.71
-1.69
-1.83
-2.04
-2.18
-2.20
-2.11
-1.94
-1.75
-1.51
-1.18
-0.75
-0.27
0.17
0.48
0.63
0.66
0.67
0.71
0.79
0.90
0.99
1.05
1.09
1.14
1.21
1.27
1.28
1.19
1.00
0.75
0.52
0.38
0.38
0.49
0.64
0.77
0.81
0.77
0.69
0.59
0.48
0.38
0.31
0.31
0.42
0.66
0.96
1.21
1.29
1.14
0.76
0.22
-0.38
-0.93
-1.38
-1.69
-1.88
-2.02
-2.15
-2.30
-2.42
-2.44
-2.31
-2.06
-1.76
-1.53
-1.40
-1.35
-1.28
-1.10
-0.75
-0.25
0.42
1.27
2.36
3.68
5.14
6.54
7.65
8.31
8.52
8.38
8.06
7.68
7.24
6.73
6.08
5.32
4.51
3.73
3.03
2.34
1.60
0.78
-0.08
-0.82
-1.31
-1.50
-1.48
-1.40
-1.43
-1.60
-1.82
-1.92
-1.75
-1.30
-0.68
-0.12
0.18
0.16
-0.13
-0.53
-0.86
-1.01
-0.97
-0.81
-0.65
-0.58
-0.58
-0.61
-0.57
-0.42
-0.20
0.03
0.18
0.21
0.18
0.15
0.19
0.26
0.29
0.23
0.10
0.01
0.05
0.24
0.49
0.63
0.55
0.21
-0.25
-0.68
-0.95
-1.02
-0.95
-0.82
-0.70
-0.60
-0.50
-0.40
-0.35
-0.40
-0.58
-0.88
-1.20
-1.46
-1.58
-1.55
-1.44
-1.35
-1.34
-1.42
-1.52
-1.54
-1.43
-1.20
-0.94
-0.73
-0.64
-0.67
-0.80
-0.98
-1.18
-1.41
-1.61
-1.75
-1.81
-1.78
-1.69
-1.58
-1.51
-1.47
-1.46
-1.45
-1.43
-1.43
-1.47
-1.58
-1.79
-2.08
-2.42
-2.73
-2.95
-3.03
-2.98
-2.84
-2.65
-2.48
-2.37
-2.33
-2.38
-2.47
-2.53
-2.45
-2.13
-1.56
-0.82
-0.03
0.72
1.45
2.30
3.42
4.84
6.43
7.90
8.95
9.40
9.28
8.71
7.85
6.79
5.60
4.32
3.14
2.24
1.78
1.74
1.95
2.18
2.24
2.12
1.92
1.78
1.76
1.84
1.94
1.99
1.99
1.98
1.99
2.00
1.95
1.80
1.56
1.29
1.07
0.94
0.92
0.95
0.99
0.98
0.87
0.70
0.51
0.43
0.51
0.76
1.09
1.36
1.41
1.17
0.69
0.08
-0.55
-1.12
-1.61
-2.06
-2.53
-3.04
-3.59
-4.16
-4.70
-5.12
-5.32
-5.23
-4.86
-4.35
-3.94
-3.91
-4.47
-5.73
-7.60
-9.88
-12.27
-14.50
-16.37
-17.83
-18.94
-19.87
-20.79
-21.88
-23.22
-24.78
-26.52
-28.43
-30.58
-33.13
-36.23
-39.92
-44.05
-48.29
-52.26
-55.76
-58.87
-61.99
-65.61
-70.17
-75.76
-82.17
-89.01
-95.95
-102.86
-109.84
-117.07
-124.74
-132.94
-141.83
-151.71
-162.85
-175.07
-187.15
-196.59
-199.98
-194.03
-176.65
-147.69
-108.84
-62.91
-12.91
38.37
88.40
134.50
173.90
204.15
223.97
233.85
235.98
233.53
229.44
225.66
222.91
221.19
220.33
220.39
221.61
224.09
227.48
231.06
234.02
235.95
237.09
238.26
240.42
244.20
249.60
256.00
262.37
267.50
270.03
268.37
260.87
246.13
223.46
193.26
156.90
116.11
72.17
25.55
-23.64
-74.61
-124.88
-170.30
-206.10
-228.85
-237.88
-235.64
-226.54
-214.97
-203.71
-193.39
-183.15
-171.98
-159.76
-147.48
-136.59
-128.10
-121.94
-117.05
-111.95
-105.43
-97.09
-87.60
-78.28
-70.68
-65.86
-63.94
-63.94
-64.08
-62.48
-57.94
-50.60
-41.98
-34.39
-29.98
-29.64
-32.54
-36.35
-38.29
-36.33
-30.17
-21.29
-12.23
-5.58
-2.97
-4.81
-10.31
-17.56
-23.43
-23.51
-13.08
10.90
47.27
89.37
126.24
146.56
143.49
117.96
78.37
36.75
3.51
-16.42
-24.15
-24.38
-21.87
-19.05
-15.97
-11.83
-6.74
-2.27
-0.64
-3.18
-9.43
-17.13
-23.26
-25.55
-23.44
-18.26
-12.49
-8.61
-7.96
-10.33
-14.12
-17.18
-17.84
-15.57
-11.15
-6.19
-2.38
-0.77
-1.38
-3.38
-5.57
-6.93
-7.04
-6.08
-4.67
-3.44
-2.80
-2.86
-3.41
-4.13
-4.70
-4.89
-4.64
-4.01
-3.20
-2.44
-1.95
-1.80
-1.89
-2.05
-2.10
-1.97
-1.70
-1.44
-1.28
-1.23
-1.23
-1.15
-0.91
-0.52
-0.03
0.48
0.96
1.41
1.86
2.32
2.75
3.05
3.11
2.84
2.25
1.46
0.69
0.10
-0.21
-0.32
-0.39
-0.59
-1.01
-1.59
-2.18
-2.60
-2.75
-2.67
-2.50
-2.39
-2.44
-2.66
-2.91
-3.05
-2.95
-2.55
-1.94
-1.27
-0.73
-0.45
-0.46
-0.66
-0.88
-0.91
-0.53
0.44
2.02
4.07
6.24
8.02
8.91
8.67
7.37
5.47
3.58
2.22
1.60
1.57
1.77
1.84
1.63
1.22
0.83
0.62
0.54
0.41
-0.02
-0.85
-1.96
-3.05
-3.81
-4.04
-3.77
-3.19
-2.58
-2.12
-1.85
-1.70
-1.55
-1.29
-0.91
-0.45
-0.01
0.32
0.50
0.52
0.42
0.24
0.06
-0.10
-0.25
-0.42
-0.64
-0.93
-1.23
-1.52
-1.79
-2.10
-2.54
-3.18
-4.00
-4.85
-5.56
-5.93
-5.88
-5.42
-4.66
-3.77
-2.89
-2.19
-1.76
-1.66
-1.81
-2.00
-1.90
-1.17
0.45
2.95
6.08
9.35
12.20
14.20
15.07
14.80
13.55
11.62
9.36
7.10
5.10
3.50
2.31
1.43
0.71
0.05
-0.58
-1.17
-1.73
-2.29
-2.92
-3.67
-4.50
-5.26
-5.78
-5.89
-5.56
-4.87
-3.97
-3.03
-2.15
-1.42
-0.86
-0.49
-0.34
-0.39
-0.58
-0.84
-1.09
-1.32
-1.55
-1.82
-2.11
-2.39
-2.57
-2.58
-2.38
-2.02
-1.61
-1.26
-1.06
-1.05
-1.19
-1.43
-1.70
-1.91
-1.98
-1.84
-1.45
-0.89
-0.29
0.18
0.36
0.25
-0.01
-0.16
0.08
0.88
2.29
4.20
6.32
8.31
9.81
10.52
10.33
9.36
7.89
6.29
4.83
3.62
2.60
1.67
0.80
0.03
-0.55
-0.90
-1.11
-1.36
-1.81
-2.53
-3.49
-4.53
-5.43
-6.02
-6.19
-5.96
-5.43
-4.77
-4.20
-3.84
-3.75
-3.83
-3.89
-3.75
-3.25
-2.37
-1.21
0.01
1.06
1.79
2.12
2.07
1.71
1.12
0.36
-0.44
-1.09
-1.37
-1.11
-0.32
0.80
1.89
2.63
2.79
2.39
1.64
0.79
0.08
-0.39
-0.62
-0.71
-0.76
-0.87
-1.08
-1.37
-1.70
-1.96
-1.96
-1.48
-0.31
1.56
3.94
6.40
8.38
9.41
9.31
8.24
6.62
4.93
3.57
2.65
2.14
1.85
1.64
1.46
1.31
1.20
1.16
1.18
1.24
1.32
1.39
1.41
1.31
1.01
0.47
-0.32
-1.26
-2.24
-3.12
-3.77
-4.12
-4.15
-3.91
-3.46
-2.91
-2.36
-1.89
-1.55
-1.39
-1.42
-1.60
-1.87
-2.14
-2.32
-2.32
-2.09
-1.66
-1.10
-0.51
0.03
0.46
0.80
1.04
1.18
1.19
1.02
0.62
-0.01
-0.83
-1.74
-2.65
-3.46
-4.11
-4.57
-4.87
-5.07
-5.25
-5.47
-5.76
-6.16
-6.67
-7.19
-7.49
-7.21
-6.05
-3.94
-1.16
1.70
4.01
5.44
6.11
6.49
7.06
7.96
8.90
9.31
8.77
7.21
5.04
2.86
1.12
-0.09
-0.93
-1.65
-2.31
-2.76
-2.74
-2.10
-1.03
0.07
0.69
0.52
-0.46
-1.94
-3.45
-4.54
-4.94
-4.65
-3.96
-3.36
-3.28
-3.85
-4.77
-5.34
-4.76
-2.54
1.09
5.19
8.39
9.54
8.17
4.68
0.18
-4.08
-7.11
-8.55
-8.67
-8.16
-7.91
-8.72
-11.12
-15.17
-20.40
-25.90
-30.48
-33.05
-32.80
-29.34
-22.88
-14.22
-4.73
3.86
9.85
12.17
10.73
6.50
1.01
-4.42
-9.47
-14.87
-21.54
-29.18
-35.36
-36.04
-27.58
-9.13
16.14
41.93
61.51
70.80
69.84
62.16
52.33
43.47
36.09
28.85
20.29
10.35
0.55
-7.00
-11.02
-11.74
-10.70
-9.71
-9.93
-11.42
-13.19
-14.02
-13.15
-10.72
-7.72
-5.37
-4.50
-5.15
-6.59
-7.91
-8.55
-8.57
-8.48
-8.93
-10.25
-12.42
-15.18
-18.24
-21.34
-24.25
-26.67
-28.18
-28.44
-27.42
-25.53
-23.59
-22.57
-23.23
-25.87
-30.21
-35.57
-41.10
-46.10
-50.29
-53.86
-57.34
-61.34
-66.22
-72.00
-78.40
-85.10
-91.81
-98.41
-104.85
-111.07
-117.02
-122.92
-129.50
-137.69
-148.20
-160.54
-172.50
-180.31
-179.69
-167.17
-141.12
-102.22
-53.30
1.25
56.06
105.47
144.37
169.11
178.33
173.39
158.20
138.29
119.57
106.99
103.53
109.72
123.84
142.53
161.94
178.92
191.84
200.81
207.05
211.95
216.26
219.97
222.63
223.91
224.07
223.88
224.28
225.97
229.18
233.75
239.22
245.00
250.26
253.69
253.37
247.07
232.85
209.75
178.22
139.86
96.66
50.17
1.23
-49.49
-100.45
-148.62
-189.78
-219.82
-236.36
-239.84
-233.29
-221.05
-207.04
-193.58
-181.25
-169.62
-158.20
-147.12
-136.97
-128.32
-121.19
-114.93
-108.53
-101.19
-92.64
-83.34
-74.23
-66.26
-59.96
-55.25
-51.52
-47.91
-43.75
-38.82
-33.45
-28.31
-24.06
-21.07
-19.25
-18.13
-17.14
-15.82
-14.09
-12.14
-10.34
-8.98
-8.14
-7.67
-7.33
-6.95
-6.47
-5.98
-5.57
-5.29
-5.13
-5.01
-4.87
-4.64
-4.23
-3.52
-2.36
-0.66
1.57
4.16
6.84
9.39
11.68
13.72
15.55
17.15
18.28
18.59
17.70
15.44
11.98
7.81
3.63
0.06
-2.51
-4.02
-4.63
-4.60
-4.15
-3.44
-2.57
-1.63
-0.73
-0.01
0.41
0.46
0.19
-0.28
-0.72
-0.92
-0.77
-0.35
0.14
0.44
0.38
-0.06
-0.74
-1.44
-1.99
-2.33
-2.50
-2.58
-2.66
-2.78
-2.92
-3.04
-3.12
-3.15
-3.16
-3.18
-3.19
-3.18
-3.10
-2.90
-2.56
-2.12
-1.62
-1.11
-0.64
-0.23
0.14
0.42
0.62
0.70
0.66
0.52
0.34
0.18
0.10
0.15
0.34
0.60
0.83
0.90
0.72
0.28
-0.30
-0.89
-1.32
-1.53
-1.52
-1.34
-1.05
-0.71
-0.38
-0.09
0.12
0.23
0.26
0.26
0.31
0.44
0.68
1.00
1.35
1.65
1.83
1.85
1.65
1.29
0.86
0.49
0.30
0.31
0.47
0.65
0.77
0.76
0.62
0.41
0.16
-0.10
-0.31
-0.48
-0.59
-0.68
-0.81
-1.00
-1.25
-1.51
-1.68
-1.72
-1.63
-1.45
-1.24
-1.02
-0.82
-0.63
-0.49
-0.42
-0.45
-0.53
-0.61
-0.65
-0.65
-0.66
-0.73
-0.85
-0.94
-0.93
-0.76
-0.51
-0.30
-0.24
-0.39
-0.70
-1.01
-1.21
-1.23
-1.09
-0.86
-0.58
-0.28
0.05
0.41
0.74
0.98
1.09
1.08
1.00
0.93
0.91
0.89
0.83
0.70
0.50
0.29
0.13
0.04
0.01
-0.02
-0.09
-0.21
-0.35
-0.46
-0.49
-0.45
-0.36
-0.28
-0.24
-0.25
-0.23
-0.15
0.01
0.23
0.42
0.54
0.55
0.51
0.52
0.63
0.87
1.18
1.49
1.74
1.91
2.01
2.04
2.00
1.87
1.65
1.40
1.17
1.00
0.88
0.77
0.61
0.37
0.12
-0.05
-0.05
0.15
0.47
0.77
0.88
0.72
0.31
-0.22
-0.71
-1.00
-1.04
-0.89
-0.68
-0.53
-0.52
-0.62
-0.75
-0.85
-0.89
-0.94
-1.02
-1.16
-1.27
-1.27
-1.08
-0.75
-0.39
-0.12
-0.05
-0.16
-0.37
-0.56
-0.63
