1660931752.00
64.000000
-0.00
-0.00
-0.00
-0.00
-0.00
-0.00
-0.00
-0.00
-0.00
-0.00
0.00
0.01
0.01
-0.00
-0.03
-0.05
-0.05
0.00
0.13
0.36
0.66
1.01
1.37
1.72
2.06
2.40
2.79
3.25
3.81
4.44
5.09
5.73
6.32
6.90
7.52
8.26
9.15
10.26
11.49
12.71
13.81
14.76
15.65
16.66
18.01
19.84
22.34
25.29
28.39
31.36
34.09
36.68
39.52
43.03
47.50
53.25
59.86
66.79
73.48
79.70
85.64
91.92
99.24
108.04
118.68
130.48
142.55
154.07
164.72
174.85
185.34
197.57
210.05
224.67
241.62
260.80
281.10
300.00
313.75
318.15
309.94
287.94
253.89
210.98
163.14
113.71
64.74
17.21
-28.39
-71.66
-112.13
-149.42
-184.17
-217.75
-251.86
-287.64
-324.75
-360.82
-391.78
-413.10
-421.23
-415.21
-397.05
-370.97
-341.72
-312.96
-286.41
-262.02
-239.04
-216.85
-195.64
-176.03
-158.53
-143.01
-128.78
-114.95
-100.96
-86.84
-73.10
-60.52
-49.65
-40.61
-33.07
-26.40
-20.01
-13.53
-6.99
-0.72
4.80
9.21
12.42
14.67
16.40
18.06
19.92
21.95
23.88
25.39
26.24
26.41
26.11
25.63
25.21
25.01
25.00
25.04
24.95
24.59
23.90
22.95
21.90
20.94
20.22
19.78
19.52
19.26
18.84
18.22
17.46
16.74
16.20
15.86
15.62
15.33
14.87
14.25
13.59
13.02
12.66
12.47
12.36
12.20
11.92
11.53
11.06
10.59
10.16
9.78
9.45
9.16
8.91
8.69
8.50
8.33
8.16
8.00
7.81
7.59
7.32
7.04
6.82
6.70
6.72
6.81
6.85
6.71
6.34
5.80
5.20
4.65
4.21
3.84
3.45
3.02
2.56
2.15
1.84
1.60
1.33
0.94
0.40
-0.24
-0.87
-1.39
-1.82
-2.22
-2.69
-3.27
-3.99
-4.78
-5.59
-6.36
-7.04
-7.59
-7.99
-8.23
-8.31
-8.29
-8.22
-8.15
-8.11
-8.09
-8.06
-7.96
-7.76
-7.46
-7.07
-6.63
-6.15
-5.63
-5.06
-4.42
-3.77
-3.14
-2.60
-2.15
-1.75
-1.35
-0.89
-0.40
0.04
0.35
0.53
0.60
0.68
0.84
1.11
1.45
1.81
2.13
2.41
2.64
2.85
3.01
3.11
3.15
3.15
3.16
3.21
3.31
3.43
3.53
3.59
3.62
3.62
3.64
3.66
3.66
3.63
3.56
3.49
3.47
3.56
3.77
4.04
4.30
4.44
4.44
4.31
4.11
3.94
3.81
3.73
3.65
3.57
3.49
3.47
3.53
3.68
3.86
4.00
4.04
3.97
3.81
3.62
3.47
3.38
3.33
3.29
3.22
3.10
2.94
2.76
2.58
2.40
2.20
1.94
1.62
1.23
0.85
0.54
0.39
0.43
0.64
0.93
1.18
1.30
1.24
1.03
0.78
0.61
0.61
0.80
1.15
1.56
1.93
2.17
2.28
2.26
2.19
2.11
2.03
1.94
1.82
1.67
1.52
1.44
1.43
1.45
1.43
1.31
1.12
0.94
0.94
1.19
1.64
2.14
2.49
2.52
2.23
1.73
1.20
0.79
0.57
0.51
0.50
0.47
0.39
0.29
0.21
0.17
0.14
0.09
0.03
-0.00
0.07
0.28
0.64
1.05
1.41
1.60
1.58
1.38
1.07
0.76
0.56
0.53
0.68
0.96
1.25
1.44
1.45
1.29
1.02
0.75
0.53
0.41
0.37
0.39
0.45
0.57
0.72
0.87
0.99
1.04
1.00
0.92
0.83
0.74
0.67
0.60
0.52
0.42
0.30
0.17
0.02
-0.12
-0.20
-0.17
0.01
0.31
0.65
0.88
0.89
0.68
0.30
-0.07
-0.27
-0.16
0.24
0.78
1.24
1.44
1.30
0.93
0.50
0.21
0.16
0.30
0.49
0.60
0.55
0.38
0.19
0.08
0.10
0.23
0.42
0.62
0.77
0.85
0.85
0.80
0.74
0.71
0.72
0.74
0.74
0.69
0.59
0.49
0.43
0.43
0.49
0.54
0.53
0.47
0.35
0.22
0.07
-0.08
-0.22
-0.31
-0.32
-0.20
0.03
0.29
0.52
0.63
0.61
0.49
0.32
0.17
0.08
0.06
0.11
0.20
0.31
0.38
0.39
0.35
0.31
0.35
0.48
0.68
0.86
0.93
0.81
0.56
0.26
0.04
-0.05
-0.03
0.05
0.12
0.13
0.11
0.09
0.09
0.09
0.03
-0.10
-0.29
-0.48
-0.60
-0.56
-0.38
-0.08
0.23
0.50
0.68
0.76
0.75
0.66
0.49
0.26
0.03
-0.16
-0.21
-0.13
0.05
0.24
0.36
0.38
0.31
0.22
0.16
0.15
0.14
0.10
0.01
-0.07
-0.08
0.01
0.19
0.39
0.52
0.52
0.42
0.30
0.26
0.33
0.48
0.62
0.66
0.56
0.35
0.09
-0.16
-0.39
-0.56
-0.67
-0.70
-0.63
-0.47
-0.29
-0.11
0.03
0.16
0.31
0.49
0.66
0.78
0.82
0.76
0.67
0.57
0.52
0.49
0.45
0.41
0.33
0.22
0.04
-0.23
-0.59
-1.00
-1.34
-1.50
-1.42
-1.12
-0.68
-0.24
0.10
0.26
0.23
0.05
-0.21
-0.47
-0.67
-0.77
-0.80
-0.77
-0.65
-0.39
0.08
0.78
1.62
2.42
2.97
3.11
2.83
2.24
1.55
0.93
0.46
0.14
-0.08
-0.28
-0.47
-0.60
-0.61
-0.45
-0.16
0.17
0.44
0.54
0.49
0.37
0.30
0.34
0.49
0.63
0.64
0.46
0.15
-0.16
-0.33
-0.31
-0.17
-0.06
-0.07
-0.21
-0.41
-0.56
-0.58
-0.48
-0.35
-0.24
-0.19
-0.14
-0.06
0.11
0.32
0.50
0.58
0.54
0.39
0.17
-0.07
-0.32
-0.53
-0.65
-0.64
-0.50
-0.26
-0.00
0.18
0.25
0.24
0.18
0.13
0.10
0.06
-0.02
-0.11
-0.18
-0.16
-0.03
0.19
0.41
0.53
0.51
0.35
0.13
-0.05
-0.08
0.07
0.32
0.56
0.65
0.54
0.25
-0.12
-0.43
-0.63
-0.71
-0.73
-0.73
-0.73
-0.69
-0.59
-0.45
-0.28
-0.13
-0.01
0.09
0.21
0.35
0.50
0.62
0.67
0.68
0.68
0.74
0.83
0.92
0.90
0.70
0.33
-0.12
-0.53
-0.79
-0.84
-0.73
-0.54
-0.36
-0.23
-0.19
-0.20
-0.25
-0.33
-0.43
-0.50
-0.49
-0.35
-0.06
0.34
0.73
0.98
1.02
0.85
0.59
0.37
0.27
0.31
0.40
0.43
0.37
0.27
0.22
0.33
0.59
0.91
1.13
1.11
0.80
0.30
-0.23
-0.60
-0.68
-0.46
-0.05
0.39
0.72
0.84
0.73
0.47
0.18
-0.05
-0.18
-0.23
-0.26
-0.33
-0.44
-0.55
-0.60
-0.58
-0.54
-0.53
-0.60
-0.75
-0.88
-0.91
-0.79
-0.56
-0.35
-0.26
-0.31
-0.44
-0.52
-0.46
-0.22
0.14
0.51
0.78
0.91
0.87
0.70
0.41
0.08
-0.23
-0.47
-0.59
-0.59
-0.50
-0.35
-0.19
-0.05
0.07
0.15
0.16
0.11
0.03
0.00
0.10
0.34
0.68
0.98
1.10
0.98
0.64
0.22
-0.11
-0.22
-0.10
0.17
0.41
0.50
0.37
0.08
-0.25
-0.52
-0.66
-0.72
-0.77
-0.86
-1.00
-1.11
-1.14
-1.02
-0.77
-0.41
-0.02
0.32
0.55
0.61
0.48
0.21
-0.08
-0.26
-0.24
-0.02
0.30
0.57
0.69
0.67
0.54
0.40
0.30
0.24
0.19
0.14
0.11
0.12
0.20
0.31
0.43
0.49
0.46
0.33
0.14
-0.07
-0.26
-0.41
-0.51
-0.59
-0.69
-0.82
-0.93
-0.97
-0.85
-0.57
-0.17
0.25
0.57
0.72
0.68
0.50
0.28
0.10
0.04
0.10
0.28
0.51
0.71
0.77
0.67
0.40
0.07
-0.18
-0.25
-0.13
0.10
0.33
0.44
0.42
0.32
0.24
0.24
0.29
0.33
0.26
0.07
-0.20
-0.43
-0.50
-0.37
-0.11
0.16
0.31
0.28
0.12
-0.08
-0.21
-0.24
-0.18
-0.12
-0.10
-0.13
-0.16
-0.16
-0.08
0.06
0.20
0.33
0.44
0.53
0.59
0.59
0.48
0.28
0.03
-0.18
-0.28
-0.23
-0.05
0.21
0.45
0.57
0.54
0.33
0.01
-0.33
-0.61
-0.77
-0.81
-0.78
-0.75
-0.73
-0.73
-0.68
-0.50
-0.20
0.18
0.53
0.73
0.75
0.59
0.32
0.05
-0.13
-0.18
-0.08
0.08
0.20
0.17
-0.04
-0.40
-0.78
-1.05
-1.09
-0.91
-0.60
-0.29
-0.09
-0.00
0.01
0.02
0.02
-0.02
-0.14
-0.32
-0.49
-0.56
-0.44
-0.19
0.10
0.29
0.31
0.19
0.04
-0.00
0.14
0.41
0.71
0.90
0.92
0.79
0.60
0.47
0.45
0.53
0.63
0.67
0.60
0.44
0.24
0.06
-0.05
-0.09
-0.10
-0.11
-0.15
-0.20
-0.23
-0.20
-0.15
-0.12
-0.16
-0.27
-0.40
-0.46
-0.40
-0.26
-0.13
-0.12
-0.27
-0.50
-0.68
-0.71
-0.56
-0.36
-0.26
-0.35
-0.62
-0.94
-1.19
-1.28
-1.21
-1.04
-0.81
-0.50
-0.10
0.38
0.85
1.18
1.29
1.15
0.89
0.67
0.60
0.70
0.90
1.07
1.12
1.04
0.87
0.69
0.51
0.35
0.18
-0.03
-0.26
-0.49
-0.68
-0.82
-0.91
-0.96
-0.98
-0.98
-0.94
-0.86
-0.75
-0.61
-0.47
-0.35
-0.27
-0.22
-0.18
-0.15
-0.07
0.07
0.32
0.66
1.07
1.47
1.78
1.96
2.04
2.07
2.08
2.08
2.03
1.90
1.71
1.52
1.38
1.32
1.31
1.27
1.17
0.99
0.77
0.55
0.33
0.11
-0.11
-0.30
-0.37
-0.28
-0.04
0.25
0.47
0.57
0.55
0.52
0.58
0.76
1.00
1.19
1.25
1.17
1.06
1.04
1.16
1.37
1.51
1.45
1.16
0.77
0.51
0.57
0.97
1.57
2.09
2.32
2.18
1.77
1.31
0.96
0.77
0.67
0.55
0.38
0.23
0.23
0.47
0.90
1.38
1.67
1.59
1.09
0.21
-0.92
-2.19
-3.48
-4.70
-5.75
-6.52
-6.92
-6.93
-6.66
-6.30
-6.11
-6.25
-6.71
-7.32
-7.84
-8.04
-7.79
-7.15
-6.22
-5.16
-4.10
-3.14
-2.37
-1.82
-1.48
-1.30
-1.15
-0.94
-0.58
-0.04
0.71
1.72
2.99
4.49
6.05
7.41
8.35
8.71
8.51
7.91
7.09
6.23
5.40
4.63
3.88
3.13
2.38
1.60
0.81
0.05
-0.59
-1.00
-1.09
-0.86
-0.45
-0.04
0.16
0.04
-0.38
-0.93
-1.42
-1.66
-1.59
-1.22
-0.64
0.05
0.73
1.26
1.51
1.37
0.81
-0.07
-1.06
-1.94
-2.55
-2.92
-3.19
-3.58
-4.22
-5.07
-6.00
-6.80
-7.31
-7.54
-7.59
-7.57
-7.58
-7.61
-7.57
-7.39
-7.09
-6.71
-6.29
-5.76
-4.95
-3.66
-1.81
0.50
2.94
5.19
6.96
8.22
9.06
9.68
10.16
10.48
10.53
10.23
9.55
8.62
7.61
6.70
5.97
5.43
5.04
4.74
4.46
4.18
3.84
3.43
2.94
2.43
1.97
1.63
1.45
1.36
1.28
1.10
0.83
0.50
0.19
-0.07
-0.33
-0.73
-1.37
-2.26
-3.32
-4.36
-5.22
-5.79
-6.08
-6.14
-6.11
-6.08
-6.15
-6.36
-6.72
-7.21
-7.72
-8.17
-8.44
-8.48
-8.26
-7.79
-7.14
-6.36
-5.52
-4.65
-3.84
-3.17
-2.70
-2.47
-2.46
-2.57
-2.63
-2.52
-2.14
-1.53
-0.80
-0.11
0.37
0.55
0.36
-0.16
-0.92
-1.77
-2.55
-3.12
-3.45
-3.64
-3.88
-4.35
-5.14
-6.18
-7.25
-8.12
-8.61
-8.67
-8.43
-8.12
-7.99
-8.18
-8.73
-9.46
-10.13
-10.42
-10.07
-8.98
-7.26
-5.20
-3.23
-1.84
-1.39
-1.96
-3.20
-4.40
-4.67
-3.22
0.28
5.66
12.28
19.32
26.04
31.90
36.60
39.98
41.97
42.59
42.04
40.73
39.21
37.93
37.10
36.60
36.09
35.22
33.73
31.56
28.76
25.45
21.73
17.72
13.48
9.04
4.32
-0.75
-6.22
-11.88
-17.31
-21.92
-25.18
-26.82
-26.95
-25.91
-24.15
-22.04
-19.77
-17.44
-15.10
-12.91
-11.03
-9.59
-8.65
-8.12
-7.88
-7.72
-7.49
-7.07
-6.43
-5.61
-4.71
-3.86
-3.19
-2.76
-2.52
-2.35
-2.14
-1.83
-1.44
-1.07
-0.79
-0.63
-0.54
-0.45
-0.29
-0.10
0.03
0.02
-0.19
-0.51
-0.81
-0.92
-0.76
-0.40
0.03
0.35
0.43
0.23
-0.14
-0.55
-0.86
-0.98
-0.91
-0.68
-0.40
-0.15
0.00
0.03
-0.04
-0.15
-0.24
-0.29
-0.30
-0.32
-0.40
-0.52
-0.67
-0.81
-0.94
-1.06
-1.18
-1.27
-1.28
-1.11
-0.75
-0.26
0.24
0.61
0.74
0.63
0.35
0.02
-0.24
-0.35
-0.31
-0.17
-0.01
0.11
0.16
0.20
0.29
0.44
0.62
0.71
0.63
0.37
-0.01
-0.40
-0.74
-1.01
-1.24
-1.44
-1.57
-1.56
-1.37
-1.04
-0.67
-0.44
-0.42
-0.62
-0.93
-1.25
-1.49
-1.62
-1.68
-1.67
-1.59
-1.41
-1.17
-0.95
-0.83
-0.87
-1.05
-1.23
-1.26
-1.06
-0.68
-0.23
0.13
0.33
0.38
0.35
0.27
0.16
0.01
-0.16
-0.30
-0.33
-0.23
-0.01
0.22
0.38
0.41
0.35
0.24
0.13
0.06
0.03
0.02
0.04
0.09
0.17
0.27
0.35
0.36
0.29
0.18
0.08
0.04
0.07
0.13
0.13
0.05
-0.13
-0.35
-0.52
-0.59
-0.56
-0.49
-0.44
-0.41
-0.39
-0.31
-0.15
0.04
0.17
0.18
0.02
-0.24
-0.48
-0.55
-0.37
0.02
0.51
0.92
1.11
0.97
0.50
-0.18
-0.93
-1.55
-1.90
-1.93
-1.68
-1.26
-0.77
-0.28
0.22
0.72
1.19
1.53
1.66
1.53
1.22
0.88
0.71
0.79
1.10
1.49
1.78
1.90
1.86
1.74
1.62
1.53
1.41
1.20
0.88
0.50
0.18
0.03
0.08
0.27
0.46
0.48
0.26
-0.18
-0.70
-1.13
-1.32
-1.28
-1.08
-0.85
-0.70
-0.68
-0.73
-0.80
-0.84
-0.84
-0.82
-0.79
-0.74
-0.69
-0.61
-0.50
-0.35
-0.15
0.11
0.42
0.71
0.92
0.99
0.92
0.74
0.53
0.33
0.15
-0.03
-0.23
-0.44
-0.63
-0.75
-0.76
-0.66
-0.49
-0.28
-0.09
0.06
0.17
0.27
0.38
0.48
0.54
0.53
0.44
0.31
0.20
0.14
0.14
0.12
0.05
-0.07
-0.19
-0.23
-0.15
0.02
0.17
0.22
0.12
-0.07
-0.27
-0.37
-0.35
-0.24
-0.12
-0.07
-0.10
-0.15
-0.15
-0.04
0.15
0.32
0.34
0.14
-0.25
-0.69
-0.97
-0.99
-0.75
-0.39
-0.08
0.08
0.12
0.12
0.16
0.25
0.31
0.27
0.12
-0.04
-0.07
0.11
0.46
0.83
1.06
1.09
0.96
0.82
0.78
0.83
0.88
0.79
0.52
0.10
-0.31
-0.59
-0.69
-0.65
-0.55
-0.49
-0.48
-0.49
-0.48
-0.43
-0.36
-0.30
-0.28
-0.30
-0.35
-0.39
-0.41
-0.40
-0.39
-0.42
-0.51
-0.65
-0.78
-0.85
-0.82
-0.68
-0.48
-0.27
-0.08
0.07
0.18
0.23
0.20
0.08
-0.08
-0.21
-0.24
-0.13
0.08
0.30
0.45
0.46
0.36
0.20
0.04
-0.09
-0.17
-0.19
-0.14
0.03
0.31
0.67
1.00
1.22
1.23
1.04
0.72
0.37
0.09
-0.05
-0.06
0.00
0.07
0.08
0.01
-0.12
-0.28
-0.43
-0.53
-0.56
-0.56
-0.54
-0.54
-0.59
-0.65
-0.69
-0.66
-0.54
-0.34
-0.14
0.02
0.12
0.16
0.20
0.23
0.23
0.13
-0.16
-0.60
-1.13
-1.64
-2.01
-2.19
-2.19
-2.08
-1.95
-1.88
-1.95
-2.17
-2.52
-2.91
-3.24
-3.39
-3.29
-2.94
-2.39
-1.77
-1.22
-0.90
-0.88
-1.17
-1.68
-2.26
-2.70
-2.83
-2.61
-2.19
-1.84
-1.93
-2.70
-4.12
-5.84
-7.34
-8.07
-7.73
-6.42
-4.58
-2.81
-1.62
-1.25
-1.58
-2.24
-2.73
-2.61
-1.64
0.11
2.28
4.36
5.81
6.28
5.72
4.38
2.67
1.00
-0.45
-1.70
-3.03
-4.81
-7.29
-10.52
-14.29
-18.23
-21.98
-25.32
-28.31
-31.24
-34.44
-38.12
-42.27
-46.61
-50.75
-54.35
-57.37
-60.11
-63.13
-66.99
-72.04
-78.12
-84.72
-91.10
-96.70
-101.37
-105.48
-109.77
-115.10
-122.28
-131.81
-143.61
-156.67
-168.73
-176.40
-175.81
-163.93
-139.80
-105.12
-63.89
-21.08
18.94
53.44
81.50
103.34
119.35
129.57
133.85
132.39
126.31
117.61
108.61
101.15
96.01
92.79
90.38
87.69
84.23
80.31
76.82
74.69
74.36
75.60
77.57
79.21
79.64
78.48
75.91
72.55
69.12
66.21
64.02
62.46
61.25
60.16
59.18
58.52
58.52
59.53
61.76
65.19
69.55
74.42
79.30
83.78
87.64
91.08
94.58
98.89
104.63
112.10
121.02
130.66
140.13
148.74
156.34
163.30
170.32
178.00
186.60
196.02
205.76
215.01
222.58
226.81
225.72
217.46
200.94
176.25
144.76
108.52
69.34
28.01
-15.66
-62.05
-110.44
-158.13
-200.69
-233.29
-252.56
-258.03
-252.21
-239.42
-223.98
-208.74
-194.55
-181.00
-167.54
-154.33
-142.28
-132.36
-124.90
-119.21
-113.92
-107.76
-100.10
-91.25
-82.19
-74.03
-67.45
-62.43
-58.32
-54.25
-49.52
-43.92
-37.79
-31.83
-26.71
-22.79
-20.03
-18.01
-16.18
-14.10
-11.65
-8.98
-6.40
-4.24
-2.66
-1.63
-0.94
-0.30
0.47
1.42
2.38
3.10
3.36
3.02
2.15
0.95
-0.33
-1.48
-2.36
-2.91
-3.16
-3.19
-3.10
-3.03
-3.07
-3.25
-3.56
-3.91
-4.21
-4.41
-4.49
-4.46
-4.31
-4.01
-3.51
-2.74
-1.66
-0.26
1.39
3.16
4.88
6.30
7.25
7.61
7.42
6.87
6.19
5.62
5.24
5.03
4.80
4.31
3.42
2.09
0.44
-1.28
-2.82
-4.00
-4.72
-5.02
-4.99
-4.75
-4.43
-4.11
-3.85
-3.69
-3.63
-3.64
-3.62
-3.47
-3.05
-2.31
-1.23
0.05
1.31
2.27
2.65
2.31
1.31
-0.12
-1.65
-2.93
-3.72
-3.98
-3.78
-3.30
-2.71
-2.16
-1.75
-1.52
-1.50
-1.65
-1.90
-2.14
-2.25
-2.15
-1.80
-1.29
-0.73
-0.25
0.02
0.06
-0.11
-0.40
-0.70
-0.88
-0.86
-0.59
-0.07
0.60
1.26
1.71
1.78
1.40
0.64
-0.32
-1.24
-1.93
-2.30
-2.43
-2.44
-2.42
-2.38
-2.20
-1.73
-0.89
0.28
1.55
2.65
3.33
3.48
3.17
2.57
1.85
1.09
0.26
-0.67
-1.74
-2.83
-3.75
-4.29
-4.31
-3.78
-2.78
-1.42
0.23
2.15
4.26
6.38
8.20
9.37
9.62
8.90
7.42
5.50
3.51
1.70
0.21
-0.93
-1.64
-1.89
-1.66
-1.04
-0.26
0.36
0.56
0.20
-0.63
-1.68
-2.65
-3.29
-3.52
-3.44
-3.19
-2.94
-2.78
-2.67
-2.53
-2.27
-1.85
-1.33
-0.82
-0.41
-0.14
-0.01
0.04
0.03
-0.05
-0.24
-0.60
-1.09
-1.64
-2.12
-2.44
-2.57
-2.51
-2.27
-1.80
-1.07
-0.10
0.96
1.89
2.47
2.60
2.35
1.88
1.39
0.95
0.56
0.14
-0.29
-0.65
-0.82
-0.73
-0.36
0.19
0.86
1.65
2.63
3.82
5.14
6.35
7.10
7.12
6.35
4.96
3.30
1.72
0.45
-0.47
-1.13
-1.62
-1.94
-2.02
-1.83
-1.42
-0.96
-0.70
-0.76
-1.16
-1.75
-2.30
-2.69
-2.86
-2.88
-2.81
-2.67
-2.41
-2.01
-1.51
-1.01
-0.63
-0.44
-0.41
-0.40
-0.32
-0.13
0.09
0.19
0.07
-0.32
-0.88
-1.47
-1.93
-2.19
-2.23
-2.08
-1.81
-1.44
-1.02
-0.53
-0.02
0.48
0.92
1.28
1.55
1.77
1.94
2.02
1.87
1.38
0.50
-0.67
-1.90
-2.88
-3.38
-3.30
-2.65
-1.50
0.06
1.96
4.08
6.17
7.87
8.82
8.83
7.98
6.56
4.97
3.49
2.18
0.96
-0.28
-1.50
-2.51
-3.05
-2.99
-2.43
-1.65
-1.01
-0.74
-0.86
-1.25
-1.75
-2.23
-2.65
-3.05
-3.45
-3.80
-4.02
-3.99
-3.67
-3.06
-2.28
-1.48
-0.79
-0.29
0.03
0.20
0.27
0.27
0.22
0.15
0.09
0.07
0.09
0.09
-0.03
-0.34
-0.82
-1.31
-1.56
-1.36
-0.65
0.41
1.45
2.10
2.08
1.38
0.22
-1.02
-2.01
-2.55
-2.66
-2.51
-2.34
-2.31
-2.45
-2.66
-2.77
-2.56
-1.86
-0.54
1.42
3.96
6.87
9.80
12.31
13.93
14.33
13.43
11.42
8.73
5.87
3.25
1.09
-0.60
-1.92
-2.95
-3.68
-4.03
-3.96
-3.54
-2.96
-2.45
-2.21
-2.30
-2.61
-2.94
-3.07
-2.89
-2.42
-1.81
-1.27
-0.97
-0.96
-1.17
-1.42
-1.55
-1.45
-1.14
-0.67
-0.15
0.37
0.86
1.27
1.51
1.51
1.19
0.60
-0.16
-0.88
-1.39
-1.60
-1.54
-1.31
-1.05
-0.85
-0.78
-0.83
-0.98
-1.26
-1.69
-2.30
-3.08
-3.96
-4.85
-5.68
-6.48
-7.33
-8.31
-9.42
-10.55
-11.49
-12.04
-12.06
-11.52
-10.52
-9.21
-7.79
-6.45
-5.30
-4.33
-3.41
-2.36
-1.05
0.55
2.35
4.23
6.06
7.79
9.38
10.77
11.85
12.52
12.70
12.38
11.61
10.46
9.02
7.35
5.48
3.44
1.21
-1.17
-3.52
-5.60
-7.09
-7.80
-7.82
-7.45
-7.09
-6.96
-7.00
-6.85
-6.12
-4.61
-2.50
-0.26
1.59
2.74
3.21
3.30
3.38
3.70
4.26
4.88
5.29
5.34
5.04
4.55
4.04
3.57
3.05
2.32
1.28
-0.01
-1.34
-2.43
-3.10
-3.37
-3.43
-3.53
-3.88
-4.51
-5.31
-6.06
-6.61
-6.89
-6.95
-6.87
-6.73
-6.51
-6.15
-5.57
-4.71
-3.55
-2.10
-0.41
1.35
2.92
3.97
4.20
3.50
2.13
0.65
-0.17
0.35
2.44
5.78
9.60
12.98
15.15
15.82
15.12
13.48
11.39
9.17
7.00
4.94
3.01
1.25
-0.28
-1.54
-2.59
-3.49
-4.35
-5.23
-6.23
-7.38
-8.69
-10.06
-11.26
-11.91
-11.65
-10.29
-7.98
-5.26
-2.88
-1.53
-1.59
-2.92
-4.99
-7.09
-8.65
-9.40
-9.44
-9.10
-8.76
-8.77
-9.35
-10.59
-12.47
-14.70
-16.70
-17.54
-16.23
-12.05
-4.91
4.39
14.38
23.39
30.06
33.79
34.71
33.49
30.86
27.43
23.63
19.84
16.46
13.98
12.67
12.44
12.78
12.94
12.25
10.43
7.70
4.60
1.73
-0.49
-1.92
-2.67
-2.93
-2.84
-2.50
-1.94
-1.24
-0.51
0.13
0.64
1.03
1.34
1.63
1.91
2.19
2.43
2.59
2.68
2.68
2.67
2.74
3.00
3.55
4.40
5.46
6.54
7.44
8.04
8.33
8.41
8.45
8.58
8.87
9.31
9.84
10.32
10.57
10.32
9.29
7.38
4.70
1.70
-0.96
-2.67
-3.15
-2.59
-1.59
-0.87
-0.97
-2.03
-3.80
-5.82
-7.68
-9.16
-10.23
-10.98
-11.46
-11.66
-11.54
-11.11
-10.43
-9.63
-8.85
-8.19
-7.66
-7.23
-6.83
-6.40
-5.92
-5.42
-4.92
-4.50
-4.19
-4.00
-3.88
-3.76
-3.58
-3.28
-2.89
-2.46
-2.07
-1.76
-1.53
-1.36
-1.22
-1.12
-1.05
-1.01
-0.97
-0.93
-0.85
-0.76
-0.73
-0.81
-1.01
-1.26
-1.47
-1.55
-1.49
-1.36
-1.26
-1.25
-1.29
-1.32
-1.25
-1.03
-0.69
-0.29
0.09
0.38
0.58
0.66
0.61
0.45
0.19
-0.11
-0.39
-0.57
-0.63
-0.58
-0.47
-0.33
-0.22
-0.15
-0.11
-0.09
-0.07
-0.01
0.08
0.18
0.26
0.29
0.24
0.15
0.10
0.14
0.29
0.50
0.66
0.67
0.52
0.28
0.07
-0.05
-0.05
-0.02
-0.04
-0.15
-0.30
-0.41
-0.39
-0.19
0.13
0.50
0.82
1.00
1.03
0.94
0.79
0.62
0.49
0.41
0.40
0.45
0.56
0.71
0.86
0.95
0.93
0.77
0.50
0.15
-0.21
-0.51
-0.74
-0.86
-0.87
-0.77
-0.61
-0.41
-0.25
-0.15
-0.12
-0.14
-0.17
-0.19
-0.19
-0.21
-0.26
-0.37
-0.52
-0.67
-0.79
-0.81
-0.72
-0.54
-0.29
-0.04
0.18
0.37
0.55
0.71
0.85
0.93
0.91
0.82
0.70
0.64
0.66
0.76
0.85
0.83
0.65
0.34
0.03
-0.19
-0.25
-0.20
-0.14
-0.17
-0.29
-0.43
-0.48
-0.37
-0.10
0.22
0.46
0.52
0.39
0.14
-0.12
-0.29
-0.32
-0.21
-0.01
0.26
0.57
0.90
1.21
1.46
1.62
1.67
1.65
1.61
1.60
1.63
1.68
1.71
1.70
1.67
1.64
1.61
1.53
1.32
0.97
0.55
0.20
0.04
0.11
0.34
0.57
0.64
0.52
0.27
0.03
-0.12
-0.15
-0.10
-0.06
-0.09
-0.20
-0.38
-0.60
-0.86
-1.12
-1.34
-1.46
-1.45
-1.28
-1.02
-0.78
-0.63
-0.64
-0.74
-0.83
-0.76
-0.49
-0.07
0.32
0.51
0.39
0.01
-0.48
-0.89
-1.11
-1.14
-1.09
-1.07
-1.12
-1.22
-1.28
-1.27
-1.19
-1.07
-0.96
-0.88
-0.83
-0.79
-0.77
-0.79
-0.86
-0.97
-1.02
-0.95
-0.71
-0.36
-0.01
0.18
0.14
-0.14
-0.53
-0.86
-0.99
-0.85
-0.52
-0.10
0.27
0.52
0.65
0.69
0.66
0.59
0.48
0.35
0.22
0.14
0.14
0.24
0.39
0.54
0.62
0.61
0.49
0.29
0.03
-0.26
-0.53
-0.74
-0.88
-0.93
-0.94
-0.92
-0.89
-0.82
-0.68
-0.46
-0.22
-0.03
0.02
-0.10
-0.34
-0.61
-0.79
-0.88
-0.90
-0.95
-1.08
-1.26
-1.44
-1.48
-1.32
-1.00
-0.61
-0.29
-0.10
-0.05
-0.06
-0.04
0.05
0.16
0.22
0.20
0.13
0.09
0.15
0.32
0.55
0.78
0.97
1.10
1.16
1.14
1.02
0.77
0.45
0.15
-0.00
0.01
0.16
0.32
0.38
0.29
0.07
-0.19
-0.40
-0.48
-0.41
-0.21
0.07
0.35
0.54
0.58
0.48
0.29
0.10
0.02
0.09
0.29
0.52
0.67
0.67
0.49
0.22
-0.05
-0.22
-0.25
-0.13
0.12
0.44
0.78
1.08
1.27
1.27
1.08
0.74
0.34
-0.01
-0.25
-0.39
-0.45
-0.46
-0.41
-0.29
-0.07
0.25
0.62
0.93
1.11
1.10
0.89
0.56
0.21
-0.07
-0.25
-0.36
-0.45
-0.57
-0.73
-0.86
-0.92
-0.85
-0.69
-0.48
-0.30
-0.18
-0.12
-0.11
-0.12
-0.13
-0.15
-0.20
-0.27
-0.34
-0.38
-0.34
-0.22
-0.05
0.11
0.21
0.23
0.20
0.16
0.13
0.09
-0.00
-0.16
-0.33
-0.48
-0.54
-0.53
-0.51
-0.53
-0.60
-0.67
-0.65
-0.49
-0.21
0.12
0.42
0.62
0.75
0.87
1.05
1.28
1.51
1.62
1.52
1.17
0.67
0.17
-0.18
-0.34
-0.34
-0.34
-0.46
-0.74
-1.14
-1.50
-1.69
-1.62
-1.30
-0.81
-0.29
0.14
0.45
0.64
0.77
0.90
1.04
1.15
1.16
1.02
0.76
0.49
0.29
0.22
0.23
0.24
0.16
-0.02
-0.25
-0.43
-0.46
-0.33
-0.06
0.26
0.54
0.70
0.72
0.58
0.31
-0.03
-0.34
-0.55
-0.57
-0.41
-0.14
0.15
0.34
0.40
0.39
0.39
0.48
0.62
0.72
0.64
0.34
-0.09
-0.47
-0.62
-0.48
-0.15
0.17
0.29
0.15
-0.14
-0.40
-0.45
-0.22
0.19
0.59
0.82
0.80
0.57
0.25
-0.05
-0.28
-0.47
-0.71
-1.02
-1.38
-1.69
-1.82
-1.71
-1.38
-0.96
-0.60
-0.38
-0.31
-0.28
-0.17
0.06
0.36
0.62
0.72
0.64
0.45
0.26
0.18
0.26
0.48
0.76
1.01
1.19
1.24
1.15
0.97
0.73
0.49
0.29
0.13
0.00
-0.11
-0.20
-0.22
-0.18
-0.07
0.07
0.19
0.24
0.21
0.11
-0.06
-0.29
-0.55
-0.77
-0.89
-0.88
-0.76
-0.58
-0.44
-0.37
-0.36
-0.35
-0.29
-0.15
0.02
0.15
0.17
0.05
-0.21
-0.53
-0.83
-1.03
-1.07
-0.93
-0.65
-0.29
0.06
0.34
0.49
0.48
0.34
0.09
-0.21
-0.50
-0.75
-0.93
-1.02
-1.02
-0.93
-0.79
-0.62
-0.44
-0.25
-0.06
0.14
0.34
0.50
0.61
0.65
0.64
0.63
0.64
0.64
0.62
0.56
0.46
0.39
0.37
0.41
0.42
0.34
0.09
-0.28
-0.64
-0.84
-0.78
-0.48
-0.07
0.29
0.48
0.51
0.44
0.39
0.40
0.46
0.52
0.54
0.54
0.59
0.72
0.89
1.00
0.92
0.63
0.21
-0.19
-0.40
-0.38
-0.21
-0.02
0.07
0.05
0.01
0.06
0.28
0.62
0.92
1.02
0.82
0.38
-0.14
-0.53
-0.64
-0.46
-0.09
0.30
0.56
0.59
0.39
0.03
-0.39
-0.76
-1.00
-1.06
-0.94
-0.69
-0.41
-0.19
-0.06
-0.06
-0.14
-0.26
-0.36
-0.41
-0.36
-0.20
0.08
0.39
0.62
0.62
0.32
-0.21
-0.80
-1.22
-1.30
-1.02
-0.49
0.04
0.37
0.43
0.28
0.05
-0.12
-0.20
-0.20
-0.16
-0.08
0.12
0.47
0.89
1.24
1.32
1.07
0.56
0.04
-0.28
-0.29
-0.03
0.35
0.70
0.94
1.04
1.03
0.91
0.64
0.21
-0.32
-0.84
-1.21
-1.34
-1.23
-0.97
-0.70
-0.54
-0.52
-0.57
-0.61
-0.52
-0.30
-0.04
0.14
0.13
-0.05
-0.30
-0.47
-0.50
-0.41
-0.34
-0.38
-0.54
-0.75
-0.88
-0.84
-0.65
-0.35
-0.05
0.20
0.38
0.49
0.52
0.50
0.48
0.54
0.72
1.00
1.28
1.43
1.35
1.07
0.73
0.48
0.41
0.48
0.57
0.60
0.50
0.34
0.20
0.12
0.09
0.04
-0.09
-0.28
-0.49
-0.67
-0.76
-0.77
-0.72
-0.66
-0.59
-0.53
-0.45
-0.34
-0.21
-0.07
0.07
0.21
0.36
0.50
0.61
0.64
0.58
0.45
0.28
0.15
0.07
0.05
0.04
0.01
-0.04
-0.07
-0.07
-0.03
0.02
0.04
0.01
-0.04
-0.09
-0.10
-0.09
-0.09
-0.11
-0.15
-0.17
-0.14
-0.05
0.09
0.24
0.37
0.45
0.45
0.35
0.15
-0.07
-0.22
-0.21
0.01
0.37
0.73
0.91
0.80
0.42
-0.08
-0.51
-0.69
-0.56
-0.22
0.17
0.42
0.44
0.28
0.07
-0.04
-0.01
0.15
0.32
0.41
0.39
0.29
0.19
0.12
0.10
0.07
-0.02
-0.20
-0.45
-0.69
-0.83
-0.81
-0.62
-0.31
0.02
0.26
0.37
0.35
0.30
0.28
0.34
0.45
0.54
0.54
0.44
0.26
0.10
-0.03
-0.13
-0.25
-0.41
-0.61
-0.77
-0.84
-0.79
-0.66
-0.52
-0.44
-0.43
-0.48
-0.51
-0.49
-0.40
-0.26
-0.07
0.16
0.40
0.63
0.78
0.79
0.62
0.28
-0.17
-0.63
-0.97
-1.12
-1.03
-0.74
-0.32
0.12
0.45
0.61
0.59
0.43
0.22
0.01
-0.13
-0.21
-0.20
-0.12
0.05
0.27
0.50
0.67
0.70
0.58
0.31
-0.04
-0.37
-0.62
-0.74
-0.72
-0.58
-0.36
-0.13
0.04
0.10
0.07
-0.01
-0.06
-0.02
0.15
0.37
0.54
0.56
0.39
0.10
-0.18
-0.30
-0.19
0.12
0.50
0.79
0.86
0.69
0.32
-0.11
-0.48
-0.72
-0.79
-0.72
-0.53
-0.24
0.10
0.43
0.66
0.69
0.47
0.02
-0.55
-1.05
-1.34
-1.34
-1.07
-0.64
-0.21
0.09
0.19
0.06
-0.20
-0.48
-0.63
-0.57
-0.33
-0.00
0.25
0.31
0.18
-0.06
-0.26
-0.31
-0.17
0.11
0.45
0.79
1.06
1.24
1.30
1.23
1.05
0.83
0.64
0.53
0.50
0.53
0.55
0.53
0.46
0.36
0.27
0.18
0.09
-0.05
-0.25
-0.51
-0.79
-1.05
-1.25
-1.36
-1.38
-1.32
-1.22
-1.08
-0.88
-0.59
-0.23
0.18
0.53
0.73
0.71
0.47
0.09
-0.29
-0.58
-0.70
-0.63
-0.43
-0.16
0.11
0.33
0.50
0.58
0.59
0.54
0.49
0.49
0.56
0.72
0.90
1.00
0.93
0.68
0.28
-0.13
-0.44
-0.54
-0.44
-0.22
0.01
0.17
0.24
0.22
0.13
0.00
-0.15
-0.29
-0.36
-0.29
-0.05
0.34
0.75
1.04
1.09
0.87
0.44
-0.05
-0.47
-0.69
-0.69
-0.50
-0.21
0.05
0.17
0.09
-0.13
-0.41
-0.62
-0.67
-0.51
-0.22
0.10
0.36
0.47
0.42
0.25
0.02
-0.22
-0.40
-0.51
-0.55
-0.54
-0.48
-0.38
-0.22
-0.04
0.08
0.09
-0.02
-0.19
-0.30
-0.24
0.00
0.35
0.67
0.84
0.84
0.66
0.38
0.06
-0.27
-0.56
-0.75
-0.79
-0.66
-0.36
0.02
0.37
0.59
0.59
0.38
0.01
-0.42
-0.78
-0.97
-0.95
-0.76
-0.46
-0.12
0.22
0.55
0.85
1.11
1.27
1.28
1.09
0.74
0.28
-0.17
-0.50
-0.66
-0.62
-0.42
-0.16
0.05
0.13
0.04
-0.21
-0.51
-0.73
-0.78
-0.63
-0.38
-0.17
-0.08
-0.15
-0.28
-0.36
-0.32
-0.18
-0.03
0.05
0.06
0.05
0.09
0.19
0.32
0.41
0.45
0.43
0.40
0.37
0.34
0.30
0.25
0.21
0.22
0.27
0.33
0.36
0.33
0.23
0.07
-0.12
-0.35
-0.57
-0.78
-0.91
-0.96
-0.89
-0.75
-0.57
-0.37
-0.16
0.03
0.20
0.34
0.47
0.57
0.65
0.67
0.64
0.58
0.53
0.55
0.63
0.72
0.75
0.66
0.44
0.18
-0.02
-0.09
0.01
0.23
0.49
0.67
0.68
0.48
0.14
-0.22
-0.44
-0.40
-0.13
0.24
0.55
0.65
0.56
0.37
0.22
0.20
0.30
0.44
0.52
0.48
0.32
0.12
-0.05
-0.12
-0.12
-0.10
-0.16
-0.34
-0.61
-0.86
-1.00
-0.99
-0.89
-0.80
-0.78
-0.82
-0.86
-0.83
-0.70
-0.51
-0.32
-0.19
-0.09
0.00
0.13
0.27
0.40
0.44
0.38
0.24
0.06
-0.09
-0.21
-0.29
-0.37
-0.48
-0.59
-0.65
-0.60
-0.42
-0.15
0.11
0.24
0.20
0.01
-0.27
-0.50
-0.60
-0.50
-0.23
0.14
0.47
0.65
0.65
0.48
0.25
0.07
-0.01
0.00
0.01
-0.07
-0.27
-0.52
-0.72
-0.77
-0.65
-0.41
-0.13
0.14
0.36
0.55
0.73
0.89
0.97
0.95
0.83
0.69
0.59
0.59
0.65
0.71
0.67
0.52
0.26
-0.00
-0.22
-0.33
-0.33
-0.26
-0.14
0.01
0.12
0.14
0.04
-0.14
-0.35
-0.48
-0.49
-0.38
-0.22
-0.08
0.01
0.07
0.17
0.34
0.56
0.76
0.83
0.74
0.51
0.22
-0.07
-0.29
-0.47
-0.62
-0.77
-0.92
-1.05
-1.11
-1.08
-0.96
-0.78
-0.58
-0.41
-0.30
-0.28
-0.31
-0.37
-0.40
-0.38
-0.28
-0.12
0.11
0.39
0.68
0.92
1.00
0.89
0.59
0.24
-0.02
-0.07
0.10
0.38
0.63
0.74
0.68
0.53
0.39
0.33
0.36
0.42
0.41
0.29
0.01
-0.35
-0.69
-0.89
-0.84
-0.52
-0.03
0.48
0.85
0.98
0.89
0.67
0.41
0.16
-0.08
-0.35
-0.64
-0.86
-0.93
-0.77
-0.45
-0.09
0.13
0.10
-0.15
-0.50
-0.82
-1.00
-1.05
-1.01
-0.91
-0.73
-0.46
-0.11
0.24
0.47
0.47
0.21
-0.19
-0.61
-0.92
-1.06
-1.05
-0.92
-0.72
-0.44
-0.11
0.21
0.44
0.51
0.40
0.18
-0.01
-0.06
0.05
0.30
0.57
0.79
0.91
0.91
0.83
0.69
0.48
0.22
-0.04
-0.24
-0.31
-0.23
-0.01
0.26
0.47
0.55
0.48
0.29
0.01
-0.32
-0.67
-1.00
-1.22
-1.27
-1.09
-0.72
-0.22
0.29
0.70
0.93
0.96
0.81
0.55
0.30
0.16
0.16
0.31
0.51
0.68
0.77
0.76
0.71
0.65
0.56
0.40
0.14
-0.19
-0.48
-0.62
-0.51
-0.21
0.15
0.40
0.44
0.27
0.03
-0.13
-0.13
0.03
0.23
0.37
0.39
0.31
0.23
0.22
0.32
0.48
0.60
0.59
0.43
0.15
-0.18
-0.49
-0.70
-0.78
-0.70
-0.50
-0.23
0.04
0.26
0.37
0.34
0.20
-0.02
-0.22
-0.34
-0.32
-0.17
0.08
0.36
0.60
0.78
0.88
0.91
0.85
0.65
0.31
-0.13
-0.58
-0.90
-0.99
-0.87
-0.61
-0.34
-0.13
-0.03
0.01
0.02
0.05
0.13
0.27
0.44
0.60
0.67
0.57
0.26
-0.21
-0.71
-1.10
-1.27
-1.19
-0.92
-0.57
-0.27
-0.04
0.10
0.19
0.25
0.28
0.28
0.22
0.10
-0.04
-0.16
-0.23
-0.21
-0.12
-0.01
0.09
0.18
0.26
0.36
0.47
0.56
0.56
0.42
0.16
-0.13
-0.32
-0.30
-0.05
0.33
0.71
0.94
0.95
0.78
0.54
0.34
0.24
0.20
0.11
-0.09
-0.44
-0.84
-1.19
-1.36
-1.33
-1.13
-0.87
-0.64
-0.47
-0.36
-0.25
-0.11
0.04
0.13
0.08
-0.13
-0.43
-0.71
-0.80
-0.63
-0.18
0.45
1.07
1.48
1.58
1.35
0.93
0.48
0.17
0.05
0.10
0.22
0.32
0.34
0.27
0.08
-0.21
-0.57
-0.90
-1.09
-1.07
-0.85
-0.53
-0.23
-0.06
-0.03
-0.08
-0.12
-0.15
-0.20
-0.33
-0.59
-0.92
-1.19
-1.32
-1.28
-1.14
-1.04
-1.10
-1.38
-1.85
-2.40
-2.92
-3.30
-3.51
-3.58
-3.58
-3.60
-3.69
-3.87
-4.10
-4.36
-4.63
-4.94
-5.30
-5.73
-6.20
-6.64
-6.97
-7.19
-7.34
-7.47
-7.62
-7.72
-7.67
-7.39
-6.88
-6.24
-5.63
-5.13
-4.71
-4.24
-3.52
-2.40
-0.81
1.24
3.64
6.21
8.73
10.89
12.45
13.26
13.36
12.95
12.30
11.63
11.08
10.68
10.41
10.21
10.08
9.99
9.98
10.05
10.18
10.34
10.42
10.29
9.86
9.16
8.32
7.56
7.04
6.84
6.83
6.85
6.78
6.60
6.45
6.48
6.74
7.16
7.56
7.79
7.77
7.58
7.32
7.07
6.70
5.97
4.62
2.50
-0.33
-3.55
-6.73
-9.46
-11.45
-12.52
-12.69
-12.07
-10.89
-9.45
-8.06
-6.96
-6.22
-5.77
-5.47
-5.16
-4.76
-4.31
-3.87
-3.47
-3.12
-2.79
-2.45
-2.10
-1.77
-1.48
-1.24
-0.98
-0.61
-0.00
0.98
2.38
4.18
6.19
8.13
9.72
10.70
10.97
10.56
9.62
8.33
6.86
5.31
3.68
1.98
0.19
-1.69
-3.60
-5.45
-7.10
-8.44
-9.38
-9.91
-10.12
-10.11
-10.01
-9.94
-9.93
-10.04
-10.24
-10.50
-10.74
-10.87
-10.76
-10.32
-9.50
-8.33
-6.96
-5.57
-4.35
-3.41
-2.73
-2.25
-1.87
-1.53
-1.26
-1.12
-1.14
-1.25
-1.31
-1.16
-0.70
-0.03
0.68
1.22
1.53
1.67
1.83
2.12
2.50
2.81
2.86
2.68
2.47
2.56
3.25
4.60
6.46
8.56
10.64
12.44
13.68
13.98
12.99
10.52
6.81
2.59
-1.16
-3.41
-3.45
-1.06
3.32
8.59
13.15
15.28
13.75
8.39
0.35
-8.15
-14.71
-17.70
-16.96
-13.66
-9.65
-6.49
-4.83
-4.39
-4.49
-4.59
-4.60
-4.79
-5.40
-6.44
-7.61
-8.43
-8.46
-7.45
-5.36
-2.44
0.87
3.93
6.13
7.07
6.83
5.85
4.77
4.02
3.57
3.04
1.94
0.12
-2.14
-4.24
-5.58
-5.86
-5.18
-3.90
-2.45
-1.17
-0.20
0.46
0.92
1.21
1.34
1.20
0.71
-0.21
-1.47
-2.84
-4.03
-4.80
-5.09
-5.10
-5.17
-5.60
-6.54
-7.89
-9.37
-10.57
-11.19
-11.04
-10.19
-8.98
-7.89
-7.42
-7.91
-9.31
-11.17
-12.79
-13.51
-13.09
-11.85
-10.61
-10.33
-11.74
-14.83
-18.88
-22.65
-25.00
-25.46
-24.64
-24.10
-25.78
-31.07
-39.88
-50.45
-59.77
-64.92
-64.43
-59.09
-51.81
-46.35
-46.07
-52.58
-65.20
-80.89
-94.90
-101.43
-94.70
-70.53
-28.41
27.04
86.17
136.78
168.35
176.02
162.36
135.88
106.95
83.47
68.45
60.44
56.09
52.88
50.36
49.54
51.22
54.70
57.90
58.59
55.84
50.57
44.96
41.43
41.32
44.31
48.55
51.53
51.06
45.98
36.50
23.83
9.70
-4.34
-17.27
-28.56
-38.06
-45.65
-51.23
-54.75
-56.50
-57.49
-59.44
-64.41
-74.05
-88.76
-107.32
-127.19
-145.38
-159.57
-168.98
-174.53
-178.21
-182.10
-187.62
-195.21
-204.36
-213.82
-221.69
-225.45
-222.31
-209.79
-186.61
-153.21
-111.72
-64.97
-15.43
35.66
88.07
141.53
194.60
244.17
286.19
317.23
335.98
343.83
344.20
341.18
338.04
336.57
337.14
339.41
342.94
347.19
351.17
353.08
350.32
340.13
320.60
291.46
254.18
211.48
166.14
119.87
72.82
24.06
-27.11
-79.78
-130.73
-175.13
-208.20
-227.19
-232.42
-227.07
-215.64
-202.23
-189.26
-177.40
-166.34
-155.72
-145.71
-136.82
-129.38
-123.15
-117.32
-110.94
-103.46
-94.93
-86.01
-77.62
-70.53
-65.02
-60.83
-57.22
-53.36
-48.62
-42.89
-36.64
-30.70
-25.86
-22.55
-20.67
-19.66
-18.83
-17.62
-15.84
-13.67
-11.47
-9.55
-8.07
-6.98
-6.11
-5.32
-4.53
-3.79
-3.17
-2.74
-2.47
-2.28
-2.06
-1.76
-1.33
-0.82
-0.26
0.30
0.79
1.14
1.23
1.00
0.45
-0.32
-1.16
-1.97
-2.73
-3.51
-4.34
-5.14
-5.78
-6.08
-6.01
-5.66
-5.20
-4.69
-4.01
-2.94
-1.22
1.17
4.05
7.13
10.18
13.12
15.92
18.53
20.72
22.19
22.73
22.43
21.68
21.07
21.02
21.60
22.55
23.33
23.50
22.81
21.28
19.18
16.95
15.05
13.87
13.59
14.00
14.56
14.51
13.14
10.07
5.37
-0.45
-6.61
-12.26
-16.69
-19.38
-20.15
-19.13
-16.75
-13.61
-10.37
-7.58
-5.55
-4.39
-4.02
-4.30
-5.00
-5.87
-6.66
-7.24
-7.58
-7.81
-8.05
-8.34
-8.55
-8.44
-7.83
-6.70
-5.23
-3.72
-2.49
-1.72
-1.45
-1.60
-2.01
-2.54
-3.02
-3.34
-3.39
-3.13
-2.61
-1.96
-1.30
-0.74
-0.30
0.01
0.20
0.30
0.30
0.21
0.05
-0.13
-0.28
-0.38
-0.42
-0.42
-0.43
-0.51
-0.73
-1.14
-1.76
-2.53
-3.31
-3.90
-4.13
-3.90
-3.28
-2.44
-1.59
-0.91
-0.53
-0.45
-0.63
-0.95
-1.24
-1.34
-1.11
-0.51
0.36
1.35
2.24
2.93
3.42
3.79
4.09
4.29
4.31
4.02
3.43
2.65
1.88
1.29
0.95
0.78
0.66
0.50
0.32
0.25
0.44
0.92
1.60
2.32
2.89
3.22
3.34
3.33
3.26
3.19
3.11
3.02
2.93
2.88
2.84
2.78
2.62
2.33
1.98
1.69
1.59
1.73
2.00
2.21
2.12
1.62
0.74
-0.34
-1.41
-2.31
-3.03
-3.65
-4.28
-5.00
-5.76
-6.48
-7.03
-7.33
-7.40
-7.29
-7.11
-6.90
-6.70
-6.51
-6.32
-6.14
-5.98
-5.82
-5.58
-5.18
-4.59
-3.84
-3.04
-2.35
-1.87
-1.65
-1.61
-1.62
-1.51
-1.14
-0.40
0.74
2.18
3.73
5.10
6.04
6.37
6.08
5.30
4.24
3.10
2.03
1.10
0.37
-0.15
-0.44
-0.53
-0.50
-0.45
-0.46
-0.54
-0.66
-0.75
-0.76
-0.70
-0.63
-0.59
-0.64
-0.77
-0.93
-1.08
-1.17
-1.17
-1.09
-0.93
-0.70
-0.47
-0.28
-0.22
-0.29
-0.48
-0.72
-0.93
-1.04
-1.04
-0.94
-0.77
-0.56
-0.34
-0.15
-0.02
0.04
0.05
0.10
0.26
0.58
1.03
1.55
2.02
2.40
2.67
2.92
3.21
3.53
3.76
3.75
3.33
2.45
1.23
-0.10
-1.25
-1.98
-2.21
-1.98
-1.49
-0.93
-0.45
-0.12
0.05
0.13
0.18
0.27
0.44
0.67
0.94
1.18
1.33
1.32
1.08
0.58
-0.14
-0.97
-1.77
-2.38
-2.67
-2.61
-2.22
-1.60
-0.90
-0.28
0.11
0.17
-0.08
-0.56
-1.12
-1.63
-1.98
-2.16
-2.18
-2.07
-1.86
-1.54
-1.15
-0.75
-0.43
-0.27
-0.28
-0.41
-0.53
-0.54
-0.38
-0.10
0.24
0.54
0.77
0.91
0.95
0.92
0.89
0.92
1.09
1.45
1.99
2.60
3.12
3.38
3.33
2.98
2.47
1.93
1.42
0.93
0.39
-0.26
-0.94
-1.53
-1.86
-1.85
-1.51
-0.99
-0.47
-0.12
-0.01
-0.09
-0.28
-0.45
-0.56
-0.59
-0.58
-0.50
-0.31
0.04
0.57
1.17
1.67
1.88
1.70
1.12
0.31
-0.54
-1.25
-1.70
-1.86
-1.75
-1.43
-1.00
-0.55
-0.19
0.03
0.10
0.03
-0.13
-0.38
-0.67
-0.97
-1.20
-1.31
