1660327510.00
64.000000
-0.00
-0.00
-0.00
-0.00
-0.00
-0.00
-0.00
-0.00
-0.00
-0.00
0.00
0.01
0.01
-0.00
-0.03
-0.05
-0.05
0.00
0.13
0.36
0.66
1.01
1.37
1.72
2.06
2.40
2.79
3.24
3.80
4.42
5.06
5.66
6.20
6.68
7.15
7.68
8.31
9.14
10.09
11.04
11.88
12.56
13.14
13.76
14.65
15.96
17.91
20.32
22.90
25.38
27.58
29.57
31.68
34.32
37.81
42.54
48.15
54.10
59.83
64.97
69.58
74.14
79.34
85.71
93.76
103.00
112.62
121.73
129.77
136.75
143.30
150.75
157.77
166.64
177.95
191.79
206.97
220.57
228.25
225.36
208.53
176.87
132.76
80.05
23.07
-34.94
-92.44
-149.16
-205.23
-260.37
-313.74
-363.87
-409.83
-450.91
-486.50
-515.74
-537.23
-549.22
-549.96
-538.37
-514.21
-478.67
-433.88
-382.45
-327.02
-269.84
-212.63
-156.66
-102.95
-52.37
-5.90
35.58
71.43
101.35
125.50
144.38
158.69
169.15
176.37
180.75
182.57
182.07
179.51
175.23
169.65
163.18
156.15
148.81
141.30
133.69
126.02
118.33
110.69
103.16
95.80
88.68
81.83
75.25
68.95
62.95
57.25
51.86
46.78
42.03
37.59
33.45
29.61
26.07
22.81
19.83
17.11
14.67
12.48
10.54
8.83
7.35
6.07
4.97
4.05
3.27
2.62
2.09
1.65
1.30
1.01
0.79
0.61
0.48
0.38
0.31
0.26
0.23
0.22
0.22
0.23
0.25
0.27
0.31
0.34
0.38
0.43
0.47
0.52
0.56
0.61
0.66
0.72
0.78
0.84
0.91
0.99
1.08
1.18
1.28
1.41
1.54
1.70
1.87
2.06
2.28
2.51
2.77
3.06
3.38
3.73
4.11
4.52
4.97
5.46
5.98
6.54
7.14
7.79
8.47
9.20
9.98
10.79
11.66
12.56
13.52
14.54
15.61
16.76
17.95
19.20
20.47
21.72
22.85
23.79
24.42
24.61
24.25
23.24
21.53
19.10
16.02
12.31
8.14
3.65
-0.96
-5.46
-9.64
-13.26
-16.18
-18.29
-19.58
-20.11
-20.02
-19.44
-18.52
-17.32
-15.92
-14.37
-12.71
-11.01
-9.36
-7.89
-6.71
-5.82
-5.11
-4.45
-3.66
-2.67
-1.49
-0.22
0.83
1.47
1.66
1.63
1.69
2.17
3.26
4.85
6.70
8.12
8.62
8.14
7.02
5.90
5.39
5.84
7.09
8.69
9.43
8.51
5.72
1.60
-2.97
-7.02
-9.97
-11.83
-13.03
-15.14
-19.66
-27.89
-40.56
-57.48
-77.29
-97.74
-116.66
-127.48
-127.64
-117.62
-100.68
-81.50
-64.28
-51.33
-42.68
-36.85
-32.08
-28.27
-26.16
-26.83
-30.89
-37.87
-46.30
-54.18
-59.55
-60.81
-57.66
-50.15
-38.71
-24.06
-7.19
10.57
27.68
42.63
54.25
61.67
64.90
64.70
62.31
59.03
55.84
53.26
51.37
49.96
48.50
46.58
43.92
40.48
36.46
32.23
28.36
25.36
23.60
23.04
23.29
23.84
24.19
24.17
23.85
23.43
22.95
22.14
20.46
17.43
12.94
7.49
2.08
-2.15
-4.32
-4.21
-2.28
0.55
3.31
5.34
6.51
7.13
7.66
8.39
9.19
9.57
8.93
6.93
3.76
0.10
-3.16
-5.32
-6.13
-5.76
-4.64
-3.11
-1.32
0.76
3.05
5.34
7.23
8.27
8.14
6.72
4.10
0.43
-4.03
-9.08
-14.40
-19.65
-24.49
-28.65
-31.93
-34.20
-35.26
-34.79
-32.45
-28.06
-21.73
-14.00
-5.68
2.35
9.42
15.20
19.69
23.04
25.37
26.73
27.10
26.49
25.12
23.32
21.50
19.94
18.64
17.43
16.07
14.44
12.62
10.83
9.28
7.96
6.71
5.27
3.49
1.45
-0.60
-2.38
-3.82
-5.16
-6.91
-9.63
-13.64
-18.75
-24.26
-29.09
-32.01
-32.09
-28.94
-22.79
-14.51
-5.26
3.77
11.62
17.77
22.17
25.10
27.05
28.42
29.42
30.05
30.15
29.64
28.65
27.50
26.56
26.04
25.86
25.70
25.15
23.89
21.79
18.94
15.47
11.49
7.07
2.26
-2.81
-7.93
-12.86
-17.35
-21.25
-24.42
-26.73
-28.00
-27.95
-26.27
-22.75
-17.44
-10.72
-3.34
3.79
9.84
14.32
17.11
18.46
18.72
18.21
17.12
15.57
13.71
11.82
10.18
9.01
8.35
8.03
7.76
7.29
6.49
5.37
4.06
2.75
1.53
0.37
-0.92
-2.61
-5.04
-8.46
-12.99
-18.55
-24.75
-30.92
-36.15
-39.49
-40.17
-37.86
-32.82
-25.82
-17.82
-9.74
-2.24
4.30
9.70
13.79
16.43
17.57
17.33
16.09
14.41
12.85
11.74
11.10
10.64
9.90
8.43
6.00
2.58
-1.73
-6.75
-12.33
-18.28
-24.35
-30.20
-35.45
-39.82
-43.15
-45.36
-46.29
-45.52
-42.40
-36.23
-26.67
-13.96
0.95
16.65
31.56
44.24
53.53
58.54
58.65
53.66
43.99
30.83
16.11
2.01
-9.60
-17.68
-22.20
-23.91
-23.86
-22.88
-21.40
-19.48
-17.08
-14.14
-10.72
-6.87
-2.62
1.88
6.28
9.97
12.26
12.73
11.65
9.99
9.16
10.46
14.42
20.65
27.87
34.48
39.03
40.65
39.09
34.63
27.93
19.90
11.65
4.30
-1.14
-4.19
-5.00
-4.40
-3.56
-3.51
-4.69
-6.83
-9.07
-10.49
-10.56
-9.39
-7.64
-6.27
-6.04
-7.39
-10.39
-14.89
-20.62
-27.25
-34.28
-40.93
-46.16
-48.90
-48.37
-44.40
-37.48
-28.67
-19.26
-10.49
-3.35
1.59
4.14
4.52
3.31
1.33
-0.60
-1.90
-2.46
-2.58
-2.77
-3.43
-4.63
-6.09
-7.32
-7.95
-7.84
-7.21
-6.44
-5.97
-6.18
-7.33
-9.62
-13.11
-17.58
-22.40
-26.52
-28.65
-27.68
-23.02
-14.93
-4.46
6.88
17.57
26.50
33.11
37.32
39.35
39.47
38.05
35.43
32.08
28.54
25.31
22.70
20.71
19.13
17.56
15.68
13.37
10.73
7.97
5.30
2.75
0.20
-2.57
-5.74
-9.40
-13.42
-17.51
-21.16
-23.81
-24.90
-24.04
-21.16
-16.55
-10.78
-4.57
1.31
6.21
9.54
10.82
9.86
6.77
2.04
-3.53
-9.09
-14.04
-18.11
-21.34
-23.97
-26.20
-28.19
-30.05
-31.84
-33.49
-34.62
-34.50
-32.33
-27.84
-21.88
-16.35
-13.63
-15.42
-21.84
-31.26
-40.95
-48.27
-51.56
-50.35
-44.94
-35.73
-23.07
-7.52
9.54
25.74
38.30
45.05
45.57
41.45
35.74
31.64
31.18
34.45
39.81
44.75
47.11
45.92
41.71
36.08
30.95
27.81
27.29
29.05
32.09
35.05
36.53
35.47
31.40
24.72
16.86
9.92
6.06
6.72
12.04
20.72
30.49
38.93
44.18
45.37
42.71
37.22
30.40
23.91
19.32
17.74
19.56
24.18
30.14
35.44
38.25
37.41
32.88
25.68
17.47
9.91
4.07
0.08
-2.77
-5.69
-9.78
-15.58
-22.84
-30.50
-37.09
-41.11
-41.50
-37.93
-30.88
-21.50
-11.27
-1.59
6.54
12.63
16.72
19.09
20.11
20.09
19.17
17.47
15.09
12.22
9.13
6.24
3.92
2.47
1.95
2.24
3.06
4.17
5.45
6.86
8.44
10.12
11.75
13.10
13.91
14.04
13.40
12.06
10.13
7.89
5.63
3.64
2.18
1.35
1.12
1.36
2.03
3.09
4.62
6.62
8.96
11.36
13.41
14.67
14.77
13.49
10.83
7.02
2.49
-2.21
-6.51
-10.00
-12.50
-14.10
-15.15
-16.07
-17.27
-19.07
-21.56
-24.58
-27.68
-30.13
-31.12
-29.94
-26.33
-20.55
-13.39
-5.89
1.02
6.72
11.03
14.02
15.89
16.82
16.97
16.54
15.75
14.89
14.16
13.61
13.12
12.51
11.59
10.28
8.65
6.81
4.87
2.84
0.58
-2.12
-5.54
-9.84
-14.95
-20.41
-25.41
-28.91
-29.95
-27.99
-23.17
-16.30
-8.61
-1.37
4.50
8.59
10.96
11.89
11.65
10.38
8.19
5.26
1.94
-1.24
-3.78
-5.44
-6.37
-7.00
-7.91
-9.46
-11.61
-13.91
-15.72
-16.58
-16.49
-16.05
-16.27
-18.16
-22.18
-27.91
-34.02
-38.59
-39.80
-36.67
-29.35
-19.16
-8.14
1.47
7.63
8.78
4.30
-5.17
-17.38
-28.85
-35.80
-35.63
-28.00
-15.14
-0.81
11.25
18.79
21.56
20.69
17.62
13.10
7.11
-0.61
-9.87
-19.62
-28.26
-34.21
-36.50
-35.07
-30.54
-23.90
-16.02
-7.45
1.62
11.18
21.14
31.06
40.12
47.28
51.58
52.52
50.31
45.83
40.37
35.26
31.41
29.16
28.29
28.24
28.40
28.33
27.74
26.51
24.52
21.67
17.87
13.12
7.53
1.37
-4.98
-11.08
-16.39
-20.31
-22.27
-21.92
-19.25
-14.74
-9.23
-3.63
1.31
5.29
8.32
10.58
12.18
13.08
13.20
12.62
11.74
11.18
11.61
13.35
16.25
19.65
22.70
24.68
25.33
24.87
23.82
22.74
21.88
21.21
20.40
19.05
16.88
13.83
10.06
5.99
2.19
-0.67
-1.95
-1.27
1.40
5.64
10.71
15.81
20.32
23.91
26.51
28.14
28.82
28.45
26.94
24.34
20.90
16.99
13.00
9.13
5.25
1.01
-3.99
-9.91
-16.53
-23.22
-29.16
-33.74
-36.76
-38.51
-39.57
-40.52
-41.55
-42.47
-42.77
-41.89
-39.46
-35.36
-29.79
-23.05
-15.55
-7.74
-0.08
6.98
13.04
17.80
21.16
23.13
23.93
23.91
23.50
23.12
23.10
23.60
24.61
26.04
27.76
29.68
31.75
33.88
35.89
37.39
37.92
36.98
34.25
29.63
23.36
15.86
7.67
-0.70
-8.85
-16.41
-23.06
-28.40
-32.01
-33.48
-32.58
-29.37
-24.18
-17.62
-10.42
-3.32
3.07
8.30
12.11
14.38
15.14
14.62
13.20
11.42
9.86
8.94
8.79
9.17
9.58
9.49
8.57
6.84
4.56
2.14
-0.04
-1.77
-2.96
-3.66
-3.94
-3.95
-3.86
-3.92
-4.34
-5.16
-6.17
-6.87
-6.64
-5.06
-2.07
1.92
6.15
9.88
12.59
14.17
14.72
14.42
13.29
11.23
8.20
4.38
0.23
-3.67
-6.83
-9.13
-10.81
-12.38
-14.36
-17.10
-20.68
-24.92
-29.48
-33.91
-37.85
-41.04
-43.45
-45.28
-46.92
-48.77
-51.09
-53.87
-56.70
-58.90
-59.67
-58.32
-54.45
-48.05
-39.45
-29.15
-17.78
-5.99
5.53
16.09
25.04
31.93
36.66
39.42
40.72
41.14
41.17
41.07
40.89
40.48
39.61
38.04
35.57
32.16
27.90
23.12
18.29
13.89
10.29
7.58
5.59
3.94
2.16
-0.14
-3.10
-6.60
-10.23
-13.39
-15.50
-16.08
-14.98
-12.35
-8.57
-4.18
0.31
4.49
8.05
10.76
12.46
13.05
12.53
11.08
9.03
6.74
4.58
2.76
1.32
0.18
-0.84
-1.89
-3.08
-4.44
-5.92
-7.39
-8.71
-9.79
-10.60
-11.19
-11.68
-12.24
-13.00
-14.07
-15.43
-16.92
-18.15
-18.64
-17.87
-15.56
-11.69
-6.59
-0.84
4.95
10.21
14.58
17.88
20.10
21.37
21.93
22.06
22.06
22.18
22.52
23.10
23.74
24.17
23.97
22.74
20.25
16.51
11.82
6.69
1.61
-3.06
-7.25
-11.10
-14.88
-18.76
-22.73
-26.56
-29.81
-31.97
-32.64
-31.67
-29.23
-25.84
-22.11
-18.59
-15.60
-13.14
-11.05
-9.13
-7.29
-5.65
-4.44
-3.90
-4.08
-4.85
-5.83
-6.60
-6.83
-6.45
-5.60
-4.64
-3.91
-3.63
-3.93
-4.78
-6.10
-7.82
-9.80
-11.91
-14.03
-16.12
-18.32
-20.84
-23.86
-27.27
-30.60
-33.10
-33.92
-32.52
-28.81
-23.26
-16.65
-9.82
-3.47
2.01
6.41
9.65
11.69
12.55
12.41
11.58
10.56
9.80
9.57
9.89
10.50
11.00
11.04
10.46
9.42
8.27
7.48
7.35
7.94
8.95
9.86
10.07
9.18
7.08
4.02
0.51
-2.84
-5.43
-6.78
-6.64
-4.95
-1.93
1.97
6.17
10.02
12.98
14.76
15.26
14.60
13.02
10.79
8.15
5.37
2.68
0.25
-1.87
-3.75
-5.63
-7.79
-10.40
-13.45
-16.79
-20.20
-23.46
-26.44
-29.00
-31.02
-32.33
-32.78
-32.33
-30.95
-28.64
-25.28
-20.62
-14.40
-6.51
2.83
12.96
22.92
31.71
38.54
43.00
45.09
45.08
43.37
40.39
36.58
32.44
28.49
25.20
22.91
21.66
21.27
21.39
21.63
21.67
21.27
20.30
18.70
16.42
13.55
10.23
6.60
2.73
-1.46
-6.11
-11.33
-16.95
-22.57
-27.55
-31.23
-33.09
-32.95
-30.89
-27.27
-22.63
-17.57
-12.75
-8.77
-6.13
-5.08
-5.57
-7.23
-9.48
-11.71
-13.45
-14.47
-14.75
-14.43
-13.70
-12.69
-11.54
-10.30
-9.05
-7.90
-6.99
-6.45
-6.44
-7.13
-8.69
-11.28
-14.91
-19.35
-24.06
-28.25
-31.08
-31.85
-30.30
-26.64
-21.46
-15.58
-9.76
-4.64
-0.58
2.25
3.84
4.28
3.76
2.52
0.87
-0.86
-2.39
-3.56
-4.35
-4.89
-5.38
-6.01
-6.82
-7.74
-8.60
-9.25
-9.59
-9.66
-9.59
-9.62
-9.98
-10.84
-12.23
-13.87
-15.26
-15.76
-14.80
-12.19
-8.17
-3.36
1.51
5.84
9.34
11.97
13.75
14.69
14.70
13.75
12.03
9.99
8.26
7.37
7.59
8.76
10.38
11.82
12.62
12.59
11.89
10.82
9.65
8.45
7.12
5.42
3.18
0.35
-2.90
-6.30
-9.48
-12.04
-13.49
-13.32
-11.08
-6.53
0.15
8.39
17.32
26.07
33.96
40.67
46.15
50.63
54.57
58.73
64.13
71.96
83.17
98.24
117.01
138.79
162.55
187.19
211.42
233.64
251.92
264.30
269.36
266.80
257.58
243.57
226.75
208.36
188.56
166.60
141.50
112.75
80.79
47.00
13.30
-18.49
-47.09
-72.16
-94.24
-114.52
-134.43
-155.26
-177.70
-201.46
-224.84
-244.52
-255.82
-253.75
-234.60
-197.79
-146.82
-89.00
-33.61
10.75
38.48
48.10
41.80
23.90
-0.85
-28.49
-56.11
-81.61
-103.30
-119.96
-131.06
-137.06
-139.39
-139.95
-140.38
-141.38
-142.49
-142.34
-139.28
-132.12
-120.61
-105.61
-88.75
-71.98
-56.95
-44.64
-35.27
-28.50
-23.69
-20.32
-18.13
-17.10
-17.21
-18.20
-19.47
-20.17
-19.52
-17.12
-13.15
-8.29
-3.46
0.58
3.47
5.30
6.44
7.30
8.08
8.76
9.15
9.00
8.18
6.60
4.28
1.16
-2.80
-7.55
-12.82
-17.99
-22.18
-24.48
-24.26
-21.48
-16.71
-11.01
-5.46
-0.92
2.23
4.02
4.70
4.55
3.79
2.57
1.07
-0.42
-1.57
-2.10
-1.83
-0.75
0.96
3.05
5.17
7.00
8.31
8.98
9.07
8.70
7.99
6.95
5.49
3.46
0.78
-2.52
-6.31
-10.39
-14.56
-18.58
-22.08
-24.55
-25.36
-23.98
-20.20
-14.26
-6.90
0.87
8.05
13.93
18.20
20.92
22.32
22.65
22.11
20.86
19.18
17.48
16.20
15.67
15.91
16.62
17.29
17.50
17.05
16.01
14.67
13.27
11.95
10.66
9.27
7.67
5.83
3.82
1.71
-0.49
-2.80
-5.25
-7.72
-9.93
-11.40
-11.65
-10.38
-7.56
-3.52
1.24
6.19
10.91
15.02
18.13
19.78
19.54
17.22
12.97
7.28
0.82
-5.87
-12.55
-19.28
-26.26
-33.50
-40.66
-46.98
-51.58
-53.73
-53.24
-50.57
-46.69
-42.71
-39.52
-37.48
-36.45
-36.01
-35.75
-35.46
-35.07
-34.45
-33.27
-31.06
-27.36
-21.99
-15.28
-7.95
-0.97
4.63
7.99
8.46
5.70
-0.06
-7.86
-15.87
-21.74
-23.18
-18.72
-8.40
6.15
22.11
36.33
46.23
50.35
48.48
41.43
30.60
17.75
4.73
-6.61
-14.72
-18.67
-18.31
-14.32
-7.96
-0.62
6.42
12.25
16.21
17.92
17.21
14.20
9.40
3.70
-1.90
-6.71
-10.65
-14.27
-18.35
-23.26
-28.56
-32.91
-34.56
-32.08
-24.93
-13.72
0.07
14.64
28.36
40.05
48.99
54.74
57.08
56.22
52.85
48.17
43.60
40.26
38.54
37.97
37.61
36.64
35.28
34.82
37.27
44.35
56.46
72.40
89.73
105.73
118.32
126.59
130.53
130.69
127.73
122.38
115.61
108.78
103.48
101.22
102.83
108.20
116.19
124.95
132.41
136.84
137.34
133.95
127.60
119.61
111.22
103.18
95.66
88.39
81.03
73.48
66.03
59.30
53.95
50.31
48.28
47.23
46.31
44.71
42.04
38.29
33.76
28.82
23.70
18.47
13.25
8.41
4.56
2.38
2.27
4.10
7.18
10.53
13.19
14.57
14.58
13.46
11.61
9.26
6.49
3.23
-0.56
-4.77
-9.06
-13.00
-16.11
-17.96
-18.28
-16.77
-13.15
-7.15
1.37
12.14
24.39
36.81
47.85
56.08
60.50
60.89
57.70
51.96
44.90
37.67
31.05
25.42
20.79
16.91
13.50
10.32
7.17
3.96
0.53
-3.44
-8.47
-15.35
-24.98
-38.14
-55.17
-75.64
-98.38
-121.68
-143.81
-163.44
-179.77
-192.44
-201.12
-205.30
-204.48
-198.43
-187.68
-173.78
-159.26
-147.29
-141.46
-145.41
-162.28
-193.63
-237.95
-289.72
-339.72
-377.07
-392.50
-381.26
-344.58
-288.77
-222.92
-156.02
-95.02
-44.31
-6.11
18.87
31.08
32.22
25.22
13.87
1.87
-8.08
-14.82
-18.70
-21.08
-23.50
-26.87
-31.03
-34.81
-36.52
-34.75
-29.00
-19.94
-9.18
1.38
10.15
16.24
19.54
20.51
19.80
18.14
16.18
14.45
13.35
13.11
13.70
14.82
16.08
17.04
17.43
17.21
16.45
15.25
13.63
11.52
8.80
5.35
1.10
-3.94
-9.62
-15.61
-21.30
-25.83
-28.25
-27.89
-24.67
-19.30
-13.05
-7.34
-3.13
-0.56
0.97
2.44
4.64
7.76
11.39
14.83
17.54
19.45
20.94
22.49
24.29
26.09
27.26
27.23
25.80
23.29
20.30
17.33
14.46
11.32
7.29
1.84
-5.29
-13.99
-23.90
-34.45
-44.91
-54.28
-61.44
-65.34
-65.32
-61.35
-54.05
-44.49
-33.86
-23.20
-13.36
-4.91
1.71
6.34
9.13
10.68
11.89
13.73
16.92
21.66
27.66
34.28
40.80
46.65
51.46
54.98
57.03
57.39
55.86
52.28
46.58
38.85
29.40
18.79
7.98
-1.72
-8.90
-12.42
-11.83
-7.59
-0.97
6.41
13.02
17.93
20.79
21.79
21.45
20.45
19.56
19.51
20.73
23.11
25.98
28.28
29.03
27.81
24.95
21.29
17.74
14.79
12.27
9.51
5.84
0.84
-5.28
-11.88
-17.94
-22.39
-24.23
-22.80
-17.93
-10.10
-0.45
9.47
18.10
24.32
27.72
28.52
27.23
24.34
20.06
14.35
7.30
-0.61
-8.37
-14.51
-17.56
-16.62
-11.75
-4.15
4.06
10.51
13.26
11.54
5.98
-1.51
-8.41
-12.46
-12.38
-8.17
-0.90
7.83
16.47
23.98
29.87
34.13
37.01
38.77
39.69
39.96
39.73
39.08
37.91
36.04
33.23
29.30
24.23
18.29
12.12
6.60
2.75
1.41
2.90
6.95
12.88
19.93
27.58
35.60
43.76
51.48
57.60
60.59
59.16
52.92
42.65
30.13
17.39
5.86
-4.06
-12.95
-21.76
-31.04
-40.48
-48.89
-54.70
-56.64
-54.29
-48.11
-39.20
-28.78
-17.74
-6.49
4.80
16.01
26.76
36.36
43.87
48.31
48.83
44.97
36.92
25.78
13.59
2.90
-3.88
-5.43
-2.03
4.49
11.50
16.59
18.49
17.37
14.56
11.80
10.50
11.38
14.42
19.09
24.60
30.06
34.47
36.79
36.11
31.96
24.63
15.32
5.93
-1.46
-5.20
-4.60
-0.01
7.44
16.39
25.59
34.15
41.38
46.63
49.22
48.63
44.92
39.00
32.67
28.20
27.47
31.29
38.86
47.99
55.83
59.96
59.19
53.92
45.75
36.80
28.81
22.64
18.22
14.82
11.58
7.93
3.70
-0.96
-5.86
-11.07
-16.91
-23.70
-31.37
-39.12
-45.43
-48.54
-47.09
-40.86
-30.96
-19.64
-9.45
-2.48
0.27
-1.01
-5.19
-10.61
-15.46
-18.01
-16.87
-11.27
-1.41
11.37
24.76
36.15
43.53
46.24
45.20
42.44
40.21
40.07
42.45
46.71
51.62
55.93
58.69
59.34
57.58
53.41
47.11
39.24
30.60
21.99
13.98
6.74
0.18
-6.00
-11.99
-17.91
-23.68
-29.12
-33.89
-37.50
-39.41
-39.03
-36.02
-30.36
-22.50
-13.38
-4.33
3.24
8.17
9.96
9.04
6.70
4.68
4.54
7.07
12.05
18.43
24.88
30.37
34.49
37.37
39.35
40.56
40.75
39.40
35.98
30.38
23.03
14.75
6.48
-0.93
-7.02
-11.62
-14.95
-17.67
-20.92
-26.20
-34.88
-47.56
-63.28
-79.44
-92.22
-97.89
-94.10
-80.96
-61.00
-38.36
-17.31
-0.84
10.09
16.50
20.59
24.64
30.15
37.54
46.31
55.48
63.98
70.91
75.45
76.91
74.80
69.08
60.36
49.88
39.29
30.21
23.75
20.23
19.22
19.74
20.62
20.73
19.27
15.86
10.42
3.02
-6.25
-17.32
-29.90
-43.14
-55.43
-64.68
-69.05
-67.84
-61.99
-53.83
-46.06
-40.50
-37.29
-34.97
-31.45
-25.15
-15.83
-4.57
6.87
16.89
24.54
29.58
32.16
32.53
30.87
27.46
22.82
17.73
13.06
9.47
7.19
6.05
5.68
5.76
6.15
6.69
6.94
5.96
2.43
-4.86
-16.32
-31.01
-46.67
-60.25
-68.87
-70.80
-66.04
-56.39
-44.88
-34.89
-29.11
-28.71
-32.91
-39.16
-44.01
-44.16
-37.63
-24.28
-5.69
15.56
36.73
55.67
71.00
82.02
88.55
90.75
89.19
84.75
78.51
71.34
63.74
55.76
47.28
38.30
29.11
20.28
12.32
5.41
-0.84
-7.17
-14.42
-22.98
-32.48
-41.70
-48.86
-52.26
-51.01
-45.53
-37.57
-29.64
-24.05
-22.00
-23.25
-26.38
-29.51
-31.14
-30.58
-27.92
-23.67
-18.43
-12.74
-7.17
-2.42
0.79
1.84
0.64
-2.37
-6.25
-9.91
-12.45
-13.42
-12.95
-11.74
-10.80
-11.14
-13.29
-17.11
-21.71
-25.78
-28.13
-28.10
-25.80
-22.02
-17.91
-14.56
-12.74
-12.67
-13.97
-15.84
-17.24
-17.36
-15.88
-13.17
-10.19
-8.05
-7.69
-9.52
-13.37
-18.55
-24.01
-28.53
-30.91
-30.21
-26.05
-18.70
-9.06
1.74
12.66
23.02
32.52
41.02
48.25
53.81
57.24
58.23
56.86
53.61
49.26
44.70
40.82
38.41
38.08
40.03
43.79
48.04
50.82
50.01
44.06
32.65
16.90
-1.03
-18.62
-33.77
-45.29
-52.93
-57.18
-58.81
-58.74
-57.88
-57.11
-57.14
-58.25
-60.16
-61.98
-62.53
-60.77
-56.19
-48.93
-39.69
-29.38
-18.84
-8.62
0.91
9.47
16.74
22.46
26.50
29.04
30.65
32.12
34.22
37.33
41.23
45.15
48.10
49.34
48.85
47.50
46.80
48.27
52.64
59.38
66.53
71.34
71.38
65.58
55.07
42.86
32.75
27.88
29.44
36.12
44.46
49.91
48.00
35.57
11.72
-21.57
-59.35
-94.64
-120.26
-131.14
-126.19
-108.58
-84.32
-59.77
-39.20
-23.72
-12.09
-2.48
5.69
11.24
11.92
6.05
-6.34
-23.11
-40.82
-56.06
-66.45
-71.14
-70.50
-65.47
-56.85
-45.11
-30.59
-14.12
2.59
17.01
26.43
29.11
25.21
17.05
8.39
2.95
2.91
8.13
16.48
25.02
31.37
34.63
35.44
35.23
35.31
36.25
37.73
38.92
38.97
37.52
34.82
31.64
28.91
27.33
27.04
27.64
28.29
28.05
26.11
21.96
15.39
6.54
-4.12
-15.79
-27.49
-38.21
-47.23
-54.26
-59.46
-63.19
-65.67
-66.75
-65.94
-62.66
-56.59
-47.92
-37.36
-25.97
-14.83
-4.76
3.81
10.85
16.52
21.02
24.45
26.81
28.09
28.37
27.84
26.72
25.25
23.48
21.39
18.92
16.06
12.95
9.85
7.04
4.67
2.67
0.72
-1.58
-4.60
-8.53
-13.27
-18.50
-23.77
-28.63
-32.65
-35.42
-36.46
-35.25
-31.35
-24.59
-15.24
-3.98
8.14
20.00
30.58
39.16
45.33
48.95
50.13
49.14
46.39
42.33
37.43
32.10
26.67
21.41
16.62
12.70
10.11
9.31
10.57
13.92
19.06
25.53
32.74
40.08
46.87
52.39
55.87
56.77
55.05
51.36
46.92
43.20
41.46
42.37
46.00
51.95
59.62
68.43
77.84
87.33
96.38
104.55
111.55
117.37
122.10
125.89
128.67
130.20
130.26
128.87
126.63
124.77
124.98
128.87
137.10
148.70
160.84
169.36
169.98
159.65
137.46
104.99
65.76
24.37
-14.45
-46.73
-69.75
-82.38
-85.00
-79.14
-66.66
-48.99
-26.78
-0.39
29.09
58.97
84.93
102.27
107.56
99.97
81.31
55.09
25.18
-4.99
-32.67
-55.49
-71.25
-78.21
-75.68
-64.50
-47.03
-26.59
-6.57
10.29
22.27
28.68
29.85
26.92
21.51
15.30
9.44
4.27
-0.78
-6.67
-14.33
-24.35
-36.94
-52.22
-70.31
-91.31
-115.12
-140.97
-167.57
-193.29
-216.67
-236.41
-251.06
-258.76
-257.40
-245.46
-223.23
-193.55
-161.33
-131.93
-109.15
-93.95
-84.60
-78.13
-72.12
-65.79
-59.85
-55.55
-53.58
-53.62
-54.63
-55.52
-55.76
-55.46
-55.14
-55.37
-56.34
-57.73
-58.97
-59.49
-59.09
-58.04
-56.96
-56.52
-57.05
-58.26
-59.41
-59.63
-58.35
-55.65
-52.23
-49.13
-47.24
-46.85
-47.52
-48.19
-47.59
-44.80
-39.55
-32.39
-24.41
-16.90
-10.86
-6.83
-4.82
-4.51
-5.43
-7.11
-9.11
-10.98
-12.39
-13.20
-13.61
-14.14
-15.43
-17.87
-21.34
-25.03
-27.71
-28.13
-25.48
-19.70
-11.48
-1.97
7.57
16.12
22.98
27.80
30.35
30.55
28.36
24.00
17.92
10.84
3.62
-2.89
-8.06
-11.58
-13.52
-14.31
-14.69
-15.65
-18.16
-23.02
-30.58
-40.52
-51.80
-62.81
-71.77
-77.28
-78.89
-77.28
-74.05
-71.13
-69.94
-70.86
-73.06
-74.94
-74.86
-71.77
-65.58
-56.99
-47.02
-36.51
-25.88
-15.32
-5.13
4.04
11.37
16.29
18.97
20.47
22.42
26.33
32.90
41.73
51.54
60.72
67.96
72.65
74.89
75.29
74.62
73.45
72.10
70.52
68.49
65.85
62.62
59.09
55.60
52.32
49.06
45.39
40.90
35.55
29.77
24.17
19.14
14.33
8.76
1.28
-8.48
-19.61
-30.05
-37.40
-40.09
-37.93
-32.18
-24.70
-17.19
-10.73
-5.87
-2.91
-2.04
-3.25
-5.90
-8.63
-9.54
-6.96
-0.17
10.14
21.93
32.53
39.47
41.30
38.16
31.79
24.97
20.56
20.46
24.90
32.41
40.48
46.56
49.09
47.97
44.30
39.76
35.71
32.45
28.88
22.49
9.73
-13.19
-48.79
-96.72
-152.43
-207.35
-250.85
-273.60
-271.00
-244.91
-202.94
-155.47
-112.02
-78.46
-56.28
-43.50
-36.42
-31.16
-24.37
-13.62
2.39
23.50
47.90
72.39
93.26
107.40
113.25
111.27
103.64
93.44
83.79
76.95
73.83
74.01
76.03
78.05
78.52
76.57
72.30
66.56
60.72
56.21
54.11
54.74
57.45
60.57
61.77
58.79
50.15
35.86
17.41
-2.71
-21.87
-38.27
-51.39
-61.92
-71.07
-79.71
-87.71
-93.69
-95.38
-90.38
-77.03
-55.18
-26.53
5.56
36.73
62.63
79.86
86.93
84.58
75.71
64.71
56.27
53.95
58.96
69.57
81.54
89.58
89.28
78.78
59.32
34.60
9.16
-13.38
-31.26
-44.67
-54.94
-63.61
-71.72
-79.54
-86.71
-92.43
-95.74
-95.72
-91.80
-84.08
-73.58
-62.19
-52.33
-46.41
-46.25
-52.61
-64.99
-81.71
-100.18
-117.38
-130.36
-136.83
-135.47
-126.18
-109.89
