1659461776.00
64.000000
-0.00
-0.00
-0.00
-0.00
-0.00
-0.00
-0.00
-0.00
-0.00
-0.00
0.00
0.01
0.01
-0.00
-0.03
-0.05
-0.05
0.00
0.13
0.36
0.66
1.01
1.37
1.72
2.06
2.40
2.79
3.24
3.80
4.42
5.06
5.66
6.20
6.68
7.15
7.68
8.31
9.14
10.09
11.04
11.88
12.56
13.14
13.76
14.65
15.96
17.91
20.32
22.90
25.38
27.58
29.57
31.68
34.32
37.81
42.54
48.15
54.10
59.83
64.97
69.58
74.14
79.34
85.71
93.76
103.00
112.62
121.73
129.76
136.75
143.30
150.75
157.79
166.68
178.00
191.82
206.94
220.44
227.99
224.98
208.05
176.33
132.22
79.52
22.54
-35.51
-93.09
-149.93
-206.13
-261.35
-314.74
-364.84
-410.75
-451.83
-487.54
-517.01
-538.81
-551.10
-552.05
-540.50
-516.25
-480.61
-435.86
-384.76
-329.96
-273.63
-217.26
-161.88
-108.38
-57.67
-10.99
30.43
65.66
94.33
116.79
133.97
147.04
156.97
164.33
169.07
170.88
169.50
165.05
158.20
149.99
141.49
133.44
126.04
118.97
111.68
103.64
94.42
83.79
71.81
59.13
47.33
38.71
35.68
39.68
50.22
64.71
79.25
90.19
95.46
95.08
90.85
84.76
78.22
71.67
64.96
57.97
51.03
44.76
39.78
36.19
33.56
31.16
28.32
24.83
20.99
17.38
14.58
12.86
12.05
11.65
11.09
10.00
8.30
6.24
4.19
2.48
1.31
0.62
0.16
-0.36
-1.10
-1.94
-2.54
-2.51
-1.72
-0.38
0.91
1.53
1.14
-0.16
-1.85
-3.36
-4.33
-4.74
-4.87
-4.98
-5.17
-5.33
-5.24
-4.80
-4.11
-3.41
-2.97
-2.88
-3.07
-3.32
-3.39
-3.17
-2.67
-2.06
-1.51
-1.12
-0.90
-0.80
-0.73
-0.65
-0.51
-0.32
-0.09
0.17
0.41
0.59
0.69
0.75
0.85
1.10
1.54
2.18
2.95
3.80
4.71
5.67
6.71
7.76
8.70
9.40
9.77
9.78
9.49
8.99
8.30
7.35
6.14
4.54
2.58
0.40
-1.85
-4.04
-6.10
-7.98
-9.64
-10.95
-11.76
-11.96
-11.54
-10.69
-9.68
-8.79
-8.15
-7.75
-7.47
-7.17
-6.81
-6.42
-6.08
-5.86
-5.71
-5.56
-5.31
-4.95
-4.51
-4.10
-3.77
-3.56
-3.42
-3.30
-3.14
-2.94
-2.70
-2.49
-2.34
-2.29
-2.36
-2.49
-2.61
-2.62
-2.46
-2.10
-1.61
-1.13
-0.79
-0.72
-0.95
-1.41
-2.00
-2.57
-2.98
-3.17
-3.11
-2.81
-2.33
-1.74
-1.09
-0.43
0.19
0.75
1.17
1.42
1.55
1.62
1.71
1.87
2.07
2.23
2.28
2.17
1.92
1.60
1.28
0.98
0.67
0.31
-0.09
-0.49
-0.79
-0.90
-0.84
-0.71
-0.67
-0.88
-1.35
-1.95
-2.49
-2.78
-2.79
-2.59
-2.37
-2.24
-2.27
-2.41
-2.60
-2.81
-3.05
-3.32
-3.57
-3.65
-3.37
-2.63
-1.45
-0.01
1.43
2.65
3.50
3.95
4.04
3.83
3.42
2.88
2.34
1.91
1.68
1.67
1.80
1.93
1.91
1.70
1.34
0.98
0.76
0.75
0.87
0.96
0.85
0.48
-0.09
-0.70
-1.22
-1.62
-1.99
-2.44
-3.01
-3.62
-4.14
-4.46
-4.60
-4.71
-4.98
-5.52
-6.30
-7.20
-8.00
-8.52
-8.69
-8.49
-7.99
-7.30
-6.55
-5.88
-5.38
-5.15
-5.20
-5.53
-6.09
-6.82
-7.63
-8.45
-9.22
-9.94
-10.61
-11.27
-11.90
-12.43
-12.76
-12.75
-12.27
-11.20
-9.46
-7.08
-4.16
-0.94
2.33
5.38
8.11
10.50
12.59
14.45
16.00
17.16
17.80
17.87
17.42
16.60
15.54
14.35
13.10
11.80
10.52
9.34
8.41
7.83
7.70
7.97
8.50
9.06
9.38
9.26
8.64
7.65
6.53
5.54
4.85
4.46
4.24
4.02
3.69
3.25
2.82
2.51
2.40
2.42
2.45
2.36
2.10
1.70
1.28
0.92
0.62
0.31
-0.09
-0.63
-1.20
-1.62
-1.72
-1.47
-0.97
-0.44
-0.12
-0.18
-0.63
-1.34
-2.16
-2.90
-3.46
-3.77
-3.77
-3.46
-2.82
-1.91
-0.82
0.31
1.29
2.00
2.34
2.38
2.23
2.02
1.83
1.64
1.39
1.06
0.69
0.41
0.35
0.53
0.87
1.23
1.48
1.60
1.64
1.71
1.87
2.08
2.26
2.31
2.16
1.83
1.37
0.85
0.33
-0.13
-0.48
-0.74
-0.95
-1.17
-1.51
-2.01
-2.64
-3.32
-3.94
-4.41
-4.66
-4.68
-4.47
-4.04
-3.40
-2.59
-1.69
-0.79
-0.03
0.56
0.98
1.30
1.61
1.91
2.15
2.19
2.00
1.58
1.06
0.61
0.36
0.34
0.49
0.70
0.88
0.96
0.95
0.83
0.61
0.26
-0.18
-0.71
-1.24
-1.72
-2.10
-2.35
-2.47
-2.48
-2.43
-2.38
-2.41
-2.56
-2.85
-3.23
-3.60
-3.84
-3.81
-3.47
-2.84
-2.00
-1.11
-0.29
0.35
0.83
1.18
1.49
1.80
2.07
2.24
2.23
2.05
1.77
1.53
1.45
1.59
1.91
2.29
2.59
2.69
2.60
2.37
2.11
1.87
1.66
1.46
1.25
0.99
0.69
0.35
-0.04
-0.48
-0.93
-1.32
-1.56
-1.59
-1.46
-1.26
-1.13
-1.15
-1.36
-1.72
-2.14
-2.51
-2.73
-2.74
-2.51
-2.05
-1.44
-0.77
-0.12
0.43
0.87
1.20
1.44
1.63
1.79
1.94
2.07
2.16
2.19
2.12
1.94
1.67
1.37
1.12
0.99
1.01
1.17
1.39
1.58
1.66
1.59
1.37
1.03
0.62
0.15
-0.32
-0.76
-1.10
-1.30
-1.36
-1.36
-1.39
-1.54
-1.83
-2.22
-2.63
-3.00
-3.29
-3.50
-3.58
-3.46
-3.05
-2.34
-1.41
-0.40
0.52
1.22
1.67
1.90
1.99
1.98
1.94
1.86
1.77
1.67
1.61
1.66
1.86
2.22
2.63
2.95
3.03
2.78
2.28
1.66
1.13
0.78
0.64
0.62
0.62
0.58
0.45
0.26
-0.01
-0.32
-0.67
-1.02
-1.33
-1.55
-1.72
-1.89
-2.14
-2.48
-2.83
-3.07
-3.02
-2.59
-1.78
-0.71
0.39
1.32
1.94
2.23
2.29
2.27
2.32
2.47
2.70
2.89
2.93
2.77
2.42
1.95
1.48
1.12
0.93
0.87
0.86
0.80
0.64
0.44
0.31
0.39
0.69
1.11
1.42
1.39
0.88
-0.04
-1.14
-2.14
-2.82
-3.12
-3.15
-3.08
-3.07
-3.18
-3.37
-3.53
-3.56
-3.41
-3.02
-2.40
-1.55
-0.49
0.69
1.83
2.76
3.34
3.57
3.55
3.46
3.41
3.40
3.35
3.14
2.77
2.34
1.98
1.82
1.82
1.84
1.70
1.28
0.60
-0.22
-1.04
-1.79
-2.47
-3.13
-3.82
-4.52
-5.19
-5.76
-6.26
-6.77
-7.37
-8.10
-8.95
-9.83
-10.64
-11.37
-12.05
-12.75
-13.47
-14.14
-14.60
-14.73
-14.44
-13.77
-12.85
-11.87
-11.11
-10.95
-11.74
-13.62
-16.32
-19.10
-20.94
-20.91
-18.60
-14.33
-9.05
-3.96
-0.04
2.17
2.76
2.22
1.34
1.01
2.07
5.04
9.97
16.27
22.85
28.54
32.49
34.51
35.18
35.52
36.57
38.99
42.92
48.05
53.84
59.77
65.35
70.12
73.52
74.97
73.98
70.35
64.39
56.85
48.76
41.05
34.30
28.63
23.91
19.97
16.87
14.90
14.40
15.45
17.72
20.61
23.44
25.85
27.89
29.92
32.27
34.94
37.49
39.31
39.93
39.32
37.94
36.59
36.02
36.70
38.71
41.86
45.83
50.31
55.04
59.74
63.95
67.03
68.16
66.54
61.60
53.21
41.86
28.53
14.60
1.47
-9.73
-18.36
-24.25
-27.60
-28.80
-28.21
-26.19
-23.12
-19.47
-15.75
-12.42
-9.71
-7.60
-5.85
-4.20
-2.55
-0.96
0.51
1.95
3.67
6.00
9.10
12.68
16.09
18.51
19.37
18.51
16.26
13.20
9.93
6.83
4.11
1.89
0.24
-0.74
-1.08
-0.94
-0.62
-0.40
-0.46
-0.75
-1.06
-1.08
-0.55
0.69
2.72
5.52
9.03
13.06
17.32
21.46
25.08
27.89
29.78
30.78
31.06
30.82
30.21
29.30
28.09
26.52
24.62
22.51
20.45
18.70
17.50
16.88
16.70
16.71
16.69
16.51
16.16
15.70
15.19
14.71
14.35
14.27
14.56
15.20
15.85
15.97
15.00
12.61
8.87
3.64
-2.83
-9.92
-17.07
-24.16
-31.46
-39.18
-47.15
-54.69
-61.47
-66.91
-70.20
-70.64
-68.10
-63.08
-56.46
-49.25
-42.46
-38.42
-38.52
-42.52
-48.93
-56.17
-63.11
-68.96
-73.12
-75.18
-78.85
-86.19
-95.80
-104.18
-108.83
-109.45
-107.22
-103.73
-100.37
-106.07
-125.25
-154.45
-185.32
-211.36
-230.75
-244.82
-255.97
-266.47
-290.78
-336.44
-398.57
-464.46
-523.96
-573.78
-615.15
-650.81
-683.48
-731.78
-805.11
-895.99
-985.57
-1057.22
-1102.82
-1120.99
-1114.19
-982.72
-697.93
-320.29
46.54
335.14
533.52
659.10
734.70
778.66
802.86
798.27
761.59
703.73
644.19
597.46
567.49
551.26
544.59
542.52
529.22
496.99
451.31
405.73
370.94
350.18
341.25
340.03
341.59
333.75
309.63
271.64
228.68
189.16
157.59
133.10
115.13
102.63
90.63
76.13
59.98
45.46
34.91
28.47
24.83
22.75
21.12
18.05
12.85
6.41
0.44
-3.90
-6.51
-7.99
-8.87
-9.71
-10.72
-11.78
-12.55
-12.73
-12.28
-11.48
-10.78
-10.47
-10.70
-11.31
-11.95
-12.29
-12.20
-11.84
-11.51
-11.52
-11.91
-12.61
-13.45
-14.29
-15.02
-15.56
-15.81
-15.57
-14.72
-13.18
-11.06
-8.65
-6.26
-4.08
-2.13
-0.30
1.58
3.55
5.49
7.24
8.62
9.65
10.44
11.16
11.89
12.54
12.91
12.86
12.37
11.63
10.91
10.41
10.14
9.93
9.53
8.75
7.60
6.21
4.81
3.54
2.43
1.33
0.03
-1.73
-4.17
-7.44
-11.54
-16.24
-21.09
-25.45
-28.70
-30.42
-30.61
-29.65
-28.10
-26.47
-25.03
-23.76
-22.49
-21.08
-19.54
-18.04
-16.75
-15.75
-14.98
-14.25
-13.39
-12.36
-11.25
-10.24
-9.45
-8.83
-8.18
-7.18
-5.61
-3.46
-0.99
1.42
3.40
4.74
5.50
5.89
6.18
6.55
6.99
7.32
7.30
6.73
5.58
4.05
2.51
1.49
1.51
2.92
5.85
10.14
15.41
21.17
26.87
32.06
36.35
39.44
41.16
41.39
40.04
37.07
32.64
27.10
21.04
15.16
10.02
5.85
2.47
-0.62
-3.93
-7.79
-12.15
-16.73
-21.20
-25.33
-29.17
-32.87
-36.64
-40.67
-45.03
-49.70
-54.52
-59.08
-62.78
-64.88
-64.76
-62.23
-57.59
-51.58
-45.03
-38.50
-32.18
-25.96
-19.67
-13.36
-7.28
-1.78
2.99
7.15
11.07
15.03
19.07
22.88
25.99
28.11
29.27
29.93
30.73
32.17
34.44
37.29
40.26
42.83
44.60
45.36
45.05
43.73
41.60
39.02
36.53
34.67
33.85
34.20
35.54
37.42
39.37
40.95
41.89
42.09
41.56
40.38
38.66
36.47
33.83
30.73
27.21
23.39
19.44
15.52
11.60
7.53
3.02
-2.13
-7.92
-14.17
-20.59
-26.89
-32.88
-38.52
-43.87
-49.05
-54.27
-59.66
-65.24
-70.71
-75.45
-78.62
-79.40
-77.30
-72.33
-65.07
-56.44
-47.41
-38.73
-30.83
-23.80
-17.51
-11.72
-6.18
-0.64
5.10
11.16
17.50
23.91
30.01
35.44
40.04
43.90
47.33
50.70
54.20
57.73
60.94
63.39
64.69
64.63
63.16
60.41
56.66
52.32
47.93
44.08
41.26
39.74
39.51
40.30
41.68
43.17
44.31
44.72
44.07
42.16
38.92
34.41
28.80
22.40
15.52
8.53
1.78
-4.46
-10.05
-15.04
-19.65
-24.18
-28.86
-33.76
-38.74
-43.52
-47.87
-51.66
-54.91
-57.80
-60.53
-63.26
-66.02
-68.63
-70.70
-71.66
-70.92
-68.08
-63.02
-55.99
-47.50
-38.17
-28.56
-19.04
-9.85
-1.11
7.02
14.39
20.86
26.41
31.10
35.03
38.29
40.82
42.52
43.40
43.67
43.83
44.46
46.02
48.58
51.76
54.85
57.12
57.99
57.23
54.92
51.40
47.15
42.74
38.70
35.44
33.09
31.53
30.46
29.59
28.72
27.84
26.93
25.97
24.78
23.15
20.89
17.93
14.29
10.02
5.17
-0.26
-6.21
-12.54
-19.05
-25.51
-31.78
-37.80
-43.54
-48.93
-53.85
-58.11
-61.52
-64.02
-65.62
-66.45
-66.69
-66.52
-66.07
-65.37
-64.30
-62.52
-59.61
-55.09
-48.68
-40.39
-30.64
-20.08
-9.44
0.67
9.91
18.12
25.27
31.25
35.86
38.96
40.55
40.94
40.64
40.19
39.97
40.07
40.36
40.65
40.83
40.95
41.10
41.35
41.61
41.68
41.29
40.22
38.37
35.75
32.54
29.10
25.89
23.45
22.16
22.14
23.12
24.61
25.96
26.66
26.41
25.16
23.05
20.25
16.95
13.22
9.13
4.68
-0.12
-5.23
-10.62
-16.18
-21.79
-27.27
-32.42
-37.08
-41.19
-44.81
-48.10
-51.30
-54.57
-57.94
-61.30
-64.35
-66.79
-68.30
-68.60
-67.53
-65.08
-61.46
-56.99
-51.93
-46.31
-39.93
-32.43
-23.44
-12.94
-1.38
10.42
21.56
31.35
39.54
46.16
51.43
55.76
59.47
62.61
65.04
66.49
66.73
65.69
63.47
60.43
57.63
55.97
55.78
56.54
57.04
56.11
52.99
47.45
40.21
33.65
30.16
31.18
36.52
44.60
53.49
61.47
67.14
70.40
73.66
79.52
89.55
103.14
117.84
130.61
138.73
139.51
132.16
119.26
104.38
91.14
82.46
80.73
88.45
107.44
136.80
158.86
157.88
126.55
71.81
9.01
-48.86
-96.12
-128.38
-152.60
-172.95
-187.73
-193.33
-187.63
-172.49
-154.51
-140.39
-134.77
-139.50
-151.49
-163.72
-169.64
-165.93
-153.77
-137.45
-121.33
-108.04
-98.57
-91.48
-83.85
-73.57
-60.06
-44.58
-29.53
-17.29
-9.96
-9.33
-15.61
-27.11
-40.76
-52.63
-59.14
-58.15
-49.38
-34.55
-16.75
1.04
16.70
29.03
37.52
41.85
41.87
37.93
31.20
23.57
17.25
13.88
13.79
15.85
18.15
18.87
17.18
13.49
9.08
5.31
2.93
1.80
1.17
0.22
-1.44
-3.65
-5.88
-7.68
-8.89
-9.71
-10.48
-11.52
-12.92
-14.65
-16.59
-18.62
-20.59
-22.28
-23.40
-23.67
-22.91
-21.15
-18.64
-15.78
-13.04
-10.78
-9.18
-8.27
-7.85
-7.70
-7.51
-7.02
-6.00
-4.34
-2.11
0.47
2.99
5.07
6.43
7.07
7.22
7.21
7.35
7.77
8.39
9.00
9.39
9.43
9.09
8.43
7.58
6.67
5.81
5.10
4.55
4.12
3.69
3.12
2.42
1.62
0.82
0.05
-0.61
-1.14
-1.54
-1.90
-2.40
-3.16
-4.36
-6.13
-8.49
-11.29
-14.10
-16.38
-17.72
-18.07
-17.66
-17.08
-17.10
-18.32
-20.77
-23.84
-26.57
-28.18
-28.40
-27.13
-24.79
-22.27
-20.44
-19.60
-19.14
-17.93
-15.04
-10.12
-2.67
6.91
16.84
24.46
27.67
26.29
22.37
19.60
22.07
34.26
57.63
88.87
120.57
144.62
155.83
153.44
140.62
122.87
108.11
102.82
109.76
127.72
153.07
181.46
207.88
226.74
220.58
179.55
109.38
29.55
-40.68
-92.19
-125.03
-143.49
-152.27
-154.54
-150.10
-138.93
-123.47
-108.50
-98.63
-95.21
-96.42
-99.24
-100.68
-97.68
-89.35
-77.73
-67.14
-62.26
-66.12
-77.90
-94.58
-111.01
-119.92
-114.93
-93.37
-56.16
-12.12
28.99
59.46
75.34
77.02
68.39
54.28
38.46
22.81
7.97
-4.93
-14.51
-19.83
-20.79
-18.14
-13.63
-8.77
-5.17
-3.84
-4.37
-5.54
-6.08
-5.11
-2.60
0.76
3.96
5.96
6.19
4.96
3.07
1.32
0.33
0.27
0.88
1.63
1.85
1.04
-0.84
-3.44
-6.15
-8.29
-9.37
-9.25
-8.15
-6.64
-5.33
-4.61
-4.51
-4.96
-5.60
-5.98
-5.68
-4.53
-2.70
-0.62
1.18
2.30
2.64
2.48
2.37
2.89
4.37
6.78
9.74
12.74
15.36
17.39
18.94
20.24
21.52
22.82
24.12
25.33
26.44
27.57
28.80
30.14
31.36
32.02
31.69
30.18
27.69
24.76
22.07
20.10
18.97
18.39
17.84
16.84
15.11
12.60
9.43
5.74
1.68
-2.61
-6.96
-11.16
-14.98
-18.24
-20.90
-22.97
-24.55
-25.73
-26.60
-27.26
-27.83
-28.52
-29.59
-31.24
-33.59
-36.51
-39.67
-42.62
-44.92
-46.29
-46.64
-46.04
-44.54
-42.18
-38.96
-34.98
-30.45
-25.68
-20.94
-16.42
-12.19
-8.32
-4.93
-2.23
-0.37
0.62
0.85
0.64
0.31
0.13
0.26
0.73
1.41
2.05
2.32
1.93
0.71
-1.31
-3.92
-6.81
-9.69
-12.34
-14.61
-16.37
-17.55
-18.08
-17.99
-17.33
-16.16
-14.51
-12.37
-9.70
-6.47
-2.70
1.54
6.12
10.88
15.71
20.53
25.38
30.35
35.47
40.65
45.62
50.03
53.61
56.32
58.38
60.17
61.98
63.92
65.78
67.21
67.83
67.35
65.64
62.65
58.47
53.24
47.18
40.67
34.09
27.73
21.69
15.80
9.77
3.23
-3.97
-11.82
-20.02
-28.19
-35.98
-43.24
-50.06
-56.77
-63.81
-71.38
-79.34
-87.05
-93.60
-98.13
-100.17
-99.89
-97.94
-95.12
-92.11
-89.21
-86.42
-83.54
-80.18
-75.80
-69.70
-61.26
-50.18
-36.83
-22.32
-8.20
4.11
13.84
21.06
26.47
30.96
35.13
39.12
42.76
45.86
48.39
50.53
52.53
54.57
56.65
58.66
60.46
61.97
63.22
64.26
65.11
65.72
65.99
65.77
64.98
63.56
61.51
58.88
55.68
51.95
47.76
43.22
38.59
34.16
30.28
27.24
