1660325932.00
64.000000
-0.00
-0.00
-0.00
-0.00
-0.00
-0.00
-0.00
-0.00
-0.00
-0.00
0.00
0.01
0.01
-0.00
-0.03
-0.05
-0.05
0.00
0.13
0.36
0.66
1.01
1.37
1.72
2.06
2.40
2.79
3.24
3.80
4.42
5.06
5.66
6.20
6.68
7.15
7.68
8.31
9.14
10.09
11.04
11.88
12.56
13.14
13.76
14.65
15.96
17.91
20.32
22.90
25.38
27.58
29.57
31.68
34.32
37.81
42.54
48.15
54.10
59.83
64.97
69.58
74.14
79.34
85.71
93.76
103.00
112.62
121.73
129.77
136.75
143.30
150.75
157.77
166.64
177.95
191.79
206.97
220.57
228.25
225.36
208.53
176.87
132.76
80.05
23.07
-34.94
-92.44
-149.16
-205.23
-260.37
-313.74
-363.87
-409.83
-450.91
-486.50
-515.74
-537.23
-549.22
-549.96
-538.37
-514.21
-478.67
-433.88
-382.45
-327.02
-269.84
-212.63
-156.66
-102.95
-52.37
-5.90
35.58
71.43
101.35
125.50
144.38
158.69
169.15
176.37
180.75
182.57
182.07
179.51
175.23
169.65
163.18
156.15
148.81
141.30
133.69
126.02
118.33
110.69
103.16
95.80
88.68
81.83
75.25
68.95
62.95
57.25
51.86
46.78
42.03
37.59
33.45
29.61
26.07
22.81
19.83
17.12
14.67
12.48
10.54
8.83
7.34
6.07
4.99
4.08
3.30
2.65
2.07
1.56
1.10
0.72
0.41
0.18
0.02
-0.10
-0.18
-0.27
-0.37
-0.47
-0.56
-0.62
-0.63
-0.61
-0.57
-0.56
-0.62
-0.75
-0.94
-1.15
-1.31
-1.40
-1.42
-1.45
-1.55
-1.80
-2.22
-2.74
-3.25
-3.62
-3.78
-3.75
-3.69
-3.78
-4.19
-4.95
-5.97
-7.00
-7.81
-8.23
-8.30
-8.23
-8.33
-8.84
-9.85
-11.23
-12.66
-13.90
-14.75
-15.17
-15.29
-15.24
-15.22
-15.56
-16.71
-19.04
-22.48
-26.03
-27.84
-25.76
-18.28
-5.40
11.24
28.83
44.45
55.99
62.62
64.66
63.07
58.99
53.39
47.06
40.49
33.92
27.48
20.81
13.67
6.05
-1.64
-8.55
-13.22
-13.95
-9.34
0.89
15.25
30.59
42.96
49.09
47.61
39.54
27.61
15.02
4.18
-3.90
-9.41
-13.07
-15.65
-17.58
-19.08
-20.24
-21.12
-21.73
-21.93
-21.51
-20.26
-18.15
-15.33
-12.14
-9.01
-6.37
-4.61
-3.94
-4.38
-5.78
-7.87
-10.44
-13.32
-16.35
-19.32
-21.89
-23.58
-23.87
-22.29
-18.60
-12.96
-6.02
1.24
7.66
12.28
14.64
14.82
13.49
11.60
9.98
9.19
9.39
10.45
12.17
14.47
17.05
19.48
21.28
21.95
21.20
19.00
15.60
11.39
6.73
1.81
-3.36
-8.82
-14.59
-20.59
-26.65
-32.46
-37.60
-41.53
-43.60
-43.18
-39.89
-33.82
-25.64
-16.39
-7.30
0.65
6.89
11.25
13.81
14.76
14.24
12.44
9.68
6.41
3.18
0.33
-2.06
-4.19
-6.42
-9.00
-11.97
-15.11
-18.13
-20.81
-23.12
-25.19
-27.22
-29.43
-31.98
-35.07
-38.72
-42.77
-46.65
-49.38
-49.78
-46.91
-40.42
-30.76
-19.11
-6.95
4.37
13.94
21.33
26.39
29.15
29.71
28.34
25.52
21.94
18.32
15.13
12.52
10.29
8.08
5.64
2.95
0.26
-2.07
-3.78
-4.87
-5.63
-6.64
-8.57
-11.98
-16.97
-23.08
-29.18
-33.76
-35.32
-32.85
-26.20
-16.14
-4.09
8.31
19.71
29.23
36.51
41.54
44.38
45.14
43.94
41.10
37.16
32.79
28.61
25.00
21.94
19.14
16.24
13.09
9.73
6.46
3.56
1.22
-0.63
-2.24
-4.02
-6.45
-9.97
-14.79
-20.73
-27.05
-32.54
-35.76
-35.54
-31.33
-23.48
-13.01
-1.33
10.21
20.61
29.24
35.74
39.91
41.61
40.86
37.88
33.26
27.88
22.70
18.57
15.90
14.50
13.76
12.86
11.20
8.57
5.21
1.60
-1.81
-4.82
-7.50
-10.13
-13.05
-16.53
-20.72
-25.52
-30.41
-34.52
-36.58
-35.37
-30.09
-20.71
-8.12
6.14
20.29
32.74
42.41
48.82
51.93
52.03
49.55
45.05
39.22
32.75
26.32
20.47
15.51
11.47
8.15
5.21
2.26
-0.97
-4.63
-8.62
-12.70
-16.55
-19.88
-22.60
-24.77
-26.66
-28.63
-31.01
-34.03
-37.69
-41.68
-45.27
-47.37
-46.72
-42.35
-33.94
-22.08
-8.17
6.00
18.79
29.09
36.42
40.74
42.18
40.92
37.28
31.89
25.73
19.95
15.56
13.04
12.28
12.61
13.16
13.16
12.14
10.01
7.02
3.61
0.25
-2.68
-5.02
-6.91
-8.71
-10.88
-13.82
-17.75
-22.61
-28.00
-33.12
-36.84
-37.91
-35.27
-28.49
-18.03
-5.17
8.31
20.77
31.12
38.95
44.41
47.79
49.28
48.93
46.83
43.25
38.79
34.18
30.04
26.65
23.85
21.20
18.25
14.85
11.23
7.93
5.48
4.16
3.74
3.56
2.75
0.58
-3.38
-9.13
-16.29
-24.17
-31.76
-37.84
-41.03
-40.23
-34.88
-25.34
-12.84
0.81
13.73
24.41
32.03
36.38
37.77
36.73
33.88
29.90
25.45
21.23
17.90
15.92
15.48
16.34
17.87
19.17
19.43
18.15
15.39
11.63
7.57
3.75
0.41
-2.59
-5.58
-8.86
-12.66
-17.07
-22.05
-27.35
-32.34
-36.01
-37.10
-34.57
-28.01
-18.01
-5.99
6.25
17.04
25.33
30.74
33.36
33.57
31.78
28.44
24.12
19.47
15.15
11.70
9.33
7.93
7.09
6.30
5.13
3.39
1.16
-1.30
-3.66
-5.73
-7.48
-9.03
-10.59
-12.37
-14.52
-17.16
-20.40
-24.29
-28.70
-33.17
-36.86
-38.71
-37.70
-33.24
-25.44
-15.08
-3.46
7.96
17.95
25.65
30.71
33.15
33.25
31.48
28.38
24.57
20.62
16.97
13.84
11.18
8.75
6.16
3.09
-0.64
-4.99
-9.67
-14.26
-18.39
-21.80
-24.49
-26.68
-28.73
-31.00
-33.81
-37.27
-41.33
-45.68
-49.77
-52.79
-53.81
-51.97
-46.76
-38.27
-27.21
-14.75
-2.21
9.30
19.07
26.75
32.20
35.38
36.33
35.28
32.73
29.48
26.41
24.27
23.36
23.52
24.09
24.24
23.17
20.31
15.43
8.64
0.30
-9.06
-18.78
-28.21
-36.70
-43.75
-49.10
-52.75
-54.90
-55.81
-55.52
-53.87
-50.57
-45.42
-38.60
-30.76
-22.84
-15.75
-10.08
-6.00
-3.35
-1.87
-1.38
-1.75
-2.79
-4.07
-5.00
-4.92
-3.44
-0.54
3.40
7.75
11.90
15.38
17.88
19.20
19.18
17.70
14.76
10.57
5.51
0.04
-5.45
-10.68
-15.57
-20.06
-23.98
-27.07
-28.93
-29.24
-27.82
-24.77
-20.35
-14.96
-8.95
-2.63
3.65
9.49
14.37
17.81
19.50
19.52
18.29
16.50
14.79
13.57
12.78
12.11
11.16
9.66
7.63
5.27
2.85
0.58
-1.46
-3.32
-5.14
-7.14
-9.59
-12.76
-16.76
-21.34
-25.86
-29.29
-30.53
-28.74
-23.70
-15.92
-6.52
3.14
11.80
18.59
23.11
25.29
25.27
23.30
19.77
15.27
10.61
6.61
3.83
2.35
1.68
1.10
-0.05
-1.97
-4.39
-6.83
-8.88
-10.51
-11.96
-13.65
-15.94
-19.02
-22.93
-27.53
-32.36
-36.61
-39.15
-38.82
-34.87
-27.34
-17.12
-5.63
5.69
15.77
24.10
30.55
35.17
37.98
39.04
38.49
36.76
34.53
32.50
31.18
30.67
30.58
30.24
28.97
26.40
22.58
18.00
13.26
8.82
4.79
0.89
-3.30
-8.22
-14.03
-20.60
-27.43
-33.65
-38.12
-39.70
-37.59
-31.64
-22.48
-11.33
0.37
11.35
20.80
28.37
33.92
37.41
38.84
38.36
36.38
33.54
30.59
28.05
26.06
24.30
22.23
19.34
15.41
10.63
5.53
0.74
-3.29
-6.49
-9.15
-11.83
-15.11
-19.43
-24.94
-31.45
-38.42
-44.85
-49.45
-50.85
-48.01
-40.70
-29.67
-16.51
-3.18
8.65
17.98
24.57
28.72
30.91
31.50
30.72
28.77
25.99
22.88
20.05
18.03
17.11
17.19
17.88
18.63
18.96
18.68
17.91
16.97
16.12
15.43
14.69
13.49
11.48
8.46
4.41
-0.49
-5.89
-11.27
-15.79
-18.40
-18.04
-13.98
-6.22
4.44
16.47
28.11
37.82
44.63
48.21
48.74
46.61
42.30
36.30
29.12
21.38
13.69
6.62
0.53
-4.53
-8.79
-12.63
-16.42
-20.38
-24.52
-28.61
-32.40
-35.68
-38.38
-40.51
-42.16
-43.42
-44.36
-45.18
-46.18
-47.70
-49.81
-52.08
-53.48
-52.64
-48.41
-40.30
-28.83
-15.34
-1.53
11.03
21.37
29.14
34.39
37.41
38.47
37.84
35.88
33.11
30.16
27.62
25.88
24.98
24.62
24.28
23.42
21.63
18.79
15.07
10.89
6.80
3.29
0.67
-0.98
-1.82
-2.15
-2.39
-3.01
-4.42
-6.91
-10.43
-14.44
-17.85
-19.28
-17.49
-11.91
-2.98
8.02
19.30
29.23
36.74
41.50
43.68
43.68
41.89
38.60
34.13
28.97
23.75
19.16
15.72
13.59
12.53
11.97
11.21
9.70
7.22
3.96
0.34
-3.18
-6.34
-9.17
-11.91
-14.85
-18.11
-21.75
-25.69
-29.87
-34.15
-38.11
-40.91
-41.41
-38.54
-31.77
-21.56
-9.27
3.24
14.26
22.72
28.30
31.24
31.97
30.87
28.21
24.28
19.58
14.75
10.45
7.16
5.03
3.81
3.04
2.17
0.78
-1.33
-4.13
-7.44
-11.04
-14.78
-18.59
-22.43
-26.26
-29.96
-33.41
-36.54
-39.41
-41.99
-44.08
-45.13
-44.29
-40.82
-34.40
-25.36
-14.63
-3.35
7.47
17.21
25.52
32.25
37.16
40.04
40.75
39.45
36.57
32.79
28.84
25.32
22.61
20.75
19.51
18.46
17.16
15.27
12.79
9.98
7.23
4.89
3.08
1.70
0.50
-0.83
-2.56
-4.95
-8.14
-12.08
-16.29
-19.92
-21.87
-21.23
-17.63
-11.51
-3.93
3.75
10.32
15.03
17.62
18.20
17.04
14.47
10.80
6.35
1.56
-3.13
-7.28
-10.55
-12.84
-14.24
-15.08
-15.76
-16.59
-17.77
-19.27
-21.00
-22.86
-24.79
-26.80
-28.89
-31.04
-33.20
-35.36
-37.52
-39.65
-41.53
-42.65
-42.26
-39.58
-34.06
-25.69
-15.10
-3.39
8.14
18.32
26.31
31.72
34.48
34.71
32.64
28.71
23.56
17.99
12.85
8.78
5.99
4.21
2.87
1.26
-1.15
-4.60
-8.98
-13.99
-19.18
-24.07
-28.20
-31.21
-33.01
-33.80
-34.03
-34.12
-34.22
-33.93
-32.47
-28.95
-22.82
-14.17
-3.76
7.16
17.28
25.50
31.10
33.76
33.52
30.68
25.80
19.63
13.04
6.88
1.76
-2.04
-4.56
-6.07
-6.81
-6.76
-5.61
-2.87
1.83
8.46
16.50
25.03
32.94
39.16
42.79
43.24
40.29
34.24
26.04
17.13
9.24
3.81
1.67
2.80
6.43
11.33
16.10
19.36
19.90
16.85
9.80
-0.93
-14.28
-28.48
-41.42
-51.19
-56.57
-57.36
-54.46
-49.54
-44.58
-41.24
-40.46
-42.34
-46.29
-51.37
-56.62
-61.31
-65.00
-67.50
-68.82
-69.02
-68.10
-65.87
-62.02
-56.20
-48.28
-38.48
-27.38
-15.78
-4.46
5.90
14.78
21.73
26.34
28.39
28.02
25.79
22.60
19.39
16.79
15.06
14.10
13.82
14.33
15.97
19.13
23.92
29.98
36.55
42.61
47.17
49.55
49.40
46.76
41.99
35.79
29.14
23.26
19.39
18.50
20.97
26.43
33.83
41.71
48.57
53.28
55.27
54.59
51.62
46.82
40.55
32.96
24.17
14.41
4.18
-5.87
-15.05
-22.86
-29.07
-33.68
-36.84
-38.75
-39.62
-39.76
-39.60
-39.63
-40.23
-41.39
-42.53
-42.57
-40.25
-34.74
-26.04
-15.30
-4.47
4.24
9.18
9.67
6.17
-0.11
-7.64
-14.95
-20.90
-24.69
-25.83
-24.20
-20.03
-13.88
-6.49
1.33
8.82
15.30
20.17
22.95
23.30
21.14
16.61
10.01
1.83
-7.30
-16.40
-24.19
-29.21
-30.32
-27.21
-20.70
-12.57
-4.85
1.02
4.67
6.85
8.81
11.58
15.42
19.86
24.01
27.12
28.92
29.54
29.20
28.03
25.89
22.65
18.39
13.55
8.75
4.60
1.30
-1.46
-4.41
-8.44
-14.14
-21.50
-29.74
-37.46
-43.02
-45.10
-43.11
-37.39
-28.99
-19.21
-9.09
0.86
10.52
19.83
28.32
35.06
38.83
38.64
34.27
26.35
16.36
6.22
-2.14
-7.11
-7.64
-3.45
4.86
15.80
27.18
36.54
41.73
41.50
35.91
26.43
15.48
5.89
0.00
-0.92
2.95
10.09
18.17
24.64
27.54
25.80
19.42
9.26
-3.33
-16.76
-29.54
-40.41
-48.49
-53.45
-55.54
-55.53
-54.50
-53.49
-53.20
-53.87
-55.34
-57.27
-59.44
-61.79
-64.35
-66.97
-69.11
-69.83
-68.03
-62.78
-53.60
-40.65
-24.65
-6.70
11.97
30.14
46.75
60.87
71.79
79.17
83.09
84.24
83.82
83.33
84.19
87.33
92.89
100.10
107.58
113.72
117.29
117.73
115.36
111.07
105.97
101.00
96.78
93.63
91.80
91.70
93.86
98.60
105.78
114.56
123.66
131.88
138.58
143.89
148.48
153.00
157.67
162.19
166.17
169.73
173.86
180.26
190.58
205.33
223.19
240.88
253.97
258.19
250.92
232.04
204.08
171.55
139.72
113.26
95.22
86.43
85.41
88.84
92.49
92.28
85.29
70.41
48.35
21.10
-8.95
-39.85
-70.50
-100.69
-130.63
-160.63
-190.86
-221.50
-253.00
-286.07
-321.48
-359.51
-399.44
-439.45
-476.95
-509.33
-534.66
-551.83
-560.35
-559.80
-549.45
-528.43
-496.35
-453.80
-402.52
-344.95
-283.23
-218.55
-151.17
-81.51
-11.42
55.02
112.07
154.21
178.35
185.32
179.56
167.29
154.06
142.90
133.99
125.69
116.17
104.51
90.91
76.15
60.75
44.69
27.56
9.12
-10.26
-29.45
-46.70
-60.04
-67.81
-69.12
-64.17
-54.19
-41.14
-27.04
-13.44
-1.14
9.76
19.38
27.65
34.15
38.26
39.58
38.30
35.20
31.50
28.30
26.25
25.27
24.76
23.80
21.67
18.10
13.40
8.27
3.39
-0.87
-4.65
-8.43
-12.74
-17.79
-23.27
-28.41
-32.19
-33.60
-31.94
-26.98
-19.06
-9.09
1.64
11.76
20.17
26.33
30.23
32.37
33.34
33.69
33.77
33.79
33.91
34.26
34.94
35.92
37.05
38.00
38.47
38.25
37.29
35.70
33.62
31.16
28.33
25.07
21.36
17.32
13.24
9.51
6.49
4.27
2.62
1.06
-0.95
-3.60
-6.61
-9.06
-9.71
-7.36
-1.42
7.89
19.48
31.81
43.33
52.99
60.43
65.78
69.44
71.72
72.76
72.66
71.64
70.12
68.60
67.41
66.53
65.62
64.33
62.55
60.58
58.95
57.98
57.49
56.64
54.24
49.22
41.05
29.94
16.70
2.36
-12.20
-26.40
-39.92
-52.47
-63.60
-72.74
-79.39
-83.36
-84.84
-84.18
-81.47
-76.26
-67.61
-54.60
-37.01
-15.82
6.59
27.36
44.22
56.18
63.70
68.54
73.26
80.50
92.14
108.21
127.02
145.77
161.53
172.23
177.31
177.80
175.71
173.12
170.61
168.23
166.20
165.11
165.28
166.07
165.83
162.41
154.08
137.98
113.49
82.98
50.75
20.58
-5.69
-27.72
-45.61
-59.13
-72.48
-88.37
-106.20
-122.91
-136.30
-146.90
-156.96
-168.77
-183.53
-208.66
-248.13
-299.20
-353.76
-404.10
-446.56
-480.98
-508.65
-531.06
-559.25
-600.80
-654.73
-712.40
-764.58
-806.34
-836.69
-856.63
-806.07
-656.60
-429.11
-182.06
33.31
196.62
310.41
386.17
435.89
469.07
482.44
473.60
446.83
412.87
382.07
359.70
346.61
341.37
341.94
338.90
325.76
302.92
276.90
254.64
239.41
231.30
228.68
229.36
226.63
215.82
196.90
174.03
151.84
132.53
116.49
102.81
90.18
75.12
55.47
31.72
6.81
-14.49
-30.78
-41.67
-47.95
-51.22
-54.03
-58.28
-64.28
-70.79
-76.00
-78.90
-79.01
-76.96
-74.00
-71.50
-70.55
-71.90
-76.03
-82.74
-90.82
-97.13
-97.33
-87.43
-65.89
-35.03
-0.68
29.99
51.48
61.90
63.49
60.54
56.95
54.49
52.73
50.33
46.55
41.97
38.00
36.00
36.24
37.95
39.70
39.93
37.98
34.11
29.40
25.13
22.37
21.50
22.18
23.68
25.17
26.04
25.82
24.00
19.96
13.21
3.75
-7.43
-18.40
-26.83
-30.91
-30.13
-25.53
-19.32
-13.94
-11.25
-12.00
-15.93
-22.12
-29.31
-36.29
-42.03
-45.92
-47.81
-48.03
-47.22
-46.08
-45.08
-44.40
-43.98
-43.60
-43.08
-42.17
-40.46
-37.24
-31.76
-23.23
-11.69
1.82
15.31
26.68
34.47
38.43
39.49
39.00
37.71
35.21
30.35
22.32
11.91
1.81
-4.30
-3.41
5.26
19.80
36.59
51.82
62.94
68.93
69.80
65.70
56.57
42.51
24.61
5.42
-11.52
-22.97
-27.36
-25.47
-20.08
-14.63
-11.92
-13.12
-17.55
-23.43
-28.70
-31.80
-32.08
-29.76
-25.77
-21.44
-18.09
-16.58
-17.17
-19.53
-22.83
-26.13
-28.80
-30.82
-32.87
-35.98
-40.68
-46.52
-51.84
-54.09
-50.79
-40.63
-24.13
-3.59
16.31
31.14
37.93
36.14
27.66
15.83
4.06
-5.27
-11.20
-13.91
-13.84
-11.43
-7.06
-1.48
3.97
7.50
7.50
3.30
-4.57
-14.50
-24.70
-33.93
-41.72
-48.13
-53.25
-56.93
-58.97
-59.71
-60.31
-62.58
-68.09
-76.91
-87.06
-94.76
-95.76
-87.08
-68.32
-41.98
-12.63
14.51
35.15
46.99
50.01
46.01
37.68
27.74
18.27
10.59
5.53
3.73
5.78
12.03
22.06
34.34
46.30
54.94
57.85
54.09
44.57
31.88
19.61
11.52
10.60
18.19
33.22
51.96
68.66
77.25
73.59
57.43
32.92
7.33
-11.67
-18.96
-13.72
0.72
18.68
34.71
45.41
49.98
49.45
45.30
38.48
29.31
18.09
5.79
-5.76
-14.40
-18.72
-18.89
-16.91
-15.93
-19.19
-28.88
-45.44
-67.46
-92.03
-115.36
-133.35
-142.28
-139.73
-125.42
-101.91
-74.50
-50.01
-34.59
-31.36
-39.04
-52.29
-63.86
-67.49
-60.39
-43.90
-22.43
-1.27
15.52
26.03
30.26
29.21
24.04
15.88
6.15
-3.13
-9.52
-10.85
-6.17
3.57
15.62
26.30
32.22
31.59
24.86
14.68
5.11
0.45
4.15
17.84
40.93
70.60
102.25
130.35
149.72
156.89
151.14
134.79
112.56
90.09
72.26
61.92
59.42
63.06
69.99
77.21
82.25
83.46
80.18
72.63
61.84
49.33
36.76
25.47
16.10
8.56
2.18
-4.00
-10.82
-18.77
-27.76
-37.13
-45.81
-52.65
-56.78
-57.97
-56.60
-53.26
-48.25
-41.17
-31.01
-16.79
1.53
22.30
42.22
57.23
64.05
61.58
51.50
37.66
24.59
15.80
12.67
14.39
18.83
23.69
27.37
29.23
29.28
27.67
24.48
19.73
13.70
7.11
0.96
-3.79
-6.73
-8.20
-9.15
-10.72
-13.57
-17.49
-21.30
-23.18
-21.23
-13.89
-0.34
19.35
44.15
71.98
99.76
123.68
139.98
145.99
141.01
126.84
107.26
86.97
70.07
58.88
53.56
52.52
53.35
53.83
52.57
49.09
43.48
36.01
26.86
16.16
4.15
-8.67
-21.66
-34.16
-45.75
-56.38
-66.28
-75.78
-85.05
-93.91
-101.84
-108.04
-111.57
-111.47
-106.87
-97.11
-82.00
-62.08
-38.93
-15.24
5.55
20.06
25.95
22.83
12.47
-1.78
-16.02
-27.04
-33.10
-34.10
-31.17
-26.04
-20.42
-15.65
-12.57
-11.58
-12.71
-15.60
-19.61
-23.86
-27.45
-29.74
-30.47
-29.94
-28.82
-27.88
-27.68
-28.30
-29.32
-29.87
-28.72
-24.46
-15.73
-1.66
17.62
40.53
63.93
83.63
95.46
96.70
87.13
69.36
48.04
28.37
14.51
8.47
9.86
16.51
25.48
34.10
40.48
43.62
43.20
39.26
32.20
22.78
12.09
1.35
-8.52
-17.21
-25.18
-33.35
-42.50
-52.67
-62.84
-71.07
-75.03
-72.69
-63.00
-46.24
-24.07
0.68
24.61
44.46
57.93
64.28
64.39
60.35
54.62
49.23
45.22
42.66
41.09
39.94
38.92
37.99
37.21
36.41
35.08
32.43
27.55
19.82
9.14
-3.82
-17.77
-31.17
-42.84
-52.36
-60.12
-66.87
-73.05
-78.27
-81.21
-80.05
-73.11
-59.52
-39.55
-14.68
12.59
39.12
61.78
78.09
87.01
89.19
86.76
82.57
79.17
78.07
79.46
82.57
86.10
88.73
89.28
86.82
80.75
71.06
58.46
44.35
30.44
18.15
8.13
0.08
-7.06
-14.59
-23.48
-33.94
-45.23
-55.76
-63.31
-65.42
-59.99
-45.95
-23.93
3.44
31.77
55.85
71.11
75.01
67.67
51.73
31.23
10.26
-8.13
-22.51
-32.85
-40.09
-45.43
-49.78
-53.43
-55.97
-56.55
-54.35
-49.20
-41.88
-34.15
-28.18
-25.78
-27.79
-33.86
-42.67
-52.55
-62.04
-70.17
-76.51
-80.95
-83.48
-83.96
-82.01
-77.10
-68.65
-56.33
-40.42
-22.01
-3.12
13.73
26.19
32.91
34.07
31.48
27.92
26.19
28.11
33.89
42.20
50.71
56.93
58.91
55.77
47.66
35.51
20.54
3.97
-13.17
-29.86
-45.00
-57.29
-65.39
-68.32
-65.81
-58.46
-47.61
-34.95
-22.13
-10.33
-0.09
8.73
16.83
25.16
34.58
45.43
57.32
69.11
79.07
85.34
86.38
81.38
70.53
55.09
37.23
19.58
4.64
-5.81
-11.13
-11.92
-9.69
-6.40
-3.83
-3.13
-4.56
-7.50
-10.74
-13.00
-13.46
-12.13
-9.72
-7.27
-5.52
-4.52
-3.64
-2.01
0.90
4.90
9.20
12.90
15.64
17.91
20.95
26.18
34.62
46.46
60.86
76.03
89.49
98.41
100.16
92.94
76.34
51.63
21.51
-10.62
-41.59
-69.17
-92.32
-110.87
-124.96
-134.65
-139.80
-140.29
-136.30
-128.39
-117.40
-104.30
-89.98
-75.29
-61.06
-48.15
-37.45
-29.71
-25.54
-25.18
-28.39
-34.11
-40.31
-44.14
-42.70
-34.16
-18.84
0.48
19.38
33.38
39.58
37.56
29.03
16.73
3.29
-9.31
-19.60
-26.32
-28.42
-25.47
-18.19
-8.50
1.05
8.37
12.57
14.24
14.84
15.87
18.23
22.03
26.88
32.24
37.61
42.47
46.24
48.22
47.90
45.37
41.71
38.99
39.88
46.78
60.61
79.99
100.96
117.86
125.04
118.87
99.18
69.47
35.82
4.96
-17.76
-29.63
-30.95
-24.42
-14.05
-3.91
2.77
4.27
0.53
-7.08
-16.35
-24.96
-31.18
-34.23
-34.32
-32.37
-29.64
-27.34
-26.47
-27.68
-31.34
-37.56
-46.23
-57.12
-69.83
-83.72
-97.79
-110.60
-120.37
-125.41
-124.67
-118.46
-108.58
-97.90
-89.28
-84.32
-82.58
-81.80
-78.91
-71.55
-59.11
-43.00
-25.95
-10.82
0.42
7.13
9.88
9.94
8.86
8.10
8.96
12.47
19.22
29.18
41.60
55.10
67.94
78.54
85.82
89.51
90.16
88.93
87.24
86.42
87.51
91.05
97.22
105.72
115.82
126.20
135.03
140.17
139.63
132.10
117.39
96.52
71.68
45.70
21.48
1.38
-13.25
-22.32
-26.77
-28.12
-27.75
-26.41
-23.98
-19.85
-13.47
-4.95
4.71
13.96
21.22
25.45
26.38
24.40
20.19
14.33
7.11
-1.52
-11.77
-23.88
-37.90
-53.53
-70.02
-86.00
-99.54
-108.56
-111.43
-107.70
-98.64
-87.10
-76.75
-70.75
-70.59
-75.50
-82.87
-89.36
-92.19
-90.08
-83.43
-73.80
-63.08
-52.75
-43.58
-35.60
-28.48
-21.82
-15.30
-8.70
-1.79
5.78
14.36
24.13
34.82
45.58
55.16
62.30
66.21
66.94
65.32
62.73
60.64
60.38
62.93
68.76
77.69
88.73
99.97
108.94
113.15
111.00
102.37
88.80
73.01
58.00
46.15
38.52
34.75
33.49
32.99
31.79
29.17
25.18
20.47
15.88
12.13
9.59
8.29
7.94
8.05
8.02
7.18
4.95
0.97
-4.69
-11.52
-18.67
-25.30
-31.04
-36.22
-41.98
-49.71
-60.30
-73.18
-86.07
-95.39
-97.51
-90.37
-74.75
-54.48
-35.41
-23.39
-22.22
-32.39
-51.03
-73.10
-93.02
-106.15
-109.70
-102.98
-87.11
-64.58
-38.69
-12.95
9.58
26.81
37.90
43.19
43.81
41.07
36.09
29.74
22.76
15.91
9.94
5.25
1.68
-1.66
-6.09
-12.79
-22.01
-32.57
-41.81
-46.44
-43.62
-32.26
-13.69
8.32
28.50
41.56
43.80
34.40
15.70
-7.43
-29.08
-44.19
-49.90
-46.20
-35.35
-20.73
-5.43
8.61
20.64
30.56
38.26
43.31
45.21
43.90
40.00
34.81
29.71
25.60
22.55
19.85
16.45
11.47
4.48
-4.23
-13.66
-22.09
-27.36
-27.39
-20.92
-8.34
7.92
23.64
33.90
34.59
23.77
2.36
-26.18
-56.74
-83.89
-102.86
-110.38
-105.11
-87.94
-61.95
-31.80
-2.54
21.73
38.94
49.14
53.93
55.26
54.41
51.80
47.36
41.28
34.47
28.36
24.24
22.56
22.65
23.00
21.91
18.23
11.80
3.55
-4.77
-11.03
-13.36
-10.62
-2.71
9.18
22.68
34.64
41.83
42.09
35.17
23.18
10.11
0.45
-2.44
2.36
13.08
26.11
37.52
44.59
46.63
44.76
41.09
37.67
35.77
35.81
37.62
40.81
45.09
50.17
55.60
60.70
64.63
66.76
66.98
65.84
64.27
63.20
63.18
64.44
67.06
71.19
76.85
83.51
89.52
92.09
87.97
74.54
50.88
18.25
-20.22
-60.43
-98.34
-130.76
-155.76
-172.75
-182.34
-186.06
-185.80
-183.29
-179.71
-175.55
-170.89
-165.70
-160.09
-154.30
-148.53
-142.61
-135.94
-127.67
-117.07
-103.98
-89.05
-73.68
-59.74
-49.03
-42.77
-41.01
-42.49
-44.75
-44.66
-39.21
-26.52
-6.81
17.19
40.63
57.96
65.02
60.88
48.55
33.98
23.82
22.82
32.18
49.44
69.84
88.30
101.11
106.60
105.04
97.94
87.39
75.48
64.05
54.37
46.89
41.29
36.64
31.83
26.06
19.07
11.23
3.32
-3.79
-9.48
-13.60
-16.56
-19.19
-22.40
-26.76
-32.01
-37.04
-40.23
-40.23
-36.96
-32.08
-28.73
-30.40
-39.45
-56.03
-77.72
-100.21
-118.66
-129.02
-129.18
-119.31
-101.64
-79.71
-57.31
-37.62
-22.54
-12.53
-6.95
-4.58
-4.13
-4.51
-4.81
-4.19
-1.89
2.55
8.98
16.60
24.12
30.17
33.76
34.56
33.04
30.44
28.62
29.67
35.35
46.46
62.28
80.56
97.99
111.19
117.69
116.69
109.10
97.09
83.33
70.30
59.81
52.74
49.10
48.11
48.61
49.32
49.30
48.08
45.69
42.37
38.22
33.12
26.73
18.86
9.66
-0.33
-10.45
-20.31
-30.14
-40.79
-53.49
-69.41
-89.03
-111.88
-136.29
-159.51
-178.14
-188.78
-188.95
-178.04
-157.79
-132.15
-106.31
-85.12
-71.60
-66.07
-66.30
-68.48
-68.62
-63.68
-52.25
-34.75
-13.09
9.75
30.38
45.74
53.82
54.19
48.11
38.15
27.47
18.98
14.75
15.61
21.13
29.84
39.50
47.62
52.14
52.00
47.57
40.69
34.23
31.42
35.01
46.44
65.40
89.78
116.09
140.16
158.19
167.48
167.02
157.47
140.88
120.12
98.31
78.29
62.13
50.87
44.44
41.84
41.58
42.25
42.87
43.02
42.57
41.34
38.89
34.51
27.45
17.26
4.03
-11.56
-28.50
-45.70
-62.36
-78.04
-92.68
-106.40
-119.26
-131.19
-141.87
-150.69
-156.63
-158.27
-154.01
-142.61
-124.00
-99.89
-73.80
-50.18
-32.99
-24.22
-23.16
-26.71
-30.62
-31.05
-25.73
-14.53
0.84
17.60
32.80
44.13
50.36
51.51
48.66
43.53
38.00
33.60
31.25
31.10
32.57
34.47
35.41
34.20
30.40
24.65
18.65
14.58
14.39
19.15
28.78
42.34
58.43
75.52
92.03
106.06
115.46
118.02
112.27
98.23
77.78
54.30
31.85
14.03
3.12
-0.21
3.17
11.41
22.20
33.36
43.23
50.85
55.93
58.60
59.09
57.45
53.49
46.92
37.66
26.08
12.98
-0.47
-12.99
-23.45
-31.15
-36.01
-38.74
-40.86
-44.34
-51.07
-62.01
-76.61
-92.58
-106.40
-114.40
-113.97
-104.63
-88.23
-68.54
-50.16
-37.13
-31.85
-34.43
-42.81
-53.46
-62.43
-66.52
-64.07
-55.25
-41.87
-26.61
-12.29
-1.05
5.99
8.85
8.47
6.27
3.71
1.91
1.47
2.47
4.72
7.88
11.74
16.21
21.35
27.25
33.98
41.36
48.99
56.26
62.59
67.66
71.60
74.92
78.29
82.10
86.17
89.61
90.92
88.51
81.20
68.79
52.42
34.36
17.55
4.56
-3.14
-5.75
-4.85
-2.60
-0.85
-0.51
-1.67
-4.19
-8.24
-14.42
-23.21
-34.25
-45.88
-55.41
-60.20
-58.76
-51.54
-40.68
-29.14
-19.57
-13.52
-11.27
-11.98
-13.88
-14.63
-11.79
-3.54
10.30
27.58
44.00
54.31
54.16
41.86
19.14
-9.31
-37.39
-59.50
-71.98
-73.90
-66.87
-54.27
-40.08
-27.76
-19.47
-15.77
-15.87
-18.34
-21.66
-24.65
-26.55
-26.87
-25.27
-21.57
-15.82
-8.48
-0.30
7.84
15.19
21.27
25.88
29.03
30.82
31.46
31.42
31.62
33.39
38.24
47.24
60.25
75.42
89.23
97.25
95.64
82.69
59.76
31.18
2.97
-19.04
-30.98
-31.96
-24.00
-10.98
2.82
13.85
20.02
20.62
16.13
7.79
-2.66
-13.15
-21.61
-26.36
-26.50
-22.14
-14.36
-4.78
5.01
13.79
21.01
26.82
32.08
38.14
46.48
58.03
72.45
87.61
99.80
104.68
98.74
80.62
51.61
15.19
-24.10
-61.94
-94.87
-120.61
-137.87
-146.32
-146.66
-140.59
-130.59
-119.26
-108.52
-99.17
-90.93
-83.02
-74.87
-66.55
-58.57
-51.38
-44.98
-38.80
-32.10
-24.51
-16.29
-8.30
-1.65
2.73
4.42
3.68
1.53
-0.28
0.49
6.04
17.71
35.12
55.72
75.17
88.65
92.73
86.77
73.35
57.24
43.50
35.59
34.24
37.61
42.34
45.11
43.70
37.50
27.22
14.36
0.63
-12.32
-23.08
-30.59
-34.24
-34.05
-30.63
-25.09
-18.75
-12.81
-8.08
-4.86
-3.02
-2.15
-1.58
-0.45
2.34
7.93
16.94
28.86
41.46
50.97
53.05
44.27
23.53
-7.19
-43.17
-78.19
-106.10
-122.37
-125.11
-115.37
-96.74
-74.38
-53.50
-38.07
-29.70
-27.57
-29.04
-30.97
-30.77
-27.13
-19.98
-10.05
1.57
13.70
25.07
34.32
40.26
42.10
39.88
34.52
27.51
20.44
14.55
10.65
9.26
11.03
16.81
27.48
43.28
63.19
84.63
103.73
116.33
119.19
110.86
92.02
65.16
33.95
2.47
-25.43
-46.69
-59.50
-63.52
-59.85
-50.53
-37.95
-24.18
-10.67
1.65
12.04
19.61
23.36
22.43
16.52
6.12
-7.44
-22.32
-36.56
-48.57
-57.48
-63.32
-66.88
-69.24
-71.17
-72.77
-73.50
-72.56
-69.58
-65.04
-60.38
-57.69
-59.11
-66.16
-79.12
-96.66
-115.78
-132.25
-141.56
-140.24
-126.97
-103.12
-72.38
-39.66
-9.61
14.64
31.93
42.88
49.13
52.51
54.43
55.78
56.97
58.23
59.75
61.65
63.86
66.14
68.13
69.58
70.41
70.75
70.76
70.59
70.40
70.55
71.63
74.36
79.12
85.34
91.24
94.01
90.72
79.34
59.72
33.84
5.44
-20.97
-41.17
-52.19
-52.96
-44.45
-29.48
-11.99
3.96
15.36
20.99
21.64
19.47
17.00
16.03
17.11
19.67
22.61
25.05
26.67
27.66
28.29
28.57
27.99
25.69
20.68
12.12
-0.54
-17.40
-37.94
-60.73
-83.28
-102.36
-114.94
-119.42
-116.64
-109.91
-103.62
-101.26
-103.61
-108.23
-110.65
-106.57
-94.03
-74.31
-51.29
-29.56
-12.64
-1.84
3.52
5.30
5.42
5.36
6.07
8.25
12.59
19.65
29.58
41.76
54.66
66.17
74.21
77.43
75.62
69.81
61.83
54.00
48.59
47.65
52.68
64.42
82.49
105.24
129.89
153.00
171.33
182.54
185.61
180.88
169.67
153.82
135.31
116.00
97.49
80.99
67.22
56.36
48.08
41.70
36.36
31.26
25.82
19.81
13.28
6.51
-0.21
-6.68
-12.84
-18.68
-24.25
-29.62
-34.99
-40.87
-48.19
-58.13
-71.83
-89.86
-111.71
-135.52
-158.12
-175.69
-184.68
-183.02
-170.91
-151.08
-128.22
-107.60
-93.56
-88.17
-90.67
-97.92
-105.58
-109.50
-106.87
-96.83
-80.38
-59.85
-38.14
-18.17
-2.30
8.01
12.31
11.26
6.46
0.13
-5.38
-8.16
-7.28
-2.91
3.79
11.22
18.05
23.78
28.97
35.00
43.48
55.79
72.63
93.85
118.31
143.91
167.68
186.26
196.72
197.43
188.78
173.07
153.88
134.84
118.53
105.92
96.43
88.58
80.81
72.16
62.56
52.57
42.98
34.26
26.18
17.80
7.79
-5.17
-21.81
-42.04
-64.74
-87.94
-109.17
-126.04
-136.94
-141.64
-141.51
-139.10
-137.12
-137.23
-139.37
-141.85
-142.37
-139.23
-132.16
-122.37
-111.88
-102.58
-95.61
-91.25
-89.07
-88.20
-87.40
-85.13
-79.81
-70.31
-56.62
-40.16
-23.53
-9.63
-0.68
2.52
0.63
-4.69
-11.40
-17.80
-22.70
-25.50
-25.97
-24.02
-19.70
-13.14
-4.63
5.36
16.29
27.64
39.04
50.23
60.95
70.85
79.50
86.57
92.02
96.26
99.99
103.84
108.02
111.99
114.59
114.39
110.22
101.66
89.29
74.73
60.30
48.42
40.94
38.55
40.54
45.06
49.74
52.46
51.95
47.97
41.22
32.88
24.26
16.49
10.29
5.96
3.45
2.44
2.46
3.01
3.59
3.62
2.50
-0.44
-5.76
-13.73
-24.16
-36.24
-48.52
-59.13
-66.19
-68.27
-65.06
-57.76
-49.04
-42.32
-40.60
-45.29
-55.53
-68.49
-80.46
-88.24
-90.20
-86.50
-78.60
-68.40
-57.59
-47.39
-38.55
-31.48
-26.23
-22.39
-19.14
-15.49
-10.67
-4.46
2.76
10.24
17.26
23.36
28.52
32.87
36.53
39.39
41.23
41.89
41.64
41.38
42.51
46.47
54.13
65.17
77.91
89.60
97.16
98.15
91.52
78.04
60.19
41.39
25.07
13.67
7.96
7.04
8.93
11.49
13.24
13.79
13.58
13.33
13.43
13.72
13.67
12.83
11.09
8.76
6.23
3.70
0.98
-2.39
-6.92
-12.88
-20.24
-28.71
-37.68
-46.19
-52.88
-56.23
-55.03
-49.03
-39.39
-28.64
-20.01
-16.42
-19.59
-29.54
-44.75
-62.75
-80.76
-96.18
-106.86
-111.37
-109.24
-101.28
-89.49
-76.62
-65.31
-57.10
-51.90
-48.19
-43.78
-37.01
-27.49
-16.17
-4.75
5.28
13.25
19.36
24.26
28.43
31.90
34.33
35.35
34.84
33.00
30.27
27.11
24.06
21.79
21.15
22.89
27.22
33.50
40.05
44.68
45.36
41.07
32.27
20.72
8.91
-0.88
-7.42
-10.89
-12.61
-14.40
-17.62
-22.54
-28.32
-33.43
-36.38
-36.34
-33.36
-28.17
-21.83
-15.50
-10.20
-6.78
-5.58
-6.35
-8.19
-9.98
-10.85
-10.63
-9.76
-8.80
-7.93
-6.62
-4.06
0.24
5.91
11.83
16.70
19.86
21.63
23.06
25.18
28.37
32.08
35.27
37.02
37.04
35.94
34.92
35.42
38.62
45.16
54.96
67.27
80.82
94.23
106.31
116.40
124.40
130.66
135.79
140.35
144.69
148.91
152.87
156.32
158.97
160.59
160.91
159.60
156.19
150.10
140.89
128.56
113.74
97.62
81.60
66.72
53.33
41.04
29.05
16.64
3.47
-10.34
-24.20
-37.25
-48.26
-55.71
-57.97
-53.73
-42.63
-25.58
-4.73
17.13
37.47
54.60
67.81
76.97
81.95
82.37
77.69
67.74
53.16
35.50
16.84
-0.84
-16.30
-29.38
-40.83
-51.93
-63.90
-77.41
-92.40
-108.17
-123.80
-138.50
-151.88
-163.88
-174.49
-183.49
-190.46
-194.97
-196.86
-196.26
-193.35
-187.85
-178.70
-164.30
-143.17
-114.76
-80.00
-41.11
-0.83
38.39
75.03
108.48
138.73
165.98
190.37
211.90
230.52
246.22
258.98
268.54
274.23
274.91
269.19
255.89
234.55
205.75
171.19
133.19
93.96
54.94
16.28
-23.16
-65.36
-112.26
-164.71
-221.58
-279.37
-332.70
-375.57
-403.02
-412.53
-404.64
-382.34
-349.81
-310.96
-268.65
-224.62
-180.02
-135.99
-93.81
-54.81
-19.91
10.52
36.63
58.83
77.53
93.09
105.82
116.11
124.44
131.13
135.98
137.93
135.06
125.04
105.95
77.24
40.23
-2.02
-45.64
-87.09
-124.17
-156.15
-183.26
-205.66
-222.70
-232.92
-234.73
-227.46
-211.96
-190.53
-166.05
-140.95
-116.54
-93.04
-70.22
-48.14
-27.53
-9.60
4.59
14.77
21.64
26.57
30.95
35.60
40.41
44.58
47.01
46.90
44.12
39.28
33.45
27.73
22.92
19.20
16.25
13.52
10.50
6.90
2.67
-2.24
-7.78
-13.77
-19.63
-24.29
-26.39
-24.73
-18.81
-9.15
2.85
15.37
26.79
36.13
43.09
47.88
50.80
52.03
51.63
49.63
46.23
41.87
37.17
32.73
28.95
25.92
23.44
21.15
18.73
16.07
13.28
10.57
8.13
6.01
4.06
2.07
-0.15
-2.65
-5.38
-8.25
-11.24
-14.27
-17.11
-19.21
-19.66
-17.45
-11.83
-2.57
9.83
24.27
39.27
53.32
64.96
72.83
75.70
72.69
63.58
49.13
31.11
11.93
-5.95
-20.76
-31.76
-39.20
-43.98
-47.06
-49.18
-50.70
-51.76
-52.49
-53.03
-53.58
-54.24
-54.94
-55.53
-55.82
-55.75
-55.34
-54.53
-52.97
-50.02
-44.93
-37.17
-26.82
-14.65
-1.92
10.08
20.46
28.98
35.84
41.41
45.83
48.94
50.39
49.97
47.82
44.53
40.90
37.65
35.15
33.30
31.69
29.75
27.07
23.54
19.38
14.99
10.77
6.88
3.24
-0.52
-4.82
-9.95
-15.85
-21.98
-27.36
-30.84
-31.40
-28.51
-22.28
-13.41
-2.96
8.01
18.64
28.40
36.97
44.06
49.38
52.61
53.64
52.61
49.96
46.26
42.04
37.58
32.98
28.24
23.41
18.67
14.23
10.33
7.00
4.13
1.40
-1.59
-5.30
-10.15
-16.40
-23.99
-32.39
-40.52
-46.92
-50.11
-49.04
-43.47
-34.07
-22.17
-9.35
2.98
13.83
22.64
29.14
33.24
34.98
34.60
32.59
29.71
26.77
24.41
22.88
21.97
21.17
19.86
17.63
14.41
10.49
6.34
2.40
-1.15
-4.40
-7.76
-11.73
-16.76
-22.96
-29.91
-36.61
-41.64
-43.58
-41.45
-35.18
-25.59
-14.11
-2.30
8.64
17.97
25.34
30.58
33.51
34.03
32.26
28.71
24.23
19.74
15.95
13.13
11.03
9.11
6.78
3.73
-0.02
-4.09
-7.99
-11.36
-14.14
-16.59
-19.16
-22.37
-26.59
-32.00
-38.42
-45.22
-51.33
-55.35
-55.85
-51.94
-43.57
-31.66
-17.87
-3.97
8.65
19.26
27.70
34.05
38.32
40.38
40.11
37.63
33.54
28.77
24.32
20.95
18.93
18.02
17.65
17.24
16.44
15.16
13.52
11.61
9.36
6.52
2.77
-2.10
-8.07
-14.89
-22.20
-29.49
-36.12
-41.29
-44.07
-43.64
-39.56
-32.03
-21.89
-10.37
1.27
11.98
21.06
27.98
32.38
33.98
32.75
28.99
23.47
17.20
11.22
6.32
2.85
0.79
-0.14
-0.29
0.07
0.89
2.17
4.00
6.33
9.04
11.83
14.33
16.18
17.00
16.49
14.47
11.05
6.81
2.87
0.67
1.55
6.19
14.28
24.52
35.14
44.46
51.48
55.96
58.23
58.66
57.43
54.45
49.63
43.18
35.68
27.99
20.87
14.73
9.52
4.89
0.46
-3.90
-8.02
-11.50
-13.99
-15.40
-16.04
-16.52
-17.54
-19.69
-23.28
-28.26
-34.28
-40.63
-46.32
-50.14
-50.86
-47.53
-39.90
-28.53
-14.71
-0.13
13.67
25.66
35.36
42.78
48.03
51.25
52.53
52.11
50.42
48.03
45.49
43.10
40.87
38.48
35.62
32.07
27.91
23.39
18.85
14.57
10.70
7.24
4.07
0.95
-2.51
-6.74
-12.08
-18.50
-25.39
-31.59
-35.61
-36.11
-32.43
-24.79
-14.27
-2.35
9.52
20.30
29.45
36.71
41.93
44.90
45.41
43.47
39.47
34.17
28.56
23.53
19.61
16.77
14.50
12.08
8.84
4.48
-0.85
-6.67
-12.33
-17.29
-21.34
-24.60
-27.45
-30.40
-33.94
-38.33
-43.50
-48.89
-53.47
-55.95
-55.07
-50.04
-40.88
-28.39
-14.05
0.40
13.44
24.01
31.66
36.37
38.39
38.08
35.80
31.99
27.18
22.01
17.07
12.82
9.39
6.60
4.08
1.45
-1.44
-4.51
-7.48
-10.10
-12.27
-14.09
-15.80
-17.67
-19.92
-22.78
-26.48
-31.28
-37.30
-44.27
-51.29
-56.95
-59.61
-58.07
-51.99
-42.22
-30.46
-18.76
-8.87
-1.84
2.03
2.99
1.56
-1.70
-6.16
-11.16
-16.03
-20.18
-23.28
-25.34
-26.58
-27.28
-27.57
-27.39
-26.59
-25.18
-23.48
-22.13
-21.91
-23.38
-26.68
-31.39
-36.69
-41.54
-45.02
-46.54
-45.99
-43.85
-41.18
-39.32
-39.48
-42.20
-46.87
-51.81
-54.70
-53.42
-46.87
-35.37
-20.51
-4.54
10.43
22.99
32.52
39.01
42.73
43.99
43.11
40.52
36.86
32.94
29.59
27.38
26.54
26.88
27.89
28.92
29.40
28.89
27.15
24.12
19.92
14.81
9.13
3.25
-2.51
-7.93
-12.89
-17.46
-21.84
-26.32
-31.19
-36.45
-41.72
-46.07
-48.27
-47.15
-42.05
-33.11
-21.31
-8.17
4.80
16.39
25.91
33.11
37.94
40.47
40.85
39.37
36.50
32.92
29.28
26.09
23.61
21.86
20.67
19.84
19.11
18.26
17.07
15.36
13.09
10.32
7.24
4.07
0.94
-2.10
-5.11
-8.19
-11.42
-14.97
-19.07
-23.96
-29.66
-35.66
-40.86
-43.74
-42.94
-37.82
-28.80
-17.26
-5.08
6.06
15.15
21.89
26.49
29.32
30.62
30.51
29.11
26.68
23.68
20.66
18.15
16.42
15.46
15.02
14.71
14.14
13.08
11.42
9.22
6.63
3.82
0.88
-2.11
-5.14
-8.25
-11.46
-14.85
-18.55
-22.68
-27.22
-31.80
-35.57
-37.37
-36.07
-30.95
-22.14
-10.57
2.27
14.89
26.18
35.60
43.00
48.38
51.66
52.72
51.58
48.54
44.26
39.58
35.26
31.76
29.17
27.21
25.41
23.33
20.68
17.45
13.91
10.47
7.50
5.12
3.12
0.97
-1.96
-6.17
-11.83
-18.65
-25.92
-32.60
-37.49
-39.47
-37.83
-32.45
-23.89
-13.23
-1.79
9.24
19.07
27.24
33.57
37.96
40.30
40.58
39.00
36.03
32.36
28.72
25.61
23.14
21.04
18.82
15.99
12.29
7.81
2.87
-2.19
-7.08
-11.78
-16.44
-21.31
-26.70
-32.86
-39.88
-47.60
-55.45
-62.37
-66.96
-67.85
-64.14
-55.78
-43.57
-28.95
-13.48
1.54
15.28
27.26
37.17
44.66
49.39
51.17
50.27
47.35
43.43
39.46
36.03
33.19
30.52
27.40
23.38
18.44
12.95
7.53
2.69
-1.42
-5.00
-8.54
-12.67
-17.90
-24.47
-32.21
-40.39
-47.71
-52.52
-53.19
-48.67
-38.88
-24.84
-8.34
8.56
24.12
37.23
47.43
54.67
59.00
60.46
59.11
55.21
49.33
42.31
35.01
28.10
21.80
15.90
9.96
3.62
-3.18
-10.19
-16.94
-23.05
-28.37
-33.04
-37.37
-41.67
-46.20
-51.04
-56.16
-61.28
-65.88
-69.09
-69.82
-66.99
-59.92
-48.64
-33.97
-17.39
-0.61
14.83
27.88
38.09
45.51
50.46
53.36
54.58
54.38
52.99
50.57
47.36
43.63
39.71
35.87
32.32
29.08
25.95
22.62
18.67
13.81
7.95
1.24
-5.92
-13.05
-19.70
-25.61
-30.69
-35.09
-39.12
-43.13
-47.41
-51.92
-56.17
-59.09
-59.25
-55.28
-46.36
-32.67
-15.44
3.39
21.74
38.02
51.32
61.46
68.63
73.11
75.15
75.00
73.03
69.84
66.11
62.47
59.25
56.45
53.75
50.80
47.38
43.54
39.53
35.60
31.81
27.92
23.48
18.09
11.62
4.36
-3.07
-9.97
-15.85
-20.67
-24.82
-28.96
-33.79
-39.75
-46.85
-54.48
-61.50
-66.39
-67.66
-64.32
-56.18
-43.98
-29.15
-13.33
2.04
16.08
28.36
38.74
47.11
53.28
57.09
58.56
58.07
56.31
54.05
51.94
50.30
49.09
48.00
46.65
44.77
42.26
39.22
35.85
32.31
28.68
24.92
20.91
16.54
11.81
6.88
2.03
-2.42
-6.28
-9.57
-12.61
-15.92
-20.08
-25.58
-32.59
-40.82
-49.41
-57.03
-62.19
-63.55
-60.36
-52.72
-41.50
-28.18
-14.34
-1.32
10.02
19.35
26.68
32.14
35.81
37.68
37.72
36.08
33.16
29.56
26.00
23.04
20.92
19.52
18.47
17.33
15.83
13.87
11.56
9.05
6.48
3.87
1.19
-1.60
-4.49
-7.36
-10.02
-12.28
-14.03
-15.36
-16.47
-17.73
-19.49
-22.08
-25.74
-30.56
-36.46
-43.04
-49.53
-54.82
-57.66
-57.04
-52.59
-44.67
-34.36
-22.98
-11.78
-1.59
7.20
14.42
20.00
23.79
25.67
25.73
24.35
22.18
19.96
18.23
17.14
16.51
15.92
15.00
13.59
11.83
9.98
8.29
6.83
5.48
3.98
2.11
-0.28
-3.15
-6.31
-9.50
-12.45
-14.93
-16.85
-18.24
-19.35
-20.55
-22.25
-24.83
-28.31
-32.32
-35.97
-38.03
-37.28
-32.96
-25.02
-14.27
-2.10
9.95
20.66
29.34
35.83
40.25
42.74
43.32
42.03
39.06
34.91
30.36
26.21
23.03
20.94
19.62
18.54
17.19
15.36
13.17
10.93
8.89
7.11
5.34
3.21
0.34
-3.40
-7.83
-12.59
-17.20
-21.32
-24.83
-27.92
-30.95
-34.35
-38.44
-43.25
-48.37
-52.94
-55.78
-55.71
-51.99
-44.53
-34.04
-21.73
-8.91
3.33
14.32
23.68
31.13
36.38
39.16
39.38
37.38
33.90
29.93
26.42
24.04
23.00
23.10
23.87
24.86
25.81
26.81
28.21
30.39
33.46
37.05
40.29
42.04
41.31
37.52
30.70
21.35
10.25
-1.79
-14.10
-26.29
-38.23
-50.00
-61.69
-73.11
-83.62
-92.16
-97.52
-98.81
-95.77
-88.86
-79.00
-67.21
-54.36
-41.10
-28.03
-15.89
-5.57
2.13
6.72
8.23
7.25
4.76
1.95
-0.03
-0.25
1.86
6.47
13.24
21.46
30.12
38.12
44.46
48.40
49.51
47.69
43.10
36.15
27.34
17.22
6.37
-4.66
-15.48
-25.88
-35.82
-45.31
-54.12
-61.55
-66.40
-67.26
-62.99
-53.32
-39.11
-22.19
-4.84
10.89
23.63
32.80
38.45
40.84
40.33
37.37
32.59
26.92
21.43
17.17
14.82
14.58
16.20
19.10
22.62
26.11
29.03
31.00
31.85
31.71
30.98
30.21
30.00
30.74
32.49
34.92
37.33
38.79
38.30
35.08
28.86
20.19
10.59
2.28
-2.34
-1.50
5.30
17.02
31.43
45.87
58.08
66.79
71.83
73.74
73.20
70.60
65.93
59.09
50.15
39.67
28.62
18.14
9.17
2.22
-2.76
-6.20
-8.76
-11.09
-13.66
-16.68
-20.19
-24.10
-28.32
-32.79
-37.49
-42.40
-47.56
-53.18
-59.71
-67.78
-77.81
-89.57
-101.75
-112.16
-118.34
-118.56
-112.54
-101.63
-88.28
-74.91
-63.19
-53.66
-45.96
-39.61
-34.46
-30.89
-29.47
-30.48
-33.61
-37.95
-42.40
-46.03
-48.46
-49.80
-50.46
-50.82
-50.99
-50.85
-50.16
-48.85
-47.11
-45.40
-44.45
-44.98
-47.64
-52.90
-61.00
-71.98
-85.64
-101.36
-117.88
-133.20
-144.77
-150.06
-147.35
-136.30
-118.13
-95.24
-70.38
-45.87
-23.19
-3.03
14.30
28.51
39.24
46.25
49.76
50.58
49.93
49.09
48.99
49.91
51.51
53.02
53.61
52.61
49.80
45.38
39.87
33.97
28.29
23.20
18.72
14.54
10.06
4.56
-2.65
-11.94
-23.05
-34.77
-44.95
-51.00
-50.57
-42.47
-27.16
-6.64
16.19
38.56
58.51
75.21
88.64
99.10
106.76
111.57
113.45
112.59
109.60
105.44
101.09
97.27
94.13
91.27
87.89
83.08
76.23
67.23
56.54
45.01
33.56
22.86
13.14
4.19
-4.47
-13.42
-23.21
-34.25
-46.61
-59.75
-72.29
-81.98
-86.20
-82.75
-70.76
-51.09
-26.23
0.51
26.01
48.07
65.68
78.64
87.09
91.11
90.67
85.92
77.52
66.74
55.27
44.74
36.14
29.51
23.90
17.82
9.85
-0.78
-13.87
-28.38
-42.75
-55.47
-65.44
-72.22
-75.96
-77.35
-77.38
-77.17
-77.65
-79.12
-80.96
-81.46
-78.29
-69.24
-53.12
-30.40
-3.21
25.25
51.66
73.39
88.94
97.82
100.20
96.56
87.59
74.22
57.84
40.32
23.73
10.07
0.75
-3.71
-3.77
-0.71
3.75
7.95
10.70
11.50
10.51
8.33
5.67
3.06
0.69
-1.60
-4.24
-7.89
-13.22
-20.82
-30.86
-42.78
-55.04
-65.26
-70.76
-69.38
-60.33
-44.47
-24.09
-2.08
18.92
37.15
51.79
62.71
70.03
73.92
74.65
72.68
68.73
63.75
58.60
53.89
49.90
46.67
44.10
42.13
40.67
39.57
38.46
36.80
33.98
29.50
23.11
14.99
5.60
-4.40
-14.47
-24.36
-34.23
-44.58
-56.12
-69.24
-83.65
-98.04
-110.06
-116.90
-116.15
-106.74
-89.50
-66.91
-42.35
-18.99
1.02
16.82
28.54
36.78
42.04
44.67
44.83
42.82
39.15
34.52
29.68
25.23
21.43
18.14
14.85
10.85
5.62
-0.99
-8.49
-15.98
-22.42
-27.05
-29.67
-30.60
-30.53
-30.21
-30.24
-31.08
-33.03
-36.18
-40.20
-44.10
-46.21
-44.52
-37.39
-24.23
-5.99
15.09
36.14
54.64
69.02
78.89
84.66
86.97
86.32
83.05
77.55
70.54
63.07
56.21
50.69
46.55
43.18
39.62
34.93
28.58
20.56
11.24
1.12
-9.36
-19.99
-30.72
-41.63
-52.88
-64.62
-77.11
-90.72
-105.81
-122.42
-140.02
-157.33
-172.55
-183.79
-189.71
-189.77
-184.25
-173.71
-158.62
-139.12
-115.28
-87.50
-56.90
-25.33
4.91
31.63
53.19
68.84
78.74
83.82
85.49
85.30
84.41
83.27
81.52
78.14
71.82
61.55
46.97
28.62
7.96
-12.85
-31.36
-45.42
-53.79
-56.53
-55.04
-51.47
-47.88
-45.41
-43.89
-42.09
-38.53
-32.16
-22.89
-11.54
0.71
12.70
23.61
32.89
40.02
44.44
45.58
43.17
37.55
29.75
21.38
14.25
9.97
9.43
12.46
17.79
23.32
26.72
26.24
21.27
12.53
1.69
-9.35
-19.16
-27.09
-33.23
-38.02
-41.83
-44.84
-47.02
-48.21
-48.14
-46.37
-42.27
-35.25
-25.03
-11.96
2.99
18.48
33.23
46.39
57.62
66.81
73.88
78.57
80.58
79.89
76.98
72.84
68.64
65.21
62.76
60.85
58.69
55.61
51.38
46.34
41.12
36.33
32.21
28.65
25.21
21.38
16.77
11.16
4.60
-2.61
-9.87
-16.28
-20.81
-22.55
-21.01
-16.33
-9.22
-0.67
8.44
17.61
26.76
35.95
45.08
53.71
61.03
66.23
68.76
68.43
65.44
60.14
52.94
44.38
35.14
26.14
18.38
12.64
9.20
7.60
6.78
5.30
1.77
-4.83
-14.81
-27.55
-41.47
-54.23
-63.16
-66.05
-61.82
-50.96
-35.37
-17.79
-0.91
13.29
23.95
31.11
35.34
37.32
37.60
36.55
34.50
31.81
28.83
25.79
22.78
19.63
16.13
12.10
7.56
2.70
-2.18
-6.85
-11.29
-15.72
-20.55
-26.25
-33.24
-41.65
-51.10
-60.54
-68.31
-72.52
-71.63
-65.10
-53.58
-38.79
-22.87
-7.69
5.57
16.46
24.92
30.95
34.48
35.42
33.98
30.81
26.81
22.90
19.63
17.03
14.74
12.20
9.03
5.16
0.86
-3.44
-7.36
-10.78
-13.95
-17.43
-21.90
-27.89
-35.48
-44.06
-52.28
-58.27
-60.11
-56.46
-47.04
-32.83
-15.73
2.05
18.62
32.83
44.23
52.80
58.54
61.43
61.42
58.77
54.14
48.57
43.12
38.59
35.20
32.64
30.28
27.43
23.74
19.29
14.57
10.19
6.61
3.82
1.32
-1.70
-6.09
-12.35
-20.42
-29.54
-38.32
-44.95
-47.60
-44.92
-36.43
-22.78
-5.62
12.89
30.70
46.44
59.51
69.93
77.89
83.42
86.29
86.28
83.48
78.55
72.52
66.46
61.04
56.30
51.74
46.70
40.79
34.14
27.34
21.14
16.05
12.09
8.78
5.40
1.25
-4.08
-10.64
-18.02
-25.39
-31.50
-34.78
-33.65
-26.97
-14.57
2.60
22.68
43.51
63.38
81.41
97.43
111.49
123.31
132.01
136.34
135.21
128.20
115.81
99.20
79.66
58.20
35.34
11.33
-13.46
-38.28
-61.95
-83.17
-101.02
-115.40
-127.15
-137.78
-149.10
-162.71
-179.86
-201.07
-225.82
-252.16
-276.67
-295.20
-304.08
-301.54
-288.49
-268.13
-244.21
-219.14
-193.05
-164.19
-130.37
-90.50
-45.32
2.87
50.76
95.36
134.53
167.05
192.48
211.01
223.18
229.62
230.70
225.79
214.22
195.95
171.85
143.59
112.85
80.58
46.93
12.06
-23.63
-58.19
-88.62
-112.57
-129.27
-139.76
-146.08
-149.91
-146.26
-130.44
-99.81
-56.26
-6.98
39.41
76.90
103.67
121.61
133.87
142.33
147.38
148.24
143.06
130.35
110.95
88.16
66.40
49.02
36.62
27.42
18.30
4.00
-20.06
-56.67
-106.81
-166.48
-230.85
-294.04
-349.12
-380.15
-376.52
-337.24
-272.68
-199.33
-131.34
-75.59
-31.47
3.54
34.69
61.67
81.09
89.72
87.37
77.63
66.08
57.63
55.78
61.82
72.85
84.77
94.44
101.02
105.80
110.61
116.48
122.96
128.49
130.05
125.45
114.34
98.38
80.47
63.53
49.62
39.73
33.97
31.19
30.17
30.05
30.56
31.86
33.97
36.53
38.69
39.33
37.28
32.13
24.59
16.37
9.46
5.31
4.28
5.87
9.28
14.08
20.51
29.20
40.52
54.17
69.10
83.99
97.68
109.46
118.95
125.81
129.64
129.93
126.28
118.62
107.31
93.17
77.40
61.52
47.13
35.52
27.31
22.26
19.48
17.73
15.82
12.87
8.39
2.26
-5.19
-13.12
-20.21
-25.06
-26.80
-25.67
-23.37
-22.51
-25.79
-34.51
-47.78
-62.36
-73.40
-76.14
-67.67
-48.33
-21.92
5.49
27.60
40.18
42.46
37.31
30.11
26.94
32.56
49.07
75.23
106.69
137.07
159.64
169.17
163.42
143.70
114.26
80.80
48.57
21.01
-0.77
-17.55
-31.25
-44.53
-60.27
-81.56
-111.35
-151.66
-202.79
-262.60
-326.76
-389.68
-445.88
-491.09
-522.67
-539.36
-540.77
-527.05
-499.08
-458.88
-409.73
-355.80
-301.26
-249.29
-201.50
-157.94
-117.65
-79.18
-41.10
-2.44
36.82
75.28
110.03
137.20
153.17
156.03
146.52
127.89
104.68
81.11
59.78
41.48
25.87
12.58
1.89
-5.40
-8.65
-8.15
-5.41
-2.79
-2.74
-7.02
-16.09
-28.95
-43.32
-56.19
-64.53
-66.08
-60.06
-47.35
-30.19
-11.31
6.98
23.54
38.48
52.75
67.30
82.51
97.86
112.23
124.27
132.96
137.77
138.75
136.28
130.86
122.91
112.80
100.94
87.91
74.44
61.30
49.05
37.85
27.42
17.15
6.39
-5.31
-18.05
-31.66
-45.76
-59.84
-73.12
-84.41
-92.15
-94.73
-91.01
-80.75
-64.87
-45.09
-23.48
-1.82
18.73
37.56
54.43
69.06
81.08
90.06
95.73
98.14
97.71
95.10
91.06
86.22
80.96
75.39
69.39
62.77
55.39
47.28
38.67
29.94
21.56
13.88
7.10
1.20
-3.99
-8.86
-13.97
-20.00
-27.64
-37.12
-47.93
-58.55
-66.72
-70.04
-66.89
-57.00
-41.52
-22.55
-2.35
17.34
35.53
51.82
65.93
77.43
85.65
89.91
89.84
85.60
77.96
68.12
57.52
47.47
38.89
32.19
27.20
23.40
20.13
16.84
13.30
9.55
5.83
2.46
-0.35
-2.56
-4.28
-5.88
-7.82
-10.62
-14.50
-19.14
-23.38
-25.36
-22.99
-14.81
-0.61
18.30
39.42
59.96
77.70
91.58
101.65
108.54
112.93
115.19
115.47
114.01
111.44
108.72
106.79
106.18
106.76
107.77
108.09
106.74
103.02
96.66
87.61
75.91
61.64
45.02
26.54
7.00
-12.62
-31.48
-49.13
-65.60
-81.10
-95.53
-108.11
-117.37
-121.62
-119.73
-111.72
-99.07
-84.11
-69.22
-56.01
-44.90
-35.34
-26.48
-17.87
-9.78
-3.09
1.15
2.21
0.02
-4.81
-11.16
-17.66
-22.95
-25.86
-25.63
-22.11
-16.02
-9.00
-3.38
-1.65
-5.55
-15.43
-29.86
-46.10
-61.05
-72.37
-79.26
-82.33
-82.81
-81.49
-78.08
-71.33
-59.87
-43.22
-22.40
0.47
22.89
43.04
60.17
74.43
86.22
95.59
102.03
104.73
103.17
97.50
88.77
78.59
68.69
60.45
54.47
50.60
48.11
46.10
43.88
41.22
38.24
35.26
32.42
29.52
26.01
21.19
14.49
5.51
-5.80
-19.23
-34.21
-49.58
-63.61
-74.07
-78.75
-76.14
-66.09
-50.02
-30.52
-10.56
7.42
22.06
33.13
41.08
46.43
49.46
50.11
48.36
44.41
38.94
32.90
27.22
22.50
18.83
15.86
13.07
9.98
6.35
2.22
-2.26
-6.90
-11.68
-16.62
-21.82
-27.28
-32.88
-38.40
-43.74
-49.01
-54.59
-60.81
-67.52
-73.79
-77.88
-77.76
-71.95
-60.22
-43.81
-25.09
-6.68
9.39
22.10
31.36
37.54
41.01
41.97
40.57
37.19
32.59
27.86
24.07
21.95
21.58
22.45
23.58
23.98
22.95
20.23
16.09
11.01
5.49
-0.15
-5.85
-11.70
-17.79
-24.15
-30.77
-37.67
-44.91
-52.34
-59.38
-64.83
-67.04
-64.41
-56.05
-42.28
-24.66
-5.52
12.82
28.64
41.15
50.22
56.00
58.58
57.93
54.18
47.87
40.09
32.25
25.67
21.06
18.30
16.51
14.43
10.99
5.68
-1.26
-9.06
-16.76
-23.67
-29.57
-34.72
-39.64
-44.90
-50.91
-57.85
-65.53
-73.25
-79.76
-83.36
-82.28
-75.37
-62.53
-44.95
-24.79
-4.46
14.09
29.73
42.12
51.31
57.37
60.18
59.71
56.24
50.60
44.09
38.04
33.37
30.28
28.18
26.03
22.86
18.11
11.89
4.80
-2.41
-9.13
-15.17
-20.69
-26.11
-31.84
-38.29
-45.74
-54.34
-63.89
-73.53
-81.69
-86.28
-85.28
-77.57
-63.44
-44.66
-23.85
-3.64
14.13
28.71
40.15
48.76
54.72
57.92
58.22
55.85
51.50
46.27
41.23
37.10
34.07
31.78
29.58
26.83
23.11
18.28
12.50
6.12
-0.51
-7.10
-13.52
-19.81
-26.13
-32.66
-39.68
-47.45
-56.24
-66.05
-76.36
-85.85
-92.61
-94.48
-89.82
-78.23
-60.71
-39.46
-17.15
3.87
22.10
36.96
48.46
56.83
62.21
64.70
64.49
62.03
58.00
53.19
48.31
43.82
39.91
36.55
33.57
30.76
27.80
24.31
19.88
14.15
7.07
-1.09
-9.69
-17.99
-25.32
-31.38
-36.32
-40.73
-45.45
-51.42
-59.32
-69.29
-80.53
-91.31
-99.22
-101.83
-97.56
-86.23
-69.19
-48.85
-27.83
-8.24
8.74
22.72
33.71
41.77
46.88
49.06
48.60
46.21
42.88
39.61
37.10
35.53
34.57
33.59
31.96
29.39
26.02
22.22
18.41
14.66
10.70
5.96
0.02
-7.13
-14.96
-22.60
-29.20
-34.33
-38.14
-41.23
-44.50
-48.77
-54.54
-61.82
-69.93
-77.48
-82.49
-82.89
-77.10
-64.69
-46.59
-24.87
-2.08
19.47
38.19
53.34
64.75
72.52
76.80
77.90
76.34
72.95
68.72
64.58
61.11
58.43
56.31
54.35
52.25
49.92
47.49
45.13
42.83
40.35
37.22
33.00
27.44
20.70
13.28
5.87
-0.97
-6.94
-12.19
-17.27
-22.95
-29.90
-38.31
-47.56
-56.13
-61.82
-62.38
-56.28
-43.34
-24.89
-3.37
18.45
38.21
54.58
67.14
76.09
81.79
84.48
84.30
81.54
76.87
71.29
65.94
61.66
58.79
57.10
56.05
55.01
53.60
51.59
48.88
45.30
40.68
34.86
27.93
20.30
12.55
5.29
-1.13
-6.76
-12.04
-17.68
-24.49
-32.99
-43.06
-53.68
-62.93
-68.39
-67.91
-60.38
-46.20
-27.19
-5.94
14.99
33.72
49.30
61.48
70.29
75.83
78.19
77.60
74.66
70.31
65.59
61.35
57.95
55.19
52.49
49.23
45.06
40.07
34.65
29.21
23.85
18.30
12.04
4.65
-3.87
-13.06
-22.15
-30.36
-37.33
-43.17
-48.48
-54.11
-60.99
-69.79
-80.64
-92.78
-104.47
-113.24
-116.50
-112.45
-100.81
-82.92
-61.40
-39.13
-18.41
-0.47
14.46
26.62
36.21
43.10
46.98
47.76
45.83
42.20
38.17
34.95
33.21
32.93
33.48
34.00
33.81
32.65
30.67
28.22
25.57
22.60
18.88
13.85
7.16
-1.05
-10.11
-19.02
-26.87
-33.18
-38.07
-42.20
-46.45
-51.64
-58.37
-66.79
-76.46
-86.27
-94.44
-98.83
-97.51
-89.48
-75.09
-56.07
-34.88
-14.00
4.86
20.93
34.12
44.58
52.25
56.89
58.27
56.61
52.67
47.68
42.87
39.11
36.59
34.87
33.22
30.94
27.70
23.59
18.98
14.27
9.71
5.24
0.63
-4.41
-10.04
-16.20
-22.58
-28.70
-34.14
-38.62
-42.15
-45.04
-47.81
-51.01
-55.20
-60.80
-67.96
-76.36
-84.95
-91.96
-95.18
-92.67
-83.45
-68.04
-48.32
-26.96
-6.49
11.35
25.87
37.09
45.29
50.60
53.05
52.75
50.26
46.57
42.89
40.19
38.86
38.59
38.59
38.01
36.29
33.40
29.76
26.00
22.60
19.71
17.08
14.16
10.44
5.62
-0.17
-6.45
-12.56
-17.86
-22.08
-25.37
-28.25
-31.46
-35.72
-41.51
-48.87
-57.22
-65.24
-71.05
-72.58
-68.25
-57.51
-41.18
-21.28
-0.38
19.12
35.63
48.38
57.27
62.41
63.96
62.20
57.68
51.38
44.58
38.51
33.94
31.04
29.37
28.17
26.74
24.68
21.99
18.93
15.78
12.64
9.30
5.38
0.54
-5.30
-11.80
-18.34
-24.24
-29.01
-32.53
-35.11
-37.31
-39.92
-43.65
-48.94
-55.60
-62.59
-68.04
-69.68
-65.60
-54.97
-38.41
-17.89
4.05
25.01
43.32
58.15
69.32
76.91
81.08
82.06
80.36
76.78
72.42
68.32
65.14
63.03
61.58
60.11
58.02
55.10
51.51
47.63
43.72
39.60
34.74
28.46
20.32
10.50
-0.25
-10.84
-20.30
-28.11
-34.39
-39.80
-45.29
-51.86
-60.19
-70.46
-81.93
-92.96
-101.17
-104.15
-100.17
-88.95
-71.79
-51.08
-29.53
-9.33
8.26
22.84
34.37
42.87
48.24
50.43
49.79
47.09
43.44
39.86
36.95
34.76
32.85
30.66
27.79
24.28
20.43
16.63
13.02
9.31
4.91
-0.87
-8.41
-17.52
-27.47
-37.22
-45.82
-52.76
-58.20
-62.82
-67.65
-73.70
-81.58
-91.25
-101.80
-111.47
-117.97
-119.05
-113.16
-100.04
-80.87
-57.94
-34.00
-11.40
8.31
24.53
37.26
46.69
52.90
55.85
55.66
52.85
48.36
43.40
38.95
35.50
32.85
30.36
27.33
23.48
19.00
14.39
10.10
6.22
2.30
-2.35
-8.34
-15.81
-24.32
-33.06
-41.15
-47.97
-53.40
-57.83
-61.98
-66.75
-72.97
-81.15
-91.17
-102.04
-111.87
-118.16
-118.47
-111.23
-96.36
-75.38
-50.95
-25.95
-2.74
17.35
33.83
46.74
56.16
62.11
64.72
64.49
62.30
59.31
56.51
54.39
52.93
51.70
50.28
48.51
46.56
44.74
43.26
41.99
40.45
38.06
34.29
29.00
22.50
15.47
8.66
2.62
-2.42
-6.78
-11.11
-16.32
-23.16
-31.90
-41.98
-51.83
-59.07
-61.17
-56.20
-43.62
-24.57
-1.50
22.55
44.91
63.90
78.93
90.13
97.89
102.51
104.11
102.86
99.16
93.71
87.45
81.29
75.89
71.53
68.07
65.14
62.23
58.83
54.56
49.23
42.77
35.24
26.80
17.61
7.91
-2.08
-12.23
-22.54
-33.26
-44.93
-58.18
-73.37
-90.06
-106.60
-120.24
-127.72
-126.37
-115.20
-95.33
-69.89
-42.97
-18.41
1.17
14.73
22.63
25.99
26.15
24.31
21.44
18.32
15.58
13.59
12.53
12.38
12.96
14.06
15.49
16.97
18.07
18.10
16.17
11.34
2.86
-9.38
-24.70
-41.43
-57.24
-69.57
-76.37
-76.67
-70.98
-61.23
-50.24
-40.95
-35.55
-34.87
-38.14
-43.27
-47.51
-48.34
-44.03
-34.12
-19.21
-0.74
19.44
39.43
57.52
72.27
82.75
88.59
90.02
87.81
83.05
76.92
70.38
64.15
58.59
53.79
49.70
46.17
43.01
39.92
36.54
32.51
27.60
21.87
15.70
9.72
4.44
0.00
-3.98
-8.35
-13.98
-21.49
-30.97
-41.97
-53.54
-64.31
-72.59
-76.61
-74.87
-66.65
-52.41
-33.78
-13.12
7.23
25.65
41.56
55.21
67.12
77.58
86.36
92.93
96.75
97.66
95.88
91.90
86.20
79.11
70.93
62.12
53.42
45.76
39.89
35.98
33.38
30.73
26.55
19.80
10.36
-0.97
-12.90
-24.08
-33.70
-41.55
-48.04
-53.92
-60.09
-67.33
-75.99
-85.66
-95.02
-102.00
-104.33
-100.31
-89.54
-73.09
-53.09
-31.98
-11.75
6.47
22.30
35.76
46.80
55.17
60.58
62.94
62.56
60.17
56.66
52.76
48.83
44.86
40.61
35.90
30.84
25.84
21.40
17.79
14.86
11.96
8.27
3.18
-3.34
-10.71
-18.02
-24.40
-29.48
-33.47
-37.06
-41.17
-46.58
-53.75
-62.69
-72.83
-82.96
-91.18
-95.30
-93.34
-84.28
-68.47
-47.69
-24.60
-1.93
18.23
34.79
47.46
56.42
61.89
64.06
63.28
60.26
56.16
52.31
49.82
49.23
50.34
52.45
54.66
56.27
56.91
56.40
54.64
51.37
46.28
39.17
30.21
20.02
9.52
-0.36
-8.91
-15.91
-21.62
-26.70
-32.12
-38.84
-47.53
-58.12
-69.51
-79.58
-85.66
-85.32
-77.35
-62.21
-41.98
-19.66
1.81
20.34
35.02
45.84
53.23
57.65
59.38
58.76
56.36
53.03
49.65
46.82
44.61
42.54
39.87
36.05
30.99
25.12
19.14
13.57
8.55
3.71
-1.57
-7.81
-15.16
-23.27
-31.51
-39.26
-46.16
-52.29
-58.12
-64.35
-71.74
-80.81
-91.48
-102.80
-112.83
-118.99
-118.79
-110.74
-95.05
-73.61
-49.39
-25.38
-3.81
14.27
28.64
39.47
46.82
50.63
51.00
48.44
43.97
38.82
34.06
30.25
27.35
24.92
22.41
19.50
16.13
12.49
8.72
4.74
0.15
-5.58
-12.86
-21.61
-31.20
-40.59
-48.72
-54.98
-59.45
-62.84
-66.23
-70.63
-76.60
-84.05
-92.09
-99.08
-102.92
-101.47
-93.26
-78.05
-57.02
-32.60
-7.69
15.09
34.03
48.41
58.31
64.18
66.60
66.16
63.56
59.61
55.17
50.89
47.09
43.74
40.53
37.14
33.37
29.30
25.13
21.14
17.46
14.00
10.43
6.36
1.53
-4.06
-10.12
-16.24
-22.05
-27.46
-32.65
-38.08
-44.35
-51.90
-60.70
-69.93
-77.87
-82.20
-80.70
-72.10
-56.69
-36.38
-14.08
7.25
25.49
39.68
49.83
56.35
59.59
59.79
57.24
52.62
46.97
41.50
37.13
34.28
32.78
32.17
31.89
31.55
30.92
29.77
27.86
24.87
20.60
15.06
8.57
1.63
-5.23
-11.69
-17.73
-23.73
-30.30
-38.09
-47.37
-57.68
-67.63
-75.06
-77.63
-73.53
-62.21
-44.56
-22.70
0.72
23.18
42.81
58.49
69.67
76.15
77.99
75.54
69.61
61.48
52.74
44.99
39.36
36.23
35.12
34.89
34.22
32.07
28.07
22.60
16.52
10.76
5.81
1.53
-2.79
-8.14
-15.40
-25.05
-36.99
-50.43
-63.90
-75.39
-82.70
-83.94
-78.06
-65.32
-47.24
-26.19
-4.72
15.06
31.86
45.04
54.40
59.83
61.26
58.88
53.30
45.71
37.58
30.26
24.54
20.40
17.09
13.52
8.83
2.80
-4.07
-10.80
-16.43
-20.52
-23.35
-25.83
-29.08
-34.14
-41.63
-51.59
-63.39
-75.61
-86.10
-92.29
-91.85
-83.46
-67.41
-45.58
-20.90
3.62
25.73
44.24
58.82
69.50
76.24
78.99
77.88
73.62
67.51
61.16
55.89
52.39
50.45
49.18
47.46
44.40
39.66
33.51
26.55
19.45
12.62
6.06
-0.55
-7.68
-15.81
-25.28
-36.13
-47.96
-59.68
-69.42
-74.80
-73.58
-64.41
-47.51
-24.75
0.89
26.27
48.97
67.68
82.06
92.23
98.32
100.30
98.19
92.43
84.05
74.51
65.36
57.77
52.25
48.55
45.91
43.38
40.24
36.14
31.17
25.68
20.01
14.35
8.61
2.60
-3.95
-11.19
-19.28
-28.37
-38.57
-49.72
-61.00
-70.75
-76.67
-76.40
-68.42
-52.80
-31.30
-6.93
17.04
38.02
54.60
66.55
74.29
78.39
79.23
77.09
72.31
65.60
57.99
50.63
44.49
40.03
37.13
35.21
33.44
31.03
27.40
22.28
15.74
8.05
-0.38
-9.14
-17.87
-26.34
-34.39
-42.05
-49.53
-57.32
-66.07
-76.23
-87.57
-98.76
-107.35
-110.40
-105.55
-91.91
-70.67
-44.66
-17.43
7.88
29.30
46.10
58.36
66.46
70.70
71.42
69.14
64.80
59.57
54.59
50.58
47.63
45.32
42.94
40.00
36.32
32.13
27.71
23.17
18.27
12.46
5.29
-3.35
-13.03
-22.95
-32.20
-40.17
-46.80
-52.50
-58.11
-64.57
-72.62
-82.37
-92.95
-102.44
-108.23
-107.78
-99.59
-83.89
-62.58
-38.67
-15.24
5.36
21.87
33.94
41.64
45.13
44.56
40.33
33.21
24.44
15.42
7.31
0.76
-4.20
-7.97
-11.07
-13.84
-16.34
-18.45
-20.07
-21.32
-22.62
-24.51
-27.44
-31.57
-36.69
-42.35
-48.07
-53.52
-58.72
-64.02
-70.04
-77.37
-86.19
-95.86
-104.65
-110.06
-109.45
-101.05
-84.74
-62.23
-36.61
-11.30
10.92
28.47
41.04
49.04
53.16
54.04
52.18
48.23
43.05
37.71
33.24
30.40
29.42
30.01
31.49
33.07
34.05
34.02
32.84
30.59
27.42
23.52
19.04
14.12
8.90
3.54
-1.85
-7.23
-12.79
-18.89
-25.87
-33.68
-41.44
-47.40
-49.26
-45.00
-33.77
-16.45
4.50
25.85
44.73
59.36
69.31
75.00
77.15
76.28
72.67
66.69
59.02
50.77
43.20
37.36
33.70
31.95
31.23
30.37
28.34
24.57
19.14
12.67
6.00
-0.12
-5.41
-10.09
-14.68
-19.80
-25.89
-33.15
-41.47
-50.32
-58.63
-64.77
-66.70
-62.65
-51.79
-34.75
-13.59
8.79
29.63
47.02
60.20
69.23
74.55
76.47
75.20
71.00
64.52
56.85
49.35
43.17
38.86
36.20
34.29
32.00
28.39
23.10
16.38
8.84
1.12
-6.43
-13.85
-21.49
-29.75
-38.97
-49.34
-60.76
-72.69
-83.99
-92.74
-96.65
-93.64
-82.73
-64.57
-41.52
-16.91
5.94
24.76
38.70
48.12
54.01
57.34
58.60
57.87
55.09
50.32
43.86
36.26
28.13
20.01
12.37
5.52
-0.32
-5.15
-9.18
-12.89
-16.96
-21.98
-28.28
-35.78
-44.05
-52.37
-60.14
-67.03
-73.24
-79.29
-85.65
-92.04
-96.87
-97.04
-88.51
-67.59
-32.32
16.44
74.85
136.99
196.23
246.82
284.76
308.20
317.03
312.51
296.71
272.15
241.68
208.16
174.33
142.46
114.10
90.04
70.40
54.90
43.14
34.64
28.67
23.97
18.80
11.22
-0.24
-16.10
-35.69
-57.49
-79.68
-100.77
-119.77
-136.23
-150.04
-161.36
-170.35
-177.02
-180.80
-180.34
-173.65
-158.65
-134.01
-99.98
-58.81
-14.50
27.94
63.54
88.37
100.16
98.45
84.30
59.64
27.02
-10.64
-50.08
-87.87
-120.90
-147.12
-166.02
-178.65
-186.95
-192.80
-197.36
-201.08
-204.11
-206.81
-210.11
-215.14
-222.87
-233.68
-247.31
-263.03
-279.78
-296.10
-310.05
-319.53
-322.81
-319.14
-309.08
-294.35
-277.30
-260.04
-243.88
-228.85
-214.33
-199.62
-184.39
-168.74
-152.94
-137.15
-121.26
-104.99
-87.38
-67.84
-46.33
-23.38
0.32
24.26
48.35
72.81
97.88
124.74
154.33
187.09
223.03
261.74
302.45
343.80
383.65
419.27
449.30
472.63
488.37
495.77
494.24
483.98
466.30
443.65
410.52
365.47
310.89
252.79
198.06
151.26
113.83
84.92
62.56
44.59
30.55
20.24
13.49
10.01
9.01
9.70
11.13
11.97
10.56
6.64
0.44
-7.34
-15.92
-24.98
-34.92
-46.47
-60.73
-78.67
-100.17
-124.84
-152.28
-179.82
-206.22
-228.70
-242.57
-242.78
-226.34
-194.12
-151.73
-107.68
-70.25
-44.65
-31.16
-26.31
-25.71
-26.17
-26.41
-26.28
-25.52
-22.80
-16.57
-5.98
8.54
24.17
36.76
42.42
39.41
28.99
14.84
1.28
-8.30
-12.89
-14.06
-14.77
-17.68
-23.93
-32.85
-42.66
-51.72
-59.05
-64.74
-69.68
-74.99
-81.54
-89.72
-99.54
-110.81
-123.19
-135.82
-147.25
-155.62
-159.02
-155.98
-145.92
-129.21
-106.85
-81.26
-54.97
-30.10
-7.97
10.96
26.92
40.69
53.46
66.70
81.99
100.86
124.11
151.24
180.04
206.69
226.58
235.72
232.21
217.20
194.94
171.23
151.45
138.57
132.47
130.55
129.40
126.40
120.57
112.49
103.38
94.16
84.99
75.34
64.32
51.12
35.06
15.81
-6.51
-31.10
-56.56
-80.96
-102.24
-118.54
-128.44
-131.21
-127.01
-117.02
-103.59
-89.69
-78.15
-70.66
-67.11
-65.89
-64.90
-62.61
-58.50
-52.66
-45.00
-34.81
-21.20
-4.13
14.68
31.87
43.61
47.37
43.21
33.79
23.21
15.21
11.74
12.53
15.59
18.26
18.13
13.68
4.36
-9.36
-26.09
-43.68
-59.38
-70.26
-73.71
-68.19
-53.66
-31.63
-4.81
23.51
50.22
72.92
90.18
101.52
107.35
108.89
107.88
106.23
105.53
106.57
109.02
111.61
112.54
110.15
103.79
94.18
83.38
74.36
69.94
71.83
79.72
90.90
100.59
102.97
92.87
67.63
28.40
-19.58
-68.20
-108.97
-135.71
-146.54
-143.94
-133.12
-119.28
-105.44
-91.77
-76.64
-58.45
-37.17
-14.54
6.89
25.14
39.73
51.42
61.16
69.00
73.68
73.09
65.54
50.54
29.22
3.85
-22.85
-48.41
-70.83
-88.63
-100.74
-106.75
-107.26
-104.24
-100.85
-100.68
-106.40
-118.47
-134.70
-150.79
-161.78
-163.93
-155.93
-139.09
-116.53
-91.78
-67.68
-45.87
-27.10
-11.77
-0.25
7.29
11.41
13.72
16.66
22.60
32.81
46.64
61.69
74.71
83.12
86.16
85.18
83.00
82.43
85.03
90.47
96.96
102.32
105.32
106.38
107.45
111.10
119.07
131.09
144.43
154.41
155.59
143.35
115.14
71.43
15.98
-44.50
-101.46
-146.22
-171.97
-175.58
-158.58
-126.73
-88.28
-51.41
-21.94
-1.99
9.70
16.51
22.19
29.57
40.11
54.03
70.84
89.79
110.03
130.73
151.05
170.23
187.54
202.15
212.95
218.48
217.29
208.47
192.34
170.42
145.11
118.70
92.46
66.35
39.15
8.83
-27.07
-70.95
-124.13
-185.59
-250.84
-312.19
-360.55
-388.51
-393.14
-376.90
-346.18
-308.33
-268.72
-229.74
-191.69
-154.62
-119.73
-89.11
-64.52
-46.08
-32.13
-20.30
-9.03
1.63
10.46
16.12
18.61
19.64
21.97
28.07
38.82
53.07
68.08
80.85
89.41
93.98
97.03
102.31
113.27
131.17
154.10
177.16
193.88
198.24
186.43
157.96
115.65
65.09
13.54
-31.16
-62.03
-74.30
-66.65
-41.66
-5.33
34.40
69.76
95.00
107.57
108.21
100.26
88.49
77.74
71.79
72.54
79.67
90.92
102.87
112.08
116.05
113.92
106.38
95.10
81.87
67.88
53.36
37.69
19.55
-2.82
-31.07
-65.91
-105.93
-146.98
-182.73
-206.76
-215.47
-210.11
-196.67
-183.24
-176.10
-176.65
-181.02
-182.31
-174.11
-153.35
-120.89
-80.22
-35.29
10.73
55.52
96.86
132.23
159.23
176.68
185.63
189.43
192.70
199.60
212.31
230.43
251.38
271.75
288.53
300.04
305.92
306.58
302.38
293.11
277.90
255.82
226.48
190.63
150.14
107.62
65.62
26.04
-10.17
-42.92
-72.71
-100.31
-126.60
-152.69
-179.75
-208.66
-239.40
-270.63
-299.73
-323.62
-339.84
-347.50
-347.57
-342.21
-333.59
-322.97
-310.50
-295.75
-278.69
-260.12
-241.48
-223.98
-207.72
-191.57
-173.71
-152.57
-127.56
-99.15
-68.42
-36.75
-5.52
23.59
48.58
67.35
78.35
81.23
76.99
67.52
54.78
40.21
24.56
8.29
-7.94
-23.16
-36.29
-46.58
-53.71
-57.83
-59.30
-58.56
-56.00
