1660323831.00
64.000000
-0.00
-0.00
-0.00
-0.00
-0.00
-0.00
-0.00
-0.00
-0.00
-0.00
0.00
0.01
0.01
-0.00
-0.03
-0.05
-0.05
0.00
0.13
0.36
0.66
1.01
1.37
1.72
2.06
2.40
2.79
3.24
3.80
4.42
5.06
5.66
6.19
6.67
7.15
7.71
8.37
9.21
10.11
10.94
11.60
12.04
12.37
12.78
13.52
14.73
16.62
18.94
21.39
23.68
25.66
27.44
29.40
31.98
35.48
40.22
45.74
51.46
56.77
61.38
65.48
69.68
74.72
81.07
89.10
98.05
106.94
114.86
121.40
126.89
132.29
139.08
145.86
154.53
165.18
177.55
190.33
200.94
205.63
200.37
182.13
149.88
105.41
51.76
-7.39
-68.93
-130.88
-192.14
-251.95
-309.52
-364.02
-414.52
-460.84
-503.16
-541.68
-576.16
-605.18
-625.80
-633.52
-623.33
-591.07
-535.72
-460.13
-370.72
-275.70
-182.67
-96.74
-20.12
47.00
105.14
154.20
193.66
223.09
243.04
255.14
261.62
264.46
264.74
262.56
257.37
248.76
236.95
222.82
207.69
192.77
178.86
166.15
154.36
143.02
131.69
120.16
108.50
96.99
86.02
75.93
66.91
58.97
51.92
45.55
39.61
33.93
28.40
23.01
17.81
12.94
8.63
4.97
1.95
-0.50
-2.52
-4.21
-5.61
-6.69
-7.41
-7.79
-7.91
-7.87
-7.76
-7.63
-7.51
-7.40
-7.29
-7.14
-6.95
-6.74
-6.52
-6.28
-6.04
-5.79
-5.55
-5.33
-5.08
-4.77
-4.34
-3.79
-3.18
-2.65
-2.31
-2.23
-2.36
-2.53
-2.54
-2.29
-1.82
-1.34
-1.12
-1.35
-2.02
-2.90
-3.62
-3.90
-3.63
-2.95
-2.14
-1.52
-1.25
-1.33
-1.58
-1.80
-1.80
-1.49
-0.88
-0.12
0.56
0.86
0.61
-0.20
-1.30
-2.26
-2.63
-2.10
-0.67
1.35
3.46
5.07
5.66
4.93
2.96
0.18
-2.63
-4.62
-5.16
-4.07
-1.71
1.15
3.70
5.30
5.75
5.20
4.08
2.86
1.98
1.66
1.87
2.42
2.95
3.15
2.85
2.06
1.03
0.05
-0.67
-1.11
-1.42
-1.82
-2.39
-3.07
-3.68
-4.05
-4.07
-3.69
-2.90
-1.69
-0.10
1.67
3.23
4.05
3.71
2.13
-0.32
-2.91
-4.90
-5.88
-5.93
-5.56
-5.37
-5.75
-6.66
-7.79
-8.75
-9.37
-9.73
-10.15
-10.86
-11.88
-12.89
-13.37
-12.76
-10.79
-7.63
-3.97
-0.75
1.13
1.22
-0.33
-2.84
-5.41
-7.39
-8.67
-9.69
-11.06
-13.19
-16.02
-19.08
-21.73
-23.52
-24.38
-24.53
-24.25
-23.59
-22.30
-19.78
-15.61
-9.68
-2.33
5.83
14.05
21.76
28.61
34.48
39.22
42.51
43.87
42.80
39.12
33.20
26.00
18.90
13.20
9.67
8.27
8.25
8.51
8.08
6.47
3.82
0.73
-2.11
-4.18
-5.37
-5.88
-6.09
-6.38
-6.96
-7.84
-8.88
-9.86
-10.55
-10.80
-10.50
-9.66
-8.37
-6.83
-5.26
-3.90
-2.93
-2.47
-2.50
-2.81
-3.07
-2.87
-1.91
-0.15
2.11
4.32
5.91
6.51
6.08
4.91
3.44
2.03
0.86
-0.09
-0.85
-1.42
-1.67
-1.46
-0.71
0.51
2.04
3.69
5.36
7.00
8.60
10.10
11.35
12.10
12.19
11.53
10.24
8.55
6.79
5.23
4.11
3.52
3.43
3.67
4.00
4.17
3.95
3.18
1.83
0.01
-2.06
-4.02
-5.53
-6.27
-6.11
-5.13
-3.64
-2.00
-0.57
0.46
1.07
1.37
1.46
1.39
1.11
0.59
-0.16
-0.99
-1.68
-2.05
-1.99
-1.60
-1.07
-0.62
-0.37
-0.37
-0.55
-0.80
-1.05
-1.25
-1.36
-1.40
-1.34
-1.21
-1.00
-0.71
-0.32
0.14
0.66
1.16
1.58
1.89
2.07
2.13
2.05
1.82
1.41
0.85
0.28
-0.13
-0.22
0.07
0.63
1.24
1.64
1.69
1.35
0.73
-0.04
-0.80
-1.46
-1.97
-2.25
-2.27
-2.05
-1.67
-1.28
-1.07
-1.13
-1.41
-1.74
-1.92
-1.82
-1.45
-0.91
-0.34
0.15
0.51
0.71
0.76
0.65
0.43
0.17
-0.01
-0.05
0.06
0.22
0.28
0.12
-0.30
-0.88
-1.43
-1.76
-1.75
-1.40
-0.81
-0.17
0.35
0.66
0.79
0.82
0.89
1.06
1.29
1.47
1.50
1.33
1.05
0.78
0.67
0.72
0.86
0.94
0.84
0.55
0.18
-0.14
-0.29
-0.25
-0.07
0.14
0.28
0.32
0.26
0.14
-0.03
-0.26
-0.56
-0.96
-1.43
-1.89
-2.23
-2.34
-2.14
-1.68
-1.04
-0.38
0.17
0.53
0.68
0.67
0.51
0.25
-0.11
-0.53
-0.96
-1.31
-1.51
-1.50
-1.30
-0.99
-0.70
-0.55
-0.59
-0.81
-1.08
-1.25
-1.21
-0.93
-0.54
-0.23
-0.21
-0.56
-1.23
-1.97
-2.45
-2.38
-1.61
-0.24
1.41
2.89
3.81
3.98
3.48
2.59
1.66
0.94
0.47
0.16
-0.12
-0.44
-0.78
-1.05
-1.18
-1.18
-1.11
-1.04
-1.04
-1.11
-1.27
-1.51
-1.80
-2.04
-2.10
-1.84
-1.24
-0.43
0.30
0.67
0.58
0.13
-0.33
-0.43
0.02
0.95
2.03
2.76
2.65
1.33
-1.43
-5.55
-10.62
-15.75
-19.73
-21.28
-19.54
-14.51
-7.16
0.83
7.69
12.16
13.82
13.08
10.86
8.08
5.47
3.45
2.22
1.90
2.53
3.96
5.88
7.76
9.10
9.60
9.27
8.43
7.51
6.81
6.35
5.85
4.87
3.09
0.50
-2.62
-5.72
-8.25
-9.75
-10.06
-9.28
-7.71
-5.68
-3.44
-1.07
1.46
4.21
7.07
9.77
11.96
13.38
14.05
14.34
14.78
15.86
17.76
20.20
22.50
23.68
22.76
19.08
12.60
4.18
-4.58
-11.72
-15.66
-15.83
-12.93
-8.63
-4.85
-2.95
-3.29
-5.34
-8.12
-10.80
-12.94
-14.46
-15.43
-15.88
-15.86
-15.54
-15.25
-15.28
-15.66
-16.03
-15.77
-14.41
-12.03
-9.29
-7.16
-6.36
-6.91
-8.01
-8.46
-7.27
-4.16
0.26
4.89
8.61
10.77
11.32
10.62
9.19
7.38
5.44
3.54
1.98
1.21
1.61
3.34
6.06
9.01
11.23
11.97
10.99
8.73
6.07
3.96
3.04
3.41
4.66
6.19
7.54
8.56
9.40
10.18
10.80
10.88
9.89
7.59
4.26
0.76
-1.78
-2.49
-1.18
1.50
4.48
6.71
7.65
7.35
6.17
4.34
1.82
-1.69
-6.39
-11.91
-17.32
-21.37
-22.96
-21.79
-18.57
-14.84
-12.55
-13.38
-18.28
-27.32
-39.75
-54.12
-68.26
-79.31
-83.90
-78.94
-62.74
-36.20
-3.22
30.09
57.30
73.88
78.74
74.22
64.67
54.51
46.60
41.75
39.33
38.29
38.01
38.32
39.08
39.61
38.48
33.99
25.00
11.73
-4.25
-20.43
-34.43
-44.77
-51.21
-54.48
-55.62
-55.27
-53.25
-48.67
-40.49
-28.13
-12.00
6.49
25.32
42.48
56.53
66.94
73.97
78.36
80.93
82.34
82.96
82.99
82.43
81.13
78.84
75.30
70.40
64.21
56.93
48.74
39.71
29.81
19.16
8.18
-2.41
-11.72
-19.11
-24.22
-27.14
-28.21
-27.97
-27.10
-26.38
-26.63
-28.59
-32.67
-38.80
-46.32
-54.10
-60.80
-65.17
-66.25
-63.60
-57.46
-48.84
-39.40
-30.98
-25.04
-22.11
-21.83
-23.11
-24.72
-25.74
-25.83
-24.95
-23.01
-19.64
-14.31
-7.18
1.05
9.21
16.11
20.88
23.34
24.00
23.87
23.90
23.79
22.69
19.58
13.84
5.30
-5.64
-17.89
-29.89
-40.11
-48.71
-56.50
-64.34
-72.55
-80.99
-88.99
-95.37
-98.69
-97.91
-94.32
-89.95
-86.63
-85.08
-85.46
-87.55
-91.09
-96.13
-94.31
-81.70
-60.10
-35.86
-14.38
2.46
15.56
26.12
34.48
40.32
42.43
41.34
38.21
37.16
40.71
48.59
58.12
66.03
70.33
70.00
65.62
58.29
48.79
36.48
20.50
1.06
-19.44
-36.97
-48.31
-52.17
-49.64
-43.25
-35.91
-29.47
-24.23
-19.52
-14.63
-9.89
-6.22
-4.41
-4.31
-5.22
-6.15
-6.39
-5.76
-4.58
-3.69
-3.82
-5.13
-7.00
-8.34
-7.77
-4.18
2.85
12.84
24.33
35.27
43.68
48.29
48.79
45.82
40.44
33.65
26.04
17.94
9.81
2.50
-2.85
-5.23
-4.28
-0.54
4.77
10.25
14.91
18.45
21.25
24.17
28.20
34.04
41.89
51.16
60.53
68.16
72.38
72.35
68.51
62.60
56.99
53.62
53.10
54.29
54.73
51.69
43.44
30.26
14.68
0.69
-7.56
-7.37
1.38
16.00
31.60
42.63
44.65
35.87
17.85
-5.00
-27.04
-43.40
-51.60
-51.95
-46.79
-39.04
-30.83
-23.10
-15.94
-9.42
-4.14
-1.14
-1.28
-4.52
-9.65
-14.67
-17.73
-17.97
-15.98
-13.52
-12.68
-15.06
-21.30
-31.14
-43.97
-59.18
-75.85
-92.15
-104.75
-109.40
-102.56
-83.45
-55.29
-24.60
1.20
16.83
21.13
17.02
9.64
3.85
2.43
5.74
12.47
20.83
29.26
36.60
41.92
44.61
44.62
42.81
40.98
41.39
45.96
55.36
68.52
82.78
94.69
101.12
100.34
92.58
80.00
65.95
54.02
46.88
45.56
49.33
56.04
62.99
67.69
68.35
64.06
54.70
40.89
23.98
6.13
-9.93
-21.29
-25.65
-22.18
-12.11
1.02
11.57
12.89
-0.97
-32.86
-80.43
-135.57
-186.23
-220.27
-229.97
-215.06
-182.94
-145.67
-115.26
-99.01
-97.04
-102.82
-106.24
-97.89
-72.83
-32.40
16.41
63.61
100.14
120.88
125.94
119.67
108.09
96.52
88.43
85.15
86.56
92.05
100.81
111.64
122.52
130.79
133.87
130.79
122.47
111.37
101.18
95.42
96.03
102.25
110.65
116.42
115.88
107.12
90.26
67.99
44.45
23.96
9.44
1.67
-0.24
3.05
10.62
20.54
31.01
39.67
43.92
40.89
28.00
-0.40
-43.22
-91.81
-135.42
-166.58
-184.52
-192.01
-192.36
-187.85
-179.81
-168.55
-155.24
-145.96
-143.31
-148.93
-162.18
-180.14
-197.80
-208.79
-206.51
-180.66
-133.26
-73.70
-14.96
32.50
63.71
79.63
85.11
86.28
87.66
89.47
92.97
96.97
101.21
105.98
111.72
118.86
127.74
138.00
147.06
152.81
153.63
149.28
140.26
127.12
109.97
86.27
56.03
20.56
-16.51
-47.55
-65.07
-67.35
-60.45
-54.95
-59.74
-76.90
-104.07
-132.42
-151.26
-151.17
-126.97
-79.84
-17.49
47.68
102.87
134.55
135.38
109.43
70.75
35.98
15.86
10.54
11.28
6.57
-12.37
-49.50
-102.25
-163.82
-226.48
-283.97
-330.72
-360.53
-367.06
-332.82
-255.35
-151.56
-48.21
34.28
88.88
118.94
132.23
136.49
137.00
134.95
130.89
126.32
123.32
122.96
124.81
127.50
130.91
132.67
129.33
118.73
100.92
77.43
49.81
19.42
-11.40
-38.25
-55.32
-57.78
-43.50
-14.44
22.79
58.36
82.59
88.14
73.19
42.50
5.80
-25.50
-41.88
-39.02
-19.14
10.17
39.28
59.68
66.49
59.56
41.88
17.91
-8.46
-34.96
-60.62
-82.06
-96.27
-103.00
-104.44
-103.66
-102.48
-101.92
-102.87
-106.46
-112.46
-120.50
-132.19
-144.71
-154.29
-155.81
-144.51
-118.60
-81.47
-40.19
-4.86
15.38
17.24
3.31
-16.39
-28.83
-24.32
-0.58
40.01
91.94
150.01
210.99
272.55
331.88
383.36
419.21
418.48
370.29
281.27
173.62
71.99
-8.73
-64.91
-100.87
-123.28
-137.53
-144.69
-144.12
-136.07
-123.67
-112.36
-107.07
-110.84
-124.15
-141.27
-152.53
-148.28
-123.31
-80.22
-28.06
22.64
60.00
78.87
81.85
77.02
73.70
77.89
91.12
108.20
122.96
129.55
124.15
105.30
74.22
33.52
-7.94
-42.61
-67.03
-81.51
-89.21
-93.29
-95.30
-97.37
-98.41
-98.43
-98.86
-100.90
-103.37
-103.51
-98.29
-83.68
-62.51
-38.04
-12.40
13.31
37.83
59.71
76.60
86.69
89.94
88.43
86.95
90.02
100.77
116.71
133.06
143.99
144.44
131.16
103.91
66.76
25.38
-11.13
-36.90
-50.56
-54.92
-54.39
-52.62
-51.01
-48.53
-44.08
-37.45
-30.71
-26.26
-26.47
-30.53
-36.45
-41.66
-43.94
-42.79
-38.79
-34.23
-31.19
-31.08
-33.83
-38.26
-42.44
-42.85
-39.42
-32.84
-25.16
-18.40
-14.33
-13.62
-15.82
-19.43
-22.66
-24.59
-24.80
-25.12
-26.49
-30.09
-36.65
-46.39
-59.20
-74.58
-91.25
-104.33
-110.05
-104.15
-84.64
-53.43
-16.45
18.50
44.71
59.16
63.26
60.77
56.06
51.47
47.31
42.88
37.88
32.89
29.18
27.75
28.29
29.84
31.00
30.72
28.88
26.71
24.86
23.98
24.23
25.02
25.73
25.77
25.18
24.29
23.71
23.56
23.61
23.30
22.09
19.99
17.51
15.90
15.03
15.77
17.69
19.53
19.98
18.40
15.99
13.82
13.94
17.51
25.05
35.56
46.92
56.27
60.68
57.99
47.85
32.96
17.62
7.53
7.33
18.62
38.78
61.25
77.19
76.34
57.64
23.45
-18.41
-57.40
-83.88
-92.12
-81.71
-57.43
-27.09
1.94
23.97
37.00
41.85
40.82
35.67
28.83
21.97
15.84
11.14
8.15
7.00
6.84
5.43
0.49
-8.56
-20.05
-30.15
-34.29
-30.18
-19.44
-6.17
1.76
-2.50
-19.62
-43.15
-63.48
-73.11
-70.02
-57.73
-42.68
-31.20
-26.34
-27.09
-30.01
-31.69
-30.74
-28.18
-26.45
-27.28
-30.62
-34.21
-34.91
-30.92
-23.05
-14.36
-8.41
-7.91
-13.03
-21.59
-29.94
-34.78
-34.50
-29.96
-24.61
-21.38
-23.13
-30.95
-44.38
-61.32
-78.23
-90.54
-93.48
-83.61
-58.95
-24.42
12.30
43.33
63.73
73.30
75.94
77.07
80.27
85.59
89.87
89.63
83.72
74.22
66.07
63.41
68.75
81.76
99.55
116.79
127.54
126.71
111.18
80.95
39.51
-6.16
-46.91
-73.73
-80.90
-68.36
-41.72
-10.98
13.23
23.44
17.80
-0.15
-23.90
-45.90
-62.31
-72.76
-79.02
-82.49
-82.68
-78.46
-69.78
-58.89
-50.04
-48.95
-57.59
-74.99
-96.72
-115.79
-124.67
-117.88
-94.06
-55.45
-12.09
25.73
50.78
61.49
61.73
57.91
55.43
56.49
59.67
61.56
60.07
55.16
48.85
43.90
42.28
44.25
48.80
53.86
57.27
58.15
56.74
54.19
52.15
52.45
55.15
59.96
66.24
73.57
82.02
90.99
98.35
100.36
92.86
73.08
42.11
4.65
-32.52
-62.06
-80.60
-89.04
-90.63
-88.55
-85.17
-79.89
-72.58
-63.78
-56.44
-53.32
-55.45
-61.24
-67.32
-70.66
-69.29
-63.79
-56.42
-50.05
-47.03
-48.84
-56.10
-67.54
-80.81
-91.87
-95.89
-88.62
-68.54
-37.48
-2.51
28.41
49.32
58.39
58.34
54.26
50.87
50.25
51.71
52.76
51.50
47.69
42.80
39.22
39.11
43.62
51.57
60.50
67.50
70.62
69.93
67.57
66.25
67.52
70.56
72.63
71.09
64.89
54.83
41.92
25.98
5.79
-18.60
-43.40
-60.78
-61.63
-41.01
-2.41
41.92
75.54
85.07
66.25
25.48
-23.61
-66.00
-90.50
-92.06
-72.03
-36.80
4.26
41.31
66.06
73.50
62.96
38.09
5.37
-27.35
-52.86
-68.03
-73.12
-70.19
-62.09
-51.90
-42.28
-35.27
-31.78
-31.51
-33.29
-35.53
-36.97
-38.22
-39.69
-41.67
-44.07
-46.57
-49.34
-53.46
-59.92
-68.24
-73.70
-72.29
-59.53
-33.17
4.82
49.03
92.43
128.92
154.40
166.95
163.48
142.32
104.72
56.65
9.36
-23.46
-30.46
-8.77
33.63
79.72
111.50
117.18
95.72
57.51
18.62
-5.99
-9.51
4.46
23.80
35.14
30.21
8.73
-20.51
-44.80
-53.05
-42.08
-13.44
22.53
52.32
65.59
57.35
31.55
-3.08
-33.79
-49.72
-47.88
-35.52
-22.97
-14.94
-17.18
-24.14
-30.89
-35.70
-41.63
-54.52
-74.73
-101.07
-130.49
-164.28
-203.53
-248.33
-295.54
-340.07
-374.51
-391.06
-382.76
-327.74
-228.03
-108.31
-0.08
78.42
125.39
149.53
162.84
175.55
193.98
216.76
240.25
261.18
277.60
281.20
265.04
218.53
146.04
67.62
5.66
-27.50
-34.47
-23.52
-6.55
5.85
1.80
-23.85
-68.18
-124.91
-184.93
-237.01
-269.88
-276.60
-246.40
-184.56
-109.49
-41.37
6.48
30.72
35.32
27.32
12.86
-3.08
-16.28
-23.68
-20.38
-5.76
14.30
29.64
31.44
16.25
-11.42
-42.10
-66.11
-70.70
-49.42
-5.06
52.66
112.11
163.35
199.35
214.92
208.61
187.43
162.64
146.22
147.06
168.65
208.34
258.56
309.22
335.56
323.70
276.25
209.88
142.85
86.01
42.65
11.42
-11.35
-29.56
-43.17
-51.31
-53.90
-52.17
-45.77
-35.62
-22.14
-6.07
10.85
27.80
41.94
47.89
39.24
8.24
-40.56
-93.08
-132.99
-149.32
-140.26
-114.45
-86.24
-68.56
-66.78
-77.34
-91.92
-103.54
-109.64
-111.15
-110.62
-109.52
-107.47
-102.76
-95.20
-85.45
-77.21
-75.23
-82.31
-97.65
-116.17
-129.71
-128.06
-106.89
-68.11
-20.01
26.03
60.35
78.48
82.16
77.34
70.72
66.52
65.96
67.63
69.44
70.27
70.15
69.56
68.81
67.97
66.91
65.94
66.56
69.45
75.26
83.45
91.82
97.04
95.71
85.17
64.84
36.71
5.35
-22.72
-40.97
-45.38
-37.29
-22.77
-10.07
-5.69
-11.48
-24.28
-38.00
-47.22
-49.90
-47.71
-43.96
-41.22
-39.68
-37.80
-33.99
-27.93
-20.92
-14.96
-11.55
-10.82
-11.60
-12.09
-10.92
-7.69
-2.98
2.00
5.97
7.68
7.26
5.17
2.06
-1.59
-5.62
-10.02
-14.75
-19.07
-23.01
-26.29
-28.90
-31.16
-33.58
-36.69
-40.55
-44.70
-48.06
-49.62
-48.61
-45.15
-40.50
-37.01
-37.40
-43.50
-54.47
-66.35
-72.39
-65.79
-42.61
-4.30
42.98
89.37
124.52
141.10
136.73
113.94
79.02
40.29
6.48
-14.88
-19.44
-7.45
15.84
41.53
60.25
66.02
58.25
41.55
22.90
7.54
-2.58
-8.39
-12.12
-15.29
-17.42
-17.22
-14.04
-8.89
-4.31
-2.81
-5.09
-9.38
-13.55
-14.91
-12.12
-6.19
0.75
5.41
4.87
-1.89
-13.81
-28.25
-41.92
-52.57
-59.55
-63.98
-66.92
-71.00
-77.51
-86.61
-97.83
-110.12
-121.70
-129.73
-130.46
-120.49
-98.72
-67.33
-31.83
0.74
24.78
38.25
42.76
42.32
40.89
40.83
42.34
44.88
48.17
52.71
59.40
68.40
78.84
88.96
96.98
101.69
102.84
101.13
97.85
94.44
92.05
91.65
93.51
96.72
99.30
99.06
94.72
85.36
73.70
61.93
50.54
38.08
22.36
2.49
-19.85
-40.79
-56.15
-63.33
-62.91
-57.81
-51.42
-46.18
-42.88
-41.19
-40.53
-40.60
-40.90
-40.99
-40.78
-40.37
-40.49
-41.84
-45.08
-50.43
-57.74
-66.75
-77.49
-89.63
-101.09
-109.23
-110.30
-101.25
-81.41
-53.31
-21.96
6.73
28.17
40.23
43.27
39.19
30.64
20.33
11.45
7.53
11.54
25.02
46.43
69.96
86.70
88.02
69.62
35.32
-3.19
-30.61
-34.87
-12.77
28.18
73.17
106.26
116.66
102.43
70.17
31.68
-0.36
-16.41
-13.17
5.49
30.02
47.97
48.97
29.30
-6.40
-47.01
-78.96
-92.12
-83.47
-57.46
-24.27
4.24
18.81
15.86
-1.80
-26.60
-50.35
-68.38
-80.75
-91.89
-107.22
-128.31
-150.89
-166.94
-167.96
-149.90
-115.23
-71.17
-27.12
9.44
35.94
54.89
66.91
74.01
78.41
76.73
68.96
56.22
40.16
23.04
7.59
-4.77
-14.18
-22.82
-33.47
-46.82
-59.14
-66.70
-65.36
-53.27
-33.70
-13.31
-0.13
1.24
-7.62
-19.14
-22.21
-9.98
22.24
72.29
131.76
187.19
224.82
234.02
211.00
159.94
92.25
23.72
-31.15
-62.41
-67.72
-50.39
-23.86
-2.66
3.61
-4.85
-21.52
-41.60
-58.43
-74.65
-89.87
-99.65
-95.61
-70.03
-24.96
30.83
81.75
111.00
107.38
72.22
18.45
-32.52
-59.60
-50.53
-5.48
63.78
139.83
205.05
246.74
257.16
235.71
188.27
125.94
63.50
15.67
-6.69
0.07
32.74
73.50
102.76
108.04
90.52
61.00
30.13
3.31
-18.56
-35.54
-48.30
-56.17
-55.91
-48.58
-36.51
-22.16
-7.40
7.85
26.20
49.39
77.56
108.15
136.06
150.79
144.82
115.42
60.73
-9.33
-78.76
-133.07
-166.18
-180.87
-183.34
-178.64
-169.55
-157.11
-141.66
-125.48
-111.93
-103.70
-101.52
-103.10
-104.47
-102.56
-96.07
-85.37
-73.21
-63.19
-58.18
-60.59
-68.96
-80.80
-93.25
-102.78
-105.02
-96.32
-75.34
-42.51
-4.94
29.34
54.13
67.27
70.95
69.96
68.46
68.08
67.93
66.37
63.48
60.86
60.56
63.50
68.69
73.63
75.91
74.33
69.66
64.31
60.64
59.93
62.21
66.76
72.50
78.14
80.68
77.02
65.75
48.29
29.06
13.64
5.59
4.18
4.53
0.31
-12.04
-30.72
-49.66
-62.27
-65.28
-60.28
-52.09
-45.42
-42.23
-41.30
-39.95
-36.35
-30.52
-23.99
-18.55
-15.32
-14.15
-13.76
-12.74
-10.17
-6.00
-1.04
3.57
6.96
8.83
9.18
8.86
8.30
7.49
6.03
3.44
-0.43
-5.13
-9.39
-12.68
-14.71
-15.98
-17.51
-20.30
-24.68
-29.89
-34.22
-35.92
-34.14
-29.44
-24.04
-21.05
-22.51
-28.79
-37.93
-46.38
-50.73
-49.17
-42.45
-33.82
-27.35
-26.41
-32.39
-44.41
-58.90
-70.81
-74.45
-64.66
-39.20
-0.64
43.14
80.57
100.56
97.07
71.94
34.92
0.22
-18.86
-15.13
9.80
46.52
81.83
104.03
107.08
92.13
65.96
37.34
13.37
-2.77
-12.08
-17.06
-19.10
-17.61
-11.46
-1.17
9.99
17.05
15.53
4.47
-13.14
-32.00
-46.96
-55.39
-58.20
-58.92
-61.33
-69.26
-83.99
-103.96
-124.93
-140.95
-146.11
-136.57
-112.30
-77.71
-40.39
-8.05
14.36
26.19
30.77
32.63
34.91
38.37
41.86
43.94
44.60
45.44
48.65
55.52
65.37
75.64
83.47
86.84
85.76
82.18
78.93
78.38
81.41
87.04
92.53
95.02
92.55
85.07
74.62
64.36
57.57
56.56
62.22
73.11
85.95
96.08
98.36
88.94
66.64
34.00
-4.26
-39.31
-64.67
-78.06
-81.33
-78.58
-73.39
-67.43
-60.51
-52.15
-42.79
-34.79
-30.91
-32.64
-39.73
-49.13
-57.68
-63.01
-64.97
-65.14
-66.38
-71.32
-80.42
-94.31
-111.67
-129.34
-142.58
-146.00
-135.37
-109.95
-73.66
-34.02
0.33
23.50
34.32
36.28
35.04
35.31
38.61
43.02
45.51
44.37
40.30
36.56
36.75
42.82
54.21
68.12
80.26
87.79
90.35
89.82
88.64
88.05
87.46
84.34
78.49
70.26
60.37
48.40
32.61
10.93
-16.72
-46.27
-69.37
-76.22
-60.92
-25.34
20.00
59.68
79.97
74.80
48.31
12.23
-19.99
-39.70
-45.98
-44.58
-43.28
-46.69
-54.55
-63.27
-68.94
-70.03
-67.56
-63.10
-57.38
-50.08
-41.56
-34.46
-32.86
-39.99
-55.10
-72.66
-84.31
-83.00
-66.71
-39.50
-9.32
16.12
32.14
39.27
40.81
39.82
37.29
32.50
24.63
14.10
3.20
-4.88
-7.71
-5.08
0.94
7.04
10.16
8.86
3.80
-2.34
-6.64
-6.64
-1.49
7.85
19.06
29.42
36.78
40.19
40.24
38.54
37.22
37.74
40.49
44.61
48.41
50.13
48.45
43.22
35.40
27.00
20.18
17.05
19.09
26.70
38.12
49.09
53.69
46.14
23.43
-13.65
-59.73
-106.18
-143.27
-163.31
-162.61
-142.30
-107.65
-65.82
-24.54
10.21
35.18
50.11
56.64
57.20
54.12
46.79
37.80
29.59
24.15
22.46
24.17
27.32
29.13
27.45
21.53
13.20
5.37
2.16
4.93
13.38
25.36
37.80
48.02
54.47
57.77
59.78
63.32
70.98
84.40
103.14
123.94
140.90
146.37
134.11
101.77
52.89
-3.90
-57.22
-96.92
-116.92
-113.73
-88.74
-47.90
-0.67
41.77
68.51
71.69
49.03
5.41
-48.08
-97.93
-132.58
-146.13
-139.53
-119.46
-95.46
-77.27
-72.90
-86.90
-119.36
-164.42
-210.39
-242.14
-245.84
-214.39
-151.31
-70.98
5.68
58.54
76.33
61.20
27.53
-4.26
-16.13
0.61
42.78
97.68
149.40
186.35
205.26
210.34
208.82
206.20
203.88
199.73
189.86
170.92
141.92
104.25
60.47
13.82
-31.21
-68.05
-88.92
-88.43
-67.08
-31.84
5.45
31.88
37.86
20.14
-17.75
-63.65
-102.16
-124.60
-131.90
-129.57
-121.44
-108.38
-90.43
-69.03
-47.51
-30.59
-22.33
-22.87
-28.73
-34.44
-35.60
-30.68
-21.19
-10.59
-3.03
-2.94
-9.94
-21.23
-32.90
-41.94
-47.41
-50.35
-53.13
-56.51
-63.91
-76.66
-93.35
-109.52
-118.86
-115.31
-95.55
-61.12
-18.49
22.76
54.52
72.82
78.92
77.64
74.36
72.50
72.18
71.55
68.41
62.56
55.63
50.23
48.43
50.78
56.87
63.88
69.22
71.39
70.64
68.51
67.10
68.13
72.31
79.64
89.09
99.33
108.54
114.13
112.47
100.07
75.29
38.54
-3.25
-41.95
-71.20
-88.60
-95.90
-97.32
-96.63
-95.28
-92.68
-87.36
-79.58
-71.58
-66.85
-67.22
-73.26
-84.14
-97.99
-111.91
-122.16
-123.80
-114.07
-92.25
-60.79
-25.40
7.03
31.07
44.84
50.22
50.93
50.16
49.35
48.16
45.57
41.37
36.66
33.37
33.03
35.81
40.79
45.84
49.23
50.37
49.94
49.45
50.43
53.64
58.71
64.07
67.87
69.31
69.25
69.84
72.51
76.58
78.25
72.05
53.40
21.25
-20.90
-66.46
-106.83
-135.89
-150.23
-148.37
-129.51
-94.35
-46.83
5.01
50.15
78.29
83.75
68.82
40.06
6.74
-22.81
-43.42
-52.93
-52.38
-44.40
-32.46
-20.08
-10.20
-3.97
-0.40
2.35
6.20
11.90
18.78
25.12
29.59
31.75
31.78
30.75
28.77
25.06
18.64
9.45
-1.25
-11.21
-18.34
-21.49
-20.84
-17.75
-13.83
-10.43
-8.04
-6.48
-5.17
-3.60
-1.53
0.96
3.41
5.27
6.19
6.24
5.90
5.85
6.59
8.23
10.49
12.69
14.22
14.69
14.27
13.56
13.34
14.05
15.51
17.02
17.77
17.34
15.86
14.25
13.85
15.65
19.74
25.20
30.45
34.03
35.06
33.05
27.99
20.36
10.87
0.59
-9.08
-16.51
-20.43
-20.57
-18.27
-15.58
-14.28
-15.11
-17.61
-20.76
-23.74
-26.81
-28.55
-29.27
-30.48
-33.78
-39.25
-45.24
-49.53
-50.47
-47.72
-42.26
-35.86
-29.81
-24.61
-19.85
-14.92
-9.64
-4.31
0.42
3.90
5.95
7.07
7.94
9.28
11.39
14.01
16.63
18.61
19.30
18.00
15.67
13.11
10.95
9.55
8.88
8.86
10.32
12.16
14.13
16.35
18.83
21.50
24.10
25.50
25.85
25.03
22.56
18.80
14.31
9.41
4.24
-1.23
-7.18
-13.59
-18.56
-22.89
-26.43
-28.82
-29.93
-30.02
-29.67
-29.58
-30.16
-31.53
-33.66
-35.64
-36.62
-36.28
-34.98
-33.63
-33.33
-34.75
-37.95
-42.40
-46.71
-49.77
-51.01
-50.81
-50.12
-50.01
-51.31
-54.67
-60.71
-69.35
-79.37
-87.81
-90.32
-82.63
-62.75
-32.61
2.12
33.93
56.65
67.75
68.81
64.02
57.74
52.62
49.09
46.34
43.53
40.66
38.27
36.98
37.10
38.56
41.31
45.08
49.89
55.75
62.46
69.70
76.88
83.59
89.49
94.41
98.41
102.00
106.12
111.52
117.70
122.16
120.71
109.05
85.13
50.83
12.06
-23.30
-48.41
-60.12
-60.32
-53.77
-45.43
-38.01
-31.79
-25.77
-19.30
-13.01
-8.54
-7.38
-9.78
-14.93
-20.85
-25.72
-28.88
-30.88
-33.18
-37.51
-44.89
-54.43
-64.90
-74.26
-80.68
-83.53
-83.57
-82.61
-82.66
-84.86
-88.87
-93.22
-96.43
-98.10
-99.34
-101.46
-104.35
-105.63
-101.22
-86.73
-59.97
-23.10
18.60
58.81
92.84
118.28
133.89
137.95
127.29
100.75
60.97
16.48
-21.45
-41.88
-39.65
-18.11
12.59
40.51
57.02
59.40
51.28
38.77
26.83
17.19
8.84
0.17
-9.29
-18.33
-24.79
-27.32
-26.31
-23.57
-21.42
-21.60
-24.36
-28.36
-31.44
-31.43
-27.40
-19.86
-10.33
-0.69
7.64
14.19
19.42
23.73
28.23
33.23
38.28
42.49
44.99
45.34
43.72
41.14
38.20
35.65
33.69
32.23
30.96
29.61
28.11
26.57
25.15
23.89
22.83
21.78
20.58
19.24
17.95
17.04
16.78
17.23
18.12
19.09
19.61
19.40
18.51
17.39
16.69
17.01
18.58
21.13
24.08
26.56
27.85
27.64
26.20
24.38
23.52
24.99
29.60
36.76
44.08
47.88
44.42
31.60
10.17
-16.15
-41.90
-61.85
-72.61
-73.71
-67.03
-55.67
-42.66
-30.16
-19.85
-13.12
-11.04
-13.94
-20.85
-29.53
-37.26
-41.94
-42.76
-40.27
-35.34
-28.08
-17.69
-3.35
14.32
32.36
46.27
52.13
48.66
38.24
25.81
16.27
12.22
13.08
15.87
17.30
15.99
12.74
10.00
10.26
14.48
21.91
30.23
36.50
38.19
34.19
24.72
11.19
-4.19
-19.56
-33.76
-46.51
-57.82
-67.39
-74.11
-76.51
-73.64
-63.32
-48.04
-32.06
-20.02
-15.40
-20.41
-31.57
-42.71
-46.77
-37.00
-9.97
32.31
83.42
134.36
175.97
201.16
205.99
189.79
156.03
110.65
59.21
6.87
-42.38
-86.48
-126.00
-158.03
-182.93
-202.06
-206.61
-193.34
-165.73
-132.13
-100.11
-73.01
-50.53
-31.62
-14.88
0.16
11.95
19.12
21.69
21.17
19.71
19.05
19.67
21.54
24.27
26.54
27.48
27.11
26.16
25.24
24.31
22.66
19.71
14.72
8.29
1.23
-5.64
-11.71
-17.16
-22.94
-30.09
-37.65
-46.37
-56.35
-67.23
-77.62
-84.74
-84.74
-74.37
-52.53
-21.89
11.82
42.20
64.85
79.43
88.89
97.19
104.51
107.30
99.63
77.21
40.51
-5.06
-51.07
-89.11
-113.39
-121.66
-112.64
-90.35
-59.83
-26.42
4.53
28.73
43.88
50.20
49.75
45.44
39.29
32.63
26.43
21.45
18.45
17.89
19.44
21.82
23.45
22.98
20.06
15.55
10.80
7.11
5.25
5.23
6.43
7.92
8.77
8.44
7.00
4.88
2.73
1.30
1.25
2.93
6.29
11.09
