1660933889.00
64.000000
-0.00
-0.00
-0.00
-0.00
-0.00
-0.00
-0.00
-0.00
-0.00
-0.00
0.00
0.01
0.01
-0.00
-0.03
-0.05
-0.05
0.00
0.13
0.36
0.66
1.01
1.37
1.72
2.06
2.40
2.79
3.25
3.81
4.44
5.10
5.73
6.32
6.90
7.51
8.25
9.15
10.28
11.54
12.79
13.92
14.88
15.77
16.78
18.13
19.97
22.49
25.46
28.59
31.59
34.32
36.91
39.73
43.24
47.73
53.52
60.21
67.21
73.96
80.20
86.14
92.38
99.69
108.54
119.31
131.30
143.58
155.27
166.01
176.12
186.55
198.76
211.33
226.20
243.53
263.13
283.77
302.85
316.60
320.90
312.65
290.77
257.10
214.77
167.59
118.70
70.06
22.62
-23.06
-66.43
-106.89
-143.96
-178.20
-210.91
-243.83
-278.35
-314.62
-350.95
-383.72
-408.47
-421.12
-419.81
-405.56
-382.02
-353.89
-325.27
-298.37
-273.49
-249.88
-226.79
-204.35
-183.32
-164.49
-148.03
-133.32
-119.35
-105.30
-91.04
-77.02
-64.12
-53.02
-43.87
-36.26
-29.46
-22.79
-15.93
-9.01
-2.46
3.22
7.70
10.97
13.30
15.15
16.97
19.02
21.29
23.56
25.49
26.79
27.35
27.31
26.93
26.49
26.14
25.87
25.56
25.06
24.32
23.43
22.53
21.76
21.16
20.72
20.33
19.93
19.45
18.88
18.24
17.54
16.83
16.16
15.58
15.11
14.75
14.47
14.22
13.99
13.77
13.56
13.34
13.09
12.78
12.40
11.95
11.45
10.93
10.40
9.90
9.46
9.15
9.01
9.06
9.22
9.36
9.35
9.12
8.70
8.20
7.76
7.48
7.33
7.21
7.02
6.72
6.36
6.02
5.81
5.70
5.59
5.35
4.90
4.27
3.58
3.01
2.62
2.39
2.22
1.96
1.54
1.01
0.45
-0.04
-0.42
-0.74
-1.08
-1.54
-2.13
-2.83
-3.61
-4.43
-5.31
-6.23
-7.18
-8.10
-8.89
-9.47
-9.80
-9.87
-9.73
-9.46
-9.12
-8.76
-8.41
-8.09
-7.81
-7.56
-7.29
-6.91
-6.37
-5.65
-4.84
-4.05
-3.44
-3.08
-2.95
-2.90
-2.79
-2.48
-1.96
-1.32
-0.70
-0.20
0.12
0.31
0.45
0.63
0.87
1.16
1.45
1.72
1.94
2.14
2.35
2.58
2.82
3.04
3.19
3.28
3.35
3.46
3.64
3.89
4.14
4.33
4.41
4.41
4.39
4.42
4.51
4.63
4.69
4.64
4.49
4.32
4.23
4.27
4.45
4.66
4.77
4.67
4.34
3.87
3.39
3.04
2.89
2.97
3.20
3.47
3.69
3.78
3.74
3.59
3.38
3.20
3.12
3.17
3.35
3.59
3.79
3.85
3.68
3.28
2.72
2.13
1.68
1.47
1.53
1.82
2.20
2.52
2.65
2.56
2.25
1.82
1.42
1.17
1.13
1.29
1.55
1.81
1.94
1.92
1.76
1.53
1.30
1.13
1.08
1.15
1.32
1.53
1.69
1.73
1.63
1.42
1.21
1.08
1.09
1.18
1.28
1.32
1.30
1.28
1.32
1.40
1.48
1.46
1.30
1.01
0.72
0.55
0.58
0.80
1.09
1.32
1.40
1.29
1.03
0.68
0.35
0.09
-0.04
-0.02
0.13
0.40
0.73
1.03
1.27
1.40
1.46
1.46
1.45
1.42
1.35
1.23
1.06
0.86
0.67
0.56
0.56
0.64
0.74
0.77
0.69
0.52
0.35
0.28
0.35
0.57
0.85
1.10
1.24
1.25
1.16
1.03
0.88
0.72
0.55
0.37
0.18
0.02
-0.07
-0.05
0.11
0.40
0.72
0.95
0.97
0.75
0.40
0.06
-0.11
-0.08
0.10
0.31
0.42
0.41
0.29
0.14
0.03
0.02
0.11
0.30
0.49
0.58
0.51
0.28
-0.02
-0.25
-0.27
-0.09
0.19
0.41
0.48
0.45
0.46
0.63
0.98
1.40
1.73
1.88
1.82
1.65
1.48
1.38
1.33
1.25
1.11
0.87
0.62
0.44
0.41
0.56
0.84
1.14
1.31
1.26
0.99
0.58
0.18
-0.08
-0.14
-0.06
0.06
0.12
0.05
-0.13
-0.34
-0.51
-0.54
-0.43
-0.21
0.05
0.25
0.32
0.25
0.10
-0.06
-0.20
-0.30
-0.41
-0.52
-0.59
-0.52
-0.27
0.13
0.56
0.88
0.99
0.87
0.59
0.28
0.03
-0.08
-0.05
0.10
0.31
0.52
0.65
0.68
0.61
0.51
0.46
0.52
0.67
0.84
0.94
0.88
0.65
0.32
-0.04
-0.33
-0.49
-0.55
-0.53
-0.48
-0.41
-0.30
-0.15
0.05
0.26
0.40
0.39
0.21
-0.07
-0.34
-0.47
-0.39
-0.14
0.16
0.37
0.40
0.25
0.00
-0.23
-0.35
-0.32
-0.17
0.06
0.31
0.54
0.75
0.91
0.98
0.91
0.65
0.20
-0.41
-1.05
-1.60
-1.94
-2.03
-1.92
-1.68
-1.41
-1.22
-1.18
-1.37
-1.80
-2.41
-3.03
-3.46
-3.54
-3.25
-2.74
-2.28
-2.10
-2.28
-2.74
-3.26
-3.69
-3.98
-4.24
-4.62
-5.23
-6.05
-6.94
-7.73
-8.30
-8.62
-8.69
-8.47
-7.82
-6.60
-4.72
-2.29
0.44
3.10
5.41
7.24
8.62
9.64
10.35
10.68
10.54
9.84
8.60
6.95
5.11
3.32
1.78
0.64
-0.03
-0.27
-0.23
-0.12
-0.10
-0.25
-0.45
-0.45
-0.02
0.98
2.51
4.37
6.32
8.17
9.79
11.06
11.87
12.08
11.62
10.52
8.97
7.23
5.59
4.24
3.26
2.62
2.24
1.99
1.77
1.48
1.05
0.50
-0.10
-0.59
-0.89
-1.01
-1.07
-1.23
-1.60
-2.14
-2.70
-3.06
-3.11
-2.90
-2.60
-2.42
-2.45
-2.68
-3.02
-3.45
-4.00
-4.74
-5.65
-6.53
-7.04
-6.88
-5.93
-4.36
-2.56
-0.96
0.16
0.77
0.98
0.99
0.94
0.87
0.78
0.65
0.52
0.42
0.40
0.49
0.66
0.88
1.09
1.23
1.26
1.16
0.96
0.73
0.53
0.41
0.36
0.36
0.35
0.32
0.30
0.31
0.39
0.54
0.75
0.94
1.08
1.09
0.94
0.60
0.14
-0.35
-0.72
-0.87
-0.77
-0.51
-0.21
-0.00
0.04
-0.07
-0.30
-0.58
-0.86
-1.07
-1.15
-1.05
-0.72
-0.21
0.36
0.86
1.18
1.28
1.20
1.03
0.87
0.76
0.66
0.54
0.36
0.12
-0.14
-0.33
-0.40
-0.32
-0.13
0.09
0.27
0.36
0.34
0.26
0.17
0.05
-0.11
-0.35
-0.65
-0.96
-1.19
-1.29
-1.24
-1.14
-1.09
-1.23
-1.58
-2.04
-2.47
-2.72
-2.74
-2.61
-2.48
-2.47
-2.64
-2.94
-3.27
-3.56
-3.84
-4.17
-4.64
-5.29
-6.10
-7.03
-7.98
-8.88
-9.67
-10.34
-10.97
-11.64
-12.47
-13.47
-14.58
-15.70
-16.70
-17.61
-18.50
-19.51
-20.66
-21.80
-22.66
-22.86
-22.01
-19.79
-15.97
-10.50
-3.58
4.32
12.45
19.93
25.94
29.90
31.64
31.38
29.76
27.59
25.71
24.72
24.81
25.71
26.77
27.26
26.56
24.46
21.20
17.31
13.47
10.20
7.82
6.33
5.52
5.06
4.69
4.27
3.77
3.24
2.75
2.25
1.69
1.03
0.28
-0.42
-0.92
-1.13
-1.12
-1.09
-1.27
-1.76
-2.45
-3.06
-3.27
-2.92
-2.11
-1.14
-0.42
-0.22
-0.60
-1.39
-2.26
-2.89
-3.08
-2.81
-2.22
-1.51
-0.88
-0.45
-0.24
-0.20
-0.25
-0.32
-0.37
-0.41
-0.43
-0.43
-0.37
-0.22
0.03
0.38
0.76
1.16
1.52
1.82
2.06
2.22
2.30
2.33
2.39
2.62
3.17
4.14
5.53
7.18
8.90
10.48
11.83
12.95
13.88
14.58
14.85
14.35
12.82
10.17
6.62
2.63
-1.25
-4.61
-7.21
-9.04
-10.17
-10.71
-10.78
-10.50
-9.99
-9.42
-8.92
-8.58
-8.35
-8.17
-7.97
-7.74
-7.50
-7.26
-6.99
-6.67
-6.29
-5.92
-5.62
-5.45
-5.37
-5.29
-5.09
-4.71
-4.15
-3.49
-2.83
-2.24
-1.75
-1.37
-1.11
-0.99
-0.98
-1.04
-1.08
-1.09
-1.05
-0.99
-0.92
-0.81
-0.65
-0.41
-0.16
0.01
0.01
-0.17
-0.43
-0.62
-0.60
-0.32
0.15
0.67
1.11
1.33
1.32
1.09
0.75
0.40
0.14
0.02
0.05
0.15
0.24
0.25
0.19
0.06
-0.11
-0.32
-0.58
-0.88
-1.17
-1.37
-1.38
-1.18
-0.83
-0.44
-0.17
-0.09
-0.22
-0.49
-0.76
-0.94
-0.95
-0.79
-0.55
-0.32
-0.22
-0.28
-0.46
-0.67
-0.80
-0.81
-0.70
-0.52
-0.31
-0.11
0.09
0.28
0.46
0.63
0.74
0.75
0.61
0.28
-0.23
-0.81
-1.30
-1.54
-1.43
-1.07
-0.62
-0.33
-0.35
-0.66
-1.17
-1.68
-2.04
-2.20
-2.20
-2.12
-2.07
-2.15
-2.39
-2.81
-3.33
-3.82
-4.09
-3.92
-3.15
-1.79
-0.04
1.64
2.69
2.65
1.32
-1.14
-4.26
-7.51
-10.45
-12.92
-15.01
-16.92
-18.80
-20.64
-22.33
-23.74
-24.89
-26.04
-27.61
-30.01
-33.47
-37.84
-42.67
-47.40
-51.55
-55.02
-58.14
-61.52
-65.83
-71.45
-78.35
-86.05
-93.81
-101.00
-107.31
-112.95
-118.53
-124.72
-132.03
-140.75
-151.04
-163.03
-176.60
-190.86
-203.74
-212.07
-212.25
-201.59
-179.27
-146.66
-106.45
-61.42
-13.45
36.31
86.45
134.36
176.08
207.42
225.75
231.25
226.98
217.49
206.95
197.74
190.26
183.67
177.21
170.92
165.63
162.31
161.34
162.12
163.38
163.84
162.88
160.86
158.97
158.54
160.38
164.35
169.39
174.15
177.60
179.67
181.18
183.36
187.19
192.99
200.44
208.84
217.31
224.70
229.38
229.19
221.91
205.91
180.94
148.24
109.91
67.91
23.22
-23.95
-73.21
-122.75
-168.88
-206.78
-232.31
-243.77
-242.65
-232.94
-219.32
-205.38
-192.65
-180.86
-169.09
-156.85
-144.54
-133.17
-123.56
-115.81
-109.28
-102.97
-96.14
-88.63
-80.91
-73.72
-67.68
-62.96
-59.24
-55.85
-52.09
-47.53
-42.20
-36.55
-31.20
-26.69
-23.24
-20.71
-18.70
-16.79
-14.68
-12.33
-9.90
-7.65
-5.86
-4.67
-4.04
-3.81
-3.72
-3.53
-3.08
-2.37
-1.52
-0.72
-0.16
0.09
0.06
-0.10
-0.26
-0.29
-0.23
-0.14
-0.14
-0.26
-0.50
-0.78
-1.05
-1.25
-1.32
-1.22
-0.89
-0.33
0.40
1.13
1.66
1.87
1.73
1.36
0.92
0.57
0.36
0.26
0.20
0.16
0.12
0.07
0.03
-0.04
-0.17
-0.37
-0.61
-0.80
-0.90
-0.88
-0.77
-0.60
-0.43
-0.28
-0.13
0.04
0.24
0.44
0.60
0.73
0.89
1.15
1.56
2.08
2.60
2.92
2.92
2.55
1.92
1.18
0.52
0.05
-0.23
-0.36
-0.43
-0.49
-0.57
-0.67
-0.76
-0.84
-0.88
-0.90
-0.92
-0.94
-0.99
-1.07
-1.19
-1.36
-1.54
-1.70
-1.77
-1.72
-1.51
-1.20
-0.83
-0.43
-0.04
0.33
0.69
0.99
1.23
1.43
1.62
1.87
2.16
2.46
2.64
2.60
2.29
1.77
1.17
0.60
0.17
-0.11
-0.26
-0.29
-0.20
-0.06
0.09
0.13
0.01
-0.28
-0.67
-1.06
-1.34
-1.50
-1.55
-1.56
-1.61
-1.70
-1.80
-1.87
-1.88
-1.82
-1.69
-1.50
-1.24
-0.92
-0.54
-0.12
0.34
0.80
1.26
1.70
2.06
2.30
2.32
2.10
1.66
1.11
0.65
0.43
0.53
0.87
1.24
1.42
1.25
0.74
0.07
-0.55
-0.94
-1.08
-1.08
-1.11
-1.30
-1.66
-2.09
-2.43
-2.54
-2.41
-2.08
-1.67
-1.28
-0.92
-0.56
-0.17
0.30
0.80
1.31
1.80
2.26
2.69
3.07
3.28
3.22
2.81
2.08
1.22
0.47
0.02
-0.06
0.10
0.31
0.38
0.23
-0.10
-0.47
-0.77
-0.96
-1.05
-1.12
-1.23
-1.40
-1.59
-1.76
-1.86
-1.87
-1.79
-1.67
-1.52
-1.35
-1.15
-0.86
-0.45
0.07
0.64
1.18
1.59
1.83
1.87
1.76
1.51
1.16
0.76
0.40
0.17
0.15
0.31
0.54
0.72
0.73
0.56
0.32
0.13
0.07
0.11
0.14
-0.00
-0.37
-0.92
-1.51
-1.96
-2.15
-2.07
-1.81
-1.47
-1.15
-0.89
-0.66
-0.44
-0.18
0.08
0.37
0.67
1.02
1.47
2.00
2.53
2.91
2.96
2.61
1.91
1.05
0.30
-0.14
-0.18
0.08
0.43
0.63
0.54
0.15
-0.42
-0.98
-1.39
-1.59
-1.65
-1.67
-1.79
-2.03
-2.35
-2.65
-2.83
-2.85
-2.70
-2.42
-2.04
-1.59
-1.07
-0.48
0.18
0.87
1.56
2.22
2.80
3.23
3.42
3.32
2.91
2.26
1.56
0.98
0.65
0.60
0.72
0.85
0.85
0.65
0.32
-0.03
-0.33
-0.55
-0.76
-1.00
-1.31
-1.62
-1.85
-1.90
-1.78
-1.51
-1.20
-0.90
-0.64
-0.39
-0.16
0.09
0.32
0.54
0.77
1.06
1.46
1.97
2.49
2.88
2.98
2.73
2.17
1.44
0.72
0.15
-0.20
-0.36
-0.39
-0.39
-0.44
-0.58
-0.79
-0.99
-1.11
-1.07
-0.90
-0.71
-0.61
-0.68
-0.93
-1.27
-1.56
-1.74
-1.78
-1.71
-1.59
-1.42
-1.23
-1.02
-0.79
-0.54
-0.27
0.08
0.53
1.07
1.65
2.15
2.47
2.55
2.38
2.00
1.51
1.02
0.61
0.37
0.33
0.43
0.60
0.70
0.68
0.54
0.35
0.18
0.04
-0.10
-0.35
-0.73
-1.21
-1.65
-1.89
-1.84
-1.50
-1.00
-0.51
-0.15
0.08
0.21
0.30
0.37
0.38
0.33
0.26
0.26
0.44
0.82
1.29
1.65
1.73
1.46
0.92
0.28
-0.29
-0.69
-0.92
-1.03
-1.10
-1.19
-1.34
-1.53
-1.69
-1.73
-1.55
-1.14
-0.58
0.00
0.44
0.65
0.65
0.51
0.35
0.23
0.16
0.11
0.03
-0.09
-0.25
-0.41
-0.57
-0.77
-1.03
-1.36
-1.73
-2.04
-2.18
-2.12
-1.91
-1.68
-1.58
-1.67
-1.87
-2.02
-2.01
-1.81
-1.51
-1.17
-0.85
-0.51
-0.07
0.45
0.97
1.33
1.46
1.40
1.29
1.35
1.67
2.24
2.86
3.33
3.48
3.31
2.94
2.54
2.28
2.18
2.15
2.08
1.87
1.54
1.20
0.99
0.97
1.12
1.33
1.51
1.58
1.59
1.56
1.47
1.27
0.89
0.30
-0.41
-1.08
-1.55
-1.75
-1.74
-1.63
-1.54
-1.53
-1.55
-1.51
-1.36
-1.14
-0.99
-0.99
-1.17
-1.43
-1.60
-1.54
-1.22
-0.71
-0.14
0.35
0.70
0.93
1.04
1.07
0.97
0.75
0.40
-0.01
-0.36
-0.58
-0.62
-0.50
-0.29
-0.05
0.13
0.21
0.17
0.05
-0.11
-0.27
-0.39
-0.47
-0.49
-0.46
-0.39
-0.27
-0.12
0.04
0.16
0.19
0.12
-0.00
-0.13
-0.22
-0.25
-0.25
-0.25
-0.27
-0.30
-0.29
-0.22
-0.10
0.02
0.10
0.08
-0.03
-0.22
-0.42
-0.56
-0.60
-0.52
-0.34
-0.11
0.10
0.26
0.35
0.37
0.34
0.27
0.18
0.09
0.05
0.08
0.19
0.35
0.49
0.56
0.50
0.34
0.15
0.01
-0.02
0.07
0.23
0.39
0.46
0.42
0.27
0.08
-0.06
-0.11
-0.07
0.01
0.05
0.01
-0.09
-0.19
-0.21
-0.14
-0.00
0.13
0.22
0.25
0.28
0.36
0.48
0.60
0.65
0.58
0.36
0.03
-0.37
-0.77
-1.13
-1.37
-1.45
-1.32
-1.00
-0.54
-0.06
0.34
0.63
0.78
0.83
0.80
0.70
0.57
0.44
0.34
0.27
0.22
0.19
0.18
0.21
0.30
0.44
0.54
0.49
0.22
-0.24
-0.75
-1.10
-1.19
-1.00
-0.65
-0.30
-0.05
0.11
0.23
0.34
0.42
0.38
0.13
-0.29
-0.78
-1.16
-1.31
-1.22
-0.98
-0.74
-0.59
-0.51
-0.45
-0.33
-0.14
0.07
0.23
0.32
0.38
0.47
0.62
0.81
0.94
0.93
0.79
0.57
0.36
0.25
0.25
0.33
0.43
0.49
0.47
0.36
0.15
-0.12
-0.38
-0.57
-0.61
-0.47
-0.17
0.17
0.44
0.55
0.47
0.24
-0.03
-0.24
-0.35
-0.35
-0.31
-0.28
-0.28
-0.30
-0.29
-0.25
-0.20
-0.19
-0.24
-0.34
-0.42
-0.41
-0.31
-0.16
-0.01
0.07
0.07
0.01
-0.04
-0.04
0.05
0.19
0.34
0.43
0.41
0.28
0.08
-0.12
-0.25
-0.27
-0.19
-0.08
-0.00
-0.01
-0.09
-0.18
-0.22
-0.15
0.05
0.35
0.67
0.95
1.10
1.07
0.86
0.53
0.18
-0.06
-0.14
-0.04
0.17
0.36
0.47
0.45
0.34
0.19
0.07
-0.01
-0.06
-0.10
-0.12
-0.10
-0.04
0.05
0.14
0.19
0.21
0.20
0.21
0.25
0.33
0.40
0.42
0.37
0.27
0.15
0.04
-0.09
-0.26
-0.48
-0.72
-0.92
-1.03
-1.02
-0.92
-0.80
-0.71
-0.67
-0.61
-0.48
-0.26
0.00
0.21
0.28
0.19
0.01
-0.18
-0.28
-0.28
-0.19
-0.06
0.09
0.22
0.33
0.40
0.44
0.43
0.42
0.41
0.40
0.37
0.30
0.19
0.12
0.12
0.22
0.33
0.35
0.18
-0.16
-0.58
-0.94
-1.11
-1.06
-0.83
-0.50
-0.15
0.15
0.34
0.38
0.26
0.02
-0.27
-0.48
-0.54
-0.46
-0.32
-0.19
-0.17
-0.23
-0.33
-0.41
-0.41
-0.31
-0.12
0.14
0.45
0.73
0.93
0.96
0.81
0.54
0.29
0.18
0.24
0.42
0.56
0.56
0.39
0.12
-0.12
-0.28
-0.33
-0.36
-0.43
-0.55
-0.66
-0.69
-0.63
-0.47
-0.28
-0.06
0.20
0.53
0.91
1.25
1.41
1.31
0.95
0.47
0.05
-0.18
-0.18
-0.04
0.12
0.20
0.18
0.14
0.13
0.18
0.24
0.21
0.02
-0.30
-0.63
-0.83
-0.78
-0.52
-0.17
0.09
0.17
0.09
-0.05
-0.14
-0.13
-0.06
0.01
0.06
0.10
0.17
0.28
0.38
0.41
0.32
0.12
-0.11
-0.28
-0.30
-0.16
0.09
0.37
0.60
0.70
0.65
0.47
0.24
0.04
-0.08
-0.12
-0.12
-0.12
-0.14
-0.16
-0.17
-0.19
-0.30
-0.56
-0.95
-1.36
-1.63
-1.61
-1.27
-0.73
-0.18
0.22
0.39
0.37
0.30
0.26
0.33
0.46
0.60
0.68
0.65
0.52
0.31
0.08
-0.12
-0.24
-0.24
-0.15
-0.03
0.09
0.14
0.14
0.14
0.19
0.32
0.50
0.69
0.81
0.79
0.60
0.26
-0.18
-0.63
-0.98
-1.17
-1.19
-1.07
-0.87
-0.64
-0.42
-0.22
-0.05
0.11
0.24
0.34
0.42
0.47
0.49
0.47
0.42
0.37
0.34
0.34
0.35
0.30
0.13
-0.15
-0.48
-0.72
-0.76
-0.54
-0.14
0.27
0.53
0.53
0.28
-0.08
-0.39
-0.50
-0.38
-0.10
0.19
0.37
0.38
0.26
0.11
-0.01
-0.08
-0.13
-0.19
-0.26
-0.28
-0.17
0.08
0.42
0.68
0.73
0.53
0.14
-0.23
-0.41
-0.32
-0.01
0.33
0.51
0.44
0.16
-0.19
-0.49
-0.65
-0.70
-0.68
-0.64
-0.55
-0.37
-0.09
0.24
0.52
0.66
0.60
0.39
0.10
-0.17
-0.35
-0.42
-0.40
-0.32
-0.23
-0.13
-0.04
0.02
0.06
0.06
0.05
0.03
0.06
0.13
0.24
0.34
0.39
0.37
0.30
0.19
0.11
0.07
0.09
0.16
0.28
0.42
0.54
0.59
0.57
0.49
0.40
0.33
0.33
0.36
0.37
0.34
0.26
0.16
0.06
-0.02
-0.07
-0.10
-0.11
-0.11
-0.14
-0.22
-0.36
-0.55
-0.72
-0.81
-0.77
-0.63
-0.45
-0.30
-0.20
-0.12
-0.02
0.12
0.28
0.40
0.40
0.25
0.00
-0.27
-0.46
-0.48
-0.33
-0.09
0.13
0.21
0.11
-0.12
-0.37
-0.50
-0.48
-0.32
-0.12
0.06
0.17
0.20
0.20
0.18
0.14
0.06
-0.10
-0.32
-0.54
-0.69
-0.69
-0.52
-0.19
0.21
0.56
0.78
0.85
0.75
0.56
0.32
0.10
-0.08
-0.18
-0.19
-0.14
-0.06
-0.02
-0.03
-0.05
-0.04
0.07
0.30
0.58
0.81
0.91
0.84
0.66
0.42
0.22
0.11
0.10
0.18
0.33
0.48
0.59
0.61
0.53
0.37
0.16
-0.06
-0.23
-0.36
-0.44
-0.50
-0.60
-0.77
-1.04
-1.36
-1.62
-1.72
-1.55
-1.12
-0.54
-0.01
0.29
0.29
0.06
-0.22
-0.35
-0.25
0.02
0.29
0.41
0.30
0.06
-0.14
-0.15
0.06
0.37
0.63
0.72
0.62
0.44
0.32
0.33
0.47
0.63
0.69
0.58
0.34
0.05
-0.18
-0.27
-0.22
-0.09
0.03
0.10
0.12
0.13
0.17
0.23
0.27
0.24
0.11
-0.09
-0.28
-0.38
-0.37
-0.28
-0.15
-0.02
0.08
0.16
0.22
0.28
0.34
0.42
0.53
0.66
0.75
0.74
0.55
0.15
-0.38
-0.92
-1.29
-1.41
-1.26
-0.97
-0.66
-0.47
-0.42
-0.46
-0.47
-0.38
-0.18
0.06
0.24
0.27
0.17
-0.03
-0.22
-0.34
-0.36
-0.32
-0.23
-0.11
0.07
0.30
0.60
0.90
1.16
1.30
1.31
1.20
1.00
0.79
0.61
0.51
0.47
0.45
0.40
0.29
0.13
-0.01
-0.06
0.00
0.13
0.20
0.10
-0.15
-0.46
-0.64
-0.60
-0.34
-0.00
0.26
0.36
0.30
0.18
0.08
0.03
-0.01
-0.07
-0.18
-0.32
-0.45
-0.55
-0.63
-0.70
-0.80
-0.91
-1.01
-1.07
-1.07
-1.03
-0.96
-0.86
-0.74
-0.57
-0.35
-0.06
0.26
0.57
0.78
0.87
0.80
0.63
0.48
0.45
0.57
0.79
0.99
1.07
0.95
0.66
0.29
-0.05
-0.30
-0.46
-0.55
-0.62
-0.66
-0.65
-0.57
-0.45
-0.31
-0.24
-0.27
-0.37
-0.48
-0.49
-0.34
-0.03
0.35
0.69
0.85
0.77
0.47
0.04
-0.39
-0.69
-0.80
-0.71
-0.49
-0.22
0.02
0.16
0.21
0.21
0.21
0.26
0.36
0.47
0.56
0.60
0.59
0.55
0.49
0.42
0.33
0.24
0.17
0.12
0.08
0.02
-0.10
-0.25
-0.39
-0.44
-0.34
-0.11
0.19
0.48
0.70
0.84
0.89
0.90
0.86
0.77
0.64
0.46
0.27
0.09
-0.07
-0.22
-0.36
-0.51
-0.67
-0.86
-1.05
-1.20
-1.26
-1.19
-0.96
-0.61
-0.23
0.09
0.27
0.29
0.17
-0.01
-0.18
-0.30
-0.36
-0.38
-0.38
-0.35
-0.28
-0.13
0.08
0.34
0.58
0.70
0.63
0.38
0.01
-0.35
-0.56
-0.55
-0.31
0.04
0.40
0.64
0.76
0.76
0.71
0.58
0.36
0.05
-0.30
-0.55
-0.58
-0.35
0.03
0.36
0.49
0.36
0.06
-0.24
-0.42
-0.46
-0.43
-0.41
-0.44
-0.46
-0.40
-0.20
0.10
0.41
0.63
0.68
0.54
0.28
-0.02
-0.27
-0.42
-0.47
-0.44
-0.36
-0.23
-0.09
0.06
0.17
0.20
0.12
-0.01
-0.10
-0.07
0.11
0.39
0.62
0.71
0.58
0.29
-0.06
-0.33
-0.45
-0.37
-0.16
0.09
0.27
0.28
0.11
-0.19
-0.51
-0.72
-0.72
-0.50
-0.13
0.30
0.70
1.01
1.19
1.25
1.16
0.97
0.73
0.50
0.34
0.27
0.27
0.27
0.24
0.17
0.08
-0.02
-0.10
-0.16
-0.19
-0.16
-0.08
0.01
0.04
-0.09
-0.37
-0.74
-1.06
-1.22
-1.17
-0.96
-0.73
-0.56
-0.51
-0.52
-0.52
-0.46
-0.35
-0.26
-0.22
-0.21
-0.16
-0.01
0.20
0.41
0.50
0.39
0.11
-0.23
-0.48
-0.56
-0.45
-0.23
0.02
0.24
0.42
0.58
0.70
0.77
0.76
0.67
0.51
0.35
0.19
0.02
-0.19
-0.44
-0.69
-0.83
-0.78
-0.52
-0.10
0.31
0.59
0.66
0.53
0.30
0.06
-0.13
-0.27
-0.37
-0.43
-0.41
-0.27
-0.01
0.34
0.68
0.95
1.07
1.03
0.86
0.63
0.42
0.27
0.22
0.21
0.18
0.08
-0.09
-0.28
-0.40
-0.40
-0.31
-0.17
-0.08
-0.06
-0.12
-0.20
-0.24
-0.23
-0.18
-0.14
-0.10
-0.05
0.05
0.23
0.51
0.84
1.16
1.33
1.27
0.94
0.41
-0.18
-0.68
-1.00
-1.09
-1.02
-0.84
-0.61
-0.37
-0.18
-0.08
-0.13
-0.34
-0.62
-0.85
-0.90
-0.74
-0.42
-0.05
0.23
0.39
0.44
0.40
0.32
0.20
0.04
-0.13
-0.26
-0.31
-0.28
-0.23
-0.24
-0.37
-0.59
-0.77
-0.79
-0.57
-0.15
0.32
0.64
0.68
0.47
0.15
-0.09
-0.11
0.09
0.39
0.63
0.68
0.54
0.35
0.28
0.41
0.71
1.03
1.23
1.22
1.05
0.81
0.61
0.48
0.38
0.22
-0.06
-0.42
-0.79
-1.07
-1.17
-1.10
-0.89
-0.63
-0.41
-0.27
-0.25
-0.31
-0.39
-0.47
-0.50
-0.49
-0.43
-0.33
-0.18
-0.02
0.10
0.09
-0.11
-0.48
-0.93
-1.28
-1.41
-1.23
-0.77
-0.14
0.48
0.95
1.17
1.12
0.89
0.59
0.36
0.27
0.31
0.39
0.41
0.31
0.12
-0.06
-0.16
-0.13
-0.03
0.05
0.03
-0.13
-0.33
-0.45
-0.40
-0.13
0.30
0.76
1.10
1.22
1.12
0.87
0.60
0.42
0.35
0.33
0.27
0.11
-0.13
-0.36
-0.46
-0.42
-0.27
-0.17
-0.23
-0.47
-0.82
-1.09
-1.12
-0.82
-0.29
0.28
0.68
0.77
0.58
0.24
-0.05
-0.18
-0.15
-0.04
0.08
0.14
0.17
0.21
0.28
0.36
0.43
0.44
0.42
0.39
0.35
0.31
0.23
0.09
-0.09
-0.29
-0.49
-0.63
-0.70
-0.65
-0.48
-0.18
0.18
0.50
0.70
0.72
0.60
0.41
0.21
0.06
-0.01
-0.02
0.03
0.10
0.16
0.16
0.08
-0.07
-0.22
-0.28
-0.19
0.06
0.36
0.59
0.63
0.46
0.17
-0.14
-0.36
-0.46
-0.47
-0.45
-0.45
-0.47
-0.48
-0.48
-0.47
-0.47
-0.48
-0.47
-0.40
-0.21
0.07
0.36
0.56
0.59
0.44
0.15
-0.21
-0.55
-0.82
-0.96
-0.95
-0.79
-0.52
-0.19
0.09
0.28
0.35
0.32
0.24
0.13
0.02
-0.08
-0.17
-0.21
-0.18
-0.07
0.10
0.29
0.43
0.50
0.49
0.47
0.49
0.57
0.71
0.85
0.92
0.91
0.80
0.63
0.45
0.27
0.10
-0.07
-0.24
-0.40
-0.54
-0.64
-0.70
-0.71
-0.69
-0.64
-0.60
-0.59
-0.65
-0.75
-0.83
-0.82
-0.64
-0.31
0.11
0.47
0.67
0.67
0.50
0.27
0.10
0.05
0.12
0.26
0.41
0.51
0.52
0.45
0.31
0.15
-0.01
-0.12
-0.18
-0.19
-0.16
-0.11
-0.02
0.11
0.30
0.52
0.69
0.75
0.65
0.41
0.11
-0.16
-0.33
-0.38
-0.37
-0.31
-0.24
-0.12
0.03
0.17
0.24
0.18
-0.03
-0.27
-0.43
-0.42
-0.24
0.03
0.26
0.35
0.31
0.18
0.04
-0.05
-0.11
-0.16
-0.27
-0.43
-0.62
-0.76
-0.77
-0.61
-0.30
0.07
0.36
0.44
0.31
0.06
-0.14
-0.12
0.15
0.59
1.05
1.37
1.50
1.45
1.28
1.07
0.82
0.51
0.09
-0.41
-0.90
-1.23
-1.31
-1.10
-0.70
-0.23
0.13
0.30
0.27
0.09
-0.14
-0.32
-0.42
-0.42
-0.36
-0.28
-0.21
-0.18
-0.17
-0.16
-0.12
-0.06
-0.02
-0.03
-0.11
-0.22
-0.27
-0.23
-0.08
0.10
0.23
0.26
0.19
0.09
0.02
-0.00
0.02
0.02
-0.01
-0.09
-0.21
-0.31
-0.37
-0.35
-0.28
-0.19
-0.11
-0.10
-0.13
-0.16
-0.13
-0.02
0.13
0.24
0.24
0.12
-0.07
-0.21
-0.20
-0.01
0.28
0.56
0.69
0.62
0.36
0.04
-0.21
-0.33
-0.31
-0.25
-0.27
-0.40
-0.60
-0.74
-0.69
-0.43
-0.06
0.24
0.37
0.30
0.17
0.10
0.18
0.36
0.52
0.55
0.43
0.23
0.06
-0.00
0.02
0.07
0.09
0.09
0.11
0.20
0.32
0.42
0.46
0.40
0.30
0.22
0.18
0.16
0.12
0.02
-0.14
-0.30
-0.42
-0.44
-0.39
-0.28
-0.15
0.01
0.20
0.42
0.60
0.66
0.56
0.30
-0.04
-0.33
-0.47
-0.39
-0.13
0.19
0.41
0.46
0.29
0.01
-0.25
-0.40
-0.38
-0.26
-0.15
-0.16
-0.31
-0.55
-0.78
-0.90
-0.87
-0.70
-0.46
-0.22
-0.01
0.15
0.27
0.35
0.40
0.43
0.44
0.44
0.44
0.42
0.37
0.30
0.24
0.18
0.10
-0.03
-0.22
-0.44
-0.58
-0.57
-0.34
0.06
0.48
0.75
0.77
0.53
0.14
-0.25
-0.49
-0.53
-0.35
-0.04
0.31
0.60
0.77
0.75
0.59
0.35
0.15
0.07
0.12
0.24
0.35
0.36
0.28
0.14
-0.05
-0.25
-0.49
-0.77
-1.04
-1.25
-1.29
-1.12
-0.78
-0.34
0.05
0.29
0.32
0.14
-0.14
-0.42
-0.57
-0.52
-0.25
0.15
0.57
0.88
1.02
0.99
0.85
0.71
0.63
0.64
0.71
0.80
0.85
0.85
0.77
0.61
0.35
0.03
-0.33
-0.65
-0.88
-0.97
-0.91
-0.74
-0.53
-0.36
-0.28
-0.32
-0.41
-0.49
-0.50
-0.39
-0.19
0.04
0.21
0.28
0.22
0.09
-0.05
-0.14
-0.16
-0.14
-0.10
-0.04
0.07
0.23
0.44
0.62
0.70
0.63
0.41
0.14
-0.10
-0.24
-0.28
-0.27
-0.29
-0.38
-0.55
-0.76
-0.93
-1.00
-0.91
-0.67
-0.32
0.04
0.31
0.43
0.42
0.36
0.32
0.29
0.21
0.02
-0.29
-0.63
-0.83
-0.75
-0.37
0.17
0.67
0.94
0.90
0.64
0.32
0.11
0.07
0.16
0.27
0.31
0.26
0.16
0.07
0.02
0.04
0.09
0.14
0.18
0.20
0.21
0.19
0.17
0.14
0.14
0.16
0.17
0.14
0.06
-0.07
-0.17
-0.16
-0.02
0.21
0.46
0.68
0.81
0.87
0.84
0.73
0.51
0.19
-0.17
-0.47
-0.61
-0.55
-0.34
-0.11
0.04
0.03
-0.15
-0.41
-0.68
-0.88
-0.97
-0.94
-0.82
-0.64
-0.45
-0.31
-0.25
-0.28
-0.39
-0.55
-0.71
-0.82
-0.80
-0.65
-0.38
-0.04
0.27
0.48
0.55
0.48
0.34
0.20
0.12
0.12
0.19
0.31
0.42
0.51
0.55
0.55
0.53
0.48
0.42
0.36
0.31
0.25
0.20
0.18
0.18
0.22
0.27
0.28
0.19
-0.04
-0.36
-0.70
-0.93
-0.96
-0.79
-0.48
-0.13
0.13
0.26
0.28
0.28
0.32
0.43
0.60
0.78
0.91
0.95
0.88
0.71
0.50
0.26
0.05
-0.17
-0.43
-0.75
-1.12
-1.48
-1.76
-1.92
-1.97
-1.95
-1.92
-1.92
-1.88
-1.74
-1.46
-1.03
-0.56
-0.18
-0.01
-0.08
-0.31
-0.55
-0.67
-0.56
-0.27
0.12
0.51
0.84
1.13
1.44
1.79
2.12
2.33
2.36
2.20
1.95
1.75
1.72
1.88
2.15
2.41
2.55
2.47
2.19
1.80
1.44
1.22
1.18
1.27
1.37
1.35
1.14
0.80
0.43
0.15
0.02
0.03
0.10
0.18
0.18
0.09
-0.08
-0.27
-0.41
-0.44
-0.35
-0.15
0.06
0.17
0.12
-0.09
-0.43
-0.83
-1.22
-1.54
-1.75
-1.85
-1.84
-1.78
-1.76
-1.85
-2.07
-2.32
-2.47
-2.35
-1.93
-1.31
-0.70
-0.35
-0.40
-0.85
-1.51
-2.17
-2.60
-2.73
-2.62
-2.42
-2.29
-2.34
-2.54
-2.82
-3.06
-3.16
-3.10
-2.93
-2.74
-2.65
-2.79
-3.18
-3.81
-4.61
-5.47
-6.32
-7.14
-8.00
-9.03
-10.32
-11.86
-13.54
-15.12
-16.36
-17.14
-17.55
-17.94
-18.75
-20.34
-22.79
-25.78
-28.69
-30.87
-31.96
-32.06
-31.74
-31.73
-32.57
-34.22
-36.10
-37.37
-37.41
-36.22
-34.46
-33.08
-32.84
-34.01
-36.50
-40.13
-44.81
-50.06
-54.31
-54.39
-45.97
-25.25
8.89
53.69
102.94
149.29
186.84
212.58
225.98
227.23
215.85
190.86
152.61
104.58
53.88
9.24
-22.29
-38.11
-40.71
-35.89
-29.61
-25.48
-24.05
-23.88
-23.22
-21.45
-19.16
-17.53
-17.35
-18.53
-20.20
-21.32
-21.21
-19.91
-18.13
-16.79
-16.60
-17.71
-19.68
-21.64
-22.72
-22.33
-20.39
-17.27
-13.62
-10.10
-7.18
-4.99
-3.39
-2.07
-0.75
0.64
1.92
2.84
3.13
2.81
2.13
1.50
1.30
1.67
2.51
3.51
4.35
4.86
5.02
4.95
4.76
4.53
4.27
3.94
3.54
3.11
2.69
2.32
1.99
1.73
1.53
1.39
1.30
1.20
1.04
0.77
0.41
-0.01
-0.47
-0.94
-1.44
-2.00
-2.59
-3.16
-3.60
-3.84
-3.86
-3.73
-3.55
-3.40
-3.31
-3.28
-3.29
-3.34
-3.45
-3.62
-3.82
-3.99
-4.05
-3.95
-3.70
-3.37
-3.01
-2.68
-2.38
-2.11
-1.85
-1.63
-1.48
-1.45
-1.54
-1.70
-1.85
-1.87
-1.69
-1.31
-0.80
-0.29
0.12
0.35
0.44
0.48
0.57
0.75
0.98
1.12
1.08
0.82
0.45
0.14
0.04
0.20
0.57
0.97
1.24
1.29
1.13
0.89
0.67
0.56
0.56
0.60
0.63
0.62
0.61
0.64
0.73
0.83
0.82
0.63
0.25
-0.22
-0.62
-0.83
-0.82
-0.67
-0.48
-0.38
-0.38
-0.43
-0.44
-0.36
-0.20
-0.02
0.08
0.00
-0.23
-0.57
-0.91
-1.15
-1.23
-1.17
-1.02
-0.84
-0.65
-0.45
-0.20
0.12
0.50
0.89
1.24
1.46
1.51
1.39
1.19
1.00
0.94
1.02
1.14
1.12
0.84
0.26
-0.45
-1.09
-1.43
-1.42
-1.15
-0.81
-0.58
-0.53
-0.58
-0.59
-0.41
-0.06
0.36
0.65
0.67
0.39
-0.05
-0.46
-0.67
-0.62
-0.40
-0.17
-0.05
-0.07
-0.18
-0.25
-0.22
-0.08
0.10
0.25
0.33
0.32
0.27
0.22
0.22
0.34
0.62
1.01
1.45
1.77
1.84
1.61
1.11
0.50
-0.01
-0.27
-0.22
0.07
0.45
0.76
0.87
0.74
0.41
-0.03
-0.46
-0.80
-0.98
-0.97
-0.80
-0.49
-0.12
0.24
0.48
0.53
0.34
-0.07
-0.57
-1.04
-1.32
-1.38
-1.23
-0.97
-0.68
-0.43
-0.25
-0.12
-0.06
-0.09
-0.21
-0.38
-0.54
-0.60
-0.52
-0.33
-0.10
0.07
0.13
0.10
0.03
0.01
0.06
0.20
0.35
0.45
0.41
0.22
-0.06
-0.31
-0.40
-0.24
0.16
0.69
1.20
1.51
1.57
1.39
1.11
0.83
0.63
0.53
0.47
0.38
0.20
-0.07
-0.40
-0.72
-0.99
-1.15
-1.20
-1.14
-0.99
-0.77
-0.52
-0.27
-0.07
0.07
0.11
0.04
-0.12
-0.33
-0.49
-0.51
-0.34
0.01
0.44
0.81
1.00
0.95
0.71
0.42
0.22
0.18
0.28
0.40
0.45
0.39
0.28
0.20
0.21
0.27
0.30
0.19
-0.05
-0.33
-0.53
-0.53
-0.36
-0.15
-0.05
-0.19
-0.53
-0.96
-1.32
-1.52
-1.52
-1.38
-1.16
-0.93
-0.72
-0.56
-0.47
-0.44
-0.43
-0.37
-0.18
0.14
0.54
0.92
1.15
1.18
1.01
0.70
0.34
-0.04
-0.40
-0.69
-0.82
-0.72
-0.38
0.14
0.68
1.09
1.25
1.19
0.99
0.80
0.71
0.73
0.80
0.84
0.80
0.64
0.39
0.11
-0.15
-0.37
-0.52
-0.62
-0.66
-0.61
-0.45
-0.21
0.07
0.27
0.34
0.27
0.13
0.05
0.09
0.22
0.34
0.33
0.16
-0.14
-0.43
-0.60
-0.62
-0.51
-0.33
-0.13
0.05
0.20
0.28
0.25
0.08
-0.16
-0.39
-0.51
-0.48
-0.34
-0.20
-0.15
-0.18
-0.25
-0.25
-0.12
0.11
0.35
0.51
0.54
0.49
0.45
0.46
0.54
0.58
0.50
0.27
-0.08
-0.42
-0.66
-0.78
-0.82
-0.84
-0.85
-0.83
-0.72
-0.47
-0.12
0.22
0.46
0.54
0.51
0.43
0.36
0.31
0.23
0.06
-0.18
-0.43
-0.58
-0.55
-0.36
-0.08
0.19
0.33
0.31
0.15
-0.11
-0.40
-0.65
-0.79
-0.75
-0.52
-0.14
0.29
0.64
0.82
0.79
0.59
0.29
-0.00
-0.24
-0.40
-0.45
-0.40
-0.25
-0.04
0.20
0.39
0.50
0.49
0.35
0.12
-0.15
-0.35
-0.42
-0.31
-0.11
0.09
0.16
0.05
-0.20
-0.48
-0.67
-0.69
-0.59
-0.42
-0.26
-0.14
-0.06
0.02
0.09
0.12
0.06
-0.11
-0.36
-0.60
-0.74
-0.67
-0.38
0.04
0.45
0.71
0.74
0.58
0.35
0.15
0.07
0.09
0.15
0.18
0.16
0.10
0.08
0.11
0.19
0.28
0.33
0.30
0.22
0.10
-0.03
-0.14
-0.25
-0.36
-0.45
-0.46
-0.33
-0.01
0.49
1.03
1.45
1.60
1.41
0.93
0.29
-0.37
-0.92
-1.27
-1.38
-1.21
-0.84
-0.33
0.20
0.66
1.00
1.21
1.27
1.22
1.06
0.83
0.57
0.33
0.15
0.01
-0.10
-0.22
-0.37
-0.51
-0.59
-0.56
-0.44
-0.25
-0.05
0.08
0.13
0.08
-0.03
-0.17
-0.27
-0.30
-0.22
-0.07
0.09
0.22
0.24
0.13
-0.06
-0.26
-0.37
-0.31
-0.08
0.24
0.53
0.71
0.73
0.62
0.48
0.37
0.33
0.32
0.30
0.24
0.15
0.07
0.04
0.09
0.16
0.22
0.18
0.01
-0.27
-0.61
-0.94
-1.20
-1.34
-1.36
-1.26
-1.08
-0.82
-0.50
-0.14
0.26
0.66
1.02
1.29
1.41
1.33
1.04
0.60
0.10
-0.32
-0.59
-0.66
-0.59
-0.46
-0.31
-0.17
-0.02
0.13
0.26
0.31
0.27
0.15
0.04
0.01
0.07
0.19
0.27
0.26
0.15
0.01
-0.10
-0.12
-0.06
0.05
0.18
0.33
0.48
0.62
0.72
0.71
0.59
0.37
0.10
-0.14
-0.32
-0.40
-0.39
-0.33
-0.24
-0.15
-0.08
-0.05
-0.08
-0.22
-0.45
-0.74
-1.00
-1.14
-1.09
-0.85
-0.50
-0.15
0.11
0.23
0.23
0.14
0.02
-0.10
-0.22
-0.31
-0.35
-0.31
-0.17
0.03
0.22
0.36
0.42
0.40
0.35
0.29
0.23
0.16
0.07
-0.02
-0.06
-0.01
0.12
0.28
0.40
0.43
0.39
0.31
0.24
0.21
0.21
0.22
0.24
0.26
0.32
0.44
0.63
0.85
1.07
1.20
1.18
0.96
0.56
0.08
-0.35
-0.56
-0.50
-0.21
0.15
0.42
0.48
0.29
-0.06
-0.47
-0.78
-0.91
-0.84
-0.59
-0.26
0.06
0.29
0.38
0.33
0.16
-0.07
-0.32
-0.59
-0.86
-1.08
-1.20
-1.17
-0.99
-0.73
-0.48
-0.33
-0.31
-0.37
-0.43
-0.39
-0.24
-0.00
0.26
0.49
0.65
0.70
0.68
0.59
0.46
0.31
0.15
-0.02
-0.22
-0.39
-0.50
-0.48
-0.31
-0.02
0.29
0.53
0.62
0.58
0.45
0.30
0.16
0.02
-0.12
-0.26
-0.36
-0.39
-0.34
-0.23
-0.11
-0.00
0.08
0.16
0.25
0.34
0.42
0.43
0.35
0.16
-0.13
-0.48
-0.83
-1.10
-1.21
-1.07
-0.71
-0.19
0.36
0.79
1.03
1.07
0.95
0.73
0.50
0.31
0.19
0.14
0.10
0.03
-0.12
-0.35
-0.60
-0.76
-0.74
-0.53
-0.21
0.10
0.28
0.28
0.13
-0.12
-0.37
-0.58
-0.71
-0.76
-0.75
-0.72
-0.69
-0.69
-0.75
-0.84
-0.89
-0.84
-0.63
-0.25
0.24
0.75
1.15
1.38
1.41
1.29
1.06
0.81
0.59
0.44
0.35
0.31
0.29
0.28
0.25
0.20
0.14
0.10
0.07
0.05
0.02
-0.04
-0.13
-0.21
-0.25
-0.21
-0.10
0.03
0.12
0.14
0.11
0.08
0.10
0.18
0.27
0.33
0.30
0.18
0.00
-0.15
-0.20
-0.12
0.10
0.41
0.74
1.02
1.17
1.14
0.92
0.53
0.08
-0.31
-0.54
-0.58
-0.49
-0.34
-0.23
-0.17
-0.13
-0.09
-0.04
-0.03
-0.12
-0.30
-0.47
-0.50
-0.33
0.04
0.44
0.70
0.67
0.37
-0.06
-0.42
-0.55
-0.42
-0.15
0.07
0.11
-0.05
-0.32
-0.53
-0.56
-0.41
-0.17
0.01
0.06
-0.02
-0.15
-0.25
-0.26
-0.21
-0.13
-0.07
-0.04
-0.04
-0.06
-0.10
-0.15
-0.20
-0.21
-0.13
0.03
0.23
0.35
0.30
0.05
-0.31
-0.64
-0.77
-0.64
-0.27
0.18
0.60
0.89
1.04
1.09
1.04
0.88
0.59
0.19
-0.21
-0.49
-0.56
-0.43
-0.21
-0.05
-0.07
-0.25
-0.49
-0.65
-0.63
-0.41
-0.08
0.24
0.42
0.44
0.33
0.17
0.04
-0.03
-0.07
-0.13
-0.23
-0.36
-0.43
-0.42
-0.32
-0.20
-0.13
-0.17
-0.28
-0.36
-0.31
-0.08
0.28
0.67
0.95
1.04
0.95
0.73
0.49
0.31
0.19
0.09
-0.05
-0.23
-0.41
-0.48
-0.39
-0.15
0.13
0.30
0.25
-0.01
-0.35
-0.58
-0.57
-0.32
0.03
0.30
0.37
0.21
-0.08
-0.37
-0.56
-0.62
-0.56
-0.44
-0.29
-0.14
0.01
0.13
0.22
0.25
0.25
0.27
0.32
0.42
0.50
0.49
0.36
0.15
-0.08
-0.23
-0.28
-0.21
-0.08
0.08
0.24
0.39
0.52
0.58
0.52
0.31
-0.02
-0.36
-0.60
-0.63
-0.43
-0.06
0.35
0.66
0.80
0.73
0.51
0.22
-0.03
-0.19
-0.23
-0.18
-0.07
0.06
0.17
0.24
0.23
0.17
0.03
-0.16
-0.37
-0.57
-0.70
-0.72
-0.64
-0.49
-0.34
-0.28
-0.31
-0.39
-0.44
-0.39
-0.22
0.02
0.23
0.35
0.37
0.33
0.25
0.15
-0.01
-0.24
-0.51
-0.77
-0.92
-0.89
-0.68
-0.35
0.01
0.32
0.49
0.52
0.40
0.18
-0.04
-0.17
-0.16
0.01
0.28
0.57
0.80
0.91
0.90
0.78
0.60
0.41
0.28
0.22
0.23
0.28
0.31
0.29
0.19
0.05
-0.09
-0.19
-0.26
-0.29
-0.32
-0.30
-0.21
-0.03
0.20
0.41
0.46
0.32
-0.01
-0.43
-0.82
-1.05
-1.09
-0.90
-0.54
-0.08
0.37
0.68
0.76
0.56
0.14
-0.36
-0.79
-1.01
-1.00
-0.82
-0.58
-0.43
-0.41
-0.50
-0.62
-0.65
-0.50
-0.18
0.26
0.72
1.08
1.27
1.25
1.02
0.62
0.15
-0.30
-0.63
-0.76
-0.69
-0.49
-0.21
0.07
0.31
0.52
0.67
0.73
0.65
0.44
0.13
-0.21
-0.48
-0.61
-0.58
-0.44
-0.23
-0.02
0.13
0.19
0.13
0.00
-0.15
-0.24
-0.22
-0.08
0.14
0.38
0.61
0.83
1.05
1.24
1.35
1.31
1.08
0.69
0.26
-0.07
-0.21
-0.16
-0.03
0.06
0.00
-0.18
-0.41
-0.56
-0.59
-0.49
-0.37
-0.33
-0.40
-0.57
-0.72
-0.76
-0.63
-0.38
-0.09
0.13
0.22
0.14
-0.03
-0.22
-0.33
-0.28
-0.06
0.28
0.63
0.87
0.94
0.81
0.59
0.37
0.25
0.25
0.34
0.42
0.43
0.36
0.23
0.10
0.03
0.03
0.10
0.20
0.27
0.30
0.28
0.23
0.17
0.11
0.04
-0.07
-0.25
-0.50
-0.78
-1.03
-1.20
-1.23
-1.11
-0.87
-0.58
-0.30
-0.10
-0.01
-0.01
-0.04
-0.03
0.05
0.18
0.28
0.31
0.25
0.17
0.13
0.20
0.38
0.62
0.82
0.87
0.70
0.33
-0.13
-0.54
-0.76
-0.72
-0.46
-0.13
0.12
0.17
0.05
-0.14
-0.30
-0.37
-0.38
-0.39
-0.45
-0.51
-0.51
-0.41
-0.25
-0.10
-0.04
-0.09
-0.20
-0.26
-0.21
-0.07
0.04
0.04
-0.13
-0.37
-0.55
-0.53
-0.27
0.14
0.55
0.79
0.82
0.66
0.40
0.16
-0.01
-0.11
-0.16
-0.17
-0.13
-0.03
0.11
0.24
0.35
0.39
0.37
0.33
0.26
0.17
0.03
-0.15
-0.36
-0.55
-0.64
-0.62
-0.51
-0.35
-0.22
-0.15
-0.15
-0.21
-0.28
-0.36
-0.41
-0.38
-0.25
-0.01
0.28
0.51
0.55
0.37
0.02
-0.31
-0.46
-0.32
0.06
0.51
0.87
1.05
1.07
1.00
0.91
0.82
0.70
0.55
0.37
0.23
0.17
0.19
0.21
0.17
0.04
-0.16
-0.32
-0.35
-0.21
0.05
0.31
0.44
0.36
0.10
-0.23
-0.48
-0.56
-0.46
-0.26
-0.05
0.08
0.11
0.09
0.02
-0.07
-0.18
-0.32
-0.46
-0.54
-0.50
-0.31
0.03
0.45
0.86
1.16
1.27
1.14
0.78
0.29
-0.22
-0.63
-0.83
-0.82
-0.64
-0.38
-0.12
0.10
0.29
0.46
0.63
0.75
0.75
0.60
0.32
0.01
-0.22
-0.27
-0.15
0.05
0.20
0.21
0.08
-0.08
-0.16
-0.09
0.09
0.27
0.36
0.28
0.09
-0.12
-0.25
-0.24
-0.12
0.02
0.04
-0.11
-0.42
-0.79
-1.11
-1.26
-1.20
-0.96
-0.62
-0.28
0.01
0.20
0.29
0.32
0.28
0.20
0.09
-0.02
-0.10
-0.09
0.04
0.28
0.57
0.80
0.88
0.75
0.43
0.03
-0.35
-0.61
-0.72
-0.71
-0.60
-0.43
-0.20
0.04
0.24
0.33
0.25
0.02
-0.32
-0.65
-0.85
-0.89
-0.75
-0.48
-0.14
0.22
0.53
0.78
0.95
1.00
0.97
0.88
0.78
0.71
0.67
0.59
0.43
0.15
-0.23
-0.65
-1.00
-1.22
-1.27
-1.19
-1.01
-0.80
-0.59
-0.39
-0.22
-0.08
0.01
0.03
-0.00
-0.07
-0.12
-0.10
-0.01
0.16
0.35
0.50
0.56
0.50
0.33
0.09
-0.15
-0.33
-0.39
-0.29
-0.07
0.21
0.43
0.48
0.33
0.02
-0.33
-0.60
-0.71
-0.65
-0.49
-0.31
-0.15
-0.02
0.13
0.32
0.51
0.64
0.60
0.38
0.02
-0.32
-0.48
-0.35
0.03
0.51
0.91
1.10
1.07
0.89
0.68
0.51
0.38
0.27
0.16
0.05
-0.02
-0.05
-0.06
-0.10
-0.17
-0.26
-0.33
-0.35
-0.30
-0.22
-0.16
-0.15
-0.19
-0.29
-0.43
-0.56
-0.63
-0.59
-0.42
-0.17
0.07
0.24
0.28
0.24
0.16
0.08
0.03
-0.02
-0.08
-0.09
-0.02
0.12
0.28
0.37
0.31
0.12
-0.11
-0.23
-0.18
0.06
0.38
0.66
0.82
0.85
0.79
0.70
0.63
0.54
0.39
0.16
-0.13
-0.40
-0.54
-0.49
-0.27
0.03
0.27
0.35
0.25
0.01
-0.27
-0.52
-0.68
-0.71
-0.62
-0.38
-0.04
0.35
0.66
0.79
0.66
0.27
-0.26
-0.78
-1.14
-1.24
-1.10
-0.80
-0.48
-0.24
-0.15
-0.15
-0.14
-0.06
0.13
0.36
0.52
0.55
0.45
0.33
0.30
0.40
0.56
0.65
0.54
0.18
-0.30
-0.73
-0.90
-0.75
-0.34
0.11
0.39
0.38
0.12
-0.23
-0.45
-0.45
-0.25
0.01
0.17
0.16
0.04
-0.07
-0.07
0.01
0.09
0.04
-0.15
-0.42
-0.61
-0.59
-0.30
0.16
0.64
0.94
0.98
0.78
0.43
0.07
-0.20
-0.37
-0.45
-0.48
-0.49
-0.45
-0.39
-0.32
-0.29
-0.34
-0.44
-0.53
-0.52
-0.40
-0.20
0.01
0.14
0.20
0.23
0.32
0.50
0.70
0.82
0.75
0.49
0.10
-0.29
-0.56
-0.64
-0.54
-0.31
-0.04
0.16
0.21
0.08
-0.19
-0.48
-0.66
-0.62
-0.35
0.07
0.49
0.77
0.85
0.75
0.55
0.35
0.19
0.09
0.03
0.00
0.02
0.12
0.30
0.55
0.79
0.96
1.01
0.96
0.87
0.81
0.79
0.77
0.69
0.48
0.15
-0.25
-0.61
-0.85
-0.94
-0.90
-0.78
-0.63
-0.50
-0.42
-0.40
-0.40
-0.38
-0.29
-0.15
-0.05
-0.05
-0.20
-0.45
-0.68
-0.78
-0.73
-0.56
-0.37
-0.22
-0.10
0.04
0.25
0.54
0.80
0.97
0.99
0.91
0.79
0.71
0.67
0.64
0.58
0.45
0.27
0.08
-0.07
-0.12
-0.08
0.01
0.06
0.00
-0.18
-0.45
-0.72
-0.87
-0.83
-0.62
-0.32
-0.04
0.12
0.10
-0.11
-0.46
-0.87
-1.20
-1.33
-1.21
-0.87
-0.44
-0.10
0.01
-0.13
-0.43
-0.71
-0.84
-0.75
-0.48
-0.11
0.28
0.62
0.91
1.12
1.23
1.24
1.16
1.02
0.85
0.67
0.49
0.32
0.18
0.10
0.09
0.12
0.15
0.15
0.13
0.10
0.12
0.18
0.26
0.29
0.25
0.12
-0.02
-0.14
-0.19
-0.19
-0.16
-0.12
-0.08
0.01
0.18
0.39
0.57
0.60
0.42
0.06
-0.35
-0.67
-0.81
-0.78
-0.70
-0.68
-0.78
-0.93
-1.05
-1.06
-1.00
-0.95
-0.98
-1.09
-1.19
-1.17
-0.97
-0.65
-0.35
-0.18
-0.19
-0.30
-0.38
-0.29
-0.00
0.43
0.89
1.30
1.56
1.66
1.62
1.48
1.30
1.14
1.07
1.12
1.24
1.35
1.35
1.20
0.91
0.59
0.34
0.21
0.15
0.07
-0.17
-0.62
-1.30
-2.14
-3.07
-3.98
-4.79
-5.40
-5.71
-5.60
-5.04
-4.00
-2.55
-0.79
1.16
3.13
4.99
6.61
7.95
9.04
9.95
10.74
11.39
11.85
12.01
11.86
11.43
10.85
10.23
9.65
9.14
8.66
8.23
7.80
7.34
6.79
6.06
5.12
4.00
2.82
1.74
0.87
0.26
-0.11
-0.27
-0.24
0.02
0.58
1.45
2.61
3.94
5.25
6.36
7.14
7.50
7.41
6.85
5.71
3.91
1.43
-1.58
-4.72
-7.51
-9.51
-10.53
-10.68
-10.31
-9.84
-9.58
-9.63
-9.90
-10.24
-10.50
-10.64
-10.69
-10.66
-10.54
-10.31
-9.93
-9.41
-8.82
-8.25
-7.79
-7.51
-7.44
-7.53
-7.73
-7.95
-8.09
-8.13
-8.07
-8.02
-8.08
-8.34
-8.80
-9.40
-10.09
-10.80
-11.53
-12.23
-12.75
-12.92
-12.65
-12.05
-11.47
-11.38
-12.14
-13.81
-16.19
-18.96
-21.90
-24.96
-28.17
-31.44
-34.45
-36.78
-38.13
-38.63
-38.86
-39.68
-41.88
-45.88
-51.61
-58.64
-66.38
-74.32
-82.02
-89.31
-96.20
-102.99
-110.25
-118.66
-128.81
-141.01
-155.16
-170.69
-186.41
-200.46
-210.29
-213.07
-206.35
-188.85
-160.98
-124.63
-82.32
-36.16
12.64
63.33
114.63
163.89
207.22
240.65
261.79
271.00
271.34
267.28
262.90
260.59
260.72
262.24
263.79
264.54
264.45
264.10
264.23
265.36
267.61
270.81
274.66
278.91
283.24
286.96
288.63
286.07
276.81
258.96
232.02
197.17
156.84
113.57
68.91
23.03
-24.71
-74.31
-124.00
-169.96
-207.41
-232.47
-243.76
-242.93
-233.81
-220.75
-207.06
-194.13
-181.93
-169.97
-158.12
-146.93
-137.16
-129.12
-122.33
-115.73
-108.29
-99.55
-89.90
-80.31
-71.86
-65.19
-60.26
-56.42
-52.76
-48.57
-43.58
-38.07
-32.61
-27.82
-24.06
-21.32
-19.27
-17.44
-15.46
-13.16
-10.65
-8.21
-6.12
-4.55
-3.51
-2.86
-2.41
-2.00
-1.59
-1.18
-0.85
-0.62
-0.45
-0.29
-0.10
0.10
0.25
0.31
0.26
0.17
0.10
0.08
0.08
0.03
-0.14
-0.38
-0.58
-0.64
-0.50
-0.25
-0.03
0.02
-0.14
-0.41
-0.63
-0.66
-0.45
-0.06
0.36
0.66
0.74
0.57
0.23
-0.15
-0.45
-0.58
-0.57
-0.50
-0.48
-0.54
-0.66
-0.71
-0.61
-0.34
0.02
0.34
0.52
0.53
0.44
0.34
0.29
0.29
0.30
0.26
0.18
0.08
-0.01
-0.05
-0.05
-0.01
0.03
0.05
0.03
-0.02
-0.07
-0.10
-0.08
-0.01
0.08
0.16
0.19
0.20
0.22
0.30
0.46
0.65
0.81
0.87
0.80
0.63
0.43
0.26
0.16
0.11
0.09
0.06
-0.01
-0.10
-0.20
-0.27
-0.32
-0.31
-0.22
-0.05
0.22
0.53
0.80
0.96
0.95
0.77
0.49
0.20
-0.03
-0.19
-0.28
-0.30
-0.26
-0.17
-0.07
-0.01
-0.04
-0.17
-0.37
-0.56
-0.68
-0.70
-0.66
-0.64
-0.67
-0.76
-0.87
-0.95
-0.97
-0.95
-0.90
-0.79
-0.56
-0.19
0.25
0.62
0.75
0.57
0.15
-0.31
-0.55
-0.40
0.15
0.95
1.73
2.29
2.51
2.40
2.08
1.70
1.36
1.09
0.84
0.58
0.27
-0.06
-0.37
-0.59
-0.72
-0.76
-0.79
-0.83
-0.89
-0.92
-0.86
-0.67
-0.37
-0.03
0.23
0.31
0.18
-0.11
-0.42
-0.63
-0.68
-0.58
-0.44
-0.33
-0.27
-0.22
-0.09
0.19
0.62
1.13
1.67
2.14
2.47
2.57
2.33
1.70
0.74
-0.36
-1.30
-1.85
-1.88
-1.49
-0.95
-0.53
-0.42
-0.63
-1.04
-1.46
-1.72
-1.76
-1.60
-1.34
-1.11
-1.00
-1.02
-1.11
-1.15
-1.07
-0.87
-0.62
-0.40
-0.21
-0.04
0.22
0.60
1.11
1.67
2.21
2.69
3.09
3.43
3.69
3.82
3.76
3.46
2.92
2.21
1.43
0.72
0.17
-0.17
-0.34
-0.46
-0.65
-0.96
-1.40
-1.85
-2.20
-2.35
-2.32
-2.18
-2.03
-1.93
-1.88
-1.82
-1.71
-1.55
-1.39
-1.28
-1.21
-1.13
-0.94
-0.61
