1660327098.00
64.000000
-0.00
-0.00
-0.00
-0.00
-0.00
-0.00
-0.00
-0.00
-0.00
-0.00
0.00
0.01
0.01
-0.00
-0.03
-0.05
-0.05
0.00
0.13
0.36
0.66
1.01
1.37
1.72
2.06
2.40
2.79
3.24
3.80
4.42
5.06
5.66
6.20
6.68
7.15
7.68
8.31
9.14
10.09
11.04
11.88
12.56
13.14
13.76
14.65
15.96
17.91
20.32
22.90
25.38
27.58
29.57
31.68
34.32
37.81
42.54
48.15
54.10
59.83
64.97
69.58
74.14
79.34
85.71
93.76
103.00
112.62
121.73
129.77
136.75
143.30
150.75
157.77
166.64
177.95
191.79
206.97
220.57
228.25
225.36
208.53
176.87
132.76
80.05
23.07
-34.94
-92.44
-149.16
-205.23
-260.37
-313.74
-363.87
-409.83
-450.91
-486.50
-515.74
-537.23
-549.22
-549.96
-538.37
-514.21
-478.67
-433.88
-382.45
-327.02
-269.84
-212.63
-156.66
-102.95
-52.37
-5.90
35.58
71.43
101.35
125.50
144.38
158.69
169.15
176.37
180.75
182.57
182.07
179.51
175.23
169.65
163.18
156.15
148.81
141.30
133.69
126.02
118.33
110.69
103.16
95.80
88.68
81.83
75.25
68.95
62.95
57.25
51.86
46.78
42.03
37.59
33.45
29.61
26.07
22.81
19.83
17.11
14.67
12.48
10.54
8.83
7.35
6.07
4.97
4.05
3.27
2.62
2.09
1.65
1.30
1.01
0.79
0.61
0.47
0.37
0.29
0.24
0.20
0.18
0.17
0.17
0.18
0.19
0.22
0.26
0.31
0.37
0.42
0.45
0.44
0.40
0.33
0.27
0.25
0.27
0.34
0.42
0.49
0.53
0.53
0.52
0.52
0.58
0.72
0.91
1.12
1.27
1.33
1.29
1.22
1.22
1.36
1.72
2.23
2.78
3.19
3.35
3.24
2.99
2.84
2.99
3.58
4.50
5.48
6.19
6.35
5.95
5.24
4.69
4.74
5.60
7.10
8.74
9.87
10.00
9.01
7.25
5.34
3.80
2.85
2.17
1.07
-1.20
-5.23
-11.31
-19.35
-28.89
-38.89
-47.63
-52.97
-52.95
-46.71
-35.06
-20.52
-6.30
4.79
11.41
13.98
13.94
12.85
11.48
9.75
7.10
3.31
-1.08
-4.78
-6.25
-4.46
0.65
8.00
15.63
21.47
24.03
22.81
18.37
11.93
4.78
-2.10
-8.19
-13.22
-17.00
-19.30
-19.93
-18.94
-16.65
-13.73
-10.92
-8.88
-8.07
-8.54
-10.06
-12.16
-14.30
-15.99
-16.98
-17.29
-17.22
-17.17
-17.47
-18.30
-19.72
-21.70
-24.10
-26.69
-29.03
-30.45
-30.14
-27.21
-20.83
-10.59
3.43
20.70
40.30
61.03
81.33
99.33
113.03
120.56
120.63
112.94
98.43
79.15
57.83
37.27
19.67
6.14
-3.45
-10.30
-16.07
-22.30
-29.89
-38.96
-48.93
-58.86
-67.86
-75.31
-81.00
-85.13
-88.18
-90.64
-92.73
-94.08
-93.63
-89.87
-81.31
-67.16
-47.83
-24.93
-0.90
21.69
40.87
55.62
65.78
71.67
73.67
72.05
67.09
59.27
49.56
39.29
29.73
21.71
15.20
9.46
3.41
-3.82
-12.39
-21.64
-30.41
-37.50
-42.09
-44.00
-43.62
-41.72
-39.18
-36.87
-35.47
-35.33
-36.32
-37.72
-38.21
-36.25
-30.56
-20.68
-7.20
8.44
24.47
39.39
52.31
62.93
71.23
77.08
80.12
80.04
76.86
71.16
64.08
56.97
50.88
46.23
42.74
39.62
35.92
30.92
24.35
16.46
7.88
-0.67
-8.65
-15.86
-22.43
-28.71
-35.03
-41.55
-48.15
-54.47
-59.86
-63.42
-64.08
-60.87
-53.20
-41.29
-26.23
-9.78
6.12
19.93
30.81
38.60
43.45
45.57
45.05
42.05
37.07
31.04
25.24
20.81
18.40
17.86
18.43
19.00
18.59
16.70
13.37
9.07
4.36
-0.29
-4.69
-8.93
-13.25
-17.91
-23.11
-28.94
-35.33
-41.93
-47.96
-52.26
-53.47
-50.43
-42.71
-30.83
-16.14
-0.45
14.55
27.68
38.28
46.03
50.70
52.10
50.27
45.69
39.34
32.55
26.58
22.23
19.61
18.21
17.16
15.60
12.99
9.23
4.65
-0.16
-4.59
-8.22
-10.96
-13.04
-15.00
-17.48
-21.10
-26.18
-32.52
-39.22
-44.73
-47.25
-45.31
-38.36
-27.09
-13.20
1.13
14.05
24.49
32.19
37.37
40.27
40.89
39.15
35.16
29.52
23.28
17.67
13.60
11.32
10.33
9.62
8.12
5.19
0.85
-4.30
-9.41
-13.81
-17.34
-20.39
-23.67
-27.84
-33.26
-39.95
-47.69
-56.08
-64.59
-72.38
-78.21
-80.71
-78.69
-71.76
-60.54
-46.62
-32.02
-18.59
-7.58
0.49
5.62
8.06
8.15
6.40
3.49
0.32
-2.14
-3.14
-2.24
0.56
4.99
10.64
17.14
24.14
31.32
38.38
45.05
51.09
56.31
60.54
63.51
64.93
64.45
61.80
56.89
49.87
41.18
31.54
21.95
13.60
7.75
5.36
6.81
11.62
18.56
25.91
32.03
35.84
37.00
35.77
32.75
28.54
23.60
18.42
13.55
9.74
7.61
7.47
9.07
11.71
14.50
16.71
18.04
18.59
18.71
18.71
18.75
18.79
18.66
18.18
17.16
15.45
12.90
9.32
4.54
-1.52
-8.63
-16.05
-22.52
-26.47
-26.51
-22.03
-13.48
-2.38
9.14
19.08
25.98
29.17
28.54
24.41
17.26
7.88
-2.61
-12.81
-21.34
-27.28
-30.34
-30.96
-29.97
-28.31
-26.73
-25.75
-25.63
-26.48
-28.28
-30.79
-33.64
-36.34
-38.45
-39.75
-40.27
-40.31
-40.32
-40.72
-41.69
-43.00
-43.99
-43.57
-40.50
-33.70
-22.60
-7.44
10.66
29.90
48.08
63.18
73.67
78.72
78.29
72.92
63.67
51.91
39.21
27.16
17.11
9.90
5.66
3.87
3.51
3.53
3.05
1.57
-1.01
-4.55
-8.70
-13.09
-17.25
-20.80
-23.50
-25.38
-26.78
-28.21
-30.23
-33.03
-36.31
-39.09
-39.94
-37.44
-30.69
-19.81
-6.10
8.29
20.92
29.78
33.79
32.99
28.30
21.17
13.16
5.68
-0.13
-3.42
-3.82
-1.51
2.66
7.28
10.73
11.63
9.36
4.30
-2.28
-8.58
-12.87
-13.93
-11.32
-5.31
3.38
13.88
25.40
37.27
48.77
58.96
66.85
71.78
74.09
75.37
78.28
85.53
98.74
117.53
139.38
160.60
177.50
187.47
189.49
183.67
170.72
151.77
128.61
104.16
82.34
67.03
60.60
62.68
70.16
78.48
83.46
82.57
75.15
61.61
42.52
18.05
-10.83
-41.25
-68.27
-86.22
-90.88
-81.10
-59.32
-30.59
-1.02
24.75
44.83
60.15
73.14
86.30
101.25
118.20
136.10
151.88
162.53
166.19
162.53
152.08
135.87
115.38
92.68
70.29
47.81
25.45
4.97
-10.91
-20.84
-26.01
-29.48
-34.59
-43.71
-63.80
-98.25
-144.32
-194.41
-241.15
-280.80
-313.09
-339.54
-362.00
-391.81
-436.44
-494.63
-557.35
-615.09
-662.81
-699.77
-727.43
-747.69
-775.13
-819.51
-879.44
-943.49
-999.74
-1041.86
-1069.11
-1083.69
-1006.89
-801.26
-491.73
-153.03
146.30
375.94
537.30
645.03
715.19
760.79
778.00
764.05
724.76
673.50
622.91
579.67
544.76
516.31
491.83
459.18
410.14
345.58
281.14
227.74
189.96
167.08
156.08
153.65
150.83
141.26
125.08
107.18
92.07
82.49
78.97
80.87
87.32
94.57
96.68
95.83
95.69
98.41
105.12
115.76
129.49
145.31
161.15
174.80
185.84
194.63
201.02
205.21
207.16
206.64
203.41
197.17
185.49
166.11
142.04
115.45
88.86
64.37
43.48
27.41
17.12
9.39
1.70
-6.76
-15.50
-23.25
-29.55
-34.74
-39.30
-43.34
-52.83
-72.19
-101.98
-139.35
-180.02
-220.98
-260.60
-297.90
-332.08
-370.73
-420.28
-482.60
-554.83
-632.34
-712.18
-793.63
-877.62
-914.64
-874.87
-759.13
-596.85
-421.59
-253.79
-102.06
29.58
137.77
220.66
271.71
290.01
282.16
260.04
234.73
212.45
195.38
183.77
178.06
172.99
164.39
151.19
135.91
121.75
109.72
101.23
96.87
97.12
98.27
96.90
91.34
82.54
72.05
60.95
49.91
39.32
29.80
19.98
8.66
-4.68
-19.09
-33.44
-46.91
-58.84
-68.70
-75.78
-79.90
-80.45
-79.71
-78.17
-76.02
-73.36
-70.24
-66.77
-63.02
-59.06
-55.12
-51.52
-48.22
-45.29
-42.84
-40.90
-39.52
-38.71
-38.47
-38.75
-39.57
-40.54
-41.40
-41.94
-42.01
-41.57
-40.65
-39.40
-38.03
-36.83
-35.88
-35.30
-35.21
-35.67
-36.64
-38.03
-39.69
-41.40
-42.98
-44.13
-44.63
-44.34
-43.22
-41.31
-38.71
-35.58
-32.11
-28.50
-24.89
-21.40
-18.12
-15.10
-12.37
-9.93
-7.80
-5.97
-4.46
-3.31
-2.54
-2.19
-2.28
-2.80
-3.71
-4.93
-6.35
-7.83
-9.22
-10.34
-11.06
-11.24
-10.80
-9.70
-7.93
-5.54
-2.64
0.63
4.10
7.60
10.94
13.96
16.52
18.50
19.84
20.47
20.41
19.67
18.35
16.57
14.52
12.37
10.33
8.54
7.08
5.95
5.06
4.31
3.56
2.70
1.67
0.45
-0.94
-2.51
-4.26
-6.23
-8.41
-10.71
-12.92
-14.70
-15.63
-15.32
-13.50
-10.09
-5.18
1.07
8.49
17.05
26.82
37.93
50.43
64.12
78.46
92.71
106.04
117.87
128.06
136.99
145.48
154.47
164.68
176.41
189.35
202.79
215.94
228.24
239.82
251.69
265.62
283.62
306.95
335.10
365.26
392.70
412.16
419.60
413.71
396.38
371.84
344.96
319.47
296.81
275.85
253.42
225.45
188.26
139.91
81.27
16.49
-47.37
-101.94
-139.70
-156.41
-152.25
-131.74
-102.11
-70.94
-44.16
-24.97
-14.01
-10.25
-12.02
-17.55
-25.06
-32.60
-38.02
-39.37
-35.49
-26.64
-14.48
-1.60
9.38
16.81
20.63
22.51
25.32
32.24
45.84
67.32
96.22
130.47
166.78
201.00
228.77
245.99
249.61
238.25
212.62
175.52
131.22
84.54
39.94
1.02
-29.70
-50.66
-61.28
-62.13
-55.09
-43.22
-30.15
-19.11
-12.04
-9.27
-9.80
-12.08
-14.75
-16.99
-18.48
-19.11
-18.82
-17.68
-16.05
-14.41
-12.95
-11.12
-7.52
-0.69
9.71
21.74
31.05
31.80
18.38
-12.69
-61.43
-123.75
-191.89
-255.86
-305.37
-332.33
-332.83
-308.28
-264.97
-212.20
-159.42
-113.68
-78.19
-52.50
-33.92
-19.26
-6.25
6.10
17.83
28.66
38.54
47.66
56.20
63.89
70.00
73.78
75.07
74.74
74.63
77.00
83.85
96.47
115.16
139.16
166.48
193.84
216.93
231.23
233.29
221.91
198.65
167.23
132.36
98.34
68.25
44.00
26.86
17.80
17.41
25.26
39.27
55.84
70.62
79.94
81.98
77.06
67.20
54.95
42.26
29.89
17.48
4.15
-10.95
-28.22
-47.44
-67.91
-88.60
-108.35
-126.32
-142.47
-158.02
-175.56
-198.34
-228.88
-267.30
-310.23
-351.13
-381.97
-395.87
-389.35
-363.23
-321.80
-270.80
-215.50
-159.67
-105.84
-56.09
-12.60
22.58
48.42
65.63
76.66
84.70
92.35
100.59
108.74
115.23
118.72
118.95
116.93
114.40
112.93
113.22
114.76
116.17
115.90
113.14
108.31
103.07
99.60
99.59
103.06
107.89
110.16
105.34
89.94
63.10
27.11
-13.12
-51.64
-83.39
-105.56
-117.99
-122.49
-121.53
-117.17
-110.50
-101.84
-91.35
-79.43
-66.83
-54.31
-42.13
-29.90
-16.74
-1.83
15.00
33.02
50.79
66.75
79.82
89.77
97.18
102.94
107.64
111.24
113.09
112.29
107.99
99.55
86.27
67.05
40.22
3.98
-42.58
-98.23
-158.91
-217.95
-267.55
-300.86
-313.89
-306.36
-281.43
-244.29
-200.61
-155.34
-112.16
-73.52
-40.87
-14.78
5.01
19.64
30.88
40.69
50.72
61.83
73.99
86.45
98.19
108.38
116.79
123.84
130.43
137.44
145.33
153.78
161.79
167.96
170.91
169.57
163.46
152.54
137.19
118.02
95.78
71.33
45.60
19.73
-4.89
-26.39
-42.52
-50.80
-49.02
-36.07
-12.57
18.58
52.41
82.67
103.37
110.41
102.89
83.47
57.62
31.84
11.68
0.18
-2.52
1.55
9.52
18.93
28.16
36.07
41.33
42.07
36.30
23.08
3.62
-18.31
-37.14
-47.18
-44.73
-29.39
-4.30
24.83
51.58
70.77
80.03
80.36
75.62
70.91
70.52
76.14
86.15
96.06
100.08
93.14
72.61
39.26
-2.86
-47.47
-87.74
-118.07
-135.33
-139.35
-132.24
-117.21
-97.32
-74.69
-50.67
-26.44
-3.67
15.44
28.71
34.76
33.69
27.10
17.67
8.29
1.31
-2.01
-1.45
2.54
9.28
18.15
28.54
39.57
49.88
57.74
61.59
60.61
55.13
46.46
36.24
25.80
15.64
5.42
-5.56
-17.71
-30.50
-42.13
-49.66
-49.75
-39.92
-19.68
8.87
41.49
73.09
99.31
117.67
127.89
131.32
129.98
125.88
120.60
115.45
111.54
109.78
110.75
114.48
120.50
128.03
136.30
144.71
153.03
161.27
169.58
178.14
186.88
195.47
203.18
209.09
212.19
211.70
207.24
198.96
187.49
173.77
158.73
143.02
126.79
109.67
91.08
70.46
47.74
23.40
-1.51
-25.81
-48.70
-70.17
-91.10
-112.93
-137.09
-164.25
-194.02
-225.01
-255.21
-282.88
-307.08
-328.15
-347.80
-368.91
-394.83
-428.03
-468.55
-512.70
-553.07
-580.27
-585.62
-563.90
-515.03
-444.10
-360.20
-274.38
-197.51
-138.18
-101.07
-86.23
-89.46
-104.08
-123.46
-143.07
-161.20
-178.14
-194.44
-209.72
-222.87
-233.14
-241.20
-249.18
-259.48
-273.37
-290.16
-307.88
-324.58
-339.73
-354.58
-371.12
-390.36
-410.85
-428.48
-437.75
-433.98
-415.25
-383.15
-342.02
-297.11
-252.76
-211.37
-173.54
-138.91
-107.09
-77.98
-51.55
-27.45
-4.72
18.12
42.60
69.75
99.28
129.23
156.09
175.82
185.33
183.95
174.02
160.08
147.26
139.25
137.30
140.39
146.39
153.40
160.49
167.49
174.33
180.42
184.60
185.61
182.81
176.58
168.21
159.50
152.01
146.65
143.39
141.49
139.94
137.95
135.28
132.26
129.41
127.09
125.15
122.98
119.74
114.76
107.81
99.20
89.57
79.58
69.73
60.13
50.58
40.73
30.32
19.38
8.48
-1.38
-9.02
-13.46
-14.39
-12.23
-7.99
-2.83
2.39
7.40
12.45
17.97
24.14
30.63
36.71
41.59
44.85
46.72
47.92
49.26
51.20
53.46
55.16
55.13
52.44
46.77
38.46
28.38
17.60
7.09
-2.36
-10.24
-16.21
-20.10
-21.86
-21.60
-19.65
-16.60
-13.16
-9.96
-7.25
-4.63
-1.08
4.61
13.36
25.31
39.61
54.76
69.00
80.90
89.64
95.01
97.27
96.88
94.32
90.02
84.40
77.89
70.93
64.03
57.64
52.16
47.81
44.65
42.54
41.24
40.41
39.70
38.79
37.40
35.41
32.79
29.68
26.28
22.80
19.35
15.89
12.25
8.09
3.00
-3.27
-10.63
-18.36
-25.08
-29.06
-28.71
-23.21
-12.86
0.96
16.25
31.11
44.29
55.35
64.49
72.13
78.52
83.62
87.09
88.65
88.32
86.51
84.04
81.88
80.93
81.76
84.51
88.93
94.44
100.42
106.20
111.23
114.98
116.94
116.68
113.89
108.52
100.88
91.54
81.24
70.56
59.82
49.12
38.54
28.36
18.99
10.71
3.35
-3.73
-11.45
-20.34
-30.16
-39.78
-47.58
-52.12
-52.73
-49.75
-44.29
-37.83
-31.81
-27.43
-25.49
-26.38
-29.92
-35.38
-41.63
-47.43
-51.79
-54.21
-54.66
-53.42
-50.92
-47.69
-44.32
-41.51
-40.01
-40.33
-42.66
-46.78
-52.23
-58.61
-65.79
-73.73
-82.14
-90.09
-95.96
-97.82
-94.24
-85.00
-71.28
-55.36
-39.73
-26.22
-15.52
-7.32
-0.78
4.78
9.59
13.44
16.10
17.58
18.21
18.56
19.05
19.75
20.38
20.41
19.37
17.00
13.39
8.90
4.07
-0.53
-4.45
-7.40
-9.36
-10.57
-11.50
-12.75
-14.91
-18.30
-22.72
-27.42
-31.12
-32.46
-30.40
-24.64
-15.72
-4.84
6.57
17.28
26.48
33.80
39.11
42.29
43.18
41.65
37.84
32.30
26.00
20.14
15.75
13.30
12.64
12.94
13.14
12.32
10.02
6.33
1.73
-3.17
-7.86
-12.12
-15.96
-19.59
-23.29
-27.34
-32.01
-37.45
-43.57
-49.84
-55.30
-58.64
-58.63
-54.53
-46.48
-35.43
-22.97
-10.71
0.11
8.85
15.34
19.64
21.82
21.85
19.80
15.99
11.05
5.85
1.18
-2.48
-5.09
-7.02
-8.82
-10.91
-13.42
-16.18
-18.77
-20.83
-22.17
-22.93
-23.49
-24.39
-26.12
-29.03
-33.23
-38.58
-44.65
-50.72
-55.72
-58.39
-57.55
-52.44
-43.09
-30.38
-15.85
-1.22
12.06
23.20
32.06
38.94
44.22
48.06
50.34
50.78
49.20
45.80
41.16
36.19
31.79
28.60
26.70
25.69
24.89
23.61
21.51
18.63
15.32
12.03
9.07
6.42
3.83
0.81
-3.13
-8.42
-15.18
-23.08
-31.16
-37.78
-40.93
-38.83
-30.63
-16.90
0.40
18.46
34.59
46.97
55.09
59.51
61.37
61.70
61.03
59.38
56.56
52.44
47.24
41.50
35.95
31.33
28.16
26.64
26.66
27.78
29.38
30.81
31.46
30.95
29.08
25.82
21.12
14.95
7.28
-1.78
-11.95
-22.76
-33.59
-43.74
-52.42
-58.73
-61.63
-60.17
-53.81
-42.76
-28.12
-11.67
4.63
19.16
30.98
39.84
46.00
49.85
51.80
52.13
51.14
49.14
46.46
43.37
40.01
36.41
32.57
28.55
24.53
20.74
17.34
14.30
11.34
8.04
4.07
-0.64
-5.82
-10.94
-15.48
-19.18
-22.13
-24.80
-27.83
-31.88
-37.39
-44.43
-52.52
-60.60
-67.14
-70.49
-69.41
-63.59
-53.77
-41.50
-28.56
-16.38
-5.67
3.41
10.98
17.02
21.28
23.41
23.29
21.20
17.78
13.82
9.95
6.50
3.48
0.80
-1.57
-3.51
-4.87
-5.58
-5.83
-6.07
-6.94
-8.94
-12.33
-16.93
-22.29
-27.79
-32.88
-37.26
-40.92
-44.05
-47.06
-50.50
-54.83
-60.28
-66.53
-72.57
-76.81
-77.49
-73.38
-64.24
-51.07
-35.73
-20.30
-6.39
5.19
14.32
21.22
26.07
28.90
29.71
28.75
26.61
24.10
21.92
20.38
19.33
18.22
16.43
13.60
9.79
5.38
0.90
-3.23
-6.91
-10.36
-14.00
-18.20
-23.06
-28.32
-33.46
-37.88
-41.15
-43.15
-44.14
-44.64
-45.31
-46.80
-49.53
-53.51
-58.18
-62.37
-64.56
-63.23
-57.47
-47.29
-33.70
-18.37
-3.15
10.51
21.82
30.60
37.05
41.46
44.02
44.84
44.11
42.18
39.56
36.81
34.38
32.45
30.95
29.62
28.24
26.73
25.16
23.65
22.22
20.72
18.83
16.16
12.49
7.88
2.76
-2.23
-6.46
-9.55
-11.52
-12.85
-14.22
-16.39
-19.91
-24.83
-30.65
-36.22
-39.92
-40.17
-35.86
-26.86
-14.15
0.41
14.75
27.17
36.82
43.67
48.21
50.96
52.25
52.17
50.82
48.47
45.59
42.77
40.48
38.90
37.91
37.27
36.72
36.17
35.67
35.30
35.08
34.90
34.50
33.65
32.28
30.47
28.56
26.93
25.92
25.67
26.04
26.63
26.87
26.23
24.43
21.65
18.62
16.45
16.31
18.95
24.38
31.86
40.14
47.93
54.21
58.37
59.96
58.63
54.03
46.13
35.51
23.39
11.42
1.10
-6.76
-12.14
-15.60
-17.83
-19.27
-20.00
-20.06
-19.80
-20.02
-21.77
-25.83
-32.25
-40.18
-48.19
-54.79
-59.09
-60.98
-61.08
-60.48
-60.48
-62.43
-67.53
-76.58
-89.60
-105.54
-122.35
-137.47
-148.62
-154.45
-154.76
-150.11
-141.23
-128.49
-112.01
-91.99
-69.28
-45.54
-22.96
-3.56
11.43
21.91
28.76
33.34
36.94
40.39
43.82
46.79
48.43
47.75
43.89
36.43
25.60
12.40
-1.52
-14.30
-24.23
-30.30
-32.45
-31.53
-29.09
-26.93
-26.62
-29.10
-34.47
-41.92
-49.88
-56.30
-59.16
-56.95
-49.20
-36.61
-20.93
-4.46
10.73
23.30
32.91
40.06
45.49
49.76
52.93
54.71
54.70
52.90
49.78
46.22
43.23
41.59
41.62
42.99
44.95
46.50
46.74
45.21
41.99
37.62
32.89
28.40
24.40
20.67
16.66
11.82
5.74
-1.64
-10.01
-18.75
-26.93
-33.41
-37.07
-37.04
-33.03
-25.45
-15.31
-3.91
7.49
18.04
27.28
35.06
41.33
45.94
48.67
49.28
47.76
44.39
39.71
34.48
29.41
25.06
21.73
19.40
17.83
16.61
15.23
13.27
10.46
6.75
2.34
-2.44
-7.26
-11.91
-16.40
-20.86
-25.51
-30.53
-36.05
-41.99
-47.97
-53.20
-56.48
-56.51
-52.27
-43.54
-31.05
-16.33
-1.22
12.77
24.81
34.73
42.71
48.87
53.05
54.97
54.50
51.99
48.25
44.30
40.98
38.59
36.90
35.36
33.46
30.99
28.11
25.20
22.51
20.05
17.50
14.46
10.66
6.15
1.33
-3.26
-7.19
-10.30
-12.77
-15.00
-17.47
-20.64
-24.85
-30.15
-36.15
-41.88
-45.83
-46.35
-42.19
-33.09
-19.98
-4.65
10.81
24.70
36.10
44.76
50.80
54.32
55.32
53.84
50.16
44.97
39.21
33.78
29.29
25.87
23.25
20.94
18.47
15.59
12.29
8.74
5.20
1.85
-1.27
-4.23
-7.19
-10.33
-13.70
-17.24
-20.80
-24.17
-27.22
-29.93
-32.38
-34.75
-37.23
-39.98
-43.15
-46.73
-50.49
-53.87
-55.91
-55.53
-51.77
-44.24
-33.35
-20.28
-6.57
6.36
17.58
26.67
33.65
38.55
41.37
42.12
41.02
38.69
36.05
34.05
33.31
33.81
34.96
35.88
35.81
34.50
32.20
29.54
27.11
25.19
23.56
21.67
18.90
14.89
9.69
3.71
-2.47
-8.37
-13.75
-18.68
-23.34
-28.01
-32.89
-38.12
-43.70
-49.47
-54.91
-59.15
-61.05
-59.55
-54.05
-44.77
-32.73
-19.47
-6.56
4.82
14.09
21.15
26.08
28.95
29.81
28.76
26.22
22.87
19.53
16.86
15.10
13.98
12.87
11.11
8.26
4.30
-0.40
-5.29
-9.93
-14.15
-18.18
-22.40
-27.16
-32.55
-38.32
-43.94
-48.83
-52.58
-55.08
-56.55
-57.43
-58.23
-59.39
-61.10
-63.24
-65.25
-66.19
-64.96
-60.67
-52.92
-42.07
-29.12
-15.42
-2.24
9.51
19.37
27.20
32.99
36.74
38.43
38.20
36.42
33.69
30.68
27.96
25.84
24.32
23.13
21.97
20.60
18.99
17.26
15.58
13.97
12.25
10.11
7.23
3.47
-0.97
-5.66
-10.09
-13.88
-16.96
-19.57
-22.18
-25.29
-29.30
-34.36
-40.23
-46.26
-51.28
-53.89
-52.84
-47.47
-38.11
-26.05
-13.10
-0.99
9.19
17.16
23.30
28.11
31.91
34.66
36.15
36.26
35.19
33.37
31.32
29.38
27.66
26.03
24.34
22.56
20.83
19.42
18.52
18.02
17.52
16.36
13.95
10.06
4.96
-0.62
-5.79
-9.86
-12.65
-14.49
-16.14
-18.43
-22.00
-27.06
-33.25
-39.62
-44.81
-47.35
-46.11
-40.66
-31.45
-19.66
-6.78
5.87
17.40
27.45
35.94
42.81
47.88
50.93
51.80
50.59
47.73
43.87
39.72
35.84
32.52
29.79
27.45
25.27
23.12
21.04
19.13
17.46
15.89
14.07
11.55
7.97
3.26
-2.26
-7.99
-13.23
-17.44
-20.46
-22.56
-24.39
-26.76
-30.40
-35.64
-42.21
-49.17
-54.98
-57.94
-56.71
-50.68
-40.26
-26.74
-11.85
2.76
15.93
27.19
36.55
44.19
50.19
54.43
56.73
57.05
55.71
53.40
50.99
49.25
48.59
48.89
49.56
49.88
49.20
47.23
44.02
39.89
35.14
29.93
24.13
17.49
9.87
1.39
-7.43
-15.87
-23.19
-28.89
-32.93
-35.70
-37.85
-40.10
-43.05
-47.05
-52.13
-57.93
-63.65
-68.03
-69.57
-66.92
-59.32
-47.05
-31.33
-14.09
2.69
17.51
29.64
39.05
46.08
51.05
54.00
54.80
53.31
49.71
44.58
38.79
33.26
28.67
25.30
23.05
21.64
20.71
20.01
19.30
18.29
16.59
13.84
9.85
4.70
-1.21
-7.38
-13.38
-19.05
-24.47
-29.85
-35.37
-41.02
-46.57
-51.67
-56.00
-59.40
-61.99
-64.13
-66.34
-69.10
-72.58
-76.47
-79.86
-81.37
-79.54
-73.28
-62.31
-47.35
-29.91
-11.86
5.12
19.99
32.38
42.43
50.46
56.57
60.66
62.56
62.24
60.04
56.61
52.75
49.08
45.92
43.28
40.98
38.91
37.07
35.54
34.31
33.12
31.51
28.95
25.05
19.87
13.85
7.69
2.06
-2.76
-6.96
-11.12
-15.91
-21.79
-28.71
-36.12
-43.29
-49.51
-54.45
-58.22
-61.24
-64.06
-67.13
-70.59
-74.17
-77.14
-78.43
-76.82
-71.29
-61.40
-47.48
-30.62
-12.38
5.60
22.08
36.32
48.05
57.22
63.81
67.73
68.96
67.72
64.58
60.37
55.99
52.14
49.13
46.85
44.94
42.98
40.71
38.09
35.18
32.05
28.62
24.67
19.97
14.39
8.09
1.52
-4.73
-10.09
-14.33
-17.63
-20.47
-23.41
-26.81
-30.68
-34.71
-38.45
-41.61
-44.16
-46.40
-48.87
-52.16
-56.70
-62.64
-69.63
-76.80
-82.76
-85.91
-84.78
-78.61
-67.52
-52.62
-35.59
-18.23
-1.96
12.36
24.37
34.03
41.39
46.48
49.46
50.61
50.39
49.38
48.11
46.93
45.95
45.14
44.47
43.98
43.80
44.01
44.46
44.72
44.18
42.29
38.85
34.17
28.94
23.98
19.87
16.82
14.61
12.81
10.95
8.72
6.05
3.05
-0.07
-3.07
-5.81
-8.32
-10.81
-13.68
-17.44
-22.51
-28.99
-36.44
-43.76
-49.29
-51.27
-48.39
-40.36
-28.01
-13.11
2.31
16.52
28.53
38.07
45.28
50.38
53.51
54.77
54.42
52.92
50.87
48.82
47.15
45.91
45.00
44.20
43.30
42.16
40.69
38.86
36.68
34.17
31.32
28.06
24.29
19.96
15.17
10.23
5.51
1.29
-2.39
-5.77
-9.25
-13.13
-17.49
-22.13
-26.66
-30.73
-34.26
-37.43
-40.74
-44.78
-50.10
-56.90
-64.87
-73.08
-80.03
-84.02
-83.58
-78.04
-67.76
-54.13
-39.09
-24.57
-11.91
-1.71
6.09
11.79
15.69
17.88
18.43
17.58
15.90
14.16
13.01
12.82
13.44
14.47
15.44
16.16
16.80
17.68
19.04
20.78
22.41
23.21
22.55
20.17
16.32
11.63
6.83
2.47
-1.36
-5.02
-9.10
-14.17
-20.47
-27.84
-35.79
-43.68
-50.98
-57.35
-62.77
-67.50
-72.08
-77.16
-83.33
-90.76
-99.00
-106.80
-112.36
-113.79
-109.76
-99.90
-84.97
-66.56
-46.57
-26.75
-8.36
7.89
21.71
32.97
41.55
47.36
50.45
51.13
50.12
48.38
46.95
46.50
47.16
48.45
49.51
49.53
48.16
45.66
42.90
40.94
40.68
42.46
45.94
50.13
53.86
56.14
56.59
55.47
53.49
51.35
49.30
47.03
43.79
38.82
31.62
22.14
10.73
-1.98
-15.12
-27.56
-37.94
-44.80
-47.02
-44.23
-37.05
-27.02
-16.12
-6.18
1.62
6.90
9.96
11.32
11.47
10.69
9.13
7.03
4.80
3.07
2.38
2.99
4.69
6.91
8.92
10.14
10.35
9.65
8.32
6.60
4.59
2.20
-0.75
-4.43
-8.89
-14.02
-19.54
-25.02
-30.02
-34.23
-37.59
-40.34
-42.95
-45.94
-49.81
-54.86
-61.21
-68.68
-76.67
-84.04
-89.18
-90.35
-86.26
-76.61
-62.27
-45.07
-27.14
-10.22
4.81
17.89
29.45
39.91
49.31
57.40
63.73
68.09
70.64
71.99
72.87
73.92
75.38
77.07
78.50
79.12
78.57
76.68
73.52
69.14
63.57
56.70
48.43
38.84
28.23
17.15
6.30
-3.72
-12.52
-20.10
-26.75
-32.99
-39.40
-46.54
-54.91
-64.78
-76.13
-88.37
-100.28
-110.08
-115.92
-116.36
-110.95
-100.36
-86.16
-70.30
-54.51
-39.97
-27.23
-16.47
-7.85
-1.59
2.02
2.96
1.72
-0.68
-2.84
-3.49
-1.95
1.66
6.51
11.45
15.52
18.30
19.95
20.92
21.54
21.79
21.25
19.38
15.83
10.78
4.88
-0.98
-6.00
-9.80
-12.54
-14.79
-17.32
-20.83
-25.72
-31.99
-39.20
-46.38
-52.16
-54.92
-53.21
-46.13
-33.77
-17.25
1.53
20.44
37.76
52.47
64.34
73.55
80.34
84.80
86.86
86.56
84.19
80.38
75.93
71.50
67.47
63.87
60.55
57.36
54.21
51.16
48.25
45.37
42.23
38.42
33.60
27.65
20.83
13.68
6.94
1.15
-3.47
-7.20
-10.74
-15.05
-21.00
-29.06
-38.97
-49.58
-58.90
-64.65
-64.87
-58.65
-46.47
-30.11
-12.05
5.38
20.60
33.08
43.06
51.03
57.27
61.63
63.75
63.40
60.79
56.61
51.79
47.19
43.23
39.90
36.95
34.17
31.58
29.36
27.64
26.23
24.56
21.86
17.53
11.39
3.88
-4.16
-11.81
-18.45
-23.96
-28.75
-33.55
-39.06
-45.68
-53.15
-60.45
-65.97
-67.89
-64.75
-56.00
-42.26
-25.23
-7.09
10.07
24.79
36.47
45.14
51.13
54.76
56.20
55.58
53.15
49.30
44.61
39.56
34.48
29.44
24.40
19.38
14.53
10.14
6.49
3.61
1.17
-1.41
-4.70
-9.07
-14.37
-20.07
-25.42
-29.78
-32.89
-35.00
-36.78
-39.09
-42.66
-47.86
-54.40
-61.35
-67.15
-69.99
-68.25
-60.96
-48.25
-31.29
-12.11
7.08
24.44
38.93
50.33
58.96
65.25
69.48
71.70
71.98
70.53
67.84
64.58
61.29
58.32
55.71
53.40
51.43
50.06
49.56
49.97
50.85
51.42
50.75
48.20
43.84
38.44
33.29
29.73
28.47
29.31
31.28
33.03
33.41
31.97
29.03
25.70
23.63
24.32
29.11
38.92
53.99
73.61
96.38
120.18
143.23
164.88
185.20
205.39
226.87
249.91
272.51
290.76
299.22
293.48
272.12
235.56
187.04
131.60
74.45
19.38
-30.97
-76.90
-119.56
-159.99
-201.42
-246.71
-297.50
-353.74
-413.66
-472.68
-526.84
-571.82
-604.15
-626.24
-643.30
-660.71
-681.37
-704.44
-724.29
-736.64
-738.69
-710.25
-643.07
-542.71
-426.21
-312.76
-225.32
-160.82
-112.12
-73.37
-40.47
-11.93
12.54
34.79
58.15
85.66
120.03
159.26
199.94
239.53
274.92
305.26
332.38
359.14
386.86
414.78
437.20
447.60
442.17
420.19
385.57
346.00
309.94
283.77
270.75
268.82
272.70
275.80
271.30
254.92
227.06
193.39
163.29
146.83
149.74
171.40
205.02
240.02
265.99
276.13
268.31
244.05
206.74
159.61
105.08
44.71
-20.51
-89.63
-160.57
-229.47
-290.29
-335.79
-359.65
-358.55
-333.65
-290.43
-237.09
-182.45
-134.54
-100.04
-84.09
-89.51
-115.49
-156.36
-201.89
-239.56
-258.51
-253.07
-224.25
-178.39
-123.91
-67.63
-12.70
41.13
95.36
150.22
203.27
249.95
285.61
307.76
317.05
316.50
309.54
297.92
280.75
255.37
219.13
170.97
112.11
45.76
-23.55
-90.28
-148.08
-190.27
-211.08
-207.19
-178.87
-129.78
-65.81
6.37
80.53
151.05
212.74
260.81
291.53
303.19
296.64
274.78
241.06
198.57
149.81
97.41
44.90
-3.21
-42.08
-67.57
-76.89
-69.20
-44.70
-4.33
49.78
113.37
179.41
238.91
283.25
307.05
308.63
291.13
260.76
224.30
186.70
150.06
114.27
78.64
43.12
6.51
-32.11
-73.36
-117.26
-163.24
-210.38
-257.53
-303.11
-345.48
-385.84
-425.85
-466.60
-507.48
-546.40
-580.72
-608.21
-627.30
-621.09
-578.15
-496.70
-387.75
-269.60
-158.69
-64.22
11.48
70.25
115.47
147.92
167.96
176.44
176.03
170.75
164.61
160.55
160.01
163.15
167.13
168.85
166.04
158.84
149.33
140.15
133.37
129.77
128.75
127.33
122.36
110.95
92.68
69.34
43.87
19.02
-3.41
-22.98
-41.15
-58.04
-75.48
-94.25
-114.14
-134.17
-152.50
-166.10
-170.98
-163.55
-142.38
-109.80
-71.38
-34.50
-5.64
11.97
19.19
19.88
18.69
18.77
20.39
21.85
20.65
15.02
4.96
-7.65
-20.13
-29.45
-33.67
-32.75
-27.96
-21.16
-13.96
-7.08
-0.52
5.84
11.66
16.01
17.84
16.97
14.44
12.06
11.52
13.43
16.82
19.55
19.25
14.61
6.35
-2.85
-9.36
-10.09
-3.87
8.03
22.56
36.07
45.90
51.24
52.92
52.40
50.67
47.61
42.32
33.97
22.38
8.22
-7.38
-23.36
-39.12
-54.37
-68.93
-83.18
-96.99
-110.69
-125.36
-142.46
-162.71
-185.23
-207.13
-224.22
-232.47
-229.33
-214.70
-190.82
-161.37
-130.42
-101.66
-77.87
-60.84
-51.05
-47.48
-47.57
-47.56
-43.26
-31.43
-10.93
16.66
47.44
76.53
99.67
114.46
120.81
120.57
116.70
112.19
109.17
108.25
108.24
106.50
99.96
86.72
67.51
46.10
28.29
19.65
23.02
37.13
57.01
75.92
87.98
89.97
81.80
65.64
44.54
21.38
-1.51
-22.11
-38.65
-49.78
-55.08
-55.53
-53.17
-50.28
-48.19
-46.49
-43.24
-36.04
-23.38
-5.68
14.76
34.66
51.13
62.64
69.39
72.73
74.44
75.93
77.79
79.76
80.96
80.26
76.72
69.99
60.60
50.10
40.83
35.37
35.67
42.30
53.88
67.19
77.92
81.87
76.30
60.76
37.21
9.31
-18.72
-43.28
-62.06
-74.30
-80.44
-81.49
-78.44
-71.69
-60.95
-45.52
-24.95
0.37
28.84
57.77
84.12
105.17
119.21
125.66
125.00
118.60
108.51
97.25
87.42
81.01
78.64
79.26
80.30
78.64
71.78
59.07
42.09
24.33
9.93
2.13
2.09
8.35
17.49
25.47
29.16
27.28
20.37
10.01
-2.26
-15.66
-30.32
-46.85
-65.72
-86.78
-108.94
-130.40
-148.98
-162.75
-170.62
-172.67
-170.13
-164.89
-158.84
-153.29
-148.58
-144.08
-138.43
-129.96
-117.16
-99.12
-76.00
-49.23
-21.28
4.92
26.83
42.99
53.40
59.22
62.26
64.24
66.35
69.05
72.19
75.27
77.67
78.90
78.69
77.02
74.07
70.07
65.29
60.06
54.91
50.74
48.72
50.05
55.37
64.25
75.03
85.18
92.09
93.88
89.86
80.59
67.44
52.34
37.51
25.28
17.73
15.85
18.79
23.41
24.97
18.71
1.80
-25.10
-57.78
-89.73
-114.32
-126.85
-125.72
-112.43
-90.64
-65.08
-40.42
-20.70
-8.93
-6.59
-13.34
-26.90
-43.33
-58.09
-67.22
-68.51
-61.93
-49.31
-33.39
-16.73
-1.01
13.17
25.91
37.57
48.33
58.14
66.70
73.60
78.43
80.93
81.22
79.93
78.11
76.89
76.99
78.30
79.83
80.06
77.53
71.36
61.52
48.62
33.57
17.16
-0.04
-17.55
-34.69
-50.26
-62.43
-68.84
-67.15
-55.68
-34.24
-4.40
30.71
67.18
101.51
131.53
156.77
178.07
196.64
213.28
227.96
240.17
249.46
255.94
260.20
262.83
263.89
262.66
257.90
248.47
233.84
214.23
190.52
163.82
135.15
105.06
73.25
38.57
-0.48
-44.61
-92.24
-138.66
-176.72
-199.01
-200.59
-180.96
-144.22
-97.06
-46.10
3.76
49.46
88.91
120.63
144.34
161.74
176.44
192.26
210.49
228.26
239.11
236.17
215.77
179.46
133.15
83.92
36.64
-7.74
-51.52
-98.14
-150.38
-209.34
-274.20
-342.18
-407.98
-464.02
-501.81
-514.33
-498.67
-457.83
-400.10
-336.46
-276.97
-227.99
-191.33
-165.21
-146.39
-131.89
-119.80
-108.79
-97.37
-83.49
-64.75
-39.34
-6.48
33.41
79.40
130.64
186.40
245.31
304.42
358.75
401.92
427.96
433.33
418.23
386.56
344.53
298.64
254.07
213.90
178.96
148.41
120.30
92.01
60.80
24.45
-17.77
-64.23
-110.68
-151.30
-180.53
-195.38
-196.96
-190.49
-183.49
-183.03
-192.68
-210.90
-231.31
-244.84
-242.70
-219.20
-173.29
-108.95
-34.21
40.95
107.04
157.32
189.11
203.56
204.10
194.45
177.14
153.04
121.95
83.83
39.47
-9.70
-62.33
-117.92
-176.41
-237.05
-297.33
-353.32
-401.67
-441.83
-476.69
-510.99
-547.71
-585.14
-616.64
-633.64
-630.07
-605.88
-566.92
