1660929140.00
64.000000
-0.00
-0.00
-0.00
-0.00
-0.00
-0.00
-0.00
-0.00
-0.00
-0.00
0.00
0.01
0.01
-0.00
-0.03
-0.05
-0.05
0.00
0.13
0.36
0.66
1.01
1.37
1.72
2.06
2.40
2.79
3.25
3.81
4.44
5.10
5.73
6.33
6.89
7.50
8.23
9.13
10.29
11.59
12.90
14.09
15.11
16.02
17.02
18.36
20.18
22.71
25.72
28.91
31.98
34.76
37.36
40.16
43.63
48.11
53.95
60.74
67.90
74.81
81.17
87.13
93.31
100.54
109.37
120.26
132.55
145.25
157.38
168.42
178.64
188.96
200.99
213.50
228.59
246.51
266.96
288.48
308.21
322.21
326.37
317.79
295.76
262.39
220.95
175.08
127.58
80.00
33.06
-12.70
-56.45
-97.24
-134.25
-167.85
-199.21
-230.08
-262.09
-296.01
-331.19
-365.24
-394.50
-414.78
-422.95
-418.03
-401.66
-377.41
-349.42
-320.96
-293.73
-267.99
-243.31
-219.61
-197.33
-177.19
-159.58
-144.18
-130.07
-116.18
-101.91
-87.32
-73.13
-60.27
-49.39
-40.59
-33.42
-27.11
-20.95
-14.54
-7.91
-1.43
4.39
9.12
12.61
15.02
16.75
18.28
19.96
21.89
23.91
25.69
26.94
27.56
27.64
27.42
27.12
26.87
26.66
26.40
26.00
25.45
24.81
24.17
23.59
23.09
22.62
22.08
21.39
20.50
19.45
18.38
17.41
16.65
16.12
15.79
15.53
15.24
14.88
14.45
13.98
13.52
13.12
12.76
12.45
12.15
11.82
11.48
11.14
10.86
10.69
10.63
10.61
10.51
10.24
9.77
9.17
8.57
8.07
7.73
7.53
7.39
7.27
7.14
7.00
6.87
6.77
6.69
6.57
6.39
6.10
5.71
5.24
4.71
4.16
3.65
3.21
2.87
2.63
2.41
2.12
1.69
1.07
0.30
-0.55
-1.38
-2.11
-2.73
-3.30
-3.88
-4.53
-5.27
-6.05
-6.81
-7.47
-8.01
-8.42
-8.72
-8.93
-9.03
-9.03
-8.93
-8.77
-8.61
-8.49
-8.42
-8.37
-8.27
-8.07
-7.76
-7.38
-6.97
-6.51
-5.96
-5.28
-4.45
-3.56
-2.71
-2.04
-1.56
-1.25
-0.99
-0.69
-0.33
0.07
0.46
0.78
1.05
1.30
1.56
1.84
2.11
2.34
2.53
2.70
2.88
3.06
3.22
3.34
3.39
3.40
3.43
3.51
3.67
3.89
4.12
4.32
4.45
4.52
4.51
4.42
4.25
4.03
3.84
3.78
3.91
4.21
4.59
4.92
5.08
5.05
4.86
4.59
4.31
4.05
3.81
3.53
3.18
2.77
2.36
2.05
1.90
1.95
2.15
2.42
2.65
2.75
2.68
2.46
2.11
1.72
1.36
1.10
0.93
0.80
0.63
0.33
-0.10
-0.58
-0.93
-0.99
-0.70
-0.14
0.53
1.14
1.57
1.82
1.99
2.15
2.34
2.55
2.75
2.94
3.19
3.56
4.11
4.77
5.35
5.63
5.43
4.79
3.88
3.06
2.65
2.81
3.45
4.24
4.77
4.68
3.89
2.55
1.04
-0.27
-1.11
-1.41
-1.29
-0.90
-0.41
0.06
0.29
-0.01
-1.12
-2.98
-5.02
-6.20
-5.44
-2.32
2.55
7.64
11.12
11.84
9.85
6.33
2.91
0.79
0.22
0.56
0.86
0.51
-0.40
-1.33
-1.65
-1.09
0.10
1.37
2.19
2.34
2.03
1.71
1.85
2.65
3.95
5.29
6.15
6.21
5.48
4.29
3.06
2.11
1.54
1.20
0.83
0.24
-0.55
-1.37
-1.97
-2.15
-1.90
-1.36
-0.78
-0.40
-0.32
-0.51
-0.77
-0.90
-0.73
-0.25
0.42
1.05
1.45
1.51
1.25
0.81
0.31
-0.14
-0.51
-0.83
-1.06
-1.16
-1.02
-0.59
0.08
0.81
1.38
1.60
1.41
0.88
0.20
-0.40
-0.75
-0.76
-0.43
0.14
0.82
1.43
1.88
2.09
2.07
1.88
1.57
1.19
0.77
0.36
0.03
-0.13
-0.08
0.15
0.45
0.66
0.65
0.39
-0.02
-0.45
-0.75
-0.82
-0.67
-0.36
0.01
0.36
0.61
0.75
0.75
0.62
0.39
0.10
-0.16
-0.34
-0.37
-0.28
-0.13
0.01
0.05
-0.02
-0.11
-0.13
0.00
0.31
0.71
1.06
1.24
1.21
0.99
0.68
0.35
0.06
-0.18
-0.36
-0.48
-0.51
-0.41
-0.21
0.07
0.35
0.53
0.58
0.51
0.37
0.26
0.21
0.26
0.38
0.53
0.66
0.75
0.78
0.76
0.72
0.70
0.70
0.71
0.66
0.48
0.13
-0.32
-0.73
-0.93
-0.85
-0.54
-0.18
0.05
0.07
-0.04
-0.12
-0.04
0.23
0.59
0.86
0.96
0.88
0.72
0.62
0.65
0.79
0.94
0.97
0.85
0.61
0.35
0.18
0.15
0.25
0.40
0.52
0.54
0.47
0.33
0.17
0.03
-0.05
-0.08
-0.08
-0.06
-0.02
0.03
0.11
0.20
0.29
0.34
0.34
0.32
0.34
0.44
0.59
0.72
0.72
0.55
0.23
-0.13
-0.39
-0.47
-0.40
-0.29
-0.23
-0.26
-0.36
-0.43
-0.46
-0.43
-0.38
-0.30
-0.17
0.05
0.35
0.67
0.93
1.07
1.10
1.07
1.06
1.06
1.04
0.94
0.72
0.45
0.20
0.05
0.02
0.02
-0.02
-0.15
-0.32
-0.39
-0.27
0.05
0.45
0.73
0.75
0.46
0.02
-0.36
-0.52
-0.40
-0.12
0.13
0.21
0.06
-0.26
-0.64
-0.94
-1.11
-1.14
-1.06
-0.94
-0.80
-0.67
-0.52
-0.34
-0.14
0.02
0.07
-0.08
-0.42
-0.89
-1.36
-1.72
-1.87
-1.84
-1.67
-1.49
-1.40
-1.44
-1.60
-1.81
-2.01
-2.15
-2.27
-2.42
-2.62
-2.83
-2.97
-3.00
-2.93
-2.90
-3.05
-3.47
-4.12
-4.80
-5.29
-5.42
-5.17
-4.67
-4.15
-3.85
-3.93
-4.45
-5.35
-6.49
-7.69
-8.78
-9.64
-10.28
-10.78
-11.33
-12.05
-13.01
-14.12
-15.21
-16.13
-16.82
-17.35
-17.88
-18.54
-19.41
-20.46
-21.73
-23.36
-25.48
-28.03
-30.51
-32.02
-31.57
-28.63
-23.53
-17.48
-12.19
-9.17
-9.24
-12.45
-18.29
-26.14
-35.39
-45.34
-54.96
-62.89
-67.83
-69.13
-67.32
-63.90
-60.81
-59.57
-60.71
-63.79
-68.00
-72.72
-77.97
-84.27
-92.23
-102.22
-114.22
-127.99
-143.14
-158.92
-173.74
-185.05
-189.63
-184.53
-168.15
-140.88
-104.70
-62.17
-15.33
34.70
87.01
139.81
189.78
232.58
264.41
283.78
292.34
294.21
294.14
295.45
299.00
303.57
307.10
308.26
307.13
304.90
302.85
301.61
300.95
300.23
298.92
296.71
293.19
287.38
277.58
261.78
238.54
207.69
170.40
128.47
83.44
35.95
-13.91
-65.52
-116.71
-163.59
-201.49
-226.76
-238.25
-237.80
-229.35
-217.25
-204.64
-192.77
-181.42
-169.99
-158.49
-147.73
-138.82
-132.36
-127.93
-124.21
-119.67
-113.37
-105.31
-96.48
-88.27
-81.81
-77.49
-74.81
-72.72
-70.14
-66.50
-62.02
-57.65
-54.60
-53.83
-55.61
-59.41
-64.12
-68.54
-71.86
-74.02
-75.69
-77.99
-81.98
-88.20
-96.46
-105.92
-115.38
-123.77
-130.52
-135.74
-140.26
-145.45
-152.72
-162.96
-175.94
-189.81
-201.23
-206.10
-200.63
-182.53
-151.90
-111.39
-65.63
-19.87
21.48
56.14
84.18
107.43
128.10
147.53
165.57
180.88
191.94
198.05
199.69
198.24
195.19
191.41
187.09
182.09
176.47
170.72
165.60
161.69
159.19
157.81
156.90
155.90
154.51
152.83
151.22
150.17
150.06
151.11
153.28
156.45
160.52
165.42
171.15
177.63
184.59
191.51
197.63
202.10
204.01
202.59
197.14
186.99
171.56
150.38
123.16
89.87
50.78
6.74
-40.50
-88.05
-132.04
-168.44
-194.13
-207.97
-211.10
-206.35
-197.12
-186.15
-174.96
-163.97
-153.24
-142.99
-133.77
-126.10
-120.07
-115.13
-110.37
-104.99
-98.67
-91.66
-84.51
-77.82
-71.84
-66.53
-61.57
-56.66
-51.67
-46.71
-42.06
-38.01
-34.73
-32.14
-30.00
-27.99
-25.82
-23.37
-20.69
-18.03
-15.65
-13.80
-12.52
-11.67
-10.98
-10.19
-9.17
-7.99
-6.86
-5.97
-5.40
-5.04
-4.72
-4.31
-3.78
-3.23
-2.77
-2.47
-2.27
-2.06
-1.78
-1.42
-1.08
-0.84
-0.70
-0.57
-0.33
0.11
0.73
1.40
1.96
2.27
2.30
2.09
1.76
1.45
1.25
1.21
1.32
1.57
1.91
2.27
2.58
2.73
2.66
2.35
1.86
1.28
0.68
0.13
-0.39
-0.90
-1.42
-1.92
-2.35
-2.62
-2.65
-2.42
-1.99
-1.50
-1.11
-0.95
-1.07
-1.40
-1.78
-2.06
-2.16
-2.10
-1.99
-1.95
-2.02
-2.20
-2.46
-2.77
-3.10
-3.40
-3.54
-3.36
-2.72
-1.65
-0.34
0.87
1.64
1.74
1.15
0.04
-1.30
-2.55
-3.42
-3.69
-3.28
-2.21
-0.68
1.03
2.61
3.84
4.59
4.85
4.71
4.32
3.81
3.31
2.90
2.63
2.52
2.54
2.61
2.68
2.70
2.66
2.57
2.46
2.37
2.32
2.29
2.28
2.29
2.33
2.39
2.47
2.54
2.57
2.53
2.39
2.14
1.73
1.14
0.35
-0.56
-1.49
-2.30
-2.88
-3.22
-3.37
-3.38
-3.29
-3.06
-2.65
-2.09
-1.50
-1.06
-0.94
-1.21
-1.81
-2.56
-3.24
-3.67
-3.75
-3.51
-3.05
-2.55
-2.13
-1.84
-1.65
-1.50
-1.33
-1.18
-1.10
-1.08
-1.02
-0.68
0.08
1.24
2.52
3.43
3.55
2.71
1.08
-0.87
-2.62
-3.76
-4.16
-3.89
-3.14
-2.11
-0.93
0.27
1.42
2.39
3.05
3.31
3.17
2.76
2.29
1.95
1.87
2.07
2.45
2.85
3.15
3.29
3.26
3.12
2.95
2.81
2.75
2.77
2.87
3.00
3.11
3.16
3.15
3.05
2.84
2.46
1.83
0.95
-0.13
-1.24
-2.17
-2.74
-2.90
-2.70
-2.31
-1.95
-1.74
-1.71
-1.80
-1.91
-2.01
-2.13
-2.36
-2.78
-3.38
-4.03
-4.60
-4.96
-5.09
-5.07
-4.97
-4.80
-4.48
-3.91
-3.11
-2.22
-1.52
-1.23
-1.44
-1.97
-2.47
-2.56
-2.00
-0.75
0.99
2.90
4.65
5.95
6.58
6.40
5.45
3.88
2.07
0.42
-0.70
-1.15
-0.96
-0.36
0.40
1.16
1.80
2.27
2.51
2.48
2.19
1.76
1.41
1.38
1.79
2.56
3.46
4.23
4.65
4.64
4.28
3.71
3.11
2.62
2.33
2.27
2.41
2.71
3.08
3.44
3.69
3.74
3.52
2.95
1.99
0.68
-0.84
-2.38
-3.70
-4.65
-5.17
-5.34
-5.24
-4.97
-4.55
-3.98
-3.31
-2.64
-2.13
-1.90
-2.03
-2.47
-3.10
-3.82
-4.55
-5.22
-5.75
-6.01
-5.90
-5.39
-4.58
-3.67
-2.86
-2.31
-2.06
-2.02
-2.06
-2.02
-1.74
-1.09
-0.01
1.44
3.03
4.40
5.20
5.24
4.58
3.51
2.37
1.47
0.91
0.66
0.63
0.71
0.87
1.05
1.19
1.19
0.97
0.52
-0.07
-0.59
-0.85
-0.75
-0.30
0.36
1.02
1.51
1.71
1.65
1.44
1.23
1.20
1.42
1.89
2.51
3.14
3.65
3.97
4.07
4.01
3.82
3.53
3.14
2.65
2.06
1.41
0.76
0.18
-0.29
-0.68
-1.00
-1.28
-1.47
-1.52
-1.41
-1.17
-0.89
-0.71
-0.76
-1.05
-1.55
-2.17
-2.80
-3.38
-3.86
-4.22
-4.47
-4.64
-4.75
-4.84
-4.92
-4.98
-5.02
-5.01
-4.92
-4.69
-4.19
-3.28
-1.91
-0.17
1.63
3.07
3.77
3.57
2.60
1.22
-0.11
-1.05
-1.45
-1.32
-0.77
0.09
1.16
2.34
3.46
4.31
4.67
4.47
3.77
2.80
1.79
0.91
0.25
-0.24
-0.61
-0.89
-1.09
-1.20
-1.28
-1.45
-1.83
-2.52
-3.54
-4.80
-6.22
-7.71
-9.29
-11.04
-13.07
-15.38
-17.84
-20.10
-21.76
-22.50
-22.30
-21.40
-20.14
-18.70
-16.97
-14.52
-10.92
-6.05
-0.26
5.72
11.11
15.53
19.12
22.33
25.62
29.12
32.70
36.20
39.66
43.27
46.98
50.07
51.20
48.91
42.37
32.01
19.44
6.71
-4.56
-13.77
-21.24
-27.53
-32.85
-36.97
-39.57
-40.80
-41.56
-43.17
-46.71
-52.45
-59.61
-66.84
-72.86
-77.08
-79.82
-82.14
-85.37
-90.52
-97.92
-106.95
-116.32
-124.51
-130.48
-134.25
-137.05
-140.95
-148.21
-160.42
-177.87
-199.20
-221.48
-240.67
-252.59
-253.94
-243.17
-220.97
-189.79
-152.94
-113.36
-72.63
-30.76
13.23
60.18
109.52
158.76
203.76
239.94
263.80
274.15
272.44
261.98
246.67
229.56
212.33
195.51
179.27
164.08
150.76
139.96
131.64
124.84
118.12
110.28
100.95
90.66
80.52
71.65
64.56
59.15
54.79
50.68
46.23
41.27
36.04
31.10
27.04
24.25
22.71
21.90
21.01
19.20
16.01
11.59
6.61
2.03
-1.38
-3.27
-3.81
-3.52
-2.93
-2.35
-1.81
-1.12
-0.10
1.33
3.07
4.87
6.48
7.71
8.50
8.90
9.11
9.37
9.93
10.97
12.52
14.38
16.11
17.01
16.48
14.19
10.37
5.82
1.67
-1.13
-2.14
-1.66
-0.51
0.28
-0.14
-2.25
-6.16
-11.70
-18.46
-25.82
-32.96
-39.00
-43.14
-44.92
-44.37
-41.84
-37.79
-32.53
-26.01
-17.99
-8.34
2.78
14.73
26.59
37.28
45.85
51.66
54.57
54.95
53.78
52.53
52.80
55.79
61.71
69.57
77.32
82.71
84.33
82.35
78.77
76.63
78.88
86.99
100.03
114.71
126.32
129.82
121.10
98.11
61.77
16.69
-29.38
-67.19
-88.90
-90.91
-75.28
-48.87
-20.24
4.02
21.56
34.13
44.98
55.72
64.33
65.93
55.34
30.09
-8.08
-53.74
-100.02
-140.95
-172.95
-195.22
-208.71
-215.09
-216.25
-214.39
-211.95
-211.27
-213.39
-217.06
-218.55
-212.65
-194.29
-160.13
-109.59
-45.19
27.29
99.16
159.89
199.49
211.43
195.41
157.99
110.62
65.66
32.31
14.14
9.50
13.69
21.53
28.70
31.57
26.32
8.47
-26.01
-78.53
-145.71
-218.87
-285.56
-333.34
-353.90
-345.60
-313.51
-266.67
-214.14
-161.73
-110.90
-59.96
-6.77
48.91
104.53
155.67
197.84
228.40
247.28
256.48
259.08
257.92
254.86
251.00
247.08
243.89
242.30
242.67
244.28
245.17
242.47
233.28
215.59
188.84
153.87
112.51
66.73
17.90
-33.86
-89.77
-151.46
-219.31
-290.68
-359.25
-416.05
-452.29
-462.59
-447.03
-410.96
-362.50
-309.12
-255.11
-201.11
-145.82
-88.66
-31.59
20.95
63.84
93.67
110.28
116.68
117.43
116.63
116.46
116.79
116.26
113.66
108.90
103.18
98.16
94.99
93.63
92.89
91.16
87.27
81.04
73.39
65.81
59.68
55.62
53.29
51.65
49.50
46.10
41.47
36.29
31.50
27.84
25.49
24.09
22.95
21.43
19.24
16.50
13.66
11.21
9.44
8.37
7.73
7.20
6.54
5.68
4.74
3.89
3.27
2.96
2.96
3.22
3.69
4.29
4.94
5.55
6.00
6.26
6.35
6.38
6.46
6.71
7.18
7.87
8.71
9.64
10.58
11.51
12.42
13.33
14.26
15.21
16.14
17.01
17.78
18.47
19.15
19.94
20.94
22.23
23.80
25.56
27.40
29.15
30.69
31.91
32.73
33.16
33.28
33.23
33.19
33.23
33.37
33.47
33.31
32.74
31.76
30.58
29.62
29.35
30.20
32.50
36.44
42.10
49.41
58.08
67.59
77.20
86.28
94.53
102.24
110.23
119.46
130.48
143.11
156.51
169.59
181.37
191.05
197.87
200.71
197.98
187.99
169.54
142.36
107.13
65.33
18.82
-30.04
-78.17
-121.67
-156.29
-178.39
-186.26
-181.15
-167.34
-151.00
-138.20
-132.87
-135.56
-143.58
-152.46
-158.01
-157.99
-152.58
-143.70
-133.55
-123.47
-113.53
-103.13
-92.02
-80.95
-71.42
-64.88
-61.87
-61.60
-62.34
-62.30
-60.37
-56.64
-52.11
-48.07
-45.35
-43.95
-43.08
-41.72
-39.16
-35.38
-30.98
-26.80
-23.41
-20.96
-19.15
-17.53
-15.75
-13.68
-11.41
-9.17
-7.17
-5.64
-4.77
-4.67
-5.30
-6.46
-7.77
-8.77
-9.19
-8.92
-8.14
-7.16
-6.30
-5.77
-5.57
-5.56
-5.56
-5.45
-5.22
-4.94
-4.72
-4.60
-4.54
-4.43
-4.18
-3.74
-3.20
-2.69
-2.35
-2.22
-2.23
-2.24
-2.13
-1.87
-1.48
-1.06
-0.64
-0.19
0.38
1.14
2.05
2.94
3.59
3.77
3.41
2.61
1.58
0.61
-0.06
-0.27
-0.03
0.55
1.28
1.94
2.36
2.42
2.11
1.45
0.53
-0.55
-1.65
-2.62
-3.32
-3.64
-3.58
-3.23
-2.75
-2.30
-2.00
-1.84
-1.80
-1.82
-1.90
-2.04
-2.24
-2.45
-2.57
-2.45
-1.99
-1.18
-0.06
1.22
2.47
3.49
4.15
4.36
4.14
3.59
2.83
2.00
1.24
0.67
0.40
0.52
0.98
1.63
2.21
2.42
2.07
1.17
-0.04
-1.20
-2.02
-2.39
-2.40
-2.29
-2.26
-2.42
-2.73
-3.01
-3.11
-2.93
-2.45
-1.78
-1.06
-0.43
0.05
0.35
0.52
0.68
0.93
1.35
2.02
2.95
4.15
5.54
6.97
8.26
9.23
9.77
9.90
9.75
9.51
9.29
9.14
9.02
8.86
8.57
8.10
7.37
6.32
4.92
3.16
1.14
-0.98
-2.98
-4.64
-5.78
-6.35
-6.43
-6.20
-5.89
-5.67
-5.63
-5.73
-5.83
-5.80
-5.54
-5.05
-4.39
-3.70
-3.06
-2.58
-2.30
-2.23
-2.33
-2.58
-2.95
-3.46
-4.10
-4.87
-5.64
-6.23
-6.36
-5.80
-4.47
-2.51
-0.29
1.72
3.09
3.57
3.18
2.08
0.58
-1.02
-2.47
-3.61
-4.30
-4.46
-4.12
-3.34
-2.30
-1.21
-0.26
0.43
0.84
1.03
