1659458367.00
64.000000
-0.00
-0.00
-0.00
-0.00
-0.00
-0.00
-0.00
-0.00
-0.00
-0.00
0.00
0.01
0.01
-0.00
-0.03
-0.05
-0.05
0.00
0.13
0.36
0.66
1.01
1.37
1.72
2.06
2.40
2.79
3.24
3.80
4.42
5.06
5.66
6.20
6.68
7.15
7.68
8.31
9.14
10.09
11.04
11.88
12.56
13.14
13.76
14.65
15.96
17.91
20.32
22.90
25.38
27.58
29.57
31.68
34.32
37.81
42.54
48.15
54.10
59.83
64.97
69.58
74.14
79.34
85.71
93.76
103.00
112.62
121.73
129.77
136.75
143.30
150.75
157.77
166.64
177.95
191.79
206.97
220.57
228.25
225.36
208.53
176.87
132.76
80.05
23.07
-34.94
-92.44
-149.16
-205.23
-260.37
-313.74
-363.87
-409.83
-450.91
-486.50
-515.74
-537.23
-549.22
-549.96
-538.37
-514.21
-478.67
-433.88
-382.45
-327.02
-269.84
-212.63
-156.66
-102.95
-52.37
-5.90
35.58
71.43
101.35
125.50
144.38
158.69
169.15
176.37
180.75
182.57
182.07
179.51
175.23
169.65
163.18
156.15
148.81
141.30
133.69
126.02
118.33
110.69
103.16
95.80
88.68
81.83
75.25
68.95
62.95
57.25
51.86
46.78
42.03
37.59
33.45
29.61
26.07
22.81
19.83
17.11
14.67
12.48
10.54
8.83
7.35
6.07
4.97
4.05
3.27
2.62
2.09
1.65
1.30
1.01
0.79
0.61
0.47
0.37
0.29
0.23
0.20
0.17
0.16
0.16
0.17
0.19
0.22
0.25
0.28
0.32
0.37
0.41
0.45
0.50
0.55
0.60
0.65
0.71
0.77
0.84
0.91
0.99
1.07
1.17
1.28
1.40
1.53
1.68
1.85
2.03
2.24
2.48
2.76
3.07
3.39
3.71
4.01
4.30
4.59
4.93
5.34
5.86
6.46
7.14
7.83
8.53
9.22
9.94
10.71
11.56
12.49
13.51
14.57
15.63
16.63
17.58
18.51
19.49
20.51
21.53
22.39
22.81
22.49
21.18
18.81
15.50
11.54
7.29
2.93
-1.46
-6.01
-10.91
-16.26
-21.87
-27.24
-31.77
-34.91
-36.51
-36.88
-36.69
-36.74
-37.56
-39.22
-41.26
-42.95
-43.75
-43.49
-42.52
-41.50
-41.11
-41.78
-43.79
-47.30
-52.28
-58.07
-62.96
-64.40
-59.65
-47.36
-28.62
-6.88
13.40
28.59
37.20
39.72
37.47
31.31
21.15
6.73
-10.77
-28.07
-40.50
-44.24
-38.60
-26.87
-14.85
-8.39
-10.64
-20.63
-34.22
-46.50
-54.43
-57.59
-57.46
-55.37
-52.09
-47.86
-43.32
-40.18
-40.60
-45.55
-53.38
-61.04
-63.29
-56.49
-41.32
-22.77
-7.13
1.86
5.61
9.91
21.50
43.88
74.28
104.54
125.21
130.71
122.24
106.82
93.15
86.58
86.62
87.62
82.65
67.73
43.86
15.98
-10.30
-31.66
-48.07
-61.43
-73.81
-85.86
-96.98
-106.07
-112.37
-115.63
-115.91
-113.46
-108.41
-100.81
-90.28
-76.12
-57.69
-35.16
-9.94
15.41
38.11
56.31
69.64
79.18
86.40
92.50
98.05
103.08
107.17
109.96
111.29
111.46
111.35
112.10
114.61
118.87
123.54
126.71
126.91
124.07
119.58
115.22
111.83
108.61
103.41
94.26
81.00
65.58
51.21
40.90
36.00
35.79
38.31
41.56
44.57
47.34
50.07
52.25
52.59
49.51
41.86
29.64
14.20
-2.07
-16.49
-26.99
-32.82
-34.67
-34.79
-36.00
-40.61
-49.42
-60.98
-72.01
-78.79
-78.70
-71.60
-60.04
-47.90
-38.52
-33.37
-31.85
-32.21
-33.25
-35.32
-39.98
-48.71
-61.36
-75.61
-87.90
-95.25
-96.87
-94.48
-91.13
-89.64
-91.18
-94.91
-98.70
-99.98
-96.65
-87.86
-74.39
-58.69
-44.32
-34.66
-31.35
-33.13
-36.25
-36.16
-29.83
-17.23
-1.19
14.26
26.12
33.74
38.58
42.56
46.63
50.46
53.33
55.52
58.58
64.46
74.08
86.20
97.57
104.42
104.49
98.08
87.61
76.11
65.67
56.79
48.68
40.03
29.82
17.69
4.04
-9.85
-21.98
-30.46
-34.47
-34.70
-32.98
-31.13
-29.96
-29.30
-28.70
-28.24
-28.72
-31.13
-35.78
-41.62
-46.60
-48.62
-46.73
-41.51
-34.78
-28.60
-24.29
-21.94
-20.51
-18.51
-14.72
-8.71
-0.95
7.65
16.53
26.03
37.10
50.41
65.18
79.10
89.35
94.31
94.36
91.39
87.29
82.70
77.00
69.18
59.22
48.63
39.80
34.63
33.48
34.88
36.21
35.07
30.40
22.86
14.44
7.53
3.89
3.73
6.06
9.30
12.06
13.91
15.17
16.38
17.64
18.46
18.05
15.89
12.06
7.32
2.77
-0.59
-2.08
-1.18
3.01
11.62
25.28
43.30
63.17
81.15
93.95
99.95
99.53
94.16
84.94
71.93
54.64
33.43
10.53
-10.52
-26.65
-37.17
-44.38
-51.99
-62.35
-74.77
-86.03
-92.79
-93.84
-90.72
-86.42
-83.28
-81.83
-80.85
-78.61
-74.15
-67.66
-59.95
-51.64
-42.88
-33.81
-25.27
-18.90
-16.25
-17.81
-22.81
-30.00
-38.69
-49.03
-61.12
-73.85
-84.38
-89.34
-86.72
-77.64
-66.19
-57.28
-53.88
-55.41
-58.46
-59.25
-56.33
-51.39
-47.75
-48.05
-52.56
-59.19
-64.90
-67.35
-65.88
-61.27
-55.05
-48.60
-42.58
-36.97
-31.21
-24.61
-16.73
-7.82
1.12
8.77
14.18
17.37
19.27
21.21
24.03
27.47
30.15
30.46
27.47
21.31
12.89
3.55
-5.51
-13.05
-17.65
-17.66
-11.92
-0.66
14.00
28.59
39.65
45.53
47.02
46.66
47.17
49.83
53.68
56.23
54.94
48.59
37.87
24.94
12.44
2.58
-3.67
-6.61
-7.34
-7.20
-7.27
-7.92
-8.86
-9.51
-9.51
-8.91
-7.88
-6.48
-4.48
-1.63
1.88
5.22
7.20
6.82
3.89
-0.70
-5.50
-9.50
-12.69
-16.08
-21.00
-28.01
-36.49
-44.65
-50.33
-51.86
-48.83
-42.54
-35.61
-30.73
-29.05
-29.54
-29.81
-27.82
-23.30
-17.49
-11.51
-5.05
3.58
15.85
30.98
45.59
55.16
56.52
49.68
37.80
25.27
15.82
11.27
11.95
17.28
25.95
35.50
42.31
42.65
34.35
18.28
-1.76
-20.45
-33.44
-39.32
-39.88
-38.67
-38.95
-41.21
-42.57
-38.92
-27.61
-8.99
13.57
36.03
55.94
73.06
89.02
106.02
125.58
148.62
176.26
209.21
246.32
282.22
307.05
311.90
294.73
262.62
229.18
207.56
202.82
210.34
218.16
211.78
184.43
139.81
87.26
35.81
-10.33
-53.02
-94.86
-137.68
-185.65
-238.51
-292.89
-347.59
-403.52
-461.64
-520.48
-570.70
-599.78
-603.97
-580.62
-528.89
-454.39
-366.12
-272.99
-181.54
-90.08
5.48
99.29
189.60
279.54
370.86
464.86
562.71
633.04
648.74
653.77
667.80
673.56
660.98
622.58
556.36
466.28
359.97
250.33
147.56
34.03
-90.36
-211.60
-315.30
-391.72
-435.89
-446.82
-424.02
-372.00
-307.78
-245.65
-194.33
-158.59
-137.97
-128.07
-123.79
-119.51
-112.38
-106.36
-102.55
-99.49
-96.12
-91.89
-86.86
-81.74
-76.29
-70.37
-65.77
-61.95
-57.53
-52.03
-45.52
-38.23
-30.33
-21.05
-9.99
2.13
15.06
28.30
40.98
52.18
61.60
69.54
77.10
85.14
94.66
106.96
122.79
141.37
159.61
172.26
170.76
151.89
117.09
72.92
28.91
-6.28
-28.38
-38.66
-42.31
-45.15
-50.75
-59.65
-70.50
-81.67
-92.57
-103.87
-116.72
-131.70
-148.32
-164.82
-179.69
-191.76
-200.66
-206.88
-211.72
-216.73
-223.11
-231.61
-242.54
-257.22
-276.76
-301.22
-328.59
-354.52
-373.23
-379.52
-370.70
-343.92
-303.41
-256.91
-212.26
-174.57
-145.19
-122.56
-104.04
-87.22
-70.59
-53.98
-36.94
-18.52
2.25
25.62
50.68
75.47
98.17
117.31
131.59
140.73
145.27
146.24
144.59
140.76
134.63
127.51
120.77
115.09
110.88
108.44
108.29
110.99
116.56
124.15
135.73
152.58
174.32
199.13
224.72
249.75
273.91
296.94
317.60
339.21
363.83
391.07
418.22
442.34
462.45
479.76
495.97
511.64
533.10
565.11
609.20
663.59
725.32
792.63
865.03
941.92
974.85
929.92
798.14
601.11
375.36
150.63
-57.79
-243.77
-402.45
-527.08
-604.20
-626.65
-600.03
-543.48
-482.59
-438.33
-419.70
-422.86
-436.04
-440.89
-425.32
-388.66
-340.55
-294.37
-258.90
-234.36
-215.13
-195.75
-172.45
-148.25
-131.04
-127.47
-138.15
-156.33
-171.50
-176.22
-170.03
-157.16
-144.09
-136.31
-134.14
-134.75
-134.79
-132.47
-128.76
-126.96
-130.34
-139.30
-152.69
-165.31
-170.11
-160.79
-134.91
-95.77
-51.56
-12.12
15.38
28.96
32.29
31.65
32.38
36.64
43.15
49.42
53.46
55.72
58.35
64.06
74.18
87.94
102.96
116.13
125.35
130.16
131.87
132.53
134.29
138.37
144.96
153.68
163.79
174.15
182.69
186.35
181.20
164.66
136.95
101.76
65.36
34.22
12.80
2.13
0.39
3.86
9.54
15.99
23.03
30.75
38.76
46.17
52.09
56.44
59.16
61.03
62.95
65.33
67.70
68.83
66.85
59.34
49.60
38.71
27.65
17.11
7.44
-1.47
-10.08
-19.03
-28.95
-40.28
-54.09
-71.04
-91.50
-115.55
-142.99
-173.31
-205.74
-239.29
-272.99
-306.97
-342.36
-381.51
-427.20
-480.63
-539.54
-597.28
-643.75
-668.47
-664.39
-629.80
-568.69
-489.31
-402.06
-317.68
-245.76
-192.68
-159.52
-140.86
-127.18
-108.62
-79.20
-39.30
4.77
43.68
68.77
75.44
65.32
44.03
19.79
1.54
-3.23
9.63
39.47
80.47
124.87
168.05
208.08
245.99
284.61
326.47
372.80
422.80
472.57
516.05
546.96
556.72
537.87
488.32
413.94
328.36
248.03
185.55
130.63
75.95
16.12
-48.70
-113.47
-172.01
-219.76
-251.47
-273.02
-289.41
-300.39
-304.17
-297.99
-279.54
-251.88
-218.19
-182.28
-148.44
-118.38
-90.07
-61.15
-29.75
4.71
41.98
80.93
119.31
154.07
184.17
211.69
239.60
270.55
305.05
341.68
375.62
399.58
406.75
395.23
369.24
336.51
304.94
279.77
264.83
260.46
264.23
272.81
283.76
295.31
304.85
308.78
303.73
291.29
274.38
255.50
235.66
214.80
192.03
165.92
135.18
81.23
0.75
-94.39
-184.36
-254.46
-300.66
-326.27
-336.93
-337.72
-332.48
-320.73
-302.93
-281.43
-259.76
-240.51
-224.38
-210.77
-198.75
-187.99
-176.13
-162.47
-148.18
-135.38
-125.39
-118.33
-113.46
-109.95
-108.24
-106.50
-104.36
-103.14
-105.41
-113.08
-125.80
-140.26
-148.47
-144.39
-123.31
-85.86
-38.46
8.66
46.32
70.50
81.69
84.12
82.91
82.84
86.44
94.48
106.07
119.61
132.24
139.64
137.01
120.81
91.11
51.57
8.45
-32.41
-66.78
-93.02
-111.44
-122.83
-127.62
-125.28
-115.27
-93.53
-59.45
-14.35
38.23
92.20
139.11
169.79
177.76
162.13
129.01
88.93
53.56
31.82
27.49
38.62
58.96
80.51
95.27
96.84
80.41
44.30
-8.29
-68.85
-126.16
-169.06
-188.47
-179.72
-143.18
-85.35
-18.38
43.34
87.42
105.51
95.93
64.81
22.39
-17.08
-38.63
-36.36
-16.52
9.96
34.50
53.69
69.23
83.05
96.33
108.70
117.72
120.89
120.05
116.67
110.16
101.56
91.35
80.38
69.03
55.29
37.61
26.08
24.47
19.79
8.71
-9.60
-35.25
-60.41
-83.23
-103.22
-119.82
-134.30
-152.38
-176.66
-207.50
-242.47
-278.76
-316.25
-355.25
-395.69
-407.96
-377.21
-309.18
-226.16
-147.97
-83.13
-32.81
5.73
36.06
60.48
76.12
82.10
80.26
75.04
70.75
69.05
70.12
73.49
78.27
80.29
77.47
70.47
62.19
55.40
50.98
48.65
47.66
47.37
45.29
40.35
33.26
26.03
20.28
16.29
13.37
10.66
7.57
3.00
-3.35
-10.60
-17.25
-22.12
-24.89
-26.26
-27.91
-31.97
-40.55
-53.69
-68.30
-78.67
-78.41
-63.32
-33.68
5.37
45.06
75.61
89.36
82.61
56.01
14.00
-36.49
-87.12
-129.32
-155.77
-162.67
-149.78
-121.72
-86.60
-53.23
-28.19
-14.27
-10.02
-11.40
-13.81
-13.79
-9.72
-1.57
10.15
24.92
42.11
60.83
79.56
96.46
109.26
117.17
120.46
120.24
118.06
115.40
113.19
111.58
110.01
108.01
104.47
99.05
92.20
85.16
79.40
76.11
75.60
77.18
79.37
80.50
79.60
76.53
72.30
68.45
66.40
66.92
70.21
76.08
83.83
91.92
97.43
96.60
86.07
64.73
35.03
2.49
-26.29
-46.35
-56.18
-57.81
-54.88
-50.43
-45.72
-40.47
-34.32
-28.10
-23.89
-23.99
-29.57
-39.64
-51.54
-62.52
-70.59
-75.73
-79.53
-84.14
-90.75
-100.53
-113.28
-127.69
-141.19
-150.13
-150.43
-138.99
-115.75
-83.52
-48.42
-17.32
4.74
16.32
19.54
18.33
16.05
14.13
12.17
9.05
4.48
-0.59
-4.57
-6.35
-6.09
-5.05
-4.82
-6.64
-10.64
-15.80
-20.59
-23.57
-24.01
-22.12
-18.75
-14.95
-11.45
-8.40
-5.39
-1.74
3.01
8.89
15.40
21.71
27.01
30.76
32.90
33.72
33.75
33.46
33.13
32.79
32.32
31.60
30.57
29.34
28.07
26.94
26.00
25.16
24.22
22.99
21.37
19.35
17.02
14.45
11.78
9.00
6.00
2.73
-0.78
-4.27
-7.37
-9.71
-11.06
-11.23
-10.41
-9.03
-7.57
-6.28
-5.06
-3.55
-1.29
1.98
6.51
12.02
17.84
23.25
27.85
31.65
35.14
39.14
44.53
52.57
63.75
77.55
92.40
105.98
115.94
120.79
120.45
112.80
98.73
80.13
59.08
37.08
14.71
-8.15
-31.70
-55.55
-78.38
-97.55
-110.53
-115.63
-112.57
-102.57
-87.83
-70.80
-53.54
-37.52
-23.28
-11.32
-2.15
3.84
6.71
7.10
6.09
4.84
4.16
4.55
5.81
7.22
7.86
6.88
3.79
-1.47
-8.45
-16.24
-23.44
-28.64
-30.76
-29.36
-24.79
-18.07
-10.52
-3.41
2.29
5.90
6.88
4.83
-0.30
-7.92
-16.67
-24.57
-29.61
-30.54
-27.30
-21.09
-13.80
-7.28
-2.60
0.17
1.74
3.11
4.96
7.34
9.77
11.57
12.29
11.99
11.21
10.66
10.84
11.73
12.77
13.14
12.23
9.96
6.88
3.87
1.63
0.23
-0.97
-3.03
-6.79
-12.41
-19.16
-25.68
-30.61
-33.18
-33.36
-31.82
-29.40
-26.70
-23.86
-20.68
-16.88
-12.48
-7.85
-3.69
-0.71
0.68
0.62
-0.23
-0.96
-0.82
0.44
2.47
4.57
6.07
6.71
6.73
6.68
7.03
7.87
8.92
9.69
9.85
9.43
8.77
8.35
8.46
9.03
9.67
9.87
9.29
7.94
6.12
4.26
2.69
1.49
0.46
-0.74
-2.34
-4.27
-6.08
-7.14
-6.96
-5.44
-3.01
-0.47
1.41
2.23
2.14
1.72
1.61
2.13
3.13
4.13
4.62
4.38
3.60
2.72
2.18
2.17
2.58
3.10
3.45
3.51
3.35
3.12
2.95
2.79
2.53
2.01
1.19
0.17
-0.80
-1.48
-1.74
-1.60
-1.27
-1.10
-1.40
-2.31
-3.74
-5.30
-6.50
-6.89
-6.27
-4.76
-2.75
-0.70
1.05
2.38
3.32
3.97
4.32
4.34
3.97
3.32
2.58
2.04
1.87
2.04
2.31
2.40
2.14
1.57
0.95
0.59
0.62
0.98
1.39
1.57
1.32
0.73
0.03
-0.51
-0.75
-0.74
-0.72
-0.89
-1.34
-1.94
-2.46
-2.74
-2.80
-2.84
-3.09
-3.59
-4.06
-4.04
-3.12
-1.20
1.37
3.93
5.81
6.69
6.67
6.21
5.80
5.72
5.90
6.03
5.77
4.93
3.64
2.20
1.00
0.31
0.18
0.41
0.71
0.79
0.51
-0.05
-0.72
-1.32
-1.72
-1.96
-2.13
-2.32
-2.57
-2.87
-3.15
-3.38
-3.62
-3.95
-4.49
-5.29
-6.26
-7.16
-7.66
-7.47
-6.42
-4.58
-2.25
0.13
2.12
3.50
4.25
4.62
4.91
5.32
5.85
6.31
6.45
6.14
5.47
4.70
4.10
3.81
3.73
3.63
3.27
2.61
1.82
1.18
0.89
1.02
1.36
1.61
1.50
0.93
0.06
-0.80
-1.35
-1.47
-1.29
-1.11
-1.27
-1.94
-3.05
-4.33
-5.42
-6.02
-5.99
-5.34
-4.17
-2.65
-0.93
0.82
2.44
3.78
4.71
5.16
5.14
4.74
4.11
3.41
2.75
2.17
1.67
1.23
0.88
0.67
0.67
0.85
1.07
1.17
0.97
0.45
-0.31
-1.13
-1.83
-2.30
-2.52
-2.55
-2.50
-2.43
-2.42
-2.51
-2.74
-3.17
-3.84
-4.74
-5.78
-6.71
-7.26
-7.15
-6.24
-4.64
-2.67
-0.75
0.74
1.59
1.89
1.90
1.94
2.22
2.71
3.20
3.37
3.01
2.14
1.00
-0.02
-0.63
-0.76
-0.59
-0.45
-0.62
-1.16
-1.84
-2.27
-2.11
-1.24
0.14
1.61
2.74
3.26
3.19
2.76
2.29
1.95
1.69
1.30
0.52
-0.77
-2.39
-3.93
-4.92
-5.04
-4.32
-3.07
-1.75
-0.72
-0.02
0.60
1.47
2.79
4.42
5.93
6.84
6.87
6.11
4.93
3.82
3.11
2.85
2.86
2.91
2.81
2.51
2.10
1.69
1.36
1.09
0.84
0.57
0.27
-0.03
-0.31
-0.55
-0.79
-1.09
-1.50
-2.07
-2.82
-3.68
-4.56
-5.32
-5.80
-5.86
-5.42
-4.48
-3.07
-1.31
0.69
2.76
4.72
6.41
7.74
8.68
9.34
9.92
10.61
11.54
12.70
13.99
15.13
15.89
16.11
15.91
15.60
15.62
16.34
17.96
20.33
22.95
25.24
26.83
27.84
28.84
30.57
33.57
37.93
43.20
48.42
52.73
55.81
57.98
60.12
63.16
67.79
74.24
82.37
91.13
99.40
106.37
111.90
116.48
121.05
126.87
135.42
148.04
163.96
181.05
196.16
206.00
207.92
200.34
183.36
158.73
129.28
95.82
58.41
17.00
-27.59
-73.44
-118.22
-159.69
-196.16
-226.98
-255.44
-285.65
-320.56
-360.23
-402.01
-442.26
-477.80
-506.74
-511.44
-479.68
-409.18
-310.81
-202.57
-99.71
-10.25
64.15
125.17
175.15
213.51
239.46
253.57
258.74
259.54
259.78
261.25
265.10
271.27
277.07
279.89
278.53
273.98
268.78
264.83
263.24
264.16
266.87
268.92
267.71
261.19
248.00
232.08
215.49
199.46
184.56
170.86
157.53
143.83
129.47
114.82
100.81
87.71
75.73
64.93
55.16
46.05
37.20
28.46
19.94
12.03
4.60
-2.40
-9.01
-15.32
-21.41
-27.32
-33.01
-38.39
-43.28
-47.80
-51.97
-55.77
-59.16
-62.05
-64.35
-65.94
-66.68
-66.45
-65.30
-63.33
-60.62
-57.28
-53.39
-49.01
-44.16
-38.82
-33.03
-26.93
-20.78
-14.85
-9.48
-4.89
-1.19
1.67
3.84
5.48
6.61
7.11
6.69
5.10
2.22
-1.83
-6.68
-11.81
-16.84
-21.72
-26.80
-32.76
-40.28
-49.78
-61.13
-73.64
-86.28
-98.14
-108.91
-119.06
-129.70
-142.12
-157.16
-174.80
-194.04
-213.45
-231.65
-248.11
-263.33
-278.70
-296.05
-317.20
-343.48
-375.12
-410.62
-446.42
-477.58
-499.08
-507.84
-503.96
-490.70
-473.15
-455.97
-441.19
-427.41
-410.89
-387.55
-355.08
-314.10
-268.32
-223.73
-186.96
-163.17
-154.03
-156.65
-163.99
-167.11
-158.83
-135.89
-99.71
-54.77
-6.01
43.40
92.20
139.86
184.52
222.22
248.20
259.14
254.47
235.91
206.00
167.02
121.50
73.78
31.26
3.77
0.13
23.15
66.58
116.07
154.02
165.86
144.52
90.83
12.58
-78.72
-170.73
-252.16
-313.93
-350.19
-359.38
-344.92
-315.60
-281.08
-248.75
-222.08
-201.18
-184.59
-170.85
-159.09
-149.15
-143.05
-141.26
-142.26
-143.59
-143.67
-142.61
-141.68
-141.91
-143.19
-146.39
-149.23
-146.39
-131.57
-100.57
-53.11
8.03
78.78
171.50
284.66
404.52
511.69
592.70
644.92
673.20
684.55
684.12
673.36
647.62
601.96
535.06
451.47
361.33
277.87
214.69
181.19
179.14
199.86
229.63
255.71
270.61
274.88
270.43
260.72
248.97
237.46
226.60
216.74
209.87
208.51
212.75
218.40
218.45
205.95
177.87
136.05
86.20
36.45
-6.42
-39.74
-65.62
-88.89
-115.20
-149.45
-184.18
-212.90
-230.66
-236.37
-232.43
-222.24
-208.40
-192.34
-174.25
-154.11
-133.50
-114.38
-98.25
-85.38
-73.96
-61.69
-50.45
-37.38
-20.44
0.02
21.97
43.35
63.08
82.77
103.70
129.48
158.35
187.72
214.83
236.29
249.09
253.38
253.31
251.89
250.77
249.64
247.87
244.42
236.20
220.34
194.90
161.79
125.22
87.00
46.49
2.52
-33.14
-51.00
-46.62
-43.88
-49.46
-66.09
-84.11
-100.51
-116.22
-132.69
-152.45
-176.38
-203.50
-228.38
-247.76
-260.04
-265.95
-269.59
-274.15
-281.74
-291.29
-299.66
-300.89
-292.13
-273.30
-247.57
-224.21
-212.12
-217.81
-242.93
-285.48
-340.28
-403.23
-471.23
-509.24
-495.14
-428.06
-329.52
-226.90
-138.61
-70.67
-22.15
11.32
35.65
52.99
66.72
81.59
102.31
130.21
162.08
191.69
213.71
226.25
227.04
216.49
197.27
173.47
149.31
127.79
111.07
100.75
97.64
98.57
99.60
97.90
92.45
85.43
79.61
77.36
79.95
87.16
96.04
102.85
104.81
101.27
93.60
84.32
76.33
72.10
73.03
77.99
83.35
83.68
73.94
51.78
19.06
-18.05
-51.28
-73.66
-82.65
-80.67
-73.32
-66.40
-63.85
-67.40
-77.20
-94.18
-117.32
-143.34
-167.14
-183.59
-189.34
-185.05
-174.79
-163.56
-154.11
-145.31
-133.78
-116.66
-93.94
-67.05
-38.41
-9.59
19.11
47.78
76.11
102.37
123.60
136.59
141.72
141.33
138.71
136.29
134.76
133.39
130.99
126.89
121.53
119.84
128.00
151.70
193.91
254.21
329.60
415.94
509.14
586.00
626.50
618.34
563.32
475.79
374.32
273.73
182.15
102.28
33.58
-22.75
-65.48
-94.15
-110.24
-117.24
-119.48
-120.83
-123.76
-129.50
-135.98
-140.45
-140.75
-136.41
-128.83
-120.31
-113.05
-108.24
-106.30
-105.69
-104.44
-101.07
-95.18
-87.55
-79.55
-72.61
-67.45
-64.32
-62.55
-61.28
-59.86
-58.13
-56.50
-54.46
-53.54
-54.23
-56.62
-60.24
-64.52
-68.93
-73.01
-76.54
-79.51
-82.12
-84.26
-85.89
-87.04
-87.84
-88.53
-89.07
-89.54
-90.05
-90.88
-92.04
-93.65
-95.87
-98.94
-103.17
-108.37
-114.44
-121.26
-128.78
-136.76
-145.02
-153.46
-162.13
-171.25
-180.38
-189.23
-197.41
-204.39
-209.43
-211.64
-209.99
-202.99
-193.35
-181.88
-169.02
-154.85
-139.26
-122.03
-103.11
-82.90
-62.18
-42.16
-23.36
-6.13
9.66
24.68
39.84
55.88
73.01
90.76
108.08
124.40
139.41
153.44
167.43
182.60
199.98
220.12
242.81
266.93
290.77
311.78
327.19
335.04
335.11
329.31
321.05
313.74
309.18
306.79
303.88
297.21
284.78
266.77
245.13
222.30
200.00
178.74
158.40
138.90
120.69
104.45
90.63
79.19
69.84
62.51
57.60
55.42
55.22
54.56
49.67
36.94
14.86
-14.90
-48.13
-80.08
-107.61
-129.97
-147.71
-160.64
-166.27
-160.40
-139.28
-102.57
-54.73
-4.42
38.35
65.53
73.39
62.99
38.90
7.19
-26.30
-57.07
-82.06
-99.43
-108.18
-108.03
-99.39
-83.80
-64.10
-44.32
-28.88
-21.54
-24.44
-37.65
-59.36
-86.30
-114.20
-138.25
-153.62
-156.30
-144.16
-117.83
-80.82
-38.73
2.29
37.13
62.80
78.73
86.45
88.79
88.74
88.57
89.25
90.57
91.65
91.78
90.82
89.51
89.38
92.47
100.73
115.19
134.93
156.58
174.83
183.82
179.25
160.05
128.56
89.31
46.69
3.02
-42.26
-91.50
-146.54
-206.52
-266.56
-318.36
-352.29
-360.67
-340.93
-297.20
-239.44
-180.17
-130.18
-95.09
-74.59
-64.28
-58.81
-54.48
-49.83
-44.51
-37.90
-28.63
-15.79
-0.63
12.72
18.18
10.54
-11.49
-43.86
-78.15
-104.68
-116.06
-109.67
-87.99
-56.86
-22.76
9.57
38.21
63.56
86.84
108.48
127.49
141.89
149.83
150.78
146.03
138.34
130.94
126.52
126.47
130.65
137.45
144.30
148.33
147.48
141.28
131.14
119.77
109.78
102.50
97.32
91.97
83.49
69.12
46.67
14.53
-28.06
-79.90
-136.70
-190.63
-231.85
-251.85
-247.18
-221.58
-184.98
-149.62
-125.02
-114.47
-114.53
-117.85
-117.26
-109.20
-94.65
-77.49
-61.69
-49.13
-39.23
-30.36
-21.78
-14.70
-11.72
-14.82
-23.28
-33.22
-39.14
-36.80
-25.48
-8.31
9.73
24.69
35.78
45.35
56.98
72.94
92.68
113.00
129.74
139.62
141.38
135.89
125.42
112.85
100.94
91.90
86.99
86.24
88.40
91.29
92.64
91.07
86.59
80.36
73.72
67.19
59.97
50.39
37.06
20.12
1.72
-14.67
-25.62
-29.25
-26.02
-18.54
-10.92
-7.86
-13.95
-33.11
-67.61
-116.82
-176.19
-237.29
-289.32
-321.93
-328.28
-307.10
-263.07
-205.22
-144.17
-89.24
-46.46
-17.77
-1.52
6.09
9.39
11.92
15.75
21.62
29.43
38.88
49.68
61.34
72.85
82.61
88.83
90.30
87.10
80.64
73.18
66.79
62.49
59.99
58.15
55.79
52.42
48.44
44.77
42.22
40.98
40.54
39.92
38.11
34.48
28.92
21.92
14.40
7.49
2.22
-0.88
-1.95
-1.81
-1.66
-2.57
-5.06
-8.97
-13.65
-18.28
-22.33
-25.72
-28.70
-31.61
-34.61
-37.57
-40.10
-41.82
-42.55
-42.45
-41.98
-41.60
-41.62
-41.94
-42.14
-41.62
-39.87
-36.69
-32.21
-26.90
-21.34
-16.11
-11.61
-8.02
-5.26
-3.15
-1.48
-0.19
0.64
0.98
0.92
0.89
1.51
3.39
6.80
11.59
17.22
22.98
28.29
32.80
36.32
38.80
40.23
40.66
40.23
39.13
37.61
35.89
34.08
32.24
30.37
28.47
26.58
24.75
23.00
21.27
19.43
17.31
14.77
11.85
8.76
5.86
3.55
2.09
1.47
1.40
1.46
1.27
0.65
-0.35
-1.58
-2.84
-3.96
-4.84
-5.38
-5.45
-4.96
-3.87
-2.26
-0.34
1.55
3.09
4.04
4.33
4.14
3.80
3.65
3.89
4.50
5.26
5.86
6.05
5.75
5.01
4.02
3.00
2.15
1.63
1.48
1.63
1.86
1.95
1.71
1.10
0.27
-0.59
-1.35
-2.02
-2.72
-3.53
-4.39
-5.08
-5.43
-5.39
-5.21
-5.24
-5.75
-6.69
-7.67
-8.18
-7.81
-6.48
-4.51
-2.37
-0.52
0.80
1.57
1.92
1.98
1.84
1.58
1.25
0.90
0.56
0.27
0.03
-0.17
-0.32
-0.45
-0.62
-0.88
-1.27
-1.78
-2.30
-2.74
-3.01
-3.11
-3.10
-3.05
-3.04
-3.08
-3.11
-3.10
-3.07
-3.11
-3.35
-3.91
-4.77
-5.76
-6.59
-6.91
-6.53
-5.46
-3.94
-2.28
-0.79
0.37
1.25
1.95
2.62
3.31
3.97
4.49
4.75
4.69
4.29
3.63
2.82
2.00
1.30
0.83
0.66
0.78
1.08
1.43
1.62
1.52
1.10
0.37
-0.56
-1.60
-2.63
-3.52
-4.13
-4.39
-4.34
-4.17
-4.16
-4.55
-5.37
-6.44
-7.35
-7.73
-7.32
-6.17
-4.51
-2.67
-0.98
0.41
1.44
2.16
2.69
3.10
3.42
3.58
3.48
3.08
2.42
1.71
1.19
1.08
1.39
1.98
2.59
3.02
3.16
3.04
2.70
2.21
1.59
0.91
0.23
-0.31
-0.66
-0.84
-1.02
-1.39
-2.13
-3.28
-4.73
-6.24
-7.57
-8.48
-8.83
-8.52
-7.57
-6.11
-4.32
-2.50
-0.91
0.26
1.00
1.45
1.85
2.38
3.05
3.69
4.07
4.00
3.50
2.77
2.07
1.64
1.56
1.80
2.20
2.58
2.82
2.85
2.65
2.26
1.76
1.23
0.73
0.26
-0.23
-0.78
-1.39
-2.01
-2.55
-2.98
-3.36
-3.85
-4.58
-5.57
-6.66
-7.55
-7.88
-7.44
-6.25
-4.58
-2.81
-1.29
-0.17
0.64
1.33
2.11
2.98
3.77
4.19
4.07
3.41
2.44
1.47
0.78
0.47
0.49
0.68
0.88
0.96
0.86
0.53
-0.03
-0.77
-1.61
-2.43
-3.13
-3.67
-4.08
-4.45
-4.86
-5.39
-6.09
-7.00
-8.13
-9.47
-10.95
-12.46
-13.84
-14.95
-15.69
-16.00
-15.91
-15.53
-14.98
-14.45
-14.09
-14.03
-14.30
-14.88
-15.62
-16.32
-16.76
-16.75
-16.15
-14.89
-13.00
-10.55
-7.64
-4.34
-0.68
3.30
7.55
11.86
15.93
19.38
21.85
23.21
23.53
23.09
22.27
21.38
20.56
19.80
18.96
17.89
16.46
14.63
12.47
10.11
7.76
5.65
4.01
2.99
2.64
2.91
3.62
4.53
5.39
5.98
6.22
6.18
6.00
5.87
5.89
6.02
6.14
6.11
5.86
5.47
5.05
4.76
4.66
4.69
4.74
4.68
4.45
4.08
3.63
3.20
2.83
2.48
2.04
1.39
0.47
-0.64
-1.75
-2.62
-3.14
-3.33
-3.42
-3.69
-4.35
-5.41
-6.65
-7.73
-8.35
-8.36
-7.80
-6.84
-5.69
-4.49
-3.30
-2.14
-1.00
0.09
1.07
1.89
2.48
2.82
2.93
2.88
2.77
2.75
2.92
3.30
3.78
4.21
4.45
4.44
4.23
3.93
3.66
3.47
3.32
3.13
2.80
2.30
1.63
0.86
0.08
-0.63
-1.24
-1.80
-2.40
-3.13
-4.00
-4.96
-5.85
-6.54
-6.96
-7.09
-6.98
-6.63
-5.99
-4.98
-3.56
-1.82
0.02
1.67
2.90
3.60
3.82
3.70
3.47
3.29
3.26
3.39
3.64
3.94
4.24
4.50
4.69
4.74
4.63
4.31
3.83
3.28
2.81
2.53
2.42
2.37
2.23
1.86
1.24
0.50
-0.19
-0.68
-0.95
-1.11
-1.37
-1.91
-2.80
-3.96
-5.18
-6.21
-6.84
-6.96
-6.53
-5.61
-4.31
-2.81
-1.29
0.07
1.19
2.04
2.67
3.11
3.39
3.47
3.35
3.06
2.69
2.36
2.14
2.04
2.03
2.04
2.05
2.11
2.23
2.41
2.55
2.53
2.25
1.66
0.86
-0.03
-0.85
-1.48
-1.87
-2.05
-2.14
-2.29
-2.63
-3.28
-4.25
-5.43
-6.62
-7.54
-7.90
-7.56
-6.51
-4.92
-3.06
-1.26
0.24
1.33
2.08
2.66
3.23
3.84
4.39
4.68
4.56
3.98
3.13
2.32
1.85
1.81
2.06
2.30
2.25
1.81
1.14
0.54
0.28
0.38
0.65
0.71
0.20
-0.97
-2.62
-4.33
-5.64
-6.29
-6.38
-6.28
-6.55
-7.60
-9.58
-12.18
-14.78
-16.67
-17.32
-16.65
-15.10
-13.50
-12.76
-13.45
-15.51
-18.19
-20.40
-21.15
-20.23
-18.32
-16.89
-17.52
-21.09
-27.18
-34.21
-40.00
-42.83
-42.32
-39.55
-36.70
-36.15
-39.68
-47.86
-59.80
-73.00
-83.60
-86.97
-78.97
-57.69
-24.73
14.62
52.74
82.29
99.04
103.40
100.08
95.96
97.25
107.32
126.08
150.68
177.31
202.74
225.19
244.35
260.54
273.69
282.83
286.28
282.57
271.61
255.08
236.04
217.65
201.82
188.40
175.53
160.76
142.41
120.49
96.70
73.56
53.36
37.17
24.68
14.45
4.85
-5.11
-15.36
-24.81
-32.01
-35.96
-36.57
-34.62
-31.31
-27.73
-24.52
-21.86
-19.61
-17.32
-13.98
-7.99
2.61
19.05
40.72
64.61
85.77
98.98
100.71
90.44
70.45
44.62
16.43
-12.17
-41.03
-71.00
-103.05
-137.76
-175.30
-215.33
-256.83
-297.64
-334.46
-363.46
-381.58
-387.57
-382.32
-368.24
-348.11
-324.15
-297.90
-270.72
-244.30
-220.62
-201.27
-186.58
-175.29
-165.04
-153.52
-139.67
-124.03
-108.26
-94.29
-83.13
-74.56
-67.42
-60.49
-53.16
-45.73
-39.05
-33.84
-30.12
-27.14
-23.75
-19.05
-12.87
-5.76
1.26
7.25
11.74
14.79
16.91
18.68
20.46
22.23
23.65
24.32
24.02
22.92
21.46
20.19
19.46
19.26
19.32
19.31
19.06
18.59
18.03
17.44
16.72
15.64
14.06
12.05
9.95
8.23
7.25
7.08
7.40
7.70
7.45
6.40
4.63
2.52
0.51
-1.09
-2.14
-2.55
-2.25
-1.04
1.21
4.43
8.22
11.92
14.90
16.88
18.01
18.77
19.65
20.79
21.93
22.63
22.54
21.70
20.51
19.51
19.11
19.38
20.05
20.66
20.80
20.30
19.26
17.96
16.63
15.43
14.33
13.20
11.92
10.45
8.84
7.19
5.56
3.89
2.02
-0.23
-2.99
-6.23
-9.83
-13.58
-17.31
-20.79
-23.80
-26.02
-27.20
-27.22
-26.28
-24.86
-23.50
-22.49
-21.48
-19.56
-15.62
-9.06
-0.25
9.32
17.53
22.45
23.07
19.63
13.41
6.22
-0.16
-4.32
-5.27
-2.42
4.27
14.21
26.08
37.94
47.65
53.42
54.35
50.71
43.75
35.21
26.57
18.54
11.03
3.58
-3.89
-10.50
-14.49
-13.89
-7.71
3.30
16.75
29.47
38.96
44.28
46.19
46.30
46.08
46.14
46.30
46.12
45.50
44.96
45.30
47.03
49.82
52.41
53.01
50.14
43.52
34.60
26.35
22.12
24.18
32.48
44.39
55.69
62.30
61.99
55.13
44.44
33.67
26.19
24.01
27.31
34.63
43.27
49.77
50.79
44.18
30.07
11.46
-6.48
-18.09
-19.51
-10.34
6.10
23.94
37.06
41.16
34.98
20.11
-0.12
-21.99
-42.32
-58.75
-69.67
-74.03
-71.42
-62.24
-47.81
-30.30
-12.16
4.46
18.33
29.41
38.54
46.86
55.12
63.29
70.64
76.04
78.44
77.13
71.78
62.11
47.55
27.20
0.14
-33.85
-73.61
-116.14
-156.78
-189.87
-209.97
-213.09
-197.82
-165.61
-120.48
-68.05
-14.36
35.22
76.62
107.45
127.06
136.25
136.74
130.62
119.80
105.91
90.36
74.65
60.38
48.96
41.01
35.92
32.00
27.28
20.59
12.22
3.73
-3.15
-7.63
-10.50
-13.64
-18.83
-26.57
-35.52
-43.15
-46.93
-45.65
-39.91
-31.82
-23.96
-18.26
-15.29
-14.20
-13.33
-11.04
-6.59
-0.42
5.95
10.56
11.83
9.21
3.46
-3.71
-10.30
-14.76
-16.39
-15.34
-12.24
-7.76
-2.47
3.07
8.20
12.13
14.13
13.83
11.38
7.36
2.54
-2.40
-6.96
-10.80
-13.66
-15.30
-15.63
-14.81
-13.24
-11.40
-9.53
-7.48
-4.78
-0.95
4.14
9.93
15.30
18.85
19.49
16.92
11.87
5.96
1.16
-0.91
0.44
4.70
10.45
15.91
19.63
20.95
20.05
17.62
14.32
10.48
6.10
1.22
-3.72
-7.79
-9.81
-8.93
-5.15
0.50
6.30
10.51
12.02
10.74
7.46
3.52
0.28
-1.25
-0.66
1.87
5.56
9.20
11.47
11.29
8.28
2.95
-3.51
-9.52
-13.73
-15.32
-14.14
-10.70
-6.09
-1.72
0.98
1.02
-1.79
-6.74
-12.46
-17.53
-21.03
-22.84
-23.53
-23.89
-24.48
-25.30
-25.93
-25.83
-24.63
-22.26
-18.87
-14.60
-9.51
-3.55
3.24
10.55
17.69
23.62
27.28
28.04
26.02
22.22
18.16
15.38
14.84
16.59
19.92
23.67
26.72
28.41
28.63
27.72
26.08
23.87
20.82
16.35
9.89
1.44
-8.17
-17.29
-24.01
-26.94
-25.96
-22.33
-18.16
-15.44
-15.09
-16.62
-18.47
-18.78
-16.26
-10.62
-2.45
6.98
16.19
23.80
28.77
30.48
28.84
24.27
17.60
10.04
2.87
-2.72
-5.79
-5.97
-3.79
-0.70
1.26
0.25
-4.32
-11.78
-20.52
-28.80
-35.36
-39.68
-41.78
-41.67
-39.23
-33.89
-25.86
-16.49
-7.66
-0.76
4.11
8.04
12.58
18.71
27.33
37.67
47.79
55.83
61.29
65.19
69.32
75.26
83.34
94.48
107.73
120.62
130.47
135.95
137.71
138.03
140.28
147.00
161.79
184.60
211.02
233.77
245.88
243.19
225.37
195.81
147.38
83.94
17.33
-39.36
-79.68
-104.21
-116.05
-117.72
-110.89
-101.55
-90.87
-80.96
-74.81
-74.90
-81.81
-94.68
-112.32
-125.39
-129.86
