1660928899.00
64.000000
-0.00
-0.00
-0.00
-0.00
-0.00
-0.00
-0.00
-0.00
-0.00
-0.00
0.00
0.01
0.01
-0.00
-0.03
-0.05
-0.05
0.00
0.13
0.36
0.66
1.01
1.37
1.72
2.06
2.40
2.79
3.25
3.81
4.44
5.09
5.73
6.32
6.91
7.54
8.28
9.15
10.23
11.42
12.60
13.67
14.61
15.50
16.52
17.89
19.71
22.19
25.09
28.14
31.09
33.80
36.41
39.27
42.79
47.24
52.92
59.43
66.25
72.87
79.07
85.06
91.39
98.73
107.46
117.91
129.44
141.23
152.55
163.14
173.35
183.96
196.25
208.60
222.84
239.25
257.85
277.72
296.47
310.34
314.97
306.90
284.72
250.10
206.32
157.57
107.43
58.15
10.72
-34.58
-77.58
-118.06
-155.77
-191.43
-226.37
-262.11
-299.39
-337.16
-372.34
-400.37
-416.85
-419.08
-407.40
-385.05
-356.89
-327.56
-299.97
-274.89
-251.66
-229.33
-207.49
-186.61
-167.47
-150.52
-135.48
-121.55
-107.90
-94.11
-80.37
-67.29
-55.59
-45.70
-37.52
-30.55
-24.13
-17.72
-11.15
-4.64
1.35
6.38
10.20
12.90
14.83
16.47
18.22
20.19
22.22
23.98
25.16
25.63
25.53
25.13
24.74
24.52
24.45
24.35
24.06
23.51
22.78
22.05
21.51
21.21
21.09
20.98
20.73
20.26
19.60
18.88
18.21
17.65
17.19
16.75
16.26
15.68
15.01
14.29
13.58
12.92
12.34
11.82
11.36
10.97
10.68
10.54
10.55
10.69
10.86
10.92
10.74
10.31
9.70
9.07
8.57
8.27
8.17
8.16
8.17
8.13
8.04
7.89
7.67
7.37
6.97
6.48
5.98
5.54
5.20
4.98
4.84
4.68
4.45
4.11
3.70
3.26
2.85
2.51
2.22
1.95
1.66
1.31
0.89
0.39
-0.17
-0.78
-1.43
-2.09
-2.74
-3.33
-3.85
-4.29
-4.68
-5.05
-5.42
-5.84
-6.32
-6.85
-7.37
-7.79
-8.00
-7.95
-7.69
-7.34
-7.05
-6.94
-6.99
-7.10
-7.11
-6.86
-6.32
-5.60
-4.86
-4.23
-3.80
-3.49
-3.21
-2.83
-2.30
-1.65
-0.95
-0.28
0.30
0.73
1.01
1.13
1.15
1.14
1.18
1.33
1.60
1.91
2.19
2.39
2.51
2.60
2.70
2.84
3.01
3.14
3.18
3.10
2.93
2.74
2.65
2.71
2.90
3.16
3.39
3.53
3.61
3.70
3.86
4.10
4.33
4.46
4.42
4.23
3.98
3.78
3.70
3.74
3.86
3.99
4.09
4.16
4.21
4.25
4.27
4.22
4.06
3.78
3.41
3.02
2.70
2.51
2.47
2.52
2.61
2.70
2.79
2.88
2.97
3.00
2.91
2.67
2.33
1.99
1.75
1.66
1.70
1.77
1.79
1.73
1.66
1.65
1.74
1.92
2.10
2.19
2.16
2.02
1.87
1.77
1.77
1.86
2.00
2.12
2.15
2.05
1.79
1.41
0.96
0.55
0.27
0.16
0.21
0.33
0.41
0.39
0.24
0.05
-0.11
-0.15
-0.04
0.17
0.42
0.64
0.83
0.98
1.14
1.35
1.59
1.84
2.03
2.13
2.13
2.03
1.88
1.71
1.54
1.35
1.16
0.98
0.83
0.76
0.77
0.85
0.96
1.07
1.15
1.19
1.18
1.11
0.98
0.81
0.64
0.53
0.51
0.55
0.59
0.53
0.35
0.08
-0.17
-0.28
-0.20
-0.01
0.12
0.05
-0.29
-0.78
-1.19
-1.34
-1.14
-0.70
-0.21
0.14
0.31
0.41
0.61
0.99
1.49
1.95
2.21
2.24
2.12
2.00
1.96
1.99
1.95
1.74
1.30
0.73
0.17
-0.26
-0.53
-0.67
-0.75
-0.80
-0.84
-0.82
-0.72
-0.51
-0.23
0.08
0.35
0.55
0.63
0.59
0.45
0.26
0.10
0.02
0.07
0.25
0.54
0.90
1.31
1.71
2.07
2.33
2.44
2.42
2.27
2.06
1.86
1.67
1.48
1.25
0.97
0.68
0.47
0.40
0.44
0.50
0.46
0.25
-0.07
-0.36
-0.48
-0.34
-0.03
0.29
0.46
0.41
0.17
-0.11
-0.35
-0.51
-0.62
-0.75
-0.91
-1.01
-0.97
-0.73
-0.32
0.12
0.43
0.49
0.30
-0.04
-0.36
-0.55
-0.51
-0.27
0.08
0.45
0.76
0.98
1.14
1.27
1.38
1.44
1.39
1.20
0.88
0.51
0.21
0.06
0.10
0.29
0.49
0.57
0.48
0.22
-0.11
-0.41
-0.60
-0.69
-0.72
-0.74
-0.78
-0.80
-0.79
-0.73
-0.64
-0.53
-0.40
-0.25
-0.03
0.27
0.61
0.90
1.06
1.01
0.77
0.43
0.10
-0.13
-0.23
-0.24
-0.23
-0.27
-0.35
-0.39
-0.31
-0.04
0.38
0.82
1.15
1.24
1.08
0.70
0.21
-0.28
-0.65
-0.81
-0.71
-0.36
0.15
0.62
0.89
0.82
0.45
-0.06
-0.49
-0.70
-0.63
-0.37
-0.05
0.22
0.40
0.50
0.55
0.57
0.52
0.41
0.25
0.06
-0.11
-0.24
-0.31
-0.30
-0.22
-0.06
0.13
0.27
0.27
0.10
-0.18
-0.46
-0.61
-0.58
-0.39
-0.16
0.04
0.17
0.25
0.27
0.21
0.02
-0.32
-0.73
-1.07
-1.19
-1.00
-0.58
-0.13
0.11
0.02
-0.31
-0.62
-0.63
-0.19
0.62
1.50
2.15
2.39
2.24
1.90
1.59
1.42
1.33
1.15
0.75
0.12
-0.60
-1.18
-1.44
-1.33
-0.97
-0.55
-0.30
-0.36
-0.74
-1.36
-2.03
-2.58
-2.88
-2.90
-2.69
-2.33
-1.91
-1.54
-1.27
-1.14
-1.15
-1.25
-1.34
-1.35
-1.21
-0.99
-0.82
-0.84
-1.12
-1.62
-2.16
-2.59
-2.85
-3.01
-3.19
-3.50
-3.94
-4.39
-4.69
-4.74
-4.60
-4.45
-4.49
-4.79
-5.27
-5.71
-5.87
-5.66
-5.13
-4.50
-3.94
-3.55
-3.28
-2.99
-2.58
-2.02
-1.41
-0.91
-0.66
-0.73
-1.16
-1.95
-3.17
-4.93
-7.23
-9.86
-12.27
-13.62
-13.10
-10.25
-5.31
0.78
6.64
10.96
12.95
12.55
10.33
7.08
3.54
0.19
-2.75
-5.21
-7.18
-8.76
-10.18
-11.74
-13.67
-16.04
-18.61
-20.96
-22.69
-23.58
-23.78
-23.75
-24.06
-25.21
-27.45
-30.58
-33.80
-35.68
-34.47
-28.74
-18.14
-3.95
11.13
23.81
31.49
33.20
29.88
23.77
17.24
11.76
7.52
3.70
-0.77
-6.47
-13.17
-20.00
-25.96
-30.35
-33.08
-34.69
-36.15
-38.48
-42.62
-49.26
-58.64
-70.12
-81.68
-89.91
-90.77
-81.16
-60.53
-31.79
-0.58
26.72
45.39
54.03
54.45
50.18
44.47
38.87
33.18
26.45
18.20
9.13
0.80
-5.28
-8.52
-9.63
-10.34
-12.56
-17.50
-25.26
-34.99
-45.44
-55.39
-63.72
-69.10
-69.77
-63.89
-50.37
-29.89
-5.20
19.57
40.60
56.04
66.64
74.99
83.84
94.49
106.37
117.84
127.60
135.73
143.56
152.70
163.78
175.97
187.43
196.34
202.00
205.12
207.25
210.00
214.33
220.44
227.94
236.00
243.33
248.06
247.76
240.01
223.10
196.71
161.89
120.39
73.86
23.52
-29.36
-82.55
-132.33
-173.92
-203.03
-217.61
-218.83
-210.65
-198.09
-185.28
-174.20
-164.75
-155.67
-145.95
-135.54
-125.29
-116.28
-109.06
-103.31
-98.15
-92.59
-86.11
-78.84
-71.43
-64.60
-58.80
-53.96
-49.70
-45.50
-41.08
-36.46
-31.98
-28.07
-25.01
-22.81
-21.19
-19.73
-18.01
-15.78
-13.05
-10.02
-7.01
-4.35
-2.27
-0.93
-0.30
-0.28
-0.63
-1.06
-1.31
-1.24
-0.87
-0.39
-0.05
0.00
-0.25
-0.67
-1.09
-1.39
-1.58
-1.74
-1.93
-2.17
-2.41
-2.57
-2.63
-2.64
-2.69
-2.87
-3.19
-3.59
-3.93
-4.13
-4.15
-4.06
-3.95
-3.86
-3.72
-3.40
-2.79
-1.84
-0.66
0.54
1.55
2.22
2.51
2.45
2.13
1.60
0.99
0.38
-0.07
-0.24
-0.11
0.22
0.59
0.77
0.65
0.22
-0.40
-1.03
-1.50
-1.71
-1.61
-1.15
-0.35
0.75
1.97
3.03
3.65
3.64
3.04
2.08
1.11
0.40
0.05
-0.02
0.02
0.01
-0.07
-0.18
-0.25
-0.23
-0.14
0.01
0.24
0.54
0.94
1.42
1.88
2.21
2.29
2.04
1.47
0.67
-0.19
-0.90
-1.33
-1.40
-1.18
-0.79
-0.38
-0.07
0.09
0.10
-0.02
-0.23
-0.48
-0.67
-0.70
-0.53
-0.17
0.28
0.65
0.87
0.92
0.92
1.01
1.29
1.81
2.47
3.16
3.72
4.04
4.06
3.81
3.35
2.82
2.32
1.91
1.60
1.33
1.08
0.85
0.66
0.50
0.35
0.08
-0.41
-1.17
-2.10
-2.99
-3.64
-3.94
-3.89
-3.65
-3.39
-3.22
-3.15
-3.12
-3.04
-2.85
-2.55
-2.16
-1.76
-1.42
-1.23
-1.25
-1.50
-1.90
-2.31
-2.54
-2.46
-2.05
-1.43
-0.77
-0.28
-0.03
0.02
0.03
0.16
0.54
1.19
2.00
2.81
3.42
3.67
3.48
2.89
1.99
1.01
0.16
-0.33
-0.37
0.04
0.73
1.49
2.10
2.44
2.46
2.22
1.83
1.37
0.88
0.39
-0.09
-0.53
-0.90
-1.13
-1.21
-1.15
-1.01
-0.86
-0.73
-0.65
-0.57
-0.49
-0.41
-0.34
-0.30
-0.27
-0.18
0.03
0.39
0.83
1.27
1.61
1.77
1.73
1.52
1.18
0.77
0.33
-0.10
-0.48
-0.82
-1.10
-1.37
-1.61
-1.81
-1.94
-1.98
-1.96
-1.90
-1.79
-1.59
-1.23
-0.71
-0.12
0.36
0.56
0.40
-0.02
-0.52
-0.90
-1.09
-1.12
-1.15
-1.28
-1.56
-1.91
-2.19
-2.25
-2.01
-1.47
-0.69
0.23
1.18
2.02
2.63
2.92
2.83
2.39
1.68
0.85
0.07
-0.50
-0.72
-0.55
-0.04
0.71
1.54
2.34
2.99
3.42
3.56
3.35
2.80
1.97
1.05
0.22
-0.35
-0.61
-0.63
-0.57
-0.61
-0.82
-1.17
-1.51
-1.73
-1.71
-1.43
-0.92
-0.23
0.54
1.31
1.96
2.42
2.60
2.48
2.10
1.52
0.85
0.17
-0.44
-0.97
-1.43
-1.85
-2.23
-2.56
-2.77
-2.81
-2.63
-2.23
-1.65
-0.95
-0.20
0.51
1.13
1.55
1.71
1.60
1.22
0.69
0.10
-0.43
-0.86
-1.20
-1.46
-1.64
-1.74
-1.71
-1.57
-1.33
-1.05
-0.79
-0.58
-0.44
-0.34
-0.31
-0.37
-0.55
-0.84
-1.17
-1.40
-1.44
-1.21
-0.79
-0.30
0.10
0.32
0.34
0.24
0.10
0.03
0.14
0.49
1.08
1.84
2.62
3.17
3.34
3.05
2.41
1.65
1.00
0.61
0.51
0.56
0.63
0.60
0.45
0.22
0.00
-0.13
-0.16
-0.08
0.06
0.22
0.36
0.47
0.56
0.70
0.92
1.24
1.66
2.15
2.68
3.18
3.60
3.85
3.85
3.54
2.92
2.04
1.02
-0.02
-0.97
-1.75
-2.33
-2.67
-2.79
-2.69
-2.46
-2.19
-2.00
-2.01
-2.23
-2.59
-2.98
-3.22
-3.18
-2.85
-2.33
-1.81
-1.49
-1.46
-1.68
-1.98
-2.19
-2.19
-2.00
-1.71
-1.40
-1.10
-0.81
-0.49
-0.18
0.06
0.17
0.17
0.15
0.21
0.39
0.60
0.65
0.34
-0.40
-1.50
-2.70
-3.72
-4.33
-4.40
-3.98
-3.18
-2.18
-1.15
-0.21
0.49
0.83
0.72
0.09
-1.01
-2.48
-4.17
-5.92
-7.54
-8.72
-8.99
-7.88
-5.10
-0.76
4.51
9.78
14.03
16.61
17.36
16.57
14.79
12.56
10.22
7.99
6.03
4.47
3.46
3.02
3.03
3.27
3.51
3.65
3.71
3.77
3.88
3.97
3.90
3.45
2.51
1.09
-0.62
-2.35
-3.82
-4.82
-5.27
-5.23
-4.87
-4.35
-3.84
-3.42
-3.12
-2.97
-2.98
-3.15
-3.46
-3.83
-4.14
-4.32
-4.32
-4.17
-3.91
-3.53
-3.01
-2.32
-1.46
-0.56
0.23
0.80
1.12
1.28
1.44
1.73
2.15
2.60
2.89
2.86
2.45
1.66
0.56
-0.74
-2.14
-3.49
-4.63
-5.36
-5.53
-5.07
-4.03
-2.61
-1.10
0.20
1.08
1.45
1.38
1.01
0.51
0.03
-0.35
-0.57
-0.59
-0.39
0.03
0.60
1.23
1.80
2.17
2.27
2.12
1.79
1.42
1.15
1.06
1.16
1.37
1.57
1.66
1.64
1.57
1.57
1.72
1.96
2.16
2.17
1.89
1.40
0.81
0.28
-0.12
-0.42
-0.70
-1.00
-1.31
-1.54
-1.63
-1.56
-1.41
-1.29
-1.31
-1.50
-1.81
-2.15
-2.45
-2.63
-2.68
-2.61
-2.42
-2.14
-1.77
-1.35
-0.92
-0.55
-0.30
-0.22
-0.30
-0.46
-0.53
-0.37
0.10
0.81
1.58
2.17
2.39
2.18
1.63
0.90
0.18
-0.40
-0.79
-1.01
-1.11
-1.11
-1.03
-0.86
-0.60
-0.31
-0.10
-0.08
-0.30
-0.68
-1.06
-1.20
-0.94
-0.30
0.56
1.41
2.06
2.46
2.69
2.89
3.11
3.29
3.33
3.13
2.72
2.24
1.83
1.60
1.55
1.59
1.64
1.64
1.60
1.54
1.45
1.27
0.94
0.41
-0.31
-1.10
-1.82
-2.35
-2.60
-2.59
-2.41
-2.15
-1.92
-1.72
-1.54
-1.33
-1.09
-0.83
-0.62
-0.51
-0.49
-0.58
-0.73
-0.95
-1.26
-1.67
-2.12
-2.52
-2.76
-2.78
-2.60
-2.28
-1.94
-1.67
-1.47
-1.33
-1.18
-0.93
-0.50
0.18
1.14
2.29
3.45
4.35
4.76
4.57
3.85
2.81
1.72
0.77
0.09
-0.31
-0.49
-0.57
-0.66
-0.87
-1.25
-1.77
-2.30
-2.68
-2.79
-2.63
-2.29
-1.91
-1.60
-1.34
-1.07
-0.69
-0.19
0.36
0.85
1.21
1.43
1.56
1.69
1.88
2.13
2.42
2.67
2.87
3.02
3.15
3.29
3.45
3.57
3.53
3.24
2.62
1.74
0.74
-0.16
-0.81
-1.10
-1.08
-0.88
-0.63
-0.42
-0.29
-0.22
-0.17
-0.14
-0.19
-0.33
-0.59
-0.93
-1.28
-1.55
-1.69
-1.76
-1.87
-2.14
-2.61
-3.19
-3.70
-3.93
-3.79
-3.32
-2.68
-2.05
-1.54
-1.19
-0.96
-0.77
-0.53
-0.19
0.32
1.01
1.87
2.76
3.50
3.90
3.81
3.26
2.41
1.51
0.82
0.48
0.51
0.78
1.12
1.39
1.53
1.57
1.57
1.54
1.47
1.31
1.02
0.61
0.16
-0.25
-0.57
-0.78
-0.92
-1.01
-1.08
-1.10
-1.05
-0.92
-0.73
-0.54
-0.42
-0.40
-0.46
-0.55
-0.57
-0.45
-0.15
0.32
0.91
1.48
1.90
2.07
1.91
1.45
0.74
-0.10
-0.95
-1.67
-2.14
-2.28
-2.08
-1.61
-1.04
-0.55
-0.30
-0.35
-0.68
-1.15
-1.62
-1.99
-2.19
-2.25
-2.22
-2.16
-2.10
-2.07
-2.10
-2.26
-2.62
-3.20
-3.91
-4.58
-5.02
-5.09
-4.77
-4.15
-3.37
-2.54
-1.74
-1.04
-0.53
-0.28
-0.33
-0.62
-0.98
-1.17
-1.03
-0.53
0.28
1.25
2.28
3.30
4.24
5.04
5.59
5.81
5.66
5.23
4.66
4.12
3.69
3.38
3.10
2.74
2.25
1.64
0.95
0.27
-0.31
-0.71
-0.87
-0.76
-0.41
0.08
0.58
0.95
1.11
1.08
0.98
0.96
1.15
1.60
2.22
2.89
3.48
3.88
4.00
3.83
3.37
2.69
1.86
1.02
0.31
-0.14
-0.30
-0.26
-0.19
-0.31
-0.73
-1.43
-2.25
-2.93
-3.27
-3.20
-2.85
-2.47
-2.29
-2.39
-2.70
-3.04
-3.26
-3.29
-3.20
-3.07
-2.97
-2.84
-2.60
-2.14
-1.40
-0.43
0.68
1.80
2.79
3.50
3.81
3.64
3.03
2.11
1.10
0.22
-0.33
-0.46
-0.17
0.45
1.25
2.05
2.67
2.95
2.84
2.37
1.69
0.99
0.43
0.13
0.07
0.21
0.45
0.71
0.94
1.10
1.17
1.15
1.04
0.84
0.59
0.32
0.06
-0.10
-0.11
0.06
0.39
0.81
1.22
1.53
1.68
1.64
1.40
0.98
0.37
-0.37
-1.13
-1.76
-2.13
-2.19
-2.01
-1.75
-1.59
-1.58
-1.63
-1.60
-1.35
-0.87
-0.31
0.13
0.27
0.09
-0.30
-0.68
-0.91
-0.92
-0.83
-0.78
-0.89
-1.16
-1.49
-1.72
-1.74
-1.53
-1.19
-0.85
-0.66
-0.66
-0.81
-1.00
-1.12
-1.12
-0.99
-0.76
-0.45
-0.01
0.58
1.32
2.11
2.74
3.00
2.81
2.20
1.37
0.55
-0.07
-0.43
-0.52
-0.40
-0.13
0.20
0.49
0.63
0.52
0.16
-0.35
-0.86
-1.22
-1.33
-1.18
-0.85
-0.46
-0.12
0.07
0.11
0.06
0.02
0.08
0.26
0.50
0.73
0.89
1.00
1.12
1.28
1.44
1.53
1.43
1.15
0.77
0.45
0.32
0.38
0.54
0.65
0.58
0.33
-0.06
-0.47
-0.83
-1.12
-1.33
-1.46
-1.48
-1.33
-0.99
-0.49
0.04
0.48
0.72
0.71
0.53
0.25
-0.03
-0.31
-0.62
-1.01
-1.53
-2.16
-2.82
-3.41
-3.81
-3.93
-3.75
-3.27
-2.56
-1.73
-0.90
-0.18
0.35
0.65
0.71
0.60
0.43
0.36
0.55
1.13
2.07
3.21
4.24
4.80
4.67
3.84
2.51
1.04
-0.24
-1.13
-1.62
-1.83
-1.91
-1.92
-1.82
-1.56
-1.13
-0.62
-0.20
-0.02
-0.15
-0.53
-1.00
-1.43
-1.71
-1.82
-1.75
-1.49
-1.03
-0.38
0.40
1.19
1.85
2.30
2.52
2.59
2.59
2.54
2.38
2.05
1.52
0.91
0.42
0.25
0.50
1.09
1.78
2.32
2.58
2.58
2.44
2.32
2.25
2.17
1.93
1.43
0.71
-0.08
-0.73
-1.08
-1.10
-0.87
-0.55
-0.28
-0.12
-0.07
-0.08
-0.14
-0.28
-0.53
-0.89
-1.29
-1.64
-1.88
-2.00
-2.11
-2.33
-2.76
-3.38
-4.07
-4.58
-4.72
-4.34
-3.50
-2.39
-1.28
-0.44
-0.03
-0.05
-0.36
-0.73
-0.91
-0.75
-0.24
0.52
1.35
2.05
2.48
2.61
2.47
2.07
1.43
0.54
-0.52
-1.62
-2.55
-3.11
-3.23
-3.00
-2.60
-2.25
-2.04
-1.96
-1.92
-1.82
-1.65
-1.42
-1.21
-1.04
-0.87
-0.65
-0.31
0.19
0.82
1.55
2.27
2.88
3.31
3.48
3.38
3.03
2.49
1.81
1.07
0.29
-0.48
-1.21
-1.82
-2.21
-2.24
-1.81
-0.84
0.63
2.49
4.50
6.35
7.69
8.29
8.09
7.23
6.02
4.80
3.82
3.14
2.66
2.21
1.64
0.92
0.12
-0.64
-1.31
-1.84
-2.28
-2.62
-2.85
-2.93
-2.84
-2.58
-2.19
-1.79
-1.52
-1.50
-1.78
-2.27
-2.74
-2.95
-2.73
-2.06
-1.11
-0.14
0.59
0.98
1.06
1.00
0.93
0.90
0.84
0.65
0.27
-0.25
-0.78
-1.16
-1.33
-1.32
-1.26
-1.27
-1.40
-1.60
-1.75
-1.73
-1.50
-1.09
-0.58
-0.08
0.36
0.68
0.84
0.81
0.63
0.37
0.18
0.20
0.47
0.93
1.42
1.73
1.76
1.53
1.18
0.86
0.69
0.71
0.86
1.04
1.21
1.32
1.38
1.40
1.37
1.31
1.21
1.08
0.94
0.76
0.56
0.31
0.01
-0.35
-0.76
-1.19
-1.61
-1.93
-2.05
-1.92
-1.54
-1.04
-0.58
-0.31
-0.28
-0.42
-0.64
-0.85
-1.07
-1.38
-1.84
-2.43
-3.00
-3.35
-3.33
-2.93
-2.29
-1.65
-1.21
-1.07
-1.17
-1.38
-1.52
-1.46
-1.07
-0.34
0.70
1.93
3.16
4.16
4.71
4.68
4.03
2.86
1.39
-0.13
-1.43
-2.32
-2.68
-2.52
-1.94
-1.11
-0.20
0.64
1.29
1.70
1.82
1.67
1.30
0.86
0.52
0.43
0.61
0.98
1.37
1.60
1.56
1.21
0.59
-0.16
-0.88
-1.39
-1.54
-1.31
-0.80
-0.25
0.14
0.24
0.13
-0.03
-0.02
0.26
0.78
1.42
2.03
2.50
2.79
2.84
2.63
2.16
1.48
0.72
0.00
-0.57
-0.98
-1.28
-1.56
-1.84
-2.10
-2.27
-2.26
-2.08
-1.75
-1.38
-1.01
-0.70
-0.46
-0.32
-0.30
-0.41
-0.65
-0.98
-1.34
-1.69
-2.01
-2.30
-2.57
-2.77
-2.85
-2.71
-2.35
-1.82
-1.25
-0.79
-0.50
-0.37
-0.28
-0.11
0.17
0.55
0.93
1.19
1.27
1.20
1.06
0.99
1.11
1.48
2.05
2.71
3.26
3.56
3.54
3.26
2.81
2.31
1.82
1.32
0.77
0.19
-0.35
-0.73
-0.84
-0.67
-0.28
0.19
0.59
0.81
0.82
0.65
0.39
0.15
0.02
0.05
0.22
0.46
0.69
0.84
0.92
0.96
1.04
1.17
1.36
1.55
1.64
1.61
1.42
1.12
0.71
0.20
-0.41
-1.08
-1.74
-2.29
-2.60
-2.63
-2.41
-2.03
-1.60
-1.17
-0.74
-0.27
0.24
0.73
1.13
1.35
1.35
1.17
0.82
0.32
-0.31
-1.00
-1.66
-2.17
-2.44
-2.49
-2.40
-2.27
-2.18
-2.14
-2.11
-2.05
-1.97
-1.88
-1.75
-1.50
-1.02
-0.25
0.76
1.84
2.73
3.21
3.16
2.60
1.71
0.77
0.03
-0.31
-0.22
0.23
0.86
1.45
1.87
2.04
1.97
1.66
1.18
0.58
-0.08
-0.68
-1.10
-1.25
-1.17
-0.97
-0.82
-0.80
-0.89
-0.93
-0.74
-0.20
0.64
1.58
2.36
2.78
2.78
2.45
1.94
1.39
0.89
0.42
-0.02
-0.42
-0.72
-0.84
-0.77
-0.54
-0.26
-0.04
0.04
-0.04
-0.26
-0.59
-0.98
-1.41
-1.82
-2.16
-2.33
-2.28
-1.98
-1.48
-0.86
-0.25
0.28
0.66
0.86
0.86
0.67
0.29
-0.21
-0.74
-1.20
-1.51
-1.68
-1.74
-1.74
-1.75
-1.75
-1.74
-1.67
-1.53
-1.31
-0.97
-0.49
0.18
1.05
2.04
2.99
3.72
4.07
3.94
3.37
2.44
1.30
0.10
-1.05
-2.03
-2.77
-3.21
-3.29
-2.98
-2.30
-1.35
-0.31
0.62
1.24
1.43
1.23
0.80
0.34
0.04
-0.00
0.19
0.55
0.95
1.30
1.54
1.65
1.65
1.58
1.50
1.47
1.52
1.66
1.85
2.06
2.22
2.28
2.21
2.01
1.72
1.40
1.11
0.86
0.65
0.43
0.18
-0.05
-0.26
-0.42
-0.57
-0.80
-1.19
-1.73
-2.30
-2.73
-2.86
-2.65
-2.19
-1.67
-1.29
-1.13
-1.14
-1.18
-1.07
-0.77
-0.33
0.09
0.31
0.24
-0.09
-0.53
-0.94
-1.19
-1.26
-1.18
-0.98
-0.67
-0.27
0.21
0.72
1.17
1.51
1.72
1.82
1.84
1.81
1.69
1.48
1.15
0.77
0.40
0.10
-0.11
-0.26
-0.39
-0.51
-0.58
-0.54
-0.35
-0.05
0.25
0.39
0.29
-0.07
-0.60
-1.15
-1.58
-1.85
-1.94
-1.91
-1.84
-1.77
-1.69
-1.59
-1.42
-1.15
-0.79
-0.37
0.07
0.45
0.74
0.94
1.09
1.24
1.46
1.77
2.16
2.56
2.88
3.02
2.91
2.52
1.90
1.09
0.22
-0.61
-1.25
-1.58
-1.54
-1.15
-0.53
0.09
0.54
0.66
0.44
-0.03
-0.63
-1.25
-1.79
-2.21
-2.48
-2.58
-2.52
-2.35
-2.13
-1.93
-1.80
-1.73
-1.66
-1.53
-1.32
-0.99
-0.58
-0.13
0.31
0.68
0.94
1.06
1.07
1.08
1.21
1.54
2.08
2.66
3.09
3.16
2.82
2.16
1.44
0.86
0.56
0.48
0.44
0.26
-0.15
-0.71
-1.22
-1.45
-1.27
-0.68
0.17
1.06
1.77
2.20
2.33
2.24
1.98
1.55
0.95
0.18
-0.70
-1.53
-2.17
-2.48
-2.44
-2.13
-1.69
-1.22
-0.78
-0.35
0.15
0.76
1.43
2.04
2.43
2.42
1.94
1.03
-0.11
-1.27
-2.19
-2.75
-2.88
-2.68
-2.26
-1.78
-1.36
-1.07
-0.93
-0.93
-1.04
-1.19
-1.32
-1.35
-1.24
-1.01
-0.73
-0.52
-0.50
-0.69
-1.03
-1.34
-1.47
-1.36
-1.07
-0.78
-0.66
-0.79
-1.09
-1.43
-1.65
-1.66
-1.46
-1.06
-0.44
0.40
1.44
2.54
3.47
3.96
3.88
3.29
2.40
1.50
0.84
0.52
0.51
0.68
0.93
1.15
1.29
1.28
1.06
0.60
-0.07
-0.82
-1.49
-1.92
-2.07
-1.99
-1.81
-1.62
-1.42
-1.13
-0.65
0.06
0.92
1.77
2.45
2.87
3.08
3.17
3.22
3.27
3.28
3.20
3.02
2.80
2.60
2.47
2.35
2.12
1.68
0.97
0.08
-0.79
-1.42
-1.67
-1.54
-1.20
-0.87
-0.70
-0.78
-1.02
-1.30
-1.49
-1.54
-1.46
-1.34
-1.27
-1.34
-1.59
-2.00
-2.49
-2.90
-3.10
-3.00
-2.62
-2.10
-1.62
-1.32
-1.21
-1.17
-1.04
-0.67
-0.02
0.78
1.59
2.23
2.62
2.76
2.68
2.41
1.94
1.26
0.43
-0.38
-0.98
-1.14
-0.78
-0.04
0.82
1.47
1.70
1.46
0.91
0.29
-0.19
-0.40
-0.41
-0.35
-0.35
-0.46
-0.63
-0.74
-0.70
-0.46
-0.07
0.38
0.83
1.23
1.57
1.80
1.90
1.79
1.48
1.05
0.67
0.51
0.66
1.06
1.56
1.97
2.12
1.97
1.57
1.01
0.36
-0.31
-0.95
-1.54
-2.03
-2.38
-2.54
-2.52
-2.31
-1.95
-1.49
-0.99
-0.51
-0.13
0.10
0.17
0.12
-0.02
-0.19
-0.39
-0.66
-1.02
-1.45
-1.89
-2.23
-2.38
-2.30
-2.00
-1.55
-1.05
-0.61
-0.29
-0.19
-0.35
-0.71
-1.17
-1.50
-1.48
-0.99
-0.10
0.95
1.81
2.18
1.92
1.16
0.17
-0.67
-1.11
-1.03
-0.55
0.13
0.78
1.26
1.51
1.56
1.44
1.19
0.81
0.33
-0.16
-0.52
-0.61
-0.38
0.11
0.69
1.15
1.34
1.23
0.91
0.52
0.23
0.09
0.13
0.30
0.52
0.72
0.85
0.83
0.61
0.19
-0.40
-1.09
-1.77
-2.42
-3.04
-3.69
-4.40
-5.15
-5.87
-6.50
-7.00
-7.39
-7.74
-8.09
-8.48
-8.92
-9.41
-9.99
-10.69
-11.53
-12.49
-13.55
-14.73
-16.01
-17.36
-18.68
-19.87
-20.91
-21.93
-23.21
-25.08
-27.77
-31.27
-35.31
-39.46
-43.29
-46.49
-48.98
-50.95
-52.78
-54.93
-57.75
-61.44
-65.85
-70.54
-74.85
-78.11
-79.88
-80.33
-80.42
-81.72
-85.81
-93.20
-102.41
-109.68
-109.74
-97.32
-68.97
-24.50
32.58
95.82
157.32
209.76
248.14
270.81
279.58
278.95
274.64
271.77
273.26
278.86
285.16
286.76
278.04
255.05
217.12
167.41
112.19
59.16
15.24
-15.40
-32.30
-38.56
-39.48
-40.68
-46.18
-57.32
-72.62
-88.77
-102.10
-110.05
-111.87
-108.41
-101.31
-92.22
-82.51
-73.42
-66.38
-62.81
-63.42
-67.42
-72.32
-74.69
-71.73
-62.67
-49.20
-34.91
-23.57
-17.54
-16.91
-19.79
-23.47
-25.67
-25.35
-22.80
-19.06
-15.31
-12.31
-10.34
-9.31
-9.01
-9.27
-9.94
-10.81
-11.57
-11.82
-11.27
-9.88
-7.84
-5.53
-3.31
-1.39
0.13
1.18
1.66
1.38
0.24
-1.69
-4.10
-6.43
-8.05
-8.43
-7.35
-4.91
-1.54
2.10
5.20
6.99
6.93
4.93
1.47
-2.41
-5.50
-6.86
-6.27
-4.30
-2.02
-0.50
-0.24
-1.05
-2.18
-2.79
-2.41
-1.08
0.72
2.45
3.81
4.81
5.75
6.94
8.50
10.22
11.64
12.28
11.80
10.23
7.96
5.53
3.40
1.75
0.50
-0.63
-1.88
-3.26
-4.53
-5.30
-5.19
-4.04
-2.05
0.28
2.28
3.38
3.39
2.47
1.15
-0.00
-0.61
-0.62
-0.25
0.18
0.44
0.48
0.40
0.20
-0.23
-1.13
-2.70
-4.83
-7.09
-8.83
-9.49
-8.86
-7.18
-5.05
-3.10
-1.78
-1.14
-1.02
-1.16
-1.41
-1.73
-2.15
-2.68
-3.31
-4.04
-4.93
-6.08
-7.53
-9.17
-10.79
-12.11
-12.92
-13.16
-12.93
-12.46
-12.04
-11.92
-12.35
-13.45
-15.21
-17.38
-19.61
-21.56
-23.09
-24.44
-26.12
-28.65
-32.31
-36.89
-41.78
-46.22
-49.77
-52.61
-55.49
-59.38
-64.92
-72.05
-79.95
-87.53
-93.99
-99.33
-104.21
-109.45
-115.50
-122.24
-129.32
-136.62
-144.17
-151.65
-157.68
-159.70
-154.84
-141.24
-119.11
-90.64
-58.63
-24.66
11.88
53.21
101.13
154.97
210.66
261.91
302.72
329.85
343.94
348.86
349.52
349.83
351.50
354.26
356.81
357.92
356.77
352.61
344.21
329.77
307.42
276.11
236.27
189.60
138.25
84.12
28.58
-26.95
-80.17
-127.67
-165.60
-191.05
-203.33
-204.36
-197.84
-187.72
-176.83
-166.38
-156.29
-146.23
-136.33
-127.20
-119.58
-113.59
-108.63
-103.59
-97.46
-89.87
-81.26
-72.67
-65.21
-59.58
-55.75
-53.11
-50.73
-47.80
-43.94
-39.29
-34.32
-29.56
-25.37
-21.83
-18.78
-15.97
-13.20
-10.41
-7.70
-5.30
-3.44
-2.29
-1.85
-1.94
-2.25
-2.47
-2.40
-1.98
-1.35
-0.67
-0.13
0.23
0.42
0.47
0.41
0.20
-0.14
-0.60
-1.09
-1.48
-1.72
-1.78
-1.74
-1.67
-1.63
-1.66
-1.77
-1.95
-2.18
-2.42
-2.59
-2.64
-2.50
-2.18
-1.74
-1.25
-0.78
-0.37
-0.05
0.14
0.17
0.08
-0.09
-0.25
-0.32
-0.25
-0.06
0.22
0.56
0.94
1.34
1.67
1.87
1.83
1.57
1.19
0.88
0.78
0.91
1.17
1.40
1.43
1.21
0.80
0.31
-0.14
-0.51
-0.80
-1.01
-1.17
-1.21
-1.08
-0.75
-0.26
0.26
0.64
0.74
0.52
0.07
-0.44
-0.83
-0.96
-0.81
-0.49
-0.16
0.01
-0.06
-0.39
-0.87
-1.37
-1.76
-1.94
-1.88
-1.62
-1.27
-1.01
-0.96
-1.21
-1.75
-2.47
-3.19
-3.71
-3.89
-3.69
-3.17
-2.51
-1.92
-1.60
-1.67
-2.10
-2.78
-3.51
-4.08
-4.30
-4.08
-3.38
-2.34
-1.19
-0.29
0.06
-0.36
-1.58
-3.44
-5.64
-7.89
-10.00
-11.85
-13.42
-14.64
-15.50
-16.01
-16.34
-16.72
-17.37
-18.30
-19.22
-19.72
-19.50
-18.64
-17.59
-17.02
-17.43
-19.05
-21.84
-25.68
-30.21
-34.30
-35.57
-30.66
-16.37
8.62
42.45
80.25
115.70
143.17
159.26
163.02
155.14
137.03
110.54
78.32
44.27
13.03
-11.25
-26.46
-33.21
-34.24
-32.87
-31.52
-31.05
-31.08
-30.87
-29.94
-28.38
-26.52
-24.67
-22.90
-21.18
-19.42
-17.63
-15.95
-14.62
-13.82
-13.61
-13.84
-14.16
-14.20
-13.69
-12.64
-11.30
-10.02
-9.09
-8.57
-8.26
-7.86
-7.13
-6.05
-4.76
-3.53
-2.56
-1.92
-1.55
-1.35
-1.21
-1.11
-1.03
-0.95
-0.86
-0.74
-0.64
-0.63
-0.77
-1.09
-1.51
-1.87
-2.03
-1.88
-1.43
-0.77
-0.04
0.60
1.04
1.22
1.16
0.95
0.74
0.67
0.83
1.21
1.73
2.23
2.58
2.72
2.63
2.40
2.13
1.92
1.81
1.82
1.90
1.98
1.97
1.81
1.47
0.94
0.28
-0.41
-1.03
-1.46
-1.64
-1.53
-1.20
-0.75
-0.36
-0.15
-0.22
-0.53
-0.93
-1.30
-1.49
-1.48
-1.34
-1.16
-1.04
-1.01
-1.06
-1.16
-1.25
-1.28
-1.18
-0.89
-0.41
0.17
0.72
1.11
1.27
1.20
1.01
0.77
0.53
0.30
0.05
-0.25
-0.55
-0.80
-0.94
-0.98
-0.98
-0.99
-1.05
-1.18
-1.33
-1.48
-1.57
-1.60
-1.54
-1.40
-1.15
-0.83
-0.48
-0.17
0.03
0.07
-0.03
-0.17
-0.16
0.13
0.80
1.75
2.79
3.62
