1660929273.00
64.000000
-0.00
-0.00
-0.00
-0.00
-0.00
-0.00
-0.00
-0.00
-0.00
-0.00
0.00
0.01
0.01
-0.00
-0.03
-0.05
-0.05
0.00
0.13
0.36
0.66
1.01
1.37
1.72
2.06
2.40
2.79
3.25
3.81
4.44
5.10
5.73
6.32
6.90
7.52
8.26
9.15
10.28
11.52
12.76
13.88
14.85
15.74
16.75
18.10
19.94
22.45
25.41
28.53
31.52
34.25
36.85
39.67
43.18
47.67
53.45
60.11
67.08
73.82
80.05
85.99
92.25
99.56
108.40
119.13
131.06
143.28
154.92
165.63
175.75
186.20
198.42
210.98
225.77
242.99
262.46
282.99
302.02
315.77
320.12
311.90
290.00
256.23
213.73
166.33
117.26
68.50
21.03
-24.61
-67.89
-108.31
-145.40
-179.80
-212.83
-246.19
-281.14
-317.63
-353.75
-385.77
-409.30
-420.52
-417.87
-402.67
-378.67
-350.54
-322.17
-295.60
-271.00
-247.62
-224.72
-202.45
-181.61
-162.99
-146.74
-132.27
-118.51
-104.61
-90.34
-76.15
-62.94
-51.52
-42.21
-34.72
-28.35
-22.28
-15.99
-9.38
-2.80
3.20
8.11
11.73
14.23
16.08
17.76
19.63
21.71
23.77
25.47
26.53
26.88
26.65
26.09
25.43
24.82
24.29
23.83
23.42
23.08
22.82
22.66
22.58
22.54
22.45
22.22
21.81
21.18
20.37
19.44
18.48
17.56
16.76
16.09
15.53
15.05
14.59
14.12
13.64
13.15
12.69
12.30
12.00
11.80
11.67
11.54
11.35
11.04
10.60
10.11
9.67
9.38
9.25
9.20
9.11
8.92
8.60
8.25
7.93
7.69
7.48
7.25
7.00
6.75
6.61
6.59
6.64
6.65
6.51
6.17
5.72
5.26
4.88
4.57
4.23
3.76
3.11
2.39
1.75
1.32
1.15
1.12
1.07
0.82
0.32
-0.37
-1.10
-1.77
-2.35
-2.88
-3.44
-4.07
-4.76
-5.44
-6.06
-6.63
-7.17
-7.74
-8.35
-8.96
-9.49
-9.82
-9.87
-9.62
-9.11
-8.47
-7.83
-7.30
-6.95
-6.76
-6.65
-6.50
-6.22
-5.78
-5.20
-4.54
-3.86
-3.24
-2.69
-2.21
-1.76
-1.31
-0.88
-0.48
-0.10
0.28
0.72
1.23
1.77
2.24
2.57
2.73
2.78
2.81
2.89
3.04
3.18
3.28
3.30
3.30
3.33
3.41
3.54
3.64
3.69
3.70
3.73
3.81
3.93
4.04
4.07
4.02
3.93
3.86
3.86
3.94
4.03
4.09
4.12
4.16
4.29
4.54
4.86
5.15
5.26
5.13
4.81
4.42
4.10
3.93
3.87
3.82
3.69
3.44
3.07
2.69
2.39
2.24
2.25
2.38
2.57
2.75
2.88
2.94
2.97
3.01
3.10
3.24
3.38
3.46
3.40
3.20
2.87
2.49
2.13
1.85
1.68
1.63
1.69
1.82
1.97
2.07
2.05
1.84
1.47
0.97
0.45
0.02
-0.26
-0.35
-0.26
-0.02
0.32
0.68
0.95
1.04
0.90
0.56
0.17
-0.14
-0.23
-0.08
0.22
0.49
0.59
0.44
0.10
-0.24
-0.37
-0.17
0.37
1.07
1.71
2.09
2.11
1.86
1.52
1.27
1.20
1.29
1.41
1.44
1.34
1.15
0.98
0.92
0.96
1.05
1.11
1.10
1.03
0.95
0.91
0.92
0.96
0.98
0.91
0.75
0.49
0.19
-0.12
-0.40
-0.61
-0.72
-0.70
-0.51
-0.13
0.37
0.89
1.28
1.44
1.36
1.14
0.95
0.90
1.04
1.27
1.46
1.49
1.32
0.99
0.59
0.21
-0.06
-0.21
-0.21
-0.07
0.16
0.45
0.74
0.95
1.03
0.97
0.84
0.76
0.79
0.95
1.16
1.31
1.28
1.01
0.55
0.03
-0.41
-0.64
-0.62
-0.35
0.07
0.50
0.84
1.03
1.09
1.07
1.04
1.03
1.00
0.93
0.81
0.67
0.60
0.66
0.86
1.15
1.43
1.61
1.63
1.50
1.28
1.05
0.88
0.79
0.77
0.74
0.65
0.46
0.19
-0.06
-0.19
-0.12
0.12
0.45
0.72
0.82
0.71
0.45
0.14
-0.10
-0.22
-0.21
-0.11
-0.01
0.03
-0.02
-0.17
-0.38
-0.58
-0.69
-0.68
-0.56
-0.37
-0.18
-0.02
0.15
0.35
0.61
0.87
1.08
1.15
1.09
0.94
0.80
0.73
0.71
0.67
0.58
0.40
0.20
0.07
0.05
0.13
0.23
0.25
0.18
0.06
-0.03
-0.02
0.06
0.16
0.19
0.10
-0.08
-0.24
-0.29
-0.18
0.07
0.35
0.54
0.59
0.53
0.43
0.42
0.53
0.72
0.90
0.93
0.73
0.35
-0.14
-0.58
-0.89
-1.03
-1.05
-1.00
-0.93
-0.85
-0.74
-0.57
-0.32
-0.02
0.28
0.54
0.73
0.88
1.00
1.10
1.14
1.05
0.81
0.47
0.15
-0.05
-0.08
0.03
0.19
0.34
0.45
0.52
0.59
0.64
0.66
0.61
0.51
0.41
0.37
0.42
0.56
0.70
0.78
0.79
0.74
0.69
0.68
0.73
0.82
0.92
0.98
0.97
0.87
0.64
0.29
-0.16
-0.64
-1.08
-1.38
-1.48
-1.40
-1.20
-0.99
-0.84
-0.80
-0.85
-0.93
-1.00
-1.03
-1.05
-1.08
-1.11
-1.13
-1.06
-0.88
-0.60
-0.29
-0.02
0.18
0.30
0.38
0.46
0.54
0.61
0.64
0.63
0.61
0.64
0.76
0.97
1.20
1.37
1.44
1.37
1.21
1.01
0.79
0.57
0.37
0.19
0.08
0.09
0.22
0.44
0.68
0.86
0.92
0.88
0.77
0.61
0.44
0.27
0.11
-0.04
-0.18
-0.36
-0.59
-0.85
-1.11
-1.28
-1.30
-1.20
-1.02
-0.86
-0.75
-0.66
-0.53
-0.35
-0.16
-0.07
-0.18
-0.50
-0.93
-1.29
-1.45
-1.35
-1.05
-0.65
-0.30
-0.06
0.07
0.09
0.06
-0.01
-0.05
-0.03
0.12
0.42
0.84
1.28
1.59
1.70
1.59
1.33
1.02
0.75
0.56
0.43
0.34
0.30
0.34
0.46
0.64
0.79
0.83
0.68
0.35
-0.06
-0.45
-0.72
-0.80
-0.75
-0.65
-0.58
-0.60
-0.70
-0.84
-0.92
-0.90
-0.75
-0.52
-0.24
0.04
0.30
0.57
0.85
1.14
1.39
1.55
1.54
1.37
1.08
0.77
0.50
0.31
0.19
0.08
-0.02
-0.11
-0.12
-0.04
0.13
0.30
0.38
0.33
0.21
0.12
0.17
0.37
0.62
0.80
0.83
0.72
0.60
0.64
0.92
1.38
1.83
2.06
1.91
1.39
0.64
-0.11
-0.64
-0.86
-0.79
-0.56
-0.30
-0.10
0.00
0.03
0.00
-0.12
-0.36
-0.71
-1.12
-1.46
-1.63
-1.59
-1.38
-1.10
-0.89
-0.78
-0.76
-0.75
-0.68
-0.52
-0.28
-0.04
0.15
0.27
0.34
0.40
0.46
0.51
0.47
0.24
-0.22
-0.89
-1.63
-2.27
-2.60
-2.51
-2.03
-1.27
-0.43
0.33
0.90
1.28
1.51
1.64
1.71
1.66
1.44
0.99
0.34
-0.44
-1.24
-1.93
-2.42
-2.70
-2.79
-2.71
-2.53
-2.27
-1.93
-1.52
-1.03
-0.45
0.18
0.83
1.43
1.94
2.36
2.73
3.12
3.61
4.19
4.73
5.06
5.01
4.48
3.55
2.40
1.26
0.27
-0.52
-1.13
-1.63
-2.02
-2.29
-2.37
-2.24
-1.94
-1.54
-1.14
-0.84
-0.69
-0.70
-0.85
-1.10
-1.36
-1.53
-1.53
-1.30
-0.89
-0.38
0.12
0.50
0.71
0.78
0.78
0.81
0.92
1.13
1.43
1.75
2.00
2.11
2.06
1.90
1.69
1.49
1.32
1.18
0.99
0.73
0.38
0.00
-0.35
-0.64
-0.87
-1.10
-1.37
-1.69
-1.98
-2.12
-2.02
-1.62
-0.98
-0.28
0.28
0.50
0.32
-0.22
-0.95
-1.69
-2.30
-2.75
-3.08
-3.35
-3.55
-3.60
-3.37
-2.81
-1.94
-0.87
0.20
1.09
1.67
1.89
1.79
1.47
1.08
0.77
0.64
0.69
0.86
1.04
1.18
1.27
1.38
1.59
1.91
2.24
2.42
2.29
1.78
0.94
-0.08
-1.04
-1.75
-2.08
-2.01
-1.63
-1.06
-0.45
0.09
0.49
0.70
0.72
0.56
0.27
-0.08
-0.37
-0.51
-0.45
-0.23
0.03
0.21
0.22
0.09
-0.06
-0.05
0.21
0.71
1.32
1.89
2.29
2.47
2.42
2.21
1.93
1.64
1.41
1.27
1.20
1.14
1.03
0.81
0.45
-0.02
-0.54
-1.03
-1.39
-1.53
-1.40
-1.04
-0.53
-0.02
0.35
0.51
0.49
0.33
0.11
-0.17
-0.51
-0.93
-1.41
-1.90
-2.33
-2.64
-2.85
-3.02
-3.18
-3.37
-3.50
-3.50
-3.26
-2.77
-2.11
-1.44
-0.95
-0.71
-0.68
-0.68
-0.51
-0.05
0.69
1.58
2.43
3.08
3.47
3.60
3.51
3.25
2.86
2.39
1.87
1.33
0.82
0.35
-0.08
-0.42
-0.63
-0.64
-0.43
0.00
0.57
1.14
1.54
1.67
1.47
0.95
0.25
-0.48
-1.09
-1.49
-1.66
-1.62
-1.44
-1.18
-0.89
-0.61
-0.36
-0.11
0.11
0.31
0.46
0.55
0.60
0.66
0.79
1.04
1.41
1.79
2.04
2.05
1.78
1.25
0.59
-0.06
-0.59
-0.94
-1.14
-1.23
-1.30
-1.42
-1.61
-1.87
-2.16
-2.45
-2.71
-2.91
-2.96
-2.79
-2.35
-1.65
-0.79
0.07
0.78
1.23
1.41
1.34
1.07
0.62
0.05
-0.55
-1.09
-1.47
-1.63
-1.54
-1.24
-0.76
-0.16
0.54
1.29
2.06
2.79
3.51
4.20
4.84
5.32
5.49
5.16
4.22
2.75
0.98
-0.76
-2.11
-2.85
-2.91
-2.39
-1.52
-0.52
0.39
1.02
1.30
1.17
0.69
-0.01
-0.80
-1.48
-1.94
-2.11
-2.00
-1.68
-1.23
-0.74
-0.26
0.17
0.52
0.76
0.86
0.82
0.68
0.52
0.41
0.42
0.53
0.69
0.83
0.93
1.03
1.21
1.50
1.86
2.13
2.16
1.82
1.10
0.13
-0.88
-1.72
-2.21
-2.27
-1.95
-1.35
-0.65
-0.02
0.43
0.59
0.46
0.05
-0.54
-1.18
-1.77
-2.25
-2.63
-2.96
-3.32
-3.73
-4.15
-4.52
-4.76
-4.87
-4.85
-4.77
-4.65
-4.48
-4.20
-3.73
-2.96
-1.79
-0.25
1.57
3.44
5.05
6.14
6.58
6.36
5.62
4.55
3.31
2.10
1.09
0.42
0.20
0.43
1.01
1.71
2.34
2.74
2.81
2.61
2.21
1.79
1.50
1.49
1.78
2.30
2.89
3.37
3.58
3.51
3.20
2.79
2.39
2.09
1.96
2.03
2.27
2.64
3.03
3.35
3.54
3.58
3.50
3.29
2.94
2.41
1.66
0.67
-0.57
-2.00
-3.51
-4.94
-6.10
-6.81
-6.98
-6.66
-6.01
-5.23
-4.49
-3.91
-3.50
-3.28
-3.24
-3.35
-3.56
-3.76
-3.82
-3.62
-3.15
-2.54
-1.99
-1.70
-1.77
-2.12
-2.52
-2.68
-2.35
-1.54
-0.42
0.67
1.42
1.63
1.36
0.80
0.24
-0.09
-0.07
0.31
0.95
1.69
2.35
2.80
2.92
2.73
2.31
1.80
1.35
1.05
0.95
1.00
1.17
1.38
1.58
1.75
1.86
1.88
1.83
1.71
1.53
1.33
1.18
1.13
1.21
1.38
1.52
1.49
1.16
0.53
-0.29
-1.15
-1.90
-2.52
-3.03
-3.51
-3.93
-4.21
-4.18
-3.76
-2.99
-2.04
-1.18
-0.61
-0.46
-0.65
-1.04
-1.44
-1.71
-1.80
-1.75
-1.62
-1.48
-1.40
-1.44
-1.66
-2.07
-2.63
-3.20
-3.57
-3.54
-3.03
-2.10
-1.01
-0.07
0.45
0.46
0.06
-0.52
-0.95
-0.97
-0.41
0.74
2.36
4.25
6.19
7.99
9.52
10.73
11.62
12.18
12.42
12.31
11.87
11.10
10.00
8.61
6.95
5.07
3.01
0.89
-1.20
-3.13
-4.79
-6.11
-7.09
-7.78
-8.28
-8.71
-9.12
-9.49
-9.74
-9.78
-9.54
-9.03
-8.33
-7.48
-6.52
-5.46
-4.30
-3.11
-1.97
-0.95
-0.05
0.75
1.52
2.26
2.93
3.40
3.59
3.49
3.19
2.89
2.75
2.86
3.16
3.52
3.75
3.76
3.53
3.11
2.62
2.12
1.63
1.15
0.63
0.08
-0.42
-0.80
-0.99
-0.97
-0.76
-0.43
-0.07
0.20
0.29
0.12
-0.29
-0.81
-1.28
-1.50
-1.39
-1.00
-0.47
0.01
0.28
0.32
0.21
0.08
0.04
0.17
0.41
0.68
0.85
0.87
0.75
0.58
0.49
0.55
0.72
0.89
0.94
0.80
0.51
0.18
-0.07
-0.16
-0.10
0.03
0.11
0.07
-0.15
-0.54
-1.04
-1.55
-1.96
-2.19
-2.19
-1.99
-1.67
-1.31
-1.00
-0.77
-0.63
-0.55
-0.51
-0.46
-0.37
-0.22
-0.03
0.15
0.28
0.33
0.32
0.25
0.19
0.17
0.19
0.26
0.35
0.44
0.53
0.61
0.66
0.69
0.72
0.74
0.77
0.81
0.80
0.72
0.54
0.28
-0.00
-0.23
-0.33
-0.29
-0.15
-0.00
0.03
-0.10
-0.40
-0.75
-1.01
-1.06
-0.86
-0.47
-0.03
0.32
0.51
0.53
0.45
0.35
0.25
0.12
-0.08
-0.40
-0.80
-1.18
-1.45
-1.53
-1.42
-1.21
-0.99
-0.86
-0.83
-0.85
-0.82
-0.63
-0.24
0.28
0.83
1.35
1.79
2.17
2.51
2.79
2.92
2.83
2.52
2.04
1.56
1.22
1.07
1.10
1.17
1.19
1.07
0.83
0.49
0.10
-0.31
-0.72
-1.10
-1.43
-1.73
-2.01
-2.27
-2.52
-2.72
-2.86
-2.89
-2.84
-2.72
-2.59
-2.48
-2.41
-2.33
-2.21
-2.03
-1.81
-1.58
-1.41
-1.29
-1.19
-1.06
-0.83
-0.47
-0.01
0.50
1.01
1.49
1.92
2.29
2.55
2.64
2.55
2.33
2.08
1.87
1.77
1.71
1.58
1.24
0.69
0.00
-0.63
-1.04
-1.18
-1.13
-1.04
-1.06
-1.27
-1.61
-1.94
-2.15
-2.14
-1.94
-1.66
-1.44
-1.37
-1.46
-1.64
-1.80
-1.84
-1.72
-1.49
-1.25
-1.07
-0.98
-0.91
-0.83
-0.70
-0.54
-0.43
-0.39
-0.43
-0.50
-0.53
-0.52
-0.51
-0.58
-0.78
-1.12
-1.53
-1.89
-2.11
-2.19
-2.20
-2.23
-2.35
-2.56
-2.79
-2.99
-3.14
-3.28
-3.51
-3.89
-4.46
-5.16
-5.95
-6.72
-7.30
-7.49
-7.03
-5.83
-4.03
-2.10
-0.75
-0.64
-2.17
-5.23
-9.26
-13.44
-16.99
-19.48
-20.98
-21.98
-23.20
-25.25
-28.39
-32.40
-36.70
-40.64
-43.84
-46.41
-48.90
-52.06
-56.40
-61.93
-68.13
-74.13
-79.16
-82.90
-85.64
-88.17
-91.39
-96.04
-102.53
-111.10
-121.81
-134.30
-147.26
-157.94
-162.54
-157.52
-141.34
-115.61
-84.63
-53.51
-25.78
-2.14
18.94
39.21
58.68
75.19
85.84
89.18
86.59
81.88
79.24
81.07
86.89
93.98
99.11
100.19
97.06
91.09
84.28
78.34
74.28
72.32
72.19
73.36
75.24
77.35
79.28
80.70
81.26
80.58
78.33
74.41
69.09
62.99
56.95
51.69
47.59
44.54
42.08
39.67
36.92
33.82
30.67
27.93
25.99
24.96
24.62
24.57
24.43
24.07
23.77
24.14
25.90
29.57
35.27
42.71
51.28
60.40
69.71
79.14
88.77
98.66
108.68
118.51
127.86
136.61
144.99
153.46
162.42
171.98
181.90
191.77
201.20
209.83
217.07
221.70
221.81
215.21
200.15
176.14
144.15
106.05
63.65
18.07
-30.17
-80.11
-129.32
-173.65
-208.24
-229.40
-236.23
-231.12
-218.68
-203.76
-189.72
-177.67
-166.97
-156.50
-145.70
-134.97
-125.25
-117.25
-110.99
-105.72
-100.40
-94.23
-86.99
-79.22
-71.81
-65.53
-60.71
-57.00
-53.64
-49.81
-45.09
-39.59
-33.92
-28.80
-24.71
-21.63
-19.15
-16.67
-13.76
-10.34
-6.74
-3.49
-1.07
0.26
0.56
0.17
-0.50
-1.05
-1.26
-1.07
-0.57
0.09
0.75
1.26
1.51
1.47
1.15
0.66
0.13
-0.30
-0.53
-0.54
-0.40
-0.20
-0.07
-0.10
-0.38
-0.94
-1.76
-2.80
-3.95
-5.11
-6.15
-6.99
-7.55
-7.84
-7.85
-7.61
-7.13
-6.42
-5.54
-4.56
-3.58
-2.71
-2.03
-1.55
-1.25
-1.10
-1.04
-1.03
-1.06
-1.11
-1.14
-1.06
-0.77
-0.19
0.71
1.83
3.02
4.09
4.85
5.26
5.35
5.26
5.11
4.98
4.86
4.73
4.59
4.45
4.36
4.30
4.20
3.94
3.42
2.64
1.68
0.70
-0.16
-0.84
-1.39
-1.88
-2.36
-2.79
-3.09
-3.21
-3.13
-2.95
-2.78
-2.68
-2.65
-2.64
-2.59
-2.52
-2.50
-2.65
-3.02
-3.57
-4.15
-4.57
-4.65
-4.36
-3.78
-3.09
-2.49
-2.16
-2.10
-2.22
-2.26
-2.00
-1.24
0.05
1.74
3.60
5.33
6.68
7.42
7.43
6.67
5.24
3.35
1.31
-0.55
-1.94
-2.66
-2.68
-2.08
-1.07
0.06
0.99
1.46
1.34
0.68
-0.28
-1.21
-1.82
-1.95
-1.61
-0.96
-0.21
0.49
1.07
1.51
1.84
2.10
2.26
2.33
2.31
2.25
2.21
2.25
2.40
2.62
2.86
3.04
3.09
2.98
2.71
2.36
1.98
1.62
1.24
0.80
0.24
-0.42
-1.05
-1.53
-1.74
-1.66
-1.40
-1.15
-1.06
-1.21
-1.59
-2.12
-2.74
-3.38
-3.99
-4.52
-4.93
-5.18
-5.27
-5.20
-4.98
-4.62
-4.10
-3.45
-2.76
-2.15
-1.76
-1.68
-1.85
-2.08
-2.07
-1.52
-0.30
1.50
3.54
5.32
6.40
6.50
5.66
4.16
2.43
0.87
-0.25
-0.84
-0.94
-0.67
-0.18
0.38
0.84
1.10
1.05
0.71
0.20
-0.33
-0.70
-0.82
-0.67
-0.36
0.01
0.39
0.78
1.27
1.92
2.74
3.64
4.47
5.06
5.32
5.28
5.04
4.74
4.49
4.29
4.07
3.71
3.11
2.26
1.19
0.01
-1.18
-2.26
-3.18
-3.86
-4.26
-4.34
-4.09
-3.57
-2.91
-2.28
-1.82
-1.60
-1.61
-1.77
-2.00
-2.29
-2.66
-3.18
-3.85
-4.56
-5.13
-5.36
-5.13
-4.49
-3.59
-2.66
-1.89
-1.38
-1.08
-0.83
-0.45
0.24
1.29
2.61
3.95
5.03
5.54
5.32
4.37
2.85
1.06
-0.66
-1.99
-2.70
-2.74
-2.22
-1.34
-0.34
0.61
1.45
2.13
2.63
2.84
2.70
2.21
1.52
0.86
0.47
0.45
0.74
1.16
1.52
1.72
1.78
1.79
1.80
1.83
1.86
1.89
1.95
2.10
2.38
2.75
3.11
3.35
3.37
3.15
2.74
2.21
1.66
1.14
0.62
0.07
-0.57
-1.31
-2.09
-2.78
-3.25
-3.43
-3.35
-3.11
-2.86
-2.71
-2.70
-2.79
-2.91
-2.97
-2.93
-2.77
-2.54
-2.28
-2.10
-2.05
-2.16
-2.37
-2.53
-2.48
-2.12
-1.49
-0.78
-0.28
-0.18
-0.57
-1.31
-2.10
-2.60
-2.53
-1.76
-0.32
1.55
3.49
5.11
6.06
6.11
5.29
3.82
2.07
0.46
-0.73
-1.34
-1.45
-1.26
-0.98
-0.77
-0.65
-0.53
-0.33
-0.02
0.32
0.57
0.62
0.50
0.35
0.34
0.54
0.92
1.32
1.55
1.56
1.37
1.12
0.95
0.92
1.00
1.14
1.27
1.39
1.52
1.67
1.87
2.10
2.33
2.48
2.44
2.11
1.37
0.23
-1.18
-2.60
-3.72
-4.34
-4.38
-3.98
-3.37
-2.79
-2.36
-2.05
-1.79
-1.49
-1.19
-1.04
-1.22
-1.88
-2.99
-4.36
-5.73
-6.80
-7.33
-7.08
-5.86
-3.61
-0.53
2.79
5.51
6.88
6.58
5.00
3.08
1.76
1.38
1.41
0.66
-1.98
-6.78
-12.90
-18.80
-23.08
-25.26
-26.03
-26.82
-29.00
-33.19
-39.07
-45.60
-51.61
-56.34
-59.65
-62.09
-64.61
-68.18
-73.47
-80.51
-88.60
-96.70
-103.85
-109.70
-114.77
-120.19
-127.29
-137.10
-150.17
-166.43
-185.12
-204.53
-221.90
-233.58
-235.96
-226.60
-205.14
-173.43
-134.74
-92.22
-47.72
-1.47
47.03
97.41
147.36
192.54
227.89
249.57
256.48
250.63
236.08
217.28
197.57
178.57
160.64
143.88
128.77
116.21
106.94
100.80
96.52
92.23
86.31
78.14
68.40
58.70
50.80
45.77
43.64
43.44
43.71
43.15
41.12
37.78
33.89
30.34
27.73
26.16
25.26
24.44
23.23
21.47
19.33
17.19
15.40
14.13
13.36
12.92
12.65
12.43
12.27
12.21
12.35
12.77
13.52
14.59
15.90
17.31
18.69
19.97
21.27
22.84
25.01
28.08
32.15
37.06
42.41
47.66
52.40
56.51
60.23
64.08
68.62
74.19
80.71
87.73
94.59
100.69
105.76
109.94
113.82
118.31
124.53
133.41
145.18
158.75
171.45
179.41
178.58
166.00
140.97
105.27
62.45
16.44
-29.78
-75.13
-120.44
-167.64
-218.39
-272.96
-329.53
-384.43
-432.96
-470.51
-493.52
-500.18
-490.48
-465.92
-429.19
-383.64
-332.77
-279.79
-226.97
-175.16
-123.87
-71.80
-18.04
36.80
90.14
137.95
176.11
201.82
214.73
216.92
212.02
203.81
195.18
187.70
181.89
177.72
174.95
173.24
172.03
170.64
168.57
165.87
163.18
161.24
160.37
160.12
159.55
157.81
154.81
151.25
148.02
145.52
143.29
140.56
137.06
133.38
130.44
128.17
124.43
115.51
98.02
71.21
37.98
3.62
-26.87
-51.28
-70.68
-87.70
-103.94
-118.39
-128.15
-130.80
-126.69
-119.30
-113.52
-112.75
-117.13
-123.77
-128.72
-129.35
-125.55
-119.25
-113.03
-109.08
-108.98
-113.92
-124.74
-141.53
-162.88
-185.79
-206.52
-222.28
-232.67
-239.81
-246.92
-256.11
-266.69
-275.05
-276.31
-266.57
-244.52
-211.48
-170.20
-123.35
-72.82
-20.17
32.42
81.62
123.19
153.32
170.14
174.55
169.94
160.67
150.55
141.70
134.37
127.64
120.21
111.08
99.78
86.53
72.35
59.19
49.56
45.67
48.38
56.46
66.66
74.88
77.80
74.16
65.03
52.99
40.70
29.99
21.62
15.83
13.03
13.89
18.90
27.79
39.29
51.49
62.67
71.90
79.16
85.07
90.31
95.29
100.18
105.20
110.77
117.34
124.87
132.42
137.96
138.60
131.26
113.72
85.65
49.18
8.79
-29.80
-61.26
-82.28
-92.40
-93.72
-89.60
-83.21
-76.55
-70.36
-64.72
-59.74
-55.91
-53.76
-53.36
-54.02
-54.51
-53.71
-51.11
-47.05
-42.52
-38.63
-36.05
-34.80
-34.23
-33.40
-31.40
-27.82
-22.81
-17.07
-11.59
-7.27
-4.63
-3.65
-3.88
-4.70
-5.59
-6.27
-6.75
-7.08
-7.28
-7.29
-7.01
-6.40
-5.48
-4.29
-2.86
-1.24
0.46
1.99
3.02
3.25
2.57
1.13
-0.76
-2.83
-4.94
-7.07
-9.13
-10.86
-11.85
-11.67
-10.18
-7.64
-4.65
-1.87
0.19
1.40
1.92
2.05
2.05
1.99
1.81
1.41
0.77
0.04
-0.45
-0.38
0.50
2.24
4.64
7.36
9.99
12.20
13.78
14.63
14.72
14.05
12.67
10.72
8.43
6.09
3.98
2.26
0.96
-0.03
-0.83
-1.59
-2.45
-3.55
-5.00
-6.88
-9.07
-11.28
-13.05
-13.96
-13.75
-12.51
-10.64
-8.64
-6.89
-5.54
-4.46
-3.46
-2.44
-1.48
-0.74
-0.38
-0.35
-0.49
-0.59
-0.56
-0.48
-0.51
-0.77
-1.15
-1.35
-0.94
0.41
2.76
5.85
9.16
12.15
14.40
15.80
16.46
16.67
16.72
16.83
17.06
17.37
17.62
17.62
17.25
16.46
15.33
14.01
12.70
11.58
10.73
10.14
9.76
9.47
9.19
8.86
8.43
7.91
7.30
6.64
6.00
5.46
5.09
4.98
5.17
5.62
6.18
6.64
6.81
6.63
6.17
5.64
5.25
5.12
5.22
5.42
5.60
5.76
5.97
6.33
6.90
7.63
8.41
9.16
9.87
10.54
11.20
11.81
12.28
12.61
12.88
13.28
14.02
15.17
16.58
17.90
18.75
18.88
18.24
17.08
15.73
14.51
13.62
13.10
12.89
12.89
13.02
13.22
13.47
13.80
14.27
14.94
15.83
16.88
17.99
19.08
20.24
21.75
24.07
27.58
32.38
38.11
44.04
49.33
53.46
56.51
59.18
62.44
67.08
73.32
80.79
88.77
96.55
103.79
110.56
117.09
123.69
130.69
138.53
147.65
158.23
169.40
178.90
183.38
179.18
163.70
136.41
99.24
55.90
10.55
-33.45
-74.10
-110.48
-141.94
-167.44
-185.57
-195.15
-196.07
-189.73
-178.76
-166.17
-154.27
-144.09
-135.34
-127.14
-118.82
-110.41
-102.49
-95.79
-90.58
-86.54
-83.01
-79.31
-75.09
-70.52
-66.03
-61.99
-58.50
-55.31
-51.98
