1660749286.00
64.000000
-0.00
-0.00
-0.00
-0.00
-0.00
-0.00
-0.00
-0.00
-0.00
-0.00
0.00
0.01
0.01
-0.00
-0.03
-0.05
-0.05
0.00
0.13
0.36
0.66
1.01
1.37
1.72
2.06
2.40
2.79
3.24
3.80
4.42
5.06
5.66
6.20
6.68
7.15
7.68
8.31
9.14
10.09
11.04
11.88
12.56
13.14
13.76
14.65
15.96
17.91
20.32
22.90
25.38
27.58
29.57
31.68
34.32
37.81
42.54
48.15
54.10
59.83
64.97
69.58
74.14
79.34
85.71
93.76
103.00
112.62
121.73
129.77
136.75
143.30
150.75
157.77
166.64
177.95
191.79
206.97
220.57
228.25
225.36
208.53
176.87
132.76
80.05
23.07
-34.94
-92.44
-149.16
-205.23
-260.37
-313.74
-363.87
-409.83
-450.91
-486.50
-515.74
-537.23
-549.22
-549.96
-538.37
-514.21
-478.68
-433.87
-382.43
-326.98
-269.81
-212.63
-156.72
-103.12
-52.65
-6.27
35.15
70.98
100.92
125.09
143.96
158.22
168.57
175.67
179.95
181.72
181.24
178.73
174.51
168.90
162.28
155.00
147.37
139.63
131.92
124.30
116.74
109.17
101.51
93.74
85.95
78.31
71.08
64.45
58.49
53.05
47.85
42.56
36.99
31.18
25.46
20.26
15.97
12.70
10.20
7.93
5.29
1.92
-2.13
-6.37
-10.10
-12.74
-14.07
-14.38
-14.31
-14.58
-15.86
-18.52
-22.60
-27.64
-32.44
-35.18
-33.88
-27.14
-14.97
0.89
17.48
31.59
40.99
45.09
44.95
42.55
39.81
37.84
36.73
35.87
34.44
31.99
28.60
24.84
21.36
18.60
16.50
14.62
12.46
9.86
7.12
4.87
3.66
3.58
4.22
4.82
4.76
3.83
2.29
0.77
-0.14
-0.12
0.72
1.93
2.91
3.15
2.48
1.09
-0.54
-1.90
-2.64
-2.71
-2.26
-1.55
-0.73
0.18
1.27
2.56
3.95
5.22
6.11
6.56
6.69
6.74
6.99
7.61
8.60
9.84
11.19
12.47
13.57
14.39
14.85
14.87
14.33
13.12
11.17
8.58
5.41
1.88
-1.72
-5.15
-8.26
-10.97
-13.26
-15.06
-16.27
-16.80
-16.66
-16.00
-15.10
-14.28
-13.76
-13.56
-13.49
-13.26
-12.56
-11.20
-9.16
-6.68
-4.13
-1.91
-0.39
0.27
0.09
-0.70
-1.78
-2.91
-3.91
-4.73
-5.35
-5.68
-5.63
-5.16
-4.31
-3.33
-2.49
-2.03
-2.02
-2.29
-2.61
-2.73
-2.58
-2.32
-2.26
-2.66
-3.64
-5.07
-6.67
-8.17
-9.39
-10.33
-11.12
-11.90
-12.73
-13.55
-14.25
-14.79
-15.15
-15.36
-15.38
-14.89
-13.60
-11.30
-8.00
-4.00
0.13
3.74
6.33
7.72
8.12
7.92
7.60
7.49
7.71
8.18
8.73
9.29
9.86
10.53
11.32
12.19
12.91
13.28
13.18
12.66
11.96
11.33
10.92
10.66
10.39
9.92
9.17
8.20
7.12
6.06
5.04
3.99
2.75
1.15
-0.93
-3.55
-6.60
-9.81
-12.75
-14.93
-15.96
-15.67
-14.17
-11.80
-8.96
-6.02
-3.22
-0.66
1.59
3.45
4.84
5.69
6.02
6.00
5.90
6.00
6.45
7.21
7.99
8.48
8.46
7.97
7.22
6.52
6.03
5.69
5.26
4.43
3.01
1.05
-1.23
-3.52
-5.53
-7.16
-8.43
-9.50
-10.60
-11.86
-13.34
-14.95
-16.51
-17.75
-18.42
-18.31
-17.27
-15.30
-12.49
-9.11
-5.53
-2.17
0.61
2.60
3.80
4.35
4.51
4.53
4.61
4.87
5.35
5.99
6.68
7.29
7.73
7.95
7.95
7.79
7.54
7.24
6.93
6.64
6.37
6.07
5.66
5.04
4.13
2.94
1.61
0.32
-0.78
-1.61
-2.21
-2.76
-3.42
-4.34
-5.50
-6.73
-7.69
-8.03
-7.49
-6.06
-4.01
-1.80
0.16
1.65
2.72
3.60
4.52
5.51
6.44
7.09
7.35
7.32
7.21
7.24
7.49
7.92
8.38
8.72
8.90
8.88
8.68
8.30
7.70
6.86
5.74
4.36
2.75
0.98
-0.80
-2.41
-3.71
-4.62
-5.15
-5.45
-5.69
-5.96
-6.31
-6.70
-7.07
-7.41
-7.72
-7.97
-8.01
-7.57
-6.42
-4.46
-1.85
1.03
3.68
5.67
6.86
7.33
7.32
7.02
6.50
5.75
4.75
3.60
2.53
1.72
1.29
1.16
1.17
1.14
0.96
0.68
0.43
0.37
0.62
1.24
2.14
3.05
3.63
3.52
2.51
0.69
-1.57
-3.74
-5.40
-6.37
-6.83
-7.08
-7.44
-8.02
-8.76
-9.52
-10.16
-10.62
-10.81
-10.55
-9.52
-7.43
-4.17
-0.03
4.42
8.43
11.40
13.11
13.69
13.55
13.09
12.52
11.78
10.71
9.13
7.08
4.79
2.61
0.90
-0.14
-0.53
-0.44
-0.10
0.31
0.74
1.29
2.10
3.25
4.60
5.77
6.26
5.67
3.92
1.31
-1.55
-4.11
-6.08
-7.57
-8.96
-10.63
-12.70
-15.03
-17.30
-19.20
-20.51
-21.05
-20.58
-18.83
-15.60
-10.99
-5.54
-0.07
4.48
7.47
8.69
8.39
7.15
5.65
4.44
3.81
3.79
4.18
4.66
4.99
5.09
5.09
5.22
5.71
6.60
7.75
8.90
9.78
10.19
10.05
9.35
8.12
6.43
4.37
2.11
-0.15
-2.22
-3.93
-5.23
-6.12
-6.73
-7.18
-7.59
-8.01
-8.37
-8.62
-8.68
-8.60
-8.44
-8.27
-8.03
-7.51
-6.44
-4.65
-2.19
0.65
3.37
5.51
6.80
7.23
7.00
6.47
5.93
5.61
5.58
5.81
6.20
6.67
7.18
7.67
8.08
8.30
8.22
7.78
7.04
6.19
5.40
4.81
4.35
3.84
3.03
1.79
0.16
-1.66
-3.39
-4.80
-5.80
-6.47
-7.01
-7.72
-8.81
-10.42
-12.46
-14.70
-16.72
-18.07
-18.34
-17.24
-14.73
-10.99
-6.44
-1.63
2.90
6.68
9.49
11.23
11.99
11.87
10.98
9.52
7.75
5.98
4.52
3.58
3.15
3.07
3.12
3.20
3.32
3.59
4.12
4.86
5.66
6.29
6.60
6.53
6.14
5.56
4.81
3.85
2.59
1.00
-0.85
-2.73
-4.40
-5.72
-6.76
-7.76
-9.01
-10.59
-12.25
-13.41
-13.39
-11.71
-8.27
-3.49
1.87
6.98
11.21
14.27
16.20
17.25
17.65
17.58
17.12
16.31
15.24
14.07
12.96
12.07
11.42
10.89
10.27
9.40
8.28
7.04
5.92
5.07
4.47
3.97
3.31
2.31
0.96
-0.63
-2.24
-3.71
-4.94
-5.88
-6.53
-6.85
-6.82
-6.43
-5.75
-4.95
-4.20
-3.60
-3.10
-2.44
-1.24
0.89
4.08
8.09
12.29
15.80
17.81
17.85
15.93
12.48
8.15
3.59
-0.69
-4.32
-6.99
-8.43
-8.40
-6.89
-4.16
-0.80
2.46
4.93
6.25
6.42
5.79
4.88
4.08
3.59
3.34
3.11
2.69
1.98
0.98
-0.27
-1.77
-3.64
-6.05
-9.14
-12.94
-17.36
-22.18
-27.13
-31.94
-36.36
-40.09
-42.78
-44.03
-43.51
-41.06
-36.83
-31.33
-25.29
-19.53
-14.71
-11.17
-8.92
-7.72
-7.24
-7.22
-7.43
-7.69
-7.84
-7.72
-7.26
-6.48
-5.42
-4.15
-2.66
-0.88
1.22
3.56
5.85
7.73
8.87
9.11
8.53
7.40
6.06
4.81
3.87
3.34
3.21
3.36
3.58
3.54
2.96
1.73
-0.01
-1.79
-3.00
-3.15
-2.15
-0.43
1.17
1.77
0.82
-1.61
-4.92
-8.27
-11.03
-12.97
-14.23
-15.03
-15.49
-15.47
-14.75
-13.20
-10.97
-8.43
-6.01
-3.96
-2.33
-0.92
0.47
1.92
3.33
4.41
4.91
4.73
4.04
3.26
2.86
3.20
4.26
5.68
6.91
7.42
6.94
5.48
3.32
0.88
-1.44
-3.24
-4.21
-4.13
-2.95
-0.85
1.80
4.50
6.77
8.32
9.11
9.30
9.19
9.05
9.01
9.07
9.17
9.27
9.41
9.77
10.49
11.64
13.09
14.55
15.64
16.05
15.63
14.44
12.68
10.56
8.34
6.25
4.53
3.38
2.95
3.22
4.07
5.28
6.61
7.87
8.91
9.59
9.78
9.38
8.45
7.16
5.89
5.08
5.08
6.06
7.96
10.51
13.33
16.05
18.38
20.16
21.29
21.73
21.49
20.62
19.31
17.81
16.41
15.26
14.30
13.26
11.81
9.79
7.31
4.72
2.39
0.51
-1.07
-2.68
-4.70
-7.27
-10.22
-13.12
-15.50
-16.97
-17.40
-16.88
-15.70
-14.23
-12.87
-11.99
-11.85
-12.56
-14.06
-16.02
-17.97
-19.32
-19.58
-18.50
-16.13
-12.86
-9.25
-5.88
-3.12
-1.17
0.03
0.67
1.01
1.25
1.58
2.04
2.62
3.26
3.93
4.61
5.35
6.18
7.07
7.89
8.47
8.66
8.39
7.71
6.74
5.57
4.24
2.72
0.95
-1.06
-3.23
-5.36
-7.29
-8.93
-10.38
-11.90
-13.81
-16.32
-19.30
-22.27
-24.47
-25.08
-23.52
-19.70
-14.03
-7.34
-0.52
5.68
10.90
15.12
18.58
21.50
23.96
25.77
26.55
25.90
23.58
19.71
14.69
9.15
3.72
-1.09
-5.05
-8.12
-10.37
-11.88
-12.68
-12.80
-12.25
-11.15
-9.64
-7.90
-6.02
-4.06
-2.04
-0.05
1.70
2.88
3.19
2.50
0.91
-1.23
-3.50
-5.56
-7.28
-8.67
-9.81
-10.66
-11.06
-10.73
-9.47
-7.24
-4.19
-0.62
3.19
7.01
10.65
13.89
16.48
18.15
18.70
18.11
16.58
14.44
12.07
9.72
7.48
5.37
3.42
1.67
0.27
-0.66
-1.07
-1.01
-0.67
-0.25
0.10
0.28
0.27
0.10
-0.21
-0.64
-1.15
-1.73
-2.31
-2.80
-3.14
-3.30
-3.28
-3.14
-2.97
-2.87
-2.94
-3.27
-3.95
-5.02
-6.42
-7.88
-8.97
-9.19
-8.11
-5.63
-1.98
2.27
6.46
10.07
12.78
14.58
15.56
15.88
15.69
15.15
14.43
13.71
13.09
12.56
11.97
11.13
9.89
8.22
6.21
4.02
1.84
-0.21
-2.02
-3.53
-4.67
-5.43
-5.83
-5.94
-5.88
-5.77
-5.67
-5.59
-5.45
-5.14
-4.58
-3.79
-2.91
-2.18
-1.90
-2.28
-3.43
-5.27
-7.56
-9.86
-11.62
-12.24
-11.16
-8.10
-3.13
3.21
10.08
16.56
22.04
26.36
29.81
32.90
36.12
39.76
43.84
48.27
53.00
58.07
63.59
69.71
76.55
84.26
93.06
103.17
114.71
127.43
140.68
153.74
166.22
178.59
192.19
208.74
229.33
253.46
278.49
300.17
313.84
315.85
304.76
281.73
250.37
215.88
183.96
159.44
145.03
140.38
142.25
145.46
144.78
136.68
120.26
97.00
69.62
40.84
12.62
-13.87
-38.09
-60.10
-80.65
-101.22
-123.39
-147.84
-173.34
-196.58
-213.17
-219.33
-213.56
-197.47
-175.35
-152.71
-134.47
-123.58
-120.47
-123.63
-130.62
-139.21
-148.07
-156.75
-165.33
-173.88
-182.27
-190.29
-197.78
-204.77
-211.36
-217.46
-222.57
-225.64
-225.07
-218.90
-205.04
-181.82
-148.55
-106.15
-57.26
-5.76
44.45
90.41
130.53
164.29
191.47
211.65
224.31
229.34
227.41
219.88
208.09
192.54
172.71
147.64
117.07
82.51
47.53
16.77
-5.59
-17.55
-20.13
-17.04
-14.09
-16.21
-25.57
-41.21
-60.08
-78.57
-93.53
-102.60
-104.28
-98.64
-86.34
-68.46
-46.71
-23.63
-1.83
17.07
33.18
48.05
61.47
73.05
82.60
90.01
94.60
95.36
91.68
83.85
72.91
54.66
26.97
-7.63
-43.11
-74.27
-99.00
-117.64
-131.67
-142.76
-163.74
-202.54
-256.45
-314.37
-365.99
-406.78
-437.00
-459.16
-476.15
-508.48
-568.76
-652.59
-742.36
-821.77
-883.80
-928.96
-961.15
-984.57
-1025.96
-1101.60
-1205.54
-1314.73
-1408.03
-1476.54
-1521.26
-1547.78
-1414.98
-1064.37
-558.26
-36.38
395.41
706.83
914.24
1046.72
1129.41
1180.38
1188.01
1145.65
1065.32
973.85
894.41
836.76
799.77
776.58
760.63
728.89
667.21
579.13
481.96
392.73
321.01
275.19
256.47
263.21
278.87
287.85
283.15
267.36
246.33
225.05
207.16
194.15
186.16
176.03
158.15
132.65
105.09
81.64
65.56
56.99
53.39
52.07
48.65
40.84
29.42
17.54
8.37
3.61
3.35
6.16
10.56
15.53
20.65
25.96
31.40
36.34
39.46
39.17
34.34
25.30
13.74
2.14
-7.33
-13.56
-16.68
-17.76
-18.17
-18.99
-20.68
-23.15
-26.04
-28.89
-31.22
-32.47
-32.26
-30.54
-27.65
-24.27
-21.33
-19.72
-20.07
-22.58
-26.73
-31.73
-36.70
-40.92
-43.98
-45.77
-46.30
-45.38
-44.16
-42.78
-41.05
-38.73
-35.85
-32.77
-30.12
-28.46
-27.95
-28.22
-28.28
-27.27
-24.86
-21.43
-17.92
-15.37
-14.44
-15.21
-17.24
-19.69
-21.92
-23.68
-25.15
-26.72
-28.82
-31.71
-35.51
-40.10
-45.10
-49.94
-53.84
-55.97
-55.51
-51.97
-45.39
-36.36
-25.95
-15.35
-5.60
2.60
9.03
13.80
17.22
19.64
21.36
22.62
23.56
24.20
24.43
24.04
22.85
20.73
17.82
14.46
11.22
8.75
7.65
8.23
10.38
13.57
16.91
19.48
20.52
19.67
16.98
12.85
7.85
2.54
-2.62
-7.32
-11.43
-14.99
-18.31
-21.89
-26.19
-31.36
-36.96
-41.83
-44.33
-42.78
-36.04
-23.91
-7.34
11.74
30.81
47.28
59.02
64.82
64.63
59.59
51.83
43.94
38.30
36.40
38.42
43.32
49.26
54.43
57.63
58.59
57.74
55.77
53.17
49.99
46.09
41.38
36.14
30.97
26.50
23.09
20.61
18.58
16.44
13.81
10.61
6.96
3.00
-1.35
-6.31
-12.03
-18.28
-24.26
-28.60
-29.88
-27.10
-20.19
-10.00
2.01
14.31
25.74
35.62
43.56
49.22
52.25
52.40
49.77
44.99
39.06
33.11
28.04
24.25
21.72
20.11
19.03
18.16
17.27
16.23
15.01
13.61
12.21
11.20
11.13
12.58
15.85
20.63
25.90
30.08
31.47
28.86
21.99
11.67
-0.41
-12.24
-21.96
-28.29
-30.72
-29.42
-25.08
-18.65
-11.13
-3.41
3.88
10.34
15.75
20.05
23.19
25.11
25.75
25.04
23.00
19.75
15.62
11.12
6.83
3.28
0.82
-0.40
-0.40
0.63
2.36
4.21
5.41
5.14
2.89
-1.28
-6.65
-12.05
-16.37
-18.98
-20.00
-20.13
-20.34
-21.35
-23.39
-26.10
-28.68
-30.09
-29.44
-26.19
-20.39
-12.66
-4.01
4.53
12.21
18.77
24.32
29.24
33.84
38.22
42.30
45.82
48.48
50.10
50.71
50.63
50.50
51.15
53.36
57.52
63.31
69.64
74.75
76.68
73.86
65.73
53.08
37.97
23.20
11.38
4.12
1.49
2.16
4.01
4.96
3.74
0.23
-4.62
-9.21
-11.89
-11.43
-7.42
-0.40
8.24
16.58
22.65
24.98
22.99
17.19
8.97
0.25
-7.16
-12.04
-14.11
-13.93
-12.59
-11.08
-9.93
-8.99
-7.70
-5.63
-2.81
0.03
1.81
1.64
-0.68
-4.45
-8.37
-11.11
-11.83
-10.44
-7.55
-4.05
-0.74
1.80
3.22
3.21
1.40
-2.54
-8.61
-16.28
-24.39
-31.34
-35.54
-35.80
-31.74
-23.91
-13.69
-2.91
6.61
13.53
17.38
18.62
18.44
18.31
19.47
22.58
27.62
33.90
40.32
45.52
48.13
47.12
42.21
34.11
24.52
15.73
9.79
7.87
9.80
14.25
19.37
23.53
25.86
26.41
25.81
24.79
23.79
22.76
21.28
18.77
14.83
9.36
2.53
-5.27
-13.56
-21.81
-29.41
-35.72
-40.09
-42.10
-41.66
-38.97
-34.48
-28.62
-21.74
-14.20
-6.54
0.39
5.47
7.64
6.39
2.13
-3.75
-9.28
-12.57
-12.51
-9.18
-3.71
2.25
7.25
10.58
12.37
13.22
13.69
13.85
13.33
11.64
8.69
5.03
1.76
0.03
0.49
2.97
6.58
10.10
12.53
13.45
13.13
12.35
12.11
13.30
16.50
21.74
28.44
35.33
40.66
42.65
40.09
33.01
22.80
12.03
3.51
-0.57
0.60
6.36
15.04
24.62
33.41
40.28
44.58
46.01
44.40
39.90
32.99
24.55
15.65
7.17
-0.47
-7.44
-14.38
-22.07
-31.05
-41.39
-52.50
-63.25
-72.19
-77.91
-79.48
-76.70
-70.24
-61.53
-52.33
-44.41
-39.09
-36.96
-37.79
-40.56
-43.75
-45.78
-45.50
-42.49
-37.19
-30.61
-23.88
-17.84
-12.82
-8.73
-5.36
-2.59
-0.54
0.63
0.86
0.43
-0.14
-0.26
0.39
1.72
3.27
4.43
4.78
4.32
3.40
2.55
2.19
2.51
3.49
5.04
7.16
9.78
12.66
15.17
16.44
15.73
12.89
8.61
4.37
1.79
2.02
5.17
10.24
15.53
19.30
20.42
18.63
14.54
9.24
3.84
-0.83
-4.30
-6.39
-7.07
-6.40
-4.52
-1.80
1.12
3.46
4.52
3.94
1.83
-1.24
-4.51
-7.30
-9.19
-10.13
-10.32
-10.04
-9.54
-8.99
-8.50
-8.28
-8.57
-9.57
-11.25
-13.19
-14.61
-14.67
-12.82
-9.17
-4.52
-0.09
3.00
4.20
3.71
2.29
0.87
0.11
0.13
0.65
1.22
1.46
1.23
0.55
-0.58
-2.33
-4.94
-8.60
-13.13
-17.88
-21.85
-24.02
-23.75
-21.02
-16.40
-10.74
-4.87
0.62
5.36
9.05
11.34
11.89
10.63
7.96
4.79
2.30
1.42
2.47
5.01
8.01
10.38
11.35
10.79
9.18
7.31
5.96
5.55
6.10
7.23
8.42
9.24
9.45
8.99
7.85
5.96
3.18
-0.58
-5.11
-9.89
-14.17
-17.27
-18.82
-18.87
-17.76
-15.89
-13.47
-10.58
-7.30
-3.93
-1.04
0.77
1.12
0.17
-1.37
-2.45
-2.20
-0.28
2.91
6.41
9.18
10.56
10.49
9.50
8.37
7.75
7.87
8.60
9.55
10.32
10.68
10.57
10.04
9.14
7.87
6.14
3.85
0.92
-2.67
-6.79
-11.17
-15.41
-19.03
-21.54
-22.53
-21.73
-19.16
-15.11
-10.23
-5.46
-1.84
-0.20
-0.83
-3.20
-6.10
-7.95
-7.45
-4.04
1.87
9.13
16.33
22.25
26.26
28.30
28.69
27.88
26.27
24.17
21.83
19.41
16.89
14.07
10.51
5.79
-0.31
-7.53
-15.09
-21.94
-27.06
-29.81
-30.07
-28.17
-24.71
-20.35
-15.71
-11.44
-8.13
-6.24
-5.95
-6.97
-8.65
-10.16
-10.85
-10.42
-9.06
-7.24
-5.56
-4.51
-4.36
-5.12
-6.56
-8.23
-9.66
-10.38
-10.17
-9.07
-7.39
-5.59
-4.11
-3.19
-2.78
-2.62
-2.38
-1.88
-1.16
-0.49
-0.19
-0.45
-1.19
-1.99
-2.31
-1.63
0.25
3.18
6.67
9.96
12.25
12.87
11.49
8.30
4.10
0.06
-2.61
-3.11
-1.36
1.99
5.89
9.35
11.80
13.19
13.74
13.70
13.02
11.48
8.85
5.19
0.95
-3.08
-6.17
-7.91
-8.40
-8.24
-8.23
-9.02
-10.78
-13.17
-15.50
-17.00
-17.16
-15.75
-12.89
-8.86
-4.13
0.65
4.59
6.67
6.13
2.88
-2.20
-7.47
-11.08
-11.80
-9.53
-5.33
-0.84
2.48
3.93
3.73
2.60
1.27
0.07
-1.17
-2.78
-4.84
-7.04
-8.75
-9.40
-8.83
-7.49
-6.25
-5.96
-7.10
-9.41
-11.98
-13.59
-13.22
-10.41
-5.44
0.84
7.26
12.66
16.20
17.39
16.23
13.14
8.97
4.87
2.06
1.52
3.61
7.95
13.40
18.55
22.15
23.55
22.89
20.93
18.66
16.90
16.05
15.95
16.10
15.83
14.53
11.80
7.48
1.73
-5.02
-12.09
-18.71
-24.19
-28.10
-30.37
-31.30
-31.37
-31.04
-30.56
-29.84
-28.62
-26.64
-23.85
-20.54
-17.27
-14.58
-12.80
-11.85
-11.30
-10.55
-9.10
-6.74
-3.66
-0.39
2.40
4.13
4.51
3.66
2.04
0.26
-1.15
-1.94
-2.20
-2.23
-2.34
-2.66
-3.06
-3.26
-3.01
-2.22
-1.03
0.25
1.24
1.61
1.24
0.24
-1.00
-1.92
-1.92
-0.64
1.93
5.32
8.74
11.22
11.91
10.35
6.58
1.29
-4.34
-8.90
-11.14
-10.41
-6.88
-1.50
4.37
9.43
12.90
14.67
15.09
14.71
13.96
13.01
11.91
10.68
9.42
8.33
7.49
6.82
6.03
4.74
2.63
-0.36
-3.94
-7.53
-10.33
-11.62
-10.89
-8.12
-3.85
0.84
4.53
5.92
4.25
-0.27
-6.46
-12.47
-16.52
-17.57
-15.72
-12.08
-8.24
-5.53
-4.59
-5.24
-6.78
-8.42
-9.58
-9.97
-9.54
-8.29
-6.32
-3.79
-0.97
1.72
3.86
5.14
5.47
4.98
3.98
2.84
1.94
1.59
1.98
3.20
5.16
7.62
10.21
12.55
14.26
15.11
15.10
14.42
13.45
12.65
12.41
12.96
14.28
16.15
18.17
19.90
20.97
21.18
20.52
19.14
17.21
14.77
11.72
7.78
2.72
-3.49
-10.50
-17.58
-23.83
-28.49
-31.15
-31.81
-30.85
-28.73
-25.79
-22.28
-18.37
-14.28
-10.41
-7.24
-5.18
-4.47
-5.06
-6.69
-8.98
-11.47
-13.68
-15.09
-15.22
-13.83
-11.01
-7.31
-3.61
-0.79
0.59
0.48
-0.65
-2.09
-3.20
-3.62
-3.38
-2.73
-2.01
-1.48
-1.31
-1.57
-2.21
-3.16
-4.32
-5.58
-6.88
-8.18
-9.44
-10.55
-11.28
-11.28
-10.23
-7.96
-4.53
-0.28
4.34
8.82
12.70
15.59
17.11
17.06
15.55
13.07
10.57
9.07
9.33
11.47
14.88
18.49
21.17
22.24
21.63
19.77
17.30
14.73
12.25
9.80
7.21
4.42
1.52
-1.28
-3.82
-6.13
-8.35
-10.69
-13.21
-15.69
-17.73
-18.89
-18.98
-18.16
-16.92
-15.82
-15.30
-15.44
-16.03
-16.63
-16.77
-16.08
-14.35
-11.56
-7.91
-3.81
0.16
3.40
5.43
6.12
5.74
4.84
4.01
3.69
3.99
4.70
5.51
6.13
6.41
6.36
6.01
5.36
4.33
2.92
1.20
-0.60
-2.18
-3.35
-4.14
-4.72
-5.34
-6.13
-6.98
-7.58
-7.55
-6.68
-4.99
-2.83
-0.69
0.95
1.80
1.84
1.35
0.85
0.89
1.94
4.18
7.48
11.41
15.39
18.90
21.60
23.36
24.29
24.56
24.36
23.77
22.72
21.03
18.52
15.04
10.64
5.52
0.04
-5.38
-10.35
-14.58
-17.88
-20.09
-21.09
-20.79
-19.15
-16.34
-12.72
-8.82
-5.20
-2.27
-0.21
1.00
1.47
1.27
0.48
-0.73
-2.00
-2.83
-2.75
-1.64
0.15
1.89
2.84
2.62
1.47
0.11
-0.58
0.02
1.98
4.92
8.17
11.14
13.52
15.27
16.51
17.32
17.70
17.53
16.66
15.00
12.54
9.32
5.38
0.75
-4.48
-10.10
-15.68
-20.63
-24.27
-25.96
-25.26
-22.07
-16.73
-10.03
-3.13
2.65
6.23
7.07
5.47
2.48
-0.38
-1.75
-0.88
2.10
6.30
10.41
13.23
14.00
12.59
9.45
5.41
1.46
-1.55
-3.12
-3.20
-2.20
-0.83
0.08
-0.10
-1.75
-4.83
-8.97
-13.49
-17.58
-20.47
-21.58
-20.72
-18.16
-14.52
-10.65
-7.36
-5.21
-4.37
-4.64
-5.48
-6.24
-6.37
-5.58
-3.95
-1.88
0.13
1.65
2.47
2.63
2.36
1.86
1.29
0.64
-0.18
-1.29
-2.69
-4.28
-5.84
-7.11
-7.87
-7.99
-7.48
-6.45
-5.04
-3.43
-1.74
0.03
2.00
4.44
7.58
11.49
15.84
19.91
22.71
23.29
21.20
16.72
10.95
5.40
1.59
0.41
1.88
5.15
8.88
11.78
13.09
12.75
11.30
9.49
7.90
6.75
5.90
5.10
4.10
2.71
0.76
-1.97
-5.69
-10.46
-16.04
-21.84
-27.08
-31.01
-33.15
-33.33
-31.69
-28.53
-24.24
-19.34
-14.46
-10.26
-7.27
-5.67
-5.19
-5.21
-4.98
-3.96
-1.99
0.65
3.45
5.82
7.38
8.00
7.79
7.00
5.89
4.68
3.47
2.36
1.41
0.76
0.53
0.75
1.33
2.02
2.46
2.38
1.69
0.53
-0.78
-1.89
-2.50
-2.46
-1.74
-0.36
1.58
3.94
6.39
8.47
9.62
9.39
7.67
4.83
1.74
-0.52
-1.06
0.51
3.89
8.18
12.22
15.02
16.05
15.40
13.58
11.24
8.90
6.80
4.85
2.87
0.70
-1.62
-3.87
-5.78
-7.17
-8.01
-8.41
-8.52
-8.39
-8.01
-7.40
-6.69
-6.15
-6.03
-6.44
-7.21
-7.88
-7.94
-7.09
-5.43
-3.48
-1.90
-1.16
-1.29
-1.83
-2.07
-1.33
0.71
3.94
7.93
12.12
16.06
19.45
22.13
24.05
25.21
25.67
25.53
24.86
23.68
21.88
19.27
15.75
11.38
6.51
1.60
-2.88
-6.68
-9.87
-12.82
-15.92
-19.41
-23.10
-26.43
-28.62
-28.94
-27.02
-22.94
-17.23
-10.73
-4.44
0.64
3.62
3.90
1.47
-3.05
-8.38
-12.89
-15.13
-14.35
-10.68
-5.09
1.08
6.64
10.87
13.63
15.18
15.92
16.16
15.98
15.29
13.97
11.96
9.34
6.33
3.14
-0.11
-3.42
-6.91
-10.62
-14.37
-17.71
-20.04
-20.88
-20.02
-17.72
-14.49
-10.94
-7.54
-4.58
-2.24
-0.72
-0.24
-0.88
-2.51
-4.64
-6.56
-7.54
-7.18
-5.57
-3.18
-0.71
1.32
2.72
3.68
4.56
5.70
7.24
9.07
10.97
12.65
13.92
14.67
14.86
14.52
13.71
12.48
10.89
8.92
6.50
3.61
0.32
-3.01
-5.80
-7.34
-6.95
-4.30
0.48
6.71
13.23
18.60
21.41
20.72
16.49
9.75
2.40
-3.35
-5.73
-4.07
1.00
7.79
14.16
18.21
18.80
15.66
9.34
0.98
-8.00
-16.16
-22.38
-26.06
-27.22
-26.43
-24.55
-22.38
-20.43
-18.84
-17.52
-16.27
-14.96
-13.53
-11.96
-10.23
-8.35
-6.38
-4.51
-2.93
-1.76
-0.93
-0.24
0.49
1.17
1.46
0.86
-0.91
-3.62
-6.48
-8.41
-8.56
-6.72
-3.52
-0.09
2.41
3.34
2.74
1.23
-0.44
-1.75
-2.52
-2.88
-2.95
-2.76
-2.16
-1.03
0.65
2.65
4.57
5.95
6.43
5.77
3.98
1.27
-1.90
-4.99
-7.43
-8.81
-8.91
-7.74
-5.46
-2.34
1.29
4.95
8.07
10.10
10.70
9.98
8.52
7.23
6.96
8.14
10.63
13.82
16.94
19.35
20.80
21.39
21.40
21.06
20.42
19.30
17.42
14.56
10.66
5.90
0.65
-4.62
-9.47
-13.62
-16.96
-19.55
-21.49
-22.83
-23.51
-23.39
-22.36
-20.45
-17.86
-14.94
-12.06
-9.43
-7.14
-5.16
-3.55
-2.45
-2.08
-2.52
-3.46
-4.28
-4.24
-2.86
-0.26
2.88
5.62
7.18
7.33
6.43
5.14
4.08
3.50
3.30
3.20
2.92
2.40
1.73
1.06
0.49
0.02
-0.35
-0.63
-0.78
-0.80
-0.79
-0.99
-1.74
-3.30
-5.66
-8.47
-11.11
-12.90
-13.32
-12.16
-9.51
-5.70
-1.14
3.68
8.20
11.84
14.12
14.87
14.41
13.45
12.89
13.45
15.32
18.12
21.14
23.71
25.44
26.39
26.84
27.07
27.12
26.72
25.49
23.13
19.61
15.16
10.13
4.82
-0.64
-6.25
-11.95
-17.51
-22.44
-26.18
-28.30
-28.66
-27.52
-25.37
-22.73
-20.01
-17.43
-15.09
-12.98
-11.10
-9.36
-7.66
-5.90
-4.11
-2.53
-1.53
-1.43
-2.25
-3.58
-4.70
-4.86
-3.69
-1.41
1.35
3.80
5.44
6.29
6.71
7.23
8.08
9.10
9.77
9.47
7.82
4.84
0.90
-3.41
-7.55
-11.09
-13.84
-15.73
-16.82
-17.13
-16.70
-15.51
-13.45
-10.38
-6.16
-0.82
5.34
11.61
17.01
20.47
21.23
19.18
14.97
9.86
5.32
2.52
1.95
3.43
6.23
9.49
12.57
15.16
17.21
18.74
19.65
19.77
18.95
17.29
15.10
12.78
10.62
8.56
6.22
3.07
-1.38
-7.31
-14.52
-22.42
-30.22
-37.06
-42.21
-45.11
-45.49
-43.36
-39.00
-32.95
-26.00
-19.09
-13.15
-8.90
-6.54
-5.75
-5.75
-5.63
-4.74
-2.91
-0.48
1.98
3.96
5.20
5.69
5.65
5.30
4.78
4.19
3.57
2.97
2.44
2.01
1.70
1.53
1.48
1.50
1.44
1.12
0.36
-0.95
-2.69
-4.53
-6.03
-6.69
-6.13
-4.15
-0.78
3.61
8.33
12.45
15.01
15.30
13.26
9.55
5.44
2.37
1.36
2.69
5.77
9.45
12.53
14.20
14.25
13.05
11.24
9.43
8.01
7.09
6.61
6.39
6.25
5.98
5.35
4.15
2.22
-0.43
-3.56
-6.77
-9.62
-11.83
-13.39
-14.64
-16.05
-17.99
-20.50
-23.22
-25.51
-26.64
-26.16
-24.02
-20.65
-16.70
-12.78
-9.24
-6.10
-3.20
-0.37
2.39
4.93
7.02
8.50
9.36
9.72
9.74
9.49
8.95
8.02
6.70
5.06
3.38
1.97
1.14
1.03
1.53
2.30
2.88
2.91
2.21
0.89
-0.73
-2.30
-3.55
-4.32
-4.52
-4.15
-3.24
-1.92
-0.47
0.74
1.34
1.17
0.37
-0.64
-1.29
-1.05
0.39
3.05
6.63
10.56
14.20
17.01
18.70
19.32
19.22
18.86
18.63
18.63
18.71
18.55
17.80
16.27
13.96
11.11
8.02
5.09
2.62
0.86
-0.09
-0.31
-0.09
0.04
-0.51
-2.25
-5.30
-9.29
-13.33
-16.39
-17.66
-16.96
-14.83
-12.28
-10.33
-9.59
-9.97
-10.85
-11.38
-10.84
-8.88
-5.57
-1.22
3.71
8.79
13.59
17.74
20.93
22.94
23.76
23.53
22.53
21.05
19.29
17.34
15.18
12.83
10.39
8.09
6.24
5.08
4.76
5.26
6.42
7.93
9.36
10.22
10.02
8.41
5.33
1.08
-3.77
-8.52
-12.58
-15.63
-17.70
-18.97
-19.68
-19.92
-19.56
-18.36
-16.07
-12.59
-8.11
-3.10
1.84
6.13
9.36
11.38
12.26
12.22
11.50
10.31
8.87
7.39
6.10
5.17
4.63
4.35
4.09
3.69
3.11
2.49
2.04
1.85
1.87
1.89
1.68
1.11
0.23
-0.85
-2.01
-3.25
-4.64
-6.31
-8.32
-10.66
-13.25
-15.94
-18.53
-20.70
-22.06
-22.16
-20.69
-17.59
-13.13
-7.89
-2.57
2.17
5.89
8.40
9.74
10.06
9.62
8.66
7.44
6.16
4.89
3.62
2.22
0.64
-1.07
-2.71
-3.97
-4.65
-4.73
-4.43
-4.11
-4.11
-4.57
-5.44
-6.54
-7.71
-8.91
-10.12
-11.34
-12.41
-13.15
-13.36
-13.03
-12.37
-11.68
-11.20
-10.92
-10.52
-9.56
-7.67
-4.80
-1.28
2.32
5.47
7.84
9.45
10.58
11.53
12.49
13.41
14.10
14.36
14.10
13.43
12.57
11.70
10.88
10.05
9.10
8.02
6.87
5.78
4.82
3.98
3.12
2.15
1.06
-0.06
-1.06
-1.88
-2.62
-3.46
-4.59
-6.15
-8.12
-10.32
-12.44
-14.05
-14.67
-13.90
-11.58
-7.84
-3.21
1.62
5.95
9.33
11.60
12.91
13.55
13.79
13.82
13.61
13.10
12.18
10.83
9.16
7.37
5.67
4.21
3.06
2.19
1.57
1.14
0.87
0.67
0.42
0.01
-0.67
-1.62
-2.75
-3.94
-5.09
-6.14
-7.13
-8.16
-9.34
-10.78
-12.46
-14.16
-15.47
-15.88
-14.94
-12.54
-8.93
-4.71
-0.55
3.02
5.78
7.79
9.26
10.30
10.96
11.18
10.91
10.25
9.41
8.61
7.98
7.49
6.98
6.28
5.33
4.24
3.25
2.54
2.11
1.77
1.22
0.26
-1.09
-2.58
-3.87
-4.68
-4.98
-4.92
-4.78
-4.76
-5.02
-5.64
-6.67
-8.12
-9.88
-11.65
-12.95
-13.29
-12.28
-9.87
-6.32
-2.18
1.94
5.52
8.24
10.03
10.98
11.27
11.13
10.74
10.23
9.65
8.97
8.16
7.21
6.16
5.07
4.05
3.13
2.35
1.67
1.08
0.51
-0.12
-0.85
-1.76
-2.85
-4.05
-5.25
-6.29
-7.04
-7.48
-7.73
-8.03
-8.64
-9.72
-11.19
-12.69
-13.69
-13.65
-12.24
-9.48
-5.75
-1.65
2.22
5.42
7.81
9.43
10.47
11.13
11.52
11.69
11.63
11.32
10.75
9.94
8.93
7.80
6.62
5.49
4.44
3.49
2.61
1.82
1.12
0.54
0.11
-0.25
-0.64
-1.14
-1.80
-2.55
-3.33
-4.07
-4.82
-5.73
-6.95
-8.54
-10.41
-12.28
-13.73
-14.34
-13.73
-11.82
-8.77
-5.08
-1.38
1.78
4.10
5.62
6.63
7.46
8.30
9.13
9.79
10.13
10.11
9.84
9.45
8.99
8.43
7.71
6.83
5.91
5.12
4.62
4.40
4.28
3.95
3.13
1.60
-0.64
-3.43
-6.42
-9.20
-11.42
-12.86
-13.53
-13.65
-13.52
-13.46
-13.69
-14.33
-15.34
-16.55
-17.58
-17.95
-17.12
-14.79
-11.01
-6.25
-1.25
3.29
6.90
9.47
11.12
12.02
12.30
11.97
11.02
9.56
7.81
6.08
4.63
3.63
3.06
2.73
2.43
1.97
1.32
0.62
0.10
-0.07
0.11
0.40
0.46
-0.02
-1.22
-3.07
-5.35
-7.76
-10.03
-11.98
-13.54
-14.69
-15.48
-15.95
-16.16
-16.14
-15.87
-15.30
-14.32
-12.84
-10.77
-8.08
-4.78
-1.02
2.89
6.56
9.57
11.65
12.72
12.94
12.58
11.94
11.23
10.57
10.06
9.73
9.66
9.85
10.22
10.56
10.61
10.14
9.05
7.44
5.58
3.77
2.26
1.13
0.30
-0.42
-1.18
-2.00
-2.79
-3.42
-3.83
-4.10
-4.40
-4.95
-5.88
-7.20
-8.81
-10.45
-11.79
-12.43
-11.99
-10.26
-7.30
-3.46
0.74
4.75
8.16
10.74
12.43
13.22
13.15
12.25
10.63
8.51
6.18
3.94
2.03
0.60
-0.35
-0.89
-1.15
-1.25
-1.23
-1.12
-0.90
-0.59
-0.29
-0.14
-0.30
-0.85
-1.74
-2.86
-4.02
-5.07
-5.96
-6.70
-7.35
-7.98
-8.68
-9.53
-10.51
-11.47
-12.10
-12.01
-10.88
-8.62
-5.41
-1.67
2.14
5.60
8.45
10.53
11.77
12.14
11.68
10.55
8.97
7.23
5.53
4.03
2.79
1.79
1.05
0.51
0.12
-0.19
-0.42
-0.55
-0.47
-0.13
0.43
1.06
1.53
1.62
1.19
0.22
-1.19
-2.88
-4.64
-6.26
-7.55
-8.52
-9.31
-10.24
-11.62
-13.57
-15.88
-17.98
-19.16
-18.78
-16.61
-12.92
-8.40
-3.90
-0.17
2.30
3.32
3.00
1.68
-0.16
-1.93
-3.03
-3.01
-1.73
0.53
3.19
5.54
7.10
7.68
7.46
6.86
6.45
6.80
8.37
11.41
15.84
21.08
25.96
29.10
29.37
26.35
20.44
12.53
3.79
-4.64
-11.79
-16.94
-19.66
-19.90
-17.94
-14.61
-11.08
-8.22
-5.94
-3.27
0.97
7.33
15.26
23.47
30.15
33.71
33.50
30.19
25.45
21.15
18.90
19.96
25.47
35.69
49.39
63.88
75.66
81.14
77.52
63.68
38.89
7.04
-24.26
-47.71
-60.39
-63.87
-61.67
-56.83
-50.88
-44.23
-36.55
-28.04
-19.75
-12.97
-8.32
-5.45
-3.52
-1.43
1.54
5.80
11.02
16.23
20.39
23.03
24.40
25.07
25.91
27.45
29.89
32.85
35.41
36.53
35.54
32.36
26.81
19.83
12.24
4.60
-2.92
-10.58
-18.87
-28.12
-37.05
-45.80
-53.73
-59.93
-63.87
-65.50
-65.44
-64.78
-64.64
-65.78
-68.42
-71.77
-74.63
-76.24
-76.18
-74.77
-72.75
-70.93
-69.99
-70.55
-73.66
-78.21
-82.78
-84.81
-81.04
-68.68
-46.94
-18.11
12.78
39.98
59.16
68.78
70.37
67.16
62.20
57.13
52.18
46.90
41.28
36.12
32.30
30.24
29.49
28.89
27.24
23.79
18.66
12.72
7.07
2.51
-0.76
-3.16
-5.46
-8.44
-12.47
-17.48
-22.95
-28.24
-32.81
-36.47
-39.41
-42.05
-44.80
-47.83
-50.94
-53.43
-55.05
-55.10
-52.96
-48.40
-41.70
-33.60
-25.04
-16.90
-9.74
-3.77
1.08
4.84
7.48
8.88
9.08
8.33
7.11
5.95
5.19
5.03
5.39
6.02
6.66
7.14
7.39
7.47
7.41
7.25
6.97
6.42
5.41
3.76
1.46
-1.28
-4.15
-6.83
-9.13
-11.06
-12.75
-14.39
-16.17
-18.27
-20.82
-23.92
-27.42
-30.89
-33.53
-34.38
-32.71
-28.23
-21.32
-12.91
-4.12
4.07
11.03
16.58
20.76
23.71
25.50
26.20
25.92
24.90
23.52
22.15
21.05
20.28
19.70
19.15
18.55
17.91
17.34
16.90
16.58
16.20
15.58
14.55
13.00
10.96
8.54
5.94
3.38
1.02
-1.11
-3.18
-5.46
-8.29
-11.92
-16.38
-21.46
-26.59
-30.99
-33.71
-33.95
-31.24
-25.68
-17.93
-9.04
-0.12
7.96
14.69
19.96
23.82
26.39
27.77
28.06
27.48
26.37
25.16
24.30
24.08
24.53
25.42
26.34
26.86
26.75
26.06
25.06
24.09
23.33
22.69
21.88
20.57
18.57
15.98
13.09
10.25
7.68
5.36
3.06
0.45
-2.75
-6.71
-11.41
-16.56
-21.60
-25.74
-28.11
-27.94
-24.89
-19.13
-11.39
-2.72
5.79
13.25
19.14
23.29
25.77
26.80
26.66
25.69
24.26
22.77
21.54
20.80
20.57
20.69
20.91
20.95
20.62
19.90
18.86
17.59
16.21
14.73
13.13
11.38
9.50
7.54
5.58
3.72
2.05
0.55
-0.83
-2.25
-3.93
-6.05
-8.76
-12.03
-15.58
-18.88
-21.12
-21.41
-19.11
-14.01
-6.58
2.11
10.71
18.01
23.34
26.70
28.57
29.58
30.19
30.50
30.38
29.73
28.64
27.44
26.54
26.17
26.29
26.60
26.72
26.40
25.59
24.42
23.03
21.45
19.66
17.61
15.42
13.32
11.62
10.42
9.50
8.31
6.08
2.19
-3.56
-10.67
-17.99
-23.99
-27.22
-26.76
-22.59
-15.59
-7.24
0.80
7.18
11.21
12.89
12.78
11.74
10.66
10.22
10.74
12.12
13.84
15.17
15.43
14.24
11.73
8.46
5.27
2.90
1.77
1.94
3.07
4.68
6.30
7.56
8.24
8.23
7.53
6.11
3.97
1.11
-2.49
-6.76
-11.57
-16.62
-21.41
-25.31
-27.61
-27.74
-25.37
-20.61
-13.94
-6.19
1.69
8.86
14.70
18.97
21.72
23.22
23.80
23.80
23.52
23.22
23.07
23.16
23.48
23.94
24.41
24.79
25.00
24.97
24.62
23.89
22.73
21.16
19.30
17.26
15.10
12.74
10.00
6.72
2.93
-1.05
-4.66
-7.31
-8.54
-8.28
-6.80
-4.66
-2.41
-0.35
1.48
3.26
5.15
7.12
8.99
10.54
11.79
12.97
14.52
16.75
19.68
22.95
26.05
28.54
30.24
31.29
31.89
32.18
32.07
31.38
29.95
27.86
25.40
23.00
20.99
19.46
18.17
16.65
14.28
10.54
5.20
-1.59
-9.25
-16.92
-23.73
-29.03
-32.59
-34.58
-35.33
-35.13
-33.98
-31.62
-27.78
-22.46
-16.16
-9.76
