1660332418.00
64.000000
-0.00
-0.00
-0.00
-0.00
-0.00
-0.00
-0.00
-0.00
-0.00
-0.00
0.00
0.01
0.01
-0.00
-0.03
-0.05
-0.05
0.00
0.13
0.36
0.66
1.01
1.37
1.72
2.06
2.40
2.79
3.24
3.80
4.42
5.06
5.67
6.21
6.68
7.14
7.67
8.31
9.16
10.13
11.10
11.93
12.55
12.99
13.42
14.09
15.18
16.96
19.25
21.77
24.19
26.31
28.17
30.08
32.52
35.83
40.44
46.01
51.97
57.68
62.68
67.01
71.14
75.86
81.80
89.60
98.77
108.40
117.42
125.06
131.21
136.54
142.58
148.33
156.32
167.20
180.89
195.79
208.54
214.54
209.22
189.58
155.34
109.37
55.68
-1.68
-60.14
-118.87
-178.05
-237.74
-297.09
-354.44
-407.61
-455.34
-497.13
-532.98
-562.78
-585.95
-601.48
-608.00
-604.03
-587.65
-556.99
-510.39
-447.34
-369.49
-280.99
-187.96
-96.96
-13.45
59.44
120.59
170.37
209.59
239.03
259.49
272.15
278.66
280.91
280.44
277.93
273.23
265.67
254.68
240.23
223.07
204.50
186.00
168.78
153.42
139.87
127.64
116.10
104.81
93.72
83.09
73.31
64.62
56.99
50.15
43.71
37.38
31.08
24.92
19.14
13.99
9.69
6.20
3.37
0.97
-1.23
-3.37
-5.49
-7.41
-8.87
-9.54
-9.19
-7.81
-5.70
-3.42
-1.55
-0.58
-0.68
-1.72
-3.36
-5.24
-7.04
-8.55
-9.65
-10.27
-10.34
-9.89
-8.99
-7.82
-6.60
-5.51
-4.65
-4.04
-3.68
-3.51
-3.49
-3.56
-3.65
-3.70
-3.64
-3.49
-3.31
-3.16
-3.15
-3.31
-3.68
-4.18
-4.64
-4.82
-4.41
-3.23
-1.26
1.23
3.76
5.78
6.89
6.91
5.96
4.34
2.37
0.36
-1.54
-3.17
-4.43
-5.21
-5.42
-5.03
-4.14
-2.94
-1.66
-0.57
0.19
0.55
0.59
0.45
0.29
0.23
0.31
0.49
0.73
0.99
1.24
1.48
1.71
1.92
2.12
2.40
2.95
3.95
5.49
7.44
9.41
10.86
11.35
10.56
8.56
5.67
2.38
-0.85
-3.69
-5.95
-7.58
-8.57
-9.00
-8.95
-8.54
-7.91
-7.18
-6.47
-5.84
-5.35
-5.03
-4.87
-4.85
-4.90
-4.94
-4.92
-4.84
-4.71
-4.58
-4.47
-4.41
-4.36
-4.31
-4.21
-3.97
-3.43
-2.39
-0.67
1.73
4.56
7.32
9.41
10.33
9.88
8.22
5.76
3.01
0.40
-1.81
-3.47
-4.54
-5.03
-4.98
-4.49
-3.69
-2.74
-1.75
-0.81
0.06
0.81
1.34
1.55
1.39
0.88
0.15
-0.70
-1.56
-2.39
-3.20
-4.04
-4.98
-6.09
-7.39
-8.82
-10.16
-11.02
-10.89
-9.31
-6.10
-1.50
3.83
9.00
13.20
15.92
17.07
16.86
15.65
13.74
11.35
8.61
5.72
2.92
0.53
-1.19
-2.11
-2.31
-2.05
-1.70
-1.59
-1.91
-2.64
-3.59
-4.51
-5.16
-5.49
-5.57
-5.62
-5.80
-6.24
-6.95
-7.91
-9.09
-10.44
-11.81
-12.86
-13.08
-11.90
-9.01
-4.49
1.11
6.88
11.91
15.52
17.47
17.90
17.10
15.38
12.92
9.89
6.54
3.27
0.52
-1.32
-2.16
-2.17
-1.74
-1.25
-0.98
-0.99
-1.24
-1.63
-2.10
-2.66
-3.32
-4.08
-4.91
-5.78
-6.69
-7.71
-8.89
-10.23
-11.60
-12.70
-13.07
-12.24
-9.88
-5.95
-0.84
4.76
10.01
14.23
17.01
18.28
18.20
17.02
14.97
12.28
9.22
6.16
3.49
1.51
0.31
-0.21
-0.31
-0.22
-0.14
-0.14
-0.25
-0.47
-0.83
-1.34
-2.00
-2.78
-3.64
-4.58
-5.63
-6.85
-8.30
-10.04
-12.00
-13.99
-15.62
-16.40
-15.82
-13.56
-9.67
-4.56
1.02
6.26
10.45
13.25
14.64
14.86
14.22
12.97
11.29
9.27
7.07
4.89
3.02
1.72
1.13
1.25
1.88
2.73
3.48
3.89
3.87
3.48
2.84
2.08
1.28
0.41
-0.59
-1.74
-3.05
-4.49
-6.06
-7.79
-9.67
-11.54
-13.02
-13.58
-12.66
-9.95
-5.58
-0.12
5.57
10.61
14.37
16.59
17.33
16.83
15.42
13.38
10.97
8.39
5.87
3.61
1.75
0.41
-0.35
-0.55
-0.29
0.25
0.84
1.23
1.25
0.88
0.24
-0.53
-1.29
-2.05
-2.87
-3.83
-4.97
-6.23
-7.55
-8.88
-10.25
-11.67
-12.99
-13.86
-13.79
-12.33
-9.27
-4.83
0.40
5.59
9.98
13.03
14.55
14.65
13.61
11.76
9.36
6.61
3.69
0.83
-1.69
-3.59
-4.68
-4.95
-4.56
-3.80
-3.02
-2.51
-2.40
-2.68
-3.24
-3.90
-4.51
-5.00
-5.36
-5.68
-6.05
-6.58
-7.35
-8.40
-9.77
-11.36
-12.89
-13.90
-13.79
-12.05
-8.52
-3.53
2.16
7.58
11.90
14.63
15.70
15.37
14.01
11.99
9.63
7.24
5.07
3.34
2.19
1.56
1.33
1.30
1.30
1.25
1.10
0.84
0.48
0.03
-0.48
-1.00
-1.51
-2.04
-2.66
-3.48
-4.60
-6.09
-7.95
-10.10
-12.36
-14.37
-15.65
-15.71
-14.16
-10.93
-6.28
-0.86
4.52
9.08
12.27
13.88
14.00
12.94
11.12
8.89
6.56
4.38
2.55
1.25
0.61
0.61
1.11
1.84
2.48
2.74
2.50
1.75
0.64
-0.65
-1.94
-3.12
-4.13
-5.01
-5.87
-6.83
-8.02
-9.53
-11.37
-13.35
-15.15
-16.33
-16.39
-14.95
-11.87
-7.31
-1.75
4.17
9.75
14.36
17.60
19.28
19.48
18.40
16.37
13.72
10.76
7.81
5.14
2.99
1.57
0.95
1.06
1.69
2.58
3.47
4.17
4.57
4.65
4.39
3.76
2.80
1.58
0.22
-1.11
-2.28
-3.27
-4.17
-5.15
-6.43
-8.10
-10.06
-11.95
-13.21
-13.21
-11.58
-8.27
-3.71
1.35
6.11
9.90
12.40
13.59
13.63
12.73
11.09
8.94
6.55
4.26
2.37
1.06
0.34
0.06
0.04
0.12
0.21
0.22
0.11
-0.21
-0.83
-1.77
-2.96
-4.29
-5.60
-6.80
-7.86
-8.80
-9.74
-10.78
-12.01
-13.45
-14.95
-16.22
-16.79
-16.21
-14.14
-10.55
-5.79
-0.50
4.55
8.69
11.51
12.96
13.22
12.55
11.16
9.21
6.82
4.24
1.85
0.10
-0.61
-0.17
1.26
3.28
5.39
7.21
8.57
9.50
10.19
10.83
11.49
12.08
12.33
11.85
10.29
7.43
3.33
-1.67
-7.01
-12.11
-16.39
-19.31
-20.44
-19.49
-16.42
-11.49
-5.27
1.50
7.89
13.10
16.66
18.48
18.84
18.19
17.04
15.83
14.91
14.22
13.55
12.64
11.39
9.86
8.13
6.30
4.37
2.28
-0.30
-3.68
-7.96
-12.96
-18.31
-23.69
-28.88
-33.82
-37.02
-37.17
-33.88
-28.14
-21.62
-15.67
-10.86
-7.08
-3.81
-0.44
3.26
7.13
10.74
13.60
15.30
15.62
14.66
12.72
10.35
7.91
5.64
3.78
2.52
1.95
1.91
2.09
2.13
1.87
1.34
0.69
0.09
-0.39
-0.94
-1.98
-3.24
-4.72
-6.18
-7.17
-7.35
-6.64
-5.32
-3.77
-2.40
-1.40
-0.85
-0.75
-1.16
-2.21
-3.89
-6.04
-8.57
-11.31
-14.12
-17.08
-20.27
-23.58
-26.57
-28.49
-28.41
-24.64
-17.09
-6.34
6.50
19.90
32.12
41.52
47.00
48.27
45.95
41.16
35.25
29.22
23.48
17.95
12.47
7.10
2.23
-1.67
-4.49
-6.34
-7.64
-8.83
-10.11
-11.36
-12.27
-12.63
-12.52
-12.31
-12.37
-12.87
-13.56
-13.86
-13.10
-10.83
-7.11
-2.59
1.72
4.85
6.24
5.86
4.23
2.00
-0.14
-1.73
-2.56
-2.67
-2.21
-1.33
-0.19
1.10
2.41
3.64
4.64
5.26
5.44
5.14
4.46
3.51
2.45
1.40
0.53
-0.06
-0.23
0.04
0.64
1.30
1.62
1.23
-0.09
-2.23
-4.70
-6.75
-7.58
-6.63
-3.84
0.33
5.00
9.18
12.10
13.35
12.99
11.36
8.90
6.00
2.96
0.00
-2.65
-4.82
-6.41
-7.45
-8.12
-8.62
-9.14
-9.72
-10.31
-10.73
-10.78
-10.34
-9.42
-8.16
-6.87
-5.86
-5.39
-5.54
-6.18
-7.01
-7.67
-7.88
-7.51
-6.60
-5.39
-4.27
-3.64
-3.80
-4.74
-6.04
-6.99
-6.82
-5.06
-1.74
2.62
7.23
11.36
14.55
16.60
17.47
17.12
15.50
12.68
9.01
5.19
2.07
0.35
0.33
1.74
3.92
6.07
7.59
8.26
8.24
7.99
8.03
8.89
10.89
14.17
18.55
23.53
28.34
32.05
33.88
33.47
30.98
27.07
22.63
18.42
14.85
11.94
9.39
6.88
4.20
1.34
-1.64
-4.67
-7.71
-10.77
-13.76
-16.41
-18.39
-19.41
-19.37
-18.50
-17.20
-15.91
-14.87
-14.08
-13.33
-12.45
-11.52
-10.89
-11.07
-12.40
-14.88
-18.07
-21.23
-23.57
-24.47
-23.58
-20.85
-16.58
-11.47
-6.59
-3.17
-2.20
-4.02
-8.04
-12.88
-16.82
-18.46
-17.19
-13.35
-7.97
-2.35
2.42
5.70
7.30
7.42
6.44
4.86
3.18
1.86
1.22
1.40
2.35
3.83
5.48
6.94
7.93
8.30
8.09
7.43
6.48
5.37
4.18
2.95
1.77
0.88
0.70
1.80
4.68
9.59
16.33
24.11
31.68
37.65
41.02
41.57
40.06
37.93
36.65
36.92
38.23
39.02
37.46
32.37
23.86
13.31
2.75
-5.95
-11.81
-14.83
-15.75
-15.60
-15.33
-15.64
-16.96
-19.47
-23.11
-27.56
-32.30
-36.74
-40.41
-43.06
-44.75
-45.73
-46.39
-46.99
-47.60
-47.97
-47.64
-46.10
-42.99
-38.30
-32.41
-26.00
-19.84
-14.65
-10.91
-8.87
-8.55
-9.74
-12.02
-14.73
-17.10
-18.38
-18.15
-16.47
-13.82
-10.94
-8.45
-6.61
-5.24
-3.88
-2.07
0.42
3.45
6.64
9.55
11.82
13.29
13.94
13.90
13.37
12.65
12.13
12.26
13.48
16.05
20.02
25.13
31.01
37.20
43.35
49.14
54.24
58.17
60.37
60.25
57.44
52.00
44.40
35.51
26.30
17.67
10.23
4.30
-0.14
-3.31
-5.53
-7.12
-8.35
-9.39
-10.35
-11.26
-12.18
-13.15
-14.25
-15.51
-16.98
-18.64
-20.41
-22.04
-23.15
-23.19
-21.64
-18.14
-12.75
-6.04
0.99
7.15
11.42
13.20
12.48
9.75
5.86
1.75
-1.83
-4.41
-5.83
-6.15
-5.57
-4.30
-2.58
-0.65
1.23
2.80
3.88
4.39
4.35
3.83
2.92
1.57
-0.32
-2.86
-6.07
-9.81
-13.81
-17.69
-21.04
-23.42
-24.43
-23.71
-21.08
-16.63
-10.76
-4.11
2.62
8.90
14.48
19.42
23.98
28.46
33.08
37.86
42.68
47.26
51.23
54.24
56.07
56.65
56.03
54.26
51.31
47.04
41.32
34.26
26.32
18.30
11.02
5.08
0.61
-2.73
-5.60
-8.67
-12.40
-16.97
-22.23
-27.83
-33.28
-38.02
-41.54
-43.52
-43.93
-43.03
-41.35
-39.43
-37.70
-36.40
-35.52
-34.96
-34.56
-34.24
-34.02
-34.02
-34.40
-35.30
-36.76
-38.65
-40.66
-42.26
-42.83
-41.81
-38.85
-33.89
-27.28
-19.65
-11.79
-4.54
1.42
5.63
7.88
8.19
6.79
4.11
0.77
-2.47
-4.82
-5.66
-4.63
-1.75
2.61
7.86
13.36
18.52
22.96
26.49
29.08
30.83
31.93
32.60
33.01
33.29
33.50
33.70
33.95
34.36
35.07
36.20
37.78
39.75
41.93
44.02
45.65
46.42
45.89
43.72
39.70
33.85
26.44
17.97
9.13
0.57
-7.17
-13.88
-19.58
-24.42
-28.46
-31.49
-33.05
-32.64
-30.01
-25.41
-19.59
-13.57
-8.28
-4.22
-1.43
0.38
1.58
2.39
2.85
2.93
2.67
2.26
2.01
2.14
2.72
3.53
4.09
3.87
2.42
-0.38
-4.28
-8.71
-12.89
-16.14
-18.06
-18.63
-18.22
-17.41
-16.77
-16.68
-17.30
-18.53
-20.07
-21.48
-22.19
-21.73
-19.75
-16.23
-11.49
-6.10
-0.68
4.26
8.46
11.92
14.82
17.35
19.64
21.73
23.54
24.91
25.70
25.85
25.42
24.57
23.38
21.84
19.86
17.50
15.13
13.51
13.44
15.28
18.51
21.60
22.56
19.71
12.51
1.83
-10.36
-21.83
-30.91
-36.97
-40.26
-41.49
-41.24
-39.76
-36.94
-32.68
-27.15
-20.86
-14.53
-8.87
-4.32
-0.99
1.32
2.92
4.09
4.99
5.67
6.15
6.54
6.98
7.68
8.77
10.29
12.10
14.05
15.99
17.81
19.42
20.59
20.99
20.22
17.95
14.10
8.92
2.85
-3.62
-10.14
-16.45
-22.27
-27.21
-30.75
-32.41
-31.92
-29.42
-25.41
-20.55
-15.50
-10.71
-6.36
-2.46
1.15
4.71
8.39
12.30
16.32
20.18
23.56
26.33
28.68
31.07
33.99
37.69
41.96
46.14
49.48
51.47
52.19
52.31
52.94
55.20
59.77
66.55
74.41
81.22
84.11
80.22
67.65
46.31
18.40
-11.96
-39.85
-61.02
-73.10
-76.08
-71.99
-63.86
-54.63
-46.42
-40.29
-36.44
-34.61
-34.37
-35.27
-36.87
-38.70
-40.33
-41.46
-41.93
-41.81
-41.21
-40.27
-38.97
-37.17
-34.62
-31.19
-26.98
-22.36
-17.91
-14.20
-11.60
-10.11
-9.39
-8.88
-7.99
-6.32
-3.75
-0.47
3.15
6.67
9.70
12.00
13.41
13.92
13.57
12.51
11.00
9.42
8.15
7.40
7.17
7.12
6.77
5.71
3.77
1.12
-1.78
-4.38
-6.26
-7.21
-7.21
-6.35
-4.68
-2.28
0.78
4.31
8.02
11.52
14.42
16.45
17.50
17.59
16.84
15.33
13.09
10.07
6.25
1.72
-3.27
-8.29
-12.84
-16.47
-18.94
-20.28
-20.81
-21.00
-21.32
-22.10
-23.44
-25.23
-27.19
-28.95
-30.16
-30.56
-29.99
-28.45
-26.15
-23.45
-20.84
-18.71
-17.28
-16.47
-15.92
-15.10
-13.51
-10.86
-7.25
-3.13
0.84
3.98
5.85
6.44
6.11
5.37
4.71
4.32
4.16
4.06
3.85
3.46
2.88
2.09
1.05
-0.28
-1.78
-3.10
-3.74
-3.22
-1.29
1.93
5.98
10.23
14.05
16.93
18.54
18.75
17.61
15.38
12.50
9.53
6.96
5.09
3.89
3.07
2.29
1.32
0.27
-0.48
-0.49
0.51
2.39
4.65
6.63
7.84
8.14
7.85
7.56
7.95
9.62
13.04
18.46
25.76
34.25
42.49
48.51
50.44
47.30
39.60
29.26
18.82
10.34
4.56
0.81
-2.31
-5.94
-10.35
-14.84
-18.40
-20.29
-20.54
-19.76
-18.72
-17.90
-17.30
-16.70
-15.90
-15.03
-14.51
-14.79
-16.11
-18.26
-20.66
-22.64
-23.77
-24.04
-23.86
-23.78
-24.21
-25.13
-26.14
-26.54
-25.58
-22.65
-17.41
-9.88
-0.45
10.20
21.18
31.66
41.05
49.16
56.12
62.10
67.01
70.38
71.42
69.37
63.82
54.94
43.48
30.54
17.34
4.96
-5.81
-14.48
-20.88
-25.11
-27.50
-28.52
-28.68
-28.42
-28.07
-27.81
-27.69
-27.58
-27.24
-26.41
-24.85
-22.60
-19.95
-17.38
-15.34
-13.96
-12.87
-11.28
-8.29
-3.23
3.91
12.48
21.36
29.40
35.82
40.40
43.40
45.23
46.23
46.53
46.08
44.82
42.75
40.00
36.69
32.92
28.70
23.99
18.79
13.11
7.06
0.81
-5.39
-11.24
-16.42
-20.71
-24.03
-26.48
-28.21
-29.34
-29.89
-29.80
-29.02
-27.70
-26.15
-24.79
-23.91
-23.55
-23.50
-23.39
-22.86
-21.71
-19.92
-17.57
-14.76
-11.57
-8.11
-4.56
-1.24
1.53
3.51
4.67
5.22
5.47
5.79
6.45
7.64
9.39
11.57
13.94
16.14
17.86
18.95
19.52
19.91
20.49
21.45
22.67
23.73
24.16
23.63
22.18
20.21
18.45
17.84
19.34
23.72
31.21
41.14
51.87
60.92
65.61
63.83
54.79
39.36
19.78
-0.98
-20.09
-35.45
-46.07
-51.93
-53.70
-52.42
-49.23
-45.20
-41.19
-37.75
-35.05
-32.99
-31.26
-29.54
-27.59
-25.33
-22.79
-20.11
-17.47
-15.04
-13.03
-11.56
-10.67
-10.26
-10.15
-10.15
-10.20
-10.48
-11.39
-13.35
-16.58
-20.84
-25.46
-29.51
-32.12
-32.89
-31.97
-30.00
-27.68
-25.52
-23.65
-21.88
-19.96
-17.81
-15.55
-13.43
-11.61
-10.04
-8.46
-6.56
-4.14
-1.24
1.84
4.72
7.05
8.66
9.59
10.05
10.28
10.44
10.56
10.56
10.33
9.80
8.99
7.99
6.94
6.05
5.59
5.97
7.65
11.04
16.32
23.23
31.05
38.77
45.34
49.92
52.05
51.61
48.70
43.54
36.44
27.86
18.44
8.99
0.42
-6.57
-11.54
-14.46
-15.62
-15.51
-14.64
-13.41
-12.07
-10.73
-9.47
-8.29
-7.24
-6.33
-5.57
-5.01
-4.74
-4.97
-6.04
-8.36
-12.22
-17.59
-23.99
-30.47
-35.83
-38.97
-39.22
-36.58
-31.75
-25.83
-20.04
-15.31
-12.12
-10.51
-10.25
-10.98
-12.40
-14.28
-16.37
-18.37
-19.88
-20.51
-20.02
-18.40
-15.92
-13.03
-10.21
-7.79
-5.91
-4.51
-3.39
-2.32
-1.12
0.25
1.64
2.79
3.35
3.06
1.81
-0.25
-2.71
-4.96
-6.32
-6.17
-4.10
-0.02
5.78
12.73
20.08
27.13
33.48
39.11
44.34
49.62
55.24
61.04
66.40
70.37
71.93
70.44
65.84
58.70
50.02
40.85
31.90
23.42
15.21
6.94
-1.52
-9.96
-17.93
-24.94
-30.69
-35.21
-38.69
-41.36
-43.28
-44.39
-44.65
-44.16
-43.22
-42.15
-41.15
-40.07
-38.43
-35.66
-31.30
-25.29
-18.02
-10.23
-2.80
3.53
8.30
11.47
13.31
14.31
14.94
15.51
16.08
16.51
16.54
16.03
15.03
13.87
13.05
13.08
14.29
16.63
19.67
22.67
24.77
25.26
23.70
20.07
14.73
8.30
1.51
-4.90
-10.34
-14.40
-16.87
-17.71
-17.02
-14.99
-11.87
-8.01
-3.91
-0.09
3.00
5.14
6.47
7.44
8.61
10.38
12.80
15.53
17.98
19.61
20.08
19.39
17.80
15.75
13.71
12.06
11.01
10.62
10.77
11.17
11.45
11.12
9.71
6.81
2.18
-4.13
-11.73
-19.87
-27.67
-34.33
-39.41
-42.91
-45.15
-46.52
-47.18
-47.00
-45.59
-42.64
-38.06
-32.12
-25.38
-18.41
-11.71
-5.57
-0.12
4.58
8.47
11.49
13.62
15.00
15.91
16.75
18.00
19.95
22.59
25.56
28.19
29.81
29.84
28.07
24.58
19.72
13.99
7.98
2.29
-2.55
-6.21
-8.71
-10.48
-12.25
-14.81
-18.63
-23.70
-29.34
-34.48
-37.90
-38.67
-36.35
-31.22
-24.06
-16.00
-8.10
-1.18
4.33
8.35
11.03
12.64
13.54
14.11
14.75
15.84
17.61
20.06
23.03
26.21
29.27
31.97
34.19
35.88
37.00
37.45
36.98
35.31
32.24
27.85
22.55
16.96
11.72
7.20
3.39
-0.13
-3.92
-8.44
-13.81
-19.69
-25.34
-29.75
-31.93
-31.27
-27.77
-22.16
-15.74
-9.94
-5.78
-3.57
-2.89
-2.89
-2.75
-1.96
-0.44
1.56
3.72
5.69
7.19
7.99
7.96
7.17
5.91
4.61
3.67
3.27
3.23
3.16
2.64
1.45
-0.33
-2.38
-4.30
-5.75
-6.58
-6.93
-7.17
-7.86
-9.50
-12.32
-16.04
-19.90
-22.90
-24.21
-23.47
-20.98
-17.51
-13.90
-10.79
-8.40
-6.60
-5.07
-3.58
-2.00
-0.38
1.22
2.81
4.47
6.39
8.78
11.78
15.40
19.49
23.73
27.65
30.70
32.32
32.06
29.71
25.41
19.69
13.40
7.43
2.52
-0.96
-3.13
-4.45
-5.52
-6.78
-8.35
-9.98
-11.20
-11.50
-10.58
-8.41
-5.26
-1.56
2.30
6.06
9.55
12.67
15.28
17.22
18.38
18.78
18.69
18.56
18.88
19.93
21.65
23.60
25.04
25.19
23.40
19.29
12.84
4.35
-5.48
-15.66
-25.04
-32.49
-37.24
-39.04
-38.26
-35.78
-32.69
-29.99
-28.38
-28.14
-29.13
-30.82
-32.42
-33.04
-31.88
-28.48
-22.90
-15.67
-7.69
0.03
6.70
11.90
15.57
17.94
19.35
20.14
20.54
20.74
20.88
21.10
21.54
22.36
23.74
25.79
28.55
31.91
35.53
38.92
41.40
42.27
40.93
37.09
30.80
22.57
13.17
3.47
-5.73
-13.85
-20.56
-25.74
-29.42
-31.77
-33.00
-33.30
-32.77
-31.30
-28.59
-24.31
-18.31
-10.84
-2.56
5.55
12.58
17.92
21.51
23.81
25.51
27.16
28.76
29.72
28.94
25.32
18.22
7.71
-5.36
-19.61
-33.35
-44.85
-52.52
-55.25
-52.72
-45.76
-36.28
-26.90
-20.07
-17.29
-18.67
-23.09
-28.87
-34.52
-39.15
-42.51
-44.52
-44.97
-43.43
-39.42
-32.82
-24.07
-14.20
-4.52
3.81
10.14
14.44
17.22
19.14
20.73
22.21
23.48
24.32
24.60
24.44
24.17
24.22
24.93
26.45
28.79
31.86
35.59
39.91
44.65
49.40
53.48
56.00
56.01
52.80
46.14
36.34
24.23
10.90
-2.47
-14.91
-25.68
-34.30
-40.45
-43.88
-44.43
-42.11
-37.21
-30.30
-22.18
-13.69
-5.54
1.81
8.15
13.45
17.72
20.96
23.07
23.91
23.30
21.16
17.58
12.90
7.75
2.92
-0.86
-3.28
-4.56
-5.43
-6.83
-9.42
-13.37
-18.22
-23.15
-27.40
-30.52
-32.44
-33.35
-33.53
-33.23
-32.74
-32.34
-32.29
-32.63
-33.07
-32.96
-31.48
-27.97
-22.22
-14.60
-5.95
2.69
10.33
16.29
20.22
22.18
22.61
22.18
21.66
21.70
22.68
24.56
27.04
29.66
32.05
34.04
35.81
37.77
40.42
44.17
49.12
54.85
60.45
64.57
65.80
63.07
56.07
45.51
33.06
20.88
10.90
4.06
-0.10
-3.31
-7.74
-15.13
-25.88
-38.96
-52.30
-63.64
-71.24
-74.35
-73.13
-68.38
-61.17
-52.69
-44.11
-36.52
-30.76
-27.18
-25.58
-25.17
-24.93
-23.93
-21.69
-18.38
-14.71
-11.64
-9.94
-9.89
-11.14
-12.92
-14.40
-15.04
-14.80
-14.07
-13.47
-13.51
-14.50
-16.43
-19.09
-22.11
-25.02
-27.26
-28.21
-27.32
-24.23
-18.93
-11.84
-3.72
4.43
11.64
17.16
20.66
22.19
22.19
21.28
20.06
19.00
18.27
17.87
17.63
17.39
17.08
16.73
16.44
16.33
16.51
17.02
17.90
19.12
20.60
22.19
23.64
24.62
24.75
23.68
21.16
17.13
11.77
5.40
-1.55
-8.61
-15.34
-21.26
-25.81
-28.44
-28.72
-26.55
-22.26
-16.57
-10.42
-4.65
0.16
3.84
6.50
8.37
9.66
10.48
10.86
10.77
10.27
9.51
8.70
8.07
7.80
7.96
8.47
9.11
9.63
9.80
9.45
8.54
7.15
5.46
3.71
2.18
1.06
0.46
0.25
0.11
-0.40
-1.67
-3.89
-6.84
-9.93
-12.34
-13.19
-11.93
-8.37
-2.82
4.08
11.49
18.59
24.67
29.12
31.51
31.60
29.39
25.16
19.48
13.10
6.84
1.39
-2.77
-5.44
-6.68
-6.74
-6.01
-4.88
-3.70
-2.65
-1.75
-0.90
0.09
1.37
3.01
5.07
7.54
10.44
13.75
17.40
21.24
25.00
28.33
30.92
32.48
32.84
31.95
29.93
27.05
23.77
20.54
17.67
15.20
12.88
10.31
7.11
3.09
-1.70
-6.96
-12.33
-17.36
-21.71
-25.10
-27.39
-28.62
-28.99
-28.79
-28.29
-27.65
-26.87
-25.86
-24.51
-22.80
-20.88
-18.97
-17.38
-16.37
-16.15
-16.76
-18.10
-19.84
-21.44
-22.22
-21.59
-19.26
-15.41
-10.68
-5.99
-2.19
0.24
1.38
1.68
1.77
2.13
2.93
4.06
5.29
6.37
7.12
7.39
7.05
5.94
3.96
1.20
-2.07
-5.41
-8.36
-10.60
-12.03
-12.70
-12.69
-12.10
-10.95
-9.34
-7.41
-5.43
-3.62
-2.10
-0.75
0.73
2.71
5.49
9.25
13.98
19.46
25.31
30.94
35.62
38.67
39.68
38.72
36.39
33.60
31.23
29.76
29.12
28.75
27.93
26.14
23.25
19.55
15.51
11.60
8.06
4.89
1.95
-0.90
-3.76
-6.57
-9.25
-11.72
-13.98
-16.19
-18.58
-21.43
-24.97
-29.26
-34.12
-39.18
-43.94
-47.87
-50.47
-51.26
-49.85
-46.00
-39.80
-31.83
-23.11
-14.73
-7.60
-2.01
2.30
5.90
9.31
12.70
15.89
18.59
20.62
22.04
23.09
23.98
24.83
25.63
26.44
27.51
29.32
32.48
37.51
44.51
52.93
61.61
68.92
73.34
73.87
70.45
63.84
55.25
45.85
36.30
26.76
17.03
6.89
-3.70
-14.57
-25.44
-36.02
-45.93
-54.66
-61.50
-65.72
-66.85
-64.94
-60.64
-55.04
-49.35
-44.53
-41.08
-39.08
-38.34
-38.56
-39.45
-40.73
-42.02
-42.94
-43.10
-42.26
-40.45
-37.94
-35.15
-32.43
-29.98
-27.72
-25.38
-22.68
-19.46
-15.82
-12.11
-8.82
-6.47
-5.42
-5.70
-6.99
-8.65
-9.90
-10.03
-8.61
-5.67
-1.60
2.92
7.26
10.97
13.99
16.51
18.84
21.22
23.65
25.92
27.74
28.93
29.53
29.81
30.19
31.05
32.55
34.55
36.72
38.68
40.19
41.34
42.58
44.54
47.89
52.99
59.71
67.27
74.13
78.28
77.62
70.60
56.88
37.68
15.73
-5.46
-22.60
-33.52
-37.73
-36.27
-31.16
-24.60
-18.41
-13.66
-10.77
-9.63
-9.89
-11.11
-12.86
-14.77
-16.58
-18.08
-19.15
-19.71
-19.75
-19.41
-18.95
-18.67
-18.87
-19.74
-21.29
-23.42
-25.91
-28.50
-30.89
-32.74
-33.74
-33.60
-32.20
-29.67
-26.43
-23.14
-20.53
-19.12
-19.01
-19.83
-20.82
-21.09
-19.91
-17.02
-12.64
-7.39
-2.06
2.63
6.12
8.16
8.71
7.94
6.17
3.75
1.05
-1.66
-4.16
-6.39
-8.31
-9.89
-11.07
-11.74
-11.75
-11.00
-9.43
-7.10
-4.22
-1.08
2.03
4.87
7.38
9.73
12.25
15.30
19.10
23.58
28.29
32.55
35.57
36.76
35.86
33.06
28.92
24.27
20.01
16.97
15.69
16.36
18.66
21.88
25.00
26.97
26.93
24.49
19.74
13.24
5.84
-1.54
-8.10
-13.28
-16.85
-18.95
-19.98
-20.51
-21.07
-21.99
-23.32
-24.86
-26.32
-27.48
-28.29
-28.85
-29.38
-30.07
-31.09
-32.57
-34.54
-36.93
-39.42
-41.45
-42.24
-41.12
-37.74
-32.26
-25.34
-17.89
-10.72
-4.31
1.21
5.96
10.11
13.70
16.64
18.79
20.12
20.67
20.66
20.36
20.01
19.83
19.92
20.30
20.93
21.73
22.59
23.39
24.02
24.36
24.35
23.97
23.27
22.40
21.52
20.76
20.10
19.40
18.40
16.95
15.07
13.06
11.31
10.20
9.87
10.16
10.76
11.40
12.08
13.12
14.94
17.76
21.36
24.99
27.67
28.58
27.48
24.89
21.87
19.66
19.22
21.05
25.24
31.42
38.61
44.98
47.90
44.73
34.01
16.57
-4.39
-24.31
-39.15
-47.03
-48.73
-46.82
-43.97
-41.50
-39.06
-35.34
-29.39
-21.44
-12.89
-5.46
-0.29
2.54
3.81
4.55
5.41
6.26
6.41
5.13
2.17
-1.97
-6.24
-9.50
-11.04
-10.85
-9.70
-8.64
-8.53
-9.59
-11.37
-13.00
-13.55
-12.44
-9.58
-5.52
-1.05
3.11
6.53
9.12
10.92
11.95
12.20
12.33
12.93
14.48
17.09
20.48
24.27
28.17
31.98
35.54
38.38
40.05
40.02
37.90
33.68
27.74
20.73
13.19
5.34
-1.68
-7.39
-11.64
-14.50
-16.15
-16.85
-16.90
-16.62
-16.21
-15.63
-14.92
-14.10
-13.26
-12.64
-12.65
-13.67
-15.94
-19.39
-23.56
-27.95
-32.01
-35.31
-37.66
-39.06
-39.69
-39.72
-39.26
-38.24
-36.53
-33.96
-30.35
-25.58
-19.68
-12.81
-5.29
2.41
9.64
15.67
19.86
21.81
21.55
19.56
16.62
13.60
11.20
9.82
9.57
10.38
12.12
14.65
17.77
21.15
24.31
26.69
27.89
27.77
26.51
24.55
22.35
20.23
18.26
16.27
14.09
11.66
9.16
7.02
5.80
6.10
8.35
12.68
18.82
26.03
33.19
39.01
42.37
42.63
39.77
34.41
27.47
19.84
12.09
4.45
-3.03
-10.21
-16.72
-21.95
-25.33
-26.61
-26.00
-24.13
-21.81
-19.77
-18.37
-17.70
-17.66
-18.16
-19.24
-21.05
-23.67
-27.03
-30.90
-34.93
-38.82
-42.27
-45.02
-46.70
-46.87
-45.12
-41.28
-35.59
-28.68
-21.43
-14.71
-9.13
-4.97
-2.24
-0.85
-0.62
-1.36
-2.80
-4.55
-6.14
-7.17
-7.38
-6.76
-5.52
-4.00
-2.54
-1.38
-0.68
-0.51
-0.86
-1.69
-2.86
-4.19
-5.48
-6.63
-7.63
-8.61
-9.79
-11.34
-13.38
-15.85
-18.56
-21.20
-23.32
-24.38
-23.80
-21.07
-15.97
-8.69
0.12
9.40
17.97
24.78
29.19
31.13
31.00
29.51
27.41
25.22
23.21
21.35
19.53
17.58
15.45
13.15
10.76
8.36
6.05
3.90
1.98
0.37
-0.90
-1.84
-2.51
-3.02
-3.51
-4.11
-4.89
-5.89
-7.07
-8.43
-10.03
-11.95
-14.21
-16.59
-18.66
-19.71
-19.05
-16.18
-11.07
-4.16
3.73
11.62
18.68
24.31
28.27
30.58
31.47
31.25
30.26
28.73
26.77
24.38
21.51
18.19
14.59
11.00
7.71
4.87
2.47
0.31
-1.79
-3.92
-6.01
-7.92
-9.53
-10.85
-12.05
-13.29
-14.69
-16.27
-17.99
-19.78
-21.69
-23.74
-25.88
-27.80
-28.92
-28.57
-26.21
-21.69
-15.44
-8.29
-1.24
4.88
9.63
12.97
15.08
16.24
16.57
16.07
14.73
12.58
9.84
6.84
3.94
1.43
-0.55
-2.07
-3.24
-4.24
-5.18
-6.13
-7.08
-8.01
-8.86
-9.56
-10.09
-10.47
-10.80
-11.23
-11.96
-13.15
-14.90
-17.17
-19.67
-21.87
-23.09
-22.62
-20.03
-15.31
-8.95
-1.83
5.09
11.07
15.67
18.85
20.71
21.43
21.14
20.00
18.17
15.92
13.51
11.18
9.05
7.16
5.50
4.05
2.81
1.75
0.80
-0.18
-1.33
-2.72
-4.30
-5.91
-7.36
-8.53
-9.43
-10.21
-11.08
-12.27
-13.94
-16.16
-18.85
-21.72
-24.21
-25.61
-25.15
-22.32
-17.08
-9.95
-1.92
5.87
12.46
17.35
20.47
22.10
22.57
22.21
21.23
19.80
18.10
16.30
14.51
12.77
11.01
9.14
7.16
5.15
3.33
1.88
0.85
0.11
-0.63
-1.63
-3.07
-4.88
-6.84
-8.68
-10.22
-11.48
-12.66
-14.01
-15.77
-18.08
-20.95
-24.20
-27.40
-29.91
-30.98
-29.90
-26.30
-20.33
-12.65
-4.27
3.77
10.68
15.99
19.63
21.71
22.43
22.06
20.91
19.34
17.67
16.14
14.77
13.47
12.08
10.53
8.88
7.31
5.99
5.02
4.33
3.77
3.18
2.45
1.59
0.64
-0.33
-1.35
-2.48
-3.81
-5.46
-7.51
-10.05
-13.05
-16.40
-19.74
-22.54
-24.07
-23.64
-20.81
-15.59
-8.50
-0.47
7.42
14.22
19.39
22.77
24.54
25.00
24.44
23.08
21.07
18.61
15.96
13.41
11.20
9.44
8.15
7.21
6.54
6.04
5.65
5.30
4.91
4.36
3.56
2.49
1.20
-0.19
-1.56
-2.87
-4.16
-5.61
-7.46
-9.89
-12.92
-16.25
-19.26
-21.10
-20.93
-18.19
-12.90
-5.67
2.46
10.28
16.77
21.36
23.95
24.84
24.51
23.43
21.93
20.17
18.22
16.08
13.80
11.44
9.15
7.05
5.25
3.79
2.66
1.78
1.04
0.30
-0.61
-1.83
-3.40
-5.25
-7.23
-9.15
-10.90
-12.46
-13.92
-15.48
-17.33
-19.60
-22.21
-24.81
-26.80
-27.42
-25.99
-22.22
-16.27
-8.87
-1.03
6.25
12.24
16.57
19.24
20.43
20.39
19.42
17.81
15.92
14.08
12.56
11.45
10.63
9.84
8.81
7.41
5.75
4.13
2.86
2.08
1.70
1.39
0.78
-0.40
-2.16
-4.23
-6.27
-7.97
-9.25
-10.27
-11.38
-12.99
-15.41
-18.71
-22.58
-26.35
-29.03
-29.65
-27.56
-22.65
-15.48
-7.10
1.29
8.69
14.50
18.56
21.02
22.12
22.10
21.15
19.50
17.43
15.29
13.39
11.92
10.88
10.08
9.26
8.20
6.85
5.35
3.99
2.99
2.47
2.27
2.10
1.62
0.60
-0.98
-2.96
-5.06
-7.05
-8.79
-10.30
-11.73
-13.31
-15.28
-17.84
-21.00
-24.54
-27.89
-30.22
-30.59
-28.29
-23.16
-15.71
-7.01
1.60
9.05
14.71
18.55
20.86
22.05
22.34
21.83
20.54
18.61
16.35
14.16
12.38
11.14
10.34
9.68
8.85
7.65
6.11
4.43
2.94
1.87
1.33
1.17
1.10
0.77
-0.10
-1.58
-3.54
-5.69
-7.77
-9.61
-11.19
-12.63
-14.11
-15.80
-17.84
-20.33
-23.28
-26.50
-29.50
-31.53
-31.71
-29.28
-23.94
-16.05
-6.51
3.39
12.39
19.57
24.46
27.07
27.70
26.78
24.75
21.97
18.75
15.36
12.02
8.96
6.32
4.16
2.45
1.11
-0.00
-0.97
-1.86
-2.72
-3.57
-4.46
-5.47
-6.69
-8.19
-9.98
-11.97
-14.05
-16.05
-17.83
-19.35
-20.62
-21.82
-23.18
-25.00
-27.45
-30.52
-33.88
-36.79
-38.26
-37.25
-32.98
-25.16
-14.21
-1.07
12.91
26.32
37.92
46.81
52.50
54.96
54.56
51.99
48.05
43.53
39.01
34.83
31.08
27.73
24.70
21.98
19.58
17.50
15.72
14.09
12.42
10.50
8.19
5.52
2.64
-0.20
-2.78
-5.01
-6.97
-8.84
-10.88
-13.30
-16.25
-19.78
-23.68
-27.50
-30.44
-31.52
-29.85
-25.03
-17.39
-7.96
1.76
10.32
16.71
20.63
22.33
22.40
21.39
19.66
17.39
14.66
11.66
8.68
6.06
4.06
2.72
1.83
1.06
0.13
-1.09
-2.49
-3.81
-4.82
-5.47
-5.96
-6.64
-7.88
-9.87
-12.51
-15.43
-18.15
-20.29
-21.74
-22.73
-23.73
-25.37
-28.12
-32.18
-37.27
-42.51
-46.56
-47.83
-44.94
-37.16
-24.75
-9.09
7.72
23.35
35.92
44.41
48.80
49.78
48.34
45.39
41.53
37.14
32.55
28.12
24.24
21.21
19.04
17.41
15.83
13.84
11.24
8.18
5.11
2.51
0.71
-0.34
-1.00
-1.85
-3.43
-6.00
-9.43
-13.31
-17.09
-20.34
-22.88
-24.83
-26.56
-28.55
-31.28
-35.14
-40.20
-46.05
-51.65
-55.35
-55.26
-49.89
-38.83
-22.98
-4.49
13.98
30.05
42.26
50.24
54.44
55.69
54.72
52.07
48.14
43.40
38.44
33.90
30.27
27.67
25.87
24.36
22.58
20.21
17.23
13.97
10.92
8.55
7.04
6.21
5.57
4.44
2.32
-0.96
-5.13
-9.60
-13.71
-17.07
-19.62
-21.69
-23.80
-26.46
-30.01
-34.55
-39.89
-45.45
-50.19
-52.64
-51.21
-44.71
-32.90
-16.84
1.37
19.14
34.22
45.32
52.16
55.29
55.49
53.45
49.65
44.53
38.65
32.77
27.64
23.67
20.84
18.66
16.50
13.87
10.74
7.45
4.53
2.37
0.96
-0.16
-1.63
-3.99
-7.35
-11.35
-15.32
-18.58
-20.81
-22.13
-23.05
-24.29
-26.47
-29.93
-34.54
-39.65
-44.12
-46.50
-45.33
-39.64
-29.29
-15.21
0.78
16.42
29.72
39.34
44.83
46.54
45.21
41.72
36.91
31.47
25.99
20.95
16.64
13.16
10.35
7.92
5.63
3.35
1.19
-0.64
-2.00
-2.93
-3.78
-4.99
-7.00
-9.90
-13.47
-17.20
-20.58
-23.28
-25.29
-26.99
-28.97
-31.83
-35.99
-41.44
-47.53
-52.93
-55.88
-54.57
-47.84
-35.62
-19.20
-0.88
16.69
31.34
41.85
48.06
50.55
50.15
47.62
43.54
38.46
32.99
27.82
23.51
20.27
17.87
15.79
13.47
10.61
7.31
3.99
1.19
-0.74
-1.85
-2.56
-3.60
-5.61
-8.89
-13.26
-18.09
-22.60
-26.19
-28.67
-30.36
-31.96
-34.32
-38.12
-43.64
-50.56
-57.75
-63.34
-65.11
-61.09
-50.39
-33.68
-13.15
8.09
27.09
41.83
51.70
57.21
59.37
59.12
57.00
53.30
48.38
42.87
37.59
33.28
30.19
28.04
26.14
23.75
20.43
16.29
11.89
7.95
4.99
3.11
1.92
0.72
-1.28
-4.57
-9.20
-14.69
-20.27
-25.07
-28.53
-30.60
-31.81
-33.03
-35.22
-39.09
-44.85
-52.03
-59.41
-65.06
-66.76
-62.57
-51.65
-34.67
-13.83
7.77
27.12
42.19
52.28
57.80
59.72
58.92
56.02
51.48
45.86
39.92
34.49
30.17
27.05
24.74
22.60
20.06
16.94
13.51
10.32
7.92
6.53
5.88
5.24
3.74
0.74
-3.89
-9.64
-15.59
-20.85
-24.86
-27.69
-29.91
-32.38
-35.89
-40.97
-47.65
-55.33
-62.61
-67.47
-67.61
-61.26
-47.95
-28.92
-6.88
14.82
33.24
46.72
54.96
58.71
59.01
56.77
52.61
47.06
40.80
34.67
29.44
25.54
22.85
20.85
18.90
16.61
14.04
11.62
9.81
8.81
8.32
7.64
5.97
2.75
-2.02
-7.80
-13.75
-19.03
-23.20
-26.29
-28.83
-31.63
-35.55
-41.16
-48.41
-56.34
-63.09
-66.26
-63.64
-54.11
-38.21
-18.16
2.83
21.66
36.29
46.13
51.76
54.22
54.34
52.48
48.78
43.58
37.64
32.03
27.70
25.02
23.64
22.62
20.96
18.09
14.12
9.76
5.97
3.43
2.20
1.69
0.91
-1.05
-4.68
-9.75
-15.50
-20.96
-25.37
-28.50
-30.70
-32.71
-35.40
-39.46
-45.29
-52.77
-61.15
-68.96
-74.09
-74.32
-68.02
-54.91
-36.38
-15.15
5.59
23.25
36.50
45.36
50.63
53.20
53.65
52.20
49.04
44.63
39.74
35.22
31.64
29.04
26.98
24.80
22.03
18.59
14.89
11.56
9.17
7.89
7.41
6.97
5.74
3.07
-1.17
-6.56
-12.29
-17.46
-21.48
-24.24
-26.21
-28.18
-31.04
-35.45
-41.59
-49.02
-56.59
-62.62
-65.14
-62.51
-53.93
-39.90
-22.15
-3.12
14.76
29.75
41.15
49.10
54.13
56.71
57.12
55.54
52.33
48.13
43.79
40.05
37.27
35.33
33.80
32.22
30.42
28.57
27.10
26.43
26.74
27.78
28.94
29.45
28.65
26.24
22.41
17.72
12.85
8.32
4.20
0.12
-4.58
-10.61
-18.40
-27.90
-38.45
-48.74
-56.95
-61.15
-59.78
-52.24
-39.20
-22.51
-4.66
12.00
25.86
36.32
43.57
48.17
50.62
51.24
50.15
47.58
43.89
39.60
35.23
31.08
27.21
23.43
19.51
15.35
11.10
7.12
3.84
1.47
-0.14
-1.53
-3.44
-6.48
-10.79
-16.01
-21.39
-26.13
-29.71
-32.10
-33.78
-35.57
-38.32
-42.53
-48.08
-54.11
-59.12
-61.28
-59.02
-51.58
-39.32
-23.75
-7.01
8.68
21.69
31.29
37.53
40.95
42.15
41.63
39.73
36.80
33.26
29.65
26.46
23.91
21.90
20.05
17.86
15.02
11.52
7.67
4.00
0.97
-1.22
-2.72
-4.02
-5.71
-8.22
-11.67
-15.79
-20.04
-23.84
-26.82
-28.94
-30.57
-32.32
-34.82
-38.44
-43.10
-48.19
-52.55
-54.77
-53.49
-47.89
-37.97
-24.68
-9.71
4.93
17.52
26.97
32.99
35.89
36.29
34.85
32.13
28.58
24.64
20.77
17.35
14.56
12.37
10.49
8.54
6.26
3.64
0.90
-1.56
-3.36
-4.37
-4.80
-5.13
-5.98
-7.81
-10.71
-14.37
-18.18
-21.52
-23.99
-25.65
-26.92
-28.46
-30.89
-34.53
-39.29
-44.60
-49.43
-52.42
-52.12
-47.41
-37.87
-24.08
-7.63
9.32
24.60
36.64
44.78
49.16
50.42
49.26
46.28
41.95
36.77
31.33
26.26
22.00
18.63
15.91
13.44
10.88
8.19
5.59
3.42
1.90
0.96
0.28
-0.65
-2.27
-4.78
-8.05
-11.70
-15.21
-18.15
-20.37
-22.05
-23.68
-25.90
-29.18
-33.60
-38.63
-43.12
-45.54
-44.37
-38.60
-28.17
-14.14
1.57
16.69
29.28
38.20
43.27
45.00
44.21
41.63
37.76
32.99
27.75
22.61
18.15
14.78
12.52
10.98
9.53
7.67
5.22
2.41
-0.23
-2.22
-3.39
-4.02
-4.71
-6.17
-8.79
-12.47
-16.66
-20.59
-23.64
-25.67
-27.03
-28.48
-30.83
-34.61
-39.88
-46.01
-51.83
-55.71
-55.94
-51.22
-41.09
-26.26
-8.51
9.70
25.97
38.61
46.98
51.38
52.66
51.69
49.11
45.30
40.57
35.40
30.38
26.07
22.75
20.25
18.03
15.50
12.27
8.42
4.45
0.99
-1.49
-2.97
-3.91
-5.06
-7.11
-10.37
-14.65
-19.34
-23.70
-27.16
-29.58
-31.26
-32.81
-34.91
-38.11
-42.67
-48.45
-54.83
-60.62
-64.06
-63.25
-56.64
-43.76
-25.61
-4.56
16.30
34.16
47.32
55.48
59.48
60.57
59.79
57.69
54.41
50.03
44.90
39.61
34.81
30.95
28.08
25.83
23.67
21.08
17.80
13.96
9.99
6.38
3.52
1.41
-0.31
-2.26
-5.02
-8.85
-13.54
-18.54
-23.15
-26.86
-29.56
-31.53
-33.32
-35.55
-38.77
-43.29
-49.16
-56.01
-62.90
-68.30
-70.24
-66.85
-56.99
-40.91
-20.36
1.79
22.45
39.21
50.92
57.72
60.53
60.47
58.36
54.69
49.83
44.31
38.84
34.17
30.73
28.46
26.83
25.13
22.77
19.64
16.06
12.63
9.90
8.04
6.76
5.41
3.21
-0.30
-5.13
-10.75
-16.35
-21.13
-24.68
-27.09
-28.89
-30.83
-33.68
-37.94
-43.70
-50.44
-56.94
-61.32
-61.45
-55.57
-43.12
-25.08
-3.89
17.33
35.72
49.55
58.38
62.76
63.63
61.83
57.95
52.51
46.18
39.80
34.19
29.83
26.68
24.19
21.63
18.48
14.67
10.66
7.12
4.60
3.17
2.34
1.21
-1.06
-4.89
-10.04
-15.76
-21.14
-25.55
-28.85
-31.44
-34.07
-37.48
-42.22
-48.39
-55.51
-62.44
-67.40
-68.30
-63.33
-51.70
-34.09
-12.70
9.37
29.03
44.15
53.98
58.97
60.18
58.67
55.18
50.21
44.24
37.94
32.10
27.36
23.85
21.16
18.52
15.20
10.86
5.76
0.60
-3.84
-7.15
-9.52
-11.71
-14.70
-19.21
-25.40
-32.70
-40.13
-46.72
-51.94
-55.92
-59.39
-63.31
-68.60
-75.79
-84.81
-94.77
-103.72
-108.91
-107.32
-96.73
-76.72
-49.24
-18.15
11.93
37.21
55.78
67.78
74.67
78.11
79.22
78.32
75.45
70.89
65.42
60.19
56.20
53.89
52.97
52.63
51.95
50.34
47.73
44.54
41.42
38.93
37.29
36.22
35.04
32.91
29.18
23.70
16.91
9.67
2.93
-2.71
-7.21
-11.09
-15.18
-20.27
-26.85
-35.00
-44.37
-54.20
-63.30
-70.04
-72.67
-69.78
-60.95
-47.10
-30.36
-13.47
1.12
11.96
18.81
22.35
23.58
23.30
21.97
19.78
16.94
13.81
10.82
8.29
6.26
4.49
2.66
0.60
-1.58
-3.44
-4.45
-4.24
-2.79
-0.51
1.90
3.77
4.69
4.72
4.36
4.34
5.35
7.69
11.20
15.26
18.93
21.25
21.48
19.31
15.04
9.58
4.33
0.85
0.35
3.32
9.32
17.13
25.17
31.97
36.60
38.71
38.40
35.97
31.75
26.05
19.25
11.84
4.39
-2.60
-8.88
-14.48
-19.74
-25.13
-31.02
-37.58
-44.70
-52.04
-59.24
-66.04
-72.37
-78.34
-84.09
-89.69
-95.01
-99.76
-103.58
-106.20
-107.52
-107.72
-107.17
-106.27
-105.19
-103.62
-100.64
-94.92
-85.07
-70.19
-50.25
-26.22
0.24
27.28
53.35
77.38
98.80
117.17
131.97
142.60
148.57
149.86
147.08
141.42
134.29
126.93
120.09
113.91
108.08
102.12
95.63
88.48
80.77
72.75
64.69
56.70
48.75
40.64
32.17
23.28
14.08
4.88
-3.92
-12.01
-19.33
-26.08
-32.70
-39.70
-47.50
-56.20
-65.48
-74.56
-82.31
-87.38
-88.51
-84.82
-76.16
-63.25
-47.64
-31.32
-16.23
-3.91
4.83
9.92
11.89
11.53
9.63
6.84
3.75
0.77
-1.87
-4.15
-6.27
-8.43
-10.83
-13.43
-15.89
-17.16
-16.07
-11.80
-4.25
5.95
17.56
29.07
38.98
46.09
50.51
52.78
53.47
52.85
50.98
47.97
43.97
39.11
33.54
28.67
25.83
25.60
27.65
31.16
35.57
40.70
46.58
53.22
61.98
73.65
87.75
102.58
116.08
126.97
134.92
140.18
134.05
111.83
75.48
33.50
-5.06
-35.80
-58.99
-77.22
-93.39
-109.42
-124.38
-136.50
-144.49
-148.19
-148.46
-146.07
-141.35
-134.38
-125.13
-112.43
-95.53
-75.53
-54.14
-34.73
-20.84
-14.85
-16.98
-24.75
-32.83
-35.39
-28.50
-11.67
11.79
36.10
55.71
67.37
70.71
67.76
61.06
52.29
42.10
30.50
17.93
5.56
-5.06
-12.58
-16.43
-17.05
-15.66
-13.74
-12.50
-12.29
-12.65
-12.77
-12.01
-10.37
-8.49
-7.23
-7.21
-8.52
-10.59
-12.44
-13.20
-12.42
-10.41
-8.04
-6.42
-6.38
-8.21
-11.53
-15.38
-18.66
-20.28
-19.67
-16.80
-12.12
-6.36
-0.27
5.54
10.80
14.76
17.04
17.56
16.46
14.11
11.03
7.78
4.67
1.83
-0.90
-3.65
-6.46
-9.25
-11.74
-13.55
-14.40
-14.22
-13.28
-12.10
-11.21
-11.02
-11.67
-12.84
-13.80
-13.68
-11.87
-8.38
-3.85
0.66
3.95
5.09
3.89
1.14
-1.64
-2.75
-0.95
4.21
12.32
22.14
31.93
40.37
47.12
52.56
57.16
60.88
63.12
63.07
60.05
53.70
44.72
34.98
26.69
21.59
20.77
24.87
33.95
46.62
59.03
65.80
61.94
44.79
15.29
-21.93
-59.97
-91.20
-108.00
-108.65
-98.87
-86.55
-75.82
-66.09
-54.93
-41.28
-26.56
-13.95
-6.53
-5.21
-7.97
-11.34
-12.59
-11.22
-8.51
-6.41
-6.69
-10.37
-17.03
-24.76
-31.25
-35.01
-35.89
-34.77
-32.92
-31.64
-31.83
-33.06
-33.55
-31.55
-26.09
-17.69
-7.98
1.69
10.17
16.92
21.18
23.19
23.68
23.41
22.77
21.81
20.64
19.31
17.89
16.44
15.15
14.04
12.88
11.24
8.77
5.71
2.60
0.03
-1.50
-1.59
-0.08
2.95
7.16
12.14
18.04
24.87
32.23
39.24
44.96
48.76
50.54
50.66
49.88
49.83
51.83
56.37
62.98
70.58
78.06
84.35
88.53
85.36
72.08
49.87
23.65
-1.11
-21.05
-35.16
-43.94
-48.55
-50.28
-49.46
-46.34
-41.50
-35.96
-31.04
-27.80
-26.85
-28.23
-31.41
-34.93
-37.37
-38.04
-37.16
-35.55
-33.94
-32.74
-31.97
-31.47
-30.72
-29.46
-28.18
-27.16
-26.86
-27.41
-28.51
-29.57
-29.88
-28.80
-26.19
-22.63
-19.24
-17.34
-17.77
-20.53
-24.77
-29.10
-31.99
-32.33
-29.77
-24.61
-17.79
-10.58
-4.37
-0.49
0.18
-2.32
-6.66
-10.26
-9.77
-2.17
14.21
38.65
67.76
96.40
119.53
133.79
138.37
134.70
125.30
112.62
98.31
83.26
68.10
53.60
40.64
29.90
21.56
15.19
10.06
5.46
1.02
-3.19
-6.83
-9.59
-11.48
-12.83
-14.22
-16.18
-19.04
-22.70
-26.73
-30.53
-33.62
-35.82
-37.27
-38.28
-39.01
-39.30
-38.59
-36.10
-31.19
-23.69
-14.17
-3.85
5.76
13.30
17.91
19.38
18.11
14.84
10.41
5.58
0.92
-3.16
-6.45
-8.89
-10.62
-11.85
-12.88
-13.86
-14.82
-15.69
-16.37
-16.82
-17.13
-17.41
-17.77
-18.26
-18.85
-19.48
-20.10
-20.70
-21.27
-21.81
-22.37
-23.04
-23.94
-25.11
-26.38
-27.29
-27.18
-25.31
-21.15
-14.60
-6.09
3.53
13.12
21.56
27.97
31.85
33.13
32.06
29.16
25.03
20.29
15.50
11.09
7.31
4.22
1.67
-0.54
-2.58
-4.49
-6.15
-7.41
-8.17
-8.50
-8.63
-8.87
-9.45
-10.47
-11.87
-13.46
-15.04
-16.44
-17.62
-18.68
-19.79
-21.20
-23.03
-25.18
-27.23
-28.48
-28.08
-25.30
-19.75
-11.60
-1.53
9.30
19.56
28.06
33.91
36.79
36.88
34.70
30.99
26.43
21.58
16.86
12.51
8.73
5.59
3.11
1.13
-0.52
-2.03
-3.54
-5.06
-6.54
-7.92
-9.14
-10.19
-11.11
-11.96
-12.82
-13.69
-14.54
-15.27
-15.80
-16.17
-16.55
-17.29
-18.68
-20.79
-23.25
-25.28
-25.83
-23.92
-19.01
-11.19
-1.21
9.67
20.02
28.57
34.45
37.33
37.39
35.16
31.36
26.70
21.79
17.07
12.80
9.15
6.14
3.76
1.91
0.46
-0.73
-1.78
-2.80
-3.82
-4.85
-5.82
-6.67
-7.39
-8.01
-8.65
-9.43
-10.44
-11.70
-13.18
-14.86
-16.75
-18.83
-20.92
-22.58
-23.15
-21.84
-18.06
-11.64
-3.01
6.86
16.70
25.22
31.43
34.83
35.43
33.68
30.23
25.81
21.04
16.40
12.18
8.54
5.50
3.04
1.04
-0.61
-1.99
-3.15
-4.07
-4.75
-5.26
-5.70
-6.24
-6.98
-7.96
-9.13
-10.38
-11.59
-12.74
-13.84
-15.04
-16.53
-18.48
-20.93
-23.63
-26.02
-27.26
-26.47
-23.02
-16.76
-8.13
1.89
12.09
21.28
28.53
33.32
35.53
35.37
33.26
29.73
25.34
20.65
16.12
12.13
8.82
6.21
4.10
2.26
0.51
-1.20
-2.80
-4.15
-5.16
-5.87
-6.41
-6.97
-7.67
-8.60
-9.76
-11.09
-12.47
-13.80
-14.96
-15.97
-16.97
-18.20
-19.92
-22.17
-24.61
-26.55
-27.04
-25.24
-20.68
-13.50
-4.37
5.62
15.28
23.56
29.71
33.38
34.58
33.61
30.96
27.22
22.98
18.75
14.94
11.75
9.17
7.04
5.09
3.11
1.07
-0.90
-2.52
-3.57
-4.02
-4.04
-4.04
-4.41
-5.43
-7.13
-9.24
-11.35
-13.05
-14.14
-14.72
-15.17
-15.93
-17.38
-19.62
-22.48
-25.49
-27.99
-29.19
-28.35
-24.88
-18.58
-9.83
0.45
10.93
20.25
27.38
31.80
33.56
33.05
30.83
27.46
23.44
19.17
14.99
11.14
7.77
4.91
2.52
0.55
-1.05
-2.28
-3.10
-3.48
-3.47
-3.23
-3.02
-3.12
-3.73
-4.93
-6.58
-8.42
-10.16
-11.61
-12.72
-13.69
-14.82
-16.43
-18.56
-20.93
-22.81
-23.28
-21.48
-17.00
-10.02
-1.33
7.96
16.67
23.84
28.87
31.56
31.99
30.54
27.70
24.05
20.08
16.17
12.56
9.36
6.59
4.27
2.40
0.94
-0.16
-0.98
-1.61
-2.15
-2.73
-3.50
-4.58
-6.01
-7.71
-9.49
-11.12
-12.44
-13.45
-14.28
-15.22
-16.60
-18.69
-21.54
-24.88
-28.01
-29.91
-29.46
-25.76
-18.56
-8.42
3.38
15.15
25.32
32.78
37.07
38.34
37.17
34.24
30.24
25.72
21.12
16.77
12.92
9.70
7.13
5.08
3.36
1.81
0.31
-1.08
-2.23
-3.03
-3.48
-3.75
-4.16
-5.01
-6.46
-8.44
-10.70
-12.93
-14.91
-16.57
-18.07
-19.65
-21.59
-24.07
-27.05
-30.20
-32.85
-34.10
-32.99
-28.78
-21.28
-10.92
1.20
13.62
24.86
33.76
39.65
42.42
42.38
40.09
36.22
31.43
26.32
21.40
17.05
13.46
10.69
8.62
7.09
5.88
4.83
3.82
2.81
1.77
0.72
-0.36
-1.49
-2.78
-4.35
-6.33
-8.75
-11.50
-14.33
-16.91
-18.96
-20.43
-21.48
-22.49
-23.92
-26.06
-28.91
-32.08
-34.75
-35.93
-34.60
-30.11
-22.33
-11.80
0.38
12.75
23.88
32.63
38.37
40.95
40.66
38.06
33.86
28.77
23.47
18.53
14.32
11.02
8.59
6.79
5.29
3.79
2.14
0.36
-1.32
-2.68
-3.57
-4.10
-4.56
-5.32
-6.67
-8.67
-11.13
-13.69
-15.98
-17.81
-19.17
-20.26
-21.40
-22.91
-25.04
-27.82
-30.98
-33.84
-35.40
-34.48
-30.07
-21.71
-9.81
4.31
18.73
31.43
40.91
46.43
48.13
46.69
42.95
37.71
31.61
25.26
19.25
14.16
10.36
7.91
6.50
5.64
4.88
3.96
2.93
1.94
1.14
0.53
-0.10
-1.02
-2.55
-4.83
-7.77
-11.06
-14.25
-16.87
-18.67
-19.70
-20.37
-21.26
-22.88
-25.45
-28.72
-31.95
-34.04
-33.79
-30.21
-22.88
-12.15
0.79
14.21
26.24
35.43
41.01
43.05
42.14
39.14
34.84
29.84
24.63
19.61
15.18
11.65
9.12
7.48
6.39
5.47
4.40
3.03
1.48
-0.04
-1.28
-2.16
-2.82
-3.58
-4.82
-6.81
-9.58
-12.87
-16.25
-19.21
-21.42
-22.78
-23.48
-23.99
-24.91
-26.78
-29.87
-33.91
-38.07
-41.01
-41.21
-37.42
-29.06
-16.54
-1.24
14.88
29.71
41.57
49.50
53.37
53.70
51.31
47.10
41.83
36.11
30.40
25.08
20.47
16.76
14.00
12.04
10.60
9.35
7.97
6.35
4.56
2.79
1.28
0.12
-0.82
-1.79
-3.12
-5.00
-7.43
-10.21
-13.06
-15.69
-17.94
-19.77
-21.23
-22.47
-23.64
-24.92
-26.52
-28.60
-31.20
-34.13
-36.87
-38.60
-38.29
-34.97
-28.09
-17.80
-5.01
8.68
21.44
31.70
38.51
41.74
41.86
39.69
36.02
31.49
26.56
21.60
17.02
13.21
10.42
8.66
7.67
7.01
6.26
5.12
3.57
1.78
0.03
-1.44
-2.52
-3.28
-3.97
-4.90
-6.32
-8.32
-10.77
-13.38
-15.78
-17.64
-18.87
-19.56
-20.06
-20.84
-22.31
-24.66
-27.72
-30.90
-33.27
-33.72
-31.31
-25.49
-16.37
-4.78
7.89
19.99
30.01
36.93
40.41
40.75
38.61
34.74
29.84
24.43
18.97
13.96
9.87
7.06
5.57
5.11
5.14
5.09
4.61
3.69
2.57
1.55
0.80
0.24
-0.42
-1.51
-3.22
-5.52
-8.13
-10.67
-12.83
-14.51
-15.85
-17.18
-18.90
-21.32
-24.50
-28.18
-31.71
-34.16
-34.45
-31.67
-25.34
-15.67
-3.60
9.37
21.54
31.47
38.29
41.76
42.21
40.27
36.62
31.84
26.47
21.00
15.92
11.65
8.49
6.48
5.44
4.99
4.70
4.20
3.29
1.94
0.31
-1.41
-3.04
-4.53
-5.99
-7.65
-9.72
-12.31
-15.32
-18.45
-21.29
-23.50
-24.96
-25.83
-26.52
-27.58
-29.48
-32.44
-36.25
-40.21
-43.17
-43.70
-40.47
-32.67
-20.41
-4.85
12.00
27.84
40.69
49.37
53.67
54.15
51.75
47.43
41.98
36.02
30.06
24.52
19.77
16.02
13.34
11.61
10.59
9.97
9.41
8.66
7.55
6.02
4.15
2.06
-0.10
-2.22
-4.21
-6.08
-7.91
-9.81
-11.87
-14.16
-16.60
-19.04
-21.26
-23.14
-24.65
-25.93
-27.21
-28.74
-30.73
-33.28
-36.21
-38.97
-40.59
-39.81
-35.43
-26.81
-14.26
0.82
16.31
29.93
39.99
45.77
47.56
46.35
43.29
39.31
34.98
30.59
26.34
22.40
18.98
16.19
14.00
12.23
10.66
9.16
7.75
6.55
5.67
5.09
4.61
3.92
2.77
1.07
-1.01
-3.20
-5.24
-7.06
-8.81
-10.73
-13.02
-15.68
-18.47
-21.04
-23.12
-24.60
-25.62
-26.52
-27.71
-29.50
-32.02
-35.01
-37.82
-39.34
-38.33
-33.74
-25.14
-13.06
1.07
15.31
27.69
36.83
42.17
43.92
42.76
39.53
34.94
29.58
23.99
18.72
14.34
11.24
9.51
8.92
8.93
8.96
8.55
7.53
6.03
4.38
2.91
1.85
1.18
0.69
0.04
-1.09
-2.84
-5.10
-7.60
-9.99
-12.02
-13.66
-15.06
-16.48
-18.14
-20.19
-22.68
-25.46
-28.15
-30.11
-30.51
-28.51
-23.56
-15.70
-5.66
5.26
15.56
23.96
29.68
32.59
33.05
31.64
28.93
25.40
21.41
17.30
13.49
10.40
8.37
7.45
7.36
7.58
7.50
6.74
5.25
3.35
1.45
-0.05
-1.08
-1.80
-2.54
-3.65
-5.32
-7.58
-10.25
-13.07
-15.75
-18.03
-19.78
-21.01
-21.99
-23.08
-24.73
-27.19
-30.38
-33.76
-36.37
-37.05
-34.77
-28.95
-19.72
-7.96
4.88
17.16
27.45
34.84
39.13
40.67
40.15
38.29
35.63
32.49
29.00
25.24
21.36
17.64
14.39
11.84
10.06
8.92
8.10
7.30
6.28
5.02
3.62
2.21
0.88
-0.43
-1.86
-3.56
-5.58
-7.87
-10.30
-12.73
-15.03
-17.14
-18.99
-20.57
-21.91
-23.11
-24.38
-25.98
-28.13
-30.92
-34.12
-37.10
-38.89
-38.33
-34.45
-26.84
-15.84
-2.61
11.21
23.89
34.08
41.05
44.78
45.73
44.62
42.12
38.74
34.83
30.63
26.41
22.41
18.90
16.01
13.72
11.87
10.27
8.79
7.42
6.21
5.21
4.34
3.43
2.28
0.75
-1.14
-3.24
-5.34
-7.27
-8.99
-10.58
-12.17
-13.85
-15.63
-17.41
-19.02
-20.32
-21.31
-22.15
-23.12
-24.56
-26.64
-29.22
-31.72
-33.24
-32.76
-29.44
-22.99
-13.79
-2.91
8.22
18.16
25.85
30.81
33.13
33.23
31.66
28.87
25.24
21.12
16.93
13.15
10.18
8.23
7.22
6.80
6.57
6.16
5.44
4.43
3.30
2.22
1.28
0.45
-0.39
-1.40
-2.73
-4.45
-6.48
-8.63
-10.66
-12.39
-13.75
-14.80
-15.75
-16.86
-18.38
-20.43
-22.91
-25.41
-27.23
-27.55
-25.65
-21.14
-14.21
-5.54
3.79
12.65
20.11
25.62
29.01
30.41
30.08
28.33
25.46
21.81
17.78
13.83
10.40
7.83
6.23
5.42
5.01
4.55
3.70
2.40
0.85
-0.58
-1.58
-2.05
-2.16
-2.29
-2.86
-4.10
-6.02
-8.40
-10.87
-13.12
-14.97
-16.44
-17.69
-18.97
-20.56
-22.63
-25.24
-28.17
-30.93
-32.74
-32.73
-30.12
-24.55
-16.22
-5.95
5.04
15.44
24.19
30.66
34.68
36.49
36.46
35.04
32.59
29.45
25.94
22.40
19.15
16.46
14.43
12.97
11.86
10.83
9.72
8.50
7.24
6.00
4.80
3.54
2.06
0.27
-1.82
-4.12
-6.46
-8.72
-10.84
-12.80
-14.60
-16.24
-17.71
-19.00
-20.14
-21.23
-22.47
-24.09
-26.29
-29.07
-32.09
-34.62
-35.70
-34.38
-30.08
-22.80
-13.16
-2.25
8.65
18.33
25.93
31.03
33.66
34.22
33.29
31.43
29.07
26.45
23.71
20.97
18.37
16.07
14.17
12.65
11.43
10.39
9.47
8.70
8.07
7.52
6.89
5.99
4.64
2.85
0.73
-1.47
-3.56
-5.44
-7.14
-8.81
-10.59
-12.58
-14.74
-16.92
-18.98
-20.77
-22.26
-23.51
-24.68
-26.02
-27.72
-29.80
-32.01
-33.70
-33.97
-31.83
-26.60
-18.21
-7.39
4.52
15.89
25.29
31.86
35.43
36.38
35.35
33.00
29.84
26.19
22.32
18.52
15.12
12.41
10.55
9.47
8.88
8.41
7.72
6.68
5.36
3.98
2.75
1.75
0.92
0.03
-1.10
-2.58
-4.40
-6.47
-8.68
-10.92
-13.07
-15.00
-16.58
-17.72
-18.51
-19.19
-20.15
-21.75
-24.04
-26.73
-29.06
-30.05
-28.72
-24.48
-17.28
-7.71
3.11
13.85
23.25
30.36
34.76
36.42
35.70
33.13
29.31
24.85
20.28
16.09
12.61
10.06
8.45
7.63
7.32
7.18
6.92
6.36
5.48
4.34
3.07
1.81
0.59
-0.61
-1.92
-3.50
-5.48
-7.90
-10.67
-13.52
-16.12
-18.15
-19.48
-20.22
-20.72
-21.46
-22.87
-25.20
-28.31
-31.70
-34.46
-35.47
-33.61
-28.18
-19.16
-7.40
5.58
17.98
28.23
35.46
39.51
40.83
40.11
37.98
34.94
31.33
27.46
23.66
20.23
17.37
15.12
13.40
12.06
11.01
10.15
9.46
8.87
8.24
7.42
6.27
4.71
2.77
0.59
-1.62
-3.69
-5.57
-7.31
-9.07
-10.94
-12.93
-14.97
-16.90
-18.62
-20.08
-21.33
-22.53
-23.86
-25.53
-27.64
-30.02
-32.18
-33.30
-32.46
-28.92
-22.47
-13.51
-3.02
7.70
17.38
25.07
30.27
32.95
33.41
32.18
29.84
26.89
23.71
20.55
17.56
14.84
12.47
10.47
8.83
7.49
6.41
5.52
4.80
4.24
3.78
3.34
2.78
1.96
0.78
-0.78
-2.60
-4.52
-6.37
-8.08
-9.71
-11.43
-13.39
-15.56
-17.78
-19.76
-21.31
-22.42
-23.32
-24.34
-25.84
-27.98
-30.66
-33.45
-35.66
-36.36
-34.69
-30.05
-22.40
-12.37
-1.17
9.79
19.23
26.33
30.82
32.89
32.95
31.43
28.73
25.21
21.25
17.30
13.79
11.08
9.33
8.43
8.10
7.96
7.69
7.17
6.42
5.61
4.88
4.26
3.65
2.87
1.76
0.24
-1.64
-3.76
-5.94
-8.03
-9.92
-11.58
-13.06
-14.53
-16.20
-18.27
-20.81
-23.65
-26.32
-28.12
-28.26
-26.09
-21.27
-13.96
-4.76
5.32
15.16
23.70
30.17
34.17
35.67
34.97
32.49
28.76
24.31
19.65
15.27
11.57
8.83
7.13
6.32
6.05
5.91
5.54
4.77
3.65
2.41
1.26
0.33
-0.49
-1.49
-2.97
-5.15
-7.97
-11.15
-14.28
-16.94
-18.94
-20.30
-21.29
-22.32
-23.79
-26.00
-29.00
-32.48
-35.73
-37.74
-37.34
-33.55
-25.96
-14.93
-1.59
12.37
25.15
35.33
42.12
45.43
45.72
43.71
40.15
35.71
30.90
26.18
21.86
18.18
15.22
12.92
11.10
9.57
8.18
6.87
5.62
4.45
3.35
2.28
1.18
0.03
-1.23
-2.66
-4.32
-6.33
-8.71
-11.40
-14.21
-16.87
-19.13
-20.90
-22.25
-23.43
-24.77
-26.59
-29.06
-32.12
-35.42
-38.22
-39.49
-38.12
-33.16
-24.28
-11.97
2.41
16.96
29.74
39.29
44.96
46.91
45.92
42.96
38.87
34.25
29.43
24.66
20.13
16.05
12.58
9.80
7.67
6.09
4.93
4.11
3.55
3.15
2.79
2.30
1.51
0.33
-1.23
-3.09
-5.13
-7.26
-9.41
-11.59
-13.78
-15.97
-18.07
-19.98
-21.56
-22.79
-23.73
-24.63
-25.86
-27.83
-30.70
-34.19
-37.43
-39.06
-37.60
-32.01
-22.19
-9.27
4.66
17.02
25.58
28.99
27.16
21.06
12.34
2.79
-6.05
-13.11
-17.86
-20.30
-20.78
-19.87
-18.10
-15.83
-13.08
-9.59
-4.97
0.97
7.95
15.13
21.37
25.63
27.35
26.50
23.53
19.24
14.53
10.09
6.41
3.84
2.78
3.49
5.90
9.55
13.64
17.17
19.07
18.43
14.99
9.31
2.63
-3.75
-8.78
-11.77
-12.19
-10.04
-6.37
-2.82
-0.55
0.40
0.61
0.47
0.18
0.04
0.06
-0.22
-1.80
-5.10
-9.37
-13.71
-16.87
-17.79
-15.49
-10.12
-3.75
0.33
-0.54
-6.75
-18.28
-34.89
-56.52
-81.33
-105.48
-123.50
-129.89
-123.19
-102.68
-72.18
-38.41
-8.54
13.85
29.14
40.36
51.15
59.15
64.00
64.40
64.29
63.47
62.89
64.19
68.78
72.68
73.55
70.50
62.76
50.43
33.86
14.72
-4.91
-23.19
-38.77
-50.20
-56.13
-56.50
-52.07
-44.62
-35.45
-25.67
-16.29
-8.27
-1.98
2.65
5.59
7.05
7.12
6.51
5.92
5.71
5.77
5.87
5.72
4.89
3.17
0.48
-2.64
-5.43
-7.12
-7.15
-5.06
-0.68
5.76
13.74
22.50
31.45
40.19
48.43
55.89
62.16
66.65
68.76
68.23
65.45
61.83
59.08
58.40
59.82
62.24
63.89
62.99
58.35
49.72
38.31
26.06
14.87
6.08
0.54
-1.42
-0.05
3.70
8.37
13.30
18.04
21.94
23.86
22.70
17.93
9.70
-1.10
-12.82
-22.09
-25.35
-20.40
-7.30
12.08
34.92
57.93
77.69
84.43
71.19
38.64
-4.42
-47.13
-81.72
-104.27
-113.81
-111.90
-101.97
-87.42
-71.46
-57.02
-46.32
-40.12
-37.70
-37.46
-38.02
-38.62
-38.19
-35.97
-32.22
-28.25
-25.70
-25.44
-26.93
-28.58
-28.05
-22.51
-10.33
7.64
27.88
45.51
55.28
55.42
47.45
35.24
23.43
15.38
11.92
11.58
11.95
11.13
8.76
5.36
1.75
-1.54
-4.60
-7.88
-11.66
-15.75
-19.44
-21.75
-22.23
-21.05
-18.93
-16.80
-15.38
-14.89
-15.06
-15.42
-15.19
-14.02
-11.95
-9.39
-6.86
-4.85
-3.51
-2.73
-2.25
-1.84
-1.45
-1.24
-1.48
-2.37
-3.85
-5.39
-6.17
-5.36
-2.53
2.21
8.21
14.46
19.72
23.02
24.02
22.82
19.85
15.51
10.41
5.34
1.09
-1.94
-3.71
-4.21
-3.77
-2.86
-2.11
-1.58
-0.79
0.99
4.14
8.75
14.93
22.00
28.50
31.15
26.57
13.15
-7.39
-30.55
-52.35
-69.21
-79.35
-80.96
-74.88
-63.42
-49.12
-32.32
-14.93
1.06
14.80
25.92
34.01
38.31
38.68
35.91
31.34
26.81
22.54
18.69
15.18
11.85
8.49
5.32
2.95
1.92
2.24
3.23
4.40
5.20
5.25
4.39
2.93
1.52
0.78
0.88
1.59
2.66
3.62
3.97
3.23
1.24
-1.86
-5.66
-9.81
-14.01
-18.03
-21.84
-25.58
-29.38
-33.12
-36.41
-38.58
-38.97
-37.08
-32.67
-25.92
-17.41
-7.94
1.57
10.32
17.72
23.51
27.69
30.51
32.27
33.23
33.56
33.31
32.53
31.27
29.58
27.55
25.21
22.62
19.86
17.10
14.59
12.58
11.24
10.46
9.87
8.79
6.50
2.42
-3.62
-11.25
-19.71
-28.06
-35.54
-41.66
-46.21
-49.05
-49.93
-48.52
-44.62
-38.43
-30.64
-22.29
-14.42
-7.63
-2.00
2.78
7.02
10.72
13.58
15.18
15.23
13.86
11.54
8.89
6.43
4.43
2.92
1.83
1.14
0.86
1.10
1.92
3.34
5.32
7.79
10.65
13.74
16.82
19.57
21.65
22.77
22.80
21.74
19.73
17.07
14.17
11.56
9.83
9.42
10.54
13.03
16.40
20.01
23.32
25.97
27.84
28.95
29.33
28.99
27.93
26.19
23.82
20.90
17.43
13.28
8.30
2.36
-4.49
-11.93
-19.39
-26.17
-31.62
-35.35
-37.41
-38.18
-38.31
-38.43
-39.04
-40.38
-42.56
-45.53
-49.22
-53.32
-57.30
-60.27
-61.19
-59.08
-53.43
-44.44
-32.99
-20.46
-8.31
2.31
10.75
16.95
21.19
23.94
25.58
26.36
26.38
25.73
24.55
23.08
21.61
20.44
19.77
19.68
20.14
21.13
22.66
24.91
28.07
32.29
37.44
43.04
48.23
51.91
52.97
50.56
44.36
34.67
22.46
9.21
-3.32
-13.34
-19.43
-20.81
-17.56
-10.60
-1.49
8.05
16.52
23.02
27.24
29.33
29.61
28.36
25.74
21.85
16.89
11.13
4.92
-1.42
-7.73
-13.96
-20.20
-26.51
-32.90
-39.23
-45.22
-50.49
-54.61
-57.27
-58.33
-57.91
-56.35
-54.18
-51.91
-50.03
-48.88
-48.58
-48.98
-49.56
-49.48
-47.67
-43.21
-35.70
-25.47
-13.59
-1.52
9.35
18.13
24.60
29.08
32.11
34.11
35.24
35.44
34.60
32.78
30.24
27.42
24.75
22.58
21.10
20.33
20.15
20.45
21.07
21.91
22.92
24.10
25.56
27.49
