1660756919.00
64.000000
-0.00
-0.00
-0.00
-0.00
-0.00
-0.00
-0.00
-0.00
-0.00
-0.00
0.00
0.01
0.01
-0.00
-0.03
-0.05
-0.05
0.00
0.13
0.36
0.66
1.01
1.37
1.72
2.06
2.40
2.79
3.24
3.80
4.42
5.06
5.66
6.20
6.68
7.15
7.68
8.31
9.14
10.09
11.04
11.88
12.56
13.14
13.76
14.65
15.96
17.91
20.32
22.90
25.38
27.58
29.57
31.68
34.32
37.81
42.54
48.15
54.10
59.83
64.97
69.58
74.14
79.34
85.71
93.76
103.00
112.62
121.73
129.77
136.75
143.30
150.75
157.77
166.64
177.95
191.79
206.97
220.57
228.25
225.36
208.53
176.87
132.76
80.05
23.07
-34.94
-92.44
-149.16
-205.23
-260.37
-313.74
-363.87
-409.83
-450.91
-486.50
-515.74
-537.23
-549.22
-549.96
-538.37
-514.21
-478.67
-433.88
-382.45
-327.02
-269.84
-212.63
-156.66
-102.95
-52.37
-5.90
35.58
71.43
101.35
125.50
144.38
158.69
169.15
176.37
180.75
182.57
182.07
179.51
175.23
169.65
163.18
156.15
148.81
141.30
133.69
126.02
118.33
110.69
103.16
95.80
88.68
81.83
75.25
68.95
62.95
57.25
51.86
46.78
42.03
37.59
33.45
29.61
26.07
22.81
19.83
17.11
14.67
12.48
10.54
8.83
7.35
6.07
4.97
4.05
3.27
2.62
2.09
1.65
1.30
1.01
0.79
0.61
0.47
0.37
0.29
0.23
0.19
0.16
0.14
0.14
0.14
0.16
0.17
0.20
0.23
0.27
0.31
0.35
0.39
0.44
0.49
0.53
0.58
0.64
0.69
0.74
0.81
0.88
0.97
1.08
1.18
1.27
1.33
1.37
1.40
1.45
1.55
1.71
1.94
2.19
2.46
2.71
2.93
3.17
3.44
3.80
4.25
4.79
5.36
5.90
6.39
6.80
7.21
7.68
8.31
9.13
10.10
11.10
11.98
12.66
13.10
13.44
13.89
14.63
15.74
17.05
18.23
18.83
18.49
17.06
14.71
11.74
8.55
5.33
1.97
-1.90
-6.68
-12.57
-19.40
-26.53
-33.10
-38.40
-42.04
-44.17
-45.33
-46.19
-47.27
-49.00
-51.64
-55.19
-59.22
-62.43
-62.93
-58.68
-48.61
-33.38
-15.50
1.57
14.81
22.83
26.24
26.91
26.81
26.96
27.21
26.79
25.25
22.89
20.69
19.59
19.88
20.95
21.70
21.11
18.86
15.52
12.17
9.86
9.09
9.54
10.42
10.81
10.20
8.61
6.53
4.59
3.24
2.60
2.41
2.30
2.00
1.44
0.75
0.13
-0.33
-0.69
-1.10
-1.66
-2.38
-3.19
-3.95
-4.66
-5.42
-6.40
-7.68
-9.15
-10.50
-11.33
-11.25
-10.06
-7.81
-4.74
-1.28
2.07
5.02
7.50
9.71
11.96
14.34
16.70
18.62
19.66
19.64
18.76
17.53
16.41
15.62
15.07
14.52
13.75
12.76
11.69
10.73
9.97
9.34
8.70
7.84
6.64
5.00
2.97
0.70
-1.59
-3.66
-5.41
-6.85
-8.16
-9.52
-11.05
-12.75
-14.50
-16.17
-17.71
-19.18
-20.67
-22.19
-23.59
-24.56
-24.73
-23.89
-22.03
-19.37
-16.33
-13.24
-10.32
-7.56
-4.92
-2.39
-0.12
1.60
2.57
2.76
2.42
1.96
1.71
1.76
1.96
2.04
1.84
1.41
1.01
0.86
1.04
1.38
1.61
1.50
1.01
0.28
-0.48
-1.08
-1.47
-1.69
-1.84
-1.99
-2.17
-2.38
-2.65
-3.00
-3.51
-4.24
-5.27
-6.63
-8.28
-10.11
-11.98
-13.66
-14.92
-15.49
-15.14
-13.75
-11.37
-8.26
-4.80
-1.33
1.91
4.83
7.42
9.61
11.28
12.36
12.90
13.15
13.42
13.88
14.41
14.75
14.64
14.07
13.34
12.80
12.69
12.93
13.12
12.81
11.75
10.00
7.95
6.07
4.72
4.03
3.78
3.60
3.14
2.18
0.84
-0.60
-1.80
-2.63
-3.24
-3.91
-4.93
-6.28
-7.73
-8.92
-9.64
-9.87
-9.78
-9.49
-8.93
-7.84
-5.98
-3.34
-0.20
2.94
5.63
7.61
8.94
9.85
10.64
11.51
12.53
13.64
14.66
15.37
15.66
15.55
15.21
14.92
14.90
15.17
15.56
15.78
15.59
14.92
13.91
12.78
11.73
10.79
9.86
8.74
7.26
5.39
3.25
1.06
-1.00
-2.85
-4.55
-6.28
-8.18
-10.21
-12.19
-13.81
-14.87
-15.32
-15.33
-15.09
-14.74
-14.20
-13.22
-11.58
-9.24
-6.42
-3.57
-1.10
0.72
1.90
2.70
3.43
4.32
5.37
6.37
7.03
7.13
6.66
5.81
4.88
4.18
3.85
3.86
4.08
4.30
4.44
4.44
4.32
4.11
3.84
3.50
3.09
2.63
2.17
1.78
1.46
1.17
0.78
0.07
-1.12
-2.80
-4.77
-6.55
-7.63
-7.71
-6.86
-5.52
-4.21
-3.30
-2.60
-1.53
0.67
4.47
9.77
15.90
21.92
27.01
30.85
33.65
36.09
39.09
43.63
50.52
60.26
72.80
87.44
102.89
117.56
130.04
139.35
145.19
147.81
147.78
145.70
142.00
136.72
129.41
119.26
105.50
87.90
67.26
45.42
24.61
6.63
-7.93
-19.90
-30.76
-41.50
-51.70
-59.39
-62.10
-58.45
-49.32
-37.96
-28.61
-24.52
-27.01
-35.99
-51.20
-73.13
-102.28
-136.75
-170.26
-192.54
-192.94
-165.43
-112.03
-42.39
30.32
94.74
144.90
180.22
203.00
215.31
217.75
210.40
194.25
171.92
146.75
120.89
94.03
63.88
28.07
-13.42
-56.97
-96.32
-125.06
-139.53
-140.50
-133.22
-124.89
-121.50
-125.61
-135.86
-148.45
-159.46
-166.55
-169.43
-169.08
-166.61
-162.48
-156.69
-149.20
-140.38
-130.98
-121.96
-113.99
-107.21
-101.29
-95.64
-89.71
-83.04
-75.37
-66.56
-56.66
-46.00
-35.34
-25.79
-18.54
-14.45
-13.73
-15.81
-19.55
-23.64
-27.05
-29.17
-29.77
-28.72
-25.89
-21.22
-14.99
-8.10
-1.98
1.91
2.64
0.41
-3.45
-6.97
-8.43
-7.24
-4.20
-1.30
-0.69
-3.80
-10.64
-19.71
-28.67
-35.19
-37.98
-37.30
-34.96
-33.82
-36.85
-46.07
-61.69
-81.98
-103.57
-122.48
-135.11
-139.14
-133.99
-120.91
-102.49
-81.97
-62.36
-45.62
-32.30
-21.47
-11.38
-0.17
13.31
29.01
45.60
60.62
71.08
74.20
68.49
54.40
34.42
12.39
-7.62
-22.52
-31.03
-33.72
-32.15
-27.77
-21.42
-13.66
-5.15
3.31
11.02
17.28
21.12
21.51
18.46
14.04
12.70
20.32
42.02
79.40
128.10
177.76
215.70
232.41
225.26
198.62
160.77
120.36
84.30
57.04
41.06
38.26
50.26
76.90
114.32
152.66
177.05
177.16
155.18
122.92
92.72
71.47
59.91
55.17
53.62
53.00
53.39
55.42
58.19
59.38
56.78
49.62
38.75
25.85
12.55
0.71
-8.98
-17.70
-27.78
-41.35
-59.31
-80.99
-104.22
-125.84
-141.33
-146.82
-141.05
-125.91
-105.80
-86.05
-71.49
-60.84
-54.21
-50.29
-47.40
-44.42
-40.99
-37.29
-33.40
-29.07
-23.95
-17.64
-8.94
3.19
19.14
38.00
57.67
75.74
91.64
103.05
108.78
111.19
114.10
119.63
126.98
133.32
136.55
136.32
133.69
130.37
127.86
126.21
124.64
121.62
115.92
108.05
99.67
92.30
86.78
83.03
79.75
74.40
66.73
55.71
42.51
29.81
19.84
13.72
11.54
12.76
16.58
18.12
13.77
4.33
-6.35
-15.07
-20.60
-23.11
-23.41
-22.19
-26.66
-41.69
-65.50
-91.78
-115.38
-134.52
-149.82
-162.85
-175.26
-197.31
-235.98
-289.69
-351.01
-413.71
-475.59
-537.12
-599.50
-607.35
-534.81
-403.49
-261.24
-141.14
-51.55
12.33
58.35
93.18
121.63
138.00
138.63
127.23
112.41
100.90
95.02
94.38
97.71
104.07
105.98
98.32
82.11
62.79
45.58
33.81
29.70
34.31
47.29
62.07
72.16
74.97
72.06
66.29
59.70
52.98
45.04
34.53
19.31
0.52
-16.72
-26.00
-23.58
-11.56
6.75
26.20
42.97
55.08
63.01
68.66
73.39
77.34
79.93
81.04
81.08
81.21
82.44
85.04
88.63
91.67
92.94
92.05
89.78
87.37
86.35
87.88
92.32
98.97
104.70
105.40
97.17
78.11
49.59
16.52
-13.98
-35.06
-42.81
-38.89
-28.71
-19.10
-15.50
-20.62
-34.67
-57.11
-88.34
-121.24
-150.43
-170.89
-179.17
-174.22
-157.54
-132.98
-105.96
-81.77
-63.78
-53.87
-51.18
-53.35
-57.68
-62.30
-66.29
-69.48
-71.65
-72.21
-71.58
-70.15
-68.24
-65.95
-63.17
-59.58
-54.88
-49.38
-42.22
-33.84
-25.09
-17.01
-10.48
-6.07
-3.96
-4.13
-6.03
-9.03
-13.10
-18.30
-24.76
-32.59
-41.79
-52.21
-63.73
-75.71
-87.61
-99.18
-110.21
-120.46
-129.56
-136.93
-141.61
-144.90
-146.95
-147.75
-147.32
-145.69
-142.94
-139.19
-134.74
-129.98
-125.45
-121.29
-117.56
-114.08
-110.36
-105.63
-99.11
-90.22
-78.80
-65.14
-49.62
-32.74
-14.92
3.69
23.14
43.42
64.24
84.89
104.28
121.47
135.80
147.27
156.52
164.70
173.11
182.89
194.76
208.84
224.54
240.36
254.09
263.26
265.93
261.53
251.18
237.44
223.21
210.49
199.47
188.58
175.45
158.44
137.66
115.23
94.34
77.85
67.16
61.77
59.83
59.08
57.77
54.91
50.24
43.81
35.80
26.54
16.71
7.37
-0.35
-5.76
-9.12
-11.79
-15.56
-21.83
-30.71
-40.76
-49.54
-54.51
-54.12
-48.42
-39.10
-29.05
-21.57
-19.67
-25.25
-38.53
-57.67
-78.97
-97.65
-109.18
-110.74
-102.02
-85.19
-64.05
-42.68
-24.37
-10.95
-2.75
1.05
1.93
1.51
1.25
2.23
5.06
9.98
16.85
25.24
34.45
43.54
51.52
57.51
60.86
61.08
57.62
49.72
36.82
19.24
-1.01
-20.09
-33.42
-37.50
-31.84
-19.60
-6.53
1.32
0.20
-10.05
-26.24
-43.46
-57.03
-63.87
-62.98
-55.14
-42.44
-27.72
-14.11
-4.33
-0.09
-1.44
-6.78
-13.33
-18.06
-18.47
-13.24
-2.33
13.16
31.31
49.68
65.81
77.80
84.76
87.04
86.09
83.71
81.40
79.87
79.19
79.17
79.90
81.70
84.69
88.28
90.90
90.44
85.09
74.21
58.80
41.31
24.85
12.15
4.80
2.82
4.89
8.99
13.14
16.04
17.27
17.01
15.61
13.14
9.33
3.98
-2.57
-9.22
-14.35
-16.53
-15.31
-11.51
-7.00
-4.01
-4.37
-9.13
-18.54
-32.07
-48.38
-65.18
-79.36
-87.74
-88.26
-81.22
-69.53
-57.72
-50.13
-48.85
-52.93
-58.84
-62.19
-59.63
-50.09
-35.03
-17.62
-1.51
10.36
16.64
17.76
15.59
12.62
11.14
12.54
17.35
25.48
36.74
50.87
67.17
84.02
98.92
109.19
113.03
110.37
102.76
92.41
81.08
69.52
57.89
46.65
37.24
31.73
31.62
36.50
43.48
47.95
45.57
34.20
15.05
-7.72
-28.66
-43.11
-48.78
-46.27
-38.31
-28.36
-19.16
-11.99
-6.79
-2.96
-0.21
1.17
0.73
-1.47
-4.39
-6.24
-5.41
-1.50
4.26
9.35
11.01
7.29
-2.28
-16.57
-33.14
-48.83
-60.57
-66.32
-65.83
-61.02
-55.40
-52.76
-55.50
-63.44
-73.72
-82.05
-84.52
-79.29
-67.21
-51.25
-35.04
-21.57
-12.25
-6.91
-4.30
-2.84
-1.17
1.54
5.76
11.84
20.23
31.33
45.13
60.73
76.38
89.87
99.30
103.69
103.08
98.21
89.97
79.32
67.57
56.66
49.13
47.16
51.38
59.84
68.18
71.13
64.70
48.03
23.90
-2.35
-24.92
-39.69
-45.43
-43.68
-37.67
-30.75
-25.29
-22.25
-21.54
-22.67
-25.24
-28.96
-33.22
-36.79
-37.96
-35.27
-28.51
-19.15
-10.08
-4.53
-4.76
-11.27
-22.76
-36.69
-49.99
-59.77
-63.73
-60.73
-51.27
-37.77
-24.17
-14.81
-12.81
-18.76
-30.34
-43.15
-52.34
-54.38
-48.05
-34.63
-17.16
0.69
15.66
25.65
30.04
29.52
25.65
20.20
14.67
10.18
7.51
7.38
10.37
16.69
25.88
36.68
47.34
56.20
62.03
64.25
62.80
57.99
50.60
42.16
34.92
31.45
33.50
40.96
51.33
60.18
62.71
55.55
38.16
13.06
-14.98
-40.55
-59.20
-68.53
-68.37
-60.49
-47.75
-33.43
-20.67
-11.99
-8.94
-11.76
-19.09
-28.21
-35.74
-38.66
-35.40
-26.36
-13.74
-0.78
8.98
12.50
7.87
-4.90
-23.18
-41.86
-54.53
-55.90
-44.28
-22.86
1.17
19.57
26.53
21.20
7.66
-7.26
-17.20
-18.90
-12.98
-2.82
7.45
14.84
18.36
18.78
17.75
16.82
16.80
17.73
19.20
20.81
22.33
23.60
24.19
23.24
19.76
13.32
4.79
-3.35
-7.64
-4.99
5.71
22.64
41.52
57.14
65.39
64.80
56.66
44.16
30.76
19.11
10.55
5.40
3.39
3.96
6.22
8.80
9.90
7.80
1.46
-8.88
-21.58
-34.00
-43.40
-47.88
-47.07
-42.16
-35.24
-28.53
-23.66
-21.26
-20.99
-21.87
-22.69
-22.35
-20.19
-15.86
-9.70
-2.64
4.00
9.12
12.25
13.74
14.47
15.33
17.28
20.73
25.64
31.83
39.18
47.62
56.92
66.46
75.39
84.83
96.82
113.57
136.14
162.96
189.77
210.73
220.32
215.19
198.49
175.80
152.24
130.14
109.09
88.32
69.38
56.86
56.29
77.01
123.48
192.56
273.61
352.06
415.23
456.80
477.70
482.91
485.48
495.61
517.92
551.24
591.49
635.35
681.95
731.19
745.65
697.80
574.97
389.87
176.43
-27.84
-197.77
-325.60
-409.79
-468.15
-508.17
-530.88
-534.24
-517.80
-485.35
-444.24
-402.02
-366.25
-344.53
-336.05
-337.25
-342.98
-348.03
-348.46
-341.98
-328.39
-310.04
-292.10
-275.86
-261.48
-247.87
-233.60
-217.94
-201.38
-185.27
-171.46
-162.11
-156.24
-152.16
-148.51
-145.05
-142.90
-143.63
-148.28
-157.16
-169.91
-184.80
-200.50
-216.75
-234.46
-254.80
-277.58
-299.93
-316.13
-319.17
-303.16
-266.15
-211.49
-146.96
-82.28
-26.02
16.46
43.47
56.02
56.42
47.36
31.59
12.16
-7.55
-24.15
-34.86
-37.93
-32.69
-19.54
0.07
23.68
48.12
69.68
85.13
92.24
90.14
79.36
61.51
38.76
13.37
-12.58
-37.31
-59.01
-75.64
-85.38
-87.40
-82.67
-74.28
-66.43
-62.80
-64.84
-71.07
-77.86
-81.61
-81.20
-79.31
-81.67
-94.29
-119.95
-155.87
-193.43
-220.31
-224.40
-197.70
-139.78
-58.50
32.42
117.65
184.94
228.49
249.54
254.45
251.17
245.54
239.29
231.64
221.39
208.95
196.52
187.14
183.77
187.87
197.18
206.22
210.57
209.27
204.99
201.94
202.39
206.59
212.48
215.99
212.21
198.51
174.96
143.81
108.41
71.05
33.13
-4.66
-34.10
-50.90
-55.15
-51.46
-45.68
-40.60
-35.56
-35.15
-34.46
-30.74
-25.98
-24.11
-28.91
-43.03
-59.66
-75.57
-88.92
-97.97
-103.27
-107.23
-112.26
-119.87
-130.77
-144.90
-162.85
-184.03
-205.33
-223.07
-233.78
-234.58
-224.41
-204.39
-177.63
-149.19
-123.52
-102.84
-87.88
-77.99
-71.25
-65.34
-58.31
-49.35
-39.71
-31.38
-26.04
-24.55
-26.28
-29.38
-31.76
-32.17
-30.73
-28.96
-28.20
-28.73
-29.73
-29.84
-28.01
-24.12
-18.99
-13.76
-9.39
-6.07
-3.49
-1.13
1.42
4.28
7.42
10.74
14.09
17.32
20.35
23.25
26.47
30.65
36.09
42.51
48.86
53.79
56.56
57.63
58.39
60.39
64.40
69.84
75.12
78.44
78.90
77.02
74.43
72.74
72.70
73.86
74.83
74.18
71.11
65.85
59.54
53.70
49.68
48.33
50.00
54.38
60.48
66.35
69.86
69.45
65.33
60.14
58.89
67.25
88.76
122.43
160.95
193.72
211.07
208.22
186.65
152.87
115.04
79.72
49.89
23.78
-1.13
-25.40
-47.07
-63.62
-74.01
-79.63
-83.44
-88.53
-99.31
-117.27
-140.11
-163.13
-182.28
-195.85
-204.47
-209.80
-213.13
-218.60
-228.11
-239.98
-250.18
-255.62
-255.47
-250.65
-242.51
-210.83
-146.18
-53.39
50.46
147.42
226.74
285.31
322.59
344.01
356.14
359.29
353.99
342.76
327.83
309.30
285.20
252.98
209.82
157.73
95.83
25.21
-50.40
-114.24
-151.59
-157.02
-136.55
-124.40
-127.74
-146.74
-178.86
-208.09
-226.93
-234.15
-232.49
-226.05
-222.42
-224.51
-236.01
-257.46
-285.89
-317.58
-348.04
-372.58
-363.62
-309.15
-216.27
-111.17
-18.96
49.46
95.15
124.76
144.71
158.53
163.65
159.65
148.32
134.81
124.97
121.36
123.25
127.90
132.15
131.07
123.17
109.93
95.42
83.92
77.31
75.15
75.56
76.39
74.32
68.01
58.22
47.41
38.19
31.83
28.21
26.37
25.14
22.74
18.26
11.95
4.98
-1.42
-6.60
-10.58
-13.78
-16.71
-20.13
-24.35
-29.32
-34.68
-40.03
-45.15
-50.05
-54.81
-59.52
-64.19
-68.63
-72.62
-75.87
-78.07
-78.85
-77.91
-74.93
-69.76
-62.65
-53.80
-43.26
-31.41
-18.85
-6.21
5.79
16.62
25.73
32.83
37.85
40.86
41.99
41.47
39.63
36.81
33.32
29.52
25.72
22.19
19.21
17.01
15.80
15.64
16.47
18.09
20.14
22.10
23.38
23.33
21.44
17.34
10.88
2.16
-8.46
-20.37
-32.85
-45.15
-56.54
-66.24
-73.70
-78.67
-81.19
-81.57
-80.32
-78.21
-76.02
-74.52
-74.16
-75.24
-77.93
-82.28
-88.23
-95.68
-104.40
-114.15
-124.67
-135.23
-145.17
-153.88
-160.83
-165.60
-167.85
-167.20
-163.12
-157.68
-151.74
-145.69
-139.69
-133.76
-127.93
-122.34
-117.22
-112.84
-109.32
-106.10
-102.41
-97.39
-90.33
-80.89
-69.28
-56.15
-42.38
-28.65
-14.82
-0.24
16.05
34.93
56.82
81.38
107.72
134.71
161.50
188.01
214.74
242.54
272.34
305.02
341.23
381.00
423.20
464.97
501.93
529.01
542.19
