1659459717.00
64.000000
-0.00
-0.00
-0.00
-0.00
-0.00
-0.00
-0.00
-0.00
-0.00
-0.00
0.00
0.01
0.01
-0.00
-0.03
-0.05
-0.05
0.00
0.13
0.36
0.66
1.01
1.37
1.72
2.06
2.40
2.79
3.24
3.80
4.42
5.06
5.66
6.20
6.68
7.15
7.68
8.31
9.14
10.09
11.04
11.88
12.57
13.14
13.76
14.66
15.96
17.91
20.31
22.90
25.39
27.62
29.63
31.72
34.31
37.69
42.25
47.67
53.47
59.08
64.15
68.74
73.28
78.43
84.69
92.60
101.68
111.17
120.22
128.27
135.29
141.84
149.17
155.95
164.44
175.34
188.85
203.86
217.47
225.23
222.31
205.15
172.78
127.64
73.78
15.83
-42.76
-100.39
-157.04
-213.20
-268.99
-323.77
-375.95
-424.20
-467.25
-504.08
-533.72
-555.14
-567.22
-568.85
-559.32
-538.23
-506.17
-464.48
-415.15
-360.62
-303.46
-246.01
-190.28
-138.01
-90.64
-49.43
-14.74
14.40
40.51
66.95
96.67
130.73
167.62
203.75
234.87
257.80
271.40
276.50
274.92
268.45
258.29
245.20
229.96
213.69
197.64
182.86
169.72
157.99
147.02
136.09
124.79
113.06
101.19
89.65
78.96
69.45
61.14
53.74
46.81
39.92
33.05
26.33
20.16
14.95
10.95
8.04
5.86
3.93
1.89
-0.38
-2.75
-4.92
-6.59
-7.61
-8.03
-8.05
-7.92
-7.84
-7.90
-8.09
-8.34
-8.53
-8.59
-8.43
-8.04
-7.48
-6.83
-6.19
-5.66
-5.24
-4.89
-4.51
-4.03
-3.42
-2.74
-2.12
-1.72
-1.64
-1.88
-2.30
-2.74
-3.03
-3.10
-3.03
-2.93
-2.88
-2.89
-2.90
-2.86
-2.78
-2.72
-2.73
-2.80
-2.84
-2.76
-2.49
-2.08
-1.63
-1.26
-1.08
-1.11
-1.27
-1.46
-1.57
-1.54
-1.36
-1.07
-0.75
-0.43
-0.11
0.24
0.66
1.12
1.55
1.86
2.05
2.21
2.51
3.03
3.74
4.48
5.04
5.31
5.34
5.30
5.37
5.59
5.86
5.93
5.58
4.72
3.48
2.01
0.49
-0.96
-2.32
-3.64
-4.94
-6.17
-7.25
-8.06
-8.53
-8.67
-8.56
-8.32
-8.06
-7.82
-7.59
-7.33
-6.97
-6.51
-5.91
-5.19
-4.34
-3.36
-2.30
-1.24
-0.26
0.53
1.10
1.49
1.75
1.90
1.93
1.76
1.36
0.74
0.04
-0.57
-0.96
-1.10
-1.06
-0.97
-0.95
-1.00
-1.09
-1.13
-1.09
-0.98
-0.90
-0.92
-1.08
-1.36
-1.67
-1.91
-2.01
-1.97
-1.84
-1.69
-1.56
-1.47
-1.39
-1.30
-1.22
-1.24
-1.43
-1.83
-2.37
-2.91
-3.24
-3.25
-2.94
-2.42
-1.83
-1.26
-0.69
-0.07
0.64
1.35
1.90
2.10
1.88
1.35
0.69
0.17
-0.07
0.01
0.33
0.74
1.07
1.21
1.13
0.84
0.44
0.01
-0.42
-0.82
-1.21
-1.58
-1.85
-1.92
-1.72
-1.27
-0.70
-0.18
0.14
0.17
-0.05
-0.38
-0.66
-0.78
-0.66
-0.35
0.09
0.57
1.01
1.38
1.64
1.75
1.67
1.40
0.98
0.59
0.42
0.58
1.03
1.56
1.90
1.83
1.33
0.53
-0.32
-1.00
-1.41
-1.55
-1.50
-1.38
-1.27
-1.23
-1.25
-1.31
-1.33
-1.27
-1.14
-1.00
-0.91
-0.90
-0.91
-0.88
-0.72
-0.46
-0.18
-0.01
-0.02
-0.20
-0.42
-0.54
-0.46
-0.16
0.31
0.84
1.36
1.83
2.25
2.62
2.91
3.05
3.01
2.80
2.48
2.15
1.93
1.85
1.88
1.96
2.03
2.04
2.01
1.94
1.85
1.70
1.45
1.10
0.69
0.30
-0.02
-0.21
-0.29
-0.29
-0.27
-0.24
-0.19
-0.11
0.03
0.22
0.40
0.52
0.49
0.25
-0.22
-0.89
-1.62
-2.22
-2.51
-2.39
-1.83
-0.93
0.14
1.22
2.14
2.82
3.22
3.33
3.15
2.74
2.13
1.42
0.75
0.23
-0.07
-0.16
-0.12
-0.09
-0.19
-0.44
-0.79
-1.09
-1.26
-1.25
-1.13
-0.98
-0.90
-0.94
-1.08
-1.26
-1.35
-1.31
-1.11
-0.84
-0.64
-0.61
-0.76
-1.01
-1.17
-1.12
-0.84
-0.41
0.03
0.40
0.71
1.05
1.49
2.00
2.45
2.68
2.55
2.07
1.32
0.49
-0.27
-0.83
-1.18
-1.34
-1.38
-1.35
-1.26
-1.09
-0.79
-0.36
0.14
0.62
0.96
1.12
1.12
1.03
0.94
0.88
0.81
0.70
0.49
0.22
-0.05
-0.27
-0.43
-0.61
-0.93
-1.52
-2.40
-3.44
-4.42
-5.10
-5.32
-5.07
-4.46
-3.66
-2.84
-2.06
-1.32
-0.62
0.02
0.55
0.90
1.08
1.16
1.26
1.49
1.91
2.49
3.12
3.66
4.01
4.12
3.98
3.65
3.23
2.79
2.39
2.06
1.79
1.53
1.24
0.92
0.61
0.41
0.41
0.63
1.00
1.34
1.46
1.27
0.77
0.09
-0.64
-1.34
-1.98
-2.57
-3.10
-3.54
-3.84
-3.97
-3.96
-3.89
-3.82
-3.77
-3.72
-3.61
-3.43
-3.20
-2.99
-2.88
-2.90
-3.06
-3.30
-3.54
-3.71
-3.74
-3.61
-3.31
-2.90
-2.46
-2.10
-1.91
-1.93
-2.15
-2.54
-3.10
-3.84
-4.85
-6.15
-7.72
-9.42
-11.00
-12.24
-12.95
-13.12
-12.87
-12.37
-11.79
-11.22
-10.58
-9.73
-8.51
-6.81
-4.64
-2.12
0.61
3.44
6.32
9.21
12.03
14.64
16.82
18.40
19.29
19.56
19.39
18.99
18.48
17.86
17.08
16.14
15.07
14.00
13.03
12.25
11.63
11.11
10.65
10.23
9.89
9.63
9.41
9.08
8.47
7.50
6.21
4.75
3.33
2.06
0.91
-0.23
-1.52
-3.02
-4.65
-6.22
-7.53
-8.41
-8.79
-8.70
-8.25
-7.56
-6.78
-6.01
-5.29
-4.61
-3.91
-3.15
-2.34
-1.57
-0.96
-0.61
-0.55
-0.69
-0.95
-1.26
-1.65
-2.19
-2.95
-3.91
-4.89
-5.63
-5.93
-5.72
-5.14
-4.50
-4.06
-3.92
-3.99
-4.05
-3.90
-3.49
-2.95
-2.46
-2.13
-1.98
-1.88
-1.71
-1.41
-1.04
-0.68
-0.37
-0.11
0.18
0.55
1.01
1.46
1.82
2.02
2.05
1.96
1.84
1.76
1.72
1.68
1.59
1.40
1.13
0.85
0.62
0.48
0.46
0.53
0.67
0.85
1.07
1.34
1.67
2.05
2.46
2.82
2.99
2.83
2.30
1.50
0.72
0.28
0.39
1.01
1.83
2.43
2.49
1.97
1.07
0.14
-0.50
-0.76
-0.71
-0.52
-0.32
-0.17
-0.06
0.05
0.10
0.05
-0.14
-0.42
-0.66
-0.75
-0.64
-0.40
-0.17
-0.10
-0.24
-0.48
-0.57
-0.24
0.67
2.07
3.63
4.89
5.44
5.13
4.18
3.12
2.56
2.91
4.14
5.80
7.13
7.49
6.63
4.83
2.79
1.42
1.44
3.16
6.43
10.59
14.55
16.89
16.37
12.57
6.47
0.41
-2.53
0.31
10.23
26.64
47.43
69.77
91.02
109.38
124.10
135.44
144.32
151.81
158.62
164.65
168.88
169.63
165.31
155.15
139.58
120.05
98.31
75.99
54.27
34.08
16.31
1.81
-8.78
-15.36
-18.58
-19.76
-20.46
-22.07
-25.33
-30.18
-35.76
-40.79
-43.97
-44.45
-42.09
-37.34
-31.09
-24.22
-17.42
-11.18
-5.88
-1.89
0.49
1.22
0.72
-0.21
-0.69
-0.15
1.38
3.33
4.95
5.86
6.29
7.05
9.21
13.54
20.25
28.87
38.52
48.21
57.09
64.45
69.73
72.38
72.04
68.59
62.33
53.94
44.29
34.29
24.63
15.90
8.52
2.88
-0.82
-2.65
-3.11
-2.93
-2.93
-3.65
-5.28
-7.72
-10.76
-14.28
-18.27
-22.79
-27.86
-33.40
-39.19
-44.95
-50.36
-55.08
-58.80
-61.26
-62.38
-62.25
-61.14
-59.42
-57.46
-55.54
-53.82
-52.40
-51.81
-52.45
-54.38
-57.33
-61.00
-65.07
-69.18
-72.94
-76.07
-78.91
-81.75
-84.57
-86.99
-88.59
-89.03
-88.11
-85.77
-82.03
-77.94
-73.99
-69.71
-64.22
-57.17
-49.08
-40.99
-33.75
-27.82
-26.02
-29.44
-36.66
-44.93
-52.49
-59.30
-66.16
-73.55
-81.52
-95.44
-117.40
-144.23
-169.67
-189.18
-201.87
-209.43
-214.09
-218.52
-234.09
-266.52
-312.02
-360.45
-403.44
-438.17
-466.72
-493.16
-522.90
-571.84
-646.68
-739.36
-831.47
-905.69
-952.00
-968.03
-956.11
-843.30
-609.28
-298.61
9.28
258.10
433.32
546.03
610.59
649.66
675.82
683.81
671.61
646.60
622.38
604.94
594.15
585.78
576.38
563.49
538.09
497.48
447.48
398.53
357.96
327.72
305.89
290.06
277.35
260.20
234.88
203.48
171.78
144.48
123.53
108.51
98.41
91.48
83.59
72.39
58.44
44.25
31.94
22.49
15.70
11.04
7.54
3.39
-2.41
-9.61
-17.02
-23.45
-28.10
-30.72
-31.46
-30.84
-29.47
-27.88
-26.44
-25.39
-24.78
-24.57
-24.66
-24.97
-25.36
-25.71
-25.84
-25.62
-24.96
-23.92
-22.67
-21.42
-20.34
-19.46
-18.64
-17.61
-16.16
-14.20
-11.82
-9.25
-6.70
-4.33
-2.17
-0.23
1.56
3.18
4.63
5.89
6.87
7.49
7.65
7.27
6.34
4.98
3.33
1.59
-0.07
-1.47
-2.46
-2.88
-2.70
-1.94
-0.76
0.63
2.07
3.49
4.89
6.28
7.61
8.64
8.96
8.13
5.82
2.02
-2.76
-7.60
-11.37
-13.19
-12.75
-10.52
-7.52
-4.96
-3.77
-4.29
-6.29
-9.18
-12.33
-15.31
-17.84
-19.78
-20.90
-20.94
-19.71
-17.23
-13.85
-10.17
-6.84
-4.37
-2.96
-2.47
-2.43
-2.23
-1.24
1.00
4.70
9.73
15.61
21.60
26.89
30.77
32.80
32.89
31.25
28.28
24.53
20.55
16.90
14.09
12.55
12.55
14.18
17.22
21.12
25.03
27.94
28.97
27.64
24.05
18.79
12.72
6.70
1.30
-3.20
-6.81
-9.61
-11.72
-13.24
-14.38
-15.40
-16.66
-18.35
-20.46
-22.66
-24.47
-25.40
-25.17
-23.75
-21.42
-18.74
-16.47
-15.42
-16.18
-18.79
-22.47
-25.71
-26.78
-24.55
-19.06
-11.70
-4.69
-0.06
1.19
-0.56
-3.93
-7.28
-9.41
-9.88
-8.83
-6.69
-3.84
-0.52
2.99
6.36
9.20
11.23
12.45
13.10
13.65
14.50
15.97
18.13
20.91
24.09
27.28
30.01
31.82
32.41
31.77
30.15
27.98
25.64
23.46
21.67
20.56
20.51
21.85
24.64
28.44
32.25
34.82
35.14
32.86
28.43
22.87
17.28
12.34
8.22
4.74
1.66
-1.03
-3.15
-4.66
-5.82
-7.30
-9.79
-13.62
-18.39
-23.14
-26.75
-28.49
-28.24
-26.43
-23.81
-21.13
-19.11
-18.55
-20.29
-24.93
-32.37
-41.29
-49.22
-53.25
-51.22
-42.78
-29.75
-15.38
-3.02
5.17
8.90
9.47
8.76
8.39
9.09
10.84
13.30
16.14
19.17
22.17
24.74
26.39
26.78
25.90
24.24
22.59
21.75
22.27
24.28
27.47
31.13
34.36
36.24
36.18
34.06
30.31
25.81
21.64
18.72
17.54
17.99
19.43
20.96
21.83
21.67
20.66
19.31
18.22
17.71
17.68
17.59
16.74
14.65
11.30
7.17
3.02
-0.53
-3.36
-5.83
-8.62
-12.24
-16.63
-21.11
-24.61
-26.23
-25.66
-23.36
-20.33
-17.64
-16.19
-16.68
-19.62
-25.29
-33.38
-42.54
-50.43
-54.29
-52.19
-44.01
-31.81
-19.04
-8.99
-3.41
-1.98
-2.86
-3.93
-3.85
-2.46
-0.32
2.01
4.41
7.16
10.48
14.18
17.65
20.20
21.52
21.87
22.01
22.76
24.66
27.65
31.15
34.26
36.15
36.29
34.61
31.46
27.48
23.47
20.19
18.30
18.17
19.80
22.73
26.15
29.08
30.65
30.43
28.46
25.17
21.14
16.81
12.35
7.73
2.94
-1.90
-6.46
-10.44
-13.67
-16.33
-18.88
-21.84
-25.54
-29.92
-34.56
-38.83
-42.13
-44.04
-44.33
-42.92
-39.94
-35.81
-31.33
-27.66
-26.03
-27.20
-30.98
-35.97
-39.97
-40.74
-37.05
-29.19
-18.86
-8.38
0.42
6.86
11.40
15.01
18.31
21.16
22.89
22.94
21.49
19.48
18.22
18.57
20.54
23.37
26.04
27.90
28.92
29.59
30.45
31.78
33.40
34.87
35.70
35.59
34.47
32.42
29.61
26.34
23.04
20.25
18.48
17.97
18.59
19.85
21.12
21.88
21.79
20.72
18.67
15.69
11.89
7.47
2.73
-1.99
-6.39
-10.22
-13.23
-15.24
-16.24
-16.62
-17.23
-19.17
-23.24
-29.34
-36.34
-42.48
-46.09
-46.43
-43.91
-39.89
-36.01
-33.64
-33.70
-36.59
-42.10
-49.27
-56.23
-60.43
-59.49
-52.35
-39.98
-25.23
-11.69
-2.08
2.83
4.31
4.71
6.09
9.25
13.68
18.21
21.87
24.38
26.11
27.58
29.03
30.26
30.85
30.58
29.64
28.62
28.22
28.87
30.44
32.27
33.41
33.01
30.62
26.41
21.02
15.40
10.54
7.30
6.21
7.35
10.30
14.19
17.91
20.42
21.11
19.93
17.41
14.34
11.44
9.04
7.09
5.21
3.06
0.48
-2.39
-5.23
-7.75
-9.85
-11.68
-13.59
-15.90
-18.79
-22.11
-25.48
-28.38
-30.37
-31.21
-30.88
-29.58
-27.73
-26.01
-25.39
-26.92
-31.31
-38.38
-46.73
-54.02
-57.63
-55.84
-48.58
-37.58
-25.60
-15.33
-8.32
-4.55
-2.75
-1.10
2.03
7.54
15.48
25.13
35.36
44.95
52.89
58.65
62.12
63.49
63.02
61.02
57.82
53.86
49.59
45.25
40.61
34.87
27.06
16.62
3.87
-9.78
-22.33
-31.91
-37.44
-38.97
-37.47
-34.37
-31.01
-28.37
-26.98
-27.09
-28.73
-31.76
-35.82
-40.34
-44.54
-47.61
-48.88
-48.00
-44.97
-40.14
-34.16
-27.83
-21.95
-17.09
-13.47
-10.96
-9.18
-7.81
-6.66
-5.71
-4.93
-4.09
-2.71
-0.24
3.59
8.54
13.87
18.62
22.12
24.30
25.74
27.37
30.05
34.18
39.65
45.88
52.09
57.56
61.91
65.19
67.94
70.84
74.38
78.52
82.57
85.51
86.61
85.90
84.30
83.14
83.43
85.23
87.66
89.47
89.78
88.21
84.53
77.89
66.66
49.06
24.39
-5.99
-38.64
-69.28
-94.47
-112.86
-125.09
-132.55
-135.93
-134.47
-126.62
-111.47
-90.03
-65.45
-41.98
-23.31
-11.15
-4.92
-2.41
-0.97
1.25
4.74
8.92
12.74
15.37
16.80
17.81
19.61
23.11
28.16
33.46
36.87
36.35
30.92
21.03
8.30
-5.35
-18.52
-30.61
-41.41
-50.52
-56.88
-59.06
-56.07
-48.12
-36.97
-25.35
-15.97
-10.40
-8.69
-9.63
-11.47
-12.83
-13.19
-12.77
-12.16
-11.88
-12.19
-13.10
-14.56
-16.56
-19.13
-22.18
-25.47
-28.63
-31.26
-33.07
-33.83
-33.40
-31.72
-28.92
-25.40
-21.80
-18.72
-16.43
-14.65
-12.70
-9.89
-5.97
-1.35
3.04
6.16
7.43
6.95
5.42
3.81
2.84
2.70
3.05
3.31
3.04
2.23
1.30
0.86
1.34
2.75
4.63
6.27
7.11
6.91
5.85
4.32
2.78
1.53
0.75
0.41
0.40
0.53
0.61
0.53
0.28
-0.00
-0.18
-0.18
-0.02
0.21
0.48
0.83
1.31
1.84
2.18
1.95
0.86
-1.08
-3.49
-5.79
-7.46
-8.28
-8.34
-7.98
-7.48
-6.96
-6.30
-5.38
-4.16
-2.85
-1.81
-1.42
-1.86
-3.04
-4.61
-6.08
-7.06
-7.33
-6.86
-5.79
-4.30
-2.56
-0.69
1.17
2.84
4.07
4.68
4.57
3.86
2.90
2.07
1.72
1.91
2.45
3.00
3.18
2.82
1.98
0.92
-0.07
-0.80
-1.21
-1.35
-1.26
-0.99
-0.54
0.03
0.62
1.07
1.26
1.14
0.77
0.28
-0.19
-0.51
-0.57
-0.30
0.31
1.18
2.06
2.67
2.76
2.33
1.62
1.03
0.91
1.42
2.41
3.57
4.58
5.26
5.58
5.60
5.40
4.99
4.37
3.60
2.81
2.17
1.84
1.88
2.21
2.65
2.98
3.03
2.73
2.12
1.35
0.65
0.19
0.09
0.34
0.79
1.24
1.53
1.57
1.38
1.04
0.65
0.23
-0.30
-1.01
-1.90
-2.82
-3.57
-3.96
-3.94
-3.64
-3.20
-2.69
-2.04
-1.09
0.25
1.88
3.50
4.74
5.36
5.36
5.00
4.65
4.57
4.78
5.08
5.17
4.85
4.09
3.12
2.29
1.86
1.92
2.30
2.68
2.79
2.54
2.05
1.56
1.33
1.46
1.90
2.52
3.15
3.72
4.15
4.42
4.48
4.28
3.81
3.13
2.34
1.55
0.83
0.15
-0.56
-1.37
-2.27
-3.17
-3.93
-4.40
-4.48
-4.20
-3.65
-2.99
-2.35
-1.82
-1.45
-1.21
-1.06
-0.93
-0.80
-0.67
-0.64
-0.79
-1.17
-1.74
-2.35
-2.86
-3.16
-3.31
-3.43
-3.68
-4.12
-4.67
-5.15
-5.41
-5.37
-5.08
-4.68
-4.27
-3.95
-3.75
-3.66
-3.62
-3.54
-3.33
-2.94
-2.41
-1.86
-1.49
-1.47
-1.79
-2.32
-2.76
-2.80
-2.24
-1.10
0.42
1.99
3.28
4.06
4.29
4.08
3.65
3.26
3.07
3.10
3.20
3.17
2.84
2.20
1.40
0.71
0.35
0.45
0.92
1.54
2.06
2.35
2.43
2.43
2.50
2.71
2.99
3.18
3.11
2.75
2.17
1.56
1.08
0.79
0.59
0.33
-0.11
-0.70
-1.27
-1.65
-1.76
-1.67
-1.52
-1.42
-1.38
-1.28
-1.02
-0.58
-0.07
0.41
0.80
1.13
1.53
2.05
2.67
3.25
3.62
3.67
3.39
2.89
2.29
1.75
1.40
1.29
1.40
1.57
1.62
1.36
0.75
-0.10
-0.92
-1.45
-1.58
-1.40
-1.15
-1.09
-1.35
-1.88
-2.49
-2.95
-3.10
-2.92
-2.53
-2.08
-1.71
-1.52
-1.47
-1.50
-1.48
-1.33
-1.02
-0.60
-0.20
0.05
0.08
-0.06
-0.22
-0.21
0.13
0.86
1.88
3.01
3.97
4.52
4.52
3.96
3.02
1.95
1.05
0.49
0.29
0.30
0.34
0.25
0.04
-0.20
-0.35
-0.35
-0.25
-0.16
-0.17
-0.30
-0.52
-0.73
-0.91
-1.07
-1.22
-1.39
-1.51
-1.52
-1.36
-1.01
-0.48
0.14
0.78
1.31
1.60
1.55
1.14
0.47
-0.26
-0.82
-1.05
-0.92
-0.50
0.08
0.73
1.36
1.93
2.37
2.59
2.58
2.36
2.03
1.67
1.31
0.92
0.39
-0.32
-1.13
-1.90
-2.41
-2.50
-2.16
-1.49
-0.71
-0.09
0.19
0.09
-0.33
-0.91
-1.48
-1.94
-2.22
-2.33
-2.32
-2.20
-2.03
-1.89
-1.88
-2.10
-2.51
-2.99
-3.35
-3.43
-3.24
-2.90
-2.60
-2.44
-2.37
-2.22
-1.83
-1.17
-0.38
0.30
0.66
0.67
0.47
0.26
0.20
0.28
0.39
0.38
0.16
-0.27
-0.84
-1.43
-1.96
-2.38
-2.66
-2.82
-2.85
-2.79
-2.68
-2.56
-2.45
-2.34
-2.18
-1.92
-1.50
-0.89
-0.10
0.83
1.82
2.75
3.51
4.07
4.41
4.58
4.66
4.65
4.59
4.46
4.31
4.21
4.23
4.42
4.76
5.14
5.39
5.37
5.02
4.38
3.59
2.80
2.10
1.49
0.90
0.18
-0.80
-2.07
-3.52
-4.87
-5.84
-6.18
-5.82
-4.94
-3.87
-2.98
-2.55
-2.63
-3.08
-3.59
-3.88
-3.76
-3.20
-2.27
-1.09
0.18
1.39
2.37
2.96
3.11
2.86
2.38
1.89
1.51
1.25
1.01
0.69
0.29
-0.09
-0.29
-0.13
0.48
1.47
2.68
3.93
5.05
5.93
6.53
6.85
6.92
6.74
6.28
5.51
4.43
3.09
1.63
0.22
-0.89
-1.53
-1.58
-1.10
-0.26
0.67
1.44
1.89
2.03
1.95
1.73
1.43
1.01
0.43
-0.25
-0.91
-1.37
-1.50
-1.30
-0.88
-0.45
-0.13
0.02
0.07
0.12
0.23
0.34
0.33
0.07
-0.47
-1.18
-1.82
-2.18
-2.13
-1.70
-1.07
-0.43
0.09
0.51
0.90
1.35
1.87
2.40
2.81
2.94
2.67
1.97
0.95
-0.17
-1.13
-1.73
-1.93
-1.88
-1.84
-1.98
-2.35
-2.81
-3.17
-3.30
-3.22
-3.04
-2.93
-2.98
-3.18
-3.41
-3.53
-3.43
-3.12
-2.71
-2.33
-2.14
-2.20
-2.47
-2.85
-3.21
-3.42
-3.42
-3.22
-2.86
-2.41
-1.94
-1.51
-1.18
-0.97
-0.82
-0.70
-0.54
-0.33
-0.09
0.15
0.39
0.60
0.75
0.79
0.65
0.34
-0.05
-0.38
-0.53
-0.50
-0.41
-0.46
-0.79
-1.38
-2.02
-2.41
-2.29
-1.57
-0.41
0.88
1.93
2.51
2.52
2.05
1.30
0.49
-0.21
-0.70
-0.90
-0.81
-0.43
0.20
0.97
1.71
2.24
2.45
2.34
2.09
1.92
2.05
2.51
3.19
3.80
4.08
3.91
3.33
2.53
1.74
1.10
0.63
0.29
0.04
-0.11
-0.11
0.07
0.39
0.74
0.91
0.75
0.21
-0.64
-1.59
-2.41
-2.92
-3.04
-2.84
-2.49
-2.19
-2.06
-2.08
-2.11
-1.94
-1.42
-0.57
0.39
1.12
1.32
0.83
-0.22
-1.47
-2.51
-3.03
-2.94
-2.41
-1.77
-1.31
-1.19
-1.39
-1.73
-2.01
-2.09
-1.89
-1.45
-0.89
-0.36
-0.01
0.06
-0.17
-0.63
-1.23
-1.87
-2.48
-2.95
-3.16
-2.93
-2.10
-0.63
1.27
3.20
4.69
5.42
5.32
4.60
3.66
2.80
2.21
1.87
1.70
1.59
1.47
1.35
1.27
1.32
1.60
2.23
3.31
4.85
6.77
8.84
10.81
12.41
13.44
13.84
13.64
13.00
12.13
11.26
10.57
10.05
9.52
8.63
7.11
4.87
2.16
-0.52
-2.63
-3.85
-4.21
-4.02
-3.68
-3.49
-3.49
-3.57
-3.58
-3.47
-3.36
-3.34
-3.46
-3.63
-3.68
-3.52
-3.15
-2.72
-2.42
-2.37
-2.57
-2.88
-3.17
-3.33
-3.44
-3.65
-4.10
-4.79
-5.49
-5.83
-5.50
-4.44
-2.98
-1.66
-1.01
-1.13
-1.66
-1.94
-1.41
-0.02
1.79
3.26
3.78
3.18
1.82
0.29
-0.90
-1.61
-2.01
-2.45
-3.12
-3.95
-4.63
-4.83
-4.41
-3.49
-2.45
-1.71
-1.55
-1.95
-2.65
-3.25
-3.53
-3.46
-3.26
-3.19
-3.42
-3.88
-4.37
-4.64
-4.54
-4.09
-3.43
-2.74
-2.15
-1.70
-1.29
-0.82
-0.20
0.56
1.35
2.07
2.62
2.96
3.12
3.19
3.26
3.39
3.61
3.92
4.24
4.43
4.36
3.90
3.06
1.96
0.86
0.00
-0.46
-0.53
-0.34
-0.06
0.17
0.34
0.49
0.70
0.95
1.17
1.22
0.99
0.49
-0.19
-0.87
-1.40
-1.68
-1.71
-1.51
-1.17
-0.74
-0.34
-0.09
-0.11
-0.46
-1.06
-1.70
-2.03
-1.79
-0.91
0.44
1.86
2.91
3.29
2.95
2.12
1.13
0.33
-0.07
-0.05
0.27
0.68
0.99
1.11
1.07
0.97
0.92
0.94
0.99
0.94
0.70
0.28
-0.26
-0.77
-1.17
-1.45
-1.62
-1.71
-1.67
-1.41
-0.88
-0.12
0.69
1.25
1.36
0.93
0.15
-0.65
-1.13
-1.11
-0.64
0.01
0.54
0.78
0.73
0.56
0.42
0.40
0.44
0.46
0.42
0.42
0.58
0.98
1.54
2.03
2.21
1.89
1.08
-0.02
-1.10
-1.83
-2.02
-1.64
-0.87
-0.01
0.62
0.86
0.71
0.39
0.18
0.25
0.64
1.17
1.63
1.84
1.76
1.48
1.10
0.69
0.26
-0.18
-0.58
-0.83
-0.83
-0.55
-0.09
0.34
0.56
0.40
-0.11
-0.87
-1.65
-2.21
-2.32
-1.90
-1.04
0.01
0.89
1.33
1.22
0.74
0.20
-0.05
0.14
0.68
1.29
1.71
1.80
1.64
1.40
1.19
1.02
0.81
0.48
0.06
-0.33
-0.56
-0.56
-0.37
-0.11
0.13
0.31
0.45
0.59
0.69
0.71
0.57
0.24
-0.23
-0.78
-1.34
-1.83
-2.20
-2.38
-2.38
-2.27
-2.17
-2.24
-2.55
-3.06
-3.60
-3.95
-3.94
-3.58
-3.00
-2.41
-2.00
-1.84
-1.84
-1.86
-1.76
-1.49
-1.10
-0.74
-0.53
-0.56
-0.79
-1.15
-1.50
-1.74
-1.77
-1.55
-1.07
-0.40
0.37
1.10
1.67
2.01
2.14
2.11
1.94
1.66
1.29
0.86
0.48
0.26
0.25
0.40
0.58
0.63
0.52
0.34
0.25
0.36
0.64
0.94
1.02
0.77
0.23
-0.37
-0.74
-0.68
-0.13
0.73
1.63
2.29
2.55
2.44
2.11
1.77
1.54
1.43
1.40
1.34
1.22
1.07
0.92
0.82
0.75
0.71
0.68
0.68
0.70
0.73
0.77
0.78
0.74
0.66
0.51
0.30
0.02
-0.24
-0.39
-0.25
0.25
1.03
1.83
2.32
2.24
1.54
0.46
-0.64
-1.44
-1.79
-1.75
-1.54
-1.36
-1.30
-1.31
-1.27
-1.06
-0.71
-0.33
-0.08
-0.06
-0.26
-0.55
-0.76
-0.80
-0.64
-0.39
-0.22
-0.23
-0.45
-0.81
-1.18
-1.45
-1.62
-1.76
-1.96
-2.21
-2.45
-2.53
-2.34
-1.88
-1.23
-0.51
0.18
0.78
1.26
1.59
1.71
1.57
1.19
0.68
0.22
-0.00
0.11
0.52
1.04
1.45
1.59
1.43
1.12
0.88
0.93
1.36
2.05
2.72
3.10
3.03
2.55
1.83
1.09
0.47
0.01
-0.34
-0.57
-0.65
-0.54
-0.25
0.17
0.58
0.85
0.89
0.66
0.22
-0.38
-1.02
-1.57
-1.88
-1.82
-1.36
-0.62
0.15
0.69
0.83
0.56
0.07
-0.41
-0.68
-0.68
-0.49
-0.27
-0.17
-0.24
-0.47
-0.76
-1.03
-1.26
-1.45
-1.64
-1.83
-1.97
-2.04
-1.99
-1.83
-1.58
-1.24
-0.79
-0.18
0.63
1.60
2.63
3.53
4.13
4.33
4.13
3.67
3.11
2.55
2.09
1.71
1.42
1.17
0.93
0.64
0.25
-0.25
-0.79
-1.23
-1.40
-1.27
-0.93
-0.61
-0.53
-0.80
-1.32
-1.87
-2.23
-2.30
-2.13
-1.84
-1.56
-1.35
-1.24
-1.29
-1.56
-2.12
-2.94
-3.84
-4.56
-4.88
-4.74
-4.26
-3.68
-3.19
-2.86
-2.58
-2.20
-1.60
-0.82
0.04
0.86
1.60
2.28
2.96
3.62
4.14
4.39
4.29
3.90
3.39
2.97
2.79
2.86
3.09
3.32
3.43
3.39
3.22
3.00
2.79
2.63
2.52
2.43
2.30
2.05
1.61
0.93
0.06
-0.90
-1.83
-2.57
-3.05
-3.27
-3.32
-3.33
-3.41
-3.63
-3.96
-4.33
-4.66
-4.83
-4.73
-4.27
-3.40
-2.18
-0.75
0.59
1.55
1.94
1.79
1.33
0.87
0.62
0.60
0.67
0.62
0.37
0.01
-0.24
-0.21
0.11
0.54
0.82
0.74
0.31
-0.30
-0.78
-0.95
-0.74
-0.32
0.03
0.08
-0.27
-0.89
-1.50
-1.75
-1.45
-0.61
0.52
1.54
2.08
1.99
1.38
0.57
-0.05
-0.20
0.15
0.83
1.54
2.04
2.18
1.97
1.54
1.02
0.55
0.24
0.14
0.24
0.52
0.87
1.19
1.40
1.43
1.31
1.05
0.72
0.37
0.03
-0.28
-0.55
-0.77
-0.95
-1.10
-1.22
-1.26
-1.12
-0.70
0.02
0.93
1.79
2.31
2.28
1.68
0.69
-0.42
-1.35
-1.94
-2.14
-2.03
-1.71
-1.28
-0.87
-0.62
-0.63
-0.90
-1.31
-1.64
-1.66
-1.26
-0.45
0.65
1.88
3.10
4.11
4.68
4.58
3.66
1.96
-0.26
-2.58
-4.58
-6.00
-6.77
-6.95
-6.67
-5.99
-5.00
-3.77
-2.41
-1.09
0.07
0.98
1.60
1.94
2.05
2.01
1.94
1.99
2.20
2.57
2.98
3.28
3.36
3.20
2.86
2.39
1.82
1.14
0.34
-0.53
-1.35
-2.00
-2.36
-2.36
-2.05
-1.56
-1.04
-0.62
-0.38
-0.28
-0.26
-0.24
-0.17
-0.06
0.07
0.24
0.48
0.85
1.38
2.00
2.54
2.81
2.72
2.30
1.78
1.44
1.45
1.79
2.19
2.28
1.79
0.70
-0.76
-2.20
-3.33
-4.02
-4.35
-4.49
-4.59
-4.67
-4.68
-4.57
-4.37
-4.15
-3.94
-3.72
-3.38
-2.83
-2.04
-1.12
-0.26
0.33
0.57
0.44
0.08
-0.38
-0.77
-0.96
-0.90
-0.58
-0.10
0.42
0.84
1.10
1.18
1.15
1.08
1.00
0.92
0.78
0.52
0.15
-0.28
-0.63
-0.78
-0.67
-0.35
0.07
0.42
0.58
0.51
0.24
-0.16
-0.64
-1.17
-1.76
-2.38
-2.92
-3.28
-3.37
-3.18
-2.80
-2.35
-1.93
-1.56
-1.24
-0.99
-0.81
-0.71
-0.61
-0.36
0.19
1.05
2.06
2.91
3.26
2.99
2.22
1.29
0.54
0.12
-0.05
-0.15
-0.32
-0.50
-0.49
-0.13
0.58
1.44
2.13
2.46
2.41
2.18
2.00
1.96
2.00
1.94
1.61
1.01
0.25
-0.47
-1.03
-1.38
-1.53
-1.54
-1.44
-1.25
-1.00
-0.79
-0.72
-0.87
-1.18
-1.50
-1.63
-1.44
-0.92
-0.21
0.46
0.92
1.09
1.04
0.91
0.84
0.90
1.06
1.25
1.36
1.40
1.40
1.44
1.52
1.59
1.53
1.25
0.80
0.35
0.11
0.23
0.68
1.26
1.72
1.88
1.73
1.40
1.03
0.75
0.56
0.45
0.42
0.52
0.81
1.32
1.94
2.48
2.72
2.49
1.80
0.82
-0.21
-1.06
-1.61
-1.86
-1.87
-1.70
-1.35
-0.81
-0.07
0.79
1.59
2.12
2.28
2.10
1.77
1.51
1.43
1.50
1.56
1.45
1.12
0.70
0.38
0.34
0.61
1.02
1.32
1.30
0.91
0.26
-0.38
-0.74
-0.68
-0.23
0.41
0.93
1.09
0.80
0.17
-0.55
-1.13
-1.41
-1.43
-1.32
-1.22
-1.24
-1.38
-1.66
-2.08
-2.65
-3.34
-4.07
-4.71
-5.10
-5.17
-4.89
-4.29
-3.44
-2.41
-1.34
-0.34
0.45
0.98
1.28
1.45
1.56
1.65
1.71
1.72
1.73
1.85
2.16
2.68
3.32
3.87
4.14
3.97
3.35
2.39
1.25
0.19
-0.57
-0.84
-0.51
0.40
1.73
3.16
4.29
4.76
4.34
3.11
1.38
-0.42
-1.90
-2.89
-3.51
-3.98
-4.52
-5.16
-5.75
-6.02
-5.82
-5.16
-4.23
-3.22
-2.26
-1.36
-0.45
0.49
1.37
2.03
2.33
2.27
1.98
1.69
1.56
1.64
1.84
2.06
2.23
2.33
2.39
2.38
2.27
2.02
1.69
1.42
1.36
1.56
1.92
2.20
2.17
1.76
1.08
0.38
-0.13
-0.39
-0.49
-0.67
-1.09
-1.82
-2.76
-3.72
-4.49
-4.93
-4.97
-4.62
-3.94
-3.06
-2.15
-1.39
-0.92
-0.76
-0.80
-0.84
-0.67
-0.18
0.58
1.47
2.26
2.76
2.89
2.64
2.12
1.49
0.92
0.62
0.71
1.22
2.07
3.03
3.85
4.37
4.50
4.28
3.81
3.24
2.77
2.55
2.67
3.14
3.81
4.45
4.83
4.82
4.53
4.25
4.25
4.62
5.36
6.28
7.22
8.10
8.84
9.51
10.19
10.88
11.68
12.94
15.09
18.36
22.30
25.25
24.97
19.06
5.89
-14.57
-39.97
-66.28
-88.90
-103.89
-109.19
-103.98
-88.50
-63.75
-31.70
4.96
42.30
75.77
101.29
116.35
121.87
121.67
120.69
119.58
116.91
108.94
91.88
67.10
35.64
0.61
-34.06
-64.24
-87.10
-101.61
-108.32
-108.19
-101.98
-91.06
-77.14
-62.95
-51.72
-45.97
-45.86
-49.19
-52.44
-52.55
-48.69
-41.73
-33.54
-25.90
-19.94
-15.91
-13.74
-13.46
-15.33
-19.50
-25.04
-29.97
-31.86
-28.80
-20.30
-7.55
7.10
21.12
32.61
40.93
46.34
49.40
50.51
49.83
47.56
44.15
40.36
36.91
34.40
33.04
32.76
33.33
34.42
35.65
36.53
36.58
35.53
33.40
30.58
27.62
24.97
22.83
21.14
19.73
18.51
17.49
16.66
15.87
14.76
12.90
10.04
6.24
1.86
-2.58
-6.63
-10.05
-12.88
-15.26
-17.31
-19.04
-20.33
-21.05
-21.09
-20.48
-19.27
-17.53
-15.31
-12.66
-9.80
-7.03
-4.65
-2.76
-1.16
0.57
2.80
5.65
8.90
12.13
14.95
17.13
18.53
19.09
18.78
17.68
16.10
14.48
13.30
12.79
12.92
13.54
14.51
15.78
17.25
18.54
19.03
18.04
15.37
11.37
6.76
2.17
-2.24
-6.71
-11.48
-16.54
-21.56
-26.12
-30.04
-33.37
-36.19
-38.43
-39.85
-40.33
-40.11
-39.70
-39.46
-39.13
-37.77
-34.26
-28.11
-20.02
-11.58
-4.43
0.61
3.85
6.29
8.82
11.71
14.54
16.74
17.98
18.36
18.15
17.52
16.48
14.99
13.22
11.59
10.67
10.91
12.50
15.23
18.53
21.41
22.70
21.37
17.02
10.19
2.12
-5.80
-12.62
-18.15
-22.65
-26.28
-28.79
-29.76
-29.07
-27.24
-25.24
-23.87
-23.09
-21.88
-18.79
-12.99
-4.96
3.36
9.50
11.60
9.41
4.26
-1.62
-6.42
-9.54
-11.55
-13.33
-15.16
-16.47
-16.36
-14.47
-11.48
-8.84
-7.89
-9.06
-11.84
-15.32
-18.87
-22.35
-25.72
-28.54
-29.86
-28.80
-25.33
-20.60
-16.37
-13.87
-12.96
-12.20
-9.83
-4.93
1.99
9.29
15.16
18.50
19.36
18.55
17.08
15.70
14.81
14.76
16.08
19.23
24.17
30.02
35.22
38.31
38.67
36.87
34.22
31.89
30.33
29.27
28.42
28.13
29.36
32.78
37.79
42.05
42.47
36.82
25.16
9.99
-5.14
-17.37
-25.75
-30.98
-34.29
-36.35
-36.97
-35.70
-32.55
-28.38
-24.37
-21.31
-19.22
-17.51
-15.57
-13.26
-10.86
-8.71
-6.92
-5.33
-3.79
-2.35
-1.18
-0.34
0.33
1.10
2.13
3.22
4.02
4.28
4.04
3.65
3.44
3.40
3.16
2.29
0.67
-1.31
-2.98
-3.80
-3.71
-3.14
-2.65
-2.55
-2.78
-3.03
-3.04
-2.84
-2.66
-2.69
-2.99
-3.42
-3.86
-4.36
-5.02
-5.93
-6.89
-7.53
-7.49
-6.67
-5.31
-3.88
-2.79
-2.20
-2.06
-2.28
-2.78
-3.53
-4.41
-5.12
-5.32
-4.76
-3.47
-1.72
0.16
1.91
3.47
4.90
6.21
7.27
7.82
7.62
6.60
4.93
2.97
1.15
-0.23
-1.04
-1.31
-1.17
-0.79
-0.28
0.28
0.84
1.34
1.74
1.97
2.02
1.88
1.54
1.00
0.26
-0.65
-1.61
-2.48
-3.09
-3.36
-3.32
-3.11
-2.88
-2.72
-2.61
-2.40
-1.88
-0.96
0.27
1.53
2.48
2.89
2.72
2.13
1.33
0.47
-0.39
-1.15
-1.62
-1.57
-0.90
0.15
1.05
1.25
0.59
-0.58
-1.56
-1.71
-0.83
0.74
2.38
3.54
4.04
4.04
3.82
3.53
3.16
2.64
1.99
1.40
1.12
1.26
1.77
2.43
2.95
3.17
3.10
2.88
2.66
2.52
2.44
2.35
2.15
1.84
1.46
1.05
0.66
0.29
0.01
-0.12
-0.02
0.28
0.57
0.58
0.06
-1.03
-2.42
-3.65
-4.29
-4.10
-3.18
-1.83
-0.42
0.73
1.51
1.89
1.97
1.81
1.47
1.02
0.55
0.15
-0.11
-0.20
-0.22
-0.27
-0.46
-0.80
-1.20
-1.50
-1.56
-1.32
-0.82
-0.23
0.28
0.55
0.49
0.12
-0.45
-1.04
-1.49
-1.72
-1.78
-1.79
-1.93
-2.34
-3.06
-4.02
-5.00
-5.71
-5.88
-5.36
-4.15
-2.51
-0.75
0.82
1.99
2.66
2.83
2.55
1.89
1.00
0.13
-0.42
-0.45
0.08
0.95
1.83
2.42
2.58
2.38
1.98
1.58
1.29
1.15
1.18
1.40
1.83
2.44
3.12
3.69
4.02
4.02
3.78
3.45
3.25
3.26
3.46
3.74
3.92
3.94
3.77
3.50
3.21
2.99
2.83
2.66
2.35
1.80
1.03
0.23
-0.28
-0.24
0.41
1.40
2.25
2.50
1.93
0.70
-0.74
-1.92
-2.58
-2.75
-2.66
-2.56
-2.54
-2.54
-2.41
-2.14
-1.83
-1.67
-1.80
-2.22
-2.78
-3.24
-3.45
-3.34
-2.98
-2.51
-2.10
-1.91
-2.02
-2.42
-3.05
-3.82
-4.70
-5.75
-7.01
-8.48
-9.98
-11.16
-11.61
-11.04
-9.39
-6.86
-3.86
-0.83
1.87
4.04
5.63
6.75
7.60
8.40
9.28
10.23
11.11
11.75
12.09
12.17
12.12
12.01
11.82
11.46
10.86
10.07
9.29
8.74
8.49
8.42
8.22
7.62
6.54
5.17
3.89
3.02
2.67
2.72
2.86
2.80
2.42
1.76
0.98
0.18
-0.61
-1.54
-2.69
-4.04
-5.34
-6.25
-6.49
-5.99
-4.90
-3.56
-2.27
-1.18
-0.31
0.42
1.03
1.47
1.62
1.42
0.93
0.32
-0.22
-0.59
-0.80
-0.98
-1.21
-1.51
-1.78
-1.87
-1.67
-1.23
-0.70
-0.33
-0.31
-0.69
-1.35
-2.14
-2.85
-3.35
-3.57
-3.47
-3.03
-2.29
-1.38
-0.51
0.11
0.30
0.01
-0.68
-1.62
-2.58
-3.34
-3.77
-3.79
-3.43
-2.80
-2.03
-1.21
-0.37
0.53
1.48
2.40
3.15
3.54
3.44
2.88
2.02
1.15
0.53
0.29
0.41
0.76
1.13
1.40
1.54
1.63
1.80
2.08
2.41
2.61
2.49
1.97
1.11
0.10
-0.81
-1.42
-1.65
-1.56
-1.27
-0.95
-0.75
-0.75
-0.99
-1.45
-2.05
-2.68
-3.19
-3.42
-3.31
-2.91
-2.34
-1.80
-1.37
-1.03
-0.68
-0.20
0.39
0.91
1.10
0.83
0.14
-0.69
-1.36
-1.66
-1.61
-1.41
-1.31
-1.45
-1.77
-2.08
-2.17
-1.91
-1.32
-0.53
0.26
0.88
1.25
1.37
1.32
1.19
1.08
1.03
1.02
1.00
0.90
0.65
0.23
-0.35
-0.98
-1.47
-1.62
-1.30
-0.52
0.52
1.52
2.19
2.37
2.07
1.44
0.75
0.20
-0.03
0.08
0.47
1.00
1.47
1.80
1.96
2.00
2.01
2.00
1.96
1.85
1.69
1.56
1.55
1.69
1.89
1.97
1.74
1.11
0.21
-0.71
-1.35
-1.51
-1.20
-0.61
-0.04
0.26
0.15
-0.38
-1.21
-2.18
-3.14
-3.97
-4.59
-5.00
-5.22
-5.26
-5.15
-4.81
-4.15
-3.11
-1.74
-0.27
0.97
1.67
1.72
1.26
0.61
0.14
0.07
0.39
0.97
1.61
2.18
2.67
3.14
3.70
4.35
5.00
5.47
5.66
5.65
5.67
6.05
6.98
8.47
10.24
11.93
13.22
13.98
14.30
14.38
14.39
14.39
14.42
14.54
14.99
16.04
17.85
20.22
22.48
23.70
23.04
20.28
15.92
10.97
6.43
2.72
-0.44
-3.72
-7.59
-11.85
-15.69
-18.08
-18.45
-17.02
-14.67
-12.42
-10.90
-10.13
-9.66
-9.02
-8.05
-6.99
-6.23
-6.05
-6.38
-6.88
-7.09
-6.70
-5.72
-4.37
-3.04
-1.99
-1.39
-1.22
-1.32
-1.51
-1.66
-1.71
-1.69
-1.73
-1.98
-2.49
-3.22
-4.01
-4.70
-5.21
-5.55
-5.83
-6.13
-6.42
-6.59
-6.49
-5.99
-5.13
-4.04
-2.94
-2.01
-1.36
-0.94
-0.63
-0.27
0.24
0.85
1.43
1.77
1.77
1.51
1.16
0.93
0.93
1.12
1.35
1.46
1.41
1.23
0.98
0.67
0.28
-0.25
-0.88
-1.49
-1.90
-1.98
-1.74
-1.31
-0.90
-0.65
-0.59
-0.64
-0.71
-0.77
-0.86
-1.06
-1.35
-1.61
-1.69
-1.48
-1.04
-0.54
-0.22
-0.16
-0.29
-0.45
-0.43
-0.14
0.37
0.94
1.45
1.76
1.82
1.58
1.04
0.29
-0.51
-1.11
-1.30
-1.05
-0.56
-0.16
-0.12
-0.53
-1.21
-1.86
-2.26
-2.33
-2.19
-2.06
-2.12
-2.46
-3.02
-3.60
-3.98
-3.91
-3.25
-2.06
-0.60
0.69
1.44
1.46
0.90
0.12
-0.48
-0.70
-0.57
-0.31
-0.07
0.12
0.37
0.81
1.42
2.04
2.41
2.35
1.91
1.31
0.85
0.71
0.85
1.03
1.01
0.62
-0.05
-0.75
-1.12
-0.93
-0.22
0.74
1.50
1.66
1.05
-0.20
-1.70
-2.98
-3.71
-3.82
-3.47
-3.01
-2.72
-2.72
-2.97
-3.29
-3.52
-3.61
-3.58
-3.48
-3.32
-3.07
-2.73
-2.36
-2.09
-2.01
-2.09
-2.10
-1.72
-0.77
0.75
2.53
4.17
5.32
5.81
5.68
5.12
4.33
3.45
2.60
1.86
1.25
0.78
0.37
-0.03
-0.46
-0.88
-1.22
-1.40
-1.38
-1.20
-0.93
-0.63
-0.36
-0.13
0.03
0.14
0.21
0.27
0.34
0.39
0.37
0.25
0.04
-0.17
-0.26
-0.20
-0.03
0.10
0.03
-0.27
-0.71
-1.06
-1.11
-0.80
-0.30
0.14
0.34
0.24
-0.03
-0.27
-0.31
-0.18
-0.00
0.05
-0.12
-0.54
-1.13
-1.77
-2.31
-2.61
-2.57
-2.12
-1.30
-0.18
1.10
2.41
3.68
4.85
5.88
6.69
7.20
7.30
6.95
6.18
5.11
3.93
2.87
2.10
1.71
1.68
1.88
2.16
2.44
2.76
3.22
3.89
4.72
5.54
6.14
6.36
6.26
6.04
5.96
6.25
6.99
8.09
9.31
10.29
10.66
10.09
8.38
5.57
1.97
-1.88
-5.30
-7.64
-8.40
-7.37
-4.67
-0.79
3.35
6.66
8.09
7.07
3.83
-0.61
-4.78
-7.40
-7.94
-6.86
-5.36
-4.73
-5.72
-8.24
-11.47
-14.32
-16.01
-16.30
-15.50
-14.11
-12.60
-11.14
-9.63
-7.89
-5.86
-3.70
-1.77
-0.53
-0.20
-0.68
-1.56
-2.26
-2.35
-1.72
-0.61
0.53
1.30
1.55
1.43
1.22
1.15
1.29
1.54
1.76
1.85
1.86
1.86
1.89
1.91
1.84
1.66
1.48
1.41
1.55
1.82
2.08
2.19
2.16
2.13
2.28
2.66
3.14
3.49
3.55
3.41
3.30
3.52
4.16
5.07
5.85
6.10
5.57
4.30
2.57
0.78
-0.73
-1.78
-2.36
-2.57
-2.51
-2.25
-1.82
-1.28
-0.72
-0.25
0.02
0.09
-0.01
-0.26
-0.61
-1.08
-1.66
-2.28
-2.80
-3.11
-3.14
-2.95
-2.70
-2.51
-2.46
-2.53
-2.66
-2.78
-2.89
-2.99
-3.11
-3.26
-3.40
-3.41
-3.22
-2.78
-2.16
-1.56
-1.17
-1.12
-1.35
-1.67
-1.84
-1.72
-1.38
-1.05
-0.99
-1.36
-2.13
-3.12
-4.11
-4.86
-5.30
-5.41
-5.31
-5.21
-5.40
-6.18
-7.79
-10.28
-13.33
-16.27
-18.10
-17.88
-15.06
-9.81
-3.09
3.69
9.18
12.58
13.90
13.75
13.01
12.34
11.96
11.71
11.34
10.68
9.76
8.76
7.84
7.08
6.47
5.93
5.41
4.89
4.44
4.18
4.23
4.60
5.21
5.87
6.33
6.46
6.25
5.89
5.63
5.62
5.85
6.11
6.11
5.66
4.78
3.72
2.86
2.49
2.68
3.21
3.71
3.81
3.33
2.36
1.19
0.15
-0.56
-0.92
-1.07
-1.19
-1.37
-1.58
-1.69
-1.60
-1.31
-0.94
-0.66
-0.56
-0.65
-0.82
-0.91
-0.84
-0.64
-0.43
-0.32
-0.38
-0.53
-0.66
-0.64
-0.48
-0.28
-0.22
-0.39
-0.76
-1.17
-1.40
-1.34
-1.03
-0.62
-0.29
-0.12
-0.05
0.03
0.17
0.34
0.43
0.39
0.24
0.08
0.01
0.03
0.03
-0.10
-0.44
-0.94
-1.46
-1.84
-1.93
-1.72
-1.28
-0.74
-0.25
0.05
0.13
0.05
-0.05
-0.07
0.05
0.24
0.36
0.33
0.14
-0.10
-0.25
-0.19
0.08
0.50
0.98
1.43
1.82
2.10
2.27
2.33
2.30
2.18
2.00
1.75
1.43
1.05
0.63
0.24
-0.06
-0.21
-0.17
-0.01
0.18
0.28
0.16
-0.24
-0.90
-1.74
-2.61
-3.35
-3.86
-4.11
-4.17
-4.14
-4.09
-4.02
-3.88
-3.62
-3.25
-2.86
-2.59
-2.49
-2.50
-2.44
-2.13
-1.46
-0.53
0.42
1.12
1.44
1.43
1.29
1.29
1.57
2.13
2.80
3.32
3.50
3.28
2.74
2.08
1.47
1.06
0.85
0.79
0.81
0.84
0.82
0.67
0.26
-0.54
-1.73
-3.19
-4.64
-5.73
-6.22
-6.06
-5.41
-4.52
-3.64
-2.95
-2.50
-2.30
-2.31
-2.50
-2.82
-3.17
-3.47
-3.62
-3.59
-3.33
-2.83
-2.13
-1.32
-0.53
0.07
0.38
0.44
0.34
0.22
0.10
-0.10
-0.49
-1.06
-1.65
-1.98
-1.81
-1.12
-0.18
0.62
0.96
0.74
0.12
-0.61
-1.17
-1.43
-1.40
-1.21
-0.98
-0.83
-0.84
-1.08
-1.54
-2.13
-2.66
-2.91
-2.74
-2.16
-1.36
-0.55
0.08
0.47
0.71
0.91
1.17
1.49
1.79
1.96
1.96
1.85
1.76
1.79
2.01
2.34
2.63
2.74
2.64
2.42
2.29
2.42
2.82
3.32
3.65
3.64
3.27
2.74
2.30
2.13
2.19
2.32
2.28
1.97
1.41
0.78
0.27
-0.02
-0.13
-0.22
-0.48
-0.99
-1.69
-2.41
-2.93
-3.11
-2.98
-2.67
-2.37
-2.22
-2.24
-2.29
-2.23
-1.90
-1.30
-0.55
0.16
0.65
0.84
0.82
0.75
0.79
1.00
1.30
1.49
1.44
1.13
0.72
0.46
0.51
0.82
1.20
1.39
1.30
1.03
0.83
0.94
1.36
1.87
2.13
1.94
1.32
0.54
-0.06
-0.29
-0.20
-0.03
-0.05
-0.38
-0.94
-1.57
-2.06
-2.35
-2.45
-2.47
-2.48
-2.52
-2.58
-2.58
-2.41
-2.00
-1.34
-0.52
0.25
0.76
0.91
0.78
0.57
0.48
0.60
0.82
0.92
0.72
0.24
-0.33
-0.72
-0.78
-0.55
-0.24
-0.10
-0.23
-0.54
-0.80
-0.83
-0.59
-0.21
0.10
0.19
0.03
-0.26
-0.54
-0.70
-0.76
-0.79
-0.89
-1.08
-1.33
-1.56
-1.72
-1.81
-1.86
-1.91
-1.97
-1.97
-1.88
-1.61
-1.15
-0.53
0.15
0.79
1.32
1.72
2.05
2.33
2.58
2.79
2.88
2.81
2.60
2.36
2.27
2.47
2.97
3.63
4.17
4.33
3.95
3.05
1.82
0.52
-0.60
-1.44
-2.00
-2.37
-2.62
-2.79
-2.85
-2.84
-2.86
-3.06
-3.51
-4.19
-4.85
-5.20
-4.97
-4.07
-2.68
-1.10
0.31
1.31
1.80
1.84
1.57
1.17
0.82
0.61
0.61
0.73
0.90
1.00
1.01
0.98
0.97
1.03
1.13
1.18
1.12
0.94
0.71
0.52
0.44
0.43
0.38
0.21
-0.08
-0.40
-0.57
-0.49
-0.12
0.40
0.84
1.03
0.85
0.40
-0.13
-0.51
-0.57
-0.30
0.21
0.79
1.25
1.44
1.26
0.68
-0.23
-1.32
-2.36
-3.11
-3.40
-3.20
-2.63
-1.88
-1.13
-0.49
-0.04
0.19
0.20
0.04
-0.16
-0.22
-0.02
0.43
1.00
1.44
1.58
1.38
0.96
0.50
0.16
-0.02
-0.06
0.02
0.19
0.41
0.60
0.67
0.57
0.35
0.12
-0.03
-0.10
-0.19
-0.39
-0.71
-0.99
-1.06
-0.79
-0.26
0.27
0.52
0.33
-0.23
-0.95
-1.54
-1.85
-1.87
-1.76
-1.69
-1.76
-1.93
-2.02
-1.88
-1.40
-0.62
0.27
1.07
1.62
1.88
1.94
1.92
1.91
1.90
1.86
1.70
1.39
0.99
0.60
0.34
0.30
0.52
0.97
1.55
2.13
2.59
2.81
2.74
2.40
1.89
1.36
0.98
0.81
0.81
0.85
0.80
0.57
0.17
-0.32
-0.81
-1.24
-1.64
-2.07
-2.62
-3.35
-4.24
-5.23
-6.19
-7.01
-7.56
-7.75
-7.47
-6.71
-5.52
-4.05
-2.53
-1.20
-0.22
0.38
0.66
0.79
0.86
0.92
0.94
0.80
0.47
-0.01
-0.45
-0.60
-0.22
0.79
2.29
3.96
5.41
6.31
6.53
6.17
5.47
4.68
3.95
3.29
2.69
2.16
1.80
1.76
2.14
2.87
3.77
4.58
5.06
5.16
4.95
4.64
4.40
4.34
4.41
4.52
4.57
4.58
4.60
4.66
4.73
4.64
4.23
3.42
2.30
1.07
-0.01
-0.79
-1.23
-1.45
-1.59
-1.78
-2.06
-2.35
-2.55
-2.55
-2.28
-1.80
-1.26
-0.83
-0.64
-0.74
-1.10
-1.59
-2.10
-2.53
-2.84
-2.97
-2.93
-2.73
-2.45
-2.24
-2.20
-2.40
-2.81
-3.29
-3.67
-3.78
-3.55
-2.98
-2.17
-1.32
-0.65
-0.36
-0.49
-0.95
-1.55
-2.04
-2.25
-2.13
-1.72
-1.16
-0.58
-0.07
0.25
0.34
0.18
-0.14
-0.45
-0.56
-0.35
0.17
0.84
1.47
1.89
2.04
1.98
1.77
1.52
1.27
1.01
0.75
0.47
0.21
0.02
-0.11
-0.22
-0.41
-0.79
-1.37
-2.05
-2.62
-2.84
-2.58
-1.90
-1.03
-0.29
0.10
0.09
-0.22
-0.59
-0.82
-0.78
-0.42
0.23
1.08
1.99
2.74
3.15
3.08
2.51
1.57
0.51
-0.42
-1.00
-1.12
-0.80
-0.15
0.64
1.38
1.91
2.15
2.13
1.97
1.82
1.74
1.71
1.63
1.39
0.97
0.46
0.05
-0.14
-0.09
0.02
-0.04
-0.42
-1.10
-1.84
-2.35
-2.41
-2.02
-1.38
-0.77
-0.39
-0.28
-0.29
-0.21
0.05
0.46
0.87
1.12
1.12
0.94
0.70
0.55
0.57
0.72
0.88
0.96
0.90
0.76
0.67
0.71
0.86
0.98
0.90
0.48
-0.23
-1.04
-1.63
-1.78
-1.40
-0.64
0.22
0.89
1.13
0.87
0.17
-0.80
-1.85
-2.80
-3.52
-3.89
-3.88
-3.56
-3.08
-2.63
-2.32
-2.23
-2.37
-2.70
-3.07
-3.30
-3.30
-3.10
-2.78
-2.38
-2.00
-1.77
-1.81
-1.91
-1.82
-1.45
-1.00
-0.75
-0.84
-1.27
-1.99
-2.80
-3.16
-2.71
-1.55
-0.40
0.05
-0.23
-0.83
-1.12
-0.52
1.82
6.30
12.82
20.68
28.86
36.24
41.11
41.15
32.47
13.70
-12.15
-38.29
-57.93
-68.30
-68.90
-60.17
-43.53
-21.29
4.49
30.21
52.08
65.30
66.91
57.93
42.51
25.59
11.12
1.77
-1.49
0.60
5.87
11.23
14.13
12.92
7.30
-1.42
-10.66
-17.92
-21.58
-21.11
-17.11
-11.01
-4.93
-0.99
-0.47
-3.38
-8.55
-14.22
-18.81
-21.43
-21.89
-20.71
-18.77
-16.94
-15.74
-15.23
-14.91
-14.04
-11.94
-8.41
-3.99
0.03
2.14
1.38
-2.21
-7.24
-11.89
-14.52
-14.45
-12.05
-8.59
-5.76
-5.12
-7.57
-12.60
-18.69
-23.99
-26.77
-26.06
-21.93
-15.46
-8.24
-1.92
2.63
4.57
3.50
0.46
-1.49
1.64
12.27
28.87
45.65
55.73
53.23
36.27
8.52
-22.00
-46.06
-56.79
-51.07
-28.83
9.60
61.84
122.38
182.46
231.77
261.30
265.71
244.91
196.06
126.53
51.57
-12.93
-58.60
-85.91
-99.72
-105.45
-106.95
-106.43
-103.68
-98.69
-92.41
-86.32
-81.36
-77.33
-73.91
-70.93
-68.50
-66.18
-64.43
-64.60
-67.63
-73.59
-78.91
-79.56
-72.70
-57.84
-36.52
-12.25
10.85
29.92
43.42
52.32
57.83
60.30
59.28
54.65
47.09
38.05
29.26
21.93
16.58
12.68
9.29
5.91
2.82
0.61
-0.27
0.12
1.32
2.83
4.13
4.88
5.06
4.83
4.43
4.08
3.91
3.98
4.40
5.14
6.07
6.99
7.64
7.75
7.13
5.74
3.70
1.24
-1.42
-4.13
-6.92
-9.85
-12.89
-15.85
-18.41
-20.27
-21.40
-22.06
-22.71
-23.73
-25.20
-26.79
-27.95
-28.19
-27.33
-25.66
-23.83
-22.48
-21.97
-22.06
-21.88
-20.19
-15.81
-8.10
2.86
16.43
31.84
48.39
65.43
82.19
97.58
110.38
119.97
126.77
132.25
138.15
145.36
153.19
159.53
161.70
157.67
146.88
130.21
109.29
85.84
61.26
36.72
13.29
-8.04
-26.46
-41.60
-53.53
-62.54
-69.04
-73.58
-76.94
-80.21
-84.49
-90.28
-97.10
-103.51
-107.66
-108.22
-105.06
-99.39
-93.27
-88.82
-87.63
-90.68
-98.31
-110.16
-125.21
-141.73
-157.75
-171.61
-182.48
-190.48
-196.37
-200.81
-203.61
-203.40
-197.91
-184.69
-162.37
-131.58
-95.39
-58.68
-26.62
-2.75
12.53
22.03
30.47
42.05
58.49
78.45
98.55
115.39
127.33
134.91
140.17
145.25
151.25
157.87
163.87
167.88
169.02
167.19
162.79
156.49
148.83
140.26
131.31
122.82
116.02
112.27
112.35
115.70
120.05
121.95
118.25
107.90
93.23
79.37
72.17
75.11
87.07
102.12
111.80
108.36
87.58
49.84
-0.47
