1660334013.00
64.000000
-0.00
-0.00
-0.00
-0.00
-0.00
-0.00
-0.00
-0.00
-0.00
-0.00
0.00
0.01
0.01
-0.00
-0.03
-0.05
-0.05
0.00
0.13
0.36
0.66
1.01
1.37
1.72
2.06
2.40
2.79
3.24
3.80
4.42
5.06
5.67
6.21
6.69
7.15
7.68
8.31
9.13
10.08
11.05
11.92
12.62
13.19
13.76
14.53
15.65
17.39
19.58
22.01
24.37
26.51
28.47
30.50
33.02
36.34
40.88
46.31
52.17
57.88
63.05
67.65
72.09
77.01
82.95
90.52
99.33
108.71
117.77
125.85
132.79
139.00
145.67
151.52
159.03
169.11
182.12
196.94
210.47
217.96
214.34
195.94
161.93
115.12
59.92
1.20
-57.63
-115.34
-172.34
-229.49
-286.97
-343.86
-398.10
-447.88
-491.77
-528.88
-558.58
-580.14
-592.58
-594.93
-586.76
-568.20
-540.07
-502.92
-456.50
-399.84
-332.15
-254.08
-168.62
-80.89
3.16
78.27
141.26
191.28
229.12
256.24
273.99
283.55
286.12
283.27
276.85
268.67
260.02
251.40
242.52
232.59
220.84
206.95
191.29
174.78
158.56
143.48
129.84
117.36
105.52
93.94
82.62
71.93
62.32
54.08
47.19
41.31
35.96
30.78
25.60
20.45
15.58
11.15
7.25
3.87
0.97
-1.58
-3.86
-5.93
-7.76
-9.29
-10.50
-11.37
-11.93
-12.23
-12.32
-12.19
-11.74
-10.80
-9.28
-7.18
-4.71
-2.23
-0.18
1.07
1.34
0.68
-0.63
-2.26
-3.92
-5.40
-6.54
-7.20
-7.24
-6.59
-5.35
-3.81
-2.38
-1.46
-1.25
-1.67
-2.40
-3.06
-3.33
-3.14
-2.62
-2.06
-1.72
-1.74
-2.08
-2.57
-3.00
-3.22
-3.24
-3.15
-3.13
-3.29
-3.62
-3.99
-4.21
-4.04
-3.30
-1.94
-0.05
2.11
4.15
5.68
6.39
6.21
5.26
3.81
2.14
0.55
-0.79
-1.72
-2.15
-2.04
-1.46
-0.59
0.40
1.34
2.18
2.95
3.67
4.34
4.87
5.14
5.10
4.74
4.14
3.38
2.54
1.64
0.76
-0.12
-0.97
-1.79
-2.62
-3.54
-4.58
-5.73
-6.86
-7.75
-8.17
-7.88
-6.76
-4.91
-2.59
-0.27
1.56
2.50
2.42
1.45
-0.09
-1.77
-3.28
-4.46
-5.27
-5.75
-5.89
-5.67
-5.03
-4.02
-2.77
-1.52
-0.53
0.04
0.19
0.08
-0.11
-0.22
-0.24
-0.23
-0.32
-0.57
-0.94
-1.31
-1.59
-1.71
-1.70
-1.63
-1.59
-1.69
-1.94
-2.26
-2.48
-2.31
-1.49
0.09
2.38
5.05
7.69
9.91
11.45
12.27
12.39
11.91
10.68
8.69
6.08
3.13
0.18
-2.43
-4.46
-5.80
-6.47
-6.58
-6.23
-5.57
-4.75
-3.95
-3.28
-2.83
-2.65
-2.73
-3.04
-3.50
-4.02
-4.51
-4.90
-5.13
-5.21
-5.21
-5.27
-5.56
-6.17
-7.13
-8.27
-9.27
-9.66
-8.96
-6.89
-3.43
1.04
5.87
10.32
13.71
15.66
16.15
15.39
13.76
11.61
9.21
6.74
4.34
2.17
0.37
-0.95
-1.74
-2.08
-2.08
-1.89
-1.57
-1.15
-0.65
-0.17
0.12
0.04
-0.52
-1.51
-2.72
-3.86
-4.72
-5.23
-5.49
-5.67
-5.98
-6.55
-7.41
-8.47
-9.49
-10.14
-10.01
-8.71
-6.07
-2.25
2.25
6.77
10.63
13.41
14.97
15.41
14.97
13.84
12.17
10.03
7.55
4.96
2.58
0.71
-0.44
-0.87
-0.75
-0.34
0.11
0.48
0.72
0.84
0.84
0.67
0.28
-0.35
-1.20
-2.17
-3.16
-4.07
-4.84
-5.46
-5.97
-6.50
-7.20
-8.19
-9.46
-10.82
-11.85
-12.10
-11.23
-9.16
-6.15
-2.69
0.71
3.63
5.91
7.56
8.64
9.24
9.34
8.92
7.97
6.59
4.98
3.43
2.22
1.60
1.67
2.38
3.55
4.93
6.25
7.32
8.07
8.45
8.45
8.03
7.15
5.84
4.23
2.51
0.86
-0.70
-2.34
-4.33
-6.90
-10.02
-13.36
-16.26
-17.98
-17.99
-16.13
-12.74
-8.54
-4.39
-1.04
1.09
1.93
1.68
0.67
-0.74
-2.28
-3.76
-5.04
-6.03
-6.74
-7.21
-7.54
-7.81
-8.06
-8.24
-8.26
-8.06
-7.65
-7.12
-6.63
-6.26
-6.05
-5.93
-5.78
-5.51
-5.14
-4.79
-4.66
-4.93
-5.68
-6.82
-8.06
-8.91
-8.86
-7.44
-4.43
0.01
5.38
10.92
15.79
19.34
21.18
21.28
19.90
17.47
14.48
11.36
8.44
5.98
4.14
3.00
2.58
2.77
3.38
4.12
4.70
4.88
4.56
3.78
2.70
1.53
0.47
-0.36
-0.94
-1.37
-1.77
-2.30
-3.11
-4.26
-5.76
-7.50
-9.27
-10.72
-11.42
-10.99
-9.15
-5.88
-1.42
3.75
9.02
13.79
17.54
19.91
20.72
19.99
17.90
14.78
11.07
7.23
3.73
0.92
-0.98
-1.90
-1.92
-1.22
-0.07
1.29
2.65
3.87
4.83
5.44
5.66
5.42
4.70
3.47
1.73
-0.49
-3.11
-5.95
-8.82
-11.49
-13.75
-15.40
-16.26
-16.15
-14.88
-12.39
-8.81
-4.44
0.23
4.71
8.58
11.65
13.88
15.38
16.25
16.63
16.66
16.53
16.45
16.56
16.85
17.14
17.15
16.62
15.52
14.07
12.69
11.70
11.22
11.03
10.70
9.78
8.02
5.42
2.19
-1.35
-4.88
-8.15
-11.00
-13.35
-15.21
-16.67
-17.84
-18.79
-19.51
-19.92
-19.94
-19.56
-18.82
-17.85
-16.78
-15.77
-14.98
-14.58
-14.68
-15.29
-16.25
-17.26
-17.95
-18.04
-17.38
-15.97
-13.94
-11.52
-8.95
-6.51
-4.39
-2.70
-1.45
-0.54
0.12
0.62
0.95
1.07
0.93
0.45
-0.44
-1.80
-3.65
-5.85
-8.12
-10.02
-11.09
-11.05
-9.81
-7.57
-4.65
-1.40
1.87
5.01
7.89
10.40
12.44
13.87
14.64
14.76
14.28
13.35
12.13
10.80
9.54
8.51
7.79
7.39
7.24
7.20
7.15
6.94
6.46
5.62
4.42
2.91
1.18
-0.67
-2.61
-4.68
-6.86
-9.04
-10.88
-11.89
-11.63
-9.85
-6.73
-2.75
1.40
5.11
8.00
9.94
10.93
11.03
10.31
8.82
6.71
4.24
1.79
-0.26
-1.69
-2.46
-2.71
-2.71
-2.74
-2.95
-3.42
-4.08
-4.80
-5.43
-5.83
-5.89
-5.60
-5.10
-4.64
-4.56
-5.17
-6.58
-8.64
-10.85
-12.51
-12.93
-11.68
-8.76
-4.61
0.04
4.40
7.91
10.32
11.69
12.23
12.09
11.35
10.04
8.20
6.04
3.90
2.17
1.11
0.84
1.19
1.85
2.45
2.74
2.61
2.12
1.43
0.71
0.03
-0.63
-1.40
-2.39
-3.67
-5.22
-6.95
-8.75
-10.49
-11.93
-12.71
-12.36
-10.47
-6.86
-1.80
4.03
9.65
14.19
17.05
18.16
17.78
16.41
14.49
12.32
10.04
7.77
5.67
3.96
2.88
2.55
2.89
3.60
4.31
4.70
4.64
4.16
3.43
2.58
1.65
0.58
-0.69
-2.17
-3.77
-5.34
-6.79
-8.08
-9.23
-10.22
-10.88
-10.96
-10.17
-8.32
-5.49
-1.98
1.74
5.16
7.88
9.70
10.62
10.84
10.58
10.04
9.32
8.44
7.39
6.26
5.24
4.54
4.35
4.68
5.32
5.94
6.19
5.82
4.81
3.28
1.48
-0.34
-1.96
-3.29
-4.31
-5.06
-5.65
-6.16
-6.71
-7.39
-8.24
-9.18
-9.98
-10.26
-9.60
-7.70
-4.56
-0.49
3.91
8.01
11.32
13.62
14.93
15.43
15.29
14.62
13.50
12.04
10.42
8.89
7.67
6.85
6.43
6.21
5.96
5.49
4.72
3.69
2.54
1.39
0.36
-0.55
-1.36
-2.12
-2.83
-3.54
-4.23
-4.97
-5.81
-6.81
-8.01
-9.40
-10.91
-12.32
-13.31
-13.47
-12.42
-9.97
-6.21
-1.59
3.22
7.51
10.72
12.59
13.14
12.56
11.11
9.04
6.60
4.01
1.51
-0.70
-2.47
-3.76
-4.58
-5.03
-5.22
-5.22
-5.10
-4.88
-4.60
-4.30
-4.01
-3.74
-3.49
-3.21
-2.88
-2.48
-2.01
-1.54
-1.17
-1.02
-1.24
-1.89
-2.94
-4.16
-5.14
-5.33
-4.24
-1.59
2.57
7.75
13.18
17.97
21.37
22.89
22.43
20.20
16.60
12.12
7.29
2.56
-1.66
-5.06
-7.51
-9.07
-9.98
-10.56
-11.07
-11.66
-12.32
-12.94
-13.45
-13.83
-14.16
-14.54
-14.99
-15.47
-15.87
-16.15
-16.33
-16.53
-16.82
-17.21
-17.52
-17.41
-16.45
-14.33
-10.94
-6.45
-1.33
3.79
8.30
11.71
13.78
14.53
14.17
13.05
11.48
9.76
8.09
6.62
5.43
4.61
4.18
4.11
4.35
4.74
5.10
5.20
4.86
3.98
2.64
1.01
-0.62
-2.00
-2.98
-3.55
-3.84
-3.98
-4.16
-4.51
-5.14
-6.11
-7.29
-8.34
-8.73
-7.89
-5.48
-1.59
3.22
8.07
12.09
14.72
15.81
15.57
14.38
12.58
10.39
7.97
5.46
3.05
0.94
-0.69
-1.81
-2.47
-2.81
-2.96
-3.04
-3.09
-3.18
-3.37
-3.73
-4.28
-4.99
-5.75
-6.46
-7.05
-7.50
-7.87
-8.21
-8.57
-9.00
-9.55
-10.22
-10.88
-11.26
-10.93
-9.49
-6.73
-2.83
1.62
5.83
9.04
10.82
11.19
10.49
9.21
7.73
6.24
4.74
3.24
1.83
0.71
0.13
0.23
0.98
2.14
3.38
4.40
5.04
5.26
5.11
4.68
4.02
3.15
2.11
0.98
-0.16
-1.23
-2.16
-3.01
-3.83
-4.70
-5.67
-6.61
-7.28
-7.35
-6.50
-4.60
-1.76
1.66
5.11
8.03
10.03
10.94
10.85
10.01
8.71
7.18
5.57
3.97
2.42
0.99
-0.22
-1.11
-1.55
-1.48
-0.89
0.15
1.51
2.99
4.36
5.38
5.86
5.73
5.03
3.90
2.56
1.16
-0.23
-1.66
-3.25
-5.09
-7.17
-9.31
-11.13
-12.14
-11.88
-10.13
-6.97
-2.90
1.38
5.09
7.66
8.85
8.79
7.83
6.38
4.75
3.09
1.45
-0.10
-1.44
-2.37
-2.76
-2.58
-1.98
-1.23
-0.56
-0.12
0.07
0.11
0.06
-0.01
-0.14
-0.38
-0.79
-1.40
-2.17
-2.98
-3.70
-4.17
-4.37
-4.44
-4.60
-5.07
-5.79
-6.45
-6.46
-5.33
-2.84
0.78
5.02
9.30
13.17
16.32
18.46
19.20
18.13
15.03
10.18
4.44
-1.03
-5.14
-7.36
-7.84
-7.21
-6.23
-5.39
-4.80
-4.35
-3.89
-3.46
-3.27
-3.52
-4.26
-5.33
-6.42
-7.23
-7.68
-7.92
-8.23
-8.84
-9.77
-10.76
-11.38
-11.22
-10.05
-7.95
-5.21
-2.21
0.73
3.42
5.78
7.80
9.42
10.57
11.13
11.01
10.19
8.72
6.75
4.54
2.36
0.50
-0.78
-1.37
-1.31
-0.82
-0.21
0.26
0.47
0.47
0.46
0.63
1.15
2.04
3.14
4.20
4.92
5.01
4.28
2.72
0.61
-1.47
-2.71
-2.36
0.00
4.32
10.00
16.05
21.46
25.46
27.79
28.63
28.27
27.12
25.55
23.85
22.19
20.63
19.18
17.88
16.75
15.51
13.96
12.01
9.68
7.01
3.98
0.56
-3.20
-7.25
-12.04
-17.93
-24.94
-32.76
-40.89
-48.79
-56.01
-62.17
-67.02
-71.02
-74.47
-77.21
-78.66
-78.28
-75.89
-71.71
-66.28
-56.55
-41.87
-24.10
-6.61
8.01
18.99
26.84
32.39
36.26
38.81
39.74
38.95
36.78
33.74
30.12
25.79
20.57
14.66
8.77
3.58
-0.19
-2.08
-1.99
-0.32
2.25
5.11
7.98
10.82
13.54
16.20
19.07
22.54
26.87
31.85
36.75
40.64
42.15
40.99
37.38
31.86
25.01
17.22
8.79
0.23
-7.59
-13.62
-17.08
-17.94
-16.84
-14.84
-12.92
-11.60
-10.94
-10.71
-10.64
-10.59
-10.63
-10.86
-11.26
-11.72
-12.06
-12.13
-11.92
-11.48
-10.95
-10.49
-10.22
-10.12
-10.01
-9.55
-8.40
-6.37
-3.39
0.29
4.12
7.47
9.82
10.93
10.87
9.94
8.49
6.82
5.08
3.32
1.62
0.10
-1.07
-1.75
-1.89
-1.56
-0.94
-0.21
0.54
1.25
1.95
2.62
3.24
3.75
4.07
4.17
4.03
3.69
3.26
2.88
2.68
2.76
3.14
3.75
4.57
5.59
6.89
8.56
10.61
12.86
14.92
16.24
16.32
14.90
11.95
7.82
3.05
-1.71
-5.91
-9.21
-11.48
-12.83
-13.38
-13.41
-13.25
-13.24
-13.65
-14.58
-16.03
-17.91
-20.07
-22.36
-24.66
-26.85
-28.80
-30.41
-31.67
-32.69
-33.69
-34.85
-36.10
-37.10
-37.20
-35.72
-32.13
-26.24
-18.21
-8.43
2.57
14.10
25.24
34.84
41.75
45.17
45.01
42.04
37.61
33.14
29.59
27.22
25.63
24.19
22.41
20.09
17.31
14.26
11.11
7.94
4.88
2.10
-0.18
-1.82
-2.91
-3.72
-4.68
-6.23
-8.60
-11.70
-15.12
-18.15
-19.96
-19.77
-17.20
-12.37
-5.98
0.93
7.25
12.21
15.50
17.31
18.02
18.02
17.53
16.64
15.40
14.00
12.73
11.90
11.66
11.85
12.09
11.85
10.71
8.53
5.55
2.28
-0.65
-2.71
-3.73
-3.98
-4.09
-4.84
-6.80
-10.03
-14.00
-17.71
-20.08
-20.34
-18.31
-14.40
-9.40
-4.10
1.01
5.91
11.08
17.33
25.47
36.00
48.64
62.12
74.13
81.81
82.58
75.19
60.29
40.43
19.20
0.06
-14.75
-24.69
-30.56
-33.76
-35.40
-36.02
-35.63
-34.21
-31.98
-29.44
-27.18
-25.46
-24.14
-22.73
-20.77
-18.12
-15.14
-12.57
-11.19
-11.38
-12.86
-14.75
-15.89
-15.32
-12.75
-8.62
-3.96
0.19
3.11
4.68
5.18
5.06
4.64
4.00
3.13
2.02
0.73
-0.66
-2.18
-4.03
-6.48
-9.73
-13.75
-18.24
-22.73
-26.75
-30.03
-32.51
-34.35
-35.80
-37.04
-38.12
-38.86
-38.91
-37.80
-35.15
-30.82
-25.05
-18.42
-11.69
-5.53
-0.27
4.19
8.25
12.42
17.12
22.61
28.99
36.24
44.08
51.90
58.65
62.97
63.69
60.28
53.23
43.97
34.34
25.90
19.33
14.39
10.24
6.00
1.24
-3.94
-9.13
-13.94
-18.24
-22.09
-25.54
-28.32
-29.90
-29.63
-27.13
-22.53
-16.50
-10.01
-3.99
0.98
4.79
7.61
9.68
11.10
11.79
11.60
10.44
8.48
6.08
3.75
1.99
1.17
1.35
2.34
3.71
4.95
5.67
5.74
5.30
4.69
4.21
4.00
3.97
3.89
3.51
2.68
1.36
-0.45
-2.81
-5.81
-9.41
-13.31
-16.86
-19.20
-19.58
-17.67
-13.75
-8.65
-3.46
0.87
3.87
5.67
6.88
8.33
10.80
14.70
19.93
25.81
31.20
34.78
35.43
32.62
26.66
18.65
10.20
2.95
-1.84
-3.65
-2.72
0.08
3.62
6.82
8.88
9.41
8.37
6.00
2.68
-1.13
-5.07
-8.87
-12.41
-15.62
-18.42
-20.54
-21.58
-21.11
-18.85
-14.85
-9.53
-3.59
2.14
6.90
10.17
11.74
11.74
10.64
8.99
7.30
5.86
4.62
3.40
2.05
0.66
-0.44
-0.90
-0.52
0.52
1.71
2.52
2.63
2.06
1.11
0.15
-0.65
-1.43
-2.49
-4.13
-6.44
-9.25
-12.19
-14.89
-17.13
-18.88
-20.15
-20.92
-21.03
-20.23
-18.29
-15.18
-11.15
-6.68
-2.35
1.36
4.19
6.13
7.43
8.47
9.67
11.33
13.61
16.40
19.41
22.25
24.59
26.21
27.03
27.02
26.15
24.38
21.75
18.43
14.81
11.35
8.43
6.19
4.43
2.73
0.68
-1.95
-5.09
-8.45
-11.73
-14.70
-17.37
-19.85
-22.21
-24.29
-25.61
-25.52
-23.48
-19.31
-13.41
-6.67
-0.19
5.06
8.52
10.13
10.23
9.29
7.74
5.82
3.62
1.12
-1.69
-4.72
-7.81
-10.76
-13.34
-15.38
-16.77
-17.42
-17.27
-16.27
-14.48
-12.05
-9.26
-6.48
-4.09
-2.32
-1.18
-0.49
0.05
0.70
1.45
2.07
2.14
1.26
-0.73
-3.66
-6.98
-9.97
-11.96
-12.47
-11.35
-8.75
-5.00
-0.53
4.28
9.05
13.48
17.38
20.70
23.57
26.27
29.13
32.33
35.82
39.26
42.15
43.97
44.35
43.12
40.22
35.69
29.73
22.68
15.22
8.20
2.41
-1.69
-4.23
-5.90
-7.62
-10.09
-13.48
-17.40
-21.07
-23.84
-25.42
-25.99
-25.91
-25.46
-24.64
-23.18
-20.75
-17.26
-12.85
-7.90
-2.83
2.04
6.50
10.44
13.76
16.42
18.44
19.73
20.07
19.01
16.11
11.25
4.82
-2.29
-9.00
-14.54
-18.72
-21.90
-24.63
-27.21
-29.47
-30.93
-31.10
-29.89
-27.70
-25.17
-22.98
-21.55
-21.02
-21.34
-22.38
-24.08
-26.39
-29.20
-32.19
-34.76
-36.20
-35.85
-33.40
-29.02
-23.26
-16.91
-10.65
-4.91
0.26
5.07
9.87
15.02
20.74
26.99
33.50
39.72
44.98
48.62
50.21
49.59
46.96
42.73
37.40
31.49
25.44
19.64
14.35
9.73
5.78
2.38
-0.63
-3.47
-6.29
-9.15
-12.06
-14.94
-17.64
-19.93
-21.49
-21.98
-21.10
-18.72
-15.00
-10.34
-5.32
-0.52
3.67
7.17
10.14
12.79
15.28
17.50
19.26
20.31
20.55
20.09
19.12
17.81
16.24
14.38
12.12
9.41
6.33
3.12
0.13
-2.25
-3.72
-4.18
-3.74
-2.76
-1.78
-1.33
-1.84
-3.54
-6.37
-10.04
-14.09
-17.90
-20.84
-22.31
-21.85
-19.27
-14.68
-8.59
-1.80
4.73
10.06
13.56
15.05
14.78
13.35
11.49
9.98
9.51
10.71
14.10
20.00
28.33
38.40
48.77
57.37
61.98
60.92
53.63
41.03
25.22
8.85
-5.80
-17.41
-25.81
-31.59
-35.56
-38.27
-39.94
-40.68
-40.71
-40.51
-40.60
-41.28
-42.38
-43.31
-43.36
-42.04
-39.24
-35.26
-30.61
-25.73
-20.89
-16.23
-11.77
-7.56
-3.72
-0.40
2.26
4.15
5.31
5.91
6.23
6.57
7.13
7.93
8.72
9.10
8.69
7.33
5.21
2.75
0.48
-1.24
-2.35
-3.03
-3.64
-4.44
-5.54
-6.88
-8.30
-9.69
-11.00
-12.18
-13.11
-13.50
-13.02
-11.40
-8.60
-4.88
-0.74
3.28
6.76
9.49
11.46
12.73
13.36
13.33
12.61
11.26
9.47
7.56
5.92
4.86
4.54
4.89
5.66
6.41
6.68
6.10
4.52
2.20
-0.26
-2.08
-2.57
-1.43
0.99
3.85
6.07
6.74
5.40
2.15
-2.43
-7.52
-12.22
-15.73
-17.42
-16.92
-14.17
-9.42
-3.20
3.87
11.21
18.30
24.69
29.93
33.58
35.30
35.02
33.01
29.82
26.11
22.48
19.42
17.36
16.66
17.50
19.68
22.41
24.36
24.14
20.82
14.47
6.15
-2.41
-9.51
-14.08
-15.93
-15.66
-14.29
-12.85
-12.17
-12.81
-15.05
-18.82
-23.70
-28.87
-33.25
-35.84
-36.05
-33.93
-30.21
-26.05
-22.57
-20.43
-19.61
-19.51
-19.28
-18.27
-16.27
-13.53
-10.60
-7.96
-5.76
-3.77
-1.36
2.21
7.52
14.69
23.16
31.65
38.41
41.69
40.45
34.79
26.16
16.92
9.55
5.74
5.81
8.64
12.14
14.11
12.96
8.24
0.61
-8.48
-17.39
-24.84
-30.11
-33.12
-34.08
-33.27
-30.87
-26.99
-21.95
-16.37
-11.12
-7.03
-4.53
-3.49
-3.24
-3.01
-2.28
-1.04
0.23
0.97
0.80
-0.13
-1.15
-1.33
0.17
3.73
9.06
15.30
21.19
25.53
27.50
26.86
24.06
20.03
15.89
12.58
10.57
9.76
9.63
9.51
8.86
7.42
5.21
2.35
-0.96
-4.50
-7.97
-10.92
-12.92
-13.68
-13.25
-11.99
-10.52
-9.43
-9.01
-9.23
-9.78
-10.25
-10.26
-9.58
-8.12
-5.88
-2.97
0.48
4.13
7.58
10.31
11.86
12.05
11.01
9.26
7.50
6.39
6.32
7.35
9.22
11.46
13.59
15.20
15.98
15.72
14.34
11.79
8.18
3.84
-0.67
-4.59
-7.06
-7.49
-5.72
-2.25
1.92
5.58
7.68
7.79
6.11
3.48
0.93
-0.57
-0.53
1.05
3.62
6.41
8.65
9.84
9.87
9.00
7.70
6.45
5.60
5.22
5.11
4.88
4.13
2.57
0.08
-3.29
-7.39
-12.15
-17.56
-23.60
-30.18
-36.96
-43.41
-48.89
-52.85
-54.93
-54.98
-52.95
-48.89
-42.90
-35.29
-26.63
-17.71
-9.43
-2.50
2.74
6.41
8.99
11.05
13.07
15.26
17.61
19.93
22.02
23.75
25.07
25.99
26.54
26.74
26.68
26.50
26.41
26.60
27.15
27.98
28.85
29.43
29.42
28.56
26.63
23.45
18.88
12.92
5.78
-2.06
-9.97
-17.29
-23.52
-28.37
-31.70
-33.46
-33.57
-32.03
-28.92
-24.48
-19.09
-13.11
-6.88
-0.67
5.23
10.46
14.54
16.97
17.39
15.71
12.19
7.40
2.05
-3.10
-7.39
-10.33
-11.62
-11.18
-9.19
-6.02
-2.18
1.79
5.41
8.33
10.28
11.09
10.72
9.24
6.91
4.16
1.57
-0.29
-1.07
-0.75
0.27
1.23
1.31
-0.12
-3.17
-7.27
-11.35
-14.12
-14.58
-12.35
-7.80
-1.78
4.75
11.11
17.13
23.00
29.05
35.51
42.35
49.33
55.94
61.38
64.44
63.73
58.18
47.66
33.35
17.54
2.86
-8.73
-16.62
-21.58
-25.10
-28.44
-32.09
-35.71
-38.65
-40.55
-41.65
-42.57
-43.89
-45.73
-47.66
-48.91
-48.81
-47.12
-44.14
-40.47
-36.66
-32.91
-29.00
-24.46
-18.85
-11.96
-3.86
5.16
14.80
24.70
34.28
42.64
48.58
51.04
49.61
44.87
38.32
31.73
26.42
22.67
19.76
16.54
12.18
6.64
0.63
-4.83
-9.04
-11.92
-13.92
-15.63
-17.41
-19.24
-20.83
-21.91
-22.41
-22.58
-22.87
-23.73
-25.38
-27.76
-30.46
-32.91
-34.53
-34.89
-33.83
-31.43
-27.87
-23.36
-18.05
-12.08
-5.64
0.93
7.14
12.47
16.54
19.20
20.57
20.99
20.92
20.78
20.95
21.67
23.07
25.03
27.23
29.12
30.09
29.66
27.61
24.15
19.72
14.96
10.38
6.33
2.90
0.07
-2.21
-3.97
-5.24
-6.07
-6.64
-7.25
-8.25
-9.92
-12.39
-15.51
-18.88
-21.92
-24.09
-25.00
-24.61
-23.14
-20.98
-18.51
-15.96
-13.34
-10.59
-7.66
-4.65
-1.85
0.46
2.11
3.18
3.98
4.88
6.10
7.63
9.27
10.80
12.15
13.39
14.66
15.99
17.18
17.86
17.69
16.59
14.92
13.28
12.40
12.83
14.77
18.04
22.10
26.04
28.74
29.02
26.01
19.48
10.12
-0.61
-10.87
-19.06
-24.24
-26.36
-25.97
-23.88
-20.82
-17.33
-13.81
-10.58
-7.95
-6.04
-4.70
-3.52
-2.01
0.17
3.03
6.21
9.15
11.35
12.58
12.97
12.89
12.75
12.78
12.88
12.69
11.74
9.76
6.87
3.58
0.68
-1.11
-1.41
-0.39
1.30
2.78
3.23
2.19
-0.32
-3.88
-7.82
-11.38
-13.94
-15.08
-14.71
-12.99
-10.30
-7.13
-3.93
-1.03
1.35
3.07
4.04
4.21
3.59
2.32
0.67
-1.09
-2.73
-4.19
-5.56
-7.02
-8.72
-10.65
-12.61
-14.27
-15.16
-14.84
-12.99
-9.50
-4.57
1.24
7.14
12.20
15.66
17.15
16.86
15.55
14.41
14.65
17.13
21.93
28.20
34.43
38.86
40.13
37.72
31.96
23.74
14.12
3.93
-6.23
-15.85
-24.30
-30.84
-34.92
-36.38
-35.66
-33.55
-30.91
-28.25
-25.67
-22.94
-19.84
-16.42
-12.98
-9.98
-7.79
-6.48
-5.83
-5.47
-5.02
-4.29
-3.32
-2.39
-1.86
-2.03
-2.99
-4.52
-6.17
-7.42
-7.91
-7.62
-6.85
-6.14
-6.04
-6.85
-8.54
-10.75
-12.92
-14.46
-14.94
-14.15
-12.18
-9.34
-6.15
-3.17
-0.88
0.41
0.60
-0.17
-1.62
-3.40
-5.18
-6.64
-7.61
-8.01
-7.86
-7.20
-6.01
-4.16
-1.45
2.29
7.20
13.24
20.27
27.93
35.67
42.72
48.25
51.57
52.51
51.46
49.30
46.95
44.97
43.28
41.34
38.50
34.35
28.89
22.35
15.01
7.05
-1.38
-9.97
-18.16
-25.22
-30.52
-33.76
-35.02
-34.71
-33.26
-31.03
-28.29
-25.20
-21.97
-18.73
-15.53
-12.25
-8.71
-4.86
-0.90
2.63
5.06
5.86
4.97
2.82
0.18
-2.15
-3.63
-4.16
-3.96
-3.45
-3.02
-2.93
-3.36
-4.43
-6.24
-8.83
-12.18
-16.14
-20.41
-24.57
-28.08
-30.38
-30.95
-29.48
-26.02
-21.06
-15.39
-9.90
-5.24
-1.62
1.19
3.69
6.34
9.39
12.92
16.95
21.59
26.96
33.04
39.45
45.38
49.89
52.20
52.09
49.87
46.14
41.32
35.38
27.87
18.32
6.76
-5.95
-18.24
-28.35
-34.98
-37.85
-37.64
-35.64
-33.14
-30.97
-29.33
-28.05
-26.89
-25.73
-24.58
-23.31
-21.60
-18.92
-14.73
-8.82
-1.46
6.67
14.63
21.50
26.63
29.73
30.77
29.92
27.37
23.34
18.00
11.58
4.43
-2.92
-9.81
-15.51
-19.44
-21.34
-21.32
-19.92
-17.86
-15.85
-14.32
-13.37
-12.75
-12.11
-11.20
-10.06
-9.05
-8.65
-9.29
-11.11
-13.94
-17.31
-20.59
-23.15
-24.44
-24.09
-21.97
-18.17
-13.03
-6.98
-0.39
6.62
14.16
22.46
31.49
40.70
48.94
54.74
56.91
55.06
49.86
42.80
35.58
29.48
24.93
21.65
18.95
16.29
13.48
10.68
8.21
6.19
4.50
2.84
0.91
-1.43
-4.06
-6.71
-9.06
-10.87
-12.13
-13.08
-14.12
-15.70
-18.08
-21.14
-24.32
-26.71
-27.32
-25.46
-20.95
-14.29
-6.47
1.25
7.69
11.98
13.69
12.87
9.96
5.72
1.05
-3.15
-6.19
-7.71
-7.74
-6.62
-4.91
-3.09
-1.54
-0.42
0.17
0.15
-0.54
-1.91
-3.70
-5.44
-6.49
-6.37
-5.00
-2.81
-0.66
0.58
0.39
-1.09
-3.16
-4.82
-5.16
-3.76
-0.78
3.19
7.48
11.66
15.80
20.43
26.38
34.50
45.43
59.38
75.78
92.95
107.95
117.06
116.81
105.34
83.38
54.37
23.33
-4.81
-26.83
-41.86
-50.99
-56.09
-58.74
-59.75
-59.33
-57.71
-55.46
-53.46
-52.45
-52.61
-53.41
-53.83
-52.88
-50.10
-45.82
-41.10
-37.30
-35.56
-36.31
-39.04
-42.44
-44.85
-44.88
-41.99
-36.58
-29.84
-23.12
-17.42
-13.03
-9.67
-6.81
-4.11
-1.63
0.36
1.60
2.23
2.79
4.02
6.47
10.20
14.71
19.07
22.32
23.79
23.29
21.18
18.14
14.88
11.89
9.31
6.99
4.62
1.91
-1.27
-4.90
-8.85
-12.93
-16.90
-20.47
-23.30
-25.02
-25.35
-24.19
-21.68
-18.18
-14.11
-9.86
-5.66
-1.60
2.30
6.01
9.45
12.43
14.79
16.46
17.59
18.50
19.68
21.49
24.01
26.93
29.59
31.25
31.43
30.06
27.51
24.37
21.24
18.43
16.04
14.02
12.37
11.21
10.69
10.82
11.34
11.70
11.21
9.37
6.11
1.96
-2.07
-4.74
-5.04
-2.61
2.06
7.77
13.01
16.50
17.52
16.09
12.75
8.27
3.37
-1.36
-5.44
-8.44
-10.04
-10.08
-8.69
-6.26
-3.33
-0.38
2.32
4.65
6.55
7.83
8.27
7.66
6.01
3.58
0.87
-1.63
-3.62
-5.12
-6.38
-7.67
-9.17
-10.77
-12.19
-13.08
-13.16
-12.26
-10.32
-7.33
-3.33
1.64
7.50
14.05
20.96
27.72
33.66
37.91
39.48
37.41
31.17
20.94
7.87
-6.11
-18.76
-28.26
-33.74
-35.49
-34.63
-32.51
-30.25
-28.43
-27.24
-26.70
-26.89
-27.88
-29.63
-31.80
-33.81
-35.04
-35.07
-33.81
-31.55
-28.77
-25.94
-23.33
-20.94
-18.50
-15.57
-11.82
-7.09
-1.56
4.38
10.34
16.08
21.65
27.23
32.86
38.26
42.65
45.00
44.39
40.50
33.78
25.46
17.11
10.15
5.41
2.96
2.24
2.39
2.59
2.32
1.38
-0.23
-2.38
-4.96
-7.74
-10.46
-12.74
-14.29
-14.98
-14.96
-14.67
-14.67
-15.41
-17.05
-19.28
-21.41
-22.62
-22.20
-19.86
-15.82
-10.69
-5.28
-0.24
4.15
8.05
11.97
16.51
22.10
28.72
35.83
42.38
47.11
48.94
47.36
42.69
35.99
28.76
22.41
17.91
15.59
15.14
15.85
16.75
16.84
15.26
11.49
5.56
-1.83
-9.51
-16.18
-20.89
-23.34
-23.93
-23.50
-22.95
-22.96
-23.83
-25.54
-27.76
-29.89
-31.15
-30.71
-27.93
-22.68
-15.43
-7.09
1.28
8.90
15.41
20.79
25.02
27.84
28.71
27.09
22.82
16.44
9.13
2.32
-2.82
-5.82
-6.96
-7.05
-6.98
-7.37
-8.44
-10.07
-12.06
-14.30
-16.76
-19.44
-22.26
-25.04
-27.53
-29.55
-30.97
-31.75
-31.79
-30.98
-29.16
-26.25
-22.32
-17.62
-12.50
-7.31
-2.34
2.32
6.67
10.84
15.03
19.41
24.08
28.97
33.83
38.23
41.73
43.98
44.77
44.14
42.27
39.47
36.12
32.57
29.07
25.74
22.58
19.52
16.48
13.46
10.47
7.49
4.42
1.08
-2.77
-7.25
-12.30
-17.68
-22.91
-27.39
-30.48
-31.64
-30.59
-27.42
-22.60
-16.91
-11.22
-6.32
-2.72
-0.72
-0.31
-1.27
-3.13
-5.24
-6.85
-7.35
-6.43
-4.19
-1.09
2.22
5.17
7.42
8.94
9.88
10.46
10.81
10.99
10.94
10.59
9.79
8.33
6.01
2.72
-1.46
-6.17
-10.90
-15.11
-18.41
-20.67
-21.95
-22.39
-22.11
-21.15
-19.53
-17.30
-14.57
-11.51
-8.31
-5.14
-2.13
0.64
3.16
5.45
7.59
9.66
11.75
13.92
16.19
18.58
21.09
23.72
26.49
29.43
32.54
35.77
38.94
41.80
44.02
45.34
45.56
44.68
42.78
40.06
36.64
32.56
27.70
21.76
14.37
5.22
-5.67
-17.79
-30.07
-41.14
-49.66
-54.73
-56.13
-54.30
-50.06
-44.29
-37.76
-31.05
-24.63
-19.00
-14.59
-11.75
-10.59
-10.92
-12.33
-14.31
-16.44
-18.43
-20.16
-21.61
-22.76
-23.48
-23.44
-22.10
-18.81
-13.03
-4.61
6.07
18.07
30.12
40.97
49.74
56.10
60.28
62.84
64.44
65.58
66.47
66.98
66.73
65.16
61.72
56.01
47.96
37.87
26.41
14.52
3.19
-6.67
-14.40
-19.70
-22.71
-24.02
-24.49
-25.05
-26.30
-28.32
-30.63
-32.47
-33.18
-32.51
-30.74
-28.51
-26.50
-25.17
-24.68
-24.97
-25.88
-27.21
-28.76
-30.26
-31.45
-32.13
-32.23
-31.75
-30.72
-29.05
-26.55
-23.08
-18.70
-13.78
-8.93
-4.79
-1.78
0.05
1.02
1.59
2.15
2.91
3.84
4.77
5.53
5.98
6.03
5.55
4.46
2.75
0.59
-1.68
-3.68
-5.06
-5.74
-5.81
-5.51
-5.12
-4.82
-4.74
-4.99
-5.72
-7.04
-9.00
-11.42
-13.92
-16.08
-17.46
-17.80
-17.02
-15.21
-12.55
-9.25
-5.51
-1.49
2.61
6.62
10.43
13.98
17.22
20.03
22.24
23.66
24.10
23.44
21.77
19.48
17.12
15.22
14.03
13.53
13.44
13.44
13.09
12.22
11.00
9.83
9.11
8.99
9.31
9.69
9.61
8.22
4.96
-0.32
-7.24
-15.20
-23.52
-31.47
-38.28
-43.17
-46.04
-46.98
-46.26
-44.24
-41.43
-38.48
-36.05
-34.71
-31.68
-25.48
-16.46
-6.73
1.14
5.25
4.69
-0.36
-8.59
-17.68
-25.37
-29.81
-30.17
-26.69
-20.51
-12.94
-5.01
2.76
10.12
16.37
20.72
22.78
23.05
22.77
23.37
25.80
30.02
35.12
39.92
43.42
45.50
46.82
48.10
49.50
50.47
50.06
47.02
41.62
34.65
27.11
19.76
12.88
6.39
0.24
-5.31
-9.77
-12.65
-13.93
-14.05
-13.68
-13.45
-13.79
-14.81
-16.31
-17.89
-18.99
-19.24
-18.55
-17.14
-15.43
-13.99
-13.26
-13.37
-14.05
-14.76
-14.78
-13.80
-11.97
-9.76
-7.79
-6.47
-5.67
-4.78
-2.88
0.84
6.53
13.69
21.46
28.79
34.57
37.78
37.46
32.64
23.89
13.10
2.51
-5.22
-8.21
-6.35
-1.38
3.89
6.90
6.55
3.26
-1.45
-5.92
-8.95
-10.55
-11.23
-11.46
-11.35
-10.61
-9.10
-6.98
-4.66
-2.64
-1.24
-0.33
0.56
1.94
4.02
6.44
8.41
9.14
8.25
5.95
3.05
0.60
-0.61
-0.04
2.26
5.72
9.56
12.98
15.43
16.73
16.99
16.44
15.28
13.35
10.22
5.40
-1.31
-9.56
-18.33
-26.35
-32.56
-36.51
-38.57
-39.65
-40.61
-41.89
-43.30
-44.36
-44.62
-44.00
-42.77
-41.40
-40.25
-39.40
-38.60
-37.45
-35.52
-32.39
-27.68
-21.06
-12.33
-1.57
10.73
23.61
35.82
46.05
53.29
57.04
57.42
55.04
50.88
45.92
40.99
36.60
32.96
29.95
27.28
24.60
21.57
18.00
13.85
9.21
4.29
-0.75
-5.75
-10.63
-15.33
-19.78
-23.89
-27.62
-30.96
-33.92
-36.56
-38.85
-40.68
-41.92
-42.36
-41.80
-40.02
-36.81
-31.98
-25.38
-17.00
-7.03
4.10
15.66
26.68
36.09
42.92
46.51
46.72
44.08
39.67
34.97
31.47
30.31
31.91
35.89
41.10
45.93
48.75
48.28
43.94
35.96
25.32
13.48
2.02
-7.68
-14.79
-19.15
-21.22
-21.87
-22.05
-22.59
-23.98
-26.33
-29.41
-32.67
-35.38
-36.77
-36.18
-33.28
-28.13
-21.20
-13.21
-4.94
2.89
9.70
14.99
18.37
19.65
18.95
16.75
13.84
11.12
9.37
8.98
9.96
11.97
14.49
16.90
18.62
19.18
18.30
15.97
12.46
8.27
3.96
-0.03
-3.49
-6.46
-9.18
-11.97
-15.12
-18.73
-22.70
-26.61
-29.87
-31.77
-31.78
-29.74
-25.93
-20.98
-15.64
-10.45
-5.59
-0.88
4.02
9.30
14.79
19.85
23.59
25.20
24.26
21.05
16.51
12.01
8.86
7.94
9.43
12.83
17.27
21.76
25.43
27.71
28.25
26.96
24.04
19.95
15.39
11.10
7.61
5.09
3.29
1.68
-0.26
-2.76
-5.68
-8.53
-10.71
-11.66
-11.09
-9.05
-5.83
-1.91
2.17
5.86
8.64
10.13
10.16
8.84
6.56
3.99
1.83
0.64
0.67
1.81
3.67
5.66
7.14
7.55
6.48
3.78
-0.39
-5.57
-11.08
-16.16
-20.14
-22.64
-23.54
-23.02
-21.49
-19.44
-17.41
-15.79
-14.74
-14.05
-13.20
-11.52
-8.48
-3.94
1.76
7.93
13.84
18.95
23.17
26.82
30.46
34.70
39.95
46.23
53.15
59.92
65.46
68.65
68.63
65.00
58.01
