1660328959.00
64.000000
-0.00
-0.00
-0.00
-0.00
-0.00
-0.00
-0.00
-0.00
-0.00
-0.00
0.00
0.01
0.01
-0.00
-0.03
-0.05
-0.05
0.00
0.13
0.36
0.66
1.01
1.37
1.72
2.06
2.40
2.79
3.24
3.80
4.42
5.06
5.66
6.20
6.68
7.15
7.68
8.31
9.14
10.09
11.04
11.88
12.56
13.14
13.76
14.65
15.96
17.91
20.32
22.90
25.38
27.58
29.57
31.68
34.32
37.81
42.54
48.15
54.10
59.83
64.97
69.58
74.14
79.34
85.71
93.76
103.00
112.62
121.73
129.77
136.75
143.30
150.75
157.77
166.64
177.95
191.79
206.97
220.57
228.25
225.36
208.53
176.87
132.76
80.05
23.07
-34.94
-92.44
-149.16
-205.23
-260.37
-313.74
-363.87
-409.83
-450.91
-486.50
-515.74
-537.23
-549.22
-549.96
-538.37
-514.21
-478.67
-433.88
-382.45
-327.02
-269.84
-212.63
-156.66
-102.95
-52.37
-5.90
35.58
71.43
101.35
125.50
144.38
158.69
169.15
176.37
180.75
182.57
182.07
179.51
175.23
169.65
163.18
156.15
148.81
141.30
133.69
126.02
118.33
110.69
103.16
95.80
88.68
81.83
75.25
68.95
62.95
57.25
51.86
46.78
42.03
37.59
33.45
29.61
26.07
22.81
19.83
17.11
14.67
12.48
10.54
8.83
7.35
6.07
4.97
4.05
3.27
2.62
2.09
1.65
1.30
1.01
0.79
0.61
0.47
0.37
0.29
0.23
0.18
0.16
0.14
0.13
0.14
0.15
0.17
0.20
0.23
0.27
0.31
0.35
0.39
0.44
0.49
0.54
0.59
0.64
0.70
0.76
0.83
0.90
0.97
1.06
1.15
1.25
1.37
1.49
1.64
1.79
1.97
2.17
2.39
2.63
2.90
3.20
3.53
3.89
4.29
4.73
5.20
5.72
6.27
6.87
7.51
8.19
8.92
9.69
10.50
11.36
12.25
13.19
14.18
15.23
16.34
17.52
18.75
20.02
21.29
22.51
23.59
24.44
24.94
24.96
24.40
23.16
21.19
18.50
15.14
11.18
6.82
2.23
-2.39
-6.81
-10.85
-14.33
-17.14
-19.22
-20.55
-21.15
-21.10
-20.50
-19.44
-18.02
-16.31
-14.36
-12.22
-9.89
-7.35
-4.64
-1.77
1.26
4.44
7.77
11.20
14.68
18.13
21.55
24.72
27.54
29.96
31.97
33.60
34.93
36.06
37.21
38.66
40.41
42.59
45.40
48.96
53.39
58.66
64.71
71.39
78.72
86.13
93.37
100.32
106.95
113.24
119.12
124.51
129.38
133.90
137.62
140.46
142.50
143.77
143.95
142.25
137.28
126.77
113.50
98.20
81.62
64.61
47.89
31.84
16.42
1.16
-14.46
-30.66
-47.95
-66.09
-84.42
-102.23
-119.09
-135.05
-150.54
-166.23
-182.90
-201.94
-224.25
-249.78
-276.94
-302.39
-321.62
-330.23
-325.57
-307.76
-280.12
-247.60
-214.98
-185.57
-160.62
-139.91
-122.58
-107.98
-95.74
-85.65
-76.99
-68.57
-59.20
-48.37
-36.66
-25.56
-16.86
-11.69
-10.00
-10.42
-10.89
-9.50
-5.35
1.14
8.48
14.71
18.29
18.59
16.13
12.12
7.79
3.62
-0.92
-7.18
-16.33
-28.28
-41.15
-51.40
-55.10
-49.53
-34.61
-13.44
8.83
26.74
36.73
38.42
34.59
29.87
29.58
38.51
60.06
95.19
141.15
190.45
231.39
251.10
240.47
198.81
135.40
66.69
9.99
-23.22
-31.23
-21.41
-5.73
4.60
3.06
-11.36
-35.65
-65.15
-95.48
-123.21
-145.87
-161.76
-169.80
-169.94
-163.46
-152.86
-141.52
-132.94
-129.55
-131.50
-136.26
-139.17
-134.98
-119.59
-91.34
-51.37
-2.99
49.44
101.47
149.10
189.09
219.12
238.08
246.15
244.74
235.96
222.06
204.89
185.76
165.59
145.10
124.85
105.18
86.04
67.17
48.37
29.84
12.23
-3.55
-16.64
-26.47
-32.96
-36.42
-37.54
-37.23
-36.48
-36.10
-36.56
-37.82
-39.43
-40.79
-41.46
-41.37
-40.83
-40.32
-40.20
-40.56
-41.20
-41.64
-41.45
-40.26
-37.95
-34.56
-30.26
-25.20
-19.59
-13.65
-7.62
-1.83
3.37
7.75
11.20
13.80
15.68
16.99
17.78
18.01
17.65
16.79
15.69
14.69
14.09
14.00
14.22
14.40
14.19
13.35
11.88
9.93
7.69
5.29
2.80
0.26
-2.33
-4.92
-7.43
-9.75
-11.77
-13.36
-14.41
-14.74
-14.22
-12.77
-10.40
-7.30
-3.73
-0.02
3.57
6.86
9.78
12.29
14.35
15.88
16.80
17.13
16.95
16.43
15.74
15.04
14.36
13.70
13.01
12.22
11.26
10.10
8.71
7.14
5.45
3.79
2.35
1.31
0.78
0.69
0.79
0.72
0.13
-1.14
-2.95
-4.90
-6.51
-7.37
-7.35
-6.57
-5.26
-3.64
-1.82
0.16
2.31
4.54
6.69
8.54
9.94
10.87
11.45
11.90
12.39
12.95
13.49
13.86
14.02
14.06
14.16
14.50
15.08
15.71
16.06
15.81
14.82
13.20
11.23
9.21
7.37
5.74
4.21
2.58
0.67
-1.58
-4.05
-6.53
-8.67
-10.18
-10.84
-10.58
-9.46
-7.67
-5.48
-3.19
-1.04
0.78
2.24
3.38
4.33
5.24
6.23
7.31
8.37
9.25
9.76
9.86
9.60
9.15
8.67
8.29
8.00
7.76
7.52
7.27
7.02
6.74
6.41
5.95
5.29
4.40
3.29
2.03
0.74
-0.47
-1.47
-2.23
-2.81
-3.37
-4.17
-5.37
-6.92
-8.53
-9.76
-10.21
-9.69
-8.35
-6.52
-4.60
-2.81
-1.17
0.50
2.37
4.47
6.64
8.64
10.29
11.55
12.56
13.47
14.33
15.06
15.48
15.45
14.97
14.23
13.49
12.98
12.74
12.62
12.37
11.73
10.64
9.20
7.68
6.37
5.47
5.00
4.81
4.66
4.33
3.70
2.77
1.62
0.32
-1.06
-2.49
-3.90
-5.13
-5.97
-6.20
-5.72
-4.58
-3.03
-1.34
0.24
1.65
2.98
4.38
5.92
7.56
9.12
10.38
11.17
11.43
11.24
10.75
10.15
9.60
9.14
8.73
8.28
7.73
7.10
6.52
6.10
5.91
5.87
5.79
5.49
4.87
3.99
3.07
2.36
1.97
1.91
1.97
1.91
1.51
0.69
-0.40
-1.49
-2.22
-2.23
-1.26
0.83
4.02
8.16
12.91
17.83
22.49
26.60
30.14
33.24
36.03
38.32
39.55
38.91
35.76
30.10
22.88
15.83
11.02
10.04
13.38
20.23
28.60
36.05
40.51
40.85
37.22
30.79
23.24
16.17
10.72
7.48
6.40
6.84
7.28
5.21
-2.46
-18.72
-45.31
-81.74
-125.05
-170.65
-213.92
-251.68
-282.68
-306.88
-323.85
-331.77
-327.54
-308.44
-274.00
-227.01
-172.67
-116.42
-61.48
-7.65
47.37
105.22
163.97
217.37
256.75
274.60
267.71
237.97
191.27
135.33
77.75
25.29
-16.18
-41.55
-46.77
-29.41
10.70
70.79
144.88
224.10
297.62
354.60
386.73
390.44
367.88
325.83
272.94
216.89
162.79
113.43
70.60
36.09
11.56
-2.47
-7.49
-7.06
-5.67
-7.17
-13.40
-23.65
-34.82
-42.66
-43.27
-34.63
-17.46
4.89
27.58
45.97
57.00
59.97
56.17
48.12
38.52
29.51
22.46
17.96
16.01
16.17
17.67
19.55
20.87
20.93
19.48
16.84
13.68
10.58
7.71
4.73
1.13
-3.16
-7.44
-10.36
-10.53
-7.34
-1.27
6.35
14.27
22.03
30.18
39.82
51.65
65.34
79.31
91.25
98.79
100.16
94.37
81.28
61.51
36.33
7.58
-22.63
-52.10
-78.95
-101.77
-119.66
-132.11
-138.94
-140.32
-136.84
-129.54
-119.80
-109.15
-98.98
-90.36
-83.91
-79.82
-77.90
-77.55
-77.88
-77.89
-76.74
-74.12
-70.38
-66.44
-63.24
-61.31
-60.41
-59.67
-57.95
-54.45
-48.89
-41.46
-32.51
-22.42
-11.54
-0.54
9.35
16.52
19.41
17.18
10.14
-0.36
-12.57
-25.10
-37.45
-50.01
-63.45
-78.09
-93.48
-108.46
-121.62
-131.92
-139.13
-143.98
-147.81
-152.05
-157.46
-163.71
-169.20
-171.51
-168.14
-157.43
-139.17
-114.69
-86.41
-57.07
-28.91
-3.37
18.91
37.62
52.43
62.86
68.46
69.29
66.17
60.67
54.64
49.55
45.95
43.33
40.56
36.50
30.76
23.95
17.60
13.53
13.26
17.48
25.94
37.43
49.93
60.68
66.42
64.11
51.91
30.31
2.52
-26.16
-49.92
-64.57
-68.77
-64.24
-54.61
-43.73
-34.30
-27.39
-22.91
-20.40
-19.56
-20.21
-21.99
-24.15
-25.72
-25.94
-24.80
-23.11
-22.10
-22.84
-25.53
-29.34
-32.86
-34.93
-35.41
-35.38
-36.57
-40.44
-47.16
-55.45
-63.06
-67.81
-68.50
-65.41
-60.14
-55.01
-52.35
-53.67
-59.21
-67.64
-76.38
-82.35
-83.02
-77.36
-66.13
-51.43
-35.60
-20.28
-5.91
7.81
21.17
33.79
44.53
52.15
56.14
57.19
56.99
57.50
60.00
64.51
69.82
74.12
75.81
74.22
69.70
63.39
56.65
50.59
45.83
42.49
40.40
39.33
39.12
39.75
41.30
43.89
47.55
52.26
57.92
64.30
70.90
76.74
80.33
80.00
74.46
63.53
48.49
31.91
16.92
6.31
1.75
3.52
10.85
22.33
36.54
52.30
68.75
85.14
100.67
114.35
125.02
131.66
133.64
131.12
124.85
116.00
105.61
94.28
82.17
69.25
55.64
41.64
27.64
13.74
-0.38
-15.45
-32.21
-51.04
-71.61
-92.95
-113.57
-131.75
-146.01
-155.31
-159.33
-158.52
-153.96
-146.96
-138.64
-129.59
-119.89
-109.34
-97.83
-85.68
-73.60
-62.54
-53.40
-46.89
-43.44
-42.90
-44.24
-45.02
-41.51
-29.43
-5.62
30.40
75.87
125.39
172.83
213.07
243.19
262.02
269.35
265.14
249.45
222.82
186.63
143.20
95.56
47.37
2.87
-33.38
-57.50
-67.69
-65.31
-54.58
-40.87
-28.61
-19.77
-14.20
-11.15
-10.70
-14.17
-22.96
-37.24
-55.36
-74.81
-93.71
-111.53
-128.50
-144.06
-156.12
-161.57
-158.03
-145.58
-127.40
-108.74
-94.72
-88.07
-88.19
-91.83
-95.12
-95.59
-93.30
-90.12
-88.15
-88.00
-88.28
-86.55
-81.03
-72.00
-61.62
-52.64
-46.44
-42.00
-36.57
-27.59
-14.66
-0.01
12.64
20.07
21.12
17.12
11.13
6.36
4.78
6.71
10.96
15.74
19.47
21.49
22.10
22.30
23.08
24.93
27.59
30.35
32.43
33.42
33.41
32.68
31.53
29.85
27.30
23.46
18.18
11.72
4.63
-2.42
-8.87
-14.46
-19.20
-23.35
-27.26
-31.22
-35.38
-39.68
-43.89
-47.75
-51.04
-53.75
-56.05
-58.24
-60.61
-63.28
-66.16
-68.89
-71.00
-71.97
-71.44
-69.22
-65.43
-60.34
-54.29
-47.69
-40.86
-34.20
-28.05
-22.72
-18.40
-15.05
-12.48
-10.32
-8.18
-5.75
-2.91
0.34
3.79
7.24
10.49
13.42
16.01
18.25
20.16
21.70
22.80
23.40
23.43
22.85
21.65
19.90
17.75
15.42
13.22
11.45
10.38
10.21
11.01
12.76
15.34
18.54
22.10
25.77
29.33
32.67
35.73
38.49
40.91
42.81
44.02
44.38
43.93
42.84
41.44
40.02
38.71
37.48
36.16
34.56
32.62
30.42
28.15
26.02
24.08
22.27
20.38
18.16
15.40
11.99
8.02
3.73
-0.52
-4.23
-6.89
-8.11
-7.73
-5.87
-2.98
0.38
3.66
6.55
8.94
10.91
12.53
13.82
14.70
15.08
14.90
14.20
13.10
11.77
10.41
9.22
8.33
7.84
7.70
7.77
7.83
7.60
6.86
5.48
3.47
1.01
-1.61
-4.06
-6.10
-7.67
-8.96
-10.23
-11.68
-13.25
-14.65
-15.48
-15.38
-14.24
-12.20
-9.55
-6.55
-3.40
-0.18
3.08
6.29
9.34
12.15
14.73
17.18
19.62
22.10
24.53
26.75
28.59
30.00
31.06
31.92
32.69
33.41
33.97
34.23
34.06
33.43
32.33
30.83
28.99
26.81
24.31
21.50
18.40
15.03
11.41
7.56
3.64
0.04
-2.71
-4.04
-3.57
-1.27
2.52
7.21
12.20
17.05
21.49
25.34
28.45
30.71
32.05
32.55
32.44
32.02
31.54
31.11
30.71
30.34
30.01
29.85
30.01
30.61
31.69
33.11
34.62
35.91
36.73
37.00
36.83
36.60
36.75
37.71
39.61
42.27
45.18
47.71
49.41
50.22
50.61
51.38
53.44
57.44
63.56
71.44
80.39
89.72
99.03
108.31
117.76
127.50
137.29
146.49
154.05
158.67
159.00
153.82
142.35
124.71
102.37
78.26
55.98
38.63
27.31
20.27
13.30
1.43
-19.12
-49.52
-87.97
-130.72
-173.75
-214.27
-251.24
-284.59
-313.87
-336.85
-349.49
-347.02
-325.92
-285.64
-228.99
-161.25
-88.35
-15.30
54.30
117.78
172.55
215.79
245.19
259.88
261.05
251.50
234.16
210.55
180.14
141.06
92.10
35.13
-23.98
-76.40
-113.52
-130.43
-128.11
-112.80
-92.98
-75.48
-62.96
-54.07
-45.70
-35.68
-24.13
-12.72
-2.74
6.44
17.18
32.01
51.60
73.88
94.74
109.74
116.02
113.24
103.36
89.45
74.31
59.54
45.42
31.33
16.59
1.22
-13.88
-27.18
-37.14
-42.94
-44.78
-43.89
-42.03
-40.91
-41.64
-44.52
-49.20
-54.96
-60.98
-66.53
-71.02
-74.12
-75.81
-76.49
-76.93
-77.96
-80.12
-83.34
-86.90
-89.68
-90.52
-88.60
-83.40
-74.66
-62.20
-45.86
-25.68
-2.09
24.04
51.50
79.10
105.98
131.70
156.18
179.25
200.27
217.81
229.66
233.19
226.00
206.60
174.91
132.37
81.67
26.25
-30.32
-84.88
-135.13
-179.70
-218.03
-250.01
-275.51
-294.15
-305.31
-308.57
-304.07
-292.91
-276.95
-258.38
-238.94
-219.53
-200.26
-180.78
-160.88
-140.68
-120.44
-100.24
-79.65
-57.78
-33.68
-6.89
22.14
52.06
80.88
106.55
127.49
142.88
152.82
158.06
159.73
158.93
156.45
152.56
147.22
140.46
132.81
125.47
120.03
117.89
119.73
125.12
132.67
140.26
145.28
144.80
135.80
115.74
83.53
40.50
-9.18
-59.29
-103.20
-136.06
-156.03
-164.34
-163.87
-157.42
-146.44
-130.94
-110.45
-85.17
-56.71
-27.88
-1.83
19.13
34.20
44.18
50.79
55.83
60.36
64.25
66.37
65.21
59.79
50.12
37.32
23.00
8.43
-5.96
-20.55
-35.89
-52.06
-68.42
-83.78
-97.09
-107.75
-115.70
-121.13
-124.07
-124.38
-121.93
-116.91
-110.13
-102.94
-96.88
-93.28
-92.78
-95.15
-99.19
-103.11
-104.87
-102.71
-95.49
-82.85
-65.16
-43.43
-19.22
5.67
29.37
50.44
68.14
82.60
94.66
105.35
115.39
124.90
133.39
140.10
144.27
145.44
143.54
138.98
132.49
125.02
117.55
110.87
105.42
101.36
98.61
96.95
96.09
95.64
95.15
94.10
92.10
88.88
84.45
79.02
72.96
66.75
60.82
55.50
50.95
47.01
43.26
39.16
34.27
28.38
21.52
13.77
5.20
-4.16
-14.04
-23.73
-32.11
-38.18
-41.65
-43.41
-45.37
-49.72
-57.99
-70.29
-85.37
-101.17
-115.60
-127.09
-134.49
-136.80
-132.91
-121.73
-102.71
-76.51
-45.17
-11.93
19.57
46.05
65.27
76.26
79.25
75.41
66.55
54.79
42.36
31.33
23.38
19.59
20.41
25.62
34.51
46.03
58.97
72.05
84.13
94.28
101.86
106.54
108.26
107.04
102.94
96.01
86.26
73.79
58.79
41.50
22.24
1.41
-20.48
-42.77
-64.68
-85.47
-104.75
-122.67
-140.07
-158.20
-178.31
-201.07
-226.10
-251.91
-276.19
-296.30
-309.91
-315.37
-311.86
-299.27
-277.95
-248.59
-212.13
-169.99
-124.10
-76.87
-30.82
11.81
49.56
81.89
109.14
132.07
151.49
167.85
181.10
190.86
196.78
198.87
197.69
194.29
189.84
185.13
180.25
174.53
166.94
156.71
143.81
129.13
114.22
100.65
89.45
80.87
74.38
69.14
64.49
60.22
56.55
53.96
52.83
53.38
55.76
60.13
66.54
74.50
82.31
86.73
83.34
67.90
38.12
-4.83
-56.18
-108.88
-156.06
-193.18
-219.00
-234.90
-243.14
-245.19
-241.10
-230.08
-211.85
-187.70
-160.73
-134.89
-113.58
-98.36
-88.56
-81.71
-74.86
-65.78
-53.91
-40.29
-26.97
-16.02
-8.71
-5.21
-4.68
-5.67
-6.51
-5.63
-1.75
5.72
16.18
27.57
36.59
39.69
34.44
20.79
1.28
-19.78
-37.94
-50.24
-56.05
-56.80
-54.89
-52.37
-50.27
-48.48
-46.20
-42.47
-36.39
-27.13
-14.03
3.17
23.92
46.67
69.02
88.26
102.06
109.02
109.05
103.55
95.43
89.00
89.23
100.41
124.39
159.14
198.44
233.35
254.92
257.14
238.91
204.17
160.31
115.67
77.08
48.58
31.27
24.02
24.54
30.26
38.76
47.85
55.72
60.92
62.69
61.16
57.46
53.45
51.23
52.50
58.03
67.35
78.86
90.33
99.54
104.92
106.06
103.66
99.09
93.69
88.28
82.99
77.58
71.92
66.23
60.70
54.87
47.07
34.66
15.12
-12.49
-46.50
-82.82
-116.29
-142.55
-159.47
-167.41
-168.30
-164.16
-156.10
-144.15
-127.91
-107.47
-83.88
-58.90
-34.35
-11.54
8.73
25.71
38.26
44.74
43.64
34.48
18.55
-1.14
-20.67
-36.40
-45.96
-48.57
-44.72
-35.61
-22.61
-7.22
8.74
23.03
33.23
37.17
33.63
22.66
5.42
-16.23
-40.37
-65.58
-90.92
-115.83
-139.81
-162.25
-182.39
-199.53
-213.27
-223.63
-230.96
-235.84
-238.68
-239.55
-238.10
-233.78
-226.02
-214.58
-199.60
-181.63
-161.40
-139.73
-117.29
-94.70
-72.47
-51.11
-31.12
-12.94
3.16
17.05
28.81
38.76
47.44
55.53
63.77
72.66
82.28
92.25
101.81
110.05
116.16
119.66
120.50
119.06
116.09
112.53
109.37
107.39
107.00
108.22
110.70
113.90
117.34
120.71
123.93
127.08
130.26
133.52
136.68
139.43
141.32
141.91
140.93
138.36
134.57
130.27
126.47
124.35
124.97
129.01
136.60
147.17
159.68
173.01
186.31
199.27
212.10
225.12
238.39
251.40
263.01
271.65
275.64
273.51
264.20
247.21
222.60
191.11
154.00
112.86
69.31
24.55
-20.82
-66.73
-113.21
-159.93
-205.87
-249.37
-288.60
-322.05
-348.92
-369.03
-382.53
-389.42
-389.55
-382.79
-369.44
-350.52
-327.61
-302.41
-276.17
-249.45
-222.27
-194.50
-166.33
-138.54
-112.23
-88.53
-68.11
-50.99
-36.60
-24.12
-12.83
-2.43
6.92
14.71
20.31
23.24
23.26
20.50
15.39
8.69
1.29
-5.88
-12.06
-16.76
-19.82
-21.24
-21.01
-18.82
-14.17
-6.52
4.32
17.84
32.87
47.69
60.63
70.42
76.58
79.39
79.63
78.26
76.09
73.58
70.73
67.25
62.61
56.25
47.70
36.66
23.02
6.84
-11.64
-31.99
-53.63
-75.76
-97.48
-117.79
-135.82
-150.85
-162.44
-170.53
-175.42
-177.63
-177.77
-176.32
-173.46
-169.14
-163.30
-156.08
-147.98
-139.80
-132.32
-126.08
-121.10
-116.91
-112.67
-107.43
-100.18
-90.07
-76.42
-58.88
-37.47
-12.67
14.66
43.62
73.61
104.63
137.33
172.45
210.04
248.94
286.65
319.95
345.77
362.02
367.91
363.68
350.05
327.75
297.58
260.72
219.12
175.45
132.68
93.28
58.69
29.20
4.38
-16.33
-33.23
-46.29
-55.36
-60.50
-62.19
-61.25
-58.65
-55.16
-51.25
-47.11
-42.78
-38.21
-33.35
-28.15
-22.51
-16.35
-9.66
-2.59
4.53
11.20
16.92
21.24
23.86
24.73
24.02
22.10
19.45
16.54
13.74
11.30
9.31
7.74
6.50
5.49
4.63
3.90
3.33
2.91
2.64
2.41
2.02
1.19
-0.49
-3.35
-7.53
-12.78
-18.53
-23.97
-28.40
-31.47
-33.30
-34.39
-35.31
-36.41
-37.64
-38.56
-38.64
-37.54
-35.33
-32.47
-29.62
-27.31
-25.74
-24.66
-23.59
-22.08
-19.94
-17.33
-14.68
-12.46
-11.01
-10.52
-11.04
-12.44
-14.36
-16.13
-16.82
-15.66
-12.50
-8.19
-4.56
-3.89
-7.95
-17.21
-30.40
-44.93
-57.76
-66.38
-69.51
-67.18
-60.36
-50.44
-38.74
-26.38
-14.29
-3.33
5.77
12.54
17.00
19.68
21.40
22.90
24.38
25.38
24.96
22.22
16.83
9.25
0.70
-7.26
-13.08
-15.59
-14.14
-8.73
0.05
10.94
22.35
32.62
40.53
45.69
48.63
50.67
53.43
58.30
66.00
76.32
88.15
99.76
109.27
115.17
116.71
114.03
107.86
99.11
88.25
75.02
58.45
37.42
11.67
-17.22
-45.40
-67.36
-77.61
-72.61
-52.34
-20.58
16.02
49.75
73.72
83.12
75.85
52.70
17.10
-25.26
-67.40
-102.47
-125.43
-134.26
-130.26
-117.09
-99.21
-80.53
-63.69
-50.07
-40.19
-33.92
-30.54
-28.61
-26.09
-20.82
-11.28
2.95
21.14
41.90
63.83
85.87
107.36
127.73
146.22
161.84
173.58
180.71
183.03
180.91
175.27
167.41
158.90
151.21
145.45
142.09
140.72
140.16
138.84
135.22
128.21
117.35
102.70
84.68
63.75
40.38
14.95
-12.10
-40.06
-67.87
-94.06
-116.92
-134.83
-146.65
-151.96
-151.15
-145.26
-135.77
-124.51
-113.57
-105.14
-101.09
-102.41
-108.56
-117.30
-125.24
-129.02
-126.63
-118.39
-106.77
-95.50
-88.01
-86.28
-90.36
-98.70
-109.09
-119.45
-128.36
-135.18
-139.77
-142.24
-142.86
-142.09
-140.68
-139.69
-140.22
-143.03
-148.16
-154.69
-160.79
-164.13
-162.51
-154.45
-139.68
-119.16
-94.70
-68.34
-41.72
-15.78
9.12
32.70
54.23
72.35
85.31
91.52
90.21
81.72
67.37
49.08
28.81
8.31
-10.96
-27.74
-40.87
-49.42
-52.83
-51.19
-45.26
-36.34
-25.96
-15.45
-5.66
3.23
11.72
20.60
30.64
42.16
54.79
67.53
79.00
87.92
93.42
95.34
94.19
90.82
86.24
81.24
76.36
71.86
67.87
64.39
61.32
58.41
55.18
51.02
45.36
37.84
28.53
17.96
7.00
-3.35
-12.21
-18.93
-23.13
-24.69
-23.68
-20.40
-15.36
-9.26
-2.85
3.15
8.27
12.32
15.37
17.61
19.29
20.54
21.38
21.70
21.32
20.00
17.58
14.03
9.60
4.88
0.71
-1.96
-2.35
-0.17
4.22
9.84
15.31
19.20
20.43
18.49
13.51
6.24
-2.18
-10.33
-16.92
-21.08
-22.54
-21.73
-19.44
-16.48
-13.26
-9.67
-5.34
-0.03
5.96
11.64
15.69
16.90
14.72
9.44
2.09
-5.95
-13.40
-19.37
-23.47
-25.71
-26.30
-25.59
-23.91
-21.68
-19.32
-17.16
-15.35
-13.75
-12.10
-10.17
-7.91
-5.56
-3.47
-1.92
-1.02
-0.70
-0.82
-1.38
-2.56
-4.61
-7.74
-11.96
-17.01
-22.39
-27.53
-31.86
-34.95
-36.51
-36.39
-34.56
-31.16
-26.47
-20.91
-14.98
-9.04
-3.28
2.39
8.12
14.01
19.89
25.37
30.04
33.71
36.61
39.24
42.19
45.81
50.15
55.07
60.45
66.24
72.45
78.99
85.70
92.49
99.34
106.14
112.33
116.63
117.15
112.12
100.88
84.56
66.03
48.92
36.29
29.54
28.20
30.55
34.66
39.18
43.56
47.72
51.58
54.83
56.99
57.66
56.80
54.80
52.38
50.31
49.18
49.35
50.90
53.76
57.86
63.20
69.82
77.73
86.84
96.91
107.64
118.78
130.28
142.34
155.38
169.76
185.43
201.62
216.73
228.58
234.86
233.88
225.12
209.44
188.72
164.96
139.36
111.77
80.99
45.78
6.24
-35.45
-75.39
-109.35
-134.57
-150.93
-160.75
-167.53
-174.14
-181.72
-189.63
-196.51
-201.26
-203.29
-202.02
-196.47
-185.61
-169.60
-150.97
-134.50
-125.45
-126.92
-137.98
-153.90
-168.38
-176.67
-177.44
-172.61
-165.49
-158.62
-152.79
-147.53
-142.46
-138.02
-135.28
-134.90
-136.15
-136.94
-134.55
-126.94
-113.70
-96.23
-77.05
-58.72
-42.76
-29.27
-17.05
-4.54
9.25
24.07
38.34
50.01
57.50
60.58
60.56
59.68
60.08
62.82
67.62
73.13
77.62
79.68
78.35
73.30
65.24
56.70
52.23
57.27
75.81
107.61
146.78
183.06
205.44
206.39
184.57
144.67
94.64
42.14
-7.71
-52.63
-91.80
-124.34
-148.83
-163.94
-169.54
-167.32
-160.18
-151.09
-142.02
-133.26
-123.68
-111.78
-96.87
-79.72
-62.48
-47.85
-37.87
-33.10
-32.49
-34.13
-36.15
-37.46
-37.88
-37.86
-37.91
-38.33
-39.11
-40.25
-41.95
-44.81
-49.70
-57.58
-69.14
-84.53
-103.28
-124.31
-146.24
-167.72
-188.05
-207.40
-226.90
-248.12
-272.28
-299.33
-327.51
-353.48
-373.17
-383.09
-381.40
-368.39
-346.08
-317.26
-284.40
-249.10
-212.16
-174.16
-135.95
-98.86
-64.18
-32.62
-3.71
23.98
52.34
82.86
116.18
151.88
188.77
225.26
259.61
290.40
316.76
338.81
357.71
375.36
393.47
412.56
431.43
447.44
457.82
461.08
458.10
452.07
447.31
447.68
455.11
468.94
486.29
503.04
515.01
519.05
513.63
498.81
475.89
446.82
413.63
378.21
342.33
307.72
275.98
248.29
224.88
204.82
186.18
166.71
144.74
119.94
93.43
67.33
43.74
23.78
7.15
-7.82
-23.52
-42.15
-65.01
-92.00
-121.51
-150.60
-175.53
-192.65
-199.63
-196.55
-186.24
-173.74
-164.69
-163.58
-172.29
-189.72
-212.46
-236.15
-257.02
-272.86
-283.20
-288.87
-291.18
-291.27
-289.76
-286.75
-282.15
-275.95
-268.35
-259.67
-250.06
-239.30
-226.93
-212.81
-197.72
-183.65
-173.37
-169.47
-173.16
-183.50
-197.38
-210.53
-218.91
-220.17
-214.17
-202.71
-188.35
-173.33
-158.75
-144.61
-130.31
-115.43
-100.13
-85.18
-71.64
-60.32
-51.50
-44.85
-39.70
-35.31
-31.09
-26.60
-21.52
-15.65
-8.95
-1.64
5.80
12.69
18.29
22.08
23.78
23.36
20.94
16.71
10.92
3.78
-4.48
-13.68
-23.58
-33.84
-43.93
-53.02
-60.19
-64.61
-65.84
-64.05
-60.07
-55.15
-50.64
-47.54
-46.30
-46.69
-47.92
-48.86
-48.32
-45.40
-39.77
-31.84
-22.79
-14.04
-6.42
0.69
9.57
23.52
45.36
76.12
114.24
155.82
195.68
228.58
250.16
257.44
249.16
225.94
190.46
147.04
100.69
55.78
14.91
-21.36
-53.82
-83.27
-109.75
-132.49
-150.64
-163.81
-172.17
-175.83
-174.42
-166.93
-152.39
-130.87
-104.07
-75.07
-47.17
-22.72
-2.28
15.16
31.31
47.40
63.58
78.93
92.05
101.65
107.03
108.32
106.41
102.67
98.58
95.26
93.23
92.20
91.22
89.16
85.31
79.80
73.83
69.18
67.71
70.56
77.85
88.58
101.06
113.29
123.53
130.66
134.22
134.43
131.87
127.15
120.63
112.33
101.92
89.06
73.58
55.65
35.81
14.85
-6.30
-26.64
-45.09
-60.44
-71.41
-76.93
-76.40
-69.97
-58.56
-43.63
-26.77
-9.19
8.46
26.12
43.96
61.93
79.44
95.33
108.09
116.37
119.45
117.51
111.74
104.00
96.47
91.06
88.90
90.06
93.56
97.73
100.72
101.01
97.70
90.51
79.67
65.75
49.57
32.27
15.07
-0.76
-14.29
-25.03
-33.04
-38.76
-42.76
-45.51
-47.18
-47.58
-46.20
-42.44
-35.96
-27.00
-16.55
-6.29
1.94
6.70
7.50
4.90
0.16
-5.26
-10.27
-14.31
-17.36
-19.64
-21.45
-22.99
-24.35
-25.57
-26.59
-27.35
-27.78
-27.92
-27.84
-27.61
-27.23
-26.58
-25.48
-23.80
-21.56
-19.00
-16.51
-14.40
-12.82
-11.70
-10.82
-9.96
-9.09
-8.40
-8.15
-8.56
-9.53
-10.65
-11.23
-10.65
-8.64
-5.46
-1.78
1.61
4.19
5.91
7.10
8.22
9.59
11.11
12.35
12.61
11.14
7.39
1.08
-7.70
-18.59
-31.04
-44.46
-58.40
-72.67
-87.32
-102.55
-118.42
-134.64
-150.46
-164.68
-175.83
-182.42
-183.36
-178.33
-168.16
-154.72
-140.42
-127.44
-116.87
-108.41
-100.68
-92.09
-81.86
-70.40
-59.15
-49.71
-42.92
-38.35
-34.56
-29.53
-21.27
-8.08
10.95
35.35
62.80
89.08
109.16
118.87
116.60
103.98
85.16
65.02
47.20
33.25
22.91
15.22
9.56
6.00
4.69
5.28
6.53
6.72
4.43
-0.79
-8.40
-17.10
-25.38
-32.21
-37.04
-39.92
-41.08
-40.81
-39.22
-36.29
-31.99
-26.38
-19.70
-12.40
-5.01
1.89
7.77
12.29
15.38
17.26
18.53
19.92
22.09
25.41
29.77
34.64
39.31
43.17
45.92
47.59
48.33
48.29
47.53
46.04
43.89
41.19
37.99
34.12
29.18
22.72
14.52
4.83
-5.65
-16.07
-25.72
-34.26
-41.66
-48.00
-53.24
-57.20
-59.65
-60.35
-59.19
-56.16
-51.33
-44.85
-37.14
-28.84
-20.85
-14.04
-8.99
-5.80
-4.14
-3.36
-2.93
-2.62
-2.58
-3.20
-4.88
-7.70
-11.41
-15.45
-19.28
-22.61
-25.55
-28.59
-32.40
-37.63
-44.81
-54.28
-66.13
-80.05
-95.25
-110.36
-123.68
-133.69
-139.48
-141.01
-138.86
-133.68
-125.62
-114.15
-98.38
-77.78
-52.73
-24.71
4.09
31.50
55.94
76.65
93.51
106.60
115.92
121.38
123.06
121.54
118.02
114.10
111.27
110.37
111.28
113.06
114.64
115.33
115.29
115.35
116.57
119.73
124.93
131.49
137.81
141.45
139.53
129.51
110.28
83.05
51.47
20.68
-4.44
-20.88
-28.33
-28.65
-24.52
-17.99
-9.80
0.36
13.02
28.01
44.30
60.27
74.38
85.73
94.28
100.56
105.21
108.46
110.01
109.17
105.50
99.12
90.84
81.74
72.54
63.09
52.33
38.81
21.42
-0.01
-24.62
-51.03
-78.16
-105.81
-134.64
-165.48
-198.32
-231.60
-262.29
-286.76
-302.03
-306.75
-301.47
-288.00
-268.42
-244.16
-215.81
-183.53
-147.79
-109.86
-71.71
-35.39
-2.41
26.67
52.13
74.57
94.48
112.00
127.10
139.81
150.48
159.66
167.86
175.23
181.61
186.74
190.63
193.82
197.37
202.55
210.50
221.62
235.15
248.70
258.35
259.27
247.20
220.10
179.34
129.67
77.83
30.13
-9.63
-41.14
-66.76
-89.60
-111.51
-132.04
-148.87
-159.21
-161.31
-155.12
-141.98
-123.69
-101.57
-76.23
-47.98
-17.57
13.28
41.97
65.64
82.22
90.93
92.40
88.08
79.62
68.24
54.58
38.71
20.33
-1.00
-25.96
-55.20
-89.14
-127.50
-168.82
-210.46
-248.96
-281.00
-304.19
-317.57
-321.47
-316.84
-304.56
-285.04
-258.35
-224.69
-184.93
-140.76
-94.51
-48.57
-4.92
35.21
71.35
103.70
132.82
159.41
183.85
205.94
224.78
239.08
247.61
249.83
246.19
238.08
227.38
215.88
204.99
195.68
188.64
184.29
182.37
181.45
178.55
169.70
151.19
121.33
81.55
36.43
-7.67
-44.76
-71.16
-86.37
-92.52
-92.82
-89.97
-85.13
-78.05
-67.85
-54.02
-36.88
-17.57
2.52
22.23
40.88
58.14
73.63
86.67
96.33
101.77
102.72
99.57
93.08
83.82
71.73
56.08
35.95
11.01
-17.99
-49.32
-80.95
-111.41
-140.39
-168.71
-197.77
-228.62
-261.21
-294.09
-324.71
-350.08
-367.42
-374.72
-370.89
-355.75
-329.96
-294.82
-252.21
-204.35
-153.57
-101.86
-50.71
-1.03
46.55
91.29
132.11
167.60
196.57
218.56
234.16
244.83
252.42
258.50
263.93
268.81
272.61
274.44
273.41
268.77
260.11
247.44
231.15
212.06
191.30
170.05
149.09
128.28
106.27
80.91
50.17
13.46
-27.43
-68.38
-104.01
-129.48
-142.11
-142.17
-132.30
-116.19
-97.09
-76.98
-56.69
-36.50
-16.88
1.30
17.01
29.73
39.85
48.62
57.61
67.81
79.05
90.03
98.85
103.92
104.60
101.10
93.91
83.11
67.89
46.88
19.06
-15.21
-53.73
-92.79
-128.24
-156.79
-177.03
-189.66
-197.21
-203.12
-210.88
-223.17
-241.07
-263.70
-288.11
-309.80
-323.76
-325.82
-313.68
-287.37
-248.88
-201.26
-147.90
-92.01
-36.69
15.07
60.66
98.38
128.25
151.48
170.60
188.06
205.02
220.76
233.06
239.30
237.95
229.74
216.99
203.16
191.04
181.70
174.20
166.31
155.63
140.40
120.17
94.18
62.59
26.07
-13.90
-54.96
-94.47
-130.62
-163.26
-192.41
-220.90
-248.52
-272.36
-287.40
-288.69
-273.87
-244.53
-205.57
-159.91
-113.75
-66.73
-15.82
41.95
106.36
172.23
230.47
271.00
290.42
281.17
245.15
188.32
119.40
48.90
-12.70
-56.67
-77.85
-70.37
-44.10
-5.64
38.55
84.76
133.66
188.64
253.24
292.96
346.74
400.42
444.41
470.22
473.40
455.40
421.71
379.18
332.79
290.04
244.66
195.06
139.70
78.27
12.78
-53.97
-118.68
-177.79
-223.12
-255.17
-271.52
-272.84
-270.38
-273.69
-287.47
-308.91
-331.37
-347.00
-356.33
-358.06
-353.73
-343.11
-323.87
-294.47
-255.32
-208.64
-158.19
-108.74
-61.14
-13.78
36.83
94.66
160.95
232.73
302.74
361.87
401.15
415.64
405.30
375.35
334.94
293.80
259.23
234.06
216.43
201.73
184.77
161.86
132.26
97.97
62.16
27.63
-3.96
-31.98
-55.67
-73.97
-85.92
-91.41
-91.75
-89.53
-87.49
-87.08
-87.85
-87.60
-83.80
-75.17
-62.44
-48.12
-35.01
-24.84
-17.44
-11.23
-4.49
3.54
12.31
20.69
27.85
33.81
38.74
41.94
41.18
33.64
17.87
-4.32
-27.31
-43.60
-46.95
-35.36
-11.96
16.59
43.14
62.80
73.84
77.19
74.62
67.58
56.85
43.19
27.90
12.88
-0.14
-10.51
-19.16
-28.19
-39.89
-55.71
-75.53
-97.89
-120.87
-142.90
-163.66
-184.08
-205.92
-231.09
-261.32
-297.66
-339.84
-385.63
-430.52
-468.42
-493.27
-501.18
-491.68
-467.50
-432.99
-391.86
-345.72
-294.08
-236.04
-172.36
-106.83
-45.78
4.01
37.97
55.43
59.62
55.95
49.55
43.51
38.20
32.37
24.79
15.65
6.68
0.03
-3.11
-3.40
-3.08
-4.78
-10.04
-18.48
-27.83
-34.72
-35.95
-29.69
-15.87
4.10
28.15
54.56
82.22
110.09
136.22
157.12
168.02
164.30
142.98
103.78
49.09
-16.98
-89.48
-163.08
-232.08
-290.44
-332.41
-354.08
-354.76
-337.48
-308.16
-273.57
-239.22
-208.26
-181.57
-158.75
-139.16
-122.44
-108.35
-96.32
-85.24
-73.61
-59.87
-42.94
-22.44
1.02
26.12
51.13
74.37
94.87
112.56
128.20
142.78
156.83
170.04
181.36
189.59
194.10
195.30
194.44
193.06
192.29
192.45
193.05
193.26
192.32
189.92
186.22
181.74
177.09
172.70
168.71
164.95
161.03
156.58
151.42
145.53
139.12
132.41
125.63
119.07
113.08
108.14
104.67
102.87
102.45
102.69
102.68
101.70
99.57
96.64
93.59
90.96
88.85
86.77
83.99
79.91
74.41
67.92
61.25
55.25
50.55
47.42
45.83
45.57
46.34
47.93
50.19
53.08
56.69
61.06
66.10
71.37
76.15
79.68
81.57
82.20
82.77
84.97
90.32
99.43
111.72
125.51
138.48
148.35
153.47
152.93
146.83
135.95
121.45
104.51
85.84
65.32
41.93
14.50
-17.31
-51.78
-85.01
-111.71
-127.31
-129.91
-121.24
-105.82
-88.85
-73.69
-60.58
-47.12
-30.36
-9.12
14.65
36.37
50.62
53.41
43.45
22.05
-7.78
-42.48
-78.61
-113.28
-144.20
-170.22
-191.99
-212.16
-234.44
-261.58
-293.03
-323.93
-346.39
-352.87
-339.98
-310.43
-272.08
-234.47
-204.70
-184.98
-172.89
-163.77
-153.65
-140.84
-125.48
-107.80
-86.59
-59.06
-22.53
23.48
75.90
128.64
174.77
209.38
231.52
244.34
253.64
265.29
283.17
308.19
338.48
370.33
399.29
421.05
432.11
430.34
415.23
388.01
351.16
307.79
260.84
212.74
165.31
119.81
77.07
37.08
-1.18
-39.71
-80.91
-126.52
-176.58
-228.91
-279.49
-323.32
-355.65
-373.10
-374.44
-361.08
-336.92
-307.54
-278.58
-253.94
-234.52
-218.20
-201.33
-180.77
-155.45
-126.51
-96.08
-65.70
-35.46
-4.38
28.24
61.80
94.32
123.48
148.07
168.70
187.27
205.63
224.28
241.61
254.56
259.91
255.50
241.15
218.46
190.12
158.84
126.66
94.59
62.91
31.63
1.03
-27.75
-52.30
-69.18
-74.86
-67.39
-47.98
-21.36
5.48
25.74
35.42
34.38
25.52
12.78
-0.75
-13.34
-23.80
-30.37
-30.57
-22.26
-5.51
16.42
37.76
52.31
56.06
48.39
31.80
10.05
-13.80
-38.64
-65.15
-94.79
-128.48
-165.77
-204.95
-243.88
-281.05
-315.86
-348.25
-377.34
-400.41
-412.94
-409.74
-387.16
-344.79
-285.87
-216.04
-141.50
-67.50
1.78
62.38
110.04
140.93
153.73
151.51
141.63
132.99
131.62
137.34
143.58
140.74
121.36
84.25
35.23
-15.71
-58.96
-88.99
-105.44
-111.70
-112.09
-109.84
-106.25
-101.45
-95.58
-89.58
-85.11
-83.90
-86.90
-93.67
-102.54
-111.12
-117.25
-119.80
-119.05
-116.34
-113.17
-110.13
-106.27
-99.32
-86.76
-67.13
-40.76
-9.81
22.56
53.13
79.14
98.65
110.46
114.31
111.15
103.18
93.46
85.02
79.87
78.52
80.21
83.62
87.67
91.84
96.02
100.10
103.82
106.83
108.90
110.09
110.59
110.50
109.73
107.93
104.76
100.13
94.27
87.81
81.60
76.65
73.93
74.20
77.62
83.48
90.20
95.75
98.31
96.89
91.50
82.81
71.49
57.65
40.75
20.05
-4.82
-33.39
-64.41
-96.32
-127.74
-157.97
-186.89
-214.83
-242.16
-269.05
-295.27
-320.25
-343.12
-362.90
-378.55
-388.96
-392.93
-389.39
-377.70
-358.12
-332.03
-301.82
-270.27
-239.78
-211.79
-186.54
