1660749377.00
64.000000
-0.00
-0.00
-0.00
-0.00
-0.00
-0.00
-0.00
-0.00
-0.00
-0.00
0.00
0.01
0.01
-0.00
-0.03
-0.05
-0.05
0.00
0.13
0.36
0.66
1.01
1.37
1.72
2.06
2.40
2.79
3.24
3.80
4.42
5.06
5.66
6.20
6.68
7.15
7.68
8.31
9.14
10.09
11.04
11.88
12.56
13.14
13.76
14.65
15.96
17.91
20.32
22.90
25.38
27.58
29.57
31.68
34.32
37.81
42.54
48.15
54.10
59.83
64.97
69.58
74.14
79.34
85.71
93.76
103.00
112.62
121.73
129.77
136.75
143.30
150.75
157.77
166.64
177.95
191.79
206.97
220.57
228.25
225.36
208.53
176.87
132.76
80.05
23.07
-34.94
-92.44
-149.16
-205.23
-260.37
-313.74
-363.87
-409.83
-450.91
-486.50
-515.74
-537.23
-549.22
-549.96
-538.37
-514.21
-478.67
-433.86
-382.41
-326.98
-269.83
-212.69
-156.81
-103.21
-52.73
-6.32
35.14
71.00
100.95
125.10
143.93
158.15
168.49
175.60
179.92
181.75
181.29
178.78
174.49
168.79
162.09
154.79
147.21
139.59
132.01
124.47
116.88
109.14
101.24
93.25
85.37
77.83
70.87
64.58
58.83
53.35
47.84
42.07
36.06
30.06
24.52
19.83
16.17
13.33
10.83
8.08
4.67
0.56
-3.82
-7.81
-10.81
-12.51
-13.11
-13.17
-13.40
-14.46
-16.83
-20.67
-25.63
-30.66
-33.95
-33.40
-27.41
-15.73
0.05
16.88
31.37
41.06
45.21
44.85
41.97
38.61
36.01
34.53
33.83
33.30
32.48
31.09
29.09
26.54
23.57
20.27
16.62
12.66
8.50
4.47
1.13
-0.97
-1.57
-0.87
0.49
1.66
2.03
1.45
0.19
-1.16
-2.08
-2.35
-2.15
-1.90
-2.01
-2.63
-3.59
-4.48
-4.86
-4.44
-3.21
-1.39
0.62
2.46
3.85
4.70
5.09
5.20
5.17
5.17
5.24
5.49
5.96
6.66
7.55
8.53
9.47
10.30
11.05
11.79
12.65
13.64
14.60
15.23
15.20
14.29
12.49
10.07
7.23
4.23
1.22
-1.72
-4.56
-7.24
-9.67
-11.72
-13.31
-14.51
-15.38
-16.02
-16.44
-16.61
-16.42
-15.78
-14.69
-13.25
-11.66
-10.12
-8.77
-7.68
-6.86
-6.30
-5.96
-5.86
-5.95
-6.16
-6.31
-6.25
-5.87
-5.18
-4.30
-3.41
-2.63
-1.96
-1.36
-0.75
-0.12
0.48
0.99
1.38
1.71
2.07
2.52
3.06
3.62
4.10
4.41
4.56
4.60
4.61
4.68
4.85
5.11
5.41
5.69
5.88
5.91
5.75
5.42
4.94
4.36
3.75
3.18
2.72
2.36
2.04
1.66
1.17
0.63
0.26
0.30
0.94
2.18
3.77
5.31
6.39
6.69
6.15
4.92
3.33
1.71
0.27
-0.92
-1.87
-2.68
-3.39
-3.99
-4.50
-4.96
-5.51
-6.30
-7.45
-8.93
-10.58
-12.20
-13.64
-14.89
-16.01
-17.04
-17.99
-18.77
-19.25
-19.31
-18.85
-17.85
-16.29
-14.26
-11.89
-9.38
-6.93
-4.71
-2.79
-1.13
0.33
1.72
3.17
4.81
6.76
9.11
11.82
14.66
17.28
19.24
20.21
20.03
18.75
16.62
13.92
10.91
7.74
4.53
1.40
-1.46
-3.77
-5.29
-5.86
-5.54
-4.58
-3.34
-2.13
-1.12
-0.29
0.51
1.44
2.51
3.60
4.45
4.84
4.65
3.93
2.89
1.77
0.76
-0.08
-0.83
-1.72
-3.02
-4.91
-7.44
-10.44
-13.52
-16.18
-17.95
-18.52
-17.90
-16.38
-14.43
-12.55
-11.13
-10.42
-10.53
-11.46
-13.11
-15.27
-17.58
-19.54
-20.64
-20.57
-19.31
-17.15
-14.59
-12.12
-10.06
-8.46
-7.20
-6.09
-4.97
-3.80
-2.58
-1.25
0.27
2.09
4.22
6.49
8.60
10.14
10.81
10.49
9.35
7.77
6.20
5.04
4.55
4.81
5.76
7.25
9.12
11.11
12.95
14.36
15.13
15.17
14.58
13.63
12.67
11.99
11.85
12.40
13.76
15.97
18.97
22.51
26.21
29.55
32.18
33.97
35.22
36.49
38.45
41.55
45.80
50.60
54.77
56.80
55.21
49.05
38.27
23.90
7.80
-7.84
-21.15
-31.06
-37.41
-40.72
-41.81
-41.44
-40.19
-38.49
-36.73
-35.20
-33.92
-32.56
-30.48
-27.08
-22.26
-16.61
-11.32
-7.75
-6.74
-8.33
-11.69
-15.56
-18.76
-20.66
-21.21
-20.84
-20.07
-19.22
-18.35
-17.25
-15.64
-13.32
-10.30
-6.87
-3.47
-0.59
1.40
2.39
2.53
2.17
1.71
1.49
1.71
2.44
3.63
5.20
7.05
9.07
11.14
13.10
14.77
15.97
16.63
16.84
16.86
17.06
17.81
19.23
21.25
23.56
25.82
27.83
29.54
31.00
32.17
32.80
32.42
30.57
26.99
21.89
15.92
9.99
4.92
1.14
-1.47
-3.51
-5.81
-9.05
-13.43
-18.56
-23.54
-27.28
-28.94
-28.23
-25.53
-21.79
-18.15
-15.61
-14.72
-15.50
-17.54
-20.27
-23.08
-25.50
-27.15
-27.70
-26.88
-24.53
-20.74
-15.96
-10.93
-6.52
-3.43
-2.06
-2.39
-4.15
-6.88
-10.05
-12.95
-14.75
-14.67
-12.26
-7.75
-2.13
3.09
6.42
7.02
5.03
1.45
-2.27
-4.88
-5.73
-4.91
-3.05
-0.96
0.70
1.58
1.68
1.16
0.25
-0.88
-2.09
-3.16
-3.79
-3.60
-2.31
0.06
3.13
6.26
8.74
10.11
10.34
9.81
9.09
8.69
8.85
9.44
10.11
10.50
10.44
10.03
9.58
9.45
9.84
10.73
11.91
13.14
14.25
15.24
16.17
17.07
17.84
18.30
18.26
17.67
16.63
15.38
14.11
12.95
11.85
10.68
9.29
7.55
5.44
3.04
0.48
-2.09
-4.52
-6.74
-8.73
-10.49
-11.96
-13.02
-13.45
-13.16
-12.20
-10.81
-9.34
-8.10
-7.22
-6.60
-6.03
-5.29
-4.30
-3.16
-2.01
-1.03
-0.30
0.19
0.51
0.71
0.82
0.78
0.47
-0.15
-1.06
-2.13
-3.12
-3.88
-4.38
-4.77
-5.29
-6.11
-7.20
-8.34
-9.18
-9.47
-9.16
-8.44
-7.66
-7.14
-7.07
-7.43
-7.96
-8.31
-8.05
-6.86
-4.64
-1.55
2.02
5.56
8.64
11.00
12.64
13.65
14.17
14.28
13.99
13.32
12.33
11.21
10.15
9.28
8.59
7.96
7.23
6.32
5.31
4.32
3.48
2.77
2.05
1.15
-0.02
-1.34
-2.56
-3.42
-3.82
-3.90
-3.93
-4.17
-4.68
-5.29
-5.71
-5.71
-5.26
-4.57
-3.97
-3.67
-3.66
-3.64
-3.15
-1.75
0.74
4.10
7.74
10.97
13.15
14.01
13.73
12.94
12.53
13.29
15.55
18.98
22.76
25.86
27.54
27.78
27.34
27.47
29.30
33.09
38.03
42.59
45.20
45.05
42.59
39.52
38.10
40.36
46.86
57.02
69.50
82.54
94.21
102.44
105.53
102.94
96.05
87.24
79.92
76.97
79.15
84.16
87.19
82.82
67.35
40.41
3.63
-38.87
-82.12
-122.05
-156.85
-187.20
-214.87
-240.62
-262.57
-278.40
-284.88
-280.10
-265.10
-244.43
-224.90
-212.81
-211.42
-207.56
-190.43
-155.07
-105.89
-53.06
-6.00
30.46
56.35
74.76
90.06
103.45
114.33
121.14
122.93
120.19
114.75
109.17
105.63
105.79
108.26
110.64
110.54
106.83
99.81
90.76
81.33
71.95
63.42
54.65
44.17
30.98
15.20
-2.01
-19.02
-32.33
-42.10
-48.84
-53.96
-58.85
-64.30
-70.16
-75.53
-79.42
-81.02
-80.83
-79.40
-77.70
-76.61
-76.72
-78.26
-80.96
-85.03
-87.40
-85.33
-76.10
-58.52
-33.93
-6.09
20.02
40.09
52.10
56.86
56.55
53.87
50.60
47.20
43.43
39.16
34.95
31.84
30.78
31.57
33.18
34.10
32.96
29.26
23.52
16.96
11.01
6.68
3.99
2.36
0.93
-0.95
-3.36
-5.86
-8.20
-9.86
-10.50
-10.14
-9.13
-7.94
-7.08
-6.84
-7.24
-8.07
-8.90
-9.39
-9.49
-9.42
-9.53
-10.16
-11.43
-13.17
-15.01
-16.53
-17.48
-17.92
-18.11
-18.41
-19.09
-20.29
-21.91
-23.78
-25.53
-26.75
-26.96
-25.72
-22.78
-18.18
-12.34
-6.03
-0.12
4.66
7.92
9.70
10.32
10.23
9.84
9.41
9.04
8.69
8.33
7.96
7.60
7.29
7.04
6.82
6.52
6.06
5.40
4.59
3.71
2.87
2.06
1.13
-0.18
-2.18
-5.00
-8.58
-12.58
-16.45
-19.55
-21.35
-21.56
-20.22
-17.76
-14.86
-12.25
-10.56
-10.10
-10.80
-12.27
-13.93
-15.08
-15.09
-13.52
-10.20
-5.35
0.44
6.31
11.37
14.94
16.71
16.76
15.46
13.31
10.83
8.42
6.38
4.91
4.08
3.83
3.95
4.22
4.42
4.49
4.40
4.18
3.74
2.88
1.37
-0.91
-3.91
-7.33
-10.73
-13.69
-15.88
-17.18
-17.62
-17.35
-16.54
-15.39
-14.14
-13.00
-12.22
-12.01
-12.60
-14.09
-16.43
-19.26
-21.94
-23.66
-23.63
-21.46
-17.28
-11.74
-5.80
-0.34
4.15
7.76
11.07
14.94
20.12
27.05
35.59
45.02
54.12
61.34
65.18
64.47
58.87
49.08
36.90
24.89
15.71
11.28
12.13
17.23
24.35
30.97
35.10
35.90
33.66
29.48
24.61
20.12
16.64
14.40
13.32
13.13
13.36
13.55
13.29
12.35
10.68
8.49
6.14
4.07
2.71
2.31
2.79
3.71
4.39
4.22
3.06
1.36
0.09
0.26
2.39
6.17
10.53
14.02
15.41
14.12
10.42
5.21
-0.25
-4.80
-7.64
-8.52
-7.65
-5.62
-3.13
-0.86
0.80
1.69
1.95
1.92
2.18
3.38
6.14
10.76
16.91
23.58
29.24
32.36
32.09
28.65
23.32
17.92
14.09
12.62
13.28
15.03
16.60
17.03
16.08
14.18
12.21
11.18
11.74
13.99
17.40
21.00
23.73
24.90
24.38
22.68
20.67
19.24
18.99
20.10
22.25
24.72
26.47
26.38
23.51
17.50
8.86
-1.00
-10.09
-16.53
-19.17
-18.04
-14.27
-9.62
-5.88
-4.38
-5.70
-9.75
-15.83
-22.88
-29.71
-35.23
-38.70
-39.87
-38.98
-36.51
-32.99
-28.78
-23.93
-18.21
-11.22
-2.54
7.98
19.99
32.41
43.55
51.48
54.69
52.71
46.48
38.06
29.97
24.28
21.89
22.36
24.24
25.86
26.00
24.27
21.15
17.57
14.51
12.59
11.93
12.25
13.01
13.61
13.52
12.33
9.87
6.28
2.05
-2.02
-5.00
-6.14
-5.23
-2.75
0.17
2.08
1.77
-1.20
-6.23
-11.88
-16.35
-18.23
-16.99
-13.19
-8.11
-3.27
0.13
1.52
0.96
-1.10
-4.03
-7.18
-9.96
-11.83
-12.43
-11.66
-9.74
-7.26
-4.87
-3.09
-1.94
-0.86
1.18
5.30
12.25
21.97
33.43
44.68
53.15
56.32
52.49
41.49
24.96
6.06
-11.46
-24.39
-31.00
-31.37
-26.99
-19.94
-12.02
-4.32
2.89
9.76
16.50
23.21
29.66
35.39
39.79
42.18
41.98
38.90
32.94
24.56
14.62
4.33
-4.98
-12.20
-16.77
-18.91
-19.57
-20.03
-21.28
-23.53
-26.16
-28.05
-28.26
-26.53
-23.53
-20.48
-18.63
-18.76
-20.90
-24.47
-28.57
-32.36
-35.28
-37.12
-37.93
-37.87
-37.07
-35.53
-33.14
-29.68
-24.86
-18.32
-9.72
1.10
13.93
27.94
41.64
52.93
59.64
60.22
54.43
43.70
30.88
19.39
11.97
9.85
12.45
17.88
23.91
28.82
31.92
33.40
33.89
33.88
33.44
32.22
29.72
25.48
19.34
11.55
2.68
-6.47
-15.09
-22.46
-28.14
-31.92
-33.85
-34.27
-33.86
-33.54
-34.23
-36.46
-39.95
-43.60
-45.84
-45.24
-41.25
-34.41
-26.24
-18.60
-13.00
-10.18
-9.98
-11.65
-14.14
-16.49
-18.02
-18.42
-17.66
-16.02
-13.90
-11.68
-9.62
-7.73
-5.70
-2.95
1.20
7.24
15.13
24.05
32.41
38.26
39.96
36.97
30.29
22.25
15.67
12.74
14.10
18.68
24.29
28.69
30.53
29.87
27.91
26.31
26.49
28.98
33.24
37.82
40.79
40.31
35.29
25.84
13.28
-0.26
-12.49
-21.61
-26.72
-27.88
-25.90
-22.16
-18.42
-16.44
-17.57
-22.22
-29.46
-37.26
-43.07
-44.89
-42.04
-35.49
-27.35
-20.04
-15.39
-14.11
-15.80
-19.32
-23.36
-26.79
-28.96
-29.62
-28.94
-27.35
-25.35
-23.40
-21.72
-20.21
-18.31
-15.13
-9.59
-0.81
11.51
26.78
43.32
58.45
69.02
72.26
66.77
53.30
34.92
16.16
1.58
-5.87
-5.79
-0.26
7.31
13.76
17.37
18.23
17.67
17.36
18.39
20.88
24.16
27.10
28.50
27.41
23.36
16.40
7.15
-3.32
-13.81
-23.18
-30.72
-36.20
-39.98
-42.77
-45.40
-48.34
-51.51
-54.16
-55.14
-53.41
-48.59
-41.15
-32.35
-23.70
-16.54
-11.66
-9.25
-9.11
-10.74
-13.50
-16.58
-19.13
-20.45
-20.14
-18.32
-15.50
-12.41
-9.63
-7.36
-5.24
-2.38
2.29
9.64
19.81
31.90
43.96
53.33
57.37
54.35
44.23
28.88
11.67
-3.52
-13.69
-17.69
-16.50
-12.64
-9.01
-7.58
-8.73
-11.40
-13.81
-14.50
-12.98
-9.69
-5.62
-1.61
1.97
5.14
8.02
10.46
11.99
12.07
10.58
7.89
4.80
1.96
-0.47
-2.89
-5.92
-9.81
-14.04
-17.44
-18.71
-17.20
-13.25
-8.18
-3.69
-1.18
-1.26
-3.60
-7.30
-11.26
-14.63
-16.97
-18.22
-18.57
-18.26
-17.49
-16.38
-14.95
-13.15
-10.72
-7.15
-1.81
5.82
15.76
27.15
38.32
47.11
51.74
51.51
47.30
41.31
36.26
34.24
35.91
40.22
45.08
48.27
48.42
45.45
40.42
34.86
30.17
27.11
25.73
25.44
25.32
24.30
21.44
16.12
8.31
-1.35
-11.57
-20.67
-27.02
-29.55
-28.23
-24.29
-20.00
-18.02
-20.40
-27.70
-38.63
-50.40
-59.83
-64.53
-63.73
-58.32
-50.31
-41.80
-34.34
-28.62
-24.64
-22.06
-20.44
-19.33
-18.26
-16.76
-14.50
-11.41
-7.74
-3.90
-0.28
3.02
6.35
10.45
16.23
24.36
34.82
46.61
57.71
65.61
68.12
64.36
55.36
44.04
34.19
29.13
30.34
36.93
46.08
54.18
58.39
57.48
52.13
44.22
35.90
28.64
22.89
18.12
13.15
6.77
-1.84
-12.74
-25.11
-37.30
-47.30
-53.30
-54.29
-50.52
-43.49
-35.65
-29.67
-27.72
-30.75
-38.17
-48.01
-57.44
-63.75
-65.18
-61.47
-53.85
-44.43
-35.39
-28.29
-23.77
-21.64
-21.22
-21.67
-22.23
-22.30
-21.56
-19.93
-17.57
-14.73
-11.59
-8.08
-3.89
1.48
8.47
17.22
27.32
37.69
46.65
52.22
52.92
48.41
40.08
30.84
24.23
23.08
28.33
38.59
50.70
61.01
66.69
66.65
61.54
53.08
43.13
33.00
23.03
12.86
1.81
-10.59
-24.23
-38.35
-51.73
-63.12
-71.63
-76.90
-79.04
-78.44
-75.54
-70.90
-65.23
-59.56
-55.02
-52.46
-52.04
-53.01
-53.87
-53.04
-49.55
-43.57
-36.41
-29.95
-25.94
-25.21
-27.37
-30.96
-34.08
-35.04
-33.03
-28.29
-21.86
-15.06
-8.98
-4.09
-0.22
3.16
6.74
11.08
16.43
22.70
29.30
35.25
39.31
40.44
38.20
33.14
26.73
20.92
17.38
16.90
19.09
22.63
25.92
27.73
27.52
25.45
21.99
17.63
12.69
7.29
1.57
-4.27
-10.04
-15.55
-20.62
-25.09
-28.75
-31.41
-32.97
-33.44
-32.86
-31.22
-28.48
-24.72
-20.38
-16.31
-13.56
-12.83
-14.00
-15.93
-16.98
-15.71
-11.70
-5.78
0.37
5.01
7.10
6.60
4.37
1.62
-0.57
-1.59
-1.39
-0.33
1.04
2.16
2.70
2.55
1.81
0.77
-0.22
-0.78
-0.60
0.53
2.61
5.34
8.12
10.15
10.71
9.44
6.50
2.64
-1.17
-4.01
-5.33
-5.04
-3.43
-0.94
1.96
4.86
7.52
9.74
11.41
12.52
13.16
13.54
13.95
14.65
15.74
17.01
17.97
17.94
16.42
13.35
9.30
5.36
2.72
2.23
4.10
7.86
12.52
16.85
19.69
20.05
17.43
11.94
4.47
-3.43
-10.00
-13.85
-14.46
-12.35
-8.85
-5.42
-3.18
-2.57
-3.39
-5.13
-7.25
-9.33
-11.06
-12.12
-12.15
-10.89
-8.34
-4.90
-1.32
1.53
3.02
3.10
2.25
1.41
1.47
3.03
6.18
10.50
15.21
19.33
21.82
21.81
18.95
13.67
7.26
1.56
-1.67
-1.51
1.69
6.47
10.87
13.32
13.21
11.05
8.04
5.42
4.01
3.90
4.62
5.44
5.73
5.15
3.71
1.67
-0.56
-2.60
-4.16
-5.12
-5.49
-5.36
-4.92
-4.31
-3.64
-2.94
-2.10
-0.93
0.80
3.28
6.49
10.08
13.38
15.56
15.99
14.53
11.81
9.06
7.67
8.60
12.03
17.22
22.93
27.92
31.45
33.41
34.14
34.14
33.77
33.24
32.66
32.27
32.43
33.59
36.10
40.02
45.02
50.46
55.53
59.51
62.00
63.09
63.45
64.15
66.47
71.44
79.52
90.35
102.78
115.14
125.74
133.38
137.74
139.52
140.15
141.31
144.38
150.02
157.99
167.21
175.95
182.14
183.70
178.98
167.01
147.82
122.37
92.09
58.37
21.90
-17.30
-59.44
-104.09
-149.44
-192.21
-228.44
-254.76
-269.72
-274.29
-271.43
-264.92
-258.00
-252.59
-249.12
-247.03
-245.27
-242.70
-238.09
-230.21
-218.05
-201.33
-180.90
-158.75
-137.47
-119.28
-105.25
-95.00
-87.18
-80.33
-73.50
-66.60
-59.97
-53.90
-48.21
-42.26
-35.40
-27.36
-18.46
-9.42
-0.99
6.26
11.99
16.16
18.93
20.63
21.66
22.50
23.60
25.27
27.45
29.75
31.67
32.85
33.22
32.82
31.78
30.32
28.83
27.63
26.97
27.14
28.56
31.66
36.75
43.93
53.01
63.56
74.53
84.29
91.03
93.22
89.77
80.16
64.50
43.66
21.01
1.51
-11.01
-15.81
-14.66
-10.14
-4.42
1.23
6.36
11.04
15.18
18.37
20.17
20.63
20.23
19.66
19.57
20.37
22.18
24.59
26.93
28.67
29.66
30.18
30.65
31.47
32.90
34.99
37.41
39.74
41.56
42.56
42.62
41.67
39.65
36.52
32.13
26.45
19.67
11.90
3.32
-5.93
-15.76
-26.01
-36.40
-45.24
-52.60
-58.22
-61.96
-63.96
-64.75
-65.09
-65.64
-66.80
-68.46
-70.24
-71.60
-72.13
-71.85
-71.15
-70.62
-70.81
-72.18
-75.03
-79.45
-84.91
-89.80
-91.63
-87.62
-75.92
-56.58
-31.96
-6.45
16.62
34.69
47.09
54.73
59.11
61.39
61.89
60.53
57.35
52.99
48.44
44.67
42.09
40.40
38.88
36.70
33.47
29.32
24.85
20.60
17.00
14.09
11.63
9.27
6.72
3.85
0.71
-2.52
-5.63
-8.51
-11.18
-13.72
-16.31
-19.09
-22.20
-25.76
-29.88
-34.46
-39.40
-44.59
-49.77
-54.58
-58.43
-60.64
-60.65
-58.30
-53.79
-48.11
-42.63
-38.56
-36.44
-35.87
-35.68
-34.30
-32.29
-29.72
-26.93
-24.47
-22.73
-21.85
-21.65
-21.87
-22.32
-23.11
-24.27
-26.03
-28.52
-31.48
-34.28
-36.12
-36.42
-35.19
-33.17
-31.36
-30.90
-32.56
-36.44
-42.19
-49.18
-56.80
-64.50
-71.76
-78.04
-82.96
-86.52
-88.98
-90.64
-91.35
-90.21
-85.66
-76.14
-60.98
-41.11
-19.11
1.61
18.06
28.79
34.37
36.91
38.97
42.46
47.91
54.46
60.54
64.72
66.33
65.59
63.32
60.40
57.43
54.62
52.07
50.12
49.46
50.83
54.49
59.76
65.04
68.34
68.31
64.75
58.72
51.85
45.42
39.81
34.51
28.81
22.48
16.05
10.34
5.97
2.77
-0.09
-3.53
-8.00
-13.11
-17.89
-21.25
-22.53
-21.55
-18.57
-13.94
-7.95
-0.90
6.73
14.25
20.79
25.68
28.75
30.48
31.93
34.39
38.96
46.14
55.64
66.35
76.54
84.23
87.75
86.28
80.10
70.60
59.75
49.52
41.16
34.95
30.19
25.54
19.47
10.77
-1.11
-15.84
-32.17
-48.19
-61.76
-71.15
-75.50
-75.07
-71.07
-65.16
-58.96
-53.58
-49.41
-46.23
-43.33
-39.85
-35.05
-28.52
-20.45
-11.59
-3.24
3.23
6.77
7.22
5.44
3.16
2.25
3.99
8.49
14.69
20.89
25.65
28.48
30.03
31.67
34.82
40.17
47.43
55.49
62.91
68.54
71.90
73.31
73.79
74.67
77.23
82.40
90.50
100.94
111.94
120.72
124.01
119.19
105.65
85.52
63.37
44.67
33.64
31.46
35.83
42.17
45.77
43.92
36.74
26.62
16.51
8.36
2.37
-2.64
-8.12
-14.90
-22.74
-30.72
-37.92
-43.97
-49.09
-53.72
-57.99
-61.43
-63.16
-62.24
-58.21
-51.26
-42.15
-31.84
-21.15
-10.57
-0.27
9.59
18.61
25.93
30.43
31.22
28.29
22.89
17.35
14.40
16.11
23.17
34.65
48.60
62.86
75.89
87.03
96.18
103.10
106.81
105.63
97.87
82.87
61.92
38.25
16.15
-0.48
-9.59
-11.52
-8.61
-3.90
0.08
2.08
1.95
-0.01
-3.66
-9.13
-16.57
-25.60
-35.12
-43.63
-49.74
-52.85
-53.33
-52.44
-51.65
-52.11
-54.14
-57.10
-59.74
-60.65
-58.83
-54.04
-46.86
-38.51
-30.37
-23.60
-18.85
-16.15
-14.98
-14.39
-13.32
-10.75
-6.02
1.01
9.92
19.83
29.68
38.57
46.09
52.28
57.53
62.31
67.04
72.02
77.72
84.81
94.14
106.26
120.83
136.13
149.00
155.35
151.19
133.86
103.02
61.24
13.71
-32.72
-71.13
-96.26
-105.86
-101.14
-86.10
-66.11
-46.23
-30.11
-19.52
-14.74
-15.21
-20.06
-28.20
-38.26
-48.48
-57.03
-62.46
-64.20
-62.73
-59.43
-55.99
-53.81
-53.55
-55.01
-57.32
-59.31
-60.03
-59.03
-56.57
-53.44
-50.60
-48.82
-48.33
-48.76
-49.35
-49.24
-47.76
-44.50
-39.26
-31.97
-22.70
-11.80
0.10
12.12
23.44
33.54
42.38
50.25
57.45
64.03
69.68
73.96
76.64
78.03
78.92
80.35
83.11
87.39
92.58
97.40
100.17
99.13
92.82
