1660935527.00
64.000000
-0.00
-0.00
-0.00
-0.00
-0.00
-0.00
-0.00
-0.00
-0.00
-0.00
0.00
0.01
0.01
-0.00
-0.03
-0.05
-0.05
0.00
0.13
0.36
0.66
1.01
1.37
1.72
2.06
2.40
2.79
3.25
3.81
4.44
5.10
5.73
6.32
6.89
7.51
8.25
9.15
10.30
11.57
12.85
13.99
14.97
15.86
16.86
18.20
20.04
22.57
25.56
28.72
31.74
34.47
37.06
39.86
43.36
47.85
53.69
60.43
67.50
74.30
80.56
86.47
92.67
99.95
108.82
119.68
131.83
144.28
156.12
166.91
176.99
187.32
199.45
212.05
227.09
244.74
264.70
285.63
304.84
318.53
322.66
314.26
292.41
259.01
217.19
170.59
122.16
73.74
26.24
-19.69
-63.29
-103.81
-140.67
-174.41
-206.38
-238.41
-272.06
-307.82
-344.38
-378.45
-405.62
-421.51
-423.58
-412.10
-390.16
-362.38
-333.15
-305.26
-279.49
-255.27
-231.75
-208.81
-187.07
-167.41
-150.28
-135.32
-121.64
-108.27
-94.73
-81.10
-68.04
-56.28
-46.25
-37.89
-30.73
-24.13
-17.62
-11.05
-4.64
1.21
6.14
9.98
12.88
15.18
17.30
19.49
21.83
24.12
26.06
27.34
27.82
27.57
26.88
26.09
25.51
25.29
25.40
25.62
25.72
25.48
24.84
23.87
22.71
21.53
20.45
19.53
18.76
18.08
17.47
16.88
16.32
15.81
15.36
14.95
14.59
14.24
13.91
13.61
13.37
13.23
13.16
13.10
12.97
12.70
12.28
11.74
11.17
10.66
10.28
10.03
9.91
9.82
9.71
9.50
9.19
8.82
8.45
8.17
8.02
7.99
8.03
8.09
8.09
8.00
7.78
7.42
6.95
6.37
5.76
5.15
4.62
4.18
3.79
3.42
3.00
2.52
2.01
1.53
1.14
0.84
0.57
0.28
-0.10
-0.57
-1.10
-1.67
-2.28
-2.96
-3.74
-4.65
-5.64
-6.59
-7.38
-7.91
-8.15
-8.19
-8.18
-8.27
-8.52
-8.88
-9.24
-9.44
-9.39
-9.11
-8.67
-8.18
-7.71
-7.29
-6.86
-6.42
-5.92
-5.38
-4.84
-4.31
-3.79
-3.30
-2.84
-2.41
-2.02
-1.66
-1.31
-0.94
-0.53
-0.10
0.35
0.77
1.11
1.36
1.53
1.67
1.84
2.07
2.40
2.81
3.25
3.68
4.06
4.37
4.58
4.70
4.72
4.65
4.50
4.30
4.10
3.96
3.97
4.13
4.37
4.59
4.64
4.45
4.06
3.60
3.24
3.10
3.22
3.47
3.72
3.86
3.87
3.81
3.74
3.72
3.75
3.81
3.84
3.84
3.82
3.79
3.76
3.76
3.79
3.85
3.89
3.84
3.69
3.44
3.18
2.99
2.89
2.84
2.76
2.63
2.48
2.42
2.54
2.84
3.20
3.44
3.45
3.21
2.83
2.44
2.12
1.89
1.68
1.47
1.24
1.07
1.01
1.10
1.30
1.53
1.74
1.87
1.93
1.90
1.78
1.59
1.36
1.16
1.05
1.06
1.16
1.25
1.28
1.22
1.09
0.94
0.80
0.65
0.46
0.24
0.07
0.05
0.27
0.72
1.28
1.76
1.98
1.85
1.40
0.76
0.16
-0.24
-0.35
-0.21
0.07
0.33
0.50
0.59
0.67
0.82
1.06
1.31
1.48
1.49
1.34
1.11
0.92
0.83
0.90
1.10
1.37
1.61
1.73
1.69
1.45
1.06
0.61
0.20
-0.08
-0.17
-0.08
0.10
0.30
0.41
0.39
0.24
0.02
-0.19
-0.30
-0.24
0.04
0.51
1.06
1.55
1.85
1.84
1.52
1.00
0.45
0.08
0.01
0.23
0.64
1.04
1.28
1.30
1.13
0.87
0.64
0.51
0.49
0.55
0.66
0.79
0.94
1.07
1.13
1.08
0.91
0.66
0.40
0.22
0.16
0.23
0.36
0.52
0.65
0.74
0.77
0.73
0.62
0.44
0.24
0.08
0.04
0.15
0.36
0.57
0.67
0.60
0.42
0.25
0.21
0.37
0.67
0.97
1.13
1.07
0.82
0.48
0.15
-0.11
-0.28
-0.37
-0.40
-0.36
-0.26
-0.12
0.02
0.09
0.08
0.00
-0.08
-0.10
-0.02
0.18
0.47
0.79
1.10
1.35
1.50
1.47
1.24
0.77
0.10
-0.65
-1.28
-1.63
-1.59
-1.19
-0.60
-0.01
0.45
0.73
0.89
1.01
1.11
1.17
1.15
1.05
0.94
0.90
0.98
1.15
1.31
1.38
1.32
1.15
0.92
0.66
0.37
0.05
-0.25
-0.47
-0.50
-0.32
0.03
0.44
0.76
0.90
0.82
0.58
0.25
-0.08
-0.37
-0.56
-0.66
-0.65
-0.54
-0.35
-0.13
0.05
0.15
0.17
0.12
0.05
0.00
-0.01
0.01
0.04
0.07
0.10
0.17
0.28
0.42
0.52
0.55
0.45
0.26
0.03
-0.16
-0.25
-0.25
-0.19
-0.12
-0.07
-0.02
0.05
0.13
0.14
0.02
-0.26
-0.62
-0.92
-1.01
-0.81
-0.38
0.12
0.49
0.62
0.51
0.30
0.12
0.09
0.20
0.37
0.47
0.43
0.23
-0.05
-0.34
-0.53
-0.58
-0.48
-0.28
-0.02
0.22
0.42
0.57
0.67
0.75
0.81
0.86
0.88
0.85
0.75
0.58
0.39
0.27
0.28
0.43
0.62
0.73
0.67
0.43
0.11
-0.16
-0.27
-0.18
0.05
0.34
0.64
0.90
1.10
1.20
1.14
0.88
0.48
0.03
-0.35
-0.58
-0.65
-0.59
-0.50
-0.42
-0.38
-0.37
-0.40
-0.45
-0.51
-0.56
-0.53
-0.40
-0.16
0.18
0.51
0.75
0.84
0.80
0.68
0.57
0.53
0.59
0.72
0.84
0.91
0.90
0.78
0.56
0.23
-0.18
-0.60
-0.96
-1.15
-1.14
-1.00
-0.81
-0.69
-0.68
-0.75
-0.83
-0.87
-0.84
-0.75
-0.62
-0.44
-0.16
0.24
0.74
1.26
1.68
1.88
1.82
1.57
1.22
0.93
0.79
0.82
1.00
1.24
1.44
1.53
1.46
1.26
0.95
0.56
0.09
-0.40
-0.85
-1.16
-1.22
-1.01
-0.58
-0.11
0.22
0.27
0.03
-0.38
-0.77
-0.99
-1.00
-0.85
-0.67
-0.54
-0.49
-0.51
-0.54
-0.53
-0.46
-0.32
-0.14
0.08
0.28
0.42
0.45
0.37
0.21
0.04
-0.10
-0.15
-0.09
0.06
0.27
0.47
0.62
0.68
0.66
0.57
0.45
0.31
0.15
-0.03
-0.25
-0.51
-0.75
-0.92
-0.95
-0.84
-0.62
-0.34
-0.06
0.20
0.43
0.61
0.73
0.75
0.63
0.36
-0.01
-0.42
-0.77
-0.96
-0.95
-0.75
-0.42
-0.05
0.25
0.42
0.42
0.29
0.12
0.00
0.01
0.15
0.38
0.62
0.78
0.81
0.72
0.53
0.28
0.04
-0.17
-0.31
-0.37
-0.35
-0.28
-0.22
-0.21
-0.30
-0.45
-0.63
-0.75
-0.77
-0.65
-0.42
-0.14
0.13
0.35
0.48
0.52
0.47
0.35
0.17
-0.05
-0.29
-0.50
-0.65
-0.70
-0.65
-0.52
-0.37
-0.25
-0.17
-0.10
0.00
0.16
0.34
0.50
0.59
0.60
0.56
0.50
0.42
0.34
0.27
0.22
0.24
0.35
0.51
0.66
0.73
0.71
0.66
0.63
0.67
0.73
0.72
0.55
0.19
-0.25
-0.65
-0.84
-0.80
-0.56
-0.24
0.02
0.15
0.11
-0.06
-0.33
-0.64
-0.91
-1.08
-1.09
-0.92
-0.63
-0.31
-0.05
0.09
0.12
0.12
0.14
0.20
0.25
0.27
0.26
0.28
0.39
0.65
1.01
1.36
1.55
1.48
1.12
0.57
-0.01
-0.46
-0.72
-0.79
-0.78
-0.79
-0.88
-1.03
-1.17
-1.21
-1.13
-0.94
-0.69
-0.42
-0.10
0.29
0.72
1.11
1.34
1.30
1.03
0.63
0.28
0.07
0.03
0.09
0.14
0.15
0.12
0.11
0.17
0.27
0.36
0.39
0.30
0.12
-0.08
-0.23
-0.26
-0.17
0.01
0.20
0.33
0.34
0.24
0.06
-0.17
-0.38
-0.58
-0.74
-0.88
-1.03
-1.17
-1.26
-1.23
-1.05
-0.74
-0.39
-0.12
-0.03
-0.08
-0.18
-0.19
-0.02
0.31
0.68
0.99
1.14
1.15
1.05
0.90
0.71
0.50
0.27
0.04
-0.15
-0.27
-0.32
-0.30
-0.25
-0.20
-0.17
-0.16
-0.14
-0.13
-0.11
-0.07
-0.02
0.03
0.08
0.12
0.16
0.19
0.19
0.18
0.14
0.10
0.10
0.15
0.29
0.49
0.72
0.91
1.00
0.92
0.68
0.34
-0.01
-0.26
-0.35
-0.26
-0.04
0.23
0.44
0.53
0.44
0.19
-0.17
-0.52
-0.75
-0.81
-0.69
-0.47
-0.22
-0.02
0.12
0.22
0.29
0.28
0.16
-0.08
-0.38
-0.65
-0.81
-0.83
-0.74
-0.61
-0.49
-0.42
-0.39
-0.37
-0.36
-0.33
-0.30
-0.24
-0.16
-0.06
0.07
0.18
0.25
0.25
0.17
0.03
-0.16
-0.32
-0.39
-0.30
-0.06
0.27
0.57
0.74
0.70
0.48
0.19
-0.05
-0.15
-0.07
0.10
0.28
0.39
0.42
0.40
0.35
0.30
0.24
0.16
0.09
0.09
0.21
0.45
0.71
0.87
0.83
0.58
0.21
-0.15
-0.35
-0.31
-0.05
0.32
0.67
0.88
0.84
0.54
0.03
-0.55
-1.01
-1.21
-1.10
-0.71
-0.19
0.28
0.57
0.61
0.43
0.10
-0.28
-0.62
-0.85
-0.92
-0.84
-0.65
-0.40
-0.17
0.01
0.12
0.18
0.16
0.09
-0.03
-0.14
-0.18
-0.09
0.10
0.31
0.42
0.38
0.21
0.02
-0.08
-0.04
0.12
0.31
0.43
0.46
0.42
0.35
0.27
0.16
0.01
-0.18
-0.39
-0.56
-0.62
-0.57
-0.41
-0.22
-0.07
-0.05
-0.16
-0.36
-0.54
-0.62
-0.57
-0.43
-0.28
-0.19
-0.18
-0.23
-0.31
-0.38
-0.42
-0.48
-0.55
-0.60
-0.58
-0.42
-0.13
0.23
0.56
0.73
0.67
0.38
-0.06
-0.52
-0.89
-1.12
-1.19
-1.15
-1.04
-0.92
-0.82
-0.83
-1.01
-1.40
-1.95
-2.56
-3.07
-3.38
-3.45
-3.40
-3.39
-3.54
-3.91
-4.36
-4.66
-4.53
-3.75
-2.27
-0.20
2.09
4.18
5.66
6.27
6.00
4.98
3.46
1.65
-0.26
-2.11
-3.73
-5.00
-5.84
-6.27
-6.43
-6.50
-6.63
-6.86
-7.18
-7.51
-7.83
-8.23
-8.76
-9.47
-10.28
-11.12
-11.97
-12.99
-14.48
-16.74
-19.91
-23.82
-28.12
-32.44
-36.62
-40.85
-45.56
-51.14
-57.63
-64.55
-71.08
-76.41
-80.17
-82.66
-84.80
-87.73
-92.35
-98.84
-106.63
-114.47
-120.96
-124.98
-126.08
-124.62
-121.71
-119.03
-118.23
-120.25
-124.58
-128.83
-129.06
-120.80
-100.67
-67.80
-24.54
24.04
71.58
112.25
142.15
159.90
166.35
163.80
155.05
142.84
129.45
116.57
105.26
95.92
88.42
82.23
76.63
71.04
65.24
59.45
54.14
49.75
46.43
43.95
41.88
39.96
38.44
38.23
40.60
46.66
56.78
70.25
85.54
100.81
114.64
126.46
136.57
145.75
154.73
163.86
173.08
182.17
191.13
200.23
209.94
220.51
231.76
242.90
252.69
259.62
262.14
258.83
248.64
231.12
206.48
175.63
139.82
100.14
57.09
10.65
-38.95
-90.28
-140.09
-183.71
-216.42
-235.31
-240.47
-234.90
-223.20
-209.63
-196.75
-185.08
-173.90
-162.49
-150.92
-140.04
-130.80
-123.52
-117.57
-111.75
-104.96
-96.77
-87.55
-78.33
-70.14
-63.59
-58.60
-54.56
-50.67
-46.33
-41.43
-36.27
-31.39
-27.26
-24.03
-21.53
-19.39
-17.24
-14.89
-12.36
-9.84
-7.57
-5.73
-4.36
-3.40
-2.68
-2.05
-1.40
-0.68
0.04
0.65
1.00
1.01
0.71
0.22
-0.25
-0.52
-0.49
-0.17
0.29
0.73
1.00
1.05
0.91
0.66
0.36
0.08
-0.14
-0.31
-0.43
-0.50
-0.54
-0.52
-0.42
-0.23
0.04
0.30
0.46
0.48
0.36
0.21
0.11
0.12
0.19
0.23
0.11
-0.18
-0.58
-0.94
-1.12
-1.06
-0.77
-0.32
0.19
0.68
1.07
1.30
1.34
1.16
0.82
0.38
-0.01
-0.22
-0.19
0.05
0.37
0.59
0.57
0.25
-0.30
-0.92
-1.42
-1.64
-1.49
-1.01
-0.34
0.35
0.87
1.14
1.20
1.10
0.94
0.73
0.45
0.06
-0.38
-0.79
-1.05
-1.11
-1.04
-0.98
-1.05
-1.29
-1.60
-1.83
-1.82
-1.55
-1.08
-0.56
-0.12
0.15
0.27
0.29
0.23
0.08
-0.16
-0.43
-0.56
-0.34
0.38
1.59
3.08
4.50
5.50
5.89
5.65
4.93
3.89
2.70
1.48
0.35
-0.55
-1.12
-1.32
-1.26
-1.11
-1.01
-1.03
-1.18
-1.41
-1.67
-1.96
-2.29
-2.64
-2.98
-3.23
-3.36
-3.35
-3.22
-3.02
-2.77
-2.46
-2.07
-1.58
-1.01
-0.43
0.10
0.56
1.00
1.51
2.18
3.01
3.87
4.50
4.66
4.26
3.43
2.50
1.82
1.62
1.87
2.30
2.59
2.52
2.04
1.31
0.53
-0.14
-0.68
-1.14
-1.62
-2.15
-2.69
-3.13
-3.36
-3.32
-3.02
-2.55
-2.03
-1.59
-1.28
-1.10
-1.00
-0.87
-0.60
-0.15
0.50
1.26
2.02
2.68
3.12
3.27
3.12
2.70
2.12
1.51
1.00
0.67
0.50
0.35
0.05
-0.48
-1.23
-2.03
-2.72
-3.15
-3.30
-3.25
-3.08
-2.89
-2.67
-2.40
-2.06
-1.65
-1.18
-0.68
-0.17
0.33
0.79
1.20
1.62
2.14
2.84
3.67
4.43
4.81
4.59
3.75
2.55
1.42
0.75
0.69
1.07
1.53
1.70
1.43
0.78
0.02
-0.64
-1.10
-1.44
-1.83
-2.35
-2.95
-3.44
-3.66
-3.53
-3.15
-2.70
-2.35
-2.16
-2.03
-1.82
-1.40
-0.77
-0.00
0.79
1.51
2.15
2.70
3.09
3.25
3.11
2.66
2.06
1.49
1.15
1.06
1.12
1.12
0.89
0.35
-0.43
-1.27
-2.05
-2.68
-3.18
-3.61
-4.00
-4.31
-4.44
-4.25
-3.64
-2.61
-1.34
-0.07
0.95
1.57
1.83
1.88
1.92
2.09
2.42
2.87
3.37
3.87
4.31
4.60
4.61
4.24
3.47
2.46
1.45
0.71
0.39
0.46
0.70
0.87
0.77
0.31
-0.41
-1.23
-1.98
-2.58
-3.02
-3.34
-3.60
-3.80
-3.87
-3.74
-3.39
-2.88
-2.34
-1.90
-1.62
-1.44
-1.22
-0.81
-0.11
0.85
1.89
2.82
3.42
3.59
3.32
2.76
2.07
1.45
1.07
0.97
1.13
1.41
1.61
1.56
1.16
0.44
-0.43
-1.24
-1.79
-2.03
-2.06
-2.03
-2.09
-2.24
-2.39
-2.38
-2.11
-1.66
-1.16
-0.80
-0.66
-0.71
-0.80
-0.79
-0.65
-0.46
-0.27
-0.07
0.29
0.93
1.82
2.66
3.04
2.67
1.59
0.25
-0.74
-0.97
-0.47
0.34
0.87
0.76
0.00
-1.05
-1.97
-2.53
-2.72
-2.71
-2.69
-2.72
-2.78
-2.85
-2.99
-3.25
-3.66
-4.10
-4.29
-3.98
-3.09
-1.75
-0.33
0.73
1.08
0.62
-0.52
-1.97
-3.26
-3.92
-3.68
-2.55
-0.84
0.86
1.96
2.10
1.39
0.43
0.06
1.00
3.41
6.84
10.35
12.88
13.72
12.76
10.37
7.18
3.72
0.27
-3.04
-6.07
-8.49
-9.85
-9.80
-8.45
-6.35
-4.33
-3.12
-3.05
-3.93
-5.29
-6.68
-7.86
-8.88
-9.83
-10.69
-11.19
-10.97
-9.73
-7.40
-4.20
-0.58
2.90
5.64
7.14
7.18
5.79
3.34
0.44
-2.27
-4.23
-5.00
-4.31
-2.08
1.51
5.98
10.60
14.60
17.43
19.05
19.84
20.32
20.80
21.16
20.87
19.46
16.79
13.24
9.49
6.19
3.64
1.74
0.16
-1.36
-2.88
-4.21
-5.11
-5.46
-5.34
-5.02
-4.78
-4.77
-4.95
-5.12
-5.07
-4.67
-4.02
-3.38
-3.08
-3.37
-4.31
-5.69
-7.14
-8.26
-8.75
-8.55
-7.77
-6.65
-5.45
-4.32
-3.33
-2.46
-1.70
-1.00
-0.37
0.24
0.85
1.51
2.22
2.96
3.67
4.30
4.80
5.17
5.41
5.49
5.40
5.09
4.51
3.66
2.57
1.31
0.00
-1.20
-2.18
-2.81
-3.09
-3.11
-3.03
-3.10
-3.48
-4.16
-4.93
-5.43
-5.27
-4.28
-2.60
-0.67
0.94
1.74
1.50
0.33
-1.40
-3.29
-5.04
-6.55
-7.92
-9.36
-11.02
-12.93
-14.98
-16.97
-18.73
-20.20
-21.52
-22.99
-25.01
-27.88
-31.72
-36.36
-41.36
-46.22
-50.53
-54.24
-57.67
-61.51
-66.47
-72.99
-81.01
-89.98
-99.15
-107.93
-116.21
-124.39
-133.14
-143.15
-154.85
-168.47
-183.96
-200.78
-217.58
-231.97
-240.71
-240.54
-229.31
-206.77
-174.77
-136.31
-94.26
-50.20
-4.32
43.61
92.87
140.84
183.36
216.16
236.72
245.26
244.50
238.27
229.91
221.38
213.30
205.77
199.19
194.42
192.28
192.83
195.06
197.27
197.95
196.54
193.76
191.08
190.06
191.46
195.04
199.68
204.00
207.04
208.57
209.22
210.12
212.43
216.92
223.66
231.78
239.45
244.13
243.04
233.98
216.04
189.88
157.46
121.17
82.89
43.26
1.69
-42.77
-90.20
-138.80
-184.78
-223.32
-250.24
-263.59
-264.31
-255.73
-242.10
-226.99
-212.29
-198.33
-184.72
-171.32
-158.61
-147.45
-138.33
-130.95
-124.24
-116.95
-108.32
-98.44
-88.17
-78.69
-70.86
-64.95
-60.49
-56.64
-52.53
-47.67
-42.12
-36.39
-31.15
-26.92
-23.86
-21.75
-20.11
-18.43
-16.40
-13.98
-11.36
-8.86
-6.77
-5.20
-4.14
-3.40
-2.75
-2.01
-1.11
-0.11
0.81
1.48
1.78
1.72
1.38
0.96
0.60
0.39
0.33
0.38
0.48
0.57
0.60
0.54
0.38
0.14
-0.11
-0.25
-0.24
-0.07
0.16
0.28
0.22
-0.06
-0.46
-0.81
-1.00
-0.97
-0.74
-0.37
0.04
0.47
0.89
1.27
1.57
1.74
1.70
1.44
0.96
0.39
-0.14
-0.47
-0.51
-0.27
0.14
0.53
0.76
0.71
0.38
-0.14
-0.71
-1.17
-1.45
-1.53
-1.49
-1.39
-1.29
-1.20
-1.13
-1.09
-1.11
-1.24
-1.51
-1.92
-2.41
-2.97
-3.60
-4.33
-5.16
-6.01
-6.74
-7.21
-7.35
-7.16
-6.76
-6.28
-5.80
-5.34
-4.78
-3.97
-2.73
-0.89
1.64
4.87
8.60
12.47
15.93
18.37
19.29
18.48
16.07
12.54
8.57
4.84
1.80
-0.34
-1.62
-2.19
-2.21
-1.81
-1.14
-0.35
0.37
0.88
1.09
1.03
0.79
0.46
0.06
-0.45
-1.11
-1.88
-2.65
-3.23
-3.53
-3.56
-3.49
-3.51
-3.73
-4.12
-4.50
-4.62
-4.28
-3.34
-1.78
0.33
2.81
5.28
7.28
8.34
8.23
7.06
5.30
3.59
2.43
2.01
2.13
2.40
2.44
2.07
1.31
0.34
-0.65
-1.58
-2.43
-3.22
-3.88
-4.36
-4.57
-4.46
-4.11
-3.63
-3.18
-2.88
-2.80
-2.87
-2.96
-2.87
-2.40
-1.42
0.10
2.03
4.09
5.86
6.97
7.12
6.27
4.62
2.57
0.59
-0.93
-1.80
-2.06
-1.92
-1.63
-1.33
-1.06
-0.81
-0.58
-0.44
-0.55
-1.02
-1.87
-2.93
-3.90
-4.52
-4.60
-4.18
-3.41
-2.50
-1.64
-0.90
-0.27
0.31
0.92
1.64
2.52
3.55
4.64
5.58
6.11
5.99
5.21
3.97
2.66
1.71
1.35
1.52
1.92
2.13
1.85
1.04
-0.12
-1.34
-2.35
-3.06
-3.53
-3.87
-4.18
-4.44
-4.57
-4.45
-4.04
-3.40
-2.69
-2.03
-1.52
-1.15
-0.80
-0.33
0.40
1.42
2.72
4.17
5.56
6.59
6.93
6.35
4.82
2.56
0.02
-2.24
-3.79
-4.44
-4.31
-3.74
-3.04
-2.41
-1.84
-1.28
-0.71
-0.26
-0.18
-0.66
-1.70
-3.03
-4.21
-4.79
-4.58
-3.66
-2.39
-1.17
-0.31
0.15
0.33
0.42
0.62
1.00
1.62
2.48
3.58
4.82
5.96
6.68
6.71
5.96
4.64
3.20
2.12
1.64
1.73
2.04
2.20
1.96
1.31
0.46
-0.35
-0.97
-1.43
-1.88
-2.44
-3.13
-3.84
-4.39
-4.64
-4.57
-4.26
-3.85
-3.47
-3.12
-2.76
-2.29
-1.64
-0.81
0.16
1.22
2.30
3.32
4.12
4.55
4.43
3.72
2.55
1.22
0.11
-0.50
-0.55
-0.24
0.07
0.06
-0.42
-1.25
-2.10
-2.68
-2.82
-2.59
-2.23
-1.97
-1.92
-2.01
-2.09
-2.05
-1.86
-1.57
-1.25
-0.87
-0.35
0.36
1.22
2.10
2.88
3.50
4.05
4.61
5.19
