1659459164.00
64.000000
-0.00
-0.00
-0.00
-0.00
-0.00
-0.00
-0.00
-0.00
-0.00
-0.00
0.00
0.01
0.01
-0.00
-0.03
-0.05
-0.05
0.00
0.13
0.36
0.66
1.01
1.37
1.72
2.06
2.40
2.79
3.24
3.80
4.42
5.06
5.66
6.20
6.68
7.15
7.68
8.31
9.14
10.09
11.04
11.88
12.56
13.14
13.76
14.65
15.96
17.91
20.32
22.90
25.38
27.58
29.57
31.68
34.32
37.81
42.54
48.15
54.11
59.84
64.98
69.59
74.14
79.34
85.70
93.76
103.01
112.65
121.78
129.81
136.76
143.23
150.54
157.42
166.16
177.37
191.18
206.36
219.96
227.63
224.68
207.73
175.94
131.72
78.95
21.98
-35.98
-93.45
-150.23
-206.49
-261.93
-315.64
-366.06
-412.16
-453.21
-488.69
-517.88
-539.56
-552.07
-553.64
-542.99
-519.64
-484.57
-439.83
-388.20
-332.67
-275.83
-219.64
-165.28
-113.46
-64.53
-19.06
22.20
58.33
88.49
112.20
129.60
141.48
149.07
153.70
156.36
157.55
157.25
155.16
150.97
144.51
135.71
124.66
111.88
98.64
87.17
80.26
80.24
87.76
101.15
116.79
130.47
138.96
141.11
137.76
130.84
122.09
112.47
102.24
91.53
80.82
71.12
63.14
57.04
52.31
48.04
43.42
38.06
32.19
26.43
21.45
17.61
14.97
13.22
11.89
10.50
8.74
6.52
4.02
1.61
-0.33
-1.54
-2.02
-2.07
-2.10
-2.48
-3.29
-4.31
-5.14
-5.44
-5.08
-4.17
-2.95
-1.65
-0.40
0.71
1.55
1.95
1.76
1.00
-0.11
-1.30
-2.30
-3.04
-3.59
-4.08
-4.52
-4.83
-4.82
-4.46
-3.83
-3.19
-2.80
-2.76
-2.99
-3.28
-3.41
-3.29
-2.96
-2.62
-2.46
-2.55
-2.82
-3.06
-3.07
-2.72
-2.08
-1.39
-0.91
-0.79
-1.00
-1.26
-1.28
-0.86
0.00
1.12
2.28
3.31
4.22
5.06
5.93
6.83
7.69
8.42
8.97
9.36
9.63
9.77
9.67
9.19
8.23
6.77
5.01
3.05
1.06
-0.84
-2.60
-4.25
-5.80
-7.29
-8.71
-10.00
-11.08
-11.88
-12.33
-12.41
-12.20
-11.78
-11.22
-10.57
-9.86
-9.17
-8.54
-8.04
-7.68
-7.40
-7.04
-6.47
-5.64
-4.57
-3.38
-2.17
-0.98
0.24
1.57
3.02
4.52
5.85
6.74
6.98
6.49
5.38
3.89
2.32
0.93
-0.12
-0.83
-1.28
-1.62
-1.97
-2.34
-2.70
-2.96
-3.03
-2.90
-2.64
-2.37
-2.20
-2.15
-2.16
-2.13
-2.01
-1.81
-1.63
-1.61
-1.82
-2.23
-2.73
-3.13
-3.29
-3.15
-2.78
-2.37
-2.17
-2.35
-3.00
-4.01
-5.16
-6.13
-6.64
-6.49
-5.65
-4.27
-2.61
-0.98
0.39
1.42
2.20
2.89
3.65
4.46
5.18
5.60
5.55
5.02
4.13
3.11
2.12
1.24
0.45
-0.26
-0.86
-1.28
-1.40
-1.19
-0.70
-0.07
0.52
0.95
1.17
1.16
0.97
0.58
-0.00
-0.78
-1.66
-2.50
-3.16
-3.56
-3.73
-3.83
-4.06
-4.58
-5.38
-6.26
-6.93
-7.14
-6.79
-5.98
-4.94
-3.88
-2.92
-1.98
-0.92
0.35
1.80
3.21
4.32
4.90
4.93
4.55
4.02
3.59
3.40
3.45
3.64
3.87
4.04
4.15
4.25
4.37
4.52
4.65
4.65
4.40
3.80
2.84
1.65
0.43
-0.59
-1.25
-1.57
-1.66
-1.72
-1.90
-2.24
-2.73
-3.31
-3.93
-4.59
-5.28
-5.90
-6.28
-6.20
-5.53
-4.33
-2.80
-1.27
-0.00
0.89
1.46
1.92
2.44
3.11
3.86
4.48
4.78
4.69
4.28
3.75
3.33
3.14
3.16
3.25
3.28
3.16
2.93
2.69
2.53
2.42
2.25
1.91
1.32
0.56
-0.19
-0.78
-1.09
-1.16
-1.10
-1.08
-1.21
-1.51
-1.92
-2.38
-2.82
-3.21
-3.59
-3.97
-4.33
-4.61
-4.66
-4.34
-3.54
-2.32
-0.85
0.63
1.90
2.86
3.55
4.04
4.37
4.49
4.31
3.81
3.09
2.40
1.97
1.92
2.17
2.51
2.74
2.78
2.71
2.69
2.84
3.10
3.28
3.17
2.66
1.83
0.89
0.08
-0.45
-0.71
-0.81
-0.90
-1.09
-1.40
-1.83
-2.36
-3.00
-3.75
-4.58
-5.37
-5.94
-6.08
-5.62
-4.54
-2.95
-1.17
0.44
1.58
2.12
2.20
2.13
2.21
2.60
3.20
3.73
3.89
3.53
2.80
2.06
1.64
1.70
2.12
2.54
2.65
2.35
1.79
1.29
1.10
1.27
1.60
1.82
1.68
1.17
0.46
-0.22
-0.71
-0.99
-1.19
-1.43
-1.79
-2.23
-2.66
-3.01
-3.29
-3.61
-4.06
-4.66
-5.25
-5.57
-5.34
-4.44
-3.00
-1.36
0.09
1.07
1.56
1.75
1.93
2.32
2.95
3.65
4.15
4.25
3.94
3.39
2.90
2.71
2.91
3.34
3.68
3.66
3.14
2.26
1.32
0.62
0.28
0.21
0.20
0.02
-0.38
-0.88
-1.28
-1.45
-1.40
-1.30
-1.34
-1.65
-2.22
-2.93
-3.61
-4.17
-4.55
-4.77
-4.88
-4.85
-4.65
-4.22
-3.50
-2.52
-1.36
-0.21
0.78
1.52
2.04
2.47
2.98
3.64
4.34
4.85
4.92
4.46
3.62
2.77
2.29
2.36
2.82
3.33
3.52
3.23
2.58
1.89
1.46
1.39
1.54
1.66
1.52
1.10
0.55
0.12
-0.04
0.09
0.32
0.41
0.19
-0.40
-1.26
-2.18
-2.95
-3.48
-3.78
-3.92
-3.99
-3.97
-3.75
-3.22
-2.30
-1.07
0.28
1.54
2.53
3.17
3.53
3.69
3.75
3.76
3.66
3.41
3.01
2.53
2.11
1.90
1.97
2.23
2.50
2.58
2.36
1.90
1.38
1.01
0.91
1.09
1.37
1.55
1.46
1.02
0.34
-0.42
-1.05
-1.39
-1.46
-1.38
-1.35
-1.51
-1.91
-2.46
-3.04
-3.56
-4.04
-4.54
-5.11
-5.66
-5.97
-5.79
-4.95
-3.49
-1.64
0.24
1.82
2.95
3.68
4.15
4.50
4.79
4.95
4.86
4.46
3.79
3.03
2.34
1.86
1.59
1.45
1.33
1.19
1.07
1.05
1.14
1.22
1.10
0.59
-0.33
-1.48
-2.47
-2.95
-2.74
-1.94
-0.95
-0.21
-0.03
-0.40
-1.01
-1.47
-1.49
-1.17
-0.89
-1.17
-2.27
-4.04
-5.82
-6.73
-6.12
-4.03
-1.30
0.65
0.44
-2.55
-7.80
-13.71
-18.27
-20.00
-18.57
-15.00
-11.13
-8.80
-9.04
-12.02
-17.42
-24.97
-34.59
-46.10
-58.74
-70.90
-80.81
-87.46
-91.16
-93.04
-93.72
-91.88
-84.05
-66.11
-35.88
4.72
49.59
90.78
122.12
142.19
154.69
166.14
182.21
204.77
231.24
256.30
274.86
284.29
285.12
279.76
270.76
259.35
245.31
227.93
207.29
184.97
163.70
146.34
134.53
127.91
124.20
120.16
112.95
101.25
85.69
68.38
51.95
38.34
28.19
20.83
14.85
8.99
2.71
-3.62
-9.16
-13.15
-15.48
-16.79
-18.11
-20.27
-23.37
-26.73
-29.24
-30.06
-29.20
-27.68
-27.13
-29.01
-33.93
-41.31
-49.63
-57.05
-62.16
-64.38
-64.01
-61.84
-58.81
-55.81
-53.69
-53.29
-55.36
-60.51
-69.08
-81.40
-97.96
-119.35
-145.73
-175.81
-206.28
-232.19
-248.43
-251.73
-242.00
-222.25
-197.19
-171.20
-147.02
-125.53
-106.24
-88.00
-69.40
-49.19
-26.89
-3.79
16.38
28.10
26.09
8.18
-22.94
-60.10
-94.40
-118.80
-130.54
-131.33
-125.38
-116.80
-107.92
-99.22
-90.46
-81.90
-74.75
-70.52
-69.95
-72.18
-74.91
-75.32
-71.43
-63.01
-51.66
-40.18
-31.23
-26.25
-24.95
-25.61
-26.04
-24.61
-20.99
-16.17
-11.84
-9.58
-10.05
-12.64
-15.71
-17.29
-16.05
-11.94
-6.17
-0.54
3.52
5.55
5.97
5.47
4.45
2.82
0.60
-1.61
-2.59
-1.11
3.05
8.72
13.78
16.37
16.01
13.88
12.02
12.03
14.15
17.25
19.65
20.20
18.85
16.52
14.49
13.67
14.17
15.53
17.14
18.68
20.38
22.79
26.28
30.62
34.72
37.07
36.46
32.71
26.91
20.92
16.46
14.21
13.55
13.00
11.22
7.82
3.63
0.07
-1.74
-1.84
-1.51
-2.65
-6.70
-13.83
-22.80
-31.58
-38.24
-41.62
-41.52
-38.37
-32.85
-25.62
-17.29
-8.63
-0.55
6.15
11.06
14.39
16.90
19.50
22.95
27.68
33.78
41.01
48.65
55.36
59.47
59.66
55.81
49.38
42.68
37.73
35.12
33.72
31.41
26.43
18.43
8.64
-0.89
-8.42
-13.23
-15.70
-16.86
-17.91
-19.83
-23.29
-28.56
-35.38
-42.92
-50.04
-55.68
-59.26
-60.98
-61.73
-62.87
-65.67
-70.60
-76.80
-81.94
-82.92
-77.01
-63.19
-42.81
-19.19
3.72
22.87
37.07
46.91
53.76
58.71
62.04
63.34
62.16
58.51
53.15
47.35
42.55
39.88
39.81
41.87
44.77
46.82
46.63
43.75
39.00
34.03
30.50
29.20
29.76
31.06
32.06
32.49
32.87
34.00
36.20
38.96
41.26
42.12
41.11
38.29
33.98
28.42
21.82
14.70
8.13
3.54
2.05
3.76
7.32
10.25
9.79
3.90
-8.03
-24.94
-44.57
-64.09
-80.99
-93.59
-101.37
-104.99
-105.88
-105.72
-105.66
-105.80
-104.93
-100.78
-90.88
-73.62
-49.24
-20.12
9.91
36.77
57.54
71.21
78.51
81.06
80.30
77.01
71.48
64.14
56.02
48.75
44.03
42.78
44.65
48.11
51.07
51.80
49.65
45.24
40.11
35.95
33.92
34.24
36.28
38.96
41.26
42.52
42.58
41.74
40.67
40.18
40.89
42.88
45.46
47.37
47.29
44.53
39.35
32.90
26.61
21.51
17.89
15.22
12.41
8.01
0.33
-12.32
-31.06
-55.73
-84.27
-112.92
-137.21
-153.46
-160.01
-157.55
-148.45
-135.64
-121.48
-107.16
-92.71
-77.38
-60.27
-40.82
-19.15
3.87
26.85
48.21
66.58
81.10
91.35
97.22
98.74
96.14
90.09
81.83
72.98
65.07
59.05
54.93
52.01
49.36
46.39
43.06
39.73
36.81
34.48
32.54
30.71
28.94
27.59
27.44
29.29
33.59
40.06
47.69
54.84
59.62
60.42
56.33
47.63
35.85
23.51
13.34
7.25
5.55
6.77
8.29
7.29
1.65
-9.66
-26.58
-48.06
-72.16
-96.20
-117.13
-132.25
-139.94
-140.17
-134.20
-123.99
-111.33
-97.54
-83.52
-70.11
-58.11
-47.96
-39.25
-30.61
-20.22
-6.73
9.92
28.37
46.38
61.81
73.37
80.75
84.39
84.91
82.87
78.64
72.50
64.90
56.57
48.56
41.82
36.88
33.86
32.80
33.83
37.23
43.29
52.01
63.00
75.00
86.08
94.49
99.55
101.93
103.07
104.35
106.36
108.99
111.27
111.76
109.56
105.16
100.02
95.51
91.92
88.04
82.00
71.62
55.08
32.12
4.77
-23.60
-50.43
-75.21
-101.67
-130.15
-157.16
-178.68
-193.52
-202.49
-207.02
-207.93
-204.26
-193.03
-172.78
-140.90
-98.70
-52.73
-11.17
19.47
36.87
43.53
45.09
47.25
49.69
48.33
35.83
7.70
-33.42
-77.71
-112.06
-125.72
-114.46
-82.26
-36.38
9.46
42.80
60.03
66.46
69.61
73.09
76.19
76.02
70.85
61.09
50.73
45.41
49.01
60.96
75.76
86.70
85.24
66.06
28.60
-21.89
-76.46
-126.35
-165.74
-192.03
-204.01
-200.90
-181.50
-145.57
-94.85
-34.19
28.51
83.67
121.44
137.10
132.68
115.93
96.36
81.13
72.52
68.01
62.95
53.92
41.03
26.74
13.56
1.78
-10.46
-25.36
-43.29
-62.04
-77.89
-87.40
-89.19
-84.15
-74.49
-62.51
-49.61
-36.48
-23.84
-12.93
-4.98
-0.30
2.78
8.08
20.33
42.92
75.61
113.17
146.43
165.77
165.34
145.92
114.49
80.75
52.67
33.06
19.18
5.25
-13.24
-36.68
-60.34
-77.25
-83.33
-80.13
-73.07
-67.74
-66.76
-68.79
-70.28
-67.96
-61.04
-51.68
-43.60
-39.87
-41.43
-46.71
-52.44
-55.51
-54.21
-49.04
-42.38
-37.36
-36.49
-41.02
-51.23
-64.83
-78.63
-88.72
-91.45
-84.60
-68.46
-46.02
-22.21
-1.99
11.42
17.27
17.22
13.90
9.32
4.22
-1.56
-8.15
-14.70
-19.69
-21.97
-21.29
-18.52
-14.92
-11.18
-6.44
-0.35
8.87
22.60
40.68
61.16
80.80
96.10
104.39
104.60
97.35
84.84
69.79
54.59
40.91
29.51
20.44
13.46
8.37
5.14
4.13
5.55
9.23
14.59
20.80
26.97
32.39
36.62
39.38
40.67
40.52
39.01
36.38
33.00
29.32
25.78
22.66
20.06
18.03
16.49
15.30
14.35
13.50
12.69
11.95
11.45
11.47
12.31
14.13
16.81
19.88
22.64
24.39
24.66
23.37
20.80
17.44
13.65
9.60
5.19
0.36
-4.77
-9.82
-14.27
-17.68
-19.84
-20.79
-20.66
-19.55
-17.49
-14.55
-11.02
-7.44
-4.54
-2.95
-2.98
-4.47
-6.85
-9.38
-11.40
-12.60
-13.08
-13.25
-13.55
-14.27
-15.33
-16.34
-16.82
-16.42
-15.11
-13.16
-10.95
-8.80
-6.93
-5.47
-4.59
-4.51
-5.38
-7.15
-9.41
-11.53
-12.80
-12.79
-11.51
-9.40
-7.11
-5.22
-4.05
-3.58
-3.55
-3.61
-3.42
-2.80
-1.70
-0.28
1.22
2.50
3.26
3.37
2.90
2.14
1.46
1.17
1.28
1.55
1.54
0.89
-0.51
-2.43
-4.41
-5.96
-6.71
-6.45
-5.17
-3.02
-0.25
2.71
5.33
7.10
7.70
7.17
5.92
4.53
3.47
2.84
2.32
1.38
-0.39
-3.03
-6.12
-8.98
-10.99
-11.80
-11.50
-10.43
-9.06
-7.77
-6.85
-6.47
-6.74
-7.67
-9.10
-10.68
-11.99
-12.62
-12.39
-11.37
-9.80
-7.88
-5.57
-2.66
1.17
6.02
11.69
17.71
23.43
28.36
32.20
34.86
36.36
36.68
35.84
33.95
31.29
28.30
25.35
22.54
19.61
16.09
11.63
6.25
0.49
-4.81
-8.82
-11.14
-11.87
-11.58
-10.92
-10.38
-10.15
-10.16
-10.28
-10.48
-10.87
-11.65
-12.97
-14.74
-16.68
-18.31
-19.18
-19.04
-17.98
-16.37
-14.77
-13.63
-13.17
-13.28
-13.55
-13.55
-12.95
-11.67
-9.82
-7.73
-5.72
-4.16
-3.35
-3.50
-4.66
-6.61
-8.81
-10.54
-11.06
-9.99
-7.45
-4.03
-0.57
2.29
4.29
5.55
6.31
6.62
6.23
4.76
2.08
-1.49
-5.11
-7.82
-8.89
-8.19
-6.07
-3.20
-0.22
2.40
4.36
5.42
5.38
4.14
1.82
-1.22
-4.37
-7.00
-8.55
-8.69
-7.32
-4.68
-1.22
2.38
5.45
7.49
8.27
7.95
6.88
5.49
4.10
2.88
1.89
1.19
0.93
1.36
2.74
5.17
8.52
12.39
16.13
19.02
20.46
20.17
18.20
14.98
11.10
7.17
3.73
1.14
-0.40
-0.84
-0.35
0.67
1.73
2.28
1.96
0.74
-1.12
-3.12
-4.74
-5.62
-5.63
-4.82
-3.30
-1.27
1.04
3.28
5.01
5.90
5.88
5.22
4.46
4.14
4.53
5.50
6.58
7.20
6.97
5.87
4.22
2.54
1.37
1.00
1.42
2.29
3.10
3.42
3.02
2.01
0.71
-0.51
-1.42
-1.95
-2.20
-2.25
-2.14
-1.87
-1.45
-1.03
-0.83
-1.09
-1.94
-3.36
-5.16
-7.06
-8.77
-10.01
-10.53
-10.14
-8.83
-6.77
-4.35
-2.05
-0.30
0.67
0.83
0.36
-0.53
-1.71
-3.10
-4.63
-6.15
-7.40
-8.09
-7.99
-7.04
-5.38
-3.28
-1.05
1.05
2.85
4.24
5.12
5.37
4.94
3.89
2.41
0.84
-0.48
-1.30
-1.51
-1.21
-0.62
-0.04
0.26
0.04
-0.80
-2.26
-4.15
-6.18
-7.92
-8.88
-8.64
-7.00
-4.12
-0.60
2.72
5.00
5.76
5.01
3.25
1.14
-0.75
-2.17
-3.14
-3.83
-4.35
-4.69
-4.77
-4.55
-4.02
-3.24
-2.33
-1.41
-0.71
-0.48
-0.98
-2.28
-4.21
-6.31
-8.06
-9.09
-9.30
-8.90
-8.15
-7.18
-5.90
-4.11
-1.75
0.84
3.05
4.15
3.74
1.99
-0.41
-2.45
-3.29
-2.54
-0.37
2.65
5.81
8.55
10.56
11.76
12.16
11.72
10.38
8.12
5.11
1.72
-1.52
-4.03
-5.38
-5.36
-4.03
-1.63
1.44
4.65
7.46
9.39
10.07
9.42
7.59
5.00
2.13
-0.50
-2.57
-3.89
-4.43
-4.22
-3.35
-1.93
-0.13
1.82
3.58
4.80
5.18
4.64
3.44
2.10
1.28
1.53
3.08
5.73
8.93
12.00
14.30
15.50
15.57
14.72
13.26
11.43
9.38
7.15
4.76
2.31
0.03
-1.79
-2.85
-2.98
-2.18
-0.70
1.01
2.46
3.17
2.89
1.63
-0.34
-2.55
-4.52
-5.90
-6.56
-6.56
-6.11
-5.48
-4.84
-4.27
-3.76
-3.27
-2.79
-2.39
-2.20
-2.29
-2.66
-3.16
-3.51
-3.47
-2.90
-1.89
-0.73
0.24
0.74
0.65
0.03
-1.00
-2.31
-3.84
-5.59
-7.49
-9.39
-11.05
-12.20
-12.63
-12.27
-11.18
-9.52
-7.55
-5.59
-3.99
-3.08
-3.07
-3.90
-5.25
-6.61
-7.44
-7.36
-6.37
-4.74
-2.94
-1.44
-0.47
-0.01
0.14
0.23
0.37
0.54
0.61
0.46
0.10
-0.29
-0.46
-0.16
0.67
1.94
3.36
4.60
5.36
5.47
4.94
3.95
2.76
1.68
0.89
0.43
0.18
-0.05
-0.39
-0.76
-0.90
-0.44
0.88
3.02
5.58
7.86
9.17
9.04
7.51
5.01
2.28
-0.01
-1.48
-2.11
-2.16
-1.94
-1.69
-1.47
-1.25
-1.00
-0.82
-0.88
-1.33
-2.23
-3.44
-4.72
-5.78
-6.40
-6.42
-5.79
-4.58
-2.95
-1.13
0.58
1.94
2.75
2.96
2.64
1.92
0.96
-0.13
-1.30
-2.49
-3.62
-4.50
-4.87
-4.45
-3.09
-0.86
1.87
4.52
6.48
7.35
7.05
5.95
4.72
4.07
4.53
6.21
8.75
11.54
13.92
15.41
15.89
15.49
14.49
13.17
11.69
10.09
8.35
6.42
4.28
1.93
-0.55
-2.96
-4.98
-6.27
-6.55
-5.74
-4.05
-1.93
0.07
1.43
1.86
1.33
0.08
-1.54
-3.15
-4.42
-5.18
-5.31
-4.81
-3.75
-2.27
-0.59
1.06
2.42
3.29
3.54
3.13
2.11
0.65
-0.98
-2.47
-3.53
-4.05
-4.13
-4.01
-4.02
-4.36
-5.06
-6.00
-7.00
-7.90
-8.60
-9.05
-9.20
-9.02
-8.49
-7.65
-6.58
-5.36
-4.01
-2.51
-0.86
0.85
2.45
3.75
4.65
5.21
5.63
6.06
6.55
6.91
6.91
6.41
5.59
4.90
4.89
5.90
7.85
10.20
12.19
13.14
12.69
10.88
8.12
4.99
2.09
-0.14
-1.43
-1.74
-1.27
-0.39
0.44
0.81
0.51
-0.50
-1.99
-3.63
-5.01
-5.79
-5.73
-4.79
-3.10
-0.97
1.23
3.21
4.77
5.82
6.33
6.29
5.71
4.65
3.26
1.77
0.42
-0.64
-1.31
-1.60
-1.46
-0.84
0.37
2.15
4.33
6.57
8.38
9.33
9.16
7.85
5.64
2.97
0.38
-1.64
-2.75
-2.90
-2.24
-1.11
0.10
1.12
1.79
2.12
2.19
2.03
1.66
1.00
0.03
-1.22
-2.56
-3.72
-4.46
-4.63
-4.22
-3.31
-2.04
-0.58
0.86
2.03
2.66
2.57
1.73
0.35
-1.21
-2.54
-3.34
-3.54
-3.22
-2.53
-1.63
-0.59
0.54
1.75
2.96
4.02
4.69
4.78
4.17
2.93
1.33
-0.25
-1.47
-2.15
-2.30
-2.09
-1.75
-1.46
-1.30
-1.26
-1.24
-1.16
-0.98
-0.78
-0.71
-0.96
-1.56
-2.41
-3.20
-3.62
-3.48
-2.78
-1.72
-0.55
0.48
1.17
1.39
1.01
0.04
-1.41
-3.04
-4.48
-5.39
-5.60
-5.16
-4.28
-3.20
-2.10
-1.09
-0.16
0.76
1.68
2.61
3.44
4.00
4.10
3.66
2.71
1.47
0.22
-0.76
-1.30
-1.34
-0.94
-0.21
0.68
1.53
2.14
2.37
2.20
1.74
1.19
0.71
0.37
0.10
-0.24
-0.86
-1.95
-3.69
-6.15
-9.23
-12.61
-15.69
-17.89
-18.79
-18.44
-17.25
-15.82
-14.58
-13.58
-12.45
-10.71
-8.03
-4.47
-0.44
3.49
6.86
9.45
11.27
12.45
13.11
13.29
12.95
12.05
10.64
8.86
6.98
5.24
3.81
2.76
2.00
1.41
0.88
0.36
-0.13
-0.54
-0.82
-0.98
-1.08
-1.20
-1.44
-1.92
-2.70
-3.79
-5.11
-6.45
-7.56
-8.18
-8.16
-7.42
-5.96
-3.88
-1.34
1.35
3.76
5.39
5.86
5.03
3.09
0.45
-2.37
-4.91
-6.84
-7.97
-8.18
-7.44
-5.84
-3.63
-1.10
1.42
3.71
5.62
7.05
7.89
8.08
7.65
6.85
6.03
5.55
5.55
5.91
6.35
6.61
6.61
6.47
6.34
6.28
6.18
5.83
5.08
3.88
2.42
0.97
-0.22
-0.97
-1.23
-1.11
-0.72
-0.19
0.41
1.03
1.58
1.94
1.91
1.34
0.22
-1.32
-2.96
-4.36
-5.20
-5.36
-4.87
-3.87
-2.60
-1.30
-0.11
0.95
1.97
3.07
4.28
5.45
6.24
6.23
5.14
3.00
0.16
-2.78
-5.16
-6.48
-6.58
-5.59
-3.97
-2.23
-0.88
-0.25
-0.47
-1.51
-3.27
-5.58
-8.23
-10.93
-13.29
-14.85
-15.22
-14.17
-11.79
-8.40
-4.53
-0.78
2.37
4.60
5.77
5.92
5.23
3.98
2.52
1.25
0.51
0.56
1.48
3.14
5.23
7.34
9.11
10.31
10.87
10.84
10.28
9.26
7.90
6.31
4.75
3.49
2.75
2.63
3.02
3.64
4.13
4.22
3.77
2.86
1.70
0.58
-0.31
-0.87
-1.14
-1.29
-1.45
-1.76
-2.22
-2.76
-3.23
-3.45
-3.26
-2.58
-1.45
-0.07
1.28
2.29
2.73
2.53
1.78
0.71
-0.41
-1.33
-1.90
-2.09
-1.98
-1.74
-1.51
-1.41
-1.48
-1.65
-1.82
-1.90
-1.87
-1.79
-1.77
-1.93
-2.31
-2.85
-3.40
-3.78
-3.88
-3.65
-3.18
-2.62
-2.13
-1.81
-1.65
-1.61
-1.61
-1.63
-1.70
-1.95
-2.45
-3.20
-4.05
-4.78
-5.18
-5.16
-4.76
-4.09
-3.25
-2.33
-1.36
-0.44
0.22
0.40
-0.06
-1.13
-2.52
-3.84
-4.76
-5.17
-5.22
-5.20
-5.30
-5.57
-5.81
-5.73
-5.12
-3.97
-2.53
-1.19
-0.34
-0.21
-0.78
-1.78
-2.82
-3.53
-3.72
-3.38
-2.69
-1.86
-1.07
-0.36
0.34
1.13
2.06
3.07
4.00
4.60
4.70
4.26
3.39
2.39
1.55
1.09
1.07
1.42
2.00
2.69
3.44
4.23
4.98
5.51
5.61
5.09
3.93
2.31
0.57
-0.90
-1.80
-2.02
-1.64
-0.90
-0.07
0.71
1.41
2.12
2.94
3.81
4.50
4.66
3.98
2.43
0.27
-1.98
-3.76
-4.70
-4.69
-3.94
-2.80
-1.65
-0.78
-0.30
-0.20
-0.31
-0.43
-0.41
-0.22
0.03
0.17
0.04
-0.40
-1.06
-1.74
-2.25
-2.47
-2.37
-1.96
-1.26
-0.31
0.78
1.83
2.57
2.73
2.15
0.88
-0.78
-2.32
-3.27
-3.34
-2.55
-1.20
0.29
1.61
2.70
3.69
4.75
5.91
6.98
7.61
7.46
6.42
4.66
2.63
0.83
-0.39
-0.92
-0.86
-0.48
0.03
0.55
1.07
1.60
2.09
2.41
2.44
2.10
1.45
0.65
-0.09
-0.57
-0.68
-0.40
0.26
1.25
2.50
3.89
5.24
6.27
6.70
6.33
5.14
3.30
1.20
-0.67
-1.94
-2.40
-2.11
-1.30
-0.25
0.80
1.72
2.50
3.14
3.62
3.87
3.75
3.17
2.12
0.73
-0.73
-1.95
-2.67
-2.80
-2.42
-1.75
-1.00
-0.37
0.08
0.28
0.29
0.13
-0.08
-0.27
-0.36
-0.37
-0.36
-0.44
-0.69
-1.13
-1.70
-2.29
-2.74
-2.87
-2.52
-1.59
-0.16
1.52
3.07
4.08
4.29
3.62
2.23
0.41
-1.43
-2.92
-3.77
-3.84
-3.20
-2.12
-0.94
0.02
0.66
1.03
1.28
1.58
1.99
2.47
2.96
3.42
3.87
4.42
5.16
6.14
7.35
8.70
10.05
11.28
12.34
13.25
14.03
14.63
14.96
14.85
14.19
13.04
11.57
10.10
8.84
7.89
7.26
6.87
6.65
6.50
6.23
5.55
4.17
1.92
-1.11
-4.47
-7.59
-9.93
-11.22
-11.54
-11.19
-10.51
-9.69
-8.71
-7.47
-5.99
-4.55
-3.72
-4.16
-6.39
-10.47
-16.02
-22.36
-28.74
-34.55
-39.37
-42.99
-45.25
-46.03
-45.27
-43.08
-39.77
-35.81
-31.69
-27.79
-24.26
-21.09
-18.21
-15.60
-13.31
-11.48
-10.25
-9.67
-9.71
-10.21
-11.03
-11.95
-12.73
-13.00
-12.43
-10.74
-7.95
-4.39
-0.68
2.51
4.68
5.64
5.56
4.75
3.64
2.61
2.04
2.26
3.55
5.99
9.38
13.30
17.16
20.40
22.58
23.46
22.98
21.25
18.61
15.52
12.59
10.33
9.08
8.84
9.30
9.99
10.46
10.41
9.79
8.71
7.37
6.00
4.75
3.72
2.89
2.22
1.65
1.16
0.78
0.58
0.63
0.93
1.44
2.10
2.84
3.68
4.61
5.56
6.37
6.82
6.69
5.90
4.56
3.00
1.60
0.73
0.58
1.16
2.29
3.70
5.15
6.43
7.44
8.11
8.41
8.26
7.64
6.56
5.16
3.69
2.41
1.52
1.07
0.90
0.83
0.71
0.51
0.32
0.25
0.34
0.48
0.46
0.04
-0.91
-2.26
-3.70
-4.76
-4.99
-4.17
-2.41
-0.14
1.98
3.34
3.54
2.52
0.61
-1.65
-3.65
-4.91
-5.12
-4.22
-2.36
0.16
3.00
5.77
8.19
10.03
11.21
11.69
11.56
10.97
10.12
9.24
8.50
7.94
7.51
7.11
6.66
6.19
5.76
5.45
5.25
5.12
4.96
4.72
4.36
3.85
3.14
2.19
0.98
-0.38
-1.72
-2.85
-3.66
-4.18
-4.54
-4.85
-5.14
-5.35
-5.39
-5.25
-5.02
-4.87
-4.95
-5.31
-5.85
-6.40
-6.82
-7.05
-7.13
-7.12
-7.03
-6.79
-6.27
-5.44
-4.38
-3.31
-2.48
-2.07
-2.11
-2.49
-3.05
-3.59
-3.99
-4.12
-3.90
-3.30
-2.39
-1.35
-0.43
0.17
0.38
0.29
0.11
0.02
0.10
0.29
0.40
0.25
-0.24
-0.99
-1.81
-2.50
-2.94
-3.13
-3.14
-3.04
-2.84
-2.51
-2.09
-1.64
-1.34
-1.32
-1.62
-2.14
-2.69
-3.01
-2.93
-2.40
-1.50
-0.42
0.63
1.45
1.95
2.14
2.14
2.10
2.07
2.05
1.91
1.53
0.87
-0.02
-1.04
-2.06
-2.98
-3.74
-4.25
-4.36
-3.99
-3.13
-1.97
-0.81
-0.02
0.16
-0.32
-1.27
-2.37
-3.29
-3.83
-3.99
-3.90
-3.79
-3.80
-3.92
-3.98
-3.75
-3.08
-1.99
-0.75
0.28
0.77
0.55
-0.30
-1.50
-2.73
-3.71
-4.24
-4.23
-3.62
-2.39
-0.63
1.48
3.62
5.43
6.60
7.00
6.73
6.07
5.34
4.78
4.46
4.30
4.14
3.87
3.47
2.98
2.46
1.94
1.40
0.84
0.28
-0.14
-0.26
0.02
0.64
1.37
1.92
2.02
1.61
0.82
-0.06
-0.77
-1.20
-1.36
-1.32
-1.10
-0.62
0.21
1.39
2.76
4.02
4.81
4.93
4.36
3.34
2.21
1.34
0.96
1.19
1.93
3.02
4.24
5.39
6.31
6.93
7.17
6.98
6.31
5.16
3.64
1.96
0.40
-0.82
-1.58
-1.89
-1.84
-1.48
-0.88
-0.08
0.79
1.48
1.73
1.34
0.28
-1.25
-2.96
-4.50
-5.57
-5.97
-5.69
-4.85
-3.66
-2.33
-0.99
0.28
1.42
2.35
2.97
3.18
2.95
2.45
1.99
1.97
2.58
3.81
5.47
7.38
9.42
11.51
13.66
15.83
17.83
19.06
18.92
17.32
14.81
12.41
11.14
11.69
14.27
18.74
24.25
30.10
35.99
41.82
47.22
51.47
54.06
55.34
56.59
58.32
60.16
60.90
59.14
53.78
44.61
32.71
19.88
7.98
-3.43
-16.12
-32.16
-52.73
-77.79
-106.10
-135.29
-162.16
-174.23
-161.45
-122.21
-65.41
-4.39
49.05
86.66
103.37
98.31
75.48
40.75
1.95
-33.75
-62.31
-85.23
-109.21
-139.72
-181.32
-231.49
-281.08
-316.94
-327.46
-306.58
-255.78
-182.91
-100.46
-22.32
40.68
80.89
94.78
83.11
52.74
14.56
-12.94
-13.99
13.00
56.16
98.26
131.51
155.00
170.83
181.22
186.48
183.93
164.71
126.79
75.01
20.24
-25.20
-51.51
-54.74
-37.95
-10.49
16.32
35.16
43.99
45.22
42.41
38.49
34.91
31.89
28.53
24.06
19.57
17.01
18.24
23.43
31.06
38.60
43.60
44.33
40.66
34.52
28.69
25.52
25.70
28.31
31.42
33.03
31.83
27.69
21.92
16.42
12.82
11.72
12.49
13.72
13.86
11.95
8.05
3.15
-1.32
-4.20
-5.04
-4.21
-2.71
-1.66
-1.86
-3.39
-5.61
-7.37
-7.45
-5.03
-0.07
6.65
13.87
20.41
25.60
29.54
32.73
35.68
38.40
40.39
40.89
39.46
36.21
31.89
27.61
24.40
22.99
23.46
24.99
25.80
23.46
15.76
1.69
-17.81
-40.11
-61.96
-80.98
-96.68
-110.39
-124.18
-139.36
-155.44
-170.30
-181.27
-186.47
-185.72
-180.23
-171.64
-161.05
-148.76
-134.71
-119.19
-103.22
-88.22
-75.36
-64.83
-55.69
-46.28
-34.94
-20.67
-3.39
16.31
37.39
58.24
76.51
89.21
93.61
88.48
75.07
57.08
39.47
26.78
21.59
24.09
32.71
45.30
60.09
75.85
91.50
105.75
117.24
124.49
126.46
123.10
115.58
106.07
97.09
90.82
88.62
90.99
96.73
103.27
107.73
108.28
104.88
98.88
92.21
86.67
84.25
85.82
90.85
97.42
102.99
104.83
100.67
89.86
74.30
59.12
49.24
46.74
49.20
51.14
46.37
30.39
2.19
-41.27
-94.60
-146.74
-187.32
-213.15
-227.28
-234.47
-238.00
-239.28
-239.06
-237.92
-239.69
-246.26
-257.83
-270.79
-278.23
-272.98
-251.03
-213.17
-163.53
-108.29
-52.46
-0.80
43.79
80.40
108.45
126.95
135.11
134.17
127.21
118.56
111.78
108.96
110.07
113.20
115.54
114.98
111.18
105.14
98.61
92.95
89.07
87.13
86.41
85.69
83.99
81.10
77.44
73.69
70.10
66.52
62.47
57.43
51.18
44.12
37.10
30.99
26.28
22.78
19.85
16.77
13.09
8.83
4.47
0.68
-2.05
-3.58
-4.16
-4.24
-4.28
-4.57
-5.19
-6.00
-6.75
-7.26
-7.47
-7.46
-7.43
-7.59
-8.07
-8.86
-9.80
-10.66
-11.23
-11.41
-11.24
-10.89
-10.55
-10.39
-10.46
-10.68
-10.90
-10.98
-10.89
-10.69
-10.52
-10.50
-10.64
-10.92
-11.25
-11.62
-12.03
-12.46
-12.86
-13.05
-12.89
-12.45
-12.07
-12.24
-13.37
-15.50
-18.28
-21.09
-23.31
-24.66
-25.19
-25.17
-24.82
-24.16
-23.05
-21.35
-19.08
-16.46
-13.81
-11.37
-9.20
-7.24
-5.42
-3.74
-2.27
-1.11
-0.34
0.05
0.12
0.02
-0.13
-0.16
0.02
0.46
1.09
1.72
2.17
2.27
2.01
1.46
0.83
0.32
0.07
0.11
0.40
0.84
1.32
1.75
2.06
2.19
2.11
1.84
1.40
0.89
0.42
0.07
-0.11
-0.19
-0.29
-0.59
-1.21
-2.16
-3.33
-4.49
-5.39
-5.86
-5.88
-5.51
-4.91
-4.21
-3.56
-3.03
-2.75
-2.79
-3.17
-3.86
-4.63
-5.23
-5.46
-5.34
-5.10
-5.06
-5.44
-6.24
-7.20
-7.92
-8.07
-7.55
-6.45
-5.05
-3.61
-2.35
-1.31
-0.49
0.18
0.79
1.48
2.34
3.42
4.64
5.80
6.72
7.27
7.45
7.42
7.32
7.31
7.39
7.52
7.62
7.63
7.55
7.36
7.04
6.52
5.76
4.79
3.73
2.76
2.06
1.65
1.47
1.30
0.97
0.38
-0.44
-1.35
-2.23
-3.01
-3.67
-4.22
-4.68
-5.02
-5.21
-5.24
-5.14
-4.97
-4.78
-4.58
-4.38
-4.17
-3.94
-3.70
-3.47
-3.29
-3.20
-3.28
-3.51
-3.82
-4.07
-4.12
-3.85
-3.29
-2.52
-1.71
-0.99
-0.47
-0.15
-0.01
0.00
-0.04
-0.08
-0.07
0.02
0.17
0.31
0.36
0.23
-0.14
-0.75
-1.55
-2.46
-3.31
-3.96
-4.23
-4.05
-3.45
-2.56
-1.61
-0.79
-0.22
0.15
0.50
1.00
1.76
2.70
3.63
4.31
4.61
4.51
4.14
3.69
3.28
2.97
2.73
2.53
2.33
2.14
1.97
1.86
1.80
1.79
1.78
1.72
1.50
1.08
0.48
-0.16
-0.68
-0.96
-1.01
-0.94
-0.93
-1.12
-1.53
-2.09
-2.72
-3.37
-4.02
-4.64
-5.13
-5.33
-5.15
-4.56
-3.67
-2.67
-1.72
-0.93
-0.28
0.29
0.86
1.47
2.08
2.60
2.94
3.06
2.97
2.79
2.64
2.61
2.68
2.73
2.60
2.19
1.52
0.74
0.04
-0.44
-0.67
-0.73
-0.73
-0.76
-0.84
-0.93
-0.95
-0.91
-0.84
-0.85
-1.02
-1.39
-1.91
-2.50
-3.05
-3.50
-3.83
-4.07
-4.26
-4.42
-4.49
-4.42
-4.11
-3.52
-2.64
-1.56
-0.42
0.62
1.42
1.95
2.25
2.42
2.54
2.64
2.68
2.62
2.46
2.26
2.11
2.08
2.17
2.27
2.26
2.03
1.62
1.15
0.78
0.62
0.65
0.76
0.78
0.62
0.24
-0.27
-0.79
-1.25
-1.60
-1.87
-2.10
-2.35
-2.63
-2.94
-3.22
-3.37
-3.31
-3.03
-2.59
-2.12
-1.70
-1.33
-0.88
-0.22
0.71
1.83
2.93
3.81
4.35
4.57
4.56
4.41
4.16
3.77
3.22
2.55
1.87
1.35
1.11
1.20
1.53
1.88
2.00
1.72
1.02
0.07
-0.87
-1.58
-1.99
-2.18
-2.32
-2.54
-2.88
-3.28
-3.68
-4.04
-4.38
-4.69
-4.92
-4.99
-4.82
-4.36
-3.69
-2.95
-2.27
-1.77
-1.47
-1.34
-1.26
-1.08
-0.66
0.07
1.05
2.11
3.01
3.56
3.68
3.41
2.87
2.23
1.61
1.10
0.75
0.60
0.64
0.81
1.01
1.12
0.99
0.59
-0.02
-0.70
-1.25
-1.54
-1.56
-1.43
-1.31
-1.35
-1.59
-1.97
-2.38
-2.78
-3.15
-3.55
-4.00
-4.46
-4.81
-4.90
-4.67
-4.16
-3.47
-2.77
-2.16
-1.63
-1.07
-0.34
0.62
1.74
2.83
3.68
4.12
4.15
3.88
3.47
3.07
2.73
2.45
2.21
2.04
1.99
2.05
2.15
2.16
1.96
1.53
0.93
0.29
-0.29
-0.78
-1.24
-1.71
-2.24
-2.75
-3.15
-3.35
-3.36
-3.32
-3.44
-3.91
-4.82
-6.03
-7.26
-8.18
-8.53
-8.27
-7.56
-6.66
-5.82
-5.15
-4.62
-4.10
-3.46
-2.62
-1.62
-0.53
0.50
1.33
1.88
2.15
2.20
2.14
2.07
2.05
2.08
2.14
2.23
2.33
2.49
2.69
2.90
3.05
3.10
3.06
3.00
2.99
3.09
3.24
3.32
3.22
2.89
2.44
2.02
1.77
1.72
1.74
1.63
1.26
0.62
-0.11
-0.72
-1.08
-1.16
-1.04
-0.83
-0.58
-0.26
0.16
0.69
1.29
1.91
2.51
3.07
3.56
3.92
4.04
3.82
3.24
2.36
1.36
0.40
-0.42
-1.10
-1.70
-2.29
-2.91
-3.51
-4.05
-4.48
-4.78
-5.01
-5.25
-5.55
-5.92
-6.28
-6.56
-6.67
-6.60
-6.41
-6.21
-6.08
-6.08
-6.15
-6.19
-6.09
-5.82
-5.39
-4.88
-4.37
-3.86
-3.33
-2.71
-1.97
-1.12
-0.25
0.55
1.25
1.91
2.66
3.57
4.68
5.86
6.98
7.84
8.34
8.41
8.11
7.54
6.86
6.18
5.59
5.12
4.74
4.40
4.04
3.67
3.33
3.10
3.03
3.10
3.24
3.36
3.40
3.30
3.04
2.61
1.99
1.24
0.44
-0.31
-0.88
-1.20
-1.24
-1.08
-0.83
-0.61
-0.51
-0.51
-0.56
-0.51
-0.23
0.37
1.29
2.43
3.61
4.61
5.29
5.58
5.52
5.23
4.86
4.56
4.40
4.40
4.45
4.44
4.32
4.08
3.84
3.73
3.80
4.03
4.30
4.43
4.28
3.83
3.10
2.17
1.16
0.15
-0.73
-1.41
-1.87
-2.18
-2.50
-2.99
-3.71
-4.59
-5.42
-6.00
-6.19
-6.02
-5.68
-5.33
-5.07
-4.82
-4.45
-3.84
-3.00
-2.04
-1.08
-0.15
0.76
1.73
2.76
3.73
4.44
4.75
4.60
4.13
3.56
3.13
2.92
2.90
2.95
2.96
2.87
2.70
2.53
2.36
2.19
1.92
1.49
0.87
0.10
-0.70
-1.39
-1.88
-2.20
-2.47
-2.87
-3.52
-4.47
-5.62
-6.78
-7.79
-8.55
-9.06
-9.42
-9.68
-9.82
-9.79
-9.52
-9.00
-8.33
-7.59
-6.84
-6.05
-5.10
-3.90
-2.48
-0.97
0.42
1.54
2.33
2.89
3.35
3.84
4.37
4.89
5.29
5.49
5.47
5.32
5.14
5.07
5.17
5.41
5.72
6.00
6.19
6.27
6.26
6.15
5.93
5.60
5.19
4.76
4.38
4.11
3.99
3.97
3.97
3.92
3.78
3.54
3.26
2.98
2.74
2.52
2.28
1.98
1.62
1.28
1.09
1.21
1.68
2.43
3.28
4.01
4.44
4.50
4.26
3.83
3.34
2.90
2.56
2.34
2.25
2.23
2.24
2.21
2.11
1.97
1.82
1.70
1.57
1.32
0.87
0.20
-0.60
-1.36
-1.95
-2.31
-2.53
-2.79
-3.23
-3.88
-4.66
-5.40
-5.98
-6.37
-6.65
-6.93
-7.26
-7.61
-7.86
-7.92
-7.72
-7.26
-6.59
-5.79
-4.92
-4.00
-3.03
-2.02
-0.98
0.05
1.01
1.82
2.42
2.82
3.15
3.55
4.11
4.81
5.48
5.93
6.01
5.75
5.25
4.68
4.15
3.69
3.25
2.84
2.49
2.25
2.17
2.19
2.22
2.13
1.82
1.28
0.51
-0.39
-1.35
-2.27
-3.08
-3.75
-4.27
-4.65
-4.93
-5.12
-5.24
-5.30
-5.31
-5.25
-5.07
-4.70
-4.09
-3.27
-2.31
-1.31
-0.35
0.54
1.37
2.17
2.90
3.47
3.80
3.83
3.58
3.16
2.70
2.30
2.04
1.91
1.89
1.94
2.01
2.11
2.26
2.48
2.75
2.97
3.03
2.85
2.41
1.77
1.03
0.27
-0.46
-1.16
-1.82
-2.43
-2.95
-3.37
-3.74
-4.08
-4.43
-4.71
-4.80
-4.61
-4.11
-3.41
-2.67
-2.04
-1.54
-1.07
-0.51
0.22
1.07
1.89
2.52
2.85
2.89
2.78
2.65
2.65
2.80
3.07
3.37
3.62
3.77
3.81
3.74
3.56
3.26
2.80
2.22
1.60
1.09
0.82
0.80
0.93
0.96
0.71
0.13
-0.65
-1.42
-2.01
-2.41
-2.76
-3.20
-3.81
-4.51
-5.12
-5.48
-5.53
-5.31
-4.94
-4.49
-3.97
-3.36
-2.65
-1.91
-1.20
-0.54
0.10
0.83
1.71
2.72
3.71
4.51
4.95
5.01
4.74
4.30
3.81
3.38
3.07
2.92
2.94
3.09
3.28
3.38
3.26
2.88
2.31
1.63
0.94
0.29
-0.33
-0.92
-1.46
-1.88
-2.12
-2.23
-2.29
-2.45
-2.82
-3.41
-4.18
-5.01
-5.81
-6.53
-7.09
-7.44
-7.53
-7.33
-6.86
-6.21
-5.45
-4.65
-3.84
-3.06
-2.36
-1.81
-1.46
-1.34
-1.37
-1.48
-1.59
-1.70
-1.86
-2.11
-2.46
-2.87
-3.25
-3.58
-3.85
-4.09
-4.31
-4.47
-4.48
-4.28
-3.87
-3.35
-2.88
-2.59
-2.52
-2.60
-2.72
-2.79
-2.78
-2.77
-2.85
-3.10
-3.52
-3.99
-4.34
-4.39
-4.06
-3.34
-2.33
-1.20
-0.10
0.89
1.77
2.62
3.50
4.47
5.50
6.54
7.56
8.60
9.73
10.96
12.18
13.16
13.58
13.26
12.25
10.87
9.52
8.57
8.14
8.09
8.17
8.14
7.93
7.59
7.23
6.90
6.57
6.16
5.62
4.94
4.22
3.56
3.03
2.60
2.20
1.70
1.01
0.15
-0.77
-1.57
-2.11
-2.36
-2.42
-2.50
-2.74
-3.21
-3.80
-4.32
-4.60
-4.57
-4.21
-3.61
-2.84
-1.90
-0.81
0.39
1.63
2.79
3.71
4.31
4.54
4.46
4.20
3.90
3.72
3.71
3.83
3.96
3.99
3.88
3.64
3.37
3.19
3.14
3.17
3.21
3.14
2.90
2.48
1.90
1.22
0.49
-0.26
-1.02
-1.81
-2.62
-3.46
-4.25
-4.90
-5.35
-5.56
-5.52
-5.29
-4.90
-4.39
-3.80
-3.17
-2.52
-1.86
-1.19
-0.45
0.35
1.20
1.99
2.64
3.06
3.24
3.25
3.17
3.01
2.76
2.36
1.77
1.04
0.27
-0.41
-0.90
-1.19
-1.35
-1.45
-1.51
-1.54
-1.52
-1.49
-1.53
-1.77
-2.27
-3.02
-3.91
-4.84
-5.69
-6.45
-7.16
-7.85
-8.53
-9.17
-9.69
-10.02
-10.15
-10.10
-9.97
-9.82
-9.68
-9.49
-9.14
-8.58
-7.84
-7.08
-6.46
-6.07
-5.89
-5.75
-5.51
-5.10
-4.59
-4.11
-3.75
-3.52
-3.37
-3.18
-2.89
-2.48
-1.99
-1.47
-1.00
-0.66
-0.51
-0.58
-0.82
-1.16
-1.48
-1.72
-1.85
-1.86
-1.79
-1.66
-1.53
-1.44
-1.45
-1.57
-1.81
-2.14
-2.48
-2.76
-2.95
-2.97
-2.80
-2.42
-1.81
-1.02
-0.09
0.92
2.02
3.22
4.57
6.03
7.51
8.83
9.85
10.50
10.81
10.90
10.88
10.80
10.64
10.37
9.99
9.60
9.31
9.19
9.16
9.11
8.93
8.59
8.16
7.74
7.37
7.05
6.75
6.45
6.20
6.01
5.87
5.69
5.35
4.79
4.03
3.15
2.21
1.22
0.17
-0.95
-2.02
-2.90
-3.38
-3.36
-2.90
-2.12
-1.25
-0.43
0.27
0.91
1.58
2.34
3.18
3.98
4.58
4.86
4.80
4.51
4.16
3.89
3.74
3.65
3.55
3.38
3.18
3.02
2.97
3.02
3.08
3.01
2.71
2.13
1.30
0.32
-0.69
-1.61
-2.33
-2.78
-2.95
-2.90
-2.77
-2.75
-3.02
-3.70
-4.73
-5.97
-7.17
-8.09
-8.57
-8.59
-8.21
-7.54
-6.69
-5.72
-4.69
-3.65
-2.64
-1.71
-0.88
-0.11
0.63
1.38
2.11
2.72
3.13
3.27
3.16
2.89
2.61
2.44
2.42
2.51
2.61
2.62
2.49
2.24
1.94
1.65
1.39
1.11
0.73
0.21
-0.43
-1.08
-1.65
-2.07
-2.36
-2.63
-3.05
-3.70
-4.57
-5.52
-6.41
-7.13
-7.66
-8.05
-8.33
-8.42
-8.22
-7.57
-6.46
-5.00
-3.42
-1.97
-0.82
-0.01
0.51
0.86
1.10
1.32
1.55
1.84
2.22
2.66
3.10
3.41
3.49
3.31
2.92
2.46
2.08
1.90
1.92
2.10
2.34
2.52
2.56
2.38
1.96
1.31
0.51
-0.29
-0.96
-1.44
-1.79
-2.11
-2.56
-3.19
-3.96
-4.81
-5.68
-6.54
-7.39
-8.17
-8.72
-8.87
-8.48
-7.59
-6.35
-5.00
-3.74
-2.67
-1.82
-1.18
-0.74
-0.47
-0.36
-0.37
-0.48
-0.66
-0.91
-1.22
-1.54
-1.82
-1.99
-2.05
-2.06
-2.12
-2.28
-2.56
-2.89
-3.21
-3.45
-3.62
-3.71
-3.76
-3.77
-3.74
-3.66
-3.55
-3.43
-3.37
-3.41
-3.58
-3.89
-4.28
-4.68
-4.99
-5.15
-5.12
-4.90
-4.45
-3.70
-2.58
-1.08
0.77
2.82
4.92
6.90
8.69
10.28
11.70
13.00
14.12
15.00
15.50
15.59
15.31
14.81
14.28
13.89
13.67
13.55
13.36
12.95
12.27
11.40
10.49
9.67
9.02
8.51
8.04
7.46
6.69
5.73
4.68
3.71
2.96
2.51
2.29
2.09
1.70
0.94
-0.19
-1.55
-2.98
-4.33
-5.53
-6.58
-7.42
-7.99
-8.22
-8.09
-7.65
-7.03
-6.32
-5.57
-4.72
-3.69
-2.45
-1.07
0.33
1.57
2.53
3.10
3.28
3.11
2.69
2.19
1.82
1.71
1.89
2.26
2.65
2.85
2.79
2.50
2.11
1.76
1.51
1.30
1.02
0.58
-0.02
-0.67
-1.21
-1.56
-1.72
-1.82
-1.94
-2.17
-2.52
-2.96
-3.52
-4.20
-5.04
-6.00
-6.94
-7.70
-8.10
-8.07
-7.64
-6.91
-5.99
-4.98
-3.92
-2.82
-1.70
-0.62
0.34
1.08
1.55
1.71
1.62
1.41
1.25
1.26
1.50
1.87
2.23
2.44
2.43
2.26
2.07
1.97
1.98
2.05
2.05
1.92
1.65
1.30
0.92
0.57
0.19
-0.26
-0.82
-1.47
-2.15
-2.81
-3.40
-3.92
-4.42
-4.97
-5.61
-6.38
-7.25
-8.11
-8.82
-9.24
-9.26
-8.90
-8.23
-7.40
-6.54
-5.74
-5.05
-4.47
-4.04
-3.76
-3.65
-3.66
-3.68
-3.58
-3.25
-2.71
-2.12
-1.71
-1.71
-2.21
-3.10
-4.12
-4.97
-5.44
-5.48
-5.19
-4.73
-4.21
-3.71
-3.22
-2.76
-2.38
-2.17
-2.18
-2.41
-2.76
-3.09
-3.29
-3.27
-3.07
-2.80
-2.60
-2.58
-2.75
-2.98
-3.12
-2.98
-2.45
-1.50
-0.21
1.33
2.98
4.65
6.24
7.65
8.84
9.80
10.57
11.24
11.86
12.46
13.00
13.40
13.62
13.64
13.46
13.12
12.67
12.19
11.73
11.33
10.99
10.65
10.22
9.60
8.77
7.78
6.76
5.85
5.15
4.68
4.38
4.14
3.85
3.43
2.87
2.22
1.52
0.80
0.06
-0.72
-1.54
-2.34
-3.04
-3.53
-3.80
-3.89
-3.92
-4.02
-4.22
-4.47
-4.60
-4.47
-3.99
-3.18
-2.15
-1.07
-0.06
0.84
1.61
2.25
2.75
3.08
3.21
3.18
3.03
2.84
2.65
2.47
2.31
2.16
2.07
2.06
2.16
2.34
2.55
2.69
2.63
2.32
1.74
0.97
0.15
-0.57
-1.07
-1.31
-1.37
-1.37
-1.43
-1.60
-1.89
-2.29
-2.78
-3.33
-3.88
-4.34
-4.66
-4.84
-4.90
-4.92
-4.94
-4.92
-4.77
-4.30
-3.36
-1.91
-0.07
1.89
3.71
5.13
6.03
6.51
6.91
7.59
8.88
10.80
13.07
15.27
16.82
17.43
17.25
17.01
17.61
19.78
23.45
27.92
32.14
34.89
35.46
34.11
32.12
30.99
32.13
35.76
41.50
48.61
55.93
62.46
67.77
72.59
78.45
87.81
102.45
123.20
149.06
175.99
197.90
208.51
204.15
184.72
154.08
117.20
79.56
49.70
34.44
34.58
44.97
59.89
71.72
80.70
87.59
92.18
92.99
86.79
74.24
55.36
31.47
4.58
-22.68
-49.00
-73.86
-97.56
-121.48
-147.38
-176.97
-210.45
-246.83
-283.82
-319.70
-353.13
-383.59
-411.73
-438.88
-466.83
-496.92
-530.40
-568.02
-609.93
-654.09
-695.33
-725.94
-737.76
-725.20
-687.29
-628.26
-555.76
-478.13
-401.58
-329.10
-261.26
-197.85
-139.17
-85.84
-38.11
4.92
45.18
84.75
124.69
164.48
202.33
235.93
263.81
286.06
304.42
321.71
340.94
364.24
391.96
422.14
450.71
472.55
483.10
479.92
463.68
437.90
407.69
377.85
351.34
328.74
308.77
289.52
269.58
248.68
227.47
206.89
187.47
169.07
151.13
133.25
115.54
98.81
84.12
72.23
63.30
56.79
51.82
47.67
43.96
40.66
37.68
34.66
31.12
26.85
22.42
19.12
18.58
21.98
29.46
40.09
52.25
64.37
75.58
85.69
94.74
102.52
108.54
112.37
114.16
114.62
114.59
114.72
114.73
113.58
110.17
104.18
96.24
87.45
78.34
68.44
57.18
43.96
28.81
12.45
-3.76
-18.02
-28.53
-34.05
-34.11
-28.25
-17.79
-5.78
3.06
4.24
-4.23
-20.78
-41.15
-60.52
-74.27
-80.86
-81.02
-76.99
-70.27
-59.93
-43.07
-16.92
9.76
27.88
31.67
23.79
11.46
0.61
-6.57
-11.77
-19.09
-31.82
-45.97
-57.77
-61.53
-53.86
-36.34
-14.85
2.56
8.70
0.58
-19.06
-45.37
-70.64
-87.02
-90.64
-82.78
-68.28
-52.48
-37.53
-22.06
-4.31
16.32
37.83
54.70
65.08
69.25
67.68
62.78
58.04
56.33
58.33
61.64
61.71
53.69
38.41
13.55
-20.41
-58.64
-93.32
-117.06
-126.19
-121.98
-109.69
-96.74
-94.94
-110.44
-140.38
-175.51
-206.51
-228.90
-243.68
-254.89
-267.09
-289.88
-328.56
-381.35
-441.45
-501.49
-555.32
-597.02
-620.64
-583.72
-470.75
-304.55
-131.11
13.35
116.51
183.10
223.80
248.15
262.09
262.91
249.21
225.98
202.77
187.52
182.75
186.25
193.73
201.17
203.17
196.97
185.81
176.54
174.68
182.04
197.23
217.06
234.23
241.41
232.93
208.02
171.28
130.28
92.62
63.42
43.90
31.48
20.96
8.11
-7.19
-21.50
-30.86
-33.54
-30.84
-25.92
-21.90
-20.28
-20.85
-21.83
-21.25
-18.21
-13.33
-8.00
-3.61
-0.88
0.72
2.00
3.80
6.55
10.01
13.43
15.81
16.42
14.61
11.06
6.45
1.48
-3.37
-7.93
-12.31
-16.71
-20.50
-24.08
-27.17
-29.46
-30.74
-30.95
-30.25
-28.93
-27.29
-25.58
-24.05
-22.62
-21.26
-19.93
-18.63
-17.38
-16.23
-15.17
-14.19
-13.40
-12.70
-12.08
-11.54
-11.06
-10.67
-10.66
-10.74
-10.89
-11.16
-11.55
-12.06
-12.67
-13.36
-14.15
-14.98
-15.76
-16.41
-16.93
-17.24
-17.27
-17.01
-16.45
-15.65
-14.66
-13.89
-13.22
-12.78
-12.67
-12.95
-13.56
-14.43
-15.35
-16.08
-16.38
-16.01
-14.79
-12.50
-9.01
-4.27
1.57
8.29
15.55
22.85
29.77
35.85
40.85
44.63
47.21
48.66
49.16
48.93
48.02
46.65
44.89
43.07
41.60
40.81
40.94
42.08
44.30
46.93
49.53
51.62
53.28
54.98
57.14
60.07
63.94
68.92
73.79
77.73
80.12
81.44
82.77
85.02
88.63
93.65
99.92
105.04
107.15
104.89
98.56
89.48
78.60
66.09
51.30
32.82
5.38
-30.74
-75.72
-128.07
-185.03
-244.45
-305.05
-366.29
-409.76
-423.44
-404.68
-362.18
-309.11
-255.61
-207.57
-166.94
-133.50
-105.91
-85.28
-71.99
-65.62
-64.26
-64.53
-64.56
-63.50
-61.41
-58.11
-55.09
-52.72
-50.22
-49.26
-45.58
-36.94
-22.76
-4.05
18.16
41.88
65.91
91.21
115.53
137.33
154.20
164.05
164.58
154.87
133.49
100.08
56.28
6.21
-42.89
-83.71
-108.12
-114.50
-107.26
-94.65
-84.56
-81.19
-84.04
-88.45
-90.20
-85.29
-73.26
-55.30
-32.84
-6.47
23.88
57.94
94.72
128.77
156.78
176.25
186.45
188.44
184.51
177.30
168.85
160.17
151.39
142.51
132.85
122.18
110.89
99.86
90.00
81.83
75.12
69.42
64.41
59.51
54.39
49.15
44.12
39.72
36.16
33.12
30.39
27.83
25.05
21.73
17.74
13.03
7.60
2.67
-2.85
-9.13
-16.03
-23.34
-30.81
-38.08
-44.85
-50.80
-55.75
-59.79
-62.68
-64.32
-64.83
-64.45
-63.47
-62.27
-61.24
-60.76
-61.38
-63.02
