1660331913.00
64.000000
-0.00
-0.00
-0.00
-0.00
-0.00
-0.00
-0.00
-0.00
-0.00
-0.00
0.00
0.01
0.01
-0.00
-0.03
-0.05
-0.05
0.00
0.13
0.36
0.66
1.01
1.37
1.72
2.06
2.40
2.79
3.24
3.80
4.42
5.06
5.66
6.19
6.68
7.16
7.72
8.37
9.19
10.06
10.87
11.50
11.94
12.28
12.72
13.48
14.71
16.59
18.89
21.32
23.59
25.57
27.37
29.36
31.96
35.47
40.17
45.63
51.28
56.55
61.17
65.32
69.60
74.70
81.05
88.97
97.75
106.46
114.25
120.78
126.41
132.00
138.96
145.76
154.25
164.57
176.56
189.08
199.66
204.57
199.68
181.78
149.64
104.97
50.84
-8.86
-70.82
-132.85
-193.85
-253.15
-310.18
-364.33
-414.77
-461.42
-504.45
-543.99
-579.49
-609.00
-628.91
-634.25
-620.06
-582.98
-523.25
-444.98
-355.25
-262.11
-172.32
-89.98
-16.55
48.02
104.17
151.72
190.14
219.20
239.49
252.49
260.00
263.54
263.91
261.18
255.08
245.51
232.96
218.45
203.29
188.65
175.20
163.01
151.63
140.42
128.91
116.98
104.92
93.32
82.80
73.80
66.42
60.38
55.17
50.18
44.96
39.30
33.25
27.04
20.97
15.33
10.37
6.13
2.56
-0.37
-2.73
-4.57
-5.92
-6.87
-7.52
-7.98
-8.35
-8.69
-9.01
-9.27
-9.41
-9.39
-9.21
-8.92
-8.62
-8.36
-8.16
-7.97
-7.69
-7.27
-6.70
-6.02
-5.37
-4.86
-4.58
-4.54
-4.59
-4.52
-4.09
-3.13
-1.67
0.11
1.82
3.08
3.62
3.35
2.41
1.08
-0.36
-1.68
-2.77
-3.58
-4.09
-4.27
-4.08
-3.55
-2.77
-1.95
-1.28
-0.93
-0.89
-1.05
-1.23
-1.34
-1.35
-1.33
-1.38
-1.52
-1.72
-1.88
-1.95
-1.92
-1.82
-1.68
-1.50
-1.29
-1.07
-0.89
-0.79
-0.75
-0.66
-0.35
0.37
1.57
3.17
4.90
6.43
7.45
7.79
7.45
6.55
5.33
4.01
2.77
1.69
0.84
0.22
-0.19
-0.43
-0.61
-0.81
-1.10
-1.48
-1.92
-2.37
-2.79
-3.20
-3.62
-4.07
-4.55
-4.99
-5.35
-5.59
-5.66
-5.57
-5.31
-4.86
-4.29
-3.71
-3.28
-3.12
-3.25
-3.52
-3.64
-3.31
-2.33
-0.73
1.25
3.19
4.64
5.27
4.99
3.92
2.39
0.74
-0.75
-1.93
-2.75
-3.24
-3.43
-3.33
-2.98
-2.45
-1.85
-1.33
-1.00
-0.87
-0.89
-0.96
-0.99
-0.96
-0.92
-0.99
-1.26
-1.81
-2.57
-3.37
-4.02
-4.34
-4.35
-4.18
-4.11
-4.32
-4.92
-5.83
-6.80
-7.45
-7.41
-6.41
-4.33
-1.32
2.30
6.04
9.38
11.88
13.29
13.57
12.87
11.44
9.52
7.40
5.30
3.46
2.06
1.20
0.87
0.92
1.17
1.42
1.56
1.56
1.45
1.27
1.03
0.72
0.28
-0.31
-1.04
-1.85
-2.63
-3.25
-3.68
-3.95
-4.19
-4.60
-5.33
-6.46
-7.95
-9.55
-10.90
-11.53
-11.03
-9.18
-6.06
-2.12
2.03
5.73
8.58
10.44
11.41
11.69
11.44
10.70
9.50
7.91
6.16
4.55
3.38
2.81
2.76
3.02
3.30
3.40
3.28
3.03
2.78
2.62
2.49
2.26
1.78
0.99
-0.05
-1.18
-2.24
-3.09
-3.70
-4.12
-4.48
-4.91
-5.54
-6.45
-7.65
-9.03
-10.38
-11.37
-11.65
-10.90
-8.97
-5.98
-2.24
1.75
5.45
8.42
10.36
11.15
10.85
9.63
7.76
5.59
3.49
1.76
0.63
0.13
0.17
0.51
0.93
1.23
1.33
1.28
1.17
1.06
0.98
0.86
0.62
0.19
-0.43
-1.21
-2.07
-2.94
-3.75
-4.48
-5.09
-5.61
-6.12
-6.73
-7.56
-8.61
-9.79
-10.80
-11.25
-10.77
-9.14
-6.40
-2.85
0.99
4.58
7.49
9.47
10.51
10.72
10.26
9.31
8.02
6.57
5.14
3.97
3.22
2.94
3.02
3.22
3.33
3.17
2.75
2.18
1.62
1.17
0.83
0.46
-0.11
-0.97
-2.11
-3.37
-4.56
-5.50
-6.14
-6.49
-6.66
-6.78
-7.00
-7.44
-8.18
-9.24
-10.48
-11.62
-12.22
-11.83
-10.15
-7.18
-3.26
1.01
4.99
8.21
10.41
11.58
11.83
11.29
10.11
8.48
6.63
4.88
3.53
2.76
2.62
3.00
3.70
4.49
5.16
5.55
5.59
5.31
4.83
4.30
3.85
3.47
3.08
2.53
1.74
0.71
-0.42
-1.49
-2.36
-2.99
-3.43
-3.83
-4.36
-5.18
-6.38
-7.91
-9.49
-10.71
-11.09
-10.25
-8.11
-4.87
-1.02
2.88
6.32
8.94
10.59
11.26
11.02
10.04
8.51
6.70
4.88
3.28
2.07
1.28
0.87
0.73
0.75
0.86
1.02
1.23
1.50
1.78
1.99
1.99
1.69
1.04
0.08
-1.06
-2.21
-3.20
-3.93
-4.38
-4.57
-4.59
-4.64
-4.90
-5.57
-6.75
-8.35
-10.10
-11.56
-12.24
-11.75
-9.93
-6.94
-3.16
0.84
4.52
7.46
9.44
10.44
10.58
10.01
8.88
7.31
5.43
3.50
1.82
0.69
0.28
0.52
1.18
1.90
2.42
2.62
2.55
2.34
2.07
1.72
1.17
0.35
-0.76
-2.04
-3.29
-4.39
-5.28
-6.00
-6.63
-7.27
-7.96
-8.74
-9.65
-10.64
-11.61
-12.33
-12.49
-11.73
-9.85
-6.85
-3.00
1.18
5.13
8.32
10.45
11.48
11.55
10.88
9.72
8.23
6.56
4.88
3.40
2.36
1.91
2.04
2.56
3.16
3.59
3.69
3.52
3.21
2.89
2.58
2.19
1.59
0.69
-0.47
-1.72
-2.86
-3.72
-4.28
-4.65
-5.01
-5.54
-6.33
-7.40
-8.69
-10.05
-11.26
-12.01
-11.93
-10.74
-8.31
-4.78
-0.60
3.65
7.40
10.26
12.09
12.94
12.96
12.29
11.05
9.38
7.50
5.70
4.29
3.52
3.42
3.84
4.51
5.13
5.50
5.55
5.33
4.95
4.48
3.96
3.35
2.56
1.54
0.30
-1.07
-2.40
-3.52
-4.33
-4.82
-5.10
-5.39
-5.88
-6.70
-7.85
-9.20
-10.57
-11.69
-12.29
-12.08
-10.86
-8.57
-5.32
-1.46
2.51
6.06
8.71
10.17
10.40
9.56
7.96
5.97
3.96
2.21
0.89
0.09
-0.23
-0.18
0.10
0.48
0.87
1.23
1.57
1.90
2.20
2.41
2.43
2.18
1.65
0.91
0.12
-0.58
-1.05
-1.30
-1.45
-1.70
-2.29
-3.35
-4.88
-6.67
-8.37
-9.60
-9.99
-9.32
-7.54
-4.82
-1.47
2.10
5.44
8.16
9.97
10.74
10.50
9.43
7.76
5.81
3.87
2.20
1.00
0.35
0.22
0.48
0.97
1.51
1.95
2.21
2.22
1.96
1.43
0.66
-0.34
-1.49
-2.72
-3.92
-4.99
-5.86
-6.54
-7.08
-7.62
-8.27
-9.12
-10.18
-11.42
-12.68
-13.75
-14.34
-14.13
-12.85
-10.45
-7.08
-3.16
0.77
4.20
6.78
8.35
8.96
8.80
8.07
7.00
5.81
4.68
3.79
3.22
3.01
3.10
3.37
3.68
3.90
3.96
3.87
3.70
3.53
3.40
3.27
3.05
2.64
2.05
1.31
0.55
-0.11
-0.63
-1.04
-1.45
-2.02
-2.89
-4.12
-5.68
-7.36
-8.86
-9.76
-9.73
-8.58
-6.32
-3.24
0.28
3.77
6.88
9.35
11.03
11.86
11.78
10.86
9.24
7.22
5.15
3.39
2.15
1.49
1.30
1.42
1.66
1.92
2.09
2.12
1.95
1.55
0.89
0.01
-1.03
-2.15
-3.26
-4.27
-5.10
-5.67
-5.98
-6.14
-6.32
-6.71
-7.43
-8.51
-9.78
-10.99
-11.79
-11.84
-10.91
-8.94
-6.05
-2.51
1.26
4.85
7.89
10.08
11.29
11.49
10.83
9.56
7.98
6.38
5.01
3.99
3.38
3.19
3.38
3.86
4.51
5.12
5.49
5.44
4.95
4.12
3.15
2.23
1.46
0.86
0.38
0.04
-0.11
-0.01
0.24
0.33
-0.20
-1.77
-4.53
-8.22
-12.21
-15.69
-17.88
-18.36
-17.08
-14.37
-10.74
-6.83
-3.25
-0.50
1.22
1.94
1.92
1.48
1.00
0.83
1.28
2.55
4.69
7.62
11.09
14.62
17.32
18.15
16.52
12.66
7.45
1.94
-3.02
-6.83
-9.13
-9.82
-9.02
-7.06
-4.47
-1.82
0.35
1.72
2.28
2.15
1.58
0.83
0.22
0.10
0.72
2.12
4.11
6.27
8.09
9.12
9.22
8.51
7.35
6.07
4.74
3.27
1.67
0.10
-1.10
-1.52
-0.97
0.52
2.57
4.44
5.46
5.34
4.26
2.68
1.17
0.04
-0.55
-0.75
-1.22
-2.59
-5.10
-8.54
-12.40
-16.06
-19.10
-21.21
-22.43
-23.61
-25.79
-29.80
-36.03
-44.47
-53.15
-60.08
-63.01
-57.35
-41.12
-15.85
14.24
44.28
69.92
87.74
95.37
92.29
80.14
61.98
41.80
23.43
9.33
0.18
-4.78
-6.87
-7.16
-6.21
-4.77
-3.64
-3.40
-4.30
-6.13
-8.34
-10.26
-11.32
-11.31
-10.61
-9.81
-9.37
-9.48
-10.00
-10.66
-11.10
-11.05
-10.41
-9.46
-8.53
-7.89
-7.56
-7.28
-6.69
-5.50
-3.58
-1.03
1.81
4.51
6.65
7.96
8.33
7.79
6.55
4.93
3.27
1.88
0.90
0.33
0.06
-0.07
-0.22
-0.49
-0.89
-1.38
-1.87
-2.33
-2.73
-3.11
-3.50
-3.95
-4.47
-5.02
-5.55
-5.98
-6.28
-6.47
-6.61
-6.83
-7.26
-7.96
-8.93
-9.95
-10.58
-10.29
-8.59
-5.24
-0.43
5.24
10.87
15.54
18.58
19.74
19.18
17.35
14.80
12.03
9.34
6.86
4.65
2.65
0.84
-0.85
-2.47
-4.02
-5.51
-6.87
-7.97
-8.68
-8.91
-8.65
-8.00
-7.20
-6.48
-6.06
-6.01
-6.23
-6.53
-6.66
-6.48
-5.99
-5.40
-5.00
-5.04
-5.58
-6.41
-7.06
-6.93
-5.55
-2.74
1.26
5.84
10.21
13.67
15.79
16.49
16.00
14.70
12.95
11.07
9.30
7.84
6.85
6.42
6.48
6.79
6.97
6.67
5.67
3.96
1.72
-0.75
-3.16
-5.24
-6.84
-7.88
-8.34
-8.30
-7.85
-7.16
-6.40
-5.76
-5.40
-5.40
-5.72
-6.14
-6.28
-5.62
-3.65
-0.06
5.08
11.31
17.81
23.66
28.08
30.68
31.49
30.89
29.46
27.75
26.14
24.80
23.67
22.52
21.08
19.07
16.34
12.87
8.83
4.51
0.27
-3.59
-6.85
-9.45
-11.37
-12.68
-13.50
-13.97
-14.32
-14.80
-15.69
-17.20
-19.37
-22.08
-24.96
-27.55
-29.29
-29.71
-28.48
-25.53
-21.10
-15.67
-9.92
-4.53
-0.07
3.11
4.94
5.57
5.37
4.76
4.16
3.90
4.12
4.77
5.65
6.46
6.92
6.83
6.12
4.79
2.92
0.60
-2.02
-4.72
-7.22
-9.26
-10.66
-11.37
-11.54
-11.42
-11.32
-11.50
-12.05
-12.88
-13.65
-13.81
-12.67
-9.66
-4.54
2.40
10.35
18.16
24.73
29.38
32.03
33.14
33.43
33.58
33.98
34.62
35.21
35.29
34.43
32.37
29.08
24.78
19.88
14.83
9.99
5.60
1.72
-1.61
-4.33
-6.30
-7.41
-7.71
-7.49
-7.33
-7.95
-10.05
-13.98
-19.64
-26.39
-33.21
-38.99
-42.79
-44.13
-42.95
-39.65
-34.83
-29.18
-23.30
-17.74
-12.84
-8.80
-5.62
-3.20
-1.34
0.13
1.32
2.27
2.94
3.27
3.22
2.85
2.28
1.71
1.34
1.31
1.67
2.29
2.92
3.31
3.25
2.70
1.77
0.74
-0.11
-0.54
-0.42
0.23
1.28
2.59
4.03
5.57
7.23
9.10
11.27
13.77
16.57
19.59
22.66
25.65
28.40
30.76
32.59
33.71
33.99
33.38
31.89
29.56
26.44
22.52
17.80
12.42
6.71
1.16
-3.68
-7.46
-10.16
-12.15
-13.99
-16.22
-19.15
-22.73
-26.64
-30.39
-33.46
-35.48
-36.33
-36.16
-35.36
-34.41
-33.72
-33.49
-33.60
-33.70
-33.29
-31.88
-29.14
-24.97
-19.53
-13.21
-6.53
-0.08
5.65
10.28
13.65
15.77
16.76
16.85
16.26
15.22
13.94
12.54
11.12
9.68
8.22
6.75
5.34
4.06
3.02
2.25
1.72
1.41
1.26
1.25
1.39
1.78
2.51
3.69
5.38
7.55
9.99
12.33
14.08
14.88
14.63
13.64
12.60
12.30
13.31
15.73
19.10
22.57
25.25
26.51
26.13
24.29
21.31
17.51
13.10
8.31
3.42
-1.18
-5.08
-8.03
-10.05
-11.44
-12.58
-13.84
-15.41
-17.28
-19.33
-21.38
-23.24
-24.70
-25.57
-25.75
-25.23
-24.19
-22.95
-21.83
-21.12
-21.00
-21.51
-22.57
-23.92
-25.10
-25.53
-24.56
-21.75
-17.03
-10.76
-3.66
3.37
9.57
14.37
17.52
18.98
18.89
17.52
15.20
12.34
9.37
6.67
4.52
3.09
2.38
2.32
2.75
3.52
4.52
5.68
7.06
8.74
10.82
13.39
16.43
19.77
23.10
25.92
27.70
27.97
26.59
23.75
20.05
16.23
12.93
10.48
8.86
7.80
6.95
6.10
5.25
4.51
4.03
3.86
3.91
4.02
4.03
3.84
3.43
2.75
1.75
0.32
-1.64
-4.16
-7.17
-10.47
-13.80
-16.84
-19.33
-21.00
-21.70
-21.39
-20.17
-18.29
-16.09
-13.97
-12.26
-11.21
-10.93
-11.43
-12.56
-14.04
-15.49
-16.49
-16.75
-16.17
-14.98
-13.66
-12.79
-12.81
-13.86
-15.58
-17.28
-18.14
-17.48
-15.06
-11.11
-6.30
-1.43
2.78
5.94
8.02
9.33
10.27
11.20
12.22
13.28
14.21
14.98
15.74
16.81
18.50
20.86
23.62
26.20
28.05
28.82
28.57
27.72
26.79
26.22
26.11
26.32
26.55
26.50
25.96
24.82
22.97
20.26
16.55
11.73
5.86
-0.86
-8.09
-15.37
-22.20
-28.05
-32.45
-35.00
-35.57
-34.32
-31.77
-28.58
-25.38
-22.59
-20.23
-18.09
-15.87
-13.44
-10.93
-8.67
-7.01
-6.09
-5.78
-5.77
-5.71
-5.41
-4.89
-4.29
-3.72
-3.12
-2.29
-0.99
0.85
3.05
5.19
6.75
7.32
6.70
5.02
2.63
-0.07
-2.69
-5.05
-7.11
-8.94
-10.66
-12.34
-14.04
-15.75
-17.38
-18.72
-19.41
-18.93
-16.78
-12.60
-6.34
1.65
10.73
20.00
28.49
35.24
39.49
40.89
39.60
36.32
32.19
28.39
25.87
25.09
25.95
27.92
30.20
31.89
32.20
30.56
26.78
21.14
14.38
7.44
1.20
-3.84
-7.59
-10.35
-12.54
-14.55
-16.62
-18.91
-21.56
-24.68
-28.26
-32.12
-35.91
-39.20
-41.64
-43.05
-43.36
-42.58
-40.70
-37.69
-33.57
-28.51
-22.83
-16.93
-11.18
-5.85
-1.07
3.12
6.63
9.39
11.29
12.33
12.59
12.23
11.47
10.48
9.39
8.25
7.08
5.90
4.77
3.69
2.66
1.61
0.45
-0.85
-2.18
-3.33
-4.00
-3.90
-2.86
-0.85
2.03
5.57
9.50
13.44
16.92
19.46
20.70
20.57
19.35
17.63
16.13
15.47
15.99
17.75
20.47
23.71
26.92
29.49
30.85
30.59
28.54
24.89
20.09
14.83
9.77
5.39
1.93
-0.69
-2.70
-4.42
-6.16
-8.14
-10.48
-13.24
-16.34
-19.63
-22.89
-25.82
-28.12
-29.54
-29.98
-29.54
-28.53
-27.37
-26.48
-26.16
-26.55
-27.57
-28.95
-30.26
-30.95
-30.50
-28.53
-24.95
-20.06
-14.46
-8.88
-3.96
-0.08
2.72
4.63
5.92
6.80
7.40
7.78
7.96
7.96
7.81
7.58
7.37
7.31
7.55
8.19
9.26
10.70
12.40
14.29
16.41
18.86
21.75
25.07
28.60
31.97
34.70
36.39
36.74
35.61
32.99
28.96
23.68
17.41
10.58
3.79
-2.25
-6.79
-9.26
-9.45
-7.59
-4.37
-0.74
2.43
4.57
5.57
5.72
5.46
5.09
4.61
3.79
2.27
-0.14
-3.40
-7.24
-11.22
-14.89
-17.86
-19.89
-20.85
-20.78
-19.89
-18.50
-17.01
-15.75
-14.92
-14.59
-14.70
-15.13
-15.71
-16.27
-16.58
-16.42
-15.64
-14.28
-12.63
-11.17
-10.36
-10.42
-11.16
-11.98
-12.09
-10.82
-7.89
-3.57
1.49
6.43
10.54
13.42
15.04
15.64
15.56
15.12
14.57
14.04
13.63
13.38
13.31
13.45
13.83
14.59
15.94
18.14
21.32
25.29
29.47
32.87
34.41
33.27
29.24
22.81
15.06
7.35
0.85
-3.65
-5.99
-6.51
-5.99
-5.39
-5.67
-7.55
-11.31
-16.64
-22.70
-28.23
-31.95
-32.97
-31.05
-26.70
-20.97
-15.14
-10.25
-6.90
-5.13
-4.62
-4.87
-5.44
-6.02
-6.45
-6.69
-6.72
-6.58
-6.34
-6.08
-5.87
-5.73
-5.63
-5.47
-5.10
-4.40
-3.33
-2.02
-0.74
0.15
0.32
-0.38
-1.80
-3.53
-5.00
-5.74
-5.49
-4.30
-2.47
-0.43
1.37
2.58
2.92
2.21
0.46
-2.05
-4.80
-7.07
-8.16
-7.65
-5.55
-2.34
1.27
4.60
7.25
9.22
10.77
12.22
13.75
15.30
16.67
17.66
18.21
18.45
18.57
18.71
18.84
18.76
18.21
17.03
15.26
13.13
10.96
9.05
7.52
6.35
5.45
4.74
4.19
3.84
3.67
3.59
3.40
2.83
1.60
-0.57
-3.82
-8.15
-13.28
-18.64
-23.44
-26.80
-28.07
-27.05
-24.06
-19.84
-15.25
-11.01
-7.52
-4.82
-2.79
-1.33
-0.42
-0.10
-0.35
-1.02
-1.80
-2.38
-2.56
-2.34
-1.95
-1.71
-1.93
-2.76
-4.11
-5.76
-7.39
-8.72
-9.64
-10.22
-10.62
-10.97
-11.29
-11.39
-11.04
-10.04
-8.43
-6.51
-4.70
-3.42
-2.89
-3.10
-3.78
-4.54
-4.91
-4.47
-2.84
0.14
4.41
9.60
15.08
20.17
24.31
27.27
29.13
30.25
30.98
31.52
31.82
31.60
30.59
28.71
26.17
23.44
21.00
19.08
17.55
15.93
13.72
10.70
7.13
3.68
1.09
-0.18
-0.16
0.68
1.66
2.20
1.99
0.97
-0.72
-2.87
-5.28
-7.72
-9.94
-11.76
-13.13
-14.19
-15.24
-16.59
-18.45
-20.73
-23.14
-25.20
-26.43
-26.45
-25.09
-22.42
-18.69
-14.25
-9.60
-5.23
-1.63
0.84
2.01
2.04
1.28
0.24
-0.66
-1.17
-1.27
-1.09
-0.82
-0.55
-0.35
-0.18
-0.05
0.05
0.12
0.23
0.47
0.91
1.54
2.22
2.77
3.05
3.06
2.94
2.90
3.13
3.69
4.48
5.27
5.76
5.65
4.74
2.92
0.26
-2.95
-6.24
-8.92
-10.30
-9.88
-7.52
-3.54
1.37
6.32
10.52
13.44
14.92
15.11
14.31
12.88
11.12
9.27
7.55
6.17
5.35
5.21
5.79
6.93
8.35
9.72
10.86
11.77
12.62
13.68
15.05
16.64
18.10
19.05
19.20
18.53
17.29
15.85
14.51
13.32
12.08
10.43
7.99
4.55
0.17
-4.77
-9.64
-13.51
-15.38
-14.36
-10.06
-2.89
5.78
13.88
19.21
20.16
16.21
8.10
-2.48
-13.51
-23.20
-30.40
-34.58
-35.72
-34.09
-30.10
-24.31
-17.49
-10.60
-4.67
-0.64
0.98
0.21
-2.37
-5.76
-8.84
-10.69
-10.79
-9.10
-6.04
-2.30
1.33
4.08
5.33
4.74
2.30
-1.61
-6.28
-10.87
-14.71
-17.46
-19.21
-20.28
-21.01
-21.42
-21.12
-19.49
-15.88
-10.02
-2.25
6.43
14.49
20.22
22.29
20.16
14.34
6.25
-2.26
-9.58
-14.89
-18.31
-20.62
-22.53
-24.31
-25.64
-25.91
-24.64
-21.76
-17.51
-12.29
-6.53
-0.72
4.25
6.93
5.42
-0.89
-11.40
-23.33
-32.87
-37.31
-36.11
-30.82
-23.79
-17.14
-12.05
-8.70
-6.55
-5.06
-3.96
-3.02
-1.90
0.31
4.81
12.50
23.19
35.29
46.14
53.05
55.28
53.19
48.72
44.38
42.05
41.99
43.05
43.27
40.38
34.33
26.24
17.93
10.97
6.06
2.94
0.84
-0.99
-2.94
-4.86
-6.65
-8.24
-9.70
-11.23
-12.95
-14.84
-16.64
-17.99
-18.43
-17.79
-16.29
-14.14
-11.83
-9.88
-8.63
-8.17
-8.28
-8.49
-8.37
-7.53
-5.70
-2.84
0.81
4.80
8.52
11.39
13.08
13.60
13.26
12.56
11.91
11.39
10.86
10.04
8.73
7.07
5.42
4.30
4.13
5.02
6.69
8.61
10.13
10.77
10.39
9.20
7.63
6.28
5.74
6.46
8.53
11.48
14.21
15.11
12.52
5.40
-6.13
-20.57
-35.45
-48.16
-56.77
-60.63
-60.33
-57.25
-52.80
-47.97
-43.04
-37.84
-32.00
-25.36
-18.03
-10.40
-2.97
3.88
9.93
15.11
19.36
22.53
24.37
24.68
23.42
20.89
17.68
14.50
11.96
10.34
9.54
9.16
8.76
8.05
7.00
5.82
4.79
4.08
3.64
3.28
2.75
1.88
0.69
-0.67
-1.99
-3.11
-4.02
-4.81
-5.68
-6.85
-8.50
-10.62
-12.92
-14.84
-15.70
-14.89
-12.13
-7.65
-2.07
3.74
8.99
13.15
16.01
17.64
18.21
17.94
17.00
15.61
13.95
12.25
10.67
9.31
8.19
7.25
6.43
5.71
5.09
4.62
4.34
4.20
4.08
3.79
3.11
1.94
0.34
-1.48
-3.22
-4.63
-5.63
-6.32
-6.93
-7.77
-9.13
-11.13
-13.67
-16.39
-18.71
-19.93
-19.48
-17.05
-12.80
-7.31
-1.40
4.09
8.60
11.87
13.93
14.94
15.09
14.52
13.40
11.90
10.28
8.83
7.75
7.13
6.88
6.85
6.85
6.80
6.73
6.70
6.77
6.90
6.96
6.83
6.39
5.66
4.69
3.62
2.58
1.64
0.84
0.17
-0.46
-1.17
-2.12
-3.45
-5.17
-7.13
-8.95
-10.09
-10.02
-8.36
-5.08
-0.45
4.96
10.51
15.61
19.82
22.86
24.64
25.17
24.64
23.40
21.96
20.94
20.95
22.40
25.28
29.08
32.75
34.94
34.38
30.31
22.76
12.61
1.29
-9.72
-19.32
-26.97
-32.70
-36.79
-39.56
-41.22
-41.87
-41.63
-40.72
-39.46
-38.21
-37.25
-36.74
-36.63
-36.70
-36.52
-35.59
-33.49
-29.99
-25.22
-19.59
-13.67
-7.99
