1660328797.00
64.000000
-0.00
-0.00
-0.00
-0.00
-0.00
-0.00
-0.00
-0.00
-0.00
-0.00
0.00
0.01
0.01
-0.00
-0.03
-0.05
-0.05
0.00
0.13
0.36
0.66
1.01
1.37
1.72
2.06
2.40
2.79
3.24
3.80
4.42
5.06
5.66
6.20
6.68
7.15
7.68
8.31
9.14
10.09
11.04
11.88
12.56
13.14
13.76
14.65
15.96
17.91
20.32
22.90
25.38
27.58
29.57
31.68
34.32
37.81
42.54
48.15
54.10
59.83
64.97
69.58
74.14
79.34
85.71
93.76
103.00
112.62
121.73
129.77
136.75
143.30
150.75
157.77
166.64
177.95
191.79
206.97
220.57
228.25
225.36
208.53
176.87
132.76
80.05
23.07
-34.94
-92.44
-149.16
-205.23
-260.37
-313.74
-363.87
-409.83
-450.91
-486.50
-515.74
-537.23
-549.22
-549.96
-538.37
-514.21
-478.67
-433.88
-382.45
-327.02
-269.84
-212.63
-156.66
-102.95
-52.37
-5.90
35.58
71.43
101.35
125.50
144.38
158.69
169.15
176.37
180.75
182.57
182.07
179.51
175.23
169.65
163.18
156.15
148.81
141.30
133.69
126.02
118.33
110.69
103.16
95.80
88.68
81.83
75.25
68.95
62.95
57.25
51.86
46.78
42.03
37.59
33.45
29.61
26.07
22.81
19.83
17.11
14.67
12.48
10.54
8.83
7.35
6.07
4.97
4.05
3.27
2.62
2.09
1.65
1.30
1.01
0.79
0.61
0.48
0.37
0.30
0.24
0.21
0.19
0.18
0.18
0.20
0.22
0.25
0.28
0.32
0.36
0.40
0.45
0.49
0.54
0.59
0.64
0.69
0.75
0.82
0.89
0.96
1.05
1.14
1.24
1.36
1.49
1.64
1.81
1.99
2.20
2.42
2.68
2.96
3.26
3.59
3.96
4.36
4.80
5.27
5.78
6.32
6.91
7.54
8.21
8.92
9.68
10.48
11.33
12.22
13.16
14.16
15.21
16.33
17.51
18.75
20.02
21.27
22.46
23.48
24.25
24.63
24.50
23.76
22.32
20.17
17.31
13.84
9.83
5.49
1.01
-3.38
-7.48
-11.09
-14.07
-16.33
-17.83
-18.57
-18.62
-18.05
-17.00
-15.59
-13.96
-12.22
-10.50
-8.85
-7.29
-5.80
-4.37
-2.98
-1.59
-0.18
1.26
2.72
4.21
5.78
7.55
9.46
11.55
13.79
16.17
18.63
21.10
23.56
26.08
28.86
31.85
35.06
38.51
42.14
45.79
49.28
52.53
55.64
58.98
62.52
66.39
70.61
75.00
79.17
82.68
85.25
86.95
88.30
89.34
90.30
91.17
91.42
90.05
85.71
76.90
61.93
44.03
24.57
4.68
-15.01
-34.44
-54.00
-74.38
-96.36
-120.66
-147.57
-177.20
-208.09
-237.17
-260.30
-273.54
-274.52
-263.43
-242.87
-216.70
-189.18
-163.11
-139.57
-118.48
-99.40
-82.12
-66.74
-53.28
-41.34
-30.50
-20.12
-9.87
0.07
9.05
16.23
21.08
23.63
24.61
25.04
26.04
28.34
31.97
36.21
39.81
41.44
40.22
36.03
29.54
21.99
14.76
8.89
4.83
2.46
1.30
0.85
0.72
0.77
1.04
1.63
2.61
3.99
5.74
7.73
9.82
11.87
13.74
15.32
16.58
17.41
17.69
17.26
16.05
14.16
11.90
9.72
8.09
7.31
7.45
8.30
9.54
10.78
11.73
12.22
12.19
11.62
10.50
8.83
6.63
3.96
0.94
-2.33
-5.81
-9.49
-13.34
-17.10
-20.31
-22.38
-22.75
-21.21
-17.95
-13.51
-8.55
-3.58
1.11
5.42
9.30
12.63
15.20
16.85
17.53
17.42
16.87
16.24
15.77
15.55
15.46
15.24
14.63
13.49
11.87
10.03
8.24
6.79
5.76
5.11
4.72
4.41
4.08
3.61
2.93
2.02
0.92
-0.20
-1.07
-1.38
-0.88
0.48
2.54
4.95
7.31
9.33
10.85
11.96
12.77
13.37
13.70
13.63
13.00
11.82
10.28
8.75
7.58
6.97
6.92
7.22
7.63
7.92
7.95
7.67
7.13
6.46
5.78
5.23
4.77
4.29
3.55
2.38
0.66
-1.55
-4.09
-6.77
-9.36
-11.60
-13.19
-13.80
-13.24
-11.51
-8.90
-5.91
-3.05
-0.65
1.15
2.37
3.10
3.36
3.15
2.50
1.62
0.76
0.23
0.20
0.60
1.17
1.57
1.54
0.98
0.03
-1.08
-2.07
-2.80
-3.22
-3.42
-3.54
-3.70
-3.95
-4.29
-4.70
-5.16
-5.69
-6.32
-7.10
-8.02
-8.96
-9.71
-9.97
-9.42
-7.87
-5.34
-2.13
1.29
4.44
7.04
9.02
10.50
11.66
12.58
13.17
13.26
12.78
11.79
10.56
9.37
8.36
7.49
6.56
5.38
3.94
2.45
1.20
0.46
0.26
0.39
0.52
0.35
-0.17
-0.87
-1.53
-1.98
-2.23
-2.43
-2.74
-3.24
-3.92
-4.68
-5.53
-6.54
-7.82
-9.35
-10.90
-12.00
-12.12
-10.93
-8.44
-5.03
-1.30
2.15
4.94
7.00
8.49
9.70
10.83
12.00
13.18
14.32
15.45
16.62
17.91
19.31
20.68
21.78
22.35
22.24
21.48
20.24
18.81
17.45
16.32
15.47
14.82
14.24
13.52
12.52
11.19
9.62
8.05
6.74
5.90
5.53
5.46
5.38
4.99
4.13
2.83
1.24
-0.39
-1.79
-2.73
-3.05
-2.59
-1.36
0.57
3.00
5.67
8.34
10.84
13.09
15.09
16.90
18.54
20.07
21.49
22.86
24.24
25.71
27.36
29.27
31.42
33.67
35.73
37.32
38.23
38.44
38.15
37.74
37.57
37.87
38.68
39.85
41.11
42.21
43.00
43.36
43.11
41.93
39.38
34.97
28.41
19.76
9.54
-1.41
-12.15
-21.82
-29.84
-35.83
-39.58
-40.99
-40.11
-37.19
-32.81
-27.74
-22.77
-18.56
-15.46
-13.55
-12.79
-13.01
-14.03
-15.50
-16.97
-17.87
-17.81
-16.78
-15.24
-13.96
-13.64
-14.55
-16.22
-17.58
-17.35
-14.69
-9.72
-3.58
1.80
4.59
3.89
0.37
-3.73
-5.30
-1.54
8.66
23.79
39.78
51.16
53.03
43.18
23.25
-1.45
-23.63
-36.48
-35.72
-20.49
6.56
40.20
73.79
101.06
118.26
126.01
130.03
139.52
163.38
205.87
263.82
327.14
382.91
420.56
435.56
429.96
409.78
381.37
348.79
313.75
277.14
240.57
206.75
178.38
156.57
139.90
124.82
107.30
84.72
57.05
26.62
-3.09
-29.25
-50.94
-69.44
-87.49
-108.02
-133.14
-163.56
-198.57
-236.09
-272.87
-304.79
-327.58
-337.91
-334.56
-318.98
-294.86
-266.79
-238.63
-212.68
-189.82
-170.46
-155.55
-146.72
-145.58
-152.71
-167.11
-186.64
-209.54
-235.72
-266.98
-305.52
-351.35
-400.06
-442.81
-468.73
-469.03
-440.53
-386.69
-315.97
-238.34
-162.04
-92.12
-30.85
21.20
64.40
99.76
128.72
152.39
170.54
181.09
180.99
168.23
143.80
112.03
79.09
50.52
29.21
15.04
6.28
1.24
-0.66
0.77
5.50
12.46
19.69
25.10
27.57
27.29
25.58
24.15
24.24
26.13
29.07
31.79
33.07
32.29
29.55
25.54
21.07
16.69
12.49
8.24
3.67
-1.34
-6.69
-12.08
-17.19
-21.78
-25.69
-28.82
-31.07
-32.40
-32.87
-32.67
-32.09
-31.32
-30.28
-28.57
-25.56
-20.65
-13.53
-4.53
5.49
15.27
23.62
29.78
33.57
35.33
35.62
34.92
33.51
31.38
28.40
24.34
18.81
11.27
1.17
-11.74
-27.02
-43.30
-58.50
-70.47
-77.72
-80.03
-78.29
-73.95
-68.19
-61.34
-52.99
-42.54
-29.88
-15.77
-1.67
11.02
21.58
30.31
38.37
47.09
57.34
69.10
81.53
93.17
102.45
107.99
108.81
104.55
95.57
82.98
68.53
54.29
42.19
33.58
28.95
27.93
29.47
32.25
35.13
37.42
38.99
40.19
41.58
43.45
45.43
46.12
43.30
34.60
18.63
-3.93
-29.98
-54.79
-73.55
-83.33
-84.11
-78.62
-70.92
-64.50
-60.95
-59.76
-59.16
-57.40
-53.72
-48.45
-42.48
-36.48
-30.28
-23.06
-13.91
-2.52
10.29
22.88
33.55
41.33
46.37
49.55
51.63
52.47
50.74
44.47
31.73
11.35
-16.95
-52.58
-94.20
-139.74
-186.28
-230.23
-267.64
-294.84
-309.06
-308.86
-294.43
-267.54
-231.42
-190.27
-148.54
-109.91
-76.43
-48.15
-23.40
0.19
24.71
51.15
79.15
107.22
133.26
155.13
171.19
180.65
183.75
181.58
175.79
168.12
159.87
151.68
143.53
135.08
126.12
116.88
108.16
101.05
96.44
94.58
94.76
95.31
93.73
87.30
73.88
52.79
25.47
-4.75
-33.58
-57.21
-73.61
-83.05
-87.43
-89.07
-89.28
-88.01
-84.16
-76.69
-65.54
-51.80
-37.20
-23.24
-10.59
0.84
11.43
21.28
29.96
36.68
40.83
42.42
42.20
41.30
40.77
41.12
42.16
43.15
43.18
41.41
37.18
29.97
19.25
4.59
-14.05
-35.78
-58.48
-79.06
-94.31
-102.06
-102.13
-96.36
-87.75
-79.06
-71.65
-65.11
-57.75
-47.76
-34.26
-17.70
0.30
17.65
32.45
43.45
50.23
53.16
53.19
51.71
50.17
49.75
51.15
54.38
58.85
63.67
67.93
71.00
72.70
73.31
73.40
73.61
74.23
74.91
74.48
71.35
64.04
51.96
35.83
17.51
-0.56
-16.28
-28.58
-37.56
-44.11
-49.20
-53.17
-55.45
-54.82
-49.88
-39.82
-24.73
-5.77
15.20
36.07
55.17
71.47
84.63
94.75
101.96
106.28
107.52
105.46
99.99
91.18
79.26
64.62
47.72
29.11
9.36
-11.03
-31.74
-52.75
-74.21
-96.10
-117.79
-137.67
-153.41
-162.51
-163.40
-156.22
-142.96
-126.86
-111.23
-98.27
-88.36
-80.15
-71.21
-59.23
-42.95
-22.64
0.05
22.72
43.07
59.59
71.89
80.56
86.63
91.07
94.46
97.04
98.86
100.06
100.80
101.23
101.35
101.00
100.06
98.65
97.10
95.96
95.42
94.87
92.59
86.07
72.99
52.47
26.06
-2.41
-28.10
-47.03
-57.70
-61.43
-61.26
-60.24
-59.79
-59.34
-57.03
-51.09
-40.97
-27.63
-13.05
0.72
12.35
21.46
28.47
34.02
38.63
42.36
44.92
45.92
45.10
42.38
37.83
31.46
23.23
13.23
1.79
-10.37
-22.35
-33.43
-43.37
-52.59
-61.85
-71.74
-82.13
-91.95
-99.41
-102.67
-100.65
-93.50
-82.70
-70.40
-58.66
-48.51
-39.78
-31.27
-21.60
-9.85
4.01
19.26
34.88
49.96
63.86
76.08
86.14
93.53
97.86
99.20
98.16
95.81
93.17
90.79
88.56
85.85
81.99
76.73
70.42
63.85
57.85
52.95
49.29
46.61
44.33
41.55
37.11
29.86
19.16
5.46
-9.47
-22.93
-32.31
-36.21
-35.04
-30.80
-26.15
-23.23
-22.93
-24.88
-28.01
-31.25
-33.82
-35.22
-35.02
-32.72
-27.92
-20.68
-11.67
-2.07
6.93
14.57
20.78
25.98
30.60
34.66
37.53
38.19
35.67
29.53
20.10
8.42
-4.03
-15.78
-25.72
-33.42
-39.24
-44.23
-49.84
-57.46
-67.87
-80.87
-95.23
-108.92
-119.64
-125.49
-125.52
-119.98
-110.08
-97.39
-83.12
-67.67
-50.77
-31.98
-11.41
10.04
30.83
49.45
65.06
77.58
87.43
94.94
99.98
102.12
101.03
97.02
91.05
84.48
78.46
73.51
69.42
65.57
61.30
56.28
50.71
45.13
40.25
36.57
34.18
32.62
31.04
28.53
24.48
18.93
12.75
7.38
4.34
4.57
7.86
12.76
16.88
17.81
14.21
6.64
-2.29
-8.90
-9.85
-3.94
7.07
18.68
25.18
21.71
6.01
-20.66
-54.33
-89.91
-122.89
-150.53
-172.13
-188.77
-202.75
-216.62
-231.93
-248.20
-262.35
-269.20
-263.19
-240.97
-203.25
-155.23
-104.65
-58.50
-20.23
11.84
43.32
81.26
130.80
192.66
262.27
330.82
387.98
425.30
438.94
430.29
404.24
366.67
322.26
274.05
224.69
178.03
139.47
114.64
106.55
113.45
128.97
144.60
153.25
151.83
141.39
125.15
106.09
85.55
63.99
42.85
25.87
18.99
28.30
57.01
103.46
160.67
218.34
266.00
295.94
304.77
293.41
266.27
229.78
191.10
156.48
129.66
110.99
97.48
84.26
66.78
42.69
12.54
-20.98
-54.69
-86.42
-115.84
-144.06
-172.51
-201.92
-231.59
-259.27
-281.57
-294.79
-295.91
-283.73
-259.87
-228.21
-193.98
-161.92
-134.96
-113.93
-98.24
-87.24
-81.05
-80.64
-87.22
-101.49
-123.31
-151.95
-186.48
-225.62
-267.29
-307.78
-341.68
-362.80
-366.06
-349.37
-314.66
-267.28
-214.15
-161.68
-114.34
-74.25
-41.90
-17.03
0.79
12.25
18.71
22.05
24.70
28.87
35.61
44.24
51.91
55.24
52.02
42.27
28.11
13.03
0.38
-8.01
-12.44
-15.56
-20.31
-28.23
-39.08
-52.12
-66.33
-80.61
-93.35
-101.11
-100.21
-86.68
-58.30
-16.93
28.96
70.07
101.70
126.56
153.92
189.44
232.95
277.86
313.37
325.06
305.74
259.60
199.82
144.39
99.83
65.62
38.40
14.47
-15.90
-59.07
-114.77
-176.51
-231.10
-277.84
-319.68
-358.81
-397.35
-446.80
-516.37
-607.69
-714.22
-820.14
-925.26
-1033.00
-1143.57
-1182.71
-1098.25
-889.56
-610.30
-375.02
-193.01
-58.07
35.37
103.96
153.92
181.35
184.91
170.00
148.24
138.59
142.66
156.66
177.31
201.24
219.03
223.26
212.33
191.54
174.55
164.08
159.73
161.19
166.96
170.96
167.97
156.80
141.13
130.16
125.92
127.85
134.83
144.67
153.17
156.66
153.56
144.98
135.36
126.42
119.18
114.32
111.23
107.84
101.97
92.90
82.18
73.48
69.30
70.54
76.09
83.21
89.03
91.80
91.55
89.87
88.83
90.07
94.12
100.54
108.41
116.92
125.86
135.65
147.24
161.62
179.74
202.17
228.90
259.02
290.42
319.69
342.31
353.58
349.88
329.98
295.76
251.81
204.04
157.97
117.51
84.40
58.74
39.71
26.20
16.87
9.92
2.90
-7.11
-22.87
-46.15
-76.82
-112.33
-147.99
-177.81
-195.91
-198.09
-183.09
-152.72
-111.21
-63.71
-14.83
32.02
74.61
111.39
141.10
163.09
177.79
187.21
194.52
202.98
214.74
230.10
247.49
264.10
276.59
281.77
276.96
260.06
229.82
185.80
128.25
57.93
-23.71
-113.71
-206.68
-294.53
-367.44
-416.52
-436.86
-429.62
-401.50
-361.95
-319.19
-277.53
-237.09
-196.01
-153.41
-111.34
-74.27
-46.98
-31.98
-28.13
-31.32
-36.43
-39.51
-39.03
-35.62
-30.84
-25.81
-20.58
-14.46
-6.85
2.00
10.81
17.87
21.90
22.89
22.23
22.05
24.31
29.86
38.14
47.59
56.46
63.61
68.94
73.19
77.41
82.26
87.77
93.40
98.43
102.36
105.15
107.14
108.77
110.24
111.41
111.87
111.26
109.54
107.14
104.86
103.59
103.95
106.03
109.38
113.10
116.20
117.79
117.37
114.87
110.58
105.03
98.61
91.39
83.00
72.79
60.28
45.65
30.14
16.03
5.88
1.67
3.64
9.72
15.85
17.04
8.78
-11.67
-44.38
-86.38
-132.06
-174.37
-206.65
-224.62
-227.68
-218.89
-203.52
-186.82
-172.02
-159.64
-148.32
-136.47
-123.79
-111.85
-103.52
-101.62
-107.39
