1660929076.00
64.000000
-0.00
-0.00
-0.00
-0.00
-0.00
-0.00
-0.00
-0.00
-0.00
-0.00
0.00
0.01
0.01
-0.00
-0.03
-0.05
-0.05
0.00
0.13
0.36
0.66
1.01
1.37
1.72
2.06
2.40
2.79
3.25
3.81
4.44
5.09
5.73
6.32
6.90
7.53
8.27
9.15
10.25
11.47
12.67
13.75
14.70
15.58
16.60
17.96
19.79
22.28
25.21
28.29
31.25
33.97
36.57
39.41
42.92
47.39
53.11
59.69
66.57
73.23
79.43
85.38
91.68
99.01
107.80
118.37
130.07
142.02
153.44
164.04
174.18
184.71
196.97
209.41
223.90
240.65
259.59
279.68
298.48
312.23
316.69
308.55
286.50
252.26
209.04
160.83
111.07
61.91
14.35
-31.19
-74.37
-114.82
-152.23
-187.26
-221.32
-256.05
-292.49
-330.02
-365.99
-396.05
-415.62
-421.41
-412.95
-392.83
-365.61
-336.14
-307.82
-281.98
-258.29
-235.82
-213.97
-192.97
-173.50
-156.03
-140.42
-126.01
-111.99
-97.92
-83.89
-70.47
-58.41
-48.22
-39.91
-33.05
-26.94
-20.91
-14.61
-8.11
-1.78
3.89
8.55
12.14
14.92
17.30
19.65
22.14
24.63
26.83
28.43
29.26
29.39
29.06
28.55
28.04
27.57
27.08
26.44
25.58
24.54
23.39
22.23
21.18
20.32
19.69
19.27
19.01
18.81
18.56
18.19
17.62
16.88
16.03
15.17
14.44
13.89
13.52
13.25
12.99
12.64
12.21
11.77
11.42
11.23
11.22
11.31
11.41
11.44
11.38
11.26
11.10
10.90
10.65
10.29
9.84
9.37
8.99
8.83
8.92
9.15
9.34
9.28
8.89
8.23
7.47
6.79
6.31
5.99
5.76
5.49
5.12
4.64
4.06
3.37
2.56
1.59
0.52
-0.53
-1.39
-1.91
-2.09
-2.00
-1.83
-1.77
-1.90
-2.23
-2.68
-3.20
-3.75
-4.36
-5.03
-5.73
-6.36
-6.85
-7.13
-7.25
-7.28
-7.34
-7.47
-7.67
-7.94
-8.19
-8.38
-8.40
-8.16
-7.61
-6.77
-5.76
-4.81
-4.11
-3.78
-3.80
-4.04
-4.29
-4.40
-4.28
-3.94
-3.41
-2.77
-2.06
-1.32
-0.58
0.13
0.77
1.31
1.71
1.98
2.10
2.08
1.96
1.79
1.67
1.68
1.86
2.19
2.55
2.85
3.03
3.10
3.13
3.20
3.31
3.43
3.50
3.52
3.53
3.65
3.93
4.35
4.81
5.17
5.37
5.42
5.42
5.44
5.55
5.71
5.84
5.87
5.76
5.50
5.13
4.70
4.23
3.73
3.20
2.67
2.18
1.80
1.57
1.49
1.54
1.66
1.81
1.98
2.17
2.39
2.61
2.80
2.88
2.84
2.67
2.41
2.12
1.83
1.59
1.40
1.30
1.26
1.30
1.40
1.55
1.78
2.08
2.43
2.76
2.99
3.08
3.00
2.80
2.52
2.21
1.88
1.54
1.22
0.98
0.89
1.03
1.38
1.89
2.44
2.89
3.12
3.01
2.52
1.66
0.55
-0.63
-1.66
-2.34
-2.59
-2.43
-2.02
-1.54
-1.15
-0.92
-0.83
-0.81
-0.77
-0.63
-0.39
-0.01
0.56
1.37
2.43
3.65
4.85
5.80
6.30
6.29
5.86
5.18
4.43
3.73
3.11
2.54
2.01
1.49
1.02
0.62
0.31
0.08
-0.10
-0.25
-0.34
-0.31
-0.12
0.24
0.72
1.17
1.42
1.36
0.95
0.28
-0.49
-1.16
-1.58
-1.69
-1.50
-1.07
-0.48
0.16
0.77
1.24
1.47
1.41
1.07
0.55
-0.01
-0.46
-0.73
-0.81
-0.74
-0.59
-0.40
-0.19
-0.00
0.12
0.12
-0.00
-0.22
-0.44
-0.57
-0.54
-0.33
0.02
0.44
0.85
1.17
1.36
1.40
1.31
1.13
0.96
0.86
0.88
1.04
1.31
1.60
1.82
1.92
1.84
1.61
1.29
0.96
0.66
0.39
0.16
-0.05
-0.19
-0.18
0.02
0.38
0.78
1.06
1.09
0.86
0.46
0.06
-0.19
-0.22
-0.11
0.03
0.09
0.07
0.02
0.00
0.06
0.14
0.14
-0.01
-0.27
-0.55
-0.67
-0.56
-0.22
0.22
0.57
0.71
0.63
0.39
0.10
-0.12
-0.26
-0.30
-0.27
-0.16
0.04
0.31
0.62
0.89
1.07
1.15
1.16
1.19
1.27
1.40
1.48
1.42
1.17
0.78
0.38
0.09
0.03
0.17
0.44
0.72
0.90
0.94
0.85
0.65
0.40
0.15
-0.06
-0.23
-0.33
-0.36
-0.30
-0.16
0.01
0.20
0.38
0.53
0.71
0.92
1.16
1.35
1.40
1.24
0.86
0.33
-0.21
-0.65
-0.89
-0.94
-0.82
-0.58
-0.30
0.00
0.27
0.45
0.55
0.57
0.53
0.47
0.45
0.46
0.52
0.56
0.55
0.44
0.25
0.03
-0.16
-0.26
-0.30
-0.29
-0.30
-0.34
-0.42
-0.52
-0.62
-0.69
-0.67
-0.53
-0.22
0.20
0.61
0.85
0.83
0.53
0.07
-0.36
-0.60
-0.58
-0.32
0.07
0.48
0.84
1.08
1.22
1.26
1.22
1.10
0.90
0.62
0.27
-0.13
-0.54
-0.88
-1.09
-1.11
-0.92
-0.56
-0.11
0.30
0.54
0.52
0.24
-0.22
-0.76
-1.24
-1.57
-1.68
-1.56
-1.26
-0.86
-0.49
-0.25
-0.18
-0.25
-0.33
-0.32
-0.16
0.10
0.38
0.60
0.73
0.78
0.75
0.64
0.38
-0.06
-0.67
-1.39
-2.11
-2.72
-3.12
-3.26
-3.14
-2.79
-2.27
-1.72
-1.25
-0.97
-0.89
-0.92
-0.96
-0.93
-0.81
-0.65
-0.50
-0.37
-0.22
0.01
0.32
0.62
0.77
0.66
0.29
-0.24
-0.74
-1.07
-1.15
-1.06
-0.92
-0.87
-0.97
-1.20
-1.52
-1.86
-2.18
-2.48
-2.75
-2.96
-3.02
-2.87
-2.43
-1.72
-0.88
-0.07
0.54
0.88
0.98
0.94
0.90
0.96
1.13
1.37
1.59
1.70
1.66
1.46
1.17
0.87
0.66
0.60
0.71
0.91
1.07
1.08
0.89
0.49
-0.03
-0.59
-1.15
-1.69
-2.22
-2.74
-3.27
-3.80
-4.35
-4.94
-5.60
-6.36
-7.26
-8.30
-9.47
-10.76
-12.16
-13.67
-15.32
-17.19
-19.39
-22.03
-25.19
-28.85
-32.98
-37.46
-42.19
-47.05
-51.93
-56.74
-61.46
-66.11
-70.83
-75.82
-81.28
-87.38
-94.19
-101.63
-109.52
-117.58
-125.48
-132.95
-139.89
-146.53
-153.46
-161.45
-170.77
-180.57
-188.53
-191.20
-185.11
-167.96
-139.32
-100.60
-54.26
-3.06
50.11
102.04
148.94
186.77
212.34
224.65
225.51
219.04
210.08
202.40
197.58
195.21
193.85
192.23
190.04
187.88
186.74
187.33
189.80
193.66
198.12
202.43
206.18
209.33
212.00
214.20
215.75
216.44
216.47
216.60
217.78
220.34
223.21
223.60
217.80
202.51
176.15
139.30
94.16
43.63
-9.42
-62.07
-111.00
-152.43
-182.89
-200.52
-205.99
-202.44
-194.14
-184.75
-176.04
-167.97
-159.58
-150.15
-139.89
-129.68
-120.39
-112.32
-105.11
-98.12
-90.89
-83.39
-76.01
-69.29
-63.60
-59.01
-55.22
-51.76
-48.12
-44.04
-39.55
-34.97
-30.74
-27.21
-24.43
-22.20
-20.18
-18.08
-15.80
-13.46
-11.31
-9.58
-8.35
-7.53
-6.88
-6.16
-5.22
-4.08
-2.91
-1.92
-1.30
-1.11
-1.27
-1.60
-1.90
-2.02
-1.90
-1.57
-1.13
-0.68
-0.31
-0.04
0.13
0.26
0.41
0.61
0.89
1.20
1.49
1.68
1.75
1.67
1.42
0.99
0.35
-0.51
-1.54
-2.64
-3.64
-4.41
-4.87
-5.02
-4.93
-4.66
-4.32
-3.95
-3.61
-3.35
-3.17
-3.05
-2.98
-2.94
-2.91
-2.90
-2.89
-2.80
-2.55
-2.07
-1.37
-0.57
0.14
0.60
0.73
0.62
0.42
0.30
0.33
0.53
0.82
1.12
1.41
1.66
1.87
2.00
2.00
1.83
1.52
1.11
0.70
0.32
-0.06
-0.49
-1.04
-1.69
-2.35
-2.87
-3.13
-3.08
-2.75
-2.21
-1.58
-0.97
-0.46
-0.14
-0.02
-0.10
-0.32
-0.59
-0.81
-0.94
-0.96
-0.90
-0.83
-0.77
-0.73
-0.68
-0.61
-0.49
-0.34
-0.18
0.01
0.27
0.68
1.26
1.97
2.63
3.00
2.89
2.25
1.19
-0.07
-1.29
-2.33
-3.11
-3.62
-3.78
-3.52
-2.81
-1.68
-0.36
0.89
1.79
2.19
2.10
1.66
1.06
0.46
-0.01
-0.33
-0.49
-0.49
-0.35
-0.10
0.24
0.57
0.85
1.03
1.13
1.22
1.36
1.62
1.93
2.23
2.40
2.41
2.30
2.16
2.09
2.10
2.09
1.93
1.50
0.79
-0.10
-0.98
-1.63
-1.93
-1.88
-1.60
-1.26
-1.02
-0.96
-1.04
-1.17
-1.22
-1.12
-0.94
-0.83
-0.95
-1.38
-2.04
-2.75
-3.29
-3.53
-3.47
-3.23
-2.96
-2.75
-2.62
-2.49
-2.24
-1.79
-1.10
-0.15
0.99
2.25
3.48
4.48
5.05
5.00
4.30
3.04
1.49
-0.01
-1.17
-1.85
-2.02
-1.78
-1.30
-0.66
0.06
0.83
1.58
2.19
2.52
2.46
2.02
1.33
0.61
0.09
-0.10
0.05
0.44
0.90
1.28
1.52
1.61
1.61
1.59
1.59
1.62
1.66
1.67
1.61
1.49
1.34
1.22
1.18
1.25
1.36
1.40
1.28
0.92
0.35
-0.37
-1.13
-1.84
-2.39
-2.71
-2.73
-2.46
-1.97
-1.42
-0.97
-0.75
-0.78
-0.99
-1.25
-1.49
-1.70
-1.93
-2.23
-2.60
-2.99
-3.32
-3.53
-3.59
-3.52
-3.34
-3.06
-2.67
-2.15
-1.54
-0.85
-0.13
0.59
1.28
1.93
2.50
2.99
3.37
3.68
3.91
4.03
3.94
3.57
2.84
1.83
0.74
-0.19
-0.72
-0.77
-0.40
0.14
0.61
0.79
0.64
0.26
-0.14
-0.40
-0.41
-0.24
-0.02
0.13
0.13
0.05
0.02
0.14
0.43
0.81
1.20
1.55
1.91
2.33
2.83
3.32
3.65
3.67
3.37
2.84
2.27
1.81
1.52
1.32
1.09
0.69
0.07
-0.76
-1.69
-2.61
-3.41
-4.01
-4.34
-4.35
-4.02
-3.37
-2.50
-1.59
-0.83
-0.36
-0.24
-0.39
-0.63
-0.82
-0.85
-0.79
-0.77
-0.93
-1.33
-1.89
-2.42
-2.71
-2.62
-2.13
-1.36
-0.54
0.13
0.47
0.42
0.04
-0.55
-1.14
-1.53
-1.56
-1.18
-0.42
0.56
1.56
2.38
2.83
2.85
2.43
1.67
0.73
-0.20
-0.91
-1.26
-1.22
-0.84
-0.26
0.33
0.80
1.05
1.05
0.80
0.36
-0.14
-0.59
-0.82
-0.74
-0.37
0.20
0.78
1.22
1.45
1.51
1.49
1.49
1.52
1.57
1.60
1.64
1.73
1.96
2.30
2.67
2.90
2.84
2.42
1.73
0.92
0.19
-0.32
-0.58
-0.63
-0.58
-0.54
-0.57
-0.71
-0.94
-1.27
-1.65
-2.07
-2.45
-2.73
-2.84
-2.78
-2.62
-2.50
-2.53
-2.76
-3.13
-3.48
-3.67
-3.62
-3.41
-3.18
-3.05
-3.09
-3.20
-3.22
-3.00
-2.45
-1.59
-0.49
0.73
1.92
2.93
3.57
3.68
3.11
1.86
0.10
-1.88
-3.70
-5.00
-5.52
-5.11
-3.75
-1.54
1.34
4.53
7.53
9.76
10.70
10.10
8.07
5.12
1.92
-0.96
-3.33
-5.39
-7.61
-10.41
-13.90
-17.78
-21.59
-24.93
-27.67
-30.08
-32.58
-35.59
-39.25
-43.39
-47.67
-51.78
-55.62
-59.41
-63.59
-68.57
-74.59
-81.56
-89.10
-96.71
-104.06
-111.05
-117.86
-124.80
-132.10
-139.85
-148.17
-157.32
-167.69
-179.35
-191.40
-201.61
-206.61
-202.95
-188.24
-162.08
-125.94
-82.37
-33.98
16.93
68.08
116.63
158.97
191.41
211.50
219.08
216.56
207.90
197.14
187.04
178.64
171.58
164.94
157.98
150.41
142.29
133.83
125.16
116.32
107.33
98.22
89.15
80.41
72.37
65.33
59.46
54.64
50.52
46.68
42.77
38.71
34.68
31.06
28.23
26.45
25.64
25.44
25.31
24.77
23.61
22.01
20.44
19.40
19.14
19.46
19.78
19.34
17.64
14.68
11.00
7.50
5.18
4.78
6.66
10.80
16.76
23.61
29.73
33.01
31.27
23.24
9.32
-8.25
-25.97
-40.38
-49.33
-52.58
-51.47
-48.17
-44.70
-42.37
-41.81
-43.12
-46.27
-51.22
-58.04
-66.91
-77.74
-89.54
-99.70
-104.08
-98.02
-78.32
-45.05
-2.09
43.99
86.53
121.17
147.05
166.15
181.42
195.02
207.52
218.37
226.96
233.52
239.09
244.79
250.76
255.65
256.75
250.84
235.45
209.77
174.82
132.85
86.31
37.17
-13.10
-62.90
-109.74
-150.15
-180.48
-198.25
-203.26
-197.87
-186.06
-171.93
-158.37
-146.56
-136.34
-127.00
-118.06
-109.46
-101.36
-93.81
-86.54
-79.08
-71.05
-62.39
-53.51
-45.12
-37.92
-32.22
-27.76
-23.78
-19.38
-13.87
-7.18
0.10
6.97
12.42
15.88
17.43
17.75
17.71
17.98
18.65
19.33
19.36
18.23
15.81
12.30
8.11
3.62
-0.85
-4.91
-8.06
-9.84
-10.23
-9.96
-10.48
-13.41
-19.73
-29.09
-39.80
-49.51
-56.22
-59.10
-58.64
-56.14
-52.90
-49.68
-46.55
-43.21
-39.48
-35.57
-32.02
-29.36
-27.87
-27.32
-27.16
-26.72
-25.53
-23.54
-21.08
-18.74
-17.02
-16.14
-15.90
-15.82
-15.34
-14.05
-11.75
-8.52
-4.58
-0.23
4.17
8.28
11.82
14.56
16.42
17.42
17.69
17.32
16.36
14.80
12.66
10.04
7.16
4.31
1.77
-0.29
-1.81
-2.83
-3.47
-3.82
-3.97
-3.92
-3.68
-3.28
-2.74
-2.14
-1.59
-1.17
-0.91
-0.80
-0.79
-0.80
-0.83
-0.90
-1.03
-1.23
-1.50
-1.78
-2.01
-2.15
-2.21
-2.22
-2.20
-2.16
-2.13
-2.09
-2.05
-2.01
-1.94
-1.84
-1.67
-1.43
-1.12
-0.81
-0.58
-0.53
-0.70
-1.09
-1.60
-2.14
-2.59
-2.90
-3.07
-3.16
-3.23
-3.35
-3.50
-3.64
-3.69
-3.56
-3.12
-2.24
-0.73
1.53
4.50
7.90
11.19
13.70
14.83
14.33
12.47
9.89
7.44
5.86
5.45
6.11
7.34
8.54
9.20
8.99
7.87
5.97
3.57
1.00
-1.44
-3.48
-4.93
-5.74
-5.96
-5.77
-5.41
-5.07
-4.89
-4.88
-4.99
-5.09
-5.09
-4.92
-4.57
-4.05
-3.45
-2.85
-2.37
-2.13
-2.16
-2.42
-2.75
-2.95
-2.87
-2.52
-2.05
-1.71
-1.68
-2.05
-2.73
-3.56
-4.40
-5.15
-5.83
-6.48
-7.10
-7.65
-8.06
-8.32
-8.52
-8.80
-9.39
-10.43
-11.95
-13.83
-15.81
-17.61
-19.06
-20.17
-21.18
-22.46
-24.38
-27.11
-30.57
-34.44
-38.27
-41.66
-44.44
-46.73
-48.84
-51.15
-54.00
-57.53
-61.62
-65.90
-69.85
-72.98
-75.08
-76.37
-77.48
-79.22
-82.15
-86.30
-91.06
-95.54
-99.05
-101.52
-103.58
-106.30
-110.76
-117.81
-127.96
-141.37
-157.57
-175.05
-191.02
-201.73
-203.36
-193.35
-171.27
-138.80
-98.78
-53.96
-6.40
42.24
89.86
133.26
168.58
192.46
203.60
203.40
195.46
184.08
172.66
162.86
154.84
147.98
141.83
136.48
132.33
129.63
128.13
127.06
125.42
122.38
117.58
111.33
104.37
97.62
91.74
86.92
82.83
78.85
74.41
69.31
63.75
58.17
52.97
48.30
44.01
39.82
35.47
30.93
26.37
22.14
18.56
15.82
13.91
12.65
11.77
11.04
10.34
9.68
9.21
9.08
9.42
10.25
11.46
12.89
14.33
15.59
16.58
17.33
18.05
19.00
20.43
22.39
24.71
27.06
29.12
30.73
31.97
33.03
34.04
34.90
35.29
34.86
33.43
31.21
28.75
26.76
25.86
26.24
27.70
29.75
31.84
33.54
34.62
34.97
34.57
33.53
32.09
30.67
29.87
30.31
32.55
36.97
43.61
52.26
62.46
73.70
85.59
97.98
110.72
123.33
134.58
142.73
146.25
145.01
140.95
137.68
138.74
145.46
155.74
164.44
165.55
154.85
131.48
97.68
57.01
12.37
-34.72
-83.31
-131.42
-175.15
-209.40
-229.88
-235.23
-227.87
-213.08
-196.69
-182.75
-172.51
-164.75
-157.30
-148.63
-138.58
-128.12
-118.45
-110.20
-103.05
-96.13
-88.58
-80.08
-71.10
-62.60
-55.52
-50.31
-46.77
-44.19
-41.73
-38.81
-35.34
-31.63
-28.18
-25.37
-23.33
-21.88
-20.65
-19.30
-17.62
-15.62
-13.49
-11.49
-9.79
-8.39
-7.12
-5.75
-4.16
-2.47
-1.03
-0.28
-0.48
-1.52
-2.98
-4.26
-4.90
-4.76
-4.07
-3.28
