1660326255.00
64.000000
-0.00
-0.00
-0.00
-0.00
-0.00
-0.00
-0.00
-0.00
-0.00
-0.00
0.00
0.01
0.01
-0.00
-0.03
-0.05
-0.05
0.00
0.13
0.36
0.66
1.01
1.37
1.72
2.06
2.40
2.79
3.24
3.80
4.42
5.06
5.66
6.20
6.68
7.15
7.68
8.31
9.14
10.09
11.04
11.88
12.56
13.14
13.76
14.65
15.96
17.91
20.32
22.90
25.38
27.58
29.57
31.68
34.32
37.81
42.54
48.15
54.10
59.83
64.97
69.58
74.14
79.34
85.71
93.76
103.00
112.62
121.73
129.77
136.75
143.30
150.75
157.77
166.64
177.95
191.79
206.97
220.57
228.25
225.36
208.53
176.87
132.76
80.05
23.07
-34.94
-92.44
-149.16
-205.23
-260.37
-313.74
-363.87
-409.83
-450.91
-486.50
-515.74
-537.23
-549.22
-549.96
-538.37
-514.21
-478.67
-433.88
-382.45
-327.02
-269.84
-212.63
-156.66
-102.95
-52.37
-5.90
35.58
71.43
101.35
125.50
144.38
158.69
169.15
176.37
180.75
182.57
182.07
179.51
175.23
169.65
163.18
156.15
148.81
141.30
133.69
126.02
118.33
110.69
103.16
95.80
88.68
81.83
75.25
68.95
62.95
57.25
51.86
46.78
42.03
37.59
33.45
29.61
26.07
22.81
19.83
17.11
14.67
12.48
10.54
8.84
7.35
6.07
4.97
4.04
3.26
2.63
2.10
1.68
1.32
1.02
0.74
0.49
0.28
0.10
-0.03
-0.12
-0.17
-0.21
-0.25
-0.31
-0.37
-0.43
-0.45
-0.45
-0.40
-0.35
-0.32
-0.34
-0.44
-0.59
-0.76
-0.88
-0.92
-0.89
-0.82
-0.81
-0.92
-1.21
-1.64
-2.08
-2.43
-2.57
-2.51
-2.36
-2.31
-2.52
-3.08
-3.89
-4.75
-5.41
-5.69
-5.58
-5.28
-5.10
-5.32
-6.06
-7.20
-8.40
-9.31
-9.71
-9.59
-9.18
-8.76
-8.62
-8.96
-9.93
-11.65
-14.02
-16.47
-17.84
-16.65
-11.74
-2.90
8.82
21.51
33.13
42.30
48.62
52.42
54.12
53.76
51.15
45.82
37.89
28.18
18.03
8.75
1.22
-4.35
-8.19
-10.68
-12.19
-12.77
-12.35
-10.92
-8.66
-6.00
-3.48
-1.62
-0.71
-0.82
-1.77
-3.32
-5.17
-7.02
-8.45
-9.00
-8.30
-6.22
-3.03
0.68
4.11
6.56
7.58
7.06
5.24
2.54
-0.55
-3.60
-6.22
-8.11
-9.09
-9.14
-8.38
-7.07
-5.56
-4.21
-3.28
-2.83
-2.73
-2.70
-2.53
-2.10
-1.54
-1.10
-0.96
-1.05
-0.94
0.01
2.38
6.35
11.58
17.30
22.61
26.75
29.18
29.70
28.51
26.04
22.67
18.73
14.43
9.96
5.56
1.52
-1.85
-4.33
-5.86
-6.60
-6.75
-6.57
-6.34
-6.36
-6.94
-8.28
-10.26
-12.41
-13.90
-13.76
-11.23
-6.05
1.48
10.50
19.91
28.64
35.84
41.02
44.05
45.10
44.47
42.47
39.30
35.00
29.59
23.20
16.20
9.18
2.78
-2.52
-6.55
-9.45
-11.56
-13.25
-14.79
-16.36
-18.03
-19.77
-21.31
-22.19
-21.74
-19.25
-14.31
-7.05
1.84
11.17
19.68
26.32
30.55
32.33
32.01
30.13
27.17
23.56
19.67
15.89
12.56
9.98
8.21
7.05
6.13
5.03
3.46
1.32
-1.30
-4.29
-7.56
-11.07
-14.73
-18.29
-21.25
-22.88
-22.46
-19.46
-13.76
-5.81
3.43
12.66
20.53
26.00
28.62
28.52
26.35
22.94
19.04
15.15
11.49
8.07
4.82
1.69
-1.36
-4.36
-7.36
-10.38
-13.37
-16.28
-19.02
-21.59
-24.13
-26.92
-30.29
-34.32
-38.68
-42.49
-44.55
-43.73
-39.50
-32.21
-23.00
-13.47
-5.08
1.22
5.16
6.98
7.13
6.09
4.24
1.94
-0.41
-2.45
-3.95
-4.81
-5.18
-5.31
-5.48
-5.91
-6.70
-7.84
-9.27
-10.90
-12.72
-14.81
-17.32
-20.37
-23.87
-27.43
-30.40
-32.02
-31.74
-29.47
-25.67
-21.17
-16.96
-13.90
-12.52
-13.10
-15.66
-20.05
-26.01
-33.12
-40.80
-48.39
-55.23
-60.79
-64.76
-67.04
-67.70
-66.91
-64.84
-61.62
-57.30
-51.94
-45.63
-38.62
-31.34
-24.36
-18.23
-13.19
-8.99
-4.87
0.25
7.33
16.78
28.24
40.57
52.25
61.81
68.23
71.15
70.79
67.73
62.65
56.19
48.90
41.24
33.64
26.46
19.96
14.30
9.58
5.87
3.32
2.07
2.20
3.58
5.84
8.34
10.31
11.08
10.22
7.76
4.20
0.43
-2.50
-3.69
-2.70
0.42
5.20
10.93
16.86
22.21
26.22
28.11
27.36
23.90
18.30
11.68
5.33
0.22
-3.35
-5.74
-7.70
-9.92
-12.68
-15.84
-18.94
-21.49
-23.20
-24.08
-24.43
-24.76
-25.57
-27.10
-29.15
-30.99
-31.58
-29.87
-25.18
-17.44
-7.20
4.55
16.67
28.06
37.85
45.45
50.66
53.62
54.81
54.86
54.40
53.77
53.00
51.81
49.86
46.95
43.15
38.71
33.94
29.11
24.27
19.37
14.29
8.95
3.30
-2.59
-8.53
-14.15
-18.86
-21.98
-22.83
-21.03
-16.65
-10.26
-2.78
4.75
11.52
17.05
21.36
24.84
28.06
31.64
35.99
41.24
47.22
53.50
59.60
65.15
70.01
74.31
78.24
81.89
85.13
87.51
88.39
87.07
82.81
74.87
62.63
45.77
24.55
0.07
-25.87
-51.06
-73.47
-91.71
-105.18
-113.95
-118.50
-119.46
-117.61
-113.85
-109.21
-104.61
-100.68
-97.59
-95.09
-92.79
-90.32
-87.44
-83.99
-79.92
-75.34
-70.69
-66.87
-64.96
-65.85
-69.54
-74.77
-79.15
-79.76
-74.05
-60.77
-40.38
-15.01
12.11
37.46
57.97
71.57
77.34
75.37
66.48
51.99
33.51
12.88
-8.00
-27.47
-44.47
-58.68
-70.52
-80.75
-89.94
-98.13
-104.85
-109.41
-111.43
-111.06
-108.95
-105.84
-102.18
-97.85
-92.24
-84.60
-74.43
-61.84
-47.55
-32.79
-18.82
-6.60
3.48
11.64
18.39
24.31
29.75
34.83
39.49
43.63
47.13
49.83
51.43
51.49
49.52
45.07
37.97
28.41
17.01
4.77
-7.19
-17.82
-26.47
-32.83
-36.83
-38.36
-37.12
-32.75
-25.16
-14.90
-3.31
7.75
16.41
21.29
21.87
18.40
11.58
2.33
-8.54
-20.23
-32.02
-43.27
-53.49
-62.51
-70.55
-78.10
-85.65
-93.41
-101.05
-107.75
-112.34
-113.77
-111.43
-105.29
-95.75
-83.38
-68.79
-52.55
-35.52
-18.93
-4.27
7.08
14.34
17.72
18.24
17.30
16.10
15.30
14.93
14.79
14.61
14.37
14.17
14.17
14.41
14.81
15.21
15.36
14.96
13.73
11.36
7.74
3.16
-1.54
-4.95
-5.39
-1.36
7.86
21.86
39.07
57.21
73.97
87.65
97.47
103.52
106.37
106.69
105.06
102.01
98.14
94.19
90.93
88.93
88.26
88.50
88.88
88.57
86.95
83.61
78.27
70.71
60.76
48.68
35.44
22.82
13.10
8.28
9.37
15.95
26.28
37.98
48.84
57.38
63.02
65.77
65.91
63.82
59.94
54.96
49.74
45.13
41.58
39.03
36.93
34.70
32.11
29.44
27.28
26.13
26.02
26.45
26.83
26.94
27.25
28.90
33.19
41.04
52.75
68.06
86.35
106.54
126.85
144.83
157.74
163.30
160.54
150.14
134.17
115.23
95.66
77.34
62.17
52.60
51.49
60.95
81.21
109.93
142.74
174.67
201.78
222.14
235.69
243.43
246.26
244.88
240.12
233.06
224.64
215.20
204.39
191.44
175.87
157.07
135.25
111.60
87.84
65.28
44.33
24.76
6.15
-11.89
-31.06
-53.03
-78.44
-106.58
-135.99
-165.38
-193.69
-220.07
-243.95
-266.74
-290.06
-314.31
-338.34
-360.40
-379.33
-394.55
-405.88
-402.38
-376.28
-328.69
-269.88
-211.40
-159.84
-117.04
-82.04
-53.07
-28.42
-8.42
6.37
16.43
23.60
29.91
36.28
43.04
50.05
57.08
62.62
65.35
64.99
62.32
58.30
52.71
45.37
36.12
25.16
12.34
-2.17
-17.61
-32.87
-44.92
-54.50
-62.49
-69.45
-75.35
-80.02
-83.10
-84.19
-83.15
-80.44
-77.40
-75.07
-74.34
-75.84
-79.78
-85.54
-91.18
-93.42
-88.62
-74.56
-51.24
-21.74
8.57
33.98
50.75
58.24
58.68
55.60
51.74
48.32
44.93
40.44
34.18
26.46
18.45
11.46
6.32
3.12
1.31
0.14
-0.90
-2.02
-3.17
-4.23
-5.39
-7.22
-10.40
-15.26
-21.47
-27.42
-31.08
-30.73
-25.80
-17.28
-7.47
1.04
6.34
7.87
6.33
2.95
-1.34
-6.27
-12.03
-18.70
-25.33
-30.21
-31.37
-27.50
-18.85
-7.15
5.02
15.42
23.06
28.54
33.32
38.67
44.76
50.29
53.34
52.42
47.50
40.12
32.76
27.47
24.95
24.40
24.20
22.98
20.34
16.70
12.55
7.90
2.32
-4.26
-10.72
-14.81
-14.36
-8.99
-1.14
4.57
3.68
-5.49
-20.50
-35.61
-44.45
-43.03
-31.51
-13.72
4.93
19.92
29.22
33.09
33.04
30.58
26.63
21.70
16.29
11.29
7.87
7.08
9.08
12.91
16.64
18.01
15.29
7.90
-3.35
-17.13
-30.95
-42.25
-49.16
-50.84
-47.56
-40.13
-29.50
-16.50
-2.02
12.41
23.60
26.65
15.97
-12.44
-58.20
-114.97
-171.09
-212.71
-228.21
-212.39
-168.23
-105.76
-38.59
20.41
62.43
84.13
87.08
76.12
57.27
36.11
16.85
1.86
-8.02
-13.08
-14.08
-11.54
-5.56
4.19
18.09
35.96
56.43
76.45
91.52
96.93
89.49
69.17
39.84
8.38
-17.40
-31.41
-31.35
-19.41
-1.60
14.08
19.92
10.62
-15.31
-54.98
-101.75
-146.68
-180.78
-197.13
-192.55
-168.27
-129.53
-84.22
-41.02
-7.39
12.11
16.77
9.42
-4.80
-20.40
-33.26
-41.38
-44.61
-43.67
-39.08
-30.80
-18.49
-2.20
17.10
37.50
56.74
72.95
85.44
95.05
104.04
115.37
131.59
153.54
179.42
204.69
223.08
228.13
215.04
182.10
131.50
69.35
4.61
-52.83
-94.74
-116.87
-120.14
-110.12
-94.65
-80.85
-72.71
-70.25
-70.62
-70.07
-65.77
-56.57
-42.69
-25.00
-4.49
17.77
40.41
61.69
79.70
92.78
99.94
101.11
97.10
89.26
79.15
68.15
57.41
47.81
40.04
34.51
30.95
27.83
22.24
10.31
-11.40
-44.18
-85.86
-130.67
-170.53
-197.39
-205.68
-193.94
-165.03
-125.05
-81.44
-41.00
-8.46
14.18
27.55
34.04
36.70
38.23
40.24
43.22
46.74
50.08
52.58
53.78
53.46
51.51
47.89
42.81
36.81
30.81
25.92
23.24
23.62
27.53
35.02
45.32
56.38
64.52
64.87
52.81
26.18
-12.76
-56.90
-95.86
-119.42
-121.13
-100.55
-63.18
-18.19
24.87
58.72
79.61
86.96
82.28
68.07
47.31
23.30
-0.36
-20.08
-32.90
-37.25
-33.38
-23.19
-9.50
5.07
18.92
31.76
44.09
56.29
67.76
76.83
81.38
80.02
73.14
62.91
52.51
44.52
39.53
35.59
28.87
15.34
-7.33
-38.35
-73.54
-106.24
-129.07
-136.10
-124.70
-96.47
-57.02
-14.49
22.83
48.79
61.02
61.16
53.80
44.55
38.16
37.18
41.60
49.29
56.93
61.11
59.33
50.78
36.77
20.58
6.65
-0.66
1.65
14.48
36.65
65.54
97.94
130.70
160.74
184.87
199.65
201.75
188.92
161.06
121.01
74.42
28.59
-9.43
-34.88
-46.55
-46.87
-40.82
-33.93
-30.45
-32.22
-38.72
-48.04
-58.00
-67.02
-74.29
-79.40
-81.93
-81.27
-76.79
-68.09
-55.31
-39.12
-20.63
-1.42
16.52
31.03
40.19
43.01
39.97
33.03
25.02
18.53
14.86
13.41
11.82
6.65
-5.43
-26.63
-57.06
-94.36
-133.86
-169.20
-193.71
-201.96
-191.31
-162.90
-121.69
-75.42
-32.67
-0.69
16.35
18.15
7.97
-8.61
-25.33
-36.82
-39.77
-33.48
-19.72
-1.98
15.77
30.45
40.78
47.59
53.08
59.59
68.27
78.52
88.33
95.32
98.04
96.68
93.05
89.85
89.61
93.58
100.97
108.78
112.35
106.64
88.06
56.14
14.52
-29.64
-67.63
-92.01
-99.18
-90.46
-71.21
-48.56
-28.76
-15.28
-8.51
-6.63
-6.95
-7.10
-5.46
-1.07
6.53
17.32
30.57
44.69
57.42
66.42
70.06
67.91
60.80
50.50
39.01
27.96
18.25
10.09
3.21
-2.70
-7.71
-11.65
-14.43
-16.65
-20.05
-27.43
-41.90
-65.53
-98.13
-136.54
-175.13
-207.08
-226.19
-228.35
-212.38
-180.15
-136.15
-86.60
-38.39
2.28
31.18
46.89
50.96
47.11
39.87
33.10
28.95
27.68
28.20
28.97
28.85
27.49
25.11
22.01
18.18
13.28
7.22
0.84
-3.80
-3.93
2.50
15.45
32.14
47.68
56.79
55.67
43.19
20.90
-7.73
-38.29
-66.12
-86.81
-96.76
-94.11
-79.61
-56.84
-31.52
-9.61
4.64
10.02
8.25
2.79
-2.85
-6.42
-7.24
-5.77
-2.78
1.25
6.36
12.80
20.63
29.45
38.38
46.40
52.82
57.53
61.13
64.59
68.84
74.22
80.42
86.37
90.72
92.30
90.67
86.38
80.89
76.12
73.75
74.69
78.80
85.11
92.45
99.99
107.51
115.25
123.34
131.30
137.94
141.57
140.78
135.08
125.26
113.09
100.62
89.41
80.04
72.21
64.94
57.06
47.84
37.18
25.62
13.97
3.03
-6.68
-14.64
-20.81
-25.56
-29.32
-32.30
-34.30
-34.66
-32.47
-26.88
-17.01
-3.06
13.63
30.93
46.67
59.24
68.16
73.98
78.05
82.28
87.58
93.45
98.53
101.59
102.15
101.00
99.82
96.26
90.29
83.41
77.77
74.86
75.06
77.67
82.01
86.50
89.72
91.02
89.58
84.43
74.51
61.67
47.69
34.26
22.56
13.12
6.34
1.94
-0.86
-2.91
-4.87
-7.57
-11.74
-18.15
-27.42
-39.65
-54.68
-72.06
-90.97
-110.30
-129.12
-146.72
-162.70
-176.91
-189.18
-199.41
-207.48
-213.34
-216.97
-218.85
-219.76
-220.80
-223.28
-228.60
-238.14
-252.86
-272.80
-296.60
-321.50
-343.74
-359.49
-365.71
-360.70
-344.15
-316.77
-280.08
-236.24
-188.23
-139.70
-94.57
-56.25
-26.88
-6.76
5.48
12.39
17.03
22.35
30.83
43.95
61.86
83.19
105.36
125.20
140.00
148.16
149.32
143.83
131.98
113.56
88.18
56.29
20.12
-16.18
-47.46
-69.45
-80.39
-81.65
-76.86
-70.18
-64.51
-60.75
-58.15
-55.38
-51.47
-46.08
-39.16
-30.70
-20.88
-10.76
-2.52
1.15
-1.44
-9.56
-19.64
-26.61
-26.29
-17.57
-3.09
12.06
22.85
26.55
23.56
16.63
9.05
3.03
-0.92
-3.46
-5.49
-7.35
-8.80
-9.51
-9.69
-10.24
-12.43
-16.96
-23.13
-28.64
-30.25
-24.90
-10.99
10.91
38.20
67.04
93.40
113.98
126.87
131.67
129.38
121.94
111.58
100.29
89.48
80.01
72.41
67.10
64.32
63.82
64.50
64.39
61.13
52.87
39.11
21.10
1.45
-16.76
-31.05
-40.26
-44.75
-45.95
-45.92
-46.61
-49.51
-55.43
-64.43
-75.80
-88.17
-99.80
-109.04
-114.98
-117.67
-118.19
-117.98
-118.01
-117.99
-116.27
-110.35
-98.03
-78.49
-52.66
-23.00
7.48
36.04
60.67
80.02
93.04
98.74
96.51
86.64
70.77
51.87
33.66
19.52
11.54
10.11
14.06
21.35
29.85
37.88
44.45
49.13
51.63
51.60
48.58
42.20
32.57
20.47
7.35
-5.07
-15.28
-22.61
-27.39
-30.88
-34.85
-40.96
-50.38
-63.33
-79.01
-95.65
-110.81
-121.86
-126.47
-123.18
-111.79
-93.40
-70.22
-45.00
-20.38
1.74
20.50
36.06
49.23
60.85
71.38
80.59
87.68
91.76
92.23
89.33
84.15
78.41
73.90
71.83
72.49
75.12
78.33
80.61
80.85
78.56
73.78
66.83
58.10
47.98
36.95
25.71
15.07
5.78
-1.80
-7.88
-13.28
-19.12
-26.54
-36.30
-48.45
-62.26
-76.15
-87.94
-95.31
-96.32
-89.92
-76.29
-56.84
-33.77
-9.50
13.89
35.01
53.15
68.15
80.08
89.10
95.33
98.94
100.17
99.32
96.79
93.00
88.28
82.93
77.14
71.06
64.82
58.59
52.56
46.87
41.54
36.44
31.28
25.71
19.39
12.04
3.63
-5.52
-14.81
-23.43
-30.69
-36.28
-40.39
-43.63
-46.83
-50.73
-55.89
-62.55
-70.57
-79.30
-87.44
-93.12
-94.36
-89.64
-78.60
-62.26
-42.64
-22.06
-2.38
15.42
31.18
45.10
57.35
67.71
75.65
80.59
82.18
80.54
76.32
70.63
64.75
59.80
56.52
55.05
54.97
55.47
55.56
54.31
50.96
45.20
37.13
27.30
16.45
5.31
-5.61
-16.09
-26.07
-35.49
-44.26
-52.22
-59.19
-65.07
-69.76
-73.29
-75.89
-78.09
-80.64
-84.17
-88.71
-93.29
-95.94
-94.29
-86.46
-71.90
-51.68
-28.20
-4.44
17.04
34.62
47.88
57.18
63.28
66.82
68.22
67.73
65.72
62.85
60.03
58.17
57.85
59.07
61.28
63.72
65.82
67.44
68.74
69.94
70.83
70.68
68.48
63.34
55.02
44.16
32.03
19.99
9.02
-0.70
-9.63
-18.50
-27.90
-38.01
-48.69
-59.73
-71.07
-82.78
-94.80
-106.52
-116.55
-122.89
-123.50
-117.11
-103.76
-84.83
-62.60
-39.39
-16.93
3.89
22.81
39.74
54.37
66.19
74.65
79.53
81.15
80.38
78.31
75.90
73.68
71.67
69.60
67.22
64.53
61.84
59.40
57.23
54.90
51.79
47.43
41.73
35.01
27.81
20.46
12.94
5.01
-3.58
-12.83
-22.42
-31.84
-40.60
-48.43
-55.28
-61.39
-67.21
-73.32
-80.36
-88.75
-98.60
-109.41
-120.03
-128.68
-133.34
-132.14
-124.00
-108.97
-88.38
-64.44
-39.59
-15.88
5.43
23.87
39.43
52.17
62.01
68.76
72.39
73.27
72.18
70.26
68.64
68.13
69.07
71.28
74.23
77.22
79.60
80.86
80.60
78.54
74.54
68.61
61.01
52.33
43.31
34.72
27.10
20.53
14.61
8.59
1.68
-6.66
-16.38
-26.94
-37.47
-47.13
-55.39
-62.23
-68.09
-73.72
-79.94
-87.35
-96.07
-105.51
-114.39
-120.97
-123.51
-120.80
-112.46
-98.98
-81.36
-60.74
-38.13
-14.33
9.80
33.29
55.00
73.84
88.96
99.89
106.53
109.00
107.63
102.94
95.80
87.35
78.78
71.03
64.44
58.75
53.25
47.26
40.46
33.02
25.41
18.16
11.61
5.82
0.74
-3.60
-7.17
-9.99
-12.36
-14.87
-18.22
-22.87
-28.78
-35.32
-41.50
-46.34
-49.31
-50.65
-51.36
-52.98
-57.04
-64.56
-75.46
-88.36
-100.75
-109.65
-112.55
-108.09
-96.56
-79.57
-59.45
-38.45
-18.20
0.48
17.33
32.33
45.49
56.69
65.81
72.80
77.72
80.69
81.86
81.41
79.63
76.98
73.96
70.91
67.85
64.42
60.06
54.28
47.00
38.59
29.76
21.19
13.28
6.10
-0.49
-6.60
-12.22
-17.32
-21.99
-26.49
-31.12
-35.93
-40.62
-44.71
-47.96
-50.75
-54.12
-59.30
-67.01
-76.75
-86.75
-94.44
-97.34
-93.87
-83.84
-68.35
-49.35
-29.07
-9.44
8.17
23.13
35.31
44.94
52.23
57.31
60.17
60.89
59.82
57.57
54.83
52.12
49.59
47.04
44.17
40.83
37.12
33.35
29.78
26.39
22.78
18.38
12.59
5.21
-3.54
-13.03
-22.48
-31.20
-38.86
-45.46
-51.27
-56.66
-61.90
-67.16
-72.55
-78.02
-83.42
-88.16
-91.29
-91.58
-87.92
-79.75
-67.36
-51.75
-34.25
-16.18
1.48
17.99
32.70
44.82
53.54
58.25
58.87
56.03
50.88
44.80
38.97
34.07
30.20
26.99
23.87
20.21
15.61
9.85
3.01
-4.58
-12.41
-19.92
-26.71
-32.63
-37.88
-42.90
-48.20
-54.26
-61.38
-69.69
-78.93
-88.31
-96.42
-101.33
-101.14
-94.67
-82.04
-64.71
-45.05
-25.38
-7.25
8.88
23.31
36.48
48.40
58.49
65.90
69.98
70.70
68.68
64.93
60.46
55.92
51.48
46.89
41.80
35.90
29.18
21.91
14.53
7.39
0.59
-6.12
-13.19
-21.17
-30.51
-41.46
-53.96
-67.50
-80.97
-92.63
-100.38
-102.20
-96.90
-84.57
-66.53
-44.94
-22.10
0.24
21.06
39.99
56.98
71.96
84.77
95.11
102.68
107.22
108.65
107.14
103.20
97.67
91.55
85.73
80.76
76.72
73.33
70.10
66.57
62.39
57.40
51.47
44.48
36.29
26.83
16.20
4.81
-6.69
-17.51
-26.97
-34.79
-41.14
-46.65
-52.17
-58.57
-66.55
-76.57
-88.77
-102.77
-117.42
-130.69
-139.91
-142.35
-136.18
-121.24
-99.16
-72.93
-45.82
-20.37
2.20
21.89
39.40
55.38
70.04
83.03
93.74
101.58
106.25
107.83
106.71
103.47
98.84
93.56
88.30
83.56
79.54
76.17
73.06
69.75
65.77
60.82
54.79
47.82
40.17
32.14
23.97
15.74
7.38
-1.20
-10.05
-19.03
-27.86
-36.22
-43.97
-51.29
-58.72
-66.96
-76.62
-87.93
-100.40
-112.75
-123.10
-129.28
-129.42
-122.59
-108.98
-89.89
-67.20
-42.74
-17.90
6.43
29.67
51.18
70.09
85.49
96.73
103.72
106.90
107.03
104.94
101.38
96.96
92.22
87.67
83.69
80.41
77.70
75.12
72.15
68.28
63.13
56.58
48.75
40.00
30.90
22.04
13.88
6.59
-0.08
-6.62
-13.56
-21.23
-29.52
-38.00
-46.04
-53.11
-59.00
-63.99
-68.82
-74.52
-82.00
-91.65
-102.93
-114.30
-123.42
-127.77
-125.38
-115.48
-98.78
-77.19
-53.16
-29.01
-6.26
14.46
33.23
50.41
66.15
80.18
91.80
100.34
105.39
107.16
106.33
103.77
100.16
95.83
90.81
85.12
79.02
73.04
67.79
63.57
60.19
57.01
53.24
48.29
42.11
35.05
27.77
20.86
14.62
8.94
3.42
-2.44
-9.00
-16.31
-24.16
-32.13
-39.92
-47.44
-54.91
-62.69
-71.19
-80.66
-91.04
-101.91
-112.31
-120.83
-125.79
-125.61
-119.28
-106.80
-89.24
-68.39
-46.31
-24.63
-4.33
14.27
31.29
46.83
60.78
72.74
82.18
88.61
91.79
91.77
89.02
84.25
78.32
72.06
66.12
60.92
56.62
53.16
50.33
47.83
45.32
42.47
39.01
34.80
29.85
24.41
18.87
13.66
8.99
4.71
0.32
-4.82
-11.22
-18.90
-27.34
-35.65
-43.06
-49.28
-54.64
-59.99
-66.28
-74.12
-83.49
-93.65
-103.23
-110.54
-113.93
-112.24
-105.04
-92.82
-76.75
-58.33
-38.99
-19.84
-1.59
15.26
30.32
43.21
53.62
61.43
66.70
69.70
70.81
70.44
68.95
66.72
64.10
61.36
58.73
56.34
54.32
52.69
51.33
49.90
47.84
44.63
39.95
33.93
27.14
20.39
14.35
9.34
5.19
1.39
-2.60
-7.15
-12.31
-17.82
-23.34
-28.57
-33.38
-37.83
-42.12
-46.50
-51.26
-56.68
-63.01
-70.34
-78.40
-86.43
-93.16
-97.11
-96.98
-92.26
-83.34
-71.36
-57.73
-43.56
-29.31
-14.91
-0.09
15.18
30.42
44.73
57.00
66.36
72.39
75.17
75.21
73.25
70.08
66.44
62.90
59.92
57.80
56.67
56.33
56.26
55.60
53.26
48.29
40.14
28.97
15.70
1.82
-11.11
-21.90
-30.11
-36.01
-40.41
-44.09
-47.56
-50.86
-53.72
-55.85
-57.12
-57.69
-58.00
-58.67
-60.53
-64.45
-71.11
-80.55
-91.73
-102.48
-109.89
-111.27
-105.14
-91.81
-73.28
-52.42
-31.90
-13.40
2.61
16.54
29.03
40.44
50.67
59.28
65.87
70.32
72.84
73.77
73.40
71.80
68.96
64.90
59.89
54.55
49.54
45.39
42.15
39.45
36.67
33.28
29.13
24.38
19.37
14.29
9.07
3.39
-3.12
-10.73
-19.49
-29.24
-39.75
-50.66
-61.57
-72.08
-81.88
-90.88
-99.20
-106.89
-113.62
-118.44
-119.84
-116.27
-106.79
-91.55
-71.88
-49.79
-27.34
-6.01
13.44
30.83
46.14
59.25
69.83
77.52
82.11
83.69
82.70
79.75
75.53
70.67
65.59
60.50
55.51
50.66
45.96
41.42
37.09
32.91
28.71
24.15
18.73
11.96
3.59
-6.22
-16.79
-27.19
-36.57
-44.53
-51.29
-57.53
-64.08
-71.65
-80.64
-91.20
-103.26
-116.38
-129.51
-140.86
-148.06
-148.86
-141.92
-127.43
-107.06
-83.37
-58.79
-34.92
-12.30
9.20
29.76
49.13
66.48
80.76
91.17
97.45
100.01
99.65
97.38
93.95
89.86
85.31
80.45
75.46
70.58
66.03
61.86
57.87
53.63
48.62
42.39
34.80
25.96
16.26
6.19
-3.82
-13.48
-22.73
-31.67
-40.53
-49.58
-59.06
-69.23
-80.29
-92.41
-105.47
-118.81
-131.08
-140.26
-144.18
-141.16
-130.68
-113.61
-91.92
-67.98
-43.70
-20.12
2.60
24.77
46.47
67.25
86.05
101.55
112.56
118.47
119.33
115.88
109.33
101.16
92.81
85.46
79.86
76.14
73.94
72.42
70.61
67.56
62.63
55.70
47.14
37.75
28.43
19.80
11.98
4.55
-3.16
-11.75
-21.37
-31.70
-42.10
-51.96
-61.06
-69.69
-78.55
-88.50
-100.12
-113.27
-126.90
-138.99
-146.99
-148.51
-142.08
-127.64
-106.55
-81.07
-53.62
-26.14
0.18
24.79
47.44
67.90
85.80
100.73
112.37
120.63
125.63
127.69
127.25
124.76
120.67
115.38
109.34
103.01
96.84
91.20
86.20
81.62
76.92
71.48
64.86
57.00
48.30
39.47
31.20
23.88
17.31
10.85
3.67
-4.88
-14.92
-26.03
-37.42
-48.23
-57.99
-66.73
-75.00
-83.70
-93.72
-105.54
-118.85
-132.29
-143.50
-149.65
-148.25
-138.06
-119.59
-94.95
-67.14
-39.00
-12.49
11.58
33.23
52.72
70.19
85.45
98.20
108.21
115.40
119.85
121.69
121.02
117.99
112.91
106.38
99.22
92.39
86.65
82.32
79.13
76.31
72.88
68.06
61.50
53.41
44.38
35.14
26.23
17.89
10.03
2.33
-5.58
-13.89
-22.60
-31.49
-40.26
-48.67
-56.70
-64.55
-72.60
-81.30
-91.00
-101.82
-113.39
-124.76
-134.29
-139.91
-139.62
-132.11
-117.26
-96.22
-71.05
-44.09
-17.29
8.04
31.29
52.18
70.46
85.80
97.82
106.23
111.03
112.54
111.34
108.13
103.55
98.07
91.96
85.45
78.80
72.37
66.60
61.79
57.88
54.46
50.81
46.21
40.17
32.73
24.41
16.00
8.31
1.80
-3.64
-8.55
-13.67
-19.61
-26.51
-34.08
-41.77
-49.07
-55.83
-62.27
-68.94
-76.44
-85.23
-95.43
-106.58
-117.56
-126.64
-131.80
-131.18
-123.77
-109.72
-90.33
-67.68
-43.97
-20.99
0.21
19.24
36.11
50.86
63.37
73.38
80.57
84.89
86.62
86.39
84.95
82.90
80.51
77.70
74.30
70.26
65.81
61.39
57.34
53.67
50.07
45.97
40.97
35.00
28.44
21.95
16.10
11.11
6.75
2.46
-2.36
-8.02
-14.50
-21.53
-28.78
-36.08
-43.44
-50.96
-58.71
-66.75
-75.22
-84.37
-94.34
-104.78
-114.56
-121.71
-123.96
-119.53
-107.90
-90.04
-68.08
-44.53
-21.54
-0.42
18.29
34.56
48.42
59.85
68.68
74.77
78.13
79.01
77.88
75.31
71.85
67.93
63.76
59.44
54.95
50.31
45.67
41.28
37.41
34.19
31.53
29.11
26.45
23.21
19.21
14.56
9.53
4.31
-1.05
-6.72
-12.94
-19.80
-27.10
-34.44
-41.37
-47.66
-53.44
-59.19
-65.61
-73.31
-82.54
-92.94
-103.43
-112.22
-117.23
-116.50
-108.94
-94.69
-75.25
-52.96
-30.38
-9.41
9.00
24.86
38.70
50.99
61.78
70.68
77.04
80.30
80.35
77.57
72.82
67.18
61.61
56.79
52.88
49.75
47.02
44.37
41.57
38.52
35.20
31.57
27.54
22.96
17.74
11.80
5.18
-1.92
-9.20
-16.32
-23.07
-29.45
-35.75
-42.29
-49.35
-57.03
-65.24
-73.90
-82.83
-91.61
-99.33
-104.51
-105.38
-100.58
-89.71
-73.74
-54.63
-34.69
-15.75
1.19
15.98
28.84
39.86
48.83
55.30
58.92
59.77
58.44
55.88
53.07
50.67
48.91
47.53
46.08
44.10
41.37
37.91
33.91
29.57
25.00
20.21
15.12
9.72
3.96
-2.19
-8.74
-15.68
-22.91
-30.30
-37.71
-45.08
-52.42
-59.79
-67.30
-75.16
-83.63
-92.92
-103.03
-113.30
-122.32
-128.03
-128.29
-121.62
-107.91
-88.44
-65.60
-42.06
-19.99
-0.57
16.01
30.22
42.68
53.79
63.47
71.32
76.92
80.08
81.07
80.53
79.19
77.55
75.64
73.14
69.57
64.67
58.64
52.05
45.63
39.87
34.85
30.15
25.13
19.15
11.88
3.40
-5.92
-15.47
-24.68
-33.19
-40.88
-47.90
-54.64
-61.60
-69.35
-78.48
-89.42
-102.24
-116.31
-130.13
-141.36
-147.30
-145.71
-135.53
-117.40
-93.46
-66.60
-39.55
-14.13
8.98
29.87
48.85
65.90
80.51
91.91
99.56
103.46
104.25
102.90
100.36
97.22
93.73
89.89
85.74
81.33
76.68
71.67
66.05
59.59
52.44
45.04
38.03
31.75
25.89
19.47
11.26
0.40
-13.11
-28.33
-43.79
-58.07
-70.37
-80.68
-89.59
-98.05
-106.96
-116.92
-127.99
-139.43
-149.64
-156.26
-156.74
-149.14
-132.92
-109.22
-80.54
-49.93
-20.00
7.74
32.87
55.71
76.73
95.99
113.06
127.11
137.23
142.79
143.70
140.55
134.42
126.67
118.56
111.15
105.12
100.86
98.57
98.11
98.95
100.05
100.11
97.92
92.81
84.95
75.09
64.13
52.47
39.79
25.26
8.18
-11.42
-32.43
-53.00
-71.26
-86.01
-97.21
-105.96
-113.92
-122.65
-133.07
-145.03
-157.31
-167.82
-174.17
-174.12
-166.34
-150.71
-128.41
-101.56
-72.56
-43.45
-15.54
10.62
34.96
57.45
77.88
95.79
110.58
121.70
128.84
131.99
131.48
127.96
122.34
115.64
108.83
102.70
97.65
93.73
90.65
87.89
84.84
80.85
75.47
68.45
59.92
50.37
40.48
30.88
21.86
13.28
4.61
-4.76
-15.17
-26.54
-38.35
-49.86
-60.40
-69.66
-77.75
-85.23
-93.01
-102.19
-113.69
-127.80
-143.67
-159.12
-171.02
-176.05
-171.83
-157.75
-135.15
-106.83
-75.97
-45.22
-16.01
11.32
37.01
61.19
83.50
103.02
118.65
129.59
135.64
137.26
135.43
131.19
125.45
118.79
111.53
103.96
96.45
89.54
83.80
79.65
77.07
75.54
74.14
71.91
68.16
62.79
56.35
49.63
43.38
37.83
32.73
27.54
21.71
15.12
8.39
2.17
-3.33
-8.33
-13.49
-19.46
-26.61
-35.01
-44.32
-53.74
-62.40
-69.36
-73.16
-71.90
-63.58
-46.83
-21.85
9.81
46.26
84.94
122.98
157.90
187.64
210.68
226.20
233.43
232.81
227.55
220.17
211.16
199.90
185.03
165.41
141.02
111.38
77.77
46.29
21.33
3.55
-8.17
-16.20
-23.09
-30.35
-41.00
-55.84
-68.41
-74.95
-77.47
-80.10
-88.13
-106.59
-138.92
-190.18
-261.56
-342.47
-422.48
-495.36
-556.32
-603.74
-639.78
-643.22
-604.25
-566.80
-549.02
-538.49
-527.08
-507.87
-477.52
-437.54
-393.65
-357.32
-337.00
-326.96
-317.64
-300.42
-267.21
-214.63
-145.71
-68.42
5.08
66.10
117.23
162.79
204.21
241.66
273.85
299.44
318.70
331.86
340.24
348.18
356.21
360.00
354.50
336.53
306.51
268.44
227.18
187.36
153.43
126.74
105.81
88.83
74.54
62.36
51.92
42.36
32.71
23.12
14.34
7.61
4.82
7.78
17.61
34.23
56.23
81.09
105.74
127.20
143.38
153.53
158.28
159.14
157.83
155.62
153.02
150.00
146.26
141.60
135.96
129.39
121.93
113.57
104.39
94.63
84.81
75.53
67.35
60.59
55.23
50.78
46.28
40.45
31.91
19.61
3.31
-16.14
-36.85
-56.36
-72.24
-82.73
-87.03
-85.45
-79.31
-70.76
-62.40
-56.75
-55.46
-58.67
-64.74
-70.63
-72.98
-69.30
-58.87
-42.84
-23.69
-4.22
13.32
27.60
38.20
45.23
48.98
49.84
48.23
44.79
40.28
35.45
30.77
26.36
22.05
17.62
13.14
9.01
5.88
4.29
4.29
5.24
5.89
4.70
0.33
-7.92
-19.89
-34.55
-50.34
-65.57
-78.92
-89.80
-98.39
-105.36
-111.43
-116.91
-121.50
-124.25
-123.81
-118.79
-108.25
-91.94
-70.59
-45.73
-19.59
5.38
26.94
43.58
54.84
61.28
64.20
65.04
64.84
64.04
62.46
59.84
56.19
52.00
47.92
44.44
41.49
38.68
35.65
32.38
29.23
26.54
24.44
22.75
21.39
20.63
21.20
23.96
29.15
36.12
43.63
50.65
57.01
63.53
71.55
82.19
96.08
112.96
132.01
152.42
173.72
195.89
219.26
244.29
271.50
301.60
334.13
366.84
395.94
417.04
426.77
423.99
409.98
387.91
362.22
335.91
309.80
282.89
253.62
220.98
185.05
146.49
106.54
67.59
31.44
-0.78
-28.26
-50.20
-65.73
-73.99
-74.92
-77.21
-85.61
-100.92
-119.62
-136.53
-147.87
-152.62
-150.09
-143.58
-135.71
-126.90
-117.38
-107.66
-99.02
-92.03
-87.37
-85.53
-87.21
-92.52
-100.43
-110.22
-121.62
-134.86
-150.47
-169.05
-191.06
-217.19
-248.01
-283.41
-322.96
-365.00
-406.18
-441.61
-465.98
-475.07
-467.28
-443.76
-407.81
-364.12
-317.62
-272.46
-231.36
-195.27
-163.27
-133.19
-102.42
-69.32
-34.30
-0.01
29.46
50.00
58.78
54.83
39.25
15.17
-12.65
-38.49
-56.92
-64.46
-60.76
-48.74
-33.29
-19.26
-9.64
-5.00
-4.11
-5.28
-7.30
-9.81
-12.99
-17.13
-22.65
-29.93
-39.22
-50.12
-61.09
-69.49
-72.25
-67.05
-53.05
-31.05
-2.82
29.53
63.83
97.59
127.72
150.77
163.65
164.89
155.27
137.58
115.61
92.75
71.20
51.84
34.72
19.64
6.35
-5.45
-16.33
-27.02
-38.04
-49.24
-59.75
-68.47
-74.85
-79.39
-83.49
-88.44
-94.21
-98.79
-98.77
-90.83
-73.54
-48.25
-18.64
10.81
36.71
57.83
74.84
89.14
101.44
111.10
116.47
116.09
109.77
99.05
86.70
75.48
67.10
61.59
57.64
53.50
47.92
40.64
32.24
23.48
14.61
5.16
-5.80
-19.02
-34.54
-51.65
-69.10
-85.51
-99.67
-110.47
-116.70
-117.04
-110.15
-95.23
-72.48
-43.33
-10.26
23.82
56.18
84.80
108.48
126.73
139.48
146.95
149.57
148.00
143.18
136.24
128.26
120.03
111.84
103.46
94.37
84.08
72.52
60.14
47.92
36.89
27.78
20.58
14.52
8.16
-0.12
-11.65
-27.06
-45.92
-66.71
-86.85
-103.22
-112.73
-113.12
-103.56
-85.01
-59.92
-31.56
-3.10
23.10
45.81
64.76
80.21
92.51
101.92
108.59
112.74
114.63
114.51
112.51
108.53
102.44
94.38
84.98
75.35
66.71
59.91
54.95
50.90
46.23
39.39
29.41
16.23
0.60
-16.22
-32.92
-48.57
-62.80
-75.88
-88.61
-102.15
-117.53
-135.11
-153.98
-171.73
-184.74
-189.12
-182.00
-162.62
-132.65
-95.67
-55.95
-17.10
18.62
50.41
78.37
102.68
123.12
139.05
149.72
154.73
154.30
149.27
140.92
130.72
120.10
110.25
102.07
96.00
92.00
89.54
87.75
85.64
82.32
77.27
70.31
61.60
51.41
40.04
27.81
14.94
1.74
-11.48
-24.42
-36.75
-48.20
-58.58
-67.82
-76.09
-83.82
-91.79
-100.99
-112.33
-126.14
-141.62
-156.60
-167.78
-171.58
-165.42
-148.56
-122.50
-90.39
-55.96
-22.35
8.57
36.17
60.60
82.16
100.88
116.43
128.26
135.88
139.08
138.00
133.19
125.64
116.60
107.42
99.26
92.85
88.35
85.33
83.00
80.46
77.03
72.37
66.56
59.91
52.73
45.18
37.19
28.59
19.23
9.13
-1.51
-12.42
-23.37
-34.30
-45.29
-56.49
-67.99
-79.71
-91.32
-102.24
-111.62
-118.31
-121.05
-118.54
-109.85
-94.73
-73.93
-49.10
-22.60
3.14
26.16
45.36
60.51
71.88
79.80
84.39
85.48
82.98
77.18
68.94
59.47
49.97
41.19
33.32
26.23
19.89
14.64
11.22
10.25
11.79
15.03
18.44
20.38
19.78
16.53
11.37
5.46
-0.33
-5.78
-11.31
-17.56
-24.92
-33.16
-41.65
-49.69
-57.09
-64.28
-72.21
-81.79
-93.35
-106.30
-119.14
-129.77
-136.06
-136.31
-129.69
-116.44
-97.76
-75.55
-51.94
-28.79
-7.41
11.55
27.97
42.00
53.81
63.51
71.16
76.77
80.30
81.79
81.25
78.87
75.03
70.36
65.60
61.45
58.35
56.39
55.28
54.45
53.15
50.67
46.49
40.52
33.09
24.91
16.77
9.23
2.38
-4.11
-10.78
-18.09
-26.20
-35.02
-44.34
-53.96
-63.81
-73.93
-84.33
-95.03
-105.96
-116.98
-127.62
-136.99
-143.64
-145.79
-141.87
-131.00
-113.53
-91.00
-65.71
-40.00
-15.75
5.98
24.79
40.61
53.43
63.16
69.70
73.12
73.81
72.49
70.05
67.39
65.15
63.59
62.62
61.84
60.84
59.38
57.45
55.23
52.83
50.11
46.70
42.17
36.28
29.14
21.15
12.78
4.37
-3.98
-12.31
-20.63
-28.75
-36.32
-43.01
-48.66
-53.43
-57.73
-62.08
-67.02
-73.04
-80.61
-90.02
-101.13
-113.06
-124.10
-131.81
-133.70
-128.03
-114.44
-94.15
-69.52
-43.33
-17.89
5.35
25.81
43.43
58.24
70.16
79.00
84.70
87.43
87.70
86.14
83.39
79.91
75.89
71.39
66.46
61.22
55.92
50.79
46.00
41.52
37.10
32.43
27.18
21.17
14.46
7.31
0.05
-7.03
-13.84
-20.46
-27.06
-33.83
-40.82
-47.89
-54.74
-61.14
-67.05
-72.74
-78.79
-85.88
-94.53
-104.73
-115.71
-125.88
-133.07
-135.08
-130.27
-118.14
-99.50
-76.34
-51.20
-26.55
-4.15
15.28
31.89
46.27
58.91
69.89
78.88
85.42
89.23
90.52
89.89
88.02
85.41
82.16
78.15
73.29
67.80
62.23
57.24
53.28
50.28
47.71
44.73
40.58
34.90
27.83
19.91
11.81
4.00
-3.43
-10.83
-18.77
-27.75
-37.91
-48.88
-59.87
-69.98
-78.53
-85.41
-91.12
-96.71
-103.40
-112.06
-122.84
-134.79
-145.97
-153.78
-155.73
-150.07
-136.36
-115.56
-89.67
-61.17
-32.35
-4.93
20.04
42.11
61.11
76.97
89.58
98.81
104.60
107.03
106.43
103.25
98.00
91.10
82.95
73.97
64.82
56.37
49.54
44.96
42.68
42.00
41.72
40.47
37.36
32.18
25.51
18.34
11.52
5.36
-0.57
-7.10
-15.02
-24.56
-35.22
-46.05
-56.15
-65.07
-73.02
-80.65
-88.72
-97.85
-108.30
-119.84
-131.69
-142.31
-149.53
-150.91
-144.45
-129.27
-106.09
-77.04
-45.01
-12.79
17.57
44.97
69.05
89.78
107.12
120.84
130.66
136.38
138.12
136.37
131.85
125.30
117.36
108.49
99.20
90.16
82.23
76.22
72.45
70.51
69.17
66.88
62.33
55.02
45.44
34.75
24.27
14.85
6.65
-0.84
-8.45
-16.90
-26.52
-37.10
-47.99
-58.38
-67.67
-75.70
-82.88
-90.07
-98.41
-108.91
-121.95
-136.87
-151.75
-163.60
-169.10
-165.64
-152.28
-130.08
-101.80
-70.86
-40.27
-11.89
13.59
36.18
55.90
72.46
85.30
93.93
98.35
99.19
97.60
94.94
92.37
90.59
89.74
89.50
89.32
88.66
87.10
84.47
80.72
75.82
69.69
62.23
53.39
43.29
32.24
20.61
8.87
-2.60
-13.53
-23.73
-33.12
-41.74
-49.70
-57.28
-64.93
-73.26
-82.84
-93.94
-106.09
-117.85
-126.86
-130.38
-126.13
-113.07
-91.89
-64.81
-34.89
-5.03
22.66
47.16
68.21
85.80
99.63
109.11
113.67
113.32
108.99
102.42
95.61
90.18
86.71
84.77
83.24
80.98
77.38
72.48
66.69
60.38
53.45
45.40
35.63
23.92
10.68
-3.11
-16.28
-27.88
-37.62
-45.90
-53.64
-61.94
-71.76
-83.69
-97.69
-113.01
-128.02
-140.28
-147.03
-145.82
-135.35
-116.05
-90.04
-60.46
-30.57
-2.74
21.91
43.34
61.93
77.90
90.94
100.41
105.71
106.70
103.76
97.76
89.76
80.79
71.71
63.23
55.85
49.81
45.03
41.00
36.96
32.02
25.50
17.09
6.96
-4.35
-16.11
-27.58
-38.23
-47.87
-56.78
-65.64
-75.38
-86.73
-99.62
-112.73
-123.53
-128.84
-125.95
-113.79
-93.48
-68.02
-41.22
-16.28
5.13
23.08
38.67
53.11
66.89
79.64
90.34
97.94
101.78
101.75
98.30
92.25
84.63
76.51
68.87
62.40
57.41
53.72
50.78
47.67
43.39
37.04
28.13
16.72
3.43
-10.82
-25.14
-39.04
-52.72
-66.93
-82.58
-100.12
-118.92
-136.90
-150.91
-157.51
-154.19
-140.29
-117.37
-88.62
-57.71
-27.65
-0.06
24.72
47.04
67.19
84.96
99.74
110.84
117.95
121.28
121.53
119.62
116.45
112.61
108.36
103.73
98.66
93.25
87.66
82.04
76.35
70.23
63.17
54.83
45.22
34.80
24.19
13.85
3.87
-6.00
-16.08
-26.51
-37.24
-48.16
-59.33
-71.03
-83.64
-97.45
-112.56
-128.82
-145.74
-162.24
-176.50
-185.94
-187.79
-180.08
-162.44
-136.56
-105.62
-73.16
-41.90
-13.12
13.24
37.77
60.80
82.03
100.58
115.52
126.19
132.43
134.55
133.12
128.93
122.89
115.89
108.81
102.27
96.59
91.69
87.18
82.49
77.11
70.78
63.53
55.58
47.22
38.57
29.57
20.07
9.89
-0.92
-12.19
-23.61
-34.93
-46.02
-56.97
-68.03
-79.63
-92.34
-106.66
-122.71
-139.79
-156.07
-168.73
-174.58
-170.98
-156.86
-133.13
-102.47
-68.46
-34.56
-3.20
24.42
48.25
68.74
86.36
101.20
112.96
121.12
125.22
125.13
121.17
114.12
105.09
95.29
85.77
77.30
70.23
64.61
60.23
56.70
53.48
50.01
45.78
40.46
34.02
26.71
18.99
11.28
3.78
-3.58
-11.15
-19.29
-28.20
-37.83
-47.89
-58.07
-68.16
-78.17
-88.43
-99.40
-111.54
-124.84
-138.41
-150.37
-158.02
-158.66
-150.48
-133.34
-108.86
-79.92
-49.65
-20.51
6.15
30.01
51.23
69.99
86.11
99.21
108.87
114.96
117.76
117.83
115.91
112.55
108.06
102.54
96.08
88.98
81.79
75.13
69.31
64.19
59.10
53.25
46.14
37.92
29.30
21.25
14.41
8.78
3.73
-1.72
-8.35
-16.43
-25.65
-35.32
-44.74
-53.49
-61.66
-69.75
-78.45
-88.47
-100.29
-113.96
-128.82
-143.40
-155.47
-162.40
-161.95
-152.91
-135.68
-112.08
-84.82
-56.59
-29.40
-4.25
18.63
39.37
58.06
74.53
88.43
99.33
106.94
111.16
112.11
110.17
105.85
99.91
93.17
86.52
80.72
76.24
73.11
70.88
68.72
65.65
60.90
54.23
46.00
37.00
28.18
20.21
13.25
6.90
0.45
-6.79
-15.28
-25.05
-35.76
-46.83
-57.64
-67.73
-77.00
-85.87
-95.23
-106.16
-119.32
-134.33
-149.34
-161.28
-166.74
-163.16
-149.82
-128.16
-101.08
-71.95
-43.41
-16.95
7.07
28.75
48.16
65.02
78.83
89.23
96.22
100.13
101.45
100.56
97.67
92.95
86.74
79.73
72.85
67.05
62.90
60.35
58.79
57.22
54.67
50.57
44.89
38.11
30.96
24.10
17.78
11.77
5.45
-1.90
-10.66
-20.77
-31.71
-42.75
-53.32
-63.17
-72.47
-81.70
-91.50
-102.44
-114.81
-128.22
-141.40
-152.14
-157.76
-155.84
-145.16
-126.21
-101.05
-72.71
-44.11
-17.31
6.72
27.95
46.65
62.89
76.39
86.58
92.99
95.54
94.73
91.51
87.06
82.39
78.16
74.57
71.49
68.57
65.46
61.94
57.88
53.30
48.24
42.70
36.58
29.64
21.60
12.25
1.63
-9.92
-21.81
-33.36
-44.01
-53.52
-61.96
-69.76
-77.53
-86.02
-95.97
-107.88
-121.69
-136.41
-150.04
-159.75
-162.64
-156.73
-141.67
-118.95
-91.43
-62.35
-34.29
-8.59
14.57
35.62
54.92
72.31
87.15
98.69
106.45
110.50
111.34
109.79
106.63
102.54
97.98
93.28
88.69
84.31
80.15
76.01
71.57
66.45
60.30
52.86
44.03
33.90
22.78
11.09
-0.65
-12.01
-22.74
-32.79
-42.30
-51.53
-60.73
-70.16
-80.06
-90.79
-102.75
-116.17
-130.75
-145.29
-157.71
-165.37
-165.91
-158.00
-141.87
-119.17
-92.30
-63.55
-34.54
-6.04
21.64
48.15
72.78
94.47
112.06
124.76
132.32
135.12
134.07
130.36
125.16
119.40
113.63
108.03
102.51
96.93
91.21
85.31
79.15
72.51
65.11
56.77
47.49
37.49
27.03
16.23
4.94
-7.08
-19.94
-33.41
-46.92
-59.78
-71.51
-82.08
-92.04
-102.29
-113.72
-126.66
-140.47
-153.31
-162.48
-165.04
-158.87
-143.37
-119.75
-90.52
-58.61
-26.44
4.54
33.80
61.13
86.21
108.30
126.45
139.83
148.09
151.51
150.83
147.14
141.46
134.73
127.59
120.35
113.13
105.90
98.59
91.14
83.51
75.63
67.37
58.56
48.99
38.50
27.03
14.66
1.64
-11.61
-24.59
-36.77
-47.81
-57.66
-66.72
-75.80
-85.93
-98.00
-112.31
-128.10
-143.45
-155.48
-161.15
-158.06
-145.33
-123.84
-95.90
-64.50
-32.41
-1.58
27.00
53.05
76.61
97.66
115.88
130.82
141.95
148.96
151.83
150.90
146.77
140.21
131.91
122.41
112.10
101.22
89.99
78.66
67.46
56.59
46.16
36.11
26.22
16.22
5.82
-5.05
-16.22
-27.27
-37.70
-47.21
-55.87
-64.19
-72.99
-83.19
-95.52
-110.25
-126.95
-144.22
-159.73
-170.45
-173.39
-166.53
-149.59
-124.27
-93.74
-61.51
-30.45
-2.10
23.21
45.64
65.22
81.45
93.54
100.91
103.71
102.85
99.67
95.39
90.58
85.16
78.68
70.86
62.01
53.00
44.88
38.34
33.24
28.62
23.11
15.57
5.64
-6.07
-18.23
-29.40
-38.62
-45.81
-51.76
-57.86
-65.60
-76.12
-89.77
-105.88
-122.69
-137.52
-147.29
-149.29
-141.98
-125.51
-101.73
-73.48
-43.69
-14.55
12.89
38.47
62.21
83.74
101.99
115.52
123.17
124.66
120.88
113.55
104.68
95.81
87.71
80.34
73.33
66.41
59.70
53.60
48.39
43.79
38.90
32.49
23.54
11.85
-1.86
-16.15
-29.48
-40.85
-50.12
-58.05
-65.99
-75.36
-87.22
-101.80
-118.21
-134.38
-147.42
-154.23
-152.48
-141.37
-121.94
-96.68
-68.56
-40.13
-12.91
12.58
36.24
57.91
77.07
93.03
105.28
113.71
118.63
120.45
119.47
115.83
109.67
101.30
91.43
81.01
70.99
62.16
54.80
48.73
43.24
37.33
29.94
20.26
8.05
-6.27
-21.67
-36.85
-50.69
-62.71
-73.19
-83.16
-93.96
-106.65
-121.38
-137.00
-151.01
-160.22
-161.59
-153.39
-135.70
-110.49
-80.86
-50.09
-20.71
5.96
29.70
50.84
69.73
86.31
100.13
110.54
117.04
119.58
118.56
114.72
108.86
101.66
93.65
85.23
76.88
69.12
62.33
56.56
51.27
45.43
37.79
27.49
14.40
-0.70
-16.34
-30.92
-43.31
-53.28
-61.55
-69.61
-79.17
-91.51
-106.89
-124.17
-140.73
-153.01
-157.42
-151.55
-135.04
-109.91
-79.83
-48.88
-20.18
4.88
26.57
46.05
64.31
81.50
96.95
109.53
118.30
122.84
123.34
120.43
114.81
107.22
98.32
88.77
79.30
70.60
63.23
57.32
52.53
47.91
42.24
34.37
23.71
10.47
-4.37
-19.39
-33.32
-45.40
-55.62
-64.61
-73.39
-83.07
-94.66
-108.70
-125.01
-142.35
-158.31
-169.67
-173.27
-166.97
-150.59
-125.94
-96.26
-65.08
-35.10
-7.60
17.36
40.33
61.69
81.16
97.83
110.55
118.47
121.42
119.98
115.30
108.72
101.44
94.22
87.45
81.17
75.25
69.65
64.38
59.42
54.60
49.51
43.45
35.69
25.72
13.57
-0.17
-14.48
-28.32
-41.00
-52.39
-62.86
-73.05
-83.65
-95.26
-108.28
-122.76
-138.12
-152.83
-164.49
-170.26
-167.69
-155.64
-134.73
-107.16
-75.93
-43.88
-12.94
15.96
42.61
66.97
88.78
107.38
122.00
132.04
137.32
138.23
135.64
130.65
124.34
117.49
110.54
103.61
96.61
89.42
82.03
74.45
66.73
58.82
50.57
41.76
32.19
21.77
10.55
-1.26
-13.45
-25.77
-38.01
-49.93
-61.32
-72.01
-82.03
-91.69
-101.61
-112.70
-125.72
-140.90
-157.40
-173.15
-185.07
-189.87
-185.09
-169.98
-145.85
-115.58
-82.71
-50.30
-20.23
6.91
31.37
53.56
73.63
91.29
106.03
117.37
125.02
129.00
129.48
126.78
121.42
114.16
106.06
98.31
91.91
87.30
84.15
81.45
77.88
72.34
64.37
54.24
42.78
30.89
19.23
8.05
-2.75
-13.42
-24.01
-34.41
-44.36
-53.67
-62.38
-70.87
-79.71
-89.56
-101.03
-114.45
-129.64
-145.64
-160.53
-171.63
-176.00
-171.38
-156.96
-133.74
-104.26
-71.77
-39.18
-8.44
19.60
44.86
67.45
87.22
103.73
116.41
124.83
128.94
129.13
126.17
121.08
114.90
108.54
102.65
97.56
93.22
89.35
85.47
81.05
75.66
69.08
61.36
52.79
43.76
34.58
25.33
15.84
5.79
-5.02
-16.54
-28.40
-40.07
-51.05
-61.16
-70.58
-79.84
-89.61
-100.60
-113.31
-127.81
-143.40
-158.33
-169.84
-174.75
-170.37
-155.60
-131.46
-100.93
-67.87
-35.74
-6.59
19.18
42.17
63.16
82.20
98.57
111.19
119.27
122.78
122.51
119.74
115.77
111.49
107.24
102.95
98.35
93.25
87.65
81.78
75.90
70.17
64.50
58.48
51.54
43.14
32.99
21.28
8.65
-4.02
-15.92
-26.60
-36.11
-44.97
-53.87
-63.50
-74.38
-86.89
-101.18
-116.88
-132.68
-146.01
-153.50
-151.79
-138.83
-114.84
-82.48
-45.90
-9.24
24.69
54.85
81.40
104.76
124.94
141.41
153.55
161.31
165.52
167.68
169.38
171.40
173.68
175.42
175.61
173.39
168.26
160.04
148.74
134.35
116.24
93.99
67.92
39.25
9.75
-19.01
-46.05
-71.05
-94.06
-116.27
-138.34
-159.77
-178.98
-194.29
-205.07
-211.97
-216.41
-219.82
-224.97
-233.32
-244.34
-255.54
-263.82
-266.97
-264.24
-256.09
-243.81
-231.84
-224.55
-224.62
-232.12
-245.01
-260.46
-275.59
-287.78
-278.49
-236.36
-161.85
-68.69
24.71
105.12
167.67
213.32
245.61
268.09
281.06
284.16
278.07
265.40
249.92
235.06
223.09
214.94
210.13
205.48
197.55
184.19
165.51
143.43
120.49
99.10
80.22
63.62
47.23
28.49
5.74
-21.22
-51.52
-84.19
-118.31
-149.45
-174.83
-190.64
-192.85
-179.10
-150.74
-113.31
-74.91
-43.07
-21.72
-11.03
-7.38
-7.34
-8.95
-11.97
-16.92
-23.93
-32.13
-39.77
-45.71
-49.69
-52.77
-56.45
-62.09
-69.91
-79.02
-87.83
-94.57
-98.59
-100.20
-100.68
-101.47
-103.42
-106.15
-107.94
-108.29
-106.05
-100.87
-93.17
-84.16
-75.11
-66.77
-58.95
-50.72
-40.87
-28.30
-12.87
4.62
22.84
40.64
57.70
74.57
92.35
111.98
134.05
158.49
185.02
213.35
243.09
273.21
301.37
324.11
337.78
340.28
331.88
314.86
292.12
265.44
234.96
199.95
160.63
119.59
81.65
51.68
31.97
20.78
12.97
3.12
-12.48
-34.57
-61.39
-89.97
-117.34
-141.00
-158.67
-167.86
-165.10
-148.04
-116.57
-73.06
-21.39
34.18
89.59
140.93
184.31
218.12
241.95
256.84
264.96
268.55
268.78
264.77
254.17
235.06
210.11
184.37
163.25
149.84
143.61
141.61
140.22
137.17
119.74
83.96
34.61
-17.16
-61.03
-92.95
-113.82
-126.41
-133.21
-135.83
-133.30
-125.37
-113.18
-99.21
-86.67
-77.18
-70.89
-67.28
-65.86
-64.67
-63.24
-62.03
-62.16
-65.40
-72.14
-81.88
-94.09
-108.77
-125.38
-143.81
-164.08
-180.71
-192.73
-199.90
-202.36
-200.88
-196.88
-191.53
-186.09
-181.71
-179.55
-181.02
-185.38
-189.38
-187.99
-176.08
-150.76
-113.45
-69.91
-28.26
3.73
22.57
29.46
28.50
24.13
19.02
13.73
7.92
1.70
-4.08
-7.56
-7.27
-3.08
3.67
11.05
16.94
21.14
24.40
27.87
32.76
39.66
48.33
57.64
65.79
70.60
70.22
63.46
50.50
33.13
14.19
-3.09
-16.59
-25.80
-31.57
-35.10
-37.15
-37.52
-35.71
-31.83
-26.93
-23.29
-23.43
-28.82
-39.09
-52.26
-65.49
-76.21
-82.78
-84.09
-79.79
-70.02
-55.50
-37.82
-19.47
-3.20
9.18
14.70
13.67
8.59
2.81
-1.09
-2.44
-2.42
-3.16
-6.50
-13.07
-21.69
-30.50
-37.63
-41.84
-42.82
-41.02
-37.64
-34.33
-32.89
-34.61
-40.32
-50.30
-64.24
-81.33
-100.35
-119.63
-137.20
-150.87
-158.39
-158.19
-149.84
-134.21
-113.32
-89.69
-65.69
-42.81
-21.46
-0.96
19.89
42.30
67.02
94.13
122.76
151.23
177.20
198.18
212.24
218.65
218.19
212.97
205.68
198.71
193.31
189.32
185.41
179.72
170.63
157.32
140.01
119.82
98.42
77.53
58.56
42.40
29.52
19.93
13.22
8.44
4.17
-1.16
-8.59
-17.94
-27.43
-34.18
-35.34
-29.37
-17.02
-1.13
14.42
26.21
32.41
33.15
29.83
24.14
17.21
9.39
0.60
-9.12
-19.36
-29.49
-38.92
-47.19
-53.80
-57.88
-58.19
-53.56
-43.55
-29.11
-12.52
3.25
15.66
23.37
26.58
26.60
24.93
22.52
19.40
15.04
9.05
2.04
-4.00
-5.99
-0.85
13.20
35.53
63.00
90.99
114.92
131.69
140.37
141.80
137.78
130.07
120.08
108.82
97.21
86.01
75.69
66.19
56.96
47.43
37.39
27.32
18.20
11.10
6.71
5.17
6.05
8.61
11.95
15.23
17.94
20.07
21.96
23.79
24.85
23.02
15.23
-1.18
-26.60
-57.90
-88.67
-111.15
-119.06
-109.89
-85.76
-52.33
-16.61
15.28
39.48
54.58
61.05
60.33
54.28
44.90
34.29
24.59
17.60
14.26
14.33
16.26
17.74
16.44
10.68
-0.20
-15.80
-34.82
-55.29
-74.75
-90.63
-100.84
-104.43
-102.11
-96.15
-89.70
-85.85
-86.92
-94.29
-108.55
-129.64
-156.45
-186.21
-214.33
-235.02
-243.05
-235.54
-212.97
-178.66
-137.17
-92.75
-48.77
-8.20
25.48
48.24
56.72
50.10
31.30
6.58
-16.61
-32.38
-38.18
-35.07
-26.11
-14.34
-1.30
13.15
30.06
50.10
72.65
95.70
116.47
132.47
142.51
147.41
149.76
153.03
159.91
170.82
183.33
192.69
