1660935051.00
64.000000
-0.00
-0.00
-0.00
-0.00
-0.00
-0.00
-0.00
-0.00
-0.00
-0.00
0.00
0.01
0.01
-0.00
-0.03
-0.05
-0.05
0.00
0.13
0.36
0.66
1.01
1.37
1.72
2.06
2.40
2.79
3.25
3.81
4.44
5.09
5.73
6.32
6.90
7.52
8.26
9.15
10.27
11.50
12.72
13.83
14.79
15.68
16.69
18.05
19.88
22.39
25.33
28.44
31.41
34.14
36.74
39.57
43.08
47.56
53.32
59.95
66.88
73.59
79.81
85.76
92.03
99.36
108.18
118.85
130.68
142.78
154.34
165.01
175.15
185.64
197.89
210.41
225.08
242.10
261.35
281.70
300.64
314.41
318.82
310.65
288.70
254.74
211.93
164.21
114.86
65.95
18.47
-27.12
-70.35
-110.77
-147.99
-182.64
-216.07
-250.00
-285.61
-322.61
-358.75
-390.00
-411.85
-420.71
-415.52
-398.20
-372.88
-344.28
-316.06
-289.89
-265.71
-242.70
-220.22
-198.45
-178.10
-159.82
-143.70
-129.17
-115.37
-101.63
-87.81
-74.25
-61.67
-50.68
-41.50
-33.88
-27.22
-20.85
-14.36
-7.76
-1.44
4.09
8.44
11.59
13.86
15.75
17.65
19.72
21.83
23.69
25.08
25.93
26.33
26.46
26.49
26.47
26.40
26.20
25.85
25.32
24.64
23.84
23.00
22.17
21.42
20.77
20.21
19.68
19.13
18.53
17.88
17.21
16.56
15.97
15.47
15.07
14.75
14.50
14.29
14.09
13.87
13.61
13.29
12.90
12.45
11.97
11.49
11.06
10.71
10.46
10.28
10.14
9.98
9.77
9.49
9.11
8.65
8.14
7.64
7.24
7.03
7.02
7.16
7.30
7.31
7.10
6.70
6.20
5.73
5.39
5.15
4.93
4.61
4.14
3.57
2.99
2.52
2.23
2.08
1.96
1.77
1.45
1.00
0.47
-0.08
-0.62
-1.18
-1.79
-2.45
-3.10
-3.68
-4.14
-4.51
-4.85
-5.28
-5.85
-6.56
-7.29
-7.92
-8.35
-8.56
-8.65
-8.71
-8.84
-8.97
-9.01
-8.83
-8.38
-7.73
-7.02
-6.41
-5.95
-5.63
-5.33
-4.94
-4.41
-3.76
-3.07
-2.44
-1.93
-1.56
-1.30
-1.08
-0.83
-0.46
0.02
0.57
1.11
1.57
1.90
2.12
2.26
2.39
2.55
2.78
3.07
3.41
3.71
3.91
3.91
3.69
3.33
2.94
2.68
2.62
2.74
2.95
3.14
3.27
3.35
3.44
3.60
3.80
4.00
4.14
4.20
4.17
4.13
4.11
4.15
4.26
4.40
4.55
4.68
4.77
4.82
4.83
4.78
4.65
4.46
4.22
3.93
3.63
3.37
3.19
3.14
3.20
3.34
3.49
3.55
3.44
3.17
2.80
2.45
2.22
2.15
2.18
2.21
2.14
1.97
1.75
1.56
1.49
1.57
1.76
1.98
2.15
2.18
2.03
1.72
1.31
0.92
0.66
0.60
0.72
0.93
1.07
1.06
0.92
0.75
0.69
0.82
1.10
1.44
1.70
1.85
1.92
1.94
1.94
1.88
1.70
1.37
0.96
0.59
0.36
0.33
0.46
0.65
0.85
1.02
1.15
1.24
1.27
1.23
1.11
0.96
0.81
0.68
0.60
0.55
0.57
0.66
0.84
1.05
1.21
1.23
1.08
0.83
0.61
0.56
0.70
0.97
1.21
1.29
1.14
0.85
0.54
0.37
0.39
0.58
0.86
1.11
1.30
1.42
1.51
1.62
1.73
1.78
1.69
1.41
0.96
0.42
-0.09
-0.47
-0.68
-0.68
-0.50
-0.17
0.26
0.68
1.01
1.17
1.13
0.96
0.76
0.62
0.59
0.66
0.78
0.92
1.06
1.21
1.34
1.39
1.28
0.98
0.53
0.06
-0.26
-0.33
-0.15
0.18
0.53
0.78
0.87
0.82
0.65
0.42
0.20
0.07
0.11
0.35
0.78
1.30
1.75
2.00
1.94
1.59
1.05
0.49
0.07
-0.08
0.05
0.39
0.81
1.16
1.35
1.36
1.23
1.06
0.92
0.85
0.83
0.83
0.81
0.77
0.71
0.65
0.59
0.54
0.46
0.33
0.15
-0.08
-0.31
-0.49
-0.63
-0.70
-0.75
-0.77
-0.77
-0.73
-0.64
-0.51
-0.39
-0.32
-0.33
-0.42
-0.53
-0.63
-0.65
-0.60
-0.52
-0.44
-0.38
-0.32
-0.25
-0.13
0.02
0.18
0.30
0.35
0.32
0.24
0.19
0.19
0.27
0.39
0.49
0.51
0.43
0.29
0.16
0.07
0.03
0.02
0.05
0.14
0.32
0.60
0.92
1.17
1.26
1.18
0.97
0.73
0.54
0.41
0.32
0.23
0.11
-0.01
-0.09
-0.07
0.06
0.30
0.62
0.96
1.24
1.38
1.32
1.06
0.66
0.24
-0.09
-0.27
-0.31
-0.27
-0.24
-0.26
-0.32
-0.35
-0.27
-0.07
0.25
0.63
0.98
1.23
1.35
1.32
1.15
0.93
0.72
0.60
0.59
0.63
0.62
0.51
0.26
-0.05
-0.33
-0.51
-0.57
-0.60
-0.66
-0.78
-0.89
-0.88
-0.68
-0.30
0.10
0.32
0.24
-0.10
-0.55
-0.87
-0.91
-0.72
-0.46
-0.32
-0.39
-0.60
-0.80
-0.81
-0.58
-0.19
0.19
0.41
0.42
0.28
0.11
0.04
0.10
0.29
0.50
0.68
0.77
0.76
0.68
0.57
0.47
0.43
0.48
0.58
0.70
0.75
0.67
0.43
0.11
-0.21
-0.43
-0.50
-0.43
-0.28
-0.13
-0.04
-0.06
-0.18
-0.37
-0.58
-0.75
-0.85
-0.85
-0.77
-0.59
-0.30
0.08
0.51
0.90
1.14
1.16
0.97
0.68
0.41
0.27
0.30
0.45
0.65
0.80
0.84
0.74
0.48
0.10
-0.34
-0.76
-1.05
-1.15
-1.07
-0.89
-0.70
-0.57
-0.50
-0.48
-0.45
-0.35
-0.15
0.13
0.41
0.61
0.66
0.53
0.28
0.02
-0.14
-0.13
0.06
0.35
0.62
0.77
0.75
0.58
0.30
-0.01
-0.32
-0.59
-0.77
-0.81
-0.68
-0.40
-0.06
0.21
0.28
0.10
-0.27
-0.71
-1.08
-1.30
-1.38
-1.36
-1.29
-1.20
-1.10
-1.01
-0.95
-0.95
-1.03
-1.13
-1.20
-1.22
-1.18
-1.15
-1.24
-1.54
-2.06
-2.74
-3.48
-4.11
-4.52
-4.66
-4.50
-4.05
-3.30
-2.24
-0.87
0.74
2.44
4.03
5.33
6.26
6.86
7.20
7.35
7.30
6.95
6.22
5.08
3.62
2.00
0.44
-0.90
-1.90
-2.48
-2.57
-2.12
-1.11
0.38
2.16
3.97
5.55
6.69
7.27
7.25
6.62
5.39
3.59
1.38
-0.99
-3.15
-4.73
-5.50
-5.42
-4.77
-3.94
-3.36
-3.33
-3.91
-4.88
-5.89
-6.51
-6.47
-5.71
-4.49
-3.23
-2.39
-2.30
-2.97
-4.03
-4.69
-3.94
-0.78
5.35
14.17
24.38
33.83
40.15
41.55
37.46
28.79
17.56
6.18
-3.32
-9.81
-13.14
-13.83
-12.75
-10.68
-8.27
-6.02
-4.29
-3.37
-3.38
-4.25
-5.64
-7.01
-7.82
-7.71
-6.69
-5.11
-3.56
-2.55
-2.35
-2.82
-3.59
-4.21
-4.37
-4.03
-3.35
-2.62
-2.09
-1.85
-1.89
-2.08
-2.28
-2.40
-2.39
-2.25
-2.04
-1.76
-1.48
-1.23
-1.03
-0.91
-0.85
-0.79
-0.64
-0.35
0.13
0.72
1.28
1.67
1.79
1.64
1.33
1.02
0.85
0.87
1.01
1.18
1.27
1.25
1.18
1.12
1.15
1.29
1.48
1.67
1.79
1.85
1.84
1.77
1.59
1.23
0.64
-0.22
-1.30
-2.48
-3.65
-4.74
-5.71
-6.60
-7.40
-8.07
-8.53
-8.67
-8.42
-7.81
-6.96
-6.04
-5.21
-4.57
-4.11
-3.73
-3.30
-2.70
-1.89
-0.89
0.28
1.56
2.90
4.25
5.51
6.56
7.30
7.69
7.74
7.53
7.14
6.60
5.89
5.03
4.03
3.00
2.04
1.26
0.70
0.35
0.17
0.14
0.21
0.33
0.46
0.54
0.55
0.50
0.45
0.45
0.50
0.55
0.55
0.47
0.32
0.16
0.05
0.02
0.06
0.12
0.14
0.08
-0.11
-0.42
-0.82
-1.27
-1.68
-1.98
-2.15
-2.17
-2.07
-1.89
-1.68
-1.47
-1.29
-1.15
-1.08
-1.05
-1.04
-1.00
-0.91
-0.78
-0.59
-0.39
-0.20
-0.03
0.09
0.18
0.24
0.28
0.32
0.34
0.33
0.31
0.27
0.23
0.19
0.15
0.06
-0.07
-0.21
-0.32
-0.33
-0.24
-0.09
0.06
0.17
0.23
0.28
0.35
0.46
0.59
0.70
0.77
0.76
0.68
0.56
0.44
0.34
0.32
0.38
0.51
0.65
0.72
0.65
0.39
-0.00
-0.42
-0.75
-0.90
-0.86
-0.71
-0.55
-0.42
-0.35
-0.26
-0.11
0.11
0.35
0.53
0.61
0.59
0.49
0.38
0.31
0.28
0.31
0.37
0.43
0.45
0.40
0.26
0.03
-0.21
-0.39
-0.44
-0.36
-0.19
-0.01
0.10
0.12
0.05
-0.09
-0.29
-0.50
-0.69
-0.81
-0.81
-0.69
-0.49
-0.31
-0.22
-0.25
-0.36
-0.47
-0.51
-0.44
-0.31
-0.16
-0.03
0.06
0.12
0.16
0.19
0.19
0.16
0.08
-0.03
-0.18
-0.32
-0.40
-0.40
-0.27
-0.03
0.26
0.52
0.69
0.78
0.83
0.91
1.04
1.15
1.14
0.94
0.55
0.11
-0.22
-0.29
-0.12
0.20
0.46
0.56
0.44
0.21
-0.04
-0.23
-0.32
-0.36
-0.39
-0.40
-0.36
-0.25
-0.05
0.21
0.48
0.69
0.79
0.76
0.60
0.35
0.09
-0.09
-0.13
0.01
0.25
0.50
0.63
0.59
0.41
0.19
0.04
0.01
0.04
0.03
-0.08
-0.29
-0.50
-0.58
-0.47
-0.20
0.07
0.19
0.11
-0.12
-0.39
-0.56
-0.58
-0.50
-0.40
-0.35
-0.40
-0.50
-0.59
-0.65
-0.66
-0.64
-0.60
-0.55
-0.50
-0.44
-0.35
-0.22
-0.04
0.22
0.53
0.88
1.19
1.40
1.47
1.40
1.25
1.10
1.01
0.99
0.98
0.89
0.64
0.24
-0.23
-0.62
-0.83
-0.85
-0.76
-0.68
-0.68
-0.72
-0.73
-0.60
-0.34
-0.04
0.17
0.21
0.09
-0.09
-0.22
-0.25
-0.20
-0.12
-0.05
-0.00
0.03
0.04
-0.01
-0.14
-0.37
-0.65
-0.87
-0.92
-0.74
-0.37
0.07
0.44
0.65
0.69
0.59
0.42
0.24
0.03
-0.19
-0.42
-0.59
-0.63
-0.48
-0.16
0.22
0.55
0.71
0.68
0.50
0.27
0.05
-0.10
-0.19
-0.25
-0.32
-0.39
-0.46
-0.51
-0.54
-0.54
-0.50
-0.42
-0.29
-0.11
0.09
0.29
0.44
0.51
0.44
0.26
0.02
-0.21
-0.36
-0.38
-0.26
-0.02
0.33
0.77
1.24
1.68
1.99
2.06
1.89
1.52
1.08
0.71
0.46
0.34
0.25
0.10
-0.14
-0.43
-0.66
-0.73
-0.62
-0.41
-0.25
-0.26
-0.46
-0.74
-0.93
-0.91
-0.66
-0.30
-0.03
0.03
-0.12
-0.36
-0.55
-0.58
-0.43
-0.20
0.04
0.20
0.28
0.27
0.20
0.09
-0.04
-0.17
-0.27
-0.32
-0.31
-0.22
-0.08
0.10
0.31
0.48
0.55
0.49
0.29
-0.00
-0.28
-0.44
-0.42
-0.25
-0.00
0.20
0.25
0.10
-0.23
-0.68
-1.10
-1.37
-1.38
-1.12
-0.63
-0.05
0.50
0.89
1.07
1.07
0.94
0.76
0.58
0.41
0.25
0.09
-0.05
-0.13
-0.15
-0.11
-0.09
-0.14
-0.28
-0.48
-0.61
-0.59
-0.38
-0.02
0.37
0.67
0.80
0.79
0.69
0.59
0.54
0.54
0.55
0.54
0.44
0.24
-0.04
-0.35
-0.62
-0.74
-0.65
-0.36
0.04
0.42
0.66
0.69
0.53
0.29
0.06
-0.10
-0.16
-0.14
-0.06
0.09
0.30
0.53
0.70
0.73
0.57
0.23
-0.17
-0.54
-0.76
-0.81
-0.74
-0.61
-0.52
-0.50
-0.54
-0.61
-0.61
-0.53
-0.36
-0.12
0.13
0.37
0.58
0.74
0.83
0.85
0.80
0.69
0.59
0.54
0.55
0.57
0.53
0.38
0.13
-0.16
-0.40
-0.53
-0.58
-0.58
-0.58
-0.57
-0.50
-0.32
-0.05
0.23
0.40
0.35
0.09
-0.26
-0.54
-0.61
-0.44
-0.10
0.28
0.56
0.66
0.55
0.26
-0.13
-0.50
-0.72
-0.70
-0.43
0.00
0.45
0.76
0.83
0.69
0.41
0.14
-0.05
-0.14
-0.14
-0.13
-0.11
-0.08
-0.01
0.13
0.32
0.50
0.60
0.54
0.31
-0.06
-0.51
-0.92
-1.21
-1.33
-1.27
-1.03
-0.70
-0.30
0.11
0.50
0.81
1.02
1.08
0.97
0.74
0.44
0.19
0.05
0.07
0.24
0.50
0.74
0.88
0.86
0.65
0.31
-0.08
-0.44
-0.70
-0.85
-0.90
-0.90
-0.88
-0.87
-0.89
-0.93
-1.00
-1.07
-1.08
-0.96
-0.66
-0.20
0.32
0.75
0.99
0.95
0.67
0.22
-0.28
-0.70
-0.98
-1.07
-0.99
-0.77
-0.49
-0.19
0.06
0.23
0.33
0.37
0.36
0.31
0.23
0.09
-0.08
-0.25
-0.36
-0.39
-0.31
-0.18
-0.05
0.02
0.01
-0.05
-0.10
-0.10
-0.02
0.13
0.37
0.71
1.16
1.69
2.23
2.67
2.86
2.72
2.24
1.49
0.65
-0.11
-0.61
-0.76
-0.59
-0.25
0.06
0.17
0.05
-0.21
-0.48
-0.63
-0.64
-0.57
-0.52
-0.53
-0.58
-0.59
-0.48
-0.21
0.16
0.51
0.71
0.70
0.48
0.13
-0.22
-0.46
-0.49
-0.34
-0.09
0.11
0.14
-0.04
-0.35
-0.63
-0.74
-0.62
-0.30
0.08
0.41
0.58
0.57
0.40
0.09
-0.29
-0.70
-1.04
-1.23
-1.22
-1.01
-0.69
-0.42
-0.29
-0.38
-0.63
-0.92
-1.14
-1.19
-1.06
-0.81
-0.50
-0.17
0.14
0.42
0.63
0.74
0.72
0.58
0.39
0.21
0.12
0.13
0.19
0.24
0.21
0.07
-0.16
-0.43
-0.66
-0.76
-0.62
-0.19
0.46
1.18
1.74
1.98
1.82
1.35
0.77
0.23
-0.16
-0.39
-0.57
-0.79
-1.16
-1.70
-2.38
-3.09
-3.60
-3.68
-3.14
-1.99
-0.48
0.93
1.78
1.77
0.93
-0.44
-1.89
-3.05
-3.69
-3.77
-3.37
-2.53
-1.35
0.03
1.36
2.31
2.59
2.14
1.19
0.21
-0.31
-0.10
0.79
2.03
3.23
4.17
4.80
5.23
5.48
5.45
4.89
3.62
1.68
-0.55
-2.54
-3.82
-4.18
-3.73
-2.79
-1.67
-0.52
0.69
2.00
3.35
4.52
5.23
5.32
4.83
4.06
3.41
3.16
3.36
3.75
3.97
3.70
2.83
1.54
0.13
-1.10
-2.04
-2.74
-3.35
-3.95
-4.47
-4.73
-4.54
-3.86
-2.87
-1.89
-1.20
-0.92
-0.95
-1.08
-1.18
-1.23
-1.37
-1.78
-2.48
-3.33
-4.08
-4.47
-4.37
-3.86
-3.07
-2.22
-1.44
-0.79
-0.29
0.09
0.34
0.49
0.58
0.67
0.80
0.96
1.12
1.18
1.12
0.95
0.76
0.66
0.71
0.89
1.12
1.29
1.32
1.21
1.01
0.77
0.50
0.21
-0.08
-0.34
-0.48
-0.46
-0.27
0.02
0.35
0.65
0.89
1.10
1.26
1.37
1.39
1.31
1.15
0.95
0.76
0.58
0.39
0.16
-0.08
-0.31
-0.47
-0.51
-0.43
-0.32
-0.26
-0.32
-0.50
-0.73
-0.92
-1.00
-0.93
-0.74
-0.43
-0.03
0.42
0.86
1.18
1.27
1.06
0.57
-0.06
-0.64
-1.03
-1.17
-1.09
-0.88
-0.60
-0.30
0.01
0.28
0.49
0.58
0.54
0.39
0.19
0.03
-0.03
0.04
0.20
0.37
0.46
0.39
0.15
-0.19
-0.52
-0.73
-0.77
-0.65
-0.46
-0.25
-0.08
0.06
0.17
0.26
0.33
0.36
0.37
0.41
0.50
0.66
0.85
1.00
1.06
0.97
0.73
0.38
0.01
-0.28
-0.40
-0.32
-0.08
0.21
0.44
0.52
0.44
0.28
0.11
0.01
-0.01
0.00
0.02
0.03
0.08
0.20
0.39
0.60
0.74
0.72
0.51
0.17
-0.23
-0.56
-0.77
-0.85
-0.85
-0.83
-0.79
-0.75
-0.67
-0.54
-0.37
-0.21
-0.10
-0.08
-0.15
-0.30
-0.50
-0.71
-0.88
-0.96
-0.91
-0.74
-0.46
-0.15
0.11
0.23
0.20
0.08
-0.04
-0.05
0.12
0.42
0.77
1.00
1.02
0.82
0.48
0.15
-0.01
0.06
0.32
0.67
0.99
1.15
1.13
0.93
0.62
0.30
0.04
-0.09
-0.10
-0.02
0.08
0.15
0.13
0.02
-0.15
-0.34
-0.52
-0.69
-0.81
-0.89
-0.88
-0.76
-0.52
-0.21
0.09
0.31
0.40
0.40
0.37
0.38
0.48
0.62
0.71
0.64
0.37
-0.05
-0.50
-0.84
-0.99
-0.92
-0.71
-0.46
-0.25
-0.15
-0.14
-0.17
-0.19
-0.15
-0.09
-0.04
-0.03
-0.08
-0.15
-0.20
-0.20
-0.18
-0.21
-0.36
-0.63
-0.94
-1.12
-1.02
-0.60
0.07
0.80
1.40
1.73
1.75
1.48
1.02
0.47
-0.09
-0.57
-0.91
-1.06
-1.01
-0.76
-0.37
0.10
0.57
0.93
1.12
1.11
0.91
0.62
0.31
0.08
-0.05
-0.08
-0.04
0.03
0.13
0.23
0.32
0.32
0.19
-0.12
-0.56
-1.02
-1.35
-1.43
-1.19
-0.72
-0.15
0.36
0.70
0.82
0.75
0.55
0.32
0.13
0.07
0.15
0.36
0.62
0.83
0.92
0.85
0.64
0.34
0.01
-0.31
-0.61
-0.84
-0.94
-0.82
-0.46
0.09
0.64
0.98
0.95
0.57
-0.02
-0.56
-0.84
-0.80
-0.50
-0.12
0.20
0.37
0.40
0.34
0.24
0.09
-0.10
-0.32
-0.53
-0.65
-0.65
-0.53
-0.38
-0.32
-0.46
-0.90
-1.58
-2.39
-3.14
-3.67
-3.91
-3.91
-3.81
-3.74
-3.80
-3.99
-4.30
-4.71
-5.21
-5.82
-6.50
-7.21
-7.90
-8.58
-9.34
-10.30
-11.53
-12.97
-14.47
-15.88
-17.13
-18.39
-19.93
-22.07
-24.96
-28.57
-32.67
-37.00
-41.36
-45.73
-50.20
-54.92
-60.02
-65.56
-71.50
-77.76
-84.22
-90.77
-97.32
-103.85
-110.44
-117.32
-124.79
-133.11
-142.30
-151.85
-160.70
-167.52
-171.35
-172.04
-170.31
-167.21
-163.07
-156.88
-146.31
-128.56
-101.59
-64.98
-20.20
29.81
81.34
130.45
173.45
207.28
230.05
241.52
243.28
238.32
230.12
221.67
214.88
210.60
208.97
209.83
212.82
217.38
222.73
228.01
232.65
236.63
240.51
245.13
251.23
259.07
268.32
277.94
286.37
291.64
291.62
284.41
268.88
244.97
213.77
177.13
136.93
94.31
49.39
1.75
-48.47
-99.58
-147.96
-188.90
-218.25
-234.03
-237.24
-231.29
-220.57
-208.71
-197.59
-187.32
-177.18
-166.59
-155.74
-145.37
-136.24
-128.53
-121.68
-114.70
-106.77
-97.64
-87.74
-78.04
-69.50
-62.69
-57.54
-53.43
-49.52
-45.15
-40.13
-34.73
-29.55
-25.14
-21.80
-19.42
-17.59
-15.83
-13.79
-11.38
-8.80
-6.40
-4.46
-3.12
-2.30
-1.79
-1.35
-0.86
-0.34
0.10
0.30
0.20
-0.10
-0.45
-0.64
-0.57
-0.28
0.09
0.36
0.44
0.33
0.11
-0.10
-0.26
-0.36
-0.45
-0.58
-0.73
-0.87
-0.95
-0.97
-0.93
-0.90
-0.90
-0.99
-1.16
-1.39
-1.61
-1.75
-1.76
-1.63
-1.40
-1.16
-0.97
-0.84
-0.70
-0.48
-0.09
0.48
1.19
1.92
2.53
2.91
3.01
2.87
2.60
2.30
2.02
1.76
1.47
1.12
0.72
0.34
0.06
-0.07
-0.09
-0.10
-0.19
-0.40
-0.70
-0.98
-1.15
-1.19
-1.12
-1.00
-0.88
-0.78
-0.66
-0.48
-0.18
0.26
0.86
1.60
2.46
3.35
4.12
4.59
4.60
4.12
3.24
2.16
1.11
0.27
-0.30
-0.63
-0.82
-0.96
-1.12
-1.31
-1.50
-1.66
-1.81
-2.00
-2.27
-2.65
-3.11
-3.57
-3.94
-4.13
-4.13
-3.95
-3.63
-3.18
-2.61
-1.95
-1.25
-0.64
-0.22
-0.00
0.18
0.56
1.36
2.63
4.17
5.61
6.55
6.73
6.16
5.06
3.79
2.65
1.83
1.32
1.02
0.77
0.48
0.12
-0.27
-0.64
-0.96
-1.21
-1.40
-1.51
-1.54
-1.51
-1.44
-1.44
-1.56
-1.81
-2.14
-2.42
-2.51
-2.34
-1.90
-1.27
-0.51
0.31
1.16
1.98
2.65
3.00
2.94
2.47
1.77
1.11
0.71
0.67
0.86
1.06
1.02
0.65
0.02
-0.70
-1.34
-1.83
-2.24
-2.66
-3.16
-3.66
-4.01
-4.05
-3.70
-2.99
-2.06
-1.10
-0.26
0.39
0.84
1.15
1.37
1.61
1.95
2.45
3.11
3.80
4.30
4.41
4.01
3.18
2.16
1.27
0.76
0.68
0.92
1.24
1.41
1.27
0.82
0.12
-0.67
-1.38
-1.89
-2.16
-2.23
-2.16
-2.06
-1.97
-1.90
-1.86
-1.85
-1.91
-2.05
-2.23
-2.33
-2.19
-1.75
-0.99
-0.03
1.00
1.96
2.73
3.24
3.40
3.19
2.67
1.98
1.35
0.94
0.80
0.80
0.73
0.42
-0.17
-0.91
-1.61
-2.10
-2.35
-2.47
-2.60
-2.88
-3.27
-3.67
-3.85
-3.66
-3.05
-2.13
-1.10
-0.18
0.50
0.95
1.24
1.49
1.80
2.20
2.72
3.32
3.93
4.42
4.63
4.44
3.84
2.98
2.16
1.62
1.49
1.66
1.86
1.80
1.34
0.53
-0.39
-1.17
-1.65
-1.85
-1.91
-2.03
-2.29
-2.66
-2.99
-3.12
-2.98
-2.63
-2.23
-1.93
-1.82
-1.85
-1.92
-1.89
-1.65
-1.18
-0.49
0.37
1.34
2.32
3.17
3.71
3.82
3.49
2.85
2.13
1.57
1.28
1.23
1.25
1.10
0.64
-0.12
-1.01
-1.78
-2.22
-2.26
-2.00
-1.67
-1.50
-1.61
-1.93
-2.24
-2.33
-2.06
-1.48
-0.80
-0.25
0.02
0.01
-0.14
-0.25
-0.20
0.06
0.49
1.03
1.64
2.32
3.06
3.82
4.45
4.76
4.62
4.00
3.05
2.00
1.08
0.40
-0.10
-0.53
-1.02
-1.60
-2.21
-2.73
-3.09
-3.30
-3.46
-3.68
-4.02
-4.49
-5.01
-5.46
-5.73
-5.77
-5.61
-5.36
-5.19
-5.25
-5.61
-6.18
-6.81
-7.30
-7.56
-7.68
-7.95
-8.66
-9.98
-11.78
-13.67
-15.11
-15.69
-15.35
-14.45
-13.68
-13.77
-15.24
-18.11
-21.85
-25.51
-28.03
-28.64
-27.24
-24.47
-21.58
-19.93
-20.45
-23.16
-27.16
-30.92
-33.02
-32.80
-30.71
-28.18
-27.06
-28.79
-33.79
-41.24
-49.18
-54.87
-55.21
-47.33
-29.28
-1.06
34.98
74.30
111.22
140.83
160.54
170.71
173.81
172.74
169.10
162.39
150.63
131.93
106.08
75.18
43.08
13.97
-9.12
-25.10
-34.71
-39.67
-41.68
-41.75
-40.26
-37.33
-33.43
-29.47
-26.65
-25.79
-26.95
-29.29
-31.37
-31.95
-30.45
-27.17
-23.16
-19.71
-17.72
-17.45
-18.40
-19.67
-20.39
-20.09
-18.82
-17.01
-15.22
-13.80
-12.80
-11.99
-11.05
-9.76
-8.09
-6.22
-4.42
-2.97
-1.97
-1.39
-1.02
-0.62
-0.02
0.78
1.66
2.44
2.99
3.30
3.43
3.52
3.63
3.80
4.01
4.23
4.42
4.55
4.56
4.34
3.88
3.18
2.34
1.53
0.92
0.60
0.61
0.84
1.14
1.35
1.36
1.17
0.84
0.52
0.31
0.25
0.25
0.21
0.01
-0.40
-0.98
-1.62
-2.19
-2.62
-2.85
-2.92
-2.88
-2.77
-2.61
-2.43
-2.24
-2.07
-1.93
-1.84
-1.72
-1.51
-1.17
-0.74
-0.33
-0.08
-0.03
-0.12
-0.19
-0.10
0.18
0.56
0.86
0.92
0.70
0.28
-0.13
-0.35
-0.30
-0.01
0.38
0.69
0.81
0.70
0.45
0.19
0.04
0.03
0.14
0.25
0.24
0.08
-0.22
-0.55
-0.81
-0.92
-0.89
-0.76
-0.64
-0.57
-0.54
-0.49
-0.34
-0.05
0.36
0.81
1.26
1.69
2.04
2.27
2.25
1.88
1.12
0.11
-0.90
-1.57
-1.69
-1.23
-0.42
0.38
0.85
0.85
0.49
0.03
-0.27
-0.31
-0.13
0.10
0.26
0.33
0.40
0.57
0.83
1.07
1.12
0.88
0.37
-0.22
-0.67
-0.83
-0.69
-0.39
-0.10
0.03
-0.07
-0.34
-0.70
-1.01
-1.19
-1.22
-1.12
-0.94
-0.75
-0.56
-0.41
-0.31
-0.27
-0.31
-0.42
-0.54
-0.61
-0.58
-0.44
-0.24
-0.07
0.02
-0.00
-0.09
-0.19
-0.27
-0.34
-0.41
-0.51
-0.63
-0.72
-0.74
-0.67
-0.55
-0.39
-0.26
-0.17
-0.12
-0.12
-0.12
-0.11
-0.08
-0.02
0.08
0.20
0.34
0.50
0.67
0.84
0.98
1.03
0.96
0.77
0.50
0.24
0.08
0.05
0.16
0.34
0.50
0.60
0.60
0.50
0.35
0.19
0.04
-0.07
-0.10
0.00
0.25
0.60
0.94
1.13
1.05
0.68
0.13
-0.41
-0.78
-0.87
-0.72
-0.45
-0.22
-0.10
-0.10
-0.16
-0.18
-0.13
-0.01
0.11
0.14
0.03
-0.21
-0.50
-0.74
-0.83
-0.73
-0.48
-0.21
0.02
0.11
0.08
-0.05
-0.21
-0.37
-0.48
-0.50
-0.43
-0.28
-0.11
0.04
0.12
0.10
-0.01
-0.16
-0.30
-0.38
-0.33
-0.17
0.09
0.36
0.54
0.56
0.38
0.03
-0.41
-0.78
-0.98
-0.90
-0.54
0.01
0.59
1.00
1.09
0.80
0.26
-0.36
-0.81
-0.96
-0.77
-0.34
0.18
0.64
0.94
1.05
1.02
0.93
0.84
0.76
0.70
0.60
0.42
0.15
-0.17
-0.49
-0.71
-0.79
-0.73
-0.58
-0.43
-0.34
-0.33
-0.37
-0.38
-0.33
-0.23
-0.16
-0.19
-0.33
-0.50
-0.57
-0.44
-0.12
0.26
0.52
0.55
0.35
0.03
-0.26
-0.42
-0.41
-0.30
-0.16
-0.04
0.03
0.07
0.11
0.16
0.17
0.14
0.05
-0.06
-0.14
-0.14
-0.07
0.03
0.06
-0.06
-0.30
-0.57
-0.72
-0.64
-0.34
0.09
0.50
0.77
0.89
0.89
0.83
0.75
0.64
0.50
0.38
0.33
0.39
0.52
0.64
0.66
0.52
0.28
0.03
-0.15
-0.22
-0.23
-0.24
-0.27
-0.30
-0.27
-0.17
-0.02
0.11
0.14
0.04
-0.15
-0.33
-0.39
-0.29
-0.03
0.31
0.60
0.74
0.70
0.50
0.21
-0.09
-0.36
-0.57
-0.73
-0.82
-0.84
-0.79
-0.66
-0.47
-0.27
-0.06
0.13
0.33
0.55
0.77
0.98
1.11
1.14
1.07
0.90
0.69
0.45
0.22
-0.00
-0.20
-0.37
-0.51
-0.59
-0.60
-0.54
-0.43
-0.31
-0.26
-0.27
-0.32
-0.35
-0.27
-0.05
0.25
0.52
0.64
0.56
0.31
0.02
-0.16
-0.18
-0.06
0.10
0.18
0.12
-0.03
-0.16
-0.16
0.03
0.32
0.57
0.65
0.51
0.24
-0.02
-0.11
0.02
0.28
0.58
0.80
0.89
0.88
0.79
0.65
0.45
0.16
-0.20
-0.55
-0.83
-1.00
-1.08
-1.10
-1.11
-1.10
-1.03
-0.91
-0.75
-0.62
-0.57
-0.61
-0.70
-0.78
-0.77
-0.65
-0.40
-0.05
0.33
0.69
0.94
1.02
0.89
0.57
0.15
-0.29
-0.63
-0.81
-0.80
-0.63
-0.35
-0.04
0.23
0.37
0.36
0.22
0.00
-0.20
-0.32
-0.32
-0.21
-0.01
0.20
0.35
0.39
0.28
0.06
-0.24
-0.52
-0.72
-0.78
-0.68
-0.45
-0.17
0.05
0.10
-0.04
-0.36
-0.75
-1.12
-1.36
-1.45
-1.39
-1.18
-0.84
-0.41
0.07
0.57
1.02
1.38
1.62
1.73
1.71
1.57
1.33
1.05
0.81
0.64
0.56
0.52
0.49
0.43
0.36
0.29
0.23
0.20
0.16
0.13
0.11
0.13
0.22
0.33
0.43
0.45
0.37
0.21
0.03
-0.10
-0.13
-0.08
-0.00
0.06
0.05
-0.03
-0.14
-0.21
-0.17
0.02
0.28
0.51
0.59
0.47
0.17
-0.17
-0.46
-0.61
-0.63
-0.57
-0.48
-0.39
-0.31
-0.20
-0.10
-0.02
0.02
0.03
0.04
0.06
0.10
0.15
0.17
0.18
0.20
0.25
0.31
0.34
0.32
0.21
0.03
-0.16
-0.31
-0.39
-0.41
-0.38
-0.34
-0.29
-0.22
-0.15
-0.08
-0.02
-0.02
-0.09
-0.22
-0.36
-0.45
-0.42
-0.27
-0.04
0.19
0.34
0.33
0.17
-0.10
-0.39
-0.58
-0.60
-0.46
-0.22
-0.01
0.09
0.05
-0.05
-0.13
-0.13
-0.05
0.02
0.02
-0.05
-0.13
-0.11
0.08
0.39
0.70
0.88
0.84
0.59
0.20
-0.21
-0.54
-0.73
-0.75
-0.64
-0.49
-0.38
-0.38
-0.46
-0.53
-0.45
-0.10
0.48
1.13
1.59
1.61
1.14
0.33
-0.55
-1.19
-1.45
-1.35
-1.07
-0.78
-0.61
-0.55
-0.50
-0.43
-0.34
-0.29
-0.31
-0.38
-0.42
-0.32
-0.09
0.24
0.55
0.75
0.80
0.70
0.54
0.37
0.26
0.20
0.18
0.16
0.08
-0.02
-0.10
-0.06
0.16
0.52
0.91
1.20
1.31
1.27
1.19
1.14
1.10
0.97
0.66
0.19
-0.33
-0.71
-0.85
-0.78
-0.67
-0.64
-0.74
-0.86
-0.84
-0.56
-0.05
0.56
1.02
1.19
1.02
0.63
0.20
-0.10
-0.21
-0.16
-0.08
-0.02
-0.02
-0.01
0.04
0.11
0.15
0.10
-0.05
-0.20
-0.25
-0.13
0.14
0.43
0.62
0.69
0.66
0.61
0.59
0.57
0.49
0.27
-0.10
-0.53
-0.86
-0.98
-0.84
-0.51
-0.12
0.19
0.36
0.42
0.43
0.47
0.58
0.69
0.75
0.68
0.48
0.20
-0.08
-0.29
-0.40
-0.44
-0.43
-0.41
-0.41
-0.40
-0.37
-0.30
-0.23
-0.20
-0.23
-0.29
-0.34
-0.29
-0.14
0.06
0.24
0.31
0.23
0.04
-0.18
-0.36
-0.49
-0.55
-0.57
-0.59
-0.59
-0.60
-0.59
-0.58
-0.55
-0.49
-0.38
-0.24
-0.10
0.01
0.05
0.03
-0.03
-0.10
-0.17
-0.24
-0.31
-0.35
-0.30
-0.14
0.11
0.39
0.60
0.70
0.68
0.60
0.51
0.42
0.32
0.20
0.06
-0.06
-0.13
-0.14
-0.13
-0.11
-0.08
-0.01
0.10
0.26
0.38
0.40
0.27
0.01
-0.33
-0.64
-0.85
-0.90
-0.81
-0.63
-0.43
-0.29
-0.23
-0.23
-0.21
-0.11
0.08
0.28
0.41
0.33
0.02
-0.48
-1.03
-1.45
-1.57
-1.32
-0.77
-0.09
0.51
0.84
0.82
0.52
0.07
-0.35
-0.59
-0.61
-0.41
-0.04
0.42
0.91
1.33
1.60
1.66
1.50
1.19
0.81
0.45
0.19
0.04
-0.02
-0.00
0.04
0.09
0.11
0.10
0.06
0.02
0.05
0.16
0.38
0.64
0.85
0.94
0.86
0.62
0.26
-0.16
-0.56
-0.86
-1.01
-0.95
-0.69
-0.29
0.13
0.44
0.56
0.50
0.30
0.06
-0.12
-0.23
-0.29
-0.33
-0.38
-0.42
-0.46
-0.47
-0.48
-0.50
-0.52
-0.52
-0.45
-0.27
0.02
0.33
0.60
0.76
0.78
0.71
0.58
0.46
0.37
0.33
0.36
0.46
0.63
0.84
1.02
1.12
1.05
0.80
0.40
-0.06
-0.46
-0.70
-0.76
-0.70
-0.64
-0.67
-0.81
-1.00
-1.12
-1.10
-0.92
-0.66
-0.44
-0.35
-0.40
-0.51
-0.58
-0.54
-0.39
-0.22
-0.13
-0.19
-0.36
-0.52
-0.55
-0.36
0.03
0.50
0.86
1.00
0.85
0.52
0.15
-0.09
-0.10
0.10
0.39
0.60
0.64
0.48
0.20
-0.09
-0.34
-0.52
-0.67
-0.80
-0.90
-0.87
-0.69
-0.36
0.03
0.33
0.47
0.42
0.26
0.10
0.03
0.07
0.19
0.35
0.49
0.58
0.62
0.58
0.46
0.27
0.06
-0.11
-0.19
-0.18
-0.08
0.06
0.20
0.29
0.35
0.40
0.47
0.58
0.71
0.82
0.87
0.83
0.72
0.56
0.42
0.30
0.21
0.11
-0.03
-0.20
-0.39
-0.52
-0.58
-0.56
-0.52
-0.53
-0.65
-0.86
-1.12
-1.33
-1.42
-1.36
-1.17
-0.92
-0.70
-0.56
-0.50
-0.48
-0.43
-0.31
-0.14
0.04
0.19
0.30
0.39
0.48
0.59
0.67
0.67
0.59
0.44
0.30
0.25
0.29
0.37
0.40
0.33
0.16
-0.03
-0.14
-0.12
0.01
0.21
0.39
0.50
0.51
0.43
0.34
0.29
0.35
0.50
0.66
0.75
0.69
0.50
0.25
0.02
-0.12
-0.19
-0.24
-0.34
-0.47
-0.58
-0.58
-0.43
-0.17
0.11
0.32
0.41
0.34
0.14
-0.15
-0.46
-0.69
-0.77
-0.66
-0.40
-0.12
0.02
-0.05
-0.31
-0.60
-0.72
-0.54
-0.07
0.54
1.07
1.34
1.34
1.14
0.83
0.53
0.25
-0.02
-0.26
-0.43
-0.45
-0.29
0.00
0.29
0.45
0.36
0.06
-0.35
-0.75
-1.00
-1.07
-0.96
-0.73
-0.46
-0.22
-0.07
-0.02
-0.07
-0.15
-0.20
-0.16
-0.04
0.13
0.28
0.33
0.29
0.19
0.10
0.05
0.08
0.16
0.28
0.43
0.57
0.68
0.70
0.62
0.44
0.23
0.07
0.02
0.07
0.15
0.18
0.14
0.08
0.04
0.07
0.14
0.21
0.25
0.26
0.26
0.24
0.17
0.01
-0.25
-0.54
-0.75
-0.79
-0.66
-0.43
-0.19
-0.03
0.05
0.04
-0.01
-0.12
-0.32
-0.60
-0.90
-1.13
-1.16
-0.97
-0.60
-0.19
0.13
0.30
0.34
0.35
0.39
0.47
0.54
0.54
0.43
0.27
0.14
0.08
0.09
0.10
0.08
0.03
0.02
0.10
0.29
0.52
0.68
0.72
0.61
0.41
0.20
0.02
-0.15
-0.33
-0.51
-0.68
-0.78
-0.81
-0.79
-0.77
-0.77
-0.76
-0.68
-0.47
-0.15
0.21
0.51
0.67
0.70
0.65
0.60
0.58
0.58
0.57
0.55
0.51
0.49
0.48
0.44
0.31
0.08
-0.21
-0.46
-0.56
-0.46
-0.19
0.10
0.27
0.24
0.03
-0.22
-0.38
-0.37
-0.20
0.05
0.27
0.37
0.32
0.13
-0.15
-0.46
-0.75
-0.96
-1.03
-0.97
-0.84
-0.70
-0.61
-0.57
-0.50
-0.34
-0.08
0.20
0.39
0.39
0.22
-0.03
-0.22
-0.26
-0.15
0.06
0.26
0.43
0.58
0.75
0.95
1.15
1.28
1.25
1.04
0.71
0.33
0.04
-0.10
-0.06
0.12
0.34
0.48
0.49
0.34
0.10
-0.15
-0.32
-0.34
-0.24
-0.06
0.09
0.15
0.06
-0.13
-0.32
-0.39
-0.26
0.06
0.46
0.79
0.90
0.76
0.41
-0.04
-0.47
-0.84
-1.14
-1.38
-1.57
-1.64
-1.55
-1.25
-0.80
-0.31
0.09
0.31
0.36
0.31
0.28
0.36
0.55
0.77
0.92
0.88
0.67
0.39
0.17
0.13
0.28
0.54
0.78
0.89
0.81
0.58
0.26
-0.06
-0.30
-0.43
-0.47
-0.46
-0.46
-0.50
-0.55
-0.59
-0.56
-0.47
-0.37
-0.32
-0.37
-0.50
-0.65
-0.72
-0.69
-0.55
-0.37
-0.15
0.07
0.32
0.56
0.76
0.83
0.71
0.43
0.07
-0.23
-0.33
-0.21
0.10
0.43
0.67
0.75
0.70
0.59
0.48
0.37
0.24
0.07
-0.13
-0.30
-0.39
-0.35
-0.21
-0.02
0.16
0.25
0.22
0.08
-0.14
-0.39
-0.63
-0.80
-0.87
-0.85
-0.76
-0.65
-0.52
-0.40
-0.29
-0.19
-0.12
-0.08
-0.06
-0.06
-0.06
-0.08
-0.10
-0.11
-0.07
0.04
0.20
0.37
0.48
0.52
0.50
0.51
0.62
0.85
1.14
1.39
1.49
1.39
1.13
0.81
0.52
0.33
0.24
0.20
0.15
0.05
-0.08
-0.23
-0.35
-0.40
-0.38
-0.29
-0.18
-0.11
-0.12
-0.24
-0.42
-0.59
-0.68
-0.63
-0.49
-0.32
-0.20
-0.17
-0.19
-0.24
-0.26
-0.30
-0.38
-0.54
-0.71
-0.80
-0.73
-0.47
-0.09
0.26
0.48
0.52
0.42
0.27
0.10
-0.04
-0.16
-0.25
-0.29
-0.28
-0.24
-0.23
-0.25
-0.31
-0.35
-0.31
-0.15
0.09
0.34
0.49
0.50
0.38
0.19
0.04
-0.03
-0.00
0.09
0.16
0.16
0.06
-0.12
-0.32
-0.46
-0.52
-0.48
-0.40
-0.30
-0.22
-0.14
-0.05
0.06
0.19
0.32
0.44
0.52
0.54
0.47
0.32
0.10
-0.13
-0.33
-0.45
-0.47
-0.41
-0.31
-0.20
-0.10
0.01
0.15
0.33
0.55
0.74
0.83
0.79
0.60
0.33
0.07
-0.11
-0.17
-0.13
-0.00
0.15
0.30
0.43
0.53
0.60
0.61
0.56
0.45
0.31
0.18
0.11
0.08
0.06
0.01
-0.08
-0.23
-0.40
-0.55
-0.64
-0.63
-0.51
-0.29
-0.01
0.26
0.43
0.46
0.32
0.07
-0.20
-0.42
-0.55
-0.58
-0.52
-0.38
-0.14
0.18
0.53
0.80
0.89
0.79
0.53
0.23
0.00
-0.11
-0.12
-0.07
-0.01
0.08
0.20
0.35
0.48
0.51
0.37
0.08
-0.29
-0.60
-0.73
-0.63
-0.36
-0.04
0.18
0.21
0.05
-0.23
-0.53
-0.76
-0.87
-0.85
-0.72
-0.50
-0.23
0.03
0.24
0.34
0.33
0.20
0.03
-0.14
-0.27
-0.34
-0.35
-0.30
-0.22
-0.12
-0.01
0.10
0.24
0.43
0.68
0.94
1.11
1.10
0.88
0.48
0.03
-0.32
-0.48
-0.43
-0.22
0.04
0.28
0.44
0.51
0.47
0.31
0.05
-0.28
-0.62
-0.88
-1.01
-1.00
-0.87
-0.68
-0.48
-0.32
-0.23
-0.22
-0.28
-0.37
-0.43
-0.42
-0.35
-0.24
-0.18
-0.20
-0.28
-0.36
-0.34
-0.15
0.17
0.55
0.87
1.07
1.15
1.15
1.12
1.07
1.00
0.89
0.75
0.61
0.54
0.51
0.51
0.45
0.32
0.13
-0.03
-0.10
-0.06
0.05
0.12
0.06
-0.17
-0.53
-0.92
-1.20
-1.28
-1.12
-0.78
-0.38
-0.05
0.11
0.09
-0.03
-0.18
-0.27
-0.28
-0.22
-0.10
0.06
0.21
0.32
0.32
0.23
0.06
-0.09
-0.14
-0.03
0.21
0.52
0.81
1.00
1.05
0.93
0.64
0.22
-0.25
-0.67
-0.90
-0.86
-0.55
-0.08
0.36
0.60
0.54
0.24
-0.15
-0.42
-0.43
-0.18
0.20
0.56
0.75
0.73
0.54
0.29
0.06
-0.13
-0.31
-0.54
-0.83
-1.14
-1.37
-1.41
-1.22
-0.80
-0.31
0.10
0.30
0.29
0.13
-0.06
-0.19
-0.25
-0.27
-0.27
-0.24
-0.14
0.03
0.19
0.23
0.05
-0.29
-0.63
-0.74
-0.47
0.17
0.98
1.65
1.98
1.88
1.47
0.95
0.49
0.19
0.04
-0.04
-0.11
-0.17
-0.22
-0.20
-0.13
-0.01
0.09
0.17
0.19
0.18
0.16
0.13
0.12
0.12
0.10
0.05
-0.08
-0.29
-0.54
-0.78
-0.91
-0.91
-0.77
-0.55
-0.33
-0.17
-0.07
-0.02
0.01
0.04
0.07
0.12
0.20
0.31
0.42
0.46
0.37
0.14
-0.18
-0.45
-0.55
-0.41
-0.07
0.34
0.69
0.86
0.79
0.51
0.08
-0.43
-0.91
-1.28
-1.46
-1.42
-1.20
-0.89
-0.60
-0.40
-0.30
-0.25
-0.18
-0.05
0.12
0.32
0.48
0.59
0.63
0.60
0.49
0.30
0.05
-0.21
-0.38
-0.41
-0.26
-0.00
0.25
0.39
0.37
0.24
0.10
0.07
0.18
0.41
0.64
0.76
0.72
0.50
0.18
-0.15
-0.42
-0.58
-0.65
-0.68
-0.70
-0.74
-0.79
-0.78
-0.71
-0.55
-0.33
-0.07
0.20
0.46
0.68
0.82
0.83
0.66
0.33
-0.09
-0.46
-0.65
-0.58
-0.28
0.16
0.62
0.99
1.22
1.31
1.29
1.20
1.06
0.89
0.71
0.52
0.35
0.24
0.20
0.26
0.40
0.55
0.63
0.58
0.37
0.07
-0.21
-0.36
-0.36
-0.25
-0.16
-0.18
-0.32
-0.53
-0.71
-0.77
-0.70
-0.55
-0.40
-0.34
-0.38
-0.49
-0.60
-0.63
-0.55
-0.35
-0.10
0.13
0.26
0.28
0.18
0.01
-0.18
-0.37
-0.58
-0.78
-0.90
-0.85
-0.56
-0.06
0.53
1.01
1.20
1.06
0.68
0.27
-0.02
-0.11
-0.04
0.09
0.22
0.33
0.47
0.70
0.98
1.25
1.41
1.45
1.49
1.68
2.14
2.88
3.73
4.42
4.69
4.41
3.64
2.61
1.62
0.90
0.60
0.74
1.24
1.96
2.77
3.50
4.01
4.17
3.91
3.25
2.25
1.05
-0.19
-1.33
-2.22
-2.74
-2.84
-2.53
-1.92
-1.19
-0.51
0.04
0.46
0.88
1.40
2.07
2.79
3.35
3.49
3.06
2.06
0.66
-0.81
-1.99
-2.61
-2.56
-1.92
-0.94
0.08
0.90
1.43
1.77
2.07
2.43
2.81
3.09
3.11
2.83
2.35
1.79
1.18
0.47
-0.55
-2.00
-3.85
-5.86
-7.72
-9.12
-9.89
-10.04
-9.67
-8.96
-8.10
-7.32
-6.87
-7.02
-7.97
-9.73
-11.99
-14.12
-15.24
-14.52
-11.53
-6.52
-0.44
5.40
9.83
12.33
13.13
12.98
12.58
12.15
11.29
9.34
5.84
0.87
-4.88
-10.32
-14.37
-16.10
-14.87
-10.50
-3.44
5.13
13.43
19.56
22.23
21.28
17.73
13.20
9.14
6.22
4.19
2.36
0.16
-2.49
-5.22
-7.62
-9.58
-11.22
-12.64
-13.57
-13.35
-11.34
-7.41
-2.26
2.80
6.42
7.87
7.31
5.64
3.93
2.82
2.35
2.07
1.51
0.50
-0.76
-1.90
-2.62
-2.87
-2.82
-2.69
-2.66
-2.74
-2.81
-2.70
-2.34
-1.72
-0.99
-0.36
-0.02
-0.03
-0.31
-0.62
-0.74
-0.53
-0.08
0.38
0.63
0.54
0.22
-0.14
-0.30
-0.17
0.15
0.45
0.56
0.42
0.16
-0.00
0.09
0.46
0.98
1.40
1.51
1.23
0.65
-0.01
-0.56
-0.88
-1.01
-1.06
-1.17
-1.38
-1.64
-1.87
-1.97
-1.93
-1.84
-1.79
-1.87
-2.12
-2.49
-2.90
-3.32
-3.71
-4.10
-4.51
-4.96
-5.39
-5.74
-5.98
-6.11
-6.19
-6.32
-6.53
-6.81
-7.12
-7.40
-7.62
-7.76
-7.82
-7.78
-7.63
-7.40
-7.25
-7.41
-8.15
-9.64
-11.87
-14.66
-17.67
-20.58
-23.11
-25.20
-26.93
-28.57
-30.48
-33.02
-36.41
-40.70
-45.69
-51.04
-56.43
-61.64
-66.63
-71.50
-76.31
-81.10
-85.86
-90.62
-95.54
-100.83
-106.61
-112.78
-119.08
-125.30
-131.64
-138.68
-146.92
-155.92
-163.73
-166.91
-161.54
-144.66
-115.27
-74.65
-25.65
28.23
83.49
136.80
184.89
224.70
253.94
271.90
279.86
280.72
277.90
274.22
271.16
269.07
267.77
267.14
267.46
269.30
273.28
279.64
287.89
296.44
302.55
302.81
294.11
274.66
244.63
205.97
161.33
112.87
61.70
8.39
-45.78
-97.90
-143.56
-178.19
-199.01
-206.28
-203.17
-194.32
-183.90
-174.22
-165.59
-157.08
-147.86
-137.91
-128.06
-119.34
-112.30
-106.67
-101.57
-96.02
-89.43
-81.87
-74.00
-66.66
-60.49
-55.64
-51.76
-48.20
-44.32
-39.79
-34.78
-29.79
-25.41
-22.03
-19.68
-18.04
-16.63
-15.05
-13.14
-11.00
-8.86
-6.94
-5.35
-4.08
-3.04
-2.17
-1.46
-0.95
-0.67
-0.60
-0.64
-0.69
-0.63
-0.41
-0.05
0.36
0.70
0.91
0.95
0.86
0.68
0.47
0.26
0.09
-0.02
-0.02
0.07
0.20
0.26
0.16
-0.13
-0.53
-0.86
-0.94
-0.71
-0.25
0.26
0.61
0.67
0.48
0.18
-0.07
-0.17
-0.12
0.01
0.16
0.25
0.28
0.26
0.19
0.06
-0.12
-0.28
-0.39
-0.42
-0.40
-0.39
-0.45
-0.58
-0.70
-0.74
-0.70
-0.61
-0.54
-0.52
-0.51
-0.43
-0.23
0.04
0.28
0.39
0.30
0.08
-0.13
-0.19
-0.00
0.42
0.99
1.54
1.94
2.11
2.02
1.73
1.33
0.91
0.53
0.24
0.04
-0.05
-0.05
0.04
0.16
0.27
0.32
0.29
0.21
0.11
0.02
-0.05
-0.08
-0.04
0.07
0.27
0.50
0.72
0.82
0.79
0.64
0.46
0.32
0.26
0.24
0.18
0.02
-0.26
-0.64
-1.05
-1.44
-1.75
-1.95
-1.99
-1.85
-1.53
-1.07
-0.59
-0.22
-0.05
-0.10
-0.28
-0.47
-0.53
-0.41
-0.13
0.18
0.43
0.54
0.57
0.64
0.89
1.41
2.15
2.97
3.61
3.83
3.52
2.72
1.62
0.53
-0.29
-0.68
-0.67
-0.45
-0.22
-0.13
-0.19
-0.31
-0.38
-0.36
-0.32
-0.35
-0.55
-0.91
-1.32
-1.65
-1.80
-1.75
-1.59
-1.43
-1.39
-1.49
-1.67
-1.84
-1.89
-1.75
-1.39
-0.88
-0.31
0.21
0.65
1.03
1.39
1.80
2.23
2.58
2.74
2.62
2.25
1.73
1.22
0.84
0.62
0.50
0.39
0.23
0.03
-0.16
-0.26
-0.27
-0.21
-0.13
-0.11
-0.19
-0.37
-0.64
-0.95
-1.23
-1.43
-1.48
-1.39
-1.17
-0.88
-0.55
-0.22
0.09
0.42
0.78
1.18
1.61
2.01
2.30
2.36
2.11
1.52
0.65
-0.34
-1.25
-1.87
-2.08
-1.87
-1.40
-0.88
-0.54
-0.52
-0.81
-1.24
-1.60
-1.75
-1.66
-1.45
-1.31
-1.36
-1.58
-1.82
-1.89
-1.71
-1.33
-0.91
-0.60
-0.46
-0.42
-0.31
-0.00
0.50
