1660930135.00
64.000000
-0.00
-0.00
-0.00
-0.00
-0.00
-0.00
-0.00
-0.00
-0.00
-0.00
0.00
0.01
0.01
-0.00
-0.03
-0.05
-0.05
0.00
0.13
0.36
0.66
1.01
1.37
1.71
2.04
2.39
2.79
3.27
3.86
4.49
5.10
5.61
5.99
6.28
6.56
6.95
7.53
8.40
9.44
10.51
11.46
12.22
12.86
13.60
14.68
16.28
18.60
21.39
24.30
26.96
29.19
31.13
33.22
36.02
39.90
45.21
51.43
57.83
63.65
68.51
72.63
76.81
82.06
89.08
98.34
109.00
119.81
129.52
137.48
144.04
150.40
158.53
167.48
179.41
194.38
211.69
229.49
244.67
253.26
251.41
236.60
208.54
169.67
123.42
73.40
21.92
-30.42
-84.12
-139.35
-194.59
-246.34
-289.46
-319.51
-334.12
-333.92
-322.22
-303.56
-282.01
-259.97
-238.08
-215.95
-193.70
-172.17
-152.66
-136.10
-122.36
-110.12
-97.50
-83.06
-66.39
-48.41
-30.80
-15.20
-2.43
7.82
16.84
26.23
37.23
50.14
64.30
78.36
90.94
101.14
108.87
114.87
120.50
127.39
136.86
149.26
163.27
175.72
182.14
177.90
159.66
126.48
80.25
25.31
-32.43
-86.74
-132.15
-164.89
-183.50
-188.86
-183.78
-172.13
-157.73
-143.46
-130.88
-120.42
-111.90
-104.91
-98.98
-93.58
-88.12
-82.07
-75.17
-67.61
-59.91
-52.76
-46.71
-41.95
-38.26
-35.15
-32.02
-28.46
-24.36
-19.93
-15.61
-11.80
-8.75
-6.40
-4.52
-2.82
-1.07
0.75
2.55
4.16
5.45
6.37
7.01
7.50
8.00
8.63
9.42
10.29
11.09
11.64
11.83
11.65
11.23
10.74
10.37
10.20
10.22
10.33
10.43
10.43
10.35
10.21
10.07
9.98
9.96
10.03
10.17
10.35
10.53
10.67
10.72
10.68
10.53
10.27
9.89
9.41
8.87
8.33
7.82
7.26
6.43
5.08
3.00
0.20
-3.13
-6.62
-9.90
-12.69
-14.89
-16.48
-17.52
-18.05
-18.07
-17.66
-16.92
-16.04
-15.17
-14.40
-13.73
-13.08
-12.33
-11.44
-10.40
-9.31
-8.22
-7.19
-6.19
-5.18
-4.11
-2.98
-1.82
-0.73
0.23
0.97
1.46
1.69
1.70
1.58
1.42
1.30
1.28
1.38
1.58
1.83
2.11
2.38
2.64
2.85
2.98
3.02
2.94
2.74
2.42
2.01
1.57
1.20
0.96
0.90
1.03
1.28
1.54
1.75
1.87
1.93
2.02
2.21
2.54
2.96
3.37
3.62
3.64
3.41
3.03
2.64
2.36
2.24
2.23
2.26
2.30
2.34
2.44
2.61
2.80
2.92
2.87
2.63
2.29
1.99
1.87
1.93
2.07
2.12
1.92
1.41
0.65
-0.25
-1.11
-1.79
-2.20
-2.30
-2.14
-1.81
-1.47
-1.25
-1.26
-1.48
-1.82
-2.16
-2.37
-2.42
-2.29
-2.05
-1.72
-1.33
-0.92
-0.50
-0.11
0.20
0.46
0.75
1.18
1.83
2.72
3.74
4.74
5.57
6.15
6.52
6.79
7.09
7.44
7.79
8.01
8.00
7.71
7.19
6.59
6.06
5.72
5.58
5.58
5.62
5.61
5.53
5.44
5.43
5.55
5.76
5.99
6.12
6.09
5.91
5.68
5.52
5.47
5.50
5.54
5.54
5.49
5.43
5.41
5.43
5.44
5.39
5.30
5.23
5.29
5.55
5.99
6.48
6.88
7.04
6.89
6.38
5.53
4.38
2.99
1.46
-0.09
-1.52
-2.75
-3.70
-4.35
-4.69
-4.76
-4.65
-4.48
-4.37
-4.37
-4.44
-4.48
-4.35
-4.02
-3.54
-3.02
-2.61
-2.39
-2.36
-2.44
-2.54
-2.54
-2.40
-2.11
-1.72
-1.29
-0.89
-0.59
-0.39
-0.28
-0.21
-0.14
-0.05
0.06
0.14
0.16
0.11
0.01
-0.13
-0.25
-0.37
-0.50
-0.66
-0.83
-0.96
-0.98
-0.88
-0.68
-0.49
-0.39
-0.39
-0.44
-0.45
-0.40
-0.27
-0.13
-0.04
0.02
0.09
0.20
0.39
0.59
0.76
0.83
0.81
0.73
0.59
0.41
0.19
-0.05
-0.23
-0.31
-0.24
-0.02
0.30
0.66
0.99
1.23
1.36
1.34
1.20
0.97
0.71
0.50
0.38
0.35
0.37
0.39
0.35
0.20
-0.04
-0.32
-0.56
-0.67
-0.58
-0.30
0.08
0.43
0.63
0.64
0.49
0.26
0.01
-0.18
-0.27
-0.25
-0.12
0.11
0.38
0.63
0.84
0.97
1.04
1.06
1.04
0.95
0.79
0.57
0.35
0.17
0.07
0.06
0.10
0.17
0.25
0.33
0.40
0.44
0.47
0.48
0.48
0.46
0.43
0.36
0.26
0.13
0.04
0.03
0.13
0.33
0.57
0.76
0.79
0.61
0.25
-0.18
-0.53
-0.67
-0.59
-0.37
-0.15
-0.01
0.03
0.04
0.08
0.15
0.18
0.09
-0.14
-0.43
-0.65
-0.69
-0.55
-0.32
-0.18
-0.22
-0.45
-0.76
-0.94
-0.83
-0.40
0.26
0.92
1.37
1.50
1.34
1.06
0.84
0.81
0.96
1.14
1.20
1.05
0.74
0.37
0.05
-0.17
-0.34
-0.51
-0.69
-0.82
-0.84
-0.68
-0.36
0.02
0.38
0.65
0.84
0.99
1.14
1.27
1.31
1.20
0.89
0.44
-0.04
-0.41
-0.55
-0.44
-0.13
0.24
0.56
0.73
0.75
0.66
0.54
0.43
0.35
0.28
0.20
0.12
0.04
-0.02
-0.06
-0.11
-0.18
-0.25
-0.31
-0.34
-0.30
-0.21
-0.08
0.07
0.21
0.31
0.36
0.36
0.30
0.20
0.10
0.03
0.04
0.15
0.31
0.47
0.56
0.53
0.38
0.14
-0.13
-0.38
-0.58
-0.69
-0.70
-0.58
-0.35
-0.07
0.17
0.32
0.35
0.29
0.18
0.05
-0.10
-0.27
-0.44
-0.53
-0.50
-0.34
-0.15
-0.06
-0.18
-0.48
-0.81
-1.00
-0.93
-0.61
-0.16
0.23
0.45
0.48
0.39
0.27
0.20
0.19
0.25
0.35
0.48
0.62
0.71
0.72
0.63
0.46
0.28
0.17
0.24
0.52
1.00
1.58
2.10
2.39
2.33
1.90
1.21
0.44
-0.22
-0.68
-0.93
-1.09
-1.21
-1.30
-1.28
-1.07
-0.63
-0.09
0.37
0.55
0.40
-0.01
-0.44
-0.71
-0.72
-0.54
-0.33
-0.22
-0.26
-0.33
-0.27
0.06
0.63
1.30
1.84
2.04
1.82
1.25
0.50
-0.24
-0.83
-1.21
-1.35
-1.28
-1.06
-0.76
-0.47
-0.28
-0.28
-0.50
-0.89
-1.35
-1.74
-1.97
-1.98
-1.83
-1.55
-1.22
-0.90
-0.61
-0.38
-0.22
-0.11
-0.02
0.08
0.25
0.50
0.83
1.21
1.59
1.90
2.10
2.17
2.15
2.08
2.03
2.04
2.09
2.10
1.97
1.64
1.11
0.48
-0.08
-0.45
-0.55
-0.40
-0.11
0.17
0.33
0.30
0.10
-0.21
-0.54
-0.85
-1.11
-1.32
-1.49
-1.59
-1.62
-1.56
-1.45
-1.33
-1.26
-1.27
-1.35
-1.45
-1.54
-1.57
-1.49
-1.29
-0.97
-0.55
-0.09
0.33
0.66
0.89
1.08
1.30
1.62
2.00
2.37
2.63
2.72
2.67
2.57
2.48
2.40
2.27
2.00
1.60
1.17
0.87
0.79
0.91
1.10
1.23
1.23
1.16
1.13
1.21
1.38
1.52
1.50
1.23
0.76
0.18
-0.38
-0.81
-1.07
-1.15
-1.11
-1.02
-0.99
-1.06
-1.23
-1.48
-1.73
-1.96
-2.17
-2.35
-2.49
-2.57
-2.53
-2.37
-2.10
-1.76
-1.39
-1.05
-0.78
-0.61
-0.55
-0.58
-0.65
-0.67
-0.63
-0.54
-0.51
-0.62
-0.90
-1.22
-1.46
-1.50
-1.36
-1.17
-1.09
-1.20
-1.48
-1.76
-1.86
-1.70
-1.27
-0.69
-0.10
0.42
0.83
1.17
1.49
1.80
2.06
2.18
2.12
1.89
1.61
1.43
1.50
1.82
2.24
2.55
2.57
2.28
1.82
1.41
1.22
1.26
1.39
1.44
1.30
0.97
0.57
0.20
-0.06
-0.24
-0.40
-0.61
-0.88
-1.17
-1.41
-1.51
-1.42
-1.12
-0.68
-0.22
0.12
0.26
0.20
-0.01
-0.25
-0.48
-0.69
-0.90
-1.15
-1.42
-1.67
-1.79
-1.72
-1.39
-0.81
-0.07
0.67
1.24
1.51
1.44
1.13
0.74
0.42
0.25
0.22
0.26
0.31
0.34
0.37
0.42
0.53
0.66
0.78
0.81
0.73
0.54
0.32
0.16
0.14
0.29
0.56
0.84
1.05
1.16
1.21
1.24
1.28
1.31
1.29
1.16
0.92
0.58
0.15
-0.31
-0.75
-1.09
-1.25
-1.23
-1.08
-0.91
-0.86
-1.00
-1.33
-1.73
-2.10
-2.37
-2.53
-2.61
-2.63
-2.57
-2.44
-2.21
-1.93
-1.63
-1.36
-1.11
-0.89
-0.66
-0.42
-0.14
0.16
0.48
0.78
1.07
1.30
1.48
1.58
1.62
1.62
1.62
1.66
1.76
1.89
2.00
2.00
1.82
1.40
0.80
0.14
-0.46
-0.88
-1.10
-1.15
-1.10
-1.03
-0.96
-0.89
-0.81
-0.68
-0.50
-0.29
-0.07
0.09
0.19
0.22
0.21
0.20
0.24
0.31
0.37
0.42
0.46
0.54
0.72
1.02
1.39
1.72
1.94
2.01
1.97
1.88
1.75
1.58
1.28
0.80
0.14
-0.59
-1.26
-1.72
-1.91
-1.86
-1.65
-1.38
-1.10
-0.82
-0.54
-0.29
-0.16
-0.22
-0.48
-0.86
-1.18
-1.30
-1.14
-0.78
-0.40
-0.15
-0.14
-0.34
-0.63
-0.88
-1.03
-1.09
-1.09
-1.05
-0.94
-0.68
-0.25
0.35
0.98
1.50
1.79
1.82
1.62
1.28
0.84
0.32
-0.23
-0.76
-1.14
-1.22
-0.96
-0.42
0.20
0.69
0.92
0.85
0.60
0.28
0.01
-0.19
-0.35
-0.50
-0.63
-0.67
-0.57
-0.30
0.07
0.41
0.59
0.54
0.31
0.04
-0.13
-0.13
0.05
0.35
0.73
1.16
1.65
2.17
2.69
3.11
3.37
3.39
3.15
2.62
1.81
0.79
-0.33
-1.41
-2.28
-2.84
-3.07
-3.02
-2.80
-2.51
-2.24
-2.05
-1.97
-2.00
-2.10
-2.23
-2.33
-2.35
-2.29
-2.17
-1.98
-1.72
-1.36
-0.88
-0.30
0.32
0.92
1.41
1.76
1.97
2.08
2.17
2.32
2.58
2.94
3.32
3.60
3.69
3.52
3.12
2.58
2.00
1.46
1.00
0.60
0.27
0.01
-0.15
-0.23
-0.23
-0.23
-0.29
-0.45
-0.68
-0.95
-1.18
-1.35
-1.45
-1.51
-1.55
-1.57
-1.52
-1.37
-1.10
-0.78
-0.50
-0.37
-0.44
-0.68
-0.96
-1.13
-1.11
-0.91
-0.65
-0.46
-0.43
-0.56
-0.73
-0.82
-0.73
-0.44
-0.04
0.37
0.67
0.80
0.75
0.58
0.38
0.22
0.14
0.15
0.20
0.26
0.30
0.35
0.43
0.57
0.73
0.87
0.91
0.82
0.63
0.43
0.32
0.36
0.58
0.91
1.23
1.42
1.41
1.20
0.86
0.52
0.26
0.13
0.09
0.10
0.11
0.10
0.09
0.10
0.10
0.07
-0.01
-0.12
-0.21
-0.21
-0.10
0.06
0.17
0.12
-0.15
-0.61
-1.18
-1.72
-2.11
-2.25
-2.14
-1.83
-1.42
-1.00
-0.64
-0.39
-0.26
-0.26
-0.40
-0.65
-0.96
-1.26
-1.44
-1.41
-1.16
-0.72
-0.22
0.22
0.49
0.56
0.46
0.31
0.22
0.32
0.67
1.23
1.84
2.34
2.52
2.33
1.79
1.09
0.43
-0.01
-0.17
-0.12
0.00
0.07
0.03
-0.08
-0.22
-0.33
-0.40
-0.42
-0.41
-0.35
-0.20
0.02
0.26
0.45
0.54
0.57
0.59
0.68
0.86
1.07
1.18
1.10
0.83
0.47
0.18
0.09
0.23
0.54
0.90
1.18
1.31
1.30
1.16
0.93
0.64
0.31
-0.04
-0.38
-0.67
-0.93
-1.16
-1.37
-1.53
-1.60
-1.53
-1.31
-1.01
-0.75
-0.64
-0.75
-1.02
-1.35
-1.57
-1.62
-1.51
-1.33
-1.20
-1.20
-1.29
-1.38
-1.35
-1.18
-0.91
-0.66
-0.54
-0.60
-0.80
-1.00
-1.08
-0.98
-0.73
-0.41
-0.14
0.02
0.12
0.24
0.49
0.92
1.47
2.02
2.47
2.75
2.88
2.93
2.94
2.87
2.68
2.32
1.80
1.24
0.76
0.47
0.36
0.36
0.37
0.31
0.20
0.08
0.00
-0.03
-0.07
-0.17
-0.34
-0.56
-0.74
-0.79
-0.68
-0.48
-0.32
-0.33
-0.54
-0.89
-1.19
-1.24
-0.96
-0.41
0.19
0.61
0.66
0.36
-0.13
-0.58
-0.80
-0.76
-0.55
-0.31
-0.17
-0.18
-0.28
-0.39
-0.43
-0.34
-0.15
0.09
0.31
0.44
0.42
0.23
-0.07
-0.37
-0.54
-0.48
-0.19
0.26
0.71
1.03
1.16
1.12
1.00
0.93
0.95
1.04
1.12
1.11
0.97
0.77
0.57
0.46
0.40
0.31
0.06
-0.39
-1.01
-1.63
-2.06
-2.17
-1.94
-1.50
-1.03
-0.70
-0.62
-0.77
-1.06
-1.34
-1.51
-1.57
-1.57
-1.59
-1.68
-1.82
-1.90
-1.82
-1.57
-1.19
-0.79
-0.44
-0.18
0.07
0.35
0.71
1.10
1.47
1.79
2.06
2.32
2.58
2.80
2.88
2.75
2.39
1.88
1.32
0.81
0.38
-0.02
-0.44
-0.89
-1.32
-1.59
-1.60
-1.34
-0.90
-0.42
-0.04
0.14
0.15
0.06
-0.08
-0.21
-0.33
-0.44
-0.53
-0.57
-0.53
-0.41
-0.22
0.03
0.31
0.57
0.84
1.10
1.37
1.68
2.01
2.36
2.66
2.84
2.86
2.73
2.47
2.12
1.70
1.20
0.58
-0.16
-0.95
-1.68
-2.22
-2.51
-2.54
-2.40
-2.20
-2.04
-1.96
-1.96
-1.99
-1.98
-1.89
-1.71
-1.49
-1.29
-1.14
-1.05
-0.95
-0.75
-0.40
0.11
0.73
1.33
1.78
1.98
1.93
1.70
1.44
1.27
1.20
1.17
1.07
0.84
0.49
0.15
-0.10
-0.22
-0.28
-0.40
-0.68
-1.11
-1.60
-2.01
-2.25
-2.29
-2.19
-2.02
-1.79
-1.49
-1.07
-0.53
0.05
0.57
0.91
1.00
0.86
0.57
0.23
-0.08
-0.34
-0.54
-0.67
-0.73
-0.66
-0.47
-0.17
0.19
0.51
0.70
0.74
0.62
0.42
0.26
0.29
0.59
1.19
2.05
2.99
3.83
4.34
4.34
3.75
2.62
1.13
-0.38
-1.58
-2.19
-2.12
-1.52
-0.67
0.08
0.47
0.42
-0.00
-0.60
-1.16
-1.50
-1.56
-1.33
-0.89
-0.35
0.15
0.51
0.64
0.54
0.27
-0.10
-0.46
-0.72
-0.83
-0.75
-0.53
-0.23
0.04
0.20
0.22
0.16
0.13
0.21
0.43
0.74
1.02
1.17
1.15
0.97
0.67
0.30
-0.12
-0.57
-1.00
-1.35
-1.57
-1.64
-1.55
-1.34
-1.05
-0.71
-0.38
-0.14
-0.05
-0.13
-0.35
-0.56
-0.66
-0.60
-0.42
-0.26
-0.24
-0.40
-0.65
-0.84
-0.87
-0.70
-0.40
-0.08
0.16
0.28
0.31
0.29
0.31
0.40
0.56
0.76
0.88
0.86
0.66
0.33
-0.01
-0.22
-0.19
0.05
0.42
0.78
1.03
1.17
1.25
1.35
1.46
1.56
1.57
1.49
1.37
1.27
1.23
1.22
1.17
1.01
0.74
0.44
0.21
0.14
0.21
0.38
0.53
0.61
0.61
0.60
0.60
0.65
0.74
0.85
0.95
1.02
1.03
0.97
0.80
0.54
0.19
-0.19
-0.54
-0.83
-1.06
-1.25
-1.43
-1.63
-1.83
-1.95
-1.96
-1.83
-1.63
-1.46
-1.40
-1.50
-1.70
-1.90
-2.01
-2.01
-1.95
-1.92
-1.97
-2.09
-2.15
-2.03
-1.68
-1.16
-0.63
-0.27
-0.18
-0.33
-0.59
-0.76
-0.72
-0.42
0.08
0.67
1.23
1.68
1.97
2.11
2.10
1.96
1.73
1.43
1.12
0.84
0.61
0.44
0.32
0.22
0.14
0.06
-0.01
-0.08
-0.13
-0.14
-0.11
-0.05
0.01
0.02
-0.04
-0.10
-0.08
0.12
0.52
1.05
1.55
1.87
1.91
1.68
1.26
0.79
0.39
0.09
-0.10
-0.20
-0.21
-0.11
0.09
0.38
0.66
0.81
0.73
0.42
-0.06
-0.55
-0.92
-1.12
-1.17
-1.18
-1.18
-1.18
-1.10
-0.89
-0.54
-0.13
0.21
0.36
0.26
-0.08
-0.56
-1.02
-1.33
-1.42
-1.29
-1.03
-0.75
-0.54
-0.46
-0.46
-0.49
-0.49
-0.40
-0.23
-0.01
0.22
0.43
0.61
0.78
0.98
1.23
1.52
1.81
2.03
2.11
2.04
1.88
1.68
1.45
1.22
0.95
0.64
0.36
0.17
0.12
0.14
0.14
-0.04
-0.43
-0.94
-1.40
-1.65
-1.64
-1.48
-1.36
-1.40
-1.59
-1.80
-1.83
-1.62
-1.25
-0.87
-0.64
-0.60
-0.63
-0.59
-0.38
-0.03
0.40
0.80
1.12
1.37
1.54
1.59
1.48
1.18
0.74
0.29
-0.06
-0.24
-0.29
-0.31
-0.37
-0.52
-0.70
-0.80
-0.77
-0.58
-0.26
0.11
0.46
0.73
0.88
0.90
0.80
0.62
0.42
0.26
0.19
0.22
0.33
0.48
0.62
0.69
0.67
0.55
0.42
0.36
0.50
0.86
1.39
1.95
2.38
2.59
2.55
2.28
1.80
1.12
0.23
-0.82
-1.87
-2.75
-3.27
-3.38
-3.16
-2.78
-2.43
-2.17
-1.96
-1.73
-1.42
-1.09
-0.84
-0.78
-0.96
-1.34
-1.79
-2.17
-2.35
-2.28
-1.99
-1.57
-1.12
-0.75
-0.47
-0.29
-0.16
-0.02
0.13
0.31
0.56
0.94
1.51
2.25
3.07
3.77
4.15
4.09
3.59
2.81
1.92
1.07
0.36
-0.19
-0.58
-0.77
-0.75
-0.53
-0.18
0.20
0.49
0.63
0.60
0.44
0.22
-0.03
-0.26
-0.46
-0.64
-0.77
-0.86
-0.88
-0.83
-0.70
-0.51
-0.32
-0.20
-0.19
-0.28
-0.43
-0.57
-0.61
-0.52
-0.28
0.08
0.57
1.13
1.72
2.26
2.67
2.86
2.78
2.43
1.84
1.08
0.27
-0.44
-0.91
-1.05
-0.87
-0.49
-0.12
0.04
-0.13
-0.60
-1.25
-1.87
-2.33
-2.55
-2.59
-2.52
-2.38
-2.21
-1.98
-1.70
-1.37
-1.01
-0.64
-0.24
0.19
0.59
0.88
0.97
0.83
0.55
0.30
0.28
0.57
1.13
1.80
2.42
2.86
3.08
3.09
2.95
2.68
2.32
1.92
1.51
1.14
0.82
0.48
0.10
-0.35
-0.79
-1.13
-1.29
-1.25
-1.11
-0.95
-0.85
-0.84
-0.89
-0.95
-1.02
-1.08
-1.16
-1.27
-1.40
-1.50
-1.53
-1.45
-1.26
-0.99
-0.71
-0.51
-0.41
-0.39
-0.36
-0.22
0.07
0.51
0.97
1.36
1.57
1.59
1.41
1.08
0.65
0.20
-0.19
-0.44
-0.50
-0.40
-0.21
-0.04
0.07
0.08
0.05
0.01
0.01
0.04
0.10
0.14
0.14
0.09
0.01
-0.09
-0.20
-0.30
-0.35
-0.32
-0.19
0.01
0.24
0.44
0.55
0.60
0.61
0.66
0.75
0.89
1.04
1.14
1.17
1.08
0.87
0.54
0.12
-0.32
-0.69
-0.88
-0.85
-0.61
-0.26
0.07
0.26
0.25
0.07
-0.23
-0.56
-0.87
-1.09
-1.20
-1.19
-1.07
-0.88
-0.69
-0.56
-0.52
-0.57
-0.66
-0.73
-0.78
-0.85
-0.96
-1.14
-1.34
-1.49
-1.52
-1.44
-1.30
-1.16
-1.05
-0.92
-0.70
-0.35
0.13
0.63
1.06
1.37
1.52
1.56
1.51
1.44
1.39
1.42
1.53
1.74
1.99
2.18
2.24
2.12
1.84
1.46
1.06
0.72
0.49
0.42
0.52
0.74
0.99
1.17
1.17
0.98
0.64
0.25
-0.08
-0.27
-0.32
-0.23
-0.07
0.10
0.22
0.20
0.01
-0.34
-0.78
-1.17
-1.38
-1.35
-1.08
-0.69
-0.29
-0.01
0.07
-0.04
-0.30
-0.60
-0.86
-1.00
-0.99
-0.82
-0.55
-0.25
-0.03
0.05
-0.07
-0.34
-0.73
-1.11
-1.41
-1.57
-1.57
-1.44
-1.23
-0.99
-0.75
-0.56
-0.41
-0.30
-0.24
-0.25
-0.37
-0.62
-0.97
-1.37
-1.70
-1.85
-1.75
-1.43
-1.00
-0.61
-0.36
-0.24
-0.18
-0.06
0.18
0.55
1.01
1.49
1.93
2.31
2.61
2.84
2.99
3.06
3.06
3.02
2.95
2.83
2.59
2.18
1.57
0.84
0.10
-0.49
-0.86
-1.00
-0.98
-0.89
-0.79
-0.71
-0.66
-0.67
-0.77
-0.99
-1.31
-1.63
-1.84
-1.87
-1.71
-1.43
-1.12
-0.83
-0.56
-0.28
0.05
0.36
0.58
0.65
0.56
0.37
0.17
0.02
-0.03
-0.00
0.07
0.15
0.20
0.21
0.17
0.13
0.12
0.20
0.37
0.58
0.75
0.77
0.63
0.39
0.14
0.00
0.00
0.12
0.29
0.42
0.49
0.54
0.61
0.75
0.93
1.10
1.18
1.14
1.00
0.84
0.76
0.81
0.98
1.17
1.25
1.14
0.83
0.40
-0.05
-0.43
-0.68
-0.85
-0.98
-1.17
-1.43
-1.71
-1.92
-1.98
-1.87
-1.66
-1.51
-1.55
-1.80
-2.18
-2.51
-2.64
-2.52
-2.20
-1.81
-1.44
-1.09
-0.72
-0.26
0.30
0.88
1.38
1.73
1.93
2.08
2.24
2.47
2.71
2.86
2.81
2.52
2.05
1.52
1.06
0.69
0.39
0.10
-0.18
-0.41
-0.47
-0.34
-0.06
0.24
0.39
0.33
0.10
-0.15
-0.28
-0.24
-0.09
0.05
0.06
-0.07
-0.26
-0.41
-0.45
-0.38
-0.25
-0.15
-0.15
-0.27
-0.48
-0.73
-1.01
-1.29
-1.56
-1.83
-2.04
-2.16
-2.16
-2.06
-1.91
-1.74
-1.59
-1.44
-1.26
-1.04
-0.79
-0.51
-0.23
0.05
0.34
0.65
0.96
1.25
1.51
1.72
1.88
2.00
2.06
2.03
1.90
1.68
1.42
1.16
0.92
0.69
0.43
0.13
-0.16
-0.37
-0.40
-0.25
0.01
0.25
0.36
0.25
-0.02
-0.39
-0.72
-0.96
-1.08
-1.10
-1.01
-0.81
-0.48
-0.03
0.45
0.86
1.10
1.12
0.97
0.71
0.44
0.23
0.07
-0.05
-0.13
-0.20
-0.23
-0.22
-0.16
-0.06
0.09
0.25
0.39
0.50
0.53
0.48
0.33
0.11
-0.18
-0.50
-0.81
-1.06
-1.19
-1.15
-0.91
-0.49
0.01
0.45
0.72
0.75
0.56
0.26
-0.02
-0.14
-0.06
0.19
0.47
0.67
0.69
0.49
0.15
-0.25
-0.58
-0.77
-0.81
-0.72
-0.58
-0.44
-0.33
-0.23
-0.11
0.01
0.12
0.17
0.15
0.09
0.02
0.03
0.13
0.30
0.48
0.59
0.58
0.44
0.24
0.02
-0.13
-0.19
-0.19
-0.16
-0.17
-0.25
-0.42
-0.62
-0.78
-0.81
-0.70
-0.47
-0.19
0.04
0.18
0.23
0.27
0.36
0.55
0.81
1.07
1.19
1.13
0.89
0.56
0.26
0.06
-0.01
-0.02
-0.04
-0.14
-0.31
-0.53
-0.73
-0.87
-0.94
-0.94
-0.85
-0.68
-0.45
-0.20
0.01
0.13
0.17
0.17
0.19
0.29
0.43
0.57
0.62
0.56
0.42
0.29
0.22
0.22
0.22
0.16
0.01
-0.16
-0.27
-0.23
-0.05
0.19
0.36
0.38
0.25
0.07
-0.08
-0.12
-0.04
0.10
0.22
0.26
0.21
0.10
-0.05
-0.18
-0.29
-0.40
-0.55
-0.74
-0.95
-1.08
-1.04
-0.82
-0.49
-0.21
-0.13
-0.31
-0.62
-0.86
-0.82
-0.45
0.15
0.74
1.09
1.09
0.79
0.34
-0.09
-0.38
-0.51
-0.54
-0.48
-0.36
-0.18
0.06
0.31
0.53
0.69
0.79
0.86
0.91
0.93
0.90
0.79
0.60
0.40
0.23
0.12
0.07
0.04
0.03
0.05
0.12
0.25
0.38
0.43
0.36
0.19
0.02
-0.05
0.04
0.22
0.39
0.43
0.32
0.13
-0.02
-0.03
0.05
0.14
0.11
-0.08
-0.37
-0.64
-0.77
-0.72
-0.57
-0.42
-0.36
-0.38
-0.42
-0.37
-0.20
0.03
0.21
0.21
0.01
-0.29
-0.56
-0.66
-0.52
-0.22
0.10
0.30
0.31
0.16
-0.04
-0.17
-0.19
-0.11
-0.03
-0.00
-0.06
-0.16
-0.24
-0.24
-0.16
-0.03
0.09
0.16
0.21
0.26
0.37
0.54
0.73
0.89
0.95
0.87
0.66
0.36
0.04
-0.22
-0.37
-0.40
-0.36
-0.31
-0.30
-0.34
-0.42
-0.48
-0.50
-0.45
-0.33
-0.20
-0.08
-0.01
-0.01
-0.06
-0.16
-0.25
-0.27
-0.20
-0.04
0.17
0.36
0.52
0.62
0.66
0.63
0.51
0.32
0.11
-0.03
-0.04
0.12
0.39
0.68
0.88
0.91
0.74
0.41
-0.02
-0.44
-0.76
-0.91
-0.87
-0.66
-0.34
-0.01
0.27
0.45
0.51
0.47
0.33
0.15
-0.03
-0.16
-0.21
-0.18
-0.14
-0.15
-0.24
-0.39
-0.56
-0.70
-0.81
-0.91
-1.00
-1.06
-1.05
-0.89
-0.59
-0.21
0.16
0.40
0.49
0.50
0.49
0.54
0.67
0.83
0.95
0.97
0.84
0.56
0.18
-0.19
-0.45
-0.49
-0.31
0.02
0.37
0.60
0.62
0.46
0.21
-0.04
-0.24
-0.37
-0.47
-0.54
-0.56
-0.47
-0.28
-0.04
0.18
0.30
0.33
0.33
0.37
0.47
0.58
0.62
0.53
0.35
0.15
0.03
0.01
0.04
0.04
-0.04
-0.14
-0.21
-0.18
-0.07
0.04
0.06
-0.04
-0.25
-0.51
-0.76
-0.97
-1.10
-1.14
-1.06
-0.86
-0.56
-0.24
0.02
0.16
0.18
0.12
0.07
0.07
0.15
0.30
0.48
0.66
0.80
0.88
0.84
0.69
0.46
0.21
-0.00
-0.15
-0.24
-0.33
-0.44
-0.57
-0.69
-0.71
-0.60
-0.38
-0.10
0.15
0.28
0.27
0.15
-0.01
-0.13
-0.16
-0.11
-0.00
0.11
0.22
0.32
0.44
0.58
0.70
0.74
0.67
0.49
0.24
0.01
-0.14
-0.16
-0.04
0.19
0.48
0.74
0.85
0.71
0.31
-0.24
-0.78
-1.12
-1.17
-0.98
-0.71
-0.53
-0.50
-0.56
-0.58
-0.46
-0.21
0.08
0.25
0.26
0.16
0.06
0.05
0.14
0.28
0.37
0.39
0.38
0.38
0.45
0.55
0.63
0.62
0.48
0.21
-0.09
-0.35
-0.46
-0.38
-0.12
0.20
0.43
0.41
0.11
-0.40
-0.94
-1.29
-1.33
-1.10
-0.71
-0.32
0.00
0.23
0.41
0.53
0.61
0.60
0.52
0.42
0.38
0.44
0.56
0.68
0.69
0.57
0.33
0.07
-0.14
-0.23
-0.21
-0.13
-0.05
-0.02
-0.08
-0.24
-0.45
-0.65
-0.78
-0.77
-0.63
-0.38
-0.08
0.19
0.41
0.56
0.62
0.57
0.41
0.17
-0.08
-0.25
-0.24
-0.03
0.35
0.78
1.16
1.40
1.44
1.27
0.91
0.41
-0.15
-0.68
-1.07
-1.25
-1.21
-1.01
-0.74
-0.48
-0.27
-0.11
0.02
0.14
0.24
0.32
0.34
0.30
0.23
0.13
0.05
-0.00
-0.02
-0.03
-0.05
-0.13
-0.26
-0.44
-0.59
-0.67
-0.64
-0.51
-0.33
-0.14
0.03
0.19
0.34
0.49
0.57
0.50
0.24
-0.17
-0.62
-0.97
-1.10
-1.01
-0.76
-0.44
-0.12
0.16
0.44
0.71
0.93
1.02
0.91
0.61
0.19
-0.19
-0.41
-0.44
-0.32
-0.16
-0.03
0.02
-0.03
-0.21
-0.54
-1.02
-1.60
-2.15
-2.57
-2.79
-2.88
-2.97
-3.20
-3.63
-4.19
-4.77
-5.23
-5.54
-5.76
-6.03
-6.48
-7.19
-8.11
-9.13
-10.13
-11.00
-11.76
-12.52
-13.42
-14.54
-15.88
-17.34
-18.76
-20.09
-21.42
-23.03
-25.23
-28.24
-32.00
-36.22
-40.39
-44.10
-47.22
-50.03
-53.18
-57.35
-62.97
-69.92
-77.51
-84.70
-90.58
-94.83
-97.90
-100.98
-105.39
-112.19
-121.79
-134.09
-148.60
-164.48
-180.26
-193.51
-200.92
-198.94
-184.91
-158.14
-120.19
-74.14
-23.18
30.42
85.48
140.97
194.91
243.92
283.96
311.92
326.97
331.00
327.74
321.14
314.07
307.82
302.43
297.63
293.62
291.23
291.50
294.77
299.87
303.98
303.16
293.57
272.80
240.79
199.55
152.05
100.85
47.46
-7.22
-61.73
-113.05
-156.74
-188.37
-205.46
-208.72
-201.83
-189.83
-177.15
-166.16
-157.13
-149.05
-140.87
-132.27
-123.65
-115.69
-108.74
-102.62
-96.79
-90.69
-84.07
-77.08
-70.21
-63.95
-58.60
-54.11
-50.13
-46.22
-42.02
-37.47
-32.81
-28.42
-24.66
-21.69
-19.40
-17.49
-15.63
-13.61
-11.39
-9.12
-7.04
-5.39
-4.24
-3.56
-3.18
-2.89
-2.52
-1.99
-1.33
-0.65
-0.08
0.30
0.49
0.54
0.54
0.53
0.53
0.53
0.48
0.36
0.18
-0.05
-0.26
-0.38
-0.35
-0.14
0.24
0.76
1.33
1.85
2.24
2.46
2.53
2.51
2.46
2.43
2.44
2.49
2.61
2.80
3.07
3.43
3.84
4.27
4.68
5.10
5.53
6.00
6.47
6.83
6.94
6.66
5.86
4.53
2.76
0.70
-1.39
-3.28
-4.78
-5.81
-6.38
-6.59
-6.54
-6.32
-5.97
-5.54
-5.09
-4.70
-4.41
-4.24
-4.09
-3.88
-3.49
-2.88
-2.09
-1.23
-0.45
0.13
0.41
0.36
-0.01
-0.58
-1.22
-1.78
-2.15
-2.26
-2.11
-1.74
-1.23
-0.71
-0.31
-0.15
-0.25
-0.56
-0.95
-1.25
-1.36
-1.25
-0.97
-0.61
-0.24
0.08
0.34
0.57
0.77
0.95
1.10
1.23
1.32
1.38
1.37
1.32
1.21
1.07
0.90
0.68
0.41
0.07
-0.29
-0.62
-0.85
-0.92
-0.80
-0.57
-0.32
-0.15
-0.14
-0.30
-0.59
-0.91
-1.22
-1.46
-1.65
-1.81
-1.97
-2.17
-2.38
-2.59
-2.74
-2.78
-2.74
-2.67
-2.65
-2.72
-2.87
-3.00
-3.02
-2.85
-2.48
-1.95
-1.31
-0.60
0.15
0.87
1.51
1.97
2.20
2.18
1.96
1.61
1.22
0.83
0.45
0.05
-0.41
-0.93
-1.47
-1.91
-2.16
-2.17
-1.99
-1.72
-1.49
-1.37
-1.30
-1.19
-1.01
-0.78
-0.62
-0.57
-0.62
-0.63
-0.41
0.11
0.85
1.64
2.32
2.79
3.12
3.40
3.68
3.95
4.14
4.21
4.17
4.10
4.06
4.09
4.17
4.30
4.42
4.51
4.52
4.38
4.03
3.49
2.81
2.12
1.52
1.05
0.67
0.31
-0.11
-0.57
-1.02
-1.38
-1.59
-1.68
-1.71
-1.75
-1.87
-2.04
-2.21
-2.30
-2.29
-2.20
-2.11
-2.08
-2.12
-2.18
-2.19
-2.13
-1.98
-1.81
-1.65
-1.51
-1.37
-1.22
-1.05
-0.90
-0.81
-0.80
-0.84
-0.87
-0.85
-0.78
-0.75
-0.80
-0.98
-1.22
-1.42
-1.48
-1.36
-1.12
-0.84
-0.64
-0.52
-0.43
-0.28
-0.02
0.29
0.55
0.65
0.57
0.41
0.30
0.34
0.53
0.75
0.86
0.77
0.53
0.26
0.12
0.21
0.48
0.81
1.05
1.09
0.93
0.69
0.48
0.39
0.40
0.43
0.40
0.30
0.17
0.10
0.13
0.24
0.33
0.36
0.28
0.15
0.01
-0.09
-0.17
-0.25
-0.32
-0.36
-0.29
-0.09
0.25
0.62
0.91
1.04
0.96
0.73
0.44
0.18
-0.01
-0.13
-0.22
-0.32
-0.44
-0.53
-0.59
-0.61
-0.63
-0.67
-0.72
-0.77
-0.77
-0.67
-0.48
-0.24
0.02
0.25
0.39
0.44
0.37
0.22
0.06
-0.03
0.04
0.24
0.51
0.69
0.67
0.41
-0.00
-0.43
-0.72
-0.80
-0.68
-0.48
-0.30
-0.21
-0.25
-0.34
-0.44
-0.49
-0.51
-0.51
-0.51
-0.51
-0.47
-0.37
-0.21
-0.05
0.09
0.18
0.24
0.32
0.44
0.58
0.69
0.73
0.70
