1660933214.00
64.000000
-0.00
-0.00
-0.00
-0.00
-0.00
-0.00
-0.00
-0.00
-0.00
-0.00
0.00
0.01
0.01
-0.00
-0.03
-0.05
-0.05
0.00
0.13
0.36
0.66
1.01
1.37
1.72
2.06
2.40
2.79
3.25
3.81
4.44
5.10
5.73
6.32
6.89
7.51
8.25
9.15
10.29
11.56
12.82
13.96
14.93
15.82
16.82
18.17
20.00
22.52
25.51
28.66
31.67
34.40
36.99
39.80
43.30
47.79
53.60
60.32
67.36
74.14
80.40
86.32
92.54
99.83
108.68
119.50
131.58
143.96
155.74
166.51
176.60
186.96
199.11
211.70
226.66
244.17
263.99
284.80
303.96
317.67
321.86
313.50
291.61
258.08
216.04
169.19
120.58
72.08
24.61
-21.23
-64.74
-105.26
-142.22
-176.19
-208.49
-240.90
-274.92
-310.87
-347.26
-380.72
-406.83
-421.38
-422.09
-409.51
-386.89
-358.82
-329.56
-301.73
-276.01
-251.90
-228.62
-206.12
-184.99
-165.98
-149.33
-134.54
-120.64
-106.73
-92.45
-78.11
-64.58
-52.74
-43.09
-35.47
-29.22
-23.46
-17.48
-11.07
-4.45
1.82
7.20
11.36
14.33
16.42
18.03
19.51
21.04
22.58
23.97
25.02
25.63
25.87
25.87
25.80
25.74
25.68
25.52
25.17
24.60
23.88
23.12
22.41
21.76
21.15
20.49
19.75
18.92
18.03
17.17
16.42
15.86
15.53
15.41
15.43
15.43
15.26
14.84
14.15
13.34
12.56
11.97
11.62
11.50
11.49
11.49
11.39
11.16
10.81
10.41
10.06
9.80
9.66
9.62
9.65
9.69
9.72
9.70
9.60
9.40
9.06
8.59
8.02
7.40
6.81
6.28
5.85
5.49
5.16
4.84
4.52
4.23
3.96
3.71
3.42
3.06
2.61
2.09
1.56
1.10
0.72
0.44
0.22
0.01
-0.23
-0.51
-0.88
-1.33
-1.88
-2.51
-3.18
-3.85
-4.49
-5.09
-5.68
-6.28
-6.90
-7.55
-8.18
-8.77
-9.27
-9.64
-9.86
-9.89
-9.75
-9.46
-9.05
-8.54
-7.96
-7.35
-6.75
-6.20
-5.69
-5.18
-4.62
-3.98
-3.30
-2.65
-2.12
-1.73
-1.41
-1.06
-0.59
-0.02
0.58
1.07
1.40
1.58
1.67
1.76
1.93
2.16
2.44
2.72
2.94
3.09
3.14
3.11
3.02
2.93
2.87
2.88
2.97
3.15
3.42
3.75
4.08
4.35
4.50
4.55
4.55
4.58
4.66
4.74
4.71
4.51
4.12
3.66
3.26
3.03
2.99
3.08
3.17
3.20
3.14
3.06
3.03
3.12
3.34
3.65
3.99
4.26
4.40
4.39
4.24
4.00
3.69
3.37
3.08
2.84
2.69
2.64
2.71
2.88
3.13
3.43
3.72
3.92
3.93
3.73
3.34
2.84
2.33
1.93
1.68
1.61
1.66
1.76
1.84
1.83
1.73
1.53
1.32
1.14
1.05
1.04
1.04
0.98
0.82
0.57
0.31
0.14
0.14
0.32
0.64
1.01
1.34
1.53
1.54
1.36
1.06
0.72
0.45
0.34
0.42
0.63
0.88
1.08
1.13
1.03
0.84
0.65
0.59
0.72
1.04
1.47
1.90
2.19
2.27
2.13
1.81
1.42
1.07
0.84
0.78
0.83
0.92
0.96
0.95
0.92
0.91
0.97
1.08
1.17
1.16
1.03
0.85
0.71
0.70
0.82
0.99
1.07
0.99
0.79
0.58
0.52
0.67
0.95
1.21
1.28
1.09
0.73
0.34
0.06
-0.05
-0.06
-0.03
0.01
0.11
0.32
0.67
1.08
1.43
1.61
1.57
1.36
1.05
0.72
0.40
0.12
-0.12
-0.27
-0.28
-0.13
0.19
0.59
0.99
1.27
1.39
1.37
1.29
1.25
1.28
1.38
1.45
1.41
1.20
0.85
0.47
0.15
-0.02
-0.04
0.04
0.14
0.19
0.17
0.07
-0.07
-0.21
-0.33
-0.40
-0.43
-0.42
-0.36
-0.24
-0.08
0.12
0.32
0.47
0.58
0.62
0.61
0.55
0.46
0.35
0.26
0.20
0.20
0.25
0.35
0.47
0.57
0.62
0.60
0.51
0.39
0.27
0.20
0.22
0.35
0.56
0.80
1.02
1.17
1.20
1.09
0.86
0.53
0.18
-0.13
-0.38
-0.54
-0.63
-0.64
-0.55
-0.37
-0.09
0.23
0.52
0.73
0.80
0.77
0.66
0.53
0.40
0.30
0.25
0.22
0.24
0.28
0.34
0.40
0.43
0.41
0.32
0.19
0.09
0.05
0.12
0.25
0.35
0.37
0.28
0.14
0.03
0.02
0.10
0.22
0.32
0.34
0.29
0.18
0.05
-0.11
-0.29
-0.47
-0.64
-0.77
-0.85
-0.89
-0.90
-0.91
-0.93
-0.97
-1.02
-1.08
-1.12
-1.13
-1.12
-1.09
-1.06
-0.99
-0.82
-0.47
0.09
0.79
1.47
1.95
2.12
1.96
1.62
1.26
1.00
0.84
0.74
0.65
0.55
0.52
0.62
0.85
1.15
1.41
1.54
1.52
1.42
1.29
1.20
1.13
1.06
0.95
0.82
0.69
0.60
0.56
0.54
0.50
0.43
0.33
0.23
0.13
0.03
-0.07
-0.15
-0.20
-0.22
-0.25
-0.35
-0.55
-0.82
-1.08
-1.27
-1.39
-1.54
-1.86
-2.41
-3.11
-3.78
-4.21
-4.33
-4.21
-4.08
-4.18
-4.61
-5.32
-6.18
-7.05
-7.94
-9.00
-10.40
-12.28
-14.60
-17.19
-19.82
-22.27
-24.44
-26.39
-28.32
-30.57
-33.48
-37.33
-42.16
-47.78
-53.72
-59.48
-64.68
-69.28
-73.60
-78.10
-83.16
-88.80
-94.70
-100.34
-105.30
-109.48
-113.29
-117.41
-122.63
-129.53
-138.36
-148.90
-160.37
-171.30
-179.55
-182.45
-177.45
-162.88
-138.49
-105.58
-66.30
-22.70
24.18
74.28
127.63
183.07
237.53
286.43
325.25
351.44
365.53
370.89
372.08
373.03
375.68
379.92
384.22
386.65
385.42
378.98
365.95
345.18
316.17
279.35
236.16
188.41
137.62
84.65
30.03
-25.13
-78.36
-125.91
-163.71
-188.90
-201.03
-202.23
-196.20
-186.72
-176.36
-166.06
-155.68
-144.98
-134.32
-124.62
-116.81
-111.15
-106.98
-103.04
-98.14
-91.73
-84.12
-76.31
-69.41
-64.14
-60.55
-58.04
-55.66
-52.56
-48.30
-43.04
-37.38
-32.13
-27.93
-25.10
-23.46
-22.51
-21.59
-20.13
-17.87
-15.04
-12.19
-10.07
-9.22
-9.69
-10.99
-12.27
-12.66
-11.74
-9.71
-7.32
-5.60
-5.32
-6.66
-9.08
-11.51
-12.80
-12.24
-9.90
-6.55
-3.27
-1.02
-0.20
-0.68
-2.04
-3.63
-4.36
-2.48
4.00
16.22
33.21
51.27
64.90
69.09
61.71
44.82
23.75
4.67
-8.14
-13.71
-13.89
-11.56
-8.79
-6.18
-3.33
0.08
3.52
5.79
5.72
2.93
-1.91
-7.32
-11.62
-13.74
-13.51
-11.62
-9.27
-7.56
-7.05
-7.62
-8.59
-9.17
-8.81
-7.48
-5.60
-3.81
-2.69
-2.46
-3.00
-3.87
-4.61
-4.90
-4.65
-4.00
-3.21
-2.55
-2.18
-2.13
-2.30
-2.54
-2.71
-2.76
-2.69
-2.53
-2.30
-1.92
-1.23
-0.07
1.61
3.68
5.83
7.62
8.67
8.78
8.02
6.67
5.07
3.48
2.07
0.82
-0.28
-1.25
-2.03
-2.54
-2.72
-2.59
-2.24
-1.78
-1.32
-0.92
-0.64
-0.51
-0.58
-0.85
-1.27
-1.74
-2.10
-2.22
-2.05
-1.60
-0.97
-0.30
0.27
0.62
0.72
0.61
0.49
0.58
1.04
1.91
2.98
3.89
4.23
3.79
2.62
1.05
-0.49
-1.64
-2.23
-2.34
-2.16
-1.90
-1.70
-1.58
-1.53
-1.52
-1.55
-1.62
-1.78
-2.01
-2.27
-2.46
-2.50
-2.33
-2.00
-1.65
-1.42
-1.40
-1.56
-1.73
-1.72
-1.38
-0.65
0.43
1.81
3.40
5.07
6.63
7.79
8.22
7.74
6.34
4.31
2.12
0.23
-1.03
-1.60
-1.65
-1.42
-1.13
-0.87
-0.62
-0.32
0.02
0.30
0.36
0.09
-0.53
-1.40
-2.28
-2.93
-3.17
-2.98
-2.49
-1.91
-1.47
-1.29
-1.33
-1.41
-1.33
-0.94
-0.26
0.57
1.32
1.76
1.77
1.38
0.74
0.05
-0.47
-0.65
-0.47
0.01
0.61
1.13
1.40
1.38
1.10
0.67
0.19
-0.32
-0.89
-1.56
-2.34
-3.14
-3.78
-4.04
-3.85
-3.27
-2.57
-2.05
-1.94
-2.20
-2.62
-2.87
-2.73
-2.10
-1.06
0.30
1.90
3.72
5.65
7.46
8.74
9.13
8.46
6.91
4.96
3.18
1.94
1.30
1.03
0.80
0.41
-0.11
-0.54
-0.67
-0.46
-0.06
0.22
0.12
-0.46
-1.42
-2.48
-3.38
-3.94
-4.13
-4.01
-3.68
-3.24
-2.72
-2.11
-1.43
-0.72
-0.07
0.40
0.67
0.76
0.79
0.90
1.15
1.51
1.84
1.99
1.86
1.47
0.92
0.35
-0.19
-0.72
-1.31
-1.97
-2.65
-3.17
-3.41
-3.28
-2.91
-2.50
-2.31
-2.47
-2.93
-3.48
-3.87
-3.94
-3.71
-3.33
-2.99
-2.80
-2.71
-2.53
-2.04
-1.03
0.60
2.88
5.72
8.84
11.83
14.12
15.16
14.64
12.64
9.66
6.44
3.66
1.73
0.65
0.17
-0.05
-0.27
-0.59
-1.01
-1.50
-2.03
-2.62
-3.22
-3.79
-4.23
-4.46
-4.47
-4.28
-3.97
-3.62
-3.31
-3.10
-3.00
-3.01
-3.05
-3.04
-2.89
-2.50
-1.79
-0.77
0.50
1.81
2.88
3.44
3.31
2.51
1.31
0.07
-0.87
-1.33
-1.33
-1.06
-0.71
-0.39
-0.11
0.21
0.61
1.02
1.26
1.16
0.61
-0.30
-1.36
-2.26
-2.75
-2.79
-2.50
-2.14
-1.92
-1.92
-2.06
-2.17
-2.08
-1.68
-0.93
0.21
1.78
3.80
6.15
8.47
10.25
10.96
10.28
8.30
5.43
2.37
-0.24
-1.95
-2.71
-2.75
-2.44
-2.13
-1.95
-1.87
-1.72
-1.38
-0.85
-0.29
0.11
0.27
0.24
0.19
0.27
0.51
0.77
0.84
0.56
-0.08
-0.92
-1.69
-2.18
-2.31
-2.12
-1.73
-1.25
-0.71
-0.10
0.57
1.23
1.74
1.96
1.82
1.33
0.66
-0.00
-0.48
-0.70
-0.70
-0.62
-0.64
-0.91
-1.54
-2.51
-3.68
-4.81
-5.62
-5.89
-5.57
-4.88
-4.24
-4.13
-4.87
-6.39
-8.18
-9.48
-9.63
-8.50
-6.67
-5.23
-5.34
-7.58
-11.57
-16.05
-19.39
-20.36
-18.80
-15.72
-13.00
-12.46
-15.02
-20.17
-26.15
-30.60
-31.67
-28.89
-23.49
-17.86
-14.83
-16.52
-23.50
-34.43
-46.16
-53.97
-52.33
-36.24
-3.01
45.64
102.60
156.30
194.04
206.54
191.58
154.85
107.31
60.63
22.89
-3.19
-19.08
-27.76
-31.22
-30.00
-24.21
-15.07
-5.51
0.88
1.53
-3.75
-12.76
-21.92
-28.14
-29.96
-27.95
-23.99
-20.30
-18.34
-18.30
-19.31
-20.03
-19.45
-17.34
-14.37
-11.71
-10.47
-11.13
-13.37
-16.09
-17.92
-17.75
-15.22
-10.87
-5.78
-1.02
2.93
6.31
9.79
13.87
18.35
22.29
24.42
23.83
20.52
15.37
9.76
4.87
1.37
-0.79
-2.01
-2.74
-3.28
-3.72
-4.10
-4.47
-5.00
-5.87
-7.19
-8.91
-10.83
-12.63
-14.06
-14.98
-15.47
-15.74
-16.00
-16.41
-16.93
-17.46
-17.88
-18.18
-18.57
-19.39
-21.03
-23.67
-27.10
-30.66
-33.38
-34.42
-33.53
-31.24
-28.84
-27.81
-29.19
-33.19
-39.16
-45.99
-52.78
-59.27
-65.89
-73.26
-81.71
-90.84
-99.69
-107.17
-112.69
-116.47
-119.51
-123.21
-128.72
-136.63
-146.87
-159.02
-172.42
-186.16
-198.80
-208.16
-211.52
-206.30
-190.97
-165.65
-132.05
-92.62
-49.45
-3.65
44.41
93.98
142.87
187.21
222.37
244.80
253.51
250.61
240.29
227.05
213.84
201.23
187.89
171.96
152.54
130.36
107.46
86.14
67.99
53.44
42.16
33.78
28.32
26.31
28.14
33.44
40.87
48.50
54.60
58.35
60.05
60.72
61.47
62.92
65.17
67.96
71.11
74.63
78.66
83.28
88.29
93.17
97.28
100.08
101.47
101.79
101.79
102.32
103.98
106.90
110.69
114.59
117.88
120.22
121.97
124.13
128.07
135.04
145.77
160.17
177.15
194.69
209.99
219.91
221.63
213.37
194.86
167.34
133.09
94.44
52.94
9.03
-37.39
-85.83
-134.21
-178.71
-214.76
-238.69
-249.22
-247.93
-238.50
-225.10
-210.87
-197.20
-184.10
-171.15
-158.35
-146.38
-136.16
-128.15
-121.96
-116.48
-110.46
-103.12
-94.51
-85.37
-76.79
-69.57
-63.95
-59.54
-55.57
-51.29
-46.35
-40.96
-35.75
-31.44
-28.48
-26.85
-26.11
-25.56
-24.62
-23.03
-20.93
-18.72
-16.79
-15.38
-14.45
-13.77
-13.10
-12.28
-11.39
-10.67
-10.43
-10.90
-12.11
-13.89
-15.91
-17.82
-19.38
-20.60
-21.70
-23.13
-25.30
-28.46
-32.52
-37.04
-41.37
-44.94
-47.51
-49.40
-51.42
-54.50
-59.27
-65.56
-72.36
-78.18
-81.69
-82.43
-81.15
-79.50
-79.38
-82.12
-88.17
-97.03
-107.48
-117.65
-124.93
-126.17
-118.60
-101.19
-75.69
-46.32
-18.05
5.72
24.64
40.98
57.57
75.47
92.70
105.02
108.12
99.74
80.79
55.13
28.40
6.58
-5.39
-4.84
7.77
28.67
51.97
71.62
83.64
87.26
84.27
77.27
68.10
57.36
45.33
33.26
23.66
19.26
21.34
28.65
37.90
45.53
49.56
50.46
50.47
51.98
56.01
61.80
67.44
71.17
72.18
70.78
67.82
64.10
60.12
56.08
52.17
48.55
45.42
42.81
40.50
38.19
35.54
32.45
29.04
25.69
22.88
21.00
20.24
20.52
21.46
22.49
22.94
22.07
19.27
14.08
6.42
-3.36
-14.47
-25.75
-36.04
-44.40
-50.28
-53.45
-53.82
-51.22
-45.45
-36.54
-25.05
-12.16
0.56
11.64
20.22
26.25
30.33
33.30
35.69
37.55
38.66
38.87
38.43
38.07
38.73
41.09
45.29
50.76
56.48
61.40
64.89
67.04
68.62
70.75
74.38
79.79
86.35
92.67
97.03
98.12
95.74
91.07
86.51
85.03
89.22
100.23
116.98
136.00
152.17
160.25
156.67
140.86
115.58
86.18
58.97
39.23
29.61
29.33
34.33
38.46
35.30
20.12
-8.49
-47.99
-92.58
-135.09
-169.18
-191.18
-200.64
-199.63
-191.35
-178.95
-164.81
-150.59
-137.50
-126.41
-117.84
-111.70
-107.21
-103.13
-98.27
-92.03
-84.62
-76.95
-70.05
-64.66
-60.84
-58.00
-55.23
-51.76
-47.20
-41.70
-35.86
-30.39
-25.94
-22.82
-20.89
-19.65
-18.43
-16.63
-14.08
-11.11
-8.43
-6.67
-6.01
-6.07
-6.16
-5.69
-4.50
-2.93
-1.45
-0.33
0.56
1.58
3.01
4.75
6.36
7.35
7.50
6.95
6.16
5.54
5.27
5.30
5.41
5.43
5.28
4.97
4.56
4.06
3.47
2.79
2.08
1.41
0.84
0.41
0.11
-0.14
-0.38
-0.62
-0.84
-0.99
-1.05
-1.03
-0.98
-0.91
-0.81
-0.60
-0.24
0.26
0.82
1.31
1.62
1.70
1.60
1.44
1.30
1.21
1.12
0.97
0.73
0.43
0.18
0.12
0.31
0.78
1.39
