1660753199.00
64.000000
-0.00
-0.00
-0.00
-0.00
-0.00
-0.00
-0.00
-0.00
-0.00
-0.00
0.00
0.01
0.01
-0.00
-0.03
-0.05
-0.05
0.00
0.13
0.36
0.66
1.01
1.37
1.72
2.06
2.40
2.79
3.24
3.80
4.42
5.06
5.66
6.20
6.68
7.15
7.68
8.31
9.14
10.09
11.04
11.88
12.56
13.14
13.76
14.65
15.96
17.91
20.32
22.90
25.38
27.58
29.57
31.68
34.32
37.81
42.54
48.15
54.10
59.83
64.97
69.58
74.14
79.34
85.71
93.76
103.00
112.62
121.73
129.77
136.75
143.30
150.75
157.77
166.64
177.95
191.79
206.97
220.57
228.25
225.36
208.53
176.87
132.76
80.05
23.07
-34.94
-92.44
-149.16
-205.23
-260.37
-313.74
-363.87
-409.83
-450.91
-486.50
-515.74
-537.23
-549.22
-549.96
-538.37
-514.21
-478.67
-433.88
-382.45
-327.02
-269.84
-212.63
-156.66
-102.95
-52.37
-5.90
35.58
71.43
101.35
125.50
144.38
158.69
169.15
176.37
180.75
182.57
182.07
179.51
175.23
169.65
163.18
156.15
148.81
141.30
133.69
126.02
118.33
110.69
103.16
95.80
88.68
81.83
75.25
68.95
62.95
57.25
51.86
46.78
42.03
37.59
33.45
29.61
26.07
22.81
19.83
17.11
14.67
12.48
10.54
8.83
7.35
6.07
4.97
4.05
3.27
2.62
2.09
1.65
1.30
1.01
0.79
0.61
0.47
0.37
0.29
0.23
0.19
0.16
0.14
0.14
0.15
0.16
0.18
0.20
0.23
0.27
0.31
0.35
0.39
0.43
0.48
0.52
0.57
0.62
0.68
0.74
0.80
0.87
0.95
1.03
1.13
1.23
1.35
1.48
1.63
1.79
1.97
2.18
2.40
2.64
2.91
3.21
3.53
3.89
4.30
4.76
5.25
5.76
6.26
6.73
7.17
7.64
8.16
8.81
9.57
10.45
11.36
12.25
13.08
13.87
14.67
15.55
16.55
17.70
18.90
20.02
20.87
21.31
21.26
20.69
19.67
18.23
16.35
13.91
10.74
6.67
1.74
-3.80
-9.46
-14.64
-18.82
-21.82
-23.83
-25.38
-27.08
-29.32
-32.07
-34.84
-36.92
-37.73
-37.20
-35.86
-34.70
-34.69
-36.34
-39.47
-43.15
-46.17
-47.66
-47.46
-46.20
-44.92
-44.59
-45.74
-48.68
-53.40
-59.58
-66.24
-71.27
-71.43
-63.40
-45.46
-19.02
10.97
37.90
56.36
64.50
64.69
62.14
62.17
67.76
78.99
93.74
110.19
127.73
146.20
164.16
177.69
181.05
168.88
139.03
93.63
39.34
-14.89
-60.84
-93.23
-110.69
-115.30
-111.45
-101.06
-87.95
-75.54
-65.96
-59.70
-55.86
-52.83
-49.07
-43.70
-36.59
-28.93
-22.32
-18.64
-19.56
-25.90
-36.76
-49.21
-58.84
-61.14
-53.62
-36.54
-13.22
10.85
29.83
39.53
38.71
29.34
15.55
1.68
-9.05
-15.55
-18.79
-20.77
-23.21
-26.46
-29.34
-29.80
-26.18
-18.06
-6.69
5.48
15.87
22.90
26.55
28.14
29.36
31.15
33.20
34.23
32.86
28.69
22.67
16.83
13.27
13.09
15.89
19.96
23.24
24.27
22.76
19.59
16.09
13.35
11.63
10.42
8.90
6.47
3.04
-1.04
-5.23
-9.13
-12.44
-14.90
-16.21
-16.01
-14.12
-10.80
-6.75
-2.89
0.06
1.85
2.82
3.48
4.16
4.79
5.03
4.53
3.26
1.48
-0.30
-1.60
-2.04
-1.33
0.75
4.25
8.92
14.15
18.95
22.26
23.32
21.91
18.38
13.46
7.96
2.56
-2.17
-5.68
-7.47
-7.18
-4.87
-1.22
2.53
4.84
4.51
1.17
-4.39
-10.48
-15.12
-16.80
-15.09
-10.74
-5.32
-0.57
2.29
2.91
1.81
0.04
-1.38
-1.85
-1.44
-0.69
-0.17
-0.10
-0.18
0.26
1.73
4.20
7.00
9.19
10.07
9.55
8.13
6.61
5.60
5.31
5.54
5.89
6.04
5.83
5.30
4.58
3.69
2.56
1.09
-0.82
-3.10
-5.50
-7.64
-9.12
-9.64
-9.06
-7.47
-5.13
-2.41
0.27
2.54
4.18
5.24
5.96
6.70
7.67
8.82
9.82
10.30
10.03
9.06
7.67
6.17
4.80
3.66
2.74
2.01
1.42
0.88
0.26
-0.58
-1.69
-3.03
-4.49
-5.94
-7.27
-8.39
-9.18
-9.51
-9.33
-8.74
-7.99
-7.41
-7.23
-7.47
-7.92
-8.20
-7.97
-7.04
-5.43
-3.36
-1.13
0.99
2.84
4.37
5.65
6.78
7.83
8.75
9.32
9.31
8.59
7.31
5.93
4.98
4.87
5.62
6.78
7.67
7.72
6.72
4.89
2.72
0.64
-1.13
-2.65
-4.02
-5.22
-6.06
-6.30
-5.89
-5.06
-4.24
-3.90
-4.27
-5.21
-6.27
-6.90
-6.69
-5.55
-3.74
-1.70
0.15
1.61
2.76
3.76
4.78
5.84
6.81
7.53
7.90
7.93
7.75
7.49
7.21
6.95
6.64
6.23
5.68
4.96
4.08
3.14
2.25
1.48
0.81
0.11
-0.76
-1.89
-3.17
-4.37
-5.33
-5.99
-6.50
-7.07
-7.90
-8.92
-9.87
-10.37
-10.07
-8.87
-6.92
-4.56
-2.11
0.23
2.43
4.55
6.57
8.33
9.60
10.12
9.88
9.07
8.04
7.11
6.39
5.80
5.11
4.19
3.08
2.01
1.24
0.87
0.74
0.53
0.01
-0.87
-1.84
-2.50
-2.60
-2.27
-2.03
-2.44
-3.83
-6.01
-8.40
-10.26
-11.06
-10.68
-9.37
-7.53
-5.48
-3.41
-1.32
0.81
2.96
4.98
6.65
7.77
8.20
7.94
7.11
5.89
4.39
2.63
0.60
-1.61
-3.72
-5.29
-5.81
-4.98
-2.77
0.46
4.15
7.65
10.37
11.74
11.25
8.47
3.32
-3.59
-10.93
-16.84
-19.61
-18.36
-13.53
-6.67
0.10
4.95
6.98
6.36
3.97
0.99
-1.59
-3.17
-3.45
-2.40
-0.25
2.52
5.19
7.01
7.48
6.54
4.66
2.56
0.88
-0.11
-0.62
-1.03
-1.61
-2.25
-2.53
-2.12
-1.01
0.33
1.20
1.07
-0.18
-2.16
-4.32
-6.16
-7.48
-8.36
-9.00
-9.48
-9.69
-9.42
-8.47
-6.87
-4.91
-2.97
-1.42
-0.34
0.44
1.27
2.39
3.80
5.21
6.24
6.59
6.29
5.61
4.92
4.44
4.20
4.01
3.70
3.19
2.53
1.84
1.20
0.61
0.00
-0.66
-1.29
-1.78
-1.99
-2.01
-2.06
-2.43
-3.30
-4.53
-5.76
-6.54
-6.52
-5.65
-4.11
-2.25
-0.33
1.46
3.08
4.51
5.67
6.50
6.91
6.87
6.40
5.65
4.80
4.06
3.52
3.23
3.15
3.23
3.47
3.85
4.32
4.71
4.76
4.32
3.36
2.11
0.97
0.29
0.14
0.26
0.23
-0.31
-1.45
-2.98
-4.50
-5.68
-6.36
-6.56
-6.40
-5.94
-5.11
-3.79
-1.94
0.27
2.45
4.14
4.96
4.81
3.90
2.63
1.47
0.75
0.60
0.92
1.46
1.96
2.21
2.14
1.82
1.41
1.06
0.85
0.71
0.52
0.20
-0.26
-0.86
-1.58
-2.43
-3.48
-4.76
-6.22
-7.66
-8.76
-9.12
-8.45
-6.61
-3.75
-0.27
3.26
6.30
8.46
9.65
10.01
9.77
9.09
8.02
6.56
4.83
3.11
1.78
1.08
1.00
1.23
1.33
0.96
0.07
-1.10
-2.20
-2.93
-3.20
-3.12
-2.94
-2.91
-3.16
-3.67
-4.35
-5.02
-5.59
-6.04
-6.38
-6.63
-6.74
-6.58
-6.08
-5.22
-4.06
-2.80
-1.63
-0.72
-0.23
-0.19
-0.57
-1.27
-2.13
-2.94
-3.53
-3.84
-3.96
-4.02
-4.20
-4.57
-5.05
-5.48
-5.63
-5.32
-4.38
-2.80
-0.83
0.94
1.68
0.59
-2.66
-7.60
-12.96
-17.00
-18.07
-15.26
-8.77
0.30
10.39
20.32
29.72
38.96
48.57
58.54
67.96
75.32
79.29
79.45
76.51
71.93
66.94
61.88
56.16
48.93
39.98
30.26
21.55
15.57
12.86
12.39
11.92
8.98
2.14
-8.25
-20.29
-31.46
-39.93
-45.41
-49.08
-52.82
-57.92
-64.33
-70.69
-75.17
-76.51
-74.73
-70.95
-66.76
-63.41
-61.34
-60.30
-59.89
-59.98
-60.83
-62.79
-65.83
-69.47
-73.12
-76.66
-80.62
-85.72
-91.98
-97.73
-99.79
-94.42
-79.11
-53.98
-22.14
11.24
40.59
61.55
71.93
71.74
62.74
47.74
29.99
12.54
-2.23
-13.10
-20.19
-24.68
-28.34
-32.98
-39.99
-49.96
-62.64
-76.96
-91.30
-104.14
-114.62
-122.87
-129.62
-135.39
-139.51
-139.74
-132.93
-115.88
-86.50
-44.16
10.41
75.12
146.45
219.27
287.11
343.35
383.00
404.13
408.21
398.95
380.44
355.42
324.99
289.25
248.33
202.89
153.99
102.74
50.35
-1.35
-49.43
-90.01
-119.26
-134.75
-136.22
-125.58
-106.15
-81.70
-55.95
-32.41
-14.45
-5.08
-6.32
-18.36
-39.07
-64.17
-88.05
-105.22
-111.72
-106.32
-90.88
-69.74
-48.43
-31.95
-23.40
-23.27
-29.77
-39.74
-49.90
-57.66
-61.74
-62.17
-60.16
-57.66
-56.71
-58.63
-63.28
-68.87
-72.43
-70.86
-62.19
-46.35
-25.23
-1.93
20.10
37.97
49.71
54.40
52.06
43.74
31.39
17.72
5.63
-2.56
-5.77
-4.50
-0.55
3.72
6.24
5.79
2.04
-4.79
-14.30
-26.15
-39.85
-54.53
-68.85
-81.30
-90.74
-97.04
-101.20
-105.03
-110.31
-118.02
-127.95
-138.93
-149.54
-158.73
-166.31
-172.84
-179.20
-186.11
-193.79
-202.18
-211.11
-220.53
-230.35
-239.96
-248.03
-252.71
-252.65
-247.95
-240.52
-233.33
-228.82
-227.39
-227.05
-224.31
-215.90
-200.24
-177.72
-149.75
-117.42
-80.69
-38.62
9.55
63.15
119.51
174.27
222.71
261.49
289.98
310.74
328.89
350.29
379.17
416.23
458.07
498.24
529.65
547.04
548.65
536.42
514.77
488.79
462.76
439.41
420.08
405.09
393.79
384.92
376.75
367.25
354.47
337.03
314.34
286.71
255.44
222.33
190.00
161.72
140.99
130.32
130.23
138.82
152.29
166.46
177.26
182.46
182.27
178.73
174.23
170.01
166.01
161.33
155.61
147.36
135.56
120.53
103.88
87.36
71.77
57.07
42.77
29.45
14.99
-2.88
-24.88
-49.59
-74.75
-98.97
-121.96
-144.55
-166.54
-192.05
-225.66
-269.68
-322.86
-382.14
-444.90
-509.60
-576.23
-624.64
-636.46
-606.68
-548.29
-480.04
-414.22
-354.95
-301.45
-260.71
-225.90
-195.52
-170.50
-151.19
-136.02
-122.96
-111.62
-97.27
-79.78
-58.12
-35.37
-15.11
0.45
11.18
17.90
21.28
22.03
20.69
20.24
21.32
23.82
27.36
31.90
37.55
44.49
53.10
62.96
73.81
82.61
85.29
78.91
63.63
43.07
23.00
9.03
3.99
7.84
17.17
27.55
35.72
40.70
43.39
45.19
46.83
47.71
46.72
42.76
35.75
26.92
18.55
13.07
12.13
16.16
24.36
35.30
47.65
60.59
73.85
87.56
101.94
117.16
133.18
149.60
165.42
178.99
188.25
191.30
187.16
176.09
159.65
140.03
119.25
98.66
78.78
59.64
41.17
23.44
6.44
-10.13
-27.11
-45.74
-67.44
-93.23
-123.24
-156.53
-190.95
-223.85
-252.78
-276.16
-293.49
-305.04
-311.17
-311.86
-306.75
-295.60
-278.88
-258.05
-235.14
-212.21
-190.74
-171.46
-154.55
-139.97
-127.53
-116.87
-107.33
-98.26
-89.33
-80.77
-73.29
-67.54
-63.52
-60.31
-56.39
-50.38
-41.74
-31.11
-19.80
-9.14
0.21
8.42
16.12
23.77
31.29
38.01
43.16
46.28
47.44
47.07
45.63
43.42
40.59
37.48
34.59
32.42
30.90
29.05
25.11
17.31
4.90
-11.18
-28.37
-43.39
-53.48
-57.28
-55.10
-48.44
-39.40
-30.08
-22.45
-18.44
-19.74
-27.50
-41.66
-60.39
-80.00
-95.76
-103.35
-100.45
-87.68
-68.30
-47.02
-28.06
-13.90
-4.79
0.66
4.35
7.89
12.32
18.45
27.14
39.28
55.33
74.65
95.26
114.23
128.61
136.51
137.83
134.18
128.21
122.45
118.25
115.30
112.07
106.76
98.51
88.10
77.67
69.78
66.00
66.05
67.79
68.20
64.65
55.98
42.74
26.73
10.11
-5.22
-17.92
-26.94
-31.28
-30.08
-23.03
-10.87
4.30
19.46
31.57
38.60
40.35
38.45
35.64
34.65
37.09
42.92
50.66
58.34
64.54
69.15
73.18
77.94
84.04
90.65
95.61
96.15
89.70
74.75
51.33
21.47
-10.91
-40.60
-62.67
-74.20
-75.69
-71.00
-65.63
-64.21
-68.57
-77.43
-87.75
-96.73
-102.96
-106.04
-105.53
-100.09
-88.13
-69.53
-47.07
-26.23
-13.10
-11.30
-19.98
-33.89
-45.94
-50.56
-46.15
-35.08
-21.69
-9.63
-0.09
8.07
16.77
27.02
38.14
48.30
55.76
59.73
60.24
57.38
50.82
40.16
26.03
11.10
-0.08
-2.59
6.43
25.99
50.91
73.45
86.21
84.80
69.48
44.85
18.21
-3.11
-14.14
-13.62
-4.05
9.77
22.79
31.77
36.17
37.76
39.06
41.64
45.27
48.35
49.26
47.75
45.48
45.16
48.97
57.02
67.15
75.80
79.70
77.28
68.88
55.88
39.40
19.67
-3.34
-28.60
-53.03
-72.07
-81.58
-80.21
-70.49
-58.04
-48.97
-47.22
-53.23
-64.49
-77.23
-88.06
-94.54
-94.97
-88.18
-73.90
-53.58
-30.91
-11.09
1.02
3.04
-3.95
-15.97
-27.95
-35.70
-37.04
-31.73
-20.74
-5.59
11.93
29.62
44.93
55.63
60.59
60.46
57.27
53.22
49.07
43.58
34.38
20.10
2.26
-14.35
-23.53
-20.88
-6.46
14.44
33.32
42.27
37.49
21.06
-0.14
-17.53
-24.47
-18.63
-2.38
18.88
39.45
55.58
66.36
72.97
76.94
78.73
77.58
72.65
64.37
55.16
48.51
47.22
51.73
59.81
67.61
71.59
69.64
61.27
46.97
27.72
5.39
-16.71
-34.08
-42.55
-40.74
-31.69
-22.31
-20.36
-30.73
-52.85
-81.05
-107.29
-124.58
-129.21
-120.90
-101.70
-74.92
-44.90
-17.18
2.00
7.49
-2.36
-24.22
-50.45
-72.07
-82.26
-78.96
-64.76
-44.82
-24.03
-5.22
10.86
24.35
35.05
42.11
44.82
43.69
40.78
38.84
39.71
43.10
46.82
48.32
46.69
43.69
42.95
47.79
58.95
73.44
85.52
89.20
81.08
62.05
37.09
13.30
-2.86
-7.89
-2.16
10.65
25.33
37.13
43.21
43.07
37.98
29.95
20.80
11.88
4.31
-0.73
-2.03
1.12
8.40
18.27
28.50
36.97
42.52
45.19
45.77
44.95
42.57
37.41
27.72
12.31
-8.29
-31.32
-52.26
-66.26
-70.04
-63.32
-49.15
-32.80
-19.73
-13.59
-15.10
-22.47
-32.69
-43.03
-51.82
-58.17
-61.35
-60.45
-54.84
-45.18
-34.15
-26.10
-25.38
-34.16
-50.92
-70.55
-86.38
-92.99
-88.57
-75.44
-58.70
-43.70
-33.59
-28.32
-25.20
-20.74
-12.48
0.09
15.58
31.58
45.50
55.05
58.31
54.00
42.08
24.60
5.96
-7.75
-10.66
0.54
24.78
56.48
87.16
108.30
114.13
103.37
79.20
47.88
16.68
-8.04
-22.15
-24.16
-15.20
1.55
21.50
39.58
51.24
53.55
45.89
30.14
10.16
-9.35
-24.24
-32.02
-32.34
-26.74
-17.83
-8.17
0.57
7.91
14.26
20.16
25.62
29.95
32.21
32.02
30.06
27.98
27.68
30.35
35.91
42.88
48.81
50.93
46.82
35.10
16.14
-7.66
-31.96
-51.63
-62.44
-62.77
-54.29
-41.42
-29.29
-21.79
-20.25
-23.49
-29.04
-34.51
-38.60
-41.02
-41.92
-41.26
-38.66
-33.91
-27.63
-21.63
-18.42
-20.20
-27.72
-39.72
-53.23
-64.54
-70.54
-69.61
-62.04
-49.76
-35.78
-23.25
-14.68
-11.13
-12.08
-15.70
-19.70
-22.22
-22.44
-20.73
-18.33
-16.85
-17.79
-22.11
-29.77
-39.45
-48.74
-54.97
-56.31
-52.57
-45.18
-36.12
-26.59
-16.16
-3.37
12.97
32.41
52.64
70.46
83.37
90.77
94.03
95.63
97.70
101.09
105.23
108.55
109.32
106.32
99.29
88.98
76.84
64.43
52.77
42.05
31.74
21.25
10.67
0.96
-6.38
-10.30
-10.97
-9.88
-9.18
-10.48
-13.92
-18.17
-21.18
-21.38
-18.55
-13.88
-9.35
-6.58
-6.06
-7.02
-7.96
-7.50
-5.06
-0.98
3.88
8.72
13.23
17.63
22.27
27.23
32.10
36.04
38.24
38.28
36.30
32.99
29.20
25.67
22.81
20.69
19.05
17.59
16.11
14.61
13.30
12.24
11.18
9.47
6.34
1.28
-5.38
-12.44
-18.18
-21.06
-20.56
-17.43
-13.44
-10.45
-9.58
-10.79
-13.09
-15.25
-16.53
-16.96
-17.12
-17.72
-19.11
-21.23
-23.75
-26.19
-28.14
-29.19
-29.07
-27.78
-25.68
-23.47
-21.99
-21.84
-23.03
-25.06
-27.05
-28.25
-28.23
-27.00
-24.95
-22.54
-20.26
-18.35
-16.88
-15.67
-14.42
-12.89
-11.02
-8.97
-7.06
-5.55
-4.53
-3.87
-3.28
-2.49
-1.38
-0.04
1.29
2.42
3.36
4.39
5.88
8.12
11.02
14.07
16.47
17.46
16.61
14.04
10.31
6.28
2.73
0.16
-1.37
-2.20
-2.90
-3.97
-5.62
-7.73
-9.82
-11.41
-12.22
-12.37
-12.21
-12.03
-11.84
-11.33
-10.11
-8.06
-5.50
-3.13
-1.63
-1.33
-2.02
-3.14
-4.04
-4.36
-4.05
-3.33
-2.43
-1.49
-0.52
0.44
1.29
1.87
2.05
1.88
1.56
1.34
1.47
2.02
2.94
4.05
5.17
6.13
6.73
6.76
6.03
4.36
1.76
-1.53
-5.10
-8.48
-11.26
-13.19
-14.16
-14.18
-13.36
-11.91
-10.14
-8.40
-6.95
-5.90
-5.10
-4.31
-3.33
-2.16
-1.07
-0.37
-0.27
-0.70
-1.32
-1.70
-1.48
-0.56
0.85
2.31
3.37
3.66
3.14
2.02
0.70
-0.44
-1.19
-1.58
-1.82
-2.14
-2.63
-3.17
-3.54
-3.50
-3.03
-2.35
-1.77
-1.55
-1.62
-1.65
-1.18
0.05
1.94
4.01
5.68
6.46
6.28
5.40
4.28
3.32
2.68
2.33
2.09
1.81
1.43
0.99
0.58
0.27
0.01
-0.35
-1.03
-2.14
-3.69
-5.39
-6.89
-7.85
-8.14
-7.89
-7.45
-7.22
-7.41
-8.00
-8.75
-9.42
-9.90
-10.25
-10.58
-10.86
-10.86
-10.19
-8.56
-5.97
-2.86
0.11
2.31
3.43
3.57
3.13
2.54
2.09
1.79
1.49
0.99
0.23
-0.72
-1.62
-2.23
-2.46
-2.37
-2.25
-2.40
-2.99
-3.95
-4.93
-5.54
-5.59
-5.22
-4.96
-5.39
-6.90
-9.44
-12.48
-15.29
-17.21
-17.88
-17.25
-15.41
-12.46
-8.37
-3.13
3.07
9.70
16.00
21.14
24.51
25.93
25.61
24.02
21.71
19.14
16.55
14.01
11.51
8.94
6.33
3.79
1.54
-0.14
-1.12
-1.43
-1.28
-0.92
-0.46
0.12
0.88
1.78
2.51
2.67
1.93
0.28
-1.89
-3.93
-5.23
-5.56
-5.07
-4.22
-3.51
-3.18
-3.12
-2.99
-2.38
-1.10
0.71
2.65
4.16
4.81
4.48
3.43
2.10
1.00
0.36
0.12
-0.03
-0.40
-1.09
-1.96
-2.72
-3.12
-3.16
-3.10
-3.35
-4.13
-5.46
-7.01
-8.36
-9.21
-9.56
-9.76
-10.28
-11.44
-13.19
-15.09
-16.48
-16.89
-16.30
-15.17
-14.24
-14.10
-14.88
-16.31
-17.89
-19.33
-20.65
-22.16
-24.10
-26.50
-29.14
-31.76
-34.23
-36.59
-38.82
-40.72
-41.86
-41.77
-40.23
-37.35
-33.51
-29.11
-24.51
-20.22
-17.06
-16.15
-18.44
-24.05
-31.85
-39.69
-45.23
-46.91
-44.55
-39.02
-31.57
-23.18
-14.28
-5.11
3.79
11.41
16.68
19.19
19.54
19.16
19.52
21.41
24.60
28.16
31.15
33.08
33.96
33.92
32.97
30.89
27.51
23.05
18.26
14.20
11.78
11.49
13.24
16.55
20.88
25.83
31.16
36.65
41.93
46.42
49.58
51.19
51.50
51.18
51.07
51.68
52.89
53.98
54.10
52.80
50.44
48.03
46.69
47.07
48.98
51.56
53.65
54.35
53.23
50.39
46.26
41.42
36.40
31.52
26.82
22.09
17.09
11.75
6.32
1.32
-2.69
-5.39
-6.81
-7.20
-6.82
-5.82
-4.21
-2.13
0.10
2.01
3.24
3.73
3.72
3.53
3.31
2.99
2.54
2.12
2.12
2.89
4.38
5.96
6.76
6.07
3.82
0.68
-2.30
-4.29
-5.08
-5.07
-4.87
-4.89
-5.09
-5.12
-4.68
-3.66
-2.24
-0.76
0.46
1.20
1.41
1.24
0.96
0.96
1.56
2.84
4.65
6.71
8.80
10.97
13.32
15.75
17.72
18.39
17.08
13.86
9.72
6.18
4.40
4.46
5.26
5.19
3.16
-0.71
-5.22
-8.88
-10.93
-11.80
-12.74
-14.94
-18.66
-22.99
-26.47
-28.05
-27.75
-26.66
-26.14
-27.00
-28.94
-30.84
-31.50
-30.42
-27.93
-24.91
-22.11
-19.79
-17.73
-15.64
-13.48
-11.51
-10.08
-9.39
-9.48
-10.34
-12.03
-14.60
-17.86
-21.20
-23.75
-24.79
-24.12
-22.16
-19.55
-16.69
-13.54
-9.81
-5.46
-0.92
3.04
5.71
6.98
7.34
7.59
8.17
8.86
8.92
7.64
4.96
1.68
-0.87
-1.59
-0.17
2.74
5.90
8.23
9.37
9.77
10.19
11.06
12.11
12.49
11.34
8.43
4.40
0.36
-2.62
-4.12
-4.46
-4.47
-4.97
-6.35
-8.48
-10.77
-12.54
-13.20
-12.56
-10.88
-8.81
-7.11
-6.31
-6.45
-6.95
-7.04
-6.12
-4.21
-1.94
-0.23
0.22
-0.66
-2.38
-4.21
-5.43
-5.78
-5.55
-5.30
-5.49
-6.19
-7.20
-8.26
-9.27
-10.18
-11.09
-12.17
-13.61
-15.49
-17.73
-20.21
-22.81
-25.50
-27.85
-29.51
-30.51
-31.31
-32.55
-34.74
-38.05
-42.29
-46.93
-50.16
-50.43
-47.45
-42.61
-38.14
-35.99
-37.19
-41.69
-48.43
-53.59
-53.74
-48.11
-39.22
-31.02
-26.74
-27.80
-34.15
-44.68
-54.07
-56.96
-50.53
-34.99
-11.53
19.23
56.84
100.00
146.60
199.50
262.41
336.65
419.53
505.69
588.97
663.16
722.55
734.13
677.99
561.43
418.00
284.50
181.08
110.00
64.17
34.85
15.60
7.42
12.58
30.05
53.83
76.12
91.11
96.53
92.75
81.23
66.51
55.98
51.33
49.38
45.29
35.81
20.46
0.75
-20.87
-39.69
-51.85
-56.89
-57.29
-56.59
-57.32
-60.35
-65.33
-71.34
-76.26
-78.29
-77.43
-74.96
-72.61
-71.60
-72.32
-74.56
-77.85
-81.27
-84.00
-85.99
-87.67
-89.60
-92.09
-95.16
-98.59
-102.11
-105.44
-108.33
-110.79
-112.82
-114.48
-115.77
-116.73
-117.33
-117.52
-117.22
-116.27
-114.53
-111.83
-107.91
-102.53
-95.43
-86.40
-75.32
-62.23
-47.40
-31.37
-14.91
1.01
15.41
27.38
36.17
41.26
42.29
39.03
31.41
19.54
3.87
-14.81
-35.31
-56.29
-76.54
-95.28
-112.39
-128.32
-143.76
-159.20
-174.63
-189.52
-203.36
-216.37
-229.76
-245.40
-264.66
-287.19
-310.32
-329.76
-341.20
-341.96
-331.58
-311.26
-282.91
-248.72
-211.79
-176.98
-150.68
-138.89
-144.25
-163.83
-189.44
-210.79
-219.91
-214.46
-197.91
-176.74
-156.53
-139.28
-123.44
-106.26
-86.57
-66.28
-49.68
-41.23
-43.22
-54.57
-71.49
-89.26
-104.09
-114.16
-119.33
-120.09
-116.45
-107.63
-92.42
-70.00
-40.56
-5.10
35.28
80.20
129.80
183.53
238.60
289.07
326.65
343.18
333.91
299.70
247.08
185.74
124.92
70.57
24.64
-13.31
-43.80
-65.77
-76.90
-75.25
-60.89
-36.61
-6.91
23.64
51.82
76.31
97.25
115.24
130.56
142.85
151.20
154.49
151.77
142.74
128.08
109.57
89.59
70.33
52.98
37.34
22.23
6.39
-10.64
-28.12
-44.37
-57.51
-66.27
-70.27
-70.11
-66.85
-61.42
-54.36
-45.63
-34.76
-21.23
-4.87
13.82
33.67
53.04
70.29
83.96
92.99
96.62
94.40
86.30
72.94
55.72
36.64
17.86
1.12
-12.57
-23.00
-30.41
-35.12
-37.22
-36.64
-33.40
-27.87
-20.86
-13.47
-6.90
-2.15
0.28
0.46
-1.05
-3.26
-5.00
-5.21
-3.14
1.32
7.68
14.96
21.97
27.75
31.81
34.23
35.35
35.52
34.97
33.79
31.99
29.68
26.97
23.97
20.71
17.25
13.80
10.82
8.80
8.09
8.64
10.02
11.45
12.19
11.71
9.85
6.93
3.56
0.49
-1.65
-2.72
-3.26
-4.34
-7.00
-11.56
-17.18
-21.92
-23.45
-19.99
-11.06
2.30
17.96
33.41
46.48
55.83
60.91
61.64
58.27
51.22
41.21
29.39
17.34
6.83
-0.61
-4.08
-3.50
0.52
6.97
14.79
23.01
30.81
37.43
42.19
44.55
44.37
41.90
37.79
32.81
27.63
22.75
18.48
14.95
12.16
9.95
7.99
5.89
3.40
0.54
-2.35
-4.73
-6.05
-6.01
-4.64
-2.33
0.33
2.80
4.79
6.35
7.80
9.54
11.75
14.28
