1660933019.00
64.000000
-0.00
-0.00
-0.00
-0.00
-0.00
-0.00
-0.00
-0.00
-0.00
-0.00
0.00
0.01
0.01
-0.00
-0.03
-0.05
-0.05
0.00
0.13
0.36
0.66
1.01
1.37
1.72
2.06
2.40
2.79
3.25
3.81
4.44
5.10
5.73
6.32
6.90
7.51
8.25
9.15
10.28
11.54
12.80
13.93
14.90
15.79
16.79
18.14
19.97
22.49
25.47
28.61
31.61
34.34
36.93
39.74
43.25
47.74
53.54
60.24
67.25
74.01
80.25
86.18
92.41
99.71
108.56
119.34
131.37
143.68
155.40
166.14
176.24
186.63
198.81
211.39
226.29
243.69
263.36
284.04
303.14
316.85
321.10
312.80
290.92
257.30
215.08
168.02
119.20
70.57
23.07
-22.72
-66.15
-106.62
-143.61
-177.72
-210.29
-243.09
-277.53
-313.77
-350.15
-383.11
-408.20
-421.34
-420.55
-406.77
-383.49
-355.41
-326.62
-299.48
-274.35
-250.57
-227.34
-204.73
-183.47
-164.39
-147.77
-133.11
-119.45
-105.88
-92.06
-78.21
-65.04
-53.27
-43.29
-34.99
-27.91
-21.43
-15.10
-8.77
-2.64
2.92
7.55
11.14
13.83
15.98
17.99
20.08
22.21
24.16
25.64
26.48
26.69
26.43
25.97
25.52
25.21
25.05
24.94
24.76
24.39
23.78
22.95
22.02
21.13
20.42
19.90
19.51
19.13
18.66
18.07
17.43
16.82
16.27
15.80
15.36
14.89
14.41
13.92
13.46
13.04
12.65
12.28
11.95
11.68
11.49
11.38
11.34
11.32
11.29
11.21
11.06
10.80
10.41
9.91
9.37
8.89
8.57
8.43
8.41
8.39
8.23
7.88
7.38
6.85
6.41
6.15
6.06
6.10
6.14
6.09
5.83
5.37
4.73
4.01
3.31
2.73
2.28
1.93
1.60
1.23
0.80
0.31
-0.19
-0.65
-1.04
-1.39
-1.71
-2.07
-2.49
-3.00
-3.60
-4.26
-4.93
-5.62
-6.31
-7.00
-7.63
-8.16
-8.54
-8.78
-8.92
-9.02
-9.13
-9.26
-9.36
-9.36
-9.20
-8.83
-8.25
-7.49
-6.65
-5.82
-5.11
-4.53
-4.07
-3.63
-3.10
-2.45
-1.70
-0.95
-0.30
0.20
0.57
0.88
1.18
1.50
1.82
2.09
2.28
2.38
2.39
2.30
2.12
1.90
1.72
1.66
1.76
2.01
2.31
2.57
2.72
2.77
2.80
2.92
3.21
3.67
4.25
4.81
5.21
5.38
5.32
5.09
4.78
4.46
4.16
3.85
3.50
3.18
3.00
3.08
3.50
4.19
4.99
5.68
6.06
6.07
5.75
5.24
4.72
4.30
4.03
3.89
3.78
3.61
3.34
2.99
2.61
2.29
2.05
1.89
1.76
1.63
1.50
1.45
1.53
1.75
2.03
2.31
2.51
2.60
2.62
2.64
2.70
2.77
2.80
2.69
2.41
1.96
1.43
0.95
0.64
0.56
0.67
0.89
1.12
1.29
1.38
1.40
1.35
1.27
1.15
1.06
1.05
1.16
1.36
1.57
1.69
1.59
1.23
0.67
0.03
-0.54
-0.89
-0.95
-0.73
-0.31
0.19
0.61
0.85
0.85
0.65
0.38
0.15
0.09
0.22
0.51
0.89
1.28
1.65
1.94
2.14
2.20
2.10
1.89
1.66
1.54
1.61
1.87
2.22
2.53
2.68
2.64
2.44
2.16
1.88
1.66
1.49
1.38
1.35
1.42
1.60
1.89
2.20
2.42
2.43
2.16
1.61
0.87
0.11
-0.52
-0.92
-1.09
-1.08
-0.96
-0.79
-0.59
-0.34
-0.02
0.39
0.85
1.29
1.59
1.69
1.56
1.28
0.96
0.74
0.65
0.62
0.56
0.36
0.05
-0.30
-0.53
-0.54
-0.32
0.02
0.33
0.48
0.43
0.23
0.01
-0.11
-0.06
0.14
0.37
0.54
0.57
0.53
0.49
0.53
0.66
0.78
0.78
0.61
0.29
-0.06
-0.35
-0.56
-0.71
-0.81
-0.84
-0.72
-0.37
0.19
0.83
1.35
1.57
1.45
1.08
0.64
0.32
0.21
0.30
0.48
0.63
0.70
0.65
0.55
0.41
0.28
0.13
-0.03
-0.21
-0.36
-0.43
-0.39
-0.22
0.04
0.30
0.51
0.62
0.63
0.58
0.51
0.44
0.35
0.24
0.12
-0.01
-0.15
-0.30
-0.49
-0.74
-1.06
-1.39
-1.57
-1.46
-0.96
-0.12
0.89
1.84
2.51
2.81
2.78
2.52
2.15
1.78
1.44
1.17
1.01
0.98
1.15
1.50
1.97
2.46
2.83
2.98
2.84
2.44
1.86
1.24
0.71
0.36
0.22
0.26
0.41
0.54
0.54
0.34
-0.06
-0.57
-1.03
-1.29
-1.29
-1.09
-0.84
-0.68
-0.64
-0.65
-0.61
-0.43
-0.14
0.15
0.32
0.32
0.21
0.08
0.01
0.00
-0.00
-0.03
-0.10
-0.16
-0.19
-0.20
-0.27
-0.47
-0.80
-1.21
-1.61
-1.89
-2.01
-1.96
-1.81
-1.60
-1.37
-1.13
-0.91
-0.76
-0.71
-0.76
-0.88
-0.96
-0.92
-0.72
-0.44
-0.20
-0.14
-0.34
-0.76
-1.32
-1.89
-2.39
-2.79
-3.10
-3.31
-3.36
-3.19
-2.74
-2.08
-1.34
-0.68
-0.21
0.07
0.25
0.47
0.82
1.33
1.93
2.49
2.90
3.08
3.04
2.83
2.55
2.27
2.01
1.76
1.49
1.20
0.95
0.79
0.80
0.97
1.21
1.39
1.38
1.13
0.70
0.25
-0.08
-0.15
0.05
0.46
0.96
1.43
1.78
1.95
1.95
1.74
1.31
0.64
-0.26
-1.28
-2.27
-3.06
-3.55
-3.76
-3.83
-3.89
-4.08
-4.39
-4.70
-4.87
-4.79
-4.45
-3.96
-3.44
-2.99
-2.66
-2.44
-2.34
-2.39
-2.67
-3.18
-3.80
-4.29
-4.35
-3.74
-2.46
-0.71
1.14
2.77
4.00
4.87
5.56
6.25
7.02
7.83
8.53
9.02
9.26
9.27
9.12
8.84
8.42
7.83
7.10
6.29
5.54
4.97
4.66
4.60
4.73
4.92
5.06
5.05
4.88
4.57
4.18
3.73
3.22
2.62
1.92
1.14
0.37
-0.28
-0.72
-0.92
-0.92
-0.81
-0.67
-0.54
-0.41
-0.28
-0.22
-0.34
-0.78
-1.58
-2.69
-3.89
-4.88
-5.43
-5.44
-4.99
-4.25
-3.44
-2.73
-2.17
-1.78
-1.53
-1.43
-1.47
-1.63
-1.84
-2.01
-2.07
-1.97
-1.75
-1.50
-1.32
-1.29
-1.40
-1.56
-1.67
-1.61
-1.33
-0.90
-0.45
-0.14
-0.04
-0.17
-0.43
-0.67
-0.79
-0.72
-0.45
-0.07
0.33
0.60
0.64
0.40
-0.07
-0.64
-1.12
-1.39
-1.38
-1.17
-0.90
-0.70
-0.64
-0.70
-0.82
-0.93
-0.98
-0.98
-0.93
-0.83
-0.64
-0.32
0.15
0.70
1.21
1.58
1.73
1.69
1.55
1.43
1.40
1.42
1.40
1.26
0.95
0.54
0.13
-0.17
-0.28
-0.18
0.05
0.31
0.45
0.40
0.12
-0.36
-0.88
-1.27
-1.35
-1.09
-0.55
0.01
0.31
0.10
-0.66
-1.77
-2.83
-3.43
-3.34
-2.64
-1.80
-1.40
-1.96
-3.58
-5.88
-8.07
-9.32
-9.17
-7.81
-6.11
-5.26
-6.16
-9.01
-13.01
-16.71
-18.59
-17.91
-15.16
-11.99
-10.54
-12.35
-17.50
-24.39
-30.39
-33.02
-31.23
-26.01
-19.86
-15.81
-16.18
-21.76
-31.72
-43.66
-53.79
-57.12
-48.26
-23.25
17.97
69.75
121.08
158.76
172.48
159.13
124.20
79.33
37.08
6.06
-11.47
-18.48
-19.83
-19.13
-17.41
-14.05
-8.59
-2.15
2.78
3.79
0.05
-7.05
-14.41
-18.87
-18.68
-14.27
-7.94
-2.63
-0.54
-2.21
-6.44
-11.03
-13.80
-13.60
-10.56
-5.91
-1.29
1.99
3.41
3.29
2.51
2.01
2.36
3.52
5.00
6.07
6.22
5.31
3.68
1.92
0.57
-0.08
-0.11
0.15
0.32
0.18
-0.32
-1.07
-1.92
-2.82
-3.77
-4.79
-5.83
-6.71
-7.20
-7.18
-6.66
-5.85
-5.09
-4.66
-4.68
-5.06
-5.52
-5.68
-5.23
-4.04
-2.15
0.18
2.59
4.67
6.16
6.96
7.23
7.27
7.41
7.85
8.51
9.03
8.89
7.73
5.54
2.79
0.29
-1.19
-1.35
-0.55
0.18
-0.38
-3.02
-7.64
-13.16
-17.84
-20.14
-19.45
-16.53
-13.30
-11.98
-14.09
-19.52
-26.47
-32.20
-34.22
-31.50
-25.01
-17.22
-11.14
-9.13
-12.16
-19.62
-29.34
-37.60
-39.30
-28.96
-2.76
38.87
89.56
137.73
170.18
177.24
157.01
116.20
67.13
22.44
-9.80
-27.92
-35.21
-36.53
-35.26
-32.42
-27.62
-20.89
-13.67
-8.41
-7.17
-10.23
-15.87
-20.99
-22.80
-20.07
-13.66
-6.06
-0.13
2.13
0.41
-3.95
-8.66
-11.60
-11.68
-9.19
-5.47
-2.23
-0.72
-1.27
-3.23
-5.46
-6.85
-6.85
-5.61
-3.80
-2.19
-1.33
-1.29
-1.79
-2.37
-2.67
-2.55
-2.11
-1.54
-1.04
-0.73
-0.67
-0.86
-1.26
-1.74
-2.20
-2.52
-2.67
-2.68
-2.63
-2.62
-2.74
-3.01
-3.40
-3.89
-4.43
-4.99
-5.51
-5.93
-6.21
-6.35
-6.40
-6.46
-6.60
-6.84
-7.10
-7.30
-7.39
-7.38
-7.39
-7.58
-8.06
-8.85
-9.82
-10.78
-11.58
-12.19
-12.67
-13.17
-13.85
-14.80
-16.02
-17.41
-18.82
-20.10
-21.19
-22.18
-23.37
-25.16
-28.01
-32.18
-37.61
-43.89
-50.40
-56.61
-62.40
-68.17
-74.62
-82.30
-91.19
-100.54
-109.17
-116.05
-120.77
-123.80
-126.15
-128.81
-132.40
-136.91
-141.83
-146.13
-148.14
-145.41
-135.07
-114.87
-84.51
-46.54
-5.79
32.34
64.45
90.64
114.31
139.99
170.55
205.40
240.68
271.34
293.80
307.53
314.91
319.52
324.13
329.69
335.44
340.06
342.59
342.70
340.12
333.98
322.55
303.75
276.11
239.62
195.71
146.58
94.31
40.41
-13.84
-66.63
-115.06
-155.53
-184.77
-201.25
-205.89
-201.70
-192.50
-181.54
-170.63
-160.19
-149.99
-139.94
-130.44
-122.14
-115.36
-109.80
-104.57
-98.68
-91.54
-83.26
-74.54
-66.36
-59.47
-54.13
-50.00
-46.38
-42.61
-38.32
-33.67
-29.17
-25.41
-22.75
-21.15
-20.22
-19.49
-18.64
-17.63
-16.63
-15.80
-15.15
-14.52
-13.71
-12.70
-11.75
-11.31
-11.72
-12.99
-14.67
-16.02
-16.31
-15.24
-13.14
-10.89
-9.55
-9.84
-11.74
-14.45
-16.71
-17.31
-15.68
-12.07
-7.48
-3.13
-0.08
1.10
0.34
-2.03
-5.13
-7.30
-6.15
0.69
14.20
32.80
52.16
66.57
71.34
64.96
49.85
31.16
14.28
2.66
-3.18
-4.86
-4.57
-3.66
-2.35
-0.34
2.30
4.75
5.77
4.43
0.69
-4.49
-9.53
-12.89
-13.76
-12.27
-9.39
-6.46
-4.63
-4.42
-5.57
-7.27
-8.57
-8.85
-8.03
-6.54
-5.05
-4.15
-4.08
-4.63
-5.31
-5.57
-5.03
-3.68
-1.80
0.10
1.53
2.15
1.92
1.02
-0.17
-1.30
-2.09
-2.46
-2.44
-2.18
-1.85
-1.59
-1.49
-1.55
-1.71
-1.89
-2.02
-2.09
-2.11
-2.16
-2.25
-2.36
-2.42
-2.35
-2.15
-1.89
-1.66
-1.53
-1.47
-1.36
-1.09
-0.60
0.04
0.71
1.27
1.68
1.97
2.20
2.42
2.57
2.54
2.26
1.72
1.01
0.24
-0.50
-1.18
-1.79
-2.32
-2.71
-2.91
-2.88
-2.65
-2.34
-2.10
-2.04
-2.22
-2.60
-3.07
-3.50
-3.76
-3.79
-3.62
-3.33
-3.06
-2.95
-3.03
-3.24
-3.42
-3.31
-2.61
-1.10
1.31
4.42
7.79
10.74
12.61
12.97
11.80
9.51
6.81
4.38
2.70
1.87
1.72
1.87
2.02
1.93
1.55
0.92
0.13
-0.73
-1.55
-2.29
-2.89
-3.27
-3.37
-3.18
-2.77
-2.28
-1.91
-1.80
-1.95
-2.22
-2.37
-2.22
-1.70
-0.90
-0.02
0.75
1.26
1.49
1.45
1.16
0.66
0.00
-0.70
-1.28
-1.59
-1.56
-1.27
-0.89
-0.61
-0.56
-0.74
-1.06
-1.41
-1.71
-1.98
-2.26
-2.58
-2.86
-3.01
-2.92
-2.57
-2.05
-1.55
-1.22
-1.14
-1.25
-1.40
-1.42
-1.16
-0.54
0.50
1.95
3.77
5.78
7.71
9.26
10.13
10.23
9.63
8.53
7.20
5.79
4.35
2.94
1.62
0.55
-0.07
-0.14
0.24
0.81
1.22
1.18
0.59
-0.46
-1.73
-2.96
-3.89
-4.40
-4.42
-3.98
-3.15
-2.11
-1.05
-0.17
0.37
0.55
0.42
0.11
-0.23
-0.55
-0.82
-1.08
-1.31
-1.49
-1.59
-1.60
-1.61
-1.71
-1.97
-2.38
-2.80
-3.08
-3.12
-2.95
-2.71
-2.58
-2.69
-3.05
-3.57
-4.07
-4.38
-4.41
-4.11
-3.55
-2.84
-2.11
-1.47
-1.00
-0.73
-0.61
-0.54
-0.34
0.22
1.34
3.13
5.43
7.86
9.88
10.97
10.86
9.64
7.70
5.57
3.69
2.30
1.43
0.95
0.76
0.79
1.01
1.37
1.74
1.93
1.75
1.13
0.13
-1.05
-2.15
-2.96
-3.38
-3.45
-3.29
-2.99
-2.65
-2.30
-1.99
-1.76
-1.64
-1.61
-1.58
-1.44
-1.13
-0.68
-0.21
0.13
0.30
0.33
0.33
0.42
0.62
0.93
1.24
1.45
1.47
1.21
0.65
-0.20
-1.28
-2.46
-3.61
-4.62
-5.40
-5.85
-5.90
-5.47
-4.57
-3.34
-2.00
-0.81
0.06
0.60
0.91
1.19
1.61
2.31
3.35
4.68
6.11
7.33
7.96
7.66
6.34
4.15
1.53
-1.02
-3.10
-4.54
-5.40
-5.89
-6.25
-6.67
-7.23
-7.97
-8.91
-10.05
-11.44
-13.08
-14.95
-16.98
-19.09
-21.16
-23.12
-24.94
-26.69
-28.52
-30.66
-33.41
-37.00
-41.47
-46.61
-51.94
-56.89
-61.02
-64.29
-67.10
-70.16
-74.25
-79.82
-86.82
-94.70
-102.72
-110.19
-116.90
-123.08
-129.30
-136.15
-144.02
-152.99
-162.90
-173.37
-183.73
-192.89
-199.15
-200.45
-194.75
-180.68
-157.99
-127.61
-91.11
-49.97
-5.18
42.53
91.79
139.85
182.64
215.73
236.00
242.91
238.83
227.92
214.45
201.27
189.30
178.08
166.90
155.67
145.02
135.84
128.53
122.66
117.19
111.05
103.75
95.62
87.68
81.06
76.44
73.78
72.39
71.37
70.03
68.22
66.34
65.03
64.86
66.07
68.45
71.47
74.35
76.38
77.13
76.66
75.60
74.96
75.78
78.75
83.91
90.68
98.17
105.44
111.91
117.42
122.29
127.25
133.38
141.88
153.66
168.62
185.13
199.92
208.82
208.03
195.46
171.30
137.69
97.46
52.88
5.29
-44.26
-93.82
-139.94
-178.21
-204.88
-218.60
-221.03
-216.12
-208.22
-200.27
-193.09
-185.87
-177.42
-167.29
-156.12
-145.08
-135.12
-126.44
-118.49
-110.50
-101.95
-92.84
-83.64
-75.07
-67.73
-61.89
-57.37
-53.69
-50.23
-46.53
-42.46
-38.24
-34.27
-30.96
-28.49
-26.86
-25.88
-25.26
-24.66
-23.66
-21.92
-19.29
-15.96
-12.52
-9.73
-8.17
-7.97
-8.75
-9.88
-10.85
-11.54
-12.14
-12.95
-14.10
-15.45
-16.80
-18.13
-19.63
-21.61
-24.24
-27.46
-31.07
-34.95
-39.22
-44.10
-49.69
-55.67
-61.37
-66.09
-69.54
-72.19
-75.13
-79.55
-86.13
-94.74
-104.35
-113.25
-119.46
-121.05
-116.81
-106.69
-92.16
-75.96
-61.47
-51.71
-48.30
-50.69
-56.01
-59.82
-57.57
-46.31
-25.98
0.46
28.20
52.60
71.11
84.15
94.37
104.76
116.73
129.29
139.93
146.32
147.90
146.14
143.55
142.15
142.46
143.51
143.79
142.45
139.96
137.92
138.11
141.50
147.73
155.23
162.00
166.54
168.43
168.41
167.87
168.20
170.24
174.19
179.94
187.31
195.97
205.02
212.52
215.52
210.71
195.62
169.45
133.30
89.39
40.22
-11.89
-64.53
-114.58
-158.08
-190.92
-210.35
-216.26
-211.39
-200.27
-187.38
-175.65
-165.91
-157.56
-149.58
-141.46
-133.37
-125.74
-118.76
-112.12
-105.26
-97.78
-89.72
-81.61
-74.19
-67.97
-62.90
-58.38
-53.56
-47.86
-41.35
-34.80
-29.35
-25.87
-24.48
-24.45
-24.62
-24.00
-22.42
-20.63
-19.89
-21.21
-24.67
-29.16
-32.79
-33.84
-31.57
-26.72
-21.12
-17.03
-16.20
-19.41
-26.60
-37.04
-49.18
-60.23
-66.03
-62.08
-45.71
-18.33
13.84
41.56
56.36
54.42
38.27
15.26
-6.30
-21.05
-28.34
-31.16
-33.31
-36.89
-41.63
-46.03
-49.27
-52.30
-57.37
-66.61
-80.49
-97.25
-113.57
-126.30
-134.11
-138.20
-141.48
-146.78
-154.73
-162.79
-165.82
-158.02
-135.26
-96.54
-44.46
15.58
76.66
131.89
176.01
206.61
224.65
233.97
239.60
245.66
253.76
262.65
269.50
271.78
268.83
262.16
254.63
249.14
247.56
250.02
254.80
258.66
257.33
246.36
222.52
184.94
136.08
81.54
28.88
-14.47
-43.66
-58.04
-61.44
-60.51
-62.09
-70.38
-85.58
-104.28
-121.68
-133.93
-139.73
-140.10
-136.95
-131.66
-124.45
-114.91
-103.00
-89.79
-77.31
-67.78
-62.53
-61.41
-62.96
-65.07
-65.86
-64.44
-61.14
-57.10
-53.67
-51.63
-50.89
-50.65
-49.96
-48.29
-45.70
-42.37
-38.11
-31.91
-22.36
-8.41
9.87
30.96
52.13
70.12
81.87
85.10
78.79
63.55
41.72
17.06
-6.12
-24.22
-35.38
-39.86
-39.46
-36.37
-32.11
-27.16
-21.33
-14.54
-7.25
-0.43
4.90
8.22
9.68
9.87
9.41
8.75
7.97
7.04
5.95
4.85
3.93
3.27
2.75
2.08
0.93
-0.90
-3.36
-6.18
-8.99
-11.39
-13.09
-13.97
-14.13
-13.82
-13.41
-13.23
-13.42
-13.92
-14.48
-14.80
-14.66
-14.00
-12.96
-11.74
-10.55
-9.52
-8.69
-8.06
-7.60
-7.31
-7.14
-7.00
-6.76
-6.33
-5.69
-4.95
-4.26
-3.75
-3.39
-3.09
-2.67
-2.07
-1.33
-0.56
0.12
0.67
1.16
1.67
2.24
2.84
3.41
3.88
4.22
4.47
4.65
4.76
