1660752090.00
64.000000
-0.00
-0.00
-0.00
-0.00
-0.00
-0.00
-0.00
-0.00
-0.00
-0.00
0.00
0.01
0.01
-0.00
-0.03
-0.05
-0.05
0.00
0.13
0.36
0.66
1.01
1.37
1.72
2.06
2.40
2.79
3.24
3.80
4.42
5.06
5.66
6.20
6.68
7.15
7.68
8.31
9.14
10.09
11.04
11.88
12.56
13.14
13.76
14.65
15.96
17.91
20.32
22.90
25.38
27.58
29.57
31.68
34.32
37.81
42.54
48.15
54.10
59.83
64.97
69.58
74.14
79.34
85.71
93.76
103.00
112.62
121.73
129.77
136.75
143.30
150.75
157.77
166.64
177.95
191.79
206.97
220.57
228.25
225.36
208.53
176.87
132.76
80.05
23.07
-34.94
-92.44
-149.16
-205.23
-260.37
-313.74
-363.87
-409.83
-450.91
-486.50
-515.74
-537.23
-549.22
-549.96
-538.37
-514.21
-478.67
-433.88
-382.45
-327.02
-269.84
-212.63
-156.66
-102.95
-52.37
-5.90
35.58
71.42
101.35
125.50
144.39
158.72
169.19
176.40
180.74
182.49
181.90
179.24
174.90
169.29
162.81
155.80
148.47
140.93
133.25
125.47
117.69
109.99
102.46
95.15
88.09
81.24
74.57
68.08
61.82
55.86
50.31
45.23
40.58
36.26
32.14
28.07
24.04
20.12
16.50
13.38
10.87
8.92
7.29
5.64
3.71
1.40
-1.10
-3.43
-5.17
-6.10
-6.30
-6.20
-6.39
-7.35
-9.19
-11.61
-13.97
-15.62
-16.20
-15.81
-15.00
-14.47
-14.82
-16.37
-19.15
-22.89
-26.90
-30.03
-30.75
-27.60
-19.94
-8.39
5.08
17.84
27.60
33.36
35.58
35.71
35.25
34.92
34.47
33.07
30.02
25.41
20.18
15.75
13.32
13.35
15.36
18.07
20.06
20.38
18.95
16.52
14.17
12.72
12.25
12.03
10.87
7.69
1.97
-6.04
-15.34
-24.38
-31.44
-34.94
-33.93
-28.31
-19.01
-7.68
3.70
13.52
20.90
25.70
28.34
29.36
29.27
28.52
27.51
26.64
26.20
26.18
26.19
25.58
23.78
20.53
15.99
10.79
5.47
0.58
-3.47
-6.51
-8.54
-9.75
-10.46
-11.03
-11.72
-12.67
-13.77
-14.84
-15.73
-16.36
-16.74
-16.83
-16.53
-15.62
-13.96
-11.53
-8.58
-5.57
-3.05
-1.42
-0.89
-1.36
-2.56
-4.18
-5.92
-7.56
-8.95
-9.96
-10.49
-10.51
-10.08
-9.41
-8.77
-8.40
-8.42
-8.80
-9.35
-9.86
-10.18
-10.30
-10.26
-10.17
-10.04
-9.84
-9.56
-9.19
-8.80
-8.46
-8.23
-8.14
-8.17
-8.22
-8.10
-7.62
-6.52
-4.61
-1.81
1.85
6.20
10.69
14.76
17.91
19.90
20.70
20.54
19.70
18.48
16.99
15.26
13.26
10.99
8.59
6.30
4.38
2.99
2.08
1.48
0.95
0.38
-0.25
-0.90
-1.61
-2.53
-3.83
-5.61
-7.75
-9.90
-11.58
-12.41
-12.27
-11.45
-10.43
-9.81
-9.99
-11.11
-12.99
-15.25
-17.46
-19.26
-20.37
-20.60
-19.82
-17.95
-15.05
-11.41
-7.47
-3.72
-0.48
2.14
4.32
6.29
8.24
10.13
11.79
13.04
13.82
14.27
14.64
15.13
15.79
16.49
16.99
17.10
16.75
15.99
14.93
13.68
12.28
10.66
8.77
6.55
4.07
1.47
-0.98
-3.05
-4.55
-5.50
-6.07
-6.54
-7.17
-8.12
-9.36
-10.72
-11.97
-12.79
-12.88
-12.00
-10.02
-7.07
-3.57
-0.16
2.54
4.14
4.69
4.57
4.32
4.32
4.68
5.21
5.65
5.84
5.77
5.60
5.48
5.43
5.42
5.35
5.17
4.92
4.67
4.51
4.48
4.55
4.68
4.81
4.87
4.75
4.34
3.57
2.41
0.97
-0.58
-2.05
-3.29
-4.27
-5.07
-5.81
-6.69
-7.82
-9.24
-10.82
-12.29
-13.23
-13.27
-12.14
-9.84
-6.62
-2.92
0.79
4.12
6.87
8.99
10.47
11.36
11.69
11.53
11.02
10.39
9.83
9.44
9.22
9.07
8.86
8.54
8.13
7.73
7.41
7.22
7.16
7.17
7.18
7.08
6.76
6.14
5.18
3.96
2.62
1.31
0.16
-0.80
-1.62
-2.44
-3.34
-4.38
-5.52
-6.65
-7.64
-8.43
-9.05
-9.65
-10.43
-11.55
-13.04
-14.65
-15.97
-16.48
-15.77
-13.76
-10.68
-7.02
-3.38
-0.22
2.23
3.98
5.20
6.06
6.60
6.78
6.51
5.79
4.82
3.96
3.58
3.90
4.82
5.98
6.87
7.13
6.64
5.59
4.34
3.22
2.43
1.98
1.84
1.98
2.34
2.85
3.43
3.96
4.33
4.51
4.48
4.15
3.39
2.03
0.00
-2.56
-5.27
-7.55
-8.78
-8.44
-6.38
-3.04
0.53
2.87
2.82
0.10
-4.27
-8.35
-10.21
-8.88
-4.83
0.32
4.64
6.93
7.18
6.30
5.50
5.55
6.59
8.35
10.57
13.34
17.09
22.27
29.03
37.04
45.53
53.55
60.24
65.12
68.13
69.65
70.41
71.53
74.46
80.71
91.36
106.49
124.90
144.19
161.40
173.77
179.49
178.05
170.21
157.61
142.35
126.53
112.00
100.21
92.19
88.60
89.75
95.56
105.34
117.66
130.26
140.46
145.45
143.48
134.41
119.63
101.26
81.21
60.62
39.63
17.49
-7.31
-36.15
-69.35
-105.69
-142.38
-175.63
-201.51
-217.07
-221.13
-215.41
-202.95
-186.84
-169.38
-152.12
-136.12
-122.02
-109.94
-99.41
-91.59
-86.59
-82.72
-77.26
-68.44
-56.49
-43.14
-30.41
-19.70
-15.77
-20.91
-33.05
-46.93
-58.03
-65.20
-70.15
-75.87
-85.07
-106.54
-145.24
-198.75
-258.31
-314.79
-362.80
-400.64
-428.77
-448.63
-471.41
-505.51
-551.50
-602.59
-651.20
-693.42
-728.46
-756.75
-719.72
-588.39
-381.10
-152.99
47.04
199.16
305.43
376.52
423.58
455.43
468.76
461.07
436.33
404.76
376.27
355.76
343.84
338.96
339.07
335.19
321.25
297.76
271.09
247.86
231.05
220.58
214.87
212.08
206.26
193.48
174.01
151.74
130.40
111.55
95.09
80.17
66.19
50.86
33.10
13.77
-4.86
-19.34
-30.26
-38.63
-45.45
-51.18
-56.41
-61.13
-64.88
-67.05
-67.65
-67.65
-67.91
-69.14
-71.79
-76.10
-81.86
-87.95
-92.08
-91.10
-82.44
-65.18
-41.43
-15.82
6.28
21.08
27.80
28.45
26.19
23.30
20.49
17.10
12.45
6.96
2.21
0.05
1.40
5.62
10.88
15.14
17.38
17.71
17.27
17.55
19.67
23.92
29.72
35.88
41.00
44.04
44.52
42.65
39.20
35.15
31.25
27.86
24.90
22.04
18.98
15.60
12.04
8.63
5.83
3.93
3.05
3.00
3.31
3.35
2.56
0.75
-1.84
-4.67
-7.21
-9.23
-10.77
-12.13
-13.60
-15.32
-17.21
-19.10
-20.88
-22.60
-24.42
-26.34
-28.36
-30.57
-33.09
-36.11
-39.78
-44.04
-48.63
-53.14
-56.80
-59.03
-59.44
-57.91
-54.56
-49.69
-43.64
-36.44
-29.53
-23.47
-18.42
-14.20
-10.66
-7.82
-5.86
-4.99
-5.27
-6.58
-8.48
-10.78
-13.56
-17.08
-21.47
-26.60
-31.95
-36.94
-41.10
-43.97
-45.27
-44.77
-42.27
-37.84
-31.99
-25.75
-20.46
-17.27
-16.59
-18.01
-20.48
-22.75
-23.89
-23.65
-22.48
-21.27
-20.98
-22.25
-25.13
-29.17
-33.36
-36.35
-36.66
-33.09
-25.08
-13.04
1.66
16.94
30.56
40.74
46.45
47.55
44.61
38.80
31.70
25.04
20.38
18.67
19.94
23.26
27.16
30.21
31.65
31.58
30.75
30.04
29.98
30.64
31.64
32.49
32.77
32.19
30.56
27.76
23.79
18.90
13.65
8.86
5.34
3.56
3.46
4.37
5.35
5.52
4.45
2.37
0.10
-1.24
-0.59
2.73
8.85
17.30
27.08
36.84
45.08
50.52
52.34
50.39
45.28
38.11
30.20
22.68
16.26
11.19
7.30
4.18
1.29
-1.90
-5.83
-10.78
-16.70
-23.22
-29.62
-35.04
-38.59
-39.64
-37.87
-33.47
-27.12
-19.93
-13.10
-7.66
-3.97
-1.67
0.23
2.85
6.84
11.90
16.82
19.83
19.43
15.10
7.63
-1.04
-8.52
-12.80
-12.96
-9.35
-3.22
3.86
10.70
16.75
21.97
26.45
30.15
32.74
33.94
33.80
32.86
31.94
31.78
32.61
34.16
35.83
37.09
37.77
38.08
38.39
38.93
39.58
39.94
39.48
37.82
34.82
30.57
25.27
19.11
12.35
5.23
-1.96
-8.97
-15.67
-22.07
-28.23
-34.09
-39.32
-43.31
-45.39
-45.16
-42.75
-38.87
-34.53
-30.60
-27.36
-24.42
-20.78
-15.35
-7.36
3.19
15.40
27.60
37.91
44.91
48.25
48.76
48.11
48.02
49.49
52.32
55.38
57.13
56.42
52.92
47.07
39.74
31.83
24.06
16.92
10.86
6.23
3.20
1.67
1.11
0.79
-0.03
-1.76
-4.38
-7.48
-10.45
-12.68
-13.72
-13.22
-10.96
-6.85
-1.05
5.97
13.45
20.48
26.33
30.58
33.27
34.72
35.27
35.11
34.22
32.57
30.27
27.66
25.21
23.29
21.95
20.88
19.53
17.41
14.32
10.46
6.32
2.44
-0.85
-3.49
-5.65
-7.62
-9.54
-11.33
-12.54
-12.43
-10.15
-5.05
2.92
12.99
23.52
32.32
37.25
36.83
30.81
20.35
7.74
-4.21
-13.04
-17.22
-16.51
-11.73
-4.30
4.32
13.03
21.21
28.61
35.16
40.89
45.88
50.22
53.94
56.93
58.82
59.10
57.36
53.51
47.87
41.10
33.93
26.83
19.99
13.31
6.68
0.16
-5.96
-11.29
-15.51
-18.56
-20.65
-22.13
-23.36
-24.65
-26.28
-28.56
-31.80
-36.19
-41.69
-47.88
-54.10
-59.58
-63.62
-65.72
-65.58
-63.04
-58.10
-50.92
-41.94
-31.88
-21.67
-12.25
-4.29
1.99
6.87
11.03
15.31
20.46
26.87
34.38
42.24
49.12
53.41
53.63
48.99
39.93
28.21
16.61
8.10
4.69
6.70
12.64
19.83
25.51
27.97
27.00
23.70
19.73
16.45
14.40
13.30
12.42
11.03
8.71
5.42
1.38
-3.05
-7.32
-10.70
-12.34
-11.67
-8.77
-4.61
-0.92
0.49
-1.31
-5.89
-11.43
-15.63
-16.82
-14.82
-10.98
-7.44
-6.04
-7.39
-10.78
-14.64
-17.47
-18.35
-17.35
-15.34
-13.40
-12.18
-11.82
-12.16
-13.05
-14.56
-16.53
-18.61
-20.03
-19.78
-16.88
-10.81
-1.71
9.59
21.95
34.50
46.29
56.13
62.83
65.74
65.17
62.33
58.85
56.14
56.01
58.98
64.15
69.98
75.44
80.44
85.38
90.64
96.45
105.44
119.42
138.32
160.32
183.09
204.75
223.91
239.64
251.53
263.33
277.61
294.00
309.60
321.45
328.02
328.97
324.45
314.92
305.50
299.55
296.56
292.83
284.79
271.13
252.70
231.65
178.72
83.35
-41.11
-165.65
-267.08
-338.37
-383.69
-410.44
-424.69
-430.81
-427.98
-415.98
-398.63
-383.05
-375.86
-380.88
-399.68
-433.28
-470.52
-498.05
-505.01
-486.79
-445.28
-386.31
-317.60
-247.71
-184.67
-133.64
-94.84
-65.48
-42.70
-25.16
-12.80
-5.79
-3.56
-4.28
-5.06
-3.05
3.11
12.10
20.74
26.19
26.61
22.49
16.19
11.16
10.19
14.81
24.06
35.15
44.57
49.31
48.14
41.98
33.71
26.77
24.20
26.88
33.63
42.19
50.32
57.14
63.00
68.97
73.95
76.60
75.62
71.77
68.25
68.71
74.47
81.87
83.42
72.59
48.45
16.87
-11.67
-28.22
-31.39
-27.33
-28.06
-44.08
-74.71
-106.78
-126.61
-127.47
-111.99
-89.66
-70.64
-60.10
-59.54
-65.83
-73.65
-77.11
-71.96
-56.37
-34.67
-9.88
16.12
42.67
68.60
92.43
112.33
126.80
135.13
136.99
133.35
125.55
115.17
104.21
94.53
87.08
81.67
77.58
73.17
68.13
63.08
59.24
57.67
58.23
59.14
57.31
50.16
35.30
12.93
-14.59
-43.82
-71.58
-96.07
-116.89
-134.76
-149.49
-161.67
-170.71
-175.75
-176.65
-174.78
-173.02
-174.44
-181.57
-183.44
-170.95
-139.95
-94.53
-44.17
1.39
35.36
54.95
58.84
51.89
37.55
19.27
0.29
-16.13
-27.23
-31.60
-22.41
-0.82
26.10
46.59
52.67
43.99
26.73
9.25
-2.37
-6.19
-6.77
-6.21
-6.14
-6.34
-5.68
-3.45
-0.02
3.34
5.41
4.83
3.06
1.00
-0.12
0.41
2.42
5.05
7.25
8.32
7.68
6.01
4.08
2.95
3.39
5.47
8.59
11.71
13.82
14.03
12.37
9.40
6.14
3.63
2.41
2.38
2.95
3.44
3.28
2.52
1.54
0.85
0.84
1.54
2.64
3.71
4.44
4.74
4.75
4.63
4.54
4.59
4.80
5.12
5.48
5.78
6.00
6.16
6.33
6.47
6.53
6.36
5.90
5.22
4.64
4.61
5.53
7.59
10.62
14.25
17.95
21.26
23.80
25.39
25.97
25.68
24.78
23.56
22.27
21.09
20.06
19.15
18.31
17.56
17.00
16.73
16.67
16.69
16.67
16.47
16.00
15.33
14.61
14.15
14.31
15.06
16.28
17.74
19.12
20.09
20.63
21.00
21.90
24.05
27.52
32.26
38.08
44.58
51.09
57.20
62.82
68.54
75.10
82.39
90.26
98.48
106.45
112.76
116.01
114.90
109.00
98.98
85.73
71.85
60.98
55.84
56.04
58.50
55.82
42.15
19.29
-11.06
-46.33
-81.95
-113.80
-140.11
-160.40
-174.52
-181.45
-179.16
-167.90
-149.36
-126.74
-98.42
-66.38
-33.55
-1.60
25.43
51.62
80.29
113.18
152.42
197.82
248.15
301.75
356.14
406.95
448.26
471.92
471.89
447.28
402.78
346.61
285.86
225.79
169.50
119.36
76.46
41.97
17.21
2.47
-3.98
-10.03
-23.43
-48.06
-81.74
-118.95
-153.59
-181.39
-201.17
-215.11
-234.66
-270.25
-325.96
-397.24
-474.52
-548.30
-612.04
-663.19
-702.84
-743.46
-795.95
-863.64
-940.67
-1016.49
-1081.34
-1127.98
-1150.59
-1087.56
-904.26
-609.69
-258.95
78.82
353.51
543.85
651.95
694.88
696.57
671.20
629.26
579.38
530.17
488.90
459.54
443.09
438.83
444.58
449.19
442.49
420.19
386.00
348.47
316.12
294.44
285.47
287.94
293.32
293.62
284.96
268.81
249.84
232.56
219.22
209.10
203.96
199.82
192.52
179.85
162.38
142.54
122.99
105.66
91.57
80.97
71.96
62.81
52.54
41.10
29.13
17.45
6.78
-2.21
-8.91
-13.47
-16.18
-17.63
-18.71
-20.36
-23.30
-27.71
-33.07
-38.30
-42.55
-45.27
-46.66
-47.75
-50.09
-55.13
-63.62
-75.37
-89.51
-105.06
-121.46
-138.88
-158.27
-181.17
-209.47
-245.24
-290.00
-343.68
-403.29
-462.22
-511.13
-540.37
-543.05
-517.30
-466.64
-398.29
-320.61
-240.74
-163.81
-93.18
-31.36
19.51
58.09
84.47
100.59
109.78
115.72
121.24
127.74
135.28
142.99
149.96
155.67
160.12
163.62
166.42
168.53
169.73
169.74
168.31
165.22
160.05
152.15
140.83
125.68
106.71
84.33
58.91
30.22
-2.69
-41.03
-85.10
-133.19
-181.14
-223.29
-254.37
-271.68
-276.24
-272.25
-265.14
-259.07
-255.45
-252.88
-248.83
-241.49
-230.86
-218.45
-205.86
-193.46
-179.91
-162.99
-140.98
-113.74
-82.91
-51.10
-20.72
6.87
31.44
53.20
72.25
88.19
100.56
109.56
116.52
123.95
134.56
150.22
170.97
194.82
218.20
237.10
248.24
249.92
242.47
228.21
210.89
194.91
184.35
181.91
188.14
201.19
217.33
231.93
240.92
241.81
234.21
219.75
201.47
182.87
167.18
156.56
151.63
151.34
153.36
154.80
153.00
146.39
134.60
118.24
98.35
75.88
51.47
25.52
-1.44
-28.60
-54.76
-78.62
-99.00
-115.19
-127.14
-135.36
-140.84
-144.68
-147.87
-151.04
-154.32
-157.46
-160.01
-161.41
-161.41
-160.05
-157.73
-154.99
-152.39
-150.27
-148.72
-147.63
-146.81
-146.00
-145.01
-143.64
-141.81
-139.55
-137.11
-134.91
-133.39
-132.86
-133.24
-134.13
-135.01
-135.54
-135.80
-136.37
-137.96
-141.03
-145.17
-148.91
-149.90
-145.64
-134.35
-115.75
-91.30
-63.83
-36.57
-12.29
7.42
22.19
32.43
38.77
41.68
41.40
38.23
32.80
26.12
19.42
13.81
9.90
7.79
7.11
7.36
8.04
8.86
9.67
10.45
11.27
12.18
13.27
14.50
15.73
16.62
16.74
15.56
12.62
7.67
0.54
-8.13
-16.67
-22.72
-24.08
-19.49
-9.11
5.63
22.64
39.47
54.58
67.73
79.74
91.55
103.53
115.13
125.21
132.62
135.80
134.49
130.10
125.12
121.73
120.89
122.23
124.67
127.10
126.18
120.00
109.39
97.26
86.42
78.30
73.16
70.90
71.44
69.04
59.45
42.76
22.98
4.26
-11.32
-23.32
-31.79
-36.84
-47.49
-70.36
-104.88
-144.05
-180.77
-211.85
-237.53
-259.58
-279.96
-311.81
-364.44
-437.18
-520.77
-606.02
-689.12
-770.79
-853.60
-867.43
-774.96
-594.88
-387.33
-202.09
-55.21
59.82
155.36
240.45
318.42
376.91
405.68
405.40
387.34
364.42
344.70
330.91
322.72
318.79
309.27
287.68
255.47
220.63
190.78
169.08
154.93
146.31
141.48
134.01
119.95
100.41
80.43
64.54
54.40
48.78
46.29
45.46
42.68
35.74
25.07
13.09
2.10
-6.66
-13.21
-17.95
-21.33
-24.52
-28.19
-32.23
-35.95
-38.97
-40.97
-42.33
-43.63
-45.45
-48.22
-52.20
-57.55
-64.40
-72.89
-82.41
-92.54
-102.86
-112.92
-122.18
-129.92
-135.13
-136.24
-136.20
-135.61
-134.73
-133.63
-132.33
-130.85
-129.17
-127.35
-125.47
-123.70
-121.48
-118.52
-114.59
-109.55
-103.29
-95.73
-86.82
-76.52
-64.90
-51.44
-35.93
-18.34
1.17
22.21
44.29
66.81
89.16
110.79
131.56
151.29
169.70
186.45
201.07
213.11
222.16
228.03
230.71
230.51
227.73
222.54
214.91
204.69
191.74
176.15
158.36
139.15
119.65
100.99
84.33
70.82
61.57
57.52
58.87
