1660926247.00
64.000000
-0.00
-0.00
-0.00
-0.00
-0.00
-0.00
-0.00
-0.00
-0.00
-0.00
0.00
0.01
0.01
-0.00
-0.03
-0.05
-0.05
0.00
0.13
0.36
0.66
1.01
1.37
1.72
2.06
2.40
2.79
3.25
3.81
4.44
5.09
5.73
6.32
6.91
7.54
8.27
9.14
10.23
11.42
12.60
13.67
14.61
15.50
16.52
17.88
19.70
22.17
25.08
28.13
31.08
33.80
36.41
39.26
42.78
47.22
52.90
59.41
66.24
72.87
79.08
85.06
91.38
98.70
107.40
117.85
129.38
141.18
152.52
163.13
173.33
183.91
196.15
208.46
222.68
239.10
257.74
277.66
296.44
310.30
314.88
306.73
284.47
249.81
206.05
157.36
107.31
58.07
10.63
-34.74
-77.84
-118.41
-156.16
-191.80
-226.67
-262.30
-299.39
-336.93
-371.89
-399.81
-416.40
-418.98
-407.83
-386.01
-358.20
-328.94
-301.13
-275.69
-252.10
-229.52
-207.56
-186.62
-167.42
-150.38
-135.27
-121.41
-108.03
-94.73
-81.62
-69.18
-58.01
-48.39
-40.22
-33.02
-26.19
-19.26
-12.12
-4.98
1.68
7.40
11.89
15.16
17.52
19.44
21.31
23.28
25.22
26.79
27.68
27.77
27.23
26.48
25.91
25.77
25.96
26.20
26.12
25.53
24.48
23.22
22.07
21.21
20.64
20.24
19.83
19.31
18.71
18.10
17.55
17.07
16.64
16.21
15.77
15.35
14.98
14.66
14.34
13.98
13.55
13.10
12.70
12.42
12.26
12.15
11.98
11.64
11.07
10.30
9.39
8.44
7.54
6.79
6.22
5.89
5.79
5.87
6.08
6.30
6.42
6.33
5.98
5.39
4.64
3.88
3.26
2.91
2.86
3.01
3.20
3.25
2.99
2.38
1.49
0.48
-0.47
-1.18
-1.58
-1.66
-1.51
-1.26
-1.04
-0.95
-1.00
-1.06
-0.94
-0.47
0.45
1.69
2.96
3.84
4.01
3.31
1.88
0.05
-1.70
-2.99
-3.59
-3.44
-2.71
-1.67
-0.64
0.12
0.44
0.24
-0.44
-1.45
-2.62
-3.69
-4.43
-4.64
-4.26
-3.41
-2.39
-1.57
-1.26
-1.55
-2.28
-3.11
-3.67
-3.74
-3.37
-2.79
-2.29
-2.08
-2.17
-2.44
-2.68
-2.74
-2.56
-2.18
-1.71
-1.26
-0.91
-0.72
-0.68
-0.72
-0.76
-0.68
-0.36
0.22
0.99
1.79
2.40
2.69
2.59
2.21
1.71
1.27
0.98
0.88
0.88
0.90
0.85
0.74
0.62
0.64
0.92
1.56
2.52
3.64
4.72
5.56
6.06
6.24
6.21
6.09
5.94
5.79
5.65
5.57
5.57
5.66
5.78
5.74
5.39
4.64
3.57
2.38
1.33
0.65
0.44
0.68
1.27
2.09
2.98
3.82
4.45
4.74
4.62
4.08
3.24
2.23
1.23
0.35
-0.33
-0.79
-1.02
-1.07
-0.99
-0.86
-0.73
-0.62
-0.54
-0.48
-0.44
-0.42
-0.43
-0.44
-0.40
-0.25
0.02
0.40
0.80
1.11
1.22
1.03
0.50
-0.33
-1.28
-2.01
-2.17
-1.43
0.27
2.68
5.32
7.58
8.99
9.33
8.68
7.33
5.60
3.80
2.13
0.69
-0.45
-1.28
-1.79
-2.07
-2.19
-2.27
-2.41
-2.68
-3.09
-3.60
-4.07
-4.35
-4.38
-4.20
-4.01
-4.05
-4.47
-5.20
-5.93
-6.23
-5.71
-4.20
-1.79
1.19
4.30
7.13
9.34
10.75
11.30
11.01
10.01
8.49
6.73
5.02
3.64
2.77
2.39
2.31
2.20
1.76
0.83
-0.51
-1.99
-3.24
-3.92
-3.84
-2.96
-1.43
0.57
2.75
4.83
6.56
7.75
8.33
8.31
7.85
7.14
6.38
5.76
5.41
5.36
5.55
5.83
5.99
5.88
5.45
4.74
3.85
2.84
1.77
0.61
-0.60
-1.76
-2.70
-3.25
-3.31
-2.95
-2.34
-1.73
-1.29
-1.12
-1.19
-1.41
-1.66
-1.86
-1.97
-1.99
-1.97
-1.95
-1.97
-2.05
-2.17
-2.28
-2.36
-2.39
-2.36
-2.28
-2.13
-1.90
-1.59
-1.22
-0.82
-0.46
-0.19
-0.05
-0.03
-0.11
-0.22
-0.27
-0.22
-0.07
0.11
0.25
0.22
-0.01
-0.42
-0.89
-1.27
-1.42
-1.28
-0.91
-0.44
-0.05
0.12
0.01
-0.30
-0.68
-0.97
-1.02
-0.84
-0.46
-0.01
0.38
0.67
0.85
0.97
1.09
1.24
1.37
1.43
1.37
1.21
1.01
0.82
0.67
0.53
0.39
0.22
0.07
0.03
0.12
0.35
0.60
0.73
0.65
0.33
-0.16
-0.70
-1.16
-1.48
-1.64
-1.72
-1.78
-1.84
-1.90
-1.90
-1.80
-1.60
-1.35
-1.14
-1.01
-0.96
-0.97
-0.99
-1.02
-1.07
-1.15
-1.20
-1.13
-0.84
-0.31
0.36
0.99
1.40
1.54
1.52
1.57
1.94
2.78
4.06
5.55
6.94
7.89
8.21
7.87
6.99
5.72
4.18
2.47
0.64
-1.23
-3.00
-4.52
-5.65
-6.31
-6.49
-6.21
-5.49
-4.41
-3.12
-1.81
-0.71
0.00
0.32
0.37
0.36
0.43
0.63
0.88
1.05
1.05
0.90
0.69
0.52
0.43
0.41
0.41
0.41
0.41
0.46
0.61
0.85
1.12
1.36
1.51
1.57
1.59
1.64
1.78
2.02
2.31
2.55
2.68
2.64
2.45
2.16
1.84
1.52
1.21
0.89
0.52
0.13
-0.26
-0.58
-0.79
-0.84
-0.76
-0.56
-0.32
-0.06
0.20
0.45
0.71
0.97
1.19
1.29
1.19
0.82
0.23
-0.49
-1.17
-1.65
-1.84
-1.77
-1.56
-1.34
-1.19
-1.12
-1.09
-1.03
-0.91
-0.76
-0.64
-0.62
-0.68
-0.76
-0.76
-0.60
-0.28
0.16
0.62
0.97
1.15
1.12
0.90
0.57
0.22
-0.07
-0.26
-0.37
-0.45
-0.52
-0.59
-0.62
-0.55
-0.35
-0.03
0.34
0.67
0.87
0.92
0.83
0.66
0.50
0.36
0.26
0.19
0.14
0.09
0.06
0.04
-0.00
-0.08
-0.20
-0.35
-0.47
-0.49
-0.37
-0.15
0.13
0.38
0.53
0.57
0.48
0.34
0.19
0.07
0.02
0.01
0.00
-0.02
-0.08
-0.14
-0.16
-0.07
0.14
0.45
0.79
1.08
1.27
1.32
1.24
1.06
0.82
0.53
0.22
-0.07
-0.32
-0.48
-0.52
-0.42
-0.19
0.11
0.41
0.60
0.59
0.35
-0.12
-0.71
-1.28
-1.72
-1.94
-1.94
-1.74
-1.37
-0.86
-0.26
0.35
0.89
1.26
1.40
1.31
1.04
0.67
0.26
-0.15
-0.54
-0.88
-1.15
-1.28
-1.27
-1.13
-0.92
-0.72
-0.63
-0.69
-0.87
-1.10
-1.28
-1.30
-1.13
-0.77
-0.30
0.22
0.73
1.22
1.66
2.02
2.26
2.33
2.18
1.84
1.43
1.08
0.89
0.93
1.12
1.36
1.50
1.47
1.27
0.98
0.68
0.43
0.21
-0.04
-0.40
-0.87
-1.36
-1.74
-1.85
-1.64
-1.18
-0.65
-0.23
-0.03
-0.03
-0.13
-0.20
-0.21
-0.18
-0.16
-0.17
-0.14
-0.02
0.22
0.52
0.73
0.71
0.39
-0.17
-0.85
-1.48
-1.92
-2.10
-1.98
-1.63
-1.13
-0.59
-0.12
0.23
0.42
0.50
0.48
0.38
0.26
0.15
0.12
0.18
0.31
0.46
0.53
0.51
0.42
0.31
0.25
0.28
0.41
0.58
0.75
0.86
0.88
0.79
0.62
0.42
0.22
0.05
-0.12
-0.30
-0.54
-0.81
-1.05
-1.15
-1.05
-0.74
-0.25
0.31
0.81
1.16
1.25
1.08
0.70
0.22
-0.22
-0.52
-0.63
-0.59
-0.49
-0.38
-0.28
-0.15
0.05
0.35
0.68
0.93
0.99
0.84
0.50
0.11
-0.22
-0.43
-0.50
-0.51
-0.51
-0.54
-0.59
-0.67
-0.73
-0.77
-0.80
-0.80
-0.78
-0.71
-0.58
-0.40
-0.18
0.06
0.31
0.58
0.84
1.05
1.17
1.15
1.00
0.77
0.58
0.51
0.59
0.76
0.90
0.89
0.68
0.32
-0.10
-0.46
-0.67
-0.73
-0.66
-0.55
-0.47
-0.47
-0.60
-0.84
-1.13
-1.36
-1.41
-1.20
-0.73
-0.10
0.51
0.95
1.15
1.14
1.02
0.89
0.78
0.66
0.48
0.24
-0.01
-0.16
-0.14
0.07
0.39
0.72
0.95
1.01
0.89
0.63
0.33
0.08
-0.04
-0.04
0.00
-0.04
-0.22
-0.50
-0.73
-0.76
-0.53
-0.11
0.28
0.45
0.31
-0.09
-0.56
-0.93
-1.06
-0.94
-0.64
-0.29
-0.01
0.12
0.10
-0.01
-0.13
-0.17
-0.09
0.08
0.25
0.37
0.41
0.41
0.41
0.43
0.45
0.43
0.33
0.16
-0.03
-0.16
-0.18
-0.11
-0.01
0.04
0.01
-0.12
-0.26
-0.36
-0.35
-0.26
-0.15
-0.09
-0.12
-0.18
-0.23
-0.20
-0.10
0.02
0.08
0.05
-0.03
-0.08
-0.07
0.02
0.11
0.12
-0.00
-0.24
-0.52
-0.75
-0.88
-0.92
-0.91
-0.92
-0.97
-1.07
-1.16
-1.21
-1.17
-1.04
-0.82
-0.53
-0.21
0.09
0.33
0.50
0.62
0.78
1.03
1.34
1.64
1.78
1.68
1.34
0.88
0.43
0.09
-0.14
-0.34
-0.56
-0.75
-0.83
-0.69
-0.33
0.18
0.70
1.10
1.33
1.40
1.38
1.33
1.28
1.26
1.26
1.26
1.26
1.23
1.17
1.13
1.14
1.23
1.37
1.51
1.57
1.54
1.46
1.42
1.51
1.75
2.14
2.59
3.05
3.45
3.77
3.98
4.06
3.99
3.83
3.61
3.40
3.22
3.07
2.88
2.60
2.23
1.76
1.19
0.48
-0.40
-1.44
-2.52
-3.45
-4.04
-4.20
-4.00
-3.64
-3.32
-3.19
-3.22
-3.31
-3.36
-3.33
-3.26
-3.26
-3.41
-3.70
-4.03
-4.29
-4.35
-4.18
-3.78
-3.24
-2.63
-2.04
-1.55
-1.22
-1.13
-1.30
-1.72
-2.25
-2.71
-2.87
-2.62
-1.98
-1.16
-0.49
-0.24
-0.53
-1.27
-2.20
-3.04
-3.58
-3.78
-3.72
-3.54
-3.31
-3.05
-2.74
-2.36
-1.94
-1.46
-0.85
0.05
1.37
3.11
5.02
6.71
7.72
7.81
7.00
5.59
3.96
2.48
1.35
0.61
0.20
0.00
-0.10
-0.22
-0.46
-0.82
-1.22
-1.53
-1.57
-1.26
-0.63
0.22
1.11
1.89
2.48
2.79
2.77
2.42
1.75
0.90
0.06
-0.57
-0.83
-0.72
-0.34
0.14
0.56
0.85
1.01
1.08
1.06
0.95
0.73
0.43
0.09
-0.18
-0.33
-0.34
-0.24
-0.09
0.11
0.40
0.87
1.62
2.66
3.89
5.07
5.96
6.38
6.27
5.73
4.90
3.89
2.72
1.35
-0.22
-1.86
-3.33
-4.37
-4.79
-4.57
-3.84
-2.88
-1.93
-1.20
-0.74
-0.55
-0.54
-0.65
-0.80
-0.99
-1.22
-1.50
-1.79
-2.04
-2.19
-2.20
-2.08
-1.89
-1.67
-1.48
-1.29
-1.08
-0.83
-0.59
-0.42
-0.40
-0.57
-0.90
-1.27
-1.58
-1.76
-1.82
-1.84
-1.86
-1.90
-1.92
-1.85
-1.67
-1.39
-1.07
-0.76
-0.44
-0.07
0.42
1.05
1.79
2.58
3.32
3.88
4.18
4.10
3.63
2.82
1.84
0.88
0.11
-0.37
-0.63
-0.78
-0.94
-1.16
-1.40
-1.54
-1.51
-1.32
-1.08
-0.90
-0.86
-0.93
-1.03
-1.04
-0.89
-0.62
-0.33
-0.12
-0.02
0.03
0.13
0.37
0.74
1.15
1.47
1.59
1.49
1.21
0.79
0.29
-0.23
-0.70
-1.05
-1.17
-0.98
-0.50
0.17
0.84
1.35
1.60
1.60
1.44
1.23
1.05
0.93
0.90
0.97
1.10
1.22
1.24
1.06
0.69
0.20
-0.26
-0.58
-0.70
-0.66
-0.55
-0.49
-0.50
-0.55
-0.59
-0.59
-0.58
-0.58
-0.64
-0.70
-0.73
-0.69
-0.56
-0.41
-0.27
-0.18
-0.08
0.07
0.29
0.56
0.79
0.86
0.70
0.34
-0.12
-0.52
-0.74
-0.75
-0.61
-0.41
-0.24
-0.13
-0.07
-0.02
-0.00
-0.05
-0.22
-0.50
-0.82
-1.05
-1.08
-0.87
-0.49
-0.10
0.18
0.25
0.14
-0.04
-0.19
-0.20
-0.08
0.13
0.37
0.56
0.67
0.67
0.56
0.39
0.23
0.16
0.25
0.49
0.83
1.15
1.34
1.35
1.18
0.91
0.64
0.46
0.38
0.36
0.33
0.25
0.12
-0.02
-0.13
-0.17
-0.17
-0.19
-0.28
-0.42
-0.58
-0.70
-0.75
-0.75
-0.74
-0.78
-0.87
-0.97
-1.05
-1.09
-1.07
-1.03
-0.98
-0.90
-0.75
-0.54
-0.28
-0.05
0.08
0.09
-0.02
-0.15
-0.20
-0.09
0.17
0.51
0.83
1.03
1.07
0.98
0.81
0.62
0.47
0.37
0.31
0.24
0.14
0.02
-0.08
-0.08
0.06
0.31
0.58
0.71
0.63
0.35
-0.01
-0.30
-0.43
-0.41
-0.31
-0.22
-0.20
-0.21
-0.24
-0.24
-0.22
-0.18
-0.13
-0.08
0.00
0.12
0.28
0.45
0.60
0.72
0.78
0.72
0.51
0.13
-0.35
-0.82
-1.15
-1.24
-1.11
-0.83
-0.57
-0.41
-0.38
-0.39
-0.38
-0.28
-0.15
-0.04
0.00
-0.01
-0.03
0.01
0.09
0.14
0.05
-0.22
-0.63
-1.04
-1.29
-1.27
-0.95
-0.43
0.14
0.63
0.92
0.98
0.85
0.61
0.35
0.17
0.11
0.20
0.41
0.67
0.93
1.12
1.16
1.04
0.77
0.40
0.02
-0.27
-0.40
-0.36
-0.20
-0.02
0.13
0.21
0.24
0.28
0.36
0.49
0.62
0.72
0.73
0.65
0.51
0.35
0.20
0.10
0.01
-0.05
-0.10
-0.13
-0.11
-0.03
0.08
0.22
0.34
0.43
0.51
0.55
0.53
0.45
0.31
0.14
0.01
-0.04
-0.02
-0.02
-0.13
-0.40
-0.77
-1.15
-1.43
-1.56
-1.57
-1.52
-1.44
-1.36
-1.23
-1.01
-0.72
-0.39
-0.11
0.05
0.07
-0.03
-0.18
-0.29
-0.31
-0.21
-0.03
0.19
0.38
0.54
0.68
0.87
1.09
1.33
1.47
1.43
1.17
0.78
0.38
0.11
0.04
0.13
0.25
0.29
0.20
0.02
-0.15
-0.23
-0.20
-0.10
-0.06
-0.16
-0.41
-0.75
-1.07
-1.26
-1.27
-1.13
-0.87
-0.56
-0.24
0.05
0.28
0.43
0.46
0.38
0.18
-0.09
-0.38
-0.62
-0.77
-0.77
-0.62
-0.33
0.06
0.48
0.90
1.29
1.63
1.91
2.06
2.01
1.68
1.07
0.29
-0.46
-0.97
-1.06
-0.75
-0.18
0.39
0.70
0.63
0.25
-0.25
-0.68
-0.94
-1.06
-1.12
-1.19
-1.25
-1.19
-0.93
-0.44
0.12
0.57
0.74
0.59
0.21
-0.26
-0.67
-0.93
-1.04
-1.00
-0.82
-0.54
-0.18
0.19
0.52
0.76
0.89
0.94
0.93
0.85
0.70
0.48
0.25
0.10
0.12
0.30
0.57
0.78
0.83
0.66
0.33
-0.04
-0.34
-0.50
-0.51
-0.40
-0.20
0.02
0.23
0.36
0.38
0.28
0.13
-0.02
-0.09
-0.05
0.05
0.15
0.18
0.08
-0.12
-0.34
-0.48
-0.42
-0.18
0.16
0.42
0.44
0.20
-0.19
-0.56
-0.75
-0.72
-0.59
-0.48
-0.47
-0.52
-0.55
-0.47
-0.30
-0.12
-0.04
-0.12
-0.34
-0.65
-0.96
-1.21
-1.37
-1.41
-1.34
-1.21
-1.11
-1.12
-1.28
-1.55
-1.80
-1.96
-1.98
-1.85
-1.61
-1.26
-0.81
-0.26
0.28
0.69
0.83
0.66
0.27
-0.11
-0.28
-0.10
0.38
0.99
1.48
1.72
1.65
1.38
1.07
0.90
0.97
1.30
1.83
2.44
3.01
3.42
3.59
3.48
3.08
2.42
1.56
0.55
-0.49
-1.42
-2.07
-2.26
-1.91
-1.04
0.17
1.43
2.45
2.99
2.97
2.47
1.67
0.80
0.05
-0.45
-0.69
-0.71
-0.60
-0.41
-0.17
0.11
0.44
0.78
1.06
1.18
1.08
0.73
0.17
-0.46
-1.01
-1.34
-1.36
-1.10
-0.66
-0.20
0.16
0.35
0.37
0.21
-0.08
-0.46
-0.90
-1.30
-1.58
-1.69
-1.62
-1.41
-1.11
-0.79
-0.48
-0.18
0.08
0.26
0.29
0.17
-0.08
-0.36
-0.57
-0.61
-0.49
-0.26
-0.05
0.04
-0.06
-0.32
-0.63
-0.84
-0.86
-0.70
-0.45
-0.25
-0.20
-0.31
-0.50
-0.66
-0.73
-0.71
-0.63
-0.54
-0.41
-0.21
0.11
0.52
0.92
1.21
1.31
1.24
1.05
0.81
0.60
0.41
0.23
0.05
-0.09
-0.14
-0.05
0.22
0.59
0.95
1.16
1.11
0.85
0.48
0.17
0.03
0.07
0.16
0.12
-0.16
-0.66
-1.25
-1.73
-1.98
-2.04
-2.03
-2.13
-2.39
-2.78
-3.16
-3.44
-3.62
-3.81
-4.19
-4.87
-5.85
-6.96
-7.94
-8.58
-8.80
-8.74
-8.68
-8.95
-9.79
-11.25
-13.21
-15.41
-17.63
-19.75
-21.83
-24.07
-26.66
-29.74
-33.31
-37.26
-41.39
-45.56
-49.66
-53.73
-57.91
-62.41
-67.41
-72.98
-79.02
-85.26
-91.47
-97.52
-103.56
-109.95
-117.01
-124.92
-133.69
-143.34
-154.06
-166.04
-178.84
-190.83
-199.09
-199.92
-190.19
-168.46
-135.43
-93.37
-45.06
6.96
60.25
111.87
157.85
193.73
215.96
223.57
218.76
206.17
190.92
176.72
164.94
155.06
145.82
136.46
127.09
118.41
110.94
104.64
98.88
92.88
86.18
78.85
71.46
64.73
59.20
54.92
51.53
48.37
44.89
40.87
36.53
32.40
29.03
26.70
25.29
24.37
23.42
22.14
20.60
19.20
18.44
18.64
19.70
21.14
22.31
22.76
22.47
21.93
21.87
22.90
25.12
28.07
30.97
33.15
34.41
35.06
35.70
36.80
38.52
40.72
43.24
45.81
47.85
48.02
44.31
34.76
18.61
-2.71
-25.63
-45.63
-59.05
-64.56
-63.53
-58.94
-53.75
-49.59
-46.39
-43.17
-39.06
-34.09
-29.11
-25.15
-22.70
-21.37
-20.18
-18.07
-14.59
-10.21
-6.01
-3.02
-1.42
-0.23
2.48
8.67
19.36
33.96
50.36
65.77
77.81
85.33
88.69
89.31
88.94
89.00
90.36
93.34
97.73
102.59
105.94
104.72
95.39
75.17
43.41
2.40
-42.98
-86.62
-123.16
-149.54
-165.51
-173.18
-175.68
-175.87
-175.34
-174.19
-171.45
-165.93
-157.03
-145.36
-132.67
-121.31
-113.43
-110.42
-112.63
-119.33
-128.69
-137.66
-142.10
-137.51
-120.49
-90.30
-49.81
-5.05
36.69
69.27
89.64
98.22
97.91
92.37
84.56
76.23
68.17
60.76
54.39
49.26
45.23
41.59
37.41
32.00
25.53
19.10
14.42
13.04
15.60
21.49
29.05
36.21
41.28
43.47
42.96
40.58
37.35
34.05
31.03
28.27
25.60
22.91
20.22
17.74
15.68
14.16
13.10
12.29
11.46
10.48
9.33
8.11
6.97
6.02
5.32
4.87
4.68
4.71
4.96
5.36
5.87
6.46
7.15
7.94
8.80
9.63
10.30
10.69
10.80
10.69
10.52
10.42
10.46
10.64
10.91
11.19
11.43
11.59
11.72
12.03
12.88
14.67
17.78
22.37
28.35
35.44
43.30
51.75
60.78
70.46
80.83
91.74
102.77
113.42
123.29
132.23
140.48
148.52
156.83
165.61
174.67
183.54
191.74
198.97
205.02
209.27
210.44
206.54
195.45
175.70
147.13
110.86
68.60
22.01
-27.55
-78.42
-127.86
-171.83
-205.84
-226.50
-233.08
-227.96
-215.60
-200.76
-186.70
-174.57
-163.87
-153.62
-143.39
-133.52
-124.74
-117.45
-111.33
-105.53
-99.13
-91.70
-83.46
-75.21
-67.86
-61.96
-57.52
-54.00
-50.61
-46.67
-41.90
-36.51
-31.08
-26.25
-22.46
-19.75
-17.77
-15.99
-13.98
-11.61
-9.05
-6.68
-4.78
-3.46
-2.56
-1.84
-1.12
-0.34
0.42
1.07
1.53
1.80
1.93
1.93
1.78
1.50
1.10
0.65
0.23
-0.10
-0.33
-0.51
-0.71
-0.96
-1.24
-1.49
-1.64
-1.65
-1.51
-1.28
-1.03
-0.81
-0.64
-0.48
-0.28
0.04
0.51
1.09
1.67
2.07
2.16
1.91
1.40
0.83
0.36
0.12
0.10
0.23
0.45
0.74
1.10
1.56
2.08
2.53
2.75
2.63
2.23
1.70
1.28
1.15
1.36
1.80
2.29
2.62
2.66
2.39
1.88
1.24
0.59
0.02
-0.42
-0.72
-0.85
-0.81
-0.62
-0.29
0.09
0.42
0.58
0.51
0.25
-0.10
-0.39
-0.57
-0.66
-0.79
-1.08
-1.59
-2.27
-2.99
-3.60
-4.01
-4.20
-4.19
-4.04
-3.76
-3.37
-2.87
-2.31
-1.77
-1.36
-1.17
-1.26
-1.59
-2.06
-2.50
-2.79
-2.82
-2.62
-2.25
-1.87
-1.58
-1.45
-1.42
-1.39
-1.25
-0.94
-0.46
0.12
0.71
1.25
1.73
2.15
2.53
2.82
2.96
2.89
2.56
1.96
1.12
0.13
-0.91
-1.87
-2.62
-3.05
-3.11
-2.82
-2.22
-1.41
-0.46
0.53
1.47
2.29
2.89
3.24
3.35
3.23
2.97
2.62
2.21
1.77
1.34
0.95
0.66
0.49
0.42
0.41
0.39
0.27
-0.03
-0.54
-1.21
-1.93
-2.52
-2.80
-2.62
-1.93
-0.82
0.58
2.05
3.41
4.53
5.29
5.67
5.66
5.22
4.35
3.00
1.22
-0.81
-2.79
-4.37
-5.25
-5.36
-4.82
-3.96
-3.08
-2.40
-1.95
-1.68
-1.57
-1.63
-1.98
-2.63
-3.52
-4.41
-5.04
-5.22
-4.91
-4.29
-3.58
-3.02
-2.71
-2.62
-2.65
-2.63
-2.41
-1.85
-0.86
0.58
2.38
4.35
6.21
7.64
8.38
8.32
7.49
6.10
4.42
2.71
1.16
-0.11
-1.06
-1.70
-2.03
-2.07
-1.82
-1.31
-0.57
0.30
1.21
2.06
2.73
3.14
3.23
3.04
2.63
2.15
1.76
1.59
1.72
2.11
2.66
3.22
3.54
3.44
2.81
1.71
0.37
-0.85
-1.63
-1.77
-1.31
-0.50
0.38
1.05
1.36
1.30
0.90
0.24
-0.61
-1.58
-2.57
-3.47
-4.15
-4.52
-4.54
-4.23
-3.68
-3.00
-2.31
-1.70
-1.20
-0.76
-0.33
0.13
0.57
0.88
0.90
0.55
-0.15
-1.05
-1.89
-2.44
-2.60
-2.38
-1.94
-1.51
-1.24
-1.22
-1.40
-1.66
-1.86
-1.89
-1.66
-1.14
-0.35
0.65
1.71
2.67
3.33
3.60
3.45
2.97
2.29
1.55
0.83
0.18
-0.35
-0.72
-0.89
-0.85
-0.65
-0.37
-0.09
0.15
0.36
0.57
0.82
1.09
1.33
1.52
1.66
1.81
2.04
2.35
2.66
2.86
2.83
2.54
2.00
1.31
0.57
-0.05
-0.45
-0.53
-0.27
0.22
0.79
1.29
1.60
1.73
1.73
1.65
1.45
1.09
0.50
-0.25
-1.01
-1.63
-2.02
-2.21
-2.34
-2.51
-2.74
-2.98
-3.10
-3.01
-2.72
-2.28
-1.77
-1.26
-0.85
-0.61
-0.64
-0.96
-1.48
-2.06
-2.50
-2.73
-2.72
-2.58
-2.41
-2.23
-2.06
-1.83
-1.53
-1.14
-0.66
-0.01
0.90
2.13
3.64
5.21
6.48
7.09
6.85
5.79
4.21
2.47
0.92
-0.28
-1.10
-1.64
-1.98
-2.13
-2.07
-1.75
-1.22
-0.58
-0.03
0.32
0.40
0.28
0.08
-0.08
-0.12
-0.06
0.09
0.30
0.56
0.86
1.20
1.54
1.80
1.90
1.78
1.42
0.90
0.37
0.03
0.03
0.39
0.98
1.58
1.97
2.08
1.94
1.71
1.50
1.32
1.10
0.76
0.27
-0.30
-0.87
-1.35
-1.74
-2.06
-2.35
-2.61
-2.78
-2.81
-2.70
-2.48
-2.20
-1.95
-1.76
-1.65
-1.62
-1.65
-1.74
-1.90
-2.15
-2.51
-2.93
-3.35
-3.63
-3.64
-3.34
-2.76
-2.03
-1.35
-0.84
-0.55
-0.41
-0.26
0.01
0.48
1.11
1.85
2.62
3.38
4.07
4.62
4.92
4.84
4.36
3.51
2.44
1.32
0.29
-0.55
-1.13
-1.38
-1.28
-0.82
-0.12
0.62
1.16
1.34
1.11
0.59
-0.02
-0.52
-0.73
-0.61
-0.19
0.44
1.17
1.89
2.51
3.00
3.30
3.40
3.30
3.02
2.64
2.23
1.84
1.54
1.33
1.16
0.98
0.79
0.59
0.47
0.48
0.65
0.89
1.08
1.01
0.57
-0.26
-1.38
-2.54
-3.54
-4.18
-4.47
-4.50
-4.46
-4.50
-4.67
-4.87
-4.95
-4.74
-4.21
-3.44
-2.65
-2.08
-1.90
-2.19
-2.85
-3.68
-4.39
-4.74
-4.60
-4.04
-3.29
-2.65
-2.36
-2.55
-3.18
-4.13
-5.16
-5.95
-6.08
-5.13
-2.89
0.56
4.68
8.67
11.69
13.16
12.94
11.31
8.82
6.06
3.51
1.46
0.04
-0.81
-1.25
-1.49
-1.70
-1.95
-2.21
-2.38
-2.33
-2.00
-1.36
-0.44
0.70
1.98
3.23
4.28
4.98
5.25
5.12
4.69
4.07
3.33
2.50
1.61
0.69
-0.21
-1.02
-1.65
-2.02
-2.12
-1.95
-1.60
-1.23
-1.00
-1.01
-1.29
-1.73
-2.18
-2.47
-2.50
-2.28
-1.85
-1.30
-0.69
-0.05
0.59
1.19
1.71
2.09
2.27
2.24
2.02
1.67
1.26
0.90
0.64
0.48
0.40
0.37
0.36
0.35
0.32
0.25
0.10
-0.12
-0.38
-0.61
-0.70
-0.59
-0.25
0.25
0.80
1.26
1.53
1.57
1.41
1.14
0.85
0.57
0.34
0.16
0.05
0.04
0.16
0.40
0.70
0.97
1.07
0.95
0.60
0.11
-0.40
-0.79
-1.00
-1.02
-0.93
-0.83
-0.78
-0.78
-0.77
-0.65
-0.39
-0.05
0.25
0.39
0.34
0.16
-0.05
-0.22
-0.37
-0.57
-0.84
-1.15
-1.38
-1.40
-1.14
-0.67
-0.13
0.33
0.60
0.67
0.60
0.45
0.32
0.22
0.17
0.13
0.08
0.03
-0.03
-0.04
-0.01
0.05
0.05
-0.10
-0.45
-0.93
-1.39
-1.63
-1.54
-1.10
-0.41
0.35
1.00
1.44
1.60
1.51
1.25
0.93
0.64
0.46
0.41
0.42
0.41
0.31
0.10
-0.18
-0.43
-0.61
-0.66
-0.61
-0.46
-0.25
0.00
0.24
0.37
0.33
0.10
-0.26
-0.61
-0.80
-0.77
-0.55
-0.24
0.02
0.17
0.20
0.13
0.00
-0.15
-0.30
-0.40
-0.43
-0.38
-0.29
-0.21
-0.19
-0.22
-0.25
-0.21
-0.06
0.17
0.41
0.59
0.65
0.61
0.47
0.25
-0.05
-0.42
-0.83
-1.17
-1.34
-1.27
-0.99
-0.60
-0.24
-0.03
0.02
-0.03
-0.06
-0.00
0.15
0.33
0.45
0.44
0.33
0.19
0.09
0.07
0.16
0.32
0.50
0.67
0.78
0.79
0.68
0.48
0.21
-0.06
-0.27
-0.39
-0.39
-0.31
-0.17
-0.01
0.15
0.28
0.38
0.44
0.44
0.35
0.17
-0.07
-0.29
-0.42
-0.38
-0.17
0.15
0.49
0.70
0.71
0.51
0.14
-0.26
-0.57
-0.70
-0.59
-0.31
0.01
0.25
0.30
0.14
-0.17
-0.51
-0.79
-0.92
-0.86
-0.64
-0.30
0.05
0.34
0.48
0.46
0.28
0.04
-0.17
-0.27
-0.24
-0.14
-0.01
0.07
0.08
0.06
0.04
0.05
0.09
0.13
0.13
0.09
-0.01
-0.13
-0.23
-0.29
-0.33
-0.34
-0.37
-0.41
-0.45
-0.42
-0.30
-0.11
0.07
0.14
0.02
-0.25
-0.55
-0.71
-0.63
-0.32
0.04
0.27
0.25
0.00
-0.34
-0.59
-0.65
-0.53
-0.30
-0.08
0.09
0.24
0.43
0.68
0.97
1.24
1.41
1.44
1.32
1.13
0.94
0.79
0.73
0.72
0.73
0.68
0.53
0.25
-0.09
-0.39
-0.53
-0.45
-0.20
0.13
0.41
0.53
0.46
0.21
-0.15
-0.58
-1.01
-1.35
-1.54
-1.49
-1.15
-0.59
0.09
0.69
1.08
1.17
0.98
0.64
0.33
0.21
0.32
0.61
0.90
1.03
0.89
0.50
-0.00
-0.42
-0.62
-0.59
-0.41
-0.19
-0.03
0.05
0.09
0.10
0.10
0.06
-0.02
-0.11
-0.13
-0.01
0.27
0.65
1.01
1.20
1.11
0.75
0.17
-0.46
-0.98
-1.25
-1.23
-0.97
-0.61
-0.30
-0.15
-0.17
-0.31
-0.47
-0.53
-0.46
-0.26
-0.03
0.13
0.12
-0.06
-0.34
-0.62
-0.81
-0.84
-0.74
-0.58
-0.42
-0.31
-0.23
-0.15
-0.04
0.09
0.22
0.31
0.31
0.22
0.06
-0.09
-0.20
-0.23
-0.23
-0.26
-0.33
-0.39
-0.39
-0.27
-0.04
0.23
0.45
0.56
0.57
0.52
0.45
0.35
0.23
0.06
-0.14
-0.32
-0.43
-0.45
-0.38
-0.27
-0.13
0.01
0.14
0.25
0.35
0.41
0.43
0.40
0.36
0.32
0.30
0.28
0.26
0.23
0.19
0.16
0.13
0.11
0.06
-0.04
-0.18
-0.33
-0.43
-0.41
-0.26
-0.02
0.25
0.49
0.67
0.76
0.76
0.68
0.51
0.28
0.04
-0.16
-0.28
-0.33
-0.38
-0.47
-0.62
-0.76
-0.81
-0.66
-0.34
0.05
0.36
0.46
0.32
0.03
-0.29
-0.50
-0.56
-0.47
-0.28
-0.07
0.15
0.37
0.56
0.71
0.79
0.80
0.71
0.52
0.25
-0.04
-0.29
-0.42
-0.39
-0.20
0.03
0.22
0.29
0.22
0.08
-0.05
-0.10
-0.08
-0.05
-0.04
-0.04
-0.01
0.08
0.23
0.37
0.40
0.28
0.02
-0.27
-0.49
-0.55
-0.47
-0.30
-0.12
0.02
0.11
0.17
0.22
0.27
0.32
0.36
0.39
0.39
0.34
0.22
0.04
-0.14
-0.26
-0.24
-0.08
0.15
0.33
0.38
0.29
0.13
0.02
0.06
0.23
0.43
0.54
0.49
0.29
0.04
-0.17
-0.27
-0.30
-0.30
-0.35
-0.43
-0.50
-0.48
-0.35
-0.13
0.07
0.18
0.19
0.13
0.10
0.15
0.24
0.28
0.19
-0.04
-0.27
-0.36
-0.20
0.17
0.57
0.77
0.64
0.22
-0.30
-0.70
-0.87
-0.81
-0.65
-0.54
-0.54
-0.64
-0.72
-0.70
-0.51
-0.24
0.03
0.18
0.16
0.01
-0.19
-0.32
-0.31
-0.16
0.10
0.37
0.58
0.67
0.65
0.51
0.28
0.02
-0.24
-0.45
-0.58
-0.60
-0.52
-0.34
-0.11
0.13
0.32
0.43
0.42
0.32
0.18
0.08
0.10
0.22
0.38
0.46
0.38
0.15
-0.14
-0.37
-0.47
-0.43
-0.34
-0.25
-0.18
-0.11
0.01
0.19
0.38
0.50
0.49
0.32
0.09
-0.12
-0.19
-0.08
0.18
0.50
0.77
0.91
0.90
0.78
0.62
0.46
0.32
0.17
-0.01
-0.23
-0.46
-0.65
-0.79
-0.86
-0.88
-0.88
-0.87
-0.86
-0.87
-0.91
-0.94
-0.94
-0.86
-0.68
-0.41
-0.11
0.16
0.34
0.40
0.37
0.25
0.08
-0.10
-0.24
-0.28
-0.17
0.07
0.38
0.64
0.76
0.71
0.55
0.37
0.26
0.25
0.30
0.36
0.40
0.42
0.47
0.54
0.56
0.46
0.18
-0.23
-0.63
-0.87
-0.85
-0.60
-0.25
0.00
0.05
-0.15
-0.51
-0.90
-1.20
-1.34
-1.31
-1.14
-0.90
-0.65
-0.45
-0.34
-0.33
-0.38
-0.47
-0.61
-0.83
-1.20
-1.73
-2.41
-3.13
-3.81
-4.39
-4.90
-5.37
-5.85
-6.34
-6.82
-7.32
-7.90
-8.63
-9.56
-10.62
-11.69
-12.61
-13.30
-13.79
-14.19
-14.64
-15.25
-16.05
-17.05
-18.22
-19.52
-20.93
-22.50
-24.35
-26.63
-29.42
-32.68
-36.14
-39.41
-42.16
-44.33
-46.19
-48.34
-51.44
-55.97
-62.05
-69.34
-77.17
-84.78
-91.63
-97.57
-102.95
-108.40
-114.66
-122.34
-131.89
-143.63
-157.71
-173.67
-189.96
-203.76
-211.31
-208.98
-194.58
-168.18
-131.81
-88.39
-40.51
10.10
61.95
112.78
158.95
196.07
220.63
231.63
231.33
224.36
215.86
209.53
206.63
206.28
206.59
205.99
203.99
201.06
198.17
196.15
195.34
195.59
196.34
196.94
196.79
195.45
192.72
188.63
183.54
178.13
173.36
170.08
168.51
167.68
165.16
157.42
140.77
112.81
73.64
26.37
-23.46
-69.48
-106.37
-131.26
-144.12
-147.08
-143.18
-135.25
-125.26
-114.41
-103.45
-93.04
-83.80
-76.18
-70.29
-65.79
-62.09
-58.62
-55.00
-51.12
-47.03
-42.79
-38.31
-33.28
-27.23
-19.80
-11.24
-2.67
3.93
6.34
3.09
-5.71
-18.14
-31.05
-41.27
-46.85
-47.64
-44.99
-40.86
-36.82
-33.49
-30.68
-27.95
-25.14
-22.52
-20.52
-19.36
-18.81
-18.31
-17.30
-15.45
-12.95
-10.28
-8.00
-6.39
-5.36
-4.51
-3.35
-1.54
0.93
3.76
6.57
9.04
11.02
12.55
13.80
14.91
16.11
17.68
19.85
22.59
25.23
26.37
24.29
17.70
6.68
-7.05
-20.60
-31.01
-36.47
-37.01
-34.18
-30.18
-26.73
-24.62
-23.71
-23.52
-23.64
-23.68
-23.03
-20.72
-15.76
-7.87
1.90
11.32
17.69
19.10
15.33
7.91
-0.61
-7.89
-12.65
-14.85
-15.30
-14.87
-14.05
-12.98
-11.66
-10.28
-9.23
-8.85
-9.23
-10.07
-10.83
-11.03
-10.41
-9.12
-7.54
-6.16
-5.32
-5.13
-5.41
-5.86
-6.17
-6.14
-5.78
-5.26
-4.87
-4.81
-5.18
-5.85
-6.56
-7.03
-7.10
-6.80
-6.31
-5.88
-5.73
-5.92
-6.29
-6.44
-5.85
-4.13
-1.25
2.32
5.76
8.16
8.91
7.98
5.86
3.30
1.00
-0.71
-1.83
-2.57
-3.17
-3.72
-4.22
-4.61
-4.88
-4.94
-4.63
-3.65
-1.64
1.61
6.00
11.04
15.99
20.03
22.54
23.28
22.45
20.55
18.17
15.87
13.98
12.57
11.48
10.40
9.00
7.03
4.47
1.50
-1.57
-4.35
-6.55
-7.97
-8.58
-8.47
-7.82
-6.85
-5.79
-4.89
-4.31
-4.15
-4.39
-4.93
-5.56
-6.08
-6.31
-6.18
-5.67
-4.91
-4.04
-3.25
-2.69
-2.46
-2.55
-2.85
-3.20
-3.42
-3.37
-3.03
-2.47
-1.85
-1.30
-0.93
-0.75
-0.68
-0.58
-0.28
0.35
1.39
2.74
4.16
5.29
5.80
5.46
4.26
2.43
0.34
-1.63
-3.18
-4.17
-4.62
-4.60
-4.25
-3.66
-2.91
-2.07
-1.25
-0.52
0.05
0.44
0.69
0.89
1.12
1.44
1.83
2.24
2.57
2.73
2.67
2.38
1.89
1.29
0.70
0.22
-0.04
-0.00
0.35
1.00
1.87
2.83
3.72
4.36
4.61
4.40
3.77
2.83
1.76
0.69
-0.25
-1.04
-1.69
-2.24
-2.70
-3.07
-3.34
-3.47
-3.48
-3.39
