1660938072.00
64.000000
-0.00
-0.00
-0.00
-0.00
-0.00
-0.00
-0.00
-0.00
-0.00
-0.00
0.00
0.01
0.01
-0.00
-0.03
-0.05
-0.05
0.00
0.13
0.36
0.66
1.01
1.37
1.72
2.06
2.40
2.79
3.25
3.81
4.44
5.10
5.73
6.32
6.89
7.51
8.25
9.15
10.29
11.55
12.81
13.95
14.92
15.81
16.81
18.16
20.00
22.52
25.50
28.64
31.65
34.39
36.98
39.79
43.29
47.78
53.59
60.30
67.33
74.11
80.36
86.28
92.51
99.81
108.67
119.48
131.53
143.88
155.64
166.39
176.50
186.88
199.06
211.64
226.59
244.06
263.81
284.57
303.71
317.44
321.68
313.36
291.51
257.96
215.85
168.91
120.21
71.66
24.20
-21.57
-65.00
-105.45
-142.40
-176.42
-208.85
-241.46
-275.67
-311.73
-348.05
-381.19
-406.76
-420.65
-420.73
-407.72
-384.97
-357.06
-328.17
-300.79
-275.50
-251.71
-228.65
-206.25
-185.14
-166.11
-149.48
-134.80
-121.11
-107.45
-93.38
-79.12
-65.53
-53.56
-43.77
-36.09
-29.85
-24.13
-18.19
-11.80
-5.22
0.97
6.22
10.33
13.43
15.92
18.18
20.41
22.56
24.42
25.77
26.54
26.77
26.67
26.44
26.21
26.04
25.88
25.67
25.31
24.75
23.97
23.05
22.09
21.24
20.61
20.21
19.95
19.65
19.14
18.39
17.45
16.51
15.74
15.24
15.00
14.90
14.81
14.63
14.34
13.97
13.58
13.23
12.91
12.60
12.29
12.00
11.75
11.55
11.35
11.11
10.79
10.41
10.01
9.68
9.45
9.32
9.19
9.00
8.69
8.28
7.84
7.44
7.13
6.89
6.66
6.41
6.11
5.78
5.45
5.16
4.93
4.73
4.50
4.19
3.78
3.29
2.81
2.37
2.01
1.72
1.45
1.15
0.78
0.33
-0.21
-0.82
-1.53
-2.30
-3.10
-3.90
-4.62
-5.25
-5.81
-6.36
-6.98
-7.70
-8.46
-9.16
-9.67
-9.89
-9.82
-9.56
-9.25
-9.06
-9.05
-9.18
-9.29
-9.22
-8.85
-8.20
-7.36
-6.48
-5.67
-4.97
-4.33
-3.69
-3.02
-2.33
-1.71
-1.22
-0.87
-0.61
-0.31
0.10
0.68
1.34
1.96
2.39
2.55
2.48
2.31
2.21
2.26
2.49
2.81
3.12
3.34
3.45
3.51
3.54
3.57
3.58
3.57
3.51
3.43
3.39
3.43
3.58
3.82
4.07
4.23
4.21
4.02
3.74
3.54
3.56
3.86
4.34
4.84
5.21
5.39
5.41
5.34
5.23
5.10
4.90
4.62
4.27
3.90
3.55
3.26
3.02
2.82
2.67
2.58
2.54
2.53
2.52
2.47
2.40
2.33
2.32
2.42
2.61
2.84
3.00
3.01
2.82
2.47
2.04
1.65
1.37
1.21
1.15
1.15
1.23
1.40
1.68
2.02
2.33
2.49
2.42
2.17
1.86
1.63
1.57
1.66
1.79
1.87
1.86
1.78
1.71
1.68
1.67
1.60
1.46
1.24
1.01
0.84
0.78
0.80
0.89
1.00
1.09
1.16
1.18
1.16
1.08
1.00
0.94
0.93
0.97
1.03
1.10
1.14
1.16
1.16
1.16
1.14
1.10
1.04
0.98
0.94
0.93
0.95
0.99
1.02
1.05
1.08
1.08
1.03
0.95
0.82
0.70
0.63
0.61
0.62
0.61
0.52
0.37
0.21
0.14
0.24
0.52
0.92
1.30
1.55
1.57
1.39
1.06
0.72
0.46
0.34
0.36
0.46
0.57
0.67
0.75
0.84
0.96
1.07
1.12
1.05
0.86
0.60
0.36
0.19
0.10
0.04
-0.03
-0.10
-0.11
0.02
0.35
0.84
1.40
1.85
2.06
1.98
1.66
1.24
0.88
0.68
0.62
0.62
0.57
0.43
0.28
0.25
0.43
0.82
1.29
1.65
1.73
1.46
0.93
0.30
-0.24
-0.58
-0.71
-0.68
-0.58
-0.48
-0.44
-0.44
-0.46
-0.45
-0.39
-0.28
-0.14
-0.02
0.05
0.08
0.11
0.17
0.25
0.31
0.29
0.17
-0.01
-0.15
-0.16
0.01
0.34
0.74
1.08
1.24
1.15
0.85
0.41
-0.02
-0.29
-0.33
-0.13
0.19
0.49
0.66
0.65
0.52
0.35
0.22
0.13
0.07
-0.00
-0.05
-0.03
0.13
0.43
0.79
1.09
1.22
1.15
0.98
0.82
0.75
0.74
0.71
0.55
0.29
-0.01
-0.19
-0.19
-0.02
0.21
0.39
0.47
0.44
0.38
0.33
0.30
0.28
0.22
0.14
0.07
0.04
0.02
0.00
-0.03
-0.08
-0.11
-0.11
-0.08
-0.05
-0.05
-0.11
-0.20
-0.28
-0.32
-0.32
-0.30
-0.27
-0.24
-0.18
-0.07
0.09
0.30
0.52
0.70
0.82
0.88
0.85
0.74
0.58
0.38
0.17
-0.00
-0.14
-0.24
-0.31
-0.38
-0.46
-0.57
-0.70
-0.86
-1.05
-1.29
-1.62
-2.09
-2.68
-3.34
-3.95
-4.42
-4.70
-4.81
-4.88
-5.05
-5.43
-6.05
-6.86
-7.73
-8.54
-9.17
-9.54
-9.71
-9.82
-10.06
-10.68
-11.82
-13.50
-15.52
-17.57
-19.38
-20.84
-22.11
-23.58
-25.70
-28.73
-32.62
-37.04
-41.54
-45.81
-49.89
-54.16
-59.14
-65.26
-72.57
-80.75
-89.22
-97.50
-105.33
-112.88
-120.61
-129.05
-138.54
-149.22
-161.13
-174.33
-188.64
-203.28
-216.32
-224.76
-225.13
-214.67
-192.40
-159.51
-118.70
-72.94
-24.39
25.73
76.31
125.32
169.42
204.82
228.82
241.22
244.49
242.71
239.68
237.63
236.90
236.67
236.27
235.85
236.30
238.45
242.36
247.16
251.49
254.39
255.77
256.40
257.60
260.57
265.85
273.06
280.73
286.53
287.56
281.10
265.41
240.27
207.08
168.21
125.94
81.52
34.92
-14.38
-66.08
-117.90
-165.61
-204.18
-229.74
-241.12
-240.27
-231.22
-218.38
-204.93
-192.15
-179.85
-167.45
-154.86
-142.74
-132.07
-123.42
-116.59
-110.62
-104.34
-96.94
-88.36
-79.30
-70.81
-63.81
-58.65
-54.94
-51.83
-48.35
-43.98
-38.74
-33.22
-28.19
-24.21
-21.43
-19.54
-18.02
-16.36
-14.32
-11.95
-9.51
-7.32
-5.61
-4.43
-3.63
-2.99
-2.30
-1.48
-0.57
0.26
0.82
1.01
0.83
0.41
-0.07
-0.44
-0.59
-0.54
-0.33
-0.06
0.22
0.46
0.69
0.90
1.11
1.33
1.55
1.76
1.93
2.04
2.07
1.98
1.73
1.30
0.67
-0.10
-0.94
-1.72
-2.34
-2.73
-2.93
-2.97
-2.88
-2.64
-2.15
-1.35
-0.23
1.12
2.52
3.77
4.72
5.30
5.50
5.33
4.84
4.07
3.12
2.13
1.26
0.62
0.26
0.14
0.16
0.21
0.17
-0.01
-0.33
-0.73
-1.14
-1.51
-1.83
-2.16
-2.52
-2.95
-3.44
-3.92
-4.36
-4.72
-4.96
-5.06
-4.93
-4.49
-3.72
-2.63
-1.36
-0.04
1.19
2.27
3.17
3.85
4.27
4.35
4.05
3.43
2.65
1.90
1.35
1.07
1.00
1.01
0.96
0.81
0.61
0.49
0.57
0.85
1.25
1.59
1.71
1.55
1.15
0.61
0.04
-0.54
-1.12
-1.73
-2.33
-2.87
-3.23
-3.36
-3.24
-2.88
-2.34
-1.66
-0.92
-0.17
0.52
1.13
1.69
2.22
2.70
3.09
3.27
3.19
2.87
2.41
1.97
1.65
1.48
1.39
1.26
1.04
0.75
0.44
0.18
-0.02
-0.20
-0.40
-0.61
-0.78
-0.84
-0.79
-0.69
-0.66
-0.88
-1.42
-2.26
-3.25
-4.17
-4.79
-5.00
-4.78
-4.24
-3.50
-2.70
-1.88
-1.04
-0.20
0.61
1.31
1.79
2.00
1.96
1.81
1.70
1.74
1.95
2.27
2.62
2.88
3.02
3.02
2.89
2.66
2.36
1.97
1.49
0.91
0.22
-0.56
-1.37
-2.13
-2.72
-3.07
-3.12
-2.91
-2.52
-2.04
-1.56
-1.10
-0.66
-0.25
0.17
0.60
1.03
1.47
1.93
2.41
2.88
3.25
3.39
3.17
2.55
1.60
0.50
-0.51
-1.23
-1.54
-1.48
-1.15
-0.67
-0.18
0.28
0.67
0.96
1.09
0.99
0.61
-0.04
-0.89
-1.83
-2.71
-3.38
-3.76
-3.82
-3.63
-3.31
-2.97
-2.61
-2.17
-1.55
-0.69
0.31
1.24
1.84
1.95
1.57
0.92
0.34
0.12
0.40
1.10
2.03
2.97
3.73
4.24
4.47
4.40
4.05
3.40
2.49
1.35
0.06
-1.29
-2.58
-3.69
-4.51
-5.01
-5.17
-5.05
-4.75
-4.33
-3.84
-3.25
-2.54
-1.71
-0.78
0.17
1.09
1.94
2.71
3.37
3.86
4.10
4.06
3.76
3.30
2.83
2.46
2.24
2.12
2.05
1.98
1.93
1.91
1.93
1.91
1.78
1.45
0.96
0.38
-0.18
-0.63
-0.99
-1.30
-1.62
-1.95
-2.27
-2.53
-2.77
-3.02
-3.34
-3.71
-4.07
-4.27
-4.21
-3.86
-3.24
-2.47
-1.67
-0.99
-0.52
-0.33
-0.36
-0.45
-0.37
0.05
0.85
1.85
2.79
3.42
3.63
3.52
3.30
3.15
3.16
3.28
3.38
3.36
3.15
2.72
2.13
1.46
0.81
0.28
-0.07
-0.24
-0.30
-0.34
-0.41
-0.51
-0.57
-0.58
-0.57
-0.66
-0.91
-1.34
-1.85
-2.29
-2.56
-2.63
-2.58
-2.54
-2.61
-2.84
-3.23
-3.80
-4.61
-5.71
-7.11
-8.66
-10.08
-11.08
-11.44
-11.24
-10.73
-10.33
-10.35
-10.94
-12.05
-13.48
-15.06
-16.74
-18.60
-20.85
-23.70
-27.30
-31.59
-36.29
-40.94
-45.08
-48.49
-51.38
-54.37
-58.32
-63.85
-71.04
-79.20
-87.17
-93.72
-98.12
-100.55
-102.05
-104.16
-108.32
-115.35
-125.00
-135.82
-145.21
-149.87
-146.67
-133.53
-110.13
-77.95
-39.52
2.87
48.32
97.37
151.22
209.99
271.53
331.06
382.13
418.31
434.86
429.94
405.22
365.82
319.40
274.36
237.27
210.78
192.60
176.52
155.17
123.19
79.53
27.75
-25.75
-74.28
-113.07
-140.12
-155.75
-161.63
-159.85
-152.45
-141.56
-129.42
-118.26
-109.94
-105.46
-104.59
-105.94
-107.60
-107.85
-105.94
-102.31
-98.20
-95.10
-94.01
-95.02
-97.45
-100.17
-102.27
-103.43
-104.10
-105.23
-107.75
-112.04
-117.66
-123.44
-127.94
-130.03
-129.45
-127.09
-124.77
-124.47
-127.21
-132.04
-135.88
-134.30
-123.08
-99.91
-65.13
-21.14
28.95
82.81
139.20
197.01
254.11
306.82
350.89
383.22
403.21
412.72
414.42
409.87
398.55
378.44
347.77
306.60
257.10
202.50
145.58
88.02
30.94
-23.88
-73.27
-113.20
-140.36
-153.68
-155.02
-148.35
-138.10
-127.66
-118.82
-112.05
-107.39
-105.06
-105.38
-108.21
-112.35
-115.39
-114.48
-107.40
-93.62
-74.65
-53.80
-35.02
-21.74
-15.79
-17.02
-23.46
-32.17
-40.11
-45.17
-46.54
-44.71
-40.98
-36.82
-33.28
-30.74
-28.94
-27.30
-25.35
-22.91
-20.12
-17.27
-14.72
-12.78
-11.66
-11.42
-11.97
-13.07
-14.31
-15.20
-15.33
-14.52
-12.86
-10.73
-8.63
-6.93
-5.76
-4.89
-3.88
-2.34
-0.07
2.77
5.80
8.57
10.68
11.95
12.36
12.01
11.06
9.67
8.01
6.17
4.26
2.36
0.64
-0.69
-1.28
-0.80
1.02
4.26
8.69
13.85
19.16
24.08
28.25
31.58
34.13
36.04
37.34
37.97
37.82
36.88
35.26
33.23
31.10
29.18
27.60
26.42
25.58
25.04
24.73
24.56
24.40
24.11
23.59
22.91
22.30
22.05
22.23
22.55
22.37
20.96
18.00
13.82
9.24
5.04
1.42
-2.24
-7.00
-13.59
-21.75
-30.12
-36.90
-40.65
-41.08
-39.03
-35.94
-33.07
-30.96
-29.41
-27.88
-25.97
-23.69
-21.39
-19.50
-18.24
-17.52
-17.02
-16.33
-15.18
-13.54
-11.67
-9.91
-8.62
-7.94
-7.79
-7.87
-7.85
-7.46
-6.65
-5.54
-4.41
-3.49
-2.91
-2.64
-2.53
-2.40
-2.14
-1.77
-1.38
-1.08
-0.91
-0.83
-0.74
-0.58
-0.37
-0.18
-0.08
-0.11
-0.24
-0.36
-0.42
-0.39
-0.31
-0.24
-0.22
-0.26
-0.31
-0.31
-0.21
0.01
0.32
0.64
0.83
0.81
0.54
0.08
-0.44
-0.87
-1.14
-1.21
-1.12
-0.92
-0.62
-0.26
0.13
0.44
0.60
0.55
0.34
0.10
-0.04
0.02
0.22
0.46
0.61
0.63
0.52
0.37
0.24
0.14
0.10
0.06
0.04
0.01
0.01
0.00
-0.02
-0.09
-0.20
-0.33
-0.42
-0.44
-0.35
-0.17
0.06
0.29
0.47
0.54
0.51
0.39
0.23
0.09
-0.02
-0.12
-0.22
-0.32
-0.40
-0.40
-0.31
-0.14
0.01
0.06
-0.04
-0.23
-0.41
-0.49
-0.43
-0.31
-0.23
-0.21
-0.26
-0.30
-0.27
-0.16
-0.04
0.00
-0.08
-0.29
-0.56
-0.82
-1.00
-1.09
-1.09
-1.03
-0.91
-0.75
-0.53
-0.27
0.02
0.33
0.65
0.94
1.16
1.26
1.23
1.09
0.89
0.69
0.53
0.40
0.31
0.25
0.27
0.37
0.55
0.74
0.82
0.74
0.48
0.09
-0.32
-0.65
-0.83
-0.85
-0.75
-0.57
-0.36
-0.16
0.01
0.13
0.19
0.21
0.23
0.30
0.43
0.62
0.80
0.91
0.90
0.77
0.56
0.37
0.28
0.33
0.48
0.67
0.80
0.80
0.60
0.24
-0.20
-0.62
-0.88
-0.91
-0.69
-0.33
0.03
0.25
0.23
-0.00
-0.37
-0.74
-1.02
-1.16
-1.17
-1.08
-0.94
-0.74
-0.49
-0.22
0.03
0.19
0.22
0.11
-0.08
-0.23
-0.25
-0.10
0.16
0.46
0.68
0.78
0.79
0.76
0.72
0.68
0.58
0.41
0.18
-0.06
-0.22
-0.24
-0.16
-0.03
0.10
0.23
0.36
0.52
0.68
0.77
0.71
0.44
-0.03
-0.61
-1.16
-1.57
-1.75
-1.66
-1.34
-0.87
-0.34
0.13
0.45
0.57
0.51
0.32
0.12
-0.00
0.04
0.24
0.53
0.79
0.88
0.75
0.41
0.02
-0.31
-0.45
-0.41
-0.27
-0.13
-0.06
-0.07
-0.10
-0.13
-0.12
-0.08
-0.05
-0.05
-0.09
-0.18
-0.32
-0.46
-0.55
-0.56
-0.47
-0.31
-0.15
-0.03
0.06
0.14
0.26
0.42
0.56
0.61
0.49
0.26
0.01
-0.13
-0.07
0.12
0.33
0.43
0.35
0.14
-0.07
-0.16
-0.12
0.01
0.11
0.12
0.01
-0.13
-0.28
-0.38
-0.49
-0.60
-0.70
-0.71
-0.57
-0.25
0.16
0.53
0.71
0.67
0.44
0.16
-0.07
-0.15
-0.08
0.08
0.27
0.45
0.57
0.61
0.58
0.51
0.41
0.33
0.27
0.21
0.14
0.04
-0.07
-0.18
-0.27
-0.37
-0.46
-0.51
-0.47
-0.30
-0.03
0.25
0.43
0.41
0.17
-0.21
-0.60
-0.87
-0.98
-0.91
-0.71
-0.45
-0.22
-0.06
-0.03
-0.09
-0.19
-0.23
-0.17
0.02
0.28
0.52
0.66
0.68
0.58
0.43
0.26
0.14
0.06
0.04
0.09
0.21
0.40
0.64
0.89
1.07
1.11
0.94
0.59
0.13
-0.29
-0.56
-0.65
-0.59
-0.49
-0.42
-0.41
-0.43
-0.41
-0.34
-0.24
-0.18
-0.21
-0.35
-0.51
-0.61
-0.60
-0.49
-0.32
-0.18
-0.09
-0.05
-0.01
0.08
0.24
0.40
0.46
0.32
-0.03
-0.50
-0.90
-1.09
-0.97
-0.58
-0.09
0.32
0.50
0.44
0.21
-0.09
-0.35
-0.53
-0.62
-0.65
-0.59
-0.42
-0.13
0.23
0.58
0.79
0.80
0.62
0.33
0.07
-0.05
0.02
0.27
0.61
0.93
1.16
1.25
1.20
1.07
0.89
0.74
0.61
0.52
0.42
0.31
0.18
0.06
-0.01
-0.03
0.01
0.08
0.13
0.15
0.14
0.13
0.10
0.09
0.05
-0.03
-0.17
-0.36
-0.56
-0.69
-0.71
-0.60
-0.41
-0.25
-0.22
-0.36
-0.63
-0.91
-1.11
-1.15
-1.05
-0.89
-0.72
-0.56
-0.39
-0.15
0.16
0.48
0.71
0.74
0.57
0.27
-0.01
-0.16
-0.13
0.02
0.18
0.26
0.24
0.17
0.09
0.01
-0.09
-0.26
-0.51
-0.78
-0.99
-1.08
-1.02
-0.82
-0.51
-0.13
0.26
0.59
0.77
0.76
0.55
0.21
-0.11
-0.29
-0.29
-0.14
0.06
0.23
0.32
0.35
0.39
0.48
0.61
0.74
0.83
0.81
0.73
0.61
0.50
0.42
0.35
0.24
0.07
-0.14
-0.35
-0.50
-0.59
-0.61
-0.61
-0.61
-0.58
-0.53
-0.42
-0.24
-0.02
0.21
0.39
0.48
0.44
0.31
0.12
-0.06
-0.17
-0.21
-0.19
-0.13
-0.01
0.17
0.41
0.65
0.81
0.79
0.57
0.23
-0.09
-0.25
-0.21
-0.04
0.15
0.26
0.25
0.16
0.09
0.08
0.17
0.29
0.39
0.38
0.21
-0.09
-0.47
-0.83
-1.06
-1.10
-0.93
-0.63
-0.30
-0.07
0.02
-0.04
-0.22
-0.42
-0.58
-0.66
-0.65
-0.56
-0.39
-0.13
0.20
0.56
0.87
1.02
0.98
0.76
0.47
0.24
0.17
0.27
0.45
0.60
0.63
0.52
0.32
0.11
-0.05
-0.16
-0.23
-0.30
-0.40
-0.51
-0.61
-0.65
-0.62
-0.50
-0.32
-0.11
0.08
0.21
0.24
0.16
-0.02
-0.26
-0.49
-0.61
-0.55
-0.31
0.03
0.36
0.57
0.62
0.55
0.43
0.35
0.35
0.44
0.59
0.76
0.90
1.00
1.02
0.93
0.75
0.51
0.27
0.13
0.15
0.33
0.56
0.71
0.59
0.17
-0.48
-1.13
-1.54
-1.56
-1.20
-0.68
-0.23
-0.01
-0.02
-0.16
-0.28
-0.32
-0.29
-0.23
-0.16
-0.09
-0.02
0.03
-0.00
-0.16
-0.40
-0.63
-0.71
-0.55
-0.13
0.43
0.98
1.37
1.52
1.41
1.09
0.62
0.10
-0.37
-0.75
-1.00
-1.13
-1.18
-1.16
-1.06
-0.89
-0.69
-0.48
-0.31
-0.18
-0.08
0.05
0.23
0.43
0.60
0.68
0.66
0.54
0.37
0.19
0.02
-0.15
-0.32
-0.49
-0.63
-0.76
-0.86
-0.93
-0.96
-0.91
-0.76
-0.51
-0.20
0.08
0.29
0.43
0.54
0.66
0.81
0.96
1.06
1.11
1.15
1.21
1.31
1.37
1.32
1.08
0.67
0.20
-0.21
-0.46
-0.55
-0.55
-0.52
-0.48
-0.44
-0.35
-0.22
-0.05
0.08
0.12
0.07
-0.05
-0.20
-0.33
-0.42
-0.45
-0.41
-0.29
-0.07
0.22
0.50
0.65
0.58
0.29
-0.13
-0.52
-0.73
-0.70
-0.47
-0.19
0.02
0.14
0.21
0.34
0.56
0.83
1.06
1.13
1.02
0.78
0.53
0.38
0.35
0.43
0.52
0.54
0.43
0.20
-0.10
-0.36
-0.49
-0.45
-0.25
-0.00
0.18
0.20
0.04
-0.24
-0.51
-0.70
-0.78
-0.78
-0.76
-0.74
-0.75
-0.78
-0.84
-0.92
-1.02
-1.09
-1.07
-0.92
-0.65
-0.32
-0.04
0.11
0.10
-0.04
-0.22
-0.36
-0.42
-0.36
-0.22
-0.05
0.08
0.14
0.15
0.16
0.24
0.38
0.55
0.70
0.75
0.71
0.62
0.55
0.55
0.60
0.66
0.66
0.60
0.47
0.28
0.05
-0.22
-0.49
-0.74
-0.90
-0.94
-0.89
-0.76
-0.62
-0.51
-0.43
-0.36
-0.28
-0.18
-0.06
0.05
0.13
0.17
0.19
0.21
0.27
0.36
0.47
0.55
0.54
0.46
0.32
0.22
0.22
0.34
0.54
0.71
0.77
0.66
0.41
0.07
-0.27
-0.56
-0.76
-0.90
-0.97
-0.98
-0.91
-0.73
-0.44
-0.10
0.22
0.43
0.49
0.46
0.40
0.39
0.43
0.51
0.56
0.56
0.53
0.49
0.46
0.42
0.33
0.17
0.00
-0.10
-0.08
0.09
0.31
0.42
0.33
-0.00
-0.46
-0.87
-1.08
-1.02
-0.73
-0.36
-0.08
0.02
-0.07
-0.26
-0.43
-0.50
-0.48
-0.42
-0.42
-0.51
-0.64
-0.69
-0.60
-0.36
-0.03
0.27
0.45
0.50
0.49
0.49
0.52
0.56
0.55
0.43
0.23
0.02
-0.11
-0.10
0.02
0.18
0.29
0.26
0.12
-0.08
-0.25
-0.31
-0.26
-0.15
-0.05
-0.05
-0.17
-0.37
-0.58
-0.70
-0.67
-0.49
-0.21
0.08
0.30
0.41
0.41
0.36
0.33
0.39
0.56
0.81
1.05
1.17
1.11
0.90
0.62
0.38
0.24
0.18
0.16
0.09
-0.03
-0.18
-0.30
-0.33
-0.29
-0.25
-0.28
-0.40
-0.57
-0.71
-0.74
-0.66
-0.51
-0.38
-0.29
-0.22
-0.11
0.08
0.33
0.55
0.63
0.52
0.28
0.03
-0.11
-0.09
0.05
0.18
0.21
0.11
-0.08
-0.27
-0.40
-0.43
-0.38
-0.26
-0.09
0.11
0.30
0.43
0.45
0.32
0.05
-0.27
-0.58
-0.80
-0.93
-1.00
-1.05
-1.09
-1.08
-0.96
-0.67
-0.22
0.30
0.75
1.01
1.03
0.83
0.54
0.32
0.26
0.37
0.55
0.70
0.70
0.55
0.30
0.06
-0.09
-0.10
0.01
0.19
0.36
0.47
0.49
0.42
0.27
0.08
-0.12
-0.30
-0.45
-0.54
-0.55
-0.47
-0.33
-0.18
-0.07
-0.06
-0.13
-0.25
-0.36
-0.38
-0.27
-0.02
0.35
0.75
1.07
1.20
1.09
0.77
0.34
-0.07
-0.36
-0.49
-0.47
-0.37
-0.23
-0.10
-0.02
-0.01
-0.08
-0.22
-0.35
-0.39
-0.32
-0.14
0.07
0.21
0.24
0.15
-0.01
-0.18
-0.31
-0.37
-0.36
-0.27
-0.14
0.03
0.18
0.28
0.32
0.30
0.26
0.24
0.23
0.24
0.21
0.14
0.05
-0.03
-0.06
-0.05
-0.01
0.00
-0.03
-0.11
-0.19
-0.22
-0.19
-0.08
0.09
0.27
0.44
0.55
0.59
0.54
0.42
0.24
0.05
-0.13
-0.29
-0.43
-0.55
-0.65
-0.68
-0.61
-0.41
-0.10
0.23
0.46
0.53
0.39
0.10
-0.26
-0.62
-0.88
-1.00
-0.96
-0.78
-0.52
-0.26
-0.06
0.03
0.02
-0.03
-0.08
-0.10
-0.09
-0.08
-0.10
-0.14
-0.18
-0.18
-0.13
-0.00
0.18
0.42
0.68
0.91
1.06
1.05
0.86
0.50
0.08
-0.30
-0.55
-0.64
-0.57
-0.42
-0.23
-0.08
0.01
0.02
-0.03
-0.10
-0.11
-0.03
0.16
0.41
0.62
0.72
0.66
0.47
0.20
-0.08
-0.33
-0.50
-0.56
-0.48
-0.29
-0.07
0.09
0.10
-0.06
-0.33
-0.56
-0.66
-0.59
-0.43
-0.25
-0.15
-0.16
-0.25
-0.36
-0.45
-0.45
-0.32
-0.06
0.32
0.75
1.15
1.41
1.50
1.43
1.27
1.10
0.97
0.90
0.89
0.89
0.88
0.81
0.64
0.39
0.07
-0.27
-0.58
-0.82
-0.99
-1.08
-1.07
-0.95
-0.72
-0.43
-0.16
0.01
0.02
-0.06
-0.16
-0.20
-0.12
0.02
0.18
0.28
0.30
0.23
0.08
-0.13
-0.36
-0.59
-0.75
-0.81
-0.78
-0.70
-0.63
-0.57
-0.50
-0.37
-0.14
0.15
0.42
0.56
0.51
0.27
-0.08
-0.43
-0.69
-0.81
-0.81
-0.71
-0.56
-0.38
-0.22
-0.08
0.02
0.07
0.09
0.14
0.26
0.47
0.75
1.01
1.16
1.10
0.84
0.42
-0.01
-0.32
-0.41
-0.25
0.09
0.48
0.83
1.04
1.10
1.06
0.95
0.81
0.65
0.47
0.26
0.05
-0.11
-0.22
-0.28
-0.37
-0.52
-0.71
-0.84
-0.82
-0.58
-0.19
0.19
0.39
0.31
0.01
-0.35
-0.60
-0.64
-0.48
-0.25
-0.04
0.11
0.22
0.35
0.54
0.70
0.75
0.62
0.32
-0.04
-0.32
-0.42
-0.32
-0.11
0.08
0.16
0.08
-0.13
-0.41
-0.66
-0.80
-0.78
-0.60
-0.30
0.03
0.30
0.45
0.49
0.45
0.36
0.23
0.03
-0.27
-0.65
-1.04
-1.32
-1.39
-1.21
-0.82
-0.34
0.08
0.35
0.42
0.31
0.11
-0.08
-0.17
-0.11
0.07
0.31
0.49
0.53
0.42
0.24
0.07
-0.00
0.03
0.13
0.24
0.34
0.43
0.50
0.55
0.55
0.50
0.44
0.40
0.44
0.52
0.57
0.51
0.25
-0.17
-0.64
-0.99
-1.08
-0.87
-0.41
0.13
0.58
0.78
0.69
0.35
-0.11
-0.54
-0.80
-0.84
-0.68
-0.44
-0.23
-0.15
-0.21
-0.31
-0.35
-0.25
-0.02
0.24
0.43
0.47
0.37
0.21
0.04
-0.09
-0.20
-0.31
-0.41
-0.47
-0.46
-0.37
-0.23
-0.08
-0.00
-0.03
-0.14
-0.28
-0.34
-0.23
0.10
0.61
1.19
1.70
2.01
2.07
1.90
1.56
1.15
0.70
0.26
-0.16
-0.49
-0.67
-0.65
-0.44
-0.14
0.14
0.32
0.36
0.31
0.26
0.27
0.34
0.40
0.38
0.25
0.02
-0.23
-0.44
-0.60
-0.73
-0.87
-1.00
-1.07
-1.01
-0.79
-0.44
-0.10
0.11
0.10
-0.10
-0.38
-0.62
-0.72
-0.66
-0.51
-0.36
-0.31
-0.37
-0.52
-0.70
-0.83
-0.84
-0.70
-0.44
-0.13
0.15
0.32
0.36
0.28
0.15
0.02
-0.03
0.02
0.16
0.37
0.60
0.76
0.79
0.67
0.43
0.14
-0.07
-0.14
-0.05
0.17
0.41
0.60
0.67
0.65
0.61
0.60
0.61
0.61
0.51
0.30
0.03
-0.21
-0.33
-0.29
-0.10
0.13
0.29
0.30
0.12
-0.21
-0.60
-0.92
-1.06
-0.97
-0.65
-0.20
0.22
0.47
0.49
0.31
0.03
-0.19
-0.23
-0.06
0.25
0.57
0.75
0.72
0.50
0.21
-0.01
-0.06
0.06
0.29
0.52
0.65
0.62
0.44
0.14
-0.23
-0.63
-0.96
-1.17
-1.20
-1.01
-0.66
-0.24
0.11
0.28
0.23
0.03
-0.18
-0.27
-0.17
0.06
0.26
0.30
0.11
-0.22
-0.54
-0.70
-0.64
-0.46
-0.27
-0.18
-0.20
-0.25
-0.25
-0.16
-0.03
0.04
0.01
-0.11
-0.24
-0.30
-0.26
-0.16
-0.07
-0.04
-0.08
-0.16
-0.23
-0.25
-0.20
-0.10
0.07
0.33
0.68
1.11
1.55
1.89
2.04
1.96
1.68
1.29
0.89
0.54
0.28
0.08
-0.07
-0.17
-0.20
-0.20
-0.17
-0.17
-0.20
-0.22
-0.15
0.00
0.20
0.34
0.33
0.16
-0.09
-0.29
-0.37
-0.32
-0.25
-0.27
-0.41
-0.65
-0.89
-1.00
-0.93
-0.68
-0.35
-0.08
0.00
-0.15
-0.50
-0.90
-1.16
-1.15
-0.85
-0.37
0.09
0.38
0.43
0.31
0.18
0.18
0.36
0.63
0.84
0.89
0.76
0.50
0.24
0.05
-0.07
-0.17
-0.31
-0.52
-0.76
-0.94
-0.96
-0.80
-0.48
-0.10
0.25
0.49
0.62
0.67
0.69
0.72
0.75
0.74
0.65
0.47
0.28
0.16
0.16
0.27
0.40
0.43
0.31
0.09
-0.12
-0.23
-0.18
0.01
0.23
0.39
0.42
0.30
0.05
-0.25
-0.55
-0.79
-0.94
-0.97
-0.88
-0.69
-0.46
-0.25
-0.11
-0.06
-0.08
-0.14
-0.20
-0.21
-0.16
-0.03
0.17
0.41
0.64
0.77
0.75
0.53
0.12
-0.39
-0.87
-1.20
-1.36
-1.40
-1.48
-1.72
-2.17
-2.73
-3.25
-3.57
-3.62
-3.54
-3.53
-3.80
-4.42
-5.30
-6.20
-6.92
-7.35
-7.52
-7.62
-7.87
-8.43
-9.37
-10.67
-12.22
-13.86
-15.46
-16.92
-18.28
-19.70
-21.40
-23.60
-26.40
-29.72
-33.30
-36.81
-39.99
-42.82
-45.54
-48.63
-52.62
-57.84
-64.22
-71.22
-78.03
-83.81
-88.22
-91.65
-95.09
-99.75
-106.32
-114.39
-122.21
-127.12
-126.44
-118.29
-102.21
-79.15
-51.09
-20.65
9.28
35.74
56.38
70.27
78.52
84.20
91.06
101.83
116.71
133.24
147.56
156.32
158.13
153.59
144.27
131.37
115.17
95.70
73.74
51.36
31.50
16.72
7.92
4.01
2.55
0.99
-2.32
-7.55
-13.61
-18.77
-21.34
-20.20
-15.00
-6.19
5.15
17.61
29.79
40.51
48.99
54.84
58.01
58.78
57.76
55.75
53.68
52.32
52.08
53.00
54.73
56.82
58.95
61.06
63.36
66.31
70.30
75.49
81.72
88.48
95.11
101.02
105.93
110.03
114.18
119.82
128.39
140.61
155.54
170.15
179.81
179.60
165.87
137.45
95.83
44.64
-11.37
-67.20
-118.24
-160.75
-192.33
-212.27
-221.73
-223.37
-220.41
-215.63
-210.74
-206.37
-202.60
-199.48
-197.20
-195.94
-195.53
-195.30
-194.26
-191.65
-187.28
-181.77
-176.44
-172.67
-171.34
-172.49
-175.43
-179.05
-182.28
-184.10
-183.36
-178.47
-167.51
-148.59
-120.60
-83.68
-39.09
11.36
65.96
123.19
181.27
237.53
288.32
329.81
359.33
376.60
384.06
385.98
386.72
388.93
392.55
394.86
391.87
380.04
357.61
325.15
284.91
239.48
190.62
138.81
83.89
26.41
-31.14
-84.32
-127.98
-158.27
-174.28
-178.41
-175.15
-169.07
-163.07
-157.81
-152.31
-145.39
-136.80
-127.47
-118.93
-112.36
-107.87
-104.56
-101.04
-96.23
-89.87
-82.57
-75.44
-69.49
-65.19
-62.33
-60.17
-57.87
-54.89
-51.19
-47.19
-43.54
-40.78
-39.14
-38.47
-38.40
-38.54
-38.70
-39.00
-39.81
-41.54
-44.45
-48.44
-53.06
-57.67
-61.68
-64.89
-67.54
-70.30
-73.89
-78.81
-85.10
-92.37
-100.12
-107.99
-116.00
-124.46
-133.70
-143.80
-154.58
-165.72
-176.96
-187.98
-198.02
-205.46
-207.87
-202.57
-187.58
-162.56
-128.91
-89.04
-45.24
1.14
49.46
98.86
147.17
190.73
225.26
247.59
256.98
255.39
246.52
234.18
221.05
208.34
196.27
184.92
174.73
166.30
159.84
154.73
149.65
143.17
134.65
124.58
114.49
106.20
100.93
98.71
98.49
98.65
97.82
95.45
91.86
87.93
84.60
82.44
81.58
81.87
83.18
85.51
89.08
94.31
101.64
111.55
124.42
140.50
159.57
180.54
201.14
217.94
227.08
225.32
211.18
185.52
151.07
111.22
68.45
23.68
-23.30
-72.37
-121.62
-166.91
-202.98
-225.50
-233.04
-227.71
-214.32
-198.33
-184.03
-173.42
-166.26
-161.11
-156.15
-149.77
-140.69
-128.20
-112.60
-95.73
-80.80
-71.62
-71.05
-79.87
-96.16
-115.69
-132.90
-142.12
-138.79
-120.50
-87.88
-44.73
2.66
47.24
83.47
108.87
124.01
130.88
130.80
123.16
106.23
79.35
44.81
8.10
-24.01
-46.29
-57.17
-58.80
-55.35
-50.60
-46.46
-42.94
-39.25
-35.08
-31.11
-28.55
-28.29
-30.24
-33.30
-35.91
-36.83
-35.57
-32.59
-29.09
-26.40
-25.35
-25.76
-26.41
-25.46
-21.47
-14.15
-4.75
4.44
11.09
13.90
13.11
10.21
7.13
5.27
5.06
5.98
7.11
7.75
7.65
7.02
6.17
5.30
4.38
3.31
2.00
0.61
-0.59
-1.29
-1.37
-0.97
-0.44
-0.18
-0.43
-1.16
-2.09
-2.88
-3.34
-3.56
-3.89
-4.71
-6.25
-8.34
-10.46
-12.01
-12.56
-12.08
-10.98
-9.84
-9.13
-9.03
-9.37
-9.80
-10.02
-9.91
-9.59
-9.32
-9.40
-10.11
-11.72
-14.37
-17.92
-21.67
-24.23
-23.80
-18.79
-8.69
5.50
21.29
35.60
45.86
50.96
51.49
49.16
45.86
42.78
40.12
37.29
33.54
28.49
22.36
15.84
9.73
4.67
0.89
-1.72
-3.51
-4.78
-5.63
-5.95
-5.60
-4.59
-3.18
-1.90
-1.24
-1.48
-2.46
-3.67
-4.54
-4.68
-4.07
-3.11
-2.32
-2.15
-2.70
-3.72
-4.75
-5.32
-5.15
-4.29
-3.09
-2.02
-1.45
-1.54
-2.15
-2.95
-3.55
-3.67
-3.26
-2.48
-1.60
-0.90
-0.53
-0.52
-0.75
-1.04
-1.24
-1.24
-1.05
-0.74
-0.40
-0.14
0.01
0.07
0.13
0.22
0.37
0.54
0.66
0.65
0.52
0.29
0.03
-0.22
-0.43
-0.62
-0.76
-0.85
-0.87
-0.81
-0.67
-0.49
-0.32
-0.18
-0.08
-0.02
0.02
0.01
-0.04
-0.14
-0.26
-0.33
-0.30
-0.13
0.19
0.59
0.97
1.22
1.27
1.10
0.80
0.50
0.30
0.24
0.28
0.38
0.48
0.57
0.65
0.71
0.68
0.49
0.11
-0.39
-0.86
-1.15
-1.18
-1.00
-0.70
-0.40
-0.18
-0.01
0.13
0.25
0.31
0.28
0.15
-0.03
-0.19
-0.25
-0.17
-0.01
0.19
0.38
0.54
0.70
0.86
0.98
1.00
0.86
0.57
0.21
-0.10
-0.25
-0.19
0.06
0.38
0.65
0.76
0.68
0.45
0.14
-0.16
-0.40
-0.55
-0.66
-0.75
-0.84
-0.94
-1.02
-1.03
-0.96
-0.79
-0.57
-0.33
-0.16
-0.10
-0.17
-0.34
-0.51
-0.60
-0.55
-0.36
-0.07
0.20
0.36
0.36
0.19
-0.12
-0.48
-0.82
-1.05
-1.14
-1.10
-0.99
-0.85
-0.70
-0.56
-0.43
-0.35
-0.32
-0.32
-0.26
-0.04
0.38
0.95
1.49
1.82
1.83
1.57
1.16
0.74
0.40
0.16
-0.01
-0.13
-0.17
-0.11
0.04
0.23
0.36
0.36
0.20
-0.08
-0.40
-0.66
-0.79
-0.72
-0.50
-0.20
0.07
0.26
0.32
0.27
0.16
0.02
-0.09
-0.14
-0.07
0.12
0.36
0.56
0.63
0.54
0.34
0.13
-0.00
-0.05
-0.04
-0.05
-0.09
-0.13
-0.12
-0.08
-0.04
-0.04
-0.07
-0.10
-0.06
0.06
0.18
0.23
0.12
-0.12
-0.38
-0.56
-0.60
-0.52
-0.40
-0.33
-0.31
-0.33
-0.32
-0.24
-0.10
0.06
0.16
0.15
0.06
-0.08
-0.17
-0.16
-0.06
0.11
0.29
0.44
0.55
0.60
0.58
0.46
0.24
-0.03
-0.29
-0.44
-0.42
-0.26
-0.07
0.05
0.04
-0.06
-0.17
-0.19
-0.07
0.13
0.30
0.36
0.25
0.00
-0.29
-0.49
-0.53
-0.41
-0.20
-0.04
-0.03
-0.18
-0.43
-0.66
-0.74
-0.64
-0.37
-0.03
0.26
0.41
0.37
0.19
-0.08
-0.29
-0.38
-0.28
-0.02
0.31
0.58
0.71
0.67
0.54
0.43
0.39
0.41
0.41
0.29
0.03
-0.29
-0.49
-0.43
-0.12
0.29
0.55
0.51
0.15
-0.33
-0.69
-0.77
-0.56
-0.23
0.02
0.10
0.03
-0.10
-0.17
-0.15
-0.11
-0.12
-0.23
-0.41
-0.59
-0.70
-0.74
-0.73
-0.72
-0.71
-0.68
-0.62
-0.49
-0.32
-0.14
0.02
0.10
0.11
0.02
-0.10
-0.22
-0.23
-0.07
0.28
0.76
1.23
1.53
1.55
1.31
0.89
0.47
0.16
0.01
-0.01
0.06
0.14
0.24
0.37
0.56
0.83
1.14
1.42
1.59
1.60
1.47
1.28
1.08
0.94
0.86
0.78
0.64
0.38
0.02
-0.38
-0.72
-0.94
-1.02
-1.01
-0.98
-0.99
-1.01
-0.97
-0.81
-0.51
-0.14
0.17
0.34
0.31
0.15
-0.07
-0.27
-0.42
-0.56
-0.72
-0.91
-1.12
-1.28
-1.37
-1.36
-1.25
-1.05
-0.76
-0.37
0.10
0.60
1.09
1.48
1.67
1.57
1.20
0.61
-0.05
-0.57
-0.80
-0.69
-0.28
0.26
0.74
1.03
1.11
1.00
0.78
0.51
0.22
-0.05
-0.29
-0.47
-0.56
-0.55
-0.46
-0.32
-0.14
0.04
0.22
0.37
0.48
0.51
0.46
0.31
0.07
-0.23
-0.56
-0.84
-1.00
-1.00
-0.84
-0.60
-0.38
-0.23
-0.15
-0.09
-0.02
0.06
0.06
-0.07
-0.32
-0.61
-0.82
-0.85
-0.70
-0.46
-0.23
-0.08
0.03
0.14
0.29
0.47
0.62
0.67
0.59
0.44
0.30
0.24
0.27
0.34
0.35
0.27
0.08
-0.16
-0.35
-0.44
-0.43
-0.35
-0.30
-0.31
-0.36
-0.41
-0.38
-0.25
-0.04
0.18
0.33
0.37
0.37
0.40
0.53
0.76
1.04
1.24
1.27
1.11
0.80
0.45
0.13
-0.11
-0.28
-0.39
-0.48
-0.51
-0.45
-0.28
-0.04
0.17
0.24
0.12
-0.16
-0.47
-0.66
-0.62
-0.36
0.03
0.39
0.61
0.65
0.56
0.40
0.26
0.14
0.04
-0.04
-0.07
-0.03
0.08
0.26
0.42
0.52
0.50
0.37
0.18
0.01
-0.04
0.04
0.20
0.36
0.40
0.28
0.04
-0.23
-0.40
-0.40
-0.22
0.06
0.35
0.50
0.46
0.21
-0.16
-0.54
-0.82
-0.94
-0.92
-0.81
-0.71
-0.66
-0.64
-0.59
-0.47
-0.27
-0.06
0.10
0.18
0.21
0.25
0.37
0.56
0.74
0.84
0.76
0.52
0.17
-0.19
-0.48
-0.65
-0.69
-0.60
-0.39
-0.10
0.19
0.38
0.39
0.21
-0.10
-0.41
-0.63
-0.75
-0.82
-0.89
-0.97
-0.99
-0.88
-0.62
-0.25
0.09
0.31
0.43
0.54
0.76
1.09
1.41
1.55
1.38
0.97
0.48
0.14
0.05
0.19
0.41
0.54
0.51
0.33
0.11
-0.08
-0.21
-0.30
-0.39
-0.50
-0.61
-0.66
-0.62
-0.50
-0.33
-0.21
-0.19
-0.28
-0.43
-0.55
-0.60
-0.57
-0.52
-0.53
-0.62
-0.74
-0.80
-0.69
-0.37
0.08
0.51
0.78
0.83
0.69
0.49
0.34
0.27
0.24
0.18
0.07
-0.04
-0.06
0.08
0.35
0.65
0.87
0.92
0.84
0.73
0.65
0.63
0.61
0.50
0.29
0.03
-0.18
-0.25
-0.20
-0.11
-0.11
-0.30
-0.63
-0.99
-1.22
-1.22
-1.01
-0.67
-0.31
-0.01
0.24
0.49
0.73
0.93
0.97
0.78
0.37
-0.14
-0.60
-0.84
-0.80
-0.54
-0.17
0.15
0.32
0.29
0.09
-0.15
-0.30
-0.24
-0.00
0.33
0.60
0.68
0.56
0.34
0.12
-0.02
-0.10
-0.16
-0.24
-0.27
-0.17
0.11
0.51
0.85
0.93
0.66
0.09
-0.56
-1.06
-1.25
-1.13
-0.80
-0.44
-0.14
0.04
0.12
0.12
0.09
0.03
-0.05
-0.09
-0.07
0.04
0.21
0.37
0.45
0.40
0.22
-0.05
-0.34
-0.57
-0.63
-0.49
-0.15
0.30
0.73
0.99
1.03
0.88
0.66
0.49
0.44
0.47
0.51
0.47
0.32
0.12
-0.06
-0.15
-0.14
-0.06
0.02
0.08
0.10
0.09
0.05
-0.01
-0.11
-0.26
-0.45
-0.64
-0.77
-0.77
-0.65
-0.45
-0.27
-0.17
-0.16
-0.17
-0.14
-0.04
0.10
0.19
0.15
-0.02
-0.27
-0.50
-0.65
-0.72
-0.76
-0.80
-0.80
-0.71
-0.47
-0.11
0.30
0.65
0.87
0.91
0.82
0.65
0.44
0.25
0.11
0.03
0.01
0.06
0.12
0.20
0.30
0.43
0.57
0.69
0.71
0.60
0.40
0.17
0.02
-0.02
0.04
0.13
0.17
0.14
0.03
-0.08
-0.16
-0.17
-0.12
-0.04
0.02
0.02
-0.05
-0.18
-0.33
-0.48
-0.61
-0.71
-0.77
-0.74
-0.56
-0.21
0.29
0.80
1.15
1.19
0.88
0.30
-0.34
-0.84
-1.05
-0.93
-0.58
-0.15
0.20
0.38
0.38
0.28
0.18
0.13
0.16
0.20
0.22
0.18
0.11
0.08
0.13
0.26
0.35
0.32
0.13
-0.19
-0.50
-0.66
-0.59
-0.34
-0.02
0.24
0.36
0.37
0.36
0.39
0.50
0.62
0.65
0.47
0.06
-0.48
-1.00
-1.31
-1.32
-1.05
-0.62
-0.21
0.08
0.20
0.21
0.20
0.20
0.20
0.14
-0.04
-0.35
-0.70
-0.95
-0.96
-0.66
-0.14
0.44
0.86
0.99
0.81
0.43
0.02
-0.33
-0.58
-0.75
-0.85
-0.84
-0.65
-0.29
0.16
0.53
0.67
0.53
0.20
-0.12
-0.26
-0.17
0.09
0.36
0.51
0.48
0.33
0.13
-0.02
-0.08
-0.05
0.03
0.11
0.16
0.18
0.21
0.30
0.47
0.69
0.84
0.83
0.63
0.29
-0.05
-0.28
-0.36
-0.34
-0.32
-0.35
-0.43
-0.49
-0.49
-0.41
-0.34
-0.34
-0.44
-0.57
-0.63
-0.53
-0.27
0.08
0.42
0.67
0.77
0.71
0.54
0.31
0.08
-0.09
-0.16
-0.10
0.07
0.31
0.57
0.81
0.96
0.97
0.79
0.41
-0.11
-0.67
-1.11
-1.29
-1.13
-0.67
-0.05
0.54
0.93
1.03
0.85
0.50
0.12
-0.14
-0.22
-0.14
0.02
0.19
0.30
0.37
0.41
0.47
0.53
0.55
0.50
0.36
0.19
0.05
-0.02
-0.03
-0.02
-0.08
-0.23
-0.42
-0.57
-0.60
-0.45
-0.18
0.10
0.28
0.28
0.10
-0.17
-0.45
-0.66
-0.73
-0.65
-0.46
-0.20
0.02
0.13
0.10
-0.05
-0.23
-0.36
-0.40
-0.38
-0.35
-0.37
-0.42
-0.45
-0.40
-0.30
-0.17
-0.08
-0.04
-0.02
0.04
0.12
0.18
0.17
0.08
-0.05
-0.10
-0.02
0.18
0.38
0.49
0.43
0.26
0.08
-0.00
0.05
0.21
0.38
0.50
0.55
0.54
0.51
0.49
0.51
0.59
0.71
0.84
0.89
0.82
0.60
0.27
-0.09
-0.38
-0.52
-0.50
-0.38
-0.22
-0.09
-0.02
0.00
-0.01
-0.05
-0.12
-0.20
-0.28
-0.36
-0.43
-0.48
-0.50
-0.48
-0.42
-0.32
-0.23
-0.22
-0.30
-0.47
-0.62
-0.68
-0.60
-0.41
-0.24
-0.19
-0.29
-0.48
-0.63
-0.59
-0.33
0.09
0.52
0.80
0.85
0.67
0.35
-0.00
-0.28
-0.47
-0.55
-0.57
-0.52
-0.42
-0.25
-0.04
0.16
0.29
0.32
0.30
0.29
0.34
0.46
0.57
0.57
0.42
0.15
-0.12
-0.25
-0.16
0.10
0.41
0.56
0.42
0.03
-0.46
-0.85
-0.95
-0.76
-0.38
0.03
0.37
0.61
0.80
0.95
1.03
0.99
0.80
0.50
0.22
0.08
0.16
0.41
0.71
0.91
0.92
0.74
0.43
0.05
-0.32
-0.66
-0.96
-1.22
-1.37
-1.38
-1.21
-0.92
-0.59
-0.35
-0.26
-0.30
-0.39
-0.42
-0.37
-0.26
-0.16
-0.10
-0.07
-0.01
0.08
0.18
0.20
0.10
-0.12
-0.37
-0.57
-0.64
-0.58
-0.38
-0.09
0.26
0.62
0.91
1.03
0.96
0.75
0.50
0.36
0.40
0.61
0.84
0.96
0.84
0.51
0.09
-0.27
-0.45
-0.40
-0.19
0.06
0.23
0.26
0.15
-0.05
-0.25
-0.40
-0.46
-0.41
-0.24
0.02
0.36
0.68
0.91
0.96
0.79
0.46
0.06
-0.30
-0.55
-0.69
-0.75
-0.80
-0.86
-0.91
-0.92
-0.89
-0.84
-0.80
-0.80
-0.80
-0.77
-0.65
-0.43
-0.15
0.15
0.42
0.66
0.87
1.04
1.13
1.09
0.86
0.50
0.12
-0.11
-0.09
0.15
0.48
0.72
0.77
0.63
0.40
0.21
0.10
0.08
0.07
0.03
-0.02
-0.00
0.13
0.37
0.65
0.86
0.94
0.84
0.62
0.34
0.09
-0.10
-0.22
-0.29
-0.36
-0.41
-0.40
-0.30
-0.12
0.08
0.19
0.11
-0.18
-0.60
-0.99
-1.23
-1.25
-1.08
-0.83
-0.62
-0.50
-0.45
-0.40
-0.32
-0.21
-0.11
-0.10
-0.18
-0.30
-0.35
-0.27
-0.05
0.26
0.52
0.66
0.65
0.57
0.47
0.43
0.44
0.42
0.33
0.13
-0.16
-0.48
-0.78
-0.99
-1.09
-1.06
-0.89
-0.62
-0.30
-0.00
0.21
0.30
0.27
0.14
-0.03
-0.20
-0.34
-0.44
-0.47
-0.44
-0.36
-0.25
-0.09
0.12
0.38
0.66
0.91
1.07
1.10
1.00
0.83
0.65
0.52
0.42
0.31
0.14
-0.05
-0.23
-0.32
-0.31
-0.23
-0.14
-0.08
-0.07
-0.07
-0.08
-0.09
-0.16
-0.30
-0.52
-0.73
-0.85
-0.83
-0.67
-0.46
-0.30
-0.23
-0.21
-0.17
-0.00
0.29
0.65
0.93
1.03
0.92
0.67
0.41
0.27
0.32
0.52
0.76
0.96
1.05
1.02
0.94
0.83
0.74
0.67
0.61
0.54
0.45
0.33
0.20
0.07
-0.02
-0.09
-0.17
-0.28
-0.45
-0.61
-0.68
-0.60
-0.39
-0.16
-0.04
-0.12
-0.35
-0.63
-0.81
-0.83
-0.71
-0.52
-0.33
-0.16
0.04
0.26
0.45
0.52
0.37
0.02
-0.42
-0.75
-0.84
-0.60
-0.10
0.51
1.03
1.32
1.30
0.98
0.49
-0.05
-0.48
-0.72
-0.74
-0.61
-0.40
-0.18
-0.01
0.09
0.09
0.03
-0.11
-0.30
-0.51
-0.68
-0.75
-0.68
-0.49
-0.23
0.00
0.14
0.16
0.08
0.01
0.03
0.19
0.45
0.71
0.86
0.83
0.60
0.27
-0.06
-0.30
-0.39
-0.32
-0.09
0.24
0.61
0.94
1.15
1.16
0.92
0.46
-0.13
-0.71
-1.11
-1.25
-1.09
-0.72
-0.25
0.16
0.37
0.34
0.10
-0.26
-0.60
-0.79
-0.76
-0.50
-0.11
0.29
0.57
0.68
0.63
0.50
0.34
0.20
0.05
-0.12
-0.32
-0.48
-0.54
-0.46
-0.28
-0.07
0.03
-0.00
-0.15
-0.31
-0.36
-0.27
-0.08
0.06
0.04
-0.18
-0.54
-0.90
-1.10
-1.09
-0.87
-0.54
-0.17
0.16
0.42
0.62
0.79
0.92
1.00
0.98
0.87
0.68
0.47
0.28
0.14
0.06
0.00
-0.05
-0.09
-0.12
-0.11
-0.10
-0.12
-0.18
-0.28
-0.37
-0.40
-0.33
-0.20
-0.06
0.05
0.09
0.07
0.03
0.00
0.00
0.03
0.05
0.03
-0.05
-0.15
-0.20
-0.15
0.05
0.33
0.60
0.74
0.67
0.44
0.11
-0.18
-0.35
-0.37
-0.28
-0.15
-0.04
0.03
0.05
0.04
0.01
-0.04
-0.12
-0.21
-0.28
-0.28
-0.22
-0.14
-0.11
-0.20
-0.39
-0.61
-0.76
-0.78
-0.64
-0.40
-0.11
0.20
0.54
0.88
1.18
1.33
1.24
0.91
0.40
-0.13
-0.55
-0.73
-0.64
-0.35
0.07
0.51
0.87
1.11
1.21
1.16
0.99
0.76
0.54
0.37
0.28
0.28
0.35
0.44
0.50
0.50
0.41
0.25
0.03
-0.21
-0.45
-0.69
-0.88
-1.00
-0.99
-0.82
-0.53
-0.22
-0.05
-0.08
-0.30
-0.55
-0.67
-0.54
-0.19
0.23
0.51
0.53
0.32
-0.01
-0.28
-0.41
-0.40
-0.33
-0.30
-0.33
-0.42
-0.48
-0.44
-0.27
0.02
0.35
0.60
0.65
0.43
0.01
-0.45
-0.78
-0.84
-0.60
-0.21
0.16
0.34
0.31
0.14
-0.05
-0.12
-0.05
0.13
0.34
0.51
0.62
0.67
0.67
0.64
0.56
0.43
0.23
0.02
-0.19
-0.36
-0.47
-0.53
-0.57
-0.59
-0.58
-0.50
-0.33
-0.08
0.22
0.51
0.74
0.86
0.84
0.68
0.44
0.16
-0.08
-0.19
-0.14
0.03
0.24
0.34
0.24
-0.02
-0.35
-0.58
-0.59
-0.39
-0.10
0.10
0.12
-0.01
-0.16
-0.17
0.00
0.26
0.41
0.33
0.03
-0.33
-0.54
-0.45
-0.06
0.46
0.89
1.05
0.92
0.61
0.28
0.07
0.01
0.05
0.13
0.19
0.23
0.29
0.39
0.54
0.74
0.98
1.26
1.56
1.85
2.06
2.12
2.00
1.75
1.46
1.23
1.14
1.19
1.32
1.45
1.47
1.33
1.00
0.57
0.18
0.01
0.19
0.74
1.53
2.34
2.91
3.09
2.81
2.15
1.24
0.20
-0.80
-1.65
-2.29
-2.86
-3.76
-5.69
-9.43
-15.62
-24.42
-35.35
-47.37
-59.16
-69.53
-77.76
-83.75
-87.96
-91.22
-94.40
-98.23
-103.09
-108.93
-115.42
-121.92
-127.79
-132.55
-136.07
-138.65
-141.09
-144.46
-149.69
-156.95
-165.06
-171.39
-172.31
-164.15
-144.37
-112.37
-69.77
-20.15
31.69
80.68
122.41
153.88
173.96
183.30
183.98
178.66
169.95
159.91
150.01
141.26
134.34
129.58
126.70
124.92
123.17
120.57
116.86
112.44
108.08
104.46
101.84
99.93
98.13
95.81
92.64
88.72
84.56
80.86
78.26
77.04
76.98
77.50
77.86
77.55
76.48
75.02
73.94
74.25
77.00
82.77
91.18
100.42
107.16
107.25
96.83
73.45
36.72
-11.82
-69.16
-131.40
-194.08
-252.60
-302.64
-340.88
-365.47
-376.24
-374.23
-360.93
-337.61
-305.25
-264.81
-217.54
-165.00
-108.83
-50.74
7.21
62.29
111.04
150.00
176.87
191.55
196.23
194.56
190.27
186.11
183.41
182.52
183.38
185.95
190.19
195.82
202.17
208.31
213.53
217.64
221.15
225.06
230.50
237.99
246.94
255.38
260.18
257.86
245.70
222.57
189.23
148.08
102.50
56.00
11.37
-29.82
-67.30
-101.60
-133.17
-161.59
-185.35
-202.35
-210.99
-211.17
-204.69
-194.59
-183.87
-174.30
-165.98
-157.93
-149.15
-139.43
-129.45
-120.26
-112.47
-105.98
-100.08
-93.89
-86.85
-79.07
-71.18
-64.02
-58.27
-54.15
-51.43
-49.61
-48.12
-46.60
-44.92
-43.22
-41.72
-40.69
-40.37
-40.87
-42.18
-44.13
-46.46
-48.90
-51.33
-53.83
-56.70
-60.39
-65.28
-71.53
-78.93
-86.95
-94.89
-102.12
-108.32
-113.63
-118.62
-124.12
-131.01
-140.08
-151.94
-166.79
-184.01
-201.81
-217.10
-226.03
-225.08
-212.21
-187.63
-153.52
-113.00
-68.68
-22.02
26.36
75.52
123.17
165.58
198.73
219.99
229.38
229.55
224.51
217.89
211.76
206.46
201.42
196.28
191.48
188.00
186.63
187.27
188.83
189.77
189.00
186.48
183.27
181.02
181.12
184.10
189.38
195.65
201.44
205.81
208.58
210.36
212.20
215.23
220.25
227.35
235.59
242.91
246.49
243.44
231.76
211.09
182.76
149.19
112.82
75.16
36.32
-4.65
-48.79
-95.98
-144.23
-189.73
-227.80
-254.48
-267.95
-269.08
-260.96
-247.59
-232.32
-216.97
-202.00
-187.21
-172.70
-159.15
-147.50
-138.24
-130.95
-124.37
-117.11
-108.31
-98.11
-87.46
-77.67
-69.69
-63.75
-59.30
-55.38
-51.05
-45.85
-39.90
-33.80
-28.28
-23.92
-20.89
-18.94
-17.58
-16.23
-14.57
-12.50
-10.18
-7.90
-5.90
-4.32
-3.16
-2.33
-1.70
-1.17
-0.65
-0.14
0.37
0.83
1.16
1.31
1.20
0.80
0.16
-0.66
-1.55
-2.41
-3.11
-3.56
-3.67
-3.45
-2.96
-2.36
-1.83
-1.56
-1.64
-2.05
-2.63
-3.21
-3.62
-3.80
-3.80
-3.67
-3.50
-3.27
-2.97
-2.60
-2.20
-1.86
-1.66
-1.58
-1.52
-1.35
-0.96
-0.36
0.36
1.03
1.56
1.90
2.10
2.24
2.34
2.41
2.40
2.29
2.08
1.81
1.52
1.29
1.14
1.09
1.16
1.34
1.62
1.93
2.17
2.25
2.10
1.71
1.17
0.60
0.13
-0.16
-0.23
-0.12
0.12
0.44
0.84
1.29
1.81
2.33
2.81
3.19
3.47
3.66
3.81
3.91
3.93
3.81
3.51
3.03
2.41
1.74
1.11
0.57
0.17
-0.07
-0.17
-0.16
-0.13
-0.17
-0.34
-0.57
-0.69
-0.49
0.09
0.89
1.51
1.49
0.56
-1.22
-3.43
-5.55
-7.23
-8.48
-9.67
-11.31
-13.68
-16.71
-19.96
-22.81
-24.79
-25.76
-25.98
-26.02
-26.53
-27.96
-30.33
-33.19
-35.73
-37.12
-36.90
-35.21
-32.72
-30.36
-28.86
-28.50
-29.21
-30.77
-32.73
-34.10
-32.99
-26.76
-12.91
9.52
39.00
71.53
101.99
126.11
141.87
149.50
150.16
144.39
131.43
110.17
80.86
46.39
12.07
-16.27
-34.74
-42.89
-43.58
-41.22
-39.62
-40.47
-43.14
-45.82
-46.84
-45.72
-43.23
-40.82
-39.79
-40.70
-43.24
-46.48
-49.38
-51.27
-52.05
-52.24
-52.70
-54.29
-57.49
-62.25
-67.96
-73.79
-79.04
-83.25
-86.16
-87.45
-86.70
-83.64
-78.59
-72.97
-69.08
-69.10
-73.56
-80.43
-85.44
-84.04
-73.59
-54.89
-31.72
-8.99
9.60
22.81
31.58
37.66
42.20
45.38
47.06
47.74
48.91
52.54
59.79
70.15
81.40
90.54
95.02
93.79
87.82
79.99
74.30
74.60
83.16
99.64
121.13
143.18
161.53
173.81
180.13
182.49
183.37
184.42
185.90
187.28
188.26
189.48
192.30
197.64
204.75
210.71
211.11
201.65
179.59
144.80
99.59
47.87
-5.86
-57.34
-102.87
-139.55
-165.44
-179.94
-183.93
-179.65
-170.12
-158.37
-146.86
-137.18
-130.07
-125.57
-123.11
-121.64
-119.92
-116.91
-112.25
-106.46
-100.74
-96.42
-94.24
-93.98
-94.55
-94.47
-92.60
-88.62
-83.14
-77.45
-72.92
-70.53
-70.61
-72.77
-75.84
-77.81
-75.91
-67.17
-49.48
-22.68
10.81
46.47
79.13
104.84
122.22
132.48
138.22
141.65
143.22
141.68
135.19
122.97
106.22
87.83
71.06
57.98
48.69
41.42
33.69
23.58
10.70
-3.72
-17.46
-28.24
-34.58
-36.24
