1660334821.00
64.000000
-0.00
-0.00
-0.00
-0.00
-0.00
-0.00
-0.00
-0.00
-0.00
-0.00
0.00
0.01
0.01
-0.00
-0.03
-0.05
-0.05
0.00
0.13
0.36
0.66
1.01
1.37
1.72
2.06
2.40
2.79
3.24
3.80
4.42
5.06
5.66
6.20
6.68
7.15
7.68
8.31
9.15
10.09
11.04
11.88
12.56
13.13
13.76
14.67
16.00
17.98
20.37
22.90
25.25
27.28
29.07
30.98
33.48
36.90
41.59
47.17
53.07
58.69
63.67
68.10
72.50
77.62
83.98
92.08
101.32
110.84
119.69
127.33
133.86
140.02
147.26
154.27
163.22
174.51
188.03
202.46
214.93
221.32
217.31
199.77
167.89
123.83
71.04
13.41
-46.09
-105.82
-165.11
-223.47
-280.12
-334.07
-384.17
-430.18
-472.14
-509.89
-542.47
-567.85
-583.42
-586.68
-576.27
-552.23
-516.43
-471.80
-421.77
-369.67
-318.06
-268.21
-219.69
-170.62
-118.30
-60.91
1.42
65.94
128.02
182.65
226.28
257.73
278.04
289.44
294.01
293.08
287.37
277.50
264.53
249.91
235.06
220.90
207.56
194.59
181.33
167.34
152.70
137.89
123.67
110.71
99.38
89.58
80.80
72.39
63.85
55.08
46.38
38.34
31.56
26.32
22.56
19.74
17.18
14.34
11.00
7.30
3.58
0.21
-2.52
-4.56
-6.04
-7.20
-8.20
-9.07
-9.72
-9.96
-9.71
-9.09
-8.34
-7.75
-7.48
-7.47
-7.54
-7.46
-7.16
-6.69
-6.23
-5.94
-5.94
-6.18
-6.57
-6.94
-7.11
-6.91
-6.23
-5.09
-3.59
-1.99
-0.58
0.35
0.65
0.37
-0.29
-1.03
-1.58
-1.87
-2.01
-2.23
-2.70
-3.37
-3.99
-4.20
-3.84
-3.05
-2.21
-1.70
-1.68
-1.95
-2.14
-1.98
-1.41
-0.57
0.38
1.52
3.05
5.06
7.23
8.80
8.96
7.33
4.36
1.30
-0.39
0.22
2.98
6.65
9.50
10.05
7.77
3.26
-2.17
-7.01
-10.25
-11.59
-11.35
-10.12
-8.38
-6.35
-4.07
-1.62
0.69
2.42
3.20
3.07
2.48
2.10
2.58
4.01
5.84
6.97
6.18
2.79
-2.74
-8.72
-12.68
-12.40
-7.06
2.10
12.22
20.05
23.19
21.19
15.29
7.48
-0.51
-7.34
-11.57
-11.37
-5.31
6.17
19.58
29.07
28.91
16.76
-4.58
-28.12
-46.17
-54.15
-52.52
-45.60
-38.45
-33.83
-31.20
-28.09
-22.52
-14.54
-5.92
1.50
7.27
12.38
18.24
25.50
32.98
38.29
39.05
34.16
24.31
11.59
-1.44
-12.59
-20.51
-24.78
-25.67
-23.87
-20.39
-16.39
-12.96
-10.73
-9.66
-9.05
-7.34
-3.40
3.36
12.70
23.54
34.24
43.01
48.37
49.40
45.91
38.34
27.85
16.09
4.98
-3.83
-9.33
-11.42
-10.82
-8.80
-6.66
-5.34
-5.21
-6.20
-8.00
-10.16
-12.20
-13.67
-14.17
-13.61
-12.18
-10.36
-8.66
-7.34
-6.23
-4.90
-2.99
-0.50
2.09
4.05
4.70
3.68
0.95
-3.28
-8.72
-14.92
-21.17
-26.49
-29.85
-30.53
-28.45
-24.28
-19.10
-13.89
-9.11
-4.66
-0.08
4.96
10.39
15.63
19.71
21.58
20.48
16.27
9.67
2.21
-4.25
-8.13
-8.81
-6.92
-4.06
-2.08
-2.15
-4.34
-7.65
-10.62
-12.06
-11.57
-9.56
-6.98
-4.96
-4.41
-5.79
-9.11
-13.97
-19.67
-25.45
-30.65
-34.81
-37.63
-38.86
-38.30
-35.88
-31.79
-26.60
-21.12
-16.17
-12.22
-9.20
-6.65
-4.05
-1.12
2.04
5.06
7.60
9.52
10.91
11.95
12.79
13.47
14.04
14.62
15.46
16.71
18.36
20.10
21.46
22.00
21.51
20.08
18.06
15.80
13.56
11.44
9.41
7.49
5.80
4.60
4.15
4.65
6.04
8.06
10.28
12.26
13.66
14.26
13.96
12.74
10.67
7.96
4.96
2.11
-0.13
-1.45
-1.76
-1.15
0.10
1.67
3.25
4.58
5.51
5.98
6.09
5.94
5.62
5.17
4.52
3.59
2.35
0.84
-0.83
-2.53
-4.11
-5.48
-6.59
-7.47
-8.26
-9.15
-10.29
-11.70
-13.23
-14.53
-15.19
-14.91
-13.57
-11.23
-8.10
-4.34
-0.08
4.60
9.51
14.20
17.99
20.08
19.92
17.47
13.33
8.60
4.45
1.76
0.80
1.30
2.65
4.18
5.33
5.75
5.24
3.75
1.38
-1.53
-4.50
-6.98
-8.54
-8.96
-8.35
-7.02
-5.39
-3.84
-2.66
-1.97
-1.79
-2.06
-2.69
-3.55
-4.50
-5.30
-5.65
-5.26
-4.02
-2.05
0.24
2.41
4.12
5.41
6.57
8.05
10.09
12.64
15.29
17.44
18.64
18.71
17.85
16.49
15.12
14.09
13.48
13.19
12.93
12.44
11.49
9.99
7.92
5.34
2.49
-0.25
-2.37
-3.39
-3.10
-1.81
-0.33
0.20
-1.24
-5.16
-11.26
-18.58
-25.82
-31.74
-35.54
-36.85
-35.67
-32.11
-26.37
-18.82
-10.12
-1.22
6.79
13.13
17.62
20.84
23.75
27.33
32.00
37.40
42.48
45.88
46.34
43.12
36.22
26.32
14.58
2.39
-9.04
-18.89
-26.82
-32.91
-37.41
-40.59
-42.61
-43.49
-43.14
-41.46
-38.29
-33.57
-27.34
-19.84
-11.59
-3.37
3.90
9.43
12.75
13.89
13.34
11.88
10.31
9.21
8.80
8.97
9.40
9.71
9.65
9.14
8.25
7.17
6.15
5.46
5.27
5.62
6.37
7.26
7.97
8.24
7.96
7.11
5.79
4.14
2.27
0.33
-1.57
-3.29
-4.71
-5.77
-6.48
-6.89
-7.08
-7.11
-6.99
-6.70
-6.18
-5.38
-4.26
-2.88
-1.33
0.23
1.68
2.95
4.09
5.17
6.28
7.44
8.56
9.51
10.12
10.35
10.25
10.03
9.98
10.37
11.30
12.67
14.12
15.17
15.43
14.66
12.94
10.62
8.15
5.93
4.16
2.79
1.66
0.61
-0.34
-0.96
-1.02
-0.43
0.64
1.74
2.44
2.53
2.19
1.79
1.65
1.84
2.14
2.30
2.20
1.94
1.69
1.44
0.88
-0.46
-2.94
-6.53
-10.74
-14.79
-17.92
-19.65
-19.87
-18.80
-16.74
-14.02
-10.88
-7.55
-4.25
-1.17
1.53
3.79
5.61
7.07
8.33
9.57
11.00
12.67
14.51
16.24
17.51
18.00
17.51
16.04
13.73
10.82
7.59
4.38
1.57
-0.42
-1.33
-1.17
-0.26
0.87
1.72
2.07
2.01
1.85
1.91
2.28
2.80
3.17
3.05
2.26
0.76
-1.32
-3.78
-6.39
-8.89
-11.01
-12.50
-13.25
-13.27
-12.80
-12.22
-11.91
-12.10
-12.78
-13.68
-14.42
-14.63
-14.09
-12.78
-10.83
-8.41
-5.65
-2.66
0.49
3.65
6.64
9.20
11.05
11.94
11.69
10.25
7.78
4.67
1.47
-1.17
-2.78
-3.14
-2.37
-0.86
0.90
2.50
3.62
4.14
3.97
3.12
1.61
-0.41
-2.76
-5.15
-7.27
-8.90
-9.88
-10.17
-9.78
-8.79
-7.30
-5.46
-3.46
-1.50
0.27
1.79
3.05
4.06
4.83
5.32
5.50
5.41
5.12
4.71
4.20
3.54
2.69
1.66
0.66
-0.03
-0.08
0.65
2.08
3.94
5.87
7.56
8.82
9.57
9.77
9.45
8.63
7.43
6.03
4.61
3.34
2.29
1.53
1.07
0.95
1.20
1.79
2.60
3.41
3.95
4.02
3.56
2.66
1.54
0.46
-0.42
-1.06
-1.55
-1.96
-2.39
-2.90
-3.51
-4.25
-5.10
-5.92
-6.50
-6.57
-5.97
-4.69
-2.92
-0.98
0.77
2.09
2.88
3.10
2.80
2.08
1.05
-0.08
-1.08
-1.76
-2.03
-1.92
-1.53
-1.01
-0.48
-0.03
0.31
0.51
0.60
0.64
0.65
0.65
0.62
0.50
0.26
-0.13
-0.61
-1.15
-1.67
-2.14
-2.57
-2.96
-3.29
-3.47
-3.39
-2.93
-2.05
-0.78
0.73
2.31
3.73
4.81
5.42
5.50
5.05
4.14
2.88
1.45
0.01
-1.26
-2.21
-2.74
-2.82
-2.49
-1.86
-1.12
-0.46
-0.03
0.10
-0.02
-0.30
-0.64
-0.99
-1.32
-1.63
-1.92
-2.17
-2.39
-2.63
-2.96
-3.42
-3.94
-4.34
-4.37
-3.80
-2.54
-0.70
1.42
3.46
5.08
6.08
6.43
6.21
5.58
4.69
3.65
2.54
1.43
0.37
-0.55
-1.26
-1.70
-1.86
-1.77
-1.53
-1.23
-1.00
-0.92
-1.00
-1.21
-1.50
-1.82
-2.14
-2.45
-2.74
-2.96
-3.08
-3.11
-3.09
-3.09
-3.16
-3.25
-3.22
-2.91
-2.19
-1.05
0.37
1.87
3.22
4.27
4.96
5.25
5.14
4.63
3.76
2.63
1.44
0.43
-0.14
-0.17
0.31
1.08
1.82
2.25
2.23
1.77
1.05
0.33
-0.19
-0.41
-0.34
-0.07
0.28
0.56
0.57
0.10
-1.01
-2.82
-5.21
-7.86
-10.36
-12.32
-13.40
-13.36
-12.04
-9.41
-5.64
-1.23
3.05
6.36
8.06
7.94
6.36
3.97
1.46
-0.73
-2.50
-3.95
-5.26
-6.47
-7.53
-8.33
-8.79
-8.83
-8.39
-7.36
-5.75
-3.72
-1.60
0.23
1.63
2.82
4.34
6.77
10.39
14.97
19.88
24.34
27.80
30.05
31.11
31.08
29.87
27.35
23.43
18.36
12.66
7.00
1.93
-2.37
-5.97
-9.11
-11.92
-14.37
-16.24
-17.31
-17.54
-17.07
-16.20
-15.25
-14.43
-13.83
-13.40
-13.03
-12.64
-12.14
-11.50
-10.71
-9.80
-8.86
-8.02
-7.37
-6.99
-6.84
-6.80
-6.68
-6.30
-5.53
-4.29
-2.63
-0.69
1.34
3.27
4.94
6.24
7.15
7.69
7.93
7.96
7.87
7.77
7.74
7.80
7.96
8.14
8.28
8.25
8.01
7.54
6.84
5.96
4.99
4.00
3.11
2.37
1.81
1.36
0.87
0.17
-0.85
-2.18
-3.66
-5.05
-6.13
-6.78
-7.07
-7.13
-7.09
-6.95
-6.62
-5.95
-4.92
-3.65
-2.39
-1.40
-0.86
-0.81
-1.14
-1.72
-2.40
-3.11
-3.75
-4.26
-4.57
-4.62
-4.42
-4.04
-3.59
-3.20
-2.98
-2.98
-3.21
-3.60
-4.07
-4.54
-4.95
-5.28
-5.53
-5.70
-5.75
-5.63
-5.25
-4.57
-3.58
-2.36
-1.08
0.08
1.00
1.68
2.20
2.64
3.01
3.22
3.06
2.38
1.18
-0.36
-1.93
-3.26
-4.25
-4.97
-5.57
-6.15
-6.64
-6.91
-6.78
-6.26
-5.50
-4.73
-4.13
-3.74
-3.42
-2.97
-2.26
-1.31
-0.27
0.67
1.41
1.98
2.54
3.24
4.20
5.38
6.68
7.89
8.83
9.38
9.50
9.24
8.69
7.96
7.12
6.23
5.33
4.47
3.74
3.19
2.83
2.62
2.48
2.37
2.31
2.39
2.76
3.49
4.56
5.83
7.08
8.09
8.67
8.73
8.25
7.30
5.95
4.33
2.54
0.72
-1.00
-2.43
-3.36
-3.54
-2.77
-0.98
1.71
4.93
8.11
10.64
12.01
11.99
10.66
8.34
5.42
2.26
-0.95
-4.14
-7.29
-10.37
-13.31
-16.05
-18.50
-20.65
-22.51
-24.07
-25.26
-25.91
-25.81
-24.72
-22.50
-19.15
-14.86
-10.01
-5.08
-0.60
2.97
5.28
6.14
5.53
3.67
1.03
-1.70
-3.71
-4.29
-2.99
0.17
4.67
9.63
14.10
17.36
19.17
19.79
19.81
19.95
20.82
22.79
25.95
30.07
34.66
38.99
42.26
43.75
43.08
40.28
35.77
30.25
24.40
18.76
13.58
8.90
4.62
0.65
-3.01
-6.28
-9.01
-11.01
-12.17
-12.41
-11.80
-10.51
-8.79
-6.94
-5.25
-3.95
-3.19
-3.00
-3.36
-4.21
-5.46
-6.99
-8.61
-10.08
-11.17
-11.69
-11.66
-11.22
-10.62
-10.09
-9.76
-9.64
-9.64
-9.73
-9.91
-10.23
-10.72
-11.29
-11.80
-12.12
-12.17
-12.05
-11.89
-11.80
-11.76
-11.59
-11.05
-9.92
-8.15
-5.86
-3.32
-0.88
1.16
2.58
3.34
3.48
3.20
2.69
2.14
1.65
1.30
1.12
1.14
1.39
1.83
2.37
2.86
3.16
3.23
3.12
2.93
2.72
2.41
1.83
0.83
-0.63
-2.40
-4.19
-5.71
-6.69
-7.01
-6.63
-5.58
-3.94
-1.89
0.34
2.45
4.21
5.52
6.39
6.84
6.79
6.02
4.27
1.41
-2.36
-6.45
-10.01
-12.12
-12.12
-9.76
-5.26
0.70
7.26
13.50
18.73
22.59
25.01
26.10
26.03
24.85
22.55
19.16
14.78
9.69
4.23
-1.26
-6.57
-11.57
-16.16
-20.20
-23.53
-25.98
-27.50
-28.23
-28.45
-28.50
-28.66
-29.09
-29.73
-30.43
-30.98
-31.18
-30.92
-30.17
-28.94
-27.32
-25.37
-23.18
-20.87
-18.56
-16.40
-14.53
-13.02
-11.82
-10.81
-9.79
-8.56
-7.05
-5.25
-3.28
-1.28
0.61
2.29
3.69
4.82
5.72
6.49
7.27
8.17
9.21
10.33
11.36
12.12
12.44
12.29
11.73
10.84
9.71
8.39
6.88
5.23
3.58
2.14
1.07
0.43
0.09
-0.14
-0.40
-0.64
-0.62
-0.04
1.29
3.31
5.68
8.02
10.07
11.85
13.64
15.84
18.73
22.37
26.50
30.62
34.11
36.36
36.92
35.65
32.82
29.11
25.46
22.81
21.77
22.43
24.37
26.86
29.23
31.12
32.53
33.69
34.83
35.99
37.06
37.82
38.15
38.07
37.66
37.00
36.08
34.77
32.97
30.67
28.02
25.27
22.64
20.25
18.07
16.01
13.97
11.89
9.71
7.39
4.88
2.13
-0.83
-3.89
-6.82
-9.34
-11.14
-11.97
-11.71
-10.41
-8.27
-5.64
-2.96
-0.69
0.82
1.23
0.40
-1.57
-4.44
-7.91
-11.74
-15.70
-19.57
-23.09
-26.12
-28.58
-30.40
-31.57
-32.16
-32.31
-32.14
-31.68
-30.85
-29.75
-28.45
-26.85
-24.82
-22.37
-19.72
-17.21
-15.19
-13.88
-14.10
-16.22
-19.69
-23.23
-25.44
-25.36
-22.61
-17.48
-10.75
-4.99
-2.11
-2.33
-4.24
-6.14
-6.97
-6.59
-5.63
-5.06
-8.30
-17.51
-32.16
-49.43
-66.29
-80.96
-93.15
-103.71
-113.91
-128.04
-148.53
-174.20
-200.98
-224.62
-242.68
-254.43
-260.22
-240.97
-188.74
-112.21
-32.11
33.45
76.81
99.11
106.35
106.05
105.00
104.31
103.09
100.60
97.25
93.87
90.63
88.48
87.85
88.67
88.03
83.71
75.77
66.52
58.59
53.61
51.92
52.73
54.79
55.32
52.52
46.58
39.22
32.40
27.25
24.02
22.20
21.10
19.42
16.44
12.44
8.46
5.58
4.30
4.47
5.32
5.89
5.08
2.28
-2.36
-8.03
-13.63
-18.15
-20.90
-21.61
-20.41
-17.83
-14.60
-11.52
-9.17
-7.76
-7.04
-6.54
-5.81
-4.73
-3.61
-3.01
-3.41
-4.95
-7.24
-9.55
-11.15
-11.60
-10.94
-9.60
-8.18
-7.16
-6.69
-6.64
-6.68
-6.51
-5.93
-4.92
-3.58
-2.12
-0.80
0.06
0.21
-0.50
-1.95
-3.77
-5.41
-6.36
-6.43
-5.89
-5.40
-5.74
-7.43
-10.44
-14.08
-17.24
-18.78
-18.00
-14.82
-9.83
-3.97
1.83
6.85
10.76
13.54
15.35
16.40
16.97
17.33
17.75
18.43
19.36
20.27
20.71
20.17
18.37
15.42
11.82
8.26
5.31
3.19
1.77
0.76
0.02
-0.25
0.35
2.22
5.39
9.46
13.78
17.72
21.00
23.72
26.19
28.71
31.34
33.96
36.31
38.12
39.17
39.28
38.23
35.81
32.09
27.65
23.64
21.47
22.05
25.23
29.44
32.32
31.60
26.26
16.97
5.73
-5.12
-14.01
-20.61
-25.58
-29.86
-33.86
-37.35
-39.65
-40.24
-39.06
-36.54
-33.26
-29.63
-25.72
-21.44
-16.82
-12.33
-8.84
-7.25
-8.06
-11.00
-15.12
-19.09
-21.81
-22.77
-22.16
-20.57
-18.62
-16.75
-15.11
-13.72
-12.58
-11.69
-10.95
-10.06
-8.55
-5.98
-2.20
2.53
7.61
12.34
16.24
19.18
21.37
23.18
24.90
26.60
28.19
29.51
30.55
31.46
32.51
33.92
35.74
37.82
39.89
41.74
43.28
44.53
45.53
46.20
46.28
45.45
43.49
40.47
36.78
32.94
29.24
25.55
21.28
15.67
8.23
-0.93
-11.02
-20.89
-29.48
-36.23
-41.18
-44.82
-47.82
-50.69
-53.73
-56.95
-60.19
-63.07
-65.06
-65.52
-63.89
-60.03
-54.39
-47.97
-41.93
-37.04
-33.33
-30.04
-26.11
-20.77
-13.99
-6.50
0.58
6.35
10.47
13.24
15.28
17.14
19.03
20.79
22.14
22.94
23.38
23.92
25.10
27.22
30.28
33.92
37.65
41.05
43.93
46.29
48.19
49.63
50.55
50.96
50.98
50.86
50.77
50.63
50.02
48.38
45.26
40.65
35.04
29.19
23.85
19.44
15.97
13.17
10.68
8.30
6.01
3.94
2.20
0.76
-0.61
-2.30
-4.77
-8.32
-13.02
-18.61
-24.59
-30.39
-35.57
-39.98
-43.73
-47.14
-50.50
-54.00
-57.59
-61.03
-63.97
-65.95
-66.46
-65.02
-61.26
-55.10
-46.91
-37.48
-27.81
-18.72
-10.60
-3.38
3.19
9.22
14.49
18.54
21.03
21.99
21.92
21.56
21.47
21.80
22.22
22.21
21.39
19.72
17.55
15.38
13.63
12.48
11.86
11.54
11.34
11.30
11.63
12.63
14.51
17.24
20.55
24.02
27.31
30.22
32.70
34.68
35.95
36.12
34.76
31.70
27.18
21.89
16.81
12.86
10.55
9.89
10.41
11.48
12.58
13.48
14.18
14.71
14.97
14.62
13.25
10.60
6.76
2.15
-2.65
-7.21
-11.43
-15.54
-19.90
-24.68
-29.69
-34.50
-38.66
-41.97
-44.61
-46.98
-49.43
-51.98
-54.34
-56.09
-57.01
-57.15
-56.73
-55.75
-53.69
-49.54
-42.27
-31.46
-17.76
-2.92
10.79
21.42
28.03
30.96
31.49
31.18
31.22
32.08
33.65
35.57
37.59
39.67
41.86
44.10
46.03
47.15
46.99
45.40
42.65
39.38
36.31
34.04
32.83
32.58
32.97
33.57
33.94
33.70
32.62
30.62
27.81
24.43
20.78
17.10
13.49
9.86
6.02
1.79
-2.93
-8.10
-13.64
-19.45
-25.41
-31.33
-36.87
-41.56
-44.94
-46.84
-47.49
-47.58
-47.94
-49.17
-51.37
-54.03
-56.24
-57.12
-56.16
-53.38
-49.27
-44.45
-39.44
-34.42
-29.26
-23.74
-17.74
-11.40
-5.14
0.41
4.66
7.29
8.46
8.87
9.61
11.91
16.71
24.38
34.51
45.95
56.97
65.67
70.41
70.20
65.11
56.25
45.50
34.97
26.38
20.59
17.44
15.99
15.08
13.88
12.16
10.18
8.31
6.78
5.54
4.37
3.09
1.75
0.75
0.55
1.32
2.69
3.82
3.73
1.62
-2.81
-9.36
-17.10
-24.94
-32.03
-38.02
-42.77
-46.19
-48.11
-48.50
-47.56
-45.01
-40.76
-35.17
-29.34
-24.68
-22.30
-22.59
-25.14
-28.68
-30.27
-27.06
-17.75
-3.61
12.56
28.01
41.33
52.63
62.87
74.42
88.92
106.75
126.63
147.10
167.13
185.49
199.57
196.55
166.49
108.60
34.51
-38.60
-96.57
-132.56
-146.50
-142.69
-127.09
-103.78
-76.98
-47.95
-19.68
3.75
18.90
24.22
20.38
9.78
-3.09
-14.09
-20.97
-24.44
-26.72
-30.19
-36.15
-44.41
-53.74
-61.65
-65.93
-65.49
-61.21
-55.00
-48.70
-43.52
-40.02
-38.22
-37.38
-36.47
-34.34
-30.26
-23.95
-15.65
-6.27
2.72
9.72
13.66
14.22
11.75
6.84
0.12
-7.73
-15.96
-23.74
-30.41
-35.70
-39.79
-43.12
-45.93
-47.95
-48.38
-46.26
-40.92
-32.50
-21.97
-10.94
-1.03
6.59
11.32
13.19
12.72
10.68
8.01
5.63
4.19
3.94
4.66
5.82
6.90
7.67
8.42
9.58
11.41
13.69
15.86
17.36
18.03
18.12
18.02
17.96
17.87
17.53
16.92
16.33
15.91
15.04
12.01
4.76
-7.51
-23.41
-39.35
-50.68
-53.33
-45.51
-28.48
-5.99
17.04
36.50
49.61
54.92
52.22
42.63
28.41
12.33
-2.68
-13.91
-18.54
-14.57
-1.76
18.02
41.30
63.87
81.70
92.27
92.05
81.02
63.90
47.67
36.85
31.73
30.10
29.43
28.39
26.82
25.77
26.08
27.72
29.61
30.78
30.97
30.34
29.31
28.17
27.35
26.90
26.35
24.88
21.91
18.57
15.91
14.67
14.91
16.10
17.14
16.62
13.32
6.85
-2.31
-13.26
-24.97
-36.53
-47.09
-55.98
-62.77
-67.36
-69.91
-70.76
-70.54
-69.81
-69.06
-68.55
-68.45
-68.87
-69.86
-71.24
-72.61
-73.57
-73.90
-73.69
-73.35
-73.40
-74.18
-75.63
-77.27
-78.33
-77.99
-75.53
-70.63
-63.66
-55.78
-48.75
-44.27
-43.15
-44.85
-47.66
-49.58
-49.43
-47.58
-45.66
-45.60
-48.33
-53.29
-58.75
-62.73
-63.66
-60.32
-51.72
-37.02
-15.98
10.32
39.11
66.37
88.15
102.26
109.25
111.45
111.30
109.99
107.16
101.76
93.34
82.77
72.35
65.14
62.92
65.06
68.83
70.69
68.02
60.20
48.67
36.58
27.85
25.02
28.17
35.15
43.01
49.39
53.35
55.31
53.20
46.90
38.29
29.61
21.33
12.16
0.92
-10.65
-21.43
-29.93
-34.87
-36.55
-36.82
-37.87
-40.97
-45.42
-49.24
-50.44
-47.77
-41.03
-31.51
-21.50
-13.15
-7.60
-4.58
-2.94
-1.52
0.50
3.48
7.04
10.41
12.90
14.36
15.11
15.54
15.71
15.45
14.65
13.25
11.32
9.12
7.04
5.56
5.29
6.84
10.89
17.92
27.84
39.66
51.47
60.81
65.31
63.61
55.84
43.82
30.39
18.35
9.34
3.30
-1.13
-5.64
-11.17
-17.33
-22.69
-25.69
-25.58
-22.87
-19.01
-15.66
-13.89
-13.84
-14.89
-16.19
-17.16
-17.79
-18.51
-19.89
-22.12
-24.96
-27.63
-29.25
-29.24
-27.55
-24.76
-21.83
-19.68
-18.92
-19.72
-21.91
-25.16
-29.14
-33.42
-37.38
-40.22
-41.09
-39.46
-35.38
-29.58
-23.19
-17.32
-12.60
-9.14
-6.77
-5.37
-5.03
-5.94
-7.98
-10.38
-11.90
-11.24
-7.76
-1.89
5.01
11.19
15.33
17.04
16.94
16.19
16.05
17.53
21.39
28.27
38.54
52.10
67.92
83.85
96.78
103.47
101.67
91.07
73.82
54.06
36.76
26.04
23.85
29.33
39.28
49.46
56.07
57.10
52.78
45.27
37.85
34.00
36.55
46.81
63.79
83.84
101.18
109.43
103.89
83.51
51.51
14.33
-20.68
-47.71
-63.95
-69.67
-67.37
-60.75
-54.01
-51.28
-55.79
-68.80
-88.76
-111.39
-131.06
-143.00
-145.13
-138.41
-125.76
-110.25
-93.66
-76.47
-58.89
-42.00
-28.07
-19.49
-17.26
-19.93
-23.92
-25.08
-20.73
-10.84
2.15
14.84
24.63
30.78
34.28
36.62
38.61
39.76
38.68
34.11
25.85
15.07
3.81
-5.98
-13.16
-17.71
-20.43
-22.30
-23.95
-25.41
-26.19
-25.65
-23.32
-19.10
-13.30
-6.40
1.14
9.00
16.95
24.63
31.39
36.37
38.75
38.14
34.92
30.20
25.54
22.45
21.98
24.52
29.76
36.67
43.70
49.00
50.95
48.75
42.78
34.48
25.69
17.79
11.13
5.12
-1.10
-7.95
-15.02
-21.36
-26.05
-28.79
-30.09
-30.94
-32.36
-35.00
-39.01
-44.00
-49.07
-53.05
-54.86
-53.90
-50.50
-45.84
-41.42
-38.28
-36.43
-34.88
-32.35
-28.11
-22.47
-16.59
-11.71
-8.41
-6.40
-4.87
-3.28
-1.79
-1.11
-1.84
-3.78
-5.81
-6.32
-4.15
0.83
7.55
14.34
19.75
23.16
24.87
25.70
26.38
27.23
28.03
28.34
27.84
26.57
24.91
23.41
22.64
23.02
24.82
28.19
33.20
39.77
47.68
56.47
65.55
74.24
81.88
87.91
91.95
93.82
93.61
91.46
87.43
81.27
72.40
60.12
44.13
24.89
3.77
-17.20
-36.03
-51.39
-62.91
-71.09
-76.76
-80.51
-82.43
-82.27
-79.81
-75.45
-70.30
-65.87
-63.31
-62.79
-63.13
-62.35
-58.56
-51.10
-40.97
-30.43
-21.93
-16.98
-15.51
-16.14
-17.09
-17.13
-16.05
-14.54
-13.55
-13.61
-14.55
-15.54
-15.61
-14.12
-11.09
-7.17
-3.29
-0.27
1.54
2.29
2.44
2.40
2.37
2.30
2.15
2.06
2.32
3.19
4.63
6.24
7.54
8.24
8.49
8.69
9.18
9.91
10.36
9.92
8.25
5.66
3.00
1.33
1.44
3.53
7.13
11.26
14.75
16.70
16.71
15.08
12.63
10.31
8.79
8.20
8.23
8.44
8.62
8.92
9.66
10.98
12.61
13.93
14.19
12.98
10.41
7.00
3.39
0.09
-2.79
-5.45
-8.29
-11.64
-15.73
-20.57
-26.05
-31.89
-37.67
-42.81
-46.51
-47.79
-45.73
-39.62
-29.41
-15.88
-0.76
13.49
24.29
29.58
28.43
21.32
9.90
-3.66
-17.42
-30.24
-41.95
-53.06
-64.24
-75.82
-87.48
-98.22
-106.60
-111.10
-110.46
