1660931047.00
64.000000
-0.00
-0.00
-0.00
-0.00
-0.00
-0.00
-0.00
-0.00
-0.00
-0.00
0.00
0.01
0.01
-0.00
-0.03
-0.05
-0.05
0.00
0.13
0.36
0.66
1.01
1.37
1.72
2.06
2.40
2.79
3.25
3.81
4.44
5.09
5.73
6.33
6.92
7.54
8.28
9.14
10.20
11.36
12.53
13.59
14.52
15.42
16.44
17.80
19.62
22.07
24.95
27.99
30.93
33.65
36.28
39.14
42.65
47.06
52.69
59.14
65.92
72.52
78.74
84.75
91.09
98.40
107.03
117.35
128.72
140.39
151.67
162.28
172.54
183.19
195.41
207.57
221.54
237.64
256.01
275.77
294.55
308.51
313.19
305.02
282.55
247.49
203.24
154.10
103.77
54.47
7.13
-38.09
-81.12
-121.80
-159.92
-196.21
-231.98
-268.59
-306.42
-344.00
-377.91
-403.56
-416.90
-415.91
-401.61
-377.64
-348.89
-319.65
-292.44
-267.78
-245.00
-223.31
-202.37
-182.59
-164.51
-148.30
-133.58
-119.60
-105.71
-91.69
-77.87
-64.88
-53.38
-43.65
-35.56
-28.58
-22.09
-15.64
-9.12
-2.79
2.88
7.46
10.78
12.96
14.43
15.67
17.07
18.74
20.49
22.02
23.03
23.43
23.36
23.09
22.91
23.01
23.43
24.05
24.67
25.11
25.24
25.03
24.55
23.93
23.29
22.74
22.32
22.03
21.80
21.58
21.32
20.96
20.51
19.96
19.33
18.61
17.82
16.96
16.10
15.31
14.64
14.10
13.63
13.12
12.49
11.70
10.81
9.92
9.14
8.56
8.20
8.03
8.01
8.06
8.12
8.12
8.05
7.92
7.77
7.61
7.42
7.14
6.74
6.22
5.65
5.15
4.79
4.57
4.42
4.24
3.96
3.55
3.08
2.65
2.32
2.11
1.98
1.86
1.67
1.39
1.01
0.60
0.18
-0.25
-0.71
-1.30
-2.06
-2.98
-3.95
-4.79
-5.38
-5.69
-5.82
-5.92
-6.14
-6.52
-7.00
-7.46
-7.80
-7.99
-8.06
-8.11
-8.19
-8.28
-8.31
-8.22
-7.96
-7.55
-7.07
-6.60
-6.19
-5.84
-5.53
-5.18
-4.75
-4.25
-3.74
-3.27
-2.89
-2.55
-2.18
-1.72
-1.15
-0.53
0.03
0.44
0.68
0.82
0.97
1.23
1.63
2.12
2.65
3.18
3.74
4.33
4.93
5.43
5.72
5.69
5.37
4.89
4.43
4.15
4.11
4.26
4.51
4.77
4.97
5.09
5.10
5.00
4.79
4.50
4.22
3.98
3.84
3.75
3.67
3.58
3.45
3.34
3.27
3.28
3.36
3.48
3.61
3.75
3.90
4.05
4.19
4.27
4.25
4.11
3.85
3.51
3.11
2.70
2.33
2.06
1.92
1.92
1.98
2.02
1.96
1.80
1.61
1.48
1.52
1.71
1.97
2.18
2.18
1.91
1.40
0.75
0.14
-0.30
-0.47
-0.33
0.07
0.60
1.12
1.47
1.53
1.30
0.85
0.37
0.04
-0.01
0.28
0.81
1.43
1.98
2.34
2.51
2.54
2.46
2.31
2.07
1.75
1.41
1.13
0.98
0.98
1.09
1.20
1.27
1.28
1.32
1.44
1.67
1.97
2.24
2.38
2.34
2.13
1.78
1.38
1.01
0.71
0.54
0.51
0.60
0.78
0.99
1.16
1.25
1.22
1.09
0.87
0.59
0.32
0.08
-0.06
-0.09
-0.00
0.15
0.29
0.36
0.34
0.28
0.24
0.29
0.43
0.59
0.68
0.64
0.47
0.25
0.07
-0.02
-0.02
0.04
0.12
0.21
0.33
0.49
0.70
0.95
1.19
1.37
1.49
1.53
1.51
1.47
1.45
1.46
1.48
1.45
1.32
1.07
0.73
0.41
0.16
0.03
0.03
0.11
0.25
0.43
0.61
0.77
0.86
0.84
0.67
0.34
-0.09
-0.55
-0.91
-1.10
-1.06
-0.82
-0.47
-0.10
0.20
0.40
0.50
0.56
0.59
0.62
0.62
0.59
0.54
0.49
0.47
0.49
0.54
0.62
0.73
0.87
1.04
1.23
1.39
1.48
1.46
1.35
1.16
0.94
0.71
0.50
0.30
0.14
0.05
0.07
0.20
0.39
0.58
0.66
0.62
0.48
0.36
0.36
0.51
0.76
0.94
0.91
0.63
0.17
-0.30
-0.60
-0.66
-0.53
-0.31
-0.14
-0.06
-0.04
-0.02
0.05
0.15
0.25
0.25
0.12
-0.11
-0.38
-0.59
-0.66
-0.57
-0.37
-0.15
0.02
0.08
0.05
-0.03
-0.11
-0.15
-0.14
-0.07
0.09
0.33
0.66
1.01
1.31
1.46
1.43
1.24
0.94
0.62
0.33
0.11
-0.04
-0.13
-0.17
-0.17
-0.14
-0.10
-0.08
-0.12
-0.26
-0.44
-0.61
-0.70
-0.65
-0.50
-0.32
-0.16
-0.06
-0.02
0.02
0.07
0.09
0.03
-0.13
-0.36
-0.56
-0.61
-0.44
-0.08
0.37
0.77
0.98
0.93
0.65
0.24
-0.10
-0.22
-0.02
0.43
0.96
1.37
1.51
1.37
1.07
0.74
0.45
0.21
-0.05
-0.33
-0.55
-0.59
-0.43
-0.12
0.17
0.28
0.16
-0.10
-0.32
-0.34
-0.11
0.28
0.70
1.00
1.11
0.97
0.58
-0.01
-0.74
-1.49
-2.10
-2.45
-2.47
-2.22
-1.88
-1.68
-1.83
-2.39
-3.27
-4.25
-5.08
-5.61
-5.80
-5.78
-5.75
-5.91
-6.39
-7.23
-8.32
-9.55
-10.82
-12.10
-13.47
-15.02
-16.84
-18.90
-21.06
-23.22
-25.37
-27.65
-30.33
-33.63
-37.57
-41.87
-46.15
-50.05
-53.51
-56.78
-60.33
-64.61
-69.78
-75.70
-81.93
-87.99
-93.58
-98.63
-103.40
-108.32
-113.87
-120.44
-128.21
-137.09
-146.52
-155.34
-161.78
-163.67
-158.88
-145.98
-124.88
-97.02
-64.89
-31.11
2.59
35.76
68.70
101.51
133.19
161.52
183.97
199.00
206.95
210.08
211.52
213.89
218.39
224.65
231.44
237.60
242.67
246.84
250.66
254.47
258.17
261.26
263.25
264.11
264.44
265.11
266.43
267.38
265.46
257.26
239.80
211.78
174.03
128.87
78.94
26.37
-27.24
-80.03
-129.10
-170.52
-200.48
-216.89
-220.41
-214.32
-203.09
-190.61
-179.06
-168.81
-159.14
-149.39
-139.53
-130.09
-121.64
-114.32
-107.66
-100.91
-93.47
-85.21
-76.55
-68.28
-61.10
-55.34
-50.85
-47.09
-43.38
-39.23
-34.53
-29.54
-24.76
-20.66
-17.52
-15.30
-13.72
-12.36
-10.87
-9.09
-7.08
-5.08
-3.36
-2.12
-1.39
-1.05
-0.86
-0.58
-0.03
0.82
1.87
2.96
3.93
4.69
5.25
5.68
6.06
6.42
6.76
7.02
7.18
7.25
7.27
7.23
7.13
6.85
6.31
5.50
4.51
3.53
2.76
2.30
2.12
2.07
1.94
1.55
0.87
-0.02
-1.02
-2.05
-3.15
-4.41
-5.89
-7.54
-9.15
-10.42
-11.11
-11.11
-10.58
-9.77
-8.99
-8.42
-8.05
-7.78
-7.46
-7.01
-6.43
-5.75
-5.02
-4.27
-3.51
-2.81
-2.22
-1.80
-1.56
-1.48
-1.48
-1.50
-1.47
-1.35
-1.11
-0.77
-0.36
0.05
0.40
0.62
0.69
0.65
0.55
0.45
0.39
0.36
0.33
0.28
0.16
-0.03
-0.25
-0.48
-0.65
-0.80
-0.95
-1.15
-1.40
-1.64
-1.77
-1.71
-1.47
-1.13
-0.81
-0.57
-0.42
-0.32
-0.20
-0.07
0.02
-0.01
-0.17
-0.45
-0.75
-1.00
-1.14
-1.18
-1.16
-1.12
-1.08
-1.00
-0.88
-0.68
-0.38
0.04
0.58
1.23
1.95
2.64
3.20
3.54
3.62
3.46
3.09
2.57
1.94
1.23
0.51
-0.13
-0.62
-0.90
-1.00
-1.04
-1.13
-1.35
-1.71
-2.14
-2.51
-2.72
-2.69
-2.44
-2.04
-1.58
-1.13
-0.75
-0.43
-0.17
0.04
0.19
0.31
0.47
0.77
1.33
2.16
3.10
3.90
4.27
4.02
3.20
2.02
0.82
-0.12
-0.63
-0.73
-0.54
-0.25
0.01
0.16
0.18
0.09
-0.13
-0.45
-0.82
-1.17
-1.43
-1.53
-1.50
-1.44
-1.43
-1.54
-1.71
-1.84
-1.82
-1.61
-1.27
-0.91
-0.68
-0.62
-0.71
-0.85
-0.91
-0.83
-0.57
-0.16
0.35
0.88
1.35
1.68
1.80
1.73
1.50
1.19
0.91
0.69
0.52
0.37
0.17
-0.10
-0.43
-0.78
-1.09
-1.35
-1.56
-1.72
-1.85
-1.94
-2.00
-2.04
-2.07
-2.10
-2.06
-1.89
-1.54
-0.99
-0.29
0.51
1.39
2.38
3.52
4.80
6.07
7.06
7.45
7.07
6.00
4.51
3.00
1.78
1.00
0.61
0.46
0.39
0.30
0.16
-0.02
-0.24
-0.48
-0.74
-0.99
-1.20
-1.39
-1.59
-1.84
-2.16
-2.51
-2.82
-3.02
-3.06
-2.96
-2.73
-2.42
-2.08
-1.73
-1.38
-1.05
-0.73
-0.42
-0.10
0.23
0.58
0.96
1.35
1.74
2.06
2.22
2.13
1.75
1.11
0.34
-0.40
-0.96
-1.27
-1.36
-1.32
-1.28
-1.33
-1.49
-1.74
-2.01
-2.25
-2.47
-2.67
-2.88
-3.09
-3.25
-3.27
-3.09
-2.69
-2.12
-1.43
-0.68
0.15
1.15
2.37
3.78
5.22
6.42
7.13
7.21
6.69
5.77
4.70
3.68
2.80
2.03
1.33
0.66
0.06
-0.38
-0.58
-0.55
-0.38
-0.25
-0.30
-0.59
-1.07
-1.58
-1.96
-2.11
-2.07
-1.93
-1.84
-1.85
-1.92
-1.96
-1.91
-1.75
-1.55
-1.41
-1.33
-1.28
-1.18
-0.97
-0.69
-0.43
-0.27
-0.22
-0.23
-0.19
-0.06
0.17
0.44
0.71
0.97
1.23
1.48
1.65
1.64
1.37
0.82
0.06
-0.76
-1.47
-1.97
-2.19
-2.19
-2.03
-1.81
-1.59
-1.37
-1.12
-0.78
-0.32
0.29
1.03
1.85
2.72
3.58
4.36
4.92
5.15
4.95
4.37
3.59
2.81
2.20
1.76
1.41
1.01
0.51
-0.03
-0.46
-0.69
-0.73
-0.67
-0.69
-0.87
-1.20
-1.61
-2.01
-2.39
-2.77
-3.17
-3.58
-3.92
-4.05
-3.88
-3.42
-2.75
-2.01
-1.35
-0.87
-0.61
-0.56
-0.64
-0.75
-0.82
-0.74
-0.47
-0.02
0.52
1.00
1.29
1.29
1.05
0.71
0.46
0.45
0.70
1.13
1.59
1.94
2.10
2.06
1.88
1.61
1.29
0.97
0.71
0.55
0.54
0.68
0.96
1.32
1.71
2.05
2.27
2.33
2.17
1.85
1.49
1.26
1.32
1.67
2.17
2.55
2.54
2.03
1.10
-0.05
-1.17
-2.08
-2.73
-3.17
-3.44
-3.59
-3.63
-3.63
-3.67
-3.87
-4.27
-4.83
-5.42
-5.88
-6.10
-6.05
-5.77
-5.33
-4.81
-4.29
-3.82
-3.47
-3.29
-3.33
-3.58
-4.01
-4.52
-5.00
-5.32
-5.39
-5.11
-4.49
-3.53
-2.31
-0.96
0.36
1.48
2.28
2.75
2.94
2.97
2.93
2.84
2.66
2.31
1.70
0.85
-0.16
-1.17
-2.04
-2.67
-3.03
-3.19
-3.26
-3.39
-3.69
-4.22
-4.91
-5.62
-6.20
-6.49
-6.44
-6.09
-5.57
-5.06
-4.73
-4.68
-4.89
-5.18
-5.24
-4.69
-3.21
-0.69
2.66
6.33
9.63
12.00
13.23
13.59
13.73
14.31
15.62
17.42
19.01
19.60
18.67
16.27
13.07
10.16
8.73
9.69
13.38
19.35
26.29
32.30
35.39
34.15
28.37
19.15
8.50
-1.45
-9.18
-14.23
-17.02
-18.38
-19.02
-19.29
-19.31
-19.20
-19.31
-20.08
-21.56
-23.07
-23.28
-20.83
-15.17
-7.08
1.42
7.93
10.75
9.59
5.59
0.57
-3.89
-7.05
-9.06
-10.49
-11.78
-13.00
-13.97
-14.56
-14.92
-15.43
-16.44
-17.96
-19.52
-20.24
-19.20
-15.86
-10.48
-4.10
1.78
5.79
7.22
6.27
3.86
1.15
-0.97
-2.19
-2.72
-3.10
-3.81
-5.08
-6.82
-8.67
-10.13
-10.63
-9.62
-6.70
-1.70
5.15
13.15
21.20
28.05
32.63
34.43
33.66
31.12
27.94
25.07
23.00
21.73
20.90
20.21
19.60
19.34
19.90
21.58
24.25
27.19
29.14
28.81
25.40
19.10
11.07
3.10
-3.19
-7.00
-8.64
-9.17
-9.77
-11.10
-13.02
-14.82
-15.79
-15.61
-14.50
-12.98
-11.52
-10.29
-9.16
-7.90
-6.36
-4.59
-2.86
-1.52
-0.81
-0.79
-1.28
-1.93
-2.36
-2.29
-1.64
-0.59
0.53
1.34
1.55
1.05
-0.11
-1.69
-3.37
-4.86
-5.96
-6.59
-6.81
-6.71
-6.42
-5.98
-5.38
-4.62
-3.71
-2.77
-1.94
-1.39
-1.18
-1.29
-1.57
-1.81
-1.79
-1.44
-0.79
-0.05
0.54
0.81
0.75
0.52
0.37
0.53
1.05
1.84
2.66
3.23
3.35
3.00
2.32
1.56
1.03
0.96
1.42
2.26
3.21
3.94
4.20
3.88
3.05
1.87
0.49
-0.93
-2.29
-3.50
-4.43
-5.00
-5.16
-4.96
-4.53
-4.03
-3.64
-3.46
-3.52
-3.75
-3.99
-4.08
-3.89
-3.38
-2.62
-1.80
-1.13
-0.77
-0.76
-1.02
-1.38
-1.68
-1.83
-1.82
-1.70
-1.57
-1.51
-1.57
-1.76
-2.05
-2.36
-2.63
-2.81
-2.87
-2.79
-2.59
-2.31
-2.00
-1.71
-1.49
-1.35
-1.27
-1.20
-1.12
-1.08
-1.15
-1.39
-1.76
-2.16
-2.45
-2.54
-2.49
-2.44
-2.56
-2.93
-3.43
-3.84
-3.93
-3.58
-2.77
-1.61
-0.23
1.28
2.83
4.27
5.42
6.08
6.15
5.69
4.89
4.01
3.19
2.46
1.70
0.75
-0.42
-1.64
-2.61
-3.04
-2.80
-2.06
-1.21
-0.70
-0.86
-1.74
-3.09
-4.54
-5.70
-6.38
-6.62
-6.63
-6.61
-6.67
-6.77
-6.81
-6.69
-6.42
-6.10
-5.85
-5.74
-5.75
-5.86
-6.07
-6.40
-6.73
-6.75
-5.93
-3.75
-0.03
4.91
10.23
14.93
18.22
19.81
19.93
19.01
17.47
15.54
13.38
11.19
9.34
8.21
8.02
8.66
9.71
10.61
10.96
10.64
9.79
8.72
7.70
6.82
6.03
5.14
3.94
2.28
0.18
-2.17
-4.37
-6.01
-6.73
-6.45
-5.33
-3.72
-2.01
-0.48
0.79
1.85
2.78
3.60
4.28
4.75
5.03
5.24
5.51
5.95
6.56
7.23
7.83
8.23
8.39
8.33
8.09
7.71
7.19
6.54
5.78
4.98
4.19
3.45
2.71
1.90
0.94
-0.18
-1.38
-2.53
-3.55
-4.43
-5.27
-6.15
-7.08
-7.95
-8.55
-8.73
-8.47
-7.88
-7.18
-6.56
-6.09
-5.78
-5.56
-5.38
-5.24
-5.14
-5.07
-4.98
-4.83
-4.62
-4.37
-4.18
-4.10
-4.13
-4.19
-4.18
-3.99
-3.64
-3.22
-2.89
-2.74
-2.77
-2.87
-2.86
-2.60
-2.08
-1.41
-0.73
-0.17
0.19
0.37
0.41
0.39
0.32
0.22
0.07
-0.15
-0.44
-0.78
-1.06
-1.21
-1.14
-0.88
-0.56
-0.31
-0.27
-0.47
-0.83
-1.25
-1.60
-1.82
-1.91
-1.87
-1.74
-1.57
-1.41
-1.33
-1.40
-1.59
-1.83
-2.01
-2.02
-1.78
-1.29
-0.58
0.31
1.31
2.33
3.25
3.95
4.35
4.45
4.35
4.18
4.04
3.98
3.93
3.81
3.59
3.34
3.14
3.07
3.11
3.13
2.99
2.57
1.85
0.92
-0.10
-1.08
-1.92
-2.57
-2.97
-3.09
-2.89
-2.39
-1.66
-0.81
-0.02
0.54
0.72
0.53
0.07
-0.47
-0.87
-1.04
-1.00
-0.90
-0.86
-0.95
-1.12
-1.27
-1.31
-1.21
-1.03
-0.83
-0.65
-0.47
-0.28
-0.06
0.15
0.30
0.32
0.21
0.01
-0.19
-0.32
-0.33
-0.26
-0.20
-0.25
-0.50
-0.96
-1.55
-2.12
-2.48
-2.51
-2.18
-1.57
-0.85
-0.25
0.05
-0.02
-0.43
-1.00
-1.53
-1.83
-1.78
-1.40
-0.78
-0.07
0.57
1.04
1.28
1.28
1.03
0.59
0.03
-0.54
-1.01
-1.27
-1.24
-0.97
-0.56
-0.16
0.07
0.06
-0.16
-0.42
-0.57
-0.46
-0.11
0.37
0.79
0.98
0.86
0.47
-0.03
-0.47
-0.72
-0.71
-0.48
-0.12
0.26
0.55
0.67
0.59
0.36
0.07
-0.18
-0.32
-0.35
-0.28
-0.16
0.01
0.21
0.43
0.63
0.73
0.66
0.39
-0.01
-0.42
-0.70
-0.77
-0.61
-0.33
-0.03
0.15
0.17
0.03
-0.17
-0.36
-0.45
-0.46
-0.42
-0.41
-0.45
-0.52
-0.56
-0.54
-0.47
-0.42
-0.47
-0.64
-0.88
-1.08
-1.12
-0.96
-0.63
-0.23
0.13
0.38
0.51
0.58
0.64
0.71
0.75
0.73
0.62
0.44
0.25
0.13
0.13
0.22
0.38
0.56
0.75
0.94
1.12
1.23
1.23
1.09
0.84
0.57
0.38
0.31
0.36
0.47
0.59
0.67
0.69
0.63
0.49
0.28
0.01
-0.27
-0.50
-0.66
-0.75
-0.80
-0.81
-0.80
-0.74
-0.60
-0.39
-0.17
0.01
0.06
-0.04
-0.26
-0.51
-0.70
-0.79
-0.76
-0.68
-0.59
-0.54
-0.53
-0.52
-0.48
-0.41
-0.31
-0.26
-0.29
-0.42
-0.60
-0.74
-0.75
-0.61
-0.36
-0.11
0.05
0.06
-0.02
-0.11
-0.13
-0.09
-0.08
-0.16
-0.32
-0.47
-0.47
-0.28
0.06
0.40
0.61
0.64
0.56
0.48
0.51
0.62
0.77
0.85
0.85
0.78
0.72
0.73
0.78
0.79
0.67
0.33
-0.22
-0.87
-1.45
-1.81
-1.83
-1.52
-0.95
-0.28
0.35
0.82
1.06
1.07
0.86
0.54
0.20
-0.03
-0.09
0.01
0.18
0.29
0.25
0.07
-0.20
-0.46
-0.63
-0.68
-0.61
-0.48
-0.34
-0.23
-0.19
-0.26
-0.41
-0.62
-0.83
-0.99
-1.08
-1.08
-1.04
-0.96
-0.84
-0.67
-0.49
-0.35
-0.30
-0.36
-0.46
-0.52
-0.44
-0.22
0.06
0.30
0.43
0.49
0.57
0.78
1.12
1.53
1.88
2.07
2.09
2.03
1.98
1.99
1.99
1.89
1.60
1.14
0.63
0.23
0.07
0.12
0.29
0.46
0.56
0.59
0.62
0.68
0.76
0.77
0.69
0.49
0.24
-0.00
-0.20
-0.34
-0.44
-0.50
-0.50
-0.42
-0.26
-0.04
0.18
0.33
0.34
0.20
-0.07
-0.42
-0.73
-0.91
-0.90
-0.73
-0.49
-0.27
-0.15
-0.12
-0.15
-0.21
-0.29
-0.39
-0.51
-0.60
-0.58
-0.42
-0.18
0.03
0.08
-0.11
-0.44
-0.77
-0.93
-0.86
-0.62
-0.34
-0.13
-0.03
0.01
0.07
0.19
0.34
0.47
0.55
0.59
0.64
0.70
0.72
0.65
0.46
0.22
0.05
0.05
0.17
0.26
0.13
-0.32
-1.05
-1.87
-2.56
-3.01
-3.24
-3.38
-3.55
-3.79
-4.09
-4.37
-4.61
-4.85
-5.14
-5.54
-6.04
-6.57
-7.06
-7.48
-7.87
-8.31
-8.90
-9.66
-10.52
-11.38
-12.09
-12.64
-13.10
-13.67
-14.53
-15.78
-17.37
-19.03
-20.48
-21.45
-21.88
-21.85
-21.58
-21.26
-20.95
-20.56
-19.81
-18.35
-15.82
-11.99
-6.86
-0.64
6.20
13.03
19.16
24.09
27.60
29.88
31.44
32.91
34.76
37.08
39.60
41.88
43.53
44.45
44.87
45.13
45.47
45.86
45.97
45.36
43.64
40.66
36.55
31.71
26.62
21.76
17.40
13.50
9.77
5.84
1.49
-3.17
-7.74
-11.67
-14.60
-16.49
-17.65
-18.49
-19.31
-20.12
-20.74
-20.94
-20.67
-20.06
-19.31
-18.62
-18.02
-17.42
-16.70
-15.80
-14.77
-13.72
-12.77
-11.95
-11.24
-10.57
-9.86
-9.01
-7.97
-6.71
-5.24
-3.64
-2.06
-0.66
0.40
1.03
1.21
1.03
0.64
0.22
-0.05
-0.09
0.09
0.39
0.69
0.85
0.82
0.58
0.17
-0.36
-0.96
-1.51
-1.90
-2.04
-1.90
-1.53
-1.03
-0.52
-0.04
0.41
0.86
1.30
1.66
1.84
1.77
1.51
1.17
0.92
0.82
0.87
0.96
0.99
0.92
0.77
0.60
0.44
0.30
0.13
-0.10
-0.34
-0.52
-0.53
-0.37
-0.08
0.21
0.37
0.32
0.09
-0.25
-0.57
-0.81
-0.95
-1.04
-1.14
-1.29
-1.49
-1.69
-1.81
-1.78
-1.59
-1.26
-0.89
-0.63
-0.56
-0.70
-0.99
-1.31
-1.53
-1.61
-1.58
-1.52
-1.44
-1.31
-1.02
-0.51
0.18
0.89
1.42
1.61
1.44
1.01
0.51
0.10
-0.14
-0.17
-0.03
0.24
0.58
0.90
1.10
1.07
0.78
0.30
-0.23
-0.63
-0.76
-0.61
-0.27
0.09
0.34
0.43
0.35
0.15
-0.15
-0.52
-0.92
-1.25
-1.41
-1.32
-1.00
-0.58
-0.21
0.01
0.09
0.11
0.17
0.28
0.37
0.32
0.08
-0.30
-0.70
-0.97
-1.02
-0.88
-0.59
-0.23
0.14
0.46
0.69
0.78
0.70
0.49
0.25
0.05
-0.03
-0.02
0.02
0.04
0.01
-0.04
-0.08
-0.09
-0.07
-0.02
0.09
0.27
0.53
0.83
1.13
1.36
1.50
1.56
1.58
1.56
1.47
1.32
1.11
0.88
0.68
0.53
0.39
0.18
-0.16
-0.66
-1.24
-1.76
-2.03
-1.94
-1.49
-0.82
-0.15
0.33
0.51
0.39
0.09
-0.29
-0.63
-0.91
-1.10
-1.18
-1.11
-0.91
-0.63
-0.40
-0.34
-0.46
-0.73
-0.97
-1.08
-1.01
-0.82
-0.60
-0.47
-0.43
-0.46
-0.48
-0.41
-0.25
0.00
0.25
0.37
0.28
-0.08
-0.64
-1.28
-1.80
-2.05
-1.97
-1.59
-1.02
-0.37
0.25
0.76
1.11
1.24
1.09
0.67
0.08
-0.53
-0.95
-1.06
-0.81
-0.27
0.45
1.17
1.78
2.21
2.43
2.41
2.15
1.67
1.03
0.34
-0.26
-0.67
-0.84
-0.81
-0.66
-0.50
-0.38
-0.35
-0.39
-0.50
-0.67
-0.87
-1.08
-1.26
-1.33
-1.24
-0.93
-0.42
0.20
0.81
1.26
1.42
1.26
0.82
0.22
-0.38
-0.83
-1.01
-0.87
-0.42
0.26
1.01
1.63
1.95
1.91
1.55
1.03
0.54
0.24
0.13
0.15
0.20
0.25
0.30
0.41
0.57
0.73
0.75
0.53
0.07
-0.52
-1.06
-1.42
-1.53
-1.51
-1.48
-1.57
-1.80
-2.06
-2.20
-2.11
-1.78
-1.27
-0.71
-0.24
0.07
0.19
0.12
-0.08
-0.36
-0.63
-0.83
-0.90
-0.81
-0.58
-0.24
0.14
0.52
0.86
1.10
1.22
1.18
1.02
0.77
0.52
0.37
0.38
0.58
0.96
1.42
1.85
2.16
2.30
2.27
2.14
1.96
1.77
1.56
1.32
1.07
0.83
0.66
0.58
0.60
0.66
0.68
0.59
0.36
0.01
-0.41
-0.79
-1.06
-1.20
-1.24
-1.24
-1.24
-1.24
-1.21
-1.10
-0.93
-0.75
-0.62
-0.56
-0.57
-0.60
-0.63
-0.69
-0.82
-1.01
-1.18
-1.23
-1.06
-0.68
-0.22
0.18
0.40
0.43
0.37
0.33
0.40
0.56
0.72
0.79
0.72
0.50
0.18
-0.16
-0.49
-0.78
-0.99
-1.09
-1.05
-0.90
-0.73
-0.63
-0.65
-0.73
-0.72
-0.48
0.02
0.64
1.16
1.35
1.13
0.64
0.14
-0.10
0.06
0.58
1.23
1.75
1.93
1.74
1.29
0.82
0.51
0.44
0.50
0.52
0.35
-0.04
-0.52
-0.89
-1.02
-0.86
-0.50
-0.07
0.31
0.55
0.66
0.66
0.56
0.37
0.10
-0.25
-0.66
-1.07
-1.41
-1.58
-1.48
-1.09
-0.49
0.17
0.65
0.81
0.61
0.13
-0.43
-0.88
-1.08
-1.01
-0.73
-0.35
0.02
0.33
0.52
0.59
0.54
0.38
0.17
-0.01
-0.11
-0.09
0.01
0.07
0.01
-0.26
-0.69
-1.19
-1.62
-1.85
-1.80
-1.45
-0.85
-0.12
0.60
1.15
1.45
1.48
1.32
1.10
0.93
0.86
0.90
0.97
1.01
0.99
0.95
0.91
0.93
0.99
1.07
1.09
1.05
0.97
0.93
0.96
1.06
1.14
1.11
0.93
0.70
0.55
0.59
0.83
1.14
1.33
1.24
0.84
0.22
-0.43
-0.94
-1.20
-1.22
-1.06
-0.82
-0.55
-0.28
-0.04
0.17
0.30
0.27
0.05
-0.33
-0.80
-1.20
-1.41
-1.40
-1.18
-0.84
-0.48
-0.19
0.00
0.10
0.14
0.16
0.21
0.30
0.38
0.37
0.23
-0.04
-0.33
-0.51
-0.49
-0.27
0.03
0.25
0.28
0.11
-0.16
-0.37
-0.43
-0.30
-0.08
0.11
0.19
0.16
0.08
0.01
0.01
0.02
-0.03
-0.18
-0.45
-0.77
-1.04
-1.21
-1.24
-1.17
-1.02
-0.81
-0.58
-0.33
-0.11
0.03
0.08
0.08
0.07
0.12
0.24
0.39
0.50
0.50
0.38
0.21
0.06
0.02
0.12
0.30
0.47
0.55
0.49
0.32
0.12
-0.03
-0.11
-0.14
-0.19
-0.29
-0.45
-0.60
-0.69
-0.67
-0.55
-0.42
-0.36
-0.40
-0.54
-0.69
-0.78
-0.80
-0.76
-0.76
-0.84
-1.01
-1.22
-1.34
-1.27
-0.98
-0.51
0.03
0.50
0.81
0.93
0.91
0.86
0.84
0.89
0.98
1.03
0.95
0.71
0.32
-0.11
-0.47
-0.66
-0.67
-0.55
-0.39
-0.23
-0.06
0.16
0.48
0.87
1.23
1.45
1.49
1.35
1.11
0.86
0.68
0.57
0.50
0.43
0.31
0.17
0.01
-0.14
-0.23
-0.26
-0.25
-0.21
-0.14
-0.05
0.10
0.28
0.47
0.60
0.61
0.48
0.28
0.10
-0.00
-0.04
-0.08
-0.21
-0.46
-0.77
-1.02
-1.10
-0.95
-0.61
-0.20
0.13
0.28
0.25
0.10
-0.05
-0.13
-0.08
0.08
0.26
0.42
0.52
0.60
0.70
0.84
0.95
0.96
0.80
0.47
0.06
-0.29
-0.44
-0.35
-0.08
0.22
0.39
0.32
0.04
-0.34
-0.69
-0.94
-1.12
-1.33
-1.63
-1.97
-2.25
-2.30
-2.05
-1.52
-0.86
-0.24
0.21
0.41
0.40
0.23
-0.01
-0.23
-0.37
-0.37
-0.23
0.02
0.30
0.57
0.78
0.90
0.92
0.85
0.68
0.45
0.23
0.09
0.05
0.09
0.15
0.17
0.11
-0.04
-0.26
-0.49
-0.69
-0.81
-0.84
-0.74
-0.53
-0.25
0.03
0.23
0.28
0.17
-0.04
-0.25
-0.38
-0.38
-0.28
-0.11
0.08
0.27
0.44
0.61
0.76
0.87
0.95
1.00
1.04
1.11
1.21
1.31
1.39
1.38
1.27
1.05
0.72
0.31
-0.13
-0.50
-0.69
-0.63
-0.31
0.18
0.67
0.98
1.00
0.69
0.15
-0.46
-0.98
-1.28
-1.33
-1.18
-0.94
-0.74
-0.64
-0.65
-0.71
-0.75
-0.70
-0.60
-0.51
-0.54
-0.70
-0.94
-1.15
-1.21
-1.07
-0.78
-0.46
-0.24
-0.17
-0.20
-0.21
-0.09
0.18
0.53
0.81
0.93
0.87
0.72
0.58
0.52
0.53
0.57
0.57
0.51
0.42
0.34
0.33
0.41
0.54
0.68
0.77
0.79
0.72
0.59
0.45
0.34
0.28
0.28
0.31
0.35
0.38
0.41
0.39
0.32
0.15
-0.10
-0.38
-0.59
-0.65
-0.54
-0.29
0.02
0.24
0.27
0.06
-0.35
-0.84
-1.29
-1.58
-1.69
-1.67
-1.62
-1.61
-1.67
-1.79
-1.91
-2.02
-2.14
-2.28
-2.44
-2.60
-2.75
-2.91
-3.14
-3.53
-4.11
-4.81
-5.51
-6.02
-6.23
-6.12
-5.79
-5.40
-5.18
-5.31
-5.94
-7.08
-8.60
-10.25
-11.74
-12.86
-13.67
-14.44
-15.69
-17.83
-21.02
-24.93
-28.87
-32.04
-33.99
-34.87
-35.53
-37.11
-40.57
-46.14
-53.11
-60.07
-65.59
-68.82
-70.03
-70.33
-71.37
-74.48
-80.21
-88.19
-97.18
-105.31
-110.14
-108.98
-99.65
-81.62
-56.99
-30.50
-8.00
6.19
11.63
12.61
16.66
31.61
62.35
109.07
167.59
231.22
293.07
347.46
390.18
418.15
429.16
422.13
397.73
358.68
309.26
254.19
197.21
140.40
84.52
30.01
-21.75
-68.01
-105.39
-131.22
-144.86
-148.13
-144.47
-137.61
-130.32
-123.89
-118.44
-113.65
-109.35
-105.60
-102.48
-99.76
-96.85
-93.09
-88.08
-81.92
-75.23
-68.90
-63.60
-59.55
-56.39
-53.39
-49.87
-45.54
-40.64
-35.80
-31.67
-28.58
-26.36
-24.44
-22.13
-18.90
-14.63
-9.54
-4.15
0.98
5.40
8.89
11.49
13.43
14.99
16.38
17.66
18.69
19.24
19.12
18.23
16.67
14.65
12.47
10.36
8.49
6.88
5.48
4.18
2.90
1.59
0.30
-0.90
-1.94
-2.79
-3.47
-4.05
-4.63
-5.26
-5.98
-6.72
-7.37
-7.81
-7.96
-7.88
-7.69
-7.55
-7.57
-7.72
-7.89
-7.98
-7.92
-7.75
-7.55
-7.38
-7.23
-7.07
-6.85
-6.54
-6.12
-5.58
-4.90
-4.05
-3.06
-1.98
-0.93
-0.05
0.55
0.85
0.91
0.84
0.82
0.95
1.33
1.96
2.82
3.84
4.93
5.95
6.75
7.19
7.22
6.92
6.43
5.91
5.46
5.08
4.70
4.23
3.64
2.95
2.23
1.55
0.96
0.48
0.11
-0.17
-0.37
-0.53
-0.74
-1.04
-1.46
-1.94
-2.38
-2.67
-2.71
-2.52
-2.19
-1.82
-1.55
-1.45
-1.54
-1.79
-2.14
-2.50
-2.80
-2.97
-2.97
-2.76
-2.33
-1.71
-1.00
-0.31
0.21
0.45
0.40
0.11
-0.28
-0.66
-0.97
-1.23
-1.51
-1.90
-2.40
-2.99
-3.57
-4.04
-4.38
-4.61
-4.80
-5.02
-5.30
-5.59
-5.82
-5.93
-5.91
-5.81
-5.68
-5.51
-5.22
-4.65
-3.73
-2.51
-1.17
0.03
0.89
1.37
1.65
1.98
2.57
3.52
4.73
5.99
7.09
7.86
8.30
8.49
8.56
8.56
8.48
8.23
7.71
6.90
5.87
4.77
3.78
2.99
2.40
1.90
1.34
0.62
-0.29
-1.35
-2.53
-3.79
-5.12
-6.48
-7.78
-8.86
-9.62
-10.06
-10.40
-10.94
-11.99
-13.59
-15.40
-16.85
-17.34
-16.58
-14.85
-12.92
-11.76
-12.03
-13.78
-16.36
-18.73
-19.96
-19.73
-18.60
-17.78
-18.58
-21.82
-27.35
-34.05
-40.26
-44.49
-45.98
-44.98
-42.56
-40.26
-39.58
-41.78
-47.60
-56.80
-67.53
-76.10
-77.54
-67.32
-43.66
-9.03
30.11
65.61
90.91
103.68
106.26
103.78
101.27
101.22
103.13
104.80
104.30
101.35
97.30
94.06
92.84
93.50
94.94
95.84
95.26
92.56
87.08
77.76
63.52
44.04
20.50
-4.29
-26.73
-43.66
-53.54
-56.77
-55.11
-50.72
-45.26
-39.69
-34.51
-30.20
-27.32
-26.25
-26.86
-28.40
-29.77
-30.03
-28.71
-26.06
-22.87
-20.05
-18.27
-17.73
-18.13
-18.85
-19.24
-18.85
-17.59
-15.76
-13.88
-12.47
-11.79
-11.80
-12.09
-12.14
-11.46
-9.87
-7.45
-4.58
-1.69
0.82
2.74
4.01
4.75
5.19
5.63
6.33
7.41
8.84
10.42
11.84
12.78
13.05
12.55
11.32
9.46
7.16
4.62
2.14
0.01
-1.51
-2.27
-2.27
-1.65
-0.68
0.31
1.03
1.24
0.86
-0.10
-1.49
-3.05
-4.53
-5.69
-6.41
-6.69
-6.63
-6.39
-6.11
-5.88
-5.72
-5.60
-5.47
-5.27
-4.94
-4.43
-3.73
-2.85
-1.87
-0.94
-0.23
0.15
0.16
-0.13
-0.60
-1.10
-1.50
-1.74
-1.77
-1.58
-1.21
-0.71
-0.21
0.21
0.46
0.54
0.48
0.33
0.17
0.03
-0.04
-0.07
-0.08
-0.13
-0.27
-0.53
-0.85
-1.16
-1.39
-1.49
-1.48
-1.42
-1.39
-1.37
-1.35
-1.28
-1.16
-1.04
-0.95
-0.90
-0.84
-0.67
-0.31
0.31
1.12
2.03
2.86
3.50
3.85
3.89
3.67
3.29
2.85
2.42
2.01
1.58
1.12
0.62
0.13
-0.29
-0.60
-0.80
-0.92
-1.01
-1.11
-1.21
-1.27
-1.28
-1.20
-1.01
-0.70
-0.27
0.22
0.68
0.97
0.98
0.71
0.27
-0.15
-0.38
-0.36
-0.18
0.00
0.06
-0.04
-0.21
-0.30
-0.25
-0.10
0.03
0.04
-0.10
-0.30
-0.43
-0.37
-0.15
0.13
0.28
0.21
-0.05
-0.39
-0.62
-0.61
-0.39
-0.08
0.17
0.25
0.16
-0.01
-0.16
-0.26
-0.35
-0.50
-0.75
-1.01
-1.16
-1.08
-0.75
-0.27
0.17
0.43
0.43
0.22
-0.09
-0.39
-0.61
-0.74
-0.79
-0.76
-0.65
-0.45
-0.15
0.18
0.48
0.68
0.73
0.65
0.48
0.32
0.24
0.32
0.57
0.92
1.27
1.49
1.49
1.23
0.76
0.22
-0.23
-0.48
-0.49
-0.31
-0.09
0.04
-0.00
-0.18
-0.41
-0.57
-0.60
-0.52
-0.41
-0.33
-0.29
-0.25
-0.13
0.10
0.39
0.68
0.87
0.91
0.79
0.55
0.20
-0.29
-0.94
-1.71
-2.51
-3.21
-3.67
-3.86
-3.81
-3.62
-3.39
-3.14
-2.86
-2.48
-1.97
-1.35
-0.66
0.00
0.57
0.97
1.19
1.26
1.25
1.22
1.21
1.18
1.04
0.71
0.24
-0.24
-0.57
-0.63
-0.46
-0.21
-0.04
-0.00
-0.03
0.04
0.33
0.85
1.46
2.00
2.38
2.63
2.84
3.18
3.66
4.27
4.85
5.28
5.49
5.53
5.48
5.42
5.39
5.32
5.15
4.79
4.23
3.48
2.57
1.53
0.40
-0.78
-1.90
-2.87
-3.63
-4.20
-4.64
-5.06
-5.47
-5.84
-6.11
-6.30
-6.43
-6.58
-6.78
-6.98
-7.08
-6.98
-6.69
-6.31
-6.00
-5.87
-5.96
-6.22
-6.58
-6.98
-7.39
-7.82
-8.24
-8.56
-8.72
-8.65
-8.33
-7.84
-7.25
-6.68
-6.22
-5.92
-5.82
-5.90
-6.12
-6.40
-6.66
-6.82
-6.82
-6.57
-5.93
-4.77
-3.03
-0.75
1.87
4.55
6.99
9.03
10.63
11.89
12.90
13.75
14.39
14.72
14.66
14.16
13.29
12.21
11.13
10.25
9.65
9.32
9.16
9.04
8.85
8.59
8.29
8.05
7.93
8.00
8.25
8.66
9.16
9.67
10.10
10.36
10.40
10.21
9.83
9.31
8.74
8.18
7.64
7.10
6.48
5.67
4.59
3.17
1.43
-0.52
-2.52
-4.37
-5.91
-7.02
-7.64
-7.79
-7.56
-7.09
-6.51
-6.01
-5.70
-5.64
-5.83
-6.16
-6.48
-6.66
-6.62
-6.34
-5.88
-5.33
-4.78
-4.31
-3.96
-3.74
-3.63
-3.59
-3.55
-3.46
-3.26
-2.97
-2.62
-2.30
-2.10
-2.06
-2.18
-2.41
-2.65
-2.85
-2.97
-3.01
-2.98
-2.89
-2.73
-2.52
-2.28
-2.09
-2.01
-2.06
-2.22
-2.38
-2.45
-2.33
-2.04
-1.63
-1.15
-0.66
-0.15
0.33
0.71
0.90
0.81
0.42
-0.15
-0.75
-1.21
-1.47
-1.56
-1.57
-1.62
-1.73
-1.92
-2.19
-2.57
-3.16
-4.03
-5.19
-6.53
-7.90
-9.13
-10.15
-11.01
-11.86
-12.90
-14.32
-16.22
-18.62
-21.39
-24.33
-27.16
-29.69
-31.90
-33.95
-36.20
-39.01
-42.61
-46.97
-51.85
-56.89
-61.82
-66.48
-70.89
-75.18
-79.44
-83.78
-88.24
-92.92
-97.86
-103.01
-108.18
-113.06
-117.44
-121.56
-126.26
-132.64
-141.41
-151.88
-161.54
-166.40
-162.24
-145.97
-116.67
-75.71
-26.24
27.58
81.18
129.93
169.58
196.94
210.71
211.99
204.11
191.54
178.39
167.27
158.92
152.73
147.64
142.80
137.93
133.08
128.42
124.06
120.01
116.31
113.02
110.33
108.41
107.39
107.29
108.03
109.47
111.42
113.70
116.18
118.85
121.79
125.18
129.19
133.88
139.24
145.37
152.73
162.04
173.71
187.07
199.77
207.98
207.47
195.10
170.01
133.68
89.02
39.27
-12.76
-64.44
-112.77
-154.10
-184.76
-202.41
-207.21
-201.98
-191.14
-178.99
-168.15
-159.21
-151.34
-143.34
-134.64
-125.52
-116.70
-108.81
-101.99
-95.90
-90.01
-83.89
-77.45
-70.94
-64.76
-59.21
-54.37
-50.05
-45.93
-41.73
-37.35
-32.95
-28.83
-25.31
-22.54
-20.46
-18.81
-17.27
-15.60
-13.74
-11.76
-9.88
-8.26
-7.02
-6.14
-5.48
-4.88
-4.19
-3.38
-2.53
-1.76
-1.20
-0.89
-0.76
-0.69
-0.57
-0.34
-0.02
0.30
0.55
0.68
0.68
0.61
0.53
0.49
0.52
0.61
0.74
0.88
1.02
1.16
1.28
1.32
1.21
0.90
0.41
-0.17
-0.69
-1.00
-1.06
-0.88
-0.59
-0.29
-0.06
0.06
0.08
0.05
-0.03
-0.14
-0.26
-0.37
-0.43
-0.41
-0.27
-0.06
0.16
0.29
0.28
0.14
-0.06
-0.21
-0.21
-0.06
0.16
0.33
0.33
0.11
-0.25
-0.62
-0.85
-0.85
-0.65
-0.32
0.00
0.25
0.40
0.48
0.52
0.53
0.44
0.22
-0.15
-0.63
-1.12
-1.55
-1.84
-2.00
-2.05
-2.07
-2.11
-2.21
-2.35
-2.48
-2.52
-2.46
-2.32
-2.19
-2.17
-2.33
-2.62
-2.97
-3.21
-3.21
-2.90
-2.22
-1.16
0.28
2.05
4.02
5.98
7.62
8.68
9.01
8.61
7.66
6.40
5.14
4.11
3.42
3.11
3.07
3.17
3.23
3.16
2.94
2.67
2.45
2.39
2.54
2.85
3.20
3.45
3.46
3.14
2.49
1.55
0.44
-0.70
-1.75
-2.61
-3.29
-3.79
-4.15
-4.41
-4.57
-4.62
-4.57
-4.43
-4.20
-3.90
-3.57
-3.22
-2.93
-2.75
-2.74
-2.89
-3.17
-3.48
-3.72
-3.84
-3.85
-3.81
-3.82
-3.92
-4.06
-4.07
-3.77
-3.03
-1.94
-0.77
0.08
0.30
-0.20
-1.21
-2.33
-3.13
-3.35
-3.00
-2.31
-1.51
-0.74
0.04
0.93
1.99
3.11
4.04
4.58
4.65
4.37
4.02
3.86
3.96
4.21
4.41
4.37
4.08
3.70
3.41
3.32
3.40
3.52
3.51
3.28
2.83
2.26
1.65
1.10
0.66
0.41
0.38
0.59
0.99
1.45
1.81
1.96
1.86
1.57
1.20
0.84
0.53
0.25
0.00
-0.25
-0.49
-0.72
-0.97
-1.25
-1.55
-1.83
-2.00
-2.01
-1.85
-1.60
-1.36
-1.22
-1.19
-1.21
-1.20
-1.11
-0.95
-0.79
-0.73
-0.82
-1.08
-1.44
-1.85
-2.24
-2.58
-2.87
-3.09
-3.22
-3.25
-3.21
-3.14
-3.13
-3.24
-3.47
-3.75
-3.95
-3.94
-3.67
-3.18
-2.58
-2.02
-1.59
-1.29
-1.04
-0.74
-0.29
0.35
1.14
1.94
2.64
3.12
3.35
3.34
3.17
2.90
2.58
2.25
1.95
1.76
1.71
1.82
2.00
2.14
2.11
1.86
1.45
1.03
0.76
0.77
1.08
1.62
2.24
2.78
3.13
3.23
3.08
2.72
2.24
1.73
1.26
0.91
0.74
0.75
0.91
1.10
1.22
1.15
0.88
0.43
-0.08
-0.59
-1.03
-1.41
-1.73
-2.00
-2.21
-2.36
-2.45
-2.54
-2.64
-2.78
-2.92
-3.02
-3.01
-2.87
-2.63
-2.34
-2.08
-1.91
-1.86
-1.89
-1.93
-1.91
-1.78
-1.55
-1.28
-1.05
-0.89
-0.74
-0.52
-0.18
0.25
0.68
0.97
1.01
0.81
0.49
0.21
0.15
0.39
0.90
1.52
2.10
2.49
2.62
2.54
2.36
2.19
2.16
2.31
2.60
2.95
3.23
3.35
3.30
3.12
2.90
2.69
2.48
2.20
1.76
1.13
0.39
-0.33
-0.87
-1.12
-1.10
-0.90
-0.66
-0.47
-0.40
-0.46
-0.65
-0.94
-1.29
-1.68
-2.04
-2.33
-2.48
-2.49
-2.40
-2.30
-2.27
-2.33
-2.40
-2.36
-2.09
-1.61
-1.05
-0.65
-0.58
-0.87
-1.40
-1.95
-2.30
-2.36
-2.16
-1.83
-1.54
-1.38
-1.39
-1.52
-1.64
-1.65
-1.50
-1.20
-0.79
-0.30
0.27
0.94
1.70
2.46
3.07
3.40
3.39
3.09
2.61
2.09
1.63
1.27
1.04
0.92
0.89
0.89
0.85
0.73
0.56
0.46
0.55
0.92
1.50
2.13
2.61
2.78
2.60
2.15
1.57
1.00
0.53
0.21
0.03
-0.01
0.07
0.22
0.36
0.38
0.20
-0.19
-0.73
-1.29
-1.75
-1.99
-1.99
-1.77
-1.43
-1.07
-0.80
-0.69
-0.76
-0.97
-1.23
-1.44
-1.50
-1.37
-1.07
-0.69
-0.33
-0.09
-0.01
-0.08
-0.26
-0.47
-0.64
-0.73
-0.67
-0.43
0.01
0.60
1.26
1.79
2.02
1.87
1.35
0.63
-0.09
-0.61
-0.82
-0.74
-0.47
-0.11
0.25
0.60
0.91
1.17
1.36
1.42
1.34
1.14
0.91
0.72
0.66
0.75
0.95
1.16
1.27
1.25
1.09
0.85
0.55
0.20
-0.19
-0.62
-1.03
-1.34
-1.50
-1.50
-1.40
-1.31
-1.28
-1.31
-1.34
-1.29
-1.14
-0.91
-0.69
-0.58
-0.62
-0.78
-0.96
-1.05
-0.95
-0.64
-0.19
0.31
0.73
0.97
0.99
0.81
0.49
0.11
-0.24
-0.53
-0.72
-0.82
-0.83
-0.75
-0.60
-0.38
-0.12
0.15
0.38
0.57
0.76
0.98
1.26
1.59
1.86
1.95
1.82
1.46
0.99
0.54
0.25
0.17
0.33
0.64
0.99
1.25
1.31
1.15
0.82
0.47
0.21
0.12
0.18
0.30
0.38
0.37
0.26
0.09
-0.11
-0.29
-0.45
-0.55
-0.59
-0.60
-0.60
-0.62
-0.66
-0.69
-0.69
-0.68
-0.70
-0.82
-1.04
-1.34
-1.66
-1.94
-2.16
-2.35
-2.53
-2.67
-2.74
-2.70
-2.51
-2.20
-1.82
-1.47
-1.22
-1.13
-1.20
-1.35
-1.49
-1.51
-1.33
-0.94
-0.42
0.12
0.57
0.90
1.10
1.21
1.25
1.21
1.11
0.96
0.82
0.78
0.88
1.14
1.50
1.86
2.16
2.40
2.61
2.82
3.00
3.04
2.85
2.39
1.74
1.05
0.49
0.17
0.07
0.12
0.20
0.25
0.26
0.23
0.20
0.15
0.08
-0.05
-0.21
-0.37
-0.49
-0.54
-0.54
-0.52
-0.55
-0.66
-0.82
-1.02
-1.21
-1.35
-1.39
-1.29
-1.03
-0.59
-0.04
0.50
0.85
0.87
0.53
-0.06
-0.66
-1.00
-0.93
-0.47
0.21
0.89
1.37
1.61
1.66
1.59
1.49
1.34
1.10
0.74
0.30
-0.14
-0.49
-0.71
-0.84
-0.96
-1.15
-1.42
-1.69
-1.83
-1.75
-1.44
-1.01
-0.61
-0.39
-0.41
-0.61
-0.91
-1.21
-1.46
-1.64
-1.75
-1.79
-1.72
-1.53
-1.24
-0.90
-0.59
-0.35
-0.19
-0.08
0.04
0.15
0.23
0.20
0.05
-0.19
-0.42
-0.51
-0.39
-0.09
0.28
0.58
0.72
0.68
0.55
0.45
0.48
0.67
1.01
1.46
1.96
2.42
2.79
2.98
2.93
2.65
2.22
1.76
1.39
1.20
1.21
1.35
1.56
1.74
1.84
1.84
1.72
1.51
1.23
0.94
0.69
0.51
0.41
0.37
0.33
0.27
0.12
-0.14
-0.52
-0.98
-1.45
-1.79
-1.91
-1.75
-1.32
-0.74
-0.17
0.27
0.49
0.48
0.30
0.03
-0.22
-0.37
-0.35
-0.16
0.12
0.40
0.58
0.65
0.61
0.53
0.42
0.27
0.02
-0.32
-0.67
-0.90
-0.94
-0.80
-0.58
-0.44
-0.47
-0.63
-0.80
-0.85
-0.73
-0.47
-0.19
0.03
0.15
0.19
0.19
0.19
0.20
0.20
0.17
0.09
-0.03
-0.17
-0.29
-0.36
-0.37
-0.35
-0.35
-0.42
-0.58
-0.83
-1.10
-1.32
-1.38
-1.25
-0.94
-0.57
-0.31
-0.26
-0.47
-0.83
-1.19
-1.42
-1.49
-1.43
-1.35
-1.31
-1.32
-1.33
-1.30
-1.21
-1.06
-0.85
-0.54
-0.12
0.36
0.80
1.07
1.07
0.82
0.44
0.09
-0.12
-0.18
-0.15
-0.14
-0.18
-0.23
-0.17
0.07
0.54
1.12
1.68
2.07
2.22
2.11
1.82
1.45
1.07
0.75
0.52
0.32
0.12
-0.14
-0.48
-0.85
-1.16
-1.36
-1.39
-1.30
-1.13
-0.97
-0.83
-0.71
-0.60
-0.51
-0.47
-0.51
-0.66
-0.92
-1.29
-1.71
-2.09
-2.30
-2.23
-1.81
-1.09
-0.25
0.45
0.85
0.87
0.61
0.26
0.02
-0.02
0.16
0.51
0.99
1.56
2.22
2.92
3.57
4.08
4.32
4.27
4.02
3.72
3.52
3.49
3.55
3.52
3.22
2.58
1.69
0.75
-0.00
-0.45
-0.60
-0.58
-0.51
-0.46
-0.43
-0.38
-0.32
-0.30
-0.35
-0.48
-0.63
-0.67
-0.52
-0.20
0.17
0.43
0.40
0.03
-0.63
-1.41
-2.16
-2.72
-3.07
-3.23
-3.26
-3.21
-3.09
-2.84
-2.43
-1.84
-1.13
-0.37
0.33
0.93
1.44
1.88
2.29
2.65
2.89
2.90
2.60
1.98
1.11
0.19
-0.52
-0.87
-0.77
-0.33
0.22
0.63
0.70
0.40
-0.16
-0.77
-1.25
-1.46
-1.36
-1.02
-0.51
0.07
0.63
1.06
1.27
1.19
0.78
0.15
-0.54
-1.09
-1.34
-1.23
-0.82
-0.25
0.31
0.77
1.06
1.19
1.18
1.10
0.99
0.88
0.80
0.71
0.57
0.34
0.03
-0.31
-0.59
-0.74
-0.74
-0.61
-0.38
-0.14
0.08
0.21
0.21
0.08
-0.19
-0.52
-0.85
-1.09
-1.21
-1.23
-1.19
-1.14
-1.10
-1.04
-0.92
-0.67
-0.31
0.14
0.58
0.92
1.11
1.12
0.98
0.74
0.42
0.04
-0.36
-0.70
-0.92
-0.93
-0.70
-0.27
0.29
0.84
1.28
1.52
1.49
1.19
0.65
-0.05
-0.84
-1.61
-2.28
-2.77
-3.03
-3.04
-2.81
-2.39
-1.84
-1.27
-0.74
-0.32
-0.03
0.12
0.16
0.11
-0.01
-0.17
-0.34
-0.47
-0.49
-0.34
-0.00
0.49
1.04
1.52
1.80
1.84
1.64
1.27
0.81
0.37
0.01
-0.21
-0.26
-0.14
0.10
0.37
0.55
0.58
0.42
0.11
-0.24
-0.54
-0.72
-0.75
-0.63
-0.42
-0.16
0.10
0.32
0.50
0.63
0.68
0.65
0.51
0.25
-0.10
-0.51
-0.90
-1.24
-1.51
-1.70
-1.79
-1.71
-1.40
-0.85
-0.09
0.73
1.47
2.02
2.34
2.48
2.53
2.52
2.45
2.25
1.89
1.41
0.93
0.60
0.46
0.42
0.30
-0.07
-0.78
-1.69
-2.56
-3.11
-3.13
-2.62
-1.72
-0.65
0.34
1.06
1.39
1.26
0.70
-0.18
-1.17
-2.06
-2.65
-2.82
-2.61
-2.14
-1.63
-1.24
-1.07
-1.08
-1.11
-1.01
-0.67
-0.08
0.65
1.38
1.95
2.26
2.26
1.97
1.45
0.80
0.17
-0.33
-0.62
-0.70
-0.67
-0.61
-0.53
-0.37
-0.02
0.56
1.32
2.10
2.76
3.25
3.64
4.08
4.61
5.19
5.69
5.96
5.95
5.66
5.17
4.49
3.60
2.48
1.18
-0.14
-1.26
-2.02
-2.33
-2.24
-1.92
-1.53
-1.21
-1.06
-1.15
-1.48
-2.00
-2.63
-3.22
-3.65
-3.83
-3.75
-3.48
-3.14
-2.85
-2.70
-2.68
-2.72
-2.73
-2.62
-2.39
-2.07
-1.74
-1.47
-1.27
-1.11
-0.89
-0.52
0.03
0.79
1.68
2.61
3.47
4.16
4.55
4.57
4.18
3.41
2.35
1.17
0.06
-0.80
-1.29
-1.42
-1.32
-1.18
-1.18
-1.42
-1.87
-2.43
-2.95
-3.29
-3.33
-3.03
-2.39
-1.49
-0.45
0.54
1.30
1.69
1.68
1.35
0.86
0.36
-0.06
-0.37
-0.61
-0.76
-0.80
-0.68
-0.45
-0.24
-0.31
-0.90
-2.11
-3.83
-5.70
-7.30
-8.32
-8.72
-8.79
-8.97
-9.68
-11.10
-13.06
-15.15
-16.88
-17.98
-18.53
-18.92
-19.71
-21.28
-23.64
-26.41
-28.89
-30.54
-31.17
-31.10
-31.04
-31.74
-33.66
-36.82
-40.77
-44.60
-46.89
-45.83
-39.76
-27.83
-10.77
8.99
27.84
42.12
49.32
48.76
41.52
29.62
15.16
-0.30
-15.72
-30.28
-42.97
-52.51
-57.64
-57.58
-52.49
-43.61
-33.24
-24.30
-19.53
-20.64
-27.38
-37.22
-45.75
-47.79
-39.03
-17.27
16.96
60.75
109.72
159.31
205.80
246.68
280.39
305.61
320.79
324.08
313.89
289.61
252.08
203.61
147.62
88.21
29.70
-23.69
-68.21
-101.14
-121.35
-129.64
-128.66
-122.07
-113.35
-104.90
-97.77
-92.04
-87.43
-83.66
-80.57
-77.82
-74.85
-71.04
-66.06
-60.11
-53.87
-48.21
-43.77
-40.63
-38.36
-36.19
-33.45
-29.83
-25.56
-21.18
-17.35
-14.52
-12.78
-11.91
-11.49
-11.10
-10.44
-9.39
-7.98
-6.28
-4.31
-2.11
0.26
2.68
4.92
6.74
7.99
8.65
8.92
9.06
9.27
9.64
10.03
10.20
9.95
9.15
7.88
6.34
4.79
3.46
2.53
2.06
2.02
2.27
2.59
2.75
2.53
1.79
0.50
-1.27
-3.35
-5.56
-7.72
-9.66
-11.25
-12.44
-13.22
-13.68
-13.97
-14.26
-14.72
-15.48
-16.63
-18.18
-20.12
-22.37
-24.81
-27.29
-29.74
-32.14
-34.58
-37.16
-39.89
-42.67
-45.32
-47.76
-50.13
-52.86
-56.47
-61.27
-67.14
-73.48
-79.51
-84.65
-88.84
-92.61
-96.77
-102.08
-108.94
-117.39
-127.27
-138.26
-149.60
-159.80
-166.27
-165.72
-155.05
-132.50
-98.44
-55.29
-6.43
45.29
98.46
152.97
208.79
264.61
317.33
362.90
398.02
421.56
434.71
439.81
438.53
430.75
414.85
389.12
353.34
309.47
260.89
210.69
160.22
108.85
55.27
-0.56
-56.20
-106.86
-147.04
-172.92
-183.97
-183.09
-175.21
-165.19
-156.16
-148.90
-142.61
-136.13
-128.97
-121.54
-114.64
-108.80
-103.88
-99.20
-93.97
-87.80
-80.83
-73.74
-67.30
-62.01
-57.85
-54.27
-50.47
-45.78
-40.02
-33.56
-27.18
-21.69
-17.56
-14.75
-12.81
-11.17
-9.48
-7.71
-6.12
-4.97
-4.37
-4.17
-4.06
-3.73
-3.03
-1.98
-0.74
0.55
1.82
3.06
4.25
5.31
6.13
6.62
6.79
6.75
6.63
6.55
6.49
6.32
5.91
5.16
4.15
3.04
2.03
1.26
0.75
0.42
0.12
-0.28
-0.89
-1.70
-2.69
-3.72
-4.66
-5.33
-5.63
-5.50
-4.96
-4.14
-3.20
-2.34
-1.68
-1.28
-1.09
-0.93
-0.61
0.06
1.11
2.46
3.88
5.18
6.19
6.85
7.09
6.85
6.04
4.63
2.67
0.33
-2.13
-4.38
-6.22
-7.46
-8.10
-8.16
-7.78
-7.11
-6.32
-5.54
-4.85
-4.20
-3.50
-2.62
-1.48
-0.11
1.36
2.75
3.83
4.43
4.47
4.00
3.17
2.16
1.19
0.38
-0.25
-0.73
-1.15
-1.56
-1.97
-2.34
-2.58
-2.62
-2.43
-2.05
-1.53
-0.98
-0.52
-0.28
-0.31
-0.65
-1.20
-1.83
-2.40
-2.81
-3.07
-3.22
-3.31
-3.29
-3.05
-2.50
-1.65
-0.64
0.30
0.95
1.20
1.11
0.87
0.66
0.59
0.64
0.72
0.73
0.62
0.42
0.15
-0.13
-0.42
-0.69
-0.93
-1.14
-1.32
-1.50
-1.72
-2.06
-2.53
-3.14
-3.83
-4.50
-4.98
-5.08
-4.57
-3.33
-1.39
1.03
3.52
5.70
7.31
8.32
8.84
8.98
8.80
8.25
7.30
5.99
4.56
3.31
2.48
2.17
2.26
2.47
2.48
2.10
1.25
0.04
-1.32
-2.59
-3.56
-4.12
-4.25
-3.98
-3.43
-2.73
-2.03
-1.48
-1.16
-1.10
-1.22
-1.43
-1.66
-1.88
-2.11
-2.38
-2.61
-2.68
-2.44
-1.81
-0.87
0.18
1.11
1.71
1.90
1.76
1.48
1.25
