1660321794.00
64.000000
-0.00
-0.00
-0.00
-0.00
-0.00
-0.00
-0.00
-0.00
-0.00
-0.00
0.00
0.01
0.01
-0.00
-0.03
-0.05
-0.05
0.00
0.13
0.36
0.66
1.01
1.37
1.72
2.06
2.40
2.79
3.24
3.80
4.42
5.06
5.66
6.20
6.68
7.15
7.68
8.31
9.14
10.09
11.04
11.89
12.57
13.14
13.76
14.64
15.95
17.92
20.34
22.96
25.44
27.61
29.51
31.47
33.93
37.24
41.81
47.31
53.23
58.94
64.04
68.58
73.01
78.05
84.25
92.20
101.40
111.05
120.19
128.18
134.99
141.22
148.24
154.86
163.46
174.67
188.57
203.79
217.24
224.40
220.60
202.61
169.80
124.84
71.73
14.73
-43.25
-101.06
-158.80
-216.68
-274.14
-329.83
-381.73
-428.60
-469.83
-505.34
-534.96
-557.90
-572.56
-576.79
-568.77
-547.48
-513.61
-469.30
-417.67
-362.08
-305.59
-250.66
-199.03
-151.67
-108.37
-67.81
-27.65
14.56
60.19
108.58
156.89
201.07
237.32
263.48
279.41
286.51
286.77
281.84
272.81
260.49
245.86
230.16
214.67
200.27
187.18
175.05
163.15
150.87
137.97
124.71
111.68
99.56
88.82
79.52
71.32
63.61
55.80
47.64
39.28
31.26
24.37
19.02
15.22
12.60
10.54
8.46
6.04
3.27
0.36
-2.41
-4.81
-6.67
-7.85
-8.34
-8.22
-7.72
-7.17
-6.86
-6.91
-7.27
-7.65
-7.77
-7.46
-6.78
-5.92
-5.14
-4.59
-4.33
-4.31
-4.47
-4.71
-4.96
-5.08
-4.98
-4.61
-4.02
-3.35
-2.81
-2.54
-2.56
-2.79
-3.05
-3.23
-3.30
-3.30
-3.30
-3.29
-3.19
-2.92
-2.48
-1.99
-1.62
-1.55
-1.77
-2.20
-2.63
-2.87
-2.83
-2.57
-2.14
-1.64
-1.10
-0.55
-0.05
0.31
0.42
0.25
-0.11
-0.51
-0.77
-0.79
-0.57
-0.20
0.18
0.49
0.70
0.87
1.06
1.36
1.79
2.34
2.94
3.52
4.05
4.53
5.01
5.52
6.03
6.44
6.58
6.32
5.58
4.41
2.99
1.46
-0.01
-1.31
-2.40
-3.29
-4.01
-4.61
-5.15
-5.62
-6.01
-6.28
-6.38
-6.33
-6.15
-5.94
-5.79
-5.76
-5.84
-5.91
-5.86
-5.56
-5.01
-4.33
-3.73
-3.39
-3.37
-3.56
-3.74
-3.73
-3.42
-2.87
-2.27
-1.79
-1.55
-1.55
-1.67
-1.73
-1.60
-1.21
-0.62
0.06
0.69
1.19
1.56
1.81
1.94
1.90
1.60
0.98
0.08
-0.91
-1.79
-2.35
-2.54
-2.42
-2.13
-1.79
-1.45
-1.08
-0.64
-0.13
0.41
0.87
1.12
1.10
0.82
0.40
-0.09
-0.57
-1.05
-1.50
-1.85
-1.97
-1.70
-0.94
0.25
1.68
3.06
4.17
4.88
5.24
5.36
5.34
5.17
4.80
4.13
3.16
2.01
0.89
0.06
-0.32
-0.24
0.18
0.74
1.25
1.58
1.70
1.63
1.44
1.16
0.78
0.36
-0.06
-0.37
-0.51
-0.52
-0.56
-0.86
-1.56
-2.60
-3.70
-4.46
-4.49
-3.65
-2.03
0.03
2.16
4.01
5.36
6.12
6.28
5.91
5.16
4.25
3.45
3.02
3.05
3.51
4.17
4.77
5.08
5.06
4.81
4.52
4.43
4.63
5.11
5.69
6.14
6.21
5.71
4.61
2.99
1.08
-0.83
-2.48
-3.67
-4.36
-4.60
-4.49
-4.12
-3.50
-2.60
-1.43
-0.13
1.08
1.97
2.39
2.35
1.99
1.51
1.06
0.72
0.49
0.30
0.05
-0.42
-1.33
-2.82
-4.90
-7.33
-9.67
-11.48
-12.47
-12.70
-12.48
-12.20
-12.10
-12.16
-12.15
-11.81
-11.01
-9.82
-8.47
-7.16
-5.99
-4.91
-3.80
-2.57
-1.23
0.10
1.23
2.03
2.47
2.60
2.58
2.58
2.77
3.26
4.02
4.98
5.97
6.83
7.47
7.84
7.96
7.83
7.40
6.63
5.53
4.18
2.78
1.52
0.48
-0.39
-1.25
-2.22
-3.30
-4.27
-4.85
-4.83
-4.24
-3.33
-2.48
-1.97
-1.86
-1.95
-1.93
-1.55
-0.74
0.36
1.50
2.47
3.14
3.44
3.33
2.72
1.54
-0.20
-2.32
-4.48
-6.27
-7.39
-7.74
-7.46
-6.85
-6.22
-5.75
-5.47
-5.32
-5.18
-5.03
-4.85
-4.67
-4.45
-4.09
-3.50
-2.60
-1.43
-0.13
1.13
2.23
3.14
3.94
4.76
5.70
6.75
7.84
8.79
9.43
9.65
9.42
8.80
7.99
7.22
6.70
6.54
6.68
6.95
7.14
7.11
6.83
6.37
5.82
5.14
4.20
2.86
1.06
-1.03
-3.05
-4.54
-5.19
-4.93
-3.98
-2.71
-1.51
-0.64
-0.13
0.10
0.21
0.34
0.47
0.57
0.55
0.36
0.02
-0.41
-0.87
-1.31
-1.76
-2.22
-2.70
-3.13
-3.41
-3.47
-3.36
-3.22
-3.25
-3.58
-4.22
-5.03
-5.80
-6.40
-6.79
-7.01
-7.13
-7.15
-7.03
-6.67
-6.01
-5.04
-3.87
-2.60
-1.36
-0.22
0.76
1.60
2.30
2.89
3.41
3.90
4.39
4.89
5.38
5.81
6.12
6.24
6.14
5.82
5.37
4.88
4.49
4.23
4.12
4.06
3.92
3.53
2.80
1.71
0.34
-1.16
-2.62
-3.90
-4.92
-5.65
-6.08
-6.19
-5.96
-5.41
-4.59
-3.63
-2.67
-1.85
-1.19
-0.64
-0.13
0.40
0.95
1.45
1.86
2.17
2.37
2.45
2.33
1.93
1.21
0.24
-0.80
-1.72
-2.37
-2.77
-3.01
-3.25
-3.57
-3.94
-4.26
-4.45
-4.46
-4.32
-4.04
-3.66
-3.16
-2.50
-1.71
-0.84
0.04
0.88
1.64
2.30
2.82
3.12
3.15
2.86
2.33
1.70
1.14
0.75
0.58
0.55
0.60
0.65
0.66
0.63
0.55
0.39
0.16
-0.11
-0.36
-0.53
-0.61
-0.64
-0.70
-0.86
-1.08
-1.24
-1.21
-0.94
-0.49
-0.01
0.34
0.48
0.46
0.42
0.51
0.78
1.16
1.50
1.62
1.41
0.89
0.16
-0.60
-1.24
-1.66
-1.81
-1.72
-1.48
-1.19
-0.97
-0.87
-0.87
-0.89
-0.82
-0.59
-0.27
0.02
0.13
0.04
-0.17
-0.35
-0.35
-0.16
0.18
0.56
0.96
1.42
1.99
2.66
3.30
3.76
3.92
3.80
3.50
3.16
2.85
2.55
2.22
1.86
1.50
1.22
1.10
1.14
1.29
1.52
1.80
2.12
2.52
3.02
3.64
4.40
5.32
6.42
7.65
8.91
10.03
10.85
11.34
11.64
12.03
12.86
14.40
16.79
19.99
23.81
27.91
31.78
34.79
36.28
35.78
33.25
29.20
24.61
20.66
18.36
18.30
20.58
24.93
30.87
37.85
45.28
52.51
58.93
64.02
67.51
69.45
70.14
69.92
68.98
67.26
64.52
60.53
55.20
48.72
41.45
33.84
26.31
19.22
12.85
7.37
2.80
-1.14
-4.93
-9.11
-14.01
-19.47
-24.96
-29.79
-33.48
-36.02
-37.85
-39.53
-41.40
-43.39
-45.08
-45.94
-45.63
-44.12
-41.61
-38.38
-34.60
-30.37
-25.70
-20.62
-15.13
-9.24
-2.96
3.66
10.43
17.02
22.92
27.54
30.25
30.51
28.02
22.78
15.31
6.56
-2.20
-9.75
-15.33
-18.83
-20.80
-22.12
-23.59
-25.66
-28.38
-31.45
-34.51
-37.22
-39.34
-40.75
-41.39
-41.37
-40.91
-40.38
-40.10
-40.32
-41.06
-42.16
-43.36
-44.35
-44.94
-45.02
-44.64
-43.89
-42.90
-41.78
-40.54
-39.14
-37.48
-35.53
-33.29
-30.86
-28.41
-26.11
-24.07
-22.33
-20.87
-19.56
-18.29
-16.98
-15.63
-14.32
-13.15
-12.19
-11.44
-10.85
-10.35
-9.91
-9.49
-9.10
-8.71
-8.27
-7.77
-7.21
-6.67
-6.26
-6.07
-6.11
-6.34
-6.63
-6.88
-7.01
-6.98
-6.80
-6.45
-5.92
-5.19
-4.25
-3.14
-1.98
-0.93
-0.11
0.41
0.68
0.80
0.84
0.82
0.70
0.43
0.01
-0.46
-0.85
-1.06
-1.10
-1.04
-1.00
-1.10
-1.34
-1.68
-2.05
-2.38
-2.64
-2.85
-3.04
-3.24
-3.53
-3.92
-4.43
-4.96
-5.38
-5.52
-5.27
-4.59
-3.56
-2.36
-1.16
-0.10
0.76
1.43
1.98
2.47
2.88
3.16
3.24
3.07
2.64
2.06
1.45
0.93
0.56
0.37
0.31
0.30
0.28
0.20
0.03
-0.24
-0.65
-1.18
-1.86
-2.64
-3.48
-4.28
-4.97
-5.48
-5.77
-5.86
-5.76
-5.53
-5.20
-4.81
-4.41
-4.00
-3.53
-2.91
-2.03
-0.86
0.50
1.87
3.05
3.90
4.45
4.83
5.18
5.52
5.77
5.75
5.36
4.60
3.64
2.74
2.10
1.82
1.85
2.06
2.27
2.35
2.26
2.00
1.64
1.26
0.90
0.54
0.16
-0.30
-0.81
-1.30
-1.57
-1.47
-0.91
0.03
1.15
2.22
3.08
3.73
4.26
4.81
5.39
5.91
6.20
6.08
5.51
4.57
3.45
2.39
1.60
1.18
1.15
1.40
1.74
1.94
1.79
1.20
0.25
-0.85
-1.85
-2.51
-2.65
-2.24
-1.32
-0.05
1.30
2.40
2.93
2.68
1.67
0.21
-1.20
-2.02
-1.92
-0.86
0.87
2.82
4.55
5.85
6.71
7.22
7.49
7.51
7.18
6.42
5.29
4.05
3.10
2.76
3.17
4.28
5.83
7.60
9.40
11.10
12.60
13.72
14.24
13.97
12.81
10.80
8.12
5.04
1.83
-1.21
-3.78
-5.60
-6.50
-6.48
-5.78
-4.75
-3.84
-3.33
-3.33
-3.74
-4.31
-4.77
-4.93
-4.65
-3.92
-2.81
-1.47
-0.12
1.01
1.80
2.21
2.39
2.57
3.03
3.99
5.56
7.66
10.02
12.15
13.48
13.54
12.10
9.39
6.02
2.82
0.52
-0.56
-0.53
0.13
0.88
1.36
1.51
1.48
1.46
1.50
1.51
1.35
0.93
0.40
0.04
0.17
1.04
2.69
4.98
7.69
10.57
13.40
16.00
18.12
19.45
19.66
18.51
15.99
12.45
8.51
4.85
2.00
0.13
-0.93
-1.56
-2.15
-2.95
-4.05
-5.44
-7.08
-8.89
-10.76
-12.45
-13.58
-13.84
-13.07
-11.34
-8.96
-6.35
-3.84
-1.63
0.26
1.97
3.71
5.74
8.26
11.36
14.89
18.36
21.05
22.17
21.22
18.28
14.05
9.61
6.05
3.98
3.38
3.71
4.22
4.31
3.76
2.66
1.25
-0.27
-1.81
-3.32
-4.70
-5.75
-6.24
-6.00
-5.05
-3.54
-1.67
0.45
2.85
5.66
8.99
12.80
16.81
20.44
22.96
23.65
22.04
18.17
12.58
6.22
0.12
-4.90
-8.48
-10.66
-11.73
-12.01
-11.77
-11.20
-10.53
-10.02
-9.94
-10.43
-11.43
-12.71
-13.95
-14.86
-15.27
-15.12
-14.49
-13.49
-12.22
-10.69
-8.82
-6.41
-3.30
0.59
5.08
9.73
13.90
16.93
18.31
17.84
15.78
12.74
9.56
7.03
5.65
5.48
6.20
7.26
8.09
8.32
7.85
6.75
5.25
3.60
2.03
0.75
-0.06
-0.34
-0.16
0.33
0.91
1.46
2.01
2.77
4.11
6.36
9.70
13.96
18.58
22.63
25.06
24.99
22.01
16.38
8.94
0.92
-6.46
-12.30
-16.18
-18.15
-18.54
-17.81
-16.43
-14.81
-13.37
-12.50
-12.47
-13.36
-14.93
-16.72
-18.13
-18.69
-18.24
-17.01
-15.45
-14.07
-13.17
-12.70
-12.35
-11.67
-10.34
-8.19
-5.21
-1.52
2.66
7.01
11.05
14.15
15.69
15.35
13.27
10.13
6.92
4.50
3.31
3.19
3.59
3.87
3.65
2.95
2.03
1.13
0.31
-0.59
-1.80
-3.35
-5.05
-6.41
-7.01
-6.60
-5.31
-3.54
-1.80
-0.48
0.32
0.78
1.20
1.83
2.67
3.49
3.95
3.83
3.11
2.05
1.01
0.31
0.09
0.29
0.71
1.17
1.54
1.80
1.95
2.04
2.11
2.21
2.39
2.67
3.04
3.44
3.82
4.13
4.34
4.42
4.33
4.07
3.62
2.98
2.15
1.11
-0.18
-1.76
-3.61
-5.57
-7.33
-8.47
-8.58
-7.45
-5.13
-1.99
1.45
4.67
7.27
9.12
10.24
10.70
10.58
9.96
8.91
7.61
6.28
5.11
4.15
3.30
2.33
1.02
-0.71
-2.78
-4.94
-6.90
-8.42
-9.40
-9.88
-10.00
-9.99
-10.08
-10.43
-11.10
-12.04
-13.05
-13.87
-14.21
-13.89
-12.86
-11.26
-9.35
-7.45
-5.80
-4.48
-3.46
-2.62
-1.83
-1.04
-0.24
0.51
1.14
1.63
1.95
2.18
2.44
2.86
3.54
4.45
5.40
6.08
6.19
5.58
4.33
2.74
1.20
0.05
-0.58
-0.79
-0.82
-0.90
-1.16
-1.52
-1.77
-1.67
-1.06
0.04
1.48
3.01
4.43
5.66
6.73
7.71
8.60
9.31
9.75
9.86
9.75
9.65
9.77
10.15
10.57
10.63
9.93
8.29
5.87
3.11
0.52
-1.52
-2.92
-3.83
-4.52
-5.19
-5.91
-6.59
-7.08
-7.30
-7.30
-7.16
-6.99
-6.81
-6.53
-6.04
-5.29
-4.35
-3.38
-2.55
-1.98
-1.62
-1.31
-0.83
-0.04
1.06
2.32
3.52
4.51
5.24
5.81
6.40
7.10
7.92
8.72
9.34
9.63
9.54
9.14
8.52
7.80
7.04
6.26
5.43
4.51
3.48
2.34
1.17
0.10
-0.79
-1.52
-2.22
-3.10
-4.28
-5.69
-7.08
-8.11
-8.56
-8.42
-7.91
-7.32
-6.89
-6.62
-6.38
-5.98
-5.30
-4.36
-3.30
-2.25
-1.33
-0.58
-0.05
0.24
0.26
0.02
-0.41
-0.92
-1.39
-1.75
-1.97
-2.12
-2.27
-2.49
-2.83
-3.26
-3.70
-4.02
-4.07
-3.78
-3.19
-2.45
-1.76
-1.29
-1.08
-1.00
-0.83
-0.39
0.41
1.46
2.61
3.66
4.49
5.06
5.40
5.56
5.59
5.54
5.44
5.37
5.35
5.37
5.31
5.01
4.31
3.18
1.76
0.36
-0.65
-1.00
-0.65
0.15
1.03
1.57
1.55
0.91
-0.16
-1.40
-2.54
-3.32
-3.61
-3.36
-2.65
-1.68
-0.76
-0.14
0.02
-0.24
-0.73
-1.15
-1.27
-1.00
-0.41
0.34
1.03
1.49
1.65
1.47
1.02
0.38
-0.36
-1.07
-1.65
-2.00
-2.04
-1.77
-1.29
-0.73
-0.29
-0.09
-0.14
-0.36
-0.62
-0.77
-0.73
-0.47
-0.05
0.42
0.80
0.97
0.83
0.37
-0.26
-0.88
-1.29
-1.39
-1.20
-0.85
-0.48
-0.18
0.03
0.13
0.11
-0.03
-0.29
-0.56
-0.69
-0.54
-0.04
0.73
1.59
2.37
2.98
3.42
3.73
3.98
4.18
4.30
4.31
4.17
3.89
3.48
2.96
2.35
1.70
1.09
0.62
0.40
0.52
0.93
1.47
1.92
2.02
1.67
0.92
0.03
-0.68
-0.89
-0.51
0.29
1.13
1.59
1.44
0.72
-0.25
-1.07
-1.45
-1.31
-0.82
-0.28
0.14
0.42
0.67
1.04
1.58
2.16
2.58
2.66
2.36
1.79
1.21
0.81
0.71
0.84
1.01
1.02
0.72
0.12
-0.62
-1.26
-1.54
-1.31
-0.54
0.65
2.02
3.37
4.57
5.62
6.55
7.41
8.13
8.58
8.58
8.05
7.06
5.83
4.61
3.62
2.91
2.45
2.08
1.71
1.24
0.67
-0.00
-0.73
-1.48
-2.20
-2.81
-3.28
-3.58
-3.72
-3.74
-3.63
-3.42
-3.09
-2.69
-2.29
-1.96
-1.75
-1.67
-1.62
-1.52
-1.27
-0.84
-0.27
0.38
1.08
1.77
2.42
2.97
3.36
3.56
3.57
3.45
3.30
3.22
3.28
3.46
3.64
3.62
3.24
2.42
1.27
-0.01
-1.15
-1.98
-2.50
-2.84
-3.17
-3.63
-4.25
-4.97
-5.69
-6.34
-6.82
-7.06
-7.00
-6.58
-5.83
-4.84
-3.75
-2.64
-1.58
-0.55
0.48
1.48
2.41
3.17
3.67
3.86
3.68
3.14
2.24
1.11
-0.08
-1.11
-1.82
-2.09
-1.96
-1.54
-0.97
-0.37
0.14
0.48
0.58
0.39
-0.03
-0.60
-1.16
-1.60
-1.89
-2.08
-2.28
-2.60
-3.10
-3.71
-4.32
-4.73
-4.76
-4.31
-3.36
-2.04
-0.55
0.89
2.10
2.98
3.49
3.67
3.58
3.32
3.03
2.85
2.83
2.96
3.10
3.14
3.00
2.71
2.37
2.11
2.01
2.04
2.16
2.30
2.42
2.43
2.28
1.82
0.98
-0.26
-1.78
-3.38
-4.78
-5.74
-6.10
-5.86
-5.09
-4.00
-2.85
-1.86
-1.18
-0.82
-0.67
-0.52
-0.22
0.31
1.03
1.79
2.41
2.80
2.94
2.90
2.80
2.73
2.75
2.82
2.93
3.07
3.26
3.54
3.92
4.37
4.80
5.12
5.23
5.04
4.53
3.67
2.52
1.22
-0.07
-1.16
-1.88
-2.19
-2.16
-1.91
-1.61
-1.33
-1.06
-0.74
-0.31
0.26
0.90
1.52
2.00
2.27
2.33
2.22
2.03
1.82
1.61
1.39
1.15
0.88
0.60
0.33
0.06
-0.24
-0.62
-1.08
-1.58
-2.03
-2.34
-2.43
-2.37
-2.28
-2.34
-2.72
-3.49
-4.62
-5.94
-7.21
-8.18
-8.67
-8.57
-7.88
-6.67
-5.08
-3.29
-1.53
-0.02
1.07
1.71
1.98
2.12
2.37
2.89
3.64
4.46
5.10
5.38
5.25
4.76
4.07
3.33
2.63
2.02
1.53
1.16
0.94
0.85
0.84
0.87
0.83
0.66
0.28
-0.30
-1.03
-1.77
-2.40
-2.81
-2.94
-2.86
-2.66
-2.48
-2.35
-2.25
-2.07
-1.70
-1.08
-0.30
0.50
1.16
1.60
1.83
1.94
2.04
2.17
2.34
2.49
2.61
2.68
2.76
2.87
3.00
3.13
3.17
3.06
2.81
2.45
2.06
1.70
1.39
1.09
0.72
0.22
-0.43
-1.15
-1.82
-2.31
-2.58
-2.67
-2.70
-2.78
-2.96
-3.15
-3.19
-2.88
-2.14
-0.99
0.41
1.80
2.94
3.64
3.81
3.50
2.82
1.97
1.12
0.47
0.11
0.07
0.29
0.63
0.91
0.96
0.71
0.16
-0.61
-1.47
-2.30
-3.04
-3.66
-4.12
-4.43
-4.58
-4.64
-4.70
-4.83
-5.07
-5.36
-5.61
-5.73
-5.67
-5.41
-4.97
-4.30
-3.40
-2.23
-0.89
0.52
1.81
2.89
3.71
4.32
4.77
5.13
5.39
5.58
5.67
5.69
5.64
5.52
5.32
5.04
4.69
4.29
3.85
3.33
2.71
2.00
1.29
0.66
0.18
-0.20
-0.61
-1.23
-2.14
-3.26
-4.33
-5.06
-5.23
-4.80
-3.90
-2.75
-1.56
-0.49
0.42
1.13
1.62
1.89
1.95
1.87
1.77
1.79
2.01
2.42
2.94
3.42
3.73
3.83
3.77
3.67
3.62
3.63
3.61
3.40
2.86
1.99
0.91
-0.15
-0.94
-1.34
-1.36
-1.14
-0.89
-0.75
-0.81
-1.04
-1.39
-1.76
-2.07
-2.26
-2.30
-2.15
-1.84
-1.40
-0.90
-0.40
0.05
0.41
0.69
0.93
1.12
1.27
1.31
1.16
0.75
0.08
-0.78
-1.62
-2.23
-2.41
-2.09
-1.37
-0.50
0.22
0.49
0.16
-0.73
-1.95
-3.22
-4.25
-4.89
-5.16
-5.19
-5.19
-5.34
-5.74
-6.34
-6.98
-7.42
-7.43
-6.90
-5.85
-4.52
-3.18
-2.07
-1.25
-0.63
-0.04
0.66
1.51
2.42
3.29
4.03
4.56
4.83
4.79
4.37
3.61
2.64
1.72
1.08
0.89
1.13
1.63
2.15
2.46
2.47
2.17
1.62
0.88
0.00
-0.96
-1.96
-2.92
-3.76
-4.41
-4.80
-4.87
-4.60
-3.96
-3.05
-1.98
-0.97
-0.22
0.17
0.20
0.02
-0.13
-0.04
0.39
1.12
2.00
2.79
3.36
3.63
3.66
3.50
3.21
2.85
2.48
2.21
2.16
2.39
2.84
3.32
3.57
3.42
2.81
1.87
0.82
-0.16
-0.99
-1.72
-2.49
-3.38
-4.41
-5.41
-6.16
-6.46
-6.21
-5.42
-4.29
-3.04
-1.86
-0.82
0.08
0.95
1.84
2.79
3.74
4.56
5.13
5.33
5.16
4.70
4.07
3.40
2.81
2.36
2.11
2.08
2.22
2.44
2.57
2.40
1.81
0.84
-0.33
-1.38
-2.04
-2.23
-2.11
-1.99
-2.21
-2.93
-4.09
-5.42
-6.55
-7.16
-7.09
-6.33
-5.02
-3.38
-1.64
-0.03
1.26
2.12
2.56
2.64
2.53
2.38
2.31
2.37
2.54
2.77
2.99
3.17
3.22
3.13
2.88
2.52
2.11
1.75
1.46
1.22
0.93
0.50
-0.11
-0.87
-1.66
-2.37
-2.89
-3.19
-3.35
-3.46
-3.63
-3.94
-4.43
-5.06
-5.75
-6.33
-6.65
-6.58
-6.04
-5.05
-3.75
-2.34
-1.08
-0.20
0.17
0.06
-0.36
-0.78
-0.97
-0.78
-0.25
0.45
1.10
1.49
1.54
1.28
0.83
0.34
-0.04
-0.24
-0.24
-0.13
-0.04
-0.09
-0.33
-0.75
-1.24
-1.69
-2.08
-2.49
-3.03
-3.74
-4.58
-5.38
-6.00
-6.33
-6.38
-6.24
-5.99
-5.68
-5.26
-4.68
-3.85
-2.71
-1.30
0.32
1.98
3.50
4.71
5.52
5.94
6.09
6.12
6.17
6.30
6.50
6.76
7.01
7.21
7.25
7.03
6.47
5.59
4.53
3.53
2.82
2.55
2.66
2.95
3.12
2.86
1.94
0.34
-1.77
-4.00
-5.91
-7.09
-7.34
-6.73
-5.57
-4.27
-3.15
-2.39
-1.95
-1.68
-1.43
-1.07
-0.54
0.19
1.11
2.22
3.42
4.56
5.42
5.81
5.65
5.01
4.10
3.17
2.46
2.07
1.99
2.07
2.16
2.09
1.80
1.27
0.55
-0.27
-1.08
-1.77
-2.27
-2.57
-2.73
-2.89
-3.13
-3.45
-3.75
-3.87
-3.62
-2.96
-1.96
-0.79
0.30
1.14
1.67
1.92
1.99
1.97
1.93
1.88
1.84
1.84
1.92
2.14
2.52
3.02
3.50
3.81
3.79
3.38
2.63
1.66
0.60
-0.41
-1.30
-2.03
-2.57
-2.88
-2.98
-2.91
-2.78
-2.76
-2.98
-3.47
-4.14
-4.75
-5.09
-5.00
-4.48
-3.65
-2.72
-1.80
-0.91
0.01
1.04
2.17
3.23
3.97
4.23
4.01
3.56
3.20
3.18
3.54
4.04
4.36
4.26
3.71
2.92
2.20
1.73
1.53
1.42
1.18
0.67
-0.08
-0.89
-1.56
-1.99
-2.19
-2.29
-2.40
-2.59
-2.87
-3.18
-3.49
-3.79
-4.14
-4.56
-5.01
-5.39
-5.53
-5.26
-4.52
-3.34
-1.84
-0.23
1.26
2.44
3.22
3.58
3.61
3.45
3.27
3.17
3.20
3.35
3.53
3.63
3.56
3.26
2.75
2.16
1.65
1.35
1.35
1.55
1.75
1.76
1.45
0.87
0.20
-0.39
-0.82
-1.14
-1.50
-2.08
-2.95
-4.05
-5.21
-6.23
-6.97
-7.37
-7.48
-7.37
-7.10
-6.68
-6.04
-5.14
-3.95
-2.58
-1.24
-0.18
0.44
0.58
0.38
0.05
-0.21
-0.33
-0.33
-0.29
-0.25
-0.19
-0.02
0.34
0.86
1.45
1.92
2.15
2.07
1.75
1.30
0.88
0.58
0.39
0.23
-0.02
-0.45
-1.10
-1.86
-2.61
-3.19
-3.53
-3.67
-3.73
-3.83
-4.05
-4.33
-4.52
-4.47
-4.05
-3.28
-2.23
-1.06
0.12
1.24
2.26
3.14
3.79
4.15
4.15
3.82
3.28
2.71
2.23
1.92
1.75
1.64
1.51
1.32
1.12
0.97
0.93
0.98
1.01
0.88
0.46
-0.27
-1.24
-2.29
-3.25
-4.00
-4.49
-4.69
-4.58
-4.15
-3.42
-2.48
-1.49
-0.56
0.21
0.88
1.53
2.26
3.03
3.75
4.23
4.33
4.01
3.39
2.67
2.10
1.85
1.98
2.38
2.85
3.15
3.12
2.72
2.02
1.16
0.31
-0.39
-0.89
-1.15
-1.23
-1.16
-1.02
-0.91
-0.89
-1.04
-1.39
-1.95
-2.63
-3.30
-3.77
-3.87
-3.51
-2.73
-1.71
-0.68
0.22
0.96
1.67
2.47
3.42
4.40
5.22
5.66
5.66
5.29
4.78
4.34
4.10
4.05
4.08
4.07
3.96
3.77
3.57
3.42
3.31
3.17
2.90
2.40
1.67
0.78
-0.12
-0.89
-1.51
-2.04
-2.61
-3.32
-4.21
-5.19
-6.12
-6.86
-7.33
-7.48
-7.30
-6.79
-5.91
-4.67
-3.17
-1.61
-0.25
0.67
1.06
0.98
0.68
0.45
0.54
1.05
1.87
2.74
3.32
3.37
2.79
1.68
0.30
-1.05
-2.10
-2.77
-3.09
-3.19
-3.24
-3.35
-3.57
-3.91
-4.38
-4.94
-5.57
-6.17
-6.64
-6.88
-6.81
-6.44
-5.79
-4.97
-4.05
-3.09
-2.14
-1.20
-0.26
0.69
1.65
2.60
3.49
4.24
4.80
5.15
5.33
5.44
5.58
5.85
6.25
6.70
7.08
7.22
7.05
6.57
5.90
5.17
4.45
3.73
2.91
1.92
0.80
-0.32
-1.26
-1.88
-2.15
-2.19
-2.14
-2.14
-2.20
-2.22
-2.03
-1.50
-0.60
0.58
1.79
2.74
3.20
3.12
2.64
2.04
1.66
1.72
2.25
3.06
3.85
4.35
4.45
4.20
3.76
3.29
2.88
2.48
2.01
1.45
0.86
0.43
0.33
0.57
1.04
1.46
1.58
1.29
0.60
-0.37
-1.52
-2.80
-4.20
-5.65
-6.94
-7.82
-8.12
-7.83
-7.16
-6.37
-5.62
-4.86
-3.84
-2.35
-0.32
1.99
4.14
5.64
6.19
5.82
4.84
3.73
2.95
2.75
3.16
3.99
4.92
5.59
5.78
5.40
4.56
3.47
2.41
1.53
0.85
0.26
-0.41
-1.23
-2.16
-3.01
-3.61
-3.91
-4.01
-4.08
-4.28
-4.62
-4.96
-5.11
-4.89
-4.21
-3.12
-1.71
-0.16
1.33
2.58
3.49
4.06
4.42
4.75
5.18
5.72
6.25
6.59
6.55
6.08
5.23
4.14
2.99
1.90
0.95
0.13
-0.61
-1.31
-2.01
-2.65
-3.16
-3.45
-3.52
-3.48
-3.49
-3.72
-4.21
-4.92
-5.66
-6.28
-6.68
-6.86
-6.84
-6.64
-6.26
-5.68
-4.93
-4.10
-3.29
-2.55
-1.89
-1.26
-0.60
0.05
0.60
0.93
0.97
0.76
0.45
0.19
0.06
0.03
0.02
-0.07
-0.26
-0.52
-0.78
-0.97
-1.09
-1.10
-0.99
-0.72
-0.31
0.13
0.43
0.40
-0.04
-0.82
-1.71
-2.45
-2.83
-2.80
-2.46
-1.98
-1.50
-1.11
-0.82
-0.61
-0.45
-0.28
-0.07
0.22
0.66
1.23
1.91
2.63
3.34
3.99
4.57
5.08
5.52
5.87
6.13
6.27
6.29
6.18
5.95
5.63
5.23
4.78
4.36
4.03
3.83
3.73
3.63
3.35
2.71
1.59
-0.03
-2.03
-4.20
-6.22
-7.76
-8.58
-8.54
-7.70
-6.30
-4.66
-3.07
-1.72
-0.69
0.11
0.77
1.37
1.94
2.48
2.96
3.36
3.69
3.97
4.21
4.42
4.59
4.75
4.92
5.12
5.36
5.59
5.72
5.64
5.21
4.39
3.21
1.83
0.47
-0.62
-1.31
-1.61
-1.70
-1.87
-2.34
-3.23
-4.44
-5.68
-6.65
-7.11
-6.98
-6.36
-5.44
-4.37
-3.23
-2.04
-0.78
0.47
1.56
2.32
2.70
2.78
2.75
2.77
2.89
3.00
2.94
2.62
2.09
1.56
1.22
1.19
1.41
1.68
1.82
1.70
1.34
0.82
0.29
-0.11
-0.32
-0.31
-0.15
0.03
0.11
-0.03
-0.41
-0.97
-1.64
-2.33
-3.02
-3.68
-4.31
-4.89
-5.36
-5.66
-5.71
-5.47
-4.93
-4.15
-3.18
-2.10
-0.98
0.14
1.20
2.13
2.90
3.50
3.99
4.41
4.79
5.05
5.06
4.64
3.71
2.34
0.80
-0.58
-1.48
-1.73
-1.37
-0.63
0.14
0.57
0.39
-0.48
-1.95
-3.77
-5.61
-7.22
-8.43
-9.26
-9.79
-10.16
-10.42
-10.56
-10.52
-10.19
-9.51
-8.44
-7.04
-5.35
-3.50
-1.61
0.16
1.67
2.86
3.78
4.56
5.40
6.43
7.59
8.67
9.37
9.39
8.64
7.19
5.31
3.35
1.57
0.11
-1.06
-2.06
-3.03
-4.06
-5.16
-6.18
-6.96
-7.33
-7.25
-6.80
-6.17
-5.60
-5.28
-5.27
-5.53
-5.90
-6.14
-6.00
-5.25
-3.79
-1.71
0.73
3.16
5.21
6.72
7.69
8.30
8.74
9.12
9.38
9.40
9.04
8.24
7.06
5.65
4.17
2.80
1.67
0.90
0.57
0.68
1.17
1.88
2.63
3.22
3.49
3.30
2.57
1.32
-0.37
-2.25
-4.01
-5.34
-6.08
-6.28
-6.17
-6.01
-5.96
-5.93
-5.70
-4.99
-3.69
-1.90
0.12
2.02
3.52
4.48
4.87
4.71
4.09
3.09
1.87
0.64
-0.37
-0.96
-1.05
-0.69
-0.08
0.51
0.85
0.79
0.36
-0.26
-0.84
-1.17
-1.14
-0.80
-0.31
0.13
0.29
0.02
-0.73
-1.91
-3.33
-4.72
-5.74
-6.09
-5.62
-4.40
-2.70
-0.91
0.56
1.49
1.80
1.64
1.27
0.92
0.76
0.83
1.02
1.13
0.94
0.29
-0.82
-2.20
-3.54
-4.54
-4.97
-4.83
-4.25
-3.44
-2.57
-1.70
-0.81
0.14
1.12
2.05
2.80
3.29
3.54
3.60
3.57
3.47
3.28
2.93
2.38
1.61
0.70
-0.21
-0.96
-1.39
-1.39
-1.00
-0.35
0.32
0.80
0.95
0.83
0.60
0.45
0.47
0.59
0.64
0.45
-0.04
-0.70
-1.35
-1.79
-1.93
-1.82
-1.62
-1.49
-1.53
-1.74
-2.01
-2.26
-2.49
-2.76
-3.18
-3.83
-4.64
-5.48
-6.20
-6.71
-7.00
-7.16
-7.26
-7.32
-7.30
-7.10
-6.66
-5.97
-5.03
-3.91
-2.63
-1.26
0.14
1.49
2.73
3.79
4.68
5.37
5.85
6.09
6.09
5.91
5.67
5.53
5.63
5.96
6.42
6.80
6.92
6.73
6.31
5.83
5.42
5.09
4.70
4.08
3.13
1.89
0.53
-0.75
-1.79
-2.55
-3.07
-3.38
-3.48
-3.35
-2.95
-2.32
-1.52
-0.63
0.26
1.10
1.86
2.47
2.88
3.09
3.16
3.17
3.23
3.37
3.56
3.73
3.77
3.66
3.39
3.02
2.61
2.25
2.02
1.94
1.99
2.04
1.94
1.52
0.71
-0.43
-1.70
-2.86
-3.71
-4.17
-4.27
-4.12
-3.86
-3.56
-3.22
-2.78
-2.18
-1.38
-0.46
0.46
1.26
1.90
2.47
3.10
3.85
4.69
5.41
5.77
5.59
4.88
3.87
2.88
2.23
2.11
2.45
3.05
3.58
3.80
3.56
2.93
2.07
1.17
0.33
-0.51
-1.46
-2.60
-3.88
-5.12
-6.14
-6.85
-7.33
-7.76
-8.23
-8.72
-9.06
-9.05
-8.61
-7.82
-6.89
-6.03
-5.33
-4.79
-4.38
-4.13
-4.14
-4.50
-5.18
-5.96
-6.45
-6.20
-4.87
-2.28
1.46
5.97
10.64
14.75
17.66
18.98
18.74
17.34
15.47
13.80
12.82
12.74
13.42
14.51
15.52
15.95
15.37
13.66
10.96
7.74
4.57
1.90
-0.08
-1.50
-2.66
-3.82
-5.01
-6.06
-6.74
-6.87
-6.46
-5.65
-4.61
-3.43
-2.15
-0.81
0.47
1.50
2.11
2.24
1.99
1.55
1.12
0.80
0.61
0.46
0.30
0.09
-0.23
-0.73
-1.45
-2.41
-3.46
-4.37
-4.84
-4.68
-3.85
-2.50
-0.93
0.56
1.69
2.25
2.10
1.22
-0.31
-2.29
-4.43
-6.43
-8.09
-9.29
-10.01
-10.24
-9.96
-9.10
-7.59
-5.50
-2.98
-0.32
2.19
4.28
5.78
6.59
6.72
6.25
5.36
4.23
3.06
2.00
1.10
0.35
-0.28
-0.81
-1.26
-1.63
-1.97
-2.31
-2.68
-3.06
-3.36
-3.53
-3.55
-3.47
-3.36
-3.27
-3.14
-2.90
-2.50
-1.99
-1.47
-1.08
-0.88
-0.81
-0.74
-0.53
-0.14
0.38
0.91
1.36
1.73
2.04
2.32
2.53
2.58
2.42
2.05
1.55
1.06
0.65
0.33
0.07
-0.19
-0.38
-0.42
-0.19
0.27
0.84
1.26
1.25
0.69
-0.43
-1.94
-3.57
-5.04
-6.10
-6.59
-6.47
-5.82
-4.86
-3.90
-3.19
-2.85
-2.82
-2.88
-2.84
-2.64
-2.35
-2.13
-2.06
-2.00
-1.70
-0.96
0.25
1.70
3.07
4.08
4.64
4.88
4.97
5.03
5.08
5.06
4.91
4.65
4.35
4.08
3.93
3.95
4.14
4.43
4.69
4.71
4.31
3.41
2.11
0.66
-0.66
-1.62
-2.12
-2.19
-1.93
-1.44
-0.83
-0.25
0.17
0.27
-0.04
-0.73
-1.69
-2.74
-3.75
-4.65
-5.40
-5.96
-6.24
-6.11
-5.50
-4.48
-3.28
-2.20
-1.46
-1.09
-0.89
-0.61
-0.03
0.79
1.63
2.12
2.01
1.23
-0.04
-1.51
-2.90
-4.00
-4.70
-4.89
-4.46
-3.33
-1.51
0.81
3.32
5.65
7.54
8.89
9.70
10.00
9.79
9.01
7.67
5.91
4.03
2.43
1.41
1.06
1.20
1.47
1.48
0.99
-0.04
-1.41
-2.80
-3.85
-4.31
-4.08
-3.28
-2.21
-1.32
-1.04
-1.67
-3.24
-5.49
-7.88
-9.78
-10.65
-10.25
-8.67
-6.31
-3.74
-1.49
0.05
0.74
0.64
-0.02
-0.98
-1.95
-2.70
-3.04
-2.92
-2.41
-1.74
-1.19
-0.99
-1.21
-1.74
-2.30
-2.59
-2.42
-1.73
-0.63
0.68
1.99
3.09
3.76
3.84
3.26
2.07
0.55
-0.93
-1.99
-2.41
-2.18
-1.50
-0.64
0.13
0.67
0.96
1.00
0.80
0.38
-0.27
-1.05
-1.78
-2.28
-2.44
-2.35
-2.27
-2.56
-3.50
-5.14
-7.24
-9.38
-11.09
-12.04
-12.13
-11.49
-10.32
-8.84
-7.21
-5.52
-3.88
-2.42
-1.28
-0.54
-0.17
0.02
0.26
0.69
1.33
2.00
2.45
2.48
2.03
1.18
0.16
-0.79
-1.49
-1.80
-1.71
-1.28
-0.68
-0.11
0.23
0.21
-0.18
-0.86
-1.68
-2.50
-3.19
-3.61
-3.67
-3.29
-2.48
-1.34
-0.05
1.18
2.22
3.03
3.60
3.95
4.10
4.04
3.85
3.63
3.49
3.47
3.50
3.42
3.10
2.48
1.71
0.97
0.43
0.19
0.19
0.30
0.39
0.40
0.27
-0.01
-0.44
-1.01
-1.64
-2.16
-2.39
-2.15
-1.39
-0.20
1.23
2.67
3.93
4.96
5.77
6.42
6.95
7.36
7.61
7.68
7.57
7.35
7.06
6.73
6.38
5.96
5.44
4.82
4.15
3.51
2.99
2.68
2.53
2.45
2.27
1.85
1.15
0.22
-0.79
-1.71
-2.40
-2.76
-2.75
-2.38
-1.69
-0.72
0.41
1.59
2.67
3.55
4.14
4.47
4.62
4.69
4.82
5.09
5.45
5.76
5.84
5.54
4.85
3.93
3.04
2.40
2.12
2.11
2.18
2.09
1.70
0.97
-0.00
-1.10
-2.18
-3.13
-3.88
-4.37
-4.54
-4.35
-3.76
-2.83
-1.71
-0.58
0.38
1.08
1.56
1.97
2.46
3.09
3.82
4.50
4.95
5.06
4.85
4.40
3.82
3.21
2.63
2.13
1.77
1.64
1.78
2.16
2.64
3.01
3.04
2.61
1.72
0.51
-0.82
-2.09
-3.18
-4.04
-4.67
-5.07
-5.22
-5.14
-4.87
-4.49
-4.07
-3.62
-3.08
-2.35
-1.30
0.09
1.72
3.37
4.71
5.47
5.51
4.90
3.90
2.87
2.15
1.88
2.02
2.36
2.66
2.72
2.49
1.98
1.28
0.48
-0.33
-1.08
-1.67
-2.05
-2.25
-2.39
-2.60
-2.97
-3.50
-4.08
-4.52
-4.67
-4.40
-3.72
-2.70
-1.48
-0.19
1.03
2.10
2.96
3.56
3.90
4.01
3.97
3.86
3.76
3.66
3.51
3.20
2.66
1.89
1.01
0.21
-0.32
-0.46
-0.20
0.33
0.93
1.37
1.47
1.16
0.48
-0.41
-1.36
-2.27
-3.03
-3.61
-3.95
-4.02
-3.82
-3.40
-2.88
-2.31
-1.73
-1.09
-0.34
0.48
1.29
1.94
2.34
2.50
2.51
2.54
2.69
2.97
3.26
3.40
3.26
2.79
2.05
1.24
0.57
0.21
0.21
0.42
0.63
0.64
0.34
-0.20
-0.85
-1.48
-2.04
-2.57
-3.09
-3.60
-4.01
-4.20
-4.05
-3.54
-2.68
-1.58
-0.37
0.79
1.80
2.59
3.20
3.72
4.22
4.72
5.13
5.30
5.13
4.61
3.85
3.02
2.33
1.90
1.76
1.81
1.94
2.01
1.90
1.56
0.97
0.17
-0.78
-1.80
-2.76
-3.54
-4.04
-4.23
-4.13
-3.89
-3.66
-3.59
-3.70
-3.93
-4.11
-4.03
-3.55
-2.65
-1.42
-0.04
1.27
2.35
3.15
3.69
4.04
4.22
4.26
4.13
3.88
3.60
3.39
3.35
3.46
3.58
3.55
3.25
2.69
1.99
1.33
0.79
0.38
0.02
-0.39
-0.92
-1.53
-2.13
-2.65
-3.06
-3.42
-3.82
-4.32
-4.88
-5.38
-5.65
-5.61
-5.23
-4.61
-3.88
-3.12
-2.37
-1.60
-0.78
0.05
0.83
1.50
2.03
2.50
2.97
3.46
3.92
4.21
4.19
3.82
3.18
2.47
1.90
1.64
1.72
2.03
2.43
2.75
2.87
2.74
2.38
1.83
1.14
0.35
-0.46
-1.24
-1.94
-2.52
-3.00
-3.41
-3.79
-4.17
-4.54
-4.87
-5.12
-5.27
-5.29
-5.16
-4.84
-4.32
-3.59
-2.68
-1.68
-0.67
0.22
0.95
1.48
1.84
2.05
2.13
2.08
1.88
1.53
1.07
0.62
0.27
0.10
0.08
0.14
0.15
0.02
-0.25
-0.59
-0.92
-1.14
-1.26
-1.30
-1.32
-1.38
-1.54
-1.81
-2.19
-2.62
-2.99
-3.20
-3.15
-2.83
-2.33
-1.79
-1.32
-1.01
-0.82
-0.66
-0.41
-0.02
0.48
1.00
1.41
1.64
1.65
1.47
1.22
1.01
0.97
1.12
1.44
1.80
2.03
2.01
1.72
1.23
0.69
0.24
-0.05
-0.21
-0.33
-0.47
-0.68
-0.99
-1.39
-1.90
-2.48
-3.10
-3.66
-4.02
-4.06
-3.72
-3.00
-1.98
-0.78
0.46
1.62
2.58
3.27
3.65
3.74
3.57
3.24
2.85
2.48
2.18
1.97
1.82
1.75
1.76
1.92
2.25
2.71
3.16
3.46
3.44
3.05
2.33
1.35
0.25
-0.88
-1.95
-2.86
-3.52
-3.87
-3.91
-3.68
-3.22
-2.57
-1.73
-0.74
0.30
1.25
1.91
2.21
2.16
1.92
1.70
1.64
1.81
2.11
2.41
2.59
2.59
2.43
2.22
2.03
1.92
1.86
1.79
1.65
1.39
1.00
0.50
-0.08
-0.73
-1.47
-2.29
-3.13
-3.89
-4.42
-4.65
-4.59
-4.35
-4.09
-3.90
-3.83
-3.82
-3.77
-3.60
-3.26
-2.77
-2.17
-1.50
-0.80
-0.12
0.51
1.05
1.47
1.77
1.93
1.93
1.81
1.64
1.50
1.47
1.53
1.60
1.56
1.31
0.84
0.27
-0.23
-0.52
-0.59
-0.59
-0.72
-1.19
-2.07
-3.25
-4.56
-5.80
-6.77
-7.35
-7.46
-7.09
-6.26
-5.08
-3.72
-2.33
-1.04
0.09
1.02
1.72
2.13
2.22
2.03
1.72
1.48
1.51
1.84
2.34
2.76
2.89
2.63
2.07
1.42
0.90
0.63
0.59
0.65
0.65
0.51
0.20
-0.23
-0.69
-1.19
-1.73
-2.35
-3.04
-3.71
-4.20
-4.35
-4.07
-3.39
-2.50
-1.65
-1.02
-0.67
-0.50
-0.31
0.04
0.61
1.30
1.98
2.50
2.82
2.95
2.95
2.83
2.57
2.12
1.51
0.85
0.30
0.02
0.06
0.36
0.75
1.04
1.06
0.76
0.20
-0.52
-1.23
-1.81
-2.19
-2.36
-2.37
-2.32
-2.27
-2.28
-2.35
-2.42
-2.39
-2.12
-1.55
-0.65
0.50
1.73
2.86
3.71
4.17
4.23
3.98
3.54
3.06
2.69
2.53
2.58
2.78
3.02
3.17
3.14
2.93
2.54
1.99
1.28
0.42
-0.57
-1.63
-2.63
-3.45
-4.00
-4.26
-4.26
-4.12
-3.95
-3.88
-3.98
-4.21
-4.45
-4.53
-4.28
-3.64
-2.63
-1.38
-0.03
1.28
2.42
3.34
3.96
4.27
4.31
4.18
4.02
3.89
3.79
3.64
3.35
2.91
2.39
1.93
1.66
1.63
1.80
2.01
2.07
1.78
1.04
-0.18
-1.78
-3.53
-5.19
-6.50
-7.28
-7.43
-6.94
-5.86
-4.35
-2.59
-0.81
0.78
1.99
2.77
3.12
3.15
2.99
2.78
2.61
2.58
2.70
2.95
3.24
3.45
3.49
3.36
3.10
2.81
2.57
2.37
2.15
1.78
1.17
0.32
-0.70
-1.73
-2.63
-3.33
-3.85
-4.23
-4.52
-4.73
-4.85
-4.84
-4.70
-4.49
-4.24
-3.98
-3.69
-3.31
-2.75
-1.95
-0.89
0.36
1.68
2.93
3.96
4.67
5.04
5.07
4.83
4.40
3.89
3.44
3.17
3.17
3.40
3.71
3.91
3.84
3.38
2.53
1.38
0.04
-1.39
-2.79
-4.03
-5.04
-5.76
-6.18
-6.37
-6.37
-6.23
-5.96
-5.53
-4.93
-4.18
-3.32
-2.38
-1.39
-0.34
0.73
1.76
2.65
3.31
3.74
4.00
4.21
4.48
4.81
5.12
5.24
5.07
4.63
4.06
3.56
3.28
3.19
3.14
2.92
2.40
1.65
0.89
0.38
0.30
0.66
1.29
1.89
2.20
2.04
1.42
0.48
-0.54
-1.39
-1.89
-1.97
-1.63
-0.92
0.08
1.24
2.42
3.42
4.06
4.24
3.98
3.42
2.78
2.25
1.98
2.00
2.25
2.57
2.78
2.70
2.23
1.37
0.25
-0.92
-1.98
-2.81
-3.39
-3.75
-3.95
-4.05
-4.10
-4.20
-4.45
-4.86
-5.35
-5.72
-5.73
-5.20
-4.09
-2.54
-0.77
0.97
2.52
3.81
4.77
5.37
5.56
5.32
4.73
3.93
3.11
2.47
2.11
2.09
2.34
2.80
3.34
3.83
4.10
4.00
3.41
2.33
0.90
-0.68
-2.16
-3.37
-4.27
-4.92
-5.40
-5.80
-6.14
-6.42
-6.62
-6.75
-6.85
-6.93
-6.94
-6.78
-6.31
-5.47
-4.25
-2.76
-1.11
0.59
2.23
3.72
4.88
5.47
5.30
4.32
2.73
0.95
-0.49
-1.16
-0.92
0.10
1.49
2.79
3.58
3.64
2.93
1.61
-0.05
-1.70
-2.98
-3.67
-3.72
-3.28
-2.61
-2.00
-1.59
-1.40
-1.32
-1.24
-1.07
-0.77
-0.28
0.49
1.60
3.04
4.65
6.17
7.37
8.10
8.36
8.30
8.10
7.87
7.68
7.49
7.25
6.90
6.44
5.88
5.28
4.67
4.06
3.39
2.53
1.38
-0.11
-1.90
-3.86
-5.87
-7.89
-9.92
-11.94
-13.83
-15.34
-16.20
-16.22
-15.44
-14.08
-12.51
-11.01
-9.73
-8.65
-7.66
-6.66
-5.59
-4.46
-3.26
-1.97
-0.59
0.84
2.20
3.34
4.20
4.81
5.35
5.99
6.81
7.75
8.61
9.17
9.32
9.04
8.40
7.46
6.25
4.74
2.98
1.10
-0.73
-2.28
-3.43
-4.16
-4.51
-4.57
-4.35
-3.87
-3.12
-2.14
-1.02
0.10
1.10
1.97
2.75
3.55
4.44
5.31
5.92
5.95
5.18
3.59
1.46
-0.75
-2.56
-3.62
-3.85
-3.40
-2.53
-1.55
-0.74
-0.33
-0.48
-1.26
-2.60
-4.32
-6.10
-7.56
-8.43
-8.55
-7.95
-6.80
-5.38
-4.00
-2.88
-2.09
-1.55
-1.06
-0.42
0.43
1.42
2.38
3.10
3.46
3.48
3.24
2.85
2.37
1.82
1.19
0.47
-0.30
-1.06
-1.72
-2.24
-2.60
-2.85
-3.08
-3.41
-3.90
-4.57
-5.32
-6.06
-6.68
-7.10
-7.27
-7.13
-6.62
-5.69
-4.31
-2.61
-0.78
0.88
2.13
2.87
3.15
3.18
3.18
3.34
3.70
4.16
4.57
4.79
4.74
4.44
3.95
3.34
2.67
1.97
1.29
0.63
0.00
-0.62
-1.29
-2.08
-3.05
-4.21
-5.48
-6.70
-7.66
-8.20
-8.22
-7.74
-6.91
-5.93
-4.95
-4.04
-3.16
-2.21
-1.13
0.06
1.21
2.17
2.81
3.14
3.27
3.37
3.57
3.90
4.25
4.46
4.42
4.09
3.53
2.87
2.23
1.65
1.07
0.43
-0.30
-1.08
-1.78
-2.26
-2.48
-2.50
-2.50
-2.70
-3.23
-4.10
-5.16
-6.13
-6.71
-6.71
-6.09
-4.97
-3.60
-2.20
-0.92
0.23
1.27
2.25
3.11
3.78
4.19
4.35
4.35
4.31
4.31
4.36
4.38
4.30
4.09
3.74
3.32
2.86
2.37
1.86
1.33
0.81
0.32
-0.14
-0.59
-1.10
-1.74
-2.53
-3.45
-4.40
-5.26
-5.93
-6.36
-6.53
-6.42
-6.01
-5.27
-4.22
-2.92
-1.53
-0.16
1.09
2.22
3.24
4.14
4.86
5.28
5.32
5.02
4.52
3.98
3.52
3.13
2.73
2.21
1.57
0.88
0.25
-0.24
-0.58
-0.81
-0.99
-1.19
-1.43
-1.76
-2.14
-2.54
-2.86
-3.03
-3.01
-2.81
-2.43
-1.88
-1.15
-0.19
0.95
2.14
3.24
4.08
4.63
4.94
5.08
5.13
5.07
4.87
4.53
4.11
3.72
3.41
3.21
3.12
3.14
3.30
3.62
4.04
4.41
4.46
4.01
2.98
1.48
-0.25
-1.94
-3.34
-4.32
-4.79
-4.74
-4.18
-3.16
-1.83
-0.38
0.96
2.09
2.97
3.73
4.50
5.37
6.29
7.07
7.52
7.50
7.05
6.30
5.47
4.71
4.08
3.57
3.10
2.62
2.12
1.59
1.02
0.36
-0.46
-1.47
-2.70
-4.09
-5.55
-6.96
-8.19
-9.13
-9.68
-9.80
-9.48
-8.74
-7.65
-6.30
-4.76
-3.13
-1.52
-0.05
1.15
2.02
2.49
2.61
2.44
2.11
1.72
1.37
1.12
1.01
1.04
1.19
1.42
1.60
1.63
1.38
0.86
0.14
-0.61
-1.23
-1.65
-1.95
-2.30
-2.91
-3.87
-5.10
-6.35
-7.31
-7.69
-7.36
-6.41
-5.07
-3.63
-2.35
-1.35
-0.62
-0.04
0.48
0.98
1.41
1.66
1.60
1.19
0.53
-0.22
-0.82
-1.08
-0.94
-0.43
0.27
1.00
1.61
2.05
2.31
2.38
2.23
1.83
1.15
0.24
-0.78
-1.80
-2.69
-3.39
-3.85
-4.01
-3.78
-3.09
-1.98
-0.61
0.78
1.92
2.71
3.20
3.56
3.99
4.58
5.32
6.10
6.84
7.54
8.24
9.00
9.81
10.52
10.97
11.01
10.59
9.78
8.72
7.53
6.27
4.94
3.50
1.99
0.52
-0.75
-1.66
-2.14
-2.25
-2.16
-2.02
-1.95
-1.96
-1.96
-1.81
-1.45
-0.92
-0.35
0.07
0.23
0.17
0.04
0.05
0.35
0.96
1.79
2.68
3.46
4.04
4.33
4.26
3.77
2.88
1.73
0.61
-0.09
-0.09
0.68
2.02
3.46
4.50
4.76
4.11
2.71
0.86
-1.06
-2.76
-4.04
-4.78
-4.94
-4.57
-3.80
-2.84
-1.91
-1.15
-0.55
0.04
0.78
1.79
3.04
4.38
5.64
6.60
7.15
7.20
6.73
5.80
4.60
3.41
2.53
2.18
2.36
2.91
3.53
3.96
4.05
3.80
3.25
2.48
1.55
0.47
-0.74
-2.04
-3.37
-4.65
-5.85
-6.95
-7.98
-8.94
-9.82
-10.55
-11.00
-11.05
-10.59
-9.59
-8.13
-6.39
-4.62
-3.06
-1.89
-1.14
-0.76
-0.61
-0.56
-0.52
-0.43
-0.24
0.08
0.54
1.09
1.65
2.08
2.28
2.23
2.01
1.74
1.50
1.29
1.00
0.48
-0.34
-1.39
-2.47
-3.31
-3.73
-3.69
-3.36
-2.99
-2.82
-2.92
-3.16
-3.34
-3.24
-2.84
-2.21
-1.53
-0.97
-0.61
-0.40
-0.29
-0.22
-0.16
-0.11
-0.08
-0.07
-0.06
-0.02
0.07
0.19
0.27
0.23
0.02
-0.37
-0.81
-1.14
-1.17
-0.80
-0.05
0.90
1.79
2.39
2.55
2.22
1.46
0.39
-0.83
-2.01
-3.02
-3.75
-4.16
-4.24
-4.02
-3.51
-2.77
-1.87
-0.93
-0.05
0.73
1.43
2.15
3.01
4.05
5.19
6.23
6.89
6.96
6.37
5.20
3.66
2.05
0.63
-0.42
-1.02
-1.20
-1.02
-0.59
0.01
0.72
1.47
2.19
2.77
3.08
3.02
2.54
1.68
0.56
-0.62
-1.73
-2.65
-3.34
-3.79
-3.96
-3.79
-3.25
-2.33
-1.09
0.33
1.78
3.10
4.16
4.90
5.34
5.54
5.56
5.43
5.13
4.64
3.96
3.22
2.58
2.23
2.22
2.46
2.70
2.72
2.34
1.59
0.59
-0.50
-1.57
-2.59
-3.57
-4.50
-5.37
-6.07
-6.57
-6.82
-6.84
-6.69
-6.42
-6.05
-5.55
-4.94
-4.18
-3.31
-2.36
-1.37
-0.42
0.46
1.20
1.77
2.18
2.47
2.72
2.98
3.25
3.44
3.47
3.27
2.87
2.36
1.86
1.44
1.12
0.84
0.57
0.31
0.07
-0.15
-0.38
-0.72
-1.26
-2.05
-3.08
-4.25
-5.39
-6.34
-6.94
-7.05
-6.61
-5.64
-4.27
-2.73
-1.24
-0.01
0.89
1.47
1.81
1.98
2.05
2.03
1.98
1.93
1.94
2.04
2.23
2.47
2.68
2.75
2.65
2.37
1.99
1.59
1.23
0.93
0.62
0.24
-0.25
-0.83
-1.38
-1.83
-2.13
-2.32
-2.52
-2.83
-3.29
-3.82
-4.27
-4.47
-4.27
-3.64
-2.62
-1.32
0.11
1.52
2.76
3.67
4.20
4.34
4.20
3.93
3.68
3.54
3.50
3.51
3.46
3.29
2.94
2.38
1.65
0.87
0.25
0.04
0.43
1.39
2.69
3.87
4.46
4.13
2.78
0.63
-1.91
-4.23
-5.69
-5.67
-3.81
-0.17
4.73
10.01
14.74
18.19
20.06
20.47
19.85
18.69
17.38
16.13
14.94
13.65
12.02
9.85
7.01
3.56
-0.24
-4.02
-7.39
-10.05
-11.88
-12.92
-13.38
-13.59
-13.90
-14.56
-15.61
-16.86
-17.91
-18.29
-17.64
-15.79
-12.81
-8.98
-4.74
-0.67
2.60
4.58
5.07
4.32
2.98
1.88
1.69
2.57
4.18
5.79
6.65
6.37
4.99
2.95
0.86
-0.79
-1.77
-2.13
-2.12
-2.07
-2.24
-2.75
-3.55
-4.41
-5.02
-5.10
-4.50
-3.29
-1.76
-0.29
0.63
0.67
-0.28
-1.94
-3.75
-4.94
-4.85
-3.13
0.06
3.89
7.30
9.35
9.60
8.25
5.95
3.60
2.02
1.69
2.41
3.58
4.40
4.24
2.79
0.05
-3.63
-7.64
-11.33
-14.34
-16.46
-17.60
-17.81
-17.34
-16.69
-16.41
-16.85
-16.17
-12.76
-6.02
3.06
12.44
20.45
26.38
30.60
34.10
37.71
41.53
45.07
47.39
47.51
45.15
40.56
34.56
28.31
22.76
18.31
14.80
11.52
7.56
2.10
-5.51
-15.68
-26.60
-36.69
-44.29
-47.71
-45.77
-38.30
-26.46
-12.62
0.35
10.13
15.38
16.25
13.98
10.15
6.07
2.46
-0.41
-2.42
-3.37
-3.23
-2.13
-0.48
1.04
1.73
1.23
-0.43
-2.74
-5.03
-6.85
-8.04
-8.79
-9.50
-10.58
-12.25
-14.37
-16.59
-18.42
-19.56
-19.97
-19.84
-19.53
-19.34
-19.41
-19.65
-19.82
-19.68
-19.20
-18.50
-17.90
-17.66
-17.87
-18.34
-18.65
-18.36
-17.18
-15.18
-12.63
-9.94
-7.39
-5.08
-2.94
-0.85
1.22
3.21
4.97
6.39
7.41
8.07
8.41
8.46
8.22
7.69
6.92
5.97
4.99
4.09
3.37
2.87
2.57
2.39
2.21
1.88
1.29
0.42
-0.62
-1.67
-2.54
-3.08
-3.20
-2.93
-2.33
-1.49
-0.50
0.56
1.61
2.58
3.39
3.99
4.39
4.65
4.83
5.00
5.19
5.38
5.54
5.67
5.78
5.96
6.23
6.57
6.85
6.87
6.45
5.54
4.21
2.61
0.95
-0.68
-2.23
-3.71
-5.09
-6.22
-6.87
-6.80
-5.90
-4.23
-2.01
0.51
3.11
5.67
8.14
10.39
12.28
13.59
14.20
14.14
13.59
12.83
12.12
11.58
11.20
10.88
10.52
10.05
9.49
8.84
8.07
7.10
5.79
4.06
1.96
-0.38
-2.75
-4.98
-7.00
-8.83
-10.57
-12.26
-13.90
-15.38
-16.58
-17.44
-17.95
-18.18
-18.20
-18.06
-17.73
-17.15
-16.22
-14.83
-12.95
-10.68
-8.17
-5.66
-3.29
-1.12
0.92
2.90
4.75
6.25
7.08
7.06
6.28
5.21
4.53
4.84
6.47
9.35
13.18
17.63
22.52
27.85
33.65
39.82
46.03
51.75
56.37
59.33
60.18
58.66
54.77
48.79
41.33
33.17
25.07
17.57
10.89
5.04
-0.05
-4.32
-7.64
-9.87
-11.05
-11.47
-11.58
-11.88
-12.75
-14.42
-16.98
-20.35
-24.32
-28.44
-32.08
-34.48
-35.04
-33.50
-30.20
-25.98
-21.95
-19.13
-18.10
-18.80
-20.65
-22.77
-24.33
-24.78
-24.00
-22.23
-19.96
-17.70
-15.84
-14.48
-13.55
-12.90
-12.44
-12.17
-12.14
-12.26
