1660928712.00
64.000000
-0.00
-0.00
-0.00
-0.00
-0.00
-0.00
-0.00
-0.00
-0.00
-0.00
0.00
0.01
0.01
-0.00
-0.03
-0.05
-0.05
0.00
0.13
0.36
0.66
1.01
1.37
1.72
2.06
2.40
2.79
3.25
3.81
4.44
5.09
5.73
6.32
6.90
7.53
8.27
9.15
10.25
11.46
12.66
13.75
14.69
15.58
16.60
17.95
19.78
22.27
25.19
28.27
31.23
33.94
36.55
39.40
42.92
47.38
53.10
59.66
66.53
73.18
79.39
85.36
91.67
99.01
107.78
118.33
129.99
141.91
153.33
163.96
174.13
184.70
196.97
209.39
223.81
240.49
259.37
279.45
298.29
312.12
316.66
308.54
286.44
252.09
208.73
160.42
110.64
61.55
14.11
-31.32
-74.45
-114.96
-152.49
-187.69
-221.90
-256.75
-293.24
-330.74
-366.55
-396.30
-415.45
-420.82
-412.09
-391.90
-364.83
-335.56
-307.30
-281.25
-257.05
-233.94
-211.56
-190.35
-171.04
-154.02
-139.00
-125.12
-111.50
-97.67
-83.72
-70.25
-57.98
-47.42
-38.65
-31.29
-24.73
-18.41
-12.05
-5.74
0.13
5.15
9.05
11.93
14.13
16.13
18.24
20.51
22.70
24.46
25.54
25.92
25.76
25.37
25.00
24.77
24.66
24.55
24.33
23.95
23.43
22.86
22.28
21.73
21.18
20.61
20.01
19.38
18.75
18.13
17.53
16.96
16.43
15.92
15.46
15.04
14.67
14.33
14.03
13.73
13.44
13.11
12.74
12.33
11.93
11.58
11.31
11.12
10.95
10.73
10.37
9.89
9.33
8.80
8.37
8.06
7.84
7.68
7.51
7.33
7.16
7.04
7.03
7.14
7.32
7.51
7.56
7.34
6.80
5.99
5.06
4.25
3.72
3.53
3.57
3.64
3.56
3.21
2.65
1.98
1.32
0.74
0.26
-0.14
-0.50
-0.83
-1.13
-1.40
-1.66
-1.97
-2.38
-2.94
-3.65
-4.43
-5.19
-5.85
-6.37
-6.79
-7.17
-7.56
-7.93
-8.21
-8.35
-8.33
-8.19
-8.04
-7.93
-7.84
-7.70
-7.39
-6.86
-6.15
-5.38
-4.68
-4.15
-3.79
-3.54
-3.28
-2.90
-2.36
-1.69
-1.00
-0.43
-0.06
0.11
0.12
0.11
0.20
0.50
1.02
1.73
2.51
3.19
3.63
3.73
3.52
3.11
2.69
2.45
2.49
2.79
3.25
3.70
3.99
4.03
3.85
3.55
3.29
3.21
3.35
3.63
3.90
4.06
4.04
3.89
3.71
3.55
3.42
3.28
3.11
2.95
2.87
2.95
3.18
3.45
3.67
3.72
3.62
3.41
3.21
3.07
3.01
3.02
3.07
3.12
3.16
3.17
3.15
3.10
3.05
2.98
2.91
2.80
2.65
2.48
2.28
2.08
1.84
1.56
1.22
0.85
0.55
0.38
0.41
0.58
0.77
0.82
0.62
0.15
-0.47
-1.07
-1.47
-1.57
-1.39
-1.01
-0.58
-0.20
0.05
0.19
0.30
0.51
0.95
1.73
2.86
4.25
5.71
7.00
7.88
8.23
8.03
7.36
6.39
5.29
4.22
3.31
2.59
2.06
1.66
1.37
1.16
1.09
1.22
1.64
2.34
3.23
4.11
4.77
4.98
4.65
3.84
2.71
1.51
0.41
-0.47
-1.15
-1.70
-2.18
-2.57
-2.82
-2.89
-2.80
-2.60
-2.39
-2.18
-1.90
-1.43
-0.68
0.32
1.37
2.17
2.46
2.15
1.34
0.34
-0.51
-0.96
-0.96
-0.65
-0.26
-0.04
-0.06
-0.27
-0.47
-0.48
-0.22
0.27
0.84
1.33
1.64
1.76
1.74
1.66
1.58
1.52
1.51
1.58
1.72
1.91
2.08
2.14
2.03
1.78
1.50
1.29
1.15
1.05
0.84
0.45
-0.11
-0.73
-1.23
-1.48
-1.44
-1.18
-0.80
-0.39
-0.01
0.33
0.62
0.87
1.04
1.11
1.07
0.94
0.80
0.74
0.79
0.92
1.03
0.98
0.70
0.23
-0.29
-0.66
-0.73
-0.51
-0.11
0.29
0.53
0.57
0.46
0.30
0.21
0.21
0.29
0.38
0.44
0.46
0.48
0.56
0.74
0.98
1.18
1.25
1.15
0.91
0.64
0.43
0.34
0.33
0.33
0.32
0.29
0.30
0.35
0.44
0.52
0.55
0.50
0.39
0.24
0.09
-0.05
-0.16
-0.23
-0.23
-0.16
-0.05
0.05
0.10
0.09
0.05
0.02
0.03
0.06
0.09
0.11
0.13
0.17
0.24
0.29
0.28
0.17
-0.03
-0.26
-0.41
-0.43
-0.31
-0.07
0.24
0.55
0.83
1.04
1.14
1.08
0.88
0.58
0.24
-0.06
-0.28
-0.40
-0.47
-0.51
-0.53
-0.51
-0.43
-0.27
-0.04
0.19
0.36
0.43
0.42
0.38
0.39
0.47
0.58
0.63
0.55
0.32
-0.01
-0.34
-0.58
-0.69
-0.65
-0.46
-0.14
0.27
0.73
1.13
1.39
1.44
1.25
0.85
0.31
-0.26
-0.78
-1.14
-1.27
-1.19
-0.97
-0.74
-0.59
-0.57
-0.64
-0.72
-0.76
-0.75
-0.76
-0.80
-0.86
-0.87
-0.77
-0.56
-0.32
-0.20
-0.29
-0.58
-0.99
-1.36
-1.55
-1.51
-1.19
-0.60
0.17
0.98
1.62
1.86
1.56
0.73
-0.45
-1.69
-2.71
-3.35
-3.61
-3.56
-3.34
-2.99
-2.54
-1.99
-1.41
-0.94
-0.77
-1.03
-1.74
-2.80
-4.02
-5.23
-6.31
-7.24
-8.06
-8.78
-9.44
-10.11
-10.91
-11.95
-13.24
-14.56
-15.49
-15.57
-14.54
-12.55
-10.16
-8.06
-6.79
-6.46
-6.74
-7.07
-7.03
-6.58
-6.05
-5.96
-6.71
-8.36
-10.62
-13.04
-15.06
-16.01
-15.10
-11.57
-5.09
3.81
13.57
22.05
27.28
28.33
25.62
20.58
14.86
9.52
4.81
0.48
-3.69
-7.54
-10.68
-12.92
-14.58
-16.46
-19.45
-24.02
-30.11
-37.20
-44.67
-52.11
-59.48
-66.97
-74.75
-82.83
-90.93
-98.60
-105.32
-110.69
-114.56
-117.20
-119.34
-122.29
-127.66
-136.86
-150.16
-165.95
-180.56
-188.96
-186.27
-169.31
-137.77
-94.35
-43.98
7.63
55.25
95.11
125.21
145.25
156.20
159.90
158.53
154.11
148.23
141.89
135.59
129.54
123.77
118.09
112.20
105.75
98.53
90.66
82.67
75.37
69.55
65.64
63.51
62.48
61.59
60.04
57.46
54.07
50.48
47.37
45.20
43.96
43.35
42.93
42.37
41.62
40.91
40.63
41.23
43.06
46.28
50.84
56.49
62.82
69.45
76.13
82.83
89.74
97.12
105.17
113.86
122.94
131.89
140.11
146.98
152.09
155.46
157.71
160.09
163.96
170.14
177.96
184.95
187.26
180.88
162.96
132.70
91.57
42.80
-9.30
-59.99
-104.65
-139.34
-161.54
-170.95
-169.76
-162.04
-152.46
-144.68
-140.28
-138.71
-138.10
-136.45
-132.44
-125.77
-116.89
-106.67
-96.01
-85.72
-76.32
-68.18
-61.35
-55.63
-50.54
-45.34
-39.23
-31.61
-22.58
-13.27
-5.80
-2.63
-5.37
-13.87
-25.89
-37.88
-46.42
-49.60
-47.65
-42.52
-36.64
-31.78
-28.46
-26.21
-24.27
-22.27
-20.33
-18.89
-18.20
-18.15
-18.24
-17.91
-16.71
-14.62
-12.02
-9.50
-7.60
-6.59
-6.32
-6.38
-6.26
-5.65
-4.59
-3.37
-2.36
-1.82
-1.79
-2.08
-2.46
-2.71
-2.72
-2.51
-2.15
-1.70
-1.25
-0.88
-0.65
-0.61
-0.72
-0.91
-1.08
-1.14
-1.10
-0.97
-0.84
-0.78
-0.82
-0.93
-1.05
-1.09
-1.01
-0.79
-0.48
-0.15
0.13
0.31
0.35
0.24
-0.02
-0.38
-0.77
-1.13
-1.41
-1.61
-1.81
-2.11
-2.58
-3.19
-3.86
-4.41
-4.70
-4.64
-4.20
-3.44
-2.49
-1.48
-0.55
0.18
0.67
0.87
0.82
0.55
0.14
-0.33
-0.76
-1.04
-1.13
-1.07
-0.95
-0.86
-0.89
-1.03
-1.23
-1.38
-1.44
-1.35
-1.09
-0.67
-0.11
0.51
1.07
1.46
1.61
1.55
1.39
1.24
1.16
1.07
0.87
0.43
-0.22
-0.98
-1.65
-2.08
-2.23
-2.14
-1.92
-1.65
-1.33
-0.93
-0.45
0.06
0.47
0.64
0.49
0.06
-0.53
-1.09
-1.43
-1.49
-1.28
-0.91
-0.55
-0.34
-0.37
-0.63
-1.03
-1.40
-1.57
-1.41
-0.88
0.01
1.13
2.29
3.31
4.02
4.31
4.16
3.63
2.83
1.90
1.00
0.22
-0.34
-0.68
-0.84
-0.89
-0.95
-1.10
-1.34
-1.61
-1.82
-1.88
-1.76
-1.48
-1.11
-0.70
-0.29
0.08
0.39
0.63
0.81
0.97
1.18
1.48
1.86
2.26
2.63
2.92
3.12
3.24
3.31
3.30
3.20
3.00
2.69
2.28
1.78
1.21
0.58
-0.09
-0.74
-1.32
-1.82
-2.20
-2.45
-2.53
-2.39
-2.05
-1.58
-1.10
-0.74
-0.57
-0.57
-0.70
-0.87
-1.03
-1.18
-1.35
-1.53
-1.71
-1.84
-1.89
-1.87
-1.78
-1.63
-1.41
-1.07
-0.60
-0.06
0.50
1.00
1.39
1.71
1.97
2.19
2.32
2.30
2.04
1.51
0.77
-0.06
-0.82
-1.34
-1.46
-1.13
-0.41
0.53
1.44
2.11
2.40
2.32
1.99
1.56
1.15
0.79
0.48
0.22
0.04
-0.01
0.10
0.32
0.53
0.60
0.41
-0.06
-0.72
-1.42
-1.97
-2.23
-2.12
-1.65
-0.91
-0.05
0.76
1.36
1.66
1.64
1.34
0.85
0.27
-0.31
-0.78
-1.09
-1.22
-1.19
-1.04
-0.82
-0.60
-0.39
-0.21
-0.08
-0.03
-0.08
-0.19
-0.31
-0.38
-0.36
-0.26
-0.17
-0.19
-0.39
-0.76
-1.24
-1.74
-2.21
-2.61
-2.88
-2.96
-2.77
-2.24
-1.41
-0.46
0.34
0.69
0.39
-0.50
-1.66
-2.59
-2.82
-2.12
-0.62
1.27
2.95
3.95
4.03
3.30
2.05
0.70
-0.42
-1.12
-1.32
-1.01
-0.27
0.80
2.01
3.14
3.94
4.24
3.98
3.22
2.16
1.02
0.06
-0.56
-0.74
-0.51
0.00
0.58
0.97
0.98
0.57
-0.16
-0.94
-1.51
-1.69
-1.45
-0.93
-0.33
0.15
0.41
0.41
0.18
-0.25
-0.82
-1.46
-2.08
-2.54
-2.72
-2.55
-2.03
-1.23
-0.28
0.66
1.42
1.89
2.03
1.87
1.55
1.21
0.97
0.85
0.79
0.66
0.30
-0.32
-1.13
-1.98
-2.73
-3.26
-3.58
-3.72
-3.72
-3.56
-3.17
-2.50
-1.55
-0.38
0.88
2.13
3.26
4.21
4.89
5.19
4.96
4.14
2.85
1.34
-0.03
-0.95
-1.34
-1.29
-1.03
-0.74
-0.47
-0.16
0.27
0.80
1.29
1.54
1.44
1.03
0.50
0.09
-0.05
0.13
0.54
1.02
1.46
1.79
1.98
2.03
1.95
1.76
1.55
1.43
1.51
1.81
2.28
2.74
3.01
2.96
2.57
1.96
1.26
0.61
0.07
-0.37
-0.77
-1.18
-1.60
-2.03
-2.42
-2.73
-2.92
-2.95
-2.78
-2.43
-1.90
-1.28
-0.66
-0.17
0.10
0.08
-0.20
-0.67
-1.23
-1.79
-2.26
-2.57
-2.68
-2.52
-2.12
-1.55
-1.01
-0.67
-0.67
-1.02
-1.58
-2.15
-2.56
-2.72
-2.63
-2.35
-1.92
-1.40
-0.82
-0.24
0.25
0.57
0.68
0.61
0.49
0.43
0.52
0.77
1.14
1.58
2.03
2.45
2.79
3.00
3.02
2.84
2.46
1.97
1.47
1.06
0.79
0.70
0.79
1.00
1.24
1.41
1.43
1.29
1.04
0.80
0.67
0.70
0.87
1.10
1.34
1.53
1.64
1.68
1.64
1.55
1.42
1.27
1.10
0.86
0.50
0.00
-0.58
-1.18
-1.69
-2.06
-2.32
-2.53
-2.74
-2.92
-2.98
-2.78
-2.28
-1.57
-0.84
-0.35
-0.23
-0.48
-0.95
-1.40
-1.67
-1.68
-1.50
-1.25
-1.01
-0.79
-0.57
-0.33
-0.11
0.03
0.02
-0.09
-0.18
-0.10
0.26
0.84
1.49
2.00
2.20
2.05
1.64
1.10
0.51
-0.09
-0.71
-1.31
-1.83
-2.15
-2.20
-1.97
-1.55
-1.10
-0.72
-0.45
-0.29
-0.22
-0.23
-0.34
-0.55
-0.80
-0.94
-0.87
-0.52
0.03
0.67
1.27
1.73
2.06
2.30
2.46
2.53
2.47
2.23
1.85
1.41
1.09
1.02
1.29
1.84
2.54
3.16
3.53
3.57
3.30
2.77
2.05
1.14
0.03
-1.23
-2.48
-3.51
-4.11
-4.17
-3.78
-3.15
-2.51
-2.00
-1.67
-1.47
-1.34
-1.27
-1.27
-1.36
-1.50
-1.65
-1.74
-1.76
-1.77
-1.84
-2.01
-2.22
-2.34
-2.20
-1.73
-0.98
-0.11
0.65
1.12
1.23
1.01
0.62
0.27
0.13
0.31
0.81
1.54
2.33
2.96
3.27
3.16
2.67
1.87
0.90
-0.13
-1.09
-1.86
-2.34
-2.46
-2.20
-1.65
-0.96
-0.33
0.14
0.46
0.70
0.99
1.39
1.87
2.30
2.57
2.61
2.44
2.18
1.95
1.81
1.81
1.90
2.02
2.14
2.23
2.32
2.39
2.45
2.46
2.39
2.23
1.96
1.62
1.20
0.71
0.16
-0.41
-0.97
-1.46
-1.84
-2.06
-2.14
-2.09
-1.96
-1.78
-1.62
-1.53
-1.55
-1.71
-2.01
-2.42
-2.88
-3.31
-3.64
-3.82
-3.85
-3.71
-3.43
-3.00
-2.44
-1.79
-1.15
-0.64
-0.34
-0.26
-0.28
-0.23
0.07
0.73
1.70
2.83
3.93
4.82
5.32
5.32
4.76
3.70
2.29
0.79
-0.53
-1.49
-2.00
-2.13
-1.99
-1.71
-1.38
-1.07
-0.89
-0.92
-1.23
-1.78
-2.41
-2.91
-3.11
-2.94
-2.44
-1.75
-1.00
-0.33
0.22
0.64
0.94
1.13
1.21
1.20
1.09
0.93
0.73
0.57
0.51
0.60
0.90
1.40
2.08
2.86
3.63
4.22
4.47
4.26
3.58
2.51
1.25
0.02
-1.01
-1.71
-2.07
-2.10
-1.89
-1.52
-1.09
-0.71
-0.44
-0.34
-0.40
-0.60
-0.91
-1.27
-1.65
-2.02
-2.34
-2.59
-2.79
-2.92
-2.99
-2.99
-2.89
-2.66
-2.25
-1.68
-0.96
-0.18
0.56
1.17
1.63
1.99
2.34
2.78
3.31
3.82
4.15
4.13
3.74
3.05
2.22
1.39
0.66
0.03
-0.52
-0.95
-1.18
-1.12
-0.72
-0.07
0.65
1.20
1.45
1.33
0.95
0.43
-0.12
-0.61
-1.00
-1.27
-1.38
-1.34
-1.18
-0.98
-0.85
-0.84
-0.91
-0.93
-0.81
-0.51
-0.07
0.40
0.81
1.12
1.37
1.58
1.76
1.85
1.81
1.62
1.32
1.02
0.76
0.55
0.31
-0.02
-0.46
-0.95
-1.39
-1.65
-1.72
-1.63
-1.50
-1.40
-1.37
-1.38
-1.36
-1.28
-1.14
-0.98
-0.88
-0.89
-1.03
-1.30
-1.66
-2.03
-2.36
-2.57
-2.62
-2.46
-2.11
-1.61
-1.03
-0.42
0.15
0.63
1.01
1.28
1.47
1.64
1.84
2.11
2.42
2.67
2.76
2.57
2.07
1.35
0.61
0.07
-0.12
0.08
0.56
1.17
1.74
2.16
2.40
2.47
2.39
2.15
1.74
1.21
0.61
0.05
-0.40
-0.67
-0.76
-0.71
-0.58
-0.42
-0.30
-0.27
-0.36
-0.52
-0.68
-0.79
-0.78
-0.67
-0.50
-0.33
-0.16
0.01
0.23
0.50
0.77
0.96
0.95
0.70
0.24
-0.32
-0.86
-1.26
-1.50
-1.59
-1.58
-1.50
-1.34
-1.07
-0.68
-0.22
0.19
0.42
0.36
0.03
-0.46
-0.91
-1.19
-1.24
-1.13
-1.02
-1.06
-1.33
-1.79
-2.30
-2.66
-2.71
-2.38
-1.73
-0.90
-0.06
0.66
1.19
1.50
1.63
1.61
1.54
1.54
1.72
2.15
2.77
3.37
3.67
3.46
2.71
1.57
0.34
-0.66
-1.28
-1.49
-1.41
-1.18
-0.91
-0.61
-0.27
0.15
0.60
1.01
1.30
1.38
1.23
0.88
0.42
-0.04
-0.42
-0.68
-0.84
-0.99
-1.19
-1.46
-1.79
-2.10
-2.32
-2.40
-2.32
-2.05
-1.57
-0.87
0.00
0.93
1.77
2.38
2.72
2.80
2.71
2.55
2.38
2.21
1.99
1.69
1.30
0.83
0.36
-0.05
-0.37
-0.56
-0.66
-0.67
-0.63
-0.54
-0.43
-0.30
-0.22
-0.21
-0.32
-0.53
-0.80
-1.05
-1.24
-1.36
-1.44
-1.57
-1.79
-2.08
-2.36
-2.49
-2.38
-2.03
-1.52
-1.02
-0.66
-0.50
-0.49
-0.56
-0.63
-0.65
-0.54
-0.25
0.25
0.91
1.57
1.99
1.97
1.43
0.52
-0.47
-1.24
-1.57
-1.42
-0.95
-0.33
0.25
0.72
1.12
1.48
1.85
2.21
2.51
2.70
2.76
2.66
2.43
2.10
1.69
1.26
0.85
0.51
0.28
0.15
0.09
0.08
0.07
0.10
0.18
0.36
0.64
0.98
1.32
1.62
1.85
1.98
1.98
1.81
1.43
0.83
0.03
-0.87
-1.75
-2.46
-2.89
-2.97
-2.72
-2.24
-1.67
-1.16
-0.81
-0.65
-0.67
-0.81
-1.01
-1.21
-1.39
-1.53
-1.62
-1.67
-1.72
-1.76
-1.78
-1.73
-1.54
-1.22
-0.81
-0.43
-0.18
-0.11
-0.16
-0.16
0.06
0.60
1.40
2.27
2.93
3.16
2.88
2.17
1.20
0.19
-0.69
-1.31
-1.64
-1.68
-1.48
-1.13
-0.74
-0.38
-0.10
0.10
0.22
0.24
0.16
-0.02
-0.25
-0.44
-0.50
-0.39
-0.17
0.05
0.20
0.27
0.34
0.50
0.79
1.14
1.44
1.58
1.56
1.47
1.41
1.50
1.72
2.00
2.21
2.27
2.15
1.89
1.50
0.99
0.38
-0.31
-0.98
-1.50
-1.75
-1.66
-1.28
-0.75
-0.27
0.01
0.01
-0.26
-0.73
-1.27
-1.76
-2.12
-2.26
-2.19
-1.98
-1.75
-1.66
-1.78
-2.07
-2.40
-2.56
-2.43
-1.96
-1.26
-0.50
0.14
0.53
0.65
0.55
0.35
0.25
0.44
1.09
2.20
3.63
5.05
6.06
6.34
5.76
4.41
2.59
0.68
-0.98
-2.19
-2.89
-3.12
-2.98
-2.59
-2.07
-1.54
-1.08
-0.74
-0.58
-0.58
-0.76
-1.07
-1.44
-1.76
-1.90
-1.76
-1.31
-0.64
0.13
0.85
1.44
1.86
2.15
2.33
2.40
2.37
2.25
2.08
1.95
1.90
1.99
2.18
2.43
2.66
2.76
2.65
2.24
1.52
0.58
-0.43
-1.29
-1.85
-2.04
-1.92
-1.64
-1.37
-1.20
-1.13
-1.09
-1.03
-0.91
-0.79
-0.72
-0.72
-0.77
-0.87
-1.01
-1.25
-1.64
-2.20
-2.85
-3.48
-3.94
-4.14
-4.03
-3.65
-3.02
-2.20
-1.25
-0.26
0.62
1.24
1.55
1.59
1.53
1.64
2.10
2.95
4.03
5.02
5.60
5.57
4.90
3.77
2.41
1.04
-0.22
-1.30
-2.17
-2.79
-3.10
-3.09
-2.81
-2.38
-1.99
-1.76
-1.76
-1.96
-2.23
-2.43
-2.44
-2.18
-1.67
-0.97
-0.19
0.60
1.30
1.88
2.28
2.50
2.52
2.35
2.03
1.63
1.23
0.94
0.83
0.97
1.33
1.84
2.32
2.63
2.65
2.40
1.95
1.41
0.84
0.26
-0.31
-0.85
-1.26
-1.44
-1.35
-1.05
-0.69
-0.45
-0.45
-0.69
-1.06
-1.43
-1.69
-1.78
-1.76
-1.70
-1.67
-1.71
-1.80
-1.87
-1.90
-1.86
-1.81
-1.78
-1.81
-1.85
-1.84
-1.69
-1.39
-0.99
-0.55
-0.09
0.45
1.18
2.18
3.40
4.61
5.50
5.79
5.38
4.36
3.00
1.61
0.42
-0.48
-1.12
-1.53
-1.70
-1.57
-1.08
-0.30
0.57
1.26
1.50
1.21
0.53
-0.25
-0.83
-1.07
-0.98
-0.72
-0.47
-0.35
-0.33
-0.32
-0.20
0.06
0.43
0.79
1.02
1.00
0.74
0.30
-0.13
-0.40
-0.40
-0.13
0.33
0.81
1.18
1.38
1.40
1.28
1.04
0.71
0.30
-0.16
-0.62
-0.99
-1.21
-1.23
-1.11
-0.92
-0.75
-0.66
-0.68
-0.80
-0.95
-1.08
-1.13
-1.06
-0.90
-0.69
-0.52
-0.49
-0.71
-1.21
-1.96
-2.84
-3.64
-4.16
-4.23
-3.80
-2.96
-1.86
-0.70
0.35
1.20
1.78
2.09
2.14
2.02
1.87
1.84
1.98
2.23
2.41
2.33
1.86
1.07
0.14
-0.69
-1.22
-1.35
-1.12
-0.61
0.03
0.66
1.13
1.34
1.26
0.96
0.57
0.25
0.11
0.17
0.39
0.68
0.96
1.19
1.34
1.40
1.37
1.25
1.06
0.82
0.57
0.35
0.15
-0.01
-0.15
-0.23
-0.25
-0.17
0.02
0.30
0.62
0.92
1.10
1.12
0.97
0.68
0.31
-0.06
-0.39
-0.66
-0.85
-0.99
-1.11
-1.21
-1.32
-1.41
-1.49
-1.54
-1.56
-1.53
-1.47
-1.35
-1.18
-0.96
-0.74
-0.60
-0.60
-0.78
-1.09
-1.47
-1.80
-2.02
-2.08
-1.99
-1.74
-1.34
-0.84
-0.35
0.03
0.19
0.14
-0.03
-0.17
-0.12
0.20
0.75
1.42
2.04
2.47
2.61
2.43
1.95
1.26
0.52
-0.08
-0.39
-0.29
0.22
1.07
2.11
3.13
3.89
4.19
3.94
3.14
1.92
0.52
-0.81
-1.89
-2.61
-2.99
-3.15
-3.21
-3.26
-3.34
-3.39
-3.34
-3.14
-2.78
-2.28
-1.72
-1.15
-0.64
-0.17
0.27
0.74
1.28
1.91
2.62
3.31
3.88
4.19
4.20
3.92
3.43
2.83
2.20
1.58
0.97
0.43
0.02
-0.18
-0.12
0.14
0.45
0.63
0.56
0.26
-0.16
-0.51
-0.68
-0.63
-0.47
-0.35
-0.40
-0.67
-1.12
-1.68
-2.27
-2.84
-3.37
-3.81
-4.11
-4.21
-4.10
-3.81
-3.44
-3.13
-2.96
-2.90
-2.86
-2.69
-2.26
-1.57
-0.73
0.08
0.68
1.00
1.06
0.98
0.93
1.01
1.26
1.67
2.15
2.66
3.12
3.50
3.75
3.84
3.75
3.52
3.19
2.85
2.56
2.33
2.16
2.01
1.89
1.79
1.73
1.69
1.63
1.52
1.36
1.22
1.16
1.22
1.36
1.48
1.47
1.30
1.06
0.90
0.95
1.24
1.63
1.94
1.96
1.61
0.90
-0.04
-1.05
-2.01
-2.79
-3.32
-3.53
-3.42
-3.06
-2.56
-2.05
-1.67
-1.45
-1.39
-1.45
-1.55
-1.61
-1.57
-1.42
-1.21
-1.01
-0.94
-1.06
-1.36
-1.72
-2.00
-2.07
-1.87
-1.46
-0.93
-0.42
-0.04
0.19
0.31
0.41
0.60
0.95
1.39
1.79
1.98
1.79
1.17
0.21
-0.91
-1.97
-2.80
-3.28
-3.40
-3.17
-2.66
-1.93
-1.08
-0.20
0.57
1.08
1.26
1.09
0.67
0.17
-0.19
-0.26
-0.03
0.42
0.92
1.30
1.48
1.47
1.33
1.19
1.12
1.17
1.30
1.45
1.55
1.54
1.45
1.37
1.42
1.68
2.14
2.71
3.26
3.67
3.88
3.87
3.63
3.16
2.41
1.40
0.18
-1.06
-2.08
-2.68
-2.75
-2.37
-1.76
-1.23
-1.03
-1.23
-1.76
-2.39
-2.90
-3.17
-3.22
-3.17
-3.15
-3.24
-3.35
-3.33
-3.04
-2.39
-1.45
-0.38
0.59
1.27
1.57
1.49
1.13
0.66
0.24
0.07
0.25
0.82
1.71
2.73
3.67
4.25
4.23
3.49
2.06
0.14
-1.92
-3.66
-4.75
-4.99
-4.41
-3.23
-1.79
-0.42
0.65
1.31
1.54
1.41
1.01
0.44
-0.18
-0.71
-1.05
-1.12
-0.92
-0.52
-0.06
0.33
0.59
0.73
0.82
0.91
1.04
1.18
1.31
1.39
1.46
1.61
1.88
2.27
2.70
3.04
3.17
3.03
2.60
1.91
1.04
0.07
-0.87
-1.68
-2.25
-2.54
-2.54
-2.30
-1.92
-1.49
-1.11
-0.86
-0.76
-0.85
-1.07
-1.36
-1.61
-1.74
-1.76
-1.73
-1.74
-1.90
-2.23
-2.65
-3.01
-3.16
-2.99
-2.50
-1.79
-0.99
-0.22
0.42
0.91
1.27
1.57
1.88
2.27
2.77
3.34
3.87
4.23
4.30
4.00
3.38
2.52
1.55
0.58
-0.29
-1.00
-1.48
-1.65
-1.52
-1.12
-0.60
-0.17
0.00
-0.15
-0.53
-0.94
-1.19
-1.17
-0.94
-0.63
-0.38
-0.28
-0.30
-0.37
-0.43
-0.45
-0.44
-0.45
-0.47
-0.44
-0.32
-0.04
0.44
1.07
1.79
2.48
3.00
3.24
3.11
2.63
1.88
0.99
0.11
-0.66
-1.22
-1.57
-1.72
-1.73
-1.65
-1.53
-1.39
-1.28
-1.19
-1.12
-1.05
-0.95
-0.79
-0.60
-0.45
-0.44
-0.65
-1.09
-1.64
-2.15
-2.44
-2.45
-2.24
-1.92
-1.58
-1.24
-0.83
-0.25
0.53
1.53
2.69
3.91
5.07
6.00
6.50
6.40
5.59
4.18
2.43
0.71
-0.66
-1.53
-1.95
-2.07
-2.06
-1.93
-1.65
-1.14
-0.42
0.38
1.03
1.31
1.13
0.54
-0.24
-0.90
-1.23
-1.12
-0.67
-0.07
0.45
0.73
0.75
0.57
0.32
0.13
0.04
0.05
0.11
0.17
0.18
0.18
0.19
0.26
0.40
0.62
0.88
1.15
1.38
1.54
1.56
1.40
1.02
0.44
-0.28
-1.03
-1.67
-2.09
-2.28
-2.27
-2.17
-2.08
-2.04
-2.03
-1.95
-1.73
-1.33
-0.80
-0.26
0.18
0.39
0.34
0.03
-0.46
-1.04
-1.60
-2.01
-2.18
-2.09
-1.82
-1.49
-1.25
-1.18
-1.31
-1.59
-1.97
-2.34
-2.61
-2.63
-2.32
-1.67
-0.82
0.01
0.57
0.76
0.65
0.45
0.37
0.57
1.05
1.76
2.60
3.49
4.34
5.01
5.31
5.14
4.51
3.60
2.67
1.92
1.43
1.13
0.92
0.73
0.63
0.68
0.90
1.19
1.39
1.38
1.15
0.83
0.57
0.45
0.45
0.49
0.49
0.45
0.43
0.49
0.64
0.84
1.02
1.12
1.11
0.99
0.72
0.28
-0.33
-1.07
-1.85
-2.53
-2.97
-3.10
-2.91
-2.51
-2.01
-1.55
-1.26
-1.16
-1.23
-1.39
-1.54
-1.64
-1.69
-1.73
-1.75
-1.70
-1.53
-1.23
-0.87
-0.59
-0.50
-0.66
-0.97
-1.28
-1.42
-1.27
-0.85
-0.27
0.31
0.72
0.85
0.68
0.28
-0.23
-0.70
-0.99
-1.04
-0.86
-0.53
-0.20
0.06
0.23
0.35
0.50
0.74
1.05
1.36
1.58
1.65
1.58
1.44
1.29
1.17
1.07
0.97
0.85
0.71
0.59
0.50
0.43
0.36
0.31
0.28
0.29
0.32
0.31
0.18
-0.09
-0.49
-0.89
-1.14
-1.16
-0.93
-0.54
-0.15
0.14
0.23
0.15
-0.09
-0.40
-0.69
-0.84
-0.79
-0.51
-0.10
0.31
0.54
0.52
0.24
-0.20
-0.67
-1.06
-1.30
-1.32
-1.10
-0.64
0.02
0.82
1.66
2.45
3.04
3.32
3.15
2.47
1.32
-0.14
-1.59
-2.74
-3.37
-3.44
-3.09
-2.58
-2.13
-1.86
-1.76
-1.68
-1.45
-0.87
0.15
1.54
3.11
4.47
5.20
4.98
3.78
1.96
0.20
-0.71
-0.29
1.45
3.88
6.03
6.91
5.95
3.18
-0.77
-4.98
-8.53
-10.69
-11.08
-9.68
-6.85
-3.25
0.32
3.06
4.49
4.54
3.58
2.15
0.78
-0.24
-0.86
-1.17
-1.25
-1.09
-0.66
0.01
0.75
1.33
1.58
1.43
0.99
0.43
-0.11
-0.58
-1.01
-1.49
-2.05
-2.66
-3.22
-3.61
-3.76
-3.68
-3.39
-2.95
-2.38
-1.69
-0.90
-0.13
0.51
0.88
0.92
0.66
0.21
-0.33
-0.90
-1.47
-2.08
-2.76
-3.52
-4.34
-5.20
-6.07
-6.94
-7.80
-8.60
-9.29
-9.84
-10.30
-10.78
-11.47
-12.54
-14.03
-15.82
-17.61
-19.11
-20.06
-20.43
-20.45
-20.55
-21.33
-23.42
-27.17
-32.40
-38.30
-43.61
-47.11
-48.35
-47.99
-47.68
-49.31
-54.07
-61.78
-70.96
-79.64
-86.31
-90.71
-93.85
-97.41
-102.92
-111.27
-122.60
-136.52
-152.09
-167.71
-180.89
-188.37
-186.85
-174.00
-149.32
-114.25
-71.49
-23.77
27.22
80.97
137.33
195.32
252.25
303.98
346.28
376.41
394.23
402.08
403.66
402.37
400.12
396.77
390.70
379.76
362.33
337.83
306.74
270.12
228.99
183.87
134.65
81.16
24.02
-34.34
-89.60
-136.43
-170.29
-189.16
-194.37
-189.96
-180.86
-171.00
-162.11
-153.97
-145.50
-136.06
-126.11
-116.88
-109.50
-104.24
-100.28
-96.21
-90.83
-83.74
-75.46
-67.13
-59.90
-54.47
-50.86
-48.54
-46.70
-44.59
-41.79
-38.25
-34.27
-30.30
-26.73
-23.79
-21.45
-19.44
-17.45
-15.23
-12.75
-10.19
-7.86
-6.04
-4.82
-4.12
-3.72
-3.38
-2.93
-2.35
-1.71
-1.06
-0.44
0.17
0.79
1.37
1.80
2.00
1.92
1.62
1.25
0.95
0.81
0.82
0.87
0.84
0.65
0.29
-0.19
-0.68
-1.11
-1.39
-1.52
-1.54
-1.52
-1.52
-1.53
-1.54
-1.52
-1.49
-1.54
-1.74
-2.10
-2.53
-2.84
-2.89
-2.63
-2.16
-1.66
-1.29
-1.05
-0.82
-0.47
0.04
0.63
1.11
1.28
1.12
0.74
0.31
-0.02
-0.20
-0.28
-0.35
-0.48
-0.65
-0.79
-0.82
-0.72
-0.51
-0.29
-0.15
-0.15
-0.31
-0.55
-0.78
-0.88
-0.78
-0.49
-0.12
0.15
0.17
-0.13
-0.70
-1.34
-1.84
-2.02
-1.83
-1.33
-0.70
-0.11
0.29
0.45
0.41
0.24
0.02
-0.20
-0.43
-0.66
-0.87
-1.02
-1.07
-0.99
-0.81
-0.60
-0.44
-0.35
-0.29
-0.15
0.17
0.73
1.48
2.34
3.21
3.99
4.61
4.97
5.00
4.61
3.80
2.63
1.23
-0.21
-1.52
-2.57
-3.24
-3.47
-3.25
-2.64
-1.77
-0.81
0.07
0.73
1.10
1.13
0.87
0.38
-0.24
-0.84
-1.29
-1.50
-1.47
-1.28
-1.04
-0.83
-0.68
-0.59
-0.53
-0.50
-0.49
-0.48
-0.44
-0.35
-0.19
-0.00
0.16
0.25
0.27
0.22
0.17
0.20
0.37
0.72
1.21
1.74
2.17
2.36
2.31
2.07
1.79
1.60
1.55
1.58
1.59
1.49
1.28
0.98
0.66
0.36
0.09
-0.11
-0.21
-0.18
-0.02
0.16
0.20
-0.01
-0.49
-1.14
-1.77
-2.23
-2.46
-2.47
-2.30
-1.98
-1.49
-0.90
-0.29
0.17
0.37
0.26
-0.08
-0.50
-0.87
-1.15
-1.38
-1.59
-1.81
-1.98
-2.09
-2.13
-2.16
-2.22
-2.31
-2.39
-2.35
-2.13
-1.77
-1.34
-0.94
-0.64
-0.43
-0.27
-0.09
0.09
0.24
0.30
0.23
0.04
