1660334209.00
64.000000
-0.00
-0.00
-0.00
-0.00
-0.00
-0.00
-0.00
-0.00
-0.00
-0.00
0.00
0.01
0.01
-0.00
-0.03
-0.05
-0.05
0.00
0.13
0.36
0.66
1.01
1.37
1.72
2.06
2.40
2.79
3.24
3.80
4.42
5.06
5.67
6.20
6.69
7.15
7.68
8.31
9.14
10.08
11.04
11.91
12.62
13.20
13.80
14.60
15.75
17.49
19.66
22.05
24.39
26.52
28.48
30.54
33.10
36.46
40.99
46.40
52.21
57.88
63.03
67.68
72.20
77.22
83.23
90.81
99.56
108.82
117.77
125.83
132.87
139.28
146.19
152.22
159.75
169.66
182.40
196.97
210.43
218.12
214.93
197.04
163.40
116.63
61.12
1.86
-57.48
-115.37
-172.07
-228.52
-285.15
-341.41
-395.52
-445.74
-490.42
-528.32
-558.46
-579.91
-591.73
-593.07
-583.72
-564.09
-535.44
-498.88
-454.62
-401.72
-338.70
-264.94
-182.03
-94.30
-7.86
70.93
137.46
189.81
228.56
255.67
273.30
283.15
286.44
284.40
278.45
270.15
260.84
251.18
241.12
230.06
217.38
202.91
187.12
170.96
155.54
141.64
129.46
118.68
108.63
98.68
88.47
78.01
67.62
57.81
49.11
41.87
36.20
31.80
28.15
24.61
20.77
16.40
11.62
6.79
2.32
-1.48
-4.54
-6.96
-8.93
-10.54
-11.76
-12.40
-12.28
-11.38
-9.85
-8.08
-6.47
-5.36
-4.88
-4.96
-5.42
-6.03
-6.60
-7.03
-7.24
-7.21
-6.98
-6.68
-6.44
-6.39
-6.53
-6.69
-6.66
-6.21
-5.19
-3.65
-1.76
0.20
1.89
3.05
3.47
3.12
2.09
0.56
-1.19
-2.92
-4.41
-5.49
-6.08
-6.12
-5.64
-4.75
-3.61
-2.41
-1.36
-0.57
-0.11
0.05
-0.04
-0.29
-0.60
-0.93
-1.24
-1.50
-1.70
-1.81
-1.84
-1.79
-1.71
-1.66
-1.64
-1.63
-1.51
-1.15
-0.38
0.87
2.56
4.51
6.37
7.76
8.40
8.16
7.18
5.76
4.26
2.96
1.99
1.36
1.00
0.83
0.82
0.91
1.05
1.20
1.22
0.98
0.40
-0.57
-1.86
-3.33
-4.77
-5.94
-6.68
-6.97
-6.85
-6.51
-6.11
-5.80
-5.63
-5.60
-5.66
-5.65
-5.39
-4.69
-3.44
-1.71
0.22
1.96
3.13
3.53
3.20
2.38
1.39
0.42
-0.46
-1.30
-2.14
-2.95
-3.60
-3.93
-3.89
-3.50
-2.90
-2.19
-1.45
-0.72
-0.02
0.57
0.99
1.16
1.11
0.91
0.69
0.50
0.33
0.13
-0.18
-0.61
-1.13
-1.65
-2.07
-2.23
-1.97
-1.13
0.37
2.45
4.89
7.27
9.08
9.92
9.62
8.31
6.26
3.82
1.24
-1.30
-3.73
-5.94
-7.77
-9.03
-9.63
-9.59
-9.12
-8.49
-7.95
-7.62
-7.45
-7.29
-7.01
-6.62
-6.24
-6.07
-6.19
-6.58
-7.05
-7.40
-7.48
-7.25
-6.73
-5.92
-4.72
-2.95
-0.46
2.73
6.36
9.92
12.85
14.72
15.32
14.75
13.29
11.27
8.99
6.75
4.80
3.42
2.84
3.12
4.10
5.38
6.51
7.09
6.97
6.22
5.09
3.84
2.66
1.57
0.53
-0.58
-1.83
-3.23
-4.72
-6.20
-7.58
-8.80
-9.79
-10.47
-10.66
-10.09
-8.55
-5.93
-2.43
1.52
5.27
8.26
10.09
10.70
10.28
9.15
7.64
5.97
4.26
2.60
1.07
-0.21
-1.15
-1.67
-1.79
-1.56
-1.14
-0.67
-0.30
-0.17
-0.33
-0.77
-1.45
-2.25
-3.04
-3.74
-4.31
-4.81
-5.39
-6.20
-7.28
-8.51
-9.57
-10.01
-9.48
-7.78
-5.02
-1.57
2.09
5.48
8.19
9.98
10.74
10.51
9.42
7.68
5.53
3.23
1.03
-0.86
-2.25
-3.05
-3.23
-2.88
-2.19
-1.43
-0.82
-0.51
-0.57
-0.92
-1.41
-1.88
-2.21
-2.38
-2.48
-2.68
-3.16
-4.06
-5.36
-6.91
-8.38
-9.32
-9.26
-7.92
-5.30
-1.70
2.29
6.04
9.03
10.96
11.80
11.69
10.80
9.29
7.32
5.07
2.81
0.87
-0.47
-1.03
-0.86
-0.19
0.65
1.35
1.66
1.55
1.06
0.31
-0.55
-1.44
-2.29
-3.11
-3.93
-4.83
-5.88
-7.10
-8.47
-9.80
-10.83
-11.20
-10.58
-8.80
-5.90
-2.24
1.65
5.16
7.83
9.45
10.05
9.81
8.94
7.58
5.82
3.73
1.52
-0.55
-2.16
-3.11
-3.36
-3.07
-2.51
-1.96
-1.64
-1.66
-2.07
-2.81
-3.80
-4.93
-6.06
-7.07
-7.93
-8.70
-9.48
-10.39
-11.47
-12.57
-13.42
-13.62
-12.78
-10.63
-7.14
-2.55
2.70
7.98
12.69
16.31
18.53
19.31
18.79
17.29
15.16
12.76
10.41
8.35
6.77
5.74
5.23
5.11
5.19
5.26
5.17
4.84
4.28
3.56
2.76
1.94
1.10
0.23
-0.68
-1.64
-2.61
-3.56
-4.51
-5.55
-6.76
-8.08
-9.21
-9.68
-8.99
-6.87
-3.45
0.75
4.97
8.50
10.90
12.03
12.02
11.10
9.47
7.35
4.93
2.48
0.31
-1.30
-2.17
-2.27
-1.77
-0.97
-0.21
0.24
0.25
-0.07
-0.55
-0.98
-1.27
-1.47
-1.74
-2.23
-2.99
-3.97
-5.08
-6.23
-7.41
-8.56
-9.55
-10.08
-9.78
-8.31
-5.59
-1.89
2.22
6.08
9.11
11.02
11.79
11.58
10.65
9.23
7.50
5.58
3.62
1.79
0.25
-0.84
-1.40
-1.45
-1.15
-0.70
-0.32
-0.15
-0.24
-0.55
-1.03
-1.64
-2.35
-3.11
-3.86
-4.55
-5.19
-5.91
-6.89
-8.24
-9.87
-11.39
-12.21
-11.76
-9.76
-6.33
-2.00
2.46
6.33
9.12
10.63
10.94
10.25
8.78
6.76
4.43
2.05
-0.05
-1.60
-2.41
-2.45
-1.83
-0.81
0.34
1.35
2.04
2.28
2.10
1.59
0.91
0.21
-0.45
-1.08
-1.79
-2.68
-3.81
-5.17
-6.67
-8.17
-9.47
-10.32
-10.40
-9.39
-7.12
-3.62
0.76
5.44
9.74
13.08
15.10
15.73
15.15
13.63
11.47
8.95
6.31
3.81
1.69
0.19
-0.59
-0.67
-0.24
0.40
0.98
1.31
1.31
1.06
0.67
0.21
-0.27
-0.82
-1.48
-2.26
-3.14
-4.06
-5.00
-5.98
-7.08
-8.31
-9.58
-10.58
-10.87
-10.02
-7.80
-4.35
-0.18
3.99
7.49
9.86
10.96
10.93
10.02
8.46
6.46
4.22
1.91
-0.23
-1.99
-3.22
-3.83
-3.82
-3.27
-2.33
-1.24
-0.28
0.28
0.32
-0.15
-0.97
-1.92
-2.81
-3.60
-4.29
-4.95
-5.64
-6.43
-7.37
-8.49
-9.72
-10.80
-11.25
-10.57
-8.41
-4.76
-0.06
4.97
9.53
12.99
15.01
15.54
14.74
12.87
10.24
7.18
4.12
1.46
-0.43
-1.38
-1.41
-0.77
0.17
1.06
1.67
1.92
1.85
1.53
1.04
0.39
-0.39
-1.24
-2.06
-2.76
-3.32
-3.84
-4.52
-5.52
-6.87
-8.34
-9.50
-9.80
-8.83
-6.45
-2.87
1.37
5.58
9.11
11.53
12.67
12.59
11.50
9.63
7.23
4.53
1.78
-0.72
-2.72
-4.00
-4.47
-4.21
-3.41
-2.36
-1.36
-0.63
-0.30
-0.34
-0.64
-1.02
-1.31
-1.42
-1.36
-1.26
-1.28
-1.63
-2.48
-3.88
-5.72
-7.68
-9.23
-9.78
-8.87
-6.31
-2.39
2.26
6.81
10.46
12.74
13.60
13.26
12.10
10.43
8.43
6.17
3.75
1.38
-0.67
-2.09
-2.70
-2.53
-1.80
-0.85
-0.00
0.52
0.62
0.36
-0.18
-0.87
-1.60
-2.28
-2.86
-3.38
-3.92
-4.59
-5.54
-6.79
-8.28
-9.74
-10.78
-11.00
-10.05
-7.83
-4.47
-0.38
3.90
7.78
10.77
12.57
13.07
12.34
10.60
8.15
5.32
2.49
-0.02
-1.90
-2.98
-3.23
-2.76
-1.80
-0.65
0.41
1.14
1.41
1.20
0.56
-0.37
-1.45
-2.54
-3.54
-4.39
-5.14
-5.84
-6.62
-7.53
-8.55
-9.47
-9.93
-9.52
-7.89
-4.96
-0.98
3.50
7.81
11.36
13.77
14.93
14.89
13.83
11.94
9.47
6.69
3.94
1.60
-0.09
-1.00
-1.21
-0.98
-0.62
-0.43
-0.59
-1.09
-1.84
-2.63
-3.27
-3.67
-3.81
-3.76
-3.65
-3.65
-3.96
-4.71
-5.97
-7.61
-9.29
-10.49
-10.67
-9.41
-6.66
-2.72
1.80
6.21
9.90
12.47
13.78
13.85
12.79
10.85
8.32
5.59
3.06
1.03
-0.36
-1.18
-1.61
-1.89
-2.23
-2.75
-3.51
-4.49
-5.62
-6.80
-7.89
-8.71
-9.11
-8.95
-8.21
-6.93
-5.28
-3.55
-2.04
-1.07
-0.79
-1.15
-1.85
-2.48
-2.67
-2.23
-1.21
0.19
1.69
3.06
4.17
4.93
5.25
5.01
4.04
2.27
-0.20
-3.04
-5.76
-7.79
-8.75
-8.57
-7.51
-6.10
-4.90
-4.26
-4.23
-4.58
-4.93
-4.92
-4.32
-3.11
-1.48
0.19
1.35
1.46
0.20
-2.36
-5.57
-8.39
-9.64
-8.54
-4.95
0.56
6.96
13.18
18.48
22.57
25.55
27.70
29.15
29.79
29.33
27.51
24.38
20.41
16.43
13.31
11.66
11.59
12.73
14.45
16.17
17.50
18.31
18.57
18.20
17.06
15.03
12.18
8.73
5.05
1.47
-1.83
-4.77
-7.35
-9.48
-11.03
-11.90
-11.99
-11.31
-9.93
-8.02
-5.77
-3.46
-1.38
0.14
0.75
0.23
-1.52
-4.38
-8.13
-12.43
-16.80
-20.62
-23.36
-24.78
-24.97
-24.39
-23.57
-23.05
-23.10
-23.74
-24.74
-25.87
-27.03
-28.18
-29.33
-29.29
-27.08
-22.62
-16.98
-11.53
-7.06
-3.83
-1.04
1.98
5.45
9.18
12.78
15.77
17.93
19.30
20.09
20.63
21.17
21.30
20.79
19.52
17.57
15.20
12.74
10.50
8.70
7.28
5.99
4.56
2.79
0.79
-0.90
-1.79
-1.59
-0.38
1.40
3.19
4.60
5.43
5.45
4.80
3.78
2.75
2.08
2.00
2.47
3.13
3.27
2.13
-0.64
-4.88
-9.81
-14.31
-17.34
-18.34
-17.37
-14.98
-11.83
-8.39
-4.45
0.19
5.51
11.07
16.02
19.42
20.69
19.57
16.92
13.89
11.30
9.46
8.11
6.73
4.87
2.33
-0.77
-4.16
-7.50
-10.57
-13.11
-14.80
-15.38
-14.69
-12.77
-9.91
-6.57
-3.37
-0.93
0.35
0.38
-0.66
-2.37
-4.32
-6.16
-7.66
-8.71
-9.33
-9.56
-9.47
-9.14
-8.71
-8.27
-7.86
-7.44
-6.93
-6.28
-5.44
-4.46
-3.35
-2.21
-1.12
-0.18
0.57
1.08
1.34
1.38
1.29
1.24
1.44
2.06
3.13
4.52
5.91
6.94
7.30
6.91
5.92
4.61
3.28
2.15
1.34
0.81
0.50
0.37
0.37
0.49
0.67
0.80
0.82
0.67
0.31
-0.24
-0.98
-1.88
-2.89
-3.98
-5.08
-6.02
-6.70
-7.08
-7.22
-7.24
-7.24
-7.31
-7.39
-7.34
-6.82
-5.50
-3.15
0.25
4.43
8.89
13.01
16.34
18.04
17.87
16.09
13.23
9.91
6.57
3.42
0.50
-2.24
-4.82
-7.14
-9.15
-10.85
-12.27
-13.45
-14.37
-15.02
-15.48
-15.97
-16.71
-17.86
-19.40
-21.03
-22.35
-23.02
-22.97
-22.42
-21.74
-21.18
-20.70
-20.02
-18.73
-16.51
-13.26
-9.07
-4.13
1.46
7.76
14.80
22.38
29.93
36.57
41.35
43.59
43.15
40.50
36.45
31.93
27.60
23.77
20.38
17.21
13.99
10.56
6.87
2.94
-1.18
-5.37
-9.49
-13.37
-16.87
-20.00
-22.87
-25.65
-28.46
-31.19
-33.48
-34.77
-34.53
-32.48
-28.70
-23.68
-18.14
-12.77
-8.04
-4.06
-0.49
3.29
8.05
14.37
22.45
31.86
41.62
50.36
56.80
60.08
60.12
57.57
53.49
48.97
44.72
40.92
37.39
33.84
30.17
26.51
23.17
20.32
17.83
15.28
12.13
8.01
2.97
-2.54
-7.79
-12.04
-14.81
-15.97
-15.68
-14.28
-12.11
-9.50
-6.72
-4.05
-1.77
-0.10
0.84
1.15
1.07
0.88
0.78
0.79
0.71
0.26
-0.86
-2.86
-5.85
-9.85
-14.79
-20.49
-26.59
-32.57
-37.79
-41.69
-43.86
-44.16
-42.65
-39.56
-35.21
-30.03
-24.59
-19.52
-15.34
-12.31
-10.28
-8.78
-7.20
-5.09
-2.35
0.81
3.96
6.67
8.68
9.87
10.28
9.99
9.09
7.74
6.16
4.71
3.78
3.68
4.55
6.33
8.82
11.97
15.93
21.13
27.96
36.41
45.66
54.12
59.81
61.07
57.27
49.02
37.93
25.98
14.82
5.41
-2.02
-7.60
-11.53
-13.90
-14.78
-14.40
-13.26
-12.05
-11.35
-11.42
-12.00
-12.52
-12.35
-11.18
-9.21
-7.07
-5.54
-5.18
-6.08
-7.86
-9.88
-11.58
-12.65
-13.13
-13.19
-13.04
-12.75
-12.37
-11.97
-11.77
-12.05
-13.06
-14.82
-17.08
-19.43
-21.49
-23.10
-24.30
-25.27
-26.05
-26.44
-26.04
-24.42
-21.46
-17.49
-13.22
-9.42
-6.61
-4.79
-3.47
-1.93
0.42
3.70
7.53
11.22
14.15
16.05
17.24
18.43
20.58
24.56
30.95
39.82
50.55
61.67
70.99
75.99
74.61
66.11
51.55
33.57
15.45
-0.18
-12.26
-21.45
-29.44
-37.70
-46.63
-55.25
-61.80
-64.68
-63.18
-57.76
-49.68
-40.33
-30.69
-21.16
-11.73
-2.44
6.35
13.92
19.40
22.17
22.11
19.76
16.06
12.04
8.49
5.72
3.59
1.69
-0.39
-2.74
-5.21
-7.49
-9.43
-11.23
-13.42
-16.59
-20.95
-26.10
-31.04
-34.56
-35.75
-34.47
-31.35
-27.45
-23.80
-20.89
-18.60
-16.31
-13.37
-9.41
-4.54
0.71
5.64
9.68
12.55
14.30
15.21
15.54
15.46
15.04
14.30
13.40
12.67
12.59
13.54
15.66
18.73
22.33
26.02
29.50
32.68
35.58
38.11
40.06
41.11
41.07
39.98
38.16
36.00
33.76
31.33
28.36
24.46
19.51
13.82
8.03
2.78
-1.55
-4.99
-7.80
-10.26
-12.33
-13.71
-13.94
-12.76
-10.30
-7.08
-3.88
-1.37
0.05
0.30
-0.39
-1.72
-3.36
-5.02
-6.49
-7.52
-7.96
-7.71
-6.89
-5.81
-4.88
-4.44
-4.52
-4.85
-4.89
-4.22
-2.78
-1.00
0.43
0.87
0.09
-1.70
-4.02
-6.52
-9.17
-12.25
-15.93
-20.01
-23.75
-26.16
-26.50
-24.67
-21.34
-17.61
-14.50
-12.52
-11.50
-10.77
-9.61
-7.64
-4.97
-2.08
0.41
2.10
2.80
2.54
1.45
-0.24
-2.09
-3.48
-3.61
-1.81
2.13
7.73
13.92
19.41
23.15
24.69
24.22
22.30
19.48
16.15
12.44
8.43
4.26
0.17
-3.57
-6.78
-9.34
-11.21
-12.26
-12.32
-11.26
-9.09
-6.09
-2.72
0.51
3.27
5.45
7.10
8.23
8.75
8.45
7.18
4.94
2.03
-1.09
-3.99
-6.39
-8.23
-9.59
-10.57
-11.19
-11.44
-11.34
-11.01
-10.61
-10.28
-10.00
-9.67
-9.12
-8.25
-7.13
-5.96
-5.01
-4.60
-4.92
-6.08
-8.02
-10.46
-12.91
-14.81
-15.62
-15.00
-12.91
-9.57
-5.31
-0.35
5.29
11.85
19.60
28.59
38.30
47.55
54.62
57.86
56.29
50.07
40.51
29.57
19.11
10.34
3.60
-1.34
-4.84
-7.12
-8.30
-8.59
-8.53
-8.94
-10.58
-13.73
-18.02
-22.48
-26.00
-27.75
-27.55
-25.85
-23.56
-21.57
-20.44
-20.15
-20.23
-19.96
-18.69
-16.06
-12.06
-6.98
-1.34
4.18
8.83
11.84
12.69
11.26
7.99
3.81
-0.18
-3.10
-4.66
-5.15
-5.18
-5.17
-5.05
-4.31
-2.44
0.57
3.95
6.36
6.53
3.96
-0.78
-6.24
-10.71
-13.00
-12.87
-10.99
-8.53
-6.58
-5.81
-6.31
-7.70
-9.46
-11.06
-12.17
-12.60
-12.19
-10.73
-7.92
-3.51
2.54
9.98
18.36
27.27
36.46
45.79
54.93
63.07
68.97
71.33
69.43
63.64
55.35
46.43
38.46
32.14
27.32
23.41
19.93
16.86
14.43
12.77
11.57
10.02
7.25
2.76
-3.16
-9.51
-14.86
-18.02
-18.59
-17.08
-14.80
-13.27
-13.61
-16.09
-20.06
-24.33
-27.70
-29.44
-29.48
-28.26
-26.36
-24.13
-21.68
-18.89
-15.77
-12.56
-9.82
-8.16
-8.04
-9.46
-11.98
-14.83
-17.19
-18.49
-18.56
-17.65
-16.29
-15.04
-14.31
-14.34
-15.16
-16.67
-18.71
-21.09
-23.55
-25.84
-27.76
-29.21
-30.25
-31.11
-32.03
-33.19
-34.46
-35.41
-35.34
-33.49
-29.39
-23.05
-15.04
-6.27
2.35
10.30
17.53
24.38
31.21
38.08
44.59
49.95
53.26
53.83
51.48
46.58
40.01
32.90
26.33
21.05
17.27
14.72
12.76
10.71
8.17
5.12
1.90
-1.03
-3.33
-4.96
-6.17
-7.29
-8.55
-9.98
-11.47
-12.93
-14.41
-16.09
-18.11
-20.32
-22.29
-23.38
-23.08
-21.23
-18.07
-14.11
-9.84
-5.56
-1.42
2.41
5.66
7.89
8.79
8.37
7.10
5.78
5.16
5.62
7.01
8.77
10.27
11.11
11.23
10.90
10.35
9.71
8.84
7.53
5.60
3.09
0.21
-2.76
-5.60
-8.26
-10.82
-13.47
-16.36
-19.52
-22.83
-25.96
-28.43
-29.72
-29.36
-27.10
-22.95
-17.20
-10.35
-3.12
3.74
9.45
13.43
15.45
15.65
14.60
13.05
11.72
11.13
11.53
12.93
15.20
18.08
21.17
23.95
25.82
26.27
25.07
22.32
18.45
14.00
9.50
5.31
1.63
-1.38
-3.63
-5.10
-5.96
-6.62
-7.70
-9.83
-13.35
-18.10
-23.40
-28.18
-31.29
-31.82
-29.31
-23.81
-15.94
-6.80
2.18
9.52
14.08
15.42
13.94
10.83
7.57
5.40
4.89
5.87
7.66
9.47
10.80
11.51
11.75
11.72
11.52
11.07
10.22
8.89
7.15
5.22
3.33
1.66
0.14
-1.43
-3.28
-5.50
-7.94
-10.28
-12.14
-13.22
-13.40
-12.70
-11.22
-9.02
-6.11
-2.50
1.80
6.74
12.27
18.28
24.66
31.26
37.81
43.87
48.86
52.01
52.60
50.14
44.61
36.67
27.54
18.71
11.41
6.31
3.27
1.62
0.50
-0.73
-2.36
-4.38
-6.65
-9.13
-11.84
-14.81
-17.97
-21.12
-23.99
-26.44
-28.44
-30.10
-31.50
-32.56
-32.96
-32.24
-30.00
-26.16
-21.01
-15.19
-9.46
-4.46
-0.50
2.42
4.52
6.03
7.02
7.40
7.00
5.74
3.72
1.21
-1.46
-4.05
-6.49
-8.82
-11.08
-13.24
-15.08
-16.27
-16.52
-15.68
-13.82
-11.18
-8.11
-4.94
-1.88
0.98
3.66
6.26
8.95
11.91
15.40
19.66
24.84
30.80
36.97
42.43
46.13
47.29
45.74
41.91
36.58
30.49
24.07
17.49
10.92
4.77
-0.28
-3.63
-5.15
-5.46
-5.66
-6.83
-9.46
-13.18
-16.99
-19.77
-20.79
-20.06
-18.19
-15.98
-14.07
-12.67
-11.59
-10.40
-8.70
-6.28
-3.15
0.54
4.55
8.59
12.25
15.03
16.36
15.82
13.36
9.39
4.74
0.37
-3.03
-5.24
-6.54
-7.47
-8.52
-9.89
-11.49
-13.14
-14.81
-16.69
-19.06
-22.05
-25.46
-28.79
-31.46
-33.09
-33.66
-33.48
-32.91
-32.19
-31.25
-29.83
-27.72
-24.89
-21.64
-18.38
-15.50
-13.15
-11.21
-9.33
-7.12
-4.21
-0.39
4.39
9.99
15.98
21.65
26.06
28.36
28.11
25.58
21.73
17.90
15.20
14.07
14.14
14.54
14.39
13.25
11.31
9.12
7.19
5.64
4.22
2.55
0.42
-1.94
-3.95
-4.88
-4.25
-2.02
1.36
5.13
8.58
11.22
12.97
14.03
14.72
15.27
15.75
16.07
16.07
15.60
14.51
12.68
9.96
6.28
1.66
-3.58
-8.94
-13.78
-17.51
-19.77
-20.48
-19.84
-18.17
-15.87
-13.38
-11.09
-9.39
-8.54
-8.59
-9.33
-10.29
-10.95
-10.86
-9.87
-8.13
-6.05
-4.11
-2.66
-1.83
-1.46
-1.21
-0.72
0.22
1.55
3.02
4.34
5.44
6.53
8.01
10.25
13.39
17.27
21.52
25.74
29.48
32.17
33.09
31.48
26.96
19.89
11.55
3.77
-1.84
-4.52
-4.68
-3.58
-2.63
-2.71
-3.92
-5.74
-7.51
-8.83
-9.72
-10.44
-11.22
-12.07
-12.65
-12.39
-10.70
-7.25
-2.14
4.06
10.49
16.34
21.13
24.79
27.50
29.36
30.19
29.47
26.67
21.59
14.60
6.63
-1.18
-8.00
-13.57
-18.24
-22.63
-27.19
-31.90
-36.18
-39.17
-40.09
-38.63
-35.06
-30.10
-24.68
-19.61
-15.40
-12.25
-10.13
-8.90
-8.41
-8.51
-9.06
-9.90
-10.89
-11.90
-12.81
-13.53
-13.97
-14.02
-13.64
-12.83
-11.70
-10.47
-9.35
-8.48
-7.82
-7.09
-5.84
-3.55
0.26
5.87
13.22
21.80
30.54
38.01
42.76
43.86
41.34
36.37
30.82
26.49
24.41
24.35
25.13
25.20
23.52
19.86
14.85
9.41
4.27
-0.30
-4.51
-8.73
-13.30
-18.26
-23.35
-28.05
-31.69
-33.62
-33.40
-31.00
-26.79
-21.49
-15.94
-10.87
-6.74
-3.84
-2.28
-2.18
-3.48
-5.85
-8.63
-10.92
-11.98
-11.56
-10.01
-8.13
-6.66
-5.94
-5.69
-5.23
-3.87
-1.27
2.43
6.78
11.23
15.32
18.71
21.11
22.27
22.02
20.46
17.96
15.08
12.37
10.11
8.19
6.22
3.72
0.44
-3.53
-7.67
-11.24
-13.55
-14.25
-13.50
-11.86
-10.16
-9.11
-8.99
-9.53
-9.96
-9.33
-6.82
-2.10
4.55
12.30
19.92
26.15
30.00
31.09
29.88
27.58
25.80
25.83
28.08
31.80
35.38
37.05
35.71
31.36
24.98
17.93
11.27
5.39
0.12
-4.87
-9.70
-14.08
-17.50
-19.52
-20.02
-19.33
-18.09
-17.01
-16.58
-16.91
-17.72
-18.47
-18.66
-18.05
-16.89
-15.81
-15.61
-16.84
-19.54
-23.12
-26.64
-29.14
-30.11
-29.65
-28.41
-27.23
-26.73
-27.04
-27.73
-28.11
-27.53
-25.66
-22.60
-18.74
-14.59
-10.61
-7.02
-3.93
-1.35
0.68
2.06
2.76
2.83
2.52
2.21
2.33
3.16
4.75
6.90
9.36
11.91
14.52
17.36
20.71
24.74
29.34
34.03
38.03
40.46
40.70
38.62
34.69
29.77
24.95
21.16
18.94
18.38
19.06
20.18
20.75
19.93
17.32
13.21
8.52
4.40
1.80
0.99
1.56
2.62
3.31
3.11
1.94
-0.03
-2.60
-5.62
-8.98
-12.47
-15.74
-18.31
-19.77
-19.86
-18.57
-16.06
-12.61
-8.48
-3.96
0.67
5.09
8.88
11.65
13.06
12.96
11.45
8.88
5.71
2.45
-0.48
-2.78
-4.29
-5.02
-5.17
-5.21
-5.80
-7.64
-11.07
-15.90
-21.26
-25.85
-28.43
-28.27
-25.42
-20.66
-15.17
-9.98
-5.77
-2.70
-0.63
0.65
1.20
1.00
0.07
-1.30
-2.49
-2.73
-1.41
1.59
5.68
9.78
12.72
13.73
12.78
10.55
8.07
6.35
5.95
6.95
9.08
11.96
15.21
18.46
21.19
22.72
22.29
19.39
14.06
6.97
-0.66
-7.52
-12.59
-15.46
-16.30
-15.62
-14.01
-11.90
-9.50
-6.90
-4.15
-1.28
1.74
5.03
8.77
12.97
17.30
21.00
23.07
22.65
19.48
14.15
7.95
2.41
-1.31
-2.87
-2.74
-1.89
-1.27
-1.41
-2.35
-3.84
-5.65
-7.76
-10.28
-13.24
-16.45
-19.49
-21.93
-23.52
-24.39
-24.94
-25.60
-26.56
-27.65
-28.38
-28.20
-26.65
-23.56
-19.05
-13.40
-6.91
0.23
7.99
16.44
25.61
35.18
44.30
51.59
55.52
55.01
50.00
41.63
31.91
22.92
16.07
11.68
9.11
7.39
5.82
4.19
2.74
1.65
0.76
-0.46
-2.59
-5.86
-9.89
-13.76
-16.35
-16.71
-14.45
-9.78
-3.54
3.05
8.71
12.42
13.68
12.63
10.04
7.04
4.76
4.00
4.90
7.02
9.44
11.16
11.41
9.86
6.57
1.90
-3.68
-9.75
-15.96
-22.00
-27.51
-32.05
-35.21
-36.77
-36.82
-35.74
-34.16
-32.66
-31.61
-30.98
-30.43
-29.49
-27.83
-25.45
-22.71
-20.18
-18.37
-17.58
-17.73
-18.46
-19.28
-19.72
-19.51
-18.64
-17.26
-15.57
-13.64
-11.23
-7.90
-3.11
3.52
12.06
22.22
33.41
44.86
55.63
64.59
70.50
72.27
69.34
62.02
51.58
39.87
28.79
19.66
12.93
8.29
5.09
2.69
0.76
-0.82
-2.11
-3.30
-4.69
-6.56
-8.90
-11.37
-13.35
-14.19
-13.51
-11.37
-8.31
-5.17
-2.82
-1.93
-2.78
-5.17
-8.46
-11.70
-13.83
-14.04
-11.99
-7.99
-2.90
2.20
6.30
8.85
9.77
9.39
8.19
6.60
4.99
3.61
2.64
2.15
2.01
1.87
1.23
-0.33
-3.00
-6.61
-10.70
-14.72
-18.22
-21.00
-23.04
-24.40
-25.15
-25.32
-24.95
-24.18
-23.23
-22.31
-21.55
-20.90
-20.15
-19.04
-17.34
-14.93
-11.73
-7.65
-2.50
3.81
11.13
18.77
25.60
30.30
31.92
30.32
26.30
21.24
16.43
12.57
9.59
7.08
4.75
2.78
1.76
2.20
4.08
6.72
9.12
10.47
10.57
9.86
9.04
8.63
8.69
8.77
8.31
6.91
4.59
1.70
-1.27
-3.97
-6.30
-8.46
-10.72
-13.26
-15.99
-18.60
-20.60
-21.57
-21.33
-19.95
-17.68
-14.76
-11.34
-7.37
-2.82
2.18
7.20
11.58
14.61
15.84
15.25
13.29
10.60
7.79
5.22
2.89
0.65
-1.68
-4.06
-6.29
-8.06
-9.12
-9.47
-9.32
-9.06
-9.03
-9.40
-10.04
-10.61
-10.75
-10.19
-8.91
-7.01
-4.75
-2.35
-0.07
1.76
2.75
2.61
1.32
-0.65
-2.41
-2.93
-1.46
2.16
7.47
13.69
20.02
25.90
31.02
35.12
37.81
38.57
36.96
32.92
26.90
19.86
12.93
7.09
2.89
0.43
-0.56
-0.50
0.15
1.06
1.98
2.70
3.05
2.83
1.90
0.21
-2.18
-5.04
-8.05
-10.85
-13.21
-15.06
-16.48
-17.54
-18.06
-17.51
-15.09
-10.08
-2.38
7.28
17.28
25.65
30.73
31.80
29.23
24.28
18.51
13.32
9.52
7.41
6.79
7.20
8.05
8.70
8.54
7.20
4.59
0.99
-3.08
-7.04
-10.42
-12.99
-14.84
-16.22
-17.51
-19.05
-21.03
-23.41
-25.91
-28.06
-29.34
-29.42
-28.38
-26.80
-25.55
-25.48
-27.02
-29.90
-33.18
-35.62
-36.03
-33.78
-28.90
-22.05
-14.21
-6.39
0.67
6.58
11.27
14.82
17.39
19.13
20.15
20.61
20.68
20.52
20.20
19.59
18.52
16.91
14.92
13.05
11.96
12.25
14.15
17.44
21.46
25.37
28.35
29.82
29.51
27.44
23.83
19.02
13.28
6.81
-0.32
-8.06
-16.28
-24.63
-32.50
-39.13
-43.83
-46.16
-46.07
-43.87
-40.08
-35.29
-29.90
-24.19
-18.26
-12.18
-6.08
-0.23
5.00
9.22
12.18
13.87
14.59
14.81
15.06
15.70
16.84
18.38
20.08
21.72
23.17
24.32
25.09
25.39
25.20
24.65
24.00
23.55
23.45
23.62
23.78
23.53
22.54
20.61
17.71
13.88
9.28
4.17
-0.94
-5.36
-8.37
-9.44
-8.48
-5.94
-2.62
0.57
2.88
3.91
3.67
2.48
0.80
-0.85
-2.00
-2.29
-1.48
0.52
3.66
7.68
12.14
16.46
20.03
22.37
23.19
22.47
20.33
16.92
12.36
6.81
0.60
-5.62
-11.01
-14.73
-16.29
-15.80
-13.88
-11.44
-9.34
-8.08
-7.79
-8.32
-9.45
-10.95
-12.65
-14.35
-15.78
-16.63
-16.65
-15.74
-14.01
-11.71
-9.26
-7.10
-5.65
-5.23
-5.94
-7.69
-10.21
-13.16
-16.20
-19.07
-21.65
-23.86
-25.65
-26.99
-27.84
-28.21
-28.11
-27.57
-26.65
-25.46
-24.14
-22.89
-21.93
-21.45
-21.54
-22.18
-23.12
-24.00
-24.31
-23.61
-21.64
-18.37
-14.01
-8.89
-3.28
2.64
8.81
15.11
21.26
26.87
31.51
35.00
37.50
39.48
41.49
43.96
47.00
50.41
53.81
56.66
58.28
57.80
54.26
46.96
35.91
22.20
7.92
-4.49
-13.06
-17.01
-16.95
-14.32
-10.69
-7.10
-3.90
-1.17
0.92
1.72
0.35
-3.95
-11.32
-21.15
-32.32
-43.45
-53.30
-60.86
-65.37
-66.27
-63.32
-56.68
-47.09
-35.81
-24.34
-14.11
-6.02
-0.29
3.44
5.93
7.97
10.21
13.04
16.69
21.17
26.28
31.47
35.85
38.35
38.11
34.96
29.57
23.39
18.04
14.72
13.85
15.01
17.37
20.05
22.49
24.46
25.92
26.84
27.13
26.73
25.63
23.93
21.83
19.55
17.28
15.15
13.16
11.26
9.44
7.85
6.88
7.09
8.99
12.77
18.16
24.44
30.55
35.45
38.25
38.41
35.80
30.59
23.16
13.97
3.46
-7.93
-19.67
-31.09
-41.33
-49.60
-55.38
-58.67
-59.98
-60.11
-59.83
-59.65
-59.67
-59.59
-58.91
-57.19
-54.28
-50.26
-45.32
-39.54
-32.84
-25.09
-16.24
-6.69
2.38
9.28
12.39
11.02
5.74
-1.76
-9.38
-15.19
-18.05
-18.10
-16.49
-14.73
-13.93
-14.48
-16.09
-18.11
-19.47
-18.91
-15.47
-8.68
1.37
14.01
27.84
41.64
51.88
54.73
48.71
35.65
19.38
3.68
-8.95
-17.54
-22.44
-24.79
-25.45
-24.64
-22.16
-17.89
-11.96
-4.94
2.21
8.31
12.27
13.65
12.75
10.28
7.12
4.24
2.43
2.26
3.84
6.75
10.55
15.00
19.97
25.08
29.65
32.64
33.33
32.03
30.19
29.71
31.74
35.53
38.21
36.82
29.70
17.72
3.97
-7.89
-15.35
-18.01
-17.17
-14.68
-11.78
-8.94
-6.15
-3.56
-1.74
-1.40
-2.94
-6.12
-10.09
-13.71
-16.11
-16.90
-16.33
-14.98
-13.52
-12.44
-11.84
-11.53
-11.15
-10.40
-9.18
-7.68
-6.12
-4.77
-3.80
-3.15
-2.58
-1.79
-0.63
0.86
2.38
3.57
4.11
3.87
2.97
1.76
0.70
0.33
1.02
2.92
5.81
9.14
12.20
14.28
14.96
14.15
12.10
9.29
6.22
3.37
1.06
-0.50
-1.24
-1.20
-0.59
0.34
1.29
2.07
2.64
3.13
3.76
4.72
6.06
7.57
8.85
9.41
8.84
7.02
4.11
0.57
-3.04
-6.24
-8.80
-10.84
-12.67
-14.61
-16.81
-19.02
-20.68
-21.13
-19.87
-16.76
-12.14
-6.68
-1.15
3.82
7.92
11.10
13.41
14.85
15.28
14.53
12.48
9.23
5.11
0.63
-3.64
-7.24
-9.82
-11.16
-11.12
-9.74
-7.23
-4.09
-1.02
1.22
2.11
1.51
-0.26
-2.59
-4.87
-6.77
-8.32
-9.87
-11.84
-14.45
-17.55
-20.66
-23.11
-24.31
-23.87
-21.74
-18.20
-13.70
-8.77
-3.92
0.41
3.87
6.19
7.27
7.12
5.95
4.12
2.08
0.27
-1.00
-1.55
-1.29
-0.16
1.92
5.03
9.09
13.79
18.56
22.68
25.52
26.78
26.56
25.29
23.48
21.48
19.38
16.98
14.03
10.33
5.88
0.92
-4.13
-8.77
-12.48
-14.83
-15.56
-14.63
-12.19
-8.56
-4.14
0.65
5.41
9.79
13.46
16.18
17.83
18.47
18.38
17.98
17.67
17.65
17.88
18.07
17.79
16.67
14.49
11.31
7.43
3.32
-0.46
-3.49
-5.58
-6.79
-7.52
-8.28
-9.57
-11.76
-14.96
-18.97
-23.34
-27.46
-30.60
-32.07
-31.37
-28.35
-23.31
-16.97
-10.39
-4.60
-0.38
1.96
2.62
2.06
0.85
-0.52
-1.64
-2.04
-1.12
1.81
7.29
15.39
25.51
36.44
46.50
53.97
57.37
55.82
49.31
38.70
25.59
11.96
-0.33
-10.00
-16.61
-20.53
-22.65
-23.88
-24.90
-25.98
-27.07
-27.90
-28.15
-27.59
-26.23
-24.32
-22.16
-20.13
-18.61
-17.81
-17.69
-17.85
-17.73
-16.78
-14.53
-10.38
-4.05
4.24
