1660939547.00
64.000000
-0.00
-0.00
-0.00
-0.00
-0.00
-0.00
-0.00
-0.00
-0.00
-0.00
0.00
0.01
0.01
-0.00
-0.03
-0.05
-0.05
0.00
0.13
0.36
0.66
1.01
1.37
1.72
2.06
2.40
2.79
3.25
3.81
4.43
5.09
5.73
6.33
6.92
7.55
8.27
9.12
10.17
11.33
12.49
13.56
14.52
15.43
16.46
17.82
19.62
22.05
24.91
27.94
30.89
33.63
36.26
39.13
42.62
46.99
52.58
59.00
65.78
72.42
78.68
84.73
91.06
98.30
106.81
116.99
128.28
139.93
151.27
162.00
172.35
182.99
195.08
207.01
220.71
236.63
254.95
274.83
293.82
307.97
312.68
304.32
281.47
245.97
201.38
152.15
101.93
52.90
5.77
-39.43
-82.71
-123.86
-162.60
-199.57
-235.98
-273.01
-310.80
-347.69
-380.27
-404.30
-416.34
-415.02
-401.68
-379.87
-353.90
-327.38
-302.22
-278.69
-256.15
-233.97
-212.06
-190.98
-171.52
-154.08
-138.52
-124.27
-110.71
-97.53
-84.94
-73.36
-63.09
-54.01
-45.55
-36.94
-27.72
-18.00
-8.41
0.27
7.58
13.55
18.63
23.32
27.88
32.23
36.07
39.17
41.44
42.95
43.81
44.00
43.43
42.09
40.18
38.12
36.37
35.21
34.65
34.46
34.43
34.61
35.30
36.94
39.81
43.72
48.13
52.33
55.86
58.76
61.56
65.03
69.79
76.00
83.31
90.88
97.54
102.04
103.29
100.53
93.30
81.52
65.58
46.59
26.31
6.91
-9.72
-22.54
-31.70
-38.32
-43.71
-48.62
-52.90
-55.72
-56.31
-54.54
-51.05
-46.94
-43.05
-39.65
-36.48
-33.19
-29.70
-26.23
-23.16
-20.78
-19.08
-17.85
-16.78
-15.69
-14.59
-13.61
-12.98
-12.85
-13.27
-14.12
-15.16
-16.13
-16.84
-17.22
-17.38
-17.55
-17.97
-18.76
-19.77
-20.61
-20.67
-19.41
-16.56
-12.26
-7.15
-2.27
1.21
2.33
0.62
-3.70
-9.74
-16.25
-22.04
-26.32
-28.98
-30.49
-31.64
-33.15
-35.39
-38.24
-41.20
-43.62
-44.95
-44.95
-43.84
-42.23
-40.91
-40.56
-41.43
-43.25
-45.40
-47.12
-47.99
-48.14
-48.22
-49.16
-51.82
-56.55
-62.81
-68.84
-71.96
-69.19
-58.41
-39.27
-13.55
15.47
44.27
70.32
92.69
111.67
127.77
140.90
150.14
154.42
153.35
147.90
140.31
133.22
128.84
128.33
131.66
137.81
144.80
149.88
149.84
141.67
123.72
96.70
64.12
31.51
4.49
-13.38
-22.01
-24.52
-25.46
-28.49
-34.69
-42.62
-49.66
-53.87
-55.12
-54.90
-55.04
-56.50
-58.79
-60.35
-59.79
-56.75
-52.09
-47.34
-43.79
-41.80
-40.78
-39.58
-37.15
-33.13
-27.94
-22.62
-18.32
-15.79
-15.09
-15.58
-16.22
-16.05
-14.59
-12.01
-8.93
-6.12
-4.17
-3.21
-3.00
-3.04
-2.86
-2.23
-1.22
-0.09
0.81
1.25
1.17
0.73
0.19
-0.18
-0.22
0.08
0.63
1.25
1.79
2.18
2.43
2.63
2.86
3.17
3.55
3.87
4.00
3.87
3.46
2.86
2.20
1.57
1.04
0.63
0.35
0.23
0.27
0.44
0.68
0.87
0.91
0.81
0.61
0.45
0.39
0.44
0.54
0.58
0.51
0.33
0.13
0.01
0.06
0.28
0.63
1.00
1.31
1.49
1.58
1.60
1.60
1.60
1.59
1.58
1.54
1.49
1.46
1.45
1.43
1.36
1.24
1.12
1.10
1.24
1.54
1.89
2.09
1.98
1.51
0.82
0.15
-0.26
-0.29
0.02
0.48
0.87
1.05
0.98
0.72
0.41
0.15
0.02
0.04
0.16
0.33
0.50
0.65
0.76
0.82
0.79
0.65
0.39
0.06
-0.26
-0.47
-0.52
-0.41
-0.19
0.08
0.36
0.63
0.88
1.11
1.24
1.22
0.99
0.58
0.10
-0.29
-0.44
-0.31
0.06
0.53
0.97
1.31
1.55
1.70
1.78
1.74
1.56
1.25
0.91
0.65
0.57
0.69
0.90
1.10
1.18
1.12
0.98
0.81
0.65
0.50
0.37
0.26
0.20
0.22
0.31
0.44
0.59
0.73
0.88
1.04
1.18
1.23
1.14
0.88
0.53
0.14
-0.20
-0.46
-0.66
-0.84
-0.99
-1.10
-1.11
-0.99
-0.75
-0.41
-0.04
0.30
0.53
0.61
0.51
0.29
0.03
-0.14
-0.17
-0.06
0.12
0.30
0.41
0.48
0.53
0.60
0.69
0.77
0.80
0.73
0.57
0.34
0.09
-0.14
-0.31
-0.43
-0.47
-0.44
-0.34
-0.18
0.01
0.17
0.26
0.26
0.23
0.23
0.34
0.58
0.91
1.21
1.37
1.32
1.05
0.65
0.23
-0.13
-0.38
-0.54
-0.61
-0.61
-0.50
-0.28
0.05
0.41
0.68
0.78
0.67
0.44
0.19
0.05
0.04
0.15
0.32
0.50
0.66
0.80
0.93
1.03
1.07
1.03
0.91
0.72
0.46
0.13
-0.24
-0.61
-0.91
-1.05
-1.00
-0.75
-0.36
0.05
0.40
0.61
0.62
0.46
0.18
-0.11
-0.29
-0.30
-0.14
0.12
0.37
0.53
0.58
0.55
0.46
0.35
0.21
0.06
-0.06
-0.10
-0.03
0.13
0.30
0.39
0.34
0.17
-0.05
-0.21
-0.25
-0.15
0.05
0.30
0.55
0.74
0.81
0.73
0.49
0.11
-0.36
-0.83
-1.21
-1.43
-1.43
-1.19
-0.75
-0.22
0.32
0.76
1.05
1.19
1.20
1.13
0.97
0.72
0.39
0.04
-0.25
-0.42
-0.46
-0.40
-0.31
-0.22
-0.16
-0.10
-0.04
-0.01
-0.01
-0.06
-0.13
-0.17
-0.15
-0.06
0.07
0.18
0.21
0.16
0.04
-0.08
-0.16
-0.16
-0.09
-0.00
0.03
-0.04
-0.20
-0.35
-0.40
-0.28
-0.01
0.31
0.56
0.67
0.65
0.58
0.55
0.59
0.66
0.65
0.53
0.30
0.05
-0.12
-0.18
-0.12
-0.00
0.13
0.27
0.39
0.45
0.43
0.32
0.17
0.08
0.12
0.30
0.53
0.67
0.63
0.39
0.07
-0.22
-0.39
-0.48
-0.55
-0.65
-0.78
-0.86
-0.83
-0.66
-0.45
-0.31
-0.32
-0.46
-0.61
-0.63
-0.45
-0.12
0.23
0.42
0.41
0.25
0.09
0.07
0.21
0.44
0.61
0.61
0.46
0.27
0.13
0.10
0.10
0.06
-0.08
-0.25
-0.32
-0.21
0.09
0.46
0.74
0.84
0.75
0.58
0.45
0.43
0.50
0.61
0.67
0.64
0.53
0.38
0.25
0.20
0.25
0.37
0.49
0.51
0.35
0.04
-0.32
-0.59
-0.65
-0.49
-0.24
-0.03
0.03
-0.05
-0.16
-0.14
0.07
0.45
0.86
1.17
1.30
1.27
1.15
1.05
0.98
0.89
0.70
0.35
-0.11
-0.56
-0.88
-0.95
-0.80
-0.53
-0.29
-0.19
-0.28
-0.50
-0.77
-1.00
-1.16
-1.26
-1.34
-1.42
-1.47
-1.48
-1.41
-1.25
-1.04
-0.82
-0.65
-0.56
-0.56
-0.61
-0.63
-0.58
-0.44
-0.23
0.02
0.23
0.34
0.28
0.05
-0.31
-0.72
-1.03
-1.15
-1.01
-0.68
-0.26
0.07
0.21
0.10
-0.23
-0.66
-1.08
-1.34
-1.37
-1.17
-0.77
-0.28
0.19
0.54
0.72
0.78
0.78
0.79
0.83
0.86
0.82
0.70
0.54
0.41
0.38
0.44
0.53
0.55
0.48
0.34
0.25
0.30
0.49
0.76
0.95
1.00
0.90
0.75
0.64
0.61
0.60
0.53
0.36
0.12
-0.12
-0.27
-0.31
-0.29
-0.30
-0.36
-0.48
-0.56
-0.52
-0.32
0.01
0.38
0.71
0.92
1.01
1.04
1.07
1.19
1.42
1.73
2.04
2.26
2.36
2.33
2.23
2.11
1.99
1.89
1.82
1.82
1.90
2.06
2.23
2.27
2.08
1.59
0.89
0.15
-0.45
-0.77
-0.75
-0.49
-0.11
0.26
0.54
0.70
0.73
0.67
0.54
0.38
0.25
0.18
0.19
0.24
0.26
0.20
0.06
-0.09
-0.19
-0.17
-0.01
0.23
0.48
0.69
0.82
0.81
0.62
0.23
-0.33
-0.96
-1.49
-1.80
-1.82
-1.62
-1.34
-1.13
-1.03
-1.05
-1.11
-1.17
-1.23
-1.36
-1.57
-1.87
-2.18
-2.43
-2.57
-2.59
-2.54
-2.48
-2.44
-2.43
-2.44
-2.44
-2.43
-2.43
-2.42
-2.41
-2.34
-2.13
-1.66
-0.83
0.41
2.05
3.88
5.57
6.71
7.02
6.51
5.44
4.26
3.36
2.89
2.74
2.64
2.36
1.87
1.33
0.96
0.87
0.95
0.94
0.61
-0.13
-1.18
-2.29
-3.21
-3.79
-4.07
-4.18
-4.32
-4.60
-5.02
-5.44
-5.67
-5.50
-4.83
-3.65
-2.06
-0.21
1.75
3.69
5.47
6.90
7.86
8.24
8.06
7.44
6.55
5.53
4.47
3.41
2.38
1.42
0.58
-0.11
-0.70
-1.23
-1.71
-2.11
-2.37
-2.43
-2.32
-2.14
-1.97
-1.90
-1.90
-1.92
-1.91
-1.87
-1.80
-1.73
-1.65
-1.55
-1.43
-1.35
-1.36
-1.52
-1.79
-2.06
-2.21
-2.15
-1.90
-1.54
-1.15
-0.82
-0.55
-0.32
-0.10
0.12
0.32
0.54
0.85
1.31
1.91
2.48
2.77
2.55
1.74
0.51
-0.81
-1.86
-2.41
-2.49
-2.29
-2.07
-1.98
-1.98
-1.92
-1.65
-1.14
-0.54
-0.02
0.25
0.24
0.01
-0.29
-0.56
-0.73
-0.81
-0.76
-0.57
-0.25
0.14
0.51
0.75
0.78
0.60
0.28
-0.09
-0.45
-0.75
-0.96
-1.06
-1.03
-0.87
-0.65
-0.45
-0.34
-0.33
-0.39
-0.44
-0.40
-0.21
0.12
0.53
0.95
1.27
1.42
1.37
1.19
1.02
1.00
1.24
1.72
2.31
2.85
3.15
3.14
2.84
2.31
1.68
1.05
0.51
0.10
-0.15
-0.27
-0.32
-0.38
-0.54
-0.82
-1.22
-1.73
-2.32
-2.97
-3.64
-4.23
-4.66
-4.87
-4.92
-4.91
-4.98
-5.20
-5.54
-5.88
-6.13
-6.21
-6.03
-5.43
-4.16
-2.03
0.89
4.17
7.15
9.16
9.84
9.28
7.89
6.25
4.77
3.64
2.88
2.47
2.41
2.71
3.30
4.02
4.66
5.04
5.08
4.79
4.25
3.54
2.75
1.92
1.09
0.27
-0.54
-1.32
-2.02
-2.58
-2.93
-3.05
-2.99
-2.88
-2.85
-2.97
-3.27
-3.66
-4.06
-4.37
-4.55
-4.56
-4.41
-4.08
-3.54
-2.79
-1.86
-0.86
0.07
0.81
1.28
1.47
1.37
0.95
0.22
-0.80
-1.95
-3.00
-3.73
-4.01
-3.94
-3.74
-3.70
-3.96
-4.50
-5.13
-5.60
-5.62
-4.94
-3.29
-0.52
3.30
7.75
12.09
15.49
17.32
17.46
16.30
14.56
12.92
11.74
10.98
10.32
9.41
8.08
6.35
4.38
2.35
0.36
-1.51
-3.23
-4.72
-5.89
-6.68
-7.08
-7.10
-6.82
-6.34
-5.77
-5.25
-4.86
-4.60
-4.32
-3.78
-2.73
-1.14
0.82
2.72
4.13
4.74
4.51
3.61
2.31
0.86
-0.58
-1.94
-3.16
-4.16
-4.86
-5.19
-5.13
-4.76
-4.21
-3.65
-3.21
-2.98
-2.99
-3.20
-3.48
-3.72
-3.80
-3.67
-3.38
-3.02
-2.71
-2.52
-2.45
-2.39
-2.24
-1.91
-1.40
-0.77
-0.15
0.34
0.63
0.65
0.44
0.03
-0.45
-0.79
-0.73
0.02
1.59
3.93
6.71
9.42
11.55
12.75
12.93
12.23
10.93
9.23
7.30
5.18
2.93
0.64
-1.50
-3.28
-4.58
-5.35
-5.65
-5.63
-5.41
-5.11
-4.80
-4.51
-4.22
-3.95
-3.70
-3.53
-3.47
-3.52
-3.62
-3.66
-3.55
-3.29
-2.93
-2.59
-2.38
-2.31
-2.35
-2.37
-2.30
-2.06
-1.68
-1.18
-0.60
0.07
0.88
1.89
3.11
4.51
5.97
7.34
8.50
9.34
9.79
9.80
9.32
8.34
6.94
5.27
3.57
2.07
0.90
0.06
-0.52
-0.98
-1.40
-1.79
-2.16
-2.53
-2.94
-3.44
-3.99
-4.50
-4.80
-4.79
-4.44
-3.86
-3.24
-2.78
-2.58
-2.59
-2.69
-2.75
-2.64
-2.35
-1.91
-1.36
-0.74
-0.07
0.64
1.35
1.99
2.46
2.71
2.74
2.61
2.40
2.16
1.89
1.57
1.22
0.88
0.61
0.44
0.41
0.48
0.63
0.80
0.92
0.95
0.80
0.46
-0.06
-0.71
-1.37
-1.94
-2.32
-2.51
-2.50
-2.32
-2.03
-1.67
-1.29
-0.94
-0.63
-0.38
-0.20
-0.13
-0.17
-0.27
-0.31
-0.19
0.15
0.66
1.17
1.53
1.62
1.46
1.16
0.82
0.56
0.39
0.30
0.25
0.22
0.20
0.18
0.14
0.07
-0.02
-0.11
-0.18
-0.18
-0.13
-0.03
0.09
0.20
0.27
0.25
0.14
-0.09
-0.38
-0.71
-0.99
-1.18
-1.24
-1.18
-1.03
-0.86
-0.71
-0.59
-0.48
-0.35
-0.22
-0.12
-0.11
-0.21
-0.36
-0.46
-0.41
-0.19
0.18
0.57
0.86
1.00
0.97
0.82
0.60
0.37
0.17
0.02
-0.05
-0.04
0.04
0.14
0.24
0.28
0.25
0.17
0.07
-0.01
-0.03
0.03
0.17
0.32
0.43
0.46
0.39
0.29
0.22
0.22
0.27
0.31
0.28
0.20
0.10
0.04
0.05
0.12
0.23
0.34
0.44
0.53
0.57
0.55
0.42
0.21
-0.02
-0.19
-0.26
-0.24
-0.19
-0.20
-0.31
-0.49
-0.69
-0.84
-0.88
-0.80
-0.58
-0.25
0.12
0.44
0.60
0.55
0.34
0.09
-0.07
-0.07
0.03
0.14
0.17
0.10
0.02
0.03
0.18
0.41
0.59
0.62
0.51
0.34
0.22
0.20
0.23
0.23
0.11
-0.08
-0.29
-0.41
-0.46
-0.50
-0.64
-0.93
-1.30
-1.63
-1.78
-1.70
-1.46
-1.16
-0.88
-0.61
-0.32
0.04
0.39
0.62
0.61
0.32
-0.14
-0.59
-0.84
-0.80
-0.50
-0.05
0.42
0.81
1.05
1.15
1.12
1.00
0.87
0.80
0.80
0.87
0.94
0.93
0.82
0.64
0.48
0.44
0.59
0.90
1.32
1.73
2.00
2.04
1.78
1.22
0.45
-0.33
-0.93
-1.19
-1.07
-0.71
-0.33
-0.14
-0.22
-0.50
-0.86
-1.15
-1.34
-1.47
-1.61
-1.77
-1.87
-1.82
-1.52
-1.00
-0.36
0.22
0.64
0.84
0.88
0.86
0.86
0.91
0.95
0.90
0.70
0.32
-0.17
-0.67
-1.08
-1.32
-1.39
-1.31
-1.12
-0.85
-0.57
-0.32
-0.16
-0.11
-0.14
-0.22
-0.30
-0.35
-0.40
-0.43
-0.44
-0.37
-0.18
0.16
0.59
1.00
1.27
1.32
1.16
0.87
0.59
0.42
0.40
0.49
0.59
0.60
0.46
0.20
-0.11
-0.40
-0.62
-0.76
-0.80
-0.75
-0.57
-0.27
0.13
0.57
0.93
1.13
1.11
0.90
0.56
0.21
-0.04
-0.10
0.03
0.31
0.64
0.89
1.00
0.94
0.77
0.58
0.45
0.43
0.53
0.68
0.78
0.73
0.45
-0.05
-0.65
-1.20
-1.53
-1.57
-1.31
-0.89
-0.47
-0.16
-0.02
-0.02
-0.07
-0.13
-0.16
-0.15
-0.12
-0.06
0.04
0.15
0.25
0.31
0.28
0.17
0.00
-0.17
-0.28
-0.27
-0.17
-0.01
0.14
0.20
0.17
0.06
-0.05
-0.12
-0.12
-0.06
0.03
0.12
0.22
0.32
0.39
0.40
0.35
0.22
0.03
-0.18
-0.39
-0.56
-0.66
-0.68
-0.67
-0.68
-0.76
-0.94
-1.15
-1.31
-1.33
-1.19
-0.95
-0.71
-0.55
-0.48
-0.43
-0.33
-0.10
0.21
0.53
0.78
0.92
0.96
0.95
0.92
0.86
0.77
0.61
0.41
0.20
0.06
0.03
0.10
0.22
0.33
0.36
0.31
0.15
-0.09
-0.36
-0.58
-0.66
-0.52
-0.11
0.49
1.12
1.57
1.71
1.49
1.05
0.60
0.35
0.37
0.56
0.73
0.73
0.47
0.06
-0.32
-0.49
-0.40
-0.10
0.26
0.53
0.62
0.53
0.35
0.17
0.08
0.09
0.18
0.28
0.32
0.24
0.01
-0.35
-0.78
-1.22
-1.64
-1.98
-2.23
-2.33
-2.27
-2.06
-1.74
-1.35
-0.96
-0.58
-0.26
-0.04
0.02
-0.10
-0.37
-0.69
-0.89
-0.86
-0.57
-0.09
0.46
0.94
1.29
1.48
1.55
1.54
1.49
1.49
1.57
1.75
1.93
2.00
1.87
1.52
1.05
0.63
0.37
0.30
0.32
0.32
0.25
0.16
0.10
0.11
0.10
-0.04
-0.38
-0.88
-1.33
-1.52
-1.36
-0.91
-0.39
-0.04
0.02
-0.18
-0.49
-0.75
-0.88
-0.95
-1.04
-1.22
-1.47
-1.64
-1.59
-1.28
-0.76
-0.20
0.24
0.47
0.49
0.42
0.35
0.37
0.45
0.56
0.62
0.60
0.52
0.40
0.33
0.34
0.46
0.67
0.93
1.18
1.35
1.39
1.30
1.08
0.77
0.39
0.01
-0.32
-0.54
-0.59
-0.47
-0.24
0.02
0.18
0.17
-0.05
-0.40
-0.80
-1.12
-1.29
-1.29
-1.14
-0.95
-0.78
-0.73
-0.80
-0.94
-1.06
-1.04
-0.81
-0.41
0.08
0.53
0.84
1.01
1.06
1.06
1.07
1.07
1.08
1.07
1.07
1.09
1.14
1.19
1.17
1.01
0.70
0.25
-0.22
-0.62
-0.84
-0.84
-0.67
-0.43
-0.22
-0.10
-0.06
-0.04
0.03
0.16
0.28
0.30
0.19
0.00
-0.17
-0.22
-0.14
-0.00
0.06
-0.02
-0.20
-0.37
-0.39
-0.22
0.06
0.31
0.37
0.23
-0.04
-0.30
-0.43
-0.40
-0.26
-0.09
0.03
0.05
0.00
-0.05
-0.05
0.03
0.16
0.28
0.31
0.20
-0.00
-0.25
-0.46
-0.59
-0.65
-0.67
-0.68
-0.68
-0.63
-0.53
-0.38
-0.22
-0.08
0.03
0.14
0.26
0.37
0.38
0.26
0.02
-0.25
-0.44
-0.49
-0.42
-0.34
-0.36
-0.52
-0.79
-1.02
-1.10
-0.98
-0.67
-0.28
0.05
0.26
0.33
0.33
0.35
0.45
0.60
0.74
0.81
0.82
0.81
0.87
1.02
1.19
1.29
1.22
0.98
0.66
0.36
0.17
0.09
0.09
0.13
0.23
0.42
0.70
1.01
1.25
1.28
1.03
0.52
-0.11
-0.70
-1.08
-1.17
-0.98
-0.62
-0.20
0.14
0.34
0.39
0.30
0.09
-0.21
-0.54
-0.83
-1.00
-0.99
-0.77
-0.39
0.04
0.38
0.53
0.48
0.25
-0.06
-0.33
-0.49
-0.54
-0.54
-0.54
-0.61
-0.76
-0.94
-1.09
-1.20
-1.30
-1.44
-1.67
-1.96
-2.19
-2.27
-2.17
-1.97
-1.82
-1.86
-2.13
-2.52
-2.88
-3.08
-3.15
-3.18
-3.32
-3.62
-4.06
-4.56
-5.03
-5.43
-5.82
-6.23
-6.69
-7.21
-7.76
-8.35
-9.03
-9.86
-10.82
-11.83
-12.75
-13.45
-13.94
-14.35
-14.90
-15.81
-17.15
-18.80
-20.48
-21.88
-22.77
-23.12
-23.05
-22.80
-22.55
-22.36
-22.10
-21.61
-20.77
-19.65
-18.57
-17.94
-18.16
-19.36
-21.32
-23.48
-25.13
-25.64
-24.64
-22.22
-18.87
-15.42
-12.88
-12.10
-13.45
-16.39
-19.41
-20.34
-17.28
-9.53
1.75
13.86
23.53
28.30
27.57
22.67
16.00
9.91
5.77
3.80
3.39
3.66
3.76
2.97
0.95
-1.86
-3.82
-2.33
5.18
19.75
39.84
61.44
79.60
90.54
93.15
89.22
82.07
74.86
69.46
66.34
65.13
64.93
64.30
61.16
53.16
38.67
17.90
-6.74
-31.51
-52.90
-69.06
-80.23
-88.03
-94.18
-99.67
-104.64
-108.98
-112.85
-116.58
-120.44
-124.21
-127.27
-129.13
-130.11
-131.21
-133.60
-137.86
-143.37
-148.19
-149.54
-144.49
-130.88
-108.08
-77.40
-42.13
-6.83
23.92
46.77
60.48
66.16
66.59
65.21
65.02
67.83
74.05
82.85
92.66
101.68
108.38
111.98
112.72
111.64
110.09
109.20
109.62
111.57
115.15
120.52
127.96
137.56
148.93
161.20
173.31
184.36
193.94
202.22
209.78
217.27
225.12
233.34
241.55
249.15
255.44
259.70
261.07
258.41
250.39
235.79
213.92
185.00
150.16
110.98
68.78
24.11
-22.95
-71.98
-121.17
-166.92
-204.66
-230.38
-242.33
-241.79
-232.44
-218.82
-204.54
-191.38
-179.36
-167.77
-156.19
-144.94
-134.78
-126.28
-119.29
-112.97
-106.27
-98.53
-89.77
-80.70
-72.30
-65.32
-59.93
-55.75
-51.98
-47.88
-43.03
-37.50
-31.82
-26.66
-22.54
-19.65
-17.72
-16.25
-14.68
-12.67
-10.20
-7.55
-5.12
-3.22
-1.96
-1.24
-0.82
-0.44
0.05
0.69
1.44
2.23
2.96
3.54
3.89
3.91
3.58
2.93
2.08
1.17
0.31
-0.47
-1.15
-1.78
-2.38
-2.91
-3.34
-3.64
-3.77
-3.72
-3.47
-3.01
-2.35
-1.53
-0.67
0.10
0.66
0.93
0.92
0.69
0.35
-0.01
-0.32
-0.57
-0.77
-0.96
-1.16
-1.39
-1.63
-1.87
-2.09
-2.28
-2.42
-2.46
-2.39
-2.19
-1.89
-1.54
-1.19
-0.84
-0.48
-0.10
0.28
0.58
0.69
0.58
0.26
-0.13
-0.45
-0.62
-0.66
-0.68
-0.77
-0.98
-1.26
-1.50
-1.62
-1.62
-1.57
-1.58
-1.70
-1.95
-2.21
-2.37
-2.29
-1.90
-1.20
-0.31
0.58
1.28
1.61
1.52
1.04
0.29
-0.54
-1.28
-1.80
-2.02
-1.91
-1.53
-0.97
-0.38
0.13
0.49
0.73
0.94
1.19
1.54
1.96
2.39
2.76
3.00
3.08
2.97
2.68
2.24
1.72
1.18
0.64
0.12
-0.42
-0.95
-1.43
-1.79
-1.96
-1.94
-1.81
-1.65
-1.54
-1.49
-1.45
-1.38
-1.31
-1.31
-1.46
-1.79
-2.22
-2.61
-2.83
-2.76
-2.39
-1.72
-0.81
0.26
1.38
2.38
3.10
3.37
3.17
2.62
1.92
1.34
1.10
1.25
1.71
2.26
2.68
2.85
2.79
2.64
2.58
2.68
2.89
2.99
2.72
1.94
0.67
-0.91
-2.56
-4.04
-5.21
-6.01
-6.41
-6.43
-6.11
-5.54
-4.82
-4.07
-3.35
-2.66
-1.94
-1.13
-0.19
0.85
1.93
2.94
3.80
4.46
4.87
5.02
4.90
4.54
3.97
3.19
2.24
1.14
0.01
-0.98
-1.61
-1.72
-1.29
-0.48
0.46
1.21
1.60
1.58
1.23
0.66
-0.07
-0.97
-2.00
-3.11
-4.09
-4.70
-4.72
-4.06
-2.80
-1.23
0.28
1.38
1.85
1.72
1.18
0.52
0.03
-0.14
0.02
0.41
0.90
1.38
1.77
2.05
2.22
2.31
2.34
2.34
2.34
2.28
2.07
1.57
0.69
-0.59
-2.15
-3.76
-5.18
-6.23
-6.88
-7.20
-7.30
-7.22
-6.87
-6.12
-4.81
-2.92
-0.55
2.05
4.61
6.89
8.71
9.98
10.67
10.81
10.46
9.67
8.52
7.07
5.43
3.71
1.99
0.37
-1.08
-2.30
-3.18
-3.62
-3.57
-3.04
-2.17
-1.18
-0.31
0.22
0.27
-0.18
-1.08
-2.29
-3.58
-4.71
-5.47
-5.75
-5.56
-4.99
-4.20
-3.30
-2.40
-1.61
-1.06
-0.86
-1.04
-1.51
-2.03
-2.28
-2.03
-1.16
0.22
1.87
3.47
4.77
5.67
6.20
6.51
6.74
6.93
7.01
6.79
6.06
4.69
2.70
0.27
-2.31
-4.70
-6.62
-7.90
-8.52
-8.60
-8.35
-7.94
-7.46
-6.96
-6.39
-5.68
-4.78
-3.63
-2.18
-0.39
1.68
3.86
5.91
7.50
8.43
8.66
8.37
7.82
7.26
6.81
6.35
5.57
4.16
1.91
-0.98
-3.98
-6.26
-7.09
-6.15
-3.71
-0.59
2.22
3.89
4.11
3.07
1.26
-0.81
-2.81
-4.59
-6.10
-7.29
-8.04
-8.23
-7.85
-6.96
-5.76
-4.41
-3.04
-1.74
-0.56
0.45
1.18
1.56
1.63
1.54
1.57
1.99
2.97
4.49
6.30
8.01
9.27
9.87
9.85
9.39
8.73
8.00
7.18
6.15
4.80
3.12
1.27
-0.55
-2.13
-3.37
-4.32
-5.07
-5.69
-6.20
-6.49
-6.46
-6.00
-5.11
-3.85
-2.33
-0.69
0.94
2.42
3.61
4.34
4.49
4.02
2.94
1.39
-0.44
-2.35
-4.21
-5.92
-7.45
-8.82
-10.08
-11.29
-12.53
-13.86
-15.27
-16.68
-17.92
-18.85
-19.45
-19.85
-20.37
-21.34
-22.99
-25.27
-27.84
-30.22
-31.99
-33.06
-33.64
-34.21
-35.24
-36.97
-39.37
-42.24
-45.40
-48.91
-52.99
-57.94
-63.84
-70.45
-77.25
-83.63
-89.19
-93.94
-98.31
-103.03
-108.82
-116.03
-124.49
-133.73
-143.27
-152.96
-162.81
-172.47
-180.58
-184.54
-181.09
-167.33
-142.04
-106.13
-62.15
-13.05
38.82
91.84
144.38
193.82
236.48
268.60
288.05
295.49
294.33
289.26
284.03
279.88
275.26
267.21
253.53
234.42
212.72
192.71
178.06
170.32
168.49
170.03
172.51
174.95
178.35
184.59
194.73
207.54
219.20
224.49
218.78
199.96
168.96
128.98
83.65
35.31
-15.37
-68.41
-122.77
-175.14
-220.32
-253.08
-270.56
-273.74
-267.09
-256.59
-247.29
-241.64
-239.36
-238.56
-237.32
-234.68
-230.84
-226.70
-223.18
-221.01
-220.71
-222.51
-226.07
-230.03
-231.78
-227.69
-214.06
-188.27
-149.78
-100.54
-44.64
12.61
65.75
110.17
142.83
162.64
170.49
168.86
161.20
151.05
141.25
133.28
127.16
121.64
114.83
105.08
91.63
75.07
57.08
39.81
25.02
13.51
4.97
-1.58
-7.21
-12.69
-18.41
-24.52
-30.94
-37.23
-42.41
-45.06
-43.84
-38.12
-28.44
-16.35
-3.83
7.39
16.45
23.30
28.51
32.94
37.50
43.08
50.43
59.88
71.16
83.39
95.35
106.05
115.15
123.01
130.36
137.86
145.62
153.22
160.00
165.42
169.50
172.94
176.86
182.25
189.24
196.47
201.08
199.28
187.47
163.32
126.53
79.03
24.73
-31.10
-82.74
-125.02
-154.41
-169.74
-172.42
-165.84
-154.25
-141.39
-129.66
-119.97
-112.20
-105.89
-100.68
-96.29
-92.39
-88.46
-83.92
-78.39
-71.95
-65.14
-58.83
-53.77
-50.32
-48.20
-46.63
-44.60
-41.30
-36.50
-30.67
-24.84
-20.18
-17.48
-16.84
-17.54
-18.37
-18.08
-15.97
-12.19
-7.69
-3.83
-1.74
-1.75
-3.24
-4.87
-5.16
-3.17
1.07
6.60
11.90
15.42
16.15
13.83
9.17
4.04
1.41
5.25
19.64
47.48
88.85
139.99
193.55
240.33
271.85
282.78
272.01
241.96
197.05
142.01
81.36
19.71
-37.73
-85.36
-118.36
-134.39
-134.86
-124.71
-110.90
-99.84
-95.38
-97.78
-104.30
-110.85
-113.87
-111.74
-105.12
-96.22
-87.58
-80.86
-76.35
-73.15
-70.09
-66.54
-62.69
-59.30
-57.11
-56.28
-56.37
-56.70
-56.80
-56.77
-57.08
-58.19
-60.09
-62.22
-63.71
-63.98
-63.12
-62.03
-62.05
-64.35
-69.40
-76.74
-85.14
-93.23
-100.02
-105.27
-109.58
-114.00
-119.51
-126.49
-134.74
-143.71
-153.07
-162.79
-172.74
-181.93
-188.06
-187.80
-177.89
-156.59
-124.37
-83.53
-37.07
12.48
63.29
113.49
160.27
199.59
227.26
240.65
240.14
229.12
212.65
195.47
180.43
168.17
157.80
148.17
138.76
129.77
121.69
114.81
108.89
103.39
97.83
92.03
86.28
81.03
76.64
73.14
70.24
67.53
64.74
61.85
59.01
56.40
53.99
51.46
48.40
44.55
40.15
35.99
33.17
32.68
34.90
39.35
44.81
49.70
52.81
53.70
53.03
52.44
54.05
59.82
70.62
85.34
100.45
110.60
110.31
96.26
68.97
32.93
-5.05
-38.56
-64.01
-81.37
-93.31
-103.03
-112.23
-120.06
-123.39
-117.88
-99.29
-64.82
-14.29
48.87
117.42
181.47
231.00
258.81
262.65
245.23
212.24
169.48
120.46
66.05
6.25
-57.37
-120.00
-174.26
-212.94
-232.36
-234.36
-225.59
-214.45
-207.29
-206.09
-208.62
-210.57
-208.19
-199.54
-184.07
-161.45
-131.59
-95.62
-57.67
-24.92
-5.08
-2.17
-13.44
-29.85
-40.26
-36.92
-18.65
10.30
44.69
82.53
125.86
177.41
235.78
292.98
336.57
355.34
344.89
309.59
259.74
205.93
154.51
106.48
59.79
13.07
-31.97
-70.94
-99.14
-114.13
-117.26
-112.80
-105.92
-100.66
-98.71
-99.47
-101.02
-101.35
-99.24
-94.70
-88.61
-82.29
-76.78
-72.54
-69.23
-66.16
-62.65
-58.35
-53.52
-48.71
-44.49
-41.12
-38.40
-35.88
-33.08
-29.73
-25.74
-21.08
-15.63
-9.32
-2.33
4.73
10.86
15.02
16.53
15.37
12.12
7.71
3.11
-0.94
-3.96
-5.69
-6.08
-5.31
-3.82
-2.16
-0.86
-0.18
-0.14
-0.53
-1.12
-1.72
-2.22
-2.50
-2.48
-2.13
-1.56
-1.08
-1.00
-1.52
-2.59
-3.89
-5.00
-5.67
-5.87
-5.85
-5.87
-6.09
-6.43
-6.71
-6.76
-6.60
-6.42
-6.42
-6.75
-7.37
-8.11
-8.75
-9.06
-8.94
-8.36
-7.35
-6.05
-4.64
-3.37
-2.45
-2.04
-2.08
-2.35
-2.52
-2.30
-1.57
-0.50
0.52
1.10
1.02
0.34
-0.58
-1.28
-1.43
-0.93
-0.00
1.00
