1660751068.00
64.000000
-0.00
-0.00
-0.00
-0.00
-0.00
-0.00
-0.00
-0.00
-0.00
-0.00
0.00
0.01
0.01
-0.00
-0.03
-0.05
-0.05
0.00
0.13
0.36
0.66
1.01
1.37
1.72
2.06
2.40
2.79
3.24
3.80
4.42
5.06
5.66
6.20
6.68
7.15
7.68
8.31
9.14
10.09
11.04
11.88
12.56
13.14
13.76
14.65
15.96
17.91
20.32
22.90
25.38
27.58
29.57
31.68
34.32
37.81
42.54
48.15
54.10
59.83
64.97
69.58
74.14
79.34
85.71
93.76
103.00
112.62
121.73
129.77
136.75
143.30
150.75
157.77
166.64
177.95
191.79
206.97
220.57
228.25
225.36
208.53
176.87
132.76
80.05
23.07
-34.94
-92.44
-149.16
-205.23
-260.37
-313.74
-363.87
-409.83
-450.91
-486.50
-515.74
-537.23
-549.23
-549.96
-538.35
-514.17
-478.64
-433.86
-382.49
-327.14
-270.07
-212.95
-157.04
-103.36
-52.78
-6.29
35.19
71.00
100.85
124.90
143.69
157.95
168.39
175.62
180.01
181.79
181.16
178.41
173.91
168.13
161.55
154.52
147.26
139.79
132.09
124.09
115.86
107.57
99.44
91.72
84.52
77.78
71.29
64.82
58.19
51.43
44.75
38.48
32.93
28.22
24.18
20.46
16.64
12.45
7.89
3.27
-0.97
-4.47
-7.06
-8.89
-10.32
-11.71
-13.38
-15.63
-18.73
-22.79
-27.36
-31.21
-32.46
-29.16
-20.36
-6.79
9.09
24.00
35.09
41.02
42.26
40.40
37.08
33.35
29.58
26.02
23.21
22.02
23.04
26.03
29.69
32.22
32.16
29.07
23.73
17.68
12.42
8.81
6.90
6.14
5.84
5.47
4.81
3.91
2.94
2.06
1.37
0.90
0.53
0.19
-0.17
-0.54
-0.84
-1.03
-1.13
-1.21
-1.38
-1.66
-2.00
-2.27
-2.38
-2.26
-1.93
-1.44
-0.88
-0.36
0.08
0.41
0.69
1.00
1.48
2.22
3.24
4.44
5.65
6.74
7.65
8.43
9.21
10.16
11.38
12.87
14.49
15.93
16.82
16.79
15.70
13.43
10.15
6.19
1.96
-2.17
-5.93
-9.16
-11.75
-13.70
-15.01
-15.74
-15.96
-15.76
-15.22
-14.44
-13.56
-12.71
-11.96
-11.32
-10.67
-9.91
-9.01
-8.06
-7.24
-6.70
-6.51
-6.55
-6.64
-6.59
-6.31
-5.81
-5.17
-4.46
-3.78
-3.23
-2.89
-2.82
-2.95
-3.17
-3.31
-3.27
-3.03
-2.70
-2.43
-2.36
-2.54
-2.96
-3.53
-4.07
-4.30
-3.92
-2.68
-0.54
2.20
5.01
7.25
8.45
8.45
7.46
5.90
4.19
2.65
1.40
0.40
-0.32
-0.77
-0.98
-0.95
-0.77
-0.48
-0.19
0.03
0.10
-0.02
-0.32
-0.69
-1.02
-1.18
-1.12
-0.90
-0.61
-0.32
-0.06
0.19
0.42
0.58
0.58
0.38
-0.02
-0.57
-1.19
-1.79
-2.30
-2.69
-2.90
-2.96
-2.92
-2.86
-2.88
-3.02
-3.32
-3.77
-4.40
-5.26
-6.32
-7.40
-8.19
-8.30
-7.47
-5.67
-3.12
-0.23
2.59
5.01
6.87
8.13
8.84
9.09
8.96
8.62
8.22
7.89
7.71
7.71
7.81
7.89
7.87
7.65
7.22
6.62
5.91
5.15
4.31
3.37
2.27
1.04
-0.22
-1.34
-2.15
-2.59
-2.69
-2.60
-2.48
-2.42
-2.42
-2.45
-2.49
-2.59
-2.85
-3.40
-4.32
-5.60
-7.17
-8.87
-10.60
-12.23
-13.65
-14.64
-14.92
-14.21
-12.33
-9.35
-5.66
-1.85
1.49
3.99
5.58
6.44
6.86
7.06
7.15
7.08
6.80
6.30
5.61
4.87
4.21
3.75
3.57
3.70
4.06
4.54
4.99
5.28
5.35
5.21
4.92
4.54
4.08
3.51
2.80
1.99
1.17
0.50
0.06
-0.18
-0.40
-0.85
-1.66
-2.83
-4.08
-5.08
-5.56
-5.52
-5.21
-5.04
-5.39
-6.42
-8.02
-9.81
-11.33
-12.12
-11.88
-10.52
-8.16
-5.10
-1.74
1.46
4.13
6.00
6.97
7.12
6.67
5.94
5.22
4.76
4.63
4.78
5.07
5.31
5.39
5.27
5.00
4.67
4.36
4.11
3.93
3.82
3.74
3.68
3.59
3.45
3.23
2.91
2.47
1.89
1.14
0.26
-0.68
-1.60
-2.39
-3.02
-3.50
-3.89
-4.27
-4.69
-5.14
-5.62
-6.11
-6.59
-7.11
-7.76
-8.57
-9.50
-10.38
-10.84
-10.52
-9.17
-6.83
-3.85
-0.76
1.95
3.99
5.35
6.16
6.60
6.80
6.81
6.66
6.44
6.29
6.27
6.40
6.57
6.67
6.58
6.32
5.94
5.55
5.25
5.06
4.92
4.73
4.33
3.65
2.76
1.79
0.93
0.27
-0.22
-0.67
-1.25
-2.03
-2.92
-3.74
-4.33
-4.62
-4.69
-4.73
-4.91
-5.40
-6.26
-7.50
-9.00
-10.58
-11.91
-12.58
-12.22
-10.60
-7.78
-4.10
-0.16
3.45
6.28
8.12
9.05
9.30
9.15
8.76
8.21
7.54
6.79
6.07
5.52
5.28
5.36
5.69
6.09
6.40
6.53
6.44
6.17
5.73
5.11
4.30
3.30
2.17
1.04
0.04
-0.70
-1.11
-1.15
-0.91
-0.51
-0.10
0.15
0.12
-0.23
-0.87
-1.70
-2.64
-3.65
-4.73
-5.93
-7.32
-8.94
-10.76
-12.52
-13.80
-14.05
-12.85
-10.12
-6.23
-1.93
1.97
4.87
6.59
7.32
7.48
7.40
7.27
7.09
6.80
6.39
5.87
5.29
4.65
3.92
3.04
2.03
0.96
0.03
-0.56
-0.62
-0.10
0.88
2.06
3.13
3.85
4.11
3.97
3.62
3.28
3.09
3.03
2.96
2.63
1.85
0.54
-1.20
-3.13
-4.96
-6.47
-7.58
-8.38
-9.09
-9.94
-11.06
-12.48
-14.10
-15.70
-16.93
-17.38
-16.69
-14.66
-11.40
-7.35
-3.20
0.37
2.84
4.09
4.31
3.88
3.21
2.56
2.04
1.62
1.30
1.12
1.17
1.53
2.16
2.96
3.69
4.18
4.35
4.26
4.04
3.82
3.58
3.21
2.57
1.54
0.19
-1.31
-2.73
-3.89
-4.74
-5.34
-5.84
-6.36
-6.98
-7.68
-8.42
-9.13
-9.80
-10.43
-11.05
-11.63
-12.09
-12.28
-12.00
-11.08
-9.43
-7.13
-4.40
-1.61
0.88
2.77
3.98
4.57
4.74
4.70
4.58
4.43
4.23
3.99
3.74
3.58
3.62
3.87
4.28
4.74
5.14
5.45
5.71
6.04
6.53
7.13
7.69
7.96
7.77
7.12
6.17
5.18
4.38
3.81
3.39
2.92
2.27
1.43
0.44
-0.58
-1.52
-2.32
-2.90
-3.23
-3.34
-3.35
-3.51
-4.06
-5.10
-6.49
-7.78
-8.37
-7.75
-5.67
-2.27
1.89
6.11
9.73
12.28
13.56
13.64
12.69
11.01
8.94
6.84
5.06
3.88
3.43
3.71
4.54
5.68
6.87
7.92
8.77
9.46
10.09
10.79
11.59
12.46
13.29
13.94
14.29
14.28
13.90
13.14
12.06
10.71
9.11
7.23
4.91
1.94
-1.82
-6.38
-11.41
-16.29
-20.18
-22.33
-22.31
-20.18
-16.46
-12.01
-7.74
-4.36
-2.22
-1.27
-1.16
-1.41
-1.59
-1.43
-0.85
0.13
1.46
3.12
5.06
7.14
9.07
10.49
11.05
10.59
9.25
7.38
5.43
3.77
2.52
1.63
0.90
0.21
-0.49
-1.14
-1.63
-1.94
-2.13
-2.34
-2.69
-3.21
-3.87
-4.54
-5.14
-5.64
-6.05
-6.44
-6.80
-7.07
-7.21
-7.21
-7.16
-7.25
-7.64
-8.41
-9.41
-10.32
-10.69
-10.05
-8.16
-5.04
-1.09
3.09
6.83
9.66
11.39
12.17
12.27
11.97
11.41
10.62
9.60
8.46
7.40
6.65
6.32
6.33
6.50
6.59
6.45
6.03
5.42
4.74
4.10
3.58
3.17
2.77
2.22
1.37
0.13
-1.42
-3.09
-4.62
-5.82
-6.62
-7.10
-7.43
-7.76
-8.22
-8.84
-9.68
-10.77
-12.08
-13.45
-14.47
-14.67
-13.61
-11.14
-7.50
-3.32
0.64
3.77
5.82
6.97
7.61
8.15
8.74
9.30
9.62
9.53
9.00
8.20
7.40
6.80
6.54
6.58
6.80
7.05
7.22
7.26
7.20
7.14
7.14
7.22
7.28
7.16
6.71
5.86
4.64
3.05
0.98
-1.75
-5.33
-9.72
-14.59
-19.39
-23.55
-26.71
-28.84
-30.11
-30.68
-30.48
-29.23
-26.62
-22.61
-17.61
-12.30
-7.45
-3.56
-0.74
1.22
2.65
3.82
4.84
5.68
6.28
6.60
6.72
6.74
6.81
7.01
7.40
7.93
8.44
8.74
8.72
8.39
7.99
7.79
8.01
8.62
9.33
9.72
9.42
8.26
6.39
4.17
2.04
0.34
-0.83
-1.59
-2.20
-2.89
-3.85
-5.14
-6.71
-8.44
-10.08
-11.28
-11.62
-10.73
-8.44
-4.92
-0.71
3.48
6.95
9.28
10.43
10.69
10.47
10.10
9.72
9.28
8.68
7.82
6.74
5.58
4.52
3.71
3.19
2.95
2.86
2.77
2.53
2.05
1.30
0.36
-0.62
-1.48
-2.13
-2.65
-3.21
-4.01
-5.12
-6.39
-7.51
-8.16
-8.17
-7.63
-6.88
-6.31
-6.24
-6.82
-7.95
-9.43
-10.99
-12.30
-12.99
-12.65
-11.01
-7.99
-3.92
0.63
5.00
8.68
11.48
13.51
14.98
16.02
16.62
16.70
16.30
15.63
15.02
14.78
15.07
15.94
17.48
19.74
22.63
25.55
27.41
27.00
23.57
17.33
9.45
1.44
-5.58
-11.32
-16.09
-20.11
-22.88
-23.18
-19.79
-12.41
-2.22
8.48
17.11
21.97
22.72
20.25
15.92
10.88
5.68
0.37
-5.02
-10.19
-14.35
-16.48
-15.66
-11.45
-4.02
5.79
16.62
26.94
35.36
40.94
43.52
43.77
42.94
42.50
43.60
46.69
51.42
56.85
61.92
65.86
68.42
69.87
70.81
71.95
73.90
77.01
81.16
85.55
88.62
88.28
82.49
70.16
51.70
28.95
4.30
-20.43
-44.60
-68.49
-92.19
-114.55
-132.94
-144.14
-146.02
-138.74
-124.99
-108.83
-93.99
-82.45
-74.11
-67.43
-60.61
-52.46
-42.71
-31.82
-20.45
-9.20
1.61
11.86
21.46
30.27
38.03
44.57
49.89
54.29
58.27
62.24
66.46
70.88
75.41
80.19
85.70
92.65
101.57
112.39
124.23
135.51
144.33
148.88
147.64
139.50
123.88
101.08
72.79
42.33
14.30
-6.61
-17.56
-18.39
-11.78
-2.26
5.30
7.55
3.84
-3.84
-12.05
-18.03
-20.39
-19.34
-16.19
-12.69
-10.42
-10.21
-11.75
-13.50
-13.80
-9.94
1.31
22.25
52.21
86.70
118.24
138.73
142.31
124.94
89.03
43.84
2.60
-23.19
-28.23
-14.57
10.07
35.81
48.59
40.18
11.61
-28.79
-71.84
-112.18
-148.62
-182.06
-213.44
-251.80
-302.45
-363.13
-425.39
-481.30
-527.69
-565.08
-595.03
-618.69
-648.34
-692.35
-749.79
-811.27
-867.32
-913.81
-950.94
-980.29
-928.75
-759.74
-495.19
-203.57
53.65
250.80
389.79
483.50
545.81
587.91
605.90
596.89
565.64
525.10
487.96
460.77
444.39
436.61
434.25
425.17
400.88
360.64
312.79
266.91
228.53
199.01
177.24
161.01
142.35
118.33
87.62
54.01
22.23
-4.63
-24.49
-35.13
-34.10
-22.78
-4.12
17.97
40.18
59.11
71.67
76.27
73.34
64.87
52.44
37.84
22.84
9.83
0.57
-4.50
-6.07
-5.44
-4.03
-2.96
-3.09
-5.09
-8.95
-13.40
-16.58
-16.56
-12.20
-3.89
6.43
15.96
22.05
23.65
21.55
17.84
14.99
14.59
16.77
20.14
22.67
22.59
19.29
13.57
7.06
1.47
-2.29
-4.36
-5.74
-7.43
-9.92
-12.98
-15.87
-18.03
-19.39
-20.49
-22.04
-24.55
-27.83
-31.23
-34.03
-35.73
-36.34
-36.20
-35.83
-35.31
-35.51
-36.20
-36.74
-36.51
-35.19
-33.00
-30.50
-28.35
-26.96
-26.38
-26.22
-26.10
-25.89
-25.77
-26.09
-27.21
-29.35
-32.52
-36.57
-41.04
-45.30
-48.61
-50.15
-49.34
-46.00
-40.43
-33.30
-25.48
-17.63
-10.30
-3.86
1.44
5.43
8.10
9.57
10.09
10.01
9.67
9.46
9.66
10.54
12.23
14.62
17.33
19.78
21.44
21.99
21.47
20.19
18.62
17.14
15.95
15.05
14.29
13.51
12.57
11.36
9.78
7.72
5.05
1.69
-2.31
-6.70
-11.09
-15.04
-18.26
-20.76
-22.94
-25.42
-28.86
-33.58
-39.39
-45.53
-50.72
-53.45
-52.35
-46.61
-36.27
-22.30
-6.48
9.12
22.61
32.82
39.48
43.07
44.50
44.60
43.83
42.28
39.79
36.30
32.04
27.61
23.82
21.40
20.71
21.62
23.62
26.09
28.65
31.28
34.22
37.72
41.70
45.69
49.00
51.04
51.63
51.03
49.72
48.16
46.56
44.92
43.14
41.13
38.90
36.45
33.68
30.45
26.63
22.24
17.47
12.61
7.91
3.54
-0.41
-3.74
-6.07
-6.91
-5.87
-2.97
1.26
5.81
9.57
11.73
12.08
10.96
9.01
6.78
4.53
2.23
-0.25
-2.82
-5.07
-6.35
-5.93
-3.33
1.51
8.04
15.14
21.35
25.30
26.12
23.80
19.15
13.54
8.29
4.28
1.73
0.39
-0.09
0.07
0.89
2.41
4.52
6.79
8.59
9.34
8.72
6.85
4.21
1.56
-0.31
-0.80
0.42
3.31
7.53
12.59
17.90
22.93
27.23
30.48
32.48
33.22
32.87
31.76
30.25
28.66
27.17
25.84
24.60
23.27
21.57
19.17
15.83
11.61
6.92
2.52
-0.79
-2.50
-2.68
-1.98
-1.26
-1.26
-2.17
-3.67
-5.20
-6.29
-6.88
-7.36
-8.41
-10.77
-14.83
-20.45
-26.82
-32.66
-36.44
-36.91
-33.44
-26.25
-16.36
-5.30
5.30
14.12
20.34
23.81
24.94
24.56
23.66
23.11
23.47
24.85
27.07
29.78
32.68
35.61
38.48
41.18
43.53
45.24
45.98
45.48
43.53
40.05
35.08
28.79
21.58
14.03
6.84
0.59
-4.41
-8.20
-11.16
-13.80
-16.70
-20.31
-24.96
-30.76
-37.52
-44.71
-51.43
-56.64
-59.44
-59.43
-56.79
-52.17
-46.34
-39.74
-32.43
-24.12
-14.62
-4.15
6.54
16.41
24.56
30.60
34.73
37.57
39.73
41.51
42.79
43.14
42.08
39.27
34.71
28.84
22.63
17.47
14.85
15.84
20.63
28.27
36.91
44.38
48.93
49.76
47.23
42.55
37.32
32.92
30.11
29.02
29.24
30.23
31.63
33.43
35.91
39.33
43.72
48.69
53.67
58.09
61.55
63.75
64.19
62.09
56.49
46.78
33.27
17.61
2.57
-8.60
-13.17
-9.80
1.00
16.92
34.37
49.31
58.09
58.32
49.38
32.68
11.29
-10.91
-30.37
-44.76
-53.52
-57.58
-58.65
-58.45
-58.10
-58.04
-58.26
-58.67
-59.30
-60.29
-61.75
-63.58
-65.50
-67.16
-68.31
-68.85
-68.83
-68.26
-66.96
-64.52
-60.42
-54.26
-45.93
-35.69
-24.02
-11.46
1.40
13.86
24.93
33.38
38.07
38.38
34.59
27.84
19.71
11.64
4.57
-1.18
-5.49
-8.23
-9.02
-7.42
-3.29
3.10
11.04
19.71
28.48
36.96
44.83
51.55
56.19
57.57
54.66
47.15
35.79
22.31
8.95
-2.38
-10.61
-15.81
-18.86
-20.92
-22.84
-24.87
-26.73
-27.91
-27.96
-26.70
-24.17
-20.57
-16.26
-11.69
-7.42
-4.02
-1.88
-1.10
-1.47
-2.52
-3.78
-4.85
-5.51
-5.65
-5.24
-4.28
-2.81
-1.01
0.81
2.23
2.88
2.57
1.49
0.28
-0.15
1.20
5.02
11.45
19.91
29.42
38.95
47.92
56.39
64.91
74.08
84.14
94.63
104.38
111.65
114.22
109.52
95.01
69.08
32.21
-12.12
-57.60
-96.64
-122.82
-132.99
-128.29
-113.24
-93.66
-74.14
-56.88
-42.12
-29.40
-18.72
-10.68
-6.06
-4.98
-6.63
-9.18
-10.73
-10.18
-7.60
-4.07
-0.68
1.78
3.03
3.05
2.50
2.14
2.49
3.38
4.19
4.90
5.50
5.88
5.02
3.12
0.95
-0.63
-1.43
-1.71
-0.36
3.54
9.92
16.04
20.95
24.67
27.79
30.28
31.91
35.09
41.89
52.78
63.82
73.97
83.81
94.78
107.18
120.53
137.29
159.36
186.67
213.78
239.09
262.86
285.87
306.72
301.82
256.22
171.32
85.47
9.00
-57.95
-122.69
-185.16
-242.50
-290.09
-319.95
-326.99
-312.18
-285.99
-257.13
-231.43
-210.70
-194.80
-182.25
-169.13
-153.17
-135.01
-120.08
-110.27
-104.68
-100.65
-96.36
-91.18
-83.81
-73.91
-62.22
-51.99
-44.22
-38.56
-33.90
-29.71
-25.90
-21.85
-17.24
-12.25
-8.42
-6.26
-5.67
-6.07
-7.06
-8.38
-9.53
-10.15
-10.15
-10.00
-9.92
-10.00
-10.12
-10.13
-9.86
-9.12
-7.85
-6.14
-4.26
-2.46
-0.86
0.63
2.25
4.26
6.81
9.88
13.33
16.88
20.11
22.51
23.48
22.57
19.66
15.10
9.73
4.62
0.73
-1.46
-2.04
-1.61
-0.95
-0.70
-1.07
-1.81
-2.31
-1.85
0.07
3.55
8.26
13.53
18.55
22.63
25.30
26.41
26.05
24.49
22.11
19.30
16.51
14.18
12.68
12.22
12.69
13.77
14.90
15.61
15.58
14.73
13.11
10.84
7.96
4.62
1.12
-2.03
-4.22
-5.08
-4.67
-3.58
-2.69
-2.78
-4.19
-6.66
-9.52
-12.03
-13.69
-14.39
-14.32
-13.79
-12.99
-11.99
-10.77
-9.34
-7.74
-6.04
-4.28
-2.43
-0.51
1.32
2.76
3.45
3.19
2.08
0.46
-1.31
-3.07
-4.94
-7.15
-9.78
-12.46
-14.44
-14.88
-13.26
-9.71
-5.04
-0.53
2.62
3.63
2.46
-0.25
-3.40
-5.81
-6.60
-5.42
-2.54
1.37
5.41
8.78
10.95
11.71
11.13
9.48
7.16
4.60
2.25
0.49
-0.47
-0.70
-0.55
-0.62
-1.46
-3.30
-5.88
-8.45
-10.09
-10.12
-8.48
-5.82
-3.17
-1.45
-1.01
-1.47
-1.93
-1.47
0.35
3.30
6.56
9.17
10.46
10.28
9.01
7.31
5.82
4.93
4.76
5.13
5.80
6.49
7.01
7.26
7.26
7.07
6.80
6.55
6.38
6.27
6.08
5.57
4.38
2.21
-0.98
-4.85
-8.59
-11.25
-12.05
-10.85
-8.24
-5.35
-3.27
-2.57
-3.02
-3.69
-3.44
-1.42
2.60
8.23
14.66
21.01
26.40
30.11
31.54
30.32
26.48
20.62
13.85
7.63
3.26
1.53
2.43
5.29
9.03
12.57
15.17
16.54
16.77
16.22
15.34
14.55
14.10
14.03
14.15
14.16
13.83
13.18
12.55
12.49
13.54
15.95
19.53
23.74
27.84
31.16
33.36
34.53
35.06
35.46
36.08
36.88
37.46
37.21
35.76
33.36
31.08
30.72
34.33
43.44
58.34
77.49
97.50
113.71
121.15
115.74
95.36
60.66
15.13
-35.39
-83.96
-124.15
-151.64
-165.04
-165.90
-157.74
-144.61
-129.83
-115.38
-102.01
-89.83
-78.85
-69.13
-60.61
-52.95
-45.53
-37.81
-29.78
-22.08
-15.88
-12.30
-11.85
-14.08
-17.68
-20.99
-22.58
-21.76
-18.77
-14.59
-10.50
-7.64
-6.58
-7.28
-9.07
-10.97
-12.03
-11.64
-9.76
-6.84
-3.65
-0.94
0.82
1.51
1.36
0.71
-0.11
-0.87
-1.47
-1.88
-2.16
-2.49
-3.08
-4.15
-5.78
-7.79
-9.81
-11.31
-11.81
-11.00
-8.75
-5.17
-0.50
5.01
11.23
18.21
26.24
35.69
46.72
58.93
71.22
81.85
88.78
90.06
84.24
70.73
50.17
24.68
-2.24
-26.44
-44.19
-53.40
-54.24
-48.92
-40.55
-31.89
-24.39
-18.16
-12.63
-7.38
-2.53
1.44
4.11
5.57
6.39
7.33
8.87
10.94
13.03
14.54
15.06
14.63
13.61
12.53
11.78
11.39
11.03
10.15
8.38
5.69
2.37
-1.13
-4.23
-6.50
-7.85
-8.63
-9.50
-10.89
-12.87
-15.21
-17.52
-19.17
-19.56
-18.57
-16.76
-15.30
-14.89
-15.73
-17.52
-19.70
-21.17
-20.71
-17.64
-12.25
-5.85
0.85
7.66
14.84
22.68
31.90
43.24
56.99
72.68
89.20
106.46
124.46
142.46
155.26
156.30
141.83
113.98
81.04
45.34
6.81
-35.75
-81.42
-127.47
-168.83
-199.35
-214.07
-211.70
-195.52
-170.97
-143.94
-118.95
-98.33
-81.85
-68.02
-55.66
-44.84
-36.68
-31.49
-28.54
-26.47
-23.97
-19.95
-13.82
-5.76
3.24
11.69
18.62
23.72
27.13
29.23
30.49
31.30
31.68
31.35
29.89
27.41
24.50
22.01
20.59
20.42
21.17
21.98
21.92
20.30
17.11
12.96
8.74
5.25
2.87
1.54
0.89
0.49
0.13
-0.16
-0.15
0.43
1.82
4.05
6.93
10.03
12.69
14.24
14.22
12.62
9.91
6.84
4.12
2.07
0.59
-0.68
-2.02
-3.37
-4.43
-4.75
-4.19
-2.92
-1.42
-0.18
0.49
0.55
0.20
-0.38
-1.03
-1.76
-2.68
-3.82
-5.16
-6.45
-7.37
-7.56
-6.79
-5.08
-2.71
-0.12
2.31
4.40
6.31
8.37
10.88
13.93
17.29
20.51
23.09
24.72
25.26
24.75
23.34
21.14
18.28
14.98
11.54
8.40
5.94
4.42
3.82
3.92
4.36
4.82
5.10
5.17
5.09
4.91
4.58
3.98
3.01
1.57
-0.37
-2.92
-6.27
-10.64
-16.01
-21.86
-27.09
-30.24
-30.01
-25.83
-18.28
-8.97
-0.05
6.56
9.75
9.56
7.03
3.66
0.89
-0.42
-0.18
1.03
2.29
2.86
2.43
1.21
-0.20
-1.10
-0.93
0.56
3.27
6.79
10.46
13.46
15.00
14.57
12.16
8.39
4.28
1.04
-0.41
0.34
3.09
7.06
11.17
14.30
15.58
14.69
12.03
8.55
5.47
3.74
3.62
4.59
5.61
5.69
4.40
2.05
-0.45
-2.12
-2.35
-1.17
0.82
2.81
4.09
4.36
3.71
2.50
1.23
0.31
-0.07
0.07
0.43
0.59
0.14
-1.14
-3.16
-5.55
-7.72
-9.11
-9.34
-8.40
-6.68
-4.88
-3.79
-4.05
-5.80
-8.65
-11.67
-13.77
-14.08
-12.28
-8.74
-4.34
-0.21
2.75
4.04
3.68
2.07
-0.18
-2.42
-4.08
-4.73
-4.14
-2.28
0.59
3.96
7.22
9.79
11.37
12.01
12.11
12.21
12.75
13.93
15.65
17.66
19.69
21.59
23.30
24.79
25.97
26.63
26.49
25.27
22.86
19.36
15.15
10.75
6.74
3.47
1.01
-0.84
-2.38
-3.71
-4.63
-4.67
-3.42
-0.79
2.81
6.52
9.39
10.76
10.58
9.38
8.01
7.31
7.73
9.25
11.43
13.66
15.46
16.70
17.74
19.33
22.44
27.89
36.00
46.24
57.03
65.86
69.77
66.13
53.67
33.17
7.57
-18.81
-41.53
-57.47
-65.66
-67.17
-64.33
-59.43
-53.95
-48.28
-42.17
-35.30
-27.72
-19.74
-11.68
-3.61
4.61
12.93
20.63
26.27
28.16
25.15
17.36
6.46
-4.85
-13.85
-18.82
-19.60
-17.48
-14.39
-12.05
-11.31
-12.01
-13.32
-14.31
-14.39
-13.54
-12.12
-10.66
-9.59
-9.09
-9.10
-9.42
-9.89
-10.37
-10.79
-11.07
-11.15
-10.97
-10.53
-9.92
-9.27
-8.71
-8.28
-8.02
-7.95
-8.17
-8.89
-10.25
-12.18
-14.26
-15.69
-15.46
-12.69
-7.10
0.88
10.14
19.45
28.04
36.04
44.49
54.82
68.03
83.99
101.14
116.64
126.92
128.42
118.43
96.00
62.79
23.21
-16.29
-48.88
-69.44
-76.07
-70.47
-56.87
-40.21
-24.48
-11.92
-3.22
1.79
3.50
2.32
-1.05
-5.57
-9.91
-12.89
-13.91
-13.22
-11.71
-10.60
-10.96
-13.29
-17.38
-22.40
-27.19
-30.75
-32.58
-32.80
-32.03
-31.07
-30.49
-30.45
-30.65
-30.58
-29.81
-28.28
-26.38
-24.78
-24.12
-24.65
-26.04
-27.56
-28.34
-27.92
-26.46
-24.69
-23.55
-23.66
-24.94
-26.57
-27.25
-25.73
-21.36
-14.28
-5.45
3.79
12.23
19.31
25.41
31.78
40.12
51.90
67.75
86.86
106.78
123.58
132.47
129.08
110.99
79.09
37.97
-5.03
-42.10
-67.49
-79.24
-79.30
-72.04
-62.00
-52.20
-43.58
-35.83
-28.49
-21.80
-16.58
-13.61
-12.86
-13.40
-13.79
-12.83
-10.17
-6.29
-2.25
0.92
2.66
2.99
2.42
1.60
1.05
0.96
1.10
0.94
-0.08
-2.37
-5.91
-10.22
-14.48
-17.81
-19.65
-20.01
-19.43
-18.77
-18.78
-19.79
-21.53
-23.31
-24.36
-24.16
-22.67
-20.26
-17.53
-15.03
-13.14
-11.90
-11.13
-10.37
-9.02
-6.50
-2.46
2.87
8.59
13.29
15.55
14.58
10.66
5.07
-0.32
-3.84
-4.71
-3.19
-0.39
2.31
3.85
3.86
2.60
0.81
-0.71
-1.38
-0.94
0.56
2.78
5.29
7.61
9.25
9.77
8.90
6.65
3.36
-0.32
-3.64
-5.99
-7.06
-6.99
-6.16
-5.04
-4.01
-3.25
-2.72
-2.26
-1.65
-0.66
0.88
3.11
5.94
9.10
12.03
14.08
14.68
13.66
11.32
8.46
6.09
4.99
5.37
6.79
8.40
9.35
9.23
8.21
6.84
5.68
4.98
4.65
4.34
3.76
2.78
1.44
-0.22
-2.14
-4.29
-6.55
-8.71
-10.56
-12.10
-13.51
-15.15
-17.25
-19.74
-22.12
-23.68
-23.74
-21.99
-18.58
-14.05
-9.15
-4.58
-0.81
2.07
4.27
6.20
8.35
11.10
14.64
18.93
23.63
28.08
31.35
32.44
30.60
25.67
18.34
9.96
2.17
-3.68
-6.86
-7.42
-5.89
-3.05
0.31
3.42
5.53
5.98
4.48
1.35
-2.44
-5.59
-6.97
-6.15
-3.63
-0.58
1.61
1.89
-0.09
-3.90
-8.55
-12.85
-15.77
-16.66
-15.38
-12.23
-7.80
-2.74
2.31
6.79
10.21
12.10
12.13
10.24
6.75
2.36
-2.06
-5.70
-7.98
-8.70
-7.97
-6.08
-3.38
-0.27
2.84
5.50
7.28
7.89
7.39
6.18
4.90
4.18
4.35
5.29
6.53
7.50
7.89
7.81
7.76
8.31
9.80
12.18
15.01
17.64
19.46
19.96
18.81
15.87
11.19
5.14
-1.55
-7.90
-12.82
-15.45
-15.38
-12.75
-8.14
-2.41
3.58
9.02
13.28
15.88
16.57
15.34
12.61
9.10
5.69
3.13
1.80
1.56
1.91
2.21
2.07
1.47
0.80
0.61
1.36
3.09
5.43
7.72
9.24
9.61
8.89
7.70
6.93
7.38
9.34
12.36
15.35
17.16
17.12
15.69
14.44
15.56
21.11
32.19
48.51
68.39
88.97
106.55
116.92
116.12
101.59
73.35
34.79
-7.81
-47.08
-76.94
-94.52
-100.69
-98.93
-93.32
-86.74
-80.25
-73.55
-66.15
-58.14
-50.37
-43.85
-39.13
-35.91
-33.35
-30.62
-27.43
-24.18
-21.73
-20.88
-21.90
-24.35
-27.22
-29.42
-30.22
-29.48
-27.70
-25.63
-23.84
-22.49
-21.17
-19.16
-15.85
-11.06
-5.19
0.88
6.15
9.97
12.19
13.23
13.72
14.21
14.88
15.52
15.70
15.07
13.52
11.26
8.66
6.08
3.70
1.48
-0.77
-3.26
-6.04
-8.97
-11.75
-13.95
-15.12
-14.87
-12.95
-9.41
-4.66
0.60
5.44
8.98
10.70
10.61
9.33
7.84
7.07
7.55
9.11
11.07
12.65
13.39
13.48
13.61
14.57
16.79
20.03
23.50
26.32
27.98
28.52
28.38
28.07
27.76
27.24
26.07
23.91
20.72
16.82
12.73
8.95
5.79
3.33
1.48
0.05
-1.14
-2.28
-3.54
-5.14
-7.24
-9.97
-13.28
-16.94
-20.58
-23.81
-26.27
-27.78
-28.34
-28.12
-27.34
-26.24
-25.02
-23.82
-22.72
-21.74
-20.84
-19.93
-18.87
-17.51
-15.76
-13.63
-11.29
-9.05
-7.26
-6.17
-5.83
-6.03
-6.41
-6.55
-6.17
-5.17
-3.69
-2.11
-0.93
-0.65
-1.55
-3.49
-5.86
-7.74
-8.19
-6.70
-3.30
1.35
6.33
10.89
14.70
17.97
21.20
24.81
28.81
32.71
35.62
36.54
34.87
30.55
24.23
16.97
9.90
3.91
-0.50
-3.19
-4.26
-3.81
-2.01
0.89
4.43
7.94
10.73
12.33
12.62
11.91
10.78
9.80
9.38
9.63
10.47
11.68
12.97
13.99
14.34
13.63
11.74
8.91
5.87
3.61
3.01
4.36
7.17
10.27
12.26
12.22
10.04
6.56
3.13
0.97
0.69
1.99
3.91
5.39
5.62
4.46
2.28
-0.24
-2.42
-3.81
-4.23
-3.75
-2.48
-0.58
1.74
4.17
6.27
7.54
7.65
6.66
5.18
4.24
4.91
7.79
12.53
17.84
21.91
23.12
20.63
14.56
5.58
-5.65
-18.77
-33.71
-50.15
-66.98
-82.27
-93.66
-99.25
-98.34
-91.74
-81.42
-69.73
-58.59
-49.04
-41.20
-34.69
-29.04
-23.94
-19.36
-15.33
-11.75
-8.36
-4.79
-0.78
3.64
8.24
12.68
16.84
20.94
25.45
30.96
37.80
45.93
54.81
63.52
70.87
75.59
76.61
73.33
65.85
55.14
42.86
30.92
21.00
14.02
10.01
8.23
7.67
7.49
7.38
7.50
8.31
10.19
13.19
16.90
20.61
23.41
24.50
23.28
19.45
13.13
4.96
-3.95
-12.14
-18.18
-21.08
-20.72
-17.86
-13.87
-10.21
-7.89
-7.20
-7.77
-8.88
-9.81
-10.13
-9.75
-8.80
-7.54
-6.14
-4.64
-3.01
-1.15
0.90
2.99
4.79
5.90
6.08
5.36
4.07
2.77
1.96
1.89
2.52
3.53
4.56
5.43
6.10
6.71
7.35
8.06
8.77
9.37
9.80
9.97
9.73
8.80
6.87
3.64
-0.90
-6.41
-12.24
-17.59
-21.70
-24.04
-24.38
-22.69
-19.09
-13.78
-7.05
0.56
8.23
14.87
19.31
20.66
18.56
13.27
5.63
-3.15
-11.74
-18.97
-24.00
-26.43
-26.35
-24.29
-20.95
-17.06
-13.12
-9.32
-5.73
-2.39
0.50
2.73
4.14
4.87
5.31
6.07
7.63
10.20
13.62
17.43
21.06
24.07
26.40
28.38
30.67
34.02
38.90
45.20
52.10
58.22
61.92
61.76
56.84
47.15
33.55
17.74
1.80
-12.26
-23.03
-29.95
-33.41
-34.38
-34.05
-33.46
-33.24
-33.63
-34.61
-35.97
-37.46
-38.77
-39.62
-39.75
-39.10
-37.73
-35.93
-34.05
-32.50
-31.56
-31.28
-31.37
-31.16
-29.76
-26.35
-20.46
-12.20
-2.31
8.00
17.34
24.45
28.50
29.20
26.86
22.31
16.60
10.84
5.83
2.01
-0.63
-2.33
-3.42
-4.17
-4.75
-5.26
-5.81
-6.49
-7.34
-8.25
-9.02
-9.39
-9.22
-8.62
-7.96
-7.79
-8.57
-10.45
-13.16
-16.06
-18.35
-19.31
-18.48
-15.77
-11.40
-5.82
0.36
6.45
11.73
15.58
17.58
17.63
15.97
13.11
9.72
6.46
3.86
2.22
1.58
1.69
2.18
2.68
2.94
2.93
2.76
2.56
2.43
2.32
2.22
2.12
2.07
2.14
2.31
2.47
2.47
2.21
1.63
0.80
-0.20
-1.28
-2.36
-3.41
-4.46
-5.57
-6.79
-8.12
-9.39
-10.31
-10.53
-9.81
-8.15
-5.80
-3.17
-0.69
1.42
3.13
4.56
5.85
7.08
8.26
9.28
10.03
10.42
10.46
10.20
9.74
9.18
8.55
7.87
7.12
6.33
5.59
5.01
4.67
4.54
4.51
4.44
4.19
3.72
3.07
2.31
1.53
0.72
-0.15
-1.09
-2.13
-3.21
-4.29
-5.32
-6.24
-7.00
-7.52
-7.67
-7.29
-6.28
-4.70
-2.72
-0.67
1.11
2.41
3.21
3.67
3.98
4.24
4.42
4.40
4.06
3.47
2.82
2.34
2.18
2.34
2.66
2.97
3.21
3.47
3.88
4.53
5.34
6.09
6.53
6.51
6.02
5.20
4.21
3.16
2.08
0.96
-0.21
-1.39
-2.49
-3.44
-4.23
-4.87
-5.39
-5.70
-5.64
-4.99
-3.64
-1.64
0.74
3.15
5.30
7.09
8.61
9.97
11.15
11.89
11.80
10.57
8.15
4.88
1.30
-2.04
-4.80
-6.85
-8.30
-9.27
-9.86
-10.09
-9.99
-9.58
-8.92
-8.06
-6.99
-5.70
-4.12
-2.22
-0.06
2.19
4.25
5.75
6.36
5.90
4.47
2.38
0.10
-1.90
-3.25
-3.71
-3.16
-1.64
0.64
3.25
5.55
6.84
6.54
4.43
0.69
-4.20
-9.61
-15.00
-19.92
-24.10
-27.32
-29.40
-30.23
-29.82
-28.35
-26.21
-23.88
-21.83
-20.39
-19.63
-19.38
-19.38
-19.37
-19.22
-18.90
-18.43
-17.76
-16.72
-15.14
-12.96
-10.31
-7.51
-4.96
-2.96
-1.64
-0.89
-0.38
0.27
1.40
3.21
5.69
8.63
11.69
14.49
16.69
18.07
18.53
18.14
17.07
15.55
13.84
12.16
10.66
9.41
8.44
7.80
7.53
7.65
8.04
8.55
8.99
9.21
9.24
9.22
9.28
9.50
9.77
9.89
9.59
8.73
7.33
5.59
3.80
2.21
0.99
0.10
-0.61
-1.41
-2.49
-3.91
-5.54
-7.11
-8.27
-8.71
-8.25
-6.85
-4.62
-1.84
1.10
3.75
5.74
6.89
7.29
7.22
7.06
7.11
7.46
8.02
8.64
9.16
9.52
9.70
9.67
9.41
8.83
7.93
6.81
5.64
4.65
3.99
3.70
3.63
3.57
3.27
2.59
1.58
0.45
-0.54
-1.21
-1.60
-1.93
-2.52
-3.64
-5.34
-7.53
-9.89
-12.10
-13.76
-14.54
-14.16
-12.46
-9.51
-5.58
-1.12
3.36
7.42
10.76
13.22
14.74
15.32
15.03
14.03
12.52
10.76
8.92
7.11
5.40
3.83
2.49
1.53
1.05
1.10
1.59
2.36
3.20
3.90
4.33
4.43
4.26
4.03
4.02
4.56
5.88
7.98
10.59
13.26
15.45
16.78
17.22
17.11
17.16
18.09
20.42
24.15
28.73
33.31
37.07
39.63
41.14
42.16
43.35
45.13
47.48
49.97
51.98
52.87
52.17
49.65
45.31
39.53
32.96
26.51
20.94
16.44
12.20
6.43
-3.06
-18.00
-38.71
-63.74
-90.24
-114.88
-134.90
-148.76
-156.16
-157.63
-153.99
-146.13
-135.06
-122.05
-108.60
-96.16
-85.61
-77.03
-69.70
-62.62
-54.91
-46.26
-36.93
-27.59
-19.02
-11.80
-6.18
-2.07
0.85
3.06
4.96
6.74
8.38
9.68
10.45
10.63
10.42
10.19
10.30
10.89
11.86
12.88
13.51
13.43
12.57
11.11
9.43
8.01
7.26
7.43
8.59
10.73
13.76
17.72
22.73
29.02
36.75
45.98
56.50
67.80
79.11
89.51
98.16
104.47
108.29
109.85
109.59
108.00
105.36
101.59
96.41
89.63
81.32
72.03
62.57
53.66
45.81
39.01
32.65
25.91
18.25
9.70
0.87
-7.40
-14.70
-21.13
-27.58
-35.49
-46.25
-60.37
-77.04
-94.14
-108.71
-117.88
-119.36
-112.14
-97.04
-76.43
-53.65
-32.42
-16.14
-5.90
-2.98
-6.61
-13.66
-20.23
-23.66
-23.14
-19.38
-13.67
-7.23
-0.95
4.92
10.30
14.89
18.24
20.12
20.80
21.02
21.63
23.07
25.44
28.49
31.57
34.01
35.42
35.93
36.03
36.23
36.79
37.51
38.21
38.50
37.95
36.42
33.75
30.51
27.22
24.16
21.09
18.06
15.02
11.96
8.85
5.82
3.03
0.51
-1.92
-5.11
-9.32
-14.68
-21.06
-28.19
-35.71
-43.17
-50.49
-54.61
-57.35
-59.96
-63.01
-66.23
-69.10
-70.88
-70.99
-69.50
-67.07
-65.39
-65.45
-67.55
-70.96
-74.53
-76.89
-77.07
-74.93
-71.14
-67.39
-64.73
-65.11
-67.47
-71.26
-75.66
-79.20
-79.42
-73.19
-58.43
-34.68
-4.11
29.00
59.28
82.62
97.62
105.73
110.15
113.30
116.07
117.58
116.26
111.04
102.67
93.67
85.42
80.71
79.40
78.53
74.26
64.53
50.19
34.86
22.80
16.61
16.23
18.91
21.40
21.81
20.22
18.07
17.07
18.04
20.54
23.49
25.55
25.94
24.82
22.84
20.75
19.02
17.66
16.22
14.15
11.00
6.86
2.38
-2.08
-6.09
-9.30
-11.47
-12.64
-12.81
-11.98
-9.90
-6.13
-1.65
2.61
6.21
9.28
12.15
15.28
19.17
24.50
31.92
39.09
43.83
45.28
44.02
41.27
38.38
36.78
37.81
42.53
47.15
48.04
43.54
34.24
21.60
6.98
-8.94
-26.89
-43.32
-62.60
-89.36
-125.51
-169.88
-220.38
-275.84
-335.98
-400.35
-440.47
-437.40
-389.66
-311.59
-220.50
-130.16
-50.78
10.88
52.83
78.23
88.82
87.79
79.31
67.45
54.90
43.29
34.14
29.22
29.89
32.68
33.73
31.06
25.07
17.55
10.91
7.13
7.85
13.55
21.24
27.57
30.52
29.89
26.60
22.44
18.97
17.21
17.41
18.02
17.30
14.27
9.04
2.38
-3.90
-8.15
-9.11
-6.23
-0.21
7.56
15.75
23.99
27.95
26.68
20.81
12.10
2.54
-6.39
-14.11
-20.91
-27.31
-33.87
-40.13
-45.60
-49.70
-51.89
-51.80
-49.37
-44.91
-38.86
-31.86
-24.12
-16.02
-8.04
-0.50
6.21
11.77
15.97
19.33
22.47
26.13
30.29
34.35
37.50
38.97
38.44
36.19
34.49
35.57
40.48
48.24
56.74
63.82
68.02
68.76
66.48
64.98
67.73
75.70
86.64
97.03
104.08
106.53
104.58
99.57
97.80
104.64
121.27
143.92
167.07
186.66
201.04
210.25
215.19
222.74
239.05
266.49
303.30
346.87
395.77
448.44
501.04
511.95
453.05
327.13
168.84
18.43
-99.96
-180.49
-229.03
-256.10
-271.76
-277.04
-270.40
-252.56
-228.68
-205.51
-187.94
-177.89
-175.14
-178.21
-180.85
-178.14
-169.37
-158.39
-150.30
-148.31
-153.10
-163.89
-179.24
-194.88
-207.55
-216.99
-226.15
-238.68
-256.28
-277.39
-297.44
-310.16
-308.34
-288.17
-251.34
-204.58
-156.46
-113.67
-78.77
-51.05
-29.07
-9.95
8.41
26.37
42.75
56.28
66.63
74.61
81.33
87.48
93.01
96.86
97.74
95.02
89.31
82.35
76.12
71.83
69.45
67.95
65.85
62.02
56.32
49.56
42.95
37.42
33.17
29.76
26.52
22.82
18.39
13.36
8.09
2.94
-1.84
-6.30
-10.63
-15.09
-20.01
-25.65
-32.15
-39.32
-46.53
-52.70
-56.53
-56.80
-52.82
-44.70
-33.47
-20.76
-8.30
2.53
10.99
16.93
20.60
22.37
22.66
21.93
20.71
19.56
18.91
18.93
19.49
20.29
20.98
21.34
21.36
21.15
20.87
20.66
20.56
20.55
20.54
20.40
19.98
19.12
17.71
15.69
13.07
9.97
6.59
3.20
0.03
-2.80
-5.35
-7.87
-10.67
-14.06
-18.26
-23.37
-29.26
-35.44
-40.99
-44.69
-45.27
-41.93
-34.68
-24.40
-12.58
-0.76
9.90
18.84
26.03
31.63
35.83
38.73
40.38
40.92
40.61
39.78
38.79
37.91
37.28
36.88
36.54
36.04
35.21
34.03
32.65
31.30
30.11
29.06
27.97
26.60
24.75
22.37
19.47
16.08
12.16
7.71
2.82
-2.22
-7.00
-11.06
-14.21
-16.57
-18.59
-20.89
-23.90
-27.70
-31.80
-35.31
-37.19
-36.56
-33.06
-26.94
-18.95
-10.13
-1.49
6.14
12.29
16.77
19.65
21.20
21.75
21.63
21.12
20.40
19.56
18.66
17.70
16.67
15.51
14.17
12.61
10.88
9.21
7.91
7.19
7.06
7.25
7.27
6.59
4.90
2.19
-1.26
-4.97
-8.47
-11.47
-13.91
-16.01
-18.15
-20.76
-24.18
-28.47
-33.33
-38.04
-41.58
-42.87
-41.14
-36.14
-28.31
-18.68
-8.56
0.87
8.81
14.97
19.47
22.65
24.84
26.26
27.05
27.31
27.22
27.00
26.89
27.02
27.37
27.72
27.79
27.37
26.44
25.19
23.89
22.79
21.88
20.97
19.69
17.74
15.00
11.56
7.69
3.69
-0.16
-3.66
-6.70
-9.34
-11.76
-14.32
-17.40
-21.31
-25.97
-30.90
-35.24
-37.97
-38.25
-35.64
-30.23
-22.64
-13.77
-4.58
4.13
11.83
18.34
23.66
27.94
31.27
33.73
35.28
35.92
35.74
34.94
33.84
32.83
32.26
32.27
32.73
33.31
33.62
33.43
32.73
31.75
30.78
29.98
29.29
28.42
27.06
24.96
22.15
18.82
15.33
11.99
8.98
6.35
3.99
1.72
-0.64
-3.24
-6.23
-9.68
-13.57
-17.69
-21.56
-24.45
-25.53
-24.14
-20.12
-13.96
-6.65
0.63
6.90
11.70
15.07
17.39
19.05
20.24
20.99
21.19
20.81
19.99
18.97
18.00
17.23
16.62
16.07
15.49
14.86
14.35
14.17
14.55
15.53
16.86
18.10
18.71
18.30
16.77
14.32
11.39
8.41
5.72
3.46
1.67
0.29
-0.82
-1.89
-3.25
-5.25
-8.09
-11.62
-15.27
-18.20
-19.51
-18.59
-15.36
-10.24
-4.09
2.17
7.78
12.31
15.70
18.07
19.61
20.47
20.78
20.67
20.32
19.92
19.59
19.34
19.06
18.65
18.07
17.46
17.02
16.95
17.25
17.75
18.14
18.14
17.62
16.63
15.36
13.98
12.56
11.07
9.43
7.64
5.77
3.96
2.30
0.75
-0.83
-2.62
-4.72
-7.16
-9.86
-12.79
-15.89
-19.07
-22.03
-24.31
-25.32
-24.58
-21.92
-17.60
-12.21
-6.50
-1.14
3.42
7.02
9.69
11.59
12.90
13.78
14.32
14.55
14.47
14.10
13.56
13.04
12.71
12.67
12.92
13.32
13.78
14.22
14.64
15.08
15.49
15.78
15.83
15.53
14.89
14.06
13.21
12.48
11.93
11.51
11.09
10.48
9.53
8.17
6.43
4.46
2.48
0.67
-0.93
-2.43
-4.10
-6.23
-9.02
-12.41
-16.11
-19.60
-22.28
-23.62
-23.28
-21.24
-17.76
-13.33
-8.54
-3.92
0.12
3.42
5.96
7.87
9.31
10.42
11.23
11.72
11.92
11.87
11.71
11.65
11.81
12.23
12.85
13.50
14.03
14.37
14.53
14.60
14.67
14.81
15.00
15.14
15.05
14.57
13.58
12.11
10.34
8.50
6.75
5.10
3.41
1.51
-0.70
-3.16
-5.65
-7.88
-9.66
-10.91
-11.71
-12.26
-12.79
-13.53
-14.58
-15.98
-17.66
-19.46
-21.11
-22.28
-22.57
-21.63
-19.25
-15.47
-10.61
-5.27
-0.10
4.35
7.77
10.16
11.74
12.82
13.59
14.12
14.37
14.31
13.97
13.48
13.00
12.65
12.48
12.42
12.40
12.35
12.29
12.27
12.36
12.58
12.85
13.00
12.83
12.14
10.86
9.06
6.98
4.93
3.18
1.82
0.69
-0.49
-1.99
-3.87
-5.99
-8.02
-9.67
-10.82
-11.59
-12.24
-13.09
-14.30
-15.87
-17.57
-19.07
-19.98
-19.98
-18.90
-16.76
-13.78
-10.33
-6.85
-3.63
-0.82
1.57
3.59
5.28
6.58
7.39
7.63
7.37
6.76
6.06
5.50
5.21
5.19
5.38
5.68
6.03
6.37
6.67
6.90
7.02
6.96
6.68
6.14
5.32
4.24
2.96
1.57
0.17
-1.19
-2.46
-3.63
-4.69
-5.66
-6.53
-7.34
-8.15
-9.06
-10.16
-11.52
-13.14
-14.90
-16.55
-17.75
-18.11
-17.34
-15.38
-12.47
-9.05
-5.70
-2.87
-0.80
0.52
1.29
1.75
2.11
2.48
2.90
3.32
3.67
3.83
3.75
3.43
3.02
2.72
2.71
3.03
3.54
4.03
4.28
4.20
3.85
3.41
3.04
2.82
2.73
2.67
2.50
2.15
1.59
0.90
0.15
-0.53
-1.01
-1.21
-1.03
-0.45
0.47
1.55
2.49
2.93
2.59
1.41
-0.36
-2.24
-3.65
-4.15
-3.63
-2.31
-0.67
0.82
1.80
2.18
2.07
1.69
1.22
0.79
0.40
0.04
-0.29
-0.57
-0.75
-0.82
-0.81
-0.83
-0.95
-1.23
-1.65
-2.12
-2.55
-2.86
-3.05
-3.17
-3.27
-3.41
-3.58
-3.77
-3.92
-3.96
-3.91
-3.83
-3.85
-4.10
-4.68
-5.57
-6.63
-7.68
-8.56
-9.15
-9.47
-9.57
-9.57
-9.60
-9.81
-10.34
-11.26
-12.51
-13.79
-14.67
-14.70
-13.62
-11.50
-8.74
-5.91
-3.51
-1.79
-0.74
-0.13
0.29
0.68
1.08
1.41
1.61
1.60
1.38
0.95
0.29
-0.59
-1.67
-2.82
-3.91
-4.78
-5.34
-5.62
-5.71
-5.78
-6.04
-6.65
-7.68
-9.08
-10.66
-12.19
-13.44
-14.33
-14.89
-15.31
-15.78
-16.37
-17.02
-17.53
-17.69
-17.41
-16.73
-15.83
-14.95
-14.27
-13.90
-13.82
-13.92
-13.99
-13.76
-12.94
-11.34
-8.90
-5.80
-2.42
0.76
3.38
5.25
6.46
7.25
7.87
8.44
8.96
9.33
9.51
9.52
9.48
9.48
9.54
9.60
9.53
9.24
8.77
8.21
7.70
7.31
7.06
6.89
6.75
6.57
6.30
5.91
5.40
4.78
4.10
3.42
2.82
2.39
2.16
2.15
2.33
2.64
3.04
3.47
3.89
4.34
4.91
5.80
7.19
9.26
12.11
15.72
19.98
24.72
29.73
34.80
39.72
44.31
48.44
52.07
55.30
58.33
61.53
65.27
69.89
75.48
81.65
87.51
91.70
92.81
89.88
82.86
72.76
61.31
50.46
41.57
35.14
30.66
27.09
23.21
17.99
10.74
1.04
-11.19
-25.63
-41.45
-57.37
-71.97
-84.06
-93.11
-99.23
-103.03
-105.14
-105.92
-105.33
-103.08
-98.91
-92.70
-84.60
-74.91
-64.12
-52.75
-41.47
-31.00
-22.03
-15.14
-10.65
-8.63
-8.90
-11.17
-15.07
-20.17
-26.01
-32.07
-37.85
-42.92
-46.94
-49.69
-51.09
-51.14
-49.86
-47.46
-44.25
-40.72
-37.43
-34.87
-33.27
-32.53
-32.30
-32.12
-31.64
-30.73
-29.44
-27.90
-26.24
-24.52
-22.76
-20.99
-19.25
-17.57
-15.94
-14.31
-12.63
-10.90
-9.20
-7.68
-6.51
-5.81
-5.56
-5.60
-5.58
-5.10
-3.84
-1.67
1.24
4.53
7.76
10.57
12.83
14.59
16.01
17.28
18.48
19.69
20.89
22.09
23.19
24.09
24.70
24.94
24.89
24.70
24.57
24.63
24.93
25.37
25.75
25.80
25.23
23.83
21.47
18.21
14.23
9.86
5.43
1.23
-2.64
-6.15
-9.35
-12.26
-14.84
-17.03
-18.79
-20.15
-21.13
-21.74
-21.95
-21.76
-21.30
-20.91
-21.14
-22.56
-25.47
-29.71
-34.57
-38.96
-41.74
-42.07
-39.58
-34.55
-27.79
-20.40
-13.44
-7.57
-2.85
1.26
5.68
11.22
18.30
26.76
36.07
45.72
55.55
65.84
76.99
89.02
101.24
112.32
120.87
126.15
128.62
129.91
132.25
137.72
147.59
162.13
180.54
200.99
220.79
236.74
245.87
246.22
237.61
221.49
200.17
175.46
147.55
114.73
74.26
24.20
-34.81
-98.73
-160.79
-213.36
-250.29
-268.85
-270.38
-259.65
-243.11
-226.71
-214.00
-205.27
-197.89
-187.94
-172.23
-150.02
-123.45
-96.46
-73.05
-55.66
-44.62
-38.79
-36.82
-38.04
-42.30
-49.22
-57.41
-64.39
-67.54
-65.17
-57.36
-45.94
-33.57
-22.64
-14.28
-7.96
-1.68
7.11
20.26
37.70
57.06
74.26
85.16
87.31
81.17
69.87
57.96
49.48
46.61
49.21
55.54
63.39
71.24
78.95
87.84
100.04
117.43
140.37
166.78
192.20
210.68
216.57
206.16
178.72
136.69
85.04
30.25
-21.02
-63.19
-92.96
-109.89
-116.15
-115.45
-111.37
-105.94
-99.06
-89.07
-74.07
-53.36
-28.22
-1.71
22.09
39.11
46.21
41.75
25.88
0.67
-30.28
-62.47
-91.37
-113.31
-126.05
-129.00
-122.93
-109.58
-91.08
-69.71
-47.83
-28.04
-13.07
-5.27
-5.73
-13.62
-25.99
-38.49
-46.97
-48.93
-44.33
-35.29
-24.77
-15.27
-8.12
-3.35
-0.32
1.56
2.42
2.03
0.24
-2.72
-6.11
-9.18
-11.28
-12.12
-11.89
-11.21
-10.97
-11.96
-14.48
-18.23
-22.98
-28.10
-32.71
-35.75
-36.46
-34.66
-30.65
-24.97
-18.30
-12.80
-10.69
-13.51
-21.44
-33.17
-46.20
-57.18
-62.83
-61.27
-55.05
-48.80
-47.00
-51.79
-62.43
-76.00
-88.83
-97.99
-102.35
-105.19
-110.19
-119.07
-130.81
-143.38
-155.99
-169.77
-187.00
-192.74
-176.53
-136.78
-82.39
-25.23
26.67
69.90
103.79
129.09
147.33
157.76
160.11
155.53
146.90
137.42
129.39
123.84
120.98
120.52
120.05
117.44
111.97
104.68
97.29
91.19
87.03
84.97
84.81
85.09
84.47
82.42
79.42
76.30
73.65
71.57
69.90
68.06
65.18
60.42
53.32
44.07
33.01
20.57
7.19
-5.80
-18.04
-29.09
-38.54
-46.11
-51.64
-55.44
-58.08
-60.12
-61.94
-63.68
-65.01
-65.55
-65.15
-63.89
-62.53
-61.86
-62.47
-64.39
-67.09
-69.46
-70.47
-70.28
-68.13
-64.55
-60.37
-56.46
-53.60
-52.50
-53.39
-55.69
-57.60
-56.16
-48.50
-33.09
-10.87
14.61
38.40
56.13
65.65
67.54
64.36
58.93
53.10
47.43
41.61
35.46
29.33
23.95
20.01
17.57
15.89
13.92
10.64
5.67
-0.47
-6.73
-12.03
-15.75
-18.03
-19.68
-21.75
-24.96
-29.30
-33.84
-37.34
-38.80
-37.82
-34.65
-29.93
-24.24
-17.65
-11.49
-6.18
-1.94
1.06
2.78
3.37
3.17
2.67
2.21
1.89
1.73
1.59
1.33
0.93
0.52
0.30
0.41
0.86
1.46
2.14
2.72
2.98
2.76
1.98
0.73
-0.86
-2.65
-4.67
-6.96
-9.66
-12.86
-16.55
-20.70
-25.30
-30.32
-35.61
-40.66
-44.45
-45.69
-43.22
-36.57
-26.31
-14.07
-2.08
7.42
12.90
13.93
11.21
6.24
0.72
-3.91
-6.90
-8.13
-7.96
-6.93
-5.51
-4.10
-3.00
-2.50
-2.87
-4.27
-6.67
-9.81
-13.25
-16.52
-19.15
-20.85
-21.46
-20.99
-19.54
-17.26
-14.29
-10.73
-6.78
-2.82
0.48
2.36
2.37
0.76
-1.26
-1.77
1.14
8.49
19.84
33.23
45.80
54.86
58.79
57.62
52.83
46.64
41.16
37.77
36.75
37.45
38.67
38.99
37.11
32.11
23.54
11.68
-2.39
-16.80
-29.23
-37.52
-40.33
-37.66
-30.80
-21.89
-13.16
-6.18
-1.49
1.47
3.96
7.39
12.78
20.37
29.52
38.94
47.12
52.87
55.69
55.90
54.35
52.11
50.13
49.00
49.02
50.12
51.89
53.54
53.98
52.14
47.41
39.99
30.82
21.30
12.71
5.77
0.46
-3.70
-7.25
-10.42
-13.04
-14.68
-15.03
-14.19
-12.76
-11.67
-11.84
-13.90
-17.91
-23.43
-29.64
-35.67
-40.79
-44.58
-46.90
-47.85
-47.73
-46.96
-45.97
-45.06
-44.29
-43.42
-42.04
-39.73
-36.35
-32.00
-27.00
-21.67
-16.20
-10.52
-4.50
1.96
8.74
15.49
21.73
27.04
31.10
33.82
35.28
35.58
34.84
33.13
30.51
27.10
23.17
19.10
15.28
12.01
9.40
7.38
5.77
4.40
3.16
1.95
0.71
-0.70
-2.46
-4.77
-7.75
-11.35
-15.26
-18.85
-21.30
-21.76
-19.69
-15.05
-8.35
-0.52
7.36
14.40
20.07
24.16
26.70
27.82
27.73
26.68
24.97
22.91
20.76
18.69
16.78
15.00
13.33
11.75
10.29
9.01
7.98
7.24
6.79
6.55
6.33
5.97
5.38
4.58
3.66
2.69
1.70
0.57
-0.89
-2.82
-5.32
-8.28
-11.40
-14.12
-15.79
-15.74
-13.59
-9.36
-3.60
2.81
8.90
13.90
17.47
19.57
20.39
20.17
19.14
17.55
15.73
13.99
12.63
11.75
11.29
11.02
10.72
10.28
9.77
9.33
9.11
9.16
9.34
9.35
8.86
7.63
5.70
3.39
1.21
-0.36
-1.06
-1.04
-0.73
-0.68
-1.32
-2.73
-4.60
-6.30
-7.05
-6.17
-3.24
1.70
8.17
15.31
22.13
27.75
31.65
33.69
34.13
33.43
32.07
30.37
28.46
26.35
24.01
21.50
18.99
16.71
14.89
13.57
12.62
11.79
10.83
9.63
8.29
6.99
5.89
5.02
4.20
3.20
1.86
0.05
-2.19
-4.81
-7.76
-10.97
-14.24
-17.27
-19.58
-20.65
-20.07
-17.71
-13.79
-8.80
-3.38
1.87
6.51
10.35
13.36
15.64
17.23
18.13
18.34
17.89
16.92
15.68
14.43
13.29
12.32
11.45
10.62
9.86
9.25
8.90
8.84
8.99
9.19
9.20
8.80
7.86
6.39
4.56
2.67
1.02
-0.24
-1.14
-2.00
-3.20
-5.04
-7.57
-10.47
-13.16
-14.95
-15.23
-13.67
-10.29
-5.46
0.19
5.98
11.31
15.79
19.33
21.94
23.80
25.07
25.89
26.42
26.84
27.36
28.15
29.30
30.71
32.20
33.46
34.22
34.28
33.57
32.12
30.11
27.72
25.14
22.48
19.79
17.06
14.25
11.37
8.49
5.78
3.43
1.52
0.02
-1.30
-2.73
-4.55
-6.89
-9.63
-12.44
-14.88
-16.51
-17.05
-16.40
-14.71
-12.25
-9.41
-6.61
-4.15
-2.25
-0.97
-0.22
0.15
0.34
0.46
0.54
0.59
0.64
0.81
1.27
2.14
3.36
4.74
5.95
