1660936063.00
64.000000
-0.00
-0.00
-0.00
-0.00
-0.00
-0.00
-0.00
-0.00
-0.00
-0.00
0.00
0.01
0.01
-0.00
-0.03
-0.05
-0.05
0.00
0.13
0.36
0.66
1.01
1.37
1.72
2.06
2.40
2.79
3.25
3.81
4.44
5.10
5.73
6.32
6.89
7.51
8.25
9.15
10.29
11.57
12.84
13.98
14.96
15.85
16.85
18.19
20.03
22.55
25.54
28.70
31.71
34.45
37.04
39.84
43.34
47.84
53.66
60.39
67.45
74.24
80.50
86.41
92.62
99.91
108.78
119.63
131.74
144.16
155.97
166.75
176.84
187.19
199.34
211.95
226.97
244.56
264.45
285.33
304.51
318.22
322.39
314.03
292.19
258.75
216.82
170.09
121.56
73.10
25.62
-20.22
-63.73
-104.21
-141.10
-174.97
-207.13
-239.36
-273.16
-308.94
-345.34
-379.09
-405.85
-421.31
-423.01
-411.27
-389.21
-361.44
-332.31
-304.56
-278.88
-254.70
-231.18
-208.25
-186.64
-167.28
-150.57
-136.02
-122.53
-108.99
-94.90
-80.49
-66.67
-54.43
-44.35
-36.33
-29.70
-23.56
-17.24
-10.54
-3.77
2.46
7.62
11.47
14.16
16.10
17.73
19.35
21.01
22.62
24.00
25.04
25.69
25.99
26.04
25.91
25.71
25.49
25.30
25.11
24.87
24.50
23.94
23.20
22.38
21.57
20.86
20.26
19.74
19.25
18.75
18.25
17.78
17.35
16.94
16.48
15.92
15.26
14.57
13.95
13.48
13.14
12.88
12.62
12.31
11.98
11.65
11.34
11.03
10.70
10.35
10.06
9.91
9.90
9.98
10.02
9.91
9.60
9.16
8.67
8.24
7.89
7.60
7.33
7.07
6.81
6.59
6.40
6.20
5.94
5.57
5.09
4.56
4.04
3.60
3.25
2.94
2.60
2.20
1.71
1.18
0.62
0.03
-0.59
-1.25
-1.89
-2.44
-2.85
-3.13
-3.37
-3.69
-4.17
-4.81
-5.49
-6.11
-6.59
-6.98
-7.35
-7.82
-8.39
-9.02
-9.59
-9.95
-10.04
-9.84
-9.43
-8.91
-8.38
-7.86
-7.34
-6.78
-6.18
-5.58
-5.05
-4.64
-4.33
-4.01
-3.55
-2.86
-1.97
-1.04
-0.23
0.29
0.52
0.54
0.52
0.57
0.76
1.02
1.29
1.50
1.68
1.86
2.11
2.41
2.72
2.96
3.12
3.21
3.33
3.53
3.79
4.04
4.16
4.10
3.89
3.64
3.50
3.57
3.82
4.16
4.43
4.51
4.39
4.16
3.96
3.87
3.88
3.94
3.93
3.82
3.65
3.50
3.48
3.64
3.95
4.33
4.68
4.91
4.99
4.91
4.73
4.50
4.30
4.13
3.97
3.79
3.53
3.22
2.92
2.71
2.61
2.60
2.59
2.53
2.40
2.24
2.12
2.06
2.02
1.94
1.77
1.53
1.33
1.24
1.30
1.49
1.72
1.90
1.97
1.93
1.81
1.67
1.55
1.51
1.56
1.66
1.77
1.80
1.72
1.54
1.35
1.26
1.36
1.67
2.06
2.36
2.42
2.19
1.76
1.29
0.90
0.67
0.57
0.53
0.53
0.61
0.84
1.21
1.62
1.90
1.89
1.57
1.10
0.68
0.49
0.57
0.81
1.06
1.20
1.22
1.18
1.16
1.15
1.09
0.94
0.72
0.52
0.49
0.68
1.04
1.38
1.52
1.37
1.01
0.62
0.40
0.46
0.74
1.07
1.27
1.22
0.93
0.50
0.12
-0.10
-0.11
0.06
0.29
0.48
0.54
0.47
0.34
0.22
0.17
0.19
0.21
0.20
0.13
0.06
0.07
0.20
0.44
0.71
0.92
0.97
0.86
0.63
0.41
0.32
0.41
0.65
0.94
1.19
1.32
1.34
1.32
1.32
1.39
1.49
1.56
1.55
1.43
1.24
1.02
0.83
0.66
0.49
0.30
0.11
-0.06
-0.14
-0.15
-0.12
-0.14
-0.25
-0.42
-0.55
-0.50
-0.25
0.13
0.51
0.75
0.81
0.73
0.62
0.54
0.49
0.45
0.41
0.40
0.50
0.73
1.06
1.36
1.49
1.42
1.17
0.89
0.69
0.64
0.70
0.74
0.68
0.49
0.24
0.03
-0.06
-0.07
-0.10
-0.27
-0.57
-0.90
-1.12
-1.10
-0.83
-0.41
-0.01
0.25
0.36
0.35
0.31
0.27
0.22
0.15
0.03
-0.13
-0.29
-0.41
-0.46
-0.43
-0.35
-0.23
-0.09
0.08
0.28
0.52
0.77
0.99
1.12
1.12
1.03
0.90
0.79
0.74
0.69
0.60
0.43
0.22
0.05
0.02
0.15
0.36
0.53
0.55
0.41
0.20
0.05
0.08
0.30
0.62
0.93
1.10
1.12
1.03
0.92
0.86
0.86
0.88
0.87
0.75
0.52
0.22
-0.06
-0.24
-0.26
-0.18
-0.08
-0.04
-0.08
-0.15
-0.14
-0.03
0.18
0.38
0.48
0.45
0.33
0.20
0.14
0.16
0.24
0.31
0.34
0.33
0.29
0.21
0.09
-0.05
-0.18
-0.22
-0.13
0.08
0.36
0.60
0.69
0.59
0.32
-0.02
-0.32
-0.49
-0.53
-0.48
-0.41
-0.39
-0.44
-0.52
-0.57
-0.55
-0.44
-0.29
-0.17
-0.11
-0.15
-0.22
-0.25
-0.16
0.03
0.25
0.37
0.27
-0.06
-0.53
-0.96
-1.19
-1.12
-0.77
-0.26
0.28
0.72
0.99
1.10
1.09
1.01
0.88
0.72
0.57
0.48
0.44
0.49
0.56
0.60
0.59
0.51
0.39
0.26
0.17
0.13
0.14
0.19
0.28
0.42
0.58
0.73
0.80
0.73
0.50
0.19
-0.10
-0.28
-0.29
-0.18
-0.04
0.01
-0.05
-0.19
-0.33
-0.42
-0.44
-0.43
-0.39
-0.31
-0.15
0.10
0.39
0.62
0.71
0.63
0.42
0.15
-0.11
-0.31
-0.45
-0.50
-0.49
-0.41
-0.29
-0.17
-0.11
-0.09
-0.10
-0.11
-0.12
-0.13
-0.19
-0.28
-0.38
-0.43
-0.42
-0.32
-0.18
-0.04
0.08
0.19
0.30
0.44
0.57
0.66
0.66
0.58
0.46
0.36
0.33
0.36
0.43
0.49
0.52
0.53
0.53
0.51
0.45
0.34
0.19
0.06
0.02
0.04
0.08
0.03
-0.16
-0.46
-0.77
-0.94
-0.89
-0.65
-0.32
-0.04
0.07
-0.00
-0.21
-0.43
-0.53
-0.44
-0.16
0.20
0.51
0.66
0.59
0.34
0.01
-0.29
-0.49
-0.61
-0.64
-0.60
-0.47
-0.23
0.11
0.46
0.75
0.89
0.87
0.74
0.58
0.44
0.35
0.30
0.27
0.23
0.18
0.14
0.14
0.18
0.27
0.38
0.44
0.44
0.34
0.18
0.01
-0.10
-0.12
-0.03
0.11
0.23
0.25
0.15
-0.03
-0.21
-0.31
-0.32
-0.27
-0.24
-0.29
-0.41
-0.49
-0.45
-0.28
-0.03
0.15
0.19
0.07
-0.09
-0.16
-0.07
0.16
0.42
0.62
0.70
0.69
0.63
0.57
0.50
0.45
0.40
0.35
0.29
0.17
-0.04
-0.33
-0.64
-0.87
-0.90
-0.74
-0.43
-0.09
0.17
0.28
0.23
0.11
-0.02
-0.08
-0.01
0.16
0.36
0.51
0.54
0.45
0.31
0.18
0.13
0.16
0.21
0.23
0.21
0.21
0.28
0.41
0.52
0.52
0.35
0.03
-0.31
-0.56
-0.68
-0.69
-0.65
-0.60
-0.55
-0.47
-0.35
-0.27
-0.29
-0.46
-0.75
-1.02
-1.13
-1.02
-0.71
-0.34
-0.03
0.15
0.18
0.14
0.13
0.25
0.51
0.87
1.25
1.49
1.51
1.29
0.91
0.51
0.23
0.11
0.11
0.14
0.08
-0.08
-0.34
-0.61
-0.82
-0.89
-0.79
-0.53
-0.19
0.16
0.40
0.50
0.47
0.40
0.37
0.40
0.46
0.45
0.30
0.02
-0.31
-0.54
-0.61
-0.52
-0.37
-0.27
-0.32
-0.49
-0.68
-0.76
-0.64
-0.33
0.04
0.31
0.39
0.29
0.12
0.01
0.04
0.18
0.31
0.33
0.20
-0.01
-0.18
-0.20
-0.09
0.06
0.17
0.16
0.04
-0.10
-0.21
-0.27
-0.29
-0.30
-0.29
-0.27
-0.22
-0.15
-0.10
-0.07
-0.10
-0.18
-0.27
-0.34
-0.35
-0.29
-0.17
-0.03
0.11
0.20
0.25
0.29
0.37
0.50
0.69
0.91
1.10
1.23
1.24
1.10
0.80
0.39
-0.03
-0.33
-0.40
-0.23
0.10
0.44
0.63
0.61
0.41
0.12
-0.12
-0.22
-0.16
0.01
0.23
0.41
0.50
0.45
0.29
-0.00
-0.37
-0.77
-1.12
-1.33
-1.33
-1.13
-0.78
-0.43
-0.19
-0.12
-0.19
-0.33
-0.45
-0.54
-0.62
-0.75
-0.90
-1.01
-0.99
-0.79
-0.46
-0.12
0.06
-0.05
-0.48
-1.16
-1.96
-2.72
-3.31
-3.67
-3.83
-3.93
-4.10
-4.44
-4.99
-5.67
-6.34
-6.91
-7.33
-7.58
-7.62
-7.39
-6.88
-6.18
-5.58
-5.48
-6.28
-8.12
-10.86
-14.04
-17.19
-19.96
-22.34
-24.56
-26.95
-29.78
-33.08
-36.71
-40.41
-43.98
-47.33
-50.59
-54.01
-57.90
-62.53
-68.03
-74.39
-81.52
-89.35
-97.87
-107.13
-117.17
-127.96
-139.40
-151.47
-164.26
-177.82
-191.72
-204.65
-214.26
-217.56
-211.74
-195.21
-168.03
-131.69
-88.35
-40.21
10.58
61.44
108.95
149.04
178.06
194.17
198.31
193.95
185.73
177.65
171.92
168.86
167.77
168.02
169.67
173.37
179.68
188.55
199.18
210.25
220.45
228.86
235.22
239.80
243.38
246.95
251.50
257.76
265.93
275.49
285.12
292.81
296.20
293.03
281.68
261.66
233.69
199.50
161.20
120.62
78.71
35.35
-10.19
-58.27
-107.90
-156.22
-198.95
-231.71
-251.63
-258.41
-254.38
-243.36
-229.16
-214.29
-199.67
-185.23
-170.81
-156.81
-144.10
-133.43
-124.85
-117.59
-110.43
-102.43
-93.31
-83.62
-74.37
-66.53
-60.51
-56.08
-52.47
-48.79
-44.42
-39.28
-33.78
-28.61
-24.38
-21.31
-19.24
-17.67
-16.06
-14.09
-11.70
-9.11
-6.66
-4.66
-3.24
-2.37
-1.92
-1.68
-1.47
-1.20
-0.83
-0.39
0.10
0.56
0.92
1.09
1.00
0.67
0.23
-0.15
-0.30
-0.20
0.03
0.19
0.14
-0.12
-0.45
-0.63
-0.56
-0.28
0.05
0.23
0.17
-0.08
-0.37
-0.51
-0.37
0.08
0.79
1.64
2.55
3.46
4.33
5.09
5.58
5.62
5.05
3.87
2.30
0.71
-0.55
-1.27
-1.48
-1.40
-1.27
-1.22
-1.26
-1.32
-1.35
-1.38
-1.49
-1.75
-2.20
-2.77
-3.32
-3.70
-3.77
-3.46
-2.82
-2.00
-1.26
-0.84
-0.83
-1.13
-1.51
-1.69
-1.50
-0.91
0.03
1.19
2.49
3.80
4.97
5.78
6.07
5.79
5.05
4.11
3.27
2.73
2.50
2.41
2.19
1.65
0.73
-0.44
-1.60
-2.50
-3.00
-3.11
-2.98
-2.77
-2.58
-2.36
-2.06
-1.63
-1.13
-0.71
-0.53
-0.62
-0.93
-1.30
-1.56
-1.66
-1.61
-1.47
-1.28
-0.98
-0.50
0.22
1.12
2.00
2.62
2.78
2.47
1.84
1.16
0.68
0.52
0.65
0.90
1.05
0.96
0.63
0.15
-0.33
-0.69
-0.92
-1.11
-1.35
-1.74
-2.22
-2.67
-2.89
-2.76
-2.34
-1.82
-1.45
-1.44
-1.80
-2.34
-2.79
-2.89
-2.54
-1.79
-0.75
0.46
1.74
3.03
4.21
5.11
5.56
5.49
4.99
4.29
3.67
3.28
3.10
2.97
2.67
2.09
1.28
0.43
-0.27
-0.73
-0.98
-1.14
-1.31
-1.50
-1.69
-1.80
-1.80
-1.71
-1.62
-1.58
-1.59
-1.62
-1.65
-1.67
-1.75
-1.93
-2.18
-2.35
-2.23
-1.64
-0.54
0.87
2.24
3.18
3.46
3.13
2.45
1.75
1.24
0.94
0.68
0.28
-0.32
-1.00
-1.52
-1.74
-1.66
-1.42
-1.26
-1.32
-1.62
-2.03
-2.40
-2.59
-2.57
-2.35
-2.03
-1.69
-1.40
-1.21
-1.11
-1.05
-0.90
-0.53
0.16
1.20
2.45
3.69
4.64
5.09
4.92
4.21
3.17
2.07
1.17
0.59
0.34
0.31
0.37
0.44
0.47
0.50
0.55
0.61
0.69
0.72
0.66
0.45
0.08
-0.41
-0.91
-1.30
-1.49
-1.47
-1.32
-1.19
-1.19
-1.37
-1.65
-1.89
-1.97
-1.88
-1.71
-1.60
-1.59
-1.55
-1.29
-0.66
0.29
1.29
2.00
2.18
1.89
1.40
1.03
0.94
1.03
1.04
0.77
0.21
-0.43
-0.87
-0.97
-0.82
-0.65
-0.68
-0.99
-1.45
-1.87
-2.06
-1.94
-1.60
-1.16
-0.71
-0.31
0.09
0.52
1.04
1.64
2.30
2.99
3.67
4.29
4.79
5.07
5.10
4.86
4.40
3.80
3.13
2.43
1.71
1.00
0.35
-0.15
-0.43
-0.45
-0.29
-0.09
-0.01
-0.17
-0.57
-1.12
-1.68
-2.10
-2.30
-2.30
-2.19
-2.14
-2.27
-2.64
-3.20
-3.80
-4.26
-4.42
-4.21
-3.70
-3.01
-2.28
-1.61
-1.05
-0.57
-0.09
0.43
0.97
1.48
1.85
1.99
1.87
1.58
1.28
1.10
1.15
1.35
1.55
1.60
1.36
0.85
0.22
-0.36
-0.75
-0.93
-0.95
-0.94
-0.97
-1.06
-1.16
-1.19
-1.11
-0.89
-0.59
-0.26
0.04
0.27
0.46
0.63
0.81
0.99
1.15
1.30
1.46
1.75
2.24
2.94
3.70
4.29
4.47
4.15
3.46
2.66
2.00
1.56
1.24
0.82
0.17
-0.71
-1.62
-2.36
-2.83
-3.08
-3.28
-3.57
-3.99
-4.45
-4.76
-4.78
-4.45
-3.83
-3.09
-2.38
-1.81
-1.40
-1.09
-0.80
-0.41
0.11
0.74
1.44
2.08
2.50
2.59
2.31
1.74
1.08
0.57
0.38
0.54
0.92
1.29
1.48
1.41
1.14
0.79
0.44
0.14
-0.13
-0.41
-0.71
-1.00
-1.25
-1.41
-1.47
-1.45
-1.36
-1.22
-1.04
-0.85
-0.69
-0.58
-0.53
-0.55
-0.61
-0.70
-0.74
-0.62
-0.21
0.59
1.74
3.07
4.22
4.85
4.74
3.95
2.78
1.64
0.86
0.56
0.64
0.83
0.91
0.74
0.36
-0.12
-0.59
-0.98
-1.29
-1.56
-1.83
-2.08
-2.25
-2.29
-2.16
-1.91
-1.62
-1.41
-1.34
-1.38
-1.44
-1.43
-1.27
-0.97
-0.57
-0.09
0.46
1.07
1.67
2.17
2.45
2.45
2.23
1.91
1.65
1.54
1.57
1.63
1.60
1.40
1.01
0.50
-0.03
-0.48
-0.76
-0.83
-0.69
-0.43
-0.18
-0.08
-0.17
-0.43
-0.76
-1.01
-1.14
-1.16
-1.16
-1.20
-1.29
-1.36
-1.32
-1.16
-0.92
-0.68
-0.48
-0.30
-0.02
0.47
1.19
1.98
2.62
2.87
2.61
1.91
0.98
0.12
-0.46
-0.65
-0.53
-0.21
0.14
0.40
0.53
0.52
0.39
0.15
-0.18
-0.53
-0.83
-0.96
-0.87
-0.54
-0.09
0.33
0.53
0.40
-0.07
-0.77
-1.52
-2.14
-2.45
-2.39
-1.97
-1.28
-0.46
0.34
1.04
1.56
1.92
2.17
2.33
2.45
2.53
2.53
2.38
2.02
1.39
0.53
-0.44
-1.36
-2.02
-2.32
-2.27
-2.00
-1.72
-1.57
-1.56
-1.60
-1.52
-1.20
-0.66
-0.06
0.39
0.52
0.31
-0.10
-0.51
-0.71
-0.59
-0.19
0.40
1.02
1.52
1.79
1.73
1.34
0.68
-0.06
-0.65
-0.91
-0.79
-0.42
-0.02
0.21
0.20
0.03
-0.15
-0.19
-0.08
0.09
0.21
0.19
0.05
-0.13
-0.28
-0.35
-0.38
-0.43
-0.52
-0.65
-0.78
-0.85
-0.83
-0.67
-0.40
-0.07
0.19
0.24
0.00
-0.47
-0.93
-1.06
-0.62
0.40
1.67
2.69
3.03
2.58
1.54
0.41
-0.38
-0.63
-0.46
-0.18
-0.08
-0.26
-0.62
-0.96
-1.14
-1.17
-1.18
-1.34
-1.68
-2.14
-2.54
-2.72
-2.62
-2.31
-1.96
-1.73
-1.71
-1.81
-1.87
-1.69
-1.19
-0.42
0.42
1.13
1.61
1.89
2.06
2.19
2.22
1.97
1.31
0.26
-0.90
-1.78
-2.05
-1.61
-0.69
0.32
1.06
1.32
1.17
0.80
0.44
0.18
0.04
-0.07
-0.26
-0.56
-0.94
-1.32
-1.61
-1.71
-1.63
-1.40
-1.10
-0.84
-0.68
-0.62
-0.63
-0.66
-0.66
-0.56
-0.34
0.05
0.60
1.29
2.06
2.84
3.55
4.12
4.48
4.58
4.42
4.04
3.56
3.09
2.76
2.58
2.48
2.30
1.92
1.30
0.51
-0.29
-0.97
-1.43
-1.68
-1.80
-1.84
-1.85
-1.81
-1.72
-1.58
-1.46
-1.45
-1.62
-1.96
-2.36
-2.65
-2.69
-2.42
-1.89
-1.21
-0.47
0.30
1.11
1.95
2.77
3.41
3.75
3.74
3.47
3.11
2.83
2.69
2.57
2.33
1.83
1.09
0.23
-0.55
-1.12
-1.44
-1.61
-1.74
-1.90
-2.03
-2.05
-1.86
-1.44
-0.92
-0.46
-0.22
-0.26
-0.50
-0.75
-0.83
-0.62
-0.11
0.54
1.14
1.50
1.50
1.20
0.73
0.33
0.16
0.29
0.65
1.03
1.23
1.12
0.69
0.07
-0.52
-0.94
-1.10
-1.05
-0.90
-0.80
-0.81
-0.96
-1.20
-1.45
-1.63
-1.71
-1.65
-1.47
-1.21
-0.91
-0.62
-0.37
-0.16
-0.03
0.01
-0.04
-0.16
-0.26
-0.24
-0.01
0.39
0.84
1.17
1.25
1.10
0.88
0.78
0.95
1.36
1.82
2.12
2.11
1.79
1.32
0.87
0.55
0.37
0.23
-0.02
-0.44
-1.00
-1.56
-1.98
-2.13
-2.00
-1.64
-1.16
-0.65
-0.14
0.37
0.86
1.32
1.68
1.92
2.03
2.04
1.97
1.81
1.53
1.07
0.44
-0.26
-0.87
-1.21
-1.19
-0.87
-0.37
0.09
0.37
0.40
0.25
0.01
-0.20
-0.30
-0.31
-0.28
-0.29
-0.38
-0.54
-0.71
-0.79
-0.72
-0.51
-0.23
-0.02
0.01
-0.17
-0.51
-0.85
-1.05
-0.94
-0.47
0.32
1.32
2.35
3.24
3.79
3.90
3.56
2.90
2.15
1.54
1.23
1.23
1.40
1.54
1.54
1.36
1.07
0.79
0.57
0.43
0.32
0.18
-0.00
-0.23
-0.48
-0.76
-1.07
-1.41
-1.80
-2.22
-2.65
-3.07
-3.38
-3.51
-3.38
-2.97
-2.39
-1.79
-1.31
-1.01
-0.82
-0.64
-0.39
-0.13
-0.03
-0.23
-0.79
-1.53
-2.16
-2.37
-2.05
-1.31
-0.44
0.24
0.59
0.61
0.48
0.34
0.24
0.13
-0.06
-0.31
-0.53
-0.57
-0.35
0.06
0.50
0.74
0.68
0.37
-0.03
-0.32
-0.36
-0.14
0.30
0.82
1.30
1.65
1.77
1.63
1.22
0.64
0.04
-0.41
-0.59
-0.51
-0.27
-0.07
-0.04
-0.21
-0.50
-0.76
-0.88
-0.81
-0.61
-0.38
-0.21
-0.17
-0.22
-0.32
-0.37
-0.31
-0.15
0.04
0.16
0.15
-0.00
-0.23
-0.45
-0.58
-0.64
-0.66
-0.64
-0.53
-0.23
0.29
0.95
1.51
1.73
1.51
0.99
0.44
0.18
0.29
0.60
0.80
0.62
-0.01
-0.89
-1.73
-2.31
-2.57
-2.60
-2.57
-2.57
-2.58
-2.57
-2.47
-2.29
-2.06
-1.82
-1.60
-1.42
-1.26
-1.11
-0.97
-0.81
-0.61
-0.35
0.01
0.49
1.06
1.69
2.28
2.72
2.91
2.77
2.29
1.54
0.68
-0.11
-0.66
-0.87
-0.77
-0.50
-0.20
-0.01
0.02
-0.07
-0.20
-0.32
-0.36
-0.33
-0.21
-0.02
0.21
0.40
0.50
0.48
0.36
0.23
0.15
0.16
0.20
0.24
0.29
0.40
0.68
1.18
1.84
2.52
3.06
3.39
3.51
3.49
3.41
3.25
2.97
2.51
1.87
1.16
0.52
0.07
-0.14
-0.19
-0.20
-0.31
-0.58
-0.99
-1.45
-1.86
-2.19
-2.40
-2.55
-2.67
-2.77
-2.81
-2.73
-2.49
-2.09
-1.66
-1.31
-1.19
-1.30
-1.53
-1.72
-1.72
-1.48
-1.06
-0.50
0.18
1.04
2.11
3.31
4.44
5.25
5.53
5.29
4.69
3.98
3.39
2.97
2.68
2.40
2.03
1.56
1.05
0.55
0.13
-0.19
-0.38
-0.47
-0.49
-0.52
-0.64
-0.89
-1.28
-1.77
-2.28
-2.74
-3.08
-3.27
-3.26
-3.02
-2.55
-1.93
-1.28
-0.79
-0.57
-0.68
-1.01
-1.39
-1.60
-1.52
-1.15
-0.61
-0.10
0.25
0.37
0.32
0.23
0.24
0.41
0.71
1.01
1.20
1.20
0.99
0.61
0.12
-0.41
-0.91
-1.31
-1.53
-1.54
-1.34
-0.97
-0.52
-0.06
0.35
0.69
0.93
1.09
1.21
1.37
1.63
1.99
2.40
2.73
2.86
2.77
2.54
2.28
2.10
1.98
1.81
1.45
0.87
0.15
-0.57
-1.12
-1.45
-1.60
-1.68
-1.77
-1.91
-2.04
-2.13
-2.12
-2.02
-1.87
-1.70
-1.51
-1.32
-1.11
-0.90
-0.68
-0.44
-0.15
0.24
0.73
1.28
1.73
1.92
1.76
1.28
0.66
0.17
0.00
0.23
0.72
1.22
1.50
1.45
1.15
0.78
0.51
0.45
0.57
0.77
0.95
1.04
1.01
0.87
0.61
0.26
-0.15
-0.54
-0.82
-0.93
-0.88
-0.73
-0.58
-0.51
-0.50
-0.47
-0.30
0.13
0.86
1.83
2.89
3.79
4.29
4.24
3.63
2.63
1.54
0.60
-0.07
-0.49
-0.76
-1.00
-1.21
-1.31
-1.25
-1.04
-0.79
-0.66
-0.79
-1.19
-1.74
-2.29
-2.69
-2.91
-2.97
-2.94
-2.88
-2.79
-2.65
-2.43
-2.14
-1.81
-1.44
-1.00
-0.41
0.33
1.17
1.93
2.44
2.59
2.40
2.00
1.56
1.20
0.94
0.74
0.54
0.34
0.23
0.25
0.40
0.60
0.68
0.53
0.14
-0.37
-0.83
-1.06
-1.00
-0.74
-0.45
-0.32
-0.46
-0.83
-1.29
-1.64
-1.70
-1.39
-0.72
0.19
1.16
1.94
2.29
2.01
1.11
-0.21
-1.55
-2.46
-2.67
-2.19
-1.31
-0.48
-0.02
-0.03
-0.32
-0.64
-0.78
-0.70
-0.52
-0.41
-0.41
-0.50
-0.55
-0.49
-0.30
-0.05
0.16
0.24
0.17
-0.06
-0.37
-0.69
-0.92
-1.01
-0.97
-0.91
-0.91
-1.00
-1.09
-1.05
-0.84
-0.51
-0.26
-0.28
-0.64
-1.21
-1.76
-2.10
-2.22
-2.29
-2.53
-3.04
-3.72
-4.30
-4.56
-4.44
-4.15
-4.01
-4.32
-5.13
-6.27
-7.37
-8.16
-8.51
-8.56
-8.59
-8.83
-9.34
-9.99
-10.50
-10.58
-10.05
-8.82
-6.81
-3.91
-0.09
4.45
9.20
13.37
16.22
17.32
16.79
15.22
13.34
11.70
10.39
9.20
7.77
5.96
3.88
1.88
0.33
-0.60
-0.95
-0.92
-0.77
-0.71
-0.82
-1.08
-1.44
-1.85
-2.31
-2.85
-3.50
-4.22
-4.93
-5.48
-5.73
-5.59
-5.09
-4.33
-3.36
-2.09
-0.29
2.31
5.76
9.77
13.70
16.80
18.51
18.74
17.80
16.26
14.62
13.09
11.62
10.00
8.12
6.06
4.07
2.41
1.22
0.44
-0.13
-0.73
-1.51
-2.48
-3.48
-4.35
-4.93
-5.22
-5.30
-5.32
-5.37
-5.45
-5.45
-5.24
-4.74
-3.94
-2.87
-1.59
-0.13
1.43
2.91
4.12
4.85
5.05
4.83
4.46
4.18
4.13
4.26
4.37
4.25
3.80
3.09
2.25
1.41
0.63
-0.14
-0.96
-1.85
-2.75
-3.55
-4.18
-4.62
-4.93
-5.23
-5.61
-6.05
-6.44
-6.62
-6.43
-5.87
-4.97
-3.87
-2.66
-1.47
-0.43
0.34
0.72
0.66
0.28
-0.16
-0.39
-0.22
0.33
1.03
1.53
1.58
1.12
0.30
-0.55
-1.11
-1.23
-0.93
-0.39
0.14
0.45
0.47
0.24
-0.12
-0.50
-0.82
-1.10
-1.35
-1.59
-1.76
-1.77
-1.53
-1.02
-0.35
0.27
0.62
0.59
0.27
-0.09
-0.19
0.15
0.88
1.74
2.44
2.75
2.68
2.39
2.10
1.95
1.91
1.81
1.54
1.04
0.40
-0.25
-0.78
-1.18
-1.52
-1.90
-2.36
-2.85
-3.26
-3.44
-3.32
-2.90
-2.33
-1.75
-1.31
-1.02
-0.83
-0.63
-0.31
0.11
0.58
1.02
1.37
1.64
1.85
1.98
1.96
1.75
1.36
0.91
0.62
0.66
1.05
1.64
2.14
2.28
1.94
1.18
0.23
-0.65
-1.27
-1.58
-1.65
-1.61
-1.54
-1.51
-1.51
-1.51
-1.50
-1.48
-1.45
-1.39
-1.30
-1.18
-1.00
-0.80
-0.61
-0.46
-0.36
-0.27
-0.09
0.30
1.00
1.96
2.97
3.73
3.95
3.54
2.66
1.69
1.04
0.96
1.38
2.00
2.42
2.36
1.83
1.06
0.34
-0.13
-0.36
-0.48
-0.67
-1.00
-1.39
-1.73
-1.90
-1.89
-1.81
-1.75
-1.75
-1.76
-1.67
-1.40
-0.96
-0.43
0.04
0.31
0.34
0.16
-0.07
-0.15
0.06
0.61
1.36
2.08
2.54
2.63
2.43
2.17
2.08
2.28
2.70
3.12
3.32
3.15
2.63
1.90
1.14
0.47
-0.07
-0.54
-1.03
-1.61
-2.30
-3.02
-3.65
-4.05
-4.16
-3.97
-3.59
-3.11
-2.63
-2.16
-1.67
-1.15
-0.61
-0.10
0.35
0.80
1.33
2.02
2.80
3.45
3.71
3.36
2.42
1.16
0.02
-0.58
-0.51
0.06
0.72
1.07
0.93
0.37
-0.33
-0.88
-1.14
-1.14
-1.06
-1.11
-1.35
-1.71
-2.03
-2.14
-2.01
-1.72
-1.43
-1.30
-1.37
-1.59
-1.80
-1.87
-1.76
-1.49
-1.17
-0.81
-0.38
0.21
0.99
1.84
2.55
2.88
2.74
2.20
1.49
0.82
0.33
-0.02
-0.32
-0.69
-1.10
-1.45
-1.62
-1.57
-1.41
-1.30
-1.40
-1.69
-2.07
-2.33
-2.33
-2.06
-1.62
-1.17
-0.85
-0.67
-0.60
-0.55
-0.42
-0.18
0.16
0.61
1.19
1.91
2.73
3.49
3.97
3.94
3.28
2.09
0.70
-0.46
-1.01
-0.83
-0.09
0.84
1.52
1.70
1.37
0.73
0.09
-0.37
-0.62
-0.78
-0.98
-1.27
-1.59
-1.81
-1.80
-1.57
-1.19
-0.84
-0.63
-0.63
-0.78
-1.00
-1.19
-1.31
-1.38
-1.45
-1.55
-1.72
-1.90
-2.03
-1.96
-1.55
-0.76
0.32
1.45
2.31
2.63
2.33
1.61
0.78
0.19
-0.00
0.14
0.38
0.46
0.28
-0.11
-0.54
-0.87
-1.07
-1.22
-1.41
-1.69
-2.00
-2.22
-2.25
-2.10
-1.87
-1.71
-1.74
-1.93
-2.17
-2.29
-2.16
-1.80
-1.29
-0.75
-0.25
0.23
0.78
1.47
2.31
3.27
4.24
5.08
5.66
5.90
5.76
5.30
4.64
3.92
3.26
2.71
2.24
1.76
1.19
0.50
-0.27
-1.02
-1.63
-2.04
-2.23
-2.25
-2.21
-2.17
-2.15
-2.08
-1.86
-1.44
-0.85
-0.26
0.16
0.26
0.00
-0.50
-1.10
-1.62
-1.97
-2.08
-1.90
-1.40
-0.59
0.41
1.35
1.99
2.16
1.91
1.47
1.14
1.13
1.39
1.70
1.81
1.57
1.09
0.59
0.32
0.33
0.52
0.68
0.67
0.45
0.14
-0.15
-0.34
-0.45
-0.56
-0.71
-0.90
-1.07
-1.13
-1.08
-0.90
-0.67
-0.43
-0.19
0.04
0.31
0.64
1.04
1.46
1.81
1.97
1.88
1.56
1.13
0.76
0.60
0.67
0.89
1.11
1.24
1.21
1.07
0.84
0.55
0.16
-0.36
-0.97
-1.60
-2.13
-2.46
-2.55
-2.44
-2.16
-1.79
-1.36
-0.95
-0.58
-0.30
-0.10
0.06
0.21
0.34
0.42
0.42
0.35
0.33
0.43
0.70
1.03
1.25
1.20
0.86
0.41
0.07
0.03
0.26
0.59
0.77
0.67
0.33
-0.06
-0.34
-0.42
-0.38
-0.33
-0.33
-0.37
-0.39
-0.34
-0.28
-0.26
-0.32
-0.40
-0.42
-0.33
-0.16
-0.05
-0.08
-0.30
-0.61
-0.85
-0.91
-0.71
-0.23
0.50
1.41
2.39
3.23
3.72
3.74
3.30
2.59
1.89
1.39
1.14
1.02
0.83
0.44
-0.16
-0.81
-1.35
-1.67
-1.78
-1.80
-1.86
-2.06
-2.39
-2.76
-3.07
-3.23
-3.23
-3.11
-2.87
-2.55
-2.15
-1.69
-1.21
-0.76
-0.38
-0.10
0.11
0.28
0.46
0.70
1.03
1.49
2.05
2.61
3.05
3.25
3.18
2.87
2.44
2.00
1.65
1.36
1.10
0.85
0.59
0.35
0.16
-0.02
-0.23
-0.57
-1.07
-1.70
-2.33
-2.82
-3.02
-2.90
-2.51
-2.02
-1.56
-1.26
-1.13
-1.18
-1.38
-1.72
-2.18
-2.74
-3.31
-3.83
-4.26
-4.63
-5.00
-5.46
-6.02
-6.65
-7.25
-7.70
-7.97
-8.12
-8.33
-8.81
-9.70
-11.03
-12.66
-14.36
-15.92
-17.27
-18.54
-19.99
-21.86
-24.28
-27.17
-30.24
-33.15
-35.68
-37.84
-39.96
-42.57
-46.22
-51.19
-57.36
-64.17
-70.92
-77.14
-82.77
-88.31
-94.53
-102.08
-111.21
-121.80
-133.56
-146.22
-159.36
-171.92
-181.79
-185.89
-180.98
-164.74
-136.77
-98.69
-53.21
-2.93
50.39
105.42
160.37
212.13
256.60
290.03
310.76
319.83
320.19
315.03
306.25
293.93
276.97
254.30
225.92
193.26
158.99
126.36
98.54
78.07
66.20
62.55
65.26
71.69
79.37
86.38
91.22
92.23
87.31
74.52
53.40
26.09
-2.72
-27.43
-43.59
-49.61
-47.05
-39.50
-30.81
-23.84
-20.19
-20.69
-25.78
-35.59
-49.43
-65.46
-80.94
-93.07
-100.03
-101.55
-98.83
-93.73
-87.90
-82.27
-77.11
-72.38
-68.06
-64.23
-60.95
-58.13
-55.50
-52.78
-49.89
-46.97
-44.30
-42.09
-40.33
-38.82
-37.28
-35.58
-33.88
-32.57
-32.09
-32.64
-33.98
-35.51
-36.51
-36.57
-35.84
-35.07
-35.25
-37.22
-41.22
-46.83
-53.12
-58.99
-63.54
-66.22
-66.93
-65.98
-64.02
-61.91
-60.55
-60.61
-62.37
-65.77
-70.56
-76.55
-83.87
-92.95
-104.40
-118.40
-134.08
-148.94
-158.91
-159.37
-146.85
-120.91
-84.87
-44.98
-8.04
21.39
42.78
59.40
76.25
97.41
124.16
154.79
185.92
214.36
238.28
257.43
272.43
283.89
291.97
296.49
297.45
295.38
291.48
287.30
284.06
281.96
279.78
274.96
264.27
244.89
215.37
175.99
128.50
75.47
19.73
-35.74
-87.72
-132.74
-167.59
-190.19
-200.42
-200.35
-193.54
-183.76
-173.78
-164.91
-157.32
-150.79
-145.27
-141.02
-138.24
-136.73
-135.80
-134.58
-132.42
-129.24
-125.55
-122.26
-120.28
-120.24
-122.20
-125.55
-129.05
-131.05
-130.03
-125.14
-116.91
-107.34
-99.63
-97.14
-102.27
-115.58
-135.65
-159.66
-184.29
-206.49
-223.74
-233.91
-235.24
-226.39
-206.96
-177.82
-141.12
-99.48
-55.07
-9.04
38.26
86.26
133.11
175.44
209.18
231.11
240.31
238.50
229.24
216.43
202.90
189.95
177.69
165.90
154.68
144.55
135.94
128.82
122.49
115.98
108.60
100.31
91.79
84.14
78.27
74.48
72.34
70.92
69.24
66.84
63.95
61.40
60.16
60.85
63.34
66.82
70.11
72.25
72.93
72.71
72.70
74.16
77.80
83.48
90.18
96.42
100.85
102.85
102.82
102.12
102.73
106.46
114.08
124.64
135.18
141.17
137.77
121.34
91.08
49.75
3.22
-41.11
-76.68
-99.65
-109.81
-109.99
-104.37
-96.76
-89.32
-82.53
-75.84
-68.76
-61.33
-54.10
-47.68
-42.15
-37.04
-31.67
-25.60
-18.78
-11.40
-3.76
3.64
9.62
11.69
6.16
-10.72
-40.83
-82.47
-129.92
-175.02
-209.97
-230.28
-236.00
-230.98
-220.61
-209.48
-200.19
-193.76
-190.79
-192.25
-199.09
-210.70
-224.06
-233.71
-233.44
-218.79
-188.80
-146.13
-95.54
-41.68
12.49
65.71
117.44
166.49
210.23
244.91
266.58
272.12
259.70
229.02
181.50
120.46
51.41
-18.47
-81.26
-129.80
-158.97
-166.35
-152.20
-119.23
-72.22
-17.73
36.64
83.67
118.12
138.08
145.24
143.94
139.20
134.89
132.82
132.86
133.96
135.05
135.69
136.02
136.43
137.26
138.73
141.05
144.43
148.95
154.43
160.30
165.68
169.81
172.63
175.08
179.12
186.81
199.22
215.29
231.59
243.05
244.73
233.51
209.04
173.66
131.41
86.81
43.84
5.31
-27.59
-55.53
-80.83
-106.48
-134.65
-165.28
-195.62
-221.21
-237.94
-244.00
-240.54
-230.90
-218.72
-206.44
-194.73
-183.21
-171.49
-159.85
-149.11
-139.97
-132.51
-125.95
-119.10
-110.88
-100.75
-88.77
-75.62
-62.24
-49.61
-38.44
-29.05
-21.37
-15.11
-10.07
-6.31
-4.07
-3.53
-4.47
-6.21
-7.75
-8.18
-7.10
-4.76
-1.85
0.82
2.77
3.91
4.50
4.84
5.13
5.38
5.45
5.19
4.53
3.54
2.39
1.31
0.57
0.34
0.64
1.33
2.13
2.66
2.54
1.57
-0.24
-2.63
-5.21
-7.58
-9.47
-10.80
-11.64
-12.09
-12.21
-12.00
-11.44
-10.54
-9.35
-7.98
-6.48
-4.91
-3.31
-1.83
-0.68
-0.08
-0.16
-0.82
-1.74
-2.54
-2.90
-2.70
-2.09
-1.37
-0.80
-0.52
-0.49
-0.55
-0.48
-0.21
0.22
0.68
1.01
1.14
1.14
1.11
1.14
1.27
1.43
1.53
1.51
1.36
1.17
1.02
0.96
0.98
1.02
1.01
0.90
0.72
0.50
0.35
0.31
0.39
