1660929560.00
64.000000
-0.00
-0.00
-0.00
-0.00
-0.00
-0.00
-0.00
-0.00
-0.00
-0.00
0.00
0.01
0.01
-0.00
-0.03
-0.05
-0.05
0.00
0.13
0.36
0.66
1.01
1.37
1.72
2.06
2.40
2.79
3.25
3.81
4.44
5.09
5.73
6.32
6.91
7.53
8.27
9.15
10.25
11.44
12.63
13.70
14.63
15.52
16.54
17.90
19.73
22.22
25.13
28.20
31.14
33.85
36.46
39.32
42.84
47.31
53.01
59.54
66.37
73.00
79.19
85.16
91.49
98.84
107.61
118.12
129.71
141.53
152.86
163.43
173.60
184.20
196.51
208.94
223.30
239.84
258.53
278.42
297.14
310.95
315.55
307.52
285.46
251.03
207.46
158.85
108.77
59.47
11.97
-33.39
-76.38
-116.76
-154.27
-189.63
-224.21
-259.61
-296.69
-334.61
-370.36
-399.36
-416.99
-420.26
-409.24
-387.04
-358.60
-328.76
-300.66
-275.26
-251.96
-229.78
-208.25
-187.77
-169.08
-152.56
-137.89
-124.21
-110.64
-96.74
-82.70
-69.26
-57.24
-47.19
-39.05
-32.27
-26.06
-19.75
-13.10
-6.32
0.05
5.50
9.73
12.79
15.03
16.90
18.73
20.66
22.55
24.11
25.08
25.33
24.96
24.26
23.60
23.24
23.26
23.53
23.80
23.82
23.45
22.74
21.85
21.03
20.44
20.13
20.00
19.86
19.52
18.88
17.98
16.96
16.03
15.33
14.93
14.82
14.94
15.21
15.56
15.90
16.14
16.18
15.89
15.23
14.22
13.01
11.80
10.78
10.06
9.61
9.32
9.07
8.80
8.56
8.44
8.49
8.68
8.83
8.78
8.41
7.79
7.08
6.50
6.16
6.04
6.03
6.00
5.89
5.72
5.56
5.43
5.29
5.03
4.57
3.92
3.24
2.71
2.54
2.74
3.14
3.47
3.42
2.85
1.80
0.49
-0.83
-1.99
-2.93
-3.71
-4.43
-5.14
-5.82
-6.39
-6.79
-7.01
-7.13
-7.26
-7.49
-7.85
-8.31
-8.79
-9.25
-9.64
-9.97
-10.25
-10.44
-10.48
-10.30
-9.84
-9.10
-8.16
-7.15
-6.13
-5.15
-4.19
-3.21
-2.23
-1.27
-0.40
0.33
0.92
1.39
1.77
2.11
2.38
2.58
2.68
2.74
2.83
3.03
3.35
3.72
4.03
4.14
4.03
3.74
3.43
3.23
3.22
3.41
3.74
4.11
4.47
4.75
4.92
4.94
4.79
4.46
3.98
3.43
2.87
2.36
1.98
1.73
1.64
1.72
1.97
2.38
2.92
3.53
4.13
4.61
4.89
4.95
4.81
4.56
4.27
4.02
3.83
3.71
3.60
3.48
3.31
3.09
2.85
2.65
2.51
2.47
2.53
2.67
2.86
3.05
3.21
3.31
3.34
3.29
3.16
2.94
2.66
2.35
2.03
1.74
1.50
1.29
1.10
0.91
0.76
0.68
0.70
0.83
1.01
1.22
1.42
1.58
1.70
1.76
1.75
1.64
1.47
1.27
1.11
1.00
0.95
0.91
0.84
0.73
0.61
0.53
0.53
0.61
0.77
0.96
1.16
1.34
1.48
1.59
1.68
1.74
1.76
1.75
1.69
1.57
1.40
1.18
0.94
0.70
0.51
0.42
0.50
0.74
1.08
1.41
1.61
1.60
1.39
1.10
0.83
0.70
0.72
0.85
0.99
1.06
1.02
0.88
0.69
0.53
0.45
0.47
0.55
0.63
0.63
0.52
0.34
0.15
0.04
0.04
0.14
0.25
0.32
0.31
0.27
0.26
0.33
0.49
0.66
0.75
0.73
0.61
0.49
0.44
0.50
0.61
0.69
0.66
0.55
0.43
0.43
0.59
0.89
1.21
1.43
1.50
1.42
1.28
1.11
0.94
0.76
0.54
0.32
0.13
-0.01
-0.10
-0.19
-0.32
-0.45
-0.51
-0.44
-0.20
0.13
0.45
0.70
0.86
1.00
1.16
1.32
1.38
1.24
0.89
0.44
0.09
0.00
0.21
0.60
0.98
1.13
0.95
0.47
-0.12
-0.62
-0.90
-0.91
-0.74
-0.49
-0.27
-0.13
-0.04
0.01
0.06
0.12
0.19
0.27
0.37
0.47
0.56
0.61
0.61
0.57
0.54
0.57
0.68
0.85
1.04
1.17
1.20
1.11
0.93
0.71
0.52
0.41
0.40
0.45
0.48
0.41
0.21
-0.06
-0.30
-0.42
-0.37
-0.18
0.03
0.15
0.14
0.04
-0.07
-0.08
0.05
0.31
0.59
0.79
0.80
0.61
0.26
-0.16
-0.51
-0.66
-0.53
-0.15
0.38
0.86
1.15
1.15
0.93
0.62
0.37
0.27
0.29
0.32
0.28
0.13
-0.05
-0.14
-0.08
0.11
0.35
0.53
0.60
0.58
0.50
0.40
0.28
0.12
-0.07
-0.26
-0.39
-0.43
-0.38
-0.31
-0.30
-0.39
-0.59
-0.84
-1.03
-1.07
-0.93
-0.64
-0.30
0.00
0.19
0.23
0.16
0.04
-0.04
-0.03
0.10
0.31
0.53
0.70
0.79
0.80
0.82
0.91
1.09
1.28
1.37
1.26
0.94
0.50
0.08
-0.19
-0.27
-0.18
0.01
0.20
0.36
0.42
0.39
0.27
0.11
-0.03
-0.09
-0.06
0.04
0.17
0.29
0.38
0.44
0.49
0.51
0.47
0.32
0.07
-0.23
-0.51
-0.69
-0.71
-0.58
-0.33
-0.01
0.32
0.62
0.82
0.89
0.83
0.65
0.39
0.13
-0.06
-0.13
-0.10
-0.04
-0.05
-0.18
-0.41
-0.64
-0.75
-0.67
-0.42
-0.10
0.16
0.28
0.27
0.21
0.19
0.25
0.34
0.38
0.32
0.18
0.03
-0.04
0.00
0.14
0.30
0.40
0.40
0.35
0.29
0.26
0.25
0.22
0.13
0.01
-0.08
-0.07
0.07
0.31
0.55
0.69
0.66
0.46
0.15
-0.18
-0.46
-0.62
-0.64
-0.53
-0.33
-0.10
0.09
0.18
0.14
-0.02
-0.25
-0.49
-0.68
-0.74
-0.65
-0.42
-0.10
0.23
0.46
0.52
0.40
0.14
-0.14
-0.35
-0.42
-0.36
-0.22
-0.03
0.16
0.35
0.55
0.73
0.84
0.82
0.67
0.42
0.16
-0.03
-0.10
-0.08
-0.04
-0.03
-0.02
0.02
0.16
0.43
0.79
1.16
1.43
1.52
1.39
1.06
0.62
0.20
-0.08
-0.16
-0.05
0.17
0.42
0.64
0.83
1.00
1.18
1.34
1.40
1.31
1.02
0.56
0.01
-0.54
-1.00
-1.32
-1.53
-1.65
-1.76
-1.88
-2.02
-2.13
-2.15
-1.99
-1.58
-0.86
0.17
1.48
2.93
4.35
5.51
6.20
6.27
5.71
4.63
3.24
1.77
0.42
-0.74
-1.65
-2.35
-2.85
-3.18
-3.35
-3.38
-3.33
-3.24
-3.12
-2.99
-2.80
-2.57
-2.32
-2.13
-2.04
-2.09
-2.28
-2.58
-2.97
-3.40
-3.79
-4.05
-4.12
-4.00
-3.78
-3.63
-3.67
-3.93
-4.34
-4.77
-5.12
-5.38
-5.72
-6.33
-7.41
-8.96
-10.81
-12.62
-14.06
-14.94
-15.37
-15.68
-16.41
-17.96
-20.48
-23.75
-27.21
-30.21
-32.31
-33.54
-34.37
-35.60
-37.86
-41.27
-45.27
-48.78
-50.70
-50.45
-48.33
-45.35
-42.92
-42.17
-43.68
-47.42
-52.80
-58.60
-62.83
-62.78
-55.60
-39.48
-14.93
14.78
44.37
68.48
83.72
89.73
88.90
84.72
80.02
75.99
72.41
68.64
64.54
60.74
58.08
56.87
56.46
55.48
52.58
47.10
39.51
31.17
23.75
18.44
15.55
14.42
13.86
12.68
10.24
6.59
2.38
-1.61
-4.83
-7.27
-9.40
-11.91
-15.33
-19.81
-25.01
-30.34
-35.19
-39.20
-42.34
-44.78
-46.77
-48.43
-49.82
-51.04
-52.34
-54.09
-56.58
-59.84
-63.54
-67.17
-70.33
-73.01
-75.60
-78.71
-82.83
-88.07
-94.21
-100.69
-106.74
-111.13
-112.08
-107.54
-95.99
-77.24
-52.97
-26.30
-0.63
21.63
39.75
54.40
66.70
77.28
85.95
92.13
95.56
96.73
96.73
96.65
97.08
97.98
99.04
99.98
100.84
101.80
103.05
104.58
106.28
108.13
110.32
113.29
117.60
123.64
131.47
140.74
150.86
161.16
171.15
180.58
189.39
197.62
205.28
212.36
218.82
224.46
228.68
230.21
227.20
217.48
199.31
172.13
136.83
95.47
50.37
3.37
-44.24
-91.19
-135.44
-173.84
-202.81
-219.71
-224.12
-218.22
-206.00
-191.67
-178.13
-166.44
-156.17
-146.43
-136.81
-127.55
-119.27
-112.31
-106.43
-100.94
-95.07
-88.49
-81.46
-74.80
-69.46
-66.11
-64.76
-64.76
-65.07
-64.70
-63.15
-60.61
-57.80
-55.57
-54.43
-54.33
-54.72
-54.89
-54.38
-53.28
-52.16
-51.86
-53.06
-55.84
-59.55
-62.85
-64.26
-62.72
-58.18
-51.75
-45.36
-41.14
-40.68
-44.66
-52.63
-63.12
-73.68
-81.13
-82.15
-74.30
-56.95
-31.80
-2.41
27.09
53.44
75.15
92.41
106.21
117.34
126.01
132.17
136.09
138.71
141.44
145.45
151.00
157.30
163.03
167.01
169.07
170.08
171.55
174.64
179.39
184.37
187.15
185.09
176.08
158.96
133.53
100.66
62.24
21.23
-18.62
-53.45
-80.34
-98.01
-107.07
-109.42
-107.26
-102.30
-95.50
-87.32
-78.20
-68.95
-60.79
-55.01
-52.63
-53.88
-57.98
-63.26
-67.70
-69.68
-68.58
-64.94
-60.01
-54.99
-50.44
-46.18
-41.64
-36.50
-31.00
-25.86
-21.86
-19.37
-18.16
-17.57
-16.86
-15.56
-13.68
-11.60
-9.84
-8.77
-8.48
-8.76
-9.24
-9.58
-9.59
-9.25
-8.71
-8.13
-7.65
-7.35
-7.19
-7.11
-7.01
-6.81
-6.44
-5.95
-5.44
-5.06
-4.92
-5.09
-5.50
-6.00
-6.41
-6.57
-6.43
-6.03
-5.48
-4.94
-4.53
-4.30
-4.24
-4.27
-4.25
-4.08
-3.72
-3.19
-2.57
-1.95
-1.34
-0.76
-0.16
0.42
0.90
1.17
1.12
0.76
0.18
-0.45
-0.96
-1.22
-1.16
-0.86
-0.39
0.10
0.48
0.68
0.64
0.41
0.04
-0.37
-0.71
-0.88
-0.81
-0.43
0.24
1.10
2.01
2.78
3.31
3.57
3.65
3.71
3.86
4.14
4.47
4.72
4.77
4.58
4.19
3.72
3.23
2.78
2.36
1.95
1.52
1.09
0.66
0.27
-0.05
-0.29
-0.44
-0.53
-0.60
-0.73
-0.92
-1.15
-1.38
-1.54
-1.65
-1.78
-2.01
-2.39
-2.86
-3.32
-3.64
-3.73
-3.63
-3.39
-3.12
-2.86
-2.63
-2.40
-2.15
-1.89
-1.61
-1.38
-1.18
-1.00
-0.77
-0.41
0.09
0.62
1.04
1.18
0.97
0.46
-0.18
-0.80
-1.24
-1.48
-1.50
-1.34
-1.02
-0.57
-0.04
0.50
0.89
1.02
0.83
0.32
-0.35
-1.00
-1.39
-1.42
-1.05
-0.44
0.20
0.68
0.90
0.89
0.77
0.66
0.64
0.72
0.92
1.25
1.77
2.48
3.27
3.95
4.29
4.16
3.62
2.84
2.05
1.37
0.81
0.29
-0.29
-0.89
-1.37
-1.59
-1.46
-1.05
-0.52
-0.08
0.11
0.03
-0.27
-0.65
-0.98
-1.19
-1.27
-1.29
-1.32
-1.44
-1.66
-1.93
-2.16
-2.27
-2.22
-2.07
-1.92
-1.81
-1.76
-1.71
-1.58
-1.35
-1.03
-0.67
-0.29
0.11
0.56
1.09
1.64
2.12
2.43
2.50
2.33
1.96
1.46
0.91
0.37
-0.15
-0.60
-0.94
-1.16
-1.25
-1.25
-1.20
-1.15
-1.16
-1.24
-1.40
-1.64
-1.90
-2.12
-2.18
-1.97
-1.39
-0.45
0.73
1.98
3.09
3.93
4.45
4.67
4.67
4.52
4.27
4.00
3.81
3.80
4.01
4.41
4.85
5.15
5.11
4.65
3.79
2.67
1.49
0.38
-0.57
-1.37
-2.00
-2.45
-2.67
-2.65
-2.44
-2.17
-1.98
-1.97
-2.14
-2.40
-2.67
-2.90
-3.11
-3.32
-3.56
-3.78
-3.92
-3.88
-3.67
-3.33
-2.96
-2.69
-2.57
-2.59
-2.64
-2.57
-2.25
-1.62
-0.72
0.31
1.32
2.18
2.82
3.20
3.34
3.20
2.80
2.16
1.41
0.69
0.16
-0.11
-0.16
-0.08
-0.02
-0.06
-0.19
-0.36
-0.48
-0.52
-0.51
-0.51
-0.59
-0.76
-0.95
-1.07
-1.08
-0.98
-0.82
-0.64
-0.42
-0.07
0.47
1.19
1.99
2.63
2.96
2.93
2.66
2.39
2.32
2.53
2.93
3.30
3.44
3.25
2.76
2.10
1.40
0.75
0.20
-0.27
-0.63
-0.89
-1.00
-0.99
-0.91
-0.82
-0.79
-0.82
-0.84
-0.81
-0.69
-0.54
-0.45
-0.53
-0.77
-1.14
-1.51
-1.81
-2.01
-2.15
-2.26
-2.36
-2.39
-2.28
-2.01
-1.64
-1.28
-1.01
-0.84
-0.70
-0.49
-0.13
0.36
0.91
1.41
1.80
2.00
2.00
1.76
1.32
0.75
0.19
-0.21
-0.36
-0.27
-0.04
0.18
0.31
0.33
0.29
0.25
0.20
0.12
-0.05
-0.29
-0.51
-0.64
-0.60
-0.41
-0.13
0.17
0.47
0.80
1.19
1.64
2.09
2.44
2.64
2.67
2.63
2.63
2.77
3.10
3.55
4.02
4.40
4.59
4.56
4.31
3.88
3.31
2.62
1.81
0.91
-0.02
-0.88
-1.54
-1.90
-1.90
-1.58
-1.11
-0.68
-0.48
-0.62
-1.10
-1.80
-2.57
-3.25
-3.77
-4.10
-4.30
-4.37
-4.33
-4.12
-3.72
-3.16
-2.53
-1.99
-1.67
-1.62
-1.79
-2.08
-2.36
-2.54
-2.60
-2.58
-2.55
-2.52
-2.51
-2.45
-2.30
-2.01
-1.57
-1.05
-0.50
-0.00
0.36
0.57
0.63
0.59
0.49
0.38
0.30
0.30
0.46
0.82
1.37
2.04
2.67
3.09
3.19
2.98
2.55
2.06
1.62
1.29
1.05
0.85
0.65
0.50
0.43
0.47
0.58
0.66
0.62
0.41
0.06
-0.28
-0.49
-0.50
-0.34
-0.12
0.06
0.10
-0.00
-0.20
-0.41
-0.58
-0.68
-0.69
-0.64
-0.54
-0.39
-0.23
-0.04
0.16
0.38
0.60
0.80
0.96
1.10
1.22
1.33
1.41
1.44
1.38
1.22
0.97
0.71
0.49
0.34
0.24
0.15
0.06
-0.04
-0.08
-0.03
0.12
0.30
0.41
0.41
0.32
0.23
0.21
0.29
0.39
0.44
0.35
0.13
-0.14
-0.36
-0.47
-0.44
-0.28
-0.00
0.40
0.91
1.45
1.92
2.20
2.26
2.20
2.20
2.41
2.83
3.24
3.32
2.79
1.59
-0.07
-1.82
-3.26
-4.11
-4.31
-3.96
-3.32
-2.74
-2.67
-3.58
-5.75
-8.98
-12.32
-14.22
-13.04
-7.78
1.35
12.88
24.50
33.81
38.98
39.16
34.46
25.82
14.69
2.84
-7.93
-16.14
-20.98
-22.56
-21.80
-20.07
-18.66
-18.30
-19.08
-20.58
-22.16
-23.19
-23.25
-22.11
-19.69
-16.00
-11.16
-5.51
0.38
5.77
9.97
12.53
13.45
13.10
12.06
10.85
9.74
8.79
7.91
7.05
6.29
5.74
5.49
5.51
5.64
5.72
5.62
5.39
5.13
5.01
5.13
5.52
6.10
6.69
7.07
7.00
6.31
4.95
3.00
0.75
-1.46
-3.29
-4.55
-5.24
-5.48
-5.49
-5.42
-5.35
-5.28
-5.24
-5.26
-5.41
-5.73
-6.17
-6.65
-7.04
-7.27
-7.35
-7.39
-7.50
-7.79
-8.30
-8.97
-9.72
-10.41
-10.93
-11.28
-11.50
-11.71
-11.99
-12.40
-12.98
-13.75
-14.79
-16.20
-17.96
-19.90
-21.64
-22.70
-22.74
-21.71
-20.02
-18.41
-17.75
-18.67
-21.36
-25.51
-30.51
-35.73
-40.80
-45.82
-51.20
-57.41
-64.70
-72.89
-81.38
-89.43
-96.48
-102.36
-107.45
-112.43
-118.04
-124.82
-133.11
-143.12
-154.97
-168.39
-182.25
-194.15
-200.61
-197.92
-183.43
-156.57
-119.16
-74.52
-26.06
23.91
74.41
125.05
174.86
221.70
262.61
294.89
317.34
330.68
337.05
338.97
338.34
336.16
332.83
328.83
325.19
323.37
324.54
328.74
334.28
337.95
335.84
324.63
302.75
270.94
231.74
188.44
143.66
98.45
52.17
3.51
-48.05
-100.99
-151.49
-194.52
-225.65
-242.84
-247.19
-242.36
-232.88
-222.43
-212.72
-203.68
-194.48
-184.80
-175.31
-167.40
-162.25
-160.03
-159.62
-159.19
-157.11
-152.78
-146.93
-141.34
-137.93
-137.91
-141.23
-146.61
-152.16
-156.29
-158.40
-159.08
-159.79
-162.12
-167.22
-175.50
-186.72
-200.07
-214.20
-227.09
-236.06
-238.14
-230.86
-213.07
-185.44
-150.17
-110.02
-67.09
-22.30
24.33
72.49
120.49
164.89
201.34
226.23
238.20
238.71
231.26
219.80
207.26
194.82
182.33
169.32
155.94
143.17
132.29
124.08
118.28
113.72
108.98
103.12
96.14
88.81
82.22
77.12
73.60
71.08
68.64
65.48
61.24
56.08
50.58
45.39
40.98
37.49
34.73
32.27
29.76
27.02
24.17
21.61
19.80
19.13
19.75
21.51
24.00
26.73
29.30
31.55
33.68
36.11
39.30
43.45
48.40
53.57
58.28
62.15
65.35
68.55
72.59
78.01
84.74
92.10
99.21
105.43
110.72
115.66
121.10
127.75
135.94
145.72
156.93
169.29
182.15
194.03
202.52
204.67
197.84
180.68
153.71
118.93
78.83
35.22
-11.16
-59.93
-109.81
-157.60
-198.46
-227.40
-241.40
-240.74
-228.89
-210.95
-191.57
-173.50
-157.38
-142.62
-128.67
-115.81
-105.04
-97.35
-92.96
-91.06
-90.18
-88.80
-86.02
-81.74
-76.56
-71.29
-66.49
-62.18
-57.96
-53.28
-47.84
-41.80
-35.75
-30.40
-26.29
-23.50
-21.70
-20.35
-18.91
-17.10
-14.85
-12.30
-9.69
-7.22
-5.05
-3.30
-1.98
-1.02
-0.25
0.53
1.44
2.47
3.46
4.21
4.57
4.52
4.12
3.50
2.71
1.70
0.39
-1.29
-3.29
-5.45
-7.48
-9.08
-10.06
-10.38
-10.23
-9.90
-9.73
-9.94
-10.61
-11.63
-12.89
-14.31
-15.88
-17.56
-19.17
-20.33
-20.50
-19.20
-16.18
-11.62
-6.13
-0.53
4.33
7.91
10.04
10.92
10.93
10.55
10.18
10.10
10.35
10.72
10.78
10.05
8.20
5.33
