1660938826.00
64.000000
-0.00
-0.00
-0.00
-0.00
-0.00
-0.00
-0.00
-0.00
-0.00
-0.00
0.00
0.01
0.01
-0.00
-0.03
-0.05
-0.05
0.00
0.13
0.36
0.66
1.01
1.37
1.72
2.06
2.40
2.79
3.25
3.81
4.44
5.10
5.73
6.32
6.89
7.51
8.25
9.15
10.29
11.56
12.83
13.98
14.95
15.84
16.84
18.19
20.02
22.55
25.54
28.69
31.70
34.44
37.03
39.84
43.34
47.83
53.65
60.38
67.43
74.22
80.48
86.40
92.62
99.91
108.77
119.60
131.71
144.12
155.92
166.71
176.81
187.17
199.32
211.91
226.90
244.46
264.34
285.21
304.41
318.14
322.33
313.97
292.10
258.61
216.64
169.88
121.35
72.90
25.46
-20.36
-63.87
-104.37
-141.32
-175.25
-207.49
-239.81
-273.68
-309.48
-345.81
-379.41
-405.92
-421.10
-422.57
-410.71
-388.62
-360.89
-331.78
-303.98
-278.22
-254.00
-230.55
-207.83
-186.52
-167.40
-150.78
-136.15
-122.46
-108.71
-94.47
-80.03
-66.25
-54.09
-44.10
-36.20
-29.74
-23.84
-17.78
-11.30
-4.66
1.59
6.89
10.96
13.91
16.13
18.06
20.00
22.01
23.92
25.48
26.49
26.91
26.85
26.51
26.13
25.82
25.65
25.54
25.40
25.09
24.56
23.81
22.92
22.02
21.22
20.57
20.05
19.58
19.09
18.52
17.89
17.24
16.64
16.09
15.59
15.11
14.61
14.10
13.60
13.13
12.72
12.40
12.18
12.06
12.01
11.96
11.88
11.73
11.49
11.17
10.81
10.46
10.15
9.91
9.75
9.65
9.56
9.43
9.20
8.85
8.41
7.97
7.59
7.32
7.12
6.96
6.76
6.50
6.21
5.92
5.66
5.41
5.13
4.78
4.35
3.92
3.58
3.34
3.15
2.84
2.26
1.37
0.23
-0.99
-2.08
-2.92
-3.50
-3.95
-4.40
-4.95
-5.64
-6.43
-7.23
-7.97
-8.62
-9.18
-9.71
-10.26
-10.90
-11.65
-12.43
-13.13
-13.58
-13.68
-13.43
-12.95
-12.46
-12.15
-12.13
-12.36
-12.75
-13.18
-13.47
-13.31
-12.35
-10.30
-7.12
-3.24
0.58
3.45
4.84
4.72
3.65
2.39
1.59
1.45
1.82
2.31
2.67
2.85
2.98
3.25
3.72
4.28
4.78
5.05
5.00
4.73
4.40
4.21
4.24
4.50
4.89
5.33
5.77
6.27
6.88
7.62
8.41
9.11
9.58
9.76
9.65
9.29
8.71
7.94
6.98
5.88
4.72
3.59
2.58
1.73
1.00
0.32
-0.41
-1.21
-2.03
-2.73
-3.18
-3.29
-3.12
-2.85
-2.67
-2.69
-2.84
-2.90
-2.56
-1.58
0.10
2.35
4.88
7.30
9.26
10.51
10.97
10.74
10.08
9.32
8.77
8.67
9.06
9.85
10.83
11.76
12.43
12.75
12.73
12.44
11.97
11.37
10.65
9.77
8.77
7.72
6.79
6.18
6.01
6.22
6.56
6.64
6.11
4.78
2.73
0.31
-2.08
-4.04
-5.41
-6.23
-6.66
-6.93
-7.24
-7.73
-8.42
-9.21
-9.77
-9.56
-8.02
-4.82
-0.15
5.13
9.79
12.62
13.00
11.09
7.75
4.09
0.99
-1.16
-2.43
-3.08
-3.30
-3.13
-2.55
-1.63
-0.64
0.05
0.08
-0.63
-1.90
-3.31
-4.41
-4.87
-4.62
-3.86
-2.95
-2.21
-1.83
-1.78
-1.87
-1.87
-1.67
-1.29
-0.91
-0.72
-0.85
-1.30
-1.93
-2.60
-3.11
-3.35
-3.26
-2.88
-2.33
-1.73
-1.24
-0.90
-0.68
-0.49
-0.25
0.05
0.32
0.44
0.37
0.16
0.00
0.13
0.68
1.61
2.70
3.69
4.37
4.71
4.83
4.91
5.10
5.47
5.92
6.33
6.57
6.52
6.15
5.43
4.39
3.13
1.77
0.52
-0.42
-0.94
-1.02
-0.81
-0.51
-0.35
-0.45
-0.80
-1.25
-1.64
-1.83
-1.79
-1.61
-1.40
-1.27
-1.25
-1.28
-1.28
-1.18
-1.00
-0.81
-0.69
-0.70
-0.83
-1.02
-1.22
-1.38
-1.54
-1.72
-1.95
-2.21
-2.44
-2.60
-2.67
-2.66
-2.64
-2.63
-2.67
-2.77
-2.91
-3.08
-3.29
-3.52
-3.75
-3.93
-4.05
-4.13
-4.22
-4.40
-4.72
-5.19
-5.75
-6.27
-6.67
-6.92
-7.09
-7.34
-7.76
-8.27
-8.62
-8.37
-7.15
-4.76
-1.32
2.81
7.13
11.17
14.64
17.34
19.15
20.00
19.84
18.73
16.93
14.81
12.80
11.19
10.11
9.45
9.06
8.75
8.43
8.08
7.70
7.23
6.58
5.66
4.47
3.06
1.60
0.22
-0.96
-1.90
-2.61
-3.06
-3.25
-3.13
-2.74
-2.16
-1.55
-1.06
-0.78
-0.70
-0.72
-0.70
-0.55
-0.27
0.07
0.36
0.52
0.53
0.44
0.31
0.15
-0.03
-0.29
-0.67
-1.16
-1.65
-2.03
-2.21
-2.18
-2.00
-1.77
-1.59
-1.50
-1.50
-1.57
-1.71
-1.90
-2.13
-2.34
-2.46
-2.42
-2.17
-1.76
-1.29
-0.86
-0.59
-0.51
-0.59
-0.73
-0.78
-0.67
-0.36
0.09
0.55
0.89
1.02
0.93
0.67
0.32
-0.02
-0.30
-0.48
-0.53
-0.45
-0.28
-0.05
0.15
0.28
0.29
0.19
0.00
-0.21
-0.40
-0.50
-0.51
-0.40
-0.21
-0.01
0.14
0.15
-0.01
-0.29
-0.57
-0.75
-0.71
-0.48
-0.16
0.11
0.21
0.13
-0.07
-0.30
-0.45
-0.48
-0.41
-0.27
-0.13
0.00
0.12
0.23
0.35
0.49
0.65
0.79
0.88
0.88
0.81
0.71
0.62
0.58
0.58
0.59
0.55
0.46
0.36
0.29
0.30
0.36
0.39
0.32
0.13
-0.14
-0.38
-0.48
-0.40
-0.21
-0.05
-0.05
-0.23
-0.51
-0.74
-0.79
-0.69
-0.54
-0.50
-0.61
-0.79
-0.88
-0.76
-0.44
-0.06
0.25
0.38
0.40
0.43
0.57
0.84
1.13
1.31
1.31
1.15
0.91
0.72
0.62
0.58
0.56
0.50
0.37
0.19
-0.02
-0.26
-0.51
-0.75
-0.95
-1.02
-0.91
-0.62
-0.22
0.14
0.33
0.30
0.07
-0.24
-0.48
-0.59
-0.56
-0.44
-0.32
-0.26
-0.28
-0.38
-0.52
-0.65
-0.73
-0.71
-0.58
-0.39
-0.21
-0.10
-0.10
-0.16
-0.20
-0.12
0.12
0.48
0.88
1.21
1.40
1.43
1.31
1.10
0.84
0.58
0.36
0.19
0.09
0.07
0.11
0.19
0.29
0.37
0.39
0.37
0.30
0.18
0.02
-0.19
-0.43
-0.66
-0.81
-0.81
-0.67
-0.43
-0.19
-0.04
-0.01
-0.08
-0.19
-0.29
-0.37
-0.42
-0.45
-0.43
-0.33
-0.17
0.03
0.17
0.24
0.25
0.27
0.34
0.47
0.63
0.74
0.74
0.65
0.51
0.42
0.42
0.54
0.72
0.93
1.08
1.13
1.04
0.82
0.50
0.13
-0.23
-0.56
-0.81
-0.96
-0.98
-0.89
-0.76
-0.64
-0.61
-0.65
-0.69
-0.65
-0.45
-0.15
0.14
0.28
0.19
-0.10
-0.44
-0.65
-0.61
-0.32
0.11
0.50
0.71
0.68
0.42
0.04
-0.37
-0.72
-0.97
-1.08
-1.06
-0.90
-0.64
-0.35
-0.05
0.22
0.46
0.70
0.90
1.06
1.14
1.14
1.12
1.11
1.12
1.10
0.99
0.75
0.41
0.08
-0.14
-0.21
-0.16
-0.06
0.02
0.02
-0.05
-0.13
-0.23
-0.32
-0.44
-0.59
-0.80
-1.01
-1.20
-1.31
-1.31
-1.19
-1.01
-0.81
-0.63
-0.48
-0.36
-0.22
-0.08
0.07
0.20
0.29
0.35
0.42
0.52
0.67
0.87
1.09
1.31
1.49
1.59
1.55
1.37
1.06
0.72
0.46
0.35
0.38
0.45
0.44
0.30
0.07
-0.17
-0.30
-0.29
-0.17
-0.03
0.05
0.03
-0.07
-0.17
-0.23
-0.20
-0.13
-0.07
-0.07
-0.16
-0.32
-0.46
-0.53
-0.51
-0.42
-0.36
-0.38
-0.48
-0.58
-0.60
-0.51
-0.35
-0.22
-0.18
-0.27
-0.45
-0.67
-0.86
-0.99
-1.06
-1.05
-0.97
-0.85
-0.74
-0.69
-0.74
-0.85
-0.93
-0.87
-0.63
-0.27
0.09
0.31
0.37
0.30
0.24
0.31
0.55
0.90
1.27
1.55
1.67
1.62
1.40
1.04
0.58
0.07
-0.41
-0.77
-0.96
-0.99
-0.93
-0.87
-0.88
-0.97
-1.08
-1.15
-1.16
-1.12
-1.08
-1.13
-1.28
-1.54
-1.86
-2.24
-2.66
-3.12
-3.62
-4.15
-4.65
-5.06
-5.32
-5.41
-5.37
-5.30
-5.34
-5.63
-6.27
-7.18
-8.20
-9.09
-9.66
-9.88
-9.93
-10.11
-10.73
-11.98
-13.89
-16.30
-18.96
-21.67
-24.29
-26.87
-29.60
-32.69
-36.34
-40.53
-45.02
-49.39
-53.24
-56.42
-59.17
-62.11
-65.96
-71.20
-77.83
-85.32
-92.95
-100.21
-107.10
-114.19
-122.26
-131.97
-143.57
-157.02
-172.06
-188.22
-204.44
-218.71
-228.08
-229.26
-219.69
-198.63
-167.47
-129.04
-86.33
-41.25
5.60
54.10
103.21
150.12
190.60
220.49
237.53
242.37
238.30
229.77
220.60
212.94
207.12
202.55
198.70
195.62
193.80
193.66
195.10
197.51
200.15
202.52
204.56
206.53
208.77
211.49
214.70
218.36
222.41
226.70
230.98
234.93
238.37
241.41
244.25
246.66
247.60
245.00
236.33
219.62
194.31
161.62
123.95
83.70
42.11
-1.08
-46.81
-95.27
-144.63
-190.81
-228.62
-253.72
-264.35
-262.04
-250.76
-235.23
-219.18
-204.34
-190.75
-177.75
-165.02
-152.95
-142.36
-133.73
-126.75
-120.40
-113.46
-105.22
-95.74
-85.86
-76.68
-69.05
-63.20
-58.69
-54.69
-50.38
-45.33
-39.65
-33.89
-28.75
-24.75
-22.03
-20.25
-18.88
-17.33
-15.29
-12.79
-10.13
-7.72
-5.87
-4.68
-4.05
-3.73
-3.46
-3.05
-2.46
-1.76
-1.08
-0.54
-0.21
-0.09
-0.10
-0.12
-0.04
0.20
0.57
0.98
1.33
1.51
1.53
1.40
1.19
0.94
0.69
0.45
0.27
0.15
0.12
0.13
0.16
0.15
0.12
0.13
0.28
0.61
1.08
1.58
1.98
2.19
2.25
2.23
2.24
2.33
2.45
2.53
2.47
2.25
1.89
1.45
0.99
0.49
-0.08
-0.75
-1.46
-2.09
-2.47
-2.49
-2.16
-1.63
-1.11
-0.79
-0.67
-0.67
-0.61
-0.42
-0.16
0.02
-0.02
-0.29
-0.72
-1.16
-1.52
-1.76
-1.90
-1.96
-1.91
-1.70
-1.31
-0.77
-0.17
0.37
0.75
0.94
0.94
0.77
0.50
0.23
0.09
0.19
0.59
1.21
1.91
2.51
2.92
3.14
3.26
3.32
3.31
3.14
2.69
1.94
0.94
-0.18
-1.29
-2.32
-3.26
-4.11
-4.82
-5.28
-5.38
-5.02
-4.26
-3.23
-2.15
-1.17
-0.37
0.27
0.80
1.30
1.77
2.17
2.42
2.45
2.27
1.95
1.60
1.35
1.24
1.22
1.17
0.99
0.64
0.16
-0.31
-0.64
-0.79
-0.80
-0.77
-0.80
-0.88
-0.95
-0.95
-0.85
-0.75
-0.77
-1.04
-1.59
-2.27
-2.88
-3.18
-3.02
-2.41
-1.48
-0.44
0.53
1.31
1.82
2.04
1.95
1.61
1.13
0.67
0.38
0.37
0.62
1.01
1.41
1.71
1.91
2.10
2.34
2.63
2.90
3.01
2.83
2.29
1.43
0.31
-0.97
-2.29
-3.52
-4.52
-5.13
-5.26
-4.92
-4.22
-3.34
-2.50
-1.81
-1.26
-0.75
-0.16
0.59
1.48
2.42
3.29
3.98
4.40
4.49
4.23
3.64
2.80
1.82
0.85
0.00
-0.66
-1.14
-1.46
-1.63
-1.65
-1.53
-1.30
-1.07
-0.96
-1.04
-1.31
-1.68
-2.00
-2.16
-2.15
-1.99
-1.80
-1.65
-1.56
-1.51
-1.50
-1.54
-1.68
-1.96
-2.40
-2.96
-3.54
-4.01
-4.29
-4.29
-3.94
-3.23
-2.11
-0.63
1.12
3.01
4.91
6.71
8.30
9.58
10.41
10.65
10.18
8.97
7.13
4.83
2.29
-0.32
-2.80
-4.96
-6.60
-7.53
-7.66
-7.05
-5.90
-4.42
-2.80
-1.16
0.44
1.89
3.07
3.82
4.12
4.08
3.93
3.89
3.99
4.12
4.05
3.65
2.92
2.04
1.21
0.55
0.08
-0.29
-0.66
-1.05
-1.44
-1.76
-1.99
-2.17
-2.33
-2.51
-2.71
-2.92
-3.12
-3.29
-3.47
-3.66
-3.89
-4.17
-4.49
-4.80
-5.07
-5.26
-5.37
-5.37
-5.26
-5.02
-4.65
-4.19
-3.77
-3.47
-3.31
-3.11
-2.54
-1.23
1.03
4.18
7.89
11.64
14.99
17.59
19.28
19.98
19.70
18.44
16.35
13.67
10.73
7.85
5.21
2.86
0.70
-1.34
-3.25
-4.90
-6.12
-6.80
-6.94
-6.69
-6.24
-5.75
-5.26
-4.72
-4.06
-3.27
-2.44
-1.71
-1.22
-0.98
-0.96
-1.08
-1.30
-1.62
-2.02
-2.42
-2.67
-2.66
-2.41
-2.07
-1.85
-1.84
-1.95
-2.00
-1.82
-1.39
-0.89
-0.56
-0.52
-0.75
-1.06
-1.28
-1.34
-1.31
-1.31
-1.39
-1.53
-1.63
-1.57
-1.31
-0.88
-0.35
0.16
0.55
0.75
0.71
0.48
0.10
-0.33
-0.74
-1.06
-1.30
-1.41
-1.38
-1.20
-0.87
-0.51
-0.28
-0.34
-0.75
-1.44
-2.21
-2.81
-3.06
-2.95
-2.62
-2.29
-2.13
-2.19
-2.38
-2.56
-2.65
-2.66
-2.68
-2.80
-3.02
-3.26
-3.44
-3.51
-3.49
-3.42
-3.32
-3.11
-2.66
-1.90
-0.90
0.19
1.18
1.97
2.67
3.51
4.73
6.39
8.31
10.11
11.36
11.77
11.31
10.16
8.63
7.04
5.57
4.30
3.20
2.24
1.38
0.58
-0.21
-1.01
-1.86
-2.74
-3.58
-4.29
-4.73
-4.84
-4.60
-4.11
-3.53
-3.02
-2.68
-2.53
-2.53
-2.62
-2.78
-3.08
-3.57
-4.32
-5.24
-6.16
-6.89
-7.33
-7.53
-7.62
-7.76
-7.99
-8.26
-8.47
-8.52
-8.36
-7.88
-6.82
-4.82
-1.61
2.78
7.80
12.53
15.92
17.26
16.40
13.80
10.25
6.54
3.17
0.30
-2.20
-4.51
-6.74
-8.86
-10.73
-12.22
-13.25
-13.94
-14.56
-15.45
-16.94
-19.22
-22.27
-25.86
-29.57
-32.88
-35.40
-36.98
-37.92
-38.93
-40.90
-44.53
-49.94
-56.51
-63.12
-68.54
-72.02
-73.62
-74.09
-74.63
-76.45
-80.46
-87.11
-95.95
-105.16
-111.28
-109.68
-96.02
-68.38
-28.88
16.30
58.71
90.66
108.00
111.20
104.38
92.92
81.14
71.07
62.77
55.46
48.56
42.08
36.31
31.29
26.62
21.51
15.25
7.52
-1.58
-11.59
-21.97
-32.35
-42.43
-51.90
-60.18
-66.36
-69.50
-69.11
-65.63
-60.72
-57.01
-57.37
-63.72
-75.93
-91.18
-104.34
-109.41
-101.58
-79.14
-44.26
-2.39
39.70
76.08
103.21
120.28
128.36
129.21
124.49
115.67
104.39
92.68
82.85
76.70
74.71
75.66
76.78
74.65
66.53
51.33
30.06
5.62
-18.03
-36.73
-47.18
-47.68
-38.55
-22.05
-1.81
18.31
35.28
47.67
55.76
60.83
64.23
66.72
68.34
68.97
68.97
69.44
71.75
76.83
84.50
93.43
101.82
108.13
111.90
113.92
115.90
119.60
126.09
135.23
145.77
155.96
164.36
170.48
174.88
178.78
183.49
189.87
198.18
207.98
218.20
227.05
232.25
231.34
222.37
204.61
178.78
146.82
111.01
73.07
33.46
-8.41
-53.35
-101.14
-149.64
-194.93
-232.30
-257.92
-270.22
-270.43
-261.88
-248.59
-233.73
-218.87
-204.23
-189.53
-174.91
-161.15
-149.28
-139.85
-132.44
-125.82
-118.57
-109.79
-99.52
-88.62
-78.29
-69.46
-62.48
-56.99
-52.24
-47.48
-42.27
-36.63
-30.95
-25.77
-21.51
-18.34
-16.11
-14.45
-12.95
-11.29
-9.35
-7.22
-5.11
-3.25
-1.82
-0.88
-0.36
-0.13
-0.01
0.16
0.47
0.93
1.48
2.00
2.35
2.43
2.22
1.78
1.22
0.66
0.23
-0.04
-0.13
-0.09
0.02
0.11
0.16
0.17
0.18
0.22
0.25
0.24
0.15
0.02
-0.04
0.07
0.36
0.74
1.02
1.06
0.86
0.53
0.28
0.27
0.55
1.00
1.47
1.83
1.99
1.96
1.79
1.55
1.34
1.23
1.32
1.58
1.95
2.26
2.38
2.25
1.93
1.52
1.17
0.95
0.92
1.06
1.33
1.68
2.07
2.45
2.75
2.91
2.84
2.51
1.88
0.95
-0.26
-1.64
-3.08
-4.39
-5.43
-6.12
-6.47
-6.59
-6.62
-6.67
-6.77
-6.91
-7.02
-7.06
-7.00
-6.77
-6.25
-5.31
-3.82
-1.75
0.82
3.75
6.84
9.92
12.84
15.41
17.31
18.22
17.81
15.99
12.91
9.00
4.85
1.00
-2.18
-4.58
-6.29
-7.47
-8.32
-8.94
-9.35
-9.55
-9.54
-9.36
-9.12
-8.97
-9.02
-9.32
-9.80
-10.31
-10.70
-10.83
-10.68
-10.31
-9.86
-9.45
-9.13
-8.87
-8.55
-8.04
-7.23
-6.09
-4.64
-2.96
-1.17
0.56
2.06
3.16
3.76
3.86
3.60
3.30
3.38
4.19
5.83
8.12
10.55
12.57
13.79
14.14
13.86
13.32
12.75
12.17
11.39
10.18
8.50
6.49
4.45
2.67
1.27
0.24
-0.53
-1.14
-1.62
-1.90
-1.90
-1.58
-0.98
-0.19
0.63
1.38
2.01
2.57
3.13
3.73
4.33
4.86
5.21
5.35
5.36
5.38
5.52
5.80
6.12
6.31
6.24
5.90
5.39
4.88
4.53
4.41
4.48
4.59
4.53
4.01
2.77
0.65
-2.35
-6.01
-9.92
-13.56
-16.45
-18.28
-18.97
-18.70
-17.75
-16.44
-15.00
-13.57
-12.13
-10.62
-8.94
-7.01
-4.76
-2.15
0.84
4.12
7.49
10.61
13.11
14.67
15.17
14.65
13.36
11.58
9.55
7.42
5.31
3.33
1.62
0.32
-0.48
-0.84
-0.95
-1.01
-1.20
-1.57
-2.06
-2.54
-2.91
-3.14
-3.33
-3.56
-3.91
-4.36
-4.78
-5.00
-4.91
