1660325598.00
64.000000
-0.00
-0.00
-0.00
-0.00
-0.00
-0.00
-0.00
-0.00
-0.00
-0.00
0.00
0.01
0.01
-0.00
-0.03
-0.05
-0.05
0.00
0.13
0.36
0.66
1.01
1.37
1.72
2.06
2.40
2.79
3.24
3.80
4.42
5.06
5.66
6.20
6.68
7.15
7.68
8.31
9.14
10.09
11.04
11.88
12.56
13.14
13.76
14.65
15.96
17.91
20.32
22.90
25.38
27.58
29.57
31.68
34.32
37.81
42.54
48.15
54.10
59.83
64.97
69.58
74.14
79.34
85.71
93.76
103.00
112.62
121.73
129.77
136.75
143.30
150.75
157.77
166.64
177.95
191.79
206.97
220.57
228.25
225.36
208.53
176.87
132.76
80.05
23.07
-34.94
-92.44
-149.16
-205.23
-260.37
-313.74
-363.87
-409.83
-450.91
-486.50
-515.74
-537.23
-549.22
-549.96
-538.37
-514.21
-478.67
-433.88
-382.45
-327.02
-269.84
-212.63
-156.66
-102.95
-52.37
-5.90
35.58
71.43
101.35
125.50
144.38
158.69
169.15
176.37
180.75
182.57
182.07
179.51
175.23
169.65
163.18
156.15
148.81
141.30
133.69
126.02
118.33
110.69
103.16
95.80
88.68
81.83
75.25
68.95
62.95
57.25
51.86
46.78
42.03
37.59
33.45
29.61
26.07
22.81
19.83
17.11
14.67
12.48
10.54
8.83
7.35
6.07
4.97
4.04
3.26
2.61
2.09
1.67
1.33
1.05
0.81
0.58
0.36
0.16
-0.02
-0.14
-0.20
-0.21
-0.19
-0.19
-0.22
-0.30
-0.39
-0.47
-0.51
-0.47
-0.40
-0.32
-0.29
-0.36
-0.53
-0.75
-0.95
-1.03
-0.97
-0.80
-0.64
-0.63
-0.88
-1.38
-2.01
-2.57
-2.85
-2.76
-2.40
-2.03
-1.95
-2.39
-3.36
-4.60
-5.71
-6.27
-6.13
-5.43
-4.63
-4.28
-4.77
-6.12
-7.95
-9.59
-10.51
-10.43
-9.54
-8.34
-7.42
-7.25
-8.12
-10.17
-13.26
-16.81
-19.48
-19.36
-14.67
-4.64
9.73
25.73
39.93
49.57
53.51
52.54
48.56
43.48
38.44
33.71
28.87
23.73
18.48
13.58
9.30
5.61
2.13
-1.52
-5.53
-9.71
-13.46
-16.10
-17.14
-16.47
-14.53
-12.17
-10.32
-9.72
-10.49
-12.01
-13.23
-13.05
-10.81
-6.66
-1.47
3.49
7.07
8.55
7.89
5.56
2.29
-1.20
-4.36
-6.87
-8.60
-9.47
-9.49
-8.73
-7.40
-5.81
-4.39
-3.51
-3.35
-3.87
-4.83
-5.90
-6.83
-7.46
-7.77
-7.87
-7.86
-7.88
-8.10
-8.66
-9.59
-10.69
-11.53
-11.51
-10.11
-6.99
-2.13
4.19
11.54
19.09
25.82
30.74
33.15
32.82
30.04
25.48
20.06
14.59
9.71
5.79
3.00
1.31
0.51
0.26
0.07
-0.47
-1.62
-3.47
-5.81
-8.34
-10.76
-12.88
-14.75
-16.49
-18.36
-20.58
-23.28
-26.31
-29.28
-31.41
-31.82
-29.73
-24.74
-17.08
-7.57
2.60
12.24
20.41
26.60
30.56
32.24
31.74
29.29
25.38
20.79
16.40
12.99
10.94
10.19
10.28
10.50
10.22
9.01
6.81
3.86
0.56
-2.66
-5.53
-8.05
-10.40
-12.90
-15.86
-19.44
-23.56
-27.87
-31.64
-33.98
-33.99
-31.05
-25.09
-16.68
-6.85
3.14
12.20
19.59
24.94
28.21
29.50
29.02
27.07
24.09
20.66
17.43
14.93
13.44
12.87
12.78
12.58
11.77
10.12
7.75
5.01
2.28
-0.21
-2.43
-4.53
-6.71
-9.13
-11.93
-15.18
-18.87
-22.83
-26.61
-29.44
-30.41
-28.73
-24.12
-16.91
-7.96
1.57
10.53
18.05
23.58
26.87
27.98
27.20
25.01
22.02
18.86
15.96
13.58
11.75
10.41
9.46
8.74
8.09
7.28
6.09
4.42
2.26
-0.28
-3.04
-5.85
-8.64
-11.38
-14.12
-16.94
-19.94
-23.12
-26.29
-29.00
-30.56
-30.24
-27.44
-21.99
-14.20
-4.92
4.77
13.68
20.90
25.85
28.40
28.74
27.33
24.72
21.49
18.16
15.16
12.75
10.98
9.76
8.81
7.85
6.64
5.04
3.05
0.74
-1.80
-4.45
-7.12
-9.71
-12.14
-14.37
-16.43
-18.45
-20.60
-22.98
-25.48
-27.60
-28.58
-27.56
-23.91
-17.52
-8.91
0.84
10.46
18.75
24.90
28.47
29.42
27.98
24.57
19.77
14.31
9.02
4.63
1.67
0.30
0.28
1.07
1.97
2.38
1.93
0.58
-1.40
-3.63
-5.74
-7.56
-9.14
-10.68
-12.44
-14.62
-17.27
-20.25
-23.14
-25.34
-26.10
-24.70
-20.72
-14.22
-5.84
3.32
11.94
18.90
23.45
25.32
24.73
22.20
18.43
14.20
10.20
6.94
4.63
3.16
2.19
1.33
0.28
-1.05
-2.58
-4.11
-5.48
-6.60
-7.49
-8.26
-9.08
-10.14
-11.67
-13.79
-16.38
-19.05
-21.02
-21.38
-19.29
-14.38
-6.94
2.12
11.42
19.55
25.44
28.54
28.90
27.02
23.55
19.22
14.64
10.34
6.74
4.08
2.40
1.46
0.83
-0.01
-1.42
-3.43
-5.78
-8.05
-9.94
-11.42
-12.76
-14.37
-16.57
-19.40
-22.53
-25.27
-26.73
-26.08
-22.72
-16.52
-7.93
2.07
12.17
21.10
27.83
31.83
33.06
31.83
28.75
24.56
20.01
15.77
12.32
9.89
8.42
7.66
7.25
6.84
6.16
5.06
3.51
1.60
-0.56
-2.83
-5.15
-7.62
-10.40
-13.65
-17.28
-20.87
-23.57
-24.44
-22.67
-18.03
-10.95
-2.43
6.29
14.07
20.12
23.98
25.54
24.91
22.43
18.68
14.39
10.31
7.00
4.64
3.09
2.00
1.06
0.05
-1.06
-2.22
-3.36
-4.49
-5.65
-6.91
-8.42
-10.34
-12.89
-16.10
-19.77
-23.25
-25.54
-25.52
-22.36
-15.89
-6.72
3.84
14.18
22.82
28.75
31.64
31.68
29.45
25.64
20.99
16.13
11.64
7.98
5.43
4.01
3.45
3.29
3.03
2.33
1.17
-0.23
-1.57
-2.73
-3.76
-4.97
-6.59
-8.65
-10.83
-12.52
-13.00
-11.66
-8.14
-2.43
5.22
14.31
24.24
34.31
43.82
52.12
58.76
63.59
66.82
69.03
71.04
73.69
77.68
83.32
90.50
98.61
106.64
113.40
117.69
118.68
116.19
110.81
103.87
97.02
91.61
88.17
86.16
84.10
80.25
73.42
63.41
51.64
41.01
34.89
35.82
44.48
59.44
77.71
95.75
110.25
119.11
121.68
118.37
109.91
96.92
79.86
59.44
36.93
13.33
-10.08
-32.11
-52.08
-70.33
-87.86
-105.38
-122.51
-137.81
-151.50
-163.92
-175.18
-185.22
-194.35
-203.06
-211.07
-216.87
-217.97
-216.21
-213.20
-208.90
-201.83
-191.37
-178.86
-166.65
-156.87
-150.83
-155.81
-176.34
-210.86
-252.04
-291.47
-323.75
-347.31
-363.65
-376.02
-396.48
-432.96
-484.18
-540.67
-592.03
-632.63
-661.99
-682.54
-642.90
-518.11
-324.13
-109.57
81.03
228.22
332.30
401.91
447.07
476.40
487.82
479.80
456.39
426.81
399.84
379.82
367.13
360.27
357.53
351.06
335.51
311.65
285.22
262.09
244.69
232.37
223.05
214.77
202.16
181.78
154.66
125.17
97.62
73.83
53.36
34.79
16.98
-0.59
-19.36
-38.04
-54.02
-65.19
-71.41
-74.03
-74.95
-75.74
-78.25
-83.97
-92.74
-102.77
-110.59
-111.86
-102.71
-81.55
-50.49
-15.02
17.67
42.03
55.85
60.64
59.92
57.17
54.20
51.18
47.65
43.59
40.10
38.57
39.79
43.15
46.91
48.84
47.12
41.27
32.34
22.65
14.94
11.40
12.64
17.56
23.42
27.40
27.50
23.45
16.82
10.03
5.23
3.12
2.84
2.54
0.56
-3.81
-10.06
-16.90
-23.23
-28.68
-33.76
-39.22
-45.56
-52.40
-58.74
-63.42
-65.75
-65.81
-64.21
-61.68
-58.37
-53.87
-47.50
-38.78
-27.94
-15.97
-4.20
6.36
15.42
23.82
32.56
42.15
52.04
60.59
65.76
66.09
61.58
53.63
45.19
39.04
36.60
37.61
40.35
42.57
42.33
38.41
29.98
16.32
-3.22
-28.16
-55.82
-81.17
-98.05
-101.60
-90.25
-68.26
-43.10
-22.55
-11.43
-9.93
-14.30
-19.25
-20.55
-16.67
-8.75
0.83
9.62
16.23
20.36
22.62
24.03
25.66
28.29
32.51
38.96
47.64
57.25
64.52
64.85
54.07
31.09
-0.42
-32.31
-54.60
-59.79
-46.26
-19.18
11.70
36.22
47.82
45.40
32.53
15.10
-1.56
-14.24
-21.99
-25.19
-24.72
-21.58
-16.84
-12.09
-9.22
-10.07
-15.57
-25.27
-37.36
-49.58
-60.12
-68.39
-75.10
-81.53
-88.91
-97.73
-107.43
-116.48
-122.83
-124.55
-120.74
-112.17
-101.05
-90.49
-83.09
-79.63
-78.66
-77.11
-71.53
-59.32
-41.02
-18.31
6.21
29.97
50.99
67.89
79.66
85.40
84.50
77.04
64.44
49.23
34.50
22.97
16.04
13.40
13.34
13.75
13.27
12.28
12.67
17.12
28.01
46.57
72.36
103.25
135.48
163.81
182.24
185.17
169.19
134.79
87.09
34.92
-11.54
-43.62
-56.67
-50.89
-30.88
-3.74
23.15
43.94
55.38
56.87
49.86
36.77
20.03
1.49
-17.65
-36.40
-53.49
-67.09
-75.14
-76.08
-69.61
-57.09
-41.38
-26.23
-15.35
-11.53
-15.93
-27.78
-44.29
-61.14
-73.50
-77.46
-71.65
-58.13
-42.07
-30.06
-27.51
-36.32
-53.99
-74.46
-90.44
-96.05
-88.80
-70.13
-44.59
-18.22
3.25
15.79
17.76
9.95
-4.85
-22.73
-39.45
-51.21
-55.21
-50.02
-35.77
-14.25
11.35
37.00
58.79
73.91
81.33
81.92
78.01
72.68
68.95
69.28
75.06
86.18
100.65
114.82
124.09
124.58
114.76
96.40
74.28
54.45
41.94
38.90
44.07
53.81
64.01
71.90
76.86
80.20
84.00
89.86
98.20
108.20
118.35
127.23
134.07
138.84
141.90
143.56
143.65
141.49
136.15
126.84
113.14
95.02
72.66
46.40
16.91
-14.39
-44.92
-71.01
-88.58
-94.22
-86.50
-66.81
-39.39
-10.49
13.15
26.03
25.27
11.31
-12.33
-40.17
-66.36
-86.16
-97.06
-98.87
-93.31
-82.98
-70.62
-58.67
-49.15
-43.61
-42.94
-47.01
-54.44
-62.92
-69.83
-73.31
-72.91
-69.66
-65.46
-62.11
-60.50
-60.39
-60.75
-60.30
-57.89
-52.66
-44.05
-32.12
-18.02
-4.40
4.91
6.06
-3.07
-21.57
-45.27
-68.04
-83.96
-89.39
-83.92
-69.92
-51.11
-31.07
-12.26
4.07
17.67
28.83
38.24
46.75
55.22
64.18
73.59
82.83
90.93
96.88
99.85
99.29
94.85
86.45
74.32
59.16
42.04
24.15
6.58
-9.55
-22.89
-31.65
-33.89
-28.42
-15.92
0.34
14.93
21.94
17.31
0.62
-24.50
-51.64
-73.82
-85.73
-84.89
-71.80
-49.07
-20.42
10.10
38.67
62.11
78.31
86.61
88.08
85.20
81.11
78.54
78.89
81.89
85.92
88.73
88.24
83.10
72.79
57.54
38.36
17.07
-3.49
-19.89
-29.01
-29.38
-22.14
-11.20
-1.99
0.45
-6.52
-22.24
-43.20
-64.53
-81.76
-92.12
-94.84
-90.82
-81.74
-69.36
-55.11
-40.00
-24.84
-10.54
1.75
10.70
15.31
15.37
11.86
6.83
2.80
1.84
4.81
11.06
18.70
25.37
28.94
28.21
23.05
14.59
5.07
-2.45
-4.82
0.12
12.33
28.87
44.23
51.97
47.01
27.72
-3.28
-39.98
-74.94
-101.54
-115.39
-114.78
-100.42
-74.82
-41.95
-6.85
24.88
47.89
58.20
54.06
36.46
9.04
-22.45
-51.34
-71.40
-78.36
-71.27
-52.80
-28.53
-5.20
11.50
18.57
16.46
8.60
0.10
-3.82
0.69
15.14
38.19
65.63
91.22
108.19
111.26
98.52
72.36
38.94
6.14
-19.05
-32.77
-35.06
-29.04
-19.05
-8.69
0.04
6.69
11.41
14.16
14.53
12.15
7.24
0.75
-6.00
-12.03
-17.32
-22.92
-30.32
-40.62
-53.83
-68.42
-81.48
-89.18
-87.83
-75.09
-51.08
-18.99
15.30
44.48
61.93
63.59
49.33
22.82
-9.67
-41.07
-65.23
-78.00
-77.75
-65.32
-43.77
-17.77
7.26
26.51
36.97
38.18
32.09
22.13
11.84
3.66
-1.57
-4.31
-5.46
-5.67
-5.07
-3.47
-0.94
1.84
3.65
3.24
0.03
-5.23
-10.32
-12.13
-7.61
4.99
25.33
50.88
77.36
99.75
113.39
115.10
103.97
81.82
53.07
23.83
0.44
-12.29
-12.45
-1.54
16.26
35.67
52.14
63.05
67.93
67.83
64.33
58.74
51.91
44.42
36.99
30.59
26.38
25.24
27.39
32.15
37.94
42.67
44.20
40.84
31.81
17.57
-0.13
-18.41
-33.82
-43.30
-45.12
-39.63
-29.23
-17.68
-8.86
-5.62
-8.94
-17.72
-29.32
-40.51
-48.57
-52.32
-52.50
-51.45
-52.14
-56.91
-66.51
-79.84
-94.59
-108.16
-118.51
-124.51
-125.85
-122.65
-115.28
-104.29
-90.69
-75.85
-61.35
-48.52
-38.09
-29.99
-23.61
-18.13
-12.94
-7.81
-2.60
3.04
10.04
19.70
32.98
49.40
66.35
79.46
84.09
77.32
59.38
33.81
6.23
-17.58
-33.41
-39.56
-36.65
-26.87
-12.97
2.43
17.16
29.64
38.77
44.00
45.37
43.59
39.83
35.53
31.95
29.69
28.44
26.94
23.51
16.62
5.33
-10.45
-29.97
-51.60
-72.89
-90.79
-102.22
-105.11
-99.58
-88.55
-77.42
-72.45
-78.39
-96.33
-122.79
-150.46
-170.47
-175.20
-160.78
-128.13
-82.49
-31.67
16.19
54.62
80.05
91.94
92.29
84.60
72.87
60.68
50.67
44.32
42.04
43.54
48.03
54.45
61.51
67.78
71.85
72.73
70.32
65.75
61.45
60.61
66.17
79.54
99.63
122.37
141.50
150.22
143.36
119.16
79.98
31.79
-17.46
-59.81
-89.02
-101.65
-97.48
-79.32
-52.24
-22.35
4.56
24.45
35.65
38.79
35.82
28.92
19.62
8.67
-3.55
-16.52
-29.23
-40.50
-49.39
-55.76
-60.36
-64.64
-70.15
-77.92
-87.93
-98.93
-108.60
-114.21
-113.48
-105.52
-91.42
-74.23
-58.38
-48.43
-47.76
-57.45
-75.94
-99.29
-122.07
-138.61
-144.26
-136.45
-115.51
-84.73
-49.72
-16.86
8.42
23.27
27.91
25.11
18.82
12.56
8.53
7.45
9.11
13.06
18.95
26.39
34.72
42.78
49.18
52.74
52.93
50.18
45.70
41.19
38.42
38.99
43.90
53.16
65.39
77.71
86.32
87.69
80.07
64.58
45.27
27.96
18.28
19.75
32.72
54.62
81.00
107.06
128.84
143.85
151.03
150.57
143.54
131.54
116.44
100.06
83.95
69.16
56.18
45.00
35.18
25.95
16.26
5.01
-8.78
-25.65
-45.48
-67.36
-89.75
-110.50
-127.25
-137.75
-140.37
-134.67
-121.93
-105.32
-89.40
-78.89
-76.86
-83.41
-95.26
-106.77
-111.97
-106.65
-89.75
-63.33
-31.51
1.21
31.20
56.25
75.39
88.30
94.99
95.73
91.45
83.83
75.21
68.04
64.21
64.48
68.34
74.29
80.40
84.93
86.68
85.22
80.79
74.32
67.33
61.70
59.26
61.17
67.16
75.22
81.80
82.84
75.15
57.80
32.72
4.35
-21.61
-39.80
-46.79
-41.83
-26.84
-5.66
17.14
37.39
52.20
60.30
61.88
58.20
50.89
41.46
30.98
20.05
8.95
-2.10
-12.83
-22.82
-31.58
-38.76
-44.23
-48.20
-51.26
-54.22
-57.86
-62.53
-67.74
-72.04
-73.24
-69.15
-58.51
-41.86
-21.77
-2.35
11.99
18.00
14.73
3.77
-11.29
-25.99
-36.09
-38.53
-31.88
-16.62
4.95
29.12
51.46
67.89
75.55
73.60
63.18
46.96
28.20
9.90
-5.81
-17.82
-25.91
-30.52
-32.57
-33.37
-34.42
-37.19
-42.51
-50.06
-57.93
-63.04
-62.18
-53.40
-37.13
-16.45
3.82
18.80
25.15
22.24
12.06
-1.52
-14.02
-21.59
-21.90
-14.50
-0.73
16.79
34.95
50.92
62.64
68.88
69.10
63.27
51.84
35.84
16.90
-2.99
-21.97
-38.85
-53.34
-65.94
-77.43
-88.36
-98.78
-108.42
-116.89
-123.91
-129.19
-132.20
-132.10
-127.95
-119.38
-107.07
-92.86
-79.06
-67.56
-59.04
-52.88
-47.72
-42.32
-36.01
-28.48
-19.21
-6.87
10.38
33.87
63.04
94.65
123.07
141.82
145.81
133.34
106.94
72.67
38.23
10.49
-6.36
-11.65
-7.72
1.44
11.72
20.02
24.71
25.44
22.86
18.32
13.71
11.37
13.60
21.98
36.38
54.45
71.98
84.09
87.16
80.39
66.40
50.45
38.64
35.79
43.82
61.26
83.88
106.22
123.29
131.89
131.16
122.37
108.10
91.30
74.55
59.66
47.61
38.70
32.79
29.35
27.55
26.35
24.71
21.88
17.56
12.25
7.29
4.66
6.30
13.26
24.99
39.06
51.65
58.60
56.79
45.09
24.65
-1.48
-29.31
-54.77
-74.54
-86.52
-90.12
-86.37
-77.60
-66.94
-57.46
-51.45
-50.05
-53.34
-60.74
-71.51
-84.78
-99.44
-113.88
-126.05
-133.98
-136.57
-134.07
-128.12
-121.04
-114.96
-111.16
-109.83
-110.24
-110.97
-110.10
-105.42
-94.79
-77.12
-53.39
-27.26
-4.51
8.77
8.72
-4.36
-25.66
-47.56
-62.50
-65.73
-56.63
-38.12
-14.66
9.67
32.40
52.46
69.33
82.18
89.70
90.70
85.01
74.03
60.60
48.08
39.31
35.55
36.15
39.03
41.63
41.90
39.05
33.64
27.29
21.97
19.50
20.92
26.34
34.81
44.40
52.46
56.13
53.07
42.16
24.12
1.66
-20.96
-38.82
-47.62
-44.80
-30.30
-6.61
21.81
49.78
72.58
87.06
92.07
88.39
78.24
64.41
49.50
35.38
22.98
12.42
3.39
-4.56
-11.76
-18.45
-24.75
-30.72
-36.32
-41.30
-45.20
-47.27
-46.55
-41.91
-32.43
-17.81
0.90
20.83
37.32
44.88
38.83
17.09
-18.59
-62.63
-106.79
-142.30
-162.03
-162.23
-143.21
-109.02
-66.25
-22.25
16.57
46.05
64.69
73.25
73.84
68.93
60.78
51.16
41.47
32.74
25.43
19.33
13.42
6.13
-4.11
-18.41
-36.95
-58.82
-81.99
-103.57
-120.26
-129.11
-128.43
-118.62
-102.45
-84.66
-70.64
-64.65
-68.30
-79.84
-94.72
-107.02
-111.32
-104.33
-85.62
-57.60
-24.60
8.32
36.77
57.82
70.52
75.65
75.14
71.37
66.58
62.40
59.84
59.39
61.13
64.77
69.69
75.01
79.79
83.32
85.33
86.04
86.10
86.42
88.01
91.83
98.56
108.22
119.65
130.18
135.85
132.39
116.64
87.91
48.66
4.06
-39.33
-75.28
-99.37
-109.82
-107.52
-95.42
-77.66
-58.56
-41.68
-29.24
-21.88
-19.01
-19.44
-22.01
-25.92
-30.76
-36.24
-41.95
-47.37
-52.03
-55.76
-58.77
-61.55
-64.69
-68.54
-73.08
-77.85
-82.00
-84.38
-83.71
-78.84
-69.16
-55.11
-38.48
-22.50
-11.04
-7.45
-13.21
-26.98
-44.76
-60.90
-69.83
-67.67
-53.33
-28.55
2.71
35.53
65.15
87.92
101.72
106.10
102.10
91.99
78.88
66.28
57.39
54.46
58.11
67.01
78.12
87.57
91.89
89.24
80.15
67.58
56.11
50.61
54.57
68.75
90.46
113.96
131.87
137.47
126.84
100.28
62.43
20.87
-15.94
-41.07
-50.76
-44.99
-26.93
-1.54
25.98
51.43
72.18
87.12
96.10
99.49
97.86
91.91
82.51
70.60
56.96
41.99
25.78
8.41
-9.73
-27.69
-44.28
-58.41
-69.77
-79.06
-87.84
-97.98
-110.86
-126.62
-143.76
-159.42
-170.05
-172.64
-166.08
-152.02
-134.82
-120.29
-113.53
-116.71
-127.83
-141.12
-149.14
-145.54
-127.60
-97.14
-59.58
-21.79
10.33
33.46
47.02
52.34
51.45
46.32
38.77
30.79
24.74
22.99
27.10
37.03
50.87
65.41
77.29
84.22
85.55
82.22
76.19
69.74
64.90
63.20
65.44
71.64
80.79
90.84
98.85
101.48
95.82
80.27
55.33
23.79
-9.66
-39.57
-61.14
-71.70
-71.26
-62.40
-49.17
-35.72
-25.16
-18.96
-17.10
-18.51
-21.72
-25.29
-28.20
-29.89
-30.45
-30.50
-31.08
-33.30
-37.94
-45.16
-54.58
-65.60
-77.66
-90.14
-101.84
-110.48
-112.81
-105.69
-87.75
-60.85
-30.15
-2.56
15.93
22.79
19.86
12.34
6.48
7.07
16.10
32.65
53.83
75.91
95.23
108.87
115.02
113.47
105.66
94.29
82.45
72.45
65.05
59.29
53.24
45.04
33.84
20.11
5.33
-8.72
-20.62
-29.67
-35.80
-39.12
-39.49
-36.26
-28.44
-15.13
3.89
27.67
53.86
78.83
98.35
108.60
107.36
94.98
74.48
50.80
29.33
14.22
7.31
7.95
13.68
21.52
29.12
35.23
39.64
42.61
44.35
44.77
43.44
39.81
33.35
23.75
10.88
-5.23
-24.08
-44.38
-63.87
-79.54
-88.35
-88.27
-78.77
-61.09
-37.83
-11.65
15.61
43.14
70.54
96.72
119.34
135.28
141.41
135.64
118.21
91.89
61.26
31.35
6.21
-11.65
-21.03
-22.49
-18.52
-12.84
-9.53
-11.93
-21.63
-38.21
-59.31
-80.95
-94.65
-92.95
-72.09
-34.43
12.71
60.94
103.68
135.15
155.81
166.90
168.79
161.41
144.70
118.64
85.47
47.14
5.43
-38.08
-82.97
-130.00
-180.08
-233.21
-287.55
-339.12
-383.03
-414.65
-430.52
-429.63
-413.04
-382.91
-341.73
-292.21
-237.57
-182.20
-131.24
-89.39
-59.95
-43.71
-38.69
-40.84
-45.14
-46.80
-42.41
-30.42
-11.23
12.85
38.19
60.77
77.11
84.92
83.80
75.39
63.55
53.79
51.88
61.90
84.06
113.46
140.82
155.29
148.54
118.37
70.04
14.85
-33.53
-63.27
-67.67
-46.57
-5.92
44.24
92.48
128.78
146.93
145.62
128.28
101.53
72.98
49.07
33.70
28.02
30.98
40.32
53.28
67.09
79.39
88.68
94.65
98.32
101.62
106.45
113.93
123.83
134.86
145.51
155.01
163.67
172.32
181.34
189.66
194.76
193.56
183.84
165.17
138.85
107.14
72.31
36.25
0.68
-32.45
-61.06
-83.69
-100.52
-113.83
-127.27
-144.17
-165.60
-189.43
-210.89
-224.57
-226.58
-216.12
-195.40
-168.34
-138.98
-110.28
-84.17
-61.96
-44.87
-33.88
-28.98
-28.65
-30.13
-30.59
-28.73
-25.77
-25.32
-32.01
-49.42
-78.30
-115.81
-156.00
-191.28
-214.48
-220.60
-208.23
-179.94
-141.64
-100.99
-65.41
-40.13
-27.10
-24.99
-30.03
-37.47
-42.90
-43.24
-37.03
-24.32
-6.21
15.47
38.54
60.72
79.94
94.72
104.44
109.48
111.01
110.91
111.39
114.75
122.78
135.97
152.61
168.24
176.38
170.39
146.15
104.34
51.14
-3.21
-47.64
-73.88
-78.96
-65.63
-40.70
-12.20
13.21
31.75
42.74
47.61
48.78
48.50
48.36
49.22
51.44
55.15
60.32
66.60
73.05
77.98
79.09
73.97
60.65
38.10
6.50
-32.55
-75.89
-118.78
-155.36
-179.72
-187.68
-178.66
-156.67
-129.72
-107.43
-97.62
-103.26
-121.32
-143.87
-161.05
-164.62
-150.66
-120.59
-80.34
-38.13
-2.04
22.09
31.74
27.73
13.52
-5.92
-25.12
-39.06
-43.93
-37.70
-20.56
5.01
34.64
63.16
85.88
99.96
105.16
103.69
99.23
95.77
96.45
102.93
115.34
132.30
151.16
168.03
178.25
177.32
162.18
132.49
91.32
44.69
0.16
-35.28
-57.07
-64.08
-58.58
-45.11
-29.05
-15.12
-6.44
-4.15
-7.52
-14.63
-23.00
-30.19
-34.21
-33.69
-28.03
-17.48
-3.29
12.35
26.70
37.02
41.35
38.98
30.52
17.60
2.29
-13.24
-26.74
-35.80
-38.03
-31.69
-16.70
4.51
27.06
44.95
53.05
49.14
34.67
14.22
-6.27
-21.44
-27.99
-25.20
-14.64
0.50
16.13
28.11
33.01
28.98
16.29
-2.49
-23.12
-40.80
-51.52
-53.10
-45.73
-31.71
-14.58
2.04
15.54
25.05
31.32
36.06
40.94
46.68
52.86
58.25
61.75
63.28
64.12
66.43
72.24
82.28
95.37
108.52
117.93
120.27
113.83
99.11
78.64
56.40
36.86
23.89
19.82
24.73
36.36
50.63
62.87
69.16
67.45
57.97
42.90
25.47
9.03
-3.75
-11.25
-13.02
-9.81
-3.38
3.86
9.42
11.34
8.65
1.38
-9.69
-23.43
-38.66
-54.13
-68.33
-79.48
-85.70
-85.50
-78.37
-65.14
-48.00
-30.29
-15.82
-7.98
-8.88
-18.47
-34.32
-52.01
-66.30
-72.67
-68.78
-55.11
-34.68
-12.05
8.22
22.64
29.47
28.72
21.80
11.02
-0.85
-11.09
-17.48
-18.71
-14.63
-6.27
4.56
15.82
25.79
33.54
38.98
42.64
45.31
47.71
50.29
53.30
56.96
61.63
67.70
75.18
83.15
89.39
90.80
84.47
69.17
46.42
20.52
-2.69
-17.77
-21.45
-13.66
2.63
22.57
40.79
52.72
55.39
47.81
30.98
7.45
-19.25
-45.48
-68.34
-86.10
-98.35
-105.73
-109.46
-110.88
-111.09
-110.72
-109.96
-108.63
-106.51
-103.48
-99.64
-94.99
-89.17
-81.34
-70.54
-56.32
-39.55
-22.71
-9.41
-3.11
-5.61
-15.94
-30.46
-43.96
-51.51
-50.11
-39.50
-21.85
-0.70
20.32
38.30
51.26
57.97
57.75
50.46
36.79
18.53
-1.62
-20.48
-35.15
-43.60
-45.08
-39.93
-29.31
-14.77
1.96
19.13
35.06
48.33
58.11
64.52
68.79
72.84
78.64
87.33
98.56
110.26
119.07
121.34
114.37
97.69
73.59
46.75
23.00
7.32
2.15
6.49
16.45
26.91
33.57
34.48
30.23
22.92
14.66
6.50
-1.79
-11.04
-21.74
-33.46
-44.84
-54.27
-60.49
-63.06
-62.24
-58.65
-52.88
-45.39
-36.56
-26.67
-15.87
-4.06
8.98
23.13
37.12
48.16
52.26
45.42
25.40
-6.96
-47.49
-89.50
-125.58
-149.41
-157.24
-148.57
-126.12
-95.12
-62.06
-33.07
-12.54
-2.25
-1.41
-7.45
-17.17
-27.62
-36.56
-42.41
-44.18
-41.51
-34.91
-25.71
-15.72
-6.52
1.17
7.66
14.12
22.07
32.81
47.16
65.22
86.27
108.61
129.41
144.94
151.28
145.34
126.18
95.67
58.45
20.89
-10.59
-31.30
-39.49
-36.48
-25.90
-12.16
0.92
10.96
17.13
19.51
18.53
14.60
8.23
0.17
-8.48
-16.60
-23.49
-29.25
-34.59
-40.16
-45.78
-50.20
-51.55
-48.31
-40.30
-28.80
-16.01
-4.03
5.92
13.54
18.74
20.74
17.73
7.23
-12.64
-41.90
-77.91
-115.52
-148.24
-169.80
-175.92
-165.38
-140.37
-105.77
-67.82
-32.42
-3.85
15.89
26.76
30.12
27.91
22.21
15.10
8.61
4.50
4.01
7.54
14.58
24.07
34.90
46.29
57.83
69.35
80.67
91.66
102.35
113.05
124.14
135.48
145.78
152.50
152.54
143.39
124.31
96.81
64.19
30.51
-0.63
-26.72
-46.47
-59.50
-66.11
-67.18
-64.17
-59.08
-54.07
-51.07
-51.33
-55.20
-62.13
-70.86
-79.60
-86.46
-89.73
-88.53
-82.93
-73.94
-63.01
-51.46
-40.08
-29.11
-18.57
-8.56
0.65
8.77
15.75
21.82
27.19
31.59
33.83
31.90
23.63
7.67
-15.59
-43.48
-71.31
-93.50
-105.10
-103.47
-89.22
-66.09
-39.77
-16.04
0.88
9.20
9.37
3.23
-6.81
-18.31
-28.84
-35.95
-37.36
-31.64
-18.84
-0.84
19.09
37.39
51.43
60.21
64.54
66.45
68.40
72.66
80.80
93.44
109.93
128.00
143.81
152.62
150.05
133.83
105.03
68.22
30.38
-1.26
-21.45
-28.44
-24.01
-12.44
1.24
12.82
19.68
20.84
16.55
7.79
-3.91
-16.59
-28.09
-36.49
-40.75
-41.17
-39.29
-37.23
-36.71
-38.34
-41.54
-45.10
-47.89
-49.35
-49.38
-47.92
-44.50
-38.41
-29.22
-17.66
-6.09
1.69
1.52
-9.63
-32.24
-63.54
-97.86
-128.06
-147.52
-152.08
-141.16
-117.72
-87.09
-55.30
-27.47
-6.83
5.52
10.19
9.01
4.50
-0.47
-3.08
-0.96
7.19
21.23
39.52
59.43
78.15
93.54
104.55
111.42
115.39
118.30
122.12
128.47
138.15
150.54
163.35
172.86
174.88
166.20
145.98
116.38
81.95
48.12
19.35
-2.20
-16.92
-26.81
-34.25
-40.89
-47.25
-53.13
-58.21
-62.43
-65.95
-68.67
-69.98
-68.90
-64.64
-57.26
-47.94
-38.68
-31.43
-27.35
-26.49
-28.11
-31.38
-35.74
-40.94
-46.60
-51.80
-55.07
-54.89
-50.56
-43.00
-34.86
-29.94
-31.87
-42.70
-61.90
-86.11
-109.94
-127.48
-134.11
-127.92
-110.18
-84.86
-57.15
-31.88
-12.28
0.44
6.78
8.25
6.67
3.88
1.75
2.13
6.66
16.31
30.86
48.63
66.92
82.69
93.52
98.26
97.34
92.74
87.49
84.99
88.04
97.84
113.23
130.47
144.01
148.23
139.38
117.08
84.62
47.84
13.16
-14.42
-32.58
-41.64
-43.75
-41.62
-37.59
-33.19
-29.23
-26.10
-23.86
-22.35
-21.06
-19.18
-15.89
-10.73
-3.91
3.48
9.75
13.20
12.76
8.36
0.96
-8.07
-17.40
-26.09
-33.35
-38.26
-39.56
-36.08
-27.64
-15.92
-4.71
1.05
-2.97
-18.68
-44.56
-75.97
-106.55
-130.08
-142.08
-140.74
-127.03
-104.27
-77.22
-51.05
-30.12
-17.00
-12.07
-13.57
-18.48
-23.42
-25.59
-23.28
-15.87
-3.68
12.20
30.02
47.64
62.77
73.48
78.67
78.56
74.83
70.48
69.08
73.68
85.72
104.06
124.93
142.70
151.54
147.23
128.64
98.17
61.19
24.51
-5.54
-24.77
-31.96
-28.77
-18.78
-6.09
5.85
14.93
20.47
22.76
22.60
20.85
18.24
15.23
11.96
8.28
3.77
-1.98
-9.16
-17.46
-26.08
-34.00
-40.45
-45.23
-48.89
-52.36
-56.37
-60.75
-64.29
-65.08
-61.45
-53.08
-41.69
-30.80
-24.68
-26.74
-38.26
-57.78
-81.47
-104.21
-120.93
-127.93
-123.78
-109.60
-88.71
-65.57
-44.43
-28.05
-17.17
-10.75
-6.83
-3.54
0.26
4.95
10.57
17.16
24.91
33.89
43.82
53.99
63.45
71.32
77.00
80.17
80.82
79.21
76.13
72.99
71.60
73.63
79.76
89.08
98.93
105.58
105.39
95.95
76.96
50.32
19.74
-10.17
-34.67
-50.00
-54.04
-46.88
-30.84
-9.88
11.58
29.91
43.14
51.25
55.54
57.75
59.21
60.40
61.07
60.52
57.99
52.83
44.58
32.96
17.96
-0.05
-20.22
-41.33
-61.90
-80.52
-96.01
-107.46
-114.19
-115.72
-111.93
-103.30
-91.26
-78.34
-67.95
-63.66
-68.09
-81.76
-102.45
-125.34
-144.20
-153.14
-148.52
-130.07
-101.04
-66.93
-33.66
-5.68
15.09
29.16
38.57
45.62
52.07
58.78
65.92
73.31
80.66
87.45
92.91
95.96
95.50
90.85
82.23
70.78
58.46
47.39
39.28
35.07
34.72
37.47
42.23
48.03
54.20
60.40
66.24
70.95
73.17
71.00
62.44
45.89
20.66
-12.59
-51.66
-92.69
-130.48
-159.18
-173.51
-170.15
-148.96
-113.32
-69.42
-24.58
14.72
44.37
63.15
72.16
73.81
70.57
64.33
56.22
46.89
36.82
26.60
16.87
8.22
0.94
-5.04
-10.19
-15.11
-20.27
-25.71
-30.95
-35.15
-37.46
-37.37
-35.03
-31.31
-27.50
-25.03
-25.04
-28.18
-34.50
-43.47
-54.05
-64.64
-73.27
-77.76
-76.34
-68.12
-53.73
-35.35
-16.31
0.10
11.66
18.07
20.95
22.96
26.61
33.06
41.59
50.22
56.88
60.63
62.08
62.79
63.82
64.69
63.32
56.97
44.17
25.81
5.12
-13.74
-27.54
-35.20
-37.63
-36.78
-34.65
-32.41
-30.52
-29.16
-28.64
-29.45
-32.20
-37.13
-42.56
-46.35
-46.28
-40.98
-30.31
-15.30
2.17
19.74
35.26
47.36
55.48
60.09
62.19
62.87
62.95
62.97
63.00
63.05
63.13
63.13
62.98
62.72
62.52
62.69
63.54
65.01
66.93
68.93
70.32
70.46
68.94
65.75
61.21
55.67
49.15
41.21
31.20
18.37
2.33
-16.58
-37.30
-58.22
-76.51
-91.45
-102.98
-111.57
-118.00
-123.16
-127.91
-133.14
-139.38
-146.12
-151.44
-151.88
-143.82
-125.51
-98.32
-66.67
-36.57
-13.24
0.71
5.45
3.45
-2.30
-9.58
-17.15
-24.20
-29.89
-33.22
-33.44
-30.66
-26.08
-20.49
-14.80
-9.60
-4.69
0.77
7.84
17.34
29.09
41.89
53.67
62.15
65.96
65.35
62.13
58.75
57.19
58.00
60.29
62.30
62.21
59.02
52.79
44.39
35.02
25.93
18.17
12.48
9.09
7.48
6.63
5.47
3.29
0.12
-3.36
-6.16
-7.42
-6.76
-4.43
-0.97
2.99
6.67
9.04
8.76
4.36
-5.40
-20.96
-41.71
-65.65
-89.73
-110.50
-124.84
-130.59
-126.81
-113.75
-91.65
-62.31
-28.22
7.91
43.45
76.02
103.60
124.76
138.97
146.78
149.50
148.98
146.79
143.57
138.96
132.04
122.18
109.51
94.84
78.79
61.19
40.62
14.79
-18.55
-60.52
-110.36
-165.15
-220.11
-269.39
-307.00
-328.13
-330.36
-314.34
-283.58
-243.21
-198.26
-152.16
-106.40
-61.23
-17.22
23.72
58.41
83.71
98.24
103.40
103.10
102.04
103.63
108.56
114.89
119.42
119.60
114.84
106.45
96.61
87.00
78.02
68.98
58.99
47.64
35.30
22.97
11.79
2.97
-2.14
-2.05
4.40
16.97
33.13
47.65
53.71
45.04
18.44
-24.56
-77.54
-130.85
-174.42
-200.61
-206.14
-192.42
-164.42
-128.48
-90.28
-53.60
-20.28
8.97
33.61
52.88
66.11
73.34
75.81
75.55
74.43
73.24
71.15
66.33
56.90
42.00
22.10
-1.17
-25.37
-47.55
-64.31
-71.99
-67.42
-49.21
-19.03
17.74
52.83
77.51
85.80
77.14
56.97
34.88
20.91
21.66
37.99
65.18
95.13
119.51
132.08
129.81
112.64
82.77
44.13
1.93
-37.93
-69.94
-90.42
-98.67
-97.01
-89.78
-81.73
-76.47
-75.65
-78.79
-83.71
-87.24
-86.09
-77.68
-61.05
-37.07
-8.26
22.23
51.73
78.85
103.38
125.52
144.68
158.78
164.45
158.20
138.19
105.62
65.23
24.32
-9.41
-30.31
-36.73
-31.23
-19.34
-7.28
0.21
0.98
-4.63
-14.79
-27.21
-39.96
-51.56
-61.11
-68.32
-73.66
-78.26
-83.39
-89.55
-95.80
-99.77
-98.58
-90.14
-74.25
-52.95
-29.59
-7.60
10.77
24.91
35.41
43.25
49.03
52.64
53.49
50.72
43.51
31.23
13.61
-8.78
-34.04
-58.56
-77.53
-86.04
-80.78
-61.43
-31.02
4.74
39.05
65.87
81.13
83.28
73.14
53.39
27.99
1.65
-20.82
-35.37
-39.56
-33.24
-18.47
1.16
21.83
40.62
56.09
68.11
77.14
83.44
86.86
87.07
84.27
79.63
75.38
74.07
77.41
85.07
94.10
99.38
95.16
77.30
45.19
2.63
-42.89
-82.36
-107.95
-115.35
