1660756748.00
64.000000
-0.00
-0.00
-0.00
-0.00
-0.00
-0.00
-0.00
-0.00
-0.00
-0.00
0.00
0.01
0.01
-0.00
-0.03
-0.05
-0.05
0.00
0.13
0.36
0.66
1.01
1.37
1.72
2.06
2.40
2.79
3.24
3.80
4.42
5.06
5.66
6.20
6.68
7.15
7.68
8.31
9.14
10.09
11.04
11.88
12.56
13.14
13.76
14.65
15.96
17.91
20.32
22.90
25.38
27.58
29.57
31.68
34.32
37.81
42.54
48.15
54.10
59.83
64.97
69.58
74.14
79.34
85.71
93.76
103.00
112.62
121.73
129.77
136.75
143.30
150.75
157.77
166.64
177.95
191.79
206.97
220.57
228.25
225.36
208.53
176.87
132.76
80.05
23.07
-34.94
-92.44
-149.16
-205.23
-260.37
-313.74
-363.87
-409.83
-450.91
-486.50
-515.74
-537.23
-549.22
-549.96
-538.37
-514.21
-478.67
-433.88
-382.45
-327.02
-269.84
-212.63
-156.66
-102.95
-52.37
-5.90
35.58
71.43
101.35
125.50
144.38
158.69
169.15
176.37
180.75
182.57
182.07
179.51
175.23
169.65
163.18
156.15
148.81
141.30
133.69
126.02
118.33
110.69
103.16
95.80
88.68
81.83
75.25
68.95
62.95
57.25
51.86
46.78
42.03
37.59
33.45
29.61
26.07
22.81
19.83
17.11
14.67
12.48
10.54
8.83
7.35
6.07
4.97
4.05
3.27
2.62
2.09
1.65
1.30
1.01
0.79
0.61
0.48
0.38
0.31
0.26
0.21
0.17
0.13
0.11
0.10
0.10
0.13
0.16
0.19
0.20
0.21
0.21
0.20
0.21
0.24
0.28
0.32
0.35
0.35
0.33
0.29
0.27
0.28
0.34
0.45
0.57
0.65
0.67
0.62
0.53
0.47
0.50
0.65
0.90
1.20
1.43
1.53
1.48
1.34
1.22
1.24
1.48
1.89
2.37
2.75
2.92
2.86
2.68
2.56
2.67
3.05
3.64
4.27
4.76
5.03
5.06
4.81
4.24
3.26
1.91
0.50
-0.48
-0.64
0.05
1.04
1.49
0.60
-1.92
-5.71
-10.02
-14.08
-17.54
-20.43
-22.98
-25.21
-26.90
-27.57
-26.85
-24.76
-21.71
-18.36
-15.38
-13.22
-11.92
-11.22
-10.64
-9.66
-7.89
-5.25
-1.96
1.59
4.99
7.90
10.03
11.09
10.92
9.51
7.21
4.90
3.78
5.03
9.24
16.04
23.99
31.06
35.17
34.81
29.43
19.61
6.84
-6.74
-18.86
-27.65
-31.90
-31.57
-27.70
-22.19
-17.28
-14.75
-15.48
-19.19
-24.57
-29.64
-32.37
-31.10
-24.90
-13.68
1.80
20.10
39.58
57.57
71.97
81.82
87.41
90.15
91.91
94.42
98.79
105.24
113.13
121.42
128.73
133.92
136.66
137.44
137.23
136.68
135.45
132.10
125.09
113.61
98.73
83.42
71.51
65.99
67.83
76.06
88.41
102.53
116.08
126.85
132.49
130.55
119.57
100.39
76.78
54.38
38.21
28.98
23.51
16.54
3.43
-17.76
-45.92
-77.92
-110.36
-140.93
-170.56
-199.80
-227.00
-248.47
-260.81
-263.14
-257.73
-249.30
-243.49
-248.26
-267.77
-299.78
-336.06
-366.14
-381.38
-377.72
-356.64
-324.38
-293.51
-273.97
-268.87
-274.30
-283.79
-292.34
-297.91
-300.71
-275.31
-210.32
-113.82
-8.45
86.24
161.97
218.44
258.03
283.53
297.94
300.56
292.66
278.33
263.73
253.00
246.40
241.48
235.29
226.18
211.22
190.10
164.82
139.70
117.74
99.13
81.96
63.58
41.97
14.46
-15.46
-44.12
-64.18
-68.31
-52.69
-18.57
27.81
76.82
117.19
140.12
140.98
121.97
89.86
52.59
18.12
-7.38
-20.88
-23.18
-17.77
-10.33
-4.93
-4.11
-8.95
-19.32
-34.21
-52.28
-71.91
-86.98
-97.45
-103.87
-107.21
-109.35
-112.52
-118.41
-126.87
-134.95
-137.26
-128.76
-105.99
-70.04
-26.98
14.54
46.77
65.91
72.90
71.94
67.20
61.83
56.94
52.33
47.90
44.30
42.49
42.85
44.55
45.56
44.33
40.30
34.45
28.70
25.09
24.62
26.77
29.61
30.91
29.15
24.20
17.58
11.39
7.57
7.46
11.25
17.70
24.16
26.82
21.94
7.14
-16.98
-45.92
-72.14
-87.57
-87.47
-71.74
-45.98
-17.49
7.53
26.56
40.83
52.92
64.16
73.29
77.45
74.16
63.35
47.36
29.77
13.88
1.36
-7.81
-14.10
-17.75
-19.00
-17.91
-14.91
-10.33
-4.15
3.78
13.33
23.45
32.20
37.35
37.46
32.48
23.81
13.67
3.77
-5.13
-13.52
-22.44
-32.84
-45.08
-59.12
-74.74
-91.55
-108.47
-122.96
-130.95
-127.95
-111.04
-80.73
-41.53
-0.43
35.56
61.61
76.07
79.79
74.69
62.43
44.20
21.29
-3.84
-27.35
-44.81
-52.35
-47.89
-31.71
-6.35
24.85
56.66
84.08
103.67
114.26
116.45
111.60
100.86
84.99
64.89
42.16
19.35
-0.90
-17.36
-31.07
-45.13
-63.23
-87.61
-117.73
-150.23
-179.80
-200.99
-209.80
-204.38
-184.81
-152.36
-109.00
-57.53
-2.37
50.28
93.00
118.96
124.45
110.55
83.32
51.79
24.90
8.56
4.43
10.49
22.71
37.22
51.40
64.07
75.01
84.54
93.31
102.46
113.37
127.04
143.19
159.61
172.64
178.56
175.50
164.40
148.43
130.83
112.50
91.30
63.61
27.63
-14.00
-53.93
-83.05
-95.02
-89.60
-72.91
-54.35
-42.02
-39.24
-44.06
-51.62
-57.48
-60.07
-60.84
-62.59
-67.23
-74.61
-82.66
-88.88
-91.70
-91.21
-88.90
-86.59
-85.32
-84.71
-83.21
-78.90
-70.58
-58.48
-44.29
-30.44
-19.09
-11.28
-6.58
-3.59
-0.67
3.16
7.99
13.12
17.58
20.63
22.00
21.75
20.10
17.34
13.87
10.33
7.54
6.16
6.27
7.16
7.52
6.04
2.05
-4.16
-11.56
-18.86
-25.14
-30.04
-33.57
-35.92
-37.22
-37.66
-37.60
-37.58
-38.00
-38.88
-39.82
-40.33
-40.37
-40.55
-41.92
-45.35
-50.95
-57.98
-65.22
-71.66
-76.90
-81.29
-85.54
-90.59
-97.21
-105.67
-115.06
-122.73
-124.39
-115.25
-92.26
-56.09
-12.03
31.23
64.19
79.76
75.26
52.93
19.09
-17.33
-46.31
-58.49
-47.31
-11.10
45.56
112.49
176.49
225.39
251.56
253.33
234.23
200.38
157.70
110.30
60.09
7.39
-48.27
-107.07
-167.70
-226.39
-276.27
-308.28
-313.60
-286.83
-228.56
-145.61
-49.13
48.86
138.84
215.27
276.31
322.29
354.44
374.34
384.21
387.18
386.90
386.56
387.79
390.27
392.10
390.87
384.94
374.11
359.65
343.65
328.13
314.28
302.15
290.88
279.29
266.50
252.40
237.63
223.29
210.44
199.71
191.05
183.90
177.40
170.75
163.51
155.61
147.27
138.81
130.43
122.15
113.77
104.99
95.54
85.26
74.18
62.47
50.37
38.16
26.15
14.51
3.40
-7.08
-16.91
-26.05
-34.42
-41.92
-48.41
-53.75
-57.90
-61.01
-63.36
-65.41
-67.59
-70.23
-73.39
-77.00
-80.83
-84.78
-88.97
-93.79
-99.80
-107.47
-116.95
-127.88
-139.49
-150.87
-161.34
-170.76
-179.63
-188.89
-199.52
-212.02
-226.27
-241.53
-256.82
-271.39
-285.05
-298.26
-311.94
-327.30
-345.57
-367.71
-393.82
-422.63
-451.05
-474.49
-488.04
-488.14
-474.12
-448.64
-416.74
-383.91
-353.99
-328.04
-304.52
-280.64
-254.06
-223.93
-191.20
-157.89
-126.32
-98.57
-76.13
-59.99
-50.66
-48.28
-52.46
-62.02
-75.05
-89.18
-102.29
-112.83
-120.17
-124.44
-126.18
-125.92
-123.79
-119.52
-112.59
-102.89
-90.46
-75.43
-57.92
-38.24
-17.28
3.43
21.91
36.39
45.23
48.54
48.33
47.64
49.08
53.61
60.10
66.01
68.19
61.60
41.95
6.94
-42.53
-101.79
-162.59
-214.79
-248.81
-258.81
-247.66
-222.89
-193.41
-165.73
-142.60
-123.48
-106.72
-91.00
-76.21
-67.15
-67.54
-77.88
-95.13
-114.82
-133.68
-151.47
-170.22
-168.16
-134.46
-70.83
8.29
85.13
148.12
194.23
225.23
244.56
255.55
257.08
248.87
232.72
212.70
191.75
174.23
161.84
154.18
149.81
144.10
133.96
118.73
100.28
81.66
65.70
53.67
45.91
42.57
40.13
36.41
30.74
24.03
17.82
13.59
11.73
12.02
13.92
15.94
17.16
17.33
16.88
16.55
17.05
18.56
20.89
23.77
26.49
28.70
30.24
31.27
32.03
32.85
33.81
34.95
36.21
37.52
38.95
40.52
42.22
44.00
45.81
47.52
48.96
49.94
50.27
49.82
48.47
46.13
42.71
38.21
32.63
26.02
18.52
10.31
1.62
-7.31
-16.27
-25.11
-33.74
-42.08
-50.05
-57.55
-64.39
-70.42
-75.48
-79.50
-82.49
-84.56
-85.85
-86.44
-86.38
-85.55
-83.83
-81.08
-77.33
-72.72
-67.63
-62.42
-57.39
-52.58
-47.76
-42.54
-36.59
-29.83
-22.58
-15.49
-9.27
-4.33
-0.50
3.00
7.33
13.47
21.83
31.91
42.49
52.16
59.97
65.95
71.23
77.56
86.48
98.59
113.17
128.53
142.80
154.79
164.64
173.71
184.17
198.37
218.48
246.02
281.10
321.40
361.38
392.87
407.18
398.25
365.41
314.10
253.99
195.30
145.19
106.01
75.95
51.47
29.81
10.15
-6.71
-19.56
-27.81
-31.73
-31.96
-28.96
-22.77
-13.18
-0.30
14.89
30.47
43.90
52.92
56.50
55.50
52.48
50.79
53.09
60.06
69.87
78.78
82.69
78.81
66.93
49.53
30.87
15.32
5.79
2.77
4.38
7.30
8.14
4.65
-3.71
-15.93
-30.25
-44.89
-58.55
-70.32
-79.42
-84.90
-85.81
-81.54
-72.30
-59.36
-44.76
-30.81
-19.43
-11.68
-7.70
-6.74
-7.57
-8.78
-9.09
-7.59
-3.81
2.20
9.88
18.13
25.47
30.17
30.79
26.65
18.20
7.07
-4.42
-13.94
-19.95
-22.07
-20.98
-17.93
-14.24
-10.84
-8.28
-6.90
-6.97
-8.79
-12.49
-17.82
-23.95
-29.51
-32.84
-32.52
-27.82
-18.94
-6.97
6.55
20.07
32.41
42.81
50.97
56.97
61.30
64.95
69.12
74.83
82.35
90.80
98.36
102.87
102.85
98.08
89.74
79.87
70.44
62.62
56.54
51.51
46.48
40.58
33.37
24.81
15.12
4.63
-6.26
-17.04
-27.01
-35.44
-41.70
-45.65
-47.73
-48.84
-50.00
-51.90
-54.60
-57.55
-59.95
-60.97
-60.00
-56.55
-50.24
-40.87
-28.71
-14.73
-0.60
11.70
20.49
24.93
25.19
22.28
17.54
12.26
7.43
3.77
1.73
1.47
2.73
4.84
6.88
7.96
7.57
5.76
3.07
0.26
-2.01
-3.48
-4.26
-4.67
-4.99
-5.24
-5.23
-4.79
-4.05
-3.56
-4.17
-6.71
-11.51
-18.14
-25.29
-30.94
-32.92
-29.49
-20.06
-5.46
12.10
29.62
44.16
53.74
57.87
57.59
54.99
52.37
51.48
52.95
56.22
59.94
62.63
63.27
61.63
58.16
53.52
48.20
42.23
35.37
27.49
18.87
10.21
2.28
-4.44
-9.96
-14.67
-19.10
-23.61
-28.42
-33.69
-39.76
-47.00
-55.36
-64.05
-71.38
-75.35
-74.43
-68.40
-58.57
-47.27
-37.02
-29.59
-25.60
-24.58
-25.45
-26.95
-27.99
-27.82
-26.11
-22.99
-19.02
-15.11
-12.08
-10.32
-9.65
-9.41
-8.80
-7.41
-5.36
-3.29
-1.97
-1.86
-2.85
-4.24
-5.09
-4.60
-2.43
1.17
5.41
9.03
10.49
8.33
1.70
-8.96
-21.58
-32.78
-38.89
-37.26
-27.32
-10.85
8.76
27.62
42.50
51.35
53.37
48.86
39.04
25.97
12.27
0.59
-7.19
-10.53
-10.48
-9.24
-9.52
-13.76
-23.49
-38.82
-58.12
-77.93
-93.74
-101.42
-99.12
-88.48
-74.58
-64.06
-62.35
-71.12
-87.51
-105.38
-118.18
-121.87
-116.54
-105.61
-93.38
-82.24
-71.50
-58.08
-39.01
-13.51
16.33
46.66
73.82
95.65
111.72
122.75
130.18
136.23
143.97
156.65
176.07
200.82
225.55
242.32
243.77
226.58
193.14
150.58
107.74
71.52
44.25
23.21
2.14
-25.70
-64.30
-112.74
-165.00
-212.04
-245.73
-262.23
-263.27
-254.80
-243.73
-234.76
-228.68
-223.12
-214.46
-200.29
-180.62
-157.52
-133.47
-109.83
-86.06
-60.19
-30.34
4.08
40.95
75.88
103.84
121.33
128.07
127.27
124.40
125.15
135.07
157.49
193.13
239.67
291.57
340.62
377.67
395.29
390.57
368.93
340.66
317.14
306.44
310.59
325.97
346.23
365.65
380.92
395.03
411.59
432.48
456.51
479.95
498.84
511.16
517.73
521.38
530.71
553.36
593.88
652.24
723.46
799.41
871.58
933.55
949.67
895.82
761.28
554.65
302.46
38.43
-208.70
-421.47
-593.20
-724.34
-814.20
-864.51
-880.03
-868.19
-838.78
-801.46
-763.49
-728.96
-699.49
-671.88
-643.27
-612.74
-581.09
-551.12
-525.92
-507.62
-496.79
-493.05
-493.41
-493.21
-490.44
-484.75
-478.20
-473.38
-471.24
-469.50
-462.70
-443.12
-405.15
-351.22
-285.19
-215.24
-150.54
-97.63
-58.42
-30.66
-10.16
6.43
20.20
31.31
39.20
43.97
46.74
49.21
52.61
57.07
62.21
67.42
73.23
80.58
90.76
104.87
121.22
137.86
152.29
162.16
166.04
164.57
159.73
154.20
150.05
148.50
149.40
151.61
154.18
156.94
160.82
166.94
176.41
185.68
192.91
197.91
201.04
201.10
193.70
173.30
136.46
85.15
27.45
-25.06
-62.80
-82.20
-86.34
-82.79
-78.81
-78.26
-80.91
-84.23
-84.71
-80.52
-72.35
-63.01
-56.78
-56.98
-65.01
-80.49
-101.85
-127.53
-155.80
-183.81
-202.40
-204.21
-186.04
-152.29
-114.82
-88.03
-82.54
-99.28
-128.53
-154.88
-165.66
-156.26
-131.10
-102.41
-77.14
-57.62
-42.00
-26.68
-9.36
9.01
25.64
37.75
44.53
48.05
51.29
56.94
66.10
77.92
89.61
98.07
101.14
98.09
90.42
80.38
70.57
63.15
59.15
58.01
57.77
55.73
49.10
35.74
13.75
-18.33
-61.07
-113.32
-171.29
-228.29
-275.86
-306.33
-315.48
-304.33
-278.52
-245.66
-212.20
-181.48
-153.43
-125.95
-96.65
-64.20
-29.01
6.89
40.33
67.76
86.34
94.92
94.66
88.69
80.85
74.32
70.77
70.36
72.61
77.19
84.06
93.01
103.08
112.37
118.71
120.60
118.02
112.49
106.26
101.29
98.41
97.02
95.68
92.86
87.72
80.40
71.84
63.22
55.45
48.83
43.17
38.00
32.91
27.75
22.60
17.62
12.94
8.53
4.33
0.28
-3.59
-7.19
-10.36
-13.02
-15.13
-16.75
-18.01
-19.02
-19.91
-20.67
-21.23
-21.49
-21.36
-20.90
-20.34
-20.01
-20.21
-21.11
-22.64
-24.47
-26.10
-26.90
-26.21
-23.41
-18.14
-10.44
-0.89
9.46
19.45
28.15
35.22
40.93
45.91
50.83
56.02
61.45
66.81
71.73
75.91
79.21
81.55
82.95
83.59
83.70
83.52
83.15
82.50
81.39
79.68
77.38
74.49
70.90
66.05
58.95
48.28
32.68
11.01
-17.57
-53.46
-96.53
-145.87
-199.59
-254.82
-307.92
-354.98
-392.29
-416.79
-426.52
-420.99
-401.43
-370.65
-332.46
-290.80
-248.83
-208.36
-169.99
-133.64
-99.18
-66.71
-36.46
-8.37
18.31
44.90
73.11
104.40
139.49
177.82
217.34
254.75
286.21
308.44
319.80
320.89
314.25
303.25
290.79
278.30
265.74
252.40
237.98
223.34
210.33
200.95
196.23
195.63
197.18
198.47
197.67
194.33
189.33
184.25
180.37
178.13
176.99
175.73
172.89
167.04
156.89
141.46
120.49
94.82
66.53
38.35
12.45
-10.76
-33.01
-57.38
-86.40
-120.18
-155.65
-187.42
-209.97
-219.78
-216.54
-202.72
-182.33
-159.56
-138.18
-121.40
-111.91
-111.47
-120.24
-136.04
-154.52
-170.12
-177.54
-173.23
-156.25
-128.22
-92.84
-54.91
-19.31
10.11
31.41
45.02
53.33
59.61
66.65
75.71
86.19
96.11
102.92
104.52
100.01
89.93
76.02
60.59
45.68
32.52
21.43
12.21
4.66
-1.03
-4.41
-5.25
-4.15
-2.76
-3.42
-8.28
-18.38
-32.96
-49.61
-65.00
-76.09
-81.13
-80.16
-74.77
-67.46
-60.79
-56.72
-56.19
-58.93
-63.60
-68.18
-70.80
-70.57
-68.08
-65.07
-63.49
-64.33
-67.01
-69.54
-69.46
-64.81
-54.81
-39.81
-20.78
1.07
24.62
48.79
72.42
94.12
112.22
124.83
130.31
127.92
118.40
104.13
88.40
74.20
63.12
55.00
48.42
41.79
34.28
25.93
17.29
8.63
-0.43
-10.85
-23.60
-39.17
-57.29
-77.01
-97.11
-116.50
-134.46
-150.62
-164.67
-175.91
-183.13
-184.86
-179.89
-167.98
-150.16
-128.55
-105.90
-84.75
-66.86
-52.86
-42.33
-34.15
-26.98
-19.72
-11.74
-2.90
6.53
16.07
25.12
32.94
38.78
42.05
42.58
40.84
37.89
35.05
33.30
32.94
33.57
34.47
35.12
35.43
35.64
35.79
35.14
32.06
24.61
11.62
-6.07
-25.00
-39.62
-44.00
-34.12
-9.71
25.30
63.97
98.65
123.32
134.82
132.80
118.74
94.90
63.96
29.12
-5.58
-35.53
-56.51
-66.01
-64.21
-54.04
-40.14
-27.35
-19.05
-16.43
-18.45
-22.71
-26.43
-27.46
-24.80
-18.81
-10.94
-3.44
1.15
0.52
-6.63
-19.87
-36.79
-53.32
-64.99
-68.53
-63.07
-50.51
-34.63
-19.63
-8.65
-2.98
-2.22
-5.00
-9.74
-15.07
-19.82
-22.74
-22.48
-17.84
-8.32
5.38
21.20
36.17
47.27
52.61
52.23
48.17
43.72
41.98
44.61
51.12
59.27
66.22
69.91
69.84
67.00
63.05
59.39
56.56
54.19
51.37
47.02
40.11
29.98
16.79
2.04
-11.19
-18.76
-17.03
-4.69
15.96
39.18
57.66
65.18
58.96
40.59
15.06
-11.31
-33.13
-47.39
-53.74
-53.70
-49.59
-43.60
-37.35
-32.02
-28.50
-27.48
-29.31
-33.64
-39.21
-44.11
-46.32
-44.43
-38.25
-28.78
-17.83
-7.43
0.84
6.11
8.21
7.45
4.36
-0.56
-6.86
-14.08
-21.75
