1660933265.00
64.000000
-0.00
-0.00
-0.00
-0.00
-0.00
-0.00
-0.00
-0.00
-0.00
-0.00
0.00
0.01
0.01
-0.00
-0.03
-0.05
-0.05
0.00
0.13
0.36
0.66
1.01
1.37
1.72
2.06
2.40
2.79
3.25
3.81
4.44
5.09
5.73
6.32
6.90
7.52
8.26
9.15
10.27
11.50
12.73
13.84
14.79
15.68
16.70
18.05
19.88
22.39
25.33
28.44
31.42
34.14
36.74
39.58
43.09
47.57
53.33
59.95
66.89
73.60
79.83
85.78
92.05
99.38
108.19
118.85
130.69
142.80
154.37
165.05
175.20
185.70
197.93
210.43
225.09
242.11
261.37
281.75
300.73
314.52
318.94
310.75
288.77
254.78
211.96
164.24
114.93
66.07
18.64
-26.91
-70.14
-110.61
-147.87
-182.58
-216.03
-249.92
-285.40
-322.24
-358.23
-389.44
-411.42
-420.59
-415.84
-398.98
-374.02
-345.61
-317.35
-290.92
-266.31
-242.78
-219.81
-197.73
-177.34
-159.30
-143.57
-129.43
-115.87
-102.15
-88.16
-74.36
-61.57
-50.49
-41.36
-33.89
-27.41
-21.23
-14.91
-8.43
-2.16
3.42
7.93
11.34
13.92
16.08
18.18
20.35
22.46
24.27
25.60
26.38
26.71
26.74
26.60
26.36
26.05
25.69
25.32
24.99
24.68
24.30
23.77
23.03
22.14
21.24
20.46
19.84
19.33
18.77
18.05
17.15
16.19
15.34
14.75
14.44
14.30
14.13
13.80
13.29
12.71
12.23
11.94
11.84
11.83
11.79
11.62
11.32
10.93
10.55
10.21
9.91
9.64
9.38
9.15
8.99
8.90
8.86
8.80
8.66
8.39
8.03
7.61
7.22
6.94
6.78
6.70
6.63
6.48
6.22
5.82
5.35
4.83
4.34
3.89
3.49
3.12
2.72
2.25
1.65
0.92
0.12
-0.64
-1.29
-1.78
-2.15
-2.49
-2.91
-3.48
-4.22
-5.09
-6.01
-6.91
-7.71
-8.33
-8.68
-8.71
-8.42
-7.91
-7.30
-6.70
-6.21
-5.85
-5.60
-5.44
-5.36
-5.38
-5.49
-5.66
-5.80
-5.77
-5.45
-4.81
-3.93
-2.98
-2.15
-1.53
-1.14
-0.90
-0.69
-0.44
-0.17
0.11
0.34
0.52
0.65
0.76
0.84
0.87
0.84
0.77
0.72
0.72
0.79
0.90
1.02
1.16
1.38
1.75
2.30
2.99
3.68
4.25
4.62
4.79
4.83
4.81
4.77
4.68
4.51
4.26
3.99
3.78
3.66
3.65
3.71
3.81
3.92
4.02
4.09
4.13
4.11
4.03
3.91
3.76
3.60
3.46
3.35
3.27
3.26
3.29
3.34
3.33
3.19
2.89
2.46
2.00
1.65
1.46
1.46
1.58
1.70
1.77
1.79
1.81
1.88
2.02
2.18
2.31
2.39
2.42
2.46
2.52
2.52
2.39
2.09
1.68
1.32
1.17
1.29
1.60
1.90
2.02
1.92
1.65
1.37
1.19
1.15
1.21
1.34
1.51
1.75
2.07
2.42
2.70
2.80
2.65
2.25
1.72
1.23
0.94
0.95
1.23
1.66
2.03
2.18
2.05
1.70
1.32
1.07
1.02
1.13
1.29
1.35
1.26
1.05
0.84
0.72
0.73
0.80
0.82
0.69
0.42
0.09
-0.15
-0.18
0.01
0.34
0.68
0.93
1.07
1.15
1.19
1.17
1.03
0.73
0.31
-0.08
-0.30
-0.26
0.02
0.42
0.78
1.02
1.14
1.20
1.27
1.36
1.43
1.40
1.23
0.95
0.67
0.49
0.49
0.62
0.78
0.84
0.78
0.67
0.61
0.68
0.82
0.91
0.85
0.63
0.34
0.14
0.10
0.23
0.43
0.60
0.71
0.78
0.84
0.89
0.89
0.81
0.69
0.60
0.61
0.73
0.88
0.95
0.88
0.68
0.49
0.42
0.52
0.74
0.96
1.03
0.90
0.62
0.34
0.20
0.27
0.50
0.75
0.86
0.73
0.40
0.03
-0.23
-0.29
-0.18
-0.04
0.01
-0.07
-0.23
-0.37
-0.40
-0.30
-0.10
0.10
0.24
0.28
0.24
0.16
0.09
0.07
0.12
0.26
0.47
0.69
0.86
0.88
0.75
0.50
0.25
0.09
0.08
0.18
0.30
0.31
0.18
-0.04
-0.23
-0.29
-0.20
-0.01
0.18
0.31
0.40
0.49
0.60
0.70
0.72
0.62
0.44
0.28
0.20
0.22
0.25
0.18
-0.04
-0.34
-0.57
-0.63
-0.51
-0.35
-0.30
-0.44
-0.73
-0.99
-1.09
-0.94
-0.63
-0.30
-0.06
0.06
0.13
0.29
0.59
0.99
1.37
1.57
1.52
1.26
0.92
0.69
0.65
0.79
0.97
1.06
0.98
0.75
0.47
0.24
0.12
0.08
0.07
0.05
0.02
-0.01
0.01
0.09
0.21
0.32
0.38
0.36
0.23
0.04
-0.19
-0.40
-0.58
-0.75
-0.93
-1.12
-1.27
-1.26
-1.03
-0.58
-0.07
0.33
0.46
0.28
-0.10
-0.49
-0.70
-0.64
-0.34
0.11
0.58
0.95
1.15
1.18
1.05
0.87
0.70
0.64
0.70
0.88
1.11
1.31
1.42
1.40
1.30
1.18
1.14
1.26
1.56
1.98
2.39
2.67
2.75
2.62
2.35
2.00
1.63
1.23
0.84
0.48
0.23
0.16
0.28
0.56
0.90
1.18
1.28
1.14
0.79
0.31
-0.20
-0.62
-0.88
-0.97
-0.95
-0.90
-0.92
-1.09
-1.43
-1.94
-2.55
-3.14
-3.58
-3.75
-3.55
-3.01
-2.24
-1.42
-0.73
-0.29
-0.09
-0.05
-0.01
0.12
0.36
0.63
0.81
0.84
0.70
0.50
0.33
0.28
0.33
0.41
0.41
0.28
0.07
-0.17
-0.35
-0.45
-0.52
-0.58
-0.67
-0.74
-0.72
-0.52
-0.12
0.44
1.06
1.64
2.08
2.34
2.41
2.36
2.22
2.08
1.97
1.94
2.02
2.20
2.47
2.80
3.11
3.36
3.49
3.52
3.49
3.43
3.37
3.28
3.07
2.68
2.02
1.13
0.10
-0.92
-1.77
-2.40
-2.85
-3.26
-3.76
-4.43
-5.25
-6.08
-6.79
-7.27
-7.48
-7.46
-7.33
-7.20
-7.20
-7.43
-7.92
-8.61
-9.40
-10.21
-11.00
-11.84
-12.84
-14.08
-15.62
-17.42
-19.41
-21.49
-23.57
-25.58
-27.51
-29.40
-31.43
-33.89
-37.10
-41.30
-46.51
-52.47
-58.78
-65.00
-70.92
-76.65
-82.48
-88.78
-95.77
-103.37
-111.38
-119.52
-127.67
-135.84
-144.07
-152.35
-160.59
-168.79
-177.09
-185.46
-193.31
-199.05
-200.10
-193.56
-177.30
-150.72
-115.02
-72.59
-26.08
22.20
70.34
116.33
157.73
191.78
216.19
230.02
234.21
231.28
224.38
216.31
208.89
202.92
198.45
195.26
193.02
191.33
189.79
188.03
185.86
183.46
181.25
179.76
179.31
179.80
180.79
181.71
182.22
182.49
183.23
185.44
190.16
198.04
209.11
222.51
236.38
247.96
254.07
251.84
239.57
217.20
186.32
149.42
108.89
66.10
21.21
-26.17
-75.79
-125.68
-172.04
-210.18
-236.17
-248.45
-248.33
-239.38
-225.88
-211.28
-197.31
-184.16
-171.37
-158.71
-146.58
-135.76
-126.78
-119.51
-113.15
-106.66
-99.31
-90.97
-82.19
-73.87
-66.86
-61.54
-57.71
-54.66
-51.50
-47.53
-42.60
-37.08
-31.68
-27.11
-23.75
-21.52
-19.94
-18.47
-16.70
-14.59
-12.37
-10.45
-9.13
-8.51
-8.46
-8.65
-8.76
-8.54
-7.92
-6.99
-5.95
-4.96
-4.11
-3.40
-2.77
-2.14
-1.47
-0.72
0.13
1.06
2.02
2.92
3.65
4.12
4.31
4.34
4.43
4.90
6.09
8.26
11.40
15.09
18.53
20.71
20.78
18.41
14.03
8.66
3.53
-0.41
-2.81
-3.88
-4.13
-4.00
-3.68
-3.13
-2.29
-1.27
-0.33
0.19
0.09
-0.59
-1.63
-2.69
-3.55
-4.11
-4.44
-4.68
-4.93
-5.20
-5.41
-5.43
-5.20
-4.74
-4.16
-3.59
-3.14
-2.85
-2.72
-2.73
-2.85
-3.06
-3.30
-3.53
-3.68
-3.72
-3.70
-3.65
-3.62
-3.59
-3.50
-3.30
-2.98
-2.56
-2.09
-1.59
-1.03
-0.36
0.44
1.31
2.15
2.85
3.30
3.49
3.48
3.36
3.22
3.11
3.02
2.89
2.63
2.21
1.66
1.03
0.42
-0.13
-0.66
-1.19
-1.70
-2.12
-2.29
-2.10
-1.55
-0.79
-0.04
0.49
0.69
0.60
0.35
0.09
-0.08
-0.17
-0.23
-0.34
-0.59
-0.96
-1.41
-1.82
-2.10
-2.14
-1.90
-1.43
-0.82
-0.23
0.21
0.40
0.35
0.14
-0.04
0.04
0.55
1.53
2.81
4.09
5.02
5.39
5.21
4.73
4.26
4.06
4.15
4.32
4.28
3.76
2.70
1.22
-0.46
-2.10
-3.61
-5.00
-6.34
-7.65
-8.89
-9.92
-10.59
-10.80
-10.54
-9.91
-9.09
-8.22
-7.40
-6.59
-5.64
-4.31
-2.40
0.24
3.54
7.28
10.99
14.15
16.23
16.89
16.05
13.96
11.03
7.81
4.78
2.30
0.57
-0.38
-0.63
-0.31
0.37
1.21
2.01
2.59
2.81
2.61
2.01
1.12
0.06
-1.02
-2.02
-2.89
-3.62
-4.18
-4.57
-4.75
-4.73
-4.55
-4.30
-4.05
-3.85
-3.71
-3.61
-3.52
-3.41
-3.26
-3.03
-2.77
-2.52
-2.42
-2.57
-3.02
-3.69
-4.39
-4.82
-4.75
-4.05
-2.74
-0.95
1.11
3.19
5.06
6.49
7.30
7.42
6.92
6.01
5.02
4.21
3.72
3.52
3.45
3.34
3.13
2.86
2.67
2.69
2.92
3.26
3.59
3.81
3.87
3.83
3.76
3.73
3.80
4.00
4.31
4.73
5.15
5.41
5.31
4.65
3.40
1.66
-0.27
-2.07
-3.49
-4.47
-5.16
-5.78
-6.50
-7.34
-8.15
-8.70
-8.84
-8.55
-7.94
-7.21
-6.53
-5.97
-5.49
-5.03
-4.53
-3.99
-3.47
-3.08
-2.84
-2.72
-2.63
-2.42
-2.03
-1.47
-0.84
-0.26
0.23
0.66
1.07
1.51
1.91
2.17
2.15
1.78
1.08
0.15
-0.82
-1.63
-2.08
-2.07
-1.55
-0.62
0.53
1.68
2.61
3.19
3.40
3.29
2.94
2.49
2.06
1.75
1.63
1.69
1.85
1.99
2.03
1.91
1.66
1.30
0.91
0.52
0.18
-0.05
-0.14
-0.10
0.04
0.24
0.45
0.68
0.96
1.31
1.69
2.00
2.08
1.83
1.23
0.36
-0.60
-1.45
-2.06
-2.37
-2.40
-2.25
-2.01
-1.72
-1.39
-0.96
-0.42
0.20
0.83
1.35
1.66
1.71
1.51
1.13
0.67
0.25
-0.08
-0.28
-0.41
-0.52
-0.68
-0.89
-1.13
-1.35
-1.52
-1.66
-1.82
-2.05
-2.27
-2.38
-2.26
-1.90
-1.43
-1.05
-0.94
-1.15
-1.56
-1.95
-2.15
-2.12
-1.93
-1.65
-1.32
-0.87
-0.26
0.50
1.16
1.45
1.08
0.01
-1.59
-3.41
-5.16
-6.69
-8.05
-9.35
-10.65
-11.89
-12.93
-13.68
-14.06
-14.09
-13.75
-12.86
-11.19
-8.50
-4.75
-0.13
4.93
9.92
14.41
18.05
20.61
21.99
22.19
21.39
19.95
18.34
16.98
16.03
15.37
14.64
13.50
11.80
9.70
7.57
5.77
4.53
3.82
3.49
3.32
3.18
3.04
2.95
2.90
2.81
2.53
1.92
0.94
-0.31
-1.62
-2.73
-3.46
-3.74
-3.65
-3.33
-2.93
-2.57
-2.25
-1.93
-1.51
-0.90
-0.11
0.73
1.43
1.69
1.31
0.20
-1.47
-3.37
-5.10
-6.31
-6.86
-6.79
-6.34
-5.75
-5.24
-4.89
-4.70
-4.58
-4.46
-4.32
-4.21
-4.24
-4.54
-5.12
-5.89
-6.59
-6.99
-6.97
-6.65
-6.31
-6.26
-6.69
-7.56
-8.66
-9.69
-10.43
-10.69
-10.26
-8.88
-6.34
-2.65
1.82
6.32
9.96
12.04
12.35
11.27
9.46
7.61
6.12
5.04
4.22
3.54
3.06
2.95
3.38
4.28
5.32
6.06
6.12
5.40
4.08
2.53
1.11
0.05
-0.65
-1.09
-1.41
-1.68
-1.81
-1.73
-1.39
-0.85
-0.31
0.03
-0.01
-0.38
-0.89
-1.21
-1.00
-0.09
1.46
3.41
5.31
6.72
7.29
6.88
5.59
3.77
1.85
0.26
-0.78
-1.30
-1.52
-1.75
-2.21
-2.95
-3.86
-4.74
-5.44
-5.95
-6.36
-6.76
-7.18
-7.55
-7.67
-7.39
-6.63
-5.50
-4.23
-3.11
-2.36
-2.11
-2.29
-2.73
-3.13
-3.15
-2.40
-0.58
2.40
6.30
10.47
14.04
16.13
16.19
14.26
10.90
7.05
3.61
1.18
-0.08
-0.41
-0.16
0.28
0.68
0.89
0.83
0.45
-0.29
-1.34
-2.54
-3.70
-4.56
-4.97
-4.86
-4.28
-3.39
-2.39
-1.48
-0.82
-0.50
-0.48
-0.62
-0.76
-0.74
-0.52
-0.14
0.28
0.59
0.74
0.69
0.47
0.11
-0.32
-0.74
-1.02
-1.09
-0.92
-0.58
-0.26
-0.10
-0.19
-0.47
-0.79
-1.00
-1.02
-0.87
-0.61
-0.32
-0.05
0.14
0.20
0.08
-0.18
-0.50
-0.69
-0.60
-0.17
0.52
1.30
1.92
2.21
2.08
1.61
1.02
0.61
0.68
1.39
2.68
4.22
5.56
6.27
6.14
5.25
3.89
2.41
1.06
-0.06
-0.99
-1.80
-2.46
-2.86
-2.87
-2.44
-1.68
-0.86
-0.26
-0.11
-0.42
-1.05
-1.74
-2.33
-2.75
-3.10
-3.51
-4.01
-4.52
-4.86
-4.86
-4.46
-3.77
-2.98
-2.28
-1.75
-1.35
-1.02
-0.74
-0.52
-0.39
-0.38
-0.47
-0.63
-0.85
-1.17
-1.58
-2.04
-2.41
-2.51
-2.19
-1.44
-0.41
0.64
1.45
1.87
1.89
1.59
1.11
0.61
0.24
0.17
0.58
1.54
2.95
4.54
5.86
6.54
6.37
5.45
4.12
2.83
1.88
1.41
1.31
1.39
1.47
1.48
1.43
1.42
1.51
1.71
1.99
2.22
2.30
2.13
1.68
1.01
0.22
-0.56
-1.24
-1.76
-2.11
-2.26
-2.23
-2.04
-1.74
-1.45
-1.24
-1.18
-1.24
-1.37
-1.48
-1.55
-1.58
-1.66
-1.80
-2.00
-2.18
-2.23
-2.12
-1.89
-1.62
-1.40
-1.29
-1.26
-1.24
-1.16
-0.99
-0.79
-0.63
-0.60
-0.76
-1.11
-1.59
-2.12
-2.60
-2.95
-3.08
-2.97
-2.66
-2.24
-1.87
-1.71
-1.83
-2.14
-2.42
-2.37
-1.70
-0.27
1.86
4.44
7.11
9.49
11.23
12.11
12.06
11.16
9.62
7.75
5.83
4.10
2.70
1.65
0.87
0.22
-0.43
-1.18
-2.04
-2.94
-3.68
-4.05
-3.89
-3.18
-2.08
-0.87
0.15
0.81
1.13
1.28
1.48
1.88
2.46
3.08
3.58
3.91
4.15
4.46
4.99
5.70
6.39
6.79
6.64
5.88
4.61
3.06
1.44
-0.10
-1.51
-2.78
-3.91
-4.81
-5.40
-5.62
-5.50
-5.14
-4.72
-4.36
-4.09
-3.85
-3.56
-3.16
-2.68
-2.20
-1.82
-1.61
-1.60
-1.76
-2.08
-2.51
-2.97
-3.42
-3.80
-4.06
-4.20
-4.22
-4.15
-4.01
-3.82
-3.59
-3.39
-3.28
-3.31
-3.54
-3.97
-4.58
-5.30
-6.00
-6.54
-6.79
-6.70
-6.35
-5.94
-5.70
-5.77
-6.19
-6.79
-7.36
-7.55
-7.06
-5.60
-3.01
0.62
4.91
9.20
12.77
15.04
15.78
15.14
13.54
11.47
9.31
7.31
5.61
4.34
3.62
3.53
4.00
4.81
5.67
6.30
6.57
6.46
6.07
5.50
4.82
4.03
3.16
2.24
1.35
0.56
-0.03
-0.40
-0.54
-0.52
-0.43
-0.43
-0.68
-1.23
-2.04
-2.86
-3.37
-3.31
-2.57
-1.32
0.11
1.35
2.11
2.28
1.94
1.29
0.56
-0.07
-0.49
-0.70
-0.74
-0.71
-0.68
-0.73
-0.91
-1.25
-1.77
-2.50
-3.39
-4.39
-5.40
-6.30
-7.04
-7.67
-8.25
-8.87
-9.54
-10.15
-10.56
-10.64
-10.30
-9.58
-8.60
-7.53
-6.52
-5.61
-4.69
-3.47
-1.59
1.23
4.98
9.33
13.61
17.01
18.88
18.93
17.32
14.53
11.17
7.77
4.71
2.22
0.42
-0.57
-0.71
-0.08
1.09
2.40
3.41
3.75
3.24
1.96
0.22
-1.56
-3.02
-3.97
-4.41
-4.47
-4.31
-4.03
-3.68
-3.27
-2.84
-2.45
-2.17
-1.96
-1.68
-1.10
-0.08
1.38
3.04
4.51
5.42
5.55
4.88
3.58
1.96
0.31
-1.10
-2.12
-2.68
-2.80
-2.57
-2.15
-1.75
-1.54
-1.65
-2.12
-2.84
-3.61
-4.23
-4.54
-4.47
-4.06
-3.38
-2.50
-1.49
-0.37
0.84
2.07
3.20
4.07
4.58
4.67
4.44
4.05
3.74
3.65
3.80
4.03
4.10
3.76
2.91
1.61
0.11
-1.26
-2.21
-2.60
-2.46
-1.95
-1.29
-0.65
-0.15
0.22
0.46
0.58
0.57
0.40
0.07
-0.35
-0.77
-1.08
-1.25
-1.32
-1.38
-1.55
-1.89
-2.38
-2.93
-3.37
-3.58
-3.46
-3.06
-2.50
-1.90
-1.40
-1.04
-0.81
-0.72
-0.82
-1.16
-1.79
-2.63
-3.47
-4.05
-4.10
-3.51
-2.31
-0.66
1.17
2.96
4.45
5.44
5.78
5.43
4.48
3.16
1.79
0.64
-0.09
-0.38
-0.30
0.03
0.49
1.05
1.69
2.37
3.06
3.68
4.14
4.36
4.29
3.95
3.35
2.57
1.69
0.83
0.17
-0.06
0.30
1.26
2.55
3.69
4.14
3.54
1.89
-0.38
-2.65
-4.36
-5.28
-5.55
-5.48
-5.36
-5.29
-5.18
-4.90
-4.43
-3.86
-3.36
-3.03
-2.86
-2.72
-2.45
-1.99
-1.40
-0.76
-0.18
0.31
0.72
1.04
1.26
1.33
1.23
0.97
0.65
0.39
0.26
0.28
0.37
0.42
0.34
0.11
-0.24
-0.64
-1.02
-1.31
-1.44
-1.35
-0.98
-0.35
0.47
1.33
2.07
2.56
2.76
2.75
2.66
2.64
2.72
2.90
3.07
3.16
3.16
3.12
3.10
3.10
3.08
2.90
2.49
1.81
0.98
0.13
-0.58
-1.05
-1.29
-1.35
-1.30
-1.17
-0.93
-0.54
0.03
0.73
1.39
1.80
1.75
1.15
0.13
-1.03
-2.00
-2.54
-2.61
-2.32
-1.89
-1.52
-1.28
-1.11
-0.93
-0.69
-0.35
0.01
0.33
0.56
0.65
0.60
0.42
0.13
-0.24
-0.60
-0.88
-1.04
-1.05
-0.94
-0.78
-0.64
-0.57
-0.58
-0.64
-0.68
-0.64
-0.46
-0.15
0.22
0.59
0.91
1.20
1.54
2.02
2.67
3.41
4.07
4.45
4.43
4.05
3.46
2.88
2.48
2.29
2.23
2.12
1.81
1.23
0.38
-0.62
-1.63
-2.52
-3.22
-3.77
-4.26
-4.77
-5.31
-5.80
-6.14
-6.24
-6.15
-6.02
-6.01
-6.19
-6.46
-6.57
-6.30
-5.54
-4.40
-3.05
-1.69
-0.40
0.85
2.08
3.25
4.16
4.57
4.32
3.42
2.11
0.75
-0.25
-0.61
-0.22
0.84
2.32
3.92
5.34
6.32
6.74
6.57
5.88
4.80
3.51
2.23
1.14
0.36
-0.09
-0.27
-0.30
-0.31
-0.32
-0.31
-0.20
0.10
0.63
1.32
2.05
2.62
2.83
2.58
1.86
0.84
-0.24
-1.11
-1.63
-1.79
-1.71
-1.60
-1.63
-1.86
-2.28
-2.81
-3.37
-3.90
-4.36
-4.71
-4.91
-4.97
-4.94
-4.92
-5.00
-5.20
-5.48
-5.75
-5.95
-6.08
-6.23
-6.50
-6.91
-7.39
-7.71
-7.57
-6.59
-4.52
-1.30
2.82
7.25
11.20
13.92
14.98
14.44
12.80
10.78
9.02
7.80
7.02
6.37
5.53
4.41
3.14
1.96
1.10
0.62
0.38
0.18
-0.18
-0.70
-1.29
-1.74
-1.96
-1.98
-1.96
-2.06
-2.36
-2.77
-3.08
-3.10
-2.77
-2.15
-1.43
-0.85
-0.55
-0.54
-0.70
-0.74
-0.41
0.43
1.72
3.16
4.33
4.86
4.60
3.67
2.36
1.07
0.06
-0.51
-0.70
-0.60
-0.37
-0.19
-0.20
-0.47
-1.04
-1.86
-2.81
-3.79
-4.70
-5.47
-6.06
-6.41
-6.51
-6.32
-5.90
-5.32
-4.68
-4.00
-3.27
-2.39
-1.28
0.02
1.43
2.80
4.02
5.08
6.07
7.04
7.92
8.52
8.55
7.83
6.42
4.60
2.77
1.26
0.25
-0.33
-0.60
-0.67
-0.61
-0.41
-0.09
0.26
0.53
0.62
0.52
0.28
0.00
-0.26
-0.49
-0.73
-1.00
-1.31
-1.62
-1.87
-2.05
-2.15
-2.22
-2.25
-2.22
-2.07
-1.78
-1.32
-0.76
-0.22
0.18
0.33
0.19
-0.22
-0.83
-1.54
-2.23
-2.80
-3.15
-3.23
-2.96
-2.35
-1.40
-0.21
1.09
2.34
3.37
4.05
4.37
4.42
4.37
4.41
4.57
4.78
4.81
4.49
3.76
2.74
1.71
0.93
0.61
0.71
1.06
1.43
1.63
1.58
1.32
0.96
0.57
0.23
-0.04
-0.17
-0.07
0.31
0.90
1.51
1.83
1.60
0.75
-0.55
-1.95
-3.08
-3.76
-4.03
-4.09
-4.14
-4.30
-4.52
-4.71
-4.79
-4.76
-4.71
-4.69
-4.71
-4.69
-4.54
-4.18
-3.64
-3.03
-2.50
-2.19
-2.14
-2.27
-2.40
-2.38
-2.08
-1.53
-0.85
-0.17
0.41
0.82
1.07
1.19
1.21
1.17
1.08
0.91
0.60
0.06
-0.79
-1.93
-3.20
-4.36
-5.11
-5.25
-4.73
-3.72
-2.49
-1.37
-0.54
-0.09
0.10
0.26
0.69
1.61
3.14
5.17
7.39
9.40
10.77
11.24
10.74
9.41
7.54
5.46
3.48
1.84
0.70
0.12
0.07
0.43
1.03
1.66
2.13
2.33
2.20
1.78
1.16
0.49
-0.09
-0.50
-0.73
-0.84
-0.96
-1.14
-1.38
-1.61
-1.69
-1.55
-1.18
-0.65
-0.08
0.43
0.84
1.12
1.26
1.24
1.09
0.81
0.47
0.10
-0.28
-0.68
-1.13
-1.63
-2.13
-2.55
-2.84
-2.99
-3.08
-3.18
-3.35
-3.58
-3.79
-3.92
-3.90
-3.70
-3.37
-2.94
-2.47
-1.99
-1.53
-1.08
-0.66
-0.26
0.13
0.58
1.26
2.34
3.91
5.90
7.99
9.69
10.52
10.18
8.70
6.39
3.74
1.21
-0.90
-2.47
-3.56
-4.28
-4.75
-5.06
-5.22
-5.27
-5.23
-5.17
-5.11
-5.01
-4.70
-3.93
-2.48
-0.35
2.19
4.64
6.50
7.49
7.69
7.45
7.12
6.90
6.67
6.20
5.29
4.02
2.68
1.60
1.02
0.92
1.13
1.40
1.59
1.66
1.65
1.62
1.57
1.46
1.23
0.84
0.33
-0.20
-0.63
-0.85
-0.84
-0.69
-0.58
-0.68
-1.04
-1.57
-2.08
-2.40
-2.49
-2.49
-2.62
-3.06
-3.81
-4.72
-5.58
-6.22
-6.62
-6.79
-6.74
-6.38
-5.59
-4.32
-2.72
-1.10
0.13
0.71
0.59
-0.08
-0.98
-1.85
-2.58
-3.14
-3.60
-3.98
-4.25
-4.33
-4.16
-3.76
-3.25
-2.82
-2.67
-2.86
-3.33
-3.83
-4.08
-3.86
-3.06
-1.74
-0.02
2.02
4.33
6.83
9.28
11.28
12.33
12.10
10.62
8.35
5.99
4.14
3.08
2.67
2.55
2.40
2.09
1.74
1.53
1.52
1.61
1.55
1.19
0.49
-0.39
-1.23
-1.86
-2.22
-2.39
-2.51
-2.71
-3.01
-3.33
-3.54
-3.52
-3.21
-2.68
-2.05
-1.51
-1.19
-1.14
-1.24
-1.32
-1.16
-0.62
0.30
1.42
2.49
3.29
3.75
3.93
3.99
4.07
4.22
4.35
4.30
3.95
3.28
2.36
1.33
0.35
-0.49
-1.14
-1.67
-2.14
-2.63
-3.13
-3.57
-3.84
-3.87
-3.68
-3.41
-3.18
-3.05
-2.93
-2.65
-2.03
-1.01
0.31
1.73
3.04
4.11
4.93
5.51
5.82
5.75
5.18
4.04
2.40
0.52
-1.26
-2.63
-3.41
-3.60
-3.35
-2.87
-2.35
-1.89
-1.56
-1.40
-1.45
-1.74
-2.26
-2.90
-3.50
-3.83
-3.77
-3.36
-2.78
-2.27
-2.02
-2.01
-2.10
-2.07
-1.81
-1.35
-0.83
-0.39
-0.05
0.25
0.60
1.01
1.39
1.62
1.64
1.56
1.60
1.90
2.46
3.11
3.57
3.61
3.20
2.45
1.60
0.87
0.36
0.05
-0.15
-0.39
-0.76
-1.30
-1.98
-2.72
-3.43
-4.02
-4.39
-4.49
-4.31
-3.89
-3.36
-2.84
-2.44
-2.17
-1.95
-1.57
-0.82
0.48
2.38
4.75
7.21
9.27
10.41
10.35
9.10
7.01
4.62
2.45
0.82
-0.22
-0.81
-1.11
-1.20
-1.07
-0.67
-0.04
0.68
1.25
1.49
1.32
0.82
0.17
-0.44
-0.90
-1.18
-1.35
-1.51
-1.70
-1.93
-2.11
-2.12
-1.87
-1.36
-0.68
-0.01
0.42
0.41
-0.11
-1.08
-2.24
-3.25
-3.77
-3.71
-3.23
-2.78
-2.88
-3.87
-5.72
-7.92
-9.75
-10.51
-9.95
-8.38
-6.66
-5.79
-6.45
-8.66
-11.69
-14.28
-15.23
-13.98
-10.90
-7.23
-4.51
-3.82
-5.17
-7.50
-9.20
-9.04
-6.82
-3.58
-0.93
-0.27
-2.13
-6.10
-11.28
-16.69
-21.12
-22.54
-18.13
-5.36
16.13
43.25
69.72
88.50
95.07
89.65
77.00
63.93
55.84
54.40
57.21
59.71
57.74
49.52
36.10
20.49
6.08
-4.83
-11.73
-15.81
-19.16
-23.56
-29.32
-35.32
-39.79
-41.61
-41.09
-39.91
-39.92
-41.71
-43.73
-42.85
-36.16
-22.77
-4.98
12.35
23.77
25.81
18.51
5.31
-8.78
-19.56
-25.29
-26.77
-26.07
-24.87
-23.55
-21.28
-17.05
-10.56
-2.59
5.48
12.23
16.73
18.74
18.56
16.79
14.10
11.10
8.23
5.68
3.40
1.24
-0.84
-2.71
-4.04
-4.61
-4.44
-3.85
-3.32
-3.29
-3.85
-4.82
-5.82
-6.53
-6.81
-6.77
-6.62
-6.58
-6.78
-7.26
-7.99
-8.89
-9.89
-10.92
-11.93
-12.84
-13.61
-14.19
-14.57
-14.81
-14.98
-15.19
-15.51
-15.94
-16.44
-16.94
-17.43
-17.98
-18.71
-19.78
-21.23
-22.94
-24.67
-26.12
-27.17
-27.97
-28.94
-30.66
-33.46
-37.31
-41.71
-45.97
-49.46
-51.88
-53.31
-54.08
-54.66
-55.52
-57.06
-59.62
-63.35
-68.21
-73.92
-80.07
-86.32
-92.56
-98.95
-105.84
-113.45
-121.47
-128.78
-133.25
-132.18
-123.00
-104.05
-75.31
-38.34
4.57
51.55
101.90
155.85
213.42
273.03
331.03
382.34
422.02
446.90
456.29
451.47
434.66
407.97
373.00
331.12
283.77
232.52
178.71
123.18
66.57
10.13
-43.67
-91.09
-128.22
-152.48
-163.73
-164.32
-158.09
-148.85
-139.18
-130.13
-121.78
-114.02
-107.04
-101.28
-96.96
-93.70
-90.56
-86.51
-80.99
-74.15
-66.80
-60.02
-54.59
-50.73
-48.02
-45.73
-43.14
-39.86
-35.96
-31.85
-28.13
-25.25
-23.43
-22.53
-22.16
-21.77
-20.87
-19.21
-16.87
-14.16
-11.51
-9.26
-7.48
-6.04
-4.70
-3.29
-1.81
-0.46
0.52
0.98
0.88
0.34
-0.52
-1.55
-2.68
-3.84
-4.91
-5.78
-6.34
-6.54
-6.43
-6.14
-5.85
-5.64
-5.54
-5.46
-5.29
-4.96
-4.46
-3.84
-3.19
-2.60
-2.11
-1.75
-1.55
-1.55
-1.73
-2.06
-2.44
-2.78
-3.00
-3.14
-3.25
-3.40
-3.63
-3.92
-4.25
-4.68
-5.29
-6.15
-7.26
-8.48
-9.65
-10.69
-11.68
-12.81
-14.22
-15.84
-17.34
-18.32
-18.52
-17.98
-17.01
-15.97
-15.08
-14.35
-13.70
-13.13
-12.73
-12.67
-12.95
-13.40
-13.64
-13.30
-12.17
-10.29
-7.91
-5.38
-2.95
-0.75
1.33
3.48
5.87
8.46
10.98
13.03
14.33
14.95
15.29
15.86
16.89
17.93
17.83
15.10
8.49
-2.48
-17.21
-34.24
-51.70
-67.86
-81.53
-92.35
-100.59
-106.76
-111.16
-113.75
-114.39
-113.38
-111.70
-110.67
-110.95
-111.67
-110.41
-104.16
-91.17
-72.32
-51.40
-33.84
-24.61
-26.28
-38.26
-57.12
-77.77
-94.76
-103.23
-99.52
-81.52
-49.12
-4.44
48.24
103.03
153.61
194.51
222.36
236.43
238.59
232.40
221.88
210.38
199.97
191.45
184.81
179.83
176.24
173.59
171.13
167.94
163.34
157.38
151.18
146.63
145.81
149.96
158.50
168.73
176.19
175.87
163.61
137.23
97.15
46.18
-10.89
-68.24
-119.95
-160.97
-188.04
-200.26
-199.29
-188.64
-172.25
-152.79
-130.68
-104.36
-71.82
-32.40
12.19
58.09
100.60
135.36
158.91
168.53
162.03
138.32
98.61
47.69
-6.12
-52.81
-83.91
-95.42
-89.51
-73.60
-57.60
-50.42
-57.06
-77.38
-106.82
-138.50
-165.76
-184.17
-192.31
-191.34
-184.06
-173.76
-163.53
-156.00
-153.26
-156.43
-165.21
-177.67
-190.84
-201.61
-207.72
-208.03
-202.07
-189.52
-169.79
-142.16
-106.21
-62.35
-12.10
41.81
95.67
145.25
186.50
216.44
233.88
239.86
237.25
229.99
221.86
215.59
212.41
212.23
214.17
217.04
219.80
221.81
222.86
223.15
223.23
223.94
226.29
231.31
239.48
250.13
260.94
268.16
267.58
255.97
232.36
198.28
156.89
111.37
63.66
14.37
-36.23
-86.70
-133.71
-172.68
-199.59
-212.79
-213.81
-206.67
-196.04
