1660325432.00
64.000000
-0.00
-0.00
-0.00
-0.00
-0.00
-0.00
-0.00
-0.00
-0.00
-0.00
0.00
0.01
0.01
-0.00
-0.03
-0.05
-0.05
0.00
0.13
0.36
0.66
1.01
1.37
1.72
2.06
2.40
2.79
3.24
3.80
4.42
5.06
5.66
6.20
6.68
7.15
7.68
8.31
9.14
10.09
11.04
11.88
12.56
13.14
13.76
14.65
15.96
17.91
20.32
22.90
25.38
27.58
29.57
31.68
34.32
37.81
42.54
48.15
54.10
59.83
64.97
69.58
74.14
79.34
85.71
93.76
103.00
112.62
121.73
129.77
136.75
143.30
150.75
157.77
166.64
177.95
191.79
206.97
220.57
228.25
225.36
208.53
176.87
132.76
80.05
23.07
-34.94
-92.44
-149.16
-205.23
-260.37
-313.74
-363.87
-409.83
-450.91
-486.50
-515.74
-537.23
-549.22
-549.96
-538.37
-514.21
-478.67
-433.88
-382.45
-327.02
-269.84
-212.63
-156.66
-102.95
-52.37
-5.90
35.58
71.43
101.35
125.50
144.38
158.69
169.15
176.37
180.75
182.57
182.07
179.51
175.23
169.65
163.18
156.15
148.81
141.30
133.69
126.02
118.33
110.69
103.16
95.80
88.68
81.83
75.25
68.95
62.95
57.25
51.86
46.78
42.03
37.59
33.45
29.61
26.07
22.81
19.83
17.11
14.67
12.48
10.54
8.83
7.35
6.07
4.97
4.05
3.27
2.62
2.09
1.65
1.30
1.02
0.79
0.61
0.47
0.36
0.29
0.24
0.22
0.21
0.19
0.15
0.08
0.00
-0.07
-0.11
-0.11
-0.07
-0.01
0.04
0.04
0.01
-0.06
-0.12
-0.15
-0.11
-0.02
0.08
0.15
0.13
0.01
-0.16
-0.31
-0.36
-0.25
-0.02
0.24
0.39
0.31
-0.02
-0.51
-0.97
-1.17
-0.99
-0.49
0.12
0.53
0.47
-0.12
-1.04
-1.91
-2.33
-2.05
-1.16
-0.05
0.73
0.74
-0.13
-1.59
-3.00
-3.75
-3.50
-2.31
-0.67
0.79
1.48
0.97
-0.99
-4.41
-8.85
-13.18
-15.65
-14.54
-8.96
0.38
11.17
20.40
25.60
25.93
22.39
17.05
11.95
8.13
5.49
3.31
0.99
-1.49
-3.67
-4.99
-5.27
-4.81
-4.18
-4.02
-4.69
-6.17
-8.10
-9.91
-10.95
-10.73
-8.95
-5.64
-1.13
4.05
9.16
13.49
16.36
17.34
16.32
13.50
9.39
4.63
-0.14
-4.33
-7.49
-9.28
-9.56
-8.52
-6.62
-4.59
-3.15
-2.83
-3.70
-5.48
-7.48
-9.02
-9.61
-9.23
-8.22
-7.27
-7.09
-8.10
-10.27
-12.86
-14.67
-14.45
-11.28
-4.98
3.91
14.35
25.00
34.37
41.30
45.19
45.96
43.91
39.51
33.36
26.20
18.81
12.03
6.59
2.86
0.79
-0.11
-0.50
-1.02
-2.06
-3.70
-5.82
-8.20
-10.63
-13.03
-15.40
-17.85
-20.58
-23.81
-27.71
-32.22
-36.82
-40.53
-42.03
-40.15
-34.27
-24.66
-12.46
0.63
12.84
22.74
29.48
32.76
32.80
30.15
25.61
20.12
14.64
10.06
6.97
5.57
5.59
6.42
7.26
7.44
6.61
4.86
2.54
0.11
-2.20
-4.49
-7.12
-10.59
-15.23
-21.11
-27.87
-34.76
-40.64
-44.15
-44.10
-39.77
-31.28
-19.71
-6.81
5.46
15.45
22.13
25.24
25.10
22.40
18.06
13.22
9.18
7.13
7.95
11.81
18.05
25.35
32.20
37.29
39.96
40.22
38.52
35.41
31.21
25.98
19.60
12.02
3.33
-6.22
-16.21
-26.04
-34.91
-41.71
-45.31
-44.78
-39.85
-31.08
-19.78
-7.63
3.77
13.21
19.92
23.49
23.72
20.66
14.74
6.77
-2.13
-10.88
-18.73
-25.44
-31.11
-36.04
-40.35
-43.93
-46.43
-47.46
-46.75
-44.22
-40.12
-35.00
-29.59
-24.77
-21.35
-19.87
-20.36
-22.30
-24.58
-25.84
-24.86
-20.96
-14.22
-5.43
4.21
13.50
21.57
27.95
32.54
35.37
36.60
36.45
35.36
33.91
32.76
32.37
32.83
33.82
34.70
34.87
33.95
31.88
28.92
25.43
21.74
17.99
14.16
10.10
5.66
0.69
-4.84
-10.79
-16.75
-21.98
-25.48
-26.25
-23.69
-17.95
-9.99
-1.38
6.23
11.62
14.25
14.26
12.18
8.63
4.24
-0.43
-4.83
-8.47
-11.03
-12.51
-13.20
-13.49
-13.73
-14.10
-14.60
-15.11
-15.59
-16.08
-16.76
-17.88
-19.69
-22.33
-25.59
-28.83
-30.94
-30.58
-26.59
-18.49
-6.75
7.25
21.52
34.06
43.32
48.54
49.79
47.76
43.49
38.12
32.58
27.53
23.21
19.58
16.35
13.21
9.99
6.69
3.49
0.64
-1.72
-3.64
-5.33
-7.17
-9.63
-13.09
-17.74
-23.39
-29.27
-34.03
-36.04
-33.86
-26.81
-15.37
-1.14
13.65
26.75
36.53
42.24
43.90
42.07
37.52
31.11
23.72
16.30
9.71
4.51
0.86
-1.58
-3.35
-4.99
-6.75
-8.62
-10.51
-12.44
-14.72
-17.89
-22.48
-28.78
-36.63
-45.34
-53.74
-60.43
-63.97
-63.24
-57.71
-47.70
-34.36
-19.37
-4.53
8.70
19.42
27.21
32.03
34.01
33.49
31.06
27.59
24.14
21.67
20.67
21.07
22.32
23.68
24.58
24.75
24.21
23.01
21.11
18.40
14.77
10.30
5.32
0.34
-3.96
-6.79
-7.23
-4.36
2.56
13.73
28.56
45.58
62.84
78.39
90.82
99.51
104.58
106.49
105.79
102.92
98.17
91.85
84.28
75.82
66.74
57.28
47.54
37.67
27.87
18.44
9.71
1.93
-4.76
-10.52
-15.79
-21.27
-27.75
-35.90
-45.95
-57.43
-69.04
-78.83
-84.62
-84.62
-78.13
-65.81
-49.62
-32.14
-15.82
-2.28
7.79
14.49
18.23
19.39
18.22
15.03
10.29
4.67
-1.05
-6.28
-10.65
-14.11
-16.84
-19.16
-21.46
-24.12
-27.44
-31.47
-36.02
-40.68
-45.05
-48.95
-52.40
-55.51
-58.17
-59.80
-59.40
-55.99
-49.06
-39.14
-27.74
-16.97
-8.78
-4.32
-3.53
-5.37
-8.34
-11.08
-12.77
-13.15
-12.39
-10.79
-8.69
-6.49
-4.75
-4.10
-5.16
-8.25
-13.15
-19.03
-24.66
-28.83
-30.83
-30.77
-29.58
-28.46
-28.34
-29.26
-30.36
-30.25
-27.72
-22.45
-15.36
-8.36
-3.68
-3.07
-6.98
-14.23
-22.15
-27.32
-26.64
-18.56
-3.88
14.42
32.05
44.97
50.79
49.43
42.75
33.51
24.32
16.90
12.04
9.88
10.24
12.64
16.10
19.19
20.26
18.18
12.88
5.74
-0.82
-4.28
-2.96
3.21
12.68
22.95
31.53
36.75
38.10
36.07
31.73
26.26
20.77
16.31
13.79
13.82
16.42
20.70
25.05
27.50
26.45
21.42
13.27
3.96
-4.12
-9.08
-10.23
-8.37
-5.46
-3.98
-5.90
-11.93
-21.14
-31.27
-39.47
-43.35
-41.67
-34.66
-23.71
-10.71
2.49
14.50
24.42
31.62
35.60
35.94
32.57
25.93
17.18
7.96
-0.04
-5.63
-8.58
-9.67
-10.29
-11.83
-15.05
-19.86
-25.57
-31.38
-36.93
-42.44
-48.41
-55.02
-61.66
-66.85
-68.74
-65.81
-57.63
-45.08
-30.09
-14.93
-1.43
9.50
17.83
23.98
28.30
30.74
30.84
28.06
22.13
13.31
2.48
-8.95
-19.22
-26.60
-29.70
-27.89
-21.57
-12.14
-1.76
7.19
12.65
13.36
9.05
0.50
-10.57
-21.79
-30.53
-34.45
-32.11
-23.42
-9.70
6.67
22.94
36.80
46.89
52.92
55.43
55.28
53.22
49.76
45.13
39.53
33.24
26.58
19.86
13.28
6.94
0.91
-4.58
-9.25
-12.80
-15.13
-16.51
-17.47
-18.83
-21.38
-25.71
-31.96
-39.60
-47.33
-53.31
-55.53
-52.56
-44.05
-30.97
-15.29
0.69
15.05
26.74
35.49
41.56
45.24
46.73
46.12
43.68
39.97
35.80
31.96
28.90
26.65
24.76
22.70
20.08
16.85
13.24
9.54
5.86
2.08
-2.20
-7.44
-14.01
-21.93
-30.73
-39.31
-46.11
-49.41
-47.88
-41.08
-29.72
-15.46
-0.37
13.69
25.55
34.72
41.18
45.01
46.29
45.16
42.02
37.60
32.72
28.06
23.83
19.80
15.56
10.83
5.72
0.77
-3.34
-6.13
-7.54
-7.99
-8.30
-9.42
-12.11
-16.75
-23.12
-30.31
-36.81
-40.82
-40.70
-35.54
-25.48
-11.75
3.67
18.65
31.54
41.47
48.28
52.26
53.73
52.89
49.88
45.02
38.92
32.41
26.30
21.04
16.60
12.57
8.39
3.73
-1.39
-6.63
-11.52
-15.68
-18.92
-21.34
-23.27
-25.16
-27.54
-30.83
-35.24
-40.55
-46.02
-50.47
-52.41
-50.61
-44.45
-34.24
-21.15
-6.88
6.90
18.97
28.70
35.91
40.60
42.72
42.25
39.38
34.72
29.24
23.99
19.75
16.77
14.81
13.32
11.79
9.94
7.67
5.06
2.14
-1.11
-4.73
-8.74
-12.99
-17.14
-20.83
-23.66
-25.58
-26.88
-28.23
-30.45
-34.11
-39.04
-44.23
-48.04
-48.77
-45.32
-37.63
-26.61
-13.67
-0.19
12.87
24.98
35.84
45.05
52.05
56.22
57.17
55.01
50.32
44.03
37.08
30.20
23.80
17.94
12.63
7.86
3.75
0.58
-1.33
-1.75
-0.68
1.57
4.39
6.96
8.36
7.80
4.74
-1.01
-9.29
-19.46
-30.50
-40.95
-49.09
-53.31
-52.59
-46.87
-37.14
-25.14
-12.72
-1.29
8.55
16.78
23.64
29.19
33.21
35.25
35.04
32.64
28.54
23.46
18.17
13.30
9.20
5.94
3.43
1.45
-0.11
-1.22
-1.72
-1.45
-0.40
1.11
2.49
3.00
1.95
-1.24
-6.79
-14.59
-24.05
-34.04
-43.01
-49.23
-51.30
-48.60
-41.48
-31.17
-19.28
-7.33
3.60
12.93
20.34
25.61
28.47
28.77
26.67
22.75
17.97
13.43
10.02
8.21
7.97
8.82
10.06
11.00
11.07
9.99
7.65
4.08
-0.63
-6.45
-13.38
-21.40
-30.36
-39.91
-49.48
-58.27
-65.37
-69.74
-70.34
-66.35
-57.37
-43.77
-26.74
-8.22
9.63
24.82
36.05
42.77
45.02
43.23
38.03
30.26
21.11
12.07
4.74
0.40
-0.41
1.99
6.47
11.54
15.85
18.50
19.23
18.23
15.92
12.68
8.71
4.08
-1.18
-6.94
-13.01
-19.14
-25.11
-30.61
-35.14
-37.96
-38.25
-35.38
-29.28
-20.51
-10.21
0.35
10.09
18.33
24.69
28.96
30.86
30.22
27.09
22.00
15.92
10.01
5.27
2.17
0.57
-0.11
-0.60
-1.45
-2.86
-4.70
-6.77
-8.96
-11.34
-14.12
-17.43
-21.22
-25.29
-29.28
-32.77
-35.32
-36.38
-35.33
-31.69
-25.29
-16.49
-6.21
4.38
14.15
22.29
28.38
32.24
33.83
33.17
30.45
26.13
20.92
15.62
10.94
7.29
4.72
3.02
1.87
0.95
0.00
-1.10
-2.43
-3.95
-5.57
-7.27
-9.09
-11.26
-14.11
-17.96
-22.90
-28.58
-34.03
-37.91
-38.75
-35.55
-28.16
-17.42
-4.89
7.65
18.71
27.41
33.42
36.79
37.69
36.31
32.97
28.20
22.80
17.64
13.44
10.51
8.68
7.43
6.11
4.18
1.47
-1.85
-5.37
-8.67
-11.56
-14.16
-16.80
-19.85
-23.52
-27.77
-32.28
-36.48
-39.68
-41.04
-39.73
-35.19
-27.31
-16.67
-4.42
7.94
19.01
27.76
33.68
36.73
37.17
35.43
32.07
27.79
23.31
19.24
15.97
13.50
11.54
9.69
7.62
5.19
2.53
-0.14
-2.67
-5.04
-7.43
-10.16
-13.53
-17.74
-22.76
-28.21
-33.34
-37.06
-38.16
-35.67
-29.24
-19.35
-7.29
5.24
16.56
25.45
31.36
34.29
34.59
32.79
29.47
25.30
21.00
17.24
14.50
12.87
12.07
11.57
10.83
9.49
7.53
5.15
2.65
0.18
-2.33
-5.25
-9.04
-14.01
-20.08
-26.60
-32.37
-35.96
-36.12
-32.18
-24.30
-13.46
-1.16
11.00
21.59
29.71
34.97
37.42
37.46
35.60
32.45
28.57
24.50
20.62
17.20
14.32
11.93
9.82
7.72
5.32
2.45
-0.89
-4.50
-8.06
-11.33
-14.30
-17.34
-20.84
-24.96
-29.19
-32.30
-32.71
-29.12
-21.14
-9.64
3.60
16.39
26.96
34.39
38.68
40.44
40.54
39.67
38.33
36.77
35.12
33.43
31.63
29.59
27.05
23.78
19.60
14.48
8.51
1.88
-5.20
-12.53
-19.96
-27.33
-34.38
-40.67
-45.44
-47.76
-46.62
-41.34
-31.94
-19.30
-5.05
8.81
20.50
28.91
33.63
34.96
33.53
30.16
25.78
21.37
17.96
16.42
17.21
20.10
24.24
28.31
31.01
31.42
29.21
24.64
18.39
11.30
4.19
-2.35
-7.98
-12.69
-16.79
-20.68
-24.75
-28.98
-32.83
-35.32
-35.34
-32.10
-25.54
-16.36
-5.80
4.72
13.98
21.18
25.87
27.90
27.37
24.60
20.22
15.12
10.32
6.67
4.66
4.24
4.90
5.89
6.45
6.07
4.57
2.14
-0.81
-3.82
-6.56
-8.96
-11.16
-13.51
-16.33
-19.68
-23.25
-26.28
-27.73
-26.66
-22.55
-15.57
-6.54
3.25
12.51
20.25
25.96
29.49
30.93
30.44
28.23
24.64
20.22
15.73
11.92
9.30
7.96
7.56
7.47
7.05
5.89
3.87
1.22
-1.66
-4.41
-6.82
-8.98
-11.16
-13.73
-16.96
-20.90
-25.15
-28.94
-31.26
-31.11
-27.95
-21.85
-13.55
-4.22
4.91
12.86
19.03
23.14
25.12
25.02
22.98
19.39
14.82
10.05
5.76
2.41
0.10
-1.33
-2.20
-2.88
-3.59
-4.50
-5.65
-7.06
-8.73
-10.69
-12.98
-15.70
-18.90
-22.60
-26.63
-30.53
-33.58
-34.83
-33.46
-29.04
-21.79
-12.61
-2.79
6.32
13.64
18.64
21.21
21.56
20.16
17.54
14.31
11.04
8.20
6.03
4.49
3.34
2.22
0.80
-1.10
-3.51
-6.28
-9.17
-11.92
-14.35
-16.48
-18.54
-20.93
-23.99
-27.85
-32.16
-36.11
-38.50
-38.19
-34.46
-27.37
-17.79
-7.20
2.78
10.84
16.27
18.95
19.19
17.48
14.33
10.26
5.86
1.71
-1.67
-3.99
-5.28
-5.85
-6.12
-6.49
-7.17
-8.12
-9.21
-10.24
-11.12
-11.92
-12.88
-14.34
-16.54
-19.47
-22.69
-25.37
-26.48
-25.14
-20.92
-14.08
-5.43
3.85
12.55
19.63
24.39
26.51
26.09
23.58
19.74
15.47
11.56
8.58
6.76
5.96
5.78
5.62
4.97
3.52
1.24
-1.56
-4.46
-7.19
-9.75
-12.50
-15.87
-20.08
-24.89
-29.56
-33.08
-34.50
-33.22
-29.20
-22.85
-14.96
-6.41
1.88
9.13
14.76
18.40
19.91
19.32
16.75
12.31
6.10
-1.79
-11.08
-21.27
-31.69
-41.68
-50.81
-59.00
-66.41
-73.13
-78.93
-83.19
-85.09
-84.00
-79.74
-72.56
-62.94
-51.27
-37.68
-22.32
-5.58
11.68
28.18
42.71
54.39
63.02
68.86
72.39
74.00
73.93
72.33
69.44
65.64
61.32
56.79
52.17
47.45
42.58
37.63
32.78
28.20
23.97
19.95
15.88
11.44
6.46
1.11
-4.01
-7.92
-9.48
-7.80
-2.49
6.06
16.76
28.13
38.60
46.94
52.42
54.82
54.37
51.51
46.82
40.93
34.38
27.58
20.79
14.13
7.68
1.59
-3.76
-7.87
-10.27
-10.81
-9.84
-8.26
-7.31
-8.14
-11.44
-17.12
-24.35
-31.70
-37.59
-40.59
-39.78
-34.90
-26.38
-15.25
-2.93
9.05
19.26
26.58
30.40
30.71
28.14
23.94
19.64
16.68
15.86
17.13
19.60
22.06
23.47
23.49
22.48
21.24
20.40
19.96
19.24
17.27
13.43
7.92
1.87
-3.08
-5.31
-3.74
2.04
11.67
24.07
37.57
49.97
58.92
62.58
60.30
52.93
42.67
32.15
23.48
17.54
14.09
12.41
12.12
13.55
17.44
24.21
33.36
43.28
51.81
56.99
57.69
53.79
45.86
34.58
20.30
3.08
-17.23
-40.52
-66.09
-92.40
-117.08
-137.29
-150.27
-153.97
-147.56
-131.61
-108.00
-79.67
-50.25
-23.71
-3.67
7.35
8.83
2.56
-7.78
-17.85
-24.36
-26.15
-24.28
-21.11
-18.82
-18.36
-19.25
-20.19
-19.86
-17.44
-12.78
-6.37
1.04
8.59
15.30
20.15
22.50
22.59
21.87
22.52
26.43
34.68
47.28
63.43
81.90
101.51
121.37
140.82
159.26
175.39
188.05
196.54
200.69
200.48
195.93
187.25
175.16
161.07
145.37
128.99
113.64
101.28
92.95
88.28
85.83
83.73
80.15
70.28
50.64
20.87
-16.06
-55.70
-93.83
-126.92
-152.44
-169.41
-183.70
-201.19
-224.27
-251.14
-278.51
-304.08
-326.89
-346.89
-364.54
-387.02
-419.32
-460.51
-504.22
-543.33
-573.78
-594.87
-607.86
-574.41
-476.00
-325.78
-161.45
-16.49
95.97
177.75
236.00
277.65
307.73
323.13
321.81
306.91
286.10
267.45
255.30
250.01
249.47
250.65
245.93
230.36
204.59
173.69
143.81
118.54
98.40
81.94
67.06
48.85
24.05
-4.65
-35.05
-63.52
-86.15
-98.88
-97.97
-81.49
-52.42
-17.12
16.87
43.15
59.01
65.34
65.60
63.82
62.57
61.58
59.18
54.24
46.91
39.17
33.13
29.94
29.20
29.33
28.37
24.93
18.80
10.65
1.98
-5.75
-11.59
-15.26
-16.96
-17.26
-16.84
-16.30
-16.16
-16.49
-16.98
-17.27
-17.33
-17.64
-19.13
-22.72
-28.62
-36.09
-43.53
-49.15
-51.78
-51.43
-48.60
-44.25
-39.13
-33.65
-28.14
-23.15
-19.52
-17.41
-16.02
-13.34
-6.94
4.67
20.83
38.49
53.43
62.16
63.49
58.78
50.89
42.35
34.15
25.78
16.16
5.04
-6.27
-15.46
-20.44
-20.41
-16.38
-10.59
-5.46
-2.58
-2.30
-3.85
-5.81
-6.61
-5.05
-0.43
7.28
17.25
27.95
37.40
43.89
46.76
46.74
45.58
45.13
46.25
48.22
48.85
45.40
35.70
19.21
-2.69
-27.09
-50.30
-68.77
-79.86
-82.36
-76.73
-64.93
-50.00
-35.25
-23.62
-16.92
-15.68
-19.38
-26.89
-36.95
-48.32
-60.05
-70.43
-77.42
-79.15
-74.67
-64.55
-50.84
-36.29
-23.22
-12.62
-3.86
4.65
14.56
26.96
42.01
58.99
76.47
92.40
103.96
107.73
100.17
78.82
43.87
-0.89
-48.38
-89.89
-117.87
-128.39
-122.36
-104.90
-83.08
-63.26
-49.37
-42.64
-42.69
-48.90
-60.89
-77.95
-98.06
-117.30
-130.49
-132.94
-122.27
-99.41
-68.24
-34.07
-1.73
25.69
47.25
63.79
77.31
90.31
105.29
124.01
146.66
170.88
191.61
202.10
196.12
170.60
127.37
73.20
17.82
-29.13
-61.08
-76.11
-76.66
-67.83
-55.24
-43.40
-35.05
-31.44
-32.70
-38.24
-46.60
-55.42
-61.66
-62.38
-55.80
-42.17
-23.81
-4.37
12.64
25.15
33.05
37.82
41.59
46.29
53.16
62.71
74.54
87.06
97.06
99.66
89.49
62.63
18.85
-37.21
-96.69
-148.98
-185.01
-199.91
-194.09
-172.29
-141.61
-109.09
-80.12
-57.73
-42.77
-34.47
-31.11
-30.38
-29.65
-26.29
-18.03
-3.54
17.19
42.69
70.30
96.73
118.94
134.97
144.77
150.48
155.94
165.14
180.07
199.04
216.38
224.27
215.94
188.85
146.26
96.05
47.76
9.02
-16.72
-30.27
-35.18
-35.61
-34.96
-35.56
-38.93
-46.18
-57.69
-72.60
-88.31
-100.79
-105.72
-100.10
-83.52
-58.57
-29.92
-2.64
19.55
35.18
44.97
50.89
55.09
59.15
63.77
68.89
73.68
76.55
75.21
67.08
50.24
24.48
-7.78
-41.71
-71.16
-90.61
-96.92
-90.24
-73.72
-52.07
-29.99
-11.06
2.57
9.79
10.07
3.45
-9.02
-24.77
-39.87
-50.03
-52.13
-45.39
-31.62
-14.09
4.03
21.10
37.25
53.73
71.80
91.94
113.72
136.20
158.15
177.91
193.17
201.10
199.11
186.07
163.26
134.34
104.29
77.71
57.39
43.80
35.62
30.83
27.65
24.83
21.44
16.45
8.60
-3.12
-18.89
-37.56
-56.95
-74.58
-88.68
-98.80
-105.61
-110.12
-112.65
-112.37
-107.59
-96.61
-78.49
-53.62
-23.57
9.08
40.94
67.88
85.37
89.23
77.06
49.35
10.06
-34.13
-75.50
-107.45
-125.97
-130.02
-120.99
-101.53
-74.78
-44.02
-12.92
14.51
34.31
43.61
41.78
30.90
15.24
-0.17
-11.34
-16.47
-16.01
-11.88
-6.26
-0.75
3.82
7.45
10.80
15.34
23.21
36.52
56.17
80.77
106.39
127.72
140.06
141.20
132.20
116.56
98.60
81.73
67.66
56.67
48.27
41.89
36.87
32.25
26.56
18.11
5.71
-10.57
-28.91
-46.15
-58.76
-64.20
-62.01
-54.05
-43.91
-35.39
-31.15
-31.87
-36.23
-41.53
-44.68
-43.29
-36.47
-25.39
-13.36
-5.22
-5.94
-18.89
-44.28
-78.61
-115.57
-147.89
-169.45
-176.80
-169.49
-149.39
-119.72
-84.06
-46.04
-9.20
22.97
47.17
60.90
63.03
54.45
38.17
18.69
0.90
-11.18
-15.43
-11.98
-2.70
9.65
22.47
34.01
43.81
52.57
61.88
73.44
88.23
105.62
122.94
135.81
139.38
130.00
106.67
71.64
29.96
-11.96
-47.94
-73.43
-86.18
-86.21
-75.29
-56.29
-32.67
-8.14
13.63
29.26
36.26
33.78
23.16
7.99
-6.83
-16.59
-18.57
-12.85
-2.14
9.68
19.16
24.46
25.63
24.09
21.78
20.34
20.67
22.53
24.30
23.00
14.87
-3.36
-33.01
-72.28
-116.19
-157.81
-190.19
-208.31
-210.25
-197.17
-172.43
-140.34
-105.08
-70.14
-38.21
-11.45
8.45
20.51
24.88
23.27
18.82
15.31
15.97
22.36
34.04
49.03
64.98
80.07
93.46
105.05
115.05
123.82
131.88
139.96
148.59
157.25
163.78
164.71
156.55
137.60
109.13
75.20
41.13
11.45
-11.58
-28.20
-40.07
-48.98
-55.71
-59.98
-60.96
-58.04
-51.43
-42.11
-31.45
-20.70
-10.49
-0.80
8.76
18.38
27.53
34.74
37.92
34.95
24.47
6.51
-17.21
-43.63
-69.08
-90.33
-105.68
-115.47
-122.00
-128.55
-138.06
-151.69
-168.13
-183.86
-194.21
-195.00
-184.03
-161.88
-131.75
-98.41
-66.77
-40.52
-21.47
-9.60
-3.64
-1.80
-2.26
-3.33
-3.40
-1.11
4.38
12.99
23.74
35.10
45.66
54.76
62.63
70.07
77.95
87.03
98.03
111.72
128.59
148.01
167.34
181.86
186.00
175.62
150.26
113.87
73.72
37.60
11.02
-4.39
-10.44
-10.52
-7.62
-3.22
2.39
8.99
15.53
20.00
20.38
15.70
6.82
-3.82
-13.34
-19.75
-22.88
-24.50
-27.42
-34.27
-46.31
-62.94
-81.70
-98.94
-110.79
-114.15
-107.54
-91.72
-69.85
-46.95
-28.83
-20.50
-24.58
-40.27
-63.29
-87.09
-104.79
-111.39
-105.27
-88.30
-64.76
-39.51
-16.35
2.60
16.51
24.95
27.35
23.20
13.01
-1.08
-15.43
-26.16
-30.80
-29.50
-24.85
-20.48
-19.11
-21.23
-24.81
-26.15
-21.08
-6.38
19.39
55.15
96.96
138.24
170.88
187.47
183.76
160.51
123.47
81.51
43.43
15.23
-1.22
-7.51
-6.87
-2.30
4.27
11.66
18.65
23.46
24.14
19.64
10.83
0.67
-6.83
-8.53
-3.95
4.11
10.43
9.63
-1.62
-23.35
-52.42
-83.76
-112.06
-133.05
-144.21
-145.02
-137.07
-123.82
-109.90
-99.86
-96.49
-99.57
-105.81
-109.97
-106.95
-93.84
-70.80
-40.77
-8.14
22.89
49.25
69.44
82.96
89.86
90.25
84.51
73.58
59.24
43.84
29.76
18.60
10.77
5.75
2.70
1.08
0.97
2.87
7.32
14.61
24.81
37.87
53.53
70.83
87.75
101.13
107.56
104.76
92.79
74.43
54.36
37.42
26.98
24.12
27.90
36.38
47.56
59.77
71.46
80.78
85.68
84.48
76.89
64.45
50.23
37.63
29.02
24.75
23.05
20.87
15.13
3.75
-13.76
-36.25
-61.14
-84.95
-104.00
-115.34
-117.87
-113.14
-105.39
-100.49
-103.79
-117.90
-141.21
-168.08
-190.60
-201.31
-195.71
-173.48
-138.08
-95.19
-50.59
-8.81
27.32
56.21
76.75
88.08
89.86
83.05
70.28
55.46
42.59
34.51
32.02
33.95
38.22
42.84
46.63
49.29
51.09
52.66
55.03
59.70
68.21
81.31
97.68
113.36
122.46
119.13
100.02
66.04
22.58
-22.14
-59.67
-83.74
-91.63
-84.10
-64.32
-36.48
-4.87
26.58
54.44
75.81
88.69
92.36
87.63
76.62
62.09
46.54
31.61
17.89
5.30
-6.35
-17.01
-26.39
-34.27
-40.65
-45.82
-50.14
-53.75
-56.41
-57.77
-57.72
-56.72
-56.01
-57.30
-62.38
-72.44
-87.55
-106.36
-126.03
-142.61
-151.76
-149.85
-135.02
-107.85
-71.45
-30.56
9.66
44.94
72.65
91.89
103.02
107.01
105.08
98.56
89.01
78.21
67.94
59.54
53.48
49.42
46.43
43.49
39.88
35.48
30.78
26.82
24.97
26.75
33.28
44.76
59.84
75.33
86.54
88.43
77.27
52.21
16.13
-24.78
-62.75
-90.70
-104.30
-102.85
-88.84
-66.53
-40.33
-13.76
10.77
31.62
47.57
57.82
62.26
61.77
58.12
53.28
48.57
44.05
38.49
30.08
17.48
0.62
-19.22
-39.87
-59.08
-75.27
-87.71
-96.26
-100.85
-101.02
-96.00
-85.22
-69.03
-49.36
-29.78
-14.85
-8.92
-14.59
-31.73
-57.15
-85.42
-110.31
-126.44
-130.48
-121.69
-101.67
-73.59
-41.41
-9.18
19.50
41.94
56.74
63.95
65.00
62.14
57.75
53.62
50.59
48.68
47.53
46.83
46.50
46.66
47.31
48.24
49.00
49.18
48.62
47.60
46.76
46.81
48.29
51.20
54.90
58.17
59.45
57.28
50.78
39.92
25.52
8.93
-8.43
-25.45
-41.55
-56.46
-69.84
-81.09
-89.16
-92.90
-91.38
-84.37
-72.43
-56.75
-38.75
-19.62
-0.21
18.85
36.73
52.27
64.08
70.95
72.33
68.60
61.01
51.22
40.86
31.14
22.84
16.52
12.66
11.68
13.70
18.20
24.02
29.48
32.82
32.80
29.17
22.71
14.93
7.44
1.41
-2.73
-5.15
-6.61
-7.69
-8.53
-8.82
-8.20
-6.65
-4.55
-2.34
-0.05
2.37
5.57
10.59
18.50
30.04
45.26
63.38
82.63
100.12
110.94
109.86
93.05
59.89
13.80
-38.45
-88.86
-130.54
-159.68
-177.31
-186.95
-192.44
-196.12
-198.66
-200.03
-200.60
-201.16
-194.57
-175.65
-142.51
-98.22
-49.06
-1.14
41.51
76.73
104.18
124.55
137.84
144.44
145.41
142.73
138.82
135.72
134.21
134.39
135.59
135.75
132.88
125.89
115.03
101.62
87.13
72.33
57.90
43.84
28.99
11.98
-8.00
-30.68
-54.80
-75.26
-90.87
-101.18
-106.62
-108.65
-109.07
-109.59
-111.30
-114.77
-119.89
-126.11
-131.27
-132.18
-125.92
-111.02
-88.68
-62.66
-38.27
-20.19
-11.07
-10.17
-14.29
-19.62
-23.21
-23.85
-21.71
-17.78
-13.03
-8.34
-4.08
-0.36
2.84
5.71
7.96
10.27
12.97
16.24
20.00
24.23
28.80
33.41
37.53
40.52
41.96
41.70
40.06
37.65
35.13
32.83
30.55
27.75
23.86
18.76
12.83
6.83
1.59
-2.40
-5.18
-7.33
-9.72
-13.15
-17.96
-23.66
-29.00
-32.31
-32.01
-27.24
-18.28
-6.61
5.55
15.99
23.26
26.83
27.01
24.68
20.80
16.27
11.77
8.00
4.41
1.14
-1.74
-4.24
-6.50
-8.69
-10.86
-13.00
-15.01
-16.84
-18.35
-19.64
-21.02
-22.86
-25.54
-29.27
-33.96
-39.27
-44.72
-49.76
-54.14
-57.97
-61.71
-66.00
-71.45
-78.50
-87.09
-96.50
-105.12
-110.77
-111.15
-104.53
-90.38
-69.69
-44.69
-18.22
7.00
29.06
46.91
60.29
69.42
74.80
77.13
77.24
76.12
74.67
73.54
72.88
72.35
71.24
68.87
64.95
59.79
54.34
49.80
47.15
46.70
47.95
49.77
50.85
50.17
47.20
42.02
35.13
27.24
19.07
11.07
3.28
-4.69
-13.49
-23.58
-34.65
-45.39
-53.63
-57.10
-54.22
-44.73
-29.81
-11.57
7.60
25.57
40.76
52.16
59.26
62.08
61.16
57.47
52.23
46.55
41.20
36.49
32.47
29.14
26.60
25.18
25.20
26.77
29.64
33.08
36.06
37.58
36.89
33.79
28.52
21.69
13.94
5.67
-3.16
-13.14
-25.18
-40.16
-58.35
-78.83
-99.22
-115.98
-125.28
-124.30
-112.38
-91.55
-65.98
-40.65
-19.61
-4.78
4.31
9.61
13.19
15.98
17.46
16.26
11.38
3.18
-6.39
-14.54
-18.78
-17.99
-12.72
-4.72
4.03
12.16
19.29
25.79
32.19
38.57
44.29
48.15
49.00
46.31
40.49
32.78
24.85
18.35
14.74
15.39
21.54
34.08
52.73
75.20
96.80
111.30
112.74
97.79
67.35
26.61
-16.49
-53.76
-79.11
-89.92
-87.02
-73.68
-54.25
-32.94
-13.12
3.00
14.36
20.97
23.73
24.15
24.11
25.41
29.45
36.76
46.78
57.87
67.80
74.40
76.16
72.28
62.41
46.08
22.75
-7.53
-42.95
-79.22
-110.11
-129.28
-133.01
-122.20
-102.51
-82.37
-69.48
-67.68
-75.52
-87.10
-94.90
-92.88
-78.75
-54.43
-24.65
5.14
30.79
50.31
63.47
70.75
72.43
68.35
