1660930931.00
64.000000
-0.00
-0.00
-0.00
-0.00
-0.00
-0.00
-0.00
-0.00
-0.00
-0.00
0.00
0.01
0.01
-0.00
-0.03
-0.05
-0.05
0.00
0.13
0.36
0.66
1.01
1.37
1.72
2.06
2.40
2.79
3.25
3.81
4.44
5.09
5.73
6.32
6.90
7.53
8.26
9.15
10.26
11.48
12.70
13.80
14.75
15.64
16.66
18.01
19.84
22.34
25.27
28.37
31.34
34.07
36.67
39.51
43.02
47.48
53.22
59.82
66.73
73.43
79.66
85.62
91.90
99.22
108.01
118.62
130.39
142.43
153.96
164.63
174.79
185.30
197.53
209.97
224.52
241.41
260.55
280.84
299.79
313.60
318.05
309.84
287.77
253.61
210.58
162.66
113.22
64.32
16.90
-28.63
-71.89
-112.44
-149.85
-184.75
-218.47
-252.67
-288.46
-325.47
-361.30
-391.89
-412.78
-420.56
-414.41
-396.40
-370.69
-341.91
-313.52
-287.09
-262.56
-239.26
-216.69
-195.15
-175.31
-157.64
-141.99
-127.61
-113.60
-99.43
-85.17
-71.43
-59.03
-48.53
-39.99
-32.94
-26.65
-20.49
-14.16
-7.75
-1.64
3.77
8.23
11.76
14.56
16.93
19.08
21.12
22.99
24.55
25.63
26.18
26.20
25.85
25.34
24.89
24.65
24.65
24.78
24.85
24.65
24.10
23.22
22.15
21.08
20.14
19.39
18.76
18.19
17.62
17.03
16.45
15.91
15.40
14.93
14.50
14.13
13.87
13.73
13.71
13.78
13.85
13.83
13.69
13.34
12.82
12.16
11.49
10.91
10.50
10.27
10.13
10.01
9.81
9.52
9.16
8.77
8.37
7.97
7.55
7.16
6.87
6.73
6.74
6.82
6.85
6.72
6.42
6.02
5.62
5.29
5.02
4.70
4.28
3.76
3.21
2.79
2.58
2.55
2.57
2.49
2.19
1.68
1.03
0.34
-0.33
-0.98
-1.67
-2.42
-3.21
-4.00
-4.71
-5.31
-5.82
-6.29
-6.77
-7.27
-7.74
-8.11
-8.34
-8.41
-8.35
-8.22
-8.08
-7.95
-7.84
-7.71
-7.51
-7.19
-6.77
-6.26
-5.75
-5.29
-4.92
-4.61
-4.28
-3.86
-3.31
-2.66
-1.96
-1.28
-0.65
-0.08
0.42
0.81
1.06
1.14
1.09
0.99
0.93
0.99
1.16
1.43
1.73
2.02
2.30
2.56
2.80
2.98
3.06
3.02
2.86
2.64
2.43
2.29
2.30
2.49
2.86
3.33
3.81
4.19
4.42
4.49
4.43
4.28
4.09
3.93
3.86
3.94
4.21
4.65
5.14
5.52
5.64
5.45
5.00
4.45
3.99
3.72
3.66
3.69
3.69
3.57
3.31
3.02
2.82
2.81
2.98
3.22
3.39
3.37
3.14
2.78
2.40
2.12
1.98
1.97
2.05
2.17
2.32
2.45
2.53
2.51
2.37
2.12
1.82
1.55
1.37
1.30
1.30
1.34
1.37
1.37
1.34
1.34
1.40
1.53
1.73
1.95
2.12
2.20
2.16
2.03
1.84
1.65
1.45
1.24
1.02
0.80
0.61
0.50
0.52
0.65
0.88
1.14
1.38
1.58
1.73
1.82
1.82
1.69
1.41
1.02
0.62
0.37
0.36
0.58
0.91
1.14
1.10
0.77
0.25
-0.28
-0.66
-0.83
-0.84
-0.74
-0.58
-0.35
-0.06
0.30
0.65
0.91
0.99
0.85
0.57
0.23
-0.00
-0.04
0.15
0.51
0.90
1.20
1.34
1.33
1.23
1.13
1.05
0.96
0.82
0.64
0.47
0.38
0.38
0.44
0.47
0.41
0.26
0.08
-0.03
-0.03
0.05
0.16
0.21
0.13
-0.05
-0.28
-0.48
-0.59
-0.60
-0.55
-0.50
-0.53
-0.63
-0.77
-0.85
-0.77
-0.53
-0.17
0.23
0.66
1.14
1.77
2.56
3.46
4.28
4.83
4.98
4.78
4.38
3.97
3.69
3.54
3.40
3.17
2.75
2.17
1.51
0.88
0.35
-0.05
-0.32
-0.49
-0.54
-0.48
-0.31
-0.08
0.14
0.26
0.21
0.03
-0.22
-0.43
-0.53
-0.51
-0.41
-0.26
-0.10
0.06
0.25
0.45
0.67
0.89
1.10
1.29
1.49
1.66
1.78
1.80
1.70
1.50
1.22
0.91
0.58
0.23
-0.15
-0.55
-0.90
-1.17
-1.28
-1.25
-1.12
-0.96
-0.84
-0.78
-0.77
-0.77
-0.74
-0.70
-0.67
-0.63
-0.58
-0.49
-0.36
-0.21
-0.08
0.00
0.02
0.01
-0.02
-0.04
-0.07
-0.12
-0.20
-0.27
-0.30
-0.25
-0.12
0.05
0.21
0.32
0.39
0.41
0.38
0.28
0.13
-0.06
-0.22
-0.27
-0.17
0.08
0.38
0.63
0.71
0.59
0.32
-0.01
-0.30
-0.50
-0.63
-0.73
-0.82
-0.89
-0.84
-0.63
-0.23
0.27
0.76
1.10
1.24
1.21
1.05
0.83
0.60
0.38
0.22
0.18
0.32
0.63
1.02
1.32
1.36
1.07
0.54
-0.02
-0.35
-0.29
0.15
0.82
1.45
1.83
1.88
1.66
1.28
0.84
0.41
-0.02
-0.45
-0.84
-1.15
-1.28
-1.20
-0.93
-0.61
-0.36
-0.33
-0.50
-0.80
-1.07
-1.16
-1.01
-0.66
-0.22
0.18
0.49
0.67
0.75
0.75
0.69
0.63
0.62
0.71
0.89
1.07
1.11
0.93
0.55
0.07
-0.33
-0.56
-0.63
-0.64
-0.68
-0.79
-0.91
-0.94
-0.80
-0.50
-0.13
0.21
0.46
0.60
0.71
0.83
0.95
1.05
1.03
0.87
0.57
0.24
-0.01
-0.09
-0.01
0.18
0.37
0.47
0.44
0.30
0.08
-0.15
-0.34
-0.46
-0.46
-0.35
-0.11
0.20
0.51
0.75
0.84
0.73
0.44
0.03
-0.39
-0.75
-0.98
-1.06
-1.01
-0.85
-0.62
-0.35
-0.08
0.14
0.29
0.35
0.32
0.25
0.16
0.10
0.09
0.16
0.29
0.48
0.67
0.81
0.84
0.73
0.52
0.30
0.09
-0.08
-0.26
-0.51
-0.84
-1.17
-1.43
-1.53
-1.46
-1.27
-1.03
-0.84
-0.77
-0.89
-1.19
-1.66
-2.19
-2.64
-2.90
-2.90
-2.71
-2.47
-2.35
-2.48
-2.86
-3.44
-4.10
-4.71
-5.19
-5.51
-5.69
-5.83
-6.04
-6.43
-7.05
-7.84
-8.73
-9.57
-10.30
-10.89
-11.41
-11.99
-12.73
-13.66
-14.68
-15.53
-15.83
-15.15
-13.21
-9.98
-5.73
-0.99
3.69
7.87
11.43
14.48
17.30
20.10
22.91
25.57
27.76
29.11
29.29
28.09
25.47
21.60
16.95
12.20
8.01
4.80
2.53
0.69
-1.48
-4.49
-8.27
-12.02
-14.46
-14.36
-11.12
-5.19
1.94
8.15
11.51
11.04
7.17
1.55
-3.69
-6.92
-7.70
-6.79
-5.64
-5.49
-6.83
-9.38
-12.43
-15.02
-15.62
-12.02
-1.91
15.68
38.72
61.83
77.82
80.87
69.50
47.60
22.59
1.89
-10.40
-14.63
-14.13
-12.51
-11.43
-10.36
-7.86
-3.45
1.64
5.03
4.65
-0.14
-8.14
-16.93
-23.99
-27.73
-28.03
-25.97
-23.15
-20.90
-19.69
-19.09
-18.16
-16.01
-12.40
-7.81
-3.30
0.05
1.52
1.12
-0.58
-2.65
-4.27
-5.04
-5.00
-4.47
-3.82
-3.16
-2.33
-1.02
1.02
3.74
6.72
9.35
11.07
11.58
10.95
9.54
7.78
6.01
4.42
3.09
2.02
1.22
0.67
0.28
-0.09
-0.57
-1.24
-2.05
-2.90
-3.62
-4.15
-4.45
-4.56
-4.48
-4.15
-3.50
-2.51
-1.26
0.05
1.17
1.93
2.28
2.32
2.17
1.94
1.64
1.22
0.65
-0.04
-0.75
-1.35
-1.77
-2.00
-2.12
-2.20
-2.28
-2.39
-2.53
-2.72
-2.98
-3.29
-3.56
-3.65
-3.37
-2.60
-1.29
0.42
2.29
4.00
5.27
5.92
5.90
5.30
4.28
3.01
1.62
0.22
-1.11
-2.30
-3.30
-4.04
-4.45
-4.49
-4.09
-3.24
-1.98
-0.47
1.06
2.32
3.09
3.28
2.98
2.36
1.64
0.95
0.35
-0.16
-0.58
-0.88
-1.03
-1.03
-0.97
-1.02
-1.31
-1.87
-2.58
-3.22
-3.59
-3.59
-3.23
-2.68
-2.11
-1.70
-1.53
-1.63
-1.95
-2.39
-2.81
-3.09
-3.11
-2.83
-2.31
-1.62
-0.87
-0.16
0.52
1.17
1.83
2.52
3.19
3.72
4.01
3.96
3.61
3.06
2.48
1.97
1.55
1.16
0.68
0.06
-0.68
-1.48
-2.24
-2.92
-3.46
-3.83
-3.92
-3.66
-3.02
-2.10
-1.10
-0.27
0.23
0.36
0.24
0.05
-0.06
-0.03
0.10
0.21
0.19
0.00
-0.35
-0.82
-1.37
-1.98
-2.71
-3.56
-4.48
-5.32
-5.81
-5.71
-4.91
-3.54
-1.98
-0.63
0.18
0.38
0.09
-0.46
-1.12
-1.92
-3.00
-4.38
-5.87
-7.00
-7.30
-6.48
-4.67
-2.35
-0.13
1.48
2.30
2.44
2.15
1.67
1.10
0.42
-0.41
-1.43
-2.57
-3.68
-4.57
-5.06
-5.00
-4.38
-3.39
-2.33
-1.57
-1.36
-1.69
-2.29
-2.75
-2.69
-1.96
-0.72
0.71
1.97
2.82
3.21
3.20
2.86
2.21
1.28
0.22
-0.70
-1.09
-0.67
0.56
2.28
3.96
5.09
5.41
5.02
4.26
3.53
3.08
2.89
2.76
2.43
1.72
0.65
-0.65
-1.97
-3.18
-4.28
-5.36
-6.52
-7.79
-9.06
-10.14
-10.85
-11.11
-10.93
-10.43
-9.72
-8.96
-8.31
-8.00
-8.30
-9.41
-11.37
-13.96
-16.76
-19.29
-21.30
-22.87
-24.44
-26.51
-29.32
-32.61
-35.69
-37.69
-38.09
-36.98
-35.12
-33.64
-33.53
-35.23
-38.58
-42.88
-47.26
-50.90
-53.27
-54.10
-53.48
-51.85
-49.99
-48.83
-49.19
-51.37
-54.89
-58.56
-60.89
-60.75
-57.80
-52.55
-46.03
-39.19
-32.42
-25.40
-17.42
-7.86
3.29
15.26
26.73
36.34
43.51
48.98
54.79
63.70
78.10
98.93
125.07
153.73
181.46
205.43
224.30
238.15
247.87
254.30
257.89
258.87
257.98
256.68
256.65
258.70
261.77
262.66
257.00
240.95
212.53
172.24
122.54
66.95
9.34
-46.21
-95.54
-134.64
-160.54
-172.33
-171.68
-162.42
-149.30
-136.45
-126.39
-119.92
-116.61
-115.48
-115.46
-115.54
-114.77
-112.40
-108.05
-101.85
-94.38
-86.40
-78.69
-71.74
-65.72
-60.55
-55.99
-51.74
-47.55
-43.30
-38.98
-34.73
-30.73
-27.15
-24.07
-21.44
-19.11
-16.86
-14.54
-12.08
-9.56
-7.14
-4.99
-3.24
-1.90
-0.95
-0.27
0.25
0.73
1.27
1.91
2.63
3.34
3.94
4.34
4.52
4.55
4.57
4.72
5.05
5.56
6.14
6.64
6.97
7.06
6.93
6.64
6.23
5.70
4.98
4.01
2.77
1.31
-0.26
-1.77
-3.09
-4.12
-4.81
-5.20
-5.30
-5.19
-4.95
-4.71
-4.60
-4.76
-5.20
-5.89
-6.66
-7.33
-7.72
-7.75
-7.40
-6.73
-5.85
-4.90
-4.03
-3.35
-2.91
-2.68
-2.56
-2.44
-2.24
-1.96
-1.65
-1.34
-1.05
-0.74
-0.37
0.09
0.58
1.00
1.21
1.14
0.77
0.17
-0.52
-1.18
-1.70
-2.04
-2.20
-2.22
-2.18
-2.12
-2.07
-2.04
-2.02
-2.04
-2.15
-2.35
-2.62
-2.88
-3.02
-2.97
-2.74
-2.38
-1.99
-1.65
-1.39
-1.21
-1.09
-1.03
-1.02
-1.06
-1.10
-1.10
-1.04
-0.94
-0.85
-0.81
-0.84
-0.86
-0.79
-0.54
-0.09
0.56
1.30
2.01
2.59
2.95
3.05
2.93
2.62
2.21
1.76
1.31
0.87
0.46
0.09
-0.24
-0.54
-0.85
-1.19
-1.58
-2.01
-2.42
-2.73
-2.86
-2.77
-2.45
-1.95
-1.39
-0.87
-0.51
-0.35
-0.38
-0.52
-0.60
-0.41
0.25
1.44
3.06
4.82
6.26
6.98
6.70
5.43
3.49
1.34
-0.54
-1.84
-2.44
-2.45
-2.07
-1.49
-0.87
-0.34
0.02
0.15
0.01
-0.38
-0.96
-1.62
-2.19
-2.53
-2.55
-2.23
-1.68
-1.07
-0.63
-0.51
-0.72
-1.14
-1.51
-1.64
-1.41
-0.90
-0.28
0.25
0.58
0.71
0.69
0.58
0.42
0.25
0.14
0.13
0.21
0.33
0.42
0.41
0.37
0.38
0.52
0.77
1.02
1.11
0.92
0.47
-0.14
-0.76
-1.26
-1.60
-1.80
-1.89
-1.95
-1.98
-1.97
-1.89
-1.70
-1.36
-0.89
-0.32
0.36
1.16
2.12
3.20
4.24
5.03
5.33
5.04
4.25
3.21
2.20
1.43
0.94
0.67
0.50
0.34
0.14
-0.12
-0.42
-0.75
-1.06
-1.28
-1.38
-1.34
-1.22
-1.06
-0.94
-0.92
-1.01
-1.25
-1.60
-1.99
-2.32
-2.46
-2.30
-1.84
-1.17
-0.47
0.10
0.43
0.50
0.37
0.15
-0.04
-0.12
-0.07
0.08
0.24
0.33
0.31
0.21
0.11
0.09
0.17
0.30
0.37
0.25
-0.09
-0.62
-1.20
-1.69
-1.98
-2.03
-1.91
-1.72
-1.59
-1.54
-1.54
-1.53
-1.41
-1.14
-0.73
-0.19
0.50
1.37
2.44
3.65
4.83
5.74
6.13
5.88
4.99
3.64
2.11
0.66
-0.47
-1.18
-1.46
-1.35
-0.98
-0.50
-0.07
0.20
0.24
0.06
-0.24
-0.55
-0.76
-0.84
-0.78
-0.63
-0.43
-0.19
0.07
0.30
0.42
0.34
0.06
-0.36
-0.78
-1.03
-1.05
-0.89
-0.71
-0.63
-0.70
-0.85
-0.96
-0.97
-0.86
-0.72
-0.61
-0.55
-0.51
-0.41
-0.24
-0.01
0.18
0.28
0.24
0.06
-0.17
-0.39
-0.50
-0.47
-0.30
-0.02
0.30
0.58
0.74
0.77
0.67
0.50
0.31
0.14
-0.01
-0.12
-0.17
-0.07
0.24
0.81
1.57
2.34
2.88
2.99
2.65
1.97
1.19
0.51
0.04
-0.24
-0.41
-0.53
-0.63
-0.66
-0.59
-0.44
-0.27
-0.18
-0.24
-0.45
-0.75
-1.05
-1.26
-1.33
-1.27
-1.12
-0.94
-0.79
-0.67
-0.60
-0.57
-0.56
-0.57
-0.62
-0.72
-0.90
-1.14
-1.39
-1.58
-1.63
-1.51
-1.26
-0.94
-0.61
-0.33
-0.13
-0.02
-0.01
-0.12
-0.32
-0.58
-0.80
-0.89
-0.75
-0.38
0.16
0.78
1.37
1.85
2.18
2.35
2.40
2.34
2.20
2.01
1.76
1.50
1.27
1.15
1.18
1.39
1.73
2.11
2.43
2.62
2.65
2.50
2.23
1.89
1.53
1.23
1.03
0.90
0.78
0.56
0.18
-0.35
-0.92
-1.39
-1.62
-1.55
-1.22
-0.79
-0.45
-0.36
-0.59
-1.09
-1.73
-2.31
-2.71
-2.86
-2.83
-2.73
-2.66
-2.70
-2.82
-2.96
-3.07
-3.09
-3.00
-2.83
-2.56
-2.25
-1.93
-1.65
-1.45
-1.34
-1.30
-1.30
-1.29
-1.24
-1.15
-1.00
-0.76
-0.42
0.01
0.48
0.88
1.11
1.11
0.88
0.52
0.17
-0.00
0.06
0.35
0.78
1.23
1.65
2.02
2.37
2.73
3.01
3.11
2.88
2.29
1.39
0.35
-0.61
-1.36
-1.86
-2.13
-2.26
-2.31
-2.28
-2.19
-2.02
-1.79
-1.54
-1.28
-0.99
-0.60
-0.08
0.59
1.36
2.18
2.97
3.69
4.28
4.64
4.57
3.95
2.73
1.07
-0.67
-2.07
-2.87
-3.09
-3.12
-3.54
-4.82
-7.02
-9.70
-12.11
-13.48
-13.46
-12.34
-11.00
-10.53
-11.71
-14.57
-18.26
-21.43
-22.78
-21.77
-18.96
-15.84
-14.18
-15.15
-18.70
-23.45
-27.30
-28.36
-25.82
-20.34
-13.60
-7.69
-4.18
-3.83
-6.52
-11.35
-16.40
-18.30
-12.61
4.58
34.12
71.87
108.89
134.47
140.68
126.12
96.55
61.99
31.95
11.49
0.30
-5.26
-8.77
-11.55
-12.63
-10.56
-5.32
1.08
5.70
6.38
3.01
-2.60
-7.71
-10.17
-9.43
-6.65
-3.88
-2.99
-4.72
-8.41
-12.38
-14.75
-14.29
-10.90
-5.52
0.39
5.42
8.74
10.27
10.54
10.43
10.76
12.08
14.38
17.09
19.23
19.74
17.84
13.43
7.12
0.06
-6.54
-11.77
-15.25
-17.12
-17.73
-17.49
-16.67
-15.41
-13.87
-12.21
-10.65
-9.38
-8.50
-8.00
-7.76
-7.58
-7.25
-6.65
-5.79
-4.82
-3.98
-3.50
-3.45
-3.73
-4.12
-4.38
-4.34
-3.99
-3.44
-2.83
-2.28
-1.84
-1.48
-1.17
-0.92
-0.76
-0.77
-1.01
-1.43
-1.95
-2.42
-2.74
-2.88
-2.88
-2.84
-2.83
-2.87
-2.93
-2.95
-2.90
-2.77
-2.61
-2.48
-2.43
-2.51
-2.73
-3.10
-3.58
-4.12
-4.65
-5.11
-5.46
-5.74
-6.02
-6.37
-6.85
-7.47
-8.24
-9.15
-10.18
-11.28
-12.37
-13.35
-14.16
-14.87
-15.61
-16.50
-17.52
-18.36
-18.51
-17.46
-14.91
-11.02
-6.34
-1.62
2.54
5.83
8.30
10.12
11.42
12.20
12.45
12.23
11.80
11.45
11.37
11.48
11.51
11.16
10.30
9.09
7.87
6.97
6.55
6.54
6.76
7.01
7.20
7.34
7.48
7.61
7.68
7.56
7.18
6.57
5.84
5.18
4.73
4.54
4.55
4.63
4.69
4.71
4.75
4.89
5.15
5.49
5.84
6.10
6.22
6.15
5.89
5.39
4.60
3.52
2.22
0.84
-0.39
-1.34
-1.96
-2.37
-2.76
-3.36
-4.28
-5.47
-6.76
-7.84
-8.41
-8.23
-7.20
-5.39
-3.06
-0.52
1.89
3.94
5.51
6.60
7.18
7.20
6.55
5.17
3.11
0.65
-1.87
-4.08
-5.76
-6.84
-7.35
-7.31
-6.76
-5.73
-4.34
-2.84
-1.54
-0.72
-0.45
-0.65
-1.06
-1.37
-1.38
-1.02
-0.35
0.47
1.27
1.89
2.23
2.25
1.95
1.40
0.68
-0.10
-0.80
-1.28
-1.46
-1.35
-1.03
-0.62
-0.22
0.12
0.42
0.70
0.91
0.98
0.78
0.24
-0.59
-1.57
-2.51
-3.22
-3.66
-3.85
-3.93
-4.00
-4.12
-4.23
-4.23
-4.02
-3.63
-3.15
-2.74
-2.50
-2.47
-2.59
-2.82
-3.14
-3.57
-4.15
-4.83
-5.47
-5.85
-5.80
-5.22
-4.18
-2.89
-1.56
-0.37
0.61
1.39
2.03
2.55
2.94
3.14
3.13
2.94
2.69
2.52
2.51
2.68
2.95
3.24
3.46
3.63
3.79
3.99
4.25
4.52
4.74
4.82
4.70
4.36
3.87
3.31
2.81
2.46
2.35
2.50
2.88
3.39
3.87
4.13
4.03
3.52
2.69
1.72
0.87
0.29
0.03
0.00
0.09
0.21
0.36
0.58
0.89
1.21
1.36
1.19
0.63
-0.20
-1.09
-1.81
-2.22
-2.35
-2.31
-2.24
-2.16
-2.01
-1.68
-1.17
-0.55
0.01
0.36
0.45
0.35
0.17
0.04
-0.02
-0.03
-0.02
-0.01
0.06
0.23
0.50
0.79
0.95
0.89
0.57
0.07
-0.46
-0.89
-1.13
-1.18
-1.09
-0.90
-0.63
-0.31
0.04
0.36
0.57
0.61
0.50
0.30
0.12
0.03
0.07
0.19
0.33
0.41
0.39
0.25
0.03
-0.21
-0.37
-0.32
-0.01
0.53
1.19
1.79
2.17
2.23
1.98
1.47
0.83
0.18
-0.35
-0.64
-0.60
-0.23
0.40
1.17
1.92
2.56
3.06
3.44
3.71
3.83
3.72
3.32
2.65
1.83
1.02
0.37
-0.10
-0.45
-0.83
-1.33
-1.97
-2.69
-3.41
-4.08
-4.69
-5.23
-5.66
-5.89
-5.82
-5.40
-4.68
-3.83
-2.98
-2.24
-1.63
-1.10
-0.62
-0.19
0.12
0.24
0.12
-0.20
-0.61
-0.92
-0.94
-0.57
0.14
0.99
1.71
2.06
1.93
1.42
0.71
0.04
-0.48
-0.81
-1.00
-1.10
-1.09
-0.94
-0.63
-0.19
0.26
0.61
0.78
0.78
0.74
0.76
0.89
1.08
1.23
1.21
0.97
0.55
0.07
-0.35
-0.62
-0.76
-0.83
-0.92
-1.06
-1.21
-1.29
-1.21
-0.95
-0.57
-0.12
0.33
0.75
1.14
1.51
1.83
2.06
2.15
2.06
1.80
1.43
1.03
0.68
0.42
0.26
0.20
0.24
0.36
0.54
0.76
1.00
1.21
1.41
1.57
1.68
1.73
1.67
1.47
1.13
0.69
0.19
-0.29
-0.69
-0.94
-1.02
-0.93
-0.69
-0.39
-0.15
-0.04
-0.11
-0.31
-0.53
-0.68
-0.69
-0.63
-0.63
-0.80
-1.17
-1.67
-2.16
-2.51
-2.66
-2.62
-2.47
-2.28
-2.12
-1.99
-1.91
-1.85
-1.83
-1.83
-1.83
-1.86
-1.93
-2.10
-2.44
-2.96
-3.63
-4.34
-4.95
-5.33
-5.43
-5.28
-5.05
-4.91
-5.00
-5.34
-5.85
-6.33
-6.57
-6.44
-5.90
-5.00
-3.86
-2.59
-1.29
-0.06
0.99
1.75
2.17
2.26
2.13
1.93
1.82
1.87
2.08
2.35
2.56
2.58
2.30
1.67
0.68
-0.61
-2.09
-3.56
-4.80
-5.67
-6.08
-6.13
-6.00
-5.92
-6.04
-6.44
-7.05
-7.73
-8.26
-8.40
-7.96
-6.80
-4.91
-2.41
0.47
3.39
5.99
7.95
9.03
9.09
8.15
6.42
4.27
2.14
0.46
-0.48
-0.67
-0.26
0.47
1.29
2.09
2.89
3.82
4.96
6.37
8.05
9.93
11.89
13.72
15.10
15.66
15.04
13.10
10.03
6.31
2.58
-0.58
-2.87
-4.23
-4.79
-4.70
-4.00
-2.67
-0.75
1.57
3.93
5.94
7.32
8.08
8.45
8.78
9.42
10.48
11.89
13.33
14.40
14.68
13.87
11.86
8.84
5.20
1.51
-1.65
-3.90
-5.14
-5.54
-5.47
-5.28
-5.20
-5.25
-5.36
-5.40
-5.30
-5.02
-4.58
-3.92
-3.02
-1.91
-0.73
0.28
0.85
0.82
0.20
-0.77
-1.81
-2.65
-3.20
-3.47
-3.57
-3.55
-3.42
-3.14
-2.70
-2.15
-1.59
-1.11
-0.80
-0.61
-0.47
-0.30
-0.05
0.29
0.65
0.97
1.19
1.27
1.20
1.01
0.77
0.53
0.35
0.22
0.11
-0.01
-0.18
-0.42
-0.71
-1.03
-1.32
-1.50
-1.53
-1.39
-1.12
-0.81
-0.55
-0.38
-0.31
-0.28
-0.23
-0.20
-0.25
-0.47
-0.83
-1.22
-1.46
-1.40
-1.07
-0.62
-0.26
-0.13
-0.23
-0.42
-0.53
-0.50
-0.33
-0.12
0.06
0.21
0.38
0.62
0.90
1.13
1.20
1.03
0.65
0.20
-0.19
-0.40
-0.45
-0.38
-0.31
-0.30
-0.35
-0.41
-0.44
-0.41
-0.36
-0.35
-0.46
-0.71
-1.06
-1.43
-1.71
-1.80
-1.68
-1.42
-1.15
-1.04
-1.16
-1.49
-1.87
-2.13
-2.11
-1.75
-1.11
-0.31
0.51
1.22
1.72
1.92
1.78
1.30
0.56
-0.29
-1.06
-1.61
-1.89
-1.92
-1.77
-1.51
-1.14
-0.63
0.05
0.84
1.58
2.07
2.13
1.72
0.91
-0.17
-1.34
-2.48
-3.50
-4.24
-4.54
-4.21
-3.20
-1.61
0.28
2.08
3.44
4.15
4.15
3.57
2.60
1.48
0.40
-0.49
-1.13
-1.53
-1.74
-1.78
-1.61
-1.13
-0.25
0.97
2.31
3.42
3.96
3.74
2.83
1.52
0.16
-0.91
-1.47
-1.43
-0.82
0.27
1.69
3.17
4.42
5.14
5.18
4.56
3.48
2.22
0.99
-0.04
-0.86
-1.49
-1.93
-2.16
-2.10
-1.69
-0.99
-0.11
0.75
1.40
1.78
1.91
1.91
1.86
1.75
1.49
0.94
0.08
-0.98
-2.03
-2.81
-3.17
-3.09
-2.68
-2.07
-1.37
-0.61
0.17
0.90
1.45
1.68
1.52
0.99
0.24
-0.54
-1.23
-1.77
-2.17
-2.45
-2.57
-2.44
-1.97
-1.17
-0.18
0.78
1.47
1.74
1.57
1.03
0.26
-0.59
-1.39
-2.00
-2.30
-2.22
-1.76
-1.05
-0.26
0.44
1.00
1.50
2.02
2.59
3.10
3.35
3.19
2.62
1.82
1.09
0.68
0.69
1.02
1.49
1.89
2.11
2.19
2.20
2.23
2.27
2.25
2.03
1.50
0.67
-0.31
-1.17
-1.62
-1.45
-0.68
0.49
1.67
2.51
2.74
2.36
1.54
0.62
-0.11
-0.50
-0.62
-0.69
-0.97
-1.69
-2.99
-5.04
-7.92
-11.60
-15.71
-19.36
-21.37
-20.71
-17.06
-11.01
-3.78
3.38
9.82
15.68
21.51
27.60
33.52
38.11
40.05
38.49
33.45
25.81
16.83
7.71
-0.72
-7.95
-13.71
-17.79
-20.07
-20.56
-19.47
-17.23
-14.49
-11.92
-10.07
-9.21
-9.25
-9.83
-10.52
-10.92
-10.89
-10.51
-9.98
-9.51
-9.20
-8.99
-8.71
-8.18
-7.30
-6.13
-4.93
-4.06
-3.76
-4.07
-4.79
-5.54
-6.09
-6.44
-6.86
-7.61
-8.73
-9.91
-10.61
-10.43
-9.36
-7.90
-6.85
-6.86
-8.16
-10.44
-12.95
-14.82
-15.24
-13.52
-9.10
-1.62
8.92
21.95
36.27
50.28
62.54
72.29
79.58
84.81
88.02
88.35
84.21
74.14
57.96
37.36
15.64
-3.46
-17.25
-24.92
-27.57
-27.27
-25.93
-24.58
-23.31
-21.75
-19.74
-17.56
-15.83
-15.09
-15.48
-16.60
-17.70
-18.13
-17.57
-16.25
-14.74
-13.65
-13.35
-13.76
-14.44
-14.84
-14.54
-13.44
-11.75
-9.92
-8.36
-7.32
-6.83
-6.68
-6.62
-6.38
-5.84
-5.02
-4.04
-3.08
-2.31
-1.82
-1.61
-1.58
-1.57
-1.46
-1.16
-0.71
-0.22
0.13
0.21
-0.00
-0.40
-0.82
-1.13
-1.25
-1.19
-1.01
-0.77
-0.48
-0.15
0.20
0.52
0.74
0.80
0.68
0.40
0.01
-0.40
-0.75
-0.96
-1.00
-0.86
-0.65
-0.47
-0.42
-0.53
-0.74
-0.98
-1.18
-1.30
-1.33
-1.30
-1.25
-1.20
-1.17
-1.16
-1.18
-1.23
-1.31
-1.41
-1.52
-1.60
-1.57
-1.40
-1.10
-0.73
-0.41
-0.24
-0.22
-0.29
-0.31
-0.17
0.15
0.59
0.98
1.16
1.07
0.76
0.39
0.13
0.12
0.37
0.78
1.19
1.46
1.53
1.43
1.24
1.06
0.90
0.77
0.63
0.46
0.28
0.11
-0.02
-0.11
-0.21
-0.33
-0.47
-0.62
-0.74
-0.80
-0.82
-0.84
-0.90
-0.99
-1.08
-1.10
-0.99
-0.73
-0.34
0.11
0.55
0.91
1.15
1.23
1.15
0.96
0.77
0.67
0.74
0.95
1.20
1.35
1.32
1.10
0.77
0.46
0.26
0.20
0.28
0.41
0.53
0.61
0.61
0.53
0.37
0.16
-0.06
-0.25
-0.36
-0.37
-0.27
-0.12
0.03
0.15
0.22
0.27
0.35
0.50
0.71
0.91
1.01
0.92
0.61
0.12
-0.42
-0.88
-1.10
-1.05
-0.74
-0.31
0.09
0.32
0.30
0.04
-0.35
-0.70
-0.85
-0.72
-0.33
0.20
0.73
1.11
1.26
1.16
0.85
0.41
-0.06
-0.46
-0.66
-0.61
-0.30
0.20
0.75
1.21
1.50
1.57
1.46
1.19
0.84
0.47
0.15
-0.07
-0.13
-0.01
0.26
0.62
0.95
1.15
1.10
0.78
0.23
-0.44
-1.05
-1.44
-1.49
-1.21
-0.70
-0.12
0.36
0.62
0.64
0.44
0.10
-0.31
-0.70
-1.03
-1.30
-1.48
-1.58
-1.57
-1.45
-1.22
-0.93
-0.64
-0.42
-0.31
-0.32
-0.40
-0.49
-0.54
-0.52
-0.42
-0.29
-0.15
-0.03
0.05
0.08
0.04
-0.06
-0.19
-0.31
-0.34
-0.25
-0.04
0.20
0.31
0.19
-0.20
-0.77
-1.35
-1.77
-1.91
-1.81
-1.54
-1.18
-0.74
-0.16
0.60
1.50
2.37
2.96
3.05
2.56
1.64
0.56
-0.38
-0.98
-1.23
-1.24
-1.18
-1.16
-1.19
-1.23
-1.22
-1.18
-1.17
-1.29
-1.55
-1.91
-2.22
-2.35
-2.24
-1.96
-1.67
-1.52
-1.60
-1.83
-2.03
-2.04
-1.78
-1.33
-0.90
-0.67
-0.76
-1.13
-1.64
-2.09
-2.34
-2.30
-1.95
-1.27
-0.23
1.11
2.66
4.22
5.57
6.52
6.97
6.93
6.48
5.73
4.79
3.78
2.79
1.91
1.22
0.78
0.56
0.52
0.58
0.65
0.65
0.52
0.23
-0.18
-0.61
-0.91
-0.96
-0.72
-0.28
0.21
0.57
0.71
0.63
0.42
0.19
0.01
-0.07
-0.06
0.07
0.33
0.68
1.04
1.26
1.23
0.89
0.32
-0.29
-0.74
-0.92
-0.81
-0.55
-0.31
-0.23
-0.32
-0.47
-0.52
-0.37
-0.05
0.30
0.52
0.51
0.30
0.05
-0.09
-0.04
0.17
0.43
0.62
0.69
0.66
0.61
0.61
0.70
0.92
1.20
1.44
1.54
1.41
1.07
0.68
0.45
0.58
1.08
1.81
2.54
3.11
3.47
3.73
4.01
4.30
4.43
4.09
3.09
1.43
-0.57
-2.47
-3.88
-4.62
-4.80
-4.69
-4.51
-4.35
-4.13
-3.71
-3.03
-2.18
-1.39
-0.83
-0.56
-0.48
-0.43
-0.26
0.01
0.28
0.39
0.28
0.01
-0.26
-0.41
-0.39
-0.29
-0.24
-0.35
-0.59
-0.85
-0.92
-0.69
-0.15
0.54
1.14
1.45
1.37
0.96
0.36
-0.31
-0.97
-1.61
-2.22
-2.76
-3.13
-3.25
-3.07
-2.69
-2.26
-1.93
-1.78
-1.79
-1.85
-1.84
-1.65
-1.25
-0.67
-0.04
0.50
0.77
0.66
0.14
-0.70
-1.66
-2.50
-3.03
-3.16
-2.94
-2.55
-2.16
-1.94
-1.90
-2.01
-2.19
-2.37
-2.59
-2.92
-3.46
-4.22
-5.14
-6.07
-6.84
-7.32
-7.50
-7.44
-7.32
-7.34
-7.65
-8.31
-9.22
-10.14
-10.73
-10.69
-9.81
-8.11
-5.81
-3.36
-1.23
0.15
0.59
0.19
-0.68
-1.47
-1.70
-1.12
0.25
2.18
4.41
6.71
8.96
11.06
12.85
14.10
14.60
14.31
13.44
12.35
11.47
11.05
11.09
11.37
11.54
11.30
10.52
9.25
7.70
6.09
4.59
3.28
2.19
1.34
0.80
0.73
1.22
2.25
3.60
4.90
5.74
5.78
4.94
3.38
1.45
-0.38
-1.71
-2.32
-2.20
-1.57
-0.74
-0.03
0.35
0.34
0.03
-0.40
-0.68
-0.61
-0.05
0.96
2.21
3.31
3.87
3.58
2.39
0.50
-1.67
-3.64
-5.05
-5.67
-5.53
-4.80
-3.80
-2.85
-2.25
-2.19
-2.71
-3.68
-4.85
-5.87
-6.42
-6.28
-5.40
-3.94
-2.20
-0.58
0.55
1.00
0.81
0.19
-0.53
-1.06
-1.27
-1.17
-0.85
-0.39
0.28
1.23
2.52
4.03
5.43
6.35
6.49
5.83
4.66
3.46
2.62
2.34
2.52
2.87
3.14
3.23
3.20
3.17
3.25
3.41
3.59
3.67
3.59
3.32
2.86
2.19
1.34
0.34
-0.75
-1.85
-2.89
-3.84
-4.69
-5.40
-5.91
-6.17
-6.14
-5.88
-5.49
-5.13
-4.90
-4.87
-5.05
-5.44
-6.01
-6.69
-7.43
-8.18
-8.90
-9.62
-10.46
-11.56
-13.00
-14.77
-16.69
-18.46
-19.81
-20.57
-20.89
-21.15
-21.86
-23.48
-26.17
-29.76
-33.72
-37.43
-40.44
-42.64
-44.35
-46.17
-48.74
-52.47
-57.39
-63.09
-68.98
-74.45
-79.11
-82.99
-86.44
-90.08
-94.71
-101.05
-109.47
-119.40
-129.03
-135.43
-135.20
-125.53
-105.26
-75.51
-39.40
-1.13
35.30
67.17
93.35
114.07
130.08
142.05
150.25
154.74
155.69
153.68
149.63
144.61
139.61
135.45
132.74
132.03
133.81
138.27
145.10
153.35
161.62
168.50
172.99
174.77
174.43
173.37
173.48
176.44
182.81
191.23
198.24
199.04
188.94
164.91
126.58
76.35
18.75
-40.53
-95.72
-141.80
-175.27
-194.75
-201.20
-197.66
-188.27
-177.04
-166.76
-158.64
-152.63
-148.21
-144.94
-142.67
-141.38
-140.81
-140.29
-138.92
-135.84
-130.66
-123.78
-116.50
-110.62
-107.47
-107.03
-107.26
-104.29
-93.62
-71.47
-35.87
13.13
73.71
142.53
214.51
282.76
339.09
375.52
386.69
371.65
334.21
281.17
219.76
155.55
92.09
31.99
-21.66
-65.06
-94.90
-110.05
-112.63
-107.30
-99.35
-92.58
-88.22
-85.42
-82.49
-78.46
-73.55
-68.92
-65.66
-64.11
-63.64
-63.09
-61.39
-58.09
-53.59
-48.79
-44.66
-41.80
-40.17
-39.18
-37.91
-35.50
-31.47
-26.03
-19.93
-14.31
-10.22
-8.26
-8.42
-10.02
-12.04
-13.45
-13.56
-12.18
-9.54
-6.21
-2.83
0.10
2.30
3.68
4.35
4.42
4.03
3.28
2.28
1.20
0.27
-0.31
-0.45
-0.24
0.09
0.29
0.19
-0.21
-0.75
-1.25
-1.54
-1.55
-1.36
-1.12
-0.96
-1.01
-1.27
-1.66
-2.07
-2.39
-2.56
-2.65
-2.71
-2.82
-2.97
-3.07
-2.99
-2.71
-2.30
-1.92
-1.75
-1.89
-2.28
-2.74
-3.13
-3.35
-3.40
-3.30
-3.04
-2.58
-1.84
-0.81
0.45
1.81
3.14
4.38
5.53
6.58
7.45
8.00
8.11
7.69
6.83
5.68
4.48
3.39
2.49
1.81
1.34
1.06
0.95
0.97
1.06
1.14
1.16
1.13
1.08
1.06
1.05
0.99
0.79
0.40
-0.18
-0.87
-1.56
-2.22
-2.84
-3.49
-4.20
-4.95
-5.68
-6.29
-6.68
-6.86
-6.84
-6.67
-6.36
-5.90
-5.29
-4.58
-3.82
-3.06
-2.29
-1.40
-0.22
1.36
3.32
5.44
7.35
8.71
9.35
9.31
8.86
8.34
7.97
7.79
7.66
7.39
6.80
5.89
4.76
3.55
2.43
1.45
0.66
0.05
-0.36
-0.58
-0.64
-0.62
-0.62
-0.70
-0.91
-1.19
-1.49
-1.75
-1.98
-2.19
-2.44
-2.75
-3.12
-3.52
-3.93
-4.34
-4.73
-5.08
-5.33
-5.43
-5.35
-5.09
-4.70
-4.29
-3.95
-3.72
-3.61
-3.57
-3.57
-3.57
-3.60
-3.66
-3.74
-3.82
-3.85
-3.82
-3.80
-3.89
-4.12
-4.47
-4.73
-4.67
-4.11
-3.01
-1.48
0.25
1.95
3.50
4.85
6.10
7.34
8.60
9.85
10.91
11.55
11.60
10.95
9.74
8.22
6.73
5.53
4.74
4.31
4.08
3.84
3.32
2.28
0.50
-2.10
-5.43
-9.15
-12.81
-15.93
-18.20
-19.44
-19.61
-18.70
-16.78
-14.02
-10.76
-7.56
-4.99
-3.50
-3.27
-4.09
-5.46
-6.75
-7.35
-6.91
-5.48
-3.44
-1.42
0.02
0.69
0.91
1.47
3.17
6.46
11.06
16.07
20.34
22.98
23.77
23.23
22.21
21.52
21.44
21.69
21.66
20.80
18.98
16.51
13.93
11.62
9.56
7.43
4.83
1.66
-1.71
-4.61
-6.39
-6.80
-6.15
-5.15
-4.56
-4.83
-5.90
-7.32
-8.55
-9.23
-9.38
-9.29
-9.35
-9.80
-10.67
-11.79
-12.91
-13.84
-14.46
-14.64
-14.16
-12.84
-10.61
-7.70
-4.64
-2.11
-0.54
-0.02
-0.20
-0.55
-0.62
-0.24
0.47
1.33
2.20
3.06
3.98
4.93
5.75
6.24
6.21
5.68
4.79
3.73
2.65
1.63
0.71
-0.06
-0.60
-0.83
-0.69
-0.22
0.51
1.41
2.42
3.49
4.59
5.62
6.43
6.89
6.93
6.57
5.95
5.23
4.54
3.94
3.43
2.99
2.63
2.40
2.33
2.41
2.58
2.79
3.03
3.32
3.77
4.40
5.15
5.86
6.36
6.52
6.33
5.86
5.21
4.43
3.57
2.59
1.51
0.35
-0.80
-1.89
-2.85
-3.63
-4.22
-4.63
-4.91
-5.06
-5.08
-4.93
-4.60
-4.11
-3.56
-3.07
-2.78
-2.73
-2.90
-3.21
-3.57
-3.95
-4.38
-4.93
-5.65
-6.50
-7.39
-8.12
-8.54
-8.49
-7.96
-7.02
-5.91
-4.94
-4.40
-4.47
-5.10
-6.00
-6.78
-7.06
-6.69
-5.75
-4.57
-3.47
-2.66
-2.16
-1.85
-1.61
-1.42
-1.35
-1.47
-1.80
-2.25
-2.66
-2.90
-2.92
-2.68
-2.13
-1.18
0.27
2.19
4.35
6.38
7.88
8.58
8.49
7.87
7.13
6.60
6.45
6.65
7.06
7.56
8.09
8.60
9.05
9.35
9.42
9.22
8.83
8.44
8.27
8.43
8.84
9.30
9.51
9.26
8.48
7.25
5.71
4.04
2.37
0.81
-0.57
-1.71
-2.57
-3.16
-3.51
-3.71
-3.87
-4.07
-4.35
-4.69
-5.01
-5.24
-5.30
-5.21
-5.00
-4.75
-4.50
-4.26
-3.98
-3.65
-3.27
-2.88
-2.55
-2.31
-2.11
-1.92
-1.65
-1.32
-0.98
-0.71
-0.63
-0.75
-1.03
-1.39
-1.69
-1.86
-1.88
-1.77
-1.61
-1.44
-1.28
-1.13
-0.99
-0.84
-0.71
-0.59
-0.46
-0.31
-0.13
0.07
0.20
0.19
-0.03
-0.42
-0.88
-1.25
-1.36
-1.14
-0.59
0.15
0.91
1.52
1.90
2.04
2.02
1.89
1.68
1.38
0.96
0.44
-0.08
-0.48
-0.65
-0.59
-0.40
-0.24
-0.23
-0.41
-0.72
-1.03
-1.20
-1.13
-0.79
-0.24
0.38
0.92
1.27
1.40
1.33
1.16
0.97
0.76
0.50
0.13
-0.33
-0.81
-1.16
-1.28
-1.13
-0.79
-0.40
-0.09
0.09
0.20
0.32
0.55
0.86
1.16
1.30
1.21
0.95
0.68
0.58
0.68
0.89
0.99
0.77
0.17
-0.70
-1.59
-2.25
-2.54
-2.46
-2.13
-1.67
-1.21
-0.76
-0.36
-0.00
0.27
0.45
0.54
0.58
0.65
0.77
0.92
1.01
0.95
0.71
0.31
-0.10
-0.42
-0.54
-0.46
-0.26
-0.04
0.13
0.22
0.24
0.21
0.14
0.02
-0.15
-0.39
-0.65
-0.87
-1.02
-1.04
-0.95
-0.78
-0.57
-0.37
-0.19
-0.05
0.05
0.08
0.04
-0.07
-0.21
-0.37
-0.54
-0.70
-0.82
-0.84
-0.71
-0.43
-0.06
0.25
0.35
0.13
-0.37
-1.01
-1.58
-1.91
-1.92
-1.63
-1.11
-0.49
0.13
0.64
0.94
0.94
0.64
0.08
-0.61
-1.29
-1.82
-2.12
-2.21
-2.16
-2.08
-2.02
-1.99
-1.95
-1.84
-1.66
-1.46
-1.35
-1.39
-1.63
-2.05
-2.58
-3.14
-3.68
-4.15
-4.49
-4.66
-4.62
-4.45
-4.27
-4.21
-4.33
-4.58
-4.82
-4.90
-4.78
-4.53
-4.34
-4.36
-4.66
-5.15
-5.69
-6.14
-6.46
-6.76
-7.13
-7.64
-8.25
-8.83
-9.23
-9.40
-9.32
-8.97
-8.27
-7.06
-5.17
-2.53
0.73
4.31
7.87
11.14
14.04
16.65
19.06
21.23
22.96
23.98
24.09
23.33
21.92
20.26
18.66
17.26
16.02
14.78
13.41
11.90
10.33
8.79
7.38
6.11
4.98
3.99
3.13
2.37
1.65
0.90
0.14
-0.54
-0.98
-1.02
-0.63
0.09
0.90
1.51
1.70
1.39
0.66
-0.21
-0.87
-0.94
-0.18
1.42
3.63
6.00
8.05
9.40
9.84
9.35
8.02
6.02
3.50
0.69
-2.15
-4.73
-6.77
-8.09
-8.66
-8.63
-8.23
-7.72
-7.26
-6.92
-6.65
-6.39
-6.08
-5.69
-5.27
-4.89
-4.59
-4.40
-4.30
-4.26
-4.26
-4.25
-4.20
-4.08
-3.87
-3.57
-3.25
-2.97
-2.78
-2.70
-2.66
-2.59
-2.39
-2.05
-1.60
-1.13
-0.74
-0.52
-0.47
-0.56
-0.71
-0.83
-0.83
-0.67
-0.36
0.04
0.44
0.75
0.92
0.96
0.93
0.89
0.91
0.98
1.07
1.15
1.20
1.20
1.20
1.20
1.22
1.22
1.20
1.12
1.00
0.88
0.81
0.86
1.04
1.32
1.58
1.69
1.55
1.09
0.38
-0.48
-1.32
-2.00
-2.41
-2.53
-2.40
-2.09
-1.69
-1.26
-0.87
-0.53
-0.24
-0.01
0.12
0.14
0.02
-0.25
-0.59
-0.92
-1.15
-1.21
-1.10
-0.85
-0.56
-0.31
-0.19
-0.22
-0.38
-0.62
-0.87
-1.07
-1.20
-1.27
-1.27
-1.22
-1.14
-1.04
-0.95
-0.88
-0.81
-0.73
-0.61
-0.45
-0.27
-0.11
-0.04
-0.08
-0.21
-0.38
-0.53
-0.61
-0.61
-0.54
-0.44
-0.33
-0.26
-0.28
-0.40
-0.62
-0.89
-1.13
-1.24
-1.16
-0.87
-0.44
0.00
0.30
0.36
0.18
-0.16
-0.53
-0.81
-0.92
-0.89
-0.75
-0.56
-0.37
-0.19
-0.03
0.08
0.09
-0.05
-0.33
-0.69
-1.03
-1.24
-1.25
-1.06
-0.73
-0.34
-0.00
0.22
0.29
0.21
-0.01
-0.34
-0.75
-1.16
-1.46
-1.53
-1.29
-0.73
0.04
0.88
1.60
2.11
2.37
2.42
2.33
2.17
2.01
1.89
1.81
1.77
1.70
1.57
1.34
1.02
0.66
0.33
0.05
-0.13
-0.25
-0.30
-0.29
-0.20
-0.06
0.09
0.15
0.04
-0.26
-0.64
-0.97
-1.11
-1.00
-0.70
-0.33
-0.01
0.18
0.25
0.20
0.07
-0.15
-0.42
-0.71
-0.92
-0.98
-0.82
-0.44
0.11
0.75
1.36
1.82
2.03
1.94
1.60
1.13
0.69
0.37
0.22
0.17
0.17
0.14
0.09
0.04
0.01
-0.02
-0.09
-0.25
-0.51
-0.81
-1.09
-1.23
-1.20
-1.00
-0.71
-0.45
-0.27
-0.15
-0.02
0.21
0.56
0.96
1.29
1.43
1.37
1.16
0.90
0.66
0.46
0.27
0.06
-0.19
-0.44
-0.64
-0.74
-0.71
-0.56
-0.32
-0.06
0.17
0.34
0.42
0.41
0.34
0.20
0.01
-0.22
-0.49
-0.74
-0.92
-1.00
-0.94
-0.79
-0.65
-0.60
-0.70
-0.93
-1.18
-1.35
-1.36
-1.23
-1.06
-0.99
-1.07
-1.29
-1.54
-1.69
-1.66
-1.42
-1.02
-0.51
0.05
0.62
1.15
1.56
1.78
1.77
1.55
1.20
0.88
0.66
0.61
0.66
0.72
0.72
0.61
0.46
0.35
0.36
0.52
0.78
1.08
1.36
1.56
1.69
1.75
1.69
1.51
1.20
0.81
0.41
0.10
-0.04
-0.01
0.13
0.28
0.35
0.29
0.13
-0.05
-0.18
-0.23
-0.27
-0.35
-0.55
-0.85
-1.18
-1.45
-1.57
-1.54
-1.38
-1.17
-0.94
-0.72
-0.50
-0.26
-0.04
0.14
0.22
0.17
0.01
-0.20
-0.38
-0.44
-0.36
-0.16
0.11
0.37
0.59
0.73
0.76
0.65
0.40
0.07
-0.23
-0.38
-0.32
-0.08
0.22
0.48
0.61
0.61
0.53
0.43
0.33
0.22
0.07
-0.14
-0.38
-0.64
-0.87
-1.05
-1.15
-1.13
-0.97
-0.68
-0.31
0.07
0.38
0.56
0.60
0.53
0.40
0.25
0.16
0.15
0.25
0.42
0.60
0.71
0.68
0.49
0.21
-0.04
-0.16
-0.11
0.06
0.26
0.36
0.30
0.10
-0.17
-0.43
-0.60
-0.68
-0.68
-0.62
-0.49
-0.26
0.07
0.47
0.84
1.06
1.04
0.75
0.26
-0.25
-0.61
-0.68
-0.43
0.03
0.51
0.81
0.86
0.70
0.47
0.33
0.31
0.32
0.27
0.08
-0.18
-0.39
-0.41
-0.21
0.11
0.35
0.39
0.19
-0.19
-0.60
-0.94
-1.14
-1.20
-1.12
-0.91
-0.60
-0.22
0.14
0.38
0.44
0.30
0.04
-0.22
-0.38
-0.39
-0.29
-0.15
-0.05
-0.01
0.01
0.07
0.18
0.31
0.40
0.41
0.38
0.39
0.53
0.77
1.02
1.10
0.88
0.36
-0.31
-0.94
-1.35
-1.47
-1.35
-1.10
-0.81
-0.52
-0.24
0.04
0.31
0.53
0.65
0.70
0.70
0.72
0.79
0.92
1.06
1.14
1.11
0.96
0.71
0.42
0.16
-0.02
-0.10
-0.12
-0.16
-0.26
-0.41
-0.57
-0.66
-0.65
-0.56
-0.46
-0.41
-0.40
-0.36
-0.22
0.03
0.32
0.48
0.37
-0.06
-0.69
-1.35
-1.79
-1.91
-1.72
-1.35
-1.02
-0.90
-1.08
-1.55
-2.22
-2.93
-3.50
-3.80
-3.70
-3.18
-2.33
-1.33
-0.40
0.23
0.46
0.28
-0.21
-0.87
-1.55
-2.13
-2.51
-2.65
-2.49
-2.08
-1.49
-0.85
-0.31
0.03
0.17
0.14
0.06
0.01
0.01
0.01
-0.09
-0.39
-0.94
-1.71
-2.57
-3.39
-4.04
-4.43
-4.55
-4.40
-4.05
-3.61
-3.24
-3.08
-3.24
-3.67
-4.23
-4.73
-4.98
-4.95
-4.73
-4.46
-4.29
-4.27
-4.39
-4.60
-4.86
-5.13
-5.34
-5.37
-5.08
-4.35
-3.15
-1.56
0.28
2.22
4.16
6.09
8.05
10.04
12.02
13.86
15.42
16.61
17.42
17.93
18.25
18.44
18.49
18.32
17.81
16.89
15.61
14.11
12.54
11.00
9.51
7.98
6.33
4.49
2.52
0.56
-1.19
-2.57
-3.49
-3.96
-4.04
-3.88
-3.63
-3.40
-3.30
-3.37
-3.62
-4.03
-4.58
-5.23
-5.90
-6.46
-6.76
-6.67
-6.14
-5.27
-4.27
-3.38
-2.79
-2.55
-2.60
-2.77
-2.91
-2.93
-2.82
-2.58
-2.25
-1.85
-1.37
-0.87
-0.40
-0.06
0.08
-0.00
-0.23
-0.47
-0.60
-0.55
-0.33
-0.04
0.26
0.49
0.62
0.65
0.57
0.37
0.03
-0.42
-0.91
-1.33
-1.58
-1.60
-1.39
-1.03
-0.63
-0.33
-0.18
-0.18
-0.25
-0.29
-0.22
-0.02
0.26
0.54
0.75
0.84
0.79
0.62
0.33
-0.04
-0.44
-0.81
-1.07
-1.13
-0.96
-0.61
-0.22
0.05
0.08
-0.17
-0.59
-1.00
-1.23
-1.19
-0.92
-0.52
-0.16
0.08
0.16
0.12
-0.01
-0.19
-0.37
-0.48
-0.42
-0.14
0.38
1.03
1.62
2.01
2.10
1.93
1.61
1.24
0.87
0.50
0.10
-0.33
-0.71
-0.94
-0.97
-0.80
-0.54
-0.36
-0.36
-0.57
-0.90
-1.22
-1.42
-1.42
-1.19
-0.79
-0.30
0.18
0.55
0.74
0.74
0.60
0.40
0.21
0.05
-0.07
-0.17
-0.23
-0.20
-0.05
0.21
0.51
0.75
0.84
0.75
0.54
0.28
0.09
0.02
0.09
0.30
0.60
0.96
1.34
1.71
2.01
2.20
2.19
1.96
1.52
0.98
0.52
0.29
0.38
0.76
1.26
1.68
1.85
1.70
1.28
0.72
0.19
-0.19
-0.38
-0.41
-0.38
-0.39
-0.48
-0.64
-0.77
-0.82
-0.78
-0.71
-0.71
-0.84
-1.07
-1.30
-1.42
-1.34
-1.08
-0.73
-0.39
-0.19
-0.17
-0.34
-0.62
-0.91
-1.09
-1.09
-0.89
-0.54
-0.13
0.28
0.62
0.89
1.07
1.14
1.07
0.89
0.66
0.49
0.45
0.53
0.66
0.74
0.69
0.54
0.35
0.21
0.17
0.19
0.18
0.06
-0.22
-0.63
-1.08
-1.45
-1.66
-1.70
-1.64
-1.58
-1.58
-1.67
-1.79
-1.85
-1.74
-1.44
-0.97
-0.40
0.16
0.64
0.96
1.09
1.05
0.90
0.70
0.50
0.34
0.17
-0.04
-0.34
-0.72
-1.11
-1.44
-1.63
-1.65
-1.53
-1.33
-1.14
-0.99
-0.87
-0.75
-0.61
-0.44
-0.23
-0.00
0.23
0.46
0.70
0.92
1.13
1.29
1.39
1.43
1.42
1.36
1.23
0.99
0.64
0.20
-0.23
-0.52
-0.59
-0.43
-0.13
0.13
0.24
0.15
-0.03
-0.17
-0.14
0.06
0.28
0.37
0.24
-0.06
-0.39
-0.58
-0.53
-0.29
0.01
0.22
0.21
-0.01
-0.37
-0.76
-1.08
-1.28
-1.35
-1.32
-1.21
-1.04
-0.88
-0.81
-0.90
-1.19
-1.64
-2.14
-2.51
-2.64
-2.53
-2.27
-2.02
-1.89
-1.89
-1.96
-2.03
-2.07
-2.12
-2.26
-2.54
-2.89
-3.19
-3.28
-3.12
-2.76
-2.36
-2.11
-2.07
-2.22
-2.42
-2.54
-2.56
-2.56
-2.68
-2.99
-3.35
-3.53
-3.21
-2.21
-0.58
1.40
3.35
4.95
6.04
6.63
6.81
6.65
6.15
5.32
4.20
2.91
1.58
0.32
-0.85
-1.94
-2.84
-3.25
-2.79
-1.17
1.59
5.03
8.39
10.87
11.96
11.56
9.98
7.74
5.35
3.19
1.50
0.35
-0.31
-0.61
-0.77
-0.99
-1.47
-2.26
-3.25
-4.24
-4.93
-5.05
-4.43
-3.12
-1.35
0.45
1.83
2.46
2.26
1.40
0.25
-0.81
-1.53
-1.84
-1.81
-1.65
-1.51
-1.51
-1.73
-2.22
-3.00
-4.03
-5.21
-6.39
-7.44
-8.30
-9.04
-9.83
-10.85
-12.19
-13.86
-15.77
-17.82
-19.99
-22.30
-24.82
-27.63
-30.77
-34.24
-38.01
-41.98
-46.04
-50.08
-54.07
-58.09
-62.34
-66.98
-72.11
-77.71
-83.66
-89.86
-96.21
-102.64
-109.05
-115.31
-121.44
-127.80
-135.18
-144.32
-155.25
-166.58
-175.24
-177.21
-168.75
-147.68
-114.05
-69.89
-18.50
36.31
90.64
140.57
182.38
213.06
231.17
237.41
234.51
226.33
216.59
207.82
201.12
196.46
193.43
191.63
190.82
190.74
191.02
191.19
190.91
190.17
189.21
188.60
189.14
191.80
197.52
206.64
218.19
229.55
236.71
235.35
222.37
196.91
160.41
115.71
65.75
12.96
-40.55
-92.13
-138.10
-174.28
-197.33
-206.33
-203.31
-192.56
-178.94
-166.09
-155.65
-147.50
-140.66
-134.26
-127.98
-121.83
-115.78
-109.57
-102.81
-95.28
-87.18
-79.11
-71.81
-65.81
-61.11
-57.27
-53.66
-49.75
-45.43
-40.94
-36.74
-33.25
-30.64
-28.80
-27.41
-26.09
-24.56
-22.77
-20.87
-19.13
-17.84
-17.16
-17.08
-17.41
-17.91
-18.34
-18.58
-18.65
-18.61
-18.57
-18.46
-18.06
-16.92
-14.57
-10.64
-5.13
1.47
8.31
14.43
19.15
22.31
24.24
25.50
26.52
27.37
27.80
27.48
26.27
24.38
22.29
20.47
19.20
18.46
18.03
17.72
17.39
16.94
16.21
14.92
12.79
9.69
5.77
1.41
-2.93
-6.88
-10.31
-13.21
-15.64
-17.61
-19.11
-20.23
-21.14
-22.04
-22.95
-23.60
-23.50
-22.06
-18.86
-13.67
-6.62
1.86
11.08
20.14
28.12
34.30
38.35
40.35
40.64
39.44
36.79
32.60
26.90
20.12
13.15
7.06
2.64
0.09
-0.97
-1.27
-1.48
-1.97
-2.80
-3.78
-4.67
-5.30
-5.60
-5.59
-5.36
-5.08
-4.90
-4.96
-5.29
-5.82
-6.42
-6.97
-7.39
-7.70
-8.02
-8.42
-8.92
-9.43
-9.78
-9.74
-9.21
-8.28
-7.26
-6.63
-6.85
-8.10
-10.17
-12.48
-14.23
-14.83
-14.14
-12.72
-11.54
-11.69
-13.72
-17.31
-21.26
-23.97
-24.20
-21.76
-17.75
-14.23
-13.32
-16.12
-22.08
-29.09
-34.31
-35.44
-31.86
-25.06
-18.06
-14.34
-16.38
-24.54
-36.70
-48.49
-54.00
-47.11
-23.14
19.09
75.61
137.10
190.75
224.09
229.52
207.36
165.79
117.52
74.73
44.57
27.50
18.82
12.30
3.68
-7.69
-19.56
-28.96
-34.28
-36.10
-36.39
-37.14
-39.03
-41.07
-41.52
-39.16
-34.26
-28.67
-24.86
-24.57
-27.76
-32.53
-36.04
-35.92
-31.38
-23.55
-14.90
-8.03
-4.55
-4.52
-6.62
-8.94
-9.89
-8.80
-6.10
-2.93
-0.53
0.33
-0.42
-2.18
-4.09
-5.42
-5.93
-5.80
-5.48
-5.38
-5.64
-6.13
-6.59
-6.78
-6.68
-6.39
-6.07
-5.82
-5.61
-5.34
-4.95
-4.46
-3.94
-3.51
-3.23
-3.09
-3.03
-2.94
-2.72
-2.34
-1.84
-1.33
-0.98
-0.92
-1.20
-1.71
-2.28
-2.69
-2.82
-2.69
-2.44
-2.24
-2.24
-2.46
-2.82
-3.22
-3.60
-3.97
-4.42
-5.02
-5.77
-6.58
-7.29
-7.75
-7.90
-7.78
-7.58
-7.50
-7.76
-8.48
-9.71
-11.32
-13.13
-14.88
-16.38
-17.64
-18.90
-20.53
-22.90
-26.18
-30.22
-34.64
-39.00
-43.03
-46.88
-50.97
-55.83
-61.74
-68.52
-75.57
-82.11
-87.59
-92.01
-95.94
-100.24
-105.58
-112.20
-119.89
-128.32
-137.19
-146.19
-154.54
-160.49
-161.37
-154.08
-136.22
-106.97
-67.47
-20.18
32.15
87.28
143.55
199.31
252.17
298.98
336.55
363.06
379.02
387.28
391.69
395.19
398.35
398.93
393.18
377.73
351.24
314.96
271.89
225.07
176.18
125.11
70.99
13.86
-43.92
-97.55
-141.31
-170.83
-184.95
-186.15
-179.32
-169.63
-160.54
-153.04
-146.25
-138.87
-130.38
-121.46
-113.37
-107.07
-102.53
-98.78
-94.57
-89.05
-82.22
-74.83
-67.94
-62.36
-58.30
-55.36
-52.80
-49.89
-46.27
-42.01
-37.59
-33.60
-30.49
-28.32
-26.81
-25.47
-23.85
-21.73
-19.19
-16.49
-13.91
-11.56
-9.35
-7.00
-4.21
-0.70
3.57
8.35
13.11
17.15
19.81
20.74
20.00
18.09
15.68
13.37
11.46
9.95
8.61
7.28
5.87
4.48
3.20
2.11
1.20
0.41
-0.27
-0.86
-1.31
-1.57
-1.66
-1.61
-1.48
-1.37
-1.35
-1.49
-1.79
-2.20
-2.59
-2.81
-2.76
-2.46
-2.01
-1.58
-1.32
-1.31
-1.50
-1.78
-2.02
-2.14
-2.12
-2.01
-1.83
-1.63
-1.41
-1.20
-1.04
-0.93
-0.90
-0.90
-0.92
-0.94
-0.98
-1.07
-1.21
-1.35
-1.44
-1.46
-1.44
-1.50
-1.74
-2.18
-2.69
-3.08
-3.18
-2.95
-2.53
-2.13
-1.91
-1.87
-1.87
-1.73
-1.32
-0.64
0.17
0.94
1.52
1.88
2.07
2.20
2.31
2.42
2.51
2.58
2.66
2.82
3.13
3.60
4.16
4.61
4.75
4.46
3.73
2.75
1.76
0.97
0.49
0.32
0.37
0.52
0.70
0.87
1.01
1.02
0.81
0.32
-0.47
-1.41
-2.33
-3.04
-3.45
-3.56
-3.48
-3.34
-3.21
-3.12
-3.07
-3.03
-2.99
-2.97
-2.98
-3.02
-3.08
-3.13
-3.16
-3.14
-3.05
-2.86
-2.50
-1.89
-0.97
0.26
1.67
2.99
3.98
4.44
4.41
4.10
3.83
3.83
4.20
4.80
5.37
5.70
5.65
5.22
4.51
3.66
2.75
1.87
1.04
0.29
-0.38
-0.96
-1.47
-1.91
-2.26
-2.50
-2.61
-2.58
-2.45
-2.25
-2.01
-1.77
-1.53
-1.31
-1.10
-0.90
-0.70
-0.47
-0.18
0.21
0.67
1.15
1.53
1.67
1.47
0.93
0.14
-0.67
-1.30
-1.58
-1.48
-1.12
-0.70
-0.41
-0.34
-0.46
-0.68
-0.91
-1.13
-1.37
-1.64
-1.93
-2.17
-2.31
-2.37
-2.40
-2.48
-2.62
-2.75
-2.76
-2.57
-2.16
-1.64
-1.14
-0.78
-0.59
-0.52
-0.52
-0.54
-0.61
-0.76
-1.02
-1.34
-1.60
-1.64
-1.29
-0.44
0.92
2.68
4.64
6.57
8.22
9.45
10.12
10.17
9.55
8.25
6.33
4.00
1.60
-0.46
-1.87
-2.51
-2.61
-2.62
-3.05
-4.18
-5.93
-7.87
-9.44
-10.19
-10.04
-9.23
-8.25
-7.55
-7.37
-7.72
-8.44
-9.22
-9.59
-8.89
-6.31
-1.36
5.81
14.03
21.37
25.82
26.15
22.52
16.37
