1660333895.00
64.000000
-0.00
-0.00
-0.00
-0.00
-0.00
-0.00
-0.00
-0.00
-0.00
-0.00
0.00
0.01
0.01
-0.00
-0.03
-0.05
-0.05
0.00
0.13
0.36
0.66
1.01
1.37
1.72
2.06
2.40
2.79
3.24
3.80
4.42
5.06
5.67
6.21
6.69
7.15
7.67
8.30
9.13
10.09
11.07
11.94
12.63
13.16
13.68
14.41
15.51
17.23
19.44
21.88
24.26
26.41
28.34
30.34
32.83
36.14
40.69
46.17
52.08
57.82
62.97
67.52
71.87
76.71
82.60
90.19
99.08
108.54
117.64
125.66
132.42
138.36
144.78
150.48
158.01
168.25
181.47
196.41
209.85
217.02
212.92
194.06
159.79
113.01
58.12
-0.20
-58.80
-116.60
-174.05
-231.89
-290.01
-347.24
-401.41
-450.78
-494.14
-530.84
-560.40
-582.11
-595.00
-598.14
-591.08
-573.70
-546.14
-508.07
-458.52
-396.47
-322.00
-237.28
-146.78
-56.51
27.69
101.31
162.11
209.74
245.03
269.17
283.41
289.16
288.17
282.51
274.14
264.54
254.41
243.76
232.23
219.50
205.59
190.92
176.17
161.99
148.78
136.57
125.05
113.81
102.56
91.32
80.39
70.19
61.02
52.96
45.77
39.11
32.70
26.54
20.90
16.14
12.64
10.37
9.04
8.18
7.30
6.03
4.18
1.77
-1.05
-4.01
-6.84
-9.25
-11.01
-12.05
-12.39
-12.18
-11.61
-10.83
-9.94
-9.02
-8.11
-7.28
-6.57
-6.03
-5.67
-5.43
-5.26
-5.13
-5.03
-5.01
-5.07
-5.18
-5.27
-5.24
-5.05
-4.68
-4.17
-3.52
-2.65
-1.53
-0.13
1.42
2.82
3.68
3.67
2.73
1.06
-0.89
-2.64
-3.86
-4.49
-4.70
-4.70
-4.66
-4.53
-4.20
-3.52
-2.51
-1.33
-0.23
0.57
0.98
1.06
0.91
0.64
0.31
-0.06
-0.47
-0.86
-1.21
-1.45
-1.59
-1.66
-1.67
-1.59
-1.32
-0.72
0.34
1.87
3.75
5.72
7.47
8.69
9.20
8.92
7.94
6.49
4.85
3.27
1.90
0.78
-0.12
-0.91
-1.56
-2.07
-2.39
-2.54
-2.59
-2.70
-3.02
-3.59
-4.32
-5.04
-5.60
-5.91
-5.98
-5.87
-5.66
-5.44
-5.24
-5.12
-5.10
-5.18
-5.29
-5.30
-5.04
-4.30
-2.98
-1.17
0.88
2.77
4.10
4.58
4.15
2.98
1.41
-0.21
-1.62
-2.69
-3.42
-3.87
-4.12
-4.22
-4.16
-3.95
-3.60
-3.10
-2.50
-1.86
-1.25
-0.74
-0.36
-0.12
-0.03
-0.10
-0.32
-0.68
-1.12
-1.59
-2.05
-2.50
-2.92
-3.24
-3.28
-2.81
-1.63
0.37
3.12
6.27
9.32
11.79
13.36
13.94
13.61
12.54
10.88
8.72
6.15
3.34
0.55
-1.84
-3.53
-4.37
-4.42
-3.93
-3.25
-2.68
-2.39
-2.38
-2.57
-2.84
-3.17
-3.57
-4.12
-4.90
-5.96
-7.29
-8.82
-10.40
-11.80
-12.74
-12.88
-11.95
-9.84
-6.64
-2.69
1.47
5.27
8.27
10.23
11.17
11.23
10.61
9.47
7.90
6.00
3.93
1.93
0.28
-0.82
-1.29
-1.25
-0.94
-0.66
-0.61
-0.83
-1.22
-1.63
-1.93
-2.11
-2.25
-2.48
-2.95
-3.74
-4.84
-6.20
-7.66
-8.98
-9.77
-9.62
-8.17
-5.33
-1.33
3.25
7.66
11.21
13.43
14.20
13.70
12.28
10.35
8.25
6.20
4.32
2.68
1.40
0.57
0.24
0.34
0.68
1.04
1.22
1.12
0.82
0.46
0.18
0.01
-0.10
-0.27
-0.66
-1.35
-2.38
-3.73
-5.30
-6.86
-8.11
-8.66
-8.15
-6.45
-3.67
-0.21
3.38
6.54
8.88
10.21
10.59
10.19
9.16
7.62
5.66
3.39
1.04
-1.08
-2.67
-3.50
-3.60
-3.17
-2.56
-2.09
-1.91
-2.01
-2.27
-2.55
-2.78
-3.00
-3.33
-3.87
-4.72
-5.93
-7.46
-9.21
-10.92
-12.21
-12.67
-11.93
-9.86
-6.57
-2.48
1.89
5.99
9.41
11.86
13.25
13.56
12.86
11.22
8.84
5.98
3.04
0.42
-1.51
-2.56
-2.79
-2.42
-1.82
-1.29
-1.03
-1.04
-1.22
-1.43
-1.63
-1.84
-2.17
-2.74
-3.62
-4.83
-6.29
-7.86
-9.28
-10.24
-10.37
-9.36
-7.09
-3.71
0.38
4.56
8.26
11.02
12.61
12.99
12.23
10.47
7.94
4.93
1.87
-0.77
-2.60
-3.47
-3.44
-2.83
-2.02
-1.33
-0.92
-0.77
-0.77
-0.80
-0.85
-1.00
-1.41
-2.21
-3.46
-5.07
-6.90
-8.72
-10.26
-11.21
-11.25
-10.09
-7.65
-4.07
0.22
4.61
8.49
11.37
13.05
13.55
13.08
11.89
10.24
8.29
6.19
4.12
2.29
0.87
0.01
-0.30
-0.21
0.07
0.30
0.34
0.17
-0.12
-0.42
-0.68
-0.92
-1.20
-1.62
-2.21
-2.99
-3.94
-5.02
-6.07
-6.81
-6.87
-5.88
-3.69
-0.46
3.31
6.93
9.76
11.43
11.93
11.47
10.37
8.87
7.08
5.08
3.01
1.09
-0.44
-1.38
-1.72
-1.57
-1.18
-0.79
-0.59
-0.66
-1.00
-1.53
-2.18
-2.86
-3.54
-4.22
-4.95
-5.80
-6.81
-7.98
-9.27
-10.50
-11.41
-11.61
-10.78
-8.72
-5.53
-1.60
2.51
6.20
9.04
10.85
11.61
11.41
10.32
8.44
5.92
3.05
0.25
-2.02
-3.42
-3.87
-3.48
-2.59
-1.56
-0.73
-0.27
-0.21
-0.47
-0.89
-1.34
-1.74
-2.11
-2.60
-3.34
-4.45
-5.94
-7.62
-9.16
-10.15
-10.17
-8.97
-6.54
-3.15
0.72
4.53
7.81
10.26
11.81
12.45
12.24
11.24
9.52
7.27
4.77
2.41
0.50
-0.76
-1.34
-1.40
-1.12
-0.73
-0.39
-0.19
-0.16
-0.26
-0.43
-0.63
-0.86
-1.21
-1.81
-2.76
-4.11
-5.74
-7.39
-8.68
-9.19
-8.58
-6.75
-3.85
-0.33
3.23
6.26
8.42
9.59
9.88
9.48
8.54
7.18
5.44
3.48
1.49
-0.23
-1.41
-1.91
-1.78
-1.25
-0.64
-0.25
-0.27
-0.70
-1.41
-2.19
-2.88
-3.42
-3.88
-4.40
-5.09
-6.04
-7.21
-8.52
-9.75
-10.62
-10.78
-9.90
-7.81
-4.59
-0.62
3.51
7.16
9.83
11.28
11.56
10.90
9.63
8.06
6.49
5.24
4.66
4.99
6.29
8.34
10.59
12.37
13.04
12.25
10.07
6.89
3.31
-0.07
-2.85
-4.85
-6.15
-6.94
-7.48
-7.99
-8.62
-9.43
-10.34
-11.12
-11.46
-10.96
-9.38
-6.71
-3.22
0.55
4.01
6.72
8.46
9.30
9.42
8.97
8.00
6.52
4.53
2.18
-0.22
-2.31
-3.76
-4.37
-4.15
-3.28
-2.04
-0.74
0.34
1.00
1.13
0.69
-0.24
-1.52
-2.96
-4.35
-5.59
-6.66
-7.63
-8.63
-9.70
-10.71
-11.41
-11.45
-10.57
-8.69
-5.96
-2.69
0.80
4.24
7.45
10.26
12.43
13.65
13.62
12.25
9.74
6.59
3.47
0.99
-0.44
-0.73
-0.03
1.38
3.17
5.06
6.79
8.17
9.05
9.31
8.90
7.78
6.01
3.70
1.03
-1.80
-4.60
-7.27
-9.66
-11.59
-12.75
-12.75
-11.29
-8.36
-4.33
0.16
4.37
7.75
10.05
11.26
11.45
10.60
8.65
5.67
1.96
-1.84
-5.00
-6.98
-7.61
-7.20
-6.26
-5.29
-4.53
-3.93
-3.35
-2.72
-2.13
-1.78
-1.85
-2.36
-3.16
-4.04
-4.80
-5.36
-5.75
-6.00
-6.05
-5.73
-4.74
-2.85
0.02
3.69
7.75
11.62
14.75
16.79
17.67
17.58
16.87
15.85
14.69
13.38
11.82
9.93
7.78
5.56
3.55
1.89
0.56
-0.71
-2.24
-4.21
-6.57
-8.97
-10.90
-11.99
-12.15
-11.60
-10.76
-10.04
-9.64
-9.58
-9.76
-10.12
-10.67
-11.40
-12.17
-12.69
-12.54
-11.34
-9.04
-5.87
-2.37
0.87
3.43
5.14
6.05
6.33
6.14
5.55
4.60
3.33
1.84
0.33
-1.02
-2.07
-2.82
-3.34
-3.79
-4.30
-4.90
-5.58
-6.28
-6.92
-7.44
-7.77
-7.89
-7.83
-7.65
-7.49
-7.48
-7.73
-8.22
-8.84
-9.34
-9.41
-8.80
-7.34
-5.01
-1.96
1.53
5.10
8.37
11.01
12.77
13.54
13.30
12.22
10.58
8.72
6.96
5.48
4.34
3.47
2.70
1.87
0.97
0.06
-0.75
-1.44
-2.03
-2.58
-3.13
-3.82
-4.81
-6.02
-7.34
-8.59
-9.74
-10.81
-11.85
-12.82
-13.55
-13.81
-12.85
-10.00
-5.05
1.54
8.70
15.23
20.26
23.47
25.04
26.17
28.13
31.74
37.15
44.09
52.28
61.63
71.77
79.06
79.39
69.39
49.01
21.71
-7.38
-33.59
-53.95
-67.41
-76.00
-80.27
-79.97
-74.76
-65.09
-52.53
-39.53
-28.63
-20.64
-16.82
-16.49
-17.78
-18.71
-18.25
-16.59
-14.62
-13.34
-13.05
-13.79
-14.69
-14.96
-14.21
-12.55
-10.43
-8.32
-6.64
-5.48
-4.87
-4.29
-3.36
-1.96
-0.29
1.31
2.55
3.29
3.61
3.52
3.20
2.71
2.00
1.02
-0.22
-1.51
-2.52
-2.78
-1.94
0.25
3.78
8.31
13.23
17.87
21.61
24.12
25.41
25.68
25.26
24.37
23.07
21.33
19.12
16.62
14.15
12.15
10.94
10.60
10.95
11.64
12.33
12.81
13.04
13.10
13.07
12.97
12.72
12.22
11.41
10.26
8.76
6.86
4.54
1.87
-0.91
-3.40
-5.13
-5.75
-5.21
-3.78
-1.91
-0.06
1.47
2.61
3.47
4.14
4.65
4.97
5.03
4.83
4.48
4.07
3.70
3.40
3.13
2.86
2.57
2.27
1.93
1.49
0.92
0.17
-0.76
-1.83
-3.06
-4.47
-6.15
-8.09
-10.26
-12.52
-14.67
-16.49
-17.70
-17.99
-17.08
-14.75
-11.03
-6.20
-0.80
4.53
9.20
12.85
15.31
16.60
16.79
15.94
14.12
11.52
8.46
5.41
2.83
1.02
0.00
-0.44
-0.70
-1.10
-1.81
-2.78
-3.81
-4.68
-5.27
-5.58
-5.74
-5.90
-6.18
-6.66
-7.33
-8.16
-9.07
-9.91
-10.45
-10.39
-9.41
-7.26
-3.91
0.34
4.95
9.24
12.64
14.83
15.83
15.87
15.19
13.93
12.11
9.72
6.85
3.79
0.96
-1.26
-2.66
-3.28
-3.38
-3.29
-3.25
-3.36
-3.59
-3.86
-4.15
-4.49
-4.93
-5.47
-6.11
-6.83
-7.67
-8.71
-9.97
-11.32
-12.41
-12.72
-11.79
-9.38
-5.64
-1.05
3.74
8.07
11.48
13.73
14.74
14.59
13.42
11.45
8.99
6.38
3.98
2.04
0.74
0.12
0.06
0.35
0.74
1.01
1.05
0.85
0.47
0.02
-0.45
-0.92
-1.43
-2.03
-2.82
-3.90
-5.39
-7.27
-9.36
-11.19
-12.16
-11.69
-9.51
-5.80
-1.19
3.51
7.53
10.43
12.14
12.83
12.73
12.00
10.68
8.78
6.41
3.83
1.41
-0.49
-1.63
-2.01
-1.83
-1.40
-1.05
-0.98
-1.21
-1.66
-2.18
-2.67
-3.16
-3.74
-4.50
-5.47
-6.61
-7.86
-9.17
-10.53
-11.85
-12.88
-13.16
-12.19
-9.64
-5.59
-0.58
4.56
9.01
12.19
13.93
14.38
13.83
12.59
10.85
8.79
6.57
4.40
2.52
1.12
0.26
-0.11
-0.18
-0.19
-0.35
-0.75
-1.38
-2.11
-2.81
-3.37
-3.78
-4.13
-4.53
-5.11
-5.93
-7.03
-8.36
-9.82
-11.17
-12.08
-12.17
-11.09
-8.68
-5.03
-0.53
4.24
8.62
12.11
14.42
15.50
15.48
14.55
12.86
10.62
8.03
5.41
3.12
1.48
0.61
0.44
0.67
0.95
0.99
0.64
-0.11
-1.19
-2.47
-3.74
-4.78
-5.31
-5.14
-4.28
-2.97
-1.67
-0.93
-1.18
-2.54
-4.80
-7.41
-9.65
-10.84
-10.51
-8.56
-5.26
-1.21
2.90
6.44
9.02
10.51
11.00
10.69
9.79
8.51
6.99
5.41
3.91
2.62
1.66
1.08
0.85
0.87
0.97
0.95
0.67
0.09
-0.75
-1.70
-2.60
-3.33
-3.87
-4.28
-4.65
-5.06
-5.54
-6.08
-6.67
-7.35
-8.13
-9.00
-9.78
-10.09
-9.45
-7.47
-4.08
0.35
5.03
9.08
11.81
13.00
12.85
11.83
10.40
8.82
7.17
5.45
3.74
2.24
1.12
0.51
0.31
0.36
0.48
0.57
0.65
0.78
0.99
1.19
1.26
1.05
0.53
-0.27
-1.20
-2.13
-2.93
-3.51
-3.89
-4.11
-4.33
-4.70
-5.33
-6.18
-6.98
-7.32
-6.73
-4.93
-2.00
1.61
5.22
8.16
10.04
10.79
10.65
9.94
8.88
7.57
6.03
4.27
2.42
0.61
-1.01
-2.39
-3.55
-4.51
-5.26
-5.73
-5.85
-5.58
-4.97
-4.17
-3.33
-2.59
-2.05
-1.75
-1.69
-1.83
-2.14
-2.55
-3.03
-3.57
-4.21
-5.00
-5.92
-6.82
-7.40
-7.26
-6.10
-3.87
-0.82
2.54
5.64
8.07
9.64
10.38
10.44
9.94
8.96
7.53
5.78
3.94
2.25
0.93
0.07
-0.38
-0.56
-0.58
-0.50
-0.33
-0.08
0.20
0.43
0.46
0.20
-0.41
-1.33
-2.43
-3.58
-4.66
-5.63
-6.50
-7.35
-8.14
-8.75
-8.93
-8.37
-6.90
-4.55
-1.58
1.62
4.60
7.04
8.75
9.63
9.71
9.02
7.67
5.82
3.68
1.52
-0.43
-2.00
-3.11
-3.78
-4.15
-4.45
-4.93
-5.81
-7.16
-8.85
-10.59
-12.01
-12.82
-12.92
-12.40
-11.51
-10.56
-9.81
-9.43
-9.49
-9.97
-10.75
-11.58
-12.13
-12.02
-10.97
-8.90
-5.93
-2.39
1.28
4.69
7.54
9.63
10.88
11.30
10.97
10.04
8.72
7.26
5.94
4.97
4.52
4.62
5.16
5.98
6.83
7.51
7.91
7.97
7.74
7.26
6.58
5.74
4.72
3.48
2.01
0.37
-1.35
-3.01
-4.54
-5.93
-7.19
-8.30
-9.10
-9.35
-8.78
-7.24
-4.85
-1.97
0.90
3.29
4.95
5.82
6.00
5.68
4.98
4.05
3.00
1.93
0.96
0.20
-0.32
-0.61
-0.73
-0.75
-0.78
-0.85
-0.97
-1.11
-1.18
-1.09
-0.75
-0.17
0.53
1.13
1.34
0.89
-0.43
-2.65
-5.56
-8.74
-11.58
-13.35
-13.49
-11.77
-8.40
-4.00
0.59
4.60
7.55
9.33
10.11
10.16
9.73
8.96
7.93
6.70
5.41
4.25
3.42
3.07
3.25
3.86
4.73
5.61
6.29
6.66
6.75
6.70
6.73
6.97
7.39
7.79
7.86
7.30
5.93
3.76
0.98
-2.11
-5.12
-7.65
-9.33
-9.86
-9.06
-6.92
-3.64
0.36
4.53
8.30
11.22
13.10
13.97
14.06
13.66
13.06
12.52
12.31
12.71
13.93
16.02
18.70
21.30
22.90
22.63
20.04
15.33
9.24
2.82
-3.06
-8.03
-12.26
-16.22
-20.39
-24.92
-29.58
-33.92
-37.51
-40.12
-41.74
-42.48
-42.38
-41.38
-39.41
-36.52
-33.00
-29.35
-26.17
-23.92
-22.78
-22.61
-23.03
-23.64
-24.08
-24.17
-23.83
-23.01
-21.66
-19.72
-17.18
-14.17
-10.86
-7.53
-4.36
-1.46
1.18
3.62
5.92
8.08
10.09
11.90
13.48
14.79
15.85
16.72
17.55
18.52
19.88
21.78
24.24
27.05
29.81
32.09
33.51
33.91
33.32
31.96
30.03
27.73
25.16
22.42
19.64
17.01
14.75
13.00
11.71
10.67
9.63
8.36
6.76
4.89
2.91
1.01
-0.67
-2.03
-3.04
-3.71
-4.13
-4.45
-4.85
-5.50
-6.44
-7.61
-8.73
-9.39
-9.19
-7.81
-5.19
-1.54
2.71
6.99
10.71
13.45
14.98
15.26
14.35
12.40
9.65
6.41
3.08
0.05
-2.40
-4.13
-5.20
-5.82
-6.23
-6.56
-6.78
-6.74
-6.25
-5.21
-3.68
-1.89
-0.16
1.00
1.19
0.38
-1.11
-2.83
-4.34
-5.27
-5.28
-4.13
-1.88
1.10
4.13
6.48
7.59
7.35
6.02
4.05
1.86
-0.27
-2.20
-3.83
-5.10
-6.12
-7.18
-8.60
-10.49
-12.56
-14.23
-14.89
-14.29
-12.77
-11.17
-10.51
-11.39
-13.74
-16.78
-19.40
-20.61
-19.87
-17.27
-13.43
-9.15
-5.13
-1.76
0.92
3.16
5.22
7.48
10.53
15.13
21.84
30.44
39.35
46.27
48.78
45.57
37.24
26.05
14.95
6.21
0.62
-2.44
-4.22
-5.65
-6.92
-7.66
-7.55
-6.68
-5.68
-5.27
-5.86
-7.28
-8.99
-10.26
-10.64
-10.10
-8.96
-7.80
-7.08
-7.03
-7.55
-8.32
-9.01
-9.42
-9.50
-9.27
-8.77
-7.94
-6.76
-5.26
-3.63
-2.16
-1.19
-0.93
-1.37
-2.36
-3.59
-4.78
-5.68
-6.15
-6.03
-5.27
-3.92
-2.13
-0.20
1.61
3.03
3.97
4.46
4.59
4.46
4.13
3.63
3.01
2.30
1.54
0.69
-0.24
-1.28
-2.31
-3.20
-3.74
-3.84
-3.50
-2.82
-1.88
-0.67
0.87
2.81
5.07
7.39
9.37
10.64
11.00
10.47
9.17
7.26
4.85
1.96
-1.37
-4.90
-8.21
-10.80
-12.26
-12.45
-11.62
-10.27
-9.00
-8.27
-8.29
-8.95
-9.99
-11.07
-11.96
-12.57
-12.85
-12.86
-12.64
-12.20
-11.57
-10.74
-9.73
-8.58
-7.48
-6.46
-5.39
-3.96
-1.76
1.58
6.24
12.11
18.75
25.45
31.43
35.95
38.41
38.50
36.22
31.93
26.28
20.03
13.94
8.59
4.27
1.01
-1.41
-3.30
-5.01
-6.82
-8.92
-11.39
-14.14
-17.05
-19.93
-22.63
-25.02
-26.96
-28.33
-29.03
-29.03
-28.43
-27.46
-26.46
-25.71
-25.37
-25.38
-25.42
-24.95
-23.37
-20.15
-15.03
-8.18
-0.21
7.96
15.31
20.99
24.53
25.95
25.72
24.54
23.18
22.25
22.04
22.56
23.52
24.59
25.47
26.03
26.27
26.28
26.11
25.76
25.17
24.25
22.87
20.92
18.26
14.79
10.52
5.62
0.47
-4.38
-8.42
-11.27
-12.81
-13.11
-12.39
-10.89
-8.77
-6.17
-3.24
-0.25
2.48
4.54
5.66
5.81
5.23
4.39
3.79
3.74
4.19
4.79
5.05
4.51
3.04
0.77
-1.99
-4.91
-7.80
-10.67
-13.61
-16.67
-19.78
-22.75
-25.29
-27.19
-28.34
-28.73
-28.45
-27.65
-26.52
-25.23
-23.92
-22.64
-21.26
-19.38
-16.36
-11.46
-4.10
5.81
17.68
30.19
41.63
50.31
55.13
55.85
53.18
48.48
43.23
38.67
35.48
33.73
33.04
32.73
32.01
30.19
26.81
21.84
15.60
8.79
2.18
-3.58
-8.16
-11.51
-13.76
-15.09
-15.67
-15.69
-15.46
-15.35
-15.72
-16.70
-18.07
-19.33
-19.88
-19.30
-17.51
-14.83
-11.78
-8.88
-6.41
-4.37
-2.59
-0.86
0.87
2.44
3.55
3.86
3.20
1.63
-0.54
-2.89
-5.05
-6.84
-8.31
-9.67
-11.13
-12.81
-14.59
-16.20
-17.30
-17.62
-17.11
-15.96
-14.52
-13.16
-12.14
-11.46
-10.94
-10.22
-8.91
-6.66
-3.19
1.65
7.71
14.50
21.13
26.48
29.60
30.11
28.50
25.90
23.66
22.72
23.27
24.72
26.15
26.71
26.03
24.13
21.33
17.96
14.35
10.82
7.76
5.57
4.49
4.42
4.92
5.33
4.93
3.21
-0.07
-4.78
-10.45
-16.31
-21.48
-25.14
-26.86
-26.72
-25.30
-23.44
-21.90
-21.16
-21.35
-22.34
-23.92
-25.83
-27.70
-29.05
-29.29
-27.94
-24.80
-20.18
-14.75
-9.39
-4.79
-1.31
1.09
2.65
3.63
4.19
4.30
3.89
2.90
1.39
-0.49
-2.50
-4.42
-6.09
-7.41
-8.36
-8.92
-9.11
-8.90
-8.27
-7.15
-5.47
-3.11
0.04
4.18
9.43
15.78
22.84
29.90
36.00
40.27
42.27
42.16
40.66
38.70
37.04
36.04
35.65
35.62
35.69
35.79
35.92
36.15
36.49
36.95
37.54
38.25
38.97
39.39
39.04
37.40
34.05
28.79
21.69
12.96
2.92
-8.02
-19.29
-30.09
-39.44
-46.44
-50.44
-51.38
-49.74
-46.42
-42.47
-38.79
-35.93
-34.12
-33.34
-33.48
-34.42
-36.09
-38.39
-41.16
-44.18
-47.18
-49.84
-51.90
-53.08
-53.14
-51.94
-49.52
-46.07
-42.00
-37.80
-33.87
-30.46
-27.61
-25.21
-23.20
-21.58
-20.43
-19.80
-19.62
-19.68
-19.70
-19.46
-18.88
-17.94
-16.64
-14.80
-12.15
-8.40
-3.40
2.79
9.89
17.49
25.18
32.61
39.47
45.55
50.66
54.72
57.73
59.82
61.14
61.86
61.97
61.27
59.27
55.30
48.75
39.37
27.47
14.08
0.71
-10.93
-19.41
-23.84
-24.03
-20.42
-13.94
-5.78
2.80
10.66
16.93
21.18
23.41
23.97
23.37
22.11
20.62
19.21
18.21
17.99
18.87
21.02
24.25
27.97
31.34
33.56
34.17
33.27
31.48
29.71
28.87
29.53
31.74
34.93
37.98
39.45
37.87
32.24
22.37
9.16
-5.57
-19.47
-30.30
-36.48
-37.37
-33.25
-25.07
-14.10
-1.69
10.87
22.41
31.96
38.91
43.02
44.48
43.77
41.44
37.97
33.69
28.87
23.71
18.42
13.23
8.37
4.18
1.07
-0.51
-0.30
1.60
4.49
7.19
8.39
7.10
3.04
-3.28
-10.84
-18.50
-25.40
-31.21
-36.06
-40.44
-44.95
-50.06
-55.95
-62.46
-69.09
-75.15
-79.92
-82.84
-83.63
-82.42
-79.62
-75.85
-71.72
-67.69
-63.95
-60.51
-57.18
-53.78
-50.20
-46.41
-42.47
-38.47
-34.51
-30.67
-27.01
-23.51
-20.17
-16.91
-13.70
-10.56
-7.51
-4.62
-1.96
0.43
2.58
4.54
6.32
7.86
9.03
9.73
9.89
9.49
8.51
7.06
5.30
3.31
1.22
-0.69
-1.95
-2.01
-0.56
2.12
5.29
7.80
8.42
6.33
1.68
-4.38
-10.15
-13.98
-14.85
-12.29
-6.44
2.07
12.34
23.44
34.56
45.01
54.65
62.28
67.12
69.88
72.18
74.86
76.92
75.92
69.12
55.09
34.56
10.62
-12.53
-31.43
-44.50
-52.29
-56.59
-59.39
-61.75
-63.52
-63.58
-60.87
-55.19
-47.39
-38.82
-30.56
-23.18
-16.54
-10.05
-2.81
5.99
16.77
29.34
42.78
55.91
66.91
74.21
76.93
75.12
69.60
61.51
51.82
40.74
29.45
18.74
9.46
2.42
-1.94
-3.87
-4.26
-4.24
-4.71
-5.92
-7.78
-9.79
-11.43
-12.44
-12.85
-12.92
-12.98
-13.30
-13.87
-14.62
-15.29
-15.63
-15.44
-14.74
-13.72
-12.69
-11.94
-11.61
-11.75
-12.05
-12.12
-11.57
-10.11
-7.69
-4.48
-0.86
2.70
5.71
7.84
8.97
9.20
8.77
7.97
7.03
6.08
5.22
4.46
3.83
3.32
2.93
2.61
2.33
2.08
1.87
1.74
1.71
1.72
1.70
1.53
1.16
0.60
-0.10
-0.89
-1.76
-2.74
-3.86
-5.08
-6.28
-7.33
-8.11
-8.57
-8.79
-8.94
-9.26
-10.01
-11.27
-12.95
-14.69
-15.92
-16.04
-14.65
-11.63
-7.22
-2.06
3.05
7.40
10.56
12.45
13.25
13.30
12.91
12.30
11.56
10.77
10.05
9.55
9.45
9.83
10.66
11.75
12.83
13.52
13.45
12.21
9.53
5.37
0.08
-5.60
-10.80
-14.80
-17.34
-18.73
-19.63
-20.71
-22.31
-24.38
-26.59
-28.65
-30.42
-31.96
-33.35
-34.61
-35.68
-36.33
-36.30
-35.31
-33.06
-29.31
-23.89
-16.88
-8.72
-0.16
8.03
15.19
20.91
25.09
27.87
29.71
31.13
32.57
34.34
36.91
40.51
45.04
49.94
54.24
57.22
58.46
57.88
55.92
53.65
52.19
52.05
52.99
53.98
54.35
53.62
51.58
48.31
44.58
41.23
38.78
37.38
36.70
36.90
37.97
39.47
37.45
29.41
15.70
-0.47
-13.37
-22.44
-28.40
-32.17
-34.68
-36.16
-36.35
-34.98
-32.30
-29.06
-26.43
-24.84
-24.32
-24.89
-26.51
-29.02
-31.46
-32.73
-31.91
-28.88
-23.74
-16.98
-10.45
-4.52
0.68
5.01
8.22
10.07
10.53
9.81
8.24
6.10
3.53
0.45
-3.36
-8.12
-13.95
-21.23
-29.97
-39.71
-49.38
-57.46
-62.44
-63.38
-60.06
-52.99
-43.51
-32.87
-21.99
-11.43
-1.84
5.84
10.31
10.59
8.00
4.02
0.47
-3.57
-8.16
-13.46
-18.01
-21.18
-22.68
-22.42
-21.13
-19.65
-16.30
-10.41
-2.61
5.69
12.88
17.02
18.32
16.91
12.93
6.58
-1.39
-10.22
-18.89
-26.54
-32.35
-35.63
-36.26
-34.29
-29.78
-23.04
-14.61
-5.18
4.42
13.39
21.20
27.33
31.65
34.36
35.69
35.81
34.93
33.32
31.41
29.68
28.30
27.21
26.18
24.72
22.21
18.33
13.30
7.97
3.40
0.42
-0.60
0.38
2.73
5.47
7.81
9.51
10.94
12.56
14.71
16.52
17.31
16.55
13.98
9.70
4.23
-1.08
-4.66
-5.78
-4.16
0.08
5.64
10.70
13.95
15.00
14.94
15.02
