1660325352.00
64.000000
-0.00
-0.00
-0.00
-0.00
-0.00
-0.00
-0.00
-0.00
-0.00
-0.00
0.00
0.01
0.01
-0.00
-0.03
-0.05
-0.05
0.00
0.13
0.36
0.66
1.01
1.37
1.72
2.06
2.40
2.79
3.24
3.80
4.42
5.06
5.66
6.20
6.68
7.15
7.68
8.31
9.14
10.09
11.04
11.88
12.56
13.14
13.76
14.65
15.96
17.91
20.32
22.90
25.38
27.58
29.57
31.68
34.32
37.81
42.54
48.15
54.10
59.83
64.97
69.58
74.14
79.34
85.71
93.76
103.00
112.62
121.73
129.77
136.75
143.30
150.75
157.77
166.64
177.95
191.79
206.97
220.57
228.25
225.36
208.53
176.87
132.76
80.05
23.07
-34.94
-92.44
-149.16
-205.23
-260.37
-313.74
-363.87
-409.83
-450.91
-486.50
-515.74
-537.23
-549.22
-549.96
-538.37
-514.21
-478.67
-433.88
-382.45
-327.02
-269.84
-212.63
-156.66
-102.95
-52.37
-5.90
35.58
71.43
101.35
125.50
144.38
158.69
169.15
176.37
180.75
182.57
182.07
179.51
175.23
169.65
163.18
156.15
148.81
141.30
133.69
126.02
118.33
110.69
103.16
95.80
88.68
81.83
75.25
68.95
62.95
57.25
51.86
46.78
42.03
37.59
33.45
29.61
26.07
22.81
19.83
17.11
14.67
12.48
10.54
8.83
7.35
6.07
4.97
4.05
3.27
2.62
2.09
1.65
1.30
1.01
0.79
0.61
0.48
0.37
0.29
0.23
0.19
0.18
0.18
0.20
0.23
0.23
0.20
0.15
0.08
0.02
-0.01
0.00
0.05
0.12
0.17
0.17
0.14
0.09
0.04
0.04
0.11
0.22
0.34
0.41
0.38
0.26
0.10
-0.02
-0.01
0.17
0.48
0.81
1.01
0.97
0.68
0.28
-0.05
-0.09
0.25
0.91
1.61
2.05
1.99
1.40
0.53
-0.22
-0.45
0.06
1.14
2.36
3.15
3.12
2.22
0.84
-0.39
-0.89
-0.40
0.88
2.34
3.29
3.08
1.23
-2.54
-8.21
-15.12
-21.82
-26.28
-26.63
-21.96
-12.99
-2.04
7.89
14.34
16.39
14.75
11.13
7.25
4.04
1.55
-0.68
-2.97
-5.16
-6.66
-6.76
-5.17
-2.02
2.02
6.06
9.30
11.30
12.08
11.96
11.28
10.22
8.69
6.48
3.58
0.24
-2.94
-5.28
-6.29
-5.97
-4.78
-3.41
-2.51
-2.36
-2.85
-3.62
-4.25
-4.52
-4.42
-4.12
-3.87
-3.90
-4.33
-5.19
-6.30
-7.24
-7.38
-6.02
-2.76
2.30
8.53
15.00
20.75
25.09
27.73
28.75
28.40
26.98
24.77
21.59
17.76
13.77
10.10
7.03
4.63
2.72
1.02
-0.74
-2.77
-5.06
-7.61
-10.36
-13.28
-16.31
-19.46
-22.70
-26.13
-29.91
-34.12
-38.59
-42.78
-45.67
-45.98
-42.66
-35.35
-24.60
-11.80
1.36
13.34
23.12
30.29
34.83
36.90
36.64
34.22
29.98
24.57
18.87
13.83
10.15
8.11
7.46
7.53
7.54
6.87
5.27
2.90
0.19
-2.41
-4.65
-6.56
-8.44
-10.69
-13.65
-17.41
-21.59
-25.37
-27.68
-27.43
-23.97
-17.35
-8.34
1.80
11.67
20.18
26.63
30.73
32.42
31.75
28.88
24.26
18.66
13.10
8.55
5.61
4.34
4.25
4.64
4.88
4.66
3.95
2.92
1.71
0.31
-1.32
-3.28
-5.62
-8.34
-11.48
-15.13
-19.30
-23.76
-27.90
-30.73
-31.14
-28.29
-22.02
-12.95
-2.30
8.42
17.89
25.20
29.95
32.05
31.71
29.34
25.51
20.96
16.50
12.76
10.08
8.43
7.49
6.78
5.86
4.41
2.32
-0.29
-3.14
-5.86
-8.21
-10.14
-11.90
-13.91
-16.56
-20.07
-24.19
-28.25
-31.24
-32.08
-29.99
-24.79
-16.98
-7.59
2.15
11.16
18.70
24.35
27.89
29.18
28.23
25.34
21.13
16.55
12.50
9.65
8.11
7.57
7.44
7.15
6.36
5.02
3.31
1.42
-0.51
-2.49
-4.62
-7.01
-9.71
-12.69
-15.90
-19.30
-22.82
-26.18
-28.85
-30.06
-29.06
-25.37
-19.03
-10.70
-1.41
7.65
15.48
21.40
25.05
26.39
25.60
23.07
19.42
15.37
11.64
8.83
7.19
6.66
6.84
7.16
7.05
6.14
4.28
1.62
-1.53
-4.83
-8.00
-10.90
-13.60
-16.29
-19.23
-22.54
-26.01
-29.01
-30.63
-29.87
-26.10
-19.33
-10.28
-0.22
9.47
17.62
23.53
26.95
27.93
26.72
23.68
19.37
14.51
9.87
6.09
3.42
1.73
0.53
-0.65
-2.16
-4.02
-6.06
-8.07
-9.95
-11.72
-13.54
-15.58
-17.97
-20.83
-24.15
-27.76
-31.23
-33.88
-34.92
-33.59
-29.47
-22.65
-13.78
-3.96
5.50
13.36
18.76
21.31
21.18
18.99
15.62
11.96
8.77
6.48
5.22
4.83
4.99
5.27
5.23
4.57
3.08
0.81
-2.05
-5.20
-8.37
-11.47
-14.61
-17.99
-21.74
-25.70
-29.29
-31.68
-31.92
-29.36
-23.84
-15.79
-6.18
3.82
13.01
20.45
25.56
28.11
28.23
26.36
23.15
19.39
15.85
13.09
11.32
10.40
9.91
9.35
8.33
6.67
4.41
1.72
-1.24
-4.31
-7.43
-10.59
-13.82
-17.23
-20.90
-24.73
-28.29
-30.83
-31.41
-29.19
-23.88
-15.88
-6.22
3.75
12.76
19.92
24.83
27.42
27.86
26.40
23.45
19.59
15.55
12.06
9.57
8.18
7.57
7.22
6.61
5.45
3.79
1.85
-0.06
-1.75
-3.20
-4.61
-6.28
-8.53
-11.55
-15.28
-19.32
-22.96
-25.33
-25.60
-23.22
-18.12
-10.75
-1.97
7.12
15.48
22.27
26.94
29.23
29.17
27.11
23.71
19.83
16.39
14.07
13.04
12.98
13.14
12.67
11.05
8.25
4.79
1.46
-0.93
-1.92
-1.61
-0.80
-0.75
-2.84
-7.88
-15.59
-24.41
-31.76
-34.77
-31.28
-20.68
-4.37
14.65
32.57
45.86
52.07
50.39
41.89
29.17
15.75
4.85
-1.32
-2.21
1.22
7.16
13.88
20.49
26.99
33.71
40.16
45.08
46.93
45.07
40.61
36.47
36.31
42.69
55.66
71.60
85.30
92.09
89.80
79.24
63.49
47.02
34.19
28.90
32.38
44.43
63.35
85.64
105.96
118.11
117.83
103.80
78.99
46.96
12.31
-20.72
-49.85
-75.63
-101.03
-128.47
-159.38
-192.04
-225.87
-259.50
-291.20
-319.70
-344.52
-365.80
-382.42
-393.72
-378.33
-325.08
-239.54
-142.95
-58.48
0.99
28.57
35.32
32.36
29.12
29.33
34.07
46.54
66.50
90.45
112.61
128.66
136.00
135.89
129.29
117.58
102.46
86.54
72.35
61.45
55.85
56.41
63.12
72.86
81.64
86.46
86.27
81.99
75.59
69.61
65.60
64.39
65.18
66.66
67.76
67.76
66.39
63.78
60.41
56.98
54.17
52.17
50.77
49.45
47.21
42.84
35.23
23.76
9.03
-7.53
-24.09
-39.23
-52.21
-63.37
-73.73
-82.43
-90.99
-100.02
-109.70
-119.74
-128.95
-134.69
-133.20
-121.04
-96.94
-63.53
-26.30
7.87
33.55
48.76
55.16
56.36
55.75
54.91
53.44
50.58
46.31
41.78
38.78
38.56
40.89
44.02
45.40
42.48
34.34
21.84
7.50
-5.34
-13.58
-15.40
-10.78
-1.55
9.12
17.88
22.07
20.50
13.64
3.25
-8.53
-19.77
-29.53
-37.78
-44.77
-50.56
-54.75
-56.80
-56.47
-54.34
-51.66
-49.78
-49.31
-49.60
-48.97
-45.65
-38.94
-29.78
-20.59
-14.12
-12.02
-13.87
-17.28
-19.09
-16.66
-9.25
1.75
13.74
24.17
31.71
36.27
38.32
38.07
35.21
29.57
22.08
15.14
11.79
14.25
22.48
34.31
46.54
56.51
62.88
65.31
63.39
56.15
42.43
22.25
-2.05
-25.97
-44.53
-54.28
-54.75
-48.20
-38.19
-27.77
-18.54
-10.56
-3.30
3.48
9.39
13.54
15.18
14.11
10.87
6.46
1.94
-1.94
-4.93
-7.11
-8.93
-11.28
-15.66
-23.93
-37.72
-57.51
-81.87
-107.32
-129.25
-143.36
-147.28
-141.24
-127.61
-109.47
-89.23
-67.85
-45.42
-22.53
-0.25
19.83
36.24
48.42
57.19
64.45
72.07
80.76
89.35
95.02
94.23
84.10
63.55
34.02
-0.60
-34.83
-62.91
-80.30
-84.84
-77.63
-62.81
-46.74
-36.57
-38.59
-56.58
-90.51
-136.04
-185.18
-228.31
-256.93
-266.16
-255.90
-230.10
-194.46
-154.04
-112.07
-70.42
-31.14
2.53
26.55
37.98
37.00
27.68
16.72
10.88
14.27
27.16
46.53
67.90
87.40
102.82
113.63
120.21
123.22
123.36
121.71
120.03
120.57
125.12
133.77
143.90
150.62
148.45
133.93
107.64
74.59
42.79
20.37
12.81
21.27
42.69
71.28
100.56
125.04
141.07
147.04
143.01
130.36
111.33
88.72
65.40
44.00
26.38
13.38
4.62
-1.39
-6.82
-13.89
-24.30
-38.98
-58.06
-81.08
-106.98
-134.03
-159.58
-180.13
-191.90
-191.74
-178.18
-152.06
-116.57
-76.83
-38.91
-8.67
9.54
14.04
6.54
-8.04
-22.87
-31.33
-29.22
-16.14
4.65
27.79
47.94
61.50
67.26
65.87
58.94
48.11
34.61
19.37
3.17
-13.19
-28.99
-43.56
-56.33
-66.65
-73.63
-76.12
-73.04
-63.85
-48.93
-29.77
-8.49
12.88
33.26
52.92
73.10
94.88
117.93
139.60
155.23
159.62
149.13
123.50
86.45
44.70
5.99
-23.25
-39.52
-42.69
-35.34
-21.52
-5.41
9.47
20.58
26.31
25.84
19.05
6.59
-10.14
-28.92
-46.92
-61.01
-68.33
-66.94
-56.26
-37.36
-12.55
15.22
43.20
69.42
92.88
113.37
131.00
145.94
158.21
167.85
175.00
179.85
182.41
182.18
177.85
167.63
149.93
124.38
92.54
58.01
25.70
0.53
-13.96
-16.60
-8.77
6.23
24.21
41.24
54.42
62.10
63.80
59.89
51.38
39.66
26.40
13.28
1.83
-6.74
-11.66
-12.59
-9.46
-2.27
8.99
24.33
43.40
65.03
86.96
105.95
118.68
122.93
118.77
108.77
97.02
87.17
80.56
75.32
67.36
52.35
28.03
-4.55
-41.27
-76.55
-105.28
-124.32
-132.93
-132.38
-125.08
-113.84
-101.22
-89.38
-80.01
-74.32
-72.86
-75.35
-80.52
-86.14
-89.51
-88.11
-80.46
-66.60
-48.00
-27.16
-6.82
10.50
22.85
28.90
28.25
21.77
11.91
2.47
-2.26
0.85
12.28
29.08
45.59
55.46
54.29
41.40
20.21
-3.15
-22.06
-31.65
-30.07
-18.66
-1.20
17.29
31.76
38.23
34.60
21.24
0.94
-21.68
-41.36
-53.70
-56.48
-50.06
-36.96
-20.80
-5.08
7.66
16.07
19.68
18.54
12.86
3.16
-9.47
-23.16
-35.37
-43.51
-45.66
-41.24
-31.37
-18.62
-6.53
1.26
1.82
-6.17
-21.83
-42.05
-62.12
-76.97
-82.72
-77.98
-64.29
-45.64
-27.04
-12.92
-5.84
-5.97
-11.52
-19.60
-27.28
-32.40
-34.07
-32.58
-29.19
-25.52
-22.98
-22.30
-23.28
-25.00
-26.23
-25.95
-23.63
-19.37
-13.51
-6.29
2.40
13.19
26.84
43.89
64.08
85.90
106.38
121.48
127.09
120.44
101.44
73.11
40.92
11.02
-11.68
-24.84
-28.95
-26.63
-21.40
-16.57
-14.41
-15.82
-20.25
-26.04
-31.16
-34.03
-34.36
-33.23
-32.56
-34.01
-38.12
-44.05
-50.24
-55.26
-58.46
-60.00
-60.44
-60.21
-59.48
-58.15
-56.07
-52.99
-48.47
-41.87
-32.64
-20.90
-7.99
3.45
10.06
8.91
-1.21
-19.02
-40.84
-61.52
-75.99
-80.86
-75.42
-61.89
-44.64
-28.72
-18.26
-15.19
-18.92
-26.87
-35.70
-42.44
-45.22
-43.50
-37.62
-28.41
-16.84
-3.96
9.07
20.93
30.34
36.35
38.52
37.18
33.23
28.08
23.27
20.28
20.28
23.94
31.15
40.79
50.70
58.06
60.24
55.91
45.89
33.34
22.80
18.59
22.97
35.17
51.63
67.46
78.48
82.72
80.92
75.71
70.03
65.69
62.79
60.11
56.17
50.32
43.07
35.81
29.82
25.55
22.38
19.04
14.31
7.63
-0.81
-10.30
-19.94
-28.69
-35.17
-37.55
-33.75
-22.32
-3.49
19.93
42.76
58.69
62.44
51.85
28.87
-0.96
-30.42
-53.03
-64.78
-64.83
-54.83
-37.69
-16.40
6.46
28.65
48.01
62.45
70.46
71.68
67.29
59.64
51.41
44.50
39.31
34.78
29.07
20.54
8.65
-5.96
-21.63
-36.38
-48.31
-55.87
-57.98
-54.13
-44.60
-30.85
-15.69
-3.05
2.93
-0.75
-14.62
-36.24
-60.83
-82.84
-97.73
-103.24
-99.53
-88.39
-71.99
-52.10
-29.98
-6.92
15.25
34.09
47.28
53.53
53.23
48.36
41.78
36.14
33.19
33.38
36.11
40.13
43.97
46.24
46.00
43.00
38.12
33.47
31.95
36.25
47.41
63.72
80.44
91.08
89.49
72.25
40.07
-2.23
-47.17
-86.88
-115.22
-129.03
-128.41
-115.97
-95.77
-72.08
-48.53
-27.57
-10.36
3.00
12.95
20.13
25.00
27.82
28.77
27.97
25.55
21.46
15.48
7.21
-3.72
-17.41
-33.49
-51.07
-68.74
-84.74
-97.13
-104.09
-104.31
-97.34
-84.07
-66.94
-49.66
-36.40
-30.60
-33.77
-44.79
-60.10
-74.77
-84.04
-84.77
-76.21
-59.86
-38.63
-15.70
6.31
25.68
41.44
53.08
60.38
63.46
62.95
60.07
56.55
54.15
54.16
56.95
61.86
67.48
72.15
74.51
73.82
70.14
64.34
57.95
53.08
51.96
56.26
66.19
79.71
92.43
98.51
92.41
70.98
34.93
-10.94
-58.87
-100.21
-127.72
-137.23
-128.34
-104.14
-70.09
-32.64
2.32
30.56
50.12
61.27
65.81
66.22
64.75
62.84
60.96
58.78
55.59
50.56
43.10
32.97
20.29
5.46
-10.95
-28.40
-46.43
-64.55
-82.02
-97.59
-109.36
-115.21
-113.47
-103.90
-88.31
-70.48
-55.28
-47.08
-48.23
-58.04
-72.89
-87.28
-95.54
-93.39
-79.21
-54.18
-21.92
12.62
44.33
69.06
84.28
89.29
85.06
73.79
58.51
42.59
29.25
21.03
19.14
23.06
30.52
38.11
42.33
40.73
32.70
19.60
4.45
-8.97
-16.82
-16.25
-6.12
12.23
34.80
55.51
67.66
65.99
48.43
17.07
-22.18
-61.20
-91.69
-107.24
-104.71
-84.74
-51.42
-11.12
29.18
63.54
88.35
102.82
108.45
107.98
104.23
99.20
93.76
87.81
80.70
71.70
60.38
46.81
31.64
15.85
0.39
-14.15
-27.79
-41.10
-54.93
-70.02
-86.55
-103.74
-119.79
-132.20
-138.45
-137.08
-128.51
-115.44
-102.24
-93.51
-92.25
-98.57
-109.43
-119.58
-123.42
-116.91
-98.91
-71.40
-38.82
-6.66
20.00
37.71
45.33
44.02
36.67
27.06
18.78
14.38
14.86
19.64
26.99
34.67
40.75
44.11
44.69
43.28
40.99
38.60
36.15
33.16
29.09
24.05
19.14
16.39
18.06
25.78
39.66
57.92
76.95
92.12
99.21
95.73
82.09
61.73
40.21
23.34
15.20
16.77
25.89
38.46
50.22
58.26
61.62
60.71
56.39
49.17
38.92
25.42
8.96
-9.22
-27.04
-42.27
-53.49
-60.70
-65.31
-69.65
-76.04
-85.93
-99.49
-115.49
-131.43
-143.67
-147.87
-139.92
-117.45
-81.47
-37.27
6.34
39.55
55.09
51.01
31.51
5.18
-18.29
-31.44
-30.96
-17.84
3.85
28.61
51.10
67.24
74.92
74.29
67.48
57.67
47.79
39.45
32.67
26.37
19.51
11.76
3.54
-4.53
-12.38
-20.63
-30.10
-41.00
-52.28
-61.42
-65.05
-59.95
-44.06
-17.38
17.88
57.50
96.00
127.46
146.54
149.51
135.24
105.94
67.48
28.64
-0.79
-12.75
-3.72
23.94
62.69
102.58
134.88
154.87
162.59
161.39
155.46
147.76
139.31
129.84
119.15
107.95
97.84
90.37
85.98
83.35
79.80
72.20
58.32
37.68
11.81
-16.32
-43.35
-66.51
-84.18
-95.95
-102.47
-105.29
-106.96
-110.81
-120.38
-138.31
-164.99
-197.65
-230.50
-256.25
-268.44
-263.61
-242.51
-209.67
-171.71
-135.26
-105.06
-83.32
-69.94
-63.42
-61.84
-63.58
-67.46
-72.54
-77.84
-82.34
-85.25
-86.30
-85.62
-83.57
-80.21
-75.22
-68.03
-58.20
-45.74
-31.06
-14.60
3.61
24.00
47.00
71.95
96.16
114.77
122.02
113.36
87.85
49.32
5.78
-32.91
-58.25
-65.86
-56.62
-35.64
-9.92
14.30
33.17
45.53
51.89
53.28
50.46
43.99
34.69
23.94
13.61
5.51
0.79
-0.39
1.32
5.01
10.02
16.07
23.03
30.70
38.65
46.47
54.12
62.11
71.23
81.76
92.66
101.08
102.99
94.56
73.89
42.23
4.08
-34.10
-65.71
-85.66
-91.51
-83.52
-64.26
-37.91
-9.46
16.13
34.82
44.35
44.61
37.45
25.81
12.60
-0.24
-11.94
-22.46
-31.70
-38.97
-42.97
-42.35
-36.46
-25.94
-12.69
0.77
12.05
19.72
23.65
25.06
26.08
29.27
36.92
50.40
69.40
91.47
112.00
125.23
126.00
111.67
83.43
46.36
7.92
-24.31
-44.88
-51.75
-46.24
-31.93
-13.13
6.31
23.53
36.54
43.93
44.85
39.21
28.08
13.70
-0.93
-12.96
-20.62
-23.77
-23.73
-22.51
-21.87
-22.76
-25.20
-28.61
-32.09
-34.69
-35.48
-33.74
-29.22
-22.72
-16.29
-13.01
-16.16
-27.87
-48.09
-74.07
-100.84
-122.53
-134.09
-132.72
-118.63
-94.85
-66.16
-37.78
-14.07
2.18
9.92
9.68
3.15
-7.12
-18.15
-27.03
-31.45
-30.16
-23.24
-11.95
1.65
15.24
26.86
35.32
40.39
42.79
43.90
45.26
48.29
54.00
62.89
74.82
88.77
102.51
112.59
114.97
106.30
85.39
54.28
18.19
-15.72
-40.45
-51.20
-46.86
-30.20
-6.94
16.00
32.47
38.76
34.39
21.99
6.18
-8.03
-16.73
-18.05
-12.34
-1.63
11.18
23.15
31.82
35.54
33.56
25.88
13.09
-3.76
-23.33
-44.06
-64.24
-82.11
-96.03
-104.66
-107.05
-102.94
-93.00
-79.23
-64.97
-54.38
-51.27
-57.52
-72.00
-90.35
-106.28
-113.56
-108.12
-89.41
-60.26
-25.74
8.49
37.75
59.14
71.69
76.06
74.01
67.84
59.93
52.29
46.35
42.75
41.41
41.76
42.93
44.02
44.32
43.39
41.19
38.12
35.22
34.15
36.96
45.34
59.70
78.38
97.40
111.33
114.80
104.46
80.29
45.97
8.03
-25.99
-49.53
-58.66
-52.80
-34.45
-8.09
21.14
48.65
71.17
86.90
95.29
96.76
92.36
83.57
72.12
59.64
47.33
35.74
24.73
13.73
2.13
-10.39
-23.89
-38.24
-53.38
-69.41
-86.50
-104.67
-123.28
-140.86
-155.13
-163.46
-163.68
-154.92
-138.12
-116.02
-92.59
-71.91
-56.95
-48.78
-46.23
-46.40
-45.65
-40.83
-30.35
-14.62
4.16
22.90
38.60
49.25
54.14
53.67
49.01
41.65
33.19
25.28
19.46
16.94
18.23
22.95
29.78
36.87
42.38
44.93
43.96
39.76
33.52
27.25
23.60
25.29
34.11
49.90
69.84
88.88
101.32
102.94
92.76
73.55
50.77
30.52
17.37
13.16
16.97
26.03
37.05
47.14
54.36
57.72
57.08
52.96
46.21
37.90
28.93
19.91
11.12
2.55
-5.92
-14.46
-23.21
-32.37
-42.24
-53.29
-65.97
-80.40
-96.00
-111.18
-123.32
-129.30
-126.26
-112.65
-89.01
-58.40
-26.02
1.91
19.76
24.21
15.42
-2.96
-24.88
-43.78
-54.61
-55.11
-45.94
-29.94
-10.92
7.46
22.32
31.80
35.05
32.29
24.74
14.48
4.05
-4.14
-8.38
-8.00
-3.49
3.82
12.13
19.80
25.69
29.42
31.53
33.44
37.20
45.07
58.74
78.47
102.54
127.09
146.88
156.49
151.91
131.76
97.86
54.98
9.74
-30.81
-60.78
-76.69
-78.08
-67.32
-48.69
-27.09
-6.73
9.74
21.21
27.77
30.04
28.73
24.48
17.91
9.64
0.24
-9.85
-20.46
-31.45
-42.52
-52.88
-61.41
-67.01
-69.13
-67.96
-64.05
-57.59
-47.90
-33.77
-14.46
8.99
33.09
52.46
61.67
57.32
39.47
11.59
-20.83
-52.08
-77.48
-93.69
-98.47
-90.64
-70.57
-41.11
-7.77
22.11
41.58
46.30
36.10
14.85
-11.27
-36.01
-54.94
-66.12
-69.74
-67.17
-60.15
-50.37
-39.27
-28.13
-18.05
-10.05
-4.96
-3.39
-5.42
-10.26
-16.00
-19.72
-18.32
-9.53
6.93
28.64
50.73
66.97
71.69
61.77
38.12
5.84
-26.95
-51.60
-61.71
-55.26
-35.16
-7.94
18.70
38.60
48.75
49.53
43.61
34.38
24.67
16.34
10.44
7.63
8.27
12.25
18.63
25.50
30.41
31.27
26.98
17.92
5.86
-6.53
-16.27
-20.67
-17.94
-7.61
9.09
29.25
48.72
62.99
68.42
63.16
47.53
23.81
-4.26
-32.20
-55.52
-70.55
-75.33
-70.12
-57.52
-41.67
-26.85
-16.16
-10.69
-9.67
-11.23
-13.53
-15.36
-16.29
-16.27
-15.24
-12.96
-9.16
-3.90
2.24
8.17
12.50
13.93
11.53
5.11
-4.56
-15.48
-24.51
-27.85
-22.03
-5.19
21.72
54.49
86.23
108.98
116.00
103.81
73.36
29.89
-18.40
-62.51
-94.69
-110.22
-108.14
-90.91
-63.41
-31.49
-0.47
25.66
44.71
56.17
60.89
60.43
56.60
50.99
44.65
38.13
31.60
25.03
18.43
11.85
5.34
-1.22
-8.02
-15.01
-21.68
-26.77
-28.47
-24.94
-15.05
0.91
20.83
40.86
56.03
61.35
53.21
30.56
-4.40
-46.55
-88.89
-124.06
-146.02
-151.26
-139.48
-113.53
-78.68
-41.45
-8.24
16.04
28.76
29.90
21.65
7.59
-8.16
-21.86
-30.69
-33.20
-29.48
-21.13
-10.79
-1.40
4.58
5.86
2.82
-2.48
-6.61
-5.68
3.37
21.34
45.72
70.84
89.29
94.52
83.31
57.20
21.98
-14.41
-44.60
-63.83
-70.65
-66.19
-52.91
-33.57
-10.84
12.63
34.05
50.73
60.64
63.05
58.78
49.84
38.69
27.50
17.51
9.01
1.48
-5.96
-14.05
-23.20
-33.32
-43.94
-54.20
-62.91
-68.49
-69.16
-63.37
-50.55
-31.82
-10.34
8.89
20.30
19.47
4.89
-21.01
-52.22
-80.75
-98.94
-101.66
-87.60
-59.24
-21.75
18.70
56.45
87.30
108.71
119.58
119.97
110.98
94.77
74.39
53.37
35.05
21.72
14.15
11.46
11.66
12.39
11.78
8.90
3.96
-1.75
-6.11
-6.34
0.27
15.48
38.84
66.81
92.85
108.82
107.59
85.72
45.35
-5.81
-56.41
-94.69
-111.90
-104.67
-75.47
-31.44
18.16
64.61
101.63
126.21
138.21
139.28
131.87
118.61
102.17
85.16
69.96
58.14
49.93
43.96
37.57
27.80
12.35
-9.65
-37.58
-69.61
-103.23
-135.54
-163.38
-183.59
-193.51
-191.86
-179.55
-159.94
-138.29
-120.34
-110.56
-110.67
-119.12
-131.50
-141.77
-143.92
-133.54
-109.11
-72.52
-28.79
15.18
52.36
77.45
88.01
84.73
70.68
50.16
27.55
6.49
-10.38
-21.41
-25.93
-24.23
-17.63
-8.25
1.35
8.87
12.97
13.71
12.61
12.06
14.43
20.92
30.98
42.28
51.56
55.73
53.11
43.94
30.29
15.56
3.53
-2.30
0.60
13.31
35.08
63.26
93.64
121.31
141.81
152.31
152.22
143.08
127.90
110.19
93.03
78.45
67.17
58.73
51.87
44.93
36.45
25.62
12.47
-2.30
-17.73
-33.12
-48.36
-64.02
-80.99
-99.76
-119.72
-138.58
-152.62
-157.57
-150.07
-129.26
-97.70
-61.18
-27.22
-2.75
8.09
5.17
-7.84
-24.96
-39.91
-47.78
-45.95
-34.26
-14.56
9.84
34.82
56.17
70.27
74.93
69.94
57.17
40.10
22.86
9.11
1.16
-0.54
2.70
8.33
13.34
15.08
11.87
3.26
-9.96
-25.77
-41.07
-51.88
-54.13
-44.70
-22.94
8.51
43.79
75.34
96.09
101.68
91.63
69.18
40.09
10.89
-12.50
-25.96
-27.65
-18.17
-0.34
21.52
42.66
59.04
68.23
69.71
64.49
54.43
41.48
27.22
12.62
-1.75
-15.64
-28.90
-41.38
-52.79
-62.62
-70.10
-74.30
-74.45
-70.27
-62.22
-51.51
-39.72
-28.23
-17.81
-8.51
0.08
8.32
16.14
22.95
27.90
30.31
30.08
27.80
24.59
21.78
20.36
20.67
22.31
24.29
25.53
25.25
23.29
20.11
16.43
12.90
9.78
6.98
4.13
0.84
-3.15
-7.86
-13.08
-18.37
-23.09
-26.41
-27.42
-25.37
-19.74
-10.54
1.50
15.02
28.20
39.29
47.17
51.82
54.20
55.76
57.61
60.21
63.65
68.17
74.30
82.22
90.88
97.46
98.19
89.93
71.82
45.94
16.39
-12.55
-38.11
-59.69
-78.19
-94.78
-109.89
-123.12
-133.71
-141.19
-145.59
-147.16
-146.03
-142.05
-134.76
-123.64
-108.37
-89.15
-67.02
-43.83
-21.99
-3.81
9.31
17.39
21.77
24.41
27.06
30.47
34.39
37.83
39.80
39.81
38.12
35.43
32.55
29.93
27.66
25.61
23.69
21.85
20.04
18.07
15.51
11.86
6.72
0.08
-7.64
-15.75
-23.64
-31.10
-38.26
-45.39
-52.27
-57.93
-60.69
-58.66
-50.65
-36.75
-18.53
1.44
20.41
36.28
48.16
56.17
60.99
63.18
63.01
60.51
55.89
49.81
43.40
37.84
33.77
31.06
28.82
26.03
22.07
17.08
11.83
7.27
4.05
2.15
1.06
-0.05
-1.92
-5.05
-9.58
-15.35
-21.88
-28.34
-33.62
-36.48
-35.89
-31.39
-23.36
-12.96
-1.77
8.72
17.57
24.46
29.55
33.12
35.29
35.89
34.74
31.80
27.42
22.33
17.47
13.69
11.46
10.76
11.06
11.56
11.41
10.06
7.33
3.41
-1.30
-6.34
-11.41
-16.36
-21.17
-25.89
-30.49
-34.84
-38.64
-41.41
-42.45
-41.00
-36.41
-28.50
-17.76
-5.36
7.09
17.95
26.09
31.13
33.38
33.57
32.46
30.57
28.08
25.08
21.68
18.11
14.70
11.73
9.27
7.13
4.89
2.06
-1.66
-6.19
-11.00
-15.25
-18.18
-19.43
-19.22
-18.30
-17.65
-18.02
-19.70
-22.44
-25.62
-28.38
-29.86
-29.25
-25.95
-19.68
-10.70
0.15
11.65
22.47
31.51
38.14
42.22
43.97
43.77
42.04
39.18
35.62
31.84
28.28
25.26
22.97
21.39
20.33
19.49
18.42
16.62
13.67
9.39
3.86
-2.58
-9.49
-16.49
-23.39
-30.15
-36.77
-43.24
-49.40
-55.00
-59.71
-63.06
-64.49
-63.38
-59.29
-52.10
-42.28
-30.75
-18.74
-7.40
2.41
10.23
15.87
19.28
20.50
19.66
17.11
13.54
9.80
6.77
5.01
4.58
5.03
5.60
5.57
4.50
2.34
-0.66
-4.15
-7.85
-11.58
-15.29
-18.96
-22.56
-26.09
-29.53
-32.90
-36.09
-38.82
-40.61
-40.75
-38.51
-33.38
-25.26
-14.63
-2.53
9.70
20.68
29.28
34.85
37.15
36.38
33.03
27.88
21.91
16.15
11.48
8.33
6.59
5.66
4.72
3.08
0.50
-2.79
-6.20
-9.12
-11.19
-12.51
-13.57
-15.07
-17.68
-21.76
-27.19
-33.37
-39.35
-44.00
-46.32
-45.59
-41.56
-34.44
-24.84
-13.62
-1.80
9.63
19.75
27.79
33.22
35.87
35.98
34.17
31.34
28.35
25.79
23.81
22.21
20.60
18.71
16.53
14.33
12.44
11.00
9.88
8.60
6.58
3.38
-1.15
-6.86
-13.28
-19.85
-25.88
-30.60
-33.24
-33.09
-29.76
-23.33
-14.44
-4.19
6.22
15.71
23.58
29.50
33.35
35.08
34.65
32.11
27.80
22.40
16.87
12.22
9.13
7.85
8.06
9.19
10.57
11.74
12.44
12.67
12.51
12.04
11.28
10.13
8.40
5.79
2.07
-2.84
-8.70
-14.82
-20.19
-23.59
-24.04
-21.08
-14.93
-6.49
2.91
11.87
19.28
24.39
26.93
27.00
24.92
21.22
16.54
11.61
7.09
3.52
1.10
-0.23
-0.89
-1.41
-2.34
-4.01
-6.46
-9.37
-12.25
-14.59
-16.16
-17.10
-17.91
-19.25
-21.65
-25.31
-29.97
-34.97
-39.44
-42.44
-43.15
-40.96
-35.59
-27.21
-16.48
-4.49
7.40
17.90
26.02
31.25
33.49
32.98
30.13
25.46
19.60
13.29
7.29
2.28
-1.39
-3.71
-5.06
-5.92
-6.78
-7.92
-9.46
-11.47
-14.02
-17.25
-21.26
-25.99
-31.15
-36.30
-40.99
-44.78
-47.34
-48.29
-47.16
-43.44
-36.76
-27.14
-15.15
-1.85
11.42
23.25
32.47
38.22
40.08
38.14
33.15
26.36
19.40
13.83
10.63
10.01
11.36
13.58
15.52
16.32
15.66
13.73
11.05
8.16
5.38
2.69
-0.25
-3.96
-8.85
-15.04
-22.16
-29.35
-35.34
-38.70
-38.23
-33.21
-23.73
-10.66
4.43
19.64
33.15
43.48
49.85
52.13
50.83
46.95
41.74
36.40
31.75
28.13
25.40
23.22
21.25
19.38
17.69
16.28
15.11
13.94
12.36
10.01
6.73
2.57
-2.25
-7.52
-13.01
-18.39
-23.05
-26.01
-26.17
-22.68
-15.38
-4.98
7.09
19.07
29.37
36.89
41.08
41.82
39.36
34.26
27.36
19.72
12.42
6.27
1.66
-1.49
-3.66
-5.52
-7.75
-10.85
-15.00
-20.01
-25.35
-30.38
-34.62
-37.94
-40.63
-43.18
-45.88
-48.61
-50.61
-50.77
-47.92
-41.33
-30.96
-17.51
-2.23
13.34
27.67
39.50
47.89
52.32
52.64
49.20
42.83
34.77
26.39
18.90
13.01
8.80
5.81
3.35
0.85
-1.99
-5.12
-8.27
-11.15
-13.66
-15.99
-18.61
-22.03
-26.48
-31.67
-36.62
-39.93
-40.22
-36.62
-29.17
-18.70
-6.53
5.96
17.65
27.64
35.27
40.04
41.70
40.38
36.63
31.38
25.60
20.12
15.30
11.17
7.55
4.26
1.30
-1.24
-3.27
-4.81
-6.11
-7.77
-10.43
-14.51
-20.07
-26.66
-33.47
-39.34
-43.01
-43.24
-39.59
-32.25
-21.96
-9.94
2.39
13.59
22.54
28.56
31.46
30.51
25.35
16.29
4.65
-7.55
-18.08
-25.09
-27.65
-25.95
-22.69
-20.97
-23.14
-30.03
-41.12
-55.28
-71.44
-88.74
-106.35
-125.00
-144.78
-164.72
-182.96
-197.88
-208.94
-216.78
-222.56
-215.57
-188.54
-140.00
-76.36
-8.50
53.84
105.56
145.67
175.63
197.80
212.58
220.06
220.70
216.07
207.98
198.92
190.93
185.24
182.02
179.05
173.79
164.49
151.32
134.60
116.35
98.93
84.12
72.46
62.32
51.36
37.68
20.85
0.70
-20.85
-41.67
-60.18
-76.33
-92.02
-110.04
-133.14
-154.82
-174.66
-193.03
-209.54
-221.55
-224.20
-212.42
-183.49
-139.39
-86.85
-36.52
3.07
27.87
39.19
41.81
41.04
40.32
40.47
40.64
38.53
33.33
25.16
14.90
3.92
-6.05
-13.07
-15.72
-13.45
-8.41
-1.59
5.84
13.07
19.72
25.53
30.05
32.56
32.55
29.93
25.88
22.07
19.97
20.22
22.19
24.32
24.89
22.87
18.19
11.99
5.72
0.62
-2.73
-4.67
-6.14
-8.30
-12.02
-17.37
-23.42
-28.52
-30.67
-28.10
-20.07
-7.23
8.41
24.02
36.90
45.24
48.35
46.62
41.01
32.59
22.33
11.16
0.07
-9.94
-18.08
-24.08
-28.25
-31.37
-34.31
-37.71
-41.73
-46.10
-50.33
-53.96
-56.81
-59.04
-61.10
-63.50
-66.58
-70.17
-73.43
-74.95
-73.07
-66.60
-55.32
-40.38
-24.03
-9.01
2.24
8.26
8.80
4.75
-2.20
-9.96
-16.33
-19.34
-17.55
-10.31
2.12
18.49
36.75
54.29
68.33
76.39
76.79
68.98
53.74
32.96
9.08
-15.38
-38.21
-57.53
-71.65
-78.94
-78.11
-68.63
-51.26
-28.15
-2.45
22.45
43.77
59.94
70.52
75.89
76.74
73.69
67.31
58.25
47.47
36.28
26.11
18.11
12.75
9.70
7.93
6.10
3.10
-1.73
-8.41
-16.45
-24.98
-32.92
-38.94
-41.61
-39.61
-32.25
-19.98
-4.53
11.34
24.68
33.23
36.10
33.79
27.69
19.39
10.20
1.09
-7.17
-13.78
-18.07
-19.82
-19.58
-18.63
-18.47
-20.25
-24.17
-29.52
-34.96
-39.26
-41.74
-42.36
-41.58
-39.96
-37.77
-34.76
-30.18
-22.88
-11.80
3.63
22.98
44.69
66.27
84.99
98.59
105.90
107.05
103.09
95.47
85.51
74.21
62.24
50.17
38.43
27.28
16.68
6.45
-3.47
-12.75
-20.77
-27.13
-32.32
-38.05
-46.74
-60.53
-80.04
-103.62
-127.48
-146.73
-156.71
-154.25
-138.36
-110.37
-73.63
-32.84
6.76
40.43
64.85
78.84
83.48
81.64
76.96
72.72
71.00
72.22
75.46
79.05
81.38
81.49
79.29
75.38
70.65
65.83
61.27
56.93
52.49
47.42
41.04
32.71
22.13
9.72
-3.13
-14.22
-21.16
-22.20
-16.95
-6.57
6.69
20.24
32.01
40.74
45.92
47.32
44.69
37.73
26.30
10.89
-7.23
-26.08
-43.37
-56.96
-65.27
-67.36
-63.01
-52.61
-37.18
-18.39
1.40
19.46
33.05
40.03
39.31
31.16
17.16
-0.06
-17.26
-31.13
-39.02
-39.43
-32.35
-19.21
-2.31
15.82
33.05
47.93
59.52
67.22
70.71
70.03
65.88
59.62
52.97
47.42
43.68
41.53
40.08
38.28
35.49
31.72
27.45
23.29
19.63
16.44
13.25
9.36
3.95
-3.64
-13.70
-25.80
-38.68
-50.30
-58.28
-60.66
-56.65
-46.96
