1660333766.00
64.000000
-0.00
-0.00
-0.00
-0.00
-0.00
-0.00
-0.00
-0.00
-0.00
-0.00
0.00
0.01
0.01
-0.00
-0.03
-0.05
-0.05
0.00
0.13
0.36
0.66
1.01
1.37
1.72
2.06
2.40
2.79
3.24
3.80
4.42
5.06
5.67
6.21
6.69
7.15
7.67
8.30
9.13
10.09
11.07
11.94
12.63
13.16
13.67
14.39
15.49
17.22
19.44
21.90
24.30
26.45
28.38
30.38
32.86
36.15
40.70
46.18
52.09
57.84
63.00
67.53
71.86
76.67
82.55
90.13
99.05
108.55
117.69
125.73
132.47
138.37
144.73
150.40
157.93
168.24
181.57
196.61
210.10
217.23
213.02
194.01
159.63
112.83
58.05
-0.07
-58.45
-116.12
-173.60
-231.61
-289.99
-347.44
-401.69
-450.97
-494.07
-530.46
-559.80
-581.45
-594.50
-597.99
-591.39
-574.41
-547.02
-508.69
-458.34
-395.09
-319.36
-233.85
-143.54
-54.64
27.17
97.94
156.09
201.88
236.39
260.77
276.05
283.35
284.20
280.51
274.10
266.31
257.73
248.36
237.83
225.85
212.44
197.96
183.02
168.21
154.01
140.56
127.73
115.23
102.87
90.67
78.93
68.11
58.63
50.73
44.32
39.02
34.31
29.72
24.99
20.10
15.35
10.95
7.05
3.67
0.74
-1.82
-4.03
-5.86
-7.25
-8.21
-8.87
-9.35
-9.79
-10.21
-10.57
-10.78
-10.71
-10.22
-9.23
-7.73
-5.86
-3.90
-2.24
-1.25
-1.08
-1.66
-2.70
-3.87
-4.89
-5.69
-6.26
-6.65
-6.81
-6.68
-6.19
-5.33
-4.26
-3.19
-2.33
-1.78
-1.53
-1.47
-1.52
-1.61
-1.76
-2.01
-2.34
-2.70
-2.97
-3.04
-2.88
-2.53
-2.09
-1.72
-1.53
-1.59
-1.84
-2.07
-2.02
-1.45
-0.28
1.31
2.92
4.08
4.45
3.97
2.82
1.39
0.04
-1.01
-1.70
-2.08
-2.23
-2.19
-1.94
-1.42
-0.62
0.43
1.59
2.69
3.55
4.04
4.17
4.04
3.84
3.75
3.83
4.01
4.15
4.09
3.72
3.04
2.12
0.98
-0.32
-1.72
-3.06
-4.08
-4.52
-4.22
-3.24
-1.92
-0.75
-0.18
-0.41
-1.35
-2.69
-4.05
-5.18
-6.02
-6.62
-7.03
-7.20
-7.02
-6.37
-5.26
-3.87
-2.48
-1.33
-0.61
-0.30
-0.33
-0.55
-0.86
-1.19
-1.52
-1.80
-2.01
-2.11
-2.10
-2.01
-1.92
-1.89
-1.96
-2.09
-2.19
-2.06
-1.50
-0.35
1.37
3.44
5.45
6.98
7.70
7.47
6.42
4.81
2.94
1.04
-0.76
-2.33
-3.59
-4.42
-4.77
-4.66
-4.17
-3.38
-2.44
-1.50
-0.68
-0.05
0.35
0.48
0.32
-0.09
-0.70
-1.44
-2.21
-2.95
-3.59
-4.10
-4.51
-4.88
-5.31
-5.86
-6.46
-6.86
-6.67
-5.52
-3.24
0.01
3.77
7.43
10.48
12.60
13.74
13.99
13.49
12.33
10.57
8.32
5.80
3.30
1.16
-0.38
-1.24
-1.47
-1.25
-0.78
-0.22
0.33
0.75
0.93
0.75
0.15
-0.83
-2.07
-3.42
-4.78
-6.11
-7.42
-8.65
-9.69
-10.39
-10.62
-10.30
-9.40
-7.89
-5.78
-3.11
-0.08
2.99
5.71
7.71
8.81
9.03
8.54
7.52
6.11
4.37
2.35
0.16
-2.01
-3.90
-5.25
-5.83
-5.60
-4.62
-3.11
-1.39
0.24
1.53
2.36
2.74
2.75
2.50
2.02
1.31
0.29
-1.09
-2.81
-4.82
-6.92
-8.90
-10.51
-11.49
-11.56
-10.54
-8.31
-4.99
-0.89
3.43
7.36
10.32
12.00
12.33
11.55
10.01
8.09
6.09
4.21
2.56
1.28
0.42
0.05
0.12
0.50
1.03
1.56
1.97
2.22
2.25
2.04
1.55
0.79
-0.18
-1.23
-2.26
-3.22
-4.15
-5.16
-6.32
-7.52
-8.52
-8.91
-8.35
-6.66
-3.95
-0.58
2.94
6.12
8.60
10.17
10.78
10.48
9.42
7.79
5.86
3.89
2.10
0.63
-0.48
-1.28
-1.82
-2.16
-2.35
-2.44
-2.50
-2.58
-2.70
-2.80
-2.83
-2.71
-2.45
-2.14
-1.93
-2.01
-2.50
-3.46
-4.82
-6.37
-7.78
-8.62
-8.49
-7.15
-4.64
-1.28
2.41
5.86
8.65
10.57
11.61
11.87
11.46
10.44
8.90
6.97
4.83
2.76
1.00
-0.25
-0.92
-1.07
-0.86
-0.49
-0.17
-0.01
-0.02
-0.17
-0.40
-0.71
-1.14
-1.74
-2.50
-3.34
-4.12
-4.73
-5.17
-5.56
-6.03
-6.62
-7.18
-7.36
-6.76
-5.11
-2.42
0.94
4.40
7.36
9.39
10.37
10.40
9.76
8.70
7.34
5.74
3.89
1.90
-0.05
-1.65
-2.62
-2.87
-2.51
-1.91
-1.47
-1.49
-2.01
-2.85
-3.72
-4.38
-4.76
-4.94
-5.07
-5.26
-5.53
-5.84
-6.19
-6.58
-7.01
-7.37
-7.39
-6.75
-5.23
-2.82
0.22
3.42
6.28
8.37
9.47
9.54
8.68
7.05
4.84
2.24
-0.58
-3.39
-5.95
-8.00
-9.35
-9.91
-9.75
-9.06
-8.09
-7.07
-6.12
-5.20
-4.22
-3.09
-1.87
-0.67
0.31
0.94
1.21
1.23
1.15
1.15
1.40
2.06
3.34
5.49
8.67
12.82
17.57
22.27
26.23
28.90
30.09
29.96
28.88
27.18
25.06
22.56
19.69
16.57
13.53
10.98
9.23
8.39
8.29
8.62
9.03
9.31
9.43
9.46
9.46
9.45
9.39
9.19
8.85
8.38
7.79
7.01
5.90
4.32
2.28
0.04
-1.83
-2.61
-1.73
0.90
4.74
8.83
12.13
13.92
14.04
12.81
10.80
8.46
5.86
2.82
-0.81
-4.98
-9.37
-13.48
-16.86
-19.21
-20.49
-21.04
-21.17
-21.07
-20.74
-20.22
-19.66
-19.29
-19.35
-19.92
-21.25
-23.32
-25.78
-28.13
-30.10
-31.78
-33.50
-35.44
-37.43
-39.50
-41.28
-42.14
-41.46
-39.27
-36.27
-33.49
-31.72
-31.24
-32.62
-35.95
-40.70
-45.94
-50.81
-54.77
-57.57
-59.05
-54.29
-41.14
-21.40
0.02
18.59
32.22
40.90
45.61
47.61
47.99
46.78
43.90
39.67
34.89
30.37
26.67
23.97
22.09
21.11
20.53
20.01
19.67
19.95
21.10
22.98
25.02
26.61
27.41
26.98
25.30
22.77
20.05
17.55
15.66
14.38
13.50
12.83
12.23
11.71
11.40
11.37
11.39
11.25
10.75
9.98
9.12
8.39
8.01
7.98
7.97
7.32
5.75
3.40
0.82
-1.70
-4.05
-6.29
-8.57
-10.85
-13.93
-17.46
-20.84
-23.41
-25.01
-25.69
-25.67
-25.26
-24.80
-25.14
-26.83
-30.31
-34.25
-38.30
-42.10
-44.95
-45.75
-40.61
-28.67
-12.63
3.17
15.90
24.95
31.47
36.87
41.66
45.18
45.68
42.24
35.55
27.62
20.38
14.93
11.21
8.52
6.32
4.36
3.22
3.74
6.23
9.89
13.22
14.79
13.96
11.04
6.84
2.41
-1.39
-4.13
-5.95
-7.15
-7.94
-8.30
-8.05
-7.22
-6.08
-4.98
-4.35
-4.48
-5.42
-6.89
-8.47
-9.70
-10.43
-10.71
-10.74
-10.74
-10.81
-10.96
-11.05
-10.85
-10.12
-8.54
-5.87
-2.10
2.49
7.34
11.69
14.84
16.36
16.22
14.73
12.39
9.70
7.04
4.59
2.41
0.50
-1.07
-2.17
-2.61
-2.34
-1.51
-0.46
0.32
0.44
-0.21
-1.45
-2.87
-4.04
-4.76
-5.08
-5.23
-5.46
-5.92
-6.61
-7.43
-8.20
-8.67
-8.60
-7.70
-5.79
-2.89
0.70
4.42
7.58
9.59
10.16
9.29
7.25
4.47
1.43
-1.49
-3.96
-5.77
-7.03
-7.76
-8.05
-8.04
-7.94
-7.88
-7.95
-8.09
-8.17
-8.03
-7.52
-6.70
-5.80
-5.15
-5.05
-5.61
-6.76
-8.26
-9.88
-11.53
-13.24
-15.08
-16.93
-18.38
-18.79
-17.55
-14.32
-9.23
-2.85
4.02
10.58
16.22
20.56
23.39
24.60
24.22
22.42
19.66
16.63
14.06
12.45
11.84
11.79
11.52
10.31
7.84
4.37
0.61
-2.56
-4.48
-4.99
-4.45
-3.51
-2.89
-3.07
-4.27
-6.46
-9.44
-12.85
-16.24
-19.05
-20.75
-21.00
-19.72
-17.19
-13.93
-10.49
-7.34
-4.74
-2.77
-1.40
-0.54
0.00
0.47
1.24
2.68
5.07
8.40
12.36
16.32
19.52
21.30
21.28
19.51
16.48
12.96
9.79
7.64
6.82
7.27
8.57
10.14
11.37
11.75
10.96
9.07
6.46
3.90
2.28
2.30
4.22
7.72
11.93
15.84
18.56
19.61
18.94
16.83
13.74
10.23
6.88
4.23
2.68
2.41
3.29
4.93
6.76
8.24
8.93
8.64
7.41
5.52
3.40
1.48
0.08
-0.82
-1.53
-2.61
-4.54
-7.53
-11.36
-15.44
-19.02
-21.42
-22.31
-21.74
-20.06
-17.83
-15.57
-13.69
-12.39
-11.71
-11.56
-11.79
-12.28
-12.93
-13.65
-14.29
-14.62
-14.32
-13.07
-10.59
-6.78
-1.72
4.36
11.12
18.10
24.76
30.45
34.54
36.60
36.61
34.97
32.46
29.87
27.75
26.19
24.93
23.66
22.29
21.10
20.57
21.04
22.51
24.52
26.35
27.28
26.78
24.62
20.83
15.63
9.31
2.24
-5.11
-12.23
-18.55
-23.57
-26.92
-28.44
-28.24
-26.66
-24.22
-21.47
-18.94
-16.96
-15.69
-15.12
-15.11
-15.53
-16.26
-17.20
-18.26
-19.24
-19.90
-19.95
-19.21
-17.67
-15.54
-13.22
-11.16
-9.68
-8.92
-8.78
-9.06
-9.58
-10.21
-10.97
-11.85
-12.83
-13.79
-14.51
-14.75
-14.32
-13.16
-11.36
-9.13
-6.68
-4.09
-1.28
2.01
6.08
11.21
17.44
24.50
31.72
38.07
42.35
43.51
41.13
35.59
28.15
20.64
14.83
11.91
12.14
14.93
19.18
23.67
27.39
29.65
29.98
28.14
24.03
17.84
10.07
1.51
-6.86
-14.15
-19.63
-22.97
-24.14
-23.45
-21.36
-18.48
-15.39
-12.55
-10.26
-8.59
-7.48
-6.83
-6.56
-6.66
-7.13
-7.95
-9.09
-10.48
-12.03
-13.56
-14.86
-15.59
-15.38
-13.99
-11.46
-8.15
-4.70
-1.75
0.22
1.05
0.88
-0.04
-1.49
-3.33
-5.51
-7.92
-10.43
-12.78
-14.79
-16.34
-17.42
-18.12
-18.50
-18.56
-18.25
-17.45
-16.13
-14.27
-11.93
-9.16
-6.02
-2.51
1.37
5.59
10.12
14.78
19.27
23.12
25.86
27.14
27.05
26.09
25.11
24.94
26.09
28.53
31.75
35.03
37.70
39.32
39.68
38.66
36.15
32.19
27.03
21.23
15.54
10.67
6.99
4.39
2.35
0.22
-2.54
-6.14
-10.51
-15.40
-20.45
-25.27
-29.45
-32.62
-34.53
-35.21
-34.97
-34.31
-33.62
-32.99
-32.09
-30.38
-27.37
-22.97
-17.57
-11.93
-6.86
-2.94
-0.34
1.04
1.47
1.18
0.29
-1.16
-3.02
-5.03
-6.84
-8.09
-8.61
-8.51
-8.09
-7.78
-7.93
-8.70
-10.03
-11.67
-13.31
-14.64
-15.40
-15.45
-14.75
-13.41
-11.64
-9.76
-8.07
-6.71
-5.62
-4.45
-2.70
0.15
4.38
9.92
16.24
22.45
27.56
30.79
31.79
30.74
28.13
24.53
20.38
15.90
11.21
6.53
2.24
-1.15
-3.28
-4.15
-4.10
-3.68
-3.36
-3.29
-3.32
-3.23
-2.97
-2.69
-2.70
-3.22
-4.24
-5.51
-6.67
-7.49
-7.86
-7.80
-7.31
-6.24
-4.42
-1.72
1.76
5.66
9.50
12.80
15.34
17.18
18.58
19.77
20.81
21.45
21.23
19.74
16.79
12.56
7.55
2.40
-2.32
-6.22
-9.11
-10.93
-11.78
-11.89
-11.66
-11.56
-11.98
-13.08
-14.67
-16.35
-17.63
-18.17
-17.85
-16.76
-15.06
-12.90
-10.45
-7.90
-5.51
-3.54
-2.14
-1.26
-0.59
0.30
1.81
4.07
6.91
9.89
12.48
14.24
15.01
14.88
14.07
12.78
11.11
9.03
6.53
3.77
1.22
-0.38
-0.11
2.82
8.81
17.66
28.49
39.95
50.48
58.85
64.49
67.74
69.80
72.50
77.82
87.34
101.39
118.43
134.73
144.93
143.50
126.95
95.52
53.68
8.83
-31.28
-61.22
-79.37
-87.57
-89.47
-88.40
-86.20
-83.23
-79.25
-74.41
-69.51
-65.55
-63.06
-61.71
-60.41
-58.03
-53.95
-48.30
-41.86
-35.65
-30.50
-26.78
-24.44
-23.13
-22.54
-22.55
-23.32
-25.19
-28.34
-32.61
-37.34
-41.60
-44.47
-45.41
-44.38
-41.72
-37.94
-33.37
-28.23
-22.61
-16.73
-11.01
-5.95
-1.98
0.82
2.75
4.49
6.76
10.10
14.63
19.92
25.11
29.11
30.89
29.81
25.85
19.60
12.12
4.61
-2.02
-7.40
-11.68
-15.41
-19.22
-23.61
-28.78
-34.69
-41.09
-47.68
-54.13
-60.14
-65.48
-70.02
-73.71
-76.52
-78.40
-79.23
-78.87
-77.22
-74.33
-70.39
-65.66
-60.33
-54.40
-47.71
-40.07
-31.47
-22.21
-12.83
-3.95
4.03
11.13
17.80
24.78
32.87
42.67
54.40
67.84
82.32
96.76
109.88
120.43
127.53
130.78
130.36
126.90
121.31
114.58
107.64
101.28
96.06
92.26
89.83
88.33
87.08
85.29
82.30
77.71
71.47
63.89
55.58
47.26
39.62
33.19
28.35
25.30
23.88
23.57
23.42
22.10
18.18
10.63
-0.65
-14.63
-29.35
-42.87
-53.66
-60.94
-64.72
-65.50
-64.07
-61.28
-58.07
-55.44
-54.73
-56.88
-61.92
-68.77
-75.63
-80.59
-82.32
-80.37
-75.19
-68.38
-61.58
-55.88
-51.62
-48.70
-47.05
-47.08
-49.56
-51.79
-51.88
-48.94
-43.52
-36.76
-29.49
-22.19
-15.16
-8.60
-2.54
2.70
7.07
10.65
13.60
16.01
17.92
19.51
21.32
23.91
27.33
31.30
35.17
38.30
40.22
40.90
40.76
40.92
41.98
43.99
46.49
48.56
49.10
47.27
42.81
35.67
27.45
19.70
13.36
8.53
4.74
1.37
-1.85
-4.75
-6.90
-7.97
-8.18
-8.17
-8.59
-9.80
-11.64
-13.56
-14.96
-15.45
-14.97
-13.92
-12.81
-12.06
-11.78
-11.78
-11.80
-11.37
-10.31
-8.64
-6.71
-4.89
-3.49
-2.67
-2.46
-2.75
-3.31
-3.84
-3.90
-3.04
-0.98
2.29
6.38
10.58
14.08
16.29
16.94
16.24
14.62
12.56
10.39
8.22
6.05
3.97
2.13
0.80
0.20
0.38
1.18
2.27
3.34
4.24
5.02
5.85
6.93
8.34
10.02
11.81
13.53
14.78
15.35
15.16
14.20
12.57
10.41
7.84
4.90
1.47
-2.61
-7.38
-12.64
-17.86
-22.22
-24.86
-25.14
-22.89
-18.42
-12.51
-6.11
-0.14
4.69
8.04
9.85
10.30
9.69
8.29
6.36
4.10
1.76
-0.45
-2.27
-3.53
-4.15
-4.16
-3.72
-3.01
-2.25
-1.68
-1.54
-1.99
-3.12
-4.84
-6.91
-9.03
-10.91
-12.42
-13.63
-14.85
-16.51
-19.03
-22.63
-27.22
-32.29
-37.01
-40.44
-41.80
-40.73
-37.42
-32.54
-27.01
-21.73
-17.30
-13.96
-11.63
-10.10
-9.17
-8.72
-8.69
-8.92
-9.16
-9.01
-8.06
-6.01
-2.74
1.66
6.97
12.87
18.96
24.74
29.62
33.05
34.69
34.58
33.18
31.17
29.19
27.58
26.22
24.69
22.49
19.28
15.10
10.35
5.68
1.80
-0.70
-1.47
-0.39
2.35
6.34
11.00
15.69
19.79
22.86
24.65
25.18
24.66
23.38
21.58
19.39
16.79
13.68
10.01
5.91
1.69
-2.24
-5.57
-8.27
-10.62
-13.11
-16.19
-19.96
-24.17
-28.22
-31.50
-33.68
-34.80
-35.32
-35.82
-36.84
-38.68
-41.32
-44.44
-47.47
-49.68
-50.34
-48.90
-45.20
-39.55
-32.65
-25.33
-18.33
-12.15
-6.99
-2.88
0.18
2.21
3.33
3.79
4.05
4.67
6.19
8.98
13.16
18.62
25.05
31.93
38.60
44.26
48.18
49.84
49.22
46.86
43.68
40.63
38.27
36.59
35.03
32.82
29.40
24.57
18.60
11.92
5.03
-1.69
-7.81
-12.84
-16.17
-17.18
-15.58
-11.55
-5.79
0.63
6.57
11.16
13.91
14.78
14.08
12.31
10.00
7.69
5.80
4.65
4.40
5.02
6.25
7.62
8.58
8.63
7.48
5.15
1.95
-1.58
-4.84
-7.36
-8.90
-9.47
-9.33
-8.83
-8.39
-8.34
-8.91
-10.19
-12.12
-14.39
-16.56
-18.00
-18.15
-16.59
-13.32
-8.74
-3.60
1.23
5.03
7.48
8.71
9.15
9.35
9.64
10.05
10.29
9.93
8.58
6.14
2.82
-0.88
-4.36
-7.06
-8.68
-9.20
-8.87
-8.09
-7.24
-6.48
-5.78
-4.96
-3.88
-2.57
-1.36
-0.73
-1.14
-2.77
-5.38
-8.36
-10.89
-12.24
-11.96
-10.02
-6.73
-2.57
1.98
6.57
11.07
15.44
19.65
23.67
27.43
30.83
33.76
36.02
37.28
37.11
35.11
31.12
25.41
18.67
11.85
5.86
1.22
-2.02
-4.17
-5.62
-6.64
-7.29
-7.51
-7.36
-7.06
-7.01
-7.60
-9.00
-11.11
-13.53
-15.78
-17.35
-17.82
-16.89
-14.40
-10.39
-5.11
0.98
7.22
12.97
17.68
20.99
22.81
23.29
22.78
21.69
20.35
18.85
16.98
14.36
10.76
6.36
1.76
-2.15
-4.66
-5.58
-5.31
-4.63
-4.25
-4.52
-5.33
-6.32
-7.17
-7.79
-8.25
-8.74
-9.33
-10.02
-10.74
-11.45
-12.21
-13.11
-14.14
-15.07
-15.46
-14.76
-12.54
-8.74
-3.74
1.71
6.71
10.59
13.06
14.30
14.78
15.01
15.30
15.77
16.31
16.70
16.81
16.54
15.92
15.03
14.01
12.93
11.78
10.44
8.65
6.18
2.87
-1.17
-5.58
-9.78
-13.13
-15.13
-15.56
-14.56
-12.52
-9.95
-7.36
-5.10
-3.40
-2.30
-1.72
-1.42
-1.00
0.07
2.31
6.07
11.37
17.85
24.84
31.54
37.23
41.39
43.80
44.42
43.34
40.71
36.70
31.57
25.68
19.43
13.22
7.39
2.12
-2.55
-6.67
-10.42
-14.00
-17.65
-21.65
-26.23
-31.44
-37.10
-42.82
-48.10
-52.52
-55.82
-58.03
-59.34
-59.98
-60.19
-60.10
-59.77
-59.20
-58.31
-56.96
-54.89
-51.74
-47.12
-40.73
-32.54
-22.89
-12.53
-2.48
6.27
13.06
17.77
20.89
23.30
25.98
29.66
34.75
41.31
49.01
57.02
63.84
67.55
66.47
59.90
48.76
35.39
22.69
12.93
6.83
3.59
1.56
-0.63
-3.47
-6.54
-9.10
-10.77
-11.81
-12.89
-14.56
-16.90
-19.39
-21.25
-21.78
-20.68
-18.20
-14.97
-11.75
-9.12
-7.37
-6.46
-6.19
-6.42
-7.14
-8.46
-10.48
-13.13
-16.05
-18.65
-20.32
-20.59
-19.30
-16.71
-13.32
-9.75
-6.47
-3.69
-1.35
0.78
2.95
5.26
7.61
9.74
11.34
12.18
12.20
11.49
10.24
8.66
6.92
5.14
3.39
1.76
0.32
-0.95
-2.12
-3.38
-4.85
-6.58
-8.39
-9.95
-10.82
-10.69
-9.41
-7.07
-3.99
-0.60
2.71
5.60
7.95
9.77
11.19
12.35
13.33
14.11
14.64
14.85
14.74
14.37
13.83
13.25
12.77
12.58
12.85
13.70
15.03
16.53
17.64
17.74
16.34
13.24
8.69
3.35
-1.87
-6.08
-8.59
-9.17
-8.05
-5.88
-3.48
-1.65
-0.96
-1.63
-3.54
-6.26
-9.17
-11.57
-12.81
-12.48
-10.47
-7.06
-2.83
1.52
5.34
