1660926332.00
64.000000
-0.00
-0.00
-0.00
-0.00
-0.00
-0.00
-0.00
-0.00
-0.00
-0.00
0.00
0.01
0.01
-0.00
-0.03
-0.05
-0.05
0.00
0.13
0.36
0.66
1.01
1.37
1.72
2.06
2.40
2.79
3.25
3.81
4.44
5.09
5.73
6.32
6.91
7.53
8.27
9.15
10.25
11.45
12.64
13.71
14.65
15.54
16.56
17.92
19.75
22.24
25.15
28.22
31.17
33.88
36.49
39.34
42.86
47.32
53.03
59.57
66.42
73.06
79.26
85.23
91.54
98.88
107.65
118.17
129.79
141.65
153.02
163.60
173.77
184.35
196.64
209.06
223.44
240.03
258.79
278.76
297.51
311.31
315.86
307.78
285.69
251.29
207.81
159.32
109.36
60.11
12.60
-32.83
-75.92
-116.37
-153.88
-189.15
-223.56
-258.76
-295.65
-333.47
-369.30
-398.61
-416.81
-420.86
-410.69
-389.27
-361.43
-331.95
-304.00
-278.59
-255.17
-232.77
-210.89
-189.92
-170.60
-153.38
-138.05
-123.87
-110.04
-96.15
-82.35
-69.23
-57.49
-47.53
-39.27
-32.21
-25.69
-19.17
-12.47
-5.80
0.40
5.68
9.79
12.80
15.08
17.03
19.00
21.07
23.10
24.84
26.06
26.67
26.77
26.54
26.20
25.90
25.70
25.55
25.35
24.99
24.43
23.66
22.77
21.82
20.90
20.05
19.25
18.52
17.89
17.37
17.01
16.80
16.70
16.65
16.60
16.49
16.25
15.82
15.17
14.32
13.39
12.49
11.76
11.29
11.09
11.12
11.29
11.47
11.53
11.37
10.98
10.42
9.81
9.29
8.93
8.76
8.69
8.64
8.51
8.29
8.01
7.71
7.42
7.12
6.81
6.44
6.01
5.51
4.96
4.41
3.89
3.47
3.19
3.06
3.04
3.03
2.96
2.79
2.52
2.21
1.94
1.70
1.46
1.18
0.78
0.26
-0.37
-1.09
-1.87
-2.69
-3.50
-4.26
-4.88
-5.31
-5.58
-5.76
-5.96
-6.24
-6.65
-7.11
-7.55
-7.90
-8.10
-8.15
-8.09
-7.95
-7.77
-7.56
-7.31
-7.01
-6.62
-6.12
-5.51
-4.84
-4.16
-3.55
-3.00
-2.50
-1.98
-1.39
-0.77
-0.18
0.29
0.60
0.74
0.80
0.86
0.96
1.10
1.26
1.41
1.56
1.75
1.98
2.25
2.48
2.60
2.55
2.34
2.06
1.83
1.78
1.94
2.28
2.70
3.08
3.34
3.46
3.49
3.44
3.33
3.14
2.89
2.63
2.45
2.39
2.47
2.65
2.83
2.96
3.00
2.99
2.96
2.97
3.04
3.18
3.38
3.64
3.94
4.27
4.62
4.93
5.14
5.20
5.04
4.69
4.21
3.73
3.33
3.07
2.89
2.75
2.61
2.48
2.43
2.48
2.60
2.73
2.78
2.78
2.76
2.77
2.81
2.82
2.69
2.40
2.01
1.66
1.48
1.52
1.68
1.81
1.77
1.52
1.15
0.83
0.71
0.83
1.12
1.42
1.58
1.54
1.33
1.10
0.99
1.06
1.30
1.57
1.75
1.75
1.54
1.22
0.89
0.66
0.61
0.72
0.92
1.12
1.23
1.23
1.15
1.05
0.97
0.92
0.90
0.88
0.88
0.91
0.94
0.96
0.91
0.79
0.63
0.53
0.56
0.75
1.02
1.28
1.45
1.54
1.58
1.64
1.68
1.62
1.39
0.99
0.52
0.14
-0.00
0.13
0.47
0.84
1.10
1.14
0.99
0.71
0.41
0.16
0.02
-0.01
0.09
0.25
0.43
0.58
0.65
0.66
0.68
0.72
0.80
0.87
0.91
0.91
0.92
1.02
1.22
1.46
1.64
1.66
1.50
1.22
0.92
0.65
0.41
0.16
-0.10
-0.32
-0.45
-0.46
-0.39
-0.31
-0.31
-0.38
-0.44
-0.40
-0.19
0.14
0.50
0.73
0.76
0.59
0.34
0.14
0.10
0.22
0.41
0.54
0.51
0.32
0.05
-0.15
-0.17
0.03
0.36
0.71
0.98
1.12
1.15
1.12
1.09
1.11
1.14
1.14
1.05
0.85
0.57
0.27
0.03
-0.09
-0.11
-0.07
-0.04
-0.07
-0.15
-0.26
-0.34
-0.37
-0.36
-0.31
-0.22
-0.10
0.08
0.32
0.61
0.88
1.06
1.03
0.74
0.23
-0.40
-0.95
-1.27
-1.26
-0.98
-0.54
-0.13
0.13
0.21
0.13
-0.02
-0.18
-0.30
-0.32
-0.23
-0.00
0.31
0.63
0.85
0.87
0.66
0.28
-0.13
-0.42
-0.48
-0.28
0.12
0.62
1.07
1.38
1.52
1.49
1.37
1.20
1.06
0.96
0.91
0.88
0.86
0.84
0.82
0.83
0.86
0.90
0.89
0.81
0.64
0.42
0.20
0.03
-0.05
-0.04
0.05
0.17
0.29
0.38
0.41
0.37
0.29
0.17
0.07
-0.00
-0.04
-0.05
-0.08
-0.12
-0.16
-0.17
-0.10
0.09
0.37
0.67
0.86
0.85
0.59
0.13
-0.38
-0.78
-0.94
-0.82
-0.47
-0.05
0.29
0.43
0.34
0.10
-0.21
-0.46
-0.60
-0.62
-0.56
-0.47
-0.37
-0.25
-0.06
0.21
0.53
0.80
0.92
0.83
0.55
0.20
-0.06
-0.12
0.07
0.46
0.91
1.29
1.52
1.54
1.39
1.15
0.91
0.75
0.71
0.78
0.92
1.05
1.10
1.03
0.83
0.55
0.24
-0.01
-0.18
-0.24
-0.25
-0.28
-0.42
-0.72
-1.17
-1.71
-2.26
-2.74
-3.12
-3.41
-3.65
-3.83
-3.97
-4.06
-4.15
-4.26
-4.45
-4.68
-4.92
-5.08
-5.13
-5.08
-5.05
-5.18
-5.60
-6.32
-7.26
-8.26
-9.19
-10.01
-10.80
-11.76
-13.11
-14.92
-17.09
-19.34
-21.32
-22.80
-23.84
-24.80
-26.22
-28.54
-31.85
-35.83
-39.83
-43.18
-45.55
-47.09
-48.50
-50.69
-54.42
-59.88
-66.53
-73.17
-78.45
-81.38
-81.89
-80.88
-79.85
-80.20
-82.70
-87.41
-93.71
-100.52
-106.07
-107.86
-103.01
-89.30
-66.60
-37.51
-6.87
20.12
39.92
51.94
58.03
60.79
61.89
61.44
58.75
53.71
47.53
42.27
39.45
38.93
38.89
36.87
31.12
21.47
9.47
-2.11
-10.06
-11.48
-4.61
10.49
31.50
54.30
74.10
87.11
91.89
89.61
83.13
75.38
68.10
61.46
54.69
47.06
38.54
29.90
22.16
16.17
12.33
10.61
10.75
12.35
15.03
18.35
21.90
25.30
28.21
30.40
31.76
32.42
32.75
33.38
34.93
37.85
42.17
47.46
53.03
58.22
62.70
66.58
70.27
74.27
78.80
83.68
88.44
92.57
95.86
98.55
101.27
104.73
109.36
115.13
121.44
127.32
131.70
133.75
133.20
130.69
127.73
126.27
127.76
132.07
136.88
138.01
130.55
110.60
76.78
30.98
-21.92
-75.23
-122.25
-157.90
-179.83
-188.66
-187.15
-178.92
-167.03
-153.23
-138.10
-121.80
-104.93
-88.82
-75.13
-64.89
-57.89
-52.78
-47.63
-40.98
-32.40
-22.34
-11.66
-1.08
8.79
17.02
22.02
21.86
15.19
2.29
-14.51
-31.44
-44.69
-51.92
-52.96
-49.41
-43.52
-37.03
-30.73
-24.72
-19.03
-13.99
-10.12
-7.69
-6.49
-5.80
-4.81
-2.99
-0.29
2.78
5.59
7.69
9.14
10.51
12.53
15.58
19.34
22.78
24.62
24.05
21.11
16.83
12.71
10.07
9.69
11.72
15.72
20.76
25.29
27.28
24.75
16.61
3.41
-12.47
-27.59
-38.79
-44.46
-44.97
-42.20
-38.39
-35.10
-32.83
-31.29
-30.04
-28.89
-27.99
-27.52
-27.43
-27.32
-26.66
-25.07
-22.48
-19.32
-16.28
-14.06
-13.05
-13.18
-13.95
-14.71
-14.91
-14.32
-13.06
-11.45
-9.84
-8.48
-7.45
-6.71
-6.15
-5.64
-5.10
-4.46
-3.76
-3.06
-2.48
-2.07
-1.83
-1.71
-1.64
-1.57
-1.54
-1.58
-1.67
-1.78
-1.80
-1.73
-1.56
-1.38
-1.21
-1.08
-0.93
-0.75
-0.51
-0.23
0.08
0.47
1.04
1.85
2.89
4.04
5.11
5.90
6.26
6.17
5.63
4.70
3.44
2.01
0.60
-0.56
-1.31
-1.60
-1.49
-1.18
-0.84
-0.58
-0.42
-0.35
-0.35
-0.44
-0.65
-0.98
-1.40
-1.87
-2.31
-2.66
-2.88
-2.88
-2.59
-1.97
-1.08
-0.09
0.75
1.21
1.22
0.86
0.35
-0.05
-0.16
0.09
0.63
1.33
2.04
2.61
2.92
2.86
2.33
1.30
-0.18
-1.92
-3.61
-4.89
-5.44
-5.15
-4.14
-2.70
-1.20
0.03
0.86
1.31
1.49
1.51
1.41
1.18
0.81
0.36
-0.04
-0.24
-0.16
0.15
0.53
0.79
0.84
0.68
0.41
0.16
0.04
0.04
0.11
0.20
0.25
0.25
0.24
0.26
0.36
0.57
0.87
1.21
1.50
1.63
1.53
1.17
0.57
-0.21
-1.05
-1.84
-2.47
-2.83
-2.89
-2.66
-2.22
-1.70
-1.24
-0.90
-0.72
-0.65
-0.64
-0.66
-0.74
-0.90
-1.17
-1.51
-1.84
-2.07
-2.12
-1.96
-1.66
-1.33
-1.10
-1.03
-1.14
-1.34
-1.50
-1.49
-1.23
-0.75
-0.15
0.41
0.79
0.96
0.95
0.88
0.84
0.86
0.96
1.11
1.33
1.59
1.86
2.07
2.15
2.04
1.77
1.43
1.09
0.80
0.54
0.25
-0.09
-0.42
-0.65
-0.71
-0.57
-0.28
0.05
0.36
0.63
0.89
1.20
1.55
1.91
2.20
2.35
2.33
2.15
1.90
1.65
1.47
1.38
1.39
1.49
1.67
1.89
2.08
2.09
1.83
1.27
0.53
-0.18
-0.66
-0.86
-0.87
-0.91
-1.15
-1.64
-2.23
-2.70
-2.87
-2.73
-2.42
-2.14
-2.04
-2.14
-2.33
-2.50
-2.54
-2.46
-2.29
-2.10
-1.89
-1.64
-1.33
-1.02
-0.76
-0.64
-0.68
-0.77
-0.75
-0.45
0.19
1.11
2.11
2.96
3.44
3.46
3.01
2.20
1.18
0.11
-0.82
-1.44
-1.61
-1.28
-0.56
0.36
1.23
1.83
2.07
1.96
1.60
1.07
0.43
-0.30
-1.06
-1.74
-2.18
-2.24
-1.91
-1.33
-0.70
-0.22
0.03
0.13
0.23
0.41
0.66
0.90
1.00
0.95
0.89
0.98
1.33
1.90
2.48
2.83
2.78
2.37
1.77
1.23
0.90
0.80
0.80
0.75
0.54
0.19
-0.21
-0.55
-0.78
-0.93
-1.10
-1.37
-1.74
-2.15
-2.45
-2.57
-2.49
-2.33
-2.20
-2.17
-2.21
-2.20
-2.05
-1.73
-1.37
-1.10
-1.04
-1.16
-1.32
-1.30
-0.96
-0.23
0.79
1.90
2.93
3.69
4.09
4.07
3.67
2.98
2.11
1.21
0.41
-0.21
-0.63
-0.82
-0.81
-0.63
-0.34
-0.00
0.29
0.42
0.34
0.04
-0.42
-0.90
-1.25
-1.32
-1.08
-0.62
-0.10
0.31
0.50
0.51
0.47
0.51
0.72
1.06
1.46
1.83
2.14
2.40
2.63
2.79
2.83
2.71
2.44
2.11
1.80
1.51
1.17
0.64
-0.17
-1.20
-2.26
-3.11
-3.55
-3.56
-3.24
-2.80
-2.37
-1.99
-1.64
-1.25
-0.86
-0.58
-0.51
-0.72
-1.17
-1.73
-2.22
-2.55
-2.65
-2.57
-2.35
-2.07
-1.80
-1.58
-1.40
-1.27
-1.13
-0.98
-0.78
-0.53
-0.21
0.24
0.86
1.66
2.57
3.42
3.96
3.98
3.38
2.22
0.77
-0.64
-1.66
-2.10
-1.90
-1.22
-0.26
0.72
1.53
2.02
2.11
1.78
1.12
0.30
-0.46
-0.96
-1.07
-0.79
-0.25
0.40
0.99
1.44
1.74
1.91
1.99
1.96
1.81
1.55
1.25
1.02
0.96
1.08
1.31
1.54
1.65
1.65
1.59
1.58
1.63
1.70
1.65
1.37
0.80
0.04
-0.81
-1.59
-2.22
-2.68
-2.97
-3.12
-3.13
-2.99
-2.69
-2.27
-1.80
-1.40
-1.15
-1.07
-1.15
-1.32
-1.50
-1.66
-1.78
-1.87
-1.94
-2.02
-2.10
-2.18
-2.22
-2.20
-2.06
-1.77
-1.32
-0.75
-0.14
0.47
1.03
1.54
1.97
2.28
2.40
2.29
1.96
1.48
0.97
0.56
0.32
0.27
0.38
0.58
0.88
1.27
1.74
2.20
2.50
2.51
2.14
1.45
0.64
-0.09
-0.56
-0.75
-0.70
-0.53
-0.29
-0.02
0.29
0.61
0.86
0.93
0.77
0.39
-0.08
-0.47
-0.66
-0.64
-0.48
-0.30
-0.21
-0.23
-0.33
-0.42
-0.41
-0.23
0.15
0.69
1.29
1.78
2.01
1.86
1.28
0.38
-0.67
-1.70
-2.53
-3.06
-3.28
-3.21
-2.98
-2.72
-2.58
-2.67
-2.96
-3.35
-3.64
-3.64
-3.19
-2.27
-0.94
0.65
2.26
3.64
4.60
5.00
4.87
4.34
3.58
2.77
2.01
1.31
0.65
0.03
-0.53
-0.94
-1.13
-1.08
-0.80
-0.39
0.08
0.48
0.74
0.83
0.77
0.63
0.50
0.42
0.37
0.28
0.08
-0.23
-0.61
-0.94
-1.10
-1.04
-0.76
-0.37
0.04
0.39
0.65
0.85
1.04
1.24
1.45
1.62
1.73
1.78
1.79
1.77
1.70
1.51
1.15
0.64
0.08
-0.39
-0.64
-0.67
-0.56
-0.44
-0.36
-0.32
-0.25
-0.09
0.14
0.34
0.39
0.21
-0.14
-0.56
-0.91
-1.11
-1.14
-1.06
-0.94
-0.85
-0.79
-0.75
-0.73
-0.69
-0.64
-0.57
-0.50
-0.42
-0.34
-0.24
-0.12
0.04
0.22
0.37
0.45
0.39
0.19
-0.13
-0.50
-0.81
-0.97
-0.96
-0.82
-0.63
-0.47
-0.37
-0.30
-0.18
0.05
0.37
0.69
0.91
0.95
0.80
0.55
0.31
0.17
0.13
0.17
0.24
0.28
0.32
0.33
0.33
0.29
0.21
0.14
0.14
0.25
0.47
0.72
0.86
0.82
0.56
0.16
-0.29
-0.66
-0.88
-0.94
-0.89
-0.80
-0.69
-0.60
-0.51
-0.41
-0.26
-0.07
0.15
0.36
0.50
0.53
0.42
0.19
-0.10
-0.34
-0.43
-0.33
-0.06
0.24
0.46
0.52
0.47
0.42
0.49
0.68
0.91
1.04
0.97
0.71
0.37
0.08
-0.08
-0.10
-0.03
0.08
0.20
0.32
0.44
0.54
0.57
0.48
0.26
-0.07
-0.45
-0.80
-1.05
-1.16
-1.13
-1.01
-0.83
-0.64
-0.46
-0.29
-0.14
-0.01
0.05
0.05
-0.03
-0.16
-0.32
-0.44
-0.50
-0.46
-0.33
-0.13
0.11
0.35
0.57
0.71
0.74
0.64
0.40
0.10
-0.21
-0.43
-0.52
-0.48
-0.36
-0.19
-0.01
0.15
0.30
0.42
0.48
0.50
0.51
0.57
0.71
0.93
1.15
1.24
1.13
0.83
0.45
0.11
-0.09
-0.13
-0.12
-0.13
-0.22
-0.36
-0.48
-0.50
-0.43
-0.28
-0.14
-0.08
-0.11
-0.24
-0.45
-0.71
-0.99
-1.22
-1.34
-1.30
-1.11
-0.81
-0.48
-0.17
0.11
0.33
0.47
0.50
0.41
0.23
0.01
-0.13
-0.14
-0.03
0.15
0.30
0.37
0.35
0.26
0.17
0.08
0.03
-0.02
-0.06
-0.11
-0.18
-0.27
-0.37
-0.46
-0.49
-0.45
-0.32
-0.11
0.12
0.34
0.52
0.62
0.63
0.52
0.31
0.04
-0.20
-0.28
-0.13
0.20
0.57
0.81
0.81
0.56
0.15
-0.23
-0.46
-0.51
-0.43
-0.29
-0.17
-0.09
0.00
0.13
0.29
0.47
0.61
0.66
0.62
0.50
0.32
0.13
-0.07
-0.25
-0.42
-0.56
-0.65
-0.70
-0.69
-0.63
-0.51
-0.30
-0.03
0.25
0.47
0.52
0.36
0.03
-0.37
-0.66
-0.74
-0.55
-0.16
0.30
0.66
0.84
0.81
0.64
0.45
0.33
0.35
0.49
0.67
0.80
0.80
0.63
0.31
-0.07
-0.40
-0.61
-0.68
-0.68
-0.70
-0.78
-0.88
-0.93
-0.83
-0.60
-0.30
-0.06
0.04
-0.00
-0.08
-0.12
-0.07
0.03
0.09
0.07
-0.01
-0.05
0.03
0.25
0.53
0.72
0.73
0.53
0.22
-0.07
-0.22
-0.21
-0.10
-0.01
-0.01
-0.12
-0.24
-0.30
-0.28
-0.22
-0.21
-0.29
-0.40
-0.43
-0.26
0.12
0.61
1.03
1.22
1.13
0.84
0.51
0.25
0.06
-0.08
-0.25
-0.41
-0.49
-0.43
-0.21
0.06
0.24
0.24
0.02
-0.34
-0.72
-1.03
-1.19
-1.17
-0.93
-0.48
0.14
0.79
1.29
1.54
1.49
1.23
0.90
0.60
0.40
0.27
0.19
0.13
0.14
0.22
0.35
0.48
0.53
0.48
0.34
0.15
-0.03
-0.18
-0.34
-0.51
-0.68
-0.83
-0.90
-0.86
-0.73
-0.56
-0.39
-0.26
-0.19
-0.16
-0.15
-0.10
-0.01
0.14
0.32
0.49
0.59
0.57
0.41
0.16
-0.13
-0.36
-0.47
-0.46
-0.36
-0.26
-0.25
-0.36
-0.57
-0.78
-0.85
-0.69
-0.34
0.09
0.43
0.55
0.42
0.11
-0.23
-0.45
-0.49
-0.36
-0.13
0.12
0.33
0.49
0.61
0.74
0.86
0.98
1.05
1.05
0.99
0.90
0.82
0.78
0.71
0.53
0.18
-0.32
-0.85
-1.25
-1.42
-1.33
-1.11
-0.89
-0.77
-0.75
-0.72
-0.60
-0.35
-0.04
0.22
0.32
0.21
-0.07
-0.44
-0.84
-1.20
-1.47
-1.65
-1.73
-1.73
-1.70
-1.67
-1.69
-1.78
-1.92
-2.09
-2.23
-2.31
-2.28
-2.15
-1.90
-1.56
-1.17
-0.83
-0.64
-0.72
-1.14
-1.88
-2.87
-3.96
-4.99
-5.86
-6.56
-7.23
-8.04
-9.17
-10.64
-12.31
-13.90
-15.15
-15.92
-16.26
-16.43
-16.78
-17.54
-18.75
-20.20
-21.56
-22.60
-23.30
-23.82
-24.43
-25.23
-26.07
-26.66
-26.68
-26.02
-24.70
-22.72
-19.98
-16.22
-11.38
-5.77
-0.26
4.06
6.31
6.29
4.50
1.84
-0.93
-3.59
-6.37
-9.64
-13.45
-17.44
-21.06
-23.98
-26.43
-29.07
-32.66
-37.56
-43.55
-49.88
-55.79
-60.88
-65.26
-69.32
-73.50
-78.03
-82.79
-87.27
-90.43
-90.71
-86.26
-75.60
-58.51
-36.67
-13.49
6.90
21.16
28.01
28.51
25.19
20.70
16.67
13.38
10.24
6.60
2.28
-2.32
-6.28
-8.52
-7.90
-3.62
4.57
16.05
29.17
41.55
50.71
55.10
54.91
52.21
50.16
51.71
58.27
69.10
81.80
93.60
102.76
109.21
114.21
119.24
124.97
130.90
135.85
138.99
140.55
141.69
143.78
147.45
152.13
156.27
158.09
156.36
151.04
143.42
135.64
129.90
127.45
127.80
128.65
126.61
118.42
102.22
78.00
47.38
12.86
-22.95
-57.62
-88.87
-114.48
-132.60
-142.18
-143.60
-138.60
-129.80
-119.84
-110.56
-102.82
-96.63
-91.61
-87.29
-83.21
-78.98
-74.28
-68.97
-63.12
-57.03
-51.11
-45.76
-41.25
-37.69
-35.07
-33.25
-31.97
-30.83
-29.44
-27.46
-24.83
-21.78
-18.83
-16.55
-15.37
-15.37
-16.28
-17.58
-18.74
-19.44
-19.68
-19.74
-20.05
-21.00
-22.75
-25.23
-28.11
-30.92
-33.26
-34.97
-36.26
-37.65
-39.83
-43.28
-48.03
-53.53
-58.84
-62.97
-65.37
-66.25
-66.54
-67.61
-70.74
-76.67
-85.15
-94.79
-102.96
-106.05
-100.09
-81.71
-49.41
-4.55
48.47
103.12
152.56
191.55
217.81
232.12
237.45
237.46
235.33
233.23
232.39
233.54
237.27
244.03
253.80
265.58
276.99
284.59
284.68
274.42
252.79
221.01
181.72
137.69
90.65
41.01
-11.16
-64.64
-116.06
-160.31
-192.32
-209.24
-211.82
-204.03
-191.35
-178.50
-167.98
-159.86
-152.73
-145.07
-136.19
-126.32
-116.23
-106.61
-97.76
-89.61
-81.95
-74.65
-67.79
-61.57
-56.24
-51.87
-48.34
-45.30
-42.34
-39.12
-35.56
-31.85
-28.36
-25.43
-23.22
-21.61
-20.31
-18.92
-17.17
-14.98
-12.48
-9.96
-7.73
-6.02
-4.88
-4.18
-3.71
-3.20
-2.48
-1.49
-0.30
0.89
1.86
2.43
2.56
2.33
1.92
1.55
1.36
1.36
1.44
1.44
1.25
0.90
0.57
0.42
0.53
0.82
1.07
1.06
0.66
-0.06
-0.87
-1.51
-1.81
-1.73
-1.39
-0.97
-0.60
-0.39
-0.35
-0.46
-0.67
-0.91
-1.15
-1.35
-1.49
-1.58
-1.62
-1.57
-1.40
-1.12
-0.80
-0.58
-0.58
-0.87
-1.34
-1.82
-2.13
-2.16
-1.97
-1.69
-1.45
-1.27
-1.10
-0.87
-0.56
-0.27
-0.14
-0.26
-0.63
-1.11
-1.51
-1.72
-1.72
-1.62
-1.53
-1.50
-1.47
-1.32
-0.96
-0.42
0.16
0.58
0.71
0.58
0.37
0.27
0.41
0.77
1.23
1.66
1.94
2.09
2.12
2.10
2.05
2.00
2.00
2.09
2.29
2.60
2.92
3.16
3.23
3.10
2.82
2.45
2.08
1.73
1.41
1.14
0.90
0.70
0.55
0.42
0.29
