1660323416.00
64.000000
-0.00
-0.00
-0.00
-0.00
-0.00
-0.00
-0.00
-0.00
-0.00
-0.00
0.00
0.01
0.01
-0.00
-0.03
-0.05
-0.05
0.00
0.13
0.36
0.66
1.01
1.37
1.72
2.06
2.40
2.79
3.24
3.80
4.42
5.06
5.66
6.20
6.68
7.15
7.68
8.31
9.15
10.09
11.04
11.88
12.56
13.13
13.77
14.68
16.02
17.98
20.34
22.82
25.13
27.13
28.92
30.87
33.41
36.86
41.57
47.12
52.98
58.56
63.52
67.96
72.43
77.62
84.02
92.10
101.26
110.66
119.39
126.97
133.54
139.84
147.23
154.33
163.23
174.29
187.49
201.61
213.93
220.42
216.72
199.56
167.92
123.80
70.59
12.32
-47.79
-107.83
-166.95
-224.72
-280.63
-334.05
-384.17
-430.81
-473.78
-512.52
-545.59
-570.77
-585.50
-587.67
-576.39
-552.04
-516.60
-472.96
-424.38
-373.90
-323.59
-273.91
-223.58
-170.20
-111.46
-46.90
21.37
88.89
150.32
201.31
239.88
266.52
283.28
292.39
295.27
292.57
284.72
272.62
257.86
242.31
227.51
214.06
201.70
189.49
176.55
162.52
147.74
133.09
119.57
107.81
97.83
89.04
80.54
71.71
62.37
52.95
44.18
36.69
30.75
26.15
22.45
19.04
15.55
11.91
8.30
4.98
2.10
-0.27
-2.19
-3.76
-5.05
-6.07
-6.81
-7.27
-7.53
-7.67
-7.81
-8.00
-8.25
-8.48
-8.56
-8.42
-8.04
-7.52
-7.00
-6.57
-6.32
-6.21
-6.25
-6.35
-6.42
-6.30
-5.88
-5.12
-4.17
-3.29
-2.74
-2.68
-3.00
-3.47
-3.81
-3.91
-3.76
-3.41
-2.86
-2.13
-1.30
-0.62
-0.45
-1.10
-2.54
-4.33
-5.73
-6.03
-4.90
-2.55
0.30
2.83
4.35
4.61
3.75
2.23
0.52
-1.00
-2.19
-3.00
-3.37
-3.17
-2.35
-1.02
0.39
1.34
1.38
0.46
-0.99
-2.17
-2.37
-1.28
0.84
3.35
5.61
7.27
8.41
9.32
10.17
10.87
11.06
10.43
8.89
6.75
4.55
2.74
1.51
0.56
-0.57
-2.17
-4.28
-6.55
-8.50
-9.68
-9.91
-9.33
-8.34
-7.36
-6.73
-6.55
-6.69
-6.83
-6.63
-5.97
-4.92
-3.78
-2.87
-2.33
-2.16
-2.19
-2.22
-2.17
-2.07
-2.03
-2.10
-2.30
-2.52
-2.67
-2.68
-2.51
-2.18
-1.70
-1.14
-0.54
-0.00
0.41
0.64
0.69
0.63
0.55
0.51
0.55
0.63
0.74
0.81
0.84
0.80
0.70
0.51
0.24
-0.09
-0.43
-0.73
-0.97
-1.12
-1.24
-1.34
-1.46
-1.58
-1.68
-1.69
-1.53
-1.14
-0.56
0.08
0.55
0.63
0.23
-0.55
-1.45
-2.14
-2.40
-2.17
-1.60
-0.93
-0.39
-0.11
-0.06
-0.15
-0.26
-0.35
-0.45
-0.61
-0.87
-1.17
-1.36
-1.26
-0.75
0.14
1.17
2.01
2.41
2.32
1.90
1.48
1.34
1.58
2.10
2.63
2.92
2.85
2.43
1.82
1.15
0.53
0.07
-0.14
-0.02
0.44
1.12
1.68
1.76
1.11
-0.29
-2.14
-3.95
-5.22
-5.59
-4.95
-3.48
-1.51
0.50
2.13
3.06
3.20
2.69
1.84
0.93
0.09
-0.72
-1.66
-2.78
-3.90
-4.67
-4.72
-3.90
-2.44
-0.83
0.37
0.79
0.40
-0.49
-1.46
-2.13
-2.27
-1.89
-1.14
-0.19
0.77
1.63
2.35
2.88
3.23
3.37
3.29
2.99
2.51
1.92
1.31
0.81
0.50
0.45
0.60
0.82
0.93
0.78
0.32
-0.34
-0.99
-1.39
-1.41
-1.09
-0.58
-0.11
0.15
0.13
-0.13
-0.55
-1.03
-1.49
-1.87
-2.12
-2.17
-1.92
-1.33
-0.44
0.67
1.84
2.92
3.80
4.46
4.88
5.09
5.08
4.82
4.31
3.58
2.73
1.90
1.25
0.83
0.66
0.65
0.71
0.73
0.66
0.49
0.27
0.02
-0.23
-0.52
-0.90
-1.38
-1.95
-2.50
-2.93
-3.13
-3.04
-2.71
-2.23
-1.68
-1.09
-0.46
0.25
1.01
1.76
2.38
2.80
3.03
3.13
3.16
3.14
2.99
2.59
1.85
0.83
-0.30
-1.29
-1.92
-2.11
-1.92
-1.52
-1.09
-0.75
-0.54
-0.42
-0.35
-0.34
-0.43
-0.71
-1.20
-1.84
-2.49
-2.98
-3.16
-3.04
-2.76
-2.53
-2.53
-2.79
-3.14
-3.35
-3.19
-2.61
-1.73
-0.81
-0.09
0.33
0.50
0.62
0.88
1.35
1.94
2.47
2.72
2.59
2.10
1.37
0.62
0.03
-0.27
-0.29
-0.09
0.22
0.53
0.78
0.94
1.01
0.97
0.81
0.53
0.18
-0.14
-0.28
-0.19
0.08
0.36
0.42
0.11
-0.53
-1.27
-1.85
-2.05
-1.89
-1.50
-1.12
-0.89
-0.85
-0.93
-1.01
-1.04
-0.98
-0.86
-0.65
-0.28
0.28
1.04
1.90
2.68
3.22
3.41
3.25
2.81
2.20
1.54
0.91
0.39
0.03
-0.15
-0.18
-0.15
-0.12
-0.16
-0.25
-0.36
-0.42
-0.42
-0.34
-0.17
0.09
0.44
0.84
1.18
1.38
1.39
1.28
1.11
1.01
1.03
1.18
1.43
1.75
2.15
2.60
3.08
3.52
3.87
4.09
4.27
4.58
5.33
6.81
9.17
12.31
15.80
19.04
21.36
22.29
21.66
19.68
16.78
13.51
10.31
7.52
5.32
3.78
2.89
2.52
2.45
2.34
1.88
0.97
-0.19
-1.03
-0.94
0.47
2.98
5.77
7.72
7.85
5.67
1.21
-5.11
-12.67
-20.83
-28.81
-35.71
-40.63
-42.90
-42.41
-39.80
-36.18
-32.71
-30.12
-28.40
-27.04
-25.35
-22.93
-19.78
-16.25
-12.70
-9.38
-6.38
-3.80
-1.85
-0.88
-1.17
-2.69
-4.99
-7.40
-9.35
-10.73
-12.05
-14.19
-17.99
-23.64
-30.46
-37.04
-41.77
-43.63
-42.68
-40.20
-38.24
-38.64
-42.25
-48.40
-55.09
-59.86
-60.57
-56.31
-47.82
-37.27
-27.75
-22.30
-22.94
-29.90
-41.16
-52.38
-57.68
-51.08
-28.59
9.77
59.08
110.36
153.26
179.45
185.43
173.36
149.46
121.00
93.42
69.05
47.77
28.93
12.95
1.60
-3.28
-1.26
5.79
14.39
21.03
23.78
23.00
21.09
20.97
24.61
32.12
41.88
51.69
59.68
65.12
68.60
71.74
76.61
84.82
96.79
111.42
126.57
139.01
145.21
142.44
130.08
110.02
85.79
60.88
37.14
15.19
-6.57
-31.43
-63.24
-104.52
-155.23
-212.61
-271.66
-326.00
-367.20
-388.19
-385.64
-361.01
-319.07
-265.57
-205.67
-142.98
-79.26
-12.43
59.66
136.71
214.60
286.92
347.47
391.57
416.90
410.05
365.59
291.55
207.20
130.64
70.60
27.70
-1.22
-20.05
-32.15
-37.86
-38.51
-35.06
-29.73
-24.98
-21.73
-19.58
-17.86
-16.81
-16.55
-19.00
-27.89
-45.71
-73.08
-106.30
-138.47
-162.63
-174.59
-173.32
-161.42
-143.53
-124.50
-107.55
-93.46
-81.74
-71.86
-63.77
-57.05
-51.06
-45.11
-38.89
-32.60
-26.51
-20.92
-16.17
-12.41
-9.40
-6.76
-4.12
-1.31
1.67
4.85
8.20
11.53
14.51
16.79
18.18
18.80
18.95
18.96
18.99
18.97
18.67
18.00
17.14
16.59
16.86
18.12
20.02
21.84
22.84
22.64
21.41
19.59
17.64
15.80
14.04
12.37
11.02
10.42
11.05
13.24
17.06
22.35
28.76
35.89
43.24
50.38
57.15
63.83
71.03
79.37
88.96
99.06
108.16
114.46
116.61
114.34
108.56
101.04
93.78
88.40
85.69
85.63
87.55
90.46
93.52
96.10
97.93
98.91
98.76
96.76
91.30
79.78
58.78
25.31
-21.23
-77.10
-133.79
-179.90
-205.21
-204.79
-181.36
-144.69
-108.30
-84.86
-82.48
-103.08
-143.04
-195.00
-249.55
-296.71
-327.45
-335.26
-317.43
-275.21
-212.78
-135.97
-51.65
33.13
111.46
177.34
226.91
259.99
280.86
296.89
314.90
336.13
356.61
369.45
368.08
348.77
311.40
259.49
199.68
140.06
86.73
46.66
26.86
31.25
56.59
91.63
121.65
135.36
127.53
95.65
43.34
-21.64
-90.79
-158.38
-222.77
-283.42
-337.76
-384.48
-429.44
-478.53
-534.30
-595.16
-657.42
-718.57
-776.30
-826.63
-824.01
-742.09
-589.93
-408.94
-242.09
-111.61
-21.70
24.75
43.16
43.40
27.08
-2.43
-37.20
-66.95
-77.42
-64.32
-31.50
18.23
70.87
107.86
119.99
114.61
104.00
97.84
100.22
108.22
120.49
134.37
146.91
157.81
169.29
184.40
205.16
231.04
260.43
292.28
324.33
354.44
381.70
406.21
428.98
451.96
478.00
510.06
548.53
588.23
620.20
634.73
624.90
589.83
534.02
466.08
394.96
325.28
256.62
187.29
117.10
48.15
-15.55
-72.48
-122.70
-167.99
-212.45
-260.07
-311.63
-364.54
-414.57
-457.05
-491.96
-520.56
-529.58
-509.13
-461.05
-399.20
-340.20
-304.12
-288.39
-288.49
-298.88
-314.07
-323.99
-322.20
-304.68
-270.76
-223.24
-166.60
-108.52
-52.88
-6.25
26.33
43.80
48.52
43.44
31.80
21.43
14.39
13.35
20.54
36.27
58.66
85.88
112.85
138.20
163.21
188.81
217.10
250.00
288.03
330.41
376.04
423.25
469.22
508.84
534.47
539.87
521.91
481.01
421.35
350.13
275.10
202.39
134.85
72.70
16.04
-35.36
-83.11
-129.79
-177.32
-226.22
-275.66
-324.23
-369.74
-409.26
-426.61
-410.33
-363.06
-300.48
-239.81
-191.01
-156.22
-132.40
-114.34
-101.72
-93.21
-90.32
-94.78
-106.72
-125.57
-151.09
-183.35
-211.61
-229.81
-234.56
-224.55
-199.28
-159.44
-109.33
-56.71
-9.43
27.65
52.74
67.59
74.94
77.10
75.73
72.25
66.47
60.55
58.65
63.66
76.22
93.56
110.87
124.05
130.21
129.07
124.21
121.89
128.06
147.53
182.96
228.18
276.90
320.04
346.76
348.31
320.76
267.24
198.47
129.62
74.80
42.55
30.53
27.42
19.99
-1.30
-38.10
-84.80
-132.78
-175.49
-203.98
-212.45
-203.14
-184.59
-165.67
-149.14
-133.11
-115.41
-96.24
-80.16
-70.18
-68.98
-76.66
-92.91
-116.07
-144.13
-175.62
-210.32
-241.25
-262.57
-268.98
-244.82
-187.31
-109.20
-31.44
29.70
68.82
90.05
100.08
104.44
106.39
105.51
101.48
95.62
90.63
90.13
95.29
105.10
117.71
131.41
144.03
155.25
166.72
180.48
191.01
194.47
186.00
162.19
123.51
74.48
23.57
-19.86
-49.41
-63.97
-66.36
-61.97
-55.22
-48.31
-42.02
-36.31
-31.24
-27.29
-25.03
-23.85
-23.01
-21.28
-17.71
-12.42
-6.36
-0.90
2.72
3.75
2.63
-0.45
-3.92
-6.80
-8.79
-10.24
-11.91
-14.59
-18.64
-22.54
-26.30
-29.20
-30.70
-30.68
-29.40
-27.46
-25.43
-23.71
-22.34
-21.35
-20.33
-19.07
-17.51
-15.76
-14.02
-12.45
-11.17
-10.15
-9.46
-8.91
-8.40
-7.98
-7.63
-7.43
-7.35
-7.30
-7.21
-7.08
-6.88
-6.60
-6.39
-6.34
-6.54
-6.94
-7.39
-7.75
-7.98
-8.32
-8.63
-9.04
-9.61
-10.46
-11.41
-12.08
-12.11
-11.20
-9.34
-6.72
-4.10
-1.64
0.44
2.39
4.78
8.21
12.91
18.52
24.02
28.00
29.30
27.16
22.08
15.42
8.80
3.39
-0.74
-4.67
-10.06
-17.38
-27.65
-39.78
-51.44
-60.20
-64.43
-64.29
-61.57
-58.92
-58.59
-62.26
-70.02
-80.61
-91.36
-98.21
-95.94
-79.55
-47.40
-1.19
51.35
98.89
130.60
140.72
131.08
110.06
88.30
74.60
71.74
76.81
84.61
90.96
94.51
96.18
97.19
97.47
95.54
89.08
76.81
59.48
39.33
19.07
0.86
-14.63
-27.91
-39.42
-50.46
-61.34
-71.52
-80.05
-86.11
-89.32
-89.88
-89.12
-87.27
-85.13
-83.30
-82.36
-82.80
-85.03
-89.47
-96.73
-106.56
-119.61
-134.97
-149.34
-157.88
-155.98
-141.61
-116.82
-87.27
-60.32
-41.27
-31.91
-30.16
-31.81
-32.80
-30.88
-25.92
-18.57
-9.12
2.69
17.42
35.13
54.72
74.12
91.13
104.04
111.57
114.86
115.43
114.77
113.76
112.46
110.31
106.62
101.02
93.73
86.14
78.81
72.43
67.32
63.30
59.81
56.22
52.13
47.54
42.85
38.40
34.58
31.53
29.15
27.16
25.25
23.27
21.19
19.19
17.34
15.80
14.63
13.78
13.16
12.69
12.31
12.03
11.89
11.85
11.95
12.17
12.50
12.85
13.19
13.44
13.51
13.26
12.54
11.24
9.23
6.75
3.48
-0.56
-5.28
-10.43
-15.70
-20.79
-25.40
-29.32
-32.45
-34.81
-36.39
-37.27
-37.48
-37.06
-36.08
-34.61
-32.78
-30.81
-28.96
-27.35
-26.12
-25.19
-24.38
-23.50
-22.42
-21.18
-19.98
-19.19
-19.03
-19.68
-20.77
-21.73
-21.97
-21.17
-19.44
-17.33
-15.75
-15.29
-16.43
-18.52
-20.43
-20.93
-19.30
-15.62
-10.86
-6.66
-4.20
-4.44
-6.35
-7.99
-7.18
-2.43
6.35
17.84
29.64
39.94
47.39
53.40
60.71
72.45
91.18
118.73
156.95
201.64
249.85
288.12
304.06
288.89
241.80
170.39
87.24
5.80
-63.29
-113.72
-143.98
-155.01
-150.30
-135.09
-115.65
-98.49
-88.66
-88.81
-99.18
-117.92
-141.28
-165.48
-187.00
-202.11
-206.99
-198.37
-172.18
-133.19
-90.64
-54.00
-29.46
-18.00
-16.22
-18.65
-20.92
-21.68
-22.72
-26.09
-32.39
-40.09
-46.78
-49.82
-49.30
-46.52
-43.59
-42.82
-44.89
-49.11
-53.41
-56.08
-56.45
-55.15
-53.50
-52.98
-54.76
-58.77
-64.18
-69.15
-72.61
-74.38
-74.96
-74.68
-73.04
-68.49
-57.98
-43.62
-25.94
-6.34
13.27
31.50
48.51
65.96
85.80
108.58
132.11
152.77
166.42
170.94
167.76
161.35
156.79
157.53
164.12
174.79
187.59
200.38
210.45
213.34
202.92
173.63
124.28
61.03
-2.79
-50.39
-68.72
-54.25
-14.81
33.61
73.53
92.92
88.92
67.24
37.99
10.24
-11.40
-26.85
-38.23
-46.72
-51.02
-48.31
-36.77
-17.74
3.73
21.15
29.93
29.79
24.91
21.66
25.28
37.20
54.53
71.13
79.83
74.46
51.64
12.28
-37.65
-87.58
-124.93
-139.30
-126.71
-91.63
-45.36
-1.37
30.07
45.07
45.82
37.61
25.50
12.62
0.69
-8.66
-13.26
-11.31
-2.98
8.66
18.57
21.93
16.36
3.11
-13.67
-28.78
-37.81
-38.65
-31.75
-19.86
-7.44
0.31
-1.61
-16.44
-44.09
-79.98
-115.38
-139.31
-142.00
-118.54
-71.34
-9.94
51.96
101.03
128.53
132.35
116.50
88.38
55.59
23.78
-3.95
-26.26
-42.38
-51.41
-52.62
-46.20
-33.92
-19.17
-5.84
3.16
7.17
7.89
8.63
12.56
21.06
32.99
45.22
53.77
54.95
46.25
26.96
-1.29
-33.97
-63.76
-81.79
-80.21
-55.24
-9.25
49.44
109.10
158.58
190.75
204.04
201.53
188.69
171.02
152.72
136.42
123.62
114.73
108.79
103.30
94.67
79.27
55.00
22.25
-16.30
-56.71
-95.34
-129.80
-158.97
-182.71
-201.83
-218.58
-236.80
-260.90
-293.35
-332.24
-370.37
-397.13
-402.69
-382.19
-337.50
-275.72
-205.76
-135.11
