1660322727.00
64.000000
-0.00
-0.00
-0.00
-0.00
-0.00
-0.00
-0.00
-0.00
-0.00
-0.00
0.00
0.01
0.01
-0.00
-0.03
-0.05
-0.05
0.00
0.13
0.36
0.66
1.01
1.37
1.72
2.06
2.40
2.79
3.24
3.80
4.42
5.06
5.67
6.20
6.68
7.15
7.68
8.31
9.14
10.08
11.04
11.90
12.61
13.20
13.80
14.62
15.79
17.55
19.74
22.13
24.45
26.56
28.51
30.57
33.13
36.49
41.03
46.45
52.25
57.90
63.03
67.66
72.20
77.26
83.32
90.94
99.71
108.95
117.86
125.87
132.89
139.34
146.33
152.49
160.13
170.10
182.80
197.26
210.59
218.21
215.05
197.31
163.91
117.37
61.98
2.67
-56.88
-115.03
-171.93
-228.38
-284.80
-340.72
-394.49
-444.51
-489.23
-527.40
-557.92
-579.72
-591.71
-592.97
-583.22
-562.92
-533.51
-496.41
-452.29
-400.55
-339.84
-269.27
-189.77
-104.86
-19.99
58.77
126.67
181.36
222.88
252.81
273.13
285.45
290.97
290.80
286.16
278.45
268.91
258.30
246.80
234.22
220.26
204.93
188.65
172.17
156.36
141.89
129.04
117.62
107.14
97.05
86.97
76.85
66.93
57.63
49.34
42.22
36.13
30.71
25.60
20.57
15.70
11.19
7.28
4.12
1.70
-0.17
-1.75
-3.28
-4.83
-6.35
-7.72
-8.79
-9.50
-9.84
-9.86
-9.58
-9.02
-8.24
-7.34
-6.50
-5.91
-5.66
-5.72
-5.94
-6.10
-6.07
-5.84
-5.51
-5.25
-5.13
-5.09
-4.97
-4.64
-4.03
-3.24
-2.50
-2.03
-1.93
-2.13
-2.43
-2.65
-2.66
-2.52
-2.36
-2.30
-2.36
-2.49
-2.56
-2.49
-2.30
-2.07
-1.90
-1.84
-1.88
-1.94
-1.92
-1.74
-1.39
-0.96
-0.55
-0.26
-0.11
-0.06
-0.03
0.04
0.16
0.26
0.30
0.25
0.16
0.11
0.15
0.28
0.48
0.73
1.03
1.41
1.86
2.34
2.76
3.06
3.23
3.32
3.42
3.58
3.78
3.95
4.02
3.93
3.69
3.27
2.64
1.80
0.75
-0.46
-1.69
-2.79
-3.68
-4.31
-4.67
-4.80
-4.74
-4.54
-4.28
-4.04
-3.88
-3.78
-3.69
-3.57
-3.43
-3.32
-3.33
-3.48
-3.75
-3.99
-4.06
-3.90
-3.53
-3.03
-2.59
-2.30
-2.21
-2.25
-2.28
-2.20
-1.96
-1.62
-1.26
-1.01
-0.90
-0.88
-0.87
-0.79
-0.64
-0.45
-0.25
-0.10
0.00
0.03
-0.03
-0.18
-0.36
-0.51
-0.54
-0.40
-0.11
0.30
0.73
1.09
1.34
1.44
1.43
1.37
1.30
1.29
1.33
1.37
1.37
1.27
1.08
0.85
0.68
0.62
0.66
0.73
0.74
0.60
0.30
-0.10
-0.52
-0.91
-1.22
-1.43
-1.54
-1.53
-1.44
-1.34
-1.33
-1.46
-1.75
-2.14
-2.51
-2.79
-2.95
-3.02
-3.04
-3.02
-2.86
-2.50
-1.90
-1.11
-0.28
0.46
1.04
1.47
1.81
2.13
2.40
2.58
2.61
2.51
2.36
2.26
2.26
2.34
2.38
2.28
2.02
1.64
1.29
1.08
1.01
1.01
0.94
0.69
0.24
-0.34
-0.91
-1.32
-1.48
-1.40
-1.20
-1.00
-0.96
-1.16
-1.61
-2.22
-2.84
-3.32
-3.51
-3.33
-2.82
-2.03
-1.11
-0.19
0.61
1.21
1.59
1.76
1.77
1.67
1.52
1.36
1.21
1.12
1.09
1.12
1.18
1.22
1.20
1.12
1.02
0.94
0.93
0.99
1.08
1.15
1.15
1.07
0.90
0.65
0.35
0.01
-0.32
-0.61
-0.86
-1.08
-1.29
-1.53
-1.83
-2.19
-2.57
-2.91
-3.10
-3.07
-2.76
-2.17
-1.38
-0.51
0.34
1.07
1.63
2.00
2.16
2.13
1.94
1.68
1.48
1.42
1.51
1.67
1.79
1.78
1.63
1.41
1.21
1.11
1.11
1.17
1.24
1.23
1.09
0.83
0.48
0.14
-0.11
-0.21
-0.19
-0.17
-0.30
-0.70
-1.40
-2.32
-3.33
-4.29
-5.06
-5.60
-5.90
-5.92
-5.67
-5.13
-4.34
-3.38
-2.37
-1.46
-0.72
-0.15
0.33
0.83
1.42
2.08
2.73
3.26
3.61
3.79
3.86
3.91
4.01
4.19
4.44
4.70
4.88
4.87
4.57
3.94
3.00
1.86
0.67
-0.37
-1.13
-1.54
-1.61
-1.45
-1.21
-1.09
-1.25
-1.77
-2.58
-3.48
-4.24
-4.65
-4.66
-4.33
-3.84
-3.33
-2.90
-2.52
-2.11
-1.60
-0.99
-0.34
0.26
0.73
1.06
1.27
1.41
1.52
1.59
1.63
1.59
1.46
1.25
1.00
0.81
0.71
0.73
0.80
0.86
0.83
0.71
0.51
0.29
0.11
-0.03
-0.11
-0.16
-0.21
-0.30
-0.48
-0.81
-1.27
-1.82
-2.34
-2.70
-2.82
-2.66
-2.28
-1.75
-1.10
-0.35
0.48
1.34
2.11
2.66
2.87
2.72
2.32
1.81
1.36
1.08
0.99
1.07
1.25
1.46
1.65
1.74
1.68
1.49
1.21
0.98
0.90
1.02
1.25
1.43
1.37
0.97
0.24
-0.66
-1.55
-2.26
-2.71
-2.92
-2.94
-2.79
-2.50
-2.08
-1.58
-1.06
-0.63
-0.32
-0.11
0.07
0.31
0.61
0.89
1.03
0.96
0.67
0.30
0.02
-0.06
0.10
0.41
0.74
1.02
1.22
1.38
1.56
1.74
1.86
1.82
1.55
1.08
0.52
0.01
-0.36
-0.57
-0.72
-0.90
-1.21
-1.65
-2.19
-2.74
-3.21
-3.50
-3.50
-3.15
-2.45
-1.51
-0.47
0.50
1.27
1.80
2.15
2.36
2.48
2.51
2.41
2.20
1.95
1.74
1.64
1.63
1.63
1.53
1.29
0.95
0.62
0.40
0.31
0.33
0.37
0.32
0.15
-0.11
-0.43
-0.74
-0.99
-1.15
-1.22
-1.25
-1.33
-1.55
-1.96
-2.54
-3.19
-3.75
-4.05
-4.00
-3.57
-2.82
-1.85
-0.77
0.29
1.24
1.98
2.45
2.65
2.61
2.44
2.23
2.08
2.04
2.11
2.22
2.29
2.23
2.04
1.75
1.46
1.30
1.29
1.39
1.48
1.40
1.09
0.60
0.02
-0.51
-0.92
-1.19
-1.34
-1.41
-1.45
-1.52
-1.69
-2.01
-2.51
-3.09
-3.61
-3.91
-3.87
-3.49
-2.84
-2.04
-1.20
-0.41
0.32
0.95
1.48
1.88
2.14
2.27
2.26
2.14
1.93
1.64
1.30
0.94
0.61
0.34
0.18
0.14
0.18
0.27
0.35
0.41
0.42
0.37
0.24
0.01
-0.34
-0.76
-1.17
-1.46
-1.57
-1.49
-1.31
-1.19
-1.26
-1.59
-2.11
-2.65
-2.99
-2.97
-2.56
-1.83
-0.95
-0.06
0.77
1.52
2.22
2.87
3.41
3.77
3.88
3.74
3.44
3.05
2.68
2.35
2.06
1.76
1.41
1.01
0.57
0.09
-0.45
-1.07
-1.83
-2.71
-3.62
-4.42
-4.98
-5.21
-5.14
-4.89
-4.65
-4.56
-4.72
-5.14
-5.74
-6.40
-6.95
-7.23
-7.11
-6.57
-5.66
-4.52
-3.31
-2.12
-0.99
0.09
1.12
2.05
2.80
3.32
3.64
3.89
4.21
4.71
5.34
5.95
6.36
6.43
6.13
5.49
4.55
3.33
1.86
0.24
-1.29
-2.41
-2.82
-2.35
-1.03
0.92
3.23
5.68
8.16
10.64
13.13
15.58
17.89
19.95
21.75
23.38
25.10
27.19
29.91
33.33
37.33
41.64
45.87
49.70
52.86
55.20
56.60
56.98
56.29
54.53
51.77
48.16
43.90
39.21
34.35
29.57
25.11
21.13
17.70
14.71
11.96
9.23
6.35
3.24
-0.04
-3.40
-6.74
-9.93
-12.86
-15.38
-17.33
-18.66
-19.47
-20.03
-20.70
-21.78
-23.43
-25.60
-28.02
-30.35
-32.20
-33.25
-33.25
-32.07
-29.62
-25.80
-20.48
-13.52
-4.95
4.82
15.01
24.55
32.48
38.43
42.80
46.58
50.87
56.19
62.08
67.05
69.03
65.94
56.40
40.21
18.61
-5.76
-29.42
-48.89
-61.73
-67.26
-66.68
-62.51
-57.56
-53.87
-52.24
-52.40
-53.57
-55.08
-56.59
-58.01
-59.19
-59.75
-59.14
-56.99
-53.32
-48.60
-43.56
-38.92
-35.08
-32.07
-29.58
-27.20
-24.60
-21.67
-18.50
-15.33
-12.47
-10.12
-8.41
-7.27
-6.59
-6.22
-6.03
-6.00
-6.17
-6.62
-7.39
-8.47
-9.77
-11.13
-12.36
-13.33
-13.94
-14.20
-14.18
-13.98
-13.79
-13.80
-14.22
-15.21
-16.83
-18.92
-21.14
-22.99
-23.96
-23.71
-22.21
-19.73
-16.76
-13.79
-11.18
-9.07
-7.37
-5.92
-4.55
-3.19
-1.89
-0.78
0.02
0.49
0.74
0.97
1.42
2.25
3.49
4.98
6.41
7.37
7.44
6.34
4.04
0.88
-2.46
-5.15
-6.49
-6.22
-4.73
-2.93
-1.97
-2.69
-5.34
-9.41
-13.84
-17.49
-19.57
-19.88
-18.82
-17.09
-15.30
-13.78
-12.44
-11.03
-9.37
-7.51
-5.71
-4.26
-3.27
-2.62
-2.02
-1.21
-0.11
1.19
2.45
3.46
4.11
4.36
4.26
3.89
3.41
3.03
3.05
3.75
5.26
7.47
9.95
12.16
13.57
13.87
13.11
11.61
9.87
8.35
7.40
7.17
7.65
8.76
10.33
12.20
14.19
16.13
17.86
19.27
20.35
21.16
21.80
22.42
23.10
23.83
24.47
24.80
24.52
23.39
21.26
18.02
13.67
8.37
2.43
-3.61
-9.12
-13.56
-16.65
-18.52
-19.59
-20.34
-21.03
-21.61
-21.74
-21.04
-19.29
-16.54
-13.07
-9.25
-5.35
-1.52
2.19
5.76
9.18
12.39
15.37
18.10
20.52
22.50
23.75
23.90
22.58
19.52
14.83
9.01
2.97
-2.16
-5.44
-6.42
-5.40
-3.39
-1.73
-1.61
-3.57
-7.30
-11.79
-15.83
-18.45
-19.25
-18.42
-16.47
-13.92
-11.09
-8.11
-5.10
-2.27
0.03
1.50
2.08
2.03
1.84
2.03
2.89
4.37
6.10
7.47
7.76
6.34
2.90
-2.31
-8.49
-14.39
-18.76
-20.82
-20.60
-18.84
-16.62
-14.86
-13.96
-13.81
-14.07
-14.39
-14.61
-14.67
-14.43
-13.70
-12.26
-10.02
-7.15
-4.05
-1.16
1.18
2.88
4.06
4.99
5.93
7.09
8.56
10.25
12.04
13.84
15.73
18.04
21.18
25.43
30.65
36.17
40.93
43.84
44.26
42.32
38.89
35.11
31.94
29.67
27.98
26.21
23.79
20.60
16.98
13.52
10.72
8.76
7.48
6.55
5.69
4.83
4.05
3.47
3.10
2.80
2.35
1.59
0.54
-0.54
-1.29
-1.41
-0.75
0.56
2.17
3.62
4.46
4.45
3.60
2.21
0.76
-0.22
-0.34
0.52
2.21
4.36
6.55
8.43
9.76
10.46
10.56
10.23
9.74
9.41
9.53
10.21
11.31
12.42
13.03
12.67
11.13
8.52
5.33
2.33
0.31
-0.18
0.93
3.03
5.04
5.74
4.34
0.80
-4.06
-8.88
-12.35
-13.69
-12.92
-10.68
-7.89
-5.28
-3.21
-1.69
-0.54
0.37
1.05
1.42
1.46
1.25
1.08
1.21
1.80
2.75
3.72
4.26
4.02
2.93
1.21
-0.71
-2.49
-3.96
-5.26
-6.61
-8.14
-9.74
-11.02
-11.59
-11.23
-10.05
-8.43
-6.77
-5.31
-3.99
-2.55
-0.79
1.33
3.59
5.68
7.34
8.46
9.10
9.43
9.58
9.62
9.59
9.54
9.61
9.95
10.67
11.74
12.97
14.04
14.59
14.38
13.39
11.84
10.17
8.88
8.31
8.45
8.88
8.86
7.62
4.70
0.25
-4.99
-9.87
-13.29
-14.57
-13.68
-11.17
-7.87
-4.53
-1.62
0.76
2.67
4.20
5.36
6.12
6.49
6.64
6.78
7.06
7.41
7.56
7.20
6.19
4.65
2.91
1.28
-0.10
-1.30
-2.48
-3.71
-4.91
-5.91
-6.67
-7.41
-8.49
-10.22
-12.51
-14.86
-16.47
-16.66
-15.17
-12.36
-8.96
-5.75
-3.27
-1.53
-0.18
1.26
3.17
5.54
8.04
10.15
11.42
11.62
10.84
9.34
7.37
5.04
2.35
-0.62
-3.60
-6.19
-8.03
-9.09
-9.77
-10.63
-12.10
-14.12
-16.11
-17.27
-17.00
-15.18
-12.23
-8.84
-5.62
-2.87
-0.57
1.52
3.60
5.80
8.10
10.38
12.45
14.14
15.31
15.92
16.02
15.68
14.97
13.91
12.57
11.03
9.43
7.85
6.13
3.86
0.50
-4.20
-9.96
-15.86
-20.67
-23.44
-23.91
-22.68
-20.80
-19.23
-18.30
-17.68
-16.68
-14.71
-11.70
-8.06
-4.50
-1.58
0.50
1.90
2.99
4.08
5.29
6.43
7.21
7.35
6.78
5.69
4.43
3.35
2.63
2.30
2.26
2.49
2.93
3.50
3.94
3.83
2.84
0.89
-1.62
-3.96
-5.37
-5.37
-4.01
-1.74
0.85
3.38
5.76
8.12
10.61
13.19
15.57
17.29
17.90
17.11
14.94
11.73
8.11
4.77
2.31
0.97
0.68
1.11
1.89
2.72
3.41
3.66
2.98
0.68
-3.83
-10.63
-19.06
-27.71
-34.88
-39.21
-40.23
-38.47
-35.23
-31.94
-29.55
-28.26
-27.56
-26.73
-25.21
-22.93
-20.18
-17.37
-14.70
-12.01
-8.91
-5.09
-0.61
4.05
8.08
10.70
11.41
10.20
7.44
3.77
-0.11
-3.59
-6.19
-7.63
-7.87
-7.19
-6.08
-5.16
-4.89
-5.40
-6.39
-7.29
-7.54
-6.84
-5.22
-2.96
-0.37
2.36
5.19
8.09
10.98
13.62
15.74
17.15
17.86
18.09
18.13
18.19
18.33
18.42
18.28
17.76
16.70
14.90
12.08
8.02
2.74
-3.29
-9.18
-13.94
-16.98
-18.39
-18.89
-19.41
-20.54
-22.17
-23.59
-23.93
-22.70
-20.04
-16.64
-13.32
-10.68
-8.85
-7.62
-6.59
-5.53
-4.45
-3.57
-3.12
-3.13
-3.31
-3.12
-2.03
0.21
3.39
6.97
10.40
13.42
16.16
18.93
21.86
24.64
26.55
26.86
25.28
22.20
18.53
15.33
13.26
12.37
12.18
12.03
11.48
10.43
9.14
7.95
7.07
6.51
6.09
5.65
5.11
4.52
4.07
3.88
3.99
4.24
4.38
4.11
3.24
1.82
0.11
-1.49
-2.59
-3.01
-2.88
-2.55
-2.46
-2.88
-3.84
-5.03
-5.99
-6.29
-5.71
-4.33
-2.45
-0.48
1.25
2.55
3.40
3.90
4.20
4.42
4.67
5.02
5.50
6.18
7.03
7.99
8.94
9.77
10.44
11.07
11.83
12.88
14.16
15.35
15.87
15.10
12.62
8.42
2.99
-2.78
-7.91
-11.55
-13.28
-13.17
-11.71
-9.64
-7.63
-6.15
-5.31
-4.97
-4.88
-4.86
-4.81
-4.70
-4.50
-4.15
-3.56
-2.69
-1.63
-0.60
0.15
0.37
-0.03
-1.01
-2.43
-4.05
-5.55
-6.64
-7.06
-6.76
-5.92
-4.95
-4.29
-4.24
-4.76
-5.49
-5.91
-5.57
-4.30
-2.26
0.17
2.54
4.51
5.93
6.79
7.22
7.37
7.40
7.41
7.49
7.69
8.00
8.40
8.82
9.15
9.26
9.09
8.68
8.18
7.84
7.86
8.27
8.82
9.03
8.39
6.57
3.67
0.18
-3.17
-5.69
-6.99
-7.11
-6.39
-5.29
-4.17
-3.24
-2.56
-2.12
-1.95
-2.07
-2.44
-2.89
-3.19
-3.14
-2.71
-2.10
-1.62
-1.59
-2.12
-3.11
-4.34
-5.64
-7.01
-8.53
-10.25
-12.02
-13.49
-14.26
-14.13
-13.19
-11.81
-10.34
-8.94
-7.47
-5.58
-3.02
0.20
3.73
7.01
9.57
11.21
12.10
12.70
13.45
14.64
16.28
18.15
19.96
21.50
22.72
23.69
24.54
25.37
26.15
26.75
26.91
26.25
24.35
20.88
15.77
9.38
2.40
-4.39
-10.40
-15.45
-19.61
-23.04
-25.68
-27.28
-27.55
-26.42
-24.22
-21.56
-19.09
-17.23
-16.00
-15.15
-14.33
-13.33
-12.13
-10.91
-9.97
-9.58
-9.91
-10.92
-12.44
-14.19
-15.93
-17.49
-18.71
-19.39
-19.25
-18.03
-15.77
-12.86
-10.03
-8.00
-7.09
-7.09
-7.30
-6.95
-5.61
-3.37
-0.76
1.61
3.34
4.41
5.12
5.79
6.59
7.46
8.19
8.56
8.53
8.26
8.05
8.19
8.80
9.75
10.74
11.37
11.35
10.54
9.06
7.19
5.32
3.82
3.00
2.98
3.70
4.87
6.06
6.78
6.70
5.72
4.03
2.07
0.36
-0.72
-0.98
-0.48
0.55
1.79
3.03
4.10
4.94
5.54
5.89
5.96
5.72
5.18
4.41
3.53
2.65
1.86
1.12
0.32
-0.71
-2.04
-3.63
-5.24
-6.53
-7.20
-7.08
-6.32
-5.29
-4.50
-4.32
-4.80
-5.58
-6.09
-5.77
-4.40
-2.19
0.27
2.37
3.72
4.38
4.73
5.29
6.36
7.94
9.72
11.29
12.40
13.04
13.45
13.95
14.71
15.70
16.69
17.35
17.40
16.71
15.33
13.41
11.09
8.47
5.63
2.81
0.38
-1.15
-1.37
-0.21
1.96
4.44
6.43
7.38
7.21
6.24
5.00
3.90
3.08
2.55
2.28
2.43
3.27
4.92
7.18
9.41
10.80
10.75
9.26
6.96
4.84
3.69
3.63
4.00
3.55
1.02
-4.44
-12.89
-23.60
-35.18
-45.97
-54.43
-59.56
-61.19
-60.00
-57.28
-54.37
-52.10
-50.52
-48.97
-46.53
-42.53
-36.85
-29.87
-22.30
-14.81
-7.86
-1.72
3.51
7.73
10.93
13.16
14.62
15.63
16.55
17.66
19.07
20.69
22.24
23.36
23.75
23.30
22.17
20.75
19.51
18.74
18.40
18.05
17.06
14.98
11.77
7.92
4.21
1.38
-0.18
-0.59
-0.31
0.14
0.40
0.39
0.24
0.16
0.26
0.53
0.84
1.12
1.29
1.42
1.55
1.73
1.96
2.20
2.52
2.98
3.68
4.54
5.30
5.56
5.00
3.62
1.79
0.18
-0.59
-0.20
1.18
3.03
4.67
5.56
5.40
4.10
1.81
-1.25
-4.82
-8.59
-12.35
-16.00
-19.58
-23.18
-26.78
-30.22
-33.11
-35.03
-35.63
-34.76
-32.45
-28.89
-24.32
-19.01
-13.27
-7.42
-1.67
3.96
9.59
15.34
21.06
26.19
29.86
31.23
29.93
26.32
21.41
16.49
12.59
10.15
8.98
8.58
8.38
8.07
7.61
7.09
6.63
6.23
5.82
5.33
4.75
4.17
3.74
3.60
3.79
4.26
4.80
5.16
5.09
4.45
3.31
1.90
0.63
-0.10
-0.07
0.63
1.60
2.28
2.25
1.38
-0.05
-1.52
-2.51
-2.74
-2.26
-1.35
-0.37
0.41
0.91
1.18
1.32
1.41
1.52
1.69
1.94
2.31
2.79
3.31
3.74
3.97
3.87
3.48
2.91
2.40
2.19
2.42
3.07
3.93
4.62
4.82
4.30
3.09
1.45
-0.20
-1.47
-2.07
-1.95
-1.29
-0.42
0.35
0.79
0.83
0.57
0.14
-0.35
-0.83
-1.30
-1.73
-2.06
-2.22
-2.19
-2.06
-2.00
-2.18
-2.66
-3.32
-3.93
-4.18
-3.90
-3.08
-1.95
-0.80
0.08
0.54
0.55
0.19
-0.42
-1.19
-2.00
-2.69
-3.04
-2.86
-2.10
-0.89
0.48
1.62
2.28
2.36
1.94
1.23
0.43
-0.27
-0.79
-1.03
-0.93
-0.47
0.26
1.07
1.74
2.08
2.01
1.54
0.77
-0.21
-1.25
-2.15
-2.68
-2.65
-2.00
-0.87
0.35
1.20
1.34
0.74
-0.28
-1.22
-1.57
-1.12
0.01
1.41
2.63
3.34
3.47
3.15
2.62
2.08
1.66
1.40
1.30
1.32
1.45
1.67
1.91
2.13
2.28
2.34
2.32
2.26
2.17
2.11
2.12
2.19
2.31
2.37
2.27
1.93
1.32
0.49
-0.47
-1.47
-2.39
-3.14
-3.64
-3.83
-3.72
-3.38
-2.96
-2.61
-2.41
-2.37
-2.35
-2.19
-1.68
-0.69
0.76
2.46
4.03
5.04
5.09
4.05
2.09
-0.29
-2.43
-3.65
-3.53
-2.06
0.24
2.35
3.01
1.16
-3.52
-10.28
-17.38
-22.71
-24.60
-22.61
-17.62
-11.42
-5.83
-1.89
0.38
1.72
2.94
4.44
6.03
7.22
7.65
7.36
6.80
6.41
6.37
6.45
6.15
5.10
3.33
1.34
-0.14
-0.58
0.02
1.08
1.74
1.29
-0.42
-2.84
-5.04
-6.14
-5.76
-4.17
-2.10
-0.33
0.69
0.97
0.91
0.98
1.39
2.05
2.66
2.93
2.79
2.43
2.18
2.36
3.11
4.28
5.59
6.66
7.21
7.10
6.41
5.33
4.15
3.17
2.69
2.83
3.56
4.64
5.64
6.14
5.85
4.76
3.22
1.75
0.84
0.79
1.53
2.75
4.03
4.99
5.36
5.04
4.04
2.48
0.55
-1.46
-3.22
-4.47
-5.08
-5.12
-4.79
-4.35
-4.00
-3.79
-3.67
-3.48
-3.04
-2.20
-0.89
0.71
2.20
2.98
2.46
0.39
-2.97
-6.79
-9.98
-11.60
-11.24
-9.15
-6.09
-2.97
-0.52
0.87
1.21
0.71
-0.30
-1.46
-2.46
-3.03
-2.97
-2.19
-0.75
1.14
3.11
4.73
5.63
5.58
4.66
3.20
1.73
0.75
0.54
1.03
1.83
2.41
2.30
1.35
-0.25
-2.04
-3.48
-4.21
-4.12
-3.37
-2.24
-1.00
0.24
1.48
2.77
4.16
5.62
7.05
8.34
9.43
10.32
11.13
11.95
12.82
13.64
14.19
14.15
13.19
10.96
7.25
2.08
-4.18
-10.74
-16.57
-20.70
-22.65
-22.62
-21.47
-20.22
-19.59
-19.65
-19.83
-19.36
-17.71
-14.86
-11.29
-7.69
-4.65
-2.53
-1.43
-1.33
-2.14
-3.74
-5.92
-8.31
-10.48
-12.02
-12.64
-12.21
-10.81
-8.58
-5.71
-2.37
1.38
5.49
9.90
14.41
18.55
21.69
23.12
22.41
19.62
15.40
10.77
6.78
4.05
2.61
1.98
1.56
0.90
-0.06
-1.10
-1.95
-2.46
-2.69
-2.80
-2.86
-2.81
-2.49
-1.81
-0.84
0.17
0.91
1.20
1.07
0.69
0.24
-0.24
-0.89
-1.83
-3.04
-4.20
-4.87
-4.67
-3.63
-2.18
-1.02
-0.73
-1.43
-2.75
-3.94
-4.29
-3.46
-1.59
0.77
2.96
4.42
4.88
4.36
3.10
1.46
-0.19
-1.50
-2.27
-2.40
-2.00
-1.28
-0.56
-0.10
-0.01
-0.13
-0.06
0.72
2.53
5.32
8.53
11.26
12.58
11.97
9.54
6.02
2.41
-0.38
-1.92
-2.31
-1.96
-1.35
-0.78
-0.29
0.19
0.72
1.20
1.46
1.33
0.81
0.11
-0.41
-0.42
0.23
1.43
2.86
4.11
4.80
4.65
3.50
1.31
-1.75
-5.24
-8.43
-10.59
-11.21
-10.31
-8.43
-6.44
-5.12
-4.77
-5.15
-5.66
-5.70
-5.02
-3.73
-2.21
-0.85
0.21
1.01
1.76
2.62
3.59
4.56
5.34
5.83
6.05
6.18
6.37
6.66
6.98
7.14
7.02
6.71
6.51
6.77
7.68
9.07
10.41
10.96
10.09
7.66
4.05
0.11
-3.21
-5.24
-5.83
-5.32
-4.35
-3.52
-3.12
-3.11
-3.19
-3.05
-2.54
-1.73
-0.81
-0.04
0.50
0.87
1.25
1.82
2.68
3.70
4.64
5.20
5.18
4.47
3.11
1.22
-0.99
-3.24
-5.24
-6.75
-7.69
-8.21
-8.58
-9.05
-9.61
-9.98
-9.66
-8.27
-5.78
-2.55
0.76
3.56
5.60
7.04
8.25
9.62
11.28
13.07
14.64
15.63
15.89
15.50
14.75
13.96
13.34
12.85
12.27
11.30
9.66
7.28
4.26
0.84
-2.66
-5.90
-8.60
-10.55
-11.76
-12.47
-13.11
-14.12
-15.66
-17.47
-18.88
-19.11
-17.67
-14.61
-10.49
-6.15
-2.31
0.72
3.05
5.02
6.90
8.75
10.38
11.52
11.96
11.66
10.78
9.61
8.47
7.62
7.11
6.81
6.50
5.93
4.92
3.37
1.16
-1.90
-6.01
-11.26
-17.42
-23.83
-29.50
-33.43
-34.98
-34.13
-31.49
-27.99
-24.51
-21.57
-19.20
-17.11
-14.93
-12.46
-9.72
-6.95
-4.40
-2.20
-0.31
1.39
3.01
4.58
6.00
7.09
7.70
7.70
7.09
6.00
4.75
3.83
3.68
4.58
6.39
8.53
10.18
10.67
9.81
7.97
5.99
4.69
4.53
5.46
6.99
8.49
9.53
9.99
10.02
9.86
9.68
9.53
9.36
9.17
8.98
8.84
8.70
8.37
7.52
5.82
3.16
-0.19
-3.69
-6.66
-8.63
-9.52
-9.71
-9.75
-10.18
-11.17
-12.54
-13.80
-14.46
-14.22
-13.09
-11.37
-9.47
-7.74
-6.34
-5.20
-4.21
-3.26
-2.37
-1.66
-1.19
-0.85
-0.37
0.58
2.19
4.30
6.46
8.09
8.78
8.46
7.47
6.33
5.61
5.66
6.55
8.08
9.80
11.18
11.72
11.15
9.56
7.40
5.33
3.92
3.42
3.65
4.08
4.16
3.58
2.39
0.93
-0.46
-1.58
-2.52
-3.46
-4.58
-5.87
-7.15
-8.20
-8.86
-9.13
-9.11
-8.87
-8.39
-7.59
-6.44
-5.09
-3.87
-3.11
-3.03
-3.53
-4.30
-4.94
-5.21
-5.11
-4.80
-4.46
-4.13
-3.68
-2.92
-1.80
-0.46
0.77
1.54
1.68
1.27
0.61
0.07
-0.06
0.30
1.01
1.81
2.47
2.84
2.92
2.80
2.63
2.49
2.41
2.35
2.23
2.01
1.70
1.46
1.45
1.84
2.64
3.66
4.58
5.06
4.90
4.18
3.24
2.46
2.13
2.26
2.63
2.92
2.89
2.53
2.00
1.53
1.29
1.28
1.37
1.37
1.17
0.77
0.28
-0.12
-0.25
-0.04
0.45
1.04
1.55
1.83
1.85
1.69
1.43
1.11
0.70
0.18
-0.38
-0.80
-0.92
-0.72
-0.38
-0.22
-0.47
-1.13
-1.92
-2.48
-2.53
-2.05
-1.26
-0.44
0.21
0.71
1.17
1.70
2.31
2.91
3.35
3.55
3.54
3.42
3.40
3.62
4.14
4.90
5.70
6.31
6.51
6.26
5.62
4.80
4.00
3.39
3.04
2.94
3.04
3.18
3.14
2.62
1.39
-0.52
-2.73
-4.60
-5.46
-4.96
-3.22
-0.85
1.38
2.82
3.24
2.86
2.14
1.56
1.38
1.65
2.18
2.76
3.20
3.37
3.22
2.71
1.84
0.69
-0.60
-1.76
-2.47
-2.52
-1.94
-1.03
-0.32
-0.31
-1.22
-2.85
-4.58
-5.72
-5.83
-4.96
-3.72
-3.02
-3.66
-6.01
-9.78
-14.17
-18.13
-20.75
-21.60
-20.89
-19.44
-18.42
-18.90
-21.39
-25.65
-30.67
-35.07
-37.57
-37.40
-34.39
-28.85
-21.30
-12.29
-2.40
7.64
16.90
24.34
29.00
30.37
28.60
24.47
19.19
13.98
9.78
7.00
5.62
5.31
5.64
6.11
6.23
5.65
4.28
2.47
1.05
0.99
3.00
7.05
12.29
17.34
20.87
22.16
21.29
18.95
15.99
13.05
10.41
8.10
6.05
4.25
2.70
1.38
0.19
-1.03
-2.36
-3.77
-5.15
-6.43
-7.66
-9.00
-10.63
-12.59
-14.71
-16.66
-18.08
-18.76
-18.72
-18.16
-17.43
-16.89
-16.86
-17.58
-19.12
-21.39
-24.16
-27.15
-30.17
-33.27
-36.65
-40.53
-44.92
-49.63
-54.19
-58.08
-60.86
-62.26
-62.27
-61.16
-59.58
-58.39
-58.25
-59.05
-59.60
-57.69
-50.95
-37.83
-18.52
4.99
29.60
52.22
70.80
84.75
94.71
101.83
107.18
111.47
115.12
118.49
122.08
126.45
131.97
138.67
146.03
153.11
158.86
162.59
164.28
164.62
164.82
166.14
169.34
174.53
181.17
188.44
195.63
202.42
209.00
215.95
224.06
234.10
246.60
261.53
277.96
293.89
306.32
311.88
307.80
292.80
267.67
234.94
197.96
159.65
121.70
84.25
46.48
7.28
-33.94
-76.97
-120.99
-165.09
-208.82
-252.25
-296.04
-341.34
-389.75
-442.65
-500.32
-560.95
-620.18
-671.62
-708.25
-724.34
-717.18
-688.02
-641.16
-582.34
-516.86
-448.47
-379.12
-309.26
-238.65
-167.09
-95.94
-27.84
33.72
85.12
123.26
146.44
155.42
153.92
148.25
144.23
146.70
158.59
180.37
209.70
241.56
269.80
288.93
295.66
286.97
262.78
226.78
185.97
148.29
119.17
100.12
88.88
80.54
66.23
38.51
-5.54
-63.16
-127.90
-193.37
-255.05
-310.53
-338.23
-322.66
-262.28
-172.77
-76.30
11.33
83.51
140.31
184.94
220.88
248.03
265.41
273.45
273.01
269.32
266.23
265.71
268.45
273.89
278.79
279.78
275.17
265.72
253.73
240.31
224.65
209.83
196.37
182.68
166.31
146.02
122.70
98.94
76.92
57.95
42.66
30.54
20.05
7.38
-9.99
-31.86
-55.41
-77.57
-96.17
-110.14
-119.65
-126.17
-136.14
-154.27
-180.87
-211.79
-241.76
-266.83
-285.02
-295.90
-301.35
-311.31
-333.35
-368.53
-411.25
-453.99
-491.24
-520.71
-541.98
-558.08
-582.14
-623.85
-684.55
-757.64
-835.12
-911.82
-985.32
-1052.15
-1046.46
-930.73
-715.19
-453.23
-202.35
2.85
151.90
243.45
299.43
335.51
352.30
349.06
329.73
304.36
280.92
265.13
259.35
264.69
278.45
290.21
291.96
281.83
264.22
245.25
229.69
219.78
217.09
220.61
224.63
225.03
221.53
217.47
216.37
219.45
224.85
229.51
229.66
221.97
207.21
190.35
178.21
175.57
183.16
198.03
216.36
235.35
254.41
275.68
302.25
335.79
374.82
414.73
449.16
471.93
478.43
466.87
439.25
401.16
361.13
328.51
310.36
308.55
318.70
331.77
337.95
330.76
309.33
277.54
241.04
203.81
166.58
127.65
85.18
38.82
-10.30
-60.60
-110.80
-159.30
-202.90
-235.88
-251.01
-242.42
-208.61
-153.82
-86.82
-17.61
45.82
99.09
140.88
171.06
189.03
193.67
184.41
162.71
132.53
99.60
69.62
46.68
32.41
25.80
24.24
24.57
24.13
21.13
14.63
4.08
-11.25
-32.37
-60.17
-94.33
-132.41
-169.66
-200.29
-219.47
-225.54
-220.97
-211.35
-202.86
-199.37
-200.85
-203.77
-203.10
-195.18
-179.45
-158.64
-137.87
-122.87
-118.55
-127.72
-150.18
-181.99
-215.69
-241.60
-250.33
-235.65
-196.76
-138.59
-70.43
-2.97
54.67
97.12
122.95
133.80
132.76
123.03
107.59
89.55
72.64
61.15
58.75
66.68
82.40
99.49
109.84
106.44
86.09
50.34
3.91
-47.44
-98.97
-147.33
-190.11
-225.37
-251.86
-270.03
-282.42
-292.54
-302.83
-312.19
-315.34
-304.47
-272.78
-218.19
-145.24
-64.53
10.57
67.86
99.61
104.08
85.02
50.02
8.12
-32.32
-65.15
-87.18
-97.97
-99.34
-94.76
-88.48
-84.69
-86.53
-95.27
-109.71
-126.43
-140.92
-148.97
-148.24
-138.96
-123.46
-105.02
-87.02
-72.64
-65.00
-67.16
-81.04
-105.55
-135.63
-162.65
-177.31
-173.47
-151.20
-117.12
-81.86
-55.92
-45.67
-51.61
-69.08
-90.64
-108.55
-116.85
-112.21
-94.16
-64.93
-29.09
7.17
37.28
55.61
58.91
47.16
23.79
-5.31
-33.18
-53.85
-63.92
-63.61
-56.66
-49.02
-46.70
-53.57
-70.11
-93.37
-118.29
-139.63
-153.50
-157.89
-152.43
-137.66
-114.65
-85.17
-51.89
-17.97
13.65
41.40
65.81
89.19
114.60
144.66
180.75
222.76
268.97
316.11
359.51
393.85
414.62
419.76
410.74
392.12
369.63
347.66
327.47
307.24
283.59
253.62
216.25
172.09
122.32
67.55
7.51
-58.10
-127.96
-198.03
-261.59
-310.35
-336.89
-337.01
-311.57
-267.04
-214.50
-166.87
-135.49
-126.96
-141.38
-172.83
-211.83
-248.74
-276.69
-292.96
-298.36
-295.30
-285.85
-270.71
-249.64
-222.80
-191.63
-158.88
-127.45
-99.08
-73.43
-48.55
-21.94
7.70
39.73
71.87
101.32
125.99
145.04
158.68
167.62
172.77
175.15
176.40
179.13
186.63
202.23
228.11
264.39
308.38
354.79
396.39
425.56
436.03
424.73
393.01
347.00
296.32
251.62
221.84
211.46
219.40
239.55
262.25
276.84
274.08
248.37
199.45
132.99
59.66
-7.41
-56.36
-80.51
-80.48
-63.88
-42.56
-28.79
-31.57
-54.88
-97.41
-152.98
-212.05
-263.46
-297.37
-307.92
-295.17
-264.65
-225.42
-186.60
-154.25
-130.15
-112.16
-96.30
-78.61
-56.09
-26.35
12.08
59.78
116.38
180.25
248.32
315.83
376.86
425.74
460.24
480.56
488.61
486.69
476.19
457.29
429.23
391.30
344.28
293.98
246.15
203.19
162.74
119.56
69.61
13.17
-43.99
-91.98
-115.34
-103.66
-56.02
19.61
111.29
208.60
304.19
392.34
466.95
527.57
572.62
599.19
605.24
591.93
565.17
532.87
501.15
431.43
304.79
130.13
-58.95
-226.85
-356.16
-445.96
-503.02
-535.32
-549.42
-546.59
-528.14
-498.67
-465.86
-439.58
-425.16
-422.55
-428.53
-439.45
-450.92
-457.04
-458.04
-458.39
-467.05
-489.87
-527.10
-573.55
-619.50
-652.87
-662.43
-642.13
-573.96
-460.16
-321.81
-187.97
-86.37
-13.28
42.27
90.57
137.00
183.28
227.08
268.42
310.74
358.49
413.80
471.24
521.15
552.74
558.62
535.06
485.82
420.55
350.40
284.21
223.97
168.38
115.58
64.84
15.08
-34.14
-83.03
-132.13
-182.04
-234.92
-292.27
-354.17
-418.46
-481.52
-537.77
-580.98
-606.72
-614.37
-608.30
-595.04
-579.88
-564.41
-546.68
-523.08
-491.23
-452.00
-409.11
-367.25
-329.16
-294.44
-260.52
-224.96
-187.34
-149.82
-116.23
-90.44
-74.70
-68.80
-70.28
-75.21
-79.65
-80.85
-77.97
-72.05
-65.13
-59.07
-54.67
-51.49
-48.38
-44.41
-39.50
-34.46
-30.38
-27.89
-26.55
-25.09
-22.04
-16.41
-8.16
1.78
11.98
21.19
28.86
35.35
41.69
49.06
58.26
69.31
81.45
93.57
104.64
114.30
122.99
131.80
141.99
154.46
169.37
186.10
203.68
221.11
237.93
254.31
270.88
288.52
308.18
330.76
356.94
386.57
417.99
447.66
470.72
482.39
479.83
463.36
436.36
403.83
370.27
338.31
308.38
279.67
251.38
223.49
196.64
171.54
148.38
126.81
106.41
87.21
69.95
55.67
45.30
38.90
35.41
32.92
29.34
23.23
14.45
4.23
-5.31
-12.04
-14.65
-12.96
-7.72
-0.16
8.46
16.87
23.70
27.54
27.35
23.05
15.82
7.88
1.54
-1.73
-1.94
-0.32
1.48
2.28
1.82
0.46
-1.34
-3.58
-6.61
-10.77
-15.84
-20.68
-23.93
-24.71
-23.00
-19.55
-15.32
-11.07
-7.13
-3.46
0.46
4.97
10.02
15.13
19.68
23.22
25.57
26.86
27.40
28.43
30.92
35.06
40.14
45.01
48.73
50.85
51.41
50.82
51.87
56.68
65.59
76.92
88.23
97.67
104.46
108.61
110.52
115.33
126.86
145.57
168.20
190.30
208.73
222.44
231.65
237.07
246.74
266.61
297.42
334.15
369.78
399.34
421.00
435.01
442.65
455.08
480.96
522.08
572.36
622.71
666.41
700.75
725.84
683.25
542.00
311.17
39.40
-217.52
-425.89
-577.42
-678.63
-741.06
-776.15
-783.86
-764.42
-722.74
-669.45
-616.35
-571.34
-537.28
-513.60
-498.27
-481.73
-456.72
-421.70
-381.26
-342.34
-309.82
-285.34
-268.35
-257.36
-246.19
-230.08
-207.83
-182.17
-157.38
-136.54
-120.77
-109.80
-102.70
-96.17
-87.60
-76.23
-63.34
-51.07
-41.00
-33.76
-29.06
-26.35
-24.18
-21.42
-17.71
-13.44
-9.36
-6.01
-3.58
-1.96
-1.01
-0.53
-0.37
-0.43
-0.63
-0.89
-1.17
-1.40
-1.57
-1.69
-1.80
-1.92
-2.06
-2.22
-2.38
-2.50
-2.59
-2.63
-2.61
-2.53
-2.40
-2.23
-2.05
-1.91
-1.87
-1.94
-2.12
-2.37
-2.62
-2.81
-2.86
-2.73
-2.39
-1.88
-1.25
-0.61
-0.10
0.18
0.19
-0.05
-0.44
-0.87
-1.27
-1.61
-1.94
-2.26
-2.57
-2.82
-2.96
-2.95
-2.79
-2.50
-2.14
-1.75
-1.39
-1.11
-0.92
-0.82
-0.77
-0.70
-0.58
-0.42
-0.28
-0.20
-0.18
-0.17
-0.10
0.06
0.25
0.38
0.36
0.14
-0.26
-0.77
-1.27
-1.67
-1.91
-1.94
-1.81
-1.58
-1.37
-1.28
-1.33
-1.50
-1.67
-1.74
-1.67
-1.47
-1.20
-0.96
-0.80
-0.71
-0.66
-0.62
-0.53
-0.40
-0.21
-0.02
0.15
0.23
0.18
-0.02
-0.31
-0.64
-0.88
-0.96
-0.84
-0.55
-0.21
0.06
0.14
0.03
-0.20
-0.43
-0.57
-0.60
-0.60
-0.64
-0.77
-0.97
-1.14
-1.22
-1.19
-1.11
-1.07
-1.13
-1.28
-1.46
-1.60
-1.64
-1.57
-1.41
-1.23
-1.09
-1.03
-1.06
-1.18
-1.35
-1.52
-1.65
-1.71
-1.71
-1.68
-1.61
-1.53
-1.39
-1.20
-0.95
-0.65
-0.35
-0.06
0.16
0.32
0.40
0.43
0.44
0.45
0.47
0.49
0.47
0.42
0.31
0.15
-0.08
-0.36
-0.69
-1.00
-1.22
-1.28
-1.15
-0.90
-0.65
-0.48
-0.45
-0.54
-0.63
-0.67
-0.61
-0.50
-0.37
-0.28
-0.18
-0.05
0.13
0.31
0.42
0.44
0.35
0.23
0.16
0.13
0.11
0.02
-0.21
-0.56
-0.95
-1.27
-1.40
-1.31
-1.01
-0.61
-0.23
-0.04
-0.10
-0.40
-0.84
-1.26
-1.55
-1.67
-1.64
-1.54
-1.43
-1.36
-1.33
-1.31
-1.27
-1.19
-1.06
-0.91
-0.74
-0.57
-0.40
-0.23
-0.04
0.16
0.33
0.43
0.43
0.37
0.30
0.31
0.45
0.67
0.90
1.03
1.03
0.91
0.70
0.44
0.15
-0.19
-0.55
-0.92
-1.24
-1.48
-1.62
-1.67
-1.65
-1.58
-1.49
-1.39
-1.30
-1.21
-1.08
-0.86
-0.58
-0.31
-0.15
-0.20
-0.44
-0.74
-0.94
-0.96
-0.80
-0.61
-0.47
-0.41
-0.34
-0.11
0.35
1.00
1.70
2.28
2.68
2.91
3.00
2.99
2.84
2.53
2.09
1.63
1.28
1.15
1.21
1.35
1.40
1.26
0.96
0.59
0.31
0.22
0.32
0.53
0.76
0.92
0.98
0.95
0.85
0.67
0.42
0.13
-0.12
-0.24
-0.20
-0.02
0.18
0.30
0.26
0.10
-0.09
-0.23
-0.29
-0.33
-0.46
-0.68
-0.95
-1.13
-1.08
-0.81
-0.42
-0.13
-0.12
-0.48
-1.15
-1.93
-2.60
-2.99
-3.04
-2.80
-2.38
-1.88
-1.39
-0.94
-0.52
-0.13
0.26
0.67
1.08
1.48
1.82
2.05
2.17
2.17
2.11
2.03
1.97
1.92
1.83
1.68
1.46
1.20
0.98
0.85
0.85
0.96
1.11
1.20
1.16
0.96
0.63
0.26
-0.07
-0.35
-0.57
-0.82
-1.13
-1.50
-1.87
-2.15
-2.26
-2.17
-1.92
-1.52
-1.02
-0.41
0.24
0.88
1.41
1.71
1.77
1.66
1.48
1.36
1.35
1.42
1.48
1.47
1.38
1.26
1.15
1.10
1.07
1.04
0.99
0.95
0.93
0.94
0.96
0.91
0.78
0.56
0.34
0.17
0.09
0.03
-0.11
-0.41
-0.86
-1.39
-1.84
-2.05
-1.94
-1.56
-0.98
-0.33
0.29
0.81
1.19
1.41
1.47
1.40
1.32
1.32
1.45
1.67
1.90
2.00
1.92
1.65
1.28
0.91
0.63
0.47
0.38
0.33
0.28
0.22
0.19
0.26
0.47
0.81
1.20
1.51
1.62
1.44
0.98
0.33
-0.40
-1.06
-1.55
-1.78
-1.76
-1.56
-1.27
-0.97
-0.70
-0.45
-0.16
0.16
0.49
0.77
0.93
1.00
1.03
1.10
1.24
1.42
1.55
1.54
1.38
1.13
0.94
0.89
0.99
1.13
1.19
1.05
0.74
0.37
0.08
-0.00
0.10
0.27
0.37
0.32
0.12
-0.17
-0.47
-0.76
-1.07
-1.42
-1.79
-2.14
-2.37
-2.42
-2.28
-1.98
-1.59
-1.17
-0.78
-0.43
-0.11
0.18
0.51
0.86
1.20
1.50
1.71
1.83
1.89
1.98
2.10
2.23
2.30
2.22
2.04
1.85
1.80
1.97
2.34
2.80
3.17
3.36
3.38
3.32
3.29
3.32
3.35
3.28
2.99
2.46
1.72
0.85
-0.08
-1.02
-1.98
-2.94
-3.82
-4.52
-4.93
-4.98
-4.71
-4.22
-3.66
-3.09
-2.54
-1.95
-1.28
-0.52
0.24
0.89
1.32
1.47
1.40
1.19
0.97
0.80
0.70
0.65
0.57
0.38
0.06
-0.36
-0.79
-1.12
-1.29
-1.33
-1.34
-1.43
-1.65
-1.94
-2.20
-2.31
-2.23
-2.00
-1.72
-1.47
-1.30
-1.20
-1.11
-1.01
-0.86
-0.67
-0.46
-0.26
-0.09
0.03
0.13
0.25
0.40
0.57
0.71
0.77
0.69
0.48
0.19
-0.09
-0.32
-0.46
-0.54
-0.54
-0.47
-0.31
-0.07
0.18
0.32
0.24
-0.11
-0.66
-1.27
-1.78
-2.05
-2.05
-1.85
-1.56
-1.32
-1.19
-1.16
-1.13
-1.00
-0.70
-0.21
0.36
0.88
1.24
1.40
1.41
1.38
1.36
1.38
1.38
1.30
1.16
1.03
1.01
1.17
1.48
1.79
1.95
1.86
1.53
1.06
0.63
0.35
0.24
0.23
0.20
0.05
-0.28
-0.72
-1.17
-1.54
-1.76
-1.82
-1.77
-1.67
-1.57
-1.48
-1.35
-1.13
-0.80
-0.37
0.08
0.47
0.73
0.84
0.81
0.70
0.58
0.50
0.48
0.52
0.57
0.58
0.48
0.28
-0.01
-0.33
-0.59
-0.74
-0.75
-0.61
-0.37
-0.11
0.06
0.03
-0.26
-0.74
-1.29
-1.72
-1.88
-1.74
-1.39
-0.99
-0.70
-0.61
-0.72
-0.90
-1.01
-0.91
-0.56
-0.02
0.60
1.13
1.44
1.51
1.38
1.12
0.87
0.71
0.68
0.80
1.02
1.26
1.45
1.52
1.45
1.27
1.04
0.81
0.60
0.40
0.23
0.08
-0.03
-0.11
-0.20
-0.36
-0.62
-0.94
-1.28
-1.55
-1.69
-1.69
-1.57
-1.39
-1.18
-0.98
-0.76
-0.50
-0.21
0.10
0.40
0.67
0.92
1.16
1.41
1.64
1.79
1.81
1.70
1.53
1.41
1.42
1.60
1.86
2.09
2.17
2.06
1.80
1.44
1.05
0.71
0.45
0.34
0.39
0.59
0.88
1.14
1.29
1.25
1.07
0.79
0.46
0.12
-0.24
-0.60
-0.96
-1.26
-1.48
-1.59
-1.59
-1.49
-1.31
-1.08
-0.84
-0.62
-0.47
-0.40
-0.37
-0.31
-0.15
0.14
0.52
0.88
1.09
1.12
0.98
0.77
0.60
0.52
0.53
0.57
0.59
0.56
0.49
0.39
0.27
0.12
-0.07
-0.25
-0.34
-0.29
-0.14
0.01
0.03
-0.17
-0.54
-0.96
-1.30
-1.50
-1.58
-1.63
-1.72
-1.87
-2.00
-2.03
-1.91
-1.60
-1.12
-0.54
0.09
0.64
1.04
1.20
1.14
0.92
0.70
0.58
0.59
0.69
0.76
0.71
0.54
0.31
0.14
0.11
0.21
0.40
0.58
0.68
0.66
0.53
0.31
-0.01
-0.39
-0.79
-1.13
-1.30
-1.25
-0.99
-0.60
-0.21
0.05
0.11
-0.03
-0.31
-0.67
-0.99
-1.20
-1.22
-1.04
-0.70
-0.27
0.16
0.55
0.88
1.14
1.35
1.46
1.45
1.32
1.15
1.04
1.05
1.21
1.43
1.59
1.61
1.46
1.23
0.99
0.85
0.81
0.80
0.73
0.58
0.35
0.13
-0.00
-0.04
-0.03
-0.04
-0.15
-0.34
-0.54
-0.67
-0.70
-0.66
-0.63
-0.67
-0.76
-0.83
-0.79
-0.60
-0.32
-0.10
-0.06
-0.22
-0.49
-0.67
-0.60
-0.21
0.40
1.03
1.49
1.68
1.62
1.43
1.24
1.09
0.98
0.83
0.62
0.36
0.12
-0.01
0.01
0.17
0.41
0.64
0.77
0.75
0.55
0.21
-0.21
-0.66
-1.07
-1.37
-1.48
-1.33
-0.90
-0.25
0.46
1.05
1.36
1.35
1.11
0.77
0.48
0.31
0.22
0.14
0.01
-0.19
-0.42
-0.62
-0.74
-0.78
-0.78
-0.80
-0.87
-1.01
-1.21
-1.43
-1.60
-1.67
-1.59
-1.36
-1.03
-0.68
-0.45
-0.42
-0.59
-0.89
-1.17
-1.32
-1.28
-1.12
-0.93
-0.77
-0.65
-0.47
-0.16
0.31
0.84
1.27
1.45
1.35
1.03
0.65
0.42
0.44
0.72
1.17
1.63
2.00
2.23
2.34
2.39
2.42
2.47
2.54
2.62
2.71
2.80
2.89
2.91
2.82
2.55
2.13
1.66
1.30
1.17
1.29
1.59
1.90
2.06
1.99
1.72
1.36
1.05
0.91
0.98
1.24
1.57
1.83
1.83
1.40
0.49
-0.82
-2.34
-3.81
-5.04
-5.96
-6.65
-7.25
-7.92
-8.70
-9.52
-10.27
-10.81
-11.09
-11.17
-11.22
-11.42
-11.90
-12.69
-13.70
-14.76
-15.68
-16.32
-16.59
-16.50
-16.12
-15.58
-15.00
-14.47
-14.02
-13.61
-13.17
-12.54
-11.53
-9.96
-7.83
-5.26
-2.51
0.15
2.56
4.70
6.66
8.53
10.29
11.77
12.83
13.46
13.84
14.23
14.77
15.45
16.23
16.92
17.33
17.35
17.07
16.69
16.37
16.22
16.34
17.09
18.57
20.60
22.85
25.11
27.40
29.76
32.35
35.48
39.76
45.26
51.36
57.11
61.79
65.40
68.48
71.75
75.48
79.43
82.19
81.86
77.38
69.28
58.83
46.32
30.25
5.71
-27.64
-64.39
-96.46
-117.93
-126.89
-125.12
-117.07
-107.50
-99.60
-93.88
-89.54
-85.81
-82.40
-79.01
-75.35
-71.66
-68.23
-65.29
-62.89
-61.78
-63.41
-68.86
-78.08
-87.15
-90.96
-84.48
-65.03
-33.68
4.17
40.80
67.61
81.36
84.17
80.92
76.52
73.45
71.69
69.70
66.24
61.47
57.11
54.90
55.32
57.62
60.50
62.89
64.21
64.07
61.83
56.77
48.15
35.79
21.09
5.52
-8.66
-19.65
-26.73
-30.26
-30.99
-29.67
-26.90
-23.15
-19.17
-15.75
-13.73
-13.49
-14.67
-16.22
-17.05
-16.50
-14.66
-12.33
-10.39
-9.49
-9.74
-10.68
-11.59
-11.85
-11.22
-9.87
-8.27
-6.84
-5.82
-5.25
-4.98
-4.83
-4.65
-4.35
-3.90
-3.36
-2.82
-2.44
-2.48
-3.19
-4.67
-6.65
-8.43
-9.12
-7.93
-4.63
0.32
5.90
10.90
14.44
16.23
16.57
16.05
15.16
14.17
13.20
12.45
12.26
12.88
14.31
16.15
17.61
17.78
16.13
12.78
8.52
4.30
0.70
-2.24
-4.82
-7.41
-10.09
-12.56
-14.20
-14.39
-13.02
-10.62
-8.18
-6.70
-6.91
-9.18
-13.51
-19.50
-25.41
-28.72
-27.35
-21.28
-12.40
-3.32
3.79
7.85
9.05
8.55
7.67
7.17
7.02
6.74
5.90
4.49
2.99
2.14
2.51
4.07
6.11
7.61
7.87
6.82
5.04
3.50
3.08
4.14
6.24
8.33
9.17
8.01
4.88
0.51
-3.81
-6.82
-7.80
-6.81
-4.64
-2.42
-1.32
-2.15
-5.29
-10.35
-16.33
-21.71
-24.62
-23.38
-17.15
-6.51
6.65
18.39
25.31
25.81
20.59
12.16
3.52
-3.11
-7.01
-8.79
-9.55
-9.90
-9.80
-8.98
-7.07
-4.37
-1.67
0.17
0.66
-0.06
-1.26
-2.00
-1.70
-0.31
1.58
3.18
3.77
3.15
1.60
-0.14
-1.36
-1.65
-1.10
-0.17
0.57
0.73
0.23
-0.73
-1.76
-2.48
-2.71
-2.47
-1.98
-1.51
-1.30
-1.44
-1.87
-2.41
-2.86
-3.08
-3.00
-2.67
-2.17
-1.54
-0.83
-0.07
0.70
1.42
2.03
2.49
2.78
2.92
2.95
2.89
2.82
2.78
2.89
3.19
3.67
4.18
4.53
4.50
4.00
3.13
2.10
1.17
0.53
0.20
0.07
-0.01
-0.14
-0.36
-0.64
-0.93
-1.23
-1.58
-1.97
-2.33
-2.55
-2.46
-2.00
-1.18
-0.17
0.83
1.59
2.03
2.17
2.14
2.09
2.13
2.30
2.59
2.97
3.40
3.86
4.31
4.65
4.79
4.62
4.08
3.22
2.23
1.35
0.82
0.77
1.16
1.80
2.41
2.73
2.63
2.14
1.38
0.53
-0.27
-0.93
-1.40
-1.66
-1.62
-1.26
-0.58
0.30
1.18
1.79
1.92
1.51
0.68
-0.36
-1.33
-2.08
-2.59
-2.95
-3.26
-3.55
-3.78
-3.84
-3.66
-3.24
-2.65
-2.04
-1.52
-1.16
-0.95
-0.86
-0.83
-0.85
-0.93
-1.07
-1.26
-1.44
-1.52
-1.43
-1.14
-0.71
-0.27
0.06
0.24
0.26
0.20
0.09
-0.07
-0.33
-0.71
-1.22
-1.80
-2.33
-2.72
-2.92
-2.95
-2.87
-2.75
-2.66
-2.59
-2.51
-2.36
-2.11
-1.75
-1.32
-0.87
-0.49
-0.30
-0.37
-0.76
-1.42
-2.26
-3.09
-3.72
-4.00
-3.85
-3.27
-2.39
-1.34
-0.28
0.69
1.46
1.98
2.23
2.20
1.97
1.62
1.28
1.03
0.91
0.90
0.92
0.90
0.75
0.47
0.07
-0.42
-0.92
-1.38
-1.75
-1.99
-2.12
-2.19
-2.24
-2.32
-2.44
-2.58
-2.71
-2.83
-2.95
-3.10
-3.27
-3.39
-3.36
-3.05
-2.42
-1.50
-0.43
0.60
1.45
2.06
2.44
2.69
2.88
3.08
3.27
3.44
3.56
3.61
3.56
3.40
3.13
2.80
2.45
2.13
1.83
1.51
1.12
0.63
0.07
-0.51
-1.04
-1.49
-1.91
-2.33
-2.79
-3.23
-3.56
-3.67
-3.48
-2.99
-2.26
-1.37
-0.47
0.37
1.05
1.55
1.91
2.16
2.35
2.51
2.61
2.66
2.68
2.73
2.86
3.08
3.33
3.50
3.50
3.30
2.97
2.63
2.39
2.27
2.18
1.99
1.59
0.96
0.19
-0.59
-1.26
-1.79
-2.21
-2.56
-2.84
-3.03
-3.04
-2.83
-2.38
-1.78
-1.13
-0.51
0.00
0.44
0.86
1.31
1.81
2.32
2.74
2.94
2.85
2.50
2.00
1.52
1.20
1.05
0.99
0.93
0.81
0.67
0.60
0.65
0.76
0.80
0.63
0.22
-0.38
-1.02
-1.58
-2.02
-2.39
-2.74
-3.12
-3.45
-3.64
-3.58
-3.22
-2.60
-1.80
-0.93
-0.05
0.81
1.63
2.36
2.97
3.40
3.60
3.58
3.41
3.21
3.10
3.12
3.30
3.58
3.91
4.26
4.57
4.80
4.89
4.75
4.35
3.69
2.85
1.94
1.07
0.31
-0.36
-0.96
-1.54
-2.13
-2.74
-3.35
-3.98
-4.55
-4.99
-5.19
-5.05
-4.54
-3.73
-2.73
-1.68
-0.69
0.20
