1660927206.00
64.000000
-0.00
-0.00
-0.00
-0.00
-0.00
-0.00
-0.00
-0.00
-0.00
-0.00
0.00
0.01
0.01
-0.00
-0.03
-0.05
-0.05
0.00
0.13
0.36
0.66
1.01
1.37
1.72
2.06
2.40
2.79
3.25
3.81
4.44
5.09
5.73
6.32
6.91
7.54
8.27
9.15
10.24
11.43
12.61
13.69
14.63
15.51
16.53
17.90
19.72
22.20
25.10
28.17
31.11
33.83
36.44
39.29
42.81
47.27
52.96
59.48
66.31
72.94
79.14
85.12
91.45
98.78
107.52
118.00
129.55
141.37
152.71
163.31
173.50
184.10
196.37
208.73
223.02
239.49
258.16
278.08
296.85
310.70
315.30
307.20
285.02
250.46
206.78
158.14
108.10
58.87
11.43
-33.92
-76.98
-117.50
-155.18
-190.72
-225.44
-260.90
-297.93
-335.63
-371.04
-399.61
-416.85
-419.86
-408.78
-386.72
-358.52
-328.90
-300.91
-275.42
-251.85
-229.29
-207.37
-186.56
-167.64
-150.97
-136.22
-122.50
-108.95
-95.16
-81.40
-68.36
-56.79
-47.09
-39.12
-32.28
-25.85
-19.30
-12.52
-5.79
0.36
5.52
9.50
12.47
14.80
16.89
18.96
20.99
22.80
24.17
24.98
25.27
25.23
25.09
25.03
25.11
25.24
25.29
25.16
24.83
24.34
23.75
23.10
22.38
21.60
20.73
19.83
18.94
18.15
17.46
16.89
16.38
15.94
15.56
15.26
15.03
14.83
14.61
14.33
13.97
13.57
13.18
12.82
12.47
12.12
11.74
11.33
10.91
10.49
10.09
9.76
9.55
9.48
9.54
9.63
9.61
9.36
8.86
8.20
7.57
7.12
6.90
6.87
6.87
6.80
6.60
6.33
6.06
5.85
5.70
5.54
5.28
4.88
4.37
3.82
3.33
2.94
2.62
2.31
1.90
1.39
0.82
0.28
-0.12
-0.35
-0.50
-0.66
-0.96
-1.45
-2.11
-2.84
-3.57
-4.24
-4.83
-5.38
-5.90
-6.39
-6.83
-7.19
-7.46
-7.66
-7.82
-7.96
-8.07
-8.12
-8.07
-7.90
-7.59
-7.16
-6.65
-6.11
-5.57
-5.07
-4.63
-4.19
-3.73
-3.21
-2.64
-2.07
-1.56
-1.14
-0.77
-0.40
0.04
0.57
1.11
1.53
1.71
1.65
1.45
1.27
1.29
1.59
2.08
2.62
3.03
3.21
3.18
2.99
2.73
2.50
2.33
2.28
2.36
2.55
2.82
3.10
3.30
3.40
3.42
3.39
3.37
3.38
3.40
3.42
3.42
3.40
3.41
3.48
3.61
3.79
3.98
4.12
4.19
4.17
4.07
3.95
3.84
3.76
3.71
3.65
3.58
3.49
3.41
3.37
3.36
3.34
3.25
3.04
2.75
2.45
2.24
2.15
2.13
2.09
1.94
1.68
1.38
1.18
1.17
1.36
1.66
1.93
2.07
2.07
1.98
1.88
1.86
1.89
1.91
1.85
1.71
1.52
1.37
1.33
1.38
1.45
1.45
1.33
1.17
1.08
1.16
1.38
1.62
1.75
1.68
1.48
1.24
1.10
1.07
1.09
1.09
1.03
0.95
0.93
1.00
1.10
1.17
1.15
1.05
0.99
1.07
1.33
1.69
2.01
2.15
2.08
1.89
1.70
1.62
1.66
1.71
1.64
1.39
1.01
0.62
0.38
0.36
0.56
0.87
1.17
1.36
1.39
1.26
1.01
0.71
0.43
0.23
0.17
0.25
0.45
0.74
1.04
1.30
1.41
1.33
1.05
0.64
0.23
-0.05
-0.10
0.06
0.35
0.64
0.82
0.81
0.63
0.31
-0.04
-0.34
-0.51
-0.53
-0.44
-0.28
-0.12
-0.00
0.08
0.14
0.18
0.21
0.20
0.14
0.09
0.11
0.29
0.61
1.00
1.33
1.48
1.44
1.24
1.00
0.79
0.63
0.52
0.41
0.31
0.24
0.26
0.39
0.60
0.83
1.01
1.10
1.10
1.03
0.92
0.79
0.65
0.52
0.42
0.37
0.38
0.40
0.39
0.27
0.02
-0.33
-0.67
-0.87
-0.86
-0.64
-0.32
-0.02
0.17
0.24
0.22
0.18
0.14
0.11
0.06
-0.01
-0.05
-0.04
0.05
0.21
0.40
0.60
0.80
0.96
1.06
1.07
0.99
0.83
0.63
0.44
0.28
0.17
0.11
0.08
0.09
0.11
0.12
0.10
0.05
0.01
0.04
0.19
0.45
0.78
1.07
1.28
1.38
1.40
1.36
1.29
1.21
1.10
0.97
0.86
0.79
0.78
0.84
0.92
0.99
0.98
0.84
0.56
0.19
-0.18
-0.45
-0.57
-0.54
-0.43
-0.30
-0.21
-0.13
-0.06
0.01
0.09
0.13
0.11
0.04
-0.06
-0.16
-0.22
-0.23
-0.18
-0.09
-0.01
0.03
-0.01
-0.14
-0.30
-0.39
-0.34
-0.11
0.29
0.72
1.07
1.25
1.22
1.04
0.82
0.64
0.55
0.50
0.41
0.18
-0.19
-0.64
-1.03
-1.23
-1.18
-0.89
-0.50
-0.12
0.13
0.23
0.22
0.15
0.08
0.00
-0.09
-0.22
-0.36
-0.46
-0.47
-0.35
-0.15
0.05
0.18
0.16
0.02
-0.20
-0.41
-0.56
-0.61
-0.55
-0.40
-0.18
0.10
0.38
0.62
0.78
0.79
0.62
0.30
-0.10
-0.47
-0.66
-0.60
-0.27
0.20
0.65
0.93
0.94
0.72
0.37
0.03
-0.19
-0.22
-0.07
0.23
0.57
0.86
0.98
0.89
0.58
0.12
-0.36
-0.77
-1.05
-1.17
-1.15
-1.01
-0.75
-0.39
0.01
0.39
0.66
0.79
0.79
0.71
0.63
0.58
0.56
0.54
0.48
0.39
0.30
0.25
0.27
0.33
0.41
0.48
0.54
0.59
0.63
0.64
0.59
0.46
0.27
0.06
-0.09
-0.13
-0.04
0.14
0.34
0.50
0.55
0.49
0.32
0.08
-0.18
-0.40
-0.53
-0.57
-0.52
-0.40
-0.26
-0.13
-0.01
0.11
0.23
0.34
0.42
0.42
0.33
0.16
-0.06
-0.23
-0.28
-0.19
0.03
0.30
0.53
0.65
0.67
0.58
0.45
0.28
0.10
-0.08
-0.21
-0.25
-0.16
0.03
0.27
0.44
0.48
0.36
0.12
-0.13
-0.32
-0.42
-0.43
-0.40
-0.36
-0.29
-0.18
-0.00
0.24
0.49
0.67
0.75
0.69
0.52
0.30
0.09
-0.03
-0.03
0.09
0.25
0.32
0.24
-0.03
-0.42
-0.83
-1.17
-1.40
-1.53
-1.60
-1.63
-1.62
-1.57
-1.49
-1.47
-1.56
-1.77
-2.03
-2.21
-2.21
-1.98
-1.61
-1.25
-1.05
-1.09
-1.37
-1.84
-2.39
-2.96
-3.45
-3.82
-4.01
-4.03
-3.94
-3.87
-3.98
-4.36
-5.01
-5.81
-6.57
-7.14
-7.46
-7.63
-7.82
-8.24
-9.07
-10.31
-11.88
-13.57
-15.18
-16.56
-17.68
-18.63
-19.60
-20.80
-22.37
-24.37
-26.71
-29.21
-31.63
-33.83
-35.78
-37.63
-39.66
-42.16
-45.25
-48.82
-52.56
-56.06
-58.99
-61.28
-63.05
-64.63
-66.36
-68.39
-70.55
-72.17
-72.12
-69.02
-61.57
-49.15
-32.15
-12.03
9.02
28.73
45.48
58.63
68.47
75.79
81.41
85.81
89.08
91.08
91.77
91.29
90.04
88.52
87.10
85.91
84.71
83.09
80.66
77.34
73.50
69.88
67.29
66.23
66.61
67.78
68.80
68.96
68.16
66.95
66.26
66.82
68.73
71.28
73.29
73.63
71.75
67.85
62.83
57.83
53.97
52.30
53.62
58.26
65.43
72.69
76.00
70.87
54.17
26.00
-9.78
-46.64
-77.83
-98.89
-108.98
-110.43
-106.93
-101.56
-95.74
-89.44
-82.27
-74.43
-66.91
-60.98
-57.31
-55.52
-54.33
-52.24
-48.35
-42.81
-36.64
-31.24
-27.67
-26.13
-26.03
-26.24
-25.71
-23.90
-20.92
-17.44
-14.27
-12.01
-10.81
-10.39
-10.24
-9.88
-9.05
-7.74
-6.18
-4.66
-3.45
-2.67
-2.30
-2.18
-2.11
-1.90
-1.48
-0.86
-0.20
0.34
0.65
0.74
0.73
0.75
0.89
1.13
1.36
1.45
1.31
0.97
0.46
-0.15
-0.80
-1.43
-1.99
-2.36
-2.51
-2.45
-2.31
-2.25
-2.41
-2.82
-3.37
-3.95
-4.43
-4.82
-5.18
-5.56
-5.97
-6.41
-6.85
-7.32
-7.92
-8.73
-9.78
-11.01
-12.26
-13.38
-14.27
-14.95
-15.53
-16.20
-17.17
-18.57
-20.42
-22.59
-24.83
-26.87
-28.56
-29.94
-31.27
-32.88
-34.90
-37.11
-38.85
-39.21
-37.37
-32.95
-26.11
-17.50
-8.03
1.36
9.82
16.64
21.25
23.31
22.85
20.31
16.43
12.01
7.49
2.88
-2.12
-7.61
-13.06
-17.36
-19.21
-17.91
-13.97
-9.08
-5.46
-4.85
-7.64
-12.85
-18.63
-23.41
-26.61
-28.80
-31.11
-34.45
-38.91
-43.99
-49.12
-54.24
-59.66
-65.44
-70.73
-73.78
-72.74
-67.00
-58.07
-49.22
-44.03
-44.41
-49.35
-55.31
-58.09
-54.95
-45.80
-32.70
-18.21
-3.75
10.85
26.61
43.94
61.66
77.24
87.97
92.29
90.61
84.80
77.13
69.16
61.42
53.89
46.72
40.63
36.71
35.79
37.75
41.45
45.06
46.78
45.57
41.43
35.30
28.68
23.08
19.64
18.88
20.66
24.35
29.09
34.07
38.69
42.73
46.20
49.26
52.10
54.90
57.87
61.20
65.06
69.47
74.27
79.22
84.04
88.58
92.91
97.24
101.76
106.44
110.89
114.38
116.13
115.64
113.16
109.87
107.65
108.14
111.77
117.00
120.51
118.40
107.88
88.63
63.17
35.98
11.82
-5.70
-14.96
-16.16
-10.89
-1.78
7.83
14.35
14.85
8.26
-3.77
-17.14
-26.76
-28.91
-23.16
-12.84
-3.73
-1.42
-8.81
-24.89
-45.49
-65.32
-80.30
-88.93
-92.21
-92.38
-91.38
-89.95
-87.63
-83.60
-77.61
-70.38
-63.29
-57.69
-54.26
-52.84
-52.65
-52.87
-52.95
-52.87
-52.87
-53.22
-53.92
-54.60
-54.60
-53.24
-50.16
-45.47
-39.79
-34.00
-28.97
-25.21
-22.78
-21.33
-20.28
-19.11
-17.56
-15.71
-13.84
-12.25
-11.14
-10.52
-10.23
-10.03
-9.71
-9.12
-8.24
-7.15
-6.02
-5.00
-4.19
-3.57
-3.05
-2.54
-2.08
-1.84
-2.06
-2.89
-4.28
-5.93
-7.44
-8.44
-8.83
-8.71
-8.30
-7.80
-7.27
-6.69
-6.04
-5.35
-4.73
-4.28
-4.03
-3.94
-3.90
-3.79
-3.56
-3.22
-2.79
-2.34
-1.93
-1.62
-1.42
-1.30
-1.16
-0.88
-0.40
0.24
0.90
1.43
1.70
1.72
1.61
1.55
1.68
2.06
2.60
3.15
3.52
3.64
3.54
3.35
3.21
3.16
3.13
2.96
2.50
1.68
0.59
-0.60
-1.72
-2.62
-3.23
-3.51
-3.44
-3.01
-2.26
-1.29
-0.33
0.38
0.67
0.49
-0.05
-0.76
-1.42
-1.90
-2.15
-2.20
-2.13
-1.97
-1.75
-1.45
-1.11
-0.76
-0.46
-0.23
-0.05
0.18
0.56
1.11
1.79
2.44
2.87
2.93
2.57
1.84
0.89
-0.07
-0.88
-1.43
-1.71
-1.77
-1.69
-1.54
-1.35
-1.14
-0.90
-0.61
-0.28
0.09
0.48
0.85
1.15
1.30
1.28
1.12
0.93
0.81
0.85
1.01
1.21
1.37
1.41
1.36
1.26
1.16
1.06
0.97
0.88
0.86
0.98
1.30
1.80
2.33
2.70
2.73
2.31
1.50
0.48
-0.56
-1.43
-2.05
-2.45
-2.69
-2.85
-2.96
-3.02
-2.96
-2.76
-2.41
-1.98
-1.56
-1.26
-1.13
-1.17
-1.31
-1.48
-1.64
-1.81
-2.04
-2.32
-2.60
-2.73
-2.60
-2.18
-1.57
-0.95
-0.48
-0.16
0.15
0.64
1.45
2.52
3.64
4.49
4.83
4.62
3.97
3.10
2.20
1.41
0.75
0.24
-0.11
-0.23
-0.08
0.33
0.87
1.36
1.61
1.50
1.07
0.49
-0.02
-0.27
-0.22
0.05
0.38
0.61
0.69
0.64
0.52
0.39
0.25
0.11
-0.04
-0.15
-0.16
0.02
0.43
1.04
1.74
2.37
2.77
2.83
2.50
1.86
1.02
0.13
-0.68
-1.33
-1.78
-2.01
-2.03
-1.86
-1.60
-1.34
-1.20
-1.26
-1.50
-1.83
-2.15
-2.40
-2.56
-2.71
-2.89
-3.14
-3.41
-3.63
-3.72
-3.63
-3.34
-2.90
-2.39
-1.90
-1.51
-1.20
-0.93
-0.60
-0.12
0.53
1.31
2.09
2.74
3.17
3.35
3.28
2.99
2.55
2.01
1.46
1.02
0.79
0.83
1.06
1.36
1.55
1.53
1.25
0.82
0.34
-0.06
-0.29
-0.32
-0.17
0.15
0.58
1.09
1.58
1.97
2.21
2.28
2.20
2.04
1.87
1.75
1.72
1.79
1.97
2.24
2.53
2.75
2.82
2.67
2.29
1.68
0.88
-0.04
-0.97
-1.78
-2.39
-2.73
-2.87
-2.87
-2.84
-2.81
-2.76
-2.64
-2.44
-2.21
-2.07
-2.12
-2.35
-2.71
-3.04
-3.28
-3.37
-3.35
-3.26
-3.15
-3.01
-2.81
-2.51
-2.08
-1.51
-0.86
-0.16
0.54
1.21
1.84
2.41
2.84
3.02
2.85
2.33
1.57
0.81
0.31
0.23
0.57
1.16
1.76
2.13
2.17
1.89
1.40
0.84
0.33
-0.02
-0.13
-0.00
0.34
0.79
1.26
1.65
1.94
2.16
2.36
2.55
2.70
2.73
2.60
2.30
1.90
1.49
1.16
0.96
0.90
0.94
1.04
1.15
1.22
1.20
1.00
0.55
-0.17
-1.05
-1.90
-2.52
-2.75
-2.59
-2.21
-1.83
-1.66
-1.77
-2.05
-2.34
-2.45
-2.34
-2.10
-1.90
-1.88
-2.10
-2.50
-2.96
-3.33
-3.54
-3.59
-3.50
-3.30
-3.00
-2.59
-2.11
-1.65
-1.30
-1.08
-0.92
-0.61
-0.01
0.93
2.08
3.16
3.93
4.24
4.10
3.64
2.98
2.22
1.42
0.64
0.03
-0.25
-0.08
0.50
1.32
2.14
2.70
2.86
2.67
2.26
1.80
1.45
1.23
1.10
0.98
0.80
0.58
0.38
0.28
0.34
0.54
0.81
1.01
1.09
1.02
0.85
0.67
0.55
0.54
0.64
0.83
1.05
1.24
1.33
1.27
1.03
0.65
0.19
-0.30
-0.76
-1.19
-1.60
-2.00
-2.38
-2.68
-2.87
-2.91
-2.82
-2.60
-2.28
-1.89
-1.49
-1.14
-0.95
-0.97
-1.22
-1.62
-2.08
-2.48
-2.77
-2.98
-3.12
-3.25
-3.39
-3.53
-3.70
-3.92
-4.21
-4.57
-4.94
-5.21
-5.28
-5.12
-4.83
-4.60
-4.61
-4.99
-5.68
-6.54
-7.33
-7.91
-8.23
-8.37
-8.49
-8.72
-9.16
-9.78
-10.52
-11.20
-11.62
-11.56
-10.77
-9.06
-6.32
-2.59
1.92
6.77
11.42
15.33
18.11
19.64
20.04
19.61
18.66
17.44
16.12
14.81
13.59
12.55
11.68
10.93
10.18
9.32
8.41
7.55
6.92
6.59
6.47
6.39
6.13
5.63
4.90
4.03
3.11
2.17
1.23
0.44
0.04
0.26
1.14
2.43
3.67
4.38
4.35
3.68
2.70
1.72
0.82
-0.16
-1.43
-2.99
-4.62
-5.93
-6.63
-6.71
-6.44
-6.19
-6.20
-6.42
-6.59
-6.34
-5.45
-3.93
-2.05
-0.28
0.84
0.87
-0.45
-2.95
-6.01
-8.60
-9.56
-8.12
-4.27
1.06
6.32
9.92
10.83
9.07
5.53
1.56
-1.69
-3.64
-4.37
-4.34
-4.03
-3.68
-3.30
-2.81
-2.22
-1.66
-1.35
-1.42
-1.80
-2.26
-2.50
-2.33
-1.72
-0.82
0.14
0.96
1.54
1.85
1.91
1.77
1.51
1.21
0.97
0.86
0.89
0.97
1.00
0.93
0.76
0.58
0.47
0.48
0.57
0.65
0.65
0.55
0.40
0.27
0.18
0.15
0.12
0.07
-0.02
-0.14
-0.27
-0.43
-0.61
-0.79
-0.88
-0.79
-0.50
-0.09
0.25
0.29
-0.08
-0.76
-1.50
-1.95
-1.89
-1.32
-0.45
0.40
0.96
1.14
1.03
0.82
0.70
0.74
0.91
1.06
1.05
0.83
0.44
0.04
-0.24
-0.33
-0.24
-0.06
0.13
0.27
0.34
0.35
0.29
0.18
0.02
-0.14
-0.25
-0.25
-0.14
0.04
0.22
0.32
0.24
-0.02
-0.45
-0.95
-1.37
-1.55
-1.42
-1.01
-0.45
0.08
0.46
0.65
0.70
0.67
0.60
0.44
0.19
-0.14
-0.42
-0.52
-0.35
0.05
0.51
0.80
0.77
0.43
-0.06
-0.49
-0.70
-0.65
-0.42
-0.15
0.04
0.09
0.05
-0.00
0.01
0.11
0.28
0.46
0.57
0.60
0.55
0.46
0.34
0.21
0.03
-0.20
-0.44
-0.61
-0.61
-0.38
0.07
0.61
1.07
1.30
1.26
0.99
0.62
0.27
0.02
-0.13
-0.17
-0.11
0.06
0.33
0.64
0.92
1.08
1.06
0.86
0.54
0.16
-0.22
-0.53
-0.74
-0.80
-0.74
-0.64
-0.60
-0.74
-1.09
-1.55
-1.99
-2.24
-2.28
-2.14
-1.94
-1.73
-1.53
-1.28
-0.95
-0.60
-0.33
-0.23
-0.30
-0.44
-0.50
-0.37
-0.03
0.43
0.88
1.20
1.32
1.23
0.97
0.61
0.26
-0.00
-0.10
-0.01
0.23
0.57
0.90
1.15
1.24
1.15
0.91
0.58
0.26
0.02
-0.13
-0.23
-0.30
-0.39
-0.46
-0.51
-0.53
-0.53
-0.53
-0.54
-0.51
-0.37
-0.11
0.25
0.61
0.87
0.96
0.87
0.67
0.44
0.27
0.22
0.28
0.42
0.59
0.73
0.82
0.83
0.74
0.53
0.22
-0.13
-0.44
-0.61
-0.59
-0.43
-0.24
-0.17
-0.28
-0.54
-0.82
-0.97
-0.92
-0.69
-0.37
-0.08
0.11
0.21
0.22
0.18
0.09
-0.04
-0.18
-0.29
-0.34
-0.34
-0.33
-0.34
-0.39
-0.43
-0.37
-0.18
0.13
0.45
0.67
0.72
0.59
0.36
0.14
0.02
0.01
0.05
0.05
-0.07
-0.30
-0.55
-0.71
-0.69
-0.51
-0.27
-0.11
-0.12
-0.30
-0.55
-0.74
-0.79
-0.67
-0.46
-0.24
-0.10
-0.03
0.01
0.09
0.22
0.39
0.51
0.52
0.41
0.24
0.11
0.09
0.20
0.39
0.57
0.63
0.55
0.39
0.22
0.12
0.12
0.20
0.29
0.34
0.33
0.26
0.17
0.10
0.09
0.13
0.20
0.29
0.40
0.52
0.65
0.78
0.83
0.77
0.61
0.40
0.22
0.11
0.11
0.15
0.18
0.18
0.13
0.09
0.04
-0.02
-0.16
-0.37
-0.61
-0.81
-0.90
-0.88
-0.82
-0.81
-0.86
-0.93
-0.92
-0.79
-0.54
-0.29
-0.16
-0.21
-0.41
-0.63
-0.76
-0.73
-0.57
-0.38
-0.24
-0.15
-0.09
-0.00
0.13
0.28
0.38
0.41
0.35
0.28
0.25
0.32
0.46
0.59
0.65
0.60
0.46
0.31
0.24
0.29
0.48
0.74
1.00
1.19
1.26
1.22
1.10
0.93
0.74
0.56
0.40
0.26
0.15
0.04
-0.06
-0.17
-0.26
-0.35
-0.42
-0.43
-0.38
-0.26
-0.09
0.09
0.26
0.39
0.48
0.56
0.61
0.65
0.66
0.63
0.58
0.54
0.57
0.68
0.84
0.96
0.96
0.75
0.35
-0.17
-0.68
-1.06
-1.26
-1.30
-1.21
-1.08
-0.97
-0.91
-0.92
-1.00
-1.12
-1.25
-1.35
-1.40
-1.40
-1.33
-1.22
-1.09
-0.92
-0.75
-0.59
-0.47
-0.41
-0.42
-0.45
-0.47
-0.43
-0.33
-0.17
0.02
0.25
0.49
0.72
0.92
1.02
1.03
0.93
0.77
0.58
0.38
0.18
-0.02
-0.20
-0.30
-0.28
-0.13
0.12
0.35
0.48
0.45
0.32
0.17
0.14
0.27
0.54
0.82
0.96
0.87
0.56
0.16
-0.18
-0.30
-0.20
0.02
0.20
0.23
0.09
-0.11
-0.25
-0.24
-0.10
0.07
0.16
0.09
-0.07
-0.22
-0.24
-0.08
0.20
0.49
0.67
0.69
0.59
0.40
0.20
-0.00
-0.19
-0.33
-0.33
-0.13
0.27
0.76
1.15
1.29
1.16
0.87
0.61
0.48
0.48
0.46
0.32
0.00
-0.38
-0.70
-0.87
-0.89
-0.87
-0.89
-0.99
-1.14
-1.25
-1.28
-1.24
-1.16
-1.12
-1.14
-1.28
-1.55
-1.96
-2.48
-3.06
-3.60
-4.02
-4.26
-4.32
-4.27
-4.19
-4.20
-4.43
-4.96
-5.84
-6.99
-8.26
-9.45
-10.41
-11.13
-11.73
-12.47
-13.58
-15.16
-17.13
-19.31
-21.45
-23.44
-25.33
-27.29
-29.57
-32.36
-35.69
-39.47
-43.46
-47.43
-51.20
-54.77
-58.35
-62.30
-66.96
-72.53
-78.85
-85.53
-92.10
-98.22
-103.91
-109.45
-115.17
-121.30
-127.87
-135.03
-143.16
-152.59
-162.95
-172.57
-178.36
-176.46
-163.66
-138.59
-102.11
-56.68
-5.32
49.25
104.49
157.53
204.77
242.38
267.58
279.91
281.67
277.02
270.30
264.40
260.25
257.30
254.65
251.99
249.77
248.83
249.69
252.26
255.93
259.85
263.18
264.98
264.05
258.75
247.18
227.72
199.51
162.71
118.36
68.10
14.07
-40.85
-92.95
-137.96
-171.91
-192.43
-199.71
-196.48
-187.02
-175.50
-164.66
-155.32
-147.02
-138.96
-130.81
-122.90
-115.75
-109.59
-104.08
-98.54
-92.37
-85.38
-77.91
-70.64
-64.22
-58.94
-54.62
-50.77
-46.82
-42.41
-37.61
-32.76
-28.40
-24.89
-22.30
-20.38
-18.75
-17.01
-14.97
-12.66
-10.32
-8.20
-6.53
-5.39
-4.72
-4.33
-4.03
-3.63
-3.06
-2.35
-1.63
-1.04
-0.66
-0.48
-0.43
-0.37
-0.27
-0.13
-0.01
0.01
-0.06
-0.18
-0.26
-0.24
-0.13
0.02
0.15
0.21
0.21
0.19
0.20
0.25
0.36
0.48
0.55
0.51
0.35
0.09
-0.16
-0.32
-0.29
-0.09
0.18
0.38
0.41
0.25
-0.04
-0.33
-0.50
-0.53
-0.40
-0.17
0.09
0.33
0.49
0.51
0.37
0.08
-0.27
-0.58
-0.76
-0.76
-0.61
-0.39
-0.20
-0.08
-0.06
-0.11
-0.21
-0.30
-0.35
-0.32
-0.18
0.07
0.35
0.57
0.61
0.41
0.02
-0.44
-0.80
-0.93
-0.80
-0.50
-0.17
0.05
0.13
0.08
-0.01
-0.10
-0.20
-0.36
-0.61
-0.92
-1.19
-1.30
-1.19
-0.91
-0.59
-0.36
-0.28
-0.28
-0.26
-0.13
0.11
0.38
0.55
0.58
0.48
0.37
0.34
0.44
0.62
0.80
0.92
0.97
0.96
0.94
0.93
0.93
0.90
0.83
0.73
0.62
0.54
0.50
0.47
0.42
0.32
0.14
-0.08
-0.27
-0.37
-0.34
-0.22
-0.08
0.00
0.00
-0.06
-0.12
-0.15
-0.13
-0.09
-0.09
-0.11
-0.14
-0.10
0.03
0.22
0.42
0.54
0.54
0.41
0.21
-0.02
-0.22
-0.38
-0.49
-0.54
-0.50
-0.34
-0.06
0.30
0.61
0.75
0.67
0.40
0.08
-0.11
-0.06
0.21
0.57
0.86
0.98
0.92
0.78
0.64
0.55
0.50
0.41
0.25
0.01
-0.26
-0.51
-0.72
-0.86
-0.95
-1.00
-1.02
-1.01
-0.95
-0.84
-0.68
-0.51
-0.35
-0.28
-0.33
-0.49
-0.71
-0.89
-0.91
-0.75
-0.48
-0.22
-0.13
-0.27
-0.59
-0.91
-1.01
-0.80
-0.30
0.27
0.68
0.78
0.58
0.23
-0.08
-0.23
-0.20
-0.07
0.06
0.17
0.26
0.33
0.40
0.41
0.36
0.23
0.08
-0.05
-0.13
-0.16
-0.19
-0.27
-0.45
-0.70
-0.96
-1.11
-1.04
-0.72
-0.21
0.31
0.66
0.75
0.60
0.33
0.07
-0.10
-0.18
-0.21
-0.22
-0.19
-0.09
0.07
0.27
0.46
0.59
0.65
0.65
0.60
0.49
0.34
0.17
0.04
-0.02
-0.01
0.04
0.06
0.01
-0.13
-0.33
-0.55
-0.72
-0.84
-0.88
-0.85
-0.77
-0.63
-0.45
-0.27
-0.08
0.08
0.20
0.26
0.24
0.12
-0.13
-0.52
-1.03
-1.63
-2.23
-2.77
-3.21
-3.51
-3.70
-3.81
-3.90
-4.00
-4.19
-4.49
-4.95
-5.55
-6.30
-7.15
-8.02
-8.84
-9.58
-10.22
-10.85
-11.58
-12.57
-13.94
-15.66
-17.60
-19.57
-21.47
-23.31
-25.30
-27.69
-30.67
-34.19
-38.00
-41.76
-45.22
-48.45
-51.82
-55.83
-60.83
-66.83
-73.39
-79.84
-85.67
-90.72
-95.30
-100.00
-105.36
-111.63
-118.83
-126.88
-135.75
-145.18
-154.21
-160.86
-162.18
-155.04
-137.17
-108.01
-68.63
-21.12
32.30
89.51
148.09
204.73
255.06
294.64
320.50
332.52
333.67
328.82
322.93
319.40
319.46
322.54
326.99
330.60
330.90
325.22
311.13
287.06
252.86
209.76
159.78
105.10
47.92
-9.23
-63.01
-109.37
-144.48
-166.13
-174.76
-173.36
-166.27
-157.43
-149.16
-141.89
-135.01
-127.90
-120.59
-113.73
-107.99
-103.50
-99.67
-95.60
-90.52
-84.22
-77.05
-69.79
-63.22
-57.81
-53.58
-50.16
-46.95
-43.41
-39.28
-34.65
-29.93
-25.65
-22.19
-19.69
-17.95
-16.54
-15.04
-13.19
-11.04
-8.84
-6.93
-5.56
-4.72
-4.24
-3.81
-3.24
-2.47
-1.62
-0.93
-0.61
-0.70
-1.08
-1.53
-1.80
-1.77
-1.44
-0.96
-0.52
-0.24
-0.16
-0.19
-0.21
-0.15
-0.03
0.08
0.06
-0.09
-0.34
-0.58
-0.71
-0.65
-0.43
-0.10
0.26
0.55
0.71
0.73
0.64
0.48
0.30
0.12
-0.03
-0.16
-0.24
-0.22
-0.10
0.13
0.39
0.59
0.66
0.56
0.35
0.11
-0.07
-0.16
-0.17
-0.13
-0.06
0.05
0.19
0.34
0.45
0.48
0.42
0.31
0.21
0.15
0.11
0.03
-0.13
-0.37
-0.59
-0.73
-0.74
-0.65
-0.53
-0.46
-0.45
-0.48
-0.51
-0.51
-0.49
-0.47
-0.47
-0.49
-0.52
-0.54
-0.52
-0.46
-0.34
-0.15
0.11
0.40
0.70
0.96
1.14
1.19
1.08
0.84
0.53
0.25
0.06
-0.03
-0.05
-0.06
-0.05
-0.01
0.08
0.24
0.38
0.46
0.45
0.37
0.29
0.26
0.30
0.34
0.34
0.24
0.06
-0.17
-0.39
-0.56
-0.64
-0.62
-0.50
-0.34
-0.22
-0.18
-0.25
-0.38
-0.48
-0.52
-0.50
-0.46
-0.47
-0.53
-0.61
-0.66
-0.62
-0.52
-0.41
-0.35
-0.38
-0.49
-0.61
-0.69
-0.65
-0.49
-0.24
0.02
0.23
0.33
0.32
0.25
0.16
0.09
0.06
0.06
0.07
0.07
0.07
0.04
-0.02
-0.14
-0.32
-0.51
-0.61
-0.54
-0.24
0.24
0.75
1.12
1.22
1.05
0.69
0.31
0.02
-0.11
-0.11
-0.04
0.06
0.18
0.35
0.57
0.83
1.03
1.05
0.82
0.31
-0.35
-1.00
-1.42
-1.51
-1.28
-0.86
-0.42
-0.11
0.02
-0.01
-0.14
-0.26
-0.33
-0.33
-0.27
-0.16
-0.02
0.12
0.23
0.30
0.30
0.22
0.08
-0.05
-0.11
-0.03
0.16
0.39
0.53
0.49
0.26
-0.08
-0.36
-0.45
-0.31
0.01
0.37
0.66
0.82
0.87
0.85
0.79
0.69
0.52
0.33
0.15
0.05
0.04
0.08
0.09
0.01
-0.15
-0.33
-0.45
-0.47
-0.40
-0.31
-0.22
-0.16
-0.12
-0.09
-0.08
-0.08
-0.10
-0.10
-0.07
0.02
0.14
0.28
0.40
0.48
0.49
0.43
0.28
0.09
-0.10
-0.21
-0.22
-0.15
-0.07
-0.07
-0.17
-0.31
-0.40
-0.33
-0.08
0.26
0.56
0.67
0.55
0.25
-0.13
-0.41
-0.50
-0.39
-0.15
0.06
0.15
0.05
-0.20
-0.49
-0.69
-0.71
-0.55
-0.30
-0.05
0.11
0.16
0.14
0.10
0.08
0.09
0.09
0.04
-0.05
-0.17
-0.28
-0.33
-0.29
-0.15
0.06
0.26
0.40
0.39
0.23
-0.03
-0.26
-0.37
-0.29
-0.04
0.28
0.56
0.72
0.76
0.71
0.66
0.65
0.69
0.73
0.68
0.54
0.33
0.15
0.08
0.13
0.25
0.32
0.29
0.15
-0.05
-0.20
-0.28
-0.30
-0.32
-0.39
-0.50
-0.57
-0.54
-0.39
-0.18
-0.01
0.02
-0.10
-0.33
-0.55
-0.68
-0.68
-0.56
-0.38
-0.19
-0.00
0.17
0.31
0.37
0.30
0.09
-0.20
-0.46
-0.59
-0.52
-0.31
-0.05
0.12
0.15
0.08
-0.03
-0.07
-0.02
0.09
0.16
0.12
-0.03
-0.21
-0.32
-0.31
-0.20
-0.07
-0.00
-0.04
-0.14
-0.18
-0.11
0.08
0.33
0.52
0.60
0.56
0.47
0.39
0.35
0.36
0.40
0.45
0.49
0.52
0.49
0.38
0.19
-0.01
-0.16
-0.20
-0.13
0.01
0.11
0.11
0.00
-0.19
-0.41
-0.61
-0.75
-0.84
-0.86
-0.83
-0.75
-0.62
-0.46
-0.29
-0.12
0.06
0.26
0.46
0.64
0.76
0.78
0.72
0.59
0.45
0.34
0.26
0.20
0.10
-0.05
-0.24
-0.43
-0.54
-0.56
-0.47
-0.33
-0.22
-0.19
-0.23
-0.33
-0.43
-0.50
-0.55
-0.58
-0.62
-0.64
-0.62
-0.51
-0.32
-0.09
0.15
0.35
0.51
0.66
0.82
0.96
1.05
1.01
0.82
0.52
0.20
-0.04
-0.11
-0.02
0.15
0.33
0.43
0.45
0.43
0.41
0.43
0.46
0.44
0.34
0.16
-0.02
-0.15
-0.19
-0.18
-0.18
-0.24
-0.35
-0.44
-0.43
-0.30
-0.13
-0.06
-0.19
-0.55
-1.05
-1.49
-1.71
-1.63
-1.28
-0.79
-0.31
0.08
0.35
0.51
0.58
0.56
0.43
0.21
-0.06
-0.29
-0.38
-0.31
-0.11
0.12
0.29
0.36
0.37
0.38
0.41
0.47
0.50
0.49
0.42
0.36
0.33
0.33
0.31
0.22
0.04
-0.17
-0.29
-0.24
-0.02
0.28
0.50
0.53
0.33
0.02
-0.23
-0.29
-0.08
0.30
0.68
0.87
0.77
0.40
-0.09
-0.55
-0.87
-0.99
-0.96
-0.81
-0.59
-0.34
-0.08
0.13
0.24
0.20
0.01
-0.26
-0.49
-0.57
-0.42
-0.06
0.43
0.90
1.26
1.40
1.34
1.14
0.89
0.63
0.40
0.16
-0.08
-0.32
-0.52
-0.63
-0.64
-0.55
-0.42
-0.27
-0.15
-0.07
-0.03
-0.01
0.01
0.06
0.17
0.32
0.43
0.39
0.16
-0.23
-0.67
-0.97
-1.03
-0.84
-0.51
-0.20
-0.03
0.02
0.01
0.03
0.11
0.18
0.16
0.01
-0.22
-0.38
-0.37
-0.17
0.10
0.27
0.21
-0.04
-0.34
-0.50
-0.46
-0.27
-0.07
0.02
0.02
-0.01
0.08
0.30
0.61
0.88
0.99
0.92
0.75
0.57
0.47
0.47
0.52
0.59
0.61
0.57
0.44
0.22
-0.06
-0.33
-0.49
-0.49
-0.31
-0.05
0.16
0.17
-0.09
-0.57
-1.15
-1.71
-2.17
-2.54
-2.90
-3.30
-3.76
-4.23
-4.64
-4.95
-5.18
-5.40
-5.69
-6.13
-6.73
-7.44
-8.21
-8.97
-9.71
-10.47
-11.29
-12.25
-13.37
-14.65
-16.09
-17.66
-19.38
-21.29
-23.41
-25.77
-28.39
-31.29
-34.51
-38.12
-42.12
-46.46
-51.00
-55.59
-60.24
-65.08
-70.32
-76.10
-82.37
-88.85
-95.20
-101.22
-106.94
-112.64
-118.63
-125.15
-132.29
-140.13
-148.92
-158.91
-169.85
-180.54
-188.49
-190.37
-183.04
-164.59
-135.01
-95.97
-50.03
0.07
51.68
101.98
147.69
185.27
211.82
226.09
229.22
224.30
215.27
205.40
196.47
188.73
181.68
174.82
168.21
162.32
157.59
154.08
151.38
148.86
146.04
142.86
139.74
137.32
136.16
136.44
137.95
140.19
142.68
145.15
147.61
150.26
153.28
156.74
160.68
165.24
170.69
177.08
183.64
188.48
188.66
181.03
163.31
134.95
97.12
52.08
2.41
-49.39
-100.70
-148.33
-188.54
-217.80
-233.95
-237.23
-230.34
-217.45
-202.73
-189.12
-177.88
-169.01
-161.88
-155.87
-150.52
-145.51
-140.38
-134.72
-128.37
-121.57
-115.12
-110.21
-107.73
-107.62
-108.38
-107.35
-101.47
-88.33
-67.01
-38.46
-5.16
29.48
61.88
88.98
108.70
120.17
123.92
121.72
116.07
109.60
104.36
101.39
100.73
101.73
103.38
104.40
102.98
96.84
83.91
63.27
36.07
5.80
-22.66
-44.73
-57.88
-62.41
-60.92
-56.82
-52.74
-49.72
-47.42
-45.06
-42.28
-39.41
-37.16
-35.96
-35.62
-35.45
-34.72
-32.99
-30.38
-27.46
-24.93
-23.31
-22.67
-22.68
-22.76
-22.34
-21.13
-19.16
-16.80
-14.52
-12.71
-11.54
-10.88
-10.43
-9.87
-8.95
-7.65
-6.10
-4.54
-3.22
-2.28
-1.74
-1.48
-1.34
-1.15
-0.89
-0.62
-0.47
-0.58
-0.94
-1.45
-1.94
-2.30
-2.50
-2.63
-2.81
-3.13
-3.59
-4.13
-4.67
-5.16
-5.59
-6.00
-6.42
-6.93
-7.61
-8.55
-9.83
-11.47
-13.36
-15.32
-17.14
-18.71
-20.12
-21.61
-23.55
-26.25
-29.72
-33.66
-37.48
-40.61
-42.78
-44.20
-45.58
-47.84
-51.65
-57.13
-63.67
-70.22
-75.69
-79.41
-81.41
-82.36
-83.46
-85.98
-90.81
-97.84
-105.48
-110.61
-108.99
-96.31
-69.52
-28.14
25.02
84.15
141.78
190.91
226.94
248.83
258.73
260.41
257.15
250.55
240.71
227.38
211.09
193.27
175.50
158.43
141.47
123.54
104.23
84.40
65.72
49.32
34.82
20.44
4.09
-15.09
-35.98
-56.03
-72.49
-83.69
-89.43
-90.62
-88.60
-84.62
-79.76
-74.86
-70.59
-67.42
-65.49
-64.55
-63.97
-62.89
-60.52
-56.50
-50.97
-44.67
-38.66
-33.86
-30.71
-28.96
-27.88
-26.63
-24.64
-21.84
-18.58
-15.41
-12.77
-10.86
-9.59
-8.74
-8.05
-7.35
-6.55
-5.61
-4.58
-3.53
-2.57
-1.78
-1.21
-0.84
-0.58
-0.37
-0.13
0.14
0.40
0.61
0.71
0.67
0.46
0.08
-0.42
-0.95
-1.32
-1.37
-1.04
-0.40
0.31
0.84
1.01
0.84
0.50
0.20
0.06
0.04
0.00
-0.24
-0.74
-1.42
-2.08
-2.52
-2.65
-2.48
-2.09
-1.64
-1.21
-0.85
-0.52
-0.13
0.35
0.88
1.36
1.61
1.49
1.00
0.27
-0.46
-0.94
-1.08
-0.91
-0.61
-0.36
-0.25
-0.28
-0.33
-0.34
-0.31
-0.31
-0.42
-0.65
-0.96
-1.23
-1.37
-1.37
-1.30
-1.19
-1.09
-0.95
-0.76
-0.49
-0.22
-0.03
-0.00
-0.12
-0.32
-0.47
-0.50
-0.37
-0.15
0.07
0.19
0.18
0.05
-0.12
-0.21
-0.17
0.05
0.37
0.72
1.00
1.13
1.12
1.01
0.86
0.76
0.71
0.70
0.68
0.61
0.52
0.45
0.45
0.54
0.68
0.81
0.89
0.90
0.86
0.75
0.58
0.34
0.04
-0.25
-0.42
-0.38
-0.14
0.23
0.60
0.86
0.99
1.03
1.02
1.00
0.98
0.92
0.84
0.77
0.78
0.93
1.20
1.53
1.77
1.83
1.63
1.21
0.66
0.13
-0.31
-0.60
-0.75
-0.85
-0.95
-1.12
-1.36
-1.64
-1.89
-2.08
-2.23
-2.43
-2.79
-3.37
-4.17
-5.06
-5.85
-6.42
-6.75
-6.92
-7.08
-7.35
-7.77
-8.31
-8.96
-9.74
-10.73
-12.00
-13.55
-15.30
-17.12
-18.87
-20.49
-22.04
-23.67
-25.57
-27.90
-30.72
-34.03
-37.68
-41.51
-45.35
-49.15
-52.99
-57.10
-61.75
-67.13
-73.25
-79.88
-86.68
-93.37
-99.82
-106.11
-112.37
-118.65
-125.01
-131.59
-138.86
-147.43
-157.42
-167.82
-176.06
-178.45
-171.33
-152.39
-121.47
-80.32
-31.68
21.56
76.66
130.58
179.64
219.79
247.69
262.15
264.79
259.61
251.32
243.57
238.00
234.38
231.69
229.20
226.95
225.55
225.44
226.53
228.19
229.82
231.32
233.10
235.53
238.18
239.14
235.29
223.20
200.36
166.05
121.50
69.40
13.33
-42.66
-94.36
-137.66
-169.21
-187.35
-192.72
-188.19
-177.90
-165.84
-154.60
-145.11
-137.05
-129.74
-122.82
-116.36
-110.57
-105.41
-100.48
-95.26
-89.40
-82.96
-76.40
-70.32
-65.11
-60.80
-57.02
-53.26
-49.12
-44.49
-39.64
-35.02
-31.08
-28.06
-25.95
-24.50
-23.31
-21.90
-19.82
-16.70
-12.47
-7.36
-1.96
3.01
6.93
9.51
10.88
11.42
11.59
11.66
11.67
11.47
10.93
10.02
8.84
7.58
6.42
5.48
4.81
4.37
4.10
3.90
3.70
3.50
3.36
3.34
3.48
3.71
3.93
3.98
3.78
3.35
2.80
2.29
1.95
1.83
1.90
2.08
2.28
2.41
2.44
2.38
2.25
2.06
1.82
1.54
1.24
0.98
0.85
0.90
1.13
1.45
1.74
1.91
1.94
1.86
1.74
1.62
1.47
1.27
1.01
0.72
0.48
0.32
0.26
0.25
0.23
0.15
-0.03
-0.26
-0.51
-0.73
-0.85
-0.82
-0.63
-0.26
0.26
0.87
1.52
2.16
2.74
3.25
3.69
4.08
4.48
4.94
5.46
5.99
6.48
6.86
7.15
7.38
7.65
8.08
8.75
9.72
10.91
12.17
13.17
13.57
13.02
11.37
8.68
5.27
1.63
-1.74
-4.43
-6.28
-7.26
-7.54
-7.31
-6.78
-6.16
-5.65
-5.43
-5.65
-6.33
-7.35
-8.50
-9.49
-10.05
-10.06
-9.55
-8.70
-7.75
-6.90
-6.23
-5.66
-5.06
-4.24
-3.15
-1.85
-0.51
0.72
1.77
2.66
3.48
4.29
5.07
5.70
6.05
6.05
5.75
5.31
4.96
4.93
5.38
6.36
7.73
9.23
10.46
10.94
10.25
8.17
4.79
0.53
-3.91
-7.83
-10.66
-12.18
-12.55
-12.13
-11.36
-10.56
-9.87
-9.26
-8.67
-8.06
-7.46
-6.92
-6.51
-6.20
-5.92
-5.59
-5.16
-4.65
-4.13
-3.71
-3.44
-3.32
-3.28
-3.24
-3.11
-2.88
-2.55
-2.17
-1.79
-1.47
-1.21
-1.03
-0.86
-0.66
-0.38
-0.03
0.34
0.62
0.73
0.63
0.35
0.03
-0.22
-0.32
-0.30
-0.24
-0.22
-0.29
-0.39
-0.47
-0.49
-0.48
-0.52
-0.67
-0.89
-1.11
-1.20
-1.12
-0.88
-0.62
-0.43
-0.34
-0.32
-0.29
-0.20
-0.07
0.08
0.18
0.22
0.20
0.15
0.10
0.06
0.05
0.10
0.20
0.35
0.52
0.64
0.71
0.70
0.64
0.55
0.46
0.40
0.39
0.42
0.47
0.49
0.42
0.22
-0.10
-0.46
-0.76
-0.89
-0.82
-0.60
-0.32
-0.08
0.05
0.07
0.01
-0.10
-0.26
-0.49
-0.76
-1.02
-1.21
-1.29
-1.27
-1.20
-1.13
-1.07
-1.01
-0.93
-0.84
-0.77
-0.76
-0.80
-0.86
-0.89
-0.86
-0.78
-0.71
-0.65
-0.60
-0.53
-0.44
-0.43
-0.61
-1.09
-1.83
-2.68
-3.40
-3.80
-3.83
-3.66
-3.56
-3.82
-4.60
-5.84
-7.28
-8.62
-9.61
-10.20
-10.51
-10.82
-11.40
-12.43
-13.86
-15.49
-16.96
-17.98
-18.40
-18.34
-18.11
-18.18
-18.95
-20.66
-23.20
-26.08
-28.35
-28.83
-26.35
-20.27
-10.79
0.89
12.83
22.98
29.82
32.83
32.54
30.09
26.65
22.95
19.10
14.82
9.85
4.32
-1.26
-6.21
-10.11
-13.08
-15.70
-18.78
-22.87
-27.98
-33.50
-38.46
-41.88
-43.23
-42.60
-40.78
-39.15
-39.30
-42.54
-48.99
-57.00
-63.06
-62.40
-50.32
-23.64
18.45
74.03
138.82
206.74
270.61
323.02
357.47
369.69
358.73
327.14
279.97
223.07
161.49
99.00
38.60
-16.56
-62.87
-97.06
-117.56
-125.51
-124.51
-119.26
-113.63
-109.49
-106.63
-103.85
-100.13
-95.44
-90.67
-86.88
-84.61
-83.56
-82.82
-81.42
-78.82
-75.21
-71.31
-68.08
-66.21
-65.92
-66.88
-68.47
-70.05
-71.31
-72.34
-73.58
-75.53
-78.52
-82.55
-87.33
-92.43
-97.46
-102.30
-107.16
-112.51
-118.88
-126.63
-135.78
-145.99
-156.80
-167.87
-179.13
-190.48
-201.22
-209.64
-213.01
-208.28
-193.18
-167.07
-131.09
-87.59
-39.33
10.93
60.33
105.66
143.37
170.28
184.78
187.62
181.90
171.94
161.69
153.48
147.77
143.70
140.13
136.42
132.61
129.12
126.20
123.69
121.01
117.53
112.86
107.13
100.95
95.08
90.04
85.95
82.43
78.88
74.81
70.03
64.82
59.67
55.13
51.55
48.95
47.07
45.41
43.50
41.02
37.93
34.52
31.31
28.84
27.50
27.30
27.88
28.62
28.93
28.45
27.22
25.58
24.13
23.50
24.26
26.74
30.82
35.64
39.48
39.98
34.82
22.73
4.21
-18.29
-41.04
-60.34
-73.66
-80.34
-81.37
-78.63
-73.97
-68.63
-63.20
-57.84
-52.61
-47.46
-42.20
-36.40
-29.54
-21.26
-11.65
-1.45
8.26
16.42
22.36
26.03
27.93
28.81
29.29
29.73
30.21
30.69
31.25
32.09
33.44
35.48
38.10
40.99
43.69
45.88
47.45
48.58
49.64
51.05
53.19
56.44
61.03
66.75
72.65
76.90
77.20
71.74
60.21
44.23
26.94
11.78
1.05
-4.87
-7.36
-8.59
-10.40
-13.73
-18.73
-25.22
-33.07
-42.08
-51.69
-60.76
-67.80
-71.56
-71.59
-68.36
-63.17
-57.49
-52.44
-48.50
-45.59
-43.33
-41.26
-39.06
-36.60
-33.89
-31.02
-28.12
-25.30
-22.65
-20.26
-18.30
-16.94
-16.35
-16.56
-17.39
-18.47
-19.39
-19.87
-19.90
-19.66
-19.44
-19.40
-19.50
-19.52
-19.21
-18.45
-17.35
-16.22
-15.43
-15.27
-15.85
-17.07
-18.67
-20.33
-21.72
-22.55
-22.64
-21.98
-20.79
-19.59
-19.04
-19.77
-21.96
-25.06
-27.78
-28.45
-25.68
-19.14
-9.81
0.29
8.87
14.34
16.32
15.70
13.93
12.32
11.36
10.71
9.49
6.94
2.88
-2.19
-7.31
-11.53
-14.35
-15.92
-16.90
-18.16
-20.32
-23.66
-28.28
-34.21
-41.28
-48.64
-54.32
-55.37
-48.91
-33.48
-10.26
17.03
43.34
64.30
77.71
84.00
85.33
84.19
82.29
80.31
78.39
76.82
76.16
77.00
79.42
82.77
85.93
87.90
88.39
88.10
88.55
91.32
97.35
106.39
117.00
127.18
135.25
140.70
144.56
149.07
156.54
168.15
182.86
197.27
206.58
206.03
192.54
165.51
126.79
79.97
29.55
-19.86
-64.22
-100.60
-127.60
-145.50
-155.97
-161.25
-163.23
-162.89
-160.35
-155.44
-148.42
-140.21
-132.02
-124.76
-118.60
-113.01
-107.29
-101.03
-94.42
-87.94
-82.12
-77.08
-72.50
-67.84
-62.67
-57.01
-51.40
-46.57
-43.09
-41.02
-39.87
-38.81
-37.16
-34.57
-31.20
-27.49
-23.91
-20.74
-18.05
-15.72
-13.60
-11.55
-9.51
-7.52
-5.70
-4.18
-3.06
-2.32
-1.85
-1.45
-0.99
-0.49
-0.09
0.04
-0.18
-0.68
-1.24
-1.64
-1.79
-1.74
-1.65
-1.69
-1.95
-2.39
-2.90
-3.34
-3.65
-3.81
-3.84
-3.78
-3.68
-3.57
-3.50
-3.50
-3.60
-3.77
-3.97
-4.16
-4.32
-4.52
-4.84
-5.38
-6.14
-6.99
-7.70
-8.00
-7.69
-6.68
-5.07
-3.06
-0.91
1.18
3.01
4.47
5.46
6.00
6.15
6.10
6.05
6.15
6.46
6.85
7.13
7.13
6.76
6.09
5.26
4.39
3.61
2.92
2.34
1.86
1.49
1.22
1.02
0.89
0.81
0.82
0.95
1.23
1.62
2.02
2.35
2.53
2.59
2.60
2.60
2.59
2.52
2.31
1.97
1.61
1.36
1.34
1.53
1.81
1.98
1.90
1.58
1.12
0.70
0.43
0.33
0.32
0.30
0.23
0.12
0.04
0.04
0.11
0.22
0.28
0.27
0.19
0.08
0.01
0.02
0.11
0.26
0.45
0.62
0.69
0.62
0.36
-0.05
-0.51
-0.88
-1.05
-0.97
-0.70
-0.34
-0.03
0.17
0.24
0.24
0.20
0.13
0.02
-0.14
-0.33
-0.53
-0.70
-0.84
-0.94
-0.98
-0.93
-0.75
-0.42
0.01
0.43
0.72
0.81
0.66
0.32
-0.14
-0.60
-0.96
-1.14
-1.12
-0.92
-0.64
-0.39
-0.27
-0.28
-0.40
-0.53
-0.61
-0.62
-0.56
-0.44
-0.27
-0.05
0.20
0.44
0.62
0.68
0.65
0.56
0.52
0.61
0.87
1.24
1.57
1.73
1.62
1.29
0.84
0.44
0.22
0.18
0.27
0.41
0.53
0.63
0.72
0.81
0.88
0.87
0.76
0.57
0.38
0.28
0.33
0.58
1.00
1.54
2.12
2.66
3.07
3.31
3.35
3.23
3.08
3.03
3.19
3.55
3.97
4.27
4.24
3.81
3.06
2.16
1.31
0.63
0.12
-0.27
-0.65
-1.10
-1.72
-2.61
-3.86
-5.48
-7.34
-9.10
-10.36
-10.78
-10.28
-9.09
-7.64
-6.36
-5.53
-5.16
-5.09
-5.11
-5.12
-5.12
-5.16
-5.26
-5.35
-5.34
-5.11
-4.64
-3.98
-3.22
-2.47
-1.80
-1.24
-0.71
-0.14
0.56
1.40
2.27
3.02
3.47
3.54
3.26
2.77
2.26
1.86
1.60
1.42
1.17
0.74
0.04
-0.90
-2.02
-3.18
-4.25
-5.08
-5.55
-5.58
-5.18
-4.41
-3.35
-2.10
-0.74
0.69
2.18
3.68
5.11
6.31
7.10
7.33
6.94
5.96
4.57
3.01
1.54
0.34
-0.55
-1.33
-2.36
-4.05
-6.68
-10.16
-14.09
-17.78
-20.59
-22.27
-23.05
-23.66
-24.96
-27.53
-31.31
-35.60
-39.36
-41.69
-42.36
-41.97
-41.76
-43.10
-46.80
-52.78
-60.04
-67.06
-72.50
-75.72
-77.00
-77.40
-78.27
-80.95
-86.29
-94.37
-104.14
-113.15
-117.62
-113.20
-96.35
-65.95
-24.26
23.30
69.75
108.74
136.36
151.77
156.56
153.41
145.11
134.09
122.55
112.57
105.56
101.55
98.54
92.71
79.53
55.26
18.28
-30.34
-87.03
-146.34
-201.71
-246.50
-275.16
-284.38
-273.89
-246.36
-206.24
-157.99
-104.71
-47.89
11.47
71.29
127.59
175.17
209.50
228.90
235.48
234.11
230.37
228.10
228.27
229.53
229.82
228.10
225.15
222.96
223.52
227.77
235.37
245.16
255.77
265.76
273.50
276.83
273.26
260.57
237.77
205.46
165.57
120.37
71.55
20.10
-33.00
-85.70
-134.45
-174.77
-202.88
-217.28
-219.47
-213.21
-202.93
-191.95
-181.72
-171.95
-161.80
-150.91
-139.86
-129.79
-121.64
-115.51
-110.56
-105.48
-99.22
-91.43
-82.67
-73.98
-66.37
-60.36
-55.77
-51.90
-47.90
-43.21
-37.80
-32.11
-26.80
-22.44
-19.22
-16.98
-15.36
-14.00
-12.69
-11.48
-10.52
-9.98
-9.92
-10.26
-10.85
-11.52
-12.17
-12.75
-13.25
-13.68
-14.00
-14.18
-14.14
-13.85
-13.30
-12.52
-11.59
-10.67
-9.98
-9.80
-10.32
-11.62
-13.60
-15.96
-18.34
-20.49
-22.38
-24.29
-26.70
-30.08
-34.71
-40.49
-46.97
-53.54
-59.60
-64.84
-69.30
-73.32
-77.39
-81.98
-87.44
-93.94
-101.46
-109.77
-118.39
-126.65
-133.91
-139.98
-145.41
-151.38
-158.94
-168.05
-176.82
-181.70
-178.60
-164.39
-138.02
-100.62
-54.86
-4.07
48.26
98.52
143.00
178.26
201.90
213.44
214.64
208.90
200.13
191.48
184.79
180.55
178.41
177.59
177.23
176.61
175.22
173.03
170.40
167.99
166.34
165.62
165.68
166.20
166.97
167.99
169.37
171.23
173.58
176.48
180.06
184.64
190.36
196.77
202.37
204.63
200.45
187.16
163.31
129.11
86.13
36.79
-16.09
-69.37
-119.59
-163.04
-196.47
-217.92
-227.50
-227.39
-221.07
-212.05
-202.91
-194.95
-188.50
-183.58
-180.17
-178.17
-177.10
-176.04
-173.94
-170.12
-164.77
-158.88
-153.78
-150.63
-149.99
-151.72
-155.15
-159.10
-161.75
-160.75
-153.40
-137.27
-110.97
-74.50
-29.00
23.84
82.46
145.39
210.79
275.61
335.27
384.27
417.47
431.63
426.37
404.10
368.93
325.32
276.69
224.80
170.05
112.56
53.47
-4.28
-56.17
-97.49
-125.11
-138.83
-141.40
-137.32
-130.82
-124.52
-119.00
-113.53
-107.34
-100.48
-93.84
-88.54
-85.07
-82.97
-81.07
-78.13
-73.47
-67.27
-60.48
-54.29
-49.64
-46.79
-45.27
-44.10
-42.31
-39.28
-35.06
-30.28
-25.82
-22.40
-20.27
-19.14
-18.38
-17.34
-15.65
-13.35
-10.84
-8.60
-6.98
-6.05
-5.64
-5.44
-5.21
-4.85
-4.41
-4.02
-3.73
-3.53
-3.34
-3.12
-2.86
-2.62
-2.46
-2.41
-2.43
-2.47
-2.51
-2.56
-2.65
-2.82
-3.04
-3.29
-3.54
-3.80
-4.13
-4.57
-5.14
-5.78
-6.43
-6.99
-7.41
-7.63
-7.62
-7.37
-6.88
-6.22
-5.52
-4.97
-4.68
-4.73
-5.01
-5.36
-5.63
-5.76
-5.88
-6.21
-6.96
-8.20
-9.81
-11.50
-12.95
-13.87
-14.10
-13.72
-12.98
-12.26
-11.98
-12.43
-13.60
-15.13
-16.41
-16.84
-16.08
-14.26
-11.92
-9.86
-8.83
-9.36
-11.52
-14.85
-18.29
-20.35
-19.50
-14.68
-5.88
5.77
18.23
29.30
37.40
42.02
43.65
43.33
42.00
40.24
38.22
36.04
33.85
31.94
30.59
29.82
29.43
29.05
28.33
27.14
25.59
23.93
22.41
21.18
20.28
19.62
19.10
18.66
18.22
17.76
17.29
16.86
16.56
16.51
16.85
17.65
19.00
20.96
23.50
26.38
28.96
30.21
29.00
24.61
17.10
7.58
-2.20
-10.40
-15.85
-18.33
-18.51
-17.41
-15.94
-14.58
-13.43
-12.43
-11.60
-11.12
-11.14
-11.68
-12.55
-13.39
-13.79
-13.47
-12.40
-10.72
-8.75
-6.83
-5.17
-3.84
-2.76
-1.68
-0.38
1.35
3.57
6.17
8.83
11.10
12.46
12.47
10.88
7.79
3.58
-1.13
-5.69
-9.57
-12.53
-14.59
-15.92
-16.70
-17.02
-16.92
-16.41
-15.58
-14.60
-13.68
-12.93
-12.38
-11.90
-11.35
-10.66
-9.85
-9.03
-8.33
-7.83
-7.47
-7.16
-6.73
-6.12
-5.27
-4.27
-3.25
-2.36
-1.74
-1.44
-1.40
-1.49
-1.52
-1.37
-0.98
-0.43
0.15
0.60
0.82
0.83
0.72
0.63
0.64
0.81
1.08
1.40
1.68
1.86
1.87
1.69
1.32
0.82
0.31
-0.10
-0.33
-0.41
-0.41
-0.44
-0.54
-0.68
-0.79
-0.82
-0.79
-0.78
-0.85
-0.99
-1.16
-1.25
-1.21
-1.07
-0.89
-0.77
-0.74
-0.80
-0.88
-0.91
-0.90
-0.86
-0.82
-0.82
-0.83
-0.82
-0.75
-0.62
-0.44
-0.26
-0.16
-0.15
-0.24
-0.36
-0.44
-0.42
-0.31
-0.14
0.02
0.11
0.12
0.08
0.01
-0.01
0.02
0.08
0.12
0.06
-0.13
-0.44
-0.82
-1.18
-1.51
-1.82
-2.13
-2.47
-2.80
-3.08
-3.27
-3.39
-3.54
-3.82
-4.34
-5.10
-6.02
-6.97
-7.82
-8.50
-9.01
-9.41
-9.79
-10.23
-10.84
-11.70
-12.87
-14.38
-16.17
-18.11
-20.01
-21.73
-23.28
-24.84
-26.72
-29.24
-32.53
-36.43
-40.53
-44.34
-47.55
-50.19
-52.65
-55.56
-59.50
-64.73
-71.09
-78.04
-84.90
-91.12
-96.56
-101.46
-106.36
-111.87
-118.52
-126.64
-136.27
-146.98
-157.67
-166.51
-171.06
-168.84
-157.93
-137.51
-107.88
-70.04
-25.20
25.35
79.82
135.23
187.23
230.76
261.59
277.96
281.38
276.12
267.44
259.51
254.16
250.76
247.46
242.46
234.75
223.96
209.73
191.49
169.00
143.12
115.89
89.73
66.08
44.47
22.81
-1.00
-27.35
-54.20
-77.89
-95.08
-104.32
-106.59
-104.26
-99.67
-94.17
-88.27
-82.40
-77.52
-74.99
-75.72
-79.37
-84.33
-88.36
-89.71
-87.97
-84.32
-81.05
-80.55
-84.34
-92.28
-102.41
-111.37
-115.60
-112.76
-102.87
-88.65
-74.78
-66.32
-66.76
-76.54
-92.51
-108.63
-117.70
-113.43
-92.47
-55.49
-7.14
45.32
94.19
133.55
160.70
176.28
183.26
185.30
185.53
185.89
187.35
190.32
194.91
201.02
208.14
215.44
221.94
226.93
230.34
232.83
235.55
239.68
245.67
252.72
258.46
259.51
252.44
235.02
207.07
170.44
128.07
82.55
35.21
-13.70
-63.84
-113.47
-158.90
-195.42
-219.09
-228.59
-225.85
-215.11
-201.10
-187.28
-174.99
-163.91
-153.19
-142.47
-132.19
-123.15
-115.82
-109.87
-104.32
-98.10
-90.59
-81.98
-73.17
-65.32
-59.28
-55.25
-52.72
-50.73
-48.34
-44.97
-40.67
-35.98
-31.64
-28.24
-25.99
-24.65
-23.75
-22.82
-21.62
-20.23
-18.96
-18.17
-18.10
-18.80
-20.08
-21.63
-23.16
-24.46
-25.55
-26.68
-28.19
-30.46
-33.68
-37.74
-42.26
-46.73
-50.73
-54.23
-57.57
-61.34
-66.06
-71.90
-78.63
-85.75
-92.86
-99.89
-107.13
-115.04
-123.88
-133.57
-143.76
-154.17
-164.74
-175.47
-185.75
-193.95
-197.35
-192.82
-178.00
-152.20
-116.53
-73.16
-24.32
28.09
82.12
134.93
182.43
219.95
243.94
253.59
251.45
242.35
231.36
221.74
214.18
207.42
199.80
190.78
181.34
173.40
168.69
167.75
169.72
172.88
175.47
176.51
176.12
175.23
174.98
176.16
178.93
183.01
187.90
193.14
197.97
200.93
199.70
191.47
174.09
147.27
113.15
75.64
38.74
4.74
-26.41
-56.32
-86.33
-115.89
-142.34
-162.16
-173.01
-175.06
-170.91
-164.14
-157.46
-151.75
-146.22
-139.59
-131.33
-122.06
-113.20
-106.02
-100.92
-97.20
-93.65
-89.11
-83.01
-75.66
-67.98
-60.99
-55.44
-51.42
-48.46
-45.76
-42.59
-38.66
-34.16
-29.62
-25.65
-22.60
-20.43
-18.81
-17.27
-15.48
-13.35
-11.06
-8.87
-7.03
-5.64
-4.66
-3.95
-3.35
-2.73
-2.08
-1.43
-0.88
-0.52
-0.40
-0.50
-0.70
-0.83
-0.73
-0.36
0.22
0.83
1.28
1.44
1.31
0.95
0.49
0.06
-0.28
-0.50
-0.60
-0.62
-0.58
-0.50
-0.42
-0.38
-0.38
-0.43
-0.49
-0.55
-0.61
-0.64
-0.65
-0.60
-0.49
-0.34
-0.20
-0.15
-0.21
-0.35
-0.50
-0.52
-0.37
-0.03
0.39
0.79
1.07
1.23
1.28
1.28
1.28
1.28
1.27
1.25
1.20
1.09
0.91
0.65
0.32
-0.00
-0.22
-0.25
-0.07
0.28
0.66
0.92
0.98
0.85
0.63
0.46
0.46
0.61
0.85
1.05
1.11
1.02
0.86
0.73
0.72
0.86
1.13
1.42
1.64
1.67
1.46
1.02
0.45
-0.12
-0.60
-0.93
-1.18
-1.42
-1.76
-2.19
-2.63
-2.98
-3.10
-2.96
-2.59
-2.09
-1.56
-1.07
-0.65
-0.31
-0.05
0.11
0.15
0.05
-0.18
-0.48
-0.76
-0.94
-0.98
-0.89
-0.72
-0.53
-0.34
-0.14
0.04
0.21
0.37
0.52
0.68
0.85
