1659459282.00
64.000000
-0.00
-0.00
-0.00
-0.00
-0.00
-0.00
-0.00
-0.00
-0.00
-0.00
0.00
0.01
0.01
-0.00
-0.03
-0.05
-0.05
0.00
0.13
0.36
0.66
1.01
1.37
1.72
2.06
2.40
2.79
3.24
3.80
4.42
5.06
5.66
6.20
6.68
7.15
7.68
8.31
9.14
10.09
11.04
11.88
12.56
13.14
13.76
14.65
15.96
17.91
20.32
22.90
25.38
27.58
29.57
31.68
34.32
37.81
42.54
48.15
54.10
59.83
64.97
69.58
74.14
79.34
85.71
93.76
103.00
112.62
121.73
129.77
136.75
143.31
150.75
157.77
166.64
177.94
191.79
206.98
220.59
228.29
225.40
208.53
176.78
132.57
79.74
22.67
-35.39
-92.89
-149.60
-205.67
-260.85
-314.31
-364.56
-410.64
-451.80
-487.42
-516.62
-538.06
-550.04
-550.87
-539.48
-515.60
-480.35
-435.75
-384.37
-328.86
-271.56
-214.36
-158.65
-105.50
-55.68
-9.99
30.94
66.58
96.63
121.01
139.89
153.69
163.02
168.67
171.46
172.11
171.12
168.72
164.85
159.34
152.09
143.30
133.51
123.49
113.98
105.41
97.75
90.60
83.37
75.55
66.88
57.23
46.70
35.77
25.58
17.91
14.76
17.43
25.70
37.52
49.73
59.26
64.39
65.28
63.46
60.82
58.44
56.33
53.74
50.04
45.26
40.19
35.84
32.79
30.90
29.41
27.41
24.34
20.34
16.15
12.70
10.67
10.17
10.72
11.41
11.42
10.32
8.21
5.63
3.18
1.37
0.38
0.19
0.56
1.22
1.91
2.36
2.40
1.94
1.05
-0.10
-1.32
-2.50
-3.59
-4.60
-5.49
-6.08
-6.18
-5.62
-4.41
-2.78
-1.12
0.15
0.72
0.50
-0.32
-1.36
-2.20
-2.56
-2.41
-1.99
-1.64
-1.65
-2.04
-2.58
-2.93
-2.85
-2.31
-1.52
-0.79
-0.37
-0.31
-0.46
-0.56
-0.40
0.09
0.83
1.70
2.61
3.52
4.45
5.39
6.31
7.20
8.08
8.89
9.59
10.03
10.06
9.57
8.66
7.62
6.74
6.24
5.94
5.43
4.32
2.40
-0.20
-3.07
-5.72
-7.82
-9.27
-10.22
-10.89
-11.41
-11.80
-11.99
-11.87
-11.41
-10.72
-9.94
-9.26
-8.73
-8.31
-7.87
-7.29
-6.56
-5.78
-5.14
-4.78
-4.75
-4.94
-5.17
-5.26
-5.05
-4.53
-3.76
-2.91
-2.17
-1.71
-1.62
-1.88
-2.34
-2.84
-3.20
-3.32
-3.11
-2.55
-1.64
-0.47
0.77
1.83
2.43
2.45
1.95
1.16
0.32
-0.43
-1.06
-1.64
-2.21
-2.71
-3.03
-3.02
-2.66
-2.03
-1.34
-0.81
-0.58
-0.72
-1.10
-1.56
-1.88
-1.96
-1.84
-1.69
-1.72
-2.04
-2.57
-3.11
-3.43
-3.46
-3.32
-3.24
-3.41
-3.88
-4.53
-5.19
-5.70
-5.97
-5.92
-5.49
-4.56
-3.10
-1.23
0.74
2.47
3.68
4.31
4.53
4.59
4.68
4.80
4.84
4.64
4.19
3.61
3.09
2.80
2.77
2.87
2.94
2.85
2.58
2.21
1.89
1.67
1.55
1.46
1.31
1.06
0.68
0.18
-0.41
-1.02
-1.51
-1.79
-1.79
-1.62
-1.52
-1.72
-2.39
-3.40
-4.48
-5.21
-5.28
-4.59
-3.25
-1.54
0.21
1.71
2.77
3.34
3.50
3.44
3.36
3.39
3.51
3.58
3.42
2.95
2.30
1.71
1.39
1.44
1.77
2.19
2.50
2.62
2.60
2.52
2.43
2.29
2.00
1.52
0.88
0.22
-0.33
-0.68
-0.82
-0.86
-0.90
-1.04
-1.28
-1.61
-2.01
-2.49
-3.10
-3.86
-4.67
-5.32
-5.49
-4.89
-3.45
-1.42
0.73
2.46
3.40
3.57
3.25
2.91
2.89
3.21
3.62
3.79
3.49
2.75
1.88
1.24
1.09
1.44
2.06
2.60
2.80
2.55
2.01
1.44
1.08
1.01
1.09
1.10
0.81
0.20
-0.57
-1.25
-1.63
-1.70
-1.61
-1.57
-1.74
-2.11
-2.54
-2.87
-3.08
-3.22
-3.44
-3.77
-4.11
-4.20
-3.79
-2.78
-1.31
0.29
1.63
2.46
2.80
2.80
2.70
2.59
2.45
2.17
1.71
1.18
0.78
0.73
1.07
1.63
2.08
2.07
1.40
0.15
-1.42
-2.90
-3.96
-4.46
-4.48
-4.28
-4.15
-4.33
-4.84
-5.56
-6.30
-6.90
-7.34
-7.72
-8.23
-9.02
-10.14
-11.52
-13.01
-14.42
-15.55
-16.27
-16.48
-16.21
-15.57
-14.75
-14.04
-13.68
-13.82
-14.40
-15.21
-15.87
-16.05
-15.52
-14.21
-12.22
-9.66
-6.60
-3.02
1.11
5.72
10.54
15.14
19.01
21.76
23.29
23.74
23.42
22.71
21.82
20.87
19.81
18.60
17.21
15.73
14.26
12.93
11.85
10.99
10.22
9.32
8.11
6.51
4.63
2.75
1.28
0.54
0.69
1.63
3.06
4.56
5.76
6.44
6.58
6.38
6.09
5.89
5.79
5.65
5.33
4.73
3.93
3.13
2.51
2.19
2.09
2.05
1.90
1.55
1.02
0.39
-0.29
-0.94
-1.55
-2.06
-2.41
-2.56
-2.48
-2.24
-1.95
-1.76
-1.72
-1.84
-2.05
-2.27
-2.48
-2.73
-3.10
-3.64
-4.34
-5.05
-5.59
-5.73
-5.35
-4.42
-3.07
-1.50
0.06
1.39
2.35
2.93
3.21
3.37
3.59
3.95
4.44
4.87
5.02
4.72
3.98
2.97
1.99
1.32
1.10
1.24
1.51
1.65
1.51
1.12
0.66
0.38
0.38
0.63
0.95
1.12
1.03
0.72
0.37
0.22
0.36
0.78
1.25
1.53
1.39
0.76
-0.33
-1.69
-3.06
-4.13
-4.64
-4.38
-3.30
-1.54
0.56
2.57
4.07
4.83
4.89
4.53
4.10
3.84
3.78
3.73
3.45
2.80
1.91
1.06
0.57
0.58
1.01
1.59
2.06
2.28
2.28
2.15
1.97
1.76
1.52
1.25
0.97
0.71
0.49
0.25
-0.02
-0.33
-0.59
-0.71
-0.67
-0.58
-0.60
-0.90
-1.52
-2.33
-3.12
-3.63
-3.72
-3.34
-2.56
-1.49
-0.29
0.88
1.91
2.70
3.22
3.50
3.58
3.46
3.13
2.57
1.82
1.01
0.30
-0.12
-0.17
0.09
0.52
0.91
1.15
1.21
1.21
1.27
1.45
1.72
1.94
1.98
1.81
1.52
1.26
1.22
1.47
1.98
2.62
3.26
3.80
4.16
4.29
4.20
3.94
3.65
3.48
3.60
4.07
4.84
5.76
6.62
7.18
7.23
6.63
5.32
3.39
1.10
-1.21
-3.20
-4.67
-5.64
-6.28
-6.84
-7.46
-8.07
-8.47
-8.45
-7.98
-7.24
-6.51
-6.06
-5.94
-5.98
-5.92
-5.56
-4.93
-4.20
-3.62
-3.31
-3.20
-3.10
-2.83
-2.29
-1.58
-0.85
-0.30
-0.06
-0.24
-0.86
-1.87
-3.06
-4.13
-4.71
-4.51
-3.40
-1.53
0.77
3.09
5.07
6.48
7.27
7.57
7.58
7.53
7.53
7.54
7.40
6.94
6.19
5.49
5.36
6.36
8.70
12.09
15.78
18.77
20.29
20.18
19.03
17.99
18.18
19.98
22.60
24.39
23.62
19.38
12.20
3.76
-3.88
-9.16
-11.55
-11.55
-10.52
-10.59
-14.69
-25.87
-46.13
-74.81
-107.77
-138.36
-159.98
-169.17
-167.38
-160.29
-155.08
-157.09
-167.84
-184.81
-203.02
-217.02
-222.26
-215.57
-195.52
-162.96
-121.54
-77.40
-37.33
-6.05
16.10
33.54
53.25
81.34
120.04
166.85
216.01
261.36
298.61
326.37
345.55
357.99
365.48
369.35
370.53
369.50
365.99
358.79
345.98
325.88
297.87
263.17
224.69
186.15
151.02
121.63
98.67
81.37
67.87
56.01
43.97
30.71
16.10
0.85
-13.83
-26.55
-36.06
-41.60
-43.09
-41.22
-37.38
-33.27
-30.37
-29.48
-30.42
-32.27
-33.84
-34.27
-33.45
-32.01
-30.93
-31.00
-32.42
-34.72
-37.06
-38.73
-39.52
-39.77
-40.22
-41.54
-43.99
-47.28
-50.68
-53.35
-54.76
-55.03
-55.13
-56.60
-61.15
-69.87
-82.60
-97.51
-111.41
-120.73
-122.83
-117.22
-105.92
-92.87
-82.36
-77.54
-79.22
-85.55
-92.86
-96.92
-94.52
-84.45
-67.58
-46.54
-25.16
-7.80
1.30
-0.96
-15.40
-39.88
-69.47
-97.82
-119.23
-130.58
-132.00
-126.22
-116.88
-106.86
-97.51
-88.99
-81.14
-74.23
-68.87
-65.42
-63.49
-62.06
-59.71
-55.51
-49.31
-41.81
-34.19
-27.49
-22.25
-18.38
-15.33
-12.45
-9.33
-5.96
-2.72
-0.18
1.23
1.35
0.44
-0.94
-2.09
-2.47
-1.94
-0.82
0.29
0.78
0.34
-0.94
-2.63
-4.18
-5.22
-5.64
-5.61
-5.40
-5.24
-5.22
-5.28
-5.40
-5.59
-5.96
-6.56
-7.37
-8.20
-8.81
-9.10
-9.14
-9.19
-9.48
-9.99
-10.26
-9.60
-7.42
-3.59
1.27
6.02
9.43
10.70
9.77
7.30
4.40
2.14
1.22
1.82
3.61
5.98
8.19
9.62
9.90
8.96
7.06
4.72
2.52
0.93
0.28
0.81
2.68
5.98
10.54
15.83
21.10
25.60
29.08
31.80
34.30
36.79
38.78
39.24
37.16
32.37
25.73
18.84
13.17
9.36
6.99
4.97
2.19
-2.00
-7.58
-14.02
-20.61
-26.68
-31.81
-35.90
-39.16
-41.88
-44.09
-45.33
-44.65
-41.11
-34.42
-25.34
-15.53
-6.91
-0.91
2.05
2.49
1.47
0.15
-0.44
0.47
3.35
8.18
14.29
20.50
25.53
28.60
29.85
30.30
31.23
33.32
36.20
38.44
38.37
34.93
28.34
19.94
11.62
4.79
-0.07
-3.58
-6.94
-11.20
-16.76
-23.13
-29.24
-33.90
-36.29
-36.25
-34.20
-30.85
-26.71
-21.79
-15.73
-8.30
0.14
8.54
15.62
20.57
23.38
24.63
24.81
23.91
21.55
17.71
13.34
10.27
10.16
13.13
17.26
19.36
16.91
9.76
0.50
-6.92
-9.34
-6.13
0.73
7.92
12.67
14.04
12.95
11.20
10.21
10.37
11.19
11.94
12.25
12.29
12.45
13.01
13.92
14.94
15.91
16.90
18.00
19.11
19.83
19.68
18.51
16.77
15.41
15.20
16.09
16.92
15.95
11.76
4.17
-5.54
-15.24
-22.87
-27.31
-28.57
-27.54
-25.44
-23.35
-22.08
-22.01
-23.05
-24.58
-25.66
-25.42
-23.52
-20.25
-16.26
-12.08
-7.80
-3.10
2.33
8.45
14.82
20.85
26.09
30.23
32.98
33.93
32.72
29.45
25.05
21.11
19.22
20.04
22.80
25.58
26.33
23.90
18.61
11.95
5.71
1.09
-1.71
-3.35
-4.65
-5.95
-6.90
-6.73
-4.82
-1.19
3.44
8.01
11.64
14.08
15.70
17.29
19.65
23.31
28.27
33.91
39.03
42.06
41.61
37.15
29.50
20.83
13.98
11.22
13.16
18.22
23.33
25.18
21.85
13.62
2.75
-7.61
-15.02
-18.75
-20.01
-21.07
-24.03
-29.81
-37.79
-46.27
-53.28
-57.33
-57.76
-54.76
-49.13
-41.94
-34.26
-26.86
-20.03
-13.56
-7.01
-0.12
6.84
12.93
17.03
18.43
17.39
15.22
13.80
14.63
18.08
23.07
27.42
28.92
26.38
20.25
12.50
5.74
1.97
1.75
4.03
6.85
8.46
8.21
6.76
5.57
6.01
8.55
12.55
16.50
18.75
18.20
14.80
9.63
4.63
2.07
3.83
10.66
21.64
34.28
45.17
51.36
51.56
46.81
39.86
33.76
30.22
28.80
27.42
23.76
16.90
7.88
-0.79
-6.68
-8.77
-7.97
-6.62
-7.25
-11.49
-19.56
-30.43
-42.43
-53.94
-63.77
-71.25
-75.97
-77.64
-75.99
-71.05
-63.35
-53.95
-44.12
-34.71
-25.84
-17.03
-7.80
1.58
10.00
15.96
18.64
18.69
18.11
19.25
23.31
29.46
35.07
37.21
34.33
27.17
18.48
11.52
8.36
8.96
11.48
13.51
13.49
11.49
8.89
7.44
8.10
10.59
13.68
16.07
17.14
17.11
16.78
16.87
17.67
19.06
20.73
22.41
23.83
24.59
24.29
22.82
20.66
18.92
18.67
20.09
21.97
21.97
17.90
9.08
-2.92
-14.75
-22.81
-25.02
-21.77
-15.72
-10.50
-9.03
-12.40
-19.60
-28.28
-35.91
-40.84
-42.68
-42.08
-40.00
-36.94
-32.70
-26.59
-18.22
-7.97
2.84
12.50
19.65
23.76
25.12
24.46
22.36
19.10
14.91
10.31
6.44
4.70
6.06
10.38
16.10
20.83
22.38
19.78
13.73
6.21
-0.53
-4.93
-6.56
-6.09
-4.68
-3.38
-2.78
-2.94
-3.52
-3.97
-3.68
-2.17
0.74
4.89
9.74
14.55
18.53
20.91
21.02
18.44
13.27
6.43
-0.31
-4.75
-5.17
-1.28
5.36
11.76
14.88
12.93
6.22
-3.14
-12.26
-18.78
-21.76
-21.80
-20.53
-19.79
-20.94
-24.38
-29.51
-35.00
-39.26
-41.13
-40.31
-37.36
-33.30
-28.99
-24.66
-19.94
-14.30
-7.46
0.34
8.47
16.02
22.03
25.56
25.92
23.09
18.04
12.75
9.55
10.09
14.38
20.64
26.16
28.63
27.33
23.30
18.55
14.87
12.90
12.07
11.28
9.82
7.90
6.59
7.18
10.37
15.85
22.46
28.89
34.42
39.41
45.05
52.57
62.31
73.30
83.48
90.74
94.02
93.96
92.52
92.00
93.71
97.34
101.26
103.40
102.35
97.84
90.52
81.20
70.20
56.99
40.32
18.68
-9.25
-44.65
-88.51
-141.32
-202.09
-267.26
-330.15
-381.89
-414.00
-421.65
-405.71
-372.55
-331.22
-289.33
-249.90
-210.85
-167.63
-117.08
-60.71
-4.98
40.94
69.08
75.84
63.20
37.50
6.85
-21.35
-42.23
-53.59
-55.33
-48.53
-34.96
-16.84
2.86
20.79
34.13
41.58
43.84
42.95
40.93
38.85
36.61
34.04
32.08
33.22
40.68
56.61
80.53
109.07
137.17
160.07
175.12
182.19
182.97
179.59
173.63
165.75
155.99
144.39
131.33
117.80
105.14
94.58
86.64
80.90
76.19
71.19
65.10
58.01
50.81
44.75
40.81
39.16
39.22
39.96
40.44
40.18
39.06
36.82
32.60
25.02
12.97
-3.25
-21.45
-37.93
-49.09
-53.01
-50.34
-43.74
-36.52
-31.39
-30.09
-33.79
-43.51
-59.80
-81.62
-105.50
-125.72
-136.19
-132.99
-116.21
-90.02
-60.96
-35.47
-17.74
-8.99
-7.82
-11.33
-16.27
-20.02
-21.15
-19.61
-16.35
-12.58
-8.93
-4.92
0.91
10.32
24.47
43.23
64.99
86.77
104.76
115.11
114.98
103.64
83.16
58.11
34.26
16.60
7.64
6.86
11.50
18.17
24.37
29.03
32.19
34.12
34.63
33.12
29.22
23.25
16.52
10.79
7.57
7.44
9.81
13.37
16.88
19.92
23.10
27.74
35.21
46.10
59.91
75.16
89.81
101.67
108.70
109.04
101.17
84.30
58.82
26.76
-8.53
-43.00
-73.04
-96.39
-112.48
-122.18
-127.01
-128.45
-127.41
-124.26
-119.15
-112.43
-104.68
-96.45
-87.85
-78.28
-66.78
-52.71
-36.53
-20.09
-6.16
2.70
5.31
2.41
-3.63
-9.90
-14.07
-15.19
-13.65
-10.55
-7.06
-3.93
-1.45
0.41
1.78
2.77
3.46
3.89
4.08
3.99
3.54
2.67
1.37
-0.31
-2.28
-4.40
-6.53
-8.40
-9.69
-10.06
-9.36
-7.66
-5.24
-2.41
0.72
4.22
8.26
12.81
17.54
21.85
25.11
26.93
27.25
26.29
24.48
22.28
20.25
18.96
18.84
19.93
21.75
23.33
23.57
21.77
17.94
12.86
7.74
3.70
1.36
0.68
1.11
1.93
2.52
2.55
1.97
0.93
-0.36
-1.65
-2.75
-3.49
-3.77
-3.58
-3.04
-2.46
-2.21
-2.67
-3.99
-5.97
-8.10
-9.68
-10.13
-9.23
-7.20
-4.51
-1.66
1.11
3.91
7.06
10.85
15.25
19.82
23.74
25.94
25.39
21.38
13.79
3.31
-8.68
-20.37
-30.06
-36.64
-39.87
-40.30
-38.93
-36.79
-34.60
-32.78
-31.50
-30.77
-30.53
-30.59
-30.66
-30.43
-29.75
-28.76
-27.84
-27.49
-28.05
-29.56
-31.63
-33.56
-34.46
-33.57
-30.50
-25.36
-18.87
-12.10
-6.23
-2.11
-0.12
-0.03
-1.23
-3.00
-4.76
-6.24
-7.41
-8.37
-9.21
-9.91
-10.45
-10.82
-11.13
-11.58
-12.31
-13.38
-14.60
-15.65
-16.23
-16.18
-15.59
-14.79
-14.16
-13.96
-14.17
-14.55
-14.72
-14.37
-13.44
-12.16
-11.00
-10.43
-10.74
-11.79
-13.04
-13.69
-12.95
-10.39
-6.09
-0.70
4.81
9.47
12.65
14.17
14.33
13.68
12.79
12.09
11.78
11.85
12.18
12.58
12.85
12.81
12.36
11.50
10.36
9.18
8.26
7.83
8.00
8.66
9.50
10.08
10.01
9.06
7.35
5.29
3.47
2.39
2.29
2.98
3.97
4.61
4.35
2.96
0.62
-2.12
-4.49
-5.70
-5.24
-3.02
0.57
4.82
8.94
12.27
14.48
15.50
15.49
14.68
13.33
11.64
9.79
7.98
6.39
5.19
4.48
4.34
4.72
5.50
6.51
7.50
8.29
8.75
8.81
8.44
7.65
6.50
5.13
3.77
2.67
1.96
1.59
1.35
0.98
0.31
-0.69
-1.88
-3.04
-3.90
-4.19
-3.70
-2.30
-0.06
2.72
5.60
8.08
9.87
10.88
11.31
11.44
11.44
11.36
11.12
10.60
9.76
8.62
7.25
5.72
4.13
2.64
1.38
0.55
0.20
0.32
0.72
1.13
1.31
1.07
0.42
-0.53
-1.57
-2.47
-3.08
-3.35
-3.32
-3.19
-3.23
-3.74
-4.94
-6.86
-9.18
-11.31
-12.45
-12.00
-9.74
-6.03
-1.65
2.46
5.54
7.29
7.81
7.54
6.94
6.36
5.93
5.62
5.31
4.89
4.38
3.82
3.30
2.83
2.35
1.79
1.09
0.33
-0.33
-0.70
-0.76
-0.64
-0.65
-1.06
-2.00
-3.31
-4.60
-5.45
-5.56
-4.91
-3.75
-2.53
-1.75
-1.82
-2.94
-5.03
-7.69
-10.26
-11.93
-12.00
-10.15
-6.54
-1.91
2.73
6.41
8.53
9.09
8.54
7.56
6.70
6.22
6.00
5.70
4.97
3.62
1.72
-0.49
-2.59
-4.25
-5.26
-5.64
-5.59
-5.38
-5.24
-5.25
-5.38
-5.60
-5.89
-6.35
-7.04
-7.94
-8.86
-9.55
-9.80
-9.59
-9.13
-8.78
-8.88
-9.63
-10.95
-12.54
-13.85
-14.28
-13.35
-10.88
-7.10
-2.59
1.85
5.53
8.06
9.45
10.03
10.22
10.29
10.30
10.06
9.42
8.33
7.01
5.79
5.02
4.87
5.25
5.85
6.30
6.31
5.76
4.74
3.47
2.19
1.07
0.20
-0.44
-0.93
-1.31
-1.61
-1.75
-1.69
-1.45
-1.16
-1.12
-1.64
-2.95
-4.99
-7.33
-9.22
-9.84
-8.58
-5.37
-0.72
4.41
9.01
12.33
14.14
14.65
14.29
13.48
12.41
11.16
9.73
8.26
6.95
6.07
5.80
6.15
6.94
7.93
8.86
9.58
10.02
10.18
10.02
9.52
8.57
7.16
5.42
3.61
2.16
1.47
1.80
3.13
5.08
7.02
8.23
8.13
6.50
3.54
-0.14
-3.67
-6.22
-7.18
-6.33
-3.86
-0.34
3.53
7.00
9.54
10.90
11.13
10.50
9.40
8.18
7.08
6.19
5.52
5.04
4.74
4.58
4.50
4.41
4.13
3.55
2.64
1.52
0.44
-0.37
-0.82
-0.99
-1.17
-1.65
-2.57
-3.85
-5.19
-6.27
-6.88
-7.05
-7.00
-7.08
-7.58
-8.67
-10.23
-11.84
-12.88
-12.71
-10.92
-7.58
-3.28
1.07
4.64
6.90
7.88
7.96
7.59
7.09
6.50
5.72
4.64
3.33
1.98
0.86
0.17
-0.11
-0.16
-0.22
-0.45
-0.89
-1.37
-1.68
-1.68
-1.43
-1.16
-1.18
-1.73
-2.83
-4.29
-5.74
-6.84
-7.35
-7.26
-6.74
-6.10
-5.70
-5.86
-6.74
-8.25
-10.06
-11.57
-12.15
-11.29
-8.88
-5.24
-1.15
2.52
5.03
6.12
6.05
5.46
5.04
5.19
5.85
6.61
6.93
6.47
5.26
3.60
1.95
0.64
-0.22
-0.76
-1.21
-1.75
-2.49
-3.38
-4.29
-5.10
-5.71
-6.01
-5.99
-5.65
-5.03
-4.20
-3.27
-2.40
-1.81
-1.73
-2.37
-3.82
-5.99
-8.59
-11.15
-13.08
-13.81
-12.97
-10.49
-6.72
-2.34
1.80
5.03
7.02
7.91
8.14
8.20
8.35
8.57
8.64
8.31
7.55
6.55
5.60
4.96
4.65
4.54
4.35
3.90
3.14
2.19
1.26
0.54
0.11
-0.06
-0.09
-0.10
-0.24
-0.59
-1.18
-1.93
-2.60
-2.93
-2.61
-1.54
0.12
1.95
3.41
4.09
3.93
3.21
2.45
2.19
2.76
4.20
6.36
8.96
11.70
14.27
16.34
17.63
17.97
17.38
16.09
14.42
12.66
10.97
9.35
7.78
6.26
4.88
3.72
2.75
1.77
0.49
-1.32
-3.65
-6.16
-8.27
-9.47
-9.56
-8.78
-7.80
-7.39
-8.03
-9.73
-12.00
-14.15
-15.65
-16.30
-16.32
-16.10
-16.00
-16.19
-16.68
-17.37
-18.14
-18.81
-19.07
-18.49
-16.65
-13.30
-8.62
-3.25
1.92
6.01
8.56
9.63
9.71
9.44
9.28
9.41
9.73
10.11
10.53
11.11
11.97
13.05
14.02
14.37
13.72
12.03
9.68
7.33
5.63
4.88
4.99
5.54
5.96
5.85
5.04
3.70
2.15
0.76
-0.23
-0.73
-0.85
-0.84
-0.94
-1.40
-2.35
-3.74
-5.32
-6.70
-7.42
-7.10
-5.64
-3.22
-0.32
2.52
4.85
6.44
7.33
7.71
7.80
7.71
7.43
6.85
5.91
4.66
3.27
2.02
1.15
0.85
1.17
1.98
3.05
4.03
4.61
4.59
4.01
3.08
2.10
1.31
0.78
0.44
0.15
-0.11
-0.25
-0.15
0.16
0.44
0.32
-0.52
-2.20
-4.53
-7.13
-9.57
-11.47
-12.53
-12.52
-11.32
-8.97
-5.75
-2.13
1.28
3.97
5.62
6.23
6.01
5.34
4.55
3.86
3.31
2.84
2.32
1.71
1.04
0.43
0.00
-0.23
-0.36
-0.59
-1.08
-1.90
-2.91
-3.82
-4.32
-4.23
-3.60
-2.71
-1.94
-1.59
-1.76
-2.30
-2.99
-3.59
-4.03
-4.36
-4.67
-5.04
-5.47
-5.95
-6.53
-7.34
-8.48
-9.89
-11.33
-12.39
-12.67
-11.95
-10.27
-7.85
-4.96
-1.86
1.29
4.38
7.31
9.87
11.83
12.94
13.07
12.25
10.69
8.71
6.68
4.86
3.43
2.38
1.61
0.98
0.37
-0.31
-1.07
-1.86
-2.57
-3.00
-2.99
-2.44
-1.45
-0.31
0.64
1.12
1.09
0.74
0.40
0.34
0.66
1.24
1.86
2.29
2.37
2.00
1.14
-0.18
-1.77
-3.31
-4.39
-4.71
-4.23
-3.20
-2.10
-1.34
-1.15
-1.48
-2.10
-2.79
-3.43
-4.02
-4.59
-5.11
-5.47
-5.55
-5.28
-4.71
-3.99
-3.31
-2.86
-2.71
-2.87
-3.25
-3.72
-4.11
-4.26
-4.03
-3.35
-2.29
-1.00
0.25
1.20
1.69
1.72
1.45
1.11
0.89
0.82
0.73
0.35
-0.52
-1.93
-3.71
-5.58
-7.21
-8.32
-8.66
-8.05
-6.34
-3.59
-0.08
3.67
7.01
9.39
10.57
10.64
9.98
9.04
8.08
7.17
6.21
5.11
3.86
2.64
1.70
1.23
1.28
1.71
2.30
2.78
3.00
2.96
2.79
2.60
2.40
2.10
1.53
0.59
-0.67
-2.00
-3.08
-3.63
-3.54
-2.88
-1.84
-0.67
0.36
1.00
0.99
0.18
-1.40
-3.42
-5.29
-6.35
-6.13
-4.56
-1.97
1.01
3.71
5.66
6.68
6.86
6.51
5.95
5.49
5.27
5.32
5.51
5.68
5.65
5.37
4.87
4.20
3.44
2.61
1.74
0.92
0.35
0.28
0.86
2.02
3.45
4.66
5.21
4.84
3.63
1.85
-0.08
-1.79
-2.99
-3.51
-3.34
-2.62
-1.68
-0.91
-0.67
-1.07
-1.91
-2.70
-2.86
-2.01
-0.15
2.37
4.95
7.04
8.32
8.76
8.58
8.09
7.49
6.84
6.03
4.91
3.39
1.59
-0.21
-1.66
-2.49
-2.66
-2.32
-1.77
-1.31
-1.11
-1.19
-1.45
-1.81
-2.21
-2.68
-3.32
-4.19
-5.31
-6.60
-7.85
-8.79
-9.18
-8.87
-7.93
-6.62
-5.30
-4.35
-4.02
-4.43
-5.51
-7.08
-8.84
-10.41
-11.39
-11.43
-10.38
-8.35
-5.75
-3.08
-0.81
0.81
1.76
2.24
2.50
2.72
3.00
3.30
3.55
3.66
3.53
3.15
2.50
1.65
0.66
-0.37
-1.35
-2.17
-2.70
-2.82
-2.44
-1.60
-0.55
0.31
0.60
0.07
-1.23
-2.95
-4.57
-5.66
-5.99
-5.68
-5.10
-4.70
-4.85
-5.66
-7.04
-8.70
-10.26
-11.37
-11.71
-11.05
-9.30
-6.54
-3.08
0.60
3.94
6.49
8.03
8.71
8.92
9.16
9.70
10.48
11.04
10.83
9.44
6.89
3.65
0.47
-1.93
-3.12
-3.10
-2.24
-1.08
-0.15
0.22
-0.02
-0.71
-1.56
-2.28
-2.73
-2.98
-3.22
-3.64
-4.30
-5.04
-5.57
-5.66
-5.30
-4.75
-4.44
-4.71
-5.70
-7.22
-8.93
-10.46
-11.54
-12.01
-11.73
-10.59
-8.52
-5.62
-2.19
1.26
4.25
6.48
7.94
8.84
9.42
9.81
9.95
9.72
9.10
8.20
7.21
6.35
5.73
5.43
5.45
5.76
6.22
6.56
6.51
5.88
4.73
3.33
2.03
1.05
0.26
-0.75
-2.47
-5.20
-8.83
-12.81
-16.40
-18.96
-20.23
-20.43
-20.11
-19.87
-20.12
-20.89
-22.00
-23.25
-24.50
-25.74
-26.86
-27.52
-27.19
-25.32
-21.71
-16.66
-10.95
-5.45
-0.84
2.67
5.32
7.54
9.71
11.89
13.91
15.49
16.48
16.96
17.23
17.63
18.31
19.18
19.93
20.22
19.82
18.75
17.15
15.21
13.12
10.98
8.92
7.14
5.90
5.36
5.55
6.25
7.09
7.69
7.78
7.25
6.13
4.55
2.60
0.41
-1.83
-3.85
-5.27
-5.75
-5.06
-3.22
-0.48
2.67
5.75
8.29
10.06
11.05
11.39
11.37
11.22
11.08
10.94
10.72
10.31
9.70
8.95
8.23
7.65
7.21
6.83
6.39
5.80
5.09
4.38
3.81
3.46
3.38
3.50
3.68
3.72
3.39
2.54
1.17
-0.52
-2.17
-3.35
-3.80
-3.52
-2.80
-2.18
-2.18
-3.14
-4.96
-7.16
-8.90
-9.40
-8.17
-5.32
-1.51
2.34
5.41
7.28
8.05
8.10
7.80
7.36
6.73
5.81
4.61
3.27
2.08
1.24
0.81
0.66
0.63
0.61
0.56
0.54
0.58
0.64
0.66
0.59
0.45
0.33
0.31
0.33
0.21
-0.29
-1.32
-2.82
-4.49
-5.93
-6.79
-6.89
-6.35
-5.46
-4.66
-4.26
-4.48
-5.26
-6.39
-7.57
-8.54
-9.13
-9.28
-8.95
-8.09
-6.65
-4.64
-2.18
0.45
2.94
4.97
6.36
7.10
7.25
6.91
6.12
4.93
3.38
1.65
-0.01
-1.27
-1.87
-1.73
-1.03
-0.14
0.54
0.74
0.45
-0.11
-0.59
-0.72
-0.47
0.01
0.46
0.70
0.65
0.40
0.06
-0.26
-0.56
-0.92
-1.45
-2.19
-3.16
-4.25
-5.37
-6.48
-7.58
-8.74
-9.95
-11.06
-11.77
-11.73
-10.71
-8.75
-6.22
-3.75
-1.90
-1.02
-1.02
-1.46
-1.75
-1.45
-0.44
0.98
2.37
3.29
3.55
3.23
2.64
2.11
1.88
2.02
2.47
3.10
3.80
4.47
5.04
5.44
5.62
5.54
5.20
4.66
4.00
3.30
2.66
2.15
1.81
1.60
1.46
1.28
0.96
0.44
-0.30
-1.23
-2.34
-3.61
-5.02
-6.49
-7.84
-8.81
-9.12
-8.59
-7.19
-5.12
-2.66
-0.17
2.08
3.90
5.21
5.97
6.25
6.12
5.72
5.20
4.70
4.32
4.07
3.94
3.85
3.70
3.41
3.02
2.64
2.42
2.44
2.63
2.69
2.31
1.26
-0.41
-2.36
-4.14
-5.38
-5.99
-6.16
-6.30
-6.79
-7.83
-9.41
-11.40
-13.63
-15.93
-18.19
-20.31
-22.13
-23.50
-24.29
-24.49
-24.20
-23.56
-22.73
-21.69
-20.33
-18.47
-15.97
-12.85
-9.28
-5.44
-1.45
2.69
7.03
11.54
15.96
19.83
22.62
23.96
23.85
22.68
21.06
19.63
18.71
18.29
18.01
17.46
16.38
14.79
12.96
11.21
9.81
8.83
8.24
7.93
7.83
7.85
7.92
7.91
7.67
7.14
6.38
5.56
4.87
4.45
4.29
4.21
3.97
3.35
2.25
0.77
-0.78
-2.02
-2.58
-2.26
-1.07
0.71
2.70
4.50
5.89
6.79
7.31
7.59
7.71
7.74
7.67
7.50
7.28
7.03
6.76
6.39
5.87
5.12
4.23
3.35
2.71
2.44
2.53
2.81
3.06
3.12
2.90
2.43
1.80
1.09
0.39
-0.20
-0.59
-0.70
-0.56
-0.32
-0.13
-0.14
-0.34
-0.60
-0.79
-0.85
-0.85
-1.00
-1.48
-2.39
-3.68
-5.19
-6.72
-8.06
-9.02
-9.44
-9.16
-8.13
-6.46
-4.44
-2.45
-0.81
0.29
0.88
1.15
1.32
1.50
1.68
1.76
1.64
1.28
0.75
0.17
-0.32
-0.63
-0.75
-0.70
-0.53
-0.30
-0.04
0.23
0.50
0.74
0.89
0.89
0.71
0.39
0.03
-0.26
-0.37
-0.30
-0.13
-0.03
-0.15
-0.56
-1.25
-2.09
-2.97
-3.77
-4.44
-4.96
-5.34
-5.62
-5.83
-5.96
-5.91
-5.58
-4.84
-3.67
-2.15
-0.53
0.93
2.01
2.63
2.84
2.77
2.54
2.21
1.77
1.21
0.56
-0.10
-0.64
-0.98
-1.11
-1.06
-0.93
-0.80
-0.71
-0.67
-0.62
-0.53
-0.40
-0.28
-0.25
-0.33
-0.50
-0.71
-0.85
-0.89
-0.84
-0.79
-0.84
-1.06
-1.43
-1.86
-2.23
-2.42
-2.43
-2.29
-2.09
-1.95
-1.92
-2.02
-2.22
-2.42
-2.50
-2.33
-1.82
-0.93
0.25
1.58
2.86
3.90
4.60
4.94
4.99
4.82
4.48
4.00
3.37
2.63
1.84
1.10
0.44
-0.12
-0.63
-1.14
-1.72
-2.37
-3.01
-3.57
-3.99
-4.26
-4.40
-4.48
-4.58
-4.74
-4.99
-5.35
-5.81
-6.33
-6.82
-7.15
-7.19
-6.87
-6.24
-5.46
-4.77
-4.42
-4.50
-5.01
-5.81
-6.74
-7.66
-8.50
-9.23
-9.87
-10.40
-10.78
-10.97
-10.92
-10.69
-10.36
-10.12
-10.19
-10.71
-11.76
-13.27
-15.06
-16.88
-18.47
-19.59
-20.06
-19.86
-19.14
-18.21
-17.25
-16.15
-14.16
-9.97
-2.10
10.58
28.08
49.12
71.42
92.40
110.18
124.13
135.04
144.47
153.84
163.40
171.85
176.51
174.33
163.14
142.59
114.47
81.95
48.70
17.93
-8.15
-28.33
-42.65
-52.69
-62.03
-75.37
-96.57
-126.08
-159.91
-190.92
-212.26
-220.91
-219.26
-213.66
-210.77
-213.99
-222.02
-230.07
-232.62
-225.82
-208.18
-179.66
-140.25
-89.54
-27.74
42.69
116.06
184.08
238.13
271.82
283.18
275.06
253.53
225.27
195.12
165.41
136.70
109.39
84.66
64.40
49.96
41.05
35.72
31.37
26.35
20.68
15.67
12.78
12.23
12.69
11.88
7.94
0.53
-8.96
-18.16
-24.88
-28.16
-28.40
-26.93
-25.10
-23.61
-22.27
-20.46
-17.69
-14.04
-10.23
-7.23
-5.67
-5.50
-6.00
-6.23
-5.53
-3.90
-1.94
-0.46
-0.09
-0.94
-2.70
-4.89
-7.16
-9.38
-11.60
-13.82
-15.89
-17.54
-18.58
-19.06
-19.37
-20.09
-21.64
-24.06
-26.85
-29.17
-30.25
-29.84
-28.30
-26.47
-25.14
-24.57
-24.42
-23.97
-22.61
-20.21
-17.14
-14.09
-11.63
-10.03
-9.27
-9.21
-9.74
-10.77
-12.18
-13.67
-14.86
-15.33
-14.80
-13.16
-10.49
-7.06
-3.40
-0.24
1.73
2.18
1.43
0.41
0.23
1.53
4.04
6.71
8.25
7.93
6.00
3.44
1.31
0.11
-0.45
-1.07
-2.19
-3.72
-5.19
-6.26
-7.03
-7.92
-9.17
-10.37
-10.52
-8.62
-4.39
1.33
7.01
11.33
14.04
16.13
19.33
25.10
33.86
44.90
56.76
67.88
77.07
83.57
86.92
86.94
83.73
77.78
69.98
61.40
53.01
45.38
38.65
32.56
26.56
20.00
12.29
3.32
-6.20
-14.67
-20.07
-20.70
-16.07
-7.33
3.24
13.15
20.79
26.06
30.17
34.85
41.55
50.74
61.95
74.05
85.76
96.16
104.89
112.32
119.36
127.21
136.96
149.30
164.22
180.95
197.95
213.03
223.64
227.41
222.87
210.13
191.11
169.13
147.84
129.93
116.48
107.01
100.44
96.02
93.73
93.70
95.39
96.85
95.03
87.06
71.59
49.56
23.83
-2.22
-26.31
-48.15
-69.39
-92.71
-120.55
-154.03
-192.22
-232.05
-268.78
-297.15
-312.90
-314.36
-303.01
-282.97
-259.27
-235.98
-215.00
-196.10
-178.00
-159.42
-139.70
-118.73
-96.65
-74.05
-52.38
-34.01
-21.63
-16.98
-19.71
-27.31
-36.25
-43.75
-48.95
-52.89
-57.20
-62.68
-68.65
-73.35
-75.29
-74.37
-72.09
-70.75
-72.20
-76.90
-83.86
-91.46
-98.42
-104.45
-110.00
-115.50
-120.52
-123.52
-122.44
-115.94
-104.37
-89.98
-76.20
-66.18
-61.45
-61.51
-64.21
-66.83
-67.01
-63.32
-55.26
-43.24
-28.35
-12.41
2.05
12.31
16.05
12.30
1.92
-12.67
-28.36
-42.45
-53.44
-61.18
-66.33
-69.84
-72.43
-74.41
-75.58
-75.27
-72.27
-65.09
-52.59
-34.78
-13.43
8.05
25.51
35.70
37.41
31.91
22.09
11.09
1.13
-6.95
-13.30
-18.39
-22.48
-25.41
-26.84
-26.46
-24.15
-20.09
-14.78
-8.96
-3.37
1.72
6.81
12.91
20.73
29.77
38.00
42.55
41.24
33.96
23.06
12.27
4.94
2.72
5.07
10.05
15.46
19.68
21.89
21.97
20.28
17.58
14.84
12.93
12.25
12.59
13.26
13.53
12.87
11.03
7.69
2.47
-4.86
-13.96
-23.56
-31.75
-36.75
-37.78
-35.58
-32.12
-29.78
-30.33
-34.34
-41.11
-49.08
-56.38
-61.28
-62.44
-59.07
-51.01
-38.94
-24.39
-9.66
2.73
10.70
13.31
11.13
5.95
0.06
-4.66
-7.25
-7.67
-6.30
-3.35
1.26
7.66
15.55
23.94
31.42
36.73
39.35
39.64
38.52
36.97
35.53
34.33
33.31
32.49
32.06
32.20
32.86
33.72
34.36
34.46
33.92
32.81
31.16
28.86
25.83
22.32
19.05
17.21
18.01
22.23
29.74
39.44
49.46
57.75
62.64
63.42
60.53
55.34
49.67
44.96
41.81
39.90
38.37
36.53
34.27
32.24
31.33
32.10
34.38
37.23
39.48
40.33
39.69
38.17
36.58
35.41
34.53
33.36
31.35
28.55
25.76
24.26
25.15
28.68
33.99
39.46
43.29
44.23
41.87
36.62
29.51
21.90
15.26
11.00
10.11
12.79
18.23
24.77
30.42
33.67
34.06
32.25
29.49
26.96
25.14
23.76
22.18
19.76
16.34
12.26
8.18
4.78
2.55
1.62
1.85
2.82
4.00
4.86
5.06
4.48
3.23
1.59
-0.05
-1.31
-1.84
-1.45
-0.17
1.66
3.54
4.92
5.38
4.74
2.99
0.28
-3.05
-6.33
-8.47
-8.15
-4.33
3.17
13.17
23.40
31.22
34.66
33.24
27.99
20.92
14.07
8.76
5.24
3.01
1.35
-0.26
-1.85
-3.13
-3.75
-3.61
-2.90
-1.98
-1.14
-0.39
0.49
1.80
3.63
5.64
7.12
7.23
5.32
1.25
-4.50
-10.87
-16.57
-20.52
-22.23
-22.03
-20.94
-20.25
-21.09
-23.91
-28.41
-33.49
-37.58
-38.99
-36.37
-29.26
-18.42
-5.88
5.50
12.99
14.91
11.36
4.04
-4.51
-11.89
-16.56
-18.07
-16.67
-13.02
-7.98
-2.54
2.13
4.94
5.25
3.19
-0.33
-4.01
-6.67
-7.69
-7.14
-5.66
-4.24
-3.92
-5.49
-9.16
-14.37
-19.83
-23.98
-25.59
-24.35
-21.01
-16.99
-13.70
-11.91
-11.63
-12.33
-13.29
-14.00
-14.04
-13.02
-10.56
-6.38
-0.53
6.46
13.61
19.70
23.60
24.62
22.56
17.73
10.68
2.03
-7.75
-18.17
-28.55
-37.98
-45.51
-50.67
-53.87
-56.49
-60.30
-66.51
-74.97
-84.00
-91.19
-94.57
-93.66
-89.67
-84.66
-80.51
-77.92
-76.23
-73.98
-69.87
-63.29
-54.52
-44.21
-32.99
-21.20
-9.00
3.24
14.71
24.13
30.33
32.74
31.90
29.58
28.21
30.11
36.55
47.19
60.24
73.05
83.07
88.67
89.50
86.35
80.69
74.12
67.95
63.08
59.93
58.49
58.41
59.06
59.81
60.11
59.63
58.22
55.83
52.48
48.32
43.69
39.05
34.94
31.68
29.31
27.57
26.08
24.60
23.20
22.24
22.21
23.40
25.60
28.10
29.82
29.70
27.07
21.91
14.87
7.10
-0.00
-5.13
-7.27
-5.95
-1.32
5.76
13.89
21.36
26.65
28.79
27.72
24.21
19.54
15.04
11.62
9.59
8.69
8.38
8.16
7.77
7.26
6.69
6.12
5.45
4.54
3.37
2.13
1.14
0.68
0.79
1.22
1.49
1.13
-0.14
-2.29
-5.01
-7.85
-10.31
-11.96
-12.51
-11.90
-10.33
-8.31
-6.56
-5.78
-6.52
-8.96
-12.86
-17.61
-22.28
-25.74
-26.88
-24.90
-19.63
-11.79
-2.86
5.24
10.77
12.75
11.19
6.99
1.46
-4.11
-8.76
-12.07
-13.97
-14.70
-14.60
-14.05
-13.37
-12.77
-12.35
-12.10
-12.02
-12.19
-12.84
-14.24
-16.59
-19.83
-23.56
-27.16
-30.01
-31.83
-32.81
-33.62
-35.05
-37.51
-40.83
-44.23
-46.83
-48.19
-48.62
-48.96
-50.04
-52.09
-54.50
-56.13
-55.82
-52.66
-45.96
-35.03
-19.13
2.14
28.09
56.41
83.35
104.74
117.46
120.54
115.34
104.82
92.19
79.81
68.67
58.61
49.03
39.39
29.59
19.89
10.68
2.27
-5.29
-12.12
-18.37
-24.04
-28.91
-32.57
-34.69
-35.28
-34.74
-33.82
-33.32
-33.76
-35.17
-37.11
-38.92
-39.94
-39.76
-38.27
-35.59
-32.05
-28.14
-24.43
-21.50
-19.80
-19.45
-20.22
-21.56
-22.73
-22.97
-21.66
-18.46
-13.46
-7.26
-0.78
4.86
8.79
10.70
10.91
10.31
9.92
10.44
12.02
14.20
16.19
17.25
17.02
15.71
13.87
12.21
11.22
10.99
11.27
11.61
11.56
10.86
9.43
7.37
4.93
2.50
0.52
-0.52
-0.40
0.82
2.76
4.87
6.74
8.21
9.43
10.58
11.72
12.64
12.91
12.14
10.19
7.32
4.18
1.63
0.52
1.39
4.33
8.88
14.12
18.94
22.36
23.84
23.39
21.49
18.93
16.50
14.82
14.19
14.62
15.90
17.72
19.81
21.97
24.07
25.94
27.25
27.58
26.48
23.74
19.48
14.31
9.10
4.73
1.79
0.39
0.22
0.76
1.51
2.18
2.70
3.07
3.24
3.04
2.26
0.82
-1.17
-3.41
-5.50
-7.20
-8.47
-9.37
-9.93
-9.95
-9.06
-6.89
-3.36
1.09
5.62
9.19
11.05
11.00
9.49
7.34
5.44
4.41
4.44
5.35
6.75
8.19
9.31
9.84
9.65
8.76
7.34
5.67
4.11
2.97
2.47
2.62
3.24
4.02
4.58
4.66
4.17
3.22
2.04
0.92
0.10
-0.24
0.00
0.85
2.22
3.87
5.45
6.50
6.61
5.42
2.82
-0.99
-5.40
-9.36
-11.58
-11.00
-7.20
-0.80
6.69
13.30
17.42
18.27
16.20
12.38
8.23
4.92
3.00
2.41
2.71
3.36
3.86
3.87
3.24
1.92
-0.02
-2.42
-4.99
-7.41
-9.39
-10.77
-11.59
-12.07
-12.49
-13.00
-13.59
-14.13
-14.47
-14.61
-14.76
-15.18
-16.04
-17.30
-18.73
-19.99
-20.87
-21.36
-21.70
-22.28
-23.43
-25.36
-28.04
-31.11
-33.90
-35.57
-35.37
-32.93
-28.48
-22.78
-16.94
-11.99
-8.60
-6.93
-6.67
-7.22
-7.94
-8.29
-7.99
-7.09
-5.96
-5.13
-5.07
-6.03
-7.86
-10.17
-12.44
-14.25
-15.30
-15.41
-14.53
-12.72
-10.25
-7.56
-5.22
-3.76
-3.47
-4.39
-6.27
-8.73
-11.34
-13.64
-15.27
-15.97
-15.67
-14.55
-12.94
-11.28
-9.97
-9.34
-9.55
-10.54
-11.97
-13.18
-13.27
-11.39
-7.10
-0.62
7.10
14.68
20.69
24.17
24.81
23.00
19.60
15.65
12.11
9.60
8.37
8.27
8.90
9.83
10.69
11.27
11.50
11.32
10.65
9.43
7.68
5.61
3.65
2.26
1.81
2.41
3.85
5.65
7.20
7.97
7.72
6.53
4.80
3.07
1.80
1.23
1.27
1.64
1.98
1.97
1.46
0.45
-0.83
-1.95
-2.38
-1.59
0.76
4.63
9.51
14.58
18.90
21.69
22.59
21.77
19.80
17.52
15.72
14.91
15.22
16.39
17.93
19.34
20.29
20.64
20.44
19.83
18.96
17.95
16.89
15.81
14.65
13.29
11.55
9.35
6.80
4.25
2.16
0.94
0.74
1.36
2.30
3.01
3.04
2.20
0.49
-1.93
-4.90
-8.27
-11.79
-15.04
-17.40
-18.17
-16.88
-13.49
-8.53
-2.95
2.18
6.01
8.12
8.59
7.83
6.42
4.95
3.90
3.58
4.03
5.04
6.17
6.94
7.02
6.36
5.19
3.81
2.46
1.23
0.06
-1.12
-2.33
-3.48
-4.45
-5.13
-5.46
-5.48
-5.28
-5.01
-4.86
-4.95
-5.28
-5.66
-5.74
-5.21
-3.96
-2.18
-0.36
0.84
0.88
-0.49
-3.13
-6.46
-9.61
-11.60
-11.63
-9.39
-5.23
-0.09
4.74
8.09
9.28
8.34
5.91
2.92
0.27
-1.49
-2.18
-1.96
-1.14
-0.08
0.97
1.85
2.53
3.04
3.40
3.58
3.52
3.15
2.48
1.58
0.58
-0.38
-1.22
-1.90
-2.41
-2.77
-3.06
-3.35
-3.76
-4.33
-5.06
-5.84
-6.62
-7.37
-8.22
-9.38
-11.11
-13.53
-16.53
-19.58
-21.83
-22.26
-20.12
-15.29
-8.49
-1.18
4.93
8.50
9.02
6.89
3.16
-0.94
-4.40
-6.64
-7.47
-7.03
-5.69
-3.98
-2.50
-1.83
-2.29
-3.87
-6.20
-8.67
-10.74
-12.09
-12.70
-12.79
-12.63
-12.42
-12.15
-11.72
-11.04
-10.21
-9.49
-9.17
-9.44
-10.16
-10.99
-11.53
-11.59
-11.35
-11.19
-11.51
-12.44
-13.82
-15.30
-16.53
-17.27
-17.32
-16.43
-14.24
-10.49
-5.27
0.82
6.75
11.36
13.83
13.93
12.13
9.33
6.59
4.75
4.22
4.92
6.42
8.04
9.20
9.56
9.17
8.33
7.39
6.53
5.71
4.77
3.66
2.58
1.92
2.03
3.00
4.51
6.00
6.88
6.85
5.99
4.69
3.43
2.55
2.15
2.13
2.27
2.35
2.19
1.69
0.83
-0.24
-1.18
-1.47
-0.57
1.91
6.02
11.31
16.94
21.88
25.14
26.08
24.58
21.16
16.83
12.86
10.41
10.12
11.99
15.35
19.21
22.57
24.74
25.44
24.73
22.83
20.06
16.82
13.53
10.62
8.39
6.83
5.68
4.53
3.00
1.00
-1.26
-3.34
-4.78
-5.35
-5.13
-4.49
-3.95
-3.96
-4.86
-6.75
-9.55
-13.00
-16.64
-19.77
-21.62
-21.49
-19.04
-14.50
-8.62
-2.49
2.81
6.51
8.28
8.26
6.90
4.87
2.89
1.60
1.39
2.28
3.89
5.60
6.81
7.16
6.64
5.56
4.35
3.33
2.68
2.35
2.18
2.02
1.79
1.56
1.41
1.46
1.67
1.89
1.87
1.41
0.46
-0.84
-2.21
-3.37
-4.16
-4.65
-5.10
-5.84
-7.09
-8.83
-10.75
-12.31
-12.88
-11.99
-9.56
-5.98
-1.98
1.59
4.10
5.34
5.55
5.17
4.72
4.51
4.64
5.05
5.55
5.95
6.01
5.56
4.54
3.09
1.50
0.10
-0.86
-1.33
-1.47
-1.48
-1.46
-1.40
-1.21
-0.82
-0.31
0.15
0.32
0.07
-0.61
-1.60
-2.72
-3.74
-4.50
-4.91
-5.00
-4.94
-4.98
-5.36
-6.24
-7.53
-8.92
-9.85
-9.75
-8.12
-4.83
-0.15
5.22
10.31
14.19
16.26
16.44
15.13
13.11
11.17
9.88
9.44
9.77
10.65
11.77
12.87
13.62
13.73
12.96
11.30
9.04
6.65
4.61
3.16
2.22
1.40
0.28
-1.47
-3.92
-6.97
-10.43
-14.10
-17.74
-21.08
-23.80
-25.70
-26.78
-27.33
-27.79
-28.48
-29.47
-30.57
-31.44
-31.95
-32.20
-32.47
-32.87
-33.16
-32.71
-30.77
-26.90
-21.30
-14.82
-8.66
-3.95
-1.30
-0.67
-1.52
-3.13
-4.94
-6.62
-8.08
-9.26
-10.01
-10.02
-9.06
-7.12
-4.55
-1.98
-0.09
0.59
-0.06
-1.79
-4.03
-6.06
-7.14
-6.71
-4.55
-0.88
3.58
7.83
10.80
11.78
10.59
7.71
4.11
0.82
-1.32
-2.03
-1.58
-0.61
0.23
0.50
0.20
-0.44
-1.02
-1.25
-0.90
0.16
2.02
4.67
7.91
11.28
14.16
15.99
16.54
16.06
15.11
14.35
14.15
14.48
14.93
14.99
14.35
13.04
11.47
10.16
9.56
9.79
10.61
11.55
12.06
11.78
10.58
8.62
6.23
3.77
1.50
-0.48
-2.15
-3.50
-4.44
-4.78
-4.37
-3.21
-1.55
0.17
1.52
2.19
2.15
1.58
0.76
-0.01
-0.46
-0.35
0.51
2.24
4.78
7.86
11.04
13.78
15.64
16.35
15.94
14.68
13.05
11.59
10.69
10.46
10.72
11.04
11.03
10.47
9.46
8.29
7.21
6.26
5.27
3.94
2.13
0.09
-1.63
-2.36
-1.74
0.05
2.27
3.94
4.22
2.87
0.29
-2.69
-5.15
-6.50
-6.65
-6.00
-5.15
-4.76
-5.26
-6.82
-9.27
-12.06
-14.31
-15.09
-13.69
-10.00
-4.70
0.96
5.52
7.90
7.81
5.78
2.89
0.31
-1.19
-1.37
-0.47
1.06
2.75
4.30
5.54
6.38
6.80
6.80
6.46
5.90
5.22
4.46
3.66
2.79
1.92
1.14
0.55
0.22
0.05
-0.16
-0.66
-1.58
-2.84
-4.09
-4.93
-5.05
-4.44
-3.40
-2.43
-1.98
-2.32
-3.44
-5.09
-6.77
-7.90
-7.84
-6.12
-2.70
1.97
6.87
10.76
12.67
12.29
10.12
7.25
4.80
3.51
3.46
4.20
5.04
5.37
4.89
3.65
1.98
0.31
-1.02
-1.80
-2.06
-1.95
-1.69
-1.43
-1.27
-1.27
-1.50
-2.07
-3.04
-4.39
-5.90
-7.25
-8.15
-8.51
-8.48
-8.37
-8.45
-8.84
-9.45
-10.15
-10.87
-11.68
-12.67
-13.84
-14.93
-15.43
-14.79
-12.62
-8.89
-3.93
1.61
6.93
11.24
13.83
14.34
12.87
10.01
6.74
4.05
2.65
2.76
4.13
6.26
8.56
10.43
11.19
10.11
6.62
0.58
-7.43
-16.20
-24.17
-29.96
-32.86
-32.89
-30.79
-27.67
-24.69
-22.77
-22.38
-23.42
-25.22
-26.75
-27.06
-25.64
-22.74
-19.14
-15.90
-13.91
-13.55
-14.68
-16.69
-18.74
-19.92
-19.45
-16.89
-12.28
-6.26
0.05
5.33
8.51
9.10
7.41
4.39
1.38
-0.31
0.17
2.99
7.62
12.93
17.62
20.60
21.34
19.97
17.16
13.82
10.71
8.27
6.66
5.84
5.67
6.02
6.70
7.40
7.76
7.48
6.47
4.94
3.32
2.08
1.55
1.77
2.50
3.35
3.92
3.99
3.53
2.68
1.67
0.72
-0.00
-0.36
-0.22
0.62
2.35
5.01
8.47
12.29
15.85
18.47
19.74
19.60
18.42
16.82
15.40
14.51
14.13
13.98
13.78
13.43
13.12
13.12
13.56
14.32
14.99
15.20
14.74
13.69
12.31
10.85
9.37
7.81
6.06
4.17
2.34
0.82
-0.19
-0.67
-0.73
-0.53
-0.20
0.16
0.41
0.37
-0.17
-1.40
-3.35
-5.73
-7.99
-9.37
-9.20
-7.18
-3.54
0.98
5.34
8.58
10.10
9.85
8.30
6.20
4.30
3.11
2.83
3.27
4.06
4.79
5.12
4.96
4.40
3.63
2.83
2.10
1.41
0.74
0.08
-0.50
-0.86
-0.92
-0.69
-0.26
0.12
0.27
0.05
-0.47
-1.08
-1.52
-1.62
-1.42
-1.20
-1.34
-2.19
-3.88
-6.34
-9.22
-11.95
-13.91
-14.51
-13.37
-10.43
-6.06
-1.02
3.71
7.12
8.57
7.89
5.55
2.49
-0.24
-1.79
-1.84
-0.63
1.17
2.78
3.59
3.32
2.07
0.15
-2.02
-4.05
-5.67
-6.72
-7.25
-7.44
-7.51
-7.60
-7.67
-7.56
-7.11
-6.41
-5.81
-5.78
-6.63
-8.26
-10.21
-11.85
-12.73
-12.83
-12.55
-12.41
-12.81
-13.80
-15.17
-16.57
-17.72
-18.39
-18.32
-17.18
-14.68
-10.78
-5.96
-1.15
2.48
4.07
3.48
1.35
-1.11
-2.75
-2.92
-1.76
0.05
1.61
2.29
1.88
0.65
-0.92
-2.39
-3.43
-3.93
-3.94
-3.58
-3.08
-2.68
-2.53
-2.67
-2.91
-3.02
-2.80
-2.30
-1.78
-1.59
-1.99
-3.00
-4.40
-5.84
-7.08
-8.02
-8.74
-9.42
-10.26
-11.52
-13.48
-16.42
-20.37
-24.93
-29.20
-32.09
-32.85
-31.53
-29.03
-26.79
-26.16
-27.90
-31.94
-37.52
-43.66
-49.60
-54.99
-59.88
-64.40
-68.72
-73.07
-77.57
-82.16
-86.55
-90.03
-91.56
-89.82
-83.32
-71.23
-53.68
-31.76
-7.12
18.61
44.19
68.93
92.49
114.92
135.49
152.92
165.99
174.43
179.30
182.48
185.64
189.56
194.46
199.18
202.05
201.75
198.01
191.84
184.79
178.13
172.33
167.62
162.23
153.18
137.25
112.57
79.92
42.03
2.10
-42.99
-91.44
-138.32
-178.28
-209.00
-230.95
-244.96
-251.78
-252.79
-250.33
-246.39
-245.71
-250.61
-263.13
-284.52
-313.22
-344.85
-372.99
-390.76
-392.38
-376.37
-345.71
-302.51
-253.53
-204.92
-160.06
-119.35
-81.34
-44.19
-7.59
27.62
60.20
89.40
116.43
143.47
172.41
204.18
238.99
275.98
313.59
349.16
378.81
398.87
406.65
401.25
383.98
357.93
326.81
293.90
261.35
230.04
200.65
173.91
150.42
130.30
112.90
96.93
81.10
64.59
47.35
30.29
14.84
2.30
-6.81
-12.98
-17.50
-21.93
-27.33
-33.89
-40.68
-46.30
-49.64
-50.52
-49.83
-49.03
-49.35
-51.14
-53.78
-56.01
-56.66
-55.12
-51.57
-46.61
-40.90
-34.81
-28.43
-21.81
-15.23
-9.28
-4.63
-1.64
-0.13
0.65
1.69
3.79
7.22
11.69
16.42
20.50
23.09
23.49
21.25
16.07
7.87
-3.15
-16.36
-30.70
-44.75
-56.96
-65.91
-70.55
-70.44
-65.79
-57.32
-46.08
-33.15
-19.52
-6.15
5.94
15.65
22.10
24.98
24.79
22.62
19.58
16.20
12.15
6.65
-0.81
-9.86
-19.10
-26.74
-31.43
-32.94
-32.18
-30.73
-30.04
-30.90
-33.18
-36.04
-38.43
-39.52
-39.10
-37.66
-36.12
-35.36
-35.64
-36.42
-36.58
-35.20
-31.99
-27.62
-23.21
-19.76
-17.75
-17.20
-18.04
-20.21
-23.74
-28.08
-31.82
-32.97
-30.22
-24.07
-17.05
-12.62
-13.61
-21.06
-33.14
-45.54
-52.48
-48.91
-32.47
-4.06
32.96
74.31
115.33
152.40
182.90
205.45
218.97
221.85
212.77
192.07
162.54
127.70
91.16
54.53
18.25
-18.36
-56.36
-95.86
-135.30
-164.99
-174.67
-160.42
-130.20
-96.87
-69.95
-52.38
-41.84
-33.99
-25.31
-17.94
-13.28
-14.32
-22.40
-36.84
-55.62
-75.93
-94.68
-109.25
-119.37
-120.81
-113.87
-100.30
-82.65
-63.65
-45.39
-28.80
-13.83
-0.57
10.81
18.95
23.42
24.86
24.56
23.95
24.07
25.25
26.96
28.41
28.28
26.30
23.20
20.19
18.32
18.08
19.32
21.37
23.49
24.71
24.66
23.45
21.48
19.17
16.83
14.64
12.59
10.65
8.61
6.43
4.24
2.17
0.23
-1.82
-4.36
-7.66
-11.67
-16.00
-19.99
-22.93
-24.35
-24.15
-22.55
-19.89
-16.53
-12.76
-8.77
-4.73
-0.86
2.57
5.30
7.18
8.26
8.77
9.00
9.20
9.44
9.63
9.55
9.05
8.19
7.18
6.34
5.89
5.87
6.08
6.16
5.73
4.53
2.57
0.14
-2.25
-4.05
-4.79
-4.29
-2.82
-1.09
-0.05
-0.48
-2.54
-5.62
-8.50
-9.73
-8.33
-4.38
0.81
5.25
7.31
6.56
3.93
1.35
0.86
3.87
10.47
19.34
28.41
35.74
40.09
41.01
39.02
35.79
34.14
37.01
46.06
60.78
78.26
93.88
102.65
101.15
89.09
70.03
49.73
33.43
24.21
22.00
23.81
24.85
20.35
5.66
-18.93
-47.07
-70.49
-84.19
-88.35
-85.98
-80.38
-73.87
-67.69
-61.87
-56.57
-52.74
-50.62
-49.87
-49.42
-48.42
-46.84
-45.65
-45.96
-49.39
-58.70
-73.66
-92.03
-109.36
-120.05
-119.28
-105.12
-79.25
-45.63
-14.37
7.33
17.74
20.41
21.79
28.17
38.67
49.44
