1660931158.00
64.000000
-0.00
-0.00
-0.00
-0.00
-0.00
-0.00
-0.00
-0.00
-0.00
-0.00
0.00
0.01
0.01
-0.00
-0.03
-0.05
-0.05
0.00
0.13
0.36
0.66
1.01
1.37
1.72
2.06
2.40
2.79
3.25
3.81
4.44
5.09
5.73
6.32
6.91
7.54
8.27
9.15
10.24
11.44
12.62
13.70
14.64
15.53
16.55
17.91
19.74
22.22
25.13
28.19
31.14
33.86
36.47
39.32
42.84
47.30
52.99
59.52
66.36
72.99
79.19
85.17
91.49
98.83
107.59
118.09
129.67
141.50
152.85
163.44
173.62
184.22
196.51
208.90
223.24
239.76
258.46
278.39
297.15
310.97
315.56
307.48
285.36
250.88
207.29
158.71
108.69
59.44
11.95
-33.43
-76.49
-116.97
-154.56
-189.97
-224.57
-259.95
-296.98
-334.80
-370.46
-399.39
-417.05
-420.46
-409.69
-387.80
-359.68
-330.12
-302.20
-276.86
-253.47
-231.09
-209.27
-188.45
-169.41
-152.53
-137.49
-123.43
-109.53
-95.40
-81.31
-67.99
-56.18
-46.27
-38.10
-31.11
-24.62
-18.14
-11.53
-5.05
0.89
5.92
9.86
12.82
15.09
17.02
18.90
20.85
22.81
24.59
25.94
26.68
26.78
26.36
25.65
24.94
24.38
24.00
23.73
23.46
23.12
22.72
22.31
21.91
21.48
20.94
20.23
19.34
18.35
17.39
16.60
16.04
15.70
15.52
15.41
15.29
15.10
14.83
14.49
14.09
13.68
13.25
12.82
12.39
11.99
11.64
11.37
11.13
10.85
10.45
9.91
9.31
8.77
8.42
8.31
8.38
8.52
8.60
8.51
8.22
7.76
7.18
6.58
6.03
5.64
5.47
5.52
5.73
5.99
6.16
6.14
5.90
5.47
4.94
4.36
3.80
3.24
2.69
2.12
1.53
0.94
0.41
-0.04
-0.40
-0.71
-1.02
-1.40
-1.83
-2.29
-2.70
-3.01
-3.26
-3.52
-3.89
-4.44
-5.18
-6.02
-6.84
-7.53
-7.99
-8.25
-8.33
-8.33
-8.30
-8.23
-8.09
-7.86
-7.51
-7.07
-6.59
-6.12
-5.70
-5.30
-4.88
-4.41
-3.84
-3.21
-2.59
-2.07
-1.69
-1.46
-1.33
-1.20
-1.02
-0.73
-0.35
0.11
0.62
1.18
1.77
2.37
2.92
3.34
3.58
3.65
3.57
3.42
3.28
3.22
3.24
3.35
3.49
3.62
3.72
3.84
4.02
4.29
4.59
4.84
4.92
4.77
4.41
3.98
3.63
3.44
3.42
3.48
3.53
3.50
3.42
3.36
3.38
3.49
3.64
3.78
3.88
3.96
4.03
4.07
4.04
3.89
3.62
3.30
3.06
2.98
3.10
3.32
3.54
3.66
3.68
3.63
3.58
3.51
3.37
3.09
2.66
2.13
1.59
1.16
0.88
0.73
0.63
0.51
0.32
0.09
-0.11
-0.22
-0.19
-0.06
0.13
0.27
0.30
0.22
0.11
0.06
0.13
0.33
0.59
0.82
0.94
0.97
0.99
1.05
1.20
1.40
1.60
1.73
1.78
1.79
1.82
1.90
2.03
2.11
2.07
1.88
1.59
1.33
1.18
1.17
1.24
1.26
1.16
0.91
0.62
0.39
0.32
0.41
0.59
0.77
0.88
0.89
0.79
0.62
0.43
0.28
0.22
0.30
0.50
0.81
1.16
1.48
1.71
1.83
1.84
1.76
1.63
1.51
1.47
1.53
1.70
1.97
2.25
2.47
2.55
2.47
2.24
1.93
1.63
1.41
1.36
1.49
1.76
2.08
2.34
2.41
2.23
1.84
1.38
1.01
0.85
0.89
0.99
0.96
0.65
0.07
-0.61
-1.18
-1.48
-1.47
-1.28
-1.08
-0.99
-1.03
-1.13
-1.17
-1.10
-0.93
-0.73
-0.55
-0.42
-0.29
-0.12
0.12
0.41
0.68
0.86
0.92
0.88
0.80
0.72
0.64
0.54
0.39
0.24
0.15
0.19
0.38
0.66
0.87
0.89
0.69
0.34
0.01
-0.16
-0.11
0.10
0.33
0.48
0.48
0.34
0.16
0.02
-0.04
0.00
0.14
0.35
0.60
0.87
1.09
1.23
1.23
1.07
0.76
0.38
0.01
-0.22
-0.28
-0.18
-0.01
0.11
0.11
-0.04
-0.26
-0.48
-0.60
-0.60
-0.48
-0.31
-0.13
0.02
0.13
0.19
0.20
0.18
0.13
0.10
0.09
0.13
0.22
0.34
0.50
0.70
0.97
1.25
1.47
1.53
1.36
0.97
0.45
-0.05
-0.40
-0.53
-0.48
-0.32
-0.12
0.07
0.22
0.33
0.37
0.35
0.30
0.29
0.38
0.57
0.80
0.96
0.97
0.81
0.53
0.22
-0.05
-0.26
-0.44
-0.65
-0.88
-1.11
-1.27
-1.26
-1.08
-0.77
-0.40
-0.05
0.24
0.47
0.66
0.82
0.89
0.81
0.57
0.21
-0.14
-0.35
-0.33
-0.10
0.28
0.71
1.09
1.40
1.62
1.74
1.75
1.68
1.53
1.39
1.31
1.34
1.47
1.67
1.86
1.98
2.03
2.01
1.93
1.78
1.52
1.11
0.56
-0.01
-0.47
-0.71
-0.70
-0.51
-0.26
-0.07
-0.01
-0.07
-0.18
-0.32
-0.45
-0.58
-0.74
-0.88
-0.98
-0.97
-0.84
-0.61
-0.37
-0.23
-0.26
-0.45
-0.71
-0.89
-0.87
-0.63
-0.27
0.06
0.25
0.30
0.27
0.27
0.34
0.43
0.46
0.38
0.21
0.06
0.05
0.21
0.48
0.77
0.94
0.92
0.71
0.32
-0.16
-0.65
-1.03
-1.22
-1.16
-0.90
-0.52
-0.14
0.13
0.25
0.21
0.07
-0.13
-0.32
-0.44
-0.44
-0.30
-0.06
0.21
0.41
0.48
0.43
0.30
0.20
0.21
0.40
0.71
1.07
1.32
1.34
1.09
0.61
0.07
-0.36
-0.53
-0.42
-0.09
0.30
0.63
0.79
0.79
0.65
0.42
0.15
-0.14
-0.44
-0.74
-1.03
-1.33
-1.63
-1.94
-2.22
-2.44
-2.55
-2.57
-2.50
-2.40
-2.29
-2.14
-1.91
-1.55
-1.04
-0.45
0.14
0.60
0.89
1.00
1.01
0.99
0.98
1.01
1.07
1.16
1.28
1.45
1.64
1.80
1.88
1.82
1.63
1.38
1.15
1.02
0.96
0.93
0.83
0.59
0.25
-0.11
-0.39
-0.50
-0.42
-0.19
0.11
0.42
0.67
0.81
0.80
0.63
0.36
0.08
-0.11
-0.11
0.09
0.46
0.85
1.14
1.23
1.07
0.71
0.24
-0.21
-0.52
-0.67
-0.68
-0.65
-0.64
-0.65
-0.65
-0.56
-0.35
-0.07
0.19
0.35
0.35
0.23
0.06
-0.09
-0.17
-0.20
-0.24
-0.33
-0.48
-0.65
-0.77
-0.78
-0.67
-0.46
-0.24
-0.08
0.01
0.06
0.14
0.28
0.45
0.60
0.67
0.63
0.53
0.44
0.42
0.46
0.56
0.64
0.67
0.65
0.62
0.61
0.63
0.67
0.69
0.65
0.58
0.55
0.61
0.79
1.07
1.37
1.59
1.70
1.68
1.56
1.38
1.13
0.84
0.48
0.08
-0.39
-0.91
-1.51
-2.15
-2.82
-3.47
-4.06
-4.59
-5.07
-5.51
-5.92
-6.31
-6.73
-7.24
-7.90
-8.71
-9.58
-10.37
-10.96
-11.33
-11.66
-12.21
-13.22
-14.79
-16.75
-18.84
-20.77
-22.40
-23.80
-25.25
-27.09
-29.58
-32.80
-36.57
-40.59
-44.51
-48.19
-51.75
-55.59
-60.19
-65.91
-72.76
-80.37
-88.13
-95.47
-102.11
-108.22
-114.34
-121.19
-129.41
-139.39
-151.07
-163.83
-176.26
-186.06
-190.37
-186.33
-172.04
-147.20
-113.23
-72.54
-27.42
20.92
72.36
126.93
183.41
238.53
287.45
325.39
349.61
360.61
361.87
358.27
354.14
352.00
352.36
354.42
356.91
358.47
357.50
351.94
339.48
318.19
287.37
247.94
201.98
151.86
99.29
45.14
-9.82
-63.96
-114.25
-156.66
-187.58
-205.25
-210.54
-206.57
-197.34
-186.24
-175.19
-164.59
-154.19
-143.92
-134.20
-125.76
-119.02
-113.67
-108.73
-103.06
-95.95
-87.46
-78.44
-70.05
-63.19
-58.15
-54.47
-51.27
-47.64
-43.08
-37.67
-31.95
-26.65
-22.33
-19.19
-17.04
-15.43
-13.88
-12.06
-9.89
-7.55
-5.36
-3.65
-2.67
-2.45
-2.84
-3.57
-4.32
-4.85
-5.05
-4.95
-4.64
-4.24
-3.83
-3.42
-3.02
-2.62
-2.22
-1.83
-1.45
-1.07
-0.67
-0.23
0.21
0.62
0.91
1.05
1.05
1.07
1.35
2.18
3.77
6.12
8.97
11.85
14.20
15.45
15.20
13.30
9.89
5.43
0.61
-3.78
-7.05
-8.79
-8.97
-7.97
-6.35
-4.72
-3.48
-2.82
-2.68
-2.85
-3.12
-3.39
-3.61
-3.82
-4.05
-4.29
-4.53
-4.70
-4.82
-4.92
-5.02
-5.16
-5.27
-5.27
-5.06
-4.62
-4.03
-3.44
-3.01
-2.81
-2.84
-2.98
-3.07
-2.96
-2.60
-2.05
-1.45
-0.94
-0.58
-0.41
-0.37
-0.37
-0.34
-0.19
0.16
0.74
1.56
2.57
3.66
4.68
5.54
6.19
6.63
6.91
7.07
7.10
6.99
6.68
6.09
5.16
3.86
2.29
0.60
-0.98
-2.27
-3.20
-3.79
-4.15
-4.38
-4.54
-4.57
-4.44
-4.08
-3.55
-2.93
-2.37
-1.96
-1.76
-1.74
-1.80
-1.84
-1.78
-1.60
-1.36
-1.13
-0.97
-0.87
-0.78
-0.63
-0.40
-0.08
0.29
0.67
1.05
1.44
1.87
2.33
2.81
3.24
3.54
3.64
3.46
2.93
2.03
0.81
-0.59
-1.95
-3.01
-3.62
-3.73
-3.52
-3.26
-3.26
-3.70
-4.55
-5.61
-6.54
-7.08
-7.13
-6.80
-6.39
-6.20
-6.43
-7.06
-7.83
-8.41
-8.48
-7.88
-6.70
-5.19
-3.65
-2.36
-1.43
-0.78
-0.10
1.15
3.69
8.24
15.11
23.86
33.09
40.71
44.59
43.42
37.21
27.38
16.20
5.91
-1.94
-6.84
-9.15
-9.61
-8.96
-7.77
-6.40
-5.21
-4.51
-4.53
-5.29
-6.52
-7.79
-8.59
-8.58
-7.74
-6.35
-4.89
-3.83
-3.45
-3.69
-4.28
-4.82
-5.01
-4.76
-4.23
-3.67
-3.29
-3.18
-3.28
-3.42
-3.45
-3.28
-2.98
-2.67
-2.48
-2.48
-2.66
-2.89
-3.04
-2.98
-2.62
-1.99
-1.16
-0.26
0.57
1.23
1.62
1.74
1.62
1.37
1.12
0.99
1.01
1.15
1.35
1.60
1.92
2.38
3.04
3.85
4.70
5.45
5.97
6.25
6.35
6.42
6.59
6.98
7.55
8.16
8.57
8.53
7.89
6.67
5.08
3.45
2.04
0.97
0.15
-0.62
-1.53
-2.64
-3.88
-5.08
-6.09
-6.86
-7.41
-7.80
-8.10
-8.32
-8.42
-8.36
-8.14
-7.80
-7.42
-7.08
-6.80
-6.52
-6.15
-5.64
-4.99
-4.29
-3.67
-3.20
-2.88
-2.62
-2.32
-1.90
-1.38
-0.85
-0.45
-0.29
-0.42
-0.79
-1.24
-1.52
-1.38
-0.67
0.54
2.00
3.35
4.27
4.66
4.62
4.37
4.09
3.83
3.58
3.26
2.86
2.41
1.98
1.59
1.22
0.84
0.47
0.16
-0.02
0.04
0.37
0.94
1.71
2.58
3.43
4.14
4.66
4.96
5.14
5.30
5.49
5.67
5.68
5.32
4.47
3.15
1.54
-0.09
-1.47
-2.44
-2.97
-3.15
-3.07
-2.85
-2.56
-2.23
-1.90
-1.60
-1.37
-1.25
-1.27
-1.44
-1.71
-1.96
-2.09
-2.01
-1.70
-1.26
-0.81
-0.53
-0.48
-0.65
-0.95
-1.25
-1.46
-1.57
-1.60
-1.62
-1.64
-1.65
-1.61
-1.51
-1.37
-1.23
-1.13
-1.09
-1.09
-1.08
-0.97
-0.73
-0.35
0.12
0.60
1.03
1.35
1.52
1.52
1.34
1.03
0.68
0.38
0.21
0.21
0.33
0.47
0.52
0.37
-0.04
-0.69
-1.53
-2.45
-3.29
-3.90
-4.16
-3.98
-3.40
-2.57
-1.74
-1.13
-0.84
-0.81
-0.87
-0.77
-0.37
0.32
1.18
2.00
2.63
3.02
3.22
3.33
3.43
3.56
3.71
3.85
3.99
4.14
4.31
4.52
4.70
4.77
4.63
4.23
3.62
2.97
2.49
2.33
2.52
2.92
3.29
3.42
3.23
2.79
2.29
1.91
1.72
1.67
1.60
1.36
0.93
0.42
-0.01
-0.25
-0.29
-0.28
-0.37
-0.62
-0.97
-1.25
-1.34
-1.25
-1.13
-1.19
-1.62
-2.42
-3.46
-4.53
-5.43
-6.07
-6.40
-6.49
-6.43
-6.35
-6.35
-6.43
-6.52
-6.47
-6.17
-5.60
-4.87
-4.20
-3.76
-3.58
-3.55
-3.49
-3.28
-2.91
-2.40
-1.73
-0.77
0.68
2.63
4.85
6.82
7.98
7.97
6.91
5.27
3.69
2.65
2.25
2.27
2.40
2.45
2.46
2.66
3.20
4.09
5.07
5.80
6.00
5.59
4.73
3.70
2.74
1.96
1.32
0.69
-0.04
-0.89
-1.77
-2.53
-3.05
-3.29
-3.30
-3.16
-2.93
-2.64
-2.25
-1.73
-1.05
-0.26
0.59
1.40
2.09
2.58
2.82
2.77
2.45
1.90
1.19
0.41
-0.36
-1.07
-1.70
-2.25
-2.71
-3.07
-3.29
-3.36
-3.30
-3.14
-2.91
-2.65
-2.36
-2.04
-1.73
-1.48
-1.31
-1.26
-1.27
-1.26
-1.16
-0.90
-0.48
0.07
0.69
1.38
2.17
3.10
4.13
5.12
5.85
6.09
5.70
4.70
3.26
1.64
0.13
-1.12
-2.05
-2.70
-3.16
-3.49
-3.74
-3.86
-3.82
-3.59
-3.21
-2.76
-2.39
-2.21
-2.25
-2.41
-2.56
-2.56
-2.38
-2.10
-1.83
-1.64
-1.52
-1.37
-1.12
-0.80
-0.50
-0.34
-0.36
-0.45
-0.37
0.10
1.03
2.27
3.51
4.38
4.60
4.13
3.16
2.02
1.03
0.40
0.16
0.19
0.31
0.36
0.24
-0.03
-0.36
-0.61
-0.67
-0.51
-0.23
0.05
0.18
0.13
-0.01
-0.09
0.06
0.47
1.04
1.52
1.69
1.41
0.69
-0.30
-1.25
-1.85
-1.83
-1.08
0.35
2.18
4.03
5.49
6.31
6.42
5.92
5.02
3.95
2.86
1.84
0.93
0.13
-0.55
-1.08
-1.47
-1.76
-1.99
-2.21
-2.45
-2.70
-2.92
-3.04
-2.99
-2.74
-2.35
-1.90
-1.52
-1.30
-1.26
-1.34
-1.43
-1.46
-1.36
-1.16
-0.89
-0.62
-0.37
-0.21
-0.17
-0.30
-0.59
-0.95
-1.27
-1.40
-1.25
-0.87
-0.36
0.12
0.49
0.74
0.91
1.08
1.27
1.44
1.57
1.63
1.66
1.70
1.83
2.05
2.34
2.64
2.93
3.17
3.36
3.46
3.43
3.20
2.75
2.16
1.55
1.10
0.89
0.89
0.94
0.84
0.47
-0.12
-0.75
-1.17
-1.24
-1.02
-0.71
-0.62
-0.90
-1.54
-2.32
-2.95
-3.26
-3.21
-2.95
-2.66
-2.44
-2.27
-2.05
-1.70
-1.28
-0.92
-0.75
-0.79
-0.96
-1.07
-1.03
-0.81
-0.51
-0.24
-0.11
-0.14
-0.29
-0.51
-0.76
-1.02
-1.23
-1.33
-1.27
-1.04
-0.65
-0.25
0.03
0.02
-0.36
-1.08
-1.96
-2.75
-3.18
-3.11
-2.55
-1.67
-0.68
0.22
0.96
1.52
1.93
2.18
2.22
2.02
1.65
1.23
0.94
0.92
1.22
1.78
2.48
3.18
3.74
4.04
4.05
3.78
3.34
2.85
2.42
2.07
1.73
1.30
0.74
0.13
-0.36
-0.52
-0.26
0.35
1.10
1.67
1.83
1.52
0.83
0.01
-0.64
-0.94
-0.84
-0.44
0.10
0.63
1.06
1.40
1.67
1.86
1.92
1.78
1.41
0.83
0.16
-0.47
-0.92
-1.11
-1.04
-0.78
-0.46
-0.21
-0.14
-0.33
-0.77
-1.36
-1.94
-2.36
-2.48
-2.27
-1.82
-1.31
-0.91
-0.74
-0.83
-1.10
-1.43
-1.71
-1.86
-1.88
-1.82
-1.75
-1.76
-1.88
-2.10
-2.33
-2.46
-2.40
-2.14
-1.78
-1.47
-1.36
-1.52
-1.91
-2.41
-2.91
-3.31
-3.58
-3.73
-3.77
-3.67
-3.40
-2.92
-2.26
-1.48
-0.73
-0.12
0.31
0.66
1.10
1.77
2.64
3.51
4.12
4.30
4.14
3.90
3.89
4.20
4.68
4.97
4.77
3.99
2.84
1.68
0.83
0.44
0.44
0.63
0.85
0.96
0.95
0.87
0.77
0.71
0.69
0.65
0.51
0.18
-0.38
-1.13
-1.93
-2.61
-3.04
-3.14
-2.95
-2.52
-1.94
-1.26
-0.51
0.28
1.10
1.91
2.69
3.40
4.06
4.68
5.26
5.73
5.99
5.89
5.30
4.18
2.60
0.75
-1.11
-2.74
-4.00
-4.88
-5.47
-5.89
-6.21
-6.42
-6.50
-6.44
-6.31
-6.17
-6.07
-5.96
-5.71
-5.18
-4.34
-3.28
-2.21
-1.34
-0.81
-0.62
-0.61
-0.53
-0.11
0.84
2.30
4.00
5.49
6.37
6.43
5.76
4.67
3.52
2.56
1.86
1.34
0.96
0.74
0.79
1.15
1.71
2.20
2.36
2.07
1.42
0.66
0.04
-0.27
-0.30
-0.19
-0.10
-0.17
-0.42
-0.81
-1.25
-1.64
-1.89
-1.99
-1.95
-1.87
-1.84
-1.92
-2.05
-2.04
-1.66
-0.74
0.68
2.39
3.97
5.02
5.27
4.70
3.50
2.03
0.65
-0.39
-1.07
-1.54
-2.10
-3.00
-4.32
-5.89
-7.32
-8.14
-8.05
-7.13
-5.85
-4.94
-5.02
-6.33
-8.46
-10.58
-11.74
-11.38
-9.61
-7.19
-5.14
-4.31
-5.10
-7.33
-10.34
-13.05
-13.93
-11.08
-2.90
11.07
29.20
47.65
61.42
66.29
60.69
46.46
28.10
10.69
-2.12
-9.22
-11.72
-11.62
-10.51
-8.97
-6.90
-4.21
-1.33
0.86
1.48
0.24
-2.29
-4.98
-6.68
-6.67
-5.14
-2.93
-1.20
-0.87
-2.18
-4.61
-7.20
-8.95
-9.31
-8.36
-6.73
-5.23
-4.55
-4.88
-5.98
-7.31
-8.28
-8.51
-7.98
-7.00
-6.03
-5.47
-5.46
-5.82
-6.13
-5.93
-4.89
-3.00
-0.54
2.02
4.22
5.80
6.74
7.23
7.53
7.87
8.32
8.80
9.13
9.15
8.78
8.08
7.19
6.28
5.47
4.79
4.24
3.75
3.28
2.81
2.29
1.72
1.13
0.58
0.22
0.19
0.61
1.46
2.58
3.72
4.57
4.92
4.74
4.12
3.30
2.49
1.85
1.40
1.09
0.80
0.41
-0.17
-1.00
-2.11
-3.43
-4.83
-6.11
-7.10
-7.66
-7.79
-7.61
-7.27
-6.95
-6.74
-6.68
-6.73
-6.81
-6.82
-6.67
-6.30
-5.73
-5.02
-4.32
-3.76
-3.42
-3.29
-3.27
-3.24
-3.07
-2.74
-2.28
-1.81
-1.47
-1.37
-1.57
-2.09
-2.84
-3.69
-4.47
-4.96
-4.99
-4.46
-3.40
-1.98
-0.44
1.00
2.20
3.14
3.84
4.38
4.85
5.31
5.82
6.39
6.97
7.42
7.56
7.27
6.56
5.59
4.57
3.70
3.02
2.50
2.07
1.73
1.55
1.68
2.19
3.05
4.13
5.25
6.20
6.82
6.95
6.49
5.44
3.92
2.15
0.47
-0.88
-1.78
-2.31
-2.62
-2.86
-3.10
-3.29
-3.32
-3.15
-2.84
-2.54
-2.39
-2.49
-2.79
-3.16
-3.46
-3.59
-3.57
-3.45
-3.37
-3.38
-3.50
-3.61
-3.61
-3.41
-3.02
-2.57
-2.23
-2.14
-2.34
-2.80
-3.40
-4.00
-4.47
-4.73
-4.75
-4.52
-4.04
-3.34
-2.50
-1.65
-0.91
-0.34
0.13
0.74
1.79
3.53
5.96
8.80
11.53
13.58
14.53
14.26
12.92
10.78
8.13
5.21
2.24
-0.52
-2.81
-4.42
-5.29
-5.55
-5.44
-5.21
-4.95
-4.61
-4.05
-3.19
-2.08
-0.90
0.15
0.98
1.61
2.15
2.68
3.16
3.48
3.52
3.29
2.90
2.56
2.38
2.36
2.36
2.22
1.89
1.46
1.15
1.12
1.37
1.73
1.94
1.78
1.21
0.35
-0.57
-1.34
-1.86
-2.18
-2.34
-2.41
-2.38
-2.22
-1.93
-1.58
-1.27
-1.09
-1.07
-1.14
-1.18
-1.10
-0.85
-0.45
0.01
0.45
0.82
1.06
1.16
1.09
0.83
0.38
-0.23
-0.92
-1.57
-2.11
-2.47
-2.66
-2.76
-2.86
-3.03
-3.30
-3.66
-4.05
-4.42
-4.72
-4.90
-4.94
-4.86
-4.66
-4.36
-3.98
-3.58
-3.20
-2.85
-2.48
-2.01
-1.28
-0.19
1.27
2.92
4.51
5.75
6.42
6.49
6.05
5.29
4.36
3.33
2.22
1.06
-0.04
-0.88
-1.21
-0.82
0.29
1.89
3.60
4.97
5.73
5.76
5.23
4.35
3.38
2.44
1.61
0.89
0.29
-0.16
-0.45
-0.62
-0.75
-0.92
-1.15
-1.39
-1.54
-1.50
-1.22
-0.69
-0.00
0.72
1.33
1.69
1.71
1.35
0.61
-0.37
-1.43
-2.36
-3.02
-3.31
-3.25
-2.93
-2.51
-2.13
-1.94
-2.01
-2.34
-2.83
-3.29
-3.53
-3.46
-3.08
-2.60
-2.23
-2.15
-2.36
-2.69
-2.89
-2.77
-2.27
-1.55
-0.80
-0.21
0.15
0.36
0.53
0.76
1.08
1.49
2.02
2.72
3.64
4.70
5.66
6.18
5.99
5.04
3.56
2.04
0.90
0.38
0.44
0.77
1.07
1.11
0.86
0.38
-0.22
-0.86
-1.47
-1.99
-2.36
-2.52
-2.48
-2.28
-2.01
-1.77
-1.59
-1.47
-1.41
-1.39
-1.41
-1.48
-1.59
-1.68
-1.67
-1.51
-1.19
-0.73
-0.19
0.43
1.15
2.00
2.98
3.98
4.78
5.15
4.93
4.10
2.85
1.46
0.21
-0.71
-1.26
-1.47
-1.46
-1.30
-1.07
-0.78
-0.49
-0.24
-0.11
-0.12
-0.28
-0.53
-0.80
-1.05
-1.22
-1.28
-1.18
-0.89
-0.44
0.08
0.52
0.73
0.65
0.30
-0.15
-0.51
-0.62
-0.44
-0.01
0.57
1.22
1.84
2.33
2.60
2.56
2.19
1.57
0.89
0.35
0.08
0.07
0.18
0.20
-0.01
-0.49
-1.10
-1.65
-1.94
-1.91
-1.63
-1.26
-1.02
-1.04
-1.35
-1.86
-2.41
-2.82
-2.99
-2.88
-2.53
-2.01
-1.42
-0.84
-0.32
0.09
0.33
0.37
0.22
-0.09
-0.40
-0.58
-0.47
-0.03
0.64
1.35
1.91
2.14
2.04
1.69
1.23
0.82
0.54
0.44
0.52
0.81
1.29
1.90
2.51
2.97
3.14
2.98
2.54
1.95
1.38
0.94
0.66
0.54
0.56
0.69
0.87
1.04
1.11
1.05
0.85
0.58
0.33
0.19
0.17
0.27
0.46
0.76
1.16
1.64
2.13
2.48
2.58
2.33
1.76
0.94
-0.03
-1.03
-2.02
-2.91
-3.60
-3.99
-3.97
-3.53
-2.76
-1.88
-1.14
-0.72
-0.68
-0.93
-1.27
-1.56
-1.72
-1.78
-1.82
-1.91
-2.06
-2.24
-2.38
-2.45
-2.39
-2.16
-1.71
-1.04
-0.25
0.47
0.90
0.89
0.48
-0.12
-0.64
-0.90
-0.88
-0.76
-0.75
-0.99
-1.44
-1.95
-2.32
-2.38
-2.07
-1.41
-0.47
0.64
1.80
2.83
3.61
4.05
4.18
4.09
3.93
3.78
3.65
3.52
3.31
3.01
2.64
2.26
1.94
1.73
1.64
1.63
1.59
1.38
0.90
0.13
-0.85
-1.84
-2.61
-3.00
-3.01
-2.74
-2.37
-2.03
-1.73
-1.43
-1.08
-0.70
-0.38
-0.22
-0.22
-0.27
-0.16
0.21
0.79
1.39
1.72
1.63
1.16
0.53
0.05
-0.10
0.11
0.55
1.02
1.37
1.57
1.61
1.54
1.36
1.05
0.60
0.07
-0.43
-0.75
-0.78
-0.53
-0.10
0.36
0.70
0.88
0.90
0.84
0.79
0.80
0.90
1.05
1.21
1.31
1.25
0.99
0.51
-0.10
-0.72
-1.21
-1.48
-1.55
-1.48
-1.36
-1.28
-1.27
-1.38
-1.66
-2.17
-2.92
-3.86
-4.82
-5.64
-6.20
-6.49
-6.62
-6.67
-6.70
-6.67
-6.52
-6.21
-5.81
-5.46
-5.30
-5.35
-5.53
-5.68
-5.55
-4.94
-3.64
-1.55
1.27
4.56
7.84
10.62
12.50
13.32
13.24
12.53
11.51
10.40
9.28
8.18
7.16
6.26
5.50
4.84
4.19
3.48
2.72
2.00
1.40
0.91
0.43
-0.16
-0.94
-1.88
-2.84
-3.65
-4.23
-4.61
-4.82
-4.92
-4.89
-4.66
-4.24
-3.69
-3.13
-2.64
-2.18
-1.63
-0.83
0.25
1.50
2.71
3.67
4.24
4.44
4.35
4.05
3.61
2.99
2.16
1.11
-0.09
-1.32
-2.40
-3.18
-3.61
-3.70
-3.59
-3.42
-3.33
-3.39
-3.60
-3.90
-4.19
-4.34
-4.25
-3.89
-3.30
-2.59
-1.90
-1.34
-0.92
-0.59
-0.23
0.29
1.06
2.16
3.61
5.35
7.16
8.74
9.70
9.74
8.78
7.01
4.79
2.56
0.64
-0.86
-1.94
-2.65
-3.00
-2.91
-2.32
-1.30
-0.13
0.80
1.16
0.80
-0.11
-1.20
-2.07
-2.48
-2.44
-2.18
-1.97
-1.97
-2.19
-2.49
-2.69
-2.67
-2.43
-2.07
-1.71
-1.45
-1.33
-1.33
-1.40
-1.48
-1.52
-1.48
-1.33
-1.04
-0.60
-0.05
0.56
1.16
1.69
2.14
2.55
2.92
3.31
3.73
4.24
4.90
5.75
6.73
7.64
8.23
8.23
7.54
6.24
4.61
2.96
1.53
0.36
-0.61
-1.47
-2.29
-3.04
-3.63
-4.05
-4.31
-4.49
-4.65
-4.82
-4.98
-5.06
-4.99
-4.70
-4.19
-3.51
-2.74
-1.98
-1.29
-0.67
-0.08
0.52
1.08
1.46
1.45
0.92
-0.12
-1.46
-2.74
-3.62
-3.91
-3.62
-2.94
-2.16
-1.52
-1.17
-1.10
-1.20
-1.32
-1.35
-1.25
-1.10
-0.97
-0.89
-0.85
-0.76
-0.55
-0.24
0.07
0.27
0.30
0.23
0.17
0.25
0.47
0.75
0.99
1.15
1.33
1.70
2.40
3.39
4.46
5.26
5.49
4.97
3.76
2.12
0.41
-1.05
-2.03
-2.49
-2.51
-2.26
-1.93
-1.64
-1.47
-1.44
-1.50
-1.63
-1.73
-1.72
-1.55
-1.24
-0.88
-0.58
-0.44
-0.48
-0.61
-0.66
-0.48
-0.00
0.74
1.59
2.35
2.83
2.95
2.74
2.37
2.08
2.10
2.50
3.17
3.87
4.29
4.25
3.69
2.73
1.57
0.39
-0.65
-1.48
-2.06
-2.38
-2.49
-2.43
-2.30
-2.17
-2.07
-1.99
-1.94
-1.97
-2.15
-2.53
-3.06
-3.63
-4.07
-4.28
-4.25
-4.09
-4.00
-4.12
-4.51
-5.10
-5.71
-6.22
-6.54
-6.71
-6.85
-7.06
-7.39
-7.86
-8.44
-9.13
-9.92
-10.81
-11.71
-12.53
-13.21
-13.78
-14.34
-15.01
-15.80
-16.51
-16.88
-16.64
-15.70
-14.22
-12.47
-10.70
-9.03
-7.46
-5.79
-3.72
-0.68
3.93
10.58
19.22
29.11
38.91
47.08
52.31
53.94
51.93
46.77
39.23
30.16
20.50
11.19
3.13
-3.09
-7.29
-9.74
-10.98
-11.55
-11.87
-12.25
-13.00
-14.47
-17.04
-20.94
-26.08
-31.99
-37.91
-43.05
-46.91
-49.47
-51.23
-52.99
-55.45
-58.83
-62.66
-65.91
-67.35
-66.04
-61.74
-55.07
-47.29
-39.94
-34.33
-31.25
-30.85
-32.81
-36.57
-41.62
-47.54
-53.98
-60.57
-66.88
-72.62
-77.98
-83.74
-90.99
-100.25
-110.65
-119.39
-122.22
-114.76
-94.03
-59.42
-12.63
43.03
103.61
164.90
222.43
271.55
308.09
329.68
337.11
334.66
328.88
325.90
328.70
335.71
341.51
339.41
324.36
294.78
252.49
201.15
144.59
86.04
28.59
-24.24
-68.50
-100.84
-120.14
-128.31
-129.75
-129.34
-130.29
-133.00
-135.61
-135.69
-131.78
-124.17
-114.44
-104.36
-95.08
-86.89
-79.57
-72.92
-66.92
-61.79
-57.84
-55.25
-53.96
-53.64
-53.78
-53.87
-53.54
-52.74
-51.73
-50.92
-50.58
-50.59
-50.34
-48.97
-45.73
-40.46
-33.74
-26.69
-20.52
-15.98
-13.10
-11.28
-9.70
-7.71
-5.12
-2.15
0.85
3.64
6.24
8.83
11.58
14.47
17.28
19.68
21.41
22.36
22.58
22.25
21.58
20.72
19.82
18.98
18.25
17.57
16.81
15.80
14.41
12.58
10.39
7.99
5.53
3.16
0.96
-1.00
-2.66
-4.02
-5.08
-5.94
-6.73
-7.58
-8.48
-9.36
-10.07
-10.53
-10.72
-10.73
-10.62
-10.41
-10.04
-9.45
-8.61
-7.64
-6.67
-5.84
-5.19
-4.62
-4.03
-3.34
-2.59
-1.93
-1.51
-1.42
-1.63
-1.98
-2.29
-2.41
-2.28
-1.95
-1.54
-1.17
-0.93
-0.82
-0.83
-0.90
-0.98
-1.02
-1.00
-0.90
-0.71
-0.44
-0.15
0.13
0.34
0.39
0.27
-0.01
-0.37
-0.67
-0.80
-0.68
-0.35
0.10
0.50
0.74
0.75
0.58
0.29
-0.04
-0.35
-0.61
-0.76
-0.76
-0.59
-0.28
0.07
0.34
0.39
0.20
-0.17
-0.57
-0.86
-0.97
-0.93
-0.86
-0.84
-0.91
-1.01
-1.03
-0.91
-0.64
-0.30
0.02
0.26
0.42
0.55
0.66
0.75
0.79
0.76
0.69
0.64
0.65
0.73
0.82
0.84
0.72
0.48
0.20
-0.04
-0.17
-0.21
-0.22
-0.28
-0.42
-0.61
-0.81
-1.00
-1.15
-1.32
-1.52
-1.73
-1.94
-2.10
-2.15
-2.10
-1.96
-1.80
-1.63
-1.49
-1.37
-1.24
-1.08
-0.88
-0.63
-0.32
0.04
0.45
0.88
1.32
1.72
2.03
2.18
2.13
1.86
1.41
0.92
0.52
0.35
0.46
0.80
1.23
1.59
1.76
1.71
1.48
1.20
0.96
0.81
0.75
0.71
0.62
0.43
0.13
-0.26
-0.67
-1.06
-1.35
-1.52
-1.55
-1.43
-1.24
-1.05
-0.98
-1.10
-1.37
-1.69
-1.89
-1.83
-1.49
-0.97
-0.46
-0.11
-0.02
-0.13
-0.34
-0.52
-0.61
-0.64
-0.67
-0.75
-0.88
-1.00
-1.06
-1.06
-1.03
-1.03
-1.09
-1.21
-1.32
-1.36
-1.26
-1.00
-0.64
-0.24
0.11
0.38
0.55
0.66
0.73
0.80
0.88
0.96
1.01
1.01
0.97
0.92
0.88
0.85
0.81
0.74
0.60
0.41
0.23
0.14
0.22
0.49
0.94
1.48
2.00
2.39
2.56
2.48
2.20
1.83
1.50
1.32
1.31
1.43
1.58
1.67
1.67
1.61
1.57
1.57
1.55
1.43
1.12
0.58
-0.10
-0.78
-1.32
-1.60
-1.60
-1.37
-1.01
-0.64
-0.34
-0.17
-0.16
-0.32
-0.61
-0.96
-1.31
-1.55
-1.60
-1.44
-1.09
-0.65
-0.22
0.07
0.18
0.11
-0.09
-0.35
-0.57
-0.67
-0.63
-0.46
-0.22
0.01
0.15
0.17
0.07
-0.11
-0.33
-0.54
-0.70
-0.81
-0.85
-0.81
-0.73
-0.64
-0.55
-0.46
-0.34
-0.16
0.09
0.39
0.66
0.84
0.86
0.73
0.47
0.16
-0.10
-0.23
-0.17
0.06
0.38
0.63
0.71
0.57
0.27
-0.07
-0.34
-0.53
-0.65
-0.79
-0.95
-1.11
-1.17
-1.04
-0.71
-0.26
0.15
0.38
0.37
0.14
-0.21
-0.53
-0.72
-0.70
-0.48
-0.08
0.39
0.86
1.23
1.46
1.52
1.43
1.26
1.07
0.94
0.90
0.95
1.04
1.10
1.07
0.92
0.67
0.37
0.11
-0.08
-0.16
-0.17
-0.14
-0.15
-0.22
-0.38
-0.61
-0.87
-1.10
-1.25
-1.29
-1.22
-1.08
-0.89
-0.70
-0.54
-0.41
-0.30
-0.16
-0.00
0.17
0.31
0.39
0.38
0.33
0.33
0.44
0.71
1.07
1.43
1.65
1.68
1.53
1.25
0.91
0.57
0.22
-0.12
-0.41
-0.59
-0.62
-0.48
-0.24
0.03
0.24
0.30
0.22
0.00
-0.29
-0.58
-0.77
-0.77
-0.55
-0.16
0.27
0.56
0.62
0.40
0.02
-0.35
-0.57
-0.53
-0.29
0.03
0.32
0.46
0.44
0.28
0.07
-0.10
-0.15
-0.06
0.13
0.33
0.45
0.39
0.13
-0.30
-0.79
-1.21
-1.47
-1.51
-1.40
-1.24
-1.14
-1.15
-1.28
-1.48
-1.70
-1.86
-1.91
-1.81
-1.54
-1.12
-0.64
-0.19
0.10
0.20
0.10
-0.11
-0.33
-0.50
-0.60
-0.63
-0.60
-0.52
-0.36
-0.08
0.28
0.62
0.81
0.70
0.20
-0.65
-1.68
-2.66
-3.35
-3.57
-3.30
-2.58
-1.57
-0.47
0.52
1.21
1.47
1.28
0.78
0.19
-0.23
-0.30
0.01
0.57
1.21
1.76
2.17
2.48
2.78
3.10
3.42
3.64
3.68
3.51
3.19
2.87
2.72
2.81
3.14
3.61
4.08
4.45
4.67
4.75
4.74
4.62
4.38
3.97
3.41
2.74
2.06
1.47
0.99
0.58
0.16
-0.33
-0.87
-1.38
-1.73
-1.85
-1.78
-1.61
-1.48
-1.48
-1.60
-1.77
-1.90
-1.94
-1.90
-1.84
-1.79
-1.75
-1.69
-1.60
-1.50
-1.46
-1.54
-1.75
-2.03
-2.25
-2.35
-2.30
-2.15
-1.96
-1.77
-1.58
-1.33
-1.01
-0.64
-0.31
-0.11
-0.09
-0.23
-0.44
-0.64
-0.75
-0.75
-0.66
-0.53
-0.36
-0.17
0.03
0.22
0.39
0.48
0.49
0.42
0.30
0.17
0.08
-0.00
-0.09
-0.22
-0.36
-0.46
-0.45
-0.32
-0.10
0.10
0.20
0.18
0.06
-0.05
-0.13
-0.14
-0.14
-0.14
-0.14
-0.14
-0.09
-0.03
0.02
0.02
-0.02
-0.05
-0.02
0.07
0.18
0.22
0.15
-0.01
-0.17
-0.23
-0.13
0.10
0.37
0.54
0.57
0.46
0.27
0.10
0.00
-0.00
0.05
0.15
0.27
0.38
0.46
0.46
0.33
0.07
-0.24
-0.48
-0.52
-0.29
0.13
0.57
0.85
0.83
0.50
-0.00
-0.50
-0.81
-0.87
-0.70
-0.40
-0.07
0.21
0.42
0.55
0.65
0.73
0.77
0.76
0.65
0.45
0.17
-0.14
-0.42
-0.60
-0.59
-0.39
-0.00
0.51
1.03
1.48
1.79
1.93
1.95
1.87
1.76
1.64
1.54
1.47
1.42
1.38
1.29
1.11
0.81
0.42
-0.02
-0.41
-0.69
-0.84
-0.89
-0.87
-0.84
-0.82
-0.82
-0.82
-0.82
-0.80
-0.76
-0.70
-0.62
-0.53
-0.43
-0.35
-0.30
-0.32
-0.44
-0.63
-0.85
-1.01
-1.05
-0.93
-0.70
-0.42
-0.20
-0.08
-0.03
-0.05
-0.12
-0.25
-0.47
-0.71
-0.90
-0.94
-0.78
-0.51
-0.30
-0.29
-0.50
-0.79
-0.97
-0.87
-0.49
0.03
0.50
0.76
0.79
0.70
0.60
0.56
0.58
0.61
0.57
0.45
0.28
0.09
-0.12
-0.37
-0.65
-0.97
-1.29
-1.56
-1.70
-1.69
-1.50
-1.12
-0.61
-0.09
0.31
0.49
0.40
0.14
-0.15
-0.34
-0.32
-0.11
0.22
0.55
0.79
0.90
0.86
0.70
0.47
0.28
0.25
0.45
0.85
1.31
1.65
1.73
1.52
1.11
0.66
0.28
0.03
-0.11
-0.20
-0.23
-0.21
-0.11
-0.00
0.04
-0.06
-0.33
-0.68
-0.96
-1.07
-0.97
-0.74
-0.51
-0.37
-0.35
-0.44
-0.56
-0.69
-0.80
-0.92
-1.04
-1.14
-1.19
-1.16
-1.05
-0.89
-0.71
-0.56
-0.47
-0.50
-0.66
-0.93
-1.23
-1.48
-1.59
-1.56
-1.41
-1.20
-0.94
-0.59
-0.09
0.63
1.54
2.50
3.34
3.85
3.94
3.65
3.11
2.50
1.95
1.54
1.27
1.06
0.88
0.70
0.57
0.51
0.54
0.62
0.67
0.62
0.45
0.19
-0.13
-0.44
-0.69
-0.86
-0.96
-0.99
-1.03
-1.13
-1.37
-1.76
-2.21
-2.58
-2.75
-2.66
-2.36
-2.00
-1.71
-1.53
-1.42
-1.27
-0.99
-0.63
-0.25
0.02
0.15
0.18
0.22
0.37
0.64
0.97
1.25
1.38
1.34
1.19
1.06
1.02
1.10
1.25
1.37
1.39
1.28
1.07
0.83
0.64
0.52
0.46
0.42
0.41
0.39
0.37
0.35
0.32
0.30
0.29
0.33
0.43
0.57
0.69
0.73
0.65
0.46
0.21
-0.00
-0.13
-0.15
-0.09
-0.00
0.06
0.06
0.01
-0.08
-0.15
-0.16
-0.08
0.10
0.36
0.64
0.88
0.96
0.82
0.45
-0.08
-0.61
-0.97
-1.10
-1.01
-0.84
-0.74
-0.78
-0.91
-1.06
-1.10
-1.01
-0.80
-0.53
-0.23
0.04
0.27
0.40
0.42
0.35
0.22
0.09
-0.01
-0.13
-0.33
-0.64
-1.02
-1.37
-1.56
-1.53
-1.32
-1.02
-0.78
-0.70
-0.77
-0.95
-1.10
-1.12
-0.95
-0.63
-0.27
-0.01
0.07
-0.04
-0.24
-0.36
-0.29
0.03
0.49
0.95
1.26
1.37
1.31
1.17
1.02
0.91
0.81
0.70
0.60
0.55
0.63
0.84
1.15
1.42
1.55
1.47
1.19
0.80
0.41
0.10
-0.07
-0.07
0.08
0.33
0.62
0.84
0.91
0.79
0.50
0.11
-0.28
-0.57
-0.71
-0.69
-0.53
-0.26
0.03
0.29
0.45
0.49
0.41
0.28
0.16
0.10
0.11
0.14
0.14
0.04
-0.13
-0.32
-0.48
-0.55
-0.54
-0.50
-0.48
-0.48
-0.47
-0.40
-0.27
-0.12
-0.00
0.02
-0.01
-0.01
0.10
0.33
0.63
0.85
0.89
0.73
0.46
0.19
0.03
-0.01
0.03
0.04
0.00
-0.07
-0.11
-0.05
0.11
0.33
0.53
0.65
0.70
0.69
0.63
0.50
0.27
-0.04
-0.36
-0.59
-0.64
-0.50
-0.24
0.01
0.14
0.14
0.03
-0.11
-0.26
-0.38
-0.49
-0.54
-0.51
-0.37
-0.18
-0.04
-0.05
-0.22
-0.49
-0.69
-0.69
-0.46
-0.06
0.36
0.65
0.79
0.80
0.78
0.76
0.74
0.66
0.48
0.18
-0.19
-0.57
-0.90
-1.15
-1.32
-1.39
-1.36
-1.23
-1.01
-0.73
-0.44
-0.21
-0.08
-0.10
-0.23
-0.43
-0.63
-0.78
-0.87
-0.90
-0.91
-0.92
-0.92
-0.91
-0.87
-0.82
-0.77
-0.76
-0.84
-1.03
-1.31
-1.64
-1.94
-2.16
-2.24
-2.19
-2.06
-1.93
-1.87
-1.92
-2.11
-2.42
-2.79
-3.12
-3.26
-3.11
-2.60
-1.79
-0.82
0.12
0.87
1.31
1.36
1.03
0.34
-0.58
-1.52
-2.24
-2.50
-2.20
-1.34
-0.04
1.54
3.25
4.95
6.53
7.81
8.61
8.75
8.15
6.85
5.01
2.88
0.74
-1.16
-2.64
-3.61
-4.05
-3.99
-3.51
-2.72
-1.76
-0.77
0.09
0.74
1.13
1.29
1.30
1.20
1.03
0.75
0.33
-0.28
-1.15
-2.27
-3.59
-4.98
-6.26
-7.21
-7.75
-7.89
-7.72
-7.32
-6.68
-5.63
-3.99
-1.67
1.19
4.24
7.00
9.08
10.28
10.61
10.20
9.21
7.75
5.97
4.03
2.19
0.74
-0.13
-0.40
-0.28
-0.03
0.07
-0.06
-0.33
-0.54
-0.53
-0.23
0.31
0.95
1.56
2.08
2.52
2.90
3.21
3.38
3.35
3.03
2.45
1.71
0.96
0.38
0.08
0.13
0.52
1.17
1.90
2.50
2.78
2.66
2.19
1.59
1.09
0.83
0.72
0.52
-0.03
-0.96
-2.08
-2.96
-3.22
-2.70
-1.55
-0.18
0.99
1.68
1.88
1.71
1.39
1.03
0.65
0.25
-0.15
-0.51
-0.79
-1.01
-1.26
-1.67
-2.25
-2.90
-3.44
-3.69
-3.59
-3.29
-3.00
-2.89
-3.00
-3.15
-3.11
-2.66
-1.72
-0.39
1.09
2.43
3.37
3.77
3.61
3.01
2.20
1.45
0.96
0.80
0.88
1.03
1.09
0.96
0.68
0.36
0.06
-0.22
-0.56
-0.99
-1.45
-1.75
-1.66
-1.09
-0.17
0.76
1.33
1.30
0.72
-0.11
-0.82
-1.11
-0.95
-0.55
-0.21
-0.14
-0.38
-0.73
-0.95
-0.83
-0.35
0.40
1.23
1.95
2.45
2.68
2.64
2.35
1.88
1.33
0.83
0.47
0.31
0.29
0.29
0.16
-0.16
-0.62
-1.11
-1.46
-1.56
-1.38
-0.97
-0.44
0.12
0.63
1.12
1.57
1.95
2.12
1.92
1.28
0.30
-0.73
-1.45
-1.58
-1.04
0.03
1.35
2.61
3.62
4.28
4.54
4.37
3.76
2.73
1.43
0.06
-1.10
-1.90
-2.28
-2.37
-2.36
-2.45
-2.71
-3.10
-3.50
-3.80
-3.96
-4.00
-4.02
-4.05
-4.04
-3.88
-3.44
-2.69
-1.73
-0.78
-0.08
0.27
0.27
0.07
-0.14
-0.23
-0.19
-0.10
-0.03
-0.01
0.03
0.18
0.52
1.06
1.65
2.14
2.35
2.22
1.80
1.21
0.58
0.01
-0.49
-0.93
-1.32
-1.66
-1.93
-2.11
-2.17
-2.11
-1.92
-1.59
-1.10
-0.52
0.08
0.55
0.74
0.57
0.05
-0.73
-1.62
-2.47
-3.09
-3.34
-3.09
-2.34
-1.21
0.03
1.05
1.55
1.43
0.83
0.10
-0.40
-0.38
0.18
1.03
1.80
2.17
1.98
1.26
0.24
-0.86
-1.87
-2.74
-3.53
-4.30
-5.02
-5.61
-5.87
-5.61
-4.69
-3.14
-1.13
1.02
2.92
4.20
4.67
4.34
3.42
2.26
1.16
0.35
-0.09
-0.15
0.11
0.62
1.30
2.03
2.67
3.12
3.33
3.40
3.50
3.81
4.40
5.20
6.03
6.68
7.02
7.02
6.72
6.17
5.38
4.35
3.10
1.73
0.35
-0.89
-1.94
-2.78
-3.47
-4.06
-4.54
-4.87
-5.00
-4.91
-4.60
-4.13
-3.60
-3.09
-2.68
-2.41
-2.28
-2.27
-2.35
-2.52
-2.76
-3.02
-3.27
-3.43
-3.48
-3.42
-3.34
-3.33
-3.47
-3.80
-4.32
-4.93
-5.50
-5.88
-5.92
-5.56
-4.83
-3.90
-3.00
-2.36
-2.12
-2.24
-2.60
-3.03
-3.41
-3.67
-3.83
-3.86
-3.73
-3.41
-2.86
-2.15
-1.43
-0.86
-0.58
-0.62
-0.88
-1.17
-1.28
-1.07
-0.50
0.36
1.32
2.22
2.93
3.47
3.92
4.45
5.17
6.13
7.26
8.41
9.44
10.24
10.81
11.20
11.45
11.57
11.51
11.20
10.59
9.73
8.75
7.83
7.11
6.62
6.30
5.97
5.50
4.83
4.05
3.28
2.64
2.17
1.81
1.45
1.00
0.47
-0.05
-0.45
-0.68
-0.81
-0.96
-1.28
-1.84
-2.58
-3.37
-4.06
-4.52
-4.72
-4.64
-4.34
-3.89
-3.38
-2.94
-2.66
-2.60
-2.71
-2.85
-2.86
-2.62
-2.15
-1.52
-0.92
-0.45
-0.12
0.14
0.47
0.95
1.57
2.22
2.78
3.21
3.56
3.94
4.42
4.95
5.35
5.40
4.99
4.16
3.15
2.26
1.69
1.51
1.63
1.85
2.03
2.05
1.89
1.54
1.00
0.28
-0.59
-1.52
-2.38
-3.02
-3.36
-3.36
-3.08
-2.63
-2.09
-1.55
-1.03
-0.56
-0.18
0.09
0.21
0.16
-0.04
-0.39
-0.91
-1.63
-2.54
-3.55
-4.52
-5.29
-5.73
-5.84
-5.70
-5.43
-5.17
-5.03
-5.07
-5.33
-5.79
-6.32
-6.73
-6.80
-6.42
-5.62
-4.61
-3.65
-2.97
-2.66
-2.62
-2.65
-2.53
-2.06
-1.16
0.16
1.78
3.51
5.10
6.32
6.96
6.95
6.30
5.15
3.74
2.34
1.22
0.55
0.38
0.62
1.10
1.64
2.13
2.57
3.00
3.48
4.01
4.52
4.91
5.17
5.33
5.47
5.65
5.86
5.99
5.99
5.81
5.54
5.29
5.13
5.00
4.76
4.26
3.44
2.37
1.23
0.21
-0.59
-1.19
-1.68
-2.12
-2.54
-2.92
-3.22
-3.45
-3.68
-3.96
-4.31
-4.71
-5.06
-5.29
-5.34
-5.26
-5.14
-5.07
-5.12
-5.30
-5.56
-5.82
-6.03
-6.16
-6.22
-6.24
-6.27
-6.31
-6.37
-6.44
-6.50
-6.51
-6.45
-6.29
-6.01
-5.59
-4.99
-4.16
-3.01
-1.53
0.23
2.09
3.84
5.32
6.45
7.34
8.12
8.90
9.63
10.14
10.20
9.62
8.35
6.55
4.49
2.52
0.95
0.01
-0.22
0.20
1.04
2.00
2.73
2.93
2.50
1.50
0.17
-1.13
-2.03
-2.29
-1.80
-0.67
0.88
2.55
4.06
5.26
6.10
6.64
6.95
7.01
6.73
5.99
4.73
3.03
1.19
-0.42
-1.43
-1.67
-1.13
-0.05
1.26
2.43
3.19
3.32
2.75
1.51
-0.27
-2.37
-4.47
-6.27
-7.49
-7.96
-7.69
-6.90
-5.88
-4.98
-4.40
-4.18
-4.24
-4.42
-4.59
-4.69
-4.70
-4.67
-4.62
-4.62
-4.71
-4.96
-5.39
-5.96
-6.62
-7.29
-7.88
-8.34
-8.60
-8.67
-8.61
-8.57
-8.72
-9.14
-9.73
-10.15
-10.01
-8.97
-6.89
-3.88
-0.21
3.81
7.93
11.94
15.63
18.75
21.04
22.29
22.41
21.49
19.74
17.41
14.76
11.99
9.29
6.83
4.72
2.99
1.59
0.43
-0.56
-1.41
-2.06
-2.47
-2.61
-2.58
-2.51
-2.51
-2.60
-2.69
-2.66
-2.45
-2.10
-1.77
-1.59
-1.67
-1.98
-2.39
-2.73
-2.87
-2.78
-2.52
-2.22
-1.98
-1.89
-1.92
-2.01
-2.07
-2.06
-1.97
-1.81
-1.60
-1.37
-1.10
-0.81
-0.56
-0.42
-0.47
-0.71
-1.08
-1.45
-1.71
-1.79
-1.70
-1.53
-1.33
-1.14
-0.94
-0.73
-0.53
-0.41
-0.46
-0.67
-0.98
-1.23
-1.29
-1.12
-0.80
-0.44
-0.13
0.15
0.54
1.21
2.25
3.63
5.18
6.59
7.59
8.00
7.75
6.97
5.86
4.66
3.54
2.60
1.83
1.24
0.79
0.49
0.36
0.36
0.39
0.33
0.05
-0.47
-1.18
-1.90
-2.47
-2.79
-2.84
-2.68
-2.43
-2.18
-1.99
-1.91
-1.97
-2.25
-2.77
-3.50
-4.31
-5.04
-5.56
-5.82
-5.88
-5.91
-6.01
-6.24
-6.58
-6.95
-7.26
-7.48
-7.56
-7.48
-7.20
-6.68
-5.92
-4.92
-3.74
-2.46
-1.13
0.23
1.63
3.09
4.60
6.09
7.42
8.47
9.17
9.53
9.68
9.72
9.75
9.77
9.72
9.56
9.31
8.98
8.55
7.97
7.12
5.94
4.44
2.79
1.19
-0.14
-1.09
-1.66
-1.95
-2.07
-2.08
-2.09
-2.18
-2.52
-3.22
-4.28
-5.51
-6.57
-7.09
-6.88
-6.02
-4.83
-3.72
-2.98
-2.66
-2.62
-2.58
-2.34
-1.80
-1.02
-0.07
0.92
1.89
2.77
3.48
3.96
4.15
4.05
3.73
3.27
2.77
2.28
1.84
1.43
1.02
0.61
0.20
-0.17
-0.50
-0.79
-1.03
-1.23
-1.34
-1.34
-1.20
-0.94
-0.60
-0.28
-0.07
0.01
-0.04
-0.18
-0.35
-0.53
-0.75
-1.05
-1.38
-1.61
-1.55
-1.12
-0.42
0.26
0.56
0.30
-0.49
-1.50
-2.38
-2.89
-2.99
-2.82
-2.54
-2.19
-1.70
-1.01
-0.11
0.84
1.63
2.09
2.22
2.17
2.12
2.22
2.47
2.79
3.04
3.14
3.05
2.81
2.44
1.91
1.20
0.30
-0.65
-1.46
-1.94
-1.99
-1.69
-1.22
-0.77
-0.47
-0.31
-0.24
-0.20
-0.16
-0.12
-0.09
-0.04
0.07
0.25
0.43
0.49
0.29
-0.21
-0.92
-1.68
-2.30
-2.71
-2.96
-3.24
-3.73
-4.55
-5.70
-7.06
-8.43
-9.65
-10.56
-11.04
-11.03
-10.49
-9.44
-8.00
-6.36
-4.80
-3.55
-2.76
-2.39
-2.19
-1.84
-1.06
0.25
2.00
3.97
5.88
7.53
8.78
9.57
9.86
9.72
9.32
8.95
8.92
9.41
10.38
11.58
12.66
13.39
13.70
13.66
13.38
12.90
12.16
11.09
9.73
8.21
6.73
5.39
4.12
2.75
1.11
-0.80
-2.78
-4.47
-5.46
-5.51
-4.63
-3.11
-1.40
0.06
0.98
1.30
1.18
0.90
0.70
0.70
0.87
1.06
1.08
0.83
0.29
-0.45
-1.22
-1.89
-2.33
-2.56
-2.62
-2.64
-2.75
-3.03
-3.53
-4.17
-4.79
-5.21
-5.29
-5.00
-4.46
-3.88
-3.46
-3.34
-3.50
-3.84
-4.16
-4.29
-4.11
-3.61
-2.87
-2.04
-1.34
-0.93
-0.91
-1.31
-2.03
-2.94
-3.89
-4.75
-5.43
-5.87
-6.11
-6.22
-6.30
-6.46
-6.75
-7.19
-7.77
-8.54
-9.55
-10.82
-12.33
-13.93
-15.43
-16.59
-17.31
-17.56
-17.45
-17.06
-16.42
-15.44
-13.96
-11.79
-8.86
-5.17
-0.88
3.74
8.34
12.55
16.04
18.57
20.02
20.47
20.19
19.53
18.90
18.50
18.35
18.19
17.65
16.38
14.28
11.51
8.46
5.60
3.25
1.46
0.05
-1.29
-2.72
-4.18
-5.33
-5.74
-5.11
-3.41
-0.97
1.68
3.92
5.29
5.54
4.65
2.77
0.19
-2.70
-5.48
-7.71
-9.09
-9.52
-9.13
-8.22
-7.21
-6.47
-6.24
-6.59
-7.46
-8.68
-10.05
-11.41
-12.66
-13.76
-14.72
-15.63
-16.60
-17.77
-19.28
-21.21
-23.59
-26.38
-29.49
-32.85
-36.45
-40.28
-44.36
-48.70
-53.28
-58.10
-63.18
-68.48
-73.96
-79.47
-84.88
-90.10
-95.20
-100.33
-105.62
-111.08
-116.59
-122.06
-127.67
-134.06
-142.06
-152.02
-163.03
-172.63
-177.10
-172.68
-156.80
-128.86
-90.22
-43.53
7.97
60.71
110.77
153.97
186.39
205.48
211.04
205.54
193.23
178.64
165.03
153.78
144.64
136.68
129.16
121.87
114.95
108.53
102.49
96.52
90.31
83.76
77.04
70.55
64.70
59.77
55.80
52.53
49.55
46.47
43.13
39.69
36.56
34.20
32.86
32.48
32.64
32.81
32.60
31.96
31.17
30.73
31.11
32.56
35.04
38.26
41.83
45.35
48.55
51.37
54.03
56.92
60.51
65.14
70.86
77.41
84.28
90.93
97.03
102.57
108.00
114.19
122.30
133.29
147.26
162.79
176.72
184.77
182.78
168.01
140.00
100.51
52.84
1.09
-50.51
-97.79
-136.98
-165.11
-180.58
-183.58
-175.91
-160.42
-140.11
-117.56
-94.80
-73.49
-55.07
-40.56
-30.40
-24.26
-21.17
-19.99
-19.85
-20.31
-21.26
-22.85
-25.42
-29.36
-35.02
-42.44
-51.13
-60.03
-67.77
-73.21
-75.85
-76.00
-74.47
-72.15
-69.57
-66.78
-63.53
-59.59
-54.95
-49.87
-44.70
-39.73
-35.08
-30.75
-26.71
-22.90
-19.34
-16.07
-13.16
-10.61
-8.37
-6.28
-4.17
-1.93
0.42
2.68
4.55
5.83
6.46
6.60
6.49
6.36
6.31
6.26
6.06
5.55
4.70
3.62
2.50
1.49
0.64
-0.10
-0.80
-1.45
-1.94
-2.13
-1.93
-1.45
-0.98
-0.90
-1.47
-2.72
-4.47
-6.40
-8.20
-9.69
-10.83
-11.64
-12.16
-12.39
-12.35
-12.10
-11.71
-11.31
-10.94
-10.63
-10.33
-9.96
-9.43
-8.68
-7.69
-6.54
-5.31
-4.14
-3.11
-2.29
-1.69
-1.30
-1.14
-1.22
-1.57
-2.20
-3.03
-4.00
-5.07
-6.30
-7.85
-9.89
-12.51
-15.60
-18.84
-21.69
-23.58
-24.00
-22.71
-19.80
-15.69
-11.03
-6.49
-2.63
0.26
2.23
3.55
4.62
5.82
7.33
9.13
11.04
12.78
14.10
14.86
15.02
14.68
13.99
13.11
12.23
11.47
10.87
10.40
9.93
9.30
8.39
7.11
5.50
3.65
1.73
-0.02
-1.38
-2.15
-2.27
-1.89
-1.30
-0.89
-0.95
-1.56
-2.55
-3.61
-4.39
-4.70
-4.50
-3.85
-2.88
-1.71
-0.46
0.76
1.78
2.52
2.97
3.24
3.46
3.75
4.11
4.36
4.30
3.80
2.89
1.76
0.69
-0.11
-0.51
-0.52
-0.20
0.31
0.85
1.22
1.18
0.52
-0.85
-2.79
-5.02
-7.14
-8.86
-10.03
-10.72
-11.07
-11.26
-11.31
-11.10
-10.33
-8.60
-5.57
-1.11
4.58
10.87
16.89
21.72
24.69
25.50
24.25
21.25
16.88
11.53
5.64
-0.23
-5.42
-9.34
-11.61
-12.27
-11.71
-10.49
-9.12
-7.87
-6.77
-5.68
-4.50
-3.20
-1.87
-0.67
0.34
1.21
2.11
3.26
4.77
6.59
8.44
9.99
10.95
11.25
11.03
10.56
10.10
9.80
9.70
9.80
10.09
10.58
11.24
11.93
12.41
12.41
11.75
10.40
8.49
6.30
4.06
2.00
0.22
-1.24
-2.42
-3.37
-4.14
-4.76
-5.25
-5.60
-5.78
-5.79
-5.68
-5.50
-5.34
-5.27
-5.32
-5.47
-5.65
-5.81
-5.91
-5.91
-5.79
-5.54
-5.15
-4.62
-4.03
-3.44
-2.93
-2.52
-2.14
-1.70
-1.16
-0.54
0.07
0.58
0.98
1.27
1.44
1.48
1.29
0.83
0.14
-0.63
-1.28
-1.66
-1.74
-1.62
-1.46
-1.39
-1.42
-1.50
-1.53
-1.48
-1.38
-1.32
-1.34
-1.45
-1.58
-1.63
-1.57
-1.44
-1.34
-1.37
-1.57
-1.85
-2.07
-2.11
-1.91
-1.59
-1.32
-1.29
-1.56
-2.07
-2.65
-3.14
-3.46
-3.60
-3.63
-3.67
-3.78
-3.98
-4.25
-4.55
-4.78
-4.88
-4.78
-4.48
-4.04
-3.59
-3.25
-3.08
-3.08
-3.16
-3.23
-3.22
-3.12
-2.97
-2.80
-2.64
-2.48
-2.32
-2.15
-1.94
-1.60
-1.00
0.02
1.52
3.41
5.42
7.18
8.39
8.88
8.69
8.00
7.02
5.88
4.64
3.36
2.16
1.23
0.80
0.97
1.64
2.53
3.28
3.59
3.38
2.74
1.89
1.10
0.52
0.24
0.21
0.33
0.42
0.31
-0.05
-0.61
-1.18
-1.49
-1.34
-0.71
0.24
1.21
1.89
2.15
2.04
1.75
1.45
1.29
1.26
1.29
1.29
1.23
1.17
1.14
1.18
1.24
1.26
1.16
0.93
0.66
0.48
0.55
0.93
1.53
2.13
2.45
2.28
1.62
0.70
-0.15
-0.64
-0.68
-0.43
-0.18
-0.17
-0.49
-0.99
-1.44
-1.63
-1.50
-1.13
-0.64
-0.19
0.15
0.39
0.53
0.61
0.65
0.68
0.75
0.87
1.03
1.17
1.25
1.21
1.10
0.97
0.89
0.83
0.69
0.31
-0.45
-1.59
-2.98
-4.37
-5.52
-6.22
-6.39
-6.06
-5.36
-4.51
-3.72
-3.18
-3.01
-3.20
-3.62
-4.08
-4.38
-4.36
-3.98
-3.30
-2.45
-1.63
-0.95
-0.49
-0.18
0.12
0.57
1.25
2.13
3.04
3.81
4.27
4.40
4.24
3.91
3.52
3.17
2.88
2.66
2.52
2.42
2.36
2.30
2.23
2.12
1.94
1.67
1.33
0.98
0.70
0.59
0.68
0.95
1.29
1.58
1.73
1.72
1.60
1.44
1.30
1.13
0.86
0.37
-0.35
-1.21
-2.00
-2.50
-2.57
-2.22
-1.68
-1.20
-1.02
-1.22
-1.70
-2.23
-2.60
-2.69
-2.50
-2.15
-1.75
-1.37
-0.99
-0.59
-0.18
0.16
0.28
0.12
-0.34
-0.95
-1.51
-1.85
-1.87
-1.61
-1.18
-0.76
-0.49
-0.45
-0.66
-1.07
-1.53
-1.88
-2.04
-2.02
-1.93
-1.89
-1.96
-2.07
-2.06
-1.77
-1.22
-0.58
-0.16
-0.20
-0.73
-1.53
-2.20
-2.31
-1.65
-0.30
1.45
3.21
4.69
5.75
6.36
6.57
6.41
5.94
5.26
4.59
4.14
4.03
4.19
4.39
4.35
3.93
3.17
2.31
1.62
1.22
1.07
1.01
0.88
0.66
0.45
0.38
0.54
0.90
1.30
1.60
1.70
1.60
1.39
1.15
0.93
0.74
0.53
0.26
-0.12
-0.64
-1.26
-1.92
-2.53
-2.96
-3.19
-3.23
-3.13
-2.92
-2.62
-2.22
-1.74
-1.28
-0.98
-0.92
-1.08
-1.33
-1.44
-1.30
-0.87
-0.27
0.38
1.00
1.61
2.23
2.88
3.52
4.07
4.44
4.60
4.61
4.52
4.37
4.19
3.90
3.44
2.80
1.99
1.09
0.19
-0.66
-1.41
-2.03
-2.50
-2.80
-2.90
-2.82
-2.62
-2.39
-2.26
-2.32
-2.62
-3.12
-3.74
-4.36
-4.91
-5.31
-5.53
-5.60
-5.60
-5.66
-5.90
-6.38
-7.04
-7.70
-8.13
-8.15
-7.73
-7.00
-6.22
-5.65
-5.48
-5.74
-6.34
-7.11
-7.92
-8.72
-9.56
-10.60
-12.05
-14.07
-16.69
-19.75
-22.98
-26.08
-28.76
-30.90
-32.55
-33.86
-35.10
-36.53
-38.35
-40.59
-43.12
-45.73
-48.19
-50.46
-52.64
-54.93
-57.42
-59.98
-62.28
-63.97
-64.89
-65.12
-64.98
-64.88
-65.32
-66.91
-70.37
-76.30
-84.51
-93.49
-100.21
-100.70
-91.20
-69.53
-35.68
8.56
60.51
117.42
176.84
236.25
292.54
341.92
380.31
404.21
411.56
402.06
376.92
338.29
288.87
231.93
171.42
112.03
58.66
15.36
-15.62
-34.36
-43.10
-45.46
-45.41
-46.41
-50.70
-59.20
-71.50
-86.21
-101.25
-114.51
-124.35
-130.09
-131.95
-130.72
-127.22
-121.95
-115.21
-107.29
-98.71
-90.16
-82.17
-74.83
-67.84
-60.79
-53.57
-46.53
-40.38
-35.84
-33.17
-32.08
-31.77
-31.23
-29.58
-26.23
-21.01
-14.12
-6.10
2.28
10.22
17.03
22.39
26.31
29.08
30.95
32.02
32.14
31.02
28.51
24.78
20.33
15.89
12.15
9.52
8.00
7.29
6.94
6.60
6.13
5.57
5.07
4.74
4.53
4.25
3.68
2.66
1.20
-0.54
-2.25
-3.64
-4.50
-4.85
-4.84
-4.71
-4.66
-4.75
-4.94
-5.17
-5.35
-5.49
-5.62
-5.72
-5.74
-5.58
-5.16
-4.50
-3.67
-2.76
-1.84
-0.95
-0.12
0.63
1.23
1.66
1.90
2.01
2.08
2.14
2.20
2.16
1.94
1.49
0.83
0.11
-0.54
-1.00
-1.27
-1.42
-1.51
-1.53
-1.39
-0.97
-0.22
0.78
1.84
2.77
3.46
3.92
4.26
4.59
4.91
5.14
5.14
4.89
4.49
4.12
4.01
4.20
4.60
4.99
5.12
4.87
4.27
3.46
2.64
1.91
1.32
0.83
0.40
0.01
-0.30
-0.49
-0.55
-0.52
-0.46
-0.45
-0.51
-0.65
-0.83
-0.99
-1.07
-1.04
-0.91
-0.69
-0.49
-0.39
-0.44
-0.67
-1.01
-1.33
-1.53
-1.52
-1.32
-0.97
-0.60
-0.29
-0.12
-0.08
-0.15
-0.27
-0.37
-0.40
-0.35
-0.22
-0.10
-0.01
-0.01
-0.09
-0.22
-0.40
-0.63
-0.88
-1.12
-1.29
-1.37
-1.35
-1.32
-1.37
-1.54
-1.82
-2.11
-2.26
-2.19
-1.86
-1.33
-0.71
-0.11
0.37
0.67
0.72
0.52
0.14
-0.33
-0.75
-1.00
-1.03
-0.90
-0.67
-0.48
-0.39
-0.42
-0.56
-0.76
-1.01
-1.30
-1.63
-1.95
-2.21
-2.29
-2.13
-1.73
-1.16
-0.55
-0.04
0.30
0.45
0.42
0.23
-0.14
-0.67
-1.30
-1.87
-2.22
-2.24
-1.96
-1.53
-1.17
-1.02
-1.10
-1.31
-1.50
-1.53
-1.41
-1.19
-0.97
-0.83
-0.76
-0.72
-0.65
-0.54
-0.40
-0.25
-0.12
-0.04
0.00
-0.00
-0.07
-0.21
-0.41
-0.63
-0.80
-0.82
-0.62
-0.22
0.30
0.78
1.08
1.06
0.69
0.01
-0.79
-1.51
-1.96
-2.09
-1.99
-1.90
-2.06
-2.66
-3.72
-5.08
-6.49
-7.71
-8.65
-9.31
-9.78
-10.10
-10.19
-9.87
-8.94
-7.28
-4.84
-1.67
2.09
6.19
10.20
13.55
15.60
15.87
14.31
11.36
7.88
4.80
2.78
1.99
2.17
2.86
3.64
4.42
5.30
6.50
8.15
10.14
12.18
13.89
14.98
15.34
15.06
14.35
13.43
12.43
11.40
10.37
9.37
8.48
7.80
7.36
7.06
6.77
6.28
5.50
4.46
3.26
2.01
0.79
-0.42
-1.66
-2.97
-4.39
-5.87
-7.35
-8.77
-10.03
-11.10
-11.91
-12.43
-12.64
-12.54
-12.16
-11.54
-10.74
-9.81
-8.78
-7.70
-6.62
-5.60
-4.75
-4.15
-3.81
-3.70
-3.71
-3.74
-3.68
-3.53
-3.30
-3.01
-2.70
-2.41
-2.18
-2.07
-2.12
-2.24
-2.30
-2.15
-1.69
-0.97
-0.11
0.68
1.26
1.59
1.72
1.70
1.62
1.47
1.26
0.97
0.60
0.19
-0.22
-0.64
-1.04
-1.43
-1.79
-2.06
-2.20
-2.14
-1.87
-1.46
-1.02
-0.72
-0.64
-0.79
-1.10
-1.43
-1.63
-1.60
-1.34
-0.89
-0.35
0.14
0.49
0.63
0.57
0.38
0.15
-0.04
-0.16
-0.24
-0.28
-0.32
-0.34
-0.35
-0.42
-0.69
-1.28
-2.24
-3.53
-4.95
-6.30
-7.38
-8.10
-8.46
-8.47
-8.16
-7.54
-6.62
-5.51
-4.38
-3.40
-2.71
-2.30
-1.93
-1.26
0.07
2.21
4.99
7.89
10.33
11.81
12.16
11.59
10.60
9.83
9.86
11.10
13.66
17.35
21.63
25.75
28.88
30.25
29.32
25.90
20.25
13.08
5.48
-1.29
-6.15
-8.54
-8.59
-7.06
-5.00
-3.24
-2.18
-1.77
-1.74
-1.86
-2.10
-2.55
-3.25
-4.07
-4.73
-4.95
-4.61
-3.86
-3.05
-2.56
-2.60
-3.10
-3.72
-3.99
-3.56
-2.37
-0.67
1.08
2.48
3.31
3.69
3.91
4.28
4.98
5.99
7.12
8.13
8.76
8.80
8.11
6.62
4.42
1.84
-0.67
-2.56
-3.49
-3.39
-2.60
-1.66
-1.15
-1.41
-2.44
-3.96
-5.53
-6.76
-7.49
-7.76
-7.77
-7.76
-7.85
-8.01
-8.08
-7.80
-6.95
-5.40
-3.14
-0.41
2.39
4.71
6.00
5.88
4.28
1.51
-1.89
-5.28
-8.14
-10.20
-11.43
-11.99
-12.09
-11.83
-11.20
-10.03
-8.15
-5.52
-2.38
0.71
3.06
4.14
3.80
2.39
0.56
-1.06
-2.13
-2.74
-3.22
-3.84
-4.66
-5.45
-5.91
-5.84
-5.24
-4.34
-3.44
-2.78
-2.47
-2.50
-2.71
-2.91
-2.88
-2.51
-1.81
-0.94
-0.12
0.49
0.87
1.10
1.32
1.60
1.92
2.20
2.40
2.59
2.86
3.33
3.99
4.73
5.37
5.78
5.91
5.84
5.62
5.27
4.76
4.05
3.16
2.20
1.31
0.60
0.08
-0.35
-0.85
-1.54
-2.42
-3.38
-4.27
-4.97
-5.48
-5.88
-6.27
-6.74
-7.25
-7.71
-7.99
-7.99
-7.67
-7.12
-6.49
-5.96
-5.69
-5.77
-6.16
-6.71
-7.21
-7.48
-7.42
-7.07
-6.55
-6.02
-5.61
-5.44
-5.51
-5.81
-6.24
-6.67
-6.95
-6.96
-6.62
-5.91
-4.89
-3.66
-2.40
-1.24
-0.29
0.47
1.07
1.60
2.04
2.29
2.22
1.76
0.94
-0.03
-0.91
-1.52
-1.88
-2.17
-2.64
-3.45
-4.58
-5.76
-6.64
-6.91
-6.45
-5.40
-4.10
-2.95
-2.23
-2.01
-2.16
-2.38
-2.33
-1.69
-0.26
2.00
4.95
8.27
11.58
14.48
16.69
18.10
18.76
18.80
18.35
17.54
16.50
15.36
14.25
13.21
12.16
10.89
9.16
6.87
4.15
1.34
-1.17
-3.09
-4.41
-5.34
-6.23
-7.35
-8.76
-10.28
-11.59
-12.39
-12.62
-12.47
-12.42
-13.03
-14.67
-17.30
-20.42
-23.16
-24.69
-24.66
-23.41
-21.99
-21.69
-23.50
-27.52
-32.82
-37.76
-40.64
-40.50
-37.59
-33.35
-29.91
-29.28
-32.57
-39.47
-48.13
-55.34
-57.24
-50.18
-31.95
-2.73
34.56
74.89
112.51
142.87
163.94
176.59
183.67
188.23
191.55
192.21
186.51
170.43
142.08
103.37
59.90
19.09
-12.70
-32.49
-41.28
-42.74
-40.97
-38.55
-36.07
-33.01
-29.20
-25.60
-24.01
-25.91
-31.31
-38.55
-44.95
-48.11
-47.03
-42.41
-36.29
-30.93
-27.82
-27.10
-27.65
-27.79
-26.15
-22.34
-17.07
-11.80
-7.92
-6.22
-6.51
-7.82
-8.85
-8.56
-6.56
-3.25
0.29
2.59
2.16
-2.04
-10.27
-21.87
-35.45
-49.33
-62.06
-72.78
-81.24
-87.65
-92.35
-95.73
-98.13
-99.85
-101.06
-101.55
-100.67
-97.37
-90.64
-80.08
-66.33
-51.04
-36.49
-24.97
-18.10
-16.52
-19.91
-27.20
-36.78
-46.58
-54.18
-57.28
-54.55
-46.61
-36.15
-26.93
-21.75
-20.30
-18.38
-9.12
13.92
53.25
105.63
162.69
214.17
251.86
272.43
277.90
274.08
267.73
264.17
265.74
271.54
278.16
280.94
275.30
257.83
227.05
183.65
130.66
73.01
16.86
-31.65
-67.78
-89.44
-97.70
-96.25
-89.96
-83.08
-77.91
-74.50
-71.33
-66.61
-59.36
-49.99
-40.28
-32.79
-30.01
-33.40
-42.75
-56.03
-69.97
-81.26
-87.64
-88.55
-84.93
-78.46
-70.76
-62.91
-55.48
-48.86
-43.38
-39.33
-36.68
-34.99
-33.57
-31.79
-29.36
-26.44
-23.53
-21.18
-19.79
-19.34
-19.51
-19.70
-19.34
-18.09
-16.01
-13.54
-11.32
-9.90
-9.49
-9.94
-10.77
-11.46
-11.63
-11.17
-10.23
-9.10
-8.00
-7.07
-6.30
-5.63
-4.99
-4.37
-3.80
-3.31
-2.92
-2.58
-2.24
-1.89
-1.54
-1.29
-1.21
-1.35
-1.68
-2.06
-2.34
-2.41
-2.23
-1.87
-1.47
-1.16
-1.04
-1.14
-1.42
-1.83
-2.27
-2.65
-2.95
-3.14
-3.28
-3.44
-3.68
-4.02
-4.46
-4.93
-5.44
-5.99
-6.61
-7.33
-8.12
-8.89
-9.57
-10.13
-10.66
-11.34
-12.34
-13.82
-15.78
-18.13
-20.79
-23.73
-27.06
-30.98
-35.63
-40.99
-46.73
-52.38
-57.46
-61.76
-65.44
-69.01
-73.17
-78.40
-84.78
-91.91
-99.06
-105.56
-111.11
-115.99
-120.84
-126.16
-131.94
-137.67
-142.70
-146.67
-149.66
-151.75
-152.31
-149.61
-141.16
-124.50
-98.38
-63.16
-20.45
27.83
80.22
135.59
192.29
247.35
296.48
335.29
361.08
374.05
377.28
375.49
373.11
372.65
374.20
375.65
373.87
365.86
349.58
324.39
290.96
250.73
205.28
155.64
102.28
45.70
-12.39
-68.58
-117.98
-155.74
-178.92
-187.75
-185.59
-177.38
-167.60
-158.79
-151.24
-143.89
-135.74
-126.76
-117.92
-110.47
-105.02
-101.11
-97.49
-92.86
-86.55
-78.86
-70.86
-63.81
-58.51
-55.00
-52.56
-50.14
-46.85
-42.36
-37.00
-31.55
-26.83
-23.39
-21.29
-20.15
-19.37
-18.41
-16.95
-14.98
-12.72
-10.48
-8.53
-6.98
-5.77
-4.76
-3.78
-2.71
-1.58
-0.51
0.37
0.99
1.36
1.58
1.79
2.05
2.43
2.98
3.81
5.08
6.88
9.13
11.43
13.23
13.95
13.31
11.42
8.73
5.86
3.28
1.19
-0.45
-1.80
-2.96
-3.87
-4.39
-4.42
-4.03
-3.41
-2.86
-2.60
-2.72
-3.19
-3.83
-4.48
-5.01
-5.32
-5.33
-4.93
-4.03
-2.61
-0.80
1.15
2.95
4.39
5.46
6.30
7.07
7.80
8.36
8.47
8.01
7.01
5.80
4.78
4.23
4.22
4.52
4.77
4.60
3.80
2.37
0.51
-1.46
-3.18
-4.42
-5.16
-5.50
-5.68
-5.84
-6.03
-6.17
-6.14
-5.89
-5.49
-5.07
-4.75
-4.56
-4.44
-4.27
-3.97
-3.56
-3.11
-2.73
-2.49
-2.38
-2.32
-2.20
-1.95
-1.54
-1.02
-0.48
-0.05
0.20
0.25
0.13
-0.09
-0.29
-0.41
-0.38
-0.25
-0.08
0.00
-0.09
-0.38
-0.83
-1.37
-1.91
-2.43
-2.94
-3.44
-3.88
-4.19
-4.26
-4.03
-3.52
-2.80
-1.97
-1.08
-0.15
0.89
2.04
3.29
4.53
5.60
6.34
6.67
6.59
6.18
5.56
4.82
4.00
3.13
2.23
1.34
0.57
0.03
-0.23
-0.22
-0.06
0.09
0.11
-0.05
-0.32
-0.61
-0.83
-0.94
-0.96
-0.94
-0.86
-0.66
-0.28
0.28
0.92
1.41
1.55
1.24
0.58
-0.23
-0.94
-1.38
-1.54
-1.55
-1.53
-1.57
-1.64
-1.62
-1.41
-0.95
-0.31
0.40
1.09
1.66
2.07
2.33
2.42
2.40
2.28
2.10
1.94
1.84
1.84
1.96
2.16
2.33
2.34
2.06
1.42
0.49
-0.52
-1.35
-1.77
-1.71
-1.31
-0.82
-0.51
-0.54
-0.91
-1.49
-2.08
-2.54
-2.85
-3.08
-3.33
-3.66
-4.07
-4.47
-4.82
-5.12
-5.39
-5.67
-5.92
-6.06
-6.00
-5.68
-5.17
-4.62
-4.15
-3.83
-3.62
-3.42
-3.13
-2.72
-2.19
-1.60
-0.99
-0.37
0.25
0.86
1.41
1.87
2.24
2.56
2.94
3.48
4.25
5.24
6.31
7.24
7.84
7.97
7.67
7.06
6.32
5.56
4.83
4.11
3.36
2.58
1.79
1.03
0.33
-0.28
-0.69
-0.77
-0.41
0.36
1.36
2.31
2.96
3.19
3.10
2.94
2.91
3.06
3.26
3.27
2.88
2.03
0.85
-0.42
-1.49
-2.12
-2.19
-1.77
-1.02
-0.23
0.33
0.43
-0.02
-0.97
-2.26
-3.71
-5.11
-6.33
-7.27
-7.88
-8.11
-7.98
-7.59
-7.14
-6.90
-7.11
-7.95
-9.41
-11.28
-13.14
-14.49
-14.93
-14.29
-12.76
-10.81
-9.00
-7.71
-6.94
-6.38
-5.57
-4.15
