1660749834.00
64.000000
-0.00
-0.00
-0.00
-0.00
-0.00
-0.00
-0.00
-0.00
-0.00
-0.00
0.00
0.01
0.01
-0.00
-0.03
-0.05
-0.05
0.00
0.13
0.36
0.66
1.01
1.37
1.72
2.06
2.40
2.79
3.24
3.80
4.42
5.06
5.66
6.20
6.68
7.15
7.68
8.31
9.14
10.09
11.04
11.88
12.56
13.14
13.76
14.65
15.96
17.91
20.32
22.90
25.38
27.58
29.57
31.68
34.32
37.81
42.54
48.15
54.10
59.83
64.97
69.58
74.14
79.34
85.71
93.76
103.00
112.62
121.73
129.77
136.75
143.30
150.75
157.77
166.64
177.95
191.79
206.97
220.57
228.25
225.36
208.53
176.87
132.76
80.04
23.07
-34.94
-92.41
-149.12
-205.19
-260.37
-313.80
-364.04
-410.11
-451.28
-486.94
-516.20
-537.68
-549.66
-550.42
-538.88
-514.81
-479.38
-434.68
-383.29
-327.85
-270.64
-213.41
-157.49
-103.94
-53.60
-7.40
33.87
69.62
99.58
123.83
142.74
156.89
166.92
173.48
177.11
178.30
177.46
174.89
170.80
165.32
158.56
150.70
142.07
133.07
124.19
115.78
107.98
100.62
93.28
85.55
77.20
68.34
59.44
51.11
43.82
37.73
32.61
27.96
23.21
17.90
11.68
4.44
-3.50
-11.18
-16.90
-18.64
-14.85
-5.31
8.46
23.62
37.01
46.36
50.96
51.60
49.76
46.75
43.26
39.38
35.13
30.77
26.90
24.11
22.62
22.17
22.07
21.52
20.00
17.41
14.13
10.75
7.94
6.21
5.79
6.55
8.08
9.73
10.85
10.98
10.02
8.22
6.11
4.20
2.72
1.60
0.58
-0.61
-1.95
-3.18
-3.97
-4.10
-3.68
-3.05
-2.57
-2.46
-2.68
-2.96
-3.02
-2.77
-2.29
-1.82
-1.55
-1.54
-1.71
-1.87
-1.89
-1.73
-1.44
-1.16
-0.97
-0.89
-0.87
-0.81
-0.58
-0.10
0.65
1.57
2.55
3.48
4.29
5.01
5.69
6.38
7.11
7.94
8.94
10.12
11.47
12.86
14.01
14.60
14.36
13.19
11.14
8.49
5.42
2.16
-1.08
-4.13
-6.85
-9.16
-11.01
-12.45
-13.53
-14.25
-14.56
-14.38
-13.72
-12.70
-11.57
-10.56
-9.83
-9.35
-9.01
-8.64
-8.19
-7.75
-7.44
-7.31
-7.25
-7.07
-6.60
-5.85
-5.03
-4.38
-4.05
-3.99
-4.03
-3.96
-3.70
-3.33
-2.96
-2.60
-2.16
-1.42
-0.30
1.12
2.55
3.60
3.98
3.67
2.86
1.89
1.05
0.48
0.13
-0.11
-0.36
-0.63
-0.83
-0.87
-0.71
-0.40
-0.06
0.20
0.34
0.38
0.38
0.39
0.42
0.46
0.47
0.41
0.23
-0.08
-0.58
-1.27
-2.10
-2.93
-3.59
-3.96
-3.95
-3.67
-3.33
-3.22
-3.56
-4.39
-5.48
-6.40
-6.71
-6.10
-4.60
-2.51
-0.28
1.71
3.26
4.37
5.11
5.56
5.70
5.48
4.90
4.08
3.22
2.57
2.28
2.37
2.67
2.97
3.04
2.76
2.18
1.48
0.91
0.65
0.71
0.95
1.13
1.04
0.58
-0.18
-1.04
-1.78
-2.27
-2.48
-2.56
-2.66
-2.96
-3.55
-4.40
-5.43
-6.47
-7.34
-7.80
-7.61
-6.61
-4.79
-2.37
0.25
2.61
4.30
5.18
5.35
5.10
4.71
4.34
4.02
3.67
3.22
2.70
2.25
2.01
2.04
2.30
2.60
2.77
2.70
2.41
2.06
1.82
1.77
1.84
1.81
1.45
0.63
-0.56
-1.82
-2.82
-3.31
-3.33
-3.13
-3.12
-3.60
-4.70
-6.25
-7.91
-9.24
-9.88
-9.58
-8.26
-6.04
-3.22
-0.27
2.33
4.18
5.16
5.41
5.30
5.22
5.37
5.75
6.13
6.25
5.95
5.27
4.39
3.61
3.15
3.09
3.34
3.67
3.86
3.74
3.33
2.76
2.25
1.96
1.95
2.09
2.19
2.04
1.53
0.65
-0.47
-1.67
-2.79
-3.70
-4.33
-4.69
-4.85
-4.95
-5.18
-5.71
-6.55
-7.55
-8.39
-8.71
-8.24
-6.94
-4.98
-2.70
-0.42
1.63
3.37
4.75
5.75
6.32
6.41
6.08
5.48
4.82
4.27
3.94
3.81
3.85
4.06
4.45
5.01
5.63
6.10
6.22
5.87
5.11
4.19
3.37
2.79
2.40
1.99
1.33
0.33
-0.91
-2.17
-3.22
-3.94
-4.35
-4.60
-4.84
-5.13
-5.44
-5.64
-5.67
-5.51
-5.33
-5.37
-5.85
-6.89
-8.39
-9.99
-11.15
-11.38
-10.41
-8.34
-5.60
-2.75
-0.30
1.50
2.69
3.43
3.93
4.27
4.43
4.36
4.04
3.58
3.16
2.96
3.07
3.42
3.86
4.19
4.28
4.12
3.84
3.60
3.53
3.61
3.74
3.72
3.42
2.81
2.01
1.24
0.66
0.36
0.25
0.12
-0.21
-0.86
-1.71
-2.58
-3.23
-3.55
-3.60
-3.54
-3.57
-3.85
-4.46
-5.35
-6.39
-7.31
-7.78
-7.46
-6.13
-3.86
-0.96
2.04
4.57
6.26
7.03
7.03
6.58
6.00
5.50
5.17
5.04
5.04
5.10
5.14
5.12
5.04
4.94
4.91
4.98
5.15
5.37
5.52
5.53
5.33
4.93
4.35
3.61
2.75
1.84
0.97
0.26
-0.25
-0.62
-1.01
-1.58
-2.40
-3.39
-4.36
-5.13
-5.64
-5.96
-6.24
-6.62
-7.19
-7.91
-8.75
-9.53
-10.06
-10.05
-9.23
-7.47
-4.94
-2.03
0.74
2.94
4.42
5.30
5.83
6.26
6.65
6.94
7.03
6.86
6.50
6.09
5.80
5.72
5.86
6.10
6.32
6.43
6.41
6.31
6.20
6.07
5.83
5.37
4.63
3.72
2.85
2.20
1.82
1.59
1.30
0.75
-0.05
-0.93
-1.62
-1.94
-1.91
-1.78
-1.86
-2.28
-2.93
-3.40
-3.26
-2.32
-0.80
0.67
1.41
1.06
-0.10
-1.16
-0.89
1.65
6.68
13.48
20.64
26.58
30.20
31.22
30.32
28.79
28.14
29.74
34.60
43.11
54.56
66.71
75.84
77.58
68.70
48.77
21.04
-8.33
-32.56
-46.84
-50.05
-44.64
-35.00
-25.29
-17.87
-13.10
-10.14
-8.04
-6.34
-5.06
-4.24
-3.67
-2.99
-1.90
-0.46
1.02
2.26
3.43
5.28
8.89
15.08
23.81
33.79
42.67
47.83
47.40
41.13
30.58
18.55
7.98
0.82
-2.54
-3.06
-2.30
-1.59
-1.70
-2.89
-5.29
-9.13
-14.59
-21.51
-29.39
-37.44
-45.03
-51.94
-58.26
-64.04
-68.83
-71.64
-71.32
-67.36
-60.28
-51.56
-43.09
-36.33
-31.83
-29.14
-27.16
-24.70
-21.21
-16.73
-11.66
-6.41
-1.14
4.28
10.14
16.71
24.13
31.82
39.07
45.31
50.30
53.88
55.74
55.36
52.23
46.26
36.97
24.46
9.59
-6.13
-21.27
-34.89
-46.53
-55.81
-62.34
-67.34
-72.29
-78.00
-83.79
-88.03
-89.24
-86.70
-80.61
-71.83
-63.62
-59.35
-61.23
-69.71
-84.29
-104.56
-130.12
-159.95
-179.56
-176.65
-147.48
-100.27
-48.57
-2.59
33.67
60.83
81.47
98.09
110.53
117.55
118.61
115.01
109.28
103.87
100.41
99.66
101.47
103.93
104.73
102.34
96.81
89.34
81.23
73.49
66.72
60.41
53.80
45.60
34.80
21.31
5.90
-10.38
-26.33
-38.96
-48.26
-54.60
-58.90
-62.21
-65.27
-68.50
-72.26
-76.83
-82.23
-88.08
-92.78
-94.04
-89.54
-77.95
-59.83
-37.87
-15.98
2.20
14.34
20.55
22.53
22.63
22.56
23.46
25.38
27.84
30.21
31.89
32.88
33.40
33.74
34.06
34.18
33.65
32.09
29.43
25.91
22.07
18.29
14.50
10.33
5.47
0.08
-4.88
-7.96
-7.86
-4.17
2.18
9.00
13.66
14.20
10.15
2.66
-6.08
-13.87
-19.41
-22.49
-23.85
-24.49
-25.08
-25.73
-26.15
-26.01
-25.07
-24.00
-23.11
-22.51
-22.08
-21.55
-20.72
-19.55
-18.20
-16.95
-16.05
-15.47
-15.07
-14.57
-13.74
-12.45
-10.79
-9.04
-7.58
-6.78
-6.79
-7.58
-8.89
-10.29
-11.37
-11.85
-11.72
-11.29
-11.13
-11.80
-13.61
-16.51
-19.97
-23.18
-25.29
-25.70
-24.25
-21.22
-17.19
-12.90
-9.04
-6.15
-4.51
-4.18
-4.89
-6.22
-7.57
-8.39
-8.28
-7.14
-5.04
-2.23
1.16
5.06
9.44
14.17
18.79
22.61
24.89
25.20
23.61
20.80
17.68
15.04
13.20
11.94
10.69
8.89
6.25
2.92
-0.64
-3.93
-6.67
-8.85
-10.74
-12.71
-15.07
-17.95
-21.33
-25.01
-28.56
-31.32
-32.41
-31.11
-27.09
-20.79
-13.35
-6.35
-1.15
1.60
2.20
1.65
1.09
1.29
2.33
3.75
4.93
5.49
5.52
5.52
6.11
7.70
10.38
13.91
18.00
22.39
27.08
32.17
37.70
43.53
49.22
54.21
57.98
60.28
61.19
61.04
60.23
58.93
57.02
54.14
49.88
44.05
36.82
28.57
19.75
10.69
1.58
-7.32
-15.56
-22.43
-27.20
-29.49
-29.42
-27.69
-25.23
-22.86
-21.02
-19.70
-18.65
-17.57
-16.34
-15.00
-13.71
-12.72
-12.25
-12.55
-13.77
-15.98
-18.98
-22.32
-25.28
-26.97
-26.60
-23.70
-18.36
-11.27
-3.56
3.49
8.87
12.22
13.91
14.95
16.51
19.37
23.45
27.83
31.06
31.89
29.82
25.32
19.53
13.70
8.64
4.61
1.59
-0.38
-0.93
0.45
3.96
9.17
14.99
20.06
23.30
24.38
23.75
22.33
21.05
20.45
20.56
20.96
21.08
20.45
18.86
16.45
13.71
11.32
9.97
10.15
11.93
14.88
18.10
20.56
21.31
19.82
16.13
10.82
4.84
-0.78
-5.16
-7.88
-9.04
-9.25
-9.48
-10.73
-13.73
-18.69
-25.18
-32.19
-38.35
-42.22
-42.59
-38.88
-31.30
-20.98
-9.67
0.78
8.94
14.37
17.65
20.12
23.24
27.92
34.13
40.94
46.98
51.06
52.68
52.12
50.24
47.95
45.89
44.22
42.82
41.50
40.28
39.35
38.94
39.05
39.36
39.23
37.92
34.82
29.74
23.05
15.69
8.87
3.70
0.80
0.10
0.97
2.54
3.94
4.55
3.93
1.82
-1.81
-6.60
-11.69
-15.80
-17.61
-16.34
-12.11
-5.97
0.50
5.79
9.01
10.08
9.58
8.36
7.15
6.35
5.93
5.70
5.39
4.87
4.14
3.26
2.27
1.08
-0.45
-2.30
-4.15
-5.32
-4.91
-2.15
3.20
10.71
19.26
27.41
33.84
37.63
38.48
36.65
32.83
27.96
23.09
19.14
16.70
15.81
15.93
16.06
15.11
12.24
7.19
0.39
-7.10
-13.86
-18.37
-19.46
-16.59
-10.11
-1.32
7.83
15.15
18.88
18.15
13.24
5.52
-2.96
-10.08
-14.20
-14.61
-11.56
-6.09
0.33
6.30
10.72
13.04
13.28
12.01
10.17
8.79
8.64
9.90
12.10
14.34
15.77
16.05
15.47
14.80
14.81
15.78
17.27
18.35
17.96
15.43
10.75
4.49
-2.57
-9.90
-17.38
-25.22
-33.58
-42.10
-49.79
-55.19
-56.85
-53.96
-46.68
-36.17
-24.25
-12.90
-3.67
2.61
6.04
7.44
8.07
9.15
11.40
14.91
19.21
23.58
27.49
30.77
33.64
36.39
39.17
41.80
43.90
45.08
45.25
44.76
44.31
44.71
46.52
49.84
54.28
59.07
63.45
67.01
69.90
72.68
76.00
80.09
84.54
88.32
90.07
88.45
82.25
70.42
52.08
26.90
-4.33
-39.20
-73.80
-103.57
-124.76
-135.76
-137.48
-132.82
-125.21
-117.34
-110.45
-104.57
-99.22
-94.17
-89.64
-86.03
-83.53
-81.74
-79.80
-76.81
-72.24
-66.26
-59.63
-53.31
-48.00
-43.78
-40.15
-36.35
-31.79
-26.38
-20.47
-14.67
-9.40
-4.77
-0.64
3.10
6.36
8.79
10.04
10.02
9.06
7.78
6.86
6.65
7.11
7.78
8.14
7.79
6.70
5.10
3.39
1.96
1.08
0.90
1.53
3.05
5.47
8.66
12.25
15.64
18.21
19.46
19.22
17.67
15.27
12.56
10.03
8.00
6.59
5.71
5.22
4.97
4.93
5.20
5.89
6.97
8.22
9.21
9.56
9.10
8.07
6.99
6.43
6.60
7.25
7.66
7.09
5.09
1.78
-2.18
-5.98
-8.98
-11.04
-12.47
-13.76
-15.26
-16.95
-18.47
-19.29
-19.10
-17.92
-16.16
-14.39
-13.08
-12.38
-12.03
-11.59
-10.58
-8.75
-6.13
-2.99
0.33
3.58
6.62
9.41
11.90
14.03
15.69
16.86
17.68
18.42
19.48
21.16
23.53
26.37
29.22
31.57
33.12
33.88
34.19
34.51
35.22
36.50
38.20
39.89
40.97
40.70
38.38
33.44
25.70
15.47
3.61
-8.57
-19.60
-28.20
-33.57
-35.57
-34.69
-31.87
-28.22
-24.77
-22.27
-21.02
-20.94
-21.56
-22.25
-22.36
-21.44
-19.43
-16.69
-13.89
-11.75
-10.83
-11.27
-12.85
-15.12
-17.57
-19.80
-21.57
-22.71
-23.17
-23.01
-22.50
-22.09
-22.28
-23.44
-25.60
-28.35
-31.02
-32.85
-33.25
-31.94
-29.06
-25.08
-20.72
-16.82
-14.02
-12.58
-12.23
-12.17
-11.38
-9.01
-4.74
1.03
7.26
12.70
16.35
17.77
17.23
15.50
13.49
11.92
11.13
11.14
11.82
13.05
14.84
17.19
19.91
22.59
24.66
25.60
25.13
23.41
20.91
18.22
15.88
14.14
13.00
12.20
11.34
10.05
8.09
5.46
2.41
-0.61
-3.04
-4.46
-4.69
-3.92
-2.65
-1.56
-1.26
-2.10
-4.04
-6.73
-9.65
-12.32
-14.49
-16.16
-17.46
-18.58
-19.63
-20.64
-21.58
-22.51
-23.52
-24.73
-26.12
-27.48
-28.42
-28.52
-27.57
-25.67
-23.26
-20.90
-19.03
-17.74
-16.72
-15.40
-13.20
-9.77
-5.15
0.19
5.55
10.20
13.59
15.48
16.01
15.56
14.65
13.74
13.14
12.98
13.21
13.67
14.17
14.54
14.65
14.42
13.84
12.95
11.82
10.51
9.13
7.75
6.49
5.45
4.74
4.45
4.67
5.41
6.62
8.11
9.57
10.64
10.99
10.45
9.04
7.04
4.86
2.93
1.55
0.87
0.84
1.33
2.15
3.12
4.04
4.64
4.73
4.16
3.01
1.53
0.08
-1.10
-2.00
-2.90
-4.17
-6.12
-8.77
-11.83
-14.80
-17.09
-18.20
-17.87
-16.12
-13.41
-10.46
-8.15
-7.17
-7.76
-9.54
-11.65
-13.02
-12.81
-10.70
-7.04
-2.69
1.28
4.00
5.09
4.72
3.54
2.29
1.54
1.51
2.06
2.92
3.86
4.74
5.48
5.86
5.60
4.38
2.11
-0.89
-3.95
-6.25
-7.16
-6.47
-4.47
-1.80
0.90
3.22
5.08
6.67
8.20
9.63
10.66
10.86
9.99
8.15
5.89
3.92
2.88
2.98
3.94
5.16
6.01
6.11
5.44
4.26
2.97
1.85
1.02
0.46
0.08
-0.19
-0.41
-0.72
-1.35
-2.59
-4.60
-7.31
-10.25
-12.75
-14.09
-13.85
-12.07
-9.30
-6.43
-4.39
-3.84
-4.94
-7.23
-9.76
-11.40
-11.19
-8.74
-4.38
0.92
5.93
9.65
11.65
12.18
12.01
11.97
12.58
13.88
15.48
16.81
17.41
17.02
15.52
12.90
9.15
4.41
-0.97
-6.32
-10.74
-13.38
-13.71
-11.76
-8.09
-3.63
0.67
4.11
6.37
7.42
7.41
6.51
4.95
3.06
1.27
0.06
-0.33
-0.09
0.22
-0.12
-1.50
-3.76
-6.12
-7.58
-7.48
-5.87
-3.52
-1.50
-0.66
-1.21
-2.66
-4.14
-4.91
-4.65
-3.66
-2.62
-2.27
-3.09
-5.08
-7.84
-10.67
-12.78
-13.44
-12.21
-9.05
-4.42
0.69
4.97
7.19
6.58
3.25
-1.76
-6.76
-10.07
-10.67
-8.68
-5.29
-2.21
-0.87
-1.84
-4.55
-7.71
-9.97
-10.59
-9.71
-8.12
-6.73
-5.99
-5.75
-5.44
-4.49
-2.69
-0.32
2.06
3.96
5.21
6.03
6.80
7.81
9.05
10.30
11.26
11.85
12.17
12.48
12.87
13.15
12.91
11.70
9.40
6.31
3.01
0.10
-2.08
-3.56
-4.53
-5.16
-5.45
-5.27
-4.60
-3.63
-2.81
-2.58
-3.20
-4.51
-6.02
-7.11
-7.37
-6.81
-5.85
-5.18
-5.39
-6.78
-9.14
-11.82
-13.97
-14.75
-13.63
-10.56
-6.02
-0.88
3.78
6.93
7.92
6.56
3.31
-0.92
-4.87
-7.39
-7.77
-6.08
-3.12
-0.19
1.48
1.19
-0.96
-4.12
-7.12
-9.02
-9.42
-8.54
-6.98
-5.38
-4.19
-3.59
-3.63
-4.32
-5.65
-7.52
-9.70
-11.78
-13.31
-14.00
-13.84
-13.12
-12.34
-11.98
-12.25
-13.04
-13.99
-14.66
-14.70
-13.93
-12.29
-9.78
-6.49
-2.54
1.81
6.22
10.40
14.26
17.94
21.76
25.94
30.43
34.87
38.66
41.26
42.49
42.54
41.83
40.74
39.39
37.51
34.60
30.25
24.45
17.79
11.38
6.59
4.72
6.52
11.98
20.18
29.39
37.32
41.51
40.00
32.02
18.40
1.54
-15.24
-28.83
-37.29
-40.41
-39.37
-36.02
-31.87
-27.70
-23.58
-19.33
-15.00
-10.98
-7.79
-5.64
-4.25
-2.99
-1.28
1.00
3.37
4.97
5.02
3.24
0.06
-3.52
-6.42
-7.82
-7.56
-6.02
-3.91
-1.96
-0.58
0.18
0.50
0.68
0.92
1.35
1.96
2.71
3.54
4.31
4.84
4.86
4.10
2.44
-0.07
-3.08
-6.12
-8.66
-10.32
-11.02
-10.97
-10.61
-10.47
-10.94
-12.22
-14.20
-16.61
-19.05
-21.07
-22.17
-21.87
-19.92
-16.49
-12.33
-8.63
-6.57
-6.79
-8.96
-11.84
-13.80
-13.53
-10.62
-5.72
-0.12
4.79
8.09
9.55
9.52
8.62
7.48
6.51
5.94
5.85
6.30
7.33
8.87
10.70
12.37
13.35
13.12
11.43
8.45
4.74
1.18
-1.36
-2.30
-1.51
0.66
3.52
6.32
8.53
9.94
10.65
10.88
10.77
10.41
9.75
8.84
7.82
6.88
6.19
5.71
5.24
4.52
3.35
1.74
-0.15
-2.04
-3.78
-5.31
-6.72
-8.09
-9.42
-10.61
-11.54
-12.15
-12.58
-13.12
-14.08
-15.67
-17.79
-20.08
-21.96
-22.81
-22.15
-19.82
-16.10
-11.62
-7.25
-3.81
-1.80
-1.12
-1.13
-0.83
0.71
3.97
8.70
13.97
18.50
21.17
21.40
19.44
16.19
12.80
10.20
8.85
8.65
9.22
10.19
11.35
12.65
14.00
15.15
15.62
14.98
13.02
9.96
6.33
2.81
-0.12
-2.29
-3.80
-4.89
-5.69
-6.19
-6.25
-5.77
-4.86
-3.80
-3.03
-2.84
-3.28
-4.10
-4.85
-5.09
-4.54
-3.19
-1.28
0.85
2.82
4.40
5.48
6.04
6.07
5.52
4.37
2.63
0.49
-1.76
-3.80
-5.41
-6.56
-7.42
-8.26
-9.28
-10.55
-11.93
-13.19
-14.03
-14.11
-13.24
-11.37
-8.76
-5.98
-3.75
-2.70
-3.07
-4.50
-6.13
-6.91
-5.99
-3.11
1.36
6.53
11.41
15.15
17.35
18.06
17.65
16.69
15.69
15.04
14.91
15.24
15.77
16.04
15.54
13.83
10.76
6.51
1.69
-2.89
-6.32
-7.93
-7.49
-5.25
-1.91
1.65
4.66
6.64
7.48
7.30
6.32
4.71
2.66
0.46
-1.46
-2.64
-2.86
-2.31
-1.59
-1.49
-2.55
-4.76
-7.57
-10.19
-11.98
-12.83
-13.09
-13.36
-14.07
-15.25
-16.50
-17.23
-16.99
-15.67
-13.58
-11.31
-9.47
-8.43
-8.23
-8.59
-9.08
-9.32
-9.10
-8.39
-7.24
-5.75
-4.06
-2.42
-1.23
-1.00
-2.08
-4.40
-7.35
-9.95
-11.23
-10.69
-8.55
-5.63
-2.94
-1.26
-0.86
-1.52
-2.74
-4.02
-4.97
-5.37
-5.08
-4.04
-2.34
-0.22
1.81
3.12
3.23
2.03
-0.03
-1.95
-2.50
-0.65
4.03
11.29
20.20
29.57
38.20
45.13
49.84
52.15
52.30
50.90
48.79
46.83
45.56
44.95
44.32
42.63
38.94
32.83
24.73
15.71
7.13
0.07
-5.01
-8.33
-10.56
-12.47
-14.57
-16.98
-19.52
-21.88
-23.80
-25.16
-25.95
-26.19
-25.93
-25.25
-24.26
-23.12
-22.03
-21.06
-20.20
-19.31
-18.26
-17.04
-15.82
-14.90
-14.58
-14.96
-15.76
-16.43
-16.28
-14.87
-12.27
-9.08
-6.26
-4.66
-4.69
-6.14
-8.33
-10.38
-11.67
-11.97
-11.45
-10.47
-9.28
-7.96
-6.43
-4.57
-2.43
-0.21
1.79
3.36
4.47
5.40
6.53
8.10
10.11
12.20
13.89
14.72
14.54
13.47
11.82
9.98
8.24
6.88
6.07
5.93
6.45
7.39
8.31
8.77
8.48
7.53
6.38
5.60
5.65
6.65
8.38
10.43
12.44
14.23
15.81
17.19
18.18
18.35
17.21
14.43
10.17
5.03
0.01
-3.80
-5.52
-4.69
-1.37
3.84
9.84
15.23
18.57
18.65
14.86
7.43
-2.50
-13.13
-22.43
-28.73
-31.25
-30.27
-26.89
-22.51
-18.22
-14.52
-11.28
-8.16
-4.94
-1.70
1.36
4.08
6.53
8.89
11.22
13.27
14.54
14.52
12.99
10.20
6.77
3.42
0.69
-1.20
-2.35
-3.00
-3.45
-3.91
-4.48
-5.13
-5.77
-6.26
-6.40
-6.01
-5.01
-3.53
-1.97
-0.90
-0.91
-2.37
-5.25
-9.06
-13.03
-16.33
-18.33
-18.83
-18.07
-16.59
-15.04
-13.95
-13.65
-14.22
-15.53
-17.34
-19.34
-21.27
-22.90
-24.03
-24.49
-24.09
-22.75
-20.59
-17.94
-15.34
-13.29
-12.03
-11.36
-10.77
-9.60
-7.42
-4.23
-0.51
3.04
5.72
7.21
7.63
7.47
7.33
7.69
8.72
10.29
12.13
13.93
15.52
16.89
18.03
18.94
19.55
19.77
19.62
19.20
18.73
18.34
18.09
17.89
17.55
16.92
15.94
14.71
13.40
12.26
11.47
11.08
10.92
10.73
10.20
9.22
7.87
6.47
5.35
4.72
4.50
4.35
3.84
2.56
0.40
-2.47
-5.68
-8.78
-11.42
-13.49
-15.03
-16.24
-17.29
-18.32
-19.38
-20.48
-21.66
-22.93
-24.24
-25.49
-26.51
-27.11
-27.17
-26.64
-25.47
-23.57
-20.77
-16.85
-11.69
-5.36
1.90
9.60
17.19
24.01
29.47
33.03
34.32
33.18
29.63
23.96
16.67
8.55
0.62
-5.99
-10.29
-11.71
-10.34
-6.88
-2.37
2.17
6.08
9.14
11.38
12.84
13.38
12.74
10.74
7.58
3.84
0.40
-1.97
-2.88
-2.45
-1.20
0.28
1.61
2.74
3.92
5.39
7.19
9.02
10.36
10.75
9.96
8.13
5.75
3.38
1.45
0.09
-0.79
-1.48
-2.21
-3.05
-3.93
-4.70
-5.31
-5.83
-6.44
-7.33
-8.52
-9.85
-10.98
-11.63
-11.67
-11.33
-11.03
-11.21
-12.13
-13.69
-15.55
-17.23
-18.33
-18.62
-17.99
-16.44
-14.02
-10.91
-7.43
-4.06
-1.29
0.55
1.46
1.75
1.88
2.29
3.17
4.42
5.77
6.95
7.80
8.39
8.89
9.51
10.29
11.10
11.68
11.79
11.32
10.37
9.18
8.04
7.13
6.44
5.83
5.08
4.06
2.75
1.25
-0.21
-1.37
-1.97
-1.87
-1.00
0.50
2.37
4.26
5.84
6.91
7.49
7.78
8.10
8.73
9.72
10.88
11.76
11.81
10.57
7.94
4.24
0.13
-3.59
-6.32
-7.88
-8.54
-8.84
-9.26
-10.01
-10.93
-11.71
-12.04
-11.85
-11.29
-10.63
-10.09
-9.77
-9.62
-9.55
-9.46
-9.32
-9.07
-8.62
-7.87
-6.76
-5.36
-3.94
-2.86
-2.41
-2.66
-3.36
-3.99
-4.05
-3.24
-1.64
0.34
2.18
3.44
3.93
3.69
2.86
1.60
0.06
-1.61
-3.16
-4.26
-4.67
-4.28
-3.22
-1.85
-0.64
0.01
-0.12
-1.08
-2.72
-4.85
-7.29
-9.94
-12.67
-15.38
-17.88
-19.96
-21.43
-22.19
-22.25
-21.65
-20.36
-18.23
-15.05
-10.77
-5.67
-0.34
4.51
8.39
11.28
13.60
15.98
18.85
22.22
25.66
28.57
30.46
31.14
30.79
29.75
28.36
26.76
24.90
22.56
19.51
15.64
11.10
6.29
1.82
-1.68
-3.76
-4.26
-3.28
-1.14
1.71
4.68
7.13
8.44
8.20
6.40
3.49
0.29
-2.29
-3.57
-3.34
-1.91
0.10
2.01
3.36
4.06
4.34
4.56
4.97
5.61
6.26
6.58
6.28
5.30
3.81
2.18
0.77
-0.17
-0.59
-0.62
-0.44
-0.16
0.20
0.78
1.80
3.42
5.63
8.21
10.76
12.80
13.88
13.80
12.64
10.76
8.75
7.16
6.36
6.30
6.62
6.78
6.34
5.15
3.44
1.66
0.20
-0.75
-1.34
-1.89
-2.70
-3.85
-5.14
-6.28
-7.07
-7.54
-7.97
-8.70
-9.89
-11.34
-12.52
-12.68
-11.12
-7.36
-1.31
6.78
16.25
26.06
34.85
41.03
43.16
40.47
33.19
22.65
10.98
0.44
-7.32
-11.71
-13.22
-12.99
-12.25
-11.79
-11.91
-12.56
-13.59
-14.96
-16.61
-18.34
-19.69
-20.13
-19.31
-17.36
-14.88
-12.67
-11.34
-11.03
-11.35
-11.60
-11.10
-9.45
-6.69
-3.23
0.34
3.41
5.58
6.72
7.03
6.93
6.86
7.14
7.84
8.82
9.75
10.34
10.34
9.70
8.47
6.82
4.91
2.90
0.85
-1.20
-3.23
-5.24
-7.29
-9.44
-11.79
-14.36
-17.05
-19.59
-21.58
-22.58
-22.28
-20.60
-17.71
-14.04
-10.19
-6.81
-4.36
-3.01
-2.43
-1.90
-0.49
2.53
7.43
13.91
21.13
27.98
33.33
36.30
36.44
33.87
29.35
24.12
19.60
16.92
16.50
17.87
19.83
20.94
20.09
16.85
11.56
5.10
-1.46
-7.18
-11.31
-13.39
-13.31
-11.37
-8.35
-5.40
-3.65
-3.75
-5.45
-7.74
-9.24
-9.01
-6.98
-4.07
-1.64
-0.77
-1.73
-3.92
-6.29
-7.95
-8.63
-8.66
-8.71
-9.30
-10.54
-12.22
-13.95
-15.49
-16.75
-17.75
-18.44
-18.66
-18.21
-16.99
-15.20
-13.29
-11.81
-11.16
-11.33
-11.95
-12.30
-11.72
-9.74
-6.41
-2.20
2.06
5.43
7.15
6.90
4.97
2.16
-0.44
-1.87
-1.60
0.29
3.22
6.42
9.19
11.15
12.25
12.60
12.34
11.56
10.26
8.50
6.36
4.01
1.61
-0.70
-2.88
-4.93
-6.85
-8.68
-10.43
-12.12
-13.75
-15.29
-16.63
-17.66
-18.29
-18.51
-18.44
-18.25
-18.08
-17.98
-17.85
-17.48
-16.74
-15.56
-14.05
-12.38
-10.64
-8.80
-6.62
-3.78
-0.01
4.85
10.75
17.44
24.47
31.18
36.69
40.01
40.35
37.38
31.44
23.65
15.58
8.76
4.24
2.34
2.67
4.46
6.92
9.48
11.88
14.00
15.69
16.71
16.68
15.28
12.35
7.99
2.48
-3.75
-10.21
-16.38
-21.75
-25.80
-28.13
-28.62
-27.46
-25.25
-22.75
-20.73
-19.65
-19.55
-20.10
-20.73
-20.94
-20.37
-18.95
-16.79
-14.10
-11.12
-8.06
-5.16
-2.64
-0.67
0.65
1.40
1.79
2.12
2.66
3.50
4.57
5.60
6.28
6.42
5.95
5.01
3.83
2.65
1.64
0.81
0.07
-0.73
-1.62
-2.54
-3.31
-3.71
-3.59
-2.90
-1.73
-0.29
1.17
2.37
3.11
3.33
3.07
2.54
2.00
1.69
1.77
2.29
3.18
4.33
5.57
6.75
7.72
8.36
8.62
8.54
8.19
7.64
6.95
6.07
4.98
3.72
2.39
1.13
0.03
-0.89
-1.75
-2.64
-3.63
-4.70
-5.75
-6.63
-7.16
-7.23
-6.79
-5.90
-4.73
-3.56
-2.72
-2.46
-2.89
-4.00
-5.59
-7.39
-9.00
-10.02
-10.07
-8.91
-6.57
-3.34
0.26
3.70
6.57
8.68
10.07
10.91
11.42
11.81
12.19
12.64
13.12
13.55
13.75
13.61
13.10
12.30
11.36
10.42
9.53
8.65
7.68
6.61
5.47
4.41
3.51
2.79
2.13
1.34
0.30
-0.96
-2.27
-3.43
-4.29
-4.85
-5.22
-5.56
-5.96
-6.42
-6.85
-7.16
-7.26
-7.11
-6.71
-6.06
-5.15
-4.03
-2.78
-1.47
-0.24
0.82
1.63
2.16
2.40
2.42
2.38
2.50
2.98
3.89
5.16
6.52
7.65
8.30
8.35
7.83
6.94
5.93
5.02
4.40
4.14
4.20
4.44
4.69
4.77
4.58
4.13
3.53
2.98
2.67
2.75
3.29
4.23
5.40
6.58
7.56
8.26
8.73
9.13
9.62
10.31
11.13
11.95
12.57
12.89
12.91
12.68
12.29
11.76
11.03
9.99
8.59
6.87
4.97
3.12
1.48
0.09
-1.18
-2.56
-4.25
-6.26
-8.40
-10.39
-11.97
-13.04
-13.70
-14.20
-14.78
-15.63
-16.75
-18.00
-19.09
-19.60
-19.12
-17.30
-14.06
-9.64
-4.55
0.51
4.98
8.53
11.16
13.06
14.43
15.33
15.71
15.46
14.58
13.22
11.63
10.06
8.67
7.47
6.43
5.52
4.81
4.37
4.21
4.23
4.16
3.71
2.67
1.07
-0.83
-2.65
-4.05
-4.90
-5.29
-5.46
-5.68
-6.10
-6.77
-7.67
-8.80
-10.18
-11.78
-13.39
-14.62
-14.92
-13.84
-11.19
-7.19
-2.40
2.45
6.71
10.03
12.34
13.81
14.63
14.91
14.71
14.10
13.25
12.45
11.97
11.94
12.23
12.52
12.46
11.81
10.56
8.83
6.85
4.76
2.61
0.30
-2.33
-5.41
-8.93
-12.70
-16.29
-19.16
-20.88
-21.30
-20.64
-19.37
-17.97
-16.79
-15.89
-15.18
-14.50
-13.70
-12.69
-11.34
-9.55
-7.25
-4.49
-1.51
1.36
3.85
5.82
7.23
8.16
8.65
8.70
8.32
7.59
6.68
5.80
5.14
4.76
4.59
4.49
4.30
3.93
3.38
2.70
1.98
1.26
0.57
-0.09
-0.69
-1.17
-1.47
-1.53
-1.42
-1.22
-1.08
-1.13
-1.40
-1.90
-2.57
-3.38
-4.30
-5.25
-6.06
-6.48
-6.23
-5.16
-3.28
-0.89
1.61
3.80
5.41
6.36
6.76
6.77
6.56
6.20
5.66
4.91
4.00
3.07
2.31
1.89
1.85
2.06
2.25
2.14
1.58
0.60
-0.56
-1.60
-2.29
-2.55
-2.53
-2.42
-2.46
-2.72
-3.15
-3.62
-4.01
-4.35
-4.81
-5.57
-6.74
-8.18
-9.52
-10.33
-10.31
-9.40
-7.83
-5.93
-4.01
-2.21
-0.55
0.93
2.13
2.88
3.07
2.72
2.06
1.37
0.92
0.79
0.90
1.10
1.23
1.17
0.89
0.44
-0.07
-0.49
-0.69
-0.61
-0.34
-0.01
0.21
0.26
0.15
0.02
-0.04
0.05
0.26
0.52
0.75
0.89
0.87
0.65
0.22
-0.34
-0.90
-1.28
-1.33
-0.98
-0.25
0.75
1.90
3.07
4.10
4.91
5.38
5.46
5.13
4.49
3.66
2.80
2.03
1.39
0.89
0.52
0.32
0.35
0.68
1.27
1.94
2.47
2.62
2.30
1.57
0.63
-0.33
-1.17
-1.90
-2.58
-3.23
-3.79
-4.14
-4.23
-4.09
-3.90
-3.87
-4.11
-4.56
-4.98
-5.09
-4.72
-3.92
-2.89
-1.94
-1.31
-1.09
-1.17
-1.36
-1.49
-1.45
-1.30
-1.18
-1.21
-1.46
-1.90
-2.35
-2.62
-2.56
-2.15
-1.54
-0.96
-0.63
-0.68
-1.09
-1.67
-2.21
-2.50
-2.49
-2.28
-2.04
-1.92
-1.98
-2.14
-2.31
-2.46
-2.65
-2.99
-3.53
-4.19
-4.75
-4.98
-4.75
-4.09
-3.14
-2.12
-1.15
-0.27
0.53
1.25
1.86
2.26
2.37
2.15
1.66
1.03
0.47
0.16
0.18
0.50
0.99
1.45
1.75
1.82
1.72
1.57
1.45
1.39
1.33
1.20
0.93
0.52
0.05
-0.39
-0.72
-0.92
-1.06
-1.27
-1.59
-2.00
-2.42
-2.70
-2.82
-2.85
-2.90
-3.05
-3.21
-3.20
-2.80
-1.95
-0.79
0.38
1.24
1.62
1.59
1.37
1.25
1.32
1.54
1.71
1.65
1.30
0.80
0.33
0.09
0.14
0.37
0.57
0.57
0.29
-0.20
-0.70
-1.04
-1.14
-1.06
-0.97
-1.04
-1.38
-1.92
-2.52
-2.99
-3.20
-3.18
-3.05
-2.98
-3.11
-3.50
-4.08
-4.68
-5.07
-5.10
-4.69
-3.90
-2.90
-1.85
-0.89
-0.02
0.79
1.58
2.31
2.88
3.13
2.98
2.50
1.86
1.35
1.16
1.38
1.90
2.49
2.91
3.02
2.83
2.49
2.16
1.93
1.77
1.63
1.45
1.25
1.11
1.10
1.24
1.45
1.64
1.70
1.59
1.33
0.99
0.59
0.16
-0.32
-0.85
-1.41
-1.88
-2.07
-1.76
-0.82
0.73
2.58
4.34
5.60
6.19
6.18
5.88
5.61
5.54
5.60
5.57
5.23
4.55
3.68
2.93
2.49
2.42
2.51
2.47
2.11
1.38
0.48
-0.30
-0.77
-0.90
-0.87
-0.92
-1.26
-1.94
-2.86
-3.82
-4.64
-5.28
-5.80
-6.34
-6.97
-7.68
-8.31
-8.72
-8.77
-8.44
-7.78
-6.88
-5.86
-4.76
-3.59
-2.31
-0.91
0.59
2.05
3.31
4.17
4.53
4.43
4.02
3.54
3.16
2.91
2.70
2.40
1.97
1.50
1.14
1.03
1.16
1.40
1.58
1.56
1.37
1.12
0.94
0.90
0.92
0.81
0.45
-0.17
-0.91
-1.53
-1.87
-1.94
-1.96
-2.21
-2.91
-4.06
-5.44
-6.67
-7.38
-7.32
-6.45
-4.93
-3.04
-1.13
0.54
1.82
2.71
3.30
3.69
3.90
3.88
3.62
3.15
2.60
2.18
2.02
2.12
2.33
2.44
2.34
2.02
1.62
1.32
1.26
1.44
1.73
1.93
1.86
1.41
0.61
-0.41
-1.50
-2.55
-3.50
-4.38
-5.20
-5.94
-6.51
-6.81
-6.79
-6.49
-6.07
-5.73
-5.64
-5.77
-5.92
-5.75
-5.01
-3.59
-1.69
0.35
2.08
3.25
3.78
3.84
3.71
3.61
3.65
3.78
3.85
3.75
3.48
3.19
3.05
3.19
3.60
4.10
4.47
4.57
4.39
4.12
3.98
4.07
4.33
4.54
4.46
3.94
3.07
2.07
1.21
0.65
0.40
0.34
0.32
0.26
0.14
-0.06
-0.38
-0.91
-1.66
-2.54
-3.28
-3.55
-3.07
-1.78
0.13
2.32
4.41
6.10
7.25
7.84
7.92
7.59
6.98
6.25
5.55
4.96
4.52
4.19
3.94
3.76
3.64
3.58
3.54
3.44
3.21
2.78
2.17
1.47
0.78
0.20
-0.26
-0.63
-1.03
-1.56
-2.27
-3.12
-3.98
-4.73
-5.32
-5.79
-6.28
-6.95
-7.88
-9.02
-10.18
-11.10
-11.52
-11.22
-10.11
-8.23
-5.73
-2.88
0.04
2.71
4.89
6.38
7.10
7.07
6.46
5.53
4.61
3.94
3.63
3.62
3.71
3.70
3.49
3.09
2.66
2.33
2.18
2.16
2.15
2.03
1.80
1.54
1.40
1.46
1.69
1.91
1.91
1.52
0.77
-0.13
-0.92
-1.40
-1.55
-1.58
-1.83
-2.61
-4.10
-6.21
-8.66
-11.02
-12.80
-13.62
-13.26
-11.66
-9.02
-5.70
-2.16
1.14
3.82
5.64
6.56
6.70
6.29
5.59
4.88
4.37
4.12
4.06
3.99
3.73
3.20
2.50
1.87
1.54
1.62
2.01
2.44
2.66
2.54
2.14
1.67
1.25
0.96
0.70
0.32
-0.31
-1.15
-2.07
-2.87
-3.39
-3.61
-3.64
-3.66
-3.87
-4.39
-5.20
-6.17
-7.12
-7.85
-8.19
-8.00
-7.16
-5.61
-3.39
-0.64
2.35
5.18
7.44
8.84
9.25
8.81
7.80
6.66
5.74
5.26
5.18
5.29
5.34
5.13
4.64
4.00
3.39
2.95
2.70
2.53
2.32
2.00
1.61
1.21
0.88
0.57
0.15
-0.52
-1.52
-2.71
-3.83
-4.58
-4.76
-4.43
-3.88
-3.50
-3.64
-4.44
-5.72
-7.09
-8.05
-8.16
-7.20
-5.17
-2.37
0.80
3.89
6.56
8.65
10.10
10.96
11.27
11.06
10.39
9.40
8.32
7.42
6.84
6.61
6.56
6.49
6.23
5.78
5.24
4.76
4.40
4.13
3.82
3.37
2.73
1.94
1.06
0.12
-0.92
-2.07
-3.32
-4.58
-5.71
-6.62
-7.29
-7.78
-8.27
-8.92
-9.86
-11.14
-12.60
-13.97
-14.82
-14.73
-13.42
-10.91
-7.53
-3.83
-0.38
2.42
4.44
5.78
6.66
7.22
7.52
7.56
7.32
6.89
6.41
6.01
5.74
5.53
5.26
4.84
4.23
3.52
2.83
2.26
1.88
1.67
1.54
1.37
1.03
0.47
-0.32
-1.26
-2.24
-3.19
-4.05
-4.84
-5.56
-6.18
-6.71
-7.13
-7.48
-7.94
-8.70
-9.91
-11.53
-13.24
-14.49
-14.71
-13.46
-10.72
-6.89
-2.64
1.26
4.32
6.31
7.35
7.66
7.46
6.91
6.08
5.06
4.01
3.13
2.58
2.44
2.60
2.88
3.02
2.88
2.45
1.89
1.41
1.16
1.18
1.32
1.40
1.24
0.80
0.15
-0.58
-1.30
-1.98
-2.68
-3.45
-4.35
-5.34
-6.34
-7.24
-7.93
-8.37
-8.65
-8.93
-9.39
-10.09
-10.87
-11.34
-11.06
-9.68
-7.16
-3.81
-0.15
3.29
6.17
8.40
10.09
11.36
12.24
12.67
12.58
12.01
11.11
10.13
9.26
8.60
8.14
7.76
7.38
6.93
6.40
5.82
5.24
4.70
4.25
3.85
3.44
2.88
2.07
1.03
-0.10
-1.04
-1.54
-1.52
-1.12
-0.62
-0.35
-0.53
-1.17
-2.18
-3.42
-4.81
-6.31
-7.80
-8.97
-9.35
-8.48
-6.14
-2.56
1.57
5.40
8.23
9.85
10.51
10.74
10.95
11.26
11.43
11.09
10.06
8.46
6.71
5.32
4.57
4.45
4.68
4.91
4.91
4.65
4.28
3.96
3.78
3.61
3.23
2.43
1.16
-0.47
-2.22
-3.86
-5.26
-6.42
-7.43
-8.34
-9.15
-9.78
-10.14
-10.20
-10.08
-9.99
-10.16
-10.75
-11.66
-12.59
-13.05
-12.56
-10.92
-8.23
-4.98
-1.80
0.76
2.42
3.27
3.64
3.91
4.35
5.00
5.69
6.24
6.52
6.55
6.46
6.36
6.30
6.24
6.06
5.67
5.05
4.23
3.28
2.28
1.34
0.59
0.15
0.11
0.40
0.88
1.33
1.59
1.66
1.60
1.53
1.46
1.28
0.82
-0.06
-1.43
-3.25
-5.44
-7.89
-10.46
-12.88
-14.73
-15.45
-14.56
-11.89
-7.75
-2.92
1.64
5.12
7.16
7.93
7.97
7.91
8.17
8.87
9.90
11.05
12.13
12.98
13.45
13.41
12.71
11.27
9.20
6.71
4.14
1.83
0.03
-1.18
-1.89
-2.34
-2.78
-3.38
-4.14
-4.90
-5.42
-5.54
-5.29
-4.93
-4.84
-5.35
-6.50
-8.06
-9.60
-10.73
-11.28
-11.39
-11.42
-11.68
-12.39
-13.48
-14.78
-16.04
-17.01
-17.48
-17.16
-15.84
-13.38
-9.89
-5.76
-1.52
2.26
5.19
7.18
8.35
8.99
9.37
9.64
9.82
9.83
9.56
8.96
8.12
7.22
6.51
6.16
6.19
6.48
6.83
7.01
6.94
6.60
6.11
5.59
5.09
4.58
3.93
3.03
1.86
0.55
-0.67
-1.56
-2.04
-2.22
-2.36
-2.66
-3.22
-3.91
-4.53
-4.93
-5.17
-5.47
-6.14
-7.35
-8.97
-10.55
-11.43
-11.04
-9.09
-5.76
-1.63
2.56
6.19
8.95
10.83
12.02
12.70
12.95
12.73
12.06
11.04
9.90
8.92
8.25
7.89
7.69
7.44
7.00
6.36
5.64
5.00
4.55
4.27
4.03
3.63
2.96
2.02
0.96
-0.00
-0.76
-1.34
-1.91
-2.69
-3.79
-5.16
-6.58
-7.76
-8.51
-8.80
-8.83
-8.90
-9.34
-10.34
-11.89
-13.72
-15.34
-16.18
-15.77
-13.90
-10.71
-6.64
-2.23
1.97
5.63
8.56
10.73
12.15
12.83
12.84
12.33
11.53
10.65
9.84
9.11
8.41
7.68
6.95
6.31
5.89
5.75
5.81
5.91
5.86
5.49
4.80
3.88
2.89
1.95
1.11
0.35
-0.41
-1.22
-2.09
-3.00
-3.94
-4.94
-6.04
-7.23
-8.46
-9.66
-10.71
-11.59
-12.32
-12.99
-13.69
-14.47
-15.26
-15.84
-15.85
-14.90
-12.73
-9.42
-5.42
-1.44
1.83
3.93
4.80
4.70
4.05
3.23
2.49
1.98
1.71
1.64
1.66
1.65
1.59
1.54
1.66
2.10
2.85
3.69
4.27
4.30
3.65
2.50
1.13
-0.17
-1.26
-2.14
-2.87
-3.48
-3.91
-4.05
-3.88
-3.48
-3.08
-2.98
-3.35
-4.23
-5.41
-6.57
-7.43
-7.88
-8.07
-8.35
-9.06
-10.35
-11.98
-13.40
-13.92
-13.01
-10.54
-6.89
-2.68
1.37
4.80
7.43
9.33
10.64
11.46
11.84
11.85
11.62
11.37
11.28
11.41
11.67
11.83
11.67
11.11
10.26
9.37
8.71
8.42
8.44
8.56
8.52
8.14
7.42
6.46
5.43
4.39
3.38
2.35
1.30
0.26
-0.69
-1.45
-1.99
-2.35
-2.66
-3.09
-3.81
-4.95
-6.48
-8.28
-10.09
-11.59
-12.46
-12.48
-11.50
-9.53
-6.74
-3.36
0.25
3.73
6.75
9.08
10.64
11.48
11.72
11.54
11.13
10.61
10.09
9.55
8.93
8.15
7.21
6.24
5.40
4.88
4.72
4.84
5.04
5.13
5.06
4.85
4.55
4.11
3.35
2.04
0.05
-2.50
-5.26
-7.80
-9.73
-10.91
-11.48
-11.72
-11.90
-12.16
-12.44
-12.63
-12.68
-12.71
-12.97
-13.62
-14.56
-15.31
-15.15
-13.49
-10.16
-5.56
-0.54
3.98
7.36
9.48
10.62
11.24
11.68
12.08
12.37
12.42
12.11
11.48
10.59
9.56
8.44
7.31
6.16
5.00
3.85
2.75
1.80
1.08
0.62
0.32
0.03
-0.39
-1.03
-1.79
-2.50
-3.00
-3.22
-3.29
-3.44
-3.91
-4.85
-6.21
-7.77
-9.24
-10.38
-11.13
-11.61
-12.07
-12.75
-13.80
-15.19
-16.71
-18.03
-18.80
-18.65
-17.35
-14.83
-11.27
-7.07
-2.79
1.02
4.02
6.06
7.26
7.81
7.92
7.79
7.52
7.23
6.99
6.82
6.70
6.53
6.19
5.66
5.01
4.38
3.95
3.82
3.96
4.22
4.44
4.48
4.32
4.03
3.69
3.34
2.96
2.48
1.85
1.11
0.32
-0.43
-1.08
-1.63
-2.11
-2.54
-2.93
-3.31
-3.71
-4.21
-4.89
-5.85
-7.09
-8.50
-9.76
-10.43
-10.06
-8.36
-5.38
-1.57
2.41
5.89
8.42
9.95
10.69
10.95
11.01
10.95
10.74
10.31
9.67
8.92
8.25
7.78
7.56
7.53
7.58
7.62
7.65
7.67
7.67
7.57
7.21
6.44
5.25
3.77
2.30
1.15
0.49
0.25
0.19
-0.03
-0.67
-1.77
-3.12
-4.40
-5.29
-5.67
-5.71
-5.73
-6.11
-7.04
-8.48
-10.17
-11.73
-12.82
-13.20
-12.70
-11.23
-8.80
-5.53
-1.72
2.21
5.82
8.78
10.92
12.24
12.88
13.01
12.78
12.31
11.68
10.98
10.26
9.55
8.85
8.17
7.55
7.01
6.57
6.23
5.92
5.56
5.05
4.39
3.67
2.99
2.44
1.99
1.49
0.77
-0.25
-1.50
-2.83
-4.07
-5.18
-6.25
-7.37
-8.59
-9.78
-10.74
-11.31
-11.50
-11.52
-11.69
-12.23
-13.11
-14.01
-14.36
-13.60
-11.42
-7.87
-3.40
1.33
5.68
9.23
11.88
13.77
15.13
16.11
16.71
16.80
16.26
15.09
13.41
11.42
9.25
6.93
4.39
1.57
-1.47
-4.54
-7.33
-9.52
-10.93
-11.54
-11.57
-11.33
-11.22
-11.48
-12.21
-13.22
-14.20
-14.82
-14.99
-14.96
-15.22
-16.23
-18.16
-20.70
-23.23
-25.09
-26.02
-26.27
-26.49
-27.36
-29.23
-32.02
-35.23
-38.24
-40.50
-41.59
-41.12
-38.79
-34.39
-28.05
-20.34
-12.25
-4.82
1.25
5.83
9.38
12.60
16.01
19.70
23.35
26.51
28.89
30.56
31.89
33.32
35.12
37.24
39.44
41.48
43.33
45.22
47.55
50.71
54.90
59.97
65.46
70.66
74.68
76.68
75.98
72.24
65.54
56.31
45.26
33.19
20.87
8.94
-2.01
-11.47
-19.09
-24.76
-28.70
-31.33
-33.08
-34.09
-34.12
-32.61
-29.04
-23.25
-15.62
-6.93
1.96
10.45
18.41
26.05
33.70
41.52
49.46
57.43
65.51
74.06
83.59
94.39
106.14
117.83
127.93
134.96
138.03
137.11
133.01
127.05
120.67
115.06
110.96
108.47
106.90
104.71
99.53
88.64
69.59
41.13
3.77
-40.07
-86.51
-131.16
-170.06
-200.38
-220.68
-230.87
-231.97
-225.83
-214.85
-201.63
-188.54
-177.26
-168.47
-161.81
-156.22
-150.47
-143.56
-135.06
-124.99
-113.72
-101.80
-89.83
-78.35
-67.84
-58.55
-50.48
-43.37
-36.87
-30.64
-24.51
-18.52
-12.88
-7.79
-3.38
0.38
3.68
6.70
9.54
12.19
14.55
16.53
18.16
19.53
20.79
22.02
23.16
24.07
24.59
24.63
24.26
23.62
22.92
22.34
21.93
21.64
21.40
21.10
20.69
20.21
19.72
19.31
18.96
18.58
17.97
16.95
15.43
13.45
11.22
8.98
7.01
5.56
4.80
4.77
5.36
6.30
7.20
7.67
7.45
6.51
5.06
3.41
1.92
0.76
-0.06
-0.74
-1.52
-2.62
-4.09
-5.84
-7.59
-9.06
-10.00
-10.29
-10.00
-9.32
-8.50
-7.82
-7.46
-7.50
-7.89
-8.50
-9.08
-9.33
-8.97
-7.80
-5.78
-3.13
-0.24
2.42
4.46
5.76
6.47
6.88
7.35
8.09
9.15
10.44
11.81
13.18
14.46
15.64
16.69
17.61
18.46
19.31
20.23
21.22
22.16
22.86
23.17
23.05
22.63
22.09
21.61
21.26
20.97
20.63
20.13
19.42
18.52
17.44
16.20
14.80
13.34
12.00
10.99
10.42
10.24
10.22
10.05
9.45
8.32
6.72
4.75
2.54
0.13
-2.45
-5.14
-7.83
-10.34
-12.52
-14.26
-15.53
-16.29
-16.52
-16.18
-15.32
-14.07
-12.66
-11.30
-10.14
-9.20
-8.38
-7.55
-6.62
-5.57
-4.42
-3.17
-1.81
-0.28
1.40
3.18
4.89
6.36
7.42
8.01
8.18
8.07
7.90
7.83
7.94
8.17
8.39
8.43
8.13
7.38
6.17
4.51
2.53
0.39
-1.64
-3.30
-4.40
-4.88
-4.89
-4.70
-4.68
-5.08
-5.96
-7.15
-8.25
-8.83
-8.50
-7.10
-4.74
-1.78
1.32
4.14
6.39
8.03
9.16
9.94
10.55
11.07
11.47
11.69
11.63
11.28
10.65
9.81
8.81
7.69
6.48
5.22
4.02
2.99
2.23
1.74
1.39
1.02
0.48
-0.24
-1.06
-1.80
-2.24
-2.18
-1.53
-0.29
1.33
3.02
4.41
5.18
5.17
4.51
3.50
2.56
2.03
2.12
2.81
3.93
5.26
6.59
7.75
8.63
9.14
9.17
8.62
7.51
5.94
4.15
2.45
1.10
0.18
-0.32
-0.53
-0.64
-0.71
-0.76
-0.77
-0.71
-0.60
-0.49
-0.44
-0.54
-0.84
-1.43
-2.37
-3.69
-5.35
-7.24
-9.23
-11.16
-12.94
-14.54
-15.97
-17.26
-18.38
-19.23
-19.61
-19.34
-18.23
-16.18
-13.16
-9.31
-4.89
-0.32
3.88
7.22
9.35
10.16
9.77
8.49
6.71
4.85
3.26
2.17
1.70
1.79
2.26
2.86
3.35
3.60
3.59
3.37
2.99
2.48
1.84
1.07
0.20
-0.71
-1.60
-2.42
-3.15
-3.76
-4.30
-4.79
-5.33
-6.02
-6.98
-8.28
-9.84
-11.40
-12.58
-12.90
-11.97
-9.63
-6.04
-1.64
2.96
7.20
10.67
13.18
14.76
15.61
16.00
16.21
16.45
16.75
16.91
16.58
15.40
13.14
9.84
5.87
1.75
-1.99
-5.00
-7.16
-8.57
-9.43
-9.94
-10.25
-10.48
-10.74
-11.10
-11.62
-12.26
-12.87
-13.30
-13.40
-13.16
-12.75
-12.42
-12.36
-12.60
-12.87
-12.70
-11.60
-9.20
-5.46
-0.71
4.50
9.53
13.82
17.05
19.14
20.19
20.41
20.03
19.35
18.62
18.05
17.73
17.66
17.70
17.71
17.58
17.27
16.84
16.43
16.13
15.98
15.86
15.54
14.71
13.14
10.78
7.81
4.61
1.63
-0.82
-2.67
-4.12
-5.53
-7.22
-9.36
-11.81
-14.17
-15.90
-16.49
-15.61
-13.22
-9.62
-5.30
-0.85
3.20
6.45
8.72
9.96
10.28
9.90
9.08
8.09
7.18
6.46
5.93
5.49
5.02
4.42
3.73
3.07
2.60
2.45
2.63
3.02
3.38
3.47
3.10
2.22
0.87
-0.83
-2.72
-4.69
-6.59
-8.38
-10.02
-11.57
-13.12
-14.74
-16.43
-18.03
-19.19
-19.40
-18.16
-15.22
-10.70
-5.19
0.45
5.32
8.83
10.78
11.37
11.00
10.07
8.80
7.26
5.45
3.45
1.44
-0.35
-1.76
-2.78
-3.62
-4.58
-5.94
-7.81
-10.08
-12.45
-14.59
-16.29
-17.57
-18.64
-19.83
-21.38
-23.40
-25.79
-28.29
-30.65
-32.61
-34.02
-34.80
-34.97
-34.54
-33.51
-31.84
-29.42
-26.11
-21.87
-16.76
-11.08
-5.23
0.36
5.34
9.55
12.98
15.71
17.77
19.17
19.90
20.01
19.69
19.17
18.65
18.24
17.91
17.56
17.10
16.56
16.01
15.52
15.08
14.62
13.99
13.09
11.94
10.57
9.10
7.59
6.09
4.61
3.21
1.95
0.89
0.05
-0.69
-1.47
-2.50
-3.88
-5.55
-7.27
-8.60
-9.06
-8.25
-6.02
-2.52
1.82
6.40
10.59
13.94
16.21
17.42
17.72
17.37
16.59
15.54
14.32
13.02
11.69
10.40
9.23
8.26
7.51
6.97
6.53
6.11
5.66
5.22
4.84
4.54
4.23
3.69
2.73
1.30
-0.45
-2.15
-3.45
-4.18
-4.45
-4.63
-5.16
-6.39
-8.36
-10.83
-13.33
-15.32
-16.26
-15.76
-13.70
-10.22
-5.73
-0.81
3.92
7.92
10.85
12.60
13.26
13.07
12.30
11.23
10.05
8.87
7.76
6.76
5.89
5.17
4.57
4.04
3.51
2.91
2.25
1.58
0.99
0.55
0.28
0.13
-0.07
-0.48
-1.26
-2.49
-4.10
-5.91
-7.66
-9.12
-10.14
-10.75
-11.07
-11.32
-11.68
-12.32
-13.24
-14.35
-15.41
-16.06
-15.89
-14.60
-12.04
-8.34
-3.87
0.86
5.28
8.99
11.73
13.47
14.30
14.36
13.86
13.02
12.04
11.12
10.36
9.70
9.01
8.14
7.05
5.84
4.72
3.89
3.44
3.27
3.22
3.10
2.85
2.50
2.13
1.76
1.34
0.71
-0.27
-1.67
-3.42
-5.28
-6.98
-8.30
-9.16
-9.64
-9.96
-10.37
-11.02
-11.99
-13.23
-14.64
-16.07
-17.28
-17.96
-17.77
-16.37
-13.65
-9.79
-5.22
-0.59
3.47
6.54
8.50
9.51
9.92
10.09
10.23
10.34
10.30
9.93
9.15
8.03
6.77
5.62
4.79
4.36
4.32
4.54
4.85
5.13
5.28
5.18
4.77
3.99
2.85
1.46
0.02
-1.26
-2.19
-2.79
-3.24
-3.81
-4.71
-5.95
-7.30
-8.43
-9.08
-9.20
-9.01
-8.84
-9.00
-9.62
-10.64
-11.81
-12.84
-13.37
-13.06
-11.63
-8.95
-5.17
-0.73
3.74
7.66
10.68
12.80
14.25
15.25
15.87
15.95
15.29
13.84
11.83
9.68
7.87
6.69
6.20
6.27
6.67
7.22
7.77
8.20
8.40
8.28
7.81
7.00
5.93
4.69
3.39
2.10
0.86
-0.31
-1.40
-2.43
-3.38
-4.24
-5.00
-5.72
-6.48
-7.40
-8.61
-10.16
-11.93
-13.70
-15.10
-15.74
-15.30
-13.64
-10.79
-7.05
-2.85
1.30
4.94
7.79
9.77
10.96
11.53
11.64
11.43
10.98
10.35
9.63
8.89
8.16
7.43
6.63
5.74
4.77
3.84
3.07
2.54
2.25
2.09
1.96
1.81
1.67
1.55
1.45
1.26
0.79
-0.08
-1.43
-3.15
-5.05
-6.88
-8.43
-9.54
-10.21
-10.51
-10.59
-10.64
-10.76
-11.06
-11.60
-12.43
-13.55
-14.82
-15.90
-16.29
-15.47
-13.13
-9.37
-4.71
0.04
4.13
7.12
8.96
9.97
10.49
10.80
10.92
10.73
10.15
9.21
8.13
7.20
6.65
6.53
6.69
6.87
6.84
6.51
5.95
5.38
4.97
4.78
4.67
4.39
3.72
2.60
1.20
-0.19
-1.32
-2.12
-2.71
-3.39
-4.36
-5.73
-7.35
-9.00
-10.40
-11.39
-11.99
-12.32
-12.62
-13.10
-13.89
-15.00
-16.27
-17.40
-18.02
-17.74
-16.27
-13.56
-9.79
-5.34
-0.75
3.45
6.82
9.15
10.45
10.91
10.86
10.58
10.29
10.03
9.72
9.26
8.60
7.84
7.18
6.78
6.74
6.94
7.16
7.18
6.88
6.26
5.47
4.65
3.91
3.27
2.67
2.02
1.22
0.22
-1.01
-2.39
-3.82
-5.16
-6.25
-7.05
-7.55
-7.81
-7.96
-8.14
-8.47
-9.08
-10.01
-11.16
-12.26
-12.90
-12.65
-11.19
-8.48
-4.80
-0.68
3.24
6.46
8.74
10.13
10.89
11.30
11.50
11.50
11.20
10.49
9.36
7.96
6.53
5.39
4.74
4.61
4.86
5.25
5.54
5.60
5.47
5.26
5.09
4.95
4.70
4.14
3.14
1.74
0.14
-1.41
-2.72
-3.76
-4.63
-5.48
-6.41
-7.39
-8.32
-9.17
-9.99
-10.96
-12.21
-13.63
-14.86
-15.30
-14.41
-11.99
-8.27
-3.92
0.27
3.73
6.22
7.91
9.13
10.13
11.00
11.59
11.74
11.37
10.63
9.78
9.07
8.60
8.29
7.96
7.47
6.83
6.16
5.62
5.25
5.00
4.68
4.18
3.48
2.63
1.79
1.04
0.38
-0.27
-1.02
-1.96
-3.12
-4.41
-5.72
-6.90
-7.82
-8.42
-8.78
-9.01
-9.35
-10.01
-11.11
-12.62
-14.30
-15.72
-16.34
-15.74
-13.67
-10.29
-6.05
-1.59
2.44
5.63
7.82
9.16
9.91
10.30
10.45
10.38
10.08
9.58
9.01
8.53
8.24
8.10
8.00
7.77
7.30
6.61
5.82
5.07
4.49
4.10
3.88
3.70
3.42
2.93
2.16
1.10
-0.14
-1.39
-2.49
-3.34
-3.89
-4.28
-4.71
-5.36
-6.35
-7.60
-8.90
-9.99
-10.71
-11.07
-11.22
-11.42
-11.86
-12.65
-13.76
-15.10
-16.48
-17.62
-18.14
-17.67
-15.93
-12.93
-8.98
-4.67
-0.61
2.70
5.05
6.47
7.17
7.42
7.45
7.44
7.47
7.58
7.71
7.80
7.74
7.46
6.99
6.44
5.93
5.61
5.55
5.74
6.10
6.54
6.93
7.19
7.19
6.84
6.08
4.95
3.60
2.27
1.17
0.45
0.09
-0.08
-0.30
-0.78
-1.63
-2.79
-4.05
-5.12
-5.80
-6.01
-5.89
-5.72
-5.79
-6.27
-7.22
-8.49
-9.89
-11.14
-11.93
-11.94
-10.91
-8.72
-5.54
-1.76
2.06
5.40
7.94
9.64
10.68
11.34
11.86
12.36
12.78
13.04
13.01
12.70
12.16
11.53
10.93
10.40
9.94
9.52
9.14
8.79
8.51
8.29
8.07
7.74
7.18
6.37
5.31
4.08
2.75
1.44
0.22
-0.80
-1.58
-2.11
-2.45
-2.73
-3.12
-3.69
-4.47
-5.39
-6.31
-7.12
-7.76
-8.22
-8.55
-8.86
-9.30
-10.01
-11.09
-12.51
-13.98
-15.02
-15.06
-13.72
-10.98
-7.24
-3.14
0.67
3.80
6.17
7.94
9.28
10.27
10.89
11.12
11.02
10.72
10.37
10.03
9.62
9.07
8.35
7.61
7.06
6.89
7.07
7.39
7.54
7.27
6.55
5.55
4.60
3.91
3.52
3.24
2.80
2.00
0.83
-0.51
-1.75
-2.64
-3.18
-3.53
-3.94
-4.63
-5.60
-6.72
-7.74
-8.49
-8.98
-9.39
-9.92
-10.75
-11.89
-13.26
-14.70
-16.09
-17.30
-18.19
-18.53
-18.08
-16.63
-14.19
-10.96
-7.34
-3.78
-0.65
1.80
3.56
4.71
5.42
5.88
6.19
6.42
6.52
6.47
6.25
5.92
5.60
5.42
5.41
5.54
5.68
5.74
5.70
5.63
5.62
5.72
5.82
5.77
5.39
4.62
3.55
2.35
1.23
0.34
-0.30
-0.72
-1.02
-1.30
-1.68
-2.24
-3.02
-3.99
-5.02
-5.95
-6.64
-7.09
-7.36
-7.58
-7.88
-8.33
-8.98
-9.86
-10.98
-12.20
-13.25
-13.70
-13.11
-11.25
-8.20
-4.41
-0.53
2.81
5.24
6.73
7.51
7.90
8.13
8.28
8.32
8.16
7.82
7.40
7.08
6.95
7.05
7.31
7.60
7.83
7.94
7.97
7.96
7.98
7.99
7.94
7.74
7.32
6.65
5.77
4.80
3.84
2.99
2.27
1.62
0.92
0.05
-1.07
-2.36
-3.64
-4.68
-5.31
-5.56
-5.66
-6.00
-6.91
-8.50
-10.55
-12.57
-13.94
-14.14
-12.91
-10.30
-6.69
-2.60
1.39
4.83
7.43
9.11
9.99
10.26
10.19
9.98
9.78
9.62
9.48
9.30
9.04
8.70
8.30
7.91
7.57
7.29
7.04
6.79
6.54
6.28
6.03
5.76
5.41
4.90
4.19
3.23
2.10
0.94
-0.13
-0.99
-1.62
-2.12
-2.62
-3.27
-4.12
-5.13
-6.20
-7.22
-8.11
-8.86
-9.52
-10.12
-10.77
-11.55
-12.60
-14.00
-15.70
-17.46
-18.79
-19.15
-18.12
-15.60
-11.94
-7.77
-3.80
-0.57
1.73
3.19
4.11
4.77
5.33
5.82
6.24
6.56
6.80
6.99
7.08
7.03
6.77
6.31
5.74
5.21
4.90
4.88
5.11
5.44
5.66
5.63
5.28
4.69
4.01
3.36
2.75
2.12
1.33
0.31
-0.87
-2.03
-2.94
-3.49
-3.73
-3.90
-4.27
-5.00
-6.04
-7.17
-8.12
-8.71
-8.94
-8.98
-9.08
-9.42
-10.10
-11.08
-12.23
-13.40
-14.37
-14.88
-14.62
-13.32
-10.88
-7.48
-3.63
0.02
2.89
4.75
5.70
6.17
6.61
7.27
8.15
9.03
9.64
9.84
9.69
9.40
9.24
9.39
9.85
10.49
11.10
11.49
11.56
11.34
10.90
10.32
9.62
8.80
7.87
6.87
5.91
5.11
4.54
4.19
3.93
3.57
2.93
1.92
0.56
-0.95
-2.38
-3.49
-4.20
-4.55
-4.74
-5.05
-5.71
-6.91
-8.63
-10.67
-12.63
-13.99
-14.23
-12.99
-10.25
-6.34
-1.92
2.32
5.81
8.31
9.90
10.81
11.30
11.52
11.47
11.16
10.62
9.98
9.37
8.86
8.41
7.89
7.22
6.44
5.66
5.08
4.81
4.82
4.97
5.04
4.88
4.42
3.72
2.83
1.82
0.73
-0.46
-1.71
-2.96
-4.07
-4.94
-5.56
-6.05
-6.62
-7.43
-8.50
-9.67
-10.68
-11.30
-11.51
-11.46
-11.46
-11.79
-12.61
-13.90
-15.45
-16.95
-18.01
-18.25
-17.36
-15.23
-12.00
-8.08
-4.03
-0.40
2.45
4.44
5.68
6.41
6.87
7.23
7.58
7.98
8.38
8.70
8.82
8.65
8.18
7.50
6.79
6.24
5.98
6.02
6.26
6.58
6.81
6.84
6.59
6.04
5.25
4.31
3.39
2.59
1.96
1.42
0.88
0.21
-0.61
-1.50
-2.37
-3.15
-3.87
-4.62
-5.49
-6.45
-7.34
-7.95
-8.14
-7.97
-7.72
-7.72
-8.26
-9.39
-10.96
-12.65
-14.12
-15.12
-15.44
-14.96
-13.56
-11.21
-8.03
-4.37
-0.68
2.54
4.98
6.58
7.49
7.99
8.33
8.65
8.94
9.13
9.18
9.12
9.08
9.19
9.55
10.11
10.71
11.16
11.34
11.24
10.98
10.71
10.48
10.26
9.87
9.15
8.04
6.62
5.08
3.63
2.45
1.58
0.94
0.36
-0.35
-1.30
-2.47
-3.67
-4.68
-5.29
-5.50
-5.50
-5.62
-6.21
-7.48
-9.37
-11.61
-13.73
-15.19
-15.51
-14.43
-11.94
-8.35
-4.21
-0.12
3.42
6.12
7.94
9.01
9.53
9.72
9.76
9.74
9.71
9.65
9.47
9.11
8.51
7.75
6.96
6.29
5.88
5.72
5.74
5.77
5.68
5.42
5.00
4.53
4.05
3.55
2.92
2.04
0.85
-0.56
-1.98
-3.19
-4.04
-4.57
-4.96
-5.44
-6.19
-7.20
-8.33
-9.38
-10.19
-10.73
-11.03
-11.18
-11.32
-11.60
-12.19
-13.27
-14.88
-16.85
-18.68
-19.72
-19.34
-17.26
-13.64
-9.07
-4.36
-0.20
2.99
5.12
6.38
7.08
7.49
7.81
8.15
8.51
8.85
9.07
9.06
8.76
8.24
7.61
7.03
6.61
6.39
6.30
6.31
6.34
6.40
6.48
6.49
6.35
5.93
5.16
4.09
2.83
1.55
0.40
-0.56
-1.29
-1.80
-2.13
-2.33
-2.48
-2.67
-2.99
-3.46
-4.05
-4.72
-5.42
-6.12
-6.83
-7.56
-8.32
-9.11
-9.97
-10.96
-12.11
-13.33
-14.39
-14.85
-14.24
-12.24
-8.85
-4.46
0.24
4.55
7.94
10.20
11.46
11.99
12.06
11.82
11.37
10.74
10.06
9.47
9.13
9.07
9.22
9.36
9.28
8.84
8.06
7.12
6.25
5.63
5.36
5.31
5.30
5.10
4.58
3.76
2.78
1.86
1.18
0.77
0.51
0.14
-0.61
-1.86
-3.52
-5.30
-6.82
-7.81
-8.24
-8.28
-8.28
-8.54
-9.25
-10.40
-11.81
-13.21
-14.24
-14.52
-13.74
-11.74
-8.62
-4.73
-0.63
3.12
6.07
8.04
9.09
9.47
9.48
9.42
9.45
9.63
9.89
10.08
10.06
9.73
9.10
8.29
7.48
6.87
6.54
6.50
6.62
6.78
6.88
6.87
6.75
6.49
6.00
5.15
3.87
2.22
0.42
-1.21
-2.39
-3.03
-3.28
-3.40
-3.69
-4.33
-5.33
-6.55
-7.80
-8.92
-9.83
-10.56
-11.25
-12.07
-13.18
-14.59
-16.20
-17.70
-18.67
-18.66
-17.41
-14.85
-11.20
-6.93
-2.57
1.39
4.60
6.91
8.33
9.03
9.24
9.23
9.24
9.38
9.65
9.91
10.00
9.79
9.30
8.63
7.94
7.36
6.93
6.64
6.43
6.28
6.21
6.21
6.26
6.26
6.04
5.44
4.38
2.93
1.31
-0.20
-1.39
-2.22
-2.86
-3.58
-4.60
-5.97
-7.55
-9.07
-10.31
-11.23
-11.91
-12.57
-13.39
-14.45
-15.64
-16.73
-17.48
-17.72
-17.38
-16.49
-15.14
-13.39
-11.28
-8.86
-6.24
-3.62
-1.23
0.66
1.93
2.61
2.85
2.88
2.89
2.98
3.15
3.30
3.33
3.14
2.71
2.08
1.27
0.36
-0.60
-1.51
-2.25
-2.74
-3.00
-3.23
-3.74
-4.83
-6.59
-8.80
-10.97
-12.53
-13.11
-12.70
-11.73
-10.76
-10.27
-10.37
-10.72
-10.76
-9.97
-8.15
-5.51
-2.52
0.36
2.85
4.95
6.87
8.92
11.36
14.30
17.74
21.64
26.03
30.99
36.64
43.06
50.22
57.88
65.46
72.09
76.80
78.84
77.79
73.78
67.30
59.09
49.70
39.24
27.42
14.04
-0.56
-15.19
-28.19
-37.93
-43.41
-44.72
-43.27
-41.14
-40.06
-40.57
-41.94
-42.73
-41.49
-37.10
-29.13
-18.18
-5.68
6.62
16.95
23.61
25.26
21.57
14.31
7.17
4.26
8.33
19.63
35.48
50.95
60.49
58.15
41.62
15.26
-11.78
-31.70
-42.04
-44.88
-43.75
-41.34
-38.49
-34.38
-27.93
-19.41
-10.60
-3.67
0.05
0.83
-0.06
-0.88
0.07
3.65
9.42
15.82
21.16
24.35
25.48
25.20
24.41
23.98
24.41
25.49
26.38
26.09
23.40
18.37
11.20
2.29
-7.68
-17.88
-27.58
-36.37
-42.81
-47.76
-51.76
-55.51
-59.46
-63.70
-67.79
-70.97
-72.71
-72.82
-71.83
-70.36
-69.29
-69.36
-71.05
-74.62
-79.90
-86.20
-91.54
-93.06
-87.41
-72.66
-49.51
-21.55
5.44
27.38
41.73
48.79
50.82
50.74
50.35
49.93
48.83
46.59
43.62
40.78
38.98
38.35
38.27
37.68
35.68
32.03
27.24
22.35
18.18
15.19
13.22
11.79
10.23
7.97
4.79
0.88
-3.22
-6.99
-10.04
-12.31
-13.97
-15.48
-17.30
-19.74
-22.83
-26.30
-29.90
-33.36
-36.60
-39.35
-41.39
-42.41
-42.11
-40.28
-36.89
-32.11
-26.07
-20.08
-14.90
-10.91
-8.08
-6.12
-4.66
-3.38
-2.19
-1.11
-0.34
0.13
0.34
0.37
0.33
0.35
0.47
0.68
0.90
1.00
1.01
0.97
0.95
1.04
1.23
1.39
1.28
0.64
-0.73
-2.75
-5.12
-7.43
-9.35
-10.74
-11.67
-12.38
-13.07
-13.92
-14.97
-16.29
-17.97
-19.96
-22.00
-23.54
-23.80
-22.11
-18.21
-12.38
-5.35
1.90
8.62
14.41
19.24
23.29
26.69
29.41
31.31
32.21
32.02
30.84
28.93
26.63
24.26
22.06
20.05
18.14
16.10
13.75
10.99
7.92
4.82
2.04
-0.15
-1.72
-2.89
-4.08
-5.67
-7.85
-10.58
-13.65
-16.86
-20.08
-23.33
-26.65
-30.05
-33.36
-36.29
-38.44
-39.39
-38.79
-36.28
-31.66
-24.99
-16.68
-7.55
1.33
8.95
14.68
18.43
20.66
22.13
23.61
25.66
28.46
31.86
35.42
38.59
40.84
41.75
41.19
39.32
36.57
33.51
30.67
28.43
26.99
26.35
26.32
26.54
26.49
25.63
23.54
20.09
15.57
10.47
5.40
0.75
-3.28
-6.70
-9.53
-11.79
-13.59
-15.30
-17.50
-20.77
-25.22
-30.20
-34.37
-36.08
-34.20
-28.58
-20.21
-10.81
-2.08
4.90
9.95
13.58
16.52
19.29
22.03
24.77
27.46
30.03
32.46
34.76
36.98
39.11
41.08
42.79
44.22
45.35
46.03
45.99
44.97
42.84
39.65
35.59
30.96
26.60
23.36
21.78
21.86
23.05
24.43
24.94
23.74
20.55
17.05
15.38
17.15
22.78
31.71
42.97
55.61
68.82
81.96
96.86
114.75
135.02
154.92
171.08
181.08
184.13
180.75
172.22
164.00
160.78
164.31
172.80
182.77
191.36
197.23
200.40
201.62
207.01
221.59
246.66
279.22
314.63
349.47
382.21
412.09
406.97
346.95
233.62
91.91
-46.92
-161.79
-245.38
-299.67
-331.24
-348.05
-352.00
-343.67
-324.80
-299.76
-274.07
-252.31
-237.69
-230.32
-229.15
-228.77
-224.65
-215.31
-202.69
-189.69
-177.91
-166.55
-153.53
-137.41
-115.81
-88.36
-57.27
-26.62
1.22
23.71
39.98
50.13
54.40
54.22
51.03
46.02
39.74
32.07
21.84
7.95
-10.21
-32.34
-56.34
-79.17
-97.68
-109.93
-115.71
-117.25
-117.21
-117.70
-119.86
-123.67
-128.55
-133.51
-137.70
-140.67
-143.42
-146.40
-149.04
-150.03
-148.09
-142.86
-134.30
-122.66
-108.35
-93.16
-78.33
-64.25
-50.66
-37.24
-24.64
-13.12
-2.96
12.19
32.79
54.32
71.31
81.86
87.86
90.84
91.98
91.45
89.10
84.04
76.74
68.93
61.26
53.86
43.75
28.41
6.52
-21.59
-54.47
-88.27
-116.88
-134.19
-127.72
-97.86
-53.07
-5.68
33.54
58.56
69.50
71.43
70.86
70.81
69.99
67.52
64.12
62.00
63.62
70.76
84.51
103.93
126.78
147.33
162.36
171.14
174.61
174.19
166.24
149.99
127.61
103.55
