1660928801.00
64.000000
-0.00
-0.00
-0.00
-0.00
-0.00
-0.00
-0.00
-0.00
-0.00
-0.00
0.00
0.01
0.01
-0.00
-0.03
-0.05
-0.05
0.00
0.13
0.36
0.66
1.01
1.37
1.72
2.06
2.40
2.79
3.25
3.81
4.44
5.09
5.73
6.32
6.90
7.53
8.27
9.15
10.25
11.46
12.65
13.74
14.68
15.56
16.58
17.94
19.77
22.26
25.18
28.26
31.21
33.93
36.53
39.38
42.90
47.36
53.08
59.64
66.50
73.15
79.35
85.32
91.62
98.96
107.74
118.29
129.95
141.86
153.26
163.85
174.01
184.56
196.84
209.28
223.72
240.40
259.26
279.29
298.08
311.85
316.37
308.26
286.20
251.89
208.54
160.21
110.35
61.16
13.63
-31.84
-74.95
-115.38
-152.82
-187.97
-222.20
-257.18
-293.87
-331.53
-367.40
-397.02
-415.86
-420.78
-411.53
-390.85
-363.37
-333.85
-305.54
-279.66
-255.82
-233.18
-211.24
-190.34
-171.14
-154.07
-138.93
-124.98
-111.35
-97.54
-83.60
-70.08
-57.74
-47.17
-38.49
-31.33
-25.01
-18.87
-12.53
-6.04
0.19
5.66
9.99
13.13
15.34
17.03
18.58
20.18
21.84
23.41
24.72
25.63
26.08
26.14
25.91
25.54
25.19
24.96
24.82
24.66
24.34
23.77
22.97
22.09
21.29
20.64
20.08
19.45
18.61
17.58
16.54
15.69
15.18
14.94
14.81
14.57
14.13
13.54
12.95
12.50
12.26
12.18
12.21
12.25
12.30
12.34
12.39
12.44
12.50
12.55
12.61
12.65
12.63
12.49
12.20
11.77
11.26
10.74
10.26
9.77
9.19
8.45
7.55
6.60
5.79
5.26
5.04
5.01
4.93
4.61
3.98
3.10
2.17
1.35
0.74
0.33
0.03
-0.23
-0.48
-0.74
-0.98
-1.24
-1.55
-1.94
-2.37
-2.77
-3.07
-3.22
-3.27
-3.31
-3.45
-3.79
-4.34
-5.09
-5.96
-6.85
-7.63
-8.16
-8.33
-8.11
-7.62
-7.04
-6.61
-6.45
-6.58
-6.84
-7.09
-7.21
-7.17
-7.01
-6.76
-6.38
-5.85
-5.12
-4.25
-3.36
-2.58
-2.00
-1.63
-1.39
-1.18
-0.91
-0.53
-0.05
0.49
1.03
1.48
1.80
1.96
1.99
1.96
1.93
1.95
2.03
2.16
2.35
2.64
3.03
3.49
3.90
4.13
4.05
3.66
3.06
2.43
1.95
1.68
1.56
1.46
1.24
0.85
0.35
-0.15
-0.54
-0.76
-0.83
-0.79
-0.69
-0.54
-0.30
0.04
0.46
0.92
1.29
1.41
1.17
0.54
-0.39
-1.45
-2.41
-3.18
-3.74
-4.24
-4.90
-5.90
-7.33
-9.21
-11.48
-14.06
-16.85
-19.73
-22.48
-24.93
-27.07
-29.11
-31.51
-34.75
-39.05
-44.13
-49.29
-53.67
-56.68
-58.34
-59.26
-60.37
-62.35
-65.34
-68.86
-72.22
-74.89
-76.80
-78.31
-79.90
-81.96
-84.85
-89.16
-95.75
-105.17
-116.71
-127.57
-133.15
-128.58
-110.87
-80.47
-41.41
0.29
38.93
70.80
94.51
110.12
118.18
119.40
115.42
109.31
105.30
107.32
117.09
133.07
151.16
166.62
176.24
179.51
178.28
175.29
172.81
171.68
171.54
171.67
171.66
171.82
173.14
176.77
183.30
191.95
200.17
204.08
199.83
185.17
160.73
130.05
98.26
70.20
48.73
34.21
25.18
19.45
14.91
9.68
1.87
-10.46
-28.67
-52.71
-80.46
-108.06
-131.17
-146.46
-152.66
-150.70
-142.99
-132.33
-120.94
-110.21
-100.71
-92.55
-85.58
-79.49
-73.86
-68.22
-62.16
-55.52
-48.41
-41.18
-34.30
-28.16
-22.89
-18.36
-14.25
-10.26
-6.34
-2.94
-0.83
-0.82
-3.31
-8.02
-13.97
-19.75
-24.04
-26.06
-25.73
-23.62
-20.66
-17.79
-15.66
-14.56
-14.42
-14.90
-15.61
-16.20
-16.50
-16.46
-16.12
-15.53
-14.70
-13.64
-12.41
-11.17
-10.10
-9.38
-9.06
-9.02
-9.06
-8.94
-8.52
-7.79
-6.86
-5.84
-4.77
-3.61
-2.29
-0.83
0.65
1.94
2.84
3.24
3.17
2.76
2.15
1.42
0.63
-0.16
-0.83
-1.21
-1.16
-0.70
-0.00
0.66
1.05
1.04
0.70
0.21
-0.25
-0.53
-0.61
-0.51
-0.30
-0.03
0.25
0.45
0.51
0.39
0.10
-0.24
-0.46
-0.42
-0.08
0.50
1.15
1.65
1.83
1.59
0.99
0.17
-0.64
-1.24
-1.56
-1.60
-1.45
-1.21
-0.94
-0.65
-0.32
0.02
0.28
0.37
0.28
0.07
-0.10
-0.06
0.28
0.85
1.50
2.04
2.32
2.30
2.03
1.61
1.12
0.63
0.19
-0.15
-0.36
-0.40
-0.30
-0.13
-0.00
-0.01
-0.20
-0.50
-0.80
-1.01
-1.06
-0.97
-0.79
-0.55
-0.27
0.05
0.40
0.74
0.95
0.96
0.71
0.30
-0.11
-0.38
-0.41
-0.25
-0.03
0.13
0.16
0.09
0.01
0.02
0.11
0.24
0.36
0.42
0.42
0.40
0.39
0.40
0.40
0.39
0.38
0.39
0.45
0.56
0.66
0.69
0.64
0.52
0.41
0.34
0.31
0.29
0.25
0.20
0.19
0.24
0.35
0.42
0.34
0.04
-0.45
-0.98
-1.40
-1.56
-1.46
-1.14
-0.74
-0.32
0.07
0.42
0.73
0.96
1.07
0.98
0.69
0.26
-0.20
-0.57
-0.78
-0.81
-0.71
-0.53
-0.31
-0.07
0.17
0.36
0.44
0.35
0.05
-0.41
-0.93
-1.37
-1.61
-1.60
-1.37
-1.01
-0.66
-0.43
-0.40
-0.59
-0.90
-1.22
-1.45
-1.53
-1.49
-1.40
-1.37
-1.42
-1.53
-1.65
-1.75
-1.85
-2.02
-2.30
-2.69
-3.09
-3.37
-3.45
-3.36
-3.19
-3.12
-3.25
-3.59
-4.04
-4.50
-4.83
-4.98
-4.95
-4.79
-4.56
-4.35
-4.22
-4.15
-4.08
-3.93
-3.66
-3.30
-2.92
-2.61
-2.41
-2.28
-2.15
-1.97
-1.73
-1.44
-1.11
-0.72
-0.24
0.32
0.88
1.27
1.35
1.05
0.43
-0.32
-1.02
-1.54
-1.92
-2.33
-3.00
-4.11
-5.67
-7.43
-9.03
-10.07
-10.37
-10.08
-9.71
-9.95
-11.40
-14.28
-18.25
-22.52
-26.10
-28.30
-29.04
-28.99
-29.17
-30.58
-33.68
-38.24
-43.62
-49.07
-53.89
-57.37
-58.69
-57.05
-52.11
-44.58
-36.24
-29.17
-24.46
-21.21
-16.64
-7.50
7.89
28.29
49.78
67.46
77.78
80.07
76.43
70.23
64.31
59.86
56.51
53.30
49.67
45.94
42.95
41.40
41.30
41.95
42.34
41.75
40.13
38.03
36.31
35.54
35.78
36.54
37.11
37.05
36.44
35.83
35.90
37.06
39.14
41.51
43.43
44.44
44.63
44.67
45.51
48.00
52.61
59.13
66.36
72.05
73.16
66.82
51.50
28.16
0.34
-26.78
-48.27
-61.22
-65.58
-63.69
-58.83
-53.67
-49.46
-46.16
-43.32
-40.69
-38.55
-37.31
-37.07
-37.34
-37.25
-36.00
-33.24
-29.26
-24.91
-21.16
-18.68
-17.62
-17.50
-17.52
-16.86
-15.13
-12.43
-9.38
-6.73
-5.10
-4.66
-5.13
-5.94
-6.55
-6.65
-6.30
-5.76
-5.38
-5.34
-5.66
-6.22
-6.88
-7.50
-8.00
-8.32
-8.37
-8.15
-7.68
-7.08
-6.52
-6.10
-5.89
-5.85
-5.94
-6.11
-6.33
-6.56
-6.70
-6.64
-6.30
-5.67
-4.87
-4.09
-3.54
-3.36
-3.55
-4.02
-4.66
-5.34
-5.99
-6.55
-6.98
-7.22
-7.21
-6.94
-6.45
-5.83
-5.14
-4.43
-3.68
-2.84
-1.92
-0.98
-0.14
0.53
1.04
1.54
2.20
3.17
4.42
5.70
6.67
7.04
6.72
5.94
5.10
4.62
4.66
5.02
5.24
4.76
3.31
1.01
-1.55
-3.63
-4.66
-4.59
-3.95
-3.64
-4.57
-7.12
-10.95
-15.03
-18.06
-19.10
-18.03
-15.79
-14.01
-14.30
-17.51
-23.16
-29.65
-34.83
-36.96
-35.55
-31.53
-27.08
-24.89
-27.33
-35.64
-49.11
-64.56
-76.54
-78.38
-64.45
-32.64
13.91
66.79
114.40
145.53
152.94
135.54
98.36
50.30
0.97
-42.15
-75.24
-97.95
-112.18
-120.49
-125.11
-127.49
-128.59
-129.28
-130.55
-133.42
-138.83
-147.24
-158.51
-171.60
-184.40
-193.88
-196.57
-189.50
-171.14
-141.59
-102.32
-55.44
-3.30
51.42
105.24
153.78
192.42
217.81
229.26
229.29
222.84
215.38
211.01
211.42
216.03
223.07
230.70
237.87
244.38
250.49
256.46
262.16
267.08
270.62
272.52
272.98
272.38
270.60
266.60
258.29
243.22
219.54
186.86
146.28
99.76
49.31
-3.30
-56.18
-106.62
-150.84
-184.76
-205.44
-212.44
-208.25
-197.23
-183.89
-171.31
-160.55
-151.15
-142.24
-133.39
-124.87
-117.19
-110.59
-104.70
-98.77
-92.11
-84.48
-76.25
-68.23
-61.30
-55.98
-52.23
-49.53
-47.11
-44.29
-40.75
-36.66
-32.48
-28.74
-25.73
-23.40
-21.41
-19.36
-16.99
-14.34
-11.67
-9.34
-7.62
-6.54
-5.93
-5.45
-4.81
-3.90
-2.77
-1.64
-0.76
-0.26
-0.13
-0.23
-0.38
-0.44
-0.42
-0.39
-0.42
-0.52
-0.66
-0.79
-0.91
-1.08
-1.34
-1.67
-1.99
-2.17
-2.13
-1.86
-1.43
-0.96
-0.54
-0.20
0.07
0.25
0.31
0.19
-0.19
-0.87
-1.78
-2.76
-3.61
-4.10
-4.11
-3.66
-2.89
-2.01
-1.22
-0.68
-0.41
-0.36
-0.44
-0.57
-0.73
-0.93
-1.20
-1.54
-1.90
-2.15
-2.17
-1.91
-1.42
-0.82
-0.25
0.19
0.49
0.68
0.81
0.88
0.85
0.67
0.36
-0.03
-0.42
-0.73
-0.93
-1.02
-0.99
-0.86
-0.62
-0.31
0.01
0.24
0.36
0.36
0.26
0.07
-0.19
-0.54
-0.93
-1.27
-1.42
-1.26
-0.78
-0.12
0.54
1.01
1.23
1.22
1.13
1.07
1.07
1.09
1.01
0.74
0.30
-0.27
-0.84
-1.33
-1.69
-1.91
-2.01
-2.00
-1.85
-1.58
-1.24
-0.93
-0.74
-0.70
-0.74
-0.71
-0.44
0.13
0.93
1.73
2.27
2.35
1.89
1.00
-0.11
-1.18
-2.01
-2.45
-2.50
-2.18
-1.57
-0.75
0.19
1.14
1.95
2.50
2.67
2.47
2.00
1.39
0.80
0.31
-0.04
-0.25
-0.37
-0.39
-0.35
-0.28
-0.20
-0.15
-0.10
-0.03
0.09
0.27
0.48
0.67
0.81
0.88
0.91
0.91
0.88
0.81
0.68
0.45
0.11
-0.32
-0.78
-1.21
-1.50
-1.56
-1.35
-0.88
-0.26
0.38
0.90
1.21
1.26
1.09
0.76
0.33
-0.15
-0.62
-1.01
-1.25
-1.32
-1.24
-1.11
-1.06
-1.19
-1.52
-1.95
-2.32
-2.47
-2.32
-1.90
-1.34
-0.77
-0.30
0.06
0.40
0.82
1.39
2.10
2.83
3.39
3.63
3.44
2.83
1.90
0.83
-0.22
-1.04
-1.54
-1.62
-1.29
-0.64
0.13
0.81
1.17
1.12
0.69
0.07
-0.50
-0.85
-0.92
-0.82
-0.68
-0.64
-0.69
-0.76
-0.79
-0.73
-0.66
-0.64
-0.70
-0.76
-0.66
-0.27
0.47
1.42
2.36
3.03
3.25
2.95
2.22
1.22
0.19
-0.66
-1.20
-1.37
-1.25
-0.98
-0.73
-0.61
-0.64
-0.76
-0.86
-0.87
-0.72
-0.44
-0.06
0.38
0.81
1.16
1.34
1.29
0.98
0.43
-0.28
-1.06
-1.77
-2.26
-2.42
-2.22
-1.73
-1.09
-0.52
-0.18
-0.11
-0.26
-0.46
-0.54
-0.39
0.02
0.63
1.30
1.86
2.14
2.06
1.60
0.87
0.08
-0.57
-0.90
-0.87
-0.52
0.05
0.68
1.25
1.66
1.83
1.74
1.39
0.85
0.25
-0.28
-0.61
-0.68
-0.53
-0.25
0.01
0.19
0.24
0.20
0.11
0.01
-0.08
-0.15
-0.18
-0.19
-0.16
-0.12
-0.10
-0.12
-0.19
-0.26
-0.29
-0.20
-0.01
0.23
0.37
0.31
0.00
-0.50
-1.03
-1.40
-1.44
-1.10
-0.48
0.26
0.91
1.32
1.45
1.39
1.23
1.07
0.91
0.72
0.45
0.13
-0.15
-0.26
-0.10
0.25
0.62
0.76
0.51
-0.10
-0.87
-1.55
-1.90
-1.85
-1.45
-0.84
-0.17
0.47
1.00
1.38
1.57
1.52
1.19
0.62
-0.12
-0.92
-1.60
-2.03
-2.12
-1.83
-1.25
-0.54
0.13
0.60
0.77
0.63
0.26
-0.22
-0.68
-1.01
-1.12
-0.98
-0.63
-0.18
0.23
0.44
0.39
0.13
-0.21
-0.48
-0.55
-0.41
-0.13
0.17
0.40
0.50
0.47
0.33
0.12
-0.13
-0.42
-0.71
-1.02
-1.38
-1.86
-2.51
-3.34
-4.27
-5.20
-6.00
-6.58
-6.94
-7.13
-7.23
-7.32
-7.51
-7.83
-8.31
-8.93
-9.61
-10.27
-10.86
-11.38
-11.94
-12.69
-13.75
-15.17
-16.86
-18.63
-20.23
-21.52
-22.54
-23.50
-24.76
-26.68
-29.46
-33.05
-37.14
-41.32
-45.24
-48.77
-52.10
-55.66
-59.91
-65.14
-71.29
-77.94
-84.50
-90.46
-95.61
-100.18
-104.69
-109.76
-115.92
-123.54
-132.84
-143.76
-155.61
-166.69
-174.25
-174.95
-165.84
-145.34
-113.74
-72.77
-24.74
28.13
83.74
139.48
191.73
236.01
268.24
286.28
291.03
286.26
277.11
268.31
262.80
261.35
262.91
265.26
265.70
261.45
250.13
230.46
202.83
169.54
134.44
101.95
76.11
59.90
54.92
61.32
77.66
100.64
125.07
144.51
152.62
144.80
119.41
78.13
25.35
-32.93
-90.35
-141.14
-180.89
-206.98
-219.10
-219.31
-211.64
-200.90
-191.20
-184.46
-179.59
-172.79
-159.02
-134.04
-96.33
-47.76
6.85
61.38
109.97
148.06
172.38
180.41
170.34
141.98
98.07
45.04
-8.05
-52.10
-81.27
-94.77
-96.38
-91.83
-85.71
-79.81
-73.49
-65.57
-56.02
-46.53
-39.48
-36.36
-36.78
-38.68
-39.64
-38.19
-34.41
-29.60
-25.38
-22.79
-21.86
-21.86
-21.77
-20.89
-19.09
-16.87
-15.11
-14.58
-15.53
-17.54
-19.62
-20.73
-20.22
-18.11
-15.04
-11.88
-9.36
-7.81
-7.16
-7.13
-7.42
-7.82
-8.16
-8.31
-8.12
-7.54
-6.60
-5.47
-4.38
-3.41
-2.50
-1.44
-0.13
1.33
2.59
3.27
3.18
2.51
1.70
1.21
1.29
1.83
2.47
2.83
2.71
2.18
1.43
0.69
0.09
-0.35
-0.60
-0.59
-0.18
0.77
2.27
4.14
6.07
7.68
8.69
8.99
8.64
7.83
6.77
5.61
4.44
3.28
2.18
1.18
0.32
-0.39
-1.00
-1.61
-2.32
-3.21
-4.23
-5.21
-5.93
-6.23
-6.14
-5.93
-5.97
-6.57
-7.75
-9.24
-10.58
-11.37
-11.55
-11.45
-11.64
-12.63
-14.60
-17.30
-20.17
-22.62
-24.33
-25.43
-26.45
-28.08
-30.89
-35.04
-40.16
-45.54
-50.40
-54.27
-57.28
-60.14
-63.81
-69.05
-76.00
-84.14
-92.56
-100.41
-107.15
-112.58
-116.62
-119.13
-120.16
-120.28
-120.86
-123.67
-129.89
-138.94
-147.93
-152.33
-147.48
-130.43
-100.93
-61.08
-13.93
37.98
93.12
150.31
207.56
261.34
307.20
341.32
362.19
371.36
372.88
371.52
370.91
372.27
374.20
373.51
366.63
350.93
325.44
290.92
249.19
202.08
150.81
95.97
38.36
-19.89
-74.77
-121.11
-154.28
-172.18
-176.19
-170.62
-160.82
-151.01
-143.07
-136.64
-130.25
-122.80
-114.33
-105.82
-98.43
-92.70
-88.23
-84.00
-78.99
-72.74
-65.58
-58.38
-52.10
-47.27
-43.82
-41.17
-38.57
-35.49
-31.87
-28.13
-24.89
-22.66
-21.56
-21.29
-21.27
-20.90
-19.83
-18.04
-15.83
-13.56
-11.55
-9.88
-8.50
-7.30
-6.18
-5.16
-4.30
-3.67
-3.29
-3.11
-3.07
-3.06
-2.99
-2.84
-2.62
-2.42
-2.34
-2.45
-2.73
-3.07
-3.35
-3.47
-3.44
-3.35
-3.28
-3.28
-3.30
-3.23
-3.00
-2.67
-2.34
-2.15
-2.18
-2.39
-2.66
-2.85
-2.87
-2.72
-2.49
-2.28
-2.15
-2.07
-1.95
-1.73
-1.37
-0.93
-0.51
-0.16
0.11
0.34
0.59
0.86
1.10
1.19
1.06
0.70
0.22
-0.22
-0.48
-0.46
-0.17
0.29
0.75
1.08
1.18
1.05
0.78
0.47
0.25
0.16
0.18
0.25
0.35
0.47
0.64
0.86
1.09
1.22
1.17
0.87
0.39
-0.16
-0.60
-0.83
-0.81
-0.63
-0.41
-0.27
-0.30
-0.49
-0.80
-1.14
-1.46
-1.71
-1.85
-1.83
-1.61
-1.20
-0.71
-0.30
-0.17
-0.40
-0.98
-1.71
-2.34
-2.64
-2.52
-2.04
-1.35
-0.62
0.03
0.57
1.04
1.44
1.74
1.86
1.73
1.35
0.86
0.42
0.22
0.31
0.60
0.93
1.14
1.20
1.21
1.30
1.58
2.01
2.46
2.78
2.93
2.95
2.96
3.04
3.15
3.19
3.06
2.67
2.07
1.35
0.63
0.01
-0.46
-0.74
-0.88
-0.92
-0.96
-1.03
-1.14
-1.22
-1.17
-0.90
-0.42
0.17
0.70
1.01
1.02
0.69
0.04
-0.87
-1.96
-3.07
-4.06
-4.76
-5.07
-5.02
-4.71
-4.30
-3.94
-3.62
-3.26
-2.71
-1.85
-0.71
0.55
1.64
2.30
2.36
1.86
1.03
0.16
-0.48
-0.76
-0.67
-0.31
0.21
0.77
1.28
1.62
1.70
1.48
1.01
0.39
-0.23
-0.73
-1.02
-1.09
-0.94
-0.60
-0.13
0.37
0.77
0.99
0.99
0.85
0.69
0.66
0.79
1.05
1.36
1.61
1.75
1.77
1.71
1.65
1.64
1.72
1.87
2.02
2.06
1.90
1.54
1.01
0.42
-0.14
-0.59
-0.90
-1.10
-1.21
-1.24
-1.21
-1.09
-0.86
-0.58
-0.30
-0.12
-0.13
-0.39
-0.95
-1.72
-2.58
-3.33
-3.76
-3.75
-3.30
-2.58
-1.87
-1.42
-1.37
-1.67
-2.12
-2.45
-2.44
-1.97
-1.06
0.17
1.54
2.83
3.84
4.39
4.38
3.81
2.77
1.49
0.23
-0.77
-1.34
-1.47
-1.29
-0.97
-0.68
-0.45
-0.26
-0.06
0.16
0.31
0.31
0.12
-0.15
-0.34
