1660325810.00
64.000000
-0.00
-0.00
-0.00
-0.00
-0.00
-0.00
-0.00
-0.00
-0.00
-0.00
0.00
0.01
0.01
-0.00
-0.03
-0.05
-0.05
0.00
0.13
0.36
0.66
1.01
1.37
1.72
2.06
2.40
2.79
3.24
3.80
4.42
5.06
5.66
6.20
6.68
7.15
7.68
8.31
9.14
10.09
11.04
11.88
12.56
13.14
13.76
14.65
15.96
17.91
20.32
22.90
25.38
27.58
29.57
31.68
34.32
37.81
42.54
48.15
54.10
59.83
64.97
69.58
74.14
79.34
85.71
93.76
103.00
112.62
121.73
129.77
136.75
143.30
150.75
157.77
166.64
177.95
191.79
206.97
220.57
228.25
225.36
208.53
176.87
132.76
80.05
23.07
-34.94
-92.44
-149.16
-205.23
-260.37
-313.74
-363.87
-409.83
-450.91
-486.50
-515.74
-537.23
-549.22
-549.96
-538.37
-514.21
-478.67
-433.88
-382.45
-327.02
-269.84
-212.63
-156.66
-102.95
-52.37
-5.90
35.58
71.43
101.35
125.50
144.38
158.69
169.15
176.37
180.75
182.57
182.07
179.51
175.23
169.65
163.18
156.15
148.81
141.30
133.69
126.02
118.33
110.69
103.16
95.80
88.68
81.83
75.25
68.95
62.95
57.25
51.86
46.78
42.03
37.59
33.45
29.61
26.07
22.81
19.84
17.14
14.70
12.51
10.53
8.75
7.17
5.79
4.63
3.67
2.90
2.29
1.78
1.33
0.92
0.55
0.24
-0.01
-0.16
-0.24
-0.28
-0.33
-0.45
-0.64
-0.90
-1.14
-1.29
-1.30
-1.19
-1.05
-1.00
-1.17
-1.59
-2.20
-2.81
-3.22
-3.31
-3.11
-2.80
-2.67
-2.99
-3.84
-5.07
-6.34
-7.25
-7.54
-7.24
-6.67
-6.34
-6.70
-7.90
-9.73
-11.64
-13.06
-13.62
-13.30
-12.48
-11.69
-11.48
-12.24
-14.20
-17.34
-21.15
-24.47
-25.53
-22.52
-14.40
-1.64
13.63
28.26
39.29
45.13
45.96
43.34
39.28
35.23
31.79
28.90
26.42
24.50
23.55
24.00
25.78
28.24
30.36
31.04
29.64
26.15
21.27
15.80
10.54
5.94
1.99
-1.58
-5.09
-8.72
-12.35
-15.77
-18.68
-20.77
-21.72
-21.24
-19.19
-15.68
-11.15
-6.37
-2.18
0.73
2.04
1.82
0.44
-1.66
-4.11
-6.65
-9.10
-11.25
-12.82
-13.53
-13.16
-11.76
-9.64
-7.33
-5.45
-4.40
-4.29
-4.86
-5.61
-6.07
-5.92
-5.21
-4.20
-3.32
-2.92
-3.20
-4.08
-5.19
-5.99
-5.87
-4.33
-1.15
3.51
9.08
14.70
19.46
22.64
23.85
23.18
20.99
17.78
14.00
9.92
5.78
1.79
-1.59
-3.93
-5.05
-5.10
-4.64
-4.34
-4.76
-6.07
-8.01
-10.07
-11.77
-12.92
-13.64
-14.35
-15.50
-17.43
-20.25
-23.80
-27.63
-31.02
-33.11
-33.02
-30.09
-24.12
-15.49
-5.16
5.56
15.36
23.18
28.44
31.03
31.21
29.46
26.28
22.23
17.80
13.46
9.56
6.35
3.87
2.04
0.64
-0.55
-1.69
-2.81
-3.91
-4.92
-5.86
-6.83
-7.99
-9.62
-11.95
-15.15
-19.14
-23.49
-27.35
-29.55
-28.96
-24.90
-17.48
-7.63
3.11
13.18
21.38
27.19
30.64
32.11
32.02
30.69
28.39
25.42
22.18
19.10
16.52
14.56
13.03
11.54
9.63
6.94
3.42
-0.69
-4.88
-8.63
-11.61
-13.83
-15.63
-17.65
-20.47
-24.38
-29.24
-34.36
-38.67
-40.97
-40.30
-36.18
-28.77
-18.86
-7.65
3.49
13.37
21.12
26.32
28.89
29.09
27.34
24.19
20.22
16.08
12.36
9.53
7.85
7.32
7.63
8.27
8.67
8.39
7.22
5.22
2.63
-0.30
-3.42
-6.73
-10.33
-14.31
-18.62
-23.00
-26.91
-29.62
-30.34
-28.48
-23.86
-16.83
-8.22
0.89
9.39
16.44
21.51
24.38
25.05
23.73
20.84
17.09
13.29
10.31
8.74
8.72
9.97
11.83
13.57
14.53
14.32
12.83
10.25
6.96
3.39
-0.08
-3.28
-6.25
-9.23
-12.47
-16.01
-19.44
-21.95
-22.42
-19.87
-13.93
-5.10
5.28
15.43
23.70
29.06
31.34
31.11
29.32
26.86
24.40
22.23
20.40
18.81
17.28
15.61
13.56
10.87
7.36
2.94
-2.30
-8.16
-14.31
-20.36
-25.97
-30.82
-34.66
-37.30
-38.56
-38.19
-35.92
-31.48
-24.73
-15.87
-5.47
5.49
15.81
24.38
30.41
33.54
33.88
31.78
27.68
22.04
15.32
8.09
1.00
-5.34
-10.57
-14.67
-17.97
-20.98
-24.08
-27.33
-30.42
-32.82
-34.04
-33.91
-32.62
-30.64
-28.45
-26.27
-23.87
-20.64
-15.86
-9.08
-0.44
9.33
19.06
27.56
34.05
38.29
40.51
41.17
40.67
39.28
37.10
34.30
31.14
28.02
25.36
23.42
22.17
21.28
20.27
18.68
16.32
13.32
10.09
7.12
4.67
2.61
0.48
-2.34
-6.16
-10.74
-15.13
-17.92
-17.79
-13.94
-6.54
3.32
13.99
23.75
31.26
35.82
37.36
36.23
32.98
28.25
22.60
16.54
10.44
4.56
-0.97
-6.08
-10.76
-15.01
-18.91
-22.56
-26.14
-29.79
-33.61
-37.60
-41.64
-45.48
-48.59
-50.16
-49.19
-44.81
-36.69
-25.30
-11.92
1.69
13.85
23.33
29.53
32.39
32.15
29.25
24.34
18.27
12.04
6.54
2.30
-0.63
-2.58
-3.93
-4.88
-5.37
-5.24
-4.46
-3.27
-2.17
-1.74
-2.47
-4.55
-7.80
-11.62
-15.02
-16.78
-15.83
-11.55
-4.16
5.25
15.09
23.73
30.00
33.45
34.26
32.94
30.09
26.20
21.59
16.51
11.13
5.66
0.31
-4.68
-9.17
-13.11
-16.61
-19.84
-22.96
-26.03
-28.96
-31.59
-33.77
-35.34
-36.10
-35.69
-33.71
-29.89
-24.29
-17.46
-10.30
-3.76
1.46
5.05
7.02
7.52
6.66
4.55
1.37
-2.54
-6.67
-10.41
-13.23
-14.83
-15.15
-14.37
-12.80
-10.84
-8.92
-7.52
-7.14
-8.19
-10.88
-14.92
-19.47
-23.20
-24.62
-22.62
-16.89
-8.01
2.67
13.48
22.88
29.71
33.38
33.81
31.36
26.69
20.62
13.97
7.35
1.19
-4.32
-9.08
-12.92
-15.69
-17.25
-17.67
-17.24
-16.45
-15.88
-16.09
-17.44
-19.96
-23.13
-25.91
-26.91
-24.91
-19.31
-10.51
0.19
11.06
20.59
27.96
33.11
36.51
38.64
39.77
39.96
39.23
37.77
35.98
34.31
32.99
31.98
30.99
29.65
27.67
24.82
20.88
15.62
8.84
0.68
-8.18
-16.43
-22.42
-24.66
-22.35
-15.75
-6.09
4.78
15.03
23.19
28.48
30.70
30.09
27.15
22.47
16.74
10.71
5.11
0.56
-2.53
-4.11
-4.44
-4.06
-3.62
-3.79
-5.13
-8.03
-12.63
-18.76
-25.76
-32.47
-37.40
-39.08
-36.60
-29.96
-20.14
-8.74
2.55
12.50
20.52
26.54
30.68
33.08
33.74
32.72
30.28
26.86
22.96
18.97
15.00
10.87
6.24
0.81
-5.50
-12.45
-19.58
-26.47
-32.97
-39.24
-45.63
-52.22
-58.53
-63.45
-65.67
-64.28
-59.40
-52.25
-44.78
-38.88
-35.64
-35.04
-36.19
-37.86
-39.07
-39.32
-38.55
-36.96
-34.79
-32.28
-29.74
-27.57
-26.15
-25.72
-26.21
-27.26
-28.41
-29.29
-29.80
-30.06
-30.30
-30.49
-30.25
-28.82
-25.37
-19.38
-11.05
-1.34
8.27
16.31
21.82
24.59
25.00
23.62
20.89
17.07
12.34
7.12
2.10
-1.94
-4.53
-5.73
-6.17
-6.70
-8.03
-10.41
-13.58
-16.98
-20.07
-22.59
-24.65
-26.57
-28.60
-30.53
-31.54
-30.36
-25.69
-16.88
-4.29
10.61
25.78
39.25
49.87
57.52
62.92
67.12
70.93
74.48
77.09
77.44
73.91
65.20
50.94
32.19
11.51
-7.60
-21.77
-28.87
-28.80
-23.32
-15.20
-7.03
-0.29
4.87
9.23
13.85
19.49
26.43
34.68
44.24
55.26
67.86
81.93
96.86
111.49
124.30
133.80
139.05
139.94
137.29
132.51
127.18
122.60
119.62
118.79
120.42
124.58
130.87
138.15
144.58
148.06
146.93
140.54
129.45
115.21
99.62
84.48
71.32
61.29
54.89
51.90
51.45
52.42
53.90
55.28
56.40
57.32
57.80
57.17
54.44
48.92
40.54
29.92
17.58
3.79
-11.44
-28.38
-47.64
-70.06
-96.52
-127.51
-162.60
-201.16
-240.91
-277.73
-306.61
-323.30
-325.59
-313.55
-288.94
-254.38
-214.96
-175.25
-138.24
-105.28
-77.46
-56.43
-43.81
-40.09
-44.04
-56.44
-76.64
-101.61
-126.65
-147.71
-163.02
-172.59
-177.12
-177.56
-179.93
-190.00
-210.53
-240.07
-274.96
-311.47
-346.39
-376.96
-372.91
-317.08
-215.46
-95.17
16.01
104.12
168.00
212.50
243.48
265.51
277.24
277.13
266.53
250.42
234.44
222.27
215.18
212.93
214.18
214.15
208.81
197.11
181.37
165.05
150.52
138.76
129.71
122.21
113.11
99.55
80.57
57.52
32.91
9.07
-12.26
-28.09
-38.75
-46.02
-51.88
-57.72
-63.97
-70.61
-77.74
-85.26
-92.32
-97.08
-96.82
-89.00
-72.66
-49.37
-23.29
0.27
16.98
25.29
26.48
23.83
20.55
18.18
16.37
13.76
9.22
2.59
-5.19
-12.65
-18.13
-20.26
-18.09
-11.45
-0.94
11.87
24.48
33.95
37.63
34.23
24.24
9.89
-5.75
-19.66
-29.88
-35.80
-38.17
-37.98
-36.18
-33.47
-29.71
-24.61
-17.97
-9.94
-1.11
7.59
15.09
20.45
23.24
23.56
21.98
19.39
16.82
15.36
16.06
19.81
26.87
36.17
45.16
50.29
48.38
38.44
22.60
5.59
-7.41
-13.30
-12.49
-8.31
-4.73
-3.79
-4.38
-3.14
3.04
14.69
28.93
40.87
46.11
43.06
33.34
20.63
8.66
-0.54
-7.03
-12.14
-17.07
-21.88
-25.33
-25.69
-21.78
-13.64
-2.58
9.35
19.98
27.57
31.09
30.48
26.56
20.98
15.96
13.86
16.43
24.21
36.15
48.25
55.64
53.10
36.50
4.46
-40.59
-92.20
-141.32
-178.81
-198.34
-198.24
-181.89
-156.07
-128.06
-103.13
-83.29
-67.77
-54.57
-42.00
-29.29
-16.57
-4.26
7.32
17.96
27.10
33.68
36.40
34.23
27.11
15.92
2.20
-12.42
-26.43
-38.55
-47.54
-52.28
-52.07
-47.26
-39.87
-33.76
-33.77
-44.11
-66.38
-98.25
-133.50
-163.71
-181.03
-180.72
-162.29
-128.85
-85.36
-36.99
11.65
56.20
92.09
114.93
121.74
112.64
91.61
65.46
41.48
24.78
16.83
15.73
18.04
20.77
22.54
23.48
24.28
25.22
25.89
25.69
24.58
23.77
25.42
31.56
42.73
57.03
70.28
77.39
74.45
60.58
38.71
14.74
-4.47
-13.71
-11.19
1.02
18.17
34.81
46.66
51.66
49.89
42.79
32.32
20.59
9.71
1.81
-1.32
1.20
8.76
19.14
29.07
35.27
35.45
28.89
16.64
1.23
-13.74
-24.31
-27.18
-20.94
-6.85
11.06
27.12
35.93
34.17
21.69
1.23
-22.73
-45.44
-62.94
-72.67
-73.57
-66.03
-51.72
-33.16
-13.18
5.72
21.75
33.85
41.40
43.95
41.27
33.69
22.38
9.23
-3.61
-14.34
-21.78
-25.27
-24.28
-18.20
-6.59
10.31
31.28
54.29
77.37
99.50
120.98
142.70
164.72
184.99
199.35
203.01
192.78
169.02
136.01
100.49
69.23
46.66
33.71
28.22
26.52
25.10
21.77
15.91
7.95
-1.38
-11.61
-22.66
-34.58
-47.21
-59.83
-71.13
-79.55
-83.61
-82.42
-75.82
-64.38
-49.34
-32.44
-15.60
-0.62
11.33
19.81
24.88
26.54
24.15
16.50
2.34
-18.61
-45.09
-74.23
-102.41
-126.16
-142.87
-150.91
-149.37
-138.01
-117.53
-90.12
-59.59
-30.85
-8.53
4.49
7.96
4.12
-3.44
-11.30
-17.20
-20.24
-20.35
-17.42
-10.82
0.43
16.98
38.40
62.86
87.46
109.22
126.21
138.24
146.87
154.71
164.34
177.14
192.64
208.30
219.96
222.83
212.79
187.78
148.78
100.03
48.15
0.52
-36.77
-60.46
-70.64
-70.01
-62.45
-51.54
-39.77
-28.50
-18.49
-10.28
-4.26
-0.42
1.87
3.67
5.97
9.09
12.49
15.18
16.40
16.15
15.11
14.10
13.47
12.88
11.86
10.54
10.22
12.97
20.46
32.52
46.28
56.69
58.18
47.04
23.16
-9.47
-43.98
-72.92
-90.61
-94.65
-86.05
-68.20
-45.33
-21.26
1.09
19.67
32.98
40.04
40.64
35.68
27.11
17.35
8.31
0.66
-6.17
-13.30
-21.32
-29.56
-36.28
-39.55
-38.37
-33.29
-26.05
-18.45
-11.12
-2.97
8.22
24.44
45.94
70.41
93.32
109.24
113.47
103.59
80.03
46.08
7.05
-30.79
-61.52
-80.65
-86.19
-78.99
-62.52
-41.80
-21.96
-6.85
1.79
4.34
2.73
-0.57
-3.47
-4.84
-4.76
-4.29
-4.98
-8.33
-15.05
-24.74
-35.80
-45.99
-53.10
-55.70
-53.43
-47.01
-37.85
-27.66
-18.13
-10.84
-7.22
-8.54
-15.60
-28.63
-46.97
-68.88
-91.52
-111.21
-124.03
-126.75
-117.66
-97.20
-68.22
-35.44
-4.35
20.25
35.43
40.81
38.34
31.55
24.59
20.87
22.04
27.84
36.45
45.39
52.35
55.53
53.81
47.42
36.89
23.06
7.25
-8.21
-19.88
-23.86
-17.24
0.57
28.74
63.49
98.88
128.41
146.97
152.23
144.64
126.09
99.37
70.39
45.25
29.06
25.00
33.55
53.03
79.99
109.22
135.85
160.36
185.12
212.21
241.58
270.07
293.54
308.64
312.70
288.68
230.86
146.48
53.32
-30.22
-95.25
-141.82
-174.38
-198.90
-223.49
-250.47
-280.15
-312.22
-345.47
-378.43
-407.85
-418.89
-402.30
-359.62
-301.35
-243.64
-203.40
-182.55
-177.14
-180.35
-185.62
-188.72
-188.75
-184.58
-175.01
-158.96
-135.93
-108.18
-79.11
-52.04
-30.67
-16.94
-9.14
-3.37
4.38
16.43
31.48
46.43
58.27
64.82
65.99
64.32
63.43
66.11
73.08
81.98
89.06
90.97
85.70
73.39
56.25
37.56
20.50
7.33
-1.12
-4.90
-4.48
-0.76
4.87
10.59
14.45
14.96
11.64
5.30
-2.06
-7.93
-10.15
-7.77
-1.26
7.77
17.19
25.09
30.37
32.93
33.40
32.72
31.68
30.60
29.42
27.88
25.79
23.19
20.22
16.94
13.18
8.52
2.49
-5.08
-13.82
-22.70
-30.12
-34.43
-34.33
-29.29
-19.71
-6.67
8.40
24.11
39.34
53.26
65.08
74.05
79.44
80.81
78.34
72.96
66.18
59.75
55.14
53.13
53.74
56.34
60.08
64.25
68.61
73.52
79.89
88.90
101.49
117.96
137.62
158.81
179.37
197.29
211.21
220.68
225.99
227.83
226.91
223.83
219.10
213.32
207.12
201.12
195.78
191.35
188.03
186.14
186.21
188.81
194.08
201.30
208.71
213.74
213.75
206.88
192.59
171.67
145.79
116.64
85.43
52.76
18.97
-15.48
-49.73
-82.79
-113.92
-143.03
-170.91
-198.94
-228.71
-261.46
-297.54
-336.01
-374.57
-409.93
-438.59
-457.88
-466.74
-465.99
-457.96
-445.55
-431.19
-416.08
-399.98
-381.59
-359.27
-331.82
-299.03
-261.79
-221.70
-180.57
-139.87
-100.55
-63.17
-28.33
3.08
29.99
51.57
67.77
79.46
88.04
94.70
99.72
102.32
101.04
94.61
82.72
66.40
47.77
29.32
13.12
0.34
-9.00
-15.70
-20.91
-25.65
-30.47
-35.31
-39.66
-42.89
-44.50
-44.43
-43.02
-40.92
-38.95
-37.85
-38.18
-40.21
-43.78
-48.09
-51.78
-53.07
-50.26
-42.30
-29.29
-12.46
6.19
24.52
40.84
54.31
64.71
72.22
77.01
79.12
78.57
75.61
70.81
65.10
59.35
54.11
49.42
44.81
39.66
33.61
26.86
20.20
14.61
10.93
9.35
9.45
10.32
11.01
10.84
9.63
7.51
4.85
1.95
-1.04
-4.15
-7.55
-11.52
-16.32
-22.17
-29.12
-36.82
-44.45
-50.68
-53.97
-52.99
-47.10
-36.62
-22.78
-7.29
8.23
22.64
35.42
46.47
55.81
63.32
68.74
71.82
72.57
71.36
68.81
65.58
62.14
58.58
54.71
50.21
44.96
39.14
33.32
28.17
24.22
21.53
19.67
17.89
15.43
11.84
7.12
1.65
-3.95
-9.18
-13.77
-17.79
-21.57
-25.58
-30.29
-36.01
-42.81
-50.34
-57.69
-63.46
-66.03
-64.03
-56.88
-45.15
-30.40
-14.72
-0.02
12.47
22.35
29.82
35.32
39.20
41.59
42.59
42.39
41.33
39.90
38.48
37.25
36.08
34.72
32.88
30.48
27.71
24.94
22.56
20.77
19.46
18.23
16.52
13.79
9.71
4.17
-2.66
-10.44
-18.87
-27.75
-37.06
-46.74
-56.40
-65.09
-71.29
-73.29
-69.77
-60.49
-46.51
-29.90
-13.06
2.06
14.36
23.69
30.40
34.94
37.54
38.25
37.12
34.46
30.85
27.06
23.71
21.14
19.27
17.70
15.91
13.46
10.19
6.21
1.84
-2.59
-6.84
-10.85
-14.65
-18.25
-21.63
-24.82
-28.04
-31.72
-36.28
-41.72
-47.36
-51.72
-53.02
-49.81
-41.66
-29.35
-14.59
0.56
14.40
25.93
34.82
41.20
45.33
47.43
47.69
46.35
43.81
40.61
37.39
34.65
32.63
31.20
29.95
28.28
25.75
22.22
17.93
13.40
9.20
5.67
2.75
0.10
-2.81
-6.47
-11.21
-17.13
-24.04
-31.45
-38.46
-43.85
-46.24
-44.59
-38.56
-28.80
-16.73
-4.06
7.71
17.74
25.76
31.85
36.09
38.46
38.91
37.54
34.67
30.80
26.48
22.12
17.99
14.24
11.00
8.34
6.27
4.65
3.29
1.99
0.60
-0.91
-2.53
-4.29
-6.28
-8.70
-11.79
-15.77
-20.84
-27.06
-34.35
-42.30
-50.06
-56.36
-59.73
-58.89
-53.27
-43.22
-30.02
-15.40
-1.10
11.64
22.22
30.51
36.61
40.65
42.73
43.03
41.90
39.92
37.69
35.73
34.26
33.18
32.16
30.84
28.97
26.57
23.83
20.99
18.20
15.37
12.22
8.42
3.78
-1.61
-7.39
-13.06
-18.15
-22.43
-25.99
-29.19
-32.58
-36.71
-41.98
-48.36
-55.30
-61.70
-66.02
-66.75
-62.87
-54.21
-41.58
-26.51
-10.74
4.30
17.76
29.28
38.76
46.08
50.98
53.27
53.05
50.85
47.60
44.33
41.82
40.38
39.78
39.44
38.72
37.19
34.80
31.82
28.64
25.57
22.64
19.65
16.22
12.06
7.10
1.53
-4.19
-9.60
-14.37
-18.38
-21.82
-25.04
-28.46
-32.49
-37.43
-43.40
-50.21
-57.27
-63.46
-67.36
-67.57
-63.20
-54.33
-42.01
-27.94
-13.89
-1.13
9.80
18.92
26.45
32.39
36.45
38.29
37.78
35.32
31.72
28.01
25.02
23.11
22.14
21.62
21.01
19.94
18.39
16.52
14.63
12.83
11.03
8.93
6.15
2.48
-2.05
-7.09
-12.17
-16.88
-21.06
-24.76
-28.18
-31.55
-34.98
-38.58
-42.50
-46.92
-51.89
-57.05
-61.42
-63.60
-62.19
-56.41
-46.52
-33.68
-19.59
-5.78
6.73
17.56
26.72
34.27
40.19
44.29
46.48
46.95
46.22
45.01
44.01
43.59
43.73
44.02
43.91
42.98
41.14
38.63
35.88
33.25
30.82
28.36
25.49
21.85
17.34
12.15
6.71
1.47
-3.32
-7.70
-11.99
-16.60
-21.84
-27.81
-34.35
-40.98
-46.95
-51.28
-52.89
-50.96
-45.11
-35.74
-23.89
-11.00
1.49
12.52
21.54
28.40
33.11
35.69
36.22
34.92
32.26
28.89
25.51
22.64
20.51
19.07
18.13
17.46
16.93
16.47
16.07
15.60
14.80
13.34
10.90
7.33
2.83
-2.14
-6.99
-11.24
-14.75
-17.69
-20.52
-23.74
-27.79
-32.91
-38.93
-45.24
-50.72
-53.94
-53.53
-48.63
-39.36
-26.74
-12.45
1.74
14.54
25.30
34.01
40.80
45.78
48.87
49.98
49.28
47.30
44.83
42.65
41.22
40.50
40.01
39.13
37.39
34.74
31.51
28.18
25.08
22.20
19.14
15.38
10.54
4.61
-1.99
-8.62
-14.69
-19.92
-24.43
-28.63
-33.03
-38.03
-43.85
-50.46
-57.49
-64.17
-69.35
-71.62
-69.77
-63.23
-52.37
-38.45
-23.27
-8.54
4.51
15.35
23.88
30.15
34.13
35.68
34.80
31.85
27.54
22.78
18.35
14.57
11.26
7.92
4.02
-0.62
-5.72
-10.63
-14.64
-17.24
-18.41
-18.64
-18.71
-19.41
-21.22
-24.14
-27.69
-31.18
-33.99
-35.86
-36.93
-37.62
-38.44
-39.74
-41.74
-44.49
-47.86
-51.39
-54.27
-55.29
-53.20
-47.14
-37.05
-23.76
-8.70
6.57
20.82
33.33
43.84
52.22
58.37
62.15
63.55
62.82
60.54
57.50
54.45
51.92
50.03
48.52
46.90
44.73
41.72
37.95
33.72
29.41
25.30
21.41
17.53
13.33
8.58
3.22
-2.55
-8.38
-13.93
-19.01
-23.60
-27.82
-31.93
-36.17
-40.83
-46.13
-52.06
-58.20
-63.60
-66.86
-66.58
-61.84
-52.59
-39.77
-24.93
-9.75
4.42
16.75
26.84
34.53
39.75
42.49
42.93
41.49
38.84
35.73
32.78
30.41
28.72
27.51
26.42
25.02
22.99
20.26
17.00
13.58
10.36
7.40
4.48
1.17
-2.93
-7.90
-13.44
-19.02
-24.10
-28.41
-31.98
-35.08
-38.00
-40.98
-44.23
-48.00
-52.50
-57.71
-63.05
-67.31
-68.91
-66.40
-59.14
-47.52
-32.93
-17.18
-1.94
11.70
23.21
32.48
39.48
44.18
46.56
46.76
45.22
42.60
39.60
36.77
34.38
32.41
30.59
28.58
26.07
22.92
19.19
15.12
11.07
7.29
3.78
0.29
-3.55
-8.01
-13.01
-18.12
-22.68
-26.13
-28.23
-29.20
-29.57
-29.97
-30.97
-32.92
-36.05
-40.25
-45.13
-49.76
-52.79
-52.72
-48.39
-39.49
-26.77
-11.84
3.41
17.35
29.01
38.12
44.79
49.24
51.56
51.87
50.44
47.82
44.77
41.98
39.81
38.20
36.76
35.06
32.90
30.35
27.69
25.22
23.06
21.07
18.95
16.43
13.33
9.71
5.75
1.76
-1.99
-5.29
-8.06
-10.46
-12.84
-15.73
-19.58
-24.53
-30.04
-34.89
-37.43
-36.16
-30.33
-20.26
-7.25
6.87
20.37
32.05
41.36
48.28
52.99
55.71
56.61
55.96
54.11
51.50
48.55
45.55
42.57
39.60
36.55
33.39
30.15
26.86
23.53
20.07
16.38
12.35
7.97
3.32
-1.50
-6.34
-11.13
-15.85
-20.60
-25.60
-31.20
-37.74
-45.34
-53.66
-61.69
-67.95
-70.80
-69.02
-62.25
-51.14
-37.19
-22.25
-8.01
4.34
14.26
21.69
26.90
30.22
31.96
32.34
31.55
29.79
27.26
24.18
20.72
17.03
13.25
9.49
5.89
2.57
-0.43
-3.18
-5.87
-8.70
-11.81
-15.16
-18.58
-21.82
-24.73
-27.36
-29.98
-33.03
-36.98
-42.10
-48.17
-54.37
-59.30
-61.32
-59.02
-51.77
-39.91
-24.69
-7.86
8.86
24.18
37.36
48.07
56.24
61.82
64.85
65.53
64.29
61.74
58.54
55.23
52.07
49.08
46.08
42.87
39.27
35.20
30.52
25.09
18.71
11.22
2.62
-6.87
-16.77
-26.55
-35.68
-43.86
-51.04
-57.37
-63.20
-68.94
-74.97
-81.40
-87.94
-93.66
-97.23
-97.23
-92.74
-83.70
-70.98
-56.01
-40.34
-25.18
-11.27
0.96
11.17
18.99
24.08
26.37
26.20
24.24
21.35
18.28
15.55
13.39
11.87
11.02
10.83
11.27
12.17
13.24
14.00
14.02
12.94
10.69
7.41
3.43
-0.84
-5.02
-8.84
-12.26
-15.49
-18.97
-23.30
-28.90
-35.68
-42.84
-48.88
-51.99
-50.63
-44.09
-32.79
-18.09
-1.96
13.68
27.39
38.37
46.39
51.61
54.30
54.79
53.50
51.03
48.04
45.21
42.95
41.36
40.19
39.02
37.50
35.51
33.12
30.48
27.69
24.63
21.09
16.85
11.87
6.33
0.62
-4.84
-9.75
-14.05
-17.93
-21.78
-26.12
-31.41
-37.78
-44.81
-51.41
-55.95
-56.74
-52.61
-43.47
-30.38
-15.26
-0.18
13.25
24.23
32.67
38.84
43.04
45.41
46.06
45.20
43.28
40.86
38.49
36.43
34.67
32.94
31.00
28.71
26.12
23.39
20.61
17.73
14.52
10.70
6.16
1.09
-4.06
-8.75
-12.54
-15.37
-17.58
-19.83
-22.91
-27.48
-33.70
-41.03
-48.22
-53.47
-55.00
-51.59
-43.04
-30.33
-15.25
0.16
14.13
25.59
34.16
39.92
43.26
44.56
44.23
42.70
40.42
37.87
35.43
33.35
31.69
30.37
29.24
28.11
26.84
25.19
22.95
19.87
15.85
10.94
5.40
-0.37
-5.98
-11.11
-15.63
-19.60
-23.25
-27.02
-31.43
-37.03
-44.07
-52.21
-60.37
-66.79
-69.57
-67.22
-59.29
-46.56
-30.82
-14.28
1.10
14.07
24.21
31.74
37.12
40.73
42.84
43.55
43.02
41.50
39.35
36.93
34.54
32.28
30.11
27.93
25.66
23.39
21.23
19.28
17.46
15.49
13.03
9.79
5.72
1.03
-3.88
-8.65
-13.05
-17.13
-21.21
-25.70
-31.00
-37.11
-43.56
-49.18
-52.42
-51.73
-46.13
-35.67
-21.50
-5.47
10.45
24.71
36.50
45.63
52.24
56.48
58.50
58.52
56.96
54.47
51.77
49.36
47.34
45.41
43.09
40.01
36.11
31.64
27.03
22.63
18.50
14.46
10.25
5.76
1.11
-3.30
-6.99
-9.70
-11.48
-12.85
-14.57
-17.45
-22.10
-28.60
-36.39
-44.19
-50.24
-52.69
-50.23
-42.58
-30.67
-16.38
-1.90
10.88
20.87
27.80
31.94
33.75
33.58
31.77
28.75
25.19
21.84
19.29
17.72
16.83
15.98
14.59
12.32
9.35
6.13
3.20
0.94
-0.66
-1.87
-3.14
-4.79
-6.92
-9.38
-11.87
-14.19
-16.34
-18.63
-21.59
-25.75
-31.54
-39.09
-48.17
-58.03
-67.37
-74.47
-77.52
-75.26
-67.47
-55.13
-40.19
-24.84
-10.84
0.97
10.55
18.27
24.40
28.99
31.90
33.15
33.09
32.36
31.59
31.20
31.18
31.23
30.99
30.22
28.98
27.52
26.09
24.73
23.14
20.79
17.11
11.77
4.90
-2.84
-10.43
-16.91
-21.73
-24.99
-27.40
-30.00
-33.80
-39.41
-46.86
-55.46
-63.89
-70.42
-73.36
-71.59
-64.90
-54.13
-40.88
-26.93
-13.77
-2.26
7.30
14.84
20.33
23.74
25.06
24.57
22.76
20.27
17.65
15.21
13.03
11.02
9.06
7.07
5.00
2.79
0.27
-2.79
-6.62
-11.37
-16.98
-23.20
-29.66
-35.89
-41.44
-46.01
-49.47
-51.94
-53.80
-55.66
-58.20
-61.95
-66.93
-72.34
-76.70
-78.12
-75.00
-66.66
-53.67
-37.68
-20.88
-5.24
8.05
18.70
27.00
33.42
38.15
41.20
42.45
42.00
40.32
38.05
35.80
33.86
32.24
30.67
28.93
26.91
24.67
22.28
19.79
17.08
13.90
10.04
5.44
0.27
-5.04
-9.95
-14.02
-17.09
-19.41
-21.69
-24.79
-29.46
-35.89
-43.44
-50.64
-55.54
-56.28
-51.76
-42.02
-28.30
-12.56
3.07
16.92
28.06
36.30
41.85
45.04
46.12
45.31
42.87
39.31
35.32
31.63
28.78
26.95
25.89
25.12
24.09
22.39
19.90
16.65
12.74
8.28
3.36
-1.90
-7.27
-12.47
-17.25
-21.53
-25.50
-29.64
-34.58
-40.87
-48.57
-56.96
-64.53
-69.22
-69.15
-63.28
-51.86
-36.37
-18.99
-1.93
13.22
25.59
35.02
41.68
45.86
47.86
47.98
46.64
44.31
41.52
38.66
35.99
33.55
31.25
28.91
26.42
23.64
20.50
16.91
12.76
8.01
2.71
-2.96
-8.75
-14.38
-19.73
-24.88
-30.18
-36.12
-43.20
-51.55
-60.71
-69.41
-75.78
-77.82
-74.08
-64.20
-49.10
-30.65
-11.10
7.63
24.25
38.17
49.31
57.71
63.46
66.64
67.40
66.14
63.43
59.95
56.38
53.16
50.50
48.31
46.29
44.03
41.18
37.47
32.82
27.31
21.17
14.72
8.28
2.11
-3.69
-9.13
-14.43
-19.95
-26.21
-33.76
-42.89
-53.30
-63.85
-72.59
-77.25
-75.99
-68.12
-54.42
-36.87
-17.97
0.12
16.09
29.51
40.48
49.25
55.92
60.49
63.02
63.83
63.45
62.38
60.96
59.24
57.03
54.17
50.69
46.80
42.78
38.82
34.85
30.61
25.73
19.94
13.26
5.98
-1.40
-8.44
-14.80
-20.53
-25.98
-31.74
-38.51
-46.77
-56.54
-67.16
-77.14
-84.48
-87.04
-83.28
-72.79
-56.55
-36.67
-15.72
4.13
21.66
36.59
49.21
59.75
67.99
73.39
75.46
74.26
70.61
65.75
60.90
56.74
53.30
50.20
47.01
43.60
40.17
37.03
34.29
31.66
28.54
24.23
18.31
10.86
2.44
-6.05
-13.79
-20.23
-25.33
-29.55
-33.62
-38.38
-44.50
-52.30
-61.53
-71.31
-80.14
-86.06
-87.21
-82.34
-71.25
-55.00
-35.54
-15.16
4.24
21.48
36.11
48.01
57.12
63.23
66.16
66.02
63.45
59.48
55.23
51.50
48.50
45.96
43.37
40.29
36.60
32.48
28.29
24.32
20.64
17.03
13.09
8.35
2.55
-4.21
-11.54
-18.83
-25.46
-31.04
-35.55
-39.32
-42.92
-47.04
-52.28
-59.00
-67.12
-75.94
-84.12
-89.87
-91.36
-87.34
-77.62
-63.15
-45.76
-27.55
-10.21
5.29
18.69
30.06
39.39
46.42
50.76
52.24
51.25
48.68
45.71
43.34
42.01
41.51
41.17
40.27
38.41
35.69
32.60
29.74
27.50
25.80
24.16
21.87
18.41
13.63
7.87
1.75
-4.06
-9.13
-13.39
-17.10
-20.62
-24.33
-28.46
-33.21
-38.70
-44.90
-51.42
-57.26
-60.91
-60.66
-55.24
-44.47
-29.39
-11.98
5.48
21.17
34.06
43.89
50.80
55.07
56.91
56.60
54.66
51.84
48.99
46.76
45.40
44.67
44.03
42.91
40.99
38.32
35.24
32.22
29.59
27.35
25.15
22.46
18.85
14.21
8.84
3.29
-1.85
-6.24
-9.93
-13.23
-16.64
-20.63
-25.48
-31.30
-37.93
-44.95
-51.56
-56.62
-58.84
-57.10
-50.94
-40.70
-27.55
-13.12
1.01
13.70
24.36
32.76
38.86
42.60
43.99
43.24
40.90
37.76
34.64
32.07
30.17
28.61
26.90
24.60
21.57
18.01
14.31
10.84
7.76
4.94
2.06
-1.30
-5.37
-10.15
-15.39
-20.71
-25.76
-30.41
-34.72
-38.94
-43.39
-48.45
-54.39
-61.27
-68.78
-76.03
-81.62
-83.95
-81.71
-74.41
-62.66
-47.98
-32.29
-17.25
-3.85
7.58
17.03
24.49
29.76
32.65
33.21
31.96
29.75
27.51
25.80
24.64
23.63
22.25
20.15
17.37
14.27
11.37
9.06
7.43
6.18
4.77
2.66
-0.46
-4.47
-8.91
-13.18
-16.88
-19.98
-22.82
-25.98
-30.01
-35.29
-41.92
-49.69
-57.99
-65.75
-71.53
-73.84
-71.53
-64.35
-53.00
-39.01
-24.16
-9.97
2.65
13.36
22.11
28.84
33.40
35.67
35.80
34.29
31.89
29.35
27.08
25.13
23.21
20.91
17.97
14.35
10.18
5.68
0.96
-4.03
-9.43
-15.38
-21.84
-28.61
-35.31
-41.57
-47.11
-51.88
-56.01
-59.81
-63.63
-67.91
-72.99
-78.91
-85.17
-90.58
-93.42
-91.92
-84.92
-72.42
-55.63
-36.60
-17.44
0.23
15.59
28.45
38.89
46.92
52.47
55.52
56.29
55.34
53.42
51.22
49.20
47.50
45.96
44.35
42.44
40.19
37.65
34.89
31.98
28.85
25.40
21.57
17.40
13.14
9.17
5.82
3.23
1.28
-0.45
-2.53
-5.43
-9.36
-14.00
-18.41
-21.16
-20.58
-15.26
-4.54
11.27
30.86
52.33
73.72
93.45
110.60
124.85
136.29
145.28
152.26
157.76
162.34
166.59
170.91
175.57
180.63
186.00
191.48
196.83
201.65
205.50
207.80
207.90
205.20
199.07
188.97
174.50
155.49
132.04
104.49
73.30
38.88
1.40
-39.12
-82.62
-128.47
-175.04
-219.62
-258.67
-288.72
-307.41
-314.27
-311.03
-300.97
-287.94
-275.20
-264.82
-257.63
-253.64
-252.47
-253.57
-256.09
-258.69
-259.53
-256.61
-248.23
-233.37
-211.72
-183.44
-148.83
-108.26
-62.34
-12.26
40.07
92.17
141.56
186.28
225.31
258.48
285.89
307.32
321.75
327.45
322.49
305.54
276.34
235.67
185.16
127.06
64.34
0.86
-58.72
-109.67
-148.65
-175.03
-191.44
-202.94
-214.96
-231.09
-251.66
-273.82
-292.75
-303.52
-302.56
-288.14
-260.21
-219.65
-167.95
-107.28
-40.99
26.18
88.33
139.61
175.79
195.60
201.02
196.52
187.39
178.01
170.93
166.76
164.81
163.93
162.86
160.38
155.25
146.27
132.60
114.13
91.54
66.12
39.24
11.84
-15.85
-44.01
-72.57
-100.55
-125.68
-144.80
-154.79
-153.88
-142.49
-123.31
-100.45
-78.17
-59.51
-45.77
-36.55
-30.55
-26.28
-22.65
-19.10
-15.48
-11.88
-8.51
-5.81
-4.35
-4.69
-7.18
-11.73
-17.77
-24.37
-30.56
-35.63
-39.39
-42.21
-44.95
-48.63
-53.99
-60.97
-68.40
-74.09
-75.49
-70.62
-58.85
-41.24
-20.12
1.74
21.98
39.27
53.27
64.37
73.25
80.55
86.76
92.23
97.21
101.79
105.91
109.51
112.65
115.66
119.24
124.30
131.75
142.05
155.02
169.59
183.95
196.01
203.99
206.99
205.30
200.21
193.53
186.88
181.11
175.96
170.24
162.16
150.00
132.65
110.19
84.05
56.84
31.76
11.58
-2.16
-9.65
-12.72
-14.24
-17.13
-23.65
-34.92
-51.21
-72.25
-97.65
-126.70
-157.78
-187.94
-212.91
-228.14
-230.32
-218.73
-195.56
-165.06
-131.94
-99.76
-70.34
-44.07
-20.77
-0.42
16.78
30.68
41.36
48.99
53.37
53.85
49.59
40.28
26.67
10.66
-5.19
-18.52
-27.72
-32.19
-32.18
-28.57
-22.88
-17.20
-14.10
-16.16
-25.14
-41.25
-62.71
-85.97
-106.48
-119.76
-122.47
-112.93
-91.29
-59.11
-18.76
27.08
75.86
125.14
172.67
216.17
253.49
282.64
302.05
310.88
309.16
297.97
279.15
255.07
227.99
199.60
170.71
141.21
110.36
77.14
40.63
0.49
-42.58
-86.53
-128.03
-163.12
-188.15
-201.02
-201.88
-193.13
-178.66
-162.68
-148.70
-138.93
-134.24
-134.44
-138.69
-145.79
-154.36
-163.06
-170.79
-177.09
-182.27
-187.37
-193.88
-203.23
-216.29
-232.94
-252.04
-271.49
-288.69
-301.01
-306.29
-303.26
-291.72
-272.41
-246.88
-217.21
-185.83
-155.49
-129.13
-109.52
-98.56
-96.49
-101.34
-109.19
-115.25
-115.29
-106.86
-89.82
-65.79
-37.30
-6.87
23.43
51.95
77.23
97.91
112.97
121.99
125.38
124.27
120.15
114.50
108.40
102.56
97.32
92.83
89.11
86.02
83.34
80.73
77.84
74.39
70.23
65.34
59.91
54.20
48.46
42.92
37.64
32.53
27.32
21.60
14.82
6.54
-3.30
-13.92
-23.57
-29.79
-30.08
-22.92
-8.38
11.71
34.43
56.66
76.01
91.18
101.80
108.00
110.06
108.31
103.31
95.97
87.52
79.19
71.87
65.98
61.41
57.79
54.71
51.88
49.11
46.22
43.05
39.41
35.19
30.43
25.37
20.34
15.74
11.85
8.76
6.32
4.14
1.66
-1.72
-6.51
-12.83
-20.27
-27.73
-33.50
-35.70
-32.78
-24.12
-10.31
7.00
25.56
43.22
58.49
70.65
79.63
85.62
88.81
89.29
87.17
82.74
76.43
68.74
60.01
50.35
39.67
27.91
15.26
2.23
-10.39
-21.70
-30.92
-37.65
-41.86
-43.93
-44.54
-44.48
-44.49
-45.10
-46.57
-48.96
-52.26
-56.50
-61.75
-67.89
-74.31
-79.72
-82.19
-79.68
-70.76
-55.33
-34.74
-11.51
11.52
32.03
48.76
61.51
70.75
77.13
81.14
83.03
82.96
81.10
77.81
73.47
68.56
63.51
58.71
54.38
50.61
47.40
44.58
42.00
39.49
36.92
34.18
31.21
27.98
24.51
20.85
16.99
12.75
7.70
1.24
-7.21
-17.74
-29.55
-40.88
-49.26
-52.30
-48.52
-37.95
-22.15
-3.70
14.67
30.86
43.70
52.82
58.27
60.18
58.63
53.85
46.40
37.24
27.62
18.70
11.23
5.41
0.84
-3.15
-7.19
-11.55
-16.11
-20.48
-24.27
-27.30
-29.70
-31.89
-34.37
-37.62
-41.96
-47.59
-54.45
-62.17
-69.87
-76.14
-79.21
-77.50
-70.07
-57.12
-39.98
-20.72
-1.49
16.04
30.96
42.97
52.02
58.08
61.11
61.29
59.26
56.10
53.08
51.23
50.89
51.65
52.53
52.43
50.59
46.86
41.72
35.99
30.51
25.82
22.01
18.73
15.31
10.92
4.81
-3.53
-14.04
-25.89
-37.48
-46.77
-51.92
-51.87
-46.80
-37.95
-27.26
-16.72
-7.88
-1.71
1.26
0.76
-3.27
-10.58
-20.40
-31.39
-41.77
-49.75
-54.00
-54.06
-50.45
-44.47
-37.77
-31.82
-27.52
-25.06
-24.13
-24.18
-24.83
-26.01
-27.93
-30.98
-35.46
-41.48
-48.77
-56.72
-64.30
-70.17
-72.93
-71.44
-65.19
-54.47
-40.32
-24.20
-7.60
8.16
22.03
33.03
40.24
42.95
41.03
35.27
27.39
19.61
13.95
11.50
12.14
14.63
17.26
18.56
17.90
15.50
12.20
8.88
6.05
3.61
1.07
-2.24
-6.87
-13.08
-20.82
-29.67
-38.71
-46.50
-51.24
-51.20
-45.31
-33.64
-17.46
1.18
20.08
37.42
52.01
63.23
70.78
74.57
74.78
71.93
67.01
61.23
55.70
51.05
47.32
44.04
40.53
36.34
31.41
26.16
21.16
16.88
13.38
10.23
6.69
1.90
-4.82
-13.69
-24.30
-35.46
-45.29
-51.57
-52.33
-46.46
-34.21
-17.13
2.33
21.52
38.31
51.41
60.34
65.23
66.47
64.60
60.31
54.49
48.09
42.06
37.01
33.07
29.91
26.89
23.39
19.07
13.97
8.41
2.83
-2.54
-7.72
-13.08
-19.20
-26.66
-35.76
-46.26
-57.14
-66.64
-72.63
-73.23
-67.46
-55.60
-39.15
-20.30
-1.27
16.23
31.15
43.02
51.57
56.61
58.07
56.20
51.73
45.89
40.03
35.23
31.90
29.74
27.98
25.78
22.60
18.44
13.70
8.98
4.67
0.79
-3.05
-7.52
-13.30
-20.86
-30.16
-40.45
-50.30
-57.74
-60.82
-58.11
-49.25
-35.10
-17.50
1.30
19.29
35.16
48.34
58.75
66.43
71.25
72.99
71.54
67.24
60.98
53.99
47.47
42.20
38.29
35.20
32.03
27.97
22.61
16.16
9.21
2.55
-3.31
-8.29
-12.74
-17.23
-22.37
-28.57
-36.07
-44.78
-54.26
-63.50
-70.90
-74.58
-72.82
-64.78
-50.88
-32.77
-12.80
6.69
23.91
37.91
48.40
55.42
59.20
60.02
58.33
54.83
50.38
45.81
41.74
38.42
35.76
33.44
31.10
28.51
25.54
22.17
18.40
14.15
9.30
3.82
-2.19
-8.46
-14.67
-20.52
-25.96
-31.17
-36.63
-42.87
-50.22
-58.45
-66.57
-72.88
-75.45
-72.72
-64.08
-50.23
-32.89
-14.30
3.56
19.33
32.38
42.53
49.75
53.96
55.14
53.53
49.80
44.98
40.14
36.15
33.30
31.37
29.78
27.92
25.37
22.14
18.47
14.75
11.27
8.15
5.36
2.70
0.01
-2.79
-5.61
-8.23
-10.41
-11.93
-12.82
-13.32
-13.92
-15.22
-17.83
-22.13
-28.03
-34.78
-41.01
-44.91
-44.79
-39.62
-29.37
-15.18
1.09
17.34
31.87
43.67
52.40
58.21
61.29
61.89
60.22
56.70
52.06
47.22
43.07
40.11
38.33
37.20
36.07
34.41
32.08
29.29
26.39
23.53
20.51
16.80
11.78
5.07
-3.24
-12.52
-21.74
-29.92
-36.41
-41.16
-44.61
-47.55
-50.77
-54.86
-60.10
-66.28
-72.71
-78.13
-80.95
-79.69
-73.50
-62.57
-48.19
-32.35
-17.05
-3.81
6.68
14.38
19.60
22.67
23.87
23.48
21.90
19.77
17.79
16.53
16.22
16.68
17.42
17.95
17.99
17.58
16.99
16.44
15.93
15.15
13.68
11.15
7.45
2.75
-2.60
-8.22
-13.89
-19.47
-25.03
-30.67
-36.61
-43.08
-50.21
-57.83
-65.27
-71.37
-74.68
-73.94
-68.56
-58.90
-46.21
-32.13
-18.23
-5.63
5.14
13.87
20.49
24.92
27.11
27.23
25.77
23.49
21.21
19.51
18.58
18.16
17.74
16.80
15.05
12.53
9.51
6.28
2.90
-0.84
-5.30
-10.72
-17.00
-23.61
-29.80
-34.87
-38.47
-40.74
-42.18
-43.49
-45.35
-48.20
-52.25
-57.33
-62.80
-67.51
-69.99
-68.83
-63.13
-52.97
-39.49
-24.52
-10.02
2.55
12.48
19.76
24.66
27.41
28.10
26.77
23.67
19.40
14.83
10.75
7.64
5.53
4.13
3.12
2.34
1.78
1.54
1.53
1.44
0.76
-0.99
-4.00
-8.07
-12.68
-17.13
-20.93
-23.92
-26.34
-28.71
-31.67
-35.75
-41.11
-47.37
-53.49
-57.91
-58.97
-55.38
-46.76
-33.80
-18.09
-1.66
13.67
26.65
36.77
43.98
48.51
50.65
50.68
48.97
46.05
42.58
39.16
36.22
33.89
32.02
30.29
28.39
26.11
23.38
20.16
16.41
12.05
7.00
1.25
-5.04
-11.56
-17.97
-23.91
-29.23
-34.04
-38.74
-44.02
-50.47
-58.26
-66.74
-74.31
-78.83
-78.29
-71.64
-59.21
-42.62
-24.22
-6.28
9.57
22.51
32.36
39.19
43.16
44.44
43.33
40.35
36.25
31.86
27.88
24.77
22.60
21.14
19.88
18.23
15.74
12.23
7.79
2.78
-2.45
-7.69
-12.90
-18.23
-23.81
-29.74
-36.04
-42.87
-50.45
-58.95
-68.11
-76.87
-83.39
-85.50
-81.43
-70.60
-53.95
-33.64
-12.32
7.72
25.09
39.38
50.74
59.38
65.29
68.32
68.38
65.80
61.37
56.22
51.43
47.82
45.69
44.85
44.82
44.87
44.33
42.64
39.50
34.92
29.16
22.59
15.54
8.19
0.52
-7.64
-16.57
-26.62
-38.01
-50.65
-63.77
-75.80
-84.50
-87.59
-83.42
-71.72
-53.74
-31.88
-8.99
12.47
30.86
45.43
56.02
62.79
66.01
66.10
63.74
59.86
55.48
51.51
48.47
46.40
45.00
43.77
42.27
40.22
37.49
34.03
29.76
24.55
18.29
11.00
2.88
-5.64
-14.04
-21.88
-28.92
-35.30
-41.52
-48.32
-56.43
-66.17
-77.11
-87.83
-96.09
-99.36
-95.61
-84.09
-65.68
-42.64
-17.88
5.97
27.14
44.85
58.93
69.36
75.99
78.67
77.59
73.53
67.79
61.88
56.99
53.61
51.43
49.67
47.49
44.40
40.45
36.07
31.70
27.54
23.29
18.37
12.15
4.38
-4.72
-14.44
-23.91
-32.39
-39.56
-45.59
-51.11
-57.00
-64.12
-73.04
-83.59
-94.69
-104.39
-110.24
-110.05
-102.56
-87.97
-67.87
-44.69
-20.96
1.31
20.85
36.99
49.34
57.63
61.79
62.19
59.76
55.88
51.97
49.00
47.29
46.47
45.86
44.82
43.08
40.77
38.23
35.78
33.47
30.99
27.80
23.38
17.45
10.23
2.39
-5.20
-11.82
-17.16
-21.46
-25.40
-29.84
-35.63
-43.27
-52.71
-63.06
-72.57
-78.91
-79.71
-73.44
-59.97
-40.79
-18.52
3.90
24.07
40.64
53.25
62.09
67.45
69.56
68.67
65.34
60.53
55.50
51.37
48.78
47.63
47.27
46.89
45.83
43.77
40.70
36.67
31.74
25.88
19.17
11.91
4.56
-2.41
-8.71
-14.39
-19.80
-25.51
-32.12
-40.06
-49.27
-59.01
-67.69
-73.16
-73.23
-66.45
-52.79
-33.70
-11.76
10.11
29.54
45.18
56.69
64.34
68.61
69.94
68.70
65.39
60.69
55.37
50.18
45.58
41.72
38.52
35.75
33.15
30.43
27.29
23.42
18.60
12.75
6.03
-1.21
-8.53
-15.56
-22.08
-28.09
-33.81
-39.67
-46.28
-54.16
-63.41
-73.39
-82.48
-88.42
-88.94
-82.53
-69.09
-50.02
-27.72
-4.82
16.50
34.96
49.99
61.49
69.48
73.98
75.14
73.41
69.59
64.65
59.55
54.96
51.14
48.01
45.26
42.56
39.64
36.38
32.66
28.37
23.33
17.38
10.51
2.91
-5.00
-12.73
-19.92
-26.49
-32.74
-39.28
-46.89
-56.15
-67.14
-79.12
-90.50
-98.99
-102.31
-98.89
-88.44
-72.11
-52.06
-30.80
-10.42
7.76
23.16
35.63
45.13
51.63
55.13
55.92
54.59
51.96
48.83
45.72
42.75
39.78
36.58
33.06
29.33
25.55
21.75
17.78
13.25
7.79
1.21
-6.36
-14.48
-22.59
-30.15
-36.87
-42.71
-47.93
-53.05
-58.69
-65.48
-73.76
-83.24
-92.89
-100.92
-105.19
-103.85
-96.03
-82.14
-63.83
-43.45
-23.25
-4.81
11.09
24.21
34.48
41.75
45.78
46.63
44.83
41.44
37.74
34.78
33.08
32.50
32.42
32.13
31.14
29.36
26.99
24.29
21.34
17.91
13.52
7.77
0.59
-7.61
-16.07
-23.89
-30.47
-35.68
-39.87
-43.80
-48.38
-54.37
-62.10
-71.09
-80.00
-86.69
-88.86
-84.75
-73.87
-57.22
-37.03
-15.96
3.69
20.47
33.90
44.05
51.23
55.71
57.71
57.53
55.72
52.99
49.99
47.17
44.65
42.30
39.98
37.60
35.20
32.78
30.18
27.11
23.22
18.28
12.41
5.98
-0.51
-6.66
-12.28
-17.46
-22.46
-27.68
-33.52
-40.31
-48.03
-56.06
-63.09
-67.24
-66.58
-59.84
-47.01
-29.45
-9.55
10.04
27.23
40.90
50.88
57.56
61.41
62.71
61.59
58.24
53.17
47.23
41.42
36.59
33.13
30.86
29.16
27.17
24.16
19.71
13.87
7.05
-0.14
-7.07
-13.35
-18.86
-23.77
-28.52
-33.65
-39.74
-47.24
-56.21
-66.06
-75.40
-82.20
-84.24
-79.86
-68.61
-51.53
-30.90
-9.47
10.34
27.08
40.25
50.05
56.83
60.85
62.23
61.18
58.23
54.21
50.04
46.44
43.66
41.43
39.11
36.06
31.85
26.46
20.22
13.66
7.28
1.40
-3.94
-8.93
-13.88
-19.15
-25.20
-32.48
-41.32
-51.59
-62.32
-71.65
-77.14
-76.53
-68.58
-53.69
-33.80
-11.76
9.68
28.66
44.44
57.14
67.18
74.76
79.73
81.82
80.92
77.33
71.78
65.21
58.50
52.26
46.74
41.90
37.51
33.27
28.86
24.03
18.63
12.61
6.01
-1.05
-8.49
-16.27
-24.40
-33.00
-42.26
-52.49
-63.96
-76.59
-89.55
-101.10
-108.72
-109.91
-103.06
-88.21
-67.17
-42.85
-18.36
3.98
22.98
38.35
50.28
58.89
64.21
66.32
65.65
63.04
59.56
56.11
53.14
50.58
47.97
44.87
41.13
36.95
32.71
28.65
24.63
20.10
14.37
7.06
-1.68
-11.14
-20.32
-28.42
-35.12
-40.75
-46.09
-52.15
-59.81
-69.51
-81.00
-93.10
-103.70
-110.15
-109.98
-101.75
-85.65
-63.51
-38.25
-12.86
10.36
30.13
45.99
57.86
65.75
69.73
70.16
67.86
64.09
60.14
56.92
54.70
53.10
51.45
49.09
45.75
41.60
37.11
32.76
28.75
24.86
20.54
15.15
8.27
-0.08
-9.36
-18.77
-27.52
-35.11
-41.52
-47.17
-52.80
-59.24
-67.17
-76.83
-87.69
-98.30
-106.42
-109.56
-105.74
-94.28
-76.17
-53.78
-30.18
-8.10
10.66
25.41
36.28
43.66
47.90
49.30
48.31
45.70
42.46
39.53
37.40
36.03
34.88
33.32
30.98
27.89
24.43
21.00
17.75
14.46
10.61
5.69
-0.48
-7.57
-14.87
-21.52
-26.95
-31.09
-34.42
-37.85
-42.39
-48.79
-57.21
-66.83
-75.84
-81.75
-82.02
-74.93
-60.27
-39.60
-15.73
8.16
29.50
46.87
59.94
69.07
74.71
77.17
76.70
73.66
68.79
63.05
57.48
52.79
49.29
46.83
44.95
43.09
40.74
37.51
33.22
27.90
21.79
15.25
8.64
2.23
-3.94
-9.96
-16.05
-22.49
-29.56
-37.58
-46.71
-56.66
-66.38
-73.97
-77.16
-73.98
-63.64
-46.86
-25.84
-3.47
17.57
35.35
49.01
58.39
63.75
65.46
63.97
59.97
54.34
48.14
42.32
37.47
33.75
30.89
28.43
25.91
22.96
19.36
15.01
9.94
4.29
-1.70
-7.74
-13.61
-19.25
-24.81
-30.53
-36.77
-43.90
-52.20
-61.62
-71.52
-80.45
-86.23
-86.47
-79.38
-64.58
-43.44
-18.71
6.29
28.73
46.94
60.48
69.81
75.71
78.87
79.72
78.54
75.64
71.44
66.52
61.50
56.91
53.02
49.80
46.91
43.83
40.06
35.27
29.40
22.60
15.14
7.28
-0.80
-9.02
-17.32
-25.72
-34.33
-43.44
-53.55
-65.02
-77.69
-90.43
-101.13
-107.05
-105.78
-96.16
-78.81
-56.13
-31.39
-7.76
12.58
28.72
40.77
49.25
54.67
57.31
57.38
55.28
51.61
47.12
42.43
37.96
33.84
30.10
26.70
23.53
20.41
16.94
12.69
7.32
0.78
-6.64
-14.46
-22.21
-29.62
-36.65
-43.45
-50.28
-57.46
-65.41
-74.42
-84.36
-94.27
-102.31
-106.05
-103.22
-92.66
-74.87
-51.95
-26.99
-3.06
17.61
33.91
45.72
53.46
57.64
58.72
57.19
53.69
49.06
44.16
39.66
35.86
32.70
29.89
27.09
24.15
21.06
17.87
14.53
10.86
6.52
1.18
-5.30
-12.82
-20.95
-29.10
-36.70
-43.41
-49.35
-55.12
-61.60
-69.68
-79.65
-90.79
-101.21
-108.17
-108.86
-101.44
-85.80
-63.70
-38.26
-12.86
9.80
28.26
42.24
52.13
58.47
61.67
62.06
60.09
56.43
51.93
47.38
43.34
40.07
37.53
35.48
33.58
31.42
28.64
24.99
20.40
15.00
9.12
3.06
-2.93
-8.77
-14.50
-20.21
-26.02
-32.14
-38.91
-46.64
-55.31
-64.06
-71.14
-74.21
-71.09
-60.79
-43.94
-22.78
-0.30
20.72
38.51
52.40
62.48
69.03
72.19
72.07
68.97
63.66
57.30
51.17
46.24
42.90
40.92
39.55
37.90
35.21
31.04
25.36
18.49
10.95
3.34
-3.88
-10.44
-16.34
-21.86
-27.50
-33.90
-41.68
-51.18
-62.09
-73.15
-82.20
-86.54
-83.87
-73.12
-55.00
-31.91
-7.17
16.04
35.49
50.22
60.30
66.34
68.98
68.75
66.17
61.83
56.53
51.10
46.28
42.51
39.80
37.79
35.79
33.04
28.99
23.50
16.86
9.65
2.47
-4.29
-10.60
-16.61
-22.55
-28.60
-34.91
-41.73
-49.46
-58.49
-68.74
-79.21
-87.82
-91.90
-88.95
-77.69
-58.60
-33.91
-6.79
19.67
43.28
63.03
78.84
90.99
99.75
105.28
107.78
107.81
106.21
104.01
102.07
100.85
100.44
100.63
101.20
102.13
103.55
105.74
108.88
113.04
118.11
123.86
129.99
135.97
140.97
143.72
142.67
136.31
123.61
104.38
79.46
50.72
20.87
-6.78
-28.91
-42.81
-47.14
-42.47
-31.27
-17.39
-4.97
2.55
3.19
-3.49
-16.68
-34.91
-56.39
-79.07
-100.62
-118.46
-130.03
-133.32
-127.56
-113.56
-93.86
-72.19
-52.74
-39.19
-34.02
-38.24
-51.52
-72.65
-100.09
-132.33
-168.09
-206.19
-245.04
-282.28
-314.52
-337.74
-348.31
-344.15
-325.54
-295.03
-256.61
-214.35
-171.44
-129.78
-90.39
-53.81
-20.27
10.56
39.94
69.74
101.35
134.38
165.98
191.48
206.36
208.36
198.72
181.71
162.74
146.34
134.99
129.48
129.99
136.98
151.04
171.67
196.03
218.82
233.18
233.26
216.40
184.09
141.23
94.31
49.25
9.97
-22.16
-48.11
-69.73
-88.38
-104.07
-115.42
-120.37
-117.21
-105.29
-85.18
-58.89
-28.39
5.03
40.72
77.76
114.35
147.89
175.79
196.36
207.64
209.40
203.29
192.17
178.74
164.56
150.21
135.75
121.24
103.25
79.24
49.18
15.76
-17.64
-48.79
-77.06
-102.87
-127.00
-155.76
-193.65
-240.66
-292.05
-341.90
-386.21
-423.62
-454.51
-480.00
-508.31
-545.34
-591.15
-639.67
-683.51
-717.74
-740.89
-753.73
-712.79
-594.93
-408.70
-192.75
10.94
178.18
304.00
393.61
454.88
495.12
513.04
508.15
484.35
450.36
414.85
382.36
353.49
326.54
299.48
265.63
221.08
166.99
114.20
70.14
37.97
16.98
4.57
-2.08
-8.91
-20.39
-37.69
-57.89
-76.09
-86.24
-83.01
-63.78
-30.16
10.21
47.78
74.96
88.93
90.99
85.40
76.76
68.07
60.35
52.81
45.00
37.78
32.90
31.20
31.90
32.31
28.81
18.41
0.55
-22.36
-45.58
-64.22
-75.31
-78.62
-76.49
-72.33
-68.78
-66.37
-64.26
-59.49
-50.13
-36.03
-18.85
-1.31
13.90
25.06
31.82
35.05
36.14
35.98
34.87
32.52
28.73
23.73
18.42
13.99
11.36
10.67
11.02
11.02
9.46
6.00
1.26
-3.47
-6.81
-8.04
-7.37
-6.01
-5.44
-6.74
-9.91
-14.14
-18.14
-20.79
-21.47
-20.15
-17.18
-13.17
-9.11
-6.31
-6.65
-11.81
-22.24
-36.41
-50.88
-61.34
-64.05
-59.17
-48.02
-33.65
-19.46
-7.70
1.26
8.50
15.25
21.83
27.39
31.07
32.74
33.80
36.75
43.79
55.11
68.09
78.16
80.78
74.08
59.54
41.47
24.97
13.51
7.58
4.90
2.14
-3.41
-12.49
-24.23
-37.09
-49.97
-62.58
-74.96
-86.43
-95.00
-97.67
-91.55
-75.49
-50.93
-21.57
7.93
33.68
53.62
67.71
77.23
83.66
87.89
90.07
90.03
87.80
84.10
80.20
77.43
76.64
77.82
80.34
83.40
86.76
91.04
97.48
106.92
118.91
131.06
139.33
139.22
127.10
101.04
60.90
8.16
-54.10
-120.87
-184.94
-237.61
-270.56
-278.38
-260.66
-222.28
-171.91
-119.09
-71.54
-33.65
-6.60
10.54
19.68
22.96
22.51
20.42
18.50
18.01
19.47
22.76
27.34
32.37
36.94
40.12
41.25
40.12
37.21
33.52
30.27
28.29
27.69
27.72
27.00
23.92
17.00
5.16
-11.96
-33.51
-57.12
-78.92
-94.28
-99.10
-91.32
-71.82
-44.18
-13.53
15.20
38.52
54.85
64.18
67.23
65.02
58.65
49.49
39.26
29.74
22.28
17.29
14.12
11.52
8.29
4.02
-0.75
-4.88
-7.37
-7.84
-6.61
-4.35
-1.46
2.25
7.57
15.43
26.38
39.91
54.29
66.59
73.46
72.19
61.90
44.31
23.55
5.03
-6.37
-7.98
-0.16
14.13
30.58
45.03
54.54
57.66
54.29
45.32
32.34
17.46
3.09
-8.52
-15.88
-18.68
-17.94
-15.58
-13.65
-13.54
-15.57
-19.06
-22.86
-25.90
-27.57
-27.77
-26.68
-24.40
-20.76
-15.08
-6.26
6.82
24.61
45.98
67.66
84.45
90.48
81.31
55.95
17.76
-26.33
-67.92
-99.72
-117.30
-119.56
