1660334686.00
64.000000
-0.00
-0.00
-0.00
-0.00
-0.00
-0.00
-0.00
-0.00
-0.00
-0.00
0.00
0.01
0.01
-0.00
-0.03
-0.05
-0.05
0.00
0.13
0.36
0.66
1.01
1.37
1.72
2.06
2.40
2.79
3.24
3.80
4.42
5.06
5.67
6.21
6.68
7.14
7.67
8.30
9.15
10.12
11.10
11.94
12.57
13.02
13.45
14.12
15.20
16.97
19.25
21.77
24.19
26.31
28.18
30.10
32.53
35.84
40.45
46.03
52.00
57.73
62.77
67.11
71.25
75.95
81.85
89.62
98.76
108.41
117.48
125.18
131.40
136.75
142.77
148.46
156.37
167.22
180.93
195.91
208.79
214.91
209.63
189.95
155.60
109.51
55.75
-1.57
-59.89
-118.41
-177.43
-237.07
-296.49
-353.99
-407.31
-455.13
-496.91
-532.65
-562.28
-585.23
-600.49
-606.77
-602.74
-586.70
-556.94
-511.78
-450.42
-374.06
-286.39
-193.25
-101.24
-16.08
58.74
121.81
173.30
213.90
244.19
264.71
276.40
280.87
280.23
276.58
271.27
264.74
256.72
246.56
233.91
219.01
202.68
186.06
170.27
155.95
143.15
131.44
120.15
108.75
97.13
85.64
74.85
65.32
57.25
50.48
44.55
38.95
33.31
27.57
21.91
16.58
11.92
8.01
4.80
2.16
-0.04
-1.96
-3.72
-5.40
-7.00
-8.43
-9.51
-10.04
-9.89
-9.11
-7.89
-6.57
-5.50
-4.93
-4.92
-5.39
-6.11
-6.80
-7.27
-7.44
-7.34
-7.04
-6.64
-6.19
-5.72
-5.28
-4.85
-4.42
-3.96
-3.46
-2.94
-2.51
-2.26
-2.26
-2.45
-2.71
-2.90
-2.95
-2.87
-2.73
-2.62
-2.53
-2.47
-2.40
-2.30
-2.15
-1.90
-1.49
-0.88
-0.07
0.79
1.48
1.80
1.66
1.09
0.28
-0.56
-1.24
-1.71
-1.98
-2.10
-2.11
-1.97
-1.67
-1.18
-0.55
0.09
0.61
0.89
0.91
0.75
0.59
0.56
0.75
1.14
1.61
2.05
2.41
2.71
2.98
3.23
3.45
3.57
3.57
3.48
3.37
3.32
3.33
3.34
3.18
2.73
1.90
0.73
-0.65
-2.09
-3.45
-4.59
-5.45
-6.02
-6.31
-6.37
-6.26
-6.04
-5.72
-5.32
-4.82
-4.25
-3.68
-3.22
-2.95
-2.90
-3.04
-3.20
-3.26
-3.12
-2.82
-2.46
-2.17
-2.02
-1.99
-2.01
-1.97
-1.80
-1.46
-0.95
-0.29
0.48
1.29
2.04
2.62
2.94
2.94
2.62
2.03
1.25
0.39
-0.47
-1.24
-1.85
-2.25
-2.44
-2.44
-2.30
-2.07
-1.75
-1.37
-0.99
-0.66
-0.46
-0.44
-0.60
-0.90
-1.26
-1.64
-2.02
-2.45
-2.95
-3.52
-4.11
-4.62
-4.98
-5.15
-5.07
-4.68
-3.85
-2.42
-0.35
2.25
5.05
7.54
9.25
9.85
9.29
7.83
5.85
3.76
1.87
0.35
-0.70
-1.21
-1.10
-0.38
0.83
2.25
3.52
4.33
4.53
4.23
3.67
3.12
2.72
2.45
2.13
1.60
0.75
-0.40
-1.77
-3.28
-4.85
-6.40
-7.75
-8.65
-8.81
-7.97
-6.11
-3.41
-0.34
2.58
4.88
6.29
6.77
6.52
5.84
4.99
4.15
3.40
2.68
1.92
1.08
0.15
-0.82
-1.78
-2.68
-3.51
-4.23
-4.76
-5.00
-4.82
-4.16
-3.11
-1.94
-0.95
-0.42
-0.45
-0.96
-1.69
-2.39
-2.93
-3.30
-3.56
-3.72
-3.68
-3.23
-2.23
-0.69
1.14
2.89
4.22
4.91
4.99
4.57
3.84
2.88
1.74
0.47
-0.80
-1.89
-2.59
-2.77
-2.44
-1.74
-0.87
-0.04
0.59
0.97
1.12
1.10
1.00
0.87
0.68
0.39
-0.07
-0.69
-1.41
-2.12
-2.71
-3.11
-3.27
-3.12
-2.58
-1.51
0.14
2.29
4.73
7.13
9.14
10.50
11.09
10.89
9.97
8.45
6.52
4.42
2.42
0.76
-0.37
-0.97
-1.14
-1.08
-1.03
-1.15
-1.51
-2.08
-2.74
-3.33
-3.75
-3.96
-4.02
-4.08
-4.28
-4.72
-5.40
-6.25
-7.13
-7.87
-8.26
-8.10
-7.19
-5.44
-2.94
0.06
3.13
5.82
7.79
8.88
9.13
8.68
7.76
6.58
5.32
4.14
3.15
2.40
1.88
1.51
1.21
0.91
0.57
0.21
-0.14
-0.41
-0.54
-0.54
-0.45
-0.43
-0.63
-1.13
-1.92
-2.86
-3.78
-4.56
-5.14
-5.55
-5.76
-5.70
-5.21
-4.16
-2.52
-0.43
1.82
3.89
5.52
6.56
6.99
6.89
6.36
5.50
4.42
3.20
1.97
0.86
-0.04
-0.63
-0.90
-0.93
-0.82
-0.73
-0.75
-0.92
-1.18
-1.46
-1.70
-1.88
-2.06
-2.31
-2.67
-3.15
-3.71
-4.33
-5.00
-5.72
-6.46
-7.08
-7.38
-7.09
-6.01
-4.10
-1.54
1.28
3.90
5.90
7.06
7.39
7.06
6.32
5.40
4.41
3.35
2.23
1.08
0.03
-0.79
-1.26
-1.40
-1.33
-1.23
-1.23
-1.37
-1.55
-1.67
-1.64
-1.49
-1.30
-1.16
-1.16
-1.32
-1.64
-2.14
-2.85
-3.76
-4.76
-5.58
-5.86
-5.27
-3.66
-1.14
1.88
4.90
7.46
9.28
10.32
10.68
10.45
9.67
8.34
6.51
4.35
2.22
0.48
-0.55
-0.78
-0.35
0.39
1.10
1.48
1.41
0.83
-0.22
-1.65
-3.28
-4.97
-6.59
-8.08
-9.42
-10.62
-11.76
-12.91
-13.97
-14.73
-14.94
-14.38
-12.96
-10.74
-7.91
-4.78
-1.69
1.26
4.18
7.24
10.57
14.20
18.00
21.71
24.93
26.46
25.36
21.50
15.85
9.89
4.74
0.92
-1.60
-3.12
-4.03
-4.53
-4.80
-5.03
-5.43
-6.10
-6.90
-7.54
-7.71
-7.32
-6.43
-5.21
-3.86
-2.47
-1.03
0.53
2.15
3.57
4.42
4.44
3.60
2.08
0.21
-1.66
-3.20
-4.23
-4.74
-4.95
-5.26
-6.16
-7.97
-10.67
-13.83
-16.71
-18.66
-19.32
-18.66
-16.78
-13.78
-9.70
-4.63
1.29
8.09
15.81
24.47
33.63
42.15
48.23
49.96
46.31
37.49
25.99
14.75
6.07
0.80
-1.74
-2.97
-4.05
-5.31
-6.38
-6.70
-6.25
-5.52
-5.25
-5.95
-7.68
-9.92
-11.84
-12.72
-12.20
-10.57
-8.54
-6.89
-6.15
-6.43
-7.36
-8.36
-8.91
-8.78
-8.15
-7.42
-6.99
-7.07
-7.60
-8.34
-9.04
-9.54
-9.81
-9.90
-9.82
-9.46
-8.68
-7.39
-5.64
-3.65
-1.77
-0.22
0.87
1.54
1.96
2.25
2.46
2.58
2.59
2.49
2.39
2.39
2.56
2.88
3.23
3.47
3.51
3.35
3.09
2.89
2.85
3.00
3.27
3.49
3.49
3.10
2.28
1.12
-0.15
-1.25
-1.91
-1.98
-1.49
-0.58
0.56
1.76
2.92
3.97
4.82
5.34
5.38
4.87
3.87
2.60
1.31
0.24
-0.52
-0.99
-1.26
-1.41
-1.49
-1.49
-1.45
-1.41
-1.48
-1.74
-2.15
-2.56
-2.77
-2.61
-2.08
-1.34
-0.64
-0.22
-0.37
-1.16
-2.50
-4.20
-6.02
-7.63
-8.68
-8.84
-7.89
-5.87
-3.11
-0.17
2.33
3.94
4.53
4.25
3.41
2.24
0.86
-0.70
-2.42
-4.17
-5.72
-6.82
-7.36
-7.43
-7.30
-7.30
-7.64
-8.33
-9.21
-10.05
-10.63
-10.88
-10.82
-10.53
-10.08
-9.47
-8.64
-7.48
-5.96
-4.08
-1.96
0.23
2.36
4.37
6.32
8.33
10.50
12.79
14.99
16.75
17.72
17.68
16.58
14.58
11.95
9.01
6.11
3.50
1.39
-0.10
-0.99
-1.40
-1.51
-1.50
-1.45
-1.34
-1.04
-0.48
0.33
1.20
1.84
1.93
1.27
-0.15
-2.10
-4.14
-5.74
-6.37
-5.70
-3.69
-0.62
2.93
6.27
8.84
10.38
10.95
10.86
10.44
9.87
9.10
8.00
6.44
4.44
2.18
-0.10
-2.24
-4.19
-6.02
-7.79
-9.53
-11.10
-12.34
-13.11
-13.42
-13.44
-13.44
-13.69
-14.35
-15.37
-16.52
-17.42
-17.64
-16.84
-14.83
-11.66
-7.53
-2.80
2.17
7.08
11.69
15.77
19.05
21.22
22.04
21.53
19.95
17.85
15.82
14.25
13.24
12.56
11.87
10.87
9.49
7.86
6.22
4.76
3.55
2.54
1.62
0.76
-0.05
-0.74
-1.27
-1.71
-2.19
-2.79
-3.46
-3.92
-3.76
-2.61
-0.39
2.62
5.87
8.75
10.83
11.99
12.35
12.12
11.43
10.26
8.56
6.37
3.87
1.41
-0.64
-2.07
-2.85
-3.16
-3.30
-3.55
-4.09
-4.93
-5.99
-7.12
-8.24
-9.36
-10.58
-11.98
-13.64
-15.47
-17.27
-18.70
-19.45
-19.25
-18.05
-15.96
-13.26
-10.28
-7.34
-4.65
-2.32
-0.34
1.33
2.84
4.36
6.09
8.14
10.46
12.79
14.70
15.76
15.75
14.76
13.17
11.46
10.03
9.03
8.38
7.84
7.17
6.20
4.82
3.04
0.86
-1.68
-4.44
-7.19
-9.53
-11.01
-11.23
-10.00
-7.45
-3.96
-0.08
3.70
7.03
9.78
11.95
13.60
14.76
15.44
15.63
15.33
14.57
13.39
11.89
10.14
8.25
6.31
4.43
2.64
1.02
-0.37
-1.44
-2.15
-2.49
-2.58
-2.61
-2.80
-3.32
-4.22
-5.45
-6.88
-8.27
-9.37
-9.92
-9.74
-8.80
-7.27
-5.42
-3.61
-2.10
-1.07
-0.55
-0.48
-0.79
-1.41
-2.28
-3.34
-4.47
-5.49
-6.16
-6.21
-5.39
-3.60
-0.96
2.14
5.12
7.41
8.60
8.58
7.58
6.02
4.35
2.85
1.59
0.48
-0.65
-1.96
-3.51
-5.26
-7.09
-8.76
-9.96
-10.35
-9.63
-7.72
-4.82
-1.29
2.40
5.84
8.83
11.29
13.22
14.56
15.24
15.20
14.51
13.38
12.11
10.98
10.12
9.49
8.88
8.09
7.01
5.69
4.33
3.16
2.35
1.87
1.57
1.21
0.54
-0.53
-2.03
-3.84
-5.78
-7.61
-9.04
-9.81
-9.71
-8.67
-6.83
-4.53
-2.18
-0.19
1.21
1.98
2.27
2.28
2.13
1.81
1.18
0.09
-1.46
-3.34
-5.24
-6.89
-8.14
-9.02
-9.71
-10.40
-11.13
-11.76
-12.05
-11.71
-10.59
-8.66
-6.05
-3.02
0.11
2.97
5.21
6.54
6.85
6.28
5.19
4.11
3.53
3.78
4.85
6.42
8.02
9.23
9.83
9.76
9.11
7.94
6.28
4.16
1.72
-0.68
-2.56
-3.50
-3.36
-2.38
-1.10
-0.06
0.34
0.02
-0.86
-2.00
-3.18
-4.38
-5.58
-6.65
-7.23
-6.92
-5.55
-3.32
-0.60
2.09
4.30
5.80
6.61
6.92
6.81
6.21
5.04
3.75
3.05
3.60
5.75
9.30
13.59
17.56
20.13
20.82
20.21
19.43
19.58
21.26
24.36
28.38
32.22
34.75
33.10
26.27
15.55
4.07
-5.00
-10.09
-11.32
-10.63
-10.60
-13.26
-19.51
-29.38
-41.86
-54.44
-63.34
-63.90
-53.14
-31.68
-4.25
21.60
38.19
41.01
30.93
11.66
-7.22
-17.40
-18.07
-12.59
-5.27
1.15
6.35
11.86
18.46
25.63
30.76
30.56
23.16
9.47
-7.20
-23.04
-35.09
-42.05
-43.72
-40.93
-34.64
-25.56
-14.45
-2.93
5.79
8.31
2.80
-9.31
-23.74
-33.60
-35.81
-31.96
-24.34
-16.48
-11.17
-9.38
-10.22
-12.26
-14.57
-17.21
-20.13
-22.37
-22.53
-19.15
-11.74
-1.04
11.08
22.27
30.52
34.13
33.21
29.54
25.52
22.64
21.06
20.10
18.88
16.60
12.98
8.40
3.46
-0.90
-4.16
-5.73
-5.27
-3.01
0.21
3.31
5.49
6.30
5.72
3.96
1.52
-1.35
-4.17
-6.41
-7.75
-8.32
-8.30
-7.97
-7.69
-7.64
-7.79
-7.98
-7.77
-6.96
-5.93
-4.78
-3.39
-1.79
-0.03
1.71
3.20
4.72
6.47
7.85
8.76
9.34
9.53
9.30
8.90
8.98
11.13
16.65
25.04
35.49
46.64
56.58
63.51
66.39
61.21
47.45
32.55
18.83
5.64
-6.60
-17.02
-24.57
-28.36
-28.77
-26.31
-22.48
-20.13
-19.60
-20.70
-22.93
-25.54
-27.44
-28.33
-27.56
-25.21
-22.82
-21.69
-22.60
-25.62
-30.83
-36.40
-41.33
-44.42
-45.29
-44.95
-44.56
-45.08
-46.86
-49.53
-48.32
-42.19
-30.89
-14.69
5.51
28.25
51.14
70.97
84.40
89.22
84.50
72.14
55.90
39.77
26.68
17.70
12.28
9.15
7.42
6.30
5.81
5.93
6.19
5.79
4.11
1.24
-1.93
-4.28
-5.39
-5.36
-4.92
-4.92
-5.92
-8.03
-11.14
-15.17
-19.66
-23.77
-25.98
-24.55
-18.55
-8.72
2.53
12.00
17.40
18.32
16.08
12.88
10.42
9.07
8.10
6.52
3.85
0.62
-2.09
-3.42
-3.22
-1.97
-0.42
0.67
0.83
-0.27
-2.64
-5.95
-9.67
-13.16
-15.92
-17.77
-18.98
-19.00
-18.23
-17.22
-16.31
-15.61
-15.16
-14.93
-14.75
-14.11
-12.24
-8.62
-3.46
2.21
6.76
8.69
7.46
3.90
-0.03
-2.00
-0.36
5.21
13.83
23.64
32.39
38.12
39.61
36.72
29.43
19.76
9.75
1.02
-5.37
-8.90
-9.50
-7.62
-4.24
-0.68
1.88
2.71
1.87
0.15
-1.42
-2.21
-2.17
-1.55
-0.62
0.45
1.10
0.33
-2.97
-9.13
-17.01
-24.03
-27.14
-24.36
-15.95
-4.62
5.75
11.91
12.68
9.19
3.91
-0.80
-3.66
-4.58
-4.17
-3.04
-1.46
0.49
2.61
4.49
5.56
5.47
4.53
3.36
2.85
3.08
3.22
2.00
-1.37
-6.69
-12.81
-18.46
-22.81
-25.72
-27.77
-29.54
-31.11
-31.91
-31.20
-28.50
-23.77
-17.49
-10.29
-2.88
4.28
10.96
17.09
22.59
26.24
27.29
25.53
21.59
16.41
11.10
6.58
3.48
2.03
2.21
3.92
6.95
11.09
15.75
20.21
23.96
26.98
29.76
33.06
37.52
43.18
49.40
54.54
56.68
54.33
47.22
36.27
23.23
9.91
-3.63
-15.90
-25.21
-30.86
-33.29
-33.38
-32.59
-31.77
-31.78
-33.35
-36.57
-41.04
-45.40
-48.13
-47.79
-43.56
-35.40
-24.31
-11.98
0.09
10.85
19.77
26.71
31.78
34.98
36.16
34.97
31.32
24.42
15.19
5.69
-2.24
-7.72
-11.80
-15.32
-18.53
-20.94
-21.81
-20.69
-18.00
-14.93
-12.75
-12.32
-13.69
-16.49
-20.27
-24.56
-28.70
-31.94
-33.57
-32.99
-29.88
-24.32
-16.90
-8.65
-0.79
5.68
10.14
12.68
14.32
16.76
21.80
30.37
41.90
54.34
65.00
71.62
73.22
70.38
64.67
57.68
50.28
42.44
33.70
23.90
13.47
3.33
-5.67
-13.13
-19.26
-24.59
-29.44
-33.74
-36.88
-38.24
-37.64
-35.57
-33.03
-31.06
-30.18
-30.11
-29.93
-28.50
-25.09
-19.60
-12.64
-5.07
2.29
8.86
14.33
18.55
21.38
22.85
23.16
22.76
22.09
21.33
20.18
17.97
14.07
8.37
1.45
-5.53
-11.31
-15.09
-16.83
-17.06
-16.57
-15.95
-15.39
-14.81
-14.12
-13.41
-12.96
-13.02
-13.56
-14.15
-14.07
-12.61
-9.36
-4.33
2.05
9.18
16.43
23.26
29.29
34.22
37.83
39.95
40.45
39.33
36.67
32.63
27.53
21.77
15.82
10.21
5.42
1.78
-0.57
-1.72
-2.01
