1660332165.00
64.000000
-0.00
-0.00
-0.00
-0.00
-0.00
-0.00
-0.00
-0.00
-0.00
-0.00
0.00
0.01
0.01
-0.00
-0.03
-0.05
-0.05
0.00
0.13
0.36
0.66
1.01
1.37
1.72
2.06
2.40
2.79
3.24
3.80
4.42
5.06
5.67
6.21
6.68
7.14
7.67
8.31
9.16
10.14
11.10
11.92
12.51
12.92
13.34
14.00
15.10
16.90
19.21
21.74
24.15
26.25
28.09
29.99
32.43
35.77
40.42
46.01
51.97
57.64
62.59
66.85
70.94
75.66
81.65
89.52
98.74
108.36
117.29
124.77
130.76
135.98
142.02
147.89
156.05
167.06
180.75
195.48
207.93
213.61
208.07
188.44
154.41
108.77
55.36
-1.95
-60.65
-119.83
-179.52
-239.54
-298.91
-355.96
-408.64
-455.92
-497.48
-533.41
-563.60
-587.43
-603.77
-611.04
-607.35
-590.32
-557.75
-508.01
-441.17
-359.78
-268.90
-175.12
-84.93
-3.20
67.61
126.87
175.06
212.81
240.66
259.35
270.19
275.14
276.36
275.54
273.31
269.28
262.46
251.99
237.73
220.48
201.76
183.29
166.38
151.56
138.61
126.80
115.37
103.92
92.56
81.75
71.98
63.48
56.08
49.36
42.88
36.39
29.93
23.75
18.13
13.24
9.20
5.88
3.10
0.67
-1.53
-3.61
-5.56
-7.32
-8.77
-9.71
-10.01
-9.54
-8.30
-6.43
-4.22
-2.09
-0.48
0.28
0.12
-0.83
-2.24
-3.75
-5.15
-6.32
-7.21
-7.81
-8.04
-7.89
-7.35
-6.50
-5.50
-4.46
-3.53
-2.78
-2.27
-2.05
-2.11
-2.43
-2.90
-3.39
-3.81
-4.14
-4.37
-4.50
-4.50
-4.32
-3.99
-3.62
-3.38
-3.42
-3.73
-4.10
-4.18
-3.60
-2.19
-0.05
2.44
4.71
6.24
6.72
6.10
4.63
2.70
0.70
-1.08
-2.51
-3.54
-4.18
-4.40
-4.18
-3.50
-2.46
-1.25
-0.08
0.89
1.55
1.93
2.09
2.13
2.15
2.21
2.37
2.63
2.96
3.28
3.53
3.64
3.59
3.39
2.98
2.34
1.43
0.34
-0.74
-1.51
-1.70
-1.18
-0.09
1.18
2.16
2.42
1.80
0.42
-1.37
-3.19
-4.74
-5.88
-6.63
-7.02
-7.06
-6.71
-5.96
-4.90
-3.71
-2.64
-1.88
-1.48
-1.36
-1.39
-1.49
-1.67
-1.98
-2.43
-2.93
-3.33
-3.46
-3.27
-2.86
-2.40
-2.06
-1.97
-2.11
-2.42
-2.70
-2.74
-2.26
-1.05
1.00
3.74
6.77
9.54
11.52
12.36
12.00
10.63
8.57
6.18
3.74
1.49
-0.35
-1.60
-2.12
-1.94
-1.22
-0.25
0.66
1.32
1.59
1.46
1.02
0.39
-0.30
-1.02
-1.79
-2.64
-3.58
-4.53
-5.38
-6.00
-6.34
-6.49
-6.64
-7.03
-7.88
-9.22
-10.94
-12.70
-14.01
-14.36
-13.36
-10.87
-7.09
-2.51
2.26
6.60
10.10
12.57
14.03
14.57
14.30
13.32
11.71
9.66
7.45
5.43
3.87
2.91
2.47
2.33
2.24
2.07
1.79
1.47
1.15
0.80
0.29
-0.51
-1.60
-2.88
-4.16
-5.29
-6.20
-6.97
-7.70
-8.50
-9.41
-10.43
-11.57
-12.77
-13.87
-14.56
-14.38
-12.90
-9.91
-5.54
-0.30
5.06
9.73
13.16
15.06
15.48
14.66
12.94
10.66
8.11
5.53
3.16
1.17
-0.28
-1.12
-1.39
-1.24
-0.94
-0.72
-0.75
-1.04
-1.48
-1.91
-2.21
-2.38
-2.48
-2.64
-2.96
-3.50
-4.30
-5.37
-6.72
-8.30
-9.98
-11.53
-12.62
-12.88
-11.95
-9.65
-6.03
-1.48
3.40
7.90
11.43
13.66
14.57
14.41
13.47
12.01
10.19
8.15
6.01
3.93
2.09
0.63
-0.36
-0.87
-0.98
-0.79
-0.46
-0.14
0.01
-0.12
-0.56
-1.26
-2.14
-3.10
-4.06
-4.98
-5.83
-6.62
-7.35
-8.09
-8.92
-9.86
-10.80
-11.45
-11.38
-10.13
-7.39
-3.21
1.97
7.37
12.13
15.55
17.30
17.50
16.55
14.96
13.14
11.30
9.53
7.82
6.21
4.79
3.68
2.93
2.54
2.41
2.47
2.63
2.83
3.00
3.00
2.70
2.01
0.91
-0.50
-2.06
-3.57
-4.89
-5.96
-6.82
-7.60
-8.47
-9.55
-10.79
-11.91
-12.46
-11.89
-9.90
-6.47
-2.03
2.76
7.16
10.64
12.91
13.96
13.93
13.02
11.38
9.17
6.56
3.84
1.32
-0.69
-1.97
-2.52
-2.47
-2.10
-1.72
-1.55
-1.71
-2.17
-2.82
-3.52
-4.15
-4.65
-5.03
-5.36
-5.72
-6.16
-6.71
-7.39
-8.23
-9.22
-10.31
-11.26
-11.67
-11.07
-9.13
-5.80
-1.43
3.34
7.77
11.30
13.62
14.73
14.76
13.89
12.29
10.12
7.63
5.12
2.93
1.33
0.44
0.17
0.30
0.56
0.73
0.67
0.37
-0.11
-0.69
-1.31
-1.94
-2.59
-3.27
-4.01
-4.83
-5.75
-6.84
-8.14
-9.66
-11.33
-12.92
-14.06
-14.29
-13.23
-10.71
-6.90
-2.25
2.56
6.87
10.18
12.20
12.96
12.62
11.47
9.81
7.93
6.07
4.42
3.12
2.26
1.85
1.83
2.04
2.32
2.46
2.35
1.99
1.46
0.89
0.42
0.07
-0.19
-0.43
-0.72
-1.09
-1.60
-2.30
-3.33
-4.78
-6.66
-8.80
-10.77
-12.00
-11.95
-10.31
-7.15
-2.88
1.80
6.18
9.73
12.14
13.38
13.54
12.79
11.34
9.41
7.24
5.11
3.25
1.84
0.90
0.38
0.12
-0.02
-0.10
-0.13
-0.08
0.07
0.24
0.29
0.04
-0.57
-1.50
-2.57
-3.57
-4.42
-5.16
-5.99
-7.07
-8.48
-10.07
-11.55
-12.52
-12.59
-11.51
-9.19
-5.80
-1.69
2.59
6.47
9.49
11.39
12.13
11.82
10.65
8.80
6.47
3.94
1.55
-0.32
-1.39
-1.62
-1.19
-0.46
0.20
0.57
0.57
0.29
-0.14
-0.61
-1.11
-1.65
-2.30
-3.07
-3.97
-4.99
-6.15
-7.50
-9.06
-10.76
-12.38
-13.56
-13.91
-13.12
-11.11
-8.04
-4.28
-0.25
3.63
7.02
9.63
11.23
11.64
10.84
8.98
6.39
3.46
0.58
-1.91
-3.75
-4.76
-4.85
-4.08
-2.65
-0.95
0.62
1.65
1.91
1.36
0.07
-1.75
-3.90
-6.16
-8.33
-10.26
-11.91
-13.36
-14.70
-16.06
-17.40
-18.52
-19.07
-18.64
-16.92
-13.81
-9.50
-4.46
0.68
5.33
9.04
11.59
12.96
13.30
12.82
11.75
10.32
8.74
7.19
5.84
4.77
4.02
3.56
3.31
3.15
2.97
2.67
2.26
1.82
1.49
1.38
1.54
1.89
2.27
2.51
2.43
1.94
0.97
-0.52
-2.50
-4.84
-7.25
-9.29
-10.47
-10.40
-8.90
-6.18
-2.71
0.84
3.79
5.65
6.23
5.61
4.16
2.37
0.72
-0.43
-0.90
-0.73
-0.10
0.76
1.60
2.24
2.60
2.64
2.43
2.08
1.78
1.76
2.25
3.39
5.21
7.60
10.34
13.20
15.93
18.26
19.88
20.42
19.54
17.07
13.16
8.37
3.56
-0.34
-2.67
-3.19
-2.20
-0.28
1.81
3.43
4.05
3.27
0.91
-2.99
-8.01
-13.40
-18.28
-21.85
-23.71
-23.91
-22.85
-21.03
-18.84
-16.42
-13.84
-11.09
-8.33
-5.76
-3.55
-1.77
-0.38
0.77
1.76
2.66
3.46
4.18
4.94
5.87
7.12
8.74
10.72
12.97
15.46
18.19
21.14
24.18
27.02
29.25
30.43
30.26
28.68
25.86
22.15
17.93
13.56
9.33
5.47
2.15
-0.51
-2.45
-3.64
-4.19
-4.25
-4.09
-4.00
-4.23
-4.92
-5.98
-7.17
-8.16
-8.66
-8.54
-7.89
-6.89
-5.80
-4.87
-4.28
-4.22
-4.77
-5.89
-7.32
-8.65
-9.37
-9.10
-7.73
-5.47
-2.75
-0.03
2.31
4.07
5.17
5.55
5.14
3.85
1.66
-1.27
-4.59
-7.72
-10.04
-11.02
-10.44
-8.52
-5.87
-3.28
-1.44
-0.64
-0.69
-1.02
-0.99
-0.24
1.11
2.49
3.17
2.57
0.54
-2.58
-6.10
-9.22
-11.31
-12.06
-11.51
-9.91
-7.62
-4.94
-2.13
0.62
3.13
5.27
6.96
8.20
9.09
9.73
10.14
10.27
10.04
9.47
8.72
8.12
7.98
8.45
9.44
10.68
11.94
13.14
14.44
16.04
17.95
19.86
21.15
21.17
19.52
16.28
12.01
7.48
3.39
0.19
-2.01
-3.29
-3.75
-3.52
-2.73
-1.63
-0.61
-0.11
-0.51
-1.96
-4.27
-7.02
-9.67
-11.80
-13.19
-13.89
-14.10
-14.03
-13.83
-13.55
-13.26
-13.05
-13.03
-13.29
-13.81
-14.39
-14.73
-14.58
-13.84
-12.56
-10.92
-9.10
-7.26
-5.54
-4.13
-3.24
-3.06
-3.64
-4.77
-5.96
-6.59
-6.08
-4.15
-0.91
3.17
7.44
11.30
14.33
16.35
17.36
17.43
16.70
15.31
13.49
11.50
9.55
7.83
6.37
5.10
3.91
2.71
1.45
0.16
-1.08
-2.18
-3.03
-3.58
-3.86
-4.00
-4.16
-4.49
-5.10
-5.98
-7.09
-8.31
-9.46
-10.26
-10.37
-9.47
-7.34
-4.04
0.09
4.49
8.51
11.60
13.46
14.04
13.51
12.19
10.43
8.56
6.79
5.25
4.00
3.03
2.32
1.85
1.59
1.48
1.43
1.34
1.15
0.82
0.39
-0.04
-0.39
-0.59
-0.68
-0.80
-1.20
-2.14
-3.81
-6.22
-9.11
-11.99
-14.22
-15.19
-14.56
-12.30
-8.77
-4.57
-0.39
3.24
5.97
7.72
8.59
8.79
8.53
7.99
7.29
6.51
5.72
4.96
4.26
3.66
3.14
2.68
2.19
1.60
0.86
-0.04
-1.05
-2.03
-2.84
-3.38
-3.68
-3.91
-4.38
-5.43
-7.31
-10.12
-13.74
-17.82
-21.83
-25.14
-27.15
-27.34
-25.51
-21.81
-16.78
-11.20
-5.94
-1.69
1.20
2.77
3.41
3.63
3.88
4.43
5.30
6.38
7.52
8.66
9.82
11.09
12.52
14.08
15.67
17.11
18.25
18.95
19.14
18.78
17.94
16.71
15.23
13.65
12.00
10.27
8.36
6.14
3.50
0.41
-2.94
-6.12
-8.39
-8.99
-7.31
-3.26
2.67
9.52
16.19
21.79
25.84
28.24
29.14
28.70
27.08
24.53
21.44
18.36
15.82
14.07
13.03
12.25
11.20
9.52
7.13
4.25
1.18
-1.85
-4.77
-7.68
-10.69
-13.84
-17.04
-20.13
-22.95
-25.44
-27.65
-29.73
-31.82
-34.06
-36.46
-38.87
-40.98
-42.25
-42.16
-40.26
-36.43
-30.94
-24.45
-17.81
-11.77
-6.82
-3.09
-0.44
1.40
2.61
3.34
3.69
3.79
3.87
4.14
4.79
5.82
7.12
8.46
9.68
10.66
11.41
11.97
12.36
12.55
12.42
11.86
10.79
9.20
7.16
4.76
2.05
-0.97
-4.34
-8.16
-12.45
-17.12
-21.94
-26.46
-30.09
-32.15
-32.09
-29.66
-25.05
-18.93
-12.23
-5.89
-0.56
3.51
6.44
8.53
10.02
11.03
11.54
11.56
11.14
10.40
9.48
8.51
7.53
6.61
5.82
5.32
5.21
5.54
6.21
6.96
7.51
7.62
7.23
6.41
5.38
4.30
3.27
2.20
0.87
-0.96
-3.48
-6.77
-10.81
-15.44
-20.33
-25.01
-28.75
-30.80
-30.46
-27.42
-21.87
-14.59
-6.71
0.56
6.22
9.77
11.21
10.94
9.60
7.90
6.44
5.68
5.82
6.77
8.21
9.63
10.54
10.60
9.80
8.44
7.04
6.18
6.26
7.33
9.05
10.82
11.95
11.95
10.73
8.58
6.08
3.77
1.99
0.69
-0.37
-1.55
-3.06
-4.93
-7.00
-8.97
-10.51
-11.29
-11.04
-9.64
-7.15
-3.84
-0.16
3.42
6.47
8.70
9.98
10.29
9.76
8.63
7.29
6.13
5.44
5.33
5.72
6.40
7.19
7.99
8.78
9.55
10.25
10.72
10.81
10.38
9.39
7.91
6.07
4.03
2.00
0.18
-1.30
-2.44
-3.39
-4.39
-5.62
-7.07
-8.46
-9.30
-9.05
-7.36
-4.23
-0.06
4.52
8.80
12.21
14.47
15.54
15.54
14.66
13.07
10.94
8.45
5.84
3.41
1.44
0.11
-0.54
-0.67
-0.52
-0.32
-0.25
-0.35
-0.61
-0.96
-1.36
-1.79
-2.33
-3.06
-4.08
-5.45
-7.15
-9.10
-11.17
-13.24
-15.25
-17.19
-19.04
-20.64
-21.62
-21.47
-19.69
-16.03
-10.62
-4.06
2.77
8.96
13.81
16.97
18.47
18.57
17.61
15.92
13.75
11.31
8.81
6.47
4.50
2.99
1.94
1.26
0.76
0.31
-0.15
-0.60
-0.97
-1.23
-1.39
-1.52
-1.70
-1.98
-2.35
-2.79
-3.28
-3.87
-4.63
-5.61
-6.85
-8.26
-9.65
-10.67
-10.92
-9.98
-7.59
-3.80
1.02
6.17
10.87
14.42
16.47
17.02
16.39
14.99
13.22
11.30
9.35
7.45
5.67
4.16
2.99
2.17
1.62
1.17
0.67
0.06
-0.62
-1.27
-1.83
-2.31
-2.80
-3.40
-4.20
-5.18
-6.27
-7.39
-8.48
-9.57
-10.72
-12.01
-13.45
-14.84
-15.83
-15.90
-14.60
-11.68
-7.33
-2.13
3.09
7.51
10.60
12.23
12.59
11.97
10.66
8.86
6.71
4.42
2.29
0.63
-0.35
-0.62
-0.36
0.19
0.76
1.19
1.43
1.47
1.26
0.78
-0.01
-1.06
-2.26
-3.46
-4.55
-5.52
-6.51
-7.70
-9.25
-11.16
-13.21
-14.94
-15.74
-15.10
-12.75
-8.83
-3.87
1.33
5.96
9.44
11.50
12.22
11.86
10.73
9.11
7.21
5.22
3.34
1.78
0.71
0.22
0.23
0.60
1.12
1.66
2.13
2.52
2.81
3.01
3.10
3.08
2.98
2.76
2.35
1.63
0.45
-1.30
-3.59
-6.27
-9.03
-11.44
-13.06
-13.51
-12.52
-10.10
-6.49
-2.21
2.14
6.00
8.99
10.97
12.00
12.23
11.82
10.93
9.66
8.17
6.61
5.17
3.99
3.18
2.76
2.66
2.77
2.97
3.11
3.10
2.83
2.27
1.44
0.41
-0.68
-1.72
-2.58
-3.25
-3.75
-4.21
-4.78
-5.67
-6.98
-8.67
-10.49
-11.99
-12.59
-11.83
-9.51
-5.86
-1.45
2.99
6.80
9.53
11.01
11.30
10.60
9.15
7.22
5.09
3.02
1.24
-0.10
-0.93
-1.28
-1.27
-1.04
-0.80
-0.70
-0.87
-1.33
-2.04
-2.89
-3.68
-4.20
-4.25
-3.75
-2.74
-1.47
-0.31
0.32
0.07
-1.25
-3.57
-6.53
-9.56
-11.97
-13.13
-12.63
-10.44
-6.96
-2.81
1.26
4.65
6.98
8.16
8.27
7.53
6.24
4.70
3.20
1.98
1.18
0.88
1.05
1.60
2.39
3.24
4.02
4.61
4.94
4.99
4.76
4.27
3.55
2.65
1.72
0.95
0.54
0.55
0.82
1.00
0.67
-0.52
-2.60
-5.22
-7.70
-9.23
-9.16
-7.17
-3.34
1.85
7.54
12.80
16.90
19.46
20.47
20.18
18.99
17.28
15.42
13.59
11.93
10.65
9.92
9.71
9.73
9.42
8.18
5.57
1.31
-4.47
-11.16
-17.85
-23.66
-28.02
-30.87
-32.52
-32.34
-30.02
-25.87
-20.83
-15.85
-11.41
-7.62
-4.34
-1.37
1.54
4.32
6.78
8.64
9.71
9.91
9.38
8.40
7.30
6.28
5.13
3.44
0.88
-2.50
-6.24
-9.55
-11.65
-12.08
-10.88
-8.67
-6.39
-4.57
-3.47
-3.03
-2.93
-2.75
-1.96
-0.01
3.27
7.63
12.29
16.12
18.09
17.70
15.22
11.61
7.98
5.06
3.04
1.59
0.35
-0.83
-1.70
-1.91
-1.32
-0.27
0.61
0.64
-0.45
-2.48
-4.87
-6.97
-8.36
-8.99
-9.10
-9.04
-9.02
-9.03
-8.90
-8.42
-7.43
-6.01
-4.27
-2.47
-0.87
0.37
1.20
1.69
1.96
2.15
2.30
2.41
2.44
2.37
2.22
2.02
1.82
1.65
1.49
1.26
0.88
0.31
-0.34
-0.80
-0.71
0.24
2.09
4.58
7.18
9.27
10.37
10.29
9.15
7.28
5.10
2.97
1.16
-0.11
-0.70
-0.56
0.18
1.26
2.32
2.99
3.05
2.46
1.35
-0.05
-1.51
-2.90
-4.16
-5.33
-6.46
-7.61
-8.82
-10.15
-11.65
-13.26
-14.99
-16.79
-18.65
-20.49
-22.16
-23.43
-23.91
-23.20
-20.95
-17.08
-11.85
-5.87
0.07
5.22
9.08
11.48
12.51
12.42
11.47
9.96
8.16
6.45
5.24
4.85
5.47
6.99
9.08
11.25
13.02
14.06
14.32
13.96
13.34
12.85
12.75
13.10
13.66
13.97
13.52
11.84
8.71
4.19
-1.39
-7.50
-13.53
-18.90
-23.10
-25.79
-26.78
-26.08
-23.91
-20.62
-16.71
-12.67
-8.94
-5.78
-3.33
-1.53
-0.27
0.62
1.21
1.59
1.81
1.98
2.28
2.90
4.03
5.73
7.92
10.38
12.77
14.71
15.88
16.05
15.15
13.27
10.61
7.47
4.15
0.88
-2.18
-4.95
-7.43
-9.60
-11.39
-12.67
-13.22
-12.83
-11.37
-8.88
-5.56
-1.77
2.09
5.64
8.59
10.72
11.84
11.83
10.67
8.55
5.85
3.05
0.63
-1.13
-2.16
-2.57
-2.53
-2.14
-1.42
-0.29
1.42
3.84
7.09
11.26
16.26
21.79
27.22
31.66
34.13
33.87
30.61
24.74
17.24
9.39
2.40
-2.92
-6.27
-7.77
-7.80
-6.73
-4.86
-2.42
0.33
3.10
5.60
7.57
8.88
9.49
9.43
8.73
7.40
5.48
3.05
0.27
-2.59
-5.25
-7.41
-8.86
-9.47
-9.30
-8.58
-7.67
-7.00
-6.96
-7.77
-9.44
-11.78
-14.46
-17.09
-19.40
-21.23
-22.58
-23.56
-24.26
-24.65
-24.55
-23.66
-21.71
-18.68
-14.88
-10.90
-7.40
-4.90
-3.56
-3.19
-3.37
-3.66
-3.77
-3.62
-3.29
-2.89
-2.44
-1.81
-0.82
0.75
3.05
6.20
10.24
15.23
21.16
27.88
34.94
41.53
46.57
48.93
47.75
42.82
34.68
24.52
13.85
4.12
-3.66
-9.05
-12.06
-13.00
-12.33
-10.49
-7.90
-5.00
-2.17
0.26
2.10
3.33
4.12
4.72
5.37
6.18
7.09
7.85
8.11
7.54
5.98
3.53
0.52
-2.58
-5.35
-7.58
-9.30
-10.74
-12.18
-13.81
-15.67
-17.59
-19.31
-20.54
-21.11
-21.01
-20.39
-19.51
-18.71
-18.29
-18.49
-19.44
-21.08
-23.07
-24.86
-25.79
-25.28
-23.11
-19.47
-15.00
-10.51
-6.72
-4.01
-2.35
-1.42
-0.81
-0.19
0.57
1.48
2.56
3.92
5.86
8.72
12.81
18.22
24.71
31.72
38.39
43.71
46.72
46.77
43.70
38.08
31.07
24.14
18.63
15.26
13.96
13.92
14.00
13.16
10.83
7.00
2.13
-3.01
-7.62
-10.95
-12.51
-12.11
-9.91
-6.42
-2.42
1.19
3.61
4.26
2.99
0.09
-3.76
-7.68
-10.90
-12.94
-13.78
-13.74
-13.34
-13.03
-13.03
-13.34
-13.75
-14.07
-14.17
-14.05
-13.82
-13.62
-13.52
-13.51
-13.52
-13.42
-13.16
-12.81
-12.59
-12.77
-13.59
-15.17
-17.36
-19.85
-22.11
-23.57
-23.72
-22.25
-19.13
-14.69
-9.50
-4.23
0.57
4.60
7.93
10.84
13.67
16.68
19.95
23.45
27.09
30.89
34.96
39.51
44.70
50.52
56.55
62.02
65.87
67.17
65.47
61.09
55.04
48.69
43.28
39.58
37.79
37.60
38.31
39.01
38.57
35.83
29.84
20.28
7.60
-6.99
-21.96
-35.89
-47.87
-57.51
-64.78
-69.67
-72.10
-72.00
-69.51
-65.10
-59.62
-54.01
-49.03
-45.03
-41.93
-39.43
-37.20
-35.08
-33.12
-31.48
-30.28
-29.43
-28.70
-27.77
-26.41
-24.59
-22.42
-20.12
-17.95
-16.02
-14.38
-12.94
-11.60
-10.25
-8.91
-7.63
-6.50
-5.54
-4.65
-3.64
-2.36
-0.77
0.95
2.48
3.49
3.85
3.70
3.44
3.65
4.86
7.41
11.31
16.25
21.60
26.58
30.45
32.73
33.28
32.34
30.34
27.81
25.16
22.67
20.45
18.53
16.82
15.19
13.48
11.52
9.21
6.58
3.74
0.88
-1.80
-4.14
-5.99
-7.26
-7.95
-8.18
-8.18
-8.22
-8.46
-8.89
-9.27
-9.27
-8.65
-7.40
-5.77
-4.18
-2.97
-2.23
-1.67
-0.79
0.93
3.72
7.48
11.75
16.04
19.95
23.43
26.64
29.84
33.24
36.90
40.78
44.79
48.82
52.66
55.90
57.96
58.16
55.98
51.27
44.34
35.91
26.92
18.27
10.62
4.30
-0.68
-4.58
-7.71
-10.36
-12.62
-14.39
-15.46
-15.60
-14.75
-13.07
-10.94
-8.87
-7.42
-6.95
-7.51
-8.71
-9.74
-9.66
-7.66
-3.41
2.82
10.30
18.18
25.82
33.00
39.92
46.93
54.31
62.12
70.01
77.31
83.11
86.37
86.21
82.19
74.41
63.59
50.80
37.13
23.49
10.40
-1.88
-13.25
-23.60
-32.75
-40.53
-46.85
-51.72
-55.33
-57.88
-59.58
-60.51
-60.63
-59.84
-58.06
-55.37
-52.07
-48.62
-45.54
-43.17
-41.58
-40.56
-39.71
-38.64
-37.03
-34.81
-32.04
-28.86
-25.38
-21.70
-17.94
-14.25
-10.89
-8.11
-6.19
-5.24
-5.21
-5.93
-7.15
-8.64
-10.17
-11.46
-12.15
-11.86
-10.30
-7.48
-3.78
0.18
3.74
6.44
8.12
8.91
8.96
8.40
7.20
5.32
2.80
-0.17
-3.23
-6.05
-8.39
-10.14
-11.33
-12.02
-12.36
-12.44
-12.38
-12.24
-12.06
-11.83
-11.51
-11.10
-10.58
-9.94
-9.15
-8.21
-7.11
-5.92
-4.76
-3.82
-3.23
-3.07
-3.33
-3.92
-4.70
-5.55
-6.36
-7.04
-7.51
-7.75
-7.77
-7.58
-7.22
-6.70
-6.05
-5.34
-4.69
-4.29
-4.36
-5.01
-6.21
-7.76
-9.32
-10.59
-11.39
-11.81
-12.21
-13.02
-14.60
-17.05
-20.09
-23.23
-25.97
-28.00
-29.33
-30.22
-31.01
-31.99
-33.30
-34.90
-36.61
-38.02
-38.61
-37.71
-34.76
-29.52
-22.21
-13.52
-4.43
4.09
11.31
16.87
20.74
23.06
24.14
24.29
23.86
23.18
22.51
22.02
21.72
21.47
21.07
20.33
19.15
17.63
15.99
14.49
13.35
12.58
12.04
11.49
10.70
9.59
8.22
6.87
5.83
5.32
5.34
5.66
5.84
5.41
3.99
1.55
-1.62
-4.91
-7.53
-8.70
-7.91
-4.96
-0.14
5.95
12.44
18.48
23.38
26.77
28.57
28.93
28.15
26.54
24.45
22.19
20.07
18.29
16.98
16.11
15.54
15.07
14.54
13.87
13.08
12.26
11.48
10.80
10.21
9.64
9.03
8.31
7.45
6.44
5.35
4.24
3.18
2.17
1.09
-0.24
-1.95
-4.04
-6.31
-8.35
-9.74
-10.12
-9.38
-7.64
-5.21
-2.49
0.14
2.39
4.10
5.23
5.90
6.27
6.47
6.57
6.54
6.36
5.98
5.42
4.74
3.99
3.19
2.33
1.41
0.46
-0.44
-1.18
-1.73
-2.13
-2.52
-3.09
-3.96
-5.17
-6.59
-7.97
-9.08
-9.79
-10.15
-10.41
-10.87
-11.80
-13.34
-15.48
-18.07
-20.86
-23.43
-25.30
-25.91
-24.85
-22.02
-17.72
-12.61
-7.54
-3.20
0.00
2.05
3.19
3.73
3.91
3.81
3.43
2.75
1.83
0.78
-0.25
-1.14
-1.84
-2.36
-2.74
-2.99
-3.10
-3.05
-2.81
-2.40
-1.95
-1.59
-1.47
-1.72
-2.37
-3.37
-4.62
-5.94
-7.16
-8.20
-9.04
-9.78
-10.56
-11.49
-12.64
-14.03
-15.65
-17.48
-19.44
-21.30
-22.69
-23.10
-22.09
-19.47
-15.43
-10.50
-5.39
-0.76
3.00
5.74
7.52
8.52
8.92
8.89
8.58
8.14
7.62
7.05
6.43
5.77
5.12
4.55
4.12
3.83
3.65
3.55
3.50
3.50
3.51
3.45
3.21
2.71
1.95
1.07
0.22
-0.48
-1.02
-1.50
-2.09
-2.89
-3.90
-5.00
-6.04
-6.88
-7.54
-8.14
-8.83
-9.76
-10.99
-12.44
-13.93
-15.17
-15.83
-15.62
-14.33
-11.94
-8.62
-4.73
-0.67
3.13
6.42
9.04
10.96
12.21
12.84
12.93
12.60
12.00
11.28
10.57
9.94
9.42
9.03
8.79
8.73
8.84
9.07
9.32
9.50
9.53
9.39
9.08
8.63
8.07
7.46
6.81
6.14
5.45
4.70
3.88
2.95
1.89
0.68
-0.74
-2.40
-4.32
-6.44
-8.64
-10.66
-12.16
-12.76
-12.18
-10.30
-7.26
-3.45
0.57
4.25
7.18
9.17
10.29
10.76
10.83
10.71
10.49
10.14
9.63
8.94
8.10
7.19
6.32
5.55
4.89
4.31
3.75
3.17
2.58
1.99
1.43
0.92
0.47
0.05
-0.40
-0.99
-1.86
-3.10
-4.70
-6.57
-8.50
-10.30
-11.81
-12.97
-13.85
-14.55
-15.27
-16.11
-17.14
-18.19
-18.91
-18.80
-17.37
-14.40
-10.05
-4.91
0.23
4.68
7.99
10.13
11.32
11.86
11.98
11.84
11.50
11.00
10.42
9.79
9.13
8.41
7.62
6.82
6.10
5.58
5.31
5.24
5.26
5.23
5.04
4.63
3.99
3.16
2.21
1.20
0.15
-0.91
-2.02
-3.22
-4.53
-5.90
-7.28
-8.55
-9.65
-10.53
-11.25
-11.91
-12.68
-13.72
-15.10
-16.69
-18.13
-18.82
-18.18
-15.87
-11.98
-7.07
-1.97
2.52
5.87
8.00
9.12
9.59
9.67
9.51
9.14
8.59
7.96
7.37
6.94
6.70
6.55
6.35
5.97
5.41
4.72
4.05
3.56
3.29
3.19
3.13
2.96
2.57
1.94
1.16
0.32
-0.49
-1.26
-2.05
-2.92
-3.94
-5.13
-6.41
-7.66
-8.77
-9.68
-10.47
-11.29
-12.31
-13.61
-15.10
-16.52
-17.49
-17.62
-16.61
-14.34
-10.89
-6.53
-1.66
3.24
7.70
11.34
13.99
15.62
16.37
16.43
16.00
15.24
14.31
13.36
12.51
11.88
11.49
11.32
11.25
11.17
10.98
10.63
10.13
9.55
8.94
8.32
7.69
7.02
6.27
5.47
4.67
3.93
3.24
2.51
1.59
0.34
-1.31
-3.32
-5.56
-7.82
-9.84
-11.36
-12.13
-11.94
-10.65
-8.30
-5.11
-1.45
2.24
5.58
8.30
10.26
11.46
11.97
11.89
11.38
10.58
9.66
8.77
7.99
7.36
6.82
6.31
5.75
5.12
4.40
3.67
2.99
2.48
2.18
2.04
1.90
1.54
0.73
-0.62
-2.44
-4.57
-6.84
-9.18
-11.67
-14.48
-17.78
-21.66
-26.14
-31.11
-36.47
-41.98
-47.30
-51.89
-55.17
-56.72
-56.55
-55.12
-53.32
-52.13
-52.26
-53.85
-56.47
-59.19
-60.91
-60.57
-57.38
-51.00
-41.60
-29.91
-17.10
-4.50
6.72
15.84
22.73
27.70
31.33
34.16
36.57
38.74
40.70
42.45
43.93
45.09
45.85
46.15
45.96
45.30
44.24
42.86
41.19
39.22
36.86
34.07
30.88
27.41
23.85
20.34
16.91
13.46
9.83
5.92
1.81
-2.17
-5.51
-7.67
-8.18
-6.86
-3.81
0.58
5.73
11.05
16.00
20.21
23.52
25.89
27.39
28.09
28.09
27.52
26.54
25.38
24.28
23.42
22.81
22.38
21.95
21.38
20.64
19.80
19.02
18.37
17.85
17.33
16.64
15.68
14.47
13.16
11.94
10.94
10.15
9.40
8.49
7.25
5.68
3.86
2.01
0.32
-1.00
-1.82
-2.02
-1.52
-0.31
1.53
3.81
6.27
8.69
10.90
12.78
14.32
15.50
16.31
16.77
16.96
16.98
16.89
16.72
16.41
15.89
15.11
14.10
12.98
11.86
10.83
9.88
8.94
7.91
6.71
5.27
3.58
1.69
-0.36
-2.49
-4.60
-6.61
-8.47
-10.14
-11.71
-13.33
-15.24
-17.69
-20.76
-24.27
-27.76
-30.53
-31.91
-31.43
-29.03
-25.03
-20.10
-15.00
-10.40
-6.71
-4.08
-2.41
-1.46
-1.00
-0.82
-0.83
-0.97
-1.22
-1.53
-1.89
-2.28
-2.72
-3.26
-3.89
-4.57
-5.21
-5.75
-6.17
-6.54
-6.92
-7.35
-7.81
-8.21
-8.49
-8.68
-8.86
-9.15
-9.59
-10.11
-10.60
-10.96
-11.17
-11.32
-11.59
-12.14
-13.06
-14.40
-16.12
-18.05
-19.98
-21.51
-22.21
-21.67
-19.69
-16.38
-12.14
-7.55
-3.19
0.55
3.52
5.73
7.29
8.32
8.85
8.94
8.66
8.13
7.49
6.87
6.31
5.77
5.22
4.61
3.97
3.33
2.72
2.20
1.75
1.40
1.15
0.96
0.78
0.56
0.22
-0.24
-0.76
-1.25
-1.61
-1.85
-2.04
-2.31
-2.76
-3.44
-4.33
-5.40
-6.63
-8.01
-9.49
-10.85
-11.78
-11.87
-10.81
-8.47
-5.03
-0.88
3.44
7.41
10.66
13.02
14.49
15.20
15.30
14.93
14.22
13.31
12.33
11.45
10.80
10.42
10.26
10.19
10.04
9.64
8.93
7.92
6.72
5.50
4.42
3.59
2.99
2.53
2.02
1.35
0.46
-0.59
-1.69
-2.77
-3.83
-4.96
-6.30
-7.91
-9.78
-11.79
-13.74
-15.34
-16.30
-16.35
-15.31
-13.16
-10.06
-6.38
-2.56
0.98
3.94
6.18
7.73
8.66
9.12
9.22
9.11
8.92
8.74
8.58
8.39
8.09
7.64
7.05
6.41
5.80
5.28
4.83
4.37
3.86
3.28
2.71
2.21
1.78
1.34
0.76
-0.06
-1.11
-2.31
-3.52
-4.62
-5.60
-6.52
-7.48
-8.59
-9.90
-11.47
-13.30
-15.41
-17.73
-20.04
-21.99
-23.10
-22.94
-21.25
-18.08
-13.78
-8.92
-4.17
-0.06
3.05
5.06
6.10
6.44
6.39
6.23
6.13
6.15
6.28
6.47
6.62
6.67
6.53
6.15
5.56
4.81
4.03
3.35
2.80
2.35
1.92
1.40
0.78
0.09
-0.56
-1.13
-1.63
-2.16
-2.83
-3.68
-4.72
-5.84
-6.98
-8.06
-9.06
-10.00
-10.91
-11.84
-12.84
-13.97
-15.26
-16.69
-18.12
-19.29
-19.87
-19.55
-18.13
-15.63
-12.21
-8.11
-3.65
0.90
5.28
9.23
12.50
14.90
16.34
16.89
16.73
16.14
15.41
14.76
14.29
14.00
13.80
13.56
13.21
12.71
12.13
11.53
11.01
10.55
10.11
9.59
8.94
8.15
7.25
6.32
5.39
4.45
3.47
2.40
1.24
0.06
-1.12
-2.27
-3.49
-4.88
-6.50
-8.28
-9.97
-11.22
-11.67
-11.07
-9.37
-6.71
-3.35
0.32
3.91
7.05
9.46
11.03
11.83
12.03
11.87
11.51
11.04
10.47
9.78
9.01
8.27
7.67
7.28
7.10
7.01
6.90
6.66
6.29
5.81
5.33
4.88
4.44
3.93
3.25
2.34
1.23
-0.00
-1.26
-2.48
-3.64
-4.77
-5.90
-7.08
-8.32
-9.66
-11.18
-12.93
-14.94
-17.14
-19.28
-20.99
-21.82
-21.36
-19.43
-16.09
-11.72
-6.89
-2.24
1.76
4.84
6.98
8.34
9.12
9.47
9.48
9.17
8.61
7.90
7.22
6.73
6.47
6.39
6.29
5.99
5.40
4.55
3.63
2.85
2.35
2.11
2.03
1.89
1.56
0.99
0.22
-0.62
-1.46
-2.27
-3.12
-4.12
-5.33
-6.72
-8.13
-9.38
-10.32
-10.92
-11.33
-11.75
-12.42
-13.45
-14.85
-16.45
-17.99
-19.10
-19.39
-18.59
-16.59
-13.55
-9.82
-5.86
-2.10
1.18
3.90
6.06
7.68
8.78
9.35
9.45
9.25
8.94
8.67
8.51
8.35
8.05
7.52
6.79
6.03
5.45
5.23
5.39
5.78
6.17
6.39
6.33
6.04
5.65
5.24
4.82
4.31
3.60
2.65
1.50
0.27
-0.89
-1.87
-2.64
-3.25
-3.82
-4.45
-5.25
-6.25
-7.37
-8.40
-9.02
-8.91
-7.83
-5.76
-2.93
0.26
3.34
5.97
7.98
9.38
10.30
10.83
11.09
11.10
10.93
10.62
10.23
9.78
9.27
8.72
8.17
7.68
7.32
7.13
7.04
7.00
6.90
6.69
6.39
6.03
5.60
5.08
4.37
3.37
2.06
0.49
-1.18
-2.76
-4.10
-5.18
-6.11
-7.10
-8.37
-10.01
-11.97
-13.98
-15.65
-16.57
-16.43
-15.10
-12.71
-9.54
-6.02
-2.58
0.47
2.94
4.79
6.07
6.86
7.26
7.36
7.24
7.02
6.79
6.59
6.43
6.27
6.04
5.71
5.31
4.91
4.63
4.52
4.55
4.59
4.46
4.04
3.32
2.41
1.42
0.43
-0.61
-1.76
-3.07
-4.46
-5.73
-6.70
-7.31
-7.67
-8.01
-8.57
-9.50
-10.84
-12.54
-14.47
-16.41
-18.07
-19.04
-18.92
-17.44
-14.62
-10.80
-6.56
-2.54
0.81
3.28
4.95
6.02
6.69
7.10
7.28
7.27
7.10
6.84
6.56
6.30
6.06
5.81
5.53
5.23
4.93
4.66
4.45
4.32
4.25
4.19
4.04
3.66
2.98
1.97
0.73
-0.53
-1.66
-2.54
-3.21
-3.83
-4.55
-5.48
-6.60
-7.85
-9.13
-10.38
-11.61
-12.86
-14.17
-15.51
-16.71
-17.52
-17.66
-16.90
-15.13
-12.42
-8.94
-4.97
-0.82
3.24
6.94
10.07
12.48
14.08
14.92
15.07
14.69
13.94
13.00
12.05
11.31
10.88
10.79
10.89
10.95
10.78
10.30
9.59
8.82
8.14
7.58
7.05
6.44
5.65
4.74
3.78
2.86
1.98
1.09
0.08
-1.10
-2.42
-3.83
-5.33
-6.92
-8.62
-10.39
-12.04
-13.24
-13.61
-12.83
-10.80
-7.68
-3.87
0.07
3.62
6.44
8.42
9.64
10.35
10.77
11.08
11.29
11.33
11.07
10.44
9.49
8.39
7.38
6.66
6.28
6.18
6.18
6.12
5.92
5.59
5.25
4.96
4.75
4.51
4.10
3.37
2.27
0.84
-0.78
-2.39
-3.84
-5.05
-6.00
-6.81
-7.61
-8.56
-9.75
-11.24
-12.95
-14.67
-16.04
-16.65
-16.16
-14.41
-11.51
-7.82
-3.88
-0.18
2.91
5.21
6.72
7.51
7.69
7.37
6.73
5.96
5.30
4.94
4.91
5.11
5.31
5.26
4.82
4.06
3.13
2.25
1.56
1.08
0.73
0.42
0.06
-0.36
-0.83
-1.30
-1.79
-2.34
-2.98
-3.73
-4.60
-5.54
-6.52
-7.52
-8.53
-9.55
-10.58
-11.61
-12.63
-13.70
-14.90
-16.24
-17.66
-18.89
-19.51
-19.07
-17.34
-14.36
-10.51
-6.34
-2.35
1.14
4.03
6.38
8.26
9.67
10.56
10.89
10.72
10.21
9.54
8.88
8.32
7.88
7.52
7.22
6.97
6.81
6.76
6.78
6.83
6.81
6.66
6.34
5.82
5.12
4.24
3.21
2.09
0.94
-0.13
-1.05
-1.80
-2.42
-2.97
-3.53
-4.18
-4.98
-5.98
-7.17
-8.43
-9.49
-10.00
-9.63
-8.17
-5.68
-2.39
1.30
5.01
8.45
11.39
13.70
15.31
16.20
16.39
16.00
15.17
14.05
12.81
11.59
10.53
9.70
9.10
8.61
8.11
7.52
6.84
6.16
5.56
5.03
4.48
3.81
2.90
1.76
0.43
-0.99
-2.45
-3.88
-5.23
-6.41
-7.38
-8.16
-8.90
-9.82
-11.14
-12.94
-15.09
-17.24
-18.89
-19.59
-18.97
-16.96
-13.75
-9.75
-5.51
-1.52
1.90
4.60
6.62
8.02
8.91
9.38
9.49
9.37
9.12
8.81
8.48
8.12
7.71
7.29
6.89
6.58
6.38
6.26
6.15
5.97
5.65
5.14
4.44
3.55
2.54
1.51
0.51
-0.43
-1.39
-2.43
-3.63
-4.94
-6.28
-7.52
-8.60
-9.54
-10.48
-11.58
-13.00
-14.78
-16.79
-18.76
-20.30
-20.95
-20.33
-18.24
-14.70
-10.02
-4.74
0.52
5.18
8.83
11.33
12.73
13.29
13.28
12.95
12.47
11.88
11.22
10.49
9.72
8.91
8.07
7.17
6.22
5.27
4.44
3.86
3.58
3.54
3.53
3.33
2.77
1.85
0.71
-0.47
-1.57
-2.57
-3.56
-4.62
-5.81
-7.11
-8.44
-9.70
-10.80
-11.69
-12.41
-13.08
-13.92
-15.14
-16.82
-18.83
-20.74
-22.02
-22.13
-20.77
-17.93
-13.90
-9.15
-4.19
0.54
4.75
8.31
11.19
13.42
15.03
15.98
16.27
15.94
15.14
14.07
12.98
11.99
11.13
10.34
9.54
8.72
7.93
7.24
6.71
6.33
6.01
5.66
5.20
4.61
3.87
2.96
1.87
0.63
-0.72
-2.11
-3.46
-4.74
-5.97
-7.22
-8.61
-10.22
-12.07
-14.03
-15.85
-17.19
-17.68
-16.99
-14.88
-11.29
-6.34
-0.40
5.94
11.97
17.00
20.59
22.60
23.20
22.78
21.67
20.15
18.33
16.32
14.24
12.29
10.67
9.53
8.83
8.40
8.00
7.41
6.57
5.55
4.54
3.73
3.18
2.78
2.31
1.54
0.40
-0.99
-2.40
-3.61
-4.55
-5.38
-6.36
-7.69
-9.45
-11.53
-13.78
-16.04
-18.17
-19.98
-21.16
-21.32
-20.08
-17.26
-13.01
-7.81
-2.33
2.77
6.98
10.11
12.15
13.26
13.61
13.37
12.66
11.64
10.45
9.26
8.19
7.26
6.40
5.49
4.44
3.22
1.93
0.68
-0.42
-1.33
-2.16
-3.04
-4.10
-5.42
-7.00
-8.75
-10.58
-12.45
-14.46
-16.75
-19.40
-22.30
-25.18
-27.71
-29.72
-31.22
-32.48
-33.94
-36.04
-39.08
-43.14
-48.00
-53.09
-57.47
-59.70
-58.23
-51.93
-40.60
-25.21
-7.82
9.03
22.98
32.59
37.88
39.79
39.46
37.70
34.99
31.44
27.23
22.56
17.71
13.68
11.24
10.49
10.79
11.27
10.96
9.45
6.37
1.41
-4.50
-10.44
-15.91
-20.60
-23.61
-23.68
-18.93
-8.34
7.93
29.90
56.43
85.07
112.67
136.76
155.20
166.95
171.03
158.45
125.72
77.67
25.94
-17.82
-44.70
-57.16
-59.80
-57.33
-53.12
-47.12
-38.30
-26.31
-11.50
6.13
25.72
46.16
65.06
79.02
85.23
80.89
63.82
30.78
-12.71
-54.09
-80.42
-87.30
-79.84
-66.94
-56.41
-52.20
-53.67
-55.49
-54.02
-48.89
-42.95
-40.01
-42.49
-51.25
-66.55
-85.88
-105.21
-120.89
-129.79
-129.66
-118.59
-95.34
-57.14
-10.14
33.24
62.43
74.14
72.46
64.53
56.65
51.83
49.44
46.20
39.93
32.74
26.31
21.91
19.39
17.41
14.11
8.28
-0.37
-10.05
-17.76
-21.40
-20.41
-16.90
-13.33
-11.72
-12.94
-16.81
-21.78
-25.68
-26.99
-25.14
-20.83
-15.30
-9.94
-5.72
-3.13
-1.87
-1.17
-0.45
0.49
1.33
1.55
0.62
-1.68
-5.33
-9.97
-15.01
-19.85
-23.79
-26.11
-26.04
-23.04
-16.99
-8.37
1.80
12.21
21.60
29.13
34.41
37.51
38.70
38.28
36.56
33.87
30.69
27.54
24.91
23.10
22.08
21.60
21.27
20.89
20.48
20.31
20.68
21.73
23.31
24.96
26.12
26.31
25.33
23.36
20.84
18.39
16.52
15.54
15.41
15.78
16.10
15.87
14.88
13.38
12.16
12.42
15.43
22.01
32.15
44.78
57.89
69.01
75.82
76.71
71.21
60.09
45.08
28.47
12.49
-1.16
-11.63
-18.87
-23.45
-26.25
-28.16
-29.96
-32.34
-35.75
-40.38
-45.97
-51.82
-57.00
-60.74
-62.80
-63.56
-63.87
-64.69
-66.70
-70.12
-74.65
-79.62
-84.01
-86.75
-86.90
-84.03
-78.43
-71.07
-63.14
-55.60
-48.64
-41.74
-33.98
-24.70
-13.86
-2.08
9.63
20.28
29.14
35.89
40.47
43.03
43.86
43.39
42.09
40.38
38.59
36.91
35.54
34.68
34.55
35.23
36.63
38.35
39.81
40.41
39.80
37.91
34.91
31.05
26.67
22.12
17.75
13.88
10.71
8.32
6.62
5.33
4.10
2.65
0.98
-0.70
-2.01
-2.62
-2.19
-0.53
2.36
6.26
10.77
15.56
20.22
24.22
26.89
28.04
27.83
26.75
25.28
23.84
23.02
23.12
23.99
24.81
25.23
25.34
25.43
25.77
26.49
28.22
31.25
35.31
39.10
42.06
44.17
45.79
47.20
48.69
51.32
55.83
62.16
68.76
74.79
79.82
83.72
86.19
81.86
68.17
46.66
27.11
12.22
2.00
-5.46
-10.93
-15.12
-18.67
-21.27
-22.68
-23.11
-23.95
-25.60
-27.89
-30.28
-32.54
-34.56
-35.77
-35.88
-35.10
-34.76
-35.49
-37.49
-40.58
-44.60
-49.26
-53.76
-57.39
-59.82
-61.61
-63.05
-64.27
-65.22
-65.83
-66.00
-65.45
-64.09
-62.15
-60.28
-58.88
-57.99
-57.29
-56.20
-54.01
-50.03
-43.89
-35.75
-26.32
-16.60
-7.60
-0.14
5.33
8.80
10.64
11.41
11.64
11.70
11.78
11.87
11.93
11.93
11.87
11.78
11.64
11.38
10.92
10.17
9.10
7.76
6.23
4.61
2.97
1.32
-0.35
-2.06
-3.78
-5.50
-7.22
-9.02
-11.06
-13.53
-16.51
-19.84
-22.97
-25.02
-25.01
-22.20
-16.48
-8.41
0.86
9.97
17.73
23.44
26.97
28.58
28.74
27.88
26.35
24.35
22.08
19.69
17.31
15.01
12.76
10.44
7.92
5.15
2.28
-0.31
-2.20
-3.08
-3.02
-2.47
-2.12
-2.62
-4.25
-6.87
-9.99
-13.05
-15.73
-18.06
-20.35
-22.99
-26.22
-29.98
-33.88
-37.20
-39.03
-38.42
-34.67
-27.62
-17.86
-6.60
4.61
14.40
21.88
26.81
29.44
30.24
29.60
27.86
25.31
22.32
19.40
16.98
15.31
14.31
13.62
12.80
11.53
9.74
7.63
5.57
3.86
2.67
1.90
1.24
0.29
-1.29
-3.62
-6.52
-9.61
-12.42
-14.59
-16.05
-17.04
-18.04
-19.60
-22.12
-25.74
-30.17
-34.71
-38.31
-39.76
-38.00
-32.53
-23.61
-12.34
-0.32
10.82
19.89
26.40
30.44
32.47
32.96
32.26
30.62
28.33
25.81
23.44
21.51
20.00
18.63
17.04
14.98
12.44
9.68
7.11
5.06
3.66
2.81
2.17
1.35
0.06
-1.81
-4.18
-6.80
-9.37
-11.64
-13.48
-14.91
-16.10
-17.38
-19.09
-21.53
-24.78
-28.51
-31.96
-34.04
-33.60
-29.88
-22.84
-13.25
-2.50
7.83
16.47
22.76
26.61
28.38
28.46
27.24
25.00
22.05
18.82
15.75
13.17
11.15
9.45
7.71
5.68
3.38
1.11
-0.70
-1.77
-2.12
-2.08
-2.19
-2.92
-4.51
-6.88
-9.67
-12.43
-14.75
-16.46
-17.70
-18.84
-20.36
-22.71
-26.04
-30.09
-34.11
-36.93
-37.28
-34.17
-27.29
-17.24
-5.37
6.59
17.12
25.23
30.65
33.62
34.63
34.10
32.35
29.65
26.36
22.92
19.78
17.24
15.34
13.84
12.41
10.73
8.69
6.41
4.18
2.32
0.98
0.06
-0.79
-2.03
-3.99
-6.72
-9.93
-13.14
-15.88
-17.89
-19.25
-20.32
-21.60
-23.53
-26.40
-30.22
-34.58
-38.66
-41.26
-41.09
-37.19
-29.31
-18.20
-5.43
7.13
17.84
25.84
31.09
34.11
35.55
35.86
35.18
33.52
31.01
27.98
24.93
22.31
20.31
18.83
17.51
15.95
13.95
11.61
9.25
7.30
6.04
5.50
5.37
5.14
4.29
2.53
-0.14
-3.38
-6.69
-9.63
-11.96
-13.74
-15.20
-16.67
-18.44
-20.75
-23.74
-27.42
-31.56
-35.56
-38.37
-38.76
-35.69
-28.81
-18.69
-6.75
5.27
15.83
24.09
29.90
33.57
35.46
35.82
34.74
32.35
29.04
25.41
22.12
19.59
17.86
16.58
15.29
13.66
11.64
9.46
7.45
5.86
4.75
3.97
3.27
2.39
1.15
-0.53
-2.60
-4.95
-7.41
-9.77
-11.88
-13.71
-15.36
-17.15
-19.39
-22.33
-25.97
-29.93
-33.48
-35.64
-35.47
-32.30
-26.05
-17.24
-6.97
3.42
12.68
19.98
24.98
27.79
28.70
28.09
26.26
23.58
20.44
17.31
14.63
12.61
11.20
10.10
8.96
7.55
5.86
4.12
2.63
1.57
0.91
0.44
-0.23
-1.41
-3.28
-5.77
-8.62
-11.47
-14.04
-16.21
-18.07
-19.91
-22.13
-25.05
-28.78
-33.06
-37.16
-39.94
-40.13
-36.80
-29.69
-19.47
-7.56
4.30
14.60
22.47
27.74
30.80
32.21
32.42
31.67
30.06
27.72
24.91
22.02
19.42
17.32
15.66
14.22
12.68
10.89
8.91
7.03
5.57
4.70
4.35
4.15
3.64
2.41
0.32
-2.45
-5.53
-8.52
-11.08
-13.13
-14.80
-16.34
-18.07
-20.26
-23.12
-26.74
-30.99
-35.32
-38.78
-40.11
-38.14
-32.23
-22.69
-10.74
1.84
13.32
22.54
29.12
33.34
35.72
36.73
36.60
35.40
33.25
30.47
27.50
24.77
22.53
20.75
19.18
17.51
15.58
13.42
11.23
9.24
7.64
6.43
5.50
4.61
3.56
2.14
0.22
-2.23
-5.11
-8.24
-11.34
-14.18
-16.60
-18.59
-20.30
-21.96
-23.87
-26.31
-29.47
-33.34
-37.52
-41.16
-43.07
-42.00
-37.19
-28.72
-17.60
-5.51
5.79
15.02
21.65
25.87
28.21
29.21
29.14
28.10
26.17
23.61
20.85
18.39
16.57
15.45
14.82
14.35
13.68
12.65
11.28
9.77
8.36
7.18
6.23
5.30
4.11
2.44
0.22
-2.40
-5.10
-7.55
-9.53
-11.06
-12.34
-13.72
-15.48
-17.83
-20.79
-24.20
-27.70
-30.65
-32.25
-31.66
-28.32
-22.18
-13.81
-4.34
4.94
12.91
18.94
22.91
25.06
25.74
25.22
23.69
21.34
18.49
15.57
13.05
11.20
9.98
9.08
8.10
6.74
4.99
3.13
1.57
0.58
0.15
-0.07
-0.63
-1.95
-4.18
-7.12
-10.28
-13.13
-15.33
-16.87
-18.04
-19.31
-21.18
-23.97
-27.76
-32.30
-36.95
-40.70
-42.36
-40.82
-35.49
-26.63
-15.35
-3.33
7.73
16.64
22.97
27.01
29.35
30.52
30.77
30.12
28.60
26.40
23.94
21.72
20.09
19.12
18.57
18.01
17.05
15.52
13.52
11.35
9.38
7.86
6.77
5.93
4.98
3.61
1.66
-0.84
-3.67
-6.54
-9.20
-11.51
-13.48
-15.28
-17.20
-19.56
-22.59
-26.45
-30.98
-35.68
-39.65
-41.69
-40.68
-35.96
-27.67
-16.81
-4.93
6.34
15.77
22.81
27.51
30.26
31.47
31.47
30.44
28.60
26.22
23.64
21.19
19.07
17.31
15.85
14.60
13.46
12.40
11.40
10.46
9.55
8.62
7.61
6.49
5.23
3.78
2.07
0.03
-2.38
-5.08
-7.92
-10.67
-13.13
-15.21
-16.95
-18.54
-20.27
-22.42
-25.22
-28.75
-32.85
-37.04
-40.47
-42.07
-40.80
-36.04
-27.88
-17.19
-5.43
5.82
15.32
22.47
27.31
30.26
31.82
32.28
31.77
30.31
28.07
25.36
22.66
20.36
18.66
17.49
16.59
15.69
14.62
13.35
12.00
10.72
9.62
8.67
7.75
6.67
5.23
3.32
0.95
-1.69
-4.34
-6.71
-8.62
-10.09
-11.34
-12.73
-14.62
-17.26
-20.71
-24.78
-28.98
-32.61
-34.76
-34.61
-31.59
-25.64
-17.30
-7.63
2.14
10.91
17.96
23.05
26.28
27.88
28.07
26.98
24.80
21.82
18.56
15.57
13.33
12.01
11.43
11.19
10.82
10.03
8.81
7.41
6.10
5.10
4.37
3.65
2.60
0.92
-1.49
-4.52
-7.83
-11.06
-13.89
-16.18
-18.05
-19.81
-21.86
-24.61
-28.21
-32.46
-36.67
-39.73
-40.40
-37.72
-31.40
-22.04
-10.98
0.12
9.84
17.36
22.56
25.82
27.62
28.33
28.11
26.99
25.10
22.69
20.17
17.93
16.21
15.02
14.16
13.33
12.32
11.09
9.78
8.61
7.75
7.17
6.69
5.98
4.77
2.93
0.51
-2.32
-5.35
-8.40
-11.35
-14.13
-16.70
-19.06
-21.31
-23.69
-26.51
-30.05
-34.32
-38.93
-42.99
-45.29
-44.64
-40.31
-32.37
-21.71
-9.78
1.83
11.91
19.85
25.63
29.56
31.99
33.16
33.20
32.30
30.74
28.92
27.22
25.86
24.85
24.09
23.39
22.61
21.66
20.47
19.01
17.28
15.36
13.37
11.46
9.70
8.10
6.54
4.85
2.90
0.61
-1.99
-4.80
-7.67
-10.44
-12.99
-15.28
-17.36
-19.38
-21.60
-24.30
-27.72
-31.90
-36.52
-40.85
-43.77
-44.15
-41.21
-34.91
-26.02
-15.93
-6.13
2.17
8.40
12.57
15.08
16.41
16.94
16.91
16.45
15.68
14.72
13.69
12.67
11.67
10.64
9.50
8.19
6.75
5.30
4.04
3.13
2.66
2.50
2.35
1.86
0.74
-1.10
-3.51
-6.17
-8.75
-10.98
-12.78
-14.26
-15.63
-17.16
-19.13
-21.76
-25.14
-29.13
-33.25
-36.65
-38.29
-37.19
-32.80
-25.27
-15.38
-4.40
6.39
15.97
23.76
29.59
33.49
35.56
35.91
34.75
32.47
29.60
26.76
24.42
22.77
21.73
20.98
20.18
19.14
17.85
16.45
15.09
13.85
12.67
11.39
9.82
7.81
5.32
2.41
-0.72
-3.86
-6.83
-9.50
-11.91
-14.20
-16.57
-19.27
-22.47
-26.26
-30.53
-34.90
-38.67
-40.88
-40.49
-36.78
-29.58
-19.48
-7.72
4.14
14.73
23.15
29.17
33.01
35.13
35.93
35.64
34.39
32.32
29.73
27.00
24.53
22.53
20.99
19.71
18.42
16.96
15.32
13.61
11.98
10.53
9.26
8.10
6.91
5.54
3.86
1.79
-0.68
-3.47
-6.38
-9.24
-11.89
-14.31
-16.55
-18.73
-21.02
-23.60
-26.66
-30.34
-34.54
-38.78
-42.12
-43.40
-41.52
-35.97
-27.07
-15.91
-4.05
6.99
16.15
23.04
27.75
30.70
32.31
32.89
32.68
31.89
30.74
29.44
28.12
26.80
25.42
23.91
22.29
20.63
19.06
17.69
16.52
15.48
14.47
13.38
12.16
10.80
9.26
7.44
5.26
2.66
-0.29
-3.42
-6.49
-9.30
-11.77
-13.93
-15.92
-17.94
-20.20
-22.92
-26.25
-30.18
-34.39
-38.13
-40.36
-40.01
-36.36
-29.40
-19.90
-9.21
1.23
10.23
17.17
21.95
24.81
26.10
26.08
24.96
22.96
20.35
17.51
14.79
12.51
10.77
9.54
8.65
7.90
7.19
6.54
6.04
5.79
5.77
5.77
5.43
4.40
2.48
-0.28
-3.51
-6.73
-9.47
-11.49
-12.86
-13.90
-15.04
-16.72
-19.22
-22.66
-26.87
-31.36
-35.34
-37.78
-37.71
-34.47
-28.02
-19.05
-8.81
1.27
9.99
16.69
21.26
23.99
25.30
25.52
24.83
23.35
21.25
18.81
16.35
14.22
12.60
11.52
10.83
10.32
9.77
9.07
8.22
7.29
6.39
5.58
4.84
4.00
2.86
1.18
-1.13
-4.02
-7.25
-10.45
-13.32
-15.69
-17.64
-19.41
-21.33
-23.68
-26.65
-30.26
-34.41
-38.73
-42.54
-44.90
-44.81
-41.48
-34.76
-25.25
-14.16
-2.98
7.07
15.23
21.33
25.54
28.17
29.51
29.77
29.18
28.06
26.72
25.43
24.34
23.40
22.49
21.49
20.35
19.15
17.99
16.96
16.06
15.20
14.26
13.17
11.86
10.36
8.69
6.85
4.80
2.49
-0.09
-2.92
-5.91
-8.94
-11.87
-14.59
-17.08
-19.41
-21.73
-24.32
-27.45
-31.22
-35.43
-39.43
-42.21
-42.67
-39.96
-33.82
-24.77
-13.96
-2.82
7.33
15.67
21.89
26.10
28.62
29.69
29.51
28.25
26.16
23.60
21.04
18.86
17.28
16.27
15.63
15.04
14.30
13.29
12.11
10.90
9.83
8.95
8.15
7.21
5.87
3.90
1.25
-1.93
-5.32
-8.50
-11.18
-13.22
-14.75
-16.04
-17.44
-19.25
-21.64
-24.69
-28.30
-32.09
-35.37
-37.17
-36.51
-32.72
-25.81
-16.52
-6.16
3.84
12.40
18.99
23.60
26.51
27.99
28.21
27.26
25.27
22.55
19.54
16.67
14.29
12.53
11.31
10.41
9.62
8.79
7.87
6.92
5.99
5.10
4.22
3.24
2.01
0.35
-1.82
-4.45
-7.39
-10.34
-13.03
-15.28
-17.11
-18.72
-20.41
-22.51
-25.26
-28.78
-32.98
-37.39
-41.23
-43.41
-42.86
-38.92
-31.58
-21.61
-10.32
0.86
10.77
18.76
24.64
28.56
30.75
31.49
31.03
29.65
27.68
25.44
23.19
21.14
19.43
18.11
17.17
16.54
16.07
15.59
14.91
13.92
12.61
11.09
9.51
7.98
6.51
4.96
3.12
0.79
-2.08
-5.35
-8.76
-12.01
-14.85
-17.22
-19.19
-20.93
-22.69
-24.76
-27.42
-30.88
-35.12
-39.68
-43.68
-45.85
-44.98
-40.33
-32.00
-20.96
-8.79
2.82
12.64
20.09
25.28
28.67
30.76
31.88
32.15
31.63
30.47
28.94
27.39
26.04
24.94
23.96
22.93
21.77
20.56
19.52
18.82
18.45
18.21
17.74
16.75
15.12
13.02
10.73
8.54
6.54
4.63
2.53
-0.04
-3.17
-6.73
-10.40
-13.77
-16.57
-18.70
-20.37
-21.94
-23.89
-26.61
-30.23
-34.51
-38.77
-41.95
-42.88
-40.62
-34.86
-26.06
-15.42
-4.41
5.59
13.71
19.70
23.73
26.14
27.23
27.14
26.02
24.09
21.72
19.36
17.40
16.02
15.16
14.62
14.13
13.49
12.63
11.59
10.47
9.40
8.46
7.68
6.98
6.20
5.15
3.64
1.62
-0.83
-3.50
-6.10
-8.38
-10.22
-11.70
-13.05
-14.62
-16.75
-19.68
-23.40
-27.58
-31.53
-34.31
-34.92
-32.66
-27.35
-19.47
-10.05
-0.34
8.46
15.55
20.54
23.47
24.58
24.22
22.75
20.54
17.91
15.18
12.60
10.37
8.62
7.41
6.74
6.51
6.53
6.58
6.46
6.07
5.42
4.64
3.83
3.02
2.08
0.78
-1.09
-3.64
-6.77
-10.22
-13.62
-16.68
-19.26
-21.40
-23.34
-25.36
-27.75
-30.68
-34.26
-38.42
-42.96
-47.45
-51.22
-53.48
-53.47
-50.69
-45.15
-37.38
-28.29
-18.94
-10.28
-2.89
2.95
7.29
10.30
12.22
13.32
13.85
14.07
14.21
14.42
14.75
15.20
15.70
16.18
16.54
16.72
16.70
16.49
16.17
15.89
15.78
15.97
16.43
17.03
17.53
17.72
17.50
16.90
16.09
15.24
14.42
13.60
12.65
11.39
9.64
7.30
4.36
0.96
-2.59
-5.71
-7.74
-8.01
-6.15
-2.25
3.15
9.21
15.08
20.07
23.89
26.48
28.00
28.64
28.59
28.04
27.22
26.39
25.78
25.57
25.79
26.30
26.88
27.20
26.99
26.06
24.39
22.12
19.46
16.61
13.67
10.59
7.21
3.34
-1.14
-6.21
-11.67
-17.24
-22.56
-27.34
-31.49
-35.12
-38.53
-42.09
-46.10
-50.63
-55.47
-60.04
-63.51
-64.92
-63.42
-58.49
-50.21
-39.20
-26.61
-13.75
-1.81
8.34
16.27
21.89
25.35
26.92
26.94
25.83
24.05
22.04
20.18
18.66
17.49
16.54
15.56
14.35
12.77
10.83
8.59
6.12
3.46
0.51
-2.83
-6.62
-10.76
-15.04
-19.11
-22.67
-25.51
-27.63
-29.22
-30.62
-32.27
-34.53
-37.57
-41.16
-44.59
-46.78
-46.60
-43.24
-36.61
-27.36
-16.70
-5.99
3.71
11.86
18.40
23.56
27.55
30.49
32.41
33.35
33.48
33.10
32.56
32.14
31.91
31.73
31.35
30.49
29.07
27.23
25.29
23.59
22.35
21.55
20.93
20.11
18.79
16.81
14.27
11.41
8.54
5.88
3.54
1.46
-0.54
-2.68
-5.20
-8.25
-11.91
-16.05
-20.28
-23.96
-26.26
-26.36
-23.76
-18.47
-11.05
-2.54
5.93
13.36
19.17
23.18
25.54
26.54
26.50
25.73
24.48
23.00
21.48
20.04
18.74
17.55
16.42
15.32
14.20
13.11
12.07
11.13
10.29
9.48
8.59
7.54
6.27
4.83
3.29
1.70
0.03
-1.83
-3.96
-6.36
-8.90
-11.33
-13.45
-15.24
-16.86
-18.64
-20.90
-23.84
-27.47
-31.51
-35.38
-38.23
-39.10
-37.20
-32.22
-24.54
-15.19
-5.52
3.24
10.37
15.72
19.53
22.09
23.56
23.93
23.21
21.58
19.45
17.33
15.64
14.52
13.83
13.27
12.57
11.56
10.30
8.98
7.81
7.00
6.60
6.53
6.56
6.40
5.80
4.61
2.94
1.00
-0.93
-2.64
-4.08
-5.37
-6.72
-8.33
-10.34
-12.80
-15.65
-18.70
-21.57
-23.61
-24.08
-22.28
-17.87
-11.03
-2.48
6.69
15.36
22.57
27.70
30.49
30.95
29.34
26.10
21.85
17.30
13.11
9.81
7.61
6.49
6.13
6.07
5.91
5.45
4.76
4.08
3.75
4.01
4.93
6.30
7.82
9.29
10.69
12.07
13.31
14.15
14.04
12.50
9.03
3.49
-3.80
-12.29
-21.22
-29.90
-37.66
-44.05
-48.74
-51.92
-54.12
-55.93
-57.87
-60.10
-62.56
-64.94
-67.19
-67.81
-65.99
-62.33
-58.94
-58.15
-60.73
-66.38
-72.56
-76.63
-76.66
-72.22
-64.25
-53.45
-41.27
-28.60
-15.34
-0.64
15.99
33.91
50.97
64.44
72.39
74.51
72.33
68.24
64.28
61.27
58.93
56.39
52.95
48.48
43.22
37.62
32.05
26.78
21.84
17.36
13.48
10.39
8.39
7.71
8.62
11.20
15.24
20.07
24.75
28.29
30.08
30.07
28.77
26.98
25.43
24.46
24.00
23.68
23.07
21.87
19.89
17.01
13.14
8.39
3.13
-1.96
-6.04
-8.51
-9.22
-8.57
-7.38
-6.53
-6.68
-7.90
-9.94
-12.46
-15.16
-17.83
-20.22
-22.03
-23.00
-23.04
-21.95
-19.80
-16.79
-13.05
-8.50
-2.83
4.12
11.99
19.85
26.97
32.73
36.75
39.05
39.97
40.06
39.78
39.35
38.92
39.28
41.16
44.81
49.67
54.74
59.01
61.79
62.75
57.88
45.22
25.73
3.13
-18.46
-36.36
-49.65
-58.51
-63.74
-66.42
-66.88
-65.29
-61.76
-56.70
-50.76
-44.75
-39.57
-36.06
-34.59
-34.36
-34.08
-32.53
-29.34
-25.00
-20.52
-16.93
-14.87
-14.30
-14.21
-13.37
-10.67
-5.86
0.83
8.82
17.40
25.78
33.11
38.77
41.52
41.24
37.90
31.77
23.47
13.94
4.26
-4.50
-11.45
-16.10
-18.39
-18.82
-18.17
-17.17
-16.40
-16.13
-16.37
-16.98
-17.77
-18.45
-18.83
-18.68
-17.70
-15.67
-12.54
-8.57
-4.34
-0.38
2.74
4.69
5.42
5.17
4.36
3.40
2.60
2.10
1.90
1.83
1.65
1.12
0.17
-1.09
-2.36
-3.28
-3.55
-3.08
-2.06
-0.88
0.06
0.46
0.21
-0.65
-1.89
-3.23
-4.40
-5.20
-5.61
-5.74
-5.99
-6.88
-8.89
-12.17
-16.42
-20.86
-24.43
-26.15
-25.32
-21.80
-16.04
-8.86
-1.20
6.08
12.48
17.86
21.75
24.13
25.23
25.41
25.06
24.47
23.77
22.92
21.76
20.11
17.98
15.59
13.33
11.79
11.51
12.84
15.68
19.43
23.15
25.82
26.65
25.27
21.83
16.90
11.25
5.64
0.64
-3.47
-6.67
-9.25
-11.65
-14.28
-17.27
-20.37
-23.00
-24.48
-24.38
-22.67
-19.74
-16.23
-12.74
-9.63
-7.05
-4.96
-3.26
-1.86
-0.69
0.33
1.18
1.76
1.84
1.16
-0.42
-2.74
-5.33
-7.51
-8.60
-8.21
-6.31
-3.26
0.28
3.54
5.77
6.33
4.83
1.24
-4.03
-10.26
-16.59
-22.33
-27.12
-30.96
-33.99
-36.20
-37.31
-36.77
-34.08
-29.07
-22.14
-14.13
-6.08
1.05
6.69
10.69
13.21
14.58
15.11
15.03
14.48
13.59
12.50
11.39
10.37
9.50
8.82
8.40
8.48
9.42
11.59
15.13
19.77
24.76
29.03
31.53
31.55
28.99
24.34
18.50
12.43
6.86
2.11
-1.85
-5.23
-8.13
-10.44
-11.82
-11.90
-10.49
-7.71
-3.95
0.24
4.41
8.26
11.68
14.59
16.91
18.43
18.91
18.13
16.01
12.64
8.28
3.36
-1.63
-6.24
-10.14
-13.23
-15.68
-17.82
-20.03
-22.56
-25.45
-28.48
-31.35
-33.75
-35.54
-36.75
-37.57
-38.22
-38.90
-39.66
-40.32
-40.45
-39.51
-36.92
-32.33
-25.79
-17.78
-9.08
-0.57
7.02
13.26
18.02
21.41
23.65
24.94
25.48
25.38
24.77
23.77
22.56
21.41
20.63
20.56
21.43
23.28
25.99
29.28
32.86
36.46
39.84
42.77
45.05
46.44
46.75
45.80
43.40
39.31
33.33
25.39
15.85
5.64
-3.86
-11.13
