1660930657.00
64.000000
-0.00
-0.00
-0.00
-0.00
-0.00
-0.00
-0.00
-0.00
-0.00
-0.00
0.00
0.01
0.01
-0.00
-0.03
-0.05
-0.05
0.00
0.13
0.36
0.66
1.01
1.37
1.72
2.06
2.40
2.79
3.25
3.81
4.44
5.09
5.73
6.32
6.91
7.54
8.28
9.15
10.24
11.43
12.61
13.68
14.62
15.50
16.52
17.89
19.72
22.20
25.10
28.16
31.10
33.81
36.42
39.28
42.80
47.26
52.95
59.47
66.30
72.92
79.11
85.09
91.42
98.77
107.52
118.01
129.55
141.35
152.66
163.23
173.42
184.04
196.34
208.74
223.03
239.49
258.11
277.97
296.69
310.52
315.15
307.11
284.99
250.45
206.75
158.03
107.89
58.58
11.11
-34.20
-77.18
-117.61
-155.23
-190.76
-225.55
-261.15
-298.37
-336.27
-371.80
-400.35
-417.36
-419.98
-408.39
-385.83
-357.28
-327.49
-299.51
-274.14
-250.71
-228.26
-206.39
-185.59
-166.66
-149.98
-135.22
-121.50
-107.96
-94.22
-80.52
-67.56
-56.08
-46.52
-38.75
-32.20
-26.12
-19.91
-13.35
-6.68
-0.45
4.80
8.72
11.40
13.22
14.74
16.36
18.21
20.10
21.68
22.68
23.05
22.95
22.72
22.64
22.88
23.39
24.03
24.61
25.00
25.16
25.10
24.88
24.52
24.00
23.31
22.45
21.49
20.52
19.65
18.95
18.42
18.02
17.69
17.38
17.07
16.72
16.29
15.77
15.11
14.36
13.60
12.97
12.52
12.28
12.16
12.03
11.78
11.41
10.97
10.55
10.18
9.82
9.38
8.81
8.13
7.44
6.89
6.57
6.46
6.44
6.37
6.14
5.76
5.31
4.91
4.65
4.58
4.68
4.85
5.03
5.15
5.19
5.13
4.95
4.64
4.18
3.60
2.93
2.27
1.68
1.19
0.77
0.33
-0.18
-0.77
-1.38
-1.93
-2.37
-2.75
-3.14
-3.62
-4.19
-4.80
-5.37
-5.85
-6.23
-6.56
-6.88
-7.20
-7.51
-7.77
-7.97
-8.11
-8.15
-8.09
-7.93
-7.70
-7.45
-7.23
-7.05
-6.83
-6.52
-6.06
-5.49
-4.87
-4.29
-3.76
-3.22
-2.57
-1.78
-0.93
-0.14
0.44
0.79
0.96
1.05
1.17
1.33
1.54
1.75
1.99
2.30
2.69
3.13
3.50
3.67
3.57
3.23
2.83
2.55
2.51
2.70
3.03
3.32
3.47
3.44
3.29
3.11
2.98
2.98
3.08
3.24
3.39
3.48
3.49
3.45
3.42
3.42
3.51
3.64
3.78
3.88
3.95
4.00
4.09
4.23
4.39
4.47
4.37
4.08
3.66
3.23
2.91
2.74
2.69
2.66
2.60
2.50
2.44
2.48
2.63
2.83
2.95
2.91
2.66
2.27
1.83
1.48
1.27
1.24
1.32
1.40
1.43
1.36
1.26
1.22
1.33
1.58
1.86
2.04
2.03
1.88
1.68
1.55
1.53
1.59
1.65
1.65
1.59
1.49
1.39
1.26
1.09
0.90
0.74
0.70
0.79
1.00
1.23
1.39
1.46
1.48
1.49
1.55
1.61
1.65
1.61
1.49
1.33
1.20
1.14
1.14
1.16
1.19
1.19
1.16
1.13
1.09
1.07
1.06
1.09
1.13
1.19
1.23
1.25
1.25
1.24
1.25
1.27
1.28
1.24
1.11
0.87
0.56
0.21
-0.11
-0.34
-0.46
-0.47
-0.42
-0.33
-0.23
-0.11
0.03
0.20
0.38
0.53
0.58
0.54
0.45
0.36
0.38
0.52
0.77
1.05
1.24
1.28
1.15
0.91
0.65
0.45
0.36
0.37
0.43
0.47
0.48
0.46
0.42
0.38
0.35
0.33
0.35
0.44
0.64
0.92
1.21
1.38
1.36
1.11
0.74
0.35
0.06
-0.11
-0.20
-0.24
-0.27
-0.25
-0.10
0.22
0.68
1.18
1.57
1.74
1.65
1.36
0.99
0.66
0.43
0.32
0.27
0.23
0.20
0.21
0.29
0.46
0.69
0.89
1.00
1.02
1.00
1.00
1.06
1.14
1.18
1.09
0.89
0.62
0.37
0.19
0.11
0.08
0.07
0.05
0.03
0.01
-0.00
-0.01
-0.02
-0.05
-0.09
-0.15
-0.20
-0.27
-0.36
-0.49
-0.66
-0.82
-0.93
-0.95
-0.89
-0.76
-0.58
-0.36
-0.12
0.15
0.41
0.65
0.79
0.80
0.69
0.50
0.36
0.36
0.55
0.90
1.34
1.74
2.01
2.10
2.00
1.78
1.52
1.30
1.20
1.25
1.43
1.68
1.89
1.95
1.80
1.43
0.95
0.49
0.19
0.10
0.24
0.50
0.79
1.02
1.15
1.18
1.20
1.25
1.36
1.50
1.58
1.48
1.11
0.44
-0.50
-1.55
-2.52
-3.19
-3.42
-3.21
-2.70
-2.08
-1.56
-1.25
-1.16
-1.20
-1.29
-1.37
-1.41
-1.41
-1.34
-1.16
-0.86
-0.48
-0.10
0.19
0.33
0.34
0.27
0.21
0.19
0.20
0.20
0.15
0.07
-0.01
-0.03
0.05
0.20
0.38
0.52
0.58
0.56
0.51
0.52
0.59
0.72
0.81
0.80
0.66
0.44
0.27
0.23
0.35
0.58
0.81
0.95
0.97
0.91
0.82
0.72
0.62
0.48
0.29
0.10
-0.01
0.01
0.15
0.34
0.44
0.37
0.11
-0.23
-0.51
-0.60
-0.49
-0.27
-0.07
-0.03
-0.19
-0.45
-0.67
-0.72
-0.55
-0.24
0.08
0.29
0.34
0.24
0.10
-0.01
-0.02
0.10
0.33
0.63
0.92
1.11
1.09
0.80
0.24
-0.48
-1.22
-1.78
-2.04
-1.94
-1.51
-0.88
-0.20
0.38
0.73
0.84
0.75
0.54
0.33
0.22
0.21
0.30
0.45
0.61
0.75
0.86
0.95
1.02
1.04
0.99
0.83
0.58
0.28
0.00
-0.16
-0.15
0.06
0.41
0.84
1.22
1.48
1.62
1.70
1.81
2.00
2.24
2.44
2.52
2.42
2.20
1.97
1.81
1.74
1.67
1.47
1.06
0.47
-0.17
-0.70
-1.02
-1.11
-1.05
-0.97
-0.94
-0.98
-1.06
-1.11
-1.10
-1.04
-0.97
-0.96
-1.02
-1.17
-1.36
-1.56
-1.73
-1.85
-1.93
-1.95
-1.91
-1.77
-1.52
-1.19
-0.86
-0.69
-0.81
-1.30
-2.12
-3.10
-4.03
-4.71
-5.10
-5.25
-5.32
-5.46
-5.77
-6.23
-6.78
-7.33
-7.75
-7.92
-7.70
-7.06
-6.09
-5.07
-4.35
-4.25
-4.89
-6.10
-7.49
-8.66
-9.33
-9.50
-9.44
-9.52
-10.05
-11.19
-12.90
-15.01
-17.31
-19.66
-22.05
-24.56
-27.37
-30.63
-34.36
-38.47
-42.73
-46.91
-50.94
-54.97
-59.27
-64.14
-69.66
-75.60
-81.49
-86.92
-91.70
-96.04
-100.45
-105.53
-111.63
-118.84
-127.03
-136.01
-145.35
-154.07
-160.36
-161.58
-154.85
-137.95
-110.04
-71.84
-25.19
27.61
84.10
141.62
196.92
246.32
286.31
314.77
331.82
339.83
342.54
343.69
345.85
349.93
355.38
360.43
362.55
358.93
346.96
325.03
293.01
252.29
205.08
153.44
98.68
41.79
-15.70
-70.78
-119.09
-156.12
-179.06
-188.01
-186.04
-177.80
-167.60
-158.00
-149.54
-141.49
-133.10
-124.38
-116.12
-109.23
-104.06
-100.07
-96.13
-91.13
-84.58
-76.80
-68.80
-61.69
-56.16
-52.22
-49.20
-46.23
-42.59
-38.07
-33.00
-28.01
-23.69
-20.32
-17.84
-15.90
-14.13
-12.22
-10.10
-7.90
-5.89
-4.29
-3.26
-2.75
-2.61
-2.60
-2.50
-2.21
-1.79
-1.32
-0.93
-0.67
-0.52
-0.40
-0.25
-0.00
0.35
0.77
1.24
1.68
2.05
2.27
2.27
2.03
1.54
0.89
0.15
-0.56
-1.19
-1.71
-2.07
-2.26
-2.24
-2.03
-1.73
-1.46
-1.36
-1.47
-1.74
-2.06
-2.34
-2.55
-2.71
-2.87
-3.02
-3.08
-2.99
-2.70
-2.29
-1.86
-1.55
-1.40
-1.41
-1.49
-1.55
-1.48
-1.25
-0.88
-0.45
-0.11
0.04
-0.06
-0.37
-0.75
-1.05
-1.16
-1.07
-0.85
-0.59
-0.33
-0.09
0.18
0.50
0.79
0.96
0.89
0.52
-0.04
-0.59
-0.89
-0.75
-0.16
0.72
1.62
2.27
2.53
2.42
2.09
1.69
1.31
0.95
0.56
0.10
-0.37
-0.74
-0.90
-0.84
-0.64
-0.46
-0.42
-0.56
-0.78
-0.97
-1.04
-1.01
-0.95
-0.95
-1.01
-1.08
-1.05
-0.86
-0.55
-0.19
0.11
0.29
0.31
0.22
0.01
-0.25
-0.49
-0.62
-0.52
-0.20
0.27
0.74
1.09
1.28
1.39
1.49
1.59
1.63
1.48
1.08
0.49
-0.12
-0.57
-0.80
-0.84
-0.85
-0.94
-1.11
-1.28
-1.29
-1.10
-0.76
-0.44
-0.27
-0.33
-0.55
-0.78
-0.87
-0.77
-0.52
-0.23
-0.04
-0.03
-0.16
-0.35
-0.47
-0.38
-0.08
0.41
0.97
1.49
1.88
2.13
2.21
2.11
1.82
1.33
0.67
-0.05
-0.68
-1.07
-1.15
-0.97
-0.67
-0.36
-0.16
-0.09
-0.11
-0.19
-0.30
-0.41
-0.52
-0.60
-0.66
-0.71
-0.79
-0.92
-1.12
-1.30
-1.41
-1.35
-1.12
-0.74
-0.30
0.12
0.44
0.60
0.57
0.36
0.05
-0.21
-0.28
-0.08
0.34
0.85
1.28
1.52
1.55
1.44
1.25
1.05
0.87
0.70
0.56
0.44
0.33
0.20
0.00
-0.28
-0.61
-0.95
-1.22
-1.36
-1.36
-1.20
-0.93
-0.59
-0.28
-0.05
0.06
0.07
0.09
0.24
0.60
1.17
1.85
2.50
2.97
3.16
3.03
2.58
1.87
1.02
0.18
-0.49
-0.86
-0.94
-0.81
-0.62
-0.52
-0.55
-0.68
-0.84
-0.95
-0.99
-1.01
-1.05
-1.15
-1.28
-1.39
-1.42
-1.33
-1.14
-0.92
-0.77
-0.70
-0.70
-0.66
-0.46
-0.08
0.43
0.91
1.19
1.19
0.98
0.69
0.48
0.45
0.58
0.78
0.92
0.93
0.76
0.45
0.03
-0.42
-0.81
-1.07
-1.18
-1.15
-1.03
-0.87
-0.68
-0.48
-0.26
-0.07
0.04
0.05
-0.03
-0.13
-0.18
-0.14
-0.05
0.04
0.05
0.01
-0.03
-0.00
0.13
0.36
0.66
0.98
1.31
1.62
1.90
2.08
2.13
2.00
1.70
1.29
0.82
0.34
-0.12
-0.50
-0.76
-0.88
-0.84
-0.71
-0.60
-0.62
-0.81
-1.15
-1.54
-1.85
-1.94
-1.76
-1.32
-0.76
-0.20
0.19
0.38
0.39
0.32
0.29
0.33
0.41
0.50
0.55
0.58
0.63
0.69
0.71
0.59
0.26
-0.24
-0.77
-1.15
-1.25
-1.03
-0.62
-0.17
0.17
0.30
0.24
0.04
-0.20
-0.41
-0.54
-0.59
-0.60
-0.62
-0.69
-0.79
-0.88
-0.92
-0.87
-0.72
-0.47
-0.11
0.36
0.93
1.55
2.12
2.56
2.80
2.82
2.62
2.22
1.66
0.98
0.28
-0.31
-0.70
-0.86
-0.84
-0.77
-0.75
-0.80
-0.91
-1.00
-0.99
-0.88
-0.67
-0.40
-0.13
0.10
0.26
0.30
0.24
0.10
-0.08
-0.27
-0.45
-0.65
-0.87
-1.06
-1.15
-1.05
-0.74
-0.25
0.29
0.77
1.06
1.13
0.99
0.71
0.33
-0.08
-0.48
-0.84
-1.10
-1.19
-1.05
-0.69
-0.17
0.37
0.77
0.91
0.79
0.50
0.17
-0.06
-0.14
-0.08
0.01
0.05
-0.04
-0.22
-0.42
-0.56
-0.54
-0.36
-0.05
0.34
0.75
1.17
1.62
2.07
2.50
2.84
2.98
2.89
2.58
2.13
1.63
1.17
0.74
0.32
-0.13
-0.63
-1.13
-1.57
-1.85
-1.95
-1.84
-1.58
-1.26
-1.00
-0.92
-1.06
-1.39
-1.76
-2.01
-2.04
-1.86
-1.53
-1.19
-0.92
-0.71
-0.55
-0.44
-0.42
-0.58
-0.94
-1.44
-1.96
-2.35
-2.53
-2.52
-2.40
-2.26
-2.17
-2.15
-2.19
-2.28
-2.41
-2.56
-2.73
-2.93
-3.21
-3.63
-4.20
-4.87
-5.54
-6.06
-6.36
-6.46
-6.43
-6.33
-6.18
-5.91
-5.46
-4.79
-3.93
-2.96
-1.91
-0.72
0.76
2.61
4.78
7.02
8.95
10.22
10.67
10.35
9.50
8.48
7.59
6.98
6.65
6.47
6.24
5.81
5.12
4.21
3.22
2.32
1.60
1.03
0.54
0.06
-0.41
-0.74
-0.84
-0.71
-0.49
-0.43
-0.70
-1.28
-1.96
-2.45
-2.53
-2.23
-1.75
-1.38
-1.31
-1.52
-1.84
-2.05
-2.01
-1.72
-1.31
-0.91
-0.59
-0.32
-0.01
0.39
0.87
1.33
1.66
1.76
1.64
1.34
0.94
0.46
-0.11
-0.80
-1.59
-2.41
-3.13
-3.61
-3.81
-3.72
-3.45
-3.14
-2.90
-2.79
-2.81
-2.87
-2.83
-2.54
-1.93
-1.05
-0.04
0.87
1.53
1.87
1.97
1.92
1.83
1.73
1.63
1.55
1.62
1.95
2.63
3.59
4.62
5.45
5.90
5.92
5.68
5.37
5.17
5.12
5.12
5.03
4.76
4.31
3.78
3.31
3.02
2.93
2.96
2.99
2.87
2.56
2.08
1.56
1.10
0.78
0.57
0.42
0.24
0.03
-0.18
-0.32
-0.36
-0.33
-0.30
-0.40
-0.70
-1.21
-1.83
-2.44
-2.91
-3.17
-3.24
-3.20
-3.13
-3.07
-2.96
-2.78
-2.50
-2.19
-1.95
-1.85
-1.91
-2.09
-2.28
-2.41
-2.44
-2.34
-2.12
-1.80
-1.39
-0.95
-0.50
-0.09
0.30
0.67
1.06
1.47
1.92
2.44
3.01
3.63
4.22
4.68
4.92
4.91
4.73
4.52
4.39
4.40
4.52
4.63
4.64
4.48
4.16
3.73
3.26
2.77
2.27
1.73
1.12
0.45
-0.25
-0.87
-1.35
-1.67
-1.89
-2.10
-2.39
-2.77
-3.16
-3.46
-3.60
-3.57
-3.47
-3.40
-3.43
-3.57
-3.79
-4.04
-4.30
-4.58
-4.88
-5.18
-5.40
-5.46
-5.28
-4.85
-4.22
-3.54
-2.94
-2.52
-2.30
-2.21
-2.13
-1.90
-1.44
-0.74
0.13
1.02
1.77
2.28
2.55
2.61
2.56
2.45
2.25
1.92
1.40
0.71
-0.07
-0.83
-1.43
-1.83
-2.07
-2.26
-2.48
-2.74
-3.01
-3.20
-3.27
-3.25
-3.21
-3.20
-3.20
-3.09
-2.72
-2.02
-1.04
-0.00
0.80
1.08
0.72
-0.22
-1.46
-2.56
-3.06
-2.60
-1.08
1.29
3.98
6.39
8.01
8.65
8.42
7.71
6.94
6.44
6.38
6.81
7.70
8.96
10.47
12.01
13.34
14.24
14.64
14.57
14.16
13.43
12.31
10.60
8.15
5.00
1.45
-2.02
-4.96
-7.12
-8.48
-9.20
-9.46
-9.41
-9.09
-8.51
-7.72
-6.84
-6.00
-5.28
-4.74
-4.33
-3.98
-3.62
-3.23
-2.79
-2.34
-1.92
-1.57
-1.31
-1.09
-0.85
-0.52
-0.05
0.53
1.14
1.67
2.03
2.14
1.99
1.61
1.10
0.62
0.31
0.25
0.41
0.64
0.71
0.45
-0.19
-1.08
-2.00
-2.74
-3.15
-3.22
-3.03
-2.68
-2.27
-1.86
-1.47
-1.12
-0.81
-0.53
-0.25
0.04
0.37
0.72
1.10
1.45
1.72
1.85
1.79
1.53
1.12
0.66
0.23
-0.12
-0.37
-0.57
-0.76
-0.97
-1.20
-1.43
-1.64
-1.81
-1.92
-1.94
-1.88
-1.74
-1.57
-1.42
-1.30
-1.22
-1.16
-1.09
-1.01
-0.93
-0.87
-0.79
-0.65
-0.41
-0.08
0.29
0.60
0.79
0.83
0.75
0.62
0.49
0.38
0.27
0.12
-0.05
-0.22
-0.34
-0.39
-0.37
-0.35
-0.36
-0.45
-0.58
-0.72
-0.80
-0.78
-0.68
-0.54
-0.40
-0.32
-0.31
-0.38
-0.51
-0.70
-0.91
-1.11
-1.22
-1.19
-1.02
-0.74
-0.44
-0.20
-0.08
-0.06
-0.10
-0.13
-0.10
-0.00
0.16
0.34
0.48
0.54
0.46
0.28
0.05
-0.14
-0.22
-0.19
-0.07
0.10
0.26
0.37
0.44
0.45
0.39
0.26
0.10
-0.05
-0.13
-0.08
0.09
0.32
0.52
0.61
0.56
0.40
0.21
0.08
0.07
0.18
0.32
0.42
0.41
0.28
0.07
-0.14
-0.27
-0.31
-0.25
-0.12
0.04
0.21
0.37
0.51
0.60
0.63
0.56
0.39
0.12
-0.22
-0.60
-0.95
-1.22
-1.34
-1.29
-1.10
-0.84
-0.60
-0.41
-0.29
-0.20
-0.12
-0.06
-0.07
-0.20
-0.45
-0.72
-0.92
-0.96
-0.88
-0.74
-0.65
-0.62
-0.60
-0.49
-0.25
0.08
0.39
0.58
0.64
0.58
0.50
0.44
0.41
0.37
0.27
0.12
-0.04
-0.15
-0.18
-0.14
-0.09
-0.09
-0.19
-0.39
-0.60
-0.72
-0.64
-0.34
0.10
0.51
0.76
0.79
0.66
0.51
0.45
0.49
0.57
0.61
0.54
0.37
0.18
0.03
-0.04
-0.05
-0.03
0.02
0.06
0.10
0.15
0.18
0.19
0.18
0.12
0.02
-0.10
-0.22
-0.29
-0.26
-0.09
0.20
0.57
0.91
1.13
1.16
1.00
0.71
0.37
0.09
-0.07
-0.12
-0.09
-0.04
0.02
0.09
0.18
0.26
0.27
0.13
-0.17
-0.55
-0.86
-0.97
-0.83
-0.51
-0.19
-0.00
0.00
-0.10
-0.17
-0.13
-0.01
0.11
0.12
-0.00
-0.21
-0.40
-0.52
-0.55
-0.51
-0.44
-0.33
-0.15
0.10
0.37
0.58
0.63
0.52
0.31
0.11
-0.02
-0.08
-0.12
-0.18
-0.27
-0.32
-0.29
-0.14
0.09
0.33
0.54
0.69
0.82
0.90
0.92
0.82
0.56
0.17
-0.25
-0.58
-0.72
-0.62
-0.35
-0.01
0.27
0.37
0.23
-0.13
-0.59
-0.98
-1.15
-1.05
-0.75
-0.37
-0.07
0.07
0.05
-0.09
-0.28
-0.50
-0.72
-0.92
-1.04
-1.01
-0.83
-0.52
-0.18
0.05
0.12
0.01
-0.20
-0.41
-0.49
-0.37
-0.05
0.40
0.85
1.18
1.30
1.20
0.97
0.71
0.51
0.37
0.26
0.16
0.06
0.02
0.06
0.13
0.15
0.04
-0.19
-0.49
-0.72
-0.79
-0.67
-0.42
-0.11
0.15
0.31
0.37
0.34
0.25
0.16
0.09
0.07
0.10
0.14
0.14
0.09
0.02
-0.02
0.01
0.08
0.17
0.23
0.22
0.16
0.07
-0.02
-0.09
-0.11
-0.07
0.03
0.18
0.33
0.46
0.54
0.56
0.53
0.44
0.29
0.08
-0.18
-0.42
-0.61
-0.68
-0.64
-0.55
-0.46
-0.42
-0.44
-0.50
-0.55
-0.58
-0.58
-0.55
-0.49
-0.38
-0.23
-0.04
0.16
0.32
0.41
0.40
0.32
0.21
0.10
0.06
0.07
0.13
0.21
0.28
0.35
0.43
0.54
0.68
0.83
0.94
0.95
0.84
0.63
0.36
0.10
-0.09
-0.18
-0.18
-0.11
-0.01
0.09
0.16
0.19
0.19
0.17
0.13
0.10
0.06
0.01
-0.07
-0.19
-0.33
-0.47
-0.55
-0.56
-0.48
-0.34
-0.22
-0.20
-0.29
-0.48
-0.68
-0.77
-0.67
-0.37
0.07
0.53
0.84
0.93
0.77
0.45
0.10
-0.16
-0.25
-0.16
0.04
0.26
0.44
0.54
0.56
0.55
0.54
0.55
0.53
0.46
0.33
0.15
-0.01
-0.06
0.02
0.22
0.45
0.60
0.63
0.52
0.32
0.08
-0.18
-0.46
-0.74
-1.00
-1.17
-1.23
-1.19
-1.10
-1.01
-0.92
-0.78
-0.50
-0.07
0.45
0.90
1.14
1.09
0.78
0.34
-0.08
-0.35
-0.43
-0.33
-0.10
0.17
0.41
0.55
0.54
0.38
0.11
-0.21
-0.48
-0.62
-0.59
-0.42
-0.16
0.08
0.21
0.15
-0.10
-0.50
-0.93
-1.28
-1.44
-1.36
-1.05
-0.62
-0.19
0.10
0.21
0.18
0.13
0.17
0.35
0.59
0.80
0.90
0.88
0.82
0.80
0.87
0.98
1.03
0.92
0.63
0.21
-0.21
-0.51
-0.62
-0.57
-0.43
-0.30
-0.25
-0.28
-0.33
-0.36
-0.34
-0.31
-0.33
-0.42
-0.57
-0.66
-0.64
-0.46
-0.19
0.07
0.28
0.40
0.49
0.57
0.64
0.64
0.53
0.28
-0.04
-0.33
-0.50
-0.49
-0.30
0.00
0.32
0.54
0.60
0.45
0.15
-0.20
-0.48
-0.57
-0.48
-0.25
0.01
0.22
0.37
0.49
0.60
0.70
0.75
0.71
0.55
0.31
0.08
-0.08
-0.17
-0.22
-0.31
-0.51
-0.79
-1.06
-1.21
-1.18
-0.97
-0.67
-0.36
-0.11
0.08
0.23
0.34
0.42
0.46
0.41
0.30
0.14
-0.02
-0.15
-0.25
-0.27
-0.21
-0.06
0.17
0.42
0.63
0.74
0.73
0.66
0.59
0.54
0.50
0.39
0.18
-0.10
-0.35
-0.47
-0.38
-0.11
0.23
0.50
0.64
0.63
0.54
0.42
0.31
0.18
0.01
-0.21
-0.45
-0.64
-0.72
-0.67
-0.50
-0.26
-0.01
0.19
0.32
0.34
0.27
0.14
0.04
0.02
0.15
0.38
0.63
0.77
0.70
0.43
-0.01
-0.49
-0.90
-1.14
-1.16
-0.97
-0.59
-0.13
0.28
0.53
0.55
0.36
0.04
-0.28
-0.52
-0.60
-0.55
-0.40
-0.19
0.02
0.20
0.32
0.37
0.33
0.22
0.08
-0.07
-0.19
-0.25
-0.24
-0.17
-0.07
0.01
0.04
0.02
0.02
0.07
0.21
0.41
0.58
0.64
0.54
0.29
-0.02
-0.29
-0.46
-0.48
-0.37
-0.18
0.03
0.21
0.32
0.36
0.31
0.19
-0.00
-0.23
-0.41
-0.48
-0.35
-0.02
0.45
0.93
1.27
1.35
1.14
0.73
0.26
-0.12
-0.28
-0.22
0.00
0.25
0.38
0.33
0.09
-0.24
-0.53
-0.69
-0.69
-0.59
-0.43
-0.24
-0.05
0.12
0.24
0.22
0.02
-0.32
-0.68
-0.92
-0.94
-0.78
-0.55
-0.41
-0.40
-0.47
-0.51
-0.44
-0.25
-0.03
0.09
0.07
-0.08
-0.24
-0.31
-0.25
-0.05
0.22
0.46
0.61
0.64
0.56
0.42
0.28
0.18
0.17
0.25
0.38
0.51
0.57
0.51
0.33
0.06
-0.23
-0.47
-0.60
-0.60
-0.46
-0.21
0.09
0.34
0.49
0.49
0.36
0.14
-0.11
-0.34
-0.53
-0.67
-0.71
-0.62
-0.38
-0.03
0.30
0.46
0.36
0.06
-0.26
-0.43
-0.34
-0.07
0.22
0.34
0.25
-0.01
-0.28
-0.46
-0.49
-0.46
-0.45
-0.54
-0.71
-0.89
-0.99
-0.95
-0.75
-0.42
-0.05
0.30
0.56
0.72
0.80
0.85
0.92
1.01
1.09
1.12
1.11
1.06
1.03
1.04
1.08
1.08
0.97
0.71
0.36
0.01
-0.21
-0.26
-0.16
-0.03
0.06
0.06
0.00
-0.03
-0.00
0.07
0.13
0.14
0.10
0.06
0.11
0.26
0.43
0.51
0.41
0.14
-0.21
-0.48
-0.58
-0.51
-0.35
-0.24
-0.25
-0.36
-0.49
-0.54
-0.48
-0.32
-0.14
0.04
0.21
0.40
0.61
0.83
1.00
1.09
1.07
0.93
0.65
0.25
-0.20
-0.61
-0.84
-0.81
-0.53
-0.09
0.34
0.61
0.65
0.47
0.17
-0.17
-0.45
-0.64
-0.75
-0.78
-0.75
-0.69
-0.61
-0.52
-0.42
-0.33
-0.23
-0.10
0.06
0.26
0.45
0.56
0.53
0.36
0.09
-0.17
-0.35
-0.40
-0.36
-0.24
-0.06
0.18
0.43
0.63
0.70
0.60
0.37
0.13
-0.00
0.02
0.15
0.30
0.37
0.34
0.24
0.09
-0.08
-0.30
-0.55
-0.79
-0.93
-0.92
-0.74
-0.43
-0.09
0.22
0.43
0.52
0.48
0.33
0.11
-0.12
-0.31
-0.40
-0.38
-0.25
-0.07
0.11
0.23
0.25
0.18
0.06
-0.08
-0.19
-0.28
-0.35
-0.38
-0.36
-0.25
-0.06
0.16
0.34
0.38
0.24
-0.04
-0.38
-0.69
-0.89
-0.97
-0.92
-0.78
-0.56
-0.31
-0.07
0.14
0.28
0.36
0.37
0.33
0.21
0.04
-0.13
-0.24
-0.21
-0.04
0.20
0.42
0.54
0.57
0.56
0.59
0.70
0.83
0.90
0.81
0.57
0.27
0.03
-0.07
-0.04
0.02
-0.00
-0.17
-0.44
-0.70
-0.82
-0.75
-0.49
-0.14
0.21
0.46
0.57
0.54
0.42
0.26
0.10
-0.03
-0.12
-0.17
-0.23
-0.36
-0.57
-0.83
-1.06
-1.18
-1.11
-0.83
-0.42
0.04
0.44
0.72
0.84
0.79
0.61
0.36
0.14
0.03
0.08
0.29
0.55
0.74
0.75
0.57
0.23
-0.20
-0.62
-0.95
-1.13
-1.10
-0.88
-0.53
-0.17
0.07
0.13
0.02
-0.17
-0.31
-0.35
-0.29
-0.18
-0.07
0.05
0.21
0.42
0.62
0.73
0.66
0.43
0.11
-0.18
-0.34
-0.34
-0.21
-0.03
0.14
0.26
0.33
0.33
0.29
0.24
0.21
0.25
0.33
0.38
0.36
0.25
0.08
-0.09
-0.25
-0.40
-0.58
-0.75
-0.84
-0.74
-0.41
0.07
0.56
0.89
0.99
0.89
0.71
0.58
0.53
0.50
0.41
0.25
0.03
-0.16
-0.27
-0.29
-0.30
-0.36
-0.52
-0.73
-0.92
-0.99
-0.89
-0.64
-0.31
0.02
0.26
0.40
0.45
0.49
0.54
0.66
0.80
0.92
0.93
0.77
0.43
-0.05
-0.56
-1.00
-1.29
-1.39
-1.32
-1.13
-0.88
-0.60
-0.33
-0.09
0.06
0.08
-0.08
-0.39
-0.77
-1.07
-1.17
-0.99
-0.59
-0.12
0.24
0.36
0.22
-0.07
-0.38
-0.56
-0.59
-0.48
-0.33
-0.19
-0.09
-0.02
0.04
0.07
0.06
0.04
0.03
0.12
0.34
0.67
0.99
1.17
1.12
0.88
0.56
0.37
0.44
0.75
1.18
1.50
1.53
1.23
0.70
0.17
-0.16
-0.18
0.07
0.47
0.86
1.12
1.22
1.15
0.94
0.64
0.30
-0.01
-0.23
-0.33
-0.32
-0.23
-0.13
-0.09
-0.14
-0.27
-0.45
-0.60
-0.67
-0.66
-0.58
-0.48
-0.38
-0.29
-0.17
-0.04
0.05
0.03
-0.15
-0.44
-0.70
-0.75
-0.50
0.00
0.59
1.04
1.21
1.08
0.72
0.26
-0.18
-0.52
-0.69
-0.68
-0.49
-0.17
0.17
0.42
0.48
0.34
0.07
-0.22
-0.42
-0.49
-0.40
-0.19
0.11
0.44
0.73
0.91
0.93
0.80
0.55
0.28
0.08
0.01
0.09
0.31
0.58
0.81
0.91
0.79
0.43
-0.09
-0.66
-1.12
-1.38
-1.42
-1.30
-1.14
-1.01
-0.92
-0.82
-0.65
-0.42
-0.18
-0.04
-0.03
-0.12
-0.22
-0.24
-0.17
-0.11
-0.18
-0.42
-0.79
-1.12
-1.22
-1.02
-0.58
-0.07
0.33
0.55
0.64
0.69
0.80
0.95
1.03
0.95
0.68
0.30
-0.04
-0.17
-0.06
0.26
0.64
0.93
1.03
0.91
0.66
0.39
0.20
0.15
0.22
0.35
0.44
0.42
0.28
0.04
-0.22
-0.44
-0.57
-0.59
-0.51
-0.35
-0.14
0.07
0.22
0.25
0.10
-0.18
-0.51
-0.76
-0.83
-0.68
-0.38
-0.05
0.20
0.28
0.22
0.08
-0.03
-0.05
0.03
0.17
0.27
0.28
0.19
0.09
0.07
0.18
0.38
0.56
0.61
0.46
0.17
-0.14
-0.31
-0.28
-0.08
0.17
0.32
0.29
0.08
-0.23
-0.53
-0.70
-0.70
-0.51
-0.24
0.00
0.14
0.15
0.06
-0.05
-0.12
-0.13
-0.13
-0.16
-0.26
-0.38
-0.45
-0.40
-0.22
-0.00
0.15
0.15
0.01
-0.20
-0.37
-0.45
-0.47
-0.51
-0.62
-0.78
-0.90
-0.89
-0.73
-0.46
-0.19
-0.00
0.07
0.07
0.05
0.08
0.19
0.38
0.63
0.92
1.18
1.33
1.30
1.08
0.76
0.45
0.27
0.23
0.27
0.29
0.24
0.14
0.02
-0.06
-0.12
-0.22
-0.39
-0.62
-0.83
-0.94
-0.89
-0.68
-0.36
-0.01
0.30
0.49
0.52
0.39
0.17
-0.04
-0.17
-0.17
-0.09
0.00
0.03
-0.04
-0.16
-0.33
-0.50
-0.66
-0.79
-0.83
-0.72
-0.46
-0.10
0.25
0.45
0.44
0.26
0.00
-0.21
-0.30
-0.28
-0.24
-0.24
-0.33
-0.49
-0.63
-0.69
-0.60
-0.39
-0.11
0.17
0.40
0.55
0.61
0.57
0.45
0.29
0.15
0.12
0.27
0.58
0.96
1.28
1.42
1.34
1.12
0.87
0.70
0.65
0.68
0.74
0.78
0.80
0.82
0.84
0.84
0.76
0.61
0.42
0.26
0.20
0.23
0.28
0.26
0.11
-0.15
-0.46
-0.73
-0.92
-0.99
-0.97
-0.84
-0.63
-0.38
-0.15
-0.01
0.01
-0.07
-0.18
-0.24
-0.24
-0.21
-0.21
-0.26
-0.32
-0.33
-0.25
-0.11
-0.03
-0.08
-0.31
-0.64
-0.92
-1.05
-1.01
-0.87
-0.76
-0.72
-0.74
-0.72
-0.59
-0.38
-0.16
-0.05
-0.07
-0.15
-0.17
-0.04
0.20
0.44
0.54
0.41
0.09
-0.27
-0.54
-0.65
-0.61
-0.54
-0.53
-0.64
-0.85
-1.09
-1.31
-1.44
-1.51
-1.55
-1.61
-1.73
-1.88
-2.04
-2.16
-2.22
-2.22
-2.20
-2.24
-2.40
-2.74
-3.26
-3.91
-4.61
-5.26
-5.80
-6.22
-6.57
-6.91
-7.28
-7.69
-8.11
-8.52
-8.93
-9.38
-9.88
-10.43
-10.91
-11.16
-10.96
-10.14
-8.56
-6.27
-3.39
-0.20
3.00
5.92
8.38
10.34
11.84
13.02
14.01
14.87
15.63
16.25
16.71
17.01
17.18
17.30
17.41
17.56
17.72
17.87
17.96
17.96
17.80
17.31
16.29
14.52
11.93
8.65
5.05
1.66
-1.07
-2.94
-4.03
-4.66
-5.14
-5.62
-6.08
-6.34
-6.26
-5.85
-5.27
-4.72
-4.31
-4.04
-3.83
-3.63
-3.45
-3.42
-3.64
-4.17
-4.89
-5.63
-6.16
-6.27
-5.80
-4.67
-2.91
-0.66
1.78
4.07
5.85
6.85
7.01
6.41
5.30
3.94
2.53
1.17
-0.12
-1.38
-2.60
-3.70
-4.57
-5.13
-5.35
-5.27
-5.03
-4.74
-4.48
-4.25
-4.04
-3.80
-3.54
-3.29
-3.10
-2.98
-2.91
-2.82
-2.66
-2.38
-2.01
-1.58
-1.17
-0.86
-0.66
-0.57
-0.57
-0.58
-0.59
-0.55
-0.44
-0.28
-0.10
0.05
0.12
0.12
0.08
0.09
0.19
0.39
0.62
0.80
0.87
0.80
0.63
0.35
-0.01
-0.45
-0.91
-1.30
-1.56
-1.64
-1.57
-1.44
-1.34
-1.30
-1.31
-1.33
-1.37
-1.47
-1.71
-2.14
-2.74
-3.41
-4.02
-4.49
-4.80
-4.97
-5.03
-4.98
-4.80
-4.51
-4.14
-3.74
-3.39
-3.10
-2.83
-2.50
-2.03
-1.36
-0.50
0.51
1.62
2.76
3.86
4.82
5.57
6.08
6.40
6.62
6.83
7.04
7.16
7.04
6.53
5.54
4.13
2.44
0.65
-1.07
-2.63
-3.95
-4.99
-5.69
-5.98
-5.88
-5.47
-4.91
-4.43
-4.20
-4.30
-4.68
-5.16
-5.52
-5.57
-5.25
-4.67
-4.01
-3.46
-3.12
-2.98
-2.95
-2.87
-2.59
-2.01
-1.15
-0.09
1.05
2.11
2.98
3.65
4.17
4.61
5.01
5.35
5.56
5.57
5.40
5.15
4.93
4.81
4.79
4.81
4.82
4.84
4.90
5.05
5.28
5.52
5.69
5.70
5.54
5.23
4.84
4.45
4.14
3.98
3.98
4.11
4.27
4.32
4.15
3.76
3.21
2.61
2.03
1.49
0.93
0.33
-0.25
-0.72
-0.99
-1.05
-1.01
-1.04
-1.25
-1.66
-2.15
-2.56
-2.79
-2.80
-2.66
-2.44
-2.21
-1.99
-1.82
-1.73
-1.71
-1.73
-1.72
-1.58
-1.23
-0.67
0.03
0.74
1.37
1.80
1.99
1.91
1.57
1.04
0.44
-0.06
-0.32
-0.25
0.11
0.64
1.15
1.47
1.51
1.25
0.75
0.14
-0.50
-1.03
-1.40
-1.53
-1.44
-1.15
-0.76
-0.33
0.09
0.47
0.83
1.15
1.40
1.55
1.57
1.48
1.32
1.13
0.95
0.79
0.66
0.56
0.51
0.50
0.49
0.43
0.23
-0.12
-0.60
-1.20
-1.85
-2.53
-3.21
-3.83
-4.35
-4.70
-4.90
-4.97
-4.92
-4.79
-4.54
-4.18
-3.78
-3.41
-3.14
-3.02
-2.96
-2.88
-2.72
-2.50
-2.31
-2.26
-2.36
-2.52
-2.63
-2.58
-2.35
-2.03
-1.72
-1.51
-1.44
-1.50
-1.61
-1.67
-1.54
-1.15
-0.48
0.40
1.37
2.32
3.14
3.81
4.35
4.79
5.18
5.51
5.78
6.02
6.24
6.43
6.57
6.55
6.26
5.64
4.74
3.72
2.75
1.98
1.44
1.07
0.75
0.37
-0.07
-0.53
-0.93
-1.23
-1.45
-1.60
-1.71
-1.74
-1.64
-1.39
-0.98
-0.44
0.15
0.69
1.07
1.23
1.15
0.87
0.51
0.15
-0.14
-0.33
-0.47
-0.65
-0.89
-1.21
-1.56
-1.87
-2.06
-2.10
-1.96
-1.67
-1.24
-0.72
-0.19
0.25
0.47
0.43
0.17
-0.16
-0.36
-0.32
-0.02
0.40
0.76
0.92
0.85
0.62
0.37
0.18
0.11
0.11
0.13
0.11
0.05
-0.04
-0.13
-0.21
-0.27
-0.32
-0.40
-0.52
-0.67
-0.84
-0.99
-1.12
-1.26
-1.46
-1.71
-1.95
-2.04
-1.87
-1.41
-0.77
-0.12
0.31
0.41
0.18
-0.23
-0.63
-0.85
-0.83
-0.61
-0.30
0.00
0.22
0.32
0.33
0.30
0.27
0.27
0.29
0.31
0.30
0.28
0.29
0.38
0.54
0.71
0.79
0.70
0.47
0.19
0.01
0.01
0.17
0.38
0.53
0.59
0.59
0.62
0.72
0.86
0.94
0.88
0.67
0.37
0.09
-0.08
-0.15
-0.17
-0.19
-0.21
-0.17
-0.03
0.19
0.42
0.51
0.39
0.11
-0.20
-0.37
-0.33
-0.16
-0.00
-0.02
-0.23
-0.54
-0.76
-0.73
-0.42
0.06
0.53
0.82
0.89
0.77
0.58
0.43
0.38
0.43
0.50
0.56
0.58
0.58
0.57
0.54
0.44
0.23
-0.10
-0.49
-0.83
-1.02
-1.07
-1.02
-0.97
-0.99
-1.07
-1.10
-0.99
-0.68
-0.18
0.37
0.82
1.04
0.97
0.60
0.05
-0.55
-1.03
-1.27
-1.25
-1.01
-0.72
-0.50
-0.45
-0.58
-0.83
-1.10
-1.31
-1.42
-1.41
-1.29
-1.07
-0.76
-0.41
-0.08
0.17
0.31
0.34
0.31
0.25
0.20
0.15
0.04
-0.19
-0.56
-0.98
-1.33
-1.48
-1.37
-1.10
-0.83
-0.77
-1.01
-1.53
-2.16
-2.71
-3.05
-3.19
-3.20
-3.21
-3.30
-3.47
-3.66
-3.82
-3.90
-3.87
-3.73
-3.44
-2.97
-2.30
-1.47
-0.55
0.36
1.14
1.77
2.24
2.64
3.06
3.54
4.10
4.69
5.23
5.67
5.94
6.04
5.98
5.76
5.39
4.89
4.27
3.53
2.69
1.79
0.87
0.02
-0.71
-1.23
-1.52
-1.60
-1.53
-1.38
-1.21
-1.03
-0.87
-0.70
-0.56
-0.45
-0.38
-0.29
-0.14
0.10
0.43
0.81
1.15
1.44
1.63
1.74
1.77
1.72
1.58
1.36
1.09
0.82
0.56
0.28
-0.07
-0.57
-1.21
-1.93
-2.59
-3.04
-3.17
-2.96
-2.51
-1.99
-1.60
-1.50
-1.77
-2.35
-3.11
-3.86
-4.42
-4.65
-4.48
-3.97
-3.23
-2.48
-1.91
-1.71
-1.89
-2.32
-2.69
-2.64
-1.84
-0.18
2.20
4.94
7.53
9.51
10.62
10.83
10.33
9.36
8.15
6.82
5.44
4.07
2.82
1.84
1.20
0.89
0.76
0.63
0.38
0.02
-0.36
-0.61
-0.68
-0.61
-0.49
-0.40
-0.38
-0.39
-0.40
-0.41
-0.45
-0.54
-0.66
-0.77
-0.81
-0.74
-0.58
-0.39
-0.26
-0.25
-0.40
-0.68
-1.03
-1.37
-1.62
-1.74
-1.72
-1.61
-1.46
-1.33
-1.25
-1.22
-1.23
-1.23
-1.18
-1.07
-0.90
-0.72
-0.57
-0.48
-0.42
-0.35
-0.26
-0.18
-0.20
-0.37
-0.67
-1.00
-1.23
-1.26
-1.13
-0.95
-0.85
-0.90
-1.07
-1.25
-1.32
-1.24
-1.05
-0.82
-0.64
-0.56
-0.57
-0.68
-0.88
-1.17
-1.54
-1.92
-2.23
-2.37
-2.29
-1.98
-1.54
-1.08
-0.73
-0.56
-0.57
-0.70
-0.88
-1.07
-1.25
-1.43
-1.65
-1.91
-2.24
-2.63
-3.09
-3.65
-4.33
-5.09
-5.78
-6.14
-5.85
-4.59
-2.17
1.30
5.47
9.77
13.59
16.46
18.05
18.26
17.16
14.94
11.90
8.48
5.11
2.21
0.09
-1.18
-1.65
-1.55
-1.11
-0.58
-0.10
0.22
0.36
0.34
0.19
0.02
-0.11
-0.18
-0.17
-0.12
-0.08
-0.07
-0.11
-0.18
-0.29
-0.42
-0.58
-0.71
-0.76
-0.69
-0.49
-0.21
0.03
0.13
0.01
-0.29
-0.68
-1.02
-1.24
-1.30
-1.28
-1.25
-1.24
-1.24
-1.20
-1.06
-0.85
-0.63
-0.48
-0.44
-0.50
-0.59
-0.63
-0.61
-0.57
-0.56
-0.65
-0.84
-1.07
-1.27
-1.36
-1.35
-1.31
-1.29
-1.31
-1.33
-1.23
-0.97
-0.56
-0.12
0.20
0.29
0.15
-0.12
-0.40
-0.61
-0.73
-0.79
-0.80
-0.75
-0.60
-0.35
-0.06
0.18
0.32
0.33
0.24
0.10
-0.04
-0.18
-0.30
-0.37
-0.37
-0.30
-0.18
-0.08
-0.07
-0.18
-0.38
-0.59
-0.73
-0.73
-0.58
-0.34
-0.09
0.10
0.17
0.13
0.02
-0.08
-0.10
-0.02
0.16
0.34
0.46
0.43
0.24
-0.06
-0.38
-0.63
-0.74
-0.72
-0.61
-0.48
-0.35
-0.24
-0.11
0.06
0.24
0.36
0.37
0.23
-0.05
-0.38
-0.69
-0.89
-0.94
-0.84
-0.61
-0.28
0.12
0.54
0.96
1.32
1.55
1.60
1.46
1.15
0.77
0.44
0.25
0.25
0.35
0.44
0.35
0.04
-0.45
-0.98
-1.39
-1.55
-1.43
-1.13
-0.77
-0.50
-0.39
-0.43
-0.57
-0.68
-0.68
-0.55
-0.33
-0.08
0.10
0.20
0.25
0.29
0.35
0.41
0.41
0.34
0.23
0.13
0.12
0.22
0.37
0.50
0.54
0.48
0.35
0.19
0.07
-0.02
-0.06
-0.10
-0.13
-0.17
-0.19
-0.17
-0.05
0.16
0.45
0.75
1.00
1.16
1.23
1.23
1.15
0.96
0.64
0.21
-0.25
-0.59
-0.72
-0.61
-0.37
-0.15
-0.08
-0.18
-0.41
-0.66
-0.84
-0.93
-0.96
-0.96
-0.94
-0.89
-0.80
-0.70
-0.64
-0.67
-0.78
-0.84
-0.72
-0.34
0.26
0.90
1.36
1.46
1.21
0.74
0.28
-0.02
-0.12
-0.08
-0.02
-0.02
-0.08
-0.13
-0.13
-0.10
-0.07
-0.10
-0.20
-0.36
-0.53
-0.65
-0.72
-0.75
-0.79
-0.86
-0.94
-0.99
-0.97
-0.82
-0.55
-0.20
0.14
0.41
0.61
0.77
0.92
1.09
1.27
1.40
1.45
1.43
1.36
1.25
1.09
0.81
0.41
-0.09
-0.56
-0.85
-0.86
-0.55
-0.05
0.50
0.94
1.16
1.15
0.98
0.71
0.40
0.11
-0.13
-0.32
-0.45
-0.53
-0.56
-0.54
-0.47
-0.37
-0.24
-0.11
-0.03
-0.03
-0.11
-0.25
-0.39
-0.47
-0.42
-0.23
0.07
0.38
0.60
0.67
0.59
0.40
0.22
0.15
0.22
0.40
0.60
0.71
0.67
0.47
0.17
-0.16
-0.47
-0.72
-0.91
-1.02
-1.04
-0.96
-0.78
-0.53
-0.29
-0.14
-0.16
-0.32
-0.53
-0.69
-0.69
-0.51
-0.21
0.14
0.46
0.69
0.86
0.98
1.06
1.11
1.10
1.03
0.93
0.84
0.81
0.82
0.82
0.75
0.55
0.23
-0.16
-0.50
-0.71
-0.75
-0.64
-0.47
-0.32
-0.20
-0.11
0.00
0.16
0.32
0.42
0.42
0.30
0.16
0.11
0.26
0.62
1.09
1.48
1.60
1.33
0.72
-0.06
-0.80
-1.31
-1.54
-1.54
-1.43
-1.29
-1.18
-1.05
-0.88
-0.66
-0.44
-0.32
-0.37
-0.59
-0.91
-1.22
-1.40
-1.42
-1.28
-1.08
-0.92
-0.86
-0.88
-0.95
-1.02
-1.06
-1.04
-0.98
-0.84
-0.61
-0.26
0.17
0.62
0.99
1.22
1.27
1.17
0.97
0.72
0.46
0.26
0.15
0.18
0.36
0.63
0.91
1.11
1.17
1.12
1.03
1.00
1.13
1.47
1.96
2.52
3.01
3.35
3.50
3.50
3.42
3.34
3.29
3.25
3.18
3.04
2.84
2.61
2.35
2.07
1.74
1.37
0.94
0.49
0.06
-0.31
-0.61
-0.88
-1.18
-1.55
-1.97
-2.38
-2.66
-2.69
-2.47
-2.09
-1.70
-1.48
-1.48
-1.68
-1.99
-2.32
-2.62
-2.87
-3.07
-3.19
-3.14
-2.83
-2.24
-1.43
-0.56
0.21
0.80
1.20
1.46
1.68
1.91
2.16
2.39
2.57
2.67
2.69
2.68
2.70
2.83
3.12
3.56
4.07
4.51
4.76
4.72
4.40
3.93
3.49
3.25
3.29
3.52
3.80
3.96
3.86
3.52
2.99
2.35
1.65
0.92
0.17
-0.56
-1.23
-1.80
-2.30
-2.79
-3.38
-4.09
-4.90
-5.76
-6.59
-7.36
-8.07
-8.72
-9.29
-9.68
-9.81
-9.57
-8.88
-7.72
-6.16
-4.32
-2.39
-0.57
0.97
2.12
2.82
3.07
2.88
2.29
1.42
0.47
-0.36
-0.87
-0.98
-0.77
-0.43
-0.23
-0.35
-0.86
-1.65
-2.51
-3.18
-3.51
-3.42
-2.98
-2.36
-1.70
-1.16
-0.78
-0.58
-0.51
-0.52
-0.53
-0.48
-0.32
-0.02
0.36
0.75
1.02
1.09
0.98
0.79
0.70
0.87
1.40
2.19
3.05
3.72
4.03
3.93
3.57
3.12
2.73
2.47
2.28
2.08
1.83
1.55
1.29
1.07
0.85
0.52
0.02
-0.65
-1.40
-2.03
-2.41
-2.46
-2.23
-1.83
-1.41
-1.09
-0.90
-0.85
-0.89
-0.96
-1.03
-1.06
-1.07
-1.07
-1.06
-1.01
-0.88
-0.69
-0.44
-0.22
-0.08
-0.08
-0.18
-0.33
-0.44
-0.45
-0.35
-0.18
-0.02
0.08
0.09
0.07
0.05
0.08
0.17
0.26
0.26
0.11
-0.17
-0.51
-0.78
-0.89
-0.83
-0.66
-0.49
-0.42
-0.47
-0.61
-0.80
-1.02
-1.26
-1.53
-1.82
-2.09
-2.32
-2.50
-2.69
-2.95
-3.35
-3.90
-4.57
-5.28
-5.99
-6.67
-7.36
-8.05
-8.67
-9.11
-9.20
-8.86
-8.08
-6.97
-5.73
-4.55
-3.56
-2.77
-2.07
-1.29
-0.26
1.13
2.89
4.88
6.85
8.51
9.67
10.26
10.40
10.32
10.22
10.20
10.24
10.24
10.12
9.86
9.50
9.15
8.90
8.78
8.80
8.90
9.01
9.03
8.84
8.37
7.58
6.54
5.36
4.15
3.01
1.95
0.96
0.03
-0.82
-1.51
-1.99
-2.24
-2.38
-2.52
-2.78
-3.14
-3.51
-3.73
-3.68
-3.37
-2.91
-2.48
-2.18
-2.06
-2.05
-2.05
-2.02
-1.94
-1.86
-1.83
-1.86
-1.90
-1.88
-1.76
-1.53
-1.28
-1.10
-1.07
-1.17
-1.35
-1.49
-1.53
-1.44
-1.24
-0.99
-0.71
-0.42
-0.14
0.11
0.29
0.39
0.38
0.27
0.08
-0.18
-0.47
-0.70
-0.80
-0.73
-0.51
-0.22
0.01
0.08
-0.01
-0.18
-0.33
-0.38
-0.29
-0.11
0.09
0.28
0.42
0.53
0.66
0.82
1.00
1.16
1.24
1.18
0.99
0.68
0.33
0.02
-0.24
-0.42
-0.53
-0.59
-0.60
-0.56
-0.48
-0.38
-0.24
-0.05
0.22
0.53
0.82
0.96
0.85
0.47
-0.10
-0.65
-1.01
-1.07
-0.87
-0.57
-0.32
-0.23
-0.28
-0.40
-0.50
-0.55
-0.53
-0.47
-0.39
-0.26
-0.09
0.12
0.34
0.49
0.53
0.45
0.31
0.18
0.12
0.18
0.31
0.47
0.55
0.52
0.36
0.13
-0.10
-0.26
-0.35
-0.41
-0.49
-0.61
-0.70
-0.70
-0.55
-0.26
0.08
0.32
0.40
0.30
0.11
-0.05
-0.09
-0.02
0.09
0.12
0.00
-0.26
-0.58
-0.83
-0.91
-0.83
-0.61
-0.35
-0.13
0.04
0.17
0.29
0.42
0.56
0.66
0.65
0.52
0.28
0.03
-0.15
-0.14
0.07
0.39
0.65
0.69
0.42
-0.11
-0.71
-1.16
-1.27
-1.02
-0.52
0.00
0.36
0.43
0.26
-0.02
-0.25
-0.31
-0.21
0.02
0.25
0.42
0.51
0.54
0.57
0.61
0.64
0.62
0.53
0.37
0.16
-0.00
-0.05
0.06
0.33
0.67
0.96
1.10
1.02
0.78
0.46
0.19
0.03
-0.02
-0.04
-0.10
-0.24
-0.44
-0.64
-0.75
-0.72
-0.57
-0.36
-0.22
-0.22
-0.41
-0.70
-0.95
-1.02
-0.85
-0.47
-0.00
0.39
0.63
0.72
0.69
0.61
0.52
0.43
0.34
0.27
0.24
0.25
0.25
0.21
0.06
-0.18
-0.47
-0.71
-0.82
-0.77
-0.57
-0.28
-0.01
0.17
0.19
0.09
-0.06
-0.14
-0.12
0.01
0.13
0.14
-0.02
-0.29
-0.56
-0.71
-0.70
-0.57
-0.42
-0.30
-0.20
-0.08
0.10
0.30
0.43
0.37
0.10
-0.31
-0.71
-0.93
-0.90
-0.64
-0.26
0.10
0.37
0.52
0.57
0.56
0.51
0.43
0.34
0.26
0.25
0.31
0.44
0.58
0.69
0.73
0.66
0.49
0.22
-0.11
-0.45
-0.72
-0.87
-0.88
-0.78
-0.65
-0.58
-0.61
-0.74
-0.88
-0.94
-0.80
-0.45
0.07
0.65
1.16
1.50
1.63
1.59
1.41
1.15
0.86
0.56
0.28
0.04
-0.13
-0.24
-0.29
-0.26
-0.16
-0.00
0.16
0.27
0.30
0.28
0.24
0.24
0.29
0.35
0.34
0.23
0.04
-0.17
-0.35
-0.47
-0.54
-0.56
-0.52
-0.39
-0.14
0.20
0.54
0.77
0.83
0.70
0.44
0.17
-0.04
-0.15
-0.15
-0.07
0.02
0.10
0.10
0.00
-0.20
-0.46
-0.71
-0.88
-0.89
-0.74
-0.46
-0.13
0.17
0.35
0.39
0.30
0.14
-0.02
-0.09
-0.06
0.09
0.27
0.42
0.46
0.37
0.23
0.11
0.05
0.09
0.18
0.27
0.33
0.34
0.30
0.17
-0.06
-0.41
-0.82
-1.16
-1.30
-1.15
-0.73
-0.18
0.34
0.73
0.92
0.95
0.86
0.72
0.55
0.41
0.33
0.32
0.37
0.43
0.42
0.29
0.04
-0.27
-0.54
-0.70
-0.75
-0.74
-0.75
-0.84
-0.96
-1.04
-1.00
-0.82
-0.57
-0.37
-0.29
-0.32
-0.38
-0.36
-0.23
-0.05
0.09
0.10
0.01
-0.06
-0.01
0.20
0.49
0.72
0.76
0.62
0.39
0.21
0.16
0.27
0.46
0.66
0.81
0.87
0.86
0.77
0.63
0.42
0.18
-0.07
-0.31
-0.51
-0.66
-0.77
-0.82
-0.81
-0.74
-0.63
-0.48
-0.31
-0.12
0.07
0.22
0.29
0.23
0.04
-0.20
-0.38
-0.41
-0.25
0.06
0.39
0.62
0.71
0.67
0.56
0.44
0.33
0.23
0.15
0.16
0.31
0.58
0.87
0.99
0.82
0.38
-0.18
-0.60
-0.72
-0.53
-0.20
0.05
0.07
-0.14
-0.42
-0.59
-0.56
-0.34
-0.06
0.18
0.29
0.29
0.17
-0.04
-0.32
-0.64
-0.94
-1.12
-1.14
-0.98
-0.70
-0.36
-0.06
0.14
0.22
0.16
-0.03
-0.27
-0.51
-0.67
-0.69
-0.60
-0.46
-0.38
-0.45
-0.69
-1.04
-1.44
-1.81
-2.13
-2.37
-2.53
-2.59
-2.52
-2.35
-2.12
-1.96
-1.98
-2.25
-2.76
-3.39
-4.04
-4.59
-5.01
-5.29
-5.48
-5.60
-5.67
-5.72
-5.78
-5.88
-6.01
-6.06
-5.89
-5.33
-4.26
-2.71
-0.81
1.20
3.09
4.69
5.92
6.81
7.38
7.70
7.77
7.60
7.19
6.63
6.06
5.65
5.50
5.64
5.96
6.32
6.55
6.54
6.24
5.65
4.80
3.81
2.78
1.85
1.10
0.55
0.16
-0.16
-0.44
-0.70
-0.92
-1.10
-1.19
-1.07
-0.56
0.52
2.24
4.41
6.62
8.37
9.29
9.33
8.75
7.91
7.16
6.68
6.45
6.35
6.24
5.94
5.25
3.98
1.96
-0.74
-3.84
-6.80
-9.00
-9.90
-9.26
-7.22
-4.25
-1.01
1.82
3.74
4.52
4.23
3.18
1.78
0.40
-0.72
-1.50
-1.97
-2.26
-2.49
-2.77
-3.16
-3.71
-4.45
-5.40
-6.54
-7.79
-9.02
-10.05
-10.73
-10.98
-10.84
-10.46
-10.06
-9.87
-10.02
-10.45
-10.97
-11.34
-11.38
-11.12
-10.80
-10.79
-11.41
-12.79
-14.78
-17.01
-19.05
-20.61
-21.66
-22.48
-23.54
-25.28
-27.94
-31.46
-35.49
-39.55
-43.22
-46.28
-48.85
-51.38
-54.46
-58.66
-64.23
-71.05
-78.59
-86.21
-93.44
-100.20
-106.87
-114.09
-122.57
-132.87
-145.24
-159.44
-174.49
-188.39
-198.27
-200.87
-193.41
-174.50
-144.56
-105.46
-59.67
-9.34
43.92
98.58
152.37
202.00
243.70
274.54
293.63
302.54
304.57
303.31
301.30
299.51
297.75
295.58
292.98
290.60
289.34
289.85
292.14
295.39
297.91
297.35
291.08
276.93
253.81
222.07
183.26
139.25
91.42
40.43
-13.11
-67.47
-119.12
-163.17
-194.93
-211.84
-214.73
-207.42
-195.06
-182.12
-170.94
-161.65
-153.10
-144.21
-134.75
-125.39
-117.04
-110.17
-104.46
-99.05
-93.06
-86.06
-78.28
-70.48
-63.46
-57.71
-53.13
-49.19
-45.20
-40.68
-35.64
-30.48
-25.80
-22.08
-19.44
-17.64
-16.22
-14.70
-12.79
-10.51
-8.08
-5.83
-4.00
-2.67
-1.73
-0.97
-0.23
0.57
1.39
2.07
2.50
2.64
2.55
2.35
2.16
2.06
2.12
2.34
2.73
3.22
3.74
4.17
4.41
4.38
4.11
3.65
3.08
2.49
1.93
1.42
0.95
0.53
0.12
-0.32
-0.80
-1.36
-1.97
-2.58
-3.14
-3.59
-3.90
-4.07
-4.08
-3.99
-3.85
-3.74
-3.72
-3.82
-3.97
-4.09
-4.10
-3.99
-3.82
-3.68
-3.62
-3.65
-3.71
-3.73
-3.64
-3.46
-3.25
-3.06
-2.96
-2.96
-3.05
-3.16
-3.23
-3.24
-3.16
-3.05
-2.98
-3.00
-3.12
-3.26
-3.31
-3.17
-2.80
-2.23
-1.55
-0.79
-0.00
0.82
1.60
2.23
2.56
2.51
2.14
1.61
1.18
1.05
1.24
1.62
1.99
2.21
2.29
2.41
2.74
3.36
4.18
4.92
5.29
5.15
4.56
3.75
3.02
2.57
2.49
2.72
3.18
3.75
4.28
4.57
4.43
3.76
2.57
1.08
-0.45
-1.72
-2.61
-3.10
-3.32
-3.38
-3.40
-3.48
-3.69
-4.10
-4.77
-5.63
-6.52
-7.20
-7.38
-6.86
-5.63
-3.84
-1.81
0.06
1.44
2.12
2.13
1.69
1.12
0.73
0.72
1.12
1.87
2.82
3.83
4.71
5.30
5.45
5.06
4.17
2.95
1.69
0.65
-0.03
-0.36
-0.49
-0.60
-0.76
-0.96
-1.11
-1.15
-1.04
-0.80
-0.47
-0.02
0.53
1.19
1.90
2.54
3.03
3.28
3.30
3.12
2.83
2.48
2.16
1.90
1.74
1.62
1.46
1.16
0.65
-0.05
-0.84
-1.53
-1.99
-2.15
-2.06
-1.82
-1.56
-1.35
-1.23
-1.18
-1.19
-1.24
-1.37
-1.56
-1.79
-2.02
-2.21
-2.31
-2.34
-2.33
-2.27
-2.16
-1.95
-1.60
-1.11
-0.54
0.05
0.63
1.23
1.92
2.73
3.64
4.48
5.06
5.23
4.94
