1660756081.00
64.000000
-0.00
-0.00
-0.00
-0.00
-0.00
-0.00
-0.00
-0.00
-0.00
-0.00
0.00
0.01
0.01
-0.00
-0.03
-0.05
-0.05
0.00
0.13
0.36
0.66
1.01
1.37
1.72
2.06
2.40
2.79
3.24
3.80
4.42
5.06
5.66
6.20
6.68
7.15
7.68
8.31
9.14
10.09
11.04
11.88
12.56
13.14
13.76
14.65
15.96
17.91
20.32
22.90
25.38
27.58
29.57
31.68
34.32
37.81
42.54
48.15
54.10
59.83
64.97
69.58
74.14
79.34
85.71
93.76
103.00
112.62
121.73
129.77
136.75
143.30
150.75
157.77
166.64
177.95
191.79
206.97
220.57
228.25
225.36
208.53
176.87
132.76
80.05
23.07
-34.94
-92.44
-149.16
-205.23
-260.37
-313.74
-363.87
-409.83
-450.91
-486.50
-515.74
-537.23
-549.22
-549.96
-538.37
-514.21
-478.67
-433.88
-382.45
-327.02
-269.84
-212.63
-156.66
-102.95
-52.37
-5.90
35.58
71.43
101.35
125.50
144.38
158.69
169.15
176.37
180.75
182.57
182.07
179.51
175.23
169.65
163.18
156.15
148.81
141.30
133.69
126.02
118.33
110.69
103.16
95.80
88.68
81.83
75.25
68.95
62.95
57.25
51.86
46.78
42.03
37.59
33.45
29.61
26.07
22.81
19.83
17.11
14.67
12.48
10.54
8.83
7.35
6.07
4.97
4.05
3.27
2.62
2.09
1.65
1.30
1.01
0.79
0.61
0.48
0.37
0.30
0.25
0.21
0.19
0.19
0.19
0.21
0.24
0.26
0.30
0.33
0.37
0.41
0.44
0.47
0.51
0.54
0.58
0.62
0.67
0.72
0.78
0.85
0.93
1.02
1.12
1.24
1.37
1.52
1.69
1.87
2.07
2.29
2.54
2.80
3.09
3.40
3.75
4.13
4.55
5.00
5.47
5.94
6.40
6.86
7.33
7.85
8.45
9.14
9.90
10.70
11.53
12.35
13.19
14.05
14.99
16.03
17.15
18.27
19.27
20.00
20.29
20.03
19.17
17.69
15.62
12.97
9.71
5.78
1.19
-3.93
-9.27
-14.34
-18.60
-21.59
-23.05
-23.10
-22.11
-20.61
-19.09
-17.84
-16.84
-15.92
-14.90
-13.79
-12.94
-12.91
-14.24
-17.18
-21.47
-26.34
-30.84
-34.15
-35.92
-36.43
-36.36
-36.56
-37.69
-40.21
-44.24
-49.41
-54.69
-58.23
-57.85
-51.70
-39.32
-22.13
-3.22
13.79
26.16
33.03
35.30
34.81
33.15
30.99
28.16
24.25
19.37
14.40
10.66
9.24
10.47
13.75
17.79
21.16
22.65
21.84
19.07
15.24
11.51
8.85
7.70
7.87
8.84
9.83
10.15
9.58
8.42
7.31
6.87
7.25
8.05
8.52
7.93
6.05
3.20
0.12
-2.38
-3.80
-4.07
-3.53
-2.72
-2.21
-2.30
-2.99
-4.08
-5.14
-5.81
-5.76
-4.96
-3.57
-2.00
-0.72
-0.19
-0.74
-2.38
-4.84
-7.54
-9.73
-10.68
-9.95
-7.55
-4.06
-0.43
2.25
3.19
2.22
-0.12
-2.77
-4.62
-4.96
-3.72
-1.35
1.44
4.00
5.93
7.13
7.67
7.70
7.34
6.67
5.75
4.61
3.30
1.90
0.55
-0.60
-1.39
-1.77
-1.76
-1.52
-1.24
-1.12
-1.28
-1.66
-2.10
-2.28
-1.80
-0.39
1.93
4.76
7.43
9.15
9.32
7.68
4.42
0.15
-4.20
-7.63
-9.29
-8.78
-6.37
-3.01
0.01
1.53
1.06
-1.00
-3.53
-5.29
-5.47
-4.16
-2.15
-0.48
0.14
-0.37
-1.57
-2.69
-3.17
-2.85
-1.94
-0.87
0.04
0.71
1.28
1.93
2.74
3.56
4.15
4.29
3.99
3.44
2.86
2.36
1.85
1.20
0.47
-0.05
0.13
1.36
3.53
6.05
8.07
8.83
8.01
5.78
2.67
-0.59
-3.31
-4.92
-5.12
-3.97
-1.99
-0.03
1.00
0.55
-1.31
-3.91
-6.24
-7.50
-7.34
-6.02
-4.11
-2.15
-0.39
1.21
2.79
4.37
5.71
6.46
6.30
5.30
3.89
2.70
2.23
2.60
3.50
4.38
4.76
4.49
3.77
3.00
2.58
2.72
3.40
4.46
5.60
6.45
6.60
5.67
3.52
0.30
-3.49
-7.13
-9.92
-11.32
-11.19
-9.74
-7.48
-5.09
-3.19
-2.18
-2.12
-2.70
-3.34
-3.43
-2.63
-1.02
0.96
2.79
4.16
5.12
5.99
7.11
8.61
10.28
11.68
12.39
12.17
11.07
9.28
7.10
4.81
2.69
1.01
0.02
-0.18
0.31
1.14
1.79
1.88
1.25
0.10
-1.11
-1.89
-2.02
-1.60
-1.06
-0.95
-1.69
-3.44
-6.12
-9.39
-12.67
-15.25
-16.37
-15.46
-12.44
-7.86
-2.88
1.17
3.34
3.46
2.18
0.60
-0.27
-0.09
0.88
1.96
2.57
2.60
2.33
2.24
2.69
3.67
4.88
5.97
6.75
7.21
7.49
7.71
7.82
7.74
7.34
6.62
5.73
4.88
4.18
3.64
3.17
2.60
1.85
0.92
-0.08
-0.96
-1.58
-1.91
-2.12
-2.58
-3.65
-5.63
-8.54
-12.09
-15.68
-18.52
-19.84
-19.14
-16.39
-12.21
-7.71
-4.10
-2.30
-2.50
-4.17
-6.25
-7.74
-8.10
-7.43
-6.26
-5.29
-4.99
-5.49
-6.62
-8.09
-9.62
-11.16
-12.74
-14.50
-16.49
-18.71
-21.08
-23.54
-26.09
-28.82
-31.82
-35.20
-38.97
-43.15
-47.71
-52.63
-58.00
-63.86
-70.31
-77.36
-84.99
-93.13
-101.69
-110.65
-120.05
-130.02
-140.66
-152.03
-164.06
-176.53
-189.03
-200.81
-210.60
-216.75
-217.44
-210.99
-196.24
-172.82
-141.27
-103.16
-61.23
-19.23
18.59
48.35
67.59
75.98
75.28
68.64
59.51
50.64
43.63
38.91
36.07
34.04
31.45
27.06
20.61
13.30
7.79
7.40
14.54
29.55
50.26
72.99
94.21
112.01
126.31
138.15
148.35
156.67
161.91
162.93
159.58
153.10
145.56
138.96
134.24
131.11
128.28
124.21
117.80
108.77
97.66
85.48
73.35
61.93
51.23
40.64
29.32
16.66
2.75
-11.65
-25.43
-37.62
-47.79
-56.10
-63.18
-69.72
-76.27
-82.96
-89.54
-95.41
-99.81
-101.92
-100.67
-95.19
-85.02
-70.28
-51.68
-30.49
-8.48
12.37
30.39
45.08
57.00
67.34
77.32
87.40
96.82
103.66
105.64
101.29
91.59
79.13
67.02
57.52
51.40
47.66
44.00
37.60
26.16
10.95
-5.55
-20.36
-30.18
-31.07
-18.82
9.12
51.70
103.33
159.13
212.13
255.12
283.35
296.95
300.55
300.02
299.62
301.12
311.65
335.71
372.65
416.22
457.87
490.41
510.19
517.92
517.93
524.37
546.14
581.54
619.53
647.74
659.65
655.95
642.00
569.71
419.27
207.57
-19.31
-217.98
-368.01
-468.83
-529.63
-561.89
-576.20
-572.24
-550.14
-514.83
-474.83
-438.01
-408.39
-386.65
-371.31
-360.26
-344.84
-319.43
-284.28
-244.94
-208.17
-175.72
-148.13
-124.68
-104.34
-82.18
-55.14
-23.69
8.77
38.47
63.17
81.75
93.95
99.79
101.16
99.81
96.80
92.33
86.32
78.89
70.02
59.80
48.33
36.27
24.56
14.28
6.16
0.34
-3.69
-7.13
-11.17
-16.63
-24.70
-35.62
-48.47
-61.90
-75.03
-87.67
-99.91
-111.57
-122.05
-133.36
-146.56
-160.68
-173.67
-184.28
-192.58
-199.19
-204.37
-207.81
-214.40
-226.58
-241.86
-254.90
-262.12
-263.45
-261.08
-257.70
-255.09
-262.13
-281.73
-307.01
-325.82
-329.76
-318.53
-298.24
-277.79
-265.38
-277.94
-323.53
-395.98
-479.71
-560.02
-627.62
-677.44
-707.31
-646.44
-473.15
-231.48
1.99
176.94
285.08
342.15
369.41
383.71
395.34
397.06
383.98
361.25
340.78
331.16
333.22
342.40
350.50
354.57
344.99
318.71
282.47
248.22
224.61
213.68
212.96
217.95
224.98
225.65
215.33
195.48
171.36
147.00
122.98
101.42
82.51
66.77
51.87
36.61
21.95
10.06
2.26
-1.56
-2.19
-0.96
1.33
2.99
3.11
2.10
1.34
2.35
6.16
13.26
23.12
34.81
47.07
58.69
68.85
77.34
84.53
91.16
98.00
105.24
112.63
119.38
124.48
126.96
126.31
122.72
117.17
111.36
107.11
106.10
109.08
115.36
122.66
127.63
126.85
117.93
100.41
75.57
45.87
13.83
-18.86
-51.60
-84.59
-118.47
-153.92
-191.52
-231.27
-272.14
-311.68
-346.22
-371.87
-385.96
-388.15
-380.49
-366.38
-349.05
-330.39
-310.86
-290.25
-268.73
-247.20
-226.85
-208.31
-190.98
-173.19
-153.08
-129.67
-103.46
-76.32
-50.86
-29.54
-13.96
-4.47
-0.43
-0.41
-2.69
-5.64
-8.03
-9.14
-8.98
-8.16
-7.84
-9.50
-14.39
-23.01
-34.44
-45.93
-53.06
-50.78
-34.98
-4.45
37.79
84.57
126.05
152.43
156.78
137.16
97.16
44.71
-10.06
-57.49
-90.48
-105.69
-103.68
-88.17
-64.75
-39.50
-17.70
-2.96
3.29
1.74
-5.20
-14.18
-21.87
-25.82
-25.01
-19.83
-11.71
-2.45
6.45
14.09
20.23
24.94
28.13
29.18
26.80
19.64
7.23
-9.00
-25.53
-37.48
-40.63
-33.29
-17.48
1.71
18.15
27.06
26.80
19.12
8.13
-1.22
-4.63
0.73
15.81
39.55
68.87
99.15
125.09
142.20
147.95
142.48
128.25
109.06
88.80
70.56
56.24
46.46
40.68
37.47
34.93
31.25
25.34
17.09
6.90
-5.33
-20.67
-40.89
-67.12
-98.22
-129.94
-155.64
-168.53
-164.17
-142.14
-106.03
-61.78
-15.70
27.26
64.16
93.82
116.25
132.03
142.09
147.63
150.24
151.64
153.41
156.40
160.25
163.25
163.03
157.69
146.89
132.35
117.28
105.21
98.63
98.25
102.79
109.29
113.56
111.32
99.87
79.70
55.18
33.38
21.06
21.43
32.47
47.59
58.88
60.78
52.47
37.92
23.93
17.51
23.80
44.70
78.55
120.16
161.53
193.58
208.56
202.29
175.48
133.35
84.08
36.42
-2.44
-28.78
-43.11
-50.01
-56.85
-71.50
-100.00
-145.17
-206.47
-280.72
-362.90
-446.36
-522.77
-582.76
-617.74
-622.56
-597.60
-548.90
-485.91
-417.86
-350.75
-286.60
-224.63
-163.69
-103.92
-46.85
5.82
53.80
98.88
144.30
192.95
245.55
299.65
350.09
391.06
418.45
431.39
432.39
425.97
416.74
407.73
399.63
390.75
377.64
356.35
324.28
282.04
234.28
188.72
153.34
132.96
126.76
128.19
127.36
115.18
87.00
44.62
-4.17
-48.04
-75.81
-80.32
-61.19
-25.86
12.15
37.48
37.99
9.09
-45.06
-113.70
-183.49
-242.37
-281.74
-297.21
-288.75
-260.89
-222.97
-188.06
-169.57
-176.32
-208.51
-257.10
-307.62
-346.53
-366.49
-367.90
-356.00
-336.23
-310.75
-278.41
-237.46
-188.29
-134.25
-79.83
-27.89
22.10
73.47
129.97
192.89
259.54
323.77
377.79
414.75
430.92
426.86
407.35
379.98
352.90
332.69
322.77
322.99
330.52
341.28
351.51
358.68
361.32
358.31
348.43
330.95
306.93
280.27
257.16
243.40
241.01
245.95
248.62
237.64
205.10
150.86
83.60
18.12
-30.09
-50.52
-41.31
-9.60
31.27
66.64
85.22
81.96
58.24
19.34
-29.32
-84.56
-145.36
-210.34
-275.10
-332.17
-373.57
-395.38
-400.43
-397.41
-396.77
-405.98
-427.05
-457.38
-492.67
-529.18
-564.05
-593.81
-612.95
-614.47
-592.49
-545.42
-477.21
-396.07
-311.07
-228.85
-152.55
-82.32
-16.94
44.74
103.51
160.34
216.68
274.24
333.51
392.12
444.41
482.74
500.99
498.15
480.08
457.94
443.72
445.03
462.00
487.79
512.43
527.21
527.59
513.20
486.12
448.92
403.89
353.38
300.25
247.67
198.13
152.54
109.76
66.86
20.58
-30.88
-86.53
-142.07
-189.89
-220.37
-224.72
-198.51
-144.69
-74.25
-2.98
53.26
83.39
84.60
61.38
21.77
-27.52
-83.70
-146.93
-216.44
-287.18
-350.20
-394.28
-411.56
-401.46
-371.53
-334.23
-303.36
-288.33
-288.68
-296.02
-299.50
-293.24
-277.55
-257.05
-237.38
-221.64
-209.46
-197.10
-180.98
-156.84
-123.31
-81.77
-35.74
10.87
56.69
103.35
155.17
201.49
233.05
243.30
233.35
211.73
188.63
170.80
157.35
140.77
111.56
66.83
11.16
-44.98
-88.97
-119.09
-138.54
-154.14
-172.45
-195.71
-218.29
-230.43
-223.08
-192.50
-142.71
-81.84
-18.82
39.55
88.41
127.72
159.91
188.02
214.54
241.04
269.31
299.85
330.36
355.18
367.08
359.39
328.92
277.58
211.30
138.25
65.28
-3.67
-67.05
-123.87
-173.24
-214.98
-250.33
-281.95
-312.21
-341.03
-364.49
-375.24
-364.74
-326.55
-258.99
-166.57
-59.65
47.26
137.81
197.02
214.26
186.13
118.27
24.59
-75.55
-161.80
-217.73
-235.00
-215.11
-168.35
-111.00
-60.05
-27.89
-18.66
-27.56
-44.03
-57.07
-60.10
-53.23
-42.68
-37.61
-46.45
-73.79
-118.72
-174.90
-232.36
-279.88
-307.94
-311.17
-289.35
-246.82
-190.09
-125.69
-58.86
7.04
69.69
127.57
180.35
230.15
281.42
338.93
404.90
475.79
541.85
589.78
607.47
588.96
536.77
460.95
374.43
288.22
208.00
133.99
63.22
-7.76
-81.20
-158.09
-238.37
-321.29
-404.49
-483.12
-549.68
-595.91
-615.67
-607.84
-577.11
-531.63
-480.39
-430.41
-385.42
-346.19
-311.93
-281.98
-256.41
-235.58
-217.34
-198.60
-176.79
-151.26
-123.26
-95.11
-69.41
-48.27
-32.65
-18.06
0.86
27.53
61.46
99.04
135.62
167.00
190.09
203.63
214.63
231.32
258.97
297.06
341.09
386.10
428.54
466.47
498.99
534.03
579.10
637.25
705.45
778.48
853.79
932.36
1015.91
1052.66
1001.92
852.31
632.84
390.88
165.36
-22.03
-163.87
-262.84
-328.05
-363.32
-372.50
-360.33
-334.56
-303.82
-275.27
-253.75
-242.39
-242.49
-247.25
-249.54
-244.32
-232.03
-217.20
-204.89
-198.76
-200.72
-210.80
-220.83
-225.64
-222.04
-210.54
-194.34
-177.02
-161.32
-148.89
-139.98
-132.49
-124.25
-113.29
-99.41
-83.75
-67.68
-52.17
-39.66
-28.71
-18.09
-6.97
5.44
19.18
33.68
48.20
62.13
75.10
87.31
98.24
107.56
115.41
122.14
128.08
133.68
139.40
145.73
153.44
162.32
172.24
183.17
195.04
207.50
219.89
231.08
239.31
246.64
252.47
255.76
255.40
250.39
239.97
223.72
201.71
174.54
143.40
109.24
73.55
38.19
5.12
-23.82
-47.01
-63.32
-72.12
-73.41
-68.37
-58.61
-46.09
-32.83
-20.78
-11.46
-5.87
-4.42
-6.92
-13.02
-21.86
-32.37
-43.42
-53.92
-62.99
-69.99
-74.59
-76.66
-76.31
-73.70
-69.00
-62.32
-53.79
-43.61
-32.08
-19.64
-6.89
5.46
16.76
26.43
34.13
39.70
43.16
44.66
44.43
42.75
39.89
36.14
31.78
27.06
22.19
17.18
11.91
6.07
-0.74
-8.87
-18.39
-29.14
-40.65
-52.33
-63.73
-74.69
-85.40
-96.35
-108.11
-121.00
-134.99
-149.58
-164.10
-177.99
-191.09
-203.82
-216.96
-231.35
-247.50
-265.31
-284.19
-303.24
-321.77
-339.64
-357.37
-376.19
-397.96
-424.72
-458.24
-499.14
-545.97
-594.73
-639.16
-672.08
-687.37
-681.78
-655.93
-613.83
-561.38
-504.57
-448.08
-394.86
-346.52
-303.92
-267.67
-238.06
-214.91
-197.26
-183.58
-172.07
-161.17
-149.97
-138.27
-126.29
-114.35
-102.52
-90.53
-77.79
-63.72
-47.98
-30.68
-12.36
6.10
23.77
39.93
54.36
67.37
79.88
93.07
107.97
125.17
144.47
164.97
185.37
204.48
221.80
237.74
253.50
270.59
290.11
312.28
336.29
360.89
384.82
407.58
429.57
451.84
475.73
502.59
533.87
570.77
613.50
659.88
704.49
739.02
754.31
743.65
705.44
644.01
567.93
486.55
406.53
330.21
256.59
183.96
112.44
44.80
-14.96
-64.32
-104.06
-138.53
-173.66
-214.33
-262.49
-317.18
-376.31
-438.58
-503.83
-571.50
-638.40
-697.54
-739.63
-756.53
-744.98
-708.34
-655.17
-595.70
-538.09
-486.43
-440.89
-399.74
-361.31
-325.04
-291.28
-260.47
-232.53
-206.79
-182.43
-158.85
-135.85
-113.67
-92.64
-73.07
-55.14
-38.86
-24.15
-10.75
1.83
14.20
27.04
40.83
55.60
70.74
85.18
97.78
107.93
116.01
123.37
131.94
143.36
158.12
175.15
192.21
206.61
216.40
221.22
222.24
222.07
224.05
231.61
247.34
271.43
300.51
325.14
333.18
313.29
260.49
179.98
86.74
0.57
-61.73
-92.11
-94.87
-81.15
-63.24
-48.67
-38.26
-28.45
-15.11
3.48
27.81
54.58
82.48
110.16
134.56
149.52
146.97
120.73
70.56
8.06
-56.83
-108.86
-137.08
-138.02
-115.35
-76.83
-30.65
