1659461908.00
64.000000
-0.00
-0.00
-0.00
-0.00
-0.00
-0.00
-0.00
-0.00
-0.00
-0.00
0.00
0.01
0.01
-0.00
-0.03
-0.05
-0.05
0.00
0.13
0.36
0.66
1.01
1.37
1.72
2.06
2.40
2.79
3.24
3.80
4.42
5.06
5.66
6.20
6.68
7.15
7.68
8.31
9.14
10.09
11.04
11.88
12.56
13.14
13.76
14.65
15.96
17.91
20.32
22.90
25.38
27.58
29.57
31.68
34.32
37.81
42.54
48.15
54.10
59.83
64.97
69.58
74.14
79.34
85.71
93.76
103.00
112.62
121.73
129.77
136.75
143.30
150.74
157.77
166.65
177.98
191.84
207.01
220.57
228.16
225.16
208.19
176.42
132.24
79.50
22.53
-35.47
-92.98
-149.77
-205.96
-261.24
-314.71
-364.89
-410.82
-451.84
-487.41
-516.71
-538.40
-550.68
-551.75
-540.41
-516.34
-480.74
-435.82
-384.34
-329.12
-272.48
-216.08
-161.01
-108.03
-57.80
-11.29
30.45
66.40
95.95
119.06
136.32
148.83
157.79
164.22
168.57
170.80
170.56
167.51
161.69
153.64
144.38
134.97
126.24
118.44
111.29
104.19
96.52
87.79
77.72
66.26
53.87
41.79
32.11
27.33
29.34
38.36
52.41
67.85
80.72
88.32
90.20
87.65
82.73
77.11
71.49
65.69
59.34
52.49
45.77
40.00
35.71
32.84
30.77
28.60
25.65
21.68
17.02
12.36
8.46
5.84
4.60
4.43
4.74
4.97
4.77
4.11
3.22
2.33
1.51
0.67
-0.29
-1.28
-1.95
-1.87
-0.85
0.85
2.52
3.42
3.11
1.70
-0.26
-2.12
-3.48
-4.28
-4.69
-4.84
-4.75
-4.34
-3.58
-2.62
-1.72
-1.14
-1.00
-1.26
-1.80
-2.39
-2.91
-3.22
-3.28
-3.09
-2.73
-2.32
-2.02
-1.89
-1.90
-1.94
-1.87
-1.59
-1.15
-0.65
-0.19
0.17
0.44
0.73
1.12
1.65
2.31
3.05
3.80
4.53
5.30
6.12
7.01
7.90
8.66
9.20
9.43
9.40
9.14
8.73
8.17
7.37
6.26
4.66
2.54
0.03
-2.58
-4.97
-6.91
-8.29
-9.21
-9.84
-10.35
-10.82
-11.19
-11.34
-11.13
-10.57
-9.76
-8.92
-8.27
-7.93
-7.82
-7.76
-7.51
-6.95
-6.13
-5.27
-4.64
-4.39
-4.46
-4.63
-4.65
-4.40
-3.95
-3.51
-3.25
-3.21
-3.34
-3.49
-3.57
-3.54
-3.42
-3.24
-2.98
-2.61
-2.16
-1.70
-1.39
-1.30
-1.41
-1.61
-1.80
-1.94
-2.09
-2.38
-2.90
-3.62
-4.43
-5.21
-5.83
-6.26
-6.53
-6.65
-6.66
-6.57
-6.49
-6.56
-6.86
-7.43
-8.17
-8.96
-9.67
-10.23
-10.69
-11.11
-11.53
-11.94
-12.28
-12.52
-12.66
-12.68
-12.56
-12.23
-11.61
-10.58
-9.06
-7.03
-4.53
-1.67
1.39
4.47
7.39
10.04
12.36
14.33
15.97
17.28
18.22
18.72
18.74
18.26
17.37
16.25
15.10
14.10
13.31
12.69
12.13
11.55
10.95
10.39
9.93
9.54
9.12
8.55
7.75
6.81
5.84
4.99
4.32
3.76
3.19
2.52
1.75
0.92
0.11
-0.66
-1.43
-2.24
-3.15
-4.16
-5.21
-6.16
-6.92
-7.38
-7.51
-7.33
-6.85
-6.15
-5.28
-4.31
-3.28
-2.24
-1.21
-0.18
0.80
1.66
2.31
2.68
2.78
2.73
2.67
2.73
2.91
3.09
3.14
2.98
2.63
2.21
1.80
1.49
1.27
1.12
0.99
0.88
0.74
0.55
0.28
-0.09
-0.52
-0.96
-1.35
-1.67
-1.93
-2.18
-2.48
-2.90
-3.46
-4.15
-4.89
-5.54
-5.96
-6.00
-5.61
-4.85
-3.82
-2.66
-1.48
-0.37
0.62
1.48
2.21
2.85
3.39
3.83
4.14
4.26
4.20
3.98
3.70
3.41
3.11
2.73
2.22
1.60
0.99
0.57
0.50
0.81
1.38
2.01
2.47
2.59
2.34
1.79
1.10
0.41
-0.16
-0.59
-0.94
-1.26
-1.59
-1.87
-2.04
-2.09
-2.14
-2.36
-2.82
-3.47
-4.04
-4.23
-3.80
-2.80
-1.49
-0.22
0.71
1.21
1.39
1.46
1.62
1.93
2.34
2.70
2.91
2.89
2.69
2.44
2.28
2.30
2.47
2.69
2.80
2.67
2.30
1.80
1.36
1.15
1.23
1.52
1.84
1.99
1.88
1.56
1.16
0.83
0.60
0.40
0.10
-0.36
-0.97
-1.63
-2.24
-2.73
-3.16
-3.59
-4.06
-4.51
-4.79
-4.77
-4.39
-3.69
-2.81
-1.92
-1.14
-0.54
-0.08
0.31
0.71
1.18
1.70
2.21
2.63
2.89
2.98
2.96
2.92
2.92
2.95
2.93
2.73
2.31
1.74
1.21
0.93
1.02
1.42
1.92
2.22
2.13
1.60
0.76
-0.16
-0.93
-1.43
-1.61
-1.56
-1.39
-1.21
-1.13
-1.16
-1.29
-1.50
-1.76
-2.08
-2.43
-2.70
-2.76
-2.48
-1.83
-0.90
0.11
0.98
1.58
1.91
2.05
2.10
2.13
2.10
1.96
1.68
1.28
0.92
0.74
0.86
1.25
1.72
2.03
1.95
1.48
0.79
0.19
-0.03
0.18
0.69
1.24
1.58
1.61
1.40
1.06
0.74
0.49
0.28
0.07
-0.20
-0.56
-0.98
-1.44
-1.89
-2.33
-2.82
-3.44
-4.21
-5.03
-5.70
-5.98
-5.72
-4.95
-3.85
-2.69
-1.68
-0.88
-0.28
0.22
0.69
1.16
1.67
2.19
2.71
3.17
3.53
3.73
3.78
3.71
3.58
3.45
3.36
3.29
3.21
3.08
2.86
2.53
2.10
1.56
0.94
0.25
-0.44
-1.04
-1.40
-1.40
-1.00
-0.37
0.26
0.56
0.34
-0.39
-1.47
-2.63
-3.60
-4.26
-4.52
-4.39
-3.91
-3.14
-2.22
-1.28
-0.48
0.13
0.60
1.01
1.44
1.89
2.27
2.50
2.54
2.43
2.29
2.20
2.19
2.20
2.14
1.95
1.63
1.25
0.88
0.59
0.42
0.34
0.33
0.33
0.32
0.26
0.14
-0.08
-0.42
-0.85
-1.30
-1.69
-1.92
-1.94
-1.83
-1.75
-1.87
-2.31
-3.02
-3.84
-4.54
-4.98
-5.12
-5.03
-4.83
-4.56
-4.21
-3.73
-3.10
-2.41
-1.79
-1.41
-1.35
-1.63
-2.18
-2.92
-3.75
-4.60
-5.39
-6.06
-6.56
-6.91
-7.15
-7.43
-7.90
-8.71
-9.91
-11.39
-12.98
-14.45
-15.68
-16.69
-17.67
-18.82
-20.29
-22.08
-24.08
-26.20
-28.33
-30.38
-32.07
-32.98
-32.70
-31.03
-28.10
-24.23
-19.75
-14.77
-9.24
-3.18
3.15
9.16
14.28
18.35
21.87
25.90
31.68
39.96
50.68
62.91
75.29
86.53
95.74
102.65
107.40
110.37
111.93
112.44
112.17
111.39
110.50
109.96
110.14
111.19
113.01
115.42
118.34
121.70
125.12
127.90
129.19
128.29
124.99
119.75
113.52
107.27
101.51
95.78
89.27
81.35
71.84
60.88
48.58
34.79
19.22
1.79
-17.69
-38.39
-58.43
-75.63
-88.55
-97.12
-102.39
-105.71
-108.09
-111.39
-116.34
-122.32
-128.02
-132.53
-135.91
-138.84
-141.92
-145.16
-150.59
-158.88
-168.76
-177.93
-184.63
-188.73
-191.34
-193.86
-197.09
-204.31
-216.38
-230.98
-244.33
-253.60
-258.79
-262.40
-267.90
-258.01
-223.66
-167.14
-101.05
-38.26
14.89
57.06
88.55
109.80
121.23
119.77
103.47
77.26
48.81
26.46
16.78
23.06
44.84
82.35
123.23
154.99
171.49
173.91
168.26
161.01
155.98
153.44
150.94
143.01
126.79
103.38
76.38
50.37
28.96
13.91
4.81
0.03
-3.58
-7.86
-11.60
-13.08
-11.24
-6.60
-1.00
3.38
5.23
4.03
1.14
-1.19
-1.34
0.99
4.71
8.07
9.56
8.62
5.58
1.71
-1.47
-3.20
-3.51
-3.04
-2.62
-3.00
-4.32
-6.39
-8.63
-10.47
-11.62
-12.15
-12.34
-12.54
-13.04
-13.90
-14.99
-16.05
-16.80
-17.07
-16.92
-16.51
-16.11
-15.86
-15.74
-15.57
-15.10
-14.12
-12.61
-10.75
-8.79
-7.04
-5.67
-4.70
-4.01
-3.38
-2.58
-1.49
-0.11
1.44
3.01
4.53
6.05
7.70
9.59
11.71
13.86
15.78
17.26
18.33
19.16
20.02
21.05
22.21
23.24
23.84
23.84
23.23
22.22
21.01
19.74
18.34
16.62
14.38
11.53
8.15
4.44
0.55
-3.52
-7.93
-12.90
-18.46
-24.29
-29.80
-34.22
-37.06
-38.23
-38.13
-37.33
-36.23
-34.83
-32.80
-29.76
-25.60
-20.64
-15.43
-10.45
-5.82
-1.30
3.50
8.80
14.35
19.57
23.81
26.71
28.38
29.38
30.39
31.89
33.93
36.11
37.76
38.20
37.02
34.19
29.99
24.89
19.33
13.72
8.35
3.38
-1.11
-5.07
-8.53
-11.46
-13.83
-15.61
-16.81
-17.49
-17.77
-17.76
-17.58
-17.26
-16.87
-16.48
-16.28
-16.50
-17.40
-19.18
-21.93
-25.60
-29.92
-34.52
-38.96
-42.85
-45.91
-48.06
-49.44
-50.37
-51.36
-52.88
-55.16
-57.89
-60.18
-60.73
-58.38
-52.64
-43.96
-33.62
-23.16
-13.82
-6.17
-0.21
4.42
8.06
10.94
13.20
15.04
16.73
18.55
20.74
23.45
26.82
31.07
36.40
42.96
50.61
58.96
67.41
75.40
82.57
88.81
94.12
98.54
101.98
104.26
105.24
104.90
103.40
100.98
97.83
93.98
89.32
83.72
77.09
69.56
61.35
52.76
44.01
35.15
26.06
16.56
6.47
-4.22
-15.34
-26.59
-37.62
-48.17
-58.02
-67.03
-74.98
-81.65
-86.90
-90.76
-93.51
-95.55
-97.09
-97.88
-97.21
-94.15
-87.99
-78.61
-66.55
-52.82
-38.49
-24.42
-11.20
0.81
11.32
20.12
27.22
32.91
37.80
42.55
47.55
52.78
57.82
62.21
65.67
68.29
70.29
71.74
72.34
71.52
68.73
63.73
56.76
48.29
38.84
28.78
18.44
8.32
-0.81
-8.13
-13.13
-15.90
-17.08
-17.44
-17.45
-17.06
-15.97
-14.06
-11.80
-10.15
-10.10
-12.17
-16.20
-21.55
-27.53
-33.83
-40.49
-47.74
-55.55
-63.57
-71.17
-77.79
-83.22
-87.54
-90.91
-93.25
-94.01
-92.27
-87.19
-78.43
-66.45
-52.45
-37.99
-24.46
-12.75
-3.07
4.83
11.35
16.88
21.76
26.37
31.14
36.47
42.53
49.14
55.96
62.60
68.92
75.06
81.14
87.08
92.39
96.31
98.11
97.42
94.33
89.28
82.77
75.22
67.00
58.60
50.76
44.30
39.79
37.17
35.72
34.44
32.59
30.13
27.63
25.84
25.05
24.84
24.18
21.98
17.60
11.02
2.78
-6.48
-16.32
-26.54
-37.14
-47.98
-58.68
-68.54
-76.77
-82.78
-86.50
-88.45
-89.58
-90.76
-92.25
-93.49
-93.27
-90.42
-84.43
-75.83
-65.93
-56.13
-47.30
-39.41
-31.85
-23.89
-15.19
-5.88
3.54
12.65
21.26
29.48
37.55
45.59
53.49
60.90
67.34
72.36
75.67
77.15
76.80
74.68
70.82
65.19
57.84
49.00
39.20
29.29
20.17
12.58
6.85
2.87
0.27
-1.32
-2.05
-1.85
-0.56
1.82
4.97
8.28
10.98
12.46
12.33
10.48
7.05
2.18
-3.99
-11.37
-19.80
-28.94
-38.26
-47.05
-54.65
-60.65
-65.07
-68.35
-71.18
-74.24
-77.91
-81.96
-85.59
-87.52
-86.44
-81.47
-72.55
-60.49
-46.70
-32.71
-19.65
-8.00
2.30
11.55
19.96
27.48
33.90
39.02
42.82
45.47
47.26
48.46
49.25
49.75
50.07
50.30
50.53
50.78
50.93
50.75
49.98
48.42
46.09
43.30
40.50
38.16
36.49
35.35
34.34
32.99
31.14
29.07
27.44
26.97
28.06
30.45
33.26
35.28
35.42
33.08
28.37
21.91
14.55
6.97
-0.50
-7.88
-15.32
-22.85
-30.26
-37.13
-43.07
-47.98
-52.09
-55.90
-59.98
-64.69
-70.15
-76.29
-82.78
-89.06
-94.24
-97.15
-96.53
-91.53
-82.07
-69.09
-54.25
-39.43
-26.07
-14.83
-5.57
2.25
9.15
15.29
20.51
24.55
27.27
28.88
29.85
30.75
32.04
33.87
36.10
38.44
40.60
42.50
44.26
46.26
49.00
52.89
58.08
64.26
70.66
76.18
79.75
80.74
79.23
75.95
71.92
67.96
64.29
60.46
55.63
49.11
40.75
31.00
20.71
10.67
1.28
-7.56
-16.27
-25.25
-34.63
-44.18
-53.43
-61.94
-69.55
-76.44
-82.96
-89.41
-95.92
-102.44
-108.77
-114.60
-119.39
-122.23
-121.94
-117.36
-107.88
-93.87
-76.74
-58.56
-41.40
-26.61
-14.54
-4.75
3.54
10.96
17.79
24.02
29.64
34.72
39.43
43.92
48.17
51.92
54.81
56.56
57.17
57.07
56.91
57.43
59.10
62.00
65.74
69.47
72.11
72.60
70.27
65.18
58.30
51.31
45.92
43.22
43.07
44.14
44.54
42.64
37.82
30.59
22.16
13.70
5.80
-1.67
-9.21
-17.24
-25.75
-34.32
-42.33
-49.26
-54.89
-59.24
-62.50
-64.87
-66.51
-67.64
-68.59
-69.82
-71.69
-74.29
-77.19
-79.52
-80.20
-78.46
-74.06
-67.42
-59.43
-51.03
-42.91
-35.36
-28.37
-21.78
-15.54
-9.75
-4.55
0.06
4.29
8.64
13.66
19.82
27.23
35.58
44.21
52.27
59.08
64.25
67.80
70.08
71.59
72.82
74.18
75.93
78.17
80.84
83.72
86.41
88.42
89.20
88.26
85.34
80.47
73.99
66.40
58.23
49.81
41.23
32.37
23.02
13.02
2.36
-8.86
-20.38
-31.93
-43.11
-53.53
-62.75
-70.46
-76.48
-80.91
-84.06
-86.43
-88.57
-90.88
-93.39
-95.66
-96.75
-95.45
-90.74
-82.23
-70.49
-56.88
-43.16
-30.86
-20.72
-12.63
-5.92
0.15
5.99
11.55
16.61
21.06
25.13
29.32
34.18
39.99
46.60
53.59
60.51
67.06
73.12
78.61
83.32
86.83
88.57
88.09
85.21
80.18
73.61
66.33
59.18
52.79
47.37
42.77
38.54
34.20
29.46
24.36
19.18
14.22
9.59
5.05
0.05
-5.98
-13.43
-22.26
-32.08
-42.31
-52.35
-61.74
-70.21
-77.60
-83.78
-88.65
-92.16
-94.36
-95.48
-95.83
-95.72
-95.20
-93.96
-91.38
-86.73
-79.54
-69.94
-58.71
-47.07
-36.23
-26.93
-19.25
-12.77
-6.91
-1.33
3.95
8.69
12.71
16.08
19.25
22.76
27.10
32.44
38.63
45.34
52.19
58.89
65.30
71.32
76.75
81.25
84.32
85.43
84.19
80.50
74.63
67.25
59.33
51.91
45.87
41.70
39.30
38.11
37.31
36.21
34.45
32.07
29.28
26.25
22.90
18.97
14.15
8.25
1.30
-6.51
-15.06
-24.28
-34.15
-44.54
-55.13
-65.37
-74.63
-82.38
-88.47
-93.26
-97.43
-101.68
-106.22
-110.48
-113.17
-112.82
-108.48
-100.24
-89.25
-77.14
-65.35
-54.61
-44.87
-35.78
-27.13
-19.02
-11.72
-5.26
0.79
7.17
14.55
23.11
32.46
41.96
51.09
59.73
68.13
76.50
84.74
92.32
98.37
102.04
102.78
100.41
95.15
87.50
78.21
68.24
58.70
50.73
45.17
42.24
41.46
41.78
41.99
41.25
39.28
36.35
32.95
29.36
25.50
20.98
15.41
8.66
0.86
-7.67
-16.70
-26.13
-35.95
-46.00
-55.90
-65.05
-72.91
-79.30
-84.50
-89.09
-93.53
-97.75
-100.93
-101.78
-99.09
-92.29
-81.82
-68.98
-55.43
-42.56
-31.08
-21.05
-12.15
-4.09
3.18
9.60
15.13
19.90
24.16
28.09
31.67
34.71
37.05
38.69
39.86
40.86
41.84
42.68
43.02
42.44
40.65
37.58
33.39
28.43
23.16
18.07
13.66
10.35
8.33
7.53
7.66
8.31
9.16
10.08
11.18
12.67
14.66
17.04
19.43
21.30
22.16
21.72
19.95
16.99
13.01
8.11
2.30
-4.31
-11.43
-18.58
-25.22
-30.98
-35.76
-39.77
-43.39
-47.08
-51.29
-56.33
-62.28
-68.81
-75.14
-80.11
-82.50
-81.48
-77.01
-69.91
-61.50
-53.09
-45.46
-38.63
-32.15
-25.52
-18.64
-11.92
-6.08
-1.71
1.02
2.60
3.92
5.93
9.24
13.91
19.45
25.15
30.43
35.01
38.94
42.42
45.68
48.88
52.14
55.63
59.57
64.02
68.77
73.24
76.66
78.37
78.12
76.16
73.05
69.31
65.19
60.55
55.08
48.50
40.74
32.00
22.61
12.95
3.33
-6.03
-14.98
-23.38
-31.08
-37.94
-43.89
-48.95
-53.23
-57.02
-60.62
-64.36
-68.43
-72.87
-77.49
-81.82
-85.14
-86.65
-85.63
-81.69
-74.92
-65.89
-55.53
-44.83
-34.60
-25.33
-17.11
-9.78
-3.13
2.98
8.48
13.18
16.79
19.10
20.13
20.12
19.56
19.04
19.05
19.93
21.81
24.65
28.36
32.86
38.15
44.20
50.99
58.41
66.26
74.27
82.00
88.93
94.36
97.60
98.07
95.58
90.43
83.30
75.07
66.44
57.73
48.90
39.69
29.92
19.69
9.40
-0.39
-9.25
-17.01
-23.82
-30.03
-35.98
-41.81
-47.46
-52.76
-57.55
-61.82
-65.79
-69.88
-74.64
-80.55
-87.74
-95.78
-103.51
-109.24
-111.23
-108.35
-100.54
-89.04
-75.85
-63.06
-52.08
-43.25
-36.00
-29.41
-22.79
-16.03
-9.48
-3.70
1.00
4.71
7.87
11.07
14.68
18.78
23.18
27.59
31.79
35.75
39.47
43.01
46.41
49.74
53.18
56.93
61.15
65.81
70.64
75.21
79.19
82.34
84.62
86.01
86.34
85.25
82.29
77.07
69.48
59.76
48.43
36.13
23.47
10.84
-1.60
-13.86
-25.94
-37.69
-48.73
-58.53
-66.61
-72.73
-76.96
-79.67
-81.39
-82.69
-84.08
-85.90
-88.18
-90.47
-91.85
-91.07
-87.00
-79.01
-67.32
-52.98
-37.53
-22.53
-9.07
2.34
11.77
19.55
26.02
31.43
35.95
39.78
43.19
46.49
49.93
53.57
57.28
60.87
64.24
67.39
70.44
73.42
76.17
78.28
79.12
78.10
74.83
69.30
61.91
53.39
44.60
36.38
29.31
23.70
19.51
16.44
14.00
11.64
8.88
5.50
1.56
-2.62
-6.69
-10.47
-14.18
-18.33
-23.48
-29.93
-37.54
-45.78
-53.97
-61.56
-68.28
-74.03
-78.79
-82.38
-84.52
-84.98
-83.68
-80.82
-76.75
-71.75
-65.87
-58.89
-50.49
-40.63
-29.72
-18.73
-8.83
-1.07
4.06
6.76
7.67
7.63
7.30
7.10
7.28
8.05
9.60
12.01
15.13
18.64
22.11
25.30
28.26
31.24
34.58
38.32
42.19
45.59
47.89
48.63
47.75
45.55
42.48
38.98
35.35
31.80
28.55
25.91
24.26
23.82
24.54
26.08
27.92
29.69
31.24
32.64
33.90
34.79
34.78
33.26
29.76
24.23
16.94
8.32
-1.17
-11.19
-21.41
-31.50
-41.14
-50.02
-57.98
-64.99
-71.04
-76.06
-79.91
-82.37
-83.13
-81.86
-78.25
-72.20
-63.88
-53.98
-43.55
-33.78
-25.63
-19.52
-15.27
-12.33
-10.06
-8.03
-5.96
-3.71
-1.12
1.99
5.74
10.12
14.99
20.16
25.56
31.26
37.34
43.75
50.19
56.12
60.91
64.07
65.31
64.59
62.01
57.82
52.47
46.68
41.36
37.36
35.17
34.63
35.04
35.42
34.93
33.27
30.57
27.23
23.50
19.38
14.62
8.98
2.42
-4.88
-12.65
-20.71
-29.04
-37.72
-46.71
-55.75
-64.32
-71.88
-78.02
-82.67
-86.11
-88.77
-90.93
-92.47
-92.86
-91.37
-87.38
-80.73
-71.87
-61.64
-51.02
-40.68
-30.92
-21.69
-12.87
-4.48
3.29
10.19
16.15
21.34
26.11
30.73
35.20
39.22
42.35
44.35
45.37
45.94
46.74
48.25
50.58
53.35
55.94
57.69
58.08
56.84
53.92
49.52
44.03
38.05
32.25
27.22
23.26
20.30
17.94
15.72
13.30
10.71
8.27
6.47
5.72
6.15
7.55
9.46
11.38
12.89
13.75
13.81
12.96
11.04
7.87
3.35
-2.39
-8.99
-15.94
-22.74
-29.00
-34.52
-39.23
-43.21
-46.69
-50.05
-53.68
-57.70
-61.73
-64.80
-65.65
-63.21
-57.17
-48.18
-37.74
-27.58
-19.09
-12.85
-8.64
-5.70
-3.29
-1.00
1.10
2.63
3.23
2.90
2.16
1.92
3.13
6.37
11.56
18.03
24.81
30.96
35.90
39.44
41.72
43.07
43.92
44.75
46.05
48.29
51.73
56.27
61.33
65.86
68.71
69.00
66.57
62.07
56.64
51.42
47.02
43.28
39.49
34.87
29.06
22.27
15.10
8.04
1.16
-5.93
-13.74
-22.51
-31.90
-41.13
-49.31
-55.84
-60.60
-63.99
-66.70
-69.48
-72.95
-77.41
-82.64
-87.78
-91.44
-92.08
-88.55
-80.74
-69.71
-57.39
-45.89
-36.63
-29.99
-25.34
-21.56
-17.68
-13.30
-8.60
-4.10
-0.29
2.68
5.05
7.38
10.23
13.88
18.22
22.77
27.00
30.59
33.59
36.44
39.65
43.62
48.43
53.96
59.98
66.38
73.08
79.94
86.53
92.13
96.00
97.61
96.93
94.38
90.48
85.56
79.47
71.76
62.01
50.20
36.86
22.94
9.43
-3.02
-14.26
-24.44
-33.79
-42.32
-49.85
-56.12
-61.10
-65.08
-68.68
-72.51
-77.05
-82.49
-88.85
-96.11
-104.12
-112.44
-120.04
-125.40
-126.81
-123.12
-114.27
-101.55
-87.10
-73.20
-61.36
-52.02
-44.60
-38.06
-31.44
-24.31
-16.76
-9.33
-2.60
3.04
7.67
11.74
15.91
20.69
26.23
32.21
38.07
43.28
47.57
51.02
53.95
56.71
59.61
62.81
66.45
70.66
75.46
80.66
85.66
89.53
91.29
90.35
86.75
81.23
74.78
68.23
61.86
55.36
48.17
39.90
30.56
20.52
10.25
0.02
-10.12
-20.19
-29.99
-39.07
-46.86
-52.97
-57.48
-60.97
-64.35
-68.50
-73.94
-80.62
-87.80
-94.14
-98.04
-98.02
-93.20
-83.69
-70.63
-55.83
-41.25
-28.34
-17.78
-9.47
-2.91
2.43
6.87
10.56
13.62
16.33
19.09
22.28
26.12
30.63
35.65
41.02
46.61
52.32
58.05
63.52
68.38
72.30
75.03
76.58
77.08
76.79
75.96
74.84
73.62
72.41
71.20
69.88
68.30
66.32
63.84
60.77
56.95
52.27
46.70
40.38
33.61
26.64
19.48
11.76
2.90
-7.56
-19.63
-32.74
-46.02
-58.64
-70.17
-80.55
-89.88
-98.14
-105.05
-110.24
-113.51
-114.99
-115.05
-114.04
-111.97
-108.45
-102.88
-94.76
-84.07
-71.42
-57.78
-44.23
-31.55
-20.14
-10.02
-1.12
6.63
13.29
18.94
23.85
28.42
33.10
38.21
43.85
49.88
56.06
62.11
67.74
72.63
76.40
78.69
79.29
78.23
75.79
72.33
68.04
62.78
56.27
48.26
38.98
29.26
20.28
13.16
8.46
5.98
4.94
4.50
4.12
3.76
3.59
3.72
3.90
3.59
2.25
-0.37
-4.15
-8.68
-13.53
-18.49
-23.61
-29.09
-35.04
-41.35
-47.62
-53.28
-57.91
-61.35
-63.87
-65.95
-68.06
-70.36
-72.53
-73.85
-73.49
-70.93
-66.14
-59.62
-52.12
-44.37
-36.89
-29.96
-23.70
-18.16
-13.32
-8.99
-4.80
-0.29
4.90
10.86
17.34
23.97
30.39
36.53
42.49
48.45
54.35
59.92
64.70
68.21
70.17
70.42
68.94
65.82
61.30
55.94
50.60
46.29
43.79
43.34
44.48
46.28
47.77
48.37
48.02
47.05
45.81
44.35
42.36
39.31
34.77
28.62
21.07
12.49
3.22
-6.53
-16.67
-27.07
-37.41
-47.22
-55.94
-63.19
-68.96
-73.61
-77.66
-81.44
-84.90
-87.52
-88.59
-87.53
-84.21
-78.99
-72.55
-65.55
-58.35
-51.05
-43.63
-36.13
-28.80
-21.98
-15.83
-10.18
-4.56
1.53
8.34
15.65
22.85
29.25
34.40
38.31
41.42
44.29
47.28
50.32
52.94
54.44
54.25
52.15
48.37
43.54
38.38
33.50
29.31
26.02
23.81
22.93
23.63
25.89
29.26
32.92
35.91
37.61
37.95
37.37
36.40
35.27
33.69
31.02
26.63
20.28
12.20
3.00
-6.59
-16.01
-24.89
-33.05
-40.46
-47.05
-52.80
-57.78
-62.22
-66.51
-71.09
-76.14
-81.32
-85.61
-87.65
-86.31
-81.25
-73.20
-63.69
-54.40
-46.42
-39.94
-34.39
-28.95
-23.05
-16.64
-9.98
-3.39
2.94
8.96
14.56
19.53
23.61
26.73
29.11
31.30
33.83
36.91
40.30
43.45
45.80
47.10
47.61
47.82
48.20
48.90
49.67
50.07
49.72
48.51
46.63
44.44
42.35
40.68
39.57
39.00
38.73
38.40
37.56
35.84
33.02
29.05
23.96
17.83
10.69
2.68
-5.94
-14.70
-23.00
-30.22
-36.03
-40.47
-43.98
-47.37
-51.60
-57.43
-65.10
-74.02
-82.72
-89.16
-91.39
-88.29
-80.13
-68.53
-55.88
-44.45
-35.58
-29.40
-25.01
-21.18
-16.97
-12.10
-6.91
-1.96
2.38
6.11
9.62
13.36
17.55
22.01
26.24
29.73
32.27
34.09
35.76
37.86
40.66
44.06
47.69
51.24
54.68
58.26
62.26
66.64
70.95
74.41
76.28
76.29
74.77
72.45
70.08
67.94
65.78
62.94
58.83
53.24
46.52
39.35
32.42
26.11
20.43
15.18
10.27
5.81
2.05
-0.81
-2.84
-4.33
-5.71
-7.36
-9.58
-12.69
-17.00
-22.78
-30.03
-38.24
-46.43
-53.35
-57.96
-59.80
-59.18
-57.04
-54.56
-52.84
-52.51
-53.61
-55.63
-57.75
-59.10
-59.06
-57.51
-54.81
-51.59
-48.51
-46.06
-44.45
-43.69
-43.68
-44.24
-45.11
-45.91
-46.27
-46.00
-45.14
-44.01
-43.04
-42.57
-42.64
-43.00
-43.16
-42.53
-40.64
-37.23
-32.35
-26.36
-19.88
-13.59
-8.05
-3.44
0.41
3.91
7.44
11.07
14.45
16.96
18.00
17.21
14.66
10.81
6.29
1.76
-2.33
-5.73
-8.45
-10.80
-13.37
-16.91
-22.00
-28.65
-36.02
-42.47
-46.05
-45.28
-39.74
-30.24
-18.55
-6.68
3.80
12.10
18.26
22.81
26.37
29.49
32.53
35.69
39.14
42.93
47.15
51.83
57.01
62.58
68.28
73.64
78.12
81.27
82.92
83.19
82.37
80.72
78.35
75.23
71.35
66.85
62.08
57.40
52.98
48.63
43.87
38.23
31.53
24.09
16.56
9.67
3.85
-0.92
-5.01
-8.89
-12.90
-17.09
-21.36
-25.52
-29.47
-33.16
-36.58
-39.65
-42.28
-44.35
-45.87
-47.04
-48.15
-49.53
-51.32
-53.44
-55.55
-57.11
-57.59
-56.63
-54.14
-50.35
-45.66
-40.51
-35.15
-29.62
-23.72
-17.22
-10.03
-2.28
5.71
13.59
21.18
28.59
36.16
44.18
52.72
61.53
70.10
77.89
84.48
89.73
93.65
96.34
97.78
97.86
96.38
93.16
88.20
81.66
73.90
65.36
56.41
47.34
38.34
29.65
21.62
14.64
9.02
4.89
2.10
0.33
-0.73
-1.35
-1.76
-2.28
-3.30
-5.29
-8.58
-13.26
-19.18
-26.07
-33.67
-41.80
-50.21
-58.48
-66.01
-72.21
-76.70
-79.56
-81.26
-82.51
-83.99
-86.18
-89.33
-93.31
-97.62
-101.35
-103.34
-102.49
-98.14
-90.36
-79.97
-68.16
-56.11
-44.53
-33.64
-23.26
-13.18
-3.27
6.40
15.75
24.67
33.10
40.89
47.77
53.37
57.36
59.69
60.64
60.82
60.93
61.44
62.46
63.68
64.51
64.31
62.66
59.51
55.21
50.35
45.67
41.81
39.23
38.07
38.00
38.36
38.22
36.66
33.16
27.85
21.50
15.23
10.00
6.20
3.64
1.62
-0.63
-3.70
-7.78
-12.61
-17.62
-22.22
-26.14
-29.35
-32.13
-34.79
-37.52
-40.23
-42.39
-43.36
-42.73
-40.78
-38.08
-35.49
-33.65
-32.68
-31.87
-29.57
-23.81
-12.87
3.59
25.25
50.97
78.90
105.90
127.44
139.51
140.79
133.47
120.66
108.90
99.52
90.57
79.27
62.93
40.32
12.33
-17.52
-46.55
-72.33
-94.74
-118.17
-148.15
-188.40
-237.63
-289.94
-336.82
-372.93
-395.19
-388.42
-343.98
-263.56
-160.54
-53.16
37.80
109.19
159.62
190.68
207.94
213.98
213.96
212.91
214.56
219.79
227.91
236.02
243.11
249.78
255.10
256.70
250.65
234.52
207.75
172.80
133.14
94.61
63.05
44.98
42.48
46.04
44.90
31.67
5.66
-31.32
-74.33
-117.77
-158.25
-195.73
-232.39
-269.61
-307.75
-346.31
-385.52
-426.06
-468.89
-514.00
-558.94
-597.76
-621.32
-621.20
-593.22
-539.49
-467.00
-384.89
-301.23
-221.38
-147.54
-79.26
-15.32
45.36
103.66
160.95
218.95
278.88
340.01
398.99
450.50
488.27
507.38
506.12
486.96
455.57
418.80
382.11
348.11
316.55
285.47
252.90
218.19
182.31
147.29
115.12
86.91
62.60
41.31
21.95
3.97
-12.50
-26.82
-38.40
-47.19
-53.89
-59.63
-65.54
-72.23
-79.51
-86.72
-93.07
-98.05
-101.50
-103.50
-104.14
-103.36
-100.90
-96.43
-90.06
-82.54
-75.12
-68.98
-64.53
-61.08
-57.19
-51.62
-44.03
-35.73
-29.32
-27.32
-30.84
-38.87
-48.64
-56.44
-58.62
-51.69
-33.71
-5.04
31.31
70.10
105.05
130.71
144.42
147.52
145.70
145.24
149.91
159.73
171.98
183.12
190.32
192.35
189.41
184.26
178.85
173.35
166.91
159.25
151.36
144.69
140.27
138.38
140.87
147.83
156.93
164.26
166.47
161.83
149.88
131.09
92.32
31.57
-40.41
-106.78
-156.56
-188.28
-205.79
-213.94
-216.22
-214.41
-206.64
-192.07
-172.57
-152.30
-135.35
-123.94
-118.43
-117.46
-118.83
-118.24
-113.16
-104.14
-93.99
-86.46
-82.33
-81.29
-82.26
-84.16
-84.47
-81.67
-75.98
-69.14
-63.24
-59.77
-59.58
-62.54
-67.84
-72.79
-74.71
-72.05
-64.58
-52.85
-37.49
-19.23
3.63
28.03
50.47
68.19
79.75
85.22
86.00
84.48
82.93
82.60
82.85
82.14
78.39
70.04
57.00
41.03
25.08
12.23
3.52
-1.40
-3.39
-3.57
-2.76
-1.30
0.85
3.67
6.80
9.56
11.23
11.72
11.50
11.22
11.47
12.42
13.72
14.59
14.29
12.25
8.46
3.36
-2.35
-8.00
-13.18
-17.83
-22.16
-26.54
-31.26
-36.33
-41.56
-46.56
-50.95
-54.44
-56.91
-58.44
-59.20
-59.38
-59.03
-58.18
-56.71
-54.53
-51.53
-47.60
-42.66
-36.57
-29.32
-21.01
-11.99
-2.83
5.84
13.49
19.88
25.11
29.57
33.77
38.14
42.83
47.68
52.30
56.23
59.21
61.25
62.67
63.88
65.14
66.37
67.21
67.15
65.81
63.17
59.55
55.41
51.14
46.86
42.39
37.42
31.70
25.18
18.02
10.49
2.83
-4.94
-12.95
-21.37
-30.27
-39.48
-48.55
-56.88
-63.87
-69.13
-72.54
-74.32
-74.89
-74.80
-74.51
-74.22
-73.89
-73.35
-72.45
-71.19
-69.80
-68.54
-67.54
-66.63
-65.38
-63.19
-59.42
-53.52
-45.06
-33.87
-20.19
-4.80
11.03
25.72
37.83
46.43
51.28
52.80
51.76
48.95
44.97
40.16
34.68
28.69
22.47
16.38
10.79
5.93
1.82
-1.73
-4.89
-7.62
-9.61
-10.34
-9.39
-6.74
-2.84
1.50
5.49
8.67
11.01
12.84
14.51
16.23
17.93
19.39
20.35
20.73
20.66
20.50
20.69
21.75
24.10
27.97
33.35
39.89
46.94
53.69
59.28
63.00
64.37
63.18
59.50
53.67
46.25
37.90
29.21
20.50
11.69
2.43
-7.70
-18.87
-30.83
-42.92
-54.32
-64.31
-72.50
-78.86
-83.59
-86.92
-89.06
-90.14
-90.28
-89.63
-88.33
-86.40
-83.69
-79.96
-75.03
-68.98
-62.24
-55.40
-48.95
-42.86
-36.56
-29.09
-19.65
-8.06
5.00
18.18
29.96
39.20
45.49
49.14
50.88
51.48
51.49
51.12
50.40
49.35
48.07
46.83
45.84
45.20
44.74
44.09
42.95
41.26
39.36
37.87
37.35
37.94
39.17
40.15
39.95
38.06
34.54
30.00
25.18
20.55
16.24
12.07
7.91
3.91
0.52
-1.63
-1.94
-0.06
3.99
9.83
16.73
23.70
29.66
33.68
35.26
34.43
31.71
