1660932744.00
64.000000
-0.00
-0.00
-0.00
-0.00
-0.00
-0.00
-0.00
-0.00
-0.00
-0.00
0.00
0.01
0.01
-0.00
-0.03
-0.05
-0.05
0.00
0.13
0.36
0.66
1.01
1.37
1.72
2.06
2.40
2.79
3.25
3.81
4.44
5.10
5.73
6.32
6.90
7.51
8.25
9.15
10.28
11.53
12.78
13.91
14.88
15.77
16.78
18.13
19.96
22.48
25.45
28.57
31.57
34.30
36.89
39.71
43.22
47.71
53.50
60.17
67.17
73.92
80.17
86.10
92.35
99.66
108.50
119.26
131.23
143.50
155.18
165.92
176.04
186.47
198.68
211.23
226.07
243.38
262.95
283.57
302.65
316.41
320.73
312.48
290.58
256.87
214.49
167.26
118.33
69.67
22.23
-23.44
-66.77
-107.21
-144.28
-178.56
-211.37
-244.42
-279.04
-315.31
-351.44
-383.84
-408.13
-420.40
-418.89
-404.73
-381.50
-353.78
-325.49
-298.76
-273.87
-250.13
-226.87
-204.22
-182.98
-163.91
-147.24
-132.40
-118.40
-104.42
-90.21
-76.14
-63.03
-51.66
-42.39
-34.98
-28.76
-22.91
-16.83
-10.35
-3.74
2.44
7.68
11.73
14.71
17.02
19.11
21.26
23.49
25.61
27.29
28.29
28.58
28.32
27.80
27.27
26.92
26.79
26.80
26.82
26.70
26.37
25.80
25.03
24.14
23.25
22.45
21.84
21.45
21.24
21.16
21.12
21.04
20.84
20.51
20.03
19.41
18.63
17.70
16.62
15.41
14.13
12.84
11.63
10.55
9.65
8.96
8.49
8.21
8.06
7.89
7.53
6.84
5.79
4.46
3.08
1.87
0.99
0.48
0.22
0.03
-0.22
-0.58
-0.97
-1.27
-1.35
-1.19
-0.86
-0.44
-0.04
0.32
0.67
1.09
1.67
2.42
3.30
4.21
5.07
5.85
6.59
7.34
8.12
8.85
9.36
9.40
8.82
7.54
5.67
3.42
1.05
-1.21
-3.18
-4.79
-6.02
-6.92
-7.60
-8.15
-8.66
-9.13
-9.55
-9.87
-10.04
-10.08
-9.98
-9.79
-9.49
-9.07
-8.54
-7.93
-7.30
-6.70
-6.16
-5.66
-5.15
-4.60
-4.00
-3.40
-2.85
-2.39
-2.02
-1.72
-1.46
-1.21
-0.95
-0.66
-0.35
-0.01
0.30
0.56
0.74
0.86
0.98
1.15
1.41
1.75
2.11
2.42
2.61
2.67
2.64
2.58
2.57
2.60
2.66
2.70
2.72
2.76
2.88
3.12
3.46
3.83
4.14
4.38
4.57
4.81
5.16
5.59
6.01
6.29
6.36
6.22
5.99
5.78
5.70
5.73
5.80
5.79
5.62
5.29
4.84
4.37
3.93
3.54
3.19
2.84
2.50
2.17
1.89
1.65
1.46
1.27
1.07
0.86
0.65
0.50
0.45
0.51
0.67
0.90
1.15
1.40
1.65
1.89
2.08
2.20
2.23
2.18
2.14
2.16
2.29
2.49
2.65
2.64
2.38
1.91
1.36
0.87
0.57
0.47
0.52
0.65
0.80
0.95
1.12
1.30
1.48
1.59
1.59
1.45
1.23
1.03
0.95
1.07
1.38
1.82
2.28
2.69
2.99
3.18
3.25
3.23
3.12
2.95
2.76
2.62
2.60
2.73
2.98
3.27
3.49
3.52
3.32
2.91
2.34
1.69
1.03
0.44
-0.03
-0.33
-0.45
-0.46
-0.39
-0.32
-0.30
-0.33
-0.40
-0.50
-0.63
-0.74
-0.79
-0.73
-0.52
-0.19
0.15
0.37
0.37
0.15
-0.23
-0.60
-0.85
-0.89
-0.72
-0.39
0.03
0.46
0.85
1.17
1.42
1.57
1.60
1.53
1.38
1.19
1.02
0.89
0.83
0.77
0.68
0.53
0.35
0.22
0.20
0.33
0.56
0.77
0.87
0.83
0.70
0.56
0.51
0.58
0.73
0.90
0.97
0.88
0.64
0.28
-0.07
-0.31
-0.38
-0.25
0.02
0.31
0.55
0.69
0.75
0.81
0.89
0.96
0.94
0.74
0.38
-0.05
-0.40
-0.53
-0.40
-0.07
0.34
0.71
0.98
1.12
1.14
1.04
0.87
0.66
0.51
0.48
0.58
0.74
0.85
0.78
0.53
0.15
-0.20
-0.38
-0.32
-0.06
0.32
0.70
1.01
1.22
1.31
1.30
1.18
0.95
0.60
0.18
-0.26
-0.63
-0.85
-0.88
-0.74
-0.50
-0.28
-0.15
-0.14
-0.24
-0.36
-0.46
-0.50
-0.49
-0.44
-0.34
-0.19
-0.03
0.08
0.06
-0.15
-0.53
-0.96
-1.27
-1.35
-1.14
-0.73
-0.29
0.06
0.23
0.25
0.20
0.19
0.30
0.52
0.82
1.10
1.27
1.30
1.20
1.05
0.96
1.03
1.30
1.74
2.23
2.64
2.84
2.81
2.56
2.18
1.76
1.37
1.04
0.75
0.49
0.22
-0.05
-0.31
-0.56
-0.75
-0.83
-0.78
-0.61
-0.41
-0.30
-0.35
-0.58
-0.92
-1.26
-1.50
-1.60
-1.57
-1.49
-1.40
-1.35
-1.32
-1.29
-1.23
-1.11
-0.91
-0.60
-0.20
0.26
0.76
1.29
1.83
2.31
2.66
2.79
2.67
2.37
2.04
1.85
1.87
2.06
2.25
2.24
1.91
1.29
0.50
-0.28
-0.89
-1.25
-1.35
-1.22
-0.96
-0.68
-0.53
-0.60
-0.93
-1.42
-1.91
-2.19
-2.12
-1.67
-0.96
-0.22
0.34
0.58
0.47
0.15
-0.22
-0.47
-0.55
-0.47
-0.33
-0.19
-0.03
0.23
0.66
1.28
1.93
2.40
2.47
2.04
1.25
0.34
-0.42
-0.88
-1.06
-1.11
-1.18
-1.34
-1.52
-1.61
-1.50
-1.20
-0.79
-0.41
-0.15
-0.05
-0.14
-0.38
-0.76
-1.23
-1.71
-2.09
-2.30
-2.32
-2.19
-2.01
-1.90
-1.94
-2.16
-2.55
-3.05
-3.58
-4.05
-4.39
-4.55
-4.56
-4.53
-4.53
-4.59
-4.59
-4.35
-3.61
-2.21
-0.09
2.61
5.59
8.45
10.77
12.25
12.74
12.27
11.04
9.33
7.41
5.50
3.70
2.00
0.29
-1.54
-3.53
-5.57
-7.41
-8.71
-9.25
-8.99
-8.21
-7.36
-6.85
-6.81
-7.06
-7.20
-6.81
-5.52
-3.13
0.49
5.32
11.06
17.02
22.09
25.03
24.94
21.72
16.14
9.58
3.48
-1.17
-4.04
-5.34
-5.49
-4.83
-3.62
-2.11
-0.66
0.28
0.35
-0.54
-2.12
-3.87
-5.24
-5.88
-5.75
-5.04
-4.07
-3.12
-2.34
-1.73
-1.15
-0.34
0.91
2.71
4.90
7.08
8.68
9.17
8.34
6.42
3.95
1.61
-0.10
-0.99
-1.23
-1.10
-0.89
-0.73
-0.64
-0.62
-0.73
-1.07
-1.71
-2.59
-3.52
-4.24
-4.52
-4.28
-3.60
-2.69
-1.75
-0.95
-0.39
-0.09
0.01
0.01
0.04
0.23
0.65
1.24
1.85
2.28
2.36
2.06
1.49
0.84
0.31
-0.02
-0.15
-0.19
-0.23
-0.35
-0.54
-0.75
-0.90
-0.96
-0.92
-0.82
-0.72
-0.65
-0.62
-0.62
-0.64
-0.68
-0.76
-0.89
-1.07
-1.28
-1.48
-1.61
-1.59
-1.39
-1.03
-0.59
-0.18
0.12
0.29
0.34
0.35
0.38
0.43
0.46
0.40
0.17
-0.23
-0.76
-1.33
-1.78
-2.03
-2.01
-1.74
-1.27
-0.71
-0.16
0.32
0.64
0.73
0.53
0.03
-0.73
-1.59
-2.34
-2.75
-2.70
-2.21
-1.40
-0.51
0.27
0.82
1.19
1.47
1.78
2.20
2.71
3.17
3.44
3.40
3.01
2.33
1.52
0.77
0.23
-0.05
-0.12
-0.05
0.08
0.24
0.44
0.68
0.91
1.03
0.94
0.57
-0.02
-0.71
-1.30
-1.67
-1.75
-1.60
-1.35
-1.11
-0.95
-0.86
-0.77
-0.58
-0.25
0.21
0.68
1.03
1.16
1.06
0.78
0.42
0.03
-0.35
-0.75
-1.13
-1.42
-1.52
-1.37
-1.00
-0.51
-0.07
0.22
0.31
0.24
0.07
-0.12
-0.27
-0.32
-0.22
-0.00
0.32
0.64
0.89
1.03
1.07
1.06
1.01
0.89
0.64
0.25
-0.23
-0.68
-0.97
-1.01
-0.82
-0.51
-0.23
-0.12
-0.22
-0.48
-0.83
-1.19
-1.51
-1.77
-1.98
-2.11
-2.12
-1.94
-1.53
-0.91
-0.18
0.50
0.97
1.12
0.95
0.58
0.20
-0.01
0.06
0.41
0.94
1.49
1.94
2.21
2.28
2.17
1.88
1.43
0.89
0.35
-0.04
-0.19
-0.08
0.21
0.55
0.84
1.01
1.09
1.13
1.13
1.05
0.83
0.44
-0.07
-0.59
-1.01
-1.26
-1.34
-1.35
-1.34
-1.37
-1.43
-1.46
-1.40
-1.20
-0.85
-0.38
0.13
0.61
0.98
1.19
1.27
1.26
1.23
1.21
1.18
1.11
0.94
0.68
0.36
0.09
-0.07
-0.06
0.13
0.42
0.73
0.93
0.90
0.61
0.09
-0.52
-1.04
-1.37
-1.45
-1.32
-1.09
-0.84
-0.60
-0.39
-0.17
0.03
0.18
0.23
0.16
0.02
-0.10
-0.14
-0.09
-0.00
0.03
-0.05
-0.25
-0.49
-0.67
-0.73
-0.65
-0.47
-0.27
-0.14
-0.12
-0.23
-0.42
-0.63
-0.80
-0.85
-0.76
-0.54
-0.25
0.02
0.19
0.23
0.16
0.04
-0.03
0.00
0.15
0.37
0.62
0.83
0.96
0.99
0.88
0.63
0.27
-0.13
-0.46
-0.62
-0.57
-0.38
-0.13
0.07
0.17
0.17
0.14
0.10
0.07
0.02
-0.10
-0.30
-0.54
-0.78
-0.94
-0.95
-0.80
-0.49
-0.07
0.38
0.81
1.15
1.41
1.57
1.61
1.50
1.23
0.85
0.43
0.04
-0.23
-0.32
-0.24
-0.03
0.25
0.48
0.60
0.53
0.29
-0.06
-0.43
-0.70
-0.82
-0.78
-0.66
-0.55
-0.55
-0.67
-0.86
-1.03
-1.12
-1.10
-1.00
-0.84
-0.63
-0.38
-0.07
0.25
0.50
0.62
0.61
0.53
0.55
0.78
1.26
1.87
2.45
2.79
2.82
2.57
2.15
1.69
1.27
0.90
0.56
0.26
0.03
-0.08
-0.03
0.15
0.36
0.49
0.42
0.10
-0.45
-1.12
-1.79
-2.34
-2.71
-2.89
-2.88
-2.74
-2.52
-2.27
-2.03
-1.86
-1.79
-1.80
-1.84
-1.86
-1.79
-1.61
-1.33
-0.95
-0.50
0.03
0.61
1.16
1.54
1.66
1.48
1.08
0.63
0.31
0.24
0.42
0.74
1.06
1.28
1.39
1.43
1.44
1.42
1.34
1.18
0.92
0.62
0.31
0.04
-0.18
-0.36
-0.53
-0.72
-0.93
-1.17
-1.42
-1.64
-1.80
-1.83
-1.75
-1.59
-1.44
-1.35
-1.30
-1.22
-1.02
-0.67
-0.23
0.16
0.43
0.57
0.68
0.90
1.31
1.82
2.28
2.50
2.36
1.90
1.23
0.57
0.07
-0.22
-0.31
-0.29
-0.22
-0.11
0.07
0.36
0.74
1.14
1.47
1.68
1.76
1.76
1.74
1.70
1.57
1.31
0.90
0.42
-0.00
-0.22
-0.18
0.05
0.38
0.64
0.78
0.75
0.58
0.31
0.01
-0.27
-0.47
-0.50
-0.33
0.06
0.60
1.17
1.60
1.72
1.47
0.90
0.19
-0.44
-0.78
-0.81
-0.59
-0.31
-0.14
-0.16
-0.36
-0.67
-1.03
-1.37
-1.69
-1.92
-2.05
-2.04
-1.90
-1.72
-1.58
-1.56
-1.63
-1.72
-1.71
-1.53
-1.15
-0.64
-0.12
0.27
0.47
0.46
0.30
0.06
-0.17
-0.38
-0.57
-0.75
-0.86
-0.83
-0.56
-0.03
0.65
1.31
1.77
1.94
1.85
1.66
1.54
1.56
1.71
1.87
1.91
1.77
1.51
1.19
0.90
0.64
0.36
-0.01
-0.47
-0.93
-1.25
-1.30
-1.03
-0.51
0.10
0.64
0.94
0.96
0.72
0.33
-0.08
-0.42
-0.65
-0.78
-0.88
-1.01
-1.22
-1.48
-1.76
-2.01
-2.16
-2.21
-2.18
-2.11
-2.10
-2.23
-2.53
-3.00
-3.52
-3.92
-4.05
-3.80
-3.18
-2.30
-1.34
-0.52
0.01
0.18
0.07
-0.16
-0.34
-0.31
-0.05
0.40
0.93
1.53
2.24
3.17
4.38
5.84
7.35
8.67
9.52
9.76
9.38
8.44
7.04
5.33
3.53
1.92
0.83
0.46
0.83
1.69
2.69
3.50
3.97
4.12
4.02
3.70
3.07
2.04
0.65
-0.84
-2.07
-2.73
-2.77
-2.43
-2.10
-2.14
-2.72
-3.72
-4.87
-5.87
-6.57
-6.93
-7.05
-7.07
-7.07
-7.05
-6.95
-6.66
-6.15
-5.46
-4.68
-3.89
-3.18
-2.57
-2.05
-1.63
-1.25
-0.87
-0.40
0.23
1.08
2.10
3.20
4.24
5.09
5.62
5.71
5.29
4.38
3.13
1.84
0.83
0.34
0.39
0.77
1.20
1.45
1.43
1.21
0.91
0.57
0.16
-0.38
-0.97
-1.47
-1.61
-1.26
-0.44
0.59
1.46
1.86
1.68
1.02
0.13
-0.69
-1.24
-1.49
-1.50
-1.42
-1.39
-1.47
-1.61
-1.73
-1.73
-1.56
-1.26
-0.89
-0.53
-0.20
0.10
0.41
0.71
0.92
0.97
0.79
0.45
0.09
-0.13
-0.08
0.21
0.61
0.91
0.96
0.71
0.21
-0.36
-0.85
-1.16
-1.30
-1.30
-1.24
-1.14
-1.02
-0.86
-0.66
-0.46
-0.29
-0.15
-0.04
0.07
0.21
0.39
0.61
0.84
1.03
1.18
1.27
1.35
1.42
1.49
1.52
1.46
1.26
0.96
0.59
0.22
-0.12
-0.43
-0.67
-0.82
-0.84
-0.68
-0.40
-0.11
0.04
-0.03
-0.27
-0.58
-0.81
-0.88
-0.80
-0.65
-0.52
-0.44
-0.41
-0.38
-0.29
-0.15
0.05
0.29
0.53
0.76
0.96
1.11
1.18
1.17
1.10
0.95
0.76
0.54
0.31
0.12
-0.04
-0.15
-0.27
-0.44
-0.70
-1.02
-1.32
-1.53
-1.59
-1.51
-1.35
-1.17
-0.97
-0.74
-0.47
-0.19
0.05
0.18
0.18
0.13
0.12
0.23
0.47
0.75
1.00
1.15
1.18
1.12
0.97
0.73
0.44
0.16
-0.03
-0.02
0.20
0.54
0.86
1.02
0.94
0.68
0.32
-0.00
-0.24
-0.37
-0.42
-0.38
-0.25
-0.02
0.27
0.54
0.68
0.62
0.32
-0.18
-0.76
-1.28
-1.64
-1.81
-1.83
-1.76
-1.66
-1.54
-1.39
-1.21
-1.02
-0.89
-0.87
-1.01
-1.25
-1.50
-1.68
-1.74
-1.72
-1.69
-1.71
-1.81
-1.94
-2.03
-2.05
-2.02
-1.95
-1.84
-1.67
-1.38
-0.92
-0.31
0.39
1.07
1.69
2.24
2.76
3.29
3.83
4.31
4.63
4.67
4.42
3.91
3.22
2.46
1.75
1.16
0.72
0.44
0.26
0.13
-0.06
-0.35
-0.72
-1.09
-1.35
-1.45
-1.36
-1.16
-0.92
-0.72
-0.59
-0.56
-0.65
-0.87
-1.20
-1.56
-1.84
-1.90
-1.72
-1.36
-1.01
-0.83
-0.92
-1.25
-1.71
-2.17
-2.55
-2.82
-2.97
-3.01
-2.95
-2.82
-2.63
-2.41
-2.16
-1.85
-1.49
-1.13
-0.89
-0.87
-1.17
-1.72
-2.38
-2.98
-3.38
-3.56
-3.62
-3.73
-4.08
-4.76
-5.82
-7.20
-8.80
-10.45
-11.99
-13.25
-14.12
-14.58
-14.70
-14.62
-14.50
-14.55
-14.94
-15.78
-17.11
-18.85
-20.85
-22.98
-25.24
-27.78
-30.81
-34.51
-38.85
-43.52
-48.04
-51.91
-54.89
-57.11
-59.04
-61.30
-64.48
-68.93
-74.55
-80.92
-87.31
-93.00
-97.62
-101.35
-105.02
-109.83
-116.96
-126.87
-138.82
-150.59
-158.70
-159.08
-148.05
-123.44
-85.57
-37.66
14.51
63.85
103.73
129.81
141.05
139.64
129.86
116.37
102.78
90.98
81.32
73.35
66.55
60.59
55.33
50.61
46.24
42.26
39.09
37.49
38.17
41.34
46.38
51.97
56.54
59.04
59.32
58.36
57.89
59.73
65.04
73.89
85.17
96.99
107.47
115.49
121.04
125.17
129.41
135.02
142.47
151.30
160.56
169.32
177.17
184.25
191.09
198.13
205.54
213.21
220.85
228.10
234.34
238.46
238.69
232.85
219.04
196.35
165.27
127.45
84.87
39.06
-9.08
-58.67
-107.82
-153.14
-190.36
-215.72
-227.62
-227.39
-218.68
-205.94
-192.63
-180.34
-168.97
-157.75
-146.30
-135.08
-125.06
-116.96
-110.71
-105.42
-99.88
-93.24
-85.47
-77.39
-70.16
-64.70
-61.18
-58.94
-56.78
-53.54
-48.69
-42.53
-36.09
-30.64
-27.09
-25.57
-25.39
-25.31
-24.11
-21.17
-16.79
-12.14
-8.80
-8.02
-10.14
-14.31
-18.76
-21.49
-21.21
-18.01
-13.43
-9.84
-9.25
-12.36
-18.01
-23.78
-27.00
-26.10
-21.37
-14.58
-8.24
-4.53
-4.62
-8.47
-14.67
-20.27
-20.57
-9.92
16.21
58.43
111.37
163.89
202.25
215.06
197.93
155.24
98.23
40.43
-7.32
-39.76
-57.27
-63.51
-62.71
-57.87
-50.53
-41.72
-32.75
-25.57
-22.06
-23.03
-27.67
-33.54
-37.63
-37.77
-33.54
-26.46
-19.20
-14.32
-13.11
-15.15
-18.61
-21.29
-21.60
-19.24
-15.18
-11.10
-8.49
-8.01
-9.29
-11.22
-12.52
-12.39
-10.72
-8.08
-5.37
-3.39
-2.54
-2.72
-3.43
-4.10
-4.26
-3.74
-2.63
-1.24
0.12
1.18
1.80
1.97
1.76
1.28
0.73
0.26
0.01
0.02
0.21
0.45
0.59
0.55
0.32
-0.07
-0.58
-1.19
-1.90
-2.66
-3.39
-3.99
-4.37
-4.49
-4.36
-4.05
-3.69
-3.38
-3.21
-3.17
-3.15
-2.95
-2.36
-1.21
0.58
2.96
5.78
8.78
11.65
14.01
15.47
15.74
14.66
12.35
9.15
5.61
2.30
-0.34
-2.09
-2.96
-3.19
-3.08
-2.88
-2.70
-2.57
-2.47
-2.38
-2.38
-2.53
-2.83
-3.22
-3.57
-3.74
-3.71
-3.56
-3.42
-3.39
-3.46
-3.50
-3.37
-2.94
-2.21
-1.30
-0.37
0.42
1.01
1.35
1.47
1.37
1.11
0.77
0.51
0.47
0.70
1.16
1.66
2.04
2.17
2.03
1.70
1.27
0.79
0.24
-0.43
-1.22
-2.06
-2.81
-3.35
-3.58
-3.49
-3.17
-2.74
-2.34
-2.05
-1.92
-1.96
-2.08
-2.12
-1.88
-1.12
0.33
2.48
5.10
7.72
9.74
10.69
10.33
8.84
6.67
4.39
2.47
1.14
0.34
-0.13
-0.52
-0.97
-1.48
-1.96
-2.34
-2.60
-2.77
-2.96
-3.21
-3.52
-3.82
-4.03
-4.07
-3.95
-3.72
-3.46
-3.20
-2.99
-2.81
-2.65
-2.50
-2.34
-2.16
-1.94
-1.67
-1.36
-1.05
-0.80
-0.62
-0.49
-0.34
-0.12
0.23
0.69
1.20
1.70
2.11
2.39
2.51
2.47
2.30
2.03
1.72
1.39
1.07
0.79
0.53
0.33
0.17
0.02
-0.17
-0.46
-0.85
-1.28
-1.62
-1.77
-1.60
-1.05
-0.07
1.37
3.25
5.42
7.54
9.21
10.01
9.75
8.55
6.76
4.84
3.15
1.82
0.79
-0.08
-0.87
-1.54
-2.00
-2.21
-2.22
-2.20
-2.29
-2.58
-3.00
-3.42
-3.65
-3.61
-3.36
-3.04
-2.83
-2.81
-2.98
-3.22
-3.41
-3.45
-3.37
-3.22
-3.05
-2.87
-2.60
-2.19
-1.66
-1.12
-0.69
-0.45
-0.38
-0.34
-0.14
0.28
0.91
1.63
2.31
2.88
3.36
3.79
4.15
4.33
4.21
3.71
2.90
2.02
1.33
0.97
0.91
0.92
0.71
0.11
-0.87
-2.00
-2.97
-3.53
-3.60
-3.23
-2.55
-1.64
-0.53
0.78
2.20
3.53
4.50
4.83
4.47
3.53
2.31
1.12
0.21
-0.38
-0.71
-0.96
-1.24
-1.59
-1.97
-2.24
-2.25
-1.96
-1.48
-1.03
-0.90
-1.27
-2.13
-3.24
-4.21
-4.67
-4.47
-3.68
-2.59
-1.51
-0.63
0.04
0.65
1.28
1.94
2.41
2.47
1.96
0.97
-0.23
-1.26
-1.88
-2.05
-1.97
-1.87
-1.88
-1.90
-1.69
-1.01
0.18
1.70
3.17
4.21
4.58
4.27
3.45
2.36
1.17
0.00
-1.08
-2.03
-2.71
-3.02
-2.91
-2.49
-1.99
-1.68
-1.65
-1.81
-1.93
-1.79
-1.41
-1.06
-1.19
-2.19
-4.14
-6.74
-9.41
-11.55
-12.79
-13.14
-12.94
-12.65
-12.68
-13.22
-14.26
-15.59
-16.96
-18.14
-19.03
-19.61
-20.06
-20.69
-21.87
-23.95
-27.08
-31.11
-35.62
-40.08
-44.11
-47.73
-51.42
-55.91
-61.80
-69.15
-77.41
-85.44
-92.07
-96.57
-99.08
-100.57
-102.47
-106.00
-111.84
-120.04
-130.17
-141.53
-153.03
-162.88
-168.63
-167.56
-157.45
-137.50
-108.46
-71.81
-28.59
21.22
77.78
139.49
201.12
253.78
287.25
293.52
269.65
218.52
147.41
65.56
-17.66
-93.64
-154.62
-194.13
-208.13
-196.20
-161.89
-111.64
-52.71
8.52
67.17
119.37
161.64
191.31
207.27
210.95
206.18
197.84
189.89
184.11
180.21
176.86
173.11
169.12
165.88
164.45
165.09
167.10
169.30
170.70
171.02
170.76
170.90
172.33
175.58
180.78
187.85
196.44
205.74
214.16
219.20
217.94
207.80
187.52
157.50
119.42
75.38
27.35
-22.86
-72.96
-119.58
-158.52
-185.91
-199.75
-200.96
-193.16
-181.15
-168.97
-158.59
-149.91
-141.87
-133.76
-126.05
-120.18
-117.54
-118.52
-122.11
-126.33
-129.13
-129.27
-126.66
-122.11
-116.71
-111.16
-105.67
-100.01
-93.93
-87.40
-80.61
-73.85
-67.38
-61.46
-56.43
-52.82
-51.25
-52.20
-55.79
-61.56
-68.61
-75.78
-82.02
-86.66
-89.66
-91.66
-93.83
-97.52
-103.78
-112.82
-123.81
-135.13
-144.93
-151.99
-156.28
-158.92
-161.39
-164.45
-167.27
-167.34
-161.36
-146.57
-121.80
-87.79
-46.54
-0.53
47.87
96.37
142.39
182.92
214.95
236.22
245.81
244.23
232.85
213.39
187.73
158.27
128.25
101.52
81.63
70.50
67.73
70.72
75.87
80.09
81.74
80.68
77.70
73.61
68.78
63.20
56.90
50.28
44.17
39.58
37.22
37.18
38.98
41.80
44.85
47.67
50.22
52.85
56.10
60.55
66.60
74.34
83.44
93.23
102.92
111.90
119.96
127.25
134.02
140.37
146.19
151.47
156.61
162.41
169.50
177.49
184.34
186.52
180.22
162.74
133.43
93.72
46.22
-6.11
-60.37
-113.41
-161.58
-200.94
-228.28
-242.35
-244.56
-238.53
-228.73
-218.85
-210.89
-205.20
-201.21
-198.24
-195.97
-194.35
-193.42
-193.06
-193.06
-193.23
-193.49
-193.81
-194.36
-195.45
-197.60
-201.24
-206.19
-211.08
-213.22
-209.07
-195.39
-170.36
-134.11
-88.45
-36.06
20.19
77.41
132.40
181.46
220.85
247.83
261.82
264.79
260.62
253.64
247.12
242.62
240.29
239.68
240.42
242.46
245.66
249.47
252.94
255.21
255.97
255.41
253.72
250.37
243.61
230.87
209.71
178.78
138.31
89.93
36.07
-20.42
-76.23
-127.56
-170.36
-201.16
-218.32
-222.74
-217.68
-207.58
-196.34
-186.24
-177.80
-170.51
-163.82
-157.76
-152.85
-149.56
-147.83
-146.89
-145.63
-143.05
-138.68
-132.84
-126.45
-120.68
-116.56
-114.60
-114.74
-116.41
-118.83
-121.32
-123.59
-125.81
-128.70
-133.36
-140.96
-152.11
-166.19
-180.86
-192.25
-195.92
-188.27
-167.55
-134.26
-90.66
-40.02
13.90
66.98
114.76
152.82
177.74
188.33
186.20
175.37
160.72
146.29
134.21
124.71
117.11
110.75
105.54
101.72
99.38
98.07
97.01
95.45
93.14
90.26
87.33
84.71
82.43
80.22
77.72
74.83
71.73
68.83
66.46
64.74
63.48
62.35
61.12
59.89
59.05
59.13
60.48
62.98
65.99
68.63
70.17
70.50
70.32
70.84
73.21
77.83
84.04
90.27
94.79
96.59
96.11
95.17
96.35
101.99
113.04
128.41
144.92
158.12
163.47
157.60
139.17
109.24
71.24
30.54
-6.36
-33.26
-46.12
-44.90
-34.22
-22.23
-17.54
-25.68
-46.74
-75.52
-104.16
-125.90
-137.59
-140.05
-136.03
-127.81
-115.78
-99.18
-78.01
-54.79
-34.69
-23.47
-24.70
-37.63
-57.25
-76.37
-88.90
-92.36
-88.51
-81.92
-77.22
-76.83
-80.12
-84.32
-86.36
-84.62
-79.43
-72.66
-66.34
-61.61
-58.36
-55.49
-51.71
-46.33
-39.52
-31.97
-24.24
-16.32
-7.57
2.67
14.33
26.23
36.32
42.54
43.78
40.37
33.90
26.43
19.57
14.10
9.90
6.53
3.60
1.04
-1.01
-2.43
-3.34
-4.09
-5.08
-6.53
-8.37
-10.23
-11.65
-12.31
-12.19
-11.56
-10.87
-10.51
-10.60
-10.99
-11.38
-11.51
-11.30
-10.84
-10.33
-9.95
-9.78
-9.78
-9.88
-9.98
-10.06
-10.12
-10.22
-10.39
-10.56
-10.60
-10.34
-9.69
-8.71
-7.73
-7.28
-7.86
-9.77
-12.80
-16.32
-19.45
-21.43
-21.96
-21.31
-20.17
-19.31
-19.28
-20.12
-21.40
-22.43
-22.54
-21.44
-19.31
-16.80
-14.78
-14.06
-15.08
-17.78
-21.54
-25.09
-26.50
-23.57
-14.49
1.18
21.75
43.57
62.05
73.40
76.05
70.99
61.09
49.48
38.39
28.67
20.28
13.17
7.75
4.79
4.81
7.45
11.43
14.99
16.64
15.78
12.97
9.74
