1660754112.00
64.000000
-0.00
-0.00
-0.00
-0.00
-0.00
-0.00
-0.00
-0.00
-0.00
-0.00
0.00
0.01
0.01
-0.00
-0.03
-0.05
-0.05
0.00
0.13
0.36
0.66
1.01
1.37
1.72
2.06
2.40
2.79
3.24
3.80
4.42
5.06
5.66
6.20
6.68
7.15
7.68
8.31
9.14
10.09
11.04
11.88
12.56
13.14
13.76
14.65
15.96
17.91
20.32
22.90
25.38
27.58
29.57
31.68
34.32
37.81
42.54
48.15
54.10
59.83
64.97
69.58
74.14
79.34
85.71
93.76
103.00
112.62
121.73
129.77
136.75
143.30
150.75
157.77
166.64
177.95
191.79
206.97
220.57
228.25
225.36
208.53
176.87
132.76
80.05
23.07
-34.94
-92.44
-149.16
-205.23
-260.37
-313.74
-363.87
-409.83
-450.91
-486.50
-515.74
-537.23
-549.22
-549.96
-538.37
-514.21
-478.67
-433.88
-382.45
-327.02
-269.84
-212.63
-156.66
-102.95
-52.37
-5.90
35.58
71.43
101.35
125.50
144.38
158.69
169.15
176.37
180.75
182.57
182.07
179.51
175.23
169.65
163.18
156.15
148.81
141.30
133.69
126.02
118.33
110.69
103.16
95.80
88.68
81.83
75.25
68.95
62.95
57.25
51.86
46.78
42.03
37.59
33.45
29.61
26.07
22.81
19.83
17.11
14.67
12.48
10.54
8.83
7.35
6.07
4.97
4.05
3.27
2.62
2.09
1.65
1.30
1.01
0.79
0.61
0.47
0.37
0.29
0.23
0.20
0.17
0.16
0.17
0.18
0.20
0.22
0.25
0.28
0.33
0.39
0.45
0.50
0.54
0.53
0.48
0.42
0.37
0.36
0.39
0.47
0.56
0.64
0.69
0.70
0.70
0.72
0.80
0.97
1.19
1.44
1.64
1.76
1.80
1.80
1.86
2.06
2.46
2.99
3.56
4.00
4.19
4.14
3.97
3.89
4.13
4.80
5.78
6.81
7.57
7.78
7.47
6.88
6.44
6.58
7.48
8.96
10.50
11.45
11.30
9.90
7.51
4.70
1.94
-0.52
-2.89
-5.67
-9.44
-14.58
-21.27
-29.48
-38.89
-48.60
-56.89
-61.52
-60.36
-52.50
-38.96
-22.57
-6.99
4.80
11.62
14.20
14.37
13.89
13.54
13.15
12.13
10.26
7.93
5.94
4.95
5.14
6.20
7.56
8.73
9.45
9.75
9.78
9.77
9.82
9.88
9.78
9.33
8.37
6.95
5.27
3.64
2.31
1.43
0.99
0.82
0.77
0.65
0.36
-0.15
-0.88
-1.72
-2.55
-3.24
-3.72
-4.04
-4.28
-4.52
-4.76
-5.02
-5.33
-5.76
-6.38
-7.13
-7.88
-8.45
-8.61
-8.25
-7.47
-6.51
-5.68
-5.27
-5.42
-6.14
-7.23
-8.34
-9.05
-8.93
-7.75
-5.55
-2.67
0.33
2.92
4.74
5.78
6.27
6.49
6.66
6.78
6.73
6.35
5.62
4.70
3.90
3.51
3.70
4.41
5.39
6.33
6.96
7.24
7.30
7.40
7.77
8.48
9.37
10.10
10.40
10.17
9.56
8.93
8.49
8.30
8.08
7.51
6.33
4.50
2.22
-0.28
-2.82
-5.30
-7.66
-9.69
-11.11
-11.60
-11.02
-9.49
-7.42
-5.31
-3.63
-2.63
-2.28
-2.38
-2.64
-2.85
-2.92
-2.93
-2.96
-3.10
-3.35
-3.63
-3.91
-4.18
-4.51
-4.91
-5.32
-5.61
-5.63
-5.37
-4.95
-4.58
-4.50
-4.79
-5.37
-6.04
-6.54
-6.73
-6.55
-6.07
-5.50
-5.09
-5.14
-5.89
-7.40
-9.49
-11.70
-13.44
-14.20
-13.72
-12.18
-10.03
-7.78
-5.79
-4.14
-2.66
-1.15
0.49
2.13
3.46
4.11
3.81
2.38
-0.07
-3.20
-6.43
-9.04
-10.35
-10.01
-8.10
-5.15
-1.95
0.80
2.68
3.69
4.08
4.12
3.95
3.54
2.74
1.47
-0.16
-1.91
-3.46
-4.62
-5.48
-6.38
-7.82
-10.21
-13.57
-17.45
-20.94
-23.07
-23.12
-21.12
-17.85
-14.62
-12.81
-13.17
-15.56
-19.02
-22.21
-24.11
-24.40
-23.60
-22.70
-22.75
-24.60
-28.72
-35.12
-43.01
-50.45
-54.16
-50.12
-34.97
-7.83
28.64
68.48
104.29
129.78
141.81
140.94
130.36
114.06
95.23
75.81
56.91
39.57
25.08
14.64
8.70
6.53
6.56
7.04
6.87
6.02
5.19
5.24
6.56
8.82
11.09
12.28
11.54
8.43
2.95
-4.53
-13.30
-22.48
-31.05
-38.19
-43.43
-46.87
-49.04
-50.58
-51.89
-52.85
-52.98
-51.68
-48.60
-43.87
-38.01
-31.65
-25.33
-19.31
-13.55
-7.88
-2.14
3.76
9.74
15.58
20.91
25.28
28.31
29.81
29.84
28.74
26.93
24.81
22.69
20.78
19.27
18.25
17.79
17.85
18.30
18.95
19.64
20.25
20.66
20.76
20.41
19.50
18.00
16.08
14.10
12.43
11.32
10.73
10.41
10.04
9.39
8.47
7.46
6.49
5.57
4.50
3.00
0.90
-1.68
-4.36
-6.65
-8.17
-8.84
-8.85
-8.60
-8.45
-8.67
-9.28
-10.19
-11.16
-11.98
-12.46
-12.48
-11.97
-10.89
-9.20
-6.88
-3.96
-0.55
3.15
6.93
10.59
14.00
17.00
19.41
20.97
21.43
20.61
18.64
15.93
13.06
10.56
8.68
7.32
6.12
4.70
2.86
0.70
-1.47
-3.36
-4.80
-5.75
-6.29
-6.43
-6.17
-5.51
-4.63
-3.88
-3.68
-4.36
-5.97
-8.23
-10.62
-12.55
-13.54
-13.32
-11.93
-9.65
-7.00
-4.54
-2.73
-1.71
-1.30
-1.02
-0.33
1.07
3.06
5.16
6.65
7.03
6.19
4.49
2.61
1.21
0.59
0.67
1.05
1.27
1.11
0.64
0.11
-0.20
-0.15
0.18
0.61
0.96
1.17
1.31
1.53
1.91
2.44
2.90
3.06
2.77
2.10
1.39
1.13
1.71
3.21
5.33
7.48
9.05
9.71
9.51
8.86
8.25
7.96
7.94
7.82
7.19
5.84
3.95
1.95
0.29
-0.77
-1.31
-1.67
-2.17
-2.96
-3.95
-4.93
-5.66
-6.07
-6.20
-6.25
-6.37
-6.66
-7.13
-7.67
-8.18
-8.62
-8.99
-9.41
-9.94
-10.57
-11.16
-11.40
-10.94
-9.58
-7.32
-4.44
-1.40
1.31
3.41
4.85
5.82
6.55
7.24
7.91
8.48
8.85
9.03
9.09
9.08
8.95
8.57
7.79
6.62
5.29
4.12
3.43
3.32
3.66
4.13
4.44
4.35
3.83
2.97
1.97
1.02
0.26
-0.29
-0.72
-1.22
-1.99
-3.19
-4.80
-6.70
-8.61
-10.25
-11.38
-11.86
-11.62
-10.70
-9.23
-7.41
-5.54
-3.91
-2.73
-2.10
-1.96
-2.15
-2.47
-2.85
-3.30
-3.92
-4.79
-5.87
-7.06
-8.19
-9.21
-10.19
-11.28
-12.64
-14.37
-16.39
-18.54
-20.65
-22.61
-24.54
-26.64
-29.21
-32.45
-36.41
-40.92
-45.61
-50.08
-53.99
-57.33
-60.40
-63.79
-68.18
-74.02
-81.24
-89.09
-96.34
-101.77
-104.66
-105.05
-103.71
-101.71
-99.99
-99.03
-98.78
-98.76
-98.03
-95.12
-87.95
-74.45
-53.33
-25.13
7.56
40.52
69.27
90.56
103.33
108.91
109.88
108.76
106.98
104.76
101.49
96.51
89.73
81.75
73.96
67.73
63.80
62.14
62.11
62.86
63.83
64.78
65.64
66.99
68.84
70.64
72.25
75.43
84.06
102.49
132.68
171.88
214.14
250.88
274.05
279.49
268.72
247.83
224.01
202.16
183.61
169.76
161.08
156.94
155.54
154.50
151.39
144.09
131.46
114.18
98.70
92.39
100.08
121.75
153.54
189.49
223.38
250.18
246.63
201.74
122.89
32.70
-46.73
-104.77
-141.50
-161.68
-170.37
-171.61
-164.66
-148.84
-125.88
-100.97
-78.56
-61.10
-48.68
-39.82
-33.21
-25.24
-13.65
0.87
15.04
25.07
28.26
23.12
13.19
0.59
-11.62
-21.60
-29.49
-37.14
-46.60
-59.18
-75.06
-93.41
-113.26
-131.97
-146.53
-154.52
-154.89
-147.93
-135.07
-118.28
-99.36
-80.02
-60.88
-42.11
-24.16
-7.95
5.55
15.87
23.45
29.05
33.70
38.70
44.89
52.10
59.22
64.82
67.90
68.20
65.64
60.59
53.99
46.84
39.64
32.39
24.91
17.12
9.31
0.56
-9.35
-19.34
-27.44
-32.10
-32.78
-29.88
-24.38
-17.32
-13.63
-16.15
-23.74
-32.45
-38.79
-41.46
-40.75
-37.54
-32.20
-33.24
-45.43
-66.28
-88.41
-105.92
-117.29
-124.06
-128.80
-133.02
-151.22
-191.66
-250.69
-316.34
-378.37
-433.04
-481.29
-525.98
-568.96
-629.74
-719.70
-833.95
-955.05
-1065.85
-1156.40
-1223.18
-1267.31
-1185.22
-938.84
-576.35
-197.10
124.97
367.51
539.21
656.87
727.91
769.99
775.88
742.57
680.97
611.37
549.82
501.05
466.59
442.55
425.90
400.21
356.86
300.28
243.59
197.89
167.10
149.89
142.45
142.47
139.26
126.83
106.84
86.03
69.83
59.69
54.60
52.62
53.21
51.75
45.77
36.38
26.97
20.30
17.22
17.33
19.57
23.36
26.53
27.87
27.70
27.45
28.39
31.18
35.85
41.95
48.97
56.18
62.91
68.73
73.54
77.74
82.05
87.25
93.61
100.75
107.64
112.93
115.47
114.61
110.33
103.07
93.31
81.36
67.25
50.88
32.21
11.23
-12.23
-38.61
-68.49
-101.93
-137.81
-173.59
-205.86
-231.47
-248.71
-257.92
-261.03
-260.45
-257.82
-253.42
-246.55
-236.53
-223.51
-208.62
-193.54
-179.67
-167.65
-157.44
-148.68
-141.21
-135.08
-130.38
-126.74
-123.12
-118.10
-110.40
-99.53
-86.10
-71.79
-58.74
-49.02
-43.96
-43.75
-47.50
-53.39
-59.29
-63.47
-65.20
-64.90
-63.79
-62.96
-62.63
-61.91
-59.25
-53.38
-43.99
-31.75
-17.82
-3.08
12.18
27.86
43.39
57.28
67.44
72.24
71.65
67.75
64.05
64.05
69.51
79.74
92.06
103.19
110.95
115.17
117.51
120.32
125.26
132.50
140.70
147.86
152.27
153.05
150.31
144.62
136.79
127.79
118.87
111.67
107.87
108.34
112.42
117.53
119.81
115.49
102.76
82.86
59.96
39.71
26.79
23.02
26.76
33.94
40.11
42.45
40.60
36.05
30.69
25.36
19.41
11.41
0.47
-12.75
-25.90
-35.85
-40.03
-37.55
-29.44
-18.25
-7.18
0.87
4.04
1.84
-4.59
-12.86
-19.95
-23.41
-22.28
-17.61
-11.88
-7.83
-7.12
-9.64
-13.74
-17.27
-18.67
-17.54
-14.36
-9.94
-4.80
0.88
6.88
12.69
17.40
20.05
20.04
17.38
12.60
6.63
0.56
-4.26
-6.32
-4.22
2.70
13.88
27.38
40.48
50.63
56.27
57.28
54.67
50.19
45.96
44.31
47.62
57.69
74.68
96.26
117.52
132.45
136.28
127.74
109.79
88.34
69.58
57.30
51.76
50.36
49.71
47.49
43.32
38.11
32.86
27.68
21.78
14.17
4.66
-5.85
-15.68
-23.22
-27.64
-29.09
-28.53
-27.26
-26.55
-27.34
-29.90
-33.64
-37.18
-38.88
-37.72
-34.11
-29.98
-28.09
-30.73
-38.46
-49.65
-60.91
-68.45
-69.51
-63.29
-51.20
-36.29
-22.22
-12.26
-8.32
-10.44
-16.88
-24.76
-31.15
-33.98
-32.51
-27.15
-18.80
-8.36
3.41
15.49
26.43
34.45
38.07
36.89
31.73
24.32
16.59
10.32
7.23
9.38
18.94
37.30
63.52
93.37
119.88
135.61
135.84
120.91
96.44
70.99
52.41
44.75
47.14
55.11
63.31
68.11
68.76
66.71
63.88
61.03
57.32
51.14
41.58
29.54
17.55
8.60
4.59
5.37
8.86
12.13
12.52
8.43
-0.53
-13.58
-28.94
-43.97
-55.66
-61.60
-60.92
-55.02
-47.21
-41.45
-40.68
-45.65
-54.68
-64.60
-72.05
-74.64
-71.51
-63.38
-52.15
-40.37
-30.52
-24.27
-21.96
-22.54
-24.23
-25.48
-25.61
-24.88
-23.71
-21.95
-18.63
-12.40
-2.69
9.61
22.11
31.94
36.90
36.23
30.64
21.87
12.39
5.38
4.79
14.67
37.62
72.80
114.69
153.79
179.41
183.56
164.22
126.28
79.70
35.79
3.26
-14.16
-17.91
-12.70
-3.95
4.29
10.28
14.15
16.80
18.78
19.76
18.79
15.01
8.52
0.59
-6.68
-11.22
-11.88
-9.08
-4.59
-0.73
0.69
-0.82
-4.54
-9.54
-15.55
-23.44
-34.23
-47.79
-62.02
-73.40
-79.02
-78.69
-75.68
-75.30
-81.85
-95.77
-112.89
-126.38
-130.36
-123.19
-108.44
-92.99
-83.47
-82.97
-89.95
-99.71
-107.31
-110.26
-109.52
-108.31
-109.62
-114.03
-119.11
-120.75
-115.54
-102.73
-84.66
-65.38
-48.48
-35.39
-25.22
-16.04
-6.52
3.20
11.95
18.70
23.60
28.01
33.75
42.14
53.48
67.18
82.39
98.18
113.46
126.79
136.44
141.15
141.00
137.79
134.48
133.77
136.73
142.14
147.07
148.37
144.09
134.43
121.49
108.36
97.71
90.67
86.53
83.08
77.70
68.44
54.85
38.25
21.15
6.38
-3.83
-8.41
-7.56
-2.40
5.49
14.46
23.07
30.38
35.97
39.82
41.98
42.15
39.46
32.71
21.13
5.23
-12.91
-30.14
-43.47
-51.34
-54.26
-54.46
-54.71
-57.25
-62.98
-71.43
-81.00
-89.41
-93.83
-91.16
-78.88
-56.21
-25.41
7.75
35.50
50.77
50.48
37.24
18.52
3.48
-1.05
6.76
23.69
43.80
61.63
74.42
82.38
87.24
90.44
92.20
91.75
88.30
81.91
73.62
64.93
57.04
50.02
42.80
33.60
20.97
4.70
-13.71
-31.39
-45.10
-52.58
-53.36
-48.90
-41.85
-35.07
-30.64
-29.43
-31.13
-34.58
-38.29
-40.87
-41.43
-39.82
-36.62
-32.77
-29.10
-25.89
-22.81
-19.15
-14.39
-8.63
-2.58
2.75
6.59
8.78
9.76
10.28
10.92
11.80
12.63
13.02
12.79
12.09
11.30
10.83
10.87
11.46
12.45
13.77
15.30
16.99
18.74
20.45
22.06
23.62
25.22
26.97
28.84
30.63
32.06
32.92
33.18
33.04
32.69
32.22
31.39
29.74
26.81
22.37
16.65
10.20
3.78
-1.98
-6.75
-10.48
-13.38
-15.71
-17.63
-19.27
-20.70
-22.13
-23.86
-26.19
-29.31
-33.07
-36.88
-40.00
-41.70
-41.71
-40.25
-37.95
-35.51
-33.33
-31.42
-29.39
-26.76
-23.16
-18.46
-12.84
-6.64
-0.34
5.49
10.20
13.17
13.92
12.33
8.76
4.00
-1.00
-5.39
-8.70
-10.93
-12.38
-13.48
-14.46
-15.37
-16.07
-16.41
-16.39
-16.17
-15.99
-16.10
-16.53
-17.14
-17.62
-17.59
-16.69
-14.75
-11.83
-8.22
-4.27
-0.31
3.55
7.41
11.47
15.89
20.64
25.54
30.27
34.56
38.29
41.53
44.48
47.43
50.46
53.40
55.61
56.19
54.29
49.41
41.71
31.93
21.03
9.85
-1.16
-11.85
-22.17
-31.92
-40.77
-48.31
-54.39
-59.16
-63.04
-66.47
-69.69
-72.65
-75.05
-76.49
-76.64
-75.40
-72.96
-69.74
-66.25
-62.94
-60.01
-57.34
-54.69
-51.77
-48.49
-44.94
-41.33
-37.87
-34.69
-31.80
-29.19
-26.82
-24.72
-22.87
-21.22
-19.68
-18.22
-16.87
-15.81
-15.23
-15.25
-15.74
-16.41
-16.89
-16.93
-16.50
-15.80
-15.17
-14.88
-15.14
-15.94
-17.12
-18.35
-19.16
-19.05
-17.62
-14.75
-10.65
-5.81
-0.90
3.55
7.23
10.12
12.37
14.20
15.75
17.08
18.23
19.22
20.07
20.78
21.29
21.40
20.86
19.49
17.27
14.40
11.26
8.29
5.79
3.83
2.23
0.64
-1.23
-3.46
-5.87
-8.13
-9.98
-11.42
-12.72
-14.25
-16.23
-18.58
-20.84
-22.43
-22.91
-22.10
-20.18
-17.49
-14.38
-11.05
-7.56
-3.92
-0.16
3.59
7.13
10.23
12.72
14.58
15.95
17.08
18.18
19.33
20.44
21.24
21.50
21.14
20.29
19.20
18.11
17.10
16.10
14.94
13.54
11.90
10.18
8.50
6.88
5.11
2.95
0.17
-3.19
-6.92
-10.65
-13.99
-16.66
-18.49
-19.45
-19.49
-18.67
-17.04
-14.80
-12.19
-9.47
-6.83
-4.28
-1.74
0.95
3.83
6.82
9.73
12.36
14.54
16.20
17.27
17.70
17.45
16.51
15.00
13.17
11.31
9.61
8.08
6.48
4.48
1.85
-1.43
-5.09
-8.78
-12.18
-15.26
-18.24
-21.45
-25.10
-29.05
-32.89
-35.97
-37.80
-38.20
-37.35
-35.66
-33.58
-31.35
-29.03
-26.55
-23.85
-20.90
-17.76
-14.50
-11.18
-7.88
-4.67
-1.70
0.89
3.00
4.59
5.67
6.30
6.50
6.28
5.70
4.81
3.69
2.41
1.02
-0.49
-2.10
-3.74
-5.34
-6.83
-8.23
-9.66
-11.28
-13.22
-15.47
-17.88
-20.16
-21.92
-22.80
-22.53
-21.08
-18.69
-15.81
-12.88
-10.25
-7.97
-5.84
-3.57
-0.95
2.04
5.17
8.16
10.77
12.94
14.71
16.20
17.44
18.36
18.77
18.51
17.50
15.78
13.46
10.67
7.51
4.07
0.47
-3.04
-6.20
-8.77
-10.65
-12.00
-13.17
-14.60
-16.62
-19.31
-22.45
-25.54
-27.99
-29.30
-29.21
-27.80
-25.44
-22.66
-20.00
-17.77
-16.08
-14.81
-13.75
-12.68
-11.50
-10.22
-8.97
-7.92
-7.32
-7.41
-8.42
-10.49
-13.57
-17.47
-21.87
-26.43
-30.91
-35.24
-39.52
-43.90
-48.55
-53.56
-59.05
-65.13
-72.03
-80.07
-89.58
-100.67
-112.86
-124.84
-134.46
-139.19
-136.73
-125.59
-105.41
-76.77
-41.06
-0.30
42.81
84.92
122.33
151.74
171.23
180.88
182.70
179.59
174.07
167.26
158.84
147.82
133.72
117.42
100.98
86.83
76.45
69.57
64.23
57.80
48.33
35.52
20.82
6.78
-3.92
-9.38
-8.81
-2.59
7.98
20.98
34.31
46.23
55.83
63.34
69.93
76.90
85.05
94.03
102.47
108.54
110.69
108.42
102.55
95.42
90.24
90.21
97.11
110.07
124.99
135.38
134.48
118.11
86.96
47.04
7.87
-21.09
-34.16
-31.66
-19.56
-6.85
-1.79
-8.84
-27.63
-53.91
-82.08
-107.45
-127.57
-142.03
-151.44
-156.31
-156.61
-152.10
-143.04
-130.67
-117.05
-104.29
-93.67
-85.11
-77.34
-68.66
-57.89
-44.93
-30.65
-16.29
-2.78
9.71
21.56
33.32
45.17
56.82
67.75
77.69
86.96
96.50
107.49
120.72
135.95
151.46
164.25
170.63
167.26
152.32
126.39
92.76
56.77
24.23
-0.51
-16.11
-24.57
-29.93
-36.08
-44.82
-55.05
-63.75
-67.86
-65.98
-58.82
-48.23
-35.86
-21.97
-5.67
14.03
36.89
60.93
82.97
99.96
110.26
114.43
115.00
115.57
119.53
128.77
142.73
158.34
170.86
175.39
168.69
150.32
122.62
89.64
55.37
22.50
-8.28
-37.69
-67.04
-97.45
-129.48
-163.15
-197.82
-231.93
-262.83
-287.01
-301.08
-303.05
-293.25
-274.32
-250.20
-224.70
-200.42
-178.51
-159.18
-142.34
-128.09
-116.51
-107.31
-99.70
-92.51
-84.83
-76.39
-67.73
-59.92
-54.03
-50.54
-48.98
-48.12
-46.39
-42.61
-36.43
-28.50
-20.12
-12.62
-6.87
-2.92
-0.19
2.07
4.43
7.04
9.63
11.80
13.19
13.61
13.09
11.78
9.88
7.58
5.04
2.43
-0.01
-2.02
-3.22
-3.21
-1.75
1.23
5.47
10.49
15.78
20.91
25.55
29.44
32.27
33.63
33.17
30.86
27.02
22.37
17.78
13.90
10.94
8.58
6.16
3.01
-1.27
-6.63
-12.60
-18.55
-23.87
-28.27
-31.78
-34.81
-37.90
-41.63
-46.47
-52.72
-60.47
-69.50
-79.10
-87.92
-94.14
-96.01
-92.46
-83.76
-71.48
-57.96
-45.37
-35.07
-27.51
-22.59
-20.13
-20.16
-22.68
-27.25
-32.79
-37.87
-41.16
-42.15
-41.12
-38.87
-36.18
-33.43
-30.63
-27.70
-24.70
-21.81
-19.20
-16.81
-14.36
-11.49
-8.04
-4.04
0.30
4.77
9.27
13.68
17.95
21.96
25.60
28.86
31.84
34.67
37.41
39.93
41.96
43.23
43.61
43.21
42.39
41.56
41.01
40.77
40.51
39.68
37.76
34.48
30.00
24.87
19.80
15.37
11.82
8.99
6.49
3.94
1.11
-2.04
-5.48
-9.14
-12.97
-16.81
-20.34
-23.06
-24.44
-24.21
-22.55
-19.98
-17.18
-14.51
-11.85
-8.77
-4.84
-0.15
4.61
8.46
10.57
10.70
9.27
7.14
5.09
3.70
3.13
3.25
3.77
4.25
4.29
3.60
2.14
0.15
-1.88
-3.47
-4.35
-4.58
-4.44
-4.43
-5.00
-6.56
-9.33
-13.22
-17.78
-22.30
-25.96
-28.09
-28.45
-27.14
-24.53
-21.12
-17.32
-13.54
-10.10
-7.42
-5.87
-5.74
-7.11
-9.73
-13.09
-16.50
-19.23
-20.76
-20.81
-19.51
-17.30
-14.74
-12.34
-10.34
-8.69
-7.17
-5.55
-3.71
-1.69
0.40
2.46
4.46
6.42
8.45
10.73
13.73
18.14
24.64
33.53
44.38
55.84
65.84
72.30
73.91
70.74
64.29
56.90
50.84
47.39
46.31
46.05
44.31
38.99
28.95
14.27
-3.76
-23.04
-41.03
-55.20
-63.44
-64.62
-59.06
-48.67
-36.49
-25.59
-17.87
-13.20
-9.71
-4.91
2.79
13.07
24.01
33.26
39.60
43.78
48.04
54.70
64.68
76.79
88.21
95.94
98.27
95.53
89.73
83.39
78.21
74.45
71.05
66.57
60.27
52.67
45.39
40.24
38.11
38.40
39.26
38.57
35.06
28.96
21.81
15.63
11.85
10.71
11.30
12.12
11.75
9.42
5.17
-0.31
-6.06
-11.17
-15.00
-17.26
-17.85
-16.81
-14.18
-9.98
-4.36
2.43
10.04
18.24
27.07
37.00
48.67
62.48
78.30
95.26
112.01
127.03
138.91
146.37
148.24
143.46
131.36
112.10
86.97
58.40
29.48
3.23
-18.03
-33.13
-42.12
-46.02
-46.54
-45.65
-45.10
-45.82
-47.71
-49.64
-50.08
-47.94
-43.11
-36.52
-29.63
-23.62
-18.90
-15.20
-11.98
-9.07
-6.78
-5.64
-5.91
-7.31
-9.13
-10.63
-11.51
-12.06
-12.86
-14.42
-16.82
-19.70
-22.58
-25.16
-27.55
-30.23
-33.72
-38.38
-44.20
-50.75
-57.39
-63.68
-69.71
-76.15
-84.10
-94.47
-107.38
-121.72
-135.20
-144.76
-147.32
-140.61
-123.62
-96.98
-62.78
-24.19
15.04
51.27
81.61
104.43
119.57
128.22
132.54
135.03
137.92
142.53
148.97
156.15
162.18
165.11
163.60
157.35
147.11
134.22
120.09
105.71
91.53
77.64
64.11
51.15
39.11
28.21
18.34
9.04
-0.19
-9.61
-18.95
-27.48
-34.37
-39.10
-41.77
-43.10
-44.04
-45.36
-47.25
-49.28
-50.67
-50.83
-49.68
-47.67
-45.52
-43.78
-42.44
-41.03
-39.09
-36.50
-33.80
-31.85
-31.30
-32.12
-33.54
-34.49
-34.23
-32.68
-30.25
-27.25
-23.27
-17.11
-7.21
7.34
26.00
46.67
66.27
81.86
91.52
94.70
91.90
84.21
72.89
59.26
44.77
30.99
19.30
10.47
4.45
0.57
-1.96
-3.51
-3.79
-2.12
2.06
8.86
17.90
28.48
39.83
51.10
61.31
69.34
74.19
75.50
73.78
70.18
65.88
61.44
56.61
50.72
43.53
35.72
28.69
23.79
21.25
19.79
16.99
10.36
-1.44
-18.06
-37.67
-57.87
-76.66
-93.04
-106.90
-118.44
-127.48
-133.12
-133.94
-128.71
-117.24
-100.90
-82.36
-64.73
-50.45
-40.42
-33.90
-29.13
-24.30
-18.38
-11.41
-4.16
2.36
7.56
11.26
13.81
15.64
17.17
18.61
20.05
21.44
22.59
23.29
23.35
22.76
21.67
20.37
19.11
17.98
16.86
15.57
14.00
12.20
10.33
8.48
6.59
4.49
2.03
-0.68
-3.27
-5.25
-6.31
-6.52
-6.30
-6.22
-6.68
-7.69
-8.83
-9.43
-8.96
-7.24
-4.62
-1.84
0.27
1.10
0.55
-0.99
-2.88
-4.50
-5.60
-6.25
-6.75
-7.43
-8.48
-10.00
-12.03
-14.58
-17.53
-20.52
-22.97
-24.24
-23.88
-21.90
-18.74
-15.17
-12.03
-9.90
-9.03
-9.33
-10.45
-11.96
-13.41
-14.41
-14.70
-14.08
-12.46
-9.86
-6.39
-2.36
1.80
5.61
8.68
10.74
11.73
11.62
10.40
8.14
5.05
1.54
-1.81
-4.38
-5.74
-5.79
-4.72
-3.03
-1.34
-0.29
-0.31
-1.52
-3.64
-6.08
-8.11
-9.26
-9.63
-9.96
-11.44
-15.19
-21.82
-31.15
-42.19
-53.47
-63.39
-70.53
-73.88
-72.93
-67.61
-58.37
-46.00
-31.48
-15.61
1.27
19.42
39.58
62.43
88.01
115.31
142.18
165.80
183.33
192.65
192.81
184.06
167.59
145.12
118.60
90.00
61.23
34.01
9.65
-11.09
-28.04
-41.42
-51.61
-58.99
-63.96
-67.13
-69.39
-71.76
-75.02
-79.36
-84.20
-88.41
-90.82
-90.58
-87.49
-81.88
-74.40
-65.81
-56.87
-48.37
-40.99
-35.22
-31.12
-28.31
-26.12
-23.94
-21.43
-18.60
-15.73
-13.05
-10.56
-8.06
-5.28
-2.09
1.33
4.62
7.42
9.61
11.35
12.98
14.71
16.47
17.88
18.46
17.94
16.38
14.19
11.87
9.74
7.81
5.83
3.53
0.78
-2.26
-5.29
-8.03
-10.30
-12.11
-13.50
-14.44
-14.74
-14.17
-12.53
-9.86
-6.48
-2.94
0.17
2.45
3.85
4.72
5.56
6.76
8.40
10.15
11.46
11.90
11.36
10.12
8.69
7.49
6.66
6.06
5.35
4.29
2.78
0.91
-1.08
-2.98
-4.60
-5.79
-6.56
-7.04
-7.60
-8.70
-10.69
-13.61
-17.06
-20.34
-22.78
-24.06
-24.42
-24.57
-25.25
-26.91
-29.41
-32.11
-34.24
-35.32
-35.40
-34.98
-34.69
-34.97
-35.83
-36.96
-37.87
-38.15
-37.42
-35.34
-31.44
-25.44
-17.50
-8.51
0.12
7.00
11.45
13.87
15.58
18.06
22.31
28.52
36.29
45.12
54.80
65.41
77.00
89.29
101.60
113.06
122.97
130.92
136.81
140.75
142.95
143.52
142.54
140.04
136.10
130.91
124.94
118.94
113.88
110.69
109.71
110.34
110.89
108.95
102.19
89.32
70.62
47.86
23.66
0.33
-20.93
-40.37
-59.50
-80.49
-105.45
-135.47
-169.90
-205.70
-237.75
-260.01
-267.54
-258.47
-234.77
-201.35
-163.82
-126.06
-89.01
-51.47
-11.90
29.63
70.85
108.11
137.97
158.42
169.06
170.40
163.03
147.17
122.74
89.78
48.81
0.70
-53.31
-111.42
-170.64
-226.26
-271.92
-300.85
-307.77
-291.00
-253.51
-202.39
-146.65
-94.32
-50.26
-15.41
12.22
35.68
57.46
78.75
99.88
120.83
141.48
160.98
177.06
185.78
182.42
163.09
126.28
73.51
8.90
-61.68
-131.48
-193.37
-240.55
-267.65
-272.24
-256.10
-225.27
-188.43
-153.87
-126.55
-106.69
-90.61
-73.29
-51.02
-23.09
8.67
41.43
73.13
103.22
132.20
160.53
187.66
212.03
231.62
244.78
250.60
248.63
238.33
218.75
188.77
147.77
96.69
38.51
-21.80
-78.24
-125.19
-158.84
-178.10
-184.48
-181.23
-172.01
-159.77
-146.15
-131.86
-117.25
-102.83
-89.27
-76.85
-64.91
-51.58
-34.27
-10.66
20.26
57.37
97.35
135.36
166.15
185.36
190.27
180.09
155.80
119.87
75.82
27.89
-19.56
-62.55
-98.08
-124.34
-140.56
-146.63
-142.93
-130.39
-110.76
-86.74
-61.46
-37.54
-16.14
3.47
23.60
47.07
75.83
110.03
147.71
185.43
219.36
246.53
265.58
276.68
280.68
278.01
268.11
249.58
221.27
183.51
138.72
90.83
43.73
-0.21
-40.92
-80.25
-120.84
-164.83
-212.97
-264.48
-317.22
-368.01
-412.94
-447.76
-468.38
-471.81
-456.87
-424.63
-378.36
-322.62
-262.30
-201.59
-143.29
-88.67
-37.50
11.73
61.36
113.92
171.00
231.97
293.05
347.31
386.39
403.17
394.40
362.13
312.87
255.25
196.91
142.27
92.08
44.44
-3.71
-55.21
-111.84
-173.76
-238.76
-301.88
-355.86
-392.79
-406.69
-395.79
-363.22
-315.66
-260.58
-203.65
-147.58
-92.87
-39.61
10.92
56.07
92.86
119.60
137.02
148.02
156.26
164.51
173.48
181.74
187.10
188.17
185.27
180.18
174.84
170.05
165.03
158.20
148.49
136.38
123.81
113.16
106.01
102.45
101.27
100.75
99.46
96.67
92.43
87.52
83.47
82.49
87.12
99.44
120.09
147.48
177.73
205.54
225.40
233.25
227.30
208.26
178.66
141.65
99.58
53.35
2.61
-52.89
-111.58
-169.04
-218.43
-252.56
-266.73
-261.03
-240.54
-213.48
-188.13
-169.60
-158.42
-151.04
-141.83
-125.58
-99.32
-63.05
-19.52
26.77
70.69
107.52
133.73
147.27
147.28
133.62
106.47
66.45
15.40
-43.07
-103.41
-159.05
-204.06
-234.69
-249.89
-250.89
-240.14
-220.45
-194.51
-164.85
-133.55
-101.81
-69.51
-35.07
3.70
48.39
98.60
151.46
202.03
244.56
273.89
286.50
281.05
258.29
220.82
172.32
116.60
56.75
-5.08
-67.04
-126.30
-178.30
-217.26
-238.07
-238.71
-221.73
-193.57
-162.05
-133.18
-108.98
-87.62
-65.42
-39.40
-8.80
25.30
61.43
99.06
138.66
180.49
222.92
261.76
291.10
305.35
301.38
279.80
244.51
201.03
154.58
108.37
63.12
17.42
-30.91
-83.17
-138.47
-193.15
-241.20
-275.85
-291.79
-287.03
-263.55
-226.26
-180.62
-130.50
-77.35
-21.09
37.84
96.53
149.25
188.95
209.90
210.06
191.64
159.59
119.06
73.38
23.43
-30.71
-87.57
-142.87
-190.15
-223.39
-240.11
-242.51
-235.97
-226.14
-216.24
-206.22
-193.77
-176.46
-153.77
-127.72
-100.85
-73.98
-45.60
-13.41
23.44
63.50
103.74
140.67
171.18
194.24
211.40
225.37
237.89
248.17
253.73
251.94
240.72
218.56
185.84
145.49
102.02
59.70
20.93
-13.10
-41.42
-55.03
-47.11
-19.75
16.63
51.41
78.49
95.34
100.62
97.88
90.21
78.80
63.21
42.24
13.67
-21.14
-62.34
-110.10
-163.81
-222.21
-283.15
-342.04
-391.82
-424.47
-434.09
-419.39
-383.38
-331.54
-269.44
-200.95
-127.77
-51.51
23.75
90.25
138.52
160.88
154.23
121.28
70.04
11.81
-41.49
-79.61
-95.95
-87.30
-54.98
-5.02
53.33
110.56
159.72
197.48
223.77
233.59
224.38
200.43
170.48
141.99
118.80
102.03
91.21
85.08
81.82
81.11
83.56
89.53
99.04
110.66
121.97
129.55
130.05
121.31
104.87
84.92
66.01
51.28
41.74
36.64
34.17
35.64
42.25
56.49
80.68
115.41
158.80
206.92
254.79
297.30
330.08
349.73
355.29
347.90
330.27
305.93
278.52
251.23
226.37
205.34
188.36
175.23
165.22
157.04
149.01
139.40
127.01
111.41
93.00
72.33
49.90
25.87
-0.08
-28.42
-59.34
-92.44
-126.81
-161.30
-194.85
-226.32
-254.55
-278.22
-296.22
-308.17
-315.00
-318.86
-322.30
-327.21
-333.79
-340.69
-345.93
-348.12
-347.15
-343.83
-338.87
-331.90
-321.57
-306.49
-286.69
-264.20
-242.36
-224.05
-209.98
-198.21
-185.16
-167.82
-145.63
-120.94
-97.90
-80.44
-70.45
-67.32
-68.78
-72.34
-76.45
-80.63
-84.83
-88.55
-90.54
-89.26
-83.57
-73.48
-60.18
-45.58
-31.62
-19.73
-10.69
-4.59
-1.18
0.00
-0.57
-2.41
-4.96
-7.38
-8.58
-7.54
-3.67
2.59
9.59
14.86
15.93
11.37
1.43
-12.02
-26.14
-38.11
-46.01
-49.18
-48.18
-44.22
-38.76
-33.01
-27.71
-23.17
-19.39
-16.25
-13.62
-11.53
-10.18
-9.95
-11.28
-14.50
-19.65
-26.41
-34.13
-41.88
-48.61
-53.23
-54.77
-52.62
-46.78
-37.99
-27.74
-17.84
-9.85
-4.63
-2.10
-1.41
-1.52
-1.77
-2.13
-3.09
-5.19
-8.42
-12.03
-14.68
-15.13
-12.88
-8.52
-3.54
0.17
0.89
-2.66
-11.29
-25.35
-44.66
-67.95
-92.61
-114.83
-130.34
-135.73
-129.77
-114.06
-92.69
-70.89
-53.28
-42.38
-37.96
-37.55
-37.82
-35.96
-30.70
-22.26
-11.68
0.11
12.84
26.85
42.48
59.66
77.73
95.91
113.74
131.52
150.10
170.57
193.85
220.38
250.00
282.01
315.37
348.91
381.26
410.66
434.59
449.61
451.88
438.04
406.26
356.93
292.70
218.10
138.91
61.52
-7.83
-63.97
-103.95
-127.72
-138.18
-140.16
-138.72
-137.64
-138.62
-141.59
-145.65
-149.67
-152.43
-152.21
-146.73
-133.67
-111.84
-82.32
-48.61
-15.67
11.84
31.21
42.59
48.82
54.36
63.98
81.68
109.73
148.19
194.53
243.67
288.71
322.56
339.93
338.96
321.76
293.36
259.72
225.60
193.38
163.17
133.86
104.39
74.42
44.37
14.78
-14.35
-43.81
-74.95
-109.35
-148.45
-193.34
-244.28
-300.09
-357.49
-410.95
-453.71
-479.63
-485.29
-471.20
-441.34
-401.32
-356.16
-308.92
-260.67
-211.71
-162.72
-115.22
-70.98
-31.16
4.23
35.86
64.19
88.83
108.71
122.79
131.02
134.71
136.06
137.19
139.42
143.19
148.54
155.62
164.84
176.15
188.23
198.08
201.66
195.51
178.65
153.46
125.30
100.58
84.18
77.58
78.55
82.50
84.86
83.11
77.60
70.77
65.42
62.92
62.55
62.12
59.44
53.77
46.15
38.68
32.92
28.59
23.34
13.95
-1.85
-23.89
-49.45
-74.74
-96.98
-115.71
-132.55
-149.30
-165.88
-179.53
-186.11
-182.63
-169.46
-150.58
-131.61
-116.80
-106.95
-99.47
-90.53
-77.72
-61.46
-44.56
-30.17
-19.89
-13.11
-7.84
-2.29
3.97
9.99
14.47
16.86
17.88
19.15
22.09
27.03
32.92
37.91
40.21
39.01
34.58
28.06
20.93
14.47
9.55
6.60
5.59
6.03
7.21
8.38
9.07
9.17
8.87
8.39
7.79
7.03
6.31
6.40
8.58
14.01
22.88
33.90
44.58
52.32
55.65
54.90
51.87
48.67
46.51
45.11
43.19
39.44
33.60
26.69
20.43
16.28
14.57
14.44
14.46
13.41
10.88
7.26
3.31
-0.37
-3.69
-6.95
-10.57
-14.69
-19.08
-23.08
-25.88
-26.86
-25.80
-23.01
-19.23
-15.29
-11.71
-8.54
-5.32
-1.62
2.64
6.89
10.17
11.61
11.02
8.93
6.46
4.69
4.26
5.25
7.33
10.11
13.35
17.01
21.08
25.34
29.13
31.45
31.17
27.57
20.62
11.08
0.14
-11.07
-21.87
-32.08
-41.79
-50.98
-59.44
-66.82
-72.85
-77.52
-81.00
-83.43
-85.00
-85.95
-86.72
-87.94
-89.89
-92.08
-93.27
-91.82
-86.45
-76.61
-62.62
-45.27
-25.60
-4.73
16.03
35.20
51.34
63.44
71.30
75.52
77.08
76.87
75.23
72.00
66.88
59.91
51.74
43.56
36.75
32.34
30.55
30.69
31.13
29.88
25.29
16.54
4.16
-9.97
-23.03
-31.96
-34.32
-28.93
-16.32
1.51
21.54
40.63
56.23
66.75
71.51
70.48
64.14
53.50
40.31
26.90
15.65
8.21
4.83
4.32
4.71
4.20
2.02
-1.52
-5.50
-9.20
-12.60
-16.24
-20.56
-25.31
-29.52
-32.04
-32.27
-30.67
-28.62
-27.64
-28.73
-31.92
-36.57
-41.84
-47.04
-51.62
-54.89
-55.98
-54.09
-49.26
-42.67
-36.27
-31.67
-28.94
-26.16
-20.32
-8.92
8.56
30.37
53.30
74.36
91.82
105.29
114.86
120.23
120.61
115.40
105.10
91.73
78.25
67.30
60.11
56.15
53.69
50.83
46.45
40.62
34.42
29.29
26.31
25.83
27.23
29.33
30.87
31.05
29.84
27.96
26.48
26.21
27.41
29.82
32.96
36.41
39.92
43.23
45.88
47.24
46.71
44.11
39.81
34.62
29.33
24.43
19.94
15.66
11.46
7.49
4.14
1.63
-0.04
-1.33
-2.84
-4.93
-7.48
-9.79
-10.84
-9.79
-6.48
-1.62
3.31
6.61
7.10
4.71
0.75
-2.39
-2.16
3.04
12.89
25.02
35.79
41.83
41.52
36.02
28.97
25.20
29.06
42.86
66.20
96.04
127.43
154.52
171.79
175.26
163.23
136.73
98.98
54.20
6.22
-42.80
-92.86
-145.91
-204.67
-270.93
-343.71
-418.30
-486.67
-539.50
-569.27
-572.93
-553.00
-516.23
-470.74
-423.04
-376.34
-330.97
-286.04
-241.23
-197.38
-155.97
-117.82
-82.25
-47.16
-9.97
31.36
77.56
127.81
180.07
231.67
279.91
322.60
358.34
386.53
407.07
419.86
424.53
420.40
406.88
384.01
352.95
316.04
276.48
237.71
202.66
173.38
150.70
134.25
122.26
111.87
99.56
82.40
59.36
32.34
5.80
-15.01
-26.75
-30.54
-32.50
-41.71
-65.97
-107.63
-161.61
-216.89
-260.79
-283.70
-281.95
-257.89
-217.41
-167.21
-113.06
-59.79
-12.01
25.53
48.74
55.54
46.95
27.12
2.30
-20.57
-35.37
-37.94
-27.07
-5.15
22.23
47.76
64.99
70.78
66.57
57.47
49.88
48.47
54.62
66.61
81.18
95.46
107.78
117.43
123.98
126.94
126.11
122.32
117.85
115.65
117.75
123.54
129.03
127.54
112.03
78.17
26.58
-36.55
-101.21
-156.74
-195.18
-213.42
-213.37
-200.23
-180.08
-157.80
-136.31
-116.83
-99.56
-84.21
-69.66
-53.76
-33.65
-6.94
26.37
62.92
96.44
120.08
129.20
123.37
106.51
84.68
63.07
43.68
25.21
4.94
-18.46
-43.20
-64.76
-78.18
-80.91
-74.41
-63.44
-53.47
-47.85
-46.33
-45.73
-42.19
-33.48
-20.28
-5.53
7.10
14.72
15.42
7.91
-8.79
-34.61
-66.98
-99.96
-125.40
-136.08
-129.12
-107.79
-79.84
-53.57
-33.76
-19.90
-7.77
6.99
25.72
46.09
63.99
76.24
82.45
84.61
85.38
86.39
87.61
87.98
86.43
82.61
76.85
69.61
60.85
49.99
36.42
20.47
4.26
-8.28
-12.70
-6.17
10.35
31.39
48.64
54.39
45.25
23.98
-1.99
-24.36
-38.26
-44.17
-47.05
-53.40
-67.86
-91.46
-121.69
-153.87
-182.71
-203.46
-212.54
-208.02
-190.14
-161.42
-126.02
-88.38
-51.90
-18.18
12.74
41.64
69.37
96.34
122.14
145.43
163.75
174.08
173.88
162.60
142.61
118.99
98.01
84.84
81.57
86.49
95.19
102.51
104.56
99.83
89.12
74.66
58.67
42.24
24.65
3.72
-22.86
-55.79
-93.02
-129.75
-159.68
-177.11
-178.77
-164.58
-137.10
-100.49
-59.68
-19.80
14.01
37.48
48.28
46.97
37.13
24.21
13.37
7.69
7.69
12.07
18.87
26.22
31.73
31.75
21.46
-3.40
-44.12
-97.44
-155.98
-210.66
-253.75
-280.94
-291.48
-286.83
-268.93
-239.01
-197.85
-146.74
-88.52
-27.63
30.99
83.47
127.79
163.64
191.19
209.66
217.18
212.23
195.66
172.12
149.62
136.37
136.94
149.76
167.46
180.09
179.45
162.34
131.39
93.06
54.74
21.94
-2.98
-20.66
-33.56
-44.28
-54.27
-63.22
-69.46
-71.08
-67.20
-58.66
-47.64
-36.54
-26.88
-18.55
-10.18
-0.06
13.03
29.45
48.59
68.95
88.11
102.68
108.63
102.07
80.14
41.77
-12.22
-79.21
-154.75
-232.39
-303.81
-359.80
-392.29
-396.75
-373.75
-328.58
-269.02
-202.44
-134.01
-67.05
-4.69
48.81
88.41
110.34
114.42
104.96
89.28
74.39
63.94
57.24
50.65
40.65
26.61
11.50
0.38
-2.31
5.06
20.88
41.51
63.30
83.98
103.01
120.75
137.63
153.68
168.78
182.94
196.24
208.18
217.06
219.84
212.87
192.96
158.39
109.09
46.44
-26.83
-106.58
-186.63
-258.84
-314.30
-345.55
-348.89
-325.66
-281.71
-225.45
-165.24
-107.50
-55.88
-11.79
24.66
53.54
74.48
86.59
88.87
81.07
64.69
43.49
22.91
8.43
3.48
8.00
18.69
30.81
40.43
46.11
48.95
51.50
56.43
65.27
78.22
94.42
112.45
130.80
148.24
163.91
177.36
188.13
195.23
196.73
189.94
172.26
142.04
99.13
44.64
-19.40
-89.79
-161.63
-227.78
-279.44
-308.40
-309.81
-284.23
-237.73
-179.77
-120.30
-67.34
-26.04
1.11
13.62
12.76
1.63
-15.08
-32.10
-45.16
-52.54
-55.16
-55.50
-55.73
-56.28
-55.69
-51.74
-43.03
-30.19
-15.76
-3.08
5.26
8.50
7.91
6.07
5.66
8.55
15.35
25.63
38.41
52.60
67.23
81.37
94.07
104.29
111.07
113.77
112.37
107.59
100.79
93.44
86.73
81.09
76.24
71.42
65.84
59.19
51.72
44.19
37.44
31.99
27.82
24.40
21.08
17.41
13.42
9.36
5.37
1.33
-3.18
-8.34
-13.75
-18.37
-20.94
-20.78
-18.29
-15.05
-13.11
-14.05
-18.30
-25.02
-32.66
-39.88
-46.05
-51.40
-56.56
-62.41
-70.01
-80.90
-96.95
-119.71
-149.11
-182.22
-213.19
-234.45
-239.00
-222.87
-186.57
-134.93
-75.58
-16.73
34.81
74.66
100.95
113.89
115.09
107.26
93.88
78.81
65.60
56.46
51.58
49.00
45.65
38.82
27.60
13.23
-1.72
-14.90
-25.29
-33.22
-39.43
-44.25
-47.34
-48.37
-47.81
-47.04
-47.43
-49.27
-51.11
-50.50
-45.37
-35.32
-21.86
-7.28
6.81
20.31
34.18
49.34
65.54
81.26
94.56
104.29
110.68
114.90
118.13
120.54
121.23
118.88
112.92
104.04
94.04
84.77
77.16
70.81
64.41
56.59
46.81
35.54
23.95
13.26
4.21
-3.03
-8.62
-12.79
-15.75
-17.76
-19.21
-20.45
-21.58
-22.27
-21.94
-20.08
-16.70
-12.38
-7.98
-4.25
-1.37
1.03
3.59
6.88
11.00
15.74
20.68
25.43
29.77
33.61
36.93
39.75
42.16
44.28
46.24
48.02
49.31
49.48
47.53
42.32
32.93
18.77
-0.37
-24.44
-52.91
-84.37
-115.95
-143.31
-161.39
-166.08
-156.06
-133.73
-104.73
-75.84
-52.43
-36.60
-27.18
-21.29
-16.48
-12.07
-9.11
-9.01
-12.10
-17.10
-21.63
-23.64
-22.47
-19.04
-15.08
-11.84
-9.48
-7.22
-4.15
-0.02
4.64
8.86
12.07
14.37
16.39
18.75
21.76
25.49
30.13
36.29
44.83
56.25
70.13
85.02
98.91
109.95
117.03
119.87
118.61
113.46
104.39
91.36
74.64
55.01
33.61
11.60
-10.13
-31.11
-51.28
-70.58
-88.76
-105.03
-118.09
-126.40
-128.67
-124.48
-114.81
-101.92
-88.69
-77.41
-68.98
-62.63
-56.48
-48.51
-37.41
-22.96
-5.99
11.89
28.50
41.49
48.82
49.41
43.60
33.18
20.72
8.75
-0.94
-7.66
-11.42
-12.40
-10.44
-4.84
5.52
21.61
43.39
69.05
95.04
117.41
134.01
146.18
158.68
177.22
204.85
239.31
273.11
296.75
303.10
290.60
263.49
229.05
193.73
160.40
128.01
93.41
53.70
7.86
-43.27
-98.18
-155.44
-213.44
-269.16
-317.34
-351.32
-366.42
-363.66
-351.25
-342.26
-348.88
-376.39
-420.05
-466.89
-501.63
-513.82
-501.89
-472.25
-434.67
-397.37
-364.35
-335.78
-310.15
-285.64
-261.70
-238.69
-216.66
-194.59
-170.62
-143.40
-112.93
-80.30
-45.29
-7.99
31.23
72.75
118.48
170.79
229.89
291.59
347.32
389.60
410.38
403.72
370.04
318.69
264.88
222.52
197.86
188.23
190.81
199.56
208.02
213.39
219.11
231.99
256.95
294.28
341.58
403.36
480.89
567.58
650.72
717.43
758.74
770.98
756.06
671.08
508.36
302.57
106.75
-46.38
-152.48
-221.03
-260.73
-283.47
-295.31
-291.56
-271.41
-242.64
-215.67
-196.24
-184.45
-177.90
-174.62
-171.87
-161.33
-136.40
-99.11
-57.03
-18.12
11.33
27.34
28.88
19.43
8.65
4.05
2.85
-2.12
-12.20
-25.28
-38.16
-48.55
-55.32
-57.45
-56.60
-62.74
-83.18
-116.70
-155.50
-191.35
-219.76
-240.26
-254.69
-266.70
-288.27
-327.23
-382.29
-446.08
-511.81
-575.51
-634.10
-683.16
-669.65
-570.03
-408.58
-236.71
-91.89
13.97
84.72
129.82
158.85
179.91
188.81
182.81
166.93
152.73
151.18
168.92
203.87
249.73
295.87
323.11
316.62
273.43
205.04
130.81
70.89
40.38
45.55
83.03
138.04
193.94
237.67
263.77
270.28
256.66
224.33
177.61
124.36
72.44
29.56
1.05
-8.74
-0.24
21.13
48.44
70.79
80.44
77.91
79.15
90.90
115.80
147.03
174.13
187.52
181.76
158.41
124.36
88.06
50.43
18.34
-3.60
-23.57
-48.10
-79.22
-114.75
-151.61
-188.48
-228.15
-273.33
-312.39
-336.19
-342.38
-334.67
-314.66
-279.48
-225.56
-154.95
-73.97
6.70
73.84
118.31
137.27
135.05
116.88
88.28
53.53
18.01
-13.48
-39.61
-61.13
-80.75
-102.14
-129.43
-158.93
-186.91
-206.52
-210.37
-194.63
-159.83
-110.81
-54.71
1.35
52.97
98.12
137.48
172.31
202.78
229.12
252.74
276.70
304.20
336.81
371.82
403.19
423.20
424.86
404.75
364.25
308.79
245.91
183.11
125.48
75.44
32.62
-5.37
-41.74
-79.30
-119.67
-163.11
-208.66
-254.68
-298.68
-337.37
-366.89
-383.82
-386.38
-375.38
-354.21
-327.46
-299.38
-272.40
-247.21
-223.74
-202.14
-182.98
-166.59
-151.98
-136.60
-117.37
-92.28
-61.83
-28.86
2.80
30.31
52.92
71.74
88.44
103.60
116.25
124.39
126.47
122.66
115.04
106.78
100.62
97.67
97.11
96.79
94.35
88.07
77.50
63.33
47.15
30.95
16.66
5.67
-1.43
-5.00
-6.21
-6.51
-7.02
-8.13
-9.46
-10.42
-10.81
-11.08
-12.04
-14.15
-16.97
-19.20
-19.31
-16.49
-11.23
-5.18
-0.24
2.48
3.31
3.84
6.01
11.20
19.79
31.30
44.96
59.99
75.76
91.49
106.25
119.08
129.41
137.08
142.18
144.84
145.28
144.22
143.03
143.20
145.09
146.72
143.92
132.04
108.82
76.32
40.74
9.80
-10.86
-20.11
-21.12
-18.86
-17.00
-16.05
-13.92
-8.09
2.20
15.30
28.15
38.15
44.53
48.28
50.77
52.18
50.83
44.07
30.03
9.30
-14.79
-37.40
-54.48
-64.58
-69.28
-71.87
-75.28
-80.33
-85.30
-87.02
-82.62
-71.02
-53.27
-31.84
-9.15
13.37
35.45
57.07
77.39
94.06
103.89
104.15
94.21
76.19
54.40
33.73
17.93
8.69
5.73
7.70
13.22
21.34
31.39
42.44
52.77
59.89
61.10
54.61
40.45
20.76
-0.86
-20.79
-36.98
-49.84
-61.90
-76.32
-95.10
-118.13
-143.48
-168.79
-192.80
-215.73
-238.47
-261.02
-281.42
-296.07
-301.31
-295.25
-278.89
-255.61
-229.68
-204.32
-180.78
-158.63
-136.81
-114.81
-93.25
-73.62
-57.54
-46.01
-39.03
-35.80
-35.21
-36.27
-38.33
-40.86
-43.22
-44.51
-43.86
-40.90
-36.28
-31.66
-29.11
-30.34
-35.92
-44.91
-55.02
-63.15
-66.25
-62.32
-51.35
-35.79
-20.23
-9.72
-7.67
-14.26
-26.16
-38.17
-45.58
-46.31
-41.35
-33.68
-26.41
-21.39
-19.09
-19.33
-22.23
-28.37
-38.35
-51.83
-67.18
-81.83
-93.41
-100.93
-105.36
-109.26
-115.57
-126.13
-140.65
-156.63
-170.46
-179.04
-181.21
-178.13
-172.39
-166.38
-160.86
-154.54
-145.06
-130.46
-110.41
-86.48
-61.14
-36.43
-12.94
10.18
34.46
60.84
88.96
117.20
143.67
167.33
189.00
211.32
237.59
269.89
307.49
346.51
381.14
406.00
418.13
417.96
408.42
393.29
375.40
355.90
334.47
310.09
281.33
246.32
202.60
148.04
82.64
10.38
-60.24
-117.85
-151.73
-155.71
-130.60
-83.97
-27.35
27.88
73.75
106.96
127.89
138.55
141.01
136.84
127.66
115.73
103.80
94.05
86.73
79.64
68.82
50.97
25.83
-2.60
-27.19
-40.59
-38.77
-22.79
1.49
26.13
44.49
53.58
54.49
50.68
45.81
41.97
39.58
38.07
36.84
35.54
33.81
31.08
26.68
20.46
13.14
6.02
0.03
-5.13
-11.07
-19.90
-32.66
-48.37
-64.12
-76.27
-81.97
-80.28
-72.34
-60.99
-49.67
-41.56
-38.76
-41.66
-48.83
-57.35
-63.61
-64.44
-58.00
-44.20
-24.52
-1.66
21.13
40.46
53.34
57.91
54.03
43.63
30.25
17.87
9.51
6.45
8.20
13.17
19.57
25.97
31.41
35.24
36.92
36.13
32.88
27.60
20.96
13.73
6.58
0.02
-5.52
-9.63
-12.16
-13.32
-13.96
-15.26
-18.28
-23.40
-29.93
-36.36
-40.88
-42.17
-39.80
-34.39
-27.08
-19.05
-11.10
-3.61
3.18
8.87
12.93
14.99
15.13
13.99
12.47
11.17
10.11
8.86
7.00
4.62
2.35
0.99
0.74
0.94
0.19
-2.76
-8.11
-14.65
-20.17
-22.50
-20.63
-15.20
-8.08
-1.44
3.33
6.12
7.83
9.81
13.06
17.87
23.80
29.96
35.37
39.30
41.50
42.17
41.94
41.54
41.38
41.22
40.08
36.61
29.74
19.34
6.39
-7.31
-19.87
-30.05
-37.55
-42.94
-47.17
-51.03
-54.81
-58.22
-60.61
-61.29
-59.69
-55.64
-49.30
-41.05
-31.23
-20.16
-8.13
4.43
16.83
28.14
37.51
44.56
49.65
53.77
58.05
63.17
68.90
74.20
77.78
78.92
77.97
76.33
75.80
77.72
82.29
88.39
93.96
97.04
96.62
93.31
89.05
86.21
86.22
88.65
91.23
90.84
85.07
73.42
57.35
39.08
20.07
-0.11
-23.74
-53.69
-92.07
-139.39
-194.59
-255.35
-318.13
-377.93
-428.62
-464.30
-481.49
-480.81
-467.09
-447.24
-427.06
-408.79
-390.75
-369.31
-341.76
-308.14
-270.94
-233.23
-196.44
-159.57
-119.96
-75.17
-24.41
31.13
88.85
145.45
197.73
243.03
279.71
307.91
330.05
350.60
374.92
407.27
448.87
497.02
545.78
587.86
616.75
628.58
622.43
599.77
563.49
516.91
463.26
405.55
346.93
290.94
241.41
201.52
172.48
152.50
136.88
119.71
96.16
64.63
27.09
-12.29
-49.45
-82.51
-112.15
-140.68
-170.29
-201.72
-234.02
-265.03
-292.32
-314.02
-329.39
-339.24
-346.05
-353.11
-363.14
-376.99
-392.89
-406.86
-414.08
-410.75
-395.62
-370.36
-338.41
-303.05
-266.24
-228.48
-190.02
-151.80
-115.79
-84.39
-59.02
-39.18
-21.98
-4.29
14.90
32.70
42.90
38.42
14.55
-28.93
-87.31
-151.41
-211.83
-262.33
-300.76
-327.38
-342.66
-346.48
-338.83
-320.59
-291.12
-250.98
-203.31
-153.41
-106.13
-63.94
-27.28
4.26
31.47
60.04
95.74
139.87
188.16
233.99
272.67
302.50
324.01
339.79
359.75
394.00
447.13
516.62
597.06
684.09
774.27
861.55
899.38
851.18
715.69
531.84
348.38
196.66
86.69
14.23
-33.62
-69.54
-96.74
-111.71
-112.75
-104.56
-95.59
-93.18
-101.73
-126.11
-164.87
-209.79
-251.82
-286.89
-317.88
-351.10
-391.72
-423.68
-434.85
-423.01
-392.49
-349.66
-299.22
-245.09
-191.19
-140.83
-96.18
-60.82
-40.46
-28.94
-19.36
-7.38
7.67
23.91
38.98
51.53
59.30
61.46
59.77
58.30
58.83
61.22
64.05
66.12
67.19
66.75
65.23
64.34
65.30
68.46
73.50
79.68
86.44
93.79
101.51
109.74
119.15
129.81
141.11
151.87
160.53
165.68
166.65
163.64
158.00
152.10
148.17
147.50
149.99
153.96
156.61
154.81
146.12
129.47
105.46
75.77
42.48
7.28
-29.07
-66.89
-107.08
-150.24
-195.67
-240.90
-281.82
-313.71
-332.68
-337.02
-327.74
-308.35
-283.52
-257.61
-233.38
-211.48
-191.06
-170.62
-149.07
-126.41
-103.60
-82.16
-63.52
-48.64
-37.89
-31.28
-28.77
-30.27
-35.35
-43.05
-51.61
-58.85
-62.73
-62.13
-57.18
-49.24
-40.31
-32.40
-26.82
-23.95
-23.23
-23.49
-23.31
-21.38
-16.76
-8.95
2.05
15.84
31.64
48.34
64.64
79.20
90.78
98.53
102.18
102.22
99.90
97.06
95.72
97.46
102.82
110.88
119.35
125.12
125.04
116.82
99.53
74.00
42.59
8.83
-23.50
-51.17
-72.31
-86.67
-95.36
-100.05
-102.14
-102.20
-99.99
-94.94
-86.83
-76.14
-64.11
-52.46
-42.88
-36.75
-34.89
-37.60
-44.58
-54.93
-66.94
-78.23
-86.15
-88.51
-84.30
-74.31
-60.89
-47.28
-36.61
-31.01
-31.31
-37.06
-46.76
-58.10
-68.44
-75.48
-78.13
-77.13
-74.73
-73.64
-75.53
-79.98
-84.64
-86.36
-82.69
-72.84
-57.65
-38.91
-18.45
2.27
22.19
40.62
57.20
72.03
85.64
98.75
111.72
124.26
135.45
143.93
148.37
147.71
141.50
130.05
114.49
96.59
78.14
60.30
43.03
25.21
5.39
-17.15
-41.60
-65.57
-85.83
-99.19
-103.45
-97.74
-82.67
-60.17
-33.26
-5.63
19.13
38.29
50.62
56.52
57.48
55.42
51.96
48.18
44.64
41.66
39.47
38.13
37.54
37.31
37.04
36.47
35.66
34.97
34.84
35.64
37.36
39.59
41.68
42.95
43.04
42.12
40.87
40.16
40.68
42.64
45.69
49.18
52.52
55.41
57.83
59.86
61.43
62.20
61.71
59.67
56.05
51.22
45.74
40.14
34.81
29.90
25.42
21.26
17.20
12.99
8.29
2.74
-3.95
-12.01
-21.41
-31.90
-42.83
-53.20
-61.75
-67.20
-68.51
-65.04
-56.66
-43.81
-27.48
-9.27
8.75
24.48
36.31
43.74
47.60
49.59
51.53
54.46
58.25
61.84
64.00
64.03
62.12
59.15
56.07
53.39
50.93
48.15
44.48
39.93
35.15
31.24
29.34
30.12
33.47
38.63
44.45
49.87
