1660334097.00
64.000000
-0.00
-0.00
-0.00
-0.00
-0.00
-0.00
-0.00
-0.00
-0.00
-0.00
0.00
0.01
0.01
-0.00
-0.03
-0.05
-0.05
0.00
0.13
0.36
0.66
1.01
1.37
1.72
2.06
2.40
2.79
3.24
3.80
4.42
5.06
5.67
6.21
6.69
7.15
7.68
8.31
9.13
10.08
11.05
11.92
12.62
13.19
13.75
14.52
15.65
17.38
19.58
22.00
24.37
26.51
28.45
30.47
32.98
36.29
40.81
46.24
52.10
57.81
62.99
67.60
72.06
76.99
82.94
90.52
99.34
108.71
117.77
125.84
132.75
138.93
145.57
151.40
158.91
168.98
182.00
196.83
210.35
217.83
214.16
195.71
161.66
114.80
59.59
0.88
-57.94
-115.64
-172.64
-229.81
-287.35
-344.31
-398.61
-448.45
-492.36
-529.46
-559.12
-580.61
-593.02
-595.40
-587.32
-568.89
-540.86
-503.67
-457.03
-399.98
-331.83
-253.37
-167.71
-80.06
3.70
78.43
141.22
191.51
230.39
259.41
279.81
292.33
297.60
296.57
290.60
281.25
269.80
256.97
242.93
227.57
210.92
193.45
176.10
159.93
145.77
133.88
123.83
114.72
105.62
95.90
85.48
74.78
64.43
55.01
46.82
39.82
33.75
28.24
23.05
18.04
13.32
8.96
5.04
1.68
-1.03
-3.01
-4.20
-4.62
-4.40
-3.80
-3.20
-2.94
-3.22
-4.06
-5.28
-6.64
-7.93
-9.07
-10.01
-10.75
-11.19
-11.21
-10.73
-9.77
-8.45
-7.01
-5.67
-4.59
-3.89
-3.55
-3.51
-3.62
-3.68
-3.56
-3.21
-2.71
-2.23
-1.97
-2.00
-2.28
-2.71
-3.16
-3.53
-3.66
-3.41
-2.64
-1.34
0.33
2.02
3.31
3.82
3.39
2.15
0.44
-1.29
-2.66
-3.46
-3.70
-3.56
-3.30
-3.11
-3.04
-3.00
-2.79
-2.28
-1.52
-0.68
0.01
0.44
0.63
0.70
0.77
0.84
0.80
0.55
0.06
-0.52
-0.94
-0.96
-0.46
0.53
1.87
3.40
4.97
6.47
7.77
8.74
9.26
9.24
8.67
7.61
6.14
4.36
2.30
-0.00
-2.42
-4.73
-6.62
-7.83
-8.19
-7.75
-6.76
-5.56
-4.48
-3.73
-3.35
-3.34
-3.65
-4.27
-5.15
-6.20
-7.22
-7.91
-8.04
-7.51
-6.46
-5.18
-3.98
-3.04
-2.34
-1.73
-0.98
0.03
1.27
2.63
4.00
5.32
6.55
7.57
8.11
7.79
6.37
3.91
0.97
-1.56
-2.74
-2.05
0.37
3.71
6.83
8.66
8.54
6.35
2.47
-2.43
-7.54
-12.01
-15.10
-16.22
-15.15
-12.13
-7.80
-3.03
1.30
4.49
6.18
6.21
4.67
1.95
-1.33
-4.41
-6.56
-7.25
-6.38
-4.27
-1.49
1.33
3.77
5.66
7.02
7.90
8.33
8.23
7.62
6.56
5.30
4.08
3.09
2.40
2.08
2.24
3.06
4.72
7.22
10.31
13.55
16.43
18.56
19.78
20.08
19.53
18.12
15.77
12.42
8.16
3.32
-1.58
-5.95
-9.32
-11.46
-12.40
-12.47
-12.11
-11.74
-11.68
-12.04
-12.75
-13.60
-14.35
-14.80
-14.78
-14.18
-12.90
-10.80
-7.76
-3.81
0.75
5.35
9.25
11.73
12.39
11.29
8.96
6.12
3.42
1.15
-0.77
-2.72
-5.05
-7.94
-11.29
-14.80
-18.11
-20.93
-23.06
-24.34
-24.62
-23.76
-21.72
-18.64
-14.88
-10.97
-7.45
-4.70
-2.89
-1.95
-1.64
-1.73
-2.00
-2.32
-2.60
-2.79
-2.83
-2.69
-2.37
-1.88
-1.26
-0.54
0.27
1.13
2.01
2.80
3.37
3.60
3.39
2.71
1.60
0.15
-1.46
-3.01
-4.22
-4.81
-4.58
-3.47
-1.57
0.88
3.57
6.19
8.55
10.50
11.94
12.73
12.73
11.85
10.18
8.01
5.82
4.06
3.02
2.72
2.93
3.31
3.64
3.80
3.85
3.83
3.78
3.65
3.39
2.97
2.39
1.63
0.56
-1.00
-3.22
-6.02
-9.09
-11.80
-13.47
-13.59
-11.97
-8.85
-4.81
-0.55
3.32
6.40
8.54
9.80
10.29
10.08
9.21
7.74
5.82
3.75
1.94
0.76
0.40
0.74
1.46
2.10
2.34
2.07
1.45
0.74
0.17
-0.20
-0.53
-1.05
-2.01
-3.53
-5.60
-8.07
-10.64
-12.89
-14.30
-14.37
-12.78
-9.51
-4.94
0.24
5.24
9.38
12.26
13.82
14.21
13.68
12.47
10.76
8.72
6.57
4.59
3.07
2.21
2.03
2.36
2.88
3.25
3.23
2.79
2.09
1.33
0.65
0.03
-0.67
-1.62
-2.92
-4.55
-6.39
-8.30
-10.15
-11.78
-12.97
-13.36
-12.56
-10.27
-6.51
-1.68
3.47
8.15
11.75
14.00
15.03
15.16
14.71
13.88
12.72
11.23
9.49
7.68
6.10
4.97
4.42
4.34
4.51
4.64
4.51
4.00
3.16
2.11
1.04
0.07
-0.76
-1.48
-2.18
-2.96
-3.89
-4.99
-6.27
-7.67
-9.09
-10.32
-11.05
-10.88
-9.48
-6.71
-2.77
1.85
6.45
10.34
13.03
14.37
14.49
13.68
12.29
10.55
8.68
6.86
5.30
4.17
3.53
3.31
3.28
3.22
2.99
2.58
2.14
1.79
1.57
1.39
1.11
0.60
-0.14
-1.05
-2.00
-2.97
-3.98
-5.10
-6.42
-7.97
-9.75
-11.73
-13.79
-15.71
-17.08
-17.39
-16.15
-13.12
-8.50
-2.92
2.70
7.43
10.62
12.06
11.95
10.72
8.86
6.76
4.66
2.76
1.16
-0.00
-0.67
-0.86
-0.65
-0.22
0.21
0.48
0.46
0.15
-0.40
-1.09
-1.84
-2.56
-3.21
-3.81
-4.38
-4.95
-5.51
-6.07
-6.62
-7.24
-8.00
-8.94
-9.97
-10.80
-10.96
-10.00
-7.63
-3.92
0.66
5.43
9.66
12.84
14.73
15.39
14.98
13.74
11.89
9.65
7.25
4.96
3.04
1.69
0.98
0.87
1.18
1.66
2.02
2.06
1.71
1.02
0.14
-0.77
-1.61
-2.38
-3.09
-3.75
-4.31
-4.72
-4.96
-5.12
-5.40
-5.99
-7.04
-8.52
-10.16
-11.54
-12.15
-11.55
-9.52
-6.17
-1.92
2.56
6.62
9.75
11.73
12.59
12.50
11.66
10.25
8.41
6.32
4.23
2.43
1.14
0.42
0.16
0.15
0.16
0.09
-0.01
-0.02
0.13
0.41
0.67
0.67
0.25
-0.64
-1.87
-3.19
-4.31
-5.05
-5.34
-5.27
-5.08
-5.05
-5.43
-6.30
-7.54
-8.75
-9.44
-9.06
-7.30
-4.16
-0.02
4.43
8.43
11.30
12.66
12.52
11.23
9.34
7.44
5.94
5.05
4.72
4.70
4.72
4.60
4.28
3.84
3.41
3.07
2.81
2.55
2.19
1.74
1.21
0.67
0.09
-0.63
-1.64
-2.96
-4.46
-5.88
-6.89
-7.35
-7.35
-7.22
-7.38
-8.12
-9.45
-11.04
-12.31
-12.62
-11.49
-8.80
-4.82
-0.21
4.24
7.82
10.09
10.94
10.56
9.27
7.42
5.27
3.06
0.99
-0.77
-2.08
-2.86
-3.10
-2.88
-2.34
-1.61
-0.86
-0.24
0.17
0.28
0.09
-0.38
-1.09
-1.97
-2.95
-3.90
-4.71
-5.26
-5.53
-5.60
-5.66
-5.93
-6.52
-7.37
-8.19
-8.52
-7.88
-5.96
-2.82
1.15
5.26
8.76
11.10
12.07
11.80
10.67
9.07
7.27
5.39
3.43
1.43
-0.49
-2.12
-3.24
-3.73
-3.64
-3.12
-2.40
-1.69
-1.12
-0.77
-0.66
-0.81
-1.21
-1.84
-2.61
-3.43
-4.15
-4.67
-4.98
-5.20
-5.56
-6.30
-7.50
-9.00
-10.33
-10.87
-10.08
-7.79
-4.24
-0.04
4.05
7.45
9.84
11.20
11.71
11.53
10.78
9.52
7.82
5.79
3.64
1.62
-0.04
-1.17
-1.68
-1.61
-1.06
-0.22
0.70
1.50
2.03
2.20
1.94
1.20
-0.00
-1.58
-3.31
-4.89
-6.00
-6.47
-6.33
-5.85
-5.41
-5.36
-5.84
-6.73
-7.63
-7.99
-7.30
-5.24
-1.83
2.50
7.05
11.05
13.82
15.05
14.76
13.31
11.15
8.74
6.39
4.28
2.46
0.93
-0.31
-1.21
-1.73
-1.82
-1.52
-0.96
-0.34
0.10
0.21
-0.06
-0.63
-1.34
-2.03
-2.64
-3.16
-3.63
-4.12
-4.68
-5.31
-6.03
-6.81
-7.58
-8.16
-8.30
-7.69
-6.06
-3.36
0.21
4.13
7.68
10.19
11.21
10.67
8.84
6.25
3.43
0.86
-1.18
-2.49
-2.93
-2.41
-0.90
1.44
4.20
6.80
8.62
9.23
8.55
6.85
4.60
2.32
0.34
-1.24
-2.49
-3.56
-4.58
-5.59
-6.55
-7.43
-8.17
-8.65
-8.69
-8.01
-6.36
-3.60
0.18
4.61
9.14
13.16
16.20
18.08
18.94
19.17
19.23
19.45
19.93
20.55
21.15
21.68
22.27
23.25
24.91
27.42
30.66
34.18
37.28
39.00
38.35
34.49
27.01
16.18
2.99
-11.06
-24.32
-35.48
-43.82
-49.29
-52.32
-53.44
-53.10
-51.47
-48.59
-44.44
-39.10
-32.81
-25.92
-18.86
-12.09
-6.11
-1.39
1.64
2.80
2.20
0.35
-2.04
-4.25
-5.75
-6.36
-6.13
-5.21
-3.67
-1.57
1.03
3.92
6.74
9.14
10.90
12.05
12.82
13.46
14.09
14.65
14.90
14.57
13.42
11.32
8.27
4.45
0.24
-3.85
-7.21
-9.31
-9.88
-9.00
-7.06
-4.61
-2.19
-0.13
1.44
2.56
3.32
3.80
4.02
4.07
4.09
4.39
5.33
7.22
10.10
13.65
17.24
20.05
21.43
21.04
18.98
15.67
11.71
7.64
3.86
0.58
-2.13
-4.29
-6.03
-7.59
-9.24
-11.19
-13.42
-15.63
-17.32
-17.92
-17.03
-14.57
-10.90
-6.62
-2.40
1.25
4.04
5.90
6.89
7.13
6.74
5.78
4.49
3.32
2.85
3.38
4.82
6.58
7.85
7.89
5.98
1.97
-3.66
-10.06
-16.44
-22.30
-27.47
-31.99
-35.95
-39.95
-44.34
-49.06
-53.63
-57.50
-60.29
-61.76
-61.81
-60.44
-58.43
-56.43
-54.66
-52.88
-50.82
-48.39
-45.75
-43.11
-36.60
-24.59
-8.38
8.56
23.18
34.32
42.29
47.88
51.85
54.69
55.95
55.34
53.01
49.66
46.09
42.86
40.21
38.15
36.53
34.61
31.82
28.16
24.13
20.49
17.82
16.37
16.10
16.65
17.24
17.28
16.61
15.48
14.26
13.22
12.28
11.19
9.64
7.24
3.82
-0.53
-5.41
-10.32
-14.74
-18.32
-20.74
-21.83
-21.59
-20.14
-17.77
-14.86
-11.80
-8.73
-5.41
-1.19
4.26
10.80
17.44
22.66
25.07
24.16
20.60
15.91
11.67
8.76
7.21
6.49
6.03
5.73
5.82
6.53
7.75
8.87
9.07
7.83
5.14
1.57
-2.06
-5.03
-7.00
-8.03
-8.44
-8.58
-8.67
-8.76
-8.79
-8.68
-8.42
-8.09
-7.84
-7.77
-7.97
-8.41
-9.01
-9.65
-10.22
-10.60
-10.72
-10.52
-10.01
-9.22
-8.23
-7.21
-6.22
-5.32
-4.56
-3.87
-3.09
-1.98
-0.33
1.98
4.83
7.89
10.69
12.79
13.88
13.92
13.05
11.55
9.70
7.70
5.71
3.86
2.29
1.13
0.46
0.27
0.41
0.65
0.68
0.29
-0.58
-1.80
-3.09
-4.14
-4.79
-5.07
-5.11
-5.08
-5.06
-5.03
-4.89
-4.59
-4.21
-3.89
-3.79
-3.88
-4.03
-4.00
-3.56
-2.53
-0.87
1.36
4.04
6.95
9.90
12.59
14.73
16.09
16.63
16.50
15.97
15.31
14.21
12.57
10.35
7.69
4.91
2.51
0.97
0.56
1.16
2.39
3.74
4.73
4.98
4.35
2.87
0.67
-2.01
-4.91
-7.75
-10.24
-12.25
-13.79
-15.09
-16.48
-18.31
-20.79
-23.99
-27.80
-31.92
-35.99
-39.61
-42.33
-43.72
-43.46
-41.44
-37.88
-33.28
-28.27
-23.45
-19.17
-15.49
-12.25
-9.17
-5.94
-2.27
2.15
7.58
14.22
22.01
30.58
39.25
47.14
53.43
57.65
59.78
60.30
59.94
59.49
59.49
60.08
60.93
61.41
60.72
58.19
53.41
46.37
37.48
27.46
17.16
7.34
-1.43
-8.94
-15.22
-20.51
-25.11
-29.29
-33.16
-36.60
-39.23
-40.52
-40.01
-37.50
-33.21
-27.79
-22.09
-16.89
-12.68
-9.59
-7.50
-6.22
-5.53
-5.23
-5.10
-4.91
-4.47
-3.72
-2.81
-2.03
-1.64
-1.81
-2.51
-3.61
-4.99
-6.60
-8.49
-10.75
-13.37
-16.18
-18.91
-21.29
-23.12
-24.35
-25.09
-25.56
-25.97
-26.45
-27.01
-27.49
-27.56
-26.76
-24.60
-20.63
-14.65
-6.79
2.45
12.26
21.75
30.17
37.05
42.32
46.21
49.18
51.67
53.97
56.07
57.66
58.26
57.39
54.78
50.46
44.77
38.27
31.58
25.27
19.80
15.43
12.21
9.90
8.01
5.96
3.21
-0.52
-5.20
-10.57
-16.16
-21.52
-26.18
-29.79
-32.13
-33.12
-32.88
-31.73
-30.07
-28.27
-26.55
-24.97
-23.41
-21.70
-19.67
-17.25
-14.49
-11.61
-8.98
-7.04
-6.15
-6.47
-7.89
-10.08
-12.60
-15.05
-17.18
-18.91
-20.27
-21.28
-21.98
-22.38
-22.59
-22.76
-23.06
-23.60
-24.34
-25.04
-25.41
-25.13
-24.01
-21.97
-19.05
-15.31
-10.77
-5.44
0.72
7.72
15.45
23.66
31.96
39.88
47.03
53.25
58.64
63.38
67.57
71.05
73.42
74.15
72.86
69.48
64.24
57.58
50.01
41.98
33.92
26.22
19.24
13.26
8.34
4.33
0.77
-2.95
-7.39
-12.81
-19.00
-25.30
-30.85
-34.92
-37.22
-38.02
-37.91
-37.57
-37.43
-37.65
-38.16
-38.85
-39.65
-40.41
-40.87
-40.60
-39.19
-36.47
-32.64
-28.22
-23.91
-20.27
-17.51
-15.55
-14.12
-12.98
-12.06
-11.44
-11.31
-11.76
-12.72
-13.94
-15.06
-15.77
-15.94
-15.63
-15.01
-14.33
-13.71
-13.11
-12.33
-11.01
-8.72
-5.03
0.40
7.66
16.34
25.48
33.63
39.21
41.09
39.07
34.05
27.74
22.03
18.25
16.76
16.97
17.86
18.47
18.33
17.48
16.23
14.89
13.57
12.30
11.10
10.14
9.74
10.11
11.22
12.69
13.89
14.24
13.33
11.06
7.61
3.28
-1.50
-6.25
-10.46
-13.65
-15.53
-16.10
-15.71
-14.96
-14.49
-14.77
-15.96
-17.95
-20.47
-23.19
-25.82
-28.06
-29.61
-30.19
-29.63
-27.96
-25.40
-22.35
-19.29
-16.62
-14.60
-13.24
-12.38
-11.70
-10.88
-9.67
-7.95
-5.78
-3.32
-0.78
1.60
3.68
5.39
6.72
7.72
8.44
8.95
9.36
9.85
10.69
12.13
14.33
17.20
20.35
23.15
24.99
25.46
24.54
22.55
19.99
17.26
14.60
12.08
9.79
7.91
6.75
6.60
7.52
9.26
11.26
12.83
13.45
12.96
11.61
9.90
8.38
7.30
6.55
5.64
4.02
1.31
-2.48
-6.95
-11.46
-15.39
-18.37
-20.36
-21.58
-22.40
-23.11
-23.86
-24.64
-25.30
-25.69
-25.72
-25.46
-25.02
-24.61
-24.41
-24.51
-24.91
-25.46
-25.92
-25.94
-25.17
-23.32
-20.33
-16.35
-11.74
-6.93
-2.28
2.06
6.16
10.22
14.48
19.04
23.86
28.79
33.55
37.78
41.04
42.82
42.73
40.65
36.82
31.83
26.40
21.15
16.47
12.46
9.09
6.31
4.17
2.78
2.22
2.46
3.35
4.66
6.08
7.35
8.28
8.97
9.90
12.11
16.92
25.61
38.79
55.99
75.52
94.86
111.32
122.69
127.62
125.57
116.63
101.42
81.09
57.42
32.73
9.53
-10.21
-25.48
-36.41
-43.84
-48.69
-51.46
-52.17
-50.71
-47.34
-42.96
-38.95
-36.77
-37.37
-40.89
-46.51
-52.76
-58.01
-60.91
-60.79
-57.77
-52.64
-46.45
-40.16
-34.30
-28.89
-23.58
-17.89
-11.52
-4.54
2.46
8.39
11.86
11.63
7.08
-1.33
-12.03
-22.59
-30.44
-33.58
-31.12
-23.46
-12.04
1.15
14.01
24.65
31.66
34.15
31.91
25.50
16.13
5.54
-4.54
-12.79
-18.62
-22.24
-24.37
-25.80
-27.03
-28.07
-28.58
-28.19
-26.75
-24.49
-21.90
-19.51
-17.68
-16.41
-15.49
-14.56
-13.33
-11.67
-9.59
-7.22
-4.65
-1.92
0.93
3.91
6.92
9.80
12.38
14.53
16.20
17.46
18.39
19.05
19.40
19.34
18.76
17.58
15.89
13.87
11.74
9.66
7.64
5.58
3.33
0.75
-2.18
-5.39
-8.71
-11.97
-15.09
-18.03
-20.81
-23.37
-25.51
-26.96
-27.36
-26.48
-24.39
-21.46
-18.29
-15.48
-13.37
-11.97
-11.04
-10.19
-9.03
-7.38
-5.34
-3.20
-1.35
-0.02
0.70
0.83
0.66
0.67
1.30
2.65
4.49
6.33
7.60
7.80
6.57
4.24
1.87
0.90
2.38
6.43
12.00
17.16
19.68
17.73
11.15
1.68
-7.68
-13.92
-14.89
-9.67
1.45
18.35
37.98
54.83
63.30
60.35
46.26
24.04
-1.49
-24.94
-41.79
-49.98
-49.84
-43.48
-33.89
-24.05
-16.14
-11.23
-9.33
-9.65
-11.25
-12.80
-12.85
-10.35
-5.14
2.08
10.15
17.97
24.99
30.87
35.64
39.54
42.66
44.67
44.92
42.78
37.44
29.75
20.83
11.91
4.12
-1.83
-5.64
-7.34
-7.06
-5.09
-1.88
1.62
4.27
5.22
4.10
1.25
-2.55
-6.35
-9.43
-11.34
-12.20
-12.38
-12.28
-12.26
-12.52
-13.07
-13.76
-14.34
-14.47
-13.97
-12.94
-11.49
-9.91
-8.57
-7.67
-7.21
-6.95
-6.48
-5.54
-4.08
-2.34
-0.79
0.06
-0.16
-1.52
-3.85
-6.69
-9.38
-11.16
-11.26
-9.16
-4.78
1.36
8.26
14.61
19.24
21.46
21.16
18.80
15.12
10.88
6.64
2.76
-0.63
-3.51
-5.96
-8.10
-10.03
-11.87
-13.59
-15.07
-16.02
-16.17
-15.38
-13.76
-11.63
-9.43
-7.50
-5.91
-4.74
-3.70
-2.41
-0.56
1.92
4.79
7.68
10.27
12.50
14.54
16.59
18.67
20.47
21.56
21.63
20.67
18.85
16.32
13.00
8.75
3.65
-1.80
-6.66
-9.96
-11.24
-10.79
-9.54
-8.55
-8.44
-9.21
-10.40
-11.49
-12.16
-12.27
-11.73
-10.41
-8.12
-4.85
-0.90
3.10
6.37
8.30
8.63
7.49
5.31
2.53
-0.53
-3.88
-7.75
-12.46
-18.14
-24.56
-31.06
-36.71
-40.57
-42.03
-40.98
-37.87
-33.47
-28.66
-24.11
-20.21
-16.99
-14.22
-11.53
-8.48
-4.69
0.06
5.81
12.34
19.29
26.20
32.70
38.55
43.65
47.96
51.41
53.89
55.30
55.61
55.00
53.78
52.29
50.70
48.81
46.10
41.91
35.81
27.85
18.56
8.85
-0.39
-8.48
-15.07
-19.99
-23.09
-24.15
-22.92
-19.34
-13.74
-6.84
0.29
6.55
11.08
13.56
14.26
13.86
13.23
13.04
13.51
14.39
15.11
15.03
13.82
11.55
8.64
5.69
3.16
1.26
-0.14
-1.32
-2.67
-4.45
-6.84
-9.87
-13.45
-17.37
-21.30
-24.89
-27.84
-30.01
-31.52
-32.67
-33.81
-35.16
-36.67
-37.94
-38.37
-37.40
-34.65
-30.14
-24.17
-17.23
-9.67
-1.63
7.05
16.66
27.36
39.06
51.22
62.86
72.66
79.10
80.80
76.93
67.59
53.97
38.10
22.29
8.52
-2.03
-9.11
-13.07
-14.47
-13.77
-11.23
-7.06
-1.55
4.82
11.53
18.05
24.00
29.10
33.03
35.36
35.49
32.83
26.98
18.07
6.84
-5.37
-16.96
-26.49
-33.08
-36.59
-37.49
-36.61
-34.79
-32.65
-30.59
-28.80
-27.47
-26.79
-26.99
-28.19
-30.38
-33.32
-36.60
-39.82
-42.65
-44.95
-46.72
-48.03
-48.88
-49.20
-48.85
-47.82
-46.25
-44.49
-42.98
-42.07
-41.88
-42.28
-43.00
-43.67
-43.93
-43.41
-41.65
-38.14
-32.41
-24.19
-13.57
-1.05
12.58
26.37
39.37
50.76
59.85
66.16
69.46
69.86
67.85
64.22
59.92
55.77
52.30
49.68
47.77
46.26
44.79
43.09
41.02
38.49
35.45
31.81
27.50
22.49
16.77
10.46
3.74
-3.11
-9.74
-15.76
-20.86
-24.91
-28.00
-30.36
-32.22
-33.60
-34.23
-33.67
-31.56
-27.85
-22.96
-17.64
-12.74
-8.90
-6.37
-5.04
-4.60
-4.76
-5.33
-6.33
-7.85
-9.99
-12.71
-15.86
-19.21
-22.50
-25.51
-28.02
-29.86
-30.90
-31.10
-30.54
-29.47
-28.14
-26.71
-25.14
-23.08
-20.00
-15.35
-8.70
0.03
10.44
21.66
32.44
41.45
47.73
50.97
51.68
50.94
49.96
49.51
49.64
49.73
48.92
46.54
42.48
37.19
31.46
26.11
21.79
18.87
17.51
17.71
19.30
21.89
24.84
27.32
28.44
27.44
23.95
18.06
10.33
1.64
-6.98
-14.62
-20.60
-24.58
-26.63
-27.19
-26.94
-26.69
-27.12
-28.58
-30.97
-33.80
-36.36
-37.96
-38.13
-36.73
