1660755849.00
64.000000
-0.00
-0.00
-0.00
-0.00
-0.00
-0.00
-0.00
-0.00
-0.00
-0.00
0.00
0.01
0.01
-0.00
-0.03
-0.05
-0.05
0.00
0.13
0.36
0.66
1.01
1.37
1.72
2.06
2.40
2.79
3.24
3.80
4.42
5.06
5.66
6.20
6.68
7.15
7.68
8.31
9.14
10.09
11.04
11.88
12.56
13.14
13.76
14.65
15.96
17.91
20.32
22.90
25.38
27.58
29.57
31.68
34.32
37.81
42.54
48.15
54.10
59.83
64.97
69.58
74.14
79.34
85.71
93.76
103.00
112.62
121.73
129.77
136.75
143.30
150.75
157.77
166.64
177.95
191.79
206.97
220.57
228.25
225.36
208.53
176.87
132.76
80.05
23.07
-34.94
-92.44
-149.16
-205.23
-260.37
-313.74
-363.87
-409.83
-450.91
-486.50
-515.74
-537.23
-549.22
-549.96
-538.37
-514.21
-478.67
-433.88
-382.45
-327.02
-269.84
-212.63
-156.66
-102.95
-52.37
-5.90
35.58
71.43
101.35
125.50
144.38
158.69
169.15
176.37
180.75
182.57
182.07
179.51
175.23
169.65
163.18
156.15
148.81
141.30
133.69
126.02
118.33
110.69
103.16
95.80
88.68
81.83
75.25
68.95
62.95
57.25
51.86
46.78
42.03
37.59
33.45
29.61
26.07
22.81
19.83
17.11
14.67
12.48
10.54
8.83
7.35
6.07
4.97
4.05
3.27
2.62
2.09
1.65
1.30
1.01
0.79
0.61
0.47
0.37
0.29
0.23
0.19
0.17
0.15
0.15
0.16
0.18
0.20
0.23
0.26
0.30
0.34
0.39
0.43
0.48
0.52
0.57
0.63
0.68
0.74
0.80
0.86
0.94
1.02
1.12
1.24
1.37
1.49
1.61
1.70
1.78
1.87
1.99
2.17
2.41
2.71
3.05
3.39
3.72
4.04
4.38
4.76
5.23
5.80
6.44
7.11
7.75
8.33
8.86
9.40
10.04
10.82
11.79
12.90
14.02
15.01
15.79
16.35
16.81
17.32
17.98
18.74
19.36
19.44
18.55
16.46
13.11
8.80
3.98
-0.91
-5.60
-10.08
-14.62
-19.51
-24.90
-30.57
-35.99
-40.49
-43.54
-44.98
-45.11
-44.52
-43.96
-44.05
-45.29
-47.91
-51.65
-55.59
-58.02
-56.86
-50.52
-38.68
-22.77
-5.67
9.41
20.11
25.78
27.40
26.76
25.53
24.53
23.82
23.06
22.09
21.09
20.45
20.47
21.07
21.86
22.26
21.84
20.50
18.53
16.44
14.75
13.74
13.38
13.39
13.38
13.08
12.40
11.44
10.36
9.32
8.47
7.88
7.58
7.52
7.58
7.58
7.30
6.66
5.65
4.45
3.18
1.87
0.50
-1.03
-2.78
-4.76
-6.92
-9.10
-11.10
-12.75
-13.85
-14.31
-14.19
-13.69
-13.09
-12.56
-12.06
-11.33
-10.07
-8.13
-5.65
-3.01
-0.64
1.20
2.54
3.56
4.45
5.23
5.72
5.67
4.91
3.48
1.63
-0.24
-1.73
-2.58
-2.84
-2.79
-2.88
-3.42
-4.38
-5.46
-6.19
-6.28
-5.76
-5.02
-4.53
-4.63
-5.39
-6.61
-8.07
-9.59
-11.10
-12.54
-13.81
-14.70
-15.04
-14.70
-13.67
-12.15
-10.37
-8.63
-7.11
-5.81
-4.55
-3.08
-1.24
0.93
3.13
5.06
6.48
7.41
8.08
8.71
9.35
9.86
10.02
9.69
8.95
8.01
7.10
6.32
5.66
5.00
4.18
3.08
1.65
-0.07
-1.97
-3.85
-5.48
-6.74
-7.58
-8.15
-8.62
-9.09
-9.55
-9.84
-9.81
-9.34
-8.45
-7.20
-5.67
-3.89
-1.84
0.49
3.08
5.76
8.29
10.36
11.75
12.44
12.64
12.74
13.11
13.89
14.90
15.82
16.33
16.34
16.04
15.68
15.48
15.40
15.29
14.96
14.32
13.42
12.31
10.97
9.30
7.13
4.37
1.08
-2.59
-6.45
-10.25
-13.72
-16.52
-18.32
-18.87
-18.10
-16.15
-13.31
-9.95
-6.32
-2.54
1.43
5.65
10.15
14.88
19.69
24.44
28.91
32.90
36.25
38.81
40.60
41.79
42.79
44.01
45.71
47.86
50.07
51.92
53.22
54.17
55.36
57.39
60.58
64.78
69.52
74.37
79.06
83.56
87.77
91.30
93.59
94.25
93.48
91.96
90.44
89.05
87.06
83.31
77.24
69.75
63.36
61.19
65.40
76.06
91.12
107.51
122.69
135.66
146.86
157.14
166.77
175.03
180.65
182.51
180.33
174.49
165.59
153.84
139.01
120.80
99.31
75.38
50.31
25.48
1.78
-20.61
-42.27
-64.21
-87.61
-113.27
-141.20
-170.31
-198.37
-222.51
-240.05
-249.33
-250.27
-244.47
-234.62
-223.64
-213.82
-206.23
-200.73
-196.29
-191.49
-185.10
-176.25
-164.65
-150.44
-134.15
-116.55
-98.57
-81.27
-65.71
-52.76
-42.94
-36.29
-32.34
-30.33
-29.62
-30.20
-33.02
-39.72
-51.69
-69.13
-90.34
-111.95
-129.98
-140.89
-142.24
-132.63
-111.21
-77.44
-31.42
25.52
90.42
158.90
226.03
287.16
338.21
375.69
396.69
399.51
384.73
356.03
319.55
281.96
247.84
217.98
189.47
157.64
118.68
71.56
18.33
-37.38
-91.98
-143.53
-191.89
-238.10
-283.62
-329.92
-378.63
-431.32
-488.68
-548.94
-606.87
-654.14
-681.56
-682.46
-655.42
-604.92
-539.53
-468.53
-398.70
-333.06
-271.31
-211.54
-152.00
-91.96
-32.29
25.28
78.64
125.57
163.94
192.42
211.34
222.48
228.92
233.62
239.04
246.87
257.87
271.78
287.26
302.12
313.58
319.26
317.00
306.75
290.79
272.88
256.47
243.46
234.16
227.13
220.80
211.52
197.54
180.47
164.49
153.90
151.14
157.45
171.21
190.34
206.78
213.78
208.77
193.05
169.25
139.28
106.69
72.82
40.01
1.38
-48.40
-108.56
-172.81
-233.45
-285.96
-326.31
-357.32
-382.44
-417.00
-472.55
-550.14
-641.81
-736.69
-827.78
-909.03
-983.24
-976.76
-848.88
-614.92
-337.78
-80.04
129.08
263.72
352.02
413.20
457.44
476.56
461.57
422.15
370.83
321.04
281.02
257.11
245.86
242.55
233.65
209.20
168.17
116.68
63.92
16.30
-20.70
-49.16
-72.09
-98.30
-134.62
-182.99
-241.69
-306.65
-373.69
-435.88
-487.37
-520.91
-533.02
-523.27
-494.30
-451.83
-402.59
-352.75
-305.10
-260.88
-219.39
-180.69
-145.50
-114.63
-88.52
-66.50
-47.18
-28.51
-9.23
11.34
33.06
55.11
76.31
95.38
111.49
124.47
134.84
143.68
152.53
163.09
176.97
194.88
215.85
236.63
251.95
256.37
246.54
223.45
192.63
162.71
142.17
136.17
144.92
163.68
184.30
197.14
193.20
166.28
115.00
44.05
-36.22
-112.44
-172.38
-208.85
-221.45
-215.44
-198.44
-177.17
-155.64
-135.50
-117.41
-102.03
-90.11
-81.65
-75.25
-68.35
-58.40
-43.82
-24.81
-3.17
17.95
35.06
45.28
47.27
41.88
32.04
21.86
15.15
14.08
18.55
26.69
36.11
45.08
53.15
60.87
69.06
77.91
87.00
95.51
103.01
110.03
118.22
129.66
145.40
163.86
180.33
188.36
182.61
161.95
130.83
97.99
72.87
61.66
65.26
79.99
100.40
122.06
142.74
161.56
177.22
187.21
188.66
180.14
163.15
141.88
121.30
104.99
93.86
86.25
79.61
72.30
64.51
57.70
53.16
50.61
48.01
42.63
32.84
19.38
5.46
-4.64
-7.41
-1.57
11.58
28.83
46.44
61.22
71.13
75.33
74.03
68.50
61.06
54.91
53.58
59.78
74.48
96.34
122.11
147.50
168.53
182.51
188.56
187.48
181.11
171.69
161.19
151.05
141.99
134.14
127.24
120.89
114.89
109.27
104.32
100.41
97.92
97.14
98.28
101.40
106.23
112.06
117.72
121.88
123.52
122.31
118.65
113.38
107.34
101.08
94.81
88.54
82.31
76.22
70.31
64.57
58.88
53.25
47.82
42.92
38.83
35.49
32.45
28.91
24.11
17.59
9.49
0.47
-8.52
-16.59
-23.11
-27.87
-30.96
-32.65
-33.19
-32.81
-31.72
-30.16
-28.48
-27.06
-26.21
-26.02
-26.36
-26.98
-27.68
-28.43
-29.36
-30.63
-32.33
-34.33
-36.40
-38.22
-39.55
-40.23
-40.21
-39.53
-38.31
-36.79
-35.29
-34.20
-33.76
-33.99
-34.63
-35.27
-35.59
-35.50
-35.21
-35.14
-35.68
-37.04
-39.02
-41.05
-42.34
-42.22
-40.36
-37.07
-33.19
-29.84
-27.98
-27.89
-29.01
-30.13
-29.94
-27.68
-23.61
-18.96
-15.34
-14.08
-15.46
-18.69
-22.08
-23.79
-22.58
-18.35
-12.30
-6.57
-3.77
-6.07
-14.21
-26.66
-39.43
-46.41
-40.73
-16.75
27.65
89.38
159.88
226.87
277.70
303.04
299.57
270.59
224.27
170.50
117.84
71.49
32.84
0.31
-29.22
-58.98
-91.27
-126.86
-164.59
-201.20
-231.71
-250.14
-250.83
-230.11
-188.01
-129.51
-64.14
-3.64
41.59
66.09
70.91
62.46
49.05
36.95
28.09
20.42
10.38
-4.21
-22.70
-41.93
-58.02
-68.44
-73.02
-73.62
-73.01
-73.49
-76.08
-80.37
-85.20
-89.40
-92.56
-95.07
-97.68
-100.66
-103.17
-103.41
-99.31
-89.75
-75.37
-58.46
-42.02
-28.37
-18.13
-10.00
-1.56
9.40
23.68
40.15
56.06
68.13
73.64
71.37
61.76
46.63
28.55
10.20
-6.21
-19.19
-28.01
-32.48
-32.76
-29.22
-22.37
-13.14
-2.94
6.28
12.62
15.11
14.25
11.99
11.18
14.45
23.24
37.18
54.14
71.22
85.86
96.78
104.02
108.56
111.55
113.66
114.92
114.64
112.37
108.67
105.23
104.13
106.89
113.61
122.94
132.48
138.67
138.91
132.95
122.93
111.90
102.22
94.76
88.98
83.61
75.44
62.42
45.33
27.51
12.30
1.17
-6.51
-12.36
-17.95
-27.27
-42.74
-63.23
-84.41
-102.19
-115.11
-124.48
-132.94
-143.56
-163.69
-199.96
-254.82
-324.76
-402.88
-480.54
-548.52
-598.09
-597.65
-530.68
-409.57
-270.34
-146.55
-53.48
9.62
49.39
72.28
82.58
79.68
65.03
42.46
22.22
12.42
14.96
25.64
38.72
49.97
55.05
52.50
44.30
34.83
26.76
24.07
26.28
31.97
39.99
47.63
52.69
54.76
55.81
58.07
63.02
70.51
80.04
90.80
100.88
108.46
112.69
114.22
114.10
113.27
111.97
110.57
109.48
108.54
107.18
104.51
99.67
91.89
81.01
67.56
53.20
39.89
28.64
18.85
8.53
-4.42
-20.78
-39.07
-56.05
-67.93
-71.98
-67.57
-56.02
-39.70
-20.97
-1.80
16.08
30.72
39.88
41.62
35.25
22.02
5.05
-11.77
-25.49
-35.39
-43.39
-53.01
-67.44
-87.74
-111.97
-135.86
-154.44
-163.99
-163.36
-153.99
-139.20
-122.88
-108.36
-97.79
-91.86
-90.00
-90.79
-92.66
-94.44
-95.73
-96.67
-97.43
-97.59
-95.98
-91.05
-81.41
-66.48
-46.83
-24.24
-1.82
15.93
23.43
15.24
-11.81
-56.08
-109.70
-159.97
-193.50
-201.45
-183.39
-147.32
-106.00
-71.40
-50.38
-43.44
-46.34
-53.22
-58.84
-59.42
-52.45
-36.62
-12.58
16.28
44.02
64.15
72.53
69.41
59.49
49.58
45.40
49.42
60.52
75.45
90.70
103.75
113.09
117.61
115.98
106.49
87.49
57.76
16.54
-36.37
-100.11
-171.71
-245.01
-310.67
-357.85
-377.60
-366.52
-328.77
-275.04
-218.60
-170.22
-134.42
-108.82
-86.69
-60.85
-27.00
15.24
63.43
114.19
164.53
211.83
252.99
283.83
299.39
295.68
271.80
231.39
182.39
134.98
98.97
81.24
84.46
106.80
142.60
183.37
219.03
239.93
239.75
218.42
183.20
146.66
121.62
115.41
126.57
145.94
161.85
166.34
158.98
146.30
137.76
140.93
158.50
188.02
223.69
258.61
286.42
302.10
302.48
286.72
256.54
215.47
167.71
116.86
65.38
14.69
-34.21
-80.37
-122.96
-161.91
-198.14
-233.41
-269.65
-308.13
-349.15
-392.41
-437.80
-485.79
-536.86
-590.05
-641.63
-685.03
-712.40
-717.50
-698.19
-657.26
-601.11
-537.14
-471.34
-407.37
-347.08
-291.67
-242.35
-199.89
-163.55
-130.51
-96.62
-58.18
-13.89
34.30
82.11
124.95
160.23
188.76
214.21
241.49
274.44
314.78
362.04
414.23
468.16
519.07
560.56
586.19
592.48
581.83
563.01
547.55
543.86
552.12
563.59
565.15
546.71
506.95
453.95
400.62
357.85
329.62
312.56
299.32
283.23
260.99
232.89
201.02
167.18
131.87
94.26
53.23
8.23
-40.02
-89.64
-138.09
-182.97
-223.12
-258.87
-292.01
-324.95
-359.65
-396.93
-436.90
-479.59
-525.53
-575.25
-627.83
-679.45
-723.25
-751.00
-756.13
-736.60
-695.83
-641.24
-581.22
-522.10
-466.76
-415.29
-366.75
-320.79
-278.02
-239.25
-204.41
-172.00
-139.62
-105.05
-67.32
-27.20
13.12
51.06
84.88
114.51
141.69
169.01
198.96
232.70
269.77
308.60
347.66
386.20
423.96
460.49
494.59
524.81
550.44
571.98
590.58
606.38
616.88
616.97
600.79
564.55
508.75
438.49
361.83
287.06
220.43
164.83
119.77
82.21
47.73
11.90
-28.53
-74.87
-126.88
-184.16
-247.12
-316.49
-391.22
-466.39
-532.68
-578.83
-595.89
-581.12
-538.96
-478.51
-409.82
-341.28
-279.45
-230.38
-200.27
-193.93
-211.71
-247.20
-288.00
-319.88
-332.22
-321.65
-291.97
-250.88
-205.86
-161.49
-119.39
-79.71
-42.62
-8.60
22.39
51.58
81.15
113.34
149.51
189.71
232.87
276.74
318.14
353.04
377.43
388.93
388.42
380.53
372.34
370.68
379.34
397.80
422.06
447.07
468.93
485.78
496.68
499.79
491.39
466.73
423.07
362.99
295.95
236.43
198.92
191.59
212.27
248.79
283.84
302.16
296.17
267.46
223.84
174.27
124.39
75.54
26.37
-24.36
-75.79
-125.49
-171.18
-212.46
-251.30
-291.46
-336.95
-390.41
-451.72
-517.22
-580.12
-632.18
-666.34
-679.12
-671.75
-649.16
-617.21
-579.89
-538.29
-492.09
-442.19
-392.57
-349.57
-318.89
-302.06
-294.94
-289.42
-277.31
-254.25
-221.22
-183.08
-145.50
-111.73
-81.55
-52.28
-20.96
13.72
50.89
88.34
123.93
156.79
187.61
218.28
250.84
286.71
326.43
369.72
415.52
462.01
506.44
545.42
575.66
595.07
603.76
604.11
599.75
593.98
588.27
581.91
572.78
558.86
539.41
515.32
488.32
459.86
430.26
398.72
364.08
325.85
284.83
243.00
202.60
165.10
130.51
97.40
63.69
27.75
-10.74
-50.72
-90.34
-127.85
-162.33
-193.93
-223.72
-253.31
-284.87
-320.79
-363.00
-411.72
-463.75
-511.72
-545.33
-554.87
-535.37
-489.58
-427.51
-362.64
-307.09
-268.17
-247.91
-244.95
-256.97
-281.50
-314.79
-350.47
-380.19
-396.72
-397.67
-387.35
-374.59
-367.92
-370.68
-379.35
-385.96
-382.88
-366.83
-339.85
-307.24
-274.15
-243.05
-213.69
-184.64
-155.16
-125.93
-98.41
-73.31
-49.81
-25.74
1.39
33.23
69.76
109.38
149.68
188.54
224.87
259.04
292.75
328.49
368.88
415.58
468.32
524.29
578.31
624.16
656.72
673.94
677.66
672.54
663.63
653.77
642.20
625.18
598.28
559.01
508.45
451.06
392.92
339.21
292.58
252.47
216.12
179.89
140.88
97.56
49.58
-2.42
-56.42
-108.16
-150.89
-176.79
-180.12
-160.85
-126.39
-89.79
-64.73
-59.83
-75.12
-102.87
-132.05
-153.95
-165.72
-170.41
-174.15
-182.57
-198.58
-222.13
-251.33
-283.82
-317.43
-350.28
-380.70
-406.97
-427.45
-440.84
-446.30
-443.83
-435.03
-423.78
-416.09
-418.26
-434.06
-461.97
-494.64
-521.12
-531.24
-519.99
-489.29
-446.45
-400.11
-356.25
-316.40
-278.84
-241.38
-203.68
-167.64
-135.85
-109.41
-86.91
-64.92
-39.93
-10.10
23.69
58.27
89.93
116.26
137.57
157.12
180.11
211.25
252.13
299.44
345.11
378.63
390.43
375.40
334.45
274.23
205.03
138.00
82.57
44.76
26.40
25.14
35.32
49.52
60.99
65.69
63.47
57.69
53.35
54.99
65.07
84.14
111.62
147.24
191.52
245.05
306.55
371.36
431.36
476.67
499.14
495.26
467.71
424.14
373.72
322.99
273.20
220.63
160.13
89.81
13.93
-57.22
-111.08
-137.87
-134.67
-105.84
-59.75
-4.82
53.31
111.23
165.10
209.11
237.01
245.01
235.45
217.60
204.34
205.97
225.47
256.90
289.33
313.04
322.56
317.72
302.09
280.25
255.77
231.04
207.09
185.15
168.09
157.60
153.30
152.90
153.43
152.38
149.20
143.54
135.90
128.19
119.98
108.25
88.24
55.25
6.71
-56.00
-130.38
-220.90
-316.83
-399.17
-452.17
-472.39
-466.91
-453.73
-438.81
-423.04
-405.34
-384.53
-363.50
-340.99
-320.49
-307.31
-304.85
-312.65
-329.43
-352.98
-381.62
-416.16
-458.84
-494.29
-509.41
-497.74
-462.27
-412.71
-357.69
-302.94
-252.07
-207.44
-171.16
-146.40
-134.07
-131.12
-137.07
-141.67
-135.88
-114.67
-78.00
-30.93
17.33
58.88
89.93
110.81
125.04
135.16
142.09
144.97
142.63
134.63
123.62
114.02
109.50
111.20
116.09
119.44
117.18
107.79
93.48
81.13
79.61
96.92
137.63
200.58
279.44
363.76
441.08
491.24
498.52
459.17
385.63
300.00
221.35
157.62
109.45
64.71
13.94
-45.20
-109.80
-175.11
-237.80
-293.72
-333.91
-350.55
-342.09
-314.25
-276.94
-239.32
-206.14
-178.10
-153.86
-132.81
-116.18
-105.94
-101.86
-100.85
-98.31
-90.56
-77.77
-61.82
-46.70
-37.14
-36.32
-44.32
-58.21
-74.01
-88.06
-98.40
-104.84
-108.77
-112.24
-116.85
-122.38
-127.29
-129.73
-128.36
-123.14
-115.13
-106.41
-99.26
-94.91
-93.52
-94.24
-95.65
-96.23
-94.90
-90.92
-83.93
-76.37
-69.27
-62.75
-56.24
-48.76
-39.46
-28.05
-15.01
-1.45
11.33
22.87
33.41
43.86
55.54
69.56
86.34
105.39
125.58
145.56
164.72
183.15
201.59
221.30
244.06
272.00
307.03
349.70
397.72
445.36
483.88
503.93
498.66
466.24
410.45
339.26
262.06
187.05
120.00
64.22
21.21
-8.56
-25.66
-31.91
-30.48
-25.50
-21.12
-20.56
-25.55
-36.19
-51.28
-69.12
-88.31
-108.07
-128.17
-148.12
-166.37
-179.96
-185.24
-179.20
-161.25
-134.03
-102.96
-74.63
-54.60
-45.80
-48.08
-58.85
-74.20
-89.96
-102.19
-107.49
-103.49
-89.60
-67.72
-42.28
-19.09
-3.43
2.10
-1.48
-10.11
-18.75
-23.68
-23.90
-20.99
-17.76
-16.63
-18.60
-23.30
-29.66
-36.60
-43.41
-49.66
-55.21
-60.22
-65.39
-71.83
-80.76
-92.81
-107.26
-121.65
-131.74
-132.66
-120.49
-94.30
-57.32
-16.58
19.23
42.80
51.08
46.35
34.64
22.63
14.46
10.59
8.69
5.99
1.37
-3.93
-6.74
-3.93
6.40
24.73
51.92
90.05
141.90
208.83
288.49
374.33
455.97
522.34
564.88
581.64
577.12
559.54
536.73
513.29
490.99
468.82
444.90
416.62
383.50
346.37
306.65
265.19
222.67
181.39
144.04
113.29
89.55
73.46
65.29
64.95
71.15
73.75
66.15
45.79
25.07
8.59
-2.61
-12.55
-23.14
-35.63
-50.63
-66.76
-82.56
-96.86
-110.83
-124.77
-138.30
-150.17
-159.46
-165.66
-167.70
-165.37
-159.37
-152.29
-145.82
-140.50
-135.55
-130.08
-123.50
-115.14
-105.20
-94.68
-85.67
-79.56
-77.07
-78.13
-82.29
-88.13
-92.60
-91.84
-82.47
-63.81
-38.22
-10.92
11.92
25.39
27.62
20.19
6.61
-9.65
-26.66
-43.88
-61.43
-79.15
-96.41
-112.58
-127.55
-142.01
-157.02
-173.24
-190.56
-208.05
-224.53
-239.28
-252.53
-265.38
-279.23
-295.08
-313.05
-332.32
-351.62
-369.88
-386.86
-403.41
-421.35
-443.37
-472.32
-510.13
-556.38
-606.98
-654.16
-688.02
-699.70
-684.54
-643.91
-584.60
-515.96
-446.47
-381.22
-321.61
-266.79
-215.85
-168.97
-127.40
-92.20
-63.16
-38.38
-14.97
9.73
37.12
66.74
96.66
124.42
148.25
167.91
185.08
202.45
222.80
247.76
277.06
309.07
341.85
374.28
406.22
437.85
468.59
497.09
522.28
544.82
567.49
593.72
624.77
657.57
684.70
697.33
689.36
660.45
616.01
564.40
513.07
466.01
423.68
384.86
348.74
315.74
286.79
262.06
240.42
219.63
197.63
173.64
148.31
123.27
99.89
78.40
57.51
35.08
9.17
-21.00
-54.39
-88.56
-120.64
-148.59
-172.20
-193.64
-216.94
-246.70
-285.66
-332.46
-380.55
-419.09
-435.81
-420.74
-369.61
-285.60
-178.82
-63.75
44.35
133.06
195.25
229.79
240.70
234.95
219.96
201.64
183.49
166.88
151.97
138.61
126.81
116.36
106.68
96.87
86.07
73.96
60.82
47.21
33.78
20.82
8.23
-4.32
-17.27
-31.13
-46.56
-64.08
-84.15
-106.88
-132.03
-159.36
-188.97
-221.64
-258.14
-298.40
-340.83
-382.92
-422.70
-460.24
-497.60
-536.98
-578.14
-616.85
-645.78
