1660934380.00
64.000000
-0.00
-0.00
-0.00
-0.00
-0.00
-0.00
-0.00
-0.00
-0.00
-0.00
0.00
0.01
0.01
-0.00
-0.03
-0.05
-0.05
0.00
0.13
0.36
0.66
1.01
1.37
1.72
2.06
2.40
2.79
3.25
3.81
4.44
5.10
5.73
6.32
6.90
7.51
8.25
9.15
10.29
11.55
12.81
13.95
14.92
15.81
16.82
18.16
20.00
22.52
25.50
28.64
31.65
34.38
36.98
39.79
43.29
47.78
53.59
60.30
67.33
74.11
80.36
86.29
92.51
99.80
108.66
119.46
131.51
143.87
155.63
166.40
176.51
186.89
199.06
211.63
226.56
244.02
263.78
284.56
303.72
317.45
321.68
313.35
291.47
257.89
215.77
168.83
120.15
71.62
24.17
-21.61
-65.07
-105.57
-142.57
-176.63
-209.08
-241.67
-275.84
-311.85
-348.16
-381.35
-407.05
-421.13
-421.44
-408.68
-386.12
-358.32
-329.42
-301.86
-276.22
-251.97
-228.43
-205.68
-184.42
-165.43
-148.92
-134.34
-120.70
-107.09
-93.18
-79.24
-66.05
-54.39
-44.66
-36.72
-29.96
-23.61
-17.10
-10.30
-3.51
2.68
7.76
11.50
14.08
15.96
17.64
19.50
21.60
23.76
25.63
26.91
27.43
27.26
26.63
25.88
25.29
25.03
25.08
25.23
25.23
24.88
24.12
23.06
21.96
21.05
20.45
20.11
19.85
19.46
18.80
17.89
16.90
16.01
15.38
15.01
14.83
14.69
14.48
14.15
13.71
13.22
12.72
12.23
11.76
11.33
10.95
10.61
10.32
10.04
9.80
9.62
9.53
9.57
9.71
9.87
9.92
9.74
9.29
8.63
7.90
7.30
6.99
7.00
7.26
7.56
7.69
7.50
6.99
6.30
5.62
5.15
4.91
4.82
4.71
4.43
3.96
3.37
2.77
2.28
1.89
1.56
1.18
0.71
0.14
-0.47
-1.06
-1.63
-2.26
-3.01
-3.93
-4.98
-6.01
-6.85
-7.41
-7.71
-7.85
-7.98
-8.15
-8.37
-8.57
-8.71
-8.79
-8.86
-8.93
-8.98
-8.92
-8.69
-8.28
-7.76
-7.21
-6.70
-6.23
-5.75
-5.17
-4.46
-3.67
-2.88
-2.22
-1.77
-1.52
-1.34
-1.09
-0.64
0.01
0.75
1.41
1.86
2.04
2.01
1.89
1.80
1.79
1.88
2.04
2.22
2.39
2.52
2.59
2.59
2.56
2.56
2.69
2.98
3.40
3.86
4.24
4.44
4.45
4.30
4.09
3.92
3.86
3.91
4.01
4.08
4.08
4.02
3.94
3.91
3.94
4.04
4.13
4.17
4.15
4.10
4.08
4.13
4.26
4.42
4.54
4.58
4.52
4.37
4.15
3.89
3.61
3.33
3.10
2.94
2.89
2.92
2.97
2.96
2.85
2.67
2.48
2.34
2.30
2.32
2.34
2.28
2.10
1.85
1.62
1.48
1.48
1.56
1.65
1.67
1.58
1.40
1.17
0.95
0.78
0.67
0.61
0.59
0.59
0.62
0.68
0.79
0.97
1.19
1.43
1.63
1.76
1.81
1.83
1.84
1.85
1.85
1.81
1.74
1.67
1.65
1.69
1.77
1.80
1.75
1.60
1.44
1.36
1.41
1.56
1.71
1.72
1.49
1.04
0.48
-0.01
-0.26
-0.18
0.17
0.66
1.06
1.21
1.10
0.80
0.49
0.35
0.45
0.76
1.14
1.46
1.62
1.59
1.43
1.22
1.01
0.84
0.71
0.61
0.54
0.52
0.54
0.59
0.66
0.72
0.74
0.72
0.63
0.48
0.31
0.15
0.07
0.14
0.37
0.73
1.16
1.57
1.89
2.08
2.09
1.89
1.49
0.96
0.42
0.01
-0.15
-0.08
0.17
0.46
0.70
0.84
0.89
0.87
0.81
0.75
0.72
0.75
0.83
0.92
0.90
0.69
0.31
-0.13
-0.46
-0.59
-0.50
-0.27
0.00
0.25
0.45
0.61
0.67
0.55
0.21
-0.33
-0.91
-1.35
-1.50
-1.34
-0.97
-0.52
-0.13
0.18
0.40
0.57
0.71
0.79
0.82
0.76
0.63
0.46
0.32
0.26
0.33
0.52
0.77
0.98
1.05
0.95
0.72
0.48
0.33
0.35
0.51
0.77
1.05
1.32
1.55
1.73
1.79
1.68
1.36
0.84
0.24
-0.31
-0.67
-0.78
-0.67
-0.43
-0.17
0.04
0.16
0.19
0.14
0.04
-0.06
-0.09
-0.01
0.18
0.44
0.65
0.74
0.66
0.45
0.24
0.15
0.21
0.39
0.58
0.68
0.64
0.48
0.28
0.12
0.04
0.04
0.09
0.12
0.15
0.19
0.27
0.41
0.58
0.70
0.73
0.64
0.48
0.33
0.24
0.20
0.17
0.06
-0.14
-0.40
-0.60
-0.63
-0.43
-0.04
0.39
0.67
0.67
0.37
-0.12
-0.61
-0.93
-1.00
-0.89
-0.71
-0.57
-0.46
-0.31
-0.08
0.23
0.51
0.64
0.53
0.24
-0.08
-0.30
-0.31
-0.12
0.19
0.51
0.77
0.92
0.95
0.88
0.74
0.59
0.47
0.41
0.36
0.30
0.17
-0.02
-0.21
-0.32
-0.31
-0.21
-0.13
-0.16
-0.38
-0.72
-1.06
-1.24
-1.19
-0.93
-0.60
-0.37
-0.35
-0.57
-0.94
-1.35
-1.69
-1.91
-2.00
-2.00
-1.94
-1.85
-1.80
-1.84
-2.03
-2.40
-2.93
-3.48
-3.85
-3.79
-3.17
-2.05
-0.75
0.28
0.64
0.13
-1.08
-2.57
-3.82
-4.42
-4.24
-3.45
-2.37
-1.38
-0.77
-0.66
-1.07
-1.92
-3.05
-4.29
-5.38
-6.09
-6.28
-5.95
-5.31
-4.65
-4.22
-4.06
-4.03
-3.91
-3.65
-3.47
-3.86
-5.29
-7.99
-11.70
-15.76
-19.34
-21.83
-23.06
-23.40
-23.53
-24.20
-25.94
-29.01
-33.35
-38.48
-43.43
-46.75
-46.92
-43.06
-35.55
-26.22
-17.79
-12.81
-12.56
-16.55
-22.91
-29.44
-34.69
-38.53
-41.90
-46.06
-51.78
-58.96
-66.80
-74.37
-81.20
-87.49
-93.95
-101.36
-109.93
-119.23
-128.53
-137.42
-146.18
-155.49
-165.45
-174.78
-180.43
-178.40
-165.33
-139.77
-102.70
-56.85
-5.47
48.46
102.34
153.53
199.07
236.09
262.75
279.17
287.45
290.84
292.37
293.77
295.35
296.66
297.38
297.94
299.33
302.61
308.19
315.58
323.37
329.48
331.52
327.17
314.77
293.66
264.37
228.49
188.04
144.69
99.20
51.38
0.87
-51.81
-104.34
-152.70
-192.23
-219.26
-232.56
-233.73
-226.39
-214.67
-201.72
-189.04
-176.81
-164.76
-152.99
-142.14
-132.96
-125.70
-119.81
-114.14
-107.56
-99.54
-90.36
-81.00
-72.56
-65.81
-60.80
-57.00
-53.50
-49.54
-44.74
-39.29
-33.74
-28.77
-24.85
-22.07
-20.15
-18.59
-16.93
-14.86
-12.42
-9.85
-7.50
-5.68
-4.46
-3.71
-3.15
-2.50
-1.61
-0.53
0.53
1.34
1.77
1.81
1.59
1.29
1.03
0.87
0.79
0.74
0.72
0.76
0.84
0.95
1.00
0.90
0.59
0.12
-0.42
-0.87
-1.12
-1.13
-0.94
-0.65
-0.40
-0.25
-0.21
-0.25
-0.28
-0.21
-0.04
0.19
0.39
0.47
0.42
0.25
0.07
-0.04
0.00
0.20
0.52
0.90
1.25
1.51
1.61
1.53
1.29
0.95
0.59
0.26
0.02
-0.10
-0.06
0.13
0.39
0.63
0.71
0.56
0.17
-0.37
-0.94
-1.42
-1.75
-1.94
-2.01
-2.00
-1.88
-1.64
-1.28
-0.85
-0.45
-0.17
-0.07
-0.13
-0.27
-0.38
-0.33
-0.06
0.46
1.16
1.95
2.71
3.31
3.66
3.70
3.41
2.82
2.05
1.25
0.58
0.18
0.06
0.14
0.27
0.29
0.11
-0.23
-0.63
-0.97
-1.17
-1.28
-1.36
-1.52
-1.78
-2.10
-2.36
-2.47
-2.39
-2.14
-1.81
-1.47
-1.18
-0.92
-0.67
-0.34
0.10
0.64
1.23
1.77
2.17
2.36
2.33
2.13
1.83
1.49
1.13
0.74
0.33
-0.04
-0.29
-0.35
-0.22
0.03
0.26
0.32
0.15
-0.22
-0.67
-1.08
-1.36
-1.51
-1.59
-1.66
-1.74
-1.79
-1.76
-1.58
-1.27
-0.92
-0.62
-0.47
-0.49
-0.64
-0.81
-0.89
-0.77
-0.39
0.24
1.07
2.01
2.91
3.61
3.96
3.87
3.35
2.52
1.60
0.83
0.37
0.28
0.46
0.72
0.88
0.82
0.55
0.14
-0.29
-0.67
-0.95
-1.14
-1.26
-1.32
-1.33
-1.33
-1.34
-1.38
-1.45
-1.51
-1.49
-1.33
-1.03
-0.61
-0.14
0.32
0.76
1.19
1.61
2.01
2.32
2.47
2.38
2.06
1.58
1.06
0.63
0.33
0.17
0.12
0.12
0.12
0.07
-0.08
-0.37
-0.81
-1.33
-1.88
-2.36
-2.70
-2.87
-2.86
-2.67
-2.32
-1.86
-1.39
-1.00
-0.78
-0.70
-0.68
-0.61
-0.44
-0.17
0.20
0.65
1.24
1.99
2.83
3.58
3.99
3.88
3.25
2.28
1.26
0.46
0.01
-0.14
-0.10
-0.00
0.05
0.03
-0.07
-0.24
-0.44
-0.66
-0.88
-1.11
-1.39
-1.73
-2.09
-2.37
-2.50
-2.45
-2.27
-2.05
-1.90
-1.80
-1.68
-1.46
-1.07
-0.57
-0.06
0.38
0.72
1.00
1.30
1.66
2.04
2.35
2.49
2.41
2.10
1.65
1.13
0.64
0.21
-0.08
-0.20
-0.16
0.00
0.20
0.32
0.31
0.17
-0.03
-0.21
-0.33
-0.43
-0.54
-0.72
-0.93
-1.12
-1.18
-1.10
-0.89
-0.63
-0.37
-0.13
0.12
0.42
0.76
1.10
1.39
1.61
1.78
1.95
2.15
2.38
2.57
2.60
2.40
1.95
1.33
0.67
0.11
-0.29
-0.52
-0.61
-0.62
-0.58
-0.54
-0.57
-0.74
-1.10
-1.62
-2.20
-2.68
-2.89
-2.79
-2.45
-2.03
-1.68
-1.49
-1.42
-1.40
-1.33
-1.15
-0.90
-0.65
-0.46
-0.35
-0.26
-0.11
0.19
0.63
1.10
1.47
1.62
1.52
1.24
0.91
0.62
0.41
0.24
0.01
-0.30
-0.64
-0.93
-1.07
-1.04
-0.90
-0.79
-0.82
-1.04
-1.44
-1.97
-2.62
-3.38
-4.29
-5.33
-6.45
-7.54
-8.48
-9.18
-9.61
-9.76
-9.65
-9.29
-8.70
-7.92
-6.99
-5.97
-4.95
-4.00
-3.26
-2.88
-3.04
-3.84
-5.27
-7.17
-9.25
-11.18
-12.75
-13.87
-14.66
-15.36
-16.16
-17.14
-18.19
-19.09
-19.69
-20.02
-20.34
-21.10
-22.71
-25.36
-28.87
-32.72
-36.25
-38.94
-40.59
-41.49
-42.27
-43.66
-46.30
-50.33
-55.37
-60.61
-65.03
-67.92
-69.25
-70.02
-71.80
-76.16
-83.45
-92.00
-98.18
-97.14
-84.23
-56.21
-12.31
45.22
110.90
176.46
232.12
268.59
279.41
262.56
220.75
160.35
89.40
15.73
-54.20
-115.37
-163.84
-196.56
-211.71
-209.23
-190.99
-160.40
-121.14
-76.02
-26.46
26.96
83.76
142.29
199.14
249.43
287.66
308.87
309.85
289.92
251.26
198.98
140.38
83.73
36.40
2.94
-15.91
-22.93
-22.76
-19.69
-16.15
-12.47
-7.87
-1.85
5.07
11.37
15.50
16.84
16.18
15.34
16.32
20.36
27.51
36.67
46.25
54.68
60.61
62.79
60.15
52.08
39.03
23.11
7.80
-3.08
-7.25
-5.42
-1.42
-0.59
-7.13
-21.96
-42.12
-62.33
-77.53
-85.21
-85.98
-82.54
-77.72
-72.97
-68.12
-62.16
-54.61
-46.24
-38.79
-33.95
-32.38
-33.32
-35.05
-35.74
-34.27
-30.70
-26.07
-21.78
-18.94
-17.90
-18.19
-18.84
-18.88
-17.75
-15.49
-12.59
-9.72
-7.36
-5.68
-4.55
-3.65
-2.67
-1.48
-0.09
1.30
2.49
3.35
3.92
4.38
5.05
6.20
7.95
10.11
12.13
13.30
12.94
10.69
6.73
1.73
-3.36
-7.71
-10.83
-12.67
-13.47
-13.56
-13.15
-12.33
-11.12
-9.64
-8.13
-6.85
-6.04
-5.74
-5.82
-6.07
-6.33
-6.55
-6.83
-7.29
-7.98
-8.81
-9.58
-10.01
-9.94
-9.32
-8.28
-7.03
-5.79
-4.69
-3.77
-2.97
-2.24
-1.54
-0.90
-0.38
-0.07
-0.04
-0.28
-0.68
-1.03
-1.16
-0.99
-0.56
-0.02
0.44
0.72
0.79
0.74
0.69
0.75
0.93
1.21
1.50
1.71
1.77
1.69
1.49
1.24
1.01
0.81
0.63
0.38
0.02
-0.44
-0.91
-1.23
-1.26
-0.97
-0.43
0.15
0.56
0.66
0.44
0.01
-0.46
-0.83
-1.06
-1.13
-1.10
-1.00
-0.84
-0.64
-0.42
-0.21
-0.03
0.13
0.29
0.47
0.64
0.73
0.68
0.49
0.24
0.05
0.04
0.23
0.53
0.81
0.95
0.92
0.77
0.59
0.48
0.42
0.39
0.29
0.10
-0.18
-0.48
-0.72
-0.83
-0.81
-0.71
-0.60
-0.56
-0.58
-0.59
-0.48
-0.18
0.29
0.81
1.19
1.31
1.13
0.74
0.31
-0.02
-0.15
-0.09
0.10
0.35
0.57
0.72
0.76
0.67
0.47
0.23
0.03
-0.05
0.05
0.29
0.59
0.83
0.91
0.82
0.62
0.44
0.34
0.36
0.40
0.35
0.13
-0.27
-0.73
-1.13
-1.36
-1.40
-1.31
-1.14
-0.94
-0.70
-0.42
-0.11
0.16
0.34
0.37
0.26
0.08
-0.11
-0.25
-0.30
-0.28
-0.22
-0.16
-0.08
0.03
0.21
0.49
0.84
1.22
1.54
1.71
1.68
1.45
1.06
0.58
0.13
-0.21
-0.37
-0.35
-0.19
0.02
0.17
0.21
0.13
0.03
-0.02
0.06
0.27
0.53
0.69
0.68
0.46
0.11
-0.24
-0.44
-0.45
-0.31
-0.15
-0.09
-0.17
-0.35
-0.53
-0.66
-0.72
-0.74
-0.73
-0.67
-0.52
-0.24
0.12
0.43
0.59
0.53
0.27
-0.06
-0.36
-0.51
-0.51
-0.38
-0.21
-0.10
-0.10
-0.26
-0.52
-0.84
-1.12
-1.29
-1.30
-1.14
-0.83
-0.44
-0.09
0.14
0.20
0.11
-0.07
-0.24
-0.33
-0.35
-0.34
-0.36
-0.45
-0.60
-0.73
-0.80
-0.75
-0.61
-0.41
-0.21
-0.05
0.03
0.01
-0.09
-0.22
-0.31
-0.29
-0.10
0.22
0.64
1.03
1.30
1.38
1.26
1.01
0.71
0.47
0.38
0.49
0.78
1.18
1.56
1.78
1.76
1.50
1.06
0.59
0.20
-0.03
-0.10
-0.07
-0.04
-0.12
-0.35
-0.71
-1.10
-1.42
-1.58
-1.55
-1.34
-1.04
-0.69
-0.36
-0.08
0.15
0.33
0.44
0.46
0.37
0.14
-0.21
-0.64
-1.06
-1.38
-1.50
-1.40
-1.09
-0.69
-0.30
-0.02
0.10
0.05
-0.15
-0.42
-0.67
-0.80
-0.78
-0.60
-0.35
-0.13
-0.03
-0.07
-0.18
-0.26
-0.25
-0.13
0.03
0.15
0.23
0.28
0.38
0.58
0.85
1.13
1.32
1.36
1.24
1.00
0.67
0.25
-0.21
-0.70
-1.13
-1.40
-1.45
-1.27
-0.91
-0.50
-0.16
0.07
0.19
0.26
0.37
0.54
0.79
1.06
1.30
1.46
1.51
1.43
1.22
0.89
0.44
-0.12
-0.77
-1.38
-1.83
-1.95
-1.65
-0.96
-0.05
0.82
1.43
1.61
1.36
0.82
0.17
-0.42
-0.81
-0.96
-0.88
-0.65
-0.39
-0.20
-0.18
-0.32
-0.56
-0.80
-0.96
-0.97
-0.80
-0.48
-0.07
0.36
0.71
0.92
0.97
0.90
0.80
0.70
0.63
0.54
0.35
0.04
-0.35
-0.72
-0.92
-0.88
-0.60
-0.17
0.26
0.56
0.64
0.56
0.44
0.44
0.63
0.96
1.26
1.32
1.05
0.53
-0.05
-0.46
-0.57
-0.45
-0.25
-0.13
-0.18
-0.33
-0.45
-0.45
-0.35
-0.23
-0.22
-0.34
-0.55
-0.72
-0.74
-0.58
-0.29
-0.01
0.16
0.16
0.03
-0.11
-0.14
0.02
0.31
0.60
0.75
0.67
0.39
0.02
-0.28
-0.40
-0.30
-0.08
0.14
0.26
0.21
0.04
-0.15
-0.28
-0.29
-0.21
-0.09
0.01
0.06
0.06
0.03
-0.02
-0.10
-0.20
-0.34
-0.49
-0.62
-0.67
-0.63
-0.49
-0.24
0.10
0.48
0.85
1.15
1.29
1.27
1.10
0.86
0.63
0.45
0.34
0.30
0.27
0.20
0.07
-0.06
-0.13
-0.03
0.31
0.86
1.46
1.91
2.00
1.68
1.05
0.32
-0.25
-0.52
-0.48
-0.26
0.01
0.21
0.31
0.33
0.29
0.19
0.01
-0.24
-0.51
-0.70
-0.74
-0.59
-0.31
0.06
0.45
0.80
1.10
1.30
1.35
1.19
0.83
0.37
-0.03
-0.22
-0.10
0.25
0.66
0.90
0.84
0.44
-0.18
-0.86
-1.42
-1.81
-2.06
-2.24
-2.41
-2.60
-2.78
-2.95
-3.15
-3.48
-4.03
-4.81
-5.74
-6.61
-7.17
-7.27
-6.89
-6.15
-5.20
-4.14
-3.03
-1.85
-0.66
0.41
1.19
1.61
1.71
1.72
1.90
2.45
3.38
4.54
5.69
6.64
7.28
7.57
7.55
7.22
6.60
5.71
4.62
3.42
2.24
1.19
0.35
-0.26
-0.64
-0.83
-0.88
-0.87
-0.84
-0.83
-0.84
-0.82
-0.70
-0.45
-0.08
0.34
0.70
0.92
0.96
0.88
0.72
0.54
0.33
0.05
-0.28
-0.60
-0.82
-0.86
-0.71
-0.46
-0.22
-0.08
-0.06
-0.13
-0.22
-0.27
-0.27
-0.22
-0.12
0.02
0.21
0.42
0.61
0.73
0.72
0.56
0.25
-0.15
-0.56
-0.84
-0.91
-0.73
-0.38
0.04
0.39
0.60
0.65
0.56
0.36
0.08
-0.25
-0.54
-0.75
-0.80
-0.68
-0.46
-0.22
-0.04
0.03
0.01
-0.07
-0.18
-0.31
-0.42
-0.50
-0.53
-0.51
-0.46
-0.39
-0.34
-0.33
-0.33
-0.34
-0.33
-0.31
-0.28
-0.26
-0.22
-0.15
-0.05
0.09
0.24
0.36
0.39
0.32
0.11
-0.19
-0.54
-0.86
-1.08
-1.14
-1.04
-0.81
-0.53
-0.29
-0.15
-0.09
-0.07
-0.05
-0.01
0.03
0.01
-0.05
-0.15
-0.19
-0.10
0.15
0.49
0.82
1.02
1.00
0.76
0.36
-0.10
-0.49
-0.69
-0.62
-0.32
0.12
0.51
0.72
0.66
0.42
0.17
0.09
0.26
0.65
1.11
1.45
1.57
1.49
1.28
1.06
0.86
0.70
0.53
0.38
0.28
0.31
0.48
0.77
1.07
1.23
1.17
0.87
0.41
-0.09
-0.53
-0.85
-1.03
-1.10
-1.11
-1.10
-1.10
-1.08
-1.01
-0.88
-0.72
-0.56
-0.48
-0.51
-0.62
-0.78
-0.90
-0.94
-0.87
-0.71
-0.50
-0.31
-0.20
-0.20
-0.32
-0.55
-0.84
-1.13
-1.34
-1.40
-1.26
-0.92
-0.42
0.16
0.72
1.20
1.51
1.63
1.53
1.23
0.77
0.24
-0.23
-0.55
-0.66
-0.61
-0.45
-0.25
-0.07
0.10
0.25
0.38
0.49
0.57
0.64
0.69
0.73
0.76
0.76
0.74
0.67
0.55
0.35
0.05
-0.32
-0.66
-0.85
-0.78
-0.45
0.07
0.59
0.97
1.12
1.06
0.88
0.69
0.58
0.57
0.64
0.75
0.82
0.85
0.83
0.77
0.69
0.60
0.50
0.36
0.17
-0.06
-0.30
-0.53
-0.73
-0.88
-0.97
-1.00
-0.97
-0.90
-0.84
-0.84
-0.92
-1.05
-1.17
-1.17
-0.98
-0.58
-0.04
0.52
0.98
1.23
1.26
1.12
0.86
0.57
0.29
0.07
-0.10
-0.21
-0.27
-0.32
-0.38
-0.46
-0.55
-0.64
-0.71
-0.76
-0.79
-0.79
-0.76
-0.67
-0.51
-0.31
-0.14
-0.12
-0.30
-0.66
-1.09
-1.37
-1.37
-1.03
-0.43
0.22
0.72
0.95
0.89
0.66
0.38
0.19
0.12
0.16
0.24
0.29
0.26
0.16
0.02
-0.12
-0.21
-0.21
-0.11
0.08
0.31
0.55
0.78
1.00
1.23
1.44
1.59
1.61
1.50
1.29
1.04
0.81
0.60
0.35
0.01
-0.40
-0.80
-1.06
-1.11
-0.95
-0.70
-0.49
-0.38
-0.37
-0.38
-0.32
-0.16
0.06
0.28
0.45
0.55
0.59
0.57
0.49
0.33
0.09
-0.21
-0.51
-0.73
-0.82
-0.82
-0.79
-0.80
-0.89
-1.00
-1.03
-0.88
-0.56
-0.15
0.20
0.39
0.40
0.33
0.29
0.39
0.64
0.94
1.18
1.25
1.12
0.86
0.59
0.38
0.31
0.36
0.47
0.59
0.63
0.59
0.46
0.30
0.15
0.01
-0.11
-0.23
-0.36
-0.44
-0.46
-0.38
-0.23
-0.08
0.01
0.01
-0.05
-0.09
-0.07
0.01
0.10
0.10
-0.04
-0.30
-0.59
-0.79
-0.79
-0.58
-0.20
0.25
0.65
0.92
1.05
1.06
0.97
0.83
0.65
0.44
0.21
0.00
-0.17
-0.28
-0.38
-0.50
-0.66
-0.83
-0.95
-0.93
-0.76
-0.46
-0.16
0.04
0.07
-0.03
-0.17
-0.26
-0.25
-0.13
0.05
0.24
0.39
0.44
0.35
0.15
-0.11
-0.35
-0.51
-0.54
-0.44
-0.25
-0.02
0.21
0.38
0.45
0.39
0.22
-0.02
-0.22
-0.34
-0.36
-0.34
-0.35
-0.41
-0.48
-0.48
-0.34
-0.04
0.37
0.75
1.01
1.07
0.94
0.68
0.34
0.02
-0.25
-0.43
-0.50
-0.47
-0.35
-0.17
0.02
0.16
0.21
0.14
-0.02
-0.20
-0.33
-0.35
-0.23
-0.01
0.24
0.44
0.52
0.47
0.32
0.16
0.07
0.11
0.28
0.53
0.77
0.91
0.92
0.82
0.69
0.59
0.56
0.57
0.58
0.53
0.41
0.22
0.00
-0.23
-0.45
-0.62
-0.74
-0.78
-0.75
-0.68
-0.60
-0.52
-0.46
-0.39
-0.32
-0.27
-0.28
-0.40
-0.58
-0.77
-0.86
-0.80
-0.63
-0.41
-0.23
-0.13
-0.14
-0.19
-0.22
-0.21
-0.13
-0.02
0.06
0.06
-0.05
-0.24
-0.48
-0.68
-0.79
-0.77
-0.62
-0.41
-0.20
-0.06
-0.03
-0.09
-0.19
-0.28
-0.32
-0.31
-0.27
-0.23
-0.18
-0.07
0.14
0.43
0.75
0.98
1.02
0.86
0.59
0.38
0.32
0.46
0.68
0.84
0.83
0.62
0.32
0.07
-0.01
0.09
0.30
0.49
0.55
0.45
0.23
0.01
-0.11
-0.11
0.01
0.17
0.31
0.39
0.39
0.32
0.16
-0.05
-0.29
-0.48
-0.58
-0.54
-0.37
-0.14
0.08
0.23
0.26
0.19
0.04
-0.18
-0.43
-0.66
-0.84
-0.93
-0.95
-0.93
-0.89
-0.85
-0.79
-0.68
-0.54
-0.39
-0.26
-0.18
-0.12
-0.00
0.24
0.63
1.13
1.63
1.99
2.09
1.91
1.48
0.92
0.36
-0.06
-0.27
-0.27
-0.13
0.04
0.11
0.04
-0.17
-0.44
-0.67
-0.77
-0.71
-0.52
-0.25
0.00
0.18
0.24
0.17
-0.05
-0.37
-0.71
-0.98
-1.09
-1.04
-0.84
-0.57
-0.29
-0.03
0.23
0.50
0.78
1.01
1.13
1.11
0.98
0.83
0.74
0.76
0.87
0.96
0.92
0.68
0.27
-0.17
-0.49
-0.57
-0.40
-0.09
0.21
0.38
0.37
0.22
-0.01
-0.23
-0.42
-0.56
-0.66
-0.73
-0.75
-0.71
-0.58
-0.37
-0.12
0.09
0.17
0.09
-0.12
-0.32
-0.37
-0.21
0.15
0.53
0.77
0.74
0.44
-0.02
-0.47
-0.76
-0.80
-0.58
-0.18
0.29
0.71
0.99
1.11
1.09
0.98
0.83
0.62
0.36
0.05
-0.25
-0.49
-0.63
-0.67
-0.66
-0.65
-0.67
-0.74
-0.84
-0.94
-0.99
-0.95
-0.78
-0.53
-0.24
-0.00
0.11
0.10
-0.01
-0.17
-0.31
-0.38
-0.37
-0.25
-0.04
0.20
0.38
0.39
0.22
-0.03
-0.24
-0.27
-0.15
0.03
0.12
0.06
-0.11
-0.27
-0.33
-0.27
-0.16
-0.12
-0.20
-0.36
-0.48
-0.44
-0.22
0.12
0.48
0.73
0.85
0.83
0.73
0.58
0.41
0.22
-0.01
-0.27
-0.54
-0.75
-0.87
-0.86
-0.71
-0.48
-0.20
0.09
0.36
0.62
0.83
0.97
0.97
0.82
0.51
0.12
-0.22
-0.40
-0.37
-0.13
0.25
0.65
1.00
1.23
1.33
1.32
1.23
1.10
0.94
0.77
0.58
0.37
0.17
0.01
-0.06
-0.06
-0.04
-0.05
-0.14
-0.28
-0.39
-0.39
-0.26
-0.06
0.10
0.11
-0.08
-0.43
-0.83
-1.18
-1.44
-1.60
-1.71
-1.78
-1.75
-1.55
-1.11
-0.45
0.31
0.99
1.41
1.50
1.30
0.93
0.54
0.24
0.05
-0.05
-0.09
-0.10
-0.06
0.04
0.20
0.36
0.48
0.51
0.45
0.35
0.26
0.20
0.17
0.13
0.06
-0.06
-0.21
-0.36
-0.48
-0.57
-0.67
-0.79
-0.91
-0.98
-0.95
-0.78
-0.52
-0.24
-0.02
0.09
0.10
0.05
-0.04
-0.15
-0.29
-0.46
-0.62
-0.71
-0.70
-0.58
-0.37
-0.14
0.06
0.23
0.36
0.46
0.54
0.61
0.67
0.73
0.82
0.90
0.94
0.89
0.70
0.39
0.00
-0.38
-0.68
-0.82
-0.77
-0.55
-0.22
0.13
0.42
0.63
0.74
0.77
0.77
0.74
0.70
0.64
0.54
0.43
0.31
0.18
0.05
-0.10
-0.26
-0.42
-0.55
-0.63
-0.62
-0.53
-0.37
-0.16
0.05
0.21
0.28
0.25
0.13
-0.02
-0.16
-0.24
-0.25
-0.23
-0.18
-0.11
0.02
0.23
0.52
0.82
1.05
1.13
1.04
0.82
0.56
0.34
0.22
0.19
0.20
0.20
0.15
0.03
-0.14
-0.32
-0.46
-0.50
-0.43
-0.24
-0.00
0.18
0.23
0.09
-0.20
-0.56
-0.88
-1.08
-1.12
-1.03
-0.82
-0.54
-0.21
0.10
0.35
0.46
0.40
0.19
-0.12
-0.39
-0.50
-0.38
-0.04
0.41
0.84
1.10
1.14
0.99
0.75
0.52
0.33
0.15
-0.06
-0.30
-0.51
-0.61
-0.53
-0.30
-0.01
0.25
0.42
0.52
0.60
0.69
0.80
0.87
0.84
0.68
0.43
0.14
-0.13
-0.33
-0.46
-0.51
-0.50
-0.44
-0.37
-0.32
-0.33
-0.40
-0.49
-0.53
-0.46
-0.29
-0.03
0.22
0.40
0.47
0.42
0.27
0.04
-0.23
-0.48
-0.67
-0.78
-0.80
-0.75
-0.67
-0.57
-0.45
-0.29
-0.11
0.09
0.27
0.37
0.35
0.22
0.02
-0.17
-0.25
-0.14
0.14
0.51
0.86
1.07
1.08
0.94
0.74
0.57
0.45
0.35
0.24
0.14
0.10
0.18
0.39
0.65
0.86
0.92
0.78
0.51
0.20
-0.05
-0.19
-0.23
-0.20
-0.16
-0.10
-0.05
0.02
0.10
0.14
0.11
-0.01
-0.21
-0.40
-0.51
-0.46
-0.27
-0.05
0.06
-0.03
-0.33
-0.70
-0.99
-1.09
-1.01
-0.86
-0.79
-0.87
-1.09
-1.33
-1.45
-1.35
-1.02
-0.53
0.03
0.53
0.89
1.09
1.14
1.07
0.94
0.77
0.59
0.41
0.28
0.24
0.31
0.47
0.63
0.72
0.68
0.55
0.37
0.22
0.12
0.05
-0.03
-0.14
-0.27
-0.38
-0.45
-0.47
-0.47
-0.50
-0.60
-0.77
-0.97
-1.14
-1.23
-1.19
-1.05
-0.85
-0.64
-0.47
-0.34
-0.22
-0.08
0.10
0.32
0.50
0.60
0.58
0.46
0.27
0.11
0.02
0.08
0.29
0.62
0.99
1.31
1.48
1.44
1.22
0.90
0.57
0.29
0.08
-0.08
-0.23
-0.35
-0.37
-0.26
-0.02
0.25
0.45
0.46
0.27
-0.07
-0.45
-0.73
-0.85
-0.78
-0.58
-0.33
-0.14
-0.09
-0.22
-0.48
-0.78
-0.98
-0.99
-0.81
-0.54
-0.29
-0.14
-0.11
-0.12
-0.10
-0.00
0.15
0.30
0.37
0.32
0.18
-0.02
-0.21
-0.33
-0.36
-0.30
-0.15
0.02
0.17
0.26
0.29
0.30
0.34
0.45
0.61
0.79
0.92
0.95
0.90
0.79
0.67
0.57
0.47
0.34
0.16
-0.06
-0.27
-0.41
-0.42
-0.34
-0.23
-0.15
-0.13
-0.15
-0.13
-0.01
0.21
0.47
0.69
0.82
0.84
0.79
0.72
0.65
0.55
0.37
0.10
-0.23
-0.53
-0.69
-0.66
-0.50
-0.38
-0.55
-1.20
-2.34
-3.79
-5.20
-6.27
-6.86
-7.14
-7.48
-8.26
-9.67
-11.62
-13.76
-15.65
-16.99
-17.74
-18.14
-18.57
-19.36
-20.58
-21.99
-23.12
-23.48
-22.82
-21.20
-19.02
-16.79
-14.97
-13.87
-13.72
-14.74
-16.82
-19.30
-20.65
-18.88
-12.35
-0.76
14.29
29.72
42.19
49.48
51.28
49.06
44.97
40.74
37.10
33.91
30.90
28.18
26.26
25.61
26.12
26.94
26.82
24.76
20.50
14.76
8.86
4.16
1.45
0.74
1.39
2.50
3.32
3.52
3.14
2.41
1.59
0.81
0.10
-0.59
-1.32
-2.13
-3.02
-3.94
-4.83
-5.56
-6.05
-6.25
-6.22
-6.10
-5.99
-5.97
-6.03
-6.13
-6.22
-6.31
-6.40
-6.52
-6.64
-6.65
-6.47
-6.02
-5.30
-4.43
-3.56
-2.83
-2.32
-2.05
-1.98
-2.06
-2.24
-2.46
-2.60
-2.57
-2.29
-1.79
-1.18
-0.63
-0.26
-0.14
-0.23
-0.46
-0.74
-0.99
-1.16
-1.19
-1.09
-0.86
-0.54
-0.20
0.11
0.36
0.54
0.66
0.69
0.62
0.49
0.34
0.28
0.35
0.51
0.65
0.65
0.43
0.05
-0.39
-0.73
-0.93
-1.03
-1.12
-1.26
-1.44
-1.54
-1.45
-1.16
-0.73
-0.34
-0.13
-0.16
-0.37
-0.63
-0.83
-0.90
-0.87
-0.85
-0.95
-1.26
-1.79
-2.46
-3.16
-3.75
-4.13
-4.29
-4.28
-4.22
-4.23
-4.39
-4.76
-5.34
-6.13
-7.11
-8.18
-9.19
-9.96
-10.37
-10.43
-10.26
-10.12
-10.21
-10.65
-11.39
-12.31
-13.29
-14.32
-15.50
-16.97
-18.84
-21.05
-23.45
-25.85
-28.14
-30.40
-32.85
-35.74
-39.16
-42.94
-46.69
-50.00
-52.67
-54.94
-57.41
-60.83
-65.70
-72.04
-79.30
-86.67
-93.46
-99.39
-104.70
-109.94
-115.64
-122.12
-129.60
-138.28
-148.43
-159.98
-171.89
-181.87
-186.52
-182.39
-167.19
-140.68
-104.51
-61.27
-13.33
37.61
89.94
141.17
187.44
224.10
247.45
256.35
253.02
242.10
228.76
216.77
207.58
200.59
194.34
187.77
180.74
173.89
168.10
163.93
161.42
160.27
160.00
160.20
160.66
161.30
162.07
162.96
164.07
165.69
168.39
172.80
179.21
187.09
194.60
198.74
195.95
183.14
158.80
123.61
80.49
33.90
-11.36
-51.39
-83.99
-108.85
-126.95
-139.64
-147.83
-151.79
-151.48
-147.23
-140.27
-132.55
-126.12
-122.26
-120.88
-120.75
-120.17
-117.91
-113.60
-107.75
-101.16
-94.45
-87.74
-80.80
-73.36
-65.48
-57.63
-50.57
-44.96
-41.07
-38.64
-37.03
-35.54
-33.74
-31.64
-29.57
-27.92
-26.93
-26.50
-26.25
-25.67
-24.34
-22.10
-19.02
-15.38
-11.49
-7.61
-3.84
-0.23
3.20
6.36
9.08
11.19
12.63
13.50
14.00
14.33
14.57
14.59
14.14
13.08
11.42
9.47
7.62
6.23
5.42
5.08
4.91
4.60
4.03
3.22
2.35
1.58
0.99
0.53
0.14
-0.21
-0.45
-0.50
-0.35
-0.16
-0.23
-0.89
-2.32
-4.46
-7.00
-9.52
-11.69
-13.36
-14.60
-15.59
-16.45
-17.14
-17.46
-17.21
-16.30
-14.88
-13.31
-11.96
-11.06
-10.62
-10.44
-10.22
-9.69
-8.61
-6.84
-4.27
-0.92
3.03
7.23
11.19
14.49
16.89
18.33
18.93
18.77
17.88
16.24
13.90
11.08
8.16
5.58
3.63
2.40
1.71
1.27
0.80
0.08
-0.92
-2.16
-3.43
-4.50
-5.17
-5.30
-4.93
-4.28
-3.65
-3.30
-3.34
-3.69
-4.14
-4.47
-4.58
-4.49
-4.33
-4.18
-4.10
-4.06
-4.07
-4.14
-4.35
-4.72
-5.21
-5.71
-6.03
-6.02
-5.63
-4.94
-4.11
-3.29
-2.60
-2.11
-1.81
-1.66
-1.57
-1.43
-1.08
-0.44
0.44
1.42
2.25
2.71
2.71
2.33
1.76
1.23
0.89
0.79
0.88
1.08
1.30
1.48
1.54
1.42
1.08
0.53
-0.15
-0.82
-1.34
-1.63
-1.67
-1.50
-1.23
-0.94
-0.70
-0.53
-0.42
-0.35
-0.31
-0.31
-0.37
-0.50
-0.70
-0.89
-1.03
-1.06
-1.00
-0.90
-0.83
-0.79
-0.76
-0.68
-0.55
-0.41
-0.35
-0.38
-0.49
-0.57
-0.54
-0.38
-0.13
0.12
0.32
0.45
0.59
0.76
0.95
1.08
1.06
0.83
0.44
0.05
-0.21
-0.24
-0.06
0.21
0.45
0.60
0.66
0.68
0.71
0.73
0.72
0.62
0.44
0.23
0.07
-0.01
-0.00
0.05
0.10
0.12
0.09
-0.01
-0.17
-0.38
-0.60
-0.75
-0.76
-0.63
-0.39
-0.12
0.10
0.21
0.19
0.06
-0.13
-0.32
-0.41
-0.33
-0.04
0.40
0.86
1.19
1.27
1.12
0.84
0.56
0.39
0.32
0.31
0.32
0.35
0.43
0.60
0.87
1.15
1.35
1.37
1.19
0.85
0.46
0.16
0.05
0.18
0.49
0.85
1.12
1.20
1.07
0.79
0.48
0.24
0.08
-0.01
-0.09
-0.18
-0.29
-0.37
-0.41
-0.43
-0.48
-0.60
-0.81
-1.08
-1.34
-1.51
-1.53
-1.37
-1.10
-0.79
-0.55
-0.42
-0.42
-0.46
-0.49
-0.42
-0.26
-0.06
0.09
0.13
0.04
-0.14
-0.35
-0.50
-0.59
-0.58
-0.50
-0.36
-0.17
0.02
0.19
0.26
0.22
0.06
-0.18
-0.39
-0.52
-0.53
-0.44
-0.33
-0.26
-0.30
-0.42
-0.55
-0.59
-0.50
-0.29
-0.03
0.18
0.28
0.25
0.15
0.06
0.00
0.01
0.06
0.14
0.20
0.27
0.32
0.32
0.24
0.08
-0.17
-0.46
-0.71
-0.88
-0.92
-0.83
-0.60
-0.25
0.18
0.59
0.86
0.92
0.75
0.46
0.20
0.10
0.19
0.39
0.56
0.58
0.41
0.13
-0.15
-0.29
-0.24
0.01
0.42
0.90
1.33
1.62
1.72
1.61
1.38
1.12
0.92
0.85
0.88
0.95
0.95
0.79
0.45
-0.03
-0.59
-1.12
-1.53
-1.77
-1.80
-1.67
-1.45
-1.21
-0.99
-0.80
-0.59
-0.35
-0.09
0.13
0.26
0.30
0.29
0.32
0.44
0.64
0.83
0.92
0.86
0.68
0.48
0.36
0.34
0.39
0.43
0.39
0.26
0.06
-0.15
-0.32
-0.43
-0.47
-0.45
-0.36
-0.23
-0.07
0.07
0.13
0.05
-0.18
-0.55
-0.98
-1.35
-1.56
-1.53
-1.28
-0.91
-0.55
-0.34
-0.29
-0.36
-0.40
-0.33
-0.11
0.19
0.50
0.73
0.88
0.96
0.98
0.92
0.75
0.48
0.14
-0.18
-0.38
-0.42
-0.32
-0.13
0.05
0.17
0.18
0.06
-0.15
-0.37
-0.51
-0.51
-0.33
-0.06
0.21
0.41
0.50
0.50
0.47
0.44
0.40
0.32
0.20
0.07
0.01
0.07
0.26
0.49
0.64
0.61
0.37
0.02
-0.27
-0.37
-0.24
0.05
0.34
0.49
0.45
0.30
0.14
0.06
0.06
0.07
-0.01
-0.24
-0.55
-0.82
-0.96
-0.92
-0.75
-0.53
-0.32
-0.13
0.09
0.35
0.62
0.82
0.85
0.71
0.46
0.22
0.07
0.01
-0.03
-0.15
-0.37
-0.64
-0.87
-0.97
-0.92
-0.80
-0.66
-0.53
-0.41
-0.22
0.06
0.42
0.76
0.96
0.97
0.82
0.63
0.50
0.52
0.67
0.84
0.92
0.84
0.62
0.32
0.04
-0.17
-0.31
-0.40
-0.49
-0.61
-0.74
-0.87
-0.99
-1.10
-1.16
-1.13
-0.97
-0.63
-0.18
0.29
0.65
0.78
0.66
0.40
0.14
0.00
0.04
0.19
0.36
0.48
0.55
0.63
0.74
0.88
0.96
0.90
0.65
0.25
-0.16
-0.47
-0.56
-0.46
-0.25
-0.08
-0.03
-0.12
-0.24
-0.27
-0.11
0.25
0.68
1.00
1.08
0.87
0.43
-0.08
-0.54
-0.84
-0.95
-0.87
-0.63
-0.28
0.14
0.53
0.83
0.98
0.98
0.81
0.48
0.01
-0.55
-1.09
-1.50
-1.66
-1.53
-1.18
-0.73
-0.32
-0.05
0.08
0.14
0.21
0.31
0.46
0.59
0.65
0.59
0.41
0.12
-0.18
-0.40
-0.47
-0.37
-0.17
0.04
0.15
0.13
0.03
-0.06
-0.08
-0.04
-0.03
-0.11
-0.26
-0.41
-0.45
-0.31
-0.03
0.24
0.39
0.38
0.28
0.18
0.20
0.34
0.51
0.59
0.50
0.23
-0.11
-0.40
-0.52
-0.47
-0.30
-0.12
0.01
0.05
0.05
0.06
0.08
0.11
0.15
0.18
0.26
0.41
0.63
0.86
1.01
1.00
0.80
0.44
0.00
-0.41
-0.71
-0.87
-0.87
-0.76
-0.60
-0.46
-0.38
-0.34
-0.33
-0.31
-0.24
-0.09
0.13
0.40
0.65
0.81
0.82
0.71
0.55
0.46
0.50
0.63
0.76
0.77
0.61
0.32
0.03
-0.16
-0.22
-0.19
-0.16
-0.20
-0.30
-0.41
-0.44
-0.35
-0.14
0.09
0.24
0.23
0.05
-0.23
-0.50
-0.66
-0.66
-0.52
-0.32
-0.12
0.03
0.12
0.14
0.12
0.03
-0.13
-0.37
-0.66
-0.94
-1.10
-1.07
-0.82
-0.41
0.01
0.30
0.38
0.29
0.09
-0.09
-0.19
-0.17
-0.06
0.08
0.20
0.25
0.18
0.03
-0.17
-0.33
-0.41
-0.42
-0.45
-0.60
-0.91
-1.32
-1.67
-1.78
-1.57
-1.07
-0.42
0.21
0.67
0.90
0.91
0.75
0.50
0.24
0.06
0.04
0.21
0.52
0.89
1.16
1.23
1.08
0.78
0.45
0.21
0.09
0.05
0.05
0.02
-0.03
-0.09
-0.12
-0.12
-0.08
-0.02
0.06
0.14
0.23
0.31
0.37
0.39
0.38
0.32
0.21
0.05
-0.13
-0.29
-0.37
-0.35
-0.23
-0.08
0.07
0.18
0.27
0.35
0.37
0.28
0.05
-0.25
-0.52
-0.62
-0.49
-0.20
0.13
0.35
0.43
0.41
0.41
0.51
0.70
0.90
1.03
1.03
0.92
0.76
0.58
0.39
0.18
-0.02
-0.18
-0.26
-0.25
-0.19
-0.17
-0.27
-0.50
-0.80
-1.08
-1.24
-1.27
-1.22
-1.19
-1.22
-1.28
-1.28
-1.12
-0.79
-0.40
-0.08
0.08
0.13
0.17
0.34
0.71
1.18
1.60
1.81
1.74
1.44
1.02
0.61
0.31
0.16
0.15
0.26
0.41
0.51
0.51
0.38
0.16
-0.09
-0.28
-0.37
-0.36
-0.31
-0.27
-0.30
-0.42
-0.62
-0.86
-1.08
-1.22
-1.24
-1.11
-0.84
-0.49
-0.12
0.22
0.46
0.60
0.67
0.71
0.77
0.88
1.00
1.07
1.08
1.01
0.94
0.95
1.06
1.23
1.35
1.30
1.02
0.55
-0.01
-0.52
-0.91
-1.17
-1.31
-1.35
-1.28
-1.09
-0.77
-0.41
-0.11
0.02
-0.06
-0.26
-0.43
-0.45
-0.31
-0.11
0.01
-0.06
-0.26
-0.46
-0.49
-0.28
0.07
0.39
0.53
0.43
0.19
-0.06
-0.18
-0.16
-0.07
-0.01
-0.05
-0.18
-0.34
-0.45
-0.46
-0.38
-0.26
-0.15
-0.06
0.03
0.10
0.16
0.17
0.13
0.08
0.05
0.11
0.23
0.34
0.38
0.29
0.10
-0.11
-0.25
-0.31
-0.29
-0.28
-0.30
-0.33
-0.32
-0.25
-0.11
0.04
0.12
0.05
-0.16
-0.46
-0.76
-0.97
-1.07
-1.05
-0.94
-0.74
-0.46
-0.09
0.33
0.72
0.98
1.03
0.84
0.50
0.15
-0.07
-0.11
0.01
0.18
0.31
0.33
0.25
0.12
0.02
-0.01
0.02
0.07
0.09
0.05
-0.05
-0.18
-0.32
-0.44
-0.52
-0.53
-0.45
-0.25
0.11
0.61
1.17
1.66
1.93
1.94
1.72
1.39
1.05
0.78
0.56
0.35
0.10
-0.20
-0.51
-0.75
-0.87
-0.84
-0.66
-0.37
-0.04
0.25
0.42
0.44
0.34
0.18
0.05
0.00
0.02
0.08
0.14
0.16
0.14
0.11
0.05
-0.04
-0.19
-0.40
-0.62
-0.77
-0.79
-0.67
-0.48
-0.33
-0.32
-0.48
-0.71
-0.87
-0.87
-0.68
-0.41
-0.18
-0.10
-0.18
-0.31
-0.41
-0.40
-0.25
-0.04
0.16
0.29
0.33
0.31
0.28
0.26
0.26
0.24
0.15
-0.03
-0.29
-0.57
-0.78
-0.85
-0.79
-0.64
-0.47
-0.32
-0.23
-0.17
-0.08
0.07
0.29
0.53
0.74
0.84
0.81
0.68
0.49
0.31
0.21
0.23
0.34
0.50
0.62
0.63
0.52
0.31
0.07
-0.12
-0.18
-0.13
0.00
0.16
0.30
0.40
0.47
0.50
0.52
0.52
0.48
0.40
0.26
0.04
-0.27
-0.62
-0.92
-1.10
-1.10
-0.96
-0.78
-0.64
-0.58
-0.57
-0.52
-0.35
-0.04
0.36
0.73
0.96
1.01
0.91
0.78
0.72
0.80
0.96
1.08
1.02
0.73
0.26
-0.24
-0.65
-0.90
-1.02
-1.10
-1.20
-1.32
-1.40
-1.37
-1.21
-0.97
-0.74
-0.59
-0.55
-0.60
-0.68
-0.73
-0.71
-0.62
-0.47
-0.27
-0.05
0.22
0.53
0.88
1.22
1.48
1.59
1.52
1.30
1.01
0.73
0.50
0.30
0.07
-0.26
-0.70
-1.18
-1.56
-1.69
-1.51
-1.03
-0.40
0.18
0.53
0.63
0.55
0.46
0.49
0.68
0.92
1.06
0.98
0.66
0.22
-0.17
-0.35
-0.29
-0.05
0.24
0.42
0.40
0.18
-0.14
-0.43
-0.54
-0.45
-0.19
0.12
0.36
0.48
0.50
0.52
0.61
0.84
1.14
1.43
1.56
1.42
1.01
0.37
-0.34
-0.97
-1.34
-1.37
-1.10
-0.64
-0.17
0.14
0.21
0.08
-0.14
-0.30
-0.30
-0.13
0.11
0.33
0.44
0.40
0.26
0.08
-0.08
-0.20
-0.31
-0.39
-0.46
-0.50
-0.50
-0.50
-0.50
-0.51
-0.48
-0.35
-0.10
0.26
0.63
0.92
1.04
1.01
0.88
0.73
0.62
0.54
0.42
0.20
-0.13
-0.49
-0.76
-0.83
-0.67
-0.34
0.01
0.24
0.30
0.23
0.11
0.04
0.04
0.06
0.04
-0.06
-0.22
-0.35
-0.39
-0.29
-0.06
0.20
0.41
0.48
0.36
0.08
-0.25
-0.51
-0.55
-0.35
0.07
0.57
0.99
1.20
1.15
0.86
0.40
-0.09
-0.52
-0.79
-0.83
-0.65
-0.29
0.16
0.54
0.74
0.67
0.38
-0.01
-0.33
-0.43
-0.25
0.14
0.57
0.84
0.84
0.56
0.12
-0.31
-0.58
-0.64
-0.52
-0.32
-0.08
0.19
0.50
0.85
1.15
1.31
1.26
1.02
0.70
0.40
0.19
0.04
-0.12
-0.32
-0.50
-0.60
-0.58
-0.47
-0.37
-0.36
-0.46
-0.64
-0.83
-0.99
-1.13
-1.24
-1.33
-1.33
-1.21
-0.94
-0.60
-0.27
-0.04
0.06
0.07
0.08
0.14
0.25
0.38
0.47
0.48
0.39
0.22
-0.01
-0.23
-0.41
-0.51
-0.51
-0.46
-0.36
-0.26
-0.13
0.02
0.21
0.38
0.48
0.47
0.39
0.28
0.24
0.30
0.43
0.56
0.60
0.54
0.40
0.27
0.20
0.24
0.36
0.51
0.66
0.75
0.78
0.75
0.67
0.56
0.41
0.22
0.01
-0.18
-0.30
-0.31
-0.25
-0.19
-0.21
-0.38
-0.62
-0.82
-0.85
-0.65
-0.31
0.01
0.17
0.09
-0.16
-0.44
-0.61
-0.59
-0.37
-0.02
0.35
0.64
0.77
0.67
0.37
-0.08
-0.59
-1.07
-1.43
-1.60
-1.54
-1.24
-0.78
-0.30
0.02
0.05
-0.21
-0.64
-1.02
-1.22
-1.18
-0.98
-0.76
-0.61
-0.55
-0.54
-0.51
-0.41
-0.24
-0.03
0.21
0.46
0.73
1.01
1.25
1.43
1.51
1.49
1.37
1.18
0.95
0.71
0.49
0.31
0.20
0.16
0.13
0.09
-0.01
-0.14
-0.24
-0.24
-0.15
-0.03
0.03
-0.07
-0.28
-0.49
-0.55
-0.35
0.05
0.53
0.88
0.99
0.81
0.41
-0.08
-0.52
-0.85
-1.06
-1.17
-1.21
-1.19
-1.08
-0.83
-0.43
0.07
0.56
0.89
0.99
0.90
0.78
0.78
0.97
1.29
1.54
1.54
1.24
0.74
0.24
-0.08
-0.13
0.03
0.29
0.52
0.64
0.63
0.49
0.22
-0.16
-0.62
-1.07
-1.40
-1.52
-1.42
-1.16
-0.88
-0.67
-0.61
-0.68
-0.78
-0.81
-0.69
-0.43
-0.11
0.16
0.31
0.34
0.31
0.29
0.33
0.41
0.51
0.58
0.62
0.65
0.70
0.74
0.70
0.50
0.15
-0.27
-0.60
-0.69
-0.49
-0.05
0.46
0.89
1.10
1.06
0.78
0.33
-0.19
-0.68
-1.01
-1.12
-1.01
-0.77
-0.55
-0.46
-0.55
-0.74
-0.92
-0.98
-0.90
-0.71
-0.47
-0.25
-0.06
0.12
0.29
0.43
0.48
0.45
0.33
0.21
0.15
0.18
0.32
0.51
0.70
0.81
0.80
0.64
0.37
0.05
-0.19
-0.30
-0.22
0.01
0.30
0.54
0.63
0.52
0.24
-0.14
-0.49
-0.67
-0.61
-0.29
0.22
0.75
1.15
1.28
1.14
0.81
0.43
0.12
-0.02
0.01
0.17
0.40
0.62
0.76
0.77
0.66
0.47
0.26
0.11
0.05
0.05
0.05
-0.02
-0.20
-0.47
-0.76
-0.99
-1.11
-1.10
-0.98
-0.79
-0.58
-0.37
-0.16
0.04
0.19
0.25
0.14
-0.18
-0.67
-1.19
-1.57
-1.68
-1.50
-1.15
-0.78
-0.52
-0.42
-0.41
-0.40
-0.31
-0.13
0.10
0.35
0.58
0.79
0.95
1.00
0.93
0.74
0.48
0.23
0.08
0.05
0.11
0.20
0.26
0.28
0.27
0.28
0.35
0.48
0.65
0.77
0.80
0.74
0.67
0.69
0.85
1.09
1.26
1.18
0.77
0.13
-0.56
-1.06
-1.27
-1.21
-0.99
-0.77
-0.60
-0.47
-0.36
-0.25
-0.20
-0.25
-0.45
-0.72
-0.98
-1.14
-1.15
-1.06
-0.93
-0.80
-0.71
-0.63
-0.53
-0.40
-0.22
0.01
0.26
0.54
0.85
1.15
1.39
1.47
1.34
0.98
0.46
-0.10
-0.58
-0.87
-0.97
-0.92
-0.79
-0.61
-0.41
-0.19
0.05
0.29
0.47
0.54
0.49
0.36
0.23
0.20
0.32
0.61
1.00
1.37
1.59
1.61
1.41
1.06
0.70
0.41
0.24
0.20
0.22
0.24
0.27
0.29
0.34
0.42
0.51
0.56
0.51
0.36
0.11
-0.19
-0.50
-0.75
-0.92
-1.01
-1.05
-1.08
-1.11
-1.17
-1.22
-1.23
-1.17
-1.02
-0.75
-0.38
0.03
0.41
0.66
0.69
0.48
0.12
-0.23
-0.44
-0.43
-0.25
-0.03
0.12
0.16
0.15
0.18
0.32
0.54
0.77
0.92
0.94
0.83
0.65
0.47
0.30
0.16
0.05
-0.06
-0.16
-0.27
-0.36
-0.41
-0.40
-0.33
-0.26
-0.24
-0.31
-0.47
-0.65
-0.76
-0.78
-0.72
-0.63
-0.58
-0.57
-0.57
-0.56
-0.47
-0.32
-0.09
0.20
0.55
0.93
1.30
1.59
1.75
1.73
1.54
1.23
0.87
0.57
0.43
0.51
0.79
1.18
1.57
1.85
2.01
2.08
2.13
2.21
2.28
2.32
2.30
2.27
2.32
2.52
2.83
3.13
3.25
3.09
2.71
2.26
1.96
1.93
2.12
2.38
2.55
2.56
2.43
2.24
2.01
1.64
1.01
0.04
-1.20
-2.49
-3.57
-4.28
-4.58
-4.60
-4.47
-4.26
-4.02
-3.73
-3.42
-3.17
-3.03
-3.05
-3.16
-3.29
-3.31
-3.17
-2.83
-2.30
-1.62
-0.84
-0.02
0.77
1.47
2.05
2.49
2.82
3.05
3.19
3.22
3.12
2.83
2.35
1.71
0.98
0.26
-0.30
-0.64
-0.78
-0.81
-0.89
-1.09
-1.34
-1.49
-1.39
-1.03
-0.55
-0.20
-0.14
-0.36
-0.66
-0.80
-0.63
-0.22
0.28
0.67
0.93
1.12
1.34
1.63
1.88
1.94
1.70
1.15
0.41
-0.36
-1.03
-1.51
-1.78
-1.81
-1.62
-1.29
-0.96
-0.79
-0.91
-1.33
-1.92
-2.50
-2.91
-3.05
-2.96
-2.75
-2.56
-2.46
-2.48
-2.53
-2.50
-2.33
-1.98
-1.52
-1.09
-0.77
-0.60
-0.53
-0.44
-0.27
-0.03
0.20
0.31
0.28
0.16
0.10
0.18
0.40
0.66
0.82
0.82
0.65
0.41
0.19
0.05
-0.00
-0.01
-0.01
-0.05
-0.13
-0.30
-0.56
-0.91
-1.32
-1.73
-2.08
-2.34
-2.51
-2.64
-2.80
-3.02
-3.32
-3.62
-3.90
-4.15
-4.44
-4.90
-5.59
-6.49
-7.48
-8.36
-8.96
-9.24
-9.30
-9.35
-9.68
-10.49
-11.90
-13.82
-16.03
-18.24
-20.24
-22.02
-23.85
-26.22
-29.55
-34.04
-39.45
-45.20
-50.58
-55.16
-58.99
-62.67
-67.07
-72.94
-80.48
-89.22
-98.21
-106.45
-113.41
-119.33
-125.13
-132.04
-141.07
-152.74
-166.95
-183.04
-199.79
-215.29
-227.02
-232.05
-227.84
-213.05
-188.06
-154.89
-116.36
-74.81
-31.37
13.97
61.34
109.65
155.97
196.02
225.67
242.65
247.51
243.25
234.01
223.40
213.47
204.63
196.38
188.25
180.34
173.20
167.41
163.13
160.02
157.46
154.95
152.29
149.53
146.92
144.68
142.98
142.01
141.99
143.13
145.50
148.85
152.65
156.24
159.05
160.90
162.07
163.19
164.98
168.10
173.04
180.05
188.83
198.23
206.18
209.80
206.24
193.60
171.60
141.67
106.17
67.31
26.17
-17.32
-63.50
-111.57
-158.74
-200.51
-232.05
-250.20
-254.76
-248.50
-235.88
-221.14
-206.92
-193.82
-181.25
-168.56
-155.87
-144.07
-134.11
-126.29
-119.93
-113.75
-106.59
-98.00
-88.40
-78.85
-70.49
-63.98
-59.25
-55.64
-52.24
-48.28
-43.46
-38.00
-32.52
-27.69
-23.94
-21.31
-19.44
-17.77
-15.83
-13.44
-10.78
-8.27
-6.29
-5.02
-4.34
-3.94
-3.44
-2.62
-1.51
-0.32
0.68
1.26
1.35
1.04
0.52
0.02
-0.29
-0.32
-0.15
0.11
0.30
0.33
0.22
0.06
-0.05
-0.06
-0.01
0.04
0.05
0.02
0.03
0.14
0.34
0.56
0.67
0.58
0.26
-0.17
-0.56
-0.78
-0.77
-0.57
-0.26
0.07
0.35
0.57
0.71
0.76
0.69
0.49
0.17
-0.19
-0.49
-0.61
-0.46
-0.04
0.59
1.26
1.81
2.10
2.06
1.72
1.17
0.55
-0.04
-0.48
-0.72
-0.76
-0.61
-0.33
0.01
0.33
0.54
0.56
0.38
0.03
-0.42
-0.84
-1.10
-1.12
-0.90
-0.52
-0.11
0.22
0.37
0.37
0.29
0.20
0.17
0.20
0.23
0.21
0.10
-0.05
-0.18
-0.24
-0.20
-0.06
0.16
0.42
0.68
0.87
0.89
0.71
0.33
-0.13
-0.52
-0.70
-0.64
-0.38
-0.06
0.21
0.37
0.43
0.42
0.38
0.28
0.12
-0.12
-0.37
-0.59
-0.72
-0.73
-0.68
-0.64
-0.64
-0.67
-0.65
-0.51
-0.26
0.03
0.22
0.23
0.07
-0.14
-0.24
-0.16
0.06
0.28
0.38
0.32
0.14
-0.01
-0.06
0.03
0.19
0.34
0.46
0.55
0.65
0.78
0.94
1.07
1.12
1.06
0.88
0.66
0.44
0.30
0.26
0.27
0.27
0.20
0.00
-0.26
-0.53
-0.71
-0.75
-0.66
-0.46
-0.20
0.08
0.34
0.54
0.62
0.50
0.17
-0.32
-0.88
-1.34
-1.58
-1.54
