1659461331.00
64.000000
-0.00
-0.00
-0.00
-0.00
-0.00
-0.00
-0.00
-0.00
-0.00
-0.00
0.00
0.01
0.01
-0.00
-0.03
-0.05
-0.05
0.00
0.13
0.36
0.66
1.01
1.37
1.72
2.06
2.40
2.79
3.24
3.80
4.42
5.06
5.66
6.20
6.68
7.15
7.68
8.31
9.14
10.09
11.04
11.88
12.56
13.14
13.76
14.65
15.96
17.91
20.32
22.91
25.38
27.58
29.57
31.67
34.31
37.81
42.55
48.17
54.15
59.89
64.99
69.52
73.95
78.98
85.19
93.12
102.29
111.89
121.00
129.02
135.94
142.38
149.68
156.57
165.35
176.65
190.52
205.73
219.28
226.79
223.61
206.40
174.40
130.09
77.34
20.45
-37.51
-95.15
-152.37
-209.28
-265.46
-319.81
-370.61
-416.80
-457.78
-493.27
-522.79
-545.23
-558.88
-561.68
-552.06
-529.28
-494.32
-449.45
-397.82
-342.73
-286.92
-232.17
-179.31
-128.64
-80.33
-35.00
6.36
42.57
72.65
96.06
112.73
123.01
127.75
128.60
128.07
129.33
135.35
147.64
165.48
185.88
204.71
218.25
224.54
223.73
217.50
207.85
196.25
183.38
169.53
155.16
141.12
128.36
117.49
108.39
100.30
92.15
83.13
73.12
62.71
52.85
44.58
38.21
33.47
29.67
26.04
22.11
17.82
13.49
9.57
6.41
4.08
2.42
1.15
-0.05
-1.36
-2.77
-4.17
-5.42
-6.36
-6.92
-7.04
-6.70
-5.99
-5.11
-4.36
-4.01
-4.21
-4.87
-5.75
-6.53
-6.99
-6.99
-6.52
-5.64
-4.44
-3.08
-1.83
-0.97
-0.69
-0.99
-1.64
-2.34
-2.86
-3.12
-3.25
-3.37
-3.54
-3.67
-3.65
-3.44
-3.13
-2.86
-2.74
-2.77
-2.83
-2.77
-2.54
-2.18
-1.86
-1.68
-1.70
-1.84
-1.99
-2.02
-1.89
-1.60
-1.25
-0.90
-0.61
-0.44
-0.35
-0.30
-0.21
0.02
0.45
1.06
1.80
2.61
3.40
4.15
4.86
5.56
6.25
6.91
7.48
7.93
8.21
8.29
8.11
7.62
6.77
5.55
4.08
2.44
0.76
-0.83
-2.30
-3.65
-4.91
-6.08
-7.11
-7.95
-8.54
-8.88
-8.99
-8.91
-8.67
-8.30
-7.82
-7.27
-6.72
-6.21
-5.79
-5.46
-5.20
-4.97
-4.75
-4.48
-4.13
-3.65
-3.05
-2.35
-1.67
-1.10
-0.75
-0.65
-0.75
-0.94
-1.10
-1.14
-1.09
-1.01
-0.96
-0.98
-1.02
-0.98
-0.82
-0.51
-0.16
0.13
0.26
0.21
0.07
-0.08
-0.18
-0.25
-0.36
-0.55
-0.81
-1.06
-1.22
-1.22
-1.10
-0.94
-0.84
-0.87
-0.99
-1.15
-1.26
-1.29
-1.26
-1.22
-1.18
-1.08
-0.83
-0.35
0.36
1.17
1.92
2.42
2.60
2.48
2.18
1.83
1.52
1.28
1.11
0.99
0.93
0.94
1.00
1.08
1.13
1.08
0.91
0.59
0.19
-0.24
-0.63
-0.91
-1.08
-1.15
-1.15
-1.10
-1.00
-0.84
-0.65
-0.46
-0.33
-0.31
-0.49
-0.89
-1.51
-2.30
-3.13
-3.80
-4.08
-3.84
-3.06
-1.93
-0.72
0.28
0.90
1.15
1.14
1.05
1.02
1.14
1.41
1.76
2.10
2.35
2.46
2.45
2.36
2.20
1.98
1.64
1.17
0.59
0.03
-0.35
-0.45
-0.25
0.12
0.46
0.63
0.57
0.36
0.12
-0.06
-0.17
-0.27
-0.43
-0.70
-1.07
-1.46
-1.80
-2.06
-2.22
-2.32
-2.37
-2.34
-2.14
-1.70
-1.01
-0.18
0.61
1.21
1.53
1.64
1.63
1.63
1.63
1.56
1.35
1.01
0.66
0.50
0.63
1.03
1.54
1.93
2.06
1.88
1.47
0.95
0.44
-0.00
-0.33
-0.55
-0.65
-0.66
-0.56
-0.33
-0.00
0.36
0.65
0.72
0.45
-0.14
-0.93
-1.69
-2.24
-2.47
-2.42
-2.20
-1.90
-1.57
-1.20
-0.74
-0.21
0.34
0.82
1.15
1.32
1.33
1.26
1.15
1.03
0.90
0.74
0.56
0.40
0.31
0.38
0.61
0.95
1.30
1.52
1.52
1.30
0.93
0.53
0.23
0.06
0.01
-0.00
-0.08
-0.28
-0.60
-0.97
-1.30
-1.53
-1.65
-1.72
-1.78
-1.88
-1.97
-1.97
-1.82
-1.52
-1.14
-0.82
-0.62
-0.52
-0.42
-0.21
0.16
0.63
1.05
1.32
1.38
1.28
1.09
0.89
0.73
0.65
0.64
0.73
0.87
1.01
1.04
0.89
0.56
0.17
-0.16
-0.31
-0.28
-0.18
-0.14
-0.25
-0.47
-0.71
-0.89
-0.97
-1.03
-1.16
-1.39
-1.72
-2.07
-2.35
-2.48
-2.43
-2.18
-1.74
-1.13
-0.39
0.38
1.09
1.63
1.93
2.00
1.90
1.71
1.53
1.40
1.32
1.24
1.11
0.93
0.70
0.50
0.36
0.28
0.20
0.07
-0.14
-0.37
-0.56
-0.64
-0.62
-0.56
-0.54
-0.62
-0.79
-1.00
-1.20
-1.37
-1.52
-1.69
-1.87
-2.03
-2.15
-2.21
-2.25
-2.30
-2.38
-2.38
-2.22
-1.82
-1.22
-0.57
-0.04
0.25
0.28
0.17
0.03
-0.05
-0.11
-0.26
-0.58
-1.11
-1.75
-2.37
-2.87
-3.24
-3.58
-3.98
-4.51
-5.14
-5.74
-6.23
-6.56
-6.82
-7.15
-7.65
-8.35
-9.18
-9.99
-10.69
-11.26
-11.72
-12.12
-12.46
-12.63
-12.53
-12.03
-11.09
-9.72
-7.94
-5.78
-3.24
-0.36
2.75
5.89
8.85
11.41
13.42
14.84
15.67
15.98
15.88
15.46
14.82
14.05
13.22
12.37
11.51
10.66
9.80
8.94
8.11
7.34
6.68
6.20
5.90
5.75
5.62
5.41
5.03
4.48
3.84
3.19
2.61
2.13
1.73
1.39
1.05
0.69
0.31
-0.10
-0.51
-0.89
-1.20
-1.37
-1.33
-1.03
-0.49
0.19
0.87
1.38
1.63
1.62
1.45
1.25
1.08
0.98
0.91
0.87
0.85
0.88
0.95
1.01
0.99
0.85
0.60
0.28
-0.02
-0.26
-0.41
-0.45
-0.36
-0.16
0.11
0.35
0.43
0.26
-0.12
-0.60
-0.99
-1.22
-1.29
-1.31
-1.41
-1.64
-1.93
-2.15
-2.17
-1.93
-1.45
-0.85
-0.26
0.22
0.53
0.72
0.86
1.01
1.20
1.40
1.56
1.63
1.58
1.45
1.27
1.07
0.86
0.64
0.39
0.12
-0.09
-0.19
-0.14
0.04
0.25
0.37
0.29
-0.04
-0.54
-1.07
-1.51
-1.74
-1.77
-1.65
-1.49
-1.40
-1.43
-1.58
-1.83
-2.11
-2.31
-2.37
-2.22
-1.85
-1.31
-0.68
-0.07
0.44
0.83
1.12
1.33
1.48
1.55
1.49
1.29
1.01
0.75
0.58
0.55
0.59
0.60
0.52
0.40
0.32
0.37
0.56
0.75
0.77
0.51
0.02
-0.55
-1.00
-1.20
-1.16
-1.01
-0.92
-1.02
-1.35
-1.83
-2.33
-2.70
-2.85
-2.70
-2.26
-1.57
-0.72
0.18
1.03
1.71
2.18
2.44
2.59
2.77
3.11
3.70
4.47
5.26
5.89
6.22
6.26
6.17
6.21
6.60
7.44
8.64
9.96
11.14
12.05
12.74
13.45
14.49
16.10
18.27
20.82
23.44
25.89
28.14
30.39
32.96
36.14
40.11
44.89
50.39
56.50
63.06
69.88
76.81
83.85
91.29
99.75
110.02
122.77
138.15
155.58
173.50
190.20
204.54
216.32
226.07
234.71
243.21
252.31
262.30
272.32
280.97
286.77
288.48
285.25
276.71
263.04
244.90
223.24
198.03
169.52
138.76
107.55
77.62
50.03
25.17
2.86
-17.22
-38.34
-62.74
-90.08
-117.64
-142.46
-162.75
-178.01
-188.53
-194.74
-203.43
-219.66
-243.69
-271.15
-297.16
-319.05
-336.33
-349.73
-359.69
-376.58
-407.48
-451.56
-500.68
-546.30
-583.65
-611.64
-631.38
-643.70
-662.85
-699.00
-752.11
-812.67
-870.85
-921.26
-962.74
-996.51
-948.39
-782.28
-519.15
-226.66
32.46
229.72
366.12
455.83
507.76
540.79
552.15
536.96
497.26
443.29
384.44
325.81
273.34
229.87
198.44
170.04
138.45
105.12
88.92
99.92
133.96
177.44
217.41
248.51
263.59
260.55
243.13
219.07
193.89
172.46
156.41
146.78
145.12
147.59
149.64
148.10
141.88
129.87
112.65
92.99
71.77
52.89
38.18
28.17
22.52
20.46
20.17
20.35
20.58
21.26
23.39
26.86
30.86
34.39
36.71
37.16
35.87
33.44
30.70
28.55
27.11
25.97
24.59
22.66
20.09
17.15
14.32
12.12
11.06
11.23
12.32
13.94
15.69
17.32
18.67
19.65
20.18
20.34
20.14
19.65
19.01
18.38
17.90
17.49
16.87
15.62
13.36
9.99
5.74
1.21
-2.81
-5.67
-7.04
-7.03
-6.04
-4.62
-3.26
-2.25
-1.74
-1.71
-2.15
-3.00
-4.19
-5.58
-6.96
-8.14
-8.97
-9.42
-9.62
-9.72
-9.87
-10.10
-10.35
-10.49
-10.43
-10.19
-9.89
-9.72
-9.81
-10.17
-10.64
-10.88
-10.56
-9.35
-7.06
-3.65
0.66
5.36
9.64
12.60
13.48
12.07
8.86
4.97
1.80
0.40
1.14
3.56
6.64
9.32
10.90
11.24
10.67
9.65
8.57
7.54
6.53
5.49
4.48
3.69
3.32
3.40
3.76
4.01
3.73
2.65
0.74
-1.76
-4.42
-6.75
-8.27
-8.69
-7.95
-6.21
-3.87
-1.46
0.50
1.58
1.55
0.44
-1.50
-3.79
-5.84
-7.08
-7.13
-5.97
-3.94
-1.59
0.47
1.89
2.64
2.92
3.02
3.07
3.03
2.72
1.98
0.86
-0.42
-1.57
-2.36
-2.83
-3.17
-3.65
-4.40
-5.33
-6.14
-6.46
-5.95
-4.40
-1.78
1.74
5.75
9.63
12.60
13.97
13.43
11.26
8.30
5.64
4.18
4.30
5.69
7.66
9.41
10.48
10.73
10.33
9.52
8.49
7.42
6.48
5.92
5.94
6.58
7.60
8.50
8.74
7.95
6.11
3.55
0.87
-1.29
-2.41
-2.15
-0.50
2.25
5.52
8.54
10.58
11.20
10.43
8.74
6.83
5.31
4.45
4.08
3.79
3.17
2.04
0.55
-0.98
-2.22
-3.01
-3.38
-3.48
-3.43
-3.21
-2.72
-1.87
-0.70
0.55
1.51
1.84
1.31
-0.03
-1.84
-3.62
-4.75
-4.71
-3.20
-0.27
3.64
7.72
11.04
12.80
12.67
10.92
8.33
5.88
4.39
4.25
5.22
6.71
7.96
8.38
7.77
6.27
4.29
2.28
0.67
-0.26
-0.35
0.39
1.80
3.57
5.27
6.47
6.85
6.38
5.27
4.02
3.17
3.16
4.22
6.29
9.03
11.90
14.25
15.53
15.42
14.07
12.02
10.02
8.68
8.24
8.48
8.86
8.85
8.21
7.01
5.54
4.02
2.44
0.66
-1.48
-3.96
-6.52
-8.81
-10.54
-11.65
-12.33
-12.91
-13.69
-14.82
-16.18
-17.44
-18.15
-17.91
-16.45
-13.73
-9.97
-5.65
-1.40
2.11
4.40
5.33
5.17
4.50
4.02
4.19
5.10
6.42
7.68
8.50
8.76
8.62
8.32
7.97
7.53
6.88
6.00
5.03
4.24
3.84
3.80
3.81
3.46
2.44
0.77
-1.16
-2.76
-3.43
-2.82
-0.83
2.36
6.36
10.60
14.40
17.04
17.98
17.09
14.78
11.87
9.37
8.03
8.09
9.20
10.69
11.81
12.10
11.38
9.74
7.38
4.51
1.35
-1.89
-4.97
-7.67
-9.87
-11.61
-13.08
-14.59
-16.46
-18.85
-21.70
-24.65
-27.19
-28.72
-28.80
-27.19
-23.99
-19.52
-14.29
-8.90
-3.95
0.05
2.81
4.34
4.98
5.29
5.85
6.97
8.59
10.28
11.51
11.87
11.31
10.11
8.76
7.76
7.40
7.73
8.54
9.52
10.30
10.62
10.33
9.45
8.12
6.56
5.00
3.67
2.70
2.22
2.28
2.91
4.04
5.54
7.29
9.32
11.76
14.82
18.58
22.76
26.72
29.61
30.71
29.86
27.48
24.43
21.54
19.20
17.24
15.10
12.17
8.16
3.15
-2.49
-8.35
-14.13
-19.67
-24.84
-29.48
-33.38
-36.33
-38.25
-39.25
-39.51
-39.22
-38.43
-37.07
-35.05
-32.37
-29.21
-25.87
-22.55
-19.35
-16.36
-13.55
-10.80
-8.19
-5.94
-4.33
-3.52
-3.35
-3.54
-3.97
-4.53
-5.11
-5.72
-6.35
-6.96
-7.46
-7.50
-6.90
-6.06
-5.37
-4.98
-5.05
-5.59
-6.55
-7.79
-8.50
-8.11
-7.49
-7.18
-6.90
-6.34
-5.31
-3.85
-2.30
0.22
4.29
7.83
9.77
10.68
11.09
11.24
11.33
11.47
14.13
21.43
30.80
40.29
49.79
58.91
67.59
76.68
87.71
104.91
130.40
158.40
183.26
202.63
215.92
224.66
231.47
220.24
180.75
138.59
104.46
73.17
45.97
25.14
11.71
4.17
-0.85
-3.64
-3.27
-2.75
-2.87
-2.67
-3.42
-7.76
-17.73
-33.17
-49.35
-61.15
-69.02
-74.58
-79.10
-84.67
-92.59
-102.54
-112.75
-119.71
-121.03
-118.56
-114.68
-110.75
-107.87
-106.25
-105.19
-103.60
-99.98
-93.73
-86.38
-79.44
-73.50
-68.60
-64.33
-60.13
-55.75
-51.18
-46.79
-43.36
-41.17
-39.69
-38.13
-35.71
-32.03
-27.20
-21.77
-16.50
-12.07
-8.85
-6.80
-5.49
-4.32
-2.77
-0.58
2.18
5.20
8.06
10.47
12.33
13.73
14.83
15.85
16.94
18.18
19.59
21.09
22.59
23.97
25.15
26.08
26.77
27.26
27.54
27.65
27.58
27.37
27.09
26.90
27.02
27.68
29.01
31.01
33.45
35.92
38.02
39.46
40.19
40.31
39.88
38.77
36.72
33.62
29.74
25.83
22.79
21.20
20.85
20.63
18.89
14.00
4.97
-8.22
-24.67
-42.82
-60.83
-76.78
-88.66
-94.64
-93.40
-84.65
-69.56
-50.71
-31.65
-15.87
-5.76
-1.87
-3.11
-7.51
-13.28
-19.62
-26.92
-36.35
-49.10
-65.48
-84.40
-103.64
-120.54
-132.88
-139.38
-139.92
-135.34
-127.01
-116.28
-103.96
-90.52
-76.52
-62.73
-49.92
-38.52
-28.49
-19.31
-10.20
0.07
12.43
27.18
43.95
62.08
80.93
100.02
118.02
131.95
139.16
138.78
131.93
120.44
105.85
89.52
72.93
58.41
46.57
38.01
32.90
30.62
29.96
29.67
28.85
27.05
23.82
19.05
13.18
6.91
0.77
-4.91
-9.92
-14.12
-17.40
-19.73
-21.22
-21.82
-21.68
-21.25
-21.00
-21.16
-21.54
-21.73
-21.40
-20.48
-19.07
-17.50
-16.24
-15.66
-15.83
-16.50
-17.20
-17.47
-17.05
-15.87
-14.23
-12.62
-11.53
-11.08
-10.96
-10.52
-9.05
-6.10
-1.63
3.72
8.76
12.23
13.40
12.52
10.82
10.38
13.56
22.31
36.87
55.09
72.91
85.69
89.78
83.76
68.91
48.78
28.23
11.30
0.00
-5.35
-5.36
-0.76
7.71
19.23
32.78
47.65
62.61
75.73
85.15
89.34
87.20
77.90
60.95
34.15
0.07
-34.14
-61.31
-78.30
-86.45
-88.56
-86.74
-81.81
-74.00
-63.51
-51.91
-42.32
-36.97
-36.44
-39.15
-42.53
-44.15
-42.85
-38.71
-33.42
-31.13
-33.94
-43.15
-58.42
-77.38
-95.58
-107.17
-106.31
-87.00
-52.30
-9.61
31.60
63.19
80.96
85.25
79.66
68.84
56.32
43.28
30.52
18.70
8.98
2.66
0.39
1.68
5.20
9.15
11.38
11.16
8.79
5.39
2.36
0.72
0.67
1.68
2.71
2.56
0.82
-2.27
-5.97
-9.37
-11.78
-12.98
-13.24
-13.18
-13.62
-14.97
-17.23
-20.04
-22.79
-24.92
-26.12
-26.36
-25.97
-25.40
-24.96
-24.72
-24.54
-24.12
-23.14
-21.47
-19.14
-16.41
-13.61
-11.03
-8.79
-6.78
-4.68
-2.12
1.16
5.16
9.58
13.88
17.47
19.87
20.91
20.68
19.53
17.97
16.53
15.73
15.93
17.21
19.28
21.51
23.09
23.31
21.82
18.76
14.70
10.53
7.19
5.35
5.35
7.05
9.99
13.49
16.90
19.62
21.25
21.61
20.67
18.65
15.95
13.14
10.88
9.65
9.63
10.57
11.82
12.60
12.27
10.56
7.69
4.21
0.83
-1.87
-3.65
-4.59
-4.96
-5.07
-5.09
-5.10
-5.15
-5.34
-5.82
-6.71
-7.98
-9.47
-10.87
-11.93
-12.51
-12.61
-12.30
-11.65
-10.72
-9.56
-8.25
-6.95
-5.76
-4.73
-3.68
-2.35
-0.48
1.96
4.66
7.02
8.39
8.38
7.08
5.05
3.04
1.71
1.33
1.76
2.59
3.38
3.81
3.77
3.29
2.46
1.36
0.09
-1.26
-2.60
-3.86
-5.00
-6.06
-7.14
-8.35
-9.76
-11.36
-13.01
-14.45
-15.40
-15.63
-15.04
-13.70
-11.79
-9.56
-7.23
-4.96
-2.76
-0.45
2.18
5.27
8.73
12.16
15.06
17.03
17.91
17.86
17.17
16.05
14.60
12.83
10.83
8.86
7.30
6.41
6.17
6.27
6.29
5.91
5.11
4.07
3.11
2.46
2.17
2.09
1.97
1.56
0.70
-0.59
-2.12
-3.56
-4.59
-4.99
-4.71
-3.85
-2.65
-1.29
0.05
1.25
2.17
2.71
2.84
2.70
2.63
3.08
4.43
6.74
9.69
12.64
14.85
15.72
15.06
13.07
10.24
7.18
4.47
2.48
1.41
1.27
1.87
2.85
3.73
4.05
3.49
1.93
-0.48
-3.41
-6.44
-9.17
-11.29
-12.63
-13.15
-12.97
-12.34
-11.65
-11.25
-11.35
-11.85
-12.39
-12.48
-11.79
-10.35
-8.62
-7.28
-6.88
-7.55
-8.89
-10.07
-10.22
-8.75
-5.56
-1.06
3.98
8.63
11.97
13.33
12.43
9.53
5.46
1.45
-1.27
-1.89
-0.37
2.56
5.68
7.82
8.29
7.14
4.96
2.64
0.88
0.04
0.14
1.00
2.43
4.37
6.77
9.55
12.47
15.13
17.09
18.03
17.89
16.91
15.64
14.71
14.69
15.79
17.82
20.14
21.97
22.67
22.11
20.74
19.49
19.35
20.87
23.83
27.17
29.44
29.26
25.84
19.21
10.01
-0.86
-12.54
-24.28
-35.46
