1660938753.00
64.000000
-0.00
-0.00
-0.00
-0.00
-0.00
-0.00
-0.00
-0.00
-0.00
-0.00
0.00
0.01
0.01
-0.00
-0.03
-0.05
-0.05
0.00
0.13
0.36
0.66
1.01
1.37
1.72
2.06
2.40
2.79
3.25
3.81
4.44
5.10
5.73
6.32
6.89
7.51
8.25
9.15
10.29
11.55
12.82
13.95
14.93
15.82
16.82
18.17
20.01
22.53
25.51
28.65
31.66
34.40
36.99
39.80
43.30
47.79
53.61
60.31
67.35
74.13
80.38
86.31
92.53
99.83
108.69
119.50
131.56
143.93
155.69
166.46
176.56
186.95
199.12
211.71
226.66
244.14
263.91
284.69
303.85
317.59
321.82
313.50
291.63
258.08
215.98
169.07
120.40
71.89
24.44
-21.34
-64.80
-105.29
-142.27
-176.30
-208.68
-241.20
-275.32
-311.33
-347.73
-381.08
-406.96
-421.19
-421.61
-408.88
-386.34
-358.61
-329.83
-302.46
-277.04
-252.98
-229.54
-206.80
-185.48
-166.37
-149.71
-134.94
-121.07
-107.21
-93.04
-78.88
-65.52
-53.74
-43.95
-35.98
-29.24
-23.02
-16.77
-10.33
-3.92
2.03
7.10
11.06
14.00
16.23
18.14
20.03
21.98
23.88
25.50
26.60
27.09
27.02
26.62
26.14
25.79
25.66
25.68
25.68
25.49
24.99
24.20
23.22
22.16
21.17
20.32
19.63
19.10
18.67
18.31
17.97
17.57
17.09
16.48
15.77
15.00
14.25
13.62
13.20
13.02
13.06
13.21
13.31
13.21
12.88
12.35
11.75
11.20
10.78
10.48
10.22
9.95
9.65
9.35
9.12
8.97
8.89
8.83
8.73
8.52
8.20
7.74
7.19
6.62
6.11
5.73
5.53
5.45
5.42
5.31
5.07
4.67
4.19
3.71
3.32
3.02
2.78
2.50
2.15
1.70
1.16
0.53
-0.18
-0.98
-1.84
-2.66
-3.35
-3.86
-4.19
-4.43
-4.67
-5.00
-5.41
-5.86
-6.34
-6.85
-7.41
-8.04
-8.67
-9.19
-9.49
-9.52
-9.32
-8.99
-8.63
-8.29
-7.95
-7.57
-7.12
-6.61
-6.07
-5.55
-5.05
-4.58
-4.13
-3.67
-3.20
-2.70
-2.17
-1.61
-1.06
-0.56
-0.17
0.11
0.28
0.40
0.54
0.76
1.11
1.56
2.05
2.47
2.70
2.72
2.56
2.38
2.34
2.54
2.96
3.46
3.89
4.14
4.20
4.14
4.06
4.02
4.04
4.10
4.17
4.23
4.26
4.24
4.14
4.01
3.91
3.95
4.17
4.53
4.87
5.02
4.88
4.49
4.01
3.63
3.47
3.53
3.70
3.82
3.82
3.73
3.61
3.57
3.65
3.81
3.99
4.08
4.05
3.87
3.58
3.23
2.90
2.64
2.48
2.40
2.34
2.25
2.09
1.88
1.65
1.47
1.37
1.36
1.39
1.46
1.53
1.63
1.75
1.89
2.01
2.05
1.97
1.81
1.63
1.48
1.44
1.51
1.65
1.83
1.99
2.09
2.11
2.02
1.81
1.52
1.20
0.91
0.69
0.58
0.59
0.69
0.85
1.03
1.19
1.28
1.25
1.09
0.86
0.64
0.52
0.55
0.68
0.83
0.93
0.95
0.97
1.07
1.30
1.62
1.91
2.05
1.98
1.75
1.47
1.24
1.08
0.97
0.89
0.84
0.86
0.96
1.12
1.23
1.23
1.09
0.86
0.65
0.50
0.43
0.39
0.36
0.35
0.39
0.52
0.71
0.88
0.97
0.93
0.78
0.57
0.39
0.28
0.27
0.33
0.42
0.51
0.57
0.61
0.65
0.71
0.76
0.78
0.74
0.65
0.54
0.47
0.47
0.53
0.62
0.66
0.63
0.54
0.43
0.35
0.32
0.32
0.35
0.42
0.52
0.66
0.84
1.04
1.18
1.19
1.04
0.75
0.38
0.05
-0.13
-0.10
0.14
0.53
0.93
1.24
1.39
1.35
1.20
1.03
0.92
0.88
0.84
0.72
0.46
0.10
-0.26
-0.49
-0.51
-0.34
-0.10
0.12
0.28
0.37
0.43
0.47
0.46
0.39
0.25
0.09
-0.02
-0.07
-0.05
0.01
0.08
0.15
0.22
0.29
0.32
0.25
0.08
-0.14
-0.33
-0.40
-0.30
-0.08
0.19
0.44
0.61
0.68
0.62
0.43
0.11
-0.29
-0.63
-0.79
-0.66
-0.27
0.24
0.68
0.90
0.88
0.72
0.58
0.57
0.71
0.88
0.97
0.93
0.79
0.64
0.56
0.55
0.58
0.60
0.61
0.63
0.70
0.78
0.82
0.76
0.61
0.41
0.23
0.13
0.11
0.13
0.15
0.14
0.10
0.04
-0.01
-0.03
-0.01
0.08
0.21
0.33
0.40
0.41
0.39
0.41
0.53
0.69
0.81
0.78
0.59
0.31
0.08
-0.05
-0.07
-0.03
0.02
0.10
0.23
0.44
0.65
0.73
0.56
0.13
-0.45
-0.99
-1.27
-1.21
-0.84
-0.28
0.28
0.71
0.93
0.94
0.79
0.56
0.36
0.24
0.22
0.28
0.36
0.38
0.30
0.12
-0.11
-0.33
-0.44
-0.43
-0.34
-0.26
-0.27
-0.40
-0.61
-0.78
-0.82
-0.68
-0.43
-0.17
0.02
0.11
0.15
0.18
0.20
0.17
0.04
-0.16
-0.35
-0.38
-0.19
0.20
0.65
1.01
1.18
1.13
0.94
0.66
0.39
0.15
-0.03
-0.15
-0.17
-0.11
0.04
0.25
0.51
0.80
1.08
1.28
1.34
1.24
1.01
0.71
0.38
0.08
-0.19
-0.43
-0.67
-0.88
-1.05
-1.15
-1.15
-1.04
-0.82
-0.53
-0.21
0.08
0.31
0.48
0.64
0.82
1.03
1.23
1.34
1.28
1.01
0.55
-0.04
-0.67
-1.29
-1.89
-2.49
-3.11
-3.74
-4.33
-4.82
-5.18
-5.43
-5.64
-5.90
-6.30
-6.84
-7.49
-8.21
-8.97
-9.74
-10.52
-11.31
-12.08
-12.90
-13.84
-15.06
-16.69
-18.77
-21.16
-23.65
-26.03
-28.29
-30.65
-33.50
-37.17
-41.66
-46.57
-51.20
-54.88
-57.34
-58.97
-60.68
-63.54
-68.31
-75.10
-83.32
-92.03
-100.34
-107.79
-114.49
-120.91
-127.61
-134.97
-143.19
-152.52
-163.27
-175.52
-188.55
-200.29
-207.47
-206.41
-194.39
-170.78
-137.26
-96.92
-52.70
-6.21
42.31
92.85
144.12
192.72
233.89
263.30
279.10
282.81
278.71
271.97
266.63
264.47
265.01
266.67
268.07
268.79
269.34
270.59
273.11
276.81
281.05
285.12
288.55
291.18
292.83
292.79
289.47
280.71
264.43
239.51
206.30
166.53
122.43
75.72
27.11
-23.27
-74.73
-125.03
-170.25
-205.83
-228.36
-237.03
-234.01
-223.43
-209.66
-195.84
-183.23
-171.69
-160.65
-149.94
-139.93
-131.15
-123.78
-117.33
-110.87
-103.57
-95.10
-85.81
-76.62
-68.52
-62.11
-57.37
-53.69
-50.16
-46.04
-41.08
-35.54
-30.09
-25.41
-21.90
-19.55
-18.02
-16.80
-15.43
-13.65
-11.50
-9.14
-6.89
-4.97
-3.51
-2.50
-1.84
-1.36
-0.94
-0.52
-0.15
0.12
0.21
0.09
-0.18
-0.48
-0.74
-0.91
-1.03
-1.15
-1.30
-1.41
-1.34
-0.98
-0.32
0.50
1.23
1.61
1.54
1.09
0.47
-0.09
-0.44
-0.59
-0.67
-0.79
-1.02
-1.34
-1.63
-1.80
-1.80
-1.63
-1.33
-0.93
-0.45
0.11
0.67
1.14
1.38
1.33
1.00
0.53
0.11
-0.10
-0.03
0.28
0.68
1.01
1.13
0.93
0.36
-0.56
-1.72
-2.90
-3.86
-4.37
-4.34
-3.83
-3.04
-2.20
-1.54
-1.16
-1.07
-1.18
-1.30
-1.22
-0.73
0.28
1.71
3.25
4.48
5.01
4.62
3.39
1.66
-0.10
-1.43
-2.07
-1.96
-1.30
-0.39
0.43
0.92
0.94
0.51
-0.25
-1.16
-2.00
-2.63
-2.95
-2.95
-2.67
-2.17
-1.49
-0.67
0.27
1.29
2.31
3.29
4.19
5.04
5.87
6.67
7.37
7.83
7.92
7.60
6.91
6.02
5.11
4.34
3.78
3.34
2.89
2.23
1.21
-0.18
-1.83
-3.55
-5.11
-6.36
-7.25
-7.79
-8.03
-7.97
-7.63
-7.03
-6.28
-5.52
-4.89
-4.47
-4.22
-4.02
-3.71
-3.11
-2.11
-0.60
1.49
4.13
7.16
10.21
12.82
14.51
15.02
14.34
12.73
10.58
8.28
6.10
4.15
2.42
0.94
-0.25
-1.11
-1.60
-1.79
-1.84
-1.94
-2.26
-2.85
-3.65
-4.51
-5.34
-6.07
-6.73
-7.36
-7.99
-8.54
-8.93
-9.07
-8.98
-8.76
-8.54
-8.46
-8.55
-8.78
-9.03
-9.15
-8.97
-8.33
-7.13
-5.39
-3.27
-1.07
0.90
2.42
3.53
4.46
5.50
6.80
8.31
9.72
10.69
11.00
10.67
9.97
9.27
8.88
8.91
9.28
9.79
10.20
10.31
9.99
9.25
8.16
6.84
5.48
4.23
3.22
2.53
2.16
2.04
2.05
2.02
1.80
1.24
0.31
-0.97
-2.47
-3.99
-5.34
-6.38
-7.05
-7.40
-7.51
-7.46
-7.29
-7.00
-6.60
-6.14
-5.68
-5.34
-5.19
-5.23
-5.43
-5.68
-5.90
-6.03
-6.04
-5.93
-5.73
-5.49
-5.25
-5.05
-4.92
-4.85
-4.80
-4.74
-4.65
-4.58
-4.55
-4.59
-4.65
-4.61
-4.33
-3.67
-2.59
-1.14
0.52
2.22
3.77
5.04
5.99
6.63
6.99
7.07
6.89
6.51
6.01
5.52
5.11
4.83
4.67
4.60
4.62
4.79
5.15
5.72
6.37
6.94
7.20
7.06
6.58
5.96
5.43
5.20
5.31
5.68
6.16
6.56
6.73
6.51
5.78
4.46
2.63
0.49
-1.63
-3.38
-4.55
-5.11
-5.21
-5.09
-4.95
-4.87
-4.82
-4.73
-4.56
-4.32
-4.09
-3.95
-3.99
-4.25
-4.77
-5.54
-6.48
-7.49
-8.42
-9.11
-9.45
-9.40
-8.98
-8.29
-7.44
-6.59
-5.91
-5.52
-5.49
-5.79
-6.27
-6.72
-6.86
-6.46
-5.33
-3.47
-0.94
2.06
5.29
8.50
11.41
13.78
15.45
16.31
16.40
15.79
14.58
12.85
10.64
7.98
5.01
1.98
-0.77
-2.92
-4.29
-4.91
-4.99
-4.75
-4.37
-3.86
-3.16
-2.20
-0.97
0.43
1.90
3.35
4.71
5.90
6.75
7.05
6.61
5.35
3.45
1.23
-0.85
-2.45
-3.38
-3.70
-3.56
-3.15
-2.58
-1.88
-1.03
-0.02
1.04
1.98
2.56
2.61
2.09
1.16
0.07
-0.86
-1.43
-1.59
-1.47
-1.25
-1.06
-0.94
-0.86
-0.74
-0.57
-0.39
-0.27
-0.25
-0.30
-0.33
-0.28
-0.14
0.06
0.27
0.49
0.78
1.24
1.96
2.94
4.06
5.09
5.79
5.96
5.53
4.57
3.28
1.85
0.47
-0.79
-1.89
-2.84
-3.62
-4.18
-4.53
-4.65
-4.62
-4.49
-4.32
-4.14
-3.96
-3.78
-3.62
-3.49
-3.39
-3.31
-3.23
-3.11
-2.95
-2.73
-2.51
-2.32
-2.25
-2.34
-2.54
-2.75
-2.75
-2.32
-1.31
0.25
2.18
4.20
6.02
7.37
8.11
8.17
7.60
6.56
5.29
4.14
3.39
3.20
3.51
4.05
4.52
4.64
4.32
3.65
2.81
1.96
1.22
0.62
0.18
-0.16
-0.44
-0.72
-1.06
-1.49
-1.99
-2.53
-3.03
-3.42
-3.67
-3.72
-3.54
-3.14
-2.60
-2.05
-1.67
-1.56
-1.70
-1.97
-2.18
-2.17
-1.91
-1.52
-1.16
-1.00
-1.09
-1.38
-1.73
-2.02
-2.19
-2.24
-2.24
-2.27
-2.38
-2.57
-2.82
-3.07
-3.26
-3.33
-3.25
-3.00
-2.63
-2.18
-1.77
-1.45
-1.25
-1.11
-0.89
-0.47
0.21
1.12
2.13
3.07
3.72
3.95
3.70
3.03
2.09
1.05
0.07
-0.79
-1.53
-2.19
-2.76
-3.18
-3.34
-3.16
-2.69
-2.10
-1.64
-1.54
-1.87
-2.49
-3.12
-3.49
-3.39
-2.79
-1.75
-0.37
1.28
3.16
5.23
7.35
9.30
10.86
11.83
12.16
11.92
11.23
10.20
8.95
7.55
6.07
4.59
3.22
2.00
0.93
-0.02
-0.94
-1.88
-2.88
-3.91
-4.90
-5.72
-6.26
-6.41
-6.17
-5.62
-4.93
-4.26
-3.74
-3.40
-3.21
-3.14
-3.11
-3.07
-2.90
-2.44
-1.52
-0.11
1.67
3.47
4.87
5.56
5.46
4.76
3.84
3.04
2.52
2.25
2.03
1.71
1.24
0.72
0.30
0.04
-0.08
-0.21
-0.45
-0.87
-1.43
-2.01
-2.51
-2.89
-3.19
-3.52
-3.95
-4.52
-5.16
-5.74
-6.15
-6.31
-6.31
-6.29
-6.44
-6.81
-7.38
-7.99
-8.49
-8.80
-8.95
-8.99
-8.97
-8.87
-8.60
-8.09
-7.32
-6.29
-4.99
-3.36
-1.28
1.34
4.41
7.72
10.92
13.68
15.80
17.27
18.20
18.74
19.02
19.01
18.64
17.84
16.59
14.98
13.17
11.34
9.68
8.29
7.25
6.54
6.13
5.90
5.71
5.33
4.54
3.19
1.24
-1.16
-3.73
-6.11
-8.02
-9.34
-10.09
-10.43
-10.52
-10.47
-10.26
-9.86
-9.24
-8.47
-7.68
-7.01
-6.53
-6.22
-6.03
-5.89
-5.77
-5.71
-5.73
-5.81
-5.90
-5.94
-5.89
-5.73
-5.48
-5.17
-4.87
-4.68
-4.67
-4.90
-5.36
-5.96
-6.56
-6.97
-7.06
-6.73
-5.91
-4.58
-2.78
-0.62
1.72
4.08
6.36
8.52
10.56
12.43
13.98
14.95
15.13
14.43
13.00
11.17
9.33
7.78
6.67
5.93
5.41
4.95
4.45
3.96
3.55
3.27
3.12
3.03
2.95
2.85
2.78
2.74
2.70
2.52
2.03
1.16
-0.01
-1.27
-2.31
-2.97
-3.28
-3.42
-3.64
-4.07
-4.64
-5.14
-5.33
-5.12
-4.61
-4.05
-3.75
-3.89
-4.46
-5.28
-6.11
-6.77
-7.23
-7.50
-7.67
-7.74
-7.69
-7.45
-7.01
-6.43
-5.81
-5.23
-4.72
-4.27
-3.88
-3.57
-3.34
-3.14
-2.79
-2.07
-0.77
1.13
3.47
5.89
8.06
9.71
10.73
11.15
11.03
10.46
9.49
8.22
6.79
5.33
3.96
2.74
1.69
0.78
0.00
-0.63
-1.14
-1.55
-1.93
-2.32
-2.75
-3.18
-3.54
-3.75
-3.78
-3.61
-3.22
-2.64
-1.89
-1.03
-0.19
0.46
0.80
0.80
0.59
0.38
0.40
0.79
1.57
2.62
3.81
4.94
5.86
6.44
6.64
6.47
6.00
5.35
4.57
3.69
2.66
1.47
0.22
-0.92
-1.74
-2.14
-2.16
-2.00
-1.88
-1.90
-2.06
-2.23
-2.29
-2.21
-2.05
-1.88
-1.73
-1.54
-1.25
-0.79
-0.24
0.32
0.78
1.12
1.39
1.64
1.89
2.08
2.10
1.86
1.37
0.72
0.04
-0.54
-0.99
-1.28
-1.45
-1.49
-1.36
-1.06
-0.59
-0.04
0.45
0.73
0.66
0.20
-0.55
-1.42
-2.19
-2.68
-2.87
-2.84
-2.79
-2.89
-3.20
-3.62
-3.90
-3.75
-2.93
-1.42
0.62
2.80
4.64
5.75
5.88
5.11
3.78
2.38
1.40
1.12
1.55
2.42
3.34
3.96
4.08
3.75
3.09
2.28
1.41
0.51
-0.41
-1.32
-2.11
-2.66
-2.92
-2.87
-2.63
-2.31
-2.03
-1.84
-1.71
-1.58
-1.33
-0.91
-0.32
0.31
0.84
1.11
1.08
0.85
0.64
0.65
0.98
1.57
2.19
2.57
2.55
2.11
1.36
0.50
-0.31
-0.98
-1.48
-1.83
-2.07
-2.24
-2.37
-2.48
-2.56
-2.59
-2.57
-2.49
-2.36
-2.19
-2.01
-1.81
-1.59
-1.35
-1.11
-0.90
-0.72
-0.56
-0.38
-0.13
0.17
0.47
0.70
0.79
0.72
0.49
0.14
-0.25
-0.62
-0.92
-1.11
-1.22
-1.33
-1.52
-1.87
-2.34
-2.81
-3.11
-3.12
-2.84
-2.40
-2.01
-1.78
-1.72
-1.70
-1.59
-1.29
-0.83
-0.29
0.24
0.77
1.34
2.03
2.86
3.76
4.67
5.50
6.27
6.96
7.58
8.04
8.18
7.84
6.94
5.51
3.73
1.87
0.19
-1.13
-2.06
-2.67
-3.07
-3.32
-3.46
-3.50
-3.43
-3.33
-3.27
-3.30
-3.43
-3.56
-3.59
-3.44
-3.13
-2.78
-2.53
-2.48
-2.62
-2.81
-2.87
-2.61
-1.95
-0.89
0.48
2.02
3.54
4.82
5.62
5.79
5.30
4.33
3.14
2.04
1.23
0.72
0.39
0.11
-0.23
-0.60
-0.93
-1.13
-1.19
-1.17
-1.17
-1.33
-1.72
-2.35
-3.12
-3.90
-4.56
-5.02
-5.30
-5.50
-5.70
-5.96
-6.29
-6.62
-6.91
-7.10
-7.19
-7.18
-7.10
-6.98
-6.90
-6.87
-6.92
-6.96
-6.84
-6.37
-5.30
-3.53
-1.07
1.91
5.12
8.21
10.90
13.03
14.54
15.45
15.87
15.88
15.61
15.15
14.59
13.97
13.28
12.43
11.32
9.92
8.23
6.36
4.44
2.63
1.04
-0.27
-1.28
-2.00
-2.48
-2.69
-2.60
-2.19
-1.49
-0.67
-0.01
0.20
-0.24
-1.31
-2.73
-4.13
-5.16
-5.62
-5.54
-5.08
-4.41
-3.65
-2.86
-2.05
-1.31
-0.76
-0.53
-0.68
-1.13
-1.67
-2.07
-2.18
-1.98
-1.58
-1.14
-0.80
-0.63
-0.60
-0.66
-0.77
-0.89
-1.06
-1.31
-1.70
-2.27
-3.02
-3.87
-4.70
-5.35
-5.68
-5.64
-5.26
-4.62
-3.83
-2.88
-1.76
-0.40
1.21
3.00
4.77
6.28
7.29
7.64
7.31
6.45
5.32
4.23
3.44
3.04
2.91
2.83
2.56
1.97
1.13
0.26
-0.39
-0.62
-0.41
0.18
1.00
1.92
2.85
3.66
4.23
4.37
3.96
2.97
1.52
-0.16
-1.80
-3.20
-4.25
-4.97
-5.45
-5.77
-5.98
-6.04
-5.88
-5.44
-4.72
-3.83
-2.96
-2.37
-2.24
-2.62
-3.42
-4.40
-5.33
-6.07
-6.54
-6.72
-6.56
-5.95
-4.80
-3.14
-1.20
0.66
2.06
2.78
2.80
2.29
1.51
0.70
0.06
-0.25
-0.07
0.69
2.07
3.97
6.16
8.32
10.08
11.14
11.38
10.85
9.77
8.48
7.22
6.07
4.96
3.75
2.37
0.90
-0.46
-1.52
-2.19
-2.58
-2.92
-3.42
-4.14
-5.01
-5.85
-6.50
-6.90
-7.12
-7.27
-7.43
-7.60
-7.69
-7.61
-7.32
-6.84
-6.21
-5.49
-4.63
-3.54
-2.08
-0.17
2.21
4.89
7.60
9.97
11.66
12.41
12.16
11.01
9.26
7.24
5.29
3.63
2.40
1.62
1.27
1.25
1.46
1.75
1.99
2.02
1.78
1.29
0.70
0.22
0.03
0.18
0.51
0.74
0.54
-0.26
-1.60
-3.23
-4.80
-6.00
-6.67
-6.77
-6.41
-5.72
-4.88
-4.03
-3.24
-2.53
-1.81
-0.91
0.32
1.91
3.74
5.52
6.89
7.54
7.35
6.40
4.98
3.42
1.99
0.83
-0.09
-0.81
-1.38
-1.74
-1.85
-1.67
-1.32
-0.96
-0.73
-0.70
-0.77
-0.77
-0.56
-0.07
0.60
1.28
1.79
1.99
1.85
1.46
0.98
0.62
0.52
0.68
1.00
1.32
1.49
1.46
1.32
1.16
1.02
0.80
0.40
-0.26
-1.11
-1.97
-2.64
-2.95
-2.91
-2.59
-2.13
-1.65
-1.22
-0.91
-0.75
-0.81
-1.07
-1.49
-1.98
-2.38
-2.61
-2.59
-2.35
-1.96
-1.51
-1.10
-0.81
-0.71
-0.81
-1.11
-1.57
-2.09
-2.59
-2.96
-3.12
-3.02
-2.70
-2.23
-1.74
-1.39
-1.29
-1.51
-2.01
-2.68
-3.32
-3.73
-3.78
-3.39
-2.58
-1.48
-0.28
0.83
1.66
2.11
2.23
2.17
2.17
2.38
2.83
3.35
3.74
3.81
3.55
3.12
2.70
2.43
2.30
2.19
2.01
1.75
1.51
1.41
1.52
1.77
2.00
2.03
1.73
1.09
0.21
-0.73
-1.52
-2.00
-2.09
-1.85
-1.42
-0.97
-0.63
-0.44
-0.36
-0.28
-0.15
0.07
0.37
0.72
1.12
1.59
2.10
2.58
2.88
2.87
2.48
1.77
0.94
0.22
-0.22
-0.36
-0.32
-0.33
-0.57
-1.09
-1.82
-2.55
-3.09
-3.33
-3.28
-3.02
-2.68
-2.34
-2.05
-1.80
-1.55
-1.30
-1.04
-0.80
-0.57
-0.29
0.19
0.98
2.13
3.44
4.58
5.16
4.97
4.08
2.82
1.60
0.69
0.09
-0.38
-0.91
-1.57
-2.25
-2.76
-3.05
-3.23
-3.50
-4.03
-4.82
-5.67
-6.35
-6.74
-6.87
-6.93
-7.12
-7.56
-8.21
-8.92
-9.53
-9.91
-10.03
-9.97
-9.89
-9.94
-10.27
-11.01
-12.19
-13.69
-15.15
-15.94
-15.34
-12.76
-8.02
-1.57
5.68
12.60
18.20
21.97
23.92
24.40
23.94
22.95
21.72
20.36
18.93
17.43
15.83
14.12
12.31
10.45
8.67
7.11
5.88
5.04
4.54
4.35
4.40
4.65
5.10
5.75
6.59
7.59
8.68
9.70
10.36
10.34
9.30
7.12
3.98
0.34
-3.14
-5.90
-7.59
-8.18
-7.86
-6.94
-5.70
-4.34
-3.02
-1.86
-1.02
-0.65
-0.85
-1.63
-2.85
-4.28
-5.63
-6.66
-7.22
-7.34
-7.18
-6.92
-6.73
-6.67
-6.68
-6.67
-6.53
-6.22
-5.75
-5.23
-4.79
-4.57
-4.67
-5.07
-5.66
-6.20
-6.46
-6.24
-5.46
-4.18
-2.55
-0.81
0.82
2.15
3.12
3.75
4.11
4.32
4.43
4.44
4.29
3.95
3.40
2.73
2.05
1.51
1.19
1.12
1.21
1.36
1.40
1.22
0.74
-0.03
-1.04
-2.15
-3.20
-4.02
-4.48
-4.50
-4.09
-3.33
-2.33
-1.19
-0.07
0.90
1.56
1.83
1.70
1.32
0.89
0.61
0.56
0.71
0.90
1.01
1.03
1.06
1.27
1.73
2.35
2.89
3.07
2.69
1.73
0.33
-1.25
-2.77
-4.07
-5.10
-5.82
-6.19
-6.16
-5.69
-4.83
-3.74
-2.61
-1.61
-0.80
-0.12
0.55
1.31
2.12
2.89
3.52
4.02
4.52
5.22
6.26
7.62
9.10
10.35
11.11
11.20
10.64
9.53
8.03
6.29
4.44
2.63
1.01
-0.28
-1.18
-1.73
-2.07
-2.32
-2.62
-3.02
-3.50
-4.01
-4.45
-4.72
-4.78
-4.59
-4.23
-3.81
-3.48
-3.39
-3.59
-4.07
-4.76
-5.55
-6.29
-6.81
-6.96
-6.65
-5.87
-4.75
-3.42
-2.02
-0.56
1.02
2.79
4.69
6.53
8.00
8.81
8.86
8.25
7.32
6.42
5.78
5.44
5.23
4.91
4.31
3.37
2.20
0.99
-0.07
-0.88
-1.42
-1.78
-2.05
-2.31
-2.63
-3.00
-3.43
-3.88
-4.33
-4.71
-4.92
-4.87
-4.47
-3.78
-2.95
-2.21
-1.75
-1.63
-1.75
-1.95
-2.02
-1.89
-1.61
-1.28
-1.02
-0.88
-0.90
-1.06
-1.39
-1.89
-2.58
-3.40
-4.23
-4.94
-5.36
-5.39
-4.98
-4.15
-3.00
-1.70
-0.42
0.71
1.63
2.38
3.07
3.79
4.60
5.46
6.23
6.77
6.94
6.76
6.32
5.84
5.50
5.38
5.41
5.42
5.21
4.71
3.98
3.15
2.40
1.80
1.31
0.86
0.36
-0.21
-0.82
-1.40
-1.86
-2.14
-2.22
-2.06
-1.62
-0.89
0.10
1.25
2.39
3.32
3.83
3.80
3.27
2.42
1.55
0.91
0.66
0.77
1.09
1.46
1.75
1.93
1.99
1.94
1.72
1.26
0.47
-0.68
-2.12
-3.78
-5.51
-7.17
-8.58
-9.62
-10.18
-10.28
-10.02
-9.59
-9.16
-8.83
-8.53
-8.08
-7.24
-5.86
-3.96
-1.74
0.49
2.48
4.07
5.24
6.03
6.49
6.62
6.42
5.91
5.18
4.33
3.41
2.45
1.39
0.27
-0.74
-1.33
-1.13
0.03
2.04
4.45
6.61
7.93
8.08
7.09
5.30
3.17
1.10
-0.68
-2.11
-3.16
-3.82
-4.04
-3.75
-3.00
-1.93
-0.75
0.33
1.19
1.80
2.17
2.32
2.23
1.87
1.25
0.54
-0.05
-0.26
0.05
0.85
1.94
3.04
3.88
4.34
4.43
4.26
4.00
3.78
3.67
3.57
3.31
2.66
1.43
-0.36
-2.50
-4.59
-6.25
-7.21
-7.44
-7.15
-6.63
-6.16
-5.88
-5.76
-5.67
-5.45
-5.00
-4.28
-3.35
-2.30
-1.23
-0.21
0.68
1.45
2.09
2.65
3.16
3.63
3.96
4.03
3.70
2.92
1.80
0.59
-0.39
-0.86
-0.69
0.01
0.97
1.83
2.32
2.30
1.80
0.98
0.03
-0.88
-1.68
-2.34
-2.92
-3.44
-3.87
-4.12
-4.10
-3.77
-3.21
-2.60
-2.19
-2.15
-2.54
-3.27
-4.13
-4.86
-5.23
-5.04
-4.25
-2.89
-1.13
0.78
2.58
4.09
5.27
6.13
6.72
7.03
6.98
6.54
5.72
4.69
3.65
2.78
2.14
1.65
1.15
0.52
-0.28
-1.21
-2.12
-2.89
-3.43
-3.69
-3.68
-3.46
-3.16
-2.89
-2.80
-2.95
-3.34
-3.89
-4.46
-4.88
-5.04
-4.92
-4.54
-3.99
-3.37
-2.77
-2.22
-1.80
-1.52
-1.40
-1.40
-1.37
-1.15
-0.63
0.19
1.16
2.01
2.49
2.50
2.10
1.50
0.91
0.52
0.38
0.49
0.84
1.41
2.21
3.14
4.04
4.68
4.91
4.71
4.21
3.58
3.02
2.57
2.25
2.02
1.89
1.95
2.24
2.76
3.41
4.03
4.50
4.75
4.83
4.83
4.85
4.93
5.05
5.17
5.18
5.00
4.56
3.85
2.92
1.86
0.81
-0.15
-0.98
-1.68
-2.30
-2.90
-3.49
-4.11
-4.74
-5.36
-5.89
-6.25
-6.36
-6.24
-5.96
-5.67
-5.53
-5.58
-5.80
-6.05
-6.19
-6.14
-5.90
-5.51
-5.00
-4.40
-3.71
-2.95
-2.15
-1.37
-0.61
0.19
1.14
2.33
3.77
5.33
6.76
7.81
8.31
8.28
7.90
7.42
7.06
6.86
6.71
6.40
5.77
4.79
3.57
2.27
1.00
-0.20
-1.31
-2.29
-3.04
-3.47
-3.54
-3.41
-3.36
-3.65
-4.47
-5.73
-7.17
-8.43
-9.20
-9.33
-8.87
-8.10
-7.40
-7.11
-7.46
-8.41
-9.72
-11.00
-11.95
-12.41
-12.53
-12.60
-12.97
-13.86
-15.25
-16.92
-18.50
-19.70
-20.41
-20.79
-21.28
-22.47
-24.84
-28.60
-33.45
-38.68
-43.36
-46.73
-48.63
-49.72
-51.30
-54.85
-61.35
-70.73
-81.75
-92.56
-101.44
-107.73
-112.19
-116.70
-123.45
-133.93
-148.35
-165.41
-182.58
-196.43
-203.34
-200.24
-185.73
-160.98
-130.04
-98.85
-73.12
-55.94
-46.22
-38.98
-27.45
-6.14
26.62
67.97
111.78
151.22
181.29
200.09
208.67
209.74
206.13
199.83
191.85
182.84
173.69
165.76
160.54
158.93
160.62
164.08
167.08
167.72
165.23
160.31
154.78
150.86
150.22
153.27
159.14
166.05
172.14
176.29
178.57
180.10
182.41
186.69
193.20
201.33
209.96
217.94
224.24
227.75
227.07
220.49
206.46
184.24
154.38
118.62
79.16
37.71
-5.32
-50.59
-98.88
-149.72
-200.51
-246.77
-283.55
-307.27
-317.13
-315.38
-306.30
-294.54
-283.51
-274.78
-268.35
-263.55
-259.79
-256.87
-254.79
-253.46
-252.72
-252.48
-253.07
-255.25
-259.87
-267.29
-276.67
-285.68
-290.81
-288.30
-275.36
-251.18
-217.16
-176.34
-132.09
-86.88
-41.40
5.21
54.40
106.70
160.63
212.55
257.65
291.73
312.80
321.81
322.12
318.01
312.94
308.51
304.64
300.49
295.63
290.74
287.33
286.94
290.23
296.56
304.27
311.34
315.92
316.62
312.49
302.69
286.48
263.31
233.19
196.86
155.69
111.24
64.61
16.29
-33.55
-84.11
-133.30
-177.68
-213.28
-237.05
-248.10
-247.96
-239.96
-227.85
-214.52
-201.42
-188.82
-176.62
-164.89
-154.07
-144.59
-136.41
-128.91
-121.18
-112.56
-102.99
-93.10
-83.90
-76.26
-70.48
-66.07
-62.03
-57.20
-50.85
-42.97
-34.34
-26.22
-19.80
-15.78
-14.09
-14.06
-14.71
-15.27
-15.46
-15.47
-15.75
-16.49
-17.30
-17.20
-14.95
-9.72
-1.66
8.01
17.36
24.49
28.24
28.52
26.10
21.99
16.94
11.27
5.13
-1.20
-7.07
-11.58
-14.04
-14.19
-12.40
-9.36
-5.88
-2.56
0.27
2.57
4.37
5.76
6.79
7.44
7.66
7.39
6.65
5.55
4.33
3.29
2.64
2.47
2.67
3.00
3.24
3.24
3.00
2.62
2.24
1.94
1.80
1.79
1.88
2.00
2.09
2.10
1.98
1.71
1.30
0.82
0.34
-0.06
-0.37
-0.60
-0.81
-1.08
-1.43
-1.86
-2.33
-2.79
-3.19
-3.53
-3.79
-3.98
-4.07
-4.04
-3.90
-3.68
-3.45
-3.25
-3.07
-2.85
-2.53
-2.06
-1.42
-0.72
-0.07
0.44
0.74
0.90
0.97
1.04
1.11
1.11
0.97
0.67
0.30
0.01
-0.04
0.18
0.56
0.92
1.09
1.06
0.96
0.97
1.20
1.63
2.08
2.32
2.17
1.58
0.66
-0.36
-1.19
-1.64
-1.62
-1.19
-0.57
0.01
0.38
0.50
0.46
0.40
0.41
0.49
0.60
0.65
0.65
0.61
0.55
0.43
0.16
-0.33
-1.01
-1.76
-2.34
-2.56
-2.37
-1.88
-1.28
-0.73
-0.31
0.04
0.42
0.81
1.13
1.22
1.00
0.52
-0.00
-0.31
-0.31
-0.07
0.18
0.22
-0.02
-0.46
-0.86
-1.03
-0.92
-0.60
-0.24
0.03
0.18
0.21
0.17
0.10
-0.00
-0.12
-0.24
-0.34
-0.39
-0.39
-0.32
-0.20
-0.04
0.09
0.16
0.13
0.01
-0.13
-0.21
-0.18
-0.05
0.13
0.27
0.35
0.35
0.31
0.25
0.18
0.07
-0.07
-0.19
-0.23
-0.12
0.13
0.45
0.73
0.92
1.03
1.13
1.32
1.60
1.87
1.92
1.53
0.62
-0.71
-2.19
-3.48
-4.32
-4.61
-4.45
-4.03
-3.52
-3.00
-2.47
-1.92
-1.39
-0.96
-0.70
-0.54
-0.32
0.21
1.22
2.69
4.40
5.94
6.96
7.24
6.81
5.87
4.66
3.37
2.08
0.81
-0.40
-1.42
-2.11
-2.36
-2.18
-1.75
-1.30
-1.00
-0.94
-1.03
-1.18
-1.30
-1.41
-1.62
-2.02
-2.67
-3.49
-4.32
-4.96
-5.25
-5.10
-4.55
-3.73
-2.77
-1.78
-0.83
-0.01
0.63
1.02
1.15
1.13
1.17
1.54
2.47
3.99
5.91
7.91
9.63
10.84
11.49
11.68
11.58
11.29
10.81
9.98
8.64
6.66
4.05
0.98
-2.26
-5.32
-7.92
-9.89
-11.17
-11.80
-11.87
-11.46
-10.63
-9.44
-8.00
-6.47
-5.04
-3.88
-3.03
-2.40
-1.77
-0.97
0.10
1.32
2.47
3.26
3.52
3.25
2.58
1.74
0.96
0.40
0.12
0.12
0.31
0.58
