1660333822.00
64.000000
-0.00
-0.00
-0.00
-0.00
-0.00
-0.00
-0.00
-0.00
-0.00
-0.00
0.00
0.01
0.01
-0.00
-0.03
-0.05
-0.05
0.00
0.13
0.36
0.66
1.01
1.37
1.72
2.06
2.40
2.79
3.24
3.80
4.42
5.06
5.67
6.21
6.69
7.15
7.67
8.30
9.14
10.10
11.08
11.95
12.62
13.12
13.60
14.28
15.36
17.09
19.32
21.81
24.23
26.39
28.31
30.28
32.73
36.02
40.57
46.08
52.03
57.80
62.93
67.41
71.66
76.40
82.24
89.86
98.86
108.45
117.62
125.59
132.16
137.83
143.96
149.52
157.10
167.58
181.12
196.28
209.69
216.53
211.88
192.46
157.86
111.13
56.68
-1.04
-59.16
-116.89
-174.78
-233.43
-292.43
-350.21
-404.39
-453.22
-495.71
-531.57
-560.66
-582.48
-596.17
-600.73
-595.39
-579.39
-551.97
-511.88
-457.73
-389.01
-307.20
-216.43
-122.93
-33.47
46.49
113.85
168.01
209.99
241.22
262.90
275.98
281.58
281.32
277.18
270.92
263.62
255.47
245.99
234.54
220.89
205.45
189.21
173.32
158.67
145.60
133.87
122.90
112.10
101.16
90.14
79.39
69.35
60.32
52.38
45.39
39.06
33.12
27.47
22.22
17.61
13.96
11.31
9.46
7.96
6.29
4.07
1.12
-2.46
-6.37
-10.19
-13.49
-15.86
-17.00
-16.83
-15.53
-13.51
-11.28
-9.29
-7.80
-6.81
-6.15
-5.59
-5.00
-4.41
-3.96
-3.76
-3.84
-4.07
-4.24
-4.14
-3.69
-2.98
-2.23
-1.70
-1.54
-1.77
-2.24
-2.70
-2.90
-2.67
-1.95
-0.88
0.33
1.37
1.97
1.96
1.35
0.31
-0.88
-1.93
-2.70
-3.18
-3.47
-3.68
-3.82
-3.81
-3.52
-2.87
-1.94
-0.88
0.05
0.66
0.86
0.64
0.11
-0.61
-1.38
-2.09
-2.65
-2.99
-3.09
-2.96
-2.62
-2.12
-1.49
-0.83
-0.20
0.35
0.88
1.55
2.56
4.02
5.84
7.72
9.23
10.00
9.90
9.00
7.59
5.94
4.24
2.53
0.79
-0.88
-2.40
-3.58
-4.31
-4.65
-4.75
-4.82
-4.97
-5.20
-5.38
-5.44
-5.32
-5.10
-4.89
-4.75
-4.68
-4.62
-4.50
-4.30
-4.08
-3.94
-3.96
-4.20
-4.60
-5.00
-5.14
-4.77
-3.74
-2.07
0.01
2.10
3.81
4.81
5.00
4.43
3.29
1.79
0.11
-1.57
-3.10
-4.34
-5.18
-5.62
-5.71
-5.57
-5.30
-4.97
-4.55
-3.99
-3.26
-2.42
-1.62
-1.09
-1.04
-1.56
-2.58
-3.83
-4.96
-5.65
-5.69
-5.09
-4.05
-2.89
-1.92
-1.39
-1.37
-1.71
-1.99
-1.73
-0.49
1.88
5.23
9.08
12.82
15.89
17.93
18.78
18.51
17.26
15.25
12.73
9.93
7.10
4.42
2.06
0.08
-1.51
-2.68
-3.46
-3.84
-3.87
-3.64
-3.27
-2.86
-2.48
-2.14
-1.86
-1.67
-1.69
-2.09
-2.99
-4.46
-6.39
-8.51
-10.45
-11.77
-12.07
-11.06
-8.67
-5.03
-0.54
4.25
8.69
12.19
14.35
15.00
14.22
12.28
9.54
6.42
3.25
0.33
-2.13
-3.96
-5.03
-5.29
-4.84
-3.88
-2.72
-1.69
-1.04
-0.82
-0.95
-1.22
-1.46
-1.58
-1.60
-1.63
-1.80
-2.24
-3.00
-4.06
-5.32
-6.57
-7.51
-7.85
-7.36
-5.97
-3.80
-1.13
1.68
4.29
6.43
7.95
8.76
8.81
8.10
6.68
4.67
2.32
0.00
-1.87
-2.95
-3.07
-2.37
-1.18
0.01
0.80
0.99
0.63
-0.07
-0.84
-1.46
-1.89
-2.16
-2.38
-2.67
-3.13
-3.83
-4.79
-5.96
-7.12
-7.91
-7.91
-6.72
-4.18
-0.45
3.97
8.40
12.08
14.44
15.22
14.50
12.58
9.86
6.74
3.51
0.38
-2.48
-4.83
-6.45
-7.17
-6.98
-6.07
-4.80
-3.58
-2.72
-2.32
-2.31
-2.48
-2.65
-2.69
-2.61
-2.51
-2.59
-3.09
-4.13
-5.70
-7.56
-9.25
-10.19
-9.93
-8.25
-5.27
-1.41
2.74
6.65
9.88
12.18
13.43
13.64
12.92
11.46
9.49
7.25
4.91
2.65
0.62
-1.04
-2.18
-2.72
-2.68
-2.23
-1.64
-1.13
-0.84
-0.80
-0.95
-1.26
-1.69
-2.23
-2.86
-3.55
-4.26
-4.96
-5.66
-6.31
-6.76
-6.76
-6.00
-4.26
-1.55
1.84
5.40
8.53
10.73
11.77
11.67
10.66
9.03
7.02
4.79
2.47
0.23
-1.74
-3.17
-3.91
-3.96
-3.52
-2.85
-2.20
-1.68
-1.25
-0.84
-0.40
0.02
0.31
0.36
0.10
-0.48
-1.32
-2.39
-3.63
-4.97
-6.29
-7.36
-7.87
-7.53
-6.09
-3.53
-0.07
3.79
7.41
10.20
11.72
11.87
10.85
9.01
6.77
4.44
2.19
0.10
-1.78
-3.36
-4.49
-5.02
-4.92
-4.28
-3.36
-2.48
-1.90
-1.74
-1.96
-2.40
-2.88
-3.31
-3.65
-3.95
-4.27
-4.69
-5.26
-5.94
-6.66
-7.26
-7.51
-7.18
-6.09
-4.20
-1.57
1.57
4.91
8.10
10.81
12.72
13.61
13.40
12.16
10.13
7.66
5.14
2.87
1.08
-0.14
-0.80
-1.02
-0.92
-0.68
-0.45
-0.35
-0.44
-0.69
-1.02
-1.35
-1.63
-1.88
-2.18
-2.62
-3.26
-4.13
-5.20
-6.44
-7.76
-9.00
-9.87
-10.06
-9.25
-7.32
-4.38
-0.84
2.75
5.85
8.09
9.35
9.73
9.47
8.78
7.81
6.66
5.40
4.14
3.04
2.26
1.86
1.81
1.99
2.21
2.37
2.45
2.50
2.61
2.81
3.05
3.23
3.23
2.96
2.39
1.49
0.27
-1.27
-3.08
-5.01
-6.84
-8.25
-8.88
-8.49
-6.99
-4.52
-1.40
1.93
4.99
7.39
8.87
9.30
8.74
7.34
5.34
3.07
0.93
-0.77
-1.78
-2.02
-1.57
-0.59
0.65
1.92
3.13
4.36
5.69
7.16
8.65
9.98
10.99
11.47
11.38
10.91
10.31
9.78
9.23
8.34
6.73
4.20
0.64
-3.76
-8.46
-12.77
-16.05
-18.02
-18.77
-18.56
-17.72
-16.83
-16.45
-16.95
-18.40
-20.69
-23.73
-27.41
-31.44
-33.46
-31.55
-25.39
-16.72
-8.10
-1.28
3.16
5.48
6.37
6.49
5.87
4.24
1.48
-2.02
-5.40
-7.97
-9.41
-9.88
-9.69
-9.28
-8.73
-7.67
-5.41
-1.33
5.18
14.02
24.46
35.17
44.26
49.75
50.38
45.36
36.42
26.11
16.61
9.11
3.68
-0.42
-3.91
-7.00
-9.39
-10.65
-10.83
-10.54
-10.51
-11.13
-12.32
-13.70
-14.76
-15.24
-15.12
-14.72
-14.49
-14.61
-14.92
-14.96
-14.15
-12.07
-8.66
-4.32
0.34
4.49
7.50
9.11
9.45
8.92
7.92
6.71
5.43
4.10
2.73
1.43
0.40
-0.23
-0.40
-0.23
0.10
0.39
0.46
0.21
-0.43
-1.43
-2.73
-4.22
-5.81
-7.38
-8.84
-10.16
-11.38
-12.51
-13.58
-14.55
-15.37
-15.96
-16.15
-15.80
-14.74
-12.89
-10.23
-6.86
-2.98
1.14
4.70
7.06
7.82
6.95
4.78
1.92
-0.90
-3.06
-4.20
-4.27
-3.42
-1.92
-0.06
1.94
3.99
6.14
8.55
11.49
15.19
19.70
24.71
29.46
32.85
33.81
31.67
26.49
19.05
10.61
2.56
-4.01
-8.52
-10.89
-11.38
-10.48
-8.71
-6.66
-4.87
-3.81
-3.84
-5.07
-7.38
-10.40
-13.60
-16.41
-18.41
-19.43
-19.58
-19.12
-18.39
-17.56
-16.64
-15.54
-14.10
-12.23
-9.84
-6.77
-2.82
2.12
7.96
14.14
19.75
23.75
25.37
24.44
21.44
17.27
12.84
8.74
5.12
1.83
-1.31
-4.21
-6.58
-7.99
-8.16
-7.11
-5.20
-2.98
-0.97
0.44
1.09
1.07
0.63
0.04
-0.40
-0.48
-0.09
0.78
2.03
3.42
4.52
4.86
4.06
2.03
-0.81
-3.61
-5.27
-4.86
-2.02
2.89
8.88
14.68
19.20
21.91
23.00
23.15
23.28
24.12
25.96
28.58
31.34
33.43
34.08
32.83
29.53
24.46
18.17
11.48
5.22
0.09
-3.50
-5.52
-6.25
-6.18
-5.83
-5.58
-5.62
-5.84
-5.99
-5.70
-4.66
-2.75
-0.10
2.92
5.78
7.87
8.73
8.14
6.22
3.50
0.69
-1.42
-2.27
-1.67
0.26
3.18
6.80
10.88
15.17
19.18
22.13
23.07
21.35
17.00
10.91
4.46
-1.04
-4.97
-7.59
-9.76
-12.36
-15.72
-19.39
-22.40
-23.68
-22.53
-18.81
-12.98
-5.95
1.03
6.56
9.40
8.76
4.67
-2.01
-9.75
-16.92
-22.29
-25.34
-26.26
-25.64
-24.06
-21.86
-19.16
-15.99
-12.49
-8.90
-5.47
-2.29
0.78
4.07
7.83
12.03
16.20
19.55
21.30
21.04
18.94
15.71
12.29
9.46
7.47
6.05
4.58
2.53
-0.22
-3.25
-5.77
-7.03
-6.64
-4.75
-2.01
0.75
2.80
3.69
3.27
1.56
-1.36
-5.47
-10.63
-16.49
-22.38
-27.36
-30.49
-31.12
-29.18
-25.19
-20.09
-14.91
-10.46
-7.18
-5.13
-4.16
-4.00
-4.37
-4.97
-5.50
-5.72
-5.48
-4.83
-3.98
-3.17
-2.61
-2.37
-2.41
-2.62
-2.93
-3.33
-3.82
-4.44
-5.18
-5.97
-6.70
-7.25
-7.52
-7.44
-7.02
-6.36
-5.68
-5.18
-5.03
-5.24
-5.66
-5.99
-5.89
-5.12
-3.59
-1.39
1.27
4.14
6.95
9.43
11.36
12.55
12.89
12.41
11.26
9.68
7.94
6.27
4.82
3.65
2.81
2.29
2.09
2.19
2.55
3.15
4.00
5.06
6.26
7.39
8.18
8.37
7.84
6.70
5.29
4.05
3.33
3.23
3.54
3.85
3.69
2.76
1.01
-1.22
-3.30
-4.48
-4.07
-1.69
2.65
8.49
15.02
21.24
26.13
28.94
29.33
27.47
23.98
19.75
15.71
12.56
10.66
9.95
10.05
10.38
10.27
9.08
6.40
2.07
-3.63
-10.07
-16.36
-21.63
-25.29
-27.18
-27.56
-26.95
-25.91
-24.80
-23.72
-22.57
-21.19
-19.45
-17.30
-14.79
-12.09
-9.42
-7.06
-5.27
-4.11
-3.40
-2.71
-1.47
0.73
4.04
8.31
13.13
18.04
22.55
26.22
28.58
29.24
27.94
24.75
20.17
15.02
10.20
6.37
3.75
2.08
0.82
-0.56
-2.35
-4.57
-6.97
-9.22
-11.07
-12.38
-13.16
-13.45
-13.27
-12.60
-11.35
-9.47
-6.98
-4.01
-0.80
2.33
5.02
7.00
8.06
8.13
7.24
5.54
3.31
0.88
-1.30
-2.81
-3.35
-2.83
-1.49
0.18
1.56
2.19
1.86
0.74
-0.71
-2.02
-2.91
-3.39
-3.72
-4.26
-5.21
-6.51
-7.82
-8.69
-8.71
-7.61
-5.32
-1.93
2.33
7.08
11.73
15.53
17.73
17.80
15.74
12.08
7.72
3.59
0.36
-1.76
-2.87
-3.18
-2.87
-1.98
-0.55
1.28
3.22
4.84
5.83
6.04
5.62
4.92
4.37
4.27
4.71
5.48
6.15
6.27
5.51
3.84
1.56
-0.79
-2.64
-3.51
-3.14
-1.52
1.20
4.82
9.19
14.22
19.93
26.33
33.31
40.53
47.28
52.62
55.46
54.99
50.78
42.90
31.78
18.12
2.82
-12.91
-27.54
-39.36
-46.90
-49.46
-47.41
-42.16
-35.57
-29.31
-24.27
-20.49
-17.42
-14.43
-11.19
-7.75
-4.46
-1.69
0.25
1.22
1.18
0.07
-2.12
-5.27
-9.04
-12.84
-15.96
-17.78
-18.14
-17.36
-16.19
-15.42
-15.60
-16.83
-18.87
-21.30
-23.80
-26.17
-28.24
-29.67
-30.03
-28.86
-25.95
-21.60
-16.53
-11.73
-8.06
-5.95
-5.34
-5.77
-6.62
-7.39
-7.85
-8.04
-8.16
-8.39
-8.83
-9.42
-10.00
-10.40
-10.41
-9.78
-8.15
-5.05
-0.01
7.20
16.47
27.25
38.68
49.80
59.74
67.84
73.56
76.54
76.54
73.57
67.88
59.96
50.34
39.46
27.80
15.97
4.93
-4.15
-10.22
-12.83
-12.41
-10.18
-7.66
-6.06
-5.86
-6.79
-8.15
-9.25
-9.74
-9.62
-9.10
-8.38
-7.56
-6.69
-5.78
-4.92
-4.19
-3.59
-2.97
-2.03
-0.43
2.00
5.04
7.97
9.72
9.12
5.46
-1.12
-9.51
-17.92
-24.47
-27.85
-27.79
-25.02
-20.90
-16.82
-13.83
-12.41
-12.61
-14.19
-16.78
-19.91
-23.10
-25.93
-28.10
-29.48
-30.10
-29.99
-29.20
-27.72
-25.66
-23.23
-20.71
-18.33
-16.06
-13.65
-10.77
-7.23
-3.23
0.73
4.00
6.12
7.01
7.01
6.79
7.05
8.38
11.07
15.11
20.09
25.35
30.07
33.48
35.07
34.77
32.89
30.04
26.87
23.80
20.98
18.23
15.27
11.87
8.04
4.09
0.49
-2.33
-4.18
-5.21
-5.86
-6.66
-7.98
-9.99
-12.67
-15.94
-19.72
-23.95
-28.53
-33.25
-37.82
-41.87
-45.11
-47.20
-47.85
-46.74
-43.73
-38.96
-32.93
-26.38
-20.10
-14.63
-10.19
-6.70
-3.94
-1.66
0.39
2.54
5.19
8.73
13.32
18.82
24.73
30.30
34.81
37.74
38.92
38.48
36.79
34.27
31.26
27.92
24.31
20.44
16.45
12.63
9.32
6.79
5.09
4.02
3.24
2.49
1.71
1.05
0.77
1.13
2.22
4.01
6.34
8.95
11.46
13.35
13.98
12.71
9.07
3.11
-4.53
-12.61
-19.63
-24.31
-26.05
-25.06
-22.17
-18.44
-14.69
-11.31
-8.33
-5.71
-3.51
-1.94
-1.18
-1.18
-1.60
-1.88
-1.55
-0.40
1.47
3.74
6.07
8.24
10.24
12.16
14.07
15.93
17.55
18.58
18.69
17.61
15.30
12.00
8.21
4.57
1.63
-0.39
-1.66
-2.69
-4.08
-6.16
-8.87
-11.74
-14.11
-15.51
-15.75
-15.04
-13.78
-12.43
-11.37
-10.86
-11.10
-12.17
-14.06
-16.55
-19.30
-21.88
-23.90
-25.15
-25.63
-25.46
-24.81
-23.81
-22.49
-20.81
-18.73
-16.24
-13.40
-10.28
-6.94
-3.46
0.14
3.81
7.50
11.18
14.88
18.67
22.59
26.57
30.26
33.13
34.53
34.01
31.54
27.69
23.46
20.05
18.50
19.36
22.57
27.41
32.71
37.12
39.45
38.98
35.59
29.80
22.52
14.82
7.65
1.72
-2.52
-4.93
-5.60
-4.90
-3.42
-1.83
-0.72
-0.39
-0.77
-1.53
-2.30
-2.92
-3.51
-4.40
-5.96
-8.39
-11.56
-15.03
-18.20
-20.43
-21.15
-19.97
-16.75
-11.70
-5.44
1.08
6.74
10.65
12.33
11.93
10.08
7.61
5.17
3.10
1.36
-0.27
-2.01
-3.94
-6.02
-8.23
-10.53
-12.93
-15.36
-17.68
-19.65
-21.10
-21.94
-22.25
-22.21
-21.95
-21.53
-20.88
-19.89
-18.45
-16.55
-14.27
-11.77
-9.23
-6.77
-4.40
-1.89
1.18
5.32
10.83
17.62
25.02
31.93
37.22
40.14
40.66
39.39
37.32
35.31
33.74
32.43
30.83
28.36
24.69
19.87
14.26
8.31
2.39
-3.24
-8.41
-12.92
-16.51
-18.87
-19.77
-19.28
-17.72
-15.68
-13.78
-12.48
-11.93
-11.95
-12.18
-12.29
-12.03
-11.29
-10.03
-8.25
-5.94
-3.15
-0.04
3.09
5.90
8.05
9.33
9.68
9.16
7.86
5.77
2.83
-1.04
-5.76
-10.99
-16.10
-20.39
-23.29
-24.56
-24.39
-23.21
-21.54
-19.78
-18.16
-16.84
-15.98
-15.78
-16.35
-17.57
-19.08
-20.38
-21.03
-20.90
-20.26
-19.61
-19.44
-19.93
-20.79
-21.31
-20.61
-17.92
-12.88
-5.55
3.54
13.64
23.82
33.10
40.50
45.21
46.78
45.36
41.68
36.86
32.08
28.16
25.42
23.70
22.67
21.97
21.43
20.91
20.25
19.17
17.30
14.34
10.21
5.16
-0.30
-5.52
-9.91
-13.15
-15.24
-16.45
-17.21
-17.91
-18.74
-19.62
-20.17
-19.90
-18.28
-14.94
-9.79
-3.10
4.47
11.95
18.18
22.10
23.11
21.26
17.27
12.29
7.49
3.62
0.85
-1.15
-2.83
-4.47
-6.02
-7.20
-7.78
-7.82
-7.71
-7.97
-9.01
-10.92
-13.43
-16.10
-18.46
-20.18
-21.16
-21.43
-21.15
-20.50
-19.71
-18.98
-18.50
-18.30
-18.27
-18.05
-17.19
-15.32
-12.28
-8.24
-3.58
1.23
5.90
10.38
14.84
19.52
24.50
29.53
34.03
37.20
38.32
36.97
33.28
27.97
22.09
16.72
12.63
10.06
8.76
8.23
7.98
7.78
7.68
7.89
8.57
9.77
11.47
13.64
16.26
19.26
22.41
25.27
27.40
28.53
28.80
28.80
29.20
30.36
32.01
33.29
33.16
31.00
26.96
21.86
16.86
12.85
10.18
8.55
7.25
5.45
2.49
-1.88
-7.48
-13.74
-19.86
-25.03
-28.71
-30.74
-31.38
-31.10
-30.38
-29.57
-28.91
-28.58
-28.77
-29.68
-31.36
-33.64
-36.15
-38.46
-40.25
-41.47
-42.39
-43.46
-45.09
-47.45
-50.24
-52.77
-54.13
-53.44
-50.18
-44.36
-36.53
-27.57
-18.46
-9.96
-2.43
4.15
10.10
15.88
21.85
28.25
35.12
42.25
49.18
55.12
59.10
60.15
57.71
51.89
43.56
34.10
24.93
17.07
10.87
6.14
2.46
-0.53
-2.93
-4.72
-5.88
-6.54
-7.02
-7.65
-8.62
-9.94
-11.47
-13.01
-14.36
-15.37
-15.90
-15.82
-15.08
-13.72
-11.96
-10.08
-8.41
-7.19
-6.55
-6.49
-6.95
-7.82
-8.94
-10.11
-11.09
-11.65
-11.64
-11.01
-9.94
-8.70
-7.69
-7.28
-7.65
-8.75
-10.28
-11.78
-12.79
-13.11
-12.76
-11.97
-10.99
-10.00
-9.07
-8.20
-7.45
-6.95
-6.90
-7.40
-8.36
-9.47
-10.25
-10.26
-9.20
-7.11
-4.29
-1.22
1.64
3.99
5.73
6.93
7.76
8.35
8.78
9.13
9.47
9.88
10.45
11.26
12.31
13.56
14.91
16.26
17.46
18.33
18.72
18.59
18.04
17.28
16.58
16.11
15.90
15.79
15.54
14.91
13.77
12.13
10.17
8.12
6.20
4.56
3.22
2.12
1.25
0.72
0.78
1.79
3.99
7.41
11.70
16.24
20.26
23.11
24.40
24.07
22.33
19.58
16.21
12.60
9.06
5.81
2.97
0.53
-1.72
-4.08
-6.83
-10.08
-13.58
-16.80
-19.07
-19.89
-19.15
-17.22
-14.82
-12.74
-11.53
-11.36
-12.03
-13.15
-14.39
-15.59
-16.84
-18.35
-20.28
-22.58
-24.94
-26.84
-27.72
-27.13
-24.90
-21.16
-16.35
-11.01
-5.62
-0.47
4.45
9.33
14.45
20.07
26.29
33.08
40.32
47.76
54.97
61.33
66.04
68.35
67.81
64.55
59.27
52.94
46.37
39.90
33.34
26.26
18.35
9.72
0.86
-7.59
-15.16
-21.69
-27.22
-31.86
-35.68
-38.65
-40.82
-42.39
-43.65
-44.79
-45.82
-46.42
-46.10
-44.41
-41.11
-36.28
-30.37
-23.99
-17.83
-12.42
-8.04
-4.65
-1.92
0.71
3.86
8.02
13.38
19.71
26.37
32.34
36.52
38.02
36.46
32.13
25.91
18.97
12.36
6.68
2.03
-1.87
-5.44
-8.97
-12.52
-15.97
-19.12
-21.80
-23.87
-25.32
-26.14
-26.38
-26.05
-25.19
-23.83
-22.09
-20.17
-18.30
-16.72
-15.56
-14.78
-14.24
-13.70
-12.99
-11.99
-10.64
-8.83
-6.39
-3.03
1.55
7.59
15.06
23.57
32.28
39.97
45.35
47.47
46.08
41.80
35.83
29.55
23.99
19.56
16.19
13.49
11.10
8.77
6.33
3.58
0.26
-3.86
-8.75
-14.09
-19.17
-23.17
-25.32
-25.24
-22.98
-19.06
-14.28
-9.46
-5.18
-1.66
1.26
3.89
6.53
9.30
12.10
14.70
16.88
18.51
19.55
20.11
20.34
20.35
20.18
19.71
18.74
17.09
14.70
11.71
8.39
4.97
1.53
-2.03
-5.82
-9.83
-13.75
-17.14
-19.58
-20.97
-21.67
-22.30
-23.48
-25.45
-27.92
-30.18
-31.39
-30.98
-28.85
-25.42
-21.36
-17.29
-13.46
-9.70
-5.62
-0.87
4.54
10.19
15.34
19.30
21.66
22.47
22.22
21.68
21.70
23.06
26.23
31.18
37.23
42.98
46.57
46.26
41.14
31.57
19.16
6.18
-5.28
-14.04
-20.06
-24.10
-27.13
-29.82
-32.35
-34.63
-36.57
-38.26
-39.86
-41.34
-42.28
-41.94
-39.59
-34.88
-28.09
-20.09
-12.09
-5.14
0.12
3.63
5.81
7.25
8.51
9.92
11.55
13.33
15.11
16.77
18.28
19.68
21.01
22.21
23.04
23.05
21.68
18.49
13.35
6.54
-1.24
-9.10
-16.17
-21.84
-25.83
-28.21
-29.25
-29.37
-28.90
-28.07
-26.88
-25.19
-22.82
-19.72
-16.04
-12.08
-8.15
-4.43
-0.94
2.40
5.60
8.47
10.66
11.79
11.70
10.58
8.90
7.24
6.05
5.51
5.51
5.84
6.27
6.78
7.61
9.19
12.10
16.87
23.92
33.28
44.45
56.21
66.64
73.46
74.60
68.90
56.61
39.44
20.00
1.04
-15.30
-27.91
-36.58
-41.67
-43.66
-43.04
-40.29
-35.99
-30.90
-25.79
-21.27
-17.61
-14.75
-12.34
-9.95
-7.21
-4.03
-0.60
2.59
4.91
5.88
5.37
3.71
1.60
-0.23
-1.28
-1.43
-0.93
-0.17
0.52
0.96
1.12
1.00
0.58
-0.24
-1.51
-3.24
-5.34
-7.70
-10.21
-12.74
-15.13
-17.17
-18.62
-19.28
-19.09
-18.17
-16.75
-15.07
-13.30
-11.53
-9.76
-8.00
-6.33
-4.89
-3.80
-3.14
-2.82
-2.62
-2.21
-1.31
0.26
2.45
5.03
7.70
10.19
12.45
14.60
16.90
19.62
23.00
27.24
32.55
39.05
46.58
54.55
61.85
67.05
68.82
66.41
59.81
49.58
36.54
21.43
4.94
-12.07
-28.30
-42.11
-51.94
-56.88
-57.19
-54.17
-49.65
-45.30
-42.06
-40.01
-38.67
-37.47
-36.08
-34.54
-33.06
-31.76
-30.46
-28.63
-25.54
-20.59
-13.57
-4.85
4.69
13.80
21.17
25.75
26.93
24.70
19.71
13.12
6.36
0.72
-3.04
-4.89
-5.47
-5.77
-6.67
-8.49
-10.94
-13.21
-14.39
-13.84
-11.45
-7.58
-2.92
1.87
6.32
10.20
13.44
16.01
17.81
18.71
18.66
17.71
16.12
14.25
12.44
10.86
9.50
8.17
6.61
4.63
2.17
-0.64
-3.60
-6.50
-9.19
-11.63
-13.82
-15.77
-17.46
-18.84
-19.89
-20.67
-21.34
-22.04
-22.82
-23.51
-23.69
-22.77
-20.16
-15.50
-8.85
-0.77
7.80
15.79
22.28
26.81
29.39
30.34
30.11
29.00
27.09
24.34
20.75
16.56
12.33
8.87
6.96
7.13
9.39
13.21
17.66
21.63
24.20
24.79
23.22
19.63
14.40
8.05
1.27
-5.10
-10.32
-13.91
-15.88
-16.67
-16.83
-16.64
-16.01
-14.61
-12.29
-9.46
-7.02
-5.90
-6.44
-8.15
-9.79
-10.07
-8.25
-4.53
0.15
4.68
8.24
10.62
12.02
12.76
12.94
12.41
10.89
8.26
4.70
0.73
-3.04
-6.08
-8.15
-9.36
-10.08
-10.77
-11.82
-13.37
-15.37
-17.58
-19.68
-21.40
-22.50
-22.83
-22.31
-20.97
-18.92
-16.41
-13.70
-11.02
-8.45
-5.89
-3.14
-0.03
3.46
7.16
10.80
14.12
16.95
19.26
21.09
22.44
23.22
23.29
22.55
21.02
18.91
16.54
14.25
12.31
10.78
9.58
8.55
7.58
6.66
5.90
5.39
5.12
4.87
4.31
3.15
1.30
-1.12
-3.80
-6.35
-8.47
-9.94
-10.69
-10.72
-10.12
-9.08
-7.91
-6.99
-6.62
-6.95
-7.93
-9.32
-10.84
-12.27
-13.47
-14.38
-14.94
-15.02
-14.45
-13.04
-10.72
-7.65
-4.20
-0.97
1.44
2.61
2.56
1.75
1.01
1.27
3.19
6.96
12.22
18.20
23.98
28.71
31.81
32.97
32.16
29.54
25.48
20.54
15.45
10.97
7.73
6.08
5.93
6.85
8.18
9.25
9.58
8.99
7.60
5.73
3.74
1.91
0.33
-1.08
-2.49
-4.03
-5.69
-7.22
-8.24
-8.35
-7.37
-5.41
-2.85
-0.16
2.27
4.29
6.02
7.70
9.56
11.75
14.27
16.98
19.52
21.22
21.14
18.37
12.40
3.59
-6.75
-16.64
-24.11
-27.96
-28.08
-25.38
-21.24
-16.95
-13.23
-10.31
-8.20
-6.91
-6.62
-7.58
-9.83
-13.12
-16.82
-20.18
-22.51
-23.45
-23.07
-21.81
-20.22
-18.73
-17.46
-16.19
-14.54
-12.11
-8.69
-4.33
0.73
6.15
11.55
16.49
20.49
23.12
24.20
23.93
22.97
22.22
22.47
24.09
26.79
29.77
31.94
32.30
30.18
25.34
18.05
8.94
-1.02
-10.76
-19.22
-25.64
-29.71
-31.57
-31.68
-30.61
-28.88
-26.84
-24.63
-22.33
-20.01
-17.81
-15.92
-14.56
-13.87
-13.91
-14.59
-15.72
-17.03
-18.28
-19.30
-20.10
-20.80
-21.62
-22.71
-24.04
-25.37
-26.37
-26.75
-26.42
-25.50
-24.25
-22.92
-21.57
-20.04
-18.06
-15.36
-11.84
-7.61
-2.89
2.10
7.18
12.22
17.02
21.13
23.91
24.69
23.06
19.25
14.16
9.20
5.78
4.89
6.70
10.67
15.83
21.19
26.11
30.38
34.04
37.28
40.20
42.84
45.21
47.35
49.27
50.87
51.77
51.34
48.81
43.62
35.68
25.56
14.34
3.32
-6.39
-14.21
-20.12
-24.44
-27.52
-29.57
-30.62
-30.63
-29.72
-28.19
-26.47
-24.76
-22.96
-20.59
-17.11
-12.21
-6.02
0.91
7.84
14.15
19.70
24.89
30.48
37.14
45.07
53.85
62.54
69.84
74.34
75.01
71.29
63.23
51.23
36.00
18.85
1.58
-13.83
-25.82
-33.34
-36.06
-34.45
-29.81
-24.02
-18.57
-14.27
-11.26
-9.34
-7.84
-5.76
-2.02
3.90
11.64
20.36
28.56
34.03
33.91
26.12
10.18
-10.65
-29.78
-43.41
-50.91
-53.88
-52.60
-48.56
-43.06
-36.77
-29.83
-22.66
-16.32
-11.81
-9.60
-9.43
-10.71
-12.19
-12.60
-11.08
-7.72
-3.53
0.57
4.06
6.91
9.12
10.92
12.53
14.09
15.46
16.32
16.51
16.09
15.20
13.78
11.82
9.44
6.84
4.17
1.40
-1.51
-4.71
-8.31
-12.50
-17.11
-21.68
-25.52
-28.00
-28.72
-27.64
-25.18
-22.25
-20.17
-20.10
-22.76
-28.22
-35.96
-45.02
-54.24
-62.54
-69.16
-73.77
-76.13
-76.07
-73.61
-69.06
-62.98
-56.01
-48.72
-41.51
-34.66
-27.95
-20.80
-12.59
-2.97
8.04
20.10
32.58
45.41
56.87
64.74
67.92
67.08
63.94
60.18
56.74
53.74
50.66
46.66
41.39
35.25
29.11
23.90
20.19
18.07
17.20
16.99
16.82
16.50
16.06
15.47
14.55
13.07
11.09
9.00
7.31
6.28
5.87
5.71
5.30
4.27
2.57
0.51
-1.46
-2.91
-3.66
-3.73
-3.27
-2.57
-2.01
-1.91
-2.38
-3.23
-4.08
-4.55
-4.36
-3.50
-2.19
-0.80
0.27
0.70
0.29
-0.86
-2.50
-4.20
-5.60
-6.62
-7.42
-8.28
-9.39
-10.69
-12.00
-13.23
-14.49
-16.00
-17.67
-18.80
-18.08
-14.26
-6.92
3.12
13.50
21.72
26.00
25.94
22.46
17.15
11.59
6.96
3.96
2.87
3.71
6.01
8.92
11.40
12.65
12.39
10.84
8.42
5.52
2.33
-0.99
-4.16
-6.73
-8.29
-8.72
-8.38
-7.94
-8.06
-9.01
-10.66
-12.51
-13.98
-14.61
-14.08
-12.24
-9.17
-5.20
-0.91
3.01
5.96
7.60
7.93
7.22
5.85
4.15
2.39
0.73
-0.66
-1.69
-2.29
-2.45
-2.25
-1.79
-1.24
-0.71
-0.28
0.04
0.28
0.46
0.57
0.57
0.44
0.17
-0.20
-0.57
-0.84
-0.96
-0.89
-0.65
-0.31
-0.00
0.07
-0.30
-1.19
-2.45
-3.70
-4.37
-3.95
-2.21
0.71
4.30
7.91
10.90
12.87
13.61
13.09
11.43
8.83
5.58
2.10
-1.13
-3.64
-5.11
-5.43
-4.76
-3.48
-2.04
-0.86
-0.21
-0.14
-0.49
-0.98
-1.33
-1.35
-1.08
-0.72
-0.54
-0.80
-1.55
-2.69
-3.89
-4.77
-5.08
-4.90
-4.60
-4.83
-6.18
-8.97
-13.05
-17.66
-21.64
-23.60
-22.37
-17.32
-8.63
2.62
14.65
25.35
32.88
36.13
35.06
30.64
24.53
18.45
13.65
10.62
9.03
8.13
7.11
5.40
2.87
-0.36
-4.04
-7.97
-12.01
-16.00
-19.64
-22.51
-24.27
-24.78
-24.31
-23.47
-22.94
-23.30
-24.81
-27.33
-30.49
-33.73
-36.42
-37.90
-37.59
-35.15
-30.59
-24.40
-17.39
-10.51
-4.50
0.28
3.81
6.36
8.25
9.82
11.38
13.27
15.88
19.52
24.29
29.95
35.81
40.96
44.49
45.87
45.10
42.71
39.50
36.16
33.06
30.17
27.19
23.91
20.27
16.46
12.73
9.22
5.90
2.58
-0.98
-4.92
-9.22
-13.70
-18.02
-21.74
-24.35
-25.41
-24.60
-21.91
-17.62
-12.25
-6.40
-0.62
4.74
9.52
13.71
17.35
20.44
22.93
24.81
26.09
26.74
26.70
25.84
24.08
21.44
18.11
14.43
10.90
8.02
6.08
5.13
5.02
5.55
6.43
7.22
7.32
6.26
3.89
0.44
-3.57
-7.56
-11.05
-13.81
-15.90
-17.40
-17.96
-16.87
-13.39
-7.32
0.85
10.20
19.76
