1660927491.00
64.000000
-0.00
-0.00
-0.00
-0.00
-0.00
-0.00
-0.00
-0.00
-0.00
-0.00
0.00
0.01
0.01
-0.00
-0.03
-0.05
-0.05
0.00
0.13
0.36
0.66
1.01
1.37
1.72
2.06
2.40
2.79
3.25
3.81
4.44
5.09
5.73
6.32
6.91
7.53
8.27
9.15
10.25
11.44
12.63
13.71
14.64
15.53
16.55
17.91
19.74
22.23
25.14
28.21
31.16
33.87
36.48
39.33
42.85
47.31
53.01
59.55
66.39
73.02
79.22
85.19
91.52
98.86
107.63
118.14
129.73
141.57
152.92
163.50
173.67
184.26
196.56
208.97
223.33
239.88
258.61
278.55
297.30
311.11
315.69
307.61
285.51
251.07
207.52
158.97
108.97
59.73
12.24
-33.15
-76.22
-116.70
-154.27
-189.63
-224.14
-259.42
-296.41
-334.28
-370.11
-399.32
-417.27
-420.95
-410.34
-388.53
-360.40
-330.75
-302.70
-277.22
-253.75
-231.41
-209.78
-189.26
-170.51
-153.78
-138.69
-124.39
-110.14
-95.68
-81.37
-67.96
-56.21
-46.53
-38.75
-32.27
-26.28
-20.12
-13.52
-6.65
-0.01
5.86
10.59
14.12
16.69
18.70
20.51
22.31
24.04
25.54
26.58
27.05
26.97
26.48
25.78
25.08
24.49
24.03
23.63
23.19
22.63
21.90
21.01
20.06
19.16
18.41
17.85
17.49
17.29
17.21
17.22
17.30
17.36
17.30
16.99
16.37
15.50
14.55
13.74
13.22
13.05
13.12
13.25
13.29
13.12
12.74
12.23
11.69
11.24
10.96
10.88
11.00
11.23
11.47
11.59
11.52
11.24
10.75
10.12
9.41
8.66
7.94
7.31
6.77
6.33
5.94
5.57
5.19
4.82
4.53
4.33
4.23
4.16
4.03
3.80
3.43
2.96
2.42
1.85
1.29
0.75
0.26
-0.15
-0.47
-0.71
-0.95
-1.27
-1.79
-2.51
-3.38
-4.27
-5.01
-5.51
-5.79
-5.92
-6.04
-6.26
-6.60
-7.04
-7.50
-7.96
-8.38
-8.73
-8.98
-9.07
-8.98
-8.69
-8.28
-7.82
-7.38
-6.98
-6.59
-6.15
-5.62
-4.98
-4.24
-3.45
-2.66
-1.93
-1.29
-0.78
-0.39
-0.14
0.01
0.08
0.14
0.23
0.35
0.48
0.55
0.50
0.32
0.09
-0.07
-0.07
0.18
0.68
1.38
2.25
3.28
4.45
5.74
7.04
8.18
8.97
9.26
8.99
8.21
7.09
5.86
4.77
4.00
3.64
3.64
3.81
3.93
3.79
3.30
2.54
1.72
1.12
0.94
1.25
1.94
2.79
3.56
4.09
4.36
4.42
4.39
4.34
4.30
4.22
4.09
3.94
3.81
3.77
3.79
3.79
3.61
3.18
2.53
1.81
1.23
0.95
1.03
1.34
1.70
1.93
1.97
1.87
1.75
1.71
1.79
1.93
2.03
2.03
1.91
1.74
1.56
1.44
1.38
1.37
1.38
1.44
1.56
1.72
1.89
1.98
1.94
1.74
1.44
1.10
0.82
0.62
0.49
0.39
0.29
0.20
0.18
0.28
0.53
0.89
1.26
1.54
1.68
1.68
1.61
1.53
1.50
1.49
1.45
1.29
1.01
0.66
0.35
0.22
0.31
0.59
0.94
1.26
1.49
1.62
1.70
1.79
1.87
1.91
1.86
1.69
1.41
1.06
0.72
0.46
0.33
0.32
0.38
0.46
0.49
0.45
0.37
0.31
0.31
0.40
0.54
0.69
0.82
0.90
0.96
1.01
1.01
0.95
0.80
0.57
0.35
0.24
0.30
0.53
0.83
1.07
1.18
1.14
1.02
0.90
0.83
0.79
0.74
0.64
0.44
0.18
-0.08
-0.26
-0.32
-0.23
-0.05
0.15
0.24
0.18
-0.00
-0.21
-0.30
-0.22
-0.02
0.17
0.25
0.18
0.05
-0.02
0.06
0.29
0.59
0.84
1.01
1.05
1.01
0.90
0.75
0.57
0.41
0.32
0.36
0.53
0.78
1.02
1.18
1.23
1.19
1.07
0.86
0.56
0.17
-0.25
-0.55
-0.63
-0.43
-0.00
0.48
0.84
0.95
0.80
0.45
0.03
-0.34
-0.57
-0.58
-0.34
0.10
0.62
1.04
1.17
0.92
0.34
-0.43
-1.21
-1.84
-2.27
-2.54
-2.72
-2.90
-3.10
-3.34
-3.58
-3.75
-3.86
-3.95
-4.10
-4.46
-5.13
-6.12
-7.32
-8.53
-9.55
-10.30
-10.84
-11.41
-12.27
-13.59
-15.38
-17.46
-19.62
-21.70
-23.76
-26.03
-28.78
-32.20
-36.24
-40.63
-44.90
-48.64
-51.61
-53.90
-55.95
-58.39
-61.88
-66.79
-73.07
-80.26
-87.69
-94.80
-101.36
-107.57
-113.89
-120.85
-128.98
-138.69
-150.18
-163.08
-175.94
-186.11
-190.08
-184.52
-167.55
-139.51
-102.60
-59.67
-12.78
37.36
90.61
145.80
199.52
246.29
280.36
298.26
300.50
291.50
277.71
264.87
256.13
251.65
249.54
247.42
243.36
236.11
224.92
209.48
190.27
169.11
149.22
134.35
127.27
128.01
133.13
136.62
132.32
116.70
90.59
59.08
29.50
8.50
-0.44
1.99
11.81
23.77
33.62
39.15
39.80
35.32
24.69
6.26
-20.89
-55.36
-92.69
-126.38
-150.24
-160.99
-159.51
-150.15
-138.43
-128.47
-121.61
-116.71
-111.63
-104.99
-96.78
-88.30
-81.01
-75.71
-72.15
-69.33
-66.04
-61.53
-55.83
-49.62
-43.86
-39.28
-36.09
-33.86
-31.89
-29.49
-26.36
-22.67
-18.95
-15.76
-13.44
-11.96
-10.97
-10.06
-8.92
-7.48
-5.91
-4.45
-3.29
-2.48
-1.97
-1.62
-1.33
-1.01
-0.63
-0.20
0.26
0.68
0.97
1.06
0.90
0.54
0.05
-0.44
-0.80
-0.92
-0.79
-0.47
-0.08
0.21
0.31
0.21
-0.01
-0.20
-0.25
-0.16
0.02
0.19
0.28
0.32
0.40
0.61
0.94
1.29
1.50
1.42
1.03
0.45
-0.11
-0.45
-0.48
-0.24
0.16
0.55
0.84
1.01
1.10
1.15
1.20
1.25
1.26
1.22
1.11
0.95
0.79
0.69
0.65
0.68
0.72
0.73
0.66
0.50
0.28
0.03
-0.17
-0.25
-0.19
0.00
0.23
0.38
0.33
0.06
-0.37
-0.83
-1.17
-1.36
-1.41
-1.41
-1.41
-1.40
-1.30
-1.04
-0.63
-0.14
0.30
0.59
0.72
0.73
0.70
0.68
0.65
0.61
0.54
0.46
0.44
0.49
0.58
0.62
0.51
0.23
-0.16
-0.56
-0.86
-1.03
-1.11
-1.15
-1.18
-1.16
-1.02
-0.73
-0.33
0.06
0.30
0.35
0.23
0.07
-0.00
0.06
0.22
0.41
0.52
0.51
0.38
0.15
-0.14
-0.42
-0.62
-0.65
-0.46
-0.08
0.39
0.83
1.11
1.16
1.01
0.71
0.36
0.02
-0.24
-0.41
-0.47
-0.43
-0.33
-0.22
-0.14
-0.12
-0.16
-0.23
-0.29
-0.28
-0.17
0.03
0.26
0.43
0.42
0.19
-0.26
-0.78
-1.21
-1.40
-1.28
-0.90
-0.40
0.07
0.35
0.39
0.21
-0.09
-0.39
-0.57
-0.55
-0.33
0.00
0.32
0.48
0.39
0.08
-0.34
-0.70
-0.86
-0.78
-0.51
-0.19
0.04
0.11
0.04
-0.07
-0.12
-0.07
0.07
0.19
0.21
0.11
-0.06
-0.18
-0.17
-0.03
0.18
0.36
0.44
0.42
0.36
0.33
0.35
0.43
0.48
0.43
0.23
-0.12
-0.57
-1.03
-1.42
-1.73
-1.98
-2.25
-2.59
-2.99
-3.37
-3.60
-3.61
-3.42
-3.15
-2.97
-3.02
-3.32
-3.80
-4.34
-4.81
-5.11
-5.26
-5.30
-5.31
-5.39
-5.63
-6.09
-6.74
-7.49
-8.13
-8.39
-7.98
-6.70
-4.50
-1.53
1.90
5.37
8.46
10.92
12.62
13.62
14.06
14.13
13.99
13.75
13.40
12.92
12.20
11.18
9.87
8.37
6.84
5.48
4.36
3.48
2.74
2.05
1.40
0.85
0.47
0.25
0.13
-0.04
-0.32
-0.72
-1.20
-1.67
-2.12
-2.57
-3.03
-3.48
-3.81
-3.88
-3.59
-2.92
-2.03
-1.10
-0.33
0.20
0.51
0.70
0.86
1.06
1.25
1.39
1.43
1.36
1.22
1.06
0.89
0.69
0.47
0.23
0.05
-0.03
-0.00
0.10
0.19
0.21
0.14
-0.01
-0.20
-0.44
-0.74
-1.13
-1.62
-2.16
-2.66
-3.08
-3.38
-3.59
-3.76
-3.92
-4.05
-4.07
-3.89
-3.47
-2.83
-2.11
-1.50
-1.14
-1.05
-1.14
-1.26
-1.26
-1.08
-0.75
-0.35
0.02
0.33
0.55
0.67
0.73
0.74
0.72
0.70
0.67
0.59
0.40
0.08
-0.30
-0.64
-0.84
-0.94
-1.10
-1.56
-2.50
-3.90
-5.52
-6.98
-7.93
-8.24
-8.02
-7.63
-7.49
-7.91
-8.99
-10.57
-12.34
-13.91
-14.99
-15.46
-15.46
-15.29
-15.33
-15.97
-17.49
-20.01
-23.38
-27.07
-30.20
-31.70
-30.76
-27.26
-22.07
-16.84
-13.44
-13.21
-16.47
-22.45
-29.74
-36.95
-43.19
-48.28
-52.59
-56.72
-61.24
-66.49
-72.58
-79.35
-86.60
-94.07
-101.60
-109.11
-116.54
-123.91
-131.44
-139.70
-149.35
-160.62
-172.60
-182.82
-187.58
-183.01
-166.38
-137.00
-96.32
-47.29
6.30
60.42
110.88
153.67
185.51
204.77
212.10
210.40
203.76
196.04
189.69
185.47
182.98
181.63
181.24
182.12
184.69
189.00
194.57
200.53
206.01
210.41
213.65
216.09
218.30
220.73
223.55
226.64
229.83
233.13
236.54
239.65
241.17
238.85
229.96
212.26
184.94
148.81
105.78
57.96
7.09
-45.22
-96.78
-144.25
-183.50
-210.90
-224.85
-226.60
-219.81
-208.92
-197.43
-186.92
-177.20
-167.26
-156.39
-144.68
-132.91
-121.96
-112.36
-104.09
-96.76
-89.89
-83.15
-76.47
-70.02
-64.08
-58.87
-54.38
-50.34
-46.31
-41.90
-36.99
-31.85
-27.00
-22.98
-20.07
-18.17
-16.87
-15.65
-14.13
-12.19
-9.99
-7.82
-5.95
-4.54
-3.56
-2.84
-2.20
-1.47
-0.60
0.38
1.36
2.25
3.00
3.62
4.13
4.52
4.77
4.83
4.64
4.20
3.53
2.68
1.74
0.80
-0.06
-0.75
-1.15
-1.20
-0.91
-0.36
0.26
0.76
1.00
0.96
0.73
0.43
0.17
-0.01
-0.14
-0.23
-0.28
-0.25
-0.11
0.10
0.25
0.19
-0.16
-0.81
-1.65
-2.53
-3.31
-3.91
-4.29
-4.43
-4.34
-4.02
-3.51
-2.87
-2.19
-1.56
-1.06
-0.75
-0.61
-0.58
-0.53
-0.34
0.04
0.61
1.29
1.95
2.49
2.85
3.08
3.23
3.39
3.56
3.76
3.91
3.95
3.84
3.56
3.18
2.84
2.64
2.66
2.81
2.92
2.82
2.38
1.60
0.59
-0.51
-1.57
-2.49
-3.21
-3.67
-3.84
-3.73
-3.41
-3.03
-2.68
-2.43
-2.27
-2.13
-1.98
-1.83
-1.76
-1.85
-2.12
-2.54
-2.98
-3.30
-3.38
-3.15
-2.65
-2.02
-1.41
-0.98
-0.78
-0.78
-0.85
-0.84
-0.64
-0.19
0.46
1.18
1.84
2.26
2.32
1.97
1.22
0.22
-0.83
-1.68
-2.16
-2.20
-1.83
-1.22
-0.54
0.07
0.53
0.82
0.96
0.95
0.79
0.51
0.19
-0.02
-0.01
0.31
0.92
1.69
2.45
3.04
3.39
3.48
3.39
3.21
3.02
2.89
2.87
2.99
3.23
3.55
3.85
4.01
3.92
3.53
2.87
2.00
1.00
-0.07
-1.20
-2.34
-3.39
-4.20
-4.64
-4.62
-4.20
-3.56
-2.93
-2.49
-2.32
-2.37
-2.50
-2.60
-2.62
-2.60
-2.67
-2.92
-3.36
-3.91
-4.43
-4.79
-4.92
-4.80
-4.46
-3.92
-3.22
-2.43
-1.70
-1.15
-0.81
-0.53
-0.08
0.76
2.01
3.45
4.70
5.40
5.41
4.80
3.83
2.79
1.87
1.14
0.62
0.30
0.16
0.20
0.36
0.58
0.74
0.80
0.70
0.44
0.06
-0.37
-0.74
-0.92
-0.81
-0.39
0.27
1.00
1.63
1.97
1.97
1.69
1.30
1.01
0.94
1.12
1.47
1.84
2.14
2.35
2.50
2.64
2.76
2.75
2.52
1.98
1.18
0.26
-0.60
-1.23
-1.55
-1.58
-1.43
-1.24
-1.13
-1.18
-1.36
-1.61
-1.80
-1.84
-1.72
-1.49
-1.27
-1.17
-1.26
-1.52
-1.90
-2.33
-2.76
-3.12
-3.34
-3.32
-3.03
-2.49
-1.82
-1.19
-0.75
-0.52
-0.43
-0.34
-0.09
0.41
1.18
2.14
3.14
3.96
4.42
4.35
3.72
2.64
1.36
0.16
-0.75
-1.31
-1.60
-1.77
-1.98
-2.22
-2.36
-2.20
-1.60
-0.60
0.58
1.64
2.32
2.56
2.50
2.37
2.36
2.49
2.64
2.62
2.33
1.81
1.24
0.81
0.63
0.68
0.85
1.01
1.10
1.13
1.13
1.15
1.18
1.20
1.12
0.90
0.52
-0.00
-0.61
-1.22
-1.73
-2.09
-2.29
-2.35
-2.31
-2.19
-2.00
-1.73
-1.40
-1.07
-0.83
-0.80
-1.02
-1.50
-2.15
-2.82
-3.34
-3.59
-3.54
-3.25
-2.83
-2.40
-2.05
-1.78
-1.55
-1.27
-0.87
-0.30
0.43
1.30
2.24
3.12
3.78
4.06
3.84
3.10
1.96
0.62
-0.64
-1.57
-2.00
-1.88
-1.30
-0.43
0.47
1.19
1.54
1.49
1.12
0.56
0.01
-0.41
-0.59
-0.52
-0.20
0.31
0.92
1.49
1.89
2.04
1.96
1.74
1.55
1.50
1.64
1.89
2.13
2.26
2.24
2.12
1.98
1.86
1.78
1.64
1.35
0.86
0.15
-0.68
-1.46
-2.05
-2.33
-2.30
-2.04
-1.67
-1.31
-1.03
-0.86
-0.80
-0.86
-1.02
-1.25
-1.50
-1.72
-1.92
-2.16
-2.48
-2.90
-3.35
-3.66
-3.70
-3.37
-2.77
-2.05
-1.44
-1.10
-1.06
-1.20
-1.33
-1.30
-1.01
-0.47
0.25
1.06
1.93
2.82
3.64
4.27
4.52
4.27
3.52
2.44
1.37
0.60
0.32
0.54
1.04
1.52
1.73
1.53
0.97
0.25
-0.38
-0.71
-0.66
-0.27
0.35
1.04
1.67
2.17
2.48
2.58
2.45
2.14
1.69
1.19
0.72
0.36
0.13
0.05
0.10
0.26
0.48
0.72
0.91
1.03
1.04
0.95
0.77
0.55
0.34
0.14
-0.07
-0.34
-0.77
-1.38
-2.11
-2.79
-3.25
-3.36
-3.10
-2.61
-2.10
-1.75
-1.68
-1.84
-2.12
-2.41
-2.63
-2.76
-2.87
-3.03
-3.27
-3.58
-3.89
-4.11
-4.16
-3.99
-3.61
-3.06
-2.44
-1.85
-1.38
-1.09
-0.99
-1.01
-1.05
-0.96
-0.59
0.17
1.31
2.71
4.14
5.36
6.17
6.46
6.25
5.64
4.79
3.86
3.02
2.43
2.16
2.19
2.43
2.72
2.98
3.19
3.39
3.61
3.78
3.76
3.43
2.81
2.09
1.54
1.37
1.63
2.14
2.60
2.77
2.54
2.02
1.41
0.92
0.63
0.52
0.51
0.52
0.51
0.47
0.36
0.15
-0.26
-0.89
-1.71
-2.63
-3.52
-4.28
-4.85
-5.25
-5.47
-5.51
-5.33
-4.90
-4.18
-3.20
-2.00
-0.68
0.61
1.69
2.34
2.42
1.89
0.88
-0.35
-1.50
-2.34
-2.79
-2.90
-2.78
-2.55
-2.27
-1.97
-1.63
-1.29
-0.98
-0.73
-0.56
-0.45
-0.33
-0.15
0.12
0.50
0.99
1.51
1.98
2.31
2.43
2.32
2.02
1.59
1.08
0.51
-0.06
-0.58
-0.93
-1.04
-0.89
-0.57
-0.22
-0.04
-0.12
-0.46
-0.92
-1.35
-1.60
-1.66
-1.58
-1.45
-1.35
-1.29
-1.25
-1.20
-1.14
-1.08
-1.05
-1.00
-0.85
-0.54
-0.08
0.40
0.76
0.84
0.64
0.27
-0.11
-0.35
-0.38
-0.25
-0.01
0.24
0.45
0.59
0.61
0.48
0.17
-0.32
-0.93
-1.55
-2.06
-2.35
-2.35
-2.02
-1.43
-0.67
0.10
0.76
1.22
1.47
1.60
1.67
1.73
1.70
1.46
0.90
0.00
-1.16
-2.39
-3.52
-4.38
-4.89
-5.05
-4.91
-4.56
-4.16
-3.89
-3.90
-4.27
-4.94
-5.76
-6.59
-7.40
-8.31
-9.50
-11.06
-12.90
-14.76
-16.32
-17.40
-18.09
-18.70
-19.61
-21.09
-23.13
-25.52
-27.89
-29.94
-31.61
-33.04
-34.57
-36.57
-39.25
-42.55
-46.21
-49.79
-52.87
-55.23
-56.76
-57.47
-57.37
-56.53
-55.00
-52.66
-49.08
-43.48
-35.10
-23.84
-10.69
2.13
11.73
15.49
12.10
2.22
-11.34
-24.13
-30.82
-26.24
-6.40
30.19
81.50
141.75
202.44
254.38
290.26
306.22
301.99
279.74
242.63
193.97
137.38
77.43
19.71
-29.96
-67.17
-90.41
-101.46
-104.33
-103.39
-101.74
-100.60
-99.83
-98.93
-97.77
-96.78
-96.61
-97.64
-99.68
-102.21
-104.71
-106.97
-109.29
-112.44
-117.43
-124.84
-134.16
-143.29
-148.54
-145.66
-131.44
-105.43
-70.61
-32.54
2.75
31.00
50.92
63.85
72.13
77.43
80.01
79.20
74.56
66.75
57.49
48.68
41.41
35.57
30.15
24.03
16.72
8.45
-0.00
-7.89
-14.91
-21.43
-28.34
-36.39
-45.33
-53.48
-57.99
-55.92
-45.68
-28.00
-5.80
16.94
36.82
52.08
62.73
69.75
74.10
76.17
75.90
73.41
69.38
64.99
61.38
59.16
58.12
57.54
56.56
54.62
51.63
47.91
44.03
40.50
37.61
35.37
33.49
31.60
29.40
26.81
24.00
21.27
18.89
16.98
15.50
14.26
13.08
11.84
10.53
9.19
7.89
6.67
5.57
4.61
3.78
3.08
2.47
1.93
1.46
1.09
0.85
0.76
0.79
0.88
0.95
0.96
0.87
0.75
0.66
0.71
0.95
1.38
1.97
2.61
3.24
3.82
4.35
4.86
5.33
5.75
6.07
6.31
6.51
6.73
7.00
7.23
7.28
7.04
6.44
5.56
4.57
3.64
2.85
2.22
1.66
1.07
0.33
-0.64
-1.89
-3.45
-5.28
-7.26
-9.17
-10.76
-11.84
-12.31
-12.23
-11.78
-11.18
-10.63
-10.22
-9.91
-9.55
-8.97
-8.03
-6.69
-5.04
-3.20
-1.33
0.44
2.01
3.34
4.38
5.13
5.62
5.95
6.24
6.62
7.11
7.61
7.99
8.11
7.96
7.64
7.30
7.07
6.97
6.91
6.72
6.32
5.71
5.05
4.50
4.18
4.10
4.17
4.28
4.38
4.54
4.91
5.62
6.66
7.88
8.94
9.49
9.26
8.18
6.42
4.36
2.42
0.98
0.25
0.20
0.68
1.43
2.33
3.38
4.73
6.62
9.19
12.38
15.94
19.49
22.68
25.36
27.58
29.56
31.56
33.69
35.96
38.36
40.99
43.98
47.35
50.72
53.26
53.95
51.95
47.06
39.76
30.96
21.49
11.68
1.44
-9.48
-20.88
-32.02
-41.69
-48.76
-52.71
-53.81
-52.92
-51.05
-48.94
-46.88
-44.81
-42.60
-40.24
-37.90
-35.82
-34.16
-32.82
-31.56
-30.06
-28.12
-25.73
-23.08
-20.45
-18.11
-16.21
-14.79
-13.75
-12.92
-12.13
-11.25
-10.27
-9.24
-8.25
-7.35
-6.52
-5.67
-4.72
-3.67
-2.58
-1.62
-0.88
-0.38
-0.02
0.39
1.00
1.87
2.93
3.99
4.86
5.39
5.59
5.60
5.61
5.81
6.24
6.84
7.47
8.01
8.45
8.83
9.26
9.83
10.57
11.48
12.52
13.64
14.65
15.21
14.86
13.18
10.00
5.50
0.25
-4.93
-9.29
-12.39
-14.15
-14.81
-14.79
-14.43
-13.90
-13.23
-12.38
-11.38
-10.36
-9.47
-8.82
-8.42
-8.13
-7.75
-7.19
-6.44
-5.64
-4.95
-4.48
-4.22
-4.05
-3.85
-3.49
-2.98
-2.41
-1.91
-1.55
-1.34
-1.22
-1.10
-0.95
-0.78
-0.67
-0.66
-0.77
-0.95
-1.12
-1.23
-1.25
-1.20
-1.13
-1.08
-1.08
-1.15
-1.27
-1.42
-1.56
-1.67
-1.72
-1.69
-1.61
-1.47
-1.29
-1.07
-0.84
-0.63
-0.45
-0.29
-0.09
0.18
0.48
0.76
0.89
0.82
0.54
0.13
-0.31
-0.67
-0.89
-0.98
-0.93
-0.79
-0.58
-0.33
-0.07
0.14
0.28
0.31
0.23
0.03
-0.23
-0.48
-0.62
-0.60
-0.40
-0.08
0.24
0.45
0.49
0.35
0.10
-0.17
-0.38
-0.52
-0.57
-0.56
-0.46
-0.26
0.04
0.42
0.80
1.13
1.31
1.31
1.13
0.82
0.44
0.08
-0.17
-0.27
-0.20
0.00
0.26
0.47
0.54
0.43
0.13
-0.30
-0.77
-1.19
-1.48
-1.57
-1.45
-1.17
-0.81
-0.48
-0.26
-0.18
-0.22
-0.33
-0.41
-0.43
-0.36
-0.24
-0.13
-0.07
-0.07
-0.10
-0.11
-0.09
-0.04
0.01
0.04
0.05
0.11
0.25
0.48
0.75
0.97
1.05
0.98
0.81
0.58
0.37
0.17
-0.01
-0.19
-0.35
-0.44
-0.43
-0.29
-0.08
0.13
0.30
0.40
0.46
0.52
0.61
0.69
0.71
0.61
0.38
0.10
-0.14
-0.24
-0.16
0.05
0.26
0.36
0.29
0.13
-0.04
-0.12
-0.10
-0.05
-0.07
-0.23
-0.50
-0.81
-1.02
-1.05
-0.90
-0.65
-0.40
-0.23
-0.18
-0.21
-0.24
-0.17
0.03
0.32
0.61
0.78
0.78
0.65
0.49
0.41
0.45
0.56
0.61
0.54
0.31
-0.01
-0.31
-0.48
-0.47
-0.32
-0.09
0.10
0.15
0.03
-0.21
-0.47
-0.61
-0.55
-0.30
0.06
0.38
0.51
0.40
0.08
-0.31
-0.63
-0.77
-0.73
-0.58
-0.46
-0.44
-0.52
-0.62
-0.63
-0.49
-0.24
0.03
0.19
0.17
0.01
-0.23
-0.46
-0.61
-0.67
-0.63
-0.51
-0.30
-0.02
0.29
0.56
0.74
0.80
0.75
0.64
0.51
0.41
0.33
0.27
0.21
0.17
0.16
0.20
0.26
0.30
0.27
0.16
-0.01
-0.16
-0.21
-0.15
-0.02
0.08
0.08
-0.06
-0.26
-0.41
-0.41
-0.25
0.03
0.30
0.47
0.51
0.47
0.43
0.43
0.45
0.44
0.33
0.11
-0.17
-0.43
-0.58
-0.59
-0.50
-0.38
-0.31
-0.29
-0.29
-0.23
-0.10
0.08
0.24
0.30
0.24
0.13
0.04
0.06
0.23
0.49
0.77
0.98
1.08
1.10
1.05
0.95
0.78
0.53
0.24
-0.06
-0.28
-0.36
-0.30
-0.14
0.03
0.15
0.14
-0.02
-0.28
-0.61
-0.90
-1.09
-1.12
-0.97
-0.71
-0.43
-0.21
-0.11
-0.13
-0.21
-0.31
-0.38
-0.39
-0.37
-0.31
-0.25
-0.19
-0.16
-0.18
-0.25
-0.33
-0.35
-0.28
-0.09
0.17
0.39
0.52
0.50
0.39
0.27
0.23
0.32
0.51
0.75
0.94
1.03
1.00
0.86
0.64
0.37
0.10
-0.13
-0.30
-0.36
-0.31
-0.14
0.09
0.35
0.59
0.73
0.75
0.61
0.33
-0.03
-0.37
-0.58
-0.58
-0.38
-0.10
0.09
0.06
-0.23
-0.64
-0.96
-1.03
-0.78
-0.33
0.12
0.40
0.44
0.27
-0.00
-0.26
-0.45
-0.58
-0.67
-0.75
-0.79
-0.76
-0.62
-0.39
-0.09
0.20
0.43
0.52
0.45
0.25
-0.03
-0.28
-0.45
-0.51
-0.48
-0.40
-0.31
-0.23
-0.15
-0.04
0.11
0.31
0.55
0.81
1.05
1.21
1.25
1.17
1.00
0.82
0.69
0.64
0.61
0.55
0.39
0.16
-0.06
-0.21
-0.28
-0.32
-0.42
-0.61
-0.84
-0.98
-0.94
-0.74
-0.50
-0.36
-0.44
-0.70
-1.01
-1.18
-1.10
-0.78
-0.36
-0.00
0.18
0.17
0.05
-0.06
-0.09
0.00
0.18
0.37
0.51
0.58
0.58
0.55
0.55
0.61
0.71
0.82
0.89
0.88
0.76
0.56
0.27
-0.05
-0.33
-0.49
-0.46
-0.24
0.10
0.44
0.63
0.62
0.44
0.19
-0.07
-0.30
-0.54
-0.80
-1.01
-1.08
-0.91
-0.50
0.02
0.46
0.65
0.53
0.22
-0.10
-0.27
-0.24
-0.06
0.11
0.13
-0.06
-0.38
-0.70
-0.87
-0.82
-0.59
-0.25
0.07
0.31
0.49
0.63
0.75
0.84
0.85
0.77
0.59
0.37
0.18
0.01
-0.12
-0.26
-0.37
-0.40
-0.29
-0.01
0.38
0.77
1.03
1.08
0.90
0.56
0.16
-0.18
-0.36
-0.35
-0.14
0.18
0.52
0.76
0.78
0.56
0.13
-0.45
-1.04
-1.51
-1.75
-1.74
-1.54
-1.23
-0.95
-0.77
-0.67
-0.63
-0.57
-0.48
-0.36
-0.23
-0.06
0.15
0.43
0.71
0.92
0.99
0.91
0.72
0.52
0.36
0.23
0.09
-0.08
-0.27
-0.39
-0.37
-0.20
0.08
0.39
0.64
0.81
0.92
0.98
1.02
1.01
0.92
0.76
0.59
0.49
0.48
0.53
0.56
0.50
0.31
0.06
-0.16
-0.23
-0.14
0.09
0.35
0.55
0.65
0.65
0.56
0.42
0.22
-0.05
-0.38
-0.71
-0.94
-0.98
-0.79
-0.41
0.03
0.38
0.51
0.38
0.04
-0.42
-0.83
-1.11
-1.18
-1.04
-0.74
-0.34
0.08
0.40
0.53
0.39
-0.00
-0.55
-1.10
-1.45
-1.50
-1.25
-0.82
-0.36
0.00
0.22
0.30
0.29
0.21
0.05
-0.17
-0.39
-0.52
-0.47
-0.21
0.18
0.57
0.79
0.77
0.51
0.11
-0.27
-0.56
-0.73
-0.84
-0.95
-1.11
-1.22
-1.19
-0.92
-0.43
0.18
0.73
1.10
1.25
1.25
1.19
1.14
1.07
0.91
0.60
0.20
-0.19
-0.41
-0.38
-0.13
0.21
0.45
0.50
0.37
0.16
0.01
-0.02
0.04
0.09
0.04
-0.11
-0.30
-0.46
-0.52
-0.48
-0.39
-0.31
-0.23
-0.12
0.02
0.16
0.22
0.15
-0.05
-0.29
-0.44
-0.42
-0.21
0.09
0.37
0.54
0.55
0.42
0.18
-0.13
-0.49
-0.84
-1.13
-1.26
-1.19
-0.90
-0.47
-0.03
0.32
0.51
0.55
0.53
0.55
0.66
0.86
1.09
1.24
1.24
1.08
0.82
0.54
0.30
0.11
-0.06
-0.25
-0.44
-0.55
-0.52
-0.32
0.00
0.31
0.48
0.41
0.11
-0.30
-0.71
-0.98
-1.07
-0.95
-0.70
-0.39
-0.10
0.12
0.23
0.26
0.25
0.26
0.31
0.37
0.43
0.44
0.40
0.34
0.29
0.24
0.17
0.03
-0.18
-0.41
-0.59
-0.63
-0.51
-0.24
0.08
0.38
0.58
0.66
0.63
0.49
0.26
-0.02
-0.31
-0.55
-0.66
-0.61
-0.41
-0.11
0.23
0.54
0.75
0.82
0.76
0.62
0.47
0.40
0.46
0.61
0.79
0.92
0.96
0.94
0.90
0.87
0.83
0.75
0.59
0.36
0.12
-0.08
-0.19
-0.22
-0.20
-0.19
-0.23
-0.34
-0.54
-0.81
-1.13
-1.40
-1.51
-1.38
-1.00
-0.45
0.10
0.49
0.63
0.50
0.20
-0.16
-0.47
-0.70
-0.85
-0.94
-0.94
-0.83
-0.59
-0.27
0.04
0.23
0.23
0.04
-0.23
-0.45
-0.49
-0.33
-0.03
0.30
0.55
0.64
0.58
0.43
0.28
0.20
0.22
0.34
0.49
0.62
0.65
0.57
0.40
0.19
0.00
-0.16
-0.30
-0.46
-0.66
-0.86
-1.01
-1.03
-0.92
-0.71
-0.51
-0.39
-0.38
-0.44
-0.48
-0.45
-0.34
-0.21
-0.15
-0.17
-0.24
-0.29
-0.23
-0.07
0.11
0.23
0.21
0.08
-0.07
-0.13
-0.04
0.16
0.38
0.48
0.40
0.15
-0.15
-0.38
-0.42
-0.28
-0.03
0.21
0.33
0.30
0.15
-0.03
-0.14
-0.14
-0.02
0.17
0.37
0.50
0.51
0.41
0.22
0.01
-0.20
-0.39
-0.55
-0.67
-0.71
-0.66
-0.52
-0.35
-0.21
-0.15
-0.13
-0.08
0.07
0.30
0.54
0.66
0.58
0.29
-0.07
-0.36
-0.48
-0.43
-0.27
-0.12
-0.03
-0.00
0.02
0.07
0.18
0.32
0.45
0.54
0.60
0.63
0.68
0.73
0.80
0.85
0.91
0.95
0.97
0.91
0.74
0.47
0.18
0.00
0.03
0.28
0.66
1.02
1.21
1.18
0.97
0.71
0.46
0.27
0.06
-0.22
-0.58
-0.92
-1.13
-1.12
-0.90
-0.57
-0.29
-0.18
-0.30
-0.58
-0.92
-1.18
-1.28
-1.21
-1.02
-0.82
-0.69
-0.67
-0.72
-0.75
-0.67
-0.44
-0.12
0.18
0.33
0.30
0.12
-0.07
-0.19
-0.18
-0.06
0.08
0.18
0.23
0.23
0.22
0.23
0.24
0.24
0.22
0.15
0.05
-0.07
-0.19
-0.28
-0.36
-0.43
-0.52
-0.64
-0.75
-0.79
-0.69
-0.41
0.01
0.46
0.79
0.90
0.76
0.49
0.23
0.11
0.16
0.31
0.43
0.42
0.24
-0.04
-0.34
-0.57
-0.70
-0.74
-0.72
-0.67
-0.58
-0.48
-0.37
-0.26
-0.16
-0.10
-0.06
-0.07
-0.14
-0.25
-0.41
-0.58
-0.72
-0.77
-0.70
-0.49
-0.17
0.20
0.51
0.63
0.49
0.11
-0.35
-0.70
-0.78
-0.54
-0.07
0.43
0.80
0.95
0.89
0.72
0.52
0.34
0.19
0.07
-0.00
0.01
0.14
0.39
0.74
1.09
1.39
1.54
1.52
1.31
0.94
0.51
0.12
-0.12
-0.16
0.01
0.27
0.53
0.67
0.64
0.44
0.17
-0.08
-0.22
-0.22
-0.09
0.10
0.28
0.40
0.44
0.40
0.28
0.08
-0.20
-0.57
-0.95
-1.26
-1.40
-1.33
-1.07
-0.73
-0.40
-0.14
0.03
0.12
0.17
0.14
0.01
-0.24
-0.54
-0.82
-0.94
-0.86
-0.58
-0.22
0.14
0.40
0.56
0.66
0.74
0.81
0.86
0.85
0.74
0.52
0.25
-0.04
-0.27
-0.42
-0.48
-0.41
-0.22
0.09
0.44
0.75
0.94
0.96
0.82
0.57
0.29
0.04
-0.15
-0.28
-0.36
-0.40
-0.39
-0.36
-0.31
-0.26
-0.25
-0.26
-0.30
-0.34
-0.37
-0.40
-0.44
-0.50
-0.58
-0.66
-0.69
-0.65
-0.54
-0.37
-0.18
0.01
0.20
0.41
0.61
0.77
0.83
0.77
0.59
0.36
0.15
-0.02
-0.12
-0.20
-0.29
-0.39
-0.46
-0.45
-0.31
-0.06
0.24
0.49
0.63
0.60
0.45
0.21
-0.04
-0.27
-0.42
-0.49
-0.46
-0.34
-0.19
-0.06
0.01
-0.03
-0.18
-0.38
-0.55
-0.63
-0.58
-0.44
-0.27
-0.19
-0.23
-0.39
-0.58
-0.70
-0.67
-0.49
-0.23
0.03
0.22
0.32
0.33
0.30
0.26
0.21
0.17
0.12
0.05
-0.06
-0.19
-0.30
-0.35
-0.28
-0.08
0.17
0.39
0.49
0.45
0.33
0.23
0.24
0.33
0.42
0.41
0.26
0.05
-0.10
-0.08
0.13
0.41
0.57
0.50
0.18
-0.24
-0.59
-0.74
-0.69
-0.53
-0.39
-0.32
-0.30
-0.28
-0.20
-0.11
-0.06
-0.11
-0.21
-0.26
-0.16
0.09
0.40
0.64
0.68
0.50
0.21
-0.04
-0.14
-0.05
0.18
0.43
0.61
0.67
0.62
0.48
0.31
0.15
0.01
-0.09
-0.15
-0.19
-0.21
-0.18
-0.10
0.05
0.24
0.45
0.60
0.64
0.55
0.35
0.10
-0.13
-0.31
-0.40
-0.42
-0.40
-0.34
-0.24
-0.13
-0.05
-0.05
-0.14
-0.29
-0.40
-0.40
-0.25
0.01
0.26
0.42
0.40
0.23
-0.06
-0.38
-0.66
-0.86
-0.95
-0.89
-0.69
-0.39
-0.06
0.22
0.39
0.46
0.45
0.41
0.32
0.17
-0.04
-0.25
-0.41
-0.43
-0.32
-0.13
0.02
0.06
-0.04
-0.22
-0.38
-0.45
-0.40
-0.28
-0.12
0.02
0.15
0.26
0.35
0.41
0.43
0.39
0.31
0.21
0.10
-0.03
-0.17
-0.33
-0.52
-0.66
-0.71
-0.60
-0.33
0.03
0.39
0.61
0.65
0.50
0.23
-0.06
-0.27
-0.35
-0.31
-0.15
0.08
0.35
0.60
0.78
0.84
0.75
0.51
0.19
-0.11
-0.29
-0.31
-0.19
-0.02
0.10
0.10
-0.01
-0.16
-0.26
-0.29
-0.27
-0.25
-0.25
-0.22
-0.11
0.10
0.36
0.60
0.69
0.60
0.37
0.10
-0.10
-0.19
-0.16
-0.10
-0.08
-0.17
-0.37
-0.61
-0.80
-0.80
-0.53
-0.04
0.53
0.98
1.16
1.01
0.65
0.25
-0.07
-0.25
-0.32
-0.35
-0.39
-0.43
-0.42
-0.32
-0.13
0.10
0.33
0.48
0.52
0.44
0.26
0.01
-0.25
-0.48
-0.63
-0.68
-0.61
-0.45
-0.25
-0.07
0.01
-0.02
-0.15
-0.31
-0.42
-0.47
-0.44
-0.36
-0.27
-0.18
-0.11
-0.07
-0.07
-0.12
-0.20
-0.23
-0.14
0.10
0.46
0.85
1.18
1.37
1.39
1.22
0.92
0.52
0.10
-0.26
-0.50
-0.58
-0.47
-0.20
0.16
0.51
0.74
0.76
0.59
0.29
0.01
-0.12
-0.08
0.09
0.25
0.25
0.09
-0.15
-0.33
-0.33
-0.13
0.18
0.44
0.54
0.42
0.12
-0.28
-0.69
-1.04
-1.28
-1.37
-1.28
-1.05
-0.71
-0.35
-0.06
0.11
0.16
0.11
-0.04
-0.23
-0.41
-0.49
-0.37
-0.04
0.45
0.91
1.13
0.95
0.39
-0.36
-1.05
-1.44
-1.43
-1.08
-0.56
-0.01
0.44
0.73
0.86
0.84
0.69
0.45
0.17
-0.06
-0.18
-0.14
0.04
0.28
0.51
0.62
0.55
0.29
-0.10
-0.51
-0.80
-0.84
-0.60
-0.12
0.45
0.92
1.17
1.14
0.88
0.52
0.19
-0.01
-0.07
-0.05
-0.04
-0.07
-0.14
-0.19
-0.16
-0.06
0.06
0.10
0.04
-0.13
-0.31
-0.42
-0.40
-0.30
-0.21
-0.22
-0.33
-0.48
-0.56
-0.47
-0.23
0.08
0.30
0.36
0.24
0.02
-0.17
-0.22
-0.10
0.15
0.42
0.62
0.70
0.63
0.46
0.21
-0.05
-0.29
-0.46
-0.52
-0.46
-0.30
-0.11
0.03
0.07
-0.04
-0.28
-0.60
-0.91
-1.12
-1.17
-1.04
-0.73
-0.32
0.08
0.37
0.45
0.30
-0.01
-0.33
-0.51
-0.41
-0.03
0.52
1.04
1.34
1.32
1.03
0.63
0.35
0.34
0.62
1.11
1.67
2.17
2.57
2.91
3.24
3.61
4.02
4.41
4.76
5.07
5.36
5.66
5.93
6.14
6.22
6.17
6.06
6.02
6.16
6.51
7.06
7.72
8.41
9.05
9.53
9.70
9.40
8.55
7.22
5.66
4.18
3.06
2.43
2.23
2.23
2.15
1.66
0.46
-1.64
-4.63
-8.24
-11.88
-14.85
-16.58
-16.92
-16.15
-14.92
-13.89
-13.54
-13.97
-15.01
-16.33
-17.62
-18.66
-19.26
-19.26
-18.47
-16.92
-15.10
-14.04
-15.15
-19.66
-28.14
-40.39
-55.72
-73.59
-94.06
-117.65
-144.49
-173.27
-200.61
-221.46
-230.49
-223.79
-200.01
-160.58
-109.09
-50.44
9.87
66.25
113.58
147.95
167.60
173.39
168.71
158.47
147.63
139.63
135.40
133.18
129.32
119.66
101.10
72.96
37.31
-1.57
-38.44
-68.43
-88.02
-95.39
-90.43
-74.61
-50.83
-23.23
3.56
25.44
39.93
46.79
47.71
45.28
41.88
38.93
36.75
35.06
33.43
31.63
29.64
27.55
25.43
23.26
21.01
18.73
16.57
14.76
13.47
12.75
12.44
12.25
11.85
11.01
9.77
8.33
7.06
6.27
6.09
6.42
7.03
7.67
8.33
9.31
11.20
14.64
20.08
27.54
36.51
46.09
55.33
63.52
70.50
76.63
82.71
89.57
97.76
107.35
117.87
128.50
138.49
147.35
155.11
162.14
168.92
175.81
182.96
190.37
197.99
205.54
212.23
216.46
215.93
208.26
191.80
166.32
133.07
94.09
51.21
5.52
-42.38
-91.38
-138.93
-181.04
-213.36
-232.93
-239.55
-235.88
-226.27
-214.90
-204.22
-194.56
-184.75
-173.43
-160.16
-145.66
-131.44
-118.93
-108.84
-100.99
-94.57
-88.64
-82.58
-76.35
-70.27
-64.79
-60.10
-55.99
-51.97
-47.52
-42.42
-36.90
-31.56
-27.06
-23.84
-21.88
-20.71
-19.63
-18.04
-15.65
-12.66
-9.61
-7.09
-5.50
-4.85
-4.83
-4.99
-4.93
-4.50
-3.75
-2.94
-2.28
-1.94
-1.95
-2.24
-2.73
-3.36
-4.10
-4.96
-5.97
-7.08
-8.20
-9.20
-9.96
-10.42
-10.66
-10.85
-11.27
-12.16
-13.72
-15.98
-18.77
-21.79
-24.64
-27.00
-28.78
-30.23
-31.84
-34.19
-37.72
-42.51
-48.20
-54.16
-59.73
-64.53
-68.63
-72.49
-76.75
-81.90
-88.09
-95.02
-102.19
-109.10
-115.54
-121.69
-127.98
-134.85
-142.69
-151.73
-162.15
-173.83
-186.08
-197.16
-204.36
-204.51
-194.96
-174.66
-144.45
-106.56
-63.45
-16.81
32.45
83.35
133.66
179.51
216.20
240.01
249.94
248.28
239.61
228.87
219.49
212.55
207.22
202.02
196.02
189.36
182.95
177.79
174.40
172.55
171.55
170.54
168.88
166.40
163.40
160.54
158.53
157.87
158.61
160.35
162.57
164.91
167.36
169.92
172.07
172.54
169.84
163.34
154.25
145.40
139.89
139.04
141.01
141.14
133.86
115.16
84.08
42.64
-5.45
-56.20
-106.01
-151.56
-189.51
-216.78
-231.49
-233.88
-226.47
-213.22
-198.19
-184.45
-173.53
-165.63
-160.01
-155.45
-150.53
-143.98
-135.16
-124.31
-112.56
-101.44
-92.11
-84.96
-79.47
-74.64
-69.63
-64.13
-58.43
-53.10
-48.62
-45.12
-42.42
-40.19
-38.15
-36.27
-34.77
-33.96
-34.17
-35.58
-38.12
-41.53
-45.35
-49.09
-52.33
-54.83
-56.68
-58.18
-59.78
-61.91
-64.83
-68.60
-73.05
-77.87
-82.77
-87.57
-92.44
-98.00
-105.35
-115.69
-129.54
-145.85
-161.54
-171.73
-170.89
-154.80
-122.22
-76.05
-22.83
29.07
71.94
100.84
114.58
115.24
106.90
94.26
81.69
72.87
70.45
75.67
87.86
104.38
121.18
134.00
139.88
138.14
130.29
119.07
107.19
96.43
87.44
80.09
73.95
68.63
63.81
59.16
54.41
49.37
44.06
38.72
33.69
29.26
25.55
22.45
19.70
16.97
14.01
10.68
6.98
3.09
-0.66
-3.85
-6.02
-6.85
-6.24
-4.38
-1.69
1.32
4.17
6.55
8.30
9.37
9.77
9.51
8.69
7.49
6.27
5.46
5.41
6.24
7.74
9.45
10.84
11.59
11.66
11.30
10.88
10.62
10.53
10.44
10.13
9.55
8.83
8.21
7.91
7.99
8.37
8.89
9.40
9.82
10.18
10.50
10.84
11.23
11.72
12.37
13.19
14.12
15.06
15.90
16.65
17.47
18.65
20.52
23.19
26.51
30.06
33.32
35.92
37.82
39.40
41.24
43.89
47.61
52.24
57.33
62.30
66.74
70.52
73.79
76.98
80.65
85.41
91.68
99.32
107.17
112.84
112.91
103.80
83.00
50.33
8.46
-37.51
-81.47
-118.10
-144.29
-159.70
-166.26
-167.04
-165.01
-162.21
-159.62
-157.44
-155.55
-153.85
-152.38
-151.26
-150.71
-151.08
-152.97
-156.94
-162.94
-169.64
-174.01
-171.64
-157.82
-129.25
-85.69
-30.67
29.09
85.51
131.54
163.14
180.00
184.89
182.10
175.73
168.71
162.55
157.78
154.35
151.84
149.29
145.20
137.66
125.14
107.21
84.95
60.82
37.77
18.34
3.85
-5.86
-12.09
-16.63
-21.04
-26.15
-31.92
-37.67
-42.48
-45.66
-47.01
-46.87
-45.88
-44.65
-43.53
-42.49
-41.30
-39.70
-37.62
-35.19
-32.70
-30.38
-28.34
-26.51
-24.72
-22.88
-20.97
-19.07
-17.28
-15.65
-14.15
-12.74
-11.38
-10.07
-8.84
-7.75
-6.82
-6.06
-5.42
-4.83
-4.21
-3.54
-2.81
-2.11
-1.52
-1.13
-0.94
-0.95
-1.08
-1.26
-1.44
-1.57
-1.60
-1.49
-1.19
-0.74
-0.22
0.18
0.29
0.06
-0.45
-1.04
-1.44
-1.50
-1.20
-0.65
-0.10
0.29
0.42
0.34
0.17
0.03
-0.05
-0.09
-0.12
-0.18
-0.21
-0.21
-0.15
-0.07
-0.03
-0.06
-0.14
-0.19
-0.17
-0.05
0.11
0.27
0.36
0.37
0.30
0.14
-0.09
-0.38
-0.64
-0.75
-0.63
-0.28
0.17
0.57
0.77
0.73
0.50
0.20
-0.08
-0.27
-0.37
-0.37
-0.26
-0.04
0.29
0.66
1.02
1.27
1.37
1.33
1.18
1.03
0.93
0.96
1.13
1.43
1.81
2.20
2.58
2.88
3.07
3.11
3.00
2.79
2.58
2.47
2.51
2.66
2.81
2.86
2.80
2.69
2.61
2.61
2.64
2.61
2.42
2.04
1.54
1.02
0.53
0.04
-0.57
-1.38
-2.39
-3.47
-4.40
-4.95
-5.03
-4.68
-4.05
-3.39
-2.85
-2.50
-2.30
-2.17
-2.08
-2.01
-2.01
-2.06
-2.14
-2.17
-2.10
-1.91
-1.67
-1.44
-1.28
-1.19
-1.15
-1.11
-1.05
-0.97
-0.91
-0.85
-0.79
-0.73
-0.65
-0.59
-0.58
-0.62
-0.70
-0.80
-0.90
-1.01
-1.12
-1.22
-1.29
-1.26
-1.10
-0.84
-0.53
-0.28
-0.14
-0.11
-0.15
-0.17
-0.11
0.04
0.24
0.41
0.48
0.42
0.24
0.04
-0.12
-0.19
-0.18
-0.15
-0.14
-0.18
-0.19
-0.14
-0.02
0.11
0.16
0.06
-0.18
-0.47
-0.69
-0.75
-0.63
-0.41
-0.15
0.06
0.21
0.28
0.28
0.18
-0.03
-0.31
-0.62
-0.87
-1.00
-0.97
-0.80
-0.50
-0.15
0.20
0.52
0.77
0.92
0.96
0.90
0.77
0.59
0.42
0.28
0.16
0.09
0.05
0.05
0.06
0.07
0.03
-0.06
-0.19
-0.32
-0.43
-0.50
-0.55
-0.60
-0.66
-0.72
-0.72
-0.62
-0.43
-0.21
-0.06
-0.07
-0.28
-0.64
-1.01
-1.26
-1.30
-1.12
-0.82
-0.48
-0.19
0.04
0.23
0.40
0.56
0.68
0.77
0.85
0.96
1.13
1.35
1.57
1.72
1.71
1.51
1.12
0.62
0.13
-0.22
-0.34
-0.21
0.08
0.37
0.56
0.60
0.52
0.42
0.38
0.42
0.50
0.53
0.48
0.36
0.23
0.14
0.15
0.25
0.36
0.39
0.22
-0.18
-0.73
-1.28
-1.64
-1.68
-1.42
-0.97
-0.52
-0.20
-0.06
-0.06
-0.12
-0.17
-0.19
-0.22
-0.24
-0.24
-0.18
-0.03
0.15
0.29
0.29
0.17
-0.03
-0.20
-0.23
-0.12
0.10
0.34
0.56
0.73
0.85
0.93
0.95
0.86
0.64
0.33
-0.03
-0.31
-0.43
-0.38
-0.19
0.03
0.13
0.06
-0.18
-0.52
-0.83
-1.02
-1.06
-1.02
-0.96
-0.94
-0.96
-0.99
-0.97
-0.91
-0.82
-0.74
-0.68
-0.60
-0.46
-0.25
0.01
0.27
0.45
0.55
0.60
0.64
0.71
0.77
0.78
0.66
0.39
0.04
-0.30
-0.53
-0.59
-0.48
-0.25
-0.01
0.19
0.30
0.34
0.32
0.31
0.29
0.27
0.21
0.09
-0.06
-0.17
-0.16
0.02
0.29
0.56
0.69
0.65
0.51
0.39
0.39
0.53
0.70
0.76
0.65
0.38
0.08
-0.16
-0.26
-0.28
-0.29
-0.33
-0.38
-0.36
-0.21
0.03
0.27
0.37
0.27
-0.01
-0.35
-0.61
-0.70
-0.63
-0.49
-0.40
-0.41
-0.51
-0.62
-0.67
-0.63
-0.54
-0.41
-0.27
-0.11
0.08
0.30
0.49
0.62
0.65
0.61
0.55
0.52
0.50
0.50
0.49
0.48
0.47
0.48
0.48
0.46
0.37
0.26
0.15
0.12
0.17
0.27
0.39
0.46
0.49
0.48
0.43
0.32
0.11
-0.20
-0.57
-0.88
-1.06
-1.05
-0.88
-0.65
-0.45
-0.34
-0.30
-0.30
-0.32
-0.38
-0.49
-0.68
-0.91
-1.10
-1.17
-1.07
-0.79
-0.42
-0.04
0.31
0.55
0.65
0.59
0.37
0.06
-0.22
-0.34
-0.22
0.11
0.50
0.80
0.91
0.82
0.63
0.45
0.32
0.24
0.17
0.10
0.04
0.06
0.17
0.33
0.49
0.56
0.52
0.40
0.22
0.05
-0.08
-0.16
-0.14
-0.01
0.23
0.51
0.74
0.82
0.70
0.43
0.12
-0.09
-0.12
0.05
0.31
0.53
0.58
0.41
0.08
-0.27
-0.54
-0.65
-0.62
-0.52
-0.41
-0.32
-0.27
-0.24
-0.24
-0.26
-0.31
-0.35
-0.36
-0.32
-0.21
-0.08
0.03
0.08
0.05
-0.05
-0.18
-0.29
-0.35
-0.35
-0.31
-0.29
-0.34
-0.50
-0.73
-0.99
-1.20
-1.32
-1.31
-1.13
-0.77
-0.25
0.36
0.94
1.35
1.48
1.29
0.87
0.35
-0.10
-0.39
-0.47
-0.41
-0.29
-0.20
-0.15
-0.12
-0.02
0.17
0.43
0.65
0.70
0.53
0.16
-0.24
-0.50
-0.51
-0.25
0.16
0.56
0.84
0.96
0.96
0.92
0.88
0.82
0.68
0.42
0.03
-0.40
-0.73
-0.85
-0.71
-0.43
-0.18
-0.11
-0.29
-0.63
-0.97
-1.14
-1.10
-0.93
-0.78
-0.74
-0.79
-0.82
-0.69
-0.35
0.13
0.58
0.87
0.94
0.84
0.71
0.66
0.73
0.84
0.90
0.84
0.66
0.43
0.21
0.06
-0.01
-0.04
-0.04
-0.05
-0.06
-0.06
-0.05
-0.02
0.04
0.13
0.27
0.44
0.63
0.76
0.80
0.70
0.47
0.17
-0.11
-0.31
-0.38
-0.31
-0.13
0.11
0.34
0.48
0.41
0.09
-0.45
-1.10
-1.64
-1.90
-1.79
-1.37
-0.80
-0.25
0.13
0.32
0.37
0.36
0.36
0.41
0.51
0.65
0.79
0.92
0.99
0.98
0.87
0.65
0.35
0.02
-0.27
-0.48
-0.58
-0.55
-0.44
-0.27
-0.09
0.04
0.09
0.04
-0.10
-0.28
-0.43
-0.50
-0.49
-0.42
-0.36
-0.33
-0.32
-0.23
-0.02
0.30
0.63
0.84
0.79
0.49
0.03
-0.42
-0.73
-0.82
-0.75
-0.59
-0.44
-0.36
-0.36
-0.42
-0.53
-0.68
-0.86
-1.03
-1.14
-1.13
-0.98
-0.69
-0.29
0.14
0.52
0.78
0.86
0.79
0.60
0.38
0.19
0.05
-0.05
-0.16
-0.31
-0.46
-0.54
-0.48
-0.26
0.07
0.43
0.73
0.95
1.09
1.18
1.22
1.22
1.15
0.99
0.75
0.46
0.19
-0.03
-0.15
-0.18
-0.15
-0.12
-0.17
-0.32
-0.53
-0.75
-0.91
-0.96
-0.92
-0.81
-0.65
-0.43
-0.16
0.15
0.42
0.57
0.59
0.52
0.45
0.46
0.56
0.69
0.77
0.73
0.58
0.37
0.17
-0.01
-0.18
-0.39
-0.62
-0.83
-0.92
-0.81
-0.51
-0.11
0.24
0.40
0.32
0.06
-0.24
-0.46
-0.54
-0.52
-0.47
-0.45
-0.42
-0.33
-0.16
0.07
0.25
0.28
0.15
-0.07
-0.27
-0.36
-0.31
-0.16
0.04
0.24
0.41
0.50
0.51
0.44
0.33
0.29
0.36
0.54
0.74
0.87
0.85
0.73
0.63
0.66
0.85
1.10
1.24
1.13
0.77
0.25
-0.24
-0.56
-0.67
-0.62
-0.53
-0.50
-0.58
-0.75
-0.98
-1.24
-1.52
-1.75
-1.90
-1.90
-1.72
-1.38
-0.97
-0.60
-0.37
-0.34
-0.51
-0.85
-1.27
-1.66
-1.95
-2.10
-2.11
-2.06
-2.03
-2.06
-2.16
-2.29
-2.41
-2.48
-2.53
-2.62
-2.76
-2.94
-3.10
-3.15
-3.04
-2.77
-2.40
-2.00
-1.65
-1.39
-1.20
-1.04
-0.80
-0.41
0.16
0.91
1.76
2.57
3.23
3.66
3.86
3.89
3.81
3.71
3.58
3.43
3.22
2.92
2.55
2.10
1.60
1.08
0.57
0.12
-0.24
-0.51
-0.73
-0.99
-1.35
-1.81
-2.31
-2.73
-2.98
-2.99
-2.82
-2.55
-2.29
-2.11
-2.02
-1.97
-1.95
-1.99
-2.15
-2.46
-2.90
-3.36
-3.70
-3.79
-3.58
-3.12
-2.50
-1.84
-1.23
-0.60
0.26
1.66
3.94
7.22
11.30
15.62
19.43
22.05
23.20
23.02
22.02
20.77
19.68
18.89
18.38
18.09
18.00
18.08
18.14
17.81
16.63
14.33
11.04
7.30
3.90
1.58
0.73
1.30
2.94
5.18
7.67
10.31
13.22
16.47
19.78
22.31
22.83
20.26
14.26
5.63
-3.87
-12.20
-17.84
-20.38
-20.46
-19.14
-17.31
-15.24
-12.77
-9.73
-6.24
-2.77
0.16
2.38
4.13
5.94
8.31
11.49
15.16
18.52
20.43
19.84
16.24
10.02
2.44
-4.72
-9.88
-12.33
-12.48
-11.54
-10.89
-11.30
-12.68
-14.28
-15.28
-15.31
-14.64
-13.90
-13.65
-14.05
-14.77
-15.26
-15.06
-14.15
-12.86
-11.73
-11.17
-11.25
-11.72
-12.10
-11.99
-11.23
-9.99
-8.64
-7.56
-6.99
-6.87
-6.98
-7.03
-6.81
-6.27
-5.51
-4.67
-3.91
-3.32
-2.91
-2.67
-2.53
-2.40
-2.21
-1.93
-1.58
-1.18
-0.82
-0.56
-0.44
-0.46
-0.59
-0.77
-0.92
-0.96
-0.85
-0.59
-0.26
0.05
0.23
0.26
0.17
0.06
0.02
0.13
0.38
0.70
1.00
1.18
1.24
1.22
1.20
1.25
1.40
1.65
1.92
2.15
2.26
2.20
1.93
1.48
0.90
0.28
-0.30
-0.78
-1.14
-1.40
-1.61
-1.82
-2.03
-2.23
-2.39
-2.51
-2.59
-2.65
-2.67
-2.65
-2.54
-2.34
-2.06
-1.74
-1.44
-1.20
-1.05
-0.97
-0.94
-0.91
-0.86
-0.76
-0.57
-0.27
0.10
0.45
0.65
0.57
0.22
-0.32
-0.83
-1.15
-1.17
-0.95
-0.65
-0.41
-0.34
-0.40
-0.49
-0.49
-0.36
-0.13
0.07
0.18
0.17
0.12
0.17
0.37
0.67
0.94
0.98
0.72
0.20
-0.40
-0.87
-1.06
-0.94
-0.60
-0.21
0.12
0.32
0.40
0.40
0.34
0.26
0.18
0.11
0.08
0.10
0.19
0.32
0.45
0.51
0.43
0.19
-0.17
-0.53
-0.75
-0.71
-0.37
0.18
0.78
1.24
1.40
1.22
0.79
0.27
-0.18
-0.46
-0.58
-0.63
-0.68
-0.74
-0.78
-0.73
-0.56
-0.34
-0.15
-0.10
-0.21
-0.41
-0.57
-0.60
-0.47
-0.24
0.00
0.17
0.24
0.26
0.28
0.38
0.55
0.76
0.92
0.97
0.86
0.61
0.30
0.03
-0.12
-0.14
-0.07
-0.03
-0.09
-0.27
-0.48
-0.60
-0.52
-0.27
0.05
0.24
0.16
-0.17
-0.63
-0.98
-1.04
-0.77
-0.28
0.21
0.53
0.62
0.51
0.33
0.18
0.10
0.05
-0.01
-0.07
-0.09
-0.01
0.23
0.57
0.91
1.14
1.18
0.99
0.62
0.16
-0.30
-0.65
-0.82
-0.80
-0.61
-0.33
-0.07
0.11
0.17
0.15
0.10
0.08
0.12
0.21
0.32
0.41
0.43
0.37
0.25
0.08
-0.07
-0.16
-0.18
-0.11
-0.01
0.07
0.08
0.00
-0.14
-0.28
-0.34
-0.27
-0.09
0.14
0.31
0.37
0.28
0.08
-0.17
-0.38
-0.54
-0.63
-0.66
-0.66
-0.63
-0.56
-0.42
-0.20
0.08
0.34
0.50
0.46
0.18
-0.26
-0.72
-1.06
-1.15
-0.97
-0.59
-0.12
0.34
0.69
0.88
0.91
0.82
0.67
0.52
0.45
0.50
0.64
0.84
1.00
1.03
0.87
0.55
0.13
-0.26
-0.50
-0.53
-0.37
-0.10
0.15
0.31
0.36
0.31
0.19
0.05
-0.06
-0.14
-0.14
-0.10
-0.05
-0.05
-0.15
-0.38
-0.67
-0.93
-1.08
-1.06
-0.87
-0.61
-0.37
-0.25
-0.26
-0.36
-0.46
-0.50
-0.47
-0.42
-0.42
-0.49
-0.61
-0.72
-0.74
-0.65
-0.49
-0.34
-0.26
-0.27
-0.34
-0.42
-0.48
-0.52
-0.54
-0.56
-0.58
-0.62
-0.65
-0.67
-0.64
-0.55
-0.42
-0.29
-0.23
-0.29
-0.52
-0.88
-1.32
-1.73
-2.01
-2.08
-1.90
-1.49
-0.90
-0.18
0.61
1.41
2.17
2.84
3.40
3.82
4.09
4.19
4.13
3.91
3.57
3.15
2.71
2.28
1.89
1.52
1.16
0.81
0.49
0.23
0.03
-0.10
-0.21
-0.33
-0.46
-0.59
-0.69
-0.77
-0.83
-0.93
-1.06
-1.19
-1.28
-1.27
-1.14
-0.93
-0.67
-0.41
-0.22
-0.10
-0.07
-0.12
-0.21
-0.31
-0.38
-0.42
-0.40
-0.34
-0.25
-0.13
0.01
0.16
0.30
0.41
0.50
0.56
0.58
0.52
0.33
0.01
-0.39
-0.75
-0.96
-0.95
-0.74
-0.42
-0.12
0.09
0.16
0.13
0.04
-0.06
-0.12
-0.13
-0.08
0.00
0.11
0.22
0.30
0.36
0.41
0.46
0.49
0.47
0.35
0.11
-0.22
-0.52
-0.68
-0.60
-0.31
0.07
0.38
0.51
0.47
0.35
0.26
0.27
0.34
0.38
0.30
0.09
-0.17
-0.39
-0.50
-0.50
-0.45
-0.44
-0.50
-0.60
-0.63
-0.54
-0.31
-0.02
0.18
0.21
0.07
-0.16
-0.36
-0.44
-0.38
-0.22
-0.01
0.18
0.35
0.49
0.57
0.57
0.50
0.37
0.23
0.14
0.10
0.08
0.05
-0.01
-0.09
-0.10
-0.03
0.13
0.29
0.34
0.22
-0.06
-0.39
-0.61
-0.60
-0.33
0.15
0.69
1.10
1.28
1.18
0.86
0.43
0.01
-0.31
-0.48
-0.52
-0.45
-0.32
-0.17
-0.02
0.10
0.20
0.23
0.20
0.10
-0.05
-0.19
-0.27
-0.26
-0.18
-0.05
0.08
0.13
0.07
-0.10
-0.37
-0.65
-0.91
-1.07
-1.12
-1.08
-0.96
-0.79
-0.61
-0.43
-0.27
-0.16
-0.11
-0.15
-0.27
-0.43
-0.58
-0.67
-0.67
-0.58
-0.39
-0.14
0.14
0.40
0.62
0.78
0.87
0.93
0.97
1.01
1.04
1.03
0.92
0.69
0.32
-0.10
-0.49
-0.75
-0.83
-0.74
-0.56
-0.36
-0.22
-0.13
-0.07
-0.01
0.05
0.06
0.01
-0.12
-0.28
-0.39
-0.38
-0.23
0.02
0.31
0.56
0.75
0.87
0.91
0.86
0.71
0.49
0.25
0.06
-0.02
0.02
0.12
0.21
0.22
0.16
0.07
0.01
0.02
0.13
0.29
0.46
0.57
0.57
0.46
0.27
0.05
-0.13
-0.22
-0.19
-0.07
0.12
0.36
0.63
0.89
1.06
1.11
0.98
0.74
0.49
0.31
0.26
0.31
0.35
0.30
0.10
-0.23
-0.60
-0.89
-1.03
-1.02
-0.90
-0.78
-0.74
-0.80
-0.92
-1.02
-1.02
-0.87
-0.63
-0.38
-0.22
-0.16
-0.20
-0.27
-0.32
-0.34
-0.36
-0.39
-0.42
-0.41
-0.34
-0.20
-0.01
0.19
0.40
0.60
0.75
0.84
0.82
0.72
0.58
0.49
0.49
0.55
0.60
0.53
0.32
-0.00
-0.32
-0.56
-0.69
-0.72
-0.72
-0.67
-0.57
-0.41
-0.22
-0.07
-0.04
-0.18
-0.45
-0.75
-0.96
-0.98
-0.78
-0.40
0.08
0.56
0.90
1.04
0.95
0.69
0.38
0.17
0.15
0.35
0.70
1.09
1.40
1.56
1.58
1.54
1.52
1.57
1.68
1.80
1.84
1.73
1.49
1.28
1.32
1.88
3.05
4.73
6.55
8.07
8.97
9.24
9.26
9.67
11.03
13.58
17.06
20.73
23.76
25.56
26.17
26.23
26.79
28.78
32.60
37.85
43.48
48.27
51.36
52.56
52.47
52.10
52.58
54.76
59.15
65.73
73.48
80.04
81.77
74.78
56.63
27.96
-6.99
-41.58
-69.25
-86.07
-91.99
-90.10
-84.60
-78.61
-73.20
-67.89
-62.01
-55.70
-50.03
-46.11
-44.20
-43.33
-41.89
-38.49
-32.83
-25.89
-19.41
-15.06
-13.70
-15.03
-17.91
-20.90
-22.92
-23.65
-23.49
-23.29
-23.81
-25.33
-27.56
-29.80
-31.36
-31.91
-31.62
-31.06
-30.85
-31.35
-32.49
-33.91
-35.26
-36.49
-37.97
-40.31
-43.99
-48.96
-54.43
-59.15
-61.89
-62.19
-60.57
-58.35
-56.95
-56.95
-58.03
-59.33
-60.41
-61.70
-64.07
-67.48
-69.78
-66.62
-53.28
-27.28
9.95
53.59
98.00
139.50
177.30
211.89
242.10
263.42
269.20
254.43
219.54
171.57
121.62
80.09
52.43
37.93
31.74
28.47
25.10
21.52
19.22
19.33
21.58
24.50
26.49
27.02
26.99
28.24
32.12
38.27
44.13
45.62
38.96
22.65
-1.41
-28.45
-52.79
-70.25
-79.68
-82.81
-82.81
-82.28
-82.16
-81.76
-79.89
-75.96
-70.47
-64.67
-59.71
-56.05
-53.34
-50.88
-48.02
-44.64
-40.92
-37.06
-32.99
-28.34
-22.66
-15.87
-8.39
-1.14
4.86
8.81
10.43
9.94
7.92
5.05
2.00
-0.68
-2.61
-3.61
-3.79
-3.45
-3.09
-3.12
-3.80
-5.15
-6.96
-8.96
-10.94
-12.82
-14.67
-16.62
-18.77
-21.15
-23.75
-26.53
-29.51
-32.71
-36.16
-39.86
-43.76
-47.83
-52.03
-56.40
-61.03
-65.99
-71.36
-77.16
-83.39
-90.02
-96.98
-104.14
-111.35
-118.44
-125.34
-132.20
-139.45
-147.82
-157.93
-169.76
-182.01
-191.92
-195.81
-190.15
-172.70
-143.26
-103.45
-56.09
-4.51
47.78
97.03
139.30
171.09
190.27
197.04
194.10
185.75
176.33
168.85
164.34
162.35
161.82
161.92
162.29
162.86
163.38
163.36
162.22
159.71
156.10
152.08
148.53
146.07
144.85
144.51
144.58
144.76
145.25
146.65
149.71
154.80
161.61
169.18
176.20
181.54
184.74
186.04
185.98
184.78
181.98
176.41
166.74
151.97
131.63
105.67
74.31
38.23
-1.11
-41.06
-78.02
-108.28
-129.47
-141.49
-146.60
-148.30
-149.63
-151.95
-154.71
-156.32
-155.47
-151.99
-146.88
-141.52
-136.87
-132.82
-128.47
-122.78
-115.27
-106.39
-97.27
-89.12
-82.55
-77.41
-72.95
-68.33
-63.05
-57.20
-51.30
-45.95
-41.49
-37.85
-34.68
-31.47
-27.86
-23.78
-19.44
-15.22
-11.51
-8.57
-6.47
-5.12
-4.39
-4.13
-4.28
-4.79
-5.63
-6.69
-7.78
-8.72
-9.32
-9.48
-9.20
-8.56
-7.69
-6.75
-5.91
-5.31
-5.05
-5.16
-5.63
-6.40
-7.34
-8.29
-9.11
-9.67
-9.88
-9.73
-9.24
-8.46
-7.42
-6.12
-4.61
-2.98
-1.41
-0.09
0.94
1.84
2.95
4.62
6.97
9.77
12.49
14.50
15.37
15.01
13.69
11.82
9.80
7.85
5.99
4.20
2.47
0.85
-0.53
-1.56
-2.20
-2.50
-2.60
-2.70
-2.96
-3.51
-4.34
-5.30
-6.15
-6.66
-6.69
-6.23
-5.47
-4.64
-3.92
-3.38
-2.96
-2.56
-2.16
-1.93
-2.14
-3.10
-4.98
-7.68
-10.91
-14.27
-17.47
-20.50
-23.58
-27.14
-31.53
-36.87
-42.94
-49.18
-54.90
-59.52
-62.80
-64.99
-66.80
-69.18
-72.96
-78.47
-85.37
-92.61
-98.80
-102.68
-103.75
-102.64
-101.08
-101.43
-105.65
-114.08
-124.68
-133.10
-133.75
-121.56
-93.80
-51.22
1.90
58.96
112.80
157.61
190.15
210.15
219.77
222.60
222.37
221.58
220.56
217.32
208.39
190.59
162.85
127.30
88.63
52.51
23.37
2.91
-9.94
-17.88
-23.59
-28.50
-32.36
-33.51
-29.53
-18.10
2.01
30.25
63.88
98.56
129.72
154.35
171.98
184.22
193.06
199.19
201.45
197.82
187.17
170.24
149.22
126.20
101.89
75.50
45.96
13.61
-19.27
-49.18
-73.10
-90.04
-101.19
-108.93
-115.22
-120.75
-124.90
-126.73
-125.80
-122.43
-117.44
-111.71
-105.71
-99.58
-93.31
-87.00
-80.87
-75.16
-69.93
-65.02
-60.08
-54.83
-49.14
-43.24
-37.60
-32.76
-29.09
-26.67
-25.27
-24.42
-23.62
-22.47
-20.81
-18.74
-16.53
-14.53
-12.95
-11.87
-11.12
-10.39
-9.37
-7.90
-6.03
-4.06
-2.38
-1.27
-0.87
-1.02
-1.47
-1.91
-2.18
-2.20
-2.01
-1.67
-1.24
-0.74
-0.21
0.30
0.70
0.92
0.95
0.84
0.69
0.58
0.56
0.55
0.43
0.02
-0.75
-1.85
-3.08
-4.10
-4.59
-4.35
-3.41
-2.04
-0.62
0.53
1.19
1.36
1.15
0.75
0.33
0.04
-0.01
0.21
0.69
1.33
1.95
2.37
2.44
2.11
1.49
0.72
0.02
-0.44
-0.57
-0.38
0.02
0.45
0.76
0.83
0.68
