1660926935.00
64.000000
-0.00
-0.00
-0.00
-0.00
-0.00
-0.00
-0.00
-0.00
-0.00
-0.00
0.00
0.01
0.01
-0.00
-0.03
-0.05
-0.05
0.00
0.13
0.36
0.66
1.01
1.37
1.72
2.06
2.40
2.79
3.25
3.81
4.43
5.09
5.73
6.33
6.92
7.55
8.28
9.13
10.18
11.34
12.49
13.55
14.48
15.38
16.41
17.77
19.58
22.02
24.89
27.92
30.86
33.58
36.21
39.07
42.56
46.94
52.53
58.94
65.68
72.28
78.51
84.55
90.90
98.18
106.76
116.99
128.28
139.89
151.15
161.80
172.11
182.76
194.94
206.97
220.76
236.68
254.92
274.65
293.48
307.52
312.23
303.97
281.26
245.88
201.31
151.96
101.55
52.32
5.09
-40.09
-83.21
-124.15
-162.64
-199.38
-235.60
-272.57
-310.55
-347.93
-381.18
-405.72
-417.67
-415.32
-400.00
-375.55
-346.82
-317.95
-291.19
-266.94
-244.48
-223.11
-202.54
-183.12
-165.20
-148.71
-133.06
-117.47
-101.43
-85.01
-68.93
-54.16
-41.57
-31.49
-23.64
-17.31
-11.70
-6.29
-1.00
3.91
8.06
11.28
13.66
15.51
17.21
19.01
20.89
22.61
23.84
24.34
24.09
23.29
22.28
21.38
20.78
20.50
20.43
20.42
20.35
20.16
19.84
19.40
18.86
18.24
17.54
16.76
15.92
15.03
14.13
13.30
12.64
12.25
12.14
12.28
12.52
12.71
12.75
12.60
12.32
11.99
11.70
11.51
11.44
11.48
11.60
11.73
11.79
11.70
11.36
10.71
9.73
8.50
7.14
5.82
4.70
3.86
3.31
2.94
2.60
2.18
1.67
1.16
0.89
1.05
1.79
3.11
4.87
6.90
9.02
11.08
12.95
14.51
15.61
16.16
16.15
15.66
14.87
13.98
13.10
12.28
11.47
10.57
9.51
8.22
6.68
4.88
2.87
0.72
-1.43
-3.44
-5.15
-6.50
-7.46
-8.10
-8.55
-8.96
-9.45
-10.08
-10.80
-11.54
-12.16
-12.57
-12.71
-12.60
-12.29
-11.89
-11.47
-11.08
-10.74
-10.44
-10.14
-9.80
-9.41
-8.95
-8.45
-7.92
-7.40
-6.89
-6.45
-6.08
-5.77
-5.45
-4.99
-4.22
-3.06
-1.51
0.31
2.26
4.21
6.13
8.00
9.79
11.37
12.53
13.07
12.86
11.89
10.28
8.24
5.97
3.69
1.63
-0.04
-1.17
-1.72
-1.76
-1.43
-0.91
-0.36
0.13
0.50
0.76
0.97
1.21
1.60
2.20
3.07
4.15
5.30
6.34
7.08
7.42
7.38
7.09
6.76
6.54
6.51
6.63
6.77
6.79
6.61
6.22
5.67
5.04
4.40
3.84
3.45
3.27
3.28
3.41
3.57
3.63
3.57
3.36
3.08
2.79
2.54
2.36
2.27
2.26
2.31
2.39
2.43
2.35
2.08
1.60
0.93
0.19
-0.46
-0.86
-0.91
-0.63
-0.16
0.31
0.60
0.66
0.55
0.37
0.26
0.22
0.22
0.17
0.02
-0.18
-0.36
-0.43
-0.37
-0.20
0.03
0.26
0.46
0.65
0.83
1.01
1.21
1.40
1.58
1.73
1.87
2.03
2.25
2.54
2.86
3.14
3.24
3.08
2.65
2.06
1.43
0.90
0.53
0.31
0.19
0.14
0.16
0.27
0.45
0.66
0.84
0.93
0.94
0.90
0.84
0.80
0.78
0.76
0.73
0.65
0.50
0.26
-0.07
-0.46
-0.84
-1.14
-1.33
-1.44
-1.52
-1.67
-1.92
-2.26
-2.63
-2.99
-3.29
-3.51
-3.62
-3.56
-3.31
-2.82
-2.09
-1.16
-0.09
1.04
2.19
3.31
4.35
5.29
6.06
6.61
6.86
6.79
6.42
5.80
5.06
4.28
3.53
2.83
2.23
1.73
1.41
1.31
1.40
1.60
1.75
1.74
1.49
1.10
0.76
0.71
1.13
2.03
3.26
4.50
5.44
5.84
5.70
5.21
4.70
4.53
4.87
5.69
6.75
7.62
7.88
7.19
5.46
2.88
-0.13
-3.02
-5.34
-6.83
-7.50
-7.52
-7.16
-6.66
-6.15
-5.72
-5.42
-5.29
-5.33
-5.49
-5.67
-5.75
-5.63
-5.30
-4.81
-4.24
-3.67
-3.13
-2.67
-2.32
-2.14
-2.13
-2.29
-2.55
-2.83
-3.04
-3.13
-3.11
-3.03
-2.94
-2.89
-2.89
-2.93
-2.98
-3.04
-3.11
-3.22
-3.40
-3.65
-4.02
-4.51
-5.13
-5.89
-6.72
-7.52
-8.18
-8.64
-8.91
-9.08
-9.27
-9.55
-9.87
-10.03
-9.74
-8.63
-6.37
-2.76
2.18
8.09
14.32
20.05
24.51
27.29
28.40
28.27
27.47
26.43
25.27
23.71
21.31
17.67
12.73
6.82
0.68
-4.83
-8.97
-11.35
-12.11
-11.76
-11.01
-10.43
-10.30
-10.60
-11.12
-11.66
-12.16
-12.65
-13.22
-13.92
-14.73
-15.60
-16.52
-17.57
-18.89
-20.61
-22.80
-25.40
-28.30
-31.33
-34.40
-37.55
-40.87
-44.54
-48.70
-53.39
-58.60
-64.21
-70.13
-76.28
-82.63
-89.12
-95.62
-102.09
-108.48
-114.84
-121.28
-127.84
-134.45
-140.99
-147.60
-154.74
-162.86
-171.81
-180.15
-185.03
-182.80
-170.29
-145.93
-110.27
-65.52
-14.86
38.26
90.22
137.17
175.20
201.07
213.34
213.05
203.61
189.54
174.90
162.08
151.61
142.81
134.76
126.94
119.30
112.04
105.22
98.77
92.58
86.70
81.33
76.77
73.15
70.25
67.57
64.42
60.25
54.78
48.19
41.00
33.94
27.72
22.81
19.39
17.26
15.97
14.98
13.83
12.26
10.31
8.18
6.14
4.34
2.78
1.27
-0.39
-2.36
-4.60
-6.91
-9.01
-10.65
-11.71
-12.19
-12.21
-11.83
-11.13
-10.11
-8.75
-7.11
-5.28
-3.40
-1.59
0.06
1.52
2.76
3.75
4.47
4.91
5.12
5.18
5.20
5.31
5.61
6.19
7.04
8.13
9.29
10.35
11.14
11.56
11.63
11.48
11.26
11.11
11.09
11.17
11.29
11.34
11.26
11.04
10.69
10.26
9.82
9.41
9.03
8.67
8.29
7.87
7.34
6.67
5.81
4.77
3.62
2.49
1.50
0.74
0.21
-0.20
-0.60
-1.04
-1.51
-1.99
-2.48
-3.01
-3.64
-4.40
-5.16
-5.78
-6.09
-6.05
-5.70
-5.14
-4.49
-3.78
-3.04
-2.29
-1.55
-0.85
-0.21
0.43
1.11
1.88
2.73
3.57
4.26
4.71
4.88
4.83
4.69
4.57
4.53
4.52
4.39
3.98
3.20
2.14
1.04
0.17
-0.25
-0.13
0.50
1.55
2.82
4.02
4.77
4.68
3.53
1.43
-1.18
-3.66
-5.43
-6.20
-6.04
-5.21
-3.94
-2.32
-0.40
1.64
3.32
3.92
2.85
-0.01
-4.09
-8.36
-11.69
-13.40
-13.47
-12.45
-11.07
-9.88
-9.03
-8.36
-7.65
-6.81
-5.95
-5.30
-4.96
-4.91
-4.98
-4.92
-4.59
-3.96
-3.13
-2.27
-1.55
-1.11
-0.96
-1.03
-1.18
-1.23
-1.08
-0.69
-0.11
0.57
1.21
1.76
2.21
2.61
2.98
3.24
3.23
2.75
1.71
0.20
-1.50
-2.99
-3.96
-4.30
-4.13
-3.71
-3.29
-3.01
-2.85
-2.72
-2.56
-2.38
-2.26
-2.26
-2.38
-2.54
-2.58
-2.43
-2.08
-1.64
-1.30
-1.17
-1.25
-1.43
-1.50
-1.34
-0.93
-0.45
-0.12
-0.13
-0.51
-1.11
-1.67
-1.98
-1.93
-1.56
-1.01
-0.44
0.06
0.47
0.80
1.01
1.08
0.97
0.71
0.41
0.22
0.25
0.53
0.95
1.34
1.53
1.46
1.16
0.77
0.45
0.30
0.33
0.42
0.43
0.26
-0.04
-0.36
-0.52
-0.42
-0.06
0.39
0.78
0.98
1.00
0.91
0.82
0.76
0.74
0.71
0.67
0.66
0.78
1.07
1.54
2.08
2.55
2.83
2.89
2.79
2.69
2.71
2.96
3.43
4.02
4.61
5.11
5.44
5.55
5.45
5.16
4.78
4.46
4.37
4.66
5.42
6.64
8.20
9.83
11.08
11.36
10.18
7.32
3.08
-1.78
-6.28
-9.55
-11.21
-11.42
-10.69
-9.65
-8.72
-8.04
-7.57
-7.20
-6.87
-6.57
-6.32
-6.09
-5.83
-5.48
-5.04
-4.55
-4.05
-3.62
-3.28
-3.05
-2.92
-2.83
-2.75
-2.62
-2.42
-2.11
-1.70
-1.25
-0.84
-0.56
-0.45
-0.49
-0.56
-0.55
-0.42
-0.19
-0.03
-0.06
-0.33
-0.74
-1.12
-1.26
-1.12
-0.76
-0.35
-0.04
0.09
0.06
-0.02
-0.02
0.11
0.36
0.66
0.89
0.96
0.84
0.60
0.36
0.22
0.26
0.45
0.68
0.81
0.75
0.51
0.17
-0.15
-0.35
-0.41
-0.33
-0.19
-0.05
0.04
0.07
0.03
-0.05
-0.13
-0.17
-0.14
-0.08
-0.02
-0.00
-0.06
-0.15
-0.25
-0.30
-0.27
-0.20
-0.11
-0.05
-0.02
-0.04
-0.09
-0.16
-0.22
-0.26
-0.31
-0.34
-0.38
-0.39
-0.34
-0.20
0.03
0.31
0.58
0.78
0.84
0.74
0.49
0.15
-0.23
-0.55
-0.74
-0.74
-0.54
-0.19
0.21
0.53
0.67
0.61
0.40
0.13
-0.06
-0.13
-0.07
0.04
0.09
0.05
-0.08
-0.20
-0.23
-0.15
0.01
0.13
0.15
0.08
-0.04
-0.13
-0.14
-0.10
-0.09
-0.14
-0.26
-0.39
-0.45
-0.38
-0.18
0.11
0.42
0.69
0.89
0.98
0.97
0.84
0.59
0.25
-0.12
-0.41
-0.54
-0.47
-0.24
0.06
0.30
0.39
0.29
0.07
-0.17
-0.36
-0.46
-0.51
-0.57
-0.70
-0.87
-1.01
-1.03
-0.85
-0.47
0.00
0.43
0.68
0.72
0.61
0.45
0.32
0.25
0.20
0.15
0.11
0.08
0.09
0.12
0.12
0.07
-0.05
-0.16
-0.19
-0.13
-0.02
0.05
0.01
-0.13
-0.30
-0.41
-0.39
-0.26
-0.11
0.00
0.02
-0.06
-0.20
-0.34
-0.45
-0.54
-0.62
-0.70
-0.81
-0.91
-0.97
-0.95
-0.81
-0.58
-0.32
-0.08
0.07
0.12
0.11
0.06
-0.04
-0.24
-0.57
-1.02
-1.47
-1.76
-1.76
-1.48
-1.05
-0.68
-0.55
-0.72
-1.11
-1.58
-1.96
-2.17
-2.21
-2.16
-2.16
-2.30
-2.65
-3.18
-3.77
-4.23
-4.41
-4.24
-3.78
-3.23
-2.82
-2.76
-3.12
-3.80
-4.60
-5.29
-5.71
-5.86
-5.87
-5.96
-6.35
-7.19
-8.50
-10.12
-11.71
-12.73
-12.56
-10.66
-6.86
-1.57
4.30
9.60
13.34
15.07
15.02
13.88
12.41
11.15
10.20
9.42
8.60
7.70
6.85
6.25
6.00
6.00
6.05
5.91
5.49
4.86
4.20
3.69
3.42
3.33
3.27
3.07
2.67
2.13
1.61
1.31
1.32
1.61
2.01
2.30
2.34
2.13
1.76
1.43
1.26
1.26
1.38
1.54
1.71
1.92
2.22
2.59
2.96
3.23
3.32
3.29
3.28
3.46
3.93
4.65
5.44
6.12
6.59
6.89
7.16
7.61
8.42
9.61
11.10
12.61
13.86
14.60
14.80
14.71
14.77
15.48
17.10
19.55
22.36
24.98
26.97
28.28
29.18
30.13
31.50
33.55
36.48
40.40
45.17
50.05
53.54
53.64
48.69
38.29
23.80
7.98
-6.11
-16.33
-22.26
-25.17
-27.27
-30.79
-37.20
-46.93
-59.37
-73.15
-86.46
-97.50
-104.96
-108.35
-108.14
-105.55
-102.17
-99.73
-99.78
-103.27
-109.83
-117.29
-121.73
-118.71
-105.28
-81.66
-51.71
-21.66
2.44
16.94
21.47
18.23
10.49
1.38
-6.45
-10.61
-9.02
-0.50
14.30
32.51
49.79
62.04
67.08
65.34
59.26
51.83
45.25
40.32
36.83
34.23
32.21
30.76
29.90
29.39
28.82
27.76
25.92
23.47
20.89
18.76
17.52
17.25
17.61
18.01
17.86
16.85
15.08
13.00
11.16
9.98
9.51
9.49
9.51
9.22
8.51
7.56
6.75
6.50
7.13
8.78
11.43
14.99
19.28
24.22
29.72
35.73
42.14
48.65
54.84
60.19
64.28
66.95
68.34
68.81
68.68
68.04
66.68
64.24
60.49
55.66
50.53
46.20
43.62
43.12
44.16
45.55
46.11
45.28
43.50
41.86
41.56
43.19
46.59
51.29
57.10
64.25
72.78
81.58
87.94
88.29
79.89
62.54
39.13
14.56
-6.45
-21.35
-30.37
-35.57
-39.17
-42.14
-44.11
-44.23
-42.27
-39.02
-35.84
-33.75
-32.56
-30.93
-27.09
-20.00
-10.32
-0.67
5.20
3.86
-6.21
-23.80
-45.29
-66.03
-82.12
-91.72
-95.31
-94.83
-92.47
-89.60
-86.51
-82.78
-77.99
-72.22
-66.10
-60.43
-55.79
-52.20
-49.15
-45.90
-41.92
-37.14
-32.01
-27.20
-23.27
-20.38
-18.20
-16.15
-13.69
-10.62
-7.11
-3.61
-0.61
1.56
2.86
3.41
3.44
3.17
2.73
2.23
1.76
1.51
1.65
2.32
3.49
4.88
6.01
6.36
5.58
3.64
0.93
-1.97
-4.47
-6.26
-7.33
-7.92
-8.31
-8.66
-8.92
-9.01
-8.86
-8.54
-8.24
-8.13
-8.28
-8.60
-8.93
-9.12
-9.13
-9.03
-8.96
-9.07
-9.39
-9.86
-10.31
-10.56
-10.44
-9.93
-9.11
-8.14
-7.23
-6.58
-6.26
-6.20
-6.22
-6.07
-5.53
-4.52
-3.12
-1.56
-0.12
0.98
1.64
1.89
1.80
1.51
1.10
0.68
0.34
0.15
0.15
0.34
0.66
1.04
1.42
1.74
1.92
1.92
1.75
1.45
1.14
0.94
0.93
1.06
1.23
1.32
1.27
1.09
0.84
0.58
0.32
0.04
-0.25
-0.55
-0.82
-0.99
-1.05
-1.03
-0.95
-0.86
-0.74
-0.62
-0.49
-0.38
-0.26
-0.07
0.25
0.69
1.16
1.48
1.46
1.02
0.27
-0.57
-1.27
-1.68
-1.85
-1.95
-2.15
-2.52
-2.98
-3.38
-3.59
-3.55
-3.32
-2.96
-2.51
-1.98
-1.40
-0.80
-0.26
0.09
0.18
-0.04
-0.53
-1.17
-1.80
-2.26
-2.40
-2.19
-1.68
-1.01
-0.36
0.11
0.32
0.30
0.12
-0.08
-0.17
-0.03
0.43
1.29
2.55
4.08
5.68
7.05
7.91
8.06
7.40
6.03
4.16
2.06
0.01
-1.80
-3.22
-4.19
-4.71
-4.75
-4.35
-3.58
-2.62
-1.73
-1.19
-1.14
-1.57
-2.24
-2.80
-2.96
-2.59
-1.81
-0.88
-0.04
0.58
1.03
1.44
1.98
2.66
3.41
4.08
4.56
4.83
5.00
5.17
5.38
5.58
5.66
5.52
5.11
4.49
3.73
2.94
2.13
1.32
0.48
-0.39
-1.24
-2.02
-2.67
-3.17
-3.51
-3.75
-3.93
-4.06
-4.13
-4.11
-4.00
-3.81
-3.59
-3.36
-3.14
-2.88
-2.56
-2.19
-1.84
-1.58
-1.51
-1.62
-1.87
-2.17
-2.46
-2.70
-2.87
-2.98
-3.05
-3.08
-3.09
-3.04
-2.87
-2.49
-1.85
-0.94
0.14
1.23
2.10
2.61
2.63
2.16
1.29
0.23
-0.80
-1.55
-1.88
-1.74
-1.20
-0.44
0.41
1.21
1.88
2.39
2.71
2.84
2.81
2.65
2.45
2.27
2.15
2.08
2.02
1.93
1.80
1.66
1.54
1.47
1.42
1.37
1.29
1.22
1.22
1.34
1.56
1.80
1.97
2.00
1.86
1.59
1.25
0.87
0.45
-0.01
-0.51
-1.04
-1.55
-1.97
-2.23
-2.30
-2.18
-1.93
-1.64
-1.42
-1.34
-1.38
-1.48
-1.56
-1.60
-1.63
-1.69
-1.83
-2.02
-2.17
-2.20
-2.05
-1.69
-1.19
-0.62
-0.11
0.29
0.56
0.74
0.93
1.19
1.52
1.85
2.09
2.17
2.06
1.74
1.21
0.46
-0.50
-1.58
-2.62
-3.39
-3.76
-3.69
-3.29
-2.70
-2.09
-1.55
-1.09
-0.73
-0.49
-0.39
-0.41
-0.46
-0.38
-0.06
0.54
1.32
2.09
2.68
3.00
3.07
2.98
2.80
2.56
2.27
1.92
1.51
1.11
0.74
0.47
0.31
0.32
0.53
0.95
1.56
2.23
2.81
3.12
3.04
2.56
1.81
0.97
0.21
-0.35
-0.69
-0.84
-0.91
-0.94
-0.97
-1.00
-1.00
-0.99
-0.99
-1.06
-1.22
-1.48
-1.75
-1.97
-2.09
-2.13
-2.16
-2.26
-2.44
-2.66
-2.85
-2.92
-2.86
-2.71
-2.54
-2.38
-2.20
-1.91
-1.42
-0.66
0.32
1.46
2.59
3.57
4.26
4.56
4.43
3.87
2.92
1.67
0.28
-1.05
-2.08
-2.64
-2.64
-2.10
-1.20
-0.18
0.71
1.28
1.44
1.20
0.63
-0.12
-0.88
-1.45
-1.65
-1.40
-0.74
0.16
1.06
1.78
2.21
2.37
2.37
2.34
2.37
2.46
2.54
2.51
2.33
2.03
1.73
1.55
1.54
1.67
1.82
1.84
1.70
1.41
1.04
0.66
0.27
-0.17
-0.71
-1.31
-1.89
-2.35
-2.63
-2.76
-2.78
-2.74
-2.64
-2.41
-2.04
-1.56
-1.06
-0.66
-0.44
-0.41
-0.53
-0.74
-1.02
-1.37
-1.77
-2.18
-2.50
-2.61
-2.46
-2.09
-1.63
-1.23
-1.01
-0.98
-1.05
-1.13
-1.17
-1.14
-1.06
-0.87
-0.53
0.06
0.88
1.81
2.64
3.17
3.31
3.11
2.76
2.43
2.25
2.23
2.33
2.50
2.73
2.98
3.22
3.32
3.16
2.65
1.82
0.83
-0.13
-0.88
-1.29
-1.36
-1.16
-0.83
-0.47
-0.16
0.06
0.21
0.33
0.44
0.52
0.55
0.50
0.44
0.45
0.64
1.03
1.54
2.04
2.35
2.37
2.11
1.61
1.00
0.35
-0.25
-0.78
-1.23
-1.61
-1.93
-2.17
-2.31
-2.30
-2.15
-1.91
-1.66
-1.50
-1.48
-1.57
-1.69
-1.74
-1.65
-1.41
-1.06
-0.69
-0.42
-0.36
-0.58
-1.06
-1.68
-2.24
-2.54
-2.48
-2.05
-1.42
-0.77
-0.24
0.08
0.19
0.14
-0.00
-0.17
-0.29
-0.24
0.02
0.49
1.05
1.53
1.73
1.52
0.93
0.13
-0.60
-0.99
-0.90
-0.36
0.45
1.28
1.92
2.27
2.37
2.28
2.07
1.74
1.27
0.68
0.08
-0.42
-0.71
-0.76
-0.62
-0.41
-0.20
-0.04
0.06
0.12
0.15
0.14
0.12
0.13
0.19
0.30
0.44
0.59
0.79
1.08
1.51
2.02
2.46
2.65
2.47
1.94
1.22
0.52
0.00
-0.34
-0.63
-0.97
-1.41
-1.85
-2.13
-2.14
-1.92
-1.61
-1.39
-1.33
-1.39
-1.43
-1.32
-1.03
-0.65
-0.31
-0.15
-0.23
-0.50
-0.88
-1.27
-1.61
-1.87
-2.05
-2.16
-2.17
-2.05
-1.75
-1.25
-0.56
0.21
0.95
1.51
1.82
1.83
1.62
1.28
0.91
0.62
0.44
0.40
0.51
0.70
0.92
1.07
1.09
1.00
0.83
0.67
0.56
0.46
0.31
-0.00
-0.49
-1.08
-1.60
-1.86
-1.74
-1.28
-0.67
-0.14
0.13
0.08
-0.18
-0.47
-0.64
-0.65
-0.57
-0.52
-0.58
-0.70
-0.78
-0.70
-0.41
-0.01
0.42
0.81
1.20
1.68
2.32
3.07
3.79
4.26
4.32
3.93
3.14
2.07
0.86
-0.37
-1.54
-2.54
-3.32
-3.85
-4.13
-4.21
-4.13
-3.98
-3.84
-3.84
-4.15
-4.84
-5.90
-7.18
-8.45
-9.51
-10.29
-10.87
-11.47
-12.35
-13.62
-15.23
-16.96
-18.59
-19.98
-21.19
-22.44
-24.03
-26.21
-29.03
-32.39
-36.10
-39.96
-43.89
-47.94
-52.25
-57.00
-62.30
-68.14
-74.36
-80.68
-86.83
-92.68
-98.33
-104.10
-110.44
-117.69
-125.97
-135.27
-145.62
-157.16
-169.81
-182.65
-193.55
-199.19
-195.95
-181.16
-154.18
-116.50
-70.99
-20.65
32.06
85.13
136.29
182.46
220.00
245.87
258.88
260.35
253.60
242.61
230.63
219.54
210.06
202.33
196.48
192.71
190.78
189.67
187.49
181.78
170.20
150.95
123.17
87.37
45.50
0.77
-43.09
-82.65
-115.51
-140.22
-155.55
-159.62
-149.79
-123.80
-81.55
-26.66
33.56
90.08
135.15
164.93
180.34
185.89
187.28
189.24
194.32
202.81
213.19
222.74
228.13
225.95
213.53
189.47
153.96
108.68
56.37
0.50
-54.94
-105.63
-147.47
-177.34
-194.06
-198.78
-194.69
-185.96
-176.37
-168.37
-162.82
-159.27
-156.65
-153.81
-149.88
-144.52
-137.92
-130.75
-124.02
-118.83
-116.12
-116.29
-118.75
-121.52
-121.18
-113.40
-94.04
-60.60
-13.51
43.49
104.36
162.49
212.68
252.08
279.81
295.82
299.61
289.94
265.49
226.17
174.32
114.88
54.54
0.05
-43.51
-73.92
-91.80
-99.79
-101.23
-98.98
-94.82
-89.50
-83.36
-76.93
-71.16
-67.04
-65.03
-64.64
-64.59
-63.46
-60.38
-55.49
-49.77
-44.51
-40.70
-38.57
-37.62
-36.95
-35.68
-33.32
-29.97
-26.15
-22.58
-19.80
-17.98
-16.91
-16.15
-15.23
-13.85
-12.01
-9.91
-7.88
-6.20
-5.01
-4.28
-3.85
-3.53
-3.19
-2.78
-2.40
-2.20
-2.35
-2.88
-3.72
-4.66
-5.44
-5.85
-5.76
-5.15
-4.06
-2.59
-0.90
0.83
2.43
3.73
4.67
5.29
5.74
6.18
6.68
7.20
7.61
7.73
7.45
6.72
5.64
4.35
3.05
1.94
1.14
0.72
0.63
0.71
0.81
0.79
0.66
0.47
0.33
0.28
0.29
0.25
0.03
-0.41
-1.03
-1.69
-2.28
-2.70
-2.91
-2.87
-2.58
-2.04
-1.25
-0.30
0.68
1.55
2.14
2.34
2.14
1.55
0.68
-0.36
-1.42
-2.37
-3.08
-3.51
-3.65
-3.60
-3.46
-3.32
-3.21
-3.05
-2.73
-2.13
-1.20
-0.01
1.34
2.72
4.02
5.18
6.12
6.72
6.84
6.36
5.36
4.06
2.78
1.81
1.33
1.30
1.54
1.87
2.14
2.29
2.32
2.23
2.02
1.70
1.30
0.90
0.60
0.50
0.62
0.93
1.31
1.68
2.00
2.26
2.51
2.72
2.82
2.76
2.51
2.15
1.87
1.81
2.06
2.53
3.06
3.43
3.51
3.32
2.95
2.55
2.23
2.01
1.83
1.62
1.29
0.76
0.04
-0.84
-1.83
-2.85
-3.84
-4.72
-5.43
-5.88
-6.02
-5.86
-5.44
-4.91
-4.41
-4.06
-3.91
-3.89
-3.87
-3.71
-3.37
-2.90
-2.44
-2.13
-2.05
-2.13
-2.25
-2.25
-2.03
-1.60
-1.04
-0.45
0.10
0.56
0.91
1.13
1.22
1.18
1.06
0.92
0.84
0.83
0.83
0.71
0.33
-0.33
-1.19
-2.03
-2.59
-2.70
-2.30
-1.52
-0.56
0.37
1.11
1.57
1.74
1.63
1.29
0.80
0.28
-0.14
-0.37
-0.38
-0.24
-0.06
0.07
0.16
0.26
0.48
0.86
1.35
1.81
2.08
2.02
1.61
0.99
0.38
0.00
0.01
0.38
0.94
1.45
1.72
1.73
1.58
1.45
1.47
1.63
1.80
1.84
1.66
1.29
0.84
0.39
-0.01
-0.41
-0.88
-1.42
-1.97
-2.42
-2.67
-2.73
-2.65
-2.56
-2.54
-2.61
-2.77
-2.96
-3.13
-3.28
-3.40
-3.46
-3.41
-3.24
-2.97
-2.68
-2.47
-2.36
-2.30
-2.20
-1.95
-1.56
-1.06
-0.54
-0.06
0.37
0.77
1.15
1.50
1.72
1.79
1.71
1.55
1.41
1.39
1.50
1.74
2.04
2.33
2.57
2.74
2.81
2.77
2.59
2.25
1.74
1.11
0.46
-0.08
-0.43
-0.54
-0.42
-0.14
0.19
0.47
0.62
0.59
0.35
-0.02
-0.43
-0.73
-0.83
-0.71
-0.47
-0.24
-0.10
-0.04
0.03
0.22
0.59
1.11
1.65
2.08
2.29
2.25
2.00
1.62
1.15
0.63
0.05
-0.56
-1.14
-1.61
-1.92
-2.03
-1.97
-1.81
-1.64
-1.53
-1.54
-1.69
-1.96
-2.36
-2.85
-3.38
-3.88
-4.28
-4.51
-4.55
-4.40
-4.10
-3.72
-3.34
-3.00
-2.70
-2.42
-2.06
-1.55
-0.83
0.12
1.25
2.43
3.54
4.41
4.95
5.10
4.88
4.38
3.76
3.18
2.79
2.64
2.69
2.79
2.77
2.50
2.00
1.36
0.75
0.33
0.19
0.32
0.65
1.05
1.39
1.56
1.54
1.40
1.26
1.28
1.50
1.85
2.17
2.31
2.20
1.92
1.58
1.32
1.19
1.15
1.09
0.98
0.78
0.53
0.28
0.00
-0.31
-0.70
-1.15
-1.61
-2.04
-2.40
-2.64
-2.76
-2.76
-2.64
-2.46
-2.28
-2.13
-1.98
-1.77
-1.42
-0.90
-0.33
0.16
0.38
0.30
-0.04
-0.45
-0.78
-0.95
-0.98
-0.98
-1.02
-1.17
-1.43
-1.80
-2.23
-2.71
-3.15
-3.44
-3.43
-2.99
-2.09
-0.80
0.67
2.06
3.12
3.68
3.68
3.19
2.38
1.45
0.62
0.04
-0.23
-0.20
0.01
0.31
0.60
0.85
1.06
1.22
1.28
1.18
0.88
0.40
-0.18
-0.73
-1.14
-1.35
-1.35
-1.17
-0.85
-0.41
0.15
0.80
1.49
2.12
2.59
2.83
2.83
2.62
2.33
2.09
2.01
2.13
2.41
2.72
2.93
2.93
2.66
2.13
1.38
0.49
-0.44
-1.33
-2.07
-2.60
-2.87
-2.89
-2.71
-2.45
-2.22
-2.11
-2.16
-2.29
-2.37
-2.27
-1.88
-1.22
-0.42
0.29
0.70
0.72
0.41
-0.06
-0.50
-0.77
-0.82
-0.71
-0.52
-0.35
-0.26
-0.29
-0.45
-0.71
-0.95
-1.04
-0.88
-0.45
0.13
0.58
0.66
0.24
-0.63
-1.69
-2.65
-3.25
-3.38
-3.07
-2.41
-1.57
-0.68
0.14
0.78
1.20
1.37
1.34
1.17
0.96
0.76
0.62
0.53
0.44
0.28
-0.02
-0.50
-1.13
-1.81
-2.43
-2.88
-3.11
-3.07
-2.73
-2.08
-1.08
0.24
1.79
3.44
5.09
6.67
8.14
9.46
10.59
11.40
11.82
11.83
11.54
11.12
10.72
10.43
10.18
9.82
9.13
7.92
6.07
3.60
0.70
-2.32
-5.12
-7.36
-8.86
-9.57
-9.58
-9.06
-8.20
-7.20
-6.27
-5.54
-5.09
-4.88
-4.76
-4.61
-4.33
-3.95
-3.60
-3.41
-3.42
-3.56
-3.67
-3.61
-3.28
-2.68
-1.88
-0.95
-0.03
0.74
1.17
1.13
0.55
-0.52
-1.88
-3.28
-4.48
-5.28
-5.59
-5.44
-4.94
-4.25
-3.58
-3.06
-2.75
-2.61
-2.51
-2.35
-2.09
-1.73
-1.30
-0.78
-0.12
0.71
1.65
2.59
3.36
3.87
4.10
4.16
4.14
4.07
3.94
3.67
3.26
2.77
2.34
2.06
1.98
2.03
2.11
2.13
2.05
1.84
1.52
1.08
0.57
0.04
-0.43
-0.73
-0.82
-0.72
-0.49
-0.25
-0.10
-0.09
-0.22
-0.46
-0.75
-1.11
-1.51
-1.94
-2.34
-2.60
-2.63
-2.39
-1.95
-1.46
-1.13
-1.11
-1.39
-1.83
-2.21
-2.33
-2.13
-1.68
-1.13
-0.63
-0.24
0.07
0.36
0.66
0.96
1.20
1.38
1.59
1.95
2.58
3.45
4.38
5.11
5.39
5.13
4.41
3.44
2.46
1.61
0.92
0.34
-0.16
-0.57
-0.84
-0.90
-0.77
-0.55
-0.40
-0.48
-0.85
-1.44
-2.11
-2.65
-2.88
-2.74
-2.30
-1.69
-1.12
-0.74
-0.62
-0.75
-1.01
-1.30
-1.51
-1.66
-1.77
-1.90
-2.02
-2.07
-1.92
-1.49
-0.78
0.12
1.07
1.92
2.58
3.03
3.30
3.45
3.51
3.46
3.25
2.83
2.18
1.38
0.54
-0.19
-0.70
-0.94
-0.93
-0.76
-0.54
-0.39
-0.40
-0.69
-1.31
-2.25
-3.39
-4.54
-5.49
-6.10
-6.33
-6.28
-6.09
-5.88
-5.72
-5.58
-5.37
-4.91
-4.02
-2.57
-0.57
1.77
4.09
5.93
6.97
7.11
6.49
5.41
4.19
3.05
2.09
1.35
0.88
0.73
0.93
1.45
2.15
2.78
3.16
3.15
2.76
2.12
1.40
0.80
0.43
0.32
0.43
0.65
0.89
1.02
1.00
0.82
0.53
0.26
0.14
0.26
0.63
1.16
1.70
2.13
2.41
2.57
2.67
2.72
2.69
2.52
2.19
1.73
1.22
0.73
0.30
-0.07
-0.38
-0.65
-0.90
-1.13
-1.34
-1.53
-1.69
-1.79
-1.81
-1.75
-1.61
-1.40
-1.13
-0.83
-0.54
-0.41
-0.57
-1.15
-2.13
-3.34
-4.49
-5.35
-5.76
-5.77
-5.53
-5.19
-4.85
-4.52
-4.15
-3.76
-3.35
-2.97
-2.60
-2.19
-1.66
-1.02
-0.34
0.20
0.49
0.50
0.35
0.24
0.40
0.98
2.00
3.35
4.86
6.29
7.41
8.07
8.21
7.86
7.18
6.34
5.46
4.66
3.97
3.42
3.03
2.79
2.65
2.56
2.44
2.27
2.08
1.93
1.88
1.95
2.08
2.19
2.22
2.22
2.25
2.41
2.70
3.04
3.28
3.28
2.97
2.40
1.67
0.90
0.11
-0.76
-1.79
-2.99
-4.27
-5.38
-6.09
-6.29
-6.05
-5.59
-5.18
-4.94
-4.85
-4.76
-4.55
-4.19
-3.79
-3.48
-3.36
-3.40
-3.53
-3.65
-3.76
-3.90
-4.09
-4.34
-4.58
-4.73
-4.70
-4.48
-4.11
-3.70
-3.32
-3.01
-2.73
-2.38
-1.80
-0.89
0.39
1.91
3.45
4.75
5.62
5.98
5.93
5.63
5.25
4.94
4.76
4.69
4.66
4.60
4.46
4.20
3.81
3.30
2.73
2.16
1.70
1.42
1.37
1.55
1.84
2.13
2.26
2.14
1.79
1.33
0.90
0.61
0.50
0.49
0.49
0.41
0.29
0.19
0.22
0.40
0.68
0.91
0.96
0.75
0.26
-0.40
-1.12
-1.80
-2.38
-2.84
-3.19
-3.44
-3.59
-3.66
-3.66
-3.58
-3.44
-3.25
-2.97
-2.60
-2.14
-1.66
-1.22
-0.89
-0.71
-0.68
-0.78
-1.00
-1.34
-1.77
-2.25
-2.68
-2.97
-3.08
-3.04
-2.97
-2.97
-3.10
-3.31
-3.50
-3.56
-3.47
-3.28
-3.14
-3.21
-3.61
-4.39
-5.45
-6.64
-7.77
-8.70
-9.45
-10.12
-10.92
-12.05
-13.61
-15.54
-17.70
-19.90
-22.01
-24.02
-26.08
-28.42
-31.32
-34.96
-39.33
-44.20
-49.14
-53.74
-57.86
-61.75
-65.98
-71.19
-77.70
-85.34
-93.47
-101.36
-108.52
-115.03
-121.46
-128.52
-136.70
-146.16
-156.83
-168.62
-181.30
-194.14
-205.36
-212.15
-211.20
-199.88
-177.33
-144.68
-104.47
-59.30
-10.95
39.52
90.83
140.38
184.05
217.27
236.85
242.49
236.98
224.93
210.88
197.72
186.31
176.01
165.95
155.83
146.10
137.51
130.46
124.79
119.80
114.71
109.02
102.70
96.21
90.19
85.27
81.80
79.74
78.78
78.44
78.28
78.08
77.86
77.85
78.37
79.74
82.14
85.59
89.95
94.99
100.41
106.03
111.71
117.40
123.13
128.94
134.86
140.98
147.59
155.17
164.18
174.51
184.93
192.97
195.32
188.88
171.87
144.36
108.03
65.17
17.87
-32.12
-82.80
-131.12
-172.84
-203.53
-220.22
-222.85
-214.51
-200.25
-185.06
-172.18
-162.45
-154.86
-147.84
-140.34
-132.26
-124.12
-116.44
-109.37
-102.58
-95.59
-88.09
-80.19
-72.38
-65.28
-59.38
-54.76
-51.15
-48.03
-44.86
-41.33
-37.47
-33.56
-30.02
-27.15
-25.01
-23.39
-21.90
-20.16
-17.96
-15.36
-12.64
-10.13
-8.09
-6.55
-5.37
-4.28
-3.07
-1.68
-0.20
1.14
2.12
2.58
2.50
1.97
1.15
0.23
-0.62
-1.26
-1.61
-1.59
-1.25
-0.66
-0.01
0.54
0.85
0.88
0.72
0.47
0.25
0.09
-0.05
-0.22
-0.42
-0.56
-0.50
-0.18
0.39
1.00
1.40
1.38
0.89
0.07
-0.80
-1.49
-1.84
-1.90
-1.80
-1.69
-1.66
-1.68
-1.67
-1.53
-1.19
-0.65
0.05
0.81
1.49
1.98
2.26
2.36
2.36
2.34
2.29
2.20
2.01
1.70
1.34
1.00
0.78
0.73
0.82
1.00
1.17
1.26
1.26
1.17
1.03
0.88
0.68
0.35
-0.21
-0.98
-1.85
-2.59
-2.95
-2.86
-2.43
-1.92
-1.64
-1.80
-2.43
-3.42
-4.58
-5.69
-6.62
-7.26
-7.60
-7.68
-7.60
-7.49
-7.47
-7.60
-7.91
-8.35
-8.85
-9.36
-9.82
-10.26
-10.75
-11.34
-12.01
-12.61
-12.87
-12.52
-11.47
-9.89
-8.23
-7.06
-6.85
-7.74
-9.50
-11.50
-12.98
-13.32
-12.32
-10.33
-8.20
-6.89
-7.10
-8.95
-11.93
-15.20
-18.08
-20.41
-22.71
-25.83
-30.51
-36.91
-44.41
-51.76
-57.63
-61.29
-62.97
-63.87
-65.64
-69.57
-76.01
-84.27
-93.07
-101.10
-107.23
-110.31
-109.05
-102.41
-90.33
-74.33
-57.00
-40.47
-24.53
-6.05
19.63
55.62
100.75
148.89
191.19
220.03
232.39
230.77
221.29
210.26
201.51
195.68
191.48
187.30
182.39
176.79
170.88
165.00
159.39
154.35
149.89
144.96
136.91
121.98
96.90
61.04
17.63
-26.80
-64.86
-91.23
-104.63
-107.61
-104.62
-99.55
-94.18
-88.37
-81.18
-72.31
-62.61
-53.62
-46.53
-41.31
-36.71
-30.97
-23.06
-13.53
-4.58
0.73
0.00
-7.31
-19.41
-32.84
-43.92
-50.26
-51.60
-49.51
-46.36
-44.05
-43.26
-43.51
-43.76
-43.18
-41.52
-39.09
-36.42
-33.95
-31.80
-29.94
-28.23
-26.67
-25.41
-24.63
-24.36
-24.38
-24.19
-23.25
-21.17
-18.01
-14.35
-11.13
-9.29
-9.41
-11.32
-14.24
-17.03
-18.73
-19.07
-18.60
-18.40
-19.55
-22.49
-26.83
-31.44
-35.10
-37.03
-37.23
-36.39
-35.51
-35.56
-37.21
-40.92
-46.78
-54.03
-60.50
-62.39
-55.14
-35.21
-2.04
40.91
86.95
128.30
158.79
175.48
178.80
171.29
156.01
135.64
112.47
88.89
67.70
51.71
42.73
40.74
43.58
47.71
49.45
46.41
38.23
26.62
14.53
4.84
-0.61
-1.57
1.11
6.31
13.27
21.47
29.89
36.25
37.28
29.94
13.26
-10.59
-36.73
-59.37
-74.22
-80.05
-78.70
-73.63
-67.98
-63.33
-59.61
-55.95
-51.83
-47.42
-43.45
-40.54
-38.73
-37.47
-36.03
-33.89
-31.05
-27.94
-25.03
-22.50
-20.13
-17.44
-13.99
-9.75
-5.11
-0.72
2.76
4.94
5.82
5.66
4.89
3.95
3.22
2.91
3.05
3.48
3.93
4.15
4.03
3.65
3.20
2.85
2.69
2.66
2.66
2.62
2.51
2.37
2.25
2.15
2.08
2.02
2.00
2.04
2.13
2.25
2.33
2.28
2.07
1.71
1.28
0.86
0.55
0.41
0.43
0.55
0.66
0.68
0.57
0.32
-0.00
-0.32
-0.57
-0.70
-0.70
-0.56
-0.31
0.00
0.32
0.55
0.65
0.57
0.37
0.14
0.01
0.06
0.25
0.49
0.61
0.51
0.18
-0.28
-0.69
-0.92
-0.93
-0.78
-0.58
-0.44
-0.39
-0.38
-0.35
-0.28
-0.18
-0.09
-0.02
0.04
0.11
0.22
0.33
0.39
0.36
0.24
0.06
-0.11
-0.19
-0.15
0.03
0.34
0.74
1.15
1.49
1.67
1.59
1.25
0.73
0.17
-0.27
-0.48
-0.39
-0.08
0.39
0.89
1.31
1.56
1.56
1.29
0.78
0.14
-0.49
-0.96
-1.16
-1.06
-0.69
-0.16
0.37
0.75
0.88
0.71
0.31
-0.20
-0.65
-0.90
-0.90
-0.70
-0.38
-0.06
0.18
0.31
0.31
0.19
-0.01
-0.25
-0.46
-0.54
-0.47
-0.23
0.09
0.37
0.50
0.43
0.19
-0.09
-0.31
-0.40
-0.33
-0.17
-0.03
0.05
0.06
0.03
0.03
0.07
0.15
0.22
0.25
0.22
0.17
0.10
0.01
-0.16
-0.47
-0.93
-1.49
-2.04
-2.48
-2.79
-3.00
-3.22
-3.47
-3.72
-3.85
-3.77
-3.53
-3.30
-3.33
-3.81
-4.75
-5.95
-7.12
-8.01
-8.54
-8.85
-9.21
-9.92
-11.17
-12.95
-15.07
-17.24
-19.18
-20.70
-21.85
-22.94
-24.38
-26.62
-29.85
-33.93
-38.39
-42.65
-46.26
-49.18
-51.78
-54.74
-58.70
-63.99
-70.49
-77.68
-84.85
-91.35
-96.83
-101.36
-105.50
-110.27
-116.97
-126.73
-139.69
-154.40
-167.52
-174.42
-170.36
-152.03
-118.81
-73.17
-20.11
34.06
83.31
123.07
150.95
166.85
172.47
170.56
164.24
156.29
148.89
143.52
140.90
140.99
143.06
145.74
147.47
147.16
144.73
141.10
137.50
134.59
131.70
127.06
118.64
105.37
87.81
67.96
48.33
30.97
16.88
6.09
-1.80
-7.24
-10.54
-12.09
-12.48
-12.51
-12.83
-13.67
-14.71
-15.34
-14.98
-13.40
-10.82
-7.94
-5.60
-4.51
-5.00
-6.80
-9.17
-11.21
-12.14
-11.71
-10.14
-7.99
-5.82
-3.91
-2.22
-0.53
1.45
3.89
6.79
10.00
13.20
15.91
17.54
17.56
15.69
12.08
7.38
2.50
-1.63
-4.43
-5.79
-6.03
-5.65
-5.14
-4.76
-4.59
-4.62
-4.84
-5.32
-6.19
-7.49
-9.15
-10.90
-12.33
-13.01
-12.65
-11.28
-9.32
-7.46
-6.47
-6.85
-8.65
-11.42
-14.38
-16.79
-18.17
-18.48
-18.00
-17.14
-16.19
-15.26
-14.31
-13.30
-12.23
-11.17
-10.22
-9.44
-8.87
-8.49
-8.26
-8.13
-8.02
-7.89
-7.73
-7.57
-7.50
-7.57
-7.75
-7.92
-7.89
-7.54
-6.84
-5.92
-4.98
-4.23
-3.78
-3.60
-3.58
-3.56
-3.41
-3.11
-2.72
-2.37
-2.15
-2.08
-2.09
-2.06
-1.90
-1.60
-1.24
-0.93
-0.78
-0.82
-0.98
-1.16
-1.27
-1.25
-1.13
-0.97
-0.86
-0.85
-0.92
-1.05
-1.14
-1.14
-1.04
-0.89
-0.73
-0.63
-0.59
-0.60
-0.63
-0.66
-0.71
-0.76
-0.78
-0.73
-0.57
-0.30
0.05
0.40
0.69
0.85
0.90
0.88
0.87
0.93
1.10
1.37
1.66
1.91
2.04
2.00
1.82
1.56
1.32
1.15
1.10
1.14
1.26
1.44
1.67
1.95
2.25
2.50
2.61
2.49
2.15
1.68
1.19
0.80
0.50
0.21
-0.17
-0.68
-1.22
-1.62
-1.77
-1.65
-1.39
-1.17
-1.12
-1.23
-1.39
-1.48
-1.44
-1.31
-1.17
-1.11
-1.12
-1.16
-1.14
-1.03
-0.84
-0.63
-0.45
-0.30
-0.18
-0.03
0.14
0.31
0.39
0.32
0.10
-0.16
-0.33
-0.28
-0.02
0.37
0.74
0.96
1.00
0.91
0.72
0.48
0.17
-0.17
-0.45
-0.62
-0.62
-0.49
-0.35
-0.30
-0.37
-0.51
-0.62
-0.62
-0.52
-0.39
-0.30
-0.26
-0.26
-0.26
-0.28
-0.34
-0.46
-0.60
-0.69
-0.67
-0.53
-0.32
-0.12
-0.01
-0.01
-0.10
-0.23
-0.33
-0.33
-0.19
0.10
0.47
0.82
1.04
1.04
0.82
0.45
0.06
-0.26
-0.45
-0.47
-0.35
-0.12
0.16
0.44
0.65
0.80
0.88
0.94
1.02
1.11
1.16
1.12
1.00
0.84
0.68
0.58
0.50
0.38
0.15
-0.18
-0.56
-0.85
-0.94
-0.81
-0.54
-0.26
-0.13
-0.22
-0.48
-0.78
-0.97
-0.95
-0.75
-0.44
-0.16
0.03
0.14
0.22
0.35
0.54
0.74
0.89
0.93
0.89
0.85
0.85
0.93
1.02
1.07
1.04
0.97
0.96
1.07
1.32
1.59
1.76
1.69
1.39
0.97
0.56
0.28
0.14
0.08
0.01
-0.17
-0.47
-0.88
-1.34
-1.76
-2.05
-2.16
-2.07
-1.81
-1.47
-1.14
-0.91
-0.80
-0.81
-0.87
-0.96
-1.04
-1.09
-1.11
-1.09
-1.05
-0.96
-0.83
-0.63
-0.33
0.09
0.59
1.07
1.39
1.43
1.13
0.54
-0.14
-0.68
-0.88
-0.70
-0.25
0.24
0.55
0.60
0.46
0.28
0.20
0.24
0.33
0.36
0.27
0.11
-0.00
0.04
0.23
0.48
0.60
0.46
0.07
-0.44
-0.90
-1.14
-1.10
-0.86
-0.53
-0.27
-0.13
-0.11
-0.19
-0.30
-0.43
-0.56
-0.68
-0.76
-0.76
-0.69
-0.56
-0.45
-0.43
-0.54
-0.72
-0.89
-0.92
-0.76
-0.43
-0.01
0.39
0.72
0.95
1.11
1.21
1.22
1.13
0.93
0.64
0.36
0.16
0.07
0.05
0.04
-0.05
-0.23
-0.46
-0.65
-0.72
-0.63
-0.40
-0.08
0.24
0.50
0.68
0.71
0.59
0.33
0.01
-0.26
-0.35
-0.19
0.17
0.63
1.04
1.30
1.37
1.30
1.15
1.01
0.94
0.96
1.03
1.11
1.10
0.94
0.64
0.26
-0.07
-0.24
-0.20
0.03
0.30
0.49
0.52
0.38
0.14
-0.11
-0.29
-0.39
-0.45
-0.52
-0.64
-0.80
-0.95
-1.04
-1.04
-0.97
-0.83
-0.67
-0.48
-0.31
-0.18
-0.13
-0.20
-0.33
-0.48
-0.54
-0.46
-0.23
0.11
0.45
0.71
0.85
0.86
0.75
0.55
0.29
0.02
-0.23
-0.39
-0.41
-0.29
-0.05
0.22
0.40
0.40
0.20
-0.09
-0.33
-0.38
-0.20
0.15
0.48
0.62
0.48
0.11
-0.33
-0.66
-0.77
-0.65
-0.42
-0.23
-0.20
-0.34
-0.57
-0.78
-0.88
-0.87
-0.79
-0.70
-0.65
-0.62
-0.57
-0.48
-0.35
-0.21
-0.12
-0.08
-0.07
-0.03
0.06
0.19
0.30
0.34
0.28
0.14
0.01
-0.04
0.04
0.19
0.33
0.36
0.25
0.09
-0.01
0.05
0.28
0.57
0.80
0.86
0.70
0.42
0.10
-0.15
-0.27
-0.28
-0.20
-0.06
0.10
0.22
0.25
0.17
-0.03
-0.27
-0.45
-0.48
-0.30
0.04
0.44
0.80
1.00
1.01
0.84
0.53
0.18
-0.14
-0.38
-0.51
-0.55
-0.52
-0.47
-0.40
-0.32
-0.21
-0.08
0.02
0.03
-0.06
-0.24
-0.43
-0.55
-0.52
-0.36
-0.17
-0.06
-0.14
-0.42
-0.79
-1.09
-1.18
-0.98
-0.56
-0.08
0.27
0.36
0.21
-0.04
-0.22
-0.19
0.03
0.32
0.50
0.47
0.26
-0.01
-0.19
-0.18
0.00
0.29
0.58
0.81
1.00
1.13
1.19
1.12
0.90
0.54
0.15
-0.15
-0.27
-0.21
-0.07
0.05
0.08
0.00
-0.14
-0.29
-0.39
-0.40
-0.32
-0.17
0.02
0.21
0.37
0.48
0.54
0.60
0.67
0.73
0.75
0.65
0.41
0.06
-0.31
-0.62
-0.83
-0.93
-0.97
-0.96
-0.89
-0.75
-0.53
-0.27
-0.04
0.11
0.17
0.16
0.11
0.07
0.03
0.02
0.06
0.19
0.41
0.66
0.82
0.79
0.54
0.17
-0.21
-0.45
-0.51
-0.43
-0.28
-0.15
-0.06
0.03
0.12
0.23
0.35
0.43
0.47
0.49
0.52
0.54
0.53
0.45
0.25
-0.04
-0.34
-0.55
-0.60
-0.47
-0.19
0.14
0.41
0.55
0.48
0.20
-0.23
-0.69
-1.03
-1.13
-0.92
-0.48
0.05
0.47
0.65
0.52
0.11
-0.47
-1.07
-1.53
-1.73
-1.59
-1.16
-0.52
0.16
0.72
1.07
1.19
1.14
1.01
0.86
0.72
0.57
0.40
0.21
0.05
-0.05
-0.07
-0.06
-0.06
-0.08
-0.11
-0.11
-0.04
0.10
0.26
0.37
0.37
0.25
0.03
-0.19
-0.36
-0.40
-0.32
-0.19
-0.09
-0.10
-0.26
-0.51
-0.75
-0.86
-0.83
-0.69
-0.55
-0.49
-0.55
-0.67
-0.78
-0.79
-0.66
-0.39
-0.01
0.42
0.82
1.13
1.25
1.15
0.89
0.57
0.32
0.22
0.24
0.29
0.25
0.06
-0.23
-0.50
-0.64
-0.58
-0.37
-0.11
0.10
0.22
0.26
0.28
0.32
0.37
0.43
0.42
0.32
0.10
-0.19
-0.49
-0.72
-0.79
-0.65
-0.29
0.22
0.77
1.20
1.42
1.38
1.17
0.91
0.70
0.56
0.46
0.31
0.07
-0.22
-0.49
-0.63
-0.61
-0.46
-0.24
-0.03
0.14
0.25
0.29
0.23
0.08
-0.12
-0.29
-0.34
-0.27
-0.11
0.01
0.01
-0.14
-0.38
-0.61
-0.75
-0.77
-0.69
-0.56
-0.40
-0.21
-0.01
0.19
0.39
0.55
0.62
0.60
0.52
0.41
0.32
0.27
0.25
0.21
0.11
-0.07
-0.26
-0.38
-0.37
-0.21
0.03
0.27
0.42
0.44
0.35
0.18
-0.01
-0.19
-0.35
-0.44
-0.45
-0.38
-0.27
-0.18
-0.17
-0.25
-0.39
-0.53
-0.61
-0.59
-0.47
-0.27
-0.02
0.23
0.41
0.47
0.36
0.13
-0.15
-0.34
-0.37
-0.22
0.02
0.22
0.31
0.29
0.21
0.17
0.20
0.25
0.27
0.22
0.14
0.10
0.14
0.26
0.38
0.41
0.30
0.09
-0.13
-0.28
-0.31
-0.22
-0.05
0.17
0.41
0.65
0.81
0.82
0.67
0.39
0.13
0.01
0.08
0.29
0.49
0.54
0.36
0.04
-0.33
-0.62
-0.82
-0.98
-1.18
-1.44
-1.72
-1.92
-1.94
-1.73
-1.33
-0.82
-0.32
0.07
0.31
0.37
0.28
0.12
-0.04
-0.13
-0.10
0.02
0.21
0.40
0.54
0.63
0.67
0.68
0.67
0.63
0.54
0.37
0.17
-0.04
-0.19
-0.21
-0.13
0.02
0.14
0.13
-0.04
-0.34
-0.67
-0.89
-0.95
-0.81
-0.52
-0.19
0.13
0.35
0.44
0.36
0.13
-0.21
-0.52
-0.67
-0.59
-0.28
0.12
0.46
0.63
0.63
0.55
0.52
0.58
0.69
0.74
0.68
0.53
0.38
0.34
0.45
0.63
0.73
0.64
0.36
-0.02
-0.33
-0.43
-0.29
0.06
0.48
0.86
1.09
1.18
1.13
0.99
0.78
0.50
0.18
-0.18
-0.50
-0.76
-0.90
-0.96
-0.95
-0.91
-0.84
-0.71
-0.50
-0.24
0.03
0.24
0.37
0.42
0.45
0.50
0.54
0.52
0.40
0.19
-0.05
-0.27
-0.41
-0.47
-0.46
-0.41
-0.30
-0.12
0.12
0.36
0.55
0.63
0.59
0.46
0.26
0.03
-0.20
-0.41
-0.56
-0.64
-0.66
-0.66
-0.69
-0.77
-0.87
-0.93
-0.86
-0.61
-0.21
0.25
0.66
0.95
1.13
1.24
1.34
1.46
1.52
1.43
1.11
0.55
-0.15
-0.80
-1.23
-1.35
-1.22
-0.98
-0.77
-0.67
-0.65
-0.61
-0.47
-0.20
0.14
0.46
0.67
0.74
0.66
0.46
0.18
-0.15
-0.45
-0.65
-0.69
-0.56
-0.31
-0.06
0.09
0.08
-0.09
-0.36
-0.62
-0.79
-0.82
-0.70
-0.49
-0.26
-0.12
-0.10
-0.22
-0.39
-0.54
-0.58
-0.45
-0.18
0.16
0.48
0.71
0.80
0.77
0.64
0.45
0.23
0.02
-0.15
-0.25
-0.28
-0.24
-0.15
-0.06
0.01
0.05
0.06
0.06
0.03
-0.04
-0.12
-0.19
-0.15
0.05
0.42
0.88
1.26
1.41
1.21
0.68
-0.05
-0.76
-1.23
-1.29
-0.97
-0.40
0.17
0.53
0.57
0.37
0.09
-0.11
-0.17
-0.14
-0.19
-0.40
-0.80
-1.25
-1.58
-1.64
-1.44
-1.07
-0.71
-0.46
-0.38
-0.42
-0.53
-0.67
-0.85
-1.05
-1.23
-1.35
-1.37
-1.31
-1.20
-1.13
-1.12
-1.13
-1.08
-0.90
-0.55
-0.09
0.41
0.86
1.20
1.44
1.61
1.75
1.90
2.04
2.15
2.17
2.06
1.81
1.47
1.14
0.92
0.84
0.86
0.86
0.78
0.58
0.33
0.13
0.05
0.08
0.16
0.20
0.14
0.00
-0.17
-0.31
-0.37
-0.33
-0.18
0.09
0.48
0.96
1.47
1.92
2.20
2.19
1.82
1.05
-0.04
-1.29
-2.47
-3.42
-4.05
-4.45
-4.85
-5.47
-6.47
-7.82
-9.35
-10.84
-12.11
-13.17
-14.18
-15.37
-16.98
-19.07
-21.56
-24.21
-26.71
-28.87
-30.67
-32.32
-34.23
-36.90
-40.74
-45.94
-52.37
-59.63
-67.11
-74.17
-80.35
-85.53
-89.98
-94.24
-98.68
-103.22
-107.08
-109.00
-107.61
-101.98
-91.99
-78.41
-62.72
-46.79
-32.30
-20.35
-11.06
-3.53
3.85
12.79
24.33
38.34
53.58
68.17
80.46
89.57
95.56
98.95
100.34
100.01
97.96
94.20
88.98
82.81
76.25
69.76
63.70
58.38
54.15
51.44
50.52
51.31
53.34
55.87
58.16
59.72
60.36
60.14
59.19
57.64
55.63
53.42
51.43
50.14
49.98
51.09
53.28
56.10
58.99
61.44
63.33
64.87
66.56
68.97
72.38
76.69
81.40
85.95
90.08
93.92
97.84
102.01
106.02
108.86
109.20
105.93
98.44
86.62
70.56
50.41
26.57
0.21
-26.48
-50.52
-69.09
-80.80
-86.31
-88.09
-89.17
-91.67
-95.93
-100.64
-103.85
-104.17
-101.44
-96.60
-90.97
-85.53
-80.53
-75.65
-70.51
-65.04
-59.59
-54.73
-50.83
-47.87
-45.41
-42.86
-39.74
-35.93
-31.71
-27.58
-24.02
-21.29
-19.36
-17.93
-16.65
-15.21
-13.50
-11.62
-9.77
-8.18
-6.97
-6.16
-5.59
-5.11
-4.54
-3.83
-3.00
-2.18
-1.51
-1.08
-0.92
-0.95
-1.03
-1.03
-0.88
-0.62
-0.33
-0.12
-0.05
-0.14
-0.32
-0.48
-0.54
-0.43
-0.18
0.16
0.48
0.67
0.68
0.51
0.25
0.00
-0.16
-0.22
-0.17
-0.04
0.14
0.37
0.58
0.72
0.70
0.52
0.23
-0.04
-0.19
-0.18
-0.07
0.04
0.07
-0.01
-0.13
-0.22
-0.24
-0.21
-0.18
-0.19
-0.24
-0.29
-0.30
-0.26
-0.18
-0.12
-0.12
-0.19
-0.31
-0.43
-0.54
-0.65
-0.77
-0.88
-0.91
-0.79
-0.50
-0.07
0.36
0.67
0.74
0.59
0.29
-0.06
-0.37
-0.64
-0.90
-1.17
-1.47
-1.78
-2.06
-2.33
-2.63
-3.00
-3.45
-3.95
-4.44
-4.89
-5.34
-5.86
-6.51
-7.27
-8.02
-8.63
-9.05
-9.34
-9.73
-10.46
-11.67
-13.28
-15.07
-16.72
-18.05
-19.10
-20.16
-21.65
-23.91
-27.02
-30.76
-34.62
-38.01
-40.55
-42.29
-43.73
-45.64
-48.76
-53.43
-59.40
-65.92
-72.09
-77.20
-81.06
-84.04
-86.96
-90.89
-96.89
-105.71
-117.19
-129.84
-140.64
-145.48
-140.33
-122.70
-92.67
-53.12
-8.85
34.86
73.57
104.50
126.57
139.89
145.32
144.22
138.30
129.57
120.07
111.38
104.39
99.12
95.08
91.58
88.09
84.42
80.64
77.02
73.88
71.49
70.09
69.76
70.39
71.68
73.17
74.45
75.30
75.84
76.39
77.35
78.91
81.06
83.58
86.25
88.98
91.84
95.01
98.68
103.03
108.16
114.05
120.58
127.51
134.63
141.99
149.98
159.14
169.50
179.96
188.02
190.16
182.98
164.43
134.46
94.81
48.21
-2.36
-53.90
-103.19
-146.57
-180.33
-201.71
-210.04
-207.17
-196.94
-183.68
-170.72
-159.62
-150.33
-141.99
-133.85
-125.63
-117.53
-109.81
-102.53
-95.57
-88.72
-81.87
-75.08
-68.60
-62.69
-57.50
-52.99
-48.93
-44.99
-40.90
-36.55
-32.05
-27.70
-23.79
-20.52
-17.90
-15.74
-13.79
-11.87
-9.95
-8.13
-6.56
-5.37
-4.55
-4.00
-3.57
-3.10
-2.53
-1.84
-1.12
-0.48
-0.02
0.18
0.17
0.02
-0.13
-0.20
-0.13
0.05
0.33
0.69
1.13
1.67
2.28
2.89
3.43
3.86
4.13
4.28
4.31
4.24
4.12
3.98
3.91
3.98
4.27
4.79
5.46
6.16
6.66
6.73
6.19
4.99
3.29
1.48
0.00
-0.80
-0.82
-0.18
0.82
1.90
2.91
3.84
4.73
5.57
6.24
6.52
6.19
5.10
3.19
0.50
-2.85
-6.64
-10.59
-14.34
-17.63
-20.31
-22.40
-24.01
-25.26
-26.19
-26.81
-27.17
-27.44
-28.00
-29.20
-31.21
-33.81
-36.41
-38.35
-39.26
-39.31
-39.25
-40.05
-42.32
-45.97
-50.10
-53.50
-55.19
-55.01
-53.66
-52.34
-52.24
-54.17
-58.46
-65.04
-73.30
-81.80
-87.91
-87.92
-77.93
-55.42
-20.69
22.57
68.00
108.61
138.91
156.47
162.11
158.89
150.59
140.54
131.11
123.84
119.96
120.41
125.30
133.09
140.09
141.13
131.42
108.86
75.43
36.97
1.05
-26.00
-41.36
-46.24
-44.68
-41.21
-39.06
-39.41
-41.87
-45.42
-49.24
-52.99
-56.69
-60.59
-64.98
-70.11
-76.01
-82.32
-88.41
-93.49
-97.00
-98.80
-99.24
-99.04
-98.94
-99.63
-101.62
-105.34
-110.99
-118.14
-125.10
-128.57
-124.10
-107.48
-76.80
-33.95
15.17
62.30
99.68
122.65
130.83
127.47
117.42
104.97
92.70
81.56
71.72
63.42
57.09
53.06
51.12
50.44
49.85
48.41
45.74
42.12
38.26
34.96
32.75
31.63
31.14
30.51
28.97
26.17
22.33
18.15
14.53
12.08
10.92
10.57
10.28
9.38
7.60
5.17
2.61
0.49
-0.83
-1.28
-1.01
-0.30
0.61
1.52
2.26
2.66
2.56
1.92
0.81
-0.50
-1.66
-2.37
-2.51
-2.21
-1.78
-1.54
-1.65
-2.03
-2.45
-2.58
-2.30
-1.64
-0.79
0.01
0.62
1.01
1.28
1.48
1.62
1.65
1.47
1.08
0.55
0.01
-0.43
-0.69
-0.80
-0.82
-0.83
-0.93
-1.17
-1.55
-2.00
-2.41
-2.66
-2.70
-2.56
-2.38
-2.31
-2.49
-2.92
-3.50
-4.05
-4.42
-4.55
-4.52
-4.54
-4.85
-5.64
-6.93
-8.57
-10.23
-11.57
-12.39
-12.76
-13.06
-13.79
-15.38
-17.94
-21.13
-24.31
-26.76
-28.10
-28.50
-28.68
-29.56
-31.86
-35.70
-40.53
-45.35
-49.24
-51.75
-53.12
-54.18
-55.89
-59.12
-64.46
-72.15
-81.91
-92.45
-101.19
-104.50
-98.84
-82.30
-55.89
-23.57
9.10
37.03
57.34
69.97
76.75
79.90
80.76
79.57
76.08
70.43
63.51
56.70
51.15
47.25
44.62
42.52
40.37
38.12
36.23
35.36
35.92
37.83
40.46
42.87
44.14
43.70
41.54
38.11
34.14
30.35
27.20
24.77
22.80
20.88
18.65
15.96
12.94
9.88
7.12
4.89
3.26
2.11
1.22
0.36
-0.63
-1.80
-3.09
-4.30
-5.19
-5.56
-5.30
-4.43
-3.10
-1.55
0.02
1.49
2.86
4.23
5.75
7.54
9.56
11.64
13.54
15.03
16.04
16.69
17.26
17.99
19.00
20.22
21.40
22.31
22.86
23.19
23.64
24.65
26.51
29.26
32.61
35.96
38.59
39.99
40.06
39.28
38.54
38.81
40.62
43.87
47.78
51.26
53.49
54.25
54.13
54.22
55.68
59.28
65.10
72.48
80.13
86.44
89.86
89.46
85.32
78.68
71.78
67.09
66.28
69.22
73.58
75.39
70.53
56.51
33.70
5.33
-23.75
-49.07
-68.13
-80.90
-89.13
-94.94
-99.66
-103.35
-105.39
-105.29
-103.29
-100.30
-97.36
-94.97
-92.93
-90.49
-86.91
-81.93
-76.01
-70.03
-64.90
-61.19
-58.78
-57.06
-55.13
-52.26
-48.19
-43.20
-37.96
-33.24
-29.59
-27.12
-25.53
-24.25
-22.72
-20.64
-18.05
-15.26
-12.72
-10.73
-9.36
-8.48
-7.78
-7.01
-6.06
-5.00
-3.99
-3.18
-2.59
-2.10
-1.57
-0.91
-0.15
0.55
1.02
1.16
1.03
0.77
0.58
0.55
0.67
0.83
0.93
0.93
0.87
0.83
0.85
0.92
0.96
0.90
0.70
0.38
0.05
-0.20
-0.34
-0.35
-0.30
-0.23
-0.19
-0.19
-0.22
-0.26
-0.31
-0.36
-0.42
-0.48
-0.53
-0.54
-0.47
-0.30
-0.04
0.25
0.50
0.62
0.58
0.43
0.23
0.08
0.03
0.11
0.27
0.47
0.64
0.72
0.63
0.35
-0.08
-0.56
-0.93
-1.05
-0.85
-0.40
0.16
0.63
0.85
0.75
0.38
-0.14
-0.66
-1.05
-1.22
-1.18
-0.96
-0.67
-0.39
-0.22
-0.19
-0.32
-0.56
-0.83
-1.05
-1.16
-1.10
-0.90
-0.60
-0.26
0.03
0.21
0.25
0.16
0.05
0.01
0.13
0.40
0.73
0.99
1.03
0.82
0.42
-0.01
-0.31
-0.39
-0.24
0.06
0.38
0.59
0.62
0.44
0.08
-0.37
-0.76
-0.98
-0.96
-0.73
-0.43
-0.21
-0.19
-0.36
-0.64
-0.86
-0.90
-0.76
-0.49
-0.20
0.02
0.14
0.15
0.06
-0.13
-0.37
-0.60
-0.72
-0.65
-0.37
0.07
0.56
0.99
1.23
1.24
0.99
0.52
-0.07
-0.67
-1.14
-1.40
-1.44
-1.33
-1.15
-1.00
-0.89
-0.82
-0.74
-0.63
-0.48
-0.34
-0.25
-0.23
-0.25
-0.27
-0.23
-0.09
0.16
0.48
0.78
0.97
0.99
0.84
0.57
0.30
0.15
0.19
0.46
0.92
1.44
1.88
2.10
2.01
1.67
1.19
0.76
0.53
0.56
0.81
1.16
1.48
1.67
1.70
1.60
1.39
1.09
0.73
0.33
-0.07
-0.39
-0.57
-0.57
-0.41
-0.15
0.13
0.32
0.39
0.34
0.21
0.08
-0.03
-0.08
-0.10
-0.09
-0.08
-0.07
-0.05
-0.02
0.03
0.07
0.13
0.23
0.36
0.53
0.68
0.76
0.70
0.49
0.18
-0.15
-0.40
-0.52
-0.49
-0.39
-0.26
-0.16
-0.07
0.04
0.16
0.25
0.24
0.10
-0.13
-0.32
-0.36
-0.19
0.10
0.34
0.39
0.21
-0.10
-0.38
-0.52
-0.52
-0.52
-0.63
-0.90
-1.23
-1.46
-1.48
-1.29
-1.00
-0.79
-0.75
-0.89
-1.11
-1.27
-1.33
-1.29
-1.21
-1.13
-1.01
-0.79
-0.44
0.01
0.42
0.63
0.53
0.15
-0.35
-0.76
-0.90
-0.72
-0.32
0.14
0.55
0.84
1.05
1.22
1.36
1.38
1.22
0.86
0.39
0.00
-0.13
0.05
0.43
0.80
0.96
0.82
0.44
0.01
-0.31
-0.40
-0.29
-0.04
0.24
0.46
0.59
0.62
0.56
0.41
0.19
-0.04
-0.23
-0.31
-0.27
-0.15
-0.02
0.05
0.05
-0.03
-0.13
-0.20
-0.17
0.01
0.31
0.68
1.00
1.17
1.13
0.93
0.66
0.41
0.19
-0.04
-0.32
-0.63
-0.84
-0.83
-0.53
-0.03
0.44
0.68
0.59
0.23
-0.19
-0.48
-0.56
-0.48
-0.36
-0.27
-0.22
-0.13
0.02
0.23
0.41
0.45
0.32
0.07
-0.18
-0.31
-0.29
-0.17
-0.06
-0.06
-0.17
-0.33
-0.42
-0.34
-0.11
0.21
0.49
0.65
0.62
0.42
0.11
-0.25
-0.56
-0.78
-0.86
-0.80
-0.60
-0.29
0.11
0.51
0.85
1.06
1.08
0.91
0.56
0.15
-0.21
-0.42
-0.45
-0.34
-0.16
0.00
0.12
0.19
0.24
0.25
0.20
0.05
-0.23
-0.58
-0.90
-1.06
-0.94
-0.54
0.06
0.66
1.05
1.08
0.73
0.13
-0.52
-1.01
-1.27
-1.29
-1.17
-0.98
-0.76
-0.54
-0.33
-0.16
-0.10
-0.13
-0.21
-0.25
-0.17
0.00
0.18
0.22
0.04
-0.36
-0.88
-1.37
-1.69
-1.80
-1.75
-1.61
-1.49
-1.42
-1.44
-1.53
-1.66
-1.81
-2.00
-2.27
-2.70
-3.31
-4.05
-4.79
-5.34
-5.55
-5.37
-4.93
-4.50
-4.36
-4.73
-5.58
-6.71
-7.76
-8.45
-8.65
-8.56
-8.61
-9.32
-11.03
-13.75
-17.08
-20.28
-22.61
-23.64
-23.49
-22.85
-22.71
-23.88
-26.55
-30.13
-33.42
-35.28
-35.13
-33.37
-31.13
-29.73
-30.03
-32.13
-35.57
-39.69
-43.66
-46.03
-44.41
-35.65
-17.08
11.83
48.46
87.41
122.52
149.27
166.32
174.90
176.87
172.72
160.97
139.66
108.69
71.30
33.59
2.10
-19.01
-29.45
-32.31
-31.97
-31.77
-32.82
-34.22
-34.46
-32.70
-29.44
-26.06
-23.95
-23.71
-24.84
-26.10
-26.28
-24.74
-21.74
-18.18
-15.13
-13.27
-12.68
-12.80
-12.84
-12.14
-10.49
-8.23
-6.01
-4.44
-3.86
-4.18
-4.95
-5.63
-5.80
-5.32
-4.38
-3.31
-2.47
-2.03
-1.99
-2.17
-2.33
-2.28
-1.98
-1.51
-1.05
-0.74
-0.62
-0.63
-0.64
-0.56
-0.42
-0.29
-0.27
-0.40
-0.60
-0.75
-0.71
-0.47
-0.06
0.43
0.89
1.25
1.48
1.55
1.48
1.29
1.06
0.86
0.73
0.71
0.72
0.70
0.57
0.34
0.06
-0.17
-0.27
-0.23
-0.13
-0.05
-0.08
-0.24
-0.47
-0.65
-0.70
-0.55
-0.22
0.18
0.57
0.86
1.05
1.21
1.40
1.64
1.88
2.03
2.03
1.91
1.74
1.63
1.62
1.67
1.67
1.53
1.22
0.82
0.42
0.10
-0.12
-0.31
-0.53
-0.82
-1.12
-1.36
-1.47
-1.39
-1.15
-0.77
-0.32
0.16
0.61
1.00
1.32
1.55
1.67
1.69
1.68
1.71
1.87
2.19
2.64
3.07
3.32
3.29
2.98
2.53
2.12
1.89
1.88
2.02
2.19
2.29
2.28
2.17
1.93
1.55
0.99
0.24
-0.63
-1.48
-2.17
-2.60
-2.77
-2.71
-2.53
-2.29
-2.05
-1.84
-1.66
-1.54
-1.50
-1.58
-1.78
-2.13
-2.61
-3.17
-3.69
-4.04
-4.10
-3.83
-3.29
-2.63
-2.05
-1.66
-1.48
-1.41
-1.35
-1.20
-0.98
-0.75
-0.59
-0.51
-0.46
-0.38
-0.26
-0.17
-0.19
-0.34
-0.55
-0.70
-0.65
-0.40
-0.05
0.23
0.29
0.13
-0.17
-0.46
-0.64
-0.69
-0.67
-0.62
-0.59
-0.60
-0.65
-0.76
-0.93
-1.14
-1.33
-1.44
-1.46
-1.44
-1.46
-1.60
-1.91
-2.32
-2.72
-3.01
-3.15
-3.19
-3.24
-3.43
-3.85
-4.50
-5.29
-6.07
-6.62
-6.85
-6.77
-6.58
-6.60
-7.11
-8.21
-9.79
-11.49
-12.94
-13.89
-14.38
-14.71
-15.37
-16.76
-19.07
-22.13
-25.50
-28.61
-31.05
-32.75
-34.06
-35.60
-37.99
-41.53
-46.02
-50.83
-55.22
-58.65
-61.07
-62.85
-64.64
-67.07
-70.69
-75.91
-82.88
-90.95
-98.18
-101.22
-95.96
-79.21
-50.21
-11.63
30.96
70.86
102.36
122.40
130.80
129.75
122.68
113.32
105.14
100.85
102.04
108.77
119.59
131.73
141.81
146.62
143.85
132.80
114.77
93.08
72.12
55.84
46.06
41.59
38.77
33.36
22.77
7.37
-9.83
-24.94
-35.18
-39.96
-40.62
-39.22
-37.24
-35.09
-32.43
-28.97
-24.96
-21.27
-18.83
-18.11
-18.76
-19.86
-20.26
-19.15
-16.35
-12.32
-8.04
-4.66
-3.19
-4.12
-7.22
-11.55
-15.79
-18.68
-19.58
-18.67
-16.72
-14.72
-13.37
-12.81
-12.70
-12.54
-12.01
-11.06
-9.90
-8.76
-7.74
-6.81
-5.90
-4.95
-4.03
-3.28
-2.84
-2.76
-2.98
-3.32
-3.51
-3.34
-2.72
-1.72
-0.60
0.32
0.74
0.55
-0.14
-1.00
-1.65
-1.79
-1.29
-0.29
0.92
1.99
2.62
2.66
2.14
1.19
0.06
-0.98
-1.71
-1.97
-1.70
-1.00
-0.06
0.82
1.36
1.37
0.87
0.04
-0.81
-1.39
-1.48
-1.06
-0.26
0.66
1.47
1.98
2.09
1.82
1.26
0.59
-0.00
-0.34
-0.30
0.14
0.88
1.72
2.45
2.85
2.79
2.27
1.41
0.40
-0.50
-1.10
-1.26
-0.99
-0.41
0.28
0.87
1.17
1.08
0.61
-0.15
-1.00
-1.72
-2.10
-2.03
-1.53
-0.79
-0.08
0.37
0.42
0.09
-0.46
-1.04
-1.45
-1.61
-1.53
-1.25
-0.86
-0.39
0.08
0.48
0.72
0.71
0.44
-0.03
-0.55
-0.98
-1.24
-1.33
-1.34
-1.35
-1.38
-1.38
-1.28
-1.03
-0.66
-0.25
0.08
0.25
0.27
0.22
0.17
0.19
0.26
0.33
0.37
0.32
0.23
0.13
0.08
0.10
0.16
0.20
0.17
0.07
-0.04
-0.04
0.16
0.53
0.96
1.25
1.23
0.84
0.20
-0.47
-0.97
-1.18
-1.11
-0.86
-0.54
-0.22
0.05
0.26
0.36
0.30
0.05
-0.33
-0.73
-1.00
-1.03
-0.81
-0.44
-0.09
0.08
-0.01
-0.33
-0.72
-1.00
-1.01
-0.71
-0.19
0.37
0.75
0.82
0.55
0.05
-0.55
-1.07
-1.40
-1.45
-1.23
-0.79
-0.28
0.11
0.22
0.01
-0.42
-0.85
-1.04
-0.84
-0.29
0.42
1.03
1.33
1.26
0.91
0.45
0.07
-0.10
-0.02
0.28
0.69
1.08
1.33
1.36
1.16
0.78
0.35
-0.03
-0.25
-0.26
-0.10
0.17
0.47
0.74
0.92
1.00
0.96
0.81
0.62
0.44
0.35
0.39
0.52
0.66
0.71
0.61
0.39
0.12
-0.13
-0.32
-0.47
-0.59
-0.70
-0.75
-0.72
-0.59
-0.41
-0.25
-0.18
-0.21
-0.31
-0.40
-0.41
-0.33
-0.16
0.03
0.21
0.33
0.34
0.22
-0.05
-0.41
-0.78
-1.05
-1.12
-0.96
-0.61
-0.20
0.17
0.41
0.51
0.54
0.56
0.62
0.72
0.81
0.83
0.77
0.64
0.50
0.36
0.23
0.07
-0.14
-0.37
-0.56
-0.62
-0.51
-0.25
0.08
0.33
0.40
0.24
-0.09
-0.47
-0.74
-0.82
-0.70
-0.46
-0.24
-0.10
-0.07
-0.13
-0.21
-0.31
-0.42
-0.56
-0.75
-0.94
-1.07
-1.07
-0.95
-0.75
-0.55
-0.44
-0.43
-0.50
-0.54
-0.48
-0.30
-0.07
0.12
0.16
0.02
-0.28
-0.63
-0.94
-1.12
-1.11
-0.90
-0.53
-0.12
0.19
0.29
0.18
-0.04
-0.22
-0.25
-0.11
0.09
0.20
0.14
-0.07
-0.31
-0.47
-0.47
-0.32
-0.08
0.20
0.45
0.64
0.73
0.72
0.60
0.41
0.22
0.12
0.13
0.25
0.42
0.58
0.71
0.81
0.93
1.09
1.29
1.49
1.63
1.65
1.50
1.20
0.79
0.40
0.13
0.08
0.26
0.59
0.92
1.08
0.98
0.67
0.29
-0.01
-0.13
-0.11
-0.08
-0.13
-0.26
-0.41
-0.45
-0.34
-0.14
0.06
0.15
0.13
0.07
0.06
0.12
0.21
0.25
0.17
-0.03
-0.33
-0.64
-0.93
-1.15
-1.29
-1.33
-1.26
-1.08
-0.80
-0.47
-0.17
0.07
0.17
0.13
-0.02
-0.22
-0.37
-0.41
-0.29
-0.06
0.21
0.44
0.59
0.65
0.68
0.71
0.75
0.81
0.88
0.94
0.97
0.96
0.87
0.68
0.39
0.02
-0.35
-0.67
-0.87
-0.96
-0.95
-0.91
-0.87
-0.81
-0.70
-0.54
-0.32
-0.07
0.13
0.24
0.21
0.06
-0.19
-0.48
-0.73
-0.88
-0.89
-0.75
-0.51
-0.25
-0.05
0.03
-0.02
-0.15
-0.30
-0.39
-0.38
-0.27
-0.08
0.12
0.26
0.29
0.21
0.04
-0.11
-0.18
-0.14
-0.02
0.13
0.23
0.26
0.21
0.10
-0.09
-0.33
-0.61
-0.88
-1.06
-1.09
-0.96
-0.72
-0.45
-0.23
-0.10
-0.04
-0.00
0.04
0.12
0.24
0.37
0.49
0.55
0.53
0.42
0.23
0.04
-0.09
-0.11
-0.00
0.19
0.40
0.58
0.69
0.72
0.67
0.56
0.42
0.24
0.07
-0.07
-0.17
-0.21
-0.20
-0.12
0.03
0.22
0.43
0.58
0.65
0.64
0.59
0.57
0.62
0.72
0.80
0.77
0.63
0.39
0.12
-0.07
-0.16
-0.12
0.05
0.33
0.70
1.08
1.39
1.55
1.48
1.20
0.76
0.27
-0.18
-0.52
-0.74
-0.85
-0.88
-0.85
-0.78
-0.66
-0.48
-0.24
0.06
0.37
0.61
0.73
0.68
0.49
0.24
0.01
-0.12
-0.15
-0.13
-0.13
-0.19
-0.32
-0.45
-0.51
-0.44
-0.24
0.02
0.23
0.31
0.20
-0.07
-0.41
-0.69
-0.84
-0.80
-0.64
-0.47
-0.40
-0.48
-0.69
-0.94
-1.11
-1.11
-0.92
-0.57
-0.16
0.28
0.71
1.10
1.41
1.53
1.40
1.01
0.44
-0.12
-0.49
-0.58
-0.39
-0.06
0.22
0.33
0.20
-0.09
-0.43
-0.68
-0.77
-0.67
-0.42
-0.09
0.23
0.46
0.51
0.37
0.05
-0.35
-0.70
-0.90
-0.87
-0.68
-0.44
-0.31
-0.38
-0.63
-0.92
-1.11
-1.11
-0.98
-0.86
-0.92
-1.20
-1.61
-1.99
-2.16
-2.09
-1.90
-1.79
-1.93
-2.40
-3.10
-3.84
-4.42
-4.75
-4.85
-4.82
-4.85
-5.07
-5.62
-6.53
-7.77
-9.19
-10.57
-11.68
-12.42
-12.88
-13.39
-14.33
-15.98
-18.27
-20.83
-23.14
-24.82
-25.86
-26.72
-28.12
-30.71
-34.74
-39.91
-45.47
-50.54
-54.46
-56.99
-58.45
-59.56
-61.29
-64.71
-70.68
-79.43
-89.99
-99.86
-105.42
-103.01
-90.59
-68.87
-41.48
-13.74
9.42
25.16
33.44
36.32
36.68
36.98
38.73
42.54
48.49
56.18
64.66
72.47
77.95
79.95
78.37
74.23
69.21
64.95
62.40
61.65
62.21
63.35
64.42
64.98
64.76
63.65
61.70
59.10
56.19
53.47
51.47
50.66
51.33
53.49
56.76
60.51
64.00
66.66
68.46
69.90
71.93
75.49
81.09
88.48
96.74
104.61
111.04
115.64
118.87
121.88
126.17
133.14
143.71
157.94
174.56
190.96
203.43
207.93
201.27
181.96
150.71
110.17
64.29
17.22
-27.63
-68.23
-103.99
-135.25
-162.42
-185.36
-203.19
-214.71
-219.29
-217.46
-210.94
-202.03
-192.61
-183.43
-174.32
-164.82
-155.00
-145.63
-137.72
-131.74
-127.13
-122.45
-116.17
-107.52
-96.90
-85.87
-76.30
-69.61
-66.15
-65.13
-65.05
-64.49
-62.59
-59.31
-55.39
-51.85
-49.72
-49.97
-53.46
-60.72
-71.16
-82.47
-90.63
-91.09
-80.87
-60.42
-34.15
-8.92
8.65
14.99
10.68
-0.39
-13.41
-24.82
-33.52
-40.34
-46.85
-54.33
-63.49
-74.68
-87.95
-102.68
-116.87
-126.95
-128.33
-116.71
-89.78
-48.58
2.34
55.97
104.70
142.49
166.27
176.36
175.69
168.36
158.16
147.69
138.22
130.22
123.93
119.75
118.07
118.92
121.63
125.06
128.04
130.01
131.24
132.64
135.24
139.60
145.44
151.84
157.56
161.60
163.57
163.76
162.99
162.39
163.22
166.47
172.48
180.35
187.69
190.93
186.19
170.47
142.59
103.50
55.99
4.04
-47.94
-95.59
-135.14
-163.83
-180.43
-185.54
-181.42
-171.35
-158.58
-145.56
-133.52
-122.72
-112.92
-103.81
-95.18
-86.98
-79.16
-71.63
-64.30
-57.07
-49.88
-42.76
-35.70
-28.61
-21.38
-14.09
-7.26
-2.03
0.11
-2.10
-9.00
-19.59
-31.72
-42.81
-50.79
-54.73
-54.87
-52.28
-48.20
-43.68
-39.37
-35.67
-32.74
-30.53
-28.80
-27.19
-25.36
-23.29
-21.31
-20.00
-20.04
-21.78
-25.01
-28.65
-30.77
-29.02
-21.52
-7.88
10.15
28.87
43.77
51.20
49.75
40.66
27.12
12.82
0.61
-8.22
-13.78
-16.81
-18.08
-17.96
-16.62
-14.28
-11.48
-8.95
-7.35
-7.01
-7.71
-8.83
-9.66
-9.70
-8.94
-7.74
-6.73
-6.43
-7.11
-8.64
-10.62
-12.50
-13.82
-14.33
-14.10
-13.43
-12.80
-12.62
-13.13
-14.27
-15.74
-17.14
-18.08
-18.41
-18.17
-17.67
-17.29
-17.42
-18.28
-19.96
-22.24
-24.68
-26.53
-26.84
-24.60
-19.00
-9.78
2.53
16.52
30.26
41.77
49.62
53.29
53.16
50.17
45.28
39.23
32.41
25.10
17.69
10.77
4.98
0.72
-2.02
-3.65
-4.74
-5.73
-6.74
-7.62
-8.10
-8.09
-7.68
-7.19
-6.90
-6.98
-7.35
-7.70
-7.56
-6.45
-4.07
-0.46
3.99
8.56
12.48
15.20
16.58
16.88
16.59
16.16
15.82
15.54
15.21
14.73
14.16
13.66
13.38
13.41
13.75
14.35
15.16
16.16
17.34
18.61
19.78
20.62
20.90
20.53
19.61
18.37
17.11
16.05
15.16
14.17
12.57
9.84
5.63
0.02
-6.47
-12.96
-18.53
-22.51
-24.68
-25.26
-24.73
-23.60
-22.22
-20.79
-19.38
-18.08
-17.00
-16.26
-15.88
-15.78
-15.76
-15.57
-15.06
-14.19
-13.10
-12.02
-11.23
-10.90
-11.01
-11.35
-11.56
-11.36
-10.62
-9.45
-8.22
-7.33
-7.05
-7.40
-8.11
-8.80
-9.14
-9.02
-8.58
-8.07
-7.80
-7.95
-8.62
-9.83
-11.58
-13.91
-16.82
-20.29
-24.16
-28.19
-32.12
-35.72
-38.87
-41.64
-44.26
-47.03
-50.31
-54.30
-59.07
-64.50
-70.30
-76.14
-81.66
-86.51
-90.51
-93.76
-96.84
-100.78
-106.73
-115.29
-125.72
-135.52
-140.76
-137.21
-121.77
-93.45
-53.45
-4.40
50.59
108.42
165.82
219.08
264.15
297.61
318.09
327.03
328.13
325.36
320.95
314.45
303.59
286.35
262.63
234.34
203.85
172.22
138.54
101.07
59.45
16.16
-23.79
-54.94
-74.10
-81.83
-81.93
-79.33
-77.74
-78.46
-80.62
-82.56
-83.10
-82.21
-80.73
-79.67
-79.53
-80.08
-80.54
-80.06
-78.09
-74.77
-70.71
-66.76
-63.56
-61.22
-59.31
-57.14
-54.16
-50.25
-45.78
-41.42
-37.75
-35.03
-33.05
-31.29
-29.27
-26.78
-23.97
-21.30
-19.23
-18.06
