1660930325.00
64.000000
-0.00
-0.00
-0.00
-0.00
-0.00
-0.00
-0.00
-0.00
-0.00
-0.00
0.00
0.01
0.01
-0.00
-0.03
-0.05
-0.05
0.00
0.13
0.36
0.66
1.01
1.37
1.72
2.06
2.40
2.79
3.25
3.81
4.44
5.09
5.73
6.32
6.91
7.54
8.27
9.15
10.23
11.41
12.59
13.66
14.59
15.48
16.50
17.86
19.69
22.16
25.06
28.12
31.06
33.78
36.39
39.25
42.76
47.21
52.88
59.38
66.19
72.81
79.01
84.99
91.32
98.65
107.36
117.80
129.30
141.07
152.38
162.97
173.17
183.78
196.05
208.37
222.58
238.95
257.52
277.37
296.11
309.97
314.59
306.49
284.26
249.58
205.74
156.94
106.77
57.47
10.02
-35.31
-78.34
-118.86
-156.62
-192.34
-227.36
-263.21
-300.57
-338.36
-373.41
-401.14
-417.18
-418.90
-406.72
-383.93
-355.41
-325.78
-297.95
-272.75
-249.61
-227.63
-206.42
-186.33
-167.99
-151.67
-137.02
-123.20
-109.41
-95.26
-81.00
-67.34
-55.10
-44.78
-36.35
-29.26
-22.78
-16.30
-9.60
-2.93
3.17
8.20
11.88
14.30
15.83
16.97
18.11
19.44
20.87
22.16
23.03
23.37
23.20
22.70
22.10
21.54
21.10
20.72
20.32
19.84
19.28
18.65
18.02
17.46
17.07
16.87
16.84
16.89
16.93
16.89
16.82
16.82
16.99
17.38
17.94
18.53
19.01
19.29
19.41
19.44
19.48
19.56
19.67
19.72
19.63
19.32
18.75
17.95
16.99
15.98
15.03
14.20
13.49
12.88
12.29
11.67
10.97
10.14
9.19
8.08
6.85
5.54
4.25
3.08
2.13
1.44
1.00
0.78
0.78
1.03
1.59
2.46
3.56
4.70
5.66
6.28
6.57
6.61
6.58
6.58
6.61
6.57
6.31
5.71
4.72
3.37
1.72
-0.13
-2.04
-3.87
-5.51
-6.90
-8.05
-9.02
-9.87
-10.63
-11.33
-11.97
-12.52
-12.95
-13.21
-13.26
-13.07
-12.70
-12.21
-11.67
-11.13
-10.54
-9.86
-9.06
-8.18
-7.30
-6.51
-5.84
-5.27
-4.75
-4.24
-3.74
-3.29
-2.93
-2.67
-2.49
-2.39
-2.35
-2.42
-2.60
-2.90
-3.25
-3.52
-3.60
-3.40
-2.88
-2.06
-0.99
0.31
1.83
3.56
5.45
7.41
9.33
11.07
12.47
13.43
13.85
13.77
13.25
12.49
11.66
10.91
10.31
9.84
9.40
8.93
8.38
7.75
7.06
6.34
5.62
4.94
4.34
3.84
3.42
3.04
2.62
2.14
1.60
1.07
0.64
0.36
0.28
0.37
0.57
0.81
1.01
1.13
1.15
1.07
0.95
0.84
0.78
0.80
0.90
1.08
1.29
1.50
1.66
1.74
1.71
1.57
1.36
1.12
0.90
0.74
0.67
0.67
0.73
0.80
0.85
0.84
0.76
0.65
0.53
0.44
0.41
0.44
0.50
0.56
0.59
0.54
0.39
0.17
-0.07
-0.22
-0.19
0.03
0.40
0.80
1.14
1.36
1.48
1.55
1.58
1.57
1.52
1.42
1.30
1.21
1.15
1.11
1.09
1.11
1.23
1.53
1.99
2.52
2.95
3.11
2.98
2.64
2.27
2.00
1.89
1.88
1.86
1.76
1.59
1.41
1.30
1.29
1.32
1.30
1.16
0.89
0.56
0.26
0.08
0.03
0.03
-0.02
-0.19
-0.47
-0.78
-1.01
-1.12
-1.08
-0.96
-0.84
-0.75
-0.71
-0.73
-0.80
-0.94
-1.14
-1.37
-1.55
-1.65
-1.65
-1.60
-1.58
-1.63
-1.72
-1.77
-1.74
-1.61
-1.46
-1.40
-1.51
-1.76
-2.06
-2.26
-2.26
-2.03
-1.63
-1.14
-0.59
0.05
0.85
1.93
3.30
4.95
6.77
8.61
10.31
11.72
12.67
13.03
12.68
11.58
9.84
7.66
5.35
3.18
1.37
-0.00
-0.95
-1.54
-1.87
-1.99
-1.94
-1.76
-1.47
-1.11
-0.75
-0.46
-0.27
-0.18
-0.17
-0.19
-0.25
-0.36
-0.56
-0.86
-1.23
-1.59
-1.86
-1.98
-1.97
-1.84
-1.66
-1.47
-1.30
-1.21
-1.20
-1.28
-1.39
-1.45
-1.41
-1.26
-1.03
-0.78
-0.56
-0.40
-0.32
-0.32
-0.42
-0.58
-0.79
-0.99
-1.15
-1.29
-1.45
-1.68
-1.97
-2.28
-2.54
-2.68
-2.68
-2.58
-2.47
-2.40
-2.45
-2.62
-2.89
-3.23
-3.60
-3.93
-4.15
-4.21
-4.18
-4.14
-4.24
-4.57
-5.08
-5.60
-5.89
-5.79
-5.28
-4.53
-3.81
-3.32
-3.12
-3.08
-3.02
-2.76
-2.28
-1.64
-0.92
-0.21
0.54
1.36
2.31
3.39
4.52
5.66
6.81
8.08
9.63
11.65
14.21
17.23
20.42
23.37
25.63
26.83
26.75
25.37
22.86
19.48
15.59
11.54
7.64
4.13
1.18
-1.15
-2.90
-4.16
-5.06
-5.72
-6.20
-6.54
-6.73
-6.76
-6.64
-6.40
-6.09
-5.79
-5.52
-5.28
-5.04
-4.72
-4.32
-3.89
-3.51
-3.27
-3.18
-3.22
-3.28
-3.30
-3.24
-3.11
-2.94
-2.76
-2.58
-2.39
-2.22
-2.11
-2.11
-2.19
-2.31
-2.41
-2.45
-2.45
-2.45
-2.49
-2.58
-2.67
-2.73
-2.76
-2.77
-2.78
-2.78
-2.73
-2.60
-2.39
-2.18
-2.08
-2.17
-2.40
-2.69
-2.86
-2.77
-2.37
-1.72
-0.97
-0.23
0.43
1.01
1.55
2.05
2.44
2.63
2.58
2.33
2.07
1.95
2.08
2.39
2.72
2.86
2.73
2.35
1.88
1.53
1.43
1.59
1.95
2.38
2.76
2.98
3.00
2.77
2.29
1.62
0.85
0.16
-0.32
-0.53
-0.51
-0.39
-0.29
-0.26
-0.24
-0.13
0.17
0.63
1.12
1.49
1.59
1.39
0.97
0.45
-0.05
-0.40
-0.54
-0.45
-0.15
0.24
0.62
0.89
1.02
1.04
1.03
1.08
1.22
1.43
1.64
1.78
1.84
1.83
1.82
1.84
1.88
1.89
1.77
1.46
0.98
0.46
0.07
-0.06
0.09
0.40
0.67
0.72
0.50
0.11
-0.24
-0.36
-0.14
0.37
1.00
1.55
1.84
1.82
1.56
1.16
0.70
0.17
-0.51
-1.37
-2.37
-3.35
-4.10
-4.52
-4.63
-4.66
-4.87
-5.43
-6.32
-7.35
-8.22
-8.71
-8.75
-8.50
-8.26
-8.32
-8.91
-10.08
-11.69
-13.50
-15.26
-16.86
-18.42
-20.24
-22.66
-25.96
-30.16
-35.03
-40.07
-44.80
-48.88
-52.36
-55.70
-59.60
-64.68
-71.18
-78.69
-86.33
-93.13
-98.48
-102.43
-105.69
-109.22
-113.83
-119.92
-127.60
-136.81
-147.23
-157.91
-166.82
-170.98
-167.02
-152.30
-125.91
-88.84
-43.39
8.02
63.48
121.52
180.22
236.50
286.15
325.05
350.81
363.88
367.46
366.23
364.57
365.00
367.63
370.35
369.85
362.87
347.09
321.73
287.54
246.19
199.44
148.49
93.87
36.30
-22.29
-78.14
-126.24
-161.94
-182.81
-189.82
-186.79
-178.75
-169.80
-161.88
-154.80
-147.32
-138.61
-129.00
-119.72
-112.06
-106.46
-102.27
-98.11
-92.78
-85.82
-77.77
-69.79
-63.02
-58.06
-54.66
-51.99
-49.04
-45.12
-40.11
-34.46
-28.96
-24.31
-20.84
-18.47
-16.72
-15.06
-13.07
-10.66
-8.04
-5.54
-3.48
-1.98
-0.98
-0.30
0.23
0.72
1.18
1.58
1.91
2.17
2.40
2.58
2.65
2.55
2.23
1.72
1.09
0.42
-0.21
-0.76
-1.20
-1.51
-1.65
-1.63
-1.47
-1.26
-1.06
-0.90
-0.75
-0.56
-0.30
-0.01
0.22
0.27
0.09
-0.29
-0.80
-1.31
-1.64
-1.66
-1.24
-0.37
0.82
2.05
2.99
3.34
3.03
2.17
1.06
-0.01
-0.81
-1.25
-1.35
-1.21
-0.86
-0.34
0.35
1.16
1.97
2.62
2.96
2.90
2.44
1.71
0.92
0.26
-0.14
-0.29
-0.29
-0.27
-0.33
-0.45
-0.55
-0.52
-0.28
0.12
0.53
0.75
0.65
0.19
-0.51
-1.29
-1.96
-2.38
-2.53
-2.42
-2.12
-1.68
-1.15
-0.58
-0.06
0.34
0.58
0.64
0.58
0.48
0.41
0.38
0.38
0.37
0.35
0.35
0.43
0.61
0.87
1.15
1.33
1.35
1.17
0.80
0.32
-0.21
-0.71
-1.14
-1.45
-1.62
-1.65
-1.53
-1.32
-1.10
-0.94
-0.91
-0.99
-1.14
-1.25
-1.29
-1.21
-1.03
-0.74
-0.27
0.44
1.38
2.45
3.38
3.91
3.86
3.23
2.24
1.18
0.33
-0.21
-0.49
-0.61
-0.69
-0.73
-0.69
-0.54
-0.29
-0.01
0.22
0.32
0.29
0.14
-0.08
-0.36
-0.70
-1.05
-1.33
-1.46
-1.36
-1.04
-0.59
-0.16
0.13
0.26
0.30
0.32
0.41
0.56
0.72
0.81
0.82
0.75
0.65
0.55
0.43
0.29
0.12
-0.03
-0.14
-0.22
-0.31
-0.52
-0.88
-1.36
-1.84
-2.15
-2.19
-1.96
-1.54
-1.06
-0.65
-0.39
-0.32
-0.40
-0.53
-0.59
-0.51
-0.22
0.25
0.83
1.46
2.06
2.61
3.03
3.24
3.15
2.68
1.88
0.93
0.09
-0.46
-0.64
-0.53
-0.33
-0.20
-0.20
-0.28
-0.33
-0.28
-0.13
-0.01
-0.03
-0.23
-0.59
-0.97
-1.26
-1.37
-1.27
-0.97
-0.55
-0.08
0.36
0.69
0.83
0.78
0.60
0.40
0.28
0.28
0.39
0.56
0.75
0.93
1.04
1.01
0.77
0.32
-0.26
-0.83
-1.22
-1.33
-1.22
-1.03
-0.95
-1.08
-1.41
-1.79
-2.06
-2.06
-1.79
-1.30
-0.72
-0.21
0.19
0.45
0.62
0.74
0.84
0.94
1.08
1.29
1.63
2.09
2.59
3.01
3.19
3.03
2.50
1.73
0.85
0.04
-0.59
-1.00
-1.24
-1.35
-1.38
-1.32
-1.19
-0.97
-0.69
-0.43
-0.29
-0.31
-0.47
-0.72
-0.94
-1.09
-1.13
-1.11
-1.09
-1.07
-1.05
-0.99
-0.85
-0.60
-0.27
0.08
0.36
0.52
0.54
0.48
0.41
0.43
0.57
0.78
0.98
1.09
1.05
0.90
0.63
0.29
-0.09
-0.50
-0.87
-1.15
-1.29
-1.31
-1.23
-1.11
-0.98
-0.86
-0.75
-0.61
-0.46
-0.27
-0.08
0.12
0.28
0.39
0.46
0.52
0.66
0.97
1.50
2.16
2.81
3.24
3.28
2.91
2.20
1.33
0.50
-0.11
-0.44
-0.52
-0.44
-0.33
-0.28
-0.31
-0.39
-0.44
-0.42
-0.35
-0.30
-0.34
-0.48
-0.68
-0.84
-0.89
-0.82
-0.66
-0.50
-0.38
-0.32
-0.29
-0.26
-0.23
-0.21
-0.24
-0.32
-0.43
-0.52
-0.55
-0.51
-0.41
-0.29
-0.19
-0.14
-0.14
-0.17
-0.19
-0.18
-0.12
-0.07
-0.08
-0.19
-0.39
-0.60
-0.75
-0.74
-0.57
-0.27
0.07
0.34
0.47
0.49
0.42
0.36
0.37
0.45
0.57
0.70
0.80
0.88
0.95
1.02
1.04
0.98
0.79
0.50
0.18
-0.11
-0.30
-0.39
-0.39
-0.32
-0.23
-0.12
-0.02
0.00
-0.09
-0.29
-0.56
-0.82
-0.97
-0.97
-0.84
-0.65
-0.48
-0.38
-0.39
-0.47
-0.59
-0.69
-0.72
-0.62
-0.39
-0.04
0.38
0.74
0.96
0.97
0.82
0.61
0.48
0.52
0.73
0.98
1.12
1.03
0.71
0.28
-0.11
-0.30
-0.32
-0.25
-0.27
-0.47
-0.82
-1.18
-1.33
-1.16
-0.71
-0.15
0.26
0.34
0.06
-0.43
-0.90
-1.13
-1.04
-0.69
-0.23
0.23
0.62
0.96
1.31
1.70
2.07
2.34
2.43
2.27
1.91
1.42
0.90
0.42
0.01
-0.34
-0.61
-0.79
-0.84
-0.73
-0.47
-0.11
0.25
0.50
0.55
0.38
0.03
-0.39
-0.77
-0.98
-0.96
-0.71
-0.29
0.20
0.61
0.84
0.82
0.55
0.10
-0.39
-0.79
-1.01
-1.03
-0.87
-0.63
-0.41
-0.32
-0.44
-0.78
-1.28
-1.81
-2.19
-2.29
-2.05
-1.54
-0.92
-0.39
-0.08
-0.01
-0.11
-0.25
-0.34
-0.36
-0.32
-0.25
-0.16
-0.05
0.09
0.29
0.50
0.72
0.92
1.10
1.29
1.55
1.89
2.29
2.67
2.92
2.90
2.54
1.87
1.04
0.25
-0.29
-0.47
-0.34
-0.03
0.25
0.36
0.26
-0.00
-0.31
-0.57
-0.76
-0.87
-0.96
-1.04
-1.11
-1.17
-1.20
-1.20
-1.20
-1.24
-1.31
-1.35
-1.30
-1.08
-0.71
-0.23
0.24
0.59
0.73
0.68
0.47
0.19
-0.04
-0.17
-0.15
-0.03
0.13
0.26
0.34
0.36
0.36
0.33
0.24
0.04
-0.28
-0.66
-1.01
-1.22
-1.25
-1.11
-0.87
-0.61
-0.40
-0.24
-0.13
-0.03
0.08
0.21
0.36
0.54
0.74
1.00
1.33
1.74
2.17
2.53
2.69
2.58
2.19
1.67
1.18
0.83
0.65
0.56
0.45
0.23
-0.11
-0.48
-0.75
-0.86
-0.76
-0.54
-0.29
-0.11
-0.06
-0.10
-0.20
-0.33
-0.47
-0.64
-0.83
-0.98
-1.02
-0.89
-0.62
-0.30
-0.07
-0.04
-0.21
-0.49
-0.75
-0.84
-0.72
-0.41
0.00
0.42
0.77
0.96
0.97
0.77
0.42
-0.01
-0.40
-0.66
-0.75
-0.70
-0.60
-0.58
-0.74
-1.08
-1.52
-1.91
-2.09
-1.95
-1.49
-0.81
-0.08
0.51
0.88
0.98
0.92
0.80
0.74
0.81
1.01
1.31
1.67
2.01
2.27
2.34
2.18
1.77
1.17
0.54
0.02
-0.26
-0.30
-0.19
-0.08
-0.09
-0.26
-0.53
-0.79
-0.92
-0.89
-0.75
-0.59
-0.49
-0.47
-0.52
-0.59
-0.64
-0.64
-0.64
-0.66
-0.75
-0.90
-1.06
-1.14
-1.07
-0.85
-0.53
-0.21
0.02
0.14
0.19
0.24
0.35
0.52
0.64
0.61
0.39
0.05
-0.27
-0.38
-0.19
0.23
0.74
1.11
1.22
1.03
0.59
0.02
-0.52
-0.90
-0.99
-0.73
-0.17
0.50
1.05
1.24
1.01
0.48
-0.11
-0.49
-0.54
-0.26
0.21
0.74
1.24
1.69
2.04
2.19
2.00
1.42
0.51
-0.49
-1.31
-1.73
-1.75
-1.50
-1.23
-1.10
-1.17
-1.36
-1.53
-1.58
-1.50
-1.33
-1.14
-0.97
-0.82
-0.71
-0.63
-0.63
-0.73
-0.94
-1.17
-1.31
-1.21
-0.79
-0.06
0.84
1.71
2.35
2.67
2.67
2.47
2.22
2.05
2.02
2.06
2.06
1.90
1.55
1.04
0.49
0.03
-0.26
-0.35
-0.32
-0.24
-0.16
-0.13
-0.13
-0.21
-0.39
-0.72
-1.17
-1.68
-2.11
-2.33
-2.28
-1.97
-1.47
-0.90
-0.35
0.12
0.42
0.55
0.51
0.35
0.19
0.16
0.36
0.78
1.33
1.85
2.20
2.26
2.06
1.65
1.15
0.67
0.23
-0.17
-0.53
-0.84
-1.06
-1.08
-0.89
-0.54
-0.15
0.16
0.30
0.29
0.20
0.10
0.01
-0.10
-0.28
-0.53
-0.78
-0.94
-0.93
-0.75
-0.50
-0.27
-0.13
-0.08
-0.10
-0.15
-0.23
-0.37
-0.59
-0.88
-1.15
-1.32
-1.30
-1.05
-0.61
-0.06
0.46
0.81
0.93
0.80
0.54
0.27
0.15
0.27
0.63
1.16
1.73
2.25
2.62
2.79
2.74
2.47
1.97
1.29
0.51
-0.27
-0.95
-1.43
-1.69
-1.74
-1.66
-1.50
-1.34
-1.17
-0.96
-0.66
-0.24
0.25
0.69
0.94
0.93
0.67
0.29
-0.06
-0.27
-0.34
-0.33
-0.34
-0.44
-0.64
-0.91
-1.18
-1.42
-1.62
-1.80
-2.00
-2.25
-2.57
-2.95
-3.36
-3.74
-4.04
-4.26
-4.40
-4.52
-4.66
-4.89
-5.22
-5.63
-6.04
-6.35
-6.50
-6.49
-6.43
-6.52
-6.95
-7.87
-9.30
-11.10
-13.01
-14.79
-16.28
-17.51
-18.70
-20.22
-22.38
-25.32
-28.93
-32.89
-36.81
-40.44
-43.84
-47.34
-51.45
-56.56
-62.76
-69.76
-77.00
-83.87
-90.00
-95.41
-100.55
-106.16
-112.96
-121.33
-131.13
-141.67
-151.95
-160.77
-166.93
-169.03
-165.55
-154.85
-135.57
-107.06
-69.75
-25.07
25.07
78.86
134.86
191.62
247.18
298.68
342.79
376.68
399.25
411.72
417.00
418.21
417.08
413.11
403.96
386.94
360.55
325.30
283.38
237.43
189.15
138.72
85.37
28.81
-29.33
-85.01
-132.74
-167.57
-187.13
-192.57
-187.97
-178.49
-168.34
-159.59
-152.10
-144.73
-136.55
-127.64
-118.95
-111.56
-105.91
-101.53
-97.28
-92.07
-85.40
-77.67
-69.89
-63.17
-58.14
-54.66
-51.97
-49.05
-45.19
-40.23
-34.66
-29.27
-24.79
-21.54
-19.39
-17.83
-16.31
-14.44
-12.17
-9.74
-7.51
-5.76
-4.60
-3.93
-3.51
-3.09
-2.48
-1.64
-0.67
0.25
0.91
1.22
1.18
0.89
0.50
0.16
-0.09
-0.25
-0.36
-0.47
-0.57
-0.62
-0.61
-0.52
-0.35
-0.15
0.03
0.11
0.02
-0.28
-0.72
-1.15
-1.39
-1.31
-0.95
-0.45
-0.05
0.10
-0.03
-0.33
-0.61
-0.74
-0.67
-0.46
-0.21
0.01
0.19
0.35
0.53
0.71
0.84
0.86
0.77
0.60
0.43
0.34
0.36
0.48
0.69
0.94
1.20
1.43
1.56
1.55
1.37
1.03
0.60
0.12
-0.37
-0.84
-1.27
-1.62
-1.83
-1.88
-1.80
-1.66
-1.57
-1.53
-1.45
-1.18
-0.62
0.18
1.04
1.71
2.01
1.95
1.68
1.43
1.32
1.35
1.40
1.37
1.24
1.08
0.98
0.97
0.97
0.84
0.48
-0.09
-0.76
-1.35
-1.75
-1.93
-1.97
-1.98
-2.00
-2.03
-2.01
-1.89
-1.69
-1.47
-1.36
-1.43
-1.68
-2.01
-2.28
-2.35
-2.18
-1.80
-1.35
-0.94
-0.66
-0.51
-0.43
-0.36
-0.23
-0.05
0.19
0.52
0.97
1.60
2.43
3.37
4.26
4.85
4.95
4.45
3.43
2.07
0.65
-0.56
-1.43
-1.91
-2.07
-2.01
-1.80
-1.50
-1.17
-0.85
-0.62
-0.53
-0.59
-0.76
-0.92
-0.95
-0.75
-0.30
0.36
1.15
1.93
2.59
3.08
3.38
3.54
3.63
3.67
3.66
3.53
3.23
2.76
2.20
1.67
1.25
0.94
0.63
0.20
-0.42
-1.17
-1.89
-2.44
-2.74
-2.81
-2.76
-2.72
-2.70
-2.70
-2.66
-2.55
-2.37
-2.15
-1.92
-1.67
-1.42
-1.18
-0.97
-0.84
-0.83
-0.96
-1.21
-1.50
-1.71
-1.68
-1.35
-0.73
0.07
0.87
1.55
2.05
2.46
2.87
3.37
3.92
4.37
4.56
4.43
4.05
3.64
3.37
3.35
3.49
3.60
3.47
2.99
2.21
1.27
0.28
-0.67
-1.61
-2.53
-3.38
-4.05
-4.44
-4.49
-4.26
-3.86
-3.38
-2.85
-2.31
-1.78
-1.30
-0.95
-0.71
-0.52
-0.29
0.03
0.40
0.66
0.67
0.37
-0.18
-0.81
-1.34
-1.67
-1.74
-1.59
-1.27
-0.81
-0.29
0.20
0.54
0.64
0.48
0.13
-0.29
-0.60
-0.69
-0.53
-0.21
0.12
0.27
0.12
-0.36
-1.10
-1.94
-2.69
-3.22
-3.46
-3.45
-3.28
-3.06
-2.89
-2.77
-2.70
-2.58
-2.37
-2.03
-1.56
-1.00
-0.35
0.39
1.23
2.12
3.02
3.84
4.49
4.93
5.17
5.28
5.35
5.44
5.62
5.87
6.14
6.36
6.48
6.44
6.21
5.77
