1660926603.00
64.000000
-0.00
-0.00
-0.00
-0.00
-0.00
-0.00
-0.00
-0.00
-0.00
-0.00
0.00
0.01
0.01
-0.00
-0.03
-0.05
-0.05
0.00
0.13
0.36
0.66
1.01
1.37
1.72
2.06
2.40
2.79
3.25
3.81
4.44
5.09
5.73
6.32
6.91
7.53
8.27
9.15
10.24
11.44
12.62
13.70
14.63
15.52
16.54
17.90
19.73
22.21
25.12
28.18
31.13
33.84
36.45
39.30
42.83
47.29
52.99
59.52
66.35
72.97
79.16
85.13
91.45
98.80
107.56
118.07
129.65
141.47
152.80
163.36
173.53
184.12
196.42
208.83
223.18
239.70
258.38
278.27
296.98
310.77
315.35
307.29
285.21
250.75
207.15
158.53
108.44
59.13
11.61
-33.78
-76.81
-117.24
-154.80
-190.19
-224.78
-260.16
-297.23
-335.13
-370.90
-399.93
-417.62
-420.94
-409.94
-387.74
-359.29
-329.41
-301.25
-275.72
-252.23
-229.81
-208.05
-187.41
-168.63
-152.08
-137.40
-123.69
-110.04
-96.03
-81.90
-68.39
-56.32
-46.21
-37.99
-31.11
-24.80
-18.43
-11.80
-5.15
0.97
6.05
9.85
12.52
14.47
16.20
18.08
20.19
22.40
24.42
25.95
26.83
27.06
26.78
26.22
25.60
25.08
24.71
24.43
24.13
23.71
23.14
22.46
21.73
21.04
20.42
19.88
19.38
18.88
18.33
17.72
17.03
16.29
15.56
14.90
14.38
14.01
13.78
13.60
13.40
13.12
12.78
12.44
12.14
11.88
11.59
11.20
10.66
10.03
9.45
9.08
8.96
9.03
9.14
9.10
8.86
8.46
8.05
7.76
7.65
7.66
7.70
7.67
7.51
7.23
6.88
6.49
6.13
5.82
5.57
5.38
5.21
5.02
4.78
4.46
4.08
3.60
3.03
2.38
1.69
1.05
0.59
0.38
0.40
0.49
0.46
0.14
-0.50
-1.39
-2.36
-3.28
-4.08
-4.78
-5.42
-6.01
-6.53
-6.93
-7.23
-7.44
-7.66
-7.92
-8.19
-8.35
-8.29
-7.96
-7.40
-6.75
-6.18
-5.82
-5.67
-5.67
-5.69
-5.61
-5.35
-4.89
-4.26
-3.52
-2.75
-2.02
-1.41
-0.94
-0.63
-0.46
-0.36
-0.27
-0.12
0.15
0.53
1.00
1.46
1.84
2.06
2.12
2.08
2.02
2.02
2.08
2.20
2.36
2.55
2.76
3.00
3.22
3.39
3.51
3.61
3.72
3.87
4.02
4.13
4.15
4.13
4.12
4.22
4.40
4.58
4.61
4.42
4.06
3.70
3.52
3.61
3.88
4.18
4.31
4.18
3.81
3.34
2.89
2.60
2.49
2.57
2.76
2.99
3.17
3.25
3.20
3.06
2.85
2.62
2.40
2.19
2.03
1.95
1.98
2.13
2.37
2.64
2.80
2.80
2.59
2.23
1.84
1.52
1.34
1.31
1.40
1.53
1.66
1.76
1.85
1.92
1.99
2.07
2.15
2.24
2.30
2.31
2.26
2.16
2.04
1.96
1.96
2.00
2.01
1.94
1.75
1.48
1.19
0.91
0.68
0.48
0.32
0.20
0.11
0.06
0.05
0.09
0.20
0.46
0.87
1.42
2.04
2.61
3.02
3.17
3.03
2.59
1.92
1.10
0.29
-0.38
-0.82
-1.01
-0.99
-0.84
-0.62
-0.36
-0.06
0.26
0.60
0.91
1.16
1.31
1.34
1.26
1.09
0.89
0.76
0.74
0.83
0.95
0.97
0.82
0.50
0.13
-0.11
-0.14
0.05
0.32
0.54
0.61
0.56
0.48
0.46
0.55
0.69
0.80
0.81
0.72
0.56
0.43
0.39
0.47
0.65
0.90
1.13
1.27
1.28
1.14
0.89
0.62
0.41
0.29
0.25
0.28
0.35
0.44
0.55
0.67
0.77
0.80
0.77
0.72
0.69
0.71
0.73
0.70
0.58
0.41
0.25
0.19
0.24
0.34
0.40
0.34
0.18
0.01
-0.06
0.00
0.17
0.36
0.52
0.63
0.70
0.76
0.77
0.70
0.50
0.21
-0.09
-0.28
-0.28
-0.13
0.08
0.23
0.23
0.11
-0.04
-0.16
-0.17
-0.10
-0.02
0.01
-0.05
-0.20
-0.39
-0.57
-0.64
-0.56
-0.31
0.06
0.43
0.71
0.84
0.83
0.76
0.69
0.65
0.65
0.65
0.63
0.62
0.64
0.66
0.65
0.54
0.34
0.13
0.03
0.13
0.45
0.86
1.18
1.25
1.04
0.67
0.32
0.16
0.22
0.40
0.55
0.52
0.32
0.03
-0.20
-0.30
-0.25
-0.13
-0.02
0.04
0.06
0.07
0.10
0.12
0.12
0.10
0.08
0.08
0.09
0.10
0.07
0.02
0.01
0.09
0.27
0.50
0.68
0.74
0.66
0.50
0.32
0.18
0.06
-0.05
-0.13
-0.13
0.05
0.42
0.88
1.26
1.37
1.16
0.71
0.23
-0.10
-0.17
-0.04
0.18
0.37
0.46
0.45
0.38
0.27
0.13
-0.06
-0.25
-0.40
-0.45
-0.38
-0.25
-0.11
-0.04
-0.06
-0.12
-0.18
-0.18
-0.10
0.01
0.13
0.21
0.25
0.27
0.29
0.34
0.39
0.41
0.34
0.14
-0.15
-0.48
-0.77
-0.93
-0.93
-0.80
-0.59
-0.35
-0.09
0.17
0.45
0.71
0.92
1.02
1.00
0.84
0.56
0.23
-0.06
-0.23
-0.20
0.02
0.34
0.62
0.72
0.57
0.27
-0.05
-0.23
-0.16
0.13
0.52
0.88
1.09
1.11
0.95
0.70
0.44
0.23
0.11
0.06
0.06
0.08
0.11
0.12
0.09
0.00
-0.15
-0.33
-0.49
-0.60
-0.62
-0.57
-0.48
-0.36
-0.21
-0.04
0.12
0.22
0.21
0.09
-0.08
-0.19
-0.19
-0.07
0.07
0.18
0.18
0.12
0.05
0.03
0.08
0.16
0.19
0.14
0.02
-0.13
-0.23
-0.26
-0.22
-0.15
-0.07
-0.00
0.09
0.19
0.31
0.40
0.42
0.35
0.22
0.10
0.02
0.01
0.03
0.05
0.03
-0.03
-0.10
-0.17
-0.22
-0.25
-0.23
-0.14
0.04
0.28
0.52
0.69
0.73
0.64
0.43
0.17
-0.10
-0.34
-0.53
-0.63
-0.61
-0.47
-0.22
0.07
0.33
0.47
0.46
0.33
0.13
-0.06
-0.17
-0.17
-0.09
-0.00
0.03
-0.03
-0.14
-0.23
-0.21
-0.04
0.26
0.59
0.83
0.89
0.76
0.50
0.21
-0.04
-0.19
-0.27
-0.28
-0.25
-0.17
-0.04
0.14
0.29
0.35
0.26
0.02
-0.26
-0.48
-0.54
-0.45
-0.29
-0.16
-0.12
-0.11
-0.05
0.14
0.47
0.85
1.13
1.20
1.06
0.76
0.41
0.12
-0.08
-0.17
-0.19
-0.14
-0.04
0.09
0.23
0.31
0.30
0.16
-0.07
-0.36
-0.63
-0.83
-0.92
-0.88
-0.76
-0.59
-0.44
-0.35
-0.35
-0.44
-0.57
-0.69
-0.75
-0.71
-0.57
-0.35
-0.13
0.05
0.16
0.20
0.19
0.17
0.13
0.07
-0.02
-0.11
-0.18
-0.16
-0.07
0.05
0.13
0.13
0.07
-0.00
-0.02
0.04
0.14
0.23
0.27
0.27
0.28
0.36
0.52
0.71
0.87
0.93
0.89
0.78
0.64
0.51
0.39
0.25
0.11
-0.02
-0.07
-0.00
0.20
0.48
0.77
0.94
0.95
0.76
0.43
0.02
-0.35
-0.63
-0.76
-0.72
-0.56
-0.34
-0.10
0.10
0.27
0.41
0.50
0.53
0.45
0.27
0.02
-0.22
-0.40
-0.49
-0.50
-0.44
-0.33
-0.16
0.06
0.29
0.44
0.44
0.26
-0.05
-0.36
-0.55
-0.55
-0.42
-0.28
-0.25
-0.37
-0.56
-0.70
-0.67
-0.45
-0.12
0.18
0.32
0.31
0.21
0.17
0.26
0.47
0.72
0.93
1.09
1.25
1.49
1.86
2.30
2.70
2.87
2.70
2.15
1.31
0.32
-0.65
-1.45
-2.03
-2.37
-2.55
-2.61
-2.61
-2.57
-2.53
-2.51
-2.53
-2.62
-2.77
-3.00
-3.28
-3.64
-4.06
-4.52
-4.92
-5.16
-5.21
-5.07
-4.90
-4.89
-5.23
-5.95
-6.96
-8.06
-9.05
-9.81
-10.39
-10.94
-11.63
-12.60
-13.84
-15.23
-16.57
-17.64
-18.35
-18.73
-18.95
-19.27
-19.91
-21.04
-22.77
-25.10
-27.87
-30.59
-32.44
-32.38
-29.58
-23.81
-15.72
-6.61
2.12
9.58
15.69
20.97
25.98
30.72
34.62
36.85
36.89
34.99
32.04
29.11
26.92
25.60
24.75
23.83
22.48
20.70
18.71
16.82
15.19
13.84
12.66
11.50
10.23
8.83
7.35
5.89
4.55
3.35
2.22
1.07
-0.19
-1.49
-2.66
-3.48
-3.85
-3.88
-3.86
-4.16
-5.08
-6.74
-9.08
-11.97
-15.28
-18.93
-22.87
-26.96
-30.96
-34.55
-37.39
-39.36
-40.60
-41.64
-43.16
-45.77
-49.69
-54.61
-59.76
-64.31
-67.88
-70.62
-73.30
-76.72
-81.31
-86.93
-93.05
-99.05
-104.39
-108.40
-110.03
-107.98
-101.20
-89.84
-75.71
-61.96
-51.70
-46.31
-44.47
-42.53
-36.31
-23.35
-4.29
17.44
37.35
52.16
61.13
66.00
69.57
74.05
79.99
86.41
91.75
95.01
96.32
96.57
96.69
96.89
96.55
94.63
90.39
83.91
76.12
68.39
61.96
57.41
54.53
52.50
50.32
47.24
43.04
38.03
32.87
28.26
24.63
22.09
20.41
19.19
18.03
16.67
15.03
13.21
11.39
9.75
8.43
7.50
6.92
6.62
6.49
6.46
6.49
6.53
6.51
6.34
5.93
5.18
4.12
2.85
1.57
0.55
0.05
0.25
1.17
2.68
4.49
6.27
7.72
8.69
9.18
9.35
9.41
9.53
9.77
10.08
10.34
10.49
10.51
10.57
10.86
11.52
12.51
13.67
14.70
15.44
15.93
16.47
17.45
19.24
21.96
25.54
29.80
34.71
40.44
47.37
55.95
66.42
78.60
91.93
105.50
118.39
129.95
139.93
148.47
155.99
162.90
169.52
176.09
182.89
190.22
198.06
205.62
211.06
211.65
204.56
187.89
161.39
126.42
85.16
39.64
-8.68
-58.51
-107.83
-153.33
-190.82
-216.58
-228.94
-229.05
-220.49
-207.66
-194.19
-181.83
-170.64
-159.79
-148.65
-137.35
-126.63
-117.34
-109.80
-103.68
-98.14
-92.33
-85.77
-78.59
-71.37
-64.80
-59.31
-54.86
-50.98
-47.04
-42.60
-37.58
-32.34
-27.43
-23.31
-20.18
-17.87
-16.02
-14.18
-12.10
-9.76
-7.42
-5.40
-3.95
-3.07
-2.53
-2.02
-1.26
-0.16
1.11
2.29
3.11
3.48
3.52
3.44
3.39
3.39
3.25
2.75
1.74
0.31
-1.30
-2.76
-3.85
-4.52
-4.89
-5.11
-5.28
-5.37
-5.30
-5.02
-4.55
-4.02
-3.54
-3.18
-2.92
-2.69
-2.46
-2.22
-2.00
-1.83
-1.68
-1.51
-1.29
-1.02
-0.72
-0.41
-0.09
0.25
0.60
0.86
0.95
0.78
0.36
-0.17
-0.61
-0.79
-0.62
-0.16
0.39
0.83
1.01
0.89
0.52
0.00
-0.54
-1.02
-1.34
-1.39
-1.11
-0.46
0.45
1.42
2.20
2.56
2.46
1.96
1.25
0.54
-0.04
-0.43
-0.60
-0.54
-0.25
0.19
0.67
1.00
1.05
0.77
0.26
-0.32
-0.75
-0.91
-0.78
-0.42
0.03
0.46
0.76
0.88
0.80
0.57
0.29
0.06
-0.02
0.07
0.23
0.31
0.17
-0.25
-0.88
-1.57
-2.15
-2.51
-2.65
-2.63
-2.54
-2.39
-2.17
-1.83
-1.34
-0.80
-0.35
-0.15
-0.30
-0.78
-1.45
-2.10
-2.54
-2.64
-2.40
-1.92
-1.36
-0.87
-0.53
-0.33
-0.19
-0.04
0.19
0.46
0.72
0.90
0.97
0.97
0.95
0.96
1.03
1.13
1.24
1.32
1.35
1.38
1.48
1.69
2.02
2.40
2.74
2.92
2.88
2.65
2.29
1.91
1.58
1.35
1.19
1.05
0.87
0.61
0.27
-0.12
-0.50
-0.83
-1.09
-1.29
-1.43
-1.49
-1.43
-1.23
-0.90
-0.55
-0.29
-0.22
-0.32
-0.50
-0.59
-0.49
-0.19
0.16
0.37
0.27
-0.19
-0.94
-1.78
-2.52
-3.00
-3.11
-2.88
-2.40
-1.84
-1.32
-0.96
-0.77
-0.74
-0.80
-0.90
-0.99
-1.04
-1.05
-0.97
-0.79
-0.51
-0.14
0.27
0.67
1.02
1.31
1.54
1.78
2.09
2.53
3.09
3.67
4.12
4.25
3.99
3.37
2.49
1.48
0.46
-0.51
-1.35
-1.98
-2.33
-2.35
-2.10
-1.70
-1.32
-1.10
-1.07
-1.18
-1.29
-1.27
-1.05
-0.65
-0.16
0.27
0.54
0.62
0.62
0.66
0.86
1.23
1.68
2.08
2.34
2.46
2.51
2.56
2.62
2.65
2.59
2.43
2.22
2.05
1.94
1.83
1.58
1.06
0.23
-0.79
-1.82
-2.64
-3.14
-3.31
-3.24
-3.06
-2.84
-2.62
-2.40
-2.16
-1.91
-1.69
-1.56
-1.55
-1.65
-1.83
-1.97
-2.00
-1.87
-1.59
-1.24
-0.90
-0.63
-0.44
-0.32
-0.20
-0.03
0.24
0.66
1.27
2.05
2.93
3.72
4.16
4.01
3.19
1.80
0.14
-1.36
-2.36
-2.69
-2.45
-1.90
-1.33
-0.92
-0.66
-0.44
-0.16
0.17
0.42
0.47
0.28
-0.02
-0.20
-0.08
0.35
0.89
1.31
1.46
1.37
1.25
1.31
1.61
2.05
2.43
2.57
2.41
2.06
1.66
1.33
1.06
0.80
0.46
0.03
-0.43
-0.82
-1.10
-1.28
-1.42
-1.57
-1.73
-1.82
-1.76
-1.47
-1.00
-0.45
0.00
0.23
0.18
-0.07
-0.39
-0.67
-0.84
-0.88
-0.83
-0.72
-0.54
-0.32
-0.05
0.19
0.33
0.27
-0.02
-0.50
-1.04
-1.46
-1.63
-1.54
-1.31
-1.19
-1.32
-1.73
-2.22
-2.50
-2.35
-1.76
-0.95
-0.29
-0.07
-0.42
-1.27
-2.41
-3.64
-4.84
-5.86
-6.52
-6.55
-5.65
-3.72
-0.94
2.17
4.96
6.86
7.59
7.26
6.19
4.80
3.37
2.05
0.86
-0.16
-0.97
-1.47
-1.62
-1.46
-1.15
-0.87
-0.82
-1.04
-1.48
-1.94
-2.24
-2.24
-1.94
-1.48
-1.05
-0.79
-0.76
-0.88
-0.97
-0.87
-0.49
0.16
1.00
1.92
2.82
3.66
4.34
4.79
4.91
4.63
3.96
3.05
2.11
1.36
0.94
0.85
0.97
1.11
1.12
0.96
0.68
0.39
0.18
0.09
0.09
0.12
0.11
0.03
-0.08
-0.19
-0.23
-0.15
0.06
0.37
0.74
1.11
1.47
1.80
2.12
2.44
2.70
2.84
2.75
2.36
1.68
0.76
-0.26
-1.21
-1.91
-2.20
-2.00
-1.37
-0.49
0.39
1.02
1.29
1.26
1.13
1.17
1.56
2.35
3.40
4.46
5.22
5.43
4.97
3.90
2.41
0.80
-0.68
-1.84
-2.62
-3.02
-3.05
-2.75
-2.15
-1.28
-0.26
0.72
1.45
1.78
1.63
1.07
0.25
-0.65
-1.46
-2.11
-2.59
-2.94
-3.21
-3.38
-3.44
-3.35
-3.06
-2.59
-2.02
-1.45
-1.01
-0.82
-0.93
-1.29
-1.73
-2.07
-2.15
-1.97
-1.67
-1.43
-1.43
-1.66
-1.98
-2.14
-1.93
-1.29
-0.36
0.62
1.42
1.90
2.05
1.90
1.52
0.91
0.12
-0.75
-1.51
-1.92
-1.83
-1.24
-0.36
0.54
1.26
1.68
1.86
1.87
1.75
1.45
0.90
0.13
-0.71
-1.35
-1.56
-1.20
-0.36
0.69
1.60
2.14
2.22
1.95
1.52
1.09
0.76
0.52
0.37
0.33
0.45
0.78
1.24
1.72
2.04
2.13
1.97
1.66
1.27
0.83
0.30
-0.38
-1.18
-2.02
-2.77
-3.31
-3.57
-3.57
-3.37
-3.02
-2.58
-2.08
-1.58
-1.13
-0.80
-0.60
-0.53
-0.54
-0.55
-0.51
-0.38
-0.16
0.06
0.19
0.12
-0.15
-0.56
-0.99
-1.32
-1.49
-1.48
-1.32
-1.05
-0.72
-0.32
0.13
0.65
1.21
1.78
2.26
2.51
2.35
1.71
0.64
-0.61
-1.69
-2.25
-2.14
-1.38
-0.21
1.08
2.25
3.15
3.71
3.92
3.74
3.15
2.22
1.12
0.13
-0.48
-0.56
-0.13
0.63
1.40
1.92
2.07
1.86
1.45
0.99
0.59
0.29
0.05
-0.15
-0.28
-0.29
-0.14
0.17
0.57
0.95
1.19
1.23
1.04
0.61
-0.01
-0.80
-1.67
-2.50
-3.16
-3.54
-3.64
-3.49
-3.22
-2.91
-2.59
-2.26
-1.88
-1.43
-0.96
-0.57
-0.34
-0.37
-0.66
-1.13
-1.68
-2.18
-2.50
-2.62
-2.54
-2.32
-2.05
-1.75
-1.45
-1.11
-0.69
-0.15
0.47
1.09
1.57
1.83
1.81
1.59
1.33
1.21
1.36
1.80
2.49
3.30
4.06
4.64
4.91
4.79
4.25
3.34
2.19
1.03
0.10
-0.43
-0.53
-0.33
-0.06
0.08
0.02
-0.17
-0.33
-0.33
-0.16
0.10
0.32
0.44
0.45
0.45
0.51
0.67
0.88
1.06
1.15
1.17
1.15
1.12
1.07
0.96
0.75
0.43
0.07
-0.26
-0.47
-0.56
-0.57
-0.59
-0.70
-0.91
-1.20
-1.49
-1.72
-1.85
-1.87
-1.83
-1.79
-1.83
-2.01
-2.32
-2.71
-3.06
-3.29
-3.34
-3.21
-2.92
-2.53
-2.09
-1.65
-1.29
-1.03
-0.88
-0.75
-0.52
-0.03
0.78
1.88
3.03
3.95
4.31
3.97
2.94
1.44
-0.15
-1.48
-2.30
-2.51
-2.19
-1.52
-0.72
0.05
0.67
1.08
1.26
1.19
0.88
0.39
-0.17
-0.63
-0.82
-0.65
-0.12
0.62
1.35
1.87
2.05
1.94
1.64
1.31
1.09
1.02
1.05
1.13
1.19
1.22
1.24
1.33
1.54
1.89
2.29
2.62
2.71
2.44
1.81
0.93
-0.04
-0.90
-1.55
-1.95
-2.12
-2.09
-1.90
-1.58
-1.16
-0.72
-0.32
-0.00
0.21
0.31
0.28
0.11
-0.24
-0.74
-1.27
-1.71
-1.91
-1.82
-1.53
-1.21
-1.03
-1.08
-1.30
-1.52
-1.52
-1.18
-0.45
0.58
1.76
2.90
3.81
4.31
4.25
3.53
2.23
0.55
-1.16
-2.55
-3.36
-3.54
-3.21
-2.58
-1.88
-1.23
-0.66
-0.12
0.39
0.85
1.16
1.24
1.09
0.74
0.34
0.03
-0.08
0.05
0.36
0.78
1.20
1.55
1.79
1.89
1.80
1.50
1.01
0.42
-0.12
-0.44
-0.45
-0.14
0.40
1.01
1.54
1.86
1.86
1.48
0.73
-0.30
-1.36
-2.18
-2.52
-2.33
-1.77
-1.11
-0.65
-0.53
-0.73
-1.06
-1.33
-1.44
-1.42
-1.38
-1.44
-1.62
-1.83
-1.94
-1.86
-1.61
-1.29
-1.01
-0.85
-0.78
-0.77
-0.78
-0.82
-0.88
-0.97
-0.98
-0.81
-0.36
0.35
1.19
1.95
2.41
2.44
2.01
1.21
0.20
-0.82
-1.66
-2.17
-2.30
-2.05
-1.52
-0.84
-0.18
0.31
0.53
0.44
0.10
-0.35
-0.76
-0.98
-0.94
-0.62
-0.03
0.76
1.65
2.51
3.17
3.48
3.33
2.81
2.11
1.49
1.15
1.11
1.23
1.31
1.29
1.22
1.29
1.61
2.15
2.66
2.87
2.63
2.04
1.36
0.89
0.73
0.79
0.79
0.56
0.08
-0.49
-0.93
-1.14
-1.15
-1.13
-1.25
-1.58
-2.07
-2.59
-3.00
-3.20
-3.17
-2.93
-2.56
-2.15
-1.78
-1.52
-1.39
-1.35
-1.32
-1.21
-0.98
-0.60
-0.06
0.65
1.50
2.38
3.11
3.46
3.22
2.36
1.01
-0.54
-1.95
-2.95
-3.44
-3.43
-3.07
-2.48
-1.78
-1.06
-0.39
0.16
0.54
0.72
0.76
0.70
0.59
0.43
0.22
-0.07
-0.40
-0.68
-0.81
-0.72
-0.42
0.04
0.60
1.21
1.82
2.41
2.92
3.24
3.28
3.01
2.51
1.97
1.61
1.53
1.74
2.07
2.31
2.30
1.98
1.41
0.76
0.17
-0.28
-0.58
-0.81
-1.02
-1.24
-1.48
-1.71
-1.92
-2.11
-2.27
-2.36
-2.35
-2.22
-1.98
-1.73
-1.56
-1.51
-1.56
-1.56
-1.37
-0.89
-0.15
0.69
1.40
1.81
1.84
1.57
1.19
0.90
0.85
1.05
1.42
1.80
2.04
2.04
1.78
1.32
0.76
0.20
-0.27
-0.56
-0.61
-0.41
-0.02
0.47
0.87
1.04
0.88
0.42
-0.18
-0.71
-1.02
-1.04
-0.88
-0.70
-0.65
-0.79
-1.07
-1.37
-1.53
-1.48
-1.24
-0.89
-0.54
-0.27
-0.13
-0.09
-0.10
-0.08
0.04
0.30
0.72
1.26
1.83
2.28
2.48
2.38
2.05
1.61
1.17
0.80
0.44
0.04
-0.42
-0.86
-1.18
-1.33
-1.34
-1.30
-1.32
-1.42
-1.58
-1.73
-1.88
-2.08
-2.39
-2.82
-3.31
-3.73
-3.94
-3.88
-3.59
-3.12
-2.56
-1.95
-1.29
-0.57
0.21
1.01
1.75
2.36
2.78
3.02
3.16
3.25
3.32
3.31
3.12
2.66
1.98
1.24
0.66
0.46
0.69
1.22
1.81
2.21
2.30
2.05
1.56
0.93
0.27
-0.34
-0.81
-1.08
-1.09
-0.85
-0.47
-0.14
-0.01
-0.14
-0.43
-0.73
-0.87
-0.77
-0.45
-0.03
0.37
0.70
0.98
1.27
1.60
1.93
2.16
2.19
2.01
1.68
1.29
0.91
0.50
-0.00
-0.65
-1.35
-1.96
-2.29
-2.29
-2.03
-1.70
-1.50
-1.50
-1.67
-1.88
-2.02
-2.03
-1.94
-1.85
-1.82
-1.91
-2.10
-2.29
-2.40
-2.32
-2.03
-1.59
-1.08
-0.59
-0.17
0.20
0.55
0.89
1.18
1.38
1.43
1.33
1.17
0.99
0.85
0.70
0.53
0.34
0.18
0.14
0.33
0.76
1.38
2.00
2.44
2.55
2.29
1.75
1.08
0.47
0.08
-0.05
0.04
0.22
0.36
0.37
0.26
0.10
-0.04
-0.12
-0.17
-0.25
-0.36
-0.44
-0.33
0.06
0.70
1.43
2.03
2.33
2.33
2.15
1.93
1.76
1.56
1.23
0.70
0.01
-0.68
-1.21
-1.53
-1.69
-1.80
-1.93
-2.06
-2.11
-2.00
-1.75
-1.47
-1.25
-1.17
-1.22
-1.30
-1.36
-1.36
-1.31
-1.26
-1.26
-1.32
-1.45
-1.61
-1.74
-1.75
-1.52
-1.01
-0.22
0.72
1.67
2.48
3.05
3.32
3.25
2.82
2.06
1.07
0.04
-0.80
-1.31
-1.43
-1.24
-0.91
-0.57
-0.30
-0.14
-0.06
-0.05
-0.09
-0.15
-0.21
-0.22
-0.16
-0.02
0.21
0.52
0.91
1.36
1.83
2.23
2.51
2.63
2.60
2.47
2.29
2.08
1.87
1.66
1.46
1.28
1.10
0.90
0.61
0.21
-0.25
-0.69
-1.03
-1.21
-1.28
-1.32
-1.43
-1.66
-2.00
-2.34
-2.57
-2.58
-2.33
-1.88
-1.32
-0.80
-0.47
-0.41
-0.56
-0.80
-0.97
-0.96
-0.76
-0.46
-0.18
-0.02
0.00
-0.06
-0.15
-0.19
-0.19
-0.18
-0.17
-0.19
-0.23
-0.26
-0.26
-0.23
-0.16
-0.04
0.13
0.39
0.76
1.26
1.85
2.36
2.58
2.29
1.42
0.06
-1.48
-2.85
-3.76
-4.09
-3.91
-3.37
-2.66
-1.89
-1.10
-0.34
0.31
0.72
0.84
0.69
0.44
0.31
0.48
0.99
1.72
2.42
2.88
2.93
2.60
2.03
1.40
0.91
0.67
0.72
0.97
1.30
1.57
1.74
1.83
1.92
2.10
2.37
2.63
2.75
2.59
2.13
1.43
0.60
-0.23
-1.02
-1.72
-2.28
-2.63
-2.70
-2.50
-2.13
-1.74
-1.49
-1.49
-1.72
-2.04
-2.29
-2.32
-2.10
-1.68
-1.22
-0.86
-0.71
-0.75
-0.88
-0.96
-0.89
-0.67
-0.39
-0.14
0.02
0.11
0.18
0.26
0.34
0.40
0.43
0.49
0.66
0.99
1.43
1.81
1.95
1.73
1.16
0.36
-0.49
-1.23
-1.77
-2.10
-2.26
-2.29
-2.20
-2.01
-1.70
-1.32
-0.92
-0.54
-0.20
0.13
0.50
0.95
1.47
1.99
2.39
2.62
2.68
2.63
2.55
2.47
2.36
2.17
1.88
1.56
1.27
1.09
1.04
1.07
1.14
1.19
1.18
1.07
0.80
0.31
-0.38
-1.18
-1.91
-2.38
-2.47
-2.18
-1.67
-1.13
-0.75
-0.63
-0.77
-1.07
-1.34
-1.46
-1.34
-1.04
-0.70
-0.47
-0.46
-0.65
-0.90
-1.07
-1.07
-0.93
-0.77
-0.69
-0.70
-0.72
-0.63
-0.40
-0.09
0.21
0.39
0.47
0.53
0.65
0.81
0.92
0.83
0.43
-0.25
-1.09
-1.91
-2.52
-2.78
-2.66
-2.22
-1.59
-0.98
-0.56
-0.45
-0.66
-1.08
-1.51
-1.77
-1.69
-1.21
-0.39
0.65
1.68
2.49
2.91
2.86
2.44
1.86
1.35
1.05
0.96
0.95
0.88
0.65
0.28
-0.11
-0.36
-0.36
-0.07
0.44
1.09
1.74
2.32
2.74
2.99
3.07
2.99
2.79
2.47
2.05
1.50
0.84
0.14
-0.50
-0.92
-1.04
-0.85
-0.46
-0.04
0.26
0.37
0.27
0.03
-0.30
-0.69
-1.11
-1.52
-1.87
-2.07
-2.07
-1.86
-1.45
-0.91
-0.27
0.39
1.05
1.65
2.14
2.50
2.69
2.69
2.49
2.06
1.43
0.65
-0.18
-0.96
-1.57
-1.90
-1.94
-1.68
-1.21
-0.63
-0.07
0.35
0.58
0.61
0.50
0.33
0.15
-0.04
-0.26
-0.53
-0.86
-1.15
-1.32
-1.28
-1.02
-0.61
-0.19
0.12
0.28
0.33
0.38
0.52
0.77
1.07
1.37
1.64
1.89
2.14
2.38
2.53
2.50
2.19
1.61
0.86
0.08
-0.58
-1.01
-1.22
-1.25
-1.18
-1.11
-1.10
-1.21
-1.43
-1.72
-1.97
-2.11
-2.10
-1.98
-1.83
-1.75
-1.80
-1.96
-2.13
-2.22
-2.16
-1.97
-1.73
-1.54
-1.47
-1.50
-1.55
-1.52
-1.32
-0.96
-0.48
0.07
0.63
1.20
1.77
2.31
2.70
2.79
2.48
1.77
0.83
-0.05
-0.60
-0.66
-0.25
0.43
1.14
1.66
1.93
1.98
1.89
1.71
1.46
1.13
0.72
0.31
-0.05
-0.27
-0.36
-0.34
-0.29
-0.23
-0.18
-0.15
-0.15
-0.22
-0.37
-0.52
-0.61
-0.50
-0.18
0.32
0.91
1.48
1.96
2.29
2.42
2.30
1.91
1.29
0.52
-0.29
-1.01
-1.57
-1.93
-2.06
-1.98
-1.74
-1.43
-1.17
-1.05
-1.09
-1.23
-1.37
-1.43
-1.38
-1.24
-1.05
-0.84
-0.62
-0.47
-0.43
-0.56
-0.86
-1.23
-1.49
-1.46
-1.08
-0.42
0.33
0.93
1.27
1.34
1.27
1.23
1.28
1.40
1.45
1.30
0.87
0.19
-0.63
-1.43
-2.04
-2.33
-2.23
-1.75
-0.98
-0.04
0.91
1.72
2.28
2.54
2.49
2.18
1.70
1.18
0.77
0.54
0.50
0.54
0.52
0.37
0.12
-0.10
-0.14
0.09
0.52
1.00
1.38
1.58
1.63
1.64
1.68
1.75
1.76
1.58
1.14
0.49
-0.21
-0.76
-1.03
-1.03
-0.85
-0.63
-0.45
-0.31
-0.16
0.03
0.24
0.39
0.38
0.19
-0.16
-0.60
-1.04
-1.41
-1.66
-1.76
-1.70
-1.51
-1.27
-1.08
-1.03
-1.13
-1.34
-1.58
-1.75
-1.78
-1.65
-1.33
-0.86
-0.32
0.15
0.38
0.24
-0.28
-1.02
-1.74
-2.20
-2.27
-1.96
-1.41
-0.79
-0.21
0.26
0.65
0.94
1.11
1.13
0.99
0.73
0.46
0.27
0.24
0.38
0.66
1.03
1.41
1.73
1.95
2.06
2.07
2.03
1.99
2.00
2.08
2.24
2.41
2.52
2.46
2.19
1.76
1.25
0.80
0.48
0.30
0.18
0.01
-0.28
-0.72
-1.25
-1.77
-2.17
-2.35
-2.29
-2.01
-1.60
-1.21
-0.98
-1.00
-1.24
-1.58
-1.87
-1.98
-1.88
-1.61
-1.27
-0.93
-0.64
-0.39
-0.19
-0.07
-0.07
-0.23
-0.55
-0.96
-1.32
-1.51
-1.40
-0.95
-0.24
0.63
1.49
2.22
2.70
2.91
2.84
2.53
2.01
1.36
0.67
0.05
-0.42
-0.72
-0.85
-0.84
-0.74
-0.55
-0.26
0.08
0.43
0.68
0.72
0.52
0.12
-0.35
-0.71
-0.83
-0.67
-0.30
0.17
0.61
0.93
1.13
1.21
1.21
1.14
0.99
0.74
0.42
0.10
-0.15
-0.25
-0.20
-0.06
0.07
0.10
-0.04
-0.32
-0.65
-0.93
-1.07
-1.04
-0.89
-0.69
-0.54
-0.43
-0.34
-0.21
0.02
0.39
0.85
1.31
1.62
1.65
1.33
0.69
-0.16
-1.03
-1.78
-2.30
-2.56
-2.58
-2.38
-2.01
-1.51
-0.97
-0.48
-0.09
0.20
0.47
0.78
1.18
1.63
2.02
2.22
2.19
1.93
1.56
1.16
0.77
0.37
-0.08
-0.61
-1.19
-1.72
-2.08
-2.15
-1.92
-1.42
-0.78
-0.14
0.37
0.65
0.69
0.52
0.21
-0.13
-0.40
-0.51
-0.43
-0.20
0.10
0.35
0.44
0.38
0.22
0.08
0.06
0.16
0.34
0.53
0.68
0.79
0.93
1.13
1.41
1.72
2.00
2.18
2.21
2.05
1.68
1.13
0.45
-0.24
-0.79
-1.11
-1.21
-1.14
-1.05
-1.01
-1.06
-1.16
-1.24
-1.24
-1.18
-1.09
-1.00
-0.95
-0.94
-0.98
-1.06
-1.20
-1.35
-1.48
-1.50
-1.36
-1.02
-0.56
-0.10
0.24
0.37
0.32
0.21
0.24
0.53
1.09
1.80
2.41
2.69
2.49
1.81
0.78
-0.35
-1.35
-2.01
-2.22
-2.02
-1.53
-0.92
-0.36
0.03
0.24
0.32
0.35
0.38
0.41
0.39
0.32
0.24
0.24
0.42
0.81
1.33
1.83
2.14
2.18
2.00
1.72
1.50
1.43
1.50
1.64
1.77
1.86
1.90
1.90
1.82
1.63
1.28
0.76
0.10
-0.59
-1.22
-1.70
-1.98
-2.07
-2.01
-1.88
-1.77
-1.73
-1.78
-1.90
-2.02
-2.12
-2.19
-2.28
-2.44
-2.65
-2.85
-2.91
-2.76
-2.37
-1.82
-1.22
-0.69
-0.27
0.02
0.20
0.30
0.34
0.37
0.50
0.82
1.40
2.21
3.07
3.76
4.05
3.80
3.00
1.80
0.43
-0.85
-1.79
-2.26
-2.25
-1.84
-1.23
-0.60
-0.11
0.15
0.18
0.05
-0.11
-0.18
-0.08
0.22
0.65
1.07
1.36
1.43
1.31
1.08
0.84
0.65
0.52
0.43
0.41
0.50
0.77
1.24
1.84
2.43
2.83
2.90
2.63
2.12
1.54
1.01
0.61
0.28
-0.03
-0.38
-0.78
-1.19
-1.58
-1.88
-2.08
-2.13
-2.04
-1.82
-1.54
-1.28
-1.14
-1.15
-1.30
-1.55
-1.84
-2.10
-2.30
-2.37
-2.29
-2.04
-1.67
-1.28
-0.99
-0.87
-0.85
-0.81
-0.56
0.02
0.93
2.04
3.09
3.82
4.01
3.55
2.48
0.98
-0.67
-2.17
-3.21
-3.63
-3.38
-2.59
-1.49
-0.36
0.58
1.21
1.54
1.63
1.54
1.36
1.14
0.94
0.81
0.79
0.88
1.06
1.24
1.35
1.32
1.13
0.84
0.51
0.25
0.16
0.29
0.63
1.09
1.53
1.81
1.87
1.73
1.48
1.26
1.12
1.02
0.84
0.48
-0.12
-0.86
-1.56
-2.06
-2.28
-2.27
-2.15
-2.02
-1.95
-1.96
-2.02
-2.13
-2.29
-2.52
-2.83
-3.18
-3.52
-3.76
-3.86
-3.79
-3.57
-3.27
-2.99
-2.80
-2.70
-2.58
-2.28
-1.61
-0.47
1.08
2.87
4.62
6.02
6.85
6.97
6.41
5.33
3.99
2.68
1.61
0.88
0.44
0.16
-0.06
-0.28
-0.49
-0.60
-0.60
-0.49
-0.35
-0.24
-0.21
-0.26
-0.30
-0.27
-0.14
0.06
0.25
0.33
0.24
0.03
-0.15
-0.11
0.27
1.02
1.99
2.97
3.74
4.16
4.27
4.16
3.99
3.80
3.52
3.03
2.21
1.09
-0.13
-1.16
-1.78
-1.90
-1.66
-1.30
-1.09
-1.15
-1.46
-1.87
-2.25
-2.52
-2.69
-2.80
-2.92
-3.06
-3.17
-3.21
-3.13
-2.91
-2.55
-2.06
-1.47
-0.81
-0.17
0.37
0.72
0.89
0.92
0.95
1.06
1.31
1.62
1.85
1.89
1.67
1.24
0.73
0.25
-0.12
-0.37
-0.57
-0.74
-0.91
-1.09
-1.24
-1.34
-1.36
-1.28
-1.15
-0.98
-0.82
-0.68
-0.53
-0.33
-0.06
0.27
0.60
0.89
1.08
1.18
1.24
1.32
1.47
1.73
2.10
2.58
3.12
3.62
3.94
3.96
3.61
2.95
2.10
1.20
0.41
-0.21
-0.65
-0.91
-1.01
-0.99
-0.88
-0.77
-0.76
-0.89
-1.16
-1.55
-1.96
-2.36
-2.71
-3.00
-3.21
-3.27
-3.15
-2.85
-2.48
-2.13
-1.88
-1.73
-1.59
-1.37
-1.01
-0.56
-0.14
0.18
0.40
0.60
0.89
1.35
1.92
2.44
2.73
2.64
2.12
1.29
0.37
-0.40
-0.85
-0.93
-0.75
-0.43
-0.15
0.01
0.07
0.12
0.27
0.59
1.06
1.58
2.02
2.29
2.36
2.28
2.16
2.10
2.12
2.21
2.27
2.24
2.13
1.96
1.81
1.68
1.51
1.21
0.70
-0.01
-0.82
-1.55
-2.08
-2.35
-2.42
-2.41
-2.41
-2.47
-2.53
-2.49
-2.30
-1.96
-1.58
-1.26
-1.07
-1.02
-1.07
-1.16
-1.24
-1.33
-1.47
-1.70
-2.03
-2.40
-2.72
-2.90
-2.86
-2.65
-2.35
-2.05
-1.83
-1.65
-1.41
-1.04
-0.49
0.20
0.97
1.73
2.46
3.12
3.71
4.13
4.28
4.05
3.43
2.50
1.42
0.37
-0.48
-1.07
-1.38
-1.43
-1.30
-1.05
-0.77
-0.52
-0.32
-0.18
-0.07
0.05
0.18
0.34
0.51
0.65
0.74
0.76
0.72
0.64
0.54
0.43
0.32
0.21
0.13
0.12
0.23
0.47
0.81
1.18
1.46
1.55
1.43
1.19
0.99
0.99
1.26
1.68
2.05
2.11
1.75
1.00
0.06
-0.82
-1.47
-1.83
-1.95
-1.93
-1.85
-1.74
-1.57
-1.33
-1.03
-0.76
-0.59
-0.61
-0.88
-1.39
-2.07
-2.76
-3.27
-3.45
-3.22
-2.63
-1.86
-1.11
-0.55
-0.23
-0.14
-0.15
-0.15
-0.06
0.15
0.47
0.92
1.55
2.37
3.29
4.13
4.66
4.68
4.12
3.10
1.86
0.67
-0.26
-0.85
-1.09
-1.06
-0.84
-0.51
-0.18
0.03
0.03
-0.19
-0.57
-0.95
-1.17
-1.11
-0.77
-0.25
0.32
0.79
1.11
1.28
1.34
1.33
1.26
1.13
0.92
0.64
0.37
0.16
0.08
0.12
0.24
0.38
0.47
0.49
0.44
0.37
0.32
0.31
0.32
0.31
0.19
-0.07
-0.47
-0.96
-1.41
-1.73
-1.86
-1.77
-1.55
-1.29
-1.08
-1.02
-1.11
-1.32
-1.57
-1.77
-1.81
-1.65
-1.35
-0.98
-0.66
-0.45
-0.37
-0.40
-0.50
-0.69
-0.94
-1.22
-1.47
-1.62
-1.68
-1.71
-1.85
-2.20
-2.76
-3.40
-3.92
-4.18
-4.21
-4.20
-4.37
-4.95
-5.95
-7.22
-8.53
-9.66
-10.57
-11.35
-12.18
-13.26
-14.67
-16.33
-18.08
-19.70
-21.05
-22.17
-23.32
-24.94
-27.46
-31.18
-36.04
-41.56
-46.99
-51.52
-54.72
-56.80
-58.61
-61.31
-65.92
-72.79
-81.47
-90.88
-99.83
-107.55
-113.98
-119.71
-125.60
-132.52
-141.14
-151.86
-164.59
-178.50
-191.62
-200.94
-203.00
-194.95
-175.55
-145.57
-107.19
-62.91
-14.48
37.16
91.06
145.10
195.50
237.55
267.40
283.84
288.98
287.39
284.06
282.43
283.33
285.45
286.83
286.33
284.42
282.86
283.59
287.58
294.33
302.13
308.80
312.40
311.63
305.77
294.25
276.62
252.53
222.01
185.73
144.88
100.73
54.11
5.36
-45.19
-96.32
-145.28
-188.05
-220.44
-239.80
-246.03
-241.65
-230.70
-217.11
-203.48
-190.68
-178.48
-166.53
-154.95
-144.34
-135.25
-127.62
-120.70
-113.40
-104.91
-95.20
-84.93
-75.23
-67.06
-60.81
-56.16
-52.32
-48.42
-43.89
-38.69
-33.20
-28.04
-23.73
-20.48
-18.12
-16.25
-14.41
-12.28
-9.86
-7.37
-5.20
-3.66
-2.90
-2.81
-3.14
-3.55
-3.80
-3.73
-3.37
-2.84
-2.28
-1.82
-1.52
-1.38
-1.34
-1.38
-1.49
-1.65
-1.88
-2.09
-2.24
-2.25
-2.14
-1.98
-1.87
-1.82
-1.80
-1.71
-1.47
-1.07
-0.57
-0.07
0.37
0.73
0.98
1.13
1.13
0.93
0.52
-0.08
-0.75
-1.38
-1.87
-2.17
-2.31
-2.36
-2.38
-2.46
-2.62
-2.86
-3.18
-3.53
-3.86
-4.11
-4.21
-4.13
-3.85
-3.44
-3.03
-2.79
-2.83
-3.17
-3.71
-4.27
-4.68
-4.91
-4.99
-5.07
-5.23
-5.49
-5.71
-5.72
-5.32
-4.37
-2.86
-0.87
1.44
3.81
6.00
7.76
8.96
9.63
9.94
10.14
10.45
10.99
11.72
12.50
13.16
13.65
14.00
14.30
14.59
14.80
14.79
14.41
13.65
12.64
11.65
10.88
10.38
9.93
9.13
7.58
5.06
1.68
-2.14
-5.81
-8.78
-10.69
-11.45
-11.18
-10.17
-8.72
-7.11
-5.62
-4.50
-3.92
-3.92
-4.37
-5.03
-5.58
-5.82
-5.65
-5.15
-4.46
-3.74
-3.14
-2.75
-2.58
-2.65
-2.89
-3.18
-3.40
-3.40
-3.10
-2.53
-1.77
-1.00
-0.37
0.01
0.13
0.03
-0.14
-0.27
-0.29
-0.16
0.09
0.43
0.82
1.28
1.88
2.69
3.73
4.98
6.30
7.48
8.26
8.44
7.91
6.73
5.07
3.16
1.25
-0.43
-1.72
-2.50
-2.75
-2.52
-1.99
-1.37
-0.90
-0.73
-0.85
-1.18
-1.59
-2.00
-2.39
-2.81
-3.25
-3.67
-3.98
-4.12
-4.04
-3.75
-3.28
-2.64
-1.83
-0.86
0.26
1.51
2.82
4.12
5.25
6.04
6.27
5.81
4.65
2.93
0.90
-1.18
-3.08
-4.65
-5.85
-6.62
-6.96
-6.83
-6.25
-5.31
-4.17
-3.03
-2.08
-1.44
-1.10
-0.95
-0.84
-0.66
-0.37
-0.02
0.31
0.58
0.79
1.01
1.31
1.70
2.14
2.54
2.82
2.95
2.96
2.93
2.90
2.85
2.72
2.42
1.92
1.30
0.69
0.25
0.06
0.08
0.13
0.04
-0.34
-1.00
-1.78
-2.43
-2.76
-2.70
-2.35
-1.93
-1.71
-1.83
-2.31
-3.06
-3.90
-4.67
-5.29
-5.70
-5.87
-5.78
-5.38
-4.67
-3.67
-2.46
-1.16
0.14
1.39
2.63
3.89
5.11
6.11
6.61
6.40
5.41
3.83
2.02
0.38
-0.79
-1.42
-1.64
-1.68
-1.76
-1.96
-2.20
-2.28
-2.04
-1.41
-0.50
0.50
1.35
1.94
2.32
2.61
2.96
3.38
3.81
4.10
4.17
4.07
3.90
3.79
3.76
3.73
3.56
3.18
2.62
2.03
1.56
1.27
1.08
0.85
0.42
-0.22
-0.98
-1.67
-2.11
-2.24
-2.11
-1.85
-1.62
-1.55
-1.68
-1.97
