1660331595.00
64.000000
-0.00
-0.00
-0.00
-0.00
-0.00
-0.00
-0.00
-0.00
-0.00
-0.00
0.00
0.01
0.01
-0.00
-0.03
-0.05
-0.05
0.00
0.13
0.36
0.66
1.01
1.37
1.72
2.06
2.40
2.79
3.24
3.80
4.42
5.06
5.66
6.20
6.68
7.15
7.68
8.31
9.15
10.09
11.04
11.88
12.56
13.13
13.77
14.69
16.02
17.97
20.31
22.78
25.08
27.07
28.87
30.83
33.38
36.82
41.51
47.06
52.90
58.47
63.43
67.89
72.37
77.56
83.95
92.00
101.13
110.49
119.21
126.81
133.42
139.75
147.15
154.21
163.03
173.99
187.09
201.16
213.50
220.06
216.43
199.30
167.59
123.32
69.90
11.45
-48.75
-108.75
-167.75
-225.38
-281.24
-334.78
-385.14
-432.09
-475.32
-514.16
-547.17
-572.18
-586.75
-588.86
-577.64
-553.46
-518.26
-474.91
-426.73
-376.70
-326.64
-276.68
-225.22
-169.84
-108.60
-41.65
28.28
96.46
157.70
208.10
246.11
272.38
288.83
297.45
299.55
295.93
287.38
275.11
260.76
245.93
231.63
218.06
204.72
190.89
176.16
160.67
145.11
130.33
117.06
105.55
95.62
86.72
78.23
69.68
60.89
52.01
43.41
35.56
28.82
23.30
18.93
15.27
11.89
8.52
5.16
2.02
-0.69
-2.82
-4.39
-5.52
-6.36
-6.95
-7.31
-7.44
-7.41
-7.27
-7.11
-6.94
-6.77
-6.61
-6.50
-6.48
-6.57
-6.74
-6.88
-6.86
-6.62
-6.18
-5.66
-5.20
-4.89
-4.75
-4.67
-4.50
-4.15
-3.61
-3.00
-2.51
-2.28
-2.36
-2.65
-2.96
-3.15
-3.14
-3.03
-2.94
-3.01
-3.21
-3.44
-3.56
-3.46
-3.17
-2.77
-2.39
-2.07
-1.77
-1.41
-0.94
-0.35
0.23
0.67
0.90
0.91
0.80
0.65
0.55
0.47
0.37
0.20
-0.03
-0.25
-0.34
-0.19
0.20
0.75
1.30
1.69
1.90
1.98
2.06
2.22
2.53
2.99
3.59
4.32
5.13
5.89
6.39
6.38
5.73
4.52
2.98
1.49
0.26
-0.68
-1.44
-2.25
-3.23
-4.36
-5.47
-6.36
-6.86
-6.94
-6.67
-6.15
-5.59
-5.07
-4.67
-4.36
-4.09
-3.79
-3.45
-3.13
-2.90
-2.84
-2.93
-3.10
-3.23
-3.23
-3.07
-2.81
-2.53
-2.28
-2.07
-1.87
-1.65
-1.42
-1.21
-1.07
-1.04
-1.09
-1.16
-1.20
-1.19
-1.13
-1.08
-1.08
-1.17
-1.36
-1.62
-1.90
-2.14
-2.30
-2.34
-2.19
-1.82
-1.23
-0.46
0.35
1.07
1.59
1.88
2.04
2.18
2.43
2.84
3.34
3.83
4.19
4.32
4.20
3.86
3.37
2.83
2.30
1.87
1.55
1.33
1.17
1.03
0.89
0.76
0.64
0.52
0.36
0.15
-0.15
-0.53
-0.95
-1.37
-1.77
-2.13
-2.43
-2.67
-2.85
-2.95
-3.02
-3.12
-3.32
-3.64
-4.00
-4.27
-4.22
-3.73
-2.75
-1.40
0.09
1.50
2.67
3.56
4.21
4.73
5.16
5.52
5.76
5.83
5.71
5.42
5.00
4.54
4.09
3.69
3.34
3.00
2.65
2.26
1.84
1.42
1.00
0.57
0.08
-0.53
-1.23
-1.95
-2.56
-2.96
-3.10
-3.07
-3.04
-3.17
-3.54
-4.11
-4.75
-5.31
-5.72
-5.95
-6.03
-5.98
-5.78
-5.38
-4.75
-3.92
-3.01
-2.13
-1.39
-0.82
-0.36
0.11
0.67
1.32
1.98
2.47
2.67
2.53
2.12
1.60
1.13
0.81
0.66
0.63
0.65
0.69
0.72
0.71
0.62
0.39
-0.02
-0.59
-1.22
-1.78
-2.17
-2.39
-2.51
-2.66
-2.96
-3.47
-4.14
-4.84
-5.38
-5.59
-5.35
-4.63
-3.49
-2.09
-0.61
0.78
1.91
2.74
3.26
3.54
3.66
3.70
3.68
3.61
3.48
3.28
3.05
2.82
2.61
2.42
2.22
1.98
1.66
1.30
0.93
0.59
0.28
-0.04
-0.42
-0.92
-1.49
-2.08
-2.60
-3.01
-3.35
-3.72
-4.22
-4.87
-5.62
-6.31
-6.76
-6.81
-6.37
-5.45
-4.10
-2.45
-0.67
1.05
2.55
3.73
4.55
5.02
5.22
5.20
5.04
4.83
4.63
4.48
4.34
4.15
3.85
3.45
3.02
2.72
2.61
2.66
2.73
2.67
2.37
1.82
1.13
0.40
-0.28
-0.89
-1.43
-1.93
-2.42
-2.90
-3.41
-3.98
-4.64
-5.32
-5.90
-6.18
-5.99
-5.24
-3.99
-2.41
-0.77
0.70
1.85
2.65
3.19
3.61
4.00
4.41
4.79
5.09
5.27
5.37
5.41
5.40
5.31
5.06
4.61
3.99
3.32
2.74
2.32
2.05
1.81
1.49
1.05
0.54
0.06
-0.29
-0.51
-0.70
-1.00
-1.52
-2.29
-3.20
-4.11
-4.87
-5.45
-5.88
-6.27
-6.66
-6.95
-6.97
-6.49
-5.40
-3.78
-1.92
-0.12
1.38
2.54
3.44
4.22
4.89
5.37
5.51
5.25
4.70
4.08
3.62
3.42
3.38
3.34
3.11
2.66
2.09
1.56
1.16
0.88
0.61
0.22
-0.33
-0.98
-1.61
-2.10
-2.42
-2.59
-2.69
-2.82
-3.05
-3.46
-4.06
-4.80
-5.58
-6.22
-6.54
-6.40
-5.79
-4.75
-3.43
-1.94
-0.40
1.08
2.43
3.56
4.38
4.84
4.97
4.81
4.46
4.03
3.59
3.18
2.81
2.47
2.16
1.88
1.69
1.62
1.68
1.78
1.80
1.62
1.17
0.47
-0.35
-1.18
-1.92
-2.53
-3.06
-3.52
-3.97
-4.43
-4.90
-5.40
-5.92
-6.40
-6.73
-6.77
-6.38
-5.49
-4.15
-2.49
-0.73
0.95
2.39
3.51
4.32
4.83
5.08
5.15
5.09
4.98
4.88
4.81
4.78
4.78
4.79
4.75
4.63
4.41
4.08
3.67
3.22
2.74
2.25
1.72
1.14
0.52
-0.07
-0.54
-0.82
-0.94
-0.99
-1.13
-1.50
-2.14
-3.01
-4.01
-5.03
-5.94
-6.67
-7.10
-7.14
-6.67
-5.66
-4.14
-2.26
-0.25
1.63
3.20
4.36
5.09
5.46
5.54
5.45
5.27
5.10
4.95
4.81
4.64
4.36
3.98
3.51
3.00
2.50
2.05
1.66
1.31
1.02
0.79
0.62
0.43
0.19
-0.16
-0.61
-1.11
-1.58
-2.01
-2.40
-2.80
-3.24
-3.71
-4.20
-4.68
-5.17
-5.67
-6.14
-6.51
-6.66
-6.50
-5.96
-5.06
-3.86
-2.43
-0.91
0.58
1.87
2.82
3.36
3.50
3.37
3.12
2.87
2.72
2.66
2.68
2.71
2.73
2.70
2.60
2.42
2.15
1.79
1.36
0.85
0.30
-0.26
-0.80
-1.28
-1.71
-2.09
-2.43
-2.77
-3.12
-3.45
-3.78
-4.10
-4.41
-4.76
-5.18
-5.64
-6.08
-6.32
-6.20
-5.56
-4.41
-2.85
-1.09
0.64
2.21
3.56
4.68
5.54
6.08
6.21
5.94
5.35
4.63
4.00
3.57
3.36
3.27
3.16
2.95
2.63
2.25
1.87
1.57
1.33
1.14
0.93
0.65
0.29
-0.17
-0.70
-1.27
-1.85
-2.43
-3.01
-3.62
-4.30
-5.05
-5.88
-6.69
-7.36
-7.72
-7.59
-6.89
-5.65
-4.01
-2.20
-0.46
1.02
2.18
3.04
3.71
4.30
4.89
5.46
5.97
6.36
6.55
6.56
6.37
6.01
5.50
4.88
4.19
3.54
3.01
2.66
2.49
2.46
2.47
2.43
2.25
1.90
1.39
0.76
0.06
-0.61
-1.20
-1.66
-1.98
-2.24
-2.54
-2.98
-3.61
-4.41
-5.31
-6.23
-7.07
-7.73
-8.11
-8.05
-7.44
-6.23
-4.51
-2.50
-0.46
1.38
2.89
4.04
4.83
5.26
5.33
5.07
4.58
4.01
3.50
3.12
2.84
2.58
2.24
1.82
1.36
0.96
0.68
0.53
0.43
0.30
0.07
-0.32
-0.87
-1.55
-2.26
-2.91
-3.40
-3.66
-3.73
-3.72
-3.78
-4.09
-4.70
-5.51
-6.33
-6.90
-7.04
-6.67
-5.83
-4.66
-3.31
-1.87
-0.48
0.76
1.74
2.38
2.66
2.65
2.50
2.36
2.32
2.37
2.37
2.16
1.65
0.87
-0.07
-1.00
-1.80
-2.43
-2.92
-3.31
-3.61
-3.85
-4.04
-4.22
-4.43
-4.69
-4.92
-4.99
-4.77
-4.19
-3.33
-2.37
-1.53
-1.04
-1.01
-1.41
-2.05
-2.63
-2.81
-2.37
-1.25
0.41
2.34
4.25
5.91
7.20
8.11
8.66
8.90
8.89
8.70
8.43
8.16
7.95
7.80
7.67
7.50
7.22
6.82
6.28
5.67
5.04
4.51
4.12
3.88
3.69
3.41
2.93
2.25
1.41
0.55
-0.23
-0.91
-1.52
-2.11
-2.70
-3.29
-3.87
-4.44
-5.05
-5.75
-6.51
-7.24
-7.74
-7.79
-7.28
-6.17
-4.57
-2.70
-0.76
1.05
2.63
3.89
4.83
5.45
5.77
5.83
5.67
5.39
5.07
4.80
4.65
4.61
4.63
4.61
4.42
4.03
3.45
2.77
2.10
1.50
0.99
0.56
0.14
-0.27
-0.73
-1.25
-1.85
-2.54
-3.27
-3.98
-4.56
-4.97
-5.24
-5.49
-5.85
-6.37
-6.97
-7.45
-7.57
-7.19
-6.27
-4.95
-3.41
-1.85
-0.38
0.94
2.10
3.08
3.82
4.26
4.37
4.17
3.73
3.18
2.65
2.25
2.01
1.92
1.89
1.83
1.65
1.32
0.87
0.39
-0.01
-0.24
-0.30
-0.27
-0.26
-0.39
-0.71
-1.17
-1.74
-2.38
-3.12
-4.01
-5.06
-6.16
-7.11
-7.66
-7.62
-6.96
-5.78
-4.28
-2.67
-1.04
0.56
2.08
3.46
4.57
5.33
5.73
5.84
5.79
5.72
5.65
5.58
5.42
5.14
4.79
4.39
4.05
3.77
3.54
3.31
3.02
2.64
2.18
1.65
1.08
0.50
-0.09
-0.68
-1.25
-1.80
-2.29
-2.76
-3.25
-3.85
-4.60
-5.51
-6.47
-7.31
-7.84
-7.89
-7.39
-6.35
-4.87
-3.11
-1.27
0.48
2.01
3.25
4.20
4.89
5.33
5.55
5.59
5.49
5.33
5.16
5.01
4.86
4.65
4.34
3.95
3.52
3.14
2.84
2.63
2.42
2.12
1.69
1.12
0.48
-0.15
-0.75
-1.34
-1.95
-2.58
-3.17
-3.67
-4.04
-4.34
-4.71
-5.30
-6.14
-7.13
-8.03
-8.54
-8.44
-7.66
-6.31
-4.60
-2.78
-1.07
0.40
1.57
2.47
3.14
3.59
3.84
3.85
3.63
3.22
2.71
2.23
1.87
1.68
1.63
1.63
1.62
1.53
1.34
1.06
0.70
0.29
-0.14
-0.58
-1.01
-1.42
-1.79
-2.15
-2.48
-2.82
-3.20
-3.65
-4.20
-4.88
-5.64
-6.38
-6.95
-7.15
-6.83
-5.93
-4.53
-2.81
-0.99
0.73
2.24
3.50
4.53
5.33
5.90
6.20
6.23
6.06
5.76
5.46
5.21
4.99
4.75
4.41
3.97
3.46
3.00
2.67
2.51
2.43
2.33
2.08
1.62
0.96
0.18
-0.60
-1.29
-1.83
-2.21
-2.50
-2.80
-3.21
-3.82
-4.64
-5.60
-6.55
-7.32
-7.76
-7.72
-7.14
-6.01
-4.40
-2.47
-0.45
1.42
2.97
4.13
4.95
5.52
5.92
6.19
6.32
6.25
5.96
5.49
4.90
4.25
3.59
2.96
2.36
1.83
1.42
1.17
1.10
1.13
1.16
1.04
0.70
0.14
-0.54
-1.23
-1.85
-2.37
-2.85
-3.36
-3.93
-4.60
-5.32
-6.03
-6.65
-7.03
-7.04
-6.57
-5.62
-4.27
-2.70
-1.12
0.34
1.63
2.77
3.77
4.62
5.26
5.66
5.83
5.86
5.83
5.81
5.78
5.68
5.47
5.09
4.57
3.91
3.19
2.47
1.85
1.42
1.22
1.18
1.16
1.01
0.62
-0.03
-0.85
-1.71
-2.49
-3.13
-3.63
-4.09
-4.60
-5.27
-6.11
-7.06
-7.97
-8.62
-8.75
-8.18
-6.86
-4.89
-2.52
-0.08
2.10
3.81
4.95
5.55
5.76
5.75
5.69
5.68
5.74
5.83
5.85
5.71
5.38
4.88
4.26
3.60
2.97
2.37
1.83
1.34
0.94
0.67
0.56
0.56
0.59
0.49
0.14
-0.49
-1.31
-2.11
-2.70
-2.99
-3.03
-3.03
-3.22
-3.73
-4.52
-5.41
-6.14
-6.51
-6.40
-5.83
-4.90
-3.72
-2.40
-1.04
0.29
1.53
2.66
3.64
4.44
5.01
5.30
5.25
4.87
4.18
3.32
2.40
1.52
0.74
0.07
-0.52
-1.03
-1.47
-1.83
-2.09
-2.28
-2.40
-2.48
-2.54
-2.61
-2.77
-3.05
-3.49
-4.06
-4.69
-5.29
-5.81
-6.20
-6.46
-6.59
-6.50
-6.10
-5.29
-4.06
-2.50
-0.79
0.85
2.24
3.28
3.96
4.33
4.47
4.45
4.36
4.21
4.02
3.73
3.31
2.76
2.16
1.63
1.31
1.25
1.41
1.64
1.75
1.60
1.14
0.43
-0.43
-1.32
-2.17
-2.93
-3.61
-4.18
-4.65
-5.03
-5.35
-5.71
-6.13
-6.57
-6.88
-6.84
-6.24
-5.01
-3.24
-1.20
0.80
2.57
3.99
5.12
6.03
6.78
7.35
7.71
7.85
7.78
7.52
7.11
6.58
5.98
5.38
4.84
4.38
3.99
3.60
3.14
2.59
2.00
1.42
0.89
0.40
-0.14
-0.79
-1.58
-2.43
-3.24
-3.91
-4.45
-4.97
-5.62
-6.51
-7.58
-8.61
-9.26
-9.24
-8.41
-6.84
-4.79
-2.58
-0.52
1.22
2.54
3.46
4.02
4.26
4.28
4.16
4.01
3.91
3.88
3.89
3.84
3.65
3.26
2.67
1.94
1.15
0.40
-0.25
-0.76
-1.16
-1.47
-1.73
-1.93
-2.06
-2.09
-2.03
-1.94
-1.96
-2.22
-2.82
-3.79
-5.03
-6.36
-7.49
-8.09
-7.90
-6.81
-4.90
-2.44
0.19
2.61
4.57
5.96
6.83
7.26
7.33
7.09
6.61
5.97
5.30
4.70
4.23
3.88
3.57
3.23
2.82
2.39
1.98
1.61
1.26
0.86
0.37
-0.22
-0.83
-1.41
-1.92
-2.38
-2.86
-3.43
-4.16
-5.05
-6.07
-7.13
-8.12
-8.88
-9.28
-9.16
-8.41
-7.03
-5.11
-2.85
-0.50
1.66
3.42
4.69
5.50
5.95
6.22
6.41
6.57
6.68
6.68
6.53
6.22
5.80
5.32
4.83
4.35
3.90
3.49
3.10
2.72
2.29
1.77
1.11
0.34
-0.49
-1.31
-2.06
-2.79
-3.58
-4.49
-5.55
-6.68
-7.75
-8.58
-9.01
-8.92
-8.23
-6.92
-5.05
-2.76
-0.26
2.20
4.45
6.34
7.86
9.02
9.84
10.36
10.61
10.63
10.50
10.35
10.23
10.17
10.11
9.93
9.56
9.00
8.31
7.61
7.01
6.58
6.29
6.07
5.82
5.46
4.97
4.37
3.73
3.13
2.61
2.14
1.65
1.02
0.16
-0.92
-2.06
-2.96
-3.23
-2.52
-0.69
2.14
5.54
8.95
11.84
13.91
15.17
15.86
16.35
16.89
17.54
18.17
18.55
18.50
17.90
16.75
15.14
13.26
11.36
9.75
8.70
8.36
8.66
9.31
9.85
9.82
8.92
7.12
4.64
1.88
-0.79
-3.22
-5.53
-8.06
-11.17
-14.97
-19.21
-23.33
-26.75
-29.15
-30.63
-31.51
-32.16
-32.67
-32.82
-32.27
-30.81
-28.48
-25.57
-22.43
-19.30
-16.20
-13.00
-9.61
-6.07
-2.59
0.49
2.87
4.38
5.07
5.16
4.98
4.84
4.91
5.18
5.48
5.57
5.26
4.45
3.20
1.63
-0.06
-1.68
-3.07
-4.16
-4.94
-5.44
-5.75
-5.96
-6.17
-6.48
-6.98
-7.71
-8.66
-9.68
-10.58
-11.17
-11.29
-10.87
-9.92
-8.48
-6.62
-4.46
-2.18
-0.01
1.77
2.93
3.40
3.25
2.66
1.88
1.09
0.42
-0.10
-0.48
-0.76
-0.98
-1.16
-1.31
-1.42
-1.47
-1.47
-1.48
-1.54
-1.72
-2.02
-2.42
-2.82
-3.16
-3.44
-3.73
-4.15
-4.79
-5.66
-6.66
-7.57
-8.14
-8.11
-7.36
-5.89
-3.84
-1.46
1.00
3.34
5.45
7.26
8.71
9.73
10.30
10.46
10.33
10.08
9.80
9.54
9.24
8.81
8.19
7.35
6.38
5.37
4.47
3.78
3.31
3.01
2.76
2.41
1.91
1.26
0.54
-0.20
-0.96
-1.80
-2.79
-3.96
-5.24
-6.51
-7.65
-8.57
-9.19
-9.44
-9.22
-8.44
-7.06
-5.16
-2.95
-0.69
1.37
3.07
4.39
5.38
6.12
6.68
7.03
7.12
6.88
6.34
5.60
4.81
4.13
3.64
3.35
3.16
2.98
2.74
2.43
2.07
1.67
1.22
0.68
0.05
-0.65
-1.32
-1.88
-2.33
-2.71
-3.17
-3.84
-4.76
-5.91
-7.11
-8.12
-8.73
-8.73
-8.07
-6.77
-4.95
-2.81
-0.58
1.53
3.30
4.64
5.51
5.97
6.15
6.18
6.10
5.90
5.53
4.95
4.22
3.44
2.72
2.10
1.61
1.18
0.77
0.35
-0.07
-0.49
-0.91
-1.32
-1.76
-2.20
-2.66
-3.12
-3.62
-4.20
-4.91
-5.78
-6.78
-7.78
-8.62
-9.07
-8.96
-8.20
-6.82
-4.97
-2.85
-0.68
1.37
3.17
4.69
5.93
6.92
7.67
8.19
8.44
8.42
8.16
7.75
7.28
6.82
6.38
5.91
5.38
4.80
4.23
3.76
3.44
3.25
3.07
2.79
2.31
1.61
0.77
-0.11
-0.94
-1.66
-2.28
-2.84
-3.37
-3.92
-4.58
-5.43
-6.52
-7.78
-8.97
-9.74
-9.71
-8.67
-6.66
-3.96
-1.03
1.72
3.99
5.67
6.79
7.39
7.50
7.14
6.36
5.29
4.11
3.00
2.08
1.33
0.60
-0.27
-1.41
-2.78
-4.20
-5.45
-6.36
-6.98
-7.49
-8.13
-9.10
-10.39
-11.85
-13.26
-14.44
-15.32
-15.94
-16.40
-16.84
-17.40
-18.21
-19.35
-20.84
-22.55
-24.16
-25.19
-25.14
-23.69
-20.83
-16.85
-12.24
-7.46
-2.82
1.55
5.63
9.32
12.43
14.68
15.92
16.26
16.09
15.85
15.83
15.95
15.79
14.90
12.97
10.04
6.48
2.79
-0.63
-3.68
-6.66
-10.09
-14.53
-20.40
-27.81
-36.45
-45.67
-54.64
-62.56
-68.91
-73.59
-76.79
-79.07
-81.28
-84.27
-88.42
-93.20
-96.99
-97.44
-92.34
-80.26
-61.71
-38.99
-15.38
6.21
24.21
38.56
49.97
59.20
67.07
73.77
79.11
82.90
85.43
87.37
89.45
92.01
94.94
98.78
103.70
109.45
115.44
121.17
126.38
130.96
134.65
137.03
138.87
140.63
142.11
142.54
141.12
137.67
132.67
127.11
114.32
91.43
60.06
25.60
-6.50
-33.26
-53.92
-68.75
-78.40
-83.90
-85.37
-83.38
-79.07
-73.81
-68.76
-64.39
-60.84
-58.14
-56.34
-54.48
-51.78
-47.96
-43.36
-38.63
-34.44
-31.40
-30.05
-30.92
-33.57
-37.55
-42.52
-48.21
-54.10
-59.23
-62.40
-62.66
-59.68
-53.71
-45.78
-37.35
-29.82
-24.02
-20.17
-18.03
-17.28
-17.67
-18.89
-20.61
-22.47
-24.19
-25.70
-27.21
-29.00
-31.22
-33.58
-35.23
-34.91
-31.32
-23.66
-12.02
2.50
18.08
32.62
44.39
52.40
56.47
57.11
55.12
51.32
46.41
40.91
35.33
30.10
25.64
22.17
19.70
17.95
16.50
14.98
13.19
11.19
9.28
7.74
6.68
5.95
5.16
3.87
1.84
-0.87
-3.89
-6.75
-9.05
-10.69
-11.84
-12.88
-14.18
-16.00
-18.38
-21.09
-23.67
-25.40
-25.46
-23.10
-17.89
-9.96
-0.09
10.44
20.18
27.91
32.93
35.10
34.78
32.56
29.07
24.87
20.44
16.17
12.38
9.30
7.02
5.49
4.55
3.93
3.32
2.50
1.40
0.16
-0.95
-1.65
-1.88
-1.82
-1.86
-2.46
-3.86
-5.99
-8.49
-10.87
-12.74
-13.96
-14.67
-15.18
-15.87
-17.04
-18.82
-21.15
-23.66
-25.70
-26.44
-25.02
-20.82
-13.80
-4.54
5.75
15.59
23.64
29.05
31.66
31.89
30.45
28.04
25.12
21.91
18.52
15.11
11.93
9.31
7.44
6.33
5.76
5.38
4.89
4.15
3.20
2.22
1.43
0.94
0.71
0.57
0.27
-0.43
-1.66
-3.36
-5.35
-7.39
-9.22
-10.68
-11.75
-12.53
-13.22
-14.07
-15.30
-17.08
-19.36
-21.84
-23.90
-24.70
-23.38
-19.41
-12.87
-4.47
4.54
12.81
19.27
23.37
25.14
25.01
23.54
21.24
18.45
15.41
12.33
9.45
7.01
5.18
3.98
3.27
2.77
2.22
1.50
0.64
-0.17
-0.73
-0.93
-0.86
-0.78
-1.02
-1.85
-3.33
-5.32
-7.48
-9.43
-10.87
-11.73
-12.12
-12.35
-12.73
-13.52
-14.83
-16.61
-18.64
-20.50
-21.60
-21.24
-18.84
-14.11
-7.28
0.86
9.19
16.51
21.92
25.01
25.92
25.12
23.18
20.55
17.54
14.31
11.03
7.94
5.32
3.38
2.18
1.57
1.26
1.01
0.69
0.38
0.22
0.31
0.58
0.74
0.47
-0.46
-2.03
-3.95
-5.78
-7.15
-7.91
-8.23
-8.49
-9.15
-10.56
-12.79
-15.58
-18.31
-20.16
-20.29
-18.09
-13.40
-6.64
1.27
9.15
15.90
20.74
23.41
24.07
23.13
21.09
18.36
15.29
12.13
9.17
6.64
4.73
3.45
2.68
2.15
1.59
0.83
-0.12
-1.09
-1.81
-2.07
-1.88
-1.49
-1.31
-1.72
-2.91
-4.73
-6.77
-8.56
-9.73
-10.21
-10.20
-10.13
-10.42
-11.41
-13.23
-15.79
-18.71
-21.41
-23.07
-22.87
-20.19
-14.92
-7.59
0.76
8.79
15.37
19.86
22.21
22.83
22.29
21.05
19.34
17.26
14.91
12.46
10.19
8.35
7.03
6.17
5.52
4.85
4.01
3.00
1.95
1.07
0.49
0.24
0.18
0.07
-0.35
-1.21
-2.46
-3.89
-5.22
-6.22
-6.83
-7.16
-7.49
-8.09
-9.20
-10.87
-12.99
-15.31
-17.45
-18.94
-19.22
-17.82
-14.45
-9.23
-2.74
4.08
10.19
14.73
17.31
18.03
17.30
15.65
13.54
11.26
9.02
7.02
5.44
4.39
3.85
3.63
3.45
3.09
2.44
1.58
0.76
0.23
0.12
0.35
0.67
0.72
0.22
-0.91
-2.56
-4.39
-6.06
-7.28
-7.95
-8.17
-8.16
-8.24
-8.72
-9.78
-11.42
-13.43
-15.35
-16.63
-16.70
-15.20
-12.07
-7.59
-2.35
2.95
7.59
11.09
13.21
13.99
13.69
12.62
11.08
9.28
7.37
5.48
3.72
2.24
1.11
0.33
-0.19
-0.55
-0.84
-1.07
-1.22
-1.28
-1.31
-1.41
-1.69
-2.20
-2.88
-3.63
-4.28
-4.75
-5.06
-5.34
-5.81
-6.67
-8.07
-9.93
-12.02
-13.85
-14.88
-14.58
-12.61
-8.94
-3.90
1.86
7.54
12.32
15.64
17.28
17.39
16.42
14.84
13.10
11.41
9.85
8.36
6.90
5.46
4.08
2.83
1.76
0.85
0.10
-0.51
-0.96
-1.23
-1.38
-1.52
-1.84
-2.52
-3.62
-5.04
-6.55
-7.88
-8.86
-9.52
-10.12
-10.97
-12.31
-14.15
-16.12
-17.60
-17.85
-16.28
-12.63
-7.17
-0.61
6.07
11.92
16.23
18.70
19.43
18.76
17.12
14.95
12.57
10.26
8.21
6.55
5.32
4.46
3.83
3.22
2.46
1.48
0.38
-0.65
-1.36
-1.65
-1.61
-1.54
-1.78
-2.58
-3.93
-5.61
-7.27
-8.65
-9.65
-10.37
-11.06
-11.95
-13.20
-14.80
-16.58
-18.13
-18.87
-18.18
-15.58
-10.98
-4.79
2.12
8.73
14.14
17.84
19.70
19.94
18.89
16.94
14.47
11.85
9.40
7.35
5.73
4.42
3.20
1.86
0.35
-1.24
-2.72
-3.91
-4.76
-5.34
-5.88
-6.65
-7.94
-9.92
-12.52
-15.44
-18.26
-20.60
-22.30
-23.53
-24.74
-26.45
-29.08
-32.73
-37.11
-41.48
-44.90
-46.26
-44.60
-39.37
-30.58
-18.97
-5.88
7.04
18.25
26.68
31.94
34.23
34.19
32.60
30.14
27.31
24.42
21.65
19.10
16.87
14.99
13.45
12.17
11.10
10.14
9.26
8.39
7.47
6.40
5.05
3.32
1.20
-1.25
-3.86
-6.43
-8.81
-10.97
-13.04
-15.31
-18.02
-21.25
-24.67
-27.50
-28.62
-26.99
-22.03
-13.95
-3.78
6.92
16.55
23.95
28.58
30.56
30.32
28.39
25.20
21.09
16.39
11.49
6.80
2.62
-0.97
-4.21
-7.50
-11.22
-15.49
-20.07
-24.41
-27.89
-30.17
-31.39
-32.12
-33.15
-35.10
-38.09
-41.70
-45.11
-47.45
-48.11
-46.89
-44.01
-39.99
-35.48
-31.07
-27.14
-23.79
-20.70
-17.29
-12.89
-7.02
0.39
8.99
18.09
26.99
35.15
42.35
48.57
53.89
58.23
61.35
62.86
62.45
60.07
56.00
50.79
45.13
39.55
34.37
29.67
25.50
21.93
19.17
17.41
16.63
16.57
16.75
16.71
16.20
15.29
14.24
13.31
12.61
11.94
10.97
9.31
6.66
2.93
-1.72
-6.87
-11.74
-15.35
-16.71
-15.11
-10.42
-3.20
5.44
14.22
22.05
28.31
32.87
35.94
37.86
38.92
39.29
39.10
38.43
37.40
36.14
34.74
33.30
31.83
30.32
28.77
27.20
25.65
24.19
22.88
21.69
20.49
19.10
17.31
15.00
12.16
8.93
5.54
2.26
-0.69
-3.18
-5.16
-6.74
-8.10
-9.45
-10.94
-12.51
-13.92
-14.82
-14.87
-13.91
-12.02
-9.48
-6.61
-3.70
-0.92
1.61
3.74
5.26
5.96
5.69
4.54
2.92
1.44
0.74
1.27
3.14
6.10
9.61
13.06
15.97
18.14
19.59
20.40
20.54
19.83
18.08
15.21
11.35
6.84
2.18
-2.13
-5.72
-8.25
-9.42
-8.99
-7.01
-4.23
-1.76
-0.72
-1.85
-5.28
-10.55
-16.83
-23.23
-29.09
-34.67
-40.21
-45.61
-50.41
-54.15
-56.69
-58.24
-59.20
-59.92
-61.43
-64.10
-67.53
-70.80
-73.24
-74.79
-75.90
-77.19
-79.11
-82.97
-89.29
-97.38
-105.70
-112.65
-117.23
-119.11
-118.52
-109.62
-90.79
-65.20
-38.80
-16.07
1.69
15.05
24.72
30.84
34.07
33.96
30.98
26.91
24.19
24.76
29.35
37.05
46.43
56.05
63.93
69.04
71.42
71.76
70.73
68.60
65.43
61.41
56.98
52.12
47.03
42.10
37.75
34.12
30.98
27.88
24.53
20.88
16.79
12.40
8.03
4.04
0.61
-2.31
-4.90
-7.28
-9.48
-11.52
-13.35
-14.90
-16.05
-16.64
-16.44
-15.11
-12.21
-7.42
-0.76
7.36
16.05
24.25
30.95
35.46
37.55
37.39
35.40
32.10
27.97
23.43
18.83
14.48
10.66
7.50
5.03
3.10
1.45
-0.16
-1.91
-3.80
-5.70
-7.40
-8.76
-9.72
-10.38
-10.88
-11.31
-11.70
-12.05
-12.46
-13.22
-14.74
-17.37
-21.13
-25.47
-29.35
-31.46
-30.73
-26.64
-19.47
-10.17
-0.07
9.54
17.63
23.61
27.25
28.58
27.77
25.13
21.07
16.14
10.95
6.01
1.67
-1.98
-5.03
-7.65
-10.03
-12.28
-14.53
-16.94
-19.71
-23.01
-26.93
-31.41
-36.24
-41.10
-45.59
-49.20
-51.37
-51.46
-48.93
-43.52
-35.45
-25.50
-14.86
-4.82
3.56
9.80
14.08
17.03
19.46
22.04
25.11
28.64
32.43
36.12
39.34
41.63
42.56
41.88
39.63
36.25
32.49
29.10
26.52
24.74
23.36
21.88
19.98
17.60
14.95
12.31
9.86
7.64
5.60
3.65
1.73
-0.25
-2.39
-4.78
-7.37
-9.91
-11.78
-12.19
-10.38
-5.97
0.83
9.21
18.09
26.43
33.60
39.36
43.79
46.97
48.85
49.28
48.18
45.67
42.15
38.11
33.96
29.86
25.64
20.87
15.01
7.58
-1.61
-12.31
-23.74
-34.68
-43.73
-49.71
-52.01
-50.73
-46.70
-41.16
-35.36
-30.30
-26.52
-24.11
-22.87
-22.45
-22.48
-22.63
-22.65
-22.43
-22.04
-21.68
-21.62
-22.05
-22.91
-23.90
-24.58
-24.58
-23.75
-22.27
-20.51
-18.88
-17.62
-16.72
-15.95
-14.95
-13.48
-11.37
-8.66
-5.48
-2.05
1.41
4.66
7.52
9.84
11.55
12.62
13.06
12.82
11.87
10.15
7.69
4.71
1.67
-0.82
-2.06
-1.53
0.98
5.33
11.07
17.56
24.20
30.46
35.96
40.44
43.67
45.49
45.80
44.62
42.07
38.35
33.66
28.20
22.12
15.62
8.98
2.53
-3.35
-8.38
-12.37
-15.31
-17.27
-18.44
-19.00
-19.18
-19.17
-19.17
-19.32
-19.73
-20.36
-21.03
-21.46
-21.25
-20.00
-17.44
-13.46
-8.21
-2.07
4.39
10.59
15.98
20.19
22.98
24.32
24.27
23.02
20.83
18.02
14.94
11.89
9.10
6.68
4.63
2.86
1.24
-0.39
-2.15
-4.13
-6.34
-8.75
-11.24
-13.73
-16.13
-18.43
-20.66
-22.84
-24.88
-26.58
-27.55
-27.32
-25.46
-21.71
-16.12
-9.08
-1.30
6.42
13.32
18.95
23.11
25.86
27.34
27.67
26.89
25.01
22.16
18.63
14.78
10.99
7.50
4.34
1.43
-1.35
-4.03
-6.52
-8.65
-10.27
-11.31
-11.84
-12.05
-12.19
-12.50
-13.17
-14.25
-15.64
-17.07
-18.11
-18.28
-17.10
-14.26
-9.68
-3.66
3.24
10.26
16.63
21.73
25.19
26.94
27.10
25.95
23.78
20.90
17.61
14.20
10.96
8.11
5.85
4.20
3.06
2.15
1.14
-0.28
-2.23
-4.60
-7.13
-9.52
-11.58
-13.32
-14.88
-16.42
-17.96
-19.39
-20.49
-21.02
-20.71
-19.32
-16.62
-12.36
-6.51
0.68
8.55
16.18
22.64
27.30
30.02
31.15
31.29
31.00
30.58
29.99
28.97
27.12
24.12
19.74
13.94
6.86
-1.18
-9.59
-17.58
-24.24
-28.75
-30.59
-29.74
-26.72
-22.47
-18.13
-14.71
-12.87
-12.82
-14.32
-16.74
-19.25
-20.96
-21.06
-19.04
-14.73
-8.46
-0.96
6.75
13.57
18.57
21.19
21.34
19.40
16.06
12.15
8.35
5.09
2.52
0.57
-0.86
-1.81
-2.27
-2.27
-1.93
-1.46
-1.03
-0.64
-0.05
1.07
3.00
5.76
9.10
12.50
15.45
17.51
18.45
18.22
16.90
14.73
12.02
9.21
6.81
5.29
4.95
5.89
7.93
10.68
13.56
16.07
17.79
18.61
18.60
17.93
16.75
15.07
12.83
9.99
6.68
3.21
-0.02
-2.70
-4.77
-6.42
-7.91
-9.44
-10.99
-12.33
-13.21
-13.49
-13.22
-12.64
-12.04
-11.67
-11.72
-12.37
-13.75
-15.88
-18.55
-21.17
-22.88
-22.71
-19.96
-14.47
-6.72
2.23
11.04
18.44
23.46
25.61
24.87
21.66
16.67
10.75
4.72
-0.78
-5.39
-9.05
-11.95
-14.43
-16.80
-19.27
-21.88
-24.60
-27.39
-30.27
-33.38
-36.88
-40.94
-45.59
-50.67
-55.69
-59.84
-62.16
-61.75
-58.15
-51.56
-42.81
-33.09
-23.42
-14.30
-5.55
3.45
13.36
24.35
35.75
46.06
53.33
55.82
52.80
45.01
34.61
24.47
17.11
13.84
14.38
17.28
20.82
23.80
25.92
27.51
28.94
30.14
30.56
29.58
26.93
23.09
19.07
15.96
14.44
14.45
15.35
16.26
16.50
15.78
14.21
12.06
9.53
6.60
3.14
-0.98
-5.67
-10.66
-15.54
-19.90
-23.34
-25.54
-26.24
-25.30
-22.89
-19.49
-15.84
-12.73
-10.75
-10.16
-10.77
-12.05
-13.33
-14.16
-14.40
-14.32
-14.29
-14.56
-15.07
-15.41
-14.96
-13.28
-10.41
-6.81
-3.22
-0.04
2.78
5.67
9.13
13.53
18.81
24.42
29.54
33.20
34.86
34.31
31.49
26.65
20.79
15.23
11.21
9.51
9.89
12.01
15.22
18.64
21.55
24.19
27.06
30.55
34.61
38.18
41.03
43.18
44.71
45.84
47.55
50.55
54.94
60.14
64.65
68.53
72.62
77.79
78.64
70.95
53.29
28.22
5.09
-14.96
-32.44
-47.78
-62.15
-75.24
-85.56
-91.82
-93.42
-90.74
-85.69
-79.38
-72.68
-66.46
-61.30
-56.98
-52.97
-48.75
-44.16
-39.91
-36.02
-32.45
-29.37
-26.94
-24.96
-23.08
-20.91
-18.11
-14.79
-10.61
-5.34
0.84
7.34
13.48
18.57
22.11
23.90
23.87
22.55
20.65
18.89
17.79
17.65
18.44
19.83
21.37
22.57
23.23
23.35
23.04
22.34
21.16
19.35
16.76
13.34
9.18
4.44
-0.70
-6.04
-11.40
-16.55
-21.28
-25.43
-28.90
-31.62
-33.46
-34.21
-33.61
-31.44
-27.67
-22.54
-16.60
-10.52
-4.94
-0.27
3.29
5.77
7.22
7.68
7.13
5.62
3.32
0.57
-2.19
-4.56
-6.31
-7.47
-8.22
-8.80
-9.34
-9.86
-10.27
-10.42
-10.21
-9.64
-8.78
-7.81
-6.91
-6.32
-6.20
-6.74
-8.02
-10.04
-12.54
-15.03
-16.80
-17.08
-15.38
-11.64
-6.32
-0.25
5.65
10.67
14.48
17.06
18.54
19.08
18.74
17.54
15.56
12.97
10.08
7.25
4.79
2.93
1.73
1.09
0.80
0.55
0.11
-0.66
-1.74
-3.04
-4.43
-5.83
-7.27
-8.85
-10.68
-12.88
-15.50
-18.50
-21.71
-24.71
-26.95
-27.78
-26.70
-23.62
-18.98
-13.62
-8.59
-4.74
-2.47
-1.66
-1.79
-2.19
-2.26
-1.66
-0.32
1.64
3.97
6.41
8.70
10.65
12.17
13.23
13.90
14.25
14.38
14.36
14.21
13.96
13.59
13.08
12.36
11.36
10.04
8.44
6.63
4.67
2.61
0.43
-1.86
-4.08
-5.84
-6.58
-5.80
-3.29
0.75
5.68
10.69
15.02
18.16
19.91
20.33
19.64
18.12
16.13
14.04
12.21
10.94
10.34
10.29
10.45
10.35
9.60
8.04
5.79
3.22
0.77
-1.25
-2.78
-3.94
-4.97
-6.01
-7.09
-8.07
-8.81
-9.29
-9.59
-9.95
-10.58
-11.61
-12.95
-14.27
-15.06
-14.80
-13.07
-9.73
-4.98
0.72
6.74
12.44
17.33
21.14
23.77
25.24
25.63
25.05
23.60
21.45
18.84
16.06
13.37
11.01
9.03
7.40
5.94
4.52
3.06
1.62
0.33
-0.68
-1.36
-1.73
-1.83
-1.73
-1.46
-1.11
-0.83
-0.89
-1.52
-2.88
-4.89
-7.33
-9.88
-12.30
-14.42
-16.10
-17.09
-17.09
-15.76
-13.01
-9.12
-4.77
-0.83
1.93
3.08
2.63
0.95
-1.42
-4.00
-6.40
-8.46
-10.05
-11.11
-11.55
-11.27
-10.23
-8.49
-6.32
-4.09
-2.25
-1.14
-0.90
-1.44
-2.48
-3.67
-4.72
-5.49
-5.96
-6.19
-6.29
-6.37
-6.57
-7.08
-8.07
-9.57
-11.36
-12.93
-13.59
-12.70
-9.99
-5.68
-0.50
4.58
8.68
11.23
12.10
11.53
9.96
7.88
5.74
3.85
2.39
1.43
0.90
0.65
0.55
0.52
0.56
0.67
0.85
1.04
1.10
0.95
0.53
-0.10
-0.84
-1.54
-2.15
-2.68
-3.22
-3.93
-4.96
-6.41
-8.28
-10.36
-12.31
-13.60
-13.70
-12.17
-8.89
-4.11
1.57
7.36
12.48
16.40
18.91
20.11
20.24
19.57
18.31
16.53
14.29
11.71
8.97
6.33
4.06
2.33
1.15
0.38
-0.17
-0.67
-1.18
-1.68
-2.08
-2.32
-2.40
-2.41
-2.44
-2.60
-2.99
-3.73
-4.91
-6.58
-8.61
-10.68
-12.32
-12.98
-12.24
-9.90
-6.12
-1.36
3.76
8.54
12.42
15.02
16.24
16.18
15.10
13.31
11.07
8.58
6.00
3.48
1.19
-0.67
-1.99
-2.72
-2.98
-2.97
-2.91
-2.94
-3.12
-3.40
-3.66
-3.85
-3.93
-3.98
-4.09
-4.43
-5.10
-6.16
-7.53
-9.00
-10.24
-10.83
-10.37
-8.64
-5.61
-1.59
2.89
7.22
10.84
13.40
14.76
15.03
14.36
12.94
10.88
8.32
5.42
2.45
-0.25
-2.37
-3.70
-4.21
-4.07
-3.56
-2.96
-2.48
-2.16
-1.91
-1.62
-1.22
-0.75
-0.34
-0.16
-0.30
-0.79
-1.60
-2.67
-3.88
-5.06
-5.91
-6.04
-5.07
-2.82
0.58
4.66
8.77
12.25
14.68
15.90
16.02
15.27
13.85
11.93
9.64
7.08
4.46
1.98
-0.15
-1.79
-2.97
-3.80
-4.45
-5.05
-5.63
-6.12
-6.43
-6.52
-6.42
-6.22
-6.07
-6.08
-6.36
-6.99
-8.01
-9.34
-10.80
-12.04
-12.63
-12.20
-10.59
-7.92
-4.51
-0.81
2.78
5.94
8.52
10.36
11.36
11.46
10.63
9.00
6.79
4.32
1.92
-0.16
-1.80
-3.00
-3.84
-4.44
-4.86
-5.18
-5.41
-5.55
-5.60
-5.55
-5.42
-5.24
-5.11
-5.15
-5.48
-6.20
-7.28
-8.57
-9.75
-10.46
-10.34
-9.15
-6.82
-3.50
0.48
4.63
8.41
11.35
13.15
13.71
13.13
11.62
9.43
6.83
4.10
1.49
-0.74
-2.43
-3.52
-4.09
-4.34
-4.47
-4.63
-4.80
-4.92
-4.88
-4.66
-4.34
-4.05
-3.95
-4.13
-4.63
-5.48
-6.66
-8.03
-9.30
-9.99
-9.60
-7.80
-4.59
-0.38
4.17
8.35
11.69
13.95
15.14
15.33
14.60
12.99
10.60
7.65
4.51
1.58
-0.77
-2.33
-3.08
-3.21
-2.96
-2.61
-2.35
-2.23
-2.22
-2.25
-2.29
-2.35
-2.51
-2.90
-3.60
-4.68
-6.08
-7.65
-9.09
-9.96
-9.83
-8.40
-5.61
-1.78
2.54
6.71
10.22
12.82
14.47
15.20
15.07
14.05
12.16
9.51
6.41
3.29
0.64
-1.19
-2.10
-2.20
-1.79
-1.20
-0.71
-0.45
-0.45
-0.65
-0.97
-1.36
-1.79
-2.31
-2.96
-3.80
-4.90
-6.26
-7.78
-9.17
-9.99
-9.79
-8.26
-5.40
-1.53
2.77
6.88
10.32
12.77
14.15
14.50
13.89
12.44
10.30
7.72
4.99
2.47
0.47
-0.84
-1.45
-1.52
-1.32
-1.11
-1.08
-1.26
-1.58
-1.92
-2.19
-2.39
-2.60
-2.93
-3.49
-4.35
-5.54
-7.00
-8.54
-9.87
-10.60
-10.36
-8.94
-6.37
-2.96
0.77
4.31
7.23
9.31
10.44
10.64
9.92
8.38
6.16
3.54
0.89
-1.42
-3.12
-4.11
-4.43
-4.26
-3.81
-3.28
-2.79
-2.43
-2.19
-2.04
-1.95
-1.92
-2.02
-2.36
-3.03
-4.08
-5.46
-6.99
-8.36
-9.21
-9.17
-8.00
-5.67
-2.39
1.43
5.24
8.51
10.86
12.11
12.28
11.53
10.07
8.08
5.78
3.36
1.10
-0.71
-1.85
-2.24
-2.00
-1.43
-0.89
-0.65
-0.77
-1.12
-1.45
-1.54
-1.38
-1.14
-1.18
-1.80
-3.13
-5.04
-7.14
-8.92
-9.91
-9.80
-8.46
-5.96
-2.59
1.23
5.01
8.27
10.67
12.04
12.42
11.98
10.91
9.39
7.53
5.46
3.34
1.41
-0.08
-0.96
-1.17
-0.85
-0.26
0.28
0.51
0.31
-0.23
-0.92
-1.54
-1.99
-2.30
-2.64
-3.20
-4.11
-5.34
-6.69
-7.88
-8.56
-8.42
-7.29
-5.20
-2.33
0.99
4.38
7.50
10.07
11.88
12.79
12.72
11.66
9.73
7.23
4.55
2.13
0.34
-0.64
-0.84
-0.47
0.16
0.75
1.08
1.06
0.73
0.19
-0.42
-0.97
-1.43
-1.85
-2.36
-3.14
-4.31
-5.88
-7.68
-9.34
-10.46
-10.64
-9.68
-7.60
-4.63
-1.16
2.39
5.60
8.17
9.89
10.65
10.48
9.47
7.83
5.78
3.57
1.44
-0.41
-1.80
-2.64
-2.92
-2.72
-2.25
-1.74
-1.42
-1.42
-1.73
-2.26
-2.87
-3.44
-3.94
-4.40
-4.89
-5.49
-6.24
-7.14
-8.10
-8.91
-9.26
-8.82
-7.33
-4.73
-1.22
2.73
6.57
9.75
11.92
12.91
12.76
11.63
9.77
7.46
5.02
2.76
0.92
-0.30
-0.85
-0.83
-0.49
-0.12
-0.01
-0.28
-0.90
-1.68
-2.42
-3.03
-3.55
-4.14
-4.97
-6.12
-7.54
-9.13
-10.76
-12.25
-13.40
-13.92
-13.53
-12.02
-9.42
-5.99
-2.20
1.40
4.35
6.42
7.56
7.91
7.63
6.89
5.83
4.58
3.33
2.25
1.55
1.32
1.54
2.04
2.56
2.84
2.75
2.30
1.57
0.68
-0.30
-1.36
-2.47
-3.59
-4.61
-5.47
-6.11
-6.55
-6.76
-6.66
-6.03
-4.61
-2.22
1.11
5.09
9.24
13.08
16.21
18.42
19.61
19.77
18.90
17.02
14.31
11.05
7.70
4.74
2.54
1.27
0.89
1.19
1.87
2.71
3.56
4.36
5.11
5.81
6.39
6.78
6.88
6.66
6.12
5.37
4.50
3.60
2.67
1.69
0.69
-0.13
-0.43
0.17
1.97
4.96
8.86
13.17
17.32
20.86
23.52
25.22
26.01
26.04
25.58
25.00
24.74
25.25
26.80
29.43
32.86
36.63
40.22
43.14
45.10
46.04
46.11
45.68
45.29
45.47
46.60
48.71
51.47
54.21
56.16
56.71
55.54
52.73
48.59
43.58
38.18
32.83
27.89
23.57
19.87
16.53
13.05
8.86
3.52
-3.09
-10.73
-18.85
-26.83
-34.13
-40.45
-45.81
-50.43
-54.59
-58.46
-62.00
-64.95
-67.01
-68.02
-68.15
-67.86
-67.74
-68.17
-69.15
-70.32
-71.13
-71.15
-70.29
-68.86
-67.36
-66.26
-65.90
-66.36
-67.49
-68.83
-69.63
-68.84
-65.40
-58.60
-48.46
-35.89
-22.47
-9.93
0.41
7.95
12.83
15.56
16.75
16.81
16.01
14.58
12.90
11.42
10.59
10.63
11.45
12.60
13.55
13.88
13.46
12.54
11.61
11.12
11.26
11.81
12.27
12.03
10.69
8.21
4.97
1.53
-1.59
-4.08
-5.99
-7.62
-9.41
-11.76
-14.99
-19.21
-24.28
-29.72
-34.65
-37.89
-38.24
-34.90
-27.84
-17.94
-6.77
3.98
12.98
19.62
23.96
26.46
27.62
27.79
27.18
25.95
24.40
22.87
21.69
20.97
20.59
20.25
19.64
18.58
17.11
15.52
14.12
13.13
12.52
12.01
11.16
9.64
7.34
4.43
1.33
-1.55
-3.94
-5.80
-7.33
-8.86
-10.65
-12.79
-15.15
-17.45
-19.36
-20.69
-21.44
-21.86
-22.35
-23.29
-24.96
-27.35
-30.05
-32.17
-32.39
-29.28
-21.72
-9.39
6.95
25.53
44.09
60.53
73.35
81.85
85.98
86.03
82.44
75.77
66.77
56.47
46.03
36.50
28.47
22.05
16.82
12.19
7.62
2.90
-1.83
-6.14
-9.57
-11.88
-13.20
-14.05
-15.22
-17.43
-21.12
-26.27
-32.40
-38.80
-44.73
-49.74
-53.71
-56.87
-59.63
-62.29
-64.94
-67.31
-68.93
-69.31
-68.19
-65.70
-62.35
-58.88
-56.07
-54.54
-54.66
-56.48
-59.56
-62.95
-65.21
-64.73
-60.27
-51.48
-39.14
-25.02
-11.23
0.46
9.04
14.34
16.70
16.51
14.08
9.61
3.46
-3.65
-10.68
-16.59
-20.63
-22.58
-22.73
-21.67
-20.01
-18.22
-16.62
-15.40
-14.73
-14.74
-15.44
-16.70
-18.23
-19.75
-21.01
-21.84
-22.05
-21.33
-19.25
-15.42
-9.83
-3.00
4.03
9.99
13.83
15.10
14.00
11.21
7.59
3.91
0.81
-1.18
-1.45
0.60
5.40
12.94
22.62
33.32
43.66
52.42
58.85
62.83
64.72
65.16
64.75
63.86
62.62
60.99
58.93
56.47
53.78
51.07
48.50
46.18
44.12
42.27
40.62
39.17
37.92
36.90
36.10
35.48
35.03
34.74
34.66
34.87
35.46
36.43
37.74
39.16
40.38
41.02
40.63
38.72
34.82
28.54
19.74
8.72
-3.81
-16.80
-29.18
-40.06
-48.84
-55.14
-58.58
-58.78
-55.51
-48.91
-39.71
-29.12
-18.50
-8.92
-0.87
5.69
11.06
15.51
19.11
21.75
23.32
23.88
23.61
22.83
21.83
20.78
19.70
18.54
17.26
15.89
14.51
13.20
12.02
11.03
10.22
9.54
8.90
8.24
7.60
7.03
6.54
6.14
5.92
5.87
5.97
6.15
6.38
6.76
7.29
7.55
7.14
5.78
3.27
-0.39
-4.85
-9.45
-12.95
-14.25
-13.03
-9.12
-2.50
6.33
16.46
26.73
35.92
43.51
49.00
51.32
50.31
46.85
42.17
37.60
34.27
32.86
34.19
38.28
43.46
48.41
52.31
54.30
53.52
49.32
37.31
16.47
-5.39
-24.85
-42.19
-57.02
-69.11
-78.32
-84.62
-88.17
-88.83
-87.21
-85.55
-85.41
-87.18
-90.48
-94.30
-97.21
-97.78
-94.42
-86.25
-74.08
-58.92
-41.77
-24.02
-7.16
7.52
19.17
27.79
33.71
36.97
38.05
37.80
36.94
36.00
35.20
34.51
33.92
33.30
32.36
31.08
29.71
28.52
27.69
27.28
27.13
27.01
26.50
24.97
21.92
17.09
10.56
2.76
-5.68
-14.06
-21.85
-28.77
-34.70
-39.63
-43.40
-45.67
-45.98
-43.84
-39.04
-31.72
-22.49
-12.30
-2.23
6.77
14.03
19.28
22.59
24.22
24.52
23.84
22.52
20.89
19.31
18.05
17.24
16.84
16.57
16.11
15.17
13.69
11.80
9.78
7.89
6.23
4.75
3.28
1.67
-0.12
-1.99
-3.81
-5.46
-6.95
-8.38
-9.94
-11.82
-14.14
-16.93
-20.01
-22.99
-25.23
-25.95
-24.49
-20.51
-14.25
-6.45
1.76
9.28
15.30
19.46
21.85
22.74
22.48
21.36
19.60
17.45
15.13
12.89
10.90
9.23
7.85
6.73
5.79
4.97
4.27
3.64
3.06
2.47
1.78
0.86
-0.40
-2.07
-4.06
-6.22
-8.32
-10.25
-12.03
-13.91
-16.23
-19.21
-22.73
-26.25
-28.89
-29.71
-28.01
-23.66
-17.11
-9.30
-1.35
5.74
11.32
15.15
17.28
17.93
17.39
15.96
14.00
11.86
9.89
8.33
7.26
6.64
6.28
6.01
5.66
5.13
4.37
3.34
2.06
0.62
-0.80
-2.03
-2.91
-3.46
-3.80
-4.18
-4.85
-6.03
-7.87
-10.45
-13.75
-17.58
-21.45
-24.62
-26.21
-25.50
-22.25
-16.80
-10.03
-3.07
3.04
7.59
10.27
11.17
10.57
8.91
6.70
4.47
2.64
1.47
0.99
1.04
1.34
1.62
1.70
1.49
1.04
0.40
-0.34
-1.11
-1.87
-2.57
-3.24
-3.88
-4.51
-5.16
-5.85
-6.64
-7.62
-8.91
-10.59
-12.63
-14.80
-16.67
-17.65
-17.14
-14.70
-10.27
-4.19
2.84
9.95
16.29
21.24
24.51
26.11
26.28
25.37
23.69
21.51
19.06
16.56
14.25
12.29
10.80
9.73
8.94
8.23
7.45
6.54
5.54
4.51
3.47
2.40
1.23
-0.04
-1.39
-2.70
-3.90
-4.95
-5.93
-7.01
-8.40
-10.25
-12.58
-15.20
-17.70
-19.46
-19.83
-18.29
-14.61
-9.02
-2.15
5.13
11.89
17.41
21.30
23.48
24.15
23.60
22.14
20.08
17.70
15.25
13.00
11.14
9.81
9.08
8.93
9.34
10.25
11.55
13.11
14.76
16.35
17.82
19.20
20.59
22.07
23.65
25.24
26.66
27.70
28.11
27.56
25.66
21.98
16.30
8.75
-0.05
-9.09
-17.28
-23.79
-28.35
-31.25
-33.12
-34.65
-36.29
-38.21
-40.33
-42.49
-44.48
-46.07
-46.98
-46.83
-45.20
-41.82
-36.71
-30.24
-23.04
-15.82
-9.23
-3.64
0.81
4.15
6.50
8.04
8.94
9.41
9.64
9.75
9.73
9.45
8.65
7.08
4.53
1.01
-3.22
-7.53
-10.99
-12.55
-11.37
-7.14
-0.24
8.25
16.94
24.45
29.81
32.55
32.71
30.64
26.86
21.95
16.55
11.25
6.60
2.96
0.46
-0.96
-1.44
-1.12
-0.02
1.87
4.56
7.96
11.82
15.77
19.51
22.85
25.80
28.52
31.27
34.27
37.64
41.28
44.82
47.58
48.65
47.09
42.29
34.18
23.38
11.05
-1.44
-12.91
-22.62
-30.41
-36.58
-41.70
-46.49
-51.60
-57.60
-64.86
-73.41
-82.97
-92.86
-102.08
-109.40
-113.56
-113.48
-108.66
-99.32
-86.47
-71.68
-56.65
-42.78
-30.89
-21.23
-13.70
-8.13
-4.49
-2.89
-3.38
-5.76
-9.48
-13.65
-17.30
-19.63
-20.16
-18.89
-16.06
-12.02
-6.99
-0.97
6.09
14.09
22.60
30.82
37.88
43.05
46.08
47.19
46.92
45.86
44.43
42.79
40.93
38.81
36.53
34.27
32.24
30.58
29.27
28.18
27.11
25.93
24.56
23.01
21.36
19.67
17.99
16.32
14.67
13.00
11.26
9.41
7.39
5.20
2.84
0.36
-2.18
-4.59
-6.62
-7.87
-7.88
-6.30
-3.04
1.64
7.15
12.69
17.49
21.03
23.06
23.61
22.88
21.10
18.52
15.38
11.94
8.52
5.43
2.93
1.17
0.16
-0.22
-0.13
0.24
0.72
1.17
1.47
1.53
1.29
0.76
-0.07
-1.11
-2.28
-3.49
-4.65
-5.78
-6.93
-8.27
-9.95
-11.97
-14.14
-15.97
-16.84
-16.16
-13.62
-9.36
-3.91
1.93
7.31
11.60
14.44
15.78
15.79
14.69
12.73
10.12
7.10
3.94
0.95
-1.55
-3.35
-4.35
-4.62
-4.37
-3.82
-3.22
-2.72
-2.45
-2.43
-2.69
-3.21
-3.89
-4.63
-5.34
-5.95
-6.48
-7.05
-7.80
-8.83
-10.10
-11.37
-12.20
-12.10
-10.66
-7.74
-3.56
1.36
6.28
10.48
13.48
15.07
15.39
14.75
13.51
11.88
9.96
7.76
5.32
2.82
0.55
-1.15
-2.06
-2.20
-1.79
-1.20
-0.80
-0.83
-1.33
-2.18
-3.18
-4.14
-4.93
-5.58
-6.15
-6.79
-7.58
-8.58
-9.81
-11.25
-12.80
-14.19
-14.97
-14.54
-12.37
-8.28
-2.57
3.91
10.09
14.97
17.93
18.88
18.10
16.06
13.23
10.01
6.68
3.52
0.82
-1.13
-2.18
-2.29
-1.64
-0.53
0.64
1.57
2.04
2.02
1.60
0.96
0.26
-0.41
-1.08
-1.84
-2.80
-4.02
-5.55
-7.36
-9.47
-11.82
-14.20
-16.22
-17.30
-16.83
-14.44
-10.17
-4.53
1.63
7.37
11.99
15.11
16.71
16.99
16.21
14.65
12.54
10.13
7.67
5.41
3.57
2.27
1.57
1.43
1.75
2.37
3.06
3.60
3.77
3.45
2.69
1.62
0.46
-0.63
-1.60
-2.52
-3.51
-4.72
-6.21
-7.94
-9.76
-11.43
-12.58
-12.81
-11.73
-9.14
-5.12
-0.12
5.19
10.06
13.86
16.28
17.26
17.01
15.81
13.93
11.60
9.07
6.57
4.39
2.74
1.74
1.32
1.31
1.44
1.52
1.45
1.21
0.85
0.43
-0.04
-0.61
-1.32
-2.19
-3.21
-4.32
-5.47
-6.62
-7.81
-9.09
-10.54
-12.12
-13.61
-14.61
-14.64
-13.27
-10.34
-6.06
-1.03
4.00
8.29
11.33
12.92
13.17
12.33
10.72
8.62
6.26
3.87
1.64
-0.23
-1.57
-2.33
-2.56
-2.43
-2.11
-1.80
-1.61
-1.58
-1.71
-1.97
-2.33
-2.80
-3.40
-4.17
-5.12
-6.23
-7.47
-8.78
-10.12
-11.48
-12.79
-13.86
-14.33
-13.80
-11.90
-8.53
-3.98
1.17
6.13
10.23
13.03
14.40
14.48
13.50
11.74
9.46
6.90
4.32
1.98
0.11
-1.13
-1.68
-1.61
-1.08
-0.33
0.38
0.84
0.92
0.62
0.01
-0.79
-1.67
-2.60
-3.58
-4.66
-5.90
-7.34
-9.02
-10.88
-12.76
-14.34
-15.17
-14.72
-12.63
-8.84
-3.73
1.96
7.35
11.73
14.71
16.27
16.62
16.00
14.61
12.55
9.99
7.16
4.45
2.21
0.69
-0.06
-0.19
0.07
0.45
0.79
0.95
0.88
0.53
-0.09
-0.94
-1.91
-2.88
-3.77
-4.57
-5.39
-6.39
-7.73
-9.42
-11.26
-12.90
-13.82
-13.55
-11.79
-8.50
-3.97
1.26
6.52
11.17
14.74
17.00
17.96
17.73
16.52
14.56
12.12
9.51
7.06
5.03
3.54
2.56
1.94
1.52
1.22
1.04
0.99
1.03
1.03
0.83
0.31
-0.51
-1.53
-2.62
-3.67
-4.69
-5.73
-6.89
-8.23
-9.77
-11.47
-13.18
-14.61
-15.35
-14.94
-13.06
-9.65
-5.01
0.23
5.31
9.54
12.44
13.83
13.81
12.62
10.59
8.09
5.43
2.89
0.71
-0.96
-2.02
-2.48
-2.41
-1.97
-1.36
-0.80
-0.49
-0.58
-1.07
-1.90
-2.89
-3.87
-4.72
-5.41
-5.98
-6.53
-7.12
-7.79
-8.60
-9.60
-10.77
-11.94
-12.74
-12.64
-11.12
-7.95
-3.31
2.15
7.56
12.11
15.25
16.81
16.95
15.93
14.04
11.57
8.80
6.01
3.55
1.70
0.59
0.24
0.48
1.07
1.77
2.34
2.63
2.54
2.07
1.26
0.19
-1.02
-2.27
-3.45
-4.49
-5.39
-6.25
-7.22
-8.50
-10.17
-12.07
-13.80
-14.76
-14.35
-12.25
-8.54
-3.72
1.51
6.44
10.53
13.47
15.18
15.67
15.06
13.52
11.33
8.81
6.33
4.21
2.63
1.67
1.26
1.27
1.56
1.97
2.35
2.60
2.57
2.20
1.47
0.41
-0.86
-2.17
-3.39
-4.41
-5.25
-5.98
-6.79
-7.82
-9.15
-10.72
-12.25
-13.35
-13.53
-12.38
-9.70
-5.62
-0.55
4.83
9.84
13.89
16.60
17.86
17.76
16.50
14.41
11.84
9.16
6.72
4.79
3.46
2.72
2.41
2.36
2.40
2.42
2.36
2.19
1.87
1.37
0.68
-0.21
-1.28
-2.45
-3.64
-4.71
-5.58
-6.25
-6.81
-7.45
-8.39
-9.77
-11.55
-13.44
-14.90
-15.32
-14.19
-11.30
-6.88
-1.57
3.81
8.44
11.77
13.53
13.78
12.77
10.85
8.39
5.71
3.10
0.79
-1.06
-2.37
-3.09
-3.25
-2.92
-2.28
-1.54
-0.93
-0.62
-0.64
-0.95
-1.42
-1.95
-2.54
-3.23
-4.06
-5.01
-5.99
-6.90
-7.73
-8.57
-9.56
-10.74
-11.94
-12.72
-12.54
-10.96
-7.89
-3.64
1.17
5.84
9.81
12.75
14.56
15.28
14.98
13.75
11.76
9.26
6.59
4.11
2.14
0.81
0.16
0.07
0.39
0.94
1.54
2.05
2.34
2.29
1.85
1.01
-0.15
-1.50
-2.85
-4.04
-5.03
-5.85
-6.66
-7.61
-8.80
-10.20
-11.61
-12.67
-12.93
-12.00
-9.66
-5.94
-1.17
4.06
9.05
13.10
15.77
16.86
16.53
15.14
13.12
10.89
8.73
6.79
5.15
3.84
2.92
2.45
2.47
2.90
3.58
4.24
4.65
4.64
4.16
3.30
2.22
1.08
-0.02
-1.07
-2.11
-3.17
-4.26
-5.38
-6.54
-7.80
-9.26
-10.89
-12.47
-13.58
-13.62
-12.11
-8.89
-4.23
1.16
6.40
10.67
13.49
14.74
14.62
13.47
11.63
9.34
6.77
4.11
1.59
-0.51
-2.01
-2.83
-3.03
-2.84
-2.50
-2.19
-2.00
-1.95
-2.03
-2.24
-2.64
-3.28
-4.17
-5.28
-6.50
-7.68
-8.71
-9.52
-10.14
-10.70
-11.32
-12.04
-12.64
-12.71
-11.69
-9.09
-4.75
1.06
7.70
14.39
20.41
25.33
29.06
31.72
33.53
34.70
35.40
35.80
36.19
36.89
38.24
40.53
43.92
48.37
53.71
59.62
65.62
71.13
75.50
78.15
78.70
77.08
73.53
68.58
62.79
56.63
50.28
43.65
36.45
28.40
19.43
9.74
-0.10
-9.28
-16.95
-22.43
-25.36
-25.85
-24.38
-21.72
-18.65
-15.76
-13.42
-11.80
-11.00
-11.22
-12.72
-15.78
-20.46
-26.53
-33.45
-40.52
-47.09
-52.71
-57.28
-60.93
-63.97
-66.66
-69.20
-71.61
-73.89
-76.06
-78.31
-80.93
-84.25
-88.48
-93.59
-99.34
-105.41
-111.52
-117.34
-122.32
-125.42
-125.17
-120.13
-109.52
-93.81
-74.77
-54.83
-36.21
-20.14
-6.67
4.83
15.03
24.13
31.96
38.45
44.00
49.56
56.16
64.28
73.53
82.82
90.93
97.00
100.81
102.59
102.61
100.90
97.20
91.30
83.31
73.82
63.72
53.91
44.91
36.80
29.33
22.18
15.22
8.55
2.41
-2.88
-7.00
-9.64
-10.50
-9.38
-6.37
-1.93
3.14
7.88
11.41
13.16
12.86
10.55
6.37
0.52
-6.74
-15.01
-23.84
-32.77
-41.42
-49.55
-57.05
-63.87
-69.98
-75.27
-79.57
-82.67
-84.36
-84.55
-83.29
-80.80
-77.43
-73.57
-69.58
-65.78
-62.43
-59.72
-57.66
-55.99
-54.16
-51.42
-47.06
-40.72
-32.57
-23.29
-13.87
-5.30
1.63
6.48
9.09
9.56
8.20
5.52
2.28
-0.66
-2.50
-2.62
-0.81
2.76
7.54
12.81
17.85
22.16
25.48
27.82
29.40
30.48
31.28
31.93
32.50
32.99
33.38
33.63
33.65
33.32
32.46
30.95
28.78
26.13
23.39
21.14
19.95
20.27
22.17
25.30
28.97
32.35
34.78
35.96
35.93
34.98
33.37
31.28
28.78
25.99
23.17
20.68
18.86
17.82
17.39
17.15
16.67
15.69
14.22
12.48
10.78
9.30
8.04
6.86
5.59
4.09
2.33
0.39
-1.61
-3.60
-5.58
-7.63
-9.83
-12.21
-14.59
-16.58
-17.67
-17.38
-15.46
-11.99
-7.42
-2.44
2.25
6.09
8.77
10.24
10.63
10.15
8.98
7.32
5.35
3.30
1.46
0.12
-0.51
-0.37
0.40
1.54
2.75
3.78
4.49
4.85
4.92
4.76
4.41
3.88
3.19
2.35
1.37
0.22
-1.13
-2.68
-4.38
-5.98
-7.14
-7.41
-6.45
-4.16
-0.71
3.40
7.56
11.15
13.72
15.08
15.27
14.49
13.01
11.12
9.09
7.17
5.57
4.47
3.97
4.06
4.57
5.23
5.71
5.75
5.27
4.38
3.30
2.25
1.37
0.64
-0.09
-0.93
-1.91
-2.96
-3.97
-4.91
-5.75
-6.49
-6.97
-6.87
-5.80
-3.47
0.08
4.42
8.87
12.68
15.36
16.78
17.10
16.62
15.62
14.26
12.63
10.80
8.88
7.06
5.55
4.48
3.91
3.71
3.69
3.59
3.24
2.61
1.82
1.10
0.63
0.50
0.63
0.90
1.20
1.52
1.95
2.51
3.17
3.80
4.28
4.62
5.02
5.75
7.05
8.98
11.38
13.93
16.32
18.35
19.91
21.00
21.57
21.51
20.61
18.70
15.67
11.57
6.65
1.27
-4.14
-9.20
-13.68
-17.52
-20.89
-23.98
-26.99
-29.95
-32.71
-34.96
-36.38
-36.73
-35.94
-34.18
-31.76
-29.04
-26.40
-24.07
-22.18
-20.64
-19.23
-17.60
-15.36
-12.21
-8.05
-3.03
2.41
7.70
12.25
15.61
17.58
18.22
17.77
16.55
14.87
12.99
11.10
9.36
7.89
6.80
6.18
6.00
6.16
6.47
6.71
6.69
6.34
5.67
4.78
3.73
2.59
1.32
-0.13
-1.74
-3.43
-5.02
-6.35
-7.38
-8.18
-8.92
-9.64
-10.20
-10.22
-9.26
-7.00
-3.44
1.06
5.88
10.37
14.07
16.77
18.44
19.18
19.08
18.20
16.58
14.38
11.80
9.10
6.55
4.29
2.36
0.68
-0.81
-2.13
-3.18
-3.85
-4.07
-3.94
-3.73
-3.79
-4.49
-6.08
-8.61
-11.89
-15.49
-18.81
-21.18
-21.94
-20.60
-16.89
-10.91
-3.18
5.41
13.65
20.29
24.36
25.39
23.54
19.48
14.07
8.06
1.85
-4.49
-11.05
-17.83
-24.60
-30.88
-36.08
-39.74
-41.60
-41.68
-40.20
-37.43
-33.64
-29.04
-23.79
-18.17
-12.58
-7.55
-3.64
-1.25
-0.47
-0.96
-2.08
-2.97
-2.82
-1.08
2.39
7.32
13.04
18.68
23.39
26.51
27.71
27.04
24.87
21.72
18.21
14.82
11.95
9.77
8.35
7.61
7.43
7.65
8.11
8.64
9.05
9.22
9.02
8.43
7.46
6.15
4.57
2.78
0.90
-0.86
-2.23
-2.95
-2.85
-1.99
-0.63
0.81
1.99
2.73
3.09
3.25
3.41
3.56
3.52
3.00
1.75
-0.29
-2.94
-5.83
-8.57
-10.87
-12.56
-13.55
-13.82
-13.29
-11.87
-9.58
-6.57
-3.22
-0.08
2.34
3.72
4.04
3.60
2.86
2.20
1.75
1.35
0.63
-0.82
-3.20
-6.38
-9.80
-12.66
-14.10
-13.46
-10.52
-5.53
0.85
7.70
14.07
19.21
22.67
24.30
24.22
22.63
19.74
15.64
10.38
4.05
-3.14
-10.74
-18.12
-24.56
-29.49
-32.55
-33.70
-33.13
-31.22
-28.37
-24.95
-21.19
-17.24
-13.16
-8.99
-4.84
-0.90
2.61
5.52
7.77
9.42
10.59
11.42
12.04
12.63
13.57
15.37
18.52
23.24
29.19
35.49
40.98
44.74
46.44
46.49
45.78
45.18
45.06
45.17
44.77
43.07
39.52
34.04
26.92
18.58
9.42
-0.22
-10.04
-19.54
-28.02
-34.64
-38.71
-39.86
-38.26
-34.45
-29.21
-23.26
-17.14
-11.23
-5.86
-1.43
1.61
2.92
2.48
0.64
-1.89
-4.33
-6.01
-6.63
-6.32
-5.60
-5.14
-5.53
-7.10
-9.80
-13.26
-17.00
-20.61
-23.86
-26.70
-29.08
-30.84
-31.71
-31.42
-29.94
-27.53
-24.72
-22.05
-19.89
-18.31
-17.15
-16.15
-15.13
-14.03
-12.97
-12.13
-11.71
-11.89
-12.77
-14.24
-15.98
-17.39
-17.76
-16.44
-13.10
-7.88
-1.39
5.47
11.80
16.93
20.57
22.80
23.87
24.07
23.63
22.67
21.30
19.69
18.06
16.63
15.56
14.89
14.49
14.15
13.66
12.90
11.84
10.58
9.23
7.89
6.55
5.18
3.73
2.18
0.56
-1.10
-2.85
-4.74
-6.74
-8.60
-9.86
-9.91
-8.30
-4.93
-0.18
5.20
10.38
14.69
17.78
19.62
20.35
20.13
19.10
17.34
15.06
12.54
10.12
8.13
6.73
5.90
5.46
5.17
4.84
4.40
3.84
3.19
2.47
1.62
0.59
-0.61
-1.93
-3.26
-4.50
-5.65
-6.79
-8.10
-9.72
-11.71
-13.90
-15.94
-17.26
-17.31
-15.66
-12.20
-7.21
-1.33
4.67
10.01
14.11
16.70
17.75
17.42
16.01
13.81
11.17
8.44
5.93
3.87
2.41
1.53
1.08
0.86
0.70
0.47
0.10
-0.43
-1.12
-1.98
-3.04
-4.30
-5.69
-7.12
-8.41
-9.44
-10.19
-10.80
-11.56
-12.79
-14.63
-16.88
-18.99
-20.18
-19.71
-17.18
-12.68
-6.80
-0.44
5.49
10.28
13.59
15.37
15.82
15.18
13.71
11.65
9.29
6.93
4.90
3.42
2.58
2.28
2.27
2.30
2.16
1.80
1.24
0.55
-0.20
-0.96
-1.73
-2.50
-3.28
-4.10
-4.98
-5.97
-7.13
-8.50
-10.07
-11.77
-13.43
-14.75
-15.30
-14.63
-12.43
-8.66
-3.66
1.90
7.20
11.52
14.41
15.79
15.83
14.89
13.27
11.29
9.15
7.08
5.28
3.93
3.09
2.71
2.63
2.67
2.65
2.47
2.12
1.61
0.94
0.13
-0.82
-1.88
-3.02
-4.15
-5.21
-6.19
-7.13
-8.13
-9.33
-10.80
-12.49
-14.16
-15.37
-15.60
-14.40
-11.56
-7.23
-1.90
3.70
8.83
12.87
15.51
16.68
16.57
15.50
13.80
11.74
9.53
7.33
5.30
3.62
2.42
1.79
1.67
1.92
2.31
2.70
2.96
3.06
2.95
2.57
1.89
0.88
-0.39
-1.77
-3.13
-4.34
-5.41
-6.39
-7.41
-8.58
-9.95
-11.45
-12.81
-13.62
-13.37
-11.66
-8.33
-3.66
1.76
7.10
11.64
14.90
16.72
17.17
16.49
14.91
12.68
10.10
7.49
5.15
3.32
2.07
1.34
1.00
0.89
0.90
0.95
0.97
0.87
0.58
0.04
-0.73
-1.65
-2.59
-3.47
-4.24
-4.94
-5.63
-6.40
-7.34
-8.49
-9.92
-11.60
-13.42
-15.11
-16.23
-16.30
-14.94
-12.03
-7.82
-2.83
2.27
6.82
10.37
12.66
13.63
13.32
11.89
9.61
6.80
3.87
1.23
-0.83
-2.13
-2.65
-2.43
-1.61
-0.37
1.07
2.45
3.49
3.97
3.85
3.21
2.28
1.31
0.41
-0.41
-1.31
-2.48
-4.01
-5.92
-8.11
-10.42
-12.59
-14.30
-15.10
-14.56
-12.42
-8.69
-3.77
1.62
6.65
10.67
13.29
14.47
14.41
13.40
11.68
9.48
6.96
4.33
1.82
-0.35
-2.00
-3.01
-3.41
-3.30
-2.88
-2.40
-2.10
-2.16
-2.64
-3.50
-4.61
-5.77
-6.84
-7.74
-8.50
-9.21
-10.01
-11.05
-12.43
-14.07
-15.71
-16.89
-17.07
-15.78
-12.86
-8.46
-3.09
2.56
7.81
12.16
15.28
17.08
17.58
16.92
15.34
13.14
10.66
8.22
6.08
4.41
3.29
2.72
2.63
2.86
3.20
3.41
3.31
2.83
2.06
1.15
0.25
-0.54
-1.21
-1.80
-2.38
-3.03
-3.88
-5.08
-6.80
-9.01
-11.41
-13.44
-14.39
-13.68
-11.15
-7.11
-2.23
2.67
6.91
10.12
12.18
13.20
13.34
12.78
11.70
10.23
8.54
6.76
5.02
3.47
2.23
1.40
1.02
1.01
1.19
1.36
1.36
1.12
0.65
0.04
-0.62
-1.27
-1.87
-2.40
-2.86
-3.30
-3.88
-4.85
-6.39
-8.56
-11.09
-13.42
-14.81
-14.66
-12.66
-9.00
-4.24
0.84
5.49
9.17
11.60
12.72
12.57
11.27
8.97
5.88
2.32
-1.30
-4.55
-7.06
-8.63
-9.27
-9.22
-8.82
-8.44
-8.32
-8.55
-9.05
-9.68
-10.29
-10.83
-11.30
-11.77
-12.35
-13.15
-14.28
-15.84
-17.81
-19.95
-21.75
-22.45
-21.23
-17.53
-11.32
-3.21
5.69
14.12
21.04
25.89
28.65
29.68
29.42
28.26
26.45
24.11
21.39
18.43
15.41
12.52
9.87
7.55
5.63
4.22
3.37
3.09
3.32
3.93
4.80
5.82
6.95
8.08
9.06
9.67
9.70
9.00
7.58
5.54
3.05
0.32
-2.40
-4.77
-6.40
-6.91
-6.08
-4.00
-1.10
1.92
4.31
5.48
5.15
3.36
0.42
-3.21
-7.05
-10.66
-13.68
-15.88
-17.13
-17.42
-16.83
-15.53
-13.82
-12.05
-10.57
-9.62
-9.25
-9.29
-9.49
-9.62
-9.60
-9.51
-9.47
-9.46
-9.28
-8.63
-7.21
-4.98
-2.13
0.95
3.86
6.32
8.22
9.63
10.66
11.44
12.03
12.41
12.43
11.85
10.40
7.93
4.47
0.35
-3.85
-7.43
-9.74
-10.38
-9.29
-6.78
-3.49
-0.17
2.48
4.02
4.39
3.78
2.48
0.74
-1.36
-3.76
-6.32
-8.74
-10.59
-11.49
-11.30
-10.12
-8.23
-5.92
-3.32
-0.37
3.07
7.06
11.53
16.19
20.64
24.48
27.39
29.24
30.07
30.08
29.56
28.76
27.91
27.15
26.52
25.93
25.19
24.04
22.25
19.79
16.90
14.01
11.59
9.94
9.14
9.03
9.34
9.85
10.44
11.05
11.63
12.17
12.72
13.50
14.86
17.12
20.31
24.02
27.38
29.32
28.96
26.06
21.16
15.50
10.59
7.67
7.27
9.05
11.97
14.74
16.39
16.58
15.73
14.78
14.76
16.44
20.01
25.11
30.94
36.51
40.90
43.40
43.64
41.60
37.50
31.70
24.52
16.24
7.04
-2.90
-13.36
-24.05
-34.68
-44.86
-54.11
-61.76
-67.01
-69.25
-68.26
-64.51
-59.12
-53.56
-49.29
-47.45
-48.72
-53.45
-61.69
-73.13
-86.84
-101.19
-113.96
-122.83
-126.07
-123.05
-114.36
-101.47
-86.09
-69.70
-53.25
-37.28
-22.21
-8.52
3.11
12.02
17.65
19.72
18.29
13.76
6.92
-1.11
-8.92
-15.03
-18.14
-17.38
-12.54
-4.09
6.84
18.60
29.32
37.20
40.96
40.09
34.99
26.82
17.13
7.46
-1.05
-7.74
-12.39
-15.09
-16.02
-15.42
-13.56
-10.78
-7.50
-4.20
-1.34
0.75
1.93
2.22
1.84
1.01
-0.02
-1.09
-2.02
-2.57
-2.40
-1.15
1.40
5.27
10.18
15.62
21.06
26.05
30.35
33.93
36.84
39.16
40.93
42.23
43.22
44.16
45.33
46.89
48.80
50.74
52.28
52.95
52.50
50.87
48.26
44.95
41.30
37.61
34.19
31.30
29.20
28.10
28.06
28.97
30.51
32.14
33.18
32.95
30.96
27.05
21.48
14.90
8.20
2.24
-2.37
-5.42
-7.17
-8.14
-8.98
-10.12
-11.74
-13.69
-15.67
-17.43
-18.85
-19.99
-20.97
-21.84
-22.51
-22.76
-22.38
-21.32
-19.79
-18.26
-17.31
-17.47
-18.98
-21.74
-25.25
-28.74
-31.33
-32.22
-30.93
-27.43
-22.14
-15.78
-9.15
-2.88
2.63
7.22
10.78
13.19
14.23
13.63
11.12
6.51
-0.20
-8.82
-18.79
-29.19
-38.88
-46.73
-52.07
-54.80
-55.46
-54.88
-53.82
-52.69
-51.58
-50.52
-49.80
-50.14
-52.35
-56.82
-62.99
-69.18
-73.00
-72.19
-65.55
-53.41
-37.53
-20.39
-4.26
9.48
20.50
29.18
36.07
41.49
45.43
47.85
48.91
49.11
49.16
49.67
50.89
52.63
54.37
55.53
55.75
55.03
53.64
52.02
50.54
49.35
48.26
46.83
44.50
40.83
35.79
29.87
24.07
19.58
17.41
17.95
20.86
25.23
29.85
33.63
35.87
36.23
34.65
31.22
26.12
19.67
12.39
4.97
-1.84
-7.48
-11.72
-14.67
-16.75
-18.47
-20.30
-22.48
-25.05
-27.82
-30.52
-32.91
-34.80
-36.14
-37.01
-37.59
-38.12
-38.82
-39.86
-41.23
-42.71
-43.81
-43.77
-41.83
-37.47
-30.68
-22.04
-12.55
-3.34
4.70
11.15
16.08
19.77
22.50
24.33
25.13
24.80
23.40
21.18
18.58
16.13
14.23
12.99
12.25
11.73
11.17
10.38
9.35
8.13
7.13
6.67
6.78
7.17
7.35
6.97
5.85
4.11
2.02
0.34
-0.27
0.48
2.60
5.97
10.55
16.22
22.68
29.31
35.93
42.32
48.18
53.16
56.99
59.61
60.97
60.96
56.19
44.97
28.34
9.88
-6.57
-18.90
-26.93
-31.63
-34.39
-36.40
-38.01
-39.27
-40.24
-41.10
-41.99
-42.89
-43.75
-44.52
-45.17
-45.23
-44.33
-42.34
-39.57
-36.62
-33.92
-31.40
-28.41
-24.22
-17.81
-9.02
1.41
12.23
22.33
31.10
38.29
42.97
44.77
43.31
38.53
31.15
22.64
14.70
8.57
4.60
2.25
0.74
-0.55
-1.88
-3.19
-4.31
-5.16
-5.80
-6.45
-7.34
-8.63
-10.33
-12.29
-14.14
-15.42
-15.82
-15.31
-14.16
-12.81
-11.60
-10.75
-10.14
-9.58
-8.90
-8.05
-7.04
-5.82
-4.22
-2.03
0.85
4.24
7.61
10.36
11.96
12.22
11.30
9.59
7.56
5.52
3.66
2.03
0.73
-0.18
-0.65
-0.76
-0.66
-0.57
-0.61
-0.77
-0.94
-1.00
-0.92
-0.80
-0.79
-1.06
-1.62
-2.39
-3.14
-3.69
-3.87
-3.67
-3.21
-2.73
-2.48
-2.66
-3.35
-4.42
-5.62
-6.66
-7.32
-7.55
-7.55
-7.66
-8.18
-9.25
-10.70
-12.09
-12.85
-12.39
-10.34
-6.61
-1.45
4.55
10.58
15.84
19.68
21.79
22.22
21.29
19.38
16.82
13.83
10.58
7.30
4.27
1.79
0.06
-0.93
-1.32
-1.36
-1.20
-0.88
-0.35
0.44
1.46
2.57
3.56
4.23
4.42
4.09
3.25
2.00
0.48
-1.11
-2.57
-3.77
-4.68
-5.43
-6.23
-7.29
-8.71
-10.38
-11.95
-12.90
-12.70
-10.99
-7.68
-3.06
2.32
7.80
12.78
16.92
20.10
22.32
23.60
23.89
23.05
21.01
17.89
14.02
9.93
6.22
3.30
1.39
0.44
0.22
0.44
0.80
1.04
0.97
0.41
-0.75
-2.54
-4.90
-7.64
-10.44
-12.95
-14.86
-16.02
-16.44
-16.35
-16.06
-15.90
-16.14
-16.87
-18.04
-19.39
-20.55
-21.01
-20.30
-18.05
-14.14
-8.75
-2.33
4.44
10.86
16.31
20.35
22.73
23.37
22.36
19.90
16.37
12.25
8.11
4.49
1.84
0.44
0.35
1.44
3.40
5.80
8.16
10.00
10.97
10.83
9.57
7.30
4.31
0.93
-2.49
-5.60
-8.15
-9.99
-11.10
-11.64
-11.81
-11.91
-12.18
-12.82
-13.86
-15.19
-16.51
-17.28
-16.86
-14.56
-9.96
-3.06
5.61
14.97
23.70
30.52
34.53
35.40
33.39
29.22
23.89
18.39
13.59
10.06
8.04
7.41
7.70
8.26
8.42
7.73
6.06
3.66
1.01
-1.42
-3.38
-4.94
-6.40
-8.15
-10.39
-13.09
-15.99
-18.78
-21.21
-23.23
-24.93
-26.51
-28.15
-29.94
-31.79
-33.42
-34.37
-34.09
-32.09
-28.17
-22.56
-15.83
-8.82
-2.32
3.09
7.12
9.78
11.24
11.78
11.68
11.25
10.81
10.64
10.88
11.53
12.42
13.27
13.82
13.89
13.42
12.48
11.22
9.78
8.24
6.62
4.91
3.11
1.27
-0.49
-2.05
-3.35
-4.39
-5.32
-6.27
-7.33
-8.34
-8.94
-8.52
-6.47
-2.34
3.92
11.82
20.32
28.08
33.69
36.14
35.08
30.95
24.86
18.25
12.40
8.14
5.64
4.54
4.20
3.98
3.41
2.21
0.28
-2.35
-5.55
-9.02
-12.36
-15.14
-17.08
-18.18
-18.67
-19.00
-19.60
-20.74
-22.47
-24.68
-27.14
-29.65
-31.96
-33.76
-34.61
-33.97
-31.36
-26.59
-19.89
-11.94
-3.76
3.63
9.43
13.30
15.37
16.12
16.19
16.18
16.54
17.48
18.94
20.62
22.04
22.70
22.30
20.80
18.46
15.64
12.64
9.59
6.45
3.19
-0.07
-3.01
-5.28
-6.61
-7.05
-6.89
-6.63
-6.73
-7.52
-9.06
-11.16
-13.32
-14.82
-14.74
-12.29
-7.01
0.88
10.44
20.09
28.11
33.10
34.46
32.50
28.29
23.23
18.56
14.98
12.59
10.96
9.51
7.76
5.55
3.00
0.42
-1.92
-3.89
-5.48
-6.79
-7.88
-8.74
-9.32
-9.67
-9.92
-10.38
-11.37
-13.17
-15.86
-19.28
-23.15
-27.09
-30.79
-33.94
-36.24
-37.29
-36.69
-34.10
-29.47
-23.11
-15.73
-8.21
-1.35
4.27
8.41
11.08
12.40
12.58
11.94
10.88
9.90
9.40
9.57
10.31
11.31
12.19
12.71
12.83
12.61
12.16
11.53
10.69
9.62
8.30
6.77
5.04
3.14
1.08
-1.05
-3.15
-5.04
-6.64
-7.94
-9.01
-9.80
-10.05
-9.29
-6.94
-2.61
3.74
11.66
20.38
28.90
36.29
41.67
44.34
43.79
39.87
32.93
23.96
14.39
5.70
-0.95
-5.11
-7.01
-7.36
-6.95
-6.41
-6.10
-6.19
-6.76
-7.87
-9.49
-11.52
-13.73
-15.92
-18.01
-20.10
-22.39
-25.12
-28.38
-32.01
-35.63
-38.65
-40.34
-40.05
-37.32
-32.13
-24.96
-16.76
-8.72
-1.95
2.88
5.63
6.72
6.83
6.65
6.61
6.84
7.24
7.64
7.98
8.31
8.77
9.50
10.52
11.73
12.92
13.85
14.35
14.33
13.79
12.78
11.40
9.82
8.22
6.79
5.69
4.98
4.55
4.16
3.46
2.17
0.23
-2.12
-4.28
-5.54
-5.27
-3.21
0.42
5.00
9.69
13.76
16.74
18.45
18.95
18.36
16.80
14.40
11.34
7.88
4.35
1.10
-1.55
-3.38
-4.26
-4.24
-3.57
-2.64
-1.94
-1.86
-2.61
-4.11
-6.01
-7.82
-9.11
-9.60
-9.31
-8.46
-7.47
-6.78
-6.76
-7.58
-9.15
-11.10
-12.83
-13.63
-12.94
-10.50
-6.49
-1.50
3.64
8.13
11.41
13.29
13.87
13.46
12.39
10.97
9.44
7.99
6.74
5.74
4.92
4.16
3.34
2.38
1.35
0.38
-0.39
-0.87
-1.12
-1.28
-1.56
-2.07
-2.86
-3.82
-4.83
-5.81
-6.72
-7.66
-8.74
-10.11
-11.82
-13.82
-15.85
-17.44
-18.04
-17.10
-14.31
-9.78
-4.04
2.06
7.62
11.96
14.77
16.13
16.38
15.95
15.17
14.30
13.43
12.61
11.83
11.06
10.26
9.37
8.39
7.33
6.28
5.34
4.54
3.86
3.20
2.40
1.33
-0.07
-1.78
-3.70
-5.67
-7.51
-9.07
-10.30
-11.24
-12.10
-13.16
-14.67
-16.70
-19.02
-21.07
-22.14
-21.54
-18.89
-14.31
-8.33
-1.80
4.41
9.63
13.48
15.91
17.03
17.08
16.35
15.10
13.58
11.98
10.43
8.98
7.62
6.34
5.14
4.06
3.15
2.43
1.90
1.49
1.11
0.65
0.04
-0.77
-1.78
-2.96
-4.24
-5.55
-6.80
-7.95
-8.99
-10.03
-11.18
-12.60
-14.35
-16.33
-18.21
-19.45
-19.46
-17.77
-14.23
-9.12
-3.10
2.97
8.26
12.22
14.67
15.76
15.77
15.02
13.74
12.07
10.17
8.22
6.43
5.02
4.07
3.59
3.42
3.39
3.32
3.13
2.82
2.43
1.96
1.38
0.60
-0.47
-1.87
-3.50
-5.17
-6.69
-7.95
-9.00
-10.02
-11.27
-12.89
-14.86
-16.91
-18.58
-19.32
-18.62
-16.19
-12.05
-6.61
-0.57
5.29
10.24
13.86
16.03
16.89
16.68
15.68
14.10
12.19
10.21
8.44
7.12
6.32
5.96
5.79
5.58
5.16
4.49
3.69
2.90
2.26
1.82
1.51
1.17
0.63
-0.27
-1.53
-3.02
-4.56
-5.94
-7.11
-8.18
-9.32
-10.73
-12.47
-14.46
-16.45
-18.09
-18.96
-18.67
-16.92
-13.60
-8.91
-3.34
2.44
7.72
11.94
14.87
16.54
17.17
17.04
16.35
15.27
13.92
12.46
11.07
9.94
9.17
8.73
8.50
8.30
7.98
7.50
6.90
6.30
5.78
5.39
5.04
4.59
3.89
2.84
1.46
-0.12
-1.70
-3.12
-4.28
-5.18
-5.89
-6.54
-7.28
-8.27
-9.61
-11.37
-13.44
-15.52
-17.08
-17.56
-16.47
-13.66
-9.34
-4.10
1.31
6.22
10.13
12.84
14.36
14.83
14.41
13.30
11.71
9.89
8.11
6.62
5.57
4.95
4.63
4.37
3.99
3.38
2.54
1.60
0.74
0.12
-0.22
-0.34
-0.42
-0.68
-1.29
-2.30
-3.62
-5.05
-6.40
-7.53
-8.43
-9.20
-9.98
-10.94
-12.17
-13.68
-15.32
-16.79
-17.65
-17.40
-15.68
-12.42
-7.93
-2.78
2.33
6.81
10.29
12.60
13.75
13.85
13.05
11.63
9.87
8.12
6.62
5.47
4.67
4.13
3.75
3.48
3.27
3.08
2.85
2.53
2.08
1.52
0.88
0.15
-0.69
-1.71
-2.90
-4.19
-5.43
-6.46
-7.24
-7.85
-8.52
-9.47
-10.83
-12.52
-14.22
-15.51
-15.95
-15.18
-13.08
-9.68
-5.25
-0.21
4.91
9.55
13.23
15.63
16.65
16.42
15.24
13.47
11.48
9.54
7.83
6.44
5.37
4.60
4.06
3.69
3.44
3.28
3.15
3.00
2.78
2.44
1.92
1.21
0.29
-0.83
-2.08
-3.37
-4.56
-5.56
-6.35
-7.01
-7.70
-8.58
-9.76
-11.29
-13.07
-14.92
-16.52
-17.45
-17.29
-15.68
-12.53
-8.10
-2.95
2.20
6.73
10.23
12.61
13.97
14.49
14.29
13.51
12.28
10.81
9.37
8.20
7.41
6.98
6.74
6.51
6.15
5.62
4.97
4.33
3.83
3.52
3.34
3.17
2.81
2.11
1.03
-0.34
-1.81
-3.17
-4.29
-5.10
-5.65
-6.05
-6.42
-6.95
-7.79
-9.04
-10.71
-12.55
-14.12
-14.87
-14.29
-12.13
-8.51
-3.90
1.05
5.68
9.49
12.24
13.88
14.53
14.33
13.46
12.10
10.48
8.84
7.43
6.38
5.76
5.48
5.36
5.20
4.88
4.34
3.68
3.04
2.55
2.25
2.07
1.82
1.36
0.56
-0.53
-1.76
-2.96
-3.98
-4.78
-5.38
-5.87
-6.37
-6.98
-7.83
-9.04
-10.65
-12.53
-14.37
-15.70
-15.96
-14.76
-12.00
-8.00
-3.33
1.31
5.36
8.53
10.75
12.07
12.60
12.36
11.39
9.82
7.87
5.84
4.07
2.75
1.95
1.54
1.33
1.16
0.98
0.82
0.80
0.94
1.19
1.36
1.23
0.63
-0.46
-1.86
-3.35
-4.68
-5.70
-6.41
-6.87
-7.22
-7.62
-8.19
-9.02
-10.11
-11.29
-12.24
-12.54
-11.83
-9.93
-6.94
-3.19
0.80
4.55
7.64
9.85
11.06
11.33
10.73
9.46
7.73
5.78
3.87
2.20
0.89
0.03
-0.39
-0.40
-0.09
0.43
1.05
1.64
2.12
2.41
2.48
2.30
1.88
1.23
0.40
-0.59
-1.68
-2.81
-3.91
-4.94
-5.92
-6.92
-8.04
-9.33
-10.65
-11.73
-12.12
-11.43
-9.44
-6.24
-2.23
1.99
5.83
8.84
10.79
11.71
11.74
11.10
10.00
8.65
7.25
5.97
4.90
4.05
3.38
2.79
2.24
1.70
1.20
0.86
0.79
1.04
1.57
2.25
2.81
2.92
2.26
0.67
-1.67
-4.34
-6.90
-9.00
-10.50
-11.41
-11.87
-11.99
-11.72
-10.79
-8.78
-5.42
-0.72
5.01
11.13
16.76
20.84
22.16
20.19
15.57
9.54
3.08
-3.35
-9.54
-15.13
-19.45
-21.82
-21.83
-19.78
-16.62
-13.54
-11.40
-10.36
-10.07
-9.93
-9.48
-8.46
-6.86
-4.91
-2.93
-1.22
0.09
0.93
1.48
1.90
2.41
3.36
5.12
8.04
12.24
17.24
22.04
25.40
26.40
24.94
21.85
18.44
15.84
14.40
13.70
12.82
11.05
8.22
4.71
1.13
-2.05
-4.74
-7.04
-9.09
-10.86
-12.12
-12.61
-12.19
-10.99
-9.34
-7.67
-6.38
-5.56
-5.12
-4.82
-4.40
-3.70
-2.76
-1.75
-0.95
-0.57
-0.63
-1.00
-1.44
-1.72
-1.78
-1.70
-1.66
-1.81
-2.20
-2.77
-3.34
-3.72
-3.66
-3.00
-1.66
0.29
2.61
4.91
6.79
7.92
8.19
7.72
6.76
5.61
4.41
3.23
2.07
1.00
0.16
-0.27
-0.18
0.38
1.17
1.89
2.19
1.92
1.17
0.16
-0.90
-1.88
-2.78
-3.64
-4.50
-5.35
-6.15
-6.91
-7.72
-8.69
-9.90
-11.41
-13.22
-15.32
-17.61
-19.87
-21.71
-22.60
-22.04
-19.77
-15.88
-10.76
-5.04
0.66
5.83
10.11
13.32
15.35
16.23
16.11
15.22
13.87
12.36
10.97
9.93
9.41
9.47
10.05
10.90
11.68
12.03
11.73
10.68
8.96
6.77
4.30
1.81
-0.48
-2.37
-3.70
-4.43
-4.65
-4.63
-4.73
-5.32
-6.70
-8.96
-11.92
-15.07
-17.70
-19.04
-18.53
-16.00
-11.78
-6.57
-1.22
3.52
7.23
9.85
11.57
12.72
13.52
14.03
14.17
13.75
12.63
10.71
8.03
4.78
1.25
-2.17
-5.06
-7.04
-7.84
-7.46
-6.07
-4.01
-1.65
0.75
3.07
5.33
7.56
9.69
11.47
12.49
12.28
10.47
6.91
1.80
-4.31
-10.60
-16.09
-19.86
-21.28
-20.07
-16.44
-10.97
-4.47
2.24
8.54
14.07
18.81
22.91
26.63
30.12
33.34
35.96
37.45
37.20
34.76
29.96
23.14
15.04
6.77
-0.50
-5.80
-8.71
-9.43
-8.75
-7.71
-7.24
-7.87
-9.57
-11.92
-14.34
-16.37
-17.76
-18.48
-18.64
-18.39
-17.90
-17.34
-16.86
-16.49
-16.04
-15.13
-13.25
-10.02
-5.39
0.34
6.49
12.28
17.03
20.41
22.50
23.72
24.64
25.64
26.74
27.49
27.16
25.05
20.85
14.78
7.60
0.31
-6.13
-11.00
-13.92
-14.88
-14.16
-12.28
-9.90
-7.76
-6.46
-6.38
-7.60
-9.92
-12.96
-16.29
-19.49
-22.30
-24.57
-26.25
-27.29
-27.55
-26.84
-24.97
-21.85
-17.66
-12.83
-7.88
-3.32
0.64
4.13
7.50
11.18
15.39
19.99
24.42
27.87
29.53
28.87
25.92
21.18
15.62
10.30
6.14
3.70
3.04
3.78
5.24
6.67
7.45
7.25
6.04
4.05
1.64
-0.83
-3.09
-4.98
-6.51
-7.78
-8.96
-10.20
-11.49
-12.67
-13.40
-13.39
-12.44
-10.62
-8.19
-5.51
-2.92
-0.67
1.07
2.14
2.41
1.78
0.29
-1.86
-4.32
-6.71
-8.64
-9.85
-10.23
-9.76
-8.53
-6.71
-4.55
-2.32
-0.28
1.37
2.46
2.91
2.67
1.70
-0.00
-2.37
-5.29
-8.53
-11.74
-14.49
-16.28
-16.65
-15.34
-12.33
-7.99
-2.91
2.22
6.86
10.78
14.08
17.04
19.88
22.63
25.11
27.01
28.09
28.33
27.89
27.08
26.11
25.04
23.75
22.05
19.88
17.37
14.82
12.57
10.79
9.38
8.00
6.19
3.58
-0.00
-4.46
-9.52
-14.87
-20.20
-25.22
-29.60
-32.97
-34.94
-35.21
-33.66
-30.47
-26.04
-20.96
-15.86
-11.31
-7.71
-5.30
