1660752431.00
64.000000
-0.00
-0.00
-0.00
-0.00
-0.00
-0.00
-0.00
-0.00
-0.00
-0.00
0.00
0.01
0.01
-0.00
-0.03
-0.05
-0.05
0.00
0.13
0.36
0.66
1.01
1.37
1.72
2.06
2.40
2.79
3.24
3.80
4.42
5.06
5.66
6.20
6.68
7.15
7.68
8.31
9.14
10.09
11.04
11.88
12.56
13.14
13.76
14.65
15.96
17.91
20.32
22.90
25.38
27.58
29.57
31.68
34.32
37.81
42.54
48.15
54.10
59.83
64.97
69.58
74.14
79.34
85.71
93.76
103.00
112.62
121.73
129.77
136.75
143.30
150.75
157.77
166.64
177.95
191.79
206.97
220.57
228.25
225.36
208.53
176.87
132.76
80.05
23.07
-34.94
-92.44
-149.16
-205.23
-260.37
-313.74
-363.87
-409.83
-450.91
-486.50
-515.74
-537.23
-549.22
-549.96
-538.37
-514.20
-478.67
-433.88
-382.45
-327.02
-269.85
-212.64
-156.65
-102.93
-52.34
-5.88
35.58
71.36
101.20
125.25
144.05
158.32
168.75
175.97
180.34
182.14
181.58
178.95
174.60
168.97
162.47
155.44
148.12
140.60
132.91
125.10
117.21
109.37
101.69
94.27
87.17
80.35
73.72
67.21
60.79
54.53
48.58
43.06
38.09
33.64
29.56
25.64
21.68
17.63
13.57
9.75
6.41
3.73
1.66
-0.02
-1.68
-3.60
-5.90
-8.42
-10.84
-12.85
-14.25
-15.09
-15.62
-16.12
-16.82
-17.91
-19.66
-22.28
-25.73
-29.35
-31.68
-30.86
-25.45
-15.26
-1.64
12.93
25.90
35.57
41.48
44.11
44.18
42.22
38.48
33.39
27.77
22.77
19.42
18.07
18.20
18.69
18.46
16.91
14.17
10.96
8.22
6.75
6.92
8.56
10.96
13.23
14.53
14.44
13.01
10.74
8.28
6.14
4.54
3.43
2.60
1.88
1.22
0.71
0.49
0.57
0.88
1.24
1.53
1.68
1.72
1.72
1.81
2.05
2.43
2.95
3.56
4.25
5.01
5.88
6.82
7.83
8.82
9.68
10.27
10.44
10.07
9.09
7.58
5.56
3.18
0.66
-1.80
-4.12
-6.34
-8.57
-10.83
-12.99
-14.73
-15.63
-15.38
-13.96
-11.64
-8.94
-6.47
-4.71
-3.94
-4.18
-5.19
-6.59
-7.96
-8.96
-9.42
-9.41
-9.08
-8.63
-8.16
-7.65
-7.05
-6.30
-5.43
-4.57
-3.84
-3.37
-3.17
-3.21
-3.41
-3.72
-4.10
-4.59
-5.19
-5.92
-6.75
-7.62
-8.43
-9.07
-9.42
-9.34
-8.83
-7.93
-6.80
-5.68
-4.84
-4.49
-4.73
-5.49
-6.47
-7.27
-7.43
-6.57
-4.49
-1.23
2.95
7.51
11.82
15.33
17.71
18.89
19.03
18.46
17.48
16.38
15.31
14.31
13.37
12.42
11.44
10.41
9.38
8.41
7.57
6.86
6.25
5.71
5.13
4.40
3.45
2.23
0.84
-0.60
-1.95
-3.13
-4.15
-5.16
-6.34
-7.83
-9.67
-11.74
-13.79
-15.49
-16.57
-16.87
-16.47
-15.67
-14.89
-14.57
-14.92
-15.82
-16.85
-17.33
-16.64
-14.33
-10.37
-5.08
0.89
6.77
11.83
15.50
17.58
18.12
17.45
16.01
14.25
12.54
11.10
10.04
9.33
8.90
8.68
8.56
8.45
8.26
7.88
7.25
6.36
5.26
4.09
3.02
2.19
1.67
1.42
1.30
1.17
0.95
0.57
0.00
-0.83
-2.05
-3.77
-5.96
-8.45
-10.87
-12.79
-13.87
-14.02
-13.46
-12.64
-12.09
-12.25
-13.24
-14.82
-16.39
-17.14
-16.32
-13.45
-8.62
-2.44
4.02
9.66
13.64
15.63
15.87
14.95
13.53
12.09
10.84
9.72
8.58
7.32
5.95
4.64
3.57
2.88
2.64
2.82
3.32
4.04
4.83
5.53
5.96
5.94
5.34
4.10
2.33
0.26
-1.81
-3.57
-4.76
-5.21
-4.85
-3.70
-1.92
0.27
2.56
4.58
5.99
6.50
5.93
4.34
2.03
-0.37
-2.08
-2.29
-0.46
3.51
9.14
15.55
21.66
26.60
29.97
31.92
32.99
33.82
34.88
36.25
37.78
39.29
40.74
42.25
43.93
45.65
46.94
47.21
46.09
43.70
40.72
37.95
35.96
34.83
34.16
33.38
31.92
29.24
24.76
17.88
8.35
-3.31
-15.51
-25.87
-32.16
-33.34
-30.23
-25.21
-21.20
-20.35
-23.12
-28.28
-33.62
-36.99
-37.17
-34.21
-29.17
-23.58
-18.82
-15.49
-13.16
-10.49
-5.80
2.00
12.85
25.36
37.38
46.89
52.74
54.83
53.70
49.81
42.94
32.30
17.16
-2.38
-24.77
-47.21
-66.37
-79.56
-85.51
-84.78
-79.36
-71.85
-64.63
-59.24
-56.21
-55.32
-55.72
-56.12
-54.98
-50.78
-42.63
-30.85
-17.20
-4.47
4.44
7.67
4.99
-2.35
-12.39
-23.39
-34.27
-44.58
-53.98
-61.97
-67.92
-71.53
-73.17
-73.82
-74.48
-75.55
-76.43
-75.74
-72.07
-64.83
-54.71
-43.45
-33.14
-25.36
-20.63
-18.31
-17.10
-15.59
-12.83
-8.57
-3.21
2.46
7.57
11.39
13.44
13.56
11.84
8.64
4.57
0.46
-2.70
-3.80
-1.76
4.25
14.51
28.58
45.21
62.55
78.65
92.11
102.70
111.45
120.35
131.53
145.94
164.03
184.42
204.94
223.56
239.08
251.35
260.96
268.49
273.60
276.22
275.67
271.49
263.62
252.21
237.43
219.56
199.45
178.04
159.38
146.74
142.33
146.16
155.76
166.99
175.71
179.18
174.03
164.11
151.01
136.12
120.30
104.06
87.91
72.57
58.85
41.77
27.17
14.31
2.11
-10.39
-23.71
-37.78
-52.14
-66.19
-88.27
-108.97
-128.75
-148.14
-167.53
-186.96
-206.02
-224.02
-240.17
-265.16
-286.43
-304.03
-318.26
-329.45
-337.94
-344.04
-348.05
-279.00
-226.79
-178.08
-133.12
-92.19
-55.48
-23.02
5.34
29.93
51.17
58.20
63.73
68.12
71.73
74.89
77.93
81.12
83.88
85.96
79.06
73.46
69.68
67.76
67.46
68.41
70.31
72.03
72.90
67.60
62.74
58.76
55.69
53.32
51.34
49.51
45.60
38.45
26.13
13.51
2.11
-7.70
-16.23
-23.90
-31.00
-43.21
-63.50
-90.57
-117.79
-140.87
-158.63
-171.84
-181.82
-189.57
-207.27
-241.35
-287.42
-334.23
-373.15
-401.92
-422.23
-436.93
-448.07
-475.54
-529.81
-603.88
-679.70
-743.17
-790.57
-824.29
-848.35
-865.29
-900.68
-967.70
-1056.67
-1143.63
-1209.86
-1251.16
-1271.58
-1277.49
-1127.83
-775.36
-296.81
169.50
535.59
787.87
947.56
1042.43
1090.46
1114.38
1101.87
1046.17
960.10
869.19
792.41
731.05
680.57
634.04
587.73
520.66
421.96
298.27
167.12
63.71
8.22
2.58
35.18
93.21
154.07
201.95
231.91
247.56
254.31
253.41
246.34
235.91
225.88
212.14
191.66
166.33
142.20
124.95
114.57
108.51
103.88
99.25
91.64
79.98
65.93
52.94
44.04
38.93
35.92
33.24
29.99
25.71
20.49
14.91
9.95
6.52
4.38
2.81
1.06
-1.28
-4.36
-8.10
-12.20
-16.17
-19.51
-22.22
-24.52
-26.60
-28.54
-30.28
-31.65
-32.38
-32.17
-30.77
-28.03
-24.00
-18.85
-12.89
-6.39
0.31
6.82
12.77
17.90
22.05
25.20
27.44
28.92
29.78
30.08
29.77
28.83
27.26
25.18
22.86
20.61
18.74
17.37
16.39
15.55
14.49
13.04
11.25
9.44
8.05
7.49
7.84
8.85
9.92
10.45
10.09
8.87
7.15
5.52
4.52
4.49
5.57
7.58
9.93
11.67
11.41
7.69
-0.37
-12.63
-27.77
-43.70
-58.34
-70.35
-79.25
-85.46
-89.71
-92.40
-93.40
-92.29
-88.75
-82.90
-76.70
-71.73
-69.16
-69.34
-71.72
-75.05
-77.93
-79.42
-79.36
-78.45
-77.60
-77.64
-78.70
-80.00
-79.96
-76.74
-68.92
-56.16
-39.40
-20.53
-1.93
14.29
26.89
35.64
41.07
43.99
45.09
44.70
43.01
40.12
36.25
31.83
27.43
23.71
21.33
20.93
23.05
28.02
35.61
44.95
54.58
62.72
67.84
69.06
66.47
60.99
54.05
46.95
40.45
34.56
28.81
22.60
15.69
8.38
1.40
-4.42
-8.48
-10.59
-10.90
-9.74
-7.53
-4.72
-1.82
0.63
2.32
3.44
4.80
7.71
13.49
22.97
36.07
51.69
67.95
82.70
94.03
100.58
101.78
97.78
89.35
77.75
64.51
51.19
39.17
29.28
21.71
16.00
11.20
6.33
0.69
-5.85
-12.88
-19.62
-25.28
-29.29
-31.53
-32.40
-32.63
-33.11
-34.52
-37.08
-40.42
-43.76
-46.13
-46.75
-45.21
-41.41
-35.52
-27.85
-18.77
-8.72
1.84
12.40
22.45
31.38
38.55
43.31
45.21
44.21
40.77
35.71
30.02
24.68
20.51
18.31
18.80
22.61
30.08
40.98
54.48
69.17
83.23
94.67
101.64
102.67
97.16
85.70
70.10
53.00
37.02
23.98
14.40
7.63
2.42
-2.41
-7.50
-12.98
-18.70
-24.56
-30.59
-36.81
-43.05
-48.83
-53.50
-56.50
-57.72
-57.66
-57.33
-57.87
-60.02
-63.67
-67.73
-70.48
-70.15
-65.64
-56.93
-45.04
-31.63
-18.37
-6.52
3.29
10.96
16.75
21.10
24.53
27.65
31.06
35.29
40.77
47.72
56.13
65.73
75.94
85.96
94.83
101.68
105.82
106.78
104.17
97.52
86.23
69.81
48.45
23.42
-2.72
-26.65
-45.14
-56.04
-59.00
-55.35
-47.59
-38.47
-30.28
-24.48
-21.72
-21.98
-24.73
-29.01
-33.50
-36.78
-37.70
-35.74
-31.13
-24.77
-17.85
-11.59
-6.82
-3.89
-2.60
-2.32
-2.09
-1.03
1.38
5.11
9.59
13.92
17.36
19.62
20.88
21.64
22.28
22.92
23.42
23.64
23.76
24.23
25.63
28.26
31.92
35.94
39.53
42.24
44.32
46.75
50.91
58.00
68.60
82.23
97.32
111.26
120.77
122.48
113.84
93.98
64.36
28.75
-7.59
-39.28
-62.26
-74.67
-77.02
-71.45
-60.79
-47.66
-34.08
-21.37
-10.38
-1.48
5.37
10.67
15.26
19.99
25.22
30.65
35.20
37.39
35.85
30.02
20.48
8.91
-2.34
-11.00
-15.60
-15.97
-13.28
-9.77
-7.99
-10.06
-17.04
-28.57
-43.07
-58.24
-71.81
-82.07
-88.26
-90.49
-89.55
-86.49
-82.38
-78.04
-73.87
-69.79
-65.15
-58.97
-50.28
-38.62
-24.45
-9.25
4.71
15.01
19.78
18.37
11.67
2.08
-7.06
-12.32
-11.22
-3.09
10.63
26.67
40.94
49.85
51.52
46.35
36.74
26.13
17.72
13.46
13.66
17.30
22.78
28.53
33.47
37.02
38.91
39.00
37.17
33.41
27.82
20.64
12.12
2.46
-8.12
-19.25
-30.32
-40.42
-48.53
-53.73
-55.41
-53.46
-48.27
-40.70
-31.87
-22.92
-14.72
-7.63
-1.53
4.03
9.51
15.03
20.29
24.72
27.77
29.17
29.01
27.61
25.27
22.16
18.31
13.70
8.44
2.79
-2.94
-8.40
-13.39
-17.83
-21.65
-24.74
-26.87
-27.75
-27.09
-24.72
-20.64
-15.11
-8.65
-2.14
3.29
6.45
6.49
3.29
-2.39
-9.00
-14.74
-18.17
-18.68
-16.59
-12.84
-8.37
-3.71
1.12
6.40
12.29
18.54
24.43
29.05
31.56
31.57
29.18
24.87
19.28
12.97
6.30
-0.40
-6.78
-12.23
-16.02
-17.48
-16.34
-13.02
-8.54
-4.33
-1.60
-0.94
-2.01
-3.69
-4.55
-3.48
-0.17
4.86
10.46
15.52
19.36
21.98
23.88
25.60
27.30
28.57
28.59
26.61
22.25
15.71
7.59
-1.37
-10.46
-19.12
-26.75
-32.69
-36.36
-37.42
-36.08
-32.99
-29.12
-25.31
-21.98
-19.06
-16.20
-13.07
-9.63
-6.10
-2.87
-0.13
2.18
4.46
7.18
10.61
14.68
18.94
22.79
25.71
27.54
28.49
29.04
29.76
31.07
33.11
35.75
38.57
40.95
42.10
41.24
37.83
31.75
23.50
14.13
5.01
-2.54
-7.72
-10.52
-11.80
-12.92
-15.30
-19.77
-26.29
-33.91
-41.12
-46.36
-48.57
-47.54
-43.90
-38.90
-33.95
-30.19
-28.17
-27.72
-28.17
-28.62
-28.36
-27.10
-24.93
-22.28
-19.62
-17.37
-15.85
-15.20
-15.44
-16.33
-17.36
-17.78
-16.78
-13.70
-8.23
-0.51
9.00
19.60
30.48
40.78
49.59
56.10
59.72
60.29
58.21
54.30
49.43
44.05
37.97
30.43
20.64
8.46
-5.19
-18.38
-28.80
-34.57
-34.95
-30.54
-22.92
-14.06
-5.66
1.11
5.57
7.34
6.30
2.56
-3.30
-10.27
-17.08
-22.62
-26.25
-28.05
-28.63
-28.85
-29.38
-30.44
-31.73
-32.50
-31.91
-29.29
-24.58
-18.47
-12.25
-7.48
-5.41
-6.47
-10.12
-15.06
-19.64
-22.46
-22.68
-20.22
-15.68
-10.17
-5.12
-1.86
-1.39
-4.03
-9.21
-15.55
-21.10
-23.85
-22.22
-15.54
-4.22
10.38
26.36
41.84
55.45
66.63
75.51
82.64
88.55
93.34
96.42
96.54
92.01
81.36
64.13
41.39
15.86
-8.73
-28.80
-42.01
-47.92
-47.71
-43.50
-37.36
-30.77
-24.59
-19.39
-15.72
-14.10
-14.73
-17.27
-20.85
-24.31
-26.73
-27.72
-27.54
-26.83
-26.35
-26.64
-27.94
-30.10
-32.72
-35.20
-36.89
-37.24
-35.98
-33.22
-29.42
-25.21
-21.13
-17.46
-14.15
-10.98
-7.74
-4.42
-1.23
1.58
3.79
5.40
6.58
7.51
8.32
8.97
9.33
9.38
9.37
9.83
11.47
14.97
20.66
28.40
37.56
47.05
55.50
61.50
63.86
61.97
56.04
47.11
36.68
26.24
16.74
8.40
1.00
-5.78
-11.89
-16.97
-20.66
-22.91
-24.15
-24.92
-25.50
-25.51
-24.14
-20.67
-15.09
-8.36
-2.14
1.91
2.93
1.27
-1.65
-3.86
-3.64
-0.10
6.57
15.16
23.96
31.12
35.15
35.17
31.01
23.24
13.07
2.14
-7.88
-15.58
-20.21
-21.76
-20.82
-18.30
-15.07
-11.65
-8.30
-5.11
-2.28
-0.23
0.46
-0.77
-4.31
-10.16
-17.98
-27.05
-36.38
-44.85
-51.25
-54.48
-53.73
-48.74
-40.02
-28.88
-17.26
-7.20
-0.29
2.85
2.67
0.52
-1.99
-3.55
-3.58
-2.27
-0.33
1.41
2.34
2.25
1.29
-0.17
-1.70
-2.92
-3.64
-3.83
-3.61
-3.21
-2.88
-2.82
-3.16
-3.89
-4.91
-5.99
-6.86
-7.20
-6.82
-5.68
-4.06
-2.46
-1.52
-1.68
-3.04
-5.20
-7.39
-8.70
-8.40
-6.12
-1.92
3.80
10.48
17.56
24.55
30.99
36.40
40.27
42.08
41.50
38.54
33.62
27.53
21.18
15.30
10.25
5.97
2.16
-1.50
-5.17
-8.69
-11.68
-13.64
-14.12
-12.98
-10.42
-6.97
-3.33
-0.16
2.12
3.44
4.00
4.10
3.97
3.63
2.93
1.67
-0.31
-3.00
-6.23
-9.70
-12.98
-15.62
-17.17
-17.19
-15.36
-11.58
-6.14
0.24
6.48
11.42
14.13
14.28
12.23
8.80
5.01
1.65
-0.82
-2.23
-2.49
-1.49
0.85
4.47
9.03
13.95
18.61
22.52
25.51
27.63
29.08
30.03
30.59
30.89
31.10
31.49
32.32
33.73
35.56
37.34
38.41
37.98
35.38
30.18
22.27
11.86
-0.50
-14.10
-28.05
-41.41
-53.23
-62.65
-69.02
-71.97
-71.54
-68.12
-62.42
-55.29
-47.57
-39.96
-33.01
-27.13
-22.56
-19.43
-17.60
-16.68
-16.05
-15.02
-13.11
-10.24
-6.74
-3.26
-0.46
1.35
2.32
3.06
4.39
7.04
11.41
17.44
24.71
32.46
39.74
45.49
48.61
48.21
43.84
35.71
24.65
12.05
-0.51
-11.61
-20.29
-26.13
-29.29
-30.28
-29.71
-28.03
-25.40
-21.73
-16.89
-10.92
-4.21
2.59
8.71
13.51
16.64
18.03
17.83
16.36
14.17
12.01
10.83
11.42
14.16
18.71
24.17
29.35
33.34
35.89
37.56
39.48
42.95
48.96
57.91
69.50
82.77
96.24
108.19
117.01
121.63
121.80
118.04
111.27
102.13
90.51
75.19
54.29
26.08
-9.87
-51.86
-95.89
-136.39
-167.74
-185.86
-189.36
-179.73
-160.57
-136.22
-110.55
-86.33
-65.22
-48.24
-36.16
-29.49
-28.20
-31.43
-37.49
-44.23
-49.76
-52.94
-53.68
-52.79
-51.40
-50.46
-50.26
-50.42
-50.20
-48.89
-46.21
-42.41
-38.12
-34.10
-30.97
-29.05
-28.40
-28.70
-29.41
-29.74
-28.90
-26.28
-21.68
-15.38
-8.10
-0.68
6.11
11.72
15.92
18.65
20.03
20.32
19.96
19.61
20.02
21.96
25.95
32.11
40.03
48.80
57.20
63.97
68.12
69.16
67.12
62.45
55.70
47.35
37.67
26.88
15.36
3.85
-6.49
-14.37
-18.81
-19.54
-17.23
-13.33
-9.55
-7.33
-7.33
-9.36
-12.54
-15.77
-18.14
-19.14
-18.68
-16.94
-14.20
-10.75
-6.86
-2.83
1.03
4.43
7.14
9.10
10.34
10.98
11.18
11.10
10.92
10.85
11.04
11.52
12.11
12.46
12.19
11.06
9.19
6.99
5.03
3.73
3.16
3.02
2.79
2.06
0.75
-0.85
-2.32
-3.35
-3.92
-4.34
-5.00
-6.14
-7.66
-9.16
-10.05
-9.67
-7.45
-2.90
4.25
13.95
25.67
38.36
50.60
60.83
67.84
71.03
70.48
66.81
60.88
53.42
44.96
35.83
26.34
17.03
8.71
2.40
-1.00
-0.94
2.47
8.60
16.42
24.77
32.58
38.82
42.46
42.48
38.08
29.12
16.46
2.00
-11.79
-22.59
-29.04
-31.12
-29.99
-27.50
-25.57
-25.63
-28.45
-34.12
-42.18
-51.73
-61.56
-70.30
-76.67
-79.74
-79.18
-75.31
-68.98
-61.28
-53.23
-45.53
-38.45
-31.99
-26.05
-20.59
-15.65
-11.32
-7.59
-4.43
-1.87
-0.14
0.40
-0.60
-3.11
-6.51
-9.73
-11.51
-10.87
-7.53
-1.96
4.63
10.69
14.69
15.54
12.89
7.28
0.01
-7.18
-12.67
-15.53
-15.74
-14.19
-12.22
-10.99
-11.05
-12.12
-13.26
-13.33
-11.56
-7.83
-2.73
2.74
7.58
11.14
13.27
14.16
14.19
13.69
12.94
12.19
11.76
11.98
13.09
15.08
17.58
19.99
21.65
22.18
21.64
20.50
19.45
19.04
19.44
20.38
21.26
21.53
20.97
19.78
18.45
17.45
16.89
16.44
15.44
13.23
9.43
4.09
-2.25
-8.80
-14.72
-19.25
-21.89
-22.37
-20.69
-17.11
-12.10
-6.15
0.30
6.91
13.45
19.61
24.93
28.80
30.70
30.43
28.34
25.30
22.45
20.80
20.82
22.26
24.30
25.91
26.22
24.88
22.07
18.35
14.33
10.42
6.73
3.09
-0.73
-4.85
-9.25
-13.81
-18.43
-23.03
-27.56
-31.86
-35.60
-38.25
-39.26
-38.17
-34.80
-29.33
-22.17
-13.85
-4.80
4.75
14.77
25.25
36.07
46.89
57.18
66.38
74.11
80.20
84.71
87.69
88.97
88.13
84.57
77.77
67.60
54.34
38.72
21.63
3.96
-13.51
-30.10
-45.19
-58.12
-68.33
-75.47
-79.54
-80.87
-79.96
-77.22
-72.79
-66.65
-58.90
-50.05
-41.19
-33.78
-29.04
-27.35
-27.89
-28.79
-27.83
-23.36
-14.97
-3.66
8.75
20.41
30.28
38.39
45.65
53.23
62.05
72.46
84.39
97.52
111.50
125.88
140.00
152.98
163.87
171.90
176.76
178.45
176.98
172.09
162.93
148.15
126.07
95.08
54.33
4.34
-52.28
-110.76
-164.82
-208.17
-236.34
-248.06
-245.53
-233.53
-217.62
-202.42
-190.57
-182.57
-177.37
-173.16
-168.00
-160.28
-149.02
-134.07
-116.22
-97.08
-78.71
-63.06
-51.42
-44.00
-39.90
-37.25
-33.79
-27.45
-17.09
-2.84
13.87
30.87
46.04
58.13
67.19
74.46
81.74
90.47
100.98
112.11
121.48
126.14
123.64
113.01
95.40
74.02
53.35
37.80
30.30
31.32
38.69
48.40
55.83
57.16
50.44
35.84
15.45
-7.62
-30.13
-49.51
-64.22
-73.89
-78.95
-80.39
-79.47
-77.49
-75.64
-74.72
-74.96
-75.79
-76.03
-74.33
-69.71
-62.20
-52.99
-44.09
-37.62
-35.01
-36.38
-40.44
-44.98
-47.61
-46.68
-41.84
-34.14
-25.57
-18.33
-14.05
-13.34
-15.72
-19.86
-24.11
-26.96
-27.47
-25.39
-21.08
-15.31
-8.89
-2.36
4.24
11.41
20.04
31.00
44.73
60.77
77.45
91.96
100.85
101.14
91.51
73.13
49.66
26.21
7.68
-2.71
-4.23
1.71
12.49
25.37
38.04
48.67
55.80
58.28
55.63
48.29
37.78
26.22
15.68
7.44
1.75
-2.08
-5.14
-8.37
-12.25
-16.69
-21.20
-25.15
-28.02
-29.58
-29.91
-29.37
-28.39
-27.32
-26.24
-24.86
-22.66
-19.09
-13.84
-7.10
0.33
7.32
12.69
15.74
16.45
15.45
13.71
12.21
11.64
12.32
14.32
17.52
21.76
26.86
32.75
39.47
47.10
55.55
64.14
71.35
75.04
73.10
64.36
49.27
29.98
9.67
-8.52
-22.35
-30.91
-34.43
-33.85
-30.30
-24.87
-18.40
-11.54
-4.56
2.62
10.46
19.56
30.33
42.66
55.71
67.94
77.41
82.31
81.65
75.83
66.82
57.73
51.98
52.22
59.40
72.37
87.99
101.82
109.06
105.65
89.20
59.67
19.50
-26.80
-73.65
-115.61
-148.51
-170.18
-180.57
-181.30
-175.03
-164.66
-152.81
-141.39
-131.57
-123.77
-117.90
-113.52
-109.93
-106.32
-101.85
-95.80
-87.86
-78.22
-67.60
-56.99
-47.13
-38.13
-29.42
-20.12
-9.70
1.48
12.13
20.50
25.28
26.18
24.14
20.83
17.96
16.60
16.93
18.44
20.30
21.75
22.31
21.78
20.16
17.61
14.43
11.01
7.78
5.13
3.26
2.15
1.46
0.66
-0.87
-3.54
-7.36
-11.77
-15.81
-18.37
-18.57
-16.07
-11.14
-4.60
2.52
9.25
14.95
19.44
22.93
25.86
28.68
31.64
34.70
37.59
40.01
41.78
43.00
44.06
45.47
47.62
50.56
53.88
56.80
58.41
58.03
55.40
50.71
44.40
36.98
28.82
20.22
11.51
3.09
-4.55
-11.02
-16.20
-20.11
-22.81
-24.28
-24.39
-23.12
-20.69
-17.69
-14.83
-12.61
-11.08
-9.92
-8.60
-6.80
-4.57
-2.29
-0.40
0.81
1.33
1.34
1.04
0.56
-0.12
-1.04
-2.17
-3.32
-4.18
-4.38
-3.72
-2.28
-0.46
1.05
1.60
0.79
-1.22
-3.78
-5.99
-7.06
-6.61
-4.85
-2.41
-0.05
1.55
1.96
1.01
-1.22
-4.32
-7.48
-9.54
-9.26
-5.84
0.74
9.50
18.80
26.94
32.76
35.93
36.91
36.42
34.96
32.62
29.21
24.58
18.98
13.13
7.86
3.77
0.95
-1.05
-2.91
-5.15
-7.94
-11.18
-14.70
-18.33
-21.85
-24.78
-26.27
-25.37
-21.52
-15.09
-7.47
-0.72
3.25
3.34
-0.29
-6.37
-12.97
-18.16
-20.46
-19.16
-14.38
-6.93
1.85
10.52
17.83
23.11
26.29
27.81
28.31
28.41
28.50
28.75
29.17
29.65
29.96
29.81
28.93
27.16
24.56
21.49
18.43
15.85
14.05
12.99
12.33
11.55
10.16
7.93
5.00
1.83
-1.05
-3.21
-4.60
-5.49
-6.44
-7.98
-10.42
-13.72
-17.43
-20.79
-22.96
-23.21
-21.28
-17.43
-12.51
-7.61
-3.70
-1.28
-0.21
0.15
0.62
1.80
3.81
6.23
8.30
9.24
8.74
7.16
5.63
5.70
8.89
16.03
26.89
40.04
53.09
63.22
67.85
65.37
55.64
40.20
21.98
4.56
-8.89
-16.41
-17.87
-14.77
-9.66
-5.22
-3.48
-5.30
-10.21
-16.66
-22.45
-25.37
-23.84
-17.32
-6.54
6.87
20.86
33.55
43.61
50.31
53.37
52.72
48.35
40.38
29.18
15.58
0.82
-13.60
-26.35
-36.55
-43.93
-48.67
-51.16
-51.78
-50.83
-48.70
-46.04
-43.81
-43.04
-44.40
-47.79
-52.24
-56.26
-58.43
-58.00
-55.21
-51.14
-47.19
-44.45
-43.18
-42.73
-41.74
-38.74
-32.65
-23.18
-10.86
3.09
17.17
29.92
40.26
47.72
52.67
56.22
59.87
64.90
71.56
78.59
83.28
82.22
72.72
54.07
28.28
-0.37
-26.63
-46.14
-56.74
-58.87
-54.80
-47.40
-38.92
-30.48
-22.35
-14.52
-7.31
-1.38
2.44
3.66
2.35
-0.95
-5.34
-9.88
-13.63
-15.91
-16.29
-14.75
-11.71
-7.94
-4.30
-1.45
0.30
1.00
0.89
0.20
-1.04
-2.94
-5.64
-9.10
-13.01
-16.85
-19.98
-21.95
-22.66
-22.45
-21.94
-21.65
-21.75
-21.80
-20.99
-18.40
-13.60
-6.94
0.44
6.94
11.12
12.18
10.21
6.10
1.21
-3.06
-5.65
-5.99
-3.88
0.63
7.31
15.72
25.07
34.28
41.99
46.83
47.71
44.35
37.52
28.80
20.17
13.34
9.43
8.62
10.43
14.14
19.53
27.08
37.51
50.98
66.32
80.91
90.82
92.34
83.08
63.32
35.96
5.34
-24.51
-51.24
-74.62
-93.28
-104.96
-107.91
-102.06
-89.32
-72.48
-53.96
-35.78
-19.85
-10.28
-8.88
-17.29
-36.44
-65.99
-104.06
-146.80
-189.04
-217.15
-220.41
-194.40
-144.22
-82.06
-21.46
28.34
64.90
93.78
120.75
148.13
175.24
199.49
219.03
234.65
246.77
257.74
269.44
281.66
291.62
295.61
290.62
275.80
252.91
225.40
197.23
171.05
147.33
124.52
100.62
74.17
44.80
13.05
-20.39
-54.85
-89.87
-124.79
-158.11
-187.16
-208.68
-219.92
-219.57
-208.22
-187.77
-160.90
-130.34
-98.31
-66.37
-35.57
-6.43
20.97
47.15
73.22
100.53
130.09
162.06
195.29
227.25
254.63
274.28
284.33
284.90
277.94
266.32
252.40
237.55
222.16
206.18
189.60
172.96
156.83
141.79
128.14
115.30
102.47
89.20
75.84
63.36
53.00
45.34
40.14
36.41
31.69
23.67
11.42
-4.12
-20.65
-35.26
-46.56
-54.45
-59.99
-67.60
-81.07
-101.28
-125.49
-148.85
-165.76
-174.71
-176.64
-174.25
-176.55
-191.21
-220.27
-258.92
-298.88
-330.41
-351.67
-364.70
-373.63
-392.21
-432.94
-500.82
-591.27
-693.67
-791.95
-876.81
-938.87
-968.95
-973.09
-963.99
-954.22
-951.47
-958.48
-969.61
-984.94
-1001.59
-943.24
-766.00
-480.00
-146.97
161.97
373.79
510.14
599.27
660.09
700.62
716.66
696.18
635.50
543.97
438.25
338.70
250.15
171.82
102.67
52.48
30.16
40.22
78.14
132.45
195.16
254.53
303.53
340.52
360.91
361.98
344.37
314.61
283.64
266.37
269.74
294.92
338.56
388.57
429.77
449.71
443.41
406.07
345.34
275.70
214.00
171.17
146.76
131.82
116.74
97.31
75.50
57.84
48.23
45.59
45.57
43.70
37.63
28.14
18.12
10.44
6.96
6.57
5.50
-0.68
-14.71
-36.97
-65.55
-96.87
-126.31
-148.28
-155.10
-145.10
-121.31
-90.41
-60.34
-36.98
-22.08
-13.07
-5.25
4.26
13.47
16.96
9.38
-10.99
-40.22
-70.28
-92.91
-102.84
-99.48
-86.43
-68.64
-48.63
-29.79
-13.37
0.33
10.85
17.59
20.45
20.18
18.73
18.51
21.35
28.56
40.12
54.37
68.59
80.05
86.80
88.55
86.58
82.85
79.47
77.89
78.28
79.87
81.46
82.38
82.82
83.88
87.42
95.83
111.21
133.51
159.62
182.66
194.22
187.17
158.27
109.70
46.60
-21.29
-84.27
-135.82
-175.01
-204.36
-227.46
-247.13
-263.76
-276.54
-284.20
-286.85
-285.57
-283.38
-282.74
-284.79
-289.63
-295.90
-302.82
-310.06
-317.75
-315.20
-292.48
-242.19
-163.66
-65.04
40.89
139.26
217.93
270.05
296.05
301.01
292.77
284.00
276.57
270.45
264.97
260.92
259.60
262.73
270.68
283.52
301.68
325.88
359.71
400.43
446.65
494.19
535.79
561.96
564.84
541.26
493.44
429.41
358.90
290.88
230.45
179.04
135.63
98.80
67.65
41.25
19.09
0.04
-17.17
-33.63
-49.36
-63.56
-74.70
-82.14
-86.33
-88.25
-89.51
-91.59
-95.47
-100.98
-106.94
-111.62
-114.11
-114.35
-112.79
-110.35
-108.74
-108.98
-110.62
-112.22
-111.72
-108.87
-104.32
-98.98
-93.81
-92.31
-96.22
-104.28
-113.21
-118.43
-120.04
-119.74
-119.26
-119.96
-128.53
-148.14
-176.34
-206.81
-230.63
-248.22
-262.87
-277.60
-294.73
-324.66
-372.33
-433.72
-498.65
-552.41
-594.74
-630.06
-663.10
-699.24
-755.24
-840.32
-949.71
-1066.21
-1162.50
-1227.98
-1259.62
-1259.32
-1150.25
-907.44
-569.40
-215.30
44.53
221.22
340.25
420.29
482.11
531.97
560.04
561.11
540.28
510.33
489.97
479.51
473.69
467.48
455.57
426.22
375.09
307.84
236.77
178.75
136.19
106.75
87.30
74.86
61.67
43.08
20.07
-1.79
-12.74
-10.57
5.43
32.95
69.73
110.96
152.83
193.16
230.62
264.67
290.86
305.31
307.24
299.56
286.58
272.87
261.46
252.89
246.04
238.00
226.91
212.90
197.71
182.96
168.76
153.35
134.05
108.79
77.48
42.47
8.05
-20.67
-39.85
-48.10
-46.85
-39.41
-29.49
-19.79
-11.35
-3.82
3.84
12.36
21.70
31.21
40.04
47.68
54.37
61.07
69.19
80.00
93.99
110.43
127.40
142.14
151.94
154.98
150.89
140.92
127.48
113.43
101.12
91.58
84.04
75.88
63.27
42.31
10.38
-32.61
-83.60
-136.65
-184.32
-219.60
-237.91
-238.15
-222.80
-196.67
-165.17
-132.71
-101.84
-73.42
-47.49
-24.32
-4.90
9.31
17.18
18.70
15.20
8.95
2.25
-3.51
-8.21
-12.66
-17.79
-23.80
-29.80
-34.22
-35.61
-33.45
-28.44
-22.17
-16.32
-12.00
-9.43
-8.11
-7.49
-7.34
-7.92
-9.61
-12.40
-15.50
-17.36
-16.13
-10.41
0.20
14.92
31.99
49.26
64.76
77.14
85.80
90.77
92.45
91.42
88.23
83.37
77.28
70.38
63.05
55.60
48.27
41.16
34.30
27.65
21.13
14.63
7.96
0.89
-6.84
-15.47
-25.18
-35.96
-47.57
-59.53
-71.17
-81.71
-90.34
-96.30
-98.95
-97.95
-93.33
-85.58
-75.47
-63.76
-51.07
-37.96
-25.25
-14.22
-6.35
-2.67
-3.00
-5.72
-8.14
-7.69
-2.96
5.58
16.01
25.88
33.28
37.52
39.08
39.07
38.62
38.51
39.03
40.09
41.37
42.41
42.73
41.84
39.31
34.96
29.00
22.20
15.87
11.55
10.55
13.56
20.37
29.96
40.83
51.39
60.35
66.90
70.85
72.54
72.83
72.83
73.59
75.86
79.70
84.45
88.94
91.88
92.36
90.22
86.11
81.26
77.10
74.82
74.98
77.29
80.49
82.54
81.04
73.81
59.67
39.07
14.29
-10.99
-32.65
-47.37
-53.69
-52.34
-45.92
-37.80
-31.02
-27.40
-27.33
-30.14
-34.77
-40.29
-46.11
-51.86
-57.21
