1660749977.00
64.000000
-0.00
-0.00
-0.00
-0.00
-0.00
-0.00
-0.00
-0.00
-0.00
-0.00
0.00
0.01
0.01
-0.00
-0.03
-0.05
-0.05
0.00
0.13
0.36
0.66
1.01
1.37
1.72
2.06
2.40
2.79
3.24
3.80
4.42
5.06
5.66
6.20
6.68
7.15
7.68
8.31
9.14
10.09
11.04
11.88
12.56
13.14
13.76
14.65
15.96
17.91
20.32
22.90
25.38
27.58
29.57
31.68
34.32
37.81
42.54
48.15
54.10
59.83
64.97
69.58
74.14
79.34
85.71
93.76
103.00
112.62
121.73
129.77
136.75
143.30
150.75
157.77
166.64
177.95
191.79
206.97
220.57
228.25
225.36
208.53
176.87
132.76
80.05
23.07
-34.94
-92.44
-149.16
-205.23
-260.37
-313.74
-363.87
-409.83
-450.91
-486.50
-515.74
-537.23
-549.22
-549.96
-538.37
-514.20
-478.67
-433.88
-382.45
-327.03
-269.85
-212.63
-156.65
-102.92
-52.34
-5.88
35.56
71.33
101.16
125.22
144.02
158.30
168.74
175.96
180.32
182.09
181.51
178.86
174.51
168.88
162.41
155.41
148.09
140.56
132.85
124.99
117.08
109.23
101.57
94.21
87.16
80.35
73.69
67.10
60.59
54.27
48.30
42.85
37.98
33.62
29.56
25.53
21.38
17.09
12.86
8.99
5.76
3.30
1.44
-0.16
-1.93
-4.15
-6.82
-9.66
-12.19
-14.07
-15.15
-15.62
-15.86
-16.28
-17.15
-18.66
-21.03
-24.30
-28.14
-31.53
-32.76
-30.05
-22.42
-10.39
4.04
18.17
29.82
38.04
43.17
46.16
47.69
47.81
46.17
42.64
37.71
32.43
27.86
24.53
22.27
20.45
18.47
16.03
13.23
10.40
7.89
5.85
4.30
3.08
1.91
0.53
-1.20
-3.22
-5.26
-6.92
-7.80
-7.74
-6.83
-5.45
-4.06
-3.10
-2.70
-2.70
-2.68
-2.14
-0.75
1.52
4.36
7.19
9.37
10.49
10.48
9.65
8.55
7.69
7.45
7.92
9.01
10.54
12.33
14.26
16.16
17.84
18.93
19.06
17.97
15.68
12.54
9.20
6.08
3.43
1.17
-1.05
-3.55
-6.48
-9.66
-12.70
-15.13
-16.68
-17.28
-17.07
-16.32
-15.27
-14.12
-12.98
-11.88
-10.76
-9.53
-8.06
-6.31
-4.41
-2.61
-1.24
-0.60
-0.80
-1.72
-3.06
-4.44
-5.49
-5.96
-5.76
-4.90
-3.52
-1.82
-0.03
1.58
2.85
3.70
4.15
4.31
4.33
4.38
4.65
5.28
6.34
7.80
9.51
11.21
12.64
13.53
13.79
13.45
12.77
12.13
12.03
12.88
14.85
17.76
21.14
24.29
26.65
27.92
28.37
28.62
29.53
31.92
36.26
42.56
50.41
59.20
68.27
77.03
84.86
91.08
94.94
95.76
93.18
87.42
79.29
69.96
60.60
51.90
43.87
35.95
27.32
17.29
5.50
-8.12
-23.49
-40.57
-59.31
-79.45
-100.23
-120.34
-138.05
-151.69
-160.07
-162.87
-160.67
-154.67
-146.33
-136.94
-127.44
-118.39
-110.02
-102.43
-95.59
-89.34
-83.29
-76.87
-69.46
-60.61
-50.28
-38.87
-27.16
-16.03
-6.18
2.01
8.54
13.65
17.67
20.92
23.61
25.84
27.64
28.98
29.88
30.37
30.56
30.52
30.25
29.66
28.63
27.08
25.02
22.61
20.01
17.34
14.62
11.78
8.72
5.40
1.87
-1.75
-5.29
-8.62
-11.67
-14.43
-16.98
-19.39
-21.75
-24.09
-26.40
-28.49
-30.02
-30.47
-29.29
-26.09
-20.84
-14.00
-6.46
0.67
6.42
10.23
12.02
12.14
11.18
9.72
8.22
6.99
6.22
5.96
6.18
6.76
7.49
8.19
8.75
9.06
9.11
8.87
8.35
7.63
6.89
6.40
6.38
6.85
7.62
8.31
8.57
8.25
7.47
6.52
5.69
5.08
4.64
4.18
3.50
2.50
1.22
-0.17
-1.39
-2.10
-2.00
-0.92
1.05
3.59
6.23
8.58
10.46
11.85
12.85
13.52
13.80
13.60
12.89
11.79
10.52
9.34
8.44
7.85
7.50
7.26
7.04
6.83
6.67
6.58
6.52
6.42
6.17
5.72
5.04
4.19
3.25
2.31
1.42
0.61
-0.08
-0.58
-0.78
-0.57
0.12
1.21
2.48
3.56
4.13
4.02
3.37
2.59
2.28
2.99
4.97
8.08
11.76
15.28
17.94
19.32
19.35
18.24
16.37
14.11
11.76
9.52
7.54
5.94
4.76
3.97
3.42
2.92
2.28
1.38
0.24
-1.02
-2.22
-3.15
-3.69
-3.83
-3.68
-3.41
-3.23
-3.22
-3.33
-3.43
-3.39
-3.16
-2.82
-2.51
-2.37
-2.45
-2.68
-3.02
-3.41
-3.88
-4.41
-4.92
-5.13
-4.64
-3.09
-0.32
3.50
7.88
12.16
15.72
18.14
19.32
19.38
18.59
17.22
15.48
13.51
11.42
9.38
7.52
5.99
4.87
4.12
3.62
3.22
2.74
2.09
1.27
0.36
-0.51
-1.24
-1.77
-2.13
-2.37
-2.61
-2.93
-3.35
-3.82
-4.24
-4.58
-4.89
-5.37
-6.19
-7.37
-8.64
-9.49
-9.37
-7.92
-5.18
-1.61
2.11
5.34
7.73
9.23
10.00
10.26
10.17
9.82
9.30
8.72
8.25
8.00
8.04
8.25
8.42
8.28
7.63
6.40
4.73
2.87
1.12
-0.37
-1.61
-2.78
-4.12
-5.78
-7.76
-9.84
-11.70
-13.06
-13.79
-13.95
-13.78
-13.55
-13.51
-13.79
-14.39
-15.13
-15.68
-15.65
-14.63
-12.40
-9.00
-4.74
-0.15
4.22
7.90
10.68
12.57
13.77
14.52
15.01
15.33
15.48
15.40
15.08
14.54
13.87
13.14
12.40
11.68
11.02
10.42
9.93
9.51
9.07
8.51
7.75
6.83
5.89
5.12
4.67
4.61
4.92
5.58
6.58
7.86
9.26
10.52
11.28
11.22
10.16
8.19
5.68
3.20
1.41
0.79
1.50
3.26
5.45
7.31
8.23
7.98
6.72
4.86
2.80
0.74
-1.34
-3.51
-5.79
-8.02
-9.97
-11.50
-12.68
-13.77
-15.04
-16.63
-18.41
-20.05
-21.16
-21.46
-20.97
-19.87
-18.55
-17.33
-16.42
-15.87
-15.57
-15.36
-15.13
-14.89
-14.75
-14.85
-15.23
-15.74
-16.04
-15.72
-14.42
-11.96
-8.46
-4.25
0.18
4.38
8.00
10.88
13.02
14.48
15.34
15.64
15.44
14.85
14.10
13.41
12.98
12.85
12.91
12.97
12.86
12.55
12.10
11.63
11.22
10.87
10.51
10.06
9.47
8.72
7.82
6.82
5.72
4.60
3.50
2.54
1.75
1.15
0.67
0.19
-0.40
-1.14
-1.90
-2.38
-2.21
-0.99
1.47
5.09
9.49
14.13
18.52
22.39
25.74
28.78
31.77
34.88
38.13
41.49
44.94
48.51
52.31
56.46
61.00
65.94
71.21
76.74
82.46
88.40
94.72
101.80
110.13
120.18
132.15
145.68
159.75
172.68
182.59
187.75
187.06
180.24
167.85
151.06
131.30
109.87
87.68
65.05
41.78
17.38
-8.57
-36.05
-64.25
-91.64
-116.25
-136.25
-150.45
-158.68
-161.77
-161.25
-158.83
-156.01
-153.81
-152.71
-152.67
-153.30
-154.04
-154.26
-153.54
-151.81
-149.33
-146.53
-143.84
-141.42
-139.16
-136.72
-133.71
-129.84
-124.95
-119.04
-112.22
-104.77
-97.06
-89.59
-82.79
-76.93
-71.96
-67.51
-63.02
-58.00
-52.18
-45.65
-38.84
-32.35
-26.77
-22.48
-19.49
-17.46
-15.78
-13.81
-11.01
-7.14
-2.28
3.21
8.78
13.90
18.13
21.24
23.25
24.32
24.70
24.64
24.30
23.82
23.26
22.71
22.23
21.89
21.72
21.74
21.93
22.24
22.58
22.84
22.89
22.62
22.03
21.19
20.26
19.38
18.65
18.07
17.58
17.06
16.44
15.64
14.64
13.43
12.03
10.51
8.98
7.60
6.49
5.69
5.13
4.67
4.12
3.33
2.26
0.99
-0.25
-1.13
-1.31
-0.52
1.32
3.99
7.01
9.77
11.76
12.75
12.83
12.36
11.71
11.14
10.71
10.34
9.91
9.39
8.81
8.26
7.77
7.37
7.05
6.81
6.66
6.56
6.48
6.37
6.23
6.07
5.92
5.77
5.53
5.13
4.58
4.00
3.55
3.38
3.50
3.74
3.81
3.49
2.69
1.55
0.33
-0.71
-1.42
-1.80
-2.02
-2.31
-2.88
-3.72
-4.65
-5.26
-5.13
-3.98
-1.85
0.93
3.84
6.42
8.39
9.70
10.45
10.79
10.81
10.56
10.12
9.57
9.04
8.61
8.30
8.16
8.19
8.45
8.99
9.79
10.75
11.69
12.47
13.05
13.48
13.85
14.25
14.68
15.01
15.07
14.70
13.86
12.65
11.27
9.95
8.78
7.69
6.49
4.97
3.05
0.83
-1.43
-3.46
-5.05
-6.12
-6.68
-6.77
-6.42
-5.71
-4.76
-3.77
-2.91
-2.32
-1.96
-1.69
-1.37
-0.90
-0.30
0.30
0.79
1.13
1.37
1.66
2.19
3.06
4.25
5.61
6.90
7.89
8.46
8.65
8.56
8.31
7.96
7.52
6.94
6.19
5.28
4.23
3.03
1.67
0.13
-1.55
-3.24
-4.78
-6.04
-7.01
-7.78
-8.52
-9.42
-10.61
-12.14
-13.86
-15.54
-16.83
-17.38
-16.99
-15.60
-13.46
-10.93
-8.45
-6.32
-4.68
-3.51
-2.70
-2.11
-1.66
-1.31
-1.06
-0.91
-0.80
-0.68
-0.45
-0.04
0.55
1.25
1.95
2.55
3.00
3.37
3.73
4.12
4.53
4.85
4.95
4.79
4.41
3.93
3.49
3.15
2.87
2.53
2.01
1.22
0.17
-0.96
-1.97
-2.67
-3.03
-3.21
-3.46
-4.02
-4.89
-5.84
-6.50
-6.45
-5.49
-3.65
-1.18
1.57
4.25
6.60
8.43
9.56
9.89
9.38
8.14
6.34
4.28
2.23
0.46
-0.88
-1.72
-2.10
-2.13
-1.98
-1.79
-1.70
-1.84
-2.32
-3.29
-4.82
-6.90
-9.42
-12.10
-14.62
-16.64
-17.93
-18.38
-18.02
-16.93
-15.25
-13.09
-10.58
-7.86
-5.17
-2.79
-1.01
0.04
0.45
0.61
1.05
2.30
4.60
7.86
11.64
15.39
18.64
21.12
22.75
23.58
23.64
22.95
21.55
19.55
17.18
14.76
12.65
11.08
10.14
9.73
9.60
9.51
9.21
8.60
7.71
6.65
5.61
4.72
4.04
3.56
3.20
2.92
2.65
2.33
1.96
1.54
1.09
0.63
0.19
-0.28
-0.82
-1.53
-2.46
-3.60
-4.82
-5.91
-6.63
-6.73
-6.05
-4.55
-2.35
0.29
2.98
5.35
7.07
8.04
8.35
8.26
8.05
7.89
7.78
7.58
7.11
6.33
5.34
4.37
3.67
3.35
3.33
3.36
3.25
2.88
2.37
1.94
1.75
1.74
1.69
1.27
0.27
-1.21
-2.86
-4.31
-5.31
-5.84
-6.11
-6.35
-6.71
-7.16
-7.57
-7.84
-7.97
-8.07
-8.27
-8.58
-8.83
-8.74
-8.02
-6.49
-4.18
-1.36
1.56
4.12
6.04
7.21
7.77
7.99
8.09
8.20
8.25
8.10
7.65
6.91
6.06
5.31
4.83
4.62
4.57
4.50
4.33
4.05
3.72
3.41
3.10
2.77
2.32
1.75
1.07
0.34
-0.40
-1.14
-1.86
-2.57
-3.22
-3.80
-4.32
-4.80
-5.30
-5.89
-6.59
-7.40
-8.27
-9.06
-9.60
-9.69
-9.16
-7.95
-6.15
-3.97
-1.73
0.22
1.63
2.36
2.43
2.03
1.39
0.72
0.06
-0.66
-1.57
-2.74
-3.99
-5.03
-5.51
-5.28
-4.44
-3.35
-2.42
-1.88
-1.72
-1.73
-1.63
-1.30
-0.78
-0.20
0.27
0.61
0.90
1.24
1.69
2.17
2.53
2.58
2.18
1.32
0.11
-1.27
-2.63
-3.83
-4.78
-5.44
-5.70
-5.45
-4.61
-3.15
-1.22
0.88
2.81
4.25
5.05
5.27
5.14
4.89
4.70
4.56
4.35
3.95
3.26
2.34
1.36
0.56
0.13
0.12
0.44
0.94
1.47
1.89
2.16
2.25
2.16
1.89
1.50
1.08
0.75
0.63
0.73
1.00
1.32
1.54
1.57
1.35
0.89
0.25
-0.45
-1.08
-1.50
-1.69
-1.74
-1.78
-1.95
-2.24
-2.51
-2.47
-1.83
-0.43
1.64
4.06
6.38
8.18
9.23
9.52
9.32
9.02
8.98
9.35
10.03
10.75
11.26
11.49
11.59
11.91
12.84
14.65
17.35
20.72
24.41
28.03
31.05
32.74
32.44
29.91
25.57
20.48
16.06
13.53
13.63
16.02
19.39
22.14
23.15
22.32
20.40
18.58
17.98
19.44
22.79
26.93
30.54
32.81
33.80
34.21
34.85
36.25
38.81
42.07
44.88
45.91
44.20
39.22
30.54
17.76
-1.53
-26.10
-51.27
-71.47
-83.54
-87.51
-85.17
-78.82
-70.43
-61.34
-51.93
-42.51
-33.75
-26.38
-20.85
-16.84
-13.74
-10.85
-7.56
-3.27
2.02
7.63
12.65
16.35
18.80
20.37
21.61
22.95
24.73
26.68
28.01
27.71
24.60
18.81
10.91
1.74
-7.81
-17.00
-25.64
-34.06
-41.46
-48.85
-56.30
-63.31
-69.08
-72.97
-74.66
-74.46
-73.15
-71.67
-71.02
-71.71
-74.14
-78.28
-83.39
-87.73
-88.77
-84.07
-72.46
-55.06
-34.83
-15.73
-1.01
8.00
12.14
13.55
14.30
15.29
16.63
17.94
19.02
20.20
22.10
25.10
28.96
32.86
35.84
37.12
36.61
34.77
32.33
29.90
27.81
26.05
24.52
23.10
21.86
20.94
20.37
20.06
19.71
18.97
17.61
15.55
12.94
10.03
7.07
4.28
1.76
-0.43
-2.28
-3.74
-4.84
-5.70
-6.50
-7.44
-8.65
-10.09
-11.59
-12.92
-13.86
-14.39
-14.73
-15.14
-15.85
-16.86
-17.94
-18.68
-19.21
-19.47
-19.49
-19.38
-19.27
-19.25
-19.33
-19.51
-19.78
-20.19
-20.73
-21.44
-22.41
-23.68
-25.30
-27.19
-29.10
-30.58
-31.05
-29.96
-27.03
-22.46
-16.86
-11.04
-5.73
-1.30
2.17
4.80
6.71
7.81
7.93
7.02
5.34
3.38
1.67
0.51
-0.21
-0.82
-1.68
-2.88
-4.16
-5.13
-5.48
-5.22
-4.70
-4.46
-4.94
-6.34
-8.60
-11.41
-14.36
-16.99
-18.90
-19.91
-20.17
-20.17
-20.62
-22.20
-25.25
-29.71
-35.00
-40.29
-44.63
-47.17
-47.30
-44.75
-39.61
-32.33
-23.66
-14.54
-5.86
1.67
7.69
12.18
15.40
17.73
19.43
20.67
21.50
22.07
22.66
23.72
25.64
28.49
31.91
35.21
37.68
38.90
38.90
38.09
36.95
35.72
34.31
32.34
29.39
25.19
19.80
13.64
7.37
1.62
-3.23
-7.22
-10.86
-14.91
-20.12
-26.87
-35.04
-43.85
-52.11
-58.45
-61.65
-60.99
-56.43
-48.60
-38.66
-27.96
-17.70
-8.76
-1.57
3.83
7.75
10.73
13.43
16.42
19.90
23.60
26.84
28.87
29.28
28.27
26.58
25.18
24.75
25.47
27.02
28.87
30.59
32.06
33.30
34.37
35.23
35.73
35.81
35.57
35.27
35.27
35.72
36.49
37.10
36.86
35.07
31.39
25.97
19.65
13.69
9.42
7.71
8.58
11.24
14.36
16.59
17.13
15.87
13.36
10.42
7.72
5.49
3.49
1.16
-2.06
-6.45
-11.85
-17.80
-23.67
-28.94
-33.29
-36.54
-38.51
-38.92
-37.52
-34.28
-29.59
-24.25
-19.14
-14.84
-11.33
-8.08
-4.40
0.06
5.05
9.82
13.49
15.45
15.60
14.23
11.81
8.81
5.60
2.62
0.50
0.08
2.18
7.30
15.38
25.68
36.98
47.94
57.49
65.09
70.74
74.77
77.55
79.20
79.52
78.26
75.25
70.73
65.27
59.50
53.83
48.19
42.15
35.21
27.22
18.48
9.78
1.97
-4.35
-9.17
-12.99
-16.59
-20.68
-25.67
-31.51
-37.94
-44.55
-51.08
-57.36
-63.29
-68.72
-73.29
-76.49
-77.67
-76.25
-71.91
-64.65
-54.82
-43.05
-30.10
-16.73
-3.70
8.31
18.71
27.04
33.07
36.94
39.07
40.13
40.82
41.65
42.86
44.43
46.17
47.84
49.29
50.49
51.56
52.71
54.15
56.06
58.47
61.26
64.12
66.66
68.44
69.13
68.51
66.54
63.32
58.99
53.76
47.81
41.33
34.45
27.15
19.27
10.56
0.89
-9.49
-19.89
-29.22
-36.35
-40.54
-41.79
-40.83
-38.88
-37.11
-36.33
-36.79
-38.31
-40.46
-42.81
-45.03
-46.82
-47.90
-47.94
-46.63
-43.78
-39.54
-34.35
-28.85
-23.62
-18.90
-14.43
-9.63
-3.87
3.02
10.59
17.80
23.47
26.77
27.62
26.68
25.00
23.57
22.96
23.23
24.08
25.17
26.31
27.41
28.38
28.96
28.76
27.43
24.91
21.67
18.60
16.67
16.62
18.62
22.16
26.35
30.25
33.17
34.86
35.37
34.90
33.65
31.76
29.33
26.43
23.12
19.34
14.99
10.02
4.54
-1.09
-6.33
-10.65
-13.77
-15.79
-17.16
-18.51
-20.40
-23.20
-26.92
-31.24
-35.65
-39.53
-42.45
-44.16
-44.76
-44.57
-44.05
-43.71
-43.95
-45.00
-46.72
-48.54
-49.50
-48.54
-44.90
-38.52
-30.14
-21.07
-12.61
-5.55
0.08
4.79
9.21
13.68
18.10
22.11
25.42
28.00
30.14
32.18
34.29
36.27
37.70
38.16
37.51
36.04
34.30
32.87
32.01
31.50
30.73
28.93
25.56
20.59
14.54
8.31
2.85
-1.22
-3.73
-5.01
-5.67
-6.36
-7.54
-9.38
-11.81
-14.63
-17.65
-20.77
-23.91
-26.85
-29.15
-30.14
-29.13
-25.65
-19.72
-11.89
-3.09
5.65
13.47
19.74
24.07
26.22
26.10
23.84
19.87
14.90
9.75
5.21
1.84
-0.12
-0.61
0.20
2.00
4.40
6.87
8.96
10.32
10.87
10.76
10.29
9.80
9.57
9.77
10.44
11.54
12.95
14.56
16.28
18.06
19.85
21.57
23.11
24.37
25.28
25.89
26.28
26.53
26.62
26.51
26.20
25.85
25.68
25.79
26.02
25.86
24.60
21.61
16.62
9.79
1.67
-6.99
-15.51
-23.31
-30.00
-35.37
-39.36
-42.10
-43.87
-45.01
-45.75
-46.13
-45.90
-44.58
-41.67
-36.92
-30.52
-23.22
-16.16
-10.60
-7.49
-7.13
-9.11
-12.48
-16.05
-18.84
-20.25
-20.22
-19.02
-17.13
-14.95
-12.73
-10.52
-8.22
-5.70
-2.88
0.28
3.83
7.99
13.22
20.18
29.54
41.64
56.21
72.16
87.49
99.52
105.28
102.24
89.13
66.53
37.07
4.89
-25.40
-50.03
-67.03
-76.46
-79.89
-79.46
-77.01
-73.69
-70.07
-66.45
-63.19
-60.75
-59.42
-59.12
-59.28
-59.01
-57.44
-54.07
-49.04
-42.98
-36.82
-31.36
-27.02
-23.73
-21.06
-18.46
-15.52
-12.06
-8.17
-4.00
0.31
4.73
9.28
13.94
18.59
22.97
26.72
29.53
31.19
31.68
31.15
29.89
28.22
26.46
24.81
23.39
22.20
21.17
20.25
19.39
18.62
17.94
17.33
16.71
15.93
14.87
13.45
11.68
9.62
7.32
4.80
2.00
-1.06
-4.34
-7.71
-11.00
-14.08
-16.88
-19.38
-21.64
-23.70
-25.61
-27.35
-28.78
-29.60
-29.49
-28.21
-25.81
-22.66
-19.32
-16.33
-13.97
-12.20
-10.76
-9.39
-8.04
-6.82
-5.92
-5.40
-5.11
-4.80
-4.23
-3.36
-2.37
-1.53
-1.07
-1.03
-1.27
-1.53
-1.60
-1.34
-0.80
-0.16
0.39
0.70
0.74
0.61
0.42
0.24
0.02
-0.36
-0.98
-1.79
-2.62
-3.27
-3.61
-3.66
-3.64
-3.83
-4.44
-5.51
-6.87
-8.18
-9.06
-9.22
-8.55
-7.15
-5.27
-3.22
-1.25
0.49
1.98
3.19
4.07
4.49
4.41
3.85
3.02
2.18
1.60
1.37
1.44
1.61
1.68
1.51
1.13
0.70
0.45
0.53
0.91
1.42
1.76
1.73
1.31
0.70
0.15
-0.11
-0.08
0.04
-0.04
-0.50
-1.33
-2.38
-3.47
-4.45
-5.24
-5.81
-6.11
-6.18
-6.10
-6.05
-6.23
-6.74
-7.51
-8.30
-8.77
-8.60
-7.60
-5.80
-3.43
-0.81
1.65
3.64
4.98
5.69
5.93
5.92
5.79
5.56
5.19
4.68
4.14
3.75
3.63
3.77
3.98
4.02
3.77
3.25
2.66
2.24
2.15
2.37
2.76
3.10
3.22
2.98
2.35
1.36
0.12
-1.16
-2.23
-2.91
-3.10
-2.91
-2.56
-2.35
-2.51
-3.08
-3.91
-4.73
-5.31
-5.54
-5.55
-5.62
-6.03
-6.92
-8.23
-9.76
-11.25
-12.53
-13.50
-14.10
-14.18
-13.53
-11.97
-9.54
-6.58
-3.64
-1.32
0.00
0.34
0.03
-0.40
-0.55
-0.32
0.16
0.61
0.76
0.53
0.02
-0.56
-0.96
-1.03
-0.76
-0.27
0.28
0.75
1.09
1.28
1.38
1.42
1.41
1.32
1.17
0.98
0.80
0.64
0.52
0.40
0.25
0.05
-0.21
-0.54
-0.97
-1.55
-2.24
-2.97
-3.62
-4.13
-4.51
-4.87
-5.37
-6.09
-7.06
-8.17
-9.27
-10.17
-10.68
-10.64
-9.93
-8.51
-6.48
-4.06
-1.58
0.58
2.15
3.00
3.23
3.06
2.79
2.71
2.93
3.44
4.08
4.68
5.11
5.29
5.22
4.90
4.39
3.79
3.24
2.97
3.10
3.65
4.47
5.27
5.74
5.70
5.14
4.20
3.09
2.02
1.07
0.26
-0.49
-1.26
-2.12
-3.10
-4.16
-5.22
-6.17
-6.92
-7.48
-7.99
-8.62
-9.53
-10.69
-11.91
-12.79
-12.97
-12.20
-10.52
-8.17
-5.52
-2.90
-0.49
1.62
3.40
4.84
5.89
6.54
6.81
6.77
6.50
6.13
5.76
5.45
5.25
5.15
5.15
5.22
5.34
5.50
5.67
5.81
5.84
5.68
5.28
4.66
3.93
3.17
2.44
1.71
0.90
-0.08
-1.24
-2.50
-3.68
-4.58
-5.07
-5.17
-5.02
-4.89
-5.07
-5.73
-6.88
-8.25
-9.43
-9.96
-9.55
-8.11
-5.82
-3.02
-0.04
2.81
5.35
7.42
8.94
9.85
10.18
10.11
9.88
9.81
10.10
10.78
11.67
12.44
12.73
12.35
11.30
9.82
8.29
7.06
6.34
6.14
6.26
6.42
6.40
6.07
5.41
4.47
3.29
1.95
0.52
-0.90
-2.22
-3.37
-4.34
-5.18
-5.98
-6.86
-7.86
-8.97
-10.15
-11.27
-12.27
-13.14
-13.90
-14.60
-15.20
-15.58
-15.46
-14.55
-12.70
-9.97
-6.70
-3.40
-0.55
1.56
2.91
3.68
4.16
4.59
5.07
5.61
6.08
6.42
6.62
6.73
6.82
6.89
6.89
6.71
6.33
5.82
5.40
5.28
5.57
6.17
6.80
7.11
6.86
6.03
4.82
3.54
2.44
1.60
0.93
0.26
-0.58
-1.63
-2.79
-3.83
-4.54
-4.77
-4.55
-4.01
-3.40
-2.92
-2.72
-2.86
-3.27
-3.85
-4.42
-4.75
-4.57
-3.63
-1.78
0.89
4.12
7.43
10.30
12.33
13.36
13.50
13.05
12.39
11.78
11.31
10.89
10.38
9.65
8.65
7.43
6.11
4.80
3.59
2.51
1.61
0.88
0.34
-0.02
-0.28
-0.53
-0.87
-1.39
-2.12
-3.02
-3.99
-4.88
-5.54
-5.92
-6.08
-6.15
-6.30
-6.60
-7.00
-7.28
-7.20
-6.58
-5.45
-4.06
-2.80
-2.09
-2.22
-3.17
-4.60
-5.92
-6.46
-5.72
-3.55
-0.16
3.89
7.95
11.48
14.16
15.90
16.80
17.01
16.72
16.09
15.28
14.41
13.50
12.45
11.10
9.28
6.94
4.22
1.47
-0.86
-2.34
-2.69
-1.92
-0.29
1.72
3.57
4.81
5.15
4.57
3.21
1.30
-0.92
-3.29
-5.66
-7.93
-9.98
-11.69
-12.93
-13.64
-13.89
-13.84
-13.72
-13.77
-14.11
-14.66
-15.18
-15.36
-14.97
-13.93
-12.28
-10.15
-7.67
-4.93
-2.02
0.88
3.49
5.53
6.80
7.30
7.29
7.10
7.08
7.38
7.90
8.36
8.41
7.80
6.52
4.85
3.22
2.10
1.76
2.14
2.93
3.74
4.31
4.63
4.81
5.00
5.16
5.09
4.60
3.61
2.26
0.83
-0.47
-1.59
-2.70
-4.02
-5.65
-7.52
-9.33
-10.79
-11.63
-11.75
-11.25
-10.36
-9.35
-8.43
-7.61
-6.75
-5.52
-3.65
-1.03
2.13
5.44
8.45
10.82
12.43
13.37
13.78
13.78
13.48
12.99
12.42
11.88
11.45
11.14
10.90
10.64
10.27
9.72
8.95
7.99
6.93
5.90
5.02
4.32
3.70
2.99
2.01
0.73
-0.72
-2.11
-3.26
-4.12
-4.83
-5.63
-6.72
-8.19
-9.96
-11.80
-13.43
-14.65
-15.35
-15.61
-15.58
-15.42
-15.23
-14.99
-14.66
-14.24
-13.83
-13.52
-13.27
-12.83
-11.74
-9.60
-6.30
-2.15
2.15
5.88
8.53
10.00
10.57
10.64
10.57
10.52
10.48
10.37
10.11
9.68
9.07
8.27
7.25
5.99
4.51
2.89
1.31
0.02
-0.74
-0.81
-0.19
0.93
2.21
3.31
3.96
4.04
3.58
2.65
1.35
-0.29
-2.23
-4.37
-6.47
-8.25
-9.41
-9.73
-9.18
-7.95
-6.35
-4.78
-3.55
-2.82
-2.60
-2.73
-3.04
-3.33
-3.43
-3.17
-2.38
-0.93
1.22
3.93
6.86
9.56
11.53
12.48
12.32
11.27
9.71
8.02
6.52
5.32
4.41
3.70
3.12
2.69
2.49
2.64
3.13
3.86
4.52
4.78
4.33
3.09
1.17
-1.07
-3.21
-4.92
-6.08
-6.76
-7.18
-7.54
-7.95
-8.44
-8.96
-9.51
-10.06
-10.58
-10.99
-11.14
-10.94
-10.43
-9.75
-9.20
-9.03
-9.38
-10.17
-11.11
-11.74
-11.60
-10.35
-7.91
-4.51
-0.66
3.06
6.16
8.41
9.89
10.82
11.46
11.96
12.31
12.44
12.30
11.92
11.36
10.69
9.89
8.90
7.63
6.05
4.32
2.70
1.59
1.25
1.74
2.76
3.78
4.23
3.72
2.26
0.15
-2.12
-4.19
-5.94
-7.49
-9.06
-10.70
-12.25
-13.35
-13.68
-13.11
-11.81
-10.16
-8.61
-7.46
-6.84
-6.67
-6.84
-7.24
-7.81
-8.48
-9.03
-9.10
-8.27
-6.26
-3.10
0.78
4.72
8.05
10.34
11.58
12.09
12.28
12.51
12.88
13.28
13.44
13.10
12.08
10.37
8.11
5.55
2.96
0.58
-1.48
-3.15
-4.41
-5.23
-5.52
-5.31
-4.72
-4.04
-3.59
-3.62
-4.21
-5.18
-6.27
-7.24
-8.01
-8.66
-9.38
-10.28
-11.28
-12.12
-12.47
-12.04
-10.80
-8.95
-6.93
-5.24
-4.22
-3.94
-4.16
-4.46
-4.41
-3.74
-2.42
-0.59
1.56
3.88
6.30
8.80
11.28
13.51
15.23
16.21
16.43
16.05
15.41
14.81
14.43
14.20
13.98
13.64
13.17
12.68
12.30
12.07
11.90
11.58
10.86
9.63
7.87
5.75
3.52
1.42
-0.36
-1.75
-2.80
-3.66
-4.57
-5.70
-7.16
-8.83
-10.48
-11.86
-12.75
-13.11
-13.07
-12.86
-12.70
-12.78
-13.22
-14.06
-15.21
-16.45
-17.38
-17.46
-16.17
-13.23
-8.78
-3.42
1.96
6.50
9.63
11.27
11.78
11.73
11.66
11.87
12.37
12.93
13.22
12.97
12.06
10.52
8.58
6.52
4.60
3.01
1.85
1.13
0.77
0.67
0.68
0.60
0.21
-0.67
-2.09
-3.94
-5.93
-7.70
-8.96
-9.65
-9.90
-10.02
-10.27
-10.79
-11.49
-12.19
-12.67
-12.84
-12.76
-12.61
-12.56
-12.70
-13.03
-13.40
-13.67
-13.63
-13.13
-12.02
-10.21
-7.68
-4.52
-1.01
2.47
5.53
7.82
9.26
9.93
10.10
10.06
10.04
10.17
10.49
10.99
11.58
12.14
12.50
12.49
12.03
11.20
10.18
9.20
8.39
7.72
7.07
6.31
5.42
4.53
3.76
3.18
2.65
1.91
0.72
-1.05
-3.32
-5.91
-8.58
-11.16
-13.53
-15.58
-17.16
-18.07
-18.17
-17.46
-16.12
-14.49
-12.97
-11.88
-11.39
-11.46
-11.82
-12.06
-11.74
-10.53
-8.33
-5.30
-1.78
1.76
4.99
7.72
9.97
11.83
13.40
14.66
15.52
15.87
15.65
14.90
13.75
12.35
10.83
9.25
7.65
6.14
4.91
4.25
4.34
5.24
6.70
8.28
9.48
9.89
9.31
7.85
5.78
3.44
1.12
-1.08
-3.17
-5.23
-7.26
-9.16
-10.74
-11.81
-12.29
-12.21
-11.73
-11.00
-10.12
-9.19
-8.34
-7.77
-7.70
-8.16
-8.93
-9.44
-9.06
-7.32
-4.18
-0.02
4.48
8.71
12.22
14.85
16.62
17.57
17.68
16.92
15.26
12.74
9.49
5.75
1.79
-2.03
-5.34
-7.79
-9.11
-9.24
-8.33
-6.68
-4.66
-2.55
-0.52
1.30
2.79
3.76
4.03
3.49
2.23
0.52
-1.30
-2.91
-4.18
-5.13
-5.87
-6.48
-6.91
-7.00
-6.63
-5.81
-4.79
-3.98
-3.80
-4.44
-5.76
-7.20
-8.06
-7.68
-5.74
-2.35
2.03
6.81
11.41
15.45
18.74
21.19
22.83
23.70
23.94
23.70
23.15
22.39
21.45
20.34
19.01
17.45
15.63
13.60
11.45
9.39
7.66
6.45
5.81
5.55
5.30
4.74
3.71
2.28
0.69
-0.89
-2.43
-4.10
-6.19
-8.83
-11.94
-15.23
-18.31
-20.89
-22.85
-24.24
-25.17
-25.74
-26.01
-25.98
-25.70
-25.28
-24.81
-24.27
-23.49
-22.09
-19.68
-16.02
-11.20
-5.68
-0.17
4.64
8.26
10.58
11.78
12.31
12.59
12.96
13.55
14.27
14.88
15.08
14.66
13.53
11.79
9.58
7.07
4.42
1.73
-0.77
-2.78
-3.95
-4.07
-3.23
-1.90
-0.75
-0.40
-1.13
-2.82
-5.00
-7.15
-8.87
-10.12
-11.05
-11.91
-12.80
-13.61
-14.05
-13.85
-12.90
-11.42
-9.87
-8.77
-8.48
-9.01
-10.03
-11.01
-11.44
-11.01
-9.64
-7.50
-4.81
-1.80
1.31
4.34
7.03
9.15
10.53
11.13
11.07
10.63
10.09
9.66
9.43
9.31
9.17
8.81
8.15
7.19
6.04
4.88
3.97
3.46
3.41
3.67
4.03
4.24
4.21
4.03
3.83
3.71
3.60
3.28
2.50
1.14
-0.66
-2.63
-4.40
-5.76
-6.67
-7.27
-7.77
-8.36
-9.13
-10.11
-11.27
-12.57
-13.87
-14.95
-15.44
-14.85
-12.83
-9.26
-4.48
0.77
5.60
9.24
11.35
12.06
11.82
11.12
10.35
9.64
9.00
8.39
7.79
7.28
6.93
6.77
6.84
7.09
7.47
7.84
8.09
8.13
8.01
7.80
7.66
7.62
7.60
7.35
6.65
5.38
3.63
1.68
-0.18
-1.80
-3.19
-4.55
-6.08
-7.84
-9.75
-11.59
-13.13
-14.28
-15.14
-15.89
-16.72
-17.66
-18.48
-18.78
-18.08
-16.09
-12.87
-8.87
-4.78
-1.27
1.27
2.81
3.65
4.14
4.52
4.88
5.12
5.21
5.18
5.17
5.30
5.59
5.91
6.05
5.88
5.37
4.73
4.23
4.12
4.46
5.09
5.66
5.81
5.32
4.26
2.93
1.77
1.06
0.81
0.74
0.44
-0.40
-1.81
-3.54
-5.17
-6.37
-7.00
-7.18
-7.20
-7.36
-7.83
-8.64
-9.64
-10.60
-11.22
-11.17
-10.21
-8.22
-5.29
-1.72
2.05
5.55
8.40
10.39
11.50
11.90
11.88
11.79
11.91
12.35
13.04
13.77
14.26
14.36
14.11
13.70
13.34
13.16
13.12
13.06
12.83
12.34
11.63
10.85
10.16
9.68
9.43
9.33
9.24
8.97
8.34
7.21
5.49
3.16
0.26
-3.11
-6.83
-10.69
-14.41
-17.63
-20.02
-21.37
-21.79
-21.63
-21.38
-21.37
-21.52
-21.32
-20.00
-16.94
-11.97
-5.61
1.14
7.16
11.65
14.30
15.33
15.31
14.79
14.25
13.95
13.96
14.28
14.79
15.32
15.70
15.80
15.56
14.95
14.01
12.78
11.32
9.71
8.07
6.49
5.02
3.55
1.93
0.01
-2.25
-4.71
-7.10
-9.15
-10.71
-11.82
-12.62
-13.24
-13.72
-13.98
-13.87
-13.29
-12.35
-11.33
-10.61
-10.48
-10.94
-11.58
-11.68
-10.43
-7.25
-1.99
4.95
12.82
20.70
27.71
33.27
37.10
39.22
39.86
39.40
38.20
36.62
34.91
33.20
31.50
29.68
27.57
25.04
22.10
18.97
16.02
13.67
12.16
11.45
11.19
10.88
10.08
8.55
6.31
3.52
0.40
-2.97
-6.54
-10.34
-14.32
-18.29
-22.01
-25.19
-27.61
-29.17
-29.90
-30.00
-29.69
-29.25
-28.92
-28.83
-28.98
-29.21
-29.16
-28.34
-26.29
-22.64
-17.38
-10.85
-3.75
3.05
8.78
12.94
15.43
16.46
16.41
15.64
14.42
12.83
10.88
8.60
6.08
3.58
1.39
-0.24
-1.13
-1.29
-0.81
0.17
1.55
3.20
5.01
6.75
8.06
8.51
7.72
5.52
2.12
-1.96
-6.00
-9.33
-11.54
-12.60
-12.83
-12.76
-12.91
-13.67
-15.18
-17.25
-19.44
-21.09
-21.52
-20.19
-16.93
-11.98
-5.97
0.26
5.86
10.17
12.82
13.78
13.33
11.98
10.35
8.93
8.05
7.76
7.84
8.01
8.00
7.65
6.92
5.86
4.53
2.98
1.29
-0.44
-2.08
-3.53
-4.72
-5.66
-6.41
-7.14
-8.02
-9.15
-10.55
-12.05
-13.46
-14.60
-15.44
-16.07
-16.70
-17.52
-18.64
-19.98
-21.31
-22.26
-22.33
-20.98
-17.81
-12.75
-6.14
1.24
8.38
14.39
18.72
21.29
22.39
22.45
21.85
20.85
19.54
17.95
16.07
13.92
11.54
8.96
6.22
3.36
0.46
-2.32
-4.76
-6.61
-7.65
-7.84
-7.32
-6.41
-5.54
-5.09
-5.37
-6.53
-8.61
-11.51
-15.02
-18.76
-22.24
-25.00
-26.74
-27.52
-27.62
-27.45
-27.26
-26.98
-26.21
-24.39
-20.98
-15.77
-8.88
-0.84
7.62
15.70
22.67
28.08
31.75
33.82
34.63
34.61
34.08
33.23
32.04
30.42
28.27
25.59
22.51
19.22
15.96
12.92
10.20
7.88
5.98
4.54
3.61
3.17
3.07
2.98
2.52
1.36
-0.62
-3.22
-6.08
-8.79
-11.19
-13.37
-15.67
-18.43
-21.79
-25.60
-29.38
-32.48
-34.18
-33.92
-31.33
-26.43
-19.64
-11.79
-3.88
3.11
8.56
12.29
14.50
15.60
15.92
15.69
14.95
13.78
12.26
10.55
8.82
7.22
5.78
4.48
3.17
1.69
-0.18
-2.58
-5.51
-8.75
-11.95
-14.68
-16.64
-17.72
-18.07
-17.96
-17.66
-17.32
-16.92
-16.21
-14.87
-12.56
-9.19
-5.02
-0.75
2.61
4.05
2.96
-0.51
-5.40
-10.22
-13.43
-14.04
-11.89
-7.61
-2.27
3.12
7.84
11.58
14.23
15.72
15.89
14.62
12.04
8.61
5.06
2.18
0.51
0.19
0.98
2.39
3.99
5.49
6.83
8.06
9.24
10.28
11.03
11.33
11.05
10.17
8.75
6.84
4.47
1.68
-1.41
-4.59
-7.58
-10.11
-12.04
-13.39
-14.32
-15.05
-15.72
-16.27
-16.48
-15.93
-14.16
-10.81
-5.74
0.83
8.37
16.12
23.21
28.84
32.41
33.55
32.24
28.77
23.70
17.78
11.77
6.27
1.61
-2.17
-5.22
-7.82
-10.28
-12.94
-16.06
-19.78
-23.95
-28.10
-31.46
-33.20
-32.85
-30.53
-27.03
-23.60
-21.40
-21.04
-22.35
-24.38
-25.82
-25.54
-22.97
-18.20
-11.84
-4.75
2.18
8.18
12.67
15.28
15.99
15.20
13.75
12.71
13.07
15.41
19.77
25.69
32.50
39.63
46.74
53.75
60.67
67.52
74.24
80.79
87.23
93.77
100.73
108.38
116.91
126.31
136.43
147.08
157.96
168.60
178.26
185.80
189.75
188.46
180.36
164.29
139.74
107.05
67.50
23.30
-22.64
-67.13
-107.10
-140.16
-165.01
-181.50
-190.56
-193.83
-193.17
-190.25
-186.25
-181.67
-176.45
-170.14
-162.20
-152.30
-140.49
-127.25
-113.32
-99.51
-86.39
-74.27
-63.12
-52.80
-43.20
-34.33
-26.27
-19.10
-12.82
-7.35
-2.60
1.47
4.89
7.61
9.64
11.01
11.80
12.10
12.00
11.58
10.86
9.85
8.48
6.69
4.48
1.98
-0.62
-3.05
-5.13
-6.84
-8.27
-9.60
-10.96
-12.37
-13.76
-14.95
-15.81
-16.17
-15.91
-14.90
-13.01
-10.15
-6.28
-1.52
3.89
9.54
14.95
19.62
23.19
25.45
26.40
26.19
25.07
23.31
21.19
18.93
16.75
14.83
13.35
12.40
11.99
12.00
12.23
12.41
12.38
12.11
11.69
11.28
10.97
10.65
10.01
8.69
6.45
3.38
-0.17
-3.66
-6.69
-9.16
-11.33
-13.68
-16.72
-20.63
-25.17
-29.62
-33.01
-34.40
-33.25
-29.58
-24.04
-17.65
-11.49
-6.38
-2.70
-0.44
0.63
0.81
0.39
-0.31
-0.94
-1.14
-0.72
0.27
1.49
2.41
2.64
2.02
0.74
-0.78
-2.12
-3.04
-3.55
-3.83
-4.15
-4.71
-5.63
-6.91
-8.50
-10.26
-11.97
-13.37
-14.20
-14.29
-13.58
-12.22
-10.46
-8.57
-6.67
-4.71
-2.39
0.72
4.99
10.45
16.73
22.96
28.01
30.84
30.80
27.90
22.81
16.63
10.56
5.65
2.52
1.39
2.10
4.26
7.37
11.01
14.82
18.62
22.27
25.63
28.53
30.70
31.94
32.10
31.17
29.21
26.33
22.64
18.22
13.24
7.95
2.64
-2.43
-7.19
-11.78
-16.48
-21.52
-26.80
-31.81
-35.63
-37.25
-35.90
-31.41
-24.33
-15.77
-7.01
0.94
7.55
12.81
17.03
20.54
23.58
26.19
28.33
29.96
31.06
31.58
31.47
30.60
28.88
26.31
23.02
19.28
15.40
11.75
8.65
6.36
5.06
4.76
5.27
6.21
7.05
7.25
6.32
3.90
-0.14
-5.75
-12.66
-20.34
-28.09
-34.97
-40.01
-42.23
-40.97
-36.00
-27.67
-16.87
-4.89
6.84
16.98
24.49
28.80
29.82
27.95
24.01
19.01
13.98
9.68
6.52
4.46
3.22
2.42
1.88
1.54
1.50
1.78
2.31
2.87
3.21
3.15
2.65
1.77
0.57
-0.93
-2.82
-5.25
-8.28
-11.85
-15.76
-19.70
-23.31
-26.20
-27.98
-28.24
-26.60
-22.84
-17.02
-9.52
-1.10
7.31
14.84
20.83
25.00
27.39
28.27
27.99
26.90
25.30
23.45
21.54
19.68
17.86
15.98
13.94
11.78
9.74
8.21
7.54
7.81
8.78
9.92
10.62
10.52
9.50
7.78
5.67
3.47
1.38
-0.56
-2.40
-4.27
-6.38
-8.96
-12.11
-15.68
-19.18
-21.80
-22.67
-21.15
-17.09
-10.97
-3.83
3.02
8.35
11.43
12.15
11.07
9.07
7.02
5.50
4.62
4.15
3.73
3.07
2.05
0.71
-0.84
-2.45
-4.04
-5.48
-6.68
-7.55
-8.03
-8.19
-8.17
-8.22
-8.62
-9.58
-11.12
-13.03
-14.90
-16.28
-16.88
-16.75
-16.28
-16.10
-16.79
-18.60
-21.28
-24.13
-26.13
-26.31
-24.03
-19.19
-12.26
-4.15
4.11
11.61
17.78
22.44
25.67
27.68
28.64
28.65
27.80
26.30
24.38
22.30
20.22
18.14
16.01
13.83
11.77
10.15
9.31
9.38
10.20
11.29
12.02
11.80
10.27
7.44
3.63
-0.62
-4.69
-8.07
-10.49
-11.97
-12.74
-13.17
-13.59
-14.22
-15.09
-16.02
-16.65
-16.42
-14.82
-11.49
-6.48
-0.33
6.06
11.68
15.79
18.18
19.15
19.31
19.28
19.43
19.78
20.10
20.07
19.44
18.10
16.10
13.59
10.82
8.04
5.51
3.40
1.75
0.53
-0.39
-1.16
-1.96
-2.97
-4.34
-6.16
-8.44
-11.02
-13.61
-15.85
-17.48
-18.39
-18.71
-18.74
-18.84
-19.31
-20.30
-21.82
-23.77
-25.98
-28.26
-30.32
-31.78
-32.12
-30.83
-27.53
-22.23
-15.36
-7.77
-0.45
5.71
10.21
13.02
14.49
15.12
15.37
15.44
15.36
15.01
14.36
13.49
12.58
11.84
11.38
11.13
10.97
10.73
10.34
9.83
9.29
8.78
8.24
7.55
6.59
5.27
3.59
1.65
-0.40
-2.44
-4.36
-6.12
-7.76
-9.32
-10.83
-12.29
-13.62
-14.74
-15.58
-16.18
-16.67
-17.14
-17.49
-17.37
-16.23
-13.58
-9.26
-3.60
2.67
8.61
13.42
16.73
18.54
19.16
18.93
18.10
16.79
15.10
13.15
11.13
9.29
7.80
6.73
5.99
5.38
4.66
3.67
2.36
0.85
-0.65
-1.95
-2.93
-3.66
-4.28
-4.93
-5.67
-6.43
-7.14
-7.79
-8.49
-9.37
-10.52
-11.83
-13.01
-13.77
-13.96
-13.69
-13.28
-13.13
-13.55
-14.58
-16.01
-17.42
-18.26
-18.06
-16.52
-13.67
-9.84
-5.54
-1.28
2.65
6.14
9.24
11.95
14.21
15.92
17.04
17.69
18.11
18.48
18.78
18.72
17.92
16.09
13.25
9.79
6.34
3.55
1.84
1.24
1.43
1.82
1.85
1.28
0.19
-1.05
-2.03
-2.54
-2.68
-2.79
-3.21
-4.16
-5.62
-7.45
-9.42
-11.37
-13.13
-14.57
-15.60
-16.19
-16.44
-16.53
-16.67
-16.92
-17.15
-17.02
-16.13
-14.14
-10.90
-6.53
-1.41
3.93
8.90
12.97
15.85
17.47
18.00
17.72
16.93
15.85
14.59
13.20
11.73
10.27
8.99
8.07
7.59
7.52
7.68
7.82
7.74
7.42
7.03
6.81
6.94
7.37
7.83
7.95
7.52
6.62
5.63
5.07
5.29
6.30
7.76
9.10
9.75
9.38
7.93
5.63
2.81
-0.16
-2.97
-5.43
-7.50
-9.16
-10.54
-11.76
-12.92
-14.05
-15.02
-15.55
-15.25
-13.73
-10.82
-6.62
-1.60
3.55
8.10
11.53
13.63
14.53
14.54
14.02
13.25
12.39
11.53
10.71
9.99
9.39
8.86
8.31
7.62
6.75
5.70
4.60
3.52
2.53
1.58
0.62
-0.43
-1.55
-2.65
-3.66
-4.53
-5.26
-5.91
-6.54
-7.20
-7.95
-8.86
-9.96
-11.21
-12.46
-13.44
-13.89
-13.65
-12.77
-11.52
-10.31
-9.54
-9.51
-10.27
-11.61
-13.07
-14.03
-13.80
-11.86
-8.02
-2.55
3.88
10.41
16.25
20.89
24.12
26.00
26.64
26.22
24.90
22.94
20.62
18.21
15.88
13.66
11.46
9.26
7.13
5.28
3.93
3.15
2.84
2.73
2.56
2.16
1.55
0.81
0.01
-0.97
-2.33
-4.27
-6.84
-9.86
-12.96
-15.73
-17.92
-19.44
-20.46
-21.25
-22.11
-23.23
-24.65
-26.24
-27.61
-28.30
-27.83
-25.90
-22.50
-17.92
-12.67
-7.32
-2.39
1.70
4.69
6.44
7.01
6.63
5.71
4.65
3.70
2.90
2.08
1.04
-0.31
-1.86
-3.35
-4.52
-5.26
-5.63
-5.79
-5.91
-6.03
-6.10
-6.06
-5.89
-5.65
-5.47
-5.50
-5.79
-6.33
-7.00
-7.65
-8.14
-8.37
-8.36
-8.20
-8.05
-8.15
-8.69
-9.84
-11.60
-13.73
-15.73
-16.90
-16.57
-14.30
-10.09
-4.42
1.92
8.07
13.32
17.19
19.42
19.96
18.90
16.53
13.38
10.06
7.12
4.79
2.98
1.38
-0.35
-2.30
-4.26
-5.86
-6.67
-6.48
-5.29
-3.30
-0.84
1.79
4.34
6.66
8.64
10.22
11.24
11.55
11.04
9.73
7.85
5.85
4.24
3.38
3.36
3.93
4.62
4.98
4.77
4.04
3.17
2.74
3.30
5.28
8.75
13.36
18.41
22.99
26.23
27.60
26.97
24.63
21.16
17.18
13.26
9.78
6.96
4.83
3.29
2.14
1.17
0.23
-0.67
-1.43
-1.84
-1.82
-1.37
-0.64
0.11
0.62
0.68
0.21
-0.81
-2.29
-4.13
-6.18
-8.27
-10.22
-11.85
-13.00
-13.57
-13.62
-13.33
-13.04
-13.10
-13.70
-14.81
-16.06
-16.89
-16.65
-14.79
-11.08
-5.67
0.92
7.92
14.52
20.10
24.31
27.06
28.44
28.56
27.52
25.44
22.54
19.14
15.68
12.51
9.77
7.42
5.27
3.19
1.18
-0.63
-2.09
-3.17
-3.97
-4.69
-5.46
-6.30
-7.15
-7.90
-8.58
-9.27
-10.14
-11.27
-12.63
-14.11
-15.60
-17.11
-18.73
-20.66
-22.99
-25.58
-27.95
-29.37
-29.01
-26.22
-20.85
-13.39
-4.85
3.49
10.53
15.67
18.86
20.55
21.26
21.43
21.24
20.65
19.62
18.15
16.34
14.38
12.43
10.59
8.88
7.26
5.71
4.31
3.19
2.54
2.50
2.98
3.72
4.25
4.13
3.08
1.13
-1.44
-4.19
-6.83
-9.19
-11.32
-13.36
-15.40
-17.49
-19.63
-21.83
-24.05
-26.14
-27.76
-28.32
-27.17
-23.76
-18.01
-10.40
-1.96
6.01
12.35
16.37
18.06
17.97
16.98
15.82
14.87
14.07
13.13
11.77
10.02
8.19
6.67
5.74
5.35
5.17
4.82
4.04
2.87
1.58
0.55
-0.01
-0.10
0.04
0.04
-0.40
-1.44
-2.99
-4.80
-6.54
-8.04
-9.29
-10.53
-11.99
-13.78
-15.79
-17.78
-19.49
-20.82
-21.71
-22.05
-21.52
-19.55
-15.62
-9.53
-1.66
7.03
15.31
22.13
26.94
29.76
31.06
31.38
31.08
30.29
28.99
27.12
24.80
22.26
19.77
17.55
15.65
13.98
12.40
10.85
9.36
8.06
7.13
6.63
6.52
6.55
6.34
5.47
3.62
0.72
-2.99
-6.99
-10.70
-13.64
-15.73
-17.21
-18.59
-20.32
-22.60
-25.32
-28.04
-30.19
-31.18
-30.54
-27.98
-23.48
-17.38
-10.35
-3.29
2.87
7.43
10.09
10.97
10.54
9.39
8.08
6.96
6.17
5.65
5.19
4.59
3.72
2.64
1.51
0.61
0.14
0.16
0.56
1.11
1.54
1.64
1.33
0.67
-0.15
-1.01
-1.85
-2.73
-3.78
-5.05
-6.51
-7.96
-9.23
-10.23
-11.09
-12.03
-13.29
-14.97
-16.98
-19.09
-20.96
-22.19
-22.38
-21.08
-17.93
-12.81
-5.96
1.96
10.02
17.28
23.06
27.05
29.31
30.14
29.91
28.89
27.26
25.10
22.45
19.37
15.93
12.30
8.71
5.42
2.67
0.57
-0.88
-1.83
-2.46
-2.91
-3.17
-3.13
-2.66
-1.76
-0.59
0.49
1.09
0.91
-0.16
-1.98
-4.32
-6.94
-9.64
-12.31
-14.84
-17.12
-18.99
-20.37
-21.27
-21.87
-22.38
-22.86
-23.07
-22.38
-20.05
-15.45
-8.56
-0.02
8.99
17.12
23.37
27.37
29.36
29.88
29.53
28.62
27.28
25.54
23.45
21.22
19.10
17.32
15.98
15.02
14.31
13.65
12.94
12.13
11.33
10.65
10.15
9.76
9.21
8.17
6.39
3.81
0.69
-2.59
-5.65
-8.28
-10.46
-12.29
-13.89
-15.33
-16.63
-17.87
-19.20
-20.73
-22.41
-23.93
-24.65
-23.84
-20.91
-15.71
-8.64
-0.61
7.31
14.13
19.30
22.74
24.76
25.89
26.61
27.30
28.17
29.35
30.90
32.76
34.77
36.61
37.87
38.14
37.11
34.69
31.00
26.35
21.18
15.91
10.85
6.11
1.58
-2.98
-7.82
-13.02
-18.52
-24.11
-29.61
-34.88
-39.87
-44.60
-49.03
-53.15
-56.86
-60.07
-62.69
-64.68
-66.00
-66.58
-66.26
-64.75
-61.67
-56.76
-49.97
-41.72
-32.81
-24.22
-16.77
-10.84
-6.34
-2.88
-0.01
2.56
4.96
7.26
9.51
11.75
13.97
16.01
17.66
18.76
19.29
19.40
19.29
19.16
19.09
19.09
19.12
19.12
19.05
18.79
18.17
17.01
15.25
12.95
10.35
7.69
5.16
2.84
0.67
-1.44
-3.58
-5.78
-8.05
-10.37
-12.73
-15.10
-17.35
-19.12
-19.83
-18.81
-15.50
-9.75
-1.98
6.84
15.48
22.82
28.17
31.37
32.71
32.66
31.65
29.98
27.85
25.46
23.01
20.77
18.94
17.63
16.74
16.09
15.46
14.70
13.83
13.00
12.38
12.06
11.93
11.73
11.09
9.70
7.44
4.37
0.63
-3.56
-8.01
-12.48
-16.68
-20.34
-23.25
-25.39
-26.96
-28.32
-29.76
-31.43
-33.12
-34.34
-34.39
-32.66
-28.85
-23.16
-16.28
-9.27
-3.13
1.48
4.48
6.30
7.60
8.93
10.50
12.19
13.75
14.96
15.80
16.38
16.82
17.12
17.15
16.75
15.79
14.32
12.54
10.76
9.26
8.23
7.65
7.30
6.84
5.90
4.33
2.15
-0.36
-2.90
-5.26
-7.46
-9.66
-12.04
-14.66
-17.41
-20.11
-22.58
-24.76
-26.60
-27.94
-28.38
-27.35
-24.24
-18.79
-11.26
-2.52
6.22
13.73
19.19
22.40
23.68
23.71
23.15
22.43
21.63
20.63
19.29
17.60
15.75
14.01
12.56
11.38
10.24
8.84
7.03
4.87
2.66
0.76
-0.63
-1.52
-2.16
-2.87
-3.88
-5.26
-6.93
-8.74
-10.58
-12.38
-14.08
-15.62
-16.89
-17.80
-18.37
-18.71
-19.08
-19.72
-20.75
-22.06
-23.24
-23.67
-22.62
-19.53
-14.17
-6.88
1.56
10.00
17.30
22.64
25.69
26.66
26.15
24.81
23.20
21.59
20.00
18.34
16.58
14.78
13.11
11.75
10.76
10.06
9.48
8.90
8.27
7.69
7.26
7.06
7.04
7.04
6.85
6.26
5.18
3.59
1.60
-0.64
-2.93
-5.14
-7.20
-9.10
-10.93
-12.86
-15.04
-17.59
-20.47
-23.44
-25.99
-27.46
-27.17
-24.70
-20.04
-13.68
-6.51
0.45
6.26
10.34
12.54
13.08
12.40
10.97
9.19
7.31
5.45
3.62
1.82
0.01
-1.85
-3.85
-6.09
-8.64
-11.42
-14.11
-16.21
-17.16
-16.58
-14.48
-11.33
-7.87
-4.90
-3.00
-2.38
-2.91
-4.25
-5.99
-7.75
-9.28
-10.41
-11.15
-11.63
-12.09
-12.84
-14.09
-15.84
-17.75
-19.17
-19.27
-17.31
-12.98
-6.52
1.21
9.08
16.00
21.30
24.80
26.75
27.51
27.41
26.60
25.19
23.32
21.20
19.09
17.16
15.47
13.95
12.48
10.99
9.48
8.04
6.82
5.93
5.41
5.18
5.07
4.80
4.13
2.91
1.12
-1.05
-3.35
-5.50
-7.31
-8.73
-9.89
-10.94
-12.08
-13.43
-15.07
-16.97
-19.03
-21.02
-22.57
-23.14
-22.10
-18.94
-13.48
-6.08
2.36
10.65
17.66
22.70
25.63
26.86
26.96
26.44
25.54
24.29
22.60
20.48
18.07
15.60
13.31
11.35
9.68
8.18
6.71
5.16
3.58
2.15
1.05
0.40
0.10
-0.21
-0.96
-2.49
-4.87
-7.80
-10.75
-13.18
-14.75
-15.47
-15.63
-15.71
-16.18
-17.38
-19.39
-21.98
-24.62
-26.55
-26.96
-25.24
-21.21
-15.18
-7.93
-0.47
6.24
11.52
15.10
17.06
17.75
17.56
16.83
15.77
14.44
12.83
10.98
8.96
6.90
4.91
3.05
1.36
-0.14
-1.38
-2.22
-2.52
-2.18
-1.22
0.18
1.73
3.06
3.79
3.61
2.41
0.31
-2.34
-5.06
-7.41
-9.17
-10.33
-11.09
-11.74
-12.53
-13.63
-15.03
-16.51
-17.66
-17.89
-16.60
-13.40
-8.29
-1.74
5.41
12.23
17.93
22.10
24.68
25.97
26.43
26.58
26.78
27.11
27.34
27.03
25.76
23.34
19.94
16.05
12.30
9.17
6.87
5.36
4.39
3.70
3.07
2.34
1.42
0.24
-1.21
-2.91
-4.79
-6.77
-8.78
-10.72
-12.47
-13.93
-15.08
-16.02
-16.97
-18.19
-19.87
-22.00
-24.32
-26.32
-27.34
-26.69
-23.89
-18.85
-11.88
-3.65
4.98
13.17
20.26
25.80
29.48
31.18
30.93
28.99
25.95
22.51
19.35
16.87
15.10
13.80
12.62
11.32
9.87
8.38
7.06
6.03
5.35
4.99
4.82
4.66
4.26
3.39
1.85
-0.42
-3.31
-6.58
-9.86
-12.74
-14.88
-16.13
-16.67
-17.01
-17.87
-19.93
-23.48
-28.21
-33.16
-37.06
-38.70
-37.43
-33.39
-27.37
-20.51
-13.85
-8.04
-3.28
0.50
3.47
5.69
7.06
7.48
6.98
5.72
4.01
2.13
0.28
-1.44
-2.99
-4.25
-5.05
-5.17
-4.48
-3.01
-0.96
1.29
3.32
4.71
5.15
4.55
2.99
0.80
-1.52
-3.46
-4.57
-4.65
-3.68
-1.79
0.77
3.69
6.58
8.99
10.57
11.30
11.66
12.57
15.10
19.93
26.88
34.87
42.20
47.21
48.91
47.22
42.85
36.83
30.09
23.18
16.33
9.59
3.08
-3.02
-8.55
-13.46
-17.79
-21.63
-24.93
-27.49
-29.00
-29.22
-28.06
-25.73
-22.63
-19.27
-16.11
-13.49
-11.61
-10.50
-10.08
-10.20
-10.67
-11.28
-11.83
-12.20
-12.34
-12.27
-12.10
-11.94
-11.95
-12.16
-12.48
-12.59
-12.02
-10.28
-7.02
-2.30
3.46
9.56
15.29
20.16
23.97
26.76
28.70
29.86
30.28
29.97
29.03
27.69
26.21
24.79
23.46
22.10
20.49
18.44
15.94
13.11
10.25
7.63
5.45
3.71
2.23
0.74
-0.99
-3.07
-5.41
-7.75
-9.81
-11.34
-12.27
-12.81
-13.33
-14.36
-16.38
-19.62
-23.90
-28.57
-32.68
-35.16
-35.16
-32.34
-26.94
-19.71
-11.71
-3.98
2.73
8.04
11.91
14.51
16.09
16.85
16.96
16.54
15.72
14.64
13.45
12.24
11.11
10.06
9.09
8.17
7.32
6.57
6.02
5.70
5.58
5.51
5.20
4.36
2.77
0.35
-2.75
-6.23
-9.65
-12.61
-14.81
-16.12
-16.67
-16.78
-16.86
-17.30
-18.32
-19.86
-21.53
-22.65
-22.49
-20.44
-16.30
-10.38
-3.44
3.51
9.55
14.09
17.03
18.65
19.39
19.62
19.50
19.02
18.07
16.69
15.04
13.35
11.80
10.39
8.93
7.17
4.96
2.34
-0.45
-3.09
-5.27
-6.77
-7.53
-7.58
-7.06
-6.22
-5.50
-5.37
-6.30
-8.51
-11.86
-15.82
-19.66
-22.63
-24.38
-25.00
-25.03
-25.21
-26.13
-27.90
-30.12
-31.93
-32.46
-31.07
-27.71
-22.79
-17.05
-11.12
-5.30
0.52
6.67
13.39
20.51
27.32
32.73
35.62
35.35
31.94
26.18
19.42
13.19
8.86
7.38
9.05
13.52
19.90
27.02
33.84
39.73
44.57
48.59
52.08
55.14
57.71
59.71
61.30
62.94
65.22
68.38
72.21
76.00
78.93
80.46
80.54
79.58
78.22
77.04
76.34
76.11
76.08
75.75
74.44
71.32
65.48
56.18
43.04
26.14
6.18
-15.69
-38.08
-59.66
-79.31
-96.18
-109.60
-119.02
-124.34
-125.87
-124.26
-120.46
-115.48
-110.15
-104.91
-99.74
-94.35
-88.90
-83.74
-79.14
-75.12
-71.39
-67.55
-63.28
-58.40
-52.96
-47.90
-44.17
-42.32
-42.13
-42.76
-43.21
-42.49
-39.80
-34.65
-27.99
-21.31
-16.09
-13.36
-13.68
-17.50
-25.19
-37.03
-47.05
-50.27
-44.44
-31.18
-14.15
3.66
20.59
35.79
48.85
59.68
67.62
72.25
73.91
73.48
72.09
70.61
69.57
69.29
69.94
70.92
71.40
71.14
70.22
68.95
67.50
65.83
63.79
61.25
57.76
52.40
45.38
36.91
27.24
16.50
4.71
-8.05
-21.46
-33.57
-44.39
-53.34
-60.12
-64.77
-67.82
-70.08
-72.30
-74.85
-77.60
-80.24
-81.90
-82.26
-81.39
-79.80
-78.14
-76.97
-76.75
-77.71
-81.08
-85.05
-87.58
-85.94
-77.36
-60.37
-35.88
-7.37
20.23
42.20
56.20
62.29
62.55
59.74
55.91
51.79
47.25
42.04
36.42
31.32
27.43
24.82
22.87
20.70
17.48
13.14
8.44
4.59
2.73
3.19
5.33
7.87
9.53
9.39
7.28
3.70
-0.42
-4.17
-6.91
-8.27
-9.10
-9.69
-10.15
-10.49
-10.73
-10.93
-11.17
-11.49
-11.83
-12.09
-12.05
-11.72
-11.29
-11.03
-11.09
-11.52
-12.23
-13.18
-14.36
-15.74
-17.31
-19.03
-20.80
-22.60
-24.49
-26.63
-29.16
-32.05
-34.93
-37.26
-38.36
-37.66
-34.77
-29.58
-22.30
-13.39
-3.50
6.66
16.32
24.89
31.90
37.17
40.77
42.96
44.14
44.66
44.73
44.40
43.63
42.36
40.57
38.29
35.56
32.35
28.68
24.64
20.39
16.17
12.05
7.89
3.30
-2.10
-8.43
-15.41
-22.46
-28.97
-34.66
-39.79
-44.93
-50.60
-56.88
-63.20
-68.37
-71.03
-70.08
-65.07
-56.37
-45.05
-32.56
-20.33
-9.44
-0.48
6.43
11.50
15.14
17.80
19.86
21.60
23.08
24.25
24.96
25.06
24.53
23.46
22.09
20.72
19.59
18.87
18.57
18.48
18.17
17.07
14.59
10.40
4.58
-2.35
-9.54
-16.21
-21.91
-26.66
-30.79
-34.64
-38.35
-41.68
-44.24
-45.56
-45.34
-43.39
-39.60
-33.89
-26.20
-16.67
-5.74
5.83
17.08
27.18
35.70
42.76
49.09
55.83
64.30
75.70
90.69
109.09
129.46
149.12
164.60
172.66
171.41
161.09
143.96
123.40
102.55
83.23
65.63
48.78
31.60
13.53
-5.17
-23.83
-41.78
-58.57
-73.85
-87.11
-97.52
-104.19
-106.50
-104.59
-99.39
-92.39
-85.24
-79.23
-75.06
-72.69
-71.52
-70.63
-69.06
-66.09
-61.33
-54.79
-46.79
-37.89
-28.65
-19.64
-11.21
-3.48
3.65
10.47
17.16
23.58
29.10
32.74
33.40
30.34
23.45
13.41
1.44
-10.95
-22.25
-31.23
-36.96
-38.93
-37.02
-31.46
-22.73
-11.36
2.28
18.13
36.35
57.29
80.99
106.85
133.11
156.79
174.12
181.53
176.99
161.02
136.82
109.29
83.37
62.36
46.98
35.80
26.20
15.90
