1660321294.00
64.000000
-0.00
-0.00
-0.00
-0.00
-0.00
-0.00
-0.00
-0.00
-0.00
-0.00
0.00
0.01
0.01
-0.00
-0.03
-0.05
-0.05
0.00
0.13
0.36
0.66
1.01
1.37
1.72
2.06
2.40
2.79
3.24
3.80
4.42
5.06
5.66
6.20
6.68
7.15
7.68
8.31
9.15
10.09
11.04
11.88
12.56
13.13
13.76
14.67
16.00
17.98
20.37
22.90
25.25
27.27
29.07
30.98
33.49
36.90
41.59
47.17
53.07
58.68
63.66
68.09
72.51
77.64
84.00
92.09
101.33
110.83
119.68
127.31
133.85
140.04
147.29
154.30
163.24
174.50
188.00
202.41
214.89
221.32
217.35
199.85
167.98
123.90
71.06
13.37
-46.16
-105.88
-165.11
-223.38
-279.94
-333.86
-384.00
-430.11
-472.18
-510.01
-542.58
-567.86
-583.28
-586.38
-575.89
-551.87
-516.19
-471.73
-421.87
-369.85
-318.18
-268.11
-219.26
-169.79
-117.14
-59.58
2.66
66.87
128.48
182.65
225.95
257.34
277.86
289.64
294.59
293.84
287.96
277.60
263.95
248.68
233.46
219.31
206.34
193.96
181.27
167.72
153.31
138.61
124.46
111.59
100.35
90.56
81.68
73.06
64.28
55.30
46.48
38.36
31.44
25.86
21.54
17.94
14.54
11.01
7.33
3.76
0.62
-1.85
-3.61
-4.82
-5.72
-6.48
-7.19
-7.82
-8.35
-8.76
-9.06
-9.30
-9.48
-9.59
-9.56
-9.29
-8.74
-7.94
-6.98
-6.05
-5.31
-4.84
-4.63
-4.59
-4.54
-4.38
-4.02
-3.51
-2.96
-2.51
-2.23
-2.18
-2.31
-2.52
-2.70
-2.79
-2.76
-2.69
-2.64
-2.67
-2.76
-2.86
-2.95
-2.99
-2.93
-2.69
-2.18
-1.39
-0.45
0.41
0.91
0.89
0.39
-0.39
-1.15
-1.70
-1.98
-2.06
-2.01
-1.86
-1.55
-1.02
-0.28
0.53
1.22
1.63
1.73
1.60
1.43
1.39
1.57
1.96
2.49
3.01
3.45
3.79
4.08
4.38
4.70
5.03
5.30
5.40
5.24
4.79
4.04
3.04
1.89
0.67
-0.53
-1.65
-2.67
-3.60
-4.50
-5.40
-6.25
-6.93
-7.33
-7.34
-7.03
-6.54
-6.08
-5.78
-5.62
-5.47
-5.18
-4.67
-4.01
-3.35
-2.85
-2.54
-2.38
-2.24
-2.03
-1.75
-1.46
-1.27
-1.21
-1.25
-1.30
-1.28
-1.18
-1.01
-0.85
-0.76
-0.75
-0.81
-0.88
-0.91
-0.86
-0.76
-0.63
-0.56
-0.56
-0.63
-0.70
-0.69
-0.58
-0.42
-0.29
-0.29
-0.44
-0.72
-1.03
-1.28
-1.39
-1.38
-1.27
-1.13
-0.99
-0.86
-0.69
-0.44
-0.09
0.38
0.92
1.47
1.96
2.34
2.59
2.73
2.79
2.78
2.69
2.52
2.25
1.93
1.60
1.33
1.14
1.03
0.99
0.96
0.92
0.83
0.67
0.39
-0.02
-0.50
-0.98
-1.33
-1.46
-1.32
-0.98
-0.61
-0.38
-0.45
-0.82
-1.41
-2.07
-2.67
-3.13
-3.45
-3.65
-3.71
-3.56
-3.11
-2.30
-1.21
0.01
1.15
2.04
2.62
2.93
3.07
3.07
2.95
2.68
2.25
1.76
1.35
1.17
1.27
1.58
1.89
2.01
1.85
1.45
0.99
0.64
0.47
0.47
0.54
0.57
0.50
0.35
0.14
-0.09
-0.34
-0.65
-1.06
-1.60
-2.26
-2.99
-3.68
-4.21
-4.47
-4.41
-4.07
-3.51
-2.86
-2.18
-1.49
-0.77
0.03
0.89
1.76
2.59
3.30
3.82
4.09
4.09
3.86
3.50
3.15
2.96
2.95
3.04
3.09
2.96
2.62
2.12
1.57
1.03
0.51
-0.04
-0.65
-1.32
-1.95
-2.44
-2.70
-2.74
-2.60
-2.41
-2.28
-2.30
-2.48
-2.78
-3.12
-3.38
-3.53
-3.52
-3.38
-3.12
-2.71
-2.11
-1.29
-0.30
0.74
1.68
2.34
2.68
2.72
2.60
2.45
2.35
2.30
2.21
1.99
1.60
1.10
0.61
0.23
0.02
-0.08
-0.16
-0.30
-0.52
-0.74
-0.87
-0.83
-0.60
-0.28
-0.01
0.08
-0.09
-0.48
-0.97
-1.39
-1.60
-1.59
-1.41
-1.19
-1.02
-0.93
-0.87
-0.77
-0.60
-0.41
-0.25
-0.17
-0.11
-0.03
0.12
0.34
0.58
0.79
0.96
1.10
1.23
1.32
1.31
1.15
0.83
0.41
-0.01
-0.34
-0.53
-0.59
-0.56
-0.48
-0.37
-0.22
-0.07
0.07
0.14
0.10
-0.03
-0.24
-0.45
-0.61
-0.71
-0.79
-0.91
-1.14
-1.46
-1.78
-2.02
-2.07
-1.89
-1.53
-1.05
-0.53
-0.02
0.45
0.91
1.37
1.84
2.29
2.65
2.83
2.79
2.55
2.17
1.72
1.29
0.91
0.60
0.38
0.30
0.39
0.64
0.96
1.21
1.26
1.07
0.72
0.36
0.11
0.00
-0.02
-0.11
-0.32
-0.70
-1.17
-1.63
-2.03
-2.35
-2.59
-2.74
-2.76
-2.55
-2.11
-1.43
-0.62
0.24
1.04
1.73
2.25
2.57
2.70
2.64
2.44
2.17
1.89
1.62
1.39
1.21
1.11
1.10
1.18
1.31
1.42
1.42
1.28
0.99
0.60
0.20
-0.15
-0.42
-0.60
-0.72
-0.81
-0.88
-0.94
-1.01
-1.10
-1.26
-1.49
-1.81
-2.15
-2.46
-2.65
-2.71
-2.65
-2.52
-2.37
-2.21
-2.02
-1.74
-1.31
-0.74
-0.10
0.53
1.07
1.47
1.72
1.84
1.83
1.71
1.49
1.22
0.94
0.70
0.54
0.41
0.29
0.13
-0.06
-0.24
-0.39
-0.51
-0.63
-0.79
-0.98
-1.20
-1.40
-1.57
-1.74
-1.92
-2.10
-2.27
-2.41
-2.51
-2.56
-2.54
-2.42
-2.12
-1.61
-0.90
-0.11
0.60
1.09
1.32
1.34
1.29
1.29
1.40
1.59
1.74
1.74
1.54
1.17
0.72
0.29
0.00
-0.12
-0.09
0.06
0.29
0.56
0.82
1.00
1.05
0.89
0.51
-0.04
-0.61
-1.08
-1.35
-1.42
-1.41
-1.44
-1.63
-1.99
-2.43
-2.79
-2.94
-2.84
-2.51
-2.05
-1.54
-1.05
-0.56
-0.08
0.39
0.83
1.23
1.55
1.80
1.98
2.07
2.07
2.00
1.89
1.80
1.77
1.84
1.98
2.08
2.04
1.76
1.23
0.53
-0.21
-0.81
-1.18
-1.30
-1.28
-1.25
-1.32
-1.50
-1.72
-1.86
-1.80
-1.51
-1.04
-0.56
-0.22
-0.13
-0.31
-0.68
-1.11
-1.47
-1.68
-1.69
-1.51
-1.13
-0.54
0.27
1.30
2.45
3.56
4.40
4.82
4.76
4.33
3.71
3.05
2.37
1.63
0.71
-0.42
-1.64
-2.72
-3.43
-3.63
-3.35
-2.75
-1.99
-1.25
-0.56
0.07
0.63
1.10
1.45
1.60
1.56
1.34
0.99
0.55
0.01
-0.69
-1.58
-2.67
-3.82
-4.81
-5.44
-5.59
-5.32
-4.81
-4.31
-3.97
-3.85
-3.89
-4.02
-4.16
-4.32
-4.50
-4.71
-4.91
-5.04
-5.04
-4.94
-4.76
-4.56
-4.40
-4.27
-4.14
-3.94
-3.58
-2.96
-2.03
-0.81
0.61
2.10
3.51
4.78
5.88
6.81
7.53
7.96
7.98
7.52
6.64
5.52
4.40
3.49
2.90
2.64
2.68
2.95
3.39
3.93
4.40
4.64
4.53
4.06
3.36
2.65
2.12
1.84
1.77
1.79
1.81
1.81
1.83
1.90
1.99
2.02
1.89
1.56
1.06
0.50
0.02
-0.30
-0.46
-0.55
-0.65
-0.82
-1.08
-1.36
-1.60
-1.79
-1.94
-2.11
-2.35
-2.62
-2.78
-2.69
-2.25
-1.48
-0.56
0.30
0.89
1.14
1.15
1.08
1.12
1.32
1.64
1.94
2.13
2.18
2.14
2.12
2.14
2.17
2.14
1.96
1.65
1.26
0.92
0.73
0.70
0.77
0.81
0.68
0.31
-0.31
-1.07
-1.82
-2.42
-2.77
-2.83
-2.67
-2.34
-1.93
-1.47
-1.00
-0.58
-0.25
-0.02
0.10
0.22
0.42
0.75
1.20
1.66
2.04
2.23
2.19
1.90
1.39
0.71
-0.03
-0.70
-1.16
-1.35
-1.29
-1.08
-0.83
-0.61
-0.38
-0.09
0.27
0.62
0.85
0.83
0.52
-0.01
-0.61
-1.11
-1.42
-1.51
-1.44
-1.30
-1.18
-1.15
-1.22
-1.32
-1.37
-1.30
-1.08
-0.77
-0.45
-0.21
-0.09
-0.08
-0.13
-0.22
-0.35
-0.52
-0.76
-1.02
-1.23
-1.32
-1.22
-0.96
-0.57
-0.11
0.40
0.98
1.67
2.47
3.37
4.25
4.97
5.42
5.53
5.34
4.97
4.60
4.45
4.75
5.69
7.27
9.28
11.25
12.55
12.59
11.15
8.43
5.14
2.15
0.24
-0.21
0.64
2.27
4.02
5.38
6.12
6.34
6.22
5.94
5.52
4.87
3.96
2.86
1.82
1.14
1.06
1.61
2.59
3.72
4.70
5.37
5.67
5.61
5.22
4.51
3.57
2.65
2.08
2.28
3.54
5.93
9.20
12.82
16.17
18.66
19.96
20.04
19.16
17.81
16.55
15.90
16.19
17.47
19.50
21.76
23.66
24.70
24.64
23.66
22.21
20.84
19.91
19.47
19.21
18.68
17.52
15.58
13.02
10.15
7.30
4.67
2.35
0.35
-1.23
-2.22
-2.41
-1.59
0.31
3.25
7.02
11.36
15.90
20.23
23.90
26.54
27.90
28.02
27.19
25.89
24.60
23.66
23.16
23.00
22.91
22.63
21.92
20.59
18.56
15.88
12.76
9.53
6.58
4.15
2.29
0.82
-0.58
-2.16
-4.05
-6.20
-8.43
-10.60
-12.58
-14.30
-15.73
-16.86
-17.72
-18.38
-18.98
-19.62
-20.38
-21.26
-22.20
-23.12
-23.91
-24.50
-24.78
-24.69
-24.20
-23.36
-22.30
-21.17
-20.11
-19.19
-18.41
-17.78
-17.32
-17.08
-17.08
-17.25
-17.45
-17.52
-17.38
-17.07
-16.71
-16.40
-16.18
-16.01
-15.81
-15.59
-15.39
-15.27
-15.21
-15.06
-14.61
-13.66
-12.20
-10.35
-8.32
-6.31
-4.36
-2.43
-0.41
1.71
3.79
5.57
6.76
7.15
6.58
4.95
2.03
-2.43
-8.67
-16.60
-25.71
-34.98
-43.15
-49.13
-52.34
-52.87
-51.35
-48.61
-45.32
-41.83
-38.22
-34.49
-30.73
-27.14
-23.97
-21.30
-19.06
-17.00
-14.91
-12.70
-10.53
-8.68
-7.41
-6.81
-6.77
-7.06
-7.40
-7.62
-7.63
-7.50
-7.36
-7.36
-7.61
-8.18
-9.04
-10.11
-11.25
-12.35
-13.33
-14.15
-14.76
-15.08
-14.99
-14.42
-13.36
-11.93
-10.32
-8.73
-7.25
-5.93
-4.74
-3.69
-2.82
-2.19
-1.81
-1.61
-1.48
-1.31
-1.08
-0.82
-0.62
-0.51
-0.48
-0.43
-0.27
0.02
0.38
0.70
0.87
0.80
0.48
-0.05
-0.68
-1.30
-1.81
-2.18
-2.45
-2.70
-3.01
-3.42
-3.87
-4.31
-4.68
-4.99
-5.28
-5.56
-5.84
-6.03
-6.08
-5.93
-5.55
-4.91
-3.96
-2.63
-0.91
1.08
3.08
4.73
5.70
5.81
5.12
3.95
2.71
1.83
1.55
1.86
2.53
3.21
3.60
3.60
3.32
3.01
2.91
3.08
3.35
3.44
3.11
2.35
1.35
0.47
-0.01
0.05
0.56
1.28
1.93
2.26
2.02
1.07
-0.67
-3.06
-5.76
-8.25
-9.98
-10.57
-9.94
-8.31
-6.08
-3.67
-1.37
0.69
2.47
3.92
4.96
5.48
5.40
4.77
3.76
2.62
1.62
0.92
0.61
0.60
0.81
1.18
1.79
2.76
4.25
6.27
8.70
11.24
13.51
15.13
15.80
15.39
13.88
11.42
8.26
4.76
1.34
-1.55
-3.54
-4.43
-4.24
-3.24
-1.86
-0.52
0.43
0.86
0.80
0.39
-0.24
-1.01
-1.85
-2.67
-3.25
-3.41
-3.00
-2.10
-0.98
0.04
0.73
1.19
1.77
2.94
5.01
7.85
10.90
13.30
14.27
13.39
10.79
7.15
3.38
0.32
-1.54
-2.16
-1.86
-1.08
-0.21
0.52
1.03
1.33
1.47
1.49
1.46
1.47
1.58
1.83
2.25
2.84
3.69
4.99
6.97
9.81
13.48
17.72
21.95
25.37
27.15
26.65
23.63
18.38
11.75
4.93
-0.93
-4.99
-6.98
-7.16
-6.18
-4.81
-3.76
-3.51
-4.31
-6.12
-8.66
-11.44
-13.90
-15.56
-16.12
-15.59
-14.23
-12.42
-10.54
-8.80
-7.19
-5.46
-3.25
-0.18
3.90
8.80
13.96
18.51
21.52
22.32
20.75
17.31
13.00
9.01
6.30
5.24
5.61
6.71
7.73
8.05
7.39
5.82
3.61
1.11
-1.42
-3.79
-5.88
-7.66
-9.09
-10.12
-10.61
-10.30
-8.92
-6.28
-2.40
2.43
7.66
12.64
16.68
19.18
19.74
18.25
14.98
10.59
5.97
2.07
-0.43
-1.25
-0.60
0.99
2.78
4.11
4.48
3.72
1.90
-0.64
-3.49
-6.25
-8.62
-10.46
-11.75
-12.53
-12.84
-12.70
-12.04
-10.76
-8.73
-5.86
-2.18
2.12
6.65
10.88
14.28
16.41
17.10
16.51
15.09
13.50
12.33
11.93
12.28
13.04
13.73
13.94
13.49
12.37
10.72
8.71
6.51
4.26
2.11
0.17
-1.49
-2.89
-4.03
-4.82
-5.01
-4.25
-2.23
1.09
5.39
9.98
13.97
16.52
17.06
15.47
12.09
7.63
2.90
-1.31
-4.44
-6.19
-6.49
-5.50
-3.60
-1.30
0.78
2.07
2.19
1.09
-0.96
-3.44
-5.78
-7.57
-8.60
-8.93
-8.79
-8.45
-8.12
-7.78
-7.20
-5.96
-3.66
-0.12
4.48
9.56
14.25
17.63
18.94
17.89
14.66
9.99
4.95
0.63
-2.16
-3.16
-2.65
-1.28
0.16
1.11
1.31
0.79
-0.26
-1.66
-3.27
-5.00
-6.71
-8.23
-9.38
-9.98
-9.98
-9.44
-8.51
-7.33
-5.97
-4.38
-2.44
-0.12
2.50
5.12
7.36
8.80
9.12
8.23
6.26
3.58
0.72
-1.79
-3.60
-4.61
-5.01
-5.14
-5.29
-5.59
-5.98
-6.27
-6.34
-6.17
-5.90
-5.71
-5.70
-5.86
-6.09
-6.25
-6.16
-5.71
-4.81
-3.46
-1.80
-0.03
1.55
2.70
3.27
3.30
2.92
2.34
1.73
1.17
0.68
0.22
-0.26
-0.76
-1.31
-1.92
-2.62
-3.41
-4.21
-4.88
-5.30
-5.41
-5.23
-4.83
-4.22
-3.35
-2.13
-0.54
1.27
3.01
4.42
5.37
5.93
6.30
6.67
7.09
7.48
7.72
7.74
7.56
7.27
6.95
6.63
6.28
5.88
5.44
4.99
4.55
4.19
3.92
3.74
3.63
3.51
3.30
2.99
2.65
2.46
2.62
3.28
4.46
6.05
7.89
9.79
11.54
12.92
13.66
13.54
12.46
10.54
8.13
5.69
3.65
2.25
1.55
1.40
1.55
1.70
1.55
0.86
-0.52
-2.49
-4.74
-6.82
-8.35
-9.16
-9.38
-9.36
-9.46
-9.87
-10.51
-11.16
-11.61
-11.79
-11.82
-11.96
-12.37
-13.08
-13.91
-14.58
-14.83
-14.52
-13.67
-12.39
-10.81
-9.07
-7.24
-5.44
-3.76
-2.31
-1.10
-0.09
0.84
1.77
2.68
3.49
4.05
4.30
4.30
4.17
4.08
4.11
4.26
4.50
4.73
4.87
4.85
4.58
4.01
3.14
2.04
0.91
-0.01
-0.53
-0.56
-0.12
0.65
1.61
2.60
3.54
4.39
5.16
5.82
6.33
6.64
6.75
6.67
6.47
6.24
6.04
5.86
5.67
5.42
5.11
4.76
4.45
4.24
4.14
4.12
4.06
3.85
3.37
2.61
1.62
0.56
-0.40
-1.12
-1.59
-1.88
-2.10
-2.33
-2.56
-2.69
-2.64
-2.38
-1.95
-1.45
-0.93
-0.37
0.32
1.20
2.23
3.28
4.15
4.71
4.96
4.97
4.87
4.74
4.57
4.29
3.87
3.33
2.80
2.35
2.04
1.79
1.53
1.15
0.66
0.07
-0.53
-1.08
-1.56
-1.96
-2.26
-2.47
-2.61
-2.73
-2.87
-3.05
-3.20
-3.22
-2.99
-2.47
-1.76
-1.00
-0.35
0.11
0.37
0.53
0.66
0.82
0.99
1.13
1.19
1.19
1.19
1.23
1.39
1.66
1.99
2.29
2.45
2.37
2.03
1.44
0.73
0.06
-0.42
-0.65
-0.65
-0.51
-0.35
-0.23
-0.20
-0.23
-0.32
-0.50
-0.79
-1.19
-1.60
-1.86
-1.84
-1.50
-0.93
-0.27
0.31
0.77
1.13
1.42
1.67
1.83
1.85
1.68
1.38
1.02
0.70
0.45
0.21
-0.07
-0.42
-0.81
-1.15
-1.31
-1.27
-1.01
-0.62
-0.17
0.28
0.71
1.08
1.37
1.51
1.48
1.29
1.03
0.85
0.85
1.05
1.38
1.69
1.86
1.90
1.86
1.87
1.98
2.16
2.28
2.21
1.87
1.32
0.68
0.10
-0.33
-0.63
-0.88
-1.19
-1.58
-2.03
-2.41
-2.60
-2.53
-2.23
-1.85
-1.59
-1.59
-1.91
-2.50
-3.23
-3.96
-4.59
-5.08
-5.41
-5.57
-5.54
-5.23
-4.64
-3.79
-2.79
-1.80
-0.98
-0.45
-0.21
-0.22
-0.36
-0.55
-0.72
-0.86
-1.00
-1.12
-1.19
-1.16
-0.98
-0.66
-0.26
0.14
0.48
0.73
0.91
1.05
1.19
1.30
1.38
1.37
1.28
1.13
0.99
0.90
0.86
0.83
0.72
0.53
0.32
0.21
0.34
0.74
1.34
1.98
2.48
2.73
2.75
2.61
2.46
2.37
2.40
2.50
2.64
2.76
2.85
2.92
3.01
3.14
3.32
3.47
3.50
3.35
2.99
2.51
2.03
1.65
1.38
1.12
0.80
0.39
-0.04
-0.34
-0.39
-0.22
0.03
0.17
0.09
-0.18
-0.44
-0.51
-0.28
0.14
0.56
0.81
0.87
0.84
0.88
1.06
1.32
1.53
1.59
1.48
1.31
1.16
1.05
0.91
0.68
0.35
-0.01
-0.32
-0.53
-0.72
-0.97
-1.33
-1.74
-2.08
-2.22
-2.18
-2.05
-2.00
-2.15
-2.53
-3.03
-3.47
-3.71
-3.66
-3.30
-2.74
-2.09
-1.46
-0.95
-0.59
-0.36
-0.25
-0.20
-0.15
-0.05
0.16
0.48
0.83
1.11
1.18
1.02
0.72
0.47
0.45
0.70
1.14
1.55
1.71
1.56
1.13
0.59
0.08
-0.33
-0.64
-0.88
-1.07
-1.20
-1.22
-1.13
-0.94
-0.69
-0.39
-0.01
0.50
1.16
1.92
2.64
3.18
3.44
3.42
3.22
2.99
2.86
2.90
3.08
3.33
3.58
3.75
3.80
3.69
3.39
2.88
2.22
1.50
0.89
0.49
0.31
0.27
0.19
-0.09
-0.64
-1.42
-2.26
-2.97
-3.40
-3.47
-3.21
-2.72
-2.11
-1.49
-0.92
-0.41
0.03
0.39
0.63
0.75
0.78
0.78
0.86
1.08
1.43
1.79
2.03
2.05
1.86
1.55
1.28
1.19
1.27
1.42
1.45
1.23
0.72
0.04
-0.59
-1.00
-1.15
-1.12
-1.09
-1.22
-1.55
-2.04
-2.59
-3.06
-3.39
-3.52
-3.46
-3.23
-2.87
-2.43
-1.96
-1.45
-0.92
-0.36
0.21
0.77
1.24
1.60
1.80
1.89
1.88
1.81
1.67
1.49
1.26
1.01
0.77
0.56
0.39
0.25
0.12
-0.01
-0.15
-0.26
-0.34
-0.40
-0.48
-0.66
-0.99
-1.44
-1.98
-2.49
-2.91
-3.21
-3.39
-3.49
-3.53
-3.47
-3.27
-2.87
-2.24
-1.40
-0.42
0.60
1.50
2.16
2.50
2.51
2.31
2.04
1.82
1.68
1.60
1.51
1.39
1.28
1.24
1.31
1.45
1.56
1.53
1.31
0.92
0.44
-0.03
-0.40
-0.61
-0.65
-0.57
-0.47
-0.45
-0.58
-0.83
-1.15
-1.44
-1.64
-1.72
-1.72
-1.65
-1.53
-1.32
-1.00
-0.57
-0.04
0.53
1.06
1.47
1.68
1.68
1.52
1.34
1.27
1.40
1.70
2.00
2.14
2.01
1.62
1.13
0.68
0.38
0.23
0.15
0.06
-0.06
-0.18
-0.26
-0.26
-0.22
-0.21
-0.34
-0.66
-1.18
-1.84
-2.53
-3.12
-3.48
-3.55
-3.33
-2.90
-2.34
-1.78
-1.27
-0.81
-0.38
0.06
0.54
1.05
1.56
2.01
2.35
2.55
2.56
2.38
2.02
1.52
0.96
0.43
0.02
-0.24
-0.35
-0.37
-0.38
-0.42
-0.49
-0.54
-0.50
-0.34
-0.09
0.15
0.28
0.20
-0.13
-0.71
-1.45
-2.20
-2.79
-3.08
-3.02
-2.66
-2.13
-1.57
-1.07
-0.64
-0.26
0.10
0.39
0.50
0.36
-0.01
-0.47
-0.81
-0.85
-0.54
-0.00
0.51
0.78
0.70
0.31
-0.19
-0.59
-0.77
-0.73
-0.57
-0.43
-0.38
-0.46
-0.63
-0.86
-1.11
-1.36
-1.58
-1.73
-1.78
-1.74
-1.66
-1.58
-1.56
-1.64
-1.78
-1.90
-1.89
-1.66
-1.16
-0.41
0.47
1.33
2.03
2.45
2.58
2.49
2.26
2.01
1.83
1.76
1.86
2.11
2.43
2.70
2.77
2.52
1.92
1.09
0.17
-0.62
-1.19
-1.50
-1.61
-1.63
-1.64
-1.72
-1.88
-2.17
-2.58
-3.04
-3.47
-3.71
-3.68
-3.32
-2.69
-1.93
-1.18
-0.55
-0.09
0.20
0.34
0.40
0.41
0.43
0.47
0.52
0.56
0.56
0.51
0.47
0.48
0.59
0.80
1.04
1.26
1.37
1.35
1.21
0.98
0.72
0.47
0.28
0.16
0.07
-0.04
-0.25
-0.58
-0.95
-1.27
-1.41
-1.33
-1.07
-0.71
-0.34
-0.01
0.27
0.49
0.65
0.71
0.67
0.59
0.54
0.58
0.74
0.96
1.16
1.30
1.36
1.40
1.42
1.43
1.38
1.23
0.99
0.67
0.35
0.03
-0.28
-0.56
-0.82
-1.03
-1.17
-1.26
-1.36
-1.51
-1.76
-2.09
-2.50
-2.94
-3.37
-3.74
-3.99
-4.03
-3.84
-3.42
-2.83
-2.21
-1.66
-1.25
-0.99
-0.82
-0.68
-0.53
-0.31
-0.02
0.35
0.74
1.14
1.51
1.82
2.03
2.10
1.99
1.70
1.29
0.84
0.42
0.11
-0.11
-0.25
-0.38
-0.53
-0.71
-0.87
-0.99
-1.03
-1.00
-0.97
-1.00
-1.13
-1.37
-1.65
-1.90
-2.01
-1.96
-1.78
-1.54
-1.31
-1.10
-0.88
-0.57
-0.18
0.27
0.68
0.98
1.17
1.30
1.50
1.83
2.28
2.75
3.06
3.10
2.84
2.38
1.91
1.58
1.48
1.53
1.59
1.53
1.29
0.92
0.53
0.20
-0.05
-0.24
-0.42
-0.62
-0.83
-1.02
-1.17
-1.28
-1.37
-1.41
-1.37
-1.21
-0.88
-0.36
0.32
1.09
1.83
2.40
2.70
2.69
2.47
2.20
2.07
2.16
2.40
2.64
2.73
2.59
2.31
1.99
1.71
1.46
1.16
0.72
0.15
-0.48
-1.01
-1.33
-1.41
-1.26
-0.97
-0.66
-0.43
-0.37
-0.53
-0.92
-1.46
-2.01
-2.44
-2.65
-2.64
-2.47
-2.23
-1.95
-1.63
-1.24
-0.76
-0.22
0.32
0.79
1.19
1.57
2.00
2.49
2.97
3.27
3.23
2.82
2.14
1.39
0.79
0.47
0.41
0.49
0.58
0.58
0.48
0.30
0.06
-0.24
-0.62
-1.06
-1.50
-1.83
-1.98
-1.91
-1.72
-1.56
-1.61
-1.95
-2.54
-3.21
-3.74
-3.98
-3.90
-3.56
-3.09
-2.55
-1.98
-1.37
-0.76
-0.19
0.27
0.59
0.83
1.05
1.27
1.46
1.54
1.45
1.21
0.92
0.67
0.48
0.32
0.12
-0.14
-0.40
-0.57
-0.62
-0.60
-0.65
-0.88
-1.28
-1.74
-2.06
-2.12
-1.93
-1.64
-1.41
-1.37
-1.51
-1.77
-2.04
-2.27
-2.43
-2.51
-2.50
-2.38
-2.15
-1.84
-1.51
-1.20
-0.92
-0.62
-0.27
0.13
0.54
0.88
1.08
1.14
1.10
1.07
1.11
1.26
1.48
1.72
1.94
2.10
2.21
2.26
2.25
2.14
1.92
1.59
1.17
0.70
0.26
-0.08
-0.27
-0.30
-0.21
-0.12
-0.14
-0.33
-0.68
-1.12
-1.54
-1.87
-2.04
-2.03
-1.81
-1.38
-0.75
0.00
0.78
1.48
2.04
2.49
2.85
3.19
3.54
3.86
4.10
4.20
4.10
3.77
3.21
2.47
1.62
0.79
0.06
-0.52
-0.94
-1.21
-1.36
-1.41
-1.38
-1.32
-1.26
-1.23
-1.23
-1.23
-1.22
-1.23
-1.28
-1.40
-1.60
-1.85
-2.11
-2.35
-2.59
-2.82
-3.00
-3.08
-2.98
-2.66
-2.13
-1.44
-0.63
0.22
1.04
1.76
2.28
2.50
2.43
2.13
1.74
1.45
1.40
1.60
1.96
2.32
2.53
2.50
2.25
1.85
1.39
0.95
0.56
0.24
-0.01
-0.18
-0.27
-0.30
-0.32
-0.38
-0.52
-0.70
-0.90
-1.11
-1.33
-1.62
-1.99
-2.44
-2.93
-3.37
-3.68
-3.79
-3.69
-3.41
-3.02
-2.60
-2.23
-1.94
-1.72
-1.50
-1.20
-0.77
-0.22
0.38
0.91
1.27
1.45
1.47
1.44
1.46
1.54
1.65
1.70
1.59
1.29
0.85
0.41
0.08
-0.03
0.05
0.23
0.36
0.36
0.22
-0.00
-0.22
-0.38
-0.50
-0.61
-0.78
-1.00
-1.25
-1.44
-1.56
-1.64
-1.80
-2.12
-2.59
-3.10
-3.47
-3.54
-3.27
-2.80
-2.29
-1.88
-1.60
-1.36
-1.02
-0.55
0.02
0.55
0.94
1.16
1.25
1.32
1.43
1.59
1.78
1.94
2.08
2.20
2.33
2.47
2.58
2.64
2.57
2.37
2.04
1.62
1.18
0.75
0.34
-0.03
-0.37
-0.67
-0.91
-1.08
-1.18
-1.26
-1.37
-1.55
-1.81
-2.08
-2.27
-2.30
-2.14
-1.81
-1.37
-0.88
-0.40
0.03
0.38
0.68
0.97
1.31
1.74
2.22
2.66
2.94
3.00
2.87
2.67
2.55
2.57
2.68
2.71
2.51
2.05
1.47
0.99
0.81
0.99
1.39
1.76
1.87
1.60
1.01
0.28
-0.38
-0.83
-1.05
-1.15
-1.27
-1.54
-1.98
-2.52
-3.05
-3.46
-3.65
-3.61
-3.34
-2.86
-2.22
-1.45
-0.67
-0.01
0.39
0.44
0.18
-0.22
-0.56
-0.68
-0.53
-0.18
0.27
0.70
1.11
1.50
1.88
2.22
2.44
2.48
2.33
2.07
1.75
1.43
1.06
0.60
-0.00
-0.73
-1.51
-2.22
-2.78
-3.11
-3.23
-3.17
-3.00
-2.76
-2.53
-2.36
-2.31
-2.41
-2.67
-3.06
-3.48
-3.78
-3.83
-3.54
-2.94
-2.12
-1.24
-0.44
0.22
0.76
1.25
1.74
2.21
2.61
2.87
2.96
2.94
2.88
2.83
2.81
2.73
2.51
2.08
1.42
0.62
-0.24
-1.02
-1.63
-1.98
-2.01
-1.74
-1.26
-0.71
-0.28
-0.08
-0.16
-0.47
-0.89
-1.32
-1.73
-2.12
-2.53
-2.96
-3.34
-3.53
-3.40
-2.93
-2.19
-1.33
-0.52
0.16
0.71
1.22
1.81
2.52
3.32
4.14
4.87
5.41
5.72
5.79
5.67
5.45
5.22
5.09
5.07
5.12
5.14
5.06
4.85
4.56
4.26
3.98
3.69
3.33
2.85
2.26
1.62
0.99
0.39
-0.22
-0.88
-1.57
-2.23
-2.70
-2.88
-2.74
-2.34
-1.83
-1.36
-1.00
-0.78
-0.63
-0.47
-0.23
0.13
0.60
1.12
1.61
1.95
2.09
1.97
1.61
1.11
0.55
0.04
-0.39
-0.75
-1.13
-1.57
-2.08
-2.59
-2.99
-3.21
-3.27
-3.21
-3.12
-3.07
-3.04
-3.01
-2.97
-2.95
-2.99
-3.15
-3.36
-3.52
-3.50
-3.21
-2.67
-2.01
-1.36
-0.83
-0.43
-0.09
0.32
0.87
1.57
2.33
3.02
3.48
3.66
3.58
3.32
2.98
2.59
2.12
1.49
0.64
-0.39
-1.47
-2.41
-3.04
-3.28
-3.17
-2.83
-2.37
-1.84
-1.23
-0.53
0.22
0.87
1.22
1.07
0.33
-0.91
-2.46
-4.01
-5.28
-6.11
-6.41
-6.25
-5.76
-5.07
-4.28
-3.42
-2.47
-1.40
-0.20
1.03
2.18
3.10
3.73
4.03
4.05
3.83
3.39
2.77
2.01
1.25
0.63
0.30
0.29
0.55
0.93
1.25
1.39
1.33
1.08
0.74
0.37
0.05
-0.18
-0.29
-0.30
-0.26
-0.23
-0.26
-0.41
-0.67
-1.04
-1.46
-1.89
-2.24
-2.45
-2.47
-2.32
-2.04
-1.67
-1.22
-0.66
0.07
0.96
1.93
2.82
3.47
3.76
3.73
3.52
3.32
3.24
3.28
3.34
3.27
2.98
2.46
1.80
1.16
0.67
0.42
0.39
0.48
0.56
0.54
0.36
0.05
-0.32
-0.70
-1.05
-1.40
-1.73
-2.05
-2.33
-2.52
-2.61
-2.60
-2.48
-2.29
-2.03
-1.71
-1.37
-1.07
-0.83
-0.62
-0.37
0.03
0.60
1.32
2.03
2.60
2.92
3.02
2.96
2.86
2.80
2.78
2.75
2.67
2.50
2.21
1.80
1.27
0.65
-0.02
-0.64
-1.09
-1.29
-1.22
-0.96
-0.62
-0.31
-0.08
0.09
0.21
0.24
0.15
-0.12
-0.55
-1.08
-1.56
-1.86
-1.90
-1.68
-1.23
-0.63
0.05
0.77
1.45
2.01
2.40
2.58
2.54
2.35
2.07
1.78
1.53
1.34
1.24
1.21
1.19
1.14
1.00
0.77
0.51
0.29
0.20
0.23
0.29
0.25
0.02
-0.39
-0.87
-1.23
-1.36
-1.26
-1.08
-1.01
-1.18
-1.61
-2.21
-2.82
-3.30
-3.61
-3.75
-3.76
-3.64
-3.41
-3.07
-2.64
-2.19
-1.81
-1.52
-1.30
-1.06
-0.70
-0.19
0.40
0.94
1.29
1.40
1.31
1.15
1.05
1.08
1.20
1.33
1.36
1.23
0.96
0.61
0.25
-0.05
-0.24
-0.35
-0.40
-0.44
-0.51
-0.65
-0.84
-1.06
-1.28
-1.46
-1.61
-1.71
-1.78
-1.82
-1.87
-1.95
-2.07
-2.27
-2.49
-2.68
-2.76
-2.67
-2.39
-1.97
-1.48
-1.00
-0.58
-0.22
0.12
0.44
0.74
1.00
1.22
1.44
1.73
2.13
2.60
3.03
3.26
3.18
2.79
2.22
1.66
1.26
1.09
1.07
1.07
0.96
0.66
0.22
-0.22
-0.52
-0.59
-0.49
-0.36
-0.38
-0.67
-1.18
-1.73
-2.11
-2.22
-2.07
-1.80
-1.53
-1.30
-1.05
-0.65
-0.04
0.75
1.58
2.32
2.84
3.15
3.31
3.38
3.42
3.40
3.28
3.03
2.70
2.38
2.18
2.12
2.13
2.04
1.73
1.16
0.46
-0.18
-0.56
-0.63
-0.40
-0.03
0.34
0.60
0.69
0.59
0.30
-0.16
-0.78
-1.50
-2.25
-2.91
-3.39
-3.61
-3.57
-3.32
-2.97
-2.64
-2.38
-2.18
-1.95
-1.60
-1.13
-0.55
0.04
0.55
0.98
1.33
1.63
1.91
2.12
2.25
2.27
2.21
2.10
1.97
1.86
1.75
1.67
1.59
1.51
1.44
1.35
1.23
1.06
0.80
0.45
0.02
-0.46
-0.90
-1.24
-1.40
-1.35
-1.17
-0.98
-0.93
-1.10
-1.51
-2.08
-2.69
-3.26
-3.69
-3.93
-3.95
-3.71
-3.21
-2.53
-1.76
-1.07
-0.54
-0.22
-0.08
-0.04
-0.02
0.07
0.27
0.59
0.97
1.28
1.42
1.36
1.12
0.83
0.61
0.52
0.54
0.57
0.50
0.36
0.19
0.09
0.12
0.25
0.38
0.44
0.40
0.27
0.12
-0.02
-0.14
-0.24
-0.37
-0.54
-0.73
-0.92
-1.09
-1.24
-1.40
-1.59
-1.81
-2.04
-2.20
-2.24
-2.11
-1.86
-1.55
-1.26
-1.01
-0.73
-0.34
0.21
0.90
1.60
2.16
2.47
2.53
2.40
2.22
2.09
2.04
2.06
2.06
2.01
1.88
1.70
1.54
1.45
1.43
1.48
1.52
1.49
1.36
1.09
0.74
0.34
-0.06
-0.40
-0.68
-0.89
-1.08
-1.29
-1.54
-1.82
-2.06
-2.19
-2.20
-2.11
-1.96
-1.82
-1.67
-1.46
-1.12
-0.62
0.00
0.65
1.20
1.59
1.83
1.99
2.13
2.27
2.39
2.42
2.30
1.99
1.51
0.92
0.34
-0.10
-0.36
-0.42
-0.36
-0.26
-0.17
-0.10
-0.03
0.05
0.12
0.09
-0.14
-0.64
-1.40
-2.32
-3.24
-4.00
-4.52
-4.81
-4.95
-5.05
-5.16
-5.26
-5.26
-5.05
-4.56
-3.82
-2.90
-1.89
-0.89
0.06
0.90
1.53
1.86
1.86
1.58
1.25
1.13
1.41
2.13
3.15
4.22
5.12
5.78
6.26
6.72
7.30
8.06
9.00
10.13
11.43
12.96
14.69
16.51
18.26
19.67
20.48
20.38
19.14
16.56
12.66
7.63
1.96
-3.73
-8.78
-12.72
-15.36
-16.83
-17.47
-17.63
-17.57
-17.36
-16.97
-16.36
-15.52
-14.57
-13.70
-13.07
-12.73
-12.57
-12.38
-11.97
-11.28
-10.39
-9.49
-8.74
-8.14
-7.56
-6.85
-5.93
-4.89
-3.98
-3.42
-3.34
-3.66
-4.13
-4.49
-4.58
-4.32
-3.76
-2.98
-2.09
-1.21
-0.45
0.10
0.43
0.57
0.61
0.66
0.78
0.96
1.19
1.45
1.78
2.24
2.88
3.68
4.55
5.41
6.17
6.82
7.43
8.05
8.72
9.41
9.98
10.26
10.11
9.45
8.33
6.87
5.27
3.74
2.45
1.49
0.85
0.49
0.29
0.17
0.07
-0.04
-0.17
-0.33
-0.48
-0.58
-0.62
-0.56
-0.45
-0.33
-0.31
-0.43
-0.67
-0.92
-1.04
-0.95
-0.65
-0.23
0.23
0.73
1.31
2.05
2.91
3.74
4.34
4.60
4.57
4.43
4.43
4.66
5.06
5.44
5.60
5.49
5.21
4.95
4.86
4.96
5.13
5.24
5.20
5.02
4.76
4.47
4.14
3.73
3.23
2.67
2.13
1.67
1.28
0.91
0.49
0.05
-0.31
-0.45
-0.27
0.25
0.99
1.80
2.56
3.21
3.77
4.26
4.66
4.93
5.00
4.88
4.60
4.29
4.02
3.83
3.67
3.47
3.18
2.84
2.53
2.32
2.23
2.16
1.96
1.48
0.64
-0.54
-1.90
-3.23
-4.36
-5.18
-5.75
-6.18
-6.66
-7.31
-8.16
-9.15
-10.20
-11.22
-12.16
-12.95
-13.48
-13.59
-13.18
-12.33
-11.31
-10.48
-10.05
-10.00
-10.04
-9.78
-8.97
-7.67
-6.18
-4.86
-3.93
-3.37
-2.99
-2.57
-2.08
-1.58
-1.21
-1.02
-0.93
-0.82
-0.64
-0.41
-0.26
-0.27
-0.43
-0.63
-0.73
-0.66
-0.46
-0.22
-0.05
0.01
0.00
0.04
0.24
0.65
1.25
2.00
2.81
3.61
4.35
5.01
5.59
6.12
6.59
6.98
7.24
7.32
7.18
6.82
6.30
5.68
5.03
4.44
3.93
3.53
3.26
3.10
3.06
3.14
3.30
3.48
3.60
3.53
3.17
2.43
1.36
0.04
-1.40
-2.84
-4.18
-5.38
-6.37
-7.06
-7.30
-6.99
-6.11
-4.81
-3.37
-2.09
-1.20
-0.79
-0.80
-1.08
-1.47
-1.81
-2.02
-1.98
-1.64
-0.94
0.05
1.22
2.38
3.33
3.92
4.06
3.76
3.06
2.11
1.09
0.19
-0.42
-0.70
-0.73
-0.69
-0.75
-1.04
-1.53
-2.09
-2.56
-2.81
-2.77
-2.49
-2.03
-1.49
-0.89
-0.25
0.44
1.19
1.98
2.75
3.41
3.86
4.02
3.88
3.52
3.07
2.67
2.45
2.45
2.66
3.01
3.43
3.84
4.11
4.13
3.84
3.26
2.49
1.69
0.99
0.42
-0.08
-0.62
-1.25
-1.90
-2.41
-2.65
-2.53
-2.12
-1.56
-1.03
-0.64
-0.43
-0.38
-0.40
-0.43
-0.39
-0.24
0.00
0.28
0.51
0.61
0.52
0.26
-0.10
-0.51
-0.94
-1.37
-1.82
-2.28
-2.70
-3.01
-3.13
-3.03
-2.74
-2.38
-2.07
-1.89
-1.83
-1.82
-1.72
-1.47
-1.08
-0.67
-0.37
-0.23
-0.20
-0.14
0.02
0.28
0.54
0.67
0.61
0.41
0.18
0.06
0.13
0.37
0.73
1.10
1.44
1.75
2.05
2.39
2.78
3.15
3.46
3.64
3.67
3.61
3.53
3.47
3.39
3.18
2.76
2.06
1.17
0.23
-0.61
-1.27
-1.76
-2.19
-2.65
-3.16
-3.66
-4.01
-4.05
-3.69
-2.98
-2.04
-1.08
-0.27
0.25
0.46
0.42
0.23
-0.03
-0.27
-0.44
-0.52
-0.50
-0.40
-0.24
-0.07
0.09
0.23
0.35
0.46
0.56
0.64
0.71
0.80
0.95
1.17
1.44
1.71
1.91
2.00
1.99
1.93
1.86
1.80
1.73
1.64
1.53
1.47
1.50
1.67
1.97
2.33
2.67
2.95
3.13
3.21
3.17
2.95
2.50
1.79
0.93
0.04
-0.69
-1.11
-1.20
-0.99
-0.66
-0.37
-0.28
-0.45
-0.82
-1.28
-1.70
-1.99
-2.15
-2.20
-2.18
-2.12
-2.00
-1.85
-1.69
-1.60
-1.63
-1.77
-1.93
-1.99
-1.84
-1.48
-0.97
-0.43
0.07
0.46
0.78
1.04
1.29
1.52
1.71
1.86
1.95
2.00
2.03
2.06
2.09
2.12
2.13
2.08
1.93
1.65
1.26
0.81
0.35
-0.07
-0.43
-0.74
-1.00
-1.29
-1.65
-2.18
-2.94
-3.95
-5.12
-6.24
-7.05
-7.29
-6.83
-5.71
-4.14
-2.43
-0.90
0.26
0.95
1.23
1.24
1.09
0.91
0.78
0.79
1.04
1.55
2.28
3.12
3.83
4.22
4.19
3.76
3.09
2.40
1.88
1.61
1.55
1.62
1.67
1.62
1.40
1.01
0.44
-0.27
-1.12
-2.06
-3.01
-3.91
-4.65
-5.19
-5.49
-5.54
-5.34
-4.88
-4.19
-3.34
-2.40
-1.46
-0.58
0.27
1.11
1.95
2.74
3.39
3.82
3.97
3.89
3.64
3.32
2.99
2.71
2.50
2.41
2.44
2.52
2.57
2.46
2.10
1.51
0.79
0.14
-0.26
-0.28
0.06
0.65
1.33
1.90
2.24
2.33
2.20
1.93
1.62
1.37
1.26
1.33
1.59
1.97
2.36
2.63
2.66
2.42
1.96
1.39
0.83
0.41
0.21
0.25
0.47
0.74
0.94
0.93
0.71
0.38
0.07
-0.07
0.01
0.26
0.54
0.73
0.70
0.47
0.07
-0.38
-0.79
-1.13
-1.42
-1.72
-2.08
-2.51
-2.96
-3.34
-3.58
-3.66
-3.62
-3.52
-3.41
-3.30
-3.18
-3.04
-2.90
-2.76
-2.60
-2.39
-2.08
-1.64
-1.11
-0.55
-0.08
0.24
0.38
0.34
0.20
0.01
-0.15
-0.21
-0.14
0.05
0.28
0.49
0.57
0.53
0.40
0.27
0.21
0.23
0.25
0.20
0.01
-0.30
-0.66
-0.94
-1.07
-1.06
-1.02
-1.11
-1.41
-1.92
-2.50
-2.95
-3.10
-2.88
-2.37
-1.76
-1.24
-0.88
-0.67
-0.50
-0.26
0.06
0.38
0.58
0.59
0.43
0.20
0.04
0.03
0.18
0.39
0.54
0.53
0.36
0.11
-0.10
-0.20
-0.17
-0.10
-0.07
-0.18
-0.38
-0.60
-0.72
-0.69
-0.55
-0.37
-0.23
-0.17
-0.15
-0.11
0.02
0.21
0.42
0.56
0.58
0.50
0.40
0.37
0.46
0.66
0.91
1.17
1.42
1.67
1.91
2.07
2.05
1.82
1.39
0.91
0.55
0.42
0.51
0.69
0.79
0.68
0.37
-0.10
-0.61
-1.09
-1.50
-1.79
-1.93
-1.90
-1.73
-1.49
-1.29
-1.23
-1.34
-1.59
-1.85
-1.98
-1.83
-1.33
-0.51
0.48
1.44
2.19
2.58
2.61
2.35
1.95
1.53
1.23
1.10
1.15
1.34
1.59
1.82
1.98
2.06
2.06
2.01
1.92
1.75
1.51
1.17
0.79
0.41
0.09
-0.17
-0.42
-0.69
-1.04
-1.47
-1.95
-2.46
-2.96
-3.42
-3.82
-4.17
-4.43
-4.60
-4.63
-4.53
-4.29
-3.93
-3.47
-2.92
-2.30
-1.60
-0.85
-0.15
0.43
0.82
0.98
0.97
0.87
0.77
0.72
0.73
0.79
0.89
0.99
1.08
1.11
1.05
0.87
0.61
0.30
0.02
-0.17
-0.23
-0.15
0.06
0.35
0.60
0.69
0.53
0.09
-0.56
-1.27
-1.89
-2.33
-2.58
-2.68
-2.65
-2.51
-2.22
-1.81
-1.31
-0.82
-0.40
-0.08
0.22
0.57
1.01
1.53
2.03
2.41
2.62
2.68
2.60
2.42
2.12
1.70
1.22
0.73
0.36
0.18
0.18
0.27
0.30
0.18
-0.11
-0.46
-0.74
-0.86
-0.83
-0.77
-0.82
-1.07
-1.48
-1.92
-2.25
-2.33
-2.18
-1.86
-1.49
-1.14
-0.79
-0.39
0.13
0.75
1.43
2.07
2.60
2.97
3.21
3.31
3.29
3.15
2.94
2.71
2.53
2.47
2.53
2.66
2.79
2.83
2.78
2.70
2.65
2.66
2.68
2.64
2.45
2.11
1.68
1.27
0.99
0.90
0.98
1.15
1.27
1.22
0.92
0.41
-0.23
-0.82
-1.25
-1.46
-1.48
-1.39
-1.25
-1.07
-0.80
-0.41
0.07
0.53
0.82
0.85
0.64
0.32
0.06
-0.03
0.10
0.34
0.55
0.64
0.59
0.49
0.43
0.51
0.72
0.97
1.15
1.16
1.00
0.71
0.38
0.08
-0.18
-0.41
-0.64
-0.88
-1.13
-1.33
-1.46
-1.47
-1.35
-1.17
-1.02
-1.05
-1.33
-1.82
-2.38
-2.81
-2.95
-2.76
-2.33
-1.82
-1.36
-1.00
-0.72
-0.45
-0.16
0.13
0.34
0.41
0.30
0.08
-0.14
-0.27
-0.21
0.01
0.33
0.63
0.83
0.88
0.79
0.61
0.39
0.15
-0.10
-0.34
-0.57
-0.72
-0.75
-0.65
-0.47
-0.30
-0.28
-0.50
-0.96
-1.59
-2.23
-2.74
-3.04
-3.12
-3.05
-2.92
-2.78
-2.64
-2.46
-2.20
-1.86
-1.50
-1.18
-0.96
-0.85
-0.82
-0.79
-0.74
-0.68
-0.67
-0.81
-1.14
-1.60
-2.08
-2.42
-2.50
-2.32
-1.97
-1.59
-1.30
-1.18
-1.21
-1.33
-1.48
-1.61
-1.71
-1.78
-1.85
-1.97
-2.21
-2.62
-3.21
-3.93
-4.64
-5.22
-5.54
-5.53
-5.18
-4.52
-3.60
-2.52
-1.39
-0.32
0.54
1.11
1.37
1.35
1.17
0.94
0.76
0.63
0.51
0.30
-0.05
-0.52
-1.00
-1.39
-1.62
-1.69
-1.67
-1.63
-1.60
-1.58
-1.55
-1.50
-1.47
-1.49
-1.54
-1.58
-1.53
-1.37
-1.14
-0.97
-0.99
-1.29
-1.84
-2.51
-3.12
-3.51
-3.59
-3.39
-2.99
-2.56
-2.23
-2.07
-2.05
-2.10
-2.13
-2.08
-1.95
-1.80
-1.64
-1.50
-1.30
-0.94
-0.32
0.63
1.90
3.41
5.02
6.60
8.03
9.25
10.26
11.07
11.71
12.13
12.28
12.15
11.75
11.16
10.49
9.82
9.19
8.60
8.02
7.47
6.95
6.43
5.87
5.21
4.40
3.51
2.66
2.02
1.67
1.60
1.68
1.82
1.93
2.02
2.09
2.13
2.10
1.94
1.64
1.26
0.90
0.66
0.55
0.55
0.58
0.55
0.39
0.09
-0.34
-0.83
-1.31
-1.72
-2.02
-2.23
-2.38
-2.52
-2.71
-2.96
-3.27
-3.63
-3.98
-4.28
-4.48
-4.57
-4.58
-4.58
-4.64
-4.74
-4.83
-4.80
-4.56
-4.08
-3.39
-2.62
-1.88
-1.27
-0.83
-0.58
-0.47
-0.47
-0.51
-0.52
-0.48
-0.36
-0.21
-0.11
-0.14
-0.38
-0.83
-1.47
-2.18
-2.85
-3.32
-3.53
-3.45
-3.16
-2.79
-2.44
-2.12
-1.81
-1.41
-0.90
-0.33
0.17
0.48
0.56
0.49
0.41
0.46
0.69
1.03
1.34
1.51
1.50
1.39
1.31
1.40
1.71
2.23
2.87
3.50
4.04
4.45
4.77
5.05
5.31
5.57
5.81
6.01
6.13
6.14
5.97
5.61
5.05
4.39
3.74
3.23
2.93
2.82
2.77
2.64
2.28
1.65
0.82
-0.04
-0.73
-1.13
-1.24
-1.16
-1.08
-1.11
-1.23
-1.30
-1.12
-0.58
0.26
1.21
2.03
2.58
2.85
2.92
2.92
2.88
2.77
2.49
2.01
1.35
0.63
-0.01
-0.46
-0.71
-0.79
-0.76
-0.70
-0.66
-0.66
-0.72
-0.85
-1.04
-1.25
-1.46
-1.60
-1.66
-1.66
-1.64
-1.66
-1.74
-1.88
-2.07
-2.31
-2.60
-2.93
-3.26
-3.51
-3.56
-3.35
-2.89
-2.24
-1.56
-0.93
-0.44
-0.10
0.11
0.22
0.27
0.34
0.49
0.75
1.10
1.43
1.63
1.61
1.35
0.91
0.35
-0.23
-0.74
-1.11
-1.30
-1.32
-1.23
-1.13
-1.09
-1.16
-1.29
-1.41
-1.48
-1.51
-1.57
-1.71
-1.92
-2.14
-2.31
-2.38
-2.41
-2.48
-2.66
-2.97
-3.36
-3.72
-3.91
-3.87
-3.62
-3.26
-2.91
-2.68
-2.60
-2.62
-2.64
-2.62
-2.54
-2.49
-2.55
-2.76
-3.08
-3.43
-3.71
-3.88
-3.94
-3.91
-3.80
-3.59
-3.27
-2.89
-2.49
-2.17
-1.96
-1.86
-1.78
-1.62
-1.32
-0.87
-0.30
0.24
0.64
0.77
0.59
0.14
-0.45
-1.01
-1.38
-1.46
-1.22
-0.72
-0.02
0.81
1.67
2.46
3.00
3.13
2.75
1.92
0.84
-0.18
-0.89
-1.17
-1.08
-0.80
-0.49
-0.24
-0.05
0.14
0.34
0.52
0.63
0.58
0.37
0.04
-0.32
-0.62
-0.81
-0.89
-0.94
-1.02
-1.23
-1.58
-2.03
-2.49
-2.84
-3.01
-3.04
-3.05
-3.19
-3.56
-4.12
-4.70
-5.11
-5.14
-4.75
-3.99
-3.00
-1.91
-0.75
0.49
1.89
3.47
5.22
7.05
8.81
10.34
11.53
12.31
12.70
12.80
12.73
12.62
12.58
12.62
12.71
12.83
13.00
13.26
13.70
14.38
15.26
16.19
16.96
17.32
17.09
16.18
14.67
12.75
10.70
8.81
7.35
6.46
6.15
6.31
6.70
7.07
7.18
6.86
6.09
5.01
3.82
2.77
2.02
1.63
1.51
1.57
1.67
1.75
1.78
1.71
1.50
1.09
0.45
-0.37
-1.33
-2.32
-3.29
-4.16
-4.89
-5.46
-5.89
-6.25
-6.65
-7.15
-7.75
-8.36
-8.87
-9.21
-9.36
-9.33
-9.16
-8.85
-8.38
-7.77
-7.06
-6.36
-5.79
-5.46
-5.43
-5.64
-6.01
-6.43
-6.79
-7.02
-7.09
-7.05
-6.94
-6.80
-6.61
-6.30
-5.82
-5.15
-4.36
-3.58
-2.94
-2.53
-2.35
-2.33
-2.33
-2.22
-1.97
-1.64
-1.35
-1.26
-1.39
-1.65
-1.85
-1.81
-1.45
-0.89
-0.34
0.00
0.04
-0.13
-0.36
-0.47
-0.44
-0.33
-0.21
-0.13
-0.02
0.15
0.40
0.61
0.62
0.34
-0.21
-0.83
-1.30
-1.46
-1.30
-0.98
-0.69
-0.60
-0.71
-0.89
-0.98
-0.85
-0.49
0.03
0.57
1.05
1.43
1.72
1.91
1.97
1.85
1.54
1.11
0.71
0.48
0.51
0.76
1.14
1.52
1.84
2.08
2.29
2.50
2.70
2.87
2.98
3.04
3.05
3.02
2.91
2.69
2.37
1.95
1.54
1.20
0.98
0.84
0.71
0.49
0.16
-0.26
-0.69
-1.03
-1.26
-1.40
-1.50
-1.59
-1.62
-1.53
-1.24
-0.78
-0.28
0.10
0.21
0.04
-0.30
-0.60
-0.69
-0.48
-0.03
0.49
0.93
1.12
1.02
0.64
0.08
-0.53
-1.07
-1.47
-1.70
-1.77
-1.73
-1.64
-1.58
-1.58
-1.70
-1.93
-2.29
-2.72
-3.16
-3.51
-3.70
-3.67
-3.46
-3.17
-2.93
-2.85
-2.98
-3.28
-3.65
-3.95
-4.04
-3.87
-3.46
-2.92
-2.37
-1.94
-1.64
-1.44
-1.25
-1.01
-0.73
-0.48
-0.31
-0.25
-0.26
-0.25
-0.17
-0.00
0.20
0.41
0.58
0.72
0.83
0.88
0.84
0.70
0.46
0.21
0.02
-0.03
0.06
0.26
0.49
0.65
0.67
0.51
0.17
-0.31
-0.84
-1.34
-1.70
-1.89
-1.89
-1.75
-1.50
-1.20
-0.90
-0.61
-0.33
-0.01
0.39
0.88
1.44
1.94
2.30
2.44
2.37
2.18
1.99
1.89
1.93
2.09
2.30
2.45
2.46
2.28
1.94
1.52
1.15
0.91
0.83
0.86
0.92
0.96
0.96
0.94
0.92
0.88
0.80
0.62
0.35
0.02
-0.29
-0.49
-0.53
-0.38
-0.05
0.47
1.10
1.78
2.40
2.86
3.14
3.23
3.22
3.17
3.17
3.28
3.50
3.84
4.23
4.59
4.81
4.76
4.39
3.71
2.87
2.03
1.36
0.94
0.78
0.80
0.92
1.03
1.06
0.95
0.66
0.23
-0.29
-0.77
-1.12
-1.28
-1.27
-1.17
-1.11
-1.19
-1.43
-1.80
-2.18
-2.46
-2.52
-2.31
-1.85
-1.23
-0.59
-0.05
0.33
0.52
0.60
0.60
0.60
0.62
0.68
0.79
0.94
1.09
1.18
1.16
1.00
0.73
0.44
0.25
0.22
0.35
0.54
0.69
0.69
0.46
-0.02
-0.74
-1.63
-2.62
-3.58
-4.37
-4.89
-5.06
-4.85
-4.31
-3.57
-2.77
-2.08
-1.63
-1.47
-1.56
-1.82
-2.12
-2.39
-2.55
-2.56
-2.37
-1.97
-1.33
-0.51
0.39
1.23
1.89
2.30
2.46
2.42
2.28
2.10
1.93
1.79
1.65
1.51
1.37
1.24
1.13
1.02
0.87
0.62
0.24
-0.28
-0.87
-1.48
-2.06
-2.57
-3.00
-3.33
-3.55
-3.61
-3.53
-3.36
-3.16
-2.96
-2.75
-2.45
-2.01
-1.41
-0.73
-0.08
0.43
0.78
1.01
1.18
1.31
1.36
1.23
0.88
0.40
-0.03
-0.19
0.07
0.72
1.58
2.38
2.90
3.06
2.91
2.60
2.27
1.99
1.79
1.67
1.64
1.67
1.73
1.77
1.72
1.56
1.34
1.14
1.03
1.04
1.18
1.39
1.67
2.04
2.55
3.19
3.92
4.67
5.34
5.91
6.34
6.63
6.76
6.66
6.29
5.63
4.73
3.71
2.70
1.82
1.12
0.55
0.05
-0.45
-0.92
-1.29
-1.49
-1.47
-1.30
-1.13
-1.12
-1.36
-1.82
-2.34
-2.75
-2.95
-2.98
-2.96
-3.07
-3.36
-3.75
-4.07
-4.15
-3.96
-3.62
-3.31
-3.21
-3.34
-3.59
-3.76
-3.69
-3.31
-2.65
-1.84
-1.04
-0.43
-0.08
-0.04
-0.24
-0.57
-0.93
-1.24
-1.47
-1.61
-1.67
-1.64
-1.53
-1.39
-1.34
-1.46
-1.81
-2.34
-2.95
-3.48
-3.85
-4.05
-4.11
-4.06
-3.93
-3.74
-3.50
-3.24
-3.01
-2.86
-2.82
-2.90
-3.08
-3.32
-3.56
-3.67
-3.58
-3.22
-2.61
-1.86
-1.12
-0.50
-0.05
0.29
0.57
0.85
1.12
1.33
1.47
1.57
1.68
1.84
2.01
2.16
2.22
2.21
2.17
2.15
2.16
2.16
2.07
1.83
1.48
1.10
0.78
0.55
0.41
0.31
0.25
0.24
0.36
0.60
0.91
1.17
1.23
1.01
0.48
-0.22
-0.91
-1.39
-1.52
-1.26
-0.72
-0.06
0.51
0.90
1.09
1.18
1.27
1.41
1.58
1.75
1.90
2.04
2.21
2.42
2.61
2.68
2.59
2.37
2.15
2.06
2.18
2.47
2.83
3.12
3.27
3.27
3.16
3.02
2.92
2.94
3.12
3.45
3.87
4.28
4.57
4.70
4.69
4.66
4.75
5.13
5.85
6.85
7.96
8.87
9.28
8.95
7.84
6.12
4.15
2.34
1.06
0.47
0.54
1.06
1.75
2.37
2.80
3.05
3.24
3.53
3.96
4.49
5.02
5.38
5.49
5.37
5.13
4.92
4.89
5.06
5.41
5.86
6.30
6.57
6.48
5.76
4.18
1.67
-1.61
-5.29
-8.83
-11.77
-13.89
-15.25
-16.10
-16.73
-17.24
-17.53
-17.38
-16.60
-15.24
-13.53
-11.81
-10.33
-9.15
-8.12
-6.99
-5.61
-4.00
-2.31
-0.76
0.48
1.37
1.99
2.43
2.82
3.21
3.63
4.05
4.45
4.82
5.18
5.60
6.14
6.83
7.63
8.36
8.83
8.84
8.33
7.33
5.99
4.53
3.12
1.88
0.84
-0.00
-0.70
-1.30
-1.84
-2.37
-2.94
-3.54
-4.07
-4.33
-4.06
-3.11
-1.48
0.54
2.55
4.16
5.18
5.76
6.23
7.00
8.25
9.91
11.70
13.23
14.28
14.85
15.25
15.95
17.48
20.23
24.28
29.29
34.53
39.00
41.67
41.76
39.06
34.03
27.83
22.02
18.13
17.31
19.94
25.62
33.32
41.66
49.30
55.19
58.74
59.77
58.60
55.84
52.34
48.91
46.13
44.16
42.78
41.53
39.98
37.97
35.61
33.16
30.83
28.63
26.39
23.93
21.17
18.21
15.13
11.87
8.04
2.98
-3.96
-13.18
-24.51
-37.24
-50.18
-61.98
-71.34
-77.18
-78.87
-76.39
-70.49
-62.64
-54.66
-48.24
-44.44
-43.40
-44.46
-46.60
-48.91
-50.86
-52.37
-53.51
-54.31
-54.65
-54.33
-53.25
-51.51
-49.39
-47.17
-45.03
-42.97
-40.86
-38.56
-36.03
-33.38
-30.83
-28.64
-26.94
-25.71
-24.78
-23.92
-22.91
-21.66
-20.17
-18.54
-16.90
-15.40
-14.13
-13.12
-12.35
-11.73
-11.20
-10.68
-10.16
-9.63
-9.08
-8.51
-7.90
-7.26
-6.61
-5.93
-5.21
-4.37
-3.36
-2.21
-1.02
0.00
0.69
1.00
1.05
1.09
1.34
1.84
2.43
2.78
2.61
1.80
0.54
-0.84
-1.95
-2.55
-2.62
-2.34
-1.95
-1.70
-1.73
-2.07
-2.67
-3.40
-4.16
-4.79
-5.25
-5.51
-5.63
-5.68
-5.70
-5.73
-5.73
-5.63
-5.31
-4.60
-3.40
-1.70
0.31
2.34
3.98
4.97
5.25
5.01
4.58
4.30
4.31
4.52
4.71
4.68
4.33
3.77
3.17
2.68
2.33
1.98
1.47
0.71
-0.23
-1.12
-1.73
-1.91
-1.74
-1.44
-1.29
-1.49
-2.08
-2.95
-3.92
-4.77
-5.30
-5.36
-4.88
-3.86
-2.40
-0.65
1.25
3.20
5.11
6.83
8.14
8.72
8.29
6.76
4.31
1.40
-1.44
-3.79
-5.53
-6.76
-7.74
-8.64
-9.48
-10.11
-10.36
-10.18
-9.71
-9.19
-8.86
-8.79
-8.82
-8.69
-8.17
-7.16
-5.81
-4.43
-3.31
-2.64
-2.37
-2.23
-1.84
-0.83
1.04
3.74
7.03
10.48
13.55
15.75
16.76
16.51
15.23
13.36
11.46
9.99
9.20
9.05
9.24
9.39
9.17
8.43
7.17
5.55
3.78
2.06
0.57
-0.58
-1.29
-1.54
-1.36
-0.81
-0.01
0.92
1.88
2.81
3.72
4.72
5.91
7.36
8.97
10.45
11.37
11.26
9.84
7.19
3.74
0.17
-2.83
-4.79
-5.59
-5.45
-4.75
-3.91
-3.27
-3.02
-3.21
-3.84
-4.81
-5.97
-7.07
-7.84
