1660936340.00
64.000000
-0.00
-0.00
-0.00
-0.00
-0.00
-0.00
-0.00
-0.00
-0.00
-0.00
0.00
0.01
0.01
-0.00
-0.03
-0.05
-0.05
0.00
0.13
0.36
0.66
1.01
1.37
1.72
2.06
2.40
2.79
3.25
3.81
4.44
5.10
5.73
6.32
6.89
7.51
8.25
9.15
10.29
11.57
12.84
13.99
14.97
15.86
16.86
18.20
20.04
22.56
25.55
28.71
31.73
34.47
37.06
39.86
43.36
47.86
53.68
60.42
67.48
74.28
80.54
86.46
92.67
99.95
108.82
119.66
131.79
144.23
156.06
166.85
176.95
187.31
199.45
212.05
227.07
244.67
264.59
285.50
304.73
318.45
322.63
314.26
292.41
258.96
217.05
170.36
121.88
73.47
26.04
-19.79
-63.30
-103.80
-140.73
-174.63
-206.78
-238.95
-272.64
-308.29
-344.60
-378.40
-405.38
-421.26
-423.51
-412.36
-390.80
-363.32
-334.24
-306.29
-280.24
-255.65
-231.77
-208.63
-186.98
-167.68
-151.06
-136.57
-123.09
-109.56
-95.48
-81.09
-67.27
-54.98
-44.77
-36.58
-29.79
-23.55
-17.14
-10.32
-3.37
3.09
8.42
12.26
14.72
16.31
17.66
19.24
21.19
23.31
25.23
26.59
27.27
27.32
26.98
26.53
26.14
25.88
25.69
25.48
25.13
24.59
23.88
23.07
22.23
21.41
20.63
19.87
19.12
18.41
17.75
17.16
16.64
16.19
15.79
15.46
15.19
14.99
14.81
14.59
14.30
13.94
13.55
13.16
12.82
12.52
12.25
11.98
11.71
11.41
11.07
10.63
10.07
9.39
8.67
8.02
7.59
7.45
7.59
7.88
8.15
8.26
8.16
7.87
7.48
7.05
6.60
6.12
5.63
5.15
4.78
4.56
4.48
4.45
4.32
3.98
3.42
2.76
2.18
1.81
1.66
1.61
1.44
1.00
0.23
-0.76
-1.76
-2.58
-3.12
-3.44
-3.66
-3.93
-4.35
-4.91
-5.59
-6.34
-7.13
-7.97
-8.80
-9.54
-10.08
-10.30
-10.17
-9.75
-9.18
-8.61
-8.16
-7.87
-7.69
-7.54
-7.33
-7.01
-6.61
-6.16
-5.70
-5.23
-4.72
-4.11
-3.37
-2.50
-1.58
-0.75
-0.12
0.24
0.37
0.37
0.38
0.51
0.81
1.28
1.87
2.52
3.16
3.73
4.15
4.39
4.43
4.28
4.03
3.76
3.52
3.38
3.34
3.40
3.53
3.65
3.67
3.55
3.30
3.02
2.81
2.76
2.91
3.21
3.57
3.92
4.19
4.39
4.49
4.51
4.45
4.33
4.19
4.05
3.94
3.86
3.82
3.79
3.74
3.64
3.46
3.18
2.83
2.47
2.17
2.00
1.99
2.11
2.25
2.28
2.08
1.65
1.10
0.57
0.23
0.16
0.33
0.63
0.92
1.06
0.95
0.56
-0.10
-0.90
-1.63
-2.03
-1.79
-0.75
1.09
3.49
6.07
8.41
10.15
11.06
11.07
10.24
8.72
6.70
4.44
2.21
0.31
-0.99
-1.50
-1.17
-0.13
1.32
2.81
4.03
4.77
5.00
4.79
4.29
3.62
2.89
2.15
1.46
0.86
0.37
0.02
-0.21
-0.31
-0.30
-0.19
0.01
0.26
0.51
0.72
0.82
0.79
0.62
0.33
0.03
-0.17
-0.19
-0.04
0.20
0.37
0.38
0.24
0.04
-0.08
-0.05
0.14
0.42
0.69
0.89
0.99
0.97
0.79
0.47
0.08
-0.24
-0.36
-0.20
0.19
0.67
1.06
1.25
1.24
1.13
1.06
1.11
1.29
1.50
1.64
1.66
1.53
1.31
1.03
0.73
0.45
0.23
0.15
0.24
0.53
0.93
1.29
1.47
1.38
1.04
0.58
0.15
-0.14
-0.28
-0.29
-0.21
-0.05
0.17
0.42
0.62
0.69
0.60
0.41
0.25
0.25
0.44
0.78
1.15
1.43
1.55
1.52
1.39
1.17
0.89
0.56
0.22
-0.06
-0.20
-0.16
-0.00
0.21
0.37
0.44
0.41
0.34
0.27
0.24
0.23
0.24
0.22
0.20
0.23
0.37
0.66
1.09
1.56
1.94
2.09
1.95
1.54
0.98
0.40
-0.08
-0.38
-0.51
-0.46
-0.29
-0.03
0.26
0.54
0.74
0.80
0.72
0.49
0.12
-0.35
-0.87
-1.33
-1.64
-1.71
-1.50
-1.08
-0.55
-0.02
0.44
0.80
1.08
1.28
1.35
1.26
0.98
0.58
0.17
-0.12
-0.22
-0.14
-0.00
0.08
0.04
-0.09
-0.21
-0.21
-0.09
0.05
0.10
0.00
-0.21
-0.38
-0.38
-0.18
0.11
0.34
0.37
0.23
0.02
-0.09
-0.01
0.26
0.61
0.95
1.19
1.28
1.25
1.09
0.82
0.48
0.13
-0.15
-0.29
-0.28
-0.15
0.00
0.09
0.02
-0.16
-0.38
-0.50
-0.43
-0.18
0.15
0.43
0.56
0.52
0.38
0.27
0.26
0.32
0.41
0.43
0.35
0.20
0.05
-0.03
-0.01
0.09
0.23
0.38
0.51
0.63
0.75
0.87
0.98
1.09
1.18
1.26
1.30
1.29
1.20
1.01
0.68
0.25
-0.20
-0.60
-0.84
-0.87
-0.71
-0.45
-0.18
-0.00
0.04
-0.04
-0.21
-0.44
-0.65
-0.79
-0.81
-0.70
-0.47
-0.17
0.12
0.37
0.54
0.66
0.75
0.81
0.84
0.85
0.83
0.77
0.69
0.61
0.56
0.52
0.51
0.48
0.40
0.25
0.05
-0.14
-0.26
-0.30
-0.32
-0.39
-0.59
-0.88
-1.13
-1.21
-1.03
-0.66
-0.24
0.01
0.02
-0.17
-0.38
-0.42
-0.18
0.32
0.89
1.33
1.48
1.31
0.90
0.41
0.00
-0.21
-0.21
-0.04
0.19
0.40
0.52
0.56
0.55
0.53
0.53
0.52
0.50
0.44
0.35
0.27
0.21
0.14
0.03
-0.16
-0.41
-0.65
-0.78
-0.73
-0.55
-0.34
-0.20
-0.16
-0.18
-0.19
-0.13
-0.01
0.10
0.13
0.09
0.05
0.07
0.14
0.21
0.17
-0.02
-0.35
-0.74
-1.10
-1.35
-1.46
-1.40
-1.16
-0.76
-0.25
0.29
0.77
1.11
1.28
1.30
1.21
1.02
0.77
0.51
0.31
0.23
0.25
0.35
0.43
0.41
0.29
0.10
-0.06
-0.11
-0.02
0.19
0.47
0.71
0.89
0.99
1.04
1.10
1.17
1.25
1.30
1.25
1.07
0.75
0.32
-0.13
-0.53
-0.84
-1.02
-1.07
-1.05
-1.04
-1.07
-1.14
-1.16
-1.02
-0.69
-0.32
-0.19
-0.64
-1.88
-3.83
-6.14
-8.26
-9.69
-10.23
-10.07
-9.76
-9.97
-11.20
-13.61
-16.86
-20.32
-23.26
-25.24
-26.27
-26.88
-27.89
-30.00
-33.39
-37.63
-41.75
-44.78
-46.27
-46.66
-47.19
-49.38
-54.30
-61.98
-71.22
-80.08
-86.70
-90.20
-91.14
-91.29
-92.96
-98.04
-107.31
-120.33
-135.61
-150.80
-162.86
-168.41
-164.53
-149.89
-125.87
-96.78
-68.82
-47.73
-36.23
-32.58
-31.26
-25.61
-11.28
11.54
38.40
63.26
81.92
94.26
103.84
115.29
131.18
150.30
168.28
180.26
183.74
180.08
173.64
169.36
170.35
176.70
186.11
195.52
202.84
207.86
211.89
216.83
223.99
233.54
244.45
255.24
264.83
272.90
279.67
285.10
288.19
286.72
277.99
259.91
232.01
195.76
153.90
109.17
63.16
16.02
-32.69
-82.62
-131.56
-175.44
-209.64
-230.85
-238.50
-234.96
-224.44
-211.18
-197.98
-185.72
-174.01
-162.26
-150.57
-139.74
-130.67
-123.61
-117.84
-112.07
-105.09
-96.47
-86.72
-77.06
-68.73
-62.42
-57.98
-54.60
-51.19
-47.00
-41.88
-36.26
-30.91
-26.50
-23.33
-21.22
-19.71
-18.21
-16.35
-14.02
-11.42
-8.88
-6.72
-5.09
-3.98
-3.26
-2.76
-2.35
-2.00
-1.73
-1.53
-1.41
-1.34
-1.30
-1.30
-1.37
-1.48
-1.60
-1.65
-1.54
-1.21
-0.65
0.11
0.99
1.85
2.55
2.95
3.02
2.80
2.44
2.10
1.87
1.73
1.59
1.35
1.02
0.66
0.40
0.33
0.42
0.56
0.66
0.64
0.54
0.43
0.40
0.48
0.66
0.91
1.18
1.44
1.67
1.83
1.92
1.94
1.92
1.92
2.00
2.15
2.28
2.26
1.91
1.18
0.14
-0.97
-1.90
-2.47
-2.64
-2.54
-2.38
-2.32
-2.43
-2.68
-2.99
-3.32
-3.65
-3.99
-4.31
-4.55
-4.62
-4.43
-3.96
-3.28
-2.51
-1.81
-1.30
-1.00
-0.88
-0.83
-0.72
-0.44
0.09
0.90
1.92
3.01
4.01
4.77
5.21
5.37
5.33
5.21
5.08
4.95
4.73
4.37
3.82
3.09
2.22
1.28
0.33
-0.59
-1.40
-2.08
-2.59
-2.92
-3.07
-3.08
-2.96
-2.78
-2.59
-2.48
-2.46
-2.47
-2.38
-2.04
-1.41
-0.54
0.39
1.20
1.77
2.08
2.15
2.02
1.71
1.23
0.64
0.06
-0.36
-0.52
-0.41
-0.17
-0.01
-0.07
-0.43
-1.05
-1.81
-2.61
-3.37
-4.00
-4.40
-4.48
-4.16
-3.45
-2.47
-1.42
-0.54
0.01
0.20
0.14
0.05
0.13
0.53
1.32
2.43
3.73
5.01
6.04
6.65
6.75
6.41
5.77
5.04
4.41
3.91
3.50
3.05
2.44
1.64
0.74
-0.14
-0.90
-1.52
-2.05
-2.56
-3.07
-3.49
-3.72
-3.68
-3.37
-2.94
-2.55
-2.34
-2.33
-2.43
-2.49
-2.39
-2.04
-1.41
-0.57
0.39
1.28
1.94
2.20
2.05
1.63
1.16
0.87
0.86
1.08
1.34
1.43
1.19
0.62
-0.20
-1.13
-2.05
-2.89
-3.59
-4.10
-4.36
-4.32
-3.94
-3.32
-2.57
-1.86
-1.31
-0.96
-0.75
-0.55
-0.21
0.41
1.39
2.70
4.21
5.66
6.70
7.10
6.76
5.88
4.81
3.94
3.51
3.46
3.55
3.44
2.92
1.99
0.82
-0.33
-1.28
-1.98
-2.48
-2.89
-3.28
-3.61
-3.81
-3.80
-3.61
-3.30
-3.01
-2.83
-2.77
-2.74
-2.58
-2.20
-1.56
-0.80
-0.08
0.41
0.63
0.62
0.51
0.44
0.46
0.55
0.67
0.78
0.93
1.15
1.48
1.85
2.14
2.19
1.89
1.29
0.53
-0.20
-0.72
-0.99
-1.04
-1.01
-1.00
-1.05
-1.12
-1.17
-1.14
-1.04
-0.89
-0.68
-0.33
0.26
1.10
2.08
2.98
3.55
3.69
3.46
3.08
2.75
2.55
2.39
2.12
1.59
0.83
-0.07
-0.93
-1.64
-2.17
-2.54
-2.81
-3.00
-3.11
-3.12
-2.95
-2.57
-1.97
-1.24
-0.55
-0.11
-0.06
-0.38
-0.92
-1.47
-1.89
-2.14
-2.31
-2.51
-2.75
-2.99
-3.16
-3.25
-3.35
-3.60
-4.08
-4.73
-5.38
-5.86
-6.13
-6.32
-6.70
-7.58
-9.07
-11.04
-13.05
-14.62
-15.44
-15.56
-15.48
-15.93
-17.54
-20.45
-24.16
-27.68
-29.96
-30.41
-29.21
-27.25
-25.68
-25.34
-26.33
-28.03
-29.44
-29.81
-29.09
-27.93
-27.41
-28.64
-32.31
-38.69
-47.61
-58.13
-68.35
-75.18
-74.42
-61.50
-33.09
10.97
66.65
126.32
180.95
222.92
247.93
255.13
245.67
221.07
182.66
132.49
74.81
16.54
-34.14
-70.58
-90.32
-96.02
-93.90
-90.68
-90.76
-94.90
-100.64
-104.04
-101.28
-90.14
-70.88
-46.02
-19.63
3.89
21.31
31.45
35.31
35.21
33.68
32.58
32.98
35.34
39.86
46.53
54.89
63.86
71.88
77.50
79.86
79.03
75.94
71.99
68.70
67.25
68.16
70.75
72.93
71.49
63.28
46.62
22.49
-5.44
-32.03
-52.64
-64.89
-69.27
-68.33
-65.11
-61.65
-58.51
-55.16
-50.99
-46.00
-40.88
-36.56
-33.60
-31.89
-30.80
-29.67
-28.09
-26.18
-24.35
-23.06
-22.46
-22.34
-22.24
-21.66
-20.36
-18.44
-16.29
-14.40
-13.15
-12.69
-12.90
-13.52
-14.26
-14.89
-15.40
-15.90
-16.62
-17.71
-19.19
-20.87
-22.44
-23.64
-24.45
-25.13
-26.20
-28.18
-31.37
-35.67
-40.55
-45.32
-49.38
-52.57
-55.27
-58.30
-62.53
-68.36
-75.42
-82.63
-88.65
-92.52
-94.23
-94.70
-95.36
-97.53
-101.83
-108.06
-115.11
-121.11
-123.42
-118.90
-104.65
-79.16
-43.44
-1.44
40.79
77.05
102.97
117.34
121.84
119.74
114.21
107.32
99.97
92.62
85.95
80.98
78.66
79.17
81.67
84.56
86.27
86.13
84.76
83.85
85.45
91.02
100.81
113.68
127.50
139.99
149.43
155.23
157.97
158.95
159.67
161.15
163.65
166.60
168.83
169.12
166.67
161.43
154.17
146.35
139.56
134.77
131.72
128.50
121.78
107.67
83.00
46.70
0.68
-50.27
-99.60
-140.88
-169.65
-184.51
-187.08
-180.87
-169.80
-156.98
-144.23
-132.34
-121.64
-112.47
-105.15
-99.76
-95.74
-92.00
-87.35
-81.11
-73.42
-65.18
-57.66
-51.87
-48.12
-45.92
-44.27
-42.12
-38.82
-34.41
-29.50
-25.02
-21.73
-19.98
-19.59
-20.00
-20.50
-20.53
-19.79
-18.23
-16.05
-13.52
-10.95
-8.56
-6.50
-4.83
-3.48
-2.32
-1.27
-0.29
0.54
1.10
1.32
1.20
0.86
0.47
0.14
-0.08
-0.20
-0.28
-0.36
-0.40
-0.37
-0.19
0.11
0.44
0.64
0.56
0.16
-0.48
-1.17
-1.75
-2.19
-2.63
-3.31
-4.45
-6.12
-8.18
-10.36
-12.38
-14.12
-15.61
-17.07
-18.79
-20.99
-23.71
-26.86
-30.18
-33.45
-36.52
-39.44
-42.45
-45.95
-50.34
-55.82
-62.29
-69.27
-76.05
-81.97
-86.79
-90.95
-95.45
-101.45
-109.67
-119.89
-130.96
-141.38
-149.98
-156.55
-161.86
-167.12
-173.28
-180.26
-186.59
-189.64
-186.26
-173.60
-149.92
-115.18
-71.36
-22.46
26.03
68.09
98.64
115.35
119.82
117.47
115.70
120.85
135.46
157.11
179.71
196.42
202.92
198.95
187.56
172.98
158.27
144.34
130.65
116.61
102.77
90.94
83.12
80.38
82.17
86.68
91.58
95.10
96.54
96.26
95.28
94.58
94.66
95.39
96.25
96.71
96.47
95.59
94.46
93.61
93.59
94.85
97.59
101.53
105.87
109.48
111.26
110.40
106.34
98.32
84.83
63.53
32.05
-10.43
-61.81
-116.62
-167.41
-207.36
-232.75
-243.98
-244.59
-238.85
-229.66
-217.92
-203.73
-187.78
-171.94
-158.22
-147.15
-136.73
-123.28
-103.93
-78.77
-51.46
-27.55
-11.68
-5.18
-5.40
-7.16
-5.23
3.48
18.99
38.74
58.91
75.97
87.71
93.66
94.84
92.96
89.59
85.60
81.24
76.52
71.69
67.45
64.62
63.64
64.22
65.42
66.13
65.58
63.73
61.38
59.70
59.78
62.12
66.40
71.63
76.55
80.21
82.32
83.42
84.61
87.12
91.73
98.47
106.65
115.20
123.14
129.99
135.95
141.66
147.92
155.42
164.51
175.14
186.69
197.89
207.02
212.12
211.48
204.10
189.83
169.29
143.48
113.39
79.66
42.47
1.78
-42.30
-88.74
-135.22
-178.09
-213.17
-236.96
-247.91
-247.02
-237.40
-223.06
-207.36
-192.24
-178.34
-165.55
-153.84
-143.52
-134.95
-128.16
-122.56
-117.14
-110.94
-103.53
-95.10
-86.39
-78.30
-71.48
-66.05
-61.66
-57.62
-53.29
-48.36
-42.95
-37.53
-32.63
-28.60
-25.49
-23.05
-20.91
