1660331990.00
64.000000
-0.00
-0.00
-0.00
-0.00
-0.00
-0.00
-0.00
-0.00
-0.00
-0.00
0.00
0.01
0.01
-0.00
-0.03
-0.05
-0.05
0.00
0.13
0.36
0.66
1.01
1.37
1.72
2.06
2.40
2.79
3.24
3.80
4.42
5.06
5.67
6.20
6.67
7.14
7.68
8.34
9.20
10.15
11.04
11.76
12.24
12.57
12.94
13.63
14.79
16.66
19.00
21.51
23.86
25.87
27.65
29.55
32.06
35.51
40.25
45.86
51.73
57.20
61.90
65.98
70.03
74.88
81.11
89.17
98.36
107.66
116.00
122.79
128.25
133.33
139.66
146.10
154.77
165.88
179.03
192.65
203.78
208.44
202.59
183.48
150.53
105.95
52.93
-5.01
-65.27
-126.40
-187.65
-248.25
-307.03
-362.62
-413.64
-459.72
-501.02
-537.89
-570.33
-597.49
-617.37
-626.71
-621.38
-597.14
-551.47
-484.66
-400.54
-305.88
-208.59
-115.72
-31.89
40.91
102.63
153.79
194.74
225.64
246.87
259.54
265.52
266.96
265.63
262.48
257.56
250.39
240.50
227.92
213.31
197.78
182.56
168.56
156.03
144.61
133.59
122.33
110.58
98.61
87.06
76.60
67.62
60.04
53.41
47.11
40.72
34.13
27.59
21.52
16.34
12.32
9.58
7.87
6.81
5.98
4.99
3.60
1.74
-0.47
-2.79
-4.97
-6.83
-8.30
-9.40
-10.19
-10.69
-10.87
-10.66
-10.05
-9.13
-8.09
-7.16
-6.52
-6.23
-6.17
-6.16
-6.07
-5.84
-5.54
-5.30
-5.21
-5.26
-5.35
-5.34
-5.16
-4.83
-4.45
-4.12
-3.92
-3.81
-3.66
-3.32
-2.62
-1.49
-0.03
1.50
2.76
3.41
3.27
2.44
1.19
-0.09
-1.11
-1.74
-2.05
-2.22
-2.35
-2.45
-2.42
-2.21
-1.79
-1.28
-0.81
-0.51
-0.40
-0.42
-0.44
-0.38
-0.23
-0.06
0.05
0.09
0.12
0.22
0.43
0.69
0.89
0.96
0.88
0.76
0.75
0.99
1.53
2.39
3.51
4.81
6.14
7.28
7.94
7.87
6.98
5.42
3.51
1.62
-0.03
-1.39
-2.48
-3.38
-4.09
-4.59
-4.87
-4.98
-5.08
-5.27
-5.59
-5.94
-6.13
-6.01
-5.51
-4.75
-3.93
-3.26
-2.86
-2.73
-2.77
-2.84
-2.82
-2.69
-2.51
-2.37
-2.39
-2.61
-3.04
-3.57
-4.05
-4.26
-3.98
-3.04
-1.42
0.72
3.01
4.99
6.26
6.62
6.14
5.10
3.82
2.54
1.38
0.31
-0.66
-1.46
-1.96
-2.05
-1.73
-1.15
-0.57
-0.20
-0.14
-0.32
-0.57
-0.70
-0.64
-0.44
-0.25
-0.21
-0.46
-0.98
-1.66
-2.38
-3.02
-3.54
-3.96
-4.34
-4.77
-5.31
-5.97
-6.71
-7.40
-7.80
-7.61
-6.54
-4.44
-1.39
2.26
5.98
9.17
11.37
12.37
12.23
11.20
9.63
7.81
6.00
4.35
2.97
1.93
1.26
0.92
0.80
0.76
0.66
0.41
-0.05
-0.70
-1.49
-2.36
-3.23
-4.01
-4.63
-5.06
-5.32
-5.46
-5.58
-5.76
-6.09
-6.61
-7.34
-8.24
-9.11
-9.66
-9.48
-8.22
-5.74
-2.24
1.79
5.66
8.76
10.74
11.59
11.58
11.06
10.28
9.36
8.26
6.98
5.56
4.15
2.94
2.04
1.50
1.20
0.99
0.72
0.34
-0.13
-0.61
-1.02
-1.36
-1.67
-2.02
-2.44
-2.89
-3.30
-3.60
-3.86
-4.19
-4.79
-5.79
-7.15
-8.65
-9.89
-10.40
-9.80
-7.88
-4.73
-0.73
3.56
7.49
10.53
12.36
12.94
12.45
11.23
9.57
7.71
5.79
3.89
2.11
0.54
-0.72
-1.62
-2.19
-2.47
-2.53
-2.43
-2.22
-1.97
-1.79
-1.79
-2.02
-2.46
-3.00
-3.53
-3.97
-4.35
-4.76
-5.32
-6.11
-7.18
-8.45
-9.76
-10.80
-11.20
-10.57
-8.70
-5.64
-1.76
2.32
5.91
8.53
9.96
10.34
9.96
9.12
8.04
6.80
5.44
4.06
2.84
1.96
1.55
1.58
1.90
2.29
2.59
2.73
2.68
2.45
2.00
1.31
0.37
-0.76
-1.96
-3.11
-4.10
-4.91
-5.60
-6.26
-7.03
-8.00
-9.17
-10.42
-11.45
-11.86
-11.24
-9.38
-6.31
-2.38
1.82
5.67
8.67
10.55
11.34
11.28
10.66
9.76
8.73
7.69
6.67
5.77
5.06
4.65
4.55
4.68
4.86
4.89
4.67
4.20
3.62
3.07
2.62
2.26
1.90
1.47
0.91
0.28
-0.39
-1.04
-1.67
-2.33
-3.08
-3.96
-4.97
-6.00
-6.85
-7.21
-6.78
-5.34
-2.93
0.14
3.37
6.22
8.28
9.38
9.54
8.93
7.77
6.30
4.71
3.22
2.03
1.28
1.04
1.26
1.74
2.25
2.55
2.51
2.12
1.51
0.85
0.27
-0.19
-0.57
-0.97
-1.47
-2.08
-2.80
-3.55
-4.29
-4.96
-5.56
-6.12
-6.76
-7.61
-8.66
-9.78
-10.65
-10.87
-10.13
-8.33
-5.67
-2.56
0.54
3.17
5.07
6.12
6.37
5.96
5.12
4.06
2.94
1.88
0.93
0.16
-0.37
-0.60
-0.54
-0.22
0.23
0.68
1.00
1.09
0.90
0.45
-0.23
-1.03
-1.83
-2.49
-2.96
-3.24
-3.45
-3.66
-3.96
-4.39
-4.91
-5.45
-5.88
-5.99
-5.53
-4.27
-2.16
0.60
3.59
6.30
8.28
9.33
9.51
9.03
8.11
6.88
5.45
3.86
2.24
0.76
-0.43
-1.22
-1.57
-1.53
-1.19
-0.67
-0.12
0.30
0.43
0.20
-0.44
-1.41
-2.63
-3.95
-5.24
-6.38
-7.30
-7.99
-8.53
-9.09
-9.87
-10.90
-12.04
-12.91
-13.01
-11.94
-9.52
-5.96
-1.75
2.49
6.18
8.96
10.68
11.41
11.28
10.48
9.23
7.81
6.47
5.46
4.86
4.66
4.75
5.04
5.49
6.12
6.98
8.06
9.32
10.63
11.87
12.95
13.78
14.30
14.48
14.34
13.95
13.47
13.08
12.91
12.94
12.95
12.62
11.66
10.00
7.93
6.02
4.97
5.37
7.45
11.09
15.81
20.97
25.87
29.81
32.13
32.34
30.15
25.68
19.36
11.90
4.01
-3.77
-11.16
-18.02
-24.24
-29.59
-33.79
-36.63
-38.07
-38.33
-37.79
-36.76
-35.44
-33.91
-32.19
-30.41
-28.77
-27.50
-26.70
-26.28
-25.95
-25.39
-24.36
-22.83
-20.86
-18.52
-15.75
-12.38
-8.19
-3.13
2.56
8.38
13.65
17.69
20.01
20.40
18.93
15.87
11.71
6.99
2.32
-1.79
-4.97
-7.09
-8.21
-8.56
-8.37
-7.90
-7.33
-6.83
-6.54
-6.54
-6.79
-7.16
-7.47
-7.58
-7.50
-7.32
-7.20
-7.25
-7.49
-7.88
-8.35
-8.88
-9.45
-9.98
-10.26
-9.96
-8.79
-6.62
-3.57
-0.03
3.52
6.65
9.12
10.85
11.93
12.48
12.58
12.24
11.51
10.44
9.18
7.93
6.84
6.05
5.55
5.27
5.09
4.89
4.59
4.16
3.61
2.94
2.13
1.20
0.17
-0.91
-1.98
-3.01
-4.03
-5.11
-6.36
-7.76
-9.19
-10.36
-10.88
-10.37
-8.63
-5.71
-1.92
2.22
6.16
9.43
11.76
13.07
13.41
12.94
11.85
10.33
8.61
6.87
5.26
3.87
2.75
1.93
1.43
1.22
1.24
1.32
1.29
1.01
0.42
-0.37
-1.21
-1.94
-2.49
-2.88
-3.24
-3.70
-4.37
-5.30
-6.55
-8.05
-9.68
-11.14
-11.98
-11.74
-10.10
-7.05
-2.95
1.53
5.64
8.76
10.62
11.25
10.93
10.01
8.74
7.26
5.65
4.03
2.56
1.44
0.86
0.85
1.31
1.98
2.56
2.86
2.80
2.50
2.11
1.79
1.59
1.44
1.19
0.73
0.00
-0.91
-1.86
-2.74
-3.53
-4.27
-4.98
-5.60
-5.89
-5.51
-4.16
-1.72
1.64
5.52
9.34
12.61
15.01
16.40
16.87
16.57
15.69
14.41
12.89
11.34
9.93
8.83
8.11
7.72
7.54
7.44
7.30
7.08
6.79
6.45
6.05
5.52
4.76
3.70
2.35
0.78
-0.81
-2.25
-3.43
-4.37
-5.19
-6.08
-7.22
-8.67
-10.39
-12.22
-13.87
-14.99
-15.19
-14.16
-11.78
-8.26
-4.05
0.16
3.72
6.20
7.49
7.76
7.35
6.57
5.63
4.63
3.60
2.56
1.57
0.73
0.13
-0.20
-0.25
-0.08
0.20
0.48
0.67
0.68
0.50
0.16
-0.31
-0.84
-1.39
-1.92
-2.40
-2.85
-3.31
-3.90
-4.72
-5.84
-7.20
-8.55
-9.44
-9.43
-8.17
-5.66
-2.24
1.46
4.75
7.14
8.40
8.61
8.00
6.81
5.25
3.51
1.77
0.26
-0.82
-1.38
-1.44
-1.16
-0.72
-0.28
0.06
0.26
0.31
0.22
0.02
-0.26
-0.58
-0.93
-1.36
-1.90
-2.58
-3.37
-4.23
-5.14
-6.14
-7.30
-8.62
-9.98
-11.06
-11.44
-10.75
-8.82
-5.84
-2.28
1.27
4.30
6.50
7.83
8.40
8.33
7.69
6.52
4.92
3.10
1.41
0.22
-0.17
0.27
1.38
2.84
4.31
5.52
6.30
6.61
6.41
5.74
4.69
3.40
2.07
0.86
-0.12
-0.89
-1.51
-2.08
-2.69
-3.41
-4.33
-5.53
-7.01
-8.65
-10.14
-11.04
-10.95
-9.70
-7.43
-4.54
-1.57
1.05
3.11
4.62
5.71
6.53
7.17
7.69
8.08
8.40
8.72
9.09
9.48
9.76
9.79
9.43
8.68
7.60
6.33
4.98
3.62
2.26
0.95
-0.26
-1.28
-2.04
-2.53
-2.77
-2.80
-2.67
-2.42
-2.12
-1.90
-1.91
-2.23
-2.80
-3.39
-3.67
-3.38
-2.45
-1.05
0.48
1.83
2.82
3.44
3.80
3.98
3.96
3.64
2.91
1.73
0.22
-1.38
-2.82
-3.94
-4.67
-5.01
-5.01
-4.73
-4.22
-3.55
-2.86
-2.29
-1.97
-1.97
-2.24
-2.72
-3.30
-3.90
-4.51
-5.11
-5.69
-6.26
-6.86
-7.46
-8.03
-8.42
-8.39
-7.66
-6.03
-3.49
-0.29
3.10
6.13
8.35
9.55
9.74
9.15
8.06
6.68
5.13
3.47
1.75
0.07
-1.42
-2.56
-3.26
-3.60
-3.74
-3.88
-4.20
-4.74
-5.40
-6.01
-6.43
-6.56
-6.41
-6.03
-5.51
-4.89
-4.20
-3.50
-2.91
-2.67
-3.02
-4.10
-5.73
-7.43
-8.56
-8.50
-6.93
-3.95
0.01
4.29
8.27
11.45
13.51
14.34
13.98
12.62
10.61
8.34
6.21
4.50
3.33
2.71
2.52
2.66
3.00
3.41
3.81
4.14
4.35
4.44
4.37
4.11
3.63
2.89
1.93
0.80
-0.40
-1.61
-2.82
-4.02
-5.25
-6.55
-7.92
-9.28
-10.44
-11.07
-10.87
-9.62
-7.37
-4.44
-1.29
1.59
3.86
5.38
6.16
6.28
5.84
4.94
3.69
2.24
0.77
-0.56
-1.60
-2.22
-2.37
-2.04
-1.35
-0.50
0.27
0.74
0.82
0.56
0.07
-0.49
-1.05
-1.63
-2.29
-3.12
-4.18
-5.49
-6.95
-8.39
-9.53
-10.02
-9.55
-7.93
-5.19
-1.62
2.27
5.89
8.74
10.57
11.37
11.37
10.86
10.12
9.24
8.25
7.08
5.74
4.32
2.99
1.89
1.11
0.62
0.32
0.06
-0.26
-0.74
-1.40
-2.23
-3.16
-4.11
-5.02
-5.85
-6.63
-7.40
-8.23
-9.16
-10.18
-11.18
-11.95
-12.18
-11.52
-9.69
-6.66
-2.71
1.59
5.56
8.61
10.43
11.02
10.62
9.53
8.05
6.44
4.91
3.62
2.72
2.21
2.04
2.05
2.09
2.04
1.88
1.59
1.17
0.64
0.03
-0.58
-1.11
-1.47
-1.65
-1.70
-1.76
-1.98
-2.47
-3.33
-4.54
-5.98
-7.43
-8.54
-8.93
-8.24
-6.30
-3.24
0.55
4.47
7.91
10.42
11.77
12.04
11.47
10.40
9.13
7.90
6.84
5.97
5.27
4.68
4.13
3.61
3.16
2.87
2.82
3.05
3.47
3.94
4.28
4.36
4.13
3.61
2.87
1.97
0.97
-0.09
-1.17
-2.24
-3.33
-4.52
-5.87
-7.32
-8.61
-9.34
-9.03
-7.41
-4.52
-0.75
3.25
6.78
9.35
10.76
11.06
10.49
9.30
7.73
5.92
4.04
2.28
0.84
-0.14
-0.63
-0.73
-0.62
-0.50
-0.52
-0.73
-1.10
-1.54
-2.00
-2.47
-3.00
-3.64
-4.39
-5.21
-6.00
-6.67
-7.20
-7.66
-8.15
-8.79
-9.59
-10.38
-10.85
-10.63
-9.45
-7.24
-4.18
-0.66
2.84
5.87
8.11
9.39
9.67
9.03
7.64
5.81
3.90
2.28
1.23
0.86
1.10
1.70
2.37
2.88
3.08
2.96
2.62
2.15
1.62
1.06
0.42
-0.37
-1.34
-2.46
-3.62
-4.69
-5.58
-6.28
-6.88
-7.57
-8.47
-9.59
-10.73
-11.49
-11.42
-10.16
-7.63
-4.06
0.02
3.96
7.16
9.28
10.26
10.28
9.61
8.54
7.28
5.98
4.75
3.69
2.92
2.49
2.39
2.53
2.75
2.91
2.94
2.83
2.58
2.24
1.82
1.29
0.62
-0.21
-1.16
-2.15
-3.07
-3.80
-4.28
-4.56
-4.80
-5.22
-5.98
-7.09
-8.32
-9.23
-9.37
-8.36
-6.12
-2.86
0.96
4.77
8.04
10.39
11.66
11.87
11.20
9.89
8.18
6.29
4.40
2.72
1.39
0.52
0.12
0.10
0.27
0.43
0.45
0.28
-0.04
-0.48
-1.04
-1.81
-2.88
-4.29
-5.92
-7.55
-8.88
-9.68
-9.83
-9.45
-8.81
-8.24
-8.05
-8.40
-9.17
-10.04
-10.51
-10.05
-8.32
-5.29
-1.30
3.05
7.04
10.08
11.87
12.42
11.95
10.79
9.27
7.66
6.19
5.01
4.15
3.55
3.06
2.52
1.85
1.10
0.44
0.05
-0.03
0.07
0.14
-0.08
-0.67
-1.60
-2.71
-3.83
-4.88
-5.94
-7.16
-8.68
-10.47
-12.39
-14.25
-15.84
-16.80
-16.81
-15.61
-13.07
-9.34
-4.82
-0.12
4.05
7.17
9.23
10.55
11.50
12.30
12.92
13.25
13.22
13.00
12.98
13.89
16.25
20.04
24.62
29.04
32.43
34.27
34.48
31.96
26.38
18.56
10.17
2.60
-3.66
-8.80
-13.20
-17.03
-20.22
-22.36
-23.13
-22.55
-21.00
-19.00
-16.99
-15.24
-14.04
-13.22
-12.38
-11.16
-9.34
-6.91
-4.04
-1.00
1.86
4.13
5.53
5.93
5.58
4.93
4.32
3.78
3.13
2.09
0.44
-1.80
-4.37
-6.97
-9.39
-11.57
-13.51
-15.10
-16.10
-16.18
-15.39
-13.58
-10.98
-8.11
-5.42
-3.03
-0.44
3.22
8.67
15.83
23.52
29.74
32.54
30.99
25.68
18.44
11.50
6.43
3.67
2.62
2.26
1.79
0.96
-0.02
-0.85
-1.53
-2.34
-3.66
-5.68
-8.25
-10.85
-12.84
-13.73
-13.42
-12.18
-10.58
-9.22
-8.49
-8.43
-8.70
-8.83
-8.38
-7.27
-5.66
-3.99
-2.69
-2.01
-1.91
-2.09
-2.16
-1.87
-1.15
-0.13
0.91
1.66
1.86
1.44
0.54
-0.49
-1.17
-1.07
0.04
2.04
4.52
6.93
8.75
9.60
9.39
8.21
6.32
4.03
1.61
-0.67
-2.55
-3.88
-4.57
-4.66
-4.24
-3.48
-2.51
-1.45
-0.45
0.31
0.62
0.26
-0.90
-2.81
-5.24
-7.78
-9.98
-11.56
-12.44
-12.71
-12.65
-12.61
-12.89
-13.73
-15.19
-17.13
-19.15
-20.59
-20.64
-18.62
-14.20
-7.67
0.17
8.14
15.12
20.33
23.52
24.85
24.70
23.46
21.41
18.76
15.82
12.96
10.64
9.22
8.79
9.06
9.52
9.60
8.91
7.41
5.35
3.13
1.11
-0.51
-1.68
-2.43
-2.84
-2.97
-2.92
-2.83
-2.90
-3.30
-4.14
-5.39
-6.88
-8.32
-9.38
-9.72
-9.16
-7.66
-5.41
-2.70
0.12
2.76
5.03
6.82
8.07
8.72
8.69
7.99
6.65
4.87
2.91
1.08
-0.31
-1.07
-1.11
-0.49
0.61
1.90
3.01
3.61
3.46
2.51
0.88
-1.20
-3.47
-5.72
-7.87
-9.94
-11.96
-13.98
-15.94
-17.68
-18.93
-19.34
-18.59
-16.48
-13.01
-8.48
-3.38
1.71
6.29
10.09
13.09
15.43
17.32
18.95
20.39
21.61
22.51
22.93
22.72
21.79
20.12
17.87
15.29
12.74
10.54
8.92
7.90
7.36
7.01
6.55
5.66
4.09
1.74
-1.39
-5.11
-9.15
-13.12
-16.64
-19.33
-20.85
-21.01
-19.77
-17.30
-13.97
-10.28
-6.73
-3.68
-1.30
0.46
1.76
2.78
3.64
4.43
5.22
6.11
7.24
8.74
10.65
12.83
14.97
16.63
17.33
16.73
14.80
11.79
8.25
4.80
1.97
-0.01
-1.29
-2.26
-3.44
-5.24
-7.85
-11.14
-14.69
-17.91
-20.20
-21.06
-20.28
-17.96
-14.44
-10.22
-5.78
-1.47
2.42
5.72
8.25
9.86
10.49
10.19
9.24
8.10
7.31
7.43
8.88
11.91
16.46
22.07
27.90
32.77
35.46
35.01
31.16
24.46
16.21
8.06
1.46
-2.79
-4.75
-5.20
-5.24
-5.87
-7.60
-10.37
-13.68
-16.84
-19.20
-20.34
-20.15
-18.72
-16.34
-13.38
-10.26
-7.42
-5.26
-4.06
-3.92
-4.71
-6.10
-7.67
-9.02
-9.87
-10.04
-9.43
-8.04
-5.91
-3.19
-0.20
2.64
4.82
5.93
5.72
4.17
1.51
-1.80
-5.20
-8.10
-10.05
-10.91
-10.90
-10.54
-10.47
-11.13
-12.56
-14.33
-15.73
-16.01
-14.73
-11.86
-7.79
-3.12
1.49
5.53
8.71
10.93
12.23
12.72
12.59
12.03
11.24
10.39
9.59
8.99
8.75
9.15
10.52
13.17
17.19
22.35
27.97
32.97
36.15
36.46
33.36
26.99
18.14
8.13
-1.66
-10.05
-16.40
-20.71
-23.43
-25.26
-26.77
-28.18
-29.23
-29.37
-28.00
-24.81
-19.97
-14.15
-8.21
-2.98
1.08
3.88
5.62
6.56
6.93
6.81
6.25
5.34
4.22
3.06
1.95
0.91
-0.09
-1.00
-1.66
-1.75
-0.95
0.86
3.44
6.19
8.25
8.82
7.44
4.20
-0.29
-5.07
-9.17
-11.88
-12.96
-12.63
-11.48
-10.21
-9.38
-9.29
-9.83
-10.59
-11.00
-10.64
-9.32
-7.21
-4.74
-2.38
-0.52
0.71
1.35
1.58
1.54
1.35
1.03
0.65
0.32
0.21
0.54
1.46
3.08
5.42
8.41
11.96
15.89
19.94
23.71
26.68
28.31
28.19
26.21
22.66
18.15
13.46
9.27
6.01
3.77
2.37
1.55
1.05
0.60
-0.05
-1.19
-3.10
-5.85
-9.18
-12.44
-14.80
-15.53
-14.33
-11.48
-7.77
-4.20
-1.61
-0.45
-0.70
-2.01
-3.86
-5.79
-7.43
-8.56
-9.10
-9.05
-8.50
-7.61
-6.54
-5.46
-4.46
-3.56
-2.71
-1.85
-0.96
-0.09
0.59
0.86
0.54
-0.44
-1.97
-3.78
-5.55
-7.05
-8.22
-9.18
-10.16
-11.36
-12.87
-14.65
-16.53
-18.28
-19.68
-20.46
-20.41
-19.33
-17.14
-13.95
-10.06
-5.91
-1.95
1.52
4.39
6.78
8.87
10.83
12.72
14.49
16.03
17.25
18.13
18.73
19.18
19.69
20.43
21.45
22.60
23.56
23.88
23.21
21.41
18.62
15.24
11.76
8.61
6.06
4.15
2.77
1.64
0.45
-1.12
-3.24
-5.93
-8.93
-11.90
-14.42
-16.25
-17.26
-17.50
-17.03
-15.87
-13.97
-11.31
-8.01
-4.33
-0.67
2.56
5.10
6.80
7.67
7.78
7.25
6.29
5.17
4.27
3.91
4.30
5.39
6.89
8.40
9.49
9.81
9.17
7.57
5.20
2.45
-0.11
-1.98
-2.87
-2.87
-2.45
-2.23
-2.74
-4.17
-6.33
-8.79
-11.14
-13.16
-14.87
-16.41
-17.86
-19.18
-20.19
-20.78
-20.92
-20.75
-20.38
-19.81
-18.82
-17.02
-14.13
-10.09
-5.19
0.02
4.95
9.24
12.90
16.27
19.80
23.82
28.27
32.61
35.98
37.49
36.54
33.08
27.67
21.27
14.94
9.55
5.51
2.84
1.27
0.43
-0.00
-0.23
-0.38
-0.54
-0.75
-1.06
-1.46
-1.90
-2.32
-2.68
-3.03
-3.54
-4.48
-6.13
-8.73
-12.31
-16.69
-21.51
-26.20
-30.19
-32.90
-33.89
-32.90
-29.98
-25.41
-19.69
-13.44
-7.21
-1.44
3.57
7.67
10.75
12.69
13.42
13.00
11.61
9.68
7.72
6.21
5.48
5.53
6.12
6.80
7.19
7.07
6.52
5.79
5.10
4.50
3.79
2.68
0.98
-1.22
-3.53
-5.42
-6.47
-6.56
-5.92
-4.99
-4.27
-4.10
-4.63
-5.82
-7.46
-9.17
-10.40
-10.45
-8.62
-4.45
2.03
10.10
18.46
25.51
29.87
30.85
28.68
24.35
19.18
14.40
10.72
8.28
6.82
5.97
5.38
4.86
4.33
3.71
2.94
1.97
0.82
-0.42
-1.57
-2.43
-2.92
-3.05
-3.02
-3.10
-3.58
-4.65
-6.36
-8.54
-10.92
-13.13
-14.84
-15.81
-15.92
-15.25
-14.04
-12.69
-11.67
-11.38
-11.98
-13.36
-15.13
-16.72
-17.53
-17.06
-15.05
-11.53
-6.85
-1.57
3.60
8.00
11.16
12.90
13.29
12.60
11.21
9.46
7.64
5.95
4.54
3.47
2.73
2.23
1.83
1.42
0.95
0.49
0.12
-0.04
0.09
0.55
1.41
2.75
4.70
7.39
10.91
15.27
20.29
25.55
30.39
33.91
35.17
33.44
28.49
20.74
11.33
1.82
-6.14
-11.29
-13.08
-11.74
-8.19
-3.70
0.43
3.26
4.32
3.62
1.56
-1.31
-4.40
-7.18
-9.32
-10.67
-11.33
-11.58
-11.80
-12.29
-13.19
-14.41
-15.64
-16.55
-16.88
-16.55
-15.69
-14.54
-13.33
-12.26
-11.41
-10.82
-10.46
-10.31
-10.33
-10.53
-10.93
-11.60
-12.61
-13.97
-15.52
-16.91
-17.65
-17.27
-15.47
-12.30
-8.11
-3.47
1.03
4.90
7.86
9.76
10.63
10.59
9.85
8.70
7.48
6.49
5.96
6.01
6.57
7.51
8.60
9.65
10.55
11.33
12.20
13.50
15.60
18.76
22.94
27.77
32.45
35.97
37.29
35.73
31.20
24.30
16.18
8.17
1.41
-3.52
-6.63
-8.46
-9.70
-10.96
-12.51
-14.27
-15.89
-16.93
-17.04
-16.03
-13.99
-11.14
-7.80
-4.31
-0.96
1.93
4.05
5.10
4.92
3.56
1.32
-1.29
-3.72
-5.54
-6.57
-6.91
-6.80
-6.50
-6.17
-5.87
-5.59
-5.37
-5.34
-5.68
-6.55
-7.99
-9.87
-11.87
-13.64
-14.81
-15.17
-14.77
-13.85
-12.81
-12.10
-12.01
-12.64
-13.84
-15.26
-16.52
-17.23
-17.07
-15.80
-13.32
-9.70
-5.28
-0.62
3.67
7.11
9.56
11.23
12.52
13.77
15.11
16.45
17.67
18.86
20.35
22.65
26.02
30.23
34.51
37.73
38.88
37.53
33.93
28.94
23.57
18.60
14.39
10.91
7.97
5.41
3.17
1.24
-0.44
-2.05
-3.81
-5.93
-8.48
-11.45
-14.70
-18.06
-21.28
-24.03
-25.91
-26.61
-26.02
-24.29
-21.88
-19.36
-17.23
-15.75
-14.81
-14.14
-13.35
-12.22
-10.75
-9.08
-7.46
-6.04
-4.89
-4.01
-3.38
-3.02
-2.95
-3.14
-3.45
-3.62
-3.38
-2.52
-1.04
0.86
2.82
4.39
5.24
5.21
4.42
3.17
1.86
0.80
0.08
-0.37
-0.78
-1.41
-2.46
-4.01
-6.02
-8.34
-10.60
-12.27
-12.74
-11.53
-8.48
-3.86
1.67
7.38
12.70
17.43
21.74
25.90
30.10
34.20
37.74
40.09
40.68
39.25
35.94
31.30
26.09
21.09
16.90
13.80
11.78
10.62
10.03
9.66
9.22
8.46
7.16
5.24
2.79
0.02
-2.73
-5.18
-7.15
-8.66
-9.92
-11.19
-12.78
-14.94
-17.80
-21.35
-25.32
-29.27
-32.62
-34.80
-35.37
-34.17
-31.32
-27.19
-22.25
-17.00
-11.91
-7.37
-3.72
-1.14
0.33
0.84
0.71
0.31
-0.02
-0.06
0.25
0.87
1.70
2.65
3.62
4.55
5.31
5.82
5.96
5.65
4.84
3.48
1.59
-0.70
-3.13
-5.39
-7.17
-8.32
-8.93
-9.23
-9.53
-10.10
-10.99
-12.14
-13.30
-14.12
-14.18
-13.04
-10.35
-5.92
0.18
7.61
15.87
24.34
32.40
39.35
44.44
46.92
46.27
42.37
35.75
27.49
19.02
11.70
6.46
3.64
2.97
3.78
5.29
6.76
7.66
7.59
6.36
3.92
0.46
-3.59
-7.62
-10.95
-13.10
-13.97
-13.91
-13.56
-13.64
-14.64
-16.70
-19.61
-22.96
-26.31
-29.26
-31.50
-32.75
-32.78
-31.43
-28.67
-24.67
-19.74
-14.27
-8.66
-3.25
1.67
5.84
9.11
11.34
12.53
12.73
12.04
10.62
8.67
6.49
4.40
2.71
1.58
0.98
0.70
0.47
0.12
-0.35
-0.80
-1.06
-1.08
-0.92
-0.71
-0.51
-0.26
0.19
1.02
2.25
3.74
5.18
6.28
6.84
6.84
6.42
5.81
5.28
5.12
5.63
7.06
9.58
13.14
17.42
21.81
25.55
27.93
28.45
26.97
23.74
19.23
14.07
8.80
3.87
-0.49
-4.16
-7.17
-9.57
-11.43
-12.79
-13.64
-13.95
-13.62
-12.55
-10.69
-8.13
-5.16
-2.29
-0.10
0.98
0.79
-0.45
-2.28
-4.24
-6.08
-7.84
-9.71
-11.89
-14.44
-17.20
-19.94
-22.35
-24.15
-25.05
-24.71
-22.84
-19.35
-14.41
-8.54
-2.43
3.25
8.03
11.78
14.58
16.60
17.94
18.65
18.75
18.29
17.47
16.50
15.60
14.85
14.21
13.59
12.92
12.25
11.69
11.42
11.48
11.79
12.21
12.60
12.97
13.50
14.43
15.93
17.98
20.33
22.54
24.10
24.55
23.56
20.98
16.88
11.59
5.72
0.02
-4.70
-7.77
-8.81
-7.79
-4.97
-0.77
4.40
10.33
16.98
24.27
31.85
38.92
44.35
46.92
45.77
40.48
31.25
18.57
3.16
-14.05
-31.76
-48.23
-61.55
-70.14
-73.36
-71.68
-66.60
-60.14
-54.05
-49.27
-45.78
-42.88
-39.68
-35.56
-30.28
-24.32
-18.88
-15.45
-15.19
-18.42
-24.37
-31.18
-36.59
-38.24
-34.60
-25.57
-12.48
2.10
14.84
22.23
22.51
14.67
0.65
-14.73
-26.36
-31.22
-29.33
-22.87
-14.72
-7.22
-1.65
1.95
4.08
5.11
5.28
4.74
3.79
2.80
2.17
2.16
3.04
4.83
7.21
9.62
11.41
12.08
11.41
9.68
7.45
5.52
4.70
5.56
8.62
13.99
21.49
30.54
40.14
48.97
55.80
59.74
59.63
56.17
50.25
42.83
34.72
26.53
18.66
11.40
4.97
-0.53
-4.95
-8.33
-10.75
-12.30
-13.15
-13.58
-13.83
-14.06
-14.39
-14.63
-14.68
-14.43
-13.80
-12.89
-11.89
-11.04
-10.52
-10.33
-10.27
-10.10
-9.65
-8.71
-7.18
-5.02
-2.31
0.58
2.88
3.58
1.69
-3.08
-9.96
-17.09
-22.10
-23.07
-19.31
-11.69
-2.21
6.83
13.66
17.56
18.72
17.88
15.83
13.13
10.08
6.90
3.86
1.33
-0.35
-1.01
-0.78
-0.07
0.56
0.65
0.04
-1.15
-2.55
-3.74
-4.50
-4.81
-4.92
-5.14
-5.75
-6.83
-8.28
-9.84
-11.21
-12.19
-12.74
-13.02
-13.27
-13.76
-14.66
-16.03
-17.73
-19.50
-21.00
-21.78
-21.37
-19.34
-15.44
-9.72
-2.57
5.28
12.98
19.73
24.99
28.53
30.44
31.06
30.81
30.09
29.25
28.54
28.12
28.04
28.24
28.47
28.36
27.44
25.33
21.83
17.05
11.34
5.24
-0.77
-6.33
-11.19
-15.20
-18.19
-20.04
-20.78
-20.68
-20.29
-20.28
-21.21
-23.35
-26.50
-30.15
-33.59
-36.14
-37.32
-36.85
-34.66
-30.88
-25.78
-19.84
-13.64
-7.78
-2.72
1.31
4.38
6.76
8.77
10.66
12.60
14.67
16.93
19.42
22.20
25.21
28.25
30.96
32.91
33.72
33.21
31.48
28.90
25.94
22.97
20.17
17.45
14.64
11.57
8.26
4.90
1.80
-0.75
-2.66
-4.00
-5.06
-6.17
-7.53
-9.12
-10.66
-11.70
-11.81
-10.82
-8.86
-6.39
-3.91
-1.82
-0.23
1.02
2.17
3.38
4.61
5.63
6.14
5.93
4.96
3.34
1.28
-1.00
-3.34
-5.57
-7.52
-8.94
-9.62
-9.42
-8.45
-7.08
-5.84
-5.20
-5.39
-6.36
-7.80
-9.39
-10.93
-12.41
-13.86
-15.32
-16.70
-17.86
-18.72
-19.30
-19.69
-19.89
-19.67
-18.58
-16.11
-11.91
-6.02
1.15
8.97
16.84
24.34
31.28
37.62
43.28
48.06
51.58
53.39
53.12
50.64
46.20
40.44
34.24
28.47
23.76
20.32
17.93
16.15
14.51
12.74
10.86
9.10
7.76
7.06
6.97
7.20
7.24
6.43
4.16
-0.00
-6.15
-13.97
-22.70
-31.30
-38.63
-43.73
-46.10
-45.76
-43.25
-39.40
-35.07
-30.94
-27.36
-24.47
-22.21
-20.51
-19.29
-18.46
-17.92
-17.51
-17.12
-16.66
-16.16
-15.67
-15.22
-14.80
-14.32
-13.63
-12.67
-11.39
-9.86
-8.16
-6.38
-4.61
-2.90
-1.35
-0.06
0.83
1.24
1.21
0.97
0.99
1.93
4.40
8.78
14.98
22.44
30.27
37.52
43.35
47.18
48.71
47.89
44.99
40.57
35.39
30.26
25.73
