1659462730.00
64.000000
-0.00
-0.00
-0.00
-0.00
-0.00
-0.00
-0.00
-0.00
-0.00
-0.00
0.00
0.01
0.01
-0.00
-0.03
-0.05
-0.05
0.00
0.13
0.36
0.66
1.01
1.37
1.72
2.06
2.40
2.79
3.24
3.80
4.42
5.06
5.66
6.20
6.68
7.15
7.68
8.31
9.14
10.09
11.04
11.88
12.56
13.14
13.76
14.65
15.96
17.91
20.32
22.90
25.38
27.58
29.57
31.68
34.32
37.81
42.54
48.15
54.10
59.83
64.97
69.58
74.14
79.35
85.71
93.76
103.00
112.62
121.73
129.76
136.74
143.30
150.75
157.80
166.69
177.99
191.81
206.91
220.40
227.94
224.94
208.02
176.32
132.22
79.52
22.53
-35.53
-93.13
-149.98
-206.16
-261.36
-314.73
-364.82
-410.75
-451.86
-487.61
-517.12
-538.93
-551.20
-552.09
-540.48
-516.21
-480.61
-435.95
-384.96
-330.26
-273.96
-217.53
-162.03
-108.40
-57.63
-11.00
30.26
65.27
93.75
116.15
133.43
146.72
156.91
164.41
169.09
170.65
168.92
164.17
157.21
149.12
140.92
133.23
126.09
119.09
111.66
103.26
93.50
82.25
69.77
57.11
46.17
39.39
38.89
45.43
57.74
72.64
86.23
95.31
98.51
96.41
91.00
84.11
76.85
69.58
62.29
55.11
48.47
42.91
38.72
35.74
33.37
30.92
27.90
24.22
20.20
16.44
13.50
11.71
10.96
10.83
10.69
10.03
8.63
6.62
4.38
2.39
1.00
0.26
-0.06
-0.34
-0.90
-1.75
-2.57
-2.89
-2.39
-1.15
0.31
1.29
1.26
0.15
-1.60
-3.38
-4.66
-5.28
-5.36
-5.21
-5.01
-4.80
-4.52
-4.13
-3.71
-3.45
-3.44
-3.69
-4.03
-4.23
-4.09
-3.56
-2.74
-1.81
-0.99
-0.42
-0.17
-0.16
-0.32
-0.49
-0.59
-0.52
-0.29
0.02
0.31
0.47
0.48
0.44
0.50
0.82
1.42
2.27
3.19
4.03
4.73
5.36
6.06
6.93
7.99
9.13
10.16
10.84
10.98
10.52
9.49
8.02
6.31
4.41
2.36
0.21
-2.01
-4.19
-6.20
-7.89
-9.15
-9.96
-10.38
-10.50
-10.41
-10.18
-9.81
-9.32
-8.77
-8.22
-7.74
-7.39
-7.18
-7.08
-7.03
-6.93
-6.70
-6.27
-5.65
-4.92
-4.21
-3.66
-3.35
-3.28
-3.35
-3.44
-3.41
-3.24
-2.96
-2.68
-2.44
-2.27
-2.10
-1.88
-1.56
-1.17
-0.80
-0.54
-0.49
-0.65
-0.97
-1.33
-1.62
-1.70
-1.57
-1.22
-0.75
-0.26
0.17
0.55
0.91
1.28
1.67
2.00
2.16
2.10
1.76
1.25
0.72
0.31
0.07
-0.04
-0.08
-0.08
-0.03
0.10
0.32
0.55
0.66
0.55
0.19
-0.35
-0.91
-1.39
-1.73
-1.97
-2.19
-2.45
-2.70
-2.88
-2.90
-2.76
-2.54
-2.36
-2.30
-2.33
-2.32
-2.09
-1.55
-0.73
0.21
1.09
1.74
2.14
2.39
2.57
2.77
2.96
3.06
2.96
2.60
1.99
1.24
0.48
-0.14
-0.52
-0.66
-0.60
-0.41
-0.19
-0.03
0.06
0.03
-0.10
-0.31
-0.56
-0.77
-0.88
-0.84
-0.70
-0.54
-0.49
-0.63
-0.95
-1.40
-1.89
-2.29
-2.52
-2.47
-2.09
-1.38
-0.47
0.46
1.23
1.71
1.92
2.00
2.07
2.20
2.32
2.29
1.97
1.38
0.63
-0.05
-0.47
-0.53
-0.29
0.11
0.51
0.78
0.89
0.89
0.84
0.79
0.74
0.64
0.45
0.15
-0.24
-0.65
-1.02
-1.28
-1.46
-1.63
-1.88
-2.28
-2.79
-3.23
-3.41
-3.17
-2.54
-1.67
-0.79
-0.09
0.41
0.80
1.21
1.73
2.27
2.70
2.85
2.71
2.37
2.05
1.91
2.02
2.29
2.54
2.56
2.32
1.91
1.56
1.47
1.71
2.14
2.51
2.61
2.41
2.08
1.85
1.89
2.19
2.55
2.70
2.48
1.92
1.20
0.55
0.17
0.07
0.21
0.48
0.80
1.19
1.73
2.48
3.47
4.60
5.70
6.59
7.12
7.29
7.18
6.90
6.56
6.20
5.78
5.29
4.77
4.29
3.91
3.59
3.19
2.56
1.60
0.40
-0.81
-1.75
-2.24
-2.32
-2.19
-2.18
-2.46
-3.07
-3.86
-4.62
-5.20
-5.61
-6.00
-6.49
-7.12
-7.77
-8.24
-8.37
-8.17
-7.79
-7.50
-7.50
-7.86
-8.43
-9.04
-9.52
-9.85
-10.15
-10.55
-11.12
-11.80
-12.42
-12.83
-12.97
-12.93
-12.82
-12.72
-12.58
-12.26
-11.56
-10.27
-8.27
-5.52
-2.07
1.95
6.36
10.89
15.25
19.15
22.34
24.65
26.04
26.54
26.26
25.31
23.80
21.89
19.74
17.55
15.47
13.52
11.62
9.61
7.31
4.69
1.89
-0.86
-3.31
-5.39
-7.18
-8.89
-10.73
-12.78
-14.94
-16.94
-18.51
-19.52
-20.01
-20.16
-20.22
-20.32
-20.44
-20.45
-20.21
-19.68
-18.97
-18.26
-17.70
-17.33
-17.03
-16.62
-15.92
-14.85
-13.45
-11.81
-10.07
-8.27
-6.45
-4.57
-2.63
-0.62
1.38
3.27
4.92
6.23
7.17
7.81
8.30
8.76
9.27
9.74
10.04
10.05
9.70
9.08
8.39
7.83
7.53
7.51
7.64
7.76
7.72
7.46
7.00
6.43
5.83
5.27
4.74
4.24
3.77
3.35
3.00
2.74
2.49
2.16
1.63
0.87
-0.03
-0.85
-1.34
-1.33
-0.79
0.11
1.07
1.85
2.31
2.50
2.62
2.82
3.18
3.62
3.98
4.13
4.06
3.86
3.67
3.57
3.58
3.61
3.55
3.33
3.00
2.65
2.37
2.20
2.12
2.05
1.94
1.77
1.58
1.40
1.26
1.16
1.06
0.92
0.73
0.48
0.19
-0.11
-0.37
-0.51
-0.48
-0.24
0.19
0.75
1.34
1.90
2.41
2.87
3.28
3.60
3.79
3.80
3.64
3.41
3.23
3.22
3.39
3.64
3.85
3.90
3.79
3.58
3.38
3.22
3.04
2.72
2.18
1.45
0.65
-0.01
-0.41
-0.52
-0.43
-0.30
-0.25
-0.36
-0.64
-1.09
-1.67
-2.29
-2.83
-3.12
-3.05
-2.60
-1.88
-1.06
-0.31
0.29
0.76
1.15
1.51
1.82
2.04
2.17
2.21
2.21
2.21
2.21
2.17
2.08
1.92
1.75
1.59
1.46
1.34
1.19
1.02
0.83
0.66
0.52
0.38
0.21
-0.01
-0.30
-0.63
-0.95
-1.21
-1.37
-1.43
-1.47
-1.61
-1.93
-2.43
-2.99
-3.39
-3.44
-3.06
-2.33
-1.46
-0.68
-0.12
0.21
0.40
0.56
0.77
1.05
1.36
1.67
1.91
2.06
2.09
2.02
1.87
1.68
1.46
1.20
0.88
0.53
0.18
-0.05
-0.10
0.00
0.19
0.34
0.35
0.17
-0.17
-0.63
-1.12
-1.59
-2.01
-2.37
-2.64
-2.83
-2.92
-2.94
-2.89
-2.77
-2.55
-2.21
-1.73
-1.14
-0.49
0.13
0.65
1.05
1.35
1.59
1.75
1.78
1.54
0.96
0.09
-0.87
-1.61
-1.82
-1.33
-0.22
1.23
2.59
3.50
3.77
3.48
2.95
2.63
2.90
3.92
5.55
7.41
9.09
10.28
10.98
11.46
12.12
13.33
15.21
17.61
20.17
22.43
23.99
24.61
24.24
23.28
22.71
24.11
29.27
39.34
53.94
70.59
85.18
93.23
91.63
79.88
60.24
36.83
14.07
-4.56
-17.10
-23.01
-22.71
-17.25
-8.17
2.66
13.28
22.06
28.08
31.31
32.48
32.75
33.30
35.01
38.21
42.58
47.25
51.09
53.23
53.31
51.71
49.22
46.67
44.51
42.85
41.59
40.77
40.61
41.47
43.50
46.50
49.83
52.59
53.88
53.03
49.78
44.23
36.73
27.75
17.72
6.95
-4.38
-16.17
-28.28
-40.42
-52.15
-62.85
-71.85
-78.55
-82.59
-83.94
-82.88
-79.91
-75.59
-70.40
-64.67
-58.56
-52.15
-45.46
-38.55
-31.46
-24.22
-16.76
-8.91
-0.42
8.98
19.42
30.89
43.22
56.15
69.49
83.21
97.36
112.01
127.13
142.56
158.02
173.18
187.69
201.14
213.06
222.81
229.63
232.76
231.59
225.79
215.40
200.82
182.66
161.67
138.71
114.74
90.86
68.26
48.04
30.95
17.36
7.20
0.15
-4.14
-5.98
-5.76
-4.17
-2.26
-1.36
-2.77
-7.30
-15.08
-25.41
-37.13
-48.96
-59.90
-69.52
-78.08
-86.37
-95.47
-106.36
-119.55
-134.84
-151.36
-167.87
-183.23
-196.83
-208.95
-220.51
-232.58
-245.72
-259.55
-272.87
-284.22
-292.64
-298.09
-301.52
-304.47
-308.60
-315.51
-326.71
-343.49
-366.39
-394.30
-423.73
-449.04
-463.83
-463.05
-444.90
-411.34
-367.00
-317.09
-265.49
-214.13
-163.66
-114.85
-69.57
-30.44
0.32
22.19
36.84
47.36
56.88
67.21
78.46
89.48
98.90
106.01
111.02
114.75
117.90
120.68
122.65
123.14
121.62
118.08
113.08
107.50
102.17
97.60
93.81
90.49
87.17
83.51
79.36
74.82
70.09
65.40
60.91
56.71
52.82
49.11
45.44
41.60
37.54
33.33
29.20
25.42
22.21
19.57
17.41
15.58
14.02
12.83
12.19
12.24
12.94
14.05
15.20
16.05
16.46
16.47
16.29
16.11
16.03
15.98
15.82
15.43
14.85
14.22
13.69
13.33
13.09
12.81
12.38
11.79
11.12
10.53
10.06
9.69
9.32
8.81
8.13
7.27
6.27
5.15
3.93
2.64
1.30
-0.05
-1.30
-2.33
-2.95
-2.95
-2.19
-0.69
1.38
3.70
5.93
7.85
9.41
10.70
11.93
13.24
14.76
16.49
18.40
20.40
22.33
23.96
24.98
25.14
24.28
22.35
19.47
15.88
11.87
7.80
3.99
0.67
-2.07
-4.32
-6.28
-8.12
-9.91
-11.56
-12.95
-14.04
-14.93
-15.85
-16.95
-18.12
-19.00
-19.06
-17.86
-15.30
-11.65
-7.42
-3.14
0.84
4.38
7.42
9.93
11.83
13.09
13.83
14.40
15.21
16.51
18.20
19.73
20.42
19.80
17.96
15.56
13.53
12.58
12.94
14.17
15.57
16.53
16.83
16.71
16.61
16.82
17.30
17.63
17.30
15.98
13.75
11.09
8.71
7.30
7.21
8.42
10.55
13.10
15.62
17.87
19.83
21.61
23.29
24.81
25.90
26.21
25.41
23.49
20.82
18.09
16.07
15.22
15.49
16.32
16.91
16.59
15.11
12.65
9.60
6.37
3.16
0.05
-2.95
-5.75
-8.30
-10.60
-12.87
-15.37
-18.28
-21.45
-24.39
-26.40
-26.82
-25.26
-21.83
-17.00
-11.51
-6.07
-1.14
3.22
7.32
11.70
16.89
23.16
30.39
38.11
45.62
52.21
57.36
60.85
62.73
63.20
62.50
60.79
58.18
54.79
50.79
46.42
41.93
37.54
33.37
29.47
25.85
22.49
19.33
16.26
13.06
9.50
5.44
0.95
-3.68
-7.97
-11.37
-13.43
-13.81
-12.51
-9.80
-6.27
-2.68
0.32
2.38
3.56
4.20
4.67
5.11
5.35
5.01
3.81
1.78
-0.78
-3.41
-5.75
-7.69
-9.40
-11.15
-13.18
-15.58
-18.26
-21.07
-23.81
-26.29
-28.39
-30.03
-31.16
-31.74
-31.68
-30.84
-29.03
-26.03
-21.72
-16.04
-9.09
-1.01
7.95
17.46
27.04
36.12
44.07
50.38
54.79
57.36
58.36
58.11
56.89
54.87
52.20
49.05
45.69
42.36
39.24
36.36
33.62
30.88
28.08
25.20
22.33
19.56
16.94
14.43
11.90
9.08
5.70
1.58
-3.25
-8.42
-13.35
-17.41
-20.11
-21.18
-20.56
-18.39
-15.03
-11.02
-7.13
-4.11
-2.45
-2.18
-2.89
-3.92
-4.79
-5.42
-6.11
-7.37
-9.55
-12.63
-16.31
-20.10
-23.55
-26.38
-28.49
-29.91
-30.71
-30.92
-30.49
-29.32
-27.34
-24.65
-21.49
-18.19
-14.95
-11.60
-7.71
-2.74
3.50
10.71
18.09
24.78
30.28
34.66
38.42
42.04
45.60
48.67
50.59
50.94
49.76
47.57
45.03
42.54
40.12
37.48
34.28
30.50
26.40
22.49
19.20
16.73
14.89
13.29
11.44
9.05
6.07
2.79
-0.32
-2.83
-4.55
-5.66
-6.62
-7.93
-9.85
-12.20
-14.52
-16.30
-17.26
-17.48
-17.28
-17.01
-16.90
-17.02
-17.38
-17.99
-18.93
-20.21
-21.75
-23.39
-24.97
-26.50
-28.10
-29.85
-31.74
-33.53
-34.90
-35.62
-35.57
-34.80
-33.38
-31.34
-28.65
-25.21
-20.91
-15.64
-9.24
-1.69
6.82
15.75
24.21
31.23
36.03
38.34
38.44
37.04
34.94
32.82
31.01
29.59
28.51
27.65
26.98
26.44
26.00
25.59
25.09
24.37
23.30
21.85
20.04
17.99
15.88
13.82
11.83
9.82
7.61
5.07
2.22
-0.71
-3.35
-5.29
-6.28
-6.40
-5.93
-5.26
-4.68
-4.27
-3.94
-3.66
-3.58
-4.07
-5.60
-8.44
-12.45
-17.14
-21.78
-25.68
-28.43
-29.89
-30.22
-29.72
-28.74
-27.64
-26.63
-25.64
-24.35
-22.28
-19.09
-14.76
-9.68
-4.49
0.29
4.37
7.87
11.14
14.69
19.00
24.34
30.82
38.29
46.32
54.35
61.74
68.03
73.19
77.74
82.52
88.25
94.99
101.96
107.66
110.51
109.57
104.99
97.82
89.38
80.54
71.48
61.92
51.68
40.90
30.13
20.07
11.13
3.20
-4.02
-10.55
-15.63
-17.87
-15.67
-7.79
6.40
26.17
48.80
69.44
81.83
79.91
58.91
17.10
-42.61
-112.12
-179.21
-231.69
-261.75
-268.38
-256.42
-234.06
-209.45
-188.20
-172.82
-163.45
-159.31
-159.36
-161.61
-161.93
-154.28
-134.99
-106.39
-73.84
-40.51
-6.11
31.98
73.01
116.44
161.00
205.22
248.47
282.00
299.01
297.64
281.56
257.43
231.30
205.62
179.01
148.07
115.84
80.59
43.84
9.18
-19.89
-41.35
-55.71
-65.61
-74.38
-84.25
-95.42
-105.86
-113.56
-117.93
-119.67
-120.31
-121.12
-122.36
-123.31
-122.88
-119.72
-113.76
-106.22
-98.70
-92.35
-87.35
-82.90
-77.71
-70.85
-61.67
-50.64
-38.94
-27.71
-17.51
-7.98
1.89
13.23
26.64
42.04
57.31
69.24
75.00
73.65
66.57
56.58
46.97
40.65
39.71
44.73
54.57
66.13
75.01
76.82
68.84
51.16
26.85
0.67
-22.91
-40.76
-51.96
-57.23
-57.89
-55.17
-49.99
-43.38
-36.88
-32.57
-31.73
-34.51
-39.40
-44.05
-46.18
-44.86
-40.86
-36.44
-35.08
-38.55
-47.75
-61.92
-78.40
-92.73
-99.63
-94.66
-74.90
-43.81
-7.87
25.13
49.26
62.68
67.73
68.93
70.15
72.60
74.73
74.38
70.28
63.31
56.09
51.62
51.97
57.64
67.35
77.85
84.91
83.72
70.50
44.31
8.16
-31.36
-66.10
-89.13
-97.80
-92.88
-78.37
-59.32
-39.78
-22.00
-6.83
5.46
14.57
20.04
22.13
21.75
20.23
18.80
17.99
17.15
15.11
11.18
5.83
0.78
-2.00
-1.89
0.04
1.63
0.88
-2.94
-9.03
-15.87
-22.17
-27.58
-32.50
-36.94
-40.30
-41.46
-39.63
-35.25
-30.10
-26.83
-28.08
-35.52
-48.80
-64.82
-78.54
-84.20
-77.49
-57.57
-27.96
4.71
32.20
49.34
55.55
54.28
50.82
49.44
51.65
56.09
60.10
60.79
57.02
49.30
39.18
28.53
18.81
10.74
4.06
-1.71
-6.98
-11.43
-14.42
-15.35
-13.98
-10.56
-5.46
1.13
9.18
18.33
27.47
34.60
37.64
35.51
28.66
18.80
7.97
-2.34
-11.65
-19.98
-27.21
-32.65
-35.14
-34.00
-29.60
-23.49
-17.54
-13.19
-10.76
-9.60
-8.94
-8.67
-9.83
-13.79
-21.11
-30.20
-37.81
-40.47
-36.28
-26.09
-12.98
-0.96
7.11
10.48
11.06
11.64
14.40
20.26
27.98
36.58
45.61
55.32
63.42
67.82
66.74
59.45
46.73
30.53
13.51
-1.77
-12.57
-18.85
-20.45
-17.51
-10.67
-1.12
9.53
19.68
26.91
29.59
26.91
19.75
10.07
0.51
-6.47
-9.12
-7.01
-1.26
5.45
9.73
9.21
3.22
-7.20
-19.92
-32.64
-43.98
-53.71
-62.00
-69.47
-77.90
-89.97
-106.82
-125.81
-139.86
-143.26
-129.90
-97.15
-47.38
12.41
72.89
125.87
163.53
182.17
183.18
170.97
151.70
131.94
117.09
110.52
112.96
122.64
135.90
147.88
151.86
136.92
99.07
45.11
-10.70
-56.00
-85.38
-100.01
-103.92
-106.27
-111.24
-120.51
-134.31
-152.53
-175.45
-202.59
-232.12
-246.74
-235.02
-193.82
-130.70
-58.49
10.76
68.17
112.83
144.11
161.96
164.30
150.97
119.35
69.74
11.80
-41.79
-82.55
-109.28
-123.37
-130.24
-127.82
-111.91
-79.32
-30.71
28.07
89.12
142.10
181.02
204.89
218.16
225.83
231.00
233.02
227.54
209.82
178.29
137.35
94.93
59.84
37.29
28.10
29.43
36.40
44.58
51.60
57.96
65.19
74.55
84.85
92.96
94.88
87.25
68.79
41.04
7.92
-26.34
-59.23
-91.21
-124.63
-161.63
-202.11
-242.90
-278.39
-302.36
-310.12
-299.54
-271.07
-226.80
-169.67
-103.63
-34.33
30.59
82.72
115.19
125.19
115.08
91.44
62.39
34.56
11.54
-5.88
-18.12
-25.48
-27.71
-25.03
-19.36
-14.72
-16.23
-27.89
-50.59
-81.31
-114.07
-142.17
-160.71
-168.07
-165.89
-157.75
-147.13
-135.71
-122.56
-104.47
-77.32
-37.81
14.82
77.61
143.85
204.25
249.01
270.27
264.02
231.00
176.69
110.23
42.77
-14.62
-53.33
-69.24
-63.70
-42.72
-14.80
12.11
32.87
45.92
52.44
55.03
56.40
58.98
64.52
73.42
83.67
90.44
87.15
68.26
32.57
-15.04
-64.71
-105.59
-130.72
-139.92
-139.15
-136.78
-138.73
-145.66
-153.30
-155.78
-149.40
-134.84
-116.24
-98.35
-83.57
-70.84
-57.38
-41.56
-24.79
-10.95
-3.50
-2.60
-4.76
-5.22
-1.71
3.17
3.11
-7.73
-30.25
-58.39
-81.32
-88.39
-74.10
-40.26
5.43
53.05
94.21
123.85
