1660930071.00
64.000000
-0.00
-0.00
-0.00
-0.00
-0.00
-0.00
-0.00
-0.00
-0.00
-0.00
0.00
0.01
0.01
-0.00
-0.03
-0.05
-0.05
0.00
0.13
0.36
0.66
1.01
1.37
1.72
2.06
2.40
2.79
3.25
3.81
4.43
5.09
5.73
6.33
6.92
7.55
8.28
9.12
10.17
11.32
12.46
13.52
14.45
15.35
16.38
17.74
19.54
21.98
24.84
27.87
30.80
33.52
36.15
39.02
42.52
46.91
52.49
58.90
65.64
72.23
78.46
84.50
90.85
98.13
106.70
116.90
128.15
139.72
150.95
161.58
171.88
182.55
194.73
206.75
220.48
236.33
254.49
274.15
292.95
306.99
311.73
303.50
280.81
245.40
200.75
151.31
100.80
51.51
4.26
-40.87
-83.90
-124.73
-163.15
-199.90
-236.26
-273.47
-311.68
-349.12
-382.08
-405.88
-416.72
-413.08
-396.53
-371.17
-341.94
-312.94
-286.27
-262.14
-239.74
-218.31
-197.63
-178.13
-160.29
-144.17
-129.32
-115.11
-101.09
-87.22
-73.91
-61.73
-51.12
-42.21
-34.72
-28.11
-21.80
-15.47
-9.11
-3.03
2.34
6.65
9.88
12.29
14.33
16.44
18.75
21.14
23.29
24.85
25.67
25.80
25.47
24.97
24.54
24.28
24.18
24.15
24.09
23.91
23.58
23.08
22.40
21.57
20.62
19.61
18.65
17.82
17.21
16.84
16.63
16.47
16.25
15.89
15.39
14.78
14.11
13.45
12.85
12.36
12.00
11.77
11.62
11.53
11.44
11.34
11.22
11.07
10.89
10.67
10.40
10.09
9.73
9.36
9.00
8.68
8.41
8.20
8.03
7.89
7.74
7.56
7.36
7.17
6.99
6.79
6.52
6.14
5.66
5.13
4.63
4.26
4.04
3.94
3.88
3.77
3.57
3.25
2.83
2.32
1.77
1.21
0.71
0.29
-0.06
-0.39
-0.76
-1.23
-1.81
-2.45
-3.11
-3.72
-4.29
-4.86
-5.48
-6.17
-6.87
-7.48
-7.89
-8.07
-8.02
-7.81
-7.54
-7.29
-7.08
-6.92
-6.77
-6.60
-6.38
-6.08
-5.69
-5.20
-4.62
-3.98
-3.32
-2.70
-2.19
-1.79
-1.50
-1.29
-1.09
-0.87
-0.58
-0.22
0.18
0.57
0.89
1.11
1.28
1.46
1.72
2.07
2.47
2.84
3.11
3.24
3.30
3.33
3.39
3.45
3.47
3.41
3.29
3.17
3.12
3.13
3.17
3.20
3.17
3.10
3.05
3.04
3.11
3.26
3.45
3.67
3.89
4.07
4.14
4.08
3.87
3.59
3.36
3.31
3.47
3.76
4.02
4.09
3.90
3.51
3.07
2.72
2.55
2.53
2.57
2.58
2.50
2.32
2.07
1.77
1.46
1.20
1.04
1.04
1.23
1.57
1.97
2.29
2.43
2.38
2.20
1.99
1.82
1.73
1.73
1.80
1.93
2.13
2.41
2.71
2.91
2.88
2.56
2.01
1.42
0.98
0.84
0.97
1.25
1.52
1.71
1.83
1.98
2.18
2.39
2.48
2.32
1.88
1.27
0.69
0.32
0.24
0.39
0.66
0.92
1.12
1.26
1.38
1.49
1.57
1.58
1.49
1.32
1.10
0.90
0.73
0.58
0.38
0.12
-0.22
-0.55
-0.78
-0.86
-0.76
-0.54
-0.29
-0.07
0.10
0.27
0.49
0.78
1.14
1.49
1.79
2.00
2.11
2.12
2.04
1.85
1.56
1.15
0.67
0.15
-0.34
-0.74
-0.99
-1.05
-0.90
-0.57
-0.19
0.13
0.28
0.24
0.12
0.09
0.28
0.72
1.28
1.77
1.98
1.86
1.46
0.97
0.53
0.23
0.05
-0.05
-0.11
-0.10
0.04
0.32
0.65
0.88
0.87
0.56
0.04
-0.49
-0.80
-0.76
-0.38
0.20
0.79
1.27
1.60
1.79
1.86
1.80
1.53
1.03
0.39
-0.27
-0.78
-1.04
-1.08
-0.99
-0.86
-0.71
-0.49
-0.12
0.41
0.96
1.38
1.49
1.28
0.86
0.44
0.19
0.16
0.26
0.35
0.33
0.23
0.16
0.23
0.49
0.87
1.20
1.38
1.35
1.17
0.97
0.84
0.83
0.95
1.15
1.36
1.52
1.57
1.46
1.17
0.74
0.25
-0.24
-0.69
-1.11
-1.57
-2.13
-2.82
-3.59
-4.33
-4.95
-5.37
-5.59
-5.67
-5.70
-5.77
-5.95
-6.27
-6.73
-7.33
-8.05
-8.85
-9.70
-10.58
-11.53
-12.63
-14.01
-15.78
-17.99
-20.53
-23.23
-25.89
-28.39
-30.77
-33.22
-35.99
-39.30
-43.24
-47.71
-52.51
-57.39
-62.18
-66.89
-71.72
-76.99
-82.99
-89.83
-97.40
-105.31
-113.10
-120.44
-127.24
-133.75
-140.45
-147.96
-156.65
-166.34
-175.79
-182.62
-183.67
-175.77
-156.66
-125.74
-84.36
-35.60
16.27
66.54
110.75
145.40
168.52
180.02
181.63
176.27
167.23
157.22
147.87
139.75
132.80
126.76
121.34
116.27
111.19
105.68
99.47
92.68
85.81
79.67
74.95
71.96
70.48
69.82
69.16
67.78
65.32
61.76
57.38
52.56
47.64
42.94
38.64
34.81
31.41
28.35
25.51
22.87
20.49
18.48
16.90
15.73
14.79
13.86
12.76
11.43
10.00
8.72
7.87
7.58
7.81
8.32
8.81
9.06
9.04
8.88
8.84
9.14
9.90
11.10
12.67
14.50
16.50
18.62
20.80
22.98
25.16
27.42
29.89
32.78
36.23
40.22
44.62
49.19
53.73
58.22
62.85
67.91
73.71
80.33
87.58
95.09
102.43
109.27
115.52
121.29
126.85
132.63
139.32
147.60
157.70
168.85
178.81
184.11
180.99
166.65
140.09
102.43
56.33
5.26
-47.08
-96.95
-140.64
-174.81
-197.17
-207.25
-206.70
-198.79
-187.29
-175.18
-164.05
-154.19
-145.20
-136.62
-128.31
-120.32
-112.70
-105.34
-98.04
-90.65
-83.19
-75.91
-69.13
-63.11
-57.92
-53.33
-48.98
-44.51
-39.72
-34.70
-29.73
-25.21
-21.39
-18.31
-15.79
-13.46
-11.02
-8.29
-5.35
-2.48
-0.03
1.75
2.86
3.53
4.18
5.22
6.86
9.02
11.37
13.53
15.22
16.36
17.12
17.75
18.53
19.63
21.23
23.43
26.16
28.91
30.66
30.09
26.14
18.54
8.20
-3.08
-13.29
-20.96
-25.68
-27.96
-28.70
-28.65
-28.06
-26.82
-24.85
-22.33
-19.75
-17.69
-16.46
-16.02
-15.99
-15.93
-15.51
-14.67
-13.60
-12.58
-11.82
-11.37
-11.10
-10.83
-10.40
-9.75
-8.93
-7.92
-6.54
-4.51
-1.52
2.48
7.16
11.77
15.36
17.16
16.86
14.73
11.52
8.09
5.08
2.82
1.28
0.32
-0.19
-0.36
-0.28
-0.14
-0.15
-0.50
-1.23
-2.19
-3.12
-3.80
-4.12
-4.12
-3.95
-3.73
-3.58
-3.50
-3.50
-3.53
-3.54
-3.46
-3.22
-2.82
-2.30
-1.75
-1.30
-1.03
-0.97
-1.08
-1.26
-1.45
-1.58
-1.67
-1.71
-1.73
-1.70
-1.58
-1.33
-1.00
-0.65
-0.40
-0.34
-0.49
-0.78
-1.08
-1.27
-1.30
-1.17
-0.95
-0.71
-0.46
-0.22
-0.03
0.04
-0.07
-0.38
-0.83
-1.26
-1.50
-1.44
-1.09
-0.59
-0.13
0.18
0.33
0.40
0.50
0.72
1.03
1.37
1.65
1.83
1.88
1.82
1.67
1.46
1.18
0.81
0.36
-0.16
-0.67
-1.07
-1.26
-1.20
-0.93
-0.57
-0.26
-0.13
-0.19
-0.40
-0.66
-0.87
-1.02
-1.11
-1.17
-1.23
-1.25
-1.16
-0.91
-0.52
-0.06
0.37
0.68
0.87
1.01
1.20
1.48
1.82
2.19
2.51
2.75
2.93
3.02
3.01
2.85
2.54
2.13
1.69
1.29
0.97
0.72
0.49
0.27
0.08
-0.05
-0.09
-0.07
-0.06
-0.14
-0.38
-0.81
-1.37
-1.98
-2.50
-2.78
-2.74
-2.38
-1.87
-1.43
-1.27
-1.49
-2.00
-2.56
-2.90
-2.84
-2.36
-1.63
-0.86
-0.23
0.21
0.51
0.78
1.10
1.50
1.92
2.31
2.58
2.68
2.57
2.25
1.75
1.14
0.50
-0.06
-0.50
-0.79
-0.97
-1.11
-1.27
-1.45
-1.65
-1.86
-2.08
-2.34
-2.62
-2.88
-3.06
-3.06
-2.84
-2.45
-1.95
-1.46
-1.03
-0.69
-0.42
-0.16
0.19
0.72
1.50
2.56
3.76
4.89
5.70
6.01
5.84
5.36
4.79
4.30
3.89
3.47
2.90
2.14
1.25
0.36
-0.43
-1.03
-1.43
-1.61
-1.62
-1.47
-1.27
-1.11
-1.09
-1.24
-1.53
-1.87
-2.14
-2.27
-2.25
-2.12
-1.94
-1.77
-1.63
-1.54
-1.49
-1.45
-1.38
-1.27
-1.09
-0.87
-0.65
-0.47
-0.38
-0.37
-0.40
-0.41
-0.34
-0.19
0.03
0.22
0.30
0.23
0.05
-0.17
-0.31
-0.28
-0.10
0.16
0.41
0.56
0.56
0.46
0.32
0.20
0.11
0.03
-0.05
-0.08
-0.01
0.19
0.54
1.00
1.50
2.02
2.58
3.18
3.76
4.19
4.32
4.07
3.48
2.71
1.95
1.30
0.76
0.26
-0.20
-0.57
-0.76
-0.71
-0.53
-0.38
-0.43
-0.77
-1.33
-1.98
-2.57
-3.00
-3.22
-3.20
-2.95
-2.52
-2.03
-1.63
-1.46
-1.54
-1.76
-1.88
-1.74
-1.26
-0.56
0.17
0.74
1.08
1.21
1.24
1.24
1.22
1.11
0.85
0.42
-0.07
-0.48
-0.67
-0.59
-0.33
-0.07
0.03
-0.14
-0.54
-1.04
-1.45
-1.64
-1.57
-1.30
-0.95
-0.67
-0.53
-0.56
-0.72
-0.90
-0.98
-0.86
-0.51
0.02
0.65
1.29
1.90
2.50
3.10
3.67
4.11
4.30
4.17
3.77
3.22
2.68
2.23
1.83
1.38
0.83
0.17
-0.49
-1.03
-1.34
-1.41
-1.33
-1.23
-1.21
-1.34
-1.59
-1.85
-2.02
-2.03
-1.89
-1.67
-1.46
-1.31
-1.25
-1.25
-1.27
-1.25
-1.18
-1.04
-0.85
-0.70
-0.64
-0.72
-0.95
-1.22
-1.43
-1.48
-1.37
-1.20
-1.10
-1.16
-1.39
-1.68
-1.87
-1.85
-1.57
-1.14
-0.70
-0.40
-0.33
-0.43
-0.62
-0.72
-0.64
-0.29
0.29
1.04
1.84
2.61
3.23
3.64
3.80
3.71
3.44
3.11
2.83
2.71
2.80
3.08
3.45
3.77
3.90
3.73
3.24
2.51
1.65
0.79
-0.00
-0.69
-1.25
-1.69
-1.99
-2.14
-2.16
-2.11
-2.01
-1.92
-1.82
-1.72
-1.60
-1.50
-1.48
-1.56
-1.74
-1.96
-2.15
-2.26
-2.27
-2.20
-2.12
-2.08
-2.09
-2.11
-2.11
-2.03
-1.89
-1.71
-1.56
-1.48
-1.43
-1.33
-1.11
-0.76
-0.35
0.03
0.28
0.38
0.42
0.49
0.67
0.93
1.23
1.50
1.74
1.98
2.27
2.60
2.89
3.03
2.96
2.69
2.31
1.92
1.56
1.23
0.93
0.67
0.49
0.46
0.62
0.94
1.30
1.59
1.66
1.49
1.10
0.58
0.08
-0.27
-0.38
-0.26
-0.00
0.25
0.38
0.33
0.15
-0.05
-0.16
-0.15
-0.07
-0.01
-0.08
-0.32
-0.68
-1.08
-1.40
-1.57
-1.59
-1.48
-1.30
-1.08
-0.84
-0.59
-0.35
-0.14
0.00
0.07
0.09
0.08
0.07
0.07
0.07
0.08
0.08
0.11
0.17
0.27
0.37
0.45
0.49
0.48
0.44
0.43
0.47
0.58
0.73
0.87
0.93
0.89
0.77
0.61
0.49
0.43
0.43
0.46
0.47
0.44
0.38
0.30
0.22
0.14
0.05
-0.03
-0.07
-0.00
0.20
0.55
0.99
1.46
1.89
2.23
2.42
2.42
2.19
1.74
1.16
0.59
0.21
0.12
0.30
0.66
1.03
1.29
1.38
1.34
1.19
0.96
0.66
0.27
-0.19
-0.65
-1.05
-1.32
-1.46
-1.50
-1.51
-1.55
-1.66
-1.77
-1.81
-1.70
-1.38
-0.92
-0.41
0.01
0.25
0.32
0.30
0.28
0.29
0.34
0.37
0.33
0.24
0.14
0.09
0.08
0.09
0.04
-0.09
-0.30
-0.53
-0.70
-0.79
-0.82
-0.87
-1.01
-1.26
-1.55
-1.80
-1.88
-1.78
-1.51
-1.20
-0.95
-0.78
-0.66
-0.50
-0.26
0.06
0.37
0.57
0.58
0.40
0.09
-0.26
-0.55
-0.72
-0.73
-0.61
-0.40
-0.14
0.11
0.31
0.43
0.47
0.43
0.30
0.10
-0.14
-0.31
-0.35
-0.23
0.03
0.33
0.55
0.65
0.62
0.53
0.45
0.45
0.51
0.57
0.60
0.58
0.53
0.49
0.47
0.47
0.42
0.28
0.02
-0.32
-0.66
-0.93
-1.08
-1.08
-1.00
-0.87
-0.75
-0.64
-0.52
-0.35
-0.12
0.13
0.34
0.41
0.31
0.06
-0.21
-0.38
-0.32
-0.05
0.33
0.64
0.74
0.61
0.33
0.03
-0.19
-0.28
-0.29
-0.30
-0.33
-0.35
-0.30
-0.15
0.09
0.35
0.53
0.58
0.48
0.30
0.12
-0.01
-0.09
-0.17
-0.30
-0.51
-0.77
-0.97
-1.00
-0.84
-0.54
-0.23
-0.04
-0.01
-0.06
-0.09
0.00
0.21
0.43
0.57
0.55
0.39
0.16
-0.06
-0.21
-0.27
-0.23
-0.08
0.14
0.40
0.60
0.69
0.65
0.51
0.37
0.28
0.26
0.27
0.24
0.11
-0.12
-0.42
-0.72
-0.97
-1.13
-1.18
-1.08
-0.87
-0.54
-0.18
0.17
0.42
0.55
0.54
0.42
0.27
0.19
0.24
0.45
0.73
0.98
1.05
0.92
0.62
0.29
0.03
-0.09
-0.09
-0.03
0.05
0.15
0.28
0.43
0.55
0.56
0.37
0.00
-0.47
-0.92
-1.22
-1.30
-1.16
-0.89
-0.61
-0.39
-0.29
-0.29
-0.31
-0.28
-0.17
0.02
0.25
0.45
0.59
0.65
0.63
0.55
0.41
0.23
0.04
-0.09
-0.13
-0.07
0.07
0.23
0.36
0.41
0.38
0.30
0.18
0.08
-0.00
-0.02
0.02
0.10
0.16
0.17
0.10
-0.06
-0.25
-0.38
-0.41
-0.30
-0.11
0.10
0.22
0.21
0.10
-0.04
-0.13
-0.12
-0.02
0.11
0.20
0.23
0.20
0.14
0.07
-0.03
-0.18
-0.38
-0.59
-0.73
-0.74
-0.58
-0.31
0.01
0.30
0.48
0.54
0.49
0.40
0.36
0.44
0.64
0.91
1.12
1.17
1.00
0.67
0.31
0.04
-0.11
-0.16
-0.25
-0.43
-0.70
-0.98
-1.15
-1.19
-1.13
-1.05
-1.03
-1.06
-1.08
-1.01
-0.80
-0.49
-0.12
0.21
0.46
0.60
0.64
0.59
0.45
0.27
0.10
0.04
0.14
0.37
0.66
0.85
0.87
0.68
0.38
0.13
0.02
0.12
0.33
0.55
0.66
0.59
0.38
0.11
-0.12
-0.24
-0.29
-0.30
-0.36
-0.48
-0.65
-0.80
-0.86
-0.81
-0.66
-0.47
-0.28
-0.14
-0.02
0.07
0.15
0.20
0.18
0.07
-0.13
-0.33
-0.47
-0.47
-0.34
-0.13
0.06
0.14
0.07
-0.09
-0.24
-0.28
-0.17
0.08
0.39
0.70
0.95
1.13
1.23
1.24
1.15
0.94
0.65
0.35
0.14
0.09
0.22
0.44
0.63
0.68
0.51
0.14
-0.34
-0.80
-1.11
-1.17
-0.97
-0.56
-0.03
0.46
0.80
0.89
0.74
0.40
-0.05
-0.53
-0.98
-1.36
-1.63
-1.69
-1.50
-1.10
-0.62
-0.23
-0.08
-0.20
-0.48
-0.71
-0.72
-0.45
0.03
0.51
0.84
0.93
0.82
0.61
0.38
0.17
-0.00
-0.13
-0.19
-0.13
0.06
0.33
0.57
0.65
0.51
0.20
-0.15
-0.40
-0.45
-0.32
-0.08
0.19
0.43
0.60
0.70
0.72
0.66
0.54
0.35
0.13
-0.09
-0.28
-0.40
-0.43
-0.35
-0.21
-0.09
-0.04
-0.10
-0.25
-0.41
-0.53
-0.59
-0.61
-0.66
-0.76
-0.92
-1.12
-1.30
-1.48
-1.67
-1.95
-2.36
-2.91
-3.58
-4.27
-4.86
-5.29
-5.56
-5.77
-6.04
-6.49
-7.16
-7.96
-8.78
-9.52
-10.15
-10.73
-11.37
-12.18
-13.21
-14.48
-15.91
-17.46
-19.07
-20.73
-22.44
-24.23
-26.12
-28.18
-30.58
-33.54
-37.22
-41.53
-45.99
-49.80
-52.16
-52.74
-51.92
-50.77
-50.64
-52.61
-57.02
-63.42
-70.85
-78.35
-85.28
-91.44
-96.89
-101.69
-105.92
-109.78
-113.86
-119.10
-126.33
-135.46
-144.87
-151.35
-150.88
-140.00
-117.07
-82.62
-38.84
11.57
66.14
122.66
178.55
230.34
273.97
305.86
324.33
330.39
327.34
319.41
310.43
303.00
298.47
297.16
298.45
300.53
300.26
293.63
276.80
247.38
205.21
152.48
93.19
32.44
-24.33
-72.13
-107.27
-128.17
-135.81
-133.45
-125.51
-116.07
-107.65
-100.93
-95.29
-89.90
-84.37
-78.98
-74.37
-71.01
-69.03
-68.24
-68.40
-69.30
-70.76
-72.54
-74.18
-75.10
-74.70
-72.64
-69.01
-64.34
-59.41
-54.99
-51.52
-49.03
-47.21
-45.63
-43.99
-42.22
-40.44
-38.81
-37.38
-36.06
-34.71
-33.32
-32.02
-31.08
-30.66
-30.70
-30.91
-30.87
-30.26
-28.97
-27.13
-25.07
-23.22
-21.98
-21.61
-22.13
-23.25
-24.40
-24.98
-24.61
-23.32
-21.57
-19.94
-18.79
-18.18
-17.97
-17.98
-17.89
-17.09
-14.47
-8.67
1.31
15.32
31.75
47.89
61.01
69.43
73.02
73.07
71.37
69.38
67.81
66.71
66.09
66.29
68.02
72.02
78.49
86.86
95.83
103.83
109.85
114.04
117.75
122.81
130.15
138.43
143.92
141.66
127.79
101.55
65.97
26.70
-10.24
-40.66
-63.13
-78.48
-88.35
-93.91
-95.51
-93.23
-87.67
-80.30
-73.06
-67.56
-64.34
-62.86
-61.91
-60.26
-57.21
-52.75
-47.52
-42.34
-37.95
-34.60
-32.13
-30.08
-27.95
-25.44
-22.57
-19.63
-17.00
-15.00
-13.75
-13.14
-12.89
-12.67
-12.23
-11.50
-10.56
-9.59
-8.74
-8.05
-7.49
-6.98
-6.42
-5.76
-4.98
-4.12
-3.23
-2.38
-1.63
-1.08
-0.80
-0.82
-1.07
-1.43
-1.75
-1.88
-1.77
-1.44
-1.00
-0.59
-0.27
-0.06
0.07
0.16
0.23
0.29
0.32
0.35
0.39
0.46
0.57
0.68
0.77
0.81
0.82
0.79
0.71
0.58
0.39
0.17
-0.01
-0.13
-0.20
-0.27
-0.39
-0.59
-0.83
-1.02
-1.11
-1.07
-0.97
-0.92
-0.97
-1.12
-1.32
-1.45
-1.43
-1.28
-1.05
-0.79
-0.56
-0.36
-0.19
-0.04
0.08
0.15
0.14
0.08
-0.04
-0.21
-0.41
-0.64
-0.83
-0.90
-0.76
-0.39
0.16
0.75
1.23
1.49
1.51
1.33
1.09
0.92
0.94
1.22
1.74
2.36
2.91
3.22
3.16
2.73
2.02
1.17
0.32
-0.40
-0.90
-1.15
-1.15
-0.95
-0.68
-0.45
-0.38
-0.50
-0.83
-1.31
-1.86
-2.39
-2.78
-2.91
-2.77
-2.41
-1.99
-1.69
-1.63
-1.81
-2.11
-2.38
-2.45
-2.25
-1.77
-1.08
-0.31
0.40
0.93
1.23
1.34
1.37
1.45
1.65
1.99
2.37
2.68
2.80
2.66
2.27
1.70
1.03
0.38
-0.16
-0.54
-0.73
-0.75
-0.64
-0.44
-0.23
-0.08
-0.05
-0.21
-0.52
-0.90
-1.21
-1.30
-1.14
-0.77
-0.32
0.05
0.25
0.25
0.11
-0.08
-0.22
-0.28
-0.26
-0.19
-0.11
-0.03
0.08
0.24
0.48
0.77
1.03
1.18
1.18
1.05
0.81
0.54
0.25
-0.04
-0.33
-0.60
-0.79
-0.84
-0.70
-0.44
-0.15
0.02
-0.02
-0.27
-0.66
-1.07
-1.37
-1.50
-1.44
-1.22
-0.93
-0.65
-0.41
-0.23
-0.06
0.15
0.43
0.72
0.94
1.00
0.89
0.69
0.55
0.56
0.75
1.00
1.14
1.05
0.71
0.25
-0.19
-0.47
-0.56
-0.50
-0.39
-0.27
-0.15
-0.01
0.18
0.40
0.59
0.68
0.60
0.35
-0.01
-0.38
-0.65
-0.76
-0.70
-0.52
-0.30
-0.11
0.03
0.09
0.10
0.05
-0.08
-0.32
-0.63
-0.91
-1.03
-0.89
-0.51
0.00
0.46
0.73
0.77
0.65
0.47
0.33
0.21
0.10
-0.03
-0.17
-0.27
-0.27
-0.17
-0.00
0.18
0.34
0.50
0.67
0.84
0.99
1.07
1.08
1.05
1.03
1.09
1.21
1.35
1.41
1.30
0.98
0.48
-0.09
-0.60
-0.94
-1.06
-1.01
-0.91
-0.87
-0.98
-1.21
-1.48
-1.66
-1.65
-1.46
-1.15
-0.84
-0.61
-0.47
-0.37
-0.25
-0.10
0.03
0.07
-0.04
-0.27
-0.50
-0.60
-0.46
-0.12
0.31
0.69
0.92
0.99
0.94
0.87
0.81
0.74
0.68
0.64
0.67
0.84
1.16
1.56
1.85
1.88
1.56
0.95
0.19
-0.49
-0.92
-1.05
-0.92
-0.66
-0.40
-0.24
-0.20
-0.30
-0.50
-0.77
-1.08
-1.40
-1.67
-1.86
-1.93
-1.86
-1.68
-1.42
-1.15
-0.92
-0.76
-0.69
-0.67
-0.65
-0.56
-0.36
-0.04
0.35
0.74
1.02
1.16
1.17
1.11
1.07
1.12
1.24
1.38
1.49
1.50
1.41
1.26
1.08
0.92
0.76
0.60
0.44
0.31
0.25
0.27
0.36
0.42
0.40
0.24
-0.03
-0.31
-0.51
-0.55
-0.42
-0.20
-0.01
0.05
-0.06
-0.29
-0.56
-0.76
-0.85
-0.81
-0.69
-0.55
-0.47
-0.44
-0.45
-0.43
-0.31
-0.09
0.21
0.50
0.68
0.68
0.51
0.25
-0.03
-0.27
-0.43
-0.54
-0.58
-0.50
-0.28
0.10
0.54
0.89
0.99
0.76
0.26
-0.35
-0.85
-1.09
-0.99
-0.64
-0.18
0.20
0.36
0.23
-0.11
-0.47
-0.67
-0.56
-0.15
0.41
0.90
1.11
0.92
0.36
-0.44
-1.24
-1.84
-2.08
-1.89
-1.34
-0.62
0.00
0.23
-0.16
-1.24
-2.86
-4.67
-6.24
-7.19
-7.33
-6.77
-5.78
-4.76
-4.01
-3.67
-3.69
-3.95
-4.37
-4.96
-5.76
-6.79
-7.97
-9.13
-10.05
-10.62
-10.82
-10.70
-10.35
-9.74
-8.76
-7.20
-4.94
-1.96
1.57
5.32
8.96
12.19
14.83
16.81
18.09
18.57
18.11
16.57
13.98
10.59
6.86
3.39
0.71
-0.90
-1.46
-1.23
-0.55
0.30
1.17
2.05
2.94
