1660322977.00
64.000000
-0.00
-0.00
-0.00
-0.00
-0.00
-0.00
-0.00
-0.00
-0.00
-0.00
0.00
0.01
0.01
-0.00
-0.03
-0.05
-0.05
0.00
0.13
0.36
0.66
1.01
1.37
1.72
2.06
2.40
2.79
3.24
3.80
4.42
5.06
5.67
6.20
6.68
7.14
7.67
8.31
9.17
10.14
11.10
11.91
12.49
12.89
13.29
13.96
15.06
16.87
19.18
21.71
24.12
26.20
28.02
29.92
32.36
35.71
40.38
45.99
51.97
57.63
62.56
66.79
70.86
75.56
81.56
89.45
98.68
108.29
117.17
124.57
130.46
135.61
141.63
147.53
155.76
166.84
180.54
195.19
207.50
213.02
207.36
187.69
153.74
108.25
54.98
-2.28
-61.06
-120.47
-180.44
-240.71
-300.21
-357.23
-409.75
-456.81
-498.16
-533.99
-564.27
-588.43
-605.33
-613.22
-609.94
-592.72
-559.10
-507.50
-438.38
-354.90
-262.71
-168.69
-79.13
1.57
71.48
130.33
178.62
216.77
245.02
263.80
274.14
277.75
276.63
272.52
266.43
258.74
249.31
237.98
224.82
210.28
195.16
180.30
166.39
153.76
142.30
131.65
121.37
111.18
101.03
91.05
81.42
72.22
63.28
54.29
44.95
35.16
25.25
15.96
8.24
2.85
0.09
-0.45
0.30
1.35
1.97
1.99
1.59
1.16
0.88
0.71
0.42
-0.18
-1.03
-1.90
-2.47
-2.62
-2.54
-2.64
-3.37
-4.92
-7.05
-9.21
-10.80
-11.41
-11.08
-10.20
-9.28
-8.69
-8.48
-8.40
-8.10
-7.35
-6.20
-4.93
-3.95
-3.53
-3.73
-4.28
-4.79
-4.89
-4.39
-3.38
-2.15
-1.03
-0.29
-0.00
-0.11
-0.40
-0.68
-0.79
-0.69
-0.47
-0.26
-0.21
-0.39
-0.79
-1.35
-1.98
-2.70
-3.50
-4.38
-5.19
-5.66
-5.50
-4.59
-3.02
-1.14
0.60
1.85
2.47
2.57
2.38
2.13
1.94
1.78
1.59
1.35
1.11
0.97
1.06
1.45
2.14
3.06
4.03
4.87
5.40
5.54
5.34
4.93
4.44
4.01
3.67
3.38
3.01
2.47
1.70
0.67
-0.58
-1.98
-3.37
-4.56
-5.36
-5.71
-5.66
-5.37
-5.07
-4.93
-5.02
-5.30
-5.63
-5.85
-5.80
-5.39
-4.65
-3.71
-2.79
-2.12
-1.80
-1.82
-2.00
-2.16
-2.16
-2.00
-1.77
-1.57
-1.46
-1.36
-1.24
-1.07
-0.92
-0.88
-0.95
-1.02
-0.91
-0.45
0.36
1.36
2.29
2.83
2.81
2.18
1.06
-0.33
-1.71
-2.83
-3.50
-3.67
-3.41
-2.81
-1.96
-0.88
0.45
2.03
3.75
5.44
6.84
7.62
7.58
6.75
5.31
3.54
1.71
-0.03
-1.66
-3.17
-4.55
-5.65
-6.26
-6.19
-5.38
-3.98
-2.27
-0.54
1.04
2.42
3.60
4.43
4.64
3.94
2.21
-0.28
-2.96
-5.13
-6.28
-6.29
-5.43
-4.14
-2.89
-1.90
-1.20
-0.70
-0.27
0.15
0.54
0.87
1.11
1.23
1.24
1.13
0.93
0.63
0.27
-0.11
-0.44
-0.68
-0.84
-1.03
-1.41
-2.12
-3.16
-4.38
-5.47
-6.09
-5.97
-5.05
-3.52
-1.72
-0.01
1.28
2.04
2.28
2.13
1.76
1.33
0.97
0.78
0.85
1.22
1.89
2.81
3.84
4.85
5.71
6.37
6.91
7.42
7.97
8.52
8.83
8.63
7.67
5.93
3.60
1.04
-1.39
-3.46
-5.11
-6.38
-7.28
-7.74
-7.65
-6.99
-5.84
-4.44
-3.06
-1.93
-1.18
-0.80
-0.74
-0.94
-1.32
-1.81
-2.32
-2.73
-2.93
-2.81
-2.33
-1.53
-0.47
0.72
1.87
2.81
3.38
3.45
3.02
2.19
1.17
0.18
-0.58
-1.07
-1.32
-1.39
-1.25
-0.82
0.01
1.25
2.76
4.21
5.28
5.69
5.36
4.37
2.91
1.18
-0.61
-2.26
-3.52
-4.20
-4.17
-3.42
-2.13
-0.58
0.89
2.01
2.62
2.65
2.17
1.27
0.14
-0.99
-1.86
-2.25
-2.08
-1.43
-0.53
0.31
0.89
1.13
1.12
1.04
1.04
1.18
1.44
1.75
2.02
2.19
2.20
2.05
1.75
1.36
0.93
0.51
0.14
-0.18
-0.42
-0.59
-0.71
-0.78
-0.80
-0.75
-0.60
-0.31
0.08
0.50
0.85
1.01
0.90
0.56
0.11
-0.27
-0.43
-0.31
0.04
0.50
0.90
1.11
1.09
0.89
0.56
0.17
-0.26
-0.70
-1.10
-1.38
-1.45
-1.28
-0.94
-0.59
-0.40
-0.44
-0.67
-0.95
-1.14
-1.18
-1.11
-1.05
-1.13
-1.35
-1.69
-2.04
-2.34
-2.56
-2.69
-2.71
-2.59
-2.30
-1.87
-1.38
-0.94
-0.64
-0.46
-0.33
-0.14
0.13
0.47
0.79
1.05
1.29
1.56
1.87
2.12
2.13
1.78
1.10
0.28
-0.35
-0.58
-0.42
-0.07
0.17
0.14
-0.11
-0.37
-0.40
-0.11
0.37
0.76
0.86
0.60
0.15
-0.25
-0.43
-0.37
-0.22
-0.16
-0.27
-0.48
-0.65
-0.63
-0.36
0.08
0.58
1.02
1.35
1.57
1.71
1.78
1.74
1.59
1.33
0.99
0.64
0.36
0.18
0.12
0.14
0.16
0.10
-0.08
-0.37
-0.71
-1.04
-1.29
-1.44
-1.46
-1.38
-1.20
-0.96
-0.72
-0.57
-0.57
-0.71
-0.90
-1.03
-1.00
-0.81
-0.50
-0.20
0.03
0.17
0.25
0.31
0.41
0.55
0.70
0.82
0.89
0.87
0.74
0.53
0.28
0.03
-0.18
-0.32
-0.38
-0.35
-0.24
-0.06
0.17
0.40
0.56
0.64
0.65
0.61
0.59
0.59
0.60
0.59
0.53
0.37
0.10
-0.27
-0.69
-1.07
-1.31
-1.33
-1.13
-0.78
-0.36
0.03
0.36
0.63
0.86
1.07
1.25
1.38
1.41
1.35
1.20
0.99
0.74
0.49
0.25
0.03
-0.19
-0.40
-0.61
-0.79
-0.90
-0.89
-0.77
-0.60
-0.43
-0.35
-0.39
-0.56
-0.81
-1.12
-1.41
-1.63
-1.75
-1.70
-1.50
-1.15
-0.71
-0.27
0.09
0.34
0.45
0.48
0.50
0.55
0.67
0.82
0.93
0.92
0.80
0.61
0.43
0.31
0.29
0.34
0.41
0.48
0.52
0.50
0.40
0.20
-0.09
-0.40
-0.62
-0.63
-0.43
-0.10
0.21
0.35
0.24
-0.07
-0.47
-0.83
-1.08
-1.22
-1.30
-1.34
-1.35
-1.27
-1.02
-0.58
0.02
0.68
1.23
1.56
1.60
1.42
1.12
0.83
0.67
0.65
0.74
0.87
0.99
1.08
1.11
1.08
0.97
0.79
0.60
0.46
0.46
0.59
0.78
0.88
0.74
0.33
-0.27
-0.89
-1.34
-1.56
-1.57
-1.49
-1.41
-1.39
-1.34
-1.19
-0.89
-0.47
-0.07
0.19
0.23
0.11
-0.05
-0.11
0.01
0.27
0.55
0.76
0.84
0.82
0.77
0.75
0.77
0.83
0.89
0.95
0.99
0.99
0.92
0.71
0.35
-0.07
-0.43
-0.60
-0.54
-0.29
0.02
0.26
0.37
0.34
0.21
0.05
-0.13
-0.30
-0.45
-0.57
-0.62
-0.62
-0.60
-0.63
-0.74
-0.94
-1.17
-1.34
-1.39
-1.27
-1.05
-0.78
-0.49
-0.20
0.10
0.44
0.76
0.98
1.01
0.85
0.59
0.40
0.42
0.68
1.07
1.39
1.45
1.20
0.71
0.16
-0.31
-0.62
-0.77
-0.81
-0.75
-0.62
-0.42
-0.21
-0.06
-0.03
-0.16
-0.42
-0.76
-1.06
-1.27
-1.35
-1.27
-1.08
-0.77
-0.40
-0.00
0.40
0.74
1.02
1.16
1.14
0.94
0.59
0.20
-0.11
-0.23
-0.14
0.09
0.31
0.40
0.29
0.05
-0.20
-0.35
-0.39
-0.37
-0.37
-0.45
-0.56
-0.62
-0.54
-0.31
0.02
0.34
0.57
0.63
0.52
0.26
-0.08
-0.43
-0.70
-0.83
-0.79
-0.61
-0.35
-0.08
0.10
0.18
0.15
0.05
-0.05
-0.11
-0.10
-0.05
0.02
0.06
0.07
0.09
0.15
0.29
0.48
0.65
0.73
0.68
0.49
0.22
-0.07
-0.29
-0.41
-0.43
-0.41
-0.41
-0.49
-0.65
-0.82
-0.91
-0.86
-0.67
-0.42
-0.21
-0.15
-0.24
-0.38
-0.45
-0.35
-0.12
0.09
0.14
-0.05
-0.46
-0.93
-1.27
-1.37
-1.23
-0.95
-0.62
-0.33
-0.08
0.12
0.25
0.23
0.01
-0.43
-1.01
-1.59
-2.02
-2.21
-2.21
-2.14
-2.11
-2.21
-2.38
-2.53
-2.56
-2.45
-2.23
-1.98
-1.74
-1.49
-1.20
-0.78
-0.22
0.46
1.19
1.94
2.68
3.39
4.09
4.75
5.31
5.72
5.96
5.99
5.83
5.45
4.90
4.19
3.41
2.66
2.01
1.48
1.05
0.62
0.13
-0.45
-1.03
-1.50
-1.76
-1.76
-1.55
-1.22
-0.89
-0.65
-0.53
-0.52
-0.55
-0.51
-0.35
-0.05
0.34
0.69
0.89
0.84
0.57
0.17
-0.23
-0.49
-0.54
-0.37
-0.02
0.42
0.83
1.09
1.10
0.83
0.34
-0.26
-0.83
-1.26
-1.48
-1.50
-1.36
-1.14
-0.89
-0.66
-0.46
-0.27
-0.08
0.13
0.39
0.67
0.98
1.27
1.50
1.67
1.77
1.80
1.78
1.71
1.58
1.36
1.04
0.60
0.06
-0.54
-1.09
-1.52
-1.76
-1.83
-1.85
-1.93
-2.11
-2.25
-2.06
-1.29
0.09
1.80
3.31
4.08
3.86
2.78
1.32
0.01
-0.78
-1.04
-0.95
-0.79
-0.69
-0.66
-0.59
-0.44
-0.26
-0.19
-0.30
-0.57
-0.84
-0.88
-0.53
0.27
1.41
2.67
3.78
4.49
4.62
4.09
2.92
1.26
-0.62
-2.35
-3.50
-3.74
-2.92
-1.21
0.97
3.01
4.40
4.84
4.37
3.27
1.88
0.48
-0.79
-1.89
-2.75
-3.23
-3.19
-2.60
-1.62
-0.55
0.26
0.62
0.55
0.24
-0.06
-0.18
-0.10
0.07
0.20
0.19
-0.00
-0.37
-0.88
-1.46
-2.01
-2.45
-2.69
-2.71
-2.57
-2.38
-2.21
-2.07
-1.86
-1.44
-0.69
0.37
1.59
2.74
3.54
3.82
3.57
2.88
1.97
1.06
0.32
-0.13
-0.29
-0.20
-0.00
0.12
-0.01
-0.50
-1.38
-2.53
-3.74
-4.80
-5.48
-5.67
-5.33
-4.52
-3.38
-2.15
-1.07
-0.40
-0.29
-0.75
-1.63
-2.67
-3.54
-3.99
-3.93
-3.45
-2.74
-2.07
-1.60
-1.36
-1.28
-1.20
-1.03
-0.74
-0.39
-0.05
0.23
0.45
0.61
0.70
0.72
0.65
0.53
0.43
0.44
0.61
0.94
1.31
1.59
1.67
1.48
1.05
0.47
-0.11
-0.53
-0.65
-0.41
0.14
0.82
1.42
1.74
1.67
1.28
0.71
0.14
-0.30
-0.58
-0.76
-0.91
-1.02
-1.07
-1.00
-0.79
-0.51
-0.26
-0.13
-0.13
-0.19
-0.22
-0.13
0.11
0.46
0.88
1.30
1.72
2.10
2.42
2.60
2.63
2.46
2.15
1.75
1.36
1.02
0.74
0.49
0.24
-0.02
-0.30
-0.55
-0.74
-0.81
-0.76
-0.60
-0.39
-0.23
-0.15
-0.17
-0.27
-0.38
-0.43
-0.38
-0.22
0.05
0.34
0.61
0.78
0.83
0.79
0.74
0.76
0.90
1.16
1.47
1.73
1.88
1.87
1.71
1.42
1.07
0.74
0.55
0.60
0.89
1.37
1.86
2.18
2.21
1.98
1.63
1.33
1.19
1.18
1.15
0.95
0.51
-0.08
-0.61
-0.83
-0.54
0.28
1.48
2.79
3.88
4.54
4.72
4.60
4.47
4.66
5.32
6.36
7.49
8.28
8.32
7.41
5.62
3.39
1.49
0.79
1.93
4.97
9.30
13.75
16.93
17.68
15.49
10.66
4.16
-2.76
-9.04
-13.96
-17.20
-18.73
-18.75
-17.65
-15.91
-14.06
-12.44
-11.17
-10.06
-8.76
-7.03
-5.16
-3.65
-2.80
-2.35
-1.54
0.38
3.56
7.40
10.87
12.90
13.57
14.32
17.29
23.96
34.10
45.74
56.05
62.58
63.39
58.11
47.93
34.95
21.22
7.97
-4.44
-16.14
-27.36
-39.11
-51.98
-65.77
-79.56
-92.41
-104.03
-114.67
-124.70
-127.98
-120.09
-100.65
-74.07
-46.36
-21.81
-2.46
11.20
19.54
23.60
24.01
21.91
18.70
15.75
13.68
12.06
9.97
7.08
4.17
1.71
0.99
2.82
7.39
14.23
22.41
30.91
38.86
45.14
48.14
46.86
41.25
32.43
22.41
13.26
6.37
2.18
0.29
-0.26
-0.36
-0.30
-0.05
0.41
0.97
1.38
1.54
1.39
1.05
0.73
0.55
0.50
0.41
0.09
-0.59
-1.58
-2.67
-3.53
-3.92
-3.77
-3.26
-2.66
-2.29
-2.30
-2.66
-3.21
-3.74
-4.03
-4.02
-3.74
-3.30
-2.82
-2.36
-2.00
-1.73
-1.53
-1.37
-1.17
-0.88
-0.48
0.01
0.50
0.90
1.11
1.07
0.85
0.54
0.26
0.03
-0.17
-0.38
-0.63
-0.90
-1.11
-1.18
-1.08
-0.85
-0.59
-0.44
-0.55
-1.02
-1.92
-3.26
-4.94
-6.79
-8.58
-10.08
-11.11
-11.52
-11.28
-10.42
-9.08
-7.54
-6.14
-5.30
-5.32
-6.29
-8.01
-10.05
-11.86
-12.97
-13.13
-12.43
-11.19
-9.83
-8.75
-8.20
-8.16
-8.46
-8.78
-8.86
-8.54
-7.87
-7.04
-6.33
-5.93
-5.88
-5.94
-5.70
-4.70
-2.57
0.83
5.31
10.43
15.50
19.75
22.44
23.08
21.64
18.62
14.91
11.53
9.22
8.24
8.34
9.01
9.80
10.55
11.40
12.55
14.05
15.73
17.23
18.23
18.60
18.53
18.37
18.46
18.96
19.68
20.22
20.09
19.00
16.93
14.14
10.97
7.63
4.15
0.47
-3.34
-7.00
-10.13
-12.45
-13.93
-14.79
-15.30
-15.60
-15.65
-15.36
-14.72
-13.90
-13.07
-12.17
-10.85
-8.60
-5.11
-0.62
4.10
7.91
9.88
9.58
7.25
3.62
-0.39
-3.93
-6.43
-7.59
-7.42
-6.18
-4.24
-2.00
0.26
2.43
4.54
6.69
8.91
11.09
12.99
14.32
14.88
14.65
13.78
12.52
11.14
9.82
8.70
7.83
7.27
7.13
7.57
8.71
10.53
12.80
15.15
17.23
18.86
20.06
20.98
21.64
21.90
21.52
20.34
18.51
16.38
14.37
12.63
10.95
9.05
6.88
4.74
3.13
2.22
1.62
0.41
-2.21
-6.41
-11.41
-15.99
-19.22
-21.04
-22.12
-23.34
-24.91
-26.19
-25.99
-23.54
-19.06
-13.92
-9.91
-8.35
-9.46
-12.24
-15.05
-16.35
-15.37
-12.31
-8.12
-3.97
-0.75
1.32
2.70
4.28
6.86
10.79
15.74
20.90
25.41
28.68
30.52
30.99
30.12
27.78
23.82
18.43
12.34
6.88
3.53
3.34
6.57
12.52
19.82
26.99
32.86
36.94
39.41
40.92
42.37
44.57
48.06
53.03
59.26
66.23
73.22
79.54
84.75
88.81
92.13
95.44
99.49
104.73
111.04
117.82
124.16
129.35
133.16
136.00
138.86
143.05
149.85
159.85
172.34
184.76
192.89
191.81
177.52
148.51
106.39
55.23
0.17
-54.47
-106.40
-155.48
-203.13
-251.56
-303.27
-360.58
-424.62
-493.93
-563.19
-623.64
-665.28
-680.24
-665.80
-625.40
-567.11
-500.39
-432.72
-367.64
-305.62
-245.76
-187.15
-128.98
-70.24
-9.75
52.98
116.54
177.46
229.92
267.78
287.13
288.76
278.03
262.70
249.85
243.33
243.84
247.99
249.95
244.36
229.42
208.07
186.77
172.75
170.97
183.26
205.82
230.19
246.49
247.27
229.53
194.66
147.18
86.11
19.34
-38.47
-73.84
-84.04
-78.54
-72.73
-79.60
-103.66
-138.60
-170.76
-186.31
-177.41
-145.27
-99.06
-51.87
-15.77
2.45
-0.29
-19.80
-47.33
-73.10
-88.93
-89.48
-72.97
-41.54
-1.07
40.05
74.14
95.45
101.37
92.91
74.44
52.19
32.28
19.19
15.04
19.89
31.35
44.91
55.42
58.93
54.18
42.92
28.89
16.13
7.81
5.09
7.13
11.87
17.13
21.23
23.30
23.13
21.09
18.13
15.44
13.99
14.06
15.07
15.99
15.98
14.94
13.50
12.35
11.44
9.66
5.35
-2.47
-13.04
-23.67
-30.81
-31.81
-26.46
-17.36
-8.94
-5.49
-9.29
-19.72
-33.71
-47.20
-56.70
-60.43
-58.52
-52.47
-44.40
-36.54
-31.06
-29.95
-34.63
-45.05
-58.85
-71.34
-76.81
-70.88
-52.74
-26.10
2.04
24.22
35.62
35.77
28.17
18.23
10.65
7.97
10.40
16.98
26.61
38.66
52.51
66.99
80.05
89.21
92.46
89.29
81.01
70.36
60.44
53.52
50.31
49.86
50.27
49.76
47.57
44.04
39.98
35.58
29.74
20.46
6.20
-12.64
-33.05
-50.30
-59.92
-59.92
-51.72
-39.54
-28.51
-22.57
-23.33
-30.10
-40.64
-52.11
-61.60
-66.56
-65.14
-56.76
-42.70
-26.15
-11.47
-2.90
-3.08
-11.74
-25.69
-39.78
-48.85
-50.07
-44.66
-38.08
-38.27
-52.05
-81.41
-121.45
-161.26
-187.48
-189.37
-163.16
-113.92
-53.96
1.57
40.10
55.86
51.29
35.11
18.19
9.08
11.31
23.25
40.25
57.44
71.57
81.44
86.90
87.67
83.40
74.45
62.88
52.39
46.93
48.64
56.45
66.13
72.11
70.11
59.26
42.55
25.80
15.19
14.93
25.58
43.61
62.06
72.28
66.48
40.77
-2.40
-53.77
-99.70
-127.18
-129.19
-107.73
-72.78
-37.44
-11.96
0.26
2.48
1.13
1.26
3.85
6.38
5.50
0.00
-8.15
-15.08
-17.47
-14.49
-8.20
-2.52
-1.34
-7.08
-19.94
-37.94
-57.28
-72.95
-79.76
-73.75
-53.69
-22.21
14.40
47.74
69.90
76.24
66.85
46.26
21.45
-0.76
-15.75
-21.90
-20.03
-12.29
-1.05
11.57
23.79
33.98
40.73
43.13
41.23
36.29
30.52
26.36
25.61
28.69
34.56
41.05
45.72
46.94
44.56
40.04
35.74
33.79
35.08
38.83
43.04
45.61
45.43
42.77
38.81
34.77
31.07
27.27
22.62
16.94
10.93
5.90
2.86
1.90
2.09
2.18
1.49
0.27
-1.08
-3.18
-8.30
-19.71
-39.83
-68.38
-101.76
-134.02
-158.82
-171.41
-169.44
-152.84
-123.25
-83.71
-38.80
5.40
42.16
65.71
73.10
65.26
46.66
23.56
2.11
-12.99
-19.00
-15.14
-2.74
15.10
34.22
50.53
61.12
65.16
63.90
60.01
56.27
54.11
53.35
53.09
52.76
52.47
52.94
54.80
58.25
63.04
68.10
72.08
74.13
74.34
73.24
71.72
70.47
70.25
71.74
74.41
76.24
74.43
66.30
49.56
23.38
-11.90
-54.84
-98.48
-133.51
-154.12
-160.78
-157.54
-148.87
-137.24
-124.29
-111.34
-99.72
-91.11
-86.85
-86.82
-89.35
-94.32
-99.28
-103.45
-107.29
-111.97
-119.30
-131.36
-149.44
-168.50
-184.80
-192.69
-186.39
-162.48
-122.26
-72.26
-22.59
17.18
41.81
52.97
55.57
54.56
53.39
53.36
54.72
56.74
58.76
60.71
63.35
67.35
72.80
79.45
87.15
97.43
111.99
132.98
157.91
186.23
216.98
247.86
275.32
296.11
309.66
316.03
315.19
306.40
288.77
260.79
221.32
170.70
103.94
27.69
-44.47
-100.34
-136.09
-155.25
-164.23
-167.92
-168.84
-166.71
-159.63
-147.64
-133.32
-120.40
-111.51
-107.66
-108.08
-112.85
-118.64
-121.99
-121.75
-119.35
-117.63
-118.98
-124.63
-131.30
-139.56
-149.15
-158.01
-162.78
-159.22
-143.49
-114.11
-73.54
-28.31
12.67
42.98
60.85
68.90
72.02
74.35
77.11
78.88
77.25
70.78
61.39
53.29
50.64
55.49
67.27
81.49
92.76
97.20
93.70
85.04
76.32
72.42
76.24
87.62
103.66
120.27
133.24
138.45
132.74
114.48
84.55
48.15
14.48
-6.05
-6.08
14.65
48.17
81.36
101.39
100.39
78.38
41.68
-1.54
-45.24
-87.35
-129.19
-173.24
-217.24
-258.63
-293.76
-318.94
-332.19
-334.95
-332.66
-332.88
-341.58
-359.32
-380.16
-393.01
-386.81
-356.23
-304.42
-241.32
-178.38
-122.98
-75.81
-33.04
10.24
56.35
104.21
150.91
194.14
233.31
269.34
302.68
331.39
351.68
359.59
353.42
335.16
309.98
284.62
265.44
255.94
255.26
258.65
259.99
254.57
241.20
222.10
201.94
186.54
180.27
184.19
195.27
208.30
217.40
217.31
203.37
173.40
130.58
83.63
44.14
21.35
18.50
30.70
46.89
53.72
37.58
-4.27
-59.67
-107.88
-134.27
-138.17
-133.57
-133.36
-144.21
-166.05
-194.19
-222.47
-241.86
-248.72
-243.49
-230.12
-214.71
-205.43
-209.99
-232.39
-269.16
-309.17
-338.60
-345.12
-322.26
-271.24
-201.63
-128.80
-69.89
-36.73
-31.62
-48.85
-77.08
-103.37
-116.87
-112.11
-82.13
-31.19
27.35
81.16
125.07
159.71
185.50
200.61
202.82
194.94
180.05
165.10
160.04
171.53
199.95
239.52
281.29
317.25
336.77
333.29
298.93
236.74
159.13
83.16
22.33
-18.52
-42.04
-54.79
-62.71
-68.13
-69.07
-63.97
-53.61
-41.29
-32.81
-29.66
-31.71
-37.57
-45.24
-52.03
-57.31
-61.89
-67.54
-75.63
-86.25
-99.26
-114.79
-134.47
-155.77
-180.16
-210.48
-248.47
-292.66
-336.85
-371.64
-387.18
-376.93
-339.57
-280.43
-208.92
-135.46
-68.90
-14.95
24.35
50.48
67.36
80.63
95.55
113.39
131.69
145.21
149.42
143.75
131.15
115.01
97.84
80.41
62.95
46.32
34.54
28.49
28.17
32.64
39.72
46.93
52.65
57.03
62.43
72.79
92.31
119.87
153.42
188.04
216.86
233.01
232.08
214.03
183.31
147.08
112.92
86.57
69.61
59.90
53.27
45.54
34.20
19.00
1.34
-16.38
-31.51
-42.62
-49.66
-53.74
-56.49
-59.56
-64.13
-70.83
-79.43
-88.51
-95.78
-98.10
-92.25
-76.20
-50.43
-18.48
13.73
39.84
55.38
59.06
52.74
40.15
25.01
9.77
-4.67
-17.95
-29.34
-37.27
-39.99
-36.50
-27.36
-14.67
-1.42
9.64
17.09
21.09
22.86
23.67
24.20
24.43
24.03
22.76
20.62
18.23
16.61
16.86
19.90
26.23
35.73
47.43
59.16
67.90
71.54
69.66
63.83
56.65
50.43
46.38
44.41
43.24
40.66
35.50
26.95
14.31
-3.78
-29.12
-62.46
-99.89
-133.78
-158.00
-169.95
-171.36
-165.28
-154.28
-140.21
-124.56
-108.92
-95.58
-90.57
-95.04
-108.36
-127.37
-146.91
-160.55
-162.13
-147.61
-111.55
-60.43
-5.71
40.88
72.97
90.46
97.75
100.21
101.36
101.88
99.66
95.86
91.28
88.69
91.00
99.63
113.64
129.84
143.81
150.51
147.55
135.22
116.79
96.84
79.58
67.31
58.21
50.88
43.72
36.72
30.83
27.55
27.60
30.89
36.03
40.64
42.30
38.54
27.77
9.12
-17.13
-50.00
-85.45
-117.04
-138.78
-148.44
-148.19
-141.77
-132.24
-121.25
-110.32
-100.00
-91.02
-83.92
-78.65
-74.42
-70.28
-65.83
-61.26
-59.53
-61.04
-66.68
-77.19
-92.03
-108.22
-120.31
-122.00
-104.97
-70.09
-23.88
23.43
62.17
86.80
97.44
98.48
95.31
91.84
88.61
85.20
81.06
76.66
73.47
73.01
76.73
83.07
89.85
94.38
96.00
95.88
96.59
100.60
108.60
118.40
125.27
124.29
112.46
91.06
65.12
41.15
24.50
17.41
18.99
26.38
36.62
46.75
53.69
53.59
42.65
18.96
-14.29
-48.05
-69.94
-69.30
-42.74
3.60
55.75
97.44
116.37
107.97
75.22
25.64
-32.11
-90.48
-143.51
-186.61
-216.82
-233.96
-241.80
-247.83
-260.73
-286.51
-324.97
-368.72
-405.52
-423.02
-413.65
-377.16
-319.83
-251.18
-179.89
-111.33
-47.32
12.52
68.82
121.28
168.45
208.84
241.38
265.64
281.08
286.89
282.54
268.75
248.22
225.61
206.35
194.97
193.56
200.22
209.67
215.51
213.16
201.85
184.87
168.18
157.93
158.15
168.01
181.89
191.88
190.92
174.82
142.76
97.03
43.11
-10.98
-57.70
-92.25
-113.80
-125.74
-134.60
-147.80
-170.82
-204.14
-234.95
-248.34
-235.61
-200.79
-157.66
-119.71
-92.94
-75.90
-62.06
-47.66
-29.39
-10.19
3.55
5.76
-6.39
-32.28
-70.11
-115.89
-158.52
-188.30
-198.38
-185.54
-151.79
-105.38
-60.11
-32.74
-33.66
-61.36
-104.10
-145.62
-171.15
-172.79
-150.94
-102.72
-37.31
29.60
86.50
131.40
167.50
196.92
217.51
225.64
219.89
202.03
179.66
163.12
162.05
177.43
205.11
237.99
268.84
291.22
298.51
287.31
259.36
221.56
184.45
159.65
154.87
170.49
199.47
227.53
240.58
231.54
202.03
160.95
119.26
83.70
54.01
24.78
-10.32
-53.15
-99.82
-144.74
-182.42
-209.75
-227.81
-241.74
-257.76
-280.80
-312.10
-349.77
-393.43
-440.73
-486.53
-523.37
-543.32
-540.05
-512.14
-465.52
-413.12
-374.51
-362.70
-377.47
-406.07
-430.47
-435.35
-414.18
-370.17
-289.36
-178.57
-58.84
48.23
132.76
194.79
237.06
260.67
266.41
257.68
236.86
210.24
185.94
171.81
168.09
170.36
172.82
171.16
164.85
153.41
139.85
129.48
127.12
134.35
150.21
172.89
196.60
218.44
235.15
245.67
251.08
253.15
252.40
247.65
236.10
214.31
180.62
135.16
82.22
29.82
-13.03
-39.95
-49.24
-44.06
-30.79
-16.03
-5.81
-4.11
-12.60
-30.42
-54.00
-76.79
-90.49
-87.78
-65.31
-26.32
19.73
60.38
84.92
88.26
72.25
44.03
12.68
-13.90
-31.09
-37.84
-35.67
-27.10
-14.66
-0.68
12.58
22.89
28.51
28.96
24.93
18.36
12.21
9.68
12.78
21.61
34.31
47.80
59.21
66.31
68.18
65.96
62.63
61.00
62.57
66.99
72.69
78.40
82.85
84.42
81.61
73.12
57.29
33.38
2.71
-33.38
-68.03
-93.32
-107.09
-114.02
-120.84
-131.25
-143.40
-152.02
-152.66
-144.32
-130.68
-118.51
-114.85
-119.95
-131.45
-145.41
-157.37
-162.90
-157.65
-135.05
-96.76
-49.38
-1.33
39.34
68.31
85.58
94.18
97.94
99.08
97.21
92.09
86.61
83.11
84.71
93.24
107.59
123.55
135.01
135.75
123.35
100.35
72.56
47.21
29.87
22.35
22.54
25.91
27.72
25.77
20.54
14.03
8.78
6.56
7.86
11.98
17.28
21.49
22.21
17.11
3.80
-19.21
-50.48
-84.70
-114.12
-132.48
-138.01
-133.14
-121.73
-107.58
-93.16
-79.68
-67.63
-57.31
-49.06
-42.94
-38.67
-35.31
-32.29
-29.46
-26.90
-24.82
-23.36
-22.60
-22.49
-23.95
-26.15
-28.94
-32.62
-37.80
-45.30
-56.15
-70.91
-86.66
-100.31
-106.42
-99.67
-77.59
-42.49
-1.21
37.34
65.65
80.63
83.85
80.43
75.55
72.18
70.48
69.13
66.73
62.81
58.22
54.23
52.20
52.72
55.98
60.49
64.92
68.35
70.26
70.84
70.76
71.06
72.70
76.26
82.05
90.28
100.46
110.14
115.21
110.76
92.73
60.11
15.81
-33.10
-77.02
-107.27
-120.13
-117.44
-105.46
-92.65
-86.06
-89.61
-101.63
-117.57
-131.72
-141.64
-147.37
-150.09
-153.47
-157.35
-161.40
-165.99
-172.07
-181.54
-197.79
-220.72
-244.62
-261.18
-262.13
-243.50
-206.88
-157.38
-101.89
-48.86
-5.00
28.76
54.81
77.05
98.31
112.03
113.02
114.22
121.89
132.46
145.29
159.77
175.45
191.84
209.26
229.96
256.07
285.73
315.72
342.73
361.92
368.00
356.61
326.08
279.67
224.67
168.80
120.16
84.81
62.94
48.73
32.69
5.39
-38.28
-97.70
-167.78
-238.98
-299.34
-338.33
-349.19
-330.45
-286.32
-225.43
-159.01
-98.58
-52.37
-23.31
-9.58
-5.95
-6.11
-5.03
-0.23
8.09
18.00
27.72
37.06
47.23
59.50
73.47
86.23
92.71
87.14
65.31
26.69
-24.24
-78.25
-123.25
-147.64
-144.34
-113.90
-65.09
-11.92
31.89
58.40
68.09
68.05
67.21
71.25
80.23
89.75
94.76
93.04
86.40
79.18
74.89
74.04
73.98
71.27
64.00
53.33
42.87
36.62
37.17
43.91
53.51
61.97
66.86
68.17
68.10
69.58
74.59
83.59
94.48
103.69
108.20
107.09
101.37
93.64
87.07
84.11
86.51
93.30
100.97
104.69
100.45
85.64
60.93
30.24
-5.59
-41.11
-70.57
-91.92
-107.79
-121.79
-136.18
-149.20
-156.79
-156.16
-146.76
-131.81
-116.17
-105.72
-100.66
-100.74
-104.12
-108.49
-112.33
-114.71
-116.57
-119.79
-126.16
-136.85
-155.38
-184.83
-222.18
-263.41
-301.64
-328.62
-336.26
-319.04
-266.11
-182.98
-88.92
-6.73
49.25
78.14
87.31
86.14
81.82
78.10
74.00
70.23
66.46
63.07
61.45
62.31
65.81
72.06
81.67
94.63
112.43
137.61
167.65
197.70
218.81
220.79
197.21
149.82
89.18
33.03
-0.57
-0.63
32.10
84.57
137.11
170.95
173.95
142.30
80.02
-3.70
-96.59
-184.23
-251.93
-286.87
-281.49
-237.64
-168.41
-95.26
-41.70
-24.44
-46.71
-97.33
-155.34
-198.11
-209.55
-185.18
-132.35
-66.43
-4.59
40.44
64.11
70.72
70.37
73.97
88.26
113.03
141.81
165.78
178.44
178.44
169.40
157.03
145.37
135.16
124.61
111.98
97.85
85.41
78.61
79.82
88.02
98.80
106.39
106.36
97.56
82.71
67.01
55.72
51.96
55.55
63.58
71.98
77.04
76.25
68.15
52.08
28.24
-1.36
-32.43
-58.83
-74.47
-76.15
-65.51
-48.95
-35.16
-31.55
-41.05
-61.93
-89.87
-120.96
-153.32
-186.63
-220.19
-251.42
-275.86
-288.76
-287.15
-270.79
-241.57
-201.91
-153.52
-97.64
-36.57
24.92
79.64
120.03
141.25
143.50
131.93
114.51
98.68
88.83
85.56
86.62
88.99
90.69
91.42
91.63
91.53
90.60
88.11
84.13
80.18
78.95
83.09
93.27
107.21
119.80
125.04
118.95
101.79
78.63
57.87
47.92
53.47
73.64
101.76
128.10
143.64
142.27
121.68
83.22
31.51
-26.38
-81.36
-124.86
-150.94
-158.48
-152.79
-143.84
-142.63
-152.95
-172.90
-193.68
-205.91
-205.65
-195.25
-179.99
-163.30
-145.56
-125.15
-101.82
-77.86
-58.82
-51.63
-57.59
-73.82
-93.23
-106.46
-104.56
-82.97
-40.20
13.78
64.88
101.58
119.28
121.41
116.12
111.79
112.39
116.75
119.86
117.74
109.58
98.10
89.24
86.70
92.30
105.08
121.85
137.87
149.00
151.14
141.39
119.22
87.12
51.01
18.57
-3.24
-11.66
-8.59
-1.37
1.52
-5.77
-24.96
-53.58
-87.73
-123.76
-160.53
-192.14
-213.89
-222.86
-218.75
-202.95
-177.66
-146.18
-112.77
-87.08
-72.33
-70.94
-82.67
-103.96
-128.73
-150.03
-162.22
-157.48
-128.06
-74.87
-9.87
50.43
93.81
117.27
125.58
126.31
125.43
124.38
121.83
115.35
104.72
92.37
81.78
75.32
73.39
76.28
81.15
86.01
90.03
93.75
97.97
102.27
104.55
101.98
92.67
76.27
54.85
31.74
10.55
-6.08
-17.11
-22.97
-24.75
-23.37
-19.95
-15.33
-10.40
-5.92
-2.47
-0.31
0.66
0.88
1.19
2.31
4.89
9.04
14.24
19.29
22.59
22.73
19.16
12.63
5.00
-1.12
-3.69
-2.35
0.86
1.62
-5.70
-26.36
-63.23
-115.18
-176.16
-236.04
-282.83
-305.89
-298.88
-261.59
-199.92
-124.22
-46.57
22.05
73.87
105.40
117.43
114.09
101.39
85.58
71.69
62.54
58.62
58.55
60.12
61.14
59.98
55.94
49.27
41.07
33.03
26.89
23.88
24.38
27.71
32.40
36.59
38.57
37.28
32.69
25.81
18.37
12.12
8.21
6.75
6.88
7.27
6.83
5.17
2.71
0.35
-1.03
-0.96
0.45
2.67
5.02
6.92
8.07
8.47
8.38
8.22
8.43
9.31
10.90
12.97
15.10
16.88
18.05
18.58
18.69
18.82
19.41
20.80
23.03
25.81
28.52
30.45
30.97
29.88
27.58
25.02
23.44
23.98
27.27
32.98
39.65
44.46
43.97
35.17
16.73
-9.89
-40.47
-69.07
-90.07
-99.91
-98.37
-88.02
-72.79
-56.33
-40.98
-27.92
-18.15
-13.35
-13.84
-20.24
-31.94
-46.86
-62.15
-74.85
-82.55
-83.99
-79.48
-70.74
-60.57
-52.11
-47.59
-47.63
-51.10
-55.81
-59.28
-59.55
-55.10
-44.57
-27.60
-5.49
18.05
37.27
46.61
44.57
34.82
25.28
24.83
37.90
62.05
89.09
108.85
114.21
104.27
83.81
58.31
35.73
19.80
8.27
-1.30
-9.93
-16.85
-20.62
-20.35
-16.87
-12.02
-8.73
-8.95
-12.53
-17.76
-22.12
-23.30
-20.22
-13.72
-5.86
0.40
2.98
1.94
-1.01
-3.28
-2.51
2.34
10.59
20.47
29.63
36.45
40.70
42.83
43.74
44.47
45.99
48.88
53.27
58.63
64.15
69.22
72.83
74.48
74.62
74.69
76.28
80.28
86.48
93.74
100.51
103.97
101.44
91.48
74.67
53.53
31.68
12.96
0.06
-6.37
-9.71
-15.35
-28.13
-50.21
-80.56
-116.46
-154.96
-194.47
-224.79
-236.77
-227.56
-203.29
-173.52
-144.07
-116.31
-89.19
-62.18
-36.08
-14.48
-0.79
3.33
-1.23
-10.23
-19.49
-23.49
-20.23
-11.66
-4.03
-3.54
-15.36
-42.01
-80.18
-121.69
-155.13
-170.01
-160.09
-125.86
-72.30
-4.84
61.96
112.74
136.68
132.07
106.20
72.26
44.73
36.82
52.98
86.78
124.04
148.48
153.30
143.86
136.31
130.05
127.40
130.02
129.96
120.96
100.84
71.42
35.24
-10.52
-65.04
-122.11
-174.01
-213.19
-230.96
-220.35
-179.12
-107.02
-21.32
52.99
99.37
115.10
107.70
89.61
72.57
64.86
71.78
88.53
107.31
119.82
117.62
94.76
52.18
-1.90
-54.84
-94.16
-110.07
-97.81
-58.77
-0.20
67.23
132.48
185.86
219.50
227.86
208.20
162.85
98.93
25.64
-48.49
-116.86
-174.38
-216.04
-236.48
-232.37
-205.28
-163.68
-121.43
-92.18
-82.56
-88.52
-97.04
-92.37
-63.91
-10.86
58.01
128.66
187.63
226.45
243.13
240.69
224.44
199.26
167.76
130.33
86.44
36.03
-18.99
-74.97
-127.93
-175.95
-220.61
-266.51
-318.40
-377.42
-438.81
-492.46
-526.45
-531.84
-506.60
-456.46
-392.59
-326.97
-267.94
-218.18
-175.25
-134.30
-91.08
-43.62
7.73
61.11
114.13
164.12
208.68
246.20
276.30
299.70
317.68
331.58
342.20
349.78
353.92
353.82
347.96
333.80
308.46
270.56
222.03
168.42
117.21
74.20
41.53
17.00
-3.99
-25.42
-48.34
-70.64
-88.73
-99.50
-103.89
-105.24
-108.10
-115.75
-128.05
-140.52
-145.56
-135.20
-103.80
-54.46
4.53
61.21
104.17
126.69
128.77
116.51
99.30
87.90
85.85
95.16
114.98
142.75
175.28
209.98
