1659461841.00
64.000000
-0.00
-0.00
-0.00
-0.00
-0.00
-0.00
-0.00
-0.00
-0.00
-0.00
0.00
0.01
0.01
-0.00
-0.03
-0.05
-0.05
0.00
0.13
0.36
0.66
1.01
1.37
1.72
2.06
2.40
2.79
3.24
3.80
4.42
5.06
5.66
6.20
6.68
7.15
7.68
8.31
9.14
10.09
11.04
11.88
12.56
13.14
13.76
14.65
15.96
17.91
20.32
22.91
25.38
27.58
29.57
31.67
34.31
37.81
42.55
48.18
54.16
59.89
64.99
69.51
73.93
78.97
85.17
93.11
102.28
111.89
121.00
129.01
135.93
142.36
149.66
156.55
165.34
176.64
190.53
205.73
219.27
226.77
223.57
206.36
174.37
130.07
77.34
20.45
-37.52
-95.19
-152.44
-209.39
-265.58
-319.91
-370.67
-416.81
-457.77
-493.28
-522.86
-545.38
-559.10
-561.92
-552.27
-529.42
-494.38
-449.46
-397.85
-342.84
-287.14
-232.50
-179.68
-128.99
-80.60
-35.17
6.26
42.50
72.55
95.88
112.41
122.48
127.00
127.75
127.41
129.25
136.14
149.37
167.85
188.36
206.74
219.52
225.08
223.85
217.53
207.99
196.50
183.63
169.73
155.37
141.40
128.71
117.71
108.20
99.53
90.89
81.76
72.09
62.31
53.09
45.18
38.82
33.86
29.83
26.11
22.20
17.93
13.47
9.27
5.80
3.33
1.82
0.96
0.30
-0.52
-1.69
-3.14
-4.66
-6.01
-7.05
-7.66
-7.81
-7.51
-6.86
-6.00
-5.17
-4.58
-4.40
-4.68
-5.30
-6.02
-6.53
-6.60
-6.08
-5.04
-3.72
-2.45
-1.55
-1.19
-1.36
-1.85
-2.42
-2.86
-3.10
-3.19
-3.20
-3.19
-3.15
-3.07
-2.91
-2.70
-2.50
-2.41
-2.43
-2.55
-2.71
-2.81
-2.77
-2.58
-2.26
-1.90
-1.59
-1.40
-1.36
-1.44
-1.54
-1.56
-1.45
-1.18
-0.83
-0.47
-0.16
0.11
0.36
0.63
0.90
1.16
1.41
1.73
2.22
2.99
4.05
5.29
6.56
7.67
8.48
8.96
9.11
8.94
8.44
7.63
6.51
5.14
3.61
1.97
0.29
-1.36
-2.87
-4.20
-5.32
-6.27
-7.09
-7.79
-8.36
-8.73
-8.83
-8.66
-8.28
-7.80
-7.31
-6.89
-6.55
-6.28
-6.02
-5.70
-5.29
-4.78
-4.25
-3.78
-3.46
-3.32
-3.30
-3.28
-3.15
-2.87
-2.46
-2.00
-1.55
-1.14
-0.75
-0.38
-0.03
0.22
0.32
0.21
-0.10
-0.51
-0.90
-1.16
-1.22
-1.07
-0.78
-0.46
-0.19
-0.04
-0.01
-0.08
-0.18
-0.29
-0.38
-0.47
-0.60
-0.78
-1.01
-1.21
-1.34
-1.33
-1.18
-0.94
-0.72
-0.65
-0.78
-1.06
-1.41
-1.73
-1.98
-2.21
-2.49
-2.84
-3.14
-3.23
-2.95
-2.27
-1.35
-0.47
0.17
0.50
0.70
1.00
1.56
2.35
3.13
3.61
3.61
3.16
2.48
1.86
1.53
1.49
1.61
1.72
1.67
1.47
1.20
0.96
0.79
0.65
0.44
0.08
-0.40
-0.88
-1.18
-1.19
-0.90
-0.43
0.02
0.27
0.24
-0.02
-0.41
-0.81
-1.18
-1.53
-1.90
-2.29
-2.67
-2.93
-2.95
-2.67
-2.10
-1.34
-0.53
0.20
0.76
1.14
1.33
1.39
1.36
1.28
1.20
1.14
1.15
1.23
1.36
1.49
1.55
1.48
1.27
0.95
0.62
0.41
0.42
0.66
1.02
1.32
1.36
1.06
0.45
-0.30
-0.97
-1.39
-1.48
-1.27
-0.85
-0.36
0.05
0.21
0.00
-0.61
-1.49
-2.39
-2.98
-3.07
-2.65
-1.87
-1.03
-0.34
0.09
0.30
0.43
0.60
0.88
1.26
1.67
2.01
2.21
2.24
2.12
1.93
1.72
1.54
1.37
1.19
0.99
0.80
0.67
0.64
0.66
0.62
0.43
0.07
-0.42
-0.92
-1.32
-1.56
-1.64
-1.57
-1.36
-1.05
-0.69
-0.39
-0.27
-0.42
-0.82
-1.31
-1.71
-1.85
-1.69
-1.30
-0.80
-0.31
0.14
0.57
1.01
1.47
1.86
2.09
2.09
1.88
1.58
1.32
1.18
1.17
1.21
1.21
1.14
1.04
0.97
0.94
0.96
0.96
0.90
0.76
0.57
0.34
0.07
-0.23
-0.57
-0.88
-1.11
-1.23
-1.24
-1.20
-1.19
-1.24
-1.35
-1.47
-1.59
-1.69
-1.78
-1.84
-1.82
-1.66
-1.32
-0.84
-0.32
0.13
0.47
0.69
0.86
1.02
1.17
1.29
1.35
1.33
1.27
1.17
1.06
0.95
0.84
0.78
0.82
0.97
1.18
1.35
1.38
1.25
0.98
0.69
0.47
0.34
0.25
0.12
-0.11
-0.44
-0.80
-1.10
-1.29
-1.37
-1.39
-1.37
-1.36
-1.35
-1.33
-1.29
-1.25
-1.22
-1.20
-1.16
-1.05
-0.83
-0.49
-0.08
0.35
0.75
1.07
1.29
1.41
1.42
1.33
1.19
1.04
0.96
0.96
1.07
1.26
1.50
1.77
2.01
2.14
2.09
1.79
1.29
0.69
0.16
-0.18
-0.29
-0.24
-0.16
-0.16
-0.25
-0.39
-0.49
-0.53
-0.52
-0.56
-0.75
-1.13
-1.69
-2.30
-2.81
-3.08
-3.06
-2.78
-2.38
-1.97
-1.61
-1.26
-0.83
-0.25
0.46
1.17
1.72
2.02
2.03
1.83
1.51
1.21
1.00
0.95
1.06
1.30
1.57
1.79
1.88
1.84
1.69
1.50
1.34
1.21
1.05
0.81
0.46
0.03
-0.39
-0.70
-0.83
-0.77
-0.60
-0.42
-0.36
-0.48
-0.78
-1.21
-1.67
-2.08
-2.37
-2.51
-2.45
-2.17
-1.70
-1.10
-0.50
-0.01
0.31
0.51
0.65
0.82
1.04
1.29
1.47
1.54
1.46
1.26
0.98
0.68
0.44
0.28
0.23
0.25
0.27
0.20
0.00
-0.31
-0.63
-0.87
-0.97
-0.92
-0.79
-0.66
-0.56
-0.46
-0.34
-0.17
0.02
0.19
0.28
0.24
0.09
-0.09
-0.25
-0.32
-0.29
-0.21
-0.16
-0.17
-0.23
-0.27
-0.18
0.08
0.48
0.91
1.24
1.39
1.35
1.19
1.02
0.93
0.95
1.04
1.13
1.20
1.23
1.25
1.31
1.43
1.55
1.61
1.51
1.25
0.86
0.46
0.14
-0.05
-0.13
-0.17
-0.27
-0.45
-0.74
-1.09
-1.46
-1.78
-2.00
-2.10
-2.11
-2.07
-2.02
-1.97
-1.89
-1.74
-1.47
-1.10
-0.67
-0.26
0.12
0.44
0.75
1.06
1.38
1.65
1.83
1.89
1.82
1.65
1.41
1.10
0.76
0.42
0.12
-0.07
-0.13
-0.06
0.10
0.27
0.38
0.41
0.38
0.33
0.27
0.19
0.06
-0.16
-0.43
-0.72
-0.95
-1.13
-1.30
-1.51
-1.80
-2.11
-2.36
-2.43
-2.29
-1.98
-1.57
-1.14
-0.70
-0.26
0.22
0.70
1.11
1.37
1.42
1.29
1.07
0.90
0.88
1.04
1.32
1.60
1.74
1.68
1.46
1.16
0.90
0.77
0.78
0.85
0.89
0.80
0.54
0.16
-0.25
-0.56
-0.67
-0.56
-0.29
0.00
0.15
0.04
-0.37
-1.00
-1.72
-2.36
-2.77
-2.87
-2.65
-2.22
-1.72
-1.28
-0.96
-0.73
-0.52
-0.23
0.17
0.64
1.08
1.40
1.55
1.56
1.45
1.28
1.07
0.88
0.75
0.71
0.73
0.77
0.75
0.63
0.46
0.29
0.20
0.17
0.15
0.04
-0.20
-0.56
-0.98
-1.35
-1.60
-1.74
-1.81
-1.85
-1.89
-1.93
-1.97
-2.01
-2.09
-2.20
-2.33
-2.42
-2.37
-2.11
-1.63
-1.03
-0.49
-0.18
-0.20
-0.48
-0.86
-1.08
-0.99
-0.54
0.11
0.70
0.98
0.83
0.32
-0.26
-0.50
-0.10
1.03
2.66
4.34
5.63
6.32
6.55
6.68
7.17
8.44
10.87
14.89
20.81
28.61
37.59
46.34
53.16
56.92
57.73
57.15
57.50
60.69
67.25
76.15
85.40
93.24
98.92
102.84
105.94
108.82
111.30
112.53
111.51
107.64
100.99
92.05
81.42
69.54
56.74
43.46
30.43
18.73
9.44
3.27
0.19
-0.68
-0.81
-1.80
-4.72
-9.79
-16.23
-22.68
-27.79
-30.83
-32.08
-32.75
-34.48
-38.73
-46.27
-56.78
-68.90
-80.40
-88.74
-91.65
-87.91
-77.74
-62.90
-46.11
-30.21
-17.19
-7.63
-0.72
5.25
12.29
22.05
35.54
52.86
73.18
94.76
115.14
131.73
142.56
147.03
146.24
142.69
139.47
139.04
142.47
149.09
156.89
163.44
166.76
165.92
161.09
153.19
143.29
132.30
120.82
109.23
97.85
86.97
76.66
66.72
56.67
45.96
34.31
22.00
9.77
-1.35
-10.54
-17.38
-21.92
-24.54
-25.66
-25.63
-24.60
-22.62
-19.70
-15.91
-11.46
-6.89
-3.00
-0.79
-1.27
-5.12
-13.23
-25.57
-40.93
-57.43
-73.35
-87.56
-99.35
-108.39
-114.55
-118.62
-121.05
-121.62
-119.55
-114.17
-105.23
-92.98
-78.11
-61.70
-46.88
-35.81
-28.69
-24.37
-21.83
-20.91
-22.02
-25.69
-32.15
-46.11
-69.23
-98.31
-127.58
-153.08
-174.01
-191.50
-206.96
-221.12
-244.03
-280.00
-323.78
-365.05
-396.83
-418.22
-431.85
-441.01
-448.04
-470.24
-515.73
-577.18
-638.60
-688.73
-725.80
-753.99
-779.22
-806.59
-860.17
-950.46
-1065.08
-1177.25
-1264.14
-1315.06
-1329.31
-1312.23
-1139.87
-780.16
-312.70
133.87
480.66
717.09
865.97
954.64
1004.27
1029.26
1018.31
968.16
893.32
817.94
758.85
719.71
696.20
682.03
672.42
648.74
602.57
541.61
482.55
437.53
409.30
395.38
390.38
389.27
377.83
348.13
303.22
253.36
207.76
170.99
144.09
126.15
115.38
104.61
89.38
70.47
52.15
37.87
28.49
22.97
19.58
16.96
12.58
5.53
-3.00
-10.67
-16.07
-19.05
-20.31
-20.89
-21.52
-22.45
-23.45
-24.00
-23.57
-21.96
-19.36
-16.30
-13.47
-11.36
-10.11
-9.52
-9.19
-8.78
-8.18
-7.45
-6.78
-6.34
-6.24
-6.42
-6.79
-7.21
-7.53
-7.66
-7.52
-7.16
-6.70
-6.31
-6.07
-5.97
-5.85
-5.54
-4.96
-4.22
-3.52
-3.06
-2.87
-2.82
-2.74
-2.49
-2.14
-1.88
-1.92
-2.37
-3.13
-3.93
-4.45
-4.44
-3.81
-2.62
-1.11
0.43
1.75
2.70
3.26
3.49
3.53
3.48
3.35
3.09
2.54
1.58
0.10
-1.84
-4.07
-6.32
-8.26
-9.63
-10.28
-10.13
-9.23
-7.73
-5.94
-4.24
-3.09
-2.83
-3.64
-5.43
-7.87
-10.50
-12.87
-14.62
-15.54
-15.57
-14.81
-13.51
-12.01
-10.66
-9.68
-9.05
-8.56
-7.86
-6.60
-4.59
-1.85
1.40
4.81
8.05
10.89
13.27
15.28
17.03
18.62
20.03
21.19
21.98
22.34
22.27
21.81
21.03
20.02
18.94
18.05
17.66
18.00
19.05
20.51
21.89
22.72
22.72
21.86
20.34
18.33
15.92
13.04
9.59
5.57
1.16
-3.27
-7.27
-10.45
-12.62
-13.83
-14.29
-14.33
-14.23
-14.14
-14.13
-14.20
-14.36
-14.67
-15.19
-15.91
-16.77
-17.68
-18.63
-19.75
-21.27
-23.36
-25.90
-28.34
-29.80
-29.32
-26.33
-20.93
-13.95
-6.65
-0.22
4.64
7.85
9.78
10.92
11.56
11.75
11.48
10.85
10.21
9.99
10.51
11.84
13.73
15.87
18.03
20.26
22.76
25.75
29.26
33.08
36.76
39.79
41.73
42.36
41.71
40.00
37.54
34.62
31.48
28.29
25.28
22.73
20.98
20.33
20.87
22.45
24.61
26.75
28.28
28.81
28.23
26.66
24.36
21.56
18.42
15.03
11.42
7.67
3.89
0.22
-3.27
-6.55
-9.67
-12.66
-15.51
-18.09
-20.21
-21.68
-22.45
-22.60
-22.38
-22.08
-21.98
-22.25
-22.95
-24.02
-25.34
-26.75
-27.98
-28.73
-28.62
-27.34
-24.74
-20.96
-16.39
-11.53
-6.90
-2.81
0.63
3.47
5.87
8.03
10.09
12.16
14.26
16.34
18.34
20.19
21.86
23.37
24.73
25.91
26.80
27.32
27.45
27.30
27.09
27.05
27.23
27.49
27.53
27.06
25.92
24.21
22.20
20.24
18.67
17.67
17.33
17.63
18.48
19.70
20.99
21.99
22.37
21.91
20.61
18.64
16.21
13.47
10.43
7.02
3.18
-0.98
-5.20
-9.21
-12.81
-15.99
-18.86
-21.63
-24.39
-27.15
-29.84
-32.38
-34.78
-37.03
-39.07
-40.75
-41.88
-42.43
-42.51
-42.38
-42.21
-41.90
-40.98
-38.79
-34.80
-28.93
-21.63
-13.76
-6.24
0.32
5.73
10.13
13.79
16.90
19.53
21.74
23.61
25.34
27.10
28.95
30.76
32.31
33.43
34.13
34.60
35.12
35.86
36.77
37.61
38.04
37.81
36.76
34.91
32.35
29.23
25.77
22.23
18.89
15.91
13.36
11.21
9.44
8.15
7.55
7.86
9.09
10.97
12.96
14.46
15.06
14.61
13.23
11.08
8.32
4.97
1.04
-3.38
-8.08
-12.79
-17.27
-21.39
-25.14
-28.57
-31.70
-34.50
-36.90
-38.85
-40.41
-41.69
-42.83
-43.96
-45.10
-46.21
-47.18
-47.93
-48.35
-48.29
-47.57
-45.88
-42.87
-38.28
-32.01
-24.29
-15.66
-6.87
1.36
8.51
14.40
19.15
22.99
26.17
28.82
30.97
32.59
33.69
34.31
34.52
34.40
34.00
33.41
32.80
32.34
32.21
32.44
32.89
33.30
33.30
32.59
30.96
28.37
24.95
20.92
16.61
12.35
8.50
5.42
3.44
2.75
3.32
4.87
6.89
8.81
10.15
10.70
10.49
9.77
8.74
7.51
6.03
4.14
1.72
-1.18
-4.37
-7.54
-10.44
-12.96
-15.21
-17.48
-20.05
-23.06
-26.41
-29.82
-32.90
-35.36
-37.10
-38.19
-38.86
-39.33
-39.84
-40.59
-41.76
-43.34
-45.10
-46.43
-46.52
-44.53
-39.98
-33.05
-24.52
-15.60
-7.50
-0.98
3.80
7.20
9.81
12.16
14.54
16.99
19.46
21.92
24.38
26.87
29.33
31.65
33.67
35.30
36.58
37.68
38.79
40.04
41.37
42.59
43.35
43.30
42.15
39.78
36.23
31.72
26.60
21.28
16.20
11.82
8.52
6.52
5.80
6.06
6.81
7.49
7.69
7.20
6.08
4.50
2.66
0.68
-1.39
-3.56
-5.82
-8.17
-10.60
-13.11
-15.74
-18.53
-21.53
-24.75
-28.11
-31.51
-34.76
-37.63
-39.90
-41.41
-42.16
-42.38
-42.38
-42.51
-43.01
-43.90
-44.99
-45.95
-46.37
-45.82
-43.90
-40.37
-35.21
-28.72
-21.47
-14.14
-7.26
-1.05
4.60
9.98
15.34
20.71
25.91
30.62
34.62
37.82
40.32
42.28
43.85
45.09
46.01
46.52
46.55
46.07
45.08
43.59
41.65
39.28
36.47
33.25
29.79
26.35
23.26
20.75
18.86
17.38
15.97
14.21
11.82
8.79
5.35
1.92
-1.18
-3.80
-6.11
-8.41
-11.02
-14.16
-17.72
-21.35
-24.54
-26.85
-28.08
-28.27
-27.66
-26.61
-25.36
-23.63
-20.70
-15.74
-8.39
0.83
10.76
20.15
28.21
34.96
41.62
49.78
60.49
73.17
85.54
94.62
98.07
95.15
87.00
76.86
68.52
64.66
65.12
67.02
66.71
61.84
51.93
37.78
21.13
3.49
-13.62
-28.13
-36.56
-34.09
-16.47
16.79
54.83
81.91
84.51
61.44
24.65
-10.21
-33.48
-44.85
-50.84
-58.77
-71.11
-84.81
-93.82
-93.87
-85.22
-72.48
-62.42
-61.59
-74.08
-98.57
-128.65
-155.27
-170.80
-172.74
-164.76
-154.87
-152.93
-165.69
-193.77
-231.97
-271.55
-304.08
-324.08
-329.97
-316.99
-284.91
-236.58
-177.25
-113.58
-51.81
4.09
53.53
98.76
142.95
187.00
229.11
265.33
291.24
304.04
303.81
293.35
277.01
258.89
240.64
222.11
202.15
179.96
155.93
131.74
109.61
91.07
76.18
63.12
49.65
34.21
16.84
-0.83
-16.43
-28.03
-35.11
-38.75
-41.29
-45.03
-51.34
-60.12
-70.01
-78.97
-85.09
-87.34
-85.85
-81.88
-77.09
-72.89
-69.86
-67.69
-65.57
-62.70
-58.84
-54.33
-49.91
-46.14
-42.99
-39.91
-36.13
-31.14
-25.00
-18.27
-11.71
-5.95
-1.13
3.17
7.50
12.18
17.06
21.65
25.40
28.02
29.52
30.15
30.37
30.59
30.95
31.35
31.62
31.66
31.38
30.74
29.78
29.08
29.18
30.01
30.78
30.60
29.00
26.19
22.95
20.36
20.26
23.63
29.68
35.92
39.82
40.09
37.12
32.56
28.53
28.26
33.68
43.93
55.56
64.74
68.98
67.53
60.92
50.91
42.40
40.94
50.35
71.25
101.31
135.88
168.21
190.69
185.41
143.49
73.27
-3.41
-67.00
-109.95
-134.46
-146.57
-151.77
-153.03
-149.39
-139.79
-125.79
-111.58
-101.26
-96.23
-95.32
-96.26
-96.84
-94.27
-87.38
-77.86
-69.87
-67.75
-73.80
-85.62
-98.14
-104.74
-98.64
-76.62
-41.10
1.28
39.86
67.55
82.39
86.13
82.01
72.98
60.41
44.69
26.53
7.99
-7.41
-16.76
-19.54
-17.48
-13.25
-9.43
-7.09
-6.19
-6.15
-5.90
-4.81
-2.91
-0.67
1.37
2.73
3.31
3.17
2.50
1.71
1.11
0.74
0.49
0.21
-0.24
-0.86
-1.58
-2.26
-2.69
-2.73
-2.45
-1.99
-1.55
-1.27
-1.12
-1.08
-1.06
-1.01
-0.86
-0.71
-0.56
-0.41
-0.26
-0.08
0.15
0.56
1.29
2.43
3.95
5.64
7.18
8.31
8.98
9.40
9.95
10.96
12.56
14.63
16.89
19.05
20.91
22.38
23.46
24.09
24.17
23.59
22.33
20.46
18.20
15.75
13.30
10.95
8.73
6.60
4.53
2.46
0.42
-1.56
-3.40
-5.04
-6.52
-8.03
-9.83
-12.14
-15.00
-18.19
-21.26
-23.67
-25.04
-25.24
-24.41
-22.85
-20.92
-19.01
-17.43
-16.46
-16.30
-16.98
-18.33
-20.01
-21.59
-22.73
-23.28
-23.23
-22.71
-21.86
-20.75
-19.42
-17.93
-16.31
-14.66
-12.94
-11.03
-8.71
-5.82
-2.37
1.37
4.89
7.70
9.39
9.86
9.26
7.99
6.49
