1660934005.00
64.000000
-0.00
-0.00
-0.00
-0.00
-0.00
-0.00
-0.00
-0.00
-0.00
-0.00
0.00
0.01
0.01
-0.00
-0.03
-0.05
-0.05
0.00
0.13
0.36
0.66
1.01
1.37
1.72
2.06
2.40
2.79
3.25
3.81
4.44
5.09
5.73
6.32
6.90
7.53
8.27
9.15
10.26
11.46
12.66
13.75
14.69
15.58
16.60
17.96
19.79
22.28
25.21
28.28
31.24
33.96
36.56
39.41
42.94
47.41
53.13
59.69
66.56
73.22
79.43
85.40
91.71
99.05
107.83
118.39
130.06
141.98
153.40
164.02
174.20
184.77
197.06
209.51
223.96
240.65
259.54
279.61
298.44
312.27
316.82
308.74
286.70
252.40
209.07
160.77
110.98
61.87
14.42
-30.99
-74.07
-114.52
-151.99
-187.15
-221.33
-256.19
-292.71
-330.27
-366.17
-396.02
-415.24
-420.64
-411.88
-391.67
-364.66
-335.57
-307.61
-281.91
-258.02
-235.07
-212.66
-191.26
-171.70
-154.46
-139.32
-125.48
-112.02
-98.42
-84.75
-71.59
-59.65
-49.42
-40.84
-33.46
-26.59
-19.71
-12.67
-5.76
0.50
5.66
9.56
12.39
14.59
16.62
18.79
21.14
23.49
25.52
27.01
27.78
27.86
27.41
26.65
25.80
25.04
24.44
24.00
23.67
23.37
23.03
22.60
22.03
21.33
20.56
19.79
19.10
18.51
18.00
17.51
17.00
16.47
16.00
15.62
15.37
15.15
14.84
14.32
13.55
12.62
11.69
10.96
10.54
10.41
10.49
10.64
10.74
10.74
10.63
10.41
10.10
9.70
9.29
8.98
8.85
8.91
9.06
9.13
8.97
8.58
8.06
7.57
7.22
6.98
6.74
6.37
5.86
5.29
4.80
4.46
4.22
3.97
3.61
3.15
2.70
2.39
2.27
2.22
2.09
1.73
1.13
0.43
-0.20
-0.65
-0.93
-1.19
-1.56
-2.12
-2.84
-3.60
-4.29
-4.87
-5.35
-5.78
-6.17
-6.49
-6.74
-6.90
-7.04
-7.21
-7.44
-7.71
-7.92
-7.99
-7.84
-7.46
-6.95
-6.39
-5.89
-5.47
-5.11
-4.76
-4.39
-4.00
-3.65
-3.36
-3.12
-2.87
-2.53
-2.06
-1.47
-0.88
-0.41
-0.10
0.08
0.24
0.47
0.82
1.27
1.72
2.10
2.37
2.56
2.71
2.84
2.96
3.06
3.16
3.30
3.54
3.87
4.23
4.49
4.57
4.43
4.18
3.93
3.81
3.84
3.96
4.04
4.01
3.89
3.75
3.69
3.75
3.88
3.99
4.04
4.02
3.99
3.99
4.02
4.01
3.90
3.63
3.27
2.91
2.65
2.56
2.62
2.77
2.92
3.00
2.96
2.79
2.51
2.18
1.90
1.78
1.86
2.11
2.45
2.78
3.04
3.20
3.24
3.16
2.96
2.66
2.33
2.08
1.99
2.02
2.07
2.00
1.74
1.35
0.98
0.80
0.87
1.12
1.41
1.60
1.61
1.47
1.27
1.13
1.11
1.20
1.31
1.34
1.26
1.10
0.95
0.90
1.00
1.18
1.34
1.35
1.18
0.87
0.54
0.30
0.21
0.29
0.48
0.73
1.00
1.24
1.45
1.60
1.72
1.79
1.80
1.71
1.52
1.31
1.14
1.07
1.13
1.24
1.34
1.37
1.32
1.26
1.24
1.27
1.32
1.33
1.23
1.02
0.80
0.65
0.65
0.77
0.93
1.04
1.03
0.90
0.73
0.61
0.58
0.65
0.78
0.90
0.97
1.01
1.03
1.06
1.10
1.13
1.10
1.00
0.87
0.71
0.59
0.52
0.51
0.52
0.49
0.41
0.28
0.18
0.17
0.28
0.46
0.61
0.64
0.51
0.30
0.12
0.07
0.17
0.36
0.49
0.49
0.36
0.19
0.09
0.15
0.35
0.60
0.79
0.81
0.66
0.39
0.10
-0.09
-0.16
-0.11
-0.05
-0.07
-0.19
-0.38
-0.49
-0.42
-0.11
0.39
0.92
1.33
1.50
1.44
1.23
1.02
0.90
0.89
0.95
0.99
0.95
0.81
0.61
0.40
0.23
0.07
-0.07
-0.21
-0.32
-0.35
-0.27
-0.05
0.24
0.47
0.53
0.33
-0.10
-0.63
-1.09
-1.33
-1.31
-1.05
-0.67
-0.27
0.07
0.31
0.45
0.52
0.53
0.51
0.53
0.61
0.76
0.90
0.96
0.88
0.70
0.53
0.45
0.49
0.62
0.72
0.71
0.57
0.35
0.11
-0.08
-0.19
-0.20
-0.11
0.08
0.34
0.63
0.86
0.96
0.89
0.70
0.45
0.19
-0.03
-0.21
-0.34
-0.40
-0.37
-0.26
-0.12
0.00
0.08
0.15
0.29
0.61
1.17
1.95
2.85
3.70
4.33
4.63
4.53
4.08
3.37
2.53
1.69
0.96
0.36
-0.09
-0.41
-0.59
-0.64
-0.56
-0.41
-0.33
-0.45
-0.91
-1.69
-2.68
-3.62
-4.26
-4.45
-4.20
-3.68
-3.16
-2.86
-2.87
-3.10
-3.44
-3.77
-4.10
-4.55
-5.23
-6.16
-7.27
-8.42
-9.51
-10.56
-11.63
-12.78
-13.99
-15.19
-16.37
-17.67
-19.37
-21.78
-25.02
-28.93
-33.07
-36.89
-40.03
-42.43
-44.43
-46.62
-49.63
-53.89
-59.43
-65.74
-71.93
-77.16
-81.14
-84.52
-88.82
-95.83
-106.86
-122.23
-141.18
-162.17
-183.21
-201.94
-215.57
-220.99
-215.39
-197.20
-166.91
-127.08
-81.43
-33.17
16.23
67.14
120.52
176.15
231.43
281.72
322.05
349.19
363.20
367.27
366.23
364.62
365.18
368.47
373.52
378.69
382.22
382.28
376.91
364.07
342.30
311.29
272.22
227.46
179.60
130.52
80.82
30.13
-21.90
-74.36
-124.63
-168.70
-202.53
-223.56
-231.74
-229.44
-220.37
-208.20
-195.38
-182.96
-171.09
-159.78
-149.35
-140.29
-132.86
-126.68
-120.85
-114.33
-106.53
-97.56
-88.17
-79.38
-71.95
-66.11
-61.49
-57.35
-52.96
-47.91
-42.26
-36.48
-31.17
-26.79
-23.48
-21.05
-19.08
-17.18
-15.06
-12.65
-10.09
-7.61
-5.47
-3.88
-2.91
-2.46
-2.33
-2.29
-2.12
-1.76
-1.26
-0.75
-0.39
-0.26
-0.35
-0.56
-0.77
-0.83
-0.67
-0.30
0.18
0.60
0.82
0.81
0.61
0.39
0.29
0.40
0.70
1.13
1.65
2.21
2.74
3.11
3.17
2.79
2.00
0.98
0.02
-0.59
-0.78
-0.65
-0.42
-0.31
-0.44
-0.76
-1.16
-1.51
-1.78
-1.96
-2.11
-2.23
-2.32
-2.33
-2.21
-1.94
-1.54
-1.08
-0.67
-0.39
-0.31
-0.39
-0.55
-0.65
-0.60
-0.34
0.09
0.62
1.15
1.65
2.10
2.53
2.98
3.43
3.83
4.03
3.93
3.44
2.61
1.59
0.58
-0.25
-0.83
-1.19
-1.40
-1.53
-1.59
-1.57
-1.48
-1.38
-1.33
-1.37
-1.48
-1.55
-1.47
-1.20
-0.78
-0.38
-0.17
-0.26
-0.64
-1.17
-1.62
-1.80
-1.61
-1.06
-0.27
0.64
1.60
2.54
3.43
4.19
4.70
4.84
4.56
3.94
3.16
2.44
1.89
1.47
1.08
0.55
-0.14
-0.91
-1.55
-1.91
-1.95
-1.78
-1.61
-1.61
-1.90
-2.42
-3.01
-3.51
-3.76
-3.68
-3.33
-2.80
-2.23
-1.75
-1.40
-1.16
-0.93
-0.63
-0.15
0.54
1.46
2.53
3.63
4.54
5.09
5.16
4.79
4.12
3.37
2.68
2.10
1.59
1.09
0.58
0.07
-0.38
-0.75
-1.05
-1.32
-1.56
-1.77
-1.94
-2.09
-2.27
-2.50
-2.76
-3.00
-3.12
-3.05
-2.79
-2.42
-2.01
-1.61
-1.21
-0.76
-0.26
0.27
0.80
1.29
1.77
2.25
2.72
3.12
3.34
3.31
3.04
2.62
2.15
1.71
1.29
0.85
0.35
-0.18
-0.67
-1.05
-1.27
-1.34
-1.32
-1.29
-1.31
-1.45
-1.68
-1.96
-2.17
-2.21
-2.04
-1.67
-1.21
-0.78
-0.43
-0.15
0.08
0.29
0.50
0.71
0.97
1.39
2.06
2.93
3.83
4.48
4.61
4.10
3.08
1.82
0.67
-0.12
-0.45
-0.42
-0.20
0.04
0.18
0.18
0.03
-0.28
-0.77
-1.43
-2.16
-2.83
-3.31
-3.49
-3.42
-3.21
-3.02
-2.98
-3.06
-3.14
-3.07
-2.72
-2.08
-1.23
-0.28
0.66
1.53
2.32
3.03
3.60
3.96
4.02
3.78
3.28
2.66
2.08
1.68
1.47
1.42
1.39
1.26
0.96
0.47
-0.12
-0.68
-1.12
-1.38
-1.49
-1.52
-1.54
-1.63
-1.80
-1.98
-2.11
-2.11
-1.95
-1.68
-1.37
-1.09
-0.89
-0.76
-0.65
-0.51
-0.28
0.05
0.52
1.14
1.87
2.66
3.33
3.72
3.68
3.18
2.34
1.42
0.67
0.29
0.29
0.51
0.72
0.70
0.39
-0.15
-0.72
-1.14
-1.31
-1.28
-1.16
-1.12
-1.25
-1.56
-1.96
-2.33
-2.59
-2.68
-2.59
-2.36
-2.05
-1.70
-1.38
-1.09
-0.80
-0.42
0.14
0.92
1.83
2.69
3.26
3.40
3.10
2.52
1.88
1.38
1.07
0.91
0.80
0.63
0.39
0.07
-0.28
-0.62
-0.90
-1.09
-1.13
-1.05
-0.87
-0.71
-0.62
-0.62
-0.69
-0.76
-0.80
-0.83
-0.88
-0.97
-1.03
-0.95
-0.63
-0.11
0.46
0.82
0.81
0.42
-0.19
-0.76
-1.16
-1.40
-1.70
-2.26
-3.15
-4.21
-5.20
-5.88
-6.21
-6.31
-6.36
-6.47
-6.64
-6.79
-6.93
-7.17
-7.74
-8.76
-10.14
-11.58
-12.72
-13.38
-13.75
-14.36
-15.79
-18.33
-21.74
-25.28
-28.06
-29.51
-29.69
-29.40
-29.79
-31.86
-35.94
-41.47
-47.19
-51.68
-54.04
-54.21
-53.07
-51.92
-51.88
-53.46
-56.40
-59.94
-62.94
-64.03
-61.79
-55.08
-43.76
-29.33
-15.12
-5.33
-3.06
-8.16
-16.20
-19.65
-10.97
13.73
52.66
98.93
143.42
178.12
198.41
203.31
194.36
174.32
146.42
114.38
82.46
54.92
35.08
24.17
21.10
23.24
27.61
31.95
35.11
36.73
36.56
34.28
29.40
21.78
11.84
0.66
-10.21
-19.29
-25.71
-29.36
-30.79
-30.77
-29.89
-28.32
-26.00
-23.00
-19.75
-16.95
-15.24
-14.81
-15.30
-15.94
-15.95
-14.93
-12.91
-10.45
-8.21
-6.72
-6.17
-6.34
-6.77
-6.98
-6.65
-5.75
-4.49
-3.20
-2.14
-1.43
-1.00
-0.68
-0.29
0.19
0.69
1.04
1.09
0.81
0.29
-0.30
-0.79
-1.09
-1.26
-1.36
-1.46
-1.57
-1.60
-1.49
-1.25
-0.95
-0.73
-0.68
-0.83
-1.10
-1.36
-1.51
-1.49
-1.31
-1.05
-0.75
-0.44
-0.12
0.18
0.38
0.35
-0.03
-0.74
-1.59
-2.31
-2.62
-2.46
-1.98
-1.50
-1.30
-1.46
-1.81
-2.10
-2.14
-1.93
-1.63
-1.45
-1.48
-1.61
-1.64
-1.40
-0.92
-0.36
0.01
0.04
-0.27
-0.71
-1.07
-1.17
-1.00
-0.70
-0.42
-0.25
-0.18
-0.09
0.11
0.44
0.79
1.02
1.02
0.78
0.37
-0.07
-0.43
-0.65
-0.74
-0.76
-0.77
-0.81
-0.88
-0.98
-1.10
-1.20
-1.25
-1.20
-1.00
-0.65
-0.19
0.30
0.69
0.88
0.80
0.49
0.05
-0.41
-0.77
-0.98
-1.03
-0.95
-0.77
-0.56
-0.35
-0.16
-0.00
0.14
0.27
0.39
0.50
0.57
0.59
0.56
0.51
0.43
0.32
0.19
0.01
-0.19
-0.38
-0.50
-0.52
-0.43
-0.24
-0.01
0.21
0.38
0.48
0.51
0.48
0.38
0.23
0.05
-0.08
-0.12
-0.08
-0.01
0.00
-0.10
-0.28
-0.45
-0.52
-0.42
-0.19
0.09
0.33
0.48
0.56
0.60
0.62
0.60
0.53
0.45
0.39
0.39
0.44
0.49
0.53
0.52
0.49
0.47
0.43
0.36
0.20
-0.02
-0.26
-0.43
-0.46
-0.34
-0.12
0.12
0.31
0.40
0.39
0.29
0.12
-0.05
-0.16
-0.14
0.03
0.30
0.58
0.75
0.72
0.53
0.23
-0.07
-0.30
-0.43
-0.50
-0.56
-0.65
-0.78
-0.92
-1.00
-0.98
-0.88
-0.77
-0.72
-0.78
-0.89
-0.95
-0.86
-0.57
-0.15
0.30
0.64
0.82
0.86
0.82
0.73
0.64
0.57
0.53
0.57
0.70
0.90
1.10
1.21
1.17
0.97
0.68
0.40
0.23
0.22
0.36
0.59
0.80
0.86
0.70
0.32
-0.20
-0.70
-1.04
-1.14
-1.00
-0.74
-0.47
-0.31
-0.28
-0.37
-0.51
-0.63
-0.70
-0.72
-0.67
-0.55
-0.36
-0.09
0.21
0.46
0.53
0.35
-0.06
-0.58
-1.03
-1.26
-1.19
-0.91
-0.55
-0.27
-0.14
-0.11
-0.11
-0.05
0.07
0.18
0.23
0.17
0.08
0.02
0.06
0.17
0.28
0.30
0.18
-0.04
-0.23
-0.31
-0.22
-0.02
0.21
0.37
0.43
0.39
0.29
0.18
0.07
-0.07
-0.23
-0.38
-0.48
-0.46
-0.29
0.02
0.39
0.72
0.91
0.88
0.63
0.26
-0.09
-0.28
-0.24
-0.00
0.34
0.64
0.79
0.75
0.56
0.28
-0.01
-0.28
-0.49
-0.62
-0.68
-0.68
-0.63
-0.55
-0.45
-0.35
-0.25
-0.16
-0.13
-0.19
-0.36
-0.58
-0.74
-0.74
-0.54
-0.22
0.09
0.23
0.14
-0.12
-0.39
-0.49
-0.32
0.08
0.55
0.91
1.05
0.99
0.84
0.74
0.77
0.91
1.05
1.09
0.97
0.71
0.38
0.07
-0.13
-0.16
-0.02
0.25
0.53
0.69
0.63
0.39
0.08
-0.15
-0.19
-0.05
0.18
0.37
0.45
0.45
0.42
0.36
0.24
0.01
-0.34
-0.72
-1.00
-1.04
-0.82
-0.43
-0.04
0.18
0.16
-0.09
-0.46
-0.82
-1.03
-1.05
-0.89
-0.62
-0.35
-0.12
0.03
0.14
0.22
0.26
0.23
0.11
-0.07
-0.24
-0.28
-0.18
0.02
0.20
0.27
0.22
0.10
0.03
0.06
0.17
0.29
0.37
0.39
0.34
0.22
0.04
-0.21
-0.47
-0.62
-0.55
-0.25
0.17
0.50
0.59
0.40
0.07
-0.18
-0.22
-0.03
0.26
0.47
0.51
0.39
0.21
0.05
-0.05
-0.12
-0.21
-0.31
-0.40
-0.38
-0.22
0.04
0.28
0.39
0.32
0.11
-0.10
-0.22
-0.21
-0.11
-0.01
0.00
-0.07
-0.17
-0.22
-0.20
-0.12
-0.03
0.04
0.10
0.15
0.24
0.35
0.46
0.53
0.51
0.38
0.18
-0.09
-0.36
-0.58
-0.70
-0.74
-0.70
-0.64
-0.60
-0.60
-0.66
-0.76
-0.87
-1.00
-1.11
-1.17
-1.14
-1.02
-0.80
-0.55
-0.33
-0.15
-0.00
0.17
0.39
0.66
0.88
1.00
0.98
0.86
0.72
0.65
0.63
0.63
0.57
0.46
0.35
0.33
0.44
0.64
0.84
0.96
0.97
0.90
0.80
0.70
0.58
0.45
0.32
0.26
0.28
0.38
0.47
0.47
0.37
0.23
0.15
0.19
0.32
0.40
0.32
0.03
-0.35
-0.66
-0.77
-0.65
-0.41
-0.20
-0.10
-0.10
-0.08
0.04
0.27
0.52
0.68
0.63
0.37
-0.00
-0.37
-0.60
-0.64
-0.51
-0.29
-0.10
0.02
0.07
0.09
0.14
0.21
0.27
0.24
0.08
-0.15
-0.35
-0.44
-0.39
-0.27
-0.21
-0.31
-0.57
-0.90
-1.14
-1.15
-0.90
-0.45
0.03
0.37
0.46
0.28
-0.08
-0.47
-0.75
-0.83
-0.69
-0.42
-0.07
0.27
0.58
0.83
1.01
1.06
0.94
0.66
0.26
-0.14
-0.42
-0.51
-0.40
-0.16
0.10
0.34
0.53
0.72
0.93
1.13
1.25
1.20
0.94
0.52
0.08
-0.25
-0.36
-0.26
-0.03
0.19
0.28
0.21
-0.01
-0.32
-0.67
-0.98
-1.19
-1.28
-1.23
-1.07
-0.88
-0.72
-0.65
-0.65
-0.65
-0.55
-0.31
0.03
0.36
0.57
0.62
0.58
0.56
0.66
0.84
1.01
1.04
0.88
0.59
0.28
0.08
0.03
0.06
0.09
0.04
-0.08
-0.21
-0.25
-0.16
0.03
0.23
0.34
0.30
0.09
-0.19
-0.45
-0.62
-0.69
-0.69
-0.69
-0.72
-0.75
-0.75
-0.66
-0.50
-0.30
-0.13
-0.01
0.06
0.12
0.18
0.25
0.29
0.29
0.24
0.16
0.11
0.14
0.25
0.41
0.53
0.52
0.33
-0.05
-0.53
-0.97
-1.23
-1.22
-0.94
-0.44
0.14
0.69
1.09
1.27
1.19
0.90
0.49
0.05
-0.28
-0.45
-0.45
-0.30
-0.08
0.12
0.28
0.38
0.44
0.45
0.42
0.33
0.16
-0.07
-0.34
-0.59
-0.76
-0.83
-0.80
-0.68
-0.53
-0.41
-0.35
-0.33
-0.32
-0.25
-0.12
0.07
0.25
0.38
0.44
0.44
0.44
0.44
0.42
0.33
0.14
-0.12
-0.38
-0.53
-0.51
-0.35
-0.11
0.09
0.19
0.18
0.11
0.04
-0.00
0.02
0.09
0.19
0.30
0.40
0.47
0.48
0.44
0.38
0.32
0.30
0.29
0.26
0.17
0.05
-0.05
-0.01
0.21
0.56
0.91
1.12
1.10
0.90
0.62
0.39
0.25
0.17
0.05
-0.14
-0.39
-0.63
-0.78
-0.82
-0.78
-0.69
-0.60
-0.52
-0.42
-0.30
-0.17
-0.09
-0.09
-0.18
-0.32
-0.45
-0.51
-0.50
-0.44
-0.34
-0.21
-0.02
0.22
0.47
0.61
0.57
0.31
-0.09
-0.44
-0.58
-0.43
-0.02
0.50
0.97
1.23
1.21
0.93
0.46
-0.03
-0.40
-0.51
-0.31
0.13
0.66
1.09
1.31
1.27
1.04
0.71
0.33
-0.03
-0.33
-0.52
-0.55
-0.41
-0.16
0.06
0.15
0.06
-0.19
-0.50
-0.79
-1.01
-1.16
-1.27
-1.33
-1.29
-1.11
-0.78
-0.35
0.05
0.35
0.50
0.54
0.53
0.52
0.53
0.51
0.43
0.29
0.16
0.09
0.09
0.15
0.20
0.22
0.23
0.25
0.30
0.34
0.30
0.15
-0.09
-0.33
-0.46
-0.43
-0.26
-0.03
0.16
0.21
0.10
-0.16
-0.49
-0.80
-0.98
-0.98
-0.78
-0.48
-0.18
0.02
0.08
0.04
-0.02
-0.05
-0.01
0.07
0.15
0.19
0.15
0.05
-0.12
-0.31
-0.49
-0.60
-0.63
-0.57
-0.44
-0.25
-0.01
0.29
0.63
0.94
1.15
1.18
1.03
0.76
0.52
0.41
0.46
0.57
0.60
0.47
0.15
-0.24
-0.59
-0.78
-0.76
-0.58
-0.30
-0.01
0.22
0.36
0.39
0.32
0.20
0.06
-0.04
-0.08
-0.04
0.07
0.23
0.40
0.50
0.47
0.28
-0.03
-0.35
-0.55
-0.54
-0.30
0.08
0.49
0.80
0.97
0.98
0.87
0.68
0.45
0.20
-0.03
-0.22
-0.34
-0.39
-0.37
-0.31
-0.27
-0.30
-0.41
-0.57
-0.70
-0.71
-0.53
-0.17
0.25
0.56
0.62
0.37
-0.10
-0.64
-1.07
-1.28
-1.28
-1.13
-0.87
-0.54
-0.15
0.25
0.57
0.67
0.51
0.16
-0.19
-0.36
-0.24
0.09
0.49
0.76
0.84
0.75
0.59
0.43
0.26
0.05
-0.18
-0.39
-0.49
-0.42
-0.21
0.06
0.26
0.31
0.19
-0.08
-0.41
-0.70
-0.87
-0.84
-0.62
-0.25
0.15
0.46
0.59
0.55
0.42
0.28
0.19
0.18
0.23
0.33
0.46
0.60
0.71
0.74
0.64
0.40
0.09
-0.19
-0.34
-0.36
-0.31
-0.28
-0.35
-0.48
-0.62
-0.68
-0.64
-0.52
-0.39
-0.30
-0.26
-0.23
-0.18
-0.09
0.04
0.19
0.33
0.46
0.54
0.57
0.50
0.30
-0.01
-0.35
-0.65
-0.82
-0.80
-0.63
-0.37
-0.12
0.06
0.14
0.16
0.16
0.18
0.21
0.23
0.22
0.18
0.14
0.11
0.10
0.10
0.08
0.05
-0.00
-0.04
-0.07
-0.10
-0.16
-0.27
-0.44
-0.61
-0.72
-0.70
-0.55
-0.32
-0.12
-0.05
-0.14
-0.35
-0.53
-0.58
-0.41
-0.09
0.25
0.47
0.46
0.25
-0.06
-0.29
-0.32
-0.13
0.18
0.50
0.70
0.73
0.64
0.52
0.42
0.36
0.29
0.20
0.09
0.05
0.12
0.28
0.44
0.48
0.33
0.04
-0.26
-0.43
-0.43
-0.29
-0.08
0.13
0.31
0.48
0.64
0.79
0.88
0.89
0.83
0.77
0.78
0.89
1.06
1.16
1.09
0.80
0.35
-0.12
-0.46
-0.55
-0.44
-0.23
-0.10
-0.14
-0.35
-0.64
-0.86
-0.94
-0.85
-0.68
-0.50
-0.38
-0.30
-0.20
-0.03
0.22
0.50
0.71
0.76
0.61
0.32
-0.04
-0.32
-0.45
-0.41
-0.22
0.01
0.20
0.30
0.28
0.20
0.09
-0.01
-0.11
-0.20
-0.29
-0.37
-0.37
-0.26
-0.07
0.15
0.29
0.28
0.13
-0.11
-0.35
-0.49
-0.50
-0.40
-0.24
-0.06
0.07
0.12
0.10
0.03
-0.02
-0.00
0.10
0.26
0.41
0.48
0.40
0.19
-0.11
-0.40
-0.61
-0.70
-0.69
-0.57
-0.36
-0.09
0.21
0.47
0.62
0.60
0.41
0.10
-0.24
-0.50
-0.63
-0.60
-0.46
-0.26
-0.05
0.12
0.23
0.24
0.18
0.05
-0.10
-0.28
-0.49
-0.72
-0.94
-1.08
-1.07
-0.87
-0.52
-0.13
0.14
0.21
0.06
-0.21
-0.41
-0.41
-0.15
0.30
0.80
1.19
1.33
1.21
0.88
0.45
0.05
-0.20
-0.23
-0.02
0.40
0.89
1.29
1.48
1.39
1.06
0.64
0.29
0.12
0.12
0.19
0.24
0.17
-0.00
-0.24
-0.48
-0.71
-0.95
-1.21
-1.46
-1.60
-1.54
-1.25
-0.79
-0.28
0.11
0.30
0.29
0.16
0.04
-0.00
0.07
0.18
0.24
0.18
-0.02
-0.32
-0.61
-0.82
-0.89
-0.82
-0.64
-0.38
-0.06
0.28
0.61
0.87
1.00
0.99
0.87
0.71
0.62
0.62
0.71
0.85
0.96
0.98
0.89
0.69
0.40
0.09
-0.18
-0.36
-0.42
-0.41
-0.38
-0.40
-0.49
-0.62
-0.73
-0.79
-0.80
-0.78
-0.73
-0.63
-0.41
-0.06
0.36
0.72
0.89
0.77
0.41
-0.07
-0.49
-0.70
-0.68
-0.45
-0.14
0.15
0.36
0.46
0.45
0.36
0.22
0.06
-0.09
-0.19
-0.20
-0.12
0.05
0.27
0.49
0.66
0.71
0.63
0.41
0.09
-0.27
-0.60
-0.82
-0.88
-0.77
-0.50
-0.14
0.21
0.46
0.52
0.40
0.14
-0.16
-0.41
-0.50
-0.39
-0.10
0.27
0.61
0.82
0.86
0.79
0.70
0.65
0.66
0.67
0.60
0.41
0.12
-0.17
-0.37
-0.44
-0.41
-0.36
-0.34
-0.36
-0.37
-0.33
-0.24
-0.12
-0.01
0.09
0.16
0.22
0.25
0.20
0.05
-0.22
-0.51
-0.73
-0.78
-0.65
-0.38
-0.06
0.21
0.37
0.40
0.28
0.04
-0.24
-0.49
-0.59
-0.50
-0.24
0.08
0.34
0.42
0.28
0.01
-0.26
-0.39
-0.31
-0.07
0.22
0.42
0.46
0.37
0.26
0.24
0.34
0.48
0.55
0.46
0.25
0.01
-0.15
-0.20
-0.20
-0.28
-0.50
-0.83
-1.16
-1.34
-1.26
-0.91
-0.39
0.18
0.67
0.98
1.08
0.99
0.76
0.47
0.20
0.01
-0.08
-0.07
-0.01
0.06
0.09
0.06
-0.05
-0.22
-0.47
-0.76
-1.03
-1.21
-1.23
-1.07
-0.77
-0.45
-0.18
-0.01
0.09
0.17
0.28
0.39
0.44
0.43
0.35
0.28
0.30
0.41
0.58
0.74
0.84
0.88
0.88
0.85
0.80
0.69
0.51
0.26
0.00
-0.19
-0.28
-0.29
-0.26
-0.20
-0.11
0.03
0.23
0.46
0.66
0.79
0.83
0.80
0.72
0.62
0.47
0.25
-0.04
-0.37
-0.67
-0.85
-0.89
-0.80
-0.63
-0.43
-0.23
-0.03
0.18
0.40
0.60
0.74
0.78
0.73
0.60
0.43
0.24
0.07
-0.08
-0.23
-0.37
-0.50
-0.59
-0.62
-0.59
-0.51
-0.40
-0.30
-0.24
-0.22
-0.26
-0.30
-0.31
-0.22
-0.03
0.24
0.52
0.74
0.83
0.79
0.63
0.39
0.11
-0.18
-0.49
-0.78
-1.02
-1.19
-1.25
-1.22
-1.12
-0.97
-0.81
-0.63
-0.44
-0.28
-0.17
-0.14
-0.15
-0.14
-0.03
0.19
0.48
0.72
0.80
0.69
0.44
0.19
0.04
0.09
0.29
0.57
0.84
1.01
1.05
0.97
0.80
0.58
0.33
0.09
-0.15
-0.38
-0.57
-0.73
-0.79
-0.75
-0.56
-0.26
0.06
0.28
0.28
0.01
-0.44
-0.91
-1.20
-1.19
-0.92
-0.50
-0.10
0.15
0.23
0.19
0.10
0.04
0.04
0.13
0.30
0.50
0.64
0.63
0.41
-0.01
-0.51
-0.92
-1.09
-0.98
-0.67
-0.33
-0.13
-0.15
-0.36
-0.63
-0.83
-0.84
-0.65
-0.31
0.09
0.46
0.76
0.98
1.12
1.20
1.21
1.15
1.08
1.05
1.13
1.30
1.46
1.46
1.20
0.68
0.05
-0.49
-0.79
-0.83
-0.70
-0.57
-0.53
-0.57
-0.63
-0.62
-0.55
-0.48
-0.48
-0.54
-0.59
-0.53
-0.31
0.03
0.36
0.56
0.54
0.31
-0.04
-0.40
-0.63
-0.66
-0.49
-0.18
0.18
0.47
0.63
0.63
0.54
0.45
0.42
0.48
0.58
0.66
0.66
0.57
0.43
0.31
0.25
0.27
0.34
0.37
0.32
0.16
-0.05
-0.22
-0.26
-0.14
0.10
0.35
0.51
0.49
0.31
0.05
-0.23
-0.44
-0.56
-0.59
-0.56
-0.47
-0.36
-0.25
-0.15
-0.10
-0.13
-0.24
-0.41
-0.58
-0.71
-0.79
-0.81
-0.80
-0.76
-0.67
-0.51
-0.24
0.09
0.40
0.61
0.65
0.55
0.37
0.21
0.13
0.10
0.09
0.04
-0.02
-0.03
0.04
0.21
0.41
0.57
0.62
0.56
0.43
0.28
0.18
0.14
0.16
0.23
0.32
0.40
0.44
0.43
0.36
0.24
0.10
-0.03
-0.12
-0.16
-0.16
-0.15
-0.21
-0.35
-0.56
-0.77
-0.87
-0.81
-0.58
-0.29
-0.06
0.04
-0.01
-0.14
-0.25
-0.27
-0.18
-0.03
0.10
0.16
0.11
-0.00
-0.14
-0.23
-0.25
-0.22
-0.17
-0.16
-0.21
-0.31
-0.38
-0.36
-0.22
-0.02
0.17
0.25
0.19
0.01
-0.20
-0.33
-0.32
-0.14
0.14
0.42
0.59
0.61
0.48
0.31
0.17
0.15
0.22
0.32
0.38
0.33
0.18
0.01
-0.09
-0.05
0.15
0.45
0.75
0.97
1.02
0.87
0.54
0.06
-0.48
-0.97
-1.30
-1.40
-1.27
-0.99
-0.73
-0.63
-0.75
-1.03
-1.33
-1.47
-1.37
-1.04
-0.65
-0.35
-0.27
-0.42
-0.72
-0.99
-1.02
-0.62
0.32
1.79
3.63
5.52
7.09
8.02
8.18
7.63
6.64
5.54
4.55
3.78
3.17
2.56
1.78
0.72
-0.63
-2.15
-3.69
-5.09
-6.26
-7.17
-7.89
-8.46
-8.90
-9.23
-9.40
-9.34
-8.95
-8.13
-6.85
-5.13
-3.17
-1.21
0.49
1.80
2.74
3.48
4.18
4.90
5.56
6.01
6.18
6.13
6.06
6.13
6.37
6.61
6.62
6.23
5.54
4.82
4.44
4.64
5.37
6.34
7.16
7.58
7.55
7.24
6.85
6.50
6.15
5.67
4.99
4.12
3.18
2.33
1.65
1.16
0.77
0.43
0.11
-0.17
-0.41
-0.61
-0.75
-0.86
-0.94
-1.02
-1.10
-1.21
-1.40
-1.67
-2.01
-2.39
-2.74
-2.99
-3.06
-2.87
-2.41
-1.71
-0.87
-0.00
0.80
1.47
1.99
2.41
2.71
2.88
2.86
2.59
2.02
1.16
0.09
-1.06
-2.16
-3.08
-3.78
-4.31
-4.72
-5.09
-5.44
-5.75
-5.99
-6.17
-6.30
-6.41
-6.49
-6.48
-6.30
-5.93
-5.44
-4.96
-4.64
-4.54
-4.62
-4.76
-4.82
-4.75
-4.55
-4.29
-4.03
-3.78
-3.54
-3.32
-3.17
-3.13
-3.24
-3.48
-3.78
-4.05
-4.23
-4.31
-4.30
-4.24
-4.17
-4.13
-4.17
-4.36
-4.76
-5.36
-6.09
-6.82
-7.41
-7.75
-7.83
-7.71
-7.56
-7.53
-7.73
-8.16
-8.72
-9.21
-9.45
-9.28
-8.66
-7.63
-6.31
-4.88
-3.54
-2.45
-1.71
-1.29
-1.02
-0.72
-0.18
0.65
1.69
2.77
3.79
4.71
5.69
7.01
9.06
12.20
16.55
21.78
26.99
30.97
32.57
31.23
27.24
21.66
15.85
10.85
7.14
4.58
2.80
1.53
0.73
0.51
0.87
1.54
2.12
2.26
1.85
1.03
0.08
-0.79
-1.48
-2.03
-2.49
-2.91
-3.26
-3.48
-3.54
-3.36
-2.94
-2.29
-1.49
-0.70
-0.15
-0.01
-0.38
-1.13
-1.98
-2.59
-2.72
-2.34
-1.65
-0.91
-0.39
-0.19
-0.29
-0.59
-0.98
-1.36
-1.67
-1.83
-1.79
-1.51
-1.06
-0.58
-0.23
-0.08
-0.13
-0.26
-0.37
-0.39
-0.33
-0.22
-0.11
-0.01
0.08
0.19
0.30
0.41
0.51
0.59
0.67
0.78
0.90
1.01
1.07
1.04
0.92
0.74
0.53
0.34
0.18
0.02
-0.17
-0.38
-0.56
-0.66
-0.63
-0.47
-0.21
0.05
0.26
0.34
0.29
0.11
-0.14
-0.39
-0.61
-0.76
-0.86
-0.93
-0.99
-1.03
-1.02
-0.88
-0.62
-0.30
-0.02
0.08
-0.06
-0.39
-0.81
-1.14
-1.27
-1.14
-0.77
-0.28
0.20
0.50
0.56
0.37
0.02
-0.35
-0.62
-0.72
-0.67
-0.53
-0.36
-0.17
0.01
0.20
0.37
0.50
0.53
0.46
0.32
0.17
0.06
0.01
-0.02
-0.08
-0.20
-0.36
-0.52
-0.60
-0.57
-0.41
-0.19
0.03
0.18
0.23
0.19
0.07
-0.11
-0.32
-0.53
-0.67
-0.67
-0.48
-0.15
0.21
0.50
0.64
0.64
0.57
0.53
0.56
0.65
0.74
0.78
0.75
0.64
0.47
0.21
-0.14
-0.57
-0.97
-1.23
-1.25
-0.99
-0.56
-0.09
0.25
0.40
0.35
0.17
-0.05
-0.23
-0.32
-0.30
-0.21
-0.11
-0.04
-0.05
-0.13
-0.26
-0.41
-0.53
-0.62
-0.65
-0.60
-0.46
-0.21
0.13
0.51
0.86
1.13
1.28
1.32
1.28
1.17
0.99
0.73
0.36
-0.05
-0.43
-0.72
-0.85
-0.86
-0.79
-0.71
-0.63
-0.54
-0.41
-0.24
-0.08
0.01
0.01
-0.05
-0.07
-0.00
0.14
0.30
0.34
0.21
-0.06
-0.35
-0.51
-0.42
-0.08
0.41
0.89
1.19
1.26
1.14
0.92
0.72
0.58
0.49
0.43
0.38
0.32
0.28
0.26
0.24
0.20
0.11
0.00
-0.11
-0.18
-0.19
-0.15
-0.09
-0.05
-0.03
-0.03
-0.03
-0.00
0.04
0.06
0.00
-0.17
-0.47
-0.82
-1.12
-1.28
-1.25
-1.08
-0.83
-0.61
-0.45
-0.38
-0.35
-0.35
-0.32
-0.24
-0.06
0.21
0.55
0.86
1.04
1.00
0.72
0.30
-0.13
-0.42
-0.52
-0.43
-0.23
-0.00
0.19
0.34
0.42
0.41
0.29
0.07
-0.21
-0.46
-0.60
-0.61
-0.49
-0.32
-0.16
-0.02
0.11
0.25
0.36
0.40
0.30
0.07
-0.22
-0.47
-0.58
-0.55
-0.43
-0.30
-0.23
-0.22
-0.23
-0.22
-0.14
-0.04
0.02
0.00
-0.12
-0.29
-0.43
-0.46
-0.36
-0.15
0.11
0.36
0.56
0.67
0.71
0.66
0.54
0.35
0.17
0.06
0.08
0.21
0.37
0.47
0.42
0.23
-0.03
-0.24
-0.36
-0.38
-0.34
-0.31
-0.35
-0.42
-0.45
-0.38
-0.22
-0.03
0.07
-0.00
-0.22
-0.48
-0.61
-0.49
-0.15
0.30
0.70
0.95
1.03
1.00
0.93
0.87
0.79
0.66
0.48
0.25
-0.00
-0.23
-0.39
-0.47
-0.45
-0.34
-0.16
0.03
0.22
0.39
0.58
0.78
0.95
0.99
0.84
0.46
-0.05
-0.55
-0.90
-1.05
-1.00
-0.85
-0.67
-0.51
-0.40
-0.33
-0.30
-0.31
-0.37
-0.45
-0.54
-0.62
-0.71
-0.79
-0.85
-0.83
-0.73
-0.54
-0.33
-0.18
-0.11
-0.12
-0.13
-0.08
0.05
0.23
0.36
0.38
0.28
0.12
0.00
0.02
0.18
0.43
0.63
0.68
0.53
0.25
-0.05
-0.24
-0.26
-0.12
0.07
0.23
0.28
0.24
0.11
-0.06
-0.25
-0.47
-0.67
-0.76
-0.68
-0.40
0.03
0.44
0.67
0.65
0.40
0.07
-0.16
-0.21
-0.10
0.05
0.13
0.10
0.05
0.07
0.25
0.58
0.93
1.17
1.20
1.02
0.74
0.47
0.30
0.27
0.31
0.36
0.38
0.38
0.37
0.37
0.38
0.34
0.24
0.10
-0.04
-0.09
-0.02
0.16
0.38
0.57
0.66
0.60
0.38
0.07
-0.26
-0.52
-0.63
-0.59
-0.46
-0.32
-0.29
-0.38
-0.53
-0.66
-0.67
-0.55
-0.37
-0.24
-0.23
-0.36
-0.54
-0.65
-0.61
-0.41
-0.12
0.16
0.37
0.49
0.56
0.61
0.68
0.75
0.79
0.76
0.68
0.60
0.58
0.66
0.79
0.89
0.83
0.57
0.12
-0.41
-0.88
-1.18
-1.27
-1.16
-0.92
-0.63
-0.32
-0.05
0.12
0.17
0.09
-0.08
-0.25
-0.34
-0.29
-0.13
0.07
0.24
0.33
0.32
0.21
0.05
-0.12
-0.27
-0.39
-0.49
-0.59
-0.71
-0.82
-0.85
-0.74
-0.47
-0.09
0.28
0.55
0.65
0.61
0.51
0.42
0.35
0.28
0.18
0.06
-0.04
-0.02
0.14
0.43
0.74
0.94
0.95
0.74
0.39
0.03
-0.19
-0.21
-0.05
0.22
0.44
0.54
0.48
0.33
0.20
0.17
0.24
0.40
0.56
0.66
0.71
0.72
0.69
0.62
0.47
0.22
-0.11
-0.45
-0.75
-0.94
-1.01
-0.95
-0.80
-0.59
-0.38
-0.24
-0.23
-0.37
-0.60
-0.85
-0.99
-0.98
-0.84
-0.65
-0.50
-0.41
-0.37
-0.30
-0.16
0.05
0.24
0.35
0.34
0.23
0.09
-0.02
-0.06
-0.05
-0.01
0.04
0.09
0.15
0.19
0.20
0.17
0.10
0.02
-0.04
-0.07
-0.07
-0.07
-0.06
-0.01
0.09
0.27
0.50
0.71
0.84
0.85
0.75
0.61
0.46
0.35
0.26
0.15
0.00
-0.17
-0.33
-0.42
-0.44
-0.44
-0.46
-0.50
-0.53
-0.45
-0.20
0.22
0.71
1.12
1.34
1.33
1.11
0.80
0.46
0.17
-0.07
-0.25
-0.38
-0.46
-0.51
-0.58
-0.69
-0.86
-1.08
-1.29
-1.42
-1.39
-1.20
-0.86
-0.44
-0.02
0.33
0.59
0.77
0.89
0.98
1.02
0.99
0.86
0.64
0.34
0.01
-0.28
-0.50
-0.62
-0.66
-0.61
-0.49
-0.31
-0.09
0.10
0.18
0.09
-0.13
-0.41
-0.61
-0.62
-0.42
-0.12
0.16
0.28
0.23
0.06
-0.09
-0.15
-0.09
0.02
0.09
0.06
-0.05
-0.20
-0.33
-0.39
-0.39
-0.36
-0.33
-0.29
-0.21
-0.05
0.22
0.59
0.99
1.30
1.40
1.26
0.91
0.45
0.03
-0.24
-0.35
-0.33
-0.28
-0.25
-0.28
-0.32
-0.34
-0.28
-0.16
0.01
0.19
0.37
0.51
0.63
0.70
0.72
0.67
0.54
0.32
0.01
-0.37
-0.76
-1.07
-1.19
-1.08
-0.76
-0.32
0.09
0.35
0.39
0.26
0.02
-0.25
-0.51
-0.74
-0.92
-1.02
-0.95
-0.69
-0.29
0.12
0.41
0.48
0.35
0.16
0.04
0.09
0.28
0.50
0.64
0.61
0.46
0.28
0.15
0.12
0.17
0.22
0.23
0.16
0.02
-0.12
-0.21
-0.18
-0.02
0.20
0.42
0.56
0.59
0.50
0.37
0.23
0.10
-0.05
-0.23
-0.42
-0.57
-0.57
-0.39
-0.05
0.34
0.63
0.73
0.67
0.53
0.42
0.40
0.45
0.46
0.33
0.04
-0.34
-0.67
-0.80
-0.72
-0.49
-0.26
-0.13
-0.12
-0.18
-0.20
-0.13
0.01
0.15
0.21
0.17
0.04
-0.11
-0.25
-0.36
-0.47
-0.58
-0.66
-0.64
-0.49
-0.20
0.16
0.49
0.68
0.69
0.53
0.27
0.05
-0.08
-0.08
-0.01
0.02
-0.05
-0.25
-0.51
-0.71
-0.77
-0.66
-0.43
-0.17
0.02
0.12
0.16
0.18
0.21
0.25
0.26
0.22
0.14
0.00
-0.14
-0.24
-0.24
-0.10
0.17
0.51
0.84
1.08
1.17
1.11
0.94
0.71
0.48
0.27
0.08
-0.10
-0.28
-0.40
-0.43
-0.31
-0.04
0.31
0.60
0.70
0.54
0.15
-0.34
-0.74
-0.90
-0.78
-0.47
-0.11
0.14
0.21
0.10
-0.10
-0.31
-0.47
-0.57
-0.61
-0.60
-0.52
-0.37
-0.15
0.10
0.29
0.37
0.32
0.16
-0.01
-0.13
-0.13
-0.00
0.20
0.37
0.44
0.36
0.17
-0.04
-0.18
-0.18
-0.06
0.11
0.25
0.28
0.21
0.06
-0.12
-0.34
-0.57
-0.83
-1.05
-1.15
-1.04
-0.74
-0.32
0.04
0.21
0.14
-0.12
-0.40
-0.58
-0.60
-0.52
-0.42
-0.38
-0.39
-0.38
-0.28
-0.06
0.22
0.46
0.55
0.45
0.18
-0.18
-0.51
-0.68
-0.64
-0.43
-0.15
0.09
0.18
0.13
0.00
-0.07
0.01
0.24
0.53
0.73
0.76
0.60
0.38
0.24
0.26
0.46
0.72
0.92
0.99
0.90
0.74
0.59
0.50
0.48
0.49
0.50
0.48
0.42
0.34
0.29
0.30
0.41
0.61
0.80
0.88
0.74
0.40
-0.02
-0.36
-0.49
-0.42
-0.25
-0.10
-0.04
-0.06
-0.08
-0.04
0.05
0.13
0.14
0.07
-0.05
-0.13
-0.16
-0.14
-0.13
-0.17
-0.27
-0.40
-0.54
-0.63
-0.65
-0.58
-0.40
-0.17
0.05
0.21
0.25
0.17
0.02
-0.13
-0.21
-0.20
-0.11
-0.02
0.01
-0.08
-0.27
-0.51
-0.73
-0.87
-0.89
-0.81
-0.66
-0.48
-0.29
-0.11
0.10
0.31
0.52
0.64
0.62
0.43
0.13
-0.17
-0.32
-0.27
-0.01
0.33
0.65
0.89
1.04
1.17
1.33
1.47
1.53
1.41
1.11
0.70
0.29
-0.03
-0.23
-0.37
-0.52
-0.75
-1.03
-1.29
-1.43
-1.42
-1.24
-0.97
-0.69
-0.47
-0.38
-0.41
-0.54
-0.69
-0.78
-0.74
-0.54
-0.25
0.04
0.22
0.24
0.12
-0.06
-0.19
-0.23
-0.20
-0.15
-0.16
-0.24
-0.39
-0.56
-0.70
-0.73
-0.63
-0.35
0.06
0.55
0.99
1.25
1.24
1.03
0.74
0.53
0.53
0.72
0.98
1.14
1.07
0.75
0.27
-0.22
-0.59
-0.75
-0.70
-0.48
-0.19
0.10
0.30
0.39
0.33
0.15
-0.12
-0.41
-0.65
-0.73
-0.63
-0.35
0.02
0.34
0.51
0.50
0.35
0.17
0.06
0.04
0.09
0.12
0.10
0.02
-0.05
-0.03
0.10
0.27
0.40
0.41
0.29
0.11
-0.03
-0.05
0.04
0.19
0.28
0.28
0.18
0.01
-0.20
-0.44
-0.70
-0.95
-1.12
-1.12
-0.89
-0.47
0.04
0.48
0.72
0.69
0.44
0.10
-0.17
-0.29
-0.22
0.00
0.27
0.53
0.71
0.82
0.83
0.75
0.57
0.31
0.04
-0.15
-0.20
-0.10
0.08
0.22
0.28
0.24
0.17
0.10
0.06
-0.01
-0.12
-0.26
-0.37
-0.37
-0.23
0.02
0.25
0.34
0.27
0.05
-0.21
-0.37
-0.38
-0.23
-0.02
0.16
0.22
0.15
0.00
-0.13
-0.19
-0.15
-0.03
0.12
0.24
0.31
0.30
0.20
0.03
-0.17
-0.33
-0.41
-0.39
-0.30
-0.21
-0.19
-0.28
-0.41
-0.48
-0.41
-0.21
0.04
0.22
0.25
0.12
-0.10
-0.32
-0.48
-0.57
-0.60
-0.57
-0.45
-0.21
0.11
0.43
0.64
0.67
0.56
0.41
0.33
0.34
0.43
0.52
0.56
0.55
0.49
0.40
0.29
0.14
-0.04
-0.22
-0.36
-0.46
-0.51
-0.53
-0.57
-0.62
-0.69
-0.73
-0.74
-0.71
-0.61
-0.45
-0.21
0.08
0.37
0.57
0.59
0.41
0.06
-0.34
-0.63
-0.67
-0.43
0.04
0.58
1.01
1.19
1.06
0.68
0.18
-0.29
-0.61
-0.72
-0.65
-0.48
-0.30
-0.18
-0.12
-0.08
-0.02
0.06
0.14
0.15
0.07
-0.09
-0.25
-0.34
-0.31
-0.17
0.03
0.22
0.38
0.49
0.58
0.66
0.72
0.76
0.73
0.64
0.52
0.39
0.30
0.25
0.24
0.23
0.19
0.10
-0.02
-0.16
-0.28
-0.34
-0.33
-0.26
-0.14
0.01
0.16
0.30
0.44
0.56
0.63
0.60
0.45
0.16
-0.18
-0.48
-0.62
-0.56
-0.35
-0.12
0.02
-0.01
-0.20
-0.47
-0.73
-0.90
-0.94
-0.86
-0.68
-0.43
-0.15
0.12
0.32
0.41
0.40
0.32
0.23
0.21
0.27
0.39
0.50
0.55
0.52
0.43
0.30
0.16
0.01
-0.13
-0.26
-0.36
-0.43
-0.46
-0.50
-0.55
-0.65
-0.76
-0.83
-0.83
-0.72
-0.51
-0.26
-0.04
0.12
0.21
0.27
0.33
0.39
0.42
0.37
0.22
0.03
-0.14
-0.19
-0.08
0.16
0.46
0.71
0.85
0.89
0.85
0.82
0.82
0.84
0.84
0.76
0.57
0.29
-0.04
-0.34
-0.56
-0.68
-0.71
-0.65
-0.53
-0.38
-0.23
-0.15
-0.16
-0.28
-0.47
-0.66
-0.77
-0.75
-0.61
-0.38
-0.14
0.05
0.17
0.23
0.22
0.17
0.06
-0.12
-0.33
-0.50
-0.58
-0.48
-0.22
0.12
0.41
0.53
0.44
0.23
0.01
-0.08
-0.01
0.19
0.42
0.56
0.59
0.53
0.46
0.43
0.45
0.51
0.54
0.49
0.36
0.20
0.07
0.01
0.04
0.13
0.24
0.31
0.31
0.25
0.11
-0.06
-0.25
-0.43
-0.58
-0.68
-0.72
-0.71
-0.65
-0.56
-0.46
-0.34
-0.18
0.01
0.22
0.39
0.50
0.54
0.52
0.49
0.51
0.57
0.62
0.57
0.37
0.02
-0.41
-0.80
-1.03
-1.04
-0.87
-0.62
-0.41
-0.30
-0.29
-0.29
-0.22
-0.07
0.13
0.28
0.30
0.21
0.06
-0.02
0.02
0.16
0.33
0.42
0.39
0.30
0.22
0.23
0.32
0.45
0.53
0.50
0.35
0.13
-0.09
-0.27
-0.43
-0.57
-0.71
-0.83
-0.86
-0.78
-0.60
-0.39
-0.22
-0.15
-0.17
-0.26
-0.33
-0.33
-0.20
0.07
0.43
0.78
1.02
1.06
0.87
0.52
0.13
-0.17
-0.32
-0.32
-0.25
-0.18
-0.15
-0.13
-0.09
0.03
0.23
0.48
0.70
0.80
0.72
0.46
0.10
-0.21
-0.37
-0.31
-0.10
0.14
0.31
0.37
0.34
0.29
0.26
0.23
0.15
0.01
-0.15
-0.21
-0.11
0.17
0.53
0.82
0.91
0.76
0.43
0.05
-0.25
-0.40
-0.40
-0.36
-0.37
-0.50
-0.75
-1.06
-1.32
-1.44
-1.36
-1.10
-0.72
-0.30
0.05
0.27
0.31
0.18
-0.06
-0.31
-0.50
-0.57
-0.54
-0.45
-0.37
-0.33
-0.33
-0.34
-0.30
-0.22
-0.10
0.01
0.08
0.09
0.05
-0.01
-0.05
-0.02
0.07
0.21
0.36
0.47
0.53
0.55
0.59
0.69
0.86
1.02
1.10
1.05
0.89
0.67
0.49
0.41
0.41
0.45
0.46
0.41
0.32
0.22
0.12
0.00
-0.13
-0.30
-0.48
-0.65
-0.74
-0.75
-0.68
-0.54
-0.37
-0.20
-0.06
0.03
0.08
0.11
0.15
0.24
0.37
0.51
0.62
0.62
0.53
0.37
0.21
0.09
0.05
0.07
0.10
0.12
0.09
0.06
0.06
0.11
0.22
0.34
0.41
0.36
0.19
-0.08
-0.38
-0.64
-0.82
-0.87
-0.81
-0.63
-0.38
-0.12
0.10
0.23
0.24
0.13
-0.06
-0.30
-0.53
-0.71
-0.78
-0.72
-0.54
-0.29
-0.05
0.13
0.21
0.22
0.19
0.13
0.05
-0.06
-0.19
-0.30
-0.34
-0.28
-0.13
0.05
0.18
0.21
0.13
-0.01
-0.14
-0.22
-0.24
-0.22
-0.19
-0.16
-0.14
-0.14
-0.18
-0.28
-0.42
-0.50
-0.45
-0.19
0.24
0.72
1.08
1.22
1.15
0.98
0.82
0.75
0.73
0.68
0.56
0.38
0.23
0.20
0.32
0.55
0.74
0.77
0.56
0.16
-0.31
-0.67
-0.83
-0.78
-0.61
-0.40
-0.22
-0.05
0.13
0.31
0.45
0.45
0.24
-0.16
-0.63
-0.98
-1.06
-0.82
-0.35
0.18
0.60
0.77
0.71
0.46
0.16
-0.11
-0.27
-0.32
-0.33
-0.33
-0.36
-0.43
-0.53
-0.63
-0.71
-0.76
-0.76
-0.70
-0.58
-0.40
-0.21
-0.04
0.07
0.14
0.18
0.23
0.31
0.41
0.50
0.56
0.61
0.69
0.83
1.00
1.14
1.16
1.02
0.74
0.44
0.22
0.13
0.12
0.11
0.01
-0.17
-0.34
-0.37
-0.20
0.14
0.51
0.71
0.64
0.29
-0.21
-0.66
-0.92
-0.90
-0.68
-0.36
-0.10
0.04
0.05
0.02
-0.01
-0.02
-0.07
-0.22
-0.51
-0.91
-1.26
-1.45
-1.41
-1.16
-0.84
-0.55
-0.34
-0.18
-0.00
0.24
0.52
0.75
0.83
0.77
0.63
0.55
0.60
0.78
1.00
1.12
1.05
0.81
0.45
0.11
-0.13
-0.21
-0.15
-0.02
0.08
0.08
-0.04
-0.26
-0.49
-0.63
-0.66
-0.57
-0.46
-0.41
-0.49
-0.66
-0.85
-0.94
-0.87
-0.66
-0.39
-0.16
-0.08
-0.13
-0.27
-0.38
-0.37
-0.20
0.06
0.34
0.52
0.56
0.49
0.36
0.26
0.23
0.27
0.33
0.35
0.26
0.06
-0.19
-0.41
-0.49
-0.35
0.02
0.51
0.96
1.18
1.06
0.62
0.02
-0.55
-0.92
-1.06
-1.02
-0.91
-0.81
-0.70
-0.55
-0.33
-0.07
0.13
0.18
0.07
-0.14
-0.35
-0.48
-0.53
-0.53
-0.53
-0.54
-0.51
-0.42
-0.29
-0.20
-0.24
-0.48
-0.85
-1.25
-1.56
-1.75
-1.86
-1.97
-2.12
-2.25
-2.27
-2.10
-1.76
-1.35
-1.05
-0.97
-1.14
-1.52
-1.97
-2.38
-2.68
-2.84
-2.86
-2.74
-2.49
-2.12
-1.71
-1.33
-1.06
-0.95
-0.99
-1.12
-1.27
-1.39
-1.47
-1.48
-1.40
-1.25
-1.03
-0.81
-0.60
-0.40
-0.09
0.41
1.16
2.10
3.06
3.90
4.57
5.06
5.45
5.74
5.92
5.97
5.99
6.15
6.61
7.42
8.40
9.26
9.72
9.64
9.10
8.24
7.19
6.00
4.59
2.91
0.98
-1.05
-2.93
-4.34
-5.06
-4.96
-4.13
-2.81
-1.37
-0.13
0.67
0.94
0.72
0.10
-0.77
-1.69
-2.33
-2.29
-1.25
0.91
3.95
7.31
10.34
12.51
13.63
13.81
13.39
12.69
11.87
10.93
9.76
8.32
6.69
5.04
3.65
2.68
2.17
2.00
1.88
1.49
0.58
-0.91
-2.81
-4.74
-6.30
-7.21
-7.44
-7.24
-6.98
-6.97
-7.35
-8.00
-8.71
-9.35
-9.98
-10.83
-12.12
-13.86
-15.72
-17.22
-17.92
-17.78
-17.20
-16.88
-17.49
-19.32
-22.17
-25.42
-28.43
-30.81
-32.69
-34.58
-37.12
-40.70
-45.18
-49.95
-54.17
-57.24
-59.11
-60.28
-61.53
-63.48
-66.28
-69.53
-72.40
-73.99
-73.53
-70.74
-66.01
-60.53
-56.04
-54.35
-56.52
-62.05
-68.55
-72.12
-68.33
-53.43
-25.57
14.62
63.90
117.03
167.94
211.29
243.81
264.91
276.05
279.28
275.59
264.01
242.09
207.44
159.55
101.00
37.25
-24.82
-78.84
-120.71
-149.24
-165.93
-173.90
-176.75
-177.44
-177.95
-179.28
-181.97
-186.34
-192.60
-200.64
-209.68
-218.29
-224.60
-226.79
-223.42
-213.56
-196.71
-172.64
-141.13
-102.04
-55.73
-3.62
51.27
104.40
150.52
185.12
205.97
213.87
212.37
206.26
199.85
195.55
193.66
193.17
192.98
192.71
192.79
193.92
196.41
199.82
203.26
205.87
207.25
207.62
207.51
207.42
207.55
207.92
208.76
210.66
214.28
219.57
225.10
227.99
224.58
211.76
188.22
154.75
113.55
67.09
17.35
-34.02
-84.89
-132.06
-171.41
-199.29
-214.09
-217.08
-211.91
-203.05
-193.95
-186.05
-179.04
-171.82
-163.66
-154.69
-145.61
-137.15
-129.48
-122.22
-114.75
-106.66
-97.93
-88.98
-80.47
-72.93
-66.61
-61.40
-56.88
-52.56
-48.03
-43.17
-38.12
-33.22
-28.82
-25.12
-22.10
-19.57
-17.24
-14.89
-12.43
-9.90
-7.48
-5.34
-3.58
-2.19
-1.08
-0.12
0.78
1.62
2.28
2.62
2.59
2.23
1.71
1.23
0.95
0.91
1.02
1.15
1.17
1.05
0.82
0.62
0.54
0.65
0.91
1.23
1.46
1.50
1.33
1.02
0.73
0.57
0.61
0.80
1.04
1.22
1.29
1.28
1.23
1.13
0.96
0.69
0.32
-0.05
-0.30
-0.34
-0.19
0.07
0.30
0.43
0.46
0.46
0.49
0.56
0.62
0.59
0.42
0.09
-0.31
-0.71
-1.02
-1.17
-1.16
-0.96
-0.63
-0.25
0.09
0.30
0.33
0.24
0.12
0.08
0.18
0.40
0.64
0.85
0.97
1.02
1.01
0.95
0.82
0.63
0.44
0.31
0.31
0.43
0.58
0.67
0.63
0.45
0.16
-0.21
-0.66
-1.20
-1.78
-2.30
-2.57
-2.51
-2.10
-1.52
-0.98
-0.64
-0.53
-0.55
-0.54
-0.41
-0.20
-0.03
-0.02
-0.17
-0.41
-0.60
-0.68
-0.68
-0.69
-0.77
-0.89
-0.97
-0.90
-0.65
-0.32
-0.01
0.18
0.28
0.39
0.68
1.19
1.87
2.52
2.92
2.93
2.54
1.91
1.26
0.76
0.52
0.49
0.58
0.68
0.72
0.65
0.43
0.08
-0.37
-0.86
-1.27
-1.57
-1.71
-1.74
-1.68
-1.54
-1.29
-0.90
-0.40
0.13
0.57
0.86
1.03
1.18
1.39
1.72
2.10
