1659458493.00
64.000000
-0.00
-0.00
-0.00
-0.00
-0.00
-0.00
-0.00
-0.00
-0.00
-0.00
0.00
0.01
0.01
-0.00
-0.03
-0.05
-0.05
0.00
0.13
0.36
0.66
1.01
1.37
1.72
2.06
2.40
2.79
3.24
3.80
4.42
5.06
5.66
6.20
6.68
7.15
7.68
8.31
9.14
10.09
11.04
11.88
12.56
13.14
13.76
14.65
15.96
17.92
20.32
22.91
25.38
27.58
29.57
31.67
34.32
37.83
42.58
48.20
54.15
59.81
64.84
69.29
73.68
78.74
85.00
93.02
102.24
111.85
120.92
128.86
135.70
142.11
149.44
156.43
165.31
176.66
190.49
205.56
218.90
226.23
222.98
205.87
174.09
130.02
77.39
20.35
-38.01
-96.21
-153.92
-211.05
-267.03
-320.83
-371.01
-416.85
-458.03
-494.29
-524.92
-548.37
-562.45
-564.91
-554.28
-530.32
-494.62
-449.91
-399.41
-346.02
-291.77
-237.74
-184.49
-132.48
-82.48
-35.86
5.90
41.45
69.85
90.75
104.53
112.48
116.99
121.37
129.00
142.22
161.24
183.85
206.16
224.13
235.09
238.52
235.66
228.44
218.46
206.55
193.02
178.27
163.09
148.58
135.62
124.44
114.55
105.06
95.19
84.71
73.97
63.71
54.62
47.07
41.10
36.19
31.78
27.44
23.00
18.57
14.36
10.58
7.37
4.76
2.67
0.94
-0.57
-1.99
-3.33
-4.55
-5.50
-6.11
-6.33
-6.25
-5.99
-5.69
-5.48
-5.41
-5.51
-5.72
-5.95
-6.10
-6.13
-6.08
-6.01
-5.92
-5.74
-5.36
-4.65
-3.64
-2.51
-1.51
-0.90
-0.78
-1.11
-1.70
-2.38
-2.96
-3.36
-3.54
-3.54
-3.45
-3.38
-3.40
-3.52
-3.66
-3.69
-3.51
-3.10
-2.55
-2.02
-1.66
-1.57
-1.73
-2.09
-2.48
-2.78
-2.81
-2.53
-1.95
-1.20
-0.42
0.23
0.67
0.90
0.97
0.97
0.98
1.08
1.30
1.63
2.04
2.44
2.78
3.05
3.34
3.80
4.54
5.55
6.65
7.63
8.27
8.44
8.18
7.59
6.76
5.76
4.62
3.27
1.69
-0.08
-1.91
-3.64
-5.14
-6.32
-7.19
-7.79
-8.22
-8.54
-8.72
-8.74
-8.56
-8.17
-7.64
-7.08
-6.58
-6.15
-5.75
-5.26
-4.63
-3.89
-3.18
-2.67
-2.45
-2.50
-2.64
-2.67
-2.47
-2.09
-1.70
-1.50
-1.61
-1.92
-2.22
-2.28
-1.96
-1.32
-0.58
0.02
0.30
0.24
-0.05
-0.42
-0.75
-1.00
-1.18
-1.34
-1.46
-1.48
-1.33
-0.99
-0.53
-0.08
0.24
0.36
0.28
0.06
-0.24
-0.58
-0.94
-1.32
-1.70
-2.07
-2.39
-2.64
-2.77
-2.71
-2.40
-1.77
-0.87
0.16
1.10
1.75
2.02
1.97
1.80
1.69
1.74
1.93
2.10
2.14
1.99
1.71
1.44
1.27
1.26
1.37
1.49
1.54
1.45
1.22
0.93
0.66
0.47
0.40
0.39
0.36
0.20
-0.10
-0.48
-0.83
-1.04
-1.08
-1.03
-0.99
-1.07
-1.26
-1.51
-1.75
-1.96
-2.18
-2.47
-2.83
-3.15
-3.28
-3.07
-2.51
-1.71
-0.85
-0.10
0.48
0.88
1.18
1.42
1.63
1.78
1.87
1.90
1.89
1.89
1.92
2.02
2.19
2.41
2.60
2.68
2.54
2.17
1.61
0.99
0.46
0.12
-0.01
-0.02
-0.00
-0.08
-0.27
-0.55
-0.82
-1.00
-1.03
-0.92
-0.77
-0.71
-0.83
-1.17
-1.66
-2.16
-2.55
-2.74
-2.77
-2.70
-2.61
-2.48
-2.27
-1.88
-1.29
-0.55
0.19
0.79
1.20
1.43
1.58
1.73
1.91
2.07
2.14
2.11
2.01
1.92
1.92
2.01
2.12
2.15
2.02
1.72
1.34
0.98
0.73
0.61
0.58
0.55
0.48
0.33
0.13
-0.09
-0.29
-0.49
-0.68
-0.91
-1.19
-1.57
-2.05
-2.64
-3.28
-3.89
-4.35
-4.57
-4.48
-4.08
-3.43
-2.58
-1.63
-0.64
0.32
1.16
1.77
2.09
2.14
2.03
1.91
1.90
2.01
2.14
2.15
1.96
1.61
1.22
0.96
0.92
1.03
1.19
1.29
1.24
1.07
0.81
0.51
0.21
-0.03
-0.16
-0.13
0.03
0.19
0.25
0.13
-0.16
-0.48
-0.69
-0.73
-0.69
-0.70
-0.88
-1.24
-1.68
-2.10
-2.43
-2.71
-2.98
-3.24
-3.37
-3.21
-2.63
-1.69
-0.55
0.52
1.30
1.73
1.88
1.90
1.91
1.95
1.95
1.81
1.50
1.07
0.69
0.51
0.61
0.93
1.30
1.51
1.46
1.16
0.78
0.49
0.41
0.50
0.64
0.69
0.54
0.23
-0.16
-0.46
-0.57
-0.45
-0.16
0.13
0.23
0.06
-0.34
-0.79
-1.11
-1.23
-1.23
-1.30
-1.54
-1.88
-2.06
-1.85
-1.17
-0.19
0.73
1.33
1.53
1.55
1.68
2.09
2.71
3.25
3.41
3.04
2.26
1.35
0.63
0.28
0.29
0.50
0.69
0.73
0.60
0.39
0.21
0.13
0.12
0.09
-0.04
-0.33
-0.74
-1.17
-1.48
-1.57
-1.41
-1.06
-0.68
-0.49
-0.61
-1.10
-1.83
-2.59
-3.16
-3.42
-3.42
-3.31
-3.17
-3.01
-2.70
-2.08
-1.11
0.05
1.13
1.89
2.22
2.21
2.06
1.97
2.00
2.08
2.11
2.01
1.81
1.62
1.52
1.54
1.61
1.65
1.59
1.44
1.29
1.18
1.14
1.11
1.05
0.95
0.81
0.69
0.59
0.48
0.31
0.11
-0.06
-0.14
-0.10
-0.06
-0.16
-0.51
-1.06
-1.66
-2.10
-2.23
-2.05
-1.67
-1.24
-0.80
-0.37
0.11
0.64
1.14
1.54
1.75
1.77
1.68
1.59
1.58
1.64
1.73
1.73
1.56
1.21
0.77
0.38
0.21
0.30
0.57
0.86
0.93
0.68
0.14
-0.51
-1.05
-1.35
-1.35
-1.17
-0.93
-0.74
-0.63
-0.60
-0.63
-0.71
-0.90
-1.21
-1.61
-2.02
-2.32
-2.42
-2.31
-2.09
-1.88
-1.81
-1.88
-2.02
-2.06
-1.85
-1.34
-0.61
0.15
0.74
1.06
1.15
1.17
1.26
1.48
1.75
1.89
1.77
1.38
0.84
0.37
0.16
0.30
0.73
1.28
1.79
2.12
2.20
2.03
1.72
1.39
1.16
1.11
1.20
1.27
1.19
0.87
0.34
-0.23
-0.63
-0.76
-0.66
-0.52
-0.54
-0.84
-1.38
-1.99
-2.47
-2.72
-2.76
-2.66
-2.50
-2.28
-1.95
-1.45
-0.79
-0.10
0.47
0.79
0.84
0.70
0.57
0.59
0.84
1.27
1.73
2.05
2.12
1.97
1.68
1.43
1.28
1.22
1.16
1.01
0.75
0.46
0.24
0.19
0.29
0.43
0.50
0.41
0.18
-0.12
-0.40
-0.57
-0.60
-0.51
-0.39
-0.34
-0.46
-0.82
-1.41
-2.13
-2.78
-3.21
-3.27
-2.98
-2.41
-1.65
-0.82
0.01
0.77
1.31
1.52
1.34
0.84
0.27
-0.09
-0.01
0.47
1.14
1.66
1.80
1.53
1.07
0.70
0.59
0.73
0.94
1.00
0.79
0.38
-0.05
-0.32
-0.36
-0.21
-0.05
-0.04
-0.26
-0.69
-1.15
-1.46
-1.48
-1.19
-0.74
-0.32
-0.15
-0.31
-0.73
-1.25
-1.69
-1.96
-2.10
-2.20
-2.34
-2.48
-2.50
-2.30
-1.83
-1.18
-0.51
0.04
0.41
0.63
0.77
0.85
0.81
0.58
0.15
-0.39
-0.86
-1.06
-0.90
-0.43
0.21
0.81
1.23
1.42
1.37
1.14
0.77
0.35
-0.06
-0.37
-0.54
-0.61
-0.67
-0.82
-1.11
-1.47
-1.76
-1.83
-1.64
-1.26
-0.86
-0.59
-0.52
-0.57
-0.66
-0.69
-0.64
-0.54
-0.43
-0.28
-0.06
0.28
0.70
1.11
1.40
1.54
1.61
1.72
1.98
2.35
2.69
2.79
2.54
2.02
1.42
1.01
0.89
1.05
1.33
1.56
1.66
1.62
1.48
1.29
1.01
0.62
0.12
-0.44
-0.95
-1.36
-1.64
-1.81
-1.90
-1.89
-1.74
-1.43
-1.04
-0.71
-0.60
-0.85
-1.43
-2.19
-2.92
-3.42
-3.60
-3.51
-3.23
-2.84
-2.35
-1.74
-1.02
-0.26
0.44
0.93
1.17
1.21
1.14
1.07
1.04
1.04
1.03
1.00
0.99
1.10
1.38
1.82
2.34
2.84
3.21
3.41
3.40
3.22
2.88
2.46
2.02
1.63
1.33
1.15
1.05
0.97
0.86
0.73
0.59
0.49
0.44
0.42
0.35
0.18
-0.11
-0.49
-0.89
-1.25
-1.52
-1.67
-1.66
-1.50
-1.17
-0.74
-0.27
0.10
0.27
0.19
-0.09
-0.45
-0.73
-0.80
-0.58
-0.09
0.54
1.12
1.48
1.54
1.32
0.95
0.57
0.27
0.03
-0.17
-0.37
-0.55
-0.66
-0.66
-0.57
-0.46
-0.37
-0.29
-0.19
0.01
0.29
0.60
0.85
0.95
0.88
0.62
0.20
-0.37
-1.05
-1.73
-2.32
-2.69
-2.78
-2.62
-2.23
-1.69
-1.03
-0.27
0.50
1.16
1.55
1.57
1.26
0.78
0.32
0.07
0.07
0.23
0.43
0.51
0.43
0.20
-0.10
-0.41
-0.66
-0.83
-0.90
-0.86
-0.70
-0.44
-0.11
0.24
0.54
0.73
0.76
0.66
0.48
0.29
0.14
0.03
-0.06
-0.17
-0.33
-0.53
-0.73
-0.90
-1.05
-1.22
-1.48
-1.87
-2.33
-2.71
-2.83
-2.54
-1.84
-0.86
0.17
1.01
1.52
1.69
1.62
1.49
1.41
1.45
1.55
1.63
1.60
1.43
1.18
0.94
0.79
0.74
0.72
0.62
0.39
0.04
-0.30
-0.50
-0.50
-0.34
-0.14
-0.03
-0.06
-0.19
-0.28
-0.26
-0.10
0.13
0.30
0.33
0.18
-0.10
-0.43
-0.75
-1.02
-1.26
-1.50
-1.76
-2.02
-2.22
-2.28
-2.10
-1.65
-0.94
-0.10
0.70
1.29
1.58
1.59
1.47
1.35
1.28
1.24
1.16
0.99
0.77
0.65
0.77
1.16
1.77
2.38
2.76
2.74
2.34
1.69
1.02
0.50
0.22
0.11
0.09
0.03
-0.10
-0.27
-0.42
-0.51
-0.57
-0.62
-0.70
-0.80
-0.86
-0.82
-0.68
-0.51
-0.46
-0.66
-1.13
-1.76
-2.34
-2.62
-2.44
-1.78
-0.79
0.23
0.99
1.29
1.09
0.56
-0.05
-0.47
-0.56
-0.32
0.09
0.45
0.63
0.61
0.49
0.42
0.49
0.70
0.98
1.24
1.42
1.54
1.61
1.66
1.65
1.50
1.17
0.68
0.11
-0.38
-0.68
-0.72
-0.57
-0.33
-0.13
-0.03
-0.05
-0.15
-0.30
-0.50
-0.79
-1.19
-1.67
-2.14
-2.46
-2.53
-2.30
-1.78
-1.06
-0.26
0.50
1.09
1.41
1.45
1.26
0.95
0.69
0.57
0.60
0.67
0.66
0.49
0.18
-0.13
-0.32
-0.36
-0.29
-0.21
-0.15
-0.09
0.06
0.36
0.75
1.13
1.34
1.27
0.94
0.47
0.04
-0.18
-0.16
0.04
0.28
0.42
0.36
0.09
-0.34
-0.85
-1.39
-1.94
-2.47
-2.93
-3.23
-3.25
-2.92
-2.24
-1.36
-0.47
0.25
0.66
0.80
0.74
0.64
0.58
0.59
0.65
0.69
0.67
0.61
0.55
0.52
0.53
0.59
0.67
0.77
0.89
1.03
1.17
1.28
1.34
1.35
1.34
1.32
1.30
1.25
1.16
1.01
0.80
0.53
0.25
-0.01
-0.24
-0.40
-0.52
-0.61
-0.70
-0.83
-0.98
-1.13
-1.28
-1.38
-1.42
-1.34
-1.08
-0.58
0.12
0.91
1.57
1.91
1.87
1.57
1.23
1.06
1.12
1.29
1.40
1.34
1.14
0.97
0.93
1.03
1.15
1.10
0.82
0.38
-0.05
-0.30
-0.32
-0.18
-0.02
0.05
0.00
-0.15
-0.34
-0.50
-0.61
-0.64
-0.61
-0.56
-0.59
-0.76
-1.11
-1.57
-2.02
-2.36
-2.49
-2.45
-2.29
-2.06
-1.78
-1.40
-0.88
-0.25
0.42
0.96
1.24
1.22
0.98
0.67
0.45
0.41
0.52
0.67
0.73
0.64
0.41
0.18
0.08
0.17
0.42
0.73
0.99
1.13
1.14
1.08
0.95
0.72
0.39
-0.02
-0.45
-0.79
-0.98
-1.00
-0.90
-0.77
-0.64
-0.54
-0.48
-0.51
-0.69
-1.05
-1.58
-2.14
-2.56
-2.70
-2.51
-2.05
-1.46
-0.89
-0.43
-0.11
0.07
0.11
0.05
-0.05
-0.09
0.06
0.47
1.09
1.75
2.24
2.41
2.24
1.85
1.44
1.14
0.97
0.85
0.67
0.43
0.20
0.09
0.18
0.41
0.67
0.80
0.75
0.54
0.27
0.02
-0.19
-0.43
-0.74
-1.13
-1.55
-1.88
-2.05
-2.03
-1.88
-1.69
-1.58
-1.58
-1.70
-1.88
-2.00
-1.95
-1.62
-0.99
-0.19
0.59
1.16
1.44
1.48
1.46
1.51
1.69
1.92
2.03
1.93
1.62
1.24
0.96
0.86
0.95
1.11
1.22
1.18
1.05
0.90
0.80
0.76
0.73
0.65
0.49
0.27
0.07
-0.08
-0.18
-0.28
-0.46
-0.74
-1.06
-1.34
-1.50
-1.51
-1.42
-1.31
-1.26
-1.26
-1.31
-1.34
-1.31
-1.19
-0.97
-0.66
-0.26
0.19
0.62
0.95
1.14
1.19
1.14
1.05
0.95
0.81
0.61
0.37
0.18
0.12
0.27
0.56
0.84
0.94
0.75
0.32
-0.18
-0.54
-0.65
-0.52
-0.30
-0.15
-0.17
-0.35
-0.61
-0.85
-0.99
-1.05
-1.06
-1.05
-1.03
-1.00
-0.95
-0.84
-0.66
-0.39
-0.05
0.35
0.77
1.20
1.59
1.94
2.23
2.44
2.53
2.48
2.30
2.02
1.73
1.50
1.36
1.32
1.32
1.28
1.13
0.85
0.46
0.05
-0.28
-0.43
-0.38
-0.18
0.07
0.19
0.03
-0.49
-1.36
-2.44
-3.54
-4.45
-5.02
-5.18
-5.01
-4.65
-4.31
-4.13
-4.17
-4.37
-4.59
-4.69
-4.54
-4.15
-3.61
-3.07
-2.64
-2.39
-2.29
-2.26
-2.18
-1.94
-1.51
-0.90
-0.19
0.51
1.08
1.47
1.73
1.93
2.14
2.33
2.41
2.28
1.92
1.46
1.09
0.97
1.10
1.38
1.61
1.68
1.56
1.33
1.11
0.96
0.90
0.87
0.83
0.73
0.57
0.34
0.09
-0.09
-0.10
0.13
0.57
1.06
1.39
1.39
1.02
0.42
-0.22
-0.74
-1.11
-1.36
-1.55
-1.60
-1.40
-0.82
0.13
1.24
2.24
2.87
3.05
2.94
2.83
2.95
3.42
4.08
4.68
4.97
4.84
4.40
3.89
3.58
3.64
4.07
4.71
5.39
5.94
6.36
6.75
7.24
7.95
8.87
9.91
10.93
11.85
12.64
13.43
14.41
15.80
17.75
20.23
23.06
25.93
28.57
30.83
32.80
34.80
37.25
40.49
44.62
49.46
54.54
59.37
63.64
67.47
71.40
76.10
82.09
89.38
97.54
106.11
115.02
124.81
135.92
148.09
159.50
166.91
166.51
155.16
131.15
94.29
45.51
-13.06
-77.41
-140.87
-194.12
-226.83
-230.57
-202.03
-144.88
-69.11
11.91
85.48
142.73
180.10
198.83
203.19
198.39
189.03
178.24
167.49
156.99
146.44
135.77
125.33
115.36
105.72
95.94
85.80
75.99
67.97
63.05
61.33
60.78
57.67
48.32
31.09
7.46
-18.61
-42.87
-63.05
-79.65
-95.10
-111.82
-130.63
-150.73
-170.87
-190.19
-208.26
-224.63
-238.16
-247.12
-249.89
-245.97
-236.34
-222.89
-207.51
-191.38
-175.06
-158.95
-143.72
-130.26
-119.27
-110.80
-104.22
-98.67
-93.74
-89.55
-86.44
-84.33
-82.53
-80.04
-76.09
-70.58
-63.72
-55.50
-45.28
-32.26
-16.60
-0.09
14.23
23.46
26.48
24.85
22.03
21.32
24.04
28.93
33.12
33.82
29.63
20.67
8.00
-7.13
-23.50
-39.67
-53.83
-64.24
-70.13
-72.10
-71.88
-71.55
-72.72
-75.96
-80.61
-84.99
-86.73
-83.58
-74.36
-59.77
-42.45
-26.06
-13.84
-7.26
-5.42
-5.42
-3.65
2.75
14.85
31.75
51.17
70.41
87.54
101.72
113.27
122.97
131.37
137.75
139.97
135.33
122.21
101.41
76.30
51.57
31.34
17.72
10.51
7.86
7.42
7.26
6.35
4.60
2.52
0.97
0.61
1.46
2.74
3.09
1.36
-2.48
-7.22
-11.09
-13.31
-15.19
-19.47
-28.38
-41.88
-57.23
-70.35
-78.06
-79.54
-76.25
-70.69
-65.20
-61.28
-59.63
-60.23
-62.26
-63.83
-62.22
-54.79
-40.47
-20.89
-0.03
17.38
28.09
31.57
29.67
25.16
20.12
15.30
10.65
6.15
2.16
-0.89
-3.19
-5.70
-9.59
-15.87
-24.92
-36.28
-48.47
-59.25
-65.69
-64.77
-54.31
-34.05
-6.36
24.00
51.02
69.27
75.62
70.12
55.85
37.95
22.03
12.49
11.17
16.78
25.39
32.13
33.36
28.08
17.80
5.24
-7.21
-18.08
-26.49
-31.62
-32.50
-28.66
-21.05
-12.43
-6.57
-6.89
-14.69
-28.09
-42.21
-50.92
-49.27
-35.56
-12.05
15.94
41.96
60.51
68.50
65.89
55.44
41.74
29.78
23.39
24.01
30.25
38.52
44.60
45.50
40.48
31.01
19.71
8.89
0.11
-5.56
-7.32
-4.78
1.56
10.01
17.98
23.15
24.62
23.39
21.47
20.36
19.80
17.87
12.62
3.82
-6.41
-14.75
-18.56
-17.97
-16.03
-16.98
-23.55
-34.96
-46.86
-53.70
-52.64
-44.93
-35.57
-30.47
-32.80
-41.13
-50.47
-55.53
-54.08
-49.29
-46.65
-50.56
-61.11
-73.81
-82.68
-84.28
-80.07
-75.34
-77.01
-87.21
-101.56
-111.58
-109.93
-95.90
-76.85
-64.58
-68.22
-89.83
-120.02
-142.98
-144.88
-121.30
-80.54
-39.54
-15.43
-4.95
-1.13
7.49
29.49
65.09
107.16
145.84
174.06
190.16
196.58
195.89
190.84
183.30
172.69
160.78
148.96
137.82
127.46
116.49
101.98
82.01
55.77
23.78
-11.24
-45.22
-73.43
-86.43
-79.84
-56.84
-27.76
-7.17
-7.46
-31.88
-72.16
-111.96
-135.12
-135.33
-119.48
-103.76
-105.29
-133.39
-185.23
-248.27
-306.63
-347.79
-366.89
-365.84
-349.57
-322.57
-287.01
-243.35
-192.42
-136.98
-81.73
-32.48
6.61
34.88
55.95
76.13
101.81
136.78
180.77
229.69
276.83
315.18
339.47
347.02
337.89
314.26
279.79
239.31
198.39
162.00
133.06
111.28
93.40
74.93
52.53
25.71
-3.10
-30.04
-51.98
-67.64
-77.32
-81.61
-80.14
-71.73
-56.05
-35.38
-14.84
-0.52
3.48
-2.68
-14.32
-24.32
-26.29
-17.25
1.36
24.41
45.59
60.14
66.71
67.45
66.58
68.00
73.25
80.74
86.85
88.25
84.02
76.32
69.28
66.47
68.73
73.68
77.18
76.07
70.11
61.98
55.44
52.89
53.98
55.97
55.73
51.60
44.48
37.02
32.13
31.30
33.99
38.16
41.48
42.49
41.21
38.85
37.07
37.04
38.98
42.16
45.34
47.36
47.64
46.25
43.72
40.63
37.31
33.81
29.97
25.72
21.24
16.95
13.43
11.18
10.47
11.21
13.03
15.34
17.59
19.41
20.70
21.53
21.99
22.02
21.47
20.19
18.19
15.71
13.16
10.94
9.23
7.96
6.83
5.50
3.81
1.82
-0.24
-2.10
-3.63
-4.89
-6.05
-7.24
-8.39
-9.25
-9.46
-8.81
-7.41
-5.63
-3.98
-2.83
-2.28
-2.15
-2.14
-2.10
-2.09
-2.29
-2.83
-3.62
-4.32
-4.54
-4.04
-2.96
-1.77
-1.09
-1.41
-2.74
-4.62
-6.28
-7.01
-6.58
-5.34
-4.01
-3.27
-3.37
-4.02
-4.66
-4.86
-4.62
-4.40
-4.77
-6.01
-7.94
-10.06
-11.88
-13.17
-14.00
-14.53
-14.79
-14.64
-13.85
-12.31
-10.21
-7.91
-5.85
-4.33
-3.41
-2.95
-2.71
-2.48
-2.20
-2.01
-2.16
-2.77
-3.75
-4.74
-5.26
-5.01
-4.02
-2.74
-1.78
-1.62
-2.33
-3.60
-4.86
-5.65
-5.86
-5.71
-5.61
-5.89
-6.57
-7.36
-7.85
-7.77
-7.15
-6.36
-5.90
-6.09
-6.93
-8.07
-9.05
-9.53
-9.43
-8.95
-8.34
-7.77
-7.20
-6.49
-5.49
-4.17
-2.65
-1.14
0.13
1.02
1.44
1.42
1.08
0.60
0.21
0.11
0.37
0.88
1.39
1.61
1.39
0.81
0.16
-0.25
-0.20
0.23
0.73
0.93
0.59
-0.27
-1.40
-2.47
-3.23
-3.67
-3.96
-4.39
-5.15
-6.22
-7.43
-8.49
-9.20
-9.44
-9.21
-8.57
-7.50
-5.98
-4.07
-1.93
0.09
1.58
2.27
2.16
1.53
0.84
0.50
0.67
1.23
1.86
2.26
2.31
2.10
1.81
1.59
1.42
1.13
0.55
-0.37
-1.46
-2.42
-2.96
-2.98
-2.61
-2.15
-1.88
-1.94
-2.31
-2.89
-3.56
-4.34
-5.25
-6.31
-7.48
-8.56
-9.34
-9.63
-9.33
-8.44
-7.04
-5.31
-3.48
-1.77
-0.35
0.71
1.44
1.90
2.11
2.02
1.62
0.94
0.21
-0.28
-0.29
0.19
0.89
1.38
1.27
0.48
-0.67
-1.60
-1.76
-1.01
0.19
0.96
0.33
-2.17
-6.15
-10.40
-13.42
-14.09
-12.28
-9.00
-5.94
-4.72
-6.25
-10.53
-16.88
-24.14
-31.09
-36.71
-40.54
-42.97
-45.51
-50.37
-59.60
-73.76
-90.81
-105.95
-112.80
-105.50
-80.89
-39.75
13.34
71.25
126.39
172.45
205.77
225.87
234.93
236.32
232.72
225.07
212.60
194.02
169.08
139.56
109.18
82.37
62.60
51.51
49.09
54.45
66.64
84.69
106.94
130.59
151.92
167.39
175.05
175.26
170.43
163.78
158.05
154.56
153.18
152.73
151.96
150.14
147.11
143.02
137.87
131.25
122.27
109.93
93.49
73.12
50.10
26.81
6.20
-9.09
-17.47
-18.83
-14.30
-5.86
4.26
13.85
21.05
24.65
24.24
20.30
13.80
5.50
-4.63
-17.36
-33.88
-54.72
-79.35
-106.28
-133.99
-162.10
-192.16
-227.33
-270.70
-322.94
-380.49
-435.33
-477.11
-496.62
-488.76
-454.18
-398.97
-332.84
-266.52
-209.33
-167.39
-142.66
-132.99
-133.16
-136.78
-138.41
-135.06
-126.58
-114.60
-101.07
-87.09
-72.87
-58.66
-45.51
-35.11
-28.82
-26.71
-27.25
-28.06
-26.98
-23.10
-17.07
-10.73
-6.06
-4.23
-5.16
-7.54
-9.50
-9.49
-7.02
-2.88
1.39
4.17
4.72
3.37
1.42
0.44
1.55
4.89
9.62
14.42
18.07
19.92
20.05
19.11
17.89
16.92
16.32
15.84
15.03
13.62
11.61
9.25
6.90
4.85
3.19
1.79
0.46
-0.94
-2.40
-3.86
-5.34
-7.04
-9.28
-12.35
-16.19
-20.29
-23.76
-25.73
-25.82
-24.45
-22.74
-22.07
-23.38
-26.61
-30.64
-33.62
-33.69
-29.65
-21.34
-9.63
3.84
17.15
28.54
36.84
41.72
43.82
44.52
45.51
48.05
52.49
58.13
63.57
67.42
68.88
68.08
65.75
62.71
59.45
56.06
52.48
48.87
45.67
43.33
41.98
41.23
40.46
39.20
37.55
36.07
35.39
35.69
36.44
36.61
35.05
31.06
24.57
16.11
6.55
-3.12
-11.95
-19.07
-23.81
-25.76
-24.90
-21.62
-16.68
-11.03
-5.64
-1.41
0.94
0.95
-1.34
-5.33
-9.90
-13.65
-15.46
-14.91
-12.46
-9.23
-6.47
-4.93
-4.52
-4.53
-4.06
-2.59
-0.27
2.26
4.23
5.13
4.98
4.27
3.68
3.72
4.53
5.78
6.87
7.10
6.00
3.36
-0.67
-5.65
-10.83
-15.13
-17.30
-16.26
-11.53
-3.75
5.35
13.31
17.93
18.19
14.72
9.63
5.51
4.37
6.68
11.31
16.10
18.94
18.73
15.80
11.66
8.14
6.62
7.46
10.09
13.49
16.83
19.71
22.13
24.09
25.33
25.37
23.75
20.37
15.58
9.99
4.17
-1.49
-6.71
-11.16
-14.31
-15.62
-14.85
-12.34
-9.03
-6.15
-4.67
-4.91
-6.52
-8.68
-10.58
-11.75
-12.17
-12.16
-12.12
-12.24
-12.41
-12.24
-11.30
-9.38
-6.65
-3.59
-0.79
1.30
2.60
3.31
3.81
4.42
5.35
6.63
8.17
9.70
10.78
10.80
9.14
5.46
-0.06
-6.60
-12.88
-17.52
-19.50
-18.59
-15.39
-11.09
-7.04
-4.19
-2.84
-2.59
-2.70
-2.40
-1.27
0.70
3.17
5.72
7.99
9.85
11.38
12.82
14.47
16.56
19.18
22.10
24.84
26.78
27.42
26.59
24.51
21.68
18.61
15.57
12.46
8.99
4.95
0.48
-3.89
-7.49
-9.88
-11.27
-12.47
-14.59
-18.38
-23.73
-29.55
-34.16
-35.93
-33.94
-28.32
-20.14
-11.02
-2.54
4.16
8.64
11.23
12.76
14.26
16.50
19.65
23.33
26.78
29.38
30.98
31.92
32.60
33.13
33.14
32.03
29.44
25.43
20.43
14.71
8.18
0.48
-8.37
-17.47
-24.94
-28.74
-27.80
-22.86
-16.27
-10.93
-8.77
-9.87
-12.58
-14.54
-14.04
-10.76
-5.79
-0.82
2.76
4.52
4.91
4.83
5.09
5.91
6.97
7.71
7.71
6.97
5.92
5.16
5.12
5.78
6.65
7.08
6.56
4.98
2.64
0.00
-2.55
-4.92
-7.19
-9.51
-11.80
-13.84
-15.30
-15.97
-15.96
-15.53
-15.02
-14.58
-14.09
-13.31
-12.06
-10.44
-8.80
-7.53
-6.76
-6.14
-4.99
-2.69
0.95
5.40
9.66
12.74
14.18
14.25
13.72
13.41
13.75
14.66
15.66
16.14
15.51
13.25
9.01
2.79
-4.84
-12.64
-18.89
-21.96
-20.97
-16.31
-9.53
-2.80
2.06
4.24
4.18
3.26
3.06
4.66
8.18
12.80
17.14
19.87
20.25
18.31
14.82
10.93
7.80
6.20
6.40
8.15
10.81
13.57
15.66
16.44
15.56
13.02
9.09
4.27
-0.84
-5.61
-9.47
-11.94
-12.72
-11.82
-9.67
-7.11
-5.17
-4.61
-5.61
-7.53
-9.24
-9.63
-8.18
-5.21
-1.69
1.32
3.20
3.96
4.18
4.56
5.54
7.04
8.56
9.41
9.07
7.57
5.51
3.93
3.81
5.63
8.99
12.68
15.21
15.44
13.08
8.74
3.62
-1.09
-4.57
-6.46
-6.75
-5.67
-3.65
-1.35
0.45
1.06
0.28
-1.45
-3.14
-3.74
-2.67
-0.14
2.97
5.52
6.67
6.27
4.80
3.09
1.88
1.43
1.53
1.67
1.38
0.52
-0.61
-1.60
-2.17
-2.46
-3.00
-4.42
-7.02
-10.56
-14.33
-17.39
-19.06
-19.09
-17.82
-15.90
-14.03
-12.69
-11.99
-11.69
-11.31
-10.34
-8.40
-5.40
-1.60
2.47
6.21
9.19
11.33
12.92
14.42
16.16
18.12
19.97
21.25
21.64
21.24
20.48
19.94
20.01
20.61
21.24
21.19
19.86
17.07
13.01
8.17
3.18
-1.37
-4.97
-7.21
-7.94
-7.33
-5.90
-4.43
-3.74
-4.30
-6.06
-8.46
-10.69
-12.06
-12.34
-11.74
-10.79
-10.02
-9.77
-10.03
-10.55
-11.02
-11.24
-11.21
-11.10
-11.06
-11.20
-11.45
-11.66
-11.67
-11.35
-10.58
-9.27
-7.35
-4.82
-1.86
1.18
3.85
5.75
6.70
6.82
6.38
5.75
5.21
4.97
5.20
6.00
7.32
8.87
10.11
10.41
9.32
6.80
3.37
-0.14
-2.91
-4.47
-4.83
-4.41
-3.80
-3.50
-3.78
-4.56
-5.52
-6.20
-6.21
-5.37
-3.82
-2.01
-0.47
0.40
0.54
0.27
0.06
0.28
1.02
1.98
2.73
2.94
2.60
2.10
2.04
3.00
5.26
8.66
12.52
15.95
18.01
18.14
16.41
13.51
10.64
9.08
9.67
12.38
16.23
19.48
20.41
18.13
13.09
7.07
2.60
2.02
6.34
14.63
24.21
31.39
32.48
24.87
7.74
-17.27
-45.58
-70.12
-83.08
-78.88
-56.73
-21.66
16.86
48.49
65.82
66.77
54.42
34.75
13.66
-4.93
-19.38
-29.42
-34.95
-35.85
-32.36
-25.56
-17.41
-10.27
-6.01
-5.41
-7.90
-11.90
-15.32
-16.40
-14.55
-10.35
-5.35
-1.35
0.35
-0.49
-3.05
-5.95
-7.92
-8.33
-7.33
-5.68
-4.28
-3.75
-4.21
-5.34
-6.63
-7.66
-8.27
-8.39
-8.09
-7.38
-6.26
-4.73
-2.90
-1.03
0.61
1.78
2.47
2.84
3.17
3.70
4.52
5.51
6.43
7.03
7.14
6.78
6.08
5.27
4.54
3.96
3.52
3.15
2.84
2.62
2.59
2.82
3.24
3.66
3.86
3.64
3.03
2.20
1.38
0.74
0.26
-0.20
-0.82
-1.68
-2.70
-3.64
-4.23
-4.26
-3.69
-2.60
-1.21
0.22
1.48
2.42
3.00
3.32
3.50
3.73
4.13
4.74
5.50
6.27
6.91
7.32
7.44
7.31
7.05
6.76
6.55
6.45
6.42
6.36
6.16
5.71
4.96
3.96
2.82
1.68
0.71
0.01
-0.33
-0.33
-0.08
0.23
0.35
0.06
-0.73
-1.95
-3.33
-4.50
-5.12
-4.97
-4.08
-2.64
-0.99
0.57
1.81
2.61
3.02
3.15
3.17
3.19
3.28
3.43
3.60
3.76
3.92
4.10
4.32
4.54
4.68
4.64
4.33
3.76
2.99
2.19
1.54
1.19
1.15
1.34
1.57
1.58
1.17
0.28
-0.99
-2.41
-3.69
-4.68
-5.35
-5.80
-6.16
-6.43
-6.50
-6.20
-5.45
-4.36
-3.20
-2.28
-1.77
-1.61
-1.53
-1.27
-0.69
0.14
0.98
1.60
1.89
1.87
1.70
1.57
1.59
1.82
2.19
2.58
2.84
2.89
2.74
2.52
2.32
2.21
2.11
1.88
1.39
0.65
-0.19
-0.91
-1.37
-1.57
-1.68
-1.92
-2.44
-3.19
-3.91
-4.29
-4.07
-3.20
-1.87
-0.35
1.06
2.24
3.20
4.10
5.02
5.95
6.74
7.22
7.28
7.00
6.55
6.17
5.96
5.93
5.95
5.90
5.72
5.46
5.22
5.09
5.04
4.95
4.63
3.93
2.87
1.61
0.46
-0.33
-0.67
-0.72
-0.81
-1.27
-2.27
-3.71
-5.23
-6.41
-6.92
-6.61
-5.62
-4.23
-2.79
-1.61
-0.81
-0.36
-0.09
0.23
0.75
1.48
2.29
3.01
3.52
3.81
3.98
4.12
4.27
4.36
4.31
4.07
3.68
3.24
2.87
2.58
2.32
1.98
1.49
0.87
0.21
-0.38
-0.81
-1.07
-1.24
-1.43
-1.73
-2.24
-3.00
-3.97
-5.06
-6.08
-6.78
-6.94
-6.43
-5.35
-3.92
-2.48
-1.32
-0.53
-0.02
0.47
1.14
2.06
3.13
4.11
4.78
5.05
4.97
4.70
4.43
4.25
4.15
4.05
3.85
3.51
3.10
2.71
2.40
2.18
1.96
1.63
1.13
0.49
-0.18
-0.73
-1.05
-1.14
-1.10
-1.10
-1.27
-1.70
-2.39
-3.23
-4.09
-4.80
-5.18
-5.11
-4.53
-3.53
-2.29
-1.04
0.05
0.93
1.70
2.46
3.27
4.01
4.50
4.55
4.18
3.60
3.12
2.98
3.21
3.61
3.89
3.83
3.46
2.96
2.56
2.40
2.40
2.37
2.16
1.73
1.18
0.70
0.39
0.23
0.11
-0.13
-0.60
-1.33
-2.26
-3.33
-4.41
-5.32
-5.85
-5.75
-4.85
-3.16
-0.94
1.41
3.40
4.65
4.99
4.54
3.56
2.38
1.27
0.41
-0.16
-0.46
-0.55
-0.47
-0.25
0.08
0.48
0.86
1.07
0.98
0.53
-0.23
-1.07
-1.75
-2.01
-1.78
-1.19
-0.52
-0.04
0.06
-0.20
-0.67
-1.20
-1.70
-2.22
-2.84
-3.65
-4.60
-5.51
-6.11
-6.23
-5.78
-4.88
-3.77
-2.65
-1.62
-0.65
0.37
1.49
2.62
3.57
4.13
4.22
3.89
3.37
2.91
2.67
2.65
2.75
2.83
2.78
2.61
2.40
2.24
2.12
1.98
1.71
1.25
0.65
0.04
-0.41
-0.62
-0.67
-0.75
-1.08
-1.74
-2.68
-3.71
-4.63
-5.28
-5.63
-5.72
-5.61
-5.32
-4.81
-4.06
-3.04
-1.81
-0.51
0.60
1.25
1.23
0.50
-0.66
-1.78
-2.26
-1.73
-0.23
1.66
3.05
3.13
1.57
-1.22
-4.18
-6.05
-5.93
-3.81
-0.64
2.00
2.62
0.54
-3.69
-8.44
-11.76
-12.23
-9.62
-5.10
-0.60
1.84
0.82
-4.20
-12.74
-23.14
-32.45
-36.60
-31.39
-14.26
13.80
47.47
78.20
97.13
98.69
82.85
55.08
23.64
-3.78
-22.70
-32.34
-34.40
-31.16
-24.30
-14.78
-3.57
7.72
16.90
21.98
22.35
19.27
15.64
14.81
19.11
28.87
42.09
55.23
64.60
67.82
64.80
57.72
50.00
44.84
43.84
46.54
50.77
53.78
53.42
49.07
41.62
32.94
25.03
19.44
16.96
17.61
20.73
25.26
29.98
33.60
35.02
33.60
29.49
23.54
16.98
10.87
5.91
2.49
0.62
0.12
0.60
1.73
3.26
4.94
6.47
7.69
8.89
10.35
12.26
14.30
15.81
16.12
14.48
10.11
0.91
-13.02
-29.37
-44.38
-55.03
-59.75
-57.84
-49.32
-34.87
-15.77
6.58
29.15
51.09
71.13
87.67
99.60
106.63
109.59
110.34
111.40
114.62
120.25
128.15
136.09
141.67
143.57
142.18
139.16
136.66
136.21
138.58
143.80
151.56
161.54
172.86
183.53
190.68
191.55
184.67
170.67
151.74
130.52
109.20
88.99
70.24
53.00
37.40
23.49
10.86
-1.51
-15.08
-30.87
-49.04
-68.84
-88.93
-108.24
-126.57
-144.76
-164.43
-187.29
-214.24
-244.93
-278.03
-311.66
-344.33
-375.49
-405.61
-436.07
-468.90
-506.49
-550.95
-602.86
-659.85
-715.87
-761.87
-788.31
-788.57
-761.56
-712.21
-649.42
-582.45
-517.83
-458.00
-402.23
-348.74
-296.51
-245.91
-197.99
-153.34
-111.45
-70.95
-30.45
10.64
51.98
92.55
131.61
169.25
206.20
242.86
278.27
309.73
333.32
345.53
344.76
332.33
311.97
288.41
265.79
246.50
231.19
219.39
210.41
203.73
198.87
195.10
191.24
185.95
178.33
168.31
156.65
144.52
132.88
122.08
111.85
101.69
91.34
81.05
71.42
63.10
56.46
51.30
47.05
42.97
38.39
32.90
26.35
18.84
10.57
1.79
-7.17
-15.90
-23.91
-30.63
-35.59
-38.47
-39.16
-37.68
-34.09
-28.36
-20.56
-10.98
-0.31
10.51
20.57
29.42
37.16
44.29
51.34
58.46
65.44
71.88
77.62
82.92
88.36
94.48
101.37
108.49
114.76
119.10
120.81
119.93
117.27
114.12
111.86
111.47
113.32
117.07
122.06
127.53
133.01
138.35
143.59
148.84
153.98
158.77
162.89
166.23
169.10
172.30
176.97
184.11
194.15
206.45
219.02
228.72
231.90
225.36
207.28
177.82
139.15
94.62
47.82
1.46
-43.34
-87.04
-131.32
-178.48
-230.92
-290.42
-357.13
-428.39
-498.27
-558.32
-599.71
-616.21
-606.43
-574.12
-526.39
-470.72
-412.52
-354.36
-296.87
-240.31
-185.63
-134.15
-86.46
-41.57
3.22
51.28
105.28
165.91
231.24
296.66
356.05
403.54
435.55
452.11
456.18
451.65
441.00
424.28
400.23
368.78
332.62
296.39
264.36
238.13
216.30
196.48
177.71
160.96
147.55
136.91
126.19
112.55
96.13
81.09
73.14
74.86
82.34
86.09
75.93
46.70
1.02
-52.93
-106.68
-156.31
-203.93
-255.32
-315.97
-387.69
-467.30
-547.41
-618.75
-672.51
-702.60
-707.27
-689.21
-653.93
-607.48
-554.12
-495.55
-432.01
-364.40
-295.80
-231.26
-175.71
-131.29
-95.89
-63.88
-28.31
16.17
71.46
135.35
201.76
261.75
305.07
322.54
309.12
266.79
205.44
140.76
89.29
62.56
63.34
85.76
119.07
152.98
181.42
203.16
219.69
232.18
239.78
240.05
230.90
212.30
186.98
159.44
134.10
113.85
99.16
88.33
78.65
67.84
55.20
41.95
30.78
24.43
24.27
29.66
38.20
47.07
54.37
59.80
64.38
69.41
75.47
82.01
87.60
90.82
90.85
87.80
82.47
76.00
69.50
63.71
59.02
55.39
52.53
50.07
47.68
45.12
42.20
38.57
33.65
26.85
17.97
7.56
-2.93
-11.50
-16.25
-16.17
-11.61
-4.24
3.38
8.44
8.40
1.43
-13.14
-34.47
-59.99
-85.74
-107.34
-121.21
-125.67
-121.28
-110.29
-95.44
-78.94
-61.91
-44.76
-27.79
-11.75
