1660323702.00
64.000000
-0.00
-0.00
-0.00
-0.00
-0.00
-0.00
-0.00
-0.00
-0.00
-0.00
0.00
0.01
0.01
-0.00
-0.03
-0.05
-0.05
0.00
0.13
0.36
0.66
1.01
1.37
1.72
2.06
2.40
2.79
3.24
3.80
4.42
5.06
5.66
6.20
6.68
7.15
7.68
8.31
9.14
10.09
11.04
11.88
12.56
13.14
13.76
14.65
15.96
17.91
20.32
22.90
25.38
27.58
29.57
31.68
34.32
37.81
42.54
48.15
54.10
59.83
64.97
69.58
74.14
79.34
85.71
93.76
103.00
112.62
121.73
129.77
136.75
143.30
150.75
157.77
166.64
177.95
191.79
206.97
220.57
228.25
225.36
208.53
176.87
132.76
80.05
23.07
-34.94
-92.44
-149.16
-205.23
-260.37
-313.74
-363.88
-409.83
-450.90
-486.48
-515.70
-537.17
-549.13
-549.83
-538.19
-513.98
-478.39
-433.54
-382.05
-326.56
-269.32
-212.06
-156.03
-102.27
-51.64
-5.12
36.43
72.35
102.36
126.60
145.59
160.03
170.63
178.01
182.57
184.59
184.30
181.99
177.99
172.71
166.56
159.89
152.95
145.87
138.73
131.57
124.44
117.39
110.51
103.86
97.49
91.44
85.72
80.35
75.34
70.70
66.44
62.56
59.07
55.96
53.23
50.86
48.90
47.33
46.16
45.37
44.91
44.66
44.52
44.27
43.67
42.46
40.40
37.28
33.03
27.67
21.33
14.30
6.99
-0.11
-6.46
-11.60
-15.17
-16.96
-16.95
-15.33
-12.44
-8.78
-4.91
-1.33
1.52
3.38
4.14
3.83
2.64
0.84
-1.30
-3.47
-5.41
-6.93
-7.92
-8.31
-8.05
-7.14
-5.59
-3.51
-0.99
1.91
5.13
8.61
12.26
15.99
19.70
23.33
26.62
29.41
31.58
33.07
33.87
34.05
33.74
33.15
32.58
32.09
31.86
32.07
32.89
34.43
36.76
39.87
43.66
48.01
52.41
56.44
59.74
62.10
63.38
63.56
62.64
60.52
59.17
59.60
62.47
68.22
76.98
88.71
103.18
119.94
138.43
157.96
177.41
195.63
211.50
223.93
231.90
234.59
231.46
222.35
207.56
187.63
163.64
137.03
109.48
82.64
58.00
36.79
19.91
7.90
0.80
-1.73
-0.40
3.74
9.41
15.25
20.02
22.72
22.79
20.03
14.68
7.29
-1.45
-10.95
-20.84
-30.99
-41.48
-52.34
-63.39
-74.09
-83.71
-91.53
-97.22
-101.06
-103.91
-106.87
-110.75
-115.69
-120.98
-125.43
-127.87
-127.86
-126.07
-124.07
-123.78
-126.51
-132.40
-140.28
-148.28
-154.82
-159.38
-162.80
-166.78
-173.20
-183.55
-198.87
-219.88
-246.66
-277.51
-308.00
-331.03
-338.65
-325.62
-292.17
-244.94
-194.91
-153.32
-127.25
-117.15
-117.41
-120.09
-119.17
-113.27
-104.95
-97.52
-91.80
-85.37
-74.85
-59.47
-42.40
-29.26
-24.06
-26.03
-29.65
-27.93
-17.20
0.29
17.24
25.26
19.08
-1.44
-32.03
-65.99
-96.07
-115.97
-121.48
-111.82
-89.69
-60.28
-28.76
1.81
30.76
57.92
81.89
99.69
108.72
108.92
103.26
96.29
91.45
89.21
87.23
82.23
72.42
58.64
43.79
31.56
24.70
24.16
28.79
35.71
41.41
42.91
38.93
30.55
21.09
14.92
15.74
24.91
40.41
56.96
67.43
66.00
51.03
26.52
0.84
-17.01
-21.51
-12.80
4.20
23.05
39.09
50.56
57.59
60.26
57.94
49.87
36.53
20.32
4.58
-8.37
-18.29
-26.88
-36.04
-46.33
-56.80
-65.75
-71.67
-73.84
-72.04
-65.92
-54.89
-38.63
-18.20
3.38
21.51
31.67
31.23
20.94
5.05
-10.30
-19.71
-21.39
-17.94
-14.94
-17.37
-26.35
-38.20
-46.65
-46.57
-37.05
-21.66
-5.89
6.48
15.48
24.57
38.22
58.90
85.26
112.34
133.40
142.49
136.65
116.95
88.11
56.91
29.88
11.05
0.95
-3.04
-4.78
-7.58
-13.40
-22.63
-34.69
-48.15
-60.48
-68.31
-68.55
-60.30
-46.38
-32.78
-25.84
-28.39
-37.47
-45.24
-43.33
-28.29
-4.41
18.28
29.83
26.30
11.96
-3.67
-11.66
-8.59
2.62
15.83
26.31
33.52
40.50
50.85
65.42
80.95
91.24
90.33
75.20
47.33
12.62
-20.32
-43.07
-50.49
-43.09
-27.04
-11.45
-3.86
-6.49
-15.21
-22.12
-19.92
-5.94
16.71
40.91
59.29
67.67
66.48
59.64
51.78
45.48
40.11
32.18
17.33
-7.12
-39.88
-75.41
-105.61
-123.21
-124.73
-111.71
-89.18
-62.53
-35.04
-7.69
19.20
44.13
64.00
75.54
77.56
72.19
64.00
57.46
54.27
52.21
47.05
35.27
16.18
-7.60
-31.66
-51.84
-65.54
-72.08
-72.11
-67.03
-58.74
-49.29
-40.51
-33.78
-29.37
-26.43
-23.47
-19.18
-13.32
-7.10
-2.94
-3.86
-12.22
-28.36
-49.65
-71.01
-86.49
-91.33
-84.15
-67.50
-46.58
-26.96
-12.23
-3.43
-0.01
-1.11
-5.70
-12.11
-17.67
-19.27
-15.15
-6.41
3.32
9.55
8.85
-0.34
-17.75
-42.31
-72.70
-107.01
-142.44
-175.11
-201.20
-218.56
-227.86
-232.07
-234.46
-236.68
-238.04
-236.33
-229.53
-217.33
-201.62
-185.51
-171.94
-162.56
-157.15
-154.23
-151.95
-149.01
-145.06
-140.35
-135.15
-129.61
-123.58
-116.80
-109.23
-101.24
-93.26
-85.65
-78.49
-71.53
-64.39
-56.76
-48.53
-39.94
-31.72
-24.78
-20.02
-17.98
-18.61
-21.52
-26.14
-31.67
-37.39
-42.76
-47.01
-49.60
-50.05
-48.13
-43.93
-37.84
-30.44
-22.40
-14.41
-6.08
3.12
13.77
26.12
39.85
54.15
68.17
81.31
93.46
107.14
125.09
149.57
181.53
220.12
262.88
306.45
347.32
382.69
414.23
444.60
476.65
512.14
550.89
591.02
629.81
664.90
695.06
724.87
760.02
806.11
866.96
943.56
1034.17
1135.50
1244.20
1328.91
1363.19
1326.51
1211.27
1026.80
796.02
546.80
303.18
80.90
-112.74
-272.25
-395.74
-483.83
-539.57
-568.46
-577.70
-574.75
-565.98
-555.99
-544.66
-530.84
-513.37
-491.98
-467.35
-440.48
-411.91
-382.00
-352.12
-323.50
-299.02
-281.90
-273.90
-274.28
-280.23
-287.95
-293.89
-295.44
-290.15
-276.63
-255.13
-228.22
-200.61
-177.78
-163.81
-159.55
-162.10
-165.05
-161.29
-145.88
-118.16
-82.39
-46.89
-20.84
-10.10
-14.07
-25.64
-34.72
-33.73
-21.93
-5.54
6.27
7.31
-2.02
-15.50
-25.29
-27.24
-22.52
-16.07
-12.78
-14.45
-18.83
-21.51
-18.98
-10.71
0.67
11.17
17.61
18.85
16.37
13.10
11.76
13.57
17.88
22.52
24.97
23.58
18.21
10.27
2.04
-4.47
-8.25
-9.57
-9.69
-10.15
-12.12
-15.92
-21.11
-26.73
-31.84
-35.79
-38.28
-39.26
-38.91
-37.30
-34.49
-30.42
-25.12
-18.96
-12.47
-6.18
-0.52
4.26
8.27
11.65
14.64
17.51
20.18
22.50
24.27
25.25
25.21
24.21
22.24
19.51
16.45
13.37
10.79
9.41
9.92
12.91
19.05
28.23
39.95
53.48
67.35
80.00
89.90
95.62
96.04
90.96
79.76
62.25
41.57
19.87
-1.03
-19.68
-35.06
-46.59
-53.38
-56.01
-55.19
-51.63
-46.42
-40.35
-33.90
-27.01
-22.74
-18.13
-11.53
-1.68
12.27
30.13
51.36
75.11
100.41
126.24
152.28
177.08
199.47
218.55
233.00
241.62
243.38
237.35
222.56
202.46
178.97
154.06
129.37
105.30
81.55
57.62
33.29
8.76
-14.72
-36.27
-54.82
-69.93
-83.45
-97.98
-115.55
-136.96
-161.73
-188.04
-213.91
-237.00
-255.65
-271.81
-287.78
-304.60
-322.26
-341.19
-362.69
-388.28
-417.31
-445.32
-467.54
-475.65
-460.43
-416.93
-349.38
-270.84
-197.94
-143.87
-114.08
-111.26
-131.97
-168.67
-212.82
-257.55
-297.33
-326.41
-339.22
-302.41
-207.07
-74.20
57.72
158.79
219.96
248.36
257.18
258.15
258.02
253.84
241.83
222.00
198.40
175.62
156.27
141.12
129.53
120.48
109.20
92.76
72.10
51.37
34.64
23.12
17.58
17.65
22.25
27.57
30.44
30.27
28.73
27.57
27.38
27.87
28.84
29.84
28.90
23.43
13.03
-0.66
-15.39
-29.54
-41.80
-49.79
-51.88
-48.13
-41.21
-34.04
-26.56
-17.13
-4.18
13.38
38.39
71.78
111.92
152.37
190.08
225.27
260.15
295.54
330.82
367.69
407.08
448.79
487.70
521.90
550.15
570.74
579.52
553.55
484.29
381.23
290.14
225.64
187.56
161.66
138.17
108.98
70.93
29.30
-8.88
-39.69
-68.36
-99.59
-136.63
-178.93
-225.71
-273.63
-315.07
-343.46
-356.63
-360.41
-360.22
-359.98
-360.59
-365.15
-376.22
-393.45
-415.50
-441.03
-470.75
-501.91
-528.89
-528.00
-485.69
-405.48
-306.95
-214.35
-143.86
-99.88
-76.33
-65.59
-57.55
-49.67
-42.97
-37.41
-30.03
-16.01
8.97
48.06
101.02
165.94
236.96
303.14
354.34
384.78
394.92
389.97
376.60
359.87
342.87
325.19
306.10
286.15
266.61
247.41
225.72
197.14
158.50
110.92
58.93
9.69
-29.77
-55.35
-67.20
-68.87
-64.91
-58.77
-51.85
-44.74
-38.07
-32.73
-29.40
-28.08
-27.84
-27.14
-24.48
-18.87
-10.40
-0.10
10.56
20.45
29.01
36.31
42.76
48.93
54.27
57.78
58.02
53.62
43.94
29.10
10.15
-10.93
-32.02
-51.50
-68.27
-81.85
-92.22
-99.46
-103.95
-106.05
-106.13
-104.75
-102.69
-100.64
-99.10
-98.27
-97.86
-97.78
-97.99
-98.57
-99.93
-102.60
-106.73
-111.90
-118.01
-122.50
-123.58
-120.08
-111.79
-99.53
-84.79
-69.06
-53.35
-38.05
-22.81
-7.74
6.71
19.37
28.52
32.55
30.31
21.36
5.79
-15.19
-39.21
-62.08
-78.17
-82.28
-71.78
-48.34
-17.79
11.73
33.04
42.35
40.13
30.24
17.05
3.64
-8.86
-20.45
-31.08
-40.02
-46.33
-49.77
-50.70
-50.86
-52.45
-57.31
-65.99
-77.71
-90.82
-103.57
-114.93
-124.00
-130.97
-136.59
-141.49
-145.69
-148.48
-148.39
-143.23
-136.26
-128.72
-121.70
-116.10
-112.39
-110.45
-109.73
-109.50
-109.13
-108.35
-106.49
-103.39
-99.22
-94.17
-88.33
-81.75
-74.41
-66.36
-57.78
-48.39
-38.22
-27.48
-16.59
-5.95
3.89
12.46
19.36
24.34
27.81
30.36
32.74
35.76
40.18
46.48
54.79
64.75
75.58
86.27
95.67
102.67
106.43
106.66
103.64
98.17
91.31
84.20
77.86
72.89
69.29
66.45
63.36
58.74
51.37
40.29
25.03
5.73
-16.85
-41.48
-66.63
-90.62
-111.78
-128.60
-139.88
-144.74
-142.79
-134.16
-119.61
-100.50
-78.69
-56.44
-36.16
-20.15
-10.20
-7.35
-11.65
-22.21
-37.38
-55.05
-73.02
-89.28
-102.19
-110.67
-114.22
-112.89
-107.26
-98.33
-87.47
-76.11
-65.60
-56.94
-50.66
-46.80
-45.00
-44.71
-45.42
-46.88
-49.07
-52.21
-56.53
-62.03
-68.33
-74.62
-79.78
-82.72
-82.66
-79.27
-72.59
-62.70
-49.35
-31.78
-8.85
20.30
55.51
94.83
134.42
169.33
194.82
208.06
209.13
201.18
189.22
178.47
172.40
171.80
175.05
179.61
183.71
187.56
193.39
204.46
223.60
252.19
289.63
333.36
378.65
418.81
446.27
454.62
441.35
410.36
371.96
339.67
324.74
330.73
351.08
371.42
375.73
353.77
305.91
243.05
181.94
138.13
119.99
126.87
151.46
184.24
217.32
246.00
267.30
278.04
274.43
252.60
211.50
155.35
93.56
37.76
-3.20
-26.48
-35.35
-35.23
-30.10
-20.23
-3.17
22.59
54.65
86.27
109.54
118.90
114.84
101.79
85.02
68.25
53.66
44.07
43.62
57.47
87.25
131.90
182.26
223.52
241.07
227.81
187.76
132.12
76.48
32.88
15.28
29.42
71.50
129.67
189.40
238.72
267.94
276.34
267.93
264.14
285.21
341.40
428.50
531.54
632.15
709.75
755.26
766.99
768.75
786.94
839.01
927.08
1041.06
1166.74
1285.06
1387.95
1360.97
1142.25
746.93
263.50
-205.58
-596.92
-860.78
-1033.91
-1146.71
-1218.53
-1244.83
-1222.75
-1164.78
-1091.62
-1024.80
-976.34
-951.69
-940.26
-930.74
-903.16
-846.67
-764.69
-672.71
-589.99
-530.28
-503.03
-504.13
-525.67
-549.75
-559.38
-543.07
-496.68
-422.27
-326.04
-221.16
-121.15
-42.11
5.80
19.06
2.21
-32.83
-69.89
-93.55
-96.28
-79.07
-52.59
-30.27
-23.14
-35.80
-65.88
-106.95
-152.75
-199.98
-247.00
-292.09
-330.97
-356.22
-359.90
-337.51
-290.84
-228.82
-165.10
-113.77
-84.96
-81.19
-95.78
-114.79
-121.75
-103.26
-54.00
21.14
108.66
190.93
252.47
285.07
289.78
274.96
252.33
232.49
221.96
222.21
230.16
239.38
241.79
229.46
197.06
144.70
79.70
16.20
-28.61
-40.89
-16.50
36.28
99.08
150.27
172.62
158.76
112.10
44.27
-29.92
-96.58
-145.47
-171.13
-172.93
-155.11
-125.93
-96.37
-76.93
-74.63
-89.60
-114.62
-137.80
-147.81
-139.41
-116.27
-89.49
-72.34
-73.88
-94.50
-126.29
-157.06
-176.75
-182.05
-177.09
-170.88
-172.27
-185.56
-208.21
-232.02
-246.32
-242.15
-215.84
-169.60
-110.59
-47.69
11.75
63.92
109.02
149.85
189.83
227.18
257.05
273.43
272.82
256.63
229.83
198.41
166.94
137.19
108.13
78.05
45.92
12.74
-18.42
-44.04
-61.32
-69.26
-68.20
-60.10
-47.14
-30.82
-11.56
10.99
36.02
60.69
80.68
91.93
93.01
86.85
80.24
79.06
88.95
110.88
140.42
169.84
191.62
201.45
199.04
186.81
167.61
143.67
116.03
85.55
53.76
23.03
-3.85
-24.34
-37.60
-45.55
-52.85
-65.72
-89.31
-124.84
-168.44
-211.83
-245.55
-263.96
-268.07
-264.92
-262.82
-266.02
-272.10
-273.76
-262.44
-232.42
-183.26
-118.63
-43.78
37.48
123.51
213.26
299.28
367.64
404.94
405.61
374.67
323.64
264.94
207.72
156.53
111.37
70.13
32.33
-3.81
-38.82
-72.95
-106.10
-138.41
-170.15
-201.00
-229.58
-252.56
-267.43
-269.64
-258.76
-235.81
-201.24
-154.10
-92.71
-17.50
68.56
157.41
234.45
285.44
304.63
296.66
271.33
241.97
209.50
171.44
126.94
80.40
40.36
15.51
10.16
19.99
33.85
36.91
20.35
-16.10
-65.44
-118.64
-169.41
-216.86
-263.68
-306.86
-341.04
-357.33
-349.42
-318.46
-272.83
-222.15
-171.87
-125.15
-76.46
-24.00
28.91
74.43
103.87
111.99
100.32
75.59
49.80
36.57
45.06
79.13
136.80
211.32
289.63
355.60
395.24
402.37
380.55
338.01
284.13
226.46
171.12
123.48
90.23
72.76
68.06
68.29
61.03
34.62
-16.07
-85.53
-158.68
-216.51
-241.42
-226.97
-181.09
-123.03
-74.57
-51.01
-56.05
-82.64
-117.48
-146.79
-159.62
-149.14
-113.98
-59.10
4.05
59.01
88.46
79.91
30.42
-52.41
-149.65
-235.89
-287.88
-293.99
-257.71
-192.40
-113.06
-31.78
42.70
104.40
148.79
178.43
200.37
223.43
254.62
295.73
340.80
377.56
392.86
377.86
329.25
255.76
173.08
97.29
40.01
5.88
-7.17
-4.38
7.43
22.05
34.81
45.22
50.28
48.11
39.95
30.19
24.55
25.75
26.33
23.26
13.87
-5.46
-35.69
-75.14
-121.07
-163.73
-198.30
-223.30
-238.24
-244.34
-246.00
-247.02
-249.09
-251.36
-251.09
-246.36
-236.62
-221.83
-204.35
-191.38
-190.59
-206.83
-240.60
-288.20
-344.66
-404.46
-461.78
-492.30
-478.05
-412.68
-304.43
-171.68
-33.34
96.31
209.00
300.81
368.19
410.85
427.73
419.73
391.18
349.10
300.39
249.86
199.36
149.37
97.19
39.45
-24.05
-88.86
-146.52
-187.04
-201.87
-186.74
-143.32
-81.10
-14.63
41.45
75.99
83.58
64.98
28.61
-12.34
-42.49
-51.81
-40.05
-14.18
16.70
45.91
70.61
90.64
106.45
117.99
124.30
124.79
121.10
116.14
113.39
115.48
122.74
133.40
144.36
153.02
156.62
154.20
145.56
131.26
111.99
88.27
60.64
30.02
-2.30
-34.81
-63.40
-86.00
-102.10
-112.43
-118.49
-122.21
-125.82
-131.19
-138.64
-145.88
-148.60
-141.51
-121.08
-87.93
-46.97
-5.98
27.49
49.09
58.74
59.31
54.88
48.65
42.13
36.13
31.21
28.06
27.11
27.63
27.66
24.82
17.46
5.22
-10.35
-26.42
-39.90
-47.19
-46.08
-36.77
-22.31
-8.08
0.20
-0.93
-10.66
-24.25
-34.60
-36.05
-27.11
-10.79
7.34
22.23
31.83
36.89
39.65
42.02
44.16
45.07
43.74
40.26
35.80
32.40
31.44
32.85
35.37
36.79
35.17
29.80
21.49
12.38
5.14
1.92
3.30
8.46
15.29
21.50
25.53
26.71
25.14
21.25
15.60
8.30
-0.50
-10.96
-22.83
-35.68
-49.33
-63.37
-76.57
-86.27
-88.99
-81.22
-62.37
-35.46
-6.48
17.47
31.53
34.61
29.06
18.81
7.57
-2.50
-10.53
-15.63
-16.91
-13.36
-4.76
7.71
22.03
35.74
46.33
51.49
50.09
42.53
31.36
20.10
12.31
10.30
14.18
22.07
31.16
38.56
40.98
35.57
19.54
-8.30
-45.79
-86.81
-122.38
-143.70
-145.66
-129.91
-104.17
-79.72
-66.67
-70.49
-91.16
-124.32
-163.50
-202.12
-234.56
-252.66
-250.17
-223.91
-175.59
-112.34
-44.85
15.95
62.69
93.42
110.61
117.88
118.72
116.16
113.34
113.78
120.00
130.87
140.18
138.64
118.20
77.38
23.11
-32.22
-76.86
-104.94
-117.81
-121.13
-119.82
-114.80
-103.17
-82.02
-51.99
-18.18
12.53
35.67
50.99
61.38
69.91
77.18
81.02
78.42
67.44
47.53
19.39
-15.91
-57.26
-101.72
-143.25
-174.06
-187.11
-179.37
-153.65
-116.43
-75.78
-39.26
-9.95
13.47
33.62
52.84
73.06
95.54
122.54
153.32
180.97
198.05
200.58
188.95
169.14
150.95
143.84
155.78
187.23
228.51
270.88
310.53
345.19
372.93
391.15
397.01
393.83
386.56
375.58
363.27
352.15
339.70
321.07
293.77
233.83
138.18
56.86
10.42
-11.09
-16.97
-17.75
-21.43
-31.25
-45.72
-55.92
-65.45
-80.04
-100.59
-124.84
-152.83
-184.61
-217.99
-248.87
-269.99
-278.56
-280.29
-281.53
-285.58
-293.58
-303.69
-312.38
-317.51
-315.38
-304.75
-288.40
-268.37
-244.48
-216.06
-182.05
-141.60
-97.08
-51.09
-7.26
30.08
58.20
76.73
86.69
90.03
89.17
86.03
82.44
79.11
75.75
71.95
67.60
62.80
57.71
52.87
48.69
45.55
43.32
41.64
39.99
37.85
35.06
31.77
28.95
27.70
29.10
33.68
41.08
50.42
60.49
71.42
81.57
90.43
97.56
102.35
103.59
99.49
88.36
69.46
43.51
12.72
-19.04
-47.63
-69.37
-81.58
-82.75
-72.83
-53.81
-30.17
-8.92
3.06
1.55
-12.97
-35.34
-57.94
-74.04
-80.64
-78.97
-72.83
-65.89
-59.95
-54.73
-49.14
-42.70
-36.17
-31.08
-28.62
-28.70
-29.94
-30.56
-29.10
-25.31
-20.10
-14.99
-11.41
-10.05
-10.61
-12.01
-12.93
-12.46
-10.41
-7.40
-4.36
-2.21
-1.39
-1.70
-2.55
-3.18
-3.12
-2.23
-0.79
0.72
1.84
2.32
2.23
1.83
1.54
1.60
2.12
3.08
4.48
6.27
8.34
10.88
13.87
17.48
21.63
26.11
30.44
34.26
37.14
38.63
38.60
36.92
33.97
30.23
26.42
23.11
20.83
19.89
20.29
21.75
23.83
26.03
27.87
28.89
28.67
26.77
22.88
17.08
9.43
0.32
-9.35
-18.39
-25.86
-31.04
-33.98
-35.12
-35.36
-35.35
-35.64
-36.16
-36.27
-35.50
-33.38
-30.43
-27.14
-24.61
-23.12
-22.76
-23.29
-24.45
-26.27
-28.51
-30.48
-30.98
-29.03
-24.82
-20.35
-18.47
-21.43
-29.00
-38.37
-45.28
-45.73
-38.03
-23.22
-4.49
14.64
31.90
46.47
58.38
67.51
73.38
75.37
73.22
67.47
59.28
50.25
41.74
34.85
29.09
23.64
17.86
11.27
3.99
-3.23
-9.55
-14.23
-16.90
-17.74
-17.35
-16.28
-15.18
-14.39
-13.92
-13.53
-13.10
-12.51
-11.70
-11.11
-10.53
-10.08
-9.82
-9.74
-9.83
-10.04
-10.35
-10.73
-11.08
-11.26
-11.22
-11.02
-10.83
-10.91
-11.52
-12.71
-14.24
-15.82
-17.03
-17.66
-17.89
-18.20
-19.30
-21.64
-25.33
-29.79
-34.16
-37.71
-39.84
-40.75
-41.27
-42.65
-45.82
-50.94
-57.56
-63.55
-66.90
-65.91
-59.76
-48.92
-34.92
-20.00
-6.42
3.67
8.61
7.85
2.93
-3.24
-7.75
-9.55
-10.80
-15.78
-28.52
-49.73
-75.28
-96.68
-104.98
-94.62
-64.75
-22.74
22.14
62.28
93.81
115.94
129.89
138.16
142.57
145.47
149.32
156.18
165.55
173.13
171.39
152.12
113.25
59.57
1.99
-47.18
-78.89
-91.36
-89.72
-82.40
-76.39
-74.55
-76.08
-78.75
-81.48
-84.83
-90.77
-100.23
-111.85
-121.88
-126.62
-123.07
-110.57
-90.70
-66.19
-40.00
-14.29
9.62
31.26
50.75
68.17
83.44
96.67
108.17
118.20
126.77
133.22
136.35
134.87
127.51
113.71
93.87
69.55
43.44
18.96
-0.59
-13.34
-19.32
-21.10
-22.59
-27.23
-36.22
-46.72
-53.23
-50.75
-37.82
-16.85
6.44
25.72
36.15
36.96
29.78
18.76
9.10
5.28
10.10
23.22
41.81
61.11
76.77
86.54
90.59
90.40
87.13
80.84
68.73
50.86
28.09
2.76
-22.07
-43.96
-62.16
-77.68
-92.18
-107.37
-123.32
-138.90
-151.92
-160.09
-161.99
-157.49
-148.73
-137.16
-124.57
-112.01
-99.78
-87.19
-73.28
-57.41
-39.76
-21.38
-3.50
12.55
26.69
39.68
53.61
70.38
90.69
113.18
134.43
149.88
155.43
148.95
131.01
105.71
78.87
56.29
42.62
40.59
50.67
70.86
96.94
118.98
129.01
122.32
99.59
67.19
34.83
11.46
1.36
2.94
10.80
17.77
19.04
13.43
3.37
-6.88
-13.29
-15.13
-12.71
-9.41
-9.91
-17.56
-32.47
-51.62
-70.91
-87.40
-100.66
-112.10
-123.66
-136.12
-148.37
-158.52
-165.21
-168.68
-170.51
-172.58
-176.64
-181.24
-183.28
-178.93
-165.20
-140.73
-106.51
-65.43
-21.58
20.32
57.11
87.19
110.49
127.51
139.22
146.24
148.89
147.35
142.01
133.94
124.39
114.68
105.67
98.21
92.53
88.56
86.02
84.56
84.21
84.99
88.45
92.99
97.22
99.21
97.03
88.89
73.50
50.67
21.40
-12.25
-47.77
-81.98
-112.19
-135.97
-151.64
-158.31
-155.63
-143.94
-124.21
-98.70
-70.05
-41.27
-14.39
9.33
29.09
43.89
52.85
55.19
51.16
44.90
38.13
33.28
31.52
32.07
32.48
30.48
24.95
16.49
7.41
-0.27
-5.31
-8.20
-10.49
-13.98
-19.25
-26.01
-33.53
-40.38
-45.73
-49.16
-50.65
-50.48
-49.16
-46.71
-43.51
-40.28
-36.95
-33.74
-30.73
-27.20
-21.58
-14.81
-5.47
8.36
23.30
36.97
47.45
53.66
55.89
54.74
50.48
43.57
34.28
22.86
10.50
-1.71
-13.56
-24.64
-34.60
-43.42
-50.83
-56.91
-61.95
-65.85
-66.12
-64.83
-63.56
-63.22
-64.83
-68.98
-76.12
-86.44
-99.50
-114.76
-131.80
-149.87
-167.71
-184.60
-199.91
-213.03
-223.36
-230.01
-231.86
-227.40
-219.60
-209.16
-196.60
-182.24
-166.38
-149.23
-130.87
-111.47
-91.09
-70.03
-48.34
-26.72
-5.96
13.27
30.31
44.93
56.97
67.76
78.24
89.12
100.16
111.07
122.01
133.01
145.10
159.18
178.78
205.90
240.39
279.60
320.26
359.56
394.82
426.12
454.50
485.41
521.58
561.31
598.55
626.45
639.65
634.39
613.10
581.63
552.18
534.05
530.79
540.29
558.84
582.87
608.76
638.15
629.31
557.70
424.41
254.16
74.98
-95.98
-239.74
-369.01
-490.42
-602.00
-695.36
-766.31
-811.95
-834.34
-826.59
-785.61
-716.52
-643.48
-572.82
-501.70
-422.95
-339.20
-258.33
-188.32
-135.48
-103.52
-89.53
-86.22
-86.08
-84.63
-81.07
-76.41
-71.51
-67.43
-65.30
-63.73
-59.36
-49.99
-35.39
-17.30
1.79
19.68
34.03
42.85
46.09
45.73
43.27
39.68
35.20
30.10
24.76
19.35
14.01
9.37
6.78
6.66
8.93
13.15
18.87
25.51
32.15
37.80
41.82
44.40
45.95
47.11
48.56
50.84
54.05
57.79
61.37
64.09
65.35
64.43
60.62
53.60
43.60
31.13
16.69
0.38
-17.50
-35.10
-50.03
-60.89
-67.92
-72.26
-75.05
-76.87
-77.63
-76.66
-73.23
-67.33
-59.82
-52.01
-45.05
-39.48
-35.18
-31.59
-28.13
-24.50
-20.91
-17.71
-15.17
-13.24
-11.64
-10.05
-8.28
-6.28
-4.12
-2.12
-0.52
0.57
1.33
2.09
3.30
5.27
8.26
12.36
17.44
23.47
30.15
37.09
43.65
49.04
52.63
53.70
51.77
46.55
38.52
28.54
17.90
7.83
-0.49
-6.30
-9.36
-9.76
-8.25
-5.43
-1.92
1.87
5.60
9.02
11.77
13.40
13.40
10.89
5.85
-1.28
-9.63
-18.19
-26.09
-32.61
-37.34
-40.03
-41.32
-41.04
-38.83
-34.50
-28.39
-21.68
-16.32
-14.91
-15.22
-19.44
-28.30
-40.52
-53.61
-65.12
-73.30
-77.67
-79.04
-78.65
-78.54
-79.85
-83.27
-88.93
-95.83
-101.06
-100.16
-88.75
-64.64
-30.32
8.32
43.64
69.29
82.71
85.56
82.12
76.66
71.58
66.77
61.43
55.24
49.00
44.11
41.64
41.44
42.28
42.56
40.77
36.67
31.09
25.48
21.20
18.97
18.54
18.94
18.94
17.53
14.44
9.89
4.47
-1.22
-6.92
-12.80
-19.19
-26.31
-34.02
-41.58
-48.18
-52.75
-54.22
-52.13
-46.46
-37.68
-26.72
-14.70
-2.89
7.48
15.58
21.36
25.24
28.34
32.20
38.11
46.98
58.70
72.39
86.62
100.34
112.42
122.46
130.42
136.09
139.11
138.33
132.42
118.93
99.46
75.97
51.14
28.53
9.59
-4.06
-11.33
-12.01
-7.26
0.02
4.82
1.90
-11.93
-36.27
-65.56
-92.06
-109.19
-114.17
-108.68
-97.37
-85.07
-74.37
-65.50
-57.21
-48.75
-40.62
-34.16
-30.42
-29.32
-29.68
-29.72
-27.99
-24.03
-18.60
-13.18
-9.23
-7.44
-7.61
-8.68
-9.40
-8.81
-6.65
-3.41
-0.08
2.41
3.50
3.28
2.39
1.61
1.60
2.73
4.89
7.88
11.59
15.89
20.83
26.54
32.88
39.32
