1660334539.00
64.000000
-0.00
-0.00
-0.00
-0.00
-0.00
-0.00
-0.00
-0.00
-0.00
-0.00
0.00
0.01
0.01
-0.00
-0.03
-0.05
-0.05
0.00
0.13
0.36
0.66
1.01
1.37
1.72
2.06
2.40
2.79
3.24
3.80
4.42
5.06
5.66
6.20
6.68
7.15
7.68
8.31
9.14
10.08
11.03
11.89
12.59
13.19
13.82
14.68
15.88
17.67
19.86
22.23
24.52
26.59
28.51
30.58
33.17
36.56
41.14
46.56
52.34
57.95
63.05
67.68
72.26
77.40
83.55
91.23
99.99
109.16
117.95
125.87
132.88
139.45
146.68
153.09
160.91
170.88
183.41
197.59
210.68
218.24
215.28
197.98
165.09
118.90
63.56
3.94
-56.13
-114.76
-171.84
-228.02
-283.80
-338.94
-392.12
-442.00
-487.08
-525.94
-557.20
-579.47
-591.51
-592.30
-581.58
-559.96
-529.20
-491.42
-448.07
-399.20
-343.38
-278.80
-204.79
-123.23
-38.60
42.93
115.56
175.49
221.57
254.79
277.09
290.32
295.86
294.89
288.72
279.03
267.55
255.56
243.66
231.72
219.19
205.61
190.89
175.43
159.96
145.25
131.81
119.74
108.77
98.44
88.34
78.30
68.38
58.85
50.04
42.24
35.60
30.14
25.72
22.08
18.94
15.95
12.85
9.61
6.36
3.29
0.57
-1.80
-3.91
-5.89
-7.80
-9.57
-11.01
-11.93
-12.20
-11.81
-10.94
-9.80
-8.66
-7.69
-7.00
-6.56
-6.31
-6.18
-6.07
-5.97
-5.85
-5.71
-5.58
-5.46
-5.32
-5.17
-5.00
-4.79
-4.54
-4.20
-3.67
-2.89
-1.87
-0.73
0.27
0.88
0.95
0.51
-0.25
-1.06
-1.75
-2.28
-2.70
-3.08
-3.42
-3.63
-3.64
-3.40
-2.98
-2.49
-2.03
-1.65
-1.34
-1.06
-0.80
-0.57
-0.40
-0.35
-0.45
-0.67
-0.95
-1.20
-1.33
-1.29
-1.06
-0.72
-0.32
0.08
0.53
1.09
1.84
2.77
3.78
4.69
5.35
5.68
5.71
5.51
5.15
4.69
4.16
3.60
3.07
2.60
2.18
1.75
1.21
0.49
-0.43
-1.49
-2.58
-3.64
-4.58
-5.36
-5.91
-6.19
-6.16
-5.88
-5.46
-5.08
-4.84
-4.78
-4.87
-4.99
-5.02
-4.82
-4.28
-3.38
-2.18
-0.85
0.36
1.21
1.55
1.38
0.81
0.04
-0.79
-1.56
-2.26
-2.87
-3.38
-3.70
-3.73
-3.42
-2.82
-2.05
-1.33
-0.83
-0.67
-0.79
-1.01
-1.14
-1.03
-0.66
-0.20
0.13
0.10
-0.36
-1.18
-2.17
-3.11
-3.82
-4.17
-4.07
-3.49
-2.39
-0.85
0.98
2.81
4.37
5.35
5.62
5.26
4.47
3.53
2.61
1.80
1.10
0.47
-0.06
-0.45
-0.65
-0.63
-0.40
-0.03
0.38
0.75
0.99
1.06
0.95
0.71
0.41
0.08
-0.27
-0.65
-1.15
-1.78
-2.56
-3.39
-4.09
-4.41
-4.06
-2.90
-0.92
1.68
4.50
7.10
9.08
10.20
10.44
9.93
8.83
7.28
5.33
3.02
0.43
-2.25
-4.75
-6.76
-8.07
-8.64
-8.63
-8.26
-7.77
-7.30
-6.86
-6.37
-5.77
-5.03
-4.25
-3.55
-3.08
-2.94
-3.16
-3.67
-4.37
-5.12
-5.80
-6.24
-6.25
-5.67
-4.43
-2.60
-0.38
1.90
3.91
5.42
6.30
6.56
6.25
5.49
4.37
3.05
1.69
0.48
-0.42
-0.91
-1.01
-0.79
-0.39
0.06
0.46
0.77
0.98
1.12
1.21
1.26
1.25
1.11
0.78
0.19
-0.66
-1.70
-2.73
-3.45
-3.50
-2.62
-0.74
1.94
4.97
7.79
9.87
10.86
10.69
9.50
7.53
5.04
2.29
-0.49
-3.08
-5.21
-6.64
-7.25
-7.07
-6.28
-5.22
-4.20
-3.48
-3.16
-3.21
-3.50
-3.87
-4.21
-4.50
-4.74
-5.01
-5.36
-5.82
-6.32
-6.75
-6.90
-6.54
-5.47
-3.61
-0.99
2.18
5.65
9.10
12.29
15.03
17.18
18.64
19.28
19.08
18.03
16.27
14.02
11.56
9.17
7.04
5.28
3.92
2.91
2.19
1.66
1.24
0.83
0.34
-0.33
-1.20
-2.27
-3.52
-4.92
-6.45
-8.13
-9.98
-11.99
-14.13
-16.24
-18.12
-19.52
-20.23
-20.08
-19.03
-17.13
-14.51
-11.36
-7.89
-4.39
-1.12
1.66
3.77
5.21
6.16
6.95
7.95
9.41
11.42
13.78
16.07
17.77
18.46
17.98
16.43
14.11
11.39
8.53
5.66
2.75
-0.20
-3.16
-6.00
-8.53
-10.62
-12.22
-13.38
-14.23
-14.89
-15.41
-15.77
-15.86
-15.53
-14.64
-13.12
-11.00
-8.46
-5.74
-3.11
-0.77
1.18
2.78
4.12
5.32
6.53
7.79
9.15
10.58
12.01
13.37
14.52
15.30
15.55
15.07
13.78
11.73
9.11
6.24
3.51
1.20
-0.54
-1.74
-2.56
-3.10
-3.41
-3.43
-3.08
-2.33
-1.28
-0.11
0.99
1.94
2.71
3.39
4.03
4.59
4.96
5.05
4.83
4.41
4.00
3.75
3.73
3.80
3.78
3.47
2.80
1.81
0.65
-0.58
-1.82
-3.07
-4.35
-5.64
-6.93
-8.31
-9.93
-12.01
-14.68
-17.93
-21.48
-24.88
-27.55
-28.87
-28.36
-25.68
-20.75
-13.80
-5.39
3.72
12.68
20.76
27.51
32.73
36.44
38.78
39.85
39.78
38.68
36.69
33.99
30.74
27.07
23.09
18.85
14.45
9.97
5.56
1.38
-2.46
-5.93
-9.12
-12.22
-15.44
-18.89
-22.43
-25.65
-27.90
-28.60
-27.49
-24.80
-21.18
-17.47
-14.34
-12.06
-10.47
-9.20
-7.90
-6.52
-5.23
-4.29
-3.82
-3.69
-3.58
-3.11
-2.07
-0.53
1.23
2.87
4.08
4.74
4.86
4.58
4.02
3.28
2.39
1.34
0.09
-1.37
-3.04
-4.90
-6.88
-8.84
-10.59
-11.88
-12.51
-12.34
-11.35
-9.61
-7.27
-4.47
-1.34
2.03
5.51
8.94
12.09
14.65
16.35
17.02
16.66
15.45
13.70
11.76
9.90
8.27
6.89
5.64
4.42
3.11
1.66
0.07
-1.61
-3.30
-4.89
-6.30
-7.50
-8.50
-9.35
-10.14
-10.91
-11.61
-12.05
-11.95
-11.01
-9.00
-5.93
-2.08
2.09
6.03
9.32
11.76
13.33
14.12
14.24
13.74
12.65
11.06
9.13
7.11
5.22
3.59
2.18
0.87
-0.50
-1.95
-3.44
-4.78
-5.82
-6.48
-6.83
-6.98
-7.11
-7.37
-7.88
-8.69
-9.76
-10.91
-11.78
-11.94
-10.99
-8.75
-5.43
-1.51
2.36
5.63
8.03
9.54
10.37
10.69
10.57
9.98
8.86
7.27
5.42
3.61
2.11
1.09
0.54
0.30
0.16
-0.03
-0.32
-0.68
-1.03
-1.28
-1.45
-1.60
-1.88
-2.44
-3.41
-4.86
-6.71
-8.75
-10.58
-11.68
-11.61
-10.11
-7.32
-3.72
0.04
3.32
5.76
7.33
8.24
8.72
8.90
8.72
8.06
6.87
5.24
3.45
1.79
0.52
-0.24
-0.53
-0.45
-0.15
0.26
0.71
1.15
1.57
1.97
2.37
2.77
3.16
3.50
3.70
3.62
3.16
2.25
1.04
-0.15
-0.92
-0.91
0.03
1.69
3.64
5.36
6.46
6.79
6.40
5.45
4.10
2.44
0.60
-1.25
-2.86
-3.97
-4.45
-4.38
-4.01
-3.64
-3.50
-3.72
-4.26
-5.01
-5.89
-6.78
-7.63
-8.42
-9.15
-9.85
-10.56
-11.35
-12.22
-13.13
-13.95
-14.47
-14.42
-13.55
-11.66
-8.79
-5.17
-1.25
2.55
5.96
8.95
11.65
14.19
16.47
18.22
19.05
18.76
17.49
15.67
13.88
12.58
11.99
12.03
12.44
12.96
13.38
13.61
13.60
13.30
12.67
11.67
10.31
8.59
6.55
4.19
1.51
-1.49
-4.72
-7.99
-10.95
-13.20
-14.33
-14.10
-12.49
-9.72
-6.26
-2.61
0.75
3.45
5.33
6.35
6.55
6.03
4.91
3.33
1.50
-0.36
-1.99
-3.21
-3.95
-4.28
-4.39
-4.51
-4.82
-5.41
-6.26
-7.28
-8.34
-9.32
-10.12
-10.61
-10.71
-10.40
-9.78
-9.05
-8.42
-8.00
-7.71
-7.27
-6.32
-4.62
-2.14
0.83
3.86
6.49
8.39
9.40
9.51
8.77
7.28
5.19
2.70
0.10
-2.30
-4.24
-5.53
-6.17
-6.24
-5.93
-5.46
-5.04
-4.75
-4.59
-4.48
-4.31
-4.04
-3.73
-3.53
-3.61
-4.06
-4.90
-6.05
-7.38
-8.73
-9.94
-10.81
-11.15
-10.75
-9.49
-7.35
-4.46
-1.04
2.62
6.28
9.74
12.85
15.51
17.56
18.87
19.29
18.84
17.70
16.24
14.90
14.04
13.80
14.05
14.55
15.04
15.43
15.77
16.21
16.78
17.37
17.69
17.45
16.40
14.51
11.88
8.73
5.29
1.81
-1.45
-4.20
-6.18
-7.29
-7.65
-7.65
-7.77
-8.42
-9.72
-11.50
-13.35
-14.89
-15.93
-16.56
-17.09
-17.83
-18.89
-20.11
-21.09
-21.40
-20.80
-19.32
-17.28
-15.09
-13.12
-11.62
-10.67
-10.31
-10.56
-11.37
-12.65
-14.10
-15.35
-15.99
-15.83
-14.90
-13.47
-11.85
-10.23
-8.59
-6.76
-4.56
-1.92
1.03
4.01
6.75
9.02
10.71
11.75
12.11
11.78
10.77
9.17
7.21
5.20
3.45
2.20
1.55
1.47
1.84
2.54
3.50
4.75
6.41
8.59
11.37
14.65
18.21
21.69
24.77
27.17
28.78
29.58
29.68
29.25
28.48
27.64
26.94
26.51
26.34
26.25
25.95
25.18
23.78
21.66
18.86
15.39
11.35
6.89
2.24
-2.27
-6.34
-9.80
-12.60
-14.82
-16.59
-18.04
-19.26
-20.33
-21.32
-22.28
-23.22
-24.08
-24.77
-25.25
-25.51
-25.64
-25.74
-25.89
-26.15
-26.55
-27.04
-27.45
-27.46
-26.67
-24.73
-21.53
-17.30
-12.57
-7.94
-3.87
-0.57
2.02
4.08
5.72
6.92
7.56
7.55
6.95
5.98
4.93
4.08
3.53
3.22
3.00
2.67
2.07
1.17
0.04
-1.15
-2.17
-2.82
-3.00
-2.81
-2.50
-2.43
-2.87
-3.90
-5.32
-6.73
-7.67
-7.75
-6.78
-4.77
-1.94
1.42
4.93
8.25
11.06
13.17
14.51
15.09
14.98
14.29
13.12
11.58
9.80
7.96
6.24
4.78
3.66
2.84
2.21
1.64
1.01
0.27
-0.54
-1.32
-1.98
-2.44
-2.73
-2.91
-3.10
-3.42
-4.02
-4.98
-6.31
-7.87
-9.34
-10.29
-10.31
-9.19
-6.98
-4.01
-0.75
2.30
4.79
6.47
7.26
7.12
6.10
4.25
1.76
-1.13
-4.09
-6.74
-8.76
-9.92
-10.13
-9.49
-8.27
-6.78
-5.30
-4.00
-2.88
-1.83
-0.72
0.52
1.87
3.17
4.20
4.77
4.80
4.37
3.70
3.12
2.91
3.28
4.27
5.77
7.57
9.46
11.20
12.61
13.51
13.75
13.21
11.86
9.78
7.20
4.45
1.95
0.08
-0.86
-0.71
0.51
2.65
5.44
8.57
11.71
14.56
16.83
18.27
18.74
18.22
16.81
14.74
12.20
9.37
6.32
3.08
-0.25
-3.48
-6.33
-8.51
-9.83
-10.28
-10.05
-9.45
-8.78
-8.27
-8.03
-8.02
-8.12
-8.22
-8.23
-8.10
-7.88
-7.58
-7.22
-6.79
-6.23
-5.51
-4.62
-3.65
-2.76
-2.13
-1.90
-2.12
-2.68
-3.39
-4.09
-4.67
-5.17
-5.71
-6.40
-7.28
-8.25
-9.08
-9.50
-9.28
-8.26
-6.40
-3.82
-0.73
2.54
5.64
8.30
10.35
11.74
12.51
12.70
12.35
11.48
10.12
8.41
6.51
4.67
3.10
1.92
1.17
0.73
0.45
0.18
-0.18
-0.65
-1.20
-1.74
-2.23
-2.68
-3.16
-3.82
-4.82
-6.23
-7.98
-9.78
-11.17
-11.67
-10.90
-8.73
-5.33
-1.12
3.37
7.66
11.35
14.20
16.06
16.81
16.43
14.94
12.52
9.47
6.18
3.08
0.53
-1.23
-2.16
-2.35
-2.01
-1.43
-0.82
-0.32
0.04
0.36
0.76
1.32
2.00
2.67
3.12
3.14
2.62
1.48
-0.19
-2.25
-4.43
-6.41
-7.85
-8.49
-8.19
-7.00
-5.10
-2.76
-0.24
2.27
4.61
6.69
8.40
9.64
10.36
10.55
10.27
9.61
8.64
7.40
5.91
4.16
2.18
0.01
-2.29
-4.65
-7.07
-9.53
-12.07
-14.71
-17.46
-20.31
-23.19
-25.99
-28.46
-30.21
-30.85
-30.05
-27.74
-24.12
-19.67
-14.96
-10.45
-6.41
-2.91
0.02
2.32
3.87
4.50
4.18
3.05
1.43
-0.28
-1.78
-2.95
-3.93
-4.98
-6.38
-8.26
-10.53
-12.92
-15.06
-16.62
-17.41
-17.46
-16.98
-16.31
-15.79
-15.67
-15.94
-16.28
-16.19
-15.09
-12.62
-8.80
-4.00
1.12
5.91
9.88
12.79
14.60
15.39
15.28
14.39
12.90
11.13
9.46
8.37
8.27
9.38
11.64
14.71
18.03
20.98
23.10
24.15
24.15
23.27
21.73
19.68
17.22
14.43
11.40
8.31
5.46
3.25
2.18
2.67
4.89
8.70
13.56
18.71
23.35
26.90
29.13
30.11
30.03
29.09
27.47
25.40
23.17
21.17
19.78
19.22
19.42
20.02
20.58
20.86
20.85
20.64
20.29
19.75
18.82
17.21
14.63
10.85
6.14
0.93
-4.40
-9.58
-14.33
-18.29
-21.00
-22.11
-21.56
-19.09
-14.84
-9.49
-4.07
0.43
3.52
5.23
5.96
6.16
6.93
9.15
13.22
18.93
25.81
33.40
41.32
49.17
52.41
48.08
36.28
20.42
4.66
-8.43
-18.18
-24.97
-29.56
-32.67
-34.26
-34.37
-33.42
-32.24
-31.45
-31.12
-30.78
-29.90
-28.36
-26.04
-23.30
-20.82
-19.25
-18.87
-19.32
-19.99
-20.43
-20.63
-20.61
-20.53
-20.63
-21.06
-21.81
-22.63
-23.17
-23.20
-22.64
-21.42
-19.31
-16.41
-13.15
-10.08
-7.68
-6.12
-5.22
-4.50
-3.36
-1.42
1.23
4.15
6.81
8.94
10.67
12.51
15.00
18.44
22.68
27.11
30.87
33.22
33.73
32.44
29.75
26.19
22.22
18.07
13.78
9.34
4.88
0.72
-2.74
-5.31
-7.16
-8.75
-10.51
-12.61
-14.79
-16.47
-17.05
-16.15
-13.86
-10.68
-7.24
-4.03
-1.26
1.09
2.90
4.00
4.46
4.70
5.21
6.27
7.85
9.64
11.18
11.87
11.41
10.00
8.20
6.40
4.90
4.02
3.95
4.83
6.05
6.92
6.98
6.19
4.76
3.13
2.18
2.61
4.74
7.50
9.50
9.78
8.13
4.75
0.11
-5.17
-10.57
-15.82
-22.13
-30.64
-41.63
-54.32
-67.64
-80.70
-92.78
-103.05
-103.70
-89.65
-61.69
-25.86
10.66
41.78
63.03
72.33
70.60
61.45
48.63
35.46
24.25
16.07
10.79
7.80
6.65
7.18
9.18
11.30
12.06
10.70
7.52
3.41
-0.49
-3.13
-3.87
-2.72
-0.83
0.42
0.13
-1.68
-4.33
-6.76
-7.94
-7.21
-4.60
-1.00
2.38
4.53
5.01
3.84
1.48
-1.38
-4.04
-6.03
-7.30
-8.04
-8.52
-8.81
-8.83
-8.37
-7.35
-5.73
-3.74
-1.79
-0.25
0.69
1.10
1.23
1.32
1.51
1.77
2.00
2.05
1.88
1.51
0.95
0.18
-0.77
-1.81
-2.64
-2.83
-2.01
-0.08
2.66
5.54
7.83
9.00
8.97
8.04
6.62
4.97
3.06
0.74
-2.08
-5.18
-8.07
-10.20
-11.27
-11.32
-10.73
-9.95
-9.35
-9.06
-9.02
-9.02
-8.93
-8.65
-8.23
-7.78
-7.41
-7.19
-7.12
-7.25
-7.53
-7.84
-8.01
-7.87
-7.18
-5.66
-3.08
0.62
5.26
10.43
15.63
20.40
24.46
27.67
30.02
31.47
31.93
31.30
29.61
27.01
23.89
20.69
17.82
15.45
13.50
11.58
9.25
6.15
2.18
-2.48
-7.47
-12.42
-17.08
-21.39
-25.38
-29.13
-32.71
-36.14
-39.52
-42.88
-46.17
-49.16
-51.38
-52.25
-51.30
-48.32
-43.46
-37.05
-29.49
-21.05
-11.92
-2.38
7.10
15.81
23.02
28.29
31.63
33.55
34.82
36.09
37.71
39.63
41.53
42.98
43.60
43.15
41.52
38.77
35.14
31.00
26.74
22.67
18.96
15.58
12.41
9.28
6.09
2.78
-0.63
-3.96
-6.92
-9.06
-9.93
-9.28
-7.21
-4.19
-0.88
2.09
4.37
5.86
6.64
6.75
6.19
4.94
3.08
0.92
-1.15
-2.72
-3.59
-3.85
-3.76
-3.71
-4.01
-4.82
-6.19
-8.04
-10.26
-12.72
-15.28
-17.90
-20.57
-23.36
-26.31
-29.35
-32.13
-34.12
-34.69
-33.31
-29.86
-24.63
-18.31
-11.74
-5.66
-0.52
3.57
6.78
9.38
11.69
13.98
16.49
19.39
22.72
26.33
29.81
32.59
34.10
34.00
32.36
29.61
26.44
23.45
21.00
19.05
17.30
15.35
12.89
9.77
6.00
1.68
-3.03
-7.85
-12.35
-15.95
-18.04
-18.18
-16.32
-12.95
-8.91
-5.20
-2.59
-1.41
-1.49
-2.36
-3.47
-4.46
-5.18
-5.61
-5.73
-5.44
-4.63
-3.26
-1.53
0.11
1.15
1.15
0.01
-2.06
-4.53
-6.84
-8.51
-9.33
-9.36
-8.86
-8.19
-7.68
-7.58
-7.99
-8.90
-10.19
-11.64
-12.98
-13.89
-14.01
-13.04
-10.82
-7.42
-3.19
1.30
5.44
8.73
10.94
12.13
12.55
12.55
12.40
12.38
12.69
13.56
15.20
17.66
20.76
23.99
26.62
27.93
27.47
25.21
21.60
17.28
12.86
8.68
4.75
0.83
-3.34
-7.93
-12.88
-17.95
-22.78
-26.96
-30.10
-31.78
-31.70
-29.68
-25.80
-20.39
-13.99
-7.22
-0.67
5.25
10.30
14.42
17.64
20.04
21.72
22.85
23.59
24.09
24.43
24.61
24.55
24.18
23.47
22.42
21.10
19.48
17.51
15.11
12.19
8.76
4.87
0.66
-3.77
-8.32
-12.92
-17.45
-21.75
-25.66
-29.03
-31.76
-33.79
-34.98
-35.11
-33.94
-31.28
-27.18
-22.03
-16.46
-11.21
-6.89
-3.76
-1.68
-0.24
1.06
2.57
4.34
6.21
7.85
9.02
9.61
9.68
9.42
9.02
8.62
8.32
8.22
8.41
8.95
9.85
10.96
12.00
12.60
12.47
11.48
9.75
7.59
5.38
3.40
1.73
0.24
-1.36
-3.37
-5.98
-9.15
-12.52
-15.49
-17.35
-17.50
-15.64
-11.96
-7.08
-1.88
2.80
6.40
8.73
9.96
10.42
10.44
10.30
10.13
9.97
9.82
9.63
9.31
8.82
8.15
7.35
6.49
5.69
4.96
4.27
3.53
2.65
1.59
0.40
-0.81
-1.93
-2.87
-3.58
-4.09
-4.50
-4.93
-5.52
-6.48
-7.99
-10.24
-13.33
-17.12
-21.17
-24.80
-27.19
-27.74
-26.27
-23.10
-18.97
-14.70
-10.93
-7.89
-5.45
-3.25
-1.01
1.35
3.69
5.83
7.62
9.00
10.05
10.84
11.46
11.99
12.51
13.09
13.74
14.41
14.90
14.94
14.25
12.69
10.27
7.18
3.74
0.30
-2.88
-5.68
-8.07
-10.13
-11.98
-13.68
-15.23
-16.52
-17.31
-17.23
-15.84
-12.66
-7.43
-0.20
8.50
17.74
26.38
33.45
38.38
41.08
41.82
41.03
39.08
36.20
32.54
28.23
23.43
18.33
13.04
7.63
2.16
-3.23
-8.35
-12.90
-16.64
-19.47
-21.47
-22.89
-24.02
-25.14
-26.47
-28.05
-29.83
-31.64
-33.23
-34.35
-34.82
-34.60
-33.77
-32.54
-31.10
-29.53
-27.72
-25.36
-22.05
-17.41
-11.29
-3.84
4.45
12.81
20.44
26.68
31.15
33.84
34.99
34.96
34.07
32.48
30.23
27.28
23.65
19.45
14.88
10.17
5.54
1.11
-3.03
-6.78
-9.99
-12.47
-14.03
-14.64
-14.41
-13.63
-12.57
-11.34
-9.85
-7.90
-5.28
-1.98
1.77
5.58
9.01
11.66
13.29
13.74
13.03
11.36
9.23
7.34
6.47
7.10
9.22
12.23
15.19
17.19
17.71
16.72
14.60
11.87
8.93
6.00
3.17
0.52
-1.84
-3.79
-5.31
-6.55
-7.74
-9.17
-10.98
-13.18
-15.61
-18.11
-20.48
-22.61
-24.42
-25.86
-26.87
-27.40
-27.33
-26.55
-25.00
-22.65
-19.60
-16.12
-12.56
-9.37
-6.94
-5.43
-4.64
-4.09
-3.10
-1.14
1.98
5.99
10.22
13.86
16.18
16.74
15.46
12.58
8.62
4.22
0.07
-3.24
-5.29
-5.95
-5.30
-3.65
-1.43
0.92
3.08
4.98
6.81
8.91
11.55
14.71
18.02
20.86
22.68
23.26
22.85
22.10
21.72
22.28
23.90
26.21
28.34
29.12
27.37
22.36
14.17
3.90
-6.53
-14.96
-19.72
-20.15
-16.85
-11.30
-5.32
-0.48
2.31
2.77
1.12
-2.22
-6.76
-12.00
-17.40
-22.36
-26.32
-28.86
-29.86
-29.60
-28.59
-27.42
-26.52
-25.99
-25.62
-25.03
-23.87
-22.04
-19.71
-17.23
-14.83
-12.52
-9.97
-6.69
-2.25
3.46
10.01
16.55
22.00
25.44
26.44
25.25
22.71
20.02
18.31
18.32
20.16
23.34
26.94
29.95
31.46
30.92
28.18
23.46
17.27
10.29
3.23
-3.24
-8.53
-12.15
-13.75
-13.22
-10.72
-6.75
-2.04
2.62
6.71
10.02
12.69
14.97
17.00
18.74
19.92
20.27
19.62
17.96
15.38
11.98
7.84
2.96
-2.58
-8.64
-14.97
-21.29
-27.22
-32.36
-36.27
-38.55
-38.95
-37.52
-34.62
-30.89
-27.02
-23.55
-20.75
-18.62
-17.02
-15.80
-14.90
-14.26
-13.83
-13.40
-12.71
-11.49
-9.60
-7.11
-4.24
-1.29
1.52
4.03
6.17
7.87
9.10
9.84
10.20
10.34
10.37
10.25
9.71
8.39
6.04
2.73
-1.13
-4.87
-7.84
-9.69
-10.38
-10.17
-9.35
-8.15
-6.63
-4.83
-2.80
-0.68
1.33
3.10
4.66
6.12
7.68
9.49
11.55
13.76
15.96
17.99
19.76
21.27
22.60
23.81
24.93
25.94
26.68
26.98
26.66
25.66
24.03
21.91
19.47
16.76
13.77
10.36
6.45
2.03
-2.72
-7.50
-11.94
-15.66
-18.36
-19.90
-20.32
-19.79
-18.59
-17.04
-15.40
-13.86
-12.53
-11.48
-10.76
-10.38
-10.35
-10.58
-10.95
-11.31
-11.58
-11.77
-11.96
-12.24
-12.64
-13.08
-13.37
-13.34
-12.85
-11.92
-10.67
-9.29
-7.92
-6.61
-5.30
-3.93
-2.44
-0.91
0.57
1.91
3.08
4.11
4.93
5.34
5.08
4.02
2.41
0.92
0.46
1.76
5.05
9.86
15.29
20.37
24.46
27.35
29.14
29.97
29.77
28.34
25.52
21.41
16.49
11.43
6.92
3.43
1.05
-0.36
-1.08
-1.35
-1.35
-1.16
-0.84
-0.44
-0.05
0.24
0.39
0.33
0.04
-0.50
-1.31
-2.44
-3.92
-5.80
-8.11
-10.75
-13.48
-15.84
-17.28
-17.35
-15.85
-12.99
-9.33
-5.62
-2.50
-0.36
0.72
0.90
0.41
-0.58
-1.97
-3.64
-5.48
-7.34
-9.09
-10.73
-12.33
-14.00
-15.73
-17.41
-18.84
-19.78
-20.09
-19.69
-18.49
-16.47
-13.62
-10.17
-6.57
-3.39
-1.17
-0.13
-0.11
-0.65
-1.27
-1.63
-1.69
-1.57
-1.32
-0.82
0.26
2.30
5.47
9.56
14.01
18.08
21.11
22.76
23.11
22.51
21.45
20.26
19.06
17.75
16.21
14.41
12.47
10.59
8.98
7.76
6.94
6.47
6.28
6.29
6.46
6.70
6.92
7.02
6.91
6.57
6.07
5.51
5.01
4.57
4.08
3.26
1.83
-0.45
-3.67
-7.70
-12.23
-16.84
-21.04
-24.37
-26.43
-27.03
-26.22
-24.31
-21.77
-19.16
-16.86
-15.11
-13.88
-13.06
-12.49
-12.04
-11.55
-10.88
-9.84
-8.20
-5.81
-2.56
1.53
6.25
11.26
16.11
20.37
23.77
26.20
27.74
28.47
28.48
27.77
26.34
24.22
21.44
18.08
14.11
9.49
4.19
-1.72
-7.98
-14.22
-19.99
-24.79
-28.13
-29.53
-28.60
-25.18
-19.54
-12.31
-4.42
3.19
9.79
15.03
18.87
21.47
23.03
23.72
23.67
22.94
21.61
19.73
17.37
14.67
11.79
8.94
6.29
3.94
1.88
0.02
-1.75
-3.49
-5.21
-6.86
-8.37
-9.75
-11.02
-12.26
-13.51
-14.77
-15.98
-17.01
-17.76
-18.15
-18.26
-18.25
-18.33
-18.63
-19.08
-19.36
-19.01
-17.64
-15.12
-11.69
-7.92
-4.48
-1.87
-0.24
0.60
1.12
1.85
3.25
5.67
9.24
13.91
19.37
25.04
30.17
33.97
35.92
35.97
34.52
32.33
30.11
28.27
26.77
25.14
22.80
19.35
14.72
9.21
3.27
-2.66
-8.38
-13.86
-19.20
-24.42
-29.36
-33.64
-36.74
-38.14
-37.52
-34.90
-30.68
-25.50
-20.13
-15.22
-11.22
-8.29
-6.29
-4.93
-3.82
-2.66
-1.30
0.19
1.64
2.84
3.65
4.11
4.35
4.51
4.69
4.91
5.18
5.54
6.09
6.87
7.84
8.78
9.44
9.66
9.43
8.92
8.38
7.99
7.77
7.50
6.88
5.58
3.41
0.41
-3.19
-7.01
-10.64
-13.78
-16.34
-18.45
-20.30
-22.07
-23.72
-25.00
-25.56
-25.07
-23.33
-20.31
-16.10
-10.89
-4.97
1.23
7.20
12.35
16.25
18.76
20.09
20.75
21.34
22.21
23.38
24.48
24.98
24.36
22.36
19.06
14.77
10.00
5.26
1.03
-2.29
-4.47
-5.41
-5.26
-4.34
-3.03
-1.66
-0.33
1.12
2.97
5.48
8.65
12.14
15.35
17.64
18.51
17.80
15.70
12.60
8.94
5.11
1.32
-2.27
-5.53
-8.23
-10.17
-11.17
-11.22
-10.54
-9.51
-8.55
-8.03
-8.11
-8.73
-9.63
-10.50
-11.07
-11.28
-11.25
-11.20
-11.38
-11.92
-12.87
-14.15
-15.69
-17.42
-19.18
-20.72
-21.67
-21.63
-20.36
-17.92
-14.71
-11.29
-8.18
-5.68
-3.81
-2.44
-1.39
-0.60
-0.05
0.26
0.41
0.58
1.01
1.90
3.35
5.38
7.87
10.64
13.38
15.70
17.30
18.04
18.03
17.65
17.30
17.29
17.67
18.27
18.85
19.22
19.29
19.06
18.50
17.49
15.90
13.72
11.14
8.61
6.67
5.80
6.27
8.07
10.86
14.07
17.03
19.16
20.08
19.68
18.12
15.68
12.61
9.06
5.07
0.70
-3.84
-8.26
-12.20
-15.45
-18.05
-20.19
-22.10
-23.86
-25.40
-26.52
-27.05
-27.03
-26.61
-26.06
-25.61
-25.36
-25.27
-25.27
-25.32
-25.47
-25.89
-26.71
-27.89
-29.08
-29.64
-28.78
-25.83
-20.52
-13.16
-4.43
4.75
13.56
21.45
28.09
33.31
36.99
39.10
39.85
39.66
39.02
38.17
36.94
34.80
31.13
25.71
18.93
11.66
4.92
-0.58
-4.68
-7.67
-9.99
-11.95
-13.54
-14.58
-14.91
-14.52
-13.66
-12.61
-11.65
-10.87
-10.21
-9.47
-8.44
-6.94
-4.90
-2.33
0.65
3.86
7.07
10.01
12.41
14.08
14.94
15.00
14.33
13.02
11.14
8.92
6.73
5.01
4.14
4.18
4.79
5.36
5.23
4.00
1.66
-1.43
-4.79
-8.00
-10.77
-13.04
-14.83
-16.21
-17.24
-18.00
-18.53
-18.86
-18.95
-18.68
-17.92
-16.56
-14.64
-12.35
-10.09
-8.33
-7.45
-7.62
-8.71
-10.36
-12.06
-13.34
-13.83
-13.36
-11.86
-9.37
-6.01
-1.97
2.47
6.99
11.33
15.24
18.55
21.09
22.73
23.37
23.05
21.98
20.46
18.83
17.22
15.57
13.61
11.07
7.84
4.10
0.24
-3.29
-6.13
-8.06
-8.98
-8.83
-7.49
-4.89
-1.01
4.00
9.84
16.10
22.37
28.29
33.57
37.95
41.17
42.95
43.03
41.35
38.12
33.81
29.02
24.32
20.02
16.11
12.37
8.50
4.31
-0.23
-4.96
-9.69
-14.27
-18.61
-22.67
-26.43
-29.84
-32.84
-35.39
-37.54
-39.47
-41.39
-43.51
-45.89
-48.36
-50.56
-51.97
-52.16
-50.89
-48.25
-44.65
-40.71
-36.99
-33.80
-30.93
-27.77
-23.44
-17.17
-8.75
1.38
12.11
22.04
29.88
34.75
36.49
35.65
33.34
30.98
29.79
30.45
32.82
36.00
38.72
39.85
38.80
35.65
30.99
25.52
19.75
13.95
8.19
2.57
-2.72
-7.41
-11.20
-13.81
-14.98
-14.52
-12.32
-8.46
-3.31
2.53
8.32
13.33
17.09
19.32
20.02
19.35
17.58
15.11
12.42
9.99
8.18
7.03
6.23
5.24
3.56
0.95
-2.42
-6.06
-9.44
-12.20
-14.29
-15.91
-17.34
-18.74
-20.16
-21.52
-22.71
-23.64
-24.26
-24.53
-24.48
-24.13
-23.58
-22.87
-21.99
-20.74
-18.84
-15.90
-11.63
-5.94
0.94
8.43
15.74
21.99
26.51
28.94
29.36
28.19
26.02
23.39
20.71
18.21
15.93
13.80
11.73
9.59
7.26
4.69
1.89
-1.06
-4.04
-6.94
-9.71
-12.37
-15.04
-17.91
-21.13
-24.69
-28.34
-31.56
-33.71
-34.34
-33.32
-31.02
-28.07
-24.99
-21.94
-18.63
-14.55
-9.33
-3.14
3.26
8.62
11.70
11.74
8.74
3.47
-2.79
-8.49
-12.21
-12.89
-10.24
-4.66
2.94
11.38
19.53
26.38
31.36
34.39
35.78
35.84
34.82
32.89
30.30
27.37
24.19
20.98
17.90
15.08
12.30
9.12
5.30
1.03
-3.03
-6.26
-7.84
-7.03
-3.24
3.66
12.27
20.59
26.41
30.46
32.80
33.47
31.46
27.21
21.96
17.23
14.27
13.39
13.92
14.13
12.51
8.32
2.00
-5.50
-13.11
-19.93
-25.32
-28.83
-30.45
-30.24
-28.37
-25.13
-21.12
-17.16
-13.94
-11.84
-10.86
-10.90
-11.58
-12.44
-12.92
-12.59
-11.20
-8.73
-5.39
-1.65
1.83
4.46
6.00
6.56
6.48
6.13
5.73
5.29
4.70
3.83
2.68
1.33
-0.08
-1.44
-2.73
-3.86
-4.65
-4.87
-4.40
-3.32
-1.97
-0.89
-0.61
-1.53
-3.73
-7.06
-11.24
-15.94
-20.90
-25.93
-30.85
-35.43
-39.38
-42.30
-43.69
-43.17
-40.59
-36.19
-30.52
-24.38
-18.51
-13.36
-8.97
-5.02
-1.08
3.16
7.67
12.19
16.35
19.75
22.04
22.96
22.45
20.69
18.09
15.23
12.90
11.83
12.39
14.41
17.29
20.42
23.35
25.86
27.78
29.08
29.73
29.57
28.35
26.01
22.92
19.78
17.31
15.83
15.47
16.11
17.39
18.79
18.95
17.00
12.99
8.85
5.20
2.05
-0.98
-3.93
-6.66
-8.97
-10.51
-11.02
-10.53
-9.61
-8.81
-8.65
-9.52
-11.58
-14.71
-18.42
-22.14
-25.48
-28.45
-31.18
-33.82
-36.41
-38.91
-41.24
-43.25
-44.81
-45.75
-45.95
-45.04
-42.52
-38.04
-31.52
-23.26
-13.84
-3.97
5.64
14.33
21.65
27.35
31.30
33.47
33.90
32.77
30.40
27.29
24.03
21.22
19.39
18.77
19.31
20.67
22.37
23.92
24.97
25.28
24.80
23.61
21.86
19.75
17.42
14.98
12.37
9.50
6.25
2.62
-1.17
-4.76
-7.64
-9.33
-9.49
-8.04
-5.17
-1.28
3.09
7.37
11.07
13.84
15.53
16.24
16.18
15.59
14.61
13.30
11.65
9.83
8.15
7.01
6.66
6.98
7.44
7.30
5.90
2.95
-1.37
-6.58
-12.16
-17.73
-23.09
-28.15
-32.75
-36.68
-39.70
-41.63
-42.40
-41.99
-40.32
-37.24
-32.48
-25.82
-17.30
-7.30
3.37
13.68
22.58
29.28
33.41
34.97
34.24
31.65
27.71
22.96
18.01
13.44
9.70
6.95
5.01
3.42
1.64
-0.71
-3.73
-7.22
-10.78
-14.02
-16.67
-18.69
-20.17
-21.32
-22.30
-23.22
-24.05
-24.63
-24.67
-23.83
-21.75
-18.21
-13.25
-7.24
-0.78
5.41
10.73
14.90
17.94
20.17
21.99
23.70
25.36
26.78
27.67
27.80
27.15
26.00
24.81
24.07
24.04
24.67
25.59
26.21
25.97
24.53
21.82
18.02
13.39
8.13
2.31
-4.09
-11.10
-18.63
-26.38
-33.83
-40.30
-45.06
-47.50
-47.23
-44.21
-38.79
-31.67
-23.79
-16.18
-9.66
-4.67
-1.09
1.63
4.21
7.21
10.77
14.58
18.05
20.55
21.58
20.86
18.34
14.28
9.25
4.07
-0.30
-3.16
-4.38
-4.48
-4.51
-5.52
-8.14
-12.32
-17.38
-22.41
-26.59
-29.40
-30.56
-29.92
-27.34
-22.75
-16.26
-8.41
-0.15
7.40
13.24
16.90
18.53
18.73
18.19
17.37
16.29
14.76
12.60
9.91
7.09
4.68
3.06
2.27
2.05
1.96
1.64
0.95
-0.04
-1.18
-2.41
-3.80
-5.59
-8.01
-11.19
-15.02
-19.17
-23.06
-26.01
-27.31
-26.39
-23.03
-17.41
-10.16
-2.27
5.25
11.56
16.26
19.33
21.00
21.56
21.19
19.98
17.98
15.33
12.34
9.32
6.54
4.07
1.77
-0.67
-3.49
-6.72
-10.10
-13.17
-15.40
-16.48
-16.43
-15.63
-14.60
-13.81
-13.48
-13.44
-13.29
-12.57
-10.97
-8.43
-5.19
-1.63
1.85
4.97
7.64
10.01
12.31
14.81
17.68
21.01
24.77
28.80
32.80
36.38
39.07
40.56
40.76
39.88
38.38
36.72
35.20
33.80
32.30
30.41
27.99
25.07
21.78
18.25
14.52
10.59
6.54
2.57
-1.08
-4.22
-6.90
-9.37
-12.01
-15.08
-18.59
-22.22
-25.45
-27.77
-28.92
-28.97
-28.26
-27.22
-26.15
-25.11
-23.97
-22.54
-20.74
-18.65
-16.44
-14.23
-12.06
-9.84
-7.50
-5.09
-2.77
-0.80
0.66
1.56
2.02
2.24
2.38
2.49
2.53
2.45
2.31
2.26
2.54
3.31
4.57
6.08
7.49
8.48
8.94
8.97
8.83
8.66
8.42
7.82
6.50
4.19
0.89
-3.10
-7.30
-11.23
-14.57
-17.29
-19.58
-21.70
-23.80
-25.79
-27.30
-27.85
-27.06
-24.84
-21.44
-17.29
-12.82
-8.25
-3.52
1.57
7.22
13.47
20.12
26.74
32.78
37.74
41.21
43.01
43.06
41.40
38.05
33.07
26.56
18.83
10.37
1.82
-6.19
-13.20
-19.02
-23.66
-27.20
-29.71
-31.24
-31.81
-31.54
-30.67
-29.48
-28.26
-27.19
-26.29
-25.44
-24.45
-23.08
-21.09
-18.25
-14.43
-9.69
-4.31
1.14
6.03
9.77
12.10
13.08
13.09
12.58
11.93
11.35
10.84
10.36
9.81
9.14
8.28
7.21
5.94
4.52
3.08
1.84
1.04
0.83
1.19
1.88
2.60
3.04
3.02
2.59
2.09
2.17
3.44
6.27
10.60
15.98
21.70
26.87
30.70
32.69
32.79
31.20
28.29
24.52
20.41
16.40
12.71
9.31
5.57
1.30
-3.27
-7.68
-11.97
-16.27
-20.34
-23.88
-26.70
-28.72
-29.94
-30.54
-30.81
-31.01
-31.22
-31.33
-31.13
-30.27
-28.41
-25.18
-20.49
-14.59
-8.03
-1.44
4.62
9.75
13.85
17.03
19.55
21.58
23.15
24.12
24.34
23.71
22.27
20.19
17.72
15.15
12.67
10.32
8.04
5.73
3.33
0.85
-1.67
-4.21
-6.83
-9.61
-12.62
-15.74
-18.61
-20.67
-21.35
-20.25
-17.32
-12.87
-7.45
-1.74
3.70
8.52
12.62
16.04
18.92
21.36
23.31
24.58
24.87
23.93
21.72
18.54
14.94
11.57
8.91
7.09
5.89
4.86
3.55
1.65
-0.96
-4.29
-8.21
-12.58
-17.09
-21.36
-24.88
-27.22
-28.06
-27.35
-25.32
-22.42
-19.24
-16.25
-13.80
-12.03
-10.82
-9.94
-9.05
-7.92
-6.51
-4.96
-3.45
-2.10
-0.94
0.13
1.26
2.63
4.28
6.15
8.14
10.31
12.74
15.39
18.02
20.25
21.69
22.09
21.36
18.76
14.07
7.83
1.37
-3.69
-5.96
-4.68
-0.22
5.98
11.78
15.52
16.63
15.90
14.72
14.00
13.61
13.16
12.12
10.72
9.71
9.44
9.17
7.36
2.72
-4.68
-13.07
-19.90
-23.27
-22.88
-19.92
-16.25
-13.37
-11.50
-10.54
-10.15
-10.06
-10.09
-9.83
-8.35
-4.80
1.14
9.17
17.56
24.16
27.84
28.73
27.42
24.31
19.64
13.97
7.85
2.22
-1.91
-3.93
-3.99
-2.90
-1.67
-0.48
0.39
0.81
0.67
-0.05
-1.19
-2.52
-3.71
-4.38
-4.27
-3.37
-1.91
-0.16
1.71
3.70
5.90
8.41
11.28
14.51
17.91
21.26
24.26
26.69
28.45
29.60
30.28
30.66
30.82
30.63
29.86
28.23
25.59
21.92
17.27
11.65
5.00
-2.70
-11.20
-19.80
-27.52
-33.37
-36.95
-38.76
-40.17
-42.89
-48.28
-56.83
-68.05
-81.03
-94.63
-107.67
-118.63
-125.57
-126.37
-119.44
-104.60
-83.46
-59.41
-35.98
-15.53
1.67
17.22
33.59
52.70
74.76
97.94
118.45
132.35
136.78
130.66
114.78
91.52
64.45
38.16
18.03
8.79
13.73
33.02
62.39
93.84
118.35
128.80
122.51
106.19
87.81
73.56
67.34
70.11
80.73
97.05
116.20
134.45
147.17
149.08
136.69
109.69
70.98
24.96
-24.16
-74.12
-125.02
-177.73
-232.24
-285.53
-331.75
-363.99
-376.58
-366.26
-333.80
-284.64
-227.95
-174.38
-132.48
-106.09
-93.48
-88.94
-85.08
-77.01
-64.91
-53.22
-47.36
-50.16
-60.33
-73.34
-83.89
-86.77
-78.70
-59.28
-30.04
6.93
49.78
96.85
147.18
191.81
220.98
230.59
222.42
200.88
171.49
140.30
112.73
91.90
77.62
68.30
61.73
55.77
49.05
41.35
33.43
26.16
20.14
15.45
12.58
11.35
11.63
12.73
13.93
14.83
14.88
12.86
6.89
-3.72
-18.28
-34.04
-46.63
-51.88
-47.64
-35.01
-18.47
-4.21
2.53
-0.86
-14.04
-34.22
-58.33
-82.52
-102.33
-113.08
-110.73
-93.31
-62.15
-21.94
21.02
60.13
91.18
113.05
126.66
133.28
133.21
125.78
107.33
80.95
51.54
24.94
6.09
-2.53
-1.38
6.86
18.32
29.66
39.13
45.52
48.44
47.86
43.71
35.96
24.92
11.46
-2.43
-14.15
-22.13
-26.07
-27.06
-26.97
-27.37
-28.86
-31.48
-33.62
-33.67
-31.16
-26.60
-21.15
-16.26
-12.86
-11.24
-11.33
-11.70
-10.23
-4.69
6.43
22.83
41.53
56.93
63.36
56.50
36.67
8.48
-20.85
-44.37
-58.08
-62.54
-60.99
-55.39
-50.74
-48.64
-48.04
-47.01
-44.57
-41.14
-39.87
-41.43
-46.15
-54.06
-64.13
-75.62
-88.32
-101.76
-111.12
-113.84
-106.03
-85.43
-53.70
-15.90
20.67
49.48
67.37
75.20
75.91
73.35
69.60
64.79
58.79
52.19
46.59
43.96
45.28
49.34
53.91
56.20
54.16
47.95
39.70
32.61
29.54
31.67
37.68
44.80
49.58
49.46
44.06
35.26
26.51
21.73
23.66
32.58
45.89
58.15
62.63
53.92
30.10
-6.36
-48.79
-88.54
-117.53
-130.16
-124.41
-102.38
-69.61
-34.13
-4.27
14.23
20.23
17.50
12.82
12.47
18.85
29.74
39.81
44.21
41.42
33.79
25.69
20.51
18.64
17.67
14.46
7.31
-2.75
-12.63
-19.09
-20.52
-17.48
-12.76
-9.87
-10.98
-16.15
-23.32
-29.01
-30.44
-26.69
-19.22
-11.14
-5.47
-3.59
-4.70
-6.54
-6.90
-4.96
-1.33
2.55
5.57
7.53
8.84
9.69
9.70
8.12
4.63
-0.02
-4.29
-6.72
-6.85
-5.38
-3.92
-3.68
-4.88
-6.98
-8.93
-9.76
-8.97
-6.25
-1.48
4.95
12.03
18.06
21.10
19.85
14.34
6.02
-2.92
-10.01
-13.66
-13.78
-11.61
-8.96
-7.32
-7.36
-8.86
-10.89
-12.09
-11.16
-7.25
-0.44
7.87
15.09
18.18
14.90
5.12
-8.65
-21.86
-29.57
-28.31
-17.54
0.28
20.66
38.90
51.68
57.71
57.49
52.43
44.05
33.58
22.14
11.19
2.70
-1.16
1.00
9.03
20.82
32.95
41.73
44.41
39.93
28.85
12.90
-5.65
-24.45
-41.14
-53.32
-58.82
-56.39
-46.56
-32.09
-17.46
-7.48
-5.41
-11.83
-24.58
-39.91
-54.08
-64.74
-71.40
-74.96
-77.01
-79.30
-83.12
-88.57
-94.13
-96.58
-92.10
-78.13
-55.18
-27.24
-0.24
20.53
32.72
37.59
38.80
40.34
44.86
53.12
64.50
77.62
90.72
101.57
107.75
107.29
99.79
87.05
72.80
61.47
56.54
59.12
67.23
76.25
80.25
73.94
54.71
24.09
-12.15
-45.28
-66.35
-69.15
-52.58
-21.45
14.82
45.04
59.93
55.11
32.47
-0.65
-34.11
-58.37
-67.37
-60.08
-40.20
-14.72
8.41
22.59
