1660937081.00
64.000000
-0.00
-0.00
-0.00
-0.00
-0.00
-0.00
-0.00
-0.00
-0.00
-0.00
0.00
0.01
0.01
-0.00
-0.03
-0.05
-0.05
0.00
0.13
0.36
0.66
1.01
1.37
1.72
2.06
2.40
2.79
3.25
3.81
4.44
5.10
5.73
6.32
6.90
7.51
8.25
9.15
10.29
11.55
12.81
13.94
14.92
15.81
16.82
18.16
20.00
22.52
25.49
28.63
31.64
34.38
36.98
39.80
43.30
47.79
53.59
60.29
67.32
74.09
80.35
86.29
92.52
99.82
108.66
119.45
131.49
143.84
155.60
166.38
176.51
186.91
199.08
211.64
226.54
243.97
263.71
284.49
303.67
317.46
321.73
313.41
291.50
257.88
215.69
168.72
120.04
71.57
24.20
-21.52
-64.96
-105.49
-142.55
-176.68
-209.17
-241.77
-275.93
-311.90
-348.13
-381.16
-406.64
-420.50
-420.66
-407.88
-385.43
-357.82
-329.08
-301.60
-275.98
-251.77
-228.36
-205.84
-184.88
-166.17
-149.86
-135.40
-121.78
-108.10
-94.02
-79.80
-66.24
-54.20
-44.15
-36.00
-29.16
-22.85
-16.50
-9.95
-3.47
2.42
7.31
11.09
13.96
16.32
18.52
20.71
22.84
24.71
26.13
26.98
27.29
27.18
26.84
26.43
26.09
25.85
25.66
25.40
24.92
24.14
23.13
22.03
21.04
20.31
19.84
19.54
19.23
18.81
18.26
17.62
17.00
16.45
15.97
15.48
14.95
14.40
13.90
13.51
13.22
12.98
12.65
12.20
11.66
11.17
10.89
10.88
11.08
11.31
11.40
11.24
10.88
10.45
10.08
9.80
9.59
9.33
8.97
8.53
8.06
7.65
7.34
7.11
6.90
6.69
6.48
6.29
6.15
6.04
5.90
5.69
5.39
5.02
4.60
4.12
3.57
2.95
2.25
1.53
0.87
0.30
-0.16
-0.57
-1.00
-1.52
-2.15
-2.85
-3.55
-4.17
-4.68
-5.08
-5.41
-5.73
-6.09
-6.52
-7.03
-7.59
-8.11
-8.52
-8.77
-8.84
-8.80
-8.75
-8.74
-8.80
-8.83
-8.73
-8.37
-7.77
-7.01
-6.23
-5.51
-4.89
-4.31
-3.71
-3.09
-2.53
-2.10
-1.85
-1.71
-1.55
-1.25
-0.80
-0.28
0.18
0.50
0.69
0.88
1.18
1.61
2.09
2.50
2.75
2.86
2.93
3.10
3.43
3.88
4.35
4.71
4.88
4.82
4.57
4.21
3.82
3.49
3.29
3.23
3.28
3.38
3.47
3.50
3.47
3.41
3.36
3.34
3.42
3.61
3.91
4.28
4.61
4.80
4.76
4.49
4.10
3.75
3.57
3.58
3.68
3.74
3.67
3.51
3.34
3.27
3.35
3.52
3.68
3.71
3.60
3.39
3.15
2.95
2.78
2.64
2.47
2.27
2.04
1.81
1.63
1.51
1.46
1.44
1.40
1.30
1.16
1.05
1.05
1.21
1.53
1.91
2.21
2.36
2.35
2.24
2.15
2.15
2.26
2.46
2.66
2.80
2.82
2.70
2.47
2.18
1.85
1.55
1.29
1.08
0.94
0.89
0.95
1.12
1.35
1.56
1.62
1.46
1.09
0.62
0.20
-0.01
0.05
0.33
0.73
1.10
1.35
1.44
1.41
1.33
1.25
1.20
1.19
1.21
1.23
1.19
1.01
0.68
0.22
-0.25
-0.61
-0.78
-0.74
-0.61
-0.48
-0.41
-0.38
-0.29
-0.06
0.31
0.73
1.09
1.27
1.26
1.12
0.99
0.99
1.20
1.60
2.08
2.46
2.57
2.34
1.82
1.18
0.61
0.26
0.17
0.29
0.50
0.68
0.77
0.75
0.66
0.58
0.57
0.65
0.80
0.93
0.97
0.89
0.71
0.52
0.37
0.30
0.31
0.40
0.54
0.67
0.76
0.76
0.67
0.53
0.41
0.34
0.34
0.34
0.31
0.20
0.06
-0.02
0.02
0.21
0.53
0.88
1.18
1.32
1.26
1.02
0.70
0.38
0.14
0.02
-0.02
-0.02
0.01
0.07
0.18
0.28
0.34
0.29
0.15
0.00
-0.07
-0.05
0.04
0.11
0.11
0.09
0.14
0.35
0.71
1.07
1.28
1.22
0.93
0.56
0.31
0.28
0.44
0.65
0.78
0.77
0.68
0.60
0.57
0.57
0.51
0.35
0.06
-0.25
-0.50
-0.61
-0.58
-0.46
-0.29
-0.10
0.08
0.24
0.36
0.44
0.47
0.50
0.54
0.61
0.68
0.72
0.72
0.68
0.61
0.52
0.39
0.19
-0.09
-0.40
-0.66
-0.79
-0.75
-0.57
-0.31
-0.04
0.18
0.33
0.41
0.45
0.45
0.43
0.41
0.37
0.29
0.12
-0.20
-0.66
-1.24
-1.88
-2.53
-3.19
-3.84
-4.45
-4.94
-5.23
-5.30
-5.28
-5.41
-5.96
-7.02
-8.50
-10.05
-11.29
-12.01
-12.22
-12.24
-12.47
-13.26
-14.68
-16.62
-18.76
-20.84
-22.74
-24.56
-26.62
-29.27
-32.81
-37.29
-42.48
-47.91
-53.09
-57.66
-61.62
-65.37
-69.57
-74.87
-81.57
-89.43
-97.70
-105.47
-112.10
-117.56
-122.46
-127.78
-134.48
-143.20
-154.17
-167.21
-181.53
-195.61
-206.95
-212.43
-209.08
-195.03
-170.28
-136.63
-96.82
-53.23
-7.00
41.82
93.20
145.78
196.21
239.87
272.59
292.60
301.37
303.00
302.36
303.02
306.13
310.58
314.44
316.46
316.97
317.52
319.73
324.17
329.95
335.17
337.73
336.01
329.15
316.80
298.76
274.91
245.31
210.36
170.91
127.91
82.04
33.58
-17.27
-69.55
-120.90
-167.57
-205.28
-230.76
-243.01
-243.65
-236.20
-224.58
-211.78
-199.15
-186.79
-174.42
-162.15
-150.72
-140.94
-133.14
-126.76
-120.62
-113.55
-105.02
-95.33
-85.46
-76.53
-69.23
-63.59
-59.06
-54.81
-50.14
-44.80
-38.98
-33.24
-28.20
-24.29
-21.59
-19.81
-18.44
-16.96
-15.05
-12.69
-10.16
-7.84
-6.08
-4.99
-4.45
-4.20
-3.91
-3.42
-2.67
-1.77
-0.91
-0.20
0.31
0.67
0.96
1.24
1.51
1.70
1.75
1.61
1.35
1.05
0.81
0.66
0.57
0.49
0.38
0.25
0.17
0.19
0.34
0.60
0.93
1.28
1.60
1.86
2.05
2.19
2.36
2.63
3.03
3.54
4.04
4.35
4.28
3.73
2.68
1.22
-0.46
-2.14
-3.54
-4.46
-4.78
-4.56
-4.03
-3.49
-3.20
-3.29
-3.68
-4.21
-4.66
-4.90
-4.93
-4.86
-4.77
-4.69
-4.56
-4.27
-3.77
-3.12
-2.51
-2.13
-2.10
-2.37
-2.73
-2.89
-2.61
-1.79
-0.52
1.03
2.70
4.36
5.97
7.51
8.89
9.98
10.63
10.73
10.27
9.30
7.96
6.40
4.75
3.15
1.71
0.53
-0.34
-0.92
-1.25
-1.44
-1.59
-1.75
-1.99
-2.30
-2.65
-3.00
-3.33
-3.64
-3.97
-4.30
-4.58
-4.66
-4.41
-3.80
-2.92
-1.97
-1.16
-0.56
-0.12
0.34
0.93
1.69
2.58
3.52
4.48
5.45
6.40
7.20
7.67
7.59
6.87
5.55
3.82
1.93
0.13
-1.41
-2.56
-3.30
-3.61
-3.56
-3.25
-2.82
-2.41
-2.14
-2.04
-2.10
-2.24
-2.42
-2.56
-2.65
-2.69
-2.71
-2.71
-2.74
-2.80
-2.92
-3.05
-3.12
-3.00
-2.56
-1.73
-0.60
0.63
1.67
2.33
2.54
2.47
2.37
2.46
2.85
3.47
4.19
4.86
5.41
5.82
6.10
6.22
6.06
5.50
4.42
2.80
0.74
-1.56
-3.85
-5.88
-7.45
-8.46
-8.91
-8.92
-8.65
-8.27
-7.93
-7.69
-7.56
-7.42
-7.09
-6.36
-5.01
-2.95
-0.24
2.80
5.78
8.23
9.88
10.60
10.49
9.76
8.64
7.35
6.03
4.82
3.79
2.97
2.35
1.89
1.55
1.33
1.22
1.21
1.22
1.16
0.89
0.35
-0.42
-1.31
-2.15
-2.81
-3.23
-3.40
-3.39
-3.26
-3.07
-2.79
-2.41
-1.90
-1.32
-0.77
-0.38
-0.22
-0.29
-0.45
-0.52
-0.39
-0.04
0.46
0.95
1.33
1.57
1.72
1.84
1.94
1.99
1.91
1.61
1.08
0.35
-0.45
-1.21
-1.81
-2.23
-2.48
-2.64
-2.75
-2.84
-2.87
-2.76
-2.46
-1.99
-1.40
-0.79
-0.24
0.27
0.80
1.45
2.27
3.23
4.19
4.95
5.35
5.25
4.62
3.52
2.13
0.67
-0.62
-1.52
-1.97
-1.99
-1.73
-1.40
-1.15
-1.09
-1.23
-1.51
-1.86
-2.20
-2.46
-2.55
-2.46
-2.17
-1.81
-1.50
-1.36
-1.46
-1.72
-2.00
-2.13
-2.00
-1.60
-1.02
-0.43
0.07
0.39
0.56
0.62
0.61
0.56
0.46
0.37
0.36
0.55
1.00
1.69
2.50
3.24
3.74
3.97
3.98
3.89
3.80
3.66
3.33
2.64
1.52
0.07
-1.51
-2.97
-4.13
-4.90
-5.31
-5.44
-5.37
-5.16
-4.86
-4.56
-4.30
-4.07
-3.77
-3.22
-2.24
-0.69
1.38
3.76
6.09
7.99
9.12
9.34
8.67
7.32
5.62
3.87
2.32
1.09
0.18
-0.49
-0.98
-1.34
-1.55
-1.58
-1.43
-1.17
-0.89
-0.70
-0.67
-0.82
-1.08
-1.36
-1.60
-1.80
-2.01
-2.29
-2.63
-2.98
-3.22
-3.27
-3.13
-2.86
-2.59
-2.40
-2.30
-2.22
-2.09
-1.88
-1.62
-1.38
-1.18
-0.99
-0.67
-0.10
0.79
1.93
3.09
4.03
4.53
4.54
4.23
3.84
3.67
3.83
4.25
4.67
4.82
4.49
3.69
2.58
1.38
0.29
-0.59
-1.29
-1.83
-2.24
-2.51
-2.58
-2.43
-2.05
-1.50
-0.89
-0.33
0.10
0.33
0.41
0.42
0.41
0.41
0.39
0.26
-0.03
-0.44
-0.90
-1.26
-1.48
-1.57
-1.66
-1.85
-2.15
-2.50
-2.74
-2.75
-2.51
-2.11
-1.71
-1.47
-1.41
-1.46
-1.45
-1.23
-0.76
-0.12
0.53
1.05
1.37
1.57
1.77
2.09
2.50
2.89
3.10
3.04
2.77
2.46
2.30
2.38
2.64
2.91
3.04
2.95
2.69
2.39
2.12
1.89
1.58
1.06
0.26
-0.78
-1.89
-2.87
-3.52
-3.77
-3.65
-3.28
-2.79
-2.31
-1.89
-1.54
-1.29
-1.15
-1.13
-1.25
-1.48
-1.76
-2.05
-2.34
-2.61
-2.83
-2.92
-2.82
-2.48
-1.92
-1.24
-0.55
0.10
0.69
1.26
1.82
2.33
2.72
2.97
3.10
3.19
3.36
3.61
3.85
3.91
3.65
3.07
2.31
1.59
1.07
0.80
0.68
0.53
0.22
-0.31
-1.01
-1.77
-2.47
-3.05
-3.45
-3.64
-3.60
-3.32
-2.88
-2.38
-1.95
-1.62
-1.36
-1.06
-0.59
0.09
0.96
1.90
2.78
3.47
3.89
3.96
3.68
3.09
2.32
1.52
0.85
0.40
0.13
-0.05
-0.24
-0.50
-0.81
-1.10
-1.31
-1.37
-1.30
-1.09
-0.81
-0.49
-0.17
0.06
0.17
0.10
-0.17
-0.62
-1.18
-1.75
-2.22
-2.49
-2.51
-2.28
-1.86
-1.32
-0.71
-0.06
0.60
1.19
1.61
1.78
1.72
1.51
1.32
1.26
1.41
1.72
2.06
2.31
2.42
2.45
2.46
2.53
2.63
2.65
2.43
1.88
1.01
-0.02
-1.05
-1.92
-2.62
-3.20
-3.74
-4.26
-4.68
-4.87
-4.70
-4.15
-3.29
-2.27
-1.22
-0.28
0.49
1.09
1.59
2.07
2.60
3.16
3.67
3.97
3.93
3.52
2.82
1.96
1.10
0.32
-0.36
-0.95
-1.44
-1.77
-1.86
-1.69
-1.30
-0.79
-0.30
0.04
0.20
0.20
0.08
-0.09
-0.26
-0.41
-0.54
-0.68
-0.86
-1.09
-1.36
-1.65
-1.90
-2.02
-1.95
-1.64
-1.12
-0.47
0.17
0.68
0.95
1.00
0.92
0.84
0.89
1.13
1.51
1.92
2.22
2.37
2.34
2.20
2.02
1.84
1.65
1.42
1.07
0.51
-0.32
-1.42
-2.68
-3.92
-4.90
-5.44
-5.47
-5.05
-4.36
-3.59
-2.88
-2.27
-1.69
-1.09
-0.40
0.41
1.36
2.44
3.62
4.77
5.72
6.25
6.25
5.72
4.79
3.71
2.69
1.88
1.29
0.84
0.41
-0.06
-0.56
-0.99
-1.28
-1.41
-1.40
-1.35
-1.34
-1.38
-1.43
-1.46
-1.49
-1.57
-1.78
-2.16
-2.67
-3.17
-3.53
-3.68
-3.61
-3.37
-3.01
-2.54
-1.93
-1.19
-0.39
0.35
0.87
1.10
1.11
1.10
1.32
1.92
2.86
3.89
4.72
5.13
5.12
4.88
4.66
4.58
4.55
4.33
3.64
2.41
0.75
-1.03
-2.66
-4.00
-5.06
-5.95
-6.73
-7.37
-7.76
-7.80
-7.41
-6.61
-5.46
-4.03
-2.37
-0.52
1.48
3.56
5.56
7.29
8.51
9.01
8.71
7.73
6.33
4.88
3.67
2.79
2.14
1.51
0.76
-0.10
-0.94
-1.55
-1.85
-1.88
-1.81
-1.81
-1.94
-2.17
-2.39
-2.52
-2.55
-2.56
-2.65
-2.90
-3.32
-3.82
-4.25
-4.46
-4.34
-3.85
-3.03
-1.97
-0.76
0.49
1.68
2.69
3.39
3.69
3.59
3.20
2.75
2.46
2.43
2.60
2.77
2.72
2.38
1.80
1.20
0.82
0.80
1.10
1.55
1.88
1.87
1.38
0.48
-0.68
-1.85
-2.83
-3.49
-3.79
-3.80
-3.58
-3.20
-2.67
-2.01
-1.23
-0.38
0.51
1.38
2.21
2.94
3.55
3.96
4.09
3.87
3.29
2.47
1.56
0.77
0.22
-0.09
-0.26
-0.47
-0.84
-1.40
-2.06
-2.65
-3.02
-3.09
-2.89
-2.52
-2.09
-1.70
-1.39
-1.19
-1.13
-1.24
-1.59
-2.16
-2.89
-3.64
-4.19
-4.39
-4.13
-3.42
-2.36
-1.12
0.09
1.08
1.72
1.96
1.89
1.69
1.57
1.74
2.25
3.02
3.86
4.54
4.87
4.83
4.51
4.06
3.66
3.38
3.16
2.85
2.30
1.39
0.17
-1.20
-2.52
-3.59
-4.29
-4.63
-4.66
-4.48
-4.16
-3.72
-3.16
-2.52
-1.85
-1.20
-0.60
0.04
0.82
1.88
3.21
4.68
6.02
6.91
7.13
6.63
5.52
4.07
2.59
1.30
0.31
-0.40
-0.92
-1.36
-1.78
-2.17
-2.47
-2.64
-2.65
-2.52
-2.28
-1.99
-1.68
-1.41
-1.21
-1.16
-1.27
-1.57
-1.99
-2.48
-2.96
-3.37
-3.64
-3.74
-3.65
-3.41
-3.10
-2.86
-2.80
-2.96
-3.26
-3.53
-3.56
-3.16
-2.24
-0.83
0.91
2.72
4.32
5.48
6.14
6.40
6.43
6.45
6.58
6.81
7.07
7.22
7.16
6.80
6.08
4.98
3.50
1.74
-0.17
-2.02
-3.62
-4.82
-5.57
-5.90
-5.92
-5.78
-5.62
-5.47
-5.26
-4.80
-3.89
-2.38
-0.36
1.93
4.08
5.73
6.62
6.71
6.12
5.09
3.84
2.60
1.49
0.61
-0.05
-0.50
-0.80
-1.03
-1.25
-1.50
-1.79
-2.07
-2.26
-2.33
-2.26
-2.09
-1.87
-1.67
-1.53
-1.42
-1.33
-1.23
-1.10
-0.94
-0.79
-0.72
-0.76
-0.94
-1.19
-1.41
-1.49
-1.37
-1.08
-0.74
-0.49
-0.38
-0.39
-0.41
-0.34
-0.13
0.16
0.46
0.66
0.71
0.60
0.32
-0.07
-0.51
-0.92
-1.27
-1.55
-1.85
-2.25
-2.77
-3.36
-3.94
-4.45
-4.91
-5.43
-6.12
-7.04
-8.11
-9.18
-10.05
-10.65
-11.02
-11.29
-11.61
-12.09
-12.84
-13.93
-15.45
-17.41
-19.65
-21.76
-23.18
-23.40
-22.37
-20.58
-19.07
-19.07
-21.47
-26.46
-33.38
-41.04
-48.20
-54.12
-58.88
-63.30
-68.34
-74.69
-82.26
-90.28
-97.79
-104.28
-110.17
-116.45
-123.91
-132.38
-140.66
-147.27
-151.38
-153.39
-154.33
-154.67
-153.26
-147.31
-133.40
-109.16
-74.38
-30.90
18.62
71.92
127.54
184.24
239.82
290.74
332.83
362.94
380.43
387.52
388.52
387.93
388.58
390.58
391.53
387.65
375.57
353.57
322.06
283.12
239.32
192.49
143.07
90.47
34.29
-24.08
-80.84
-130.41
-167.40
-188.78
-195.25
-190.84
-181.00
-170.40
-161.36
-153.73
-146.09
-137.33
-127.54
-117.97
-110.08
-104.53
-100.75
-97.33
-92.81
-86.48
-78.61
-70.32
-62.89
-57.17
-53.24
-50.44
-47.74
-44.28
-39.76
-34.52
-29.32
-24.93
-21.79
-19.80
-18.46
-17.15
-15.42
-13.16
-10.56
-8.05
-5.97
-4.52
-3.65
-3.15
-2.71
-2.12
-1.28
-0.29
0.65
1.34
1.67
1.68
1.51
1.31
1.17
1.10
1.06
1.00
0.90
0.75
0.55
0.28
-0.07
-0.48
-0.86
-1.09
-1.09
-0.83
-0.37
0.16
0.64
0.95
1.06
0.95
0.69
0.36
0.06
-0.15
-0.26
-0.31
-0.37
-0.46
-0.60
-0.71
-0.71
-0.55
-0.22
0.19
0.59
0.86
0.94
0.83
0.59
0.32
0.11
-0.00
-0.01
0.07
0.21
0.40
0.63
0.86
1.02
1.03
0.84
0.46
-0.01
-0.49
-0.90
-1.24
-1.49
-1.63
-1.61
-1.32
-0.75
0.01
0.74
1.22
1.28
0.93
0.34
-0.26
-0.69
-0.89
-0.92
-0.85
-0.73
-0.54
-0.26
0.11
0.49
0.80
0.98
1.01
0.97
0.91
0.91
0.98
1.12
1.31
1.49
1.63
1.66
1.55
1.28
0.89
0.45
0.02
-0.36
-0.70
-1.01
-1.32
-1.61
-1.83
-1.90
-1.77
-1.47
-1.06
-0.64
-0.33
-0.18
-0.22
-0.40
-0.64
-0.83
-0.88
-0.73
-0.38
0.07
0.46
0.66
0.60
0.33
0.00
-0.26
-0.39
-0.39
-0.34
-0.30
-0.27
-0.21
-0.05
0.24
0.60
0.95
1.20
1.25
1.09
0.76
0.34
-0.07
-0.39
-0.56
-0.59
-0.56
-0.53
-0.52
-0.51
-0.44
-0.27
-0.02
0.22
0.37
0.37
0.26
0.14
0.15
0.36
0.74
1.16
1.49
1.64
1.61
1.48
1.33
1.20
1.10
0.97
0.74
0.39
-0.02
-0.38
-0.61
-0.67
-0.60
-0.52
-0.56
-0.76
-1.06
-1.37
-1.59
-1.70
-1.76
-1.87
-2.06
-2.31
-2.54
-2.62
-2.53
-2.30
-2.04
-1.84
-1.75
-1.77
-1.83
-1.88
-1.89
-1.88
-1.87
-1.87
-1.83
-1.63
-1.16
-0.35
0.77
2.04
3.26
4.24
4.85
5.07
4.94
4.54
3.94
3.17
2.29
1.35
0.44
-0.34
-0.92
-1.30
-1.58
-1.90
-2.42
-3.16
-4.09
-5.03
-5.81
-6.28
-6.37
-6.12
-5.59
-4.87
-4.00
-2.95
-1.72
-0.36
1.03
2.31
3.37
4.21
4.94
5.67
6.43
7.13
7.54
7.45
6.82
5.80
4.76
4.05
3.85
4.09
4.48
4.66
4.33
3.43
2.08
0.55
-0.87
-1.97
-2.69
-3.09
-3.27
-3.33
-3.27
-3.10
-2.78
-2.35
-1.90
-1.50
-1.20
-0.99
-0.80
-0.59
-0.36
-0.13
0.03
0.17
0.36
0.74
1.41
2.37
3.55
4.80
5.99
7.02
7.79
8.17
8.01
7.13
5.46
3.12
0.38
-2.35
-4.72
-6.48
-7.59
-8.15
-8.30
-8.12
-7.66
-6.91
-5.93
-4.83
-3.73
-2.78
-1.97
-1.24
-0.47
0.42
1.43
2.42
3.20
3.60
3.57
3.18
2.59
1.98
1.46
1.02
0.61
0.16
-0.34
-0.85
-1.30
-1.67
-1.98
-2.23
-2.41
-2.39
-2.07
-1.39
-0.46
0.52
1.31
1.73
1.76
1.50
1.10
