1660324056.00
64.000000
-0.00
-0.00
-0.00
-0.00
-0.00
-0.00
-0.00
-0.00
-0.00
-0.00
0.00
0.01
0.01
-0.00
-0.03
-0.05
-0.05
0.00
0.13
0.36
0.66
1.01
1.37
1.72
2.06
2.40
2.79
3.24
3.80
4.42
5.06
5.67
6.20
6.69
7.15
7.68
8.31
9.13
10.08
11.05
11.91
12.62
13.20
13.78
14.58
15.72
17.47
19.66
22.06
24.41
26.54
28.50
30.55
33.09
36.43
40.97
46.39
52.22
57.90
63.06
67.70
72.20
77.19
83.17
90.75
99.52
108.81
117.79
125.85
132.84
139.17
145.99
151.97
159.51
169.50
182.35
197.02
210.50
218.12
214.77
196.70
162.95
116.19
60.83
1.79
-57.35
-115.18
-172.00
-228.72
-285.68
-342.19
-396.34
-446.41
-490.80
-528.40
-558.38
-579.89
-591.98
-593.78
-584.96
-565.81
-537.38
-500.55
-455.43
-401.20
-336.79
-262.20
-179.49
-93.09
-8.75
67.87
132.85
184.61
223.65
251.55
270.05
280.60
284.39
282.67
276.85
268.38
258.54
248.15
237.50
226.39
214.48
201.54
187.76
173.75
160.38
148.42
138.15
129.16
120.53
111.24
100.67
88.93
76.81
65.44
55.75
48.06
41.96
36.57
31.00
24.81
18.23
11.81
6.17
1.71
-1.54
-3.93
-5.89
-7.78
-9.74
-11.68
-13.42
-14.76
-15.55
-15.71
-15.22
-14.15
-12.66
-11.00
-9.52
-8.52
-8.13
-8.27
-8.59
-8.68
-8.21
-7.07
-5.44
-3.68
-2.11
-0.90
-0.02
0.66
1.22
1.60
1.63
1.21
0.42
-0.43
-0.91
-0.77
0.01
1.09
2.03
2.50
2.41
1.94
1.36
0.89
0.59
0.44
0.36
0.34
0.42
0.63
1.00
1.49
2.07
2.74
3.51
4.43
5.42
6.20
6.16
4.49
0.40
-6.38
-15.30
-24.90
-33.21
-38.44
-39.67
-37.11
-31.83
-25.15
-18.09
-11.15
-4.52
1.57
6.69
10.35
12.31
12.79
12.46
12.08
12.17
12.81
13.67
14.27
14.28
13.65
12.53
11.20
9.85
8.55
7.23
5.71
3.88
1.75
-0.55
-2.82
-4.87
-6.55
-7.79
-8.56
-8.89
-8.82
-8.47
-8.01
-7.62
-7.43
-7.46
-7.59
-7.59
-7.25
-6.42
-5.08
-3.38
-1.58
0.06
1.30
2.03
2.25
2.07
1.66
1.21
0.87
0.77
0.94
1.34
1.78
2.05
1.96
1.42
0.56
-0.36
-1.06
-1.33
-1.18
-0.82
-0.52
-0.53
-0.96
-1.77
-2.82
-3.93
-4.93
-5.70
-6.14
-6.21
-5.91
-5.33
-4.60
-3.89
-3.31
-2.86
-2.41
-1.71
-0.56
1.12
3.21
5.44
7.52
9.21
10.40
11.09
11.28
10.98
10.24
9.19
8.03
6.99
6.20
5.59
4.98
4.19
3.17
2.08
1.14
0.51
0.18
-0.02
-0.29
-0.76
-1.36
-1.99
-2.53
-3.01
-3.52
-4.18
-5.05
-6.09
-7.21
-8.31
-9.33
-10.21
-10.79
-10.88
-10.21
-8.66
-6.25
-3.27
-0.09
2.86
5.33
7.20
8.46
9.14
9.28
8.88
8.02
6.82
5.52
4.36
3.54
3.13
3.07
3.21
3.37
3.40
3.18
2.69
1.94
0.98
-0.13
-1.30
-2.39
-3.30
-3.94
-4.34
-4.63
-4.99
-5.64
-6.70
-8.17
-9.88
-11.49
-12.58
-12.79
-11.91
-9.98
-7.28
-4.27
-1.38
1.11
3.10
4.68
5.98
7.08
7.95
8.51
8.69
8.50
8.02
7.41
6.84
6.45
6.31
6.42
6.70
7.00
7.12
6.86
6.13
4.96
3.50
1.98
0.59
-0.63
-1.78
-3.06
-4.62
-6.48
-8.48
-10.35
-11.83
-12.75
-13.04
-12.67
-11.62
-9.88
-7.51
-4.72
-1.88
0.54
2.18
2.86
2.63
1.71
0.37
-1.19
-2.82
-4.50
-6.22
-7.96
-9.71
-11.43
-13.06
-14.54
-15.81
-16.79
-17.39
-17.43
-16.73
-15.07
-12.40
-8.93
-5.11
-1.54
1.26
3.03
3.81
3.83
3.35
2.52
1.40
0.13
-0.97
-1.45
-0.83
1.11
4.23
8.01
11.76
14.86
16.94
17.91
17.86
16.97
15.43
13.40
11.10
8.81
6.90
5.67
5.29
5.70
6.73
8.13
9.77
11.55
13.44
15.32
17.05
18.49
19.60
20.41
21.09
21.73
22.39
23.00
23.37
23.32
22.62
21.07
18.50
14.83
10.16
4.86
-0.54
-5.57
-9.99
-13.93
-17.83
-22.24
-27.55
-33.88
-40.99
-48.49
-55.91
-62.85
-68.96
-73.92
-77.41
-79.19
-79.20
-77.65
-74.92
-71.48
-67.69
-63.69
-59.41
-54.61
-49.10
-42.77
-35.68
-28.03
-20.08
-12.11
-4.34
3.02
9.74
15.54
20.14
23.37
25.30
26.28
26.88
27.69
29.07
31.07
33.38
35.56
37.22
38.25
38.83
39.29
39.96
40.95
42.06
42.94
43.24
42.78
41.69
40.32
39.06
38.19
37.74
37.53
37.30
36.84
36.04
34.89
33.36
31.40
28.95
26.01
22.73
19.42
16.45
14.04
12.17
10.58
8.85
6.69
4.10
1.36
-1.05
-2.74
-3.61
-3.90
-4.03
-4.44
-5.37
-6.82
-8.69
-10.84
-13.15
-15.45
-17.45
-18.75
-19.00
-18.05
-16.11
-13.70
-11.38
-9.54
-8.19
-7.04
-5.67
-3.81
-1.48
0.91
2.76
3.48
2.69
0.37
-3.19
-7.49
-12.08
-16.69
-21.21
-25.57
-29.64
-33.15
-35.78
-37.39
-38.04
-37.95
-37.30
-36.01
-33.67
-29.78
-23.99
-16.41
-7.67
1.32
9.65
16.74
22.38
26.70
29.91
32.14
33.44
33.79
33.32
32.37
31.36
30.64
30.26
29.91
29.06
27.32
24.71
21.79
19.44
18.48
19.29
21.73
25.28
29.41
33.79
38.43
43.43
48.76
54.05
58.64
61.85
63.18
62.51
60.13
56.60
52.53
48.44
44.60
41.04
37.62
34.12
30.41
26.45
22.30
18.16
14.24
10.76
7.85
5.41
3.10
0.38
-3.22
-7.88
-13.25
-18.61
-23.10
-26.23
-28.12
-29.53
-31.52
-34.96
-40.01
-46.09
-52.05
-56.64
-59.01
-59.04
-57.33
-54.94
-52.90
-51.85
-51.80
-52.16
-52.09
-50.76
-47.72
-42.97
-36.90
-30.11
-23.22
-16.72
-10.96
-6.14
-2.42
0.10
1.36
1.49
0.76
-0.44
-1.77
-3.11
-4.65
-6.79
-9.91
-14.03
-18.69
-23.11
-26.43
-28.16
-28.33
-27.48
-26.33
-25.55
-25.46
-26.04
-27.08
-28.30
-29.48
-30.50
-31.25
-31.61
-31.37
-30.31
-28.22
-25.04
-20.88
-16.04
-11.03
-6.38
-2.55
0.23
2.00
3.00
3.53
3.82
3.88
3.62
2.97
2.04
1.10
0.54
0.55
1.07
1.75
2.13
1.89
1.02
-0.26
-1.65
-2.98
-4.28
-5.70
-7.37
-9.28
-11.26
-13.08
-14.51
-15.47
-15.94
-15.99
-15.66
-14.93
-13.69
-11.82
-9.23
-5.94
-2.11
2.00
6.05
9.71
12.74
14.95
16.33
17.03
17.35
17.73
18.62
20.29
22.74
25.65
28.47
30.62
31.66
31.44
30.13
28.12
25.92
23.97
22.53
21.53
20.64
19.32
17.12
13.78
9.43
4.49
-0.43
-4.79
-8.18
-10.37
-11.24
-10.64
-8.29
-3.83
2.91
11.74
21.98
32.51
42.15
49.88
55.23
58.27
59.56
59.80
59.54
59.09
58.58
58.09
57.72
57.62
58.00
58.89
60.06
60.89
60.59
58.62
55.03
50.41
45.79
42.35
40.93
41.62
43.52
45.26
45.75
44.89
43.35
42.27
43.17
47.75
57.52
73.28
94.47
118.65
141.04
154.54
152.21
130.72
93.03
47.99
6.85
-21.30
-32.77
-30.36
-22.31
-18.21
-24.99
-44.62
-75.05
-112.77
-154.86
-199.38
-238.74
-263.33
-266.65
-249.76
-219.72
-184.20
-148.58
-115.94
-87.61
-64.24
-46.50
-34.85
-28.88
-26.80
-25.83
-23.44
-19.39
-11.82
-0.03
14.98
30.79
44.97
56.16
64.14
68.96
70.85
70.59
68.94
66.86
64.58
62.31
60.06
58.69
57.09
53.18
45.31
32.49
15.60
-4.48
-26.15
-47.69
-67.83
-86.15
-102.48
-116.13
-126.69
-132.47
-133.19
-128.83
-119.93
-107.76
-94.40
-82.10
-72.58
-68.21
-62.27
-52.21
-39.37
-27.40
-18.86
-14.15
-12.61
-13.81
-22.40
-37.56
-57.72
-78.89
-95.51
-102.23
-96.01
-77.26
-40.22
8.27
56.26
91.97
110.94
116.00
113.08
107.27
101.31
96.04
90.04
83.43
76.12
67.79
57.37
43.47
25.72
5.40
-14.70
-32.62
-46.19
-54.90
-59.53
-61.79
-63.66
-66.44
-70.53
-75.56
-81.58
-87.92
-93.83
-98.64
-102.16
-104.85
-107.46
-110.81
-115.24
-120.49
-124.76
-125.12
-118.36
-101.97
-76.58
-44.67
-10.26
22.46
50.35
72.22
88.56
100.39
108.20
111.60
110.08
103.64
93.47
81.75
70.90
62.67
57.59
55.05
53.77
52.71
51.23
49.25
46.89
44.22
41.09
37.23
32.56
27.34
22.36
18.58
16.73
17.03
19.06
21.95
24.64
26.32
26.49
25.16
22.69
19.73
17.12
15.71
16.00
17.88
20.51
22.56
22.88
21.19
18.43
16.60
17.94
23.92
34.48
47.86
61.27
71.83
77.65
78.29
74.65
68.33
60.90
53.35
46.01
38.79
31.61
24.61
18.27
13.12
9.46
7.07
5.19
2.75
-1.29
-7.59
-16.27
-26.89
-38.53
-49.87
-59.32
-65.20
-66.10
-61.41
-51.83
-39.60
-28.08
-20.87
-20.50
-27.40
-39.59
-53.35
-64.55
-70.03
-68.47
-60.45
-47.86
-33.08
-18.39
-5.69
3.49
8.13
7.90
3.47
-3.46
-10.55
-15.64
-17.46
-16.09
-12.78
-9.25
-6.87
-6.02
-5.88
-4.79
-0.84
7.37
20.08
36.11
53.03
67.80
77.74
81.45
79.29
73.22
66.00
60.13
57.04
56.80
58.42
60.44
61.50
60.61
57.27
51.34
43.19
33.65
24.02
15.84
10.36
8.12
8.71
10.87
13.03
13.88
12.86
10.20
6.79
3.76
2.22
3.03
6.56
12.45
19.41
25.31
27.78
25.12
17.32
6.30
-4.63
-12.01
-13.74
-9.79
-2.18
6.07
12.00
13.66
10.36
2.60
-8.32
-20.56
-32.02
-40.76
-45.34
-45.35
-41.46
-35.21
-28.45
-22.75
-18.94
-17.02
-16.39
-16.10
-15.08
-12.28
-6.99
0.93
10.69
20.61
28.49
32.43
31.67
27.06
20.88
15.99
14.58
17.32
23.03
29.24
33.24
33.19
28.81
21.43
13.31
6.69
2.94
2.12
3.12
4.34
4.38
2.57
-0.98
-5.54
-10.27
-14.39
-17.37
-18.77
-18.29
-15.87
-11.94
-7.49
-3.78
-1.81
-1.87
-3.35
-5.06
-5.86
-5.13
-2.87
0.53
4.55
8.70
12.35
14.64
14.54
11.29
4.91
-3.57
-12.33
-19.45
-23.54
-24.22
-22.03
-18.10
-13.77
-10.22
-8.37
-8.74
-11.35
-15.41
-19.21
-20.42
-17.00
-8.38
3.85
16.09
24.08
24.93
18.59
8.17
-1.38
-5.45
-1.79
8.65
22.44
35.21
43.46
45.55
41.81
34.03
24.60
15.61
8.26
2.53
-2.54
-8.21
-15.22
-23.27
-30.99
-36.59
-38.63
-36.63
-31.10
-23.28
-14.76
-7.24
-2.30
-1.19
-4.30
-10.88
-19.07
-26.56
-31.45
-32.90
-31.15
-27.01
-21.21
-14.21
-6.47
1.21
7.51
10.99
10.83
7.26
1.58
-4.44
-9.28
-12.12
-12.91
-12.12
-10.49
-8.69
-7.31
-6.77
-7.17
-8.15
-8.89
-8.25
-5.29
0.23
7.53
14.87
20.25
22.19
20.51
16.50
12.35
10.17
11.05
14.58
19.20
22.98
24.61
23.98
22.13
20.62
20.70
22.61
25.41
27.42
26.99
23.34
16.82
8.79
1.00
-4.97
-7.97
-7.31
-2.64
5.85
16.97
28.38
36.73
38.74
32.65
19.45
2.85
-12.06
-20.86
-21.59
-15.25
-5.19
4.65
11.34
14.12
14.13
13.26
13.10
14.34
16.87
19.88
21.83
20.44
13.08
-2.53
-27.08
-58.09
-89.47
-112.56
-120.01
-109.50
-85.37
-56.27
-31.50
-17.24
-14.38
-19.14
-25.17
-27.74
-25.82
-21.58
-16.18
-8.89
2.09
18.38
40.15
67.06
97.16
126.83
151.06
167.08
172.73
165.40
143.37
108.59
69.88
39.54
27.85
37.71
65.87
102.01
131.32
140.64
114.12
51.29
-30.07
-97.72
-142.77
-168.27
-180.20
-182.42
-175.65
-157.94
-126.22
-82.43
-38.11
-10.45
-8.39
-28.07
-55.73
-75.45
-77.11
-59.58
-31.19
-3.60
12.93
16.71
12.18
5.31
-0.26
-3.95
-6.60
-9.14
-11.50
-13.72
-12.93
-6.60
4.97
18.65
30.30
37.35
39.44
38.01
34.73
31.55
29.13
26.61
22.51
15.99
7.55
-1.36
-9.10
-14.77
-17.93
-18.97
-18.83
-18.49
-18.53
-19.11
-20.07
-21.25
-22.60
-24.01
-25.32
-26.24
-26.44
-25.76
-24.35
-22.71
-21.45
-21.08
-21.64
-22.79
-23.97
-24.70
-24.74
-24.24
-23.56
-23.02
-22.81
-22.87
-23.05
-23.19
-23.24
-23.29
-23.60
-24.39
-25.59
-26.64
-26.55
-24.25
-18.94
-10.50
0.30
11.92
22.48
30.33
34.53
35.02
32.34
27.38
21.23
15.30
10.94
9.05
9.82
12.57
16.07
18.44
17.91
13.40
4.98
-6.20
-18.30
-29.28
-37.63
-42.63
-44.77
-45.31
-45.59
-46.29
-46.87
-45.55
-40.13
-30.03
-15.30
1.57
16.93
27.55
31.98
30.99
26.80
21.88
17.39
14.05
11.19
8.19
4.95
2.17
0.66
0.70
1.81
3.06
3.65
3.05
1.45
-0.41
-1.69
-1.84
-0.83
0.88
2.69
4.29
5.26
5.70
5.95
6.41
7.29
8.60
10.19
11.98
14.08
16.56
19.46
22.61
25.64
28.13
29.80
30.57
30.78
31.04
31.78
32.94
33.93
33.88
32.04
28.23
22.68
16.54
11.49
8.77
8.33
8.67
7.76
4.13
-2.31
-10.72
-18.92
-24.34
-25.75
-24.07
-21.93
-21.88
-25.20
-31.55
-40.36
-49.33
-54.01
-49.20
-30.83
1.82
45.13
90.61
126.23
138.10
118.45
70.09
5.95
-55.43
-97.23
-108.82
-88.42
-36.81
30.65
90.56
126.03
136.09
131.48
122.59
115.44
111.67
111.36
108.91
100.87
87.29
70.61
54.11
36.76
16.28
-9.22
-38.97
-74.55
-116.46
-163.40
-212.23
-258.73
-303.43
-346.64
-385.11
-395.32
-359.68
-277.03
-166.74
-67.79
7.05
51.05
61.66
41.20
-2.18
-57.46
-111.43
-151.02
-164.24
-142.35
-87.27
-7.78
84.86
179.85
266.08
333.13
364.55
349.26
291.10
206.36
117.30
42.18
-10.13
-40.74
-58.10
-71.90
-87.00
-101.89
-113.36
-118.00
-112.73
-97.98
-73.61
-43.10
-11.60
17.52
43.40
65.68
83.92
98.53
106.27
108.79
107.30
101.92
92.55
79.42
65.32
49.74
33.48
18.38
7.02
-0.44
-5.36
-9.14
-12.02
-12.89
-10.46
-3.42
7.36
19.79
29.78
33.52
29.59
19.38
5.78
-8.70
-22.09
-33.02
-40.02
-42.37
-39.81
-32.83
-23.27
-14.43
-10.29
-13.16
-22.13
-32.97
-40.37
-39.78
-29.04
-9.25
15.74
39.69
54.84
57.23
49.66
38.28
27.57
18.65
10.42
1.46
-8.56
-18.56
-26.44
-30.54
-30.92
-29.04
-26.66
-25.19
-25.30
-26.94
-29.28
-30.77
-30.08
-26.96
-22.17
-16.96
-12.54
-9.97
-10.09
-13.34
-19.30
-26.67
-33.55
-37.80
-37.60
-32.23
-22.54
-10.67
0.90
10.37
17.08
21.28
23.63
24.78
25.16
25.10
24.99
25.38
26.71
28.98
31.48
33.12
32.99
30.94
27.63
24.21
21.67
20.38
20.01
19.76
18.89
16.98
14.15
10.85
7.68
5.16
3.43
2.23
0.86
-1.59
-5.91
-12.31
-20.26
-28.50
-35.31
-38.87
-37.72
-31.06
-19.10
-3.22
14.02
29.42
40.02
43.91
40.85
32.24
20.46
8.11
-2.62
-10.22
-13.85
-13.23
-8.70
-1.23
7.66
16.25
23.14
27.65
29.95
30.87
31.40
32.13
32.95
33.15
31.85
28.47
23.10
16.41
9.32
2.56
-3.67
-9.62
-15.82
-22.69
-30.21
-37.93
-45.11
-50.94
-54.82
-56.43
-55.69
-52.66
-47.43
-40.01
-30.57
-19.59
-7.97
3.04
12.32
19.18
23.72
26.64
28.87
31.00
33.03
34.40
34.40
32.61
29.28
25.30
21.88
20.08
20.35
22.41
25.35
28.15
30.10
31.14
31.78
32.66
34.13
35.85
36.90
36.17
32.95
27.32
20.35
13.72
9.24
8.24
11.25
17.75
26.31
34.70
40.25
40.36
33.35
19.27
0.39
-19.27
-35.22
-44.32
-46.09
