1660934114.00
64.000000
-0.00
-0.00
-0.00
-0.00
-0.00
-0.00
-0.00
-0.00
-0.00
-0.00
0.00
0.01
0.01
-0.00
-0.03
-0.05
-0.05
0.00
0.13
0.36
0.66
1.01
1.37
1.72
2.06
2.40
2.79
3.25
3.81
4.44
5.09
5.73
6.32
6.90
7.53
8.27
9.15
10.26
11.47
12.67
13.76
14.71
15.59
16.61
17.97
19.80
22.29
25.22
28.30
31.26
33.98
36.58
39.43
42.95
47.42
53.14
59.71
66.59
73.26
79.47
85.43
91.73
99.07
107.85
118.42
130.11
142.07
153.51
164.14
174.31
184.86
197.13
209.57
224.05
240.79
259.73
279.85
298.70
312.50
317.02
308.90
286.85
252.58
209.33
161.12
111.40
62.32
14.85
-30.61
-73.74
-114.21
-151.65
-186.74
-220.83
-255.56
-291.95
-329.42
-365.31
-395.31
-414.89
-420.81
-412.65
-392.92
-366.11
-336.90
-308.60
-282.51
-258.37
-235.38
-213.09
-191.82
-172.31
-155.00
-139.75
-125.79
-112.24
-98.52
-84.63
-71.11
-58.76
-48.19
-39.51
-32.29
-25.81
-19.36
-12.66
-5.88
0.42
5.69
9.63
12.35
14.31
16.02
17.89
20.02
22.25
24.27
25.82
26.76
27.10
26.96
26.49
25.85
25.18
24.57
24.07
23.71
23.42
23.12
22.70
22.11
21.36
20.54
19.75
19.05
18.44
17.86
17.27
16.64
15.97
15.31
14.71
14.20
13.80
13.51
13.34
13.26
13.22
13.17
13.05
12.83
12.54
12.21
11.88
11.57
11.28
11.00
10.71
10.42
10.15
9.88
9.61
9.28
8.88
8.41
7.92
7.49
7.19
7.05
7.02
7.01
6.94
6.75
6.46
6.17
5.91
5.71
5.50
5.21
4.82
4.37
3.98
3.72
3.59
3.52
3.39
3.08
2.59
1.96
1.24
0.51
-0.22
-0.96
-1.72
-2.45
-3.11
-3.62
-3.98
-4.21
-4.40
-4.66
-5.05
-5.58
-6.18
-6.78
-7.29
-7.68
-7.97
-8.16
-8.24
-8.20
-8.01
-7.68
-7.29
-6.92
-6.62
-6.37
-6.11
-5.74
-5.24
-4.63
-4.02
-3.53
-3.20
-2.99
-2.77
-2.40
-1.82
-1.08
-0.28
0.42
0.92
1.18
1.25
1.20
1.09
0.98
0.88
0.84
0.88
1.03
1.23
1.44
1.59
1.67
1.70
1.74
1.84
2.01
2.22
2.42
2.59
2.73
2.88
3.03
3.17
3.25
3.27
3.23
3.18
3.16
3.18
3.20
3.18
3.09
2.93
2.75
2.58
2.45
2.35
2.29
2.29
2.37
2.56
2.83
3.13
3.39
3.53
3.51
3.33
3.09
2.91
2.93
3.19
3.63
4.12
4.47
4.57
4.39
4.02
3.54
3.05
2.58
2.17
1.86
1.72
1.76
1.94
2.13
2.21
2.09
1.78
1.36
0.95
0.62
0.44
0.43
0.62
1.01
1.58
2.26
2.88
3.27
3.33
3.04
2.53
2.00
1.63
1.54
1.69
1.98
2.28
2.52
2.69
2.83
2.98
3.16
3.34
3.50
3.58
3.59
3.52
3.38
3.17
2.89
2.51
2.03
1.46
0.85
0.25
-0.24
-0.55
-0.62
-0.49
-0.23
0.04
0.20
0.22
0.13
0.03
-0.01
0.05
0.15
0.24
0.29
0.34
0.46
0.68
0.96
1.20
1.28
1.15
0.85
0.51
0.27
0.25
0.47
0.85
1.24
1.47
1.44
1.13
0.65
0.15
-0.24
-0.46
-0.57
-0.62
-0.67
-0.66
-0.53
-0.20
0.34
1.01
1.66
2.16
2.38
2.26
1.82
1.15
0.41
-0.23
-0.61
-0.63
-0.30
0.29
1.02
1.70
2.19
2.38
2.22
1.79
1.20
0.60
0.11
-0.18
-0.26
-0.15
0.10
0.42
0.72
0.91
0.93
0.78
0.54
0.36
0.34
0.46
0.63
0.68
0.49
0.10
-0.39
-0.77
-0.90
-0.75
-0.37
0.09
0.50
0.77
0.90
0.91
0.84
0.73
0.63
0.56
0.53
0.54
0.55
0.53
0.46
0.37
0.29
0.26
0.28
0.29
0.27
0.19
0.11
0.07
0.12
0.27
0.43
0.53
0.50
0.36
0.17
0.02
-0.05
-0.03
0.04
0.13
0.26
0.43
0.66
0.93
1.16
1.29
1.27
1.08
0.79
0.49
0.27
0.22
0.32
0.52
0.71
0.77
0.66
0.39
0.05
-0.26
-0.46
-0.53
-0.50
-0.39
-0.24
-0.04
0.17
0.32
0.35
0.22
-0.05
-0.36
-0.57
-0.59
-0.39
-0.06
0.26
0.44
0.42
0.26
0.05
-0.09
-0.14
-0.13
-0.12
-0.13
-0.15
-0.11
0.03
0.26
0.53
0.72
0.78
0.68
0.48
0.24
0.04
-0.08
-0.12
-0.09
0.01
0.15
0.30
0.44
0.52
0.50
0.38
0.21
0.04
-0.09
-0.15
-0.18
-0.25
-0.38
-0.54
-0.67
-0.68
-0.53
-0.21
0.19
0.58
0.86
0.98
0.96
0.85
0.75
0.72
0.80
0.99
1.24
1.50
1.69
1.74
1.62
1.30
0.82
0.28
-0.22
-0.58
-0.75
-0.73
-0.57
-0.36
-0.16
-0.01
0.02
-0.08
-0.28
-0.50
-0.66
-0.70
-0.59
-0.38
-0.14
0.03
0.12
0.11
0.03
-0.12
-0.33
-0.58
-0.81
-0.97
-0.97
-0.80
-0.50
-0.16
0.16
0.42
0.65
0.88
1.13
1.35
1.48
1.44
1.23
0.88
0.49
0.15
-0.10
-0.23
-0.26
-0.20
-0.05
0.21
0.54
0.87
1.11
1.16
0.97
0.57
0.07
-0.38
-0.67
-0.75
-0.64
-0.43
-0.19
-0.00
0.13
0.21
0.30
0.41
0.52
0.55
0.40
0.03
-0.50
-1.04
-1.38
-1.38
-1.04
-0.54
-0.09
0.13
0.14
0.06
0.08
0.28
0.58
0.83
0.86
0.66
0.33
0.05
-0.07
-0.03
0.07
0.07
-0.07
-0.29
-0.46
-0.47
-0.28
0.02
0.30
0.44
0.41
0.25
0.04
-0.14
-0.24
-0.27
-0.27
-0.29
-0.32
-0.33
-0.27
-0.11
0.13
0.39
0.63
0.79
0.85
0.82
0.73
0.61
0.47
0.34
0.24
0.21
0.24
0.29
0.29
0.20
0.00
-0.24
-0.43
-0.50
-0.46
-0.31
-0.12
0.09
0.30
0.48
0.58
0.52
0.27
-0.11
-0.46
-0.63
-0.53
-0.22
0.16
0.44
0.56
0.54
0.50
0.53
0.59
0.60
0.45
0.11
-0.32
-0.66
-0.78
-0.60
-0.20
0.25
0.56
0.57
0.24
-0.35
-0.96
-1.36
-1.39
-1.02
-0.38
0.31
0.83
1.07
0.99
0.66
0.19
-0.32
-0.74
-1.00
-1.05
-0.87
-0.52
-0.09
0.31
0.60
0.76
0.77
0.69
0.58
0.48
0.41
0.36
0.28
0.13
-0.10
-0.34
-0.49
-0.46
-0.24
0.09
0.39
0.51
0.41
0.13
-0.22
-0.52
-0.69
-0.69
-0.55
-0.29
0.04
0.41
0.72
0.90
0.87
0.61
0.18
-0.27
-0.58
-0.63
-0.39
0.02
0.41
0.59
0.46
0.07
-0.39
-0.74
-0.84
-0.71
-0.48
-0.26
-0.14
-0.11
-0.10
-0.04
0.06
0.18
0.27
0.33
0.38
0.46
0.56
0.65
0.69
0.61
0.41
0.13
-0.16
-0.35
-0.36
-0.15
0.25
0.70
1.05
1.19
1.09
0.87
0.66
0.53
0.49
0.44
0.33
0.15
-0.03
-0.11
-0.09
-0.05
-0.11
-0.36
-0.78
-1.22
-1.52
-1.56
-1.36
-1.03
-0.70
-0.44
-0.27
-0.16
-0.11
-0.12
-0.20
-0.33
-0.46
-0.51
-0.47
-0.37
-0.29
-0.33
-0.54
-0.95
-1.53
-2.22
-2.90
-3.42
-3.61
-3.35
-2.67
-1.82
-1.12
-0.93
-1.46
-2.64
-4.18
-5.65
-6.68
-7.10
-7.00
-6.73
-6.68
-7.16
-8.25
-9.79
-11.47
-13.01
-14.28
-15.34
-16.43
-17.82
-19.79
-22.52
-26.07
-30.37
-35.24
-40.44
-45.76
-51.14
-56.57
-62.21
-68.18
-74.47
-80.99
-87.55
-93.95
-100.01
-105.74
-111.42
-117.75
-125.83
-136.91
-151.89
-170.63
-191.44
-211.04
-225.23
-230.00
-222.70
-202.71
-171.34
-131.07
-84.76
-35.20
14.73
61.84
102.69
134.24
154.89
165.21
167.81
166.36
164.03
162.38
161.25
159.49
156.06
150.80
144.46
138.07
132.30
127.13
122.00
116.33
109.85
102.78
95.67
89.09
83.34
78.42
74.03
69.78
65.34
60.62
55.92
51.88
49.34
49.05
51.33
55.93
62.06
68.75
75.28
81.44
87.60
94.34
102.10
110.84
120.04
128.87
136.74
143.53
149.83
156.72
165.37
176.55
190.34
205.98
222.01
236.48
247.21
252.09
249.36
238.00
218.01
190.43
157.04
119.80
80.12
38.45
-5.57
-52.27
-100.90
-148.90
-192.11
-226.00
-247.33
-255.43
-252.45
-242.30
-229.03
-215.44
-202.49
-189.93
-177.23
-164.43
-152.24
-141.55
-132.74
-125.39
-118.52
-111.12
-102.78
-93.76
-84.87
-76.97
-70.55
-65.48
-61.14
-56.77
-51.77
-46.01
-39.87
-33.97
-28.96
-25.17
-22.54
-20.64
-18.91
-16.89
-14.42
-11.65
-8.96
-6.77
-5.29
-4.51
-4.15
-3.89
-3.43
-2.69
-1.80
-0.94
-0.32
0.03
0.19
0.28
0.41
0.58
0.74
0.85
0.90
0.94
1.05
1.22
1.40
1.52
1.54
1.43
1.19
0.79
0.22
-0.53
-1.35
-2.09
-2.53
-2.55
-2.18
-1.55
-0.88
-0.36
-0.08
0.01
-0.00
-0.03
-0.02
-0.00
-0.03
-0.14
-0.35
-0.61
-0.83
-0.94
-0.88
-0.71
-0.54
-0.46
-0.52
-0.68
-0.85
-0.92
-0.84
-0.58
-0.17
0.39
1.08
1.83
2.46
2.74
2.51
1.77
0.75
-0.17
-0.61
-0.42
0.28
1.13
1.78
2.00
1.81
1.42
1.09
0.97
1.06
1.23
1.32
1.20
0.86
0.41
-0.01
-0.28
-0.39
-0.42
-0.50
-0.71
-1.07
-1.46
-1.77
-1.87
-1.76
-1.50
-1.20
-0.95
-0.78
-0.60
-0.27
0.29
1.09
2.00
2.79
3.24
3.23
2.77
2.06
1.31
0.74
0.43
0.31
0.24
0.09
-0.21
-0.62
-1.04
-1.36
-1.52
-1.53
-1.48
-1.46
-1.48
-1.46
-1.28
-0.86
-0.25
0.35
0.67
0.54
-0.02
-0.83
-1.59
-2.08
-2.16
-1.85
-1.22
-0.35
0.69
1.82
2.86
3.59
3.83
3.49
2.72
1.76
0.88
0.26
-0.08
-0.24
-0.32
-0.40
-0.49
-0.55
-0.54
-0.47
-0.39
-0.37
-0.47
-0.71
-1.06
-1.42
-1.68
-1.74
-1.57
-1.21
-0.78
-0.42
-0.23
-0.22
-0.31
-0.36
-0.27
0.02
0.50
1.07
1.61
1.99
2.11
1.94
1.48
0.79
0.01
-0.71
-1.22
-1.43
-1.37
-1.15
-0.96
-0.89
-0.97
-1.11
-1.20
-1.13
-0.90
-0.58
-0.30
-0.12
-0.02
0.06
0.17
0.29
0.34
0.24
0.00
-0.30
-0.52
-0.58
-0.49
-0.35
-0.29
-0.35
-0.47
-0.49
-0.29
0.15
0.74
1.34
1.80
2.07
2.14
2.01
1.73
1.32
0.85
0.43
0.17
0.10
0.22
0.40
0.55
0.57
0.48
0.31
0.14
-0.01
-0.13
-0.25
-0.39
-0.54
-0.67
-0.74
-0.74
-0.69
-0.66
-0.69
-0.79
-0.91
-0.97
-0.90
-0.66
-0.29
0.13
0.55
0.92
1.29
1.66
1.99
2.17
2.09
1.68
1.01
0.25
-0.41
-0.84
-1.04
-1.08
-1.04
-0.95
-0.78
-0.51
-0.17
0.15
0.37
0.46
0.50
0.55
0.63
0.68
0.56
0.18
-0.42
-1.07
-1.56
-1.74
-1.58
-1.20
-0.80
-0.53
-0.46
-0.53
-0.65
-0.68
-0.54
-0.18
0.40
1.14
1.93
2.61
3.00
2.93
2.35
1.36
0.20
-0.81
-1.43
-1.53
-1.19
-0.62
-0.11
0.13
-0.00
-0.43
-0.98
-1.42
-1.62
-1.55
-1.30
-1.01
-0.79
-0.68
-0.65
-0.67
-0.71
-0.78
-0.87
-0.94
-0.90
-0.69
-0.30
0.20
0.70
1.12
1.43
1.64
1.76
1.80
1.74
1.60
1.44
1.33
1.30
1.29
1.19
0.88
0.35
-0.29
-0.87
-1.22
-1.29
-1.13
-0.89
-0.71
-0.66
-0.74
-0.87
-0.99
-1.03
-0.95
-0.74
-0.45
-0.12
0.19
0.45
0.67
0.92
1.24
1.66
2.13
2.58
2.96
3.22
3.33
3.26
2.97
2.40
1.59
0.61
-0.35
-1.11
-1.56
-1.67
-1.53
-1.29
-1.08
-0.96
-0.93
-0.94
-0.93
-0.87
-0.77
-0.67
-0.61
-0.59
-0.60
-0.64
-0.69
-0.74
-0.80
-0.88
-0.96
-1.03
-1.06
-1.04
-0.99
-0.92
-0.83
-0.74
-0.65
-0.56
-0.49
-0.39
-0.21
0.07
0.44
0.77
0.93
0.84
0.55
0.20
-0.04
-0.09
-0.01
0.03
-0.08
-0.40
-0.79
-1.12
-1.27
-1.23
-1.11
-1.04
-1.07
-1.21
-1.40
-1.59
-1.75
-1.87
-1.91
-1.85
-1.67
-1.38
-0.99
-0.55
-0.10
0.36
0.83
1.31
1.79
2.27
2.71
3.03
3.16
3.01
2.54
1.79
0.90
0.07
-0.48
-0.59
-0.25
0.46
1.34
2.16
2.71
2.86
2.52
1.75
0.71
-0.35
-1.15
-1.49
-1.40
-1.06
-0.77
-0.80
-1.20
-1.85
-2.49
-2.89
-2.93
-2.63
-2.10
-1.50
-0.94
-0.51
-0.27
-0.27
-0.48
-0.77
-0.93
-0.75
-0.09
0.95
2.13
3.12
3.67
3.71
3.36
2.83
2.30
1.87
1.54
1.25
0.97
0.68
0.39
0.07
-0.29
-0.66
-1.00
-1.21
-1.23
-1.10
-0.91
-0.82
-0.90
-1.10
-1.28
-1.30
-1.10
-0.76
-0.41
-0.21
-0.19
-0.28
-0.31
-0.17
0.23
0.85
1.62
2.46
3.27
3.98
4.46
4.59
4.32
3.66
2.75
1.75
0.84
0.14
-0.32
-0.57
-0.70
-0.76
-0.84
-0.96
-1.12
-1.30
-1.44
-1.54
-1.60
-1.70
-1.86
-2.08
-2.28
-2.35
-2.24
-1.97
-1.62
-1.30
-1.08
-0.95
-0.87
-0.78
-0.65
-0.45
-0.18
0.18
0.66
1.18
1.63
1.82
1.65
1.14
0.48
-0.08
-0.36
-0.32
-0.10
0.11
0.19
0.12
0.02
-0.01
0.11
0.30
0.42
0.36
0.11
-0.24
-0.55
-0.70
-0.67
-0.55
-0.48
-0.55
-0.79
-1.11
-1.41
-1.59
-1.62
-1.56
-1.53
-1.57
-1.67
-1.66
-1.36
-0.67
0.35
1.47
2.39
2.86
2.81
2.36
1.79
1.33
1.13
1.12
1.17
1.10
0.81
0.36
-0.13
-0.53
-0.75
-0.79
-0.78
-0.84
-1.01
-1.27
-1.50
-1.56
-1.41
-1.10
-0.75
-0.50
-0.39
-0.36
-0.31
-0.13
0.20
0.64
1.07
1.43
1.68
1.81
1.85
1.80
1.64
1.39
1.10
0.86
0.75
0.78
0.89
0.98
0.98
0.85
0.64
0.41
0.21
0.06
-0.03
-0.06
-0.06
-0.05
-0.08
-0.19
-0.39
-0.64
-0.85
-0.97
-0.97
-0.91
-0.84
-0.82
-0.85
-0.93
-1.03
-1.16
-1.33
-1.53
-1.69
-1.68
-1.37
-0.72
0.17
1.07
1.69
1.85
1.54
0.95
0.35
-0.01
-0.04
0.16
0.39
0.45
0.24
-0.19
-0.73
-1.24
-1.60
-1.75
-1.69
-1.44
-1.04
-0.54
-0.03
0.42
0.71
0.80
0.68
0.37
-0.01
-0.36
-0.55
-0.52
-0.29
0.01
0.25
0.29
0.13
-0.16
-0.43
-0.51
-0.35
0.04
0.54
0.99
1.28
1.32
1.09
0.67
0.15
-0.34
-0.69
-0.85
-0.84
-0.72
-0.54
-0.32
-0.07
0.18
0.36
0.35
0.08
-0.40
-0.97
-1.44
-1.64
-1.52
-1.17
-0.73
-0.36
-0.14
-0.07
-0.07
-0.05
0.12
0.51
1.16
2.03
2.98
3.79
4.25
4.18
3.62
2.73
1.82
1.13
0.79
0.75
0.85
0.88
0.76
0.48
0.14
-0.20
-0.46
-0.66
-0.79
-0.87
-0.91
-0.97
-1.08
-1.30
-1.59
-1.88
-2.05
-2.07
-1.94
-1.74
-1.53
-1.34
-1.13
-0.85
-0.50
-0.13
0.19
0.43
0.63
0.88
1.26
1.75
2.25
2.61
2.73
2.54
2.08
1.45
0.79
0.22
-0.15
-0.30
-0.28
-0.23
-0.31
-0.62
-1.18
-1.88
-2.56
-3.04
-3.22
-3.14
-2.88
-2.57
-2.28
-2.00
-1.67
-1.24
-0.71
-0.19
0.22
0.47
0.58
0.68
0.90
1.28
1.72
2.03
2.08
1.87
1.54
1.29
1.21
1.24
1.22
0.99
0.54
0.03
-0.34
-0.45
-0.34
-0.16
-0.10
-0.20
-0.40
-0.52
-0.45
-0.20
0.09
0.28
0.25
0.02
-0.29
-0.54
-0.61
-0.51
-0.31
-0.16
-0.14
-0.28
-0.48
-0.64
-0.66
-0.53
-0.31
-0.11
-0.00
-0.03
-0.16
-0.34
-0.50
-0.53
-0.38
0.02
0.64
1.36
2.01
2.39
2.37
1.96
1.27
0.49
-0.20
-0.68
-0.96
-1.10
-1.20
-1.32
-1.46
-1.62
-1.77
-1.89
-1.98
-2.01
-1.95
-1.75
-1.40
-0.92
-0.40
0.06
0.34
0.43
0.35
0.22
0.12
0.15
0.34
0.68
1.13
1.61
2.04
2.40
2.67
2.87
3.01
3.04
2.93
2.65
2.22
1.72
1.21
0.78
0.46
0.23
0.08
-0.05
-0.18
-0.34
-0.52
-0.71
-0.87
-1.00
-1.12
-1.31
-1.61
-1.98
-2.33
-2.51
-2.40
-2.00
-1.43
-0.85
-0.45
-0.30
-0.40
-0.68
-1.04
-1.35
-1.49
-1.33
-0.81
0.03
1.02
1.92
2.50
2.62
2.31
1.71
1.03
0.45
0.05
-0.12
-0.14
-0.04
0.13
0.37
0.71
1.12
1.53
1.81
1.84
1.54
0.95
0.21
-0.49
-0.99
-1.22
-1.22
-1.12
-1.05
-1.08
-1.19
-1.31
-1.38
-1.37
-1.32
-1.28
-1.26
-1.25
-1.18
-1.01
-0.72
-0.34
0.07
0.43
0.72
0.94
1.11
1.23
1.30
1.32
1.34
1.41
1.58
1.84
2.09
2.19
2.01
1.53
0.84
0.11
-0.52
-0.94
-1.14
-1.20
-1.24
-1.32
-1.47
-1.66
-1.78
-1.76
-1.53
-1.13
-0.67
-0.29
-0.12
-0.22
-0.52
-0.90
-1.22
-1.36
-1.25
-0.88
-0.26
0.56
1.50
2.38
2.98
3.08
2.56
1.55
0.34
-0.66
-1.18
-1.14
-0.72
-0.23
0.10
0.19
0.14
0.12
0.24
0.49
0.72
0.78
0.62
0.31
-0.03
-0.26
-0.36
-0.37
-0.39
-0.49
-0.70
-0.99
-1.29
-1.54
-1.68
-1.67
-1.46
-1.05
-0.43
0.33
1.10
1.74
2.13
2.22
2.10
1.87
1.64
1.47
1.37
1.28
1.16
0.98
0.74
0.42
0.03
-0.42
-0.87
-1.27
-1.55
-1.72
-1.82
-1.92
-2.00
-2.02
-1.87
-1.51
-1.02
-0.52
-0.16
-0.03
-0.07
-0.20
-0.31
-0.37
-0.38
-0.39
-0.39
-0.31
-0.07
0.39
1.06
1.82
2.49
2.93
3.01
2.73
2.19
1.55
0.99
0.62
0.46
0.46
0.51
0.49
0.37
0.13
-0.19
-0.54
-0.87
-1.14
-1.33
-1.42
-1.42
-1.33
-1.22
-1.13
-1.11
-1.17
-1.30
-1.44
-1.56
-1.59
-1.52
-1.32
-1.02
-0.69
-0.38
-0.11
0.17
0.57
1.16
1.92
2.70
3.23
3.29
2.81
1.91
0.88
0.02
-0.48
-0.61
-0.51
-0.33
-0.14
0.06
0.32
0.63
0.90
0.98
0.77
0.28
-0.38
-0.97
-1.31
-1.28
-0.92
-0.38
0.13
0.41
0.38
0.09
-0.31
-0.63
-0.76
-0.70
-0.61
-0.63
-0.82
-1.12
-1.35
-1.34
-1.01
-0.41
0.32
1.02
1.55
1.83
1.81
1.49
0.98
0.43
0.02
-0.13
-0.02
0.20
0.33
0.24
-0.06
-0.45
-0.77
-0.95
-0.99
-0.99
-1.04
-1.18
-1.37
-1.53
-1.60
-1.56
-1.46
-1.34
-1.21
-1.05
-0.82
-0.47
-0.02
0.45
0.84
1.01
0.92
0.64
0.34
0.24
0.52
1.20
2.11
2.97
3.52
3.57
3.16
2.45
1.69
1.04
0.57
0.23
-0.03
-0.21
-0.27
-0.14
0.18
0.57
0.88
0.97
0.80
0.46
0.09
-0.18
-0.34
-0.43
-0.54
-0.73
-0.97
-1.23
-1.42
-1.56
-1.65
-1.70
-1.70
-1.64
-1.49
-1.29
-1.12
-1.05
-1.11
-1.23
-1.29
-1.17
-0.82
-0.31
0.18
0.50
0.54
0.33
0.03
-0.15
-0.08
0.20
0.55
0.75
0.65
0.23
-0.39
-1.05
-1.58
-1.91
-2.05
-2.05
-1.97
-1.84
-1.67
-1.49
-1.37
-1.36
-1.49
-1.71
-1.95
-2.10
-2.10
-1.95
-1.66
-1.27
-0.80
-0.28
0.24
0.70
1.09
1.44
1.87
2.47
3.24
4.09
4.87
5.40
5.62
5.54
5.25
4.84
4.37
3.88
3.41
3.00
2.68
2.48
2.33
2.14
1.80
1.27
0.58
-0.16
-0.84
-1.36
-1.69
-1.86
-1.93
-1.95
-1.97
-2.02
-2.11
-2.25
-2.46
-2.71
-2.96
-3.12
-3.09
-2.82
-2.31
-1.65
-0.96
-0.39
0.03
0.32
0.58
0.86
1.15
1.34
1.30
0.97
0.44
-0.05
-0.27
-0.10
0.38
0.92
1.24
1.18
0.78
0.23
-0.22
-0.39
-0.24
0.10
0.48
0.77
0.92
0.91
0.79
0.59
0.31
-0.00
-0.34
-0.66
-0.94
-1.16
-1.35
-1.52
-1.68
-1.80
-1.81
-1.67
-1.31
-0.75
-0.01
0.84
1.66
2.28
2.52
2.31
1.69
0.88
0.16
-0.24
-0.23
0.07
0.42
0.62
0.57
0.36
0.11
-0.09
-0.27
-0.49
-0.81
-1.17
-1.45
-1.51
-1.32
-0.98
-0.66
-0.51
-0.55
-0.71
-0.88
-0.98
-0.99
-0.92
-0.81
-0.60
-0.26
0.26
0.94
1.67
2.27
2.59
2.53
2.12
1.46
0.78
0.26
0.02
0.06
0.31
0.62
0.92
1.14
1.28
1.32
1.25
1.02
0.62
0.09
-0.45
-0.83
-0.93
-0.72
-0.30
0.15
0.44
0.43
0.13
-0.38
-0.94
-1.43
-1.78
-1.98
-2.08
-2.13
-2.15
-2.18
-2.23
-2.28
-2.30
-2.21
-1.90
-1.29
-0.37
0.74
1.80
2.57
2.88
2.73
2.29
1.81
1.50
1.43
1.54
1.69
1.74
1.62
1.33
0.90
0.37
-0.25
-0.88
-1.44
-1.80
-1.91
-1.76
-1.43
-1.02
-0.65
-0.37
-0.24
-0.24
-0.37
-0.60
-0.85
-1.04
-1.07
-0.95
-0.71
-0.48
-0.33
-0.29
-0.29
-0.16
0.19
0.81
1.58
2.34
2.90
3.13
3.02
2.60
1.96
1.22
0.49
-0.11
-0.48
-0.57
-0.42
-0.12
0.16
0.29
0.22
-0.02
-0.34
-0.65
-0.90
-1.11
-1.34
-1.62
-1.91
-2.13
-2.17
-1.96
-1.53
-1.02
-0.61
-0.45
-0.57
-0.88
-1.23
-1.47
-1.51
-1.33
-0.91
-0.22
0.77
1.95
3.09
3.84
3.93
3.30
2.15
0.84
-0.24
-0.90
-1.17
-1.20
-1.12
-0.97
-0.69
-0.20
0.43
1.05
1.46
1.52
1.22
0.68
0.09
-0.38
-0.63
-0.67
-0.59
-0.49
-0.47
-0.57
-0.72
-0.84
-0.82
-0.62
-0.27
0.08
0.25
0.11
-0.32
-0.93
-1.45
-1.64
-1.37
-0.65
0.34
1.32
2.06
2.39
2.29
1.87
1.30
0.73
0.24
-0.15
-0.46
-0.70
-0.88
-0.96
-0.94
-0.88
-0.85
-0.97
-1.26
-1.66
-2.05
-2.32
-2.37
-2.23
-1.99
-1.72
-1.53
-1.45
-1.48
-1.61
-1.80
-1.99
-2.12
-2.15
-2.01
-1.69
-1.19
-0.53
0.29
1.23
2.23
3.15
3.80
4.00
3.66
2.84
1.79
0.84
0.30
0.31
0.80
1.55
2.29
2.85
3.16
3.26
3.24
3.15
2.97
2.67
2.23
1.66
1.03
0.40
-0.18
-0.70
-1.14
-1.47
-1.64
-1.60
-1.34
-0.94
-0.51
-0.16
0.04
0.08
-0.00
-0.15
-0.34
-0.57
-0.79
-0.92
-0.80
-0.32
0.49
1.45
2.29
2.77
2.79
2.46
1.98
1.57
1.29
1.07
0.76
0.30
-0.30
-0.90
-1.35
-1.58
-1.64
-1.62
-1.64
-1.71
-1.80
-1.81
-1.70
-1.47
-1.19
-0.98
-0.94
-1.08
-1.33
-1.57
-1.69
-1.63
-1.40
-1.07
-0.72
-0.43
-0.22
-0.11
-0.04
0.07
0.31
0.73
1.26
1.73
1.92
1.67
0.98
0.06
-0.78
-1.24
-1.21
-0.78
-0.20
0.32
0.64
0.78
0.85
0.91
1.00
1.04
0.97
0.74
0.37
-0.05
-0.43
-0.69
-0.77
-0.71
-0.58
-0.46
-0.41
-0.43
-0.51
-0.60
-0.69
-0.77
-0.86
-0.95
-1.02
-1.01
-0.90
-0.69
-0.43
-0.22
-0.11
-0.13
-0.25
-0.38
-0.38
-0.14
0.37
1.09
1.85
2.44
2.71
2.61
2.21
1.65
1.06
0.53
0.07
-0.29
-0.55
-0.66
-0.59
-0.36
-0.02
0.32
0.56
0.59
0.39
0.04
-0.37
-0.70
-0.88
-0.89
-0.79
-0.66
-0.57
-0.54
-0.58
-0.64
-0.70
-0.73
-0.68
-0.54
-0.29
0.07
0.50
0.99
1.51
2.03
2.46
2.69
2.63
2.22
1.53
0.75
0.10
-0.26
-0.32
-0.18
-0.00
0.07
-0.01
-0.20
-0.43
-0.63
-0.79
-0.93
-1.05
-1.14
-1.22
-1.26
-1.27
-1.22
-1.09
-0.85
-0.56
-0.28
-0.13
-0.16
-0.35
-0.58
-0.71
-0.65
-0.42
-0.09
0.28
0.66
1.06
1.47
1.78
1.86
1.60
0.99
0.21
-0.51
-0.94
-0.98
-0.70
-0.26
0.17
0.51
0.73
0.88
0.97
0.97
0.80
0.41
-0.17
-0.85
-1.44
-1.81
-1.87
-1.64
-1.23
-0.78
-0.40
-0.13
0.01
0.05
0.04
-0.00
-0.02
0.03
0.13
0.31
0.50
0.67
0.83
0.98
1.20
1.47
1.75
1.91
1.84
1.48
0.90
0.24
-0.30
-0.60
-0.64
-0.49
-0.25
-0.01
0.18
0.33
0.40
0.38
0.25
0.01
-0.31
-0.66
-1.02
-1.39
-1.74
-2.04
-2.20
-2.10
-1.73
-1.19
-0.70
-0.50
-0.68
-1.16
-1.68
-1.97
-1.85
-1.41
-0.85
-0.45
-0.38
-0.63
-1.07
-1.54
-1.96
-2.31
-2.66
-2.98
-3.23
-3.32
-3.16
-2.81
-2.41
-2.17
-2.23
-2.59
-3.10
-3.59
-3.89
-3.92
-3.72
-3.39
-3.09
-2.95
-3.12
-3.68
-4.60
-5.72
-6.76
-7.43
-7.54
-7.10
-6.29
-5.39
-4.67
-4.20
-3.94
-3.75
-3.41
-2.76
-1.68
-0.22
1.46
3.04
4.20
4.74
4.67
4.19
3.62
3.21
3.02
2.93
2.74
2.28
1.51
0.55
-0.35
-0.94
-1.01
-0.51
0.51
1.81
3.06
3.91
4.15
3.78
3.06
2.36
1.96
1.91
1.95
1.74
1.00
-0.27
-1.80
-3.23
-4.28
-4.95
-5.50
-6.26
-7.43
-8.99
-10.65
-12.07
-13.00
-13.40
-13.55
-13.86
-14.67
-16.07
-17.76
-19.15
-19.56
-18.54
-16.01
-12.31
-8.05
-3.88
-0.41
1.99
3.25
3.73
4.17
5.55
8.61
13.45
19.37
25.07
29.23
31.07
30.70
28.86
26.52
24.28
22.24
20.18
17.96
15.76
14.01
13.14
13.16
13.65
13.93
13.47
12.14
10.29
8.56
7.50
7.35
7.99
9.00
9.96
10.59
10.85
10.84
10.73
10.63
10.63
10.71
10.81
10.79
10.45
9.58
8.10
6.10
3.85
1.70
-0.05
-1.28
-2.09
-2.71
-3.34
-4.09
-4.93
-5.73
-6.38
-6.80
-7.01
-7.07
-7.06
-7.11
-7.29
-7.64
-8.13
-8.62
-8.97
-9.06
-8.89
-8.55
-8.18
-7.92
-7.78
-7.70
-7.54
-7.21
-6.70
-6.12
-5.58
-5.19
-4.93
-4.73
-4.46
-4.08
-3.61
-3.16
-2.82
-2.60
-2.44
-2.23
-1.87
-1.37
-0.82
-0.35
-0.09
-0.07
-0.25
-0.52
-0.77
-0.94
-1.01
-0.98
-0.88
-0.72
-0.51
-0.27
-0.01
0.22
0.37
0.41
0.35
0.24
0.13
0.05
0.00
-0.05
-0.13
-0.23
-0.29
-0.26
-0.10
0.16
0.41
0.56
0.51
0.30
0.04
-0.17
-0.26
-0.25
-0.20
-0.14
-0.04
0.18
0.54
0.97
1.33
1.40
1.13
0.59
0.00
-0.39
-0.44
-0.19
0.16
0.42
0.44
0.19
-0.24
-0.71
-1.08
-1.25
-1.18
-0.90
-0.48
-0.05
0.26
0.36
0.23
-0.09
-0.51
-0.92
-1.24
-1.38
-1.29
-0.96
-0.45
0.12
0.62
0.92
0.99
0.86
0.65
0.44
0.27
0.13
-0.02
-0.20
-0.39
-0.55
-0.63
-0.62
-0.51
-0.32
-0.08
0.18
0.44
0.70
0.91
1.04
1.02
0.79
0.38
-0.11
-0.52
-0.69
-0.54
-0.14
0.36
0.73
0.81
0.57
0.11
-0.40
-0.79
-0.97
-0.94
-0.77
-0.55
-0.36
-0.24
-0.19
-0.19
-0.22
-0.24
-0.26
-0.30
-0.38
-0.50
-0.65
-0.74
-0.72
-0.52
-0.17
0.25
0.61
0.80
0.79
0.62
0.41
0.25
0.21
0.24
0.31
0.35
0.34
0.31
0.31
0.38
0.52
0.71
0.87
0.95
0.92
0.76
0.49
0.15
-0.18
-0.44
-0.56
-0.55
-0.47
-0.39
-0.39
-0.44
-0.49
-0.42
-0.19
0.15
0.51
0.75
0.81
0.69
0.45
0.18
-0.06
-0.24
-0.37
-0.45
-0.50
-0.54
-0.58
-0.64
-0.71
-0.79
-0.85
-0.85
-0.76
-0.56
-0.25
0.10
0.41
0.59
0.62
0.51
0.33
0.19
0.13
0.16
0.27
0.39
0.49
0.50
0.39
0.18
-0.09
-0.34
-0.48
-0.46
-0.32
-0.13
0.02
0.11
0.16
0.26
0.41
0.59
0.71
0.68
0.49
0.19
-0.09
-0.25
-0.24
-0.08
0.12
0.25
0.22
0.02
-0.28
-0.57
-0.75
-0.77
-0.66
-0.46
-0.26
-0.12
-0.09
-0.17
-0.33
-0.50
-0.63
-0.67
-0.60
-0.48
-0.36
-0.28
-0.23
-0.19
-0.07
0.15
0.43
0.70
0.89
0.98
0.97
0.95
0.94
0.96
0.96
0.88
0.70
0.45
0.22
0.10
0.13
0.27
0.44
0.50
0.42
0.22
-0.00
-0.15
-0.18
-0.15
-0.14
-0.24
-0.46
-0.74
-0.97
-1.09
-1.07
-0.97
-0.82
-0.67
-0.51
-0.30
-0.04
0.26
0.54
0.75
0.85
0.83
0.71
0.53
0.31
0.08
-0.13
-0.28
-0.35
-0.35
-0.31
-0.27
-0.26
-0.27
-0.29
-0.30
-0.32
-0.37
-0.45
-0.54
-0.62
-0.62
-0.53
-0.36
-0.13
0.08
0.23
0.28
0.26
0.16
0.00
-0.18
-0.34
-0.46
-0.48
-0.39
-0.17
0.13
0.47
0.75
0.89
0.88
0.72
0.49
0.24
0.03
-0.08
-0.06
0.11
0.42
0.83
1.25
1.56
1.64
1.48
1.12
0.68
0.25
-0.06
-0.25
-0.32
-0.28
-0.18
-0.06
0.02
0.03
-0.03
-0.12
-0.19
-0.22
-0.24
-0.30
-0.42
-0.58
-0.69
-0.68
-0.55
-0.37
-0.26
-0.32
-0.50
-0.71
-0.80
-0.70
-0.44
-0.12
0.16
0.31
0.33
0.26
0.15
0.05
-0.01
-0.02
0.06
0.22
0.44
0.65
0.78
0.73
0.47
0.04
-0.42
-0.75
-0.81
-0.57
-0.14
0.30
0.59
0.66
0.56
0.40
0.29
0.25
0.26
0.26
0.24
0.25
0.36
0.62
0.97
1.26
1.36
1.19
0.80
0.32
-0.10
-0.33
-0.38
-0.32
-0.26
-0.24
-0.26
-0.28
-0.24
-0.12
0.04
0.15
0.16
0.09
-0.01
-0.09
-0.09
-0.04
0.01
-0.02
-0.16
-0.35
-0.49
-0.48
-0.28
0.05
0.35
0.48
0.37
0.02
-0.43
-0.87
-1.19
-1.34
-1.33
-1.20
-1.01
-0.83
-0.71
-0.69
-0.78
-0.88
-0.88
-0.68
-0.25
0.32
0.86
1.21
1.26
1.05
0.68
0.31
0.06
-0.04
-0.01
0.10
0.21
0.29
0.31
0.28
0.19
0.07
-0.10
-0.29
-0.48
-0.64
-0.75
-0.79
-0.77
-0.72
-0.69
-0.68
-0.69
-0.67
-0.58
-0.40
-0.18
-0.01
0.04
-0.07
-0.29
-0.52
-0.66
-0.62
-0.42
-0.15
0.09
0.20
0.15
-0.01
-0.18
-0.26
-0.20
-0.01
0.25
0.50
0.69
0.81
0.89
0.95
0.97
0.93
0.82
0.65
0.46
0.28
0.16
0.09
0.06
0.09
0.19
0.36
0.57
0.76
0.84
0.72
0.42
0.01
-0.37
-0.57
-0.55
-0.34
-0.07
0.12
0.14
0.02
-0.16
-0.28
-0.29
-0.19
-0.03
0.10
0.18
0.19
0.16
0.13
0.15
0.22
0.29
0.32
0.26
0.12
-0.05
-0.18
-0.21
-0.14
-0.02
0.07
0.11
0.12
0.18
0.34
0.60
0.86
1.00
0.96
0.76
0.47
0.21
0.06
0.03
0.06
0.07
-0.01
-0.16
-0.33
-0.45
-0.49
-0.47
-0.42
-0.40
-0.40
-0.40
-0.34
-0.21
-0.03
0.14
0.27
0.34
0.35
0.33
0.27
0.17
-0.01
-0.25
-0.52
-0.75
-0.88
-0.88
-0.73
-0.48
-0.20
0.05
0.15
0.09
-0.11
-0.38
-0.58
-0.63
-0.50
-0.25
0.03
0.25
0.36
0.37
0.32
0.21
0.07
-0.11
-0.31
-0.49
-0.62
-0.66
-0.64
-0.58
-0.50
-0.37
-0.17
0.09
0.35
0.56
0.66
0.66
0.63
0.67
0.80
0.97
1.11
1.14
1.06
0.90
0.73
0.58
0.47
0.41
0.41
0.44
0.47
0.43
0.25
-0.04
-0.37
-0.62
-0.70
-0.62
-0.46
-0.32
-0.24
-0.17
-0.06
0.09
0.20
0.17
-0.05
-0.39
-0.72
-0.87
-0.77
-0.49
-0.18
0.03
0.10
0.05
-0.00
-0.00
0.04
0.05
-0.03
-0.19
-0.34
-0.36
-0.20
0.05
0.24
0.23
-0.04
-0.47
-0.86
-1.06
-1.00
-0.76
-0.48
-0.29
-0.23
-0.24
-0.24
-0.21
-0.16
-0.16
-0.26
-0.44
-0.62
-0.71
-0.63
-0.40
-0.06
0.29
0.55
0.66
0.60
0.40
0.18
0.02
-0.03
0.02
0.11
0.18
0.20
0.20
0.25
0.35
0.43
0.42
0.28
0.04
-0.19
-0.28
-0.20
-0.02
0.13
0.17
0.09
-0.04
-0.12
-0.09
0.01
0.12
0.19
0.20
0.22
0.30
0.44
0.60
0.71
0.72
0.63
0.47
0.30
0.16
0.03
-0.07
-0.15
-0.19
-0.14
-0.01
0.17
0.33
0.42
0.41
0.35
0.30
0.34
0.48
0.69
0.91
1.06
1.09
0.97
0.71
0.36
-0.01
-0.32
-0.50
-0.53
-0.43
-0.28
-0.13
-0.04
-0.01
-0.03
-0.08
-0.15
-0.23
-0.33
-0.43
-0.51
-0.53
-0.48
-0.40
-0.34
-0.34
-0.42
-0.52
-0.58
-0.53
-0.37
-0.18
-0.06
-0.08
-0.21
-0.35
-0.39
-0.27
-0.01
0.31
0.59
0.75
0.78
0.69
0.50
0.27
0.05
-0.12
-0.25
-0.35
-0.44
-0.50
-0.50
-0.40
-0.21
-0.05
-0.01
-0.18
-0.50
-0.79
-0.87
-0.65
-0.18
0.35
0.74
0.85
0.71
0.43
0.16
0.04
0.08
0.25
0.47
0.65
0.71
0.59
0.28
-0.16
-0.62
-0.91
-0.91
-0.59
-0.03
0.57
1.02
1.20
1.14
0.92
0.69
0.54
0.48
0.48
0.50
0.50
0.45
0.35
0.15
-0.14
-0.49
-0.82
-1.05
-1.12
-1.05
-0.91
-0.75
-0.65
-0.60
-0.60
-0.60
-0.54
-0.39
-0.14
0.18
0.48
0.65
0.61
0.34
-0.05
-0.43
-0.66
-0.66
-0.49
-0.23
-0.00
0.12
0.16
0.16
0.18
0.21
0.20
0.07
-0.22
-0.63
-1.02
-1.22
-1.12
-0.70
-0.10
0.52
0.99
1.20
1.18
0.99
0.73
0.47
0.23
0.03
-0.15
-0.28
-0.36
-0.36
-0.30
-0.21
-0.14
-0.12
-0.16
-0.19
-0.19
-0.14
-0.06
0.01
0.02
-0.05
-0.16
-0.29
-0.35
-0.32
-0.17
0.07
0.32
0.52
0.62
0.64
0.59
0.51
0.38
0.20
-0.05
-0.34
-0.56
-0.63
-0.48
-0.17
0.20
0.48
0.61
0.61
0.55
0.51
0.49
0.42
0.24
-0.04
-0.34
-0.55
-0.58
-0.46
-0.26
-0.10
-0.05
-0.07
-0.10
-0.06
0.05
0.20
0.33
0.39
0.42
0.45
0.51
0.60
0.68
0.68
0.59
0.39
0.13
-0.15
-0.40
-0.58
-0.66
-0.61
-0.45
-0.21
0.01
0.12
0.08
-0.09
-0.29
-0.42
-0.38
-0.14
0.26
0.72
1.14
1.42
1.52
1.46
1.28
1.08
0.88
0.68
0.44
0.12
-0.31
-0.76
-1.15
-1.36
-1.35
-1.13
-0.78
-0.41
-0.11
0.07
0.13
0.10
0.04
0.03
0.10
0.22
0.35
0.41
0.34
0.13
-0.17
-0.49
-0.73
-0.81
-0.73
-0.54
-0.35
-0.26
-0.29
-0.37
-0.40
-0.31
-0.10
0.12
0.21
0.11
-0.11
-0.29
-0.29
-0.05
0.31
0.61
0.69
0.50
0.17
-0.13
-0.25
-0.14
0.13
0.42
0.59
0.60
0.47
0.30
0.16
0.12
0.16
0.23
0.26
0.21
0.09
-0.04
-0.11
-0.09
0.02
0.14
0.23
0.23
0.15
0.04
-0.05
-0.10
-0.10
-0.09
-0.08
-0.08
-0.12
-0.19
-0.31
-0.51
-0.77
-1.03
-1.22
-1.27
-1.14
-0.88
-0.57
-0.32
-0.19
-0.15
-0.14
-0.08
0.06
0.24
0.37
0.39
0.29
0.11
-0.06
-0.15
-0.14
-0.05
0.07
0.18
0.25
0.25
0.22
0.18
0.18
0.27
0.47
0.73
0.97
1.08
0.98
0.69
0.27
-0.17
-0.52
-0.71
-0.76
-0.70
-0.56
-0.40
-0.25
-0.13
-0.06
-0.06
-0.13
-0.25
-0.38
-0.47
-0.46
-0.33
-0.10
0.17
0.39
0.52
0.54
0.49
0.43
0.39
0.37
0.34
0.29
0.25
0.25
0.32
0.43
0.51
0.47
0.27
-0.07
-0.43
-0.69
-0.74
-0.57
-0.24
0.12
0.39
0.51
0.49
0.39
0.29
0.20
0.12
0.05
-0.01
0.01
0.16
0.43
0.74
0.93
0.90
0.61
0.16
-0.31
-0.68
-0.91
-1.01
-1.05
-1.04
-0.96
-0.80
-0.56
-0.27
-0.00
0.16
0.19
0.09
-0.08
-0.21
-0.21
-0.04
0.28
0.65
0.96
1.12
1.08
0.88
0.58
0.24
-0.08
-0.33
-0.47
-0.50
-0.42
-0.30
-0.21
-0.19
-0.24
-0.31
-0.31
-0.20
-0.01
0.18
0.29
0.27
0.17
0.07
0.07
0.17
0.32
0.44
0.44
0.33
0.15
0.03
0.05
0.21
0.47
0.69
0.78
0.68
0.42
0.10
-0.19
-0.37
-0.47
-0.55
-0.67
-0.83
-1.00
-1.11
-1.10
-0.94
-0.69
-0.42
-0.22
-0.16
-0.25
-0.44
-0.65
-0.78
-0.79
-0.66
-0.43
-0.15
0.15
0.46
0.74
0.94
1.01
0.92
0.68
0.40
0.19
0.12
0.19
0.32
0.39
0.37
0.27
0.17
0.13
0.14
0.18
0.18
0.14
0.11
0.16
0.32
0.53
0.70
0.70
0.51
0.18
-0.18
-0.43
-0.53
-0.48
-0.35
-0.19
-0.03
0.12
0.25
0.33
0.32
0.19
-0.05
-0.30
-0.47
-0.48
-0.33
-0.09
0.11
0.17
0.07
-0.12
-0.28
-0.36
-0.34
-0.29
-0.32
-0.44
-0.63
-0.82
-0.94
-0.94
-0.84
-0.69
-0.51
-0.30
-0.04
0.26
0.57
0.83
0.99
1.02
0.92
0.71
0.43
0.11
-0.18
-0.38
-0.44
-0.32
-0.06
0.27
0.57
0.75
0.77
0.64
0.44
0.24
0.06
-0.09
-0.24
-0.39
-0.52
-0.60
-0.58
-0.50
-0.40
-0.34
-0.36
-0.42
-0.45
-0.37
-0.17
0.13
0.42
0.61
0.63
0.50
0.32
0.17
0.14
0.21
0.35
0.49
0.60
0.66
0.71
0.76
0.80
0.80
0.73
0.60
0.44
0.32
0.24
0.23
0.25
0.27
0.28
0.24
0.16
0.03
-0.12
-0.30
-0.45
-0.54
-0.56
-0.51
-0.43
-0.38
-0.40
-0.48
-0.60
-0.71
-0.76
-0.71
-0.57
-0.38
-0.20
-0.09
-0.08
-0.17
-0.33
-0.50
-0.64
-0.73
-0.74
-0.66
-0.47
-0.17
0.21
0.63
1.00
1.23
1.27
1.07
0.68
0.20
-0.26
-0.56
-0.65
-0.56
-0.40
-0.27
-0.22
-0.25
-0.26
-0.17
0.01
0.21
0.30
0.21
-0.04
-0.29
-0.37
-0.17
0.27
0.79
1.18
1.31
1.21
0.97
0.75
0.60
0.51
0.41
0.26
0.05
-0.16
-0.31
-0.40
-0.44
-0.44
-0.42
-0.36
-0.28
-0.24
-0.31
-0.53
-0.85
-1.17
-1.37
-1.36
-1.11
-0.69
-0.17
0.35
0.77
1.03
1.11
1.01
0.81
0.58
0.42
0.35
0.35
0.39
0.42
0.40
0.32
0.18
-0.00
-0.18
-0.28
-0.29
-0.18
-0.02
0.10
0.07
-0.14
-0.48
-0.85
-1.12
-1.22
-1.15
-0.95
-0.70
-0.50
-0.36
-0.28
-0.24
-0.21
-0.17
-0.13
-0.11
-0.11
-0.12
-0.12
-0.09
-0.02
0.07
0.11
0.06
-0.08
-0.26
-0.39
-0.40
-0.32
-0.18
-0.07
-0.00
0.04
0.12
0.27
0.44
0.54
0.48
0.25
-0.06
-0.31
-0.38
-0.24
0.06
0.41
0.71
0.91
0.98
0.89
0.67
0.37
0.12
0.02
0.13
0.42
0.74
0.95
0.96
0.79
0.54
0.35
0.27
0.32
0.42
0.52
0.58
0.57
0.50
0.36
0.13
-0.15
-0.44
-0.68
-0.79
-0.73
-0.52
-0.22
0.05
0.17
0.07
-0.22
-0.58
-0.87
-0.97
-0.86
-0.61
-0.36
-0.19
-0.12
-0.11
-0.08
0.01
0.11
0.17
0.11
-0.09
-0.36
-0.59
-0.65
-0.46
-0.03
0.50
0.96
1.22
1.21
1.00
0.69
0.43
0.25
0.15
0.06
-0.07
-0.22
-0.34
-0.37
-0.27
-0.10
0.08
0.20
0.23
0.24
0.28
0.39
0.56
0.67
0.67
0.51
0.25
-0.02
-0.19
-0.24
-0.18
-0.06
0.07
0.20
0.33
0.44
0.46
0.33
0.02
-0.41
-0.82
-1.06
-1.04
-0.79
-0.42
-0.10
0.08
0.10
0.02
-0.04
-0.00
0.13
0.30
0.39
0.35
0.16
-0.13
-0.43
-0.68
-0.85
-0.94
-0.97
-0.95
-0.88
-0.73
-0.51
-0.21
0.13
0.44
0.67
0.78
0.76
0.64
0.44
0.21
-0.03
-0.24
-0.39
-0.42
-0.33
-0.16
0.03
0.16
0.21
0.17
0.12
0.10
0.11
0.11
0.06
-0.04
-0.16
-0.22
-0.20
-0.12
-0.04
-0.04
-0.14
-0.31
-0.49
-0.63
-0.70
-0.72
-0.70
-0.67
-0.62
-0.58
-0.53
-0.50
-0.48
-0.49
-0.49
-0.46
-0.34
-0.11
0.21
0.54
0.79
0.88
0.78
0.55
0.34
0.28
0.42
0.71
1.04
1.26
1.31
1.23
1.10
1.01
0.95
0.86
0.65
0.31
-0.07
-0.36
-0.43
-0.26
0.08
0.41
0.60
0.57
0.39
0.14
-0.07
-0.19
-0.24
-0.26
-0.28
-0.29
-0.22
-0.01
0.33
0.71
0.97
0.97
0.68
0.21
-0.30
-0.68
-0.86
-0.85
-0.73
-0.58
-0.41
-0.23
-0.04
0.14
0.24
0.22
0.09
-0.11
-0.29
-0.40
-0.44
-0.44
-0.43
-0.41
-0.34
-0.21
-0.02
0.14
0.19
0.07
-0.20
-0.49
-0.70
-0.77
-0.73
-0.64
-0.60
-0.61
-0.65
-0.65
-0.57
-0.40
-0.18
0.04
0.23
0.38
0.52
0.67
0.86
1.06
1.22
1.25
1.11
0.79
0.39
0.05
-0.11
-0.07
0.10
0.27
0.34
0.29
0.21
0.22
0.39
0.66
0.87
0.87
0.59
0.10
-0.43
-0.80
-0.89
-0.73
-0.43
-0.15
-0.02
-0.05
-0.18
-0.32
-0.41
-0.44
-0.45
-0.48
-0.53
-0.58
-0.60
-0.59
-0.54
-0.50
-0.50
-0.53
-0.59
-0.65
-0.69
-0.68
-0.63
-0.56
-0.50
-0.50
-0.60
-0.83
-1.15
-1.50
-1.76
-1.85
-1.75
-1.52
-1.25
-1.07
-1.09
-1.35
-1.83
-2.47
-3.14
-3.67
-3.97
-3.97
-3.75
-3.44
-3.15
-2.95
-2.81
-2.65
-2.45
-2.24
-2.11
-2.12
-2.23
-2.29
-2.07
-1.38
-0.12
1.71
4.01
6.62
9.32
11.89
14.11
15.83
17.06
17.89
18.51
19.04
19.52
19.82
19.80
19.28
18.14
16.38
14.09
11.41
8.55
5.70
3.03
0.68
-1.29
-2.87
-4.10
-5.09
-5.96
-6.85
-7.80
-8.75
-9.52
-9.95
-9.91
-9.44
-8.65
-7.69
-6.69
-5.72
-4.84
-4.08
-3.54
-3.26
-3.27
-3.49
-3.81
-4.12
-4.35
-4.45
-4.42
-4.25
-3.99
-3.67
-3.35
-3.07
-2.84
-2.64
-2.41
-2.11
-1.71
-1.21
-0.66
-0.13
0.31
0.59
0.72
0.75
0.74
0.78
0.89
1.03
1.10
1.07
0.95
0.83
0.81
0.96
1.25
1.58
1.82
1.90
1.80
1.61
1.36
1.10
0.79
0.39
-0.13
-0.74
-1.42
-2.15
-2.92
-3.72
-4.47
-5.10
-5.48
-5.55
-5.33
-4.94
-4.54
-4.26
-4.14
-4.14
-4.20
-4.24
-4.21
-4.12
-4.01
-3.90
-3.78
-3.59
-3.28
-2.86
-2.38
-1.96
-1.71
-1.73
-2.03
-2.55
-3.20
-3.84
-4.35
-4.66
-4.72
-4.58
-4.33
-4.10
-4.01
-4.12
-4.42
-4.82
-5.24
-5.60
-5.87
-6.01
-5.96
-5.63
-4.99
-4.00
-2.78
-1.48
-0.28
0.68
1.35
1.77
2.03
2.21
2.38
2.63
3.08
3.87
5.16
6.97
9.14
11.32
13.07
14.03
14.01
13.12
11.66
10.00
8.45
7.17
6.18
5.39
4.73
4.12
3.59
3.14
2.81
2.55
2.32
2.04
1.70
1.34
1.05
0.95
1.11
1.48
1.91
2.24
2.39
2.37
2.33
2.41
2.61
2.80
2.71
2.14
1.07
-0.26
-1.53
-2.43
-2.84
-2.87
-2.74
-2.66
-2.74
-2.94
-3.15
-3.22
-3.10
-2.84
-2.54
-2.29
-2.14
-2.04
-1.93
-1.78
-1.60
-1.46
-1.43
-1.53
-1.70
-1.82
-1.77
-1.50
-1.04
-0.43
0.23
0.89
1.51
2.05
2.45
2.67
2.70
2.58
2.39
2.22
2.15
2.18
2.31
2.47
2.63
2.74
2.75
2.64
2.41
2.07
1.68
1.26
0.86
0.51
0.20
-0.08
-0.35
-0.63
-0.92
-1.20
-1.47
-1.70
-1.91
-2.14
-2.36
-2.57
-2.69
-2.69
-2.56
-2.37
-2.24
-2.25
-2.37
-2.49
-2.44
-2.14
-1.65
-1.14
-0.79
-0.71
-0.87
-1.14
-1.37
-1.49
-1.46
-1.31
-1.07
-0.75
-0.39
-0.00
0.34
0.59
0.69
0.66
0.51
0.30
0.09
-0.08
-0.14
-0.07
0.07
0.23
0.30
0.23
0.04
-0.19
-0.34
-0.36
-0.27
-0.13
-0.01
0.04
0.03
-0.05
-0.18
-0.36
-0.57
-0.76
-0.85
-0.83
-0.69
-0.50
-0.34
-0.23
-0.15
-0.06
0.09
0.26
0.41
0.47
0.42
0.29
0.15
0.07
0.10
0.22
0.41
0.59
0.72
0.76
0.70
0.55
0.32
0.03
-0.31
-0.66
-0.96
-1.15
-1.16
-1.00
-0.73
-0.45
-0.25
-0.16
-0.13
-0.08
0.03
0.16
0.28
0.34
0.34
0.36
0.44
0.60
0.76
0.84
0.76
0.54
0.25
-0.00
-0.15
-0.21
-0.21
-0.20
-0.17
-0.09
0.05
0.22
0.34
0.32
0.13
-0.16
-0.43
-0.54
-0.41
-0.09
0.30
0.58
0.67
0.56
0.31
0.03
-0.18
-0.29
-0.29
-0.21
-0.09
0.06
0.19
0.30
0.38
0.43
0.46
0.50
0.56
0.64
0.73
0.78
0.74
0.57
0.28
-0.09
-0.43
-0.66
-0.71
-0.56
-0.27
0.03
0.24
0.26
0.09
-0.22
-0.56
-0.83
-0.94
-0.85
-0.60
-0.25
0.10
0.35
0.48
0.47
0.37
0.22
0.08
-0.03
-0.08
-0.09
-0.06
0.00
0.06
0.09
0.06
-0.05
-0.24
-0.46
-0.65
-0.73
-0.64
-0.42
-0.13
0.09
0.16
0.05
-0.18
-0.39
-0.52
-0.52
-0.45
-0.32
-0.13
0.11
0.44
0.79
1.05
1.13
0.97
0.63
0.24
-0.05
-0.17
-0.11
0.05
0.19
0.19
0.00
-0.36
-0.79
-1.16
-1.35
-1.33
-1.16
-0.94
-0.73
-0.54
-0.31
-0.02
0.32
0.63
0.81
0.80
0.66
0.51
0.47
0.57
0.76
0.92
0.94
0.78
0.48
0.15
-0.07
-0.07
0.14
0.48
0.79
0.94
0.87
0.64
0.37
0.16
0.06
0.02
-0.05
-0.18
-0.36
-0.52
-0.60
-0.60
-0.55
-0.49
-0.43
-0.33
-0.17
0.05
0.26
0.40
0.44
0.36
0.22
0.04
-0.17
-0.42
-0.70
-0.97
-1.14
-1.17
-1.04
-0.79
-0.50
-0.23
-0.02
0.11
0.15
0.06
-0.15
-0.45
-0.78
-1.04
-1.15
-1.07
-0.81
-0.46
-0.15
0.01
-0.01
-0.17
-0.33
-0.37
-0.23
0.05
0.35
0.55
0.62
0.63
0.70
0.87
1.12
1.30
1.26
0.96
0.48
-0.01
-0.33
-0.36
-0.14
0.22
0.57
0.82
0.91
0.86
0.70
0.47
0.20
-0.07
-0.32
-0.50
-0.55
-0.48
-0.31
-0.09
0.10
0.23
0.30
0.32
0.30
0.21
0.06
-0.13
-0.27
-0.28
-0.14
0.12
0.42
0.65
0.77
0.76
0.67
0.56
0.46
0.37
0.29
0.19
0.06
-0.10
-0.25
-0.35
-0.34
-0.20
0.04
0.31
0.50
0.53
0.37
0.09
-0.21
-0.45
-0.59
-0.63
-0.63
-0.59
-0.51
-0.39
-0.22
-0.03
0.16
0.28
0.32
0.29
0.26
0.29
0.41
0.60
0.80
0.93
0.92
0.80
0.61
0.44
0.33
0.31
0.35
0.39
0.39
0.29
0.11
-0.15
-0.44
-0.68
-0.80
-0.78
-0.65
-0.49
-0.41
-0.45
-0.61
-0.84
-1.07
-1.25
-1.36
-1.37
-1.22
-0.94
-0.55
-0.16
0.12
0.23
0.18
0.07
-0.02
-0.03
0.01
0.09
0.17
0.27
0.39
0.51
0.57
0.51
0.34
0.16
0.08
0.16
0.34
0.49
0.48
0.25
-0.13
-0.50
-0.73
-0.75
-0.61
-0.40
-0.20
-0.06
0.03
0.08
0.11
0.10
0.06
0.00
-0.03
0.01
0.14
0.32
0.46
0.47
0.31
0.05
-0.20
-0.32
-0.27
-0.11
0.06
0.16
0.16
0.13
0.15
0.26
0.42
0.55
0.55
0.40
0.16
-0.12
-0.35
-0.48
-0.52
-0.45
-0.31
-0.13
0.01
0.05
-0.03
-0.15
-0.22
-0.11
0.19
0.59
0.90
0.95
0.69
0.20
-0.34
-0.75
-0.90
-0.79
-0.50
-0.16
0.13
0.33
0.40
0.36
0.21
-0.02
-0.25
-0.42
-0.47
-0.37
-0.16
0.09
0.28
0.32
0.19
-0.08
-0.39
-0.62
-0.67
-0.50
-0.14
0.31
0.72
0.97
1.02
0.89
0.65
0.42
0.27
0.23
0.26
0.29
0.26
0.17
0.06
-0.02
-0.03
-0.02
-0.04
-0.12
-0.23
-0.30
-0.21
0.04
0.42
0.78
0.97
0.94
0.71
0.39
0.11
-0.07
-0.15
-0.18
-0.23
-0.32
-0.43
-0.50
-0.50
-0.45
-0.39
-0.38
-0.42
-0.48
-0.49
-0.43
-0.30
-0.13
0.02
0.13
0.17
0.17
0.16
0.16
0.18
0.25
0.36
0.47
0.55
0.54
0.42
0.21
-0.03
-0.21
-0.23
-0.08
0.20
0.48
0.64
0.60
0.38
0.11
-0.07
-0.04
0.15
0.37
0.47
0.36
0.06
-0.29
-0.53
-0.57
-0.43
-0.20
0.02
0.16
0.23
0.26
0.29
0.35
0.39
0.40
0.31
0.13
-0.12
-0.38
-0.59
-0.68
-0.64
-0.50
-0.34
-0.25
-0.28
-0.41
-0.54
-0.57
-0.41
-0.07
0.35
0.67
0.71
0.42
-0.13
-0.76
-1.21
-1.35
-1.15
-0.76
-0.34
-0.05
0.06
0.03
-0.06
-0.12
-0.11
-0.05
0.02
0.08
0.12
0.14
0.17
0.22
0.31
0.40
0.45
0.40
0.23
-0.04
-0.31
-0.47
-0.46
-0.30
-0.09
0.05
0.08
0.01
-0.09
-0.16
-0.16
-0.13
-0.12
-0.15
-0.23
-0.31
-0.38
-0.43
-0.46
-0.47
-0.42
-0.32
-0.16
0.02
0.17
0.22
0.17
0.05
-0.09
-0.18
-0.19
-0.14
-0.09
-0.09
-0.15
-0.23
-0.25
-0.15
0.11
0.49
0.85
1.10
1.18
1.11
0.95
0.76
0.60
0.48
0.39
0.33
0.30
0.28
0.27
0.26
0.26
0.27
0.30
0.34
0.37
0.39
0.37
0.31
0.20
0.07
-0.04
-0.10
-0.06
0.09
0.30
0.48
0.51
0.34
-0.00
-0.40
-0.71
-0.83
-0.77
-0.59
-0.43
-0.36
-0.38
-0.44
-0.44
-0.34
-0.15
0.07
0.24
0.31
0.29
0.24
0.23
0.30
0.47
0.67
0.81
0.82
0.67
0.38
0.02
-0.29
-0.48
-0.49
-0.37
-0.21
-0.11
-0.08
-0.06
-0.00
0.14
0.29
0.35
0.23
-0.07
-0.42
-0.64
-0.64
-0.42
-0.12
0.11
0.17
0.10
-0.03
-0.10
-0.09
-0.03
0.02
0.01
-0.03
-0.08
-0.11
-0.12
-0.15
-0.25
-0.40
-0.54
-0.59
-0.52
-0.36
-0.21
-0.14
-0.19
-0.28
-0.32
-0.21
0.01
0.27
0.43
0.40
0.22
-0.02
-0.21
-0.28
-0.22
-0.11
0.00
0.09
0.17
0.27
0.41
0.59
0.78
0.91
0.93
0.78
0.47
0.05
-0.38
-0.70
-0.83
-0.76
-0.51
-0.21
0.02
0.08
-0.04
-0.27
-0.50
-0.59
-0.50
-0.26
0.01
0.18
0.14
-0.14
-0.56
-0.98
-1.26
-1.33
-1.16
-0.82
-0.39
0.04
0.41
0.71
0.92
1.04
1.08
1.01
0.83
0.61
0.40
0.32
0.42
0.67
0.97
1.19
1.22
1.01
0.66
0.31
0.07
0.02
0.10
0.19
0.19
0.09
-0.05
-0.13
-0.12
-0.03
0.03
-0.01
-0.14
-0.26
-0.25
-0.07
0.21
0.44
0.48
0.30
-0.03
-0.36
-0.58
-0.67
-0.64
-0.56
-0.47
-0.37
-0.27
-0.16
-0.08
-0.03
0.01
0.05
0.10
0.12
0.09
-0.02
-0.19
-0.35
-0.47
-0.50
-0.47
-0.40
-0.32
-0.26
-0.20
-0.15
-0.12
-0.11
-0.12
-0.11
-0.04
0.09
0.28
0.47
0.61
0.66
0.63
0.56
0.50
0.46
0.45
0.43
0.35
0.22
0.10
0.04
0.14
0.39
0.73
1.04
1.16
1.02
0.61
0.03
-0.55
-0.98
-1.17
-1.11
-0.89
-0.61
-0.37
-0.20
-0.09
-0.01
0.06
0.08
0.04
-0.07
-0.25
-0.45
-0.61
-0.71
-0.72
-0.67
-0.56
-0.41
-0.24
-0.06
0.10
0.21
0.23
0.18
0.08
-0.05
-0.16
-0.23
-0.27
-0.30
-0.36
-0.45
-0.55
-0.64
-0.71
-0.72
-0.70
-0.64
-0.56
-0.46
-0.36
-0.25
-0.16
-0.08
0.00
0.12
0.29
0.47
0.62
0.68
0.62
0.47
0.30
0.20
0.19
0.26
0.36
0.45
0.49
0.49
0.48
0.47
0.49
0.55
0.65
0.80
0.97
1.13
1.24
1.30
1.32
1.31
1.23
1.04
0.70
0.25
-0.20
-0.52
-0.62
-0.53
-0.38
-0.29
-0.33
-0.47
-0.59
-0.60
-0.50
-0.38
-0.34
-0.45
-0.65
-0.83
-0.83
-0.59
-0.17
0.31
0.71
0.94
0.99
0.90
0.73
0.50
0.20
-0.13
-0.43
-0.63
-0.64
-0.47
-0.21
0.00
0.03
-0.16
-0.50
-0.82
-0.97
-0.88
-0.57
-0.17
0.17
0.35
0.34
0.22
0.10
0.05
0.07
0.10
0.05
-0.12
-0.37
-0.61
-0.73
-0.70
-0.53
-0.28
0.01
0.31
0.59
0.80
0.87
0.78
0.56
0.32
0.16
0.13
0.16
0.15
0.04
-0.16
-0.34
-0.39
-0.28
-0.08
0.06
0.03
-0.17
-0.43
-0.63
-0.66
-0.52
-0.29
-0.07
0.09
0.14
0.11
0.02
-0.09
-0.15
-0.09
0.13
0.50
0.91
1.21
1.31
1.19
0.94
0.68
0.54
0.52
0.55
0.55
0.47
0.33
0.22
0.18
0.19
0.20
0.11
-0.10
-0.40
-0.70
-0.92
-0.99
-0.92
-0.76
-0.58
-0.48
-0.47
-0.54
-0.57
-0.50
-0.27
0.08
0.43
0.67
0.70
0.54
0.25
-0.06
-0.33
-0.54
-0.73
-0.90
-1.08
-1.21
-1.27
-1.22
-1.05
-0.78
-0.47
-0.18
0.04
0.13
0.08
-0.07
-0.29
-0.49
-0.62
-0.59
-0.39
-0.02
0.43
0.83
1.05
1.06
0.89
0.66
0.47
0.40
0.45
0.55
0.64
0.69
0.70
0.69
0.62
0.49
0.27
-0.01
-0.28
-0.45
-0.45
-0.29
-0.04
0.19
0.33
0.34
0.26
0.14
0.07
0.06
0.09
0.08
-0.01
-0.17
-0.30
-0.31
-0.10
0.26
0.65
0.91
0.93
0.76
0.52
0.36
0.31
0.30
0.22
-0.04
-0.43
-0.80
-0.97
-0.81
-0.38
0.16
0.57
0.69
0.51
0.13
-0.25
-0.52
-0.60
-0.55
-0.44
-0.34
-0.27
-0.18
-0.08
0.03
0.11
0.18
0.27
0.41
0.61
0.80
0.91
0.82
0.55
0.16
-0.22
-0.49
-0.59
-0.51
-0.31
-0.07
0.14
0.26
0.27
0.21
0.13
0.08
0.09
0.14
0.16
0.12
0.00
-0.13
-0.23
-0.28
-0.30
-0.34
-0.43
-0.56
-0.69
-0.78
-0.80
-0.74
-0.59
-0.38
-0.11
0.16
0.36
0.43
0.35
0.14
-0.10
-0.29
-0.37
-0.36
-0.32
-0.29
-0.30
-0.35
-0.37
-0.33
-0.22
-0.04
0.13
0.21
0.20
0.09
-0.05
-0.13
-0.11
-0.01
0.10
0.13
0.04
-0.16
-0.38
-0.52
-0.50
-0.33
-0.05
0.22
0.41
0.45
0.38
0.24
0.10
-0.02
-0.11
-0.20
-0.31
-0.46
-0.61
-0.69
-0.65
-0.49
-0.24
-0.00
0.17
0.23
0.21
0.13
0.03
-0.08
-0.17
-0.24
-0.25
-0.17
0.00
0.21
0.38
0.45
0.41
0.29
0.19
0.16
0.25
0.42
0.58
0.65
0.58
0.39
0.14
-0.07
-0.18
-0.19
-0.16
-0.13
-0.11
-0.06
0.09
0.37
0.72
1.03
1.18
1.07
0.74
0.29
-0.10
-0.33
-0.37
-0.27
-0.16
-0.11
-0.15
-0.25
-0.33
-0.35
-0.33
-0.30
-0.27
-0.22
-0.10
0.13
0.48
0.85
1.15
1.26
1.13
0.80
0.37
-0.03
-0.30
-0.39
-0.34
-0.23
-0.15
-0.12
-0.12
-0.10
-0.02
0.10
0.16
0.09
-0.15
-0.47
-0.72
-0.80
-0.63
-0.29
0.11
0.45
0.65
0.72
0.69
0.58
0.38
0.11
-0.18
-0.42
-0.54
-0.50
-0.37
-0.25
-0.21
-0.27
-0.32
-0.25
-0.02
0.30
0.55
0.58
0.34
-0.08
-0.53
-0.84
-0.96
-0.92
-0.81
-0.69
-0.56
-0.37
-0.07
0.33
0.75
1.08
1.23
1.20
1.04
0.85
0.73
0.70
0.74
0.76
0.70
0.55
0.34
0.15
0.03
0.02
0.11
0.28
0.52
0.78
1.01
1.09
0.93
0.48
-0.15
-0.80
-1.24
-1.34
-1.13
-0.75
-0.42
-0.31
-0.48
-0.88
-1.34
-1.71
-1.88
-1.77
-1.40
-0.86
-0.25
0.28
0.64
0.80
0.79
0.67
0.47
0.21
-0.11
-0.46
-0.77
-0.94
-0.91
-0.67
-0.34
-0.06
0.07
-0.01
-0.25
-0.52
-0.71
-0.74
-0.63
-0.40
-0.11
0.19
0.48
0.71
0.85
0.88
0.80
0.64
0.45
0.29
0.18
0.14
0.14
0.14
0.11
0.05
-0.04
-0.14
-0.22
-0.28
-0.31
-0.32
-0.30
-0.27
-0.23
-0.18
-0.12
-0.02
0.13
0.32
0.53
0.70
0.76
0.66
0.41
0.06
-0.28
-0.55
-0.73
-0.81
-0.81
-0.73
-0.57
-0.31
0.01
0.31
0.53
0.65
0.65
0.59
0.50
0.39
0.28
0.17
0.11
0.11
0.17
0.23
0.21
0.05
-0.24
-0.55
-0.79
-0.90
-0.88
-0.77
-0.62
-0.48
-0.31
-0.14
0.02
0.17
0.29
0.38
0.48
0.59
0.71
0.79
0.82
0.79
0.71
0.64
0.61
0.63
0.70
0.79
0.90
0.99
1.03
1.00
0.86
0.65
0.40
0.17
0.01
-0.04
0.01
0.14
0.29
0.41
0.44
0.35
0.14
-0.15
-0.42
-0.61
-0.66
-0.59
-0.46
-0.36
-0.33
-0.34
-0.36
-0.32
-0.21
-0.08
0.03
0.05
-0.01
-0.15
-0.31
-0.45
-0.54
-0.59
-0.62
-0.66
-0.72
-0.76
-0.76
-0.66
-0.47
-0.22
0.01
0.16
0.17
0.05
-0.11
-0.22
-0.21
-0.08
0.12
0.31
0.43
0.45
0.40
0.35
0.35
0.43
0.52
0.54
0.43
0.18
-0.13
-0.38
-0.52
-0.58
-0.62
-0.71
-0.84
-0.92
-0.86
-0.59
-0.16
0.28
0.55
0.57
0.34
-0.03
-0.41
-0.66
-0.71
-0.55
-0.27
0.03
0.25
0.31
0.19
-0.02
-0.26
-0.40
-0.42
-0.29
-0.06
0.22
0.50
0.74
0.88
0.89
0.75
0.49
0.20
0.00
0.01
0.27
0.68
1.10
1.34
1.31
1.02
0.60
0.19
-0.08
-0.18
-0.12
0.01
0.14
0.17
0.08
-0.13
-0.35
-0.48
-0.43
-0.21
0.07
0.29
0.34
0.24
0.09
-0.03
-0.09
-0.11
-0.14
-0.17
-0.13
0.02
0.26
0.48
0.55
0.39
0.06
-0.29
-0.48
-0.43
-0.15
0.24
0.60
0.82
0.86
0.73
0.49
0.22
-0.03
-0.22
-0.33
-0.37
-0.39
-0.39
-0.39
-0.37
-0.32
-0.27
-0.24
-0.30
-0.46
-0.70
-0.96
-1.15
-1.20
-1.07
-0.81
-0.49
-0.18
0.03
0.11
0.10
0.05
0.03
0.07
0.20
0.38
0.54
0.64
0.63
0.53
0.36
0.15
-0.09
-0.32
-0.52
-0.66
-0.71
-0.65
-0.51
-0.35
-0.22
-0.17
-0.22
-0.34
-0.47
-0.56
-0.58
-0.54
-0.47
-0.39
-0.31
-0.24
-0.15
-0.02
0.14
0.32
0.50
0.68
0.86
1.05
1.21
1.32
1.32
1.22
1.03
0.82
0.63
0.49
0.35
0.19
-0.02
-0.29
-0.57
-0.78
-0.86
-0.79
-0.57
-0.28
-0.00
0.16
0.15
-0.02
-0.25
-0.44
-0.49
-0.38
-0.18
-0.01
0.04
-0.05
-0.23
-0.42
-0.56
-0.63
-0.63
-0.59
-0.48
-0.29
-0.01
0.35
0.71
1.00
1.13
1.05
0.77
0.35
-0.12
-0.52
-0.80
-0.92
-0.92
-0.89
-0.88
-0.92
-1.01
-1.11
-1.20
-1.24
-1.20
-1.05
-0.78
-0.47
-0.24
-0.21
-0.40
-0.73
-1.03
-1.13
-0.98
-0.64
-0.24
0.06
0.18
0.13
-0.02
-0.21
-0.38
-0.46
-0.43
-0.27
-0.02
0.21
0.27
0.00
-0.64
-1.56
-2.51
-3.15
-3.21
-2.52
-1.10
0.85
3.02
5.08
6.75
7.85
8.37
8.44
8.25
8.04
7.95
8.01
8.13
8.16
7.96
7.48
6.75
5.88
5.00
4.19
3.45
2.79
2.17
1.57
0.95
0.26
-0.55
-1.54
-2.72
-4.03
-5.32
-6.38
-7.01
-7.07
-6.57
-5.65
-4.51
-3.32
-2.17
-1.06
0.02
1.06
1.98
2.74
3.31
3.78
4.29
4.94
5.75
6.59
7.30
7.73
7.83
7.65
7.27
6.80
6.31
5.86
5.51
5.27
5.13
5.02
4.83
4.39
3.55
2.17
0.25
-2.12
-4.68
-7.11
-9.11
-10.48
-11.20
-11.39
-11.32
-11.20
-11.21
-11.40
-11.72
-12.07
-12.34
-12.45
-12.38
-12.23
-12.09
-12.10
-12.33
-12.74
-13.24
-13.71
-14.13
-14.56
-15.19
-16.18
-17.64
-19.52
-21.59
-23.59
-25.24
-26.49
-27.50
-28.73
-30.73
-33.98
-38.55
-44.05
-49.73
-54.80
-58.93
-62.47
-66.37
-71.68
-79.01
-88.12
-97.98
-107.28
-115.01
-120.98
-125.88
-130.99
-137.72
-147.22
-160.16
-176.50
-195.29
-214.47
-230.85
-240.71
-240.74
-229.14
-206.27
-174.42
-136.86
-96.47
-54.75
-11.72
33.18
79.77
126.12
168.67
203.30
226.97
238.97
241.09
236.75
229.53
221.88
214.65
207.58
200.20
192.54
185.26
179.21
174.82
171.83
169.36
166.54
162.88
158.49
153.98
150.07
147.29
145.84
145.67
146.58
148.43
151.12
154.50
158.36
162.40
166.34
170.10
173.84
177.92
182.75
188.68
195.88
204.22
212.94
220.52
224.76
223.16
213.69
195.58
169.54
137.55
101.93
64.40
25.38
-15.78
-59.85
-106.45
-153.23
-196.07
-230.27
-252.27
-261.00
-258.20
-247.57
-233.22
-218.16
-203.73
-189.91
-176.30
-162.92
-150.45
-139.76
-131.25
-124.53
-118.49
-111.97
-104.28
-95.52
-86.46
-78.09
-71.12
-65.68
-61.28
-57.12
-52.47
-47.04
-41.06
-35.20
-30.17
-26.39
-23.86
-22.15
-20.66
-18.87
-16.57
-13.90
-11.19
-8.80
-6.97
-5.74
-5.02
-4.58
-4.24
-3.81
-3.20
-2.43
-1.60
-0.85
-0.32
-0.09
-0.17
-0.44
-0.78
-1.03
-1.09
-0.97
-0.72
-0.46
-0.28
-0.19
-0.17
-0.15
-0.11
-0.04
-0.02
-0.09
-0.24
-0.41
-0.52
-0.50
-0.38
-0.23
-0.14
-0.17
-0.26
-0.36
-0.37
-0.26
-0.06
0.13
0.20
0.11
-0.15
-0.47
-0.76
-0.96
-1.07
-1.19
-1.38
-1.65
-1.93
-2.08
-2.01
-1.72
-1.31
-0.92
-0.67
-0.54
-0.43
-0.17
0.31
1.00
1.76
2.42
2.83
2.88
2.63
2.19
1.71
1.32
1.07
0.93
0.81
0.65
0.47
0.35
0.41
0.72
1.22
1.79
2.23
2.41
2.34
2.18
2.12
2.33
2.83
3.50
4.14
4.56
4.61
4.25
3.51
2.48
1.24
-0.09
-1.37
-2.50
-3.37
-3.92
-4.13
-4.04
-3.71
-3.21
-2.61
-1.96
-1.29
-0.64
-0.03
0.55
1.06
1.49
1.79
1.92
1.89
1.74
1.57
1.46
1.42
1.39
1.24
0.90
0.37
-0.23
-0.72
-0.99
-1.04
-0.98
-0.95
-1.02
-1.17
-1.28
-1.27
-1.15
-1.02
-0.98
-1.10
-1.34
-1.60
-1.83
-2.02
-2.20
-2.42
-2.62
-2.72
-2.61
-2.30
-1.84
-1.34
-0.86
-0.34
0.29
1.06
1.93
2.71
3.28
3.58
3.67
3.66
3.58
3.40
3.02
2.40
1.61
0.82
0.17
-0.26
-0.48
-0.58
-0.62
-0.65
-0.67
-0.70
-0.79
-0.98
-1.25
-1.56
-1.87
-2.11
-2.26
-2.30
-2.21
-1.97
-1.61
-1.19
-0.78
-0.45
-0.23
-0.10
0.01
0.14
0.30
0.45
0.56
0.61
0.62
0.62
0.63
0.65
0.66
0.62
0.55
0.44
0.31
0.18
0.08
0.03
0.02
0.06
0.08
0.05
-0.07
-0.30
-0.56
-0.77
-0.83
-0.72
-0.46
-0.13
0.22
0.55
0.85
1.07
1.19
1.17
1.06
0.95
0.98
1.21
1.60
1.98
2.15
1.97
1.47
0.83
0.28
0.02
0.08
0.34
0.61
0.72
0.58
0.23
-0.24
-0.72
-1.11
-1.39
-1.56
-1.68
-1.79
-1.90
-1.98
-1.98
-1.88
-1.69
-1.49
-1.34
-1.27
-1.24
-1.17
-0.97
-0.62
-0.16
0.32
0.73
1.02
1.17
1.20
1.12
0.93
0.65
0.36
0.15
0.09
0.23
0.50
0.77
0.89
0.75
0.35
-0.20
-0.74
-1.14
-1.35
-1.41
-1.40
-1.39
-1.42
-1.47
-1.49
-1.47
-1.37
-1.22
-1.02
-0.81
-0.57
-0.30
0.01
0.42
0.95
1.65
2.52
3.48
4.39
5.04
5.26
4.95
4.18
3.13
2.04
1.10
0.40
-0.04
-0.27
-0.32
-0.24
-0.08
