1660933798.00
64.000000
-0.00
-0.00
-0.00
-0.00
-0.00
-0.00
-0.00
-0.00
-0.00
-0.00
0.00
0.01
0.01
-0.00
-0.03
-0.05
-0.05
0.00
0.13
0.36
0.66
1.01
1.37
1.72
2.06
2.40
2.79
3.25
3.81
4.44
5.10
5.73
6.32
6.90
7.52
8.26
9.15
10.28
11.52
12.77
13.89
14.85
15.74
16.74
18.09
19.93
22.44
25.40
28.53
31.52
34.25
36.85
39.67
43.17
47.66
53.44
60.11
67.09
73.83
80.06
86.00
92.24
99.55
108.38
119.11
131.05
143.28
154.94
165.65
175.76
186.19
198.39
210.92
225.72
242.96
262.46
283.02
302.06
315.79
320.09
311.81
289.88
256.11
213.65
166.32
117.29
68.56
21.06
-24.65
-68.03
-108.51
-145.61
-179.95
-212.87
-246.12
-281.02
-317.55
-353.80
-386.02
-409.74
-421.13
-418.57
-403.37
-379.22
-350.79
-321.98
-294.89
-269.84
-246.20
-223.35
-201.40
-180.97
-162.69
-146.62
-132.17
-118.41
-104.63
-90.62
-76.75
-63.78
-52.40
-42.94
-35.21
-28.59
-22.35
-15.92
-9.18
-2.42
3.76
8.80
12.40
14.73
16.27
17.62
19.24
21.24
23.45
25.45
26.88
27.54
27.49
26.95
26.27
25.70
25.37
25.24
25.17
24.98
24.55
23.85
22.91
21.85
20.77
19.80
18.99
18.39
17.97
17.67
17.37
16.98
16.45
15.79
15.10
14.50
14.02
13.67
13.35
12.99
12.55
12.10
11.74
11.53
11.45
11.41
11.28
11.01
10.62
10.25
9.99
9.89
9.90
9.88
9.76
9.51
9.18
8.84
8.55
8.31
8.10
7.89
7.66
7.40
7.11
6.81
6.50
6.20
5.91
5.64
5.35
4.99
4.55
4.05
3.54
3.09
2.73
2.45
2.19
1.93
1.63
1.29
0.90
0.44
-0.11
-0.74
-1.43
-2.15
-2.87
-3.58
-4.30
-5.01
-5.72
-6.40
-7.04
-7.64
-8.19
-8.67
-9.03
-9.24
-9.30
-9.24
-9.10
-8.89
-8.63
-8.31
-7.98
-7.68
-7.47
-7.33
-7.16
-6.78
-6.08
-5.07
-3.90
-2.81
-1.99
-1.54
-1.40
-1.41
-1.39
-1.22
-0.85
-0.36
0.18
0.66
1.03
1.27
1.42
1.52
1.64
1.80
2.03
2.32
2.62
2.86
3.01
3.09
3.16
3.29
3.49
3.72
3.91
3.98
3.99
4.00
4.10
4.32
4.55
4.67
4.60
4.40
4.22
4.24
4.51
4.93
5.32
5.50
5.41
5.10
4.74
4.46
4.29
4.19
4.08
3.88
3.60
3.29
3.04
2.90
2.87
2.92
2.99
3.05
3.08
3.09
3.09
3.05
2.95
2.76
2.53
2.33
2.25
2.30
2.44
2.58
2.63
2.56
2.41
2.24
2.11
2.00
1.89
1.77
1.64
1.56
1.56
1.64
1.77
1.89
1.95
1.94
1.88
1.80
1.74
1.70
1.67
1.64
1.61
1.60
1.62
1.70
1.80
1.86
1.84
1.71
1.49
1.25
1.06
0.92
0.78
0.60
0.36
0.09
-0.09
-0.09
0.12
0.47
0.86
1.15
1.27
1.22
1.04
0.80
0.55
0.37
0.29
0.35
0.50
0.67
0.79
0.80
0.74
0.69
0.72
0.84
1.00
1.05
0.94
0.68
0.43
0.39
0.65
1.13
1.63
1.94
1.93
1.64
1.23
0.85
0.59
0.45
0.38
0.35
0.37
0.44
0.55
0.67
0.75
0.81
0.85
0.91
1.00
1.09
1.14
1.11
1.01
0.88
0.77
0.73
0.79
0.92
1.09
1.20
1.18
0.97
0.59
0.14
-0.25
-0.46
-0.43
-0.20
0.13
0.45
0.67
0.75
0.69
0.52
0.28
0.03
-0.15
-0.22
-0.12
0.14
0.54
0.99
1.39
1.65
1.71
1.58
1.32
1.03
0.79
0.65
0.60
0.58
0.54
0.46
0.36
0.28
0.27
0.32
0.39
0.43
0.40
0.28
0.13
0.00
-0.04
0.01
0.15
0.32
0.48
0.59
0.64
0.64
0.59
0.53
0.45
0.38
0.32
0.27
0.25
0.23
0.20
0.15
0.09
0.07
0.09
0.18
0.32
0.48
0.63
0.75
0.82
0.84
0.80
0.72
0.60
0.48
0.36
0.23
0.10
-0.09
-0.33
-0.61
-0.88
-1.09
-1.19
-1.15
-0.97
-0.65
-0.24
0.18
0.53
0.71
0.69
0.51
0.28
0.13
0.14
0.30
0.54
0.75
0.83
0.78
0.65
0.51
0.39
0.30
0.23
0.20
0.22
0.30
0.45
0.61
0.76
0.88
0.96
0.99
0.96
0.84
0.59
0.26
-0.06
-0.24
-0.18
0.10
0.46
0.74
0.80
0.63
0.34
0.09
-0.01
0.05
0.21
0.38
0.48
0.50
0.43
0.29
0.09
-0.18
-0.47
-0.69
-0.77
-0.67
-0.43
-0.19
-0.06
-0.13
-0.37
-0.67
-0.89
-0.94
-0.81
-0.60
-0.43
-0.41
-0.58
-0.86
-1.17
-1.43
-1.63
-1.77
-1.88
-1.97
-2.04
-2.08
-2.07
-2.04
-1.99
-1.93
-1.80
-1.61
-1.37
-1.22
-1.25
-1.44
-1.62
-1.51
-0.87
0.30
1.69
2.83
3.36
3.20
2.63
2.08
1.85
1.96
2.18
2.29
2.21
2.11
2.16
2.30
2.24
1.55
-0.01
-2.27
-4.69
-6.69
-7.90
-8.44
-8.75
-9.34
-10.47
-12.08
-13.87
-15.59
-17.17
-18.67
-20.23
-21.84
-23.38
-24.69
-25.79
-26.93
-28.56
-31.11
-34.74
-39.29
-44.28
-49.09
-53.16
-56.22
-58.41
-60.24
-62.52
-66.08
-71.44
-78.63
-87.09
-95.94
-104.37
-111.99
-118.92
-125.59
-132.39
-139.42
-146.51
-153.44
-160.21
-166.82
-172.78
-176.67
-175.99
-167.80
-149.74
-121.00
-82.59
-36.78
13.77
66.71
119.94
171.18
217.67
256.37
284.96
302.78
311.33
313.63
313.03
311.98
311.57
311.87
312.62
314.02
316.77
321.63
328.73
337.01
344.09
346.82
342.06
327.68
303.29
270.30
231.26
188.84
144.79
99.40
51.82
1.19
-52.01
-105.19
-153.92
-193.30
-219.75
-232.43
-233.35
-226.46
-215.89
-204.54
-193.46
-182.41
-170.88
-158.96
-147.51
-137.61
-129.78
-123.62
-117.94
-111.45
-103.40
-93.97
-84.10
-75.05
-67.74
-62.42
-58.56
-55.19
-51.30
-46.34
-40.37
-34.01
-28.11
-23.37
-20.03
-17.85
-16.24
-14.62
-12.62
-10.25
-7.78
-5.59
-3.90
-2.76
-2.01
-1.44
-0.91
-0.38
0.06
0.31
0.30
0.06
-0.28
-0.53
-0.53
-0.22
0.36
1.03
1.58
1.83
1.76
1.45
1.07
0.75
0.57
0.51
0.49
0.46
0.38
0.26
0.11
-0.05
-0.21
-0.35
-0.39
-0.32
-0.13
0.11
0.30
0.37
0.29
0.13
-0.05
-0.19
-0.28
-0.32
-0.32
-0.22
0.03
0.45
1.00
1.57
2.06
2.37
2.48
2.38
2.08
1.63
1.05
0.43
-0.12
-0.53
-0.74
-0.82
-0.84
-0.91
-1.04
-1.18
-1.28
-1.27
-1.16
-1.01
-0.90
-0.88
-0.94
-1.05
-1.17
-1.28
-1.39
-1.50
-1.58
-1.55
-1.36
-1.00
-0.53
-0.05
0.30
0.47
0.50
0.49
0.57
0.89
1.46
2.25
3.06
3.67
3.83
3.43
2.53
1.37
0.25
-0.56
-0.96
-1.01
-0.85
-0.64
-0.43
-0.20
0.08
0.40
0.65
0.73
0.55
0.13
-0.44
-1.01
-1.44
-1.63
-1.56
-1.28
-0.87
-0.46
-0.11
0.15
0.29
0.35
0.34
0.30
0.26
0.27
0.37
0.59
0.93
1.34
1.73
2.00
2.09
1.95
1.62
1.16
0.70
0.34
0.11
-0.01
-0.14
-0.37
-0.73
-1.14
-1.46
-1.58
-1.47
-1.24
-1.06
-1.04
-1.20
-1.44
-1.60
-1.56
-1.32
-0.94
-0.54
-0.24
-0.09
-0.11
-0.25
-0.37
-0.32
0.05
0.79
1.83
2.96
3.87
4.34
4.24
3.61
2.63
1.54
0.54
-0.26
-0.81
-1.16
-1.36
-1.47
-1.53
-1.56
-1.54
-1.46
-1.36
-1.30
-1.34
-1.50
-1.70
-1.86
-1.87
-1.68
-1.33
-0.93
-0.58
-0.36
-0.29
-0.33
-0.40
-0.47
-0.49
-0.37
-0.05
0.54
1.34
2.19
2.85
3.07
2.78
2.05
1.17
0.40
-0.06
-0.20
-0.16
-0.12
-0.19
-0.39
-0.62
-0.78
-0.77
-0.61
-0.34
-0.08
0.10
0.13
0.04
-0.12
-0.25
-0.26
-0.15
0.03
0.18
0.20
0.07
-0.16
-0.43
-0.66
-0.82
-0.94
-1.01
-0.99
-0.79
-0.29
0.50
1.45
2.25
2.60
2.38
1.68
0.86
0.32
0.29
0.77
1.42
1.85
1.76
1.12
0.15
-0.80
-1.44
-1.68
-1.59
-1.35
-1.15
-1.09
-1.14
-1.21
-1.18
-1.02
-0.74
-0.47
-0.31
-0.35
-0.53
-0.72
-0.77
-0.57
-0.13
0.47
1.10
1.67
2.17
2.60
2.90
2.95
2.60
1.80
0.61
-0.70
-1.83
-2.50
-2.61
-2.22
-1.52
-0.76
-0.14
0.20
0.25
0.05
-0.27
-0.57
-0.75
-0.75
-0.60
-0.37
-0.14
0.03
0.09
0.02
-0.15
-0.39
-0.63
-0.81
-0.87
-0.81
-0.67
-0.55
-0.53
-0.63
-0.76
-0.73
-0.38
0.38
1.43
2.51
3.27
3.44
2.99
2.10
1.10
0.31
-0.14
-0.33
-0.41
-0.52
-0.69
-0.81
-0.73
-0.37
0.22
0.82
1.16
1.05
0.46
-0.46
-1.45
-2.23
-2.64
-2.64
-2.32
-1.82
-1.25
-0.69
-0.20
0.16
0.29
0.18
-0.11
-0.41
-0.50
-0.18
0.56
1.57
2.56
3.20
3.34
2.95
2.23
1.41
0.69
0.17
-0.21
-0.50
-0.77
-1.00
-1.15
-1.19
-1.14
-1.10
-1.14
-1.30
-1.52
-1.69
-1.71
-1.51
-1.15
-0.72
-0.34
-0.06
0.12
0.24
0.35
0.47
0.57
0.63
0.68
0.82
1.19
1.87
2.77
3.67
4.23
4.20
3.51
2.36
1.08
0.01
-0.69
-1.02
-1.15
-1.21
-1.26
-1.22
-0.99
-0.54
0.00
0.43
0.54
0.30
-0.18
-0.67
-0.98
-1.04
-0.96
-0.91
-0.98
-1.17
-1.38
-1.47
-1.39
-1.18
-0.96
-0.84
-0.86
-0.94
-0.92
-0.65
-0.05
0.81
1.76
2.54
2.92
2.81
2.27
1.47
0.60
-0.23
-0.98
-1.65
-2.19
-2.48
-2.42
-1.97
-1.26
-0.54
-0.08
-0.03
-0.36
-0.87
-1.32
-1.55
-1.51
-1.28
-0.98
-0.72
-0.53
-0.41
-0.27
-0.04
0.40
1.09
2.02
3.09
4.04
4.63
4.65
4.06
2.99
1.68
0.39
-0.65
-1.35
-1.69
-1.70
-1.46
-1.03
-0.52
-0.03
0.34
0.51
0.45
0.20
-0.15
-0.51
-0.78
-0.89
-0.84
-0.70
-0.57
-0.57
-0.73
-1.02
-1.31
-1.45
-1.41
-1.23
-1.06
-1.02
-1.19
-1.50
-1.76
-1.73
-1.23
-0.26
1.05
2.38
3.42
3.93
3.84
3.24
2.34
1.34
0.36
-0.54
-1.32
-1.92
-2.23
-2.17
-1.76
-1.14
-0.57
-0.28
-0.35
-0.71
-1.13
-1.41
-1.43
-1.24
-0.94
-0.67
-0.49
-0.41
-0.34
-0.22
-0.02
0.25
0.53
0.77
0.98
1.20
1.51
1.96
2.57
3.27
3.91
4.33
4.41
4.09
3.44
2.59
1.71
0.94
0.33
-0.13
-0.50
-0.80
-1.08
-1.30
-1.38
-1.32
-1.13
-0.88
-0.69
-0.67
-0.85
-1.21
-1.65
-2.06
-2.32
-2.41
-2.33
-2.17
-2.01
-1.92
-1.91
-1.94
-1.98
-1.95
-1.80
-1.43
-0.78
0.14
1.22
2.21
2.85
2.98
2.60
1.95
1.33
0.98
0.94
1.09
1.20
1.12
0.84
0.48
0.21
0.14
0.26
0.43
0.54
0.48
0.27
-0.01
-0.25
-0.40
-0.48
-0.56
-0.71
-0.95
-1.23
-1.46
-1.55
-1.50
-1.32
-1.06
-0.78
-0.51
-0.27
-0.08
0.05
0.14
0.25
0.48
0.84
1.27
1.62
1.71
1.48
0.99
0.42
-0.01
-0.20
-0.17
-0.04
0.08
0.16
0.24
0.37
0.53
0.63
0.55
0.23
-0.28
-0.85
-1.29
-1.50
-1.48
-1.31
-1.13
-1.04
-1.08
-1.20
-1.34
-1.40
-1.32
-1.09
-0.75
-0.39
-0.06
0.22
0.51
0.87
1.36
1.93
2.48
2.84
2.90
2.65
2.17
1.63
1.15
0.81
0.63
0.56
0.57
0.64
0.73
0.83
0.86
0.76
0.53
0.19
-0.16
-0.39
-0.42
-0.25
0.03
0.26
0.31
0.11
-0.32
-0.86
-1.37
-1.73
-1.91
-1.90
-1.77
-1.56
-1.33
-1.17
-1.10
-1.14
-1.20
-1.14
-0.80
-0.14
0.74
1.57
2.06
2.00
1.41
0.53
-0.32
-0.85
-0.97
-0.76
-0.42
-0.09
0.14
0.31
0.44
0.55
0.55
0.40
0.05
-0.45
-0.96
-1.36
-1.57
-1.59
-1.48
-1.32
-1.15
-0.98
-0.82
-0.65
-0.46
-0.27
-0.11
0.02
0.14
0.29
0.48
0.70
0.94
1.14
1.31
1.43
1.54
1.61
1.65
1.62
1.52
1.36
1.11
0.76
0.27
-0.34
-1.01
-1.57
-1.86
-1.78
-1.36
-0.77
-0.22
0.12
0.18
0.04
-0.20
-0.47
-0.76
-1.07
-1.41
-1.71
-1.85
-1.75
-1.37
-0.78
-0.15
0.35
0.61
0.62
0.48
0.35
0.42
0.83
1.57
2.50
3.38
3.90
3.87
3.28
2.32
1.28
0.43
-0.09
-0.34
-0.46
-0.56
-0.68
-0.76
-0.75
-0.64
-0.49
-0.44
-0.53
-0.74
-0.95
-1.02
-0.92
-0.71
-0.54
-0.52
-0.70
-1.01
-1.31
-1.47
-1.44
-1.23
-0.95
-0.67
-0.47
-0.30
-0.09
0.26
0.78
1.43
2.07
2.55
2.75
2.67
2.34
1.83
1.23
0.56
-0.15
-0.82
-1.34
-1.61
-1.58
-1.33
-1.00
-0.80
-0.84
-1.13
-1.54
-1.90
-2.04
-1.89
-1.45
-0.83
-0.19
0.34
0.66
0.74
0.63
0.42
0.23
0.15
0.24
0.50
0.91
1.35
1.70
1.86
1.75
1.37
0.79
0.15
-0.41
-0.77
-0.84
-0.63
-0.19
0.32
0.74
0.94
0.87
0.61
0.30
0.08
-0.01
0.01
0.05
0.03
-0.06
-0.16
-0.23
-0.26
-0.30
-0.38
-0.51
-0.65
-0.70
-0.62
-0.43
-0.19
-0.00
0.04
-0.08
-0.31
-0.54
-0.64
-0.52
-0.16
0.36
0.90
1.28
1.39
1.17
0.70
0.10
-0.47
-0.90
-1.14
-1.17
-1.01
-0.72
-0.34
0.03
0.30
0.39
0.25
-0.09
-0.54
-1.00
-1.38
-1.60
-1.66
-1.58
-1.41
-1.22
-1.07
-1.00
-0.99
-1.00
-0.96
-0.83
-0.62
-0.38
-0.19
-0.07
0.02
0.18
0.47
0.90
1.37
1.75
1.94
1.90
1.69
1.43
1.17
0.99
0.88
0.87
0.94
1.11
1.33
1.55
1.69
1.66
1.44
1.04
0.55
0.07
-0.33
-0.60
-0.76
-0.86
-0.96
-1.06
-1.16
-1.23
-1.26
-1.25
-1.24
-1.24
-1.22
-1.11
-0.85
-0.41
0.17
0.83
1.48
2.05
2.50
2.81
2.97
2.98
2.82
2.51
2.04
1.39
0.58
-0.34
-1.25
-2.03
-2.52
-2.65
-2.43
-1.94
-1.31
-0.68
-0.17
0.14
0.22
0.06
-0.29
-0.73
-1.13
-1.38
-1.40
-1.21
-0.91
-0.61
-0.44
-0.44
-0.58
-0.77
-0.90
-0.92
-0.77
-0.49
-0.07
0.48
1.15
1.88
2.57
3.07
3.21
2.95
2.37
1.66
1.09
0.82
0.86
1.05
1.14
0.96
0.44
-0.29
-1.06
-1.69
-2.11
-2.31
-2.37
-2.33
-2.20
-1.97
-1.62
-1.19
-0.78
-0.51
-0.45
-0.64
-0.98
-1.34
-1.53
-1.38
-0.81
0.12
1.21
2.17
2.71
2.69
2.12
1.21
0.26
-0.45
-0.78
-0.73
-0.41
0.01
0.39
0.67
0.82
0.85
0.77
0.60
0.38
0.17
0.01
-0.07
-0.07
-0.03
0.01
-0.01
-0.13
-0.39
-0.75
-1.14
-1.44
-1.53
-1.34
-0.91
-0.36
0.13
0.42
0.43
0.16
-0.27
-0.71
-0.97
-0.87
-0.32
0.65
1.84
2.95
3.65
3.73
3.21
2.26
1.19
0.29
-0.28
-0.53
-0.56
-0.48
-0.37
-0.24
-0.11
-0.01
-0.01
-0.16
-0.47
-0.86
-1.20
-1.38
-1.34
-1.11
-0.79
-0.47
-0.22
-0.07
-0.01
0.01
-0.00
-0.04
-0.07
-0.09
-0.05
0.05
0.22
0.41
0.62
0.83
1.05
1.28
1.51
1.67
1.68
1.50
1.16
0.75
0.39
0.16
0.08
0.10
0.18
0.25
0.28
0.25
0.13
-0.08
-0.40
-0.79
-1.17
-1.48
-1.65
-1.69
-1.65
-1.55
-1.43
-1.27
-1.07
-0.83
-0.60
-0.42
-0.36
-0.42
-0.57
-0.76
-0.91
-0.96
-0.85
-0.54
0.02
0.81
1.70
2.46
2.80
2.52
1.61
0.28
-1.08
-2.10
-2.55
-2.40
-1.81
-1.01
-0.18
0.54
1.09
1.44
1.53
1.37
0.96
0.40
-0.17
-0.61
-0.79
-0.67
-0.30
0.18
0.58
0.77
0.69
0.39
-0.01
-0.40
-0.70
-0.83
-0.76
-0.43
0.18
0.97
1.76
2.29
2.32
1.78
0.82
-0.27
-1.15
-1.63
-1.68
-1.42
-1.01
-0.61
-0.31
-0.12
-0.06
-0.13
-0.38
-0.78
-1.29
-1.79
-2.11
-2.13
-1.78
-1.14
-0.36
0.34
0.78
0.89
0.71
0.38
0.08
-0.03
0.19
0.75
1.61
2.57
3.35
3.70
3.44
2.60
1.38
0.07
-1.04
-1.78
-2.08
-1.97
-1.50
-0.79
-0.01
0.64
0.98
0.94
0.60
0.17
-0.14
-0.20
-0.06
0.11
0.17
0.02
-0.31
-0.69
-1.00
-1.14
-1.10
-0.93
-0.70
-0.49
-0.35
-0.28
-0.29
-0.36
-0.50
-0.66
-0.74
-0.62
-0.19
0.54
1.39
2.10
2.42
2.22
1.57
0.71
-0.08
-0.64
-0.94
-1.09
-1.21
-1.35
-1.43
-1.36
-1.08
-0.68
-0.31
-0.13
-0.20
-0.42
-0.65
-0.76
-0.71
-0.54
-0.35
-0.19
-0.06
0.07
0.21
0.33
0.38
0.36
0.28
0.24
0.29
0.46
0.69
0.92
1.13
1.28
1.37
1.39
1.30
1.04
0.60
-0.01
-0.69
-1.32
-1.74
-1.82
-1.50
-0.85
-0.03
0.77
1.35
1.62
1.56
1.20
0.64
-0.01
-0.64
-1.14
-1.41
-1.42
-1.17
-0.75
-0.28
0.14
0.38
0.42
0.24
-0.05
-0.35
-0.51
-0.48
-0.27
0.02
0.25
0.37
0.41
0.48
0.69
1.04
1.42
1.67
1.69
1.46
1.09
0.70
0.41
0.24
0.15
0.08
-0.03
-0.19
-0.38
-0.55
-0.69
-0.79
-0.88
-0.95
-1.02
-1.08
-1.12
-1.15
-1.19
-1.26
-1.37
-1.51
-1.63
-1.68
-1.61
-1.40
-1.09
-0.72
-0.35
-0.02
0.28
0.60
1.02
1.63
2.43
3.29
4.00
4.31
4.11
3.45
2.55
1.67
1.00
0.57
0.26
-0.01
-0.31
-0.57
-0.70
-0.66
-0.53
-0.44
-0.51
-0.79
-1.21
-1.68
-2.09
-2.35
-2.40
-2.21
-1.82
-1.29
-0.78
-0.42
-0.28
-0.29
-0.32
-0.21
0.12
0.62
1.15
1.61
1.94
2.17
2.36
2.50
2.51
2.29
1.77
1.00
0.12
-0.66
-1.18
-1.37
-1.26
-0.98
-0.68
-0.47
-0.40
-0.43
-0.49
-0.53
-0.52
-0.50
-0.51
-0.57
-0.64
-0.70
-0.73
-0.74
-0.75
-0.78
-0.79
-0.77
-0.72
-0.66
-0.65
-0.66
-0.62
-0.42
0.02
0.70
1.47
2.17
2.65
2.83
2.75
2.50
2.19
1.88
1.60
1.33
1.02
0.64
0.16
-0.37
-0.90
-1.37
-1.73
-1.94
-2.02
-1.97
-1.84
-1.66
-1.44
-1.20
-0.96
-0.77
-0.66
-0.68
-0.83
-1.08
-1.32
-1.43
-1.29
-0.87
-0.21
0.60
1.45
2.23
2.86
3.23
3.29
2.99
2.37
1.52
0.58
-0.29
-0.97
-1.38
-1.46
-1.21
-0.69
-0.03
0.57
0.93
0.90
0.49
-0.19
-0.94
-1.52
-1.81
-1.79
-1.56
-1.26
-1.03
-0.92
-0.91
-0.96
-1.01
-1.06
-1.11
-1.15
-1.13
-1.01
-0.77
-0.42
-0.02
0.39
0.78
1.20
1.69
2.23
2.73
3.02
2.98
2.56
1.87
1.08
0.39
-0.06
-0.23
-0.16
0.05
0.32
0.58
0.76
0.83
0.74
0.46
0.03
-0.48
-0.94
-1.24
-1.31
-1.16
-0.87
-0.57
-0.39
-0.41
-0.62
-0.93
-1.23
-1.39
-1.34
-1.05
-0.51
0.20
1.02
1.80
2.39
2.66
2.53
2.05
1.36
0.65
0.07
-0.31
-0.54
-0.68
-0.81
-0.92
-1.00
-1.05
-1.09
-1.16
-1.30
-1.49
-1.66
-1.72
-1.59
-1.26
-0.79
-0.32
0.03
0.19
0.13
-0.08
-0.34
-0.53
-0.58
-0.46
-0.18
0.25
0.82
1.51
2.25
2.85
3.11
2.85
2.05
0.91
-0.23
-1.05
-1.34
-1.10
-0.52
0.13
0.64
0.90
0.90
0.74
0.47
0.13
-0.24
-0.63
-0.98
-1.19
-1.18
-0.91
-0.45
0.03
0.38
0.50
0.41
0.22
0.04
-0.05
-0.05
-0.06
-0.15
-0.36
-0.68
-1.05
-1.39
-1.58
-1.54
-1.19
-0.52
0.37
1.28
1.93
2.13
1.82
1.14
0.35
-0.30
-0.64
-0.70
-0.64
-0.65
-0.82
-1.11
-1.40
-1.54
-1.50
-1.35
-1.21
-1.17
-1.25
-1.39
-1.48
-1.48
-1.38
-1.20
-1.01
-0.84
-0.71
-0.59
-0.46
-0.28
-0.06
0.24
0.64
1.22
2.04
3.07
4.16
5.03
5.36
4.95
3.87
2.43
1.11
0.24
-0.04
0.09
0.36
0.50
0.48
0.37
0.30
0.33
0.35
0.26
-0.04
-0.50
-1.00
-1.39
-1.58
-1.59
-1.51
-1.44
-1.44
-1.53
-1.68
-1.85
-1.95
-1.95
-1.83
-1.58
-1.23
-0.84
-0.44
-0.08
0.24
0.47
0.60
0.63
0.60
0.57
0.60
0.73
0.93
1.15
1.32
1.42
1.47
1.50
1.49
1.42
1.18
0.75
0.16
-0.47
-0.99
-1.28
-1.33
-1.23
-1.08
-0.97
-0.91
-0.86
-0.76
-0.59
-0.40
-0.26
-0.22
-0.28
-0.42
-0.55
-0.61
-0.55
-0.33
0.07
0.59
1.17
1.67
1.96
1.95
1.67
1.27
0.93
0.79
0.89
1.10
1.25
1.18
0.85
0.34
-0.18
-0.57
-0.76
-0.77
-0.71
-0.69
-0.78
-1.01
-1.32
-1.63
-1.87
-1.98
-1.96
-1.84
-1.66
-1.47
-1.26
-1.03
-0.76
-0.46
-0.12
0.22
0.57
0.92
1.28
1.67
2.08
2.46
2.76
2.90
2.85
2.59
2.15
1.60
1.03
0.52
0.11
-0.16
-0.29
-0.30
-0.23
-0.16
-0.14
-0.24
-0.45
-0.72
-0.96
-1.10
-1.12
-1.04
-0.93
-0.85
-0.85
-0.93
-1.07
-1.24
-1.42
-1.61
-1.79
-1.92
-1.91
-1.72
-1.32
-0.77
-0.15
0.50
1.16
1.84
2.49
2.99
3.18
2.94
2.27
1.37
0.53
-0.01
-0.19
-0.11
0.06
0.15
0.13
0.06
0.01
0.00
-0.01
-0.11
-0.31
-0.61
-0.92
-1.17
-1.32
-1.36
-1.32
-1.23
-1.12
-1.03
-0.99
-0.99
-0.97
-0.87
-0.63
-0.23
0.33
1.01
1.76
2.47
2.99
3.21
3.05
2.55
1.80
0.99
0.23
-0.38
-0.83
-1.14
-1.34
-1.44
-1.47
-1.44
-1.35
-1.21
-1.02
-0.77
-0.54
-0.40
-0.43
-0.66
-1.02
-1.38
-1.62
-1.67
-1.54
-1.29
-0.97
-0.60
-0.17
0.35
0.92
1.51
2.03
2.43
2.67
2.74
2.65
2.39
1.98
1.44
0.85
0.31
-0.08
-0.25
-0.22
-0.03
0.18
0.32
0.29
0.09
-0.26
-0.66
-1.06
-1.40
-1.67
-1.89
-2.06
-2.14
-2.08
-1.84
-1.43
-0.92
-0.45
-0.12
0.03
0.07
0.11
0.29
0.63
1.09
1.55
1.94
2.22
2.39
2.48
2.46
2.33
2.06
1.70
1.31
0.94
0.60
0.26
-0.13
-0.57
-1.02
-1.41
-1.71
-1.93
-2.10
-2.24
-2.31
-2.26
-2.07
-1.79
-1.51
-1.31
-1.18
-1.06
-0.87
-0.58
-0.23
0.10
0.32
0.41
0.42
0.42
0.48
0.65
0.96
1.42
1.98
2.54
2.94
3.00
2.65
1.94
1.08
0.31
-0.20
-0.43
-0.47
-0.46
-0.49
-0.57
-0.66
-0.73
-0.79
-0.91
-1.15
-1.49
-1.82
-2.02
-2.01
-1.79
-1.45
-1.10
-0.81
-0.61
-0.45
-0.30
-0.14
0.03
0.22
0.45
0.74
1.12
1.56
1.97
2.21
2.20
1.93
1.52
1.15
0.94
0.93
1.02
1.04
0.86
0.45
-0.08
-0.58
-0.92
-1.08
-1.08
-1.03
-0.97
-0.96
-0.98
-1.06
-1.19
-1.34
-1.48
-1.52
-1.42
-1.19
-0.86
-0.50
-0.18
0.09
0.29
0.44
0.58
0.78
1.09
1.51
1.96
2.32
2.44
2.25
1.78
1.19
0.64
0.24
-0.01
-0.18
-0.34
-0.53
-0.74
-0.93
-1.08
-1.17
-1.20
-1.18
-1.14
-1.10
-1.11
-1.16
-1.21
-1.22
-1.15
-1.01
-0.84
-0.70
-0.59
-0.48
-0.32
-0.08
0.20
0.47
0.71
0.95
1.24
1.64
2.10
2.47
2.60
2.37
1.83
1.13
0.50
0.10
-0.04
-0.03
-0.05
-0.21
-0.54
-0.96
-1.33
-1.55
-1.64
-1.65
-1.68
-1.77
-1.86
-1.88
-1.74
-1.42
-1.00
-0.61
-0.36
-0.28
-0.31
-0.33
-0.24
0.03
0.44
0.93
1.45
1.98
2.52
3.04
3.45
3.62
3.44
2.86
1.99
1.05
0.29
-0.11
-0.13
0.11
0.41
0.60
0.61
0.47
0.28
0.09
-0.10
-0.34
-0.66
-1.06
-1.50
-1.89
-2.18
-2.37
-2.50
-2.63
-2.74
-2.80
-2.70
-2.42
-1.94
-1.34
-0.69
-0.03
0.66
1.38
2.10
2.72
3.07
3.00
2.53
1.81
1.10
0.64
0.53
0.68
0.89
0.91
0.63
0.09
-0.53
-1.02
-1.24
-1.18
-0.97
-0.79
-0.77
-0.92
-1.18
-1.39
-1.46
-1.34
-1.09
-0.81
-0.58
-0.43
-0.34
-0.23
-0.02
0.34
0.85
1.45
2.08
2.60
2.92
2.93
2.63
2.09
1.48
0.97
0.66
0.56
0.59
0.61
0.53
0.33
0.04
-0.31
-0.68
-1.02
-1.35
-1.66
-1.97
-2.28
-2.57
-2.77
-2.84
-2.73
-2.46
-2.10
-1.76
-1.50
-1.31
-1.11
-0.81
-0.37
0.17
0.77
1.36
1.92
2.42
2.78
2.91
2.71
2.21
1.52
0.85
0.40
0.25
0.35
0.55
0.71
0.72
0.57
0.29
-0.05
-0.41
-0.76
-1.05
-1.24
-1.34
-1.39
-1.47
-1.64
-1.88
-2.12
-2.26
-2.22
-1.96
-1.49
-0.86
-0.13
0.58
1.18
1.60
1.83
1.92
1.99
2.10
2.30
2.52
2.70
2.76
2.68
2.44
2.05
1.51
0.82
0.04
-0.69
-1.21
-1.39
-1.23
-0.82
-0.36
-0.06
-0.01
-0.20
-0.53
-0.86
-1.09
-1.22
-1.32
-1.47
-1.72
-1.99
-2.19
-2.19
-1.96
-1.56
-1.12
-0.73
-0.41
-0.09
0.30
0.77
1.25
1.63
1.83
1.87
1.84
1.83
1.88
1.90
1.78
1.45
0.90
0.26
-0.33
-0.71
-0.82
-0.66
-0.33
0.03
0.27
0.29
0.07
-0.34
-0.82
-1.23
-1.52
-1.67
-1.74
-1.75
-1.69
-1.56
-1.34
-1.05
-0.73
-0.44
-0.19
0.02
0.20
0.42
0.70
1.07
1.50
1.90
2.17
2.23
2.03
1.60
1.03
0.44
-0.10
-0.50
-0.72
-0.73
-0.54
-0.20
0.16
0.40
0.42
0.24
-0.02
-0.22
-0.27
-0.22
-0.20
-0.33
-0.65
-1.05
-1.38
-1.50
-1.39
-1.13
-0.85
-0.64
-0.50
-0.36
-0.16
0.13
0.46
0.73
0.88
0.89
0.84
0.82
0.90
1.05
1.17
1.12
0.84
0.38
-0.13
-0.51
-0.64
-0.52
-0.20
0.19
0.52
0.69
0.65
0.41
-0.00
-0.49
-0.91
-1.14
-1.08
-0.73
-0.15
0.52
1.13
1.51
1.58
1.32
0.79
0.15
-0.41
-0.75
-0.84
-0.75
-0.60
-0.50
-0.49
-0.53
-0.54
-0.47
-0.33
-0.20
-0.12
-0.09
-0.05
0.05
0.24
0.47
0.61
0.58
0.36
0.03
-0.27
-0.43
-0.38
-0.19
0.03
0.16
0.16
0.08
0.03
0.08
0.26
0.53
0.77
0.87
0.78
0.49
0.07
-0.41
-0.89
-1.33
-1.74
-2.10
-2.41
-2.64
-2.79
-2.89
-2.97
-3.11
-3.39
-3.89
-4.68
-5.79
-7.19
-8.78
-10.40
-11.82
-12.84
-13.40
-13.64
-13.92
-14.71
-16.39
-19.06
-22.51
-26.23
-29.71
-32.59
-34.89
-36.97
-39.32
-42.36
-46.23
-50.78
-55.65
-60.55
-65.25
-69.79
-74.29
-78.93
-83.95
-89.72
-96.77
-105.41
-115.31
-125.18
-133.01
-136.96
-136.47
-132.83
-128.74
-127.01
-128.94
-133.52
-137.69
-137.64
-130.16
-113.44
-87.15
-51.98
-9.51
37.67
85.73
129.97
165.84
190.42
203.48
207.31
205.88
203.04
201.31
201.35
202.39
203.11
202.46
200.07
196.23
191.58
186.80
182.41
178.77
176.14
174.81
175.09
177.25
181.41
187.31
194.33
201.64
208.44
214.12
218.25
220.23
218.99
212.86
199.99
178.94
149.24
111.54
67.33
18.49
-33.00
-84.85
-134.14
-177.22
-210.27
-230.31
-236.39
-230.12
-215.20
-196.22
-177.17
-160.42
-146.66
-135.35
-125.62
-116.92
-109.11
-102.21
-96.15
-90.51
-84.71
-78.27
-71.11
-63.64
-56.52
-50.44
-45.73
-42.22
-39.35
-36.44
-33.03
-29.04
-24.84
-20.95
-17.82
-15.56
-13.93
-12.51
-10.94
-9.04
-6.96
-4.99
-3.42
-2.37
-1.79
-1.48
-1.21
-0.83
-0.32
0.25
0.77
1.18
1.44
1.56
1.55
1.40
1.06
0.53
-0.13
-0.76
-1.22
-1.37
-1.25
-0.95
-0.66
-0.50
-0.49
-0.59
-0.68
-0.67
-0.56
-0.36
-0.14
0.05
0.21
0.35
0.52
0.76
1.06
1.39
1.62
1.65
1.39
0.87
0.19
-0.46
-0.91
-1.07
-0.92
-0.55
-0.05
0.44
0.83
1.05
1.06
0.92
0.68
0.45
0.30
0.27
0.32
0.41
0.53
0.66
0.82
1.02
1.25
1.48
1.64
1.64
1.45
1.01
0.35
-0.46
-1.27
-1.94
-2.33
-2.34
-2.00
-1.39
-0.68
-0.05
0.34
0.40
0.20
-0.13
-0.44
-0.61
-0.65
-0.61
-0.58
-0.56
-0.47
-0.23
0.20
0.70
1.09
1.22
1.04
0.64
0.20
-0.11
-0.21
-0.13
0.05
0.27
0.49
0.68
0.84
0.93
0.94
0.83
0.64
0.40
0.19
0.03
-0.03
-0.03
-0.03
-0.08
-0.24
-0.51
-0.82
-1.03
-1.08
-0.96
-0.78
-0.66
-0.71
-0.90
-1.14
-1.31
-1.32
-1.18
-0.98
-0.83
-0.80
-0.90
-1.06
-1.17
-1.14
-0.89
-0.42
0.25
1.03
1.81
2.49
3.02
3.39
3.58
3.59
3.37
2.89
2.15
1.23
0.29
-0.52
-1.09
-1.39
-1.43
-1.30
-1.03
-0.69
-0.32
-0.01
0.16
0.14
-0.03
-0.24
-0.39
-0.40
-0.30
-0.18
-0.13
-0.19
-0.32
-0.45
-0.50
-0.45
-0.31
-0.14
0.02
0.16
0.26
0.31
0.35
0.44
0.66
1.09
1.69
2.29
2.65
2.58
2.04
1.17
0.24
-0.46
-0.78
-0.72
-0.44
-0.13
0.06
0.08
-0.07
-0.37
-0.77
-1.20
-1.62
-1.92
-2.06
-2.00
-1.78
-1.46
-1.14
-0.89
-0.76
-0.78
-0.92
-1.14
-1.35
-1.48
