1660938186.00
64.000000
-0.00
-0.00
-0.00
-0.00
-0.00
-0.00
-0.00
-0.00
-0.00
-0.00
0.00
0.01
0.01
-0.00
-0.03
-0.05
-0.05
0.00
0.13
0.36
0.66
1.01
1.37
1.72
2.06
2.40
2.79
3.25
3.81
4.44
5.10
5.73
6.32
6.90
7.52
8.25
9.15
10.28
11.53
12.78
13.91
14.88
15.77
16.78
18.13
19.96
22.48
25.45
28.58
31.57
34.31
36.91
39.73
43.23
47.72
53.51
60.19
67.19
73.95
80.19
86.13
92.38
99.68
108.52
119.27
131.25
143.53
155.23
165.98
176.11
186.54
198.74
211.29
226.12
243.43
263.01
283.67
302.78
316.56
320.88
312.60
290.68
256.95
214.58
167.38
118.50
69.91
22.51
-23.16
-66.53
-107.03
-144.14
-178.44
-211.23
-244.22
-278.79
-315.03
-351.20
-383.70
-408.15
-420.59
-419.24
-405.17
-381.88
-353.93
-325.28
-298.11
-272.82
-248.87
-225.64
-203.28
-182.48
-163.94
-147.74
-133.29
-119.57
-105.77
-91.67
-77.68
-64.61
-53.21
-43.79
-36.05
-29.32
-22.85
-16.21
-9.38
-2.75
3.12
7.81
11.22
13.58
15.37
17.07
18.99
21.16
23.33
25.19
26.45
27.01
27.01
26.72
26.42
26.27
26.28
26.30
26.15
25.68
24.87
23.80
22.63
21.53
20.62
19.94
19.46
19.11
18.80
18.46
18.03
17.50
16.90
16.30
15.76
15.32
14.94
14.57
14.13
13.59
12.97
12.38
11.92
11.64
11.52
11.46
11.36
11.15
10.84
10.49
10.17
9.89
9.65
9.38
9.07
8.71
8.32
7.97
7.68
7.49
7.42
7.45
7.52
7.54
7.41
7.08
6.59
6.02
5.52
5.16
4.94
4.75
4.49
4.08
3.53
2.94
2.40
1.99
1.72
1.54
1.35
1.08
0.63
0.01
-0.76
-1.61
-2.44
-3.18
-3.80
-4.30
-4.69
-5.00
-5.26
-5.53
-5.90
-6.40
-7.06
-7.82
-8.55
-9.14
-9.52
-9.71
-9.75
-9.70
-9.57
-9.33
-8.94
-8.39
-7.74
-7.06
-6.43
-5.87
-5.36
-4.83
-4.24
-3.58
-2.89
-2.23
-1.65
-1.15
-0.73
-0.36
-0.03
0.26
0.48
0.65
0.82
1.04
1.35
1.73
2.11
2.40
2.55
2.59
2.58
2.62
2.77
3.02
3.31
3.56
3.70
3.74
3.69
3.59
3.49
3.43
3.44
3.53
3.69
3.90
4.11
4.30
4.45
4.53
4.57
4.55
4.50
4.46
4.45
4.48
4.55
4.62
4.64
4.56
4.39
4.21
4.08
4.04
4.07
4.11
4.07
3.90
3.59
3.21
2.83
2.52
2.35
2.35
2.51
2.79
3.11
3.37
3.47
3.39
3.14
2.79
2.46
2.19
2.00
1.84
1.68
1.49
1.33
1.25
1.28
1.39
1.51
1.56
1.52
1.41
1.30
1.24
1.26
1.33
1.44
1.58
1.74
1.88
1.91
1.79
1.50
1.10
0.76
0.62
0.77
1.15
1.64
2.08
2.36
2.43
2.33
2.11
1.83
1.53
1.24
1.01
0.89
0.92
1.09
1.35
1.61
1.77
1.76
1.57
1.27
0.95
0.73
0.67
0.77
0.93
1.04
1.00
0.83
0.57
0.34
0.21
0.17
0.18
0.16
0.12
0.11
0.22
0.47
0.75
0.92
0.87
0.63
0.38
0.31
0.53
0.96
1.39
1.61
1.52
1.24
0.95
0.82
0.87
1.03
1.17
1.19
1.09
0.94
0.81
0.75
0.72
0.70
0.64
0.51
0.31
0.08
-0.11
-0.21
-0.18
-0.04
0.18
0.37
0.48
0.50
0.44
0.37
0.34
0.40
0.52
0.67
0.80
0.88
0.90
0.89
0.89
0.91
0.92
0.89
0.79
0.64
0.50
0.46
0.56
0.76
0.96
1.03
0.89
0.59
0.23
-0.02
-0.06
0.08
0.29
0.44
0.45
0.35
0.24
0.23
0.34
0.53
0.68
0.73
0.66
0.52
0.38
0.27
0.17
0.06
-0.08
-0.24
-0.37
-0.41
-0.34
-0.17
0.06
0.27
0.41
0.46
0.45
0.44
0.49
0.63
0.84
1.02
1.05
0.89
0.58
0.25
0.05
0.06
0.27
0.56
0.78
0.81
0.64
0.35
0.08
-0.04
0.04
0.28
0.58
0.86
1.04
1.12
1.11
1.04
0.93
0.80
0.67
0.55
0.44
0.36
0.27
0.17
0.05
-0.10
-0.27
-0.44
-0.58
-0.66
-0.63
-0.49
-0.30
-0.12
-0.02
-0.06
-0.18
-0.33
-0.42
-0.41
-0.32
-0.18
-0.04
0.06
0.08
0.04
-0.05
-0.14
-0.15
-0.03
0.21
0.52
0.79
0.92
0.89
0.72
0.51
0.33
0.23
0.21
0.22
0.23
0.23
0.24
0.29
0.41
0.59
0.81
1.00
1.07
0.97
0.71
0.36
0.02
-0.21
-0.28
-0.23
-0.15
-0.13
-0.22
-0.39
-0.51
-0.48
-0.24
0.18
0.65
1.00
1.13
1.03
0.79
0.52
0.30
0.15
0.04
-0.09
-0.24
-0.38
-0.45
-0.44
-0.38
-0.35
-0.40
-0.51
-0.60
-0.58
-0.46
-0.29
-0.21
-0.27
-0.45
-0.63
-0.67
-0.50
-0.16
0.23
0.53
0.65
0.59
0.42
0.23
0.08
-0.04
-0.16
-0.34
-0.63
-0.99
-1.38
-1.73
-2.00
-2.16
-2.28
-2.43
-2.65
-2.98
-3.42
-3.91
-4.43
-4.90
-5.29
-5.52
-5.54
-5.32
-4.89
-4.39
-4.04
-4.05
-4.58
-5.64
-7.06
-8.58
-9.93
-10.97
-11.80
-12.68
-13.97
-15.90
-18.46
-21.37
-24.14
-26.25
-27.38
-27.54
-27.08
-26.61
-26.75
-27.93
-30.19
-33.30
-36.83
-40.48
-44.24
-48.49
-53.75
-60.49
-68.71
-77.94
-87.29
-95.93
-103.36
-109.72
-115.72
-122.37
-130.64
-141.21
-154.34
-169.67
-186.05
-201.37
-212.64
-216.56
-210.42
-192.92
-164.63
-127.56
-84.26
-36.77
13.73
66.42
119.89
171.40
217.16
253.52
278.52
292.81
299.38
302.11
304.16
306.90
309.97
312.24
313.09
313.06
313.64
316.41
322.04
329.80
337.68
342.96
342.94
335.67
320.21
296.84
266.74
231.56
192.96
152.05
109.18
63.93
15.64
-35.67
-88.48
-139.51
-184.23
-218.27
-239.00
-246.47
-243.29
-233.48
-220.83
-207.74
-194.94
-182.20
-169.27
-156.56
-144.98
-135.35
-127.74
-121.32
-114.82
-107.16
-98.07
-88.09
-78.38
-70.02
-63.55
-58.73
-54.78
-50.77
-46.08
-40.64
-34.90
-29.55
-25.13
-21.88
-19.61
-17.91
-16.30
-14.44
-12.23
-9.76
-7.31
-5.13
-3.44
-2.30
-1.61
-1.19
-0.83
-0.42
0.04
0.47
0.72
0.74
0.53
0.21
-0.08
-0.21
-0.12
0.17
0.52
0.81
0.90
0.75
0.41
0.04
-0.18
-0.09
0.30
0.88
1.46
1.83
1.90
1.69
1.32
0.90
0.54
0.27
0.09
-0.04
-0.12
-0.18
-0.26
-0.38
-0.52
-0.64
-0.67
-0.54
-0.25
0.14
0.51
0.77
0.86
0.75
0.50
0.17
-0.17
-0.45
-0.61
-0.63
-0.50
-0.27
-0.04
0.09
0.05
-0.15
-0.44
-0.67
-0.74
-0.61
-0.34
-0.05
0.17
0.27
0.30
0.36
0.52
0.80
1.13
1.38
1.44
1.24
0.78
0.15
-0.56
-1.28
-1.92
-2.43
-2.77
-2.90
-2.82
-2.60
-2.32
-2.06
-1.86
-1.71
-1.54
-1.30
-1.01
-0.72
-0.53
-0.53
-0.73
-1.03
-1.27
-1.24
-0.82
0.01
1.08
2.17
3.00
3.38
3.24
2.65
1.79
0.81
-0.16
-1.06
-1.86
-2.50
-2.88
-2.93
-2.63
-2.03
-1.29
-0.61
-0.16
-0.05
-0.27
-0.70
-1.18
-1.49
-1.45
-0.95
-0.02
1.21
2.51
3.66
4.54
5.13
5.52
5.81
6.05
6.29
6.52
6.73
6.88
6.93
6.78
6.37
5.70
4.84
3.90
3.00
2.20
1.47
0.72
-0.17
-1.28
-2.58
-4.00
-5.42
-6.70
-7.75
-8.46
-8.81
-8.78
-8.44
-7.85
-7.09
-6.26
-5.47
-4.80
-4.27
-3.82
-3.28
-2.43
-1.04
1.01
3.61
6.45
9.04
10.88
11.66
11.32
10.09
8.38
6.59
4.99
3.69
2.66
1.78
0.99
0.26
-0.39
-0.95
-1.48
-2.04
-2.69
-3.41
-4.16
-4.84
-5.38
-5.79
-6.12
-6.44
-6.79
-7.17
-7.54
-7.84
-8.07
-8.25
-8.42
-8.61
-8.84
-9.11
-9.35
-9.47
-9.33
-8.81
-7.82
-6.36
-4.52
-2.43
-0.20
2.10
4.41
6.68
8.78
10.57
11.92
12.79
13.20
13.28
13.12
12.81
12.42
11.98
11.54
11.15
10.79
10.41
9.94
9.32
8.54
7.66
6.80
6.09
5.62
5.43
5.45
5.57
5.60
5.35
4.68
3.50
1.85
-0.14
-2.26
-4.26
-5.95
-7.24
-8.14
-8.75
-9.17
-9.45
-9.57
-9.49
-9.21
-8.79
-8.38
-8.12
-8.09
-8.25
-8.48
-8.65
-8.73
-8.77
-8.92
-9.27
-9.85
-10.56
-11.21
-11.63
-11.77
-11.66
-11.44
-11.25
-11.23
-11.50
-12.15
-13.16
-14.37
-15.37
-15.52
-14.22
-11.05
-6.06
0.21
6.87
13.01
17.96
21.42
23.47
24.38
24.44
23.85
22.73
21.20
19.37
17.41
15.52
13.85
12.51
11.52
10.81
10.28
9.80
9.28
8.70
8.15
7.76
7.67
7.92
8.48
9.23
9.99
10.54
10.62
9.96
8.31
5.61
2.05
-1.95
-5.82
-9.07
-11.46
-12.98
-13.81
-14.15
-14.14
-13.81
-13.22
-12.50
-11.86
-11.49
-11.47
-11.72
-12.04
-12.24
-12.23
-12.02
-11.75
-11.50
-11.29
-11.05
-10.62
-9.82
-8.51
-6.63
-4.30
-1.78
0.55
2.34
3.41
3.82
3.86
3.98
4.56
5.78
7.54
9.52
11.28
12.47
12.94
12.72
11.98
10.95
9.83
8.69
7.53
6.26
4.78
3.09
1.22
-0.67
-2.39
-3.75
-4.60
-4.93
-4.84
-4.50
-4.08
-3.67
-3.26
-2.79
-2.17
-1.40
-0.58
0.22
0.88
1.39
1.77
2.05
2.24
2.36
2.40
2.42
2.49
2.68
2.99
3.37
3.74
4.01
4.12
4.04
3.76
3.31
2.74
2.11
1.47
0.85
0.28
-0.28
-0.81
-1.30
-1.70
-1.98
-2.16
-2.30
-2.44
-2.59
-2.67
-2.62
-2.39
-2.04
-1.68
-1.39
-1.21
-1.08
-0.87
-0.49
0.06
0.69
1.27
1.67
1.90
2.02
2.18
2.48
2.94
3.48
3.96
4.23
4.20
3.89
3.40
2.90
2.52
2.32
2.33
2.49
2.73
2.91
2.90
2.56
1.79
0.59
-0.96
-2.62
-4.17
-5.36
-6.06
-6.27
-6.08
-5.66
-5.22
-4.92
-4.89
-5.18
-5.74
-6.43
-7.09
-7.52
-7.58
-7.21
-6.45
-5.39
-4.17
-2.90
-1.61
-0.23
1.38
3.30
5.46
7.64
9.48
10.66
11.01
10.64
9.89
9.11
8.55
8.23
7.95
7.45
6.56
5.30
3.84
2.41
1.14
0.08
-0.84
-1.70
-2.50
-3.18
-3.69
-4.00
-4.18
-4.35
-4.63
-5.03
-5.43
-5.68
-5.58
-5.05
-4.12
-2.96
-1.83
-0.95
-0.48
-0.43
-0.69
-1.11
-1.51
-1.82
-2.05
-2.28
-2.58
-2.97
-3.44
-3.94
-4.48
-5.07
-5.77
-6.58
-7.45
-8.26
-8.87
-9.12
-8.97
-8.48
-7.81
-7.17
-6.62
-6.01
-4.97
-3.03
0.08
4.24
8.81
12.85
15.51
16.34
15.47
13.51
11.25
9.37
8.15
7.58
7.41
7.33
7.07
6.50
5.57
4.33
2.85
1.25
-0.38
-1.99
-3.48
-4.77
-5.71
-6.21
-6.25
-5.99
-5.66
-5.56
-5.79
-6.28
-6.80
-7.04
-6.80
-6.00
-4.70
-2.99
-0.94
1.38
3.88
6.33
8.37
9.63
9.84
8.96
7.19
4.94
2.64
0.62
-0.97
-2.16
-3.05
-3.77
-4.35
-4.79
-5.08
-5.25
-5.32
-5.38
-5.40
-5.35
-5.14
-4.68
-3.96
-3.06
-2.10
-1.24
-0.55
0.02
0.59
1.35
2.43
3.85
5.48
7.08
8.37
9.15
9.33
8.97
8.20
7.16
5.99
4.77
3.59
2.55
1.77
1.26
0.96
0.72
0.32
-0.37
-1.41
-2.65
-3.89
-4.92
-5.61
-5.95
-6.06
-6.12
-6.28
-6.66
-7.27
-8.04
-8.89
-9.70
-10.42
-11.04
-11.59
-12.12
-12.71
-13.36
-14.02
-14.50
-14.50
-13.62
-11.56
-8.22
-3.82
1.17
6.15
10.59
14.16
16.79
18.61
19.78
20.51
20.91
21.10
21.13
21.04
20.78
20.27
19.37
17.99
16.12
13.85
11.37
8.94
6.83
5.29
4.45
4.37
4.94
5.89
6.80
7.18
6.62
4.94
2.26
-1.03
-4.38
-7.33
-9.61
-11.17
-12.13
-12.64
-12.83
-12.78
-12.56
-12.28
-12.05
-11.98
-12.06
-12.23
-12.40
-12.50
-12.52
-12.47
-12.39
-12.31
-12.23
-12.16
-12.07
-11.93
-11.68
-11.24
-10.62
-9.91
-9.31
-9.07
-9.29
-9.88
-10.47
-10.48
-9.36
-6.79
-2.81
2.12
7.28
11.91
15.42
17.53
18.31
18.09
17.26
16.16
14.96
13.74
12.49
11.23
10.05
9.09
8.47
8.24
8.33
8.59
8.85
8.93
8.74
8.27
7.60
6.84
6.17
5.74
5.66
6.00
6.72
7.66
8.55
9.01
8.71
7.43
5.25
2.46
-0.46
-3.05
-5.04
-6.35
-7.09
-7.44
-7.56
-7.54
-7.41
-7.21
-6.98
-6.78
-6.64
-6.58
-6.60
-6.72
-6.92
-7.17
-7.45
-7.73
-7.96
-8.12
-8.19
-8.11
-7.84
-7.34
-6.65
-5.88
-5.25
-4.94
-5.13
-5.79
-6.75
-7.70
-8.26
-8.12
-7.20
-5.60
-3.65
-1.68
-0.00
1.25
2.07
2.56
2.82
2.94
2.96
2.85
2.60
2.23
1.82
1.46
1.26
1.32
1.68
2.37
3.32
4.43
5.55
6.53
7.23
7.56
7.61
7.54
7.58
7.90
8.54
9.40
10.24
10.80
10.84
10.19
8.81
6.82
4.49
2.21
0.34
-0.90
-1.49
-1.61
-1.53
-1.47
-1.48
-1.51
-1.45
-1.27
-1.02
-0.81
-0.76
-0.85
-1.01
-1.11
-1.05
-0.85
-0.56
-0.24
0.06
0.36
0.67
0.98
1.26
1.44
1.49
1.43
1.32
1.24
1.24
1.32
1.42
1.48
1.46
1.39
1.36
1.47
1.78
2.28
2.84
3.32
3.57
3.52
3.15
2.52
1.63
0.51
-0.84
-2.35
-3.84
-5.04
-5.72
-5.75
-5.24
-4.48
-3.83
-3.56
-3.71
-4.12
-4.51
-4.65
-4.48
-4.08
-3.62
-3.25
-2.98
-2.76
-2.50
-2.15
-1.76
-1.41
-1.16
-1.04
-1.01
-0.98
-0.93
-0.86
-0.78
-0.71
-0.65
-0.57
-0.45
-0.31
-0.22
-0.25
-0.42
-0.68
-0.94
-1.09
-1.07
-0.91
-0.65
-0.37
-0.12
0.06
0.15
0.18
0.16
0.15
0.16
0.15
0.04
-0.26
-0.78
-1.45
-2.10
-2.55
-2.63
-2.26
-1.44
-0.22
1.23
2.66
3.76
4.27
4.06
3.25
2.15
1.15
0.52
0.29
0.22
0.02
-0.51
-1.33
-2.18
-2.77
-2.95
-2.85
-2.74
-2.94
-3.59
-4.57
-5.57
-6.29
-6.56
-6.43
-6.11
-5.78
-5.54
-5.39
-5.27
-5.19
-5.14
-4.96
-4.31
-2.71
0.15
4.15
8.60
12.48
14.80
15.10
13.59
11.01
8.19
5.71
3.80
2.38
1.36
0.77
0.68
1.10
1.84
2.54
2.81
2.43
1.41
0.02
-1.37
-2.39
-2.83
-2.68
-2.09
-1.30
-0.60
-0.18
-0.08
-0.23
-0.43
-0.51
-0.37
-0.01
0.51
1.14
1.89
2.83
3.95
5.22
6.44
7.37
7.80
7.60
6.80
5.54
4.02
2.40
0.79
-0.74
-2.23
-3.69
-5.18
-6.75
-8.40
-10.07
-11.63
-12.90
-13.69
-13.84
-13.30
-12.18
-10.73
-9.25
-8.00
-7.09
-6.47
-5.93
-5.12
-3.63
-1.04
2.91
8.19
14.29
20.31
25.17
27.98
28.33
26.47
23.13
19.14
15.16
11.42
7.88
4.44
1.15
-1.74
-3.97
-5.39
-6.10
-6.41
-6.69
-7.20
-7.99
-8.91
-9.75
-10.40
-10.87
-11.30
-11.87
-12.64
-13.54
-14.35
-14.85
-14.89
-14.51
-13.89
-13.30
-13.00
-13.09
-13.55
-14.13
-14.41
-13.93
-12.23
-9.09
-4.55
1.01
7.00
12.78
17.75
21.50
23.87
24.88
24.71
23.65
22.02
20.12
18.14
16.18
14.25
12.32
10.39
8.51
6.76
5.22
3.99
3.12
2.62
2.46
2.56
2.78
2.99
3.08
3.05
2.96
2.94
3.08
3.38
3.65
3.62
3.04
1.75
-0.13
-2.36
-4.56
-6.47
-7.93
-8.99
-9.73
-10.23
-10.51
-10.56
-10.37
-10.04
-9.69
-9.46
-9.37
-9.38
-9.36
-9.20
-8.88
-8.47
-8.13
-8.01
-8.16
-8.51
-8.93
-9.24
-9.32
-9.17
-8.83
-8.43
-8.10
-7.91
-7.92
-8.10
-8.35
-8.48
-8.18
-7.12
-5.01
-1.81
2.25
6.59
10.53
13.46
15.11
15.59
15.30
14.68
14.05
13.47
12.83
11.97
10.91
9.83
9.02
8.69
8.86
9.31
9.70
9.81
9.58
9.16
8.77
8.58
8.60
8.76
8.92
9.06
9.20
9.38
9.51
9.35
8.58
6.95
4.41
1.19
-2.23
-5.33
-7.70
-9.17
-9.86
-10.02
-9.95
-9.83
-9.71
-9.55
-9.30
-8.94
-8.57
-8.28
-8.18
-8.28
-8.52
-8.83
-9.11
-9.36
-9.59
-9.84
-10.10
-10.33
-10.48
-10.47
-10.21
-9.68
-8.88
-7.87
-6.80
-5.84
-5.19
-4.99
-5.22
-5.66
-5.95
-5.65
-4.44
-2.16
1.02
4.72
8.36
11.39
13.38
14.18
13.92
12.90
11.47
9.90
8.35
6.87
5.47
4.21
3.19
2.49
2.12
1.99
1.91
1.74
1.46
1.16
0.98
1.04
1.29
1.57
1.76
1.80
1.75
1.74
1.83
1.95
1.91
1.62
1.10
0.56
0.26
0.36
0.77
1.26
1.52
1.39
0.94
0.40
0.03
-0.02
0.16
0.36
0.32
-0.10
-0.86
-1.75
-2.55
-3.08
-3.32
-3.33
-3.25
-3.15
-3.01
-2.74
-2.25
-1.54
-0.71
0.09
0.71
1.11
1.35
1.52
1.73
2.00
2.27
2.51
2.72
2.98
3.43
4.15
5.10
6.13
6.99
7.41
7.25
6.50
5.26
3.72
2.05
0.39
-1.18
-2.58
-3.76
-4.64
-5.21
-5.48
-5.50
-5.38
-5.25
-5.18
-5.19
-5.26
-5.35
-5.36
-5.22
-4.88
-4.29
-3.50
-2.61
-1.76
-1.10
-0.72
-0.65
-0.84
-1.22
-1.69
-2.14
-2.42
-2.36
-1.82
-0.73
0.87
2.81
4.85
6.73
8.23
9.23
9.66
9.56
9.04
8.27
7.46
6.73
6.14
5.65
5.15
4.57
3.84
2.97
1.98
0.86
-0.37
-1.66
-2.91
-4.00
-4.75
-5.06
-4.95
-4.54
-4.02
-3.59
-3.38
-3.38
-3.49
-3.55
-3.44
-3.06
-2.42
-1.52
-0.45
0.72
1.86
2.79
3.36
3.47
3.11
2.42
1.56
0.71
-0.02
-0.59
-1.03
-1.38
-1.69
-2.02
-2.45
-3.10
-4.00
-5.13
-6.31
-7.31
-7.94
-8.10
-7.86
-7.33
-6.67
-6.01
-5.45
-5.05
-4.86
-4.77
-4.53
-3.80
-2.29
0.04
2.85
5.56
7.59
8.54
8.42
7.49
6.15
4.72
3.42
2.34
1.58
1.26
1.43
2.00
2.77
3.41
3.63
3.31
2.50
1.44
0.40
-0.39
-0.80
-0.86
-0.66
-0.36
-0.06
0.17
0.32
0.43
0.52
0.59
0.64
0.63
0.51
0.27
-0.06
-0.34
-0.41
-0.11
0.58
1.58
2.65
3.57
4.20
4.50
4.52
4.30
3.83
3.05
1.94
0.52
-1.10
-2.74
-4.28
-5.64
-6.83
-7.83
-8.60
-9.06
-9.14
-8.81
-8.13
-7.22
-6.11
-4.79
-3.14
-1.04
1.52
4.35
7.16
9.59
11.41
12.48
12.85
12.57
11.75
10.43
8.72
6.76
4.77
2.94
1.41
0.22
-0.69
-1.39
-1.97
-2.45
-2.84
-3.18
-3.52
-3.91
-4.41
-5.05
-5.80
-6.61
-7.42
-8.15
-8.81
-9.40
-9.94
-10.47
-10.99
-11.45
-11.83
-12.06
-12.12
-12.01
-11.80
-11.61
-11.52
-11.58
-11.71
-11.69
-11.16
-9.74
-7.15
-3.31
1.53
6.85
11.93
16.12
19.02
20.58
21.06
20.89
20.41
19.83
19.14
18.29
17.25
16.08
14.88
13.75
12.69
11.63
10.47
9.14
7.68
6.21
4.88
3.81
3.01
2.37
1.70
0.84
-0.28
-1.58
-2.87
-3.95
-4.71
-5.19
-5.53
-5.89
-6.36
-6.92
-7.45
-7.85
-8.05
-8.07
-7.99
-7.87
-7.77
-7.67
-7.52
-7.26
-6.87
-6.39
-5.91
-5.55
-5.40
-5.49
-5.72
-5.98
-6.11
-6.02
-5.73
-5.33
-4.95
-4.70
-4.59
-4.53
-4.39
-4.01
-3.35
-2.49
-1.64
-1.02
-0.80
-0.97
-1.35
-1.61
-1.43
-0.60
0.93
2.98
5.27
7.41
9.12
10.21
10.66
10.62
10.27
9.81
9.34
8.92
8.55
8.22
7.95
7.79
7.74
7.77
7.76
7.61
7.22
6.56
5.67
4.63
3.55
2.56
1.73
1.15
0.85
0.85
1.08
1.43
1.69
1.64
1.10
0.01
-1.45
-2.95
-4.14
-4.81
-5.03
-5.06
-5.25
-5.76
-6.49
-7.11
-7.31
-6.95
-6.19
-5.34
-4.75
-4.62
-4.92
-5.50
-6.14
-6.67
-7.00
-7.08
-6.91
-6.53
-5.97
-5.29
-4.49
-3.58
-2.57
-1.51
-0.57
0.08
0.32
0.16
-0.22
-0.56
-0.57
-0.06
1.00
2.49
4.18
5.81
7.14
8.03
8.42
8.36
7.96
7.38
6.71
5.98
5.16
4.19
3.09
1.92
0.81
-0.13
-0.86
-1.38
-1.74
-1.97
-2.05
-1.98
-1.73
-1.35
-0.90
-0.41
0.09
0.59
1.10
1.59
2.00
2.25
2.26
1.99
1.43
0.60
-0.42
-1.47
-2.33
-2.75
-2.61
-1.94
-1.00
-0.10
0.44
0.53
0.25
-0.15
-0.39
-0.30
0.12
0.74
1.34
1.68
1.65
1.24
0.54
-0.29
-1.08
-1.72
-2.13
-2.31
-2.26
-2.00
-1.53
-0.94
-0.30
0.24
0.56
0.60
0.41
0.13
-0.09
-0.13
-0.01
0.17
0.26
0.19
-0.04
-0.29
-0.42
-0.33
-0.05
0.33
0.62
0.72
0.59
0.29
-0.06
-0.35
-0.53
-0.60
-0.61
-0.60
-0.57
-0.49
-0.39
-0.31
-0.36
-0.60
-1.01
-1.44
-1.70
-1.62
-1.14
-0.35
0.53
1.29
1.76
1.93
1.88
1.75
1.72
1.91
2.34
2.94
3.57
4.02
4.13
3.84
3.22
2.41
1.60
0.94
0.48
0.24
0.17
0.21
0.33
0.51
0.74
0.96
1.09
1.06
0.80
0.31
-0.35
-1.05
-1.63
-2.00
-2.13
-2.06
-1.87
-1.64
-1.45
-1.33
-1.28
-1.27
-1.24
-1.16
-0.98
-0.73
-0.45
-0.21
-0.04
0.07
0.21
0.48
0.99
1.73
2.59
3.38
3.89
4.02
3.75
3.18
2.45
1.64
0.75
-0.24
-1.33
-2.43
-3.37
-3.96
-4.07
-3.69
-2.97
-2.12
-1.40
-1.00
-0.96
-1.19
-1.52
-1.76
-1.82
-1.71
-1.54
-1.40
-1.31
-1.25
-1.17
-1.06
-0.98
-0.99
-1.08
-1.14
-1.05
-0.77
-0.40
-0.13
-0.14
-0.51
-1.15
-1.88
-2.50
-2.93
-3.14
-3.16
-2.99
-2.61
-2.01
-1.22
-0.42
0.09
-0.05
-1.07
-2.97
-5.38
-7.73
-9.41
-10.03
-9.62
-8.62
-7.69
-7.48
-8.33
-10.16
-12.50
-14.75
-16.36
-17.16
-17.40
-17.67
-18.65
-20.73
-23.80
-27.23
-30.14
-31.81
-32.05
-31.38
-30.83
-31.46
-33.90
-37.96
-42.73
-46.88
-49.22
-49.25
-47.35
-44.69
-42.74
-42.85
-45.70
-51.03
-57.39
-62.07
-61.29
-50.91
-27.78
8.76
55.86
107.51
156.17
195.36
221.80
236.05
241.28
240.89
236.44
227.07
210.63
185.54
152.37
113.94
74.38
37.47
5.64
-20.30
-40.53
-55.47
-65.36
-70.38
-70.96
-68.10
-63.39
-58.62
-55.38
-54.57
-56.19
-59.41
-62.77
-64.79
-64.51
-61.79
-57.41
-52.61
-48.62
-46.12
-45.07
-44.84
-44.62
-43.84
-42.45
-40.88
-39.79
-39.75
-40.98
-43.31
-46.28
-49.33
-52.04
-54.19
-55.89
-57.51
-59.64
-62.85
-67.52
-73.58
-80.55
-87.58
-93.91
-99.22
-103.85
-108.72
-114.85
-122.82
-132.49
-143.08
-153.56
-163.15
-171.38
-177.72
-181.12
-179.81
-171.50
-154.17
-126.76
-89.53
-43.73
8.74
65.50
123.49
178.65
226.11
261.29
281.80
288.84
287.34
284.20
285.43
293.66
307.25
321.35
330.27
329.85
318.48
296.84
266.55
228.95
184.54
133.11
74.26
8.21
-63.27
-136.08
-203.62
-257.90
-291.99
-302.84
-293.05
-270.25
-244.13
-222.50
-208.39
-199.64
-190.88
-176.74
-154.28
-123.86
-88.14
-50.63
-14.32
18.65
46.91
69.50
85.76
95.43
98.73
96.65
90.90
83.77
77.60
74.15
73.96
76.13
78.70
79.53
77.39
72.48
66.37
61.14
58.48
58.84
61.37
64.36
66.15
65.90
63.95
61.54
60.14
60.78
63.49
67.37
71.08
73.48
74.25
74.02
74.08
75.70
79.52
85.19
91.53
96.94
99.93
99.45
94.91
86.26
73.96
59.23
43.91
29.94
18.27
7.95
-3.88
-20.95
-45.96
-78.99
-117.00
-154.97
-187.80
-212.18
-227.28
-234.29
-235.33
-232.67
-228.51
-225.03
-224.24
-227.15
-232.69
-237.30
-235.58
-221.89
-192.43
-146.71
-88.08
-23.09
40.02
93.29
130.83
150.13
152.46
142.30
125.98
109.85
98.76
95.11
98.88
108.17
120.15
131.85
140.83
145.55
145.73
142.16
136.38
130.11
124.73
121.06
119.55
120.57
124.33
130.32
136.79
140.74
138.86
129.09
112.05
91.32
72.25
59.88
56.81
62.35
73.27
85.49
95.80
102.45
104.57
100.97
89.48
67.53
33.82
-10.05
-58.94
-105.32
-141.67
-163.23
-169.61
-164.41
-153.30
-141.44
-131.74
-124.52
-118.54
-112.43
-105.70
-98.83
-92.68
-87.76
-83.83
-80.05
-75.50
-69.74
-63.02
-56.16
-50.12
-45.53
-42.37
-40.03
-37.67
-34.64
-30.78
-26.47
-22.42
-19.23
-17.17
-16.00
-15.18
-14.14
-12.56
-10.48
-8.29
-6.43
-5.23
-4.70
-4.61
-4.60
-4.38
-3.86
-3.12
-2.33
-1.61
-0.99
-0.46
0.00
0.35
0.50
0.44
0.24
0.02
-0.11
-0.10
-0.06
-0.09
-0.26
-0.54
-0.77
-0.82
-0.64
-0.30
0.03
0.21
0.19
0.01
-0.16
-0.21
-0.06
0.23
0.55
0.78
0.83
0.70
0.45
0.22
0.08
0.11
0.26
0.45
0.56
0.55
0.41
0.15
-0.19
-0.56
-0.89
-1.11
-1.14
-0.97
-0.66
-0.33
-0.11
-0.08
-0.23
-0.46
-0.69
-0.86
-0.96
-0.97
-0.85
-0.53
-0.00
0.67
1.33
1.79
1.94
1.78
1.43
1.02
0.66
0.37
0.12
-0.13
-0.39
-0.63
-0.79
-0.87
-0.90
-0.90
-0.90
-0.85
-0.69
-0.36
0.14
0.75
1.33
1.77
2.05
2.16
2.19
2.20
2.17
2.05
1.76
1.28
0.68
0.10
-0.32
-0.53
-0.56
-0.50
-0.44
-0.40
-0.34
-0.21
0.00
0.21
0.30
0.18
-0.15
-0.58
-0.94
-1.15
-1.20
-1.19
-1.22
-1.34
-1.50
-1.59
-1.48
-1.13
-0.63
-0.13
0.19
0.24
0.08
-0.13
-0.22
-0.06
0.31
0.74
1.07
1.15
1.02
0.78
0.61
0.61
0.78
1.00
1.13
1.06
0.78
0.37
-0.06
-0.42
-0.69
-0.87
-0.99
-1.04
-1.00
-0.84
-0.60
-0.34
-0.18
-0.17
-0.32
-0.51
-0.63
-0.59
-0.42
-0.19
-0.03
0.02
-0.04
-0.12
-0.17
-0.15
-0.11
-0.09
-0.11
-0.14
-0.13
-0.05
0.08
0.21
0.27
0.27
0.27
0.32
0.48
0.71
0.92
0.98
0.80
0.39
-0.13
-0.57
-0.80
-0.75
-0.45
-0.04
0.37
0.67
0.81
0.80
0.65
0.39
0.08
-0.19
-0.34
-0.30
-0.11
0.16
0.38
0.46
0.39
0.24
0.12
0.09
0.15
0.22
0.22
0.10
-0.09
-0.27
-0.33
-0.23
-0.00
0.26
0.47
0.58
0.60
0.58
0.55
0.47
0.32
0.08
-0.22
-0.48
-0.60
-0.52
-0.30
-0.02
0.16
0.18
0.05
-0.16
-0.32
-0.35
-0.25
-0.08
0.06
0.09
0.02
-0.08
-0.13
-0.04
0.18
0.46
0.70
0.82
0.79
0.61
0.32
-0.03
-0.40
-0.75
-1.06
-1.27
-1.36
-1.31
-1.13
-0.87
-0.60
-0.37
-0.23
-0.18
-0.20
-0.24
-0.25
-0.21
-0.13
-0.04
0.06
0.14
0.22
0.30
0.36
0.38
0.36
0.29
0.17
0.05
-0.07
-0.15
-0.17
-0.13
-0.03
0.12
0.29
0.42
0.47
0.42
0.29
0.16
0.08
0.07
0.12
0.21
0.30
0.37
0.43
0.45
0.43
0.36
0.24
0.12
0.05
0.08
0.20
0.36
0.46
0.47
0.37
0.21
0.05
-0.05
-0.08
-0.09
-0.10
-0.15
-0.23
-0.33
-0.42
-0.47
-0.47
-0.44
-0.40
-0.34
-0.26
-0.16
-0.06
0.01
0.04
0.02
-0.05
-0.13
-0.16
-0.14
-0.06
0.03
0.11
0.19
0.27
0.40
0.56
0.69
0.71
0.54
0.17
-0.32
-0.78
-1.06
-1.07
-0.83
-0.46
-0.14
0.02
-0.03
-0.25
-0.53
-0.74
-0.80
-0.70
-0.47
-0.21
-0.01
0.06
-0.00
-0.15
-0.29
-0.34
-0.27
-0.12
0.06
0.19
0.25
0.27
0.28
0.29
0.29
0.27
0.23
0.18
0.18
0.24
0.34
0.42
0.42
0.32
0.20
0.14
0.19
0.34
0.50
0.59
0.58
0.51
0.45
0.48
0.57
0.64
0.59
0.38
0.08
-0.20
-0.33
-0.28
-0.13
-0.03
-0.10
-0.37
-0.74
-1.08
-1.21
-1.07
-0.71
-0.24
0.18
0.45
0.54
0.51
0.44
0.37
0.33
0.30
0.22
0.08
-0.10
-0.27
-0.36
-0.35
-0.23
-0.07
0.08
0.19
0.24
0.25
0.27
0.31
0.38
0.47
0.53
0.50
0.37
0.14
-0.12
-0.34
-0.47
-0.51
-0.47
-0.36
-0.21
-0.03
0.17
0.33
0.38
0.27
0.02
-0.27
-0.48
-0.56
-0.49
-0.35
-0.24
-0.21
-0.23
-0.24
-0.19
-0.09
0.02
0.09
0.06
-0.03
-0.17
-0.28
-0.34
-0.28
-0.10
0.22
0.63
1.03
1.30
1.38
1.21
0.87
0.48
0.14
-0.07
-0.15
-0.16
-0.18
-0.26
-0.42
-0.62
-0.80
-0.92
-0.96
-0.93
-0.85
-0.72
-0.58
-0.46
-0.35
-0.26
-0.16
-0.06
0.04
0.11
0.16
0.19
0.26
0.39
0.58
0.76
0.81
0.65
0.28
-0.16
-0.49
-0.57
-0.42
-0.19
-0.08
-0.21
-0.56
-0.96
-1.18
-1.08
-0.67
-0.10
0.42
0.75
0.86
0.83
0.79
0.79
0.81
0.80
0.72
0.56
0.38
0.26
0.24
0.32
0.45
0.57
0.62
0.56
0.39
0.15
-0.09
-0.27
-0.33
-0.29
-0.18
-0.11
-0.14
-0.31
-0.56
-0.80
-0.93
-0.92
-0.80
-0.63
-0.47
-0.35
-0.26
-0.18
-0.11
-0.06
-0.06
-0.10
-0.14
-0.14
-0.05
0.12
0.34
0.55
0.66
0.61
0.41
0.10
-0.21
-0.43
-0.50
-0.43
-0.28
-0.16
-0.10
-0.11
-0.11
-0.05
0.10
0.28
0.42
0.44
0.34
0.17
0.01
-0.09
-0.11
-0.08
-0.04
-0.06
-0.14
-0.26
-0.35
-0.37
-0.26
-0.07
0.14
0.29
0.34
0.29
0.23
0.23
0.31
0.45
0.56
0.59
0.50
0.32
0.12
-0.06
-0.17
-0.19
-0.14
-0.02
0.12
0.25
0.32
0.32
0.23
0.09
-0.08
-0.25
-0.40
-0.50
-0.54
-0.49
-0.33
-0.10
0.16
0.40
0.57
0.67
0.73
0.76
0.75
0.67
0.50
0.24
-0.06
-0.32
-0.45
-0.43
-0.28
-0.12
-0.06
-0.16
-0.41
-0.72
-0.95
-1.00
-0.86
-0.59
-0.30
-0.09
-0.01
-0.02
-0.07
-0.11
-0.09
-0.02
0.09
0.21
0.32
0.39
0.39
0.28
0.07
-0.20
-0.43
-0.54
-0.52
-0.39
-0.23
-0.13
-0.09
-0.06
0.01
0.16
0.37
0.54
0.60
0.54
0.40
0.27
0.22
0.24
0.29
0.31
0.28
0.23
0.18
0.14
0.11
0.07
0.02
-0.01
0.01
0.05
0.08
0.03
-0.10
-0.27
-0.41
-0.48
-0.46
-0.43
-0.46
-0.59
-0.76
-0.90
-0.90
-0.73
-0.42
-0.03
0.32
0.55
0.62
0.55
0.40
0.26
0.22
0.32
0.53
0.75
0.89
0.89
0.75
0.54
0.35
0.22
0.14
0.06
-0.03
-0.14
-0.18
-0.12
0.03
0.20
0.32
0.34
0.27
0.20
0.16
0.12
0.02
-0.23
-0.61
-1.03
-1.34
-1.44
-1.29
-0.97
-0.60
-0.29
-0.09
0.01
0.02
-0.03
-0.09
-0.16
-0.19
-0.20
-0.17
-0.11
-0.06
-0.04
-0.03
-0.04
-0.03
0.03
0.17
0.38
0.59
0.75
0.80
0.75
0.63
0.50
0.42
0.40
0.42
0.44
0.44
0.41
0.37
0.32
0.23
0.08
-0.15
-0.43
-0.71
-0.91
-1.00
-0.93
-0.73
-0.44
-0.10
0.24
0.50
0.62
0.54
0.27
-0.13
-0.51
-0.74
-0.74
-0.52
-0.20
0.10
0.27
0.31
0.27
0.21
0.14
0.07
-0.04
-0.17
-0.24
-0.17
0.06
0.38
0.69
0.85
0.85
0.72
0.52
0.32
0.10
-0.12
-0.30
-0.39
-0.30
-0.05
0.25
0.41
0.30
-0.07
-0.51
-0.80
-0.76
-0.41
0.06
0.42
0.53
0.43
0.26
0.15
0.13
0.11
-0.03
-0.31
-0.63
-0.84
-0.79
-0.51
-0.15
0.09
0.11
-0.05
-0.24
-0.30
-0.16
0.12
0.40
0.54
0.51
0.37
0.22
0.14
0.13
0.13
0.10
0.03
-0.05
-0.05
0.02
0.14
0.25
0.30
0.27
0.20
0.15
0.16
0.23
0.31
0.34
0.29
0.17
0.03
-0.08
-0.14
-0.15
-0.17
-0.22
-0.30
-0.37
-0.36
-0.25
-0.08
0.09
0.19
0.20
0.15
0.13
0.18
0.33
0.54
0.73
0.82
0.74
0.47
0.05
-0.44
-0.89
-1.20
-1.32
-1.27
-1.11
-0.95
-0.83
-0.76
-0.69
-0.58
-0.37
-0.06
0.28
0.61
0.83
0.93
0.89
0.76
0.63
0.54
0.52
0.53
0.49
0.36
0.13
-0.12
-0.32
-0.38
-0.30
-0.13
0.03
0.11
0.06
-0.08
-0.26
-0.41
-0.50
-0.55
-0.61
-0.68
-0.71
-0.62
-0.34
0.09
0.55
0.85
0.85
0.55
0.09
-0.31
-0.49
-0.43
-0.25
-0.13
-0.18
-0.39
-0.61
-0.69
-0.55
-0.25
0.07
0.23
0.18
-0.03
-0.24
-0.28
-0.07
0.32
0.70
0.89
0.78
0.45
0.12
-0.01
0.16
0.55
0.93
1.07
0.89
0.45
-0.03
-0.38
-0.49
-0.42
-0.26
-0.13
-0.06
-0.04
-0.03
-0.03
-0.04
-0.08
-0.12
-0.13
-0.08
0.02
0.13
0.18
0.15
0.03
-0.12
-0.25
-0.31
-0.29
-0.20
-0.10
-0.01
0.04
0.05
0.05
0.08
0.17
0.30
0.45
0.55
0.58
0.55
0.50
0.48
0.52
0.61
0.69
0.69
0.57
0.36
0.10
-0.12
-0.26
-0.31
-0.27
-0.18
-0.10
-0.07
-0.13
-0.27
-0.43
-0.52
-0.46
-0.24
0.07
0.35
0.48
0.41
0.18
-0.12
-0.41
-0.67
-0.90
-1.07
-1.12
-0.97
-0.56
0.07
0.78
1.40
1.73
1.69
1.28
0.59
-0.24
-1.03
-1.61
-1.84
-1.67
-1.15
-0.44
0.26
0.79
1.04
1.01
0.77
0.43
0.07
-0.23
-0.46
-0.58
-0.62
-0.58
-0.51
-0.48
-0.50
-0.60
-0.72
-0.80
-0.78
-0.63
-0.41
-0.18
0.00
0.10
0.14
0.19
0.29
0.48
0.72
0.96
1.10
1.07
0.85
0.47
0.01
-0.42
-0.70
-0.76
-0.60
-0.27
0.11
0.42
0.57
0.52
0.32
0.03
-0.23
-0.39
-0.42
-0.32
-0.15
0.02
0.14
0.16
0.09
-0.04
-0.18
-0.30
-0.39
-0.43
-0.44
-0.42
-0.37
-0.33
-0.31
-0.31
-0.29
-0.19
0.02
0.34
0.67
0.90
0.97
0.89
0.71
0.53
0.41
0.32
0.24
0.16
0.09
0.09
0.19
0.36
0.51
0.56
0.44
0.18
-0.11
-0.33
-0.40
-0.30
-0.08
0.15
0.32
0.41
0.42
0.37
0.28
0.13
-0.09
-0.35
-0.59
-0.75
-0.76
-0.63
-0.42
-0.21
-0.06
0.00
0.03
0.06
0.12
0.19
0.26
0.29
0.27
0.24
0.22
0.24
0.31
0.40
0.47
0.51
0.51
0.51
0.51
0.51
0.45
0.26
-0.07
-0.50
-0.90
-1.14
-1.12
-0.87
-0.47
-0.08
0.17
0.23
0.12
-0.10
-0.33
-0.46
-0.48
-0.40
-0.25
-0.11
-0.01
0.07
0.14
0.24
0.34
0.41
0.37
0.22
-0.02
-0.26
-0.39
-0.33
-0.07
0.32
0.71
0.98
1.02
0.81
0.44
0.03
-0.31
-0.51
-0.56
-0.53
-0.48
-0.44
-0.41
-0.35
-0.24
-0.08
0.08
0.18
0.16
0.00
-0.25
-0.51
-0.68
-0.67
-0.46
-0.10
0.29
0.60
0.74
0.70
0.52
0.25
-0.03
-0.28
-0.47
-0.57
-0.57
-0.46
-0.28
-0.09
0.04
0.07
0.00
-0.12
-0.21
-0.21
-0.11
0.08
0.29
0.47
0.56
0.56
0.46
0.31
0.16
0.06
0.07
0.19
0.40
0.62
0.77
0.76
0.58
0.26
-0.07
-0.30
-0.35
-0.20
0.07
0.33
0.44
0.29
-0.11
-0.68
-1.27
-1.70
-1.86
-1.71
-1.33
-0.84
-0.39
-0.08
0.04
-0.01
-0.15
-0.29
-0.31
-0.19
0.05
0.30
0.50
0.59
0.60
0.56
0.50
0.40
0.22
-0.06
-0.37
-0.61
-0.66
-0.51
-0.21
0.10
0.30
0.35
0.33
0.33
0.44
0.63
0.84
0.96
0.93
0.74
0.43
0.08
-0.23
-0.44
-0.52
-0.50
-0.43
-0.36
-0.31
-0.27
-0.20
-0.09
0.08
0.26
0.42
0.54
0.60
0.61
0.60
0.59
0.59
0.61
0.65
0.72
0.77
0.79
0.75
0.62
0.41
0.14
-0.13
-0.34
-0.43
-0.35
-0.15
0.08
0.25
0.29
0.23
0.15
0.14
0.22
0.34
0.41
0.34
0.09
-0.29
-0.71
-1.09
-1.36
-1.50
-1.49
-1.32
-0.99
-0.54
-0.02
0.45
0.75
0.80
0.62
0.32
0.08
-0.01
0.05
0.15
0.14
-0.04
-0.33
-0.59
-0.67
-0.52
-0.21
0.13
0.37
0.47
0.45
0.36
0.23
0.05
-0.19
-0.49
-0.76
-0.93
-0.91
-0.71
-0.36
0.04
0.40
0.63
0.69
0.60
0.39
0.14
-0.10
-0.27
-0.37
-0.39
-0.36
-0.32
-0.27
-0.22
-0.16
-0.09
0.01
0.11
0.18
0.19
0.13
0.02
-0.06
-0.05
0.07
0.22
0.32
0.29
0.14
-0.04
-0.16
-0.14
0.01
0.21
0.38
0.48
0.51
0.51
0.50
0.50
0.48
0.46
0.46
0.50
0.57
0.64
0.66
0.58
0.38
0.08
-0.27
-0.60
-0.86
-1.00
-1.04
-1.00
-0.90
-0.77
-0.60
-0.39
-0.19
-0.03
0.01
-0.08
-0.32
-0.65
-1.01
-1.36
-1.63
-1.77
-1.73
-1.49
-1.06
-0.49
0.11
0.64
1.00
1.18
1.20
1.11
0.97
0.84
0.75
0.72
0.73
0.76
0.78
0.77
0.74
0.68
0.60
0.51
0.41
0.32
0.25
0.19
0.13
0.03
-0.10
-0.26
-0.41
-0.52
-0.54
-0.47
-0.32
-0.12
0.11
0.32
0.51
0.64
0.72
0.73
0.68
0.55
0.36
0.14
-0.08
-0.24
-0.31
-0.27
-0.16
-0.03
0.06
0.11
0.12
0.13
0.19
0.29
0.43
0.53
0.54
0.44
0.25
0.00
-0.24
-0.45
-0.61
-0.73
-0.80
-0.81
-0.73
-0.55
-0.29
-0.00
0.23
0.35
0.31
0.17
-0.00
-0.12
-0.13
-0.05
0.06
0.13
0.12
0.07
0.05
0.11
0.23
0.33
0.34
0.21
-0.01
-0.20
-0.26
-0.16
0.06
0.29
0.45
0.45
0.28
-0.03
-0.40
-0.72
-0.93
-0.96
-0.83
-0.57
-0.29
-0.06
0.06
0.05
-0.06
-0.22
-0.38
-0.48
-0.49
-0.43
-0.31
-0.17
-0.05
0.07
0.20
0.33
0.45
0.52
0.52
0.44
0.29
0.06
-0.21
-0.51
-0.83
-1.11
-1.32
-1.41
-1.35
-1.12
-0.77
-0.34
0.10
0.47
0.73
0.87
0.93
0.94
0.95
0.97
1.00
1.01
1.01
0.99
0.95
0.91
0.85
0.80
0.74
0.66
0.56
0.41
0.24
0.07
-0.04
-0.06
-0.02
0.02
0.00
-0.10
-0.23
-0.32
-0.30
-0.17
0.00
0.14
0.18
0.16
0.09
0.02
-0.06
-0.16
-0.30
-0.41
-0.43
-0.32
-0.11
0.12
0.25
0.21
0.00
-0.29
-0.57
-0.73
-0.77
-0.70
-0.56
-0.40
-0.23
-0.06
0.12
0.26
0.34
0.35
0.27
0.14
0.02
-0.09
-0.17
-0.24
-0.32
-0.40
-0.46
-0.49
-0.47
-0.39
-0.27
-0.11
0.08
0.30
0.49
0.60
0.56
0.34
-0.02
-0.42
-0.72
-0.81
-0.69
-0.40
-0.04
0.29
0.53
0.62
0.54
0.33
0.01
-0.31
-0.51
-0.50
-0.27
0.13
0.54
0.81
0.89
0.78
0.59
0.41
0.28
0.18
0.08
-0.04
-0.18
-0.28
-0.30
-0.25
-0.18
-0.15
-0.21
-0.32
-0.43
-0.46
-0.36
-0.17
0.04
0.14
0.08
-0.12
-0.33
-0.39
-0.21
0.21
0.75
1.19
1.37
1.21
0.81
0.36
0.05
-0.03
0.09
0.27
0.38
0.34
0.18
-0.05
-0.27
-0.47
-0.64
-0.81
-0.97
-1.11
-1.16
-1.08
-0.84
-0.49
-0.07
0.31
0.59
0.71
0.66
0.50
0.32
0.20
0.18
0.23
0.30
0.31
0.29
0.26
0.30
0.43
0.61
0.77
0.82
0.72
0.49
0.21
-0.03
-0.15
-0.13
-0.01
0.10
0.13
0.05
-0.13
-0.31
-0.40
-0.34
-0.17
0.03
0.14
0.10
-0.06
-0.27
-0.43
-0.49
-0.45
-0.36
-0.29
-0.29
-0.36
-0.47
-0.59
-0.65
-0.63
-0.56
-0.49
-0.49
-0.59
-0.83
-1.16
-1.57
-2.01
-2.47
-2.94
-3.36
-3.68
-3.89
-3.97
-4.01
-4.11
-4.40
-4.91
-5.62
-6.43
-7.25
-8.03
-8.85
-9.81
-11.04
-12.58
-14.40
-16.36
-18.33
-20.19
-21.97
-23.77
-25.74
-28.02
-30.70
-33.80
-37.28
-41.10
-45.19
-49.52
-54.11
-58.99
-64.20
-69.75
-75.55
-81.46
-87.33
-93.08
-98.75
-104.49
-110.42
-116.62
-123.16
-130.22
-138.19
-147.51
-158.07
-168.80
-177.32
-180.35
-174.65
-158.14
-130.46
-92.86
-47.54
2.94
55.72
107.43
154.02
191.26
215.91
226.94
226.06
217.13
204.67
192.28
181.74
173.15
165.74
158.78
151.89
144.96
137.87
130.34
122.12
113.31
104.41
96.12
89.08
83.46
78.98
75.16
71.68
68.60
66.32
65.27
65.61
67.13
69.31
71.66
73.94
76.24
78.86
81.98
85.54
89.10
92.10
94.09
94.96
95.03
94.77
94.63
94.58
93.87
90.91
83.35
68.52
43.96
8.29
-38.03
-92.12
-148.94
-202.29
-246.46
-277.81
-295.78
-302.54
-301.91
-297.84
-293.30
-289.80
-287.36
-284.89
-280.35
-271.17
-254.72
-228.90
-192.92
-147.49
-94.53
-36.41
24.68
86.76
147.66
204.67
254.66
294.91
324.09
342.85
353.57
359.26
362.33
363.60
362.22
356.24
343.61
323.05
294.54
259.09
218.12
172.77
123.71
71.51
17.45
-35.77
-84.11
-123.20
-149.94
-163.77
-166.92
-163.43
-157.39
-151.45
-146.32
-141.34
-135.53
-128.58
-121.10
-114.14
-108.47
-104.17
-100.54
-96.65
-91.76
-85.74
-79.07
-72.52
-66.74
-62.01
-58.14
-54.68
-51.15
-47.31
-43.16
-38.90
-34.78
-30.96
-27.49
-24.32
-21.42
-18.79
-16.56
-14.86
-13.76
-13.23
-13.05
-12.93
-12.63
-12.04
-11.29
-10.63
-10.39
-10.78
-11.81
-13.34
-15.14
-17.03
-19.01
-21.24
-23.93
-27.21
-31.04
-35.16
-39.19
-42.79
-45.88
-48.70
-51.76
-55.64
-60.68
-66.81
-73.46
-79.77
-85.00
-88.82
-91.52
-93.91
-96.91
-101.18
-106.92
-113.84
-121.29
-128.30
-133.48
-134.95
-130.55
-118.27
-96.96
-66.67
-28.51
16.05
65.86
120.19
178.12
237.61
295.00
345.28
383.31
405.23
409.47
396.84
369.81
331.51
284.90
232.31
175.25
114.73
51.71
-12.26
-74.49
-131.20
-178.30
-212.64
-233.37
-242.50
-244.29
-243.57
-243.68
-245.19
-245.92
-242.43
-231.95
-213.70
-188.68
-158.48
-123.97
-85.07
-41.78
4.27
49.06
86.90
112.72
124.35
123.57
115.19
104.67
95.78
89.56
84.95
80.31
74.73
68.55
62.99
59.29
58.05
59.10
61.65
64.68
67.38
69.34
70.65
71.77
73.20
75.17
77.49
79.58
80.83
80.92
80.12
79.21
79.16
80.72
84.02
88.50
93.21
97.23
100.15
102.16
103.99
106.43
109.99
114.66
119.73
123.77
124.73
119.98
106.71
82.62
46.95
1.38
-49.76
-100.11
-143.14
-174.12
-191.49
-197.02
-194.58
-188.13
-180.08
-170.75
-159.09
-144.11
-126.05
-106.61
-88.23
-72.90
-61.32
-52.88
-46.38
-40.93
-36.44
-33.58
-33.07
-35.02
-38.62
-42.41
-44.87
-45.21
-43.63
-41.23
-39.52
-39.68
-42.16
-46.47
-51.48
-55.97
-59.02
-60.39
-60.46
-60.04
-60.20
-62.00
-66.42
-73.98
-84.08
-94.51
-101.67
-101.64
-91.68
-71.37
-42.88
-10.04
23.03
53.07
78.10
97.07
109.48
115.16
114.60
109.19
101.12
92.75
85.76
80.76
77.52
75.61
74.95
75.82
78.57
83.18
89.27
96.25
103.35
109.73
114.17
115.12
111.05
101.23
86.38
68.74
51.45
37.29
27.73
22.45
19.97
18.62
17.54
16.95
17.72
20.55
25.38
31.22
36.66
40.54
42.49
43.20
44.09
46.72
52.23
60.91
72.16
84.37
94.92
100.26
96.47
80.44
51.39
11.88
-32.24
-73.51
-105.30
-124.05
-130.11
-126.85
-118.66
-109.05
-99.75
-91.06
-82.89
-75.50
-69.59
-65.74
-63.79
-62.73
-61.09
-57.77
-52.55
-46.14
-39.87
-34.96
-32.03
-30.87
-30.59
-30.10
-28.54
-25.68
-21.88
-17.94
-14.68
-12.57
-11.59
-11.29
-11.04
-10.34
-9.04
-7.31
-5.51
-4.04
-3.12
-2.75
-2.75
-2.87
-2.86
-2.55
-1.92
-1.06
-0.15
0.63
1.08
1.15
0.87
0.40
-0.08
-0.41
-0.50
-0.38
-0.13
0.15
0.38
0.54
0.65
0.72
0.75
0.73
0.66
0.56
0.43
0.32
0.19
0.02
-0.19
-0.42
-0.58
-0.63
-0.56
-0.41
-0.29
-0.27
-0.36
-0.49
-0.59
-0.57
-0.42
-0.20
0.02
0.20
0.34
0.47
0.63
0.82
1.02
1.15
1.19
1.11
0.93
0.66
0.32
-0.02
-0.33
-0.53
-0.57
-0.44
-0.21
0.02
0.15
0.13
-0.01
-0.18
-0.32
-0.36
-0.36
-0.36
-0.44
-0.60
-0.82
-1.06
-1.26
-1.39
-1.41
-1.32
-1.12
-0.85
-0.55
-0.23
0.08
0.39
0.67
0.86
0.90
0.73
0.40
0.02
-0.26
-0.32
-0.13
0.22
0.58
0.82
0.87
0.74
0.47
0.15
-0.19
-0.48
-0.65
-0.65
-0.47
-0.13
0.27
0.61
0.78
0.76
0.60
0.40
0.23
0.18
0.25
0.40
0.60
0.78
0.87
0.83
0.65
0.39
0.13
-0.02
0.03
0.26
0.61
0.94
1.14
1.12
0.89
0.53
0.13
-0.24
-0.55
-0.78
-0.92
-0.95
-0.82
-0.53
-0.12
0.28
0.55
0.59
0.42
0.13
-0.14
-0.28
-0.25
-0.12
0.03
0.16
0.24
0.27
0.27
0.21
0.09
-0.09
-0.30
-0.50
-0.61
-0.60
-0.46
-0.22
0.05
0.26
0.35
0.27
0.04
-0.30
-0.63
-0.84
-0.86
-0.69
-0.42
-0.17
-0.06
-0.11
-0.25
-0.36
-0.39
-0.34
-0.28
-0.29
-0.38
-0.48
-0.47
-0.27
0.10
0.53
0.88
1.04
0.99
0.78
0.52
0.28
0.12
0.04
0.05
0.13
0.23
0.32
0.32
0.17
-0.16
-0.60
-1.01
-1.22
-1.11
-0.70
-0.14
0.34
0.56
0.47
0.16
-0.18
-0.40
-0.42
-0.29
-0.11
0.06
0.17
0.23
0.25
0.23
0.17
0.06
-0.09
-0.23
-0.31
-0.28
-0.17
-0.02
0.11
0.18
0.16
0.07
-0.05
-0.18
-0.28
-0.28
-0.15
0.11
0.43
0.68
0.70
0.40
-0.17
-0.83
-1.34
-1.55
-1.43
-1.12
-0.77
-0.53
-0.42
-0.39
-0.36
-0.28
-0.18
-0.08
-0.02
-0.01
-0.01
0.03
0.11
0.25
0.40
0.52
0.56
0.49
0.33
0.15
0.01
-0.03
0.05
0.22
0.41
0.56
0.61
0.56
0.44
0.30
0.21
0.20
0.25
0.32
0.40
0.47
0.55
0.68
0.85
1.03
1.14
1.11
0.92
0.63
0.34
0.15
0.13
0.29
0.57
0.86
1.03
0.99
0.73
0.29
-0.20
-0.64
-0.96
-1.12
-1.13
-1.00
-0.77
-0.47
-0.19
0.00
0.06
-0.03
-0.20
-0.36
-0.45
-0.47
-0.44
-0.37
-0.28
-0.16
0.00
0.17
0.28
0.32
0.30
0.26
0.29
0.41
0.59
0.72
0.74
0.63
0.41
0.18
-0.01
-0.12
-0.14
-0.10
-0.03
0.06
0.13
0.15
0.06
-0.13
-0.39
-0.63
-0.79
-0.81
-0.73
-0.61
-0.53
-0.49
-0.46
-0.35
-0.11
0.23
0.58
0.80
0.81
0.62
0.33
0.07
-0.07
-0.13
-0.18
-0.30
-0.46
-0.57
-0.52
-0.28
0.07
0.40
0.60
0.66
0.63
0.58
0.52
0.40
0.18
-0.13
-0.45
-0.65
-0.66
-0.50
-0.26
-0.06
0.04
0.03
-0.07
-0.18
-0.26
-0.27
-0.18
-0.00
0.22
0.42
0.50
0.43
0.22
-0.05
-0.30
-0.47
-0.51
-0.45
-0.35
-0.26
-0.23
-0.26
-0.32
-0.38
-0.42
-0.46
-0.53
-0.63
-0.73
-0.77
-0.71
-0.53
-0.31
-0.14
-0.06
-0.09
-0.14
-0.17
-0.12
-0.01
0.11
0.23
0.35
0.46
0.59
0.71
0.78
0.81
0.81
0.80
0.82
0.85
0.87
0.84
0.74
0.58
0.40
0.24
0.13
0.09
0.13
0.23
0.36
0.49
0.56
0.54
0.42
0.24
0.05
-0.09
-0.16
-0.18
-0.16
-0.11
-0.06
0.01
0.09
0.15
0.19
0.17
0.10
-0.02
-0.15
-0.29
-0.40
-0.46
-0.45
-0.37
-0.24
-0.15
-0.13
-0.22
-0.37
-0.50
-0.56
-0.51
-0.38
-0.23
-0.11
-0.02
0.07
0.17
0.28
0.33
0.27
0.11
-0.09
-0.20
-0.14
0.07
0.31
0.43
0.34
0.08
-0.22
-0.39
-0.35
-0.14
0.13
0.33
0.39
0.27
0.04
-0.24
-0.50
-0.65
-0.65
-0.50
-0.26
-0.00
0.19
0.29
0.33
0.35
0.37
0.33
0.17
-0.13
-0.51
-0.83
-0.95
-0.82
-0.47
-0.03
0.33
0.50
0.44
0.20
-0.12
-0.39
-0.51
-0.47
-0.35
-0.28
-0.36
-0.58
-0.81
-0.90
-0.71
-0.28
0.25
0.65
0.82
0.75
0.57
0.43
0.40
0.47
0.56
0.59
0.55
0.46
0.37
0.31
0.26
0.20
0.10
-0.04
-0.18
-0.29
-0.33
-0.32
-0.31
-0.35
-0.50
-0.75
-1.02
-1.23
-1.29
-1.15
-0.84
-0.42
0.00
0.36
0.60
0.72
0.72
0.66
0.60
0.60
0.66
0.80
0.95
1.04
1.02
0.83
0.51
0.11
-0.29
-0.61
-0.76
-0.72
-0.50
-0.18
0.12
0.33
0.38
0.30
0.16
0.02
-0.09
-0.21
-0.35
-0.51
-0.63
-0.63
-0.48
-0.22
0.04
0.19
0.20
0.11
-0.01
-0.07
-0.08
-0.09
-0.14
-0.23
-0.31
-0.31
-0.16
0.08
0.32
0.46
0.47
0.36
0.25
0.20
0.26
0.40
0.52
0.58
0.52
0.37
0.19
0.05
0.02
0.14
0.39
0.71
1.01
1.19
1.21
1.07
0.83
0.55
0.28
0.06
-0.12
-0.23
-0.29
-0.32
-0.37
-0.51
-0.76
-1.08
-1.36
-1.49
-1.39
-1.06
-0.56
-0.00
0.49
0.80
0.90
0.79
0.53
0.23
-0.07
-0.31
-0.52
-0.67
-0.76
-0.73
-0.57
-0.31
-0.04
0.16
0.26
0.30
0.35
0.43
0.53
0.56
0.49
0.33
0.18
0.09
0.08
0.11
0.12
0.08
0.02
0.00
0.03
0.04
-0.04
-0.22
-0.44
-0.58
-0.53
-0.32
-0.04
0.13
0.10
-0.14
-0.46
-0.71
-0.79
-0.69
-0.47
-0.24
-0.07
0.03
0.11
0.21
0.35
0.47
0.53
0.45
0.23
-0.08
-0.40
-0.60
-0.63
-0.46
-0.11
0.31
0.71
0.99
1.05
0.86
0.45
-0.06
-0.52
-0.78
-0.79
-0.60
-0.34
-0.13
-0.06
-0.11
-0.21
-0.28
-0.30
-0.28
-0.26
-0.27
-0.30
-0.30
-0.21
0.03
0.39
0.81
1.15
1.28
1.10
0.64
0.02
-0.58
-0.98
-1.11
-1.00
-0.78
-0.61
-0.59
-0.72
-0.90
-0.97
-0.83
-0.46
0.08
0.62
1.04
1.25
1.27
1.14
0.94
0.71
0.47
0.23
-0.01
-0.19
-0.30
-0.33
-0.30
-0.29
-0.32
-0.39
-0.49
-0.59
-0.68
-0.74
-0.78
-0.75
-0.63
-0.37
0.01
0.48
0.94
1.28
1.43
1.37
1.14
0.84
0.56
0.38
0.31
0.32
0.37
0.39
0.33
0.19
-0.03
-0.30
-0.58
-0.84
-1.03
-1.11
-1.04
-0.84
-0.55
-0.23
0.05
0.27
0.42
0.51
0.56
0.59
0.62
0.67
0.76
0.87
0.98
1.04
1.00
0.83
0.54
0.20
-0.09
-0.26
-0.27
-0.17
-0.05
0.00
-0.06
-0.18
-0.27
-0.26
-0.15
-0.05
-0.08
-0.29
-0.62
-0.90
-0.98
-0.80
-0.45
-0.12
0.05
0.00
-0.15
-0.25
-0.22
-0.07
0.07
0.08
-0.08
-0.33
-0.52
-0.54
-0.37
-0.11
0.11
0.17
0.09
-0.05
-0.13
-0.09
0.03
0.17
0.24
0.23
0.18
0.17
0.22
0.34
0.45
0.51
0.48
0.38
0.26
0.15
0.07
0.00
-0.05
-0.08
-0.05
0.04
0.15
0.22
0.19
0.07
-0.09
-0.21
-0.23
-0.15
0.01
0.19
0.36
0.48
0.54
0.54
0.48
0.35
0.20
0.05
-0.06
-0.16
-0.28
-0.46
-0.68
-0.89
-1.00
-0.94
-0.74
-0.48
-0.28
-0.23
-0.32
-0.50
-0.67
-0.80
-0.89
-0.96
-0.99
-0.92
-0.68
-0.26
0.26
0.71
0.94
0.91
0.72
0.57
0.59
0.80
1.06
1.21
1.12
0.84
0.53
0.34
0.33
0.43
0.48
0.37
0.11
-0.19
-0.38
-0.34
-0.09
0.24
0.50
0.57
0.42
0.08
-0.36
-0.79
-1.11
-1.24
-1.13
-0.81
-0.34
0.13
0.49
0.65
0.61
0.41
0.16
-0.09
-0.28
-0.40
-0.43
-0.37
-0.24
-0.09
-0.02
-0.05
-0.19
-0.35
-0.41
-0.29
-0.02
0.30
0.54
0.59
0.44
0.16
-0.13
-0.32
-0.36
-0.26
-0.06
0.18
0.44
0.69
0.88
0.93
0.83
0.56
0.22
-0.08
-0.23
-0.18
0.01
0.27
0.51
0.65
0.69
0.66
0.58
0.48
0.39
0.34
0.35
0.41
0.47
0.47
0.36
0.14
-0.16
-0.47
-0.78
-1.03
-1.23
-1.31
-1.24
-0.98
-0.57
-0.10
0.30
0.49
0.44
0.23
-0.00
-0.11
-0.06
0.10
0.25
0.29
0.18
-0.02
-0.21
-0.36
-0.46
-0.55
-0.62
-0.63
-0.50
-0.24
0.09
0.34
0.37
0.13
-0.27
-0.66
-0.91
-0.95
-0.79
-0.50
-0.15
0.22
0.55
0.78
0.82
0.64
0.29
-0.10
-0.38
-0.47
-0.35
-0.11
0.13
0.29
0.32
0.24
0.11
-0.03
-0.15
-0.24
-0.28
-0.25
-0.16
-0.01
0.17
0.33
0.42
0.41
0.29
0.13
-0.00
-0.05
0.00
0.10
0.17
0.14
0.02
-0.13
-0.26
-0.35
-0.40
-0.43
-0.44
-0.41
-0.28
-0.07
0.17
0.37
0.46
0.43
0.30
0.13
-0.07
-0.27
-0.49
-0.66
-0.71
-0.59
-0.29
0.09
0.41
0.55
0.49
0.28
0.06
-0.07
-0.05
0.10
0.30
0.44
0.47
0.38
0.24
0.12
0.07
0.12
0.22
0.34
0.41
0.44
0.46
0.51
0.58
0.65
0.65
0.54
0.32
0.05
-0.20
-0.35
-0.37
-0.28
-0.17
-0.13
-0.20
-0.41
-0.64
-0.79
-0.75
-0.50
-0.14
0.19
0.36
0.34
0.19
0.03
-0.04
0.03
0.21
0.41
0.57
0.65
0.66
0.58
0.40
0.12
-0.23
-0.58
-0.83
-0.91
-0.83
-0.65
-0.48
-0.37
-0.32
-0.27
-0.13
0.09
0.33
0.47
0.43
0.22
-0.03
-0.19
-0.18
-0.04
0.10
0.15
0.07
-0.07
-0.19
-0.25
-0.29
-0.38
-0.54
-0.71
-0.77
-0.61
-0.20
0.31
0.78
1.04
1.03
0.80
0.47
0.18
0.01
-0.01
0.09
0.25
0.41
0.52
0.56
0.53
0.43
0.26
0.01
-0.29
-0.55
-0.68
-0.59
-0.29
0.10
0.43
0.55
0.43
0.14
-0.19
-0.42
-0.50
-0.48
-0.43
-0.41
-0.43
-0.42
-0.31
-0.06
0.27
0.56
0.69
0.60
0.34
0.01
-0.27
-0.43
-0.45
-0.38
-0.27
-0.14
-0.01
0.12
0.22
0.29
0.32
0.31
0.29
0.27
0.23
0.14
-0.03
-0.25
-0.50
-0.71
-0.84
-0.88
-0.84
-0.72
-0.56
-0.38
-0.22
-0.12
-0.11
-0.18
-0.27
-0.32
-0.24
-0.01
0.32
0.67
0.96
1.11
1.08
0.87
0.50
0.03
-0.46
-0.87
-1.13
-1.15
-0.94
-0.52
-0.01
0.47
0.81
0.93
0.84
0.63
0.41
0.32
0.38
0.56
0.76
0.87
0.81
0.58
0.23
-0.15
-0.46
-0.60
-0.53
-0.26
0.12
0.44
0.56
0.40
0.03
-0.40
-0.67
-0.68
-0.46
-0.16
0.03
-0.00
-0.23
-0.54
-0.76
-0.80
-0.67
-0.45
-0.26
-0.18
-0.23
-0.37
-0.53
-0.63
-0.64
-0.57
-0.46
-0.35
-0.26
-0.18
-0.08
0.09
0.32
0.56
0.74
0.78
0.66
0.42
0.14
-0.09
-0.21
-0.21
-0.14
-0.03
0.05
0.10
0.13
0.16
0.20
0.26
0.34
0.40
0.46
0.51
0.58
0.67
0.79
0.90
0.94
0.85
0.67
0.45
0.32
0.36
0.57
0.83
0.97
0.86
0.49
-0.06
-0.59
-0.93
-1.02
-0.88
-0.63
-0.37
-0.15
0.03
0.19
0.32
0.39
0.36
0.21
-0.02
-0.25
-0.39
-0.38
-0.25
-0.07
0.04
0.01
-0.17
-0.45
-0.74
-0.93
-0.98
-0.85
-0.59
-0.25
0.09
0.38
0.61
0.75
0.79
0.70
0.49
0.16
-0.23
-0.56
-0.74
-0.73
-0.56
-0.35
-0.20
-0.20
-0.30
-0.39
-0.35
-0.13
0.23
0.64
0.95
1.10
1.09
0.98
0.79
0.56
0.28
-0.05
-0.38
-0.66
-0.82
-0.87
-0.84
-0.83
-0.86
-0.93
-1.01
-1.07
-1.12
-1.16
-1.17
-1.09
-0.86
-0.43
0.13
0.67
1.02
1.07
0.84
0.49
0.22
0.18
0.38
0.70
0.93
0.95
0.73
0.35
-0.02
-0.26
-0.32
-0.26
-0.15
-0.04
0.05
0.12
0.17
0.17
0.12
0.05
0.01
0.07
0.25
0.49
0.67
0.71
0.56
0.29
-0.01
-0.22
-0.29
-0.22
-0.06
0.13
0.25
0.30
0.25
0.15
0.07
0.07
0.17
0.32
0.45
0.44
0.24
-0.12
-0.53
-0.86
-0.97
-0.85
-0.55
-0.19
0.12
0.30
0.35
0.28
0.12
-0.10
-0.37
-0.66
-0.92
-1.07
-1.04
-0.83
-0.48
-0.12
0.14
0.26
0.25
0.20
0.18
0.21
0.29
0.37
0.40
0.40
0.38
0.36
0.33
0.30
0.25
0.19
0.17
0.21
0.33
0.50
0.68
0.82
0.87
0.83
0.69
0.51
0.34
0.21
0.14
0.10
0.06
-0.02
-0.11
-0.18
-0.20
-0.18
-0.15
-0.15
-0.17
-0.19
-0.18
-0.14
-0.11
-0.14
-0.24
-0.37
-0.44
-0.40
-0.25
-0.10
-0.05
-0.15
-0.37
-0.59
-0.70
-0.66
-0.51
-0.32
-0.16
-0.07
-0.04
-0.04
-0.05
-0.03
0.03
0.14
0.28
0.39
0.46
0.50
0.53
0.62
0.77
0.93
1.03
0.97
0.75
0.45
0.20
0.07
0.09
0.17
0.21
0.14
-0.05
-0.27
-0.42
-0.41
-0.23
0.04
0.31
0.47
0.45
0.24
-0.08
-0.42
-0.70
-0.86
-0.90
-0.85
-0.75
-0.58
-0.35
-0.07
0.17
0.28
0.16
-0.20
-0.69
-1.14
-1.40
-1.37
-1.07
-0.61
-0.16
0.18
0.35
0.36
0.29
0.22
0.21
0.28
0.38
0.47
0.50
0.48
0.43
0.37
0.32
0.25
0.17
0.07
-0.02
-0.10
-0.14
-0.16
-0.21
-0.32
-0.49
-0.69
-0.86
-0.91
-0.79
-0.50
-0.10
0.33
0.68
0.89
0.96
0.92
0.85
0.81
0.82
0.87
0.91
0.93
0.89
0.83
0.72
0.58
0.37
0.08
-0.32
-0.78
-1.25
-1.63
-1.83
-1.83
-1.60
-1.21
-0.75
-0.31
0.01
0.20
0.25
0.21
0.16
0.14
0.22
0.41
0.71
1.03
1.25
1.25
0.96
0.42
-0.24
-0.81
-1.13
-1.09
-0.76
-0.28
0.15
0.38
0.34
0.07
-0.30
-0.65
-0.89
-1.00
-1.01
-0.95
-0.83
-0.64
-0.38
-0.06
0.25
0.53
0.74
0.93
1.14
1.36
1.56
1.63
1.52
1.21
0.78
0.35
0.04
-0.10
-0.10
-0.05
-0.05
-0.15
-0.32
-0.51
-0.61
-0.58
-0.41
-0.15
0.12
0.32
0.42
0.44
0.43
0.42
0.41
0.41
0.39
0.34
0.29
0.27
0.29
0.35
0.40
0.43
0.39
0.26
0.05
-0.23
-0.51
-0.71
-0.78
-0.70
-0.52
-0.36
-0.31
-0.41
-0.57
-0.67
-0.59
-0.31
0.09
0.44
0.62
0.61
0.48
0.36
0.33
0.36
0.38
0.25
-0.04
-0.45
-0.84
-1.07
-1.09
-0.96
-0.76
-0.57
-0.41
-0.26
-0.09
0.06
0.07
-0.17
-0.67
-1.36
-2.03
-2.48
-2.62
-2.50
-2.33
-2.33
-2.62
-3.18
-3.84
-4.42
-4.83
-5.09
-5.30
-5.58
-5.99
-6.54
-7.23
-8.06
-9.07
-10.22
-11.46
-12.67
-13.80
-14.93
-16.27
-18.09
-20.60
-23.75
-27.23
-30.59
-33.41
-35.54
-37.18
-38.80
-40.90
-43.78
-47.40
-51.39
-55.27
-58.77
-61.92
-65.04
-68.55
-72.69
-77.41
-82.53
-87.85
-93.14
-97.99
-101.56
-102.63
-99.83
-92.04
-78.75
-60.29
-37.87
-13.36
10.85
32.20
48.31
57.43
58.73
52.41
39.79
23.33
6.64
-5.89
-10.08
-3.37
13.95
38.42
64.40
86.28
100.58
106.94
107.52
105.36
102.62
99.89
96.65
92.31
87.05
81.77
77.50
74.65
72.82
71.10
68.73
65.55
62.09
59.31
57.98
58.33
59.97
62.15
64.09
65.37
66.00
66.34
66.84
67.89
69.64
72.11
75.16
78.61
82.18
85.68
89.13
92.99
98.19
105.74
116.04
128.08
139.10
144.95
141.23
124.79
94.64
52.07
0.00
-57.91
-117.85
-175.98
-228.40
-271.48
-302.58
-321.01
-328.52
-328.81
-326.11
-323.36
-320.99
-316.80
-307.22
-288.96
-260.51
-222.54
-177.21
-126.92
-73.15
-16.36
43.31
104.68
164.76
219.10
263.26
294.73
314.00
324.18
329.45
333.20
336.96
340.44
342.37
341.47
336.77
327.49
312.71
291.36
262.63
226.39
183.31
134.56
81.60
26.24
-29.02
-80.70
-124.70
-157.38
-176.94
-184.19
-182.26
-175.35
-167.07
-159.43
-152.72
-146.22
-139.22
-131.64
-124.05
-117.15
-111.30
-106.21
-101.18
-95.46
-88.71
-81.16
-73.55
-66.71
-61.15
-56.87
-53.37
-49.91
-45.90
-41.19
-36.05
-31.06
-26.78
-23.55
-21.31
-19.76
-18.49
-17.11
-15.45
-13.53
-11.52
-9.62
-8.00
-6.72
-5.72
-4.93
-4.33
-3.95
-3.86
-4.12
-4.65
-5.29
-5.86
-6.25
-6.54
-6.94
-7.70
-8.99
-10.80
-12.91
-15.01
-16.82
-18.28
-19.54
-20.96
-22.92
-25.62
-29.02
-32.74
-36.29
-39.29
-41.63
-43.63
-45.86
-48.94
-53.18
-58.48
-64.29
-69.89
-74.65
-78.28
-80.88
-82.76
-84.24
-85.44
-86.39
-87.28
-88.47
-90.37
-92.70
-94.13
-92.01
-83.07
-64.48
-34.83
5.54
55.01
111.56
173.18
237.54
301.09
358.45
402.94
428.35
431.14
411.89
375.03
326.97
273.45
217.82
160.92
102.57
43.62
-12.85
-62.00
-99.07
-121.57
-130.39
-129.36
-123.53
-116.97
-111.56
-106.99
-101.88
-95.19
-87.01
-78.49
-71.02
-65.48
-61.72
-58.85
-55.79
-51.81
-46.92
-41.73
-37.06
-33.52
-31.21
-29.79
-28.68
-27.48
-26.05
-24.62
-23.51
-22.95
-22.88
-22.96
-22.70
-21.65
-19.56
-16.52
-12.91
-9.32
-6.34
-4.36
-3.38
-3.06
-2.84
-2.22
-1.02
0.58
2.12
3.11
3.27
2.60
1.34
-0.15
-1.61
-2.89
-3.99
-4.99
-5.91
-6.77
-7.50
-8.07
-8.47
-8.76
-9.02
-9.36
-9.88
-10.61
-11.59
-12.79
-14.15
-15.64
-17.27
-19.11
-21.32
-24.07
-27.44
-31.31
-35.32
-38.94
-41.73
-43.58
-44.86
-46.27
-48.56
-52.11
-56.76
-61.80
-66.39
-69.89
-72.24
-73.90
-75.77
-78.99
-84.57
-93.26
-105.06
-118.67
-131.23
-138.54
-136.14
-120.66
-91.23
-50.15
-2.49
45.23
86.81
117.94
137.06
145.16
144.95
139.66
132.00
123.67
115.45
107.59
100.26
93.85
88.77
85.20
82.77
80.75
78.31
75.06
71.21
67.40
64.45
62.88
62.66
63.29
64.05
64.31
63.84
62.74
61.28
59.60
57.50
54.48
49.92
43.46
35.26
26.08
17.11
9.73
5.16
4.18
7.05
13.43
22.42
32.68
42.69
51.08
57.09
60.89
63.67
67.30
73.58
83.34
95.73
107.89
115.38
113.38
98.24
69.16
28.93
-16.46
-59.55
-93.75
-115.28
-124.03
-122.82
-115.71
-106.33
-96.84
-87.96
-79.78
-72.45
-66.48
-62.39
-60.20
-59.16
-58.01
-55.56
-51.27
-45.48
-39.25
-33.88
-30.27
-28.61
-28.30
-28.24
-27.38
-25.14
-21.66
-17.66
-14.08
-11.63
-10.48
-10.26
-10.28
-9.89
-8.77
-7.03
-5.09
-3.44
-2.40
-2.00
-2.05
-2.24
-2.33
-2.21
-1.89
-1.47
-1.05
-0.71
-0.46
-0.27
-0.12
0.01
0.13
0.22
0.25
0.22
0.10
-0.11
-0.39
-0.73
-1.06
-1.31
-1.40
-1.31
-1.05
-0.72
-0.45
-0.38
-0.53
-0.85
-1.22
-1.49
-1.59
-1.51
-1.33
-1.12
-0.93
-0.77
-0.64
-0.54
-0.45
-0.37
-0.31
-0.27
-0.27
-0.30
-0.36
-0.43
-0.48
-0.52
-0.54
-0.57
-0.61
-0.67
-0.74
-0.78
-0.77
-0.72
-0.63
-0.53
-0.43
-0.31
-0.18
-0.03
0.11
0.21
0.25
0.26
0.24
0.24
0.26
0.33
0.43
0.51
0.56
0.54
0.47
0.37
0.27
0.22
0.20
0.19
0.18
0.15
0.09
0.01
-0.09
-0.21
-0.32
-0.37
-0.35
-0.24
-0.06
0.12
0.23
0.25
0.19
0.07
-0.02
-0.02
0.10
0.36
0.72
1.11
1.44
1.58
1.48
1.17
0.69
0.18
-0.28
-0.64
-0.89
-1.03
-1.06
-0.98
-0.81
-0.59
-0.42
-0.37
-0.48
-0.70
-0.89
-0.94
-0.75
-0.37
0.09
0.42
0.52
0.36
0.05
-0.25
-0.38
-0.33
-0.11
0.15
0.40
0.59
0.71
0.76
0.72
0.58
0.38
0.21
0.15
0.26
0.50
0.76
0.90
0.85
0.65
0.38
0.15
0.01
-0.05
-0.12
-0.24
-0.45
-0.70
-0.90
-0.97
-0.88
-0.65
-0.40
-0.22
-0.18
-0.24
-0.32
-0.33
-0.23
-0.08
0.03
0.04
-0.03
-0.13
-0.17
-0.11
0.00
0.10
0.11
0.02
-0.09
-0.13
-0.03
0.20
0.51
0.78
0.96
1.01
0.97
0.88
0.80
0.75
0.71
0.68
0.64
0.57
0.47
0.36
0.26
0.22
0.25
0.32
0.34
0.22
-0.07
-0.45
-0.79
-0.94
-0.83
-0.56
-0.30
-0.22
-0.39
-0.70
-1.00
-1.12
-0.99
-0.66
-0.23
0.19
0.52
0.76
0.93
1.01
0.99
0.86
0.65
0.43
0.27
0.22
0.26
0.32
0.34
0.26
0.10
-0.06
-0.16
-0.19
-0.17
-0.15
-0.18
-0.26
-0.36
-0.45
-0.49
-0.50
-0.49
-0.47
-0.42
-0.29
-0.05
0.28
0.61
0.82
0.79
0.51
0.06
-0.41
-0.76
-0.89
-0.80
-0.57
-0.30
-0.09
-0.02
-0.11
-0.30
-0.53
-0.70
-0.71
-0.57
-0.33
-0.10
0.02
-0.00
-0.14
-0.30
-0.39
-0.37
-0.25
-0.09
0.05
0.12
0.09
-0.03
-0.21
-0.41
-0.56
-0.64
-0.61
-0.50
-0.33
-0.12
0.11
0.35
0.54
0.66
0.66
0.56
0.41
0.28
0.25
0.31
0.43
0.53
0.53
0.38
0.11
-0.22
-0.48
-0.55
-0.36
0.02
0.48
0.81
0.91
0.75
0.43
0.12
-0.05
-0.07
-0.02
-0.03
-0.16
-0.40
-0.64
-0.78
-0.79
-0.70
-0.58
-0.50
-0.45
-0.39
-0.29
-0.15
-0.01
0.05
-0.00
-0.13
-0.24
-0.24
-0.10
0.14
0.37
0.51
0.53
0.46
0.41
0.42
0.48
0.54
0.51
0.36
0.13
-0.12
-0.30
-0.38
-0.37
-0.32
-0.27
-0.25
-0.26
-0.27
-0.24
-0.14
0.02
0.20
0.34
0.35
0.22
-0.01
-0.24
-0.37
-0.36
-0.24
-0.09
0.00
-0.01
-0.09
-0.19
-0.24
-0.21
-0.10
0.07
0.26
0.43
0.52
0.49
0.35
0.14
-0.08
-0.22
-0.22
-0.10
0.11
0.33
0.51
0.61
0.61
0.54
0.44
0.33
0.28
0.30
0.40
0.52
0.57
0.46
0.17
-0.27
-0.75
-1.15
-1.37
-1.38
-1.21
-0.93
-0.59
-0.22
0.14
0.42
0.57
0.55
0.36
0.09
-0.14
-0.21
-0.09
0.14
0.36
0.46
0.42
0.27
0.12
0.03
0.03
0.09
0.21
0.37
0.54
0.71
0.81
0.80
0.62
0.32
-0.00
-0.23
-0.28
-0.16
0.04
0.22
0.30
0.26
0.13
-0.07
-0.28
-0.46
-0.60
-0.62
-0.52
-0.30
-0.01
0.28
0.54
0.76
0.96
1.11
1.18
1.09
0.78
0.30
-0.25
-0.71
-0.94
-0.92
-0.72
-0.49
-0.37
-0.44
-0.67
-0.96
-1.19
-1.26
-1.15
-0.89
-0.57
-0.24
0.01
0.19
0.28
0.31
0.30
0.27
0.26
0.27
0.32
0.38
0.40
0.34
0.19
-0.01
-0.20
-0.30
-0.28
-0.16
0.05
0.28
0.51
0.70
0.85
0.94
0.97
0.93
0.80
0.56
0.22
-0.19
-0.60
-0.90
-1.03
-0.96
-0.76
-0.55
-0.40
-0.37
-0.38
-0.36
-0.26
-0.08
0.08
0.13
0.04
-0.12
-0.20
-0.08
0.28
0.75
1.14
1.23
0.96
0.38
-0.31
-0.87
-1.16
-1.17
-0.97
-0.70
-0.47
-0.34
-0.32
-0.38
-0.48
-0.62
-0.73
-0.79
-0.73
-0.53
-0.22
0.15
0.47
0.64
0.61
0.41
0.14
-0.10
-0.22
-0.18
-0.01
0.24
0.52
0.78
1.00
1.16
1.23
1.17
0.97
0.63
0.23
-0.15
-0.42
-0.51
-0.44
-0.26
-0.05
0.14
0.32
0.51
0.70
0.86
0.91
0.76
0.43
-0.00
-0.42
-0.70
-0.77
-0.67
-0.46
-0.25
-0.15
-0.21
-0.40
-0.63
-0.76
-0.69
-0.42
-0.03
0.35
0.61
0.75
0.80
0.81
0.79
0.66
0.35
-0.13
-0.67
-1.07
-1.15
-0.88
-0.36
0.20
0.54
0.54
0.24
-0.17
-0.48
-0.55
-0.38
-0.09
0.19
0.37
0.46
0.54
0.64
0.76
0.82
0.78
0.63
0.42
0.21
0.04
-0.13
-0.31
-0.49
-0.61
-0.61
-0.47
-0.24
-0.05
0.02
-0.07
-0.25
-0.43
-0.56
-0.63
-0.68
-0.74
-0.78
-0.74
-0.62
-0.43
-0.27
-0.23
-0.35
-0.56
-0.73
-0.71
-0.44
0.03
0.58
1.05
1.31
1.30
1.08
0.73
0.36
0.05
-0.17
-0.32
-0.40
-0.40
-0.29
-0.02
0.36
0.80
1.15
1.31
1.26
1.03
0.75
0.56
0.51
0.61
0.75
0.82
0.73
0.44
0.00
-0.46
-0.85
-1.08
-1.11
-0.96
-0.67
-0.32
0.03
0.32
0.49
0.54
0.44
0.21
-0.13
-0.54
-0.97
-1.31
-1.47
-1.38
-1.05
-0.57
-0.11
0.20
0.31
0.28
0.22
0.19
0.19
0.11
-0.09
-0.40
-0.72
-0.89
-0.80
-0.47
0.00
0.47
0.83
1.03
1.09
1.05
0.89
0.62
0.23
-0.24
-0.69
-0.98
-1.02
-0.80
-0.40
0.06
0.41
0.54
0.44
0.20
-0.04
-0.13
-0.01
0.28
0.63
0.90
0.99
0.87
0.60
0.28
-0.00
-0.21
-0.33
-0.38
-0.41
-0.44
-0.51
-0.61
-0.72
-0.78
-0.73
-0.55
-0.29
-0.03
0.12
0.13
0.02
-0.12
-0.19
-0.19
-0.15
-0.16
-0.25
-0.43
-0.60
-0.67
-0.62
-0.47
-0.33
-0.30
-0.39
-0.56
-0.66
-0.58
-0.28
0.20
0.74
1.20
1.47
1.55
1.48
1.35
1.21
1.12
1.07
1.03
0.95
0.81
0.57
0.25
-0.11
-0.44
-0.67
-0.77
-0.76
-0.67
-0.57
-0.50
-0.51
-0.57
-0.69
-0.81
-0.86
-0.81
-0.62
-0.32
0.01
0.33
0.56
0.70
0.76
0.73
0.65
0.53
0.42
0.39
0.49
0.69
0.91
1.01
0.90
0.57
0.10
-0.38
-0.72
-0.85
-0.78
-0.58
-0.37
-0.26
-0.26
-0.36
-0.46
-0.50
-0.47
-0.42
-0.42
-0.49
-0.61
-0.69
-0.70
-0.60
-0.44
-0.28
-0.15
-0.03
0.13
0.35
0.60
0.82
0.89
0.79
0.51
0.16
-0.15
-0.33
-0.33
-0.18
0.06
0.32
0.54
0.67
0.70
0.60
0.38
0.07
-0.27
-0.58
-0.81
-0.94
-0.98
-0.92
-0.75
-0.45
-0.05
0.39
0.76
0.92
0.84
0.54
0.12
-0.27
-0.49
-0.48
-0.28
0.04
0.37
0.63
0.77
0.82
0.83
0.82
0.76
0.63
0.40
0.10
-0.17
-0.32
-0.30
-0.15
0.03
0.15
0.16
0.11
0.06
0.05
0.04
-0.03
-0.26
-0.63
-1.05
-1.36
-1.42
-1.20
-0.75
-0.21
0.25
0.54
0.65
0.62
0.51
0.36
0.16
-0.07
-0.30
-0.48
-0.58
-0.55
-0.43
-0.22
0.05
0.34
0.64
0.90
1.07
1.12
1.03
0.83
0.58
0.36
0.20
0.09
0.03
-0.02
-0.04
-0.03
-0.01
-0.01
-0.07
-0.19
-0.33
-0.41
-0.38
-0.22
0.01
0.21
0.30
0.22
0.03
-0.17
-0.31
-0.32
-0.21
-0.06
0.04
0.03
-0.07
-0.22
-0.33
-0.36
-0.30
-0.21
-0.14
-0.11
-0.09
-0.05
0.04
0.17
0.29
0.31
0.21
-0.01
-0.29
-0.55
-0.72
-0.76
-0.65
-0.43
-0.12
0.20
0.46
0.60
0.56
0.39
0.15
-0.11
-0.32
-0.50
-0.65
-0.78
-0.88
-0.88
-0.74
-0.48
-0.17
0.10
0.29
0.45
0.65
0.90
1.13
1.23
1.08
0.69
0.19
-0.25
-0.48
-0.48
-0.31
-0.08
0.12
0.30
0.48
0.68
0.84
0.88
0.74
0.45
0.11
-0.15
-0.25
-0.22
-0.13
-0.07
-0.10
-0.19
-0.31
-0.42
-0.52
-0.59
-0.65
-0.68
-0.65
-0.55
-0.40
-0.26
-0.15
-0.08
-0.01
0.10
0.25
0.41
0.53
0.56
0.50
0.36
0.16
-0.03
-0.19
-0.26
-0.24
-0.13
0.03
0.17
0.25
0.24
0.16
0.07
0.03
0.07
0.15
0.22
0.21
0.10
-0.08
-0.28
-0.40
-0.39
-0.21
0.07
0.37
0.58
0.62
0.50
0.25
-0.03
-0.26
-0.38
-0.37
-0.29
-0.18
-0.15
-0.23
-0.41
-0.60
-0.67
-0.52
-0.18
0.25
0.58
0.65
0.44
0.06
-0.32
-0.58
-0.67
-0.67
-0.65
-0.65
-0.62
-0.50
-0.28
-0.01
0.21
0.30
0.24
0.09
-0.06
-0.13
-0.09
0.03
0.20
0.38
0.53
0.61
0.59
0.48
0.30
0.11
-0.01
-0.01
0.11
0.30
0.48
0.62
0.68
0.70
0.72
0.76
0.79
0.77
0.67
0.49
0.26
0.07
-0.04
-0.03
0.05
0.14
0.13
-0.03
-0.31
-0.64
-0.91
-1.04
-1.01
-0.88
-0.75
-0.69
-0.70
-0.74
-0.70
-0.52
-0.21
0.13
0.37
0.41
0.25
-0.02
-0.27
-0.37
-0.32
-0.16
0.02
0.13
0.17
0.20
0.31
0.54
0.84
1.10
1.18
1.01
0.61
0.10
-0.34
-0.56
-0.48
-0.18
0.20
0.48
0.56
0.43
0.16
-0.14
-0.37
-0.48
-0.48
-0.39
-0.23
-0.03
0.15
0.29
0.32
0.24
0.08
-0.10
-0.23
-0.29
-0.32
-0.38
-0.50
-0.66
-0.81
-0.85
-0.70
-0.35
0.16
0.71
1.16
1.39
1.33
1.03
0.57
0.11
-0.22
-0.33
-0.25
-0.06
0.12
0.17
0.08
-0.11
-0.31
-0.43
-0.43
-0.36
-0.26
-0.21
-0.20
-0.22
-0.18
-0.05
0.14
0.33
0.42
0.36
0.14
-0.16
-0.44
-0.60
-0.60
-0.48
-0.29
-0.15
-0.11
-0.18
-0.32
-0.48
-0.63
-0.74
-0.80
-0.81
-0.77
-0.68
-0.58
-0.47
-0.41
-0.38
-0.36
-0.31
-0.18
0.01
0.21
0.36
0.37
0.22
-0.06
-0.36
-0.55
-0.52
-0.23
0.24
0.77
1.21
1.46
1.51
1.38
1.14
0.84
0.54
0.27
0.10
0.04
0.09
0.18
0.24
0.20
0.07
-0.11
-0.27
-0.37
-0.42
-0.41
-0.36
-0.24
-0.05
0.21
0.47
0.64
0.68
0.56
0.31
-0.01
-0.32
-0.55
-0.66
-0.61
-0.45
-0.20
0.05
0.25
0.36
0.35
0.26
0.12
-0.05
-0.19
-0.27
-0.25
-0.11
0.12
0.37
0.58
0.70
0.71
0.69
0.69
0.76
0.89
1.00
0.99
0.80
0.44
-0.03
-0.49
-0.82
-0.98
-0.99
-0.86
-0.67
-0.42
-0.17
0.07
0.24
0.29
0.25
0.13
0.02
-0.03
-0.03
-0.01
-0.03
-0.10
-0.19
-0.23
-0.20
-0.11
-0.07
-0.16
-0.45
-0.85
-1.23
-1.40
-1.30
-0.96
-0.54
-0.20
-0.05
-0.03
-0.04
0.04
0.20
0.36
0.37
0.15
-0.22
-0.60
-0.80
-0.73
-0.46
-0.16
0.01
-0.02
-0.19
-0.32
-0.30
-0.10
0.17
0.39
0.47
0.45
0.43
0.51
0.71
0.97
1.19
1.31
1.36
1.40
1.44
1.43
1.26
0.87
0.29
-0.31
-0.73
-0.84
-0.64
-0.23
0.21
0.54
0.69
0.70
0.62
0.52
0.45
0.41
0.39
0.33
0.18
-0.11
-0.51
-0.97
-1.38
-1.61
-1.63
-1.43
-1.09
-0.73
-0.43
-0.23
-0.11
-0.05
-0.00
0.04
0.06
0.07
0.05
0.01
-0.05
-0.08
-0.01
0.20
0.53
0.90
1.20
1.32
1.24
1.01
0.73
0.45
0.19
-0.07
-0.38
-0.70
-0.91
-0.93
-0.73
-0.39
-0.06
0.13
0.17
0.14
0.18
0.31
0.48
0.52
0.32
-0.12
-0.67
-1.14
-1.35
-1.29
-1.02
-0.70
-0.44
-0.28
-0.24
-0.29
-0.41
-0.62
-0.88
-1.14
-1.28
-1.19
-0.84
-0.26
0.43
1.05
1.46
1.60
1.50
1.30
1.09
0.95
0.84
0.73
0.57
0.41
0.29
0.26
0.32
0.39
0.41
0.34
0.24
0.16
0.17
0.26
0.37
0.42
0.35
0.18
0.01
-0.09
-0.09
-0.03
0.01
-0.03
-0.16
-0.29
-0.33
-0.26
-0.13
-0.07
-0.16
-0.42
-0.74
-0.94
-0.93
-0.71
-0.39
-0.16
-0.10
-0.23
-0.45
-0.63
-0.68
-0.59
-0.41
-0.21
-0.03
0.11
0.21
0.27
0.29
0.28
0.27
0.31
0.41
0.55
0.64
0.61
0.42
0.16
-0.03
-0.01
0.26
0.66
1.00
1.08
0.84
0.34
-0.24
-0.72
-1.00
-1.09
-1.07
-1.02
-0.99
-0.97
-0.97
-0.98
-1.00
-1.00
-0.94
-0.78
-0.53
-0.23
0.01
0.13
0.12
0.03
-0.05
-0.07
-0.04
0.01
0.02
0.01
0.03
0.13
0.33
0.56
0.73
0.75
0.61
0.39
0.19
0.10
0.14
0.24
0.34
0.39
0.40
0.39
0.38
0.37
0.34
0.30
0.26
0.28
0.39
0.55
0.71
0.79
0.78
0.68
0.58
0.52
0.52
0.53
0.49
0.36
0.17
-0.05
-0.24
-0.38
-0.47
-0.53
-0.53
-0.44
-0.22
0.10
0.46
0.74
0.87
0.83
0.68
0.50
0.36
0.31
0.30
0.31
0.27
0.18
0.03
-0.11
-0.17
-0.10
0.07
0.30
0.46
0.49
0.37
0.16
-0.05
-0.18
-0.21
-0.17
-0.12
-0.12
-0.22
-0.44
-0.77
-1.17
-1.53
-1.77
-1.80
-1.64
-1.37
-1.14
-1.12
-1.37
-1.89
-2.59
-3.31
-3.96
-4.45
-4.78
-4.97
-5.14
-5.44
-6.05
-7.17
-8.92
-11.28
-14.08
-17.08
-19.98
-22.65
-25.18
-27.90
-31.17
-35.24
-40.06
-45.33
-50.57
-55.38
-59.58
-63.38
-67.19
-71.52
-76.72
-82.72
-88.84
-93.82
-96.20
-94.86
-89.58
-81.35
-72.28
-64.95
-61.77
-64.37
-73.09
-86.64
-102.06
-115.22
-121.66
-117.80
-101.85
-74.36
-37.93
3.41
45.17
83.12
113.90
135.28
146.55
148.56
143.55
134.50
124.27
114.89
107.28
101.49
97.21
94.12
92.00
90.57
89.49
88.37
86.85
84.73
82.04
78.93
75.66
72.51
69.76
67.66
66.35
65.87
66.06
66.69
67.48
68.26
68.98
69.79
70.94
72.77
75.56
79.39
84.05
88.97
93.41
96.79
99.10
101.16
104.29
109.55
116.71
123.57
126.25
120.31
102.30
70.96
27.52
-24.85
-82.02
-139.62
-193.49
-239.84
-275.55
-298.80
-309.83
-311.14
-306.79
-300.79
-295.31
-289.69
-280.79
-264.58
-238.03
-200.39
-153.26
-99.40
-41.40
19.09
81.00
142.78
201.47
252.97
293.37
320.74
336.19
343.36
346.57
348.52
349.05
345.40
333.88
312.01
279.69
239.00
192.79
143.35
91.82
38.94
-13.79
-63.35
-105.57
-136.60
-154.57
-160.51
-157.86
-150.97
-143.46
-137.11
-132.00
-127.27
-122.10
-116.32
-110.33
-104.70
-99.78
-95.45
-91.31
-86.85
-81.76
-76.05
-70.07
-64.27
-59.07
-54.63
-50.90
-47.63
-44.61
-41.69
-38.89
-36.24
-33.70
-31.16
-28.50
-25.73
-23.04
-20.81
-19.38
-18.93
-19.34
-20.21
-21.10
-21.74
-22.17
-22.78
-24.08
-26.43
-29.83
-33.83
-37.80
-41.19
-43.90
-46.38
-49.46
-53.97
-60.38
-68.50
-77.57
-86.61
-94.81
-101.88
-108.15
-114.35
-121.42
-130.23
-141.47
-155.32
-171.14
-187.11
-200.16
-206.48
-202.63
-186.72
-159.13
-122.36
-79.87
-34.56
12.41
61.45
113.42
167.91
222.22
271.72
311.45
338.19
351.85
355.34
353.27
349.96
348.08
348.27
349.92
352.06
353.87
354.51
352.55
345.75
331.59
308.23
275.39
234.62
188.53
139.67
89.54
38.45
-13.53
-65.41
-114.54
-156.94
-188.69
-207.49
-213.64
-209.91
-200.25
-188.32
-176.40
-165.26
-154.78
-144.83
-135.62
-127.62
-121.10
-115.68
-110.48
-104.49
-97.14
-88.60
-79.67
-71.43
-64.68
-59.62
-55.81
-52.44
-48.73
-44.27
-39.19
-34.02
-29.42
-25.85
-23.41
-21.82
-20.61
-19.31
-17.64
-15.64
-13.54
-11.66
-10.22
-9.29
-8.72
-8.30
-7.78
-6.99
-5.85
-4.36
-2.57
-0.57
1.49
3.47
5.21
6.60
7.58
8.12
8.18
7.71
6.65
4.98
2.83
0.44
-1.86
-3.77
-5.08
-5.78
-5.97
-5.83
-5.56
-5.30
-5.12
-5.03
-5.03
-5.10
-5.23
-5.39
-5.54
-5.62
-5.62
-5.52
-5.35
-5.14
-4.92
-4.72
-4.49
-4.20
-3.82
-3.36
-2.92
-2.67
-2.78
-3.32
-4.20
-5.08
-5.51
-5.04
-3.44
-0.75
2.66
6.32
9.77
12.76
15.18
17.05
18.39
19.21
19.49
19.30
18.77
18.05
17.30
16.55
15.80
14.99
14.07
12.99
11.77
10.47
9.20
8.15
7.50
7.33
7.50
7.66
7.35
6.15
3.84
0.55
-3.37
-7.44
-11.19
-14.31
-16.66
-18.28
-19.26
-19.75
-19.85
-19.65
-19.18
-18.44
-17.48
-16.33
-15.09
-13.86
-12.76
-11.84
-11.14
-10.55
-9.85
-8.65
-6.51
-3.17
1.29
6.35
11.20
15.04
17.33
18.00
17.35
15.87
14.01
12.05
10.17
8.51
7.21
6.39
6.06
6.11
6.34
6.53
6.50
6.18
5.51
4.51
3.25
1.87
0.55
-0.55
-1.39
-2.11
-3.00
-4.33
-6.23
-8.50
-10.68
-12.24
-12.81
-12.51
-11.86
-11.72
-12.82
-15.51
-19.51
-24.06
-28.18
-31.08
-32.48
-32.69
-32.48
-32.74
-34.14
-36.74
-40.07
-43.26
-45.44
-46.11
-45.36
-43.82
-42.48
-42.47
-44.71
-49.56
-56.20
-62.29
-64.16
-57.72
-40.00
-10.67
27.35
68.63
107.03
137.87
159.36
172.66
180.68
186.26
190.60
192.92
191.07
182.73
166.49
142.30
111.36
75.82
38.41
2.12
-30.01
-55.34
-72.21
-80.38
-81.23
-77.27
-71.42
-66.10
-62.70
-61.53
-62.15
-63.83
-65.91
-67.89
-69.46
-70.50
-70.97
-70.88
-70.21
-69.14
-68.02
-67.42
-67.85
-69.44
-71.62
-73.26
-73.11
-70.41
-65.30
-58.93
-53.07
-49.53
-49.81
-54.70
-64.05
-76.35
-88.55
-96.10
-93.75
-77.05
-44.12
3.05
58.69
114.71
163.27
199.20
221.37
232.35
236.69
238.38
238.91
236.66
227.86
208.79
177.91
137.09
91.26
46.73
9.01
-18.67
-35.75
-43.80
-45.50
-43.69
-40.84
-38.78
-38.62
-40.62
-44.25
-48.43
-52.03
-54.23
-54.70
-53.43
-50.50
-46.00
-40.22
-33.82
-27.91
-23.65
-21.74
-21.97
-23.27
-24.26
-23.92
-22.02
-19.18
-16.37
-14.28
-12.92
-11.69
-9.89
-7.34
-4.61
-2.89
-3.30
-6.28
-11.18
-16.57
-20.79
-22.71
-22.17
-19.83
-16.84
-14.27
-12.72
-12.27
-12.57
-13.14
-13.60
-13.86
-14.11
-14.71
-15.98
-17.97
-20.33
-22.43
-23.59
-23.45
