1660751979.00
64.000000
-0.00
-0.00
-0.00
-0.00
-0.00
-0.00
-0.00
-0.00
-0.00
-0.00
0.00
0.01
0.01
-0.00
-0.03
-0.05
-0.05
0.00
0.13
0.36
0.66
1.01
1.37
1.72
2.06
2.40
2.79
3.24
3.80
4.42
5.06
5.66
6.20
6.68
7.15
7.68
8.31
9.14
10.09
11.04
11.88
12.56
13.14
13.76
14.65
15.96
17.91
20.32
22.90
25.38
27.58
29.57
31.68
34.32
37.81
42.54
48.15
54.10
59.83
64.97
69.58
74.14
79.34
85.71
93.76
103.00
112.62
121.73
129.77
136.75
143.30
150.75
157.77
166.64
177.95
191.79
206.97
220.57
228.25
225.36
208.53
176.87
132.76
80.05
23.07
-34.94
-92.44
-149.16
-205.23
-260.37
-313.74
-363.87
-409.83
-450.91
-486.50
-515.74
-537.23
-549.22
-549.96
-538.37
-514.21
-478.67
-433.88
-382.45
-327.02
-269.84
-212.63
-156.66
-102.95
-52.37
-5.90
35.58
71.42
101.35
125.50
144.39
158.71
169.18
176.40
180.75
182.52
181.94
179.29
174.94
169.31
162.82
155.79
148.45
140.92
133.25
125.50
117.72
110.01
102.46
95.12
88.03
81.18
74.54
68.11
61.91
55.99
50.44
45.31
40.59
36.22
32.10
28.09
24.17
20.36
16.79
13.63
10.97
8.81
7.00
5.30
3.49
1.44
-0.77
-2.88
-4.61
-5.74
-6.29
-6.53
-6.85
-7.64
-9.06
-10.97
-12.95
-14.56
-15.48
-15.72
-15.56
-15.45
-15.77
-16.77
-18.61
-21.32
-24.68
-28.00
-30.02
-29.17
-24.22
-15.02
-2.78
10.22
21.54
29.59
34.15
36.11
36.76
36.93
36.66
35.52
33.17
29.81
26.17
23.14
21.19
20.20
19.59
18.61
16.83
14.31
11.54
9.15
7.59
6.95
6.89
6.88
6.43
5.31
3.63
1.76
0.12
-0.99
-1.52
-1.61
-1.45
-1.17
-0.72
0.03
1.21
2.83
4.70
6.59
8.30
9.77
11.04
12.19
13.21
14.01
14.49
14.64
14.59
14.53
14.61
14.72
14.65
13.85
11.97
8.98
5.15
0.97
-3.09
-6.72
-9.82
-12.44
-14.65
-16.39
-17.53
-17.94
-17.61
-16.73
-15.60
-14.52
-13.68
-13.11
-12.68
-12.22
-11.63
-10.89
-10.05
-9.19
-8.39
-7.68
-7.06
-6.49
-5.96
-5.45
-4.94
-4.38
-3.75
-2.99
-2.15
-1.35
-0.77
-0.60
-0.93
-1.67
-2.50
-3.02
-2.86
-1.87
-0.21
1.77
3.59
4.83
5.25
4.81
3.63
1.99
0.23
-1.29
-2.31
-2.73
-2.62
-2.17
-1.60
-1.06
-0.59
-0.10
0.52
1.28
2.13
2.92
3.53
3.91
4.07
4.07
3.94
3.63
3.09
2.28
1.26
0.19
-0.72
-1.34
-1.64
-1.74
-1.84
-2.10
-2.58
-3.24
-4.04
-5.01
-6.25
-7.84
-9.69
-11.45
-12.57
-12.54
-11.07
-8.31
-4.75
-1.09
2.04
4.26
5.52
6.03
6.10
6.05
6.03
6.06
6.04
5.82
5.34
4.66
3.93
3.41
3.27
3.56
4.20
4.99
5.71
6.21
6.42
6.41
6.26
6.02
5.70
5.23
4.51
3.53
2.39
1.26
0.30
-0.47
-1.18
-2.03
-3.13
-4.43
-5.69
-6.69
-7.37
-7.93
-8.64
-9.70
-10.98
-12.04
-12.32
-11.39
-9.25
-6.24
-2.98
-0.04
2.22
3.72
4.61
5.07
5.22
5.10
4.69
4.02
3.17
2.33
1.70
1.38
1.37
1.55
1.79
1.94
2.00
1.97
1.93
1.93
1.98
2.03
2.00
1.80
1.34
0.66
-0.15
-0.95
-1.64
-2.25
-2.85
-3.58
-4.47
-5.42
-6.26
-6.88
-7.29
-7.70
-8.34
-9.30
-10.33
-10.97
-10.65
-9.04
-6.20
-2.63
0.98
3.98
6.03
7.13
7.50
7.46
7.22
6.84
6.29
5.56
4.71
3.92
3.37
3.19
3.39
3.81
4.26
4.55
4.60
4.43
4.10
3.70
3.29
2.87
2.44
1.98
1.46
0.83
0.06
-0.81
-1.72
-2.56
-3.25
-3.80
-4.27
-4.75
-5.28
-5.84
-6.35
-6.87
-7.50
-8.41
-9.62
-10.92
-11.87
-11.95
-10.83
-8.54
-5.44
-2.10
0.95
3.39
5.11
6.17
6.69
6.76
6.51
6.05
5.51
5.03
4.64
4.33
4.07
3.83
3.62
3.46
3.39
3.39
3.46
3.55
3.65
3.77
3.90
3.99
3.96
3.70
3.18
2.39
1.40
0.33
-0.70
-1.61
-2.38
-3.01
-3.50
-3.82
-3.96
-3.92
-3.81
-3.84
-4.24
-5.10
-6.36
-7.70
-8.66
-8.84
-8.03
-6.29
-3.97
-1.52
0.66
2.37
3.60
4.43
4.99
5.27
5.22
4.75
3.91
2.87
1.88
1.21
0.95
1.02
1.22
1.36
1.40
1.43
1.62
2.07
2.70
3.28
3.58
3.45
2.93
2.15
1.29
0.39
-0.52
-1.46
-2.39
-3.16
-3.66
-3.88
-3.93
-4.07
-4.56
-5.53
-6.93
-8.54
-10.04
-11.09
-11.36
-10.69
-9.06
-6.67
-3.84
-0.99
1.53
3.50
4.85
5.62
5.91
5.83
5.49
5.03
4.60
4.36
4.39
4.69
5.10
5.46
5.55
5.31
4.79
4.18
3.69
3.47
3.50
3.65
3.73
3.61
3.24
2.69
2.01
1.26
0.45
-0.43
-1.34
-2.20
-2.92
-3.48
-3.90
-4.29
-4.81
-5.61
-6.76
-8.22
-9.79
-11.13
-11.86
-11.67
-10.45
-8.34
-5.66
-2.82
-0.19
2.00
3.63
4.69
5.25
5.40
5.30
5.08
4.88
4.74
4.66
4.58
4.47
4.32
4.17
4.08
4.09
4.21
4.38
4.52
4.53
4.34
3.92
3.29
2.51
1.67
0.85
0.07
-0.70
-1.49
-2.34
-3.24
-4.14
-4.95
-5.58
-6.03
-6.34
-6.66
-7.17
-8.00
-9.14
-10.37
-11.34
-11.68
-11.11
-9.61
-7.35
-4.66
-1.89
0.64
2.74
4.27
5.18
5.50
5.31
4.76
4.04
3.41
3.09
3.22
3.80
4.71
5.67
6.39
6.67
6.47
5.97
5.45
5.20
5.36
5.89
6.55
7.02
7.02
6.36
5.12
3.50
1.86
0.49
-0.39
-0.81
-0.92
-0.97
-1.17
-1.68
-2.54
-3.74
-5.20
-6.74
-8.07
-8.78
-8.53
-7.14
-4.72
-1.70
1.32
3.76
5.30
5.89
5.76
5.26
4.68
4.18
3.73
3.32
2.90
2.56
2.43
2.61
3.10
3.72
4.26
4.51
4.41
4.04
3.61
3.29
3.10
2.96
2.68
2.09
1.14
-0.10
-1.41
-2.58
-3.42
-3.87
-4.00
-4.00
-4.09
-4.41
-5.02
-5.88
-6.89
-7.95
-8.99
-9.91
-10.52
-10.54
-9.71
-7.87
-5.11
-1.78
1.57
4.42
6.41
7.42
7.58
7.15
6.43
5.70
5.11
4.72
4.52
4.42
4.38
4.42
4.55
4.77
4.99
5.06
4.83
4.31
3.65
3.11
2.84
2.83
2.89
2.75
2.28
1.53
0.68
-0.05
-0.58
-0.94
-1.28
-1.67
-2.15
-2.64
-3.09
-3.49
-3.91
-4.51
-5.38
-6.53
-7.82
-8.93
-9.48
-9.13
-7.76
-5.52
-2.83
-0.23
1.84
3.12
3.60
3.44
2.86
2.04
1.16
0.35
-0.25
-0.53
-0.45
-0.05
0.54
1.14
1.59
1.85
1.93
1.90
1.87
1.88
1.96
2.07
2.12
2.04
1.75
1.24
0.56
-0.18
-0.80
-1.14
-1.11
-0.75
-0.25
0.14
0.16
-0.33
-1.31
-2.63
-4.01
-5.16
-5.81
-5.74
-4.85
-3.20
-0.98
1.44
3.67
5.41
6.50
6.97
6.97
6.70
6.29
5.86
5.44
5.05
4.67
4.35
4.11
4.05
4.21
4.60
5.11
5.56
5.76
5.59
5.09
4.40
3.72
3.16
2.72
2.32
1.91
1.47
1.08
0.78
0.54
0.28
-0.12
-0.75
-1.59
-2.56
-3.53
-4.44
-5.29
-6.15
-7.10
-8.08
-8.91
-9.24
-8.77
-7.35
-5.08
-2.37
0.30
2.50
4.04
4.97
5.44
5.56
5.38
4.89
4.12
3.27
2.57
2.25
2.41
2.95
3.66
4.29
4.70
4.81
4.66
4.33
3.91
3.49
3.12
2.85
2.64
2.45
2.15
1.66
0.94
0.07
-0.78
-1.40
-1.65
-1.54
-1.26
-1.08
-1.25
-1.87
-2.88
-4.08
-5.23
-6.14
-6.72
-6.93
-6.72
-6.03
-4.83
-3.20
-1.32
0.54
2.14
3.31
3.95
4.03
3.58
2.69
1.53
0.33
-0.68
-1.29
-1.41
-1.04
-0.30
0.65
1.66
2.58
3.30
3.76
3.95
3.95
3.83
3.64
3.34
2.87
2.18
1.27
0.20
-0.93
-1.98
-2.88
-3.56
-4.07
-4.46
-4.88
-5.42
-6.15
-7.04
-7.96
-8.69
-9.00
-8.75
-7.88
-6.42
-4.51
-2.33
-0.10
1.95
3.60
4.71
5.20
5.08
4.47
3.60
2.72
2.06
1.78
1.90
2.29
2.75
3.10
3.25
3.22
3.09
2.96
2.84
2.69
2.44
2.03
1.44
0.69
-0.16
-1.04
-1.84
-2.53
-3.07
-3.51
-3.93
-4.42
-4.96
-5.51
-6.01
-6.42
-6.77
-7.09
-7.30
-7.24
-6.68
-5.45
-3.59
-1.34
0.91
2.82
4.18
5.01
5.43
5.58
5.54
5.26
4.69
3.80
2.66
1.44
0.40
-0.28
-0.50
-0.30
0.17
0.77
1.38
1.97
2.55
3.13
3.69
4.11
4.32
4.24
3.94
3.55
3.21
3.02
2.92
2.73
2.22
1.21
-0.27
-2.01
-3.68
-4.98
-5.76
-6.17
-6.49
-7.02
-7.90
-8.93
-9.73
-9.83
-8.92
-7.03
-4.48
-1.74
0.75
2.73
4.15
5.10
5.68
5.89
5.67
4.96
3.84
2.56
1.46
0.82
0.78
1.21
1.77
2.16
2.16
1.86
1.51
1.40
1.68
2.26
2.85
3.13
2.90
2.18
1.19
0.19
-0.67
-1.40
-2.16
-3.14
-4.45
-6.08
-7.88
-9.71
-11.44
-12.96
-14.18
-14.96
-15.08
-14.33
-12.60
-9.96
-6.75
-3.40
-0.39
2.02
3.79
5.04
5.96
6.65
7.09
7.18
6.90
6.35
5.78
5.48
5.60
6.10
6.71
7.10
7.01
6.40
5.44
4.39
3.50
2.85
2.36
1.88
1.26
0.40
-0.70
-2.01
-3.50
-5.13
-6.85
-8.56
-10.14
-11.48
-12.55
-13.41
-14.13
-14.76
-15.21
-15.30
-14.81
-13.65
-11.82
-9.49
-6.82
-4.00
-1.16
1.51
3.80
5.45
6.34
6.48
6.04
5.31
4.56
3.94
3.50
3.26
3.27
3.59
4.22
5.07
5.87
6.32
6.25
5.77
5.27
5.27
6.14
7.88
10.04
11.95
12.94
12.72
11.40
9.46
7.43
5.68
4.28
3.15
2.10
1.05
-0.04
-1.18
-2.40
-3.78
-5.32
-6.91
-8.26
-8.97
-8.73
-7.37
-5.01
-2.01
1.14
3.88
5.78
6.63
6.45
5.48
4.12
2.73
1.56
0.64
-0.11
-0.82
-1.51
-2.08
-2.36
-2.20
-1.54
-0.47
0.84
2.22
3.54
4.72
5.74
6.61
7.33
7.96
8.52
9.06
9.59
10.10
10.52
10.79
10.81
10.53
9.93
9.06
8.03
6.93
5.84
4.71
3.47
2.01
0.36
-1.37
-2.94
-4.09
-4.68
-4.69
-4.31
-3.88
-3.73
-4.14
-5.14
-6.54
-8.04
-9.34
-10.32
-11.07
-11.81
-12.71
-13.73
-14.61
-15.04
-14.77
-13.82
-12.38
-10.74
-9.13
-7.64
-6.26
-5.01
-3.93
-3.09
-2.57
-2.33
-2.30
-2.38
-2.44
-2.41
-2.28
-2.11
-2.03
-2.22
-2.85
-3.98
-5.49
-7.08
-8.37
-8.99
-8.73
-7.52
-5.39
-2.42
1.32
5.71
10.56
15.60
20.42
24.51
27.33
28.45
27.69
25.23
21.63
17.66
14.12
11.55
10.04
9.30
8.74
7.79
6.04
3.45
0.21
-3.30
-6.74
-9.88
-12.67
-15.20
-17.55
-19.73
-21.68
-23.23
-24.21
-24.48
-23.98
-22.71
-20.68
-17.97
-14.76
-11.36
-8.28
-6.07
-5.19
-5.82
-7.73
-10.31
-12.71
-14.11
-13.94
-12.02
-8.64
-4.36
0.08
4.05
7.15
9.30
10.72
11.80
12.90
14.20
15.66
17.06
18.08
18.43
17.87
16.24
13.52
9.83
5.43
0.73
-3.83
-7.92
-11.40
-14.46
-17.49
-20.95
-25.10
-29.88
-34.86
-39.49
-43.24
-45.80
-47.10
-47.17
-46.02
-43.59
-39.78
-34.55
-28.02
-20.46
-12.18
-3.51
5.26
13.82
21.83
28.91
34.68
38.86
41.34
42.22
41.82
40.63
39.19
37.97
37.20
36.81
36.46
35.74
34.35
32.20
29.47
26.47
23.47
20.63
17.99
15.50
13.11
10.76
8.41
6.05
3.72
1.55
-0.24
-1.35
-1.55
-0.73
1.06
3.60
6.65
9.98
13.45
16.98
20.44
23.58
25.97
26.98
25.97
22.46
16.34
7.98
-1.69
-11.31
-19.38
-24.64
-26.53
-25.32
-22.03
-18.03
-14.48
-12.03
-10.64
-9.88
-9.19
-8.22
-6.89
-5.36
-3.86
-2.56
-1.58
-0.97
-0.75
-0.82
-0.99
-0.89
-0.11
1.65
4.53
8.33
12.58
16.63
19.73
21.26
20.88
18.57
14.72
10.05
5.44
1.73
-0.50
-1.13
-0.52
0.65
1.62
1.74
0.74
-1.35
-4.25
-7.55
-10.87
-13.85
-16.29
-18.04
-19.06
-19.34
-18.90
-17.69
-15.62
-12.56
-8.33
-2.81
4.07
12.20
21.21
30.37
38.57
44.45
46.73
44.54
37.75
27.17
14.35
1.30
-10.10
-18.50
-23.34
-24.83
-23.64
-20.58
-16.33
-11.43
-6.32
-1.52
2.36
4.73
5.21
3.85
1.06
-2.51
-6.23
-9.65
-12.57
-14.97
-16.91
-18.39
-19.36
-19.73
-19.51
-18.76
-17.69
-16.55
-15.53
-14.76
-14.24
-13.90
-13.69
-13.55
-13.40
-13.09
-12.40
-11.16
-9.31
-6.98
-4.50
-2.19
-0.29
1.20
2.39
3.48
4.59
5.75
6.97
8.21
9.51
10.93
12.55
14.51
16.97
20.14
24.09
28.66
33.34
37.34
39.72
39.68
36.78
31.20
23.72
15.55
7.99
2.05
-1.86
-4.03
-5.23
-6.28
-7.80
-9.96
-12.63
-15.57
-18.65
-21.87
-25.24
-28.62
-31.71
-34.21
-35.92
-36.90
-37.28
-37.15
-36.34
-34.49
-31.20
-26.32
-20.12
-13.26
-6.58
-0.89
3.34
6.01
7.41
7.99
8.18
8.29
8.41
8.54
8.62
8.69
8.79
8.94
9.06
9.03
8.72
8.17
7.55
7.20
7.35
8.08
9.19
10.29
11.01
11.10
10.54
9.53
8.34
7.23
6.34
5.66
5.07
4.44
3.67
2.77
1.80
0.85
-0.08
-1.02
-2.07
-3.32
-4.79
-6.44
-8.21
-9.96
-11.50
-12.56
-12.88
-12.32
-10.89
-8.86
-6.61
-4.51
-2.76
-1.34
-0.14
0.96
1.98
2.82
3.43
3.77
3.92
4.00
4.11
4.26
4.48
4.78
5.17
5.68
6.28
6.84
7.23
7.34
7.11
6.64
6.10
5.65
5.37
5.21
4.99
4.51
3.64
2.39
0.91
-0.58
-1.91
-3.01
-3.87
-4.53
-5.02
-5.37
-5.62
-5.84
-6.14
-6.61
-7.28
-8.10
-8.91
-9.48
-9.49
-8.64
-6.78
-3.99
-0.69
2.48
4.93
6.30
6.69
6.50
6.22
6.13
6.20
6.18
5.79
5.01
4.03
3.22
2.82
2.83
3.04
3.14
2.95
2.49
2.02
1.78
1.92
2.33
2.77
2.98
2.82
2.37
1.82
1.38
1.19
1.21
1.31
1.34
1.20
0.86
0.34
-0.30
-1.07
-1.95
-2.96
-4.07
-5.25
-6.46
-7.65
-8.77
-9.74
-10.42
-10.63
-10.24
-9.20
-7.55
-5.46
-3.14
-0.79
1.41
3.33
4.87
5.98
6.68
7.04
7.14
7.06
6.86
6.55
6.16
5.71
5.29
4.98
4.82
4.76
4.72
4.57
4.20
3.57
2.74
1.85
1.04
0.44
0.10
-0.04
-0.07
-0.12
-0.23
-0.42
-0.67
-0.96
-1.31
-1.74
-2.24
-2.74
-3.16
-3.44
-3.61
-3.78
-4.15
-4.81
-5.72
-6.64
-7.21
-7.07
-6.02
-4.11
-1.62
1.01
3.33
5.02
5.98
6.28
6.09
5.59
4.93
4.18
3.41
2.66
1.99
1.47
1.12
0.96
0.97
1.10
1.30
1.43
1.43
1.22
0.85
0.41
0.03
-0.25
-0.43
-0.62
-0.87
-1.20
-1.56
-1.91
-2.25
-2.65
-3.22
-3.97
-4.85
-5.68
-6.30
-6.65
-6.83
-7.03
-7.44
-8.14
-9.01
-9.75
-9.98
-9.37
-7.78
-5.32
-2.38
0.56
3.01
4.68
5.53
5.73
5.55
5.27
5.01
4.79
4.53
4.21
3.88
3.69
3.76
4.11
4.61
5.04
5.18
4.95
4.43
3.85
3.38
3.11
2.92
2.62
2.08
1.30
0.46
-0.25
-0.73
-1.02
-1.32
-1.76
-2.36
-2.99
-3.45
-3.62
-3.58
-3.49
-3.60
-4.07
-4.90
-5.96
-6.99
-7.66
-7.67
-6.88
-5.30
-3.16
-0.81
1.38
3.15
4.42
5.23
5.68
5.84
5.74
5.46
5.05
4.67
4.42
4.33
4.35
4.33
4.16
3.78
3.25
2.70
2.30
2.09
2.05
2.03
1.89
1.50
0.89
0.19
-0.48
-1.05
-1.56
-2.09
-2.69
-3.33
-3.93
-4.38
-4.66
-4.81
-4.92
-5.06
-5.29
-5.65
-6.16
-6.81
-7.53
-8.11
-8.24
-7.61
-6.04
-3.57
-0.54
2.58
5.31
7.30
8.41
8.73
8.47
7.87
7.17
6.50
5.94
5.55
5.37
5.39
5.62
5.96
6.28
6.42
6.32
6.00
5.57
5.16
4.82
4.52
4.18
3.76
3.26
2.74
2.25
1.79
1.29
0.70
0.03
-0.64
-1.24
-1.76
-2.27
-2.93
-3.82
-4.96
-6.24
-7.50
-8.54
-9.18
-9.23
-8.57
-7.17
-5.18
-2.88
-0.60
1.37
2.89
3.90
4.47
4.64
4.47
4.02
3.41
2.80
2.29
1.92
1.57
1.10
0.41
-0.48
-1.41
-2.18
-2.64
-2.75
-2.59
-2.30
-1.99
-1.70
-1.41
-1.07
-0.69
-0.36
-0.21
-0.38
-0.89
-1.64
-2.43
-3.07
-3.42
-3.50
-3.42
-3.34
-3.40
-3.73
-4.34
-5.15
-5.99
-6.65
-6.86
-6.45
-5.33
-3.55
-1.27
1.30
3.93
6.38
8.46
10.03
11.08
11.68
11.99
12.17
12.36
12.57
12.78
12.94
13.01
12.99
12.96
13.03
13.30
13.77
14.29
14.57
14.29
13.25
11.52
9.38
7.22
5.32
3.71
2.21
0.57
-1.34
-3.47
-5.60
-7.56
-9.33
-11.07
-13.02
-15.33
-17.95
-20.69
-23.28
-25.52
-27.36
-28.86
-30.17
-31.30
-32.18
-32.57
-32.17
-30.76
-28.32
-25.03
-21.31
-17.56
-14.09
-10.95
-7.96
-4.90
-1.68
1.59
4.54
6.76
7.99
8.24
7.84
7.23
6.85
6.89
7.29
7.82
8.22
8.37
8.36
8.38
8.62
9.08
9.58
9.84
9.69
9.21
8.71
8.51
8.79
9.45
10.15
10.55
10.45
9.94
9.24
8.63
8.21
7.92
7.58
7.00
6.09
4.93
3.68
2.55
1.76
1.45
1.65
2.31
3.28
4.35
5.34
6.06
6.35
6.13
5.38
4.12
2.44
0.47
-1.59
-3.51
-5.08
-6.13
-6.62
-6.62
-6.35
-6.02
-5.76
-5.56
-5.32
-4.90
-4.25
-3.45
-2.63
-1.93
-1.34
-0.82
-0.31
0.16
0.45
0.40
-0.03
-0.74
-1.46
-1.93
-1.99
-1.68
-1.18
-0.77
-0.67
-0.97
-1.63
-2.47
-3.32
-4.09
-4.81
-5.59
-6.48
-7.34
-7.81
-7.45
-5.97
-3.37
0.03
3.73
7.26
10.37
12.99
15.12
16.68
17.48
17.32
16.15
14.12
11.64
9.22
7.29
6.09
5.65
5.81
6.34
7.06
7.86
8.69
9.53
10.30
10.89
11.17
11.02
10.44
9.52
8.43
7.35
6.35
5.45
4.54
3.46
2.07
0.33
-1.70
-3.87
-6.01
-8.01
-9.88
-11.71
-13.58
-15.51
-17.42
-19.17
-20.70
-21.99
-23.06
-23.87
-24.20
-23.76
-22.31
-19.85
-16.68
-13.38
-10.55
-8.65
-7.77
-7.72
-8.18
-8.83
-9.49
-10.11
-10.76
-11.46
-12.16
-12.66
-12.74
-12.23
-11.08
-9.46
-7.63
-5.87
-4.34
-3.03
-1.81
-0.54
0.82
2.23
3.59
4.75
5.62
6.14
6.33
6.25
6.02
5.76
5.56
5.38
5.10
4.57
3.70
2.55
1.28
0.12
-0.78
-1.33
-1.53
-1.39
-0.91
-0.03
1.26
2.95
4.93
6.99
8.83
10.20
10.91
10.95
10.47
9.71
8.90
8.14
7.43
6.74
6.11
5.71
5.72
6.21
7.07
7.97
8.60
8.77
8.51
8.03
7.54
7.15
6.80
6.36
5.71
4.83
3.83
2.84
1.95
1.18
0.46
-0.29
-1.13
-1.99
-2.75
-3.26
-3.45
-3.38
-3.20
-3.02
-2.84
-2.43
-1.52
0.14
2.58
5.54
8.60
11.31
13.37
14.70
15.36
15.49
15.19
14.53
13.49
12.06
10.31
8.41
6.65
5.38
4.93
5.37
6.52
7.89
8.83
8.73
7.23
4.27
0.18
-4.57
-9.45
-14.02
-17.98
-21.16
-23.49
-24.93
-25.49
-25.26
-24.40
-23.13
-21.64
-20.05
-18.38
-16.52
-14.38
-11.96
-9.39
-6.95
-4.86
-3.19
-1.83
-0.51
1.08
3.05
5.34
7.68
9.77
11.36
12.37
12.81
12.75
12.33
11.67
10.96
10.40
10.14
10.15
10.25
10.16
9.63
8.63
7.36
6.11
5.15
4.59
4.31
4.10
3.76
3.24
2.63
2.12
1.92
2.18
2.95
4.13
5.44
6.34
6.13
4.09
-0.28
-6.95
-15.21
-23.74
-30.93
-35.38
-36.35
-34.00
-29.31
-23.65
-18.38
-14.41
-12.03
-11.07
-11.09
-11.68
-12.60
-13.73
-14.97
-16.15
-17.01
-17.36
-17.16
-16.54
-15.72
-14.79
-13.69
-12.17
-10.04
-7.34
-4.39
-1.71
0.17
0.99
0.79
-0.12
-1.32
-2.45
-3.25
-3.61
-3.51
-3.00
-2.22
-1.32
-0.55
-0.09
-0.08
-0.46
-0.98
-1.25
-0.81
0.62
3.08
6.29
9.78
13.01
15.54
17.12
17.76
17.67
17.15
16.53
16.02
15.68
15.44
15.13
14.64
13.97
13.23
12.56
12.05
11.65
11.28
10.84
10.33
9.82
9.37
9.00
8.63
8.14
7.47
6.60
5.59
4.51
3.43
2.39
1.43
0.64
0.06
-0.30
-0.54
-0.83
-1.40
-2.40
-3.85
-5.60
-7.36
-8.77
-9.45
-9.05
-7.39
-4.54
-0.85
3.07
6.55
9.05
10.38
10.76
10.67
10.63
10.91
11.51
12.16
12.58
12.61
12.28
11.77
11.19
10.57
9.87
8.99
7.91
6.68
5.44
4.31
3.41
2.74
2.26
1.84
1.33
0.58
-0.47
-1.72
-2.93
-3.84
-4.26
-4.19
-3.85
-3.55
-3.56
-4.03
-4.95
-6.15
-7.42
-8.53
-9.34
-9.80
-10.03
-10.21
-10.57
-11.26
-12.33
-13.71
-15.14
-16.30
-16.77
-16.12
-14.07
-10.60
-6.03
-1.04
3.57
7.14
9.38
10.46
10.80
10.88
10.98
11.10
11.12
10.91
10.46
9.89
9.35
8.93
8.57
8.20
7.71
7.11
6.47
5.86
5.33
4.84
4.35
3.78
3.13
2.41
1.67
0.99
0.44
0.09
-0.02
0.03
0.09
-0.03
-0.50
-1.38
-2.55
-3.78
-4.81
-5.43
-5.63
-5.53
-5.36
-5.35
-5.63
-6.20
-6.96
-7.74
-8.39
-8.85
-9.20
-9.58
-10.21
-11.24
-12.67
-14.36
-16.00
-17.19
-17.49
-16.56
-14.25
-10.69
-6.31
-1.75
2.26
5.21
6.89
7.49
7.43
7.19
7.10
7.27
7.58
7.87
8.00
7.95
7.75
7.47
7.18
6.90
6.66
6.50
6.45
6.46
6.48
6.37
6.01
5.33
4.38
3.26
2.15
1.20
0.47
-0.02
-0.33
-0.53
-0.70
-0.91
-1.21
-1.63
-2.21
-2.90
-3.64
-4.30
-4.79
-5.10
-5.30
-5.54
-5.94
-6.54
-7.27
-8.05
-8.86
-9.81
-11.07
-12.73
-14.72
-16.69
-18.11
-18.39
-17.15
-14.34
-10.29
-5.61
-1.03
2.83
5.59
7.16
7.73
7.58
7.02
6.22
5.27
4.23
3.20
2.29
1.66
1.33
1.25
1.25
1.16
0.90
0.50
0.10
-0.19
-0.32
-0.32
-0.28
-0.31
-0.46
-0.81
-1.32
-1.94
-2.48
-2.77
-2.70
-2.22
-1.44
-0.51
0.43
1.30
2.08
2.70
3.02
2.90
2.23
1.06
-0.40
-1.84
-3.02
-3.84
-4.36
-4.80
-5.42
-6.40
-7.81
-9.53
-11.24
-12.44
-12.59
-11.28
-8.43
-4.37
0.25
4.66
8.20
10.57
11.80
12.15
11.99
11.58
11.12
10.73
10.49
10.51
10.78
11.21
11.61
11.75
11.52
10.94
10.15
9.31
8.53
7.86
7.25
6.64
6.02
5.35
4.64
3.83
2.90
1.84
0.71
-0.41
-1.40
-2.14
-2.53
-2.57
-2.37
-2.10
-2.00
-2.22
-2.80
-3.60
-4.45
-5.15
-5.64
-5.94
-6.16
-6.35
-6.55
-6.75
-6.93
-7.04
-6.94
-6.40
-5.14
-2.97
0.10
3.83
7.79
11.49
14.58
16.86
18.34
19.15
19.46
19.46
19.31
19.12
18.94
18.75
18.43
17.88
17.03
15.86
14.42
12.79
11.05
9.26
7.49
5.75
4.07
2.53
1.19
0.09
-0.74
-1.42
-2.13
-3.07
-4.37
-5.99
-7.73
-9.36
-10.71
-11.80
-12.81
-13.86
-14.98
-15.96
-16.53
-16.54
-16.07
-15.48
-15.26
-15.80
-17.22
-19.24
-21.30
-22.71
-22.85
-21.40
-18.43
-14.42
-10.11
-6.24
-3.36
-1.65
-0.97
-1.03
-1.50
-2.17
-2.95
-3.75
-4.48
-4.97
-5.10
-4.81
-4.21
-3.44
-2.71
-2.08
-1.46
-0.69
0.42
1.89
3.55
5.11
6.26
6.82
6.80
6.37
5.73
5.06
4.45
3.92
3.48
3.11
2.79
2.47
2.09
1.58
0.97
0.32
-0.32
-0.93
-1.58
-2.41
-3.56
-5.12
-7.01
-8.97
-10.59
-11.38
-10.95
-9.13
-6.10
-2.35
1.46
4.70
6.97
8.16
8.46
8.20
7.71
7.22
6.82
6.52
6.24
5.95
5.66
5.43
5.33
5.36
5.44
5.48
5.37
5.14
4.91
4.82
4.92
5.14
5.27
5.05
4.35
3.21
1.87
0.66
-0.16
-0.45
-0.34
-0.09
-0.05
-0.46
-1.39
-2.70
-4.09
-5.26
-6.05
-6.47
-6.72
-7.02
-7.58
-8.46
-9.59
-10.71
-11.46
-11.39
-10.15
-7.59
-3.87
0.50
4.88
8.61
11.31
12.87
13.42
13.23
12.53
11.50
10.26
8.92
7.60
6.40
5.42
4.65
4.10
3.74
3.58
3.62
3.83
4.13
4.41
4.59
4.59
4.39
4.05
3.63
3.23
2.90
2.70
2.60
2.59
2.61
2.60
2.53
2.36
2.10
1.82
1.67
1.84
2.50
3.63
5.01
6.17
6.49
5.40
2.58
-1.86
-7.31
-12.79
-17.27
-19.99
-20.74
-19.90
-18.24
-16.57
-15.45
-15.04
-15.14
-15.44
-15.68
-15.76
-15.68
-15.51
-15.21
-14.69
-13.82
-12.46
-10.52
-7.96
-4.80
-1.13
2.95
7.29
11.72
15.97
19.66
22.34
23.62
23.28
21.38
18.30
14.56
10.74
7.25
4.30
1.95
0.13
-1.28
-2.40
-3.33
-4.13
-4.75
-5.16
-5.26
-5.08
-4.70
-4.28
-4.02
-4.09
-4.62
-5.65
-7.11
-8.74
-10.10
-10.62
-9.79
-7.41
-3.75
0.51
4.49
7.42
8.87
8.82
7.61
5.69
3.47
1.21
-0.99
-3.03
-4.80
-6.13
-6.84
-6.82
-6.16
-5.12
-4.10
-3.41
-3.16
-3.21
-3.23
-2.93
-2.24
-1.33
-0.56
-0.22
-0.40
-0.92
-1.43
-1.57
-1.12
-0.10
1.28
2.71
3.89
4.61
4.75
4.32
3.37
2.05
0.53
-0.98
-2.33
-3.41
-4.21
-4.85
-5.47
-6.21
-7.14
-8.14
-8.98
-9.36
-8.99
-7.78
-5.85
-3.52
-1.24
0.62
1.90
2.68
3.22
3.76
4.41
5.12
5.78
6.29
6.68
6.96
7.19
7.32
7.30
7.11
6.86
6.75
7.02
7.78
8.94
10.27
11.49
12.44
13.08
13.57
14.17
15.12
16.59
18.60
20.92
23.08
24.44
24.41
22.61
19.10
14.41
9.35
4.81
1.38
-0.74
-1.83
-2.43
-3.16
-4.51
-6.69
-9.63
-12.99
-16.28
-18.97
-20.67
-21.22
-20.72
-19.44
-17.75
-15.99
-14.40
-13.10
-12.07
-11.17
-10.13
-8.59
-6.21
-2.76
1.78
7.15
12.86
18.26
22.67
25.51
26.40
25.26
22.31
18.03
13.09
8.17
3.84
0.43
-1.99
-3.52
-4.35
-4.65
-4.58
-4.23
-3.75
-3.32
-3.15
-3.42
-4.17
-5.26
-6.42
-7.34
-7.83
-7.91
-7.75
-7.57
-7.57
-7.80
-8.24
-8.80
-9.38
-9.92
-10.32
-10.42
-10.00
-8.85
-6.86
-4.09
-0.80
2.63
5.80
8.44
10.46
11.91
12.90
13.53
13.82
13.69
13.09
12.03
10.67
9.26
8.09
7.35
7.07
7.13
7.30
7.40
7.32
7.03
6.54
5.85
4.96
3.86
2.61
1.29
0.03
-1.11
-2.13
-3.09
-4.09
-5.15
-6.24
-7.28
-8.21
-9.06
-9.93
-10.99
-12.29
-13.81
-15.35
-16.57
-17.08
-16.51
-14.67
-11.58
-7.58
-3.22
0.79
3.93
5.92
6.87
7.08
6.95
6.71
6.41
6.01
5.46
4.84
4.31
4.06
4.15
4.54
5.10
5.73
6.41
7.15
8.00
8.97
10.03
11.10
12.11
12.98
13.64
14.03
14.05
13.63
12.69
11.19
9.14
6.68
4.08
1.69
-0.14
-1.24
-1.64
-1.69
-1.85
-2.63
-4.38
-7.18
-10.89
-15.11
-19.29
-22.86
-25.38
-26.63
-26.71
-25.91
-24.65
-23.26
-21.96
-20.80
-19.69
-18.42
-16.75
-14.44
-11.35
-7.50
-3.12
1.41
5.70
9.48
12.64
15.21
17.26
18.87
20.05
20.79
21.07
20.84
20.08
18.76
16.97
14.97
13.14
11.84
11.30
11.40
11.78
11.95
11.48
10.16
8.07
5.45
2.60
-0.19
-2.79
-5.15
-7.32
-9.43
-11.60
-13.97
-16.54
-19.18
-21.50
-22.96
-23.01
-21.29
-17.83
-13.10
-7.93
-3.24
0.23
2.14
2.56
1.86
0.54
-0.92
-2.21
-3.12
-3.51
-3.33
-2.52
-1.13
0.69
2.65
4.36
5.47
5.79
5.36
4.39
3.21
2.07
1.11
0.36
-0.14
-0.32
-0.01
0.95
2.51
4.44
6.31
7.64
8.16
7.80
6.70
5.08
3.07
0.67
-2.22
-5.62
-9.37
-13.04
-16.07
-17.89
-18.10
-16.62
-13.66
-9.66
-5.15
-0.63
3.49
6.94
9.61
11.46
12.54
12.90
12.64
11.86
10.72
9.38
8.02
6.77
5.66
4.67
3.70
2.68
1.57
0.43
-0.62
-1.46
-2.01
-2.29
-2.40
-2.48
-2.64
-2.93
-3.30
-3.59
-3.63
-3.30
-2.61
-1.70
-0.85
-0.36
-0.51
-1.43
-3.12
-5.46
-8.21
-11.07
-13.69
-15.62
-16.40
-15.68
-13.36
-9.73
-5.42
-1.19
2.31
4.79
6.31
7.15
7.65
7.96
8.01
7.62
6.65
5.12
3.30
1.56
0.28
-0.32
-0.31
0.07
0.53
0.91
1.26
1.76
2.63
3.93
5.55
7.20
8.54
9.25
9.12
8.06
6.10
3.41
0.31
-2.84
-5.71
-8.06
-9.82
-10.97
-11.54
-11.60
-11.27
-10.75
-10.28
-9.98
-9.79
-9.46
-8.65
-7.19
-5.20
-3.08
-1.37
-0.42
-0.28
-0.63
-0.99
-0.93
-0.28
0.86
2.14
3.20
3.80
3.97
4.01
4.31
5.23
6.84
8.90
10.92
12.35
12.84
12.43
11.57
10.95
11.20
12.58
14.83
17.25
19.00
19.48
18.64
16.96
15.36
14.90
16.58
21.08
28.36
37.33
45.68
50.28
48.32
38.76
23.32
6.25
-7.09
-12.49
-8.48
3.39
19.78
37.25
53.47
67.30
78.18
85.56
88.97
88.48
85.14
80.70
76.89
74.70
74.08
74.31
74.65
74.69
74.14
72.58
69.21
63.25
54.58
44.12
33.76
25.56
20.92
19.95
21.64
24.38
26.89
28.88
31.14
35.04
41.62
50.88
61.74
72.81
83.38
94.10
106.76
123.32
144.70
170.00
196.56
220.90
239.84
251.53
255.88
254.34
249.14
242.42
235.55
228.85
221.87
213.94
204.80
194.86
185.01
176.08
168.26
161.01
153.37
144.50
134.18
122.77
110.89
98.95
86.90
74.31
60.61
45.50
29.17
12.26
-4.38
-20.02
-34.30
-47.36
-59.70
-71.88
-84.22
-96.52
-108.17
-118.36
-126.40
-131.95
-135.07
-136.14
-135.77
-134.63
-133.47
-133.02
-133.89
-136.45
-140.68
-146.20
-152.36
-158.37
-163.42
-166.77
-167.68
-165.58
-160.22
-151.82
-141.11
-129.18
-117.17
-105.86
-95.46
-85.59
-75.47
-64.25
-51.39
-36.92
-21.44
-5.99
8.28
20.42
29.96
36.86
41.44
44.13
45.35
45.35
44.36
42.57
40.17
37.40
33.07
26.45
17.83
8.16
-1.90
-12.19
-22.62
-32.75
-41.80
-50.23
-58.32
-65.70
-71.90
-77.26
-82.85
-89.72
-98.13
-107.26
-118.59
-131.92
-144.38
-152.22
-153.71
-149.93
-143.44
-136.85
-131.85
-137.84
-159.42
-192.36
-227.13
-256.62
-278.72
-294.43
-305.50
-313.41
-337.08
-387.14
-456.67
-527.79
-586.91
-630.20
-659.74
-679.08
-691.17
-726.75
-803.47
-910.99
-1021.24
-1112.80
-1179.59
-1224.89
-1254.35
-1272.56
-1319.76
-1419.33
-1557.83
-1698.65
-1813.66
-1894.62
-1945.59
-1973.70
-1749.47
-1191.71
-426.93
316.71
894.49
1283.37
1520.85
1655.18
1726.25
1759.11
1738.21
1651.30
1516.01
1370.14
1241.93
1139.07
1055.87
981.45
911.34
824.37
713.02
595.96
504.01
456.26
452.39
479.39
520.25
560.68
574.27
547.66
490.14
424.17
367.44
325.79
297.42
278.66
267.34
253.81
231.44
201.81
171.53
145.57
124.79
108.26
95.31
86.17
78.10
68.54
57.42
46.34
36.37
27.47
19.30
11.89
5.83
1.72
-0.56
-1.57
-2.15
-3.05
-4.78
-7.48
-10.89
-14.51
-17.81
-20.54
-22.63
-24.19
-25.35
-26.27
-27.00
-27.54
-27.72
-27.23
-25.68
-22.70
-18.06
-11.83
-4.28
3.99
12.23
19.76
26.17
31.37
35.55
39.04
42.20
45.31
48.47
51.48
53.66
54.00
51.37
45.03
35.17
23.04
10.66
-0.01
-7.70
-12.30
-14.66
-16.02
-17.39
-19.13
-21.06
-22.70
-23.66
-23.82
-23.26
-22.16
-20.76
-19.38
-18.33
-17.80
-17.92
-18.78
-20.44
-23.05
-26.57
-30.85
-35.61
-40.35
-44.51
-47.69
-49.86
-51.29
-52.51
-53.74
-55.05
-56.28
-57.13
-57.33
-56.76
-55.34
-52.92
-50.84
-49.42
-48.51
-47.81
-47.07
-46.24
-45.46
-44.82
-44.25
-43.43
-41.76
-39.04
-35.57
-32.06
-29.30
-27.84
-27.82
-29.12
-31.57
-34.71
-38.01
-40.61
-41.34
-39.06
-33.23
-24.31
-13.79
-3.68
4.40
9.64
12.27
13.25
13.68
14.38
15.58
17.00
18.10
18.47
17.92
16.56
14.76
12.98
11.70
11.29
12.02
14.07
17.49
22.14
27.58
33.10
37.78
40.77
41.62
40.43
37.86
34.83
32.21
30.46
29.51
28.87
27.80
25.55
21.52
15.34
7.07
-2.82
-13.31
-23.01
-30.44
-34.40
-34.43
-30.93
-25.09
-18.46
-12.50
-8.13
-5.51
-4.21
-3.47
-2.58
-0.99
1.62
5.47
10.57
16.63
22.96
28.57
32.49
34.20
33.82
31.98
29.41
26.52
23.20
19.12
14.06
8.30
2.57
-2.27
-5.66
-7.53
-8.21
-8.12
-7.51
-6.30
-4.21
-0.94
3.62
9.39
16.12
23.55
31.42
39.46
47.32
54.55
60.72
65.51
68.89
71.09
72.44
73.24
73.57
73.31
72.23
70.15
66.95
62.62
57.12
50.44
42.69
34.24
25.72
17.94
11.62
7.12
4.34
2.68
1.34
-0.42
-3.06
-6.63
-10.89
-15.40
-19.70
-23.38
-26.16
-27.88
-28.53
-28.27
-27.38
-26.23
-25.07
-23.89
-22.36
-19.97
-16.23
-10.95
-4.47
2.52
9.21
15.09
20.17
24.85
29.67
34.87
40.24
45.15
48.98
51.53
53.29
55.38
59.21
65.94
75.99
88.69
102.14
113.46
119.39
117.17
105.53
85.37
59.76
33.14
9.94
-6.74
-15.98
-18.89
-17.83
-15.31
-13.21
-12.55
-13.76
-17.02
-22.44
-29.91
-38.88
-48.17
-56.23
-61.54
-63.25
-61.45
-57.19
-52.08
-47.66
-44.86
-43.80
-43.80
-43.84
-42.98
-40.67
-36.83
-31.66
-25.44
-18.36
-10.52
-2.07
6.71
15.33
23.18
29.72
34.65
37.90
39.63
40.08
39.47
38.07
36.17
34.20
32.70
32.17
32.87
34.69
37.10
39.29
40.56
40.68
40.15
40.06
41.75
46.11
53.14
61.72
69.88
75.40
76.41
71.94
62.03
47.76
30.99
14.13
-0.36
-10.45
-15.08
-14.50
-10.20
-4.43
0.55
3.14
2.72
-0.35
-5.13
-10.48
-15.46
-19.46
-22.34
-24.28
-25.71
-27.04
-28.48
-29.94
-31.07
-31.53
-31.13
-30.01
-28.51
-26.94
-25.37
-23.31
-19.78
-13.53
-3.40
11.20
29.91
51.08
71.97
89.06
98.81
98.55
87.20
65.69
36.95
5.32
-24.40
-47.97
-62.62
-67.60
-64.04
-54.43
-41.75
-28.72
-17.25
-8.37
-2.22
1.63
4.08
6.38
9.88
15.69
24.14
34.44
44.53
51.61
52.93
46.78
33.13
13.71
-8.47
-30.01
-48.01
-60.61
-67.14
-67.89
-63.74
-55.89
-45.68
-34.57
-24.01
-15.33
-9.48
-6.84
-7.15
-9.74
-13.66
-17.89
-21.68
-24.70
-26.98
-28.80
-30.41
-31.98
-33.58
-35.15
-36.46
-37.29
-37.54
-37.22
-36.35
-34.80
-32.32
-28.63
-23.55
-16.82
-8.55
0.63
9.77
17.97
24.76
30.12
34.39
38.07
42.73
49.57
58.93
70.08
81.64
92.15
100.51
106.25
109.63
113.74
121.40
133.85
150.16
168.20
186.08
202.83
218.34
232.82
249.71
271.12
296.58
323.14
347.17
366.20
379.17
385.70
385.57
383.06
381.75
382.94
384.92
384.87
380.62
371.31
357.13
311.95
224.07
99.85
-37.64
-162.85
-260.64
-328.76
-372.76
-400.43
-418.21
-426.00
-422.87
-409.28
-389.31
-369.08
-354.56
-350.02
-357.91
-379.47
-412.41
-451.18
-486.63
-511.15
-517.40
-499.60
-455.88
-390.21
-311.93
-231.12
-157.24
-96.78
-52.47
-22.91
-4.26
7.38
14.61
18.68
21.16
23.41
25.77
27.01
25.50
20.26
11.62
0.83
-10.01
-18.49
-22.90
-22.74
-18.85
-12.54
-5.27
1.54
6.71
9.52
9.90
8.56
6.70
5.43
5.51
7.03
9.54
12.39
15.27
18.28
21.56
25.33
29.52
33.70
37.24
39.50
40.05
38.81
35.98
31.92
27.18
22.33
17.90
14.30
11.61
9.57
7.66
5.28
2.01
-2.22
-7.08
-12.09
-16.76
-20.85
-24.36
-27.49
-30.41
-33.14
-35.43
-36.92
-37.30
-36.47
-34.59
-32.05
-29.33
-26.85
-24.95
-23.71
-23.04
-22.71
-22.48
-22.30
-22.47
-23.66
-26.66
-32.08
-39.97
-49.69
-60.16
-70.32
-79.58
-88.12
-96.72
-106.19
-117.02
-128.85
-140.62
-150.92
-158.33
-161.74
-160.33
-153.64
-141.58
-124.74
-104.37
-82.21
-59.69
-37.33
-14.33
10.79
39.19
70.56
102.85
132.87
157.68
175.85
187.95
196.10
202.92
210.25
218.47
226.52
232.65
235.30
233.98
229.49
223.47
217.53
212.27
207.04
200.26
190.50
177.43
162.18
146.88
133.56
123.31
115.73
109.48
103.02
95.63
87.82
81.31
78.39
80.71
88.32
99.12
109.42
115.18
113.49
103.70
87.35
67.24
45.87
24.70
4.04
-16.18
-35.54
-52.87
-66.73
-76.25
-81.55
-83.65
-83.77
-82.69
-80.46
-76.71
-71.19
-64.13
-56.32
-48.91
-42.91
-38.89
-36.88
-36.41
-36.77
-37.36
-37.97
-38.96
-41.14
-45.36
-52.04
-60.79
-70.52
-79.76
-87.22
-92.07
-94.02
-93.23
-90.14
-85.43
-79.99
-74.85
-70.86
-68.48
-67.62
-67.73
-68.12
-68.18
-67.56
-66.06
-63.51
-59.68
-54.46
-48.03
-40.99
-34.28
-28.89
-25.49
-24.26
-24.90
-26.86
-29.53
-32.43
-35.21
-37.70
-39.83
-41.60
-43.05
-44.16
-44.77
-44.65
-43.51
-41.24
-37.94
-33.98
-29.79
-25.71
-21.78
-17.79
-13.47
-8.72
-3.70
1.22
5.84
10.36
15.58
22.77
33.10
47.05
63.95
81.99
98.71
111.89
120.28
124.01
124.66
124.75
127.05
133.76
145.95
163.37
184.75
208.54
233.54
259.31
285.97
313.77
342.47
371.01
397.47
419.28
433.57
437.40
428.46
406.15
372.76
333.80
296.79
268.68
252.85
247.63
247.03
243.53
231.53
209.27
178.54
142.64
104.47
66.12
29.91
-0.45
-19.97
-24.51
-13.54
8.47
33.15
51.65
58.28
52.60
38.63
22.21
7.98
-2.34
-9.68
-16.18
-23.63
-32.66
-42.93
-53.78
-64.66
-75.41
-86.27
-97.43
-108.94
-120.51
-131.58
-141.42
-149.32
-154.81
-157.84
-158.87
-158.75
-158.56
-159.37
-161.94
-166.57
-173.25
-181.76
-192.05
-204.37
-219.28
-237.61
-260.29
-288.39
-322.88
-364.13
-410.95
-459.84
-504.89
-538.92
-555.65
-551.89
-528.78
-491.26
-446.09
-399.42
-355.07
-314.24
-276.41
-240.59
-206.15
-172.91
-140.85
-109.82
-79.72
-50.86
-24.26
-1.38
16.40
28.58
36.02
40.90
46.13
54.37
67.04
83.87
103.02
121.90
138.15
150.43
158.47
162.36
161.88
155.87
142.46
119.84
87.12
44.48
-7.01
-65.72
-129.23
-193.65
-252.93
-299.34
-325.39
-326.42
-302.54
-258.81
-203.41
-144.46
-87.25
-33.13
19.08
70.20
118.25
157.83
182.01
185.73
168.35
133.85
88.37
37.19
-17.47
-75.21
-134.45
-189.81
-232.02
-250.96
-239.98
-199.02
-134.77
-58.22
18.92
86.53
136.84
164.28
165.86
142.28
98.90
45.10
-8.72
-53.79
-85.42
-103.76
-112.99
-119.68
-130.45
-149.96
-179.51
-218.23
-261.74
-302.98
-333.99
-348.46
-343.96
-322.18
-287.63
-245.48
-203.38
-167.05
-138.64
-116.04
-94.07
-66.66
-29.19
19.91
78.11
133.04
169.53
175.47
146.69
87.96
10.05
-74.65
-155.81
-227.22
-294.20
-365.09
-444.84
-531.56
-617.78
-695.21
-758.54
-806.36
-792.12
-685.61
-482.59
-210.70
83.54
357.77
587.68
766.40
897.67
984.53
1033.91
1049.87
1037.48
1005.51
965.13
925.97
893.32
867.97
849.68
831.64
806.43
770.56
725.84
677.66
631.34
589.77
553.23
520.41
486.26
445.53
395.82
338.37
276.94
215.39
156.20
100.31
47.86
-2.64
-52.68
-102.21
-149.40
-191.65
-226.94
-254.68
-275.56
-290.94
-302.66
-312.30
-320.48
-326.98
-331.58
-334.70
-337.74
-342.73
-351.52
-365.10
-383.38
-405.45
-430.11
-456.58
-485.02
-516.32
-551.85
-593.23
-642.01
-699.25
-764.45
-834.34
-902.14
-958.24
-992.56
-997.77
-971.86
-918.66
-846.03
-762.58
-674.81
-585.93
-496.67
-407.11
-318.13
-231.72
-150.17
-75.01
-6.61
55.42
111.38
160.87
203.20
237.35
262.79
279.79
289.56
294.03
295.21
294.63
292.90
290.22
286.25
280.52
272.56
262.06
248.87
232.98
214.50
193.68
171.98
151.11
132.66
117.45
105.31
95.36
86.46
77.70
68.87
63.08
63.98
74.25
93.99
120.61
149.98
178.10
202.10
221.00
240.61
267.57
306.45
357.27
415.96
476.83
534.43
583.63
619.36
644.52
662.97
678.05
691.14
702.52
713.03
724.27
736.93
750.13
772.20
811.48
873.37
957.16
1057.04
1165.85
1277.60
1387.20
1426.90
1346.18
1127.66
803.21
437.26
92.15
-194.15
-410.21
-562.80
-667.29
-729.99
-754.22
-743.22
-704.60
-650.75
-595.03
-548.27
-516.44
-500.79
-491.03
-475.55
-446.32
-403.27
-352.91
-303.69
-262.65
-233.10
-215.03
-201.27
-184.02
-158.11
-123.37
-83.82
-44.75
-10.86
15.41
33.68
47.13
59.22
71.89
84.21
92.57
96.85
95.76
88.94
76.86
61.41
44.66
28.16
12.57
-2.12
-16.04
-29.72
-43.19
-56.20
-68.41
-79.58
-89.59
-98.38
-105.86
-111.78
-116.31
-119.42
-121.11
-121.49
-120.77
-119.28
-117.20
-114.57
-111.18
-106.99
-101.97
-96.30
-90.49
-85.32
-81.59
-79.92
-80.48
-83.12
-87.71
-94.15
-102.48
-112.67
-124.47
-137.40
-150.96
-164.86
-179.01
-193.18
-206.56
-217.76
-225.45
-229.30
-230.59
-231.88
-235.89
-243.99
-255.41
-267.45
-276.64
-280.10
-276.35
-265.31
-247.81
-225.03
-198.32
-169.21
-139.17
-109.14
-78.94
-47.34
-12.85
24.85
63.74
99.22
125.29
136.51
129.83
105.71
67.52
20.66
-28.89
-75.47
-114.49
-143.19
-160.80
-168.55
-169.00
-165.17
-159.62
-153.88
-148.08
-140.80
-129.34
-110.45
-81.83
-43.76
-0.09
42.46
76.70
98.06
106.61
106.83
104.97
105.60
109.55
114.15
115.58
111.43
102.03
90.01
78.33
68.64
60.54
52.40
42.94
32.28
22.06
14.41
10.57
10.01
10.61
9.75
5.69
-1.62
-10.64
-19.26
-25.90
-30.21
-32.84
-34.89
-36.83
-38.30
-38.11
-34.69
-26.65
-12.95
7.57
36.59
76.14
127.26
188.24
253.45
313.94
360.16
385.64
389.58
377.04
356.26
334.72
316.00
299.09
280.26
256.06
225.62
190.92
155.22
120.97
88.45
55.99
21.16
-17.90
-61.98
-110.88
-163.73
-218.81
-272.78
-320.25
-354.55
-369.93
-364.09
-339.65
-303.42
-263.66
-226.85
-195.75
-169.64
-146.32
-124.24
-103.53
-85.45
-71.12
-60.59
-53.05
-47.85
-45.48
-47.78
-57.11
-75.11
-101.50
-133.87
