1660931304.00
64.000000
-0.00
-0.00
-0.00
-0.00
-0.00
-0.00
-0.00
-0.00
-0.00
-0.00
0.00
0.01
0.01
-0.00
-0.03
-0.05
-0.05
0.00
0.13
0.36
0.66
1.01
1.37
1.72
2.06
2.40
2.79
3.25
3.81
4.44
5.09
5.73
6.32
6.91
7.53
8.27
9.15
10.25
11.45
12.64
13.72
14.66
15.54
16.56
17.93
19.75
22.24
25.15
28.22
31.17
33.89
36.50
39.35
42.87
47.33
53.03
59.58
66.42
73.06
79.27
85.24
91.56
98.91
107.66
118.18
129.79
141.65
153.03
163.63
173.82
184.40
196.69
209.10
223.46
240.03
258.80
278.79
297.58
311.41
316.00
307.92
285.81
251.37
207.84
159.35
109.42
60.24
12.81
-32.56
-75.62
-116.10
-153.68
-189.04
-223.49
-258.65
-295.44
-333.07
-368.72
-397.91
-416.11
-420.28
-410.30
-389.08
-361.38
-331.91
-303.83
-278.16
-254.42
-231.76
-209.77
-188.90
-169.87
-153.05
-138.11
-124.17
-110.40
-96.39
-82.38
-69.07
-57.23
-47.29
-39.16
-32.26
-25.84
-19.32
-12.51
-5.69
0.61
5.86
9.81
12.60
14.66
16.47
18.39
20.47
22.54
24.30
25.50
26.05
26.04
25.67
25.18
24.73
24.42
24.22
24.04
23.78
23.38
22.86
22.28
21.75
21.33
20.98
20.59
20.04
19.28
18.36
17.42
16.59
15.96
15.51
15.15
14.79
14.40
14.00
13.66
13.44
13.34
13.31
13.23
12.99
12.53
11.88
11.16
10.51
10.05
9.83
9.76
9.75
9.72
9.66
9.57
9.47
9.36
9.17
8.89
8.50
8.07
7.62
7.21
6.83
6.50
6.19
5.90
5.60
5.28
4.89
4.43
3.96
3.56
3.31
3.21
3.22
3.23
3.18
2.99
2.67
2.24
1.72
1.12
0.45
-0.26
-0.98
-1.61
-2.08
-2.39
-2.58
-2.74
-2.98
-3.38
-3.98
-4.77
-5.68
-6.62
-7.46
-8.09
-8.43
-8.47
-8.28
-7.97
-7.64
-7.37
-7.16
-7.01
-6.89
-6.77
-6.59
-6.28
-5.80
-5.14
-4.39
-3.67
-3.10
-2.71
-2.47
-2.30
-2.13
-1.92
-1.65
-1.34
-0.96
-0.52
0.00
0.54
1.01
1.37
1.58
1.72
1.84
1.99
2.19
2.36
2.46
2.50
2.51
2.59
2.78
3.04
3.27
3.34
3.20
2.89
2.57
2.41
2.52
2.92
3.49
4.06
4.48
4.67
4.62
4.44
4.23
4.08
4.08
4.20
4.41
4.63
4.78
4.82
4.71
4.49
4.19
3.87
3.62
3.49
3.50
3.61
3.72
3.72
3.53
3.16
2.73
2.35
2.13
2.09
2.15
2.22
2.23
2.20
2.19
2.26
2.41
2.59
2.70
2.68
2.52
2.28
2.06
1.91
1.85
1.80
1.68
1.45
1.13
0.83
0.68
0.77
1.06
1.45
1.80
2.01
2.07
2.05
1.99
1.91
1.80
1.66
1.54
1.49
1.54
1.65
1.71
1.63
1.39
1.08
0.82
0.68
0.63
0.57
0.44
0.23
0.08
0.11
0.40
0.90
1.42
1.80
1.96
1.92
1.79
1.64
1.52
1.40
1.26
1.12
1.00
0.93
0.90
0.83
0.70
0.51
0.31
0.16
0.07
0.02
-0.02
-0.04
-0.00
0.12
0.28
0.40
0.36
0.16
-0.11
-0.24
-0.09
0.35
0.94
1.45
1.71
1.67
1.43
1.13
0.90
0.80
0.82
0.92
1.09
1.29
1.48
1.59
1.60
1.48
1.27
1.05
0.87
0.76
0.72
0.68
0.62
0.51
0.35
0.18
0.07
0.07
0.18
0.32
0.39
0.33
0.15
-0.07
-0.20
-0.15
0.05
0.29
0.47
0.53
0.54
0.58
0.71
0.88
0.99
0.91
0.63
0.25
-0.09
-0.27
-0.27
-0.19
-0.13
-0.15
-0.24
-0.30
-0.26
-0.09
0.17
0.45
0.72
1.00
1.29
1.53
1.61
1.43
0.98
0.38
-0.14
-0.39
-0.30
0.05
0.46
0.76
0.87
0.83
0.76
0.72
0.70
0.63
0.47
0.25
0.09
0.07
0.23
0.51
0.77
0.88
0.81
0.59
0.35
0.17
0.11
0.14
0.21
0.29
0.36
0.44
0.53
0.64
0.73
0.77
0.73
0.61
0.47
0.32
0.20
0.12
0.10
0.15
0.29
0.50
0.74
0.93
0.97
0.82
0.51
0.14
-0.15
-0.25
-0.18
-0.03
0.07
0.02
-0.16
-0.40
-0.56
-0.58
-0.44
-0.23
-0.05
0.05
0.07
0.08
0.15
0.30
0.47
0.61
0.67
0.64
0.57
0.52
0.52
0.55
0.56
0.50
0.39
0.24
0.10
-0.05
-0.19
-0.34
-0.47
-0.51
-0.42
-0.18
0.17
0.54
0.80
0.91
0.84
0.62
0.31
-0.05
-0.39
-0.66
-0.81
-0.79
-0.64
-0.40
-0.17
-0.00
0.06
0.04
-0.00
-0.02
0.01
0.07
0.12
0.11
0.06
-0.05
-0.13
-0.13
-0.03
0.17
0.41
0.60
0.69
0.67
0.57
0.42
0.26
0.12
0.02
0.01
0.11
0.30
0.51
0.63
0.58
0.37
0.08
-0.17
-0.26
-0.19
0.02
0.29
0.56
0.80
0.98
1.03
0.92
0.62
0.18
-0.25
-0.52
-0.53
-0.32
-0.01
0.24
0.35
0.32
0.25
0.23
0.25
0.28
0.23
0.08
-0.13
-0.32
-0.41
-0.38
-0.28
-0.17
-0.10
-0.10
-0.13
-0.20
-0.30
-0.44
-0.61
-0.77
-0.86
-0.84
-0.71
-0.50
-0.28
-0.09
0.05
0.17
0.27
0.39
0.48
0.51
0.45
0.33
0.21
0.19
0.29
0.48
0.68
0.83
0.88
0.87
0.84
0.83
0.86
0.88
0.86
0.81
0.75
0.69
0.63
0.55
0.43
0.27
0.12
0.02
-0.02
-0.02
-0.04
-0.10
-0.19
-0.28
-0.34
-0.40
-0.51
-0.69
-0.94
-1.16
-1.28
-1.25
-1.10
-0.93
-0.78
-0.69
-0.62
-0.51
-0.33
-0.09
0.14
0.30
0.40
0.48
0.61
0.85
1.16
1.44
1.55
1.38
0.96
0.41
-0.06
-0.29
-0.22
0.09
0.45
0.69
0.70
0.49
0.16
-0.19
-0.44
-0.55
-0.52
-0.39
-0.23
-0.13
-0.18
-0.44
-0.88
-1.43
-1.92
-2.23
-2.28
-2.10
-1.80
-1.55
-1.43
-1.49
-1.67
-1.88
-2.01
-1.97
-1.76
-1.42
-1.00
-0.60
-0.27
-0.01
0.19
0.40
0.64
0.90
1.11
1.17
1.03
0.69
0.25
-0.18
-0.48
-0.62
-0.67
-0.70
-0.77
-0.88
-0.95
-0.89
-0.66
-0.29
0.12
0.49
0.77
0.98
1.15
1.31
1.45
1.56
1.61
1.57
1.49
1.40
1.36
1.42
1.59
1.83
2.08
2.24
2.26
2.11
1.81
1.44
1.09
0.83
0.75
0.83
1.05
1.31
1.49
1.49
1.27
0.87
0.39
-0.03
-0.31
-0.42
-0.39
-0.29
-0.20
-0.17
-0.22
-0.34
-0.45
-0.48
-0.38
-0.13
0.20
0.48
0.62
0.57
0.38
0.15
-0.00
-0.04
0.01
0.07
0.10
0.07
0.03
0.03
0.07
0.13
0.15
0.08
-0.09
-0.31
-0.54
-0.71
-0.79
-0.77
-0.69
-0.57
-0.49
-0.47
-0.49
-0.54
-0.56
-0.55
-0.51
-0.50
-0.55
-0.68
-0.86
-1.03
-1.13
-1.14
-1.06
-0.93
-0.79
-0.63
-0.44
-0.15
0.27
0.77
1.25
1.56
1.55
1.22
0.65
0.06
-0.38
-0.56
-0.49
-0.27
0.03
0.35
0.70
1.05
1.36
1.55
1.58
1.46
1.27
1.09
0.98
0.93
0.92
0.94
0.99
1.11
1.31
1.54
1.71
1.77
1.68
1.48
1.20
0.87
0.51
0.15
-0.19
-0.48
-0.68
-0.78
-0.80
-0.77
-0.72
-0.67
-0.64
-0.63
-0.69
-0.79
-0.91
-0.97
-0.92
-0.76
-0.55
-0.35
-0.23
-0.21
-0.24
-0.28
-0.31
-0.35
-0.42
-0.54
-0.68
-0.76
-0.72
-0.55
-0.29
-0.02
0.16
0.21
0.12
-0.04
-0.21
-0.32
-0.36
-0.37
-0.40
-0.45
-0.51
-0.50
-0.35
-0.03
0.36
0.69
0.81
0.65
0.25
-0.24
-0.65
-0.90
-0.97
-0.89
-0.73
-0.49
-0.18
0.17
0.51
0.76
0.84
0.72
0.48
0.19
-0.05
-0.15
-0.12
0.01
0.18
0.27
0.23
0.04
-0.25
-0.52
-0.66
-0.63
-0.45
-0.23
-0.05
0.03
0.01
-0.03
-0.02
0.08
0.27
0.51
0.70
0.77
0.69
0.48
0.21
-0.02
-0.13
-0.10
0.02
0.18
0.30
0.34
0.32
0.26
0.17
0.07
-0.06
-0.22
-0.44
-0.67
-0.86
-0.95
-0.91
-0.72
-0.46
-0.20
-0.04
-0.01
-0.08
-0.21
-0.34
-0.44
-0.48
-0.46
-0.36
-0.16
0.13
0.45
0.72
0.86
0.84
0.71
0.51
0.33
0.18
0.08
0.02
0.01
0.04
0.09
0.13
0.13
0.07
-0.05
-0.20
-0.35
-0.49
-0.59
-0.67
-0.69
-0.66
-0.56
-0.41
-0.24
-0.07
0.06
0.15
0.20
0.23
0.27
0.33
0.41
0.51
0.60
0.64
0.64
0.64
0.72
0.91
1.20
1.50
1.67
1.64
1.41
1.06
0.74
0.54
0.45
0.38
0.18
-0.20
-0.72
-1.27
-1.71
-1.98
-2.09
-2.13
-2.15
-2.15
-2.08
-1.89
-1.59
-1.26
-1.01
-0.91
-0.96
-1.04
-1.01
-0.76
-0.31
0.25
0.77
1.15
1.37
1.52
1.68
1.89
2.14
2.35
2.43
2.39
2.29
2.23
2.29
2.50
2.75
2.91
2.82
2.37
1.60
0.65
-0.25
-0.91
-1.26
-1.33
-1.29
-1.26
-1.36
-1.61
-1.96
-2.31
-2.59
-2.77
-2.81
-2.71
-2.47
-2.13
-1.77
-1.46
-1.28
-1.22
-1.19
-1.08
-0.81
-0.38
0.10
0.51
0.73
0.76
0.71
0.67
0.72
0.80
0.80
0.65
0.35
-0.00
-0.31
-0.47
-0.51
-0.48
-0.45
-0.44
-0.46
-0.48
-0.49
-0.49
-0.46
-0.39
-0.27
-0.10
0.07
0.17
0.18
0.09
-0.04
-0.15
-0.17
-0.07
0.14
0.44
0.75
0.98
1.00
0.74
0.20
-0.48
-1.07
-1.39
-1.34
-0.96
-0.41
0.15
0.63
0.99
1.26
1.46
1.59
1.62
1.56
1.46
1.38
1.39
1.48
1.60
1.62
1.45
1.10
0.63
0.18
-0.10
-0.15
-0.03
0.13
0.16
-0.03
-0.44
-0.95
-1.45
-1.81
-2.01
-2.13
-2.26
-2.47
-2.79
-3.19
-3.62
-4.09
-4.67
-5.47
-6.59
-8.06
-9.77
-11.52
-13.10
-14.36
-15.32
-16.13
-17.06
-18.29
-19.94
-21.93
-24.06
-26.11
-27.92
-29.50
-31.07
-32.98
-35.56
-39.05
-43.43
-48.41
-53.55
-58.44
-62.89
-67.03
-71.29
-76.21
-82.16
-89.18
-96.85
-104.49
-111.31
-116.76
-120.70
-123.54
-126.12
-129.52
-134.63
-141.49
-148.94
-154.35
-154.11
-144.51
-123.00
-89.21
-45.36
4.23
54.30
100.10
138.55
168.67
191.33
208.39
221.81
232.98
242.55
250.69
257.53
263.36
268.62
273.64
278.39
282.54
285.84
288.44
290.96
293.86
296.69
297.53
293.24
280.46
256.98
222.55
178.74
128.13
73.28
16.54
-39.62
-91.98
-136.55
-169.52
-188.64
-194.40
-189.93
-179.84
-168.34
-157.95
-149.22
-141.40
-133.57
-125.47
-117.50
-110.27
-104.05
-98.46
-92.82
-86.51
-79.36
-71.74
-64.38
-57.89
-52.59
-48.32
-44.57
-40.79
-36.59
-31.96
-27.19
-22.76
-19.07
-16.28
-14.24
-12.63
-11.08
-9.40
-7.65
-6.08
-4.99
-4.58
-4.87
-5.65
-6.61
-7.45
-8.01
-8.29
-8.41
-8.53
-8.73
-8.99
-9.19
-9.21
-9.00
-8.66
-8.33
-8.12
-8.05
-7.96
-7.61
-6.80
-5.50
-3.89
-2.30
-1.04
-0.35
-0.24
-0.59
-1.14
-1.49
-1.25
-0.02
2.41
5.87
9.77
13.19
15.19
15.24
13.42
10.47
7.39
5.09
3.98
3.94
4.53
5.30
5.98
6.51
6.89
7.00
6.61
5.49
3.65
1.40
-0.71
-2.13
-2.52
-1.94
-0.77
0.43
1.13
1.02
0.06
-1.54
-3.41
-5.09
-6.22
-6.60
-6.27
-5.44
-4.42
-3.49
-2.84
-2.51
-2.45
-2.57
-2.81
-3.12
-3.43
-3.68
-3.76
-3.59
-3.17
-2.56
-1.93
-1.46
-1.27
-1.38
-1.67
-2.00
-2.25
-2.39
-2.43
-2.37
-2.17
-1.78
-1.17
-0.45
0.21
0.64
0.79
0.73
0.65
0.71
0.91
1.19
1.40
1.49
1.49
1.51
1.64
1.87
2.07
2.06
1.71
0.98
-0.05
-1.16
-2.12
-2.79
-3.11
-3.17
-3.06
-2.88
-2.65
-2.33
-1.91
-1.44
-1.02
-0.74
-0.63
-0.58
-0.38
0.19
1.23
2.66
4.17
5.40
6.06
6.01
5.33
4.24
2.97
1.74
0.65
-0.22
-0.80
-1.03
-0.89
-0.43
0.20
0.81
1.24
1.39
1.25
0.88
0.37
-0.16
-0.60
-0.88
-1.00
-1.09
-1.28
-1.64
-2.11
-2.52
-2.67
-2.49
-2.06
-1.53
-1.05
-0.67
-0.37
-0.10
0.13
0.24
0.18
-0.02
-0.22
-0.27
-0.08
0.28
0.65
0.84
0.76
0.46
0.09
-0.19
-0.31
-0.29
-0.26
-0.33
-0.55
-0.84
-1.06
-1.08
-0.86
-0.51
-0.24
-0.21
-0.49
-0.95
-1.39
-1.56
-1.34
-0.74
0.15
1.20
2.29
3.32
4.20
4.85
5.14
5.00
4.44
3.52
2.44
1.36
0.42
-0.31
-0.82
-1.17
-1.38
-1.47
-1.45
-1.36
-1.22
-1.11
-1.06
-1.10
-1.21
-1.33
-1.43
-1.47
-1.46
-1.40
-1.32
-1.22
-1.08
-0.88
-0.60
-0.25
0.10
0.36
0.48
0.44
0.26
0.01
-0.22
-0.41
-0.55
-0.67
-0.80
-0.94
-1.08
-1.18
-1.19
-1.11
-0.93
-0.71
-0.52
-0.44
-0.50
-0.70
-0.97
-1.20
-1.26
-1.09
-0.65
-0.03
0.67
1.28
1.67
1.76
1.58
1.20
0.80
0.56
0.64
1.09
1.84
2.71
3.43
3.77
3.64
3.14
2.50
1.96
1.65
1.51
1.35
1.01
0.42
-0.31
-1.03
-1.58
-1.91
-2.05
-2.06
-1.99
-1.82
-1.54
-1.14
-0.66
-0.23
0.03
0.02
-0.28
-0.81
-1.42
-1.95
-2.24
-2.25
-1.98
-1.56
-1.10
-0.68
-0.32
0.01
0.34
0.63
0.84
0.92
0.87
0.72
0.51
0.26
-0.03
-0.36
-0.71
-0.98
-1.03
-0.76
-0.18
0.60
1.39
1.96
2.17
1.98
1.45
0.73
-0.02
-0.70
-1.22
-1.60
-1.87
-2.07
-2.21
-2.28
-2.23
-2.03
-1.67
-1.17
-0.53
0.26
1.25
2.46
3.84
5.19
6.24
6.69
6.37
5.33
3.84
2.29
1.03
0.24
-0.09
-0.12
-0.01
0.14
0.27
0.41
0.58
0.77
0.93
1.00
0.94
0.75
0.47
0.13
-0.22
-0.55
-0.89
-1.23
-1.56
-1.83
-2.00
-2.08
-2.08
-2.04
-1.96
-1.83
-1.61
-1.28
-0.90
-0.56
-0.41
-0.52
-0.88
-1.39
-1.86
-2.14
-2.17
-2.03
-1.88
-1.86
-2.08
-2.52
-3.11
-3.78
-4.52
-5.39
-6.42
-7.62
-8.89
-10.11
-11.20
-12.14
-13.06
-14.09
-15.37
-16.94
-18.77
-20.79
-22.93
-25.16
-27.48
-29.94
-32.62
-35.59
-38.93
-42.64
-46.66
-50.85
-55.05
-59.11
-63.07
-67.07
-71.40
-76.32
-81.98
-88.29
-94.93
-101.51
-107.68
-113.25
-118.33
-123.16
-128.10
-133.55
-139.97
-147.82
-157.23
-167.42
-176.46
-181.25
-178.36
-165.15
-140.63
-105.64
-62.28
-13.13
39.17
91.73
141.08
183.11
214.00
231.54
236.29
231.60
222.43
213.47
207.47
204.73
203.72
202.28
198.88
193.25
186.34
179.77
175.11
173.24
173.94
175.93
177.43
176.89
173.75
168.80
163.92
161.47
163.38
170.31
181.16
192.96
201.20
200.80
187.47
159.36
118.36
70.44
24.38
-10.82
-29.25
-30.58
-20.55
-9.04
-6.32
-19.11
-48.14
-88.27
-131.01
-168.08
-194.34
-208.80
-213.64
-212.26
-207.54
-201.28
-194.65
-188.89
-185.72
-186.69
-192.24
-201.11
-210.55
-217.33
-219.20
-215.93
-209.40
-202.95
-199.98
-202.41
-209.72
-218.62
-223.87
-219.96
-202.88
-171.33
-126.87
-73.16
-14.87
43.29
97.00
142.60
177.36
199.99
211.01
212.69
208.35
201.27
193.80
187.11
181.52
177.18
174.37
173.47
174.51
177.01
179.93
182.16
182.92
182.12
180.38
179.01
179.66
183.78
191.84
202.55
212.69
217.66
212.78
194.77
162.72
118.34
65.39
8.86
-45.96
-94.14
-131.72
-156.33
-167.62
-167.39
-159.04
-146.65
-133.71
-122.41
-113.48
-106.63
-101.19
-96.38
-91.59
-86.28
-80.07
-72.85
-64.91
-56.84
-49.31
-42.86
-37.56
-33.07
-28.82
-24.38
-19.73
-15.26
-11.58
-9.22
-8.33
-8.64
-9.62
-10.80
-11.91
-12.90
-13.81
-14.63
-15.24
-15.49
-15.33
-14.85
-14.25
-13.67
-13.14
-12.58
-11.84
-10.92
-9.93
-9.11
-8.72
-8.90
-9.65
-10.79
-12.04
-13.14
-13.86
-14.12
-14.00
-13.62
-13.15
-12.64
-12.11
-11.46
-10.63
-9.56
-8.24
-6.76
-5.20
-3.64
-2.14
-0.76
0.46
1.47
2.25
2.82
3.26
3.68
4.17
4.75
5.33
5.78
6.03
6.11
6.17
6.36
6.75
7.20
7.44
7.19
6.32
4.89
3.17
1.51
0.19
-0.65
-1.09
-1.31
-1.57
-2.05
-2.84
-3.87
-4.98
-6.02
-6.89
-7.57
-8.08
-8.41
-8.51
-8.34
-7.86
-7.14
-6.35
-5.67
-5.21
-4.96
-4.83
-4.67
-4.38
-3.95
-3.49
-3.11
-2.90
-2.86
-2.93
-3.00
-2.98
-2.82
-2.57
-2.31
-2.11
-2.01
-1.99
-1.99
-1.98
-1.96
-1.96
-2.02
-2.14
-2.28
-2.36
-2.29
-2.04
-1.67
-1.28
-0.99
-0.89
-0.96
-1.07
-1.09
-0.90
-0.52
-0.05
0.37
0.63
0.73
0.76
0.81
0.89
0.96
0.96
0.86
0.73
0.65
0.67
0.77
0.87
0.85
0.67
0.37
0.05
-0.20
-0.34
-0.40
-0.47
-0.60
-0.81
-1.05
-1.29
-1.49
-1.64
-1.78
-1.93
-2.08
-2.18
-2.18
-2.04
-1.80
-1.55
-1.39
-1.38
-1.50
-1.67
-1.77
-1.76
-1.65
-1.47
-1.25
-0.96
-0.51
0.15
1.04
2.06
3.05
3.87
4.48
4.90
5.22
5.47
5.64
5.66
5.50
5.15
4.67
4.15
3.65
3.18
2.70
2.18
1.59
0.92
0.22
-0.43
-0.95
-1.27
-1.35
-1.22
-0.98
-0.77
-0.73
-0.91
-1.30
-1.78
-2.22
-2.51
-2.59
-2.45
-2.18
-1.83
-1.49
-1.20
-1.00
-0.89
-0.81
-0.74
-0.58
-0.33
-0.04
0.21
0.30
0.17
-0.13
-0.52
-0.85
-1.07
-1.16
-1.16
-1.08
-0.91
-0.60
-0.16
0.33
0.72
0.88
0.75
0.40
-0.01
-0.33
-0.50
-0.53
-0.49
-0.44
-0.43
-0.45
-0.52
-0.61
-0.73
-0.86
-0.99
-1.13
-1.34
-1.70
-2.25
-2.98
-3.79
-4.53
-5.07
-5.33
-5.33
-5.18
-5.02
-4.98
-5.17
-5.64
-6.35
-7.22
-8.16
-9.08
-9.97
-10.90
-11.98
-13.34
-15.05
-17.06
-19.26
-21.49
-23.65
-25.81
-28.15
-30.93
-34.36
-38.43
-42.95
-47.59
-52.07
-56.31
-60.48
-64.97
-70.14
-76.13
-82.84
-89.87
-96.80
-103.33
-109.43
-115.28
-121.14
-127.18
-133.59
-140.73
-149.16
-159.35
-171.00
-182.44
-190.55
-191.47
-181.91
-160.35
-127.44
-85.41
-37.10
14.79
67.60
118.20
162.63
196.69
217.23
223.64
218.29
205.71
190.78
176.96
165.53
155.99
147.14
138.24
129.34
121.04
113.79
107.52
101.66
95.51
88.69
81.35
74.14
67.72
62.48
58.29
54.58
50.72
46.35
41.60
37.00
33.27
30.86
29.79
29.60
29.60
29.18
28.10
26.52
24.99
24.11
24.30
25.58
27.61
29.84
31.77
33.25
34.49
35.98
38.20
41.35
45.32
49.89
54.89
60.18
65.41
69.72
71.77
70.20
64.35
54.80
43.41
32.77
25.24
22.28
24.36
31.14
41.87
55.41
69.97
82.65
89.60
86.78
71.50
43.90
7.54
-31.37
-65.90
-90.73
-103.85
-106.66
-102.67
-95.56
-87.58
-79.17
-69.76
-59.04
-47.84
-37.88
-30.97
-27.83
-27.54
-28.05
-26.98
-22.53
-14.02
-2.08
11.31
22.92
28.82
25.50
11.36
-12.14
-40.47
-67.60
-88.15
-99.49
-102.26
-99.32
-93.84
-87.89
-82.07
-76.14
-69.76
-62.70
-54.59
-44.67
-32.02
-16.35
1.36
19.03
34.19
45.06
51.20
53.36
52.84
50.86
48.34
46.11
45.08
46.22
50.02
55.93
62.13
65.89
64.58
56.66
42.58
24.74
6.68
-8.25
-18.11
-22.85
-23.97
-23.41
-22.55
-21.66
-20.15
-17.36
-13.21
-8.35
-3.83
-0.51
1.43
2.47
3.47
5.16
7.93
11.74
16.34
21.37
26.35
30.50
32.70
31.72
26.66
17.51
5.31
-8.06
-20.50
-30.42
-37.13
-40.86
-42.35
-42.35
-41.32
-39.50
-37.05
-34.28
-31.66
-29.64
-28.41
-27.81
-27.39
-26.65
-25.27
-23.26
-20.94
-18.74
-17.00
-15.82
-15.01
-14.31
-13.43
-12.29
-10.96
-9.64
-8.53
-7.76
-7.28
-6.94
-6.56
-6.00
-5.23
-4.32
-3.42
-2.69
-2.23
-2.06
-2.08
-2.15
-2.16
-2.03
-1.77
-1.46
-1.18
-0.96
-0.80
-0.66
-0.47
-0.22
0.06
0.33
0.53
0.62
0.59
0.43
0.18
-0.09
-0.33
-0.47
-0.49
-0.43
-0.34
-0.29
-0.28
-0.27
-0.20
-0.05
0.12
0.23
0.19
-0.01
-0.30
-0.58
-0.75
-0.82
-0.85
-0.91
-1.00
-1.08
-1.09
-0.98
-0.76
-0.51
-0.33
-0.25
-0.29
-0.40
-0.52
-0.57
-0.51
-0.31
-0.01
0.33
0.60
0.71
0.62
0.37
0.03
-0.28
-0.52
-0.66
-0.75
-0.82
-0.91
-1.00
-1.06
-1.03
-0.87
-0.58
-0.23
0.07
0.19
0.11
-0.12
-0.37
-0.50
-0.43
-0.17
0.15
0.36
0.37
0.17
-0.16
-0.50
-0.80
-1.05
-1.20
-1.19
-0.89
-0.22
0.79
1.96
3.06
3.90
4.43
4.73
4.94
5.17
5.37
5.42
5.21
4.71
3.97
3.09
2.13
1.13
0.13
-0.76
-1.44
-1.81
-1.93
-1.97
-2.14
-2.57
-3.18
-3.72
-3.88
-3.50
-2.59
-1.38
-0.15
0.89
1.65
2.16
2.45
2.52
2.33
1.88
1.28
0.68
0.27
0.12
0.15
0.18
0.07
-0.21
-0.58
-0.89
-1.00
-0.90
-0.66
-0.39
-0.19
-0.06
0.00
0.02
-0.03
-0.19
-0.47
-0.83
-1.17
-1.39
-1.39
-1.18
-0.82
-0.40
-0.03
0.22
0.31
0.24
0.03
-0.27
-0.59
-0.89
-1.10
-1.18
-1.09
-0.85
-0.52
-0.16
0.13
0.31
0.34
0.29
0.20
0.14
0.12
0.14
0.16
0.17
0.15
0.08
-0.05
-0.27
-0.56
-0.85
-1.05
-1.05
-0.84
-0.46
-0.02
0.36
0.60
0.69
0.68
0.64
0.64
0.68
0.76
0.85
0.92
0.98
1.01
1.03
1.03
0.96
0.81
0.57
0.27
-0.04
-0.30
-0.45
-0.47
-0.36
-0.17
0.04
0.16
0.12
-0.09
-0.43
-0.78
-1.02
-1.06
-0.91
-0.63
-0.30
-0.01
0.20
0.31
0.33
0.27
0.13
-0.07
-0.29
-0.49
-0.65
-0.76
-0.82
-0.84
-0.81
-0.73
-0.59
-0.40
-0.17
0.06
0.22
0.29
0.26
0.17
0.07
0.01
-0.00
0.01
0.00
-0.05
-0.14
-0.23
-0.28
-0.25
-0.15
-0.00
0.16
0.29
0.37
0.36
0.27
0.10
-0.08
-0.21
-0.26
-0.21
-0.08
0.10
0.30
0.50
0.67
0.79
0.83
0.77
0.64
0.49
0.38
0.29
0.19
0.02
-0.21
-0.43
-0.56
-0.53
-0.37
-0.20
-0.13
-0.20
-0.36
-0.49
-0.54
-0.50
-0.44
-0.39
-0.34
-0.23
-0.03
0.22
0.43
0.49
0.35
0.12
-0.08
-0.12
-0.01
0.17
0.30
0.32
0.27
0.27
0.38
0.60
0.82
0.89
0.72
0.33
-0.12
-0.48
-0.62
-0.51
-0.24
0.05
0.23
0.23
0.07
-0.18
-0.44
-0.63
-0.71
-0.66
-0.51
-0.26
0.05
0.37
0.61
0.70
0.61
0.35
0.04
-0.20
-0.28
-0.18
0.02
0.21
0.29
0.23
0.07
-0.12
-0.27
-0.38
-0.46
-0.53
-0.61
-0.63
-0.55
-0.33
-0.00
0.34
0.56
0.59
0.42
0.16
-0.04
-0.08
0.03
0.19
0.26
0.20
0.05
-0.03
0.03
0.25
0.49
0.59
0.45
0.15
-0.17
-0.31
-0.20
0.11
0.45
0.69
0.73
0.60
0.37
0.12
-0.12
-0.34
-0.54
-0.73
-0.91
-1.08
-1.23
-1.33
-1.37
-1.35
-1.26
-1.13
-0.98
-0.80
-0.57
-0.25
0.13
0.55
0.91
1.13
1.19
1.11
0.95
0.77
0.62
0.51
0.42
0.35
0.30
0.30
0.33
0.39
0.45
0.46
0.43
0.37
0.32
0.30
0.30
0.31
0.27
0.17
0.05
-0.03
0.01
0.18
0.42
0.60
0.60
0.36
-0.07
-0.53
-0.85
-0.89
-0.63
-0.18
0.29
0.59
0.62
0.38
-0.03
-0.45
-0.73
-0.75
-0.50
-0.08
0.35
0.64
0.69
0.54
0.27
0.04
-0.09
-0.10
-0.05
-0.02
-0.02
-0.03
-0.03
0.01
0.03
-0.02
-0.16
-0.33
-0.40
-0.31
-0.05
0.27
0.47
0.46
0.23
-0.12
-0.46
-0.70
-0.84
-0.91
-0.97
-1.00
-0.96
-0.81
-0.59
-0.38
-0.25
-0.22
-0.26
-0.28
-0.24
-0.17
-0.10
-0.05
0.03
0.18
0.45
0.77
1.04
1.11
0.97
0.67
0.34
0.10
-0.04
-0.10
-0.11
-0.09
0.02
0.24
0.50
0.68
0.66
0.41
0.03
-0.30
-0.41
-0.29
-0.03
0.20
0.26
0.15
-0.09
-0.35
-0.57
-0.72
-0.79
-0.74
-0.52
-0.13
0.38
0.85
1.15
1.19
1.00
0.69
0.41
0.26
0.28
0.43
0.64
0.83
0.95
0.97
0.89
0.74
0.56
0.39
0.27
0.21
0.19
0.20
0.19
0.14
0.00
-0.24
-0.56
-0.90
-1.16
-1.27
-1.18
-0.93
-0.63
-0.40
-0.33
-0.42
-0.59
-0.74
-0.78
-0.69
-0.54
-0.37
-0.25
-0.17
-0.11
-0.03
0.05
0.11
0.11
0.02
-0.12
-0.25
-0.30
-0.19
0.06
0.42
0.76
0.97
0.95
0.68
0.22
-0.27
-0.65
-0.80
-0.71
-0.44
-0.10
0.19
0.40
0.52
0.58
0.59
0.55
0.45
0.26
0.02
-0.24
-0.47
-0.65
-0.76
-0.82
-0.84
-0.84
-0.81
-0.74
-0.63
-0.49
-0.34
-0.20
-0.07
0.01
0.03
0.00
-0.06
-0.09
-0.04
0.11
0.33
0.55
0.66
0.62
0.44
0.19
-0.03
-0.16
-0.16
-0.06
0.09
0.25
0.34
0.35
0.26
0.14
0.06
0.07
0.19
0.33
0.40
0.33
0.13
-0.10
-0.25
-0.23
-0.04
0.25
0.55
0.79
0.91
0.89
0.71
0.41
0.03
-0.35
-0.65
-0.81
-0.79
-0.63
-0.39
-0.14
0.03
0.08
-0.01
-0.18
-0.37
-0.51
-0.54
-0.47
-0.35
-0.22
-0.12
-0.05
0.01
0.06
0.08
0.05
-0.03
-0.11
-0.14
-0.05
0.20
0.55
0.87
1.02
0.90
0.51
-0.04
-0.56
-0.85
-0.84
-0.56
-0.15
0.22
0.44
0.46
0.35
0.20
0.08
0.02
0.04
0.10
0.17
0.22
0.20
0.12
-0.01
-0.12
-0.16
-0.10
0.06
0.24
0.40
0.50
0.52
0.48
0.39
0.28
0.17
0.13
0.19
0.37
0.61
0.80
0.82
0.62
0.22
-0.27
-0.69
-0.96
-1.03
-0.96
-0.82
-0.68
-0.56
-0.45
-0.33
-0.21
-0.12
-0.13
-0.25
-0.46
-0.66
-0.74
-0.61
-0.29
0.15
0.54
0.79
0.84
0.74
0.60
0.48
0.40
0.31
0.17
-0.05
-0.33
-0.62
-0.88
-1.06
-1.11
-1.01
-0.73
-0.27
0.28
0.80
1.16
1.26
1.07
0.70
0.27
-0.08
-0.29
-0.35
-0.30
-0.20
-0.10
0.00
0.07
0.11
0.11
0.04
-0.11
-0.34
-0.64
-0.97
-1.27
-1.47
-1.55
-1.52
-1.48
-1.49
-1.60
-1.79
-1.99
-2.11
-2.12
-2.04
-1.90
-1.68
-1.34
-0.84
-0.19
0.49
1.08
1.47
1.66
1.78
2.00
2.41
2.97
3.49
3.76
3.63
3.10
2.27
1.33
0.40
-0.44
-1.18
-1.77
-2.15
-2.25
-2.05
-1.63
-1.16
-0.81
-0.68
-0.76
-0.91
-1.03
-1.05
-1.00
-0.95
-0.95
-0.99
-1.00
-0.95
-0.83
-0.70
-0.60
-0.57
-0.58
-0.57
-0.47
-0.23
0.13
0.57
1.00
1.37
1.61
1.71
1.65
1.44
1.07
0.59
0.08
-0.34
-0.53
-0.42
0.00
0.60
1.18
1.55
1.58
1.31
0.87
0.45
0.21
0.17
0.25
0.35
0.41
0.46
0.58
0.85
1.24
1.64
1.87
1.84
1.52
1.05
0.59
0.30
0.25
0.41
0.70
0.99
1.18
1.21
1.05
0.68
0.11
-0.64
-1.49
-2.27
-2.77
-2.78
-2.25
-1.33
-0.29
0.58
1.10
1.26
1.13
0.79
0.27
-0.43
-1.25
-2.00
-2.39
-2.20
-1.38
-0.15
1.11
2.03
2.35
2.10
1.44
0.64
-0.08
-0.57
-0.82
-0.84
-0.68
-0.38
0.02
0.47
0.88
1.11
1.07
0.73
0.19
-0.35
-0.70
-0.73
-0.45
0.02
0.54
0.94
1.16
1.10
0.69
-0.10
-1.21
-2.45
-3.50
-4.04
-3.87
-3.06
-1.87
-0.68
0.22
0.70
0.79
0.58
0.18
-0.36
-0.95
-1.49
-1.84
-1.86
-1.50
-0.83
-0.02
0.72
1.21
1.37
1.24
0.93
0.64
0.54
0.73
1.19
1.83
2.44
2.88
3.03
2.94
2.70
2.45
2.28
2.21
2.19
2.16
2.03
1.79
1.46
1.09
0.72
0.37
0.03
-0.30
-0.60
-0.83
-0.93
-0.87
-0.64
-0.34
-0.07
0.05
-0.03
-0.29
-0.65
-1.01
-1.28
-1.47
-1.61
-1.78
-1.99
-2.17
-2.23
-2.03
-1.52
-0.76
0.09
0.83
1.29
1.39
1.15
0.67
0.12
-0.35
-0.62
-0.64
-0.43
-0.07
0.36
0.74
1.03
1.20
1.25
1.20
1.06
0.86
0.65
0.49
0.41
0.41
0.40
0.31
0.08
-0.24
-0.52
-0.62
-0.48
-0.15
0.20
0.41
0.40
0.17
-0.20
-0.62
-1.01
-1.32
-1.51
-1.53
-1.36
-1.02
-0.60
-0.22
-0.01
-0.01
-0.18
-0.44
-0.66
-0.74
-0.66
-0.41
-0.09
0.21
0.41
0.43
0.27
-0.03
-0.40
-0.75
-1.00
-1.13
-1.13
-1.03
-0.88
-0.75
-0.65
-0.59
-0.52
-0.42
-0.27
-0.09
0.11
0.34
0.62
0.99
1.45
1.92
2.31
2.54
2.59
2.50
2.29
1.96
1.48
0.84
0.12
-0.50
-0.86
-0.84
-0.48
0.08
0.67
1.13
1.42
1.51
1.42
1.20
0.89
0.58
0.32
0.15
0.07
0.03
0.01
-0.02
-0.05
-0.11
-0.21
-0.38
-0.57
-0.72
-0.79
-0.79
-0.77
-0.84
-1.03
-1.29
-1.49
-1.51
-1.30
-0.92
-0.55
-0.34
-0.35
-0.55
-0.80
-0.92
-0.85
-0.57
-0.18
0.17
0.40
0.45
0.35
0.17
-0.03
-0.17
-0.19
-0.06
0.21
0.60
1.02
1.42
1.75
2.00
2.16
2.19
2.04
1.68
1.15
0.61
0.24
0.20
0.53
1.14
1.84
2.42
2.74
2.75
2.47
1.95
1.30
0.63
0.07
-0.29
-0.39
-0.30
-0.12
0.01
-0.01
-0.21
-0.53
-0.89
-1.21
-1.44
-1.60
-1.72
-1.84
-1.95
-2.01
-1.98
-1.80
-1.49
-1.10
-0.72
-0.46
-0.37
-0.46
-0.66
-0.87
-0.98
-0.95
-0.79
-0.57
-0.39
-0.31
-0.35
-0.49
-0.65
-0.76
-0.77
-0.68
-0.53
-0.39
-0.32
-0.34
-0.40
-0.45
-0.39
-0.22
0.02
0.25
0.38
0.38
0.26
0.06
-0.16
-0.38
-0.56
-0.69
-0.72
-0.60
-0.32
0.05
0.41
0.65
0.69
0.55
0.33
0.13
0.03
0.06
0.17
0.25
0.24
0.08
-0.16
-0.37
-0.45
-0.34
-0.09
0.17
0.29
0.19
-0.10
-0.45
-0.72
-0.83
-0.79
-0.69
-0.61
-0.59
-0.61
-0.59
-0.49
-0.32
-0.17
-0.17
-0.38
-0.78
-1.21
-1.54
-1.66
-1.57
-1.38
-1.19
-1.06
-0.96
-0.77
-0.45
-0.01
0.45
0.77
0.87
0.76
0.52
0.26
0.04
-0.11
-0.19
-0.23
-0.21
-0.12
0.06
0.32
0.64
0.98
1.29
1.50
1.58
1.49
1.26
0.97
0.72
0.59
0.60
0.75
0.98
1.24
1.51
1.74
1.85
1.75
1.35
0.64
-0.28
-1.23
-1.99
-2.42
-2.53
-2.42
-2.21
-1.99
-1.76
-1.45
-1.04
-0.57
-0.17
0.04
0.05
-0.04
-0.06
0.15
0.60
1.12
1.46
1.40
0.91
0.11
-0.74
-1.38
-1.66
-1.54
-1.11
-0.49
0.21
0.83
1.25
1.37
1.19
0.78
0.29
-0.09
-0.22
-0.06
0.36
0.93
1.50
1.94
2.16
2.13
1.92
1.69
1.56
1.60
1.74
1.85
1.79
1.53
1.16
0.85
0.76
0.97
1.43
1.99
2.48
2.77
2.77
2.47
1.87
1.06
0.14
-0.73
-1.40
-1.76
-1.81
-1.63
-1.37
-1.21
-1.23
-1.42
-1.71
-2.03
-2.36
-2.74
-3.22
-3.76
-4.26
-4.53
-4.45
-3.98
-3.30
-2.67
-2.35
-2.51
-3.11
-3.90
-4.62
-5.05
-5.13
-4.84
-4.08
-2.62
-0.18
3.42
7.97
12.91
17.41
20.74
22.47
22.48
20.81
17.49
12.59
6.29
-0.89
-8.13
-14.62
-19.95
-24.34
-28.48
-32.99
-37.89
-42.37
-45.23
-45.63
-43.84
-41.36
-40.24
-41.89
-46.09
-50.93
-53.84
-53.04
-48.55
-41.94
-35.10
-29.00
-23.34
-17.37
-10.88
-4.35
2.18
10.51
24.26
46.82
78.04
112.31
139.81
150.79
140.55
111.98
73.92
36.52
6.37
-15.64
-32.74
-48.68
-64.85
-79.55
-89.84
-94.13
-93.53
-91.37
-91.42
-95.90
-104.75
-115.86
-126.44
-134.29
-138.63
-140.16
-140.44
-141.15
-143.53
-148.24
-155.40
-164.49
-174.16
-181.96
-184.64
-178.73
-161.61
-132.51
-92.85
-45.96
3.71
51.62
93.87
127.66
151.53
165.36
170.32
168.56
162.71
155.25
148.01
141.96
137.37
134.09
131.77
130.07
128.65
127.20
125.48
123.39
121.08
118.96
117.56
117.30
118.23
119.94
121.74
122.93
123.25
122.97
122.85
123.70
126.02
129.68
134.01
138.14
141.49
144.00
146.15
148.65
152.00
156.35
161.63
167.87
175.28
183.96
193.18
200.97
204.26
199.69
184.96
159.67
125.30
84.31
38.93
-9.34
-59.32
-109.09
-155.35
-193.73
-220.25
-233.02
-233.19
-224.44
-211.44
-198.00
-186.04
-175.58
-165.69
-155.60
-145.27
-135.32
-126.44
-118.89
-112.32
-106.01
-99.26
-91.77
-83.78
-75.87
-68.65
-62.43
-57.15
-52.44
-47.89
-43.26
-38.54
-33.94
-29.66
-25.82
-22.44
-19.46
-16.86
-14.68
-12.98
-11.83
-11.29
-11.38
-12.00
-12.90
-13.54
-13.26
-11.46
-7.89
-2.90
2.68
7.81
11.68
14.00
14.97
15.07
14.73
14.12
13.22
12.01
10.69
9.64
9.23
9.53
10.24
10.78
10.56
9.27
6.97
3.97
0.64
-2.77
-6.29
-10.10
-14.43
-19.45
-25.24
-31.74
-38.76
-46.02
-53.11
-59.68
-65.52
-70.66
-75.35
-80.01
-84.98
-90.41
-96.19
-102.02
-107.60
-112.81
-117.72
-122.59
-127.73
-133.37
-139.71
-146.97
-155.40
-165.03
-175.26
-184.45
-189.91
-188.44
-177.33
-155.19
-122.41
-80.83
-33.08
17.99
69.46
118.24
160.99
194.54
216.74
227.25
227.81
221.67
212.45
203.02
194.87
188.27
182.79
177.95
173.48
169.30
165.37
161.55
157.71
153.95
150.63
148.26
147.20
147.34
147.96
148.03
146.68
143.70
139.74
136.08
134.20
135.34
140.25
149.13
161.31
175.03
187.24
194.01
191.50
177.27
151.17
115.19
72.32
24.99
-25.72
-79.67
-136.07
-192.15
-243.01
-283.11
-308.56
-318.75
-316.55
-306.62
-293.31
-279.30
-265.57
-252.18
-239.28
-227.23
-216.32
-206.54
-197.85
-190.62
-185.67
-183.47
-182.96
-180.77
-172.05
-152.10
-118.38
-71.60
-15.35
45.26
105.08
159.84
206.37
242.44
266.83
279.56
281.95
276.37
265.73
253.03
240.95
231.90
227.76
229.41
236.16
245.28
252.39
252.53
241.60
217.42
180.18
132.22
77.43
20.56
-33.35
-79.61
-114.57
-136.34
-145.21
-143.59
-135.26
-124.24
-113.73
-105.57
-100.28
-97.48
-96.44
-96.22
-95.91
-94.68
-91.91
-87.41
-81.49
-74.85
-68.31
-62.57
-57.94
-54.27
-51.04
-47.57
-43.29
-38.02
-32.02
-26.00
-20.75
-16.82
-14.30
-12.80
-11.72
-10.60
-9.32
-8.06
-7.19
-6.97
-7.42
-8.42
-9.77
-11.34
-13.06
-14.80
-16.37
-17.53
-18.12
-18.16
-17.86
-17.51
-17.32
-17.25
-17.05
-16.37
-14.98
-12.96
-10.79
-9.19
-8.88
-10.24
-13.08
-16.69
-20.14
-22.72
-24.34
-25.56
-27.32
-30.42
-35.06
-40.63
-45.94
-49.72
-51.13
-50.16
-47.60
-44.79
-43.24
-44.13
-48.17
-55.22
-64.04
-71.97
-75.25
-70.04
-54.07
-28.10
3.69
34.98
59.64
74.16
78.71
76.38
71.23
66.10
61.70
57.12
51.11
43.37
34.71
26.36
18.95
12.07
4.78
-3.26
-11.01
-16.07
-15.74
-8.60
4.42
20.10
34.17
43.04
45.18
41.24
33.22
23.49
14.28
8.13
8.22
18.03
39.89
73.32
114.29
156.45
193.61
222.13
241.68
254.04
260.65
260.82
251.64
229.66
193.18
143.76
86.10
26.75
-27.88
-72.95
-105.83
-126.20
-135.48
-136.27
-131.48
-123.72
-114.90
-106.21
-98.39
-92.02
-87.56
-85.08
-83.99
-83.11
-81.12
-77.17
-71.28
-64.32
-57.59
-52.24
-48.73
-46.73
-45.37
-43.69
-41.05
-37.41
-33.27
-29.36
-26.30
-24.34
-23.29
-22.63
-21.85
-20.61
-18.92
-17.08
-15.48
-14.41
-13.94
-13.91
-14.04
-14.09
-13.95
-13.67
-13.43
-13.41
-13.72
-14.41
-15.39
-16.53
-17.63
-18.42
-18.63
-18.10
-16.87
-15.16
-13.35
-11.71
-10.17
-8.37
-5.76
-2.01
2.66
7.43
11.15
12.77
11.78
8.62
4.63
1.93
2.86
9.23
21.66
39.24
59.73
80.02
96.78
107.07
108.90
101.52
85.78
64.09
39.98
17.31
-0.81
-12.87
-19.17
-21.27
-21.11
-20.19
-19.15
-18.15
-17.17
-16.33
-15.82
-15.68
-15.66
-15.38
-14.57
-13.19
-11.56
-10.16
-9.41
-9.50
-10.32
-11.51
-12.60
-13.20
-13.09
-12.30
-11.04
-9.67
-8.53
-7.83
-7.61
-7.73
-7.94
-7.95
-7.62
-6.96
-6.16
-5.41
-4.86
-4.52
-4.26
-3.91
-3.40
-2.75
-2.11
-1.64
-1.42
-1.41
-1.48
-1.53
-1.48
-1.36
-1.19
-1.01
-0.82
-0.58
-0.29
0.05
0.38
0.63
0.73
0.63
0.32
-0.16
-0.70
-1.13
-1.30
-1.16
-0.80
-0.42
-0.22
-0.30
-0.58
-0.87
-0.97
-0.84
-0.57
-0.32
-0.24
-0.34
-0.51
-0.62
-0.62
-0.54
-0.50
-0.57
-0.72
-0.85
-0.87
-0.74
-0.51
-0.25
-0.06
0.06
0.12
0.16
0.18
0.16
0.06
-0.13
-0.36
-0.57
-0.69
-0.69
-0.56
-0.34
-0.07
0.18
0.37
0.45
0.39
0.19
-0.11
-0.43
-0.67
-0.73
-0.57
-0.23
0.19
0.56
0.79
0.88
0.89
0.91
0.96
0.99
0.89
0.62
0.20
-0.24
-0.55
-0.65
-0.59
-0.50
-0.49
-0.60
-0.76
-0.88
-0.90
-0.83
-0.71
-0.58
-0.45
-0.31
-0.18
-0.09
-0.08
-0.13
-0.18
-0.15
0.03
0.33
0.64
0.84
0.84
0.65
0.37
0.12
-0.04
-0.09
-0.09
-0.09
-0.10
-0.09
0.00
0.20
0.46
0.69
0.81
0.81
0.72
0.64
0.61
0.60
0.57
0.45
0.23
-0.02
-0.23
-0.34
-0.36
-0.34
-0.34
-0.36
-0.37
-0.35
-0.26
-0.12
0.05
0.22
0.36
0.43
0.43
0.35
0.24
0.11
0.01
-0.07
-0.14
-0.20
-0.25
-0.26
-0.22
-0.12
0.01
0.08
0.05
-0.10
-0.33
-0.53
-0.61
-0.53
-0.32
-0.05
0.19
0.34
0.43
0.49
0.56
0.61
0.60
0.49
0.28
0.04
-0.17
-0.29
-0.35
-0.40
-0.50
-0.65
-0.78
-0.78
-0.61
-0.32
-0.04
0.13
0.14
0.04
-0.05
-0.03
0.15
0.39
0.61
0.72
0.69
0.56
0.38
0.20
0.03
-0.14
-0.28
-0.34
-0.31
-0.20
-0.08
-0.04
-0.12
-0.26
-0.37
-0.37
-0.22
0.02
0.26
0.40
0.43
0.38
0.31
0.26
0.26
0.30
0.34
0.35
0.30
0.17
-0.01
-0.19
-0.27
-0.21
-0.01
0.22
0.38
0.38
0.23
0.02
-0.17
-0.27
-0.31
-0.35
-0.43
-0.54
-0.62
-0.62
-0.50
-0.31
-0.12
0.02
0.07
0.04
-0.05
-0.17
-0.31
-0.46
-0.58
-0.60
-0.46
-0.17
0.22
0.54
0.66
0.48
0.05
-0.49
-0.92
-1.11
-1.02
-0.74
-0.41
-0.13
0.07
0.22
0.39
0.59
0.80
0.93
0.92
0.75
0.45
0.14
-0.08
-0.14
-0.03
0.18
0.37
0.44
0.35
0.15
-0.05
-0.16
-0.11
0.03
0.18
0.22
0.15
0.02
-0.08
-0.09
0.00
0.10
0.11
0.00
-0.19
-0.39
-0.49
-0.45
-0.31
-0.15
-0.05
-0.05
-0.08
-0.10
-0.03
0.14
0.35
0.53
0.64
0.64
0.61
0.60
0.64
0.71
0.75
0.68
0.49
0.22
-0.03
-0.20
-0.26
-0.23
-0.13
0.03
0.23
0.43
0.56
0.49
0.19
-0.32
-0.89
-1.33
-1.47
-1.30
-0.91
-0.47
-0.15
0.00
-0.02
-0.14
-0.28
-0.43
-0.58
-0.75
-0.93
-1.05
-1.02
-0.78
-0.35
0.18
0.65
0.94
0.96
0.76
0.42
0.08
-0.13
-0.17
-0.04
0.18
0.40
0.54
0.55
0.44
0.24
0.02
-0.16
-0.23
-0.19
-0.09
0.05
0.18
0.34
0.56
0.86
1.18
1.41
1.44
1.21
0.78
0.28
-0.12
-0.34
-0.37
-0.24
-0.01
0.26
0.52
0.69
0.67
0.38
-0.11
-0.66
-1.04
-1.12
-0.89
-0.47
-0.03
0.27
0.40
0.39
0.29
0.14
-0.03
-0.22
-0.38
-0.49
-0.54
-0.51
-0.45
-0.38
-0.28
-0.15
0.03
0.23
0.38
0.44
0.41
0.33
0.27
0.25
0.23
0.18
0.06
-0.09
-0.19
-0.17
-0.04
0.17
0.35
0.42
0.35
0.16
-0.08
-0.33
-0.53
-0.67
-0.76
-0.82
-0.85
-0.82
-0.70
-0.49
-0.22
0.04
0.20
0.18
0.01
-0.24
-0.49
-0.64
-0.68
-0.62
-0.48
-0.30
-0.11
0.05
0.14
0.09
-0.10
-0.38
-0.66
-0.82
-0.79
-0.55
-0.14
0.32
0.71
0.90
0.88
0.67
0.41
0.24
0.26
0.50
0.86
1.19
1.37
1.35
1.18
0.96
0.75
0.59
0.42
0.19
-0.11
-0.41
-0.60
-0.59
-0.33
0.13
0.62
0.98
1.08
0.87
0.44
-0.07
-0.51
-0.76
-0.80
-0.68
-0.49
-0.31
-0.16
-0.06
-0.01
-0.02
-0.12
-0.32
-0.57
-0.81
-0.93
-0.89
-0.68
-0.38
-0.10
0.07
0.10
0.01
-0.10
-0.15
-0.08
0.09
0.32
0.51
0.59
0.56
0.43
0.27
0.12
-0.02
-0.14
-0.26
-0.35
-0.40
-0.38
-0.28
-0.13
0.01
0.08
0.05
-0.09
-0.29
-0.50
-0.67
-0.76
-0.74
-0.65
-0.51
-0.35
-0.19
-0.03
0.12
0.23
0.26
0.20
0.07
-0.09
-0.21
-0.26
-0.26
-0.24
-0.22
-0.20
-0.12
0.05
0.34
0.68
1.00
1.22
1.34
1.37
1.36
1.32
1.27
1.16
0.97
0.71
0.40
0.12
-0.06
-0.07
0.06
0.27
0.45
0.51
0.40
0.16
-0.15
-0.46
-0.75
-1.03
-1.27
-1.46
-1.51
-1.36
-1.01
-0.53
-0.06
0.26
0.32
0.14
-0.20
-0.53
-0.71
-0.66
-0.38
0.00
0.34
0.52
0.53
0.43
0.33
0.29
0.30
0.34
0.34
0.30
0.27
0.28
0.34
0.41
0.43
0.34
0.19
0.04
-0.04
-0.05
-0.02
-0.02
-0.08
-0.21
-0.37
-0.49
-0.53
-0.46
-0.29
-0.05
0.21
0.40
0.49
0.44
0.29
0.10
-0.07
-0.19
-0.25
-0.28
-0.30
-0.28
-0.20
-0.05
0.14
0.30
0.40
0.39
0.31
0.22
0.18
0.20
0.27
0.35
0.38
0.33
0.22
0.08
-0.03
-0.10
-0.12
-0.14
-0.19
-0.32
-0.51
-0.70
-0.82
-0.80
-0.62
-0.32
0.03
0.32
0.46
0.43
0.25
-0.01
-0.23
-0.33
-0.27
-0.08
0.17
0.39
0.54
0.59
0.53
0.38
0.15
-0.12
-0.40
-0.63
-0.75
-0.71
-0.55
-0.29
-0.02
0.19
0.29
0.25
0.08
-0.15
-0.38
-0.52
-0.49
-0.30
0.00
0.34
0.62
0.78
0.82
0.76
0.62
0.44
0.25
0.08
-0.06
-0.14
-0.17
-0.18
-0.21
-0.25
-0.30
-0.31
-0.28
-0.23
-0.21
-0.27
-0.38
-0.48
-0.48
-0.34
-0.08
0.18
0.33
0.31
0.14
-0.10
-0.30
-0.40
-0.36
-0.21
-0.00
0.19
0.31
0.29
0.16
-0.06
-0.25
-0.32
-0.23
0.01
0.31
0.54
0.59
0.44
0.15
-0.16
-0.37
-0.42
-0.32
-0.16
-0.01
0.07
0.08
0.07
0.08
0.14
0.21
0.25
0.23
0.15
0.07
0.07
0.19
0.42
0.66
0.81
0.77
0.56
0.28
0.05
-0.03
0.05
0.18
0.23
0.09
-0.24
-0.67
-1.03
-1.23
-1.22
-1.08
-0.88
-0.68
-0.50
-0.31
-0.10
0.10
0.23
0.24
0.14
-0.00
-0.10
-0.08
0.05
0.21
0.30
0.23
0.00
-0.31
-0.57
-0.67
-0.56
-0.26
0.12
0.41
0.52
0.40
0.12
-0.17
-0.32
-0.24
0.05
0.41
0.71
0.85
0.84
0.75
0.68
0.68
0.72
0.69
0.55
0.30
0.04
-0.10
-0.09
0.04
0.16
0.17
0.04
-0.11
-0.18
-0.07
0.17
0.37
0.36
0.07
-0.42
-0.87
-1.07
-0.89
-0.40
0.20
0.66
0.83
0.69
0.36
-0.03
-0.33
-0.52
-0.58
-0.53
-0.42
-0.27
-0.15
-0.12
-0.18
-0.31
-0.44
-0.46
-0.33
-0.04
0.33
0.66
0.86
0.87
0.73
0.50
0.27
0.09
-0.02
-0.08
-0.10
-0.09
-0.04
0.05
0.16
0.22
0.18
0.04
-0.17
-0.32
-0.36
-0.23
0.01
0.30
0.53
0.65
0.64
0.50
0.28
0.02
-0.23
-0.42
-0.54
-0.57
-0.51
-0.38
-0.19
0.05
0.27
0.42
0.48
0.46
0.42
0.42
0.49
0.61
0.71
0.72
0.62
0.45
0.27
0.14
0.08
0.07
0.04
-0.05
-0.22
-0.44
-0.65
-0.80
-0.85
-0.80
-0.66
-0.49
-0.30
-0.14
0.01
0.11
0.17
0.14
0.00
-0.21
-0.43
-0.58
-0.58
-0.44
-0.22
-0.02
0.08
0.07
0.02
-0.01
0.04
0.14
0.21
0.18
0.07
-0.06
-0.10
0.03
0.29
0.54
0.65
0.54
0.25
-0.07
-0.31
-0.40
-0.36
-0.31
-0.30
-0.35
-0.42
-0.45
-0.41
-0.37
-0.41
-0.55
-0.75
-0.88
-0.84
-0.63
-0.32
-0.04
0.08
0.03
-0.13
-0.27
-0.29
-0.20
-0.07
0.01
0.02
-0.01
-0.01
0.05
0.17
0.27
0.29
0.20
0.04
-0.09
-0.14
-0.10
0.01
0.13
0.26
0.40
0.55
0.67
0.69
0.52
0.15
-0.32
-0.73
-0.93
-0.83
-0.45
0.06
0.55
0.89
1.06
1.07
0.96
0.79
0.55
0.27
-0.00
-0.21
-0.27
-0.17
0.05
0.29
0.43
0.41
0.25
0.07
-0.01
0.10
0.35
0.64
0.80
0.74
0.47
0.09
-0.26
-0.46
-0.47
-0.30
-0.03
0.26
0.49
0.60
0.55
0.37
0.12
-0.14
-0.34
-0.46
-0.53
-0.57
-0.60
-0.61
-0.56
-0.43
-0.25
-0.07
0.02
-0.05
-0.28
-0.63
-1.00
-1.26
-1.33
-1.19
-0.89
-0.53
-0.20
0.02
0.12
0.15
0.17
0.20
0.27
0.36
0.46
0.56
0.63
0.69
0.69
0.64
0.52
0.34
0.15
-0.04
-0.20
-0.33
-0.41
-0.42
-0.34
-0.16
0.09
0.34
0.50
0.52
0.43
0.31
0.28
0.38
0.61
0.87
1.07
1.13
1.06
0.91
0.73
0.54
0.35
0.13
-0.08
-0.27
-0.38
-0.39
-0.31
-0.21
-0.14
-0.13
-0.17
-0.23
-0.29
-0.30
-0.23
-0.09
0.07
0.19
0.22
0.16
0.03
-0.10
-0.18
-0.20
-0.22
-0.29
-0.45
-0.66
-0.85
-0.93
-0.85
-0.65
-0.37
-0.11
0.07
0.14
0.14
0.13
0.14
0.17
0.19
0.12
-0.04
-0.24
-0.36
-0.30
-0.03
0.35
0.68
0.82
0.75
0.55
0.38
0.32
0.37
0.43
0.41
0.30
0.16
0.06
0.05
0.09
0.12
0.07
-0.06
-0.20
-0.25
-0.18
0.00
0.23
0.40
0.44
0.32
0.06
-0.27
-0.60
-0.83
-0.90
-0.82
-0.62
-0.37
-0.16
-0.06
-0.07
-0.16
-0.29
-0.38
-0.39
-0.28
-0.06
0.23
0.51
0.68
0.66
0.44
0.10
-0.25
-0.50
-0.60
-0.57
-0.50
-0.44
-0.41
-0.38
-0.30
-0.16
-0.01
0.11
0.15
0.10
-0.03
-0.18
-0.28
-0.30
-0.20
0.00
0.29
0.56
0.74
0.75
0.59
0.33
0.07
-0.09
-0.11
-0.02
0.10
0.19
0.22
0.21
0.19
0.20
0.25
0.29
0.29
0.22
0.09
-0.06
-0.18
-0.24
-0.24
-0.17
-0.04
0.13
0.33
0.52
0.66
0.70
0.64
0.53
0.45
0.43
0.49
0.54
0.52
0.38
0.16
-0.07
-0.22
-0.26
-0.20
-0.08
0.07
0.23
0.38
0.50
0.52
0.40
0.14
-0.18
-0.45
-0.57
-0.52
-0.34
-0.13
0.02
0.05
-0.05
-0.25
-0.52
-0.78
-0.97
-1.03
-0.95
-0.77
-0.59
-0.49
-0.52
-0.61
-0.69
-0.63
-0.41
-0.06
0.32
0.62
0.80
0.85
0.83
0.79
0.74
0.69
0.59
0.44
0.24
-0.00
-0.25
-0.48
-0.64
-0.69
-0.61
-0.41
-0.15
0.08
0.20
0.19
0.10
-0.06
-0.24
-0.48
-0.79
-1.14
-1.44
-1.56
-1.41
-1.02
-0.54
-0.19
-0.13
-0.38
-0.79
-1.17
-1.36
-1.33
-1.19
-1.05
-1.02
-1.08
-1.15
-1.13
-1.00
-0.80
-0.62
-0.54
-0.57
-0.67
-0.79
-0.83
-0.74
-0.52
-0.21
0.14
0.44
0.68
0.88
1.12
1.47
1.99
2.61
3.23
3.71
3.93
3.88
3.58
3.12
2.55
1.92
1.29
0.69
0.16
-0.30
-0.68
-0.97
-1.12
-1.09
-0.83
-0.38
0.12
0.44
0.41
-0.03
-0.79
-1.62
-2.28
-2.59
-2.56
-2.30
-2.03
-1.91
-1.99
-2.22
-2.48
-2.65
-2.67
-2.56
-2.37
-2.20
-2.11
-2.13
-2.30
-2.65
-3.14
-3.60
-3.73
-3.20
-1.83
0.30
2.80
5.13
6.82
7.70
7.89
7.70
7.39
7.04
6.56
5.81
4.82
3.83
3.17
3.06
3.45
3.99
4.19
3.73
2.58
1.04
-0.39
-1.30
-1.53
-1.21
-0.69
-0.30
-0.24
-0.55
-1.09
-1.68
-2.15
-2.42
-2.48
-2.41
-2.25
-2.05
-1.81
-1.50
-1.16
-0.85
-0.69
-0.76
-1.04
-1.39
-1.62
-1.60
-1.30
-0.86
-0.49
-0.33
-0.40
-0.59
-0.77
-0.84
-0.79
-0.67
-0.56
-0.52
-0.51
-0.48
-0.36
-0.13
0.15
0.39
0.50
0.44
0.28
0.11
0.02
0.03
0.09
0.07
-0.13
-0.47
-0.83
-1.03
-0.95
-0.58
-0.07
0.37
0.57
0.48
0.16
-0.23
-0.54
-0.67
-0.67
-0.62
-0.62
-0.71
-0.86
-0.98
-1.02
-0.96
-0.86
-0.82
-0.90
-1.13
-1.43
-1.72
-1.89
-1.91
-1.80
-1.61
-1.44
-1.31
-1.20
-1.05
-0.75
-0.29
0.29
0.86
1.27
1.44
1.38
1.17
0.95
0.76
0.56
0.28
-0.11
-0.56
-0.90
-0.96
-0.65
-0.04
0.70
1.37
1.82
2.01
2.02
1.96
1.85
1.68
1.36
0.84
0.15
-0.52
-0.92
-0.87
-0.32
0.60
1.59
2.36
2.71
2.61
2.21
1.74
1.37
1.16
1.04
0.89
0.59
0.14
-0.38
-0.81
-1.02
-0.98
-0.75
-0.52
-0.41
-0.49
-0.67
-0.84
-0.94
-0.99
-1.11
-1.41
-1.92
-2.49
-2.91
-2.96
-2.57
-1.80
-0.89
-0.05
0.53
0.78
0.73
0.49
0.19
0.00
0.04
0.38
0.98
1.67
2.24
2.52
2.41
1.96
1.30
0.60
-0.01
-0.47
-0.78
-0.98
-1.14
-1.29
-1.50
-1.77
-2.09
-2.45
-2.81
-3.13
-3.43
-3.75
-4.15
-4.69
-5.34
-6.02
-6.65
-7.19
-7.71
-8.38
-9.36
-10.68
-12.20
-13.65
-14.78
-15.55
-16.19
-17.08
-18.62
-20.92
-23.76
-26.68
-29.23
-31.14
-32.49
-33.60
-34.87
-36.60
-38.87
-41.56
-44.41
-47.11
-49.31
-50.73
-51.14
-50.47
-48.99
-47.46
-46.94
-48.19
-50.86
-52.82
-50.13
-37.93
-12.17
28.61
82.14
142.60
201.89
251.66
285.14
298.21
289.53
260.22
213.40
154.01
88.66
25.00
-29.43
-69.13
-92.15
-100.69
-100.00
-96.11
-93.28
-92.74
-92.89
-90.99
-84.98
-74.60
-61.25
-46.77
-32.50
-18.91
-5.97
6.13
16.71
24.78
29.73
31.74
31.78
31.16
30.89
31.39
32.49
33.78
34.89
35.78
36.57
37.41
38.19
38.53
37.84
35.67
31.94
27.15
22.30
18.60
17.11
18.35
22.05
27.03
31.31
32.68
29.37
20.84
8.08
-6.56
-20.28
-30.85
-37.33
-40.17
-40.65
-40.08
-39.17
-37.98
-36.30
-34.10
-31.70
-29.71
-28.66
-28.77
-29.94
-31.88
-34.30
-36.97
-39.80
-42.75
-45.80
-48.92
-52.02
-55.01
-57.79
-60.22
-62.24
-63.88
-65.30
-66.78
-68.68
-71.33
-74.84
-79.11
-83.76
-88.31
-92.30
-95.59
-98.33
-100.99
-104.11
-108.05
-112.86
-118.44
-124.70
-131.66
-139.24
-146.62
-151.95
-152.39
-144.78
-126.80
-97.75
-58.66
-11.63
41.08
97.36
155.01
211.14
261.93
303.34
332.43
348.63
354.03
352.63
348.83
345.95
345.43
346.71
347.62
345.13
336.19
318.44
290.88
253.99
209.35
158.90
104.43
47.59
-9.34
-63.01
-109.16
-143.79
-164.72
-172.69
-171.13
-164.64
-157.16
-150.68
-145.19
-139.61
-133.06
-125.60
-118.12
-111.67
-106.75
-103.02
-99.58
-95.49
-90.30
-84.18
-77.81
-72.02
-67.36
-63.98
-61.55
-59.47
-57.14
-54.22
-50.79
-47.31
-44.42
-42.68
-42.34
-43.21
-44.81
-46.56
-48.03
-49.16
-50.17
-51.53
-53.64
-56.74
-60.77
-65.42
-70.28
-74.98
-79.43
-83.81
-88.57
-94.16
-100.85
-108.59
-117.01
-125.67
-134.14
-142.03
-148.61
-152.45
-151.28
-142.45
-123.71
-94.14
-54.52
-6.96
45.96
101.91
158.88
214.80
266.95
311.99
346.82
369.95
382.37
387.31
388.68
389.06
388.28
383.68
371.53
349.12
316.19
274.80
228.04
178.25
126.22
71.66
14.79
-42.19
-94.73
-137.25
-165.41
-178.06
-177.74
-169.49
-158.63
-148.80
-141.14
-134.80
-128.36
-121.03
-113.13
-105.66
-99.49
-94.77
-90.83
-86.67
-81.51
-75.20
-68.32
-61.77
-56.33
-52.29
-49.32
-46.70
-43.70
-39.93
-35.53
-31.03
-27.08
-24.12
-22.23
-21.08
-20.13
-18.87
-17.04
-14.74
-12.36
-10.36
-9.13
-8.78
-9.05
-9.45
-9.38
-8.37
-6.30
-3.44
-0.40
2.15
3.66
3.95
3.15
1.67
-0.01
-1.46
-2.40
-2.68
-2.28
-1.36
-0.18
0.91
1.64
1.95
1.99
2.06
2.44
3.21
4.23
5.25
6.04
6.52
6.71
6.64
6.26
5.45
4.12
2.35
0.42
-1.30
-2.48
-3.02
-3.01
-2.71
-2.37
-2.14
-2.06
-2.09
-2.21
-2.40
-2.62
-2.77
-2.72
-2.40
-1.81
-1.10
-0.49
-0.19
-0.28
-0.69
-1.23
-1.69
-1.88
-1.74
-1.30
-0.71
-0.16
0.16
0.11
-0.34
-1.18
-2.27
-3.42
-4.39
-4.98
-5.02
-4.50
-3.53
-2.39
-1.37
-0.75
-0.70
-1.18
-1.97
-2.73
-3.07
-2.74
-1.75
-0.32
1.11
2.17
2.63
2.56
2.17
1.73
1.42
1.27
1.25
1.35
1.61
2.08
2.73
3.46
4.17
4.90
5.91
7.55
10.12
13.60
17.56
21.24
23.78
24.52
23.19
19.96
15.35
10.01
4.50
-0.72
-5.39
-9.34
-12.44
-14.60
-15.70
-15.70
-14.63
-12.66
-10.12
-7.48
-5.20
-3.66
-2.95
-2.96
-3.33
-3.65
-3.63
-3.20
-2.45
-1.55
-0.67
0.11
0.72
1.14
1.30
1.22
0.96
0.72
0.70
1.04
1.71
2.46
2.93
2.79
1.86
0.22
-1.79
-3.71
-5.10
-5.70
-5.47
-4.55
-3.23
-1.75
-0.25
1.21
2.65
4.07
5.43
6.62
7.52
8.02
8.03
7.54
6.62
5.41
4.10
2.87
1.84
1.02
0.32
-0.36
-1.10
-1.86
-2.48
-2.81
-2.76
-2.37
-1.79
-1.20
-0.72
-0.39
-0.12
0.22
0.75
1.54
2.59
3.81
5.08
6.25
7.14
7.54
7.28
6.25
4.55
