1660326097.00
64.000000
-0.00
-0.00
-0.00
-0.00
-0.00
-0.00
-0.00
-0.00
-0.00
-0.00
0.00
0.01
0.01
-0.00
-0.03
-0.05
-0.05
0.00
0.13
0.36
0.66
1.01
1.37
1.72
2.06
2.40
2.79
3.24
3.80
4.42
5.06
5.66
6.20
6.68
7.15
7.68
8.31
9.14
10.09
11.04
11.88
12.56
13.14
13.76
14.65
15.96
17.91
20.32
22.90
25.38
27.58
29.57
31.68
34.32
37.81
42.54
48.15
54.10
59.83
64.97
69.58
74.14
79.34
85.71
93.76
103.00
112.62
121.73
129.77
136.75
143.30
150.75
157.77
166.64
177.95
191.79
206.97
220.57
228.25
225.36
208.53
176.87
132.76
80.05
23.07
-34.94
-92.44
-149.16
-205.23
-260.37
-313.74
-363.87
-409.83
-450.91
-486.50
-515.74
-537.23
-549.22
-549.96
-538.37
-514.21
-478.67
-433.88
-382.45
-327.02
-269.84
-212.63
-156.66
-102.95
-52.37
-5.90
35.58
71.43
101.35
125.50
144.38
158.69
169.15
176.37
180.75
182.57
182.07
179.51
175.23
169.65
163.18
156.15
148.81
141.30
133.69
126.02
118.33
110.69
103.16
95.80
88.68
81.83
75.25
68.95
62.95
57.25
51.86
46.78
42.03
37.59
33.45
29.61
26.07
22.81
19.83
17.11
14.67
12.48
10.54
8.83
7.35
6.07
4.97
4.05
3.27
2.62
2.09
1.65
1.30
1.01
0.79
0.61
0.47
0.36
0.28
0.23
0.20
0.19
0.19
0.18
0.16
0.11
0.04
-0.04
-0.09
-0.10
-0.07
-0.02
0.03
0.06
0.04
-0.00
-0.06
-0.09
-0.07
0.00
0.10
0.18
0.19
0.11
-0.04
-0.19
-0.28
-0.24
-0.06
0.17
0.35
0.36
0.15
-0.23
-0.63
-0.86
-0.78
-0.38
0.19
0.65
0.75
0.38
-0.36
-1.19
-1.74
-1.72
-1.10
-0.15
0.69
0.98
0.51
-0.58
-1.83
-2.72
-2.85
-2.16
-0.92
0.39
1.24
1.17
-0.23
-3.25
-7.71
-12.81
-16.95
-18.16
-14.95
-7.25
3.47
14.43
22.68
26.39
25.37
20.96
15.10
9.40
4.59
0.67
-2.61
-5.34
-7.30
-8.20
-8.04
-7.18
-6.13
-5.29
-4.67
-3.91
-2.43
0.14
3.73
7.76
11.32
13.46
13.56
11.51
7.80
3.25
-1.14
-4.62
-6.76
-7.55
-7.28
-6.34
-5.06
-3.60
-2.08
-0.60
0.66
1.53
1.89
1.80
1.44
1.05
0.80
0.61
0.23
-0.62
-2.02
-3.64
-4.83
-4.80
-2.95
0.92
6.32
12.20
17.33
20.59
21.37
19.58
15.59
9.63
2.44
-5.12
-12.26
-18.37
-23.13
-26.55
-28.87
-30.53
-31.93
-33.27
-34.57
-35.70
-36.46
-36.70
-36.37
-35.60
-34.66
-33.92
-33.75
-34.38
-35.75
-37.24
-37.77
-36.03
-31.05
-22.64
-11.59
0.60
12.16
21.70
28.51
32.64
34.55
34.83
33.95
32.31
30.26
28.20
26.47
25.26
24.52
23.93
23.00
21.25
18.41
14.49
9.77
4.63
-0.62
-5.87
-11.23
-16.90
-22.91
-28.95
-34.23
-37.69
-38.24
-35.19
-28.53
-19.03
-8.10
2.61
11.60
17.90
21.18
21.70
20.07
17.11
13.59
10.22
7.51
5.73
4.88
4.67
4.70
4.53
3.90
2.76
1.25
-0.34
-1.74
-2.82
-3.65
-4.54
-5.89
-8.03
-10.94
-14.08
-16.45
-16.87
-14.52
-9.26
-1.88
6.16
13.24
18.04
19.89
18.91
15.74
11.33
6.59
2.23
-1.29
-3.80
-5.36
-6.22
-6.71
-7.10
-7.47
-7.62
-7.12
-5.42
-2.15
2.62
8.27
13.65
17.51
18.81
17.25
13.44
8.79
5.18
4.36
7.47
14.65
25.14
37.39
49.60
60.06
67.49
71.16
70.93
67.21
60.81
52.82
44.37
36.43
29.68
24.43
20.60
17.95
16.06
14.53
13.01
11.24
8.96
5.96
1.96
-3.34
-10.06
-18.02
-26.48
-34.13
-39.36
-40.79
-37.71
-30.46
-20.31
-9.10
1.33
9.62
15.11
17.83
18.25
17.05
14.90
12.37
9.92
7.88
6.45
5.72
5.57
5.76
5.98
5.93
5.41
4.37
2.79
0.67
-2.12
-5.80
-10.47
-15.88
-21.25
-25.32
-26.73
-24.54
-18.59
-9.68
0.64
10.55
18.48
23.44
25.09
23.68
19.75
14.01
7.14
-0.16
-7.23
-13.50
-18.56
-22.27
-24.79
-26.50
-27.90
-29.38
-31.17
-33.32
-35.86
-38.94
-42.89
-48.02
-54.25
-60.86
-66.40
-68.98
-66.93
-59.40
-46.80
-30.69
-13.34
2.94
16.44
26.20
32.02
34.18
33.18
29.64
24.36
18.27
12.38
7.53
4.19
2.29
1.32
0.59
-0.44
-2.00
-3.98
-6.17
-8.49
-11.16
-14.61
-19.15
-24.71
-30.49
-35.12
-36.92
-34.55
-27.46
-16.14
-2.02
12.95
26.84
38.17
46.10
50.45
51.47
49.80
46.23
41.66
36.96
32.81
29.58
27.20
25.27
23.22
20.62
17.31
13.45
9.42
5.60
2.15
-1.09
-4.55
-8.75
-13.93
-19.78
-25.31
-29.07
-29.55
-25.78
-17.67
-6.09
7.41
21.13
33.57
43.72
50.96
55.04
56.01
54.29
50.70
46.39
42.49
39.80
38.49
38.19
38.17
37.73
36.48
34.29
31.24
27.44
22.98
17.87
12.03
5.31
-2.48
-11.43
-21.23
-31.08
-39.68
-45.61
-47.80
-46.01
-40.90
-33.83
-26.44
-20.15
-15.94
-14.27
-15.17
-18.32
-23.08
-28.53
-33.60
-37.31
-38.99
-38.51
-36.18
-32.69
-28.74
-24.86
-21.30
-18.09
-15.16
-12.44
-9.98
-7.91
-6.48
-5.96
-6.56
-8.25
-10.59
-12.68
-13.29
-11.24
-5.84
2.79
13.68
25.25
35.77
43.80
48.48
49.60
47.56
43.09
37.02
30.06
22.68
15.17
7.80
0.92
-5.01
-9.57
-12.54
-14.06
-14.55
-14.54
-14.46
-14.48
-14.69
-15.25
-16.54
-19.18
-23.60
-29.80
-36.93
-43.44
-47.35
-46.98
-41.51
-31.31
-17.86
-3.21
10.58
21.94
30.09
34.83
36.39
35.21
31.79
26.79
20.98
15.22
10.24
6.49
4.05
2.65
1.87
1.32
0.78
0.20
-0.32
-0.77
-1.23
-1.99
-3.46
-5.97
-9.42
-13.24
-16.29
-17.23
-14.98
-9.13
-0.13
10.92
22.64
33.79
43.54
51.38
57.04
60.26
60.91
59.02
54.96
49.42
43.21
37.03
31.38
26.43
22.16
18.43
15.19
12.41
10.12
8.37
7.10
6.17
5.30
4.21
2.78
1.18
-0.11
-0.33
1.18
4.67
9.77
15.58
20.90
24.69
26.38
25.98
23.95
20.81
17.05
12.87
8.40
3.73
-0.96
-5.38
-9.27
-12.43
-14.83
-16.58
-17.84
-18.80
-19.67
-20.71
-22.23
-24.61
-28.30
-33.65
-40.79
-49.32
-58.22
-65.96
-70.88
-71.78
-68.33
-61.35
-52.47
-43.58
-36.19
-31.06
-28.11
-26.69
-26.01
-25.41
-24.46
-22.94
-20.78
-17.94
-14.47
-10.51
-6.33
-2.28
1.30
4.13
6.10
7.19
7.46
6.88
5.30
2.46
-1.81
-7.36
-13.57
-19.30
-23.11
-23.73
-20.43
-13.35
-3.44
7.76
18.54
27.37
33.24
35.67
34.74
30.96
25.02
17.72
9.76
1.76
-5.75
-12.39
-17.91
-22.34
-25.95
-29.20
-32.48
-35.94
-39.36
-42.31
-44.44
-45.71
-46.51
-47.41
-48.79
-50.48
-51.70
-51.27
-48.08
-41.60
-32.18
-21.01
-9.83
-0.38
6.05
8.91
8.35
5.08
0.03
-5.94
-12.13
-18.13
-23.71
-28.84
-33.58
-38.08
-42.46
-46.69
-50.52
-53.44
-54.96
-54.95
-53.87
-52.86
-53.29
-56.22
-61.71
-68.66
-75.17
-79.28
-79.75
-76.48
-70.40
-62.91
-55.34
-48.53
-42.91
-38.71
-36.09
-35.10
-35.57
-36.99
-38.56
-39.35
-38.57
-35.73
-30.72
-23.71
-15.14
-5.81
3.04
9.93
13.60
13.58
10.64
6.69
4.18
5.32
11.16
21.34
34.51
49.11
64.06
78.92
93.64
108.13
122.33
135.87
148.18
158.81
167.55
174.27
178.67
180.52
179.83
177.76
175.43
173.15
170.03
164.38
154.47
139.13
118.34
93.48
68.14
46.21
30.77
23.35
24.07
31.54
42.99
54.81
63.85
69.87
74.16
78.23
82.63
86.72
88.85
87.11
80.25
61.43
30.39
-5.94
-37.43
-57.85
-67.55
-70.43
-70.27
-68.88
-66.13
-60.03
-49.84
-37.09
-24.64
-14.94
-8.75
-5.44
-3.55
-1.58
2.40
8.71
15.60
20.85
22.83
21.79
18.82
15.25
12.18
10.81
10.90
10.21
6.92
0.80
-6.76
-13.90
-19.17
-21.54
-20.58
-17.25
-15.03
-16.20
-20.99
-28.08
-36.54
-46.80
-60.91
-76.06
-92.41
-113.14
-139.22
-168.41
-196.39
-219.10
-233.86
-239.11
-235.64
-207.08
-149.71
-73.61
3.64
68.70
116.80
149.20
169.89
179.98
181.36
171.79
150.37
118.65
79.39
34.26
-17.74
-64.83
-98.43
-114.23
-116.26
-111.02
-103.40
-95.51
-87.79
-79.95
-70.93
-61.46
-52.01
-44.35
-39.19
-36.03
-34.22
-33.93
-36.21
-41.34
-49.36
-57.28
-60.47
-53.47
-32.83
0.57
41.39
81.84
114.65
134.09
137.47
124.49
97.16
59.39
16.61
-24.98
-60.03
-85.60
-102.36
-112.88
-119.32
-121.35
-116.24
-101.38
-76.68
-46.00
-15.91
7.10
19.62
22.40
19.00
13.66
8.83
4.70
0.15
-5.56
-11.67
-16.12
-16.54
-11.76
-2.35
9.65
22.03
33.06
42.06
49.50
56.24
63.07
69.85
75.51
78.45
77.23
71.12
60.33
45.99
29.56
12.87
-2.89
-17.09
-29.40
-39.79
-47.48
-52.08
-53.03
-50.10
-42.89
-31.76
-17.48
-0.99
16.77
34.99
52.91
69.88
83.47
93.79
100.85
104.70
105.62
104.08
100.53
95.17
89.58
82.30
72.87
61.10
47.41
32.92
19.05
7.19
-1.98
-8.60
-13.84
-18.58
-23.57
-28.72
-32.94
-34.55
-32.14
-25.51
-16.07
-6.78
-0.51
0.61
-3.73
-11.64
-19.81
-24.92
-25.05
-20.64
-14.36
-10.04
-11.32
-20.07
-35.20
-52.55
-65.69
-67.88
-54.27
-23.95
18.40
63.30
97.98
110.54
94.69
52.91
-3.37
-57.02
-90.59
-92.02
-58.35
3.56
79.85
154.37
213.29
248.33
257.37
243.45
212.24
169.67
120.69
69.88
22.60
-15.20
-38.49
-45.82
-40.45
-29.95
-23.23
-26.62
-40.80
-59.35
-72.17
-70.31
-51.87
-22.53
8.22
32.27
45.94
50.20
48.73
45.01
41.07
36.45
29.86
20.45
8.15
-6.36
-22.17
-38.41
-54.69
-67.35
-74.18
-73.55
-65.13
-50.78
-34.69
-22.36
-18.65
-25.97
-43.53
-68.67
-97.79
-127.80
-156.67
-182.79
-203.91
-216.74
-217.70
-204.46
-177.62
-140.19
-96.59
-51.42
-8.76
27.73
54.40
67.82
65.96
49.43
22.70
-6.94
-31.85
-46.91
-51.15
-47.18
-39.02
-29.70
-20.04
-8.89
5.26
22.81
42.48
61.98
79.25
93.58
105.94
118.38
133.00
151.07
172.51
195.81
218.34
236.87
248.28
250.32
242.19
224.70
199.77
169.83
137.21
104.09
72.73
45.74
25.82
14.87
13.03
18.21
26.57
33.85
36.91
34.67
28.08
19.24
10.20
2.09
-5.10
-12.19
-20.18
-29.71
-40.75
-52.53
-63.84
-73.38
-80.14
-83.70
-84.23
-82.46
-79.42
-76.37
-74.65
-75.48
-79.55
-86.50
-94.60
-100.91
-102.09
-95.67
-81.11
-60.10
-35.95
-12.31
8.10
24.06
35.69
43.64
48.35
49.82
47.86
42.68
35.24
27.11
19.95
14.80
11.76
9.96
8.19
5.57
2.01
-1.77
-4.75
-6.23
-6.29
-5.83
-6.09
-8.21
-12.76
-19.84
-29.14
-40.13
-51.85
-62.71
-70.54
-73.00
-68.51
-57.00
-40.21
-21.18
-3.11
11.72
22.57
30.01
35.12
38.71
40.84
41.15
39.30
35.51
30.67
25.93
22.23
19.82
18.17
16.23
12.98
7.91
1.22
-6.17
-13.14
-18.78
-22.74
-25.30
-27.16
-29.13
-31.95
-36.13
-41.91
-49.02
-56.43
-62.18
-63.74
-58.75
-46.11
-26.61
-2.96
20.99
41.51
56.03
63.56
64.54
60.13
51.77
40.83
28.75
16.99
7.03
-0.02
-3.68
-4.31
-2.99
-1.20
-0.33
-1.31
-4.30
-8.76
-13.74
-18.29
-21.86
-24.52
-26.91
-29.87
-34.16
-40.19
-47.89
-56.71
-65.55
-72.80
-76.54
-74.97
-67.01
-52.91
-34.45
-14.46
3.99
18.55
28.16
33.03
34.10
32.46
28.88
23.77
17.48
10.54
3.74
-2.01
-6.00
-8.01
-8.40
-8.04
-7.96
-8.94
-11.24
-14.48
-17.86
-20.52
-21.88
-21.97
-21.34
-20.84
-21.37
-23.58
-27.65
-33.15
-38.94
-43.16
-43.63
-38.50
-26.95
-9.74
10.89
31.94
50.50
64.67
73.69
77.70
77.20
72.63
64.43
53.25
40.22
27.01
15.41
6.81
1.70
-0.52
-1.33
-2.52
-5.56
-11.08
-18.69
-27.33
-35.67
-42.73
-48.23
-52.49
-56.30
-60.57
-66.11
-73.41
-82.37
-92.02
-100.32
-104.56
-102.14
-91.68
-73.79
-51.06
-27.24
-5.94
10.42
21.00
26.11
26.58
23.17
16.58
7.76
-1.85
-10.42
-16.28
-18.63
-17.89
-15.54
-13.48
-13.23
-15.39
-19.48
-24.33
-28.70
-31.72
-33.30
-34.04
-35.05
-37.54
-42.56
-50.56
-61.08
-72.53
-82.28
-87.20
-84.56
-73.13
-53.76
-29.32
-3.80
18.96
36.31
47.30
52.38
52.65
49.27
43.14
35.07
26.03
17.32
10.26
5.81
4.07
4.21
4.76
4.23
1.76
-2.57
-7.81
-12.64
-16.01
-17.59
-17.87
-17.89
-18.82
-21.70
-27.20
-35.52
-46.23
-57.95
-68.37
-74.55
-73.73
-64.46
-47.34
-25.06
-1.61
18.99
33.90
42.03
43.81
40.51
33.59
24.36
14.08
4.09
-4.17
-9.54
-11.61
-11.01
-9.20
-7.96
-8.58
-11.44
-15.89
-20.77
-24.96
-27.94
-29.90
-31.60
-34.09
-38.28
-44.61
-52.72
-61.19
-67.67
-69.38
-64.03
-50.75
-30.61
-6.43
18.14
39.72
56.08
66.42
71.06
70.94
67.10
60.65
52.72
44.50
37.12
31.29
27.13
24.15
21.54
18.53
14.70
10.06
4.93
-0.21
-5.03
-9.40
-13.49
-17.77
-22.98
-29.81
-38.55
-48.63
-58.36
-65.21
-66.48
-60.27
-46.27
-26.00
-2.42
20.99
41.13
55.92
64.39
66.57
63.21
55.61
45.44
34.59
24.78
17.08
11.65
7.73
4.09
-0.29
-5.76
-11.82
-17.55
-22.07
-25.14
-27.34
-29.92
-34.45
-42.32
-54.14
-69.35
-85.92
-100.54
-109.31
-108.91
-97.72
-76.57
-48.57
-18.27
9.64
31.48
45.20
50.49
48.54
41.59
32.45
23.93
18.23
16.46
18.32
22.39
26.72
29.56
29.89
27.50
22.92
16.93
10.33
3.74
-2.61
-8.97
-16.07
-24.84
-35.79
-48.22
-59.91
-67.31
-66.72
-55.75
-34.56
-6.06
24.93
53.27
75.10
88.63
94.12
93.06
87.35
78.76
68.82
58.95
50.48
44.42
41.07
39.87
39.49
38.41
35.52
30.54
24.05
17.01
10.22
3.84
-2.73
-10.63
-20.96
-34.18
-49.50
-64.72
-76.58
-81.62
-77.40
-63.45
-41.65
-15.70
10.09
32.12
48.39
58.64
63.76
65.05
63.62
60.21
55.42
49.94
44.63
40.35
37.58
36.17
35.25
33.48
29.45
22.15
11.20
-3.20
-20.49
-40.19
-62.02
-85.86
-111.31
-137.23
-161.54
-181.50
-194.43
-198.62
-193.99
-182.28
-166.46
-149.75
-134.67
-122.25
-111.79
-101.14
-87.09
-65.74
-33.28
12.93
72.76
141.97
212.03
271.76
310.75
323.01
309.60
278.39
241.08
208.76
187.99
179.35
178.53
179.33
176.33
166.23
147.62
120.07
83.75
39.93
-8.13
-54.92
-93.67
-118.49
-126.49
-118.74
-99.47
-74.21
-48.02
-24.55
-6.29
4.92
7.74
1.83
-11.31
-28.25
-44.49
-56.14
-61.54
-61.84
-60.25
-60.36
-64.33
-72.04
-81.45
-90.09
-96.49
-100.83
-104.42
-108.12
-110.99
-109.95
-100.98
-81.23
-50.96
-14.00
23.41
55.02
76.77
87.83
90.02
86.37
79.56
71.22
62.04
52.47
43.23
35.52
30.58
29.23
31.44
36.24
42.02
47.04
49.79
49.45
45.84
39.33
30.64
20.70
10.75
2.55
-1.59
1.00
12.71
34.73
66.22
103.88
142.40
175.53
197.73
205.86
199.94
183.15
160.53
137.27
117.05
101.31
89.50
80.08
71.62
63.34
55.04
46.49
37.06
25.57
10.58
-9.14
-34.25
-64.38
-97.80
-131.31
-160.44
-180.27
-186.87
-178.85
-158.38
-130.98
-103.70
-82.78
-71.42
-68.80
-70.69
-71.22
-65.27
-50.41
-27.75
-1.11
24.53
44.70
56.85
60.94
59.34
56.35
56.66
63.63
78.76
100.98
126.48
149.80
165.71
171.10
166.68
155.91
142.58
130.35
121.32
115.04
109.14
100.74
87.99
71.96
55.53
41.25
32.29
31.38
38.94
53.02
70.12
86.50
100.42
111.16
117.03
117.85
114.82
109.02
101.61
94.01
80.74
60.65
45.90
40.37
40.02
41.35
40.62
34.68
21.54
0.71
-25.62
-54.03
-81.82
-104.35
-115.98
-112.96
-95.03
-65.86
-32.07
-0.01
25.35
40.33
44.78
40.83
30.52
14.98
-5.14
-28.68
-52.65
-73.24
-87.88
-95.22
-95.90
-93.04
-91.13
-94.59
-106.39
-127.06
-154.87
-186.47
-216.84
-240.24
-251.79
-248.87
-232.10
-205.21
-173.92
-144.25
-121.00
-106.62
-101.38
-104.11
-112.81
-124.76
-136.19
-142.27
-137.65
-117.61
-79.52
-24.04
44.45
118.13
187.35
242.65
277.19
288.40
278.47
253.29
220.02
184.80
151.13
119.70
89.50
59.09
27.18
-7.71
-47.58
-94.34
-148.11
-205.52
-259.15
-299.30
-317.25
-308.35
-273.15
-216.45
-145.17
-66.68
11.34
80.44
131.42
156.08
150.19
115.97
62.22
1.72
-53.00
-93.54
-117.07
-125.52
-123.47
-115.69
-105.87
-96.32
-88.10
-81.41
-75.73
-70.15
-63.87
-56.53
-48.74
-42.06
-38.77
-40.90
-49.13
-61.71
-74.19
-80.37
-74.36
-53.02
-17.41
27.26
73.57
114.72
146.71
168.92
183.12
191.65
196.09
197.05
195.09
191.53
188.61
188.54
192.14
197.91
202.22
200.70
190.14
169.98
142.55
112.05
82.69
56.97
34.99
14.93
-5.38
-26.94
-48.80
-68.46
-83.14
-91.24
-93.19
-91.41
-89.46
-90.96
-98.72
-114.25
-137.24
-165.24
-193.51
-215.46
-223.92
-213.24
-181.27
-130.55
-67.78
-1.58
60.42
114.00
158.83
197.09
230.94
260.42
282.90
294.44
291.97
275.05
246.29
210.09
171.02
132.36
95.80
62.04
31.50
4.76
-17.77
-36.19
-51.37
-64.62
-77.12
-89.44
-101.42
-112.51
-122.29
-130.85
-138.78
-146.91
-155.87
-165.84
-176.47
-187.10
-197.13
-206.32
-214.91
-223.45
-232.52
-242.06
-250.90
-256.62
-255.88
-245.22
-222.01
-185.26
-136.06
-77.59
-14.66
47.07
102.05
145.84
175.80
191.36
193.62
184.75
167.34
144.18
118.31
93.22
72.65
59.82
56.24
61.03
70.96
81.52
88.58
89.67
84.53
74.75
62.80
50.91
40.36
31.40
23.44
15.68
7.45
-1.62
-11.56
-22.33
-33.87
-46.14
-59.09
-72.62
-86.72
-101.72
-118.35
-137.42
-158.84
-180.73
-199.05
-208.29
-202.94
-179.50
-138.04
-82.43
-19.53
42.77
97.55
140.28
169.25
185.10
189.87
186.08
176.27
162.86
148.23
134.70
124.20
117.82
115.40
115.51
115.95
114.61
110.19
102.55
92.54
81.48
70.44
59.77
48.96
36.92
22.57
5.47
-13.92
-34.21
-53.61
-70.53
-84.00
-93.94
-101.02
-106.51
-112.12
-119.83
-131.59
-148.55
-170.07
-192.95
-211.67
-219.55
-210.78
-182.41
-135.47
-74.83
-7.77
58.04
116.30
162.99
196.51
217.02
225.72
224.36
215.14
200.60
183.61
166.94
152.89
142.71
136.38
132.74
129.91
125.94
119.36
109.47
96.43
81.12
64.83
48.71
33.45
19.02
4.82
-9.92
-25.66
-42.25
-59.02
-75.18
-90.20
-103.97
-116.73
-128.78
-140.42
-152.11
-164.64
-179.14
-196.29
-215.22
-232.74
-243.46
-241.06
-220.41
-179.61
-121.03
-50.91
22.39
90.53
147.17
188.83
214.89
226.74
226.88
218.09
203.01
184.10
163.61
143.60
125.60
110.45
97.98
87.29
77.19
66.73
55.57
43.79
31.65
19.23
6.44
-6.88
-20.50
-33.79
-45.90
-56.15
-64.57
-71.88
-79.26
-87.66
-97.30
-107.52
-117.02
-124.52
-129.31
-131.75
-133.02
-135.04
-139.80
-148.80
-162.16
-178.06
-192.44
-199.48
-193.18
-169.29
-127.24
-70.78
-7.15
55.18
108.87
149.43
175.50
187.92
188.56
179.37
162.31
139.64
114.12
88.71
65.75
46.33
29.98
15.05
-0.45
-17.95
-37.81
-59.37
-81.23
-102.02
-120.85
-137.70
-153.33
-168.84
-185.32
-203.50
-223.91
-246.88
-272.53
-300.24
-328.21
-353.41
-372.19
-381.56
-380.36
-369.84
-353.04
-333.64
-314.64
-297.81
-283.61
-271.66
-261.11
-250.78
-239.11
-224.44
-205.30
-181.08
-152.32
-120.68
-88.48
-58.20
-31.83
-10.61
5.05
15.50
21.54
24.25
24.68
23.72
22.04
20.13
18.38
16.94
15.85
14.95
14.11
13.26
12.48
11.89
11.53
11.31
10.98
10.30
9.18
7.80
6.51
5.79
5.97
7.11
9.00
11.19
13.19
14.63
15.39
15.69
15.98
16.83
18.70
21.88
26.41
32.29
39.60
48.67
59.98
73.97
90.76
109.93
130.56
151.57
172.00
191.50
210.29
229.11
248.95
270.93
296.13
325.33
358.40
393.56
427.21
454.38
470.20
471.61
458.61
434.15
402.91
369.48
336.91
306.36
277.79
250.97
226.07
203.59
183.67
165.72
148.39
130.40
111.22
91.42
72.44
55.82
42.44
32.02
23.32
14.72
4.90
-6.52
-18.83
-30.35
-38.95
-42.69
-40.40
-32.04
-18.70
-2.34
14.79
30.62
43.61
52.95
58.42
60.27
59.06
55.49
50.36
44.47
38.52
33.03
28.27
24.21
20.61
17.10
13.32
9.03
4.23
-0.93
-6.19
-11.35
-16.36
-21.36
-26.63
-32.35
-38.47
-44.59
-50.08
-54.28
-56.86
-58.04
-58.61
-59.68
-62.32
-67.14
-74.05
-82.15
-89.85
-95.06
-95.66
-90.00
-77.48
-58.90
-36.33
-12.65
9.28
27.42
40.77
49.37
53.80
54.85
53.26
49.83
45.52
41.36
38.25
36.60
36.19
36.26
35.89
34.44
31.71
27.97
23.71
19.31
14.84
10.15
4.96
-0.87
-7.25
-13.84
-20.21
-25.91
-30.75
-34.78
-38.38
-42.11
-46.53
-52.01
-58.57
-65.75
-72.56
-77.50
-78.85
-75.10
-65.50
-50.45
-31.63
-11.50
7.35
22.96
34.32
41.34
44.49
44.39
41.69
37.11
31.53
26.05
21.65
18.88
17.58
17.01
16.16
14.25
10.98
6.65
1.94
-2.53
-6.45
-9.93
-13.41
-17.41
-22.27
-27.98
-34.19
-40.41
-46.12
-51.05
-55.26
-59.15
-63.35
-68.35
-74.29
-80.72
-86.54
-90.19
-90.06
-84.93
-74.37
-58.97
-40.20
-20.08
-0.71
16.23
29.69
39.35
45.36
48.19
48.42
46.73
43.82
40.42
37.08
34.04
31.16
28.07
24.37
19.90
14.79
9.41
4.21
-0.60
-5.07
-9.50
-14.32
-19.85
-26.09
-32.78
-39.46
-45.65
-51.14
-56.02
-60.71
-65.79
-71.88
-79.42
-88.38
-97.96
-106.40
-111.16
-109.50
-99.37
-80.29
-53.68
-22.62
9.01
37.62
60.67
76.93
86.26
89.26
86.96
80.68
71.95
62.38
53.31
45.48
38.88
33.03
27.26
21.22
15.00
9.05
3.80
-0.62
-4.43
-8.06
-11.91
-16.10
-20.54
-24.97
-29.19
-33.18
-37.12
-41.44
-46.73
-53.73
-63.12
-75.02
-88.48
-101.13
-109.35
-109.19
-97.77
-74.29
-40.89
-2.13
36.38
69.74
95.02
111.59
120.53
123.62
122.69
119.00
113.23
105.79
97.16
88.13
79.60
72.29
66.46
62.15
58.74
55.04
49.86
42.46
33.06
22.53
11.95
2.21
-5.21
-9.65
-11.69
-12.90
-15.10
-19.68
-27.48
-38.52
-51.73
-62.30
-64.91
-55.73
-33.73
-0.61
39.85
82.42
121.50
152.48
176.54
196.06
212.16
223.62
228.28
224.81
213.49
196.47
177.64
166.58
170.92
192.50
226.61
265.23
300.84
328.42
346.07
324.27
249.83
132.18
-1.34
-124.70
-225.35
-302.28
-359.29
-400.39
-428.78
-442.31
-440.20
-425.44
-404.48
-383.82
-367.21
-355.56
-347.81
-341.98
-333.07
-318.10
-297.79
-275.99
-256.97
-243.14
-234.89
-230.70
-228.77
-225.35
-217.82
-205.86
-191.05
-175.09
-158.16
-142.74
-128.93
-116.29
-103.25
-88.80
-73.11
-57.46
-43.34
-31.71
-22.77
-15.53
-8.81
-1.14
8.45
20.13
33.23
46.83
60.11
72.67
84.96
97.59
111.14
126.12
142.93
161.76
182.35
203.60
223.43
239.31
248.65
249.75
242.48
228.37
210.05
190.24
170.98
153.28
137.51
123.68
111.89
102.37
95.07
89.33
83.63
75.90
64.29
48.16
28.70
8.97
-7.03
-15.68
-14.98
-5.18
11.50
31.77
52.21
69.92
82.67
88.76
87.10
77.65
61.87
42.91
24.99
12.11
6.53
7.91
13.29
18.25
18.66
12.16
-1.03
-18.49
-36.71
-52.41
-63.48
-69.30
-70.46
-68.37
-64.77
-61.50
-60.21
-61.88
-66.36
-72.05
-76.18
-75.63
-68.14
-53.22
-32.42
-8.62
14.97
35.91
52.90
65.59
74.03
78.22
78.17
74.20
67.42
59.70
53.38
50.42
51.70
56.63
63.23
68.82
70.76
67.24
57.58
42.38
23.17
2.02
-18.87
-37.63
-53.04
-64.68
-73.05
-79.34
-85.05
-91.27
-98.09
-104.30
-107.66
-105.63
-96.44
-79.80
-57.17
-31.32
-5.56
17.19
34.83
46.30
51.41
50.59
44.81
35.53
24.59
13.91
5.00
-1.46
-5.95
-9.91
-15.23
-23.52
-35.48
-50.64
-67.65
-84.89
-101.22
-116.34
-130.82
-145.71
-161.90
-179.72
-198.74
-217.79
-235.21
-249.06
-257.48
-259.01
-252.94
-239.51
-219.80
-195.44
-167.89
-137.92
-105.49
-70.13
-31.74
8.65
48.64
84.84
113.76
132.74
140.71
138.37
128.06
113.24
97.81
85.37
78.47
78.08
83.47
92.51
102.43
110.69
115.61
116.56
113.81
108.11
100.36
91.43
82.00
72.47
62.90
52.99
42.29
30.67
18.70
7.85
0.22
-2.18
1.69
11.40
24.98
39.56
52.30
61.21
65.51
65.48
62.05
56.37
49.47
42.23
35.35
29.38
24.58
20.99
18.38
16.44
14.87
13.41
11.90
10.18
8.21
6.16
4.42
3.40
3.16
3.17
2.31
-0.68
-6.70
-15.76
-26.95
-38.74
-49.43
-57.54
-61.95
-61.90
-56.98
-47.28
-33.56
-17.24
-0.22
15.60
28.80
38.67
45.21
48.96
50.64
51.01
50.71
50.22
49.88
49.83
50.05
50.40
50.59
50.30
49.25
47.28
44.45
40.99
37.23
33.47
29.88
26.47
23.11
19.63
15.88
11.67
6.86
1.34
-4.75
-10.86
-16.11
-19.41
-19.90
-17.26
-11.91
-4.88
2.63
9.56
15.30
19.62
22.55
24.17
24.57
23.90
22.45
20.67
19.07
18.04
17.70
17.92
18.33
18.52
18.15
17.09
15.37
13.15
10.65
8.06
5.47
2.89
0.22
-2.68
-6.00
-9.92
-14.53
-19.76
-25.33
-30.69
-35.05
-37.60
-37.70
-35.15
-30.20
-23.54
-16.05
-8.59
-1.82
3.85
8.29
11.56
13.88
15.66
17.39
19.56
22.59
26.69
31.77
37.43
42.98
47.60
50.53
51.30
49.88
46.68
42.40
37.75
33.20
28.90
24.67
20.16
14.99
8.90
1.84
-5.89
-13.66
-20.48
-25.21
-26.85
-24.89
-19.55
-11.75
-2.89
5.55
12.45
17.28
20.07
21.19
21.05
19.96
18.12
15.78
13.33
11.30
10.12
9.90
10.32
10.75
10.51
9.21
6.91
4.01
1.08
-1.47
-3.51
-5.11
-6.51
-7.94
-9.56
-11.46
-13.57
-15.66
-17.32
-17.97
-16.93
-13.76
-8.42
-1.34
6.72
14.87
22.29
28.33
32.60
35.11
36.10
36.04
35.48
34.98
34.96
35.63
36.93
38.57
40.52
42.75
45.28
48.13
51.24
54.49
57.63
60.31
62.19
64.00
66.56
70.62
76.52
84.17
93.14
102.70
112.02
120.25
128.70
138.78
151.42
166.59
183.34
200.35
216.27
229.82
239.63
246.88
251.99
254.33
252.66
246.48
237.36
228.86
224.87
227.46
239.14
258.63
281.45
301.59
314.14
317.21
312.15
302.04
267.29
197.49
92.95
-32.92
-159.79
-270.25
-355.45
-414.69
-452.09
-473.41
-480.36
-474.14
-456.54
-430.97
-401.76
-373.04
-347.62
-326.69
-310.16
-294.33
-275.96
-253.64
-228.60
-203.64
-181.73
-164.70
-152.90
-145.44
-139.34
-132.11
-122.94
-113.43
-105.74
-102.15
-104.27
-112.89
-127.70
-145.96
-163.03
-171.42
-166.22
-145.20
-110.45
-68.19
-26.80
6.19
26.92
35.63
35.27
29.19
20.04
9.12
-2.85
-14.87
-25.36
-32.71
-35.96
-35.44
-32.71
-29.44
-27.12
-26.31
-26.67
-27.18
-26.96
-24.94
-20.94
-15.66
-10.00
-4.77
-0.31
3.52
7.09
10.66
14.24
17.52
20.18
22.19
23.84
25.56
27.63
29.97
32.19
33.69
33.79
31.95
27.88
21.51
13.17
3.78
-5.16
-11.82
-14.70
-13.39
-8.77
-2.81
2.29
4.98
4.89
2.73
-0.34
-3.47
-6.52
-9.92
-14.23
-19.60
-25.63
-31.44
-36.05
-38.67
-38.97
-36.90
-32.84
-27.10
-20.01
-11.80
-2.74
6.88
16.65
26.05
34.46
41.20
45.61
47.14
45.64
41.52
35.90
30.24
25.89
23.39
22.25
21.13
18.42
12.77
3.30
-10.41
-28.43
-50.31
-74.66
-98.91
-119.56
-133.04
-136.99
-131.13
-117.41
-99.27
-80.40
-63.65
-50.44
-40.74
-33.55
-27.37
-20.72
-12.51
-2.26
9.75
22.62
35.16
46.23
55.01
61.15
64.70
65.99
65.57
64.09
62.20
60.50
59.42
59.29
60.40
63.10
67.77
74.52
82.64
90.16
93.84
89.89
75.35
49.50
14.80
-23.48
-58.69
-84.92
-98.82
-100.38
-92.38
-78.86
-63.50
-48.51
-34.54
-21.43
-8.95
2.59
12.56
20.48
26.57
31.78
37.39
44.30
52.53
61.17
68.91
74.57
77.51
77.61
75.00
69.71
61.66
50.71
36.97
20.74
2.32
-18.43
-42.32
-70.51
-103.75
-141.29
-180.18
-215.35
-240.74
-251.04
-243.31
-217.95
-178.53
-130.73
-80.86
-34.49
4.41
33.69
52.83
62.60
64.70
61.54
55.91
50.68
48.26
50.06
56.15
65.27
75.31
84.19
90.60
94.52
97.03
99.78
104.26
111.34
121.09
132.76
144.92
155.54
162.28
163.09
156.92
144.23
126.99
107.95
89.54
72.86
57.53
42.25
25.92
8.54
-8.59
-23.54
-34.76
-41.91
-45.89
-48.06
-49.29
-49.37
-47.28
-41.99
-33.45
-22.97
-12.84
-5.32
-1.79
-2.27
-5.59
-9.98
-13.61
-15.04
-13.55
-9.49
-4.67
-2.59
-7.90
-25.15
-56.83
-101.69
-154.17
-205.48
-246.02
-268.21
-268.61
-248.39
-212.43
-167.46
-120.24
-76.31
-39.49
-11.88
6.00
15.04
17.37
15.91
13.77
13.53
16.68
23.44
32.89
43.46
53.52
61.84
67.92
72.05
75.08
78.06
81.85
86.95
93.49
101.32
110.08
119.19
127.74
134.52
138.13
137.36
131.56
121.01
106.92
91.27
76.23
63.48
53.76
46.75
41.38
36.52
31.42
26.05
20.88
16.47
13.09
10.52
8.28
5.93
3.26
0.46
-2.07
-3.86
-4.52
-3.83
-1.84
1.04
3.94
5.66
4.96
0.85
-7.07
-18.54
-32.84
-49.13
-66.80
-85.79
-106.47
-129.22
-153.78
-178.57
-200.49
-215.35
-219.06
-209.11
-185.75
-152.19
-113.71
-75.98
-43.43
-18.18
-0.06
12.60
21.94
29.83
37.58
45.95
55.36
65.90
77.15
88.15
97.53
104.02
106.95
106.72
104.69
102.80
102.81
105.59
110.78
116.89
121.91
124.01
122.25
116.83
108.89
99.92
91.08
82.66
74.05
64.09
51.72
36.61
19.47
2.05
-13.38
-24.74
-30.71
-31.21
-27.33
-21.00
-14.33
-9.09
-6.27
-6.02
-7.84
-10.93
-14.40
-17.53
-19.81
-21.00
-21.12
-20.53
-19.82
-19.64
-20.50
-22.58
-25.76
-29.72
-34.21
-39.10
-44.40
-50.09
-55.93
-61.57
-66.69
-71.32
-76.09
-82.12
-90.81
-103.19
-119.43
-138.42
-157.76
-174.22
-184.34
-185.31
-175.65
-155.62
-127.28
-94.11
-60.32
-30.05
-6.50
8.67
15.68
16.36
13.60
10.46
9.30
11.30
16.38
23.59
31.65
39.45
46.16
51.31
54.58
55.73
54.72
51.92
48.14
44.52
42.10
41.40
42.19
43.55
44.29
43.37
40.28
35.07
28.30
20.87
13.92
8.73
6.64
8.66
15.21
25.90
39.56
54.54
69.24
82.35
93.09
101.11
106.34
108.87
108.99
107.09
103.72
99.46
94.74
89.70
84.21
77.92
70.61
62.33
53.55
44.97
37.39
31.33
26.97
24.05
22.05
20.47
18.94
17.26
15.52
13.98
13.02
12.97
13.88
15.41
17.07
18.11
17.73
15.47
11.50
6.74
2.72
1.03
2.72
8.56
18.32
30.88
44.72
58.50
71.39
83.47
94.98
105.94
116.84
127.52
137.36
145.41
150.97
153.79
154.71
154.97
156.06
160.59
170.46
186.08
205.84
226.48
243.98
255.48
259.66
250.82
228.44
196.75
163.32
134.95
115.77
102.15
89.82
75.50
56.72
34.40
9.33
-18.25
-48.71
-82.52
-119.76
-159.26
-199.38
-238.37
-273.68
-303.47
-326.89
-344.32
-357.17
-367.57
-377.22
-387.56
-399.40
-412.01
-423.77
-432.38
-435.15
-429.54
-413.87
-387.65
-352.42
-311.64
-269.48
-229.93
-195.51
-166.74
-142.25
-119.73
-97.00
-73.24
-49.33
-27.37
-9.77
1.77
7.03
7.39
5.18
2.85
1.93
2.80
5.02
8.11
12.22
18.30
27.61
40.89
57.83
76.92
95.86
112.31
124.55
131.88
134.65
133.85
130.65
125.86
119.81
112.47
103.86
94.51
85.42
77.76
72.16
68.29
64.93
60.62
54.50
46.78
38.65
31.48
26.08
22.24
19.01
15.37
10.89
5.92
1.32
-2.16
-4.43
-6.19
-8.60
-12.66
-18.70
-26.11
-33.67
-39.95
-43.88
-44.97
-43.23
-38.97
-32.50
-24.15
-14.28
-3.47
7.40
17.36
25.45
31.07
34.07
34.72
33.64
31.56
29.20
27.13
25.64
24.82
24.51
24.43
24.20
23.47
22.04
19.93
17.33
14.54
11.79
9.12
6.37
3.31
-0.15
-3.91
-7.70
-11.29
-14.60
-17.81
-21.17
-24.80
-28.56
-32.10
-35.09
-37.33
-38.95
-40.18
-41.17
-41.82
-41.69
-40.18
-36.82
-31.49
-24.50
-16.45
-8.07
0.04
7.51
14.19
20.07
25.14
29.30
32.34
34.05
34.32
33.37
31.67
29.78
28.13
26.78
25.51
23.95
21.98
19.83
18.10
17.29
17.47
18.04
17.92
16.11
12.18
6.59
0.42
-5.16
-9.44
-12.42
-14.67
-16.85
-19.34
-22.13
-25.01
-27.86
-30.80
-34.06
-37.65
-41.13
-43.69
-44.41
-42.76
-38.74
-32.92
-26.07
-18.87
-11.76
-4.91
1.53
7.44
12.63
16.99
20.53
23.45
25.93
28.07
29.83
31.08
31.69
31.69
31.19
30.35
29.25
27.84
26.04
23.79
21.20
18.53
16.06
14.03
12.56
11.56
10.84
10.11
9.05
7.37
4.93
1.73
-2.02
-5.98
-9.76
-13.10
-15.91
-18.36
-20.82
-23.76
-27.61
-32.51
-38.21
-43.97
-48.73
-51.38
-51.08
-47.61
-41.36
-33.19
-24.10
-15.00
-6.57
0.77
6.73
11.17
14.15
15.91
16.92
17.73
18.74
20.11
21.71
23.23
24.40
25.07
25.27
25.15
24.85
24.43
23.87
23.01
21.70
19.76
17.10
13.77
9.91
5.77
1.55
-2.64
-6.79
-11.01
-15.36
-19.88
-24.49
-29.05
-33.39
-37.27
-40.45
-42.60
-43.47
-42.95
-41.15
-38.40
-35.09
-31.58
-27.98
-24.21
-20.06
-15.37
-10.07
-4.33
1.48
6.86
11.24
14.19
15.58
15.68
15.14
14.77
15.21
16.68
18.84
20.99
22.34
22.37
21.05
18.78
16.22
14.03
12.62
12.03
11.86
11.38
9.73
6.25
0.79
-6.10
-13.24
-19.28
-23.21
-24.85
-24.97
-24.96
-26.25
-29.70
-35.25
-41.98
-48.49
-53.32
-55.38
-54.09
-49.44
-41.92
-32.36
-21.82
-11.40
-2.02
5.70
11.51
15.55
18.25
20.17
21.79
23.37
24.92
26.28
27.21
27.52
27.17
26.18
24.67
22.76
20.62
18.51
16.63
15.14
13.96
12.85
11.46
9.56
7.10
4.26
1.32
-1.46
-3.91
-5.97
-7.60
-8.86
-9.94
-11.17
-13.02
-15.94
-20.14
-25.48
-31.45
-37.32
-42.34
-45.88
-47.44
-46.70
-43.53
-38.12
-30.99
-22.93
-14.80
-7.27
-0.64
5.16
10.48
15.60
20.65
25.52
29.91
33.53
36.15
37.75
38.39
38.19
37.26
35.69
33.61
31.17
28.65
26.23
24.03
22.00
20.00
17.92
15.73
13.60
11.65
9.87
7.99
5.58
2.28
-1.98
-6.93
-12.03
-16.84
-21.12
-25.01
-28.81
-32.79
-36.96
-40.98
-44.31
-46.39
-46.79
-45.40
-42.35
-37.95
-32.57
-26.50
-19.91
-12.90
-5.59
1.86
9.16
16.05
22.29
27.77
32.40
36.13
38.87
40.46
40.83
40.06
38.44
36.40
34.38
32.67
31.27
29.99
28.47
26.43
23.69
20.32
16.51
12.59
8.86
5.59
2.88
0.70
-1.19
-3.20
-5.75
-9.11
-13.26
-17.83
-22.25
-26.03
-28.99
-31.32
-33.53
-36.11
-39.26
-42.76
-45.93
-47.95
-48.03
-45.72
-40.98
-34.21
-26.01
-17.12
-8.16
0.39
8.25
15.31
21.52
26.84
31.26
34.75
37.32
39.05
39.97
40.16
39.64
38.44
36.70
34.63
32.53
30.66
29.20
28.13
27.24
26.19
24.62
22.33
19.33
15.83
12.18
8.71
5.60
2.85
0.32
-2.25
-5.06
-8.23
-11.76
-15.53
-19.34
-23.03
-26.46
-29.64
-32.77
-36.06
-39.64
-43.34
-46.69
-48.97
-49.46
-47.67
-43.48
-37.15
-29.21
-20.29
-11.03
-1.96
6.44
13.82
19.96
24.79
28.40
31.04
33.10
34.98
37.03
39.41
41.98
44.30
45.77
45.80
44.12
40.85
36.54
31.93
27.71
24.32
21.82
20.01
18.52
16.94
14.98
12.45
9.29
5.51
1.15
-3.71
-8.91
-14.19
-19.20
-23.62
-27.28
-30.26
-32.89
-35.60
-38.68
-42.14
-45.69
-48.78
-50.84
-51.39
-50.15
-47.06
-42.26
-36.04
-28.73
-20.66
-12.12
-3.35
5.35
13.57
20.78
26.52
30.54
32.97
34.22
34.86
35.34
35.85
36.33
36.62
36.53
36.03
35.12
33.84
32.19
30.18
27.85
25.31
22.74
20.32
18.16
16.22
14.34
12.29
9.86
6.94
3.60
0.09
-3.32
-6.46
-9.29
-11.92
-14.51
-17.19
-19.97
-22.83
-25.77
-28.85
-32.15
-35.59
-38.88
-41.48
-42.75
-42.16
-39.48
-34.80
-28.49
-21.08
-13.11
-5.07
2.63
9.70
15.95
21.28
25.66
29.15
31.82
33.77
35.15
36.06
36.60
36.81
36.67
36.08
34.96
33.25
31.02
28.43
25.62
22.70
19.73
16.72
13.75
10.95
8.54
6.63
5.22
4.04
2.74
0.97
-1.45
-4.45
-7.75
-10.98
-13.84
-16.20
-18.24
-20.36
-23.08
-26.74
-31.40
-36.65
-41.75
-45.79
-47.99
-47.86
-45.28
-40.44
-33.74
-25.73
-17.02
-8.27
-0.08
7.08
12.97
17.58
21.06
23.62
25.48
26.80
27.70
28.27
28.52
28.39
27.77
26.63
25.04
23.20
21.34
19.67
18.23
16.97
15.77
14.55
13.27
11.91
10.34
8.43
6.03
3.12
-0.22
-3.82
-7.55
-11.38
-15.29
-19.25
-23.14
-26.80
-30.09
-33.00
-35.60
-37.93
-39.90
-41.18
-41.34
-39.95
-36.83
-32.09
-26.11
-19.42
-12.56
-5.94
0.20
5.80
10.90
15.54
19.69
23.22
25.94
27.71
28.52
28.54
28.02
27.22
26.29
25.18
23.80
22.04
19.95
17.72
15.62
13.85
12.48
11.35
10.16
8.61
6.47
3.74
0.56
-2.78
-6.03
-9.03
-11.77
-14.39
-16.99
-19.63
-22.29
-24.95
-27.71
-30.80
-34.38
-38.43
-42.42
-45.51
-46.69
-45.24
-40.96
-34.31
-26.17
-17.45
-8.86
-0.72
6.95
14.17
20.86
26.80
31.65
35.15
37.15
37.80
37.34
36.11
34.45
32.56
30.64
28.82
27.14
25.63
24.25
22.86
21.26
19.25
16.64
13.39
9.56
5.37
1.09
-3.02
-6.87
-10.54
-14.28
-18.29
-22.63
-27.12
-31.45
-35.32
-38.68
-41.78
-44.95
-48.37
-51.80
-54.53
-55.56
-53.99
-49.35
-41.87
-32.35
-21.96
-11.84
-2.85
4.62
10.55
15.24
19.12
22.61
26.02
29.45
32.81
35.81
38.17
39.65
40.19
39.90
38.96
37.55
35.83
33.86
31.70
29.42
27.08
24.69
22.18
19.40
16.19
12.45
8.22
3.66
-1.03
-5.64
-9.99
-13.98
-17.52
-20.65
-23.51
-26.35
-29.56
-33.43
-38.01
-42.95
-47.50
-50.75
-51.85
-50.32
-46.13
-39.67
-31.59
-22.61
-13.40
-4.39
4.11
11.95
19.04
25.27
30.46
34.43
37.04
38.30
38.42
37.67
36.38
34.82
33.16
31.49
29.91
28.45
27.13
25.92
24.78
23.59
22.26
20.64
18.56
15.87
12.56
8.77
4.74
0.77
-2.94
-6.38
-9.64
-12.89
-16.22
-19.65
-23.16
-26.70
-30.35
-34.20
-38.33
-42.68
-46.91
-50.49
-52.74
-53.06
-51.13
-46.98
-40.97
-33.63
-25.49
-16.94
-8.20
0.62
9.35
17.76
25.49
32.20
37.65
41.77
44.62
46.30
46.88
46.42
44.94
42.62
39.79
36.88
34.37
32.55
31.42
30.71
29.97
28.78
26.83
24.11
20.81
17.29
13.90
10.85
8.14
5.57
2.85
-0.25
-3.77
-7.57
-11.40
-15.02
-18.36
-21.53
-24.77
-28.33
-32.34
-36.80
-41.58
-46.42
-50.95
-54.66
-56.95
-57.24
-55.11
-50.44
-43.51
-34.91
-25.40
-15.66
-6.16
2.93
11.59
19.81
27.38
33.91
38.90
41.98
43.13
42.72
41.36
39.66
38.05
36.66
35.45
34.34
33.34
32.53
31.98
31.66
31.34
30.72
29.44
27.31
24.30
20.59
16.47
12.29
8.36
4.88
1.90
-0.62
-2.87
-5.03
-7.28
-9.80
-12.70
-16.01
-19.69
-23.71
-28.09
-32.98
-38.51
-44.65
-51.02
-56.84
-61.06
-62.71
-61.18
-56.48
-49.11
-39.88
-29.63
-19.06
-8.74
0.90
9.50
16.82
22.75
27.31
30.65
32.98
34.49
35.38
35.85
36.05
36.08
35.94
35.57
34.92
33.99
32.86
31.61
30.27
28.77
26.99
24.82
22.25
19.42
16.50
13.67
11.00
8.43
5.87
3.20
0.43
-2.39
-5.21
-7.99
-10.79
-13.71
-16.82
-20.14
-23.67
-27.40
-31.37
-35.68
-40.35
-45.18
-49.65
-52.97
-54.34
-53.15
-49.25
-42.98
-35.05
-26.25
-17.25
-8.47
-0.10
7.70
14.74
20.74
25.42
28.69
30.70
31.80
32.43
32.96
33.55
34.13
34.49
34.39
33.73
32.57
31.11
29.57
28.09
26.65
25.12
23.33
21.20
18.82
16.36
14.03
11.87
9.76
7.47
4.77
1.65
-1.74
-5.08
-8.08
-10.64
-12.88
-15.10
-17.61
-20.57
-23.99
-27.73
-31.67
-35.74
-39.88
-43.94
-47.50
-49.94
-50.59
-48.96
-44.93
-38.77
-31.08
-22.49
-13.56
-4.69
3.82
11.74
18.84
24.89
29.74
33.35
35.81
37.28
37.93
37.93
37.40
36.41
35.10
33.61
32.13
30.77
29.55
28.42
27.22
25.85
24.23
22.37
20.24
17.78
14.97
11.81
8.46
5.18
2.17
-0.53
-3.09
-5.83
-9.08
-12.93
-17.23
-21.62
-25.74
-29.42
-32.75
-36.07
-39.80
-44.19
-49.22
-54.43
-59.04
-62.10
-62.70
-60.33
-55.00
-47.28
-38.09
-28.44
-19.06
-10.30
-2.13
5.64
13.11
20.14
26.38
31.35
34.66
36.11
35.80
34.08
31.49
28.66
26.11
24.18
22.97
22.37
22.12
21.96
21.67
21.12
20.21
18.89
17.09
14.79
12.05
9.02
5.87
2.74
-0.33
-3.35
-6.43
-9.62
-12.94
-16.38
-19.92
-23.56
-27.36
-31.29
-35.17
-38.60
-41.02
-41.79
-40.43
-36.72
-30.83
-23.24
-14.64
-5.75
2.80
10.56
17.20
22.52
26.39
28.82
29.98
30.18
29.82
29.30
28.87
28.63
28.47
28.18
27.53
26.38
24.82
23.12
21.62
20.49
19.63
18.60
16.86
14.01
10.02
5.20
0.04
-5.06
-9.90
-14.46
-18.76
-22.80
-26.53
-29.98
-33.30
-36.67
-40.14
-43.43
-45.99
-47.10
-46.13
-42.83
-37.37
-30.25
-22.17
-13.72
-5.39
2.50
9.71
15.99
21.05
24.63
26.63
27.19
26.66
25.53
24.19
22.87
21.57
20.24
18.81
17.32
15.83
14.36
12.82
11.01
8.70
5.77
2.29
-1.48
-5.22
-8.69
-11.82
-14.76
-17.79
-21.22
-25.30
-30.18
-35.89
-42.19
-48.52
-53.96
-57.38
-57.77
-54.66
-48.28
-39.59
-29.85
-20.22
-11.38
-3.45
3.79
10.57
16.97
22.75
27.55
31.01
32.88
33.20
32.23
30.40
28.20
26.03
24.06
22.25
20.42
18.36
15.95
13.24
10.35
7.37
4.25
0.86
-2.94
-7.15
-11.66
-16.26
-20.85
-25.46
-30.22
-35.12
-39.86
-43.75
-45.88
-45.43
-42.00
-35.78
-27.46
-18.00
-8.29
1.06
9.79
17.87
25.29
31.95
37.52
41.63
44.03
44.69
43.93
42.25
40.18
38.09
36.10
34.18
32.25
30.28
28.37
26.58
24.90
23.09
20.81
17.70
13.64
8.78
3.54
-1.57
-6.18
-10.22
-13.93
-17.67
-21.76
-26.36
-31.46
-36.93
-42.58
-48.13
-53.12
-56.91
-58.75
-58.01
-54.36
-47.95
-39.32
-29.22
-18.40
-7.41
3.39
13.77
23.49
32.26
39.73
45.57
49.63
51.93
52.71
52.35
51.22
49.64
47.88
46.11
44.51
43.15
42.05
41.03
39.80
38.04
35.56
32.32
28.52
24.42
20.28
16.22
12.24
8.27
4.23
0.10
-4.12
-8.44
-12.88
-17.49
-22.27
-27.18
-32.21
-37.44
-43.03
-49.17
-55.87
-62.78
-69.10
-73.68
-75.42
-73.59
-68.10
-59.49
-48.75
-36.93
-24.88
-13.11
-1.84
8.84
18.82
27.84
35.61
41.83
46.33
49.15
50.43
50.44
49.51
47.98
46.18
44.44
43.04
42.09
41.59
41.23
40.59
39.23
36.90
33.62
29.75
25.73
21.90
18.32
14.75
10.83
6.29
1.10
-4.53
-10.29
-15.84
-20.98
-25.64
-29.92
-34.10
-38.56
-43.64
-49.49
-55.80
-61.77
-66.29
-68.24
-66.94
-62.32
-54.89
-45.54
-35.17
-24.46
-13.83
-3.40
6.73
16.41
25.32
33.07
39.25
43.65
46.32
47.58
47.86
47.58
47.00
46.19
45.14
43.85
42.39
40.89
39.40
37.78
35.77
33.15
29.87
26.22
22.64
19.51
16.86
14.31
11.23
7.11
1.73
-4.65
-11.45
-18.02
-23.86
-28.74
-32.72
-36.07
-39.21
-42.61
-46.72
-51.78
-57.69
-63.88
-69.37
-72.95
-73.59
-70.75
-64.53
-55.64
-45.07
-33.78
-22.40
-11.21
-0.25
10.39
20.48
29.59
37.27
43.22
47.44
50.12
51.61
52.18
52.00
51.15
49.68
47.73
45.52
43.26
41.11
39.08
37.07
34.93
32.53
29.80
26.71
23.25
19.48
15.50
11.48
7.58
3.95
0.57
-2.72
-6.11
-9.78
-13.82
-18.14
-22.60
-27.04
-31.40
-35.73
-40.21
-45.07
-50.46
-56.39
-62.52
-68.21
-72.54
-74.59
-73.62
-69.37
-62.04
-52.22
-40.69
-28.28
-15.67
-3.46
7.91
18.06
26.77
33.92
39.57
43.84
46.88
48.84
49.85
50.03
49.61
48.81
47.90
47.05
46.31
45.64
44.91
43.94
42.58
40.69
38.20
35.07
31.42
27.36
23.11
18.88
14.78
10.85
7.03
3.18
-0.83
-5.08
-9.57
-14.20
-18.79
-23.13
-27.06
-30.55
-33.73
-36.83
-40.23
-44.27
-49.17
-54.88
-60.92
-66.44
-70.34
-71.58
-69.49
-63.99
-55.58
-45.19
-33.85
-22.45
-11.54
-1.36
8.02
16.53
24.05
30.46
35.60
39.49
42.22
43.96
44.88
45.12
44.72
43.75
42.35
40.73
39.15
37.77
36.54
35.22
33.47
31.06
27.96
24.38
20.59
16.78
12.99
9.06
4.87
0.44
-4.05
-8.31
-12.10
-15.35
-18.16
-20.74
-23.26
-25.82
-28.42
-31.08
-33.92
-37.21
-41.29
-46.43
-52.54
-59.16
-65.37
-70.09
-72.25
-71.21
-66.85
-59.56
-50.07
-39.18
-27.63
-15.97
-4.68
5.81
15.11
22.86
28.90
33.28
36.25
38.22
39.50
40.25
40.45
40.00
38.87
37.19
35.26
33.43
31.97
30.93
30.12
29.24
27.97
26.18
23.90
21.32
18.65
16.03
13.47
10.85
8.00
4.72
0.90
-3.49
-8.34
-13.42
-18.47
-23.21
-27.51
-31.40
-35.09
-38.92
-43.17
-48.02
-53.36
-58.78
-63.61
-67.00
-68.12
-66.41
-61.72
-54.36
-45.00
-34.45
-23.46
-12.59
-2.22
7.37
15.99
23.49
29.73
34.69
38.41
41.03
42.71
43.63
43.91
43.63
42.82
41.50
39.78
37.85
35.97
34.37
33.13
32.12
31.02
29.48
27.25
24.29
20.76
16.94
13.15
9.53
6.09
2.66
-0.97
-4.90
-9.07
-13.27
-17.24
-20.86
-24.23
-27.63
-31.47
-36.09
-41.65
-48.05
-54.91
-61.55
-67.03
-70.32
-70.52
-67.12
-60.18
-50.33
-38.59
-26.06
-13.63
-1.91
8.75
18.24
26.44
33.34
38.94
43.33
46.63
48.98
50.53
51.37
51.62
51.40
50.87
50.25
49.72
49.39
49.23
49.13
48.84
48.12
46.76
44.67
41.90
38.68
35.29
32.02
29.08
26.54
24.33
22.36
20.54
18.82
17.20
15.60
13.78
11.32
7.66
2.30
-4.93
-13.82
-23.77
-33.99
-43.71
-52.29
-59.16
-63.73
-65.33
-63.25
-57.07
-46.84
-33.23
-17.38
-0.68
15.56
30.30
42.77
52.42
58.85
61.89
61.76
59.09
54.86
50.22
46.15
43.32
41.91
41.51
41.06
38.99
33.48
23.00
6.93
-14.06
-38.14
-63.02
-87.02
-109.91
-133.11
-158.94
-189.32
-224.56
-262.84
-300.83
-334.73
-361.68
-380.35
-390.95
-395.18
-396.16
-398.32
-406.69
-425.02
-453.55
-487.45
-517.41
-532.66
-525.19
-492.99
-440.60
-376.74
-310.40
-247.73
-191.10
-140.44
-95.26
-56.02
-23.81
0.91
19.43
34.77
50.54
69.44
92.13
117.19
141.96
164.02
182.23
197.23
210.99
225.97
244.27
266.91
293.58
322.55
350.86
374.80
390.73
396.10
390.26
374.69
352.38
326.67
300.09
273.84
248.03
222.35
196.70
171.40
146.94
123.56
101.30
80.30
61.18
45.22
33.95
28.54
29.21
34.98
43.93
53.71
62.06
67.31
68.59
65.97
60.46
53.75
47.76
44.12
43.67
46.27
51.02
56.69
62.15
66.72
70.11
72.32
73.45
73.62
72.97
71.61
69.65
67.05
63.69
59.40
54.15
48.11
41.62
35.04
28.51
21.80
14.41
5.71
-4.76
-17.17
-31.21
-46.08
-60.53
-72.93
-81.49
-84.67
-81.56
-72.33
-58.23
-41.30
-23.79
-7.59
6.21
17.31
25.94
32.54
37.43
40.77
42.69
43.33
42.90
41.65
39.74
37.20
33.97
30.02
25.39
20.24
14.75
9.10
3.40
-2.30
-7.96
-13.51
-18.93
-24.22
-29.43
-34.46
-39.06
-42.81
-45.41
-46.94
-47.94
-49.26
-51.53
-54.60
-57.40
-58.10
-54.92
-46.76
-33.68
-16.80
2.26
21.92
40.97
58.65
74.45
87.88
98.50
105.97
110.22
111.54
110.45
107.66
103.85
99.63
95.48
91.72
88.48
85.74
83.31
81.04
78.91
77.12
76.02
75.95
77.07
79.27
82.24
85.55
88.84
91.89
94.54
96.67
98.29
99.65
101.50
105.11
112.05
123.75
141.00
163.62
190.51
219.97
250.13
279.23
305.70
328.13
345.23
356.01
360.08
357.94
350.93
340.81
329.13
316.76
303.59
288.83
271.53
251.04
227.28
200.60
171.49
140.34
107.31
72.56
36.50
-0.02
-35.66
-68.86
-98.29
-123.17
-143.59
-160.36
-174.70
-187.81
-200.46
-212.79
-224.62
-235.61
-245.70
-255.16
-264.65
-274.97
-287.16
-302.38
-321.66
-345.27
-371.94
-398.39
-419.86
-431.42
-429.80
-414.68
-388.81
-356.75
-323.06
-290.81
-261.08
-233.64
-207.96
-183.98
-162.06
-142.53
-125.24
-109.61
-95.24
-82.38
-72.05
-65.47
-63.24
-64.69
-67.83
-69.96
-68.63
-62.44
-51.23
-35.96
-18.17
0.45
18.39
34.39
47.49
57.13
63.16
65.90
66.08
64.56
62.23
59.76
57.44
55.06
51.93
47.12
39.82
29.85
17.81
4.96
-7.23
-17.56
-25.42
-30.82
-34.13
-35.88
-36.60
-36.84
-37.17
-38.09
-39.78
-41.97
-43.89
-44.52
-42.94
-38.69
-31.78
-22.67
-12.02
-0.56
10.95
21.69
30.86
37.72
41.72
42.66
40.68
36.29
30.16
22.94
15.12
6.99
-1.31
-9.62
-17.68
-25.07
-31.37
-36.33
-40.04
-42.99
-45.82
-49.12
-53.19
-58.01
-63.37
-69.07
-74.88
-80.38
-84.72
-86.55
-84.34
-76.90
-63.99
-46.43
-25.87
-4.21
17.03
36.85
54.60
69.57
80.81
87.26
88.31
84.36
76.84
67.95
59.77
53.60
49.47
46.33
42.69
37.31
29.78
20.60
10.82
1.50
-6.85
-14.43
-22.05
-30.76
-41.39
-54.13
-68.36
-82.52
-94.38
-101.49
-101.89
-94.72
-80.57
-61.27
-39.26
-16.87
4.29
23.33
39.90
53.70
64.31
71.34
74.64
74.61
72.06
68.00
63.21
58.04
52.49
46.42
39.91
33.33
27.25
22.14
18.03
14.40
10.23
4.33
-4.28
-16.06
-30.77
-47.46
-64.47
-79.58
-90.36
-94.61
-91.04
-79.64
-61.78
-39.72
-15.92
7.65
29.91
50.45
69.14
85.66
99.30
109.14
114.44
115.00
111.35
104.59
96.12
87.18
78.66
70.93
63.93
57.34
50.75
43.87
36.53
28.65
20.25
11.33
1.85
-8.29
-19.29
-31.47
-45.16
-60.56
-77.32
-94.20
-108.94
-118.60
-120.41
-112.67
-95.54
-71.10
-42.64
-13.64
13.33
37.10
57.66
75.51
90.92
103.60
112.82
117.97
118.92
116.24
111.01
104.39
97.31
90.31
83.54
77.07
70.96
65.33
60.27
55.68
51.26
46.54
41.00
34.29
26.23
16.90
6.53
-4.52
-15.89
-27.27
-38.45
-49.33
-59.88
-70.15
-80.20
-90.18
-100.37
-111.09
-122.48
-134.11
-144.73
-152.24
-154.13
-148.23
-133.58
-110.84
-82.15
-50.41
-18.42
11.79
39.12
63.09
83.41
99.71
111.57
118.85
121.91
121.66
119.31
115.91
112.07
107.86
102.95
96.98
89.80
81.66
73.06
64.52
56.33
48.44
40.45
31.84
22.16
11.26
-0.59
-12.80
-24.64
-35.47
-45.01
-53.39
-61.09
-68.83
-77.26
-86.81
-97.46
-108.58
-118.93
-126.74
-130.09
-127.37
-117.72
-101.40
-79.69
-54.53
-28.03
-1.93
22.55
44.71
64.06
80.17
92.52
100.71
104.66
104.78
101.93
97.19
91.55
85.63
79.63
73.47
67.00
60.20
53.24
46.38
39.79
33.49
27.35
21.11
14.57
7.58
0.09
-7.86
-16.19
-24.80
-33.57
-42.36
-50.97
-59.19
-66.79
-73.69
-79.97
-85.97
-92.11
-98.80
-106.10
-113.54
-120.07
-124.20
-124.32
-119.18
-108.29
-92.07
-71.74
-49.01
-25.54
-2.63
18.96
38.81
56.60
71.85
83.92
92.24
96.63
97.43
95.46
91.70
86.98
81.76
76.19
70.28
64.07
57.67
51.26
44.93
38.65
32.28
25.71
18.93
12.05
5.28
-1.19
-7.26
-12.96
-18.44
-23.91
-29.54
-35.41
-41.48
-47.64
-53.84
-60.12
-66.67
-73.72
-81.40
-89.54
-97.62
-104.69
-109.54
-110.84
-107.50
-98.87
-85.04
-66.78
-45.44
-22.66
-0.01
21.24
40.17
56.19
68.86
77.90
83.23
85.03
83.80
80.33
75.51
70.15
64.82
59.79
55.10
50.66
46.32
41.98
37.55
32.94
28.09
22.97
17.63
12.23
7.02
2.22
-2.07
-5.94
-9.71
-13.74
-18.32
-23.53
-29.20
-35.05
-40.86
-46.54
-52.14
-57.77
-63.40
-68.88
-73.88
-77.98
-80.65
-81.32
-79.33
-74.06
-65.14
-52.60
-37.07
-19.65
-1.69
15.52
31.00
44.15
54.66
62.37
67.25
69.38
69.08
66.89
63.50
59.59
55.67
52.03
48.74
45.73
42.87
40.03
37.07
33.88
30.40
26.65
22.68
18.56
14.27
9.77
4.93
-0.32
-5.93
-11.73
-17.50
-23.00
-28.05
-32.60
-36.63
-40.20
-43.41
-46.46
-49.66
-53.35
-57.79
-62.90
-68.14
-72.52
-74.81
-73.97
-69.46
-61.50
-50.92
-38.86
-26.39
-14.34
-3.15
6.98
15.97
23.73
30.19
35.34
39.25
42.12
44.16
45.58
46.47
46.79
46.42
45.24
43.21
40.45
37.24
33.89
30.71
27.81
25.15
22.56
19.87
16.98
13.91
10.71
7.43
4.08
0.55
-3.28
-7.50
-12.14
-17.12
-22.26
-27.35
-32.28
-37.07
-41.93
-47.03
-52.32
-57.42
-61.58
-63.92
-63.74
-60.74
-55.10
-47.30
-37.91
-27.46
-16.38
-5.06
6.00
16.23
25.04
31.97
36.80
39.64
40.83
40.87
40.27
39.39
38.43
37.37
36.11
34.56
32.75
30.73
28.56
26.17
23.40
20.12
16.32
12.21
8.11
4.30
0.85
-2.45
-6.03
-10.28
-15.43
-21.44
-28.06
-34.96
-41.84
-48.55
-55.09
-61.56
-68.02
-74.45
-80.51
-85.64
-89.05
-89.92
-87.70
-82.20
-73.68
-62.80
-50.38
-37.34
-24.44
-12.31
-1.32
8.36
16.80
24.13
30.46
35.79
39.98
42.89
44.44
44.76
44.12
42.80
41.08
39.12
37.05
34.96
32.95
31.06
29.20
27.11
24.51
21.15
16.95
12.07
6.76
1.32
-3.98
-8.94
-13.42
-17.33
-20.67
-23.56
-26.24
-28.95
-31.94
-35.39
-39.46
-44.24
-49.66
-55.42
-60.82
-64.87
-66.47
-64.78
-59.45
-50.76
-39.53
-26.83
-13.65
-0.77
11.34
22.41
32.27
40.72
47.56
52.66
56.07
58.01
58.87
58.98
58.57
57.70
56.29
54.25
51.53
48.19
44.31
39.98
35.32
30.43
25.52
20.83
16.62
12.99
9.87
6.97
3.87
0.28
-3.90
-8.49
-13.15
-17.57
-21.65
-25.56
-29.61
-34.13
-39.30
-45.09
-51.26
-57.38
-62.84
-66.92
-68.83
-67.87
-63.64
-56.15
-45.90
-33.77
-20.80
-7.99
3.94
14.67
24.16
32.50
39.67
45.42
49.35
51.12
50.70
48.55
45.53
42.61
40.55
39.59
39.48
39.66
39.54
38.70
37.00
34.50
31.34
27.65
23.57
19.24
14.80
10.33
5.89
1.41
-3.20
-8.01
-13.01
-18.12
-23.26
-28.32
-33.27
-38.13
-42.96
-47.84
-52.68
-57.21
-60.86
-62.79
-62.11
-58.20
-51.02
-41.18
-29.80
-18.10
-6.99
3.10
12.12
20.21
27.35
33.29
37.66
40.22
41.05
40.59
39.49
38.39
37.59
37.10
36.64
35.90
34.69
33.06
31.19
29.27
27.28
25.01
22.12
18.32
13.53
7.95
1.97
-4.01
-9.66
-14.82
-19.56
-24.05
-28.51
-33.13
-38.03
-43.21
-48.52
-53.66
-58.14
-61.33
-62.58
-61.30
-57.13
-50.07
-40.52
-29.21
-17.10
-5.10
6.06
15.91
24.26
31.02
36.20
39.79
41.89
42.76
42.85
42.67
42.65
42.90
43.19
43.10
42.21
40.32
37.49
33.90
29.75
25.12
19.97
14.27
8.15
1.90
-4.11
-9.56
-14.41
-18.89
-23.49
-28.79
-35.20
-42.77
-51.00
-58.87
-65.05
-68.26
-67.66
-63.14
-55.34
-45.33
-34.29
-23.15
-12.42
-2.28
7.23
16.01
23.78
30.21
35.06
38.23
39.87
40.21
39.53
38.03
35.86
33.11
29.90
26.33
22.50
18.49
14.38
10.25
6.18
2.21
-1.70
-5.68
-9.92
-14.62
-19.89
-25.74
-32.07
-38.66
-45.20
-51.16
-55.84
-58.34
-57.86
-53.86
-46.38
-36.02
-23.81
-10.90
1.76
13.61
24.45
34.24
42.90
50.26
56.01
59.86
61.68
61.56
59.75
56.62
52.56
47.96
43.18
38.56
34.31
30.55
27.17
23.89
20.32
16.06
10.89
4.82
-1.90
-8.84
-15.61
-21.99
-28.00
-33.94
-40.21
-47.15
-54.80
-62.77
-70.22
-75.93
-78.67
-77.46
-71.95
-62.50
-50.07
-35.91
-21.16
-6.62
7.28
20.39
32.56
43.55
52.98
60.49
65.81
68.86
69.77
68.73
66.02
61.94
56.95
51.58
46.44
41.98
38.37
35.41
32.60
29.35
25.27
20.20
14.31
7.89
1.24
-5.41
-11.96
-18.34
-24.62
-30.93
-37.54
-44.69
-52.40
-60.30
-67.52
-72.82
-74.88
-72.75
-66.14
-55.56
-42.13
-27.21
-12.12
2.21
15.28
26.95
37.24
46.22
53.86
60.01
64.56
67.42
68.66
68.48
67.16
64.96
62.11
58.78
55.11
51.23
47.24
43.26
39.35
35.50
31.69
27.85
23.88
19.65
15.07
10.03
4.50
-1.48
-7.81
-14.31
-20.82
-27.11
-33.01
-38.36
-43.15
-47.50
-51.79
-56.52
-62.18
-68.98
-76.63
-84.23
-90.48
-93.98
-93.63
-88.97
-80.20
-68.07
-53.56
-37.68
-21.31
-5.09
10.43
24.82
37.65
48.52
57.08
63.14
66.68
67.95
67.36
65.43
62.70
59.61
56.51
53.60
50.98
48.63
46.42
44.21
41.79
39.00
35.71
31.85
27.41
22.47
17.20
11.79
6.42
1.18
-3.97
-9.16
-14.52
-20.13
-25.94
-31.86
-37.81
-43.77
-49.82
-56.07
-62.55
-69.07
-75.12
-79.89
-82.42
-81.82
-77.63
-69.92
-59.26
-46.59
-32.83
-18.74
-4.83
8.57
21.18
32.70
42.78
51.09
57.40
61.61
63.78
64.12
62.95
60.63
57.55
54.05
50.46
47.04
43.99
41.37
39.11
36.98
34.65
31.87
28.47
24.49
20.02
15.16
9.97
4.44
-1.38
-7.38
-13.34
-19.00
-24.12
-28.64
-32.63
-36.33
-40.06
-44.17
-48.95
-54.52
-60.67
-66.80
-72.00
-75.17
-75.40
-72.19
-65.55
-56.01
-44.36
-31.52
-18.30
-5.38
6.74
17.72
27.33
35.50
42.28
47.79
52.09
55.18
56.96
57.35
56.37
54.21
51.24
47.87
44.47
41.26
38.25
35.29
32.19
28.79
25.05
21.06
16.94
12.81
8.67
4.45
0.07
-4.52
-9.27
-14.06
-18.78
-23.40
-28.00
-32.72
-37.72
-43.10
-48.90
-55.03
-61.30
-67.33
-72.48
-75.89
-76.65
-74.01
-67.66
-57.91
-45.59
-31.80
-17.60
-3.79
9.15
20.95
31.40
40.18
46.92
51.36
53.46
53.52
52.11
49.89
47.43
45.04
42.74
40.37
37.74
34.83
31.77
28.78
26.06
23.55
20.98
17.98
14.25
9.75
4.67
-0.65
-5.89
-10.94
-15.85
-20.80
-25.97
-31.45
-37.26
-43.38
-49.72
-56.06
-61.91
-66.45
-68.72
-67.79
-63.17
-54.99
-43.99
-31.31
-18.14
-5.45
6.17
16.46
25.36
32.86
38.94
43.59
46.82
48.74
49.51
49.39
48.58
47.25
45.51
43.41
40.94
38.07
34.76
31.01
26.92
22.68
18.55
14.73
11.25
7.92
4.37
0.27
-4.52
-9.86
-15.41
-20.83
-25.94
-30.80
-35.64
-40.72
-46.22
-52.21
-58.56
-64.94
-70.77
-75.22
-77.39
-76.51
-72.16
-64.47
-54.00
-41.60
-28.14
-14.33
-0.66
12.43
24.56
35.27
44.10
50.75
55.11
57.34
57.82
56.99
55.29
53.06
50.49
47.71
44.79
41.81
38.85
35.97
33.15
30.29
27.21
23.72
19.67
15.00
9.74
4.03
-1.96
-8.05
-14.06
-19.82
-25.16
-30.05
-34.54
-38.88
-43.42
-48.51
-54.36
-60.87
-67.48
-73.27
-77.12
-77.97
-75.16
-68.58
-58.69
-46.34
-32.59
-18.40
-4.53
8.52
20.48
31.20
40.57
48.50
54.83
59.43
62.18
63.08
62.29
60.18
57.18
53.78
50.28
46.88
43.56
40.25
36.84
33.33
29.75
26.16
22.57
18.90
14.97
10.60
5.66
0.18
-5.63
-11.47
-17.01
-22.07
-26.68
-31.05
-35.52
-40.39
-45.85
-51.91
-58.36
-64.80
-70.56
-74.84
-76.77
-75.64
-71.07
-63.12
-52.31
-39.45
-25.47
-11.23
2.61
15.61
27.45
37.92
46.82
53.95
59.13
62.32
63.60
63.27
61.80
59.66
57.25
54.75
52.13
49.29
46.15
42.72
39.14
35.52
31.92
28.23
24.22
19.64
14.32
8.29
1.75
-4.93
-11.37
-17.29
-22.62
-27.54
-32.42
-37.67
-43.63
-50.39
-57.70
-64.93
-71.12
-75.20
-76.22
-73.62
-67.38
-58.05
-46.54
-33.89
-20.97
-8.38
3.55
14.61
24.59
33.20
40.08
44.98
47.87
49.00
48.88
48.04
46.95
45.79
44.45
42.67
40.23
37.06
33.34
29.39
25.46
21.70
18.05
14.31
10.29
5.84
0.93
-4.38
-9.95
-15.59
-21.17
-26.67
-32.23
-38.11
-44.57
-51.70
-59.28
-66.72
-73.12
-77.52
-79.02
-77.06
-71.51
-62.71
-51.37
-38.39
-24.67
-10.86
2.63
15.58
27.75
38.75
48.03
55.07
59.58
61.68
61.84
60.71
58.91
56.80
54.53
52.03
49.25
46.18
42.95
39.72
36.56
33.43
30.12
26.40
22.07
17.09
11.58
5.79
-0.01
-5.62
-10.93
-15.99
-20.93
-25.95
-31.30
-37.21
-43.80
-51.05
-58.68
-66.06
-72.27
-76.20
-76.83
-73.52
-66.26
-55.64
-42.71
-28.66
-14.54
-1.04
11.44
22.71
32.66
41.19
48.18
53.56
57.31
59.48
60.22
59.76
58.37
56.34
53.88
51.12
48.06
44.72
41.13
37.45
33.87
30.57
27.53
24.54
21.21
17.16
12.15
6.23
-0.28
-6.93
-13.31
-19.20
-24.62
-29.73
-34.81
-40.17
-46.04
-52.56
-59.59
-66.63
-72.72
-76.57
-76.90
-72.80
-64.14
-51.68
-36.81
-21.17
-6.11
7.59
19.64
30.03
38.76
45.63
50.34
52.65
52.58
50.48
46.93
42.61
38.18
34.17
30.97
28.85
27.87
27.92
28.72
29.86
30.86
31.26
30.69
28.82
25.50
20.71
14.65
7.68
0.32
-6.91
-13.47
-19.05
-23.53
-27.06
-30.05
-33.10
-36.83
-41.67
-47.63
-54.23
-60.52
-65.35
-67.62
-66.67
-62.34
-55.02
-45.45
-34.45
-22.72
-10.67
1.46
13.51
25.24
36.18
45.82
53.66
59.46
63.27
65.36
66.02
65.43
63.58
60.31
55.48
49.06
41.31
32.79
24.27
16.55
10.28
5.72
2.75
0.95
-0.20
-1.14
-2.20
-3.65
-5.81
-8.98
-13.35
-18.87
-25.21
-31.92
-38.53
-44.80
-50.59
-55.73
-59.84
-62.22
-62.06
-58.70
-51.95
-42.23
-30.43
-17.69
-5.00
6.90
17.47
26.27
32.73
36.30
36.61
33.85
28.87
23.00
17.62
13.65
11.37
10.43
10.21
10.13
9.83
9.17
8.07
6.38
3.83
0.11
-4.98
-11.35
-18.63
-26.13
-33.12
-38.98
-43.43
-46.64
-49.05
-51.21
-53.52
-56.05
-58.51
-60.33
-60.88
-59.57
-56.08
-50.34
-42.52
-32.93
-21.93
-9.93
2.64
15.15
26.89
37.17
45.57
52.02
56.85
60.49
63.21
65.00
65.56
64.57
61.86
57.62
52.23
46.18
39.84
33.47
27.21
21.13
15.31
9.76
4.41
-0.84
-6.10
-11.39
-16.63
-21.69
-26.41
-30.82
-35.15
-39.92
-45.71
-52.92
-61.45
-70.49
-78.50
-83.57
-84.00
-78.84
-68.22
-53.28
-35.76
-17.50
-0.01
15.80
29.57
41.34
51.42
60.08
67.47
73.42
77.55
79.37
78.58
75.25
69.92
63.41
56.63
50.32
45.08
41.29
39.07
38.18
38.03
37.82
36.85
34.79
31.78
28.26
24.49
20.25
14.82
7.29
-2.86
-15.35
-29.03
-42.21
-53.32
-61.35
-66.07
-67.86
-67.33
-64.94
-60.78
-54.68
-46.43
-36.11
-24.14
-11.26
1.76
14.27
25.80
35.97
44.32
50.31
53.46
53.53
50.75
45.86
39.90
33.91
28.63
24.23
20.44
16.72
12.58
7.87
2.83
-2.00
-6.11
-9.23
-11.43
-13.14
-14.93
-17.33
-20.69
-25.17
-30.75
-37.21
-44.13
-50.71
-55.92
-58.60
-57.90
-53.58
-46.17
-36.83
-26.91
-17.50
-9.08
-1.62
5.19
11.51
17.10
21.45
23.92
24.20
22.40
19.04
14.89
10.63
6.70
3.24
0.12
-2.92
-6.08
-9.39
-12.69
-15.71
-18.18
-20.01
-21.45
-23.09
-25.81
-30.41
-37.37
-46.59
-57.35
-68.41
-78.25
-85.28
-88.08
-85.60
-77.49
-64.25
-47.28
-28.58
-10.23
6.22
20.04
31.31
40.52
48.12
54.17
58.39
60.40
60.06
57.56
53.44
48.41
43.11
38.01
33.21
28.59
23.85
18.76
13.31
7.74
2.36
-2.74
-7.79
-13.40
-20.24
-28.74
-38.84
-49.97
-61.30
-71.89
-80.80
-86.97
-89.09
-85.65
-75.32
-57.37
-32.26
-1.64
31.97
65.84
97.74
126.22
150.45
169.93
184.17
192.71
195.40
192.63
185.42
175.06
162.62
148.66
133.16
115.85
96.77
76.64
56.94
39.61
26.57
19.12
17.39
20.16
25.17
29.75
31.61
29.45
23.16
13.64
2.55
-8.12
-16.45
-20.88
-20.36
-14.58
-3.94
10.49
27.10
43.97
59.20
70.85
77.54
78.81
75.45
69.41
63.07
58.07
54.72
51.88
46.85
36.84
20.06
-3.40
-31.50
-60.96
-89.03
-113.93
-135.28
-155.02
-175.72
-199.33
-225.73
-252.42
-275.27
-291.62
-300.59
-303.34
-304.37
-308.56
-319.54
-337.90
-360.86
-383.28
-401.30
-411.78
-412.31
-403.71
-388.26
-370.04
-354.05
-345.12
-346.07
-358.75
-380.05
-388.54
-363.75
-293.89
-185.72
-61.89
47.22
133.54
198.07
246.39
285.82
316.02
336.07
345.31
345.23
339.93
335.06
332.70
332.30
331.54
325.75
311.53
287.80
256.93
224.10
195.63
174.56
161.29
154.33
150.22
146.29
141.34
136.52
134.75
139.53
151.93
170.97
194.30
218.51
240.72
258.75
271.55
278.98
281.51
279.28
272.53
261.90
248.26
232.77
216.20
199.06
181.71
164.61
148.26
133.29
120.33
109.58
100.46
90.85
78.35
61.67
41.71
21.45
4.30
-7.84
-15.88
-23.40
-36.11
-58.75
-93.37
-138.62
-190.76
-245.06
-296.56
-340.02
-370.04
-383.57
-380.49
-364.52
-342.34
-321.65
-308.68
-306.11
-312.55
-315.12
-302.32
-268.31
-216.77
-157.91
-101.58
-52.98
-12.76
20.52
48.38
70.02
84.11
90.06
89.27
84.92
80.61
78.94
80.89
85.85
91.15
94.12
93.22
88.84
83.02
78.23
76.21
77.34
80.78
84.17
85.43
83.41
78.42
71.97
65.71
60.60
56.44
51.95
45.11
34.60
20.19
3.00
-14.97
-31.87
-46.61
-59.16
-68.88
-77.36
-85.56
-93.84
-102.31
-110.90
-118.95
-124.81
-125.73
-118.71
-102.36
-77.86
-49.46
-23.14
-4.12
5.23
6.01
1.56
-4.66
-10.95
-17.20
-23.91
-30.69
-35.63
-36.03
-30.04
-17.93
-2.27
13.08
24.81
31.39
33.42
32.76
31.21
29.49
27.08
23.00
16.75
9.11
1.84
-3.21
-5.02
-3.91
-1.09
2.22
5.59
9.49
14.76
21.74
29.99
38.50
46.40
53.11
57.98
59.57
55.78
44.83
26.95
5.36
-14.62
-27.90
-32.33
-29.84
-25.45
-24.38
-29.32
-39.14
-49.93
-57.66
-60.48
-59.34
-56.82
-55.24
-55.18
-55.35
-53.58
-47.89
-38.12
-26.08
-14.74
-6.94
-4.13
-5.90
-10.29
-14.72
-16.47
-14.09
-7.60
1.59
11.29
19.24
23.68
23.85
17.18
3.93
-13.61
-31.62
-45.77
-52.74
-51.51
-43.85
-33.64
-25.45
-22.28
-25.14
-33.04
-43.81
-55.24
-65.90
-75.14
-82.72
-88.30
-90.82
-89.20
-82.62
-70.69
-53.44
-31.26
-5.04
23.77
52.91
79.69
101.19
115.00
119.81
115.54
103.02
83.33
57.34
25.73
-10.44
-49.25
-87.59
-121.47
-146.86
-160.78
-162.06
-151.65
-132.19
-107.06
-79.41
-51.09
-22.18
8.87
44.25
85.06
129.63
172.82
206.95
224.18
219.62
193.55
151.80
104.12
60.97
30.42
16.25
17.75
31.10
51.15
72.95
92.52
107.05
114.89
115.53
109.67
99.17
86.85
75.99
69.49
68.98
74.20
83.21
93.15
101.52
107.03
109.72
110.36
109.45
106.78
101.52
92.88
80.68
65.24
46.75
24.53
-3.27
-38.98
-84.10
-137.85
-196.47
-253.63
-301.97
-335.18
-349.85
-346.32
-328.33
-301.56
-271.72
-242.95
-217.14
-194.36
-173.61
-153.67
-133.29
-111.24
-86.17
-57.08
-23.96
11.77
47.32
79.32
104.98
122.95
133.61
138.57
140.01
139.94
139.83
140.57
142.51
145.53
149.27
153.30
157.58
162.71
170.09
181.41
197.67
218.30
240.47
259.47
269.90
267.25
249.19
215.92
169.89
115.14
56.88
1.12
-45.91
-78.72
-94.17
-92.71
-78.72
-59.31
-41.94
-32.01
-31.35
-38.28
-48.93
-58.93
-64.80
-64.65
-58.31
-47.06
-33.14
-19.30
-8.25
-1.49
1.18
1.59
2.47
6.38
14.62
26.43
38.95
47.56
47.69
36.11
