1660927787.00
64.000000
-0.00
-0.00
-0.00
-0.00
-0.00
-0.00
-0.00
-0.00
-0.00
-0.00
0.00
0.01
0.01
-0.00
-0.03
-0.05
-0.05
0.00
0.13
0.36
0.66
1.01
1.37
1.72
2.06
2.40
2.79
3.25
3.81
4.44
5.09
5.73
6.33
6.91
7.54
8.27
9.14
10.21
11.39
12.56
13.63
14.56
15.45
16.47
17.83
19.65
22.12
25.01
28.06
31.00
33.72
36.33
39.19
42.70
47.13
52.79
59.27
66.07
72.69
78.89
84.88
91.21
98.52
107.20
117.60
129.06
140.79
152.08
162.67
172.87
183.48
195.71
207.96
222.09
238.37
256.87
276.68
295.41
309.27
313.88
305.72
283.39
248.59
204.62
155.72
105.48
56.14
8.67
-36.67
-79.73
-120.30
-158.16
-194.06
-229.34
-265.47
-303.01
-340.73
-375.36
-402.29
-417.27
-417.88
-404.74
-381.30
-352.48
-322.83
-295.13
-270.09
-247.06
-225.13
-203.90
-183.74
-165.29
-148.86
-134.12
-120.35
-106.81
-93.15
-79.56
-66.59
-54.89
-44.84
-36.45
-29.34
-22.96
-16.82
-10.67
-4.60
1.11
6.11
10.17
13.32
15.76
17.82
19.74
21.63
23.41
24.88
25.89
26.35
26.33
26.01
25.62
25.34
25.20
25.14
25.00
24.64
23.99
23.14
22.21
21.33
20.57
19.88
19.17
18.38
17.53
16.73
16.10
15.68
15.44
15.26
15.02
14.63
14.11
13.55
13.06
12.72
12.54
12.47
12.40
12.24
11.93
11.51
11.06
10.67
10.41
10.28
10.20
10.08
9.86
9.56
9.27
9.07
8.98
8.94
8.84
8.60
8.20
7.70
7.21
6.82
6.54
6.33
6.09
5.75
5.34
4.90
4.54
4.32
4.23
4.19
4.10
3.87
3.47
2.95
2.40
1.88
1.40
0.92
0.39
-0.19
-0.76
-1.27
-1.67
-2.02
-2.39
-2.88
-3.56
-4.35
-5.13
-5.73
-6.08
-6.21
-6.24
-6.32
-6.56
-6.93
-7.31
-7.57
-7.62
-7.48
-7.24
-7.02
-6.88
-6.80
-6.71
-6.55
-6.31
-6.01
-5.69
-5.34
-4.96
-4.49
-3.93
-3.28
-2.62
-1.99
-1.42
-0.94
-0.53
-0.20
0.06
0.26
0.41
0.57
0.76
1.01
1.28
1.56
1.81
2.06
2.32
2.58
2.82
3.01
3.16
3.32
3.54
3.83
4.12
4.28
4.22
3.89
3.39
2.88
2.52
2.37
2.40
2.51
2.62
2.64
2.58
2.46
2.30
2.13
1.98
1.85
1.77
1.74
1.74
1.76
1.83
1.98
2.22
2.51
2.73
2.73
2.40
1.74
0.89
0.05
-0.60
-1.03
-1.32
-1.59
-1.88
-2.12
-2.18
-1.97
-1.48
-0.83
-0.17
0.37
0.75
1.04
1.32
1.64
2.07
2.63
3.33
4.17
5.10
6.00
6.74
7.20
7.35
7.23
6.94
6.62
6.38
6.27
6.26
6.32
6.38
6.38
6.30
6.11
5.75
5.19
4.40
3.41
2.25
1.05
-0.12
-1.14
-1.95
-2.51
-2.84
-2.97
-2.96
-2.90
-2.85
-2.83
-2.80
-2.70
-2.49
-2.19
-1.83
-1.51
-1.27
-1.12
-1.01
-0.87
-0.66
-0.34
0.04
0.42
0.72
0.85
0.74
0.40
-0.15
-0.83
-1.54
-2.18
-2.64
-2.84
-2.77
-2.46
-2.02
-1.53
-1.00
-0.29
0.80
2.47
4.67
7.10
9.28
10.81
11.53
11.54
11.16
10.67
10.20
9.72
9.20
8.67
8.29
8.19
8.40
8.77
9.05
9.01
8.56
7.71
6.59
5.37
4.17
3.11
2.30
1.79
1.54
1.49
1.46
1.29
0.85
0.06
-1.03
-2.29
-3.55
-4.61
-5.35
-5.76
-5.87
-5.78
-5.52
-5.09
-4.45
-3.61
-2.63
-1.66
-0.82
-0.22
0.12
0.24
0.20
0.06
-0.11
-0.22
-0.22
-0.00
0.45
1.11
1.87
2.55
3.00
3.09
2.83
2.28
1.64
1.04
0.59
0.28
0.01
-0.33
-0.83
-1.47
-2.18
-2.83
-3.33
-3.64
-3.78
-3.77
-3.64
-3.38
-2.99
-2.48
-1.85
-1.16
-0.50
0.03
0.33
0.40
0.28
0.11
0.04
0.17
0.48
0.87
1.18
1.31
1.21
0.94
0.59
0.26
-0.01
-0.21
-0.36
-0.46
-0.50
-0.46
-0.34
-0.13
0.14
0.40
0.60
0.68
0.66
0.60
0.59
0.69
0.93
1.21
1.43
1.48
1.35
1.11
0.92
0.88
1.04
1.35
1.67
1.82
1.70
1.32
0.78
0.21
-0.26
-0.56
-0.67
-0.66
-0.57
-0.47
-0.42
-0.46
-0.61
-0.81
-0.99
-1.05
-0.94
-0.69
-0.39
-0.15
-0.04
-0.03
-0.04
0.02
0.14
0.25
0.24
0.08
-0.18
-0.40
-0.45
-0.29
0.05
0.44
0.77
1.01
1.15
1.24
1.33
1.41
1.49
1.57
1.66
1.77
1.86
1.89
1.81
1.61
1.36
1.17
1.11
1.18
1.29
1.28
1.03
0.53
-0.14
-0.79
-1.23
-1.34
-1.10
-0.59
0.00
0.43
0.43
-0.22
-1.59
-3.54
-5.70
-7.56
-8.61
-8.60
-7.56
-5.79
-3.72
-1.70
0.08
1.57
2.76
3.63
4.07
4.02
3.54
2.79
2.08
1.68
1.78
2.40
3.37
4.40
5.17
5.44
5.17
4.48
3.66
3.02
2.76
2.87
3.19
3.47
3.51
3.31
2.94
2.61
2.41
2.35
2.33
2.18
1.81
1.23
0.58
0.01
-0.37
-0.55
-0.64
-0.72
-0.82
-0.85
-0.70
-0.32
0.16
0.52
0.51
-0.00
-0.97
-2.16
-3.31
-4.19
-4.71
-4.87
-4.76
-4.43
-3.91
-3.25
-2.53
-1.84
-1.30
-0.96
-0.79
-0.73
-0.67
-0.56
-0.40
-0.25
-0.17
-0.19
-0.29
-0.39
-0.40
-0.27
0.03
0.42
0.82
1.13
1.28
1.28
1.17
1.07
1.05
1.15
1.31
1.44
1.46
1.33
1.11
0.88
0.71
0.63
0.62
0.64
0.68
0.76
0.91
1.13
1.37
1.56
1.64
1.58
1.44
1.28
1.20
1.21
1.30
1.46
1.61
1.71
1.70
1.52
1.17
0.65
0.05
-0.50
-0.91
-1.14
-1.23
-1.26
-1.34
-1.50
-1.70
-1.87
-1.94
-1.87
-1.70
-1.50
-1.35
-1.33
-1.47
-1.80
-2.30
-2.88
-3.45
-3.88
-4.08
-4.04
-3.84
-3.59
-3.43
-3.43
-3.61
-3.91
-4.23
-4.46
-4.52
-4.40
-4.14
-3.84
-3.59
-3.43
-3.36
-3.33
-3.35
-3.44
-3.70
-4.21
-4.99
-6.00
-7.13
-8.21
-9.15
-9.87
-10.40
-10.80
-11.16
-11.53
-11.88
-12.13
-12.12
-11.74
-10.87
-9.47
-7.59
-5.30
-2.76
-0.17
2.18
4.03
5.15
5.48
5.11
4.22
3.05
1.83
0.77
0.09
0.01
0.68
2.09
4.01
5.98
7.51
8.30
8.32
7.87
7.34
7.03
7.00
7.11
7.12
6.90
6.47
5.98
5.61
5.43
5.37
5.28
5.00
4.46
3.74
3.01
2.47
2.28
2.48
3.00
3.68
4.31
4.74
4.89
4.83
4.66
4.50
4.43
4.44
4.47
4.46
4.37
4.18
3.88
3.45
2.89
2.22
1.51
0.87
0.43
0.25
0.29
0.49
0.75
0.99
1.18
1.32
1.43
1.49
1.48
1.37
1.12
0.74
0.24
-0.29
-0.75
-1.04
-1.12
-1.02
-0.83
-0.63
-0.46
-0.30
-0.10
0.17
0.47
0.73
0.89
0.95
0.97
1.06
1.25
1.53
1.82
2.07
2.27
2.49
2.77
3.13
3.47
3.70
3.72
3.57
3.39
3.34
3.51
3.85
4.21
4.45
4.50
4.44
4.44
4.60
4.98
5.49
6.02
6.55
7.12
7.81
8.67
9.60
10.39
10.81
10.75
10.35
9.93
9.89
10.52
11.82
13.50
15.06
15.99
15.94
14.76
12.40
8.87
4.22
-1.35
-7.38
-13.15
-17.80
-20.68
-21.55
-20.71
-18.86
-16.72
-14.83
-13.39
-12.29
-11.34
-10.41
-9.51
-8.74
-8.22
-7.94
-7.81
-7.66
-7.31
-6.72
-5.94
-5.12
-4.40
-3.87
-3.49
-3.19
-2.88
-2.53
-2.13
-1.72
-1.33
-0.93
-0.52
-0.08
0.38
0.82
1.17
1.33
1.24
0.90
0.39
-0.14
-0.50
-0.59
-0.40
-0.02
0.40
0.76
1.05
1.34
1.76
2.38
3.19
4.08
4.88
5.36
5.31
4.60
3.23
1.35
-0.73
-2.61
-3.98
-4.65
-4.64
-4.18
-3.53
-2.94
-2.51
-2.25
-2.09
-1.97
-1.88
-1.88
-1.98
-2.18
-2.37
-2.45
-2.30
-1.92
-1.40
-0.90
-0.56
-0.47
-0.61
-0.83
-0.98
-0.91
-0.59
-0.07
0.49
0.91
1.02
0.76
0.14
-0.74
-1.74
-2.74
-3.65
-4.39
-4.90
-5.12
-5.01
-4.56
-3.84
-2.99
-2.14
-1.44
-0.95
-0.71
-0.66
-0.71
-0.79
-0.81
-0.77
-0.68
-0.58
-0.51
-0.47
-0.43
-0.34
-0.19
0.01
0.18
0.28
0.25
0.14
0.05
0.07
0.25
0.56
0.92
1.18
1.25
1.09
0.76
0.38
0.06
-0.12
-0.13
-0.03
0.14
0.29
0.41
0.50
0.59
0.71
0.83
0.93
0.96
0.94
0.92
1.00
1.26
1.70
2.24
2.75
3.10
3.24
3.20
3.09
2.98
2.92
2.85
2.68
2.34
1.82
1.20
0.61
0.16
-0.14
-0.33
-0.53
-0.83
-1.21
-1.59
-1.81
-1.82
-1.67
-1.54
-1.62
-2.04
-2.72
-3.46
-3.98
-4.08
-3.74
-3.19
-2.84
-3.16
-4.40
-6.48
-8.94
-11.07
-12.19
-11.99
-10.76
-9.34
-8.79
-9.99
-13.10
-17.43
-21.68
-24.46
-25.00
-23.58
-21.48
-20.51
-22.12
-26.72
-33.34
-40.05
-44.76
-46.25
-44.71
-41.68
-39.39
-39.97
-44.84
-54.30
-67.28
-81.14
-91.51
-92.86
-80.11
-51.02
-8.21
40.59
84.79
114.96
126.55
121.48
106.51
89.56
76.06
67.33
61.52
55.96
49.22
41.47
33.59
25.79
17.23
6.65
-6.34
-20.54
-33.55
-42.93
-47.48
-47.73
-45.72
-43.87
-44.01
-46.76
-51.57
-57.23
-62.56
-66.86
-70.26
-73.55
-77.93
-84.43
-93.38
-103.84
-113.43
-118.56
-115.50
-101.72
-77.18
-44.73
-9.42
23.23
49.14
66.85
77.38
83.11
86.15
87.46
86.89
83.96
78.75
72.22
65.79
60.51
56.55
53.12
49.15
43.94
37.58
30.90
24.93
20.42
17.48
15.63
14.08
12.15
9.60
6.75
4.43
3.64
5.22
9.58
16.67
26.16
37.66
50.88
65.56
81.26
97.26
112.65
126.59
138.75
149.42
159.41
169.59
180.43
191.82
203.33
214.61
225.63
236.41
246.43
254.03
256.47
250.66
234.41
207.38
171.15
128.29
81.19
31.26
-20.64
-73.12
-123.24
-166.58
-198.52
-216.20
-219.88
-212.86
-200.10
-186.14
-173.68
-163.21
-153.84
-144.52
-134.95
-125.59
-117.22
-110.18
-104.16
-98.34
-91.93
-84.57
-76.52
-68.52
-61.38
-55.60
-51.18
-47.64
-44.33
-40.67
-36.41
-31.70
-26.94
-22.63
-19.11
-16.50
-14.63
-13.12
-11.59
-9.79
-7.71
-5.58
-3.73
-2.41
-1.66
-1.30
-1.03
-0.57
0.15
0.99
1.71
2.06
1.93
1.37
0.56
-0.29
-1.01
-1.51
-1.78
-1.91
-2.04
-2.31
-2.80
-3.48
-4.21
-4.76
-4.95
-4.74
-4.22
-3.57
-2.93
-2.35
-1.76
-1.09
-0.34
0.42
1.03
1.33
1.28
0.96
0.49
0.06
-0.23
-0.32
-0.24
-0.05
0.18
0.40
0.62
0.86
1.17
1.56
1.98
2.34
2.53
2.54
2.43
2.40
2.62
3.21
4.09
5.02
5.71
5.87
5.37
4.28
2.76
1.05
-0.66
-2.27
-3.75
-5.04
-6.09
-6.82
-7.15
-7.07
-6.66
-6.05
-5.38
-4.78
-4.28
-3.88
-3.55
-3.28
-3.08
-2.97
-2.95
-3.00
-3.08
-3.10
-3.05
-2.92
-2.78
-2.68
-2.67
-2.70
-2.65
-2.47
-2.15
-1.79
-1.52
-1.44
-1.53
-1.67
-1.65
-1.30
-0.58
0.41
1.44
2.29
2.79
2.90
2.70
2.35
2.00
1.72
1.58
1.58
1.70
1.93
2.22
2.49
2.61
2.50
2.09
1.45
0.70
0.00
-0.52
-0.83
-0.95
-0.96
-0.91
-0.80
-0.62
-0.34
0.04
0.49
0.93
1.29
1.56
1.74
1.90
2.07
2.28
2.53
2.79
3.00
3.08
2.93
2.51
1.87
1.13
0.47
0.01
-0.25
-0.45
-0.77
-1.30
-1.97
-2.56
-2.87
-2.79
-2.42
-2.01
-1.80
-1.92
-2.30
-2.73
-3.00
-3.02
-2.85
-2.68
-2.67
-2.89
-3.24
-3.54
-3.64
-3.47
-3.10
-2.68
-2.36
-2.20
-2.14
-2.04
-1.76
-1.19
-0.33
0.74
1.83
2.75
3.33
3.52
3.35
2.96
2.53
2.20
2.07
2.15
2.41
2.79
3.15
3.37
3.33
3.00
2.44
1.78
1.21
0.84
0.68
0.66
0.66
0.60
0.48
0.37
0.34
0.41
0.57
0.71
0.76
0.67
0.49
0.26
0.06
-0.07
-0.13
-0.12
-0.05
0.10
0.34
0.65
1.00
1.32
1.56
1.70
1.75
1.70
1.54
1.22
0.72
0.04
-0.73
-1.51
-2.20
-2.75
-3.15
-3.39
-3.45
-3.32
-2.99
-2.51
-1.98
-1.53
-1.26
-1.21
-1.34
-1.54
-1.72
-1.82
-1.83
-1.75
-1.56
-1.28
-0.92
-0.55
-0.24
-0.07
-0.06
-0.17
-0.28
-0.30
-0.13
0.28
0.89
1.61
2.30
2.82
3.04
2.87
2.34
1.52
0.59
-0.29
-0.97
-1.36
-1.44
-1.27
-0.92
-0.49
-0.08
0.23
0.40
0.43
0.40
0.35
0.37
0.49
0.69
0.95
1.24
1.56
1.91
2.27
2.64
2.95
3.16
3.24
3.17
3.02
2.81
2.61
2.45
2.37
2.36
2.40
2.45
2.45
2.32
2.01
1.46
0.66
-0.40
-1.63
-2.87
-3.89
-4.48
-4.51
-4.04
-3.30
-2.63
-2.27
-2.29
-2.53
-2.72
-2.68
-2.39
-2.09
-2.06
-2.49
-3.33
-4.27
-4.93
-5.03
-4.52
-3.57
-2.49
-1.56
-0.95
-0.68
-0.69
-0.90
-1.20
-1.38
-1.15
-0.19
1.73
4.43
7.36
9.65
10.46
9.35
6.50
2.65
-1.27
-4.45
-6.48
-7.33
-7.18
-6.20
-4.46
-2.03
0.86
3.68
5.79
6.56
5.76
3.66
1.00
-1.33
-2.61
-2.54
-1.35
0.42
2.18
3.56
4.45
4.93
5.13
5.12
4.85
4.29
3.47
2.51
1.57
0.84
0.40
0.27
0.35
0.48
0.51
0.25
-0.34
-1.21
-2.18
-3.01
-3.50
-3.59
-3.33
-2.91
-2.49
-2.19
-2.04
-1.96
-1.86
-1.67
-1.42
-1.22
-1.22
-1.52
-2.11
-2.87
-3.57
-3.99
-4.01
-3.64
-3.04
-2.42
-1.96
-1.75
-1.78
-1.94
-2.05
-1.86
-1.11
0.38
2.60
5.26
7.78
9.48
9.79
8.51
5.90
2.56
-0.76
-3.41
-5.03
-5.57
-5.21
-4.22
-2.90
-1.50
-0.28
0.58
0.95
0.83
0.35
-0.22
-0.63
-0.68
-0.35
0.27
0.96
1.56
1.93
2.05
1.99
1.84
1.71
1.67
1.76
1.98
2.26
2.51
2.69
2.75
2.75
2.72
2.66
2.54
2.28
1.84
1.23
0.50
-0.26
-0.97
-1.58
-2.00
-2.17
-2.06
-1.71
-1.28
-0.93
-0.81
-0.98
-1.35
-1.80
-2.25
-2.66
-3.04
-3.39
-3.68
-3.83
-3.80
-3.62
-3.39
-3.25
-3.24
-3.33
-3.37
-3.22
-2.76
-2.02
-1.06
-0.01
1.02
1.98
2.83
3.54
4.07
4.35
4.33
4.00
3.39
2.61
1.80
1.10
0.60
0.37
0.35
0.47
0.60
0.65
0.57
0.39
0.17
-0.01
-0.08
-0.02
0.16
0.42
0.73
1.04
1.28
1.43
1.49
1.46
1.40
1.37
1.39
1.49
1.67
1.90
2.15
2.36
2.47
2.45
2.31
2.08
1.77
1.38
0.84
0.09
-0.90
-2.04
-3.19
-4.12
-4.66
-4.72
-4.36
-3.68
-2.86
-2.03
-1.30
-0.74
-0.40
-0.31
-0.44
-0.74
-1.13
-1.52
-1.87
-2.17
-2.40
-2.54
-2.55
-2.40
-2.11
-1.75
-1.45
-1.31
-1.38
-1.57
-1.74
-1.68
-1.27
-0.43
0.79
2.28
3.82
5.18
6.12
6.44
6.06
5.05
3.61
2.08
0.80
0.02
-0.18
0.11
0.69
1.31
1.76
1.94
1.83
1.45
0.86
0.15
-0.59
-1.21
-1.61
-1.71
-1.56
-1.30
-1.08
-1.03
-1.13
-1.30
-1.39
-1.28
-0.96
-0.49
0.04
0.55
0.98
1.32
1.60
1.84
2.08
2.32
2.56
2.74
2.83
2.76
2.48
1.96
1.22
0.28
-0.74
-1.76
-2.67
-3.39
-3.90
-4.18
-4.22
-3.97
-3.43
-2.63
-1.70
-0.83
-0.19
0.08
-0.03
-0.42
-0.97
-1.54
-2.06
-2.52
-2.90
-3.17
-3.27
-3.12
-2.68
-1.95
-0.99
0.11
1.20
2.17
2.87
3.22
3.17
2.77
2.12
1.42
0.87
0.67
0.87
1.43
2.14
2.78
3.12
3.05
2.59
1.90
1.17
0.55
0.09
-0.25
-0.55
-0.88
-1.18
-1.36
-1.31
-0.99
-0.49
0.03
0.37
0.42
0.20
-0.17
-0.48
-0.58
-0.38
0.06
0.64
1.23
1.76
2.20
2.53
2.74
2.80
2.64
2.26
1.68
0.96
0.19
-0.57
-1.24
-1.74
-2.04
-2.12
-2.01
-1.76
-1.45
-1.14
-0.86
-0.66
-0.54
-0.52
-0.60
-0.76
-0.94
-1.12
-1.33
-1.61
-1.99
-2.44
-2.88
-3.20
-3.32
-3.20
-2.87
-2.36
-1.75
-1.09
-0.49
-0.01
0.29
0.45
0.56
0.77
1.14
1.67
2.23
2.64
2.73
2.41
1.72
0.82
-0.08
-0.74
-1.00
-0.81
-0.27
0.43
1.10
1.59
1.85
1.89
1.74
1.41
0.90
0.24
-0.40
-0.84
-0.88
-0.47
0.26
1.04
1.62
1.82
1.69
1.39
1.09
0.92
0.87
0.88
0.87
0.81
0.76
0.77
0.86
1.01
1.14
1.18
1.14
1.07
1.02
1.05
1.11
1.14
1.05
0.79
0.37
-0.16
-0.73
-1.26
-1.70
-2.03
-2.22
-2.25
-2.11
-1.81
-1.41
-0.99
-0.62
-0.41
-0.42
-0.66
-1.06
-1.52
-1.91
-2.12
-2.10
-1.89
-1.55
-1.19
-0.90
-0.73
-0.72
-0.85
-1.08
-1.37
-1.64
-1.85
-1.96
-1.92
-1.67
-1.18
-0.47
0.40
1.25
1.88
2.13
1.93
1.31
0.46
-0.43
-1.16
-1.62
-1.78
-1.68
-1.38
-0.93
-0.38
0.21
0.78
1.24
1.48
1.46
1.21
0.84
0.50
0.31
0.33
0.54
0.85
1.16
1.42
1.61
1.72
1.75
1.70
1.59
1.48
1.45
1.56
1.80
2.06
2.23
2.24
2.11
1.94
1.87
1.95
2.13
2.26
2.20
1.83
1.19
0.33
-0.59
-1.47
-2.22
-2.78
-3.14
-3.32
-3.33
-3.22
-3.02
-2.79
-2.55
-2.31
-2.07
-1.82
-1.59
-1.39
-1.29
-1.33
-1.52
-1.83
-2.18
-2.50
-2.75
-2.89
-2.94
-2.87
-2.62
-2.16
-1.46
-0.55
0.54
1.76
3.17
4.75
6.47
8.07
9.17
9.34
8.34
6.20
3.33
0.32
-2.26
-4.01
-4.81
-4.78
-4.16
-3.21
-2.14
-1.13
-0.32
0.16
0.22
-0.10
-0.68
-1.29
-1.71
-1.79
-1.47
-0.82
-0.01
0.81
1.52
2.06
2.43
2.64
2.70
2.61
2.37
2.03
1.67
1.39
1.27
1.34
1.59
1.91
2.18
2.27
2.09
1.64
0.95
0.16
-0.60
-1.20
-1.55
-1.65
-1.54
-1.28
-0.98
-0.74
-0.66
-0.81
-1.20
-1.73
-2.28
-2.70
-2.88
-2.83
-2.64
-2.44
-2.32
-2.33
-2.43
-2.53
-2.55
-2.44
-2.18
-1.79
-1.31
-0.78
-0.26
0.20
0.57
0.85
1.11
1.43
1.91
2.58
3.39
4.17
4.70
4.79
4.37
3.49
2.30
1.00
-0.23
-1.27
-2.04
-2.52
-2.68
-2.51
-2.06
-1.39
-0.66
-0.06
0.26
0.19
-0.25
-0.90
-1.53
-1.87
-1.77
-1.23
-0.43
0.40
1.03
1.37
1.46
1.47
1.55
1.79
2.14
2.48
2.68
2.69
2.51
2.24
1.96
1.74
1.61
1.61
1.76
2.04
2.37
2.56
2.41
1.77
0.66
-0.71
-1.99
-2.85
-3.10
-2.75
-2.02
-1.21
-0.60
-0.34
-0.47
-0.88
-1.43
-1.95
-2.34
-2.59
-2.73
-2.80
-2.83
-2.82
-2.75
-2.59
-2.38
-2.17
-1.99
-1.82
-1.56
-1.13
-0.47
0.35
1.19
1.86
2.23
2.29
2.12
1.93
1.90
2.13
2.56
3.04
3.32
3.21
2.61
1.57
0.25
-1.12
-2.37
-3.34
-3.96
-4.21
-4.05
-3.52
-2.70
-1.77
-0.92
-0.36
-0.15
-0.27
-0.55
-0.83
-0.98
-0.94
-0.76
-0.48
-0.09
0.43
1.08
1.78
2.40
2.77
2.79
2.50
2.03
1.60
1.37
1.41
1.66
1.98
2.26
2.43
2.50
2.52
2.46
2.28
1.89
1.29
0.55
-0.20
-0.80
-1.16
-1.32
-1.36
-1.37
-1.38
-1.33
-1.17
-0.87
-0.52
-0.22
-0.04
0.01
-0.01
-0.05
-0.14
-0.38
-0.84
-1.53
-2.32
-2.99
-3.38
-3.43
-3.24
-3.01
-2.87
-2.82
-2.78
-2.63
-2.31
-1.85
-1.33
-0.76
-0.11
0.68
1.63
2.62
3.47
3.99
4.07
3.75
3.18
2.53
1.93
1.43
1.01
0.67
0.40
0.24
0.21
0.33
0.57
0.83
1.02
1.05
0.88
0.54
0.10
-0.31
-0.56
-0.61
-0.48
-0.24
0.01
0.24
0.45
0.66
0.91
1.18
1.46
1.74
2.03
2.30
2.54
2.69
2.71
2.54
2.15
1.57
0.84
0.02
-0.79
-1.50
-2.01
-2.26
-2.27
-2.15
-2.03
-2.01
-2.14
-2.38
-2.62
-2.73
-2.63
-2.30
-1.78
-1.16
-0.57
-0.13
0.08
0.07
-0.14
-0.47
-0.84
-1.19
-1.46
-1.62
-1.68
-1.64
-1.55
-1.49
-1.55
-1.76
-2.09
-2.44
-2.67
-2.65
-2.38
-1.91
-1.38
-0.92
-0.58
-0.33
-0.09
0.20
0.53
0.84
1.06
1.19
1.29
1.48
1.91
2.63
3.58
4.56
5.28
5.51
5.16
4.31
3.19
2.08
1.22
0.70
0.49
0.50
0.62
0.79
1.01
1.26
1.52
1.72
1.77
1.66
1.40
1.04
0.67
0.32
0.02
-0.19
-0.28
-0.19
0.07
0.46
0.87
1.20
1.38
1.44
1.44
1.47
1.52
1.51
1.32
0.88
0.23
-0.51
-1.19
-1.72
-2.07
-2.35
-2.65
-3.00
-3.37
-3.63
-3.65
-3.37
-2.83
-2.15
-1.49
-0.97
-0.63
-0.45
-0.38
-0.40
-0.54
-0.79
-1.15
-1.52
-1.81
-1.90
-1.80
-1.58
-1.37
-1.31
-1.47
-1.81
-2.26
-2.66
-2.90
-2.87
-2.50
-1.80
-0.81
0.34
1.46
2.34
2.78
2.70
2.10
1.18
0.18
-0.61
-0.97
-0.81
-0.14
0.90
2.13
3.31
4.23
4.71
4.67
4.12
3.18
2.06
0.96
0.07
-0.51
-0.74
-0.64
-0.28
0.26
0.89
1.46
1.86
2.03
1.97
1.74
1.43
1.11
0.81
0.55
0.39
0.40
0.65
1.13
1.75
2.31
2.61
2.48
1.92
1.04
0.06
-0.84
-1.52
-1.98
-2.27
-2.49
-2.71
-2.91
-3.03
-2.98
-2.76
-2.43
-2.13
-1.97
-2.01
-2.17
-2.32
-2.32
-2.12
-1.74
-1.29
-0.86
-0.50
-0.25
-0.10
-0.07
-0.18
-0.42
-0.73
-1.02
-1.18
-1.16
-0.96
-0.61
-0.24
0.09
0.28
0.31
0.20
0.03
-0.08
-0.01
0.31
0.85
1.47
1.97
2.19
2.08
1.70
1.21
0.76
0.44
0.23
0.09
-0.04
-0.15
-0.17
-0.05
0.22
0.57
0.88
1.06
1.07
0.92
0.67
0.39
0.14
-0.02
-0.10
-0.09
-0.03
0.00
-0.03
-0.15
-0.31
-0.43
-0.46
-0.36
-0.19
0.03
0.25
0.50
0.82
1.23
1.68
2.07
2.29
2.33
2.23
2.08
1.94
1.79
1.52
1.04
0.34
-0.51
-1.32
-1.92
-2.21
-2.25
-2.16
-2.12
-2.17
-2.27
-2.33
-2.24
-1.98
-1.60
-1.23
-1.01
-0.99
-1.18
-1.49
-1.85
-2.17
-2.44
-2.69
-2.96
-3.24
-3.52
-3.74
-3.80
-3.65
-3.28
-2.79
-2.33
-2.09
-2.18
-2.64
-3.38
-4.22
-4.95
-5.41
-5.54
-5.39
-5.04
-4.57
-4.02
-3.41
-2.77
-2.11
-1.46
-0.80
-0.04
0.96
2.28
3.94
5.81
7.71
9.42
10.77
11.65
11.97
11.67
10.71
9.14
7.09
4.84
2.66
0.78
-0.67
-1.69
-2.34
-2.69
-2.81
-2.79
-2.72
-2.68
-2.74
-2.88
-3.04
-3.14
-3.15
-3.10
-3.08
-3.19
-3.43
-3.72
-3.92
-3.89
-3.60
-3.08
-2.42
-1.65
-0.74
0.38
1.77
3.42
5.18
6.84
8.19
9.08
9.45
9.41
9.11
8.75
8.44
8.24
8.08
7.84
7.37
6.60
5.54
4.31
3.07
2.00
1.18
0.62
0.23
-0.10
-0.43
-0.76
-1.03
-1.17
-1.15
-0.98
-0.73
-0.45
-0.15
0.17
0.53
0.87
1.07
1.05
0.78
0.38
0.05
-0.01
0.29
0.82
1.33
1.48
1.06
0.06
-1.30
-2.73
-3.92
-4.69
-5.00
-4.93
-4.58
-4.05
-3.41
-2.71
-2.01
-1.39
-0.96
-0.78
-0.87
-1.17
-1.51
-1.73
-1.67
-1.32
-0.80
-0.29
0.02
0.06
-0.15
-0.48
-0.82
-1.09
-1.30
-1.46
-1.58
-1.61
-1.51
-1.28
-0.95
-0.61
-0.31
-0.04
0.27
0.69
1.24
1.86
2.42
2.78
2.87
2.67
2.26
1.72
1.13
0.54
-0.00
-0.44
-0.73
-0.86
-0.85
-0.77
-0.68
-0.64
-0.67
-0.76
-0.94
-1.22
-1.60
-2.03
-2.39
-2.57
-2.48
-2.19
-1.84
-1.60
-1.59
-1.77
-2.02
-2.18
-2.13
-1.84
-1.33
-0.67
0.06
0.85
1.61
2.28
2.72
2.85
2.63
2.18
1.70
1.42
1.47
1.81
2.22
2.42
2.17
1.44
0.37
-0.82
-1.91
-2.76
-3.32
-3.58
-3.49
-3.01
-2.18
-1.17
-0.27
0.26
0.26
-0.24
-1.01
-1.75
-2.21
-2.28
-1.96
-1.35
-0.56
0.25
0.96
1.47
1.74
1.79
1.74
1.70
1.76
1.91
2.06
2.11
2.02
1.85
1.69
1.63
1.66
1.74
1.80
1.85
1.96
2.16
2.47
2.74
2.80
2.51
1.86
0.98
0.07
-0.71
-1.32
-1.80
-2.24
-2.64
-2.95
-3.05
-2.89
-2.51
-2.05
-1.70
-1.56
-1.60
-1.72
-1.74
-1.57
-1.22
-0.84
-0.57
-0.55
-0.80
-1.27
-1.85
-2.42
-2.87
-3.10
-3.06
-2.73
-2.19
-1.53
-0.92
-0.45
-0.14
0.09
0.35
0.70
1.18
1.72
2.29
2.86
3.41
3.87
4.10
3.95
3.26
2.07
0.55
-0.98
-2.21
-2.91
-3.02
-2.65
-1.96
-1.13
-0.35
0.24
0.56
0.56
0.28
-0.16
-0.54
-0.70
-0.51
0.04
0.79
1.52
2.02
2.12
1.83
1.24
0.53
-0.14
-0.67
-1.02
-1.17
-1.13
-0.87
-0.37
0.34
1.19
2.07
2.84
3.37
3.61
3.55
3.25
2.78
2.22
1.62
1.03
0.48
-0.01
-0.41
-0.69
-0.87
-0.95
-0.99
-1.01
-1.03
-1.05
-1.04
-0.97
-0.81
-0.56
-0.27
-0.04
0.03
-0.16
-0.63
-1.30
-2.04
-2.67
-3.07
-3.23
-3.19
-3.09
-3.01
-3.01
-3.06
-3.06
-2.90
-2.50
-1.83
-0.99
-0.12
0.60
1.12
1.46
1.76
2.14
2.65
3.18
3.58
3.67
3.38
2.75
1.93
1.06
0.30
-0.29
-0.67
-0.81
-0.71
-0.39
0.12
0.72
1.32
1.82
2.12
2.16
1.94
1.50
0.96
0.46
0.12
0.01
0.10
0.30
0.50
0.57
0.48
0.22
-0.13
-0.54
-0.94
-1.26
-1.47
-1.54
-1.45
-1.24
-0.94
-0.58
-0.18
0.24
0.70
1.15
1.58
1.93
2.18
2.31
2.31
2.14
1.77
1.22
0.58
-0.07
-0.63
-1.07
-1.39
-1.63
-1.79
-1.86
-1.79
-1.56
-1.17
-0.69
-0.19
0.21
0.45
0.50
0.38
0.15
-0.13
-0.38
-0.61
-0.85
-1.14
-1.50
-1.89
-2.23
-2.39
-2.32
-2.03
-1.62
-1.22
-0.92
-0.78
-0.74
-0.70
-0.55
-0.23
0.24
0.73
1.07
1.14
0.88
0.35
-0.32
-0.93
-1.33
-1.41
-1.16
-0.66
-0.06
0.49
0.86
1.00
0.96
0.84
0.75
0.73
0.74
0.72
0.59
0.39
0.23
0.23
0.48
0.95
1.50
1.96
2.15
2.03
1.64
1.16
0.79
0.67
0.88
1.37
2.00
2.63
3.15
3.52
3.73
3.75
3.52
2.99
2.16
1.10
-0.00
-0.97
-1.67
-2.11
-2.35
-2.52
-2.72
-2.98
-3.30
-3.65
-3.98
-4.27
-4.52
-4.72
-4.90
-5.06
-5.20
-5.29
-5.35
-5.42
-5.57
-5.89
-6.36
-6.90
-7.40
-7.78
-8.06
-8.39
-8.97
-9.96
-11.39
-13.20
-15.22
-17.30
-19.34
-21.30
-23.20
-25.13
-27.22
-29.68
-32.68
-36.34
-40.58
-45.13
-49.61
-53.68
-57.30
-60.76
-64.58
-69.27
-75.07
-81.78
-88.88
-95.83
-102.34
-108.57
-114.97
-122.04
-130.05
-139.03
-148.92
-159.75
-171.58
-183.99
-195.58
-203.82
-205.44
-197.54
-178.58
-148.92
-110.39
-65.43
-16.36
34.68
85.20
131.79
170.38
197.32
210.92
212.33
205.25
194.46
183.95
175.67
169.53
164.23
158.54
152.02
145.01
138.14
131.74
125.66
119.45
112.77
105.64
98.54
92.13
86.94
83.13
80.39
78.15
75.85
73.19
70.26
67.51
65.46
64.50
64.72
65.84
67.42
69.04
70.54
72.08
74.07
76.94
80.94
85.90
91.34
96.65
101.35
105.29
108.65
111.84
115.25
119.28
124.32
130.72
138.44
146.66
153.59
156.78
154.03
144.49
129.12
110.30
90.57
71.34
52.30
32.14
9.69
-15.14
-41.42
-68.03
-94.60
-121.42
-148.70
-175.36
-198.76
-215.54
-223.25
-221.67
-213.06
-201.19
-189.60
-180.33
-173.75
-169.02
-165.15
-161.53
-158.06
-154.94
-152.29
-150.15
-148.58
-147.69
-147.71
-148.83
-151.02
-153.95
-157.13
-160.14
-163.01
-166.47
-171.85
-180.39
-192.38
-206.24
-218.39
-224.10
-218.96
-200.35
-168.16
-124.58
-73.21
-18.39
35.31
83.33
121.60
147.53
160.96
164.35
161.99
158.23
155.85
155.41
155.79
155.51
153.75
150.63
146.71
142.25
137.00
130.50
122.60
113.79
104.99
97.16
90.89
86.19
82.67
79.71
76.75
73.45
69.76
65.92
62.40
59.66
57.95
57.23
57.09
57.00
56.49
55.34
53.73
52.17
51.29
51.53
52.79
54.42
55.34
54.51
51.29
45.53
37.67
28.48
18.87
9.83
2.29
-2.98
-5.77
-6.72
-7.35
-9.54
-14.74
-23.21
-33.79
-44.53
-53.60
-60.08
-64.20
-66.81
-68.70
-70.07
-70.55
-69.61
-67.23
-64.03
-61.12
-59.51
-59.62
-61.09
-63.01
-64.39
-64.56
-63.53
-61.81
-60.26
-59.72
-60.79
-63.66
-68.00
-72.85
-76.63
-77.33
-73.06
-62.82
-47.06
-27.85
-8.30
8.45
20.31
26.79
28.89
28.38
26.98
25.87
25.64
26.53
28.74
32.41
37.41
43.18
48.68
52.68
54.25
53.07
49.66
45.08
40.56
36.96
34.58
33.16
32.13
30.97
29.41
27.47
25.41
23.47
21.74
20.20
18.73
17.21
15.59
13.91
12.25
10.70
9.28
8.03
6.98
6.20
5.73
5.59
5.67
5.81
5.82
5.58
5.09
4.46
3.89
3.53
3.51
3.81
4.37
5.11
5.91
6.67
7.32
7.78
8.06
8.25
8.46
8.85
9.51
10.40
11.38
12.25
12.87
13.24
13.53
13.98
14.80
16.10
17.78
19.66
21.56
23.42
25.28
27.32
29.65
32.27
35.06
37.86
40.55
43.21
45.99
49.09
52.59
56.46
60.55
64.83
69.43
74.53
79.93
84.78
87.60
86.73
81.00
70.24
55.22
37.17
17.18
-4.05
-25.93
-47.48
-67.00
-82.38
-91.84
-94.84
-92.37
-86.55
-79.71
-73.49
-68.42
-64.12
-59.86
-55.09
-49.71
-44.00
-38.43
-33.35
-28.93
-25.07
-21.57
-18.18
-14.72
-11.08
-7.27
-3.36
0.53
4.16
7.09
8.66
8.14
5.04
-0.57
-7.88
-15.54
-22.02
-26.23
-27.84
-27.33
-25.66
-23.79
-22.35
-21.47
-20.93
-20.43
-19.76
-18.90
-17.92
-16.94
-16.01
-15.12
-14.23
-13.32
-12.43
-11.68
-11.18
-10.97
-11.02
-11.16
-11.18
-10.93
-10.38
-9.67
-9.05
-8.76
-8.95
-9.57
-10.40
-11.17
-11.61
-11.64
-11.36
-11.02
-10.92
-11.30
-12.20
-13.50
-14.92
-16.21
-17.19
-17.82
-18.19
-18.42
-18.64
-18.91
-19.25
-19.65
-19.88
-19.40
-17.38
-12.87
-5.24
5.38
17.94
30.67
41.67
49.50
53.67
54.56
53.11
50.40
47.27
44.24
41.57
39.37
37.62
36.13
34.57
32.48
29.38
24.88
18.91
11.71
3.94
-3.49
-9.68
-13.97
-16.20
-16.71
-16.16
-15.28
-14.52
-14.03
-13.67
-13.28
-12.74
-12.13
-11.56
-11.14
-10.85
-10.62
-10.32
-9.89
-9.33
-8.71
-8.15
-7.70
-7.37
-7.08
-6.74
-6.29
-5.73
-5.13
-4.58
-4.17
-3.94
-3.82
-3.71
-3.52
-3.18
-2.71
-2.22
-1.79
-1.47
-1.25
-1.08
-0.87
-0.60
-0.30
-0.03
0.12
0.14
0.03
-0.13
-0.26
-0.30
-0.27
-0.19
-0.11
-0.08
-0.06
-0.05
-0.00
0.06
0.08
-0.01
-0.21
-0.48
-0.70
-0.74
-0.55
-0.18
0.23
0.48
0.49
0.28
-0.01
-0.23
-0.29
-0.22
-0.10
-0.04
-0.07
-0.15
-0.17
-0.10
0.05
0.17
0.16
-0.02
-0.30
-0.57
-0.71
-0.66
-0.46
-0.18
0.07
0.23
0.26
0.19
0.04
-0.13
-0.26
-0.30
-0.22
-0.03
0.22
0.48
0.68
0.79
0.80
0.72
0.58
0.42
0.29
0.24
0.28
0.39
0.48
0.50
0.40
0.20
-0.03
-0.21
-0.28
-0.24
-0.12
0.00
0.09
0.10
0.05
-0.04
-0.12
-0.18
-0.21
-0.22
-0.26
-0.32
-0.39
-0.44
-0.44
-0.38
-0.30
-0.23
-0.18
-0.11
0.01
0.19
0.36
0.44
0.37
0.15
-0.14
-0.34
-0.37
-0.17
0.18
0.54
0.75
0.69
0.36
-0.17
-0.77
-1.24
-1.48
-1.43
-1.16
-0.76
-0.32
0.10
0.45
0.69
0.77
0.64
0.32
-0.11
-0.51
-0.74
-0.74
-0.53
-0.21
0.11
0.35
0.51
0.60
0.63
0.64
0.65
0.69
0.78
0.89
0.98
0.98
0.82
0.54
0.24
0.04
0.02
0.17
0.37
0.50
0.50
0.40
0.29
0.23
0.22
0.20
0.10
-0.07
-0.23
-0.28
-0.19
0.01
0.17
0.21
0.09
-0.08
-0.19
-0.17
-0.04
0.09
0.10
-0.04
-0.31
-0.60
-0.80
-0.87
-0.79
-0.62
-0.43
-0.29
-0.25
-0.29
-0.40
-0.51
-0.58
-0.55
-0.44
-0.29
-0.16
-0.10
-0.09
-0.10
-0.07
0.03
0.16
0.26
0.25
0.13
-0.06
-0.25
-0.37
-0.42
-0.42
-0.41
-0.41
-0.40
-0.37
-0.30
-0.18
-0.02
0.13
0.27
0.36
0.38
0.37
0.36
0.44
0.66
1.02
1.43
1.76
1.86
1.70
1.29
0.74
0.19
-0.30
-0.71
-1.03
-1.24
-1.28
-1.08
-0.64
-0.08
0.39
0.61
0.52
0.19
-0.17
-0.39
-0.38
-0.23
-0.07
0.01
-0.01
-0.05
-0.02
0.10
0.27
0.39
0.41
0.31
0.13
-0.09
-0.34
-0.61
-0.90
-1.16
-1.31
-1.25
-0.96
-0.47
0.07
0.50
0.71
0.69
0.50
0.28
0.13
0.07
0.05
0.02
-0.05
-0.12
-0.14
-0.10
-0.04
-0.06
-0.22
-0.51
-0.83
-1.04
-1.04
-0.82
-0.45
-0.05
0.27
0.46
0.51
0.45
0.31
0.12
-0.09
-0.27
-0.36
-0.31
-0.11
0.18
0.51
0.78
0.97
1.06
1.11
1.13
1.14
1.12
1.05
0.89
0.63
0.31
-0.04
-0.34
-0.53
-0.56
-0.47
-0.34
-0.27
-0.30
-0.39
-0.45
-0.37
-0.14
0.17
0.41
0.48
0.35
0.11
-0.10
-0.16
-0.08
0.08
0.17
0.12
-0.06
-0.31
-0.52
-0.63
-0.62
-0.51
-0.34
-0.17
-0.01
0.12
0.21
0.29
0.38
0.45
0.49
0.48
0.39
0.22
0.00
-0.18
-0.30
-0.35
-0.40
-0.49
-0.64
-0.83
-0.97
-0.98
-0.85
-0.58
-0.26
0.03
0.23
0.33
0.31
0.18
-0.01
-0.21
-0.37
-0.43
-0.36
-0.20
-0.01
0.15
0.26
0.29
0.25
0.13
-0.05
-0.26
-0.42
-0.45
-0.32
-0.03
0.34
0.70
0.95
1.06
1.03
0.91
0.76
0.65
0.65
0.74
0.89
1.00
0.97
0.76
0.40
-0.01
-0.38
-0.64
-0.81
-0.90
-0.95
-0.94
-0.85
-0.70
-0.51
-0.37
-0.29
-0.28
-0.29
-0.23
-0.09
0.13
0.34
0.47
0.44
0.27
-0.00
-0.26
-0.42
-0.41
-0.21
0.09
0.38
0.56
0.55
0.35
0.03
-0.33
-0.63
-0.81
-0.85
-0.74
-0.48
-0.12
0.31
0.70
0.98
1.06
0.89
0.51
0.03
-0.42
-0.71
-0.73
-0.50
-0.09
0.36
0.71
0.86
0.80
0.61
0.39
0.24
0.23
0.34
0.51
0.66
0.72
0.65
0.44
0.13
-0.22
-0.55
-0.78
-0.86
-0.77
-0.53
-0.23
0.08
0.33
0.48
0.53
0.46
0.33
0.15
-0.01
-0.11
-0.12
-0.04
0.12
0.30
0.44
0.48
0.41
0.26
0.07
-0.07
-0.13
-0.13
-0.12
-0.15
-0.27
-0.46
-0.65
-0.80
-0.86
-0.83
-0.75
-0.65
-0.56
-0.49
-0.44
-0.41
-0.39
-0.36
-0.30
-0.22
-0.13
-0.03
0.07
0.17
0.27
0.33
0.33
0.24
0.11
-0.02
-0.08
-0.02
0.16
0.44
0.74
0.99
1.15
1.18
1.11
0.96
0.79
0.61
0.42
0.20
-0.06
-0.35
-0.59
-0.72
-0.71
-0.59
-0.46
-0.42
-0.53
-0.76
-0.99
-1.11
-1.06
-0.85
-0.60
-0.42
-0.36
-0.39
-0.41
-0.33
-0.14
0.09
0.24
0.26
0.16
0.01
-0.07
-0.01
0.19
0.46
0.73
0.91
0.96
0.86
0.64
0.39
0.15
-0.00
-0.07
-0.10
-0.14
-0.22
-0.30
-0.35
-0.32
-0.20
-0.01
0.21
0.43
0.62
0.77
0.83
0.76
0.56
0.26
-0.01
-0.16
-0.13
0.05
0.27
0.42
0.40
0.21
-0.09
-0.40
-0.62
-0.69
-0.59
-0.38
-0.15
-0.01
-0.02
-0.19
-0.43
-0.65
-0.77
-0.77
-0.66
-0.49
-0.30
-0.13
-0.01
0.03
-0.02
-0.12
-0.22
-0.27
-0.23
-0.13
-0.01
0.10
0.18
0.25
0.34
0.45
0.52
0.51
0.38
0.16
-0.09
-0.25
-0.26
-0.10
0.18
0.47
0.67
0.70
0.57
0.31
0.01
-0.24
-0.39
-0.39
-0.24
0.04
0.39
0.73
0.96
1.03
0.90
0.62
0.28
-0.04
-0.27
-0.38
-0.41
-0.40
-0.39
-0.38
-0.35
-0.28
-0.16
-0.01
0.11
0.16
0.10
-0.09
-0.36
-0.63
-0.83
-0.91
-0.91
-0.84
-0.75
-0.62
-0.45
-0.21
0.07
0.34
0.53
0.61
0.60
0.55
0.52
0.51
0.49
0.40
0.24
0.03
-0.16
-0.30
-0.36
-0.34
-0.25
-0.11
0.06
0.23
0.33
0.30
0.12
-0.14
-0.35
-0.36
-0.09
0.39
0.89
1.23
1.25
0.94
0.42
-0.12
-0.52
-0.71
-0.71
-0.62
-0.52
-0.45
-0.38
-0.25
-0.08
0.10
0.20
0.16
0.00
-0.18
-0.25
-0.13
0.18
0.55
0.84
0.95
0.87
0.67
0.44
0.27
0.16
0.09
0.01
-0.11
-0.25
-0.36
-0.36
-0.24
-0.02
0.20
0.30
0.23
-0.02
-0.34
-0.61
-0.73
-0.69
-0.51
-0.30
-0.13
-0.06
-0.09
-0.18
-0.31
-0.40
-0.44
-0.43
-0.38
-0.31
-0.23
-0.14
-0.05
0.02
0.03
-0.01
-0.12
-0.23
-0.28
-0.23
-0.08
0.11
0.25
0.28
0.18
-0.02
-0.25
-0.45
-0.57
-0.59
-0.48
-0.29
-0.03
0.25
0.47
0.59
0.60
0.52
0.41
0.30
0.20
0.10
0.01
-0.06
-0.07
-0.02
0.07
0.14
0.15
0.12
0.09
0.11
0.20
0.33
0.42
0.42
0.28
0.06
-0.19
-0.39
-0.51
-0.56
-0.53
-0.45
-0.31
-0.12
0.07
0.22
0.27
0.23
0.17
0.14
0.21
0.35
0.48
0.51
0.42
0.28
0.20
0.29
0.53
0.82
1.01
0.99
0.75
0.39
0.02
-0.24
-0.33
-0.28
-0.15
-0.01
0.09
0.11
0.05
-0.09
-0.29
-0.55
-0.85
-1.14
-1.38
-1.49
-1.44
-1.23
-0.88
-0.48
-0.10
0.19
0.37
0.41
0.34
0.18
-0.00
-0.14
-0.19
-0.13
0.01
0.18
0.33
0.41
0.42
0.39
0.36
0.38
0.46
0.58
0.70
0.75
0.68
0.54
0.37
0.24
0.19
0.21
0.22
0.17
0.03
-0.16
-0.31
-0.36
-0.31
-0.21
-0.13
-0.10
-0.10
-0.09
-0.04
0.03
0.06
0.01
-0.10
-0.23
-0.28
-0.19
0.02
0.28
0.46
0.49
0.34
0.06
-0.27
-0.56
-0.76
-0.87
-0.88
-0.80
-0.66
-0.48
-0.30
-0.17
-0.15
-0.27
-0.48
-0.72
-0.88
-0.90
-0.74
-0.46
-0.15
0.10
0.22
0.20
0.08
-0.07
-0.16
-0.10
0.12
0.46
0.82
1.06
1.08
0.88
0.52
0.12
-0.17
-0.26
-0.13
0.17
0.56
0.96
1.29
1.50
1.57
1.48
1.22
0.82
0.33
-0.12
-0.41
-0.50
-0.41
-0.29
-0.27
-0.43
-0.71
-0.97
-1.06
-0.93
-0.67
-0.43
-0.30
-0.31
-0.38
-0.43
-0.42
-0.36
-0.33
-0.35
-0.39
-0.41
-0.34
-0.21
-0.08
0.00
0.02
0.01
0.03
0.14
0.33
0.55
0.74
0.84
0.80
0.63
0.36
0.08
-0.11
-0.12
0.04
0.30
0.54
0.67
0.68
0.64
0.64
0.71
0.80
0.80
0.65
0.36
0.03
-0.21
-0.31
-0.32
-0.32
-0.41
-0.61
-0.89
-1.16
-1.37
-1.46
-1.43
-1.29
-1.06
-0.76
-0.41
-0.05
0.30
0.61
0.84
0.94
0.90
0.70
0.40
0.09
-0.17
-0.30
-0.29
-0.17
0.03
0.25
0.46
0.62
0.69
0.68
0.61
0.53
0.47
0.47
0.51
0.55
0.51
0.39
0.22
0.09
0.07
0.20
0.40
0.58
0.61
0.46
0.17
-0.18
-0.50
-0.75
-0.98
-1.21
-1.45
-1.63
-1.66
-1.51
-1.19
-0.83
-0.52
-0.33
-0.23
-0.17
-0.10
-0.01
0.11
0.26
0.45
0.67
0.90
1.06
1.08
0.93
0.66
0.38
0.16
0.05
-0.00
-0.06
-0.16
-0.31
-0.49
-0.65
-0.77
-0.82
-0.76
-0.55
-0.18
0.29
0.72
1.00
1.03
0.85
0.54
0.23
0.00
-0.15
-0.27
-0.42
-0.64
-0.88
-1.10
-1.22
-1.18
-0.98
-0.63
-0.22
0.15
0.34
0.31
0.07
-0.24
-0.49
-0.55
-0.42
-0.17
0.09
0.27
0.35
0.39
0.43
0.48
0.50
0.47
0.37
0.25
0.18
0.20
0.31
0.45
0.56
0.57
0.49
0.35
0.24
0.18
0.20
0.27
0.33
0.34
0.29
0.19
0.07
-0.02
-0.07
-0.05
0.03
0.18
0.39
0.61
0.75
0.74
0.51
0.11
-0.33
-0.62
-0.65
-0.40
0.01
0.43
0.69
0.73
0.60
0.40
0.27
0.27
0.42
0.68
0.94
1.10
1.09
0.86
0.43
-0.10
-0.64
-1.10
-1.41
-1.55
-1.52
-1.34
-1.03
-0.65
-0.25
0.07
0.28
0.34
0.28
0.15
0.01
-0.12
-0.21
-0.25
-0.26
-0.24
-0.22
-0.20
-0.22
-0.30
-0.42
-0.55
-0.66
-0.70
-0.66
-0.53
-0.33
-0.08
0.17
0.35
0.45
0.44
0.37
0.26
0.17
0.10
0.06
0.03
0.01
-0.01
-0.01
-0.01
0.00
0.04
0.06
0.05
-0.02
-0.15
-0.29
-0.40
-0.41
-0.30
-0.10
0.15
0.38
0.55
0.63
0.62
0.51
0.32
0.09
-0.10
-0.20
-0.16
-0.01
0.17
0.32
0.39
0.40
0.37
0.33
0.24
0.10
-0.11
-0.31
-0.42
-0.38
-0.18
0.10
0.30
0.31
0.10
-0.26
-0.61
-0.82
-0.82
-0.65
-0.43
-0.26
-0.18
-0.15
-0.11
-0.01
0.14
0.31
0.42
0.45
0.44
0.44
0.48
0.56
0.63
0.63
0.51
0.30
0.06
-0.11
-0.13
0.03
0.28
0.51
0.60
0.49
0.22
-0.10
-0.37
-0.53
-0.62
-0.71
-0.86
-1.09
-1.30
-1.38
-1.27
-0.97
-0.60
-0.31
-0.20
-0.31
-0.57
-0.84
-0.99
-0.95
-0.71
-0.33
0.10
0.48
0.76
0.91
0.96
0.98
0.99
1.02
1.02
0.93
0.72
0.45
0.18
-0.02
-0.12
-0.15
-0.18
-0.21
-0.24
-0.21
-0.13
-0.04
-0.04
-0.22
-0.55
-0.93
-1.23
-1.32
-1.20
-0.95
-0.68
-0.48
-0.33
-0.20
-0.03
0.18
0.39
0.49
0.45
0.26
-0.02
-0.30
-0.50
-0.59
-0.52
-0.29
0.06
0.49
0.90
1.19
1.30
1.26
1.13
0.96
0.81
0.65
0.45
0.17
-0.12
-0.36
-0.45
-0.36
-0.13
0.16
0.42
0.56
0.59
0.52
0.43
0.37
0.40
0.52
0.67
0.78
0.78
0.61
0.28
-0.14
-0.53
-0.80
-0.86
-0.66
-0.25
0.27
0.74
1.03
1.05
0.82
0.41
-0.03
-0.41
-0.69
-0.84
-0.87
-0.78
-0.59
-0.32
-0.06
0.13
0.23
0.23
0.19
0.14
0.13
0.15
0.20
0.29
0.39
0.46
0.43
0.28
0.01
-0.31
-0.54
-0.60
-0.49
-0.27
-0.03
0.20
0.40
0.57
0.70
0.73
0.63
0.40
0.11
-0.13
-0.24
-0.21
-0.12
-0.07
-0.13
-0.28
-0.43
-0.49
-0.39
-0.17
0.07
0.21
0.20
0.04
-0.19
-0.38
-0.49
-0.51
-0.51
-0.53
-0.54
-0.50
-0.33
-0.05
0.25
0.44
0.42
0.16
-0.20
-0.51
-0.63
-0.53
-0.29
-0.02
0.16
0.23
0.24
0.25
0.30
0.38
0.45
0.49
0.50
0.51
0.52
0.53
0.49
0.38
0.17
-0.08
-0.32
-0.50
-0.58
-0.56
-0.46
-0.32
-0.18
-0.11
-0.15
-0.30
-0.51
-0.67
-0.69
-0.51
-0.20
0.10
0.26
0.23
0.05
-0.16
-0.29
-0.28
-0.17
-0.03
0.08
0.12
0.14
0.19
0.31
0.47
0.61
0.63
0.50
0.25
-0.04
-0.26
-0.38
-0.40
-0.40
-0.41
-0.46
-0.49
-0.46
-0.35
-0.20
-0.07
-0.01
-0.06
-0.19
-0.36
-0.52
-0.64
-0.68
-0.64
-0.54
-0.41
-0.31
-0.29
-0.33
-0.38
-0.37
-0.27
-0.11
0.05
0.18
0.28
0.40
0.59
0.84
1.07
1.20
1.15
0.92
0.58
0.24
-0.01
-0.09
0.01
0.26
0.61
0.92
1.06
0.96
0.64
0.21
-0.17
-0.36
-0.35
-0.23
-0.14
-0.16
-0.27
-0.36
-0.30
-0.07
0.27
0.55
0.62
0.42
0.03
-0.35
-0.57
-0.57
-0.40
-0.19
-0.06
-0.04
-0.10
-0.14
-0.15
-0.15
-0.18
-0.27
-0.40
-0.50
-0.51
-0.42
-0.25
-0.10
-0.02
-0.03
-0.12
-0.23
-0.29
-0.24
-0.06
0.23
0.53
0.74
0.79
0.70
0.52
0.34
0.21
0.17
0.18
0.24
0.30
0.34
0.30
0.16
-0.11
-0.48
-0.85
-1.15
-1.27
-1.19
-0.93
-0.61
-0.32
-0.13
-0.05
0.01
0.12
0.32
0.59
0.85
1.02
1.08
1.05
1.02
1.04
1.13
1.28
1.47
1.75
2.14
2.70
3.40
4.21
5.05
5.89
6.71
7.54
8.38
9.20
10.01
10.80
11.61
12.48
13.43
14.44
15.50
16.65
17.97
19.57
21.52
23.77
26.20
28.58
30.70
32.44
33.77
34.79
35.63
36.39
36.99
37.24
36.97
36.14
35.04
34.16
33.92
34.46
35.53
36.63
37.15
36.42
33.63
27.85
18.36
5.18
-10.41
-25.91
-38.34
-45.44
-46.64
-43.34
-38.04
-33.14
-29.90
-28.09
-26.62
-24.40
-20.90
-16.22
-10.91
-5.82
-2.20
-1.59
-5.45
-14.49
-28.02
-43.94
-59.38
-71.87
-80.31
-85.19
-87.99
-90.16
-92.40
-94.56
-96.18
-97.16
-98.04
-99.75
-103.06
-108.06
-114.12
-120.31
-125.88
-130.67
-135.04
-139.49
-144.25
-149.17
-154.07
-159.17
-165.19
-172.69
-181.26
-188.78
-191.64
-185.95
-168.96
-140.07
-100.74
-53.66
-1.94
51.22
102.26
147.07
181.44
202.32
209.14
204.35
192.62
179.06
167.35
158.83
152.84
147.82
142.52
136.55
130.28
124.19
118.46
112.79
106.72
99.90
92.38
84.67
77.46
71.33
66.46
62.63
59.30
55.98
52.48
49.06
46.31
44.86
45.05
46.77
49.56
52.88
56.43
60.29
64.89
70.73
78.04
86.60
95.78
104.77
112.87
119.80
125.76
131.35
137.35
144.40
152.90
162.90
174.28
186.69
199.40
211.07
219.55
222.15
216.35
200.66
175.21
141.67
102.41
59.44
13.83
-33.91
-82.75
-130.14
-172.05
-204.05
-223.19
-229.27
-225.05
-214.87
-202.89
-191.56
-181.37
-171.58
-161.40
-150.82
-140.63
-131.75
-124.57
-118.64
-112.98
-106.61
-99.14
-90.87
-82.60
-75.16
-69.03
-64.14
-59.94
-55.76
-51.08
-45.74
-40.01
-34.40
-29.44
-25.45
-22.49
-20.34
-18.66
-17.10
-15.47
-13.73
-12.00
-10.44
-9.16
-8.20
-7.50
-6.99
-6.62
-6.41
-6.40
-6.64
-7.16
-7.91
-8.88
-10.07
-11.51
-13.24
-15.25
-17.47
-19.77
-22.01
-24.14
-26.19
-28.35
-30.87
-34.02
-37.94
-42.55
-47.60
-52.72
-57.58
-62.05
-66.27
-70.63
-75.56
-81.29
-87.78
-94.64
-101.41
-107.77
-113.67
-119.42
-125.40
-131.96
-139.37
-147.94
-158.08
-170.01
-183.16
-195.61
-204.11
-204.87
-194.81
-172.85
-140.17
-99.49
-53.74
-5.05
45.15
95.33
142.88
184.04
214.95
233.32
239.51
236.54
228.72
219.97
212.62
207.21
203.18
199.80
196.74
194.12
192.13
190.73
189.64
188.49
187.06
185.40
183.78
182.54
181.93
182.03
182.74
183.85
185.14
186.37
187.52
188.94
191.32
195.41
201.38
208.14
213.13
212.83
203.91
184.46
154.74
116.77
73.16
26.02
-23.37
-73.86
-123.31
-168.11
-203.91
-227.18
-236.90
-235.10
-225.93
-213.91
-202.22
-192.05
-183.02
-174.27
-165.33
-156.45
-148.12
-140.52
-133.22
-125.35
-116.13
-105.34
-93.48
-81.59
-70.68
-61.34
-53.53
-46.82
-40.68
-34.83
-29.34
-24.46
-20.40
-17.17
-14.56
-12.31
-10.20
-8.08
-5.87
-3.51
-0.97
1.68
4.28
6.58
8.39
9.62
10.31
10.52
10.27
9.52
8.20
6.32
4.02
1.62
-0.46
-1.87
-2.49
-2.47
-2.30
-2.67
-4.18
-7.07
-11.10
-15.58
-19.71
-23.00
-25.54
-28.02
-31.31
-35.98
-41.90
-48.21
-53.75
-57.61
-59.61
-60.45
-61.38
-63.71
-68.30
-75.42
-84.51
-94.11
-101.84
-104.83
-100.62
-88.38
-69.75
-48.72
-30.38
-18.96
-16.23
-21.00
-30.08
-40.06
-48.91
-56.64
-64.80
-75.35
-89.44
-106.71
-125.07
-141.07
-150.62
-149.89
-136.16
-108.64
-68.73
-20.10
31.95
81.47
123.14
153.33
170.77
176.52
173.34
164.71
153.89
143.24
134.07
126.83
121.32
116.97
112.92
108.29
102.48
95.39
87.51
79.71
72.77
67.09
62.59
58.76
54.96
50.69
45.80
40.46
35.16
30.40
26.59
23.83
21.93
20.50
19.17
17.67
15.90
13.93
11.89
9.93
8.17
6.68
5.48
4.53
3.74
3.02
2.28
1.55
0.90
0.45
0.24
0.26
0.41
0.56
0.61
0.51
0.26
-0.07
-0.39
-0.61
-0.67
-0.57
-0.34
-0.08
0.14
0.23
0.17
-0.00
-0.23
-0.41
-0.50
-0.45
-0.27
-0.03
0.24
0.49
0.71
0.88
0.94
0.87
0.66
0.34
-0.01
-0.28
-0.40
-0.35
-0.18
0.02
0.18
0.26
0.25
0.23
0.23
0.31
0.47
0.69
0.90
1.08
1.18
1.20
1.18
1.16
1.17
1.24
1.35
1.41
1.35
1.11
0.66
0.06
-0.63
-1.31
-1.89
-2.32
-2.60
-2.72
-2.71
-2.60
-2.44
-2.29
-2.16
-1.98
-1.64
-1.02
-0.08
1.12
2.43
3.65
4.65
5.36
5.78
5.96
5.96
5.82
5.55
5.19
4.78
4.39
4.10
3.93
3.89
3.94
4.05
4.23
4.48
4.80
5.16
5.49
5.71
5.79
5.79
5.89
6.21
6.74
7.23
7.20
6.17
3.88
0.44
-3.61
-7.56
-10.76
-12.85
-13.88
-14.22
-14.30
-14.44
-14.72
-14.97
-14.86
-14.03
-12.18
-9.24
-5.37
-1.01
3.29
7.07
10.11
12.52
14.61
16.66
18.67
20.38
21.38
21.46
20.86
20.31
20.69
22.65
26.23
30.80
35.40
39.11
41.52
42.85
43.83
45.40
48.40
53.39
60.56
69.39
78.40
85.06
86.30
79.61
64.43
42.87
19.40
-0.77
-13.66
-18.03
-15.59
-9.98
-5.01
-3.27
-5.49
-10.93
-18.19
-25.96
-33.34
-39.83
-45.13
-49.08
-51.61
-52.80
-52.90
-52.31
-51.47
-50.76
-50.38
-50.21
-49.89
-48.90
-46.81
-43.47
-39.13
-34.44
-30.17
-26.95
-25.00
-24.03
-23.41
-22.47
-20.83
-18.48
-15.83
-13.40
-11.62
-10.60
-10.16
-9.91
-9.46
-8.55
-7.19
-5.58
-4.02
-2.83
-2.17
-2.00
-2.12
-2.27
-2.22
-1.84
-1.19
-0.46
0.14
0.44
0.43
0.20
-0.07
-0.23
-0.22
-0.09
0.07
0.18
0.17
0.07
-0.08
-0.22
-0.31
-0.33
-0.27
-0.13
0.08
0.33
0.57
0.75
0.81
0.72
0.49
0.20
-0.07
-0.25
-0.33
-0.33
-0.32
-0.36
-0.46
-0.60
-0.72
-0.78
-0.75
-0.65
-0.48
-0.31
-0.18
-0.12
-0.18
-0.36
-0.62
-0.90
-1.11
-1.22
-1.20
-1.06
-0.86
-0.61
-0.35
-0.11
0.12
0.30
0.45
0.55
0.62
0.66
0.69
0.68
0.63
0.55
0.44
0.31
0.18
0.03
-0.14
-0.31
-0.42
-0.41
-0.24
0.09
0.49
0.83
0.99
0.91
0.60
0.15
-0.28
-0.59
-0.70
-0.63
-0.42
-0.13
0.17
0.41
0.51
0.44
0.17
-0.23
-0.62
-0.84
-0.78
-0.45
0.02
0.45
0.66
0.62
0.40
0.15
0.01
0.05
0.24
0.47
0.62
0.64
0.49
0.22
-0.11
-0.44
-0.71
-0.88
-0.95
-0.95
-0.91
-0.87
-0.84
-0.78
-0.64
-0.39
-0.03
0.37
0.69
0.80
0.65
0.25
-0.29
-0.80
-1.15
-1.23
-1.05
-0.65
-0.13
0.37
0.77
0.99
1.02
0.87
0.59
0.27
-0.02
-0.21
-0.23
-0.10
0.14
0.41
0.61
0.67
0.57
0.37
0.13
-0.06
-0.18
-0.21
-0.15
-0.02
0.18
0.40
0.61
0.73
0.73
0.61
0.44
0.29
0.24
0.26
0.30
0.29
0.21
0.08
-0.03
-0.07
-0.05
-0.01
-0.00
-0.07
-0.21
-0.39
-0.57
-0.71
-0.83
-0.93
-1.00
-1.00
-0.88
-0.64
-0.32
-0.02
0.18
0.24
0.20
0.14
0.13
0.21
0.34
0.46
0.54
0.59
0.64
0.68
0.70
0.61
0.40
0.08
-0.24
-0.43
-0.40
-0.18
0.14
0.44
0.61
0.64
0.57
0.47
0.35
0.21
0.02
-0.24
-0.53
-0.78
-0.91
-0.93
-0.86
-0.78
-0.75
-0.77
-0.77
-0.69
-0.52
-0.33
-0.20
-0.19
-0.28
-0.36
-0.32
-0.13
0.15
0.39
0.48
0.42
0.28
0.17
0.15
0.18
0.18
0.10
-0.02
-0.06
0.09
0.39
0.72
0.86
0.69
0.22
-0.36
-0.83
-0.97
-0.75
-0.24
0.38
0.95
1.35
1.52
1.46
1.23
0.90
0.58
0.32
0.16
0.07
-0.00
-0.08
-0.14
-0.14
-0.06
0.08
0.22
0.26
0.15
-0.08
-0.35
-0.56
-0.60
-0.49
-0.27
-0.05
0.06
0.03
-0.11
-0.23
-0.23
-0.04
0.29
0.63
0.80
0.71
0.37
-0.11
-0.54
-0.79
-0.83
-0.73
-0.61
-0.56
-0.61
-0.72
-0.81
-0.82
-0.75
-0.64
-0.53
-0.44
-0.39
-0.34
-0.27
-0.20
-0.10
0.01
0.17
0.40
0.67
0.91
1.01
0.92
0.64
0.28
-0.05
-0.25
-0.27
-0.18
-0.06
0.04
0.10
0.13
0.13
0.07
-0.06
-0.27
-0.47
-0.60
-0.61
-0.51
-0.40
-0.35
-0.38
-0.43
-0.41
-0.25
0.03
0.32
0.51
0.54
0.41
0.22
0.07
0.04
0.11
0.22
0.27
0.24
0.16
0.10
0.16
0.35
0.62
0.89
1.02
0.98
0.77
0.45
0.11
-0.20
-0.46
-0.65
-0.77
-0.78
-0.68
-0.51
-0.36
-0.30
-0.37
-0.52
-0.66
-0.68
-0.54
-0.27
0.03
0.23
0.28
0.21
0.13
0.16
0.36
0.69
1.01
1.16
1.07
0.78
0.42
0.14
0.03
0.05
0.08
-0.00
-0.21
-0.47
-0.65
-0.64
-0.42
-0.09
0.22
0.41
0.42
0.30
0.13
-0.00
-0.04
0.02
0.11
0.18
0.16
0.04
-0.18
-0.45
-0.73
-0.95
-1.06
-1.02
-0.85
-0.58
-0.28
-0.05
0.08
0.08
0.02
-0.04
-0.06
-0.05
-0.03
-0.06
-0.11
-0.15
-0.12
0.04
0.30
0.61
0.87
1.01
0.99
0.85
0.64
0.43
0.27
0.18
0.14
0.15
0.17
0.21
0.24
0.29
0.31
0.31
0.24
0.13
0.00
-0.09
-0.09
-0.01
0.11
0.20
0.21
0.13
0.00
-0.12
-0.23
-0.35
-0.49
-0.67
-0.83
-0.93
-0.90
-0.78
-0.62
-0.47
-0.38
-0.33
-0.28
-0.17
-0.01
0.14
0.26
0.31
0.30
0.28
0.30
0.40
0.57
0.77
0.95
1.04
1.01
0.89
0.72
0.53
0.33
0.11
-0.12
-0.34
-0.48
-0.52
-0.46
-0.38
-0.34
-0.36
-0.41
-0.40
-0.29
-0.08
0.12
0.23
0.18
0.02
-0.15
-0.22
-0.15
0.03
0.22
0.32
0.25
-0.02
-0.45
-0.98
-1.47
-1.80
-1.88
-1.65
-1.16
-0.51
0.16
0.74
1.10
1.19
1.01
0.62
0.16
-0.23
-0.41
-0.35
-0.10
0.25
0.57
0.78
0.86
0.82
0.71
0.57
0.46
0.42
0.48
0.63
0.83
0.99
1.03
0.93
0.75
0.55
0.42
0.38
0.38
0.37
0.28
0.10
-0.13
-0.36
-0.55
-0.69
-0.77
-0.80
-0.79
-0.75
-0.68
-0.58
-0.48
-0.38
-0.33
-0.38
-0.53
-0.75
-0.95
-1.01
-0.88
-0.56
-0.19
0.09
0.17
0.06
-0.15
-0.30
-0.29
-0.11
0.15
0.37
0.46
0.46
0.42
0.42
0.51
0.65
0.78
0.82
0.73
0.51
0.22
-0.05
-0.21
-0.24
-0.16
-0.06
-0.02
-0.08
-0.20
-0.28
-0.23
-0.05
0.17
0.28
0.21
0.01
-0.18
-0.23
-0.09
0.17
0.40
0.48
0.42
0.28
0.18
0.15
0.15
0.11
-0.03
-0.28
-0.56
-0.80
-0.92
-0.91
-0.80
-0.64
-0.47
-0.32
-0.25
-0.25
-0.35
-0.51
-0.68
-0.77
-0.72
-0.51
-0.16
0.26
0.62
0.81
0.75
0.46
0.04
-0.36
-0.61
-0.64
-0.48
-0.25
-0.06
-0.01
-0.11
-0.29
-0.46
-0.55
-0.53
-0.41
-0.24
-0.04
0.15
0.34
0.55
0.78
0.97
1.06
0.95
0.65
0.23
-0.14
-0.33
-0.24
0.06
0.42
0.67
0.71
0.58
0.37
0.20
0.10
0.08
0.10
0.15
0.23
0.33
0.39
0.34
0.12
-0.25
-0.66
-0.96
-1.02
-0.82
-0.45
-0.08
0.15
0.21
0.13
0.02
-0.02
0.03
0.13
0.23
0.31
0.40
0.58
0.86
1.17
1.39
1.35
0.98
0.33
-0.41
-0.98
-1.18
-0.96
-0.45
0.13
0.54
0.68
0.57
0.35
0.17
0.10
0.14
0.20
0.20
0.10
-0.07
-0.26
-0.43
-0.59
-0.76
-0.93
-1.04
-1.03
-0.84
-0.50
-0.10
0.24
0.41
0.35
0.13
-0.16
-0.35
-0.34
-0.07
0.40
0.93
1.37
1.61
1.59
1.32
0.88
0.35
-0.20
-0.71
-1.14
-1.44
-1.56
-1.49
-1.26
-0.92
-0.57
-0.27
-0.07
0.01
-0.02
-0.09
-0.13
-0.07
0.11
0.37
0.63
0.79
0.81
0.69
0.49
0.27
0.08
-0.09
-0.23
-0.33
-0.38
-0.38
-0.33
-0.25
-0.15
-0.06
-0.01
-0.01
-0.08
-0.20
-0.37
-0.54
-0.68
-0.74
-0.70
-0.60
-0.47
-0.36
-0.30
-0.27
-0.27
-0.26
-0.26
-0.28
-0.33
-0.39
-0.41
-0.33
-0.13
0.16
0.45
0.63
0.68
0.64
0.59
0.60
0.67
0.73
0.72
0.59
0.38
0.15
-0.00
-0.03
0.06
0.24
0.42
0.54
0.54
0.46
0.35
0.27
0.25
0.26
0.25
0.21
0.16
0.16
0.23
0.32
0.33
0.16
-0.18
-0.57
-0.82
-0.81
-0.56
-0.23
-0.01
-0.02
-0.25
-0.56
-0.78
-0.80
-0.64
-0.39
-0.18
-0.11
-0.16
-0.28
-0.38
-0.43
-0.43
-0.40
-0.36
-0.29
-0.16
0.06
0.31
0.54
0.68
0.70
0.65
0.56
0.52
0.53
0.58
0.63
0.66
0.68
0.69
0.71
0.72
0.67
0.53
0.32
0.07
-0.13
-0.21
-0.17
-0.02
0.16
0.31
0.38
0.35
0.25
0.10
-0.06
-0.20
-0.29
-0.34
-0.34
-0.33
-0.35
-0.43
-0.57
-0.74
-0.92
-1.05
-1.13
-1.11
-1.01
-0.83
-0.61
-0.40
-0.23
-0.13
-0.08
-0.03
0.07
0.26
0.47
0.65
0.71
0.63
0.46
0.29
0.22
0.26
0.37
0.45
0.44
0.34
0.21
0.12
0.11
0.19
0.32
0.46
0.55
0.55
0.43
0.19
-0.14
-0.47
-0.71
-0.81
-0.75
-0.62
-0.48
-0.40
-0.37
-0.35
-0.33
-0.28
-0.25
-0.25
-0.30
-0.38
-0.45
-0.46
-0.40
-0.25
0.01
0.37
0.77
1.13
1.35
1.33
1.05
0.59
0.09
-0.30
-0.50
-0.47
-0.27
-0.03
0.14
0.15
-0.04
-0.40
-0.85
-1.27
-1.53
-1.53
-1.24
-0.73
-0.14
0.34
0.61
0.62
0.45
0.25
0.13
0.17
0.36
0.61
0.83
0.96
0.97
0.87
0.73
0.57
0.42
0.26
0.07
-0.13
-0.32
-0.39
-0.30
-0.02
0.35
0.69
0.84
0.73
0.39
-0.05
-0.46
-0.74
-0.85
-0.82
-0.70
-0.51
-0.25
0.06
0.40
0.70
0.87
0.86
0.64
0.29
-0.10
-0.42
-0.61
-0.67
-0.59
-0.39
-0.10
0.23
0.52
0.67
0.60
0.31
-0.10
-0.45
-0.61
-0.50
-0.21
0.12
0.34
0.40
0.30
0.14
-0.03
-0.15
-0.21
-0.20
-0.12
0.01
0.16
0.30
0.37
0.37
0.29
0.15
-0.03
-0.20
-0.34
-0.41
-0.41
-0.33
-0.21
-0.10
-0.03
-0.00
-0.01
-0.04
-0.07
-0.10
-0.13
-0.13
-0.08
0.02
0.13
0.17
0.09
-0.12
-0.40
-0.65
-0.75
-0.66
-0.41
-0.08
0.22
0.42
0.51
0.51
0.46
0.38
0.29
0.18
0.06
-0.07
-0.19
-0.28
-0.36
-0.44
-0.54
-0.67
-0.80
-0.86
-0.76
-0.49
-0.08
0.36
0.72
0.91
0.90
0.77
0.58
0.40
0.26
0.18
0.13
0.10
0.07
-0.00
-0.15
-0.36
-0.58
-0.73
-0.70
-0.47
-0.10
0.28
0.53
0.59
0.50
0.34
0.23
0.23
0.31
0.42
0.51
0.53
0.48
0.33
0.07
-0.29
-0.65
-0.89
-0.89
-0.62
-0.18
0.28
0.57
0.61
0.43
0.15
-0.09
-0.21
-0.19
-0.08
0.03
0.09
0.06
-0.04
-0.15
-0.20
-0.15
0.02
0.26
0.51
0.70
0.80
0.82
0.76
0.66
0.49
0.25
-0.05
-0.33
-0.55
-0.61
-0.52
-0.30
-0.03
0.21
0.35
0.35
0.22
-0.04
-0.37
-0.69
-0.91
-0.96
-0.86
-0.65
-0.48
-0.44
-0.58
-0.85
-1.10
-1.19
-1.05
-0.70
-0.26
0.15
0.43
0.61
0.70
0.74
0.75
0.70
0.58
0.43
0.33
0.36
0.55
0.83
1.05
1.09
0.88
0.48
0.00
-0.40
-0.64
-0.71
-0.67
-0.60
-0.55
-0.54
-0.57
-0.61
-0.64
-0.64
-0.60
-0.50
-0.31
-0.07
0.17
0.35
0.43
0.41
0.33
0.22
0.12
0.05
0.04
0.11
0.29
0.54
0.81
1.02
1.10
1.00
0.75
0.42
0.09
-0.15
-0.27
-0.28
-0.23
-0.16
-0.09
-0.01
0.12
0.30
0.50
0.67
0.73
0.65
0.46
0.25
0.10
0.09
0.21
0.38
0.53
0.56
0.42
0.12
-0.30
-0.73
-1.08
-1.26
-1.28
-1.17
-0.95
-0.68
-0.38
-0.10
0.12
0.19
0.09
-0.14
-0.41
-0.59
-0.60
-0.46
-0.29
-0.20
-0.26
-0.42
-0.57
-0.56
-0.34
0.06
0.51
0.88
1.07
1.07
0.93
0.74
0.57
0.47
0.43
0.40
0.33
0.17
-0.07
-0.35
-0.58
-0.70
-0.69
-0.58
-0.45
-0.38
-0.38
-0.41
-0.40
-0.31
-0.17
-0.06
-0.06
-0.19
-0.40
-0.54
-0.48
-0.20
0.18
0.47
0.49
0.16
-0.42
-1.05
-1.51
-1.67
-1.52
-1.17
-0.74
-0.36
-0.07
0.15
0.33
0.54
0.78
1.03
1.23
1.31
1.27
1.10
0.88
0.67
0.50
0.38
0.29
0.21
0.13
0.04
-0.04
-0.13
-0.24
-0.35
-0.42
-0.36
-0.14
0.20
0.55
0.76
0.76
0.56
0.28
0.05
-0.02
0.05
0.17
0.23
0.14
-0.06
-0.29
-0.43
-0.42
-0.29
-0.16
-0.13
-0.24
-0.43
-0.55
-0.50
-0.27
0.03
0.23
0.20
-0.04
-0.37
-0.61
-0.63
-0.45
-0.17
0.07
0.15
0.06
-0.12
-0.28
-0.31
-0.17
0.10
0.44
0.76
0.97
1.06
1.05
0.98
0.86
0.69
0.42
0.07
-0.32
-0.61
-0.71
-0.57
-0.29
-0.03
0.04
-0.11
-0.38
-0.63
-0.70
-0.59
-0.38
-0.19
-0.10
-0.10
-0.08
0.02
0.21
0.40
0.50
0.47
0.37
0.30
0.34
0.50
0.69
0.80
0.74
0.50
0.17
-0.13
-0.27
-0.21
-0.02
0.18
0.28
0.19
-0.07
-0.40
-0.68
-0.82
-0.76
-0.56
-0.29
-0.04
0.15
0.30
0.44
0.61
0.78
0.88
0.83
0.56
0.11
-0.40
-0.81
-0.98
-0.90
-0.63
-0.33
-0.12
-0.04
-0.02
0.06
0.27
0.57
0.83
0.89
0.67
0.27
-0.17
-0.44
-0.46
-0.27
-0.00
0.19
0.24
0.16
0.02
-0.08
-0.14
-0.18
-0.23
-0.35
-0.50
-0.65
-0.72
-0.69
-0.60
-0.47
-0.39
-0.36
-0.41
-0.46
-0.49
-0.45
-0.35
-0.21
-0.05
0.11
0.28
0.43
0.53
0.54
0.44
0.27
0.09
-0.01
-0.02
0.03
0.08
0.08
0.00
-0.09
-0.15
-0.13
-0.03
0.12
0.27
0.40
0.49
0.54
0.55
0.50
0.38
0.21
0.05
-0.05
-0.02
0.12
0.34
0.53
0.61
0.57
0.43
0.27
0.16
0.09
0.01
-0.12
-0.32
-0.52
-0.63
-0.57
-0.38
-0.14
0.02
0.03
-0.08
-0.25
-0.39
-0.43
-0.40
-0.32
-0.27
-0.29
-0.40
-0.59
-0.80
-0.97
-1.03
-0.95
-0.71
-0.38
-0.04
0.20
0.26
0.12
-0.19
-0.57
-0.90
-1.05
-0.96
-0.66
-0.25
0.12
0.36
0.47
0.51
0.58
0.74
0.97
1.15
1.15
0.93
0.52
0.09
-0.19
-0.21
0.02
0.37
0.71
0.91
0.94
0.83
0.65
0.50
0.46
0.58
0.86
1.21
1.50
1.64
1.61
1.51
1.54
1.87
2.56
3.50
4.49
5.32
5.88
6.16
6.31
6.54
7.03
7.90
9.15
10.64
12.10
13.22
13.73
13.56
12.88
12.06
11.58
11.81
12.96
14.86
16.93
18.23
17.77
14.85
9.42
2.24
-5.36
-11.96
-16.59
-18.96
-19.43
-18.59
-16.93
-14.64
-11.78
-8.52
-5.28
-2.64
-0.99
-0.29
0.03
0.79
2.62
5.65
9.33
12.75
15.04
15.81
15.34
14.43
14.05
14.92
17.21
20.51
24.03
26.87
28.20
27.35
23.89
17.80
9.48
-0.39
-11.26
-23.10
-36.49
-52.14
-70.24
-89.79
-108.72
-124.49
-135.31
-140.88
-142.53
-142.67
-143.75
-147.52
-154.52
-163.79
-172.90
-178.15
-175.32
-160.98
-133.89
-95.87
-51.45
-6.37
34.29
67.55
92.69
110.54
122.35
129.07
131.44
130.45
127.65
124.98
124.04
125.44
128.46
131.45
132.57
130.77
126.29
120.62
115.85
113.80
115.24
119.59
125.25
130.27
133.29
134.01
133.24
132.52
133.50
137.55
145.42
156.99
170.88
184.29
193.05
192.37
178.32
149.56
108.50
60.89
14.02
-25.90
-55.77
-76.02
-89.38
-98.83
-105.96
-110.74
-112.49
-111.09
-107.59
-103.63
-100.33
-97.48
-93.67
-87.57
-79.26
-70.82
-65.42
-65.70
-72.23
-83.01
-94.29
-102.23
-104.54
-101.15
-93.82
-84.96
-76.43
-69.04
-62.65
-56.83
-51.32
-46.25
-41.89
-38.30
-35.31
-32.56
-29.81
-27.08
-24.59
-22.64
-21.35
-20.62
-20.21
-19.78
-19.12
-18.16
-16.99
-15.80
-14.86
-14.38
-14.51
-15.16
-16.11
-17.05
-17.74
-18.18
-18.61
-19.41
-20.86
-22.99
-25.50
-27.96
-30.04
-31.73
-33.41
-35.64
-38.85
-43.11
-48.10
-53.28
-58.22
-62.85
-67.42
-72.28
-77.68
-83.50
-89.42
-95.10
-100.37
-105.38
-110.50
-116.12
-122.60
-130.21
-139.22
-149.79
-161.64
-173.53
-183.03
-186.85
-181.67
-165.21
-136.89
-97.96
-51.01
0.51
52.70
101.42
142.65
173.17
191.41
198.08
196.07
189.43
182.04
176.40
173.32
172.38
172.76
173.77
175.11
176.57
177.86
178.68
178.85
178.55
178.25
178.46
179.46
181.12
183.06
184.86
186.33
187.70
189.39
191.72
194.78
198.42
202.45
206.75
211.08
214.62
215.66
211.69
200.16
179.42
149.38
111.41
67.52
19.56
-30.97
-82.31
-131.67
-174.96
-207.72
-226.75
-231.63
-225.03
-211.65
-196.22
-181.92
-169.79
-159.26
-149.38
-139.69
-130.45
-122.13
-114.87
-108.24
-101.47
-93.97
-85.69
-77.18
-69.32
-62.82
-57.82
-53.91
-50.29
-46.22
-41.43
-36.25
-31.45
-27.81
-25.71
-24.85
-24.36
-23.19
-20.72
-17.12
-13.34
-10.81
-10.77
-13.61
-18.67
-24.46
-29.31
-32.11
-32.70
-31.90
-31.00
-31.14
-33.03
-36.84
-42.29
-48.65
-54.58
-58.10
-57.23
-51.05
-40.80
-30.11
-23.93
-26.44
-39.06
-59.67
-83.57
-105.65
-122.55
-133.75
-141.05
-147.03
-153.28
-159.28
-162.62
-159.89
-148.10
-125.65
-92.80
-51.11
-2.53
51.17
108.46
167.44
224.97
276.72
318.16
346.24
360.90
365.25
364.23
362.45
362.17
362.42
359.90
350.60
331.67
302.45
264.33
219.69
170.63
118.39
63.68
7.67
-46.97
-96.04
-134.84
-160.06
-171.18
-170.84
-163.69
-154.39
-146.02
-139.40
-133.76
-127.97
-121.51
-114.77
-108.54
-103.37
-99.10
-95.05
-90.37
-84.61
-77.91
-70.93
-64.52
-59.28
-55.32
-52.26
-49.45
-46.29
-42.53
-38.34
-34.21
-30.71
-28.20
-26.71
-25.92
-25.33
-24.41
-22.81
-20.44
-17.52
-14.42
-11.58
-9.34
-7.87
-7.18
-7.11
-7.47
-8.07
-8.74
-9.29
-9.59
-9.49
-8.96
-8.03
-6.84
-5.55
-4.29
-3.15
-2.12
-1.10
0.03
1.42
3.15
5.20
7.46
9.70
11.68
13.20
14.20
14.78
15.15
15.57
16.19
16.95
17.65
17.97
17.67
16.68
15.11
13.21
11.18
9.15
7.16
5.23
3.46
1.97
0.88
0.21
-0.17
-0.52
-1.02
-1.79
-2.75
-3.71
-4.40
-4.63
-4.29
-3.40
-2.08
-0.54
0.94
2.17
3.02
3.52
3.88
4.32
4.98
5.78
6.43
6.54
5.82
4.28
2.19
-0.02
-2.03
-3.78
-5.51
-7.58
-10.30
-13.69
-17.47
-21.12
-24.05
-25.88
-26.54
-26.38
-26.04
-26.25
-27.48
-29.71
-32.37
-34.60
-35.58
-34.98
-33.13
-30.92
-29.43
-29.42
-31.00
-33.55
-35.97
-37.10
-36.17
-33.14
-28.65
-23.93
-20.47
-19.56
-21.72
-26.01
-29.63
-28.06
-16.15
9.99
51.01
