1659463064.00
64.000000
-0.00
-0.00
-0.00
-0.00
-0.00
-0.00
-0.00
-0.00
-0.00
-0.00
0.00
0.01
0.01
-0.00
-0.03
-0.05
-0.05
0.00
0.13
0.36
0.66
1.01
1.37
1.72
2.06
2.40
2.79
3.24
3.80
4.42
5.06
5.66
6.20
6.68
7.15
7.68
8.31
9.14
10.09
11.04
11.88
12.56
13.14
13.76
14.65
15.96
17.91
20.32
22.90
25.38
27.58
29.57
31.68
34.32
37.81
42.54
48.15
54.10
59.83
64.97
69.58
74.14
79.34
85.71
93.76
103.00
112.62
121.73
129.77
136.75
143.30
150.74
157.77
166.66
177.98
191.84
207.01
220.55
228.14
225.13
208.17
176.40
132.24
79.51
22.55
-35.46
-92.98
-149.78
-205.97
-261.24
-314.70
-364.85
-410.78
-451.81
-487.40
-516.73
-538.44
-550.74
-551.79
-540.41
-516.30
-480.68
-435.77
-384.35
-329.21
-272.63
-216.26
-161.14
-108.06
-57.72
-11.13
30.59
66.44
95.84
118.80
136.02
148.62
157.76
164.40
168.88
171.10
170.69
167.39
161.36
153.25
144.12
134.98
126.54
118.92
111.77
104.53
96.62
87.63
77.28
65.59
53.13
41.40
32.64
29.28
32.87
43.06
57.44
72.23
83.77
89.84
90.43
86.94
81.23
74.75
68.09
61.27
54.31
47.51
41.52
36.89
33.76
31.74
30.13
28.15
25.30
21.59
17.50
13.71
10.84
9.14
8.47
8.37
8.23
7.60
6.30
4.49
2.53
0.86
-0.29
-0.90
-1.13
-1.19
-1.09
-0.73
0.01
1.13
2.30
3.03
2.86
1.66
-0.35
-2.60
-4.49
-5.60
-5.86
-5.46
-4.73
-3.97
-3.36
-2.98
-2.77
-2.69
-2.70
-2.80
-3.02
-3.34
-3.70
-3.97
-4.00
-3.72
-3.21
-2.62
-2.15
-1.89
-1.80
-1.73
-1.55
-1.17
-0.63
-0.04
0.49
0.88
1.15
1.38
1.70
2.16
2.78
3.50
4.23
4.94
5.64
6.39
7.27
8.25
9.25
10.09
10.62
10.74
10.44
9.73
8.66
7.25
5.55
3.55
1.32
-1.02
-3.37
-5.60
-7.61
-9.27
-10.50
-11.26
-11.61
-11.65
-11.51
-11.23
-10.80
-10.15
-9.30
-8.33
-7.40
-6.67
-6.20
-5.97
-5.88
-5.84
-5.75
-5.59
-5.33
-4.95
-4.47
-3.94
-3.43
-3.00
-2.68
-2.47
-2.33
-2.28
-2.31
-2.41
-2.49
-2.43
-2.10
-1.50
-0.76
-0.12
0.21
0.15
-0.20
-0.66
-1.00
-1.12
-1.01
-0.76
-0.50
-0.30
-0.19
-0.17
-0.16
-0.11
0.00
0.11
0.12
-0.06
-0.43
-0.89
-1.30
-1.48
-1.37
-1.01
-0.58
-0.26
-0.11
-0.11
-0.15
-0.16
-0.15
-0.21
-0.44
-0.83
-1.29
-1.67
-1.86
-1.87
-1.78
-1.74
-1.85
-2.10
-2.38
-2.56
-2.51
-2.23
-1.79
-1.34
-1.01
-0.87
-0.90
-1.00
-1.06
-0.98
-0.80
-0.60
-0.52
-0.69
-1.11
-1.75
-2.47
-3.16
-3.74
-4.20
-4.57
-4.93
-5.36
-5.91
-6.64
-7.54
-8.57
-9.65
-10.65
-11.49
-12.13
-12.61
-13.06
-13.66
-14.55
-15.81
-17.32
-18.83
-19.99
-20.45
-20.02
-18.68
-16.59
-13.98
-11.10
-8.14
-5.20
-2.25
0.84
4.38
8.65
13.85
19.85
26.11
31.78
35.96
38.00
37.75
35.55
32.03
27.87
23.58
19.45
15.67
12.37
9.73
7.83
6.67
6.07
5.74
5.40
4.86
4.09
3.19
2.30
1.56
1.03
0.72
0.58
0.54
0.52
0.49
0.44
0.42
0.46
0.54
0.58
0.48
0.19
-0.23
-0.67
-0.96
-1.03
-0.92
-0.76
-0.69
-0.76
-0.92
-1.06
-1.08
-1.03
-0.98
-1.03
-1.18
-1.35
-1.46
-1.48
-1.46
-1.54
-1.80
-2.23
-2.69
-2.98
-2.98
-2.65
-2.11
-1.51
-0.98
-0.51
-0.06
0.47
1.08
1.67
2.04
2.03
1.60
0.86
0.10
-0.40
-0.44
-0.01
0.70
1.44
1.97
2.15
1.99
1.57
1.01
0.41
-0.15
-0.63
-1.01
-1.24
-1.31
-1.22
-1.04
-0.88
-0.85
-1.03
-1.41
-1.90
-2.34
-2.56
-2.49
-2.12
-1.55
-0.90
-0.27
0.29
0.76
1.14
1.39
1.47
1.38
1.12
0.81
0.55
0.44
0.51
0.72
0.95
1.10
1.13
1.03
0.87
0.69
0.54
0.43
0.35
0.28
0.19
0.04
-0.16
-0.38
-0.56
-0.65
-0.67
-0.72
-0.92
-1.36
-2.00
-2.67
-3.15
-3.20
-2.72
-1.77
-0.56
0.63
1.56
2.10
2.27
2.18
1.97
1.79
1.68
1.64
1.61
1.55
1.44
1.29
1.13
0.94
0.70
0.40
0.08
-0.18
-0.30
-0.24
-0.04
0.20
0.38
0.43
0.32
0.09
-0.23
-0.60
-1.00
-1.42
-1.81
-2.10
-2.14
-1.85
-1.20
-0.27
0.76
1.66
2.22
2.36
2.10
1.62
1.12
0.76
0.57
0.53
0.54
0.54
0.51
0.51
0.59
0.79
1.05
1.25
1.26
0.98
0.43
-0.26
-0.89
-1.29
-1.40
-1.31
-1.15
-1.07
-1.12
-1.26
-1.43
-1.56
-1.68
-1.82
-1.97
-2.09
-2.05
-1.78
-1.28
-0.68
-0.12
0.27
0.49
0.63
0.78
1.02
1.31
1.57
1.67
1.57
1.31
0.96
0.66
0.48
0.45
0.53
0.63
0.63
0.45
0.09
-0.36
-0.78
-1.03
-1.05
-0.87
-0.59
-0.32
-0.15
-0.13
-0.29
-0.64
-1.18
-1.86
-2.54
-3.02
-3.15
-2.81
-2.06
-1.05
0.02
0.98
1.73
2.22
2.45
2.43
2.23
1.99
1.86
1.96
2.29
2.71
3.03
3.11
2.94
2.62
2.32
2.18
2.19
2.23
2.11
1.73
1.08
0.32
-0.35
-0.71
-0.74
-0.51
-0.27
-0.23
-0.50
-1.06
-1.75
-2.40
-2.86
-3.10
-3.16
-3.09
-2.92
-2.66
-2.30
-1.88
-1.51
-1.28
-1.26
-1.45
-1.74
-1.97
-2.03
-1.84
-1.45
-1.01
-0.62
-0.36
-0.20
-0.08
0.03
0.14
0.18
0.12
-0.05
-0.25
-0.40
-0.46
-0.46
-0.49
-0.62
-0.88
-1.25
-1.63
-1.90
-2.01
-1.95
-1.79
-1.61
-1.45
-1.34
-1.25
-1.11
-0.87
-0.53
-0.08
0.46
1.04
1.62
2.13
2.47
2.58
2.44
2.11
1.68
1.26
0.93
0.72
0.65
0.69
0.86
1.10
1.32
1.44
1.35
1.04
0.55
0.02
-0.47
-0.81
-0.99
-1.06
-1.07
-1.05
-1.03
-1.04
-1.08
-1.18
-1.34
-1.49
-1.54
-1.40
-1.00
-0.40
0.26
0.81
1.13
1.24
1.24
1.24
1.31
1.44
1.55
1.58
1.53
1.44
1.36
1.30
1.24
1.12
0.92
0.63
0.31
0.02
-0.17
-0.21
-0.09
0.16
0.44
0.67
0.76
0.69
0.51
0.26
-0.04
-0.41
-0.86
-1.37
-1.81
-2.06
-2.03
-1.73
-1.27
-0.81
-0.44
-0.16
0.06
0.26
0.44
0.54
0.57
0.59
0.72
1.05
1.56
2.10
2.45
2.44
2.08
1.52
0.97
0.58
0.37
0.27
0.18
0.07
-0.01
0.03
0.22
0.50
0.73
0.79
0.59
0.19
-0.31
-0.78
-1.14
-1.38
-1.53
-1.62
-1.63
-1.51
-1.23
-0.77
-0.18
0.47
1.08
1.58
1.89
1.99
1.85
1.53
1.13
0.79
0.59
0.55
0.60
0.65
0.67
0.69
0.73
0.80
0.83
0.70
0.34
-0.18
-0.67
-0.94
-0.87
-0.54
-0.15
0.10
0.12
-0.07
-0.34
-0.60
-0.83
-1.06
-1.34
-1.64
-1.90
-2.00
-1.86
-1.52
-1.05
-0.56
-0.15
0.17
0.44
0.68
0.92
1.12
1.24
1.26
1.22
1.19
1.26
1.44
1.67
1.85
1.83
1.57
1.10
0.54
0.04
-0.24
-0.28
-0.12
0.09
0.20
0.15
-0.05
-0.30
-0.51
-0.63
-0.70
-0.80
-0.96
-1.19
-1.42
-1.58
-1.63
-1.57
-1.42
-1.20
-0.90
-0.50
-0.04
0.42
0.78
0.98
0.97
0.78
0.47
0.12
-0.15
-0.29
-0.27
-0.12
0.06
0.21
0.26
0.22
0.14
0.09
0.09
0.14
0.19
0.22
0.22
0.20
0.18
0.14
0.02
-0.27
-0.75
-1.39
-2.05
-2.54
-2.72
-2.52
-2.00
-1.34
-0.75
-0.34
-0.14
-0.05
0.04
0.23
0.49
0.73
0.86
0.83
0.71
0.62
0.64
0.78
0.97
1.09
1.07
0.93
0.71
0.47
0.27
0.09
-0.05
-0.13
-0.12
0.01
0.22
0.42
0.50
0.38
0.08
-0.29
-0.58
-0.70
-0.64
-0.50
-0.39
-0.42
-0.59
-0.85
-1.12
-1.32
-1.40
-1.34
-1.12
-0.76
-0.29
0.23
0.68
0.96
1.00
0.77
0.34
-0.23
-0.84
-1.40
-1.81
-2.02
-2.02
-1.88
-1.75
-1.76
-2.01
-2.46
-2.97
-3.40
-3.64
-3.73
-3.81
-4.06
-4.60
-5.44
-6.47
-7.55
-8.57
-9.49
-10.31
-11.09
-11.86
-12.63
-13.38
-14.11
-14.85
-15.61
-16.37
-17.00
-17.33
-17.18
-16.43
-15.03
-13.07
-10.65
-7.90
-4.94
-1.84
1.33
4.52
7.66
10.70
13.52
15.96
17.87
19.12
19.71
19.74
19.40
18.88
18.27
17.58
16.76
15.76
14.58
13.29
11.97
10.74
9.64
8.67
7.80
6.97
6.16
5.36
4.65
4.09
3.79
3.75
3.95
4.27
4.56
4.69
4.61
4.32
3.89
3.41
2.93
2.50
2.10
1.76
1.51
1.39
1.42
1.52
1.57
1.45
1.13
0.71
0.34
0.15
0.16
0.28
0.35
0.29
0.12
-0.06
-0.14
-0.11
-0.06
-0.16
-0.55
-1.22
-2.05
-2.79
-3.20
-3.16
-2.66
-1.85
-0.98
-0.25
0.18
0.30
0.24
0.13
0.10
0.19
0.32
0.37
0.28
0.06
-0.19
-0.36
-0.44
-0.48
-0.59
-0.79
-1.02
-1.13
-0.98
-0.52
0.15
0.80
1.22
1.27
0.97
0.47
-0.06
-0.47
-0.74
-0.88
-0.95
-0.97
-0.99
-1.00
-1.02
-1.09
-1.19
-1.30
-1.33
-1.24
-1.00
-0.65
-0.28
0.02
0.21
0.30
0.31
0.26
0.16
0.07
0.01
0.01
0.07
0.17
0.26
0.31
0.34
0.33
0.31
0.26
0.19
0.08
-0.04
-0.15
-0.25
-0.35
-0.51
-0.77
-1.12
-1.51
-1.85
-2.08
-2.18
-2.14
-2.00
-1.81
-1.63
-1.49
-1.36
-1.16
-0.80
-0.25
0.44
1.10
1.54
1.68
1.53
1.28
1.11
1.12
1.29
1.48
1.56
1.48
1.29
1.08
0.91
0.78
0.61
0.36
0.07
-0.18
-0.29
-0.22
-0.01
0.21
0.33
0.28
0.06
-0.30
-0.70
-1.07
-1.39
-1.62
-1.74
-1.73
-1.56
-1.23
-0.74
-0.15
0.45
0.96
1.28
1.39
1.30
1.10
0.93
0.87
0.93
1.07
1.18
1.19
1.08
0.87
0.65
0.45
0.31
0.21
0.14
0.11
0.11
0.15
0.18
0.15
-0.00
-0.27
-0.61
-0.91
-1.10
-1.15
-1.08
-0.99
-1.00
-1.14
-1.41
-1.71
-1.94
-2.03
-1.95
-1.75
-1.46
-1.14
-0.81
-0.44
-0.06
0.33
0.69
0.97
1.15
1.24
1.23
1.12
0.91
0.63
0.36
0.17
0.15
0.34
0.68
1.06
1.34
1.37
1.06
0.44
-0.39
-1.20
-1.79
-1.99
-1.81
-1.41
-1.01
-0.82
-0.93
-1.24
-1.60
-1.82
-1.83
-1.62
-1.28
-0.87
-0.42
0.07
0.63
1.20
1.67
1.88
1.75
1.29
0.67
0.07
-0.30
-0.34
-0.10
0.32
0.75
1.09
1.27
1.30
1.21
1.06
0.89
0.72
0.57
0.40
0.21
0.02
-0.18
-0.38
-0.60
-0.92
-1.36
-1.88
-2.35
-2.65
-2.64
-2.30
-1.71
-0.98
-0.28
0.32
0.74
0.97
1.03
0.98
0.91
0.91
0.97
1.05
1.04
0.88
0.62
0.34
0.14
0.02
-0.07
-0.21
-0.43
-0.64
-0.73
-0.64
-0.40
-0.14
-0.01
-0.10
-0.37
-0.72
-1.01
-1.20
-1.33
-1.51
-1.82
-2.28
-2.77
-3.12
-3.17
-2.84
-2.21
-1.50
-0.99
-0.85
-1.10
-1.61
-2.10
-2.33
-2.16
-1.66
-1.05
-0.64
-0.69
-1.30
-2.36
-3.50
-4.31
-4.40
-3.62
-2.12
-0.31
1.28
2.12
1.78
0.00
-3.03
-6.53
-8.99
-8.51
-3.52
6.50
20.40
35.56
48.63
56.69
58.21
53.44
44.02
32.25
20.33
9.92
2.22
-1.93
-2.01
2.01
9.30
18.12
26.19
31.29
32.04
28.39
21.52
13.31
5.56
-0.53
-4.50
-6.46
-6.76
-5.84
-4.17
-2.30
-0.74
0.24
0.80
1.50
3.08
6.10
10.68
16.43
22.73
29.03
35.10
41.06
47.11
53.38
59.59
65.20
69.56
72.18
72.97
72.23
70.42
67.96
65.00
61.46
57.11
51.80
45.49
38.33
30.47
22.11
13.42
4.61
-4.08
-12.43
-20.28
-27.60
-34.40
-40.69
-46.37
-51.30
-55.32
-58.39
-60.57
-62.02
-62.92
-63.39
-63.47
-63.24
-62.86
-62.67
-63.09
-64.42
-66.65
-69.38
-71.85
-73.29
-73.15
-71.37
-68.27
-64.35
-60.01
-55.50
-50.91
-46.37
-42.16
-38.65
-36.02
-34.09
-32.34
-30.09
-26.89
-22.73
-18.11
-13.75
-10.26
-7.96
-6.79
-6.42
-6.42
-6.34
-5.79
-4.44
-2.11
1.13
4.89
8.55
11.48
13.31
14.08
14.20
14.27
14.77
15.94
17.62
19.37
20.55
20.53
18.85
15.38
10.44
4.87
-0.15
-3.36
-3.89
-1.71
2.26
6.38
8.88
8.57
5.30
-0.05
-6.03
-11.28
-15.09
-17.49
-19.00
-20.17
-21.21
-22.01
-22.33
-22.06
-21.33
-20.51
-19.91
-19.65
-19.60
-19.44
-18.91
-17.87
-16.46
-14.97
-13.73
-12.92
-12.51
-12.24
-11.76
-10.85
-9.54
-8.10
-6.85
-5.99
-5.47
-4.98
-4.16
-2.78
-0.93
1.05
2.74
3.82
4.26
4.23
4.04
3.93
3.99
4.16
4.37
4.52
4.62
4.73
4.90
5.14
5.39
5.56
5.61
5.53
5.39
5.24
5.18
5.21
5.30
5.37
5.31
5.05
4.57
3.97
3.40
3.10
3.19
3.66
4.32
4.93
5.31
5.48
5.55
5.70
6.00
6.39
6.68
6.68
6.36
5.78
5.12
4.55
4.16
3.99
3.98
4.08
4.19
4.25
4.22
4.08
3.87
3.64
3.43
3.27
3.16
3.09
3.08
3.13
3.23
3.34
3.41
3.38
3.23
2.98
2.70
2.50
2.44
2.55
2.80
3.11
3.41
3.66
3.90
4.16
4.47
4.77
4.95
4.90
4.57
4.06
3.52
3.11
2.90
2.83
2.82
2.79
2.75
2.75
2.87
3.12
3.42
3.66
3.71
3.47
2.94
2.23
1.49
0.90
0.59
0.61
0.87
1.20
1.45
1.48
1.33
1.11
0.97
1.04
1.31
1.71
2.11
2.42
2.62
2.74
2.83
2.92
2.98
2.96
2.84
2.64
2.47
2.40
2.50
2.73
3.00
3.22
3.29
3.18
2.92
2.59
2.28
2.07
1.98
1.98
2.02
2.03
1.99
1.94
1.88
1.82
1.69
1.42
0.95
0.32
-0.34
-0.85
-1.03
-0.80
-0.23
0.54
1.34
2.03
2.53
2.88
3.09
3.15
3.02
2.64
2.07
1.43
0.97
0.87
1.19
1.78
2.38
2.72
2.66
2.26
1.75
1.35
1.23
1.40
1.74
2.09
2.32
2.37
2.26
2.03
1.76
1.48
1.23
1.04
0.95
0.98
1.07
1.16
1.17
1.09
1.01
1.01
1.15
1.39
1.63
1.74
1.67
1.49
1.36
1.39
1.63
1.98
2.28
2.42
2.42
2.35
2.27
2.21
2.08
1.82
1.43
1.02
0.74
0.71
0.90
1.17
1.33
1.29
1.10
0.90
0.81
0.86
0.90
0.76
0.36
-0.22
-0.81
-1.23
-1.40
-1.38
-1.30
-1.23
-1.12
-0.87
-0.40
0.27
1.00
1.57
1.88
1.91
1.79
1.66
1.66
1.79
2.01
2.21
2.31
2.29
2.18
2.03
1.88
1.77
1.65
1.49
1.26
0.97
0.70
0.51
0.47
0.58
0.75
0.91
0.94
0.79
0.46
0.03
-0.40
-0.73
-0.88
-0.83
-0.63
-0.35
-0.07
0.16
0.33
0.45
0.51
0.47
0.30
0.04
-0.24
-0.39
-0.27
0.15
0.77
1.38
1.75
1.77
1.46
0.98
0.53
0.28
0.26
0.43
0.68
0.92
1.13
1.30
1.45
1.56
1.64
1.70
1.79
1.97
2.24
2.55
2.80
2.93
2.97
3.06
3.40
4.13
5.28
6.71
8.16
9.43
10.40
11.13
11.81
12.72
14.07
15.97
18.43
21.38
24.70
28.29
32.02
35.79
39.47
42.96
46.18
49.04
51.40
52.95
53.25
52.00
49.22
45.53
41.97
39.69
39.43
41.23
44.46
48.12
51.18
52.82
52.66
50.70
47.44
43.74
40.64
38.99
39.09
40.49
42.21
43.16
42.65
40.61
37.43
33.55
29.15
23.98
17.59
9.69
0.39
-9.74
-19.87
-29.10
-36.78
-42.50
-46.16
-47.84
-47.71
-46.12
-43.47
-40.32
-37.28
-34.83
-33.24
-32.51
-32.42
-32.68
-32.97
-33.01
-32.56
-31.42
-29.56
-27.19
-24.71
-22.58
-21.06
-20.06
-19.08
-17.55
-15.03
-11.53
-7.45
-3.41
0.13
2.98
5.30
7.49
9.98
13.10
17.09
22.03
27.76
33.81
39.43
43.80
46.29
46.78
45.66
43.82
42.21
41.54
41.91
42.72
42.72
40.37
34.32
23.93
9.70
-6.76
-23.28
-37.89
-49.63
-58.85
-66.82
-74.99
-84.27
-94.58
-105.05
-114.31
-120.98
-123.86
-122.23
-115.95
-105.60
-92.56
-78.63
-65.61
-54.78
-46.58
-40.73
-36.62
-33.72
-31.65
-30.19
-29.06
-27.88
-26.28
-24.19
-21.83
-19.67
-18.12
-17.34
-17.11
-16.98
-16.48
-15.35
-13.66
-11.72
-10.01
-8.87
-8.43
-8.51
-8.73
-8.69
-8.12
-6.99
-5.54
-4.08
-2.88
-2.04
-1.48
-1.10
-0.86
-0.79
-0.98
-1.45
-2.07
-2.59
-2.79
-2.58
-2.02
-1.34
-0.74
-0.39
-0.29
-0.42
-0.67
-1.02
-1.45
-1.93
-2.43
-2.90
-3.26
-3.53
-3.71
-3.84
-3.93
-3.91
-3.65
-3.06
-2.12
-0.95
0.23
1.21
1.86
2.21
2.39
2.50
2.59
2.60
2.44
2.10
1.62
1.07
0.54
0.06
-0.37
-0.74
-0.99
-1.10
-1.11
-1.16
-1.45
-2.10
-3.05
-4.04
-4.75
-5.00
-4.85
-4.61
-4.62
-5.09
-5.96
-6.91
-7.60
-7.80
-7.55
-7.02
-6.44
-5.91
-5.39
-4.77
-3.97
-2.95
-1.79
-0.59
0.54
1.48
2.17
2.57
2.76
2.85
2.97
3.24
3.71
4.37
5.15
5.93
6.51
6.68
6.23
5.07
3.36
1.47
-0.09
-0.90
-0.79
0.06
1.25
2.26
2.72
2.51
1.75
0.76
-0.17
-0.79
-1.02
-0.88
-0.48
0.15
0.98
2.04
3.30
4.64
5.85
6.63
6.79
6.26
5.20
3.94
2.81
2.05
1.72
1.71
1.81
1.83
1.63
1.17
0.47
-0.34
-1.13
-1.69
-1.89
-1.73
-1.38
-1.14
-1.25
-1.82
-2.74
-3.73
-4.53
-4.94
-4.92
-4.51
-3.81
-2.85
-1.71
-0.50
0.63
1.52
2.09
2.41
2.67
3.10
3.79
4.66
5.46
5.92
5.94
5.63
5.37
5.55
6.32
7.55
8.88
9.91
10.46
10.60
10.58
10.59
10.63
10.51
10.02
9.05
7.72
6.33
5.21
4.57
4.38
4.43
4.42
4.09
3.39
2.45
1.54
0.90
0.64
0.64
0.66
0.42
-0.20
-1.14
-2.21
-3.18
-3.93
-4.39
-4.53
-4.30
-3.65
-2.60
-1.30
-0.03
0.87
1.22
1.03
0.53
-0.01
-0.39
-0.64
-0.91
-1.41
-2.25
-3.34
-4.50
-5.50
-6.12
-6.26
-5.89
-5.03
-3.83
-2.50
-1.31
-0.50
-0.15
-0.12
-0.11
0.19
0.91
1.98
3.17
4.22
5.06
5.80
6.67
7.84
9.33
10.93
12.38
13.43
14.01
14.18
14.03
13.68
13.14
12.38
11.37
10.15
8.90
7.86
7.26
7.19
7.51
7.91
7.99
7.45
6.32
4.82
3.37
2.32
1.76
1.59
1.52
1.31
0.86
0.22
-0.53
-1.26
-1.93
-2.52
-2.97
-3.21
-3.14
-2.69
-1.94
-1.06
-0.27
0.23
0.34
0.08
-0.48
-1.27
-2.26
-3.43
-4.72
-5.95
-6.91
-7.36
-7.18
-6.39
-5.14
-3.69
-2.32
-1.26
-0.62
-0.40
-0.49
-0.66
-0.70
-0.48
0.04
0.82
1.78
2.94
4.35
6.11
8.22
10.52
12.74
14.57
15.81
16.38
16.37
15.97
15.32
14.50
13.49
12.24
10.74
9.11
7.55
6.36
5.76
5.78
6.18
6.57
6.51
5.75
4.29
2.42
0.52
-1.07
-2.21
-2.95
-3.42
-3.76
-4.05
-4.34
-4.65
-5.05
-5.55
-6.10
-6.53
-6.64
-6.29
-5.45
-4.28
-3.02
-1.89
-1.06
-0.56
-0.36
-0.44
-0.82
-1.53
-2.58
-3.81
-4.96
-5.74
-5.93
-5.49
-4.56
-3.35
-2.09
-0.90
0.11
0.88
1.26
1.16
0.58
-0.36
-1.38
-2.21
-2.66
-2.63
-2.13
-1.14
0.44
2.67
5.51
8.68
11.71
14.08
15.42
15.68
15.11
14.11
13.10
12.28
11.66
11.16
10.64
10.04
9.41
8.80
8.24
7.67
6.92
5.80
4.18
2.09
-0.26
-2.56
-4.52
-5.95
-6.83
-7.28
-7.47
-7.53
-7.55
-7.55
-7.55
-7.54
-7.50
-7.31
-6.80
-5.78
-4.13
-1.93
0.57
2.91
4.65
5.47
5.29
4.28
2.74
0.96
-0.85
-2.62
-4.27
-5.69
-6.66
-6.96
-6.51
-5.36
-3.79
-2.12
-0.61
0.57
1.34
1.66
1.51
0.90
-0.05
-1.11
-2.03
-2.58
-2.71
-2.51
-2.12
-1.60
-0.88
0.21
1.79
3.78
5.95
7.93
9.43
10.31
10.65
10.59
10.24
9.63
8.72
7.44
5.81
3.97
2.11
0.44
-0.88
-1.76
-2.24
-2.40
-2.40
-2.36
-2.37
-2.49
-2.74
-3.16
-3.71
-4.33
-4.91
-5.28
-5.35
-5.04
-4.44
-3.66
-2.83
-2.06
-1.38
-0.76
-0.11
0.64
1.50
2.40
3.14
3.49
3.35
2.79
2.03
1.28
0.63
-0.02
-0.86
-2.04
-3.46
-4.80
-5.66
-5.74
-4.98
-3.58
-1.89
-0.22
1.25
2.51
3.61
4.59
5.39
5.90
5.97
5.58
4.90
4.16
3.60
3.25
2.95
2.47
1.71
0.81
0.12
0.03
0.70
1.97
3.39
4.46
4.84
4.43
3.36
1.86
0.15
-1.58
-3.17
-4.44
-5.28
-5.63
-5.58
-5.30
-5.02
-4.88
-4.91
-5.04
-5.13
-5.08
-4.88
-4.60
-4.35
-4.24
-4.32
-4.53
-4.73
-4.76
-4.53
-4.06
-3.52
-3.17
-3.19
-3.57
-3.97
-3.90
-2.91
-0.97
1.41
3.30
3.80
2.52
-0.04
-2.62
-3.74
-2.41
1.28
6.17
10.58
13.16
13.72
13.42
14.34
18.61
27.35
40.05
54.63
67.92
76.62
78.15
71.27
56.28
34.97
10.41
-13.25
-31.31
-39.28
-34.19
-15.93
12.23
44.58
75.40
101.45
123.08
143.04
163.43
183.00
196.39
196.55
178.68
143.37
96.71
47.42
2.61
-34.92
-66.36
-94.17
-119.03
-138.63
-149.05
-147.64
-135.29
-116.78
-98.91
-87.65
-85.76
-92.13
-102.89
-113.48
-120.60
-123.02
-121.42
-117.34
-112.12
-106.27
-99.56
-91.63
-82.50
-72.78
-63.44
-55.33
-48.77
-43.51
-38.86
-34.07
-28.63
-22.40
-15.59
-8.55
-1.59
5.18
11.85
18.56
25.26
31.54
36.67
39.90
40.81
39.54
36.79
33.50
30.46
28.02
26.11
24.39
22.61
20.67
18.73
16.98
15.55
14.45
13.61
13.04
12.79
12.94
13.44
14.08
14.50
14.39
13.59
12.22
10.67
9.42
8.91
9.31
10.53
12.21
13.90
15.16
15.72
15.58
14.95
14.25
13.92
14.38
15.82
18.17
21.03
23.82
25.99
27.32
28.11
29.02
30.89
34.24
39.08
44.87
50.89
56.61
61.93
67.18
72.79
78.93
85.18
90.58
93.90
94.05
90.37
82.84
72.13
59.49
46.63
35.41
27.47
23.72
24.03
27.10
30.84
33.15
32.79
29.83
25.56
21.77
19.74
19.58
20.32
20.48
19.04
16.06
12.65
10.41
10.44
12.69
15.88
18.09
17.76
14.42
8.94
3.06
-1.44
-3.54
-3.38
-1.96
-0.56
-0.23
-1.57
-4.84
-10.11
-17.23
-25.51
-33.76
-40.61
-45.22
-47.97
-50.27
-53.89
-59.82
-67.54
-75.11
-80.21
-81.74
-80.79
-80.98
-87.55
-105.58
-137.77
-182.83
-235.15
-286.26
-327.36
-351.99
-357.47
-344.58
-315.74
-273.12
-217.88
-151.20
-75.98
2.11
75.30
136.18
180.57
209.09
226.49
239.12
251.84
266.17
280.39
291.19
295.93
294.28
288.31
281.11
275.03
270.41
265.48
257.50
244.24
225.17
201.77
176.87
153.34
133.28
117.37
104.78
93.61
81.23
64.49
40.18
5.97
-38.17
-88.74
-138.80
-179.71
-204.24
-209.59
-198.55
-178.17
-156.45
-138.93
-126.97
-118.62
-111.02
-102.84
-95.16
-90.36
-90.14
-93.99
-99.09
-101.69
-98.98
-90.41
-77.78
-64.49
-53.79
-47.39
-45.01
-44.83
-44.70
-43.25
-40.48
-37.42
-35.15
-33.87
-32.61
-29.73
-24.02
-15.53
-5.70
3.34
9.78
12.86
12.97
11.13
8.28
4.83
0.78
-3.94
-8.98
-13.57
-16.89
-18.69
-19.56
-20.63
-22.80
-26.05
-29.25
-30.73
-29.17
-24.40
-17.54
-10.49
-5.00
-1.88
-0.75
-0.44
0.21
1.75
3.94
6.04
7.40
7.91
7.87
7.77
7.83
7.80
7.21
5.95
4.57
4.18
5.90
10.15
16.51
24.03
31.70
38.77
44.52
47.90
47.63
42.93
34.55
25.07
18.03
15.94
18.58
23.04
25.71
25.28
24.49
28.94
43.65
69.09
99.36
124.04
132.41
117.87
80.06
24.36
-40.42
-104.54
-159.33
-198.51
-219.12
-222.17
-212.50
-197.56
-185.25
-181.26
-187.18
-200.02
-213.49
-220.36
-215.15
-195.98
-165.25
-128.75
-93.89
-67.30
-52.81
-50.55
-57.44
-68.99
-80.83
-89.70
-93.76
-92.31
-85.47
-73.99
-59.21
-42.87
-27.07
-13.93
-5.01
-0.73
0.14
0.17
2.14
7.62
16.07
24.97
31.21
33.01
31.19
29.13
31.31
41.24
59.71
84.53
111.26
134.92
151.57
159.15
157.65
148.61
134.56
118.40
103.03
91.08
84.48
84.13
89.54
98.54
107.76
113.61
113.51
106.73
94.31
77.96
58.99
38.00
15.32
-7.89
-29.23
-45.74
-55.30
-57.87
-55.96
-53.57
-54.31
-59.39
-66.83
-72.51
-72.44
-65.08
-52.38
-38.99
-29.87
-27.89
-32.39
-39.59
-44.80
-44.89
-39.59
-31.11
-22.29
-14.72
-8.18
-1.50
6.04
13.80
20.19
23.92
24.79
23.84
22.72
22.71
24.04
26.10
27.94
28.73
27.96
25.29
20.52
13.79
5.90
-1.58
-6.58
-7.33
-3.23
4.78
14.50
23.40
29.68
32.90
33.95
34.31
35.07
36.37
37.42
37.06
34.64
30.42
25.48
21.07
17.91
15.86
14.17
12.15
9.60
6.91
4.81
3.80
3.85
4.47
4.99
4.92
4.20
3.06
1.88
1.04
0.74
1.15
2.36
4.45
7.42
11.09
15.11
19.11
22.82
26.25
29.63
33.43
38.16
44.21
51.76
60.62
70.24
79.76
88.32
95.35
100.89
105.60
110.50
116.38
123.34
130.74
137.53
143.01
147.26
151.27
156.36
163.46
172.53
182.54
191.99
199.54
204.40
206.34
205.43
201.81
195.54
186.56
174.49
158.49
137.24
109.11
72.93
28.59
-22.69
-78.56
-136.19
-192.78
-246.04
-294.36
-337.14
-375.25
-411.10
-447.75
-487.14
-528.07
-565.41
-591.28
-598.12
-581.90
-543.98
-490.25
-428.31
-364.29
-300.87
-237.41
-171.73
-102.23
-29.34
44.09
113.52
174.04
221.82
255.10
274.64
283.18
284.36
281.33
276.06
269.34
261.51
253.22
245.60
239.78
236.09
233.63
230.53
224.83
215.35
202.01
185.71
167.80
149.40
131.16
113.10
94.71
74.92
52.26
25.48
-5.68
-39.81
-73.97
-104.67
-129.73
-149.69
-167.95
-189.45
-218.58
-257.48
-305.36
-358.90
-413.09
-462.09
-499.90
-521.10
-521.87
-501.28
-461.71
-408.32
-347.40
-284.24
-221.73
-160.19
-98.53
-36.05
26.22
85.02
135.87
174.56
198.81
209.21
209.07
203.05
195.22
187.96
181.87
176.70
172.54
170.15
170.36
172.95
176.09
176.90
172.90
163.40
149.90
135.27
122.31
112.37
104.98
98.41
90.82
81.25
69.90
57.94
46.79
37.57
30.73
26.00
22.68
20.09
17.85
