1660325512.00
64.000000
-0.00
-0.00
-0.00
-0.00
-0.00
-0.00
-0.00
-0.00
-0.00
-0.00
0.00
0.01
0.01
-0.00
-0.03
-0.05
-0.05
0.00
0.13
0.36
0.66
1.01
1.37
1.72
2.06
2.40
2.79
3.24
3.80
4.42
5.06
5.66
6.20
6.68
7.15
7.68
8.31
9.14
10.09
11.04
11.88
12.56
13.14
13.76
14.65
15.96
17.91
20.32
22.90
25.38
27.58
29.57
31.68
34.32
37.81
42.54
48.15
54.10
59.83
64.97
69.58
74.14
79.34
85.71
93.76
103.00
112.62
121.73
129.77
136.75
143.30
150.75
157.77
166.64
177.95
191.79
206.97
220.57
228.25
225.36
208.53
176.87
132.76
80.05
23.07
-34.94
-92.44
-149.16
-205.23
-260.37
-313.74
-363.87
-409.83
-450.91
-486.50
-515.74
-537.23
-549.22
-549.96
-538.37
-514.21
-478.67
-433.88
-382.45
-327.02
-269.84
-212.63
-156.66
-102.95
-52.37
-5.90
35.58
71.43
101.35
125.50
144.38
158.69
169.15
176.37
180.75
182.57
182.07
179.51
175.23
169.65
163.18
156.15
148.81
141.30
133.69
126.02
118.33
110.69
103.16
95.80
88.68
81.83
75.25
68.95
62.95
57.25
51.86
46.78
42.03
37.59
33.45
29.61
26.07
22.81
19.83
17.11
14.67
12.48
10.54
8.83
7.35
6.07
4.97
4.05
3.27
2.62
2.09
1.65
1.30
1.01
0.79
0.61
0.48
0.37
0.29
0.24
0.20
0.18
0.18
0.18
0.19
0.21
0.23
0.27
0.31
0.36
0.42
0.46
0.48
0.48
0.45
0.40
0.36
0.34
0.35
0.38
0.44
0.49
0.53
0.57
0.60
0.65
0.74
0.88
1.05
1.23
1.39
1.51
1.59
1.66
1.77
1.97
2.29
2.69
3.10
3.43
3.62
3.67
3.67
3.73
3.98
4.46
5.12
5.80
6.32
6.54
6.48
6.28
6.16
6.34
6.91
7.78
8.67
9.25
9.21
8.45
7.04
5.15
2.95
0.48
-2.31
-5.61
-9.57
-14.38
-20.20
-27.14
-35.11
-43.46
-50.80
-55.23
-54.95
-49.14
-38.32
-24.30
-9.54
3.81
14.43
21.90
26.38
28.09
27.26
24.20
19.55
14.30
9.57
6.12
4.16
3.32
3.03
2.77
2.29
1.60
0.83
0.07
-0.62
-1.18
-1.60
-1.86
-2.01
-2.18
-2.60
-3.40
-4.58
-5.96
-7.22
-8.02
-8.01
-6.95
-4.64
-0.97
3.93
9.60
15.14
19.36
21.15
19.86
15.62
9.31
2.29
-4.02
-8.48
-10.57
-10.27
-8.04
-4.57
-0.64
3.04
5.67
6.68
5.96
3.88
1.17
-1.43
-3.44
-4.86
-6.17
-8.18
-11.67
-17.08
-24.34
-32.69
-40.70
-46.59
-48.58
-45.52
-37.31
-25.05
-10.87
2.65
13.21
19.35
20.73
17.99
12.40
5.47
-1.38
-7.10
-11.16
-13.58
-14.85
-15.69
-16.69
-18.09
-19.64
-20.86
-21.38
-21.22
-20.95
-21.51
-23.84
-28.42
-35.07
-42.91
-50.55
-56.49
-59.43
-58.58
-53.75
-45.32
-34.07
-20.94
-6.84
7.30
20.57
31.97
40.49
45.27
45.83
42.34
35.56
26.77
17.37
8.60
1.26
-4.36
-8.41
-11.36
-13.85
-16.53
-19.96
-24.45
-30.06
-36.60
-43.70
-50.87
-57.51
-62.82
-65.76
-65.16
-60.06
-50.10
-35.77
-18.43
0.19
18.49
35.40
50.47
63.56
74.46
82.66
87.54
88.69
86.26
81.07
74.37
67.48
61.35
56.38
52.39
48.84
45.08
40.58
35.08
28.55
21.13
12.94
4.09
-5.24
-14.56
-22.87
-28.79
-30.81
-27.98
-20.29
-8.88
4.32
17.24
28.28
36.67
42.36
45.73
47.13
46.83
45.01
41.96
38.06
33.86
29.82
26.23
23.18
20.58
18.29
16.10
13.82
11.29
8.34
4.87
0.71
-4.35
-10.60
-18.16
-26.71
-35.16
-41.73
-44.39
-41.57
-32.86
-19.29
-3.02
13.41
27.80
38.85
46.11
49.73
50.10
47.69
43.16
37.39
31.45
26.36
22.75
20.61
19.41
18.36
16.73
14.20
10.80
6.85
2.68
-1.49
-5.71
-10.21
-15.36
-21.55
-28.87
-36.89
-44.54
-50.22
-52.22
-49.28
-41.19
-28.84
-14.10
0.86
14.14
24.58
31.79
35.99
37.59
37.07
34.84
31.42
27.43
23.55
20.32
17.93
16.10
14.23
11.64
7.95
3.17
-2.25
-7.68
-12.60
-16.71
-20.15
-23.38
-26.95
-31.33
-36.59
-42.10
-46.60
-48.46
-46.27
-39.43
-28.52
-15.09
-1.15
11.51
21.77
29.25
34.03
36.38
36.55
34.86
31.81
28.15
24.73
22.22
20.78
20.07
19.36
17.90
15.24
11.38
6.69
1.72
-3.07
-7.53
-11.72
-15.90
-20.38
-25.38
-30.94
-36.76
-42.08
-45.72
-46.33
-42.79
-34.74
-22.87
-8.76
5.60
18.40
28.45
35.35
39.17
40.25
39.00
35.90
31.65
27.10
23.11
20.25
18.62
17.81
17.14
15.98
13.97
11.14
7.76
4.21
0.75
-2.54
-5.82
-9.37
-13.55
-18.56
-24.35
-30.43
-35.79
-39.12
-39.16
-35.19
-27.33
-16.63
-4.74
6.65
16.26
23.44
28.13
30.57
31.09
29.99
27.64
24.56
21.36
18.66
16.76
15.58
14.67
13.43
11.37
8.34
4.58
0.56
-3.18
-6.25
-8.58
-10.37
-12.02
-14.05
-16.90
-20.74
-25.37
-30.07
-33.77
-35.21
-33.48
-28.32
-20.30
-10.64
-0.79
8.01
15.04
20.03
22.97
23.88
22.76
19.71
15.16
9.89
4.89
0.96
-1.58
-3.03
-4.09
-5.44
-7.43
-9.93
-12.42
-14.39
-15.57
-16.08
-16.37
-16.97
-18.33
-20.66
-23.93
-27.86
-31.87
-35.10
-36.53
-35.13
-30.29
-22.09
-11.38
0.36
11.47
20.56
26.91
30.42
31.45
30.57
28.28
25.02
21.18
17.18
13.43
10.17
7.48
5.19
3.05
0.82
-1.61
-4.22
-6.99
-9.94
-13.16
-16.73
-20.66
-24.87
-29.24
-33.58
-37.59
-40.71
-42.17
-41.15
-37.13
-30.18
-21.05
-10.95
-1.15
7.40
14.21
19.16
22.30
23.73
23.54
22.00
19.63
17.19
15.51
15.29
16.79
19.72
23.25
26.30
27.86
27.42
25.12
21.65
17.87
14.36
11.17
7.82
3.67
-1.68
-8.11
-14.93
-21.07
-25.33
-26.70
-24.56
-18.84
-10.09
0.58
11.68
21.61
28.96
32.82
32.90
29.54
23.65
16.45
9.17
2.84
-1.88
-4.76
-5.91
-5.75
-4.86
-3.94
-3.69
-4.65
-7.04
-10.71
-15.20
-19.92
-24.42
-28.52
-32.21
-35.40
-37.72
-38.40
-36.55
-31.59
-23.69
-13.85
-3.61
5.43
12.19
16.34
18.20
18.39
17.42
15.53
12.75
9.14
4.96
0.65
-3.34
-6.74
-9.62
-12.21
-14.75
-17.24
-19.47
-21.05
-21.71
-21.44
-20.49
-19.28
-18.31
-17.98
-18.54
-19.95
-21.84
-23.47
-23.86
-22.11
-17.72
-10.89
-2.43
6.45
14.56
21.11
25.79
28.70
30.17
30.49
29.81
28.11
25.30
21.27
16.09
10.06
3.79
-2.01
-6.72
-10.01
-12.05
-13.41
-14.83
-16.94
-20.04
-24.13
-28.88
-33.84
-38.50
-42.19
-44.09
-43.35
-39.37
-32.14
-22.43
-11.70
-1.74
5.97
10.62
12.24
11.51
9.37
6.69
4.02
1.70
-0.19
-1.72
-3.07
-4.49
-6.22
-8.40
-10.98
-13.81
-16.81
-20.11
-24.02
-29.01
-35.44
-43.40
-52.50
-61.90
-70.29
-76.07
-77.65
-73.79
-64.09
-49.21
-30.97
-11.91
5.33
18.78
27.61
32.23
33.88
34.02
33.75
33.49
33.11
32.23
30.63
28.50
26.34
24.71
23.95
23.99
24.49
25.04
25.30
25.08
24.28
22.80
20.61
17.81
14.84
12.45
11.58
13.05
17.23
23.93
32.42
41.63
50.38
57.59
62.46
64.52
63.75
60.50
55.44
49.30
42.78
36.42
30.56
25.37
20.78
16.48
11.91
6.44
-0.39
-8.53
-17.31
-25.54
-31.92
-35.59
-36.51
-35.47
-33.69
-32.26
-31.58
-31.26
-30.45
-28.25
-24.15
-18.15
-10.63
-2.07
7.04
16.19
24.64
31.36
35.20
35.33
31.66
25.06
17.11
9.67
4.20
1.35
0.85
1.78
2.93
3.31
2.42
0.23
-2.90
-6.57
-10.48
-14.55
-18.89
-23.67
-28.87
-34.14
-38.72
-41.46
-41.14
-36.87
-28.47
-16.61
-2.78
11.20
23.59
33.14
39.25
41.92
41.61
39.10
35.28
31.08
27.26
24.34
22.49
21.57
21.29
21.29
21.24
20.84
19.86
18.20
15.93
13.32
10.72
8.36
6.21
3.85
0.66
-3.94
-10.24
-17.96
-26.27
-33.88
-39.25
-41.01
-38.25
-30.89
-19.78
-6.48
7.14
19.43
29.39
36.70
41.52
44.14
44.74
43.42
40.36
36.03
31.16
26.55
22.73
19.87
17.70
15.74
13.48
10.63
7.10
2.99
-1.51
-6.22
-10.96
-15.61
-20.05
-24.10
-27.47
-29.85
-31.05
-31.11
-30.54
-30.19
-30.91
-33.13
-36.46
-39.69
-41.18
-39.51
-34.05
-25.25
-14.42
-3.13
7.27
16.01
22.88
27.92
31.16
32.58
32.19
30.30
27.66
25.32
24.28
25.08
27.53
30.71
33.29
33.95
31.91
27.17
20.57
13.53
7.59
3.81
2.43
2.76
3.43
3.03
0.73
-3.38
-8.39
-13.11
-16.64
-18.66
-19.49
-19.65
-19.64
-19.82
-20.34
-21.16
-22.06
-22.44
-21.15
-16.60
-7.24
7.54
26.41
45.75
60.37
65.48
58.86
42.32
21.60
4.36
-2.64
3.95
23.28
50.88
81.09
109.12
132.16
149.18
160.26
165.90
166.80
164.03
158.96
153.71
150.77
152.02
157.63
165.41
171.29
170.85
161.03
140.64
111.47
77.82
45.02
17.82
-0.64
-8.85
-6.88
3.84
18.70
33.00
43.77
50.32
53.19
52.86
49.32
42.28
31.47
13.19
-14.08
-47.79
-82.36
-112.75
-136.90
-155.41
-170.14
-182.90
-201.21
-229.82
-267.72
-308.97
-347.62
-380.94
-409.06
-433.25
-454.83
-482.77
-522.86
-573.52
-626.71
-674.22
-712.01
-739.68
-758.60
-718.68
-595.38
-405.11
-196.16
-11.38
131.68
234.31
305.26
353.79
387.38
403.32
399.97
381.50
357.41
336.54
322.67
315.69
313.52
313.87
308.85
293.55
269.10
241.56
216.83
196.65
179.96
164.53
148.56
127.52
99.50
66.67
34.00
8.14
-10.30
-22.79
-31.51
-38.30
-46.40
-57.81
-72.20
-86.56
-96.38
-97.42
-86.32
-62.47
-28.97
7.33
38.87
60.55
71.57
74.89
74.58
73.84
73.21
70.87
64.33
52.62
37.19
21.46
9.03
1.71
-0.85
-0.90
-1.23
-3.60
-7.90
-12.52
-15.52
-15.85
-14.13
-12.09
-11.73
-14.04
-18.77
-24.45
-29.29
-31.91
-31.98
-30.21
-27.98
-27.04
-28.33
-32.17
-38.07
-44.96
-51.46
-56.24
-58.00
-55.56
-47.94
-34.72
-16.81
3.84
23.91
39.61
48.17
48.89
43.44
35.11
27.37
22.49
21.06
22.17
24.35
26.39
27.62
27.87
26.96
24.64
20.65
15.12
8.79
2.98
-0.72
-1.04
2.37
8.74
16.33
22.73
25.67
23.70
16.83
6.75
-3.63
-11.04
-12.91
-8.29
1.83
14.83
27.30
35.93
38.22
33.00
20.77
3.93
-13.41
-26.17
-29.69
-21.30
-1.46
26.03
55.09
79.14
93.13
94.77
84.77
66.19
43.33
20.63
1.88
-10.38
-15.29
-13.76
-8.32
-2.47
0.31
-2.46
-11.34
-24.91
-40.59
-55.84
-68.85
-78.59
-84.33
-85.20
-80.39
-69.78
-54.58
-37.38
-21.28
-8.97
-2.24
-2.37
-10.84
-29.46
-59.22
-98.62
-142.41
-181.99
-207.82
-212.92
-195.54
-159.92
-114.57
-69.28
-32.27
-8.46
0.68
-3.72
-18.90
-41.32
-67.13
-92.58
-114.46
-130.46
-139.49
-141.49
-137.12
-127.30
-113.01
-95.40
-75.83
-55.67
-35.75
-15.75
5.95
31.57
62.51
97.91
133.95
164.47
182.91
184.66
168.88
138.99
101.67
64.86
35.56
18.21
13.95
20.90
35.06
51.53
65.59
73.56
73.08
63.28
44.64
19.16
-9.88
-38.18
-61.26
-75.48
-79.03
-72.41
-58.17
-40.21
-22.82
-9.68
-2.93
-2.55
-6.14
-9.70
-9.33
-3.21
7.01
16.50
19.41
11.88
-5.72
-28.66
-49.92
-63.19
-65.24
-56.48
-39.81
-18.95
2.83
22.83
38.60
47.77
48.38
39.78
23.33
2.41
-18.34
-34.30
-42.11
-40.48
-30.15
-13.46
6.60
27.21
46.30
62.62
75.55
84.87
90.66
93.48
94.60
95.84
99.13
105.62
114.72
123.73
128.26
123.58
106.37
76.32
36.87
-5.40
-42.45
-67.16
-75.47
-67.51
-47.53
-22.48
0.07
14.03
16.37
7.68
-8.33
-26.10
-40.00
-45.86
-42.04
-29.58
-11.56
7.95
25.15
37.29
42.95
42.00
35.36
24.90
13.31
3.76
-0.80
1.37
9.85
21.67
31.96
35.41
28.30
10.02
-16.44
-45.26
-69.67
-84.07
-85.56
-74.69
-54.92
-31.42
-9.55
6.51
14.49
14.29
7.58
-2.67
-12.95
-19.82
-20.69
-14.17
-0.48
18.78
41.00
63.27
83.10
98.75
109.37
114.79
115.35
111.81
105.39
97.86
91.26
87.51
87.82
92.06
98.41
103.49
103.03
93.12
71.63
39.45
0.94
-36.81
-65.91
-80.21
-77.48
-60.29
-35.09
-9.95
8.15
15.39
11.74
0.35
-13.90
-26.03
-32.11
-29.96
-19.32
-1.78
19.61
40.98
58.53
69.63
73.39
70.89
64.55
57.29
51.48
48.29
47.55
48.03
48.11
46.45
42.35
35.88
27.41
17.25
5.40
-8.28
-23.47
-38.96
-52.48
-61.32
-63.19
-57.22
-44.24
-26.57
-7.33
10.32
23.64
30.59
30.07
22.23
8.77
-7.11
-21.36
-30.14
-31.04
-23.77
-10.13
6.68
23.12
36.17
43.83
45.25
40.62
31.26
19.52
8.72
2.50
3.88
14.03
31.53
52.30
70.57
80.55
78.41
63.56
39.06
10.77
-14.35
-30.34
-33.91
-25.28
-7.85
13.04
31.86
44.29
47.97
42.34
28.18
7.12
-18.38
-44.95
-68.46
-84.77
-90.92
-86.28
-72.93
-54.96
-37.02
-22.79
-14.11
-10.91
-11.88
-15.02
-18.07
-18.67
-14.63
-4.55
11.29
30.37
48.10
59.18
59.55
48.12
27.41
2.84
-19.25
-33.63
-37.73
-31.98
-19.11
-2.90
12.89
25.25
32.17
32.62
26.45
14.40
-2.07
-20.93
-39.87
-56.68
-69.40
-76.49
-77.02
-70.86
-58.87
-42.91
-25.60
-9.55
3.52
13.59
22.52
33.32
48.89
70.49
96.70
123.47
145.12
156.17
153.08
135.51
106.44
71.47
37.29
10.10
-5.90
-9.34
-1.78
12.93
29.83
44.20
52.67
53.77
47.91
36.88
23.09
8.88
-4.05
-15.02
-24.49
-33.77
-44.41
-57.31
-72.03
-86.67
-98.49
-104.99
-104.96
-98.86
-88.46
-75.93
-63.07
-50.99
-40.55
-32.76
-28.83
-29.53
-34.28
-40.74
-45.35
-44.90
-38.18
-26.77
-14.48
-5.42
-1.92
-3.26
-6.15
-6.52
-1.75
7.97
19.69
29.29
33.50
31.38
24.49
15.89
8.48
3.66
0.95
-1.34
-4.84
-10.01
-15.88
-20.52
-22.12
-19.88
-14.26
-6.55
1.83
10.00
17.69
25.03
32.07
38.72
44.92
51.00
57.72
65.96
75.80
85.81
92.88
92.95
82.59
60.70
29.48
-5.64
-37.51
-59.35
-66.83
-59.37
-40.03
-14.40
11.17
31.31
42.69
44.32
37.26
23.99
7.64
-8.75
-22.78
-33.26
-40.32
-45.16
-49.48
-54.66
-61.14
-68.26
-74.54
-78.32
-78.34
-74.08
-65.82
-54.43
-41.05
-26.86
-12.83
0.29
12.03
21.94
29.31
32.99
31.53
23.82
9.85
-8.70
-28.46
-45.18
-54.98
-55.60
-47.10
-31.65
-12.61
6.62
23.48
36.49
45.01
48.79
47.66
41.73
31.68
18.96
5.52
-6.69
-16.36
-23.21
-27.68
-30.42
-31.62
-30.94
-27.79
-21.84
-13.17
-2.14
10.94
25.95
42.36
58.55
71.41
77.01
72.25
56.62
33.12
7.77
-12.48
-22.07
-18.73
-3.81
18.60
43.33
65.66
82.17
91.04
91.83
85.19
72.61
56.19
38.29
21.16
6.31
-5.80
-16.04
-26.17
-38.13
-52.97
-70.22
-87.96
-103.53
-114.59
-119.91
-119.38
-113.63
-103.41
-89.40
-72.47
-54.23
-37.21
-24.60
-19.37
-23.10
-35.29
-53.20
-72.58
-88.66
-97.37
-96.11
-84.33
-63.51
-36.78
-8.21
18.09
38.79
52.00
57.35
55.82
49.16
39.34
28.11
16.92
6.88
-1.21
-6.89
-10.23
-11.77
-12.33
-12.78
-13.60
-14.74
-15.57
-14.94
-11.39
-3.50
9.78
28.57
51.59
75.92
97.32
111.13
113.64
103.31
81.52
52.42
22.03
-3.39
-18.87
-21.95
-13.10
4.62
26.57
47.70
63.70
71.73
70.74
61.42
45.83
26.84
7.54
-9.55
-23.00
-32.76
-39.98
-46.36
-53.16
-60.57
-67.65
-72.97
-75.55
-75.45
-73.70
-71.52
-69.32
-66.31
-60.73
-50.95
-36.59
-19.17
-2.01
10.81
15.93
11.92
-0.11
-16.84
-33.67
-46.08
-50.81
-46.54
-33.97
-15.36
6.22
27.56
45.77
58.56
64.42
62.80
54.29
40.55
24.14
7.86
-5.87
-15.57
-20.93
-22.68
-22.11
-20.49
-18.75
-17.39
-16.48
-15.67
-14.03
-10.07
-1.87
12.10
32.10
56.21
80.37
99.25
108.01
103.98
87.75
63.10
35.83
12.08
-3.40
-8.25
-2.78
10.62
28.32
46.56
62.20
73.12
78.26
77.54
71.62
61.77
49.60
36.70
24.16
12.26
0.41
-12.43
-27.05
-43.46
-60.85
-77.99
-93.88
-108.11
-120.67
-131.43
-139.60
-143.67
-141.99
-133.67
-119.48
-102.04
-85.25
-73.07
-68.14
-70.78
-78.73
-87.81
-93.10
-90.39
-77.50
-54.87
-25.47
6.19
35.37
58.44
73.65
81.12
82.24
78.81
72.49
64.61
56.34
48.84
43.11
39.66
38.18
37.56
36.40
33.48
28.26
21.02
12.61
4.29
-2.37
-5.57
-3.48
5.14
20.14
39.31
58.45
72.36
76.48
68.54
49.57
23.66
-3.21
-24.95
-37.07
-37.64
-27.52
-9.66
11.93
33.28
51.23
63.77
70.06
70.24
65.28
56.81
46.84
37.32
29.67
24.27
20.39
16.60
11.44
4.09
-5.52
-17.02
-30.10
-44.76
-61.20
-79.19
-97.66
-114.47
-126.90
-132.69
-131.07
-123.43
-112.96
-103.45
-97.65
-95.91
-95.89
-93.42
-84.37
-66.41
-40.12
-8.72
23.12
50.97
71.84
84.62
89.66
88.14
81.40
70.67
57.20
42.38
27.84
15.28
6.09
0.87
-0.66
0.43
2.68
4.71
5.58
4.92
3.10
1.14
0.67
3.61
11.59
25.20
43.25
62.62
78.76
87.01
84.17
69.63
45.79
17.38
-9.84
-30.59
-41.27
-40.55
-29.40
-10.62
11.95
34.25
52.77
65.09
70.20
68.46
61.31
50.79
38.96
27.45
17.06
7.78
-1.09
-10.46
-20.94
-32.43
-44.22
-55.31
-64.94
-72.93
-79.56
-85.18
-89.60
-91.77
-90.03
-82.67
-68.84
-49.30
-26.71
-5.18
10.87
18.12
15.46
4.38
-11.46
-27.28
-38.42
-41.40
-34.50
-18.02
6.00
34.18
62.47
86.94
104.53
113.68
114.42
108.21
97.23
83.76
69.65
56.02
43.25
31.07
18.88
6.18
-7.02
-20.08
-31.82
-40.81
-45.85
-46.23
-41.82
-32.97
-20.20
-3.98
15.27
36.95
59.81
81.48
98.27
105.67
99.48
77.42
40.48
-6.55
-55.87
-98.49
-126.74
-136.31
-127.19
-103.28
-70.89
-36.80
-6.62
16.06
29.82
34.99
33.03
25.99
16.05
5.21
-5.04
-13.96
-21.60
-28.71
-36.31
-45.08
-55.02
-65.25
-74.28
-80.54
-82.83
-80.57
-73.72
-62.59
-47.64
-29.54
-9.38
10.92
28.64
40.58
43.92
37.21
21.09
-1.50
-25.80
-46.34
-58.30
-58.77
-47.53
-27.02
-1.67
23.31
43.21
54.83
57.12
51.07
39.33
25.34
12.27
2.21
-4.33
-8.25
-11.20
-14.67
-19.29
-24.54
-29.09
-31.43
-30.37
-25.49
-17.13
-6.22
5.94
17.96
28.57
36.95
42.98
47.35
51.36
56.38
63.08
70.80
77.29
79.34
73.88
59.41
37.01
10.48
-14.60
-32.54
-39.26
-33.51
-16.98
6.38
31.69
54.30
70.68
78.74
77.73
68.00
50.82
28.24
2.96
-21.88
-43.14
-58.31
-65.98
-66.22
-60.41
-50.85
-40.14
-30.54
-23.58
-19.91
-19.39
-21.42
-25.15
-29.65
-33.84
-36.51
-36.34
-32.19
-23.55
-10.86
4.27
19.42
31.91
39.61
41.45
37.67
29.57
18.94
7.55
-3.23
-12.57
-20.12
-25.90
-30.19
-33.44
-36.31
-39.48
-43.48
-48.23
-52.74
-55.18
-53.30
-45.27
-30.43
-9.75
14.29
38.44
59.69
75.98
86.45
91.23
90.80
85.76
76.75
64.78
51.49
39.11
30.02
26.00
27.72
34.57
45.05
57.14
68.66
77.42
81.63
79.93
71.59
56.64
35.93
11.31
-14.52
-38.50
-57.47
-68.46
-69.40
-59.93
-42.06
-20.00
1.08
16.48
22.94
19.31
6.58
-12.76
-35.71
-59.63
-82.53
-102.88
-116.86
-120.50
-111.96
-93.01
-68.16
-42.22
-18.46
1.66
18.19
31.91
43.48
52.88
60.07
65.34
69.22
72.28
74.94
77.51
80.18
82.76
84.11
83.45
80.60
75.84
69.60
62.16
53.92
45.43
37.36
29.22
21.19
13.92
8.11
4.12
1.73
0.32
-0.78
-2.08
-5.30
-11.18
-19.79
-31.11
-45.51
-63.96
-87.82
-118.54
-146.54
-167.74
-180.38
-184.66
-182.09
-174.74
-164.89
-154.51
-145.22
-138.13
-135.27
-136.78
-140.60
-142.59
-137.76
-122.20
-95.04
-59.30
-21.00
11.72
33.13
41.42
38.65
29.20
17.83
8.21
2.47
1.49
4.33
9.80
16.55
23.22
28.79
32.73
34.94
35.33
34.66
33.31
31.79
30.82
31.03
32.61
35.11
37.54
38.88
38.60
36.88
34.55
32.55
31.40
30.77
29.81
27.56
23.59
18.28
12.77
8.32
5.72
4.85
4.74
3.96
1.25
-3.79
-10.40
-16.45
-19.32
-16.78
-7.76
7.17
26.01
45.98
64.44
77.73
83.68
81.64
72.33
57.60
39.89
21.72
5.23
-8.21
-18.21
-24.89
-28.83
-30.64
-30.78
-29.50
-27.04
-23.73
-20.10
-16.77
-14.23
-12.96
-13.55
-16.60
-22.47
-30.90
-40.84
-50.52
-58.04
-61.88
-61.52
-57.65
-51.88
-46.21
-42.47
-41.82
-44.38
-49.08
-53.72
-55.65
-52.58
-43.38
-28.57
-10.14
9.15
26.56
40.15
49.00
53.16
53.37
50.87
47.20
43.92
42.30
42.85
45.15
47.81
49.00
47.05
41.04
31.08
18.26
4.29
-8.83
-19.16
-25.08
-25.57
-20.62
-11.62
-1.31
6.68
9.06
4.43
-5.68
-16.81
-22.80
-17.95
0.78
32.35
71.35
109.19
136.28
144.79
131.16
97.54
51.50
3.94
-34.18
-55.11
-56.26
-40.21
-12.95
18.51
48.05
71.24
85.26
88.61
81.13
64.34
41.49
17.02
-4.68
-20.68
-30.32
-35.17
-38.07
-42.01
-49.20
-60.84
-77.10
-97.31
-119.87
-142.09
-160.32
-170.56
-169.49
-155.58
-129.66
-94.75
-55.33
-16.61
16.08
37.51
43.34
31.27
2.56
-37.08
-78.06
-109.24
-121.37
-110.12
-77.44
-30.53
20.85
67.53
103.23
125.25
133.74
130.53
118.01
98.65
75.08
50.13
26.65
6.85
-8.34
-19.54
-28.21
-35.61
-41.60
-44.43
-41.52
-30.99
-12.99
10.11
34.74
57.82
78.25
97.17
116.95
139.32
163.65
186.21
200.87
201.02
182.29
144.78
93.97
39.64
-7.02
-37.24
-47.54
-40.59
-23.58
-4.84
9.30
16.13
16.03
10.64
1.04
-12.61
-30.37
-51.17
-72.37
-90.46
-102.66
-108.01
-107.30
-102.17
-93.95
-83.18
-70.21
-55.83
-41.53
-28.88
-18.55
-9.89
-1.50
7.48
16.23
22.03
21.36
11.43
-8.38
-36.02
-67.14
-96.18
-117.57
-127.06
-122.74
-105.61
-79.32
-49.01
-19.77
4.69
22.53
33.34
37.18
33.97
23.65
6.95
-13.88
-35.03
-51.94
-60.79
-59.71
-49.23
-31.71
-10.22
12.56
34.98
56.32
76.36
95.01
112.11
127.72
142.24
156.30
170.23
183.22
192.81
195.13
186.09
163.01
126.08
78.90
27.92
-19.28
-55.99
-78.09
-84.85
-78.71
-64.25
-46.86
-31.58
-22.21
-20.92
-28.07
-42.15
-60.03
-77.48
-90.08
-94.42
-89.10
-75.20
-55.70
-34.25
-13.76
4.33
19.86
33.14
43.87
50.93
52.69
48.10
37.52
22.86
6.90
-8.02
-21.11
-33.52
-47.75
-66.28
-89.94
-116.86
-142.46
-160.72
-166.21
-156.12
-131.42
-96.48
-57.64
-21.13
8.46
28.79
39.41
41.11
35.45
24.65
11.70
0.07
-6.91
-7.01
0.26
13.71
31.09
50.09
68.98
86.76
102.83
116.81
128.35
137.36
144.32
150.26
156.50
163.97
172.70
181.42
187.67
188.32
180.47
162.28
133.72
96.90
55.84
15.67
-18.52
-42.93
-55.98
-58.64
-53.98
-46.22
-39.58
-37.32
-41.14
-51.06
-65.48
-81.44
-95.06
-102.34
-100.24
-87.79
-66.63
-40.71
-14.96
6.36
21.01
29.12
32.45
33.15
32.66
31.32
28.85
25.10
20.49
15.87
11.75
7.54
1.25
-9.90
-28.26
-54.44
-86.47
-119.94
-149.14
-168.66
-175.01
-167.49
-148.18
-121.10
-90.90
-61.74
-36.55
-17.06
-3.98
2.69
3.64
0.46
-4.33
-7.58
-6.39
0.95
14.33
31.99
51.35
70.14
87.04
101.86
115.00
126.94
138.00
148.46
158.84
169.89
182.04
194.67
205.70
211.75
209.11
195.08
169.07
133.02
91.01
48.19
9.61
-20.89
-41.13
-50.71
-50.65
-42.94
-30.14
-14.98
-0.27
11.35
17.67
17.19
9.54
-4.35
-22.38
-41.64
-59.10
-72.25
-79.47
-80.24
-74.89
-64.41
-50.30
-34.51
-19.37
-7.40
-0.81
-0.80
-6.99
-17.36
-28.79
-38.19
-43.83
-46.22
-48.08
-53.37
-65.58
-86.03
-112.88
-141.18
-164.19
-175.29
-170.06
-147.67
-111.07
-66.21
-20.34
19.83
49.53
66.56
71.27
65.92
53.80
38.45
22.93
9.44
-0.91
-7.91
-11.90
-13.17
-11.53
-6.27
3.48
18.09
36.85
58.03
79.44
99.43
117.58
134.67
151.95
169.95
187.60
202.13
209.82
207.21
192.15
164.35
125.45
78.73
28.84
-18.79
-58.57
-85.88
-98.14
-95.56
-81.11
-59.67
-36.65
-16.68
-2.74
4.08
4.19
-1.01
-9.70
-20.17
-31.10
-41.67
-51.19
-58.74
-62.96
-62.27
-55.63
-43.45
-28.04
-13.23
-3.27
-1.39
-8.63
-23.65
-43.31
-63.93
-82.51
-97.54
-109.21
-119.01
-128.82
-139.95
-152.32
-164.02
-171.63
-171.10
-159.27
-135.12
-100.47
-59.67
-18.34
18.15
46.07
63.73
71.37
70.27
62.20
49.09
33.05
16.47
1.81
-8.81
-14.21
-14.32
-9.97
-2.30
7.86
20.25
34.97
52.08
71.09
90.82
109.42
124.89
135.58
140.78
141.00
138.00
134.18
131.70
131.35
131.80
129.68
120.52
100.42
67.84
24.69
-23.70
-69.91
-106.50
-128.22
-133.33
-123.83
-104.58
-81.74
-61.14
-46.97
-41.15
-43.14
-50.35
-58.97
-64.96
-65.24
-58.55
-45.84
-29.89
-14.34
-2.43
3.96
4.74
1.22
-4.64
-11.03
-16.79
-21.49
-25.19
-28.07
-30.21
-31.64
-32.55
-33.49
-35.47
-39.86
-47.95
-60.41
-76.76
-95.08
-112.06
-123.60
-125.75
-115.97
-94.02
-62.30
-25.33
11.46
43.29
67.17
82.51
90.68
94.09
95.23
96.00
97.56
100.52
105.11
111.21
118.09
124.33
127.97
127.03
120.28
107.72
90.82
72.14
54.56
40.48
