1660754844.00
64.000000
-0.00
-0.00
-0.00
-0.00
-0.00
-0.00
-0.00
-0.00
-0.00
-0.00
0.00
0.01
0.01
-0.00
-0.03
-0.05
-0.05
0.00
0.13
0.36
0.66
1.01
1.37
1.72
2.06
2.40
2.79
3.24
3.80
4.42
5.06
5.66
6.20
6.68
7.15
7.68
8.31
9.14
10.09
11.04
11.88
12.56
13.14
13.76
14.65
15.96
17.91
20.32
22.90
25.38
27.58
29.57
31.68
34.32
37.81
42.54
48.15
54.10
59.83
64.97
69.58
74.14
79.34
85.71
93.76
103.00
112.62
121.73
129.77
136.75
143.30
150.75
157.77
166.64
177.95
191.79
206.97
220.57
228.25
225.36
208.53
176.87
132.76
80.05
23.07
-34.94
-92.44
-149.16
-205.23
-260.37
-313.74
-363.87
-409.83
-450.91
-486.50
-515.74
-537.23
-549.22
-549.96
-538.37
-514.21
-478.67
-433.88
-382.45
-327.02
-269.84
-212.63
-156.66
-102.95
-52.37
-5.90
35.58
71.43
101.35
125.50
144.38
158.69
169.15
176.37
180.75
182.57
182.07
179.51
175.23
169.65
163.18
156.15
148.81
141.30
133.69
126.02
118.33
110.69
103.16
95.80
88.68
81.83
75.25
68.95
62.95
57.25
51.86
46.78
42.03
37.59
33.45
29.61
26.07
22.81
19.83
17.11
14.67
12.48
10.54
8.83
7.34
6.06
4.98
4.07
3.30
2.65
2.09
1.60
1.17
0.80
0.50
0.28
0.13
0.03
-0.05
-0.12
-0.22
-0.33
-0.44
-0.52
-0.55
-0.54
-0.49
-0.46
-0.48
-0.59
-0.76
-0.95
-1.09
-1.13
-1.07
-0.96
-0.90
-0.99
-1.31
-1.81
-2.37
-2.81
-3.01
-2.94
-2.73
-2.59
-2.76
-3.37
-4.36
-5.48
-6.39
-6.82
-6.73
-6.32
-5.99
-6.13
-6.97
-8.40
-10.05
-11.40
-12.10
-12.05
-11.47
-10.79
-10.45
-10.80
-12.06
-14.31
-17.34
-20.41
-22.20
-21.06
-15.69
-5.89
7.09
20.89
32.87
41.25
45.64
46.93
46.61
45.83
44.95
43.64
41.40
38.05
33.89
29.60
25.49
21.60
17.64
13.21
8.12
2.58
-2.85
-7.51
-10.89
-12.90
-13.75
-13.91
-13.89
-13.98
-14.24
-14.56
-14.76
-14.71
-14.38
-13.77
-12.88
-11.71
-10.21
-8.41
-6.39
-4.34
-2.60
-1.42
-0.92
-1.01
-1.44
-1.90
-2.21
-2.34
-2.43
-2.60
-2.95
-3.34
-3.59
-3.54
-3.21
-2.78
-2.44
-2.32
-2.33
-2.33
-2.14
-1.75
-1.34
-1.13
-1.30
-1.85
-2.60
-3.34
-3.85
-4.06
-3.97
-3.68
-3.35
-3.19
-3.34
-3.86
-4.67
-5.55
-6.22
-6.46
-6.24
-5.74
-5.22
-4.95
-5.09
-5.70
-6.70
-7.90
-8.99
-9.60
-9.29
-7.81
-5.15
-1.68
1.95
5.04
7.07
7.90
7.79
7.22
6.65
6.35
6.28
6.26
6.10
5.71
5.16
4.62
4.24
4.02
3.91
3.79
3.62
3.46
3.36
3.38
3.47
3.50
3.35
2.93
2.25
1.41
0.53
-0.26
-0.89
-1.38
-1.82
-2.28
-2.81
-3.38
-3.94
-4.44
-4.91
-5.39
-5.97
-6.68
-7.51
-8.37
-9.10
-9.48
-9.27
-8.27
-6.39
-3.75
-0.70
2.27
4.67
6.17
6.72
6.62
6.30
6.17
6.42
6.94
7.45
7.63
7.32
6.65
5.90
5.39
5.29
5.53
5.87
6.07
5.95
5.54
4.94
4.28
3.58
2.75
1.73
0.54
-0.62
-1.51
-1.95
-1.99
-1.90
-2.08
-2.76
-3.97
-5.40
-6.64
-7.37
-7.50
-7.25
-6.97
-6.99
-7.40
-8.05
-8.59
-8.65
-7.93
-6.42
-4.30
-1.91
0.42
2.43
4.00
5.12
5.88
6.33
6.54
6.55
6.38
6.11
5.80
5.54
5.37
5.26
5.14
4.93
4.60
4.20
3.83
3.58
3.43
3.28
2.95
2.38
1.61
0.80
0.14
-0.28
-0.53
-0.77
-1.16
-1.74
-2.40
-2.95
-3.18
-3.00
-2.48
-1.83
-1.32
-1.20
-1.60
-2.49
-3.73
-4.99
-5.93
-6.21
-5.60
-4.10
-1.86
0.73
3.25
5.33
6.77
7.52
7.62
7.18
6.34
5.23
4.00
2.82
1.86
1.22
0.88
0.78
0.76
0.67
0.38
-0.15
-0.86
-1.61
-2.23
-2.58
-2.57
-2.27
-1.81
-1.37
-1.11
-1.11
-1.34
-1.71
-2.08
-2.34
-2.50
-2.63
-2.88
-3.40
-4.29
-5.54
-7.02
-8.46
-9.53
-9.89
-9.29
-7.72
-5.37
-2.69
-0.17
1.82
3.15
3.90
4.32
4.62
4.87
5.05
5.05
4.83
4.47
4.10
3.90
3.97
4.24
4.59
4.85
4.91
4.75
4.47
4.17
3.87
3.45
2.73
1.59
0.11
-1.46
-2.71
-3.36
-3.31
-2.79
-2.21
-2.01
-2.47
-3.63
-5.29
-7.12
-8.75
-9.86
-10.22
-9.62
-8.06
-5.66
-2.77
0.11
2.49
4.03
4.65
4.52
4.02
3.54
3.34
3.49
3.89
4.32
4.63
4.74
4.67
4.49
4.29
4.10
3.88
3.59
3.19
2.67
2.08
1.52
1.00
0.51
-0.02
-0.67
-1.46
-2.32
-3.08
-3.63
-3.96
-4.24
-4.72
-5.61
-6.88
-8.19
-9.05
-9.01
-7.85
-5.76
-3.19
-0.68
1.36
2.80
3.69
4.19
4.45
4.56
4.55
4.43
4.25
4.01
3.76
3.52
3.33
3.24
3.28
3.42
3.58
3.64
3.49
3.11
2.60
2.09
1.71
1.50
1.32
1.03
0.47
-0.42
-1.58
-2.87
-4.14
-5.31
-6.37
-7.35
-8.23
-8.86
-9.02
-8.45
-7.02
-4.83
-2.19
0.47
2.71
4.29
5.17
5.49
5.46
5.32
5.16
5.01
4.82
4.52
4.07
3.52
2.99
2.58
2.29
1.94
1.30
0.19
-1.36
-3.02
-4.32
-4.89
-4.63
-3.80
-2.86
-2.21
-2.03
-2.25
-2.65
-3.03
-3.37
-3.71
-4.12
-4.61
-5.04
-5.25
-5.08
-4.48
-3.52
-2.39
-1.30
-0.38
0.37
1.07
1.94
3.05
4.34
5.54
6.40
6.71
6.54
6.11
5.67
5.39
5.26
5.12
4.83
4.28
3.57
2.82
2.16
1.61
1.09
0.49
-0.27
-1.10
-1.87
-2.41
-2.58
-2.41
-2.04
-1.74
-1.79
-2.42
-3.68
-5.39
-7.17
-8.53
-9.09
-8.66
-7.34
-5.44
-3.35
-1.35
0.40
1.87
3.10
4.11
4.92
5.53
5.97
6.30
6.55
6.75
6.91
7.02
7.10
7.12
7.10
7.04
6.96
6.86
6.73
6.47
5.98
5.21
4.24
3.20
2.25
1.47
0.83
0.21
-0.51
-1.34
-2.22
-3.01
-3.66
-4.15
-4.54
-4.86
-5.09
-5.26
-5.42
-5.69
-6.18
-6.86
-7.49
-7.70
-7.14
-5.73
-3.72
-1.58
0.18
1.28
1.78
1.97
2.15
2.49
2.99
3.49
3.87
4.14
4.38
4.75
5.34
6.08
6.84
7.39
7.58
7.37
6.80
6.00
5.10
4.18
3.28
2.41
1.62
0.92
0.36
-0.09
-0.47
-0.86
-1.27
-1.66
-1.93
-2.01
-1.94
-1.82
-1.82
-2.05
-2.59
-3.42
-4.44
-5.52
-6.44
-6.93
-6.76
-5.81
-4.17
-2.07
0.10
2.00
3.41
4.26
4.61
4.54
4.20
3.72
3.27
3.07
3.25
3.86
4.80
5.90
6.95
7.82
8.44
8.78
8.83
8.55
7.90
6.89
5.60
4.17
2.75
1.41
0.15
-1.02
-2.07
-2.91
-3.42
-3.56
-3.38
-3.04
-2.73
-2.59
-2.66
-2.93
-3.33
-3.78
-4.20
-4.46
-4.36
-3.62
-1.96
0.71
4.15
7.71
10.52
11.76
11.05
8.57
5.04
1.38
-1.60
-3.47
-4.20
-4.09
-3.57
-3.18
-3.46
-4.96
-8.04
-12.65
-18.20
-23.71
-28.03
-30.31
-30.30
-28.36
-25.29
-21.98
-19.02
-16.60
-14.51
-12.34
-9.78
-6.73
-3.33
0.17
3.52
6.54
9.07
10.92
11.95
12.07
11.41
10.34
9.36
8.91
9.22
10.17
11.44
12.64
13.49
13.95
14.12
14.19
14.26
14.34
14.32
14.06
13.45
12.45
11.09
9.39
7.44
5.31
3.17
1.21
-0.43
-1.68
-2.56
-3.15
-3.50
-3.59
-3.37
-2.84
-2.07
-1.20
-0.39
0.24
0.60
0.65
0.31
-0.48
-1.70
-3.22
-4.73
-5.84
-6.22
-5.69
-4.34
-2.47
-0.50
1.20
2.41
3.13
3.58
3.97
4.47
5.08
5.67
6.06
6.16
5.99
5.68
5.38
5.22
5.23
5.35
5.49
5.54
5.45
5.22
4.89
4.54
4.20
3.92
3.75
3.77
4.05
4.64
5.46
6.34
7.03
7.28
7.02
6.32
5.48
4.81
4.61
4.94
5.67
6.49
7.03
7.08
6.60
5.79
4.91
4.19
3.68
3.27
2.79
2.10
1.24
0.36
-0.41
-1.00
-1.52
-2.12
-2.93
-3.96
-5.05
-6.02
-6.75
-7.27
-7.74
-8.34
-9.18
-10.27
-11.48
-12.69
-13.82
-14.86
-15.83
-16.68
-17.29
-17.44
-16.86
-15.38
-13.02
-10.02
-6.78
-3.77
-1.32
0.38
1.40
1.87
1.95
1.78
1.43
0.95
0.47
0.09
-0.11
-0.09
0.08
0.26
0.26
-0.04
-0.70
-1.62
-2.61
-3.42
-3.90
-4.02
-3.92
-3.82
-3.90
-4.27
-4.95
-5.86
-6.95
-8.09
-9.12
-9.84
-10.03
-9.57
-8.49
-7.01
-5.49
-4.23
-3.40
-2.99
-2.87
-2.91
-3.08
-3.45
-4.18
-5.34
-6.85
-8.50
-10.02
-11.24
-12.17
-12.98
-13.94
-15.29
-17.15
-19.56
-22.47
-25.82
-29.52
-33.50
-37.66
-41.90
-46.23
-50.75
-55.70
-61.36
-67.92
-75.34
-83.32
-91.35
-98.92
-105.76
-111.96
-118.07
-124.80
-132.90
-142.78
-154.48
-167.61
-181.52
-195.46
-208.68
-220.53
-230.41
-237.80
-242.12
-242.75
-238.91
-229.71
-214.27
-191.97
-162.71
-127.11
-86.51
-42.88
1.44
44.06
82.88
116.33
143.51
164.12
178.35
186.66
189.67
188.07
182.70
174.54
164.75
154.62
145.43
138.28
133.88
132.46
133.71
136.89
140.96
144.88
147.88
149.43
149.42
147.71
143.92
137.42
127.48
113.85
96.78
77.00
55.65
34.26
14.44
-2.25
-14.24
-20.04
-18.26
-8.56
7.74
27.67
47.94
65.57
78.82
87.47
92.38
95.41
98.20
101.66
106.07
112.64
121.86
132.94
143.92
152.12
157.17
160.05
162.32
165.40
172.28
183.84
198.11
211.17
218.33
219.60
217.15
213.61
211.34
215.85
230.19
253.17
279.81
302.08
317.76
327.08
331.16
331.85
336.36
349.75
371.96
398.15
419.55
434.44
443.33
446.78
410.91
319.93
184.13
35.42
-76.52
-152.76
-202.86
-235.43
-259.04
-276.83
-285.17
-281.71
-268.84
-252.68
-242.09
-237.73
-237.48
-239.09
-240.63
-237.06
-225.46
-208.75
-192.74
-184.39
-183.35
-186.82
-192.22
-197.46
-198.73
-193.70
-186.82
-183.78
-188.94
-199.95
-212.58
-223.50
-230.51
-231.24
-224.47
-217.54
-217.66
-228.17
-245.85
-265.84
-284.84
-301.23
-314.11
-323.46
-339.17
-369.72
-417.27
-476.71
-541.46
-607.65
-674.35
-741.91
-755.48
-683.82
-534.66
-348.11
-163.98
-4.55
121.84
213.85
274.52
310.85
323.33
314.82
292.44
265.90
242.64
225.80
215.87
211.30
212.87
213.69
207.87
194.19
176.37
159.23
146.15
138.69
137.17
141.26
145.39
144.72
137.70
126.33
113.73
102.26
93.02
86.32
82.14
77.73
70.77
60.67
48.65
36.52
25.73
17.14
11.22
8.18
7.02
6.81
7.12
7.99
9.47
11.34
13.15
14.46
15.10
15.07
14.52
13.64
12.57
11.33
9.93
8.32
6.52
4.56
2.38
-0.07
-2.85
-5.91
-9.11
-12.21
-14.86
-16.66
-17.32
-16.68
-14.85
-12.19
-9.11
-5.99
-3.03
-0.22
2.55
5.42
8.49
11.78
15.30
19.08
23.16
27.59
32.33
37.28
42.28
47.20
52.08
57.11
62.65
69.04
76.48
84.79
93.38
101.39
107.95
112.49
115.06
116.21
116.87
118.08
120.65
124.94
130.58
136.37
140.51
141.26
137.70
130.37
121.07
111.94
104.22
97.44
89.48
77.85
61.02
39.30
14.68
-10.16
-33.00
-52.68
-68.96
-82.14
-92.78
-101.72
-110.18
-119.57
-131.00
-144.73
-159.75
-174.09
-185.51
-192.31
-193.84
-190.57
-183.68
-174.68
-164.95
-155.53
-147.08
-139.89
-133.81
-128.39
-122.84
-116.32
-108.31
-98.93
-89.25
-81.11
-76.65
-77.40
-83.52
-93.39
-103.99
-111.86
-114.37
-110.74
-102.22
-91.60
-81.95
-75.54
-73.03
-73.56
-75.27
-76.13
-74.49
-69.35
-60.42
-47.94
-32.75
-16.23
-0.06
14.09
25.08
32.64
37.44
40.72
43.93
48.21
54.13
61.63
70.05
78.35
85.37
90.20
92.41
92.30
90.74
88.77
87.17
86.12
85.21
83.58
80.34
74.83
66.90
57.05
46.49
37.09
30.87
29.35
32.69
39.30
46.09
49.53
47.00
37.88
23.90
8.42
-4.75
-12.77
-14.58
-11.05
-4.46
2.43
7.33
8.99
7.44
3.70
-0.86
-5.03
-8.22
-10.37
-11.67
-12.21
-11.84
-10.40
-8.01
-5.32
-3.43
-3.38
-5.74
-10.22
-15.87
-21.54
-26.61
-31.16
-35.75
-40.68
-45.45
-48.78
-49.31
-46.65
-41.82
-37.05
-34.58
-35.45
-38.88
-42.63
-44.16
-41.85
-35.71
-27.16
-18.28
-10.92
-6.19
-4.22
-4.40
-5.54
-6.23
-5.21
-1.60
4.85
13.82
24.75
37.02
50.17
63.69
76.82
88.44
97.22
102.03
102.39
98.50
91.14
81.42
70.68
60.52
52.82
49.47
51.62
58.86
68.91
77.98
82.24
79.38
69.63
55.58
40.94
28.75
20.17
14.34
9.21
2.96
-5.03
-13.94
-22.08
-27.91
-30.86
-31.48
-31.08
-30.90
-31.46
-32.48
-33.18
-32.92
-31.64
-29.89
-28.48
-28.07
-28.96
-31.23
-34.98
-40.21
-46.65
-53.47
-59.41
-63.16
-64.09
-62.52
-59.63
-56.69
-54.34
-52.22
-49.28
-44.37
-36.98
-27.53
-17.08
-6.86
2.20
9.78
16.19
22.16
28.48
35.61
43.41
51.25
58.38
64.50
70.04
76.01
83.37
92.29
101.77
109.88
114.46
114.02
108.26
98.29
86.40
75.67
69.32
69.88
78.07
91.98
106.89
116.36
114.32
97.49
67.01
28.41
-10.33
-41.64
-60.90
-67.54
-64.46
-56.18
-46.84
-39.02
-33.48
-29.92
-27.80
-26.93
-27.37
-29.00
-31.10
-32.33
-31.33
-27.47
-21.27
-14.40
-8.93
-6.52
-7.91
-12.87
-20.62
-30.09
-40.13
-49.47
-56.82
-61.18
-62.36
-61.28
-59.63
-59.13
-60.65
-63.71
-66.76
-67.92
-65.74
-59.70
-50.20
-38.31
-25.44
-13.22
-3.12
3.74
7.05
7.46
6.36
5.45
6.20
9.47
15.58
24.40
35.46
47.95
60.56
71.66
79.55
83.19
82.43
78.05
71.26
63.16
54.51
46.00
38.71
34.32
34.66
40.77
51.81
64.69
74.69
77.10
68.97
50.49
25.15
-1.47
-23.57
-37.13
-41.08
-37.20
-28.97
-20.02
-12.77
-8.03
-5.31
-3.74
-2.76
-2.31
-2.69
-3.97
-5.80
-7.42
-8.08
-7.43
-5.71
-3.78
-2.68
-3.22
-5.64
-9.65
-14.83
-20.99
-28.30
-36.87
-46.17
-54.72
-60.26
-60.85
-55.86
-46.66
-36.21
-27.94
-24.35
-25.99
-31.47
-38.08
-42.89
-43.66
-39.39
-30.34
-17.82
-3.70
10.05
21.88
30.92
37.06
40.76
42.78
43.94
44.97
46.33
48.15
50.25
52.20
53.51
53.94
53.63
52.89
51.98
50.72
48.50
44.62
38.86
32.02
25.86
22.66
24.24
31.14
42.12
54.36
64.10
67.61
62.18
46.92
23.12
-5.79
-34.93
-59.15
-74.39
-78.74
-72.90
-59.72
-43.22
-27.35
-15.05
-7.80
-5.64
-7.58
-11.98
-16.96
-20.70
-21.81
-19.65
-14.55
-7.82
-1.41
2.77
3.45
0.62
-4.42
-9.47
-12.19
-10.93
-5.37
3.37
13.10
21.34
26.21
27.12
25.01
21.89
20.12
21.53
27.00
36.66
50.28
67.66
88.45
111.84
136.14
159.12
178.65
193.52
203.77
210.28
213.94
214.98
213.04
207.78
199.65
190.05
180.60
171.94
162.99
151.13
133.46
108.35
76.40
40.33
3.58
-31.18
-63.10
-92.93
-121.91
-150.37
-176.92
-198.96
-213.89
-220.60
-220.26
-215.85
-210.85
-207.75
-207.15
-207.90
-208.14
-206.48
-202.63
-197.23
-191.20
-184.94
-178.24
-170.50
-161.24
-150.50
-138.71
-126.48
-114.44
-103.35
-94.28
-88.50
-86.96
-89.53
-94.64
-99.59
-101.52
-98.54
-90.36
-78.26
-64.38
-50.99
-39.95
-32.54
-29.32
-30.23
-34.50
-40.87
-48.07
-55.40
-63.08
-72.04
-83.24
-96.99
-112.86
-130.00
-147.83
-166.15
-184.61
-201.83
-214.68
-218.67
-209.36
-184.06
-142.95
-88.92
-26.29
40.42
107.19
170.24
225.54
268.86
296.76
308.04
304.57
290.91
272.71
254.72
239.55
227.61
218.20
210.76
205.52
203.35
204.80
209.37
215.23
219.67
219.92
213.88
200.72
180.79
155.38
126.32
95.51
64.79
35.77
9.80
-11.94
-28.59
-39.56
-44.71
-44.42
-39.62
-31.57
-21.73
-11.38
-1.43
7.66
15.70
22.64
28.37
32.65
35.22
35.87
34.64
31.77
27.64
22.54
16.59
9.67
1.60
-7.62
-17.51
-27.08
-35.03
-40.20
-42.03
-40.81
-37.55
-33.64
-30.37
-28.79
-29.52
-32.92
-39.18
-48.27
-59.76
-72.62
-85.02
-94.26
-97.34
-91.57
-75.65
-50.35
-18.52
15.68
48.11
76.08
98.98
118.02
135.43
153.54
174.29
199.18
228.92
262.91
298.61
331.47
355.93
367.24
363.30
345.45
317.80
285.34
252.14
220.46
190.95
163.71
139.05
117.52
99.22
83.15
66.86
47.12
21.00
-12.72
-52.60
-94.44
-132.23
-159.94
-173.52
-172.46
-160.11
-142.76
-127.63
-120.82
-125.76
-142.75
-169.54
-202.33
-236.97
-269.64
-297.25
-317.10
-326.77
-324.19
-308.11
-278.84
-238.76
-192.04
-143.28
-96.08
-52.06
-10.90
28.96
69.52
112.68
159.94
211.81
267.04
321.83
370.06
405.02
421.90
419.91
402.73
376.72
348.15
320.92
295.87
271.97
248.12
224.33
201.71
181.36
163.65
147.83
132.54
116.52
99.21
80.87
62.39
44.80
28.90
15.11
3.35
-6.74
-15.75
-24.34
-33.04
-42.15
-51.61
-60.95
-69.39
-76.26
-81.22
-84.58
-87.25
-90.39
-95.13
-102.33
-112.60
-126.15
-142.34
-159.04
-172.38
-177.55
-170.60
-150.66
-120.99
-88.40
-60.66
-43.48
-38.53
-43.51
-54.12
-66.40
-78.24
-89.21
-99.33
-107.79
-112.73
-112.18
-105.35
-93.38
-79.00
-65.44
-54.95
-47.92
-42.97
-37.90
-31.10
-22.45
-13.61
-7.25
-5.85
-10.52
-20.70
-34.55
-49.75
-64.10
-75.74
-83.12
-85.09
-81.44
-73.32
-63.24
-54.11
-47.76
-43.83
-39.78
-32.45
-20.21
-4.52
10.32
19.28
19.20
10.48
-3.35
-17.72
-29.59
-38.89
-48.18
-60.89
-79.24
-103.02
-129.64
-155.27
-176.23
-190.12
-196.04
-194.36
-186.32
-173.61
-158.11
-141.82
-126.57
-113.80
-104.32
-98.15
-94.60
-92.48
-90.50
-87.63
-83.47
-78.36
-73.37
-70.04
-69.91
-73.93
-82.05
-92.88
-104.10
-113.13
-118.09
-118.33
-114.54
-108.24
-100.97
-93.71
-86.64
-79.53
-72.09
-64.43
-57.14
-51.18
-47.36
-46.08
-46.99
-49.13
-51.19
-52.06
-51.22
-48.89
-45.79
-42.72
-40.15
-38.04
-37.19
-37.87
-39.62
-41.65
-43.56
-45.36
-47.10
-48.66
-49.84
-51.58
-54.31
-57.40
-59.58
-59.93
-58.34
-55.30
-51.58
-47.93
-47.47
-51.66
-59.06
-66.67
-72.30
-75.36
-76.22
-75.44
-73.49
-78.33
-94.29
-118.62
-144.24
-165.65
-180.95
-190.42
-195.02
-195.83
-209.50
-245.03
-296.65
-349.62
-392.72
-422.53
-440.43
-449.24
-451.55
-474.16
-531.26
-613.27
-696.42
-763.03
-808.35
-835.88
-851.51
-860.58
-898.97
-985.22
-1106.53
-1231.68
-1337.72
-1418.92
-1480.24
-1529.49
-1370.13
-936.79
-335.53
248.93
702.90
1009.88
1200.03
1310.88
1372.84
1406.94
1394.35
1326.49
1221.22
1111.94
1022.59
959.60
919.15
894.89
881.44
850.31
786.34
698.36
609.54
537.34
486.58
454.57
436.63
428.81
412.65
378.10
330.18
281.90
244.15
219.26
204.67
196.61
192.21
181.95
160.79
131.28
100.62
74.71
55.58
43.03
35.93
32.97
29.65
22.68
11.60
-1.76
-15.33
-28.00
-39.38
-49.65
-59.02
-68.00
-76.90
-85.59
-93.29
-98.93
-101.43
-99.70
-95.74
-90.71
-85.40
-80.02
-74.37
-68.62
-63.83
-61.94
-64.80
-72.93
-84.30
-95.23
-101.81
-101.66
-94.92
-83.92
-71.72
-60.64
-51.49
-43.54
-35.97
-28.64
-22.12
-17.17
-13.99
-11.99
-10.14
-7.70
-4.32
-0.47
3.09
5.84
7.87
9.80
12.38
16.19
21.21
27.03
32.97
38.41
43.06
47.07
50.99
55.63
61.77
70.06
80.87
94.24
109.98
127.79
147.39
168.80
192.37
218.66
247.87
279.12
309.89
336.33
354.22
360.52
354.51
338.12
315.03
289.19
263.46
239.12
216.28
194.72
174.55
156.27
140.26
126.28
113.34
100.18
85.87
70.30
54.21
38.80
25.13
13.65
4.07
-4.46
-12.96
-22.19
-32.41
-43.32
-54.15
-63.83
-71.32
-75.83
-77.10
-75.45
-71.61
-66.48
-60.76
-54.75
-48.40
-41.51
-34.03
-26.19
-18.50
-11.55
-5.80
-1.44
1.62
3.62
4.84
5.49
5.69
5.52
5.02
4.27
3.35
2.37
1.46
0.67
-0.03
-0.78
-1.81
-3.38
-5.66
-8.67
-12.24
-16.10
-19.97
-23.70
-27.32
-31.00
-35.04
-39.73
-45.25
-51.59
-58.37
-64.92
-70.32
-73.63
-74.15
-71.69
-66.57
-59.54
-51.46
-43.01
-34.58
-26.22
-17.87
-9.50
-1.24
6.64
13.76
19.78
24.46
27.71
29.61
30.32
30.15
29.44
28.51
27.60
26.81
26.12
25.41
24.55
23.43
21.96
20.05
17.67
14.80
11.49
7.88
4.12
0.40
-3.19
-6.61
-9.89
-13.13
-16.53
-20.28
-24.66
-29.89
-36.09
-43.15
-50.67
-57.94
-64.05
-68.04
-69.16
-67.09
-62.05
-54.73
-46.08
-37.01
-28.08
-19.52
-11.17
-2.80
5.65
13.98
21.72
28.27
33.20
36.43
38.18
38.96
39.25
39.46
39.70
39.95
40.04
39.85
39.28
38.27
36.80
34.86
32.49
29.74
26.70
23.39
19.85
16.07
12.04
7.80
3.43
-0.98
-5.35
-9.57
-13.56
-17.30
-20.91
-24.62
-28.77
-33.74
-39.65
-46.31
-53.06
-58.92
-62.77
-63.73
-61.42
-56.17
-48.87
-40.64
-32.44
-24.77
-17.67
-10.84
-3.96
3.07
10.06
16.61
22.21
26.49
29.27
30.64
30.95
30.65
30.26
30.08
30.21
30.52
30.74
30.61
29.97
28.79
27.13
25.12
22.82
20.27
17.43
14.27
10.78
7.03
3.12
-0.81
-4.64
-8.35
-12.01
-15.78
-19.86
-24.50
-29.86
-35.96
-42.50
-48.86
-54.10
-57.20
-57.42
-54.54
-48.99
-41.71
-33.71
-25.84
-18.45
-11.51
-4.75
2.04
8.82
15.33
21.14
25.83
29.13
31.00
31.61
31.39
30.82
30.35
30.25
30.55
31.03
31.38
31.30
30.64
29.38
27.58
25.28
22.50
19.24
15.53
11.51
7.41
3.49
-0.07
-3.26
-6.23
-9.25
-12.62
-16.60
-21.31
-26.77
-32.83
-39.17
-45.27
-50.43
-53.84
-54.88
-53.28
-49.24
-43.41
-36.62
-29.56
-22.61
-15.76
-8.82
-1.64
5.70
12.86
19.31
24.57
28.34
30.59
31.55
31.59
31.09
30.35
29.59
28.97
28.53
28.22
27.93
27.46
26.65
25.38
23.64
21.41
18.67
15.38
11.57
7.34
2.93
-1.37
-5.32
-8.84
-12.09
-15.34
-18.92
-23.14
-28.15
-34.02
-40.62
-47.56
-54.16
-59.52
-62.67
-62.89
-59.90
-54.01
-46.09
-37.23
-28.41
-20.26
-12.88
-6.00
0.74
7.55
14.31
20.56
25.76
29.46
31.56
32.30
32.19
31.72
31.24
30.84
30.42
29.80
28.92
27.80
26.55
25.21
23.68
21.74
19.12
15.65
11.40
6.65
1.81
-2.74
-6.74
-10.22
-13.35
-16.49
-20.04
-24.35
-29.70
-36.12
-43.29
-50.55
-56.91
-61.29
-62.85
-61.21
-56.59
-49.73
-41.59
-33.09
-24.84
-17.08
-9.80
-2.83
3.94
10.47
16.56
21.89
26.20
29.35
31.41
32.59
33.16
33.29
33.03
32.36
31.25
29.75
28.00
26.18
24.36
22.52
20.48
18.03
14.99
11.32
7.18
2.83
-1.43
-5.43
-9.17
-12.89
-16.95
-21.70
-27.42
-34.09
-41.41
-48.76
-55.32
-60.11
-62.33
-61.54
-57.78
-51.62
-43.90
-35.47
-26.89
-18.41
-9.99
-1.54
6.88
15.06
22.64
29.26
34.63
38.61
41.15
42.39
42.58
42.07
41.24
40.40
39.72
39.16
38.59
37.79
36.61
35.00
32.97
30.54
27.62
24.16
20.07
15.44
10.46
5.42
0.58
-3.96
-8.22
-12.41
-16.77
-21.57
-27.01
-33.23
-40.22
-47.75
-55.24
-61.82
-66.44
-68.18
-66.59
-61.82
-54.60
-45.97
-36.88
-27.96
-19.41
-11.08
-2.72
5.84
14.52
22.94
30.52
36.63
40.80
42.94
43.40
42.88
42.15
41.77
41.95
42.49
43.02
43.24
42.99
42.23
40.98
39.14
36.60
33.27
29.24
24.81
20.36
16.19
12.39
8.80
5.15
1.21
-3.05
-7.48
-11.85
-16.01
-20.03
-24.22
-29.03
-34.85
-41.79
-49.53
-57.23
-63.67
-67.62
-68.22
-65.31
-59.54
-52.06
-44.04
-36.24
-28.80
-21.35
-13.46
-4.97
3.88
12.52
20.33
26.93
32.15
36.11
39.00
41.02
42.36
43.20
43.68
43.92
43.98
43.85
43.43
42.55
41.05
38.76
35.68
31.91
27.69
23.27
18.88
14.63
10.47
6.32
2.12
-2.07
-6.11
-9.91
-13.45
-16.94
-20.71
-25.13
-30.46
-36.61
-43.14
-49.26
-54.07
-56.75
-56.84
-54.35
-49.74
-43.66
-36.78
-29.55
-22.13
-14.53
-6.72
1.24
9.16
16.76
23.72
29.74
34.56
37.99
39.97
40.62
40.26
39.33
38.26
37.38
36.83
36.58
36.51
36.41
36.04
35.17
33.61
31.27
28.16
24.41
20.22
15.81
11.38
7.06
2.90
-1.12
-5.08
-9.10
-13.31
-17.85
-22.84
-28.36
-34.41
-40.74
-46.84
-51.94
-55.21
-55.95
-53.91
-49.35
-42.95
-35.55
-27.93
-20.52
-13.43
-6.53
0.40
7.45
14.54
21.37
27.54
32.63
36.30
38.40
39.07
38.68
37.76
36.82
36.16
35.82
35.60
35.25
34.55
33.48
32.14
30.63
28.97
27.03
24.60
21.54
17.87
13.79
9.65
5.78
2.35
-0.71
-3.64
-6.81
-10.49
-14.86
-19.95
-25.64
-31.73
-37.89
-43.57
-48.07
-50.60
-50.54
-47.68
-42.41
-35.62
-28.37
-21.47
-15.24
-9.47
-3.68
2.51
9.08
15.52
21.09
25.13
27.35
27.95
27.40
26.29
25.07
23.99
23.14
22.54
22.16
21.96
21.87
21.74
21.43
20.78
19.71
18.22
16.33
14.10
11.62
9.02
6.41
3.88
1.42
-1.07
-3.80
-6.99
-10.79
-15.30
-20.47
-26.19
-32.22
-38.19
-43.55
-47.58
-49.59
-49.08
-45.96
-40.66
-33.96
-26.73
-19.65
-13.03
-6.78
-0.67
5.48
11.55
17.20
21.96
25.43
27.48
28.26
28.20
27.70
27.12
26.61
26.13
25.55
24.80
23.87
22.80
21.65
20.41
18.98
17.23
15.04
12.39
9.34
6.01
2.56
-0.86
-4.18
-7.35
-10.35
-13.22
-16.04
-19.01
-22.35
-26.36
-31.18
-36.62
-42.16
-46.88
-49.80
-50.15
-47.71
-42.84
-36.46
-29.62
-23.17
-17.52
-12.58
-7.93
-3.15
1.98
7.33
12.48
16.92
20.29
22.44
23.50
23.74
23.46
22.90
22.22
21.57
21.08
20.89
21.08
21.58
22.15
22.41
21.90
20.33
17.63
14.08
10.28
6.89
4.46
3.21
2.93
3.07
2.96
2.01
-0.11
-3.39
-7.45
-11.64
-15.19
-17.36
-17.72
-16.25
-13.46
-10.18
-7.34
-5.63
-5.33
-6.20
-7.71
-9.20
-10.20
-10.52
-10.29
-9.75
-9.12
-8.47
-7.70
-6.67
-5.27
-3.56
-1.66
0.29
2.24
4.24
6.32
8.40
10.19
11.28
11.33
10.24
8.15
5.45
2.50
-0.45
-3.36
-6.40
-9.76
-13.64
-18.18
-23.40
-29.16
-35.10
-40.54
-44.66
-46.66
-46.07
-42.95
-37.87
-31.75
-25.42
-19.47
-14.07
-9.05
-4.10
1.00
6.25
11.44
16.20
20.20
23.16
24.98
25.71
25.52
24.66
23.38
21.92
20.47
19.16
18.10
17.29
16.67
16.09
15.27
13.95
11.89
9.06
5.65
2.02
-1.47
-4.62
-7.50
-10.53
-14.20
-18.96
-24.93
-31.81
-38.90
-45.30
-50.07
-52.61
-52.72
-50.74
-47.35
-43.36
-39.41
-35.73
-32.25
-28.66
-24.75
-20.59
-16.52
-13.08
-10.63
-9.36
-9.14
-9.75
-11.02
-12.92
-15.53
-18.86
-22.79
-27.04
-31.30
-35.38
-39.31
-43.36
-47.90
-53.19
-59.30
-66.01
-72.85
-79.31
-84.96
-89.64
-93.47
-96.87
-100.43
-104.72
-110.13
-116.63
-123.54
-129.53
-132.79
-131.47
-124.33
-111.28
-93.59
-73.65
-54.22
-37.64
-25.17
-16.77
-11.42
-7.63
-3.93
0.91
7.86
17.79
31.43
49.23
71.09
96.07
122.48
148.17
171.06
189.67
203.43
212.65
218.18
220.92
221.41
219.60
214.99
207.05
195.61
181.17
164.75
147.48
129.96
111.90
92.08
68.84
40.73
7.16
-31.17
-72.26
-113.11
-150.29
-180.56
-201.56
-212.25
-212.95
-205.12
-190.66
-171.32
-148.16
-121.65
-91.94
-59.44
-25.23
8.89
40.75
68.34
90.35
106.43
117.04
123.07
125.28
123.86
118.35
107.86
91.47
68.72
40.11
7.31
-26.81
-58.51
-83.88
-99.85
-104.95
-99.81
-86.85
-69.46
-50.98
-33.85
-19.36
-7.91
0.57
6.31
9.61
10.94
10.87
9.68
7.10
2.19
-6.14
-18.24
-32.97
-47.50
-58.01
-61.07
-54.93
-40.15
-19.31
4.10
26.96
47.30
64.43
78.44
89.55
97.75
102.81
104.49
102.68
97.36
88.34
75.15
57.28
34.71
8.57
-18.72
-43.82
-63.52
-75.71
-80.10
-78.08
-72.03
-64.36
-56.81
-50.31
-45.13
-41.32
-38.84
-37.54
-37.05
-36.73
-35.92
-34.25
-31.87
-29.31
-27.08
-25.24
-23.06
-19.29
-12.70
-2.59
10.75
26.14
42.03
56.95
69.96
80.71
89.25
95.72
100.19
102.66
103.09
101.52
97.94
92.24
84.22
73.75
61.09
47.21
33.70
22.35
14.54
10.68
10.05
11.31
13.12
14.79
16.38
18.32
20.82
23.46
25.22
24.92
21.79
15.80
7.65
-1.62
-11.04
-19.93
-27.92
-34.78
-40.16
-43.55
-44.43
-42.50
-37.84
-31.08
-23.18
-15.20
-7.94
-1.75
3.37
7.69
11.38
14.51
16.98
18.75
19.90
20.67
21.30
21.95
22.60
23.13
23.42
23.48
23.40
23.27
23.16
23.05
22.87
22.56
22.18
21.86
21.77
22.07
22.79
23.78
24.70
25.03
24.24
21.91
17.79
11.92
4.45
-4.40
-14.40
-25.26
-36.48
-47.25
-56.52
-63.16
-66.35
-65.80
-61.94
-55.66
-48.03
-39.91
-31.68
-23.30
-14.46
-4.99
5.00
14.98
24.16
31.73
37.02
39.64
39.41
36.30
30.47
22.45
13.26
4.32
-2.85
-7.17
-8.44
-7.44
-5.54
-4.07
-3.70
-4.22
-4.78
-4.45
-2.78
-0.00
3.09
5.46
6.29
5.05
1.67
-3.62
-10.30
-17.64
-24.68
-30.38
-33.83
-34.53
-32.54
-28.49
-23.33
-17.96
-12.92
-8.29
-3.73
1.18
6.69
12.72
18.80
24.27
28.33
30.33
29.92
27.25
22.97
18.16
13.93
11.01
9.57
9.20
9.31
9.50
9.79
10.51
11.93
14.01
16.30
18.17
19.19
19.25
18.57
17.34
15.43
12.48
8.10
2.23
-4.71
-11.93
-18.62
-24.22
-28.51
-31.46
-33.02
-33.01
-31.25
-27.72
-22.77
-16.98
-11.07
-5.58
-0.81
3.27
6.76
9.79
12.35
14.30
15.47
15.74
15.17
14.01
12.72
11.76
11.49
12.02
13.18
14.61
15.89
16.67
16.77
16.18
15.00
13.33
11.28
8.88
6.13
3.11
0.02
-2.83
-5.15
-6.84
-7.99
-8.96
-10.14
-11.86
-14.23
-17.17
-20.51
-24.01
-27.43
-30.43
-32.58
-33.50
-32.95
-30.99
-28.01
-24.59
-21.28
-18.42
-16.05
-13.90
-11.56
-8.55
-4.54
0.51
6.36
12.40
17.92
22.29
25.17
26.52
26.53
25.48
23.65
21.34
18.90
16.69
14.92
13.53
12.16
10.40
8.05
5.38
2.93
1.36
1.03
1.89
3.54
5.45
7.16
8.33
8.66
7.84
5.71
2.32
-1.95
-6.59
-11.18
-15.53
-19.72
-23.83
-27.60
-30.35
-31.11
-29.16
-24.38
-17.45
-9.60
-2.12
4.13
8.90
12.39
14.92
16.68
17.69
17.94
17.55
16.81
16.01
15.29
14.57
13.67
12.57
11.42
10.62
10.51
11.28
12.83
14.74
16.41
17.24
16.79
14.96
12.05
8.65
5.45
2.90
1.00
-0.65
-2.58
-5.15
-8.30
-11.56
-14.32
-16.12
-16.86
-16.90
-16.92
-17.66
-19.69
-23.12
-27.58
-32.28
-36.28
-38.80
-39.44
-38.27
-35.63
-32.02
-27.78
-23.09
-18.03
-12.62
-6.99
-1.34
4.14
9.29
13.95
17.93
21.01
22.94
23.66
23.34
22.34
21.14
20.15
19.55
19.29
19.18
18.95
18.45
17.62
16.57
15.51
14.67
14.18
14.03
14.03
13.89
13.33
12.23
10.71
8.99
7.28
5.64
4.04
2.39
0.62
-1.24
-3.18
-5.28
-7.64
-10.33
-13.24
-15.92
-17.70
-17.75
-15.46
-10.65
-3.73
4.44
12.85
20.68
27.55
33.57
39.07
44.39
49.62
54.55
58.86
62.26
64.59
65.71
65.34
62.96
57.89
49.64
38.26
24.60
10.22
-3.05
-13.71
-21.02
-25.24
-27.27
-28.26
-29.07
-30.03
-31.07
-31.90
-32.35
-32.51
-32.65
-33.03
-33.76
-34.72
-35.72
-36.63
-37.54
-38.75
-40.61
-43.31
-46.65
-49.96
-52.30
-52.77
-50.95
-47.08
-41.99
-36.70
-32.06
-28.43
-25.65
-23.24
-20.72
-17.84
-14.62
-11.32
-8.26
-5.70
-3.77
-2.41
-1.52
-0.91
-0.48
-0.17
0.03
0.13
0.21
0.40
0.80
1.43
2.21
3.05
3.93
4.92
6.17
7.71
9.38
10.79
11.40
10.74
8.53
4.77
-0.31
-6.29
-12.78
-19.45
-26.09
-32.65
-39.17
-45.62
-51.83
-57.37
-61.66
-64.00
-63.85
-61.00
-55.58
-48.11
-39.32
-30.02
-20.96
-12.70
-5.53
0.61
6.00
11.06
16.09
21.04
25.50
28.81
30.41
30.13
28.42
26.26
24.85
25.19
27.75
32.24
37.86
43.47
48.02
50.70
51.11
49.25
45.49
40.48
35.03
29.90
25.51
21.87
18.57
15.03
10.87
6.10
1.17
-3.30
-6.90
-9.62
-11.84
-14.14
-16.93
-20.30
-23.95
-27.35
-29.89
-31.05
-30.60
-28.60
-25.35
-21.35
-17.09
-13.00
-9.29
-5.95
-2.74
0.66
4.51
8.86
13.55
18.23
22.47
25.94
28.52
30.25
31.22
31.57
31.38
30.79
30.04
29.39
29.02
28.89
28.61
27.63
25.47
21.96
17.43
12.65
8.52
5.79
4.70
4.97
5.86
6.59
6.62
5.81
4.41
2.76
1.03
-0.88
-3.25
-6.40
-10.50
-15.55
-21.42
-27.82
-34.23
-39.81
-43.47
-44.12
-41.14
-34.69
-25.75
-15.80
-6.27
1.96
8.65
14.04
18.54
22.44
25.75
28.33
29.96
30.45
29.74
28.00
25.76
23.86
23.35
25.04
29.20
35.29
42.16
48.52
53.50
57.01
59.66
62.32
65.56
69.41
73.40
76.92
79.66
81.87
84.25
87.68
92.77
99.57
107.50
115.60
122.93
128.97
133.80
138.08
142.76
148.62
155.99
164.61
173.60
181.57
186.73
187.17
181.17
167.72
146.75
119.23
86.72
50.68
12.00
-29.17
-72.95
-118.82
-164.97
-208.22
-244.84
-272.07
-289.43
-299.17
-305.55
-313.02
-324.12
-338.12
-351.00
-356.64
-348.86
-323.13
-278.01
-215.28
-139.55
-57.44
23.71
97.15
158.21
205.17
239.06
262.23
276.44
281.63
276.33
259.66
233.64
204.18
179.68
167.88
172.38
190.91
216.42
240.10
254.90
257.63
248.88
231.24
207.35
178.93
147.01
112.72
77.83
44.71
15.38
-9.23
-29.62
-47.59
-65.27
-84.30
-105.16
-126.97
-147.86
-165.75
-179.11
-187.58
-192.11
-194.38
-196.01
-197.69
-198.82
-197.92
-193.63
-185.66
-175.11
-163.98
-154.10
-146.20
-139.62
-132.86
-124.63
-114.72
-104.07
-94.23
-86.31
-80.13
-74.03
-65.43
-51.67
-30.88
-2.56
32.33
71.31
110.48
144.94
169.80
181.99
181.71
172.81
161.38
152.97
149.97
150.68
150.62
145.44
133.44
116.35
97.84
81.07
66.65
52.53
35.45
12.72
-16.90
-53.36
-95.94
-143.33
-193.01
-240.66
-280.54
-307.25
-317.59
-312.16
-295.24
-273.29
-252.83
-239.07
-235.50
-244.13
-265.74
-299.26
-340.87
-383.68
-418.75
-437.66
-435.39
-412.11
-372.71
-324.76
-275.49
-229.79
-189.62
-155.11
-125.83
-101.75
-82.96
-69.07
-58.39
-48.13
-35.43
-18.34
3.33
28.06
53.30
76.51
96.15
112.04
125.31
137.88
151.79
168.87
190.48
217.78
251.63
292.02
337.36
384.38
429.15
468.81
502.91
533.29
562.17
589.53
611.81
622.76
616.44
590.57
548.17
496.05
441.74
390.17
342.27
296.02
249.04
200.77
153.01
108.72
70.11
37.14
7.28
-23.47
-58.82
-100.48
-147.43
-196.50
-243.56
-285.34
-320.69
-350.97
-379.53
-410.65
-448.38
-495.08
-550.04
-608.55
-662.11
-700.18
-713.57
-697.79
-654.86
-592.73
-521.85
-451.12
-384.83
-322.22
-259.25
-191.76
-118.13
-40.77
34.05
97.50
140.56
156.73
144.58
109.14
61.35
14.83
-18.28
-31.30
-24.66
-4.77
19.18
38.71
48.39
46.24
32.93
10.51
-18.47
-51.57
-86.55
-121.23
-153.15
-179.50
-197.14
-203.26
-196.38
-177.23
-148.76
-115.11
-79.89
-44.71
-8.92
29.45
71.96
118.61
167.59
215.90
260.30
298.02
327.04
346.23
355.45
355.69
348.54
335.37
316.56
291.50
259.62
221.76
181.11
142.60
111.00
88.80
75.06
66.07
57.38
46.30
33.10
20.62
12.49
10.96
15.64
23.85
32.23
38.54
42.77
46.73
52.44
60.50
69.25
75.58
76.83
72.54
65.08
58.69
57.45
63.48
76.32
93.60
112.32
129.87
144.31
154.09
157.96
155.33
146.97
135.11
122.84
112.60
104.80
97.44
86.78
69.27
43.26
10.13
-25.55
-56.70
-75.21
-74.23
-50.78
-7.88
45.16
95.07
128.99
139.23
126.01
96.37
59.94
23.98
-9.33
-42.12
-77.26
-114.47
-148.70
-171.65
-175.58
-157.39
-120.53
-74.37
-30.95
-1.07
8.82
-2.39
-31.52
-73.23
-122.09
-173.67
-225.14
-275.04
-323.46
-371.73
-421.67
-474.13
-527.31
-576.09
-613.12
-631.75
-628.70
-605.64
-568.17
-523.16
-476.04
-429.59
-384.59
-341.37
-300.95
-264.73
-233.52
-206.70
-182.14
-157.32
-130.51
-101.67
-72.09
-43.72
-17.91
5.11
26.19
46.62
67.30
88.36
109.25
129.33
148.52
167.59
187.90
210.66
236.19
263.50
290.53
315.07
335.76
353.10
369.76
390.08
418.63
457.80
505.64
554.96
594.53
612.42
600.22
556.29
486.68
403.08
318.89
245.06
187.28
144.99
112.80
83.34
50.69
13.30
-24.74
-54.99
-67.96
-57.55
-24.38
23.56
73.60
112.90
132.97
132.13
115.11
90.08
64.83
43.52
25.43
5.74
-22.19
-63.56
-119.48
-185.64
-253.22
-311.32
-350.19
-364.01
-352.37
-320.05
-275.43
-228.57
-189.09
-164.34
-157.95
-168.94
-191.82
-217.85
-237.34
-242.35
-228.97
-198.07
-154.54
-105.25
-56.87
-14.37
19.66
44.71
61.82
72.80
79.75
84.46
87.92
90.10
90.04
86.49
78.56
66.29
50.81
34.01
17.93
4.09
-6.99
-15.79
-23.53
-31.61
-41.11
-52.49
-65.59
-79.85
-94.72
-109.90
-125.53
-141.97
-159.62
-178.62
-198.68
-219.10
-238.89
-257.04
-272.75
-285.51
-294.60
-299.62
-301.34
-300.19
-295.95
-288.36
-277.29
-262.78
-245.09
-224.08
-199.77
-173.14
-144.73
-114.20
-81.43
-46.66
-10.60
25.67
62.32
99.35
134.55
166.88
197.26
226.43
254.59
281.19
305.11
328.67
353.56
374.75
390.00
401.89
412.58
423.17
433.55
442.79
457.22
481.57
506.09
525.80
545.22
568.01
596.81
633.26
677.84
740.93
826.66
911.66
977.24
1020.45
1039.94
1037.36
1017.37
986.39
965.87
970.97
982.72
988.78
996.20
1008.51
1025.65
1044.46
964.11
729.14
484.26
293.45
128.56
-11.02
-128.08
-228.94
-322.22
-416.11
-501.04
-569.04
-641.91
-755.16
-901.04
-1054.64
-1184.38
-1267.34
-1296.86
-1268.72
-1190.41
-1096.12
-1012.59
-938.47
-870.89
-807.93
-749.44
-696.40
-642.29
-581.51
-522.06
-468.82
-414.16
-354.44
-290.15
-224.44
-160.68
-97.16
-31.89
29.92
84.12
131.96
172.54
205.01
230.16
250.81
271.47
294.50
316.52
332.83
341.58
341.60
333.17
317.52
296.19
270.80
243.30
216.19
192.14
173.59
160.75
151.73
143.42
133.07
119.42
102.87
85.16
68.70
56.28
50.30
51.90
60.35
73.02
86.36
97.53
105.59
111.26
115.54
117.98
116.08
106.23
85.65
54.02
13.67
-31.54
-78.10
-124.00
-168.84
-213.00
-256.53
-298.92
-339.58
-378.53
-416.57
-454.62
-492.43
-527.59
-555.38
-569.70
-564.88
-537.38
-486.72
-415.45
-328.57
-232.62
-134.90
-42.62
37.94
102.34
148.65
177.46
191.18
192.91
185.34
170.13
148.07
119.43
84.56
44.33
0.31
-45.10
-88.61
-126.35
-154.56
-170.69
-174.38
-167.84
-155.47
-142.92
-135.83
-138.43
-152.41
-176.18
-204.92
-231.67
-249.27
-252.82
-241.49
-218.87
-191.55
-166.48
-148.17
-137.29
-131.00
-124.65
-113.98
-96.51
-71.68
-40.16
-2.77
39.85
86.93
136.84
186.74
232.84
271.51
300.57
319.94
331.33
337.19
339.51
339.18
336.11
329.89
320.32
307.55
291.55
271.65
246.30
213.52
171.76
120.86
62.52
0.25
-61.30
-117.29
-163.72
-198.23
-220.53
-232.19
-236.01
-234.89
-230.66
-223.40
-211.55
-192.80
-165.49
-129.77
-87.96
-43.96
-1.96
34.82
64.80
87.98
105.31
117.92
126.69
132.10
134.29
133.26
128.85
120.85
109.06
93.61
75.10
54.77
34.34
15.65
0.21
-11.21
-18.70
-23.12
-25.76
-27.90
-30.35
-33.23
-36.05
-37.97
-38.26
-36.61
-33.21
-28.64
-23.52
-18.33
-13.28
-8.38
-3.60
1.01
5.30
9.06
12.09
14.24
15.43
15.67
15.14
14.12
13.03
12.25
12.00
12.33
13.06
13.95
14.77
15.37
15.70
15.73
15.46
14.92
14.23
13.58
13.21
13.33
13.96
14.91
15.80
16.25
16.01
15.08
13.66
12.07
10.54
9.17
7.87
6.50
4.95
3.16
1.15
-1.11
-3.68
-6.70
-10.27
-14.34
-18.71
-22.92
-26.47
-28.83
-29.68
-28.92
-26.69
-23.37
-19.36
-15.07
-10.83
-6.79
-3.01
0.57
3.99
7.21
10.14
12.63
14.57
15.92
16.73
17.11
17.17
16.95
16.48
15.78
14.93
14.07
13.34
12.83
12.48
12.15
11.61
10.69
9.27
7.44
5.33
3.14
1.00
-0.99
-2.88
-4.79
-6.87
-9.28
-12.16
-15.55
-19.38
-23.39
-27.19
-30.25
-32.08
-32.32
-30.87
-27.92
-23.88
-19.25
-14.48
-9.82
-5.37
-1.12
2.89
6.51
9.53
11.69
12.95
13.47
13.58
13.73
14.27
15.36
16.92
18.67
20.25
21.37
21.94
21.99
21.66
20.98
19.85
18.08
15.52
12.16
8.18
3.90
-0.38
-4.42
-8.14
-11.48
-14.52
-17.33
-20.14
-23.16
-26.55
-30.30
-34.07
-37.27
-39.24
-39.49
-37.84
-34.47
-29.83
-24.44
-18.83
-13.32
-8.11
-3.26
1.28
5.55
9.56
13.25
16.48
19.10
21.00
22.15
22.62
22.52
21.94
20.98
19.73
18.31
16.94
15.84
15.14
14.78
14.46
13.79
12.38
10.08
7.01
3.52
0.05
-3.05
-5.62
-7.76
-9.71
-11.73
-14.08
-16.90
-20.23
-23.95
-27.83
-31.40
-34.09
-35.29
-34.56
-31.81
-27.40
-21.97
-16.29
-10.96
-6.27
-2.16
1.64
5.40
9.27
13.20
16.92
20.15
22.60
24.16
24.88
24.92
24.53
23.93
23.28
22.60
21.93
21.22
20.43
19.50
18.33
16.80
14.84
12.46
9.76
6.93
4.10
1.34
-1.37
-4.14
-7.03
-10.06
-13.18
-16.42
-19.84
-23.59
-27.80
-32.47
-37.34
-41.83
-45.19
-46.61
-45.59
-41.99
-36.25
-29.25
-22.07
-15.69
-10.66
-6.92
-3.94
-1.00
2.43
6.29
9.92
12.28
12.42
10.03
5.67
0.64
-3.52
-5.87
-6.56
-6.93
-9.09
-14.90
-25.06
-38.60
-53.09
-65.44
-73.08
-74.77
-70.93
-63.22
-54.00
-45.78
-40.80
-40.48
-44.71
-51.17
-55.42
-52.40
-38.90
-15.85
11.24
34.30
46.49
45.97
37.27
29.58
32.60
52.16
87.92
133.61
179.92
217.82
240.87
246.18
234.08
207.48
171.22
131.53
94.99
67.22
51.31
46.97
50.70
57.12
61.02
59.18
51.10
38.64
24.81
12.39
3.08
-2.69
-5.50
-6.45
-6.82
-7.77
-10.18
-14.47
-20.58
-27.97
-35.72
-42.88
-48.74
-53.04
-56.04
-58.38
-60.82
-63.95
-67.99
-72.74
-77.61
-81.79
-84.43
-84.85
-82.71
-78.08
-71.37
-63.16
-54.00
-44.29
-34.21
-23.81
-13.23
-2.73
7.16
15.81
22.71
27.60
30.64
32.25
32.86
32.75
31.92
30.14
27.23
23.23
18.50
13.64
9.26
5.80
3.44
2.13
1.66
1.77
2.20
2.70
3.04
3.04
2.60
1.71
0.43
-1.21
-3.15
-5.40
-8.02
-11.14
-14.90
-19.35
-24.32
-29.31
-33.55
-36.19
-36.57
-34.47
-30.25
-24.65
-18.58
-12.75
-7.52
-2.88
1.40
5.54
9.62
13.56
17.13
20.07
22.20
23.48
24.01
24.01
23.71
23.32
22.95
22.60
22.27
21.96
21.65
21.33
20.90
20.17
18.93
17.08
14.71
12.03
9.31
6.69
4.19
1.67
-1.00
-3.83
-6.76
-9.64
-12.37
-15.01
-17.74
-20.83
-24.57
-29.08
-34.29
-39.83
-45.12
-49.42
-52.07
-52.54
-50.63
-46.46
-40.46
-33.23
-25.47
-17.78
-10.57
-4.02
1.95
7.53
12.90
18.04
22.79
26.84
29.95
31.98
33.04
33.35
33.18
32.79
32.35
31.99
31.74
31.55
31.29
30.80
29.92
28.58
26.82
24.77
22.61
20.48
18.49
16.66
14.91
13.08
10.95
8.26
4.82
0.59
-4.29
-9.55
-14.83
-19.88
-24.63
-29.21
-33.90
-38.98
-44.59
-50.51
-56.14
-60.65
-63.11
-62.87
-59.70
-53.89
-46.12
-37.24
-28.08
-19.26
-11.16
-3.96
2.33
7.82
12.65
16.92
20.60
23.50
25.27
25.61
24.38
21.78
18.34
14.86
12.10
10.58
10.41
11.28
12.63
13.87
14.63
14.86
14.81
14.79
14.99
15.33
15.51
15.15
14.05
12.25
9.99
7.60
5.25
2.93
0.52
-2.10
-4.96
-8.00
-11.17
-14.45
-17.91
-21.49
-25.00
-27.97
-29.87
-30.24
-28.91
-26.06
-22.12
-17.66
-13.14
-8.82
-4.77
-0.88
2.93
6.71
10.35
13.69
16.55
18.77
20.29
21.13
21.37
21.16
20.68
20.15
19.76
19.61
19.66
19.74
19.57
18.92
17.71
16.05
14.17
12.32
10.60
8.96
7.25
5.27
2.93
0.25
-2.66
-5.59
-8.38
-10.87
-13.04
-14.93
-16.76
-18.85
-21.51
-24.92
-29.00
-33.31
-37.13
-39.64
-40.18
-38.47
-34.73
-29.60
-23.88
-18.26
-13.16
-8.65
-4.61
-0.84
2.73
6.13
9.25
12.01
14.33
16.13
17.35
17.98
18.05
17.70
17.15
16.62
16.32
16.28
16.40
16.46
16.19
15.43
14.13
12.38
10.39
8.38
6.51
4.86
3.33
1.76
-0.03
-2.14
-4.56
-7.15
-9.72
-12.06
-14.14
-16.00
-17.85
-19.93
-22.41
-25.35
-28.58
-31.71
-34.17
-35.37
-34.86
-32.51
-28.57
-23.57
-18.14
-12.78
-7.79
-3.18
1.12
5.21
9.12
12.77
16.09
18.99
21.44
23.41
24.86
25.76
26.10
25.90
25.27
24.38
23.41
22.52
21.81
21.25
20.77
20.23
19.51
18.56
17.35
15.91
14.22
12.26
9.96
7.27
4.12
0.52
-3.47
-7.68
-11.86
-15.75
-19.15
-22.11
-24.81
-27.50
-30.29
-32.98
-35.08
-35.94
-35.08
-32.35
-27.97
-22.46
-16.36
-10.19
-4.30
1.01
5.48
8.89
11.15
12.31
12.58
12.25
11.63
10.91
10.15
9.27
8.13
6.64
4.83
2.85
0.97
-0.52
-1.31
-1.11
0.32
3.06
6.88
11.21
15.26
18.22
19.64
19.50
18.27
16.54
14.77
13.07
11.26
9.05
6.24
2.74
-1.46
-6.32
-11.71
-17.35
-22.73
-27.19
-30.07
-30.89
-29.48
-26.05
-21.11
-15.30
-9.24
-3.40
2.00
7.01
11.74
16.31
20.66
24.63
27.96
30.51
32.24
33.22
33.55
33.28
32.44
31.11
29.48
27.77
26.16
24.67
23.18
21.48
19.43
16.96
14.16
11.13
7.93
4.58
1.08
-2.55
-6.21
-9.84
-13.40
-17.00
-20.81
-24.94
-29.33
-33.61
-37.19
-39.35
-39.50
-37.40
-33.18
-27.41
-20.80
-14.03
-7.58
-1.64
3.75
8.62
12.90
16.39
18.88
20.22
20.40
19.64
18.21
16.43
14.50
12.53
10.56
8.60
6.70
4.86
3.10
1.31
-0.62
-2.86
-5.48
-8.46
-11.63
-14.69
-17.23
-18.83
-19.18
-18.15
-15.92
-12.92
-9.77
-7.10
-5.42
-5.10
-6.22
-8.68
-12.15
-16.07
-19.78
-22.66
-24.21
-24.25
-22.88
-20.37
-17.04
-13.07
-8.55
-3.50
2.04
7.95
14.03
20.05
25.77
31.01
35.60
39.41
42.29
44.11
44.64
43.68
41.07
36.90
31.51
25.54
19.68
14.60
10.66
7.86
5.96
4.55
3.20
1.56
-0.57
-3.33
-6.66
-10.43
-14.43
-18.47
-22.44
-26.33
-30.12
-33.65
-36.55
-38.30
-38.40
-36.57
-32.92
-27.94
-22.35
-16.86
-12.05
-8.19
-5.32
-3.36
-2.14
-1.53
-1.35
-1.41
-1.53
-1.53
-1.37
-1.10
-0.88
-0.87
-1.12
-1.48
-1.59
-0.96
0.85
3.95
8.08
12.64
16.89
20.23
22.41
23.47
23.57
22.74
20.84
17.56
12.78
6.70
-0.12
-6.87
-12.85
-17.64
-21.20
-23.73
-25.48
-26.64
-27.19
-26.99
-25.83
-23.54
-20.06
-15.51
-10.21
-4.64
0.74
5.49
9.38
12.34
14.37
15.50
15.75
15.08
13.54
11.38
9.06
7.25
6.55
7.29
9.35
12.16
14.99
17.17
18.39
18.72
18.48
17.95
17.22
16.15
14.50
12.12
9.13
5.90
2.88
0.48
-1.09
-1.87
-2.09
-2.11
-2.34
-3.15
-4.78
-7.29
-10.43
-13.64
-16.16
-17.24
-16.42
-13.71
-9.68
-5.20
-1.14
2.00
4.21
5.91
7.68
9.87
12.49
15.16
17.28
18.32
17.94
16.09
13.03
9.17
5.08
1.37
-1.47
-3.11
-3.45
-2.64
-0.97
1.17
3.42
5.46
7.03
7.95
8.13
7.56
6.36
4.72
2.83
0.83
-1.24
-3.45
-5.93
-8.79
-12.15
-16.08
-20.55
-25.39
-30.25
-34.58
-37.76
-39.21
-38.52
-35.58
-30.63
-24.20
-17.01
-9.85
-3.37
2.04
6.37
9.87
12.95
15.86
18.61
20.94
22.45
22.88
22.17
20.54
18.38
16.10
14.05
12.52
11.62
11.38
11.66
12.25
12.93
13.54
13.99
14.29
14.38
14.20
13.63
12.55
10.97
8.98
6.72
4.35
1.94
-0.50
-2.99
-5.61
-8.41
-11.46
-14.85
-18.63
-22.72
-26.86
-30.61
-33.41
-34.76
-34.38
-32.32
-28.92
-24.70
-20.14
-15.56
-11.09
-6.72
-2.40
1.84
5.92
9.66
12.88
15.40
17.07
17.84
17.73
16.90
15.66
14.36
13.31
12.68
12.42
12.34
12.20
11.81
11.09
10.12
8.98
7.68
6.18
4.38
2.25
-0.10
-2.43
-4.50
-6.16
-7.45
-8.54
-9.68
-11.08
-12.81
-14.88
-17.21
-19.72
-22.27
-24.59
-26.30
-26.93
-26.08
-23.64
-19.89
-15.39
-10.85
-6.81
-3.53
-0.92
1.31
3.45
5.69
8.03
10.29
12.26
13.70
14.49
14.64
14.31
13.75
13.27
13.11
13.37
14.01
14.87
15.73
16.40
16.75
16.74
16.40
15.81
15.05
14.19
13.28
12.32
11.22
9.87
8.08
5.69
2.64
-0.94
-4.82
-8.67
-12.24
-15.43
-18.21
-20.61
-22.50
-23.70
-23.93
-23.01
-20.90
-17.73
-13.66
-8.93
-3.75
1.59
6.75
11.36
15.19
18.18
20.44
22.14
23.36
24.04
24.01
23.13
21.38
18.92
15.95
12.68
9.22
5.66
2.09
-1.32
-4.34
-6.75
-8.46
-9.52
-10.10
-10.43
-10.64
-10.78
-10.84
-10.85
-10.95
-11.40
-12.43
-14.21
-16.65
-19.44
-22.10
-24.06
-24.81
-24.02
-21.63
-17.83
-13.07
-7.87
-2.76
1.88
5.85
9.16
11.93
14.34
16.57
18.68
20.66
22.36
23.58
24.18
24.12
23.60
22.97
22.58
22.66
23.09
23.39
22.83
20.81
17.01
11.63
5.25
-1.37
-7.57
-12.99
-17.51
-21.09
-23.71
-25.30
-25.91
-25.78
-25.40
-25.34
-25.99
-27.36
-29.11
-30.62
-31.28
-30.63
-28.53
-25.16
-20.94
-16.42
-12.11
-8.38
-5.32
-2.85
-0.83
0.87
2.24
3.18
3.61
3.57
3.23
2.88
2.81
3.20
4.12
5.49
7.17
8.94
10.58
11.89
12.69
12.87
12.46
11.57
10.35
8.94
7.38
5.64
3.62
1.24
-1.48
-4.46
-7.50
-10.33
-12.60
-13.95
-14.08
-12.87
-10.47
-7.28
-3.83
-0.61
2.11
4.31
6.15
7.85
9.55
11.26
12.91
14.37
15.60
16.50
16.92
16.67
15.40
12.80
8.68
3.15
-3.36
-10.10
-16.27
-21.20
-24.55
-26.28
-26.59
-25.75
-24.00
-21.55
-18.69
-15.84
-13.53
-12.24
-12.17
-13.13
-14.49
-15.43
-15.21
-13.48
-10.35
-6.33
-2.11
1.73
4.93
7.51
9.73
11.80
13.80
15.60
16.94
17.56
17.35
16.40
14.98
13.40
11.96
10.87
10.19
9.91
9.95
10.15
10.32
10.23
9.69
8.58
6.92
4.88
2.70
0.65
-1.17
-2.82
-4.56
-6.75
-9.68
-13.49
-17.97
-22.70
-26.99
-30.13
-31.54
-30.90
-28.27
-24.07
-18.94
-13.57
-8.41
-3.65
0.83
5.26
9.74
14.12
18.04
21.04
22.77
23.15
22.37
20.82
18.96
17.15
15.64
14.49
13.72
13.28
13.12
13.15
13.27
13.32
13.12
12.50
11.41
9.92
8.18
6.42
4.69
2.88
0.64
-2.49
-6.88
-12.64
-19.44
-26.61
-33.23
-38.34
-41.13
-41.08
-38.10
-32.62
-25.47
-17.74
-10.46
-4.28
0.66
4.62
8.01
11.11
13.91
16.15
17.52
17.79
16.98
15.33
13.29
11.35
10.01
9.64
10.37
12.07
14.33
16.62
18.48
19.59
19.84
19.26
17.93
15.93
13.30
10.16
6.67
3.12
-0.18
-2.94
-4.98
-6.33
-7.20
-7.91
-8.82
-10.20
-12.13
-14.55
-17.28
-20.01
-22.40
-24.06
-24.69
-24.05
-22.09
-18.96
-14.98
-10.54
-6.01
-1.66
2.41
6.19
9.69
12.91
15.71
17.90
19.25
19.60
18.94
17.47
15.56
13.66
12.21
11.45
11.40
11.89
12.62
13.27
13.64
13.62
13.23
12.55
11.63
10.48
9.06
7.33
5.28
2.94
0.33
-2.51
-5.56
-8.73
-11.89
-14.82
-17.34
-19.36
-20.91
-22.10
-22.91
-23.19
-22.63
-20.92
-17.94
-13.90
-9.29
-4.72
-0.73
2.38
4.53
5.84
6.44
6.52
6.30
6.03
5.98
6.36
7.28
8.66
10.35
12.16
14.00
15.81
17.54
19.07
20.17
20.62
20.26
19.08
17.24
14.98
12.54
10.04
7.56
5.14
2.86
0.86
-0.70
-1.78
-2.43
-2.87
-3.33
-3.97
-4.83
-5.88
-7.13
-8.71
-10.92
-14.05
-18.10
-22.64
-26.80
-29.57
-30.18
-28.38
-24.54
-19.43
-13.86
-8.45
-3.44
1.16
5.45
9.49
13.21
16.51
19.24
21.34
22.77
23.51
23.61
23.16
22.30
21.21
20.05
18.91
17.82
16.73
15.57
14.28
12.81
11.13
9.31
7.44
5.71
4.33
3.42
3.05
3.07
3.24
3.24
2.83
1.89
0.45
-1.36
-3.38
-5.53
-7.80
-10.25
-12.98
-16.02
-19.31
-22.65
-25.73
-28.15
-29.48
-29.41
-27.77
-24.68
-20.49
-15.68
-10.80
-6.31
-2.49
0.58
2.94
4.66
5.81
6.41
6.47
6.02
5.17
4.11
3.14
2.55
2.59
3.34
4.73
6.54
8.53
10.46
12.12
13.33
13.93
13.78
12.82
11.09
8.73
5.92
2.89
-0.15
-2.96
-5.31
-7.00
-7.95
-8.26
-8.15
-7.89
-7.69
-7.64
-7.80
-8.30
-9.40
-11.41
-14.49
-18.43
-22.55
-25.88
-27.53
-27.03
-24.52
-20.59
-16.02
-11.34
-6.78
-2.24
2.35
6.96
11.27
14.91
17.58
19.22
19.98
20.06
19.62
18.66
17.17
15.21
13.04
11.09
9.89
9.87
11.16
13.59
16.63
19.59
21.70
22.37
21.40
19.11
16.30
14.08
13.26
13.76
14.36
12.86
6.86
-5.21
-23.18
-45.05
-67.48
-87.19
-102.09
-112.05
-118.55
-123.84
-129.76
-137.05
-145.57
-154.54
-162.75
-168.27
-168.55
-161.21
-145.51
-123.63
-100.53
-82.08
-71.81
-68.53
-65.89
-54.79
-27.55
18.60
79.98
147.61
210.23
257.59
282.89
283.89
262.66
224.78
177.99
130.49
89.72
61.41
49.56
56.19
81.37
122.95
176.36
234.99
291.29
338.23
370.81
386.87
387.00
373.77
350.71
321.20
287.97
252.92
217.64
183.89
153.86
129.79
113.31
104.51
101.73
101.90
101.71
98.75
92.19
82.45
70.45
56.63
40.76
22.36
1.67
-19.52
-38.15
-50.94
-56.05
-54.31
-49.20
-45.61
-47.61
-56.87
-72.06
-89.84
-106.33
-118.36
-123.96
-122.36
-114.04
-100.96
-86.69
-75.72
-71.95
-76.91
-89.12
-105.10
-121.48
-136.81
-151.66
-167.11
-182.89
-196.20
-202.80
-199.11
-184.53
-162.18
-137.92
-118.37
-108.98
-112.94
-130.64
-160.14
-197.94
-240.11
-283.17
-324.41
-361.59
-392.44
-415.05
-427.63
-429.02
-419.28
-399.75
-372.45
-339.28
-301.69
-261.47
-223.25
-193.57
-178.79
-181.87
-200.12
-225.54
-247.43
-256.35
-247.62
-224.50
-194.73
-166.10
-142.60
-123.62
-105.94
-85.87
-60.73
-29.12
6.38
41.72
72.33
94.24
104.52
101.27
84.84
58.44
43.85
58.28
107.47
180.91
259.60
328.44
381.06
418.45
443.93
460.53
467.20
462.10
445.23
419.85
391.65
364.97
342.53
324.61
310.00
295.06
276.40
252.50
224.59
195.96
168.00
141.83
117.17
94.02
70.64
45.13
16.40
-15.51
-49.72
-88.92
-127.65
-162.69
-190.52
-209.07
-217.38
-215.18
-202.71
-164.86
-97.48
-7.04
91.22
182.84
258.64
315.95
356.61
383.18
400.73
409.95
411.38
405.61
394.34
377.08
352.52
322.79
289.95
256.18
220.66
182.80
142.56
101.40
57.11
8.64
-42.76
-94.26
-142.88
-188.65
-232.47
-275.31
-316.94
-363.02
-416.41
-475.16
-533.59
-585.60
-628.28
-661.46
-686.08
-702.32
-718.28
-738.32
-760.46
-777.91
-783.76
-775.00
-753.49
-722.83
-635.37
-472.06
-248.42
-7.48
209.60
382.44
509.31
594.83
643.45
667.45
668.35
648.69
614.49
574.24
534.50
496.67
456.10
407.68
350.98
283.67
208.34
131.26
60.13
0.39
-46.81
-89.53
-136.62
-192.78
-262.24
-344.59
-435.39
-526.47
-607.82
-635.39
-584.19
-461.31
-302.71
-151.17
-32.59
47.63
97.46
129.19
152.51
166.62
168.25
157.22
137.74
116.74
100.10
90.76
88.78
91.85
92.51
84.93
68.12
45.89
23.92
6.46
-4.86
-10.13
-11.05
-12.27
-17.21
-26.24
-36.54
-44.11
-45.67
-40.23
-26.57
-5.31
20.62
48.09
74.89
100.17
123.86
146.06
164.86
180.64
193.58
203.12
208.54
209.38
205.81
198.49
188.51
177.15
166.08
156.46
149.45
146.24
147.36
151.76
155.88
154.24
141.30
114.69
76.50
33.51
-5.31
-32.77
-46.10
-47.77
-43.30
-38.24
-35.71
-36.58
-40.51
-47.14
-56.06
-65.79
-73.13
-74.16
-66.00
-48.95
-27.07
-6.89
5.42
6.69
-2.29
-18.19
-36.08
-52.54
-66.13
-76.79
-84.80
-90.03
-92.16
-91.17
-87.69
-82.79
-77.53
-72.65
-68.00
-62.98
-56.80
-48.96
-39.62
-29.60
-20.03
-11.97
-6.02
-2.11
0.41
2.36
4.45
6.97
9.82
12.58
14.75
16.02
16.40
16.19
15.76
15.45
15.39
15.49
15.49
15.11
14.16
12.61
10.59
8.27
5.77
3.22
0.65
-1.99
-4.78
-7.77
-11.01
-14.49
-18.25
-22.34
-26.59
-30.93
-35.29
-39.67
-44.06
-48.48
-53.00
-57.69
-62.72
-67.84
-72.92
-77.90
-82.73
-87.40
-91.92
-96.33
-100.73
-105.30
-109.71
-113.78
-117.42
-120.52
-122.92
-124.34
-124.28
-121.83
-119.38
-117.70
-117.17
-117.94
-119.95
-123.01
-126.80
-130.93
-135.02
-138.79
-141.46
-142.55
-141.77
-139.00
-134.27
-127.78
-119.82
-110.82
-101.27
-91.28
-81.08
-70.94
-61.12
-51.89
-43.51
-36.22
-30.25
-25.85
-22.97
-21.55
-21.54
-22.84
-25.29
-28.76
-33.07
-38.06
-43.60
-49.44
-55.37
-61.28
-67.08
-72.76
-78.33
-83.83
-89.28
-94.64
-99.75
-104.42
-108.36
-111.33
-113.11
-113.58
-112.73
-110.62
-107.33
-102.90
-97.30
-90.46
-82.36
-73.06
-62.78
-51.86
-40.68
-29.50
-18.36
-7.04
4.78
17.40
30.87
44.96
59.21
73.06
86.14
98.41
110.13
121.70
133.43
145.24
156.68
167.04
175.64
182.15
186.73
189.96
192.68
195.92
201.08
209.89
224.07
244.54
270.36
298.57
324.89
345.46
358.49
364.86
367.38
368.94
371.07
373.45
374.71
373.70
370.34
365.45
359.91
354.04
347.62
340.46
333.12
326.79
322.38
319.49
316.03
308.70
294.76
273.18
245.18
213.67
181.85
151.87
124.22
98.16
72.55
47.00
22.23
-0.34
-19.16
-33.46
-43.50
-50.81
-57.91
-68.09
-84.60
-109.77
-143.73
-183.41
-222.77
-254.12
-270.63
-268.41
-247.84
-212.86
-169.14
-122.03
-75.05
-29.70
13.94
56.10
96.05
131.14
156.66
166.80
156.71
124.94
74.98
14.84
-45.46
-97.26
-135.64
-159.69
-170.76
-170.20
-158.23
-134.73
-100.85
-60.32
-18.96
17.34
44.97
63.55
75.23
83.00
88.71
92.36
92.67
88.26
78.86
65.98
52.39
41.23
34.80
33.85
37.26
42.31
45.26
42.20
30.19
8.25
-21.81
-55.54
-86.95
-110.14
-121.26
-119.55
-107.29
-88.92
-69.40
-52.82
-41.51
-35.88
-34.67
-35.66
-36.27
-34.17
-27.90
-17.16
-2.85
13.18
28.56
41.04
48.91
51.36
48.47
41.31
31.79
22.32
15.31
12.39
13.86
18.31
23.00
24.59
20.22
8.28
-11.24
-36.93
-66.27
-96.04
-122.62
-142.46
-152.81
-152.44
-141.97
-123.66
-100.79
-76.73
-54.34
-35.69
-22.14
-14.25
-11.60
-12.77
