1660938880.00
64.000000
-0.00
-0.00
-0.00
-0.00
-0.00
-0.00
-0.00
-0.00
-0.00
-0.00
0.00
0.01
0.01
-0.00
-0.03
-0.05
-0.05
0.00
0.13
0.36
0.66
1.01
1.37
1.72
2.06
2.40
2.79
3.25
3.81
4.44
5.10
5.73
6.32
6.90
7.52
8.26
9.15
10.27
11.51
12.74
13.85
14.81
15.70
16.71
18.07
19.90
22.40
25.36
28.47
31.45
34.18
36.78
39.61
43.12
47.60
53.37
60.00
66.95
73.67
79.90
85.85
92.12
99.44
108.26
118.94
130.81
142.95
154.55
165.24
175.39
185.88
198.11
210.63
225.32
242.40
261.73
282.16
301.16
314.95
319.36
311.16
289.21
255.28
212.55
164.94
115.71
66.90
19.48
-26.08
-69.32
-109.77
-146.99
-181.61
-214.95
-248.67
-283.98
-320.68
-356.66
-388.07
-410.48
-420.24
-416.10
-399.70
-374.98
-346.58
-318.20
-291.66
-267.03
-243.60
-220.76
-198.77
-178.39
-160.27
-144.44
-130.18
-116.49
-102.58
-88.33
-74.25
-61.22
-49.99
-40.80
-33.33
-26.86
-20.67
-14.33
-7.86
-1.67
3.72
7.95
10.98
13.14
14.87
16.59
18.50
20.53
22.48
24.09
25.16
25.68
25.73
25.48
25.10
24.73
24.41
24.12
23.80
23.39
22.88
22.30
21.75
21.28
20.92
20.65
20.36
19.97
19.41
18.70
17.92
17.17
16.55
16.12
15.85
15.64
15.39
15.01
14.50
13.94
13.40
12.94
12.57
12.26
11.97
11.71
11.49
11.30
11.11
10.85
10.47
9.99
9.49
9.08
8.84
8.77
8.79
8.79
8.71
8.53
8.26
7.95
7.63
7.34
7.10
6.96
6.94
6.98
6.99
6.86
6.49
5.90
5.16
4.42
3.78
3.28
2.91
2.62
2.33
1.97
1.47
0.80
-0.04
-0.96
-1.83
-2.53
-3.05
-3.46
-3.89
-4.45
-5.16
-5.94
-6.70
-7.37
-7.95
-8.46
-8.91
-9.25
-9.42
-9.38
-9.17
-8.86
-8.59
-8.44
-8.42
-8.48
-8.53
-8.45
-8.16
-7.62
-6.88
-6.02
-5.14
-4.31
-3.56
-2.87
-2.25
-1.70
-1.25
-0.91
-0.69
-0.53
-0.38
-0.18
0.09
0.39
0.72
1.07
1.44
1.84
2.24
2.61
2.90
3.08
3.17
3.18
3.16
3.15
3.17
3.23
3.30
3.35
3.35
3.31
3.24
3.22
3.28
3.45
3.69
3.93
4.12
4.22
4.25
4.22
4.17
4.10
4.03
3.99
4.02
4.13
4.30
4.45
4.48
4.38
4.17
3.98
3.91
4.00
4.19
4.34
4.35
4.20
3.98
3.81
3.78
3.86
3.96
3.95
3.78
3.50
3.25
3.13
3.11
3.12
3.01
2.75
2.38
2.02
1.77
1.63
1.54
1.38
1.10
0.78
0.53
0.49
0.69
1.04
1.40
1.65
1.72
1.59
1.30
0.88
0.40
-0.06
-0.41
-0.58
-0.55
-0.39
-0.21
-0.14
-0.21
-0.35
-0.44
-0.36
-0.06
0.41
0.97
1.55
2.11
2.64
3.12
3.47
3.60
3.43
2.97
2.31
1.64
1.13
0.90
0.94
1.15
1.38
1.50
1.47
1.35
1.22
1.16
1.19
1.26
1.28
1.21
1.04
0.81
0.59
0.44
0.36
0.35
0.35
0.32
0.24
0.13
-0.03
-0.24
-0.50
-0.83
-1.17
-1.46
-1.57
-1.45
-1.10
-0.65
-0.20
0.17
0.53
0.98
1.66
2.60
3.67
4.71
5.47
5.83
5.76
5.30
4.57
3.70
2.82
2.00
1.30
0.71
0.21
-0.24
-0.61
-0.83
-0.86
-0.69
-0.41
-0.19
-0.15
-0.35
-0.71
-1.10
-1.37
-1.47
-1.43
-1.36
-1.34
-1.42
-1.53
-1.59
-1.51
-1.21
-0.71
-0.07
0.59
1.13
1.45
1.50
1.34
1.08
0.81
0.60
0.49
0.46
0.52
0.69
0.97
1.31
1.60
1.72
1.60
1.26
0.81
0.41
0.19
0.19
0.37
0.63
0.86
0.96
0.88
0.61
0.17
-0.31
-0.69
-0.83
-0.66
-0.23
0.28
0.70
0.86
0.73
0.37
-0.06
-0.41
-0.57
-0.50
-0.21
0.23
0.73
1.21
1.61
1.90
2.08
2.15
2.10
1.95
1.75
1.53
1.36
1.25
1.13
0.93
0.61
0.20
-0.16
-0.35
-0.29
0.01
0.36
0.60
0.56
0.23
-0.33
-0.95
-1.50
-1.86
-1.97
-1.85
-1.51
-1.05
-0.54
-0.09
0.23
0.39
0.40
0.34
0.29
0.29
0.35
0.44
0.56
0.69
0.88
1.11
1.34
1.48
1.44
1.20
0.78
0.30
-0.14
-0.46
-0.62
-0.59
-0.42
-0.17
0.09
0.26
0.27
0.12
-0.10
-0.29
-0.33
-0.21
0.02
0.27
0.45
0.52
0.50
0.45
0.43
0.45
0.49
0.53
0.54
0.52
0.49
0.47
0.44
0.39
0.30
0.19
0.07
-0.01
0.00
0.09
0.23
0.33
0.33
0.19
-0.05
-0.32
-0.54
-0.65
-0.63
-0.51
-0.34
-0.15
0.04
0.23
0.39
0.50
0.54
0.49
0.37
0.21
0.06
-0.05
-0.11
-0.11
-0.04
0.09
0.23
0.35
0.41
0.38
0.26
0.10
-0.07
-0.19
-0.21
-0.15
-0.06
-0.02
-0.08
-0.26
-0.47
-0.62
-0.60
-0.40
-0.07
0.27
0.51
0.58
0.52
0.41
0.34
0.36
0.44
0.53
0.54
0.41
0.16
-0.11
-0.28
-0.26
-0.05
0.27
0.55
0.67
0.62
0.45
0.28
0.20
0.20
0.23
0.23
0.16
0.06
-0.02
-0.04
-0.02
0.02
0.02
-0.03
-0.08
-0.08
-0.01
0.13
0.28
0.37
0.38
0.31
0.19
0.09
0.04
0.06
0.12
0.19
0.20
0.16
0.08
-0.00
-0.05
-0.05
-0.02
0.03
0.08
0.12
0.14
0.14
0.12
0.04
-0.08
-0.22
-0.32
-0.33
-0.23
-0.03
0.19
0.35
0.36
0.23
0.00
-0.20
-0.31
-0.28
-0.15
0.01
0.15
0.26
0.39
0.58
0.80
1.00
1.09
1.02
0.79
0.45
0.08
-0.26
-0.50
-0.61
-0.59
-0.47
-0.29
-0.10
0.05
0.09
0.04
-0.12
-0.34
-0.58
-0.77
-0.84
-0.75
-0.47
-0.08
0.32
0.60
0.69
0.59
0.35
0.06
-0.23
-0.49
-0.71
-0.87
-0.93
-0.84
-0.59
-0.22
0.16
0.48
0.69
0.83
0.93
1.03
1.09
1.04
0.80
0.35
-0.20
-0.71
-1.04
-1.14
-1.05
-0.86
-0.68
-0.54
-0.43
-0.28
-0.11
0.06
0.16
0.15
0.04
-0.10
-0.16
-0.09
0.10
0.31
0.45
0.42
0.25
0.00
-0.19
-0.26
-0.18
-0.01
0.15
0.26
0.31
0.36
0.48
0.69
0.96
1.22
1.38
1.41
1.32
1.18
1.01
0.83
0.61
0.31
-0.08
-0.52
-0.91
-1.17
-1.25
-1.17
-1.01
-0.84
-0.67
-0.52
-0.33
-0.09
0.21
0.49
0.66
0.65
0.42
0.01
-0.52
-1.00
-1.31
-1.38
-1.22
-0.93
-0.66
-0.46
-0.31
-0.16
0.04
0.28
0.45
0.42
0.15
-0.26
-0.63
-0.73
-0.48
0.07
0.73
1.25
1.48
1.43
1.18
0.92
0.75
0.71
0.75
0.77
0.72
0.55
0.31
0.01
-0.28
-0.52
-0.67
-0.73
-0.69
-0.58
-0.44
-0.30
-0.16
-0.05
0.02
0.00
-0.11
-0.29
-0.44
-0.45
-0.21
0.24
0.77
1.19
1.34
1.21
0.87
0.49
0.20
0.08
0.09
0.18
0.29
0.40
0.48
0.49
0.38
0.12
-0.30
-0.76
-1.11
-1.24
-1.11
-0.79
-0.45
-0.25
-0.26
-0.43
-0.65
-0.76
-0.69
-0.47
-0.20
0.02
0.12
0.12
0.07
0.01
-0.05
-0.15
-0.30
-0.45
-0.51
-0.36
-0.01
0.46
0.87
1.06
0.98
0.70
0.39
0.18
0.11
0.14
0.19
0.22
0.22
0.26
0.35
0.48
0.58
0.59
0.48
0.30
0.08
-0.14
-0.32
-0.45
-0.48
-0.38
-0.16
0.11
0.33
0.35
0.11
-0.37
-1.02
-1.71
-2.36
-2.94
-3.48
-4.01
-4.53
-4.99
-5.33
-5.49
-5.48
-5.39
-5.36
-5.54
-6.01
-6.79
-7.77
-8.79
-9.71
-10.43
-10.97
-11.49
-12.19
-13.26
-14.77
-16.63
-18.63
-20.53
-22.20
-23.70
-25.25
-27.17
-29.66
-32.69
-36.03
-39.33
-42.36
-45.13
-48.00
-51.59
-56.51
-63.15
-71.47
-80.95
-90.80
-100.22
-108.76
-116.47
-123.86
-131.60
-140.25
-150.11
-161.24
-173.43
-185.98
-197.39
-205.19
-206.30
-197.81
-178.14
-147.69
-108.74
-64.48
-17.56
30.83
80.78
132.54
185.11
235.64
280.01
314.39
336.90
348.45
352.19
352.12
351.51
351.92
353.21
354.47
354.91
354.36
352.95
350.39
345.29
335.32
317.96
291.61
256.32
213.89
166.91
117.51
66.66
14.40
-38.95
-91.57
-139.72
-178.66
-204.50
-215.96
-214.96
-205.76
-193.09
-180.47
-169.38
-159.59
-150.30
-141.07
-132.15
-124.15
-117.41
-111.64
-106.05
-99.81
-92.52
-84.38
-76.18
-68.77
-62.75
-58.15
-54.52
-51.12
-47.28
-42.71
-37.58
-32.44
-27.87
-24.29
-21.71
-19.81
-18.08
-16.12
-13.78
-11.20
-8.72
-6.62
-5.07
-3.99
-3.21
-2.51
-1.80
-1.08
-0.44
0.03
0.32
0.48
0.57
0.64
0.68
0.69
0.69
0.69
0.71
0.71
0.65
0.46
0.14
-0.21
-0.48
-0.56
-0.44
-0.21
-0.03
0.00
-0.12
-0.31
-0.44
-0.39
-0.16
0.21
0.60
0.90
1.05
1.06
1.03
1.08
1.27
1.62
2.00
2.30
2.39
2.26
1.97
1.63
1.34
1.10
0.87
0.59
0.23
-0.18
-0.61
-1.04
-1.49
-1.97
-2.49
-2.97
-3.34
-3.54
-3.59
-3.56
-3.51
-3.44
-3.26
-2.81
-2.03
-0.94
0.29
1.38
2.12
2.39
2.24
1.80
1.25
0.71
0.27
-0.02
-0.14
-0.07
0.17
0.56
1.02
1.49
1.92
2.29
2.60
2.82
2.92
2.82
2.44
1.73
0.67
-0.69
-2.21
-3.71
-5.00
-5.97
-6.61
-6.98
-7.13
-7.12
-6.93
-6.52
-5.91
-5.19
-4.49
-3.88
-3.29
-2.51
-1.25
0.69
3.28
6.23
9.03
11.19
12.38
12.52
11.79
10.49
8.91
7.20
5.42
3.61
1.82
0.20
-1.06
-1.81
-2.05
-1.89
-1.56
-1.26
-1.13
-1.18
-1.31
-1.44
-1.49
-1.49
-1.50
-1.57
-1.69
-1.77
-1.72
-1.47
-1.07
-0.59
-0.16
0.16
0.33
0.36
0.28
0.09
-0.16
-0.40
-0.49
-0.36
0.02
0.55
1.10
1.55
1.84
1.96
1.89
1.56
0.89
-0.17
-1.55
-3.06
-4.41
-5.35
-5.76
-5.67
-5.22
-4.61
-4.00
-3.45
-2.95
-2.43
-1.85
-1.21
-0.57
0.05
0.66
1.37
2.33
3.59
5.09
6.59
7.75
8.27
8.03
7.10
5.72
4.18
2.72
1.46
0.44
-0.33
-0.85
-1.08
-1.05
-0.80
-0.47
-0.19
-0.07
-0.16
-0.43
-0.82
-1.28
-1.77
-2.28
-2.75
-3.13
-3.27
-3.10
-2.58
-1.76
-0.79
0.13
0.84
1.23
1.24
0.92
0.39
-0.22
-0.71
-0.97
-0.95
-0.71
-0.40
-0.14
-0.03
-0.07
-0.17
-0.25
-0.25
-0.22
-0.23
-0.39
-0.74
-1.25
-1.83
-2.34
-2.67
-2.73
-2.55
-2.23
-1.88
-1.59
-1.37
-1.12
-0.69
-0.00
0.96
2.07
3.14
3.99
4.50
4.63
4.42
3.96
3.34
2.70
2.16
1.78
1.60
1.54
1.45
1.16
0.56
-0.29
-1.20
-1.90
-2.21
-2.08
-1.66
-1.15
-0.72
-0.48
-0.41
-0.49
-0.73
-1.21
-2.01
-3.12
-4.38
-5.52
-6.26
-6.42
-6.03
-5.33
-4.62
-4.15
-3.98
-3.99
-4.01
-3.92
-3.74
-3.52
-3.22
-2.58
-1.23
1.15
4.62
8.81
13.12
16.86
19.55
21.03
21.35
20.63
18.96
16.38
12.99
9.10
5.16
1.66
-1.09
-3.00
-4.22
-5.00
-5.56
-6.01
-6.33
-6.45
-6.29
-5.79
-4.96
-3.85
-2.57
-1.27
-0.15
0.68
1.15
1.32
1.29
1.12
0.82
0.35
-0.32
-1.14
-1.97
-2.61
-2.94
-2.99
-2.91
-2.88
-2.95
-3.04
-2.96
-2.58
-1.94
-1.26
-0.80
-0.70
-0.92
-1.26
-1.53
-1.62
-1.59
-1.55
-1.61
-1.74
-1.86
-1.84
-1.66
-1.40
-1.18
-1.12
-1.26
-1.54
-1.87
-2.19
-2.45
-2.65
-2.81
-2.92
-2.99
-2.99
-2.90
-2.73
-2.53
-2.38
-2.34
-2.44
-2.68
-2.97
-3.20
-3.27
-3.15
-2.90
-2.65
-2.55
-2.65
-2.91
-3.18
-3.31
-3.20
-2.82
-2.17
-1.29
-0.21
1.04
2.35
3.53
4.36
4.68
4.42
3.65
2.54
1.30
0.09
-0.99
-1.88
-2.55
-3.02
-3.33
-3.51
-3.61
-3.58
-3.34
-2.76
-1.75
-0.29
1.50
3.46
5.42
7.22
8.75
9.97
10.80
11.23
11.26
10.95
10.41
9.77
9.10
8.40
7.59
6.54
5.19
3.55
1.72
-0.16
-2.00
-3.80
-5.53
-7.18
-8.63
-9.73
-10.30
-10.30
-9.78
-8.86
-7.65
-6.16
-4.35
-2.17
0.27
2.70
4.73
5.94
6.00
4.81
2.50
-0.58
-3.94
-7.10
-9.66
-11.40
-12.24
-12.24
-11.56
-10.39
-8.91
-7.23
-5.44
-3.49
-1.29
1.37
4.61
8.36
12.26
15.69
18.03
18.91
18.46
17.16
15.60
14.18
12.88
11.36
9.22
6.29
2.79
-0.85
-4.18
-7.00
-9.32
-11.28
-12.94
-14.24
-15.08
-15.39
-15.25
-14.84
-14.40
-14.10
-14.00
-14.01
-13.99
-13.73
-13.05
-11.87
-10.24
-8.44
-6.86
-5.90
-5.78
-6.44
-7.47
-8.37
-8.77
-8.67
-8.45
-8.69
-9.83
-11.88
-14.42
-16.78
-18.43
-19.27
-19.68
-20.28
-21.51
-23.41
-25.52
-27.19
-27.93
-27.72
-27.01
-26.50
-26.74
-27.92
-29.79
-31.91
-33.83
-35.40
-36.72
-38.08
-39.90
-42.65
-46.94
-53.43
-62.51
-73.64
-84.72
-92.19
-91.94
-81.03
-59.13
-29.06
4.16
35.09
59.84
77.01
87.33
92.48
93.87
92.12
87.41
80.13
71.34
62.60
55.23
49.67
45.26
40.56
34.21
25.61
15.34
4.92
-3.98
-10.49
-15.02
-19.12
-24.72
-33.11
-44.29
-57.01
-69.45
-80.03
-87.80
-92.35
-93.49
-91.25
-86.10
-79.51
-73.80
-71.15
-72.08
-74.34
-73.19
-63.28
-41.36
-7.99
32.26
72.84
107.93
134.57
153.12
166.04
176.02
184.61
192.02
197.74
201.42
203.56
205.25
207.59
211.30
216.47
222.48
228.13
231.61
230.45
221.92
203.65
174.56
135.54
89.47
40.53
-6.84
-48.87
-83.01
-107.96
-123.47
-130.17
-129.52
-123.71
-115.37
-106.94
-100.08
-95.29
-92.04
-89.33
-86.16
-82.03
-76.98
-71.35
-65.46
-59.60
-53.86
-48.20
-42.69
-37.49
-32.88
-29.01
-25.81
-22.85
-19.52
-15.25
-9.86
-3.74
2.22
6.98
9.82
10.76
10.67
11.01
13.17
17.80
24.39
31.42
36.93
39.46
38.71
35.73
32.56
31.60
34.76
42.73
54.42
66.63
74.41
72.14
55.38
22.80
-22.66
-74.26
-123.55
-163.34
-189.98
-204.20
-210.04
-212.57
-215.51
-219.77
-223.20
-221.58
-210.35
-186.54
-150.24
-105.09
-57.34
-13.70
20.78
44.29
58.08
65.04
67.79
67.67
64.74
58.93
51.01
42.64
35.63
30.85
27.97
26.05
24.65
24.41
26.80
32.96
42.70
54.24
64.84
72.08
74.77
73.21
68.72
62.80
56.65
51.04
46.44
43.19
41.42
40.93
41.16
41.33
40.78
39.25
36.85
34.13
31.76
30.31
30.02
30.67
31.63
31.99
30.87
27.75
22.75
16.57
10.36
5.36
2.46
1.98
3.58
6.46
9.70
12.56
14.74
16.38
17.90
19.79
22.37
25.80
30.10
35.04
40.07
44.10
45.64
43.19
35.90
24.19
9.75
-4.88
-17.36
-26.36
-31.97
-35.31
-37.82
-40.51
-43.61
-46.80
-49.63
-51.90
-53.73
-55.31
-56.70
-57.67
-57.84
-56.89
-54.72
-51.52
-47.59
-43.24
-38.64
-33.83
-28.76
-23.34
-17.50
-11.28
-4.89
1.24
6.53
10.37
12.46
12.92
12.34
11.51
11.09
11.34
12.05
12.66
12.58
11.40
9.12
6.07
2.81
-0.10
-2.24
-3.48
-3.93
-3.87
-3.61
-3.33
-3.08
-2.80
-2.47
-2.14
-1.95
-2.05
-2.52
-3.30
-4.18
-4.91
-5.26
-5.10
-4.45
-3.52
-2.63
-2.14
-2.24
-2.98
-4.14
-5.43
-6.53
-7.25
-7.60
-7.65
-7.52
-7.33
-7.21
-7.34
-7.85
-8.72
-9.57
-9.67
-8.20
-4.67
0.75
7.10
13.04
17.30
19.24
19.04
17.49
15.54
13.92
12.91
12.42
12.20
12.10
12.07
12.18
12.45
12.80
13.06
13.05
12.68
12.01
11.21
10.51
10.10
10.11
10.57
11.46
12.68
14.08
15.44
16.46
16.77
16.04
14.07
10.89
6.77
2.21
-2.14
-5.65
-7.86
-8.58
-7.92
-6.25
-4.05
-1.70
0.55
2.71
4.89
7.26
9.87
12.67
15.56
18.45
21.36
24.40
27.71
31.36
35.28
39.29
43.13
46.46
48.89
49.94
49.08
45.80
39.74
30.90
19.67
6.85
-6.49
-19.17
-30.13
-38.61
-44.26
-47.19
-47.89
-47.02
-45.22
-42.97
-40.50
-37.83
-34.94
-31.86
-28.68
-25.55
-22.61
-19.92
-17.46
-15.14
-12.88
-10.63
-8.37
-6.14
-3.93
-1.67
0.76
3.46
6.45
9.61
12.69
15.38
17.43
18.57
18.50
16.87
13.43
8.23
1.80
-4.82
-10.38
-13.82
-14.74
-13.48
-10.94
-8.20
-6.06
-4.94
-4.83
-5.51
-6.62
-7.79
-8.67
-8.96
-8.49
-7.31
-5.64
-3.75
-1.90
