1660753583.00
64.000000
-0.00
-0.00
-0.00
-0.00
-0.00
-0.00
-0.00
-0.00
-0.00
-0.00
0.00
0.01
0.01
-0.00
-0.03
-0.05
-0.05
0.00
0.13
0.36
0.66
1.01
1.37
1.72
2.06
2.40
2.79
3.24
3.80
4.42
5.06
5.66
6.20
6.68
7.15
7.68
8.31
9.14
10.09
11.04
11.88
12.56
13.14
13.76
14.65
15.96
17.91
20.32
22.90
25.38
27.58
29.57
31.68
34.32
37.81
42.54
48.15
54.10
59.83
64.97
69.58
74.14
79.34
85.71
93.76
103.00
112.62
121.73
129.77
136.75
143.30
150.75
157.77
166.64
177.95
191.79
206.97
220.57
228.25
225.36
208.53
176.87
132.76
80.05
23.07
-34.94
-92.44
-149.16
-205.23
-260.37
-313.74
-363.87
-409.83
-450.91
-486.50
-515.74
-537.23
-549.22
-549.96
-538.37
-514.21
-478.67
-433.88
-382.45
-327.02
-269.84
-212.63
-156.66
-102.95
-52.37
-5.90
35.58
71.43
101.35
125.50
144.38
158.69
169.15
176.37
180.75
182.57
182.07
179.51
175.23
169.65
163.18
156.15
148.81
141.30
133.69
126.02
118.33
110.69
103.16
95.80
88.68
81.83
75.25
68.95
62.95
57.25
51.86
46.78
42.03
37.59
33.45
29.61
26.07
22.81
19.83
17.11
14.67
12.48
10.54
8.83
7.35
6.07
4.97
4.05
3.27
2.62
2.09
1.65
1.30
1.01
0.79
0.61
0.47
0.37
0.29
0.23
0.19
0.17
0.15
0.15
0.16
0.18
0.20
0.23
0.27
0.31
0.35
0.39
0.43
0.48
0.53
0.58
0.63
0.69
0.75
0.81
0.88
0.95
1.04
1.13
1.22
1.34
1.47
1.62
1.80
2.00
2.19
2.38
2.55
2.70
2.88
3.11
3.40
3.78
4.22
4.69
5.17
5.63
6.09
6.58
7.14
7.80
8.56
9.40
10.26
11.08
11.80
12.48
13.19
14.03
15.07
16.33
17.69
18.98
19.98
20.55
20.62
20.27
19.60
18.68
17.47
15.70
13.07
9.26
4.19
-1.89
-8.41
-14.68
-20.10
-24.41
-27.75
-30.59
-33.44
-36.61
-40.00
-43.12
-45.36
-46.28
-45.84
-44.49
-42.95
-41.98
-42.18
-43.94
-47.30
-51.84
-56.36
-58.86
-57.06
-49.30
-35.52
-17.62
0.98
16.68
27.09
31.84
32.34
30.78
28.96
27.62
26.47
24.87
22.44
19.43
16.52
14.34
13.19
12.93
13.16
13.41
13.47
13.36
13.25
13.30
13.43
13.39
12.84
11.51
9.46
7.04
4.82
3.30
2.67
2.82
3.35
3.80
3.83
3.39
2.54
1.59
0.84
0.42
0.32
0.43
0.69
1.04
1.43
1.73
1.74
1.30
0.34
-1.04
-2.58
-3.96
-4.96
-5.48
-5.52
-5.15
-4.59
-4.14
-4.13
-4.82
-6.28
-8.32
-10.51
-12.28
-13.05
-12.41
-10.21
-6.67
-2.37
1.89
5.34
7.46
8.17
7.80
6.84
5.75
4.75
3.86
3.04
2.37
2.02
2.13
2.69
3.54
4.38
5.01
5.38
5.59
5.80
6.09
6.42
6.63
6.57
6.13
5.34
4.29
3.09
1.83
0.55
-0.69
-1.75
-2.47
-2.76
-2.69
-2.58
-2.88
-4.01
-6.11
-8.92
-11.81
-13.96
-14.70
-13.84
-11.68
-8.84
-5.99
-3.57
-1.70
-0.28
0.87
1.86
2.79
3.74
4.85
6.25
7.95
9.72
11.21
12.03
11.99
11.20
9.98
8.69
7.58
6.71
5.97
5.22
4.41
3.59
2.93
2.53
2.39
2.40
2.38
2.25
1.96
1.46
0.62
-0.78
-2.92
-5.78
-9.07
-12.31
-14.95
-16.51
-16.72
-15.54
-13.13
-9.90
-6.36
-3.09
-0.53
1.17
2.28
3.22
4.46
6.16
8.12
9.92
11.13
11.47
10.95
9.79
8.32
6.91
5.79
5.04
4.58
4.23
3.82
3.24
2.45
1.46
0.29
-0.90
-1.74
-1.64
-0.10
2.87
6.57
9.61
10.52
8.43
3.50
-3.08
-9.64
-14.77
-17.80
-18.86
-18.54
-17.44
-15.89
-13.94
-11.62
-9.04
-6.50
-4.30
-2.61
-1.30
-0.12
1.26
2.93
4.70
6.21
7.02
6.91
5.99
4.61
3.20
2.17
1.65
1.61
1.87
2.22
2.45
2.46
2.22
1.80
1.37
1.13
1.31
1.93
2.86
3.76
4.19
3.82
2.55
0.61
-1.54
-3.35
-4.41
-4.65
-4.30
-3.80
-3.58
-3.85
-4.58
-5.50
-6.23
-6.50
-6.20
-5.37
-4.19
-2.86
-1.50
-0.18
1.09
2.25
3.27
4.15
4.97
5.81
6.77
7.80
8.74
9.37
9.51
9.15
8.45
7.64
6.93
6.43
6.16
6.09
6.09
5.92
5.27
3.80
1.29
-2.21
-6.30
-10.32
-13.45
-15.00
-14.65
-12.55
-9.30
-5.77
-2.82
-0.94
-0.18
-0.18
-0.41
-0.42
-0.06
0.55
1.19
1.64
1.82
1.74
1.44
1.03
0.73
0.84
1.63
3.21
5.29
7.36
8.79
9.17
8.39
6.65
4.27
1.57
-1.22
-3.96
-6.60
-9.12
-11.49
-13.71
-15.86
-18.05
-20.39
-22.90
-25.40
-27.48
-28.63
-28.44
-26.91
-24.53
-22.08
-20.28
-19.47
-19.45
-19.81
-20.16
-20.56
-21.39
-23.17
-26.16
-30.37
-35.51
-41.25
-47.29
-53.45
-59.62
-65.80
-72.11
-78.71
-85.70
-92.89
-99.63
-104.96
-107.86
-107.66
-104.33
-98.42
-90.91
-82.71
-74.35
-65.70
-56.39
-46.16
-35.41
-25.10
-16.13
-8.70
-1.87
5.73
14.89
25.10
34.84
42.90
49.39
55.44
61.48
65.56
63.11
49.03
20.90
-18.99
-64.35
-107.82
-144.26
-172.43
-193.61
-209.31
-219.30
-221.92
-216.04
-202.75
-185.74
-169.46
-156.79
-147.59
-139.13
-127.75
-110.81
-88.10
-62.13
-37.41
-19.15
-11.34
-14.91
-26.73
-39.88
-45.26
-33.92
-0.18
55.86
127.34
201.52
262.70
296.20
292.99
253.22
187.15
112.20
47.59
8.55
2.03
25.07
66.39
110.35
142.02
152.43
140.04
110.13
71.98
35.42
7.84
-7.50
-10.76
-3.86
13.46
41.58
79.45
123.63
169.37
212.78
252.31
289.03
325.63
368.89
422.32
483.08
542.44
589.94
617.87
623.05
605.99
569.32
523.46
476.98
433.76
393.46
355.77
323.60
301.64
293.32
298.77
324.13
371.33
435.82
507.43
575.49
633.47
678.85
711.27
673.61
536.95
315.21
61.80
-167.21
-342.78
-462.15
-536.51
-580.11
-604.80
-609.10
-590.76
-552.01
-501.39
-451.73
-411.35
-383.39
-366.54
-357.33
-344.91
-321.69
-286.33
-244.16
-205.53
-177.42
-162.75
-160.29
-167.66
-175.06
-176.78
-171.85
-163.83
-161.28
-169.61
-191.04
-223.45
-262.98
-304.17
-343.97
-381.78
-396.33
-375.65
-320.95
-248.18
-174.03
-107.78
-50.71
-1.02
43.78
85.49
115.41
135.23
146.58
152.96
157.89
163.28
168.91
173.47
175.03
168.42
156.71
140.49
121.89
103.27
85.90
69.63
53.82
37.96
20.41
1.42
-19.21
-40.12
-59.81
-77.70
-94.36
-111.06
-129.28
-151.00
-176.48
-205.25
-234.25
-258.75
-274.01
-276.82
-266.55
-245.32
-217.36
-186.78
-157.05
-129.37
-103.25
-77.66
-52.03
-26.70
-2.73
18.60
36.36
49.75
58.60
63.39
65.09
64.81
63.57
61.95
60.19
58.38
56.67
55.46
55.07
55.16
54.43
50.85
42.32
27.59
6.98
-17.54
-42.89
-65.66
-83.12
-93.74
-97.45
-95.42
-89.69
-82.59
-76.22
-71.97
-70.23
-70.38
-71.00
-70.44
-67.58
-62.33
-55.90
-50.17
-46.78
-46.12
-46.95
-46.95
-43.84
-36.57
-25.81
-13.58
-2.30
6.17
11.00
12.23
10.31
5.82
-0.68
-8.37
-16.08
-22.39
-25.97
-25.98
-22.22
-15.15
-5.53
5.78
17.96
30.23
41.67
51.15
57.35
58.94
54.96
45.34
31.29
15.51
1.73
-6.23
-5.72
3.73
20.19
40.01
59.13
74.22
83.27
85.49
80.90
70.35
55.58
39.56
26.05
18.43
18.02
23.00
28.78
29.98
23.04
8.15
-10.77
-27.89
-38.43
-40.71
-36.64
-30.27
-25.47
-23.97
-24.93
-26.11
-25.93
-24.80
-24.97
-29.06
-38.47
-52.80
-70.70
-91.11
-113.99
-139.41
-165.85
-188.77
-201.02
-195.31
-167.80
-120.84
-62.96
-6.01
39.34
67.54
79.47
80.99
79.52
80.76
86.67
95.78
104.86
111.02
113.02
111.31
107.38
102.85
98.96
96.54
96.11
97.84
101.42
105.93
110.05
112.54
112.75
110.95
108.23
106.20
106.45
110.04
116.94
125.20
130.83
128.43
113.32
84.22
45.15
5.03
-25.49
-38.59
-33.06
-14.74
6.38
20.93
23.94
15.71
-0.19
-19.96
-41.45
-63.86
-86.01
-105.17
-117.57
-120.65
-115.11
-105.36
-97.65
-97.01
-104.84
-118.41
-132.52
-142.23
-145.06
-141.77
-135.44
-129.66
-126.89
-127.61
-130.49
-133.22
-133.16
-127.91
-116.00
-97.60
-75.16
-52.99
-35.75
-26.09
-22.89
-21.07
-13.38
6.76
42.79
93.72
154.51
217.47
274.26
317.86
344.42
354.46
352.79
347.11
345.18
352.18
369.03
392.72
418.43
441.69
459.63
470.95
474.98
470.92
458.04
436.39
407.73
375.44
343.68
315.98
293.90
276.57
261.23
244.64
224.62
201.02
175.60
151.08
129.59
111.75
96.52
81.96
66.33
48.97
30.43
12.08
-4.72
-19.27
-31.83
-43.54
-55.85
-69.83
-85.77
-103.10
-120.66
-137.37
-152.73
-167.09
-181.58
-197.54
-215.87
-236.60
-258.81
-281.13
-302.39
-322.31
-341.63
-361.68
-383.74
-408.55
-436.13
-466.55
-500.27
-537.78
-578.25
-618.63
-654.04
-679.75
-693.59
-697.02
-694.02
-688.24
-680.37
-667.53
-645.20
-610.46
-564.24
-511.12
-456.94
-405.95
-359.23
-315.36
-272.38
-229.50
-187.40
-147.34
-109.99
-75.00
-41.37
-8.07
25.29
58.14
89.62
119.12
146.77
173.46
200.42
228.64
258.37
289.16
320.03
350.12
379.12
407.35
435.91
466.56
501.51
542.62
590.07
641.03
689.18
725.76
742.21
733.20
698.67
643.87
577.20
507.08
439.50
377.12
319.97
266.84
216.45
167.74
119.73
71.35
21.68
-29.76
-82.52
-135.53
-187.59
-237.91
-286.79
-335.87
-387.95
-446.09
-511.83
-583.35
-654.57
-716.00
-757.55
-772.31
-759.19
-723.32
-673.77
-619.88
-568.09
-520.76
-477.14
-435.57
-395.23
-356.64
-320.83
-288.25
-258.16
-229.05
-199.48
-168.91
-137.95
-108.19
-81.26
-58.05
-38.36
-20.95
-3.99
14.09
34.11
55.81
78.07
99.53
119.18
136.85
153.37
170.20
188.81
210.05
233.70
258.59
283.16
306.39
328.27
349.73
371.87
395.12
418.91
441.86
462.47
479.55
492.28
500.13
502.76
500.34
494.04
486.13
479.03
473.92
469.23
460.36
440.88
404.97
350.49
280.86
204.99
134.92
82.09
53.83
51.15
68.66
96.39
122.88
138.25
136.81
118.45
88.71
57.09
34.09
27.42
38.85
63.29
90.41
108.67
109.67
90.83
55.00
7.84
-45.16
-100.38
-155.63
-209.07
-258.57
-302.44
-341.01
-377.36
-415.84
-459.00
-504.64
-545.47
-572.18
-578.30
-563.82
-535.36
-502.56
-472.94
-448.60
-426.31
-400.86
-368.98
-331.23
-291.07
-252.16
-215.88
-180.80
-144.09
-103.78
-60.11
-15.44
27.24
65.85
100.19
131.82
163.21
196.75
234.00
275.76
321.90
371.23
420.98
466.68
503.03
525.75
533.70
529.82
520.21
511.05
505.47
501.81
494.49
476.99
445.30
399.55
343.23
281.17
217.61
155.94
99.47
51.90
16.27
-7.12
-22.22
-36.51
-57.82
-90.08
-130.71
-171.32
-201.33
-212.79
-203.92
-179.69
-149.47
-123.19
-107.83
-105.52
-113.73
-126.96
-139.24
-146.42
-147.40
-143.69
-138.06
-132.85
-129.35
-127.91
-128.88
-132.59
-138.85
-145.76
-149.50
-145.79
-132.77
-113.64
-96.86
-93.19
-110.55
-149.24
-200.44
-249.08
-279.66
-282.10
-255.25
-206.51
-148.37
-93.75
-51.94
-26.13
-13.37
-6.18
4.46
25.62
59.54
102.40
145.59
179.20
195.95
193.96
176.71
151.01
123.82
100.09
82.37
71.78
69.25
75.94
92.70
119.10
152.90
190.47
227.63
260.58
286.03
300.81
301.71
285.99
252.87
205.30
150.34
97.88
57.50
35.23
31.48
41.25
56.47
69.11
73.80
68.83
55.46
36.16
12.91
-13.47
-42.64
-73.45
-103.00
-126.98
-141.41
-144.82
-139.45
-130.85
-125.38
-127.24
-136.51
-149.36
-160.21
-164.51
-160.64
-150.23
-136.81
-123.98
-113.75
-105.82
-97.97
-87.40
-72.01
-51.56
-27.71
-3.54
17.41
31.54
35.19
24.91
-1.40
-42.72
-93.23
-142.36
-177.40
-187.82
-169.38
-125.71
-66.55
-3.41
54.62
103.26
142.73
175.86
205.73
234.22
261.32
285.23
303.21
312.69
312.50
303.92
290.34
275.44
261.23
246.84
229.49
206.80
179.09
149.90
124.17
104.95
91.37
78.69
60.79
33.57
-3.33
-47.19
-94.79
-144.50
-196.55
-250.91
-304.68
-351.18
-381.58
-388.39
-368.88
-326.09
-267.02
-199.39
-128.70
-57.35
14.08
84.86
152.67
213.76
264.07
300.62
322.13
328.71
321.23
300.88
269.15
227.88
179.44
126.77
72.77
20.12
-29.23
-74.44
-116.02
-155.92
-197.45
-244.65
-300.93
-367.34
-440.88
-514.00
-575.98
-616.17
-627.92
-611.10
-572.16
-521.33
-468.36
-419.06
-374.22
-331.08
-286.31
-238.49
-188.83
-139.96
-94.20
-52.04
-11.96
28.64
72.34
120.94
175.26
235.37
300.40
367.76
432.51
487.58
525.49
541.13
534.34
510.86
480.80
455.17
442.02
443.91
457.86
477.19
494.50
504.03
502.87
490.87
469.77
442.21
410.93
378.36
346.39
316.40
289.20
264.93
242.98
222.12
200.78
177.52
151.52
122.84
92.32
61.17
30.55
1.19
-26.81
-53.91
-80.94
-108.89
-138.60
-170.56
-204.70
-240.38
-276.46
-311.79
-345.53
-377.48
-408.17
-438.61
-470.06
-504.04
-542.35
-586.79
-638.10
-694.56
-750.94
-798.97
-829.54
-835.93
-816.51
-775.43
-720.86
-661.68
-604.53
-552.34
-505.04
-461.26
-419.97
-381.00
-344.46
-310.00
-276.49
-242.36
-206.41
-168.28
-128.48
-88.17
-48.47
-10.09
26.80
62.46
97.36
131.95
166.57
201.44
236.61
272.08
307.91
344.27
381.36
419.23
457.41
494.67
529.00
557.99
579.45
592.19
596.32
593.09
584.08
570.30
551.88
528.69
501.64
473.65
449.47
433.72
428.28
430.55
433.74
429.52
411.64
378.56
333.75
283.49
233.67
187.33
144.27
102.41
59.88
16.25
-27.38
-69.46
-109.32
-147.62
-186.16
-226.70
-270.09
-315.83
-362.75
-410.29
-459.35
-511.80
-568.68
-627.89
-683.11
-724.82
-743.60
-733.82
-696.27
-637.92
-569.33
-500.67
-438.77
-385.95
-340.79
-300.16
-260.63
-219.25
-173.42
-121.18
-62.46
-1.01
54.79
93.45
104.48
83.72
36.68
-22.21
-74.77
-106.17
-110.27
-90.62
-56.94
-19.28
16.46
49.74
83.44
120.73
162.64
207.61
252.25
292.74
325.74
349.12
361.93
364.27
357.09
341.74
319.91
293.62
265.38
238.29
215.60
200.01
192.74
193.07
198.72
206.80
214.96
222.09
228.27
234.05
239.92
245.69
250.11
251.01
245.13
228.31
196.33
146.44
79.77
3.16
-70.90
-127.22
-152.88
-142.13
-98.72
-34.64
34.23
93.10
131.82
146.29
138.36
114.89
86.34
64.44
58.70
72.50
101.05
132.66
153.82
155.67
138.23
109.64
81.25
60.89
48.79
38.40
20.96
-8.64
-48.54
-91.49
-129.33
-157.88
-178.88
-198.09
-221.25
-250.88
-285.76
-323.04
-360.82
-398.86
-437.14
-473.63
-503.19
-519.07
-515.99
-492.75
-452.68
-401.82
-345.93
-288.73
-231.93
-176.45
-123.29
-73.65
-27.85
15.42
59.01
106.38
160.40
222.70
293.47
371.04
451.62
529.11
595.75
643.92
668.61
669.16
649.46
616.31
576.68
535.56
495.29
456.46
419.42
385.15
354.88
328.94
305.91
282.79
256.24
224.31
187.27
147.42
107.99
71.43
38.26
6.99
-25.07
-60.33
-99.68
-142.12
-185.20
-226.14
-263.09
-295.88
-326.00
-356.20
-389.82
-429.91
-478.08
-533.16
-590.35
-641.53
-677.14
-689.13
-673.94
-633.79
-575.75
-508.95
-441.33
-377.24
-317.19
-258.94
-199.59
-137.61
-73.77
-11.52
43.60
85.18
107.31
105.73
78.68
26.97
-45.80
-133.04
-225.26
-311.00
-378.81
-420.21
-432.10
-417.74
-385.25
-344.57
-303.95
-268.01
-237.48
-210.55
-184.58
-157.39
-127.67
-94.96
-59.59
-22.56
14.68
50.72
84.93
117.62
149.99
183.57
219.62
258.82
301.26
346.39
392.63
436.87
474.31
499.51
507.97
497.77
470.21
428.85
377.29
317.30
248.51
170.33
84.84
-1.37
-77.97
-134.22
-163.20
-164.39
-143.15
-107.59
-64.74
-18.44
30.42
81.70
133.75
182.45
222.23
248.15
257.85
252.20
234.55
209.13
179.54
148.06
115.49
82.02
48.06
14.65
-16.47
-43.42
-64.60
-79.07
-86.67
-87.94
-83.88
-76.20
-66.90
-57.73
-49.41
-41.46
-33.17
-25.39
-22.15
-30.25
-56.58
-103.75
-166.97
-234.09
-289.48
-320.12
-320.59
-294.40
-251.22
-201.69
-152.91
-106.68
-60.86
-12.31
40.58
97.05
154.69
210.48
261.64
305.49
339.18
359.92
365.82
356.96
336.08
308.40
280.37
257.92
244.93
242.20
247.52
256.25
262.57
261.24
249.46
228.14
201.85
177.35
160.99
155.90
160.42
168.73
172.90
165.81
143.52
106.59
59.83
11.31
-29.57
-54.33
-57.68
-39.32
-4.63
36.66
73.44
96.69
102.18
90.90
67.67
38.69
9.35
-16.70
-37.37
-51.51
-58.79
-60.24
-58.77
-59.17
-67.08
-87.31
-121.69
-168.35
-222.39
-277.42
-327.35
-367.28
-394.15
-407.16
-408.63
-404.32
-402.39
-410.43
-431.83
-463.47
-496.68
-521.03
-529.14
-519.83
-497.47
-468.66
-438.15
-406.94
-373.23
-335.14
-293.06
-249.73
-208.47
-170.95
-136.27
-101.66
-64.26
-22.67
22.50
69.26
115.35
159.27
200.94
242.01
285.19
333.23
387.33
445.72
503.47
553.83
590.76
611.43
617.28
612.94
603.92
594.15
584.92
575.51
564.82
552.54
539.23
525.35
510.25
492.11
468.85
439.48
404.78
366.95
328.52
291.39
256.24
222.80
190.54
159.22
129.00
100.22
72.96
46.77
20.87
-5.55
-32.76
-60.22
-86.79
-111.28
-133.12
-152.80
-171.83
-192.08
-215.02
-241.05
-269.35
-298.40
-326.65
-353.32
-378.73
-404.12
-431.26
-462.18
-498.96
-543.26
-595.42
-653.19
-710.98
-760.52
-793.01
-802.23
-786.91
-751.21
-702.86
-650.09
-598.81
-551.56
-508.32
-468.16
-430.53
-395.41
-362.54
-330.68
-297.69
-261.43
-221.02
-177.38
-132.88
-90.32
-51.47
-16.26
17.12
51.27
88.29
128.70
171.30
213.82
254.07
291.08
325.48
359.14
394.37
433.28
477.22
526.46
579.63
633.24
681.85
719.16
740.21
743.52
731.89
711.12
687.16
663.24
638.70
610.25
574.70
531.37
482.70
432.78
384.89
339.89
296.34
252.08
206.18
159.73
115.28
75.34
40.71
9.93
-20.11
-52.76
-90.09
-132.03
-176.63
-221.05
-262.96
-301.54
-337.77
-373.87
-412.58
-456.49
-507.44
-565.81
-629.62
-693.86
-750.82
-791.78
-809.64
-801.53
-769.90
-721.50
-664.75
-606.68
-551.25
-499.34
-450.17
-402.96
-357.76
-315.21
-275.78
-239.16
-204.35
-170.23
-136.08
-101.87
-68.15
-35.60
-4.56
25.13
54.14
83.39
113.60
145.13
177.74
210.89
244.24
278.21
314.07
353.12
395.42
438.60
477.67
506.27
518.70
512.14
487.75
450.25
406.19
361.97
322.32
289.76
265.01
247.59
236.54
230.86
229.75
232.61
238.86
247.63
257.40
266.01
270.91
269.43
259.05
237.53
203.34
156.67
100.51
41.41
-11.48
-49.11
-65.95
-62.42
-44.64
-21.93
-3.01
6.70
5.91
-3.35
-17.10
-30.55
-38.92
-38.39
-27.62
-8.99
11.45
25.89
28.05
15.86
-7.91
-37.65
-68.04
-96.01
-120.74
-142.24
-159.83
-171.99
-177.48
-176.86
-172.50
-167.47
-163.79
-161.62
-160.52
-161.26
-167.49
-185.14
-219.41
-270.84
-333.26
-394.75
-441.87
-464.94
-461.28
-435.04
-394.11
-346.02
-295.16
-242.69
-188.39
-132.76
-78.14
-27.29
18.28
59.64
100.22
144.23
194.87
253.28
318.72
387.42
454.37
513.40
558.13
583.35
586.41
568.03
531.92
484.33
429.76
372.51
315.49
260.93
210.62
165.76
126.14
89.52
52.99
10.00
-43.58
-108.59
-181.10
-252.65
-312.31
-350.23
-360.89
-343.23
-305.13
-255.28
-201.37
-147.37
-93.09
-35.67
27.52
84.88
144.96
198.83
238.73
258.68
256.62
234.90
199.30
157.09
114.40
76.96
44.59
17.38
-4.98
-22.52
-35.24
-43.57
-48.92
-53.44
-58.00
-65.61
-76.77
-91.01
-107.40
-125.52
-146.32
-172.47
-207.86
-255.12
-316.03
-387.04
-459.84
-523.09
-566.05
-582.29
-571.65
-539.72
-494.50
-444.25
-393.93
-345.26
-298.27
-253.14
-211.04
-173.45
-140.72
-110.86
-80.35
-45.44
-4.31
41.78
88.86
131.90
167.27
194.56
217.00
240.61
271.91
315.06
369.43
428.62
481.22
513.71
514.82
480.03
414.32
332.04
253.19
197.17
176.59
193.07
237.11
291.90
339.15
364.41
360.40
327.58
272.91
207.55
144.14
93.89
63.74
54.40
60.18
71.27
77.56
72.74
56.11
32.09
7.50
-11.78
-22.94
-26.49
-25.25
-23.14
-24.46
-33.32
-52.83
-83.73
-123.23
-164.74
-199.32
-218.77
-219.11
-202.96
-179.54
-162.16
-163.57
-191.06
-243.22
-309.82
-375.07
-423.05
-442.97
-432.11
-395.56
-342.78
-283.51
-224.39
-168.09
-114.44
-62.32
-10.89
40.54
93.02
148.06
206.69
267.87
327.50
379.05
415.89
433.76
432.95
418.28
397.26
377.18
362.53
353.67
347.39
338.75
323.28
298.66
265.28
225.64
182.90
139.77
97.59
56.40
15.68
-25.34
-67.58
-112.60
-162.54
-218.99
-281.21
-344.71
-401.23
-440.86
-455.51
-441.70
-401.50
-341.19
-268.80
-192.15
-118.25
-53.59
-4.23
25.07
32.69
21.32
-2.32
-29.84
-54.34
-72.64
-85.44
-95.42
-104.88
-113.96
-120.83
-123.30
-120.54
-113.69
-105.07
-96.51
-88.15
-78.63
-66.17
-50.16
-31.61
-12.48
5.22
19.71
28.57
28.12
13.99
-16.20
-59.96
-108.65
-149.56
-170.80
-166.24
-137.87
-93.85
-43.96
5.23
52.39
100.42
153.36
213.32
279.10
346.49
409.61
462.31
499.43
517.75
516.67
498.53
468.08
431.48
394.82
362.98
339.00
324.11
317.94
318.66
323.19
327.51
327.56
320.30
304.85
282.73
257.43
232.94
212.23
196.21
183.68
172.25
159.59
144.46
127.10
108.81
91.14
75.03
60.39
46.20
30.99
13.66
-6.13
-27.83
-50.33
-72.68
-94.66
-116.95
-140.90
-167.82
-198.29
-231.78
-266.95
-302.09
-335.98
-368.36
-399.99
-432.40
-467.66
-508.05
-555.59
-610.94
-672.10
-733.59
-787.00
-823.20
-835.45
-822.05
-786.92
-737.90
-683.49
-629.99
-580.15
-533.94
-490.44
-449.37
-411.46
-377.63
-347.88
-320.68
-293.52
-263.98
-230.86
-194.49
-156.64
-119.38
-84.18
-51.18
-19.14
13.99
50.16
90.41
134.41
180.73
227.41
272.80
316.05
357.30
397.46
437.94
480.42
526.60
577.74
633.70
691.98
747.25
792.00
818.52
821.49
799.94
757.70
701.93
640.45
579.14
520.66
464.68
409.52
353.76
297.40
241.77
188.68
139.25
93.36
49.61
5.86
-39.75
-88.41
-140.48
-195.73
-253.17
-310.62
-364.36
-409.52
-441.58
-458.69
-463.49
-462.92
-465.53
-477.30
-498.04
-520.97
-535.51
-532.60
-509.06
-468.59
-419.10
-367.94
-318.78
-271.53
-225.27
-181.05
-142.32
-113.06
-95.23
-87.80
-88.31
-95.31
-109.38
-131.73
-161.34
-193.14
-219.02
-231.19
-225.86
-204.66
-172.88
-136.13
-97.84
-58.93
-19.35
20.22
58.20
93.07
124.82
155.42
188.05
225.94
270.78
321.82
375.38
425.65
466.22
492.06
501.36
496.12
481.27
462.53
444.28
428.36
414.60
402.20
391.02
381.83
375.29
370.21
363.07
348.47
321.03
277.67
219.49
152.43
86.20
31.51
-3.97
-18.49
-17.08
-9.36
-5.35
-11.36
-27.90
-50.64
-72.95
-89.48
-97.35
-96.19
-87.45
-73.82
-59.38
-49.59
-50.01
-63.64
-90.18
-124.39
-159.02
-188.70
-213.12
-237.00
-266.82
-305.82
-349.73
-389.95
-414.55
-414.82
-389.04
-342.60
-284.47
-222.94
-163.43
-107.75
-61.80
-32.12
-25.68
-45.62
-87.17
-137.32
-178.96
-197.62
-184.92
-146.41
-92.15
-33.20
23.19
75.42
126.17
179.34
223.26
271.55
316.82
351.99
371.10
371.96
357.25
333.33
306.97
281.74
258.67
231.35
195.80
151.94
104.53
60.82
26.76
4.30
-8.43
-13.12
-13.70
-11.12
-6.87
-4.91
-11.67
-33.29
-71.52
-121.12
-169.83
-205.68
-218.89
-205.94
-169.53
-116.45
-55.11
5.87
58.25
95.48
112.53
108.99
88.87
58.99
25.86
-6.93
-39.37
-73.12
-108.31
-142.24
-169.21
-183.30
-181.27
-164.25
-136.97
-105.43
-74.51
-46.83
-22.97
-2.65
14.30
28.03
39.24
49.81
62.53
80.08
103.61
131.97
161.99
189.50
210.63
222.83
225.38
219.41
207.40
192.33
176.57
160.82
143.96
123.83
98.66
68.34
34.93
1.84
-27.66
-51.97
-72.06
-91.40
-115.15
-148.63
-195.23
-254.48
-320.81
-384.21
-432.78
-456.49
-450.34
-415.87
-360.31
-294.33
-229.14
-173.96
-134.20
-110.48
-98.70
-91.62
-81.62
-63.76
-37.70
-7.38
21.59
45.29
63.61
79.55
96.71
116.57
137.70
157.13
172.68
184.46
194.49
205.16
217.46
230.93
244.54
257.94
271.75
286.22
299.21
305.12
296.27
266.54
215.78
152.28
91.60
51.45
44.85
74.48
131.02
196.48
250.82
279.03
275.37
243.35
192.34
133.11
74.55
22.48
-20.21
-53.04
-78.06
-99.87
-124.39
-156.40
-196.84
-240.92
-279.25
-301.64
-301.68
-280.41
-246.46
-212.89
-191.74
-188.98
-202.09
-221.08
-233.00
-227.64
-202.22
-163.02
-123.25
-98.11
-99.33
-130.72
-186.96
-255.71
-321.69
-371.43
-396.61
-395.48
-372.00
-333.61
-288.49
-243.29
-202.09
-166.28
-135.25
-107.24
-80.04
-51.83
-21.60
10.52
43.44
75.75
106.35
134.77
160.61
183.13
200.94
212.47
217.09
215.97
211.96
208.63
208.33
210.98
214.37
215.48
212.06
203.10
188.29
167.03
138.59
103.35
64.13
26.52
-2.89
-19.19
-21.13
-11.37
5.17
23.42
39.47
50.70
55.39
52.79
43.97
32.30
22.96
20.77
27.62
41.24
56.33
67.54
72.24
71.54
69.11
68.63
71.92
78.44
86.36
94.10
101.53
110.10
122.16
139.83
163.96
193.71
226.47
258.26
284.53
301.06
304.78
294.23
269.86
234.10
191.25
146.71
105.94
72.59
47.08
26.15
4.24
-23.63
-58.91
-98.13
-134.08
-159.29
-169.60
-165.99
-153.46
-137.99
-123.35
-109.83
-95.44
-78.50
-59.54
-41.02
-25.43
-12.97
-0.93
14.80
37.05
65.53
97.08
127.72
154.91
178.70
200.57
221.15
238.46
248.21
246.29
231.76
208.42
183.54
164.42
154.62
152.24
150.91
143.14
123.81
92.33
52.29
9.24
-32.05
-69.32
-103.15
-135.86
-170.06
-207.84
-250.41
-298.23
-350.69
-405.40
-457.88
-501.86
-530.88
-540.74
-531.47
-507.80
-477.33
-447.47
-422.19
-400.60
-377.79
-347.54
-305.93
-254.22
-199.64
-153.56
-127.31
-127.26
-151.54
-189.97
-227.77
-251.23
-252.81
-232.84
-197.63
-155.15
-111.03
-67.10
-22.32
24.94
75.19
127.43
179.81
230.08
275.61
313.20
339.42
351.51
348.55
331.79
304.47
270.92
235.66
202.90
176.26
158.36
150.37
151.64
160.04
172.76
187.55
203.15
219.01
234.08
245.71
249.40
239.63
212.21
167.11
110.26
53.02
8.47
-13.87
-12.58
4.75
24.76
34.43
26.65
2.47
-30.82
-63.90
-89.50
-104.33
-108.67
-105.34
-98.64
-93.64
-94.95
-105.05
-122.44
-141.45
-154.45
-155.21
-141.81
-116.68
-84.75
-50.47
-16.34
16.58
47.00
72.07
88.28
93.18
87.10
73.02
54.54
33.08
6.25
-30.93
-82.61
-148.04
-219.68
-284.57
-328.90
-343.48
-327.13
-286.77
-233.78
-179.16
-129.39
-85.14
-42.67
3.01
55.11
113.23
173.20
228.42
271.97
298.82
307.21
298.83
277.57
247.54
211.79
172.22
130.69
90.46
56.49
34.14
27.16
35.79
56.43
83.02
108.77
127.39
133.63
123.48
95.24
51.31
-0.64
-48.61
-79.75
-85.16
-63.34
-20.57
32.18
83.81
126.89
158.79
180.43
193.83
200.27
199.81
192.11
177.23
155.96
129.28
97.88
62.28
23.70
-15.31
-50.56
-77.27
-91.65
-92.31
-80.83
-61.45
-39.65
-21.08
-10.31
-10.44
-22.85
-47.29
-82.13
-125.17
-174.80
-230.50
-292.28
-358.86
-425.80
-485.08
-526.91
-543.46
-532.16
-497.01
-446.56
-390.31
-334.91
-282.62
-232.20
-181.27
-128.32
-73.20
-16.50
41.36
100.07
158.49
213.39
259.43
290.26
300.54
288.38
256.56
212.35
165.77
127.02
103.73
99.44
113.24
140.68
175.34
210.16
237.92
251.63
245.34
216.13
166.66
106.87
52.37
19.32
17.59
45.79
91.54
137.11
167.48
176.46
167.46
149.27
130.16
113.88
99.83
85.89
71.34
57.58
46.56
38.70
32.59
26.56
20.30
15.61
15.02
19.58
27.65
35.48
39.09
35.65
24.24
4.96
-22.06
-56.89
-99.44
-149.00
-204.40
-264.47
-328.10
-393.53
-457.13
-512.87
-553.25
-571.83
-565.82
-537.35
-492.57
-439.13
-383.49
-329.29
-277.53
-227.84
-179.83
-133.51
-88.91
-45.15
0.07
49.66
105.53
166.59
227.76
280.63
316.47
329.76
320.94
296.61
266.97
241.77
227.00
223.95
230.41
242.76
257.40
270.27
275.91
267.31
237.86
185.15
114.42
38.87
-23.87
-58.30
-57.36
-25.14
25.21
77.20
117.17
137.91
139.07
125.00
102.22
77.69
57.87
47.81
49.75
61.70
77.52
89.40
91.90
85.29
75.77
72.21
80.96
102.00
128.91
152.26
164.45
163.01
150.42
131.22
108.71
83.09
52.37
14.53
-30.29
-79.86
-131.43
-183.43
-235.55
-287.03
-334.94
-374.23
-399.98
-410.39
-408.30
-399.82
-390.47
-381.73
-370.03
-349.17
-314.54
-266.26
-209.17
-149.84
-92.87
-39.01
13.90
67.96
122.71
174.60
218.56
250.22
267.77
272.22
266.71
255.07
241.00
227.68
217.87
213.78
216.52
225.15
235.82
242.12
237.09
216.38
181.44
140.77
108.16
97.87
118.54
168.92
237.73
307.76
362.54
392.21
395.86
379.67
352.52
321.58
290.21
258.64
226.16
193.15
161.57
133.79
110.92
91.67
72.54
49.45
19.47
-17.97
-61.01
-106.27
-150.39
-191.41
-229.26
-265.52
-302.46
-341.91
-384.70
-430.93
-480.74
-534.73
-593.35
-655.31
-716.20
-768.38
-802.98
-813.13
-796.91
-758.26
-705.27
-646.77
-589.09
-534.65
-482.75
-431.83
-381.40
-332.65
-287.54
-247.24
-211.08
-176.56
-140.37
-99.86
-54.11
-4.58
45.59
92.95
135.04
171.44
203.96
235.85
270.39
310.31
357.03
410.58
469.15
528.35
581.00
618.08
631.66
618.37
581.72
531.25
478.56
432.23
394.34
360.73
324.33
279.74
226.39
168.80
114.37
70.15
40.25
24.55
18.93
16.40
8.90
-9.98
-42.63
-85.65
-130.12
-164.43
-178.99
-169.99
-141.16
-102.07
-64.24
-37.20
-26.06
-31.89
-52.95
-86.27
-127.66
-171.31
-210.19
-238.18
-253.38
-260.07
-267.38
-284.70
-316.07
-357.14
-396.74
-422.23
-425.53
-406.18
-370.07
-325.39
-278.43
-231.75
-185.16
-138.05
-91.18
-46.61
-6.44
28.94
61.71
96.12
136.83
186.73
245.05
306.45
362.34
403.66
424.55
424.92
410.55
390.64
374.07
366.09
367.39
375.26
385.73
395.28
401.19
400.62
389.82
364.99
324.67
272.38
217.18
170.95
143.43
137.46
147.58
162.85
172.35
169.94
155.76
134.08
109.41
83.89
57.26
29.03
0.40
-25.93
-47.78
-65.97
-84.82
-110.32
-146.88
-195.18
-251.77
-310.56
-364.78
-408.56
-437.75
-450.84
-449.59
-439.03
-425.87
-415.59
-409.58
-404.52
-394.72
-376.45
-351.24
-325.96
-308.98
-304.95
-311.29
-318.96
-316.97
-298.06
-262.01
-214.89
-165.17
-119.29
-79.30
-43.22
-7.38
31.07
73.13
118.38
166.20
216.28
268.28
320.41
368.64
406.80
428.41
429.08
408.55
371.36
325.52
280.09
242.66
217.74
206.52
207.64
218.49
235.86
256.21
275.48
288.90
291.14
277.23
244.08
192.71
129.78
67.25
19.22
-3.01
4.29
35.33
77.09
114.85
138.22
144.30
136.75
121.94
105.13
89.15
75.55
66.72
66.31
77.34
99.06
125.31
145.97
151.09
135.08
99.16
50.14
-3.09
-53.21
-96.88
-134.74
-169.84
-206.07
-246.84
-294.69
-350.80
-414.14
-480.57
-542.79
-591.85
-620.16
-624.50
-607.35
-575.62
-537.33
-498.15
-459.65
-420.15
-377.31
-330.52
-281.61
-233.51
-188.18
-145.28
-102.45
-56.91
-7.01
47.24
104.38
161.96
217.02
266.07
305.54
332.59
346.19
347.83
341.25
331.15
321.58
314.95
312.05
312.76
316.91
324.41
334.61
345.38
352.60
350.90
335.47
304.50
260.71
211.45
166.67
135.76
124.28
132.19
154.20
181.77
205.94
219.81
219.97
206.94
184.70
159.54
138.19
125.65
123.21
127.69
132.74
131.53
119.46
95.58
62.23
23.48
-16.41
-54.16
-87.60
-115.51
-137.31
-153.31
-165.00
-175.05
-186.82
-203.24
-226.40
-257.43
-296.72
-344.20
-399.21
-459.94
-522.59
-580.98
-626.60
-651.56
-651.48
-627.19
-584.24
-530.49
-473.35
-417.62
-365.13
-314.25
-263.44
-213.24
-166.04
-124.14
-87.96
-56.11
-26.42
2.75
34.22
68.87
104.85
138.78
168.06
192.41
213.39
233.10
253.25
277.57
307.75
342.12
376.37
406.14
429.12
444.85
453.82
436.84
383.57
299.65
204.09
114.98
40.97
-16.96
-61.38
-95.77
-122.68
-140.94
-149.46
-149.16
-142.64
-133.43
-123.93
-115.53
-109.18
-104.62
-98.97
-89.40
-74.50
-54.59
-31.05
-4.57
25.28
54.95
83.66
112.61
143.41
177.25
214.30
253.70
295.13
338.80
384.24
430.38
472.69
504.22
517.94
509.19
476.75
424.70
360.84
293.49
229.98
171.85
117.32
64.27
11.70
-41.13
-93.35
-143.04
-187.96
-224.57
-252.74
-273.11
-285.80
-278.53
-243.51
-182.69
-108.09
-44.69
3.44
37.11
57.91
71.69
81.33
86.84
87.61
83.62
75.94
67.83
59.89
52.05
44.49
36.99
28.21
17.05
3.34
-12.01
-26.48
-39.80
-52.50
-65.06
-78.12
-92.72
-109.43
-128.08
-147.83
-166.98
-185.44
-203.67
-222.15
-241.67
-263.36
-288.37
-317.18
-349.02
-381.08
-409.60
-430.12
-438.68
-433.34
-415.09
-387.62
-356.02
-325.16
-298.24
-276.49
-259.21
-244.26
-228.80
-209.70
-183.91
-148.83
-102.98
-46.96
15.89
79.40
135.80
178.07
202.43
209.81
205.55
196.93
189.84
186.29
184.14
179.15
168.00
150.59
130.27
111.92
99.47
94.35
95.56
101.20
109.69
120.35
132.56
144.98
155.27
161.09
161.50
157.73
152.61
148.83
147.07
145.25
139.17
124.43
98.51
62.09
18.98
-25.09
-64.24
-94.08
-112.50
-119.67
-117.29
-107.68
-92.98
-74.85
-54.50
-32.76
-10.20
12.84
35.91
58.18
78.08
93.50
102.40
103.62
97.52
85.99
71.76
57.57
45.51
36.76
31.64
29.70
29.62
29.26
25.82
16.61
-0.04
-24.09
-53.63
-85.21
-114.55
-137.33
-150.35
-152.52
-145.58
-133.96
-123.31
-118.23
-120.13
-126.58
-132.64
-133.50
-126.96
-114.34
-99.39
-85.90
-75.61
-67.70
-59.85
-50.21
-38.62
-26.84
-17.44
-12.36
-12.04
-15.11
-19.08
-21.31
-19.94
-14.25
-4.68
7.77
21.97
36.75
50.24
59.31
59.84
48.19
23.63
-9.94
-43.95
-67.40
-70.42
-47.73
-0.50
63.83
133.43
194.91
236.43
250.37
235.20
195.90
142.46
86.63
38.08
1.67
-22.93
-39.27
-51.10
-60.36
-66.93
-69.99
-69.81
-68.49
-69.27
-74.74
-85.16
-97.67
-106.87
-106.54
-91.61
-59.73
-12.14
46.66
109.54
167.76
212.21
235.03
231.82
203.91
159.65
112.95
78.99
68.28
81.92
110.97
140.34
155.51
148.28
119.02
74.84
25.58
-19.84
-55.05
-76.43
-82.81
-75.82
-60.41
-44.27
-35.49
-39.08
-54.64
-76.47
-96.59
-108.81
-111.35
-106.81
-99.77
-93.82
-89.82
-86.23
-80.81
-72.25
-60.88
-48.18
-35.78
-25.08
-17.86
-17.08
-26.69
-49.85
-86.22
-130.04
-170.63
-195.75
-196.69
-172.60
-131.29
-86.16
-50.13
-29.94
-23.54
-21.83
-13.85
7.45
41.99
83.15
121.56
149.89
165.78
171.54
171.44
168.31
161.89
149.85
130.62
105.84
80.73
62.41
56.66
65.59
86.98
115.53
144.97
169.63
184.98
187.63
175.89
150.83
117.54
84.65
61.79
55.69
66.95
89.55
113.63
129.85
133.07
123.58
105.69
85.01
66.18
51.96
43.54
41.10
43.76
49.31
54.00
53.43
44.00
24.48
-3.43
-35.47
-66.21
-90.63
-105.34
-109.27
-103.92
-92.79
-80.54
-71.73
-69.74
-76.42
-92.72
-119.47
-157.72
-207.66
-266.91
-329.08
-384.21
-421.47
-433.06
-417.27
-378.78
-326.31
-268.53
-210.93
-155.09
-99.93
-43.91
13.62
72.39
131.64
190.25
246.16
295.44
332.19
349.81
343.30
311.45
258.26
192.71
126.78
72.44
38.70
29.59
43.90
75.89
116.88
156.84
185.83
196.00
184.09
153.52
114.67
81.99
68.32
79.00
108.98
144.86
171.14
177.42
162.59
134.18
103.65
80.82
70.28
70.96
78.17
86.13
89.80
85.53
71.02
45.24
8.43
-37.79
-90.22
-144.08
-192.97
-230.01
-249.86
-251.13
-237.69
-217.81
-200.91
-193.68
-197.90
-211.13
-230.03
-253.43
-283.08
-321.13
-366.44
-412.33
-447.97
-462.77
-451.28
-415.43
-363.13
-303.91
-244.94
-189.24
-136.67
-86.16
-37.42
9.33
54.84
101.88
154.46
215.00
281.13
344.41
392.25
412.48
398.85
354.37
290.88
224.65
170.68
137.97
128.20
137.08
157.11
179.77
196.64
200.52
187.37
158.67
122.58
91.82
78.31
87.19
113.60
144.62
165.32
165.78
144.94
109.79
70.83
37.10
13.22
-0.68
-7.54
-11.80
-18.13
-30.31
-49.87
-74.87
-100.09
-119.20
-127.75
-125.50
-116.23
-105.27
-96.74
-92.45
-92.60
-97.21
-106.68
-120.97
-138.50
-156.20
-171.53
-184.97
-200.81
-224.85
-259.99
-302.74
-343.11
-368.61
-369.95
-345.27
-300.30
-244.65
-186.89
-131.38
-78.22
-25.70
27.26
80.22
132.25
183.41
235.18
