1660755912.00
64.000000
-0.00
-0.00
-0.00
-0.00
-0.00
-0.00
-0.00
-0.00
-0.00
-0.00
0.00
0.01
0.01
-0.00
-0.03
-0.05
-0.05
0.00
0.13
0.36
0.66
1.01
1.37
1.72
2.06
2.40
2.79
3.24
3.80
4.42
5.06
5.66
6.20
6.68
7.15
7.68
8.31
9.14
10.09
11.04
11.88
12.56
13.14
13.76
14.65
15.96
17.91
20.32
22.90
25.38
27.58
29.57
31.68
34.32
37.81
42.54
48.15
54.10
59.83
64.97
69.58
74.14
79.34
85.71
93.76
103.00
112.62
121.73
129.77
136.75
143.30
150.75
157.77
166.64
177.95
191.79
206.97
220.57
228.25
225.36
208.53
176.87
132.76
80.05
23.07
-34.94
-92.44
-149.16
-205.23
-260.37
-313.74
-363.87
-409.83
-450.91
-486.50
-515.74
-537.23
-549.22
-549.96
-538.37
-514.21
-478.67
-433.88
-382.45
-327.02
-269.84
-212.63
-156.66
-102.95
-52.37
-5.90
35.58
71.43
101.35
125.50
144.38
158.69
169.15
176.37
180.75
182.57
182.07
179.51
175.23
169.65
163.18
156.15
148.81
141.30
133.69
126.02
118.33
110.69
103.16
95.80
88.68
81.83
75.25
68.95
62.95
57.25
51.86
46.78
42.03
37.59
33.45
29.61
26.07
22.81
19.82
17.11
14.66
12.48
10.54
8.84
7.36
6.09
5.01
4.10
3.34
2.72
2.22
1.83
1.54
1.32
1.16
1.02
0.88
0.74
0.62
0.53
0.50
0.52
0.58
0.65
0.71
0.73
0.71
0.69
0.70
0.77
0.92
1.12
1.32
1.47
1.54
1.55
1.55
1.63
1.88
2.30
2.83
3.35
3.70
3.82
3.73
3.60
3.64
4.05
4.87
5.96
7.01
7.72
7.90
7.63
7.22
7.12
7.69
9.02
10.84
12.60
13.74
13.92
13.23
12.13
11.27
10.99
11.28
11.61
11.18
9.28
5.48
-0.34
-8.10
-17.38
-27.31
-36.33
-42.39
-43.62
-39.30
-30.49
-19.87
-10.58
-4.80
-2.88
-3.44
-4.48
-4.60
-3.70
-2.63
-2.28
-2.74
-3.17
-2.39
0.13
3.84
7.31
9.04
8.18
5.02
0.81
-2.84
-4.53
-3.78
-1.03
2.63
6.01
8.34
9.47
9.74
9.64
9.64
9.61
8.91
6.78
2.88
-2.62
-9.20
-16.47
-24.29
-32.13
-38.82
-42.13
-38.99
-26.78
-4.69
25.35
59.31
92.79
123.24
149.89
172.93
191.89
204.66
207.97
199.34
178.95
147.88
111.56
75.88
44.30
16.62
-9.82
-37.48
-66.32
-93.52
-115.38
-129.58
-137.49
-143.27
-151.33
-163.51
-177.85
-189.55
-193.58
-187.33
-171.47
-149.72
-126.73
-106.04
-89.06
-75.50
-64.40
-55.16
-47.77
-42.16
-38.02
-34.43
-30.21
-24.48
-17.34
-9.91
-4.01
-1.30
-2.39
-6.68
-12.36
-17.05
-18.53
-15.58
-8.32
1.75
12.21
20.39
24.13
22.58
16.53
8.36
1.33
-1.47
1.61
10.20
22.06
34.13
43.93
50.42
54.04
55.93
56.99
57.31
56.36
53.66
49.25
43.85
38.27
33.01
28.02
22.91
17.30
11.15
4.84
-1.06
-5.97
-9.46
-11.32
-11.58
-10.43
-8.20
-5.18
-1.48
2.86
7.89
13.42
18.97
23.86
27.45
29.46
30.05
29.75
29.17
28.79
28.76
28.93
28.92
28.31
26.80
24.26
20.76
16.58
12.11
7.84
4.23
1.66
0.39
0.60
2.48
6.18
11.71
18.74
26.50
33.79
39.39
42.57
43.43
42.93
42.44
43.04
45.10
48.16
51.44
54.39
56.98
59.52
62.19
64.52
65.28
62.69
54.89
40.60
19.43
-7.72
-38.65
-70.02
-98.05
-119.38
-131.85
-134.90
-129.36
-117.07
-100.32
-81.52
-63.09
-47.24
-35.63
-28.91
-26.54
-26.98
-28.43
-29.57
-30.02
-30.19
-30.72
-31.83
-33.07
-33.56
-32.58
-30.09
-26.90
-24.34
-23.69
-25.36
-28.67
-32.00
-33.55
-32.11
-27.57
-20.86
-13.33
-6.14
0.23
5.81
10.77
14.97
17.86
18.79
17.49
14.30
10.06
5.73
1.80
-1.76
-5.33
-9.03
-12.25
-13.75
-12.15
-6.79
1.70
11.46
20.20
26.17
28.89
29.10
28.09
26.80
25.35
23.14
19.52
14.38
8.43
2.91
-1.01
-2.69
-2.30
-0.56
1.55
3.23
4.08
4.13
3.72
3.22
2.80
2.46
1.97
1.15
-0.05
-1.51
-3.08
-4.65
-6.11
-7.30
-7.88
-7.42
-5.63
-2.59
1.16
4.80
7.56
9.11
9.75
10.23
11.40
13.76
17.19
21.03
24.28
25.98
25.52
22.80
18.20
12.39
6.06
-0.21
-5.93
-10.65
-13.87
-15.15
-14.30
-11.58
-7.70
-3.72
-0.58
1.17
1.59
1.26
0.93
1.21
2.28
3.92
5.69
7.19
8.19
8.68
8.81
8.70
8.41
7.97
7.26
6.22
4.73
2.78
0.48
-1.97
-4.26
-6.11
-7.36
-7.98
-8.08
-7.87
-7.56
-7.37
-7.58
-8.49
-10.36
-13.30
-17.05
-20.89
-23.73
-24.39
-21.97
-16.11
-7.07
4.36
17.03
29.71
41.26
50.85
58.16
63.45
67.49
71.18
75.03
78.81
81.69
82.77
81.71
79.16
76.42
74.63
73.91
73.10
70.26
63.89
53.89
41.81
30.20
21.32
16.12
13.94
12.95
11.15
7.19
0.77
-7.44
-16.19
-24.21
-30.64
-35.23
-38.31
-40.41
-41.83
-42.31
-41.06
-37.33
-31.10
-23.46
-16.27
-11.35
-9.43
-9.81
-10.73
-10.43
-8.06
-4.06
0.14
2.99
3.49
1.54
-2.27
-6.98
-11.72
-15.88
-19.17
-21.63
-23.56
-25.43
-27.65
-30.26
-32.77
-34.25
-33.75
-31.03
-26.98
-23.65
-23.71
-29.34
-41.35
-58.96
-80.22
-102.96
-125.39
-146.29
-164.52
-178.63
-186.66
-186.58
-177.10
-158.16
-130.89
-97.26
-59.50
-20.01
18.23
51.43
75.73
88.57
90.26
84.49
77.28
74.69
79.98
92.01
105.64
114.19
112.96
101.97
86.60
75.83
78.95
101.93
145.18
203.16
266.01
322.51
363.13
382.17
378.54
355.08
316.98
270.26
220.56
172.42
128.90
91.42
59.74
31.73
3.50
-30.09
-73.91
-130.41
-197.69
-268.69
-332.49
-377.71
-396.59
-388.09
-358.30
-317.89
-277.73
-244.95
-221.24
-204.05
-189.42
-174.82
-160.26
-147.61
-138.71
-133.72
-130.75
-126.73
-118.87
-105.83
-88.17
-67.81
-47.22
-28.53
-12.84
-0.17
10.27
19.52
28.37
37.23
46.13
54.60
62.11
68.49
74.20
80.18
87.11
95.25
104.40
114.15
123.58
131.87
138.96
145.84
154.14
164.75
177.62
192.11
207.64
223.35
238.71
253.96
269.67
285.94
300.41
309.07
307.81
293.87
265.15
220.46
160.25
87.11
6.24
-76.77
-156.07
-226.46
-276.69
-296.58
-284.83
-252.17
-214.67
-183.76
-164.21
-154.68
-150.78
-147.84
-143.31
-136.85
-129.02
-124.57
-120.95
-115.54
-106.16
-91.22
-70.50
-45.77
-20.38
2.30
20.39
34.52
45.19
52.68
59.41
65.66
70.58
72.98
72.31
69.25
65.93
63.73
63.36
64.88
67.45
69.86
70.87
69.75
66.61
62.56
58.35
54.26
50.12
45.15
38.73
30.76
21.79
12.84
4.99
-1.40
-6.60
-11.05
-15.12
-18.61
-21.03
-22.00
-21.66
-20.59
-19.57
-19.02
-18.67
-17.74
-15.26
-10.76
-4.61
1.95
7.29
10.05
9.78
7.13
3.53
0.68
-0.21
1.07
3.58
5.52
4.77
-0.57
-11.59
-28.33
-49.56
-73.03
-95.93
-115.47
-129.60
-137.50
-139.62
-137.51
-133.25
-128.82
-125.65
-124.39
-124.89
-126.39
-127.77
-127.81
-125.47
-120.07
-111.46
-100.04
-86.60
-72.18
-57.78
-44.22
-31.94
-21.02
-11.31
-2.43
6.04
14.49
23.21
32.26
41.41
50.17
57.97
64.33
69.19
72.90
76.08
79.34
83.15
87.77
93.21
99.13
104.73
108.68
109.46
105.97
98.26
87.76
76.87
67.85
61.68
57.31
52.02
42.68
27.44
6.99
-15.31
-34.49
-45.92
-47.12
-38.69
-23.94
-7.48
6.51
15.54
19.11
18.31
15.06
11.25
8.27
6.71
6.44
7.05
8.50
11.86
19.55
34.82
60.40
96.88
141.55
188.48
229.83
258.06
268.05
258.92
234.68
203.73
176.88
164.14
171.34
197.93
237.02
277.94
310.17
326.82
326.10
310.47
284.25
251.34
214.32
174.84
134.71
96.36
62.17
33.29
8.68
-14.60
-40.12
-70.33
-105.29
-142.65
-178.73
-210.33
-236.24
-257.72
-277.82
-299.89
-326.02
-356.10
-388.16
-419.36
-447.48
-471.87
-493.54
-514.68
-537.93
-565.83
-600.10
-640.88
-685.68
-728.77
-761.87
-776.13
-765.02
-726.82
-665.26
-588.06
-504.19
-421.02
-342.96
-271.54
-206.54
-147.05
-91.90
-39.73
11.09
61.91
113.12
164.00
212.88
258.25
299.47
337.45
374.15
412.53
455.60
505.78
563.63
626.41
687.39
736.71
764.55
765.22
740.29
698.36
651.48
609.75
577.08
550.65
523.82
490.82
449.96
403.89
357.03
312.51
270.55
229.23
186.66
142.82
99.71
60.25
26.35
-2.26
-27.70
-52.68
-79.26
-107.59
-136.12
-162.64
-185.46
-204.46
-221.16
-237.98
-257.08
-279.36
-304.24
-330.05
-355.02
-378.15
-399.58
-420.60
-443.44
-470.91
-505.69
-549.09
-599.48
-651.38
-695.91
-723.13
-725.36
-700.17
-651.37
-587.48
-518.43
-452.26
-393.16
-341.47
-295.18
-251.62
-208.75
-165.48
-121.60
-77.58
-34.37
7.05
46.14
83.12
119.07
155.52
193.91
235.41
280.90
330.55
382.90
433.94
477.50
507.32
520.57
520.59
516.91
521.54
543.02
581.58
628.12
668.13
688.21
681.86
651.28
604.78
551.99
499.67
450.37
403.87
359.57
318.10
281.12
250.28
225.83
206.09
188.29
169.85
149.28
126.47
102.09
76.76
50.30
21.65
-10.67
-47.98
-90.72
-138.32
-189.46
-242.57
-296.53
-351.33
-408.44
-470.18
-538.16
-611.29
-684.43
-748.93
-795.13
-815.93
-809.71
-781.03
-738.50
-691.29
-645.83
-604.54
-566.76
-530.79
-495.67
-461.60
-429.21
-398.38
-367.86
-335.78
-300.76
-262.85
-223.54
-185.43
-150.80
-120.74
-94.65
-70.54
-45.88
-18.76
11.38
43.53
75.67
105.79
132.73
156.95
180.19
204.85
232.91
265.22
301.28
339.69
378.94
417.88
455.80
492.35
527.67
562.63
598.65
636.71
675.71
711.20
735.54
740.37
720.04
674.62
610.35
537.11
464.05
396.17
333.24
271.53
207.21
138.83
67.35
-5.27
-77.64
-148.76
-216.79
-278.18
-328.73
-366.39
-393.84
-418.55
-449.18
-490.52
-539.77
-587.06
-620.07
-630.13
-616.18
-584.38
-544.08
-502.99
-464.48
-428.02
-391.71
-354.66
-317.65
-282.18
-249.36
-219.16
-190.57
-162.56
-134.50
-106.10
-77.18
-47.18
-15.29
19.01
55.50
93.13
130.22
165.48
198.72
231.11
265.14
303.92
350.39
406.30
470.72
538.72
600.88
645.03
660.29
641.99
595.21
534.73
480.65
451.18
455.78
491.83
546.35
601.66
642.25
659.53
652.83
627.17
589.48
545.66
499.47
453.20
408.87
369.30
337.36
314.66
300.43
291.13
281.92
268.71
250.09
227.80
205.66
187.69
175.96
169.48
164.65
156.75
141.99
118.94
88.97
55.42
21.95
-9.13
-37.77
-66.00
-96.85
-132.84
-174.71
-221.10
-269.30
-316.33
-360.20
-400.66
-439.05
-477.66
-519.08
-565.76
-619.52
-680.53
-746.23
-810.70
-865.39
-901.31
-912.14
-896.69
-859.38
-808.33
-752.17
-697.23
-646.29
-599.50
-556.12
-515.97
-479.73
-448.13
-420.99
-396.87
-373.61
-349.06
-322.22
-293.56
-264.83
-237.88
-214.00
-192.97
-173.61
-154.51
-134.31
-112.53
-89.74
-67.26
-46.47
-28.37
-12.68
1.65
15.84
31.68
50.29
71.49
93.86
115.41
133.83
148.43
159.35
167.04
174.55
184.61
198.16
213.68
228.12
237.15
240.03
237.49
230.87
226.98
232.26
249.59
276.66
307.55
333.20
351.38
362.47
367.83
377.30
400.17
439.96
492.07
546.59
589.15
617.19
633.17
641.65
658.38
698.13
767.58
862.82
973.42
1083.17
1189.58
1293.19
1325.90
1235.34
1008.21
684.70
333.35
49.50
-168.54
-337.87
-475.75
-596.70
-704.16
-789.68
-844.11
-860.59
-836.16
-782.95
-713.01
-642.84
-587.70
-546.93
-510.62
-468.14
-415.47
-354.52
-296.09
-242.65
-194.14
-151.40
-112.61
-77.84
-50.74
-40.69
-52.86
-87.16
-128.79
-157.20
-156.09
-117.88
-47.33
40.13
125.17
193.21
229.53
230.66
205.36
168.26
131.88
101.87
78.16
59.52
47.22
41.22
38.14
33.21
20.60
-3.85
-40.53
-86.49
-137.66
-189.90
-232.73
-261.71
-275.85
-277.83
-272.37
-263.49
-252.57
-247.12
-239.49
-221.39
-190.42
-148.52
-101.76
-58.34
-21.59
3.95
15.68
16.63
10.60
-3.11
-27.57
-67.04
-123.69
-195.06
-273.14
-347.30
-405.20
-426.85
-404.05
-343.38
-264.58
-188.49
-132.87
-93.48
-62.45
-33.18
-3.53
22.95
42.97
55.78
63.79
70.60
79.19
89.60
101.45
113.95
125.03
135.91
150.13
172.05
204.96
250.19
306.28
371.55
444.50
506.98
542.39
540.79
504.01
442.76
368.90
289.69
207.89
124.40
41.06
-34.92
-93.43
-125.45
-127.86
-105.99
-71.44
-37.59
-14.75
-6.98
-10.79
-19.51
-27.43
-29.84
-29.60
-29.44
-30.26
-31.86
-33.10
-32.61
-30.00
-25.66
-20.44
-15.09
-8.90
-0.73
10.10
24.16
41.27
60.62
81.45
103.46
127.16
155.05
191.00
234.45
285.26
340.60
394.17
437.23
461.24
460.94
436.95
395.25
344.62
293.97
248.72
210.24
177.24
147.81
121.01
97.18
77.01
60.40
46.82
35.05
24.22
14.33
6.26
1.25
-0.01
2.13
6.12
10.10
12.21
11.35
7.50
1.57
-5.06
-11.19
-16.28
-20.43
-24.14
-27.98
-32.29
-36.98
-41.56
-45.43
-48.17
-49.69
-50.28
-50.36
-50.40
-50.69
-51.26
-51.95
-52.51
-52.76
-52.62
-52.16
-51.54
-50.90
-50.37
-50.01
-49.86
-49.92
-50.19
-50.66
-51.34
-52.19
-53.22
-54.43
-55.83
-57.45
-59.30
-61.39
-63.65
-65.99
-68.29
-70.43
-72.36
-74.11
-75.76
-77.46
-79.31
-81.41
-83.75
-86.29
-88.97
-91.79
-94.83
-98.19
-101.91
-105.83
-109.55
-112.42
-113.71
-112.81
-109.48
-103.94
-96.80
-88.91
-81.01
-73.59
-66.75
-60.30
-54.07
-48.15
-43.02
-39.45
-38.16
-39.47
-43.00
-47.68
-52.13
-55.10
-55.92
-54.78
-52.64
-51.00
-51.62
-56.17
-65.61
-79.44
-95.24
-108.94
-116.02
-113.50
-101.37
-83.01
-63.86
-49.24
-42.37
-43.59
-51.11
-62.60
-76.65
-93.13
-113.70
-139.55
-170.35
-204.22
-238.43
-269.82
-294.89
-310.00
-312.18
-301.05
-278.11
-246.22
-208.79
-169.29
-130.76
-95.66
-66.14
-44.36
-35.09
-42.01
-65.95
-104.41
-152.24
-202.16
-245.04
-270.99
-271.33
-247.17
-201.90
-139.15
-63.17
18.27
94.02
152.91
187.50
195.74
167.67
102.80
13.20
-80.82
-161.96
-222.03
-260.84
-282.76
-294.19
-322.84
-385.94
-481.12
-589.31
-690.83
-775.15
-840.37
-889.46
-927.86
-989.15
-1094.21
-1239.54
-1400.45
-1551.33
-1677.93
-1776.86
-1851.33
-1735.62
-1364.97
-810.12
-229.68
253.40
598.96
820.64
950.02
1019.22
1056.01
1046.37
995.30
921.46
852.95
808.94
791.45
791.64
799.01
806.81
792.19
743.87
667.83
584.08
510.70
455.57
418.75
397.35
388.09
374.53
346.78
305.38
260.19
221.09
192.56
174.82
166.16
164.43
160.84
149.90
131.12
108.95
88.22
71.46
59.34
51.60
47.60
44.05
38.77
31.29
23.04
15.83
10.76
8.31
8.40
10.56
13.90
17.49
20.34
21.95
22.45
22.43
22.75
24.15
26.95
30.97
35.69
40.55
45.11
49.26
53.21
57.41
62.46
68.92
77.02
86.14
94.54
99.57
98.61
90.43
76.21
59.56
45.22
37.07
36.39
41.43
48.44
53.71
55.47
54.68
54.28
57.52
66.22
79.92
96.11
111.52
123.87
132.91
140.56
150.27
165.20
187.12
216.00
250.45
288.13
325.78
358.99
382.63
392.76
389.28
377.51
366.95
367.03
381.64
406.05
428.13
433.66
412.78
364.35
295.92
220.01
148.85
90.29
46.46
14.91
-8.83
-28.95
-47.99
-66.53
-84.11
-100.46
-116.12
-132.11
-148.74
-164.10
-173.31
-169.40
-145.59
-97.96
-27.87
57.18
144.83
220.68
271.62
289.41
272.74
227.58
165.80
102.55
53.14
29.87
39.09
79.47
141.90
211.76
273.17
313.88
328.69
319.98
295.35
263.60
231.39
202.17
176.74
154.83
136.09
120.15
106.06
91.97
75.33
53.86
26.58
-5.93
-41.93
-79.06
-115.34
-149.71
-182.23
-213.74
-245.40
-278.23
-312.79
-349.34
-388.40
-431.41
-480.59
-537.74
-602.33
-669.80
-731.72
-777.87
-799.87
-794.33
-764.05
-716.61
-661.09
-604.79
-551.51
-501.94
-455.24
-410.73
-368.53
-329.14
-292.76
-258.80
-226.19
-193.94
-161.59
-129.27
-97.59
-67.14
-38.24
-10.96
14.89
39.63
63.71
87.75
112.51
138.78
167.08
197.35
228.79
260.24
290.42
318.65
345.13
370.86
397.44
426.74
460.73
500.95
547.60
598.34
647.70
687.73
710.09
708.96
683.10
636.14
574.78
505.98
434.66
363.17
292.26
222.44
154.99
91.42
32.35
-23.37
-78.65
-137.29
-202.78
-277.03
-359.47
-446.06
-529.62
-601.16
-652.23
-677.81
-677.99
-657.86
-625.30
-587.94
-550.76
-515.66
-482.51
-450.86
-421.02
-393.74
-369.20
-346.16
-322.15
-294.65
-262.57
-226.90
-190.23
-155.63
-125.01
-98.41
-74.19
-50.29
-25.56
-0.67
22.12
40.09
51.68
57.66
61.04
65.88
75.31
89.97
107.58
124.12
135.92
141.78
143.79
146.57
155.33
173.64
202.34
239.73
281.98
323.74
358.49
379.42
381.35
363.60
331.88
297.46
273.01
266.48
276.32
291.13
294.54
273.12
223.06
151.91
74.59
5.99
-45.71
-81.19
-107.22
-131.04
-155.62
-178.34
-193.51
-196.90
-189.04
-175.53
-164.04
-160.21
-164.78
-173.41
-179.51
-178.01
-167.99
-152.93
-138.59
-129.86
-128.22
-131.08
-133.11
-128.76
-114.83
-91.88
-63.87
-36.29
-13.69
2.20
13.09
23.16
37.18
58.61
88.75
126.60
169.38
213.02
252.51
282.59
298.86
299.39
285.95
264.01
241.00
223.53
214.90
214.21
217.58
220.83
221.89
221.75
223.61
230.83
244.98
264.80
286.56
305.23
316.28
317.12
307.82
290.55
268.24
242.96
215.01
183.32
147.06
107.38
68.01
34.34
11.08
0.04
-0.73
3.99
8.85
10.12
6.73
-0.13
-8.40
-16.48
-23.85
-30.84
-37.98
-45.35
-52.38
-57.97
-61.05
-61.06
-58.19
-53.29
-47.37
-41.06
-34.17
-25.90
-15.39
-2.50
11.67
25.01
35.10
40.27
40.25
36.22
30.20
24.10
19.01
14.83
10.59
5.05
-2.60
-12.29
-22.85
-32.33
-38.62
-40.25
-37.11
-30.70
-23.73
-19.30
-19.38
-24.39
-33.23
-43.65
-53.09
-59.42
-61.50
-59.26
-53.44
-44.74
-33.93
-21.93
-10.01
0.22
7.12
9.46
6.81
-0.27
-9.46
-18.42
-25.84
-31.93
-38.17
-46.29
-57.37
-71.13
-85.76
-95.71
-95.93
-84.00
-61.29
