1660928255.00
64.000000
-0.00
-0.00
-0.00
-0.00
-0.00
-0.00
-0.00
-0.00
-0.00
-0.00
0.00
0.01
0.01
-0.00
-0.03
-0.05
-0.05
0.00
0.13
0.36
0.66
1.01
1.37
1.72
2.06
2.40
2.79
3.25
3.81
4.44
5.09
5.73
6.33
6.91
7.54
8.28
9.14
10.21
11.38
12.55
13.62
14.56
15.45
16.47
17.83
19.65
22.11
25.00
28.04
30.98
33.70
36.32
39.18
42.69
47.11
52.76
59.23
66.02
72.64
78.86
84.87
91.20
98.51
107.17
117.53
128.95
140.67
151.98
162.60
172.84
183.47
195.69
207.90
221.94
238.16
256.62
276.45
295.24
309.17
313.82
305.64
283.22
248.29
204.21
155.25
105.04
55.80
8.44
-36.85
-79.95
-120.64
-158.67
-194.72
-230.12
-266.32
-303.88
-341.53
-375.97
-402.56
-417.12
-417.33
-403.96
-380.53
-351.93
-322.58
-295.14
-270.23
-247.17
-225.16
-203.83
-183.60
-165.03
-148.32
-133.13
-118.77
-104.66
-90.65
-77.07
-64.52
-53.54
-44.31
-36.55
-29.67
-23.06
-16.39
-9.69
-3.33
2.22
6.66
9.96
12.41
14.43
16.38
18.42
20.48
22.35
23.80
24.70
25.08
25.07
24.87
24.66
24.54
24.53
24.58
24.55
24.35
23.90
23.23
22.42
21.58
20.80
20.09
19.43
18.76
18.09
17.44
16.87
16.40
15.99
15.60
15.16
14.70
14.30
14.02
13.91
13.89
13.84
13.64
13.24
12.71
12.15
11.64
11.22
10.84
10.47
10.11
9.80
9.59
9.47
9.39
9.26
9.00
8.65
8.29
7.99
7.78
7.56
7.25
6.80
6.27
5.81
5.55
5.50
5.58
5.62
5.51
5.19
4.73
4.24
3.82
3.49
3.26
3.08
2.94
2.81
2.63
2.34
1.87
1.21
0.40
-0.45
-1.26
-1.97
-2.56
-3.08
-3.53
-3.94
-4.31
-4.65
-4.99
-5.35
-5.77
-6.26
-6.78
-7.29
-7.72
-8.05
-8.25
-8.30
-8.20
-7.97
-7.64
-7.23
-6.80
-6.33
-5.80
-5.18
-4.48
-3.76
-3.09
-2.57
-2.24
-2.05
-1.86
-1.57
-1.12
-0.54
0.09
0.65
1.07
1.33
1.45
1.46
1.37
1.21
1.01
0.87
0.86
1.08
1.54
2.14
2.73
3.15
3.29
3.15
2.83
2.47
2.21
2.11
2.15
2.26
2.39
2.53
2.69
2.90
3.15
3.38
3.51
3.50
3.34
3.12
2.95
2.89
2.98
3.19
3.47
3.79
4.11
4.42
4.64
4.71
4.57
4.21
3.71
3.23
2.92
2.89
3.13
3.51
3.86
4.02
3.93
3.64
3.26
2.91
2.65
2.50
2.39
2.28
2.13
1.97
1.85
1.80
1.82
1.86
1.88
1.84
1.77
1.69
1.63
1.56
1.45
1.28
1.05
0.83
0.70
0.73
0.91
1.15
1.38
1.54
1.60
1.61
1.64
1.73
1.85
1.95
1.99
1.94
1.83
1.74
1.71
1.77
1.89
2.02
2.09
2.08
1.93
1.66
1.31
0.96
0.71
0.67
0.85
1.18
1.52
1.74
1.79
1.72
1.67
1.74
1.90
2.04
1.99
1.70
1.26
0.84
0.61
0.63
0.80
0.92
0.85
0.57
0.16
-0.21
-0.40
-0.40
-0.26
-0.12
-0.01
0.07
0.16
0.27
0.38
0.39
0.26
0.00
-0.30
-0.54
-0.63
-0.57
-0.41
-0.23
-0.04
0.16
0.42
0.74
1.09
1.37
1.50
1.42
1.13
0.74
0.37
0.16
0.20
0.50
1.00
1.59
2.14
2.54
2.70
2.60
2.27
1.77
1.26
0.86
0.65
0.64
0.73
0.77
0.66
0.36
-0.06
-0.49
-0.86
-1.14
-1.37
-1.60
-1.87
-2.24
-2.72
-3.25
-3.76
-4.10
-4.06
-3.50
-2.32
-0.55
1.62
3.89
5.89
7.29
7.89
7.68
6.81
5.55
4.16
2.82
1.61
0.59
-0.19
-0.65
-0.72
-0.45
0.03
0.52
0.87
1.04
1.13
1.25
1.45
1.69
1.80
1.63
1.07
0.17
-0.91
-1.96
-2.76
-3.19
-3.25
-3.00
-2.56
-2.01
-1.45
-0.97
-0.62
-0.47
-0.52
-0.73
-0.96
-1.06
-0.94
-0.62
-0.20
0.16
0.34
0.33
0.22
0.12
0.07
0.09
0.14
0.20
0.30
0.50
0.87
1.37
1.89
2.27
2.36
2.08
1.51
0.81
0.19
-0.18
-0.23
-0.01
0.38
0.78
1.05
1.14
1.07
0.91
0.78
0.75
0.86
1.04
1.19
1.17
0.89
0.35
-0.35
-1.03
-1.51
-1.70
-1.65
-1.49
-1.36
-1.35
-1.46
-1.62
-1.74
-1.76
-1.69
-1.59
-1.52
-1.52
-1.59
-1.68
-1.77
-1.84
-1.93
-2.06
-2.21
-2.32
-2.27
-1.98
-1.48
-0.86
-0.27
0.14
0.34
0.40
0.42
0.50
0.64
0.80
0.88
0.82
0.60
0.27
-0.10
-0.45
-0.73
-0.95
-1.19
-1.52
-1.99
-2.57
-3.15
-3.56
-3.69
-3.50
-3.08
-2.59
-2.22
-2.13
-2.37
-2.90
-3.57
-4.18
-4.53
-4.59
-4.48
-4.49
-4.98
-6.18
-8.05
-10.24
-12.23
-13.57
-14.08
-14.07
-14.17
-15.13
-17.48
-21.21
-25.68
-29.87
-32.74
-33.73
-33.11
-31.88
-31.46
-33.01
-36.86
-42.35
-48.09
-52.59
-55.01
-55.50
-55.09
-55.21
-57.19
-61.89
-69.55
-79.45
-89.55
-96.39
-95.62
-83.41
-58.29
-22.48
18.31
56.68
86.26
103.90
110.23
108.58
102.79
95.57
87.90
79.81
71.42
63.52
57.37
53.80
52.55
52.28
51.17
47.83
42.02
34.67
27.34
21.48
17.68
15.52
13.84
11.37
7.41
2.14
-3.48
-8.18
-11.04
-11.96
-11.73
-11.69
-13.08
-16.52
-21.63
-27.30
-32.23
-35.47
-36.90
-37.14
-37.27
-38.40
-41.42
-46.76
-54.14
-62.21
-68.45
-69.55
-62.50
-45.98
-21.40
7.24
34.60
56.01
69.10
74.24
73.78
70.50
66.38
62.19
57.93
53.57
49.52
46.49
44.96
44.83
45.33
45.45
44.43
42.16
39.21
36.49
34.84
34.60
35.58
37.13
38.52
39.19
38.98
38.06
36.78
35.53
34.63
34.23
34.42
35.17
36.40
38.06
40.15
42.71
45.83
49.52
53.66
57.82
61.54
64.48
66.83
69.54
74.00
81.19
90.61
99.96
105.49
103.20
90.17
65.49
30.41
-12.03
-57.70
-101.98
-140.47
-169.65
-187.63
-194.70
-193.30
-187.26
-180.47
-175.60
-173.28
-172.10
-169.22
-161.40
-145.95
-121.73
-89.80
-53.50
-17.51
13.48
36.25
49.81
55.38
55.42
52.51
48.56
44.62
41.17
38.46
36.71
36.05
36.30
36.89
37.04
35.98
33.26
28.97
23.72
18.44
14.06
11.17
9.86
9.71
10.01
10.09
9.61
8.62
7.45
6.42
5.69
5.13
4.47
3.48
2.12
0.55
-0.91
-1.97
-2.45
-2.30
-1.57
-0.33
1.29
3.13
4.95
6.49
7.55
8.13
8.43
8.88
9.88
11.64
14.00
16.43
18.22
18.84
18.25
17.01
16.14
16.66
19.02
22.86
27.03
30.17
31.28
30.32
28.14
26.13
25.61
27.42
31.92
38.92
47.51
55.60
59.79
56.05
41.31
15.26
-18.82
-54.82
-86.14
-108.27
-120.36
-124.67
-124.71
-123.01
-120.16
-115.50
-108.82
-101.76
-97.67
-99.77
-108.88
-121.94
-132.41
-132.35
-115.18
-77.91
-22.10
46.59
119.66
187.46
240.87
273.06
280.72
264.91
230.70
185.74
138.21
94.74
59.29
33.07
15.18
3.52
-4.46
-11.24
-18.65
-27.48
-37.32
-46.79
-54.27
-58.57
-59.37
-57.16
-52.92
-47.73
-42.49
-37.90
-34.42
-32.18
-30.89
-29.90
-28.38
-25.80
-22.15
-17.88
-13.80
-10.58
-8.58
-7.68
-7.52
-7.68
-7.85
-7.91
-7.87
-7.83
-7.88
-8.11
-8.57
-9.19
-9.79
-10.12
-9.90
-8.99
-7.45
-5.54
-3.62
-2.01
-0.87
-0.20
0.19
0.47
0.76
1.06
1.22
1.10
0.62
-0.14
-0.96
-1.60
-1.86
-1.72
-1.30
-0.79
-0.38
-0.17
-0.14
-0.23
-0.32
-0.34
-0.22
0.05
0.47
1.02
1.62
2.16
2.51
2.53
2.10
1.16
-0.24
-1.99
-3.86
-5.55
-6.83
-7.52
-7.63
-7.29
-6.75
-6.23
-5.87
-5.69
-5.62
-5.52
-5.28
-4.82
-4.14
-3.28
-2.32
-1.38
-0.53
0.14
0.62
0.93
1.12
1.25
1.35
1.43
1.47
1.45
1.37
1.22
1.01
0.70
0.28
-0.25
-0.85
-1.43
-1.86
-2.00
-1.80
-1.31
-0.69
-0.14
0.13
0.04
-0.35
-0.89
-1.35
-1.55
-1.40
-0.91
-0.13
0.88
2.08
3.37
4.60
5.58
6.10
6.04
5.46
4.58
3.68
2.99
2.64
2.59
2.71
2.85
2.88
2.75
2.50
2.20
1.94
1.76
1.65
1.57
1.47
1.36
1.28
1.26
1.29
1.30
1.19
0.88
0.41
-0.13
-0.62
-0.96
-1.16
-1.26
-1.32
-1.35
-1.28
-1.07
-0.71
-0.25
0.14
0.33
0.23
-0.11
-0.51
-0.72
-0.56
0.03
0.91
1.79
2.38
2.49
2.14
1.56
1.08
0.96
1.28
1.90
2.52
2.81
2.55
1.69
0.34
-1.26
-2.82
-4.11
-4.98
-5.41
-5.52
-5.49
-5.49
-5.61
-5.85
-6.14
-6.45
-6.83
-7.49
-8.68
-10.56
-13.07
-15.87
-18.43
-20.26
-21.20
-21.53
-21.94
-23.25
-26.07
-30.43
-35.71
-40.92
-45.06
-47.69
-49.15
-50.48
-52.99
-57.64
-64.55
-72.83
-80.94
-87.31
-91.03
-92.35
-92.60
-93.86
-98.22
-107.03
-120.18
-135.61
-149.31
-156.08
-150.87
-130.70
-96.11
-51.63
-4.75
36.40
65.65
80.69
83.34
78.37
71.31
66.58
66.43
70.93
78.80
88.19
97.54
105.79
112.45
117.48
121.05
123.41
124.73
125.15
124.92
124.56
124.86
126.69
130.60
136.53
143.81
151.42
158.65
165.30
171.80
178.79
186.55
194.79
202.79
209.99
216.37
222.39
228.23
233.04
234.61
229.84
215.91
191.47
157.05
114.54
66.28
14.30
-39.49
-92.58
-141.29
-181.11
-208.09
-220.49
-219.74
-209.96
-196.22
-182.63
-171.08
-161.40
-152.31
-142.78
-132.76
-122.96
-114.28
-107.11
-101.06
-95.32
-89.11
-82.09
-74.56
-67.21
-60.72
-55.44
-51.27
-47.70
-44.15
-40.23
-35.86
-31.31
-27.00
-23.29
-20.32
-18.01
-16.08
-14.24
-12.28
-10.18
-8.04
-6.08
-4.45
-3.21
-2.30
-1.60
-0.96
-0.31
0.37
1.05
1.71
2.33
2.87
3.28
3.51
3.55
3.51
3.53
3.75
4.20
4.75
5.16
5.19
4.73
3.82
2.62
1.32
0.05
-1.10
-2.09
-2.85
-3.33
-3.49
-3.38
-3.11
-2.79
-2.52
-2.32
-2.18
-2.10
-2.05
-2.03
-2.04
-2.07
-2.13
-2.20
-2.27
-2.28
-2.16
-1.85
-1.35
-0.75
-0.22
0.08
0.12
-0.04
-0.22
-0.27
-0.12
0.15
0.42
0.62
0.75
0.90
1.18
1.63
2.15
2.55
2.64
2.30
1.52
0.39
-0.96
-2.37
-3.67
-4.67
-5.22
-5.24
-4.74
-3.86
-2.82
-1.87
-1.21
-0.94
-1.05
-1.44
-1.94
-2.38
-2.64
-2.65
-2.42
-2.05
-1.66
-1.33
-1.09
-0.90
-0.73
-0.50
-0.21
0.17
0.64
1.18
1.75
2.25
2.57
2.64
2.43
2.05
1.63
1.27
0.99
0.74
0.46
0.10
-0.29
-0.63
-0.89
-1.11
-1.37
-1.75
-2.25
-2.78
-3.15
-3.24
-3.02
-2.57
-2.01
-1.45
-0.92
-0.39
0.15
0.68
1.10
1.29
1.15
0.65
-0.10
-0.93
-1.61
-2.02
-2.07
-1.81
-1.36
-0.87
-0.51
-0.39
-0.57
-1.03
-1.65
-2.20
-2.41
-2.05
-1.03
0.52
2.24
3.72
4.59
4.68
4.13
3.27
2.49
2.07
2.06
2.32
2.60
2.69
2.53
2.23
1.95
1.82
1.86
1.94
1.88
1.54
0.92
0.17
-0.49
-0.86
-0.86
-0.57
-0.20
0.04
-0.03
-0.39
-0.94
-1.46
-1.77
-1.77
-1.47
-0.96
-0.38
0.16
0.53
0.67
0.57
0.30
-0.07
-0.44
-0.72
-0.90
-0.97
-0.95
-0.86
-0.68
-0.46
-0.24
-0.10
-0.10
-0.27
-0.54
-0.83
-1.03
-1.07
-0.90
-0.55
-0.07
0.44
0.82
0.93
0.67
0.13
-0.50
-0.99
-1.20
-1.17
-1.10
-1.18
-1.49
-1.97
-2.45
-2.79
-2.92
-2.84
-2.51
-1.81
-0.62
1.04
2.92
4.56
5.49
5.43
4.47
2.97
1.43
0.21
-0.49
-0.72
-0.57
-0.18
0.34
0.89
1.34
1.61
1.63
1.41
1.03
0.58
0.13
-0.26
-0.53
-0.67
-0.63
-0.45
-0.21
-0.03
0.02
-0.07
-0.22
-0.35
-0.42
-0.48
-0.60
-0.84
-1.22
-1.63
-1.96
-2.11
-2.06
-1.83
-1.48
-1.08
-0.67
-0.31
-0.07
-0.00
-0.14
-0.41
-0.66
-0.72
-0.49
0.00
0.60
1.08
1.29
1.18
0.81
0.33
-0.17
-0.65
-1.11
-1.57
-2.00
-2.30
-2.38
-2.17
-1.72
-1.15
-0.58
-0.12
0.18
0.37
0.52
0.64
0.71
0.68
0.52
0.27
0.05
-0.02
0.11
0.36
0.56
0.59
0.39
0.07
-0.24
-0.40
-0.39
-0.27
-0.14
-0.09
-0.12
-0.18
-0.21
-0.16
-0.04
0.09
0.22
0.37
0.62
1.07
1.71
2.45
3.08
3.43
3.40
3.07
2.61
2.18
1.87
1.66
1.50
1.38
1.36
1.51
1.85
2.26
2.57
2.60
2.31
1.77
1.13
0.51
-0.04
-0.55
-1.09
-1.64
-2.13
-2.43
-2.44
-2.14
-1.59
-0.97
-0.43
-0.13
-0.13
-0.41
-0.86
-1.33
-1.67
-1.80
-1.74
-1.59
-1.50
-1.54
-1.73
-1.98
-2.19
-2.32
-2.41
-2.53
-2.73
-2.97
-3.15
-3.12
-2.78
-2.11
-1.15
-0.04
1.05
1.90
2.33
2.21
1.60
0.68
-0.25
-0.91
-1.15
-1.03
-0.75
-0.50
-0.34
-0.23
-0.02
0.31
0.71
0.98
0.95
0.62
0.13
-0.23
-0.26
0.09
0.65
1.16
1.38
1.23
0.82
0.38
0.12
0.17
0.50
1.01
1.55
2.05
2.48
2.87
3.24
3.60
3.88
4.04
4.04
3.84
3.45
2.84
2.02
0.99
-0.18
-1.35
-2.36
-3.02
-3.21
-2.96
-2.37
-1.65
-0.97
-0.47
-0.19
-0.13
-0.26
-0.58
-1.09
-1.81
-2.72
-3.74
-4.74
-5.58
-6.13
-6.35
-6.25
-5.89
-5.34
-4.69
-4.01
-3.35
-2.71
-2.11
-1.53
-0.94
-0.37
0.18
0.63
0.95
1.09
1.11
1.09
1.20
1.58
2.31
3.37
4.59
5.73
6.54
6.84
6.60
5.90
4.92
3.85
2.87
2.10
1.63
1.45
1.49
1.65
1.78
1.79
1.68
1.48
1.31
1.25
1.38
1.68
2.11
2.61
3.08
3.41
3.50
3.26
2.67
1.85
0.96
0.27
-0.05
0.01
0.32
0.59
0.58
0.18
-0.52
-1.28
-1.84
-2.04
-1.90
-1.56
-1.24
-1.05
-1.03
-1.12
-1.27
-1.46
-1.71
-2.09
-2.59
-3.18
-3.73
-4.12
-4.29
-4.21
-3.92
-3.49
-2.97
-2.36
-1.64
-0.77
0.23
1.31
2.36
3.25
3.82
3.97
3.68
2.98
1.98
0.81
-0.37
-1.42
-2.23
-2.66
-2.65
-2.19
-1.36
-0.34
0.63
1.32
1.60
1.47
1.08
0.60
0.19
-0.09
-0.27
-0.40
-0.52
-0.63
-0.69
-0.67
-0.55
-0.38
-0.20
-0.04
0.06
0.10
0.08
0.01
-0.04
0.00
0.18
0.53
0.95
1.33
1.57
1.62
1.52
1.39
1.31
1.28
1.23
1.07
0.75
0.35
0.03
-0.06
0.10
0.35
0.48
0.27
-0.33
-1.19
-2.02
-2.59
-2.76
-2.58
-2.23
-1.89
-1.70
-1.72
-1.92
-2.26
-2.65
-2.99
-3.17
-3.09
-2.69
-2.07
-1.40
-0.87
-0.62
-0.63
-0.74
-0.70
-0.34
0.38
1.29
2.11
2.59
2.59
2.16
1.48
0.73
0.09
-0.37
-0.60
-0.53
-0.13
0.66
1.77
3.00
4.07
4.68
4.64
3.98
2.90
1.71
0.74
0.18
0.05
0.25
0.57
0.81
0.86
0.71
0.44
0.18
0.04
0.11
0.40
0.87
1.44
1.99
2.40
2.58
2.49
2.18
1.71
1.16
0.56
-0.09
-0.78
-1.49
-2.12
-2.54
-2.65
-2.48
-2.13
-1.76
-1.47
-1.30
-1.21
-1.14
-1.05
-0.99
-1.01
-1.15
-1.42
-1.77
-2.12
-2.40
-2.56
-2.56
-2.38
-2.02
-1.55
-1.10
-0.82
-0.84
-1.14
-1.60
-1.97
-2.02
-1.59
-0.70
0.43
1.47
2.09
2.08
1.43
0.30
-0.98
-2.05
-2.60
-2.51
-1.83
-0.77
0.37
1.34
2.00
2.32
2.38
2.32
2.23
2.12
1.98
1.78
1.54
1.32
1.23
1.30
1.49
1.70
1.83
1.85
1.76
1.62
1.46
1.29
1.10
0.90
0.76
0.75
0.89
1.13
1.37
1.49
1.40
1.13
0.67
0.07
-0.68
-1.50
-2.25
-2.76
-2.86
-2.53
-1.91
-1.29
-0.90
-0.87
-1.14
-1.56
-1.92
-2.14
-2.20
-2.19
-2.19
-2.24
-2.32
-2.39
-2.42
-2.39
-2.30
-2.17
-2.05
-1.95
-1.87
-1.73
-1.45
-0.94
-0.19
0.72
1.59
2.23
2.44
2.16
1.44
0.45
-0.63
-1.60
-2.35
-2.83
-3.03
-3.01
-2.83
-2.60
-2.43
-2.36
-2.42
-2.57
-2.72
-2.76
-2.57
-2.03
-1.05
0.39
2.21
4.24
6.23
7.93
9.12
9.74
9.78
9.37
8.66
7.84
7.07
6.46
6.06
5.83
5.67
5.45
5.13
4.74
4.37
4.09
3.94
3.84
3.64
3.17
2.33
1.11
-0.37
-1.89
-3.20
-4.04
-4.30
-4.01
-3.34
-2.61
-2.08
-1.94
-2.20
-2.74
-3.41
-4.07
-4.65
-5.11
-5.47
-5.72
-5.86
-5.88
-5.80
-5.63
-5.36
-5.00
-4.53
-3.95
-3.29
-2.59
-1.87
-1.13
-0.30
0.71
1.95
3.39
4.89
6.13
6.78
6.57
5.39
3.42
1.04
-1.27
-3.12
-4.25
-4.62
-4.31
-3.50
-2.40
-1.25
-0.29
0.29
0.44
0.24
-0.11
-0.39
-0.44
-0.22
0.18
0.65
1.09
1.46
1.80
2.17
2.60
3.08
3.50
3.75
3.71
3.32
2.65
1.84
1.08
0.53
0.26
0.28
0.50
0.81
1.09
1.23
1.13
0.75
0.11
-0.69
-1.46
-2.03
-2.29
-2.22
-1.94
-1.62
-1.42
-1.41
-1.55
-1.72
-1.82
-1.80
-1.69
-1.62
-1.72
-2.04
-2.54
-3.10
-3.57
-3.81
-3.80
-3.54
-3.09
-2.53
-1.92
-1.31
-0.81
-0.48
-0.33
-0.24
-0.03
0.51
1.47
2.73
3.98
4.85
5.06
4.56
3.54
2.32
1.22
0.40
-0.11
-0.41
-0.57
-0.67
-0.71
-0.68
-0.62
-0.58
-0.58
-0.61
-0.61
-0.49
-0.20
0.22
0.67
1.04
1.24
1.21
0.99
0.68
0.38
0.22
0.27
0.54
0.98
1.48
1.91
2.18
2.26
2.17
1.99
1.80
1.65
1.53
1.41
1.21
0.90
0.47
-0.07
-0.61
-1.07
-1.37
-1.45
-1.36
-1.17
-0.98
-0.86
-0.86
-0.95
-1.11
-1.29
-1.46
-1.60
-1.67
-1.65
-1.58
-1.51
-1.54
-1.73
-2.12
-2.63
-3.11
-3.38
-3.32
-2.86
-2.06
-1.04
0.01
0.97
1.73
2.27
2.63
2.90
3.12
3.31
3.45
3.46
3.29
2.91
2.34
1.69
1.07
0.63
0.44
0.48
0.66
0.83
0.86
0.67
0.32
-0.04
-0.29
-0.34
-0.23
-0.08
-0.01
-0.07
-0.23
-0.39
-0.47
-0.40
-0.19
0.14
0.54
0.93
1.22
1.27
1.01
0.47
-0.15
-0.60
-0.65
-0.21
0.59
1.46
2.10
2.30
2.03
1.42
0.62
-0.24
-1.07
-1.85
-2.54
-3.08
-3.37
-3.36
-3.04
-2.50
-1.87
-1.29
-0.83
-0.48
-0.18
0.14
0.51
0.89
1.20
1.34
1.26
0.95
0.48
-0.08
-0.68
-1.25
-1.77
-2.16
-2.35
-2.29
-1.96
-1.45
-0.89
-0.41
-0.09
0.09
0.22
0.41
0.72
1.12
1.48
1.63
1.41
0.80
-0.05
-0.86
-1.38
-1.43
-1.05
-0.44
0.16
0.55
0.70
0.65
0.54
0.47
0.44
0.43
0.36
0.24
0.08
-0.03
-0.05
0.06
0.23
0.39
0.45
0.37
0.20
-0.00
-0.17
-0.26
-0.31
-0.31
-0.24
-0.02
0.43
1.09
1.83
2.47
2.83
2.87
2.65
2.29
1.90
1.44
0.83
0.01
-0.97
-1.91
-2.54
-2.65
-2.20
-1.35
-0.43
0.27
0.56
0.41
-0.05
-0.68
-1.32
-1.88
-2.32
-2.58
-2.60
-2.31
-1.73
-0.97
-0.23
0.27
0.43
0.28
0.01
-0.19
-0.17
0.04
0.31
0.46
0.40
0.17
-0.05
-0.09
0.17
0.68
1.28
1.73
1.86
1.58
0.95
0.10
-0.76
-1.44
-1.80
-1.80
-1.46
-0.90
-0.28
0.23
0.54
0.63
0.52
0.31
0.07
-0.14
-0.30
-0.40
-0.47
-0.53
-0.60
-0.69
-0.77
-0.80
-0.70
-0.45
-0.10
0.26
0.55
0.75
0.92
1.13
1.46
1.90
2.41
2.90
3.31
3.58
3.67
3.52
3.10
2.42
1.54
0.59
-0.31
-1.06
-1.61
-1.93
-2.03
-1.94
-1.69
-1.36
-1.04
-0.78
-0.57
-0.38
-0.19
-0.02
0.06
-0.02
-0.28
-0.63
-0.94
-1.11
-1.14
-1.12
-1.14
-1.26
-1.42
-1.53
-1.51
-1.40
-1.30
-1.31
-1.41
-1.52
-1.48
-1.21
-0.72
-0.17
0.27
0.45
0.32
-0.10
-0.68
-1.25
-1.59
-1.55
-1.03
-0.11
1.02
2.11
2.94
3.40
3.50
3.31
2.91
2.34
1.67
0.99
0.44
0.15
0.17
0.47
0.90
1.33
1.63
1.76
1.74
1.61
1.39
1.10
0.78
0.46
0.18
-0.02
-0.12
-0.11
-0.03
0.09
0.21
0.30
0.33
0.29
0.17
0.00
-0.19
-0.38
-0.54
-0.68
-0.81
-0.93
-1.02
-1.08
-1.09
-1.05
-1.00
-1.00
-1.07
-1.24
-1.44
-1.59
-1.61
-1.45
-1.17
-0.89
-0.73
-0.74
-0.90
-1.12
-1.25
-1.24
-1.13
-1.02
-1.01
-1.14
-1.34
-1.44
-1.30
-0.84
-0.13
0.68
1.42
1.96
2.27
2.39
2.35
2.18
1.85
1.36
0.69
-0.08
-0.87
-1.54
-2.01
-2.23
-2.19
-1.91
-1.45
-0.89
-0.30
0.30
0.86
1.39
1.85
2.17
2.30
2.22
1.97
1.66
1.40
1.29
1.33
1.45
1.56
1.57
1.47
1.33
1.21
1.18
1.23
1.34
1.47
1.65
1.87
2.12
2.33
2.37
2.11
1.50
0.60
-0.44
-1.43
-2.21
-2.69
-2.84
-2.69
-2.30
-1.81
-1.37
-1.14
-1.17
-1.43
-1.78
-2.06
-2.19
-2.20
-2.21
-2.34
-2.67
-3.17
-3.72
-4.15
-4.33
-4.16
-3.63
-2.77
-1.68
-0.50
0.58
1.36
1.68
1.50
0.93
0.25
-0.15
0.09
1.13
2.84
4.80
6.43
7.19
6.85
5.49
3.53
1.49
-0.16
-1.21
-1.68
-1.75
-1.66
-1.57
-1.57
-1.63
-1.72
-1.81
-1.87
-1.90
-1.90
-1.83
-1.69
-1.45
-1.11
-0.69
-0.23
0.22
0.61
0.92
1.17
1.40
1.63
1.86
2.08
2.20
2.17
1.97
1.61
1.19
0.81
0.59
0.59
0.81
1.18
1.58
1.90
2.05
2.01
1.77
1.38
0.89
0.38
-0.08
-0.41
-0.57
-0.57
-0.48
-0.41
-0.48
-0.72
-1.08
-1.47
-1.77
-1.93
-1.96
-1.93
-1.91
-1.97
-2.11
-2.29
-2.45
-2.55
-2.54
-2.42
-2.22
-1.97
-1.72
-1.53
-1.40
-1.30
-1.12
-0.74
-0.04
1.03
2.41
3.92
5.26
6.10
6.18
5.39
3.81
1.70
-0.55
-2.56
-4.01
-4.77
-4.84
-4.39
-3.62
-2.73
-1.92
-1.29
-0.94
-0.89
-1.13
-1.56
-2.04
-2.39
-2.44
-2.12
-1.43
-0.47
0.60
1.66
2.60
3.35
3.89
4.17
4.21
4.01
3.60
3.04
2.37
1.73
1.27
1.15
1.48
2.22
3.15
3.98
4.40
4.27
3.61
2.60
1.50
0.51
-0.29
-0.87
-1.28
-1.55
-1.69
-1.70
-1.60
-1.46
-1.38
-1.42
-1.61
-1.89
-2.13
-2.22
-2.11
-1.90
-1.75
-1.84
-2.22
-2.80
-3.34
-3.65
-3.62
-3.33
-2.97
-2.72
-2.60
-2.49
-2.13
-1.33
-0.05
1.59
3.29
4.74
5.73
6.16
6.04
5.44
4.44
3.13
1.59
-0.01
-1.47
-2.59
-3.23
-3.35
-3.03
-2.39
-1.55
-0.60
0.41
1.40
2.25
2.84
3.08
2.97
2.59
2.09
1.61
1.24
1.03
0.96
0.99
1.06
1.07
0.95
0.68
0.28
-0.17
-0.58
-0.89
-1.09
-1.21
-1.28
-1.31
-1.24
-1.03
-0.64
-0.10
0.49
0.97
1.22
1.19
0.91
0.50
0.07
-0.33
-0.70
-1.08
-1.50
-1.90
-2.19
-2.27
-2.12
-1.80
-1.43
-1.12
-0.94
-0.86
-0.86
-0.86
-0.88
-0.92
-1.02
-1.21
-1.49
-1.84
-2.19
-2.49
-2.72
-2.87
-2.98
-3.05
-3.03
-2.87
-2.47
-1.79
-0.86
0.19
1.20
2.07
2.76
3.27
3.59
3.63
3.33
2.70
1.91
1.22
0.96
1.28
2.17
3.36
4.51
5.31
5.54
5.18
4.29
3.02
1.54
0.06
-1.20
-2.06
-2.41
-2.24
-1.66
-0.89
-0.13
0.42
0.69
0.66
0.43
0.10
-0.22
-0.50
-0.72
-0.92
-1.09
-1.19
-1.16
-0.96
-0.59
-0.13
0.38
0.86
1.26
1.54
1.62
1.44
0.94
0.16
-0.74
-1.56
-2.12
-2.31
-2.17
-1.85
-1.51
-1.27
-1.16
-1.14
-1.14
-1.09
-0.97
-0.76
-0.49
-0.22
0.01
0.14
0.12
-0.07
-0.39
-0.79
-1.19
-1.55
-1.87
-2.18
-2.45
-2.66
-2.71
-2.57
-2.25
-1.84
-1.44
-1.10
-0.77
-0.32
0.39
1.36
2.45
3.38
3.90
3.84
3.24
2.33
1.39
0.70
0.42
0.58
1.07
1.73
2.38
2.86
3.08
2.96
2.50
1.74
0.82
-0.10
-0.83
-1.24
-1.30
-1.08
-0.75
-0.47
-0.33
-0.38
-0.53
-0.70
-0.80
-0.82
-0.76
-0.65
-0.48
-0.20
0.23
0.79
1.38
1.89
2.22
2.41
2.56
2.78
3.09
3.33
3.26
2.73
1.73
0.47
-0.69
-1.46
-1.72
-1.57
-1.23
-0.93
-0.80
-0.82
-0.91
-1.02
-1.10
-1.14
-1.14
-1.11
-1.04
-0.97
-0.98
-1.13
-1.44
-1.84
-2.20
-2.38
-2.29
-1.98
-1.54
-1.15
-0.95
-0.97
-1.17
-1.41
-1.53
-1.42
-1.05
-0.50
0.11
0.64
1.00
1.17
1.17
1.03
0.80
0.48
0.11
-0.23
-0.41
-0.34
0.04
0.66
1.36
1.95
2.32
2.42
2.32
2.11
1.85
1.59
1.31
1.01
0.74
0.55
0.46
0.45
0.42
0.27
-0.03
-0.43
-0.80
-0.99
-0.94
-0.68
-0.32
0.01
0.21
0.28
0.30
0.33
0.41
0.54
0.69
0.83
0.90
0.88
0.73
0.41
-0.07
-0.65
-1.20
-1.59
-1.66
-1.35
-0.74
0.03
0.73
1.19
1.33
1.19
0.90
0.62
0.43
0.33
0.23
0.00
-0.41
-0.96
-1.52
-1.90
-1.99
-1.78
-1.35
-0.81
-0.28
0.20
0.61
0.96
1.26
1.53
1.81
2.14
2.57
3.08
3.55
3.81
3.69
3.14
2.26
1.28
0.44
-0.08
-0.22
-0.06
0.23
0.43
0.38
-0.03
-0.77
-1.74
-2.75
-3.62
-4.19
-4.43
-4.35
-4.08
-3.75
-3.48
-3.35
-3.35
-3.41
-3.38
-3.14
-2.58
-1.72
-0.65
0.46
1.47
2.21
2.61
2.61
2.23
1.53
0.65
-0.23
-0.92
-1.31
-1.34
-1.07
-0.61
-0.10
0.32
0.60
0.75
0.85
0.94
1.03
1.05
0.90
0.52
-0.06
-0.74
-1.40
-1.99
-2.49
-2.90
-3.22
-3.38
-3.31
-3.04
-2.68
-2.40
-2.32
-2.40
-2.47
-2.29
-1.68
-0.58
0.93
2.61
4.21
5.45
6.13
6.12
5.40
4.08
2.41
0.68
-0.79
-1.75
-2.08
-1.84
-1.16
-0.30
0.50
1.04
1.22
1.09
0.73
0.30
-0.05
-0.21
-0.13
0.15
0.53
0.90
1.13
1.18
1.05
0.85
0.70
0.70
0.86
1.16
1.47
1.72
1.83
1.82
1.75
1.69
1.68
1.72
1.76
1.72
1.59
1.35
1.03
0.64
0.21
-0.22
-0.58
-0.83
-0.93
-0.91
-0.83
-0.76
-0.71
-0.65
-0.50
-0.26
0.01
0.15
0.03
-0.37
-0.96
-1.54
-1.93
-2.02
-1.83
-1.49
-1.15
-0.96
-0.97
-1.17
-1.43
-1.62
-1.62
-1.39
-0.98
-0.53
-0.20
-0.13
-0.36
-0.84
-1.43
-1.96
-2.27
-2.27
-1.98
-1.50
-1.01
-0.66
-0.53
-0.60
-0.76
-0.86
-0.80
-0.49
0.05
0.77
1.53
2.22
2.71
2.90
2.77
2.40
1.92
1.47
1.14
0.93
0.77
0.57
0.32
0.05
-0.16
-0.26
-0.29
-0.34
-0.51
-0.84
-1.27
-1.68
-1.97
-2.10
-2.10
-2.02
-1.92
-1.82
-1.73
-1.68
-1.77
-2.04
-2.52
-3.11
-3.67
-4.05
-4.19
-4.18
-4.13
-4.17
-4.30
-4.40
-4.31
-3.92
-3.25
-2.49
-1.90
-1.71
-2.06
-2.92
-4.15
-5.48
-6.64
-7.36
-7.48
-6.99
-6.05
-4.97
-4.12
-3.77
-4.01
-4.71
-5.51
-6.03
-5.95
-5.22
-4.03
-2.74
-1.67
-0.99
-0.63
-0.39
-0.08
0.25
0.32
-0.38
-2.36
-5.96
-11.21
-17.83
-25.26
-32.80
-39.79
-45.77
-50.59
-54.47
-57.87
-61.35
-65.38
-70.23
-75.98
-82.52
-89.64
-97.09
-104.59
-111.93
-118.98
-125.81
-132.64
-139.77
-147.55
-156.20
-165.76
-175.73
-184.85
-190.99
-191.39
-183.41
-165.28
-136.65
-98.56
-52.99
-2.51
49.86
100.55
145.46
180.53
202.79
211.57
208.84
198.62
185.48
172.93
162.58
154.28
147.08
140.09
133.02
126.05
119.41
113.08
106.72
100.00
92.77
85.22
77.81
71.07
65.31
60.58
56.61
52.98
49.32
45.41
41.29
37.16
33.29
29.87
27.01
24.69
22.84
21.33
20.03
18.83
17.62
16.32
15.00
13.82
13.08
13.02
13.79
15.22
16.92
18.37
19.19
19.37
19.33
19.78
21.38
24.44
28.70
33.38
37.51
40.35
41.71
42.07
42.47
44.14
48.02
54.33
62.38
70.57
76.82
79.29
77.10
70.94
62.94
56.04
52.87
54.76
61.09
69.54
77.02
80.89
80.16
75.87
70.86
68.59
71.64
80.28
91.86
101.31
102.62
90.81
63.79
23.29
-25.44
-75.17
-118.77
-151.10
-170.19
-177.05
-174.70
-166.68
-155.95
-144.41
-133.09
-122.66
-113.69
-106.63
-101.48
-97.39
-92.97
-86.86
-78.55
-68.79
-59.34
-52.23
-48.78
-49.00
-51.52
-54.23
-55.20
-53.47
-49.40
-44.42
-40.33
-38.47
-39.17
-41.67
-44.56
-46.52
-46.86
-45.82
-44.30
-43.43
-44.12
-46.90
-51.86
-58.57
-65.86
-71.62
-73.02
-67.29
-52.92
-30.59
-3.26
24.81
49.68
69.02
82.56
91.41
96.95
100.07
100.97
99.77
97.05
94.04
92.09
91.86
92.78
93.14
90.80
84.20
73.21
59.34
45.10
32.93
24.07
18.07
13.09
7.09
-1.04
-10.79
-20.34
-27.60
-31.28
-31.49
-29.55
-27.08
-25.25
-24.28
-23.62
-22.62
-21.00
-19.04
-17.33
-16.31
-15.99
-15.93
-15.50
-14.25
-12.12
-9.50
-6.96
-5.00
-3.81
-3.25
-2.95
-2.52
-1.70
-0.45
1.09
2.73
4.32
5.82
7.25
8.62
9.94
11.17
12.25
13.18
14.00
14.77
15.60
16.61
17.93
19.70
21.90
24.22
26.05
26.52
24.89
20.82
14.67
7.39
0.23
-5.71
-9.84
-12.12
-12.94
-12.80
-12.12
-11.11
-9.94
-8.79
-7.90
-7.52
-7.69
-8.29
-9.01
-9.53
-9.72
-9.67
-9.65
-9.94
-10.67
-11.76
-12.98
-14.05
-14.76
-15.02
-14.89
-14.46
-13.82
-13.06
-12.22
-11.35
-10.47
-9.59
-8.73
-7.93
-7.24
-6.68
-6.27
-5.97
-5.72
-5.44
-5.05
-4.54
-3.91
-3.21
-2.48
-1.79
-1.18
-0.71
-0.40
-0.28
-0.32
-0.47
-0.64
-0.76
-0.76
-0.67
-0.53
-0.45
-0.47
-0.59
-0.74
-0.78
-0.61
-0.22
0.32
0.87
1.27
1.46
1.44
1.29
1.10
0.93
0.80
0.68
0.53
0.35
0.15
-0.02
-0.13
-0.14
-0.09
-0.02
-0.00
-0.07
-0.18
-0.25
-0.19
0.05
0.41
0.75
0.90
0.73
0.25
-0.46
-1.24
-1.96
-2.54
-2.94
-3.17
-3.25
-3.19
-3.02
-2.75
-2.45
-2.16
-1.93
-1.79
-1.74
-1.75
-1.79
-1.81
-1.79
-1.71
-1.57
-1.40
-1.25
-1.15
-1.11
-1.14
-1.20
-1.25
-1.26
-1.22
-1.15
-1.06
-0.97
-0.85
-0.70
-0.51
-0.32
-0.17
-0.08
-0.04
-0.03
0.01
0.13
0.31
0.51
0.69
0.81
0.87
0.90
0.91
0.93
0.90
0.81
0.63
0.38
0.11
-0.14
-0.32
-0.42
-0.45
-0.41
-0.34
-0.24
-0.14
-0.06
-0.02
-0.01
-0.00
0.01
0.02
0.00
-0.07
-0.18
-0.31
-0.36
-0.28
-0.09
0.17
0.40
0.51
0.45
0.23
-0.11
-0.51
-0.87
-1.10
-1.11
-0.87
-0.44
0.06
0.45
0.61
0.51
0.30
0.13
0.14
0.33
0.56
0.69
0.61
0.34
-0.01
-0.30
-0.46
-0.48
-0.41
-0.34
-0.28
-0.24
-0.19
-0.13
-0.04
0.05
0.14
0.19
0.20
0.15
0.07
0.02
0.03
0.12
0.26
0.35
0.35
0.24
0.09
-0.03
-0.07
-0.04
-0.03
-0.10
-0.29
-0.55
-0.79
-0.89
-0.80
-0.53
-0.13
0.29
0.65
0.89
0.99
0.95
0.80
0.60
0.39
0.23
0.15
0.15
0.19
0.21
0.16
0.03
-0.14
-0.28
-0.34
-0.34
-0.34
-0.34
-0.34
-0.25
-0.03
0.32
0.67
0.90
0.87
0.60
0.17
-0.26
-0.56
-0.69
-0.67
-0.56
-0.41
-0.24
-0.04
0.20
0.46
0.73
0.94
1.04
0.99
0.79
0.48
0.15
-0.14
-0.38
-0.54
-0.63
-0.63
-0.50
-0.24
0.14
0.57
0.95
1.22
1.34
1.28
1.08
0.80
0.48
0.18
-0.08
-0.32
-0.57
-0.85
-1.11
-1.27
-1.20
-0.88
-0.38
0.12
0.46
0.57
0.50
0.40
0.37
0.42
0.48
0.46
0.31
0.09
-0.10
-0.20
-0.17
-0.04
0.17
0.41
0.65
0.85
0.96
0.92
0.76
0.57
0.45
0.48
0.65
0.87
1.02
1.00
0.81
0.52
0.21
-0.03
-0.13
-0.08
0.09
0.37
0.69
1.01
1.26
1.41
1.45
1.40
1.31
1.25
1.26
1.36
1.53
1.77
2.06
2.36
2.65
2.86
2.95
2.88
2.66
2.32
1.94
1.60
1.34
1.14
0.97
0.81
0.70
0.70
0.88
1.26
1.76
2.25
2.62
2.80
2.84
2.84
2.94
3.19
3.59
4.06
4.53
5.01
5.52
6.08
6.63
7.03
7.15
6.86
6.18
5.16
3.91
2.53
1.11
-0.23
-1.29
-1.87
-1.85
-1.26
-0.37
0.40
0.64
0.17
-0.99
-2.54
-4.11
-5.37
-6.18
-6.61
-6.84
-7.07
-7.38
-7.72
-7.96
-7.96
-7.71
-7.28
-6.80
-6.39
-6.06
-5.78
-5.47
-5.08
-4.64
-4.17
-3.74
-3.36
-3.07
-2.83
-2.65
-2.48
-2.28
-2.05
-1.81
-1.65
-1.60
-1.72
-1.94
-2.16
-2.25
-2.14
-1.83
-1.37
-0.91
-0.55
-0.40
-0.50
-0.78
-1.11
-1.36
-1.41
-1.24
-0.90
-0.52
-0.19
0.03
0.16
0.24
0.28
0.27
0.19
0.03
-0.15
-0.25
-0.19
0.02
0.29
0.47
0.44
0.15
-0.34
-0.89
-1.34
-1.59
-1.63
-1.54
-1.41
-1.31
-1.23
-1.15
-1.01
-0.80
-0.59
-0.44
-0.39
-0.42
-0.46
-0.42
-0.29
-0.10
0.05
0.14
0.18
0.28
0.50
0.83
1.16
1.35
1.31
1.08
0.83
0.72
0.81
1.02
1.18
1.12
0.83
0.44
0.19
0.23
0.56
1.05
1.48
1.69
1.63
1.39
1.07
0.77
0.50
0.25
-0.01
-0.21
-0.34
-0.36
-0.32
-0.27
-0.27
-0.27
-0.21
-0.04
0.25
0.58
0.85
0.92
0.77
0.44
0.06
-0.25
-0.41
-0.40
-0.29
-0.17
-0.13
-0.19
-0.32
-0.49
-0.64
-0.78
-0.92
-1.05
-1.14
-1.18
-1.13
-0.99
-0.77
-0.48
-0.14
0.25
0.63
0.94
1.10
1.05
0.82
0.47
0.10
-0.16
-0.24
-0.11
0.19
0.60
0.99
1.26
1.31
1.14
0.81
0.43
0.15
0.05
0.14
0.38
0.66
0.87
0.97
0.96
0.86
0.73
0.59
0.45
0.32
0.20
0.10
0.04
0.04
0.11
0.25
0.43
0.61
0.77
0.91
1.05
1.20
1.33
1.35
1.17
0.74
0.13
-0.53
-1.05
-1.30
-1.31
-1.17
-1.03
-0.95
-0.89
-0.76
-0.49
-0.11
0.23
0.39
0.32
0.06
-0.25
-0.53
-0.73
-0.92
-1.13
-1.35
-1.49
-1.43
-1.15
-0.74
-0.35
-0.13
-0.15
-0.31
-0.45
-0.44
-0.22
0.14
0.52
0.80
0.95
0.96
0.89
0.74
0.54
0.28
-0.01
-0.26
-0.41
-0.40
-0.26
-0.06
0.14
0.28
0.35
0.35
0.26
0.07
-0.19
-0.45
-0.64
-0.66
-0.50
-0.24
0.00
0.12
0.09
-0.04
-0.18
-0.24
-0.21
-0.14
-0.10
-0.10
-0.13
-0.11
0.02
0.27
0.60
0.90
1.06
1.04
0.88
0.71
0.64
0.77
1.05
1.38
1.59
1.58
1.33
0.93
0.48
0.10
-0.13
-0.20
-0.07
0.22
0.65
1.12
1.52
1.70
1.60
1.24
0.72
0.24
-0.08
-0.16
-0.05
0.14
0.28
0.28
0.10
-0.25
-0.69
-1.16
-1.60
-1.95
-2.16
-2.19
-2.04
-1.76
-1.42
-1.10
-0.86
-0.72
-0.65
-0.59
-0.50
-0.37
-0.22
-0.10
-0.07
-0.16
-0.39
-0.71
-1.06
-1.39
-1.61
-1.70
-1.65
-1.49
-1.25
-1.00
-0.76
-0.56
-0.41
-0.34
-0.31
-0.28
-0.17
0.09
0.46
0.86
1.12
1.12
0.85
0.41
-0.02
-0.25
-0.24
-0.03
0.23
0.37
0.28
-0.05
-0.55
-1.11
-1.59
-1.88
-1.91
-1.66
-1.17
-0.56
0.06
0.56
0.86
0.93
0.82
0.60
0.37
0.22
0.22
0.36
0.60
0.86
1.08
1.24
1.33
1.35
1.29
1.15
0.93
0.63
0.31
0.06
-0.06
-0.01
0.16
0.38
0.54
0.60
0.53
0.36
0.13
-0.12
-0.34
-0.49
-0.53
-0.46
-0.29
-0.09
0.08
0.18
0.21
0.23
0.28
0.38
0.46
0.46
0.33
0.08
-0.23
-0.51
-0.71
-0.80
-0.80
-0.69
-0.48
-0.22
0.02
0.14
0.08
-0.17
-0.51
-0.81
-0.98
-0.98
-0.88
-0.77
-0.73
-0.77
-0.81
-0.78
-0.61
-0.32
0.01
0.29
0.44
0.46
0.38
0.27
0.17
0.11
0.09
0.12
0.19
0.31
0.46
0.64
0.78
0.84
0.82
0.73
0.61
0.53
0.53
0.62
0.80
1.00
1.17
1.23
1.17
1.01
0.79
0.58
0.41
0.31
0.31
0.43
0.65
0.93
1.15
1.27
1.26
1.22
1.25
1.43
1.77
2.15
2.45
2.58
2.51
2.32
2.06
1.74
1.35
0.87
0.33
-0.18
-0.58
-0.83
-0.95
-1.04
-1.16
-1.32
-1.47
-1.53
-1.42
-1.12
-0.69
-0.21
0.20
0.44
0.44
0.20
-0.24
-0.78
-1.33
-1.82
-2.21
-2.45
-2.51
-2.35
-1.96
-1.42
-0.88
-0.53
-0.51
-0.79
-1.23
-1.61
-1.73
-1.51
-1.00
-0.34
0.28
0.72
0.95
0.97
0.88
0.77
0.72
0.75
0.82
0.85
0.77
0.56
0.28
0.01
-0.13
-0.15
-0.07
0.01
0.04
0.04
0.06
0.16
0.34
0.54
0.64
0.59
0.38
0.10
-0.14
-0.24
-0.20
-0.06
0.10
0.21
0.26
0.27
0.27
0.26
0.23
0.11
-0.10
-0.35
-0.52
-0.53
-0.40
-0.24
-0.22
-0.42
-0.80
-1.14
-1.22
-0.93
-0.35
0.27
0.67
0.73
0.46
0.02
-0.42
-0.73
-0.89
-0.92
-0.86
-0.78
-0.70
-0.62
-0.53
-0.41
-0.27
-0.10
0.05
0.17
0.25
0.29
0.31
0.28
0.20
0.04
-0.21
-0.49
-0.76
-0.95
-1.04
-1.05
-1.03
-1.02
-1.09
-1.23
-1.41
-1.56
-1.61
-1.49
-1.22
-0.84
-0.45
-0.14
0.07
0.18
0.22
0.23
0.21
0.16
0.09
0.04
0.06
0.16
0.32
0.42
0.38
0.16
-0.15
-0.38
-0.37
-0.06
0.44
0.93
1.21
1.20
0.95
0.58
0.24
0.02
-0.09
-0.11
-0.07
0.01
0.12
0.23
0.31
0.32
0.27
0.21
0.17
0.21
0.34
0.55
0.78
0.98
1.07
1.03
0.84
0.58
0.34
0.19
0.20
0.34
0.55
0.74
0.84
0.83
0.73
0.57
0.38
0.18
-0.02
-0.22
-0.41
-0.58
-0.70
-0.76
-0.72
-0.59
-0.37
-0.12
0.12
0.27
0.32
0.28
0.20
0.13
0.09
0.07
0.05
-0.01
-0.11
-0.22
-0.30
-0.34
-0.36
-0.40
-0.49
-0.59
-0.64
-0.57
-0.32
0.09
0.56
0.93
1.09
0.97
0.64
0.23
-0.15
-0.42
-0.53
-0.52
-0.43
-0.27
-0.07
0.16
0.35
0.45
0.41
0.25
0.05
-0.04
0.08
0.41
0.83
1.15
1.21
0.94
0.45
-0.08
-0.44
-0.52
-0.36
-0.07
0.19
0.34
0.39
0.37
0.33
0.26
0.13
-0.10
-0.45
-0.85
-1.22
-1.47
-1.59
-1.57
-1.49
-1.38
-1.29
-1.21
-1.11
-0.97
-0.75
-0.47
-0.18
0.07
0.22
0.26
0.23
0.20
0.21
0.24
0.28
0.26
0.18
0.06
-0.04
-0.08
-0.03
0.11
0.28
0.43
0.50
0.47
0.36
0.22
0.11
0.05
0.06
0.07
0.04
-0.09
-0.29
-0.51
-0.67
-0.69
-0.56
-0.31
-0.02
0.20
0.28
0.20
-0.00
-0.22
-0.35
-0.32
-0.13
0.12
0.36
0.52
0.59
0.59
0.55
0.45
0.28
0.04
-0.22
-0.43
-0.50
-0.40
-0.17
0.11
0.32
0.39
0.32
0.17
0.04
0.00
0.08
0.22
0.33
0.36
0.26
0.11
-0.04
-0.10
-0.06
0.07
0.22
0.32
0.34
0.29
0.19
0.08
-0.00
-0.07
-0.15
-0.29
-0.49
-0.73
-0.92
-0.96
-0.79
-0.43
-0.01
0.29
0.33
0.07
-0.35
-0.74
-0.92
-0.82
-0.54
-0.23
-0.05
-0.02
-0.08
-0.13
-0.09
0.03
0.22
0.41
0.60
0.75
0.84
0.78
0.55
0.15
-0.29
-0.62
-0.70
-0.53
-0.20
0.09
0.24
0.23
0.16
0.16
0.27
0.46
0.61
0.61
0.45
0.19
-0.03
-0.12
-0.08
0.03
0.09
0.07
-0.01
-0.08
-0.06
0.07
0.27
0.48
0.61
0.62
0.52
0.34
0.18
0.07
0.04
0.05
0.06
0.04
-0.01
-0.08
-0.15
-0.20
-0.23
-0.26
-0.29
-0.29
-0.26
-0.20
-0.14
-0.09
-0.07
-0.04
0.02
0.15
0.33
0.55
0.76
0.92
0.99
0.94
0.78
0.54
0.28
0.06
-0.06
-0.06
0.04
0.22
0.42
0.59
0.70
0.71
0.59
0.36
0.06
-0.22
-0.40
-0.45
-0.39
-0.27
-0.15
-0.07
0.00
0.09
0.20
0.34
0.48
0.59
0.64
0.62
0.53
0.37
0.15
-0.08
-0.28
-0.39
-0.38
-0.22
0.04
0.31
0.47
0.42
0.15
-0.27
-0.67
-0.90
-0.87
-0.59
-0.20
0.18
0.42
0.52
0.50
0.42
0.31
0.16
-0.03
-0.22
-0.36
-0.38
-0.28
-0.12
0.02
0.04
-0.08
-0.32
-0.62
-0.89
-1.08
-1.14
-1.04
-0.78
-0.39
0.05
0.47
0.78
0.91
0.86
0.65
0.34
0.02
-0.21
-0.30
-0.25
-0.12
-0.04
-0.07
-0.24
-0.49
-0.73
-0.85
-0.81
-0.64
-0.41
-0.22
-0.13
-0.16
-0.29
-0.45
-0.56
-0.54
-0.38
-0.13
0.13
0.33
0.45
0.48
0.44
0.34
0.19
-0.00
-0.22
-0.42
-0.56
-0.61
-0.57
-0.46
-0.33
-0.24
-0.26
-0.43
-0.71
-1.02
-1.23
-1.24
-1.02
-0.63
-0.20
0.14
0.32
0.36
0.32
0.30
0.37
0.48
0.56
0.49
0.24
-0.15
-0.51
-0.70
-0.63
-0.35
-0.02
0.20
0.22
0.09
-0.04
-0.06
0.06
0.23
0.29
0.15
-0.15
-0.48
-0.69
-0.71
-0.60
-0.46
-0.39
-0.40
-0.43
-0.41
-0.32
-0.22
-0.21
-0.33
-0.53
-0.66
-0.61
-0.33
0.12
0.61
1.03
1.31
1.50
1.64
1.74
1.78
1.71
1.48
1.12
0.71
0.33
0.05
-0.09
-0.11
-0.03
0.09
0.23
0.37
0.47
0.54
0.58
0.61
0.65
0.68
0.70
0.66
0.55
0.41
0.28
0.22
0.24
0.30
0.33
0.29
0.19
0.07
-0.01
-0.03
-0.02
-0.08
-0.25
-0.49
-0.69
-0.71
-0.47
-0.02
0.48
0.82
0.86
0.59
0.13
-0.35
-0.68
-0.80
-0.75
-0.66
-0.64
-0.73
-0.89
-1.01
-1.02
-0.87
-0.61
-0.32
-0.08
0.04
0.03
-0.08
-0.28
-0.52
-0.75
-0.91
-0.95
-0.85
-0.65
-0.40
-0.16
0.08
0.32
0.57
0.78
0.88
0.77
0.44
-0.00
-0.40
-0.61
-0.52
-0.17
0.29
0.69
0.89
0.84
0.57
0.21
-0.10
-0.26
-0.24
-0.09
0.09
0.22
0.27
0.23
0.17
0.16
0.23
0.37
0.53
0.66
0.72
0.72
0.66
0.57
0.46
0.33
0.21
0.10
0.02
-0.02
-0.02
0.03
0.08
0.12
0.12
0.08
0.02
-0.04
-0.07
-0.07
-0.05
-0.05
-0.09
-0.19
-0.33
-0.50
-0.69
-0.91
-1.14
-1.37
-1.53
-1.55
-1.39
-1.09
-0.73
-0.45
-0.32
-0.35
-0.44
-0.47
-0.36
-0.11
0.20
0.48
0.69
0.82
0.91
0.94
0.90
0.78
0.59
0.41
0.32
0.37
0.51
0.66
0.72
0.64
0.46
0.27
0.12
0.05
0.01
-0.01
-0.04
-0.04
0.03
0.16
0.34
0.48
0.54
0.50
0.40
0.28
0.14
-0.01
-0.18
-0.35
-0.46
-0.46
-0.36
-0.22
-0.13
-0.09
-0.06
0.05
0.31
0.67
1.00
1.17
1.14
0.99
0.80
0.65
0.50
0.27
-0.10
-0.52
-0.85
-0.91
-0.67
-0.27
0.06
0.11
-0.15
-0.61
-1.02
-1.21
-1.10
-0.78
-0.38
-0.06
0.10
0.13
0.07
0.02
0.03
0.11
0.21
0.27
0.24
0.09
-0.11
-0.27
-0.29
-0.16
0.05
0.22
0.24
0.09
-0.14
-0.33
-0.34
-0.20
0.01
0.15
0.14
0.00
-0.16
-0.23
-0.19
-0.07
0.01
-0.03
-0.22
-0.47
-0.69
-0.80
-0.83
-0.86
-1.00
-1.29
-1.71
-2.18
-2.63
-3.07
-3.51
-3.94
-4.33
-4.59
-4.68
-4.61
-4.47
-4.42
-4.58
-5.00
-5.66
-6.46
-7.28
-8.04
-8.71
-9.33
-10.03
-10.95
-12.24
-13.93
-15.93
-18.03
-20.02
-21.81
-23.53
-25.48
-28.00
-31.28
-35.24
-39.50
-43.52
-46.87
-49.47
-51.66
-54.13
-57.56
-62.28
-68.10
-74.35
-80.36
-85.71
-90.56
-95.40
-100.69
-106.55
-112.74
-118.91
-124.85
-130.30
-134.38
-135.23
-130.23
-116.95
-94.51
-64.21
-29.16
7.07
41.95
74.63
105.33
134.04
159.50
179.28
191.01
193.77
188.92
179.58
169.29
160.64
154.58
150.74
148.01
145.06
140.49
132.88
120.99
104.20
83.06
59.26
35.15
12.82
-6.51
-22.58
-35.65
-45.85
-53.00
-56.83
-57.57
-56.25
-54.53
-54.03
-55.77
-59.78
-65.19
-70.61
-74.36
-75.00
-71.72
-64.62
-54.76
-43.74
-33.06
-23.53
-15.23
-7.82
-1.14
4.44
8.27
9.91
9.63
8.46
7.79
8.74
11.77
16.62
22.64
29.20
35.83
42.37
48.80
55.24
61.81
68.57
75.40
81.91
87.57
91.86
94.65
96.27
97.49
99.24
102.20
106.55
111.89
117.50
122.68
127.13
131.02
134.98
139.67
145.59
152.93
161.69
171.88
183.42
195.80
207.54
216.07
218.14
210.79
192.49
163.69
126.44
83.31
36.41
-12.84
-63.00
-111.70
-155.22
-189.28
-210.62
-218.55
-215.31
-205.17
-192.54
-180.43
-169.76
-160.01
-150.33
-140.46
-130.94
-122.56
-115.69
-109.92
-104.32
-98.00
-90.62
-82.48
-74.40
-67.11
-60.93
-55.61
-50.59
-45.31
-39.55
-33.59
-28.08
-23.82
-21.47
-21.32
-23.15
-26.25
-29.50
-31.71
-31.99
-30.07
-26.38
-21.80
-17.30
-13.54
-10.72
-8.66
-7.08
-5.86
-5.05
-4.76
-4.95
-5.35
-5.56
-5.24
-4.30
-2.96
-1.61
-0.69
-0.51
-1.16
-2.43
-3.83
-4.70
-4.32
-2.29
1.36
6.00
10.61
14.17
15.97
15.94
14.53
12.52
10.59
9.12
8.09
7.24
6.29
5.11
3.74
2.29
0.84
-0.67
-2.35
-4.28
-6.31
-8.10
-9.18
-9.18
-8.02
-5.98
-3.60
-1.45
0.07
0.82
0.91
0.57
-0.01
-0.72
-1.55
-2.49
-3.53
-4.54
-5.44
-6.16
-6.75
-7.35
-8.14
-9.20
-10.47
-11.73
-12.70
-13.21
-13.36
-13.56
-14.30
-15.98
-18.61
-21.74
-24.62
-26.55
-27.25
-27.02
-26.52
-26.47
-27.10
-28.00
-28.21
-26.86
-23.77
-19.72
-16.32
-15.23
-17.39
-22.63
-29.83
-37.46
-43.78
-46.86
-44.45
-34.23
-14.75
13.33
46.29
77.98
101.64
112.52
109.91
97.22
80.12
63.58
49.64
36.96
22.48
3.85
-18.76
-42.60
-63.95
-80.16
-91.03
-98.59
-105.60
-113.82
-123.13
-131.97
-138.66
-142.67
-145.09
-148.24
-154.47
-165.15
-179.98
-196.84
-212.14
-221.66
-221.66
-209.98
-186.65
-153.67
-114.01
-70.15
-23.24
26.61
79.08
132.22
182.08
223.55
252.45
267.39
270.44
266.24
259.99
255.43
253.90
254.64
255.93
256.40
255.70
254.37
253.21
252.68
252.56
252.18
250.97
248.99
247.15
246.63
247.94
249.97
249.85
243.72
228.24
201.94
165.72
122.08
73.82
22.97
-29.18
-81.10
-130.12
-172.19
-203.12
-220.27
-223.91
-217.19
-204.84
-191.15
-178.64
-167.79
-157.81
-147.85
-137.73
-127.98
-119.28
-111.90
-105.46
-99.19
-92.39
-84.78
-76.67
-68.74
-61.72
-56.03
-51.61
-48.02
-44.62
-40.94
-36.86
-32.67
-28.84
-25.79
-23.65
-22.20
-21.01
-19.63
-17.82
-15.60
-13.25
-11.09
-9.38
-8.24
-7.63
-7.38
-7.27
-7.13
-6.87
-6.50
-6.16
-5.99
-6.04
-6.28
-6.58
-6.81
-6.96
-7.12
-7.45
-8.14
-9.29
-10.91
-12.93
-15.20
-17.53
-19.75
-21.79
-23.73
-25.85
-28.49
-31.91
-36.05
-40.52
-44.77
-48.31
-51.01
-53.24
-55.71
-59.19
-64.15
-70.59
-77.90
-85.05
-90.90
-94.62
-96.09
-96.22
-96.80
-99.91
-106.81
-116.77
-126.65
-131.40
-125.56
-105.12
-68.93
-19.24
38.79
98.46
153.03
197.20
228.06
245.54
252.09
251.82
249.06
246.76
245.28
242.29
233.94
216.89
190.12
155.69
118.04
82.22
52.01
28.85
12.02
-0.22
-9.13
-14.91
-16.86
-14.33
-7.64
1.70
11.48
19.85
25.95
30.14
33.62
37.67
43.18
50.39
59.21
69.41
80.44
90.90
98.07
98.05
86.94
62.70
26.68
-16.10
-58.41
-93.32
-116.56
-127.62
-129.00
-124.48
-117.22
-108.93
-100.12
-91.03
-82.29
-74.93
-69.77
-66.85
-65.25
-63.48
-60.27
-55.18
-48.70
-42.02
-36.39
-32.55
-30.50
-29.53
-28.62
-26.96
-24.24
-20.79
-17.32
-14.53
-12.84
-12.16
-12.00
-11.77
-11.05
-9.73
-8.02
-6.30
-4.92
-4.08
-3.82
-3.95
-4.18
-4.19
-3.75
-2.83
-1.60
-0.36
0.63
1.22
1.46
1.52
1.58
1.75
2.05
2.39
2.66
2.77
2.67
2.40
2.09
1.87
1.87
2.12
2.51
2.87
3.05
2.94
2.57
2.06
1.49
0.91
0.32
-0.27
-0.85
-1.36
-1.78
-2.08
-2.29
-2.43
-2.47
-2.34
-1.94
-1.23
-0.30
0.62
1.25
1.36
0.88
-0.08
-1.24
-2.28
-2.94
-3.10
-2.79
-2.15
-1.36
-0.60
0.03
0.41
0.49
0.25
-0.23
-0.80
-1.21
-1.23
-0.75
0.24
1.51
2.75
3.65
3.98
3.72
3.03
2.20
1.50
1.10
1.00
1.09
1.22
1.27
1.19
0.96
0.65
0.29
-0.07
-0.38
-0.60
-0.73
-0.78
-0.78
-0.78
-0.80
-0.84
-0.89
-0.95
-1.03
-1.13
-1.24
-1.29
-1.25
-1.07
-0.77
-0.44
-0.14
0.09
0.24
0.39
0.58
0.82
1.07
1.22
1.20
0.99
0.63
0.22
-0.14
-0.37
-0.46
-0.45
-0.37
-0.25
-0.12
-0.04
-0.07
-0.29
-0.68
-1.22
-1.77
-2.20
-2.42
-2.38
-2.11
-1.67
-1.17
-0.68
-0.30
-0.05
0.04
0.04
0.04
0.14
0.39
0.77
1.17
1.51
1.70
1.73
1.66
1.55
1.43
1.31
1.19
1.09
1.04
1.05
1.11
1.15
1.10
0.96
0.77
0.63
0.62
0.76
0.97
1.12
1.09
0.85
