1660937136.00
64.000000
-0.00
-0.00
-0.00
-0.00
-0.00
-0.00
-0.00
-0.00
-0.00
-0.00
0.00
0.01
0.01
-0.00
-0.03
-0.05
-0.05
0.00
0.13
0.36
0.66
1.01
1.37
1.72
2.06
2.40
2.79
3.25
3.81
4.44
5.10
5.74
6.33
6.89
7.50
8.23
9.13
10.29
11.60
12.93
14.13
15.16
16.08
17.08
18.41
20.23
22.76
25.79
29.00
32.08
34.86
37.47
40.26
43.73
48.21
54.06
60.88
68.07
75.03
81.40
87.36
93.53
100.74
109.57
120.50
132.86
145.67
157.90
169.02
179.26
189.55
201.53
214.03
229.19
247.26
267.92
289.65
309.53
323.57
327.68
319.03
296.98
263.72
222.52
176.98
129.79
82.42
35.56
-10.24
-54.06
-94.88
-131.82
-165.23
-196.30
-226.78
-258.29
-291.71
-326.61
-360.90
-391.16
-413.20
-423.61
-420.91
-406.25
-382.92
-355.13
-326.46
-298.89
-272.87
-247.94
-223.84
-200.95
-180.07
-161.84
-146.16
-132.17
-118.66
-104.69
-90.04
-75.30
-61.55
-49.76
-40.33
-32.98
-26.89
-21.12
-15.06
-8.64
-2.26
3.47
8.12
11.60
14.20
16.34
18.42
20.58
22.74
24.67
26.16
27.06
27.42
27.38
27.16
26.95
26.85
26.85
26.84
26.64
26.15
25.32
24.22
23.03
21.91
21.00
20.34
19.87
19.50
19.11
18.66
18.15
17.63
17.11
16.62
16.10
15.50
14.82
14.11
13.47
12.98
12.70
12.60
12.59
12.56
12.43
12.18
11.81
11.35
10.84
10.31
9.83
9.46
9.29
9.34
9.58
9.90
10.14
10.16
9.90
9.39
8.75
8.12
7.58
7.14
6.77
6.44
6.14
5.87
5.63
5.36
4.98
4.44
3.74
2.99
2.35
1.95
1.80
1.79
1.75
1.53
1.04
0.33
-0.52
-1.38
-2.14
-2.79
-3.36
-3.91
-4.51
-5.16
-5.83
-6.49
-7.11
-7.73
-8.40
-9.16
-9.96
-10.65
-11.07
-11.10
-10.77
-10.24
-9.70
-9.34
-9.15
-9.04
-8.81
-8.32
-7.54
-6.57
-5.59
-4.78
-4.22
-3.87
-3.62
-3.35
-2.99
-2.55
-2.09
-1.65
-1.23
-0.78
-0.27
0.32
0.93
1.48
1.90
2.14
2.24
2.26
2.24
2.26
2.34
2.50
2.73
3.02
3.32
3.59
3.78
3.89
3.96
4.03
4.12
4.21
4.19
4.04
3.75
3.46
3.32
3.44
3.82
4.35
4.81
5.07
5.09
4.92
4.70
4.49
4.33
4.21
4.12
4.07
4.12
4.28
4.56
4.88
5.14
5.25
5.15
4.83
4.36
3.86
3.46
3.27
3.30
3.49
3.68
3.72
3.57
3.27
2.97
2.79
2.79
2.91
3.04
3.07
2.94
2.71
2.44
2.19
1.95
1.70
1.45
1.24
1.12
1.14
1.29
1.50
1.71
1.86
1.97
2.06
2.13
2.16
2.10
1.91
1.62
1.29
1.01
0.84
0.81
0.94
1.21
1.59
2.01
2.38
2.60
2.59
2.35
1.92
1.43
1.00
0.69
0.54
0.56
0.69
0.87
1.01
1.06
1.03
0.96
0.95
1.02
1.17
1.26
1.18
0.89
0.44
-0.00
-0.31
-0.42
-0.33
-0.13
0.11
0.38
0.69
1.05
1.43
1.75
1.92
1.92
1.79
1.62
1.51
1.53
1.63
1.77
1.83
1.76
1.58
1.33
1.07
0.80
0.53
0.25
-0.04
-0.27
-0.38
-0.32
-0.09
0.26
0.62
0.89
1.02
1.00
0.88
0.71
0.55
0.44
0.37
0.35
0.35
0.40
0.50
0.65
0.82
0.96
1.02
1.00
0.91
0.77
0.62
0.50
0.45
0.47
0.57
0.75
0.98
1.20
1.37
1.47
1.45
1.29
1.02
0.65
0.27
0.02
0.01
0.27
0.71
1.17
1.48
1.52
1.32
0.95
0.54
0.18
-0.08
-0.22
-0.23
-0.12
0.09
0.33
0.51
0.57
0.50
0.35
0.18
0.05
-0.02
-0.02
0.04
0.16
0.36
0.57
0.72
0.74
0.58
0.27
-0.10
-0.40
-0.53
-0.47
-0.29
-0.10
-0.01
-0.04
-0.17
-0.31
-0.38
-0.33
-0.18
0.03
0.28
0.57
0.91
1.27
1.61
1.80
1.76
1.49
1.09
0.69
0.43
0.32
0.32
0.30
0.20
0.06
-0.05
-0.06
0.01
0.07
0.01
-0.20
-0.51
-0.77
-0.84
-0.66
-0.29
0.15
0.55
0.82
0.95
0.93
0.82
0.67
0.55
0.52
0.60
0.74
0.84
0.81
0.59
0.23
-0.14
-0.40
-0.45
-0.32
-0.08
0.18
0.38
0.50
0.53
0.49
0.38
0.21
0.01
-0.19
-0.34
-0.41
-0.40
-0.31
-0.15
0.04
0.24
0.40
0.48
0.48
0.42
0.37
0.38
0.47
0.58
0.61
0.47
0.15
-0.30
-0.77
-1.18
-1.48
-1.65
-1.73
-1.75
-1.76
-1.81
-1.96
-2.28
-2.78
-3.42
-4.14
-4.88
-5.62
-6.36
-7.12
-7.89
-8.62
-9.28
-9.82
-10.28
-10.79
-11.54
-12.74
-14.51
-16.77
-19.28
-21.71
-23.81
-25.63
-27.50
-29.92
-33.28
-37.64
-42.65
-47.74
-52.38
-56.47
-60.36
-64.76
-70.39
-77.62
-86.27
-95.66
-104.98
-113.54
-121.13
-128.08
-135.05
-142.75
-151.76
-162.45
-174.99
-189.17
-204.04
-217.56
-226.72
-228.23
-219.51
-199.72
-170.02
-132.93
-91.10
-46.29
0.68
49.06
96.91
140.64
175.66
198.22
207.07
204.26
194.38
182.74
173.59
169.11
169.34
173.13
179.05
185.90
192.69
198.44
202.07
202.67
200.04
194.97
189.22
185.07
184.47
188.28
196.02
206.01
216.13
224.66
230.94
235.56
240.07
246.33
255.59
267.81
281.20
292.41
297.42
292.83
277.04
250.85
217.01
179.08
140.03
101.31
62.76
23.10
-19.10
-64.51
-112.36
-160.23
-204.36
-240.57
-265.42
-277.35
-277.22
-267.91
-253.17
-236.35
-219.52
-203.50
-188.42
-174.40
-161.78
-150.96
-141.92
-134.02
-126.25
-117.69
-108.00
-97.56
-87.30
-78.21
-70.89
-65.32
-60.84
-56.58
-51.76
-46.10
-39.91
-33.89
-28.79
-25.07
-22.69
-21.16
-19.77
-17.96
-15.50
-12.61
-9.72
-7.32
-5.66
-4.71
-4.25
-3.97
-3.66
-3.24
-2.73
-2.21
-1.75
-1.37
-1.06
-0.85
-0.73
-0.72
-0.82
-0.99
-1.18
-1.32
-1.36
-1.21
-0.82
-0.18
0.67
1.59
2.44
3.05
3.38
3.44
3.36
3.29
3.32
3.43
3.52
3.42
3.04
2.39
1.63
0.97
0.60
0.57
0.83
1.23
1.59
1.83
1.91
1.88
1.80
1.69
1.57
1.46
1.43
1.58
2.02
2.74
3.66
4.57
5.24
5.47
5.17
4.35
3.13
1.67
0.19
-1.12
-2.12
-2.76
-3.15
-3.47
-3.88
-4.39
-4.89
-5.21
-5.20
-4.87
-4.33
-3.79
-3.37
-3.10
-2.90
-2.72
-2.53
-2.36
-2.23
-2.10
-1.89
-1.55
-1.05
-0.48
0.02
0.32
0.37
0.26
0.15
0.23
0.60
1.22
1.94
2.54
2.93
3.12
3.27
3.54
3.98
4.53
4.95
5.06
4.76
4.16
3.43
2.75
2.15
1.56
0.83
-0.11
-1.17
-2.12
-2.73
-2.84
-2.51
-1.95
-1.47
-1.29
-1.48
-1.90
-2.30
-2.47
-2.31
-1.89
-1.38
-0.98
-0.81
-0.81
-0.82
-0.63
-0.10
0.78
1.89
3.01
3.89
4.33
4.21
3.49
2.25
0.69
-0.92
-2.29
-3.17
-3.46
-3.28
-2.90
-2.64
-2.71
-3.13
-3.74
-4.27
-4.50
-4.38
-3.99
-3.53
-3.15
-2.94
-2.87
-2.91
-3.01
-3.15
-3.27
-3.27
-3.02
-2.41
-1.46
-0.29
0.84
1.70
2.17
2.22
1.97
1.61
1.34
1.29
1.55
2.08
2.81
3.62
4.44
5.23
6.00
6.76
7.48
8.07
8.42
8.48
8.23
7.73
7.00
6.08
4.96
3.66
2.21
0.71
-0.73
-2.00
-3.03
-3.79
-4.29
-4.59
-4.74
-4.84
-4.94
-5.02
-5.04
-4.95
-4.74
-4.49
-4.28
-4.15
-4.02
-3.77
-3.26
-2.51
-1.64
-0.91
-0.51
-0.50
-0.79
-1.19
-1.47
-1.51
-1.20
-0.54
0.44
1.66
2.97
4.15
5.00
5.38
5.26
4.75
4.02
3.24
2.58
2.10
1.82
1.68
1.61
1.54
1.42
1.24
1.04
0.85
0.69
0.55
0.42
0.30
0.21
0.16
0.18
0.28
0.46
0.69
0.98
1.30
1.64
1.99
2.30
2.56
2.74
2.82
2.80
2.72
2.58
2.38
2.11
1.72
1.15
0.42
-0.45
-1.36
-2.20
-2.88
-3.35
-3.65
-3.88
-4.09
-4.32
-4.51
-4.58
-4.47
-4.20
-3.84
-3.48
-3.19
-2.95
-2.69
-2.35
-1.90
-1.40
-0.95
-0.64
-0.52
-0.53
-0.57
-0.52
-0.27
0.21
0.88
1.66
2.42
3.07
3.53
3.76
3.75
3.55
3.27
3.09
3.20
3.73
4.65
5.77
6.77
7.33
7.22
6.39
4.93
3.06
1.00
-1.00
-2.73
-4.03
-4.81
-5.03
-4.80
-4.23
-3.47
-2.66
-1.90
-1.29
-0.91
-0.85
-1.08
-1.50
-1.91
-2.10
-1.96
-1.54
-1.03
-0.64
-0.53
-0.70
-1.01
-1.31
-1.50
-1.57
-1.60
-1.64
-1.72
-1.81
-1.86
-1.86
-1.82
-1.76
-1.73
-1.75
-1.80
-1.88
-1.97
-2.03
-2.05
-1.99
-1.84
-1.58
-1.18
-0.65
0.01
0.70
1.29
1.64
1.69
1.49
1.21
1.03
1.05
1.26
1.55
1.81
2.02
2.17
2.30
2.42
2.49
2.46
2.32
2.11
1.87
1.62
1.32
0.96
0.54
0.11
-0.20
-0.36
-0.37
-0.33
-0.35
-0.49
-0.74
-1.04
-1.31
-1.48
-1.57
-1.59
-1.59
-1.61
-1.65
-1.71
-1.79
-1.89
-2.00
-2.12
-2.24
-2.31
-2.24
-1.93
-1.32
-0.41
0.70
1.82
2.76
3.42
3.75
3.82
3.71
3.52
3.32
3.16
3.05
2.96
2.83
2.55
2.02
1.24
0.29
-0.66
-1.42
-1.87
-1.99
-1.90
-1.76
-1.68
-1.69
-1.75
-1.76
-1.66
-1.45
-1.16
-0.85
-0.52
-0.20
0.10
0.35
0.50
0.56
0.58
0.61
0.73
0.90
1.07
1.13
1.00
0.68
0.24
-0.24
-0.69
-1.09
-1.48
-1.86
-2.21
-2.46
-2.54
-2.38
-2.04
-1.65
-1.36
-1.34
-1.64
-2.20
-2.85
-3.39
-3.70
-3.75
-3.62
-3.47
-3.43
-3.58
-3.94
-4.42
-4.90
-5.24
-5.33
-5.15
-4.78
-4.33
-3.91
-3.60
-3.42
-3.35
-3.37
-3.46
-3.50
-3.32
-2.68
-1.40
0.52
2.90
5.38
7.59
9.31
10.51
11.30
11.83
12.20
12.37
12.27
11.86
11.14
10.20
9.17
8.19
7.34
6.65
6.11
5.68
5.35
5.10
4.93
4.80
4.65
4.44
4.12
3.71
3.27
2.90
2.66
2.54
2.43
2.16
1.56
0.52
-0.98
-2.83
-4.82
-6.71
-8.22
-9.18
-9.49
-9.23
-8.54
-7.59
-6.52
-5.42
-4.35
-3.38
-2.58
-2.04
-1.84
-1.94
-2.24
-2.58
-2.80
-2.80
-2.59
-2.25
-1.92
-1.74
-1.79
-2.02
-2.30
-2.45
-2.34
-1.90
-1.21
-0.44
0.25
0.77
1.10
1.30
1.45
1.62
1.79
1.94
1.99
1.97
1.89
1.80
1.75
1.69
1.58
1.34
0.96
0.48
0.03
-0.28
-0.36
-0.22
0.07
0.40
0.68
0.82
0.80
0.60
0.24
-0.24
-0.77
-1.27
-1.68
-1.96
-2.07
-2.03
-1.85
-1.54
-1.09
-0.50
0.22
0.99
1.71
2.26
2.55
2.56
2.32
1.92
1.41
0.79
0.07
-0.74
-1.56
-2.27
-2.74
-2.92
-2.84
-2.57
-2.24
-1.90
-1.60
-1.36
-1.20
-1.16
-1.23
-1.42
-1.70
-1.99
-2.24
-2.41
-2.51
-2.58
-2.64
-2.70
-2.75
-2.72
-2.57
-2.29
-1.89
-1.44
-0.97
-0.48
0.09
0.75
1.48
2.21
2.84
3.32
3.66
3.95
4.25
4.55
4.77
4.77
4.48
3.94
3.31
2.76
2.39
2.14
1.86
1.42
0.75
-0.05
-0.79
-1.32
-1.58
-1.61
-1.55
-1.50
-1.51
-1.57
-1.61
-1.60
-1.49
-1.30
-1.07
-0.87
-0.74
-0.69
-0.70
-0.71
-0.65
-0.51
-0.34
-0.17
-0.05
0.09
0.30
0.60
0.98
1.31
1.46
1.35
1.00
0.55
0.20
0.11
0.36
0.90
1.61
2.30
2.86
3.19
3.32
3.28
3.15
2.94
2.65
2.29
1.88
1.50
1.22
1.07
1.00
0.93
0.73
0.41
0.02
-0.28
-0.38
-0.25
0.03
0.31
0.42
0.30
-0.05
-0.53
-1.03
-1.47
-1.78
-1.92
-1.90
-1.73
-1.49
-1.26
-1.14
-1.17
-1.37
-1.65
-1.93
-2.12
-2.19
-2.16
-2.10
-2.08
-2.13
-2.24
-2.38
-2.52
-2.67
-2.87
-3.14
-3.44
-3.65
-3.63
-3.30
-2.68
-1.91
-1.21
-0.74
-0.57
-0.67
-0.93
-1.20
-1.39
-1.47
-1.49
-1.54
-1.67
-1.88
-2.09
-2.16
-1.96
-1.43
-0.60
0.48
1.76
3.24
4.87
6.52
7.94
8.89
9.19
8.88
8.23
7.55
7.08
6.87
6.78
6.58
6.09
5.25
4.08
2.74
1.38
0.18
-0.78
-1.47
-1.95
-2.33
-2.66
-2.91
-3.02
-2.93
-2.67
-2.33
-2.06
-1.96
-1.99
-2.02
-1.90
-1.53
-0.92
-0.17
0.59
1.23
1.68
1.91
1.87
1.57
1.01
0.23
-0.66
-1.52
-2.22
-2.68
-2.90
-3.00
-3.09
-3.31
-3.68
-4.16
-4.63
-4.98
-5.16
-5.20
-5.21
-5.26
-5.40
-5.57
-5.65
-5.54
-5.12
-4.34
-3.17
-1.65
0.14
2.03
3.78
5.13
5.88
6.03
5.73
5.26
4.89
4.76
4.82
4.91
4.84
4.54
4.03
3.44
2.86
2.29
1.69
1.02
0.28
-0.43
-0.98
-1.28
-1.37
-1.34
-1.34
-1.42
-1.58
-1.72
-1.76
-1.67
-1.46
-1.16
-0.79
-0.36
0.14
0.64
1.04
1.23
1.15
0.87
0.50
0.22
0.15
0.32
0.72
1.31
2.01
2.73
3.37
3.82
4.00
3.89
3.56
3.13
2.68
2.23
1.73
1.10
0.34
-0.50
-1.29
-1.96
-2.46
-2.82
-3.09
-3.31
-3.45
-3.46
-3.28
-2.91
-2.41
-1.86
-1.36
-0.94
-0.57
-0.18
0.31
0.89
1.51
2.05
2.41
2.56
2.56
2.45
2.28
2.02
1.59
0.92
0.07
-0.82
-1.50
-1.83
-1.77
-1.43
-1.03
-0.71
-0.53
-0.42
-0.29
-0.09
0.11
0.11
-0.23
-0.98
-2.02
-3.13
-4.04
-4.59
-4.75
-4.61
-4.33
-4.06
-3.89
-3.85
-3.95
-4.16
-4.51
-4.97
-5.49
-5.99
-6.39
-6.61
-6.63
-6.49
-6.18
-5.75
-5.22
-4.58
-3.82
-2.82
-1.45
0.44
2.89
5.75
8.70
11.32
13.30
14.46
14.86
14.67
14.08
13.21
12.13
10.91
9.64
8.46
7.46
6.66
6.01
5.43
4.88
4.37
3.93
3.60
3.31
2.95
2.38
1.54
0.45
-0.74
-1.84
-2.68
-3.14
-3.21
-2.96
-2.53
-2.15
-2.03
-2.30
-2.95
-3.82
-4.65
-5.22
-5.47
-5.47
-5.40
-5.37
-5.40
-5.36
-5.12
-4.63
-3.96
-3.31
-2.85
-2.66
-2.66
-2.72
-2.71
-2.59
-2.43
-2.34
-2.36
-2.46
-2.52
-2.44
-2.19
-1.84
-1.52
-1.32
-1.25
-1.23
-1.14
-0.93
-0.62
-0.34
-0.18
-0.19
-0.29
-0.33
-0.16
0.32
1.11
2.13
3.23
4.25
5.08
5.68
6.05
6.19
6.10
5.75
5.14
4.30
3.33
2.35
1.50
0.86
0.48
0.34
0.36
0.49
0.64
0.78
0.91
1.08
1.32
1.62
1.93
2.13
2.17
2.08
1.96
1.95
2.12
2.41
2.64
2.58
2.10
1.19
-0.01
-1.26
-2.38
-3.29
-4.02
-4.63
-5.19
-5.68
-6.07
-6.34
-6.47
-6.52
-6.48
-6.36
-6.11
-5.72
-5.23
-4.76
-4.44
-4.37
-4.54
-4.88
-5.30
-5.67
-5.92
-5.99
-5.86
-5.52
-5.01
-4.38
-3.64
-2.77
-1.69
-0.35
1.22
2.90
4.49
5.78
6.64
7.07
7.18
7.16
7.12
7.17
7.30
7.48
7.64
7.73
7.68
7.48
7.13
6.65
6.09
5.49
4.82
4.05
3.13
2.08
1.00
0.00
-0.79
-1.31
-1.62
-1.83
-2.06
-2.38
-2.80
-3.24
-3.62
-3.87
-3.95
-3.88
-3.66
-3.31
-2.83
-2.23
-1.55
-0.89
-0.38
-0.14
-0.19
-0.45
-0.75
-0.89
-0.78
-0.47
-0.13
0.07
0.04
-0.15
-0.30
-0.24
0.13
0.76
1.48
2.13
2.59
2.86
2.99
3.08
3.14
3.14
3.03
2.75
2.29
1.74
1.17
0.68
0.29
-0.02
-0.31
-0.62
-0.92
-1.12
-1.13
-0.90
-0.50
-0.07
0.22
0.25
-0.01
-0.49
-1.05
-1.54
-1.83
-1.82
-1.47
-0.85
-0.04
0.78
1.44
1.84
1.92
1.72
1.34
0.90
0.48
0.12
-0.20
-0.51
-0.79
-1.01
-1.14
-1.20
-1.21
-1.27
-1.42
-1.65
-1.90
-2.07
-2.12
-2.03
-1.90
-1.81
-1.82
-1.89
-1.96
-1.93
-1.76
-1.50
-1.26
-1.15
-1.22
-1.45
-1.76
-2.04
-2.16
-2.02
-1.55
-0.71
0.39
1.55
2.44
2.72
2.23
1.07
-0.33
-1.31
-1.23
0.28
3.13
6.77
10.41
13.27
14.84
15.02
14.02
12.19
9.90
7.40
4.86
2.45
0.34
-1.26
-2.21
-2.50
-2.28
-1.81
-1.35
-1.07
-1.06
-1.31
-1.75
-2.32
-2.93
-3.52
-3.98
-4.25
-4.28
-4.06
-3.67
-3.19
-2.75
-2.46
-2.36
-2.43
-2.58
-2.69
-2.64
-2.39
-1.99
-1.49
-0.99
-0.55
-0.22
-0.04
-0.07
-0.36
-0.93
-1.70
-2.52
-3.21
-3.67
-3.88
-3.95
-3.99
-4.05
-4.07
-3.93
-3.51
-2.80
-1.89
-0.94
-0.10
0.58
1.12
1.57
1.93
2.18
2.22
2.02
1.63
1.16
0.77
0.60
0.68
0.98
1.39
1.78
2.02
2.01
1.70
1.11
0.34
-0.48
-1.15
-1.56
-1.65
-1.52
-1.31
-1.15
-1.09
-1.07
-0.97
-0.68
-0.20
0.42
1.05
1.59
1.98
2.24
2.40
2.47
2.46
2.37
2.21
2.06
1.95
1.90
1.92
1.96
1.99
1.98
1.88
1.64
1.23
0.66
0.00
-0.60
-0.99
-1.08
-0.91
-0.61
-0.39
-0.41
-0.77
-1.41
-2.20
-2.94
-3.45
-3.66
-3.57
-3.27
-2.84
-2.35
-1.84
-1.31
-0.82
-0.42
-0.15
-0.05
-0.05
-0.09
-0.07
0.05
0.28
0.58
0.91
1.26
1.57
1.76
1.74
1.46
0.99
0.44
-0.01
-0.27
-0.34
-0.35
-0.46
-0.75
-1.20
-1.69
-2.08
-2.29
-2.35
-2.39
-2.57
-3.00
-3.70
-4.57
-5.43
-6.12
-6.56
-6.80
-6.96
-7.15
-7.43
-7.72
-7.90
-7.86
-7.60
-7.23
-6.96
-7.00
-7.45
-8.27
-9.26
-10.15
-10.59
-10.23
-8.77
-6.03
-2.10
2.68
7.70
12.29
15.91
18.29
19.52
19.89
19.75
19.37
18.86
18.25
17.49
16.61
15.61
14.54
13.35
12.02
10.49
8.78
6.97
5.18
3.62
2.44
1.73
1.41
1.29
1.11
0.67
-0.12
-1.19
-2.32
-3.30
-3.95
-4.20
-4.12
-3.86
-3.59
-3.47
-3.61
-4.00
-4.58
-5.21
-5.75
-6.09
-6.20
-6.12
-5.90
-5.59
-5.23
-4.80
-4.24
-3.49
-2.52
-1.37
-0.17
0.83
1.42
1.47
1.02
0.28
-0.47
-0.99
-1.18
-1.12
-0.95
-0.87
-0.99
-1.33
-1.80
-2.24
-2.48
-2.41
-2.01
-1.34
-0.56
0.16
0.71
1.02
1.13
1.11
1.04
0.98
0.98
1.05
1.17
1.31
1.42
1.48
1.45
1.32
1.10
0.83
0.58
0.37
0.23
0.18
0.20
0.28
0.42
0.64
0.93
1.24
1.53
1.70
1.72
1.62
1.43
1.21
0.97
0.69
0.37
-0.00
-0.34
-0.57
-0.65
-0.64
-0.62
-0.69
-0.92
-1.28
-1.72
-2.16
-2.57
-2.91
-3.16
-3.32
-3.41
-3.47
-3.57
-3.75
-4.01
-4.26
-4.38
-4.27
-3.87
-3.27
-2.63
-2.12
-1.87
-1.96
-2.36
-2.98
-3.66
-4.29
-4.75
-5.00
-5.05
-4.94
-4.66
-4.22
-3.57
-2.74
-1.79
-0.82
0.07
0.89
1.71
2.66
3.81
5.09
6.37
7.47
8.34
9.02
9.61
10.17
10.61
10.75
10.42
9.61
8.47
7.29
6.26
5.44
4.73
3.93
2.93
1.75
0.52
-0.57
-1.41
-1.95
-2.24
-2.35
-2.32
-2.19
-2.01
-1.80
-1.60
-1.42
-1.27
-1.13
-1.02
-0.93
-0.89
-0.92
-1.01
-1.18
-1.39
-1.59
-1.70
-1.63
-1.37
-0.98
-0.58
-0.32
-0.27
-0.40
-0.55
-0.53
-0.15
0.59
1.57
2.55
3.25
3.51
3.30
2.75
2.06
1.44
0.98
0.70
0.54
0.42
0.28
0.12
-0.08
-0.30
-0.56
-0.90
-1.30
-1.69
-1.97
-2.03
-1.82
-1.40
-0.93
-0.57
-0.45
-0.58
-0.85
-1.10
-1.19
-1.07
-0.77
-0.40
-0.03
0.28
0.52
0.66
0.66
0.51
0.22
-0.15
-0.47
-0.63
-0.60
-0.42
-0.21
-0.06
-0.05
-0.15
-0.30
-0.47
-0.63
-0.80
-1.00
-1.18
-1.29
-1.26
-1.11
-0.89
-0.69
-0.56
-0.46
-0.34
-0.15
0.05
0.16
0.05
-0.34
-0.93
-1.58
-2.09
-2.35
-2.31
-2.03
-1.59
-1.11
-0.70
-0.42
-0.32
-0.36
-0.41
-0.28
0.18
1.06
2.27
3.57
4.66
5.27
5.29
4.77
3.94
3.04
2.23
1.55
0.91
0.26
-0.44
-1.11
-1.68
-2.07
-2.27
-2.30
-2.21
-1.99
-1.69
-1.33
-0.99
-0.76
-0.69
-0.75
-0.84
-0.88
-0.78
-0.51
-0.06
0.56
1.29
2.04
2.65
2.96
2.84
2.31
1.51
0.67
0.03
-0.27
-0.17
0.23
0.74
1.21
1.48
1.50
1.27
0.84
0.28
-0.31
-0.86
-1.29
-1.55
-1.62
-1.51
-1.28
-1.00
-0.74
-0.48
-0.21
0.15
0.63
1.21
1.81
2.33
2.67
2.76
2.61
2.28
1.88
1.51
1.22
0.99
0.74
0.37
-0.16
-0.86
-1.63
-2.34
-2.88
-3.18
-3.24
-3.15
-2.98
-2.79
-2.58
-2.35
-2.10
-1.86
-1.74
-1.88
-2.34
-3.02
-3.73
-4.18
-4.19
-3.77
-3.08
-2.42
-1.99
-1.83
-1.80
-1.69
-1.38
-0.86
-0.26
0.29
0.75
1.18
1.74
2.51
3.46
4.41
5.13
5.41
5.17
4.52
3.69
2.93
2.41
2.20
2.19
2.23
2.16
1.91
1.53
1.12
0.81
0.62
0.46
0.21
-0.20
-0.75
-1.30
-1.68
-1.84
-1.87
-1.95
-2.24
-2.74
-3.29
-3.60
-3.49
-2.93
-2.12
-1.32
-0.75
-0.47
-0.41
-0.40
-0.30
-0.06
0.29
0.70
1.15
1.62
2.13
2.65
3.10
3.41
3.51
3.38
3.07
2.62
2.11
1.58
1.06
0.59
0.19
-0.14
-0.37
-0.51
-0.52
-0.40
-0.14
0.21
0.56
0.77
0.78
0.59
0.25
-0.10
-0.40
-0.65
-0.88
-1.13
-1.38
-1.56
-1.59
-1.44
-1.15
-0.79
-0.45
-0.17
0.07
0.24
0.31
0.25
0.07
-0.17
-0.38
-0.44
-0.33
-0.10
0.16
0.34
0.41
0.40
0.41
0.49
0.63
0.70
0.59
0.21
-0.41
-1.08
-1.60
-1.83
-1.77
-1.56
-1.39
-1.39
-1.53
-1.65
-1.59
-1.24
-0.66
0.03
0.65
1.12
1.44
1.68
1.94
2.26
2.62
2.95
3.15
3.16
2.95
2.53
1.95
1.23
0.42
-0.44
-1.27
-2.00
-2.53
-2.82
-2.84
-2.62
-2.24
-1.76
-1.27
-0.84
-0.50
-0.30
-0.24
-0.35
-0.61
-0.97
-1.37
-1.72
-1.95
-2.00
-1.89
-1.65
-1.32
-0.91
-0.41
0.18
0.80
1.38
1.75
1.82
1.55
1.05
0.50
0.09
-0.05
0.09
0.38
0.70
0.96
1.17
1.40
1.74
2.16
2.56
2.79
2.69
2.19
1.29
0.08
-1.29
-2.65
-3.79
-4.53
-4.76
-4.48
-3.80
-2.90
-1.95
-1.09
-0.36
0.25
0.80
1.36
1.97
2.65
3.32
3.85
4.08
3.90
3.31
2.47
1.61
0.93
0.50
0.27
0.07
-0.25
-0.73
-1.31
-1.84
-2.16
-2.20
-1.98
-1.62
-1.26
-1.02
-0.93
-0.97
-1.09
-1.26
-1.50
-1.85
-2.31
-2.78
-3.11
-3.10
-2.69
-1.90
-0.90
0.14
1.06
1.76
2.21
2.40
2.33
2.03
1.60
1.20
1.01
1.10
1.44
1.88
2.25
2.47
2.61
2.78
3.10
3.53
3.91
4.01
3.65
2.77
1.49
0.02
-1.41
-2.62
-3.51
-4.05
-4.27
-4.21
-3.93
-3.49
-2.95
-2.33
-1.65
-0.95
-0.25
0.41
0.98
1.46
1.87
2.25
2.65
3.04
3.34
3.42
3.16
2.57
1.77
0.94
0.26
-0.21
-0.54
-0.87
-1.32
-1.91
-2.52
-2.95
-3.07
-2.83
-2.34
-1.77
-1.27
-0.93
-0.78
-0.80
-1.00
-1.40
-1.96
-2.58
-3.04
-3.15
-2.78
-1.96
-0.90
0.14
0.96
1.46
1.68
1.69
1.58
1.39
1.16
0.96
0.87
0.97
1.25
1.65
2.00
2.20
2.21
2.11
2.05
2.11
2.26
2.37
2.25
1.79
0.97
-0.08
-1.18
-2.16
-2.88
-3.29
-3.41
-3.26
-2.91
-2.44
-1.94
-1.46
-1.04
-0.68
-0.33
0.03
0.41
0.78
1.10
1.33
1.46
1.50
1.52
1.56
1.65
1.77
1.82
1.69
1.32
0.72
0.02
-0.61
-1.03
-1.20
-1.17
-1.05
-0.89
-0.64
-0.26
0.32
0.98
1.53
1.73
1.42
0.63
-0.42
-1.45
-2.21
-2.54
-2.49
-2.16
-1.69
-1.22
-0.81
-0.48
-0.21
-0.00
0.12
0.12
-0.05
-0.36
-0.72
-0.97
-0.99
-0.75
-0.33
0.20
0.78
1.45
2.32
3.40
4.59
5.62
6.16
5.99
5.06
3.54
1.72
-0.09
-1.68
-2.96
-3.90
-4.50
-4.76
-4.65
-4.18
-3.39
-2.36
-1.22
-0.10
0.89
1.71
2.35
2.83
3.18
3.42
3.56
3.62
3.59
3.45
3.17
2.66
1.89
0.82
-0.45
-1.78
-2.95
-3.83
-4.36
-4.59
-4.64
-4.60
-4.47
-4.22
-3.80
-3.19
-2.48
-1.77
-1.19
-0.81
-0.64
-0.61
-0.65
-0.69
-0.68
-0.59
-0.41
-0.17
0.13
0.45
0.78
1.07
1.26
1.30
1.19
0.96
0.72
0.57
0.62
0.87
1.30
1.81
2.34
2.84
3.30
3.70
4.01
4.13
3.97
3.46
2.59
1.43
0.09
-1.26
-2.48
-3.50
-4.30
-4.89
-5.30
-5.53
-5.47
-5.03
-4.15
-2.92
-1.56
-0.29
0.73
1.51
2.22
3.03
3.99
5.00
5.79
6.12
5.88
5.11
4.03
2.89
1.87
1.05
0.38
-0.22
-0.85
-1.52
-2.15
-2.61
-2.79
-2.66
-2.30
-1.84
-1.40
-1.02
-0.68
-0.37
-0.13
-0.08
-0.37
-1.10
-2.17
-3.33
-4.23
-4.58
-4.30
-3.46
-2.32
-1.13
-0.09
0.72
1.26
1.53
1.52
1.27
0.87
0.51
0.38
0.62
1.24
2.12
3.06
3.89
4.55
5.05
5.44
5.76
5.95
5.90
5.50
4.69
3.49
2.02
0.45
-1.07
-2.43
-3.59
-4.53
-5.23
-5.67
-5.80
-5.60
-5.09
-4.33
-3.43
-2.52
-1.70
-1.03
-0.51
-0.08
0.33
0.79
1.29
1.76
2.07
2.10
1.80
1.26
0.64
0.15
-0.12
-0.21
-0.32
-0.67
-1.34
-2.27
-3.17
-3.68
-3.55
-2.72
-1.38
0.12
1.39
2.14
2.25
1.78
0.88
-0.25
-1.42
-2.47
-3.29
-3.85
-4.15
-4.27
-4.30
-4.29
-4.23
-4.07
-3.74
-3.27
-2.72
-2.21
-1.83
-1.58
-1.34
-0.96
-0.33
0.54
1.57
2.63
3.66
4.66
5.70
6.78
7.85
8.75
9.27
9.27
8.76
7.82
6.66
5.43
4.26
3.20
2.23
1.37
0.61
-0.03
-0.54
-0.94
-1.28
-1.56
-1.81
-2.05
-2.28
-2.50
-2.68
-2.76
-2.66
-2.34
-1.83
-1.23
-0.70
-0.33
-0.14
-0.05
0.07
0.27
0.52
0.73
0.82
0.74
0.54
0.28
0.00
-0.27
-0.57
-0.93
-1.33
-1.73
-2.05
-2.19
-2.10
-1.77
-1.26
-0.73
-0.33
-0.21
-0.40
-0.80
-1.28
-1.65
-1.85
-1.91
-1.90
-1.87
-1.83
-1.75
-1.59
-1.42
-1.38
-1.56
-1.95
-2.38
-2.61
-2.45
-1.89
-1.16
-0.62
-0.61
-1.27
-2.45
-3.78
-4.82
-5.28
-5.12
-4.64
-4.26
-4.44
-5.41
-7.08
-9.07
-10.87
-12.06
-12.48
-12.30
-11.98
-12.05
-12.92
-14.79
-17.48
-20.40
-22.60
-22.87
-20.11
-13.84
-4.60
6.03
15.74
22.45
25.02
23.73
19.95
15.44
11.48
8.41
5.79
2.97
-0.41
-4.16
-7.79
-10.87
-13.43
-15.99
-19.26
-23.78
-29.64
-36.42
-43.38
-49.80
-55.32
-60.10
-64.74
-70.03
-76.58
-84.54
-93.48
-102.59
-111.04
-118.37
-124.69
-130.67
-137.25
-145.37
-155.68
-168.47
-183.42
-199.45
-214.52
-225.74
-229.91
-224.41
-208.04
-181.49
-146.92
-107.09
-64.18
-19.24
27.43
75.32
122.71
166.49
203.01
229.59
245.72
253.24
255.32
254.92
253.51
250.91
246.03
238.23
228.17
217.72
209.12
203.88
202.12
202.80
204.53
206.43
208.60
211.96
217.55
225.85
236.46
248.13
259.22
267.99
272.84
272.22
264.82
249.70
226.61
196.20
159.83
118.99
74.70
27.26
-23.07
-75.12
-125.96
-171.09
-205.71
-226.60
-233.45
-229.01
-217.86
-204.48
-191.69
-180.25
-169.53
-158.68
-147.57
-136.88
-127.51
-119.89
-113.61
-107.64
-100.93
-93.00
-84.08
-75.06
-66.95
-60.41
-55.46
-51.54
-47.79
-43.49
-38.39
-32.83
-27.52
-23.18
-20.17
-18.35
-17.15
-15.88
-14.07
-11.68
-9.04
-6.65
-4.86
-3.76
-3.15
-2.75
-2.30
-1.71
-1.00
-0.27
0.37
0.86
1.15
1.22
1.08
0.80
0.47
0.20
0.06
0.06
0.16
0.28
0.33
0.28
0.14
-0.06
-0.27
-0.40
-0.37
-0.16
0.21
0.67
1.06
1.28
1.29
1.14
0.91
0.71
0.59
0.55
0.56
0.60
0.64
0.68
0.70
0.65
0.50
0.24
-0.09
-0.38
-0.57
-0.60
-0.50
-0.34
-0.18
-0.07
-0.03
-0.02
-0.05
-0.07
-0.07
-0.02
0.10
0.30
0.55
0.79
0.97
1.01
0.91
0.70
0.47
0.28
0.16
0.08
-0.03
-0.24
-0.58
-1.04
-1.55
-2.03
-2.39
-2.59
-2.61
-2.47
-2.21
-1.87
-1.49
-1.11
-0.79
-0.57
-0.47
-0.47
-0.53
-0.54
-0.42
-0.10
0.41
1.02
1.59
1.96
2.09
2.00
1.83
1.71
1.73
1.90
2.10
2.24
2.23
2.05
1.76
1.41
1.02
0.58
0.11
-0.35
-0.69
-0.82
-0.72
-0.46
-0.21
-0.14
-0.30
-0.65
-1.04
-1.33
-1.44
-1.41
-1.32
-1.25
-1.23
-1.20
-1.14
-1.00
-0.78
-0.50
-0.16
0.22
0.63
0.98
1.15
1.06
0.67
0.09
-0.51
-0.96
-1.15
-1.13
-1.03
-1.00
-1.12
-1.38
-1.65
-1.84
-1.84
-1.67
-1.39
-1.12
-0.94
-0.91
-1.02
-1.23
-1.49
-1.72
-1.85
-1.85
-1.69
-1.39
-1.05
-0.78
-0.68
-0.76
-0.98
-1.23
-1.37
-1.36
-1.19
-0.88
-0.46
0.09
0.82
1.76
2.94
4.31
5.75
7.12
8.20
8.74
8.55
7.53
5.78
3.59
1.41
-0.36
-1.46
-1.88
-1.78
-1.40
-0.97
-0.61
-0.37
-0.32
-0.49
-0.94
-1.65
-2.48
-3.23
-3.72
-3.84
-3.66
-3.35
-3.08
-2.99
-3.07
-3.19
-3.22
-3.03
-2.63
-2.10
-1.53
-1.02
-0.58
-0.19
0.21
0.66
1.18
1.73
2.28
2.84
3.41
4.02
4.65
5.27
5.80
6.18
6.34
6.27
6.00
5.56
5.01
4.43
3.86
3.30
2.68
1.92
0.89
-0.44
-2.01
-3.65
-5.16
-6.34
-7.06
-7.27
-6.99
-6.32
-5.37
-4.30
-3.22
-2.20
-1.23
-0.29
0.59
1.34
1.84
2.04
1.98
1.81
1.74
1.89
2.28
2.78
3.21
3.42
3.32
2.88
2.10
1.00
-0.37
-1.86
-3.20
-4.07
-4.25
-3.71
-2.65
-1.43
-0.42
0.15
0.30
0.16
-0.06
-0.23
-0.34
-0.46
-0.67
-0.99
-1.39
-1.80
-2.16
-2.39
-2.41
-2.14
-1.47
-0.37
1.12
2.80
4.40
5.60
6.18
6.04
5.25
4.01
2.60
1.33
0.36
-0.23
-0.54
-0.76
-1.01
-1.35
-1.67
-1.83
-1.70
-1.30
-0.75
-0.24
0.03
-0.07
-0.58
-1.46
-2.58
-3.76
-4.80
-5.55
-5.93
