1660937030.00
64.000000
-0.00
-0.00
-0.00
-0.00
-0.00
-0.00
-0.00
-0.00
-0.00
-0.00
0.00
0.01
0.01
-0.00
-0.03
-0.05
-0.05
0.00
0.13
0.36
0.66
1.01
1.37
1.72
2.06
2.40
2.79
3.25
3.81
4.44
5.09
5.73
6.32
6.90
7.53
8.27
9.15
10.25
11.46
12.66
13.75
14.70
15.59
16.60
17.96
19.79
22.28
25.21
28.29
31.24
33.96
36.57
39.41
42.93
47.40
53.12
59.69
66.56
73.22
79.43
85.40
91.70
99.04
107.82
118.38
130.06
142.00
153.42
164.04
174.21
184.76
197.04
209.48
223.95
240.66
259.57
279.66
298.48
312.28
316.81
308.70
286.64
252.36
209.07
160.81
111.04
61.92
14.44
-31.02
-74.14
-114.59
-152.04
-187.14
-221.27
-256.08
-292.58
-330.11
-366.01
-395.87
-415.15
-420.66
-412.03
-391.95
-365.01
-335.94
-308.00
-282.33
-258.50
-235.63
-213.27
-191.84
-172.13
-154.62
-139.13
-124.87
-111.01
-97.09
-83.26
-70.10
-58.29
-48.24
-39.88
-32.77
-26.28
-19.93
-13.47
-7.03
-0.90
4.54
9.04
12.53
15.16
17.20
18.98
20.73
22.49
24.16
25.55
26.46
26.81
26.67
26.26
25.82
25.51
25.37
25.28
25.03
24.51
23.68
22.69
21.70
20.87
20.22
19.67
19.11
18.48
17.79
17.14
16.59
16.14
15.70
15.20
14.61
14.00
13.48
13.14
13.02
13.04
13.09
13.04
12.82
12.45
12.01
11.60
11.29
11.11
10.98
10.79
10.47
10.02
9.50
9.02
8.65
8.39
8.18
7.94
7.66
7.37
7.12
6.98
6.96
7.01
7.07
7.05
6.92
6.65
6.28
5.85
5.42
5.00
4.59
4.14
3.64
3.10
2.57
2.09
1.68
1.32
0.94
0.51
0.02
-0.48
-0.98
-1.46
-1.96
-2.51
-3.14
-3.81
-4.49
-5.12
-5.68
-6.17
-6.61
-7.04
-7.47
-7.90
-8.27
-8.48
-8.47
-8.23
-7.81
-7.37
-7.05
-6.91
-6.91
-6.93
-6.83
-6.52
-6.03
-5.43
-4.85
-4.32
-3.85
-3.41
-2.98
-2.58
-2.23
-1.93
-1.62
-1.25
-0.80
-0.29
0.23
0.67
1.00
1.24
1.41
1.55
1.65
1.70
1.72
1.75
1.85
2.03
2.28
2.55
2.80
3.02
3.26
3.55
3.88
4.20
4.44
4.56
4.59
4.60
4.66
4.77
4.89
4.97
4.95
4.85
4.69
4.52
4.36
4.22
4.08
3.90
3.69
3.45
3.22
3.05
3.01
3.11
3.30
3.47
3.53
3.45
3.28
3.12
3.10
3.26
3.53
3.81
4.01
4.05
3.92
3.66
3.33
2.97
2.66
2.43
2.34
2.36
2.45
2.50
2.44
2.21
1.81
1.34
0.93
0.69
0.70
0.94
1.28
1.59
1.72
1.64
1.39
1.08
0.83
0.75
0.85
1.09
1.41
1.72
1.93
1.98
1.87
1.63
1.36
1.13
1.02
1.03
1.10
1.14
1.09
0.93
0.71
0.52
0.45
0.51
0.68
0.84
0.91
0.85
0.67
0.47
0.30
0.24
0.27
0.36
0.51
0.70
0.95
1.26
1.57
1.82
1.95
1.94
1.83
1.69
1.57
1.49
1.43
1.36
1.30
1.27
1.32
1.45
1.59
1.62
1.44
1.02
0.48
0.03
-0.14
0.02
0.42
0.80
0.97
0.82
0.46
0.09
-0.13
-0.11
0.05
0.22
0.32
0.36
0.45
0.66
1.01
1.36
1.58
1.55
1.28
0.89
0.55
0.38
0.44
0.65
0.91
1.09
1.12
1.03
0.85
0.68
0.54
0.44
0.36
0.30
0.25
0.24
0.23
0.18
0.04
-0.22
-0.55
-0.84
-0.97
-0.89
-0.64
-0.33
-0.08
0.06
0.11
0.17
0.31
0.54
0.79
0.97
1.02
0.93
0.79
0.70
0.69
0.78
0.93
1.09
1.23
1.36
1.49
1.59
1.62
1.51
1.27
0.94
0.62
0.39
0.28
0.24
0.21
0.12
-0.01
-0.17
-0.31
-0.41
-0.44
-0.37
-0.18
0.13
0.46
0.71
0.75
0.53
0.12
-0.34
-0.71
-0.86
-0.80
-0.58
-0.30
-0.03
0.20
0.40
0.57
0.72
0.80
0.79
0.66
0.44
0.20
0.01
-0.05
0.03
0.24
0.52
0.85
1.18
1.50
1.74
1.84
1.75
1.43
0.94
0.39
-0.06
-0.30
-0.30
-0.13
0.07
0.16
0.08
-0.15
-0.40
-0.54
-0.50
-0.32
-0.08
0.10
0.17
0.16
0.11
0.10
0.17
0.31
0.48
0.65
0.79
0.85
0.81
0.67
0.47
0.27
0.14
0.13
0.19
0.26
0.23
0.03
-0.33
-0.77
-1.16
-1.43
-1.58
-1.72
-1.98
-2.43
-3.04
-3.68
-4.19
-4.47
-4.53
-4.53
-4.66
-5.08
-5.79
-6.71
-7.67
-8.54
-9.30
-10.05
-10.97
-12.27
-14.01
-16.15
-18.49
-20.74
-22.69
-24.27
-25.66
-27.19
-29.25
-32.09
-35.74
-39.93
-44.27
-48.40
-52.23
-55.97
-60.11
-65.20
-71.60
-79.27
-87.81
-96.57
-104.92
-112.48
-119.25
-125.51
-131.70
-138.33
-146.03
-155.45
-167.08
-180.68
-194.66
-206.02
-210.85
-205.54
-188.16
-159.11
-120.80
-76.39
-28.42
21.70
73.16
124.50
172.83
214.05
244.41
262.21
268.78
268.09
265.01
263.40
264.90
268.92
273.63
277.31
279.19
279.64
279.68
280.33
282.08
284.74
287.66
290.18
291.95
292.90
292.83
290.87
285.20
273.53
253.84
225.42
189.25
147.64
103.05
56.99
9.62
-39.54
-90.13
-139.86
-184.45
-219.05
-240.16
-247.17
-242.58
-230.81
-216.34
-202.19
-189.36
-177.52
-166.02
-154.74
-144.16
-134.92
-127.18
-120.40
-113.62
-105.99
-97.24
-87.79
-78.56
-70.52
-64.22
-59.59
-55.96
-52.40
-48.17
-42.99
-37.18
-31.42
-26.47
-22.74
-20.21
-18.47
-16.94
-15.20
-13.09
-10.77
-8.53
-6.66
-5.27
-4.33
-3.66
-3.09
-2.48
-1.77
-1.05
-0.43
-0.04
0.07
-0.07
-0.33
-0.60
-0.79
-0.87
-0.86
-0.76
-0.55
-0.21
0.24
0.70
1.04
1.12
0.90
0.50
0.04
-0.32
-0.52
-0.57
-0.51
-0.38
-0.14
0.22
0.71
1.27
1.78
2.11
2.19
2.01
1.67
1.28
0.93
0.64
0.36
0.00
-0.47
-1.03
-1.57
-1.95
-2.03
-1.78
-1.24
-0.53
0.19
0.81
1.23
1.45
1.50
1.45
1.37
1.33
1.32
1.35
1.38
1.38
1.32
1.19
0.96
0.62
0.17
-0.35
-0.87
-1.30
-1.59
-1.72
-1.71
-1.60
-1.41
-1.16
-0.84
-0.52
-0.28
-0.20
-0.37
-0.78
-1.36
-1.98
-2.52
-2.90
-3.10
-3.13
-3.02
-2.79
-2.40
-1.81
-0.99
0.04
1.14
2.18
2.97
3.45
3.63
3.63
3.58
3.59
3.71
3.90
4.09
4.21
4.22
4.10
3.88
3.58
3.18
2.65
1.93
1.02
-0.02
-1.09
-2.08
-2.93
-3.64
-4.22
-4.66
-4.91
-4.88
-4.53
-3.87
-3.03
-2.17
-1.43
-0.88
-0.50
-0.22
0.03
0.32
0.70
1.17
1.72
2.32
2.89
3.32
3.53
3.44
3.04
2.41
1.67
0.98
0.41
-0.01
-0.33
-0.60
-0.82
-0.96
-0.99
-0.92
-0.79
-0.71
-0.74
-0.91
-1.17
-1.49
-1.85
-2.28
-2.79
-3.36
-3.87
-4.17
-4.15
-3.74
-3.00
-2.08
-1.10
-0.19
0.57
1.15
1.60
1.96
2.30
2.69
3.13
3.59
4.01
4.32
4.48
4.50
4.45
4.38
4.35
4.30
4.15
3.77
3.08
2.06
0.80
-0.55
-1.81
-2.86
-3.63
-4.11
-4.32
-4.27
-3.94
-3.33
-2.51
-1.60
-0.75
-0.06
0.46
0.88
1.29
1.72
2.14
2.45
2.57
2.47
2.21
1.85
1.45
1.03
0.54
-0.05
-0.72
-1.38
-1.92
-2.27
-2.42
-2.43
-2.35
-2.25
-2.09
-1.84
-1.45
-0.96
-0.45
-0.05
0.11
-0.03
-0.45
-1.06
-1.71
-2.21
-2.40
-2.21
-1.65
-0.86
-0.01
0.72
1.26
1.61
1.83
1.98
2.09
2.16
2.20
2.24
2.30
2.36
2.39
2.33
2.13
1.85
1.55
1.32
1.17
1.04
0.78
0.30
-0.44
-1.32
-2.18
-2.84
-3.18
-3.21
-2.99
-2.60
-2.11
-1.55
-0.94
-0.32
0.28
0.81
1.29
1.77
2.25
2.73
3.10
3.29
3.24
2.98
2.63
2.24
1.84
1.37
0.80
0.14
-0.51
-1.01
-1.31
-1.44
-1.49
-1.58
-1.73
-1.88
-1.95
-1.86
-1.63
-1.35
-1.15
-1.10
-1.27
-1.63
-2.14
-2.71
-3.24
-3.59
-3.64
-3.32
-2.65
-1.70
-0.62
0.40
1.22
1.76
1.97
1.92
1.73
1.55
1.50
1.63
1.88
2.15
2.33
2.37
2.29
2.19
2.13
2.11
2.06
1.87
1.45
0.78
-0.05
-0.88
-1.55
-1.93
-2.00
-1.86
-1.63
-1.44
-1.31
-1.19
-0.97
-0.58
-0.06
0.50
0.96
1.27
1.45
1.57
1.65
1.67
1.55
1.25
0.81
0.34
-0.06
-0.34
-0.50
-0.62
-0.74
-0.87
-1.00
-1.09
-1.13
-1.11
-1.07
-1.04
-1.01
-0.98
-0.94
-0.90
-0.88
-0.94
-1.14
-1.47
-1.85
-2.10
-2.08
-1.69
-1.01
-0.18
0.60
1.24
1.68
1.96
2.10
2.10
1.98
1.78
1.60
1.51
1.53
1.58
1.54
1.30
0.87
0.38
0.03
-0.07
0.12
0.48
0.79
0.89
0.69
0.20
-0.45
-1.12
-1.75
-2.31
-2.80
-3.21
-3.47
-3.49
-3.18
-2.57
-1.81
-1.08
-0.51
-0.12
0.26
0.82
1.69
2.79
3.89
4.65
4.86
4.53
3.85
3.09
2.45
1.96
1.52
0.98
0.26
-0.57
-1.38
-2.02
-2.42
-2.58
-2.55
-2.41
-2.20
-1.94
-1.63
-1.30
-1.00
-0.83
-0.89
-1.21
-1.76
-2.40
-2.97
-3.31
-3.37
-3.19
-2.85
-2.43
-1.93
-1.36
-0.77
-0.24
0.12
0.26
0.27
0.28
0.48
0.92
1.58
2.34
3.13
3.90
4.64
5.35
5.95
6.34
6.41
6.11
5.41
4.35
3.01
1.49
-0.07
-1.48
-2.60
-3.31
-3.59
-3.47
-3.03
-2.34
-1.51
-0.65
0.13
0.71
1.02
1.08
0.95
0.75
0.59
0.55
0.62
0.75
0.83
0.80
0.61
0.27
-0.18
-0.65
-1.07
-1.39
-1.58
-1.62
-1.50
-1.25
-0.92
-0.58
-0.28
-0.09
-0.05
-0.15
-0.38
-0.72
-1.14
-1.63
-2.15
-2.62
-2.97
-3.11
-2.97
-2.57
-1.94
-1.19
-0.42
0.31
0.92
1.38
1.67
1.77
1.72
1.58
1.46
1.47
1.69
2.08
2.57
3.01
3.29
3.33
3.18
2.93
2.65
2.35
1.95
1.29
0.30
-1.02
-2.48
-3.85
-4.90
-5.56
-5.84
-5.85
-5.70
-5.42
-5.00
-4.38
-3.52
-2.45
-1.20
0.16
1.54
2.85
3.97
4.77
5.15
5.11
4.73
4.14
3.48
2.81
2.13
1.46
0.80
0.22
-0.19
-0.39
-0.44
-0.43
-0.46
-0.54
-0.57
-0.44
-0.11
0.34
0.72
0.78
0.42
-0.31
-1.21
-2.05
-2.64
-2.91
-2.90
-2.68
-2.31
-1.87
-1.44
-1.08
-0.87
-0.81
-0.83
-0.81
-0.63
-0.24
0.31
0.90
1.41
1.76
1.97
2.12
2.30
2.56
2.90
3.26
3.55
3.70
3.63
3.29
2.64
1.67
0.45
-0.88
-2.12
-3.05
-3.55
-3.58
-3.23
-2.61
-1.87
-1.11
-0.42
0.13
0.50
0.68
0.72
0.67
0.62
0.63
0.71
0.85
1.00
1.07
0.99
0.70
0.23
-0.32
-0.82
-1.11
-1.13
-0.92
-0.64
-0.41
-0.35
-0.41
-0.51
-0.56
-0.53
-0.46
-0.42
-0.52
-0.79
-1.21
-1.72
-2.22
-2.61
-2.78
-2.70
-2.35
-1.76
-1.01
-0.18
0.63
1.33
1.84
2.11
2.12
1.90
1.53
1.15
0.88
0.80
0.92
1.19
1.51
1.80
2.05
2.32
2.65
3.03
3.37
3.46
3.12
2.28
1.03
-0.37
-1.62
-2.52
-3.00
-3.17
-3.21
-3.26
-3.32
-3.30
-3.06
-2.53
-1.75
-0.90
-0.15
0.38
0.71
0.91
1.09
1.31
1.55
1.80
2.02
2.22
2.38
2.45
2.36
2.01
1.38
0.52
-0.42
-1.22
-1.70
-1.74
-1.33
-0.64
0.13
0.73
1.02
0.92
0.49
-0.17
-0.93
-1.71
-2.45
-3.10
-3.58
-3.78
-3.64
-3.16
-2.43
-1.60
-0.84
-0.28
0.02
0.10
0.04
-0.04
-0.06
0.03
0.25
0.58
1.00
1.48
2.01
2.55
3.07
3.51
3.80
3.87
3.68
3.24
2.61
1.86
1.08
0.31
-0.42
-1.09
-1.69
-2.20
-2.58
-2.83
-2.96
-2.97
-2.84
-2.55
-2.05
-1.33
-0.45
0.51
1.43
2.20
2.81
3.26
3.55
3.67
3.55
3.15
2.47
1.63
0.78
0.10
-0.30
-0.41
-0.36
-0.28
-0.33
-0.57
-0.95
-1.38
-1.76
-2.00
-2.09
-2.03
-1.88
-1.69
-1.56
-1.53
-1.65
-1.92
-2.26
-2.57
-2.77
-2.80
-2.67
-2.40
-2.07
-1.72
-1.38
-1.06
-0.79
-0.57
-0.41
-0.26
-0.04
0.28
0.70
1.17
1.56
1.79
1.81
1.65
1.39
1.13
0.99
1.02
1.26
1.72
2.35
3.10
3.88
4.60
5.13
5.39
5.25
4.67
3.64
2.25
0.62
-1.00
-2.39
-3.35
-3.80
-3.78
-3.43
-2.93
-2.42
-1.94
-1.47
-0.95
-0.35
0.32
1.01
1.67
2.25
2.72
3.05
3.19
3.14
2.91
2.56
2.20
1.88
1.59
1.26
0.79
0.10
-0.75
-1.62
-2.35
-2.82
-3.01
-2.97
-2.82
-2.63
-2.42
-2.17
-1.85
-1.47
-1.11
-0.88
-0.87
-1.10
-1.51
-1.95
-2.27
-2.38
-2.28
-2.11
-2.01
-2.11
-2.42
-2.87
-3.35
-3.78
-4.10
-4.34
-4.49
-4.57
-4.54
-4.44
-4.32
-4.26
-4.31
-4.52
-4.84
-5.24
-5.66
-6.06
-6.40
-6.64
-6.73
-6.74
-6.83
-7.25
-8.24
-9.90
-12.09
-14.47
-16.65
-18.38
-19.71
-21.01
-22.79
-25.51
-29.33
-34.04
-39.10
-43.97
-48.28
-52.14
-56.08
-60.82
-66.91
-74.47
-83.03
-91.73
-99.72
-106.46
-112.08
-117.28
-123.13
-130.69
-140.74
-153.68
-169.40
-187.05
-204.84
-219.92
-228.79
-228.13
-215.82
-191.71
-157.59
-116.34
-70.75
-22.59
27.25
77.90
127.50
172.85
210.20
236.69
251.62
256.79
255.63
251.71
247.47
243.90
240.97
238.54
236.95
236.89
238.87
242.64
247.15
250.99
253.16
253.63
253.30
253.50
255.34
259.17
264.48
269.99
273.91
274.20
268.78
255.97
234.94
205.99
170.47
130.30
87.04
41.35
-6.92
-57.72
-109.60
-159.03
-201.04
-230.90
-246.08
-247.34
-238.39
-224.19
-208.99
-195.07
-182.64
-170.87
-159.09
-147.50
-136.94
-128.19
-121.25
-115.27
-108.97
-101.38
-92.33
-82.53
-73.13
-65.19
-59.19
-54.88
-51.47
-48.03
-43.90
-38.97
-33.60
-28.48
-24.20
-21.05
-18.90
-17.29
-15.67
-13.65
-11.17
-8.51
-6.09
-4.31
-3.33
-3.00
-2.97
-2.80
-2.24
-1.25
-0.07
0.97
1.60
1.70
1.40
0.92
0.50
0.25
0.16
0.12
0.05
-0.08
-0.21
-0.27
-0.24
-0.14
-0.05
-0.03
-0.08
-0.17
-0.24
-0.24
-0.19
-0.11
-0.05
-0.03
-0.07
-0.15
-0.28
-0.43
-0.57
-0.66
-0.67
-0.58
-0.39
-0.16
0.07
0.24
0.31
0.27
0.15
0.03
-0.03
0.04
0.23
0.52
0.83
1.10
1.33
1.49
1.57
1.52
1.31
0.93
0.47
0.05
-0.22
-0.31
-0.27
-0.20
-0.14
-0.09
0.02
0.24
0.52
0.75
0.77
0.52
0.07
-0.42
-0.78
-0.94
-0.95
-0.94
-0.99
-1.11
-1.15
-0.99
-0.56
0.05
0.63
0.94
0.88
0.50
-0.04
-0.51
-0.83
-0.99
-1.08
-1.19
-1.31
-1.37
-1.26
-0.96
-0.51
-0.06
0.21
0.16
-0.24
-0.93
-1.72
-2.42
-2.86
-2.99
-2.88
-2.65
-2.44
-2.32
-2.29
-2.31
-2.37
-2.45
-2.57
-2.71
-2.81
-2.79
-2.59
-2.24
-1.82
-1.42
-1.07
-0.70
-0.18
0.62
1.78
3.22
4.70
5.93
6.61
6.56
5.80
4.48
2.94
1.48
0.40
-0.18
-0.25
0.12
0.79
1.65
2.56
3.39
3.98
4.21
4.05
3.58
2.92
2.23
1.62
1.09
0.59
0.06
-0.51
-1.08
-1.56
-1.90
-2.12
-2.22
-2.24
-2.17
-1.96
-1.59
-1.10
-0.60
-0.24
-0.10
-0.20
-0.44
-0.65
-0.71
-0.54
-0.18
0.26
0.63
0.80
0.74
0.45
0.05
-0.33
-0.56
-0.58
-0.41
-0.13
0.13
0.27
0.22
-0.03
-0.46
-1.00
-1.60
-2.17
-2.62
-2.89
-2.93
-2.73
-2.36
-1.91
-1.46
-1.10
-0.85
-0.67
-0.51
-0.30
0.04
0.51
1.10
1.77
2.46
3.15
3.84
4.51
5.12
5.57
5.74
5.54
4.96
4.08
3.04
1.94
0.82
-0.33
-1.48
-2.53
-3.29
-3.57
-3.28
-2.53
-1.62
-0.89
-0.61
-0.86
-1.48
-2.24
-2.86
-3.20
-3.24
-3.08
-2.83
-2.60
-2.42
-2.27
-2.10
-1.83
-1.40
-0.80
-0.03
0.85
1.80
2.72
3.53
4.16
4.54
4.66
4.60
4.49
4.50
4.74
5.26
5.92
6.53
6.90
6.91
6.58
5.99
5.21
4.23
2.99
1.42
-0.45
-2.49
-4.47
-6.15
-7.42
-8.24
-8.72
-9.02
-9.23
-9.38
-9.36
-9.02
-8.27
-7.14
-5.77
-4.39
-3.15
-2.05
-0.92
0.45
2.16
4.05
5.80
7.04
7.60
7.53
