1660329474.00
64.000000
-0.00
-0.00
-0.00
-0.00
-0.00
-0.00
-0.00
-0.00
-0.00
-0.00
0.00
0.01
0.01
-0.00
-0.03
-0.05
-0.05
0.00
0.13
0.36
0.66
1.01
1.37
1.72
2.06
2.40
2.79
3.24
3.80
4.42
5.06
5.66
6.20
6.68
7.15
7.68
8.31
9.14
10.09
11.04
11.88
12.56
13.14
13.76
14.65
15.96
17.91
20.32
22.90
25.38
27.58
29.57
31.68
34.32
37.81
42.54
48.15
54.10
59.83
64.97
69.58
74.14
79.34
85.71
93.76
103.00
112.62
121.73
129.77
136.75
143.30
150.75
157.77
166.64
177.95
191.79
206.97
220.57
228.25
225.36
208.53
176.87
132.76
80.05
23.07
-34.94
-92.44
-149.16
-205.23
-260.37
-313.74
-363.87
-409.83
-450.91
-486.50
-515.74
-537.23
-549.22
-549.96
-538.37
-514.21
-478.67
-433.88
-382.45
-327.02
-269.84
-212.63
-156.66
-102.95
-52.37
-5.90
35.58
71.43
101.35
125.50
144.38
158.69
169.15
176.37
180.75
182.57
182.07
179.51
175.23
169.65
163.18
156.15
148.81
141.30
133.69
126.02
118.33
110.69
103.16
95.80
88.68
81.83
75.25
68.95
62.95
57.25
51.86
46.78
42.03
37.59
33.45
29.61
26.07
22.81
19.83
17.11
14.67
12.48
10.54
8.83
7.35
6.07
4.97
4.05
3.27
2.62
2.09
1.65
1.30
1.01
0.79
0.61
0.47
0.37
0.29
0.23
0.19
0.17
0.16
0.16
0.17
0.19
0.21
0.25
0.28
0.32
0.36
0.41
0.45
0.50
0.55
0.60
0.65
0.71
0.77
0.83
0.90
0.98
1.07
1.16
1.27
1.38
1.52
1.67
1.83
2.02
2.23
2.46
2.71
2.99
3.30
3.64
4.01
4.42
4.86
5.34
5.86
6.41
7.01
7.65
8.33
9.05
9.82
10.64
11.50
12.41
13.36
14.37
15.44
16.57
17.76
19.02
20.29
21.56
22.76
23.80
24.57
24.94
24.81
24.06
22.61
20.42
17.52
13.98
9.88
5.44
0.85
-3.68
-7.94
-11.72
-14.89
-17.34
-19.02
-19.95
-20.16
-19.77
-18.87
-17.59
-16.01
-14.25
-12.35
-10.39
-8.42
-6.45
-4.54
-2.74
-1.01
0.70
2.42
4.20
6.05
7.98
10.02
12.06
14.08
16.08
18.14
20.31
22.64
25.16
27.87
30.83
33.78
36.66
39.53
42.53
45.79
49.38
53.29
57.44
61.77
65.81
69.44
72.76
76.08
79.66
83.65
87.90
92.10
95.93
98.56
99.65
99.31
97.82
95.36
91.56
85.24
74.15
60.22
43.53
24.38
3.50
-18.12
-39.57
-60.34
-80.45
-100.36
-120.69
-142.84
-167.88
-196.45
-228.20
-261.27
-292.19
-316.38
-329.49
-328.89
-315.15
-291.33
-261.87
-231.04
-201.79
-175.43
-152.17
-131.92
-114.77
-101.22
-91.36
-84.56
-79.58
-75.03
-69.91
-63.95
-57.70
-52.16
-48.48
-47.16
-47.80
-49.01
-48.83
-45.34
-37.41
-25.14
-9.79
6.66
22.27
35.80
46.86
55.72
62.90
68.71
73.09
75.82
76.81
76.29
74.93
73.55
72.67
72.42
72.32
71.59
69.47
65.62
60.16
53.63
46.76
40.28
34.78
30.66
28.02
26.61
25.77
24.63
22.40
18.76
14.13
9.68
6.97
7.36
11.53
19.15
29.09
39.77
49.73
57.94
64.00
67.96
70.20
71.18
71.40
71.43
71.84
73.14
75.56
79.01
83.02
86.85
89.81
91.35
91.29
89.76
87.21
84.26
81.59
79.67
78.70
78.49
78.52
78.21
77.06
74.77
71.22
66.38
60.29
53.13
45.35
37.69
31.06
26.22
23.51
22.75
23.25
24.14
24.55
23.89
21.75
17.86
11.99
4.05
-5.83
-17.13
-28.94
-40.08
-49.35
-55.86
-59.16
-59.34
-56.92
-52.69
-47.57
-42.40
-37.92
-34.57
-32.56
-31.71
-31.58
-31.56
-31.03
-29.55
-26.99
-23.55
-19.61
-15.57
-11.61
-7.61
-3.27
1.71
7.43
13.65
19.83
25.36
29.68
32.43
33.43
32.58
29.85
25.28
19.12
11.89
4.34
-2.67
-8.47
-12.84
-15.99
-18.54
-21.22
-24.65
-29.13
-34.68
-41.01
-47.68
-54.24
-60.29
-65.65
-70.35
-74.66
-78.97
-83.67
-88.92
-94.51
-99.79
-103.73
-105.15
-103.01
-96.74
-86.42
-72.83
-57.16
-40.77
-24.77
-9.85
3.66
15.72
26.30
35.34
42.77
48.65
53.18
56.72
59.63
62.09
63.98
64.94
64.46
62.15
58.00
52.40
46.10
39.95
34.66
30.58
27.63
25.36
23.04
19.81
14.93
7.94
-1.11
-11.49
-21.87
-30.47
-35.50
-35.67
-30.57
-20.85
-8.10
5.62
18.23
28.17
34.60
37.48
37.33
35.01
31.43
27.40
23.59
20.45
18.25
16.96
16.29
15.72
14.69
12.76
9.80
5.96
1.63
-2.81
-7.02
-10.91
-14.48
-17.79
-20.87
-23.71
-26.26
-28.55
-30.62
-32.46
-33.93
-34.75
-34.53
-32.90
-29.71
-25.05
-19.25
-12.79
-6.14
0.27
6.11
11.13
15.21
18.31
20.62
22.56
24.72
27.69
31.93
37.54
44.16
51.05
57.33
62.24
65.34
66.63
66.36
64.82
62.18
58.37
53.23
46.64
38.63
29.48
19.70
10.01
1.17
-6.09
-11.23
-14.05
-14.71
-13.67
-11.59
-9.16
-6.98
-5.54
-5.24
-6.30
-8.77
-12.45
-16.86
-21.38
-25.36
-28.34
-30.17
-31.03
-31.33
-31.54
-32.09
-33.26
-35.08
-37.45
-40.12
-42.85
-45.44
-47.87
-50.30
-52.99
-56.20
-59.96
-63.98
-67.61
-69.92
-70.00
-67.23
-61.54
-53.48
-44.06
-34.54
-26.02
-19.24
-14.50
-11.70
-10.48
-10.41
-11.02
-11.86
-12.55
-12.79
-12.50
-11.83
-11.14
-10.87
-11.38
-12.83
-15.19
-18.23
-21.64
-25.14
-28.52
-31.71
-34.75
-37.76
-40.81
-43.75
-46.14
-47.21
-46.08
-42.01
-34.67
-24.32
-11.80
1.68
14.83
26.58
36.24
43.49
48.37
51.14
52.34
52.68
53.04
54.15
56.40
59.59
62.90
65.16
65.17
62.16
55.94
46.92
35.85
23.47
10.35
-3.23
-17.18
-31.36
-45.36
-58.44
-69.44
-77.01
-79.92
-77.42
-69.56
-57.23
-42.04
-25.86
-10.44
3.01
13.95
22.40
28.64
33.06
35.95
37.59
38.25
38.31
38.12
37.97
37.90
37.71
37.12
35.91
34.12
32.06
30.26
29.22
29.23
30.24
31.85
33.43
34.30
33.89
31.83
27.95
22.26
15.08
7.04
-0.86
-7.42
-11.55
-12.63
-10.77
-6.76
-1.84
2.81
6.38
8.55
9.35
8.91
7.26
4.36
0.24
-4.86
-10.44
-15.90
-20.63
-24.27
-26.70
-28.08
-28.76
-29.20
-29.78
-30.78
-32.21
-33.81
-35.11
-35.64
-35.05
-33.28
-30.62
-27.54
-24.68
-22.64
-21.85
-22.49
-24.39
-26.89
-28.91
-28.98
-25.66
-17.90
-5.54
10.55
28.59
46.42
62.16
74.71
83.86
90.09
94.13
96.61
97.88
98.14
97.59
96.56
95.44
94.57
94.08
93.83
93.51
92.74
91.23
88.79
85.45
81.37
76.72
71.63
66.11
60.02
53.21
45.52
36.87
27.22
16.55
4.96
-7.24
-19.34
-30.25
-38.65
-43.44
-44.08
-40.86
-34.81
-27.35
-19.83
-13.19
-7.95
-4.17
-1.82
-0.79
-0.99
-2.24
-4.23
-6.55
-8.77
-10.63
-12.06
-13.19
-14.27
-15.57
-17.27
-19.44
-22.02
-24.91
-27.94
-30.93
-33.79
-36.47
-38.97
-41.36
-43.78
-46.45
-49.60
-53.31
-57.29
-60.79
-62.58
-61.33
-56.07
-46.61
-33.69
-18.74
-3.41
10.94
23.48
33.81
41.86
47.63
51.10
52.38
51.67
49.37
46.00
42.04
37.82
33.50
29.05
24.40
19.49
14.35
9.13
4.01
-0.84
-5.36
-9.64
-13.95
-18.63
-23.99
-30.17
-37.07
-44.30
-51.25
-57.15
-61.27
-62.94
-61.78
-57.68
-50.95
-42.22
-32.36
-22.32
-12.97
-4.93
1.42
5.95
8.71
9.88
9.81
9.01
8.06
7.60
8.06
9.57
11.81
14.15
15.82
16.20
15.08
12.67
9.54
6.29
3.32
0.60
-2.24
-5.85
-10.76
-17.27
-25.12
-33.55
-41.30
-46.84
-48.79
-46.20
-38.92
-27.62
-13.63
1.49
16.39
30.16
42.41
53.04
61.93
68.84
73.34
75.07
74.00
70.59
65.72
60.44
55.64
51.83
49.08
47.10
45.50
43.91
42.13
40.05
37.58
34.56
30.78
26.00
20.10
13.10
5.17
-3.50
-12.65
-21.98
-30.99
-39.01
-45.23
-48.96
-49.88
-48.19
-44.57
-39.91
-35.08
-30.62
-26.78
-23.61
-21.12
-19.35
-18.32
-17.92
-17.78
-17.40
-16.29
-14.17
-11.11
-7.51
-3.99
-1.15
0.60
1.16
0.68
-0.55
-2.25
-4.27
-6.56
-9.20
-12.36
-16.20
-20.87
-26.39
-32.57
-38.99
-45.07
-50.12
-53.48
-54.61
-53.21
-49.20
-42.78
-34.38
-24.70
-14.59
-4.98
3.23
9.44
13.40
15.35
15.93
15.94
16.10
16.78
17.94
19.19
20.06
20.18
19.40
17.80
15.54
12.76
9.52
5.76
1.41
-3.64
-9.49
-16.17
-23.54
-31.17
-38.24
-43.67
-46.33
-45.44
-40.83
-33.07
-23.24
-12.61
-2.28
6.97
14.60
20.13
22.91
22.25
17.51
8.46
-4.51
-20.39
-37.71
-54.87
-70.44
-83.36
-93.02
-99.24
-102.25
-102.58
-100.94
-98.14
-94.81
-91.40
-88.07
-84.88
-82.00
-79.87
-79.22
-80.77
-84.76
-90.68
-97.10
-102.09
-103.73
-100.70
-92.56
-79.66
-62.90
-43.39
-22.41
-1.18
19.19
38.02
55.33
71.76
88.22
105.23
122.58
139.38
154.63
167.90
179.56
190.54
201.61
212.75
223.09
231.22
235.93
236.62
233.37
226.66
217.08
205.17
191.54
177.02
162.72
149.92
139.84
133.34
130.73
131.68
135.23
140.07
144.79
148.30
150.11
150.35
149.64
148.64
147.66
146.39
144.02
139.56
132.30
122.07
109.23
94.40
78.24
61.29
44.12
27.46
12.21
-0.85
-11.47
-20.13
-27.93
-35.98
-44.82
-54.05
-62.61
-69.61
-75.02
-79.95
-85.93
-93.84
-103.04
-111.59
-117.59
-120.63
-122.44
-126.01
-133.83
-146.57
-162.93
-180.90
-199.41
-218.89
-240.60
-264.91
-290.12
-312.49
-327.82
-333.32
-328.65
-315.68
-297.21
-275.67
-252.48
-228.12
-202.51
-175.41
-146.76
-116.86
-86.61
-57.51
-31.38
-9.80
6.54
18.11
26.22
32.41
37.76
42.56
46.63
49.78
52.30
55.00
58.85
64.39
71.32
78.58
84.76
88.68
89.82
88.33
84.84
80.03
74.42
68.28
61.78
55.14
48.72
42.94
38.05
34.05
30.62
27.40
24.11
20.70
17.37
14.32
11.59
8.94
5.91
1.96
-3.29
-9.90
-17.54
-25.51
-32.79
-38.25
-40.79
-39.72
-34.83
-26.55
-15.78
-3.70
8.47
19.63
28.90
35.59
39.28
39.86
37.58
33.05
27.11
20.64
14.37
8.72
3.87
-0.20
-3.56
-6.23
-8.18
-9.39
-9.98
-10.26
-10.61
-11.48
-13.15
-15.71
-19.09
-23.14
-27.68
-32.50
-37.22
-41.28
-43.93
-44.49
-42.56
-38.25
-32.16
-25.20
-18.27
-12.04
-6.86
-2.81
0.09
1.82
2.30
1.56
-0.24
-2.73
-5.41
-7.85
-9.76
-11.13
-12.22
-13.33
-14.72
-16.46
-18.43
-20.38
-22.09
-23.48
-24.65
-25.79
-27.11
-28.76
-30.80
-33.15
-35.58
-37.65
-38.68
-37.87
-34.50
-28.23
-19.26
-8.31
3.57
15.43
26.61
36.88
46.31
55.01
62.98
70.04
75.96
80.53
83.73
85.61
86.30
85.84
84.20
81.32
77.19
71.94
65.81
59.12
52.15
45.12
38.08
31.06
24.00
16.88
9.68
2.39
-5.05
-12.67
-20.45
-28.09
-35.01
-40.25
-42.78
-41.72
-36.67
-27.92
-16.35
-3.28
9.91
22.01
32.26
40.36
46.44
50.99
54.61
57.83
60.91
63.77
66.07
67.46
67.80
67.31
66.51
65.91
65.81
65.90
65.18
61.96
54.07
39.26
15.86
-16.47
-56.20
-100.07
-143.74
-183.08
-215.38
-239.87
-257.60
-270.43
-279.95
-286.70
-290.02
-288.57
-281.09
-266.97
-246.56
-221.01
-192.00
-161.21
-130.08
-99.58
-70.16
-42.01
-15.12
10.50
34.80
57.77
79.42
99.81
118.88
136.52
152.66
167.52
181.80
196.61
213.11
231.95
252.74
273.83
292.67
306.46
312.97
311.02
300.50
282.03
256.41
224.23
185.95
142.26
94.40
44.30
-5.80
-53.80
-98.36
-138.96
-175.73
-208.95
-238.58
-264.02
-284.04
-296.77
-299.85
-290.91
-268.18
-231.34
-182.30
-125.25
-65.97
-10.53
36.23
71.66
95.57
109.68
116.71
119.53
120.56
121.67
124.10
128.47
134.77
142.46
150.60
158.26
164.90
170.76
176.77
184.02
192.92
202.45
209.71
210.66
201.35
179.52
145.82
103.67
57.86
12.67
-29.44
-67.79
-102.44
-133.43
-160.69
-184.88
-207.76
-231.53
-257.04
-282.18
-301.80
-309.65
-301.46
-277.38
-242.00
-202.21
-163.98
-130.24
-100.86
-74.34
-49.71
-27.28
-8.08
7.36
19.46
29.56
38.94
48.01
55.89
60.72
60.28
52.90
38.22
17.78
-4.99
-25.62
-39.95
-45.55
-42.46
-32.85
-19.75
-5.56
8.88
24.16
41.28
60.58
81.07
100.91
118.29
132.27
143.06
151.49
158.44
164.23
168.63
171.06
171.13
168.81
164.55
158.95
152.47
145.26
137.15
127.84
117.16
105.14
92.12
78.51
64.71
51.03
37.68
24.88
12.89
1.95
-7.75
-16.14
-23.20
-28.88
-32.94
-34.90
-34.26
-30.74
-24.55
-16.36
-7.04
2.63
12.27
21.81
31.13
39.75
46.62
50.32
49.49
43.42
32.41
17.77
1.45
-14.57
-28.81
-40.58
-49.95
-57.43
-63.50
-68.49
-72.45
-75.39
-77.43
-78.92
-80.28
-81.84
-83.70
-85.69
-87.64
-89.54
-91.64
-94.37
-98.04
-102.58
-107.42
-111.47
-113.42
-112.17
-107.31
-99.23
-89.18
-78.78
-69.58
-62.59
-58.19
-56.21
-56.23
-57.81
-60.61
-64.22
-67.93
-70.64
-71.06
-68.13
-61.39
-51.14
-38.22
-23.55
-7.79
8.77
26.04
43.66
60.85
76.43
89.10
97.98
102.62
102.87
98.51
89.08
74.19
54.17
30.63
6.41
-15.01
-30.66
-39.03
-40.53
-37.00
-30.83
-24.06
-17.88
-12.70
-8.54
-5.48
-3.68
-3.26
-4.15
-5.92
-7.95
-9.59
-10.47
-10.49
-9.88
-9.08
-8.50
-8.41
-8.90
-9.77
-10.73
-11.47
-11.84
-11.87
-11.77
-11.85
-12.37
-13.51
-15.38
-18.00
-21.41
-25.50
-29.95
-34.10
-37.02
-37.66
-35.30
-29.73
-21.49
-11.68
-1.68
7.25
14.26
18.93
21.33
21.77
20.71
18.74
16.44
14.37
12.96
12.44
12.76
13.67
14.74
15.55
15.76
15.17
13.77
11.72
9.27
6.68
4.18
1.80
-0.48
-2.76
-5.12
-7.56
-10.08
-12.78
-15.91
-19.80
-24.64
-30.22
-35.79
-40.19
-42.23
-41.10
-36.64
-29.42
-20.50
-11.13
-2.37
4.97
10.46
13.96
15.55
15.46
14.01
11.58
8.50
5.10
1.54
-2.03
-5.55
-9.05
-12.52
-15.96
-19.35
-22.73
-26.14
-29.66
-33.26
-36.87
-40.37
-43.66
-46.73
-49.68
-52.64
-55.66
-58.82
-62.16
-65.77
-69.67
-73.67
-77.16
-79.13
-78.41
-74.00
-65.56
-53.47
-38.85
-23.17
-7.87
6.00
17.94
27.89
36.04
42.61
47.65
51.26
53.71
55.72
58.38
62.84
69.55
77.88
86.05
91.72
92.69
87.61
76.18
59.13
37.96
14.82
-7.58
-26.16
-37.99
-40.99
-34.88
-21.50
-4.51
11.83
23.97
30.13
30.53
26.90
21.72
17.32
15.33
16.36
19.92
24.51
28.02
28.19
23.39
13.36
-0.45
-15.15
-27.29
-33.97
-33.60
-26.20
-13.12
3.51
21.49
38.96
54.77
68.58
80.61
91.36
101.22
110.06
117.34
122.22
123.93
122.03
116.53
107.80
96.54
83.77
70.78
59.11
50.37
45.78
45.79
50.00
57.10
65.39
73.16
79.12
82.73
84.11
84.01
83.44
83.40
84.57
87.26
91.42
96.70
102.58
108.45
113.74
118.09
121.47
124.10
126.31
128.17
129.39
129.33
127.22
122.55
115.31
106.04
95.57
84.84
74.57
65.17
56.74
49.15
42.26
35.97
30.38
25.71
22.27
20.27
19.78
20.74
23.06
26.64
31.31
36.71
42.16
46.79
49.75
50.54
49.16
45.96
41.31
34.85
26.06
14.68
1.08
-13.85
-29.00
-43.56
-57.28
-70.64
-84.79
-100.37
-116.94
-132.96
-146.56
-156.33
-161.63
-162.62
-160.02
-155.71
-151.26
-147.44
-144.28
-141.48
-138.51
-134.35
-127.49
-116.78
-104.55
-93.31
-84.24
-76.95
-70.64
-65.01
-60.07
-55.62
-51.95
-54.62
-66.71
-86.49
-108.37
-127.23
-141.18
-151.05
-158.24
-165.22
-182.15
-215.06
-262.20
-315.78
-368.46
-417.14
-461.87
-502.64
-540.83
-588.15
-651.78
-729.54
-811.42
-887.12
-950.61
-999.55
-1032.32
-979.54
-812.25
-558.86
-287.84
-56.61
113.79
228.91
296.15
338.50
368.26
379.94
369.21
340.47
306.22
278.27
262.01
257.36
262.72
273.49
277.46
267.17
243.80
215.41
190.23
172.34
161.91
158.11
157.87
153.54
140.58
120.00
97.17
77.56
63.93
56.51
54.74
56.54
57.60
55.34
49.98
44.05
40.21
39.77
42.73
48.52
55.77
62.35
66.98
69.76
71.97
75.06
80.02
87.09
96.03
106.00
116.20
126.08
135.53
144.83
154.54
165.35
178.03
193.20
211.05
230.80
250.50
267.15
277.49
279.03
271.01
254.65
232.69
208.25
183.85
160.81
139.43
119.54
101.06
84.15
69.05
55.72
43.78
32.70
22.20
12.61
4.81
-0.02
-1.09
1.59
6.92
13.06
17.96
20.08
18.89
15.00
9.88
5.26
2.48
2.05
3.57
5.88
7.48
6.95
3.50
-2.62
-10.06
-16.58
-19.80
-18.11
-11.33
-0.90
10.68
20.78
27.46
29.94
28.38
23.54
16.34
7.86
-0.62
-7.63
-11.82
-12.39
-9.53
-4.39
1.32
6.07
8.99
10.16
10.34
10.51
11.44
13.32
15.72
17.63
17.81
15.11
8.89
-0.68
-12.62
-25.39
-37.41
-47.58
-55.52
-61.48
-65.95
-69.25
-71.23
-71.17
-67.89
-60.03
-46.55
-27.28
-3.56
21.54
43.65
58.24
62.04
54.18
36.52
12.97
-11.73
-33.35
-48.94
-57.17
-58.19
-53.33
-44.59
-33.88
-22.21
-9.26
6.36
26.22
51.01
79.94
110.92
141.50
169.75
194.71
216.07
233.49
246.09
252.57
251.71
242.97
226.62
203.36
173.73
137.78
95.37
46.90
-5.69
-58.52
-106.14
-142.93
-165.02
-171.96
-167.11
-156.53
-146.59
-141.31
-140.96
-142.32
-140.62
-132.12
-115.94
-94.25
-71.20
-50.88
-35.85
-26.52
-21.62
-19.07
-16.96
-13.86
-8.83
-1.25
9.34
23.12
39.71
57.93
75.94
91.54
102.86
109.02
110.37
108.26
104.20
99.19
93.23
85.64
75.82
63.90
51.03
38.82
28.60
20.68
14.17
7.52
-0.64
-10.74
-22.00
-32.67
-40.70
-44.49
-43.46
-38.08
-29.75
-20.16
-10.82
-2.57
4.38
10.31
15.54
20.06
23.41
24.69
22.71
16.32
4.77
-12.04
-33.33
-57.59
-82.96
-107.75
-130.98
-152.54
-172.99
-192.91
-212.24
-229.72
-243.08
-249.51
-246.84
-234.36
-213.28
-186.43
-157.24
-128.60
-101.96
-77.26
-53.40
-29.25
-4.44
20.38
43.86
64.53
81.29
93.55
100.99
103.39
100.76
93.60
83.42
72.73
64.56
61.58
65.21
75.16
89.67
106.33
122.95
138.30
152.20
165.02
176.80
186.44
191.49
188.80
175.82
152.03
119.59
82.92
47.18
16.60
-6.76
-22.96
-33.29
-39.06
-40.96
-39.16
-34.05
-26.73
-19.02
-12.89
-9.62
-9.41
-11.48
-14.61
-17.79
-20.51
-22.71
-24.43
-25.53
-25.56
-23.95
-20.31
-14.74
-7.92
-0.95
4.94
8.74
9.83
8.04
3.42
-3.93
-13.85
-25.99
-39.50
-52.75
-63.50
-69.46
-69.05
-62.13
-50.21
-35.92
-22.12
-10.95
-3.37
0.84
2.57
2.95
2.89
3.13
4.22
6.63
10.54
15.81
21.93
28.34
34.79
41.62
49.65
59.83
72.82
88.65
106.71
125.91
144.85
161.91
175.42
183.94
186.63
183.51
175.33
162.89
146.43
125.39
99.05
67.64
33.16
-0.75
-30.08
-52.17
-66.84
-76.31
-83.89
-92.29
-102.45
-113.47
-123.44
-130.57
-133.89
-133.45
-129.95
-124.39
-117.73
-110.67
-103.54
-96.27
-88.43
-79.46
-69.01
-57.10
-44.26
-31.36
-19.40
-9.37
-2.26
0.94
-0.83
-8.48
-22.50
-42.55
-67.23
-94.26
-120.88
-144.55
-163.43
-176.62
-183.87
-185.25
-180.85
-170.78
-155.53
-136.20
-114.55
-92.58
-71.94
-53.45
-36.94
-21.42
-5.73
11.01
29.18
48.59
68.74
88.94
108.35
125.91
140.21
149.65
152.74
148.65
137.58
120.96
101.19
80.91
62.22
46.16
32.59
20.71
9.61
-1.21
-11.71
-21.56
-30.58
-39.01
-47.62
-57.38
-68.81
-81.40
-93.37
-102.11
-105.25
-101.75
-92.46
-79.85
-66.86
-55.64
-46.74
-39.35
-32.01
-23.76
-14.47
-4.67
5.08
14.69
24.43
34.50
44.59
53.77
60.97
65.55
67.78
68.80
70.13
73.00
77.87
84.27
91.09
97.11
101.46
103.85
104.43
103.50
101.19
97.46
92.50
87.11
82.93
82.06
86.00
94.64
105.72
115.29
119.11
114.40
101.07
81.67
60.22
40.46
24.46
12.19
2.17
-7.34
-17.38
-27.93
-38.30
-47.79
-56.15
-63.66
-70.80
-77.69
-84.00
-89.01
-92.05
-93.03
-92.57
-91.85
-92.03
-93.67
-96.32
-98.58
-98.53
-94.38
-84.96
-69.99
-50.07
-26.38
-0.44
26.06
51.43
73.91
91.74
103.43
107.99
105.20
95.69
80.77
62.13
41.55
20.72
1.19
-15.60
-28.43
-36.50
-39.68
-38.68
-34.77
-29.42
-23.69
-18.02
-12.28
-6.13
0.68
8.03
15.55
22.76
29.33
35.10
40.13
44.45
47.94
50.24
50.83
49.35
45.96
41.68
38.21
37.31
39.93
45.43
51.65
55.63
54.98
49.08
39.40
28.88
20.49
15.90
14.92
15.94
16.83
15.99
12.76
7.19
-0.39
-9.67
-20.35
-31.86
-43.20
-53.20
-60.87
-65.87
-68.63
-70.08
-71.11
-72.02
-72.34
-70.86
-66.07
-56.75
-42.55
-24.39
-4.53
13.95
28.15
36.54
39.86
40.99
43.83
51.51
64.75
81.25
96.54
105.73
105.48
95.18
76.93
54.60
32.37
13.71
0.81
-5.46
-5.23
0.68
10.95
24.07
38.58
53.28
67.44
80.71
92.94
103.98
113.48
120.93
125.84
127.86
126.98
123.40
117.37
108.90
97.61
82.75
63.45
39.08
9.63
-23.92
-59.56
-94.37
-125.13
-149.16
-165.27
-174.18
-178.34
-181.00
-184.80
-190.65
-197.24
-201.58
-200.15
-190.42
-171.73
-145.46
-114.41
-81.80
-50.41
-22.10
2.15
21.91
37.07
47.70
54.24
57.65
59.38
61.04
63.96
68.78
75.34
82.97
90.93
98.84
106.77
114.95
123.20
130.46
134.82
134.06
126.58
112.15
92.10
68.72
44.28
20.13
-3.56
-27.42
-51.99
-77.12
-101.78
-124.30
-143.00
-156.48
-163.77
-164.23
-157.59
-144.06
-124.65
-101.18
-76.04
-51.65
-29.92
-11.83
2.60
14.01
23.20
30.64
36.14
38.92
37.77
31.52
19.39
1.19
-22.68
-51.33
-83.65
-118.39
-154.18
-189.55
-222.87
-252.38
-276.36
-293.31
-302.24
-302.92
-295.96
-282.69
-264.73
-243.47
-219.70
-193.51
-164.48
-132.16
-96.49
-58.07
-18.11
21.82
60.08
95.30
126.43
152.85
174.33
190.96
203.05
211.17
215.95
218.17
218.61
218.01
216.90
215.52
213.78
211.28
207.46
201.75
193.69
182.82
168.62
150.53
128.28
102.33
74.17
46.00
19.96
-2.77
-22.45
-40.43
-58.04
-75.50
-91.34
-102.83
-107.17
-102.80
-90.04
-70.82
-47.90
-23.95
-0.99
19.79
37.84
53.09
65.77
76.26
84.96
92.04
97.30
100.02
99.12
93.45
82.20
65.31
43.60
18.73
-7.17
-32.04
-54.43
-73.79
-90.49
-105.42
-119.39
-132.40
-143.31
-149.94
-149.95
-141.90
-126.05
-104.55
-80.64
-57.49
-37.13
-20.05
-5.57
7.29
19.12
29.98
39.60
47.91
55.19
61.87
68.16
73.74
77.88
79.81
79.15
76.15
71.57
66.41
61.57
57.60
54.73
52.91
51.94
51.50
51.23
50.80
49.90
48.24
45.31
40.23
31.87
19.38
2.83
-16.27
-35.15
-50.66
-60.53
-64.25
-63.13
-59.49
-55.44
-52.01
-48.99
-45.54
-40.98
-35.31
-29.20
-23.59
-19.25
-16.55
-15.51
-15.91
-17.43
-19.76
-22.60
-25.77
-29.20
-32.90
-36.92
-41.22
-45.68
-50.18
-54.70
-59.33
-64.28
-69.73
-75.79
-82.57
-90.29
-99.30
-109.90
-122.04
-134.81
-146.39
-154.29
-156.16
-150.65
-137.95
-119.74
-98.44
-76.36
-54.83
-34.06
-13.50
7.53
29.12
50.62
70.79
88.31
102.17
112.03
118.06
120.84
121.06
119.28
115.95
111.37
105.85
99.77
93.55
87.53
81.93
76.76
72.00
67.77
64.40
62.23
61.23
60.63
58.78
53.55
43.14
27.04
6.66
-14.79
-33.28
-45.37
-49.49
-46.45
-38.89
-30.08
-22.52
-17.12
-13.34
-9.87
-5.68
-0.48
5.24
10.75
15.64
20.04
24.38
29.06
34.06
38.95
43.16
46.28
48.30
49.58
50.67
51.90
53.24
54.25
54.15
52.15
47.67
40.54
31.12
20.29
9.40
0.00
-6.49
-9.14
-7.95
-3.94
0.90
4.19
3.74
-1.67
-11.88
-25.19
-38.75
-49.29
-54.09
-51.82
-43.00
-29.76
-15.12
-2.02
7.51
12.67
13.75
11.64
7.38
1.91
-4.00
-9.63
-14.37
-17.68
-19.22
-18.81
-16.44
-12.27
-6.58
0.09
7.05
13.67
19.62
25.04
30.30
35.69
41.08
46.09
50.61
55.19
61.05
69.33
80.29
92.81
104.77
114.02
119.44
121.42
121.41
120.91
120.54
119.81
117.65
113.27
106.80
99.27
92.16
86.82
84.05
84.06
86.80
92.24
100.75
113.04
129.83
151.21
175.99
201.57
224.25
240.18
246.38
241.39
225.26
199.01
164.07
122.44
77.18
32.90
-4.81
-31.04
-43.67
-44.78
-40.24
-37.72
-43.68
-61.38
-90.31
-127.36
-168.71
-211.17
-252.58
-291.49
-326.70
-357.27
-382.87
-404.05
-422.04
-438.02
-452.40
-464.43
-472.49
-474.80
-470.26
-458.99
-442.26
-421.97
-399.89
-377.01
-353.23
-327.54
-298.58
-265.33
-227.55
-185.97
-142.10
-97.80
-54.79
-14.17
23.85
59.90
95.01
129.95
164.60
197.66
227.01
250.54
267.10
277.07
282.16
284.77
287.02
290.15
294.44
299.56
304.98
310.35
315.49
320.41
325.28
330.52
336.72
344.37
353.30
362.35
369.28
371.35
366.20
352.72
331.29
303.49
271.19
235.75
197.66
156.74
112.50
64.57
12.85
-42.16
-98.84
-154.10
-203.46
-242.05
-266.42
-276.21
-274.91
-268.98
-265.68
-270.72
-286.65
-312.65
-345.51
-380.99
-414.70
-442.50
-460.78
-466.76
-459.20
-438.97
-409.09
-373.92
-337.87
-304.14
-274.09
-247.49
-223.26
-200.33
-177.99
-155.81
-133.31
-109.83
-84.67
-57.40
-28.05
2.98
35.15
67.94
100.51
131.23
157.57
176.78
187.17
189.14
185.26
178.87
172.19
164.84
153.98
136.09
109.36
75.19
38.14
4.05
-22.20
-38.26
-44.41
-42.60
-35.20
-24.13
-10.85
3.36
17.16
29.21
38.50
44.57
47.67
48.55
48.07
46.79
44.74
41.36
35.67
26.56
13.12
-5.23
-28.71
-57.15
-90.01
-126.14
-163.50
-198.96
-228.56
-248.15
-254.45
-246.02
-223.72
-190.54
-150.68
-108.56
-67.80
-30.72
1.71
29.60
53.70
74.93
94.07
111.58
127.49
141.39
152.54
160.10
163.38
162.09
156.52
147.55
136.67
125.72
116.60
110.90
109.56
112.65
119.40
128.49
138.43
147.95
155.93
161.34
162.98
159.58
150.15
134.56
113.76
89.71
64.72
40.78
19.20
0.66
-14.33
-25.04
-30.53
-30.08
-23.77
-12.73
1.11
15.69
29.50
41.81
52.43
61.18
67.49
70.34
68.68
61.91
50.22
34.53
16.21
-3.42
-23.28
-42.55
-60.60
-76.85
-90.78
-102.03
-110.46
-116.12
-119.14
-119.54
-117.18
-111.88
-103.63
-92.95
-80.85
-68.64
-57.36
-47.31
-37.92
-28.18
-17.31
-5.39
6.66
17.53
26.31
33.03
38.60
44.24
50.74
57.99
65.06
70.70
73.86
74.01
71.25
65.99
58.82
50.32
41.09
31.84
23.43
16.85
13.07
12.76
16.02
22.28
30.42
39.05
47.02
53.61
58.67
62.33
64.67
65.46
64.15
60.22
53.49
44.30
33.39
21.63
9.72
-1.81
-12.50
-21.72
-28.69
-32.60
-32.87
-29.34
-22.20
-11.83
1.42
17.20
34.98
53.82
72.23
88.27
99.93
105.63
104.65
97.33
85.00
69.42
52.27
34.67
17.04
-0.68
-18.60
-36.55
-54.07
-70.64
-86.02
-100.42
-114.42
-128.58
-143.13
-157.76
-171.61
-183.35
-191.35
-194.07
-190.45
-180.46
-165.27
-147.10
-128.48
-111.39
-96.58
-83.44
-70.54
-56.45
-40.55
-23.24
-5.58
11.34
26.98
41.36
54.74
67.09
77.80
85.84
90.35
91.14
89.00
85.45
82.16
80.27
80.01
80.78
81.59
81.63
80.60
78.90
77.38
77.13
79.12
83.92
91.40
100.51
109.25
115.08
115.51
108.89
95.01
75.16
51.73
27.37
4.19
-16.62
-34.81
-50.62
-64.29
-75.82
-84.92
-91.23
-94.44
-94.43
-91.23
-85.01
-76.07
-64.87
-51.93
-37.90
-23.47
-9.43
3.28
13.67
20.80
24.05
23.27
18.82
11.30
1.27
-11.04
-25.71
-42.94
-62.63
-84.13
-106.14
-126.86
-144.21
-156.24
-161.51
-159.54
-151.08
-138.14
-123.59
-110.39
-100.65
-94.99
-92.29
-90.17
-85.75
-76.54
-61.12
-39.50
-12.96
16.17
45.11
71.09
91.87
106.10
113.47
114.69
111.16
104.55
96.37
87.57
78.55
69.18
59.21
48.53
37.40
26.43
16.45
8.25
2.56
-0.06
0.72
4.71
10.97
17.70
22.78
24.47
22.14
16.44
8.82
0.69
-7.23
-14.84
-22.15
-28.54
-32.56
-32.44
-27.10
-16.92
-3.85
9.31
20.00
26.68
29.19
28.36
25.36
21.18
16.27
10.61
3.97
-3.85
-12.84
-22.84
-33.72
-45.56
-58.62
-73.00
-88.16
-102.59
-114.02
-120.02
-118.83
-110.03
-94.60
-74.49
-51.99
-29.18
-7.77
10.90
25.83
36.48
43.09
46.80
49.46
53.03
58.93
67.55
78.25
89.58
99.76
107.13
110.42
109.05
103.22
93.99
83.08
72.44
63.76
58.03
55.33
54.98
55.98
57.36
58.58
59.56
60.55
61.91
63.85
66.21
68.52
70.19
70.82
70.53
70.03
70.46
72.96
78.27
86.51
97.24
109.53
121.91
132.43
138.74
138.66
130.99
116.18
96.60
75.83
57.50
44.02
35.84
31.64
29.14
26.13
21.19
13.97
5.03
-4.36
-12.62
-18.14
-19.85
-17.57
-12.25
-5.60
0.52
4.78
6.87
7.35
7.28
7.55
8.43
9.26
8.42
3.57
-7.87
-27.85
-56.69
-92.26
-129.97
-163.75
-187.93
-199.34
-198.61
-190.02
-179.81
-173.71
-174.73
-182.11
-191.91
-198.71
-197.81
-186.80
-166.02
-137.97
-106.00
-73.13
-41.55
-12.77
11.82
30.74
42.63
46.95
44.64
38.13
30.62
24.87
22.15
22.01
22.72
22.53
20.57
17.39
14.47
13.39
14.98
19.06
24.78
31.35
38.56
46.75
56.37
67.52
79.83
92.70
105.69
118.34
129.84
138.63
142.69
140.35
131.58
118.51
104.97
95.02
91.21
93.55
99.72
106.30
110.18
109.47
103.60
92.91
77.98
59.38
37.61
13.25
-12.78
-39.19
-64.34
-86.47
-104.11
-116.43
-123.58
-126.58
-127.13
-127.10
-128.19
-131.63
-138.13
-147.89
-160.63
-175.58
-191.40
-206.15
-217.46
-223.01
-221.25
-212.02
-196.73
-177.93
-158.36
-139.90
-122.83
-105.91
-87.11
-64.64
-37.81
-7.27
25.26
57.70
88.08
114.96
137.42
155.06
167.95
176.45
181.18
182.80
181.79
178.28
172.08
162.77
150.08
134.14
115.75
96.38
78.09
63.26
53.97
51.32
54.73
61.79
68.91
72.61
70.81
63.59
52.84
41.02
29.99
20.37
12.02
4.92
-0.06
-1.35
2.52
11.85
25.38
40.73
55.45
67.97
77.83
85.44
91.35
95.76
98.38
98.60
95.77
89.39
79.17
65.01
46.84
24.67
-1.46
-31.39
-64.63
-100.28
-136.92
-172.84
-206.34
-236.04
-261.12
-281.19
-296.15
-305.97
-310.62
-310.23
-305.12
-295.79
-282.70
-266.06
-245.86
-221.99
-194.72
-164.89
-133.88
-103.26
-74.36
-47.94
-24.05
-2.23
18.27
38.19
58.06
78.10
98.15
117.66
135.83
151.68
164.32
173.19
178.27
180.14
179.90
178.87
178.13
178.26
179.13
180.00
179.80
177.45
172.08
163.12
150.47
134.57
116.46
97.69
79.99
64.84
53.04
44.46
38.26
33.27
28.64
24.09
20.00
17.00
15.47
15.10
14.87
13.40
9.51
2.75
-6.45
-17.11
-28.25
-39.44
-50.85
-62.99
-76.17
-90.12
-103.95
-116.39
-126.18
-132.31
-134.14
-131.33
-123.85
-112.00
-96.47
-78.15
-58.04
-36.90
-15.30
6.26
27.24
46.86
64.13
77.92
87.00
90.31
87.29
78.37
65.30
51.00
38.68
30.55
26.64
24.46
19.95
9.33
-9.03
-33.58
-60.09
-83.43
-99.62
-107.35
-108.01
-104.62
-100.11
-96.07
-92.45
-88.30
-82.88
-76.43
-69.98
-64.61
-60.57
-56.89
-51.93
-44.41
-34.29
-23.02
-12.92
-6.10
-3.56
-4.76
-8.08
-11.47
-13.33
-12.83
-9.92
-4.93
1.83
10.38
20.99
33.90
49.00
65.57
82.22
97.10
108.32
114.33
114.29
108.31
97.41
83.30
67.97
53.27
40.41
29.76
20.86
12.82
4.80
-3.44
-11.41
-18.01
-22.11
-23.05
-20.96
-16.74
-11.62
-6.79
-3.00
-0.50
0.83
1.29
1.21
0.82
0.38
0.23
0.69
2.05
4.48
7.89
11.90
15.94
19.37
21.65
22.56
22.28
21.38
20.57
20.47
21.26
22.58
23.69
23.79
22.46
19.88
16.84
14.41
13.47
14.35
16.66
19.55
22.13
24.01
25.59
27.98
32.50
39.91
49.86
60.73
70.19
76.27
78.38
77.92
77.94
81.98
92.64
110.59
134.22
160.26
184.95
205.07
218.73
225.63
227.24
226.27
225.66
227.22
230.14
230.45
221.91
198.42
157.22
101.29
39.86
-13.81
-46.63
-50.58
-25.89
18.71
69.06
110.35
131.85
129.53
106.20
69.36
28.17
-9.34
-38.20
-57.05
-67.82
-74.27
-79.88
-86.06
-91.62
-93.72
-89.70
-78.86
-62.90
-45.04
-28.45
-15.36
-7.09
-4.84
-9.89
-23.07
-43.70
-69.07
-95.23
-118.60
-137.57
-152.83
-166.42
-180.19
-194.64
-208.98
-221.73
-231.57
-237.78
-240.23
-239.22
-235.28
-229.07
-221.34
-212.74
-203.65
-194.03
-183.43
-171.14
-156.43
-138.63
-117.33
-92.47
-64.49
-34.45
-3.87
25.45
51.84
74.09
91.59
104.07
111.31
112.90
108.32
97.51
81.32
61.89
42.27
25.56
13.87
7.65
5.67
5.78
5.89
4.90
2.88
0.76
-0.50
-0.53
0.25
0.88
0.55
-1.00
-3.24
-5.29
-6.43
-6.56
-6.34
-6.80
-8.79
-12.45
-17.08
-21.44
-24.25
-24.77
-23.05
-19.83
-16.19
-13.11
-11.08
-10.01
-9.31
-8.20
-5.94
-2.13
3.28
10.09
18.06
27.09
37.21
48.40
60.31
72.09
82.46
90.03
93.96
94.32
92.23
89.39
87.28
86.51
86.53
86.01
83.60
78.80
72.24
65.44
60.17
57.60
57.94
60.54
64.35
68.43
72.06
74.70
75.69
74.34
70.05
62.58
52.23
39.61
25.23
9.12
-9.27
-30.46
-54.04
-77.83
-97.73
-108.84
-107.33
-92.38
-67.08
-37.54
-10.66
8.46
17.94
18.88
13.55
3.57
-10.85
-30.30
-54.58
-81.68
-107.87
-128.84
-141.55
-145.37
-142.46
-136.86
-132.95
-133.89
-140.20
-149.43
-156.92
-157.74
-149.09
-131.98
-111.01
-92.45
-81.28
-79.02
-83.41
-90.09
-94.91
-95.79
-92.95
-87.79
-81.44
-73.94
-64.44
-52.29
-37.91
-22.98
-9.79
-0.20
5.11
6.79
6.33
5.33
4.83
5.04
5.41
5.04
3.25
-0.02
-4.12
-7.90
-10.22
-10.55
-9.15
-6.95
-5.03
-4.13
-4.32
-5.08
-5.72
-5.90
-5.73
-5.66
-6.08
-7.04
-8.31
-9.70
-11.36
-13.76
-17.49
-22.81
-29.40
-36.35
-42.45
-46.58
-48.08
-46.93
-43.76
-39.54
-35.33
-31.92
-29.72
-28.69
-28.47
-28.66
-29.03
-29.70
-31.10
-33.82
-38.28
-44.46
-51.70
-58.74
-64.04
-66.31
-64.85
-59.81
-51.96
-42.25
-31.28
-19.29
-6.28
7.70
22.34
37.11
51.45
64.76
76.17
84.36
87.54
84.07
73.50
57.51
39.88
25.18
16.57
14.18
15.16
15.62
13.18
8.47
4.57
4.71
9.94
18.48
27.06
33.36
37.62
42.29
49.94
60.99
72.88
81.14
81.87
73.89
59.45
43.26
30.49
24.77
26.87
34.65
43.99
50.58
51.59
46.82
38.69
31.14
27.92
31.16
40.69
54.33
68.62
79.69
84.13
79.82
66.88
48.43
30.54
20.89
26.14
48.96
86.20
129.40
167.84
192.51
199.38
190.03
169.79
144.50
118.01
91.52
64.83
38.27
13.71
-5.97
-18.39
-23.36
-23.13
-21.34
-21.19
-23.85
-28.14
-31.41
-31.19
-26.72
-19.40
-12.30
-8.72
-10.78
-18.59
-30.46
-43.87
-56.68
-67.99
-78.15
-88.15
-98.75
-109.79
-119.98
-127.37
-129.89
-126.05
-115.19
-97.44
-73.55
-44.78
-12.94
19.44
49.22
73.05
88.15
93.11
88.27
75.50
57.48
36.76
15.18
-6.16
-26.74
-46.04
-63.50
-78.52
-90.66
-99.85
-106.29
-110.24
-111.80
-110.95
-107.63
-102.03
-94.74
-86.72
-79.07
-72.64
-67.78
-64.22
-61.21
-57.95
-53.97
-49.29
-44.40
-39.83
-35.80
-31.92
-27.38
-21.34
-13.44
-4.14
5.37
13.62
19.49
22.52
22.97
21.46
18.59
14.67
9.69
3.48
-4.13
-13.25
-23.86
-35.91
-49.22
-63.57
-78.65
-94.14
-109.84
-125.59
-141.20
-156.26
-170.22
-182.47
-192.70
-201.09
-208.27
-215.19
-222.76
-231.73
-242.60
-255.46
-269.78
-284.09
-295.93
-302.32
-300.64
-289.67
-270.02
-243.96
-214.43
-183.89
-153.64
-123.84
-94.03
-63.97
-34.02
-5.17
21.43
45.00
65.43
83.27
99.40
114.48
128.52
140.75
149.89
154.77
154.97
