1660751792.00
64.000000
-0.00
-0.00
-0.00
-0.00
-0.00
-0.00
-0.00
-0.00
-0.00
-0.00
0.00
0.01
0.01
-0.00
-0.03
-0.05
-0.05
0.00
0.13
0.36
0.66
1.01
1.37
1.72
2.06
2.40
2.79
3.24
3.80
4.42
5.06
5.66
6.20
6.68
7.15
7.68
8.31
9.14
10.09
11.04
11.88
12.56
13.14
13.76
14.65
15.96
17.91
20.32
22.90
25.38
27.58
29.57
31.68
34.32
37.81
42.54
48.15
54.10
59.83
64.97
69.58
74.14
79.34
85.71
93.76
103.00
112.62
121.73
129.77
136.75
143.30
150.75
157.77
166.64
177.95
191.79
206.97
220.57
228.25
225.36
208.53
176.87
132.76
80.05
23.07
-34.94
-92.44
-149.16
-205.23
-260.37
-313.74
-363.87
-409.83
-450.91
-486.50
-515.74
-537.23
-549.22
-549.96
-538.37
-514.21
-478.67
-433.88
-382.45
-327.02
-269.84
-212.63
-156.66
-102.95
-52.37
-5.90
35.58
71.43
101.35
125.50
144.38
158.69
169.15
176.37
180.76
182.60
182.10
179.53
175.21
169.56
162.99
155.87
148.47
140.94
133.34
125.69
118.00
110.32
102.71
95.26
88.04
81.13
74.55
68.29
62.33
56.63
51.15
45.89
40.90
36.24
31.98
28.15
24.71
21.54
18.51
15.53
12.57
9.75
7.21
5.13
3.60
2.50
1.62
0.64
-0.67
-2.34
-4.18
-5.85
-7.00
-7.47
-7.40
-7.19
-7.36
-8.26
-9.94
-12.06
-14.05
-15.41
-15.88
-15.61
-15.07
-14.82
-15.28
-16.70
-19.20
-22.64
-26.47
-29.56
-30.32
-27.17
-19.36
-7.55
6.15
18.92
28.38
33.46
34.76
33.88
32.50
31.52
30.90
30.06
28.50
26.28
23.90
21.94
20.64
19.72
18.61
16.74
13.95
10.66
7.67
5.81
5.53
6.61
8.31
9.67
9.97
9.04
7.28
5.34
3.91
3.32
3.55
4.30
5.20
5.96
6.44
6.67
6.76
6.98
7.65
9.05
11.28
14.08
16.90
19.03
19.89
19.22
17.15
14.08
10.59
7.04
3.68
0.66
-2.00
-4.32
-6.37
-8.21
-9.91
-11.51
-13.02
-14.45
-15.76
-16.92
-17.82
-18.34
-18.36
-17.79
-16.70
-15.25
-13.66
-12.13
-10.75
-9.53
-8.43
-7.42
-6.56
-5.94
-5.66
-5.70
-5.92
-6.12
-6.07
-5.69
-5.01
-4.21
-3.51
-3.02
-2.77
-2.68
-2.67
-2.69
-2.74
-2.77
-2.64
-2.16
-1.11
0.58
2.73
4.94
6.72
7.67
7.63
6.79
5.56
4.38
3.56
3.12
2.88
2.59
2.10
1.42
0.70
0.14
-0.14
-0.09
0.22
0.66
1.10
1.42
1.60
1.67
1.67
1.58
1.36
0.90
0.16
-0.81
-1.86
-2.78
-3.42
-3.78
-4.01
-4.37
-5.03
-6.09
-7.45
-8.92
-10.24
-11.13
-11.32
-10.61
-8.93
-6.39
-3.30
-0.06
2.88
5.19
6.74
7.57
7.84
7.74
7.38
6.75
5.78
4.42
2.75
0.99
-0.54
-1.54
-1.91
-1.77
-1.43
-1.22
-1.35
-1.82
-2.48
-3.10
-3.57
-3.91
-4.27
-4.81
-5.61
-6.62
-7.67
-8.62
-9.43
-10.21
-11.13
-12.35
-13.96
-15.94
-18.23
-20.70
-23.21
-25.52
-27.36
-28.47
-28.69
-28.10
-26.95
-25.62
-24.51
-23.91
-23.92
-24.50
-25.40
-26.25
-26.55
-25.83
-23.74
-20.14
-15.15
-9.07
-2.29
4.77
11.73
18.27
24.12
29.12
33.20
36.41
38.82
40.46
41.31
41.31
40.37
38.50
35.85
32.65
29.23
25.91
22.93
20.37
18.20
16.26
14.31
12.15
9.71
7.11
4.70
2.93
2.25
2.84
4.56
6.94
9.34
11.21
12.26
12.52
12.21
11.61
10.83
9.87
8.65
7.14
5.46
3.82
2.43
1.41
0.72
0.21
-0.27
-0.81
-1.36
-1.82
-2.09
-2.18
-2.21
-2.29
-2.46
-2.67
-2.84
-2.94
-3.03
-3.25
-3.73
-4.51
-5.53
-6.65
-7.76
-8.82
-9.86
-10.94
-12.11
-13.28
-14.25
-14.70
-14.26
-12.66
-9.88
-6.23
-2.28
1.32
4.13
6.07
7.38
8.41
9.44
10.48
11.33
11.72
11.52
10.84
9.94
9.13
8.62
8.41
8.30
8.09
7.59
6.80
5.81
4.77
3.79
2.90
2.01
1.01
-0.16
-1.45
-2.69
-3.68
-4.25
-4.35
-4.06
-3.56
-3.09
-2.84
-2.93
-3.43
-4.34
-5.58
-7.01
-8.40
-9.42
-9.76
-9.20
-7.72
-5.57
-3.15
-0.89
0.93
2.25
3.21
3.99
4.65
5.09
5.07
4.38
3.02
1.15
-0.92
-2.89
-4.63
-6.17
-7.55
-8.80
-9.79
-10.28
-10.04
-8.98
-7.23
-5.19
-3.35
-2.15
-1.78
-2.12
-2.76
-3.21
-3.07
-2.18
-0.70
1.02
2.59
3.71
4.29
4.37
4.10
3.66
3.28
3.20
3.70
4.98
7.08
9.84
12.83
15.54
17.46
18.31
18.10
17.13
15.82
14.54
13.48
12.61
11.77
10.78
9.54
8.07
6.48
4.90
3.41
1.99
0.60
-0.79
-2.17
-3.46
-4.57
-5.53
-6.48
-7.59
-9.00
-10.65
-12.28
-13.57
-14.22
-14.18
-13.61
-12.87
-12.30
-12.17
-12.52
-13.21
-13.91
-14.16
-13.54
-11.77
-8.84
-5.07
-1.05
2.60
5.43
7.25
8.20
8.54
8.53
8.31
7.91
7.34
6.67
6.04
5.58
5.33
5.19
4.95
4.46
3.70
2.81
2.07
1.65
1.58
1.67
1.62
1.18
0.25
-1.03
-2.40
-3.60
-4.47
-4.98
-5.25
-5.38
-5.44
-5.44
-5.36
-5.27
-5.30
-5.60
-6.17
-6.78
-7.01
-6.42
-4.79
-2.26
0.68
3.44
5.53
6.78
7.31
7.41
7.33
7.17
6.84
6.17
5.06
3.59
2.04
0.76
-0.03
-0.26
-0.13
0.11
0.24
0.25
0.22
0.28
0.42
0.52
0.37
-0.14
-0.97
-1.91
-2.72
-3.20
-3.32
-3.15
-2.89
-2.70
-2.72
-2.99
-3.49
-4.11
-4.73
-5.16
-5.22
-4.72
-3.53
-1.64
0.82
3.59
6.38
8.93
11.09
12.76
13.91
14.56
14.88
15.26
16.30
18.56
22.26
26.86
31.13
33.45
32.51
28.06
21.16
13.98
9.04
8.41
13.14
23.03
36.81
52.36
66.86
77.05
79.66
72.42
55.06
29.95
1.73
-24.06
-42.89
-52.66
-54.02
-49.67
-42.95
-36.54
-31.94
-29.55
-29.08
-29.85
-30.92
-31.14
-29.48
-25.17
-18.11
-8.93
1.20
10.91
19.00
24.70
27.69
27.59
24.17
17.34
7.44
-4.55
-16.93
-27.57
-34.33
-35.56
-31.13
-22.04
-10.16
2.11
12.14
17.18
14.82
3.99
-13.90
-35.33
-54.81
-67.01
-69.09
-62.09
-50.79
-41.82
-40.59
-44.31
-47.97
-45.59
-34.29
-15.95
4.64
23.13
37.50
48.48
58.49
68.91
79.84
89.86
97.17
100.71
100.74
98.52
96.11
95.13
96.58
100.21
104.62
108.12
109.42
108.33
104.89
100.34
96.99
96.36
98.94
103.67
108.62
111.24
109.58
100.67
82.78
60.61
37.91
17.25
-0.97
-17.63
-35.19
-55.94
-84.53
-123.58
-171.59
-223.66
-272.34
-309.73
-328.44
-325.44
-302.07
-268.10
-234.80
-209.97
-196.52
-192.92
-195.54
-199.60
-202.85
-179.78
-119.07
-29.11
68.47
155.31
224.94
272.85
307.66
333.42
351.37
358.00
351.10
335.33
316.52
299.81
287.38
279.58
273.73
266.77
254.04
233.82
208.39
181.95
158.33
139.15
124.71
113.07
101.87
87.89
70.08
50.08
30.74
14.55
2.51
-5.35
-10.55
-16.00
-24.39
-36.07
-49.09
-61.03
-70.18
-76.07
-79.07
-80.53
-85.76
-98.42
-117.77
-139.66
-159.95
-175.96
-186.33
-190.52
-188.88
-190.32
-200.79
-218.69
-237.20
-250.87
-258.09
-259.93
-258.56
-256.31
-267.64
-300.64
-350.07
-401.85
-444.53
-473.88
-491.30
-500.84
-507.29
-531.37
-585.82
-666.70
-759.01
-850.09
-933.79
-1006.71
-1064.68
-1000.49
-772.25
-434.73
-93.78
178.24
363.86
477.19
541.68
578.49
601.80
602.29
572.87
520.61
463.30
415.96
384.83
369.23
365.05
367.22
358.79
329.96
285.11
238.01
200.35
176.68
166.15
165.29
169.86
168.77
155.27
131.57
105.83
84.95
71.49
64.64
62.07
61.02
55.81
43.06
24.02
3.11
-15.68
-30.47
-41.16
-48.66
-54.48
-60.84
-69.27
-79.36
-89.20
-96.64
-99.92
-97.74
-88.71
-76.44
-62.55
-48.32
-34.49
-21.14
-7.89
5.96
21.09
38.04
56.87
77.65
99.23
119.31
134.86
143.09
142.49
133.62
119.04
102.40
87.66
77.16
71.23
68.61
67.47
66.34
64.58
62.27
59.58
56.71
53.38
49.12
43.73
37.53
31.37
26.19
22.51
20.22
18.79
17.44
15.62
13.26
10.73
8.57
7.17
6.49
6.09
5.34
3.73
1.13
-2.20
-5.69
-8.86
-11.49
-13.72
-15.88
-18.18
-20.62
-22.88
-24.64
-25.67
-26.06
-26.12
-26.26
-26.86
-28.13
-30.07
-32.40
-34.55
-35.72
-35.01
-31.78
-25.86
-17.70
-8.27
1.26
9.89
17.06
22.63
26.77
29.75
31.72
32.77
32.95
32.45
31.60
30.85
30.58
31.04
32.18
33.76
35.36
36.58
37.04
36.53
35.01
32.53
29.29
25.48
21.33
17.08
12.92
9.05
5.59
2.57
-0.08
-2.44
-4.57
-6.49
-8.13
-9.48
-10.70
-12.16
-14.33
-17.63
-22.13
-27.43
-32.58
-36.29
-37.30
-34.67
-28.17
-18.26
-6.08
6.89
19.13
29.46
37.31
42.67
46.05
48.17
49.68
50.97
52.13
52.98
53.29
52.83
51.43
49.01
45.70
41.81
37.87
34.54
32.37
31.58
31.96
32.87
33.55
33.36
31.95
29.41
26.08
22.53
19.32
16.96
15.82
15.95
17.12
18.73
20.04
20.28
18.91
15.79
11.13
5.38
-0.85
-6.89
-11.98
-15.38
-16.38
-14.61
-10.29
-4.20
2.32
7.88
11.48
12.73
11.98
9.92
7.30
4.51
1.58
-1.76
-5.81
-10.63
-15.93
-21.17
-25.66
-28.87
-30.53
-30.67
-29.52
-27.29
-24.13
-20.12
-15.40
-10.27
-5.21
-0.64
3.18
6.31
8.98
11.40
13.46
14.71
14.51
12.27
7.85
1.66
-5.26
-11.52
-15.69
-16.67
-14.03
-8.12
0.09
9.33
18.35
26.26
32.60
37.23
40.23
41.74
41.98
41.20
39.75
37.97
36.20
34.64
33.35
32.30
31.37
30.43
29.36
28.06
26.47
24.60
22.46
20.08
17.43
14.46
11.14
7.47
3.51
-0.68
-5.07
-9.75
-14.93
-20.88
-27.73
-35.43
-43.59
-51.55
-58.48
-63.54
-66.06
-65.73
-62.69
-57.48
-50.85
-43.52
-35.97
-28.30
-20.44
-12.28
-3.91
4.39
12.31
19.67
26.51
32.92
38.82
43.85
47.34
48.70
47.77
45.04
41.51
38.37
36.48
36.10
36.86
38.06
39.01
39.27
38.75
37.56
35.87
33.75
31.17
28.07
24.39
20.17
15.51
10.70
6.09
2.22
-0.38
-1.25
-0.26
2.37
5.95
9.67
12.77
14.80
15.80
16.10
16.16
16.25
16.33
16.11
15.23
13.47
10.94
8.04
5.31
3.13
1.60
0.48
-0.64
-2.15
-4.19
-6.65
-9.19
-11.54
-13.60
-15.57
-17.79
-20.56
-23.83
-27.10
-29.47
-29.93
-27.68
-22.34
-14.04
-3.41
8.41
19.70
28.31
32.17
29.91
21.62
9.07
-4.76
-16.70
-24.48
-27.39
-26.19
-22.44
-17.61
-12.60
-7.75
-3.09
1.20
4.71
7.00
7.79
7.18
5.63
3.80
2.31
1.49
1.37
1.74
2.40
3.30
4.59
6.45
8.88
11.51
13.70
14.78
14.36
12.56
9.94
7.25
5.08
3.60
2.56
1.49
0.05
-1.75
-3.50
-4.57
-4.44
-2.95
-0.44
2.32
4.49
5.37
4.69
2.53
-0.75
-4.75
-9.14
-13.69
-18.18
-22.41
-26.12
-29.00
-30.79
-31.26
-30.38
-28.25
-25.15
-21.48
-17.62
-13.96
-10.72
-8.05
-6.01
-4.60
-3.78
-3.47
-3.54
-3.83
-4.17
-4.45
-4.57
-4.57
-4.53
-4.54
-4.70
-4.89
-4.78
-3.79
-1.24
3.35
9.93
17.74
25.36
31.13
33.64
32.34
27.80
21.57
15.62
11.69
10.65
12.32
15.71
19.56
22.85
25.13
26.43
26.92
26.65
25.48
23.18
19.69
15.24
10.28
5.21
0.22
-4.75
-9.82
-14.94
-19.73
-23.63
-26.07
-26.81
-26.10
-24.58
-23.13
-22.50
-23.16
-25.12
-28.00
-31.23
-34.23
-36.55
-37.85
-37.88
-36.33
-32.92
-27.47
-20.15
-11.56
-2.68
5.43
11.90
16.27
18.54
19.02
18.14
16.41
14.30
12.29
10.82
10.16
10.34
11.14
12.15
12.94
13.19
12.79
11.90
10.80
9.74
8.83
7.97
6.94
5.48
3.48
1.04
-1.64
-4.35
-7.04
-9.86
-13.06
-16.84
-21.23
-26.06
-31.12
-36.22
-41.22
-45.91
-49.97
-52.95
-54.38
-54.11
-52.38
-49.85
-47.37
-45.59
-44.72
-44.40
-43.94
-42.62
-40.01
-36.06
-31.11
-25.64
-20.14
-15.04
-10.74
-7.57
-5.74
-5.11
-5.07
-4.57
-2.44
2.15
9.29
18.16
27.34
35.29
40.95
44.10
45.29
45.52
45.65
46.09
46.65
46.85
46.35
45.24
44.10
43.76
44.80
47.28
50.67
54.05
56.63
58.04
58.49
58.54
58.84
59.80
61.52
63.79
66.31
68.88
71.46
74.26
77.62
81.96
87.73
95.41
105.32
117.28
130.35
142.77
152.45
157.71
158.08
154.59
149.56
145.93
146.25
151.99
163.06
177.92
193.85
207.51
215.65
215.91
207.34
190.63
167.75
141.28
113.55
86.23
60.18
35.59
12.20
-10.72
-34.51
-61.04
-92.41
-129.90
-172.80
-217.64
-258.40
-288.13
-301.16
-295.29
-272.51
-238.23
-199.20
-160.89
-125.95
-94.04
-63.14
-31.44
1.09
32.20
58.08
74.62
78.93
69.89
47.78
13.49
-31.92
-86.47
-146.13
-204.09
-251.69
-281.08
-288.42
-275.65
-249.81
-220.11
-194.13
-175.55
-163.95
-156.82
-151.81
-148.02
-145.60
-144.58
-143.77
-140.88
-133.53
-120.55
-102.56
-81.91
-61.75
-44.75
-32.29
-24.20
-19.13
-15.31
-11.38
-6.72
-1.43
3.99
9.02
13.32
16.78
19.45
21.43
22.86
23.86
24.57
25.20
25.91
26.77
27.67
28.38
28.63
28.25
27.13
25.31
22.94
20.31
17.67
15.22
13.02
11.04
9.22
7.41
5.64
4.17
3.38
3.66
5.07
7.22
9.38
10.76
10.49
8.43
5.28
2.35
0.95
1.79
4.74
9.06
13.82
17.65
19.94
20.96
21.62
22.96
25.59
29.46
33.69
36.39
33.68
21.93
-0.39
-31.25
-65.08
-94.60
-113.38
-118.21
-110.20
-95.30
-79.97
-68.43
-61.38
-57.30
-54.60
-53.24
-54.61
-51.99
-41.43
-22.15
3.00
30.36
57.50
82.78
104.64
121.87
133.87
139.71
140.26
137.57
133.98
131.06
129.08
127.46
125.55
122.69
116.91
107.76
95.52
81.04
65.14
48.40
31.23
14.22
0.64
-10.03
-18.27
-24.37
-28.38
-30.27
-29.94
-29.98
-28.92
-25.95
-21.61
-16.50
-11.48
-7.45
-5.06
-4.40
-4.89
-5.92
-7.13
-8.89
-11.72
-16.62
-25.06
-39.01
-61.21
-88.98
-121.21
-156.19
-190.68
-219.75
-238.20
-242.45
-231.88
-209.07
-178.52
-145.55
-114.01
-85.74
-60.94
-39.30
-20.87
-6.02
5.14
13.35
19.63
25.35
31.41
37.90
44.06
48.67
50.74
49.95
46.86
42.28
37.36
33.13
30.18
28.57
27.90
27.55
26.91
25.69
23.76
21.40
19.16
17.59
16.95
17.04
17.21
16.53
14.19
9.78
3.60
-3.43
-9.95
-14.55
-16.15
-14.14
-8.63
-0.48
8.75
16.95
21.84
21.58
15.51
4.75
-7.87
-18.55
-23.86
-22.07
-13.77
-1.72
10.43
19.54
24.10
24.40
22.00
18.66
15.57
13.03
10.73
8.27
5.59
3.07
1.28
0.62
1.09
2.22
3.35
4.04
4.32
4.63
5.51
7.12
9.07
10.53
10.65
9.20
6.72
4.50
3.98
6.18
11.32
18.82
27.64
36.78
45.55
53.56
60.59
66.28
70.00
71.01
68.80
63.29
55.01
44.99
34.37
24.15
14.95
7.02
0.35
-5.18
-9.68
-13.23
-15.90
-17.83
-19.17
-20.11
-20.80
-21.36
-21.85
-22.23
-22.42
-22.33
-21.87
-21.03
-19.85
-18.42
-16.85
-15.27
-13.81
-12.52
-11.40
-10.36
-9.26
-7.97
-6.41
-4.63
-2.76
-1.00
0.53
1.76
2.70
3.41
3.89
4.13
4.06
3.71
3.16
2.60
2.25
2.30
2.85
3.88
5.28
6.88
8.57
10.23
11.81
13.38
15.20
17.63
21.04
25.60
30.98
36.36
40.55
42.39
41.17
36.92
30.39
22.69
14.89
7.66
1.27
-4.22
-8.74
-12.01
-13.68
-13.59
-11.95
-9.43
-6.97
-5.42
-5.27
-6.43
-8.42
-10.61
-12.59
-14.26
-15.85
-17.66
-19.78
-21.90
-23.32
-23.16
-20.80
-16.17
-9.87
-2.96
3.38
8.31
11.52
13.25
14.06
14.46
14.75
14.92
14.85
14.42
13.68
12.81
11.95
11.06
9.87
8.01
5.26
1.80
-1.67
-4.07
-4.39
-1.98
3.19
10.53
19.06
27.76
35.86
43.00
49.25
55.07
61.11
67.92
75.77
84.33
92.51
98.58
100.56
96.81
86.72
71.07
51.87
31.80
13.35
-1.97
-13.86
-23.00
-30.39
-36.79
-42.49
-47.37
-51.32
-54.44
-57.11
-59.75
-62.57
-65.48
-68.19
-70.35
-71.74
-72.23
-71.75
-70.15
-67.16
-62.47
-55.80
-47.12
-36.65
-24.87
-12.50
-0.36
10.71
19.97
26.92
31.42
33.72
34.36
34.06
33.39
32.57
31.48
29.74
27.06
23.46
19.43
15.91
13.92
14.36
17.62
23.59
31.68
41.02
50.77
60.33
69.52
78.72
