1660749160.00
64.000000
-0.00
-0.00
-0.00
-0.00
-0.00
-0.00
-0.00
-0.00
-0.00
-0.00
0.00
0.01
0.01
-0.00
-0.03
-0.05
-0.05
0.00
0.13
0.36
0.66
1.01
1.37
1.72
2.06
2.40
2.79
3.24
3.80
4.42
5.06
5.66
6.20
6.68
7.15
7.68
8.31
9.14
10.09
11.04
11.88
12.56
13.14
13.76
14.65
15.96
17.91
20.32
22.90
25.38
27.58
29.57
31.68
34.32
37.81
42.54
48.15
54.10
59.83
64.97
69.58
74.14
79.34
85.71
93.76
103.00
112.62
121.73
129.77
136.75
143.30
150.75
157.77
166.64
177.95
191.79
206.97
220.57
228.25
225.36
208.53
176.87
132.76
80.05
23.07
-34.94
-92.44
-149.16
-205.23
-260.37
-313.74
-363.87
-409.83
-450.91
-486.50
-515.74
-537.23
-549.22
-549.96
-538.37
-514.21
-478.67
-433.88
-382.45
-327.02
-269.84
-212.63
-156.66
-102.95
-52.37
-5.90
35.58
71.43
101.35
125.50
144.38
158.69
169.15
176.37
180.75
182.57
182.07
179.51
175.23
169.66
163.18
156.15
148.80
141.29
133.68
126.02
118.36
110.73
103.20
95.82
88.63
81.67
74.97
68.57
62.50
56.79
51.41
46.36
41.60
37.10
32.87
28.91
25.28
21.97
19.01
16.36
13.96
11.73
9.65
7.70
5.93
4.42
3.23
2.35
1.70
1.12
0.45
-0.42
-1.47
-2.54
-3.41
-3.92
-4.01
-3.86
-3.78
-4.10
-5.00
-6.42
-8.03
-9.37
-10.08
-10.06
-9.58
-9.19
-9.44
-10.65
-12.72
-15.13
-17.21
-18.43
-18.64
-18.14
-17.53
-17.39
-18.19
-20.20
-23.53
-27.93
-32.50
-35.54
-34.91
-28.79
-16.76
-0.30
17.49
33.03
43.67
48.67
49.05
46.80
43.66
40.47
37.24
33.69
29.84
26.10
23.00
20.75
19.02
17.14
14.53
11.04
7.17
3.80
1.86
1.86
3.71
6.72
9.81
11.95
12.52
11.62
10.02
8.93
9.46
12.21
16.92
22.51
27.51
30.57
30.89
28.36
23.68
17.51
10.66
3.84
-2.51
-8.09
-12.77
-16.49
-19.25
-21.01
-21.79
-21.62
-20.69
-19.38
-18.12
-17.27
-16.91
-16.84
-16.65
-15.98
-14.61
-12.56
-10.10
-7.53
-5.16
-3.15
-1.55
-0.31
0.67
1.51
2.30
2.96
3.33
3.21
2.42
0.90
-1.24
-3.77
-6.26
-8.22
-9.12
-8.52
-6.27
-2.62
1.79
6.04
9.25
10.88
10.92
9.85
8.38
7.17
6.52
6.33
6.22
5.80
4.96
3.90
3.05
2.80
3.33
4.52
6.06
7.64
8.78
9.31
9.28
8.79
7.99
6.89
5.47
3.62
1.21
-1.86
-5.57
-9.83
-14.46
-19.21
-23.87
-28.39
-32.89
-37.63
-42.93
-48.93
-55.57
-62.45
-68.84
-73.72
-75.96
-74.54
-68.89
-59.12
-46.08
-31.19
-16.03
-1.91
10.37
20.58
28.83
35.28
40.04
43.17
44.74
45.02
44.44
43.49
42.63
42.13
42.10
42.53
43.30
44.25
45.20
45.92
46.14
45.60
44.15
41.79
38.70
35.14
31.31
27.29
22.98
18.20
12.82
6.91
0.72
-5.42
-11.21
-16.44
-21.07
-25.16
-28.89
-32.53
-36.41
-40.79
-45.66
-50.58
-54.60
-56.51
-55.13
-49.83
-40.79
-29.02
-16.09
-3.66
7.01
15.29
21.26
25.41
28.34
30.48
31.96
32.80
32.99
32.66
31.99
31.19
30.26
29.07
27.44
25.29
22.71
20.01
17.53
15.49
13.89
12.57
11.25
9.74
7.98
6.08
4.27
2.79
1.73
1.01
0.33
-0.70
-2.41
-4.87
-7.90
-11.09
-14.01
-16.38
-18.26
-19.97
-22.03
-24.92
-28.88
-33.72
-38.66
-42.53
-43.94
-41.79
-35.71
-26.21
-14.66
-2.79
7.85
16.37
22.61
27.02
30.27
32.81
34.80
36.18
36.83
36.80
36.27
35.49
34.65
33.75
32.70
31.42
29.89
28.21
26.49
24.79
23.05
21.08
18.73
15.87
12.53
8.81
4.83
0.72
-3.41
-7.46
-11.37
-15.09
-18.62
-21.91
-24.90
-27.47
-29.56
-31.27
-32.90
-34.93
-37.78
-41.62
-46.07
-50.27
-52.97
-52.89
-49.17
-41.64
-30.95
-18.40
-5.59
6.07
15.67
22.96
28.22
31.97
34.75
36.85
38.36
39.17
39.18
38.33
36.69
34.43
31.77
28.91
25.95
22.94
19.83
16.59
13.23
9.79
6.33
2.80
-0.92
-4.98
-9.37
-13.88
-18.06
-21.41
-23.58
-24.55
-24.68
-24.51
-24.53
-24.94
-25.63
-26.27
-26.53
-26.28
-25.65
-25.01
-24.83
-25.51
-27.26
-30.02
-33.35
-36.46
-38.29
-37.83
-34.36
-27.87
-19.04
-9.08
0.63
9.04
15.62
20.42
23.79
26.07
27.43
27.92
27.58
26.63
25.42
24.37
23.77
23.65
23.81
23.92
23.72
23.11
22.20
21.17
20.22
19.44
18.77
17.99
16.82
15.00
12.41
9.16
5.52
1.85
-1.52
-4.43
-6.90
-9.13
-11.36
-13.76
-16.36
-19.05
-21.62
-23.90
-25.83
-27.50
-29.14
-30.99
-33.26
-36.04
-39.25
-42.52
-45.22
-46.50
-45.52
-41.72
-35.10
-26.30
-16.42
-6.67
2.01
9.12
14.62
18.75
21.74
23.74
24.83
25.09
24.71
23.90
22.88
21.78
20.63
19.43
18.17
16.89
15.61
14.43
13.37
12.42
11.51
10.48
9.20
7.58
5.66
3.60
1.63
-0.04
-1.32
-2.34
-3.36
-4.61
-6.20
-7.98
-9.65
-10.92
-11.65
-11.96
-12.17
-12.71
-13.91
-15.88
-18.41
-20.94
-22.69
-22.84
-20.82
-16.45
-10.09
-2.50
5.35
12.54
18.37
22.48
24.79
25.45
24.75
23.08
20.84
18.38
15.97
13.76
11.81
10.13
8.71
7.58
6.79
6.43
6.51
6.96
7.58
8.08
8.16
7.59
6.35
4.58
2.55
0.52
-1.36
-3.07
-4.75
-6.54
-8.52
-10.66
-12.81
-14.81
-16.55
-18.03
-19.39
-20.83
-22.58
-24.82
-27.61
-30.85
-34.14
-36.74
-37.68
-36.07
-31.47
-24.12
-14.98
-5.39
3.34
10.41
15.63
19.23
21.64
23.16
23.93
24.03
23.60
22.91
22.23
21.74
21.48
21.31
21.10
20.73
20.20
19.55
18.82
18.00
16.97
15.57
13.65
11.16
8.15
4.88
1.68
-1.13
-3.35
-5.04
-6.42
-7.81
-9.45
-11.46
-13.75
-16.15
-18.44
-20.47
-22.17
-23.63
-25.04
-26.69
-28.72
-31.02
-33.06
-33.99
-32.90
-29.23
-23.04
-15.09
-6.59
1.20
7.34
11.50
13.91
15.06
15.51
15.66
15.68
15.60
15.44
15.28
15.26
15.49
16.00
16.68
17.33
17.82
18.11
18.25
18.29
18.17
17.66
16.51
14.53
11.74
8.40
4.87
1.53
-1.42
-4.00
-6.33
-8.59
-10.85
-13.07
-15.10
-16.82
-18.16
-19.21
-20.23
-21.50
-23.29
-25.70
-28.59
-31.57
-33.98
-35.06
-34.14
-30.85
-25.38
-18.47
-11.18
-4.52
0.87
4.90
7.90
10.31
12.44
14.33
15.84
16.82
17.30
17.47
17.64
18.01
18.64
19.35
19.88
19.99
19.60
18.78
17.70
16.50
15.26
13.94
12.43
10.65
8.63
6.44
4.18
1.91
-0.37
-2.62
-4.77
-6.65
-8.10
-9.07
-9.73
-10.37
-11.37
-13.06
-15.58
-18.84
-22.40
-25.58
-27.52
-27.49
-25.12
-20.59
-14.67
-8.36
-2.59
2.11
5.65
8.19
9.92
10.93
11.18
10.72
9.74
8.62
7.75
7.39
7.57
8.15
8.89
9.57
10.08
10.39
10.54
10.62
10.68
10.70
10.58
10.16
9.25
7.71
5.56
2.93
0.07
-2.74
-5.24
-7.35
-9.13
-10.83
-12.74
-15.14
-18.14
-21.67
-25.36
-28.57
-30.47
-30.28
-27.51
-22.22
-15.12
-7.34
-0.03
5.96
10.37
13.40
15.46
16.84
17.61
17.69
17.04
15.86
14.55
13.54
13.08
13.17
13.55
13.88
13.88
13.47
12.71
11.81
10.92
10.14
9.35
8.30
6.71
4.39
1.34
-2.15
-5.65
-8.77
-11.29
-13.24
-14.89
-16.58
-18.56
-20.93
-23.67
-26.65
-29.63
-32.20
-33.80
-33.77
-31.61
-27.19
-20.97
-13.87
-7.06
-1.47
2.44
4.77
5.96
6.55
6.86
7.04
7.12
7.12
7.21
7.62
8.56
10.10
12.07
14.14
15.89
17.06
17.50
17.32
16.75
16.00
15.21
14.31
13.13
11.41
9.01
6.01
2.69
-0.55
-3.34
-5.53
-7.21
-8.66
-10.24
-12.22
-14.72
-17.66
-20.80
-23.71
-25.79
-26.35
-24.77
-20.73
-14.41
-6.56
1.77
9.55
16.04
21.02
24.68
27.47
29.80
31.93
33.89
35.54
36.75
37.45
37.74
37.88
38.20
38.97
40.29
42.11
44.19
46.21
47.83
48.76
48.75
47.59
45.10
41.20
35.90
29.24
21.20
11.66
0.43
-12.55
-26.91
-41.79
-55.83
-67.51
-75.54
-79.20
-78.43
-73.74
-65.96
-56.08
-45.10
-33.99
-23.61
-14.53
-7.01
-0.95
3.89
7.75
10.71
12.72
13.75
13.98
13.80
13.68
13.91
14.46
15.00
15.09
14.42
13.06
11.38
9.91
9.08
9.01
9.42
9.72
9.25
7.57
4.57
0.51
-4.03
-8.39
-12.02
-14.57
-15.97
-16.44
-16.44
-16.63
-17.67
-20.10
-24.10
-29.42
-35.47
-41.50
-46.80
-50.80
-53.21
-54.03
-53.66
-52.92
-52.89
-54.55
-58.38
-64.08
-70.61
-76.60
-80.81
-82.49
-81.47
-77.86
-71.79
-63.29
-52.43
-39.55
-25.41
-11.16
1.98
13.06
21.66
27.89
32.23
35.25
37.34
38.59
38.86
37.95
35.81
32.61
28.72
24.57
20.53
16.79
13.43
10.49
8.07
6.39
5.60
5.76
6.68
8.08
9.71
11.66
14.29
18.18
23.81
31.22
39.94
49.07
57.56
64.57
69.65
72.78
74.21
74.33
73.53
72.13
70.31
68.11
65.36
61.72
56.76
50.05
41.38
30.88
19.09
6.98
-4.25
-13.40
-19.68
-22.99
-24.06
-24.32
-25.41
-28.60
-34.28
-41.86
-50.01
-57.20
-62.31
-64.82
-64.84
-62.92
-59.70
-55.79
-51.71
-47.83
-44.32
-41.02
-37.43
-32.82
-26.55
-18.35
-8.55
2.00
12.19
21.05
27.99
32.93
36.21
38.32
39.69
40.51
40.74
40.18
38.66
36.19
32.94
29.28
25.57
22.11
19.05
16.39
14.05
11.96
10.04
8.24
6.42
4.41
1.96
-1.17
-5.10
-9.77
-14.92
-20.18
-25.13
-29.52
-33.28
-36.56
-39.66
-42.82
-46.15
-49.57
-52.78
-55.33
-56.71
-56.27
-53.41
-47.59
-38.52
-26.38
-11.84
3.94
19.59
33.90
46.04
55.75
63.23
68.94
73.29
76.55
78.79
79.95
79.96
78.77
76.44
73.10
68.92
64.14
58.98
53.67
48.38
43.30
38.55
34.30
30.71
27.85
25.67
23.94
22.31
20.41
18.01
15.05
11.66
7.96
4.05
-0.15
-4.75
-9.87
-15.43
-21.10
-26.39
-30.77
-33.84
-35.44
-35.57
-34.34
-31.82
-28.04
-23.16
-17.61
-12.13
-7.73
-5.39
-5.70
-8.60
-13.21
-18.10
-21.56
-22.10
-18.80
-11.70
-1.74
9.34
19.39
26.39
28.97
26.77
20.51
11.75
2.39
-5.79
-11.54
-14.21
-13.77
-10.60
-5.39
0.97
7.39
12.74
16.07
16.82
15.02
11.33
6.78
2.44
-0.92
-3.02
-4.05
-4.44
-4.62
-4.91
-5.42
-6.25
-7.44
-9.00
-10.70
-12.02
-12.19
-10.40
-6.14
0.56
9.14
18.68
28.25
37.07
44.64
50.67
54.97
57.31
58.07
57.82
57.51
58.40
61.68
68.09
77.48
88.60
99.08
106.56
109.00
105.61
97.33
86.49
76.01
68.34
64.72
64.47
67.01
71.04
75.72
80.94
87.16
95.18
105.85
119.75
135.31
152.62
168.65
178.91
178.45
163.83
134.90
95.82
54.43
17.22
-4.82
-7.58
8.22
37.67
73.54
108.41
136.33
153.55
153.96
142.79
121.81
93.74
61.78
29.17
-1.40
-28.23
-50.74
-75.33
-96.77
-116.26
-134.64
-152.13
-168.30
-182.41
-193.82
-164.63
-141.57
-118.80
-97.62
-79.14
-63.91
-51.77
-42.00
-33.56
-25.47
-22.99
-19.49
-14.95
-9.49
-3.19
3.93
11.90
20.76
30.39
35.94
41.80
47.49
52.53
56.60
59.56
61.48
62.56
63.10
60.53
58.19
56.30
55.02
54.49
54.75
55.85
57.75
60.38
62.20
64.53
67.13
69.76
72.15
74.04
74.30
72.21
67.98
61.91
55.25
48.23
40.85
33.01
24.69
15.05
3.71
-8.81
-21.37
-33.01
-43.27
-52.06
-59.47
-65.69
-73.13
-83.19
-95.15
-106.83
-116.47
-123.52
-128.29
-131.39
-133.54
-141.35
-158.61
-183.16
-208.80
-230.46
-246.33
-256.90
-263.49
-267.60
-282.86
-317.11
-365.96
-416.83
-459.40
-490.18
-510.34
-522.82
-531.05
-557.54
-615.34
-697.63
-784.12
-857.90
-912.72
-949.87
-973.41
-988.56
-1025.15
-1100.45
-1205.44
-1313.23
-1401.12
-1460.40
-1492.47
-1502.76
-1335.74
-936.33
-388.36
150.96
576.62
868.54
1051.95
1161.25
1224.64
1256.28
1243.00
1175.18
1064.99
940.20
823.18
722.17
636.05
574.50
544.38
528.57
510.29
485.51
460.57
440.38
424.40
410.99
400.55
392.79
374.77
337.70
284.89
228.81
181.30
148.06
129.66
123.76
125.15
122.73
109.38
86.07
59.52
36.79
21.31
13.33
11.26
11.76
9.65
1.66
-11.77
-27.64
-42.13
-53.10
-59.98
-63.10
-63.58
-62.13
-58.53
-51.11
-42.20
-31.71
-19.26
-4.60
12.21
30.26
47.79
62.50
72.12
75.21
72.51
65.97
58.11
51.01
45.60
41.60
38.22
34.89
31.69
29.69
29.49
30.80
32.43
32.89
31.20
27.42
22.47
17.57
13.80
11.21
9.02
6.20
2.16
-2.79
-7.52
-10.62
-11.08
-8.72
-4.58
-0.54
1.50
0.51
-3.18
-8.04
-12.20
-14.46
-14.89
-14.84
-16.02
-19.50
-25.06
-31.54
-37.77
-43.45
-49.38
-56.76
-66.13
-76.59
-85.95
-91.73
-92.26
-87.46
-78.73
-68.22
-58.01
-49.56
-43.55
-39.95
-38.25
-37.60
-37.07
-35.93
-33.93
-31.49
-29.64
-29.65
-32.61
-38.94
-48.11
-58.69
-68.62
-75.73
-78.27
-75.48
-67.65
-56.00
-42.12
-27.33
-12.32
2.96
18.89
35.62
52.68
68.78
82.19
91.36
95.42
94.45
89.30
81.22
71.54
61.62
52.96
47.33
46.61
52.36
65.16
84.17
107.15
130.91
152.11
168.02
176.87
178.06
172.04
160.30
145.19
129.66
116.73
108.60
105.97
107.67
111.09
113.14
111.51
105.53
96.31
86.21
77.74
72.71
71.61
73.64
77.14
80.17
81.10
78.98
73.63
65.43
54.96
42.79
29.41
15.28
0.70
-14.36
-30.54
-48.92
-70.47
-95.01
-120.50
-142.87
-157.17
-159.24
-147.46
-123.55
-92.06
-58.84
-29.10
-6.10
9.28
18.00
22.03
23.36
23.62
23.97
25.07
27.21
30.29
33.87
37.34
40.28
42.67
45.06
48.37
53.57
61.15
70.78
81.25
90.75
97.34
99.69
97.63
92.32
85.95
80.83
78.35
78.26
78.51
75.96
67.56
51.62
28.62
1.37
-25.61
-47.32
-59.58
-60.18
-49.40
-29.86
-5.66
18.89
40.38
57.14
69.02
76.85
81.37
82.70
80.26
73.12
60.61
42.55
19.31
-8.12
-38.12
-68.25
-95.20
-115.42
-125.97
-125.68
-115.75
-99.57
-81.68
-66.34
-56.42
-52.86
-54.84
-60.49
-67.50
-73.78
-77.85
-79.07
-77.73
-74.75
-71.30
-68.19
-65.43
-62.09
-56.52
-46.95
-32.14
-11.93
12.61
39.33
65.48
88.27
105.42
115.66
119.07
117.14
112.48
108.12
106.59
109.07
114.95
122.15
127.88
129.79
126.78
119.34
109.18
98.36
88.49
80.16
73.03
66.19
58.89
51.12
43.78
38.41
36.53
38.83
44.68
52.06
57.89
58.57
50.64
31.64
1.10
-38.79
-83.07
-124.92
-157.48
-175.95
-179.03
-169.05
-150.71
-129.21
-108.55
-90.84
-76.61
-65.54
-57.11
-50.63
-45.17
-39.40
-31.99
-22.12
-10.00
3.15
15.55
25.56
32.48
36.92
40.70
46.22
55.65
70.18
89.52
111.85
134.17
152.94
164.75
167.15
159.25
141.99
118.03
91.01
64.62
41.68
23.51
10.01
0.27
-6.78
-11.74
-14.65
-15.35
-13.82
-10.62
-6.86
-4.01
-3.57
-6.48
-12.85
-21.76
-31.54
-40.33
-46.68
-49.97
-50.53
-49.32
-47.63
-46.84
-48.26
-53.00
-61.67
-73.96
-88.34
-102.30
-112.96
-118.03
-116.63
-109.44
-98.36
-85.69
-73.40
-62.74
-54.18
-47.66
-42.78
-39.06
-35.96
-32.94
-29.50
-25.18
-19.60
-12.53
-3.91
6.13
17.24
29.04
41.25
53.92
67.45
82.38
99.01
116.88
134.50
149.43
158.98
161.07
155.12
142.37
125.48
107.62
91.16
76.97
64.28
51.50
37.25
21.36
5.03
-9.67
-20.74
-27.18
-29.29
-28.43
-26.30
-24.32
-23.30
-23.61
-25.41
-28.97
-34.55
-42.17
-51.41
-61.30
-70.61
-78.19
-83.28
-85.61
-85.21
-82.28
-77.03
-69.89
-61.86
-54.62
-50.34
-50.98
-57.33
-68.45
-81.70
-93.54
-100.69
-101.24
-95.19
-84.20
-70.73
-57.11
-44.83
-34.41
-25.66
-18.21
-11.85
-6.61
-2.60
0.27
2.44
4.71
7.91
12.60
18.79
26.02
33.49
40.37
46.02
50.14
52.73
54.14
54.93
55.81
57.41
60.15
64.02
68.50
72.71
75.53
76.05
73.89
69.47
63.95
58.87
55.52
54.36
54.66
54.69
52.35
45.95
34.84
19.58
1.73
-16.80
-34.20
-49.13
-60.90
-69.41
-75.05
-78.54
-80.74
-82.36
-83.81
-85.09
-85.80
-85.32
-83.09
-78.76
-72.40
-64.46
-55.70
-47.06
-39.35
-33.13
-28.54
-25.33
-23.04
-21.16
-19.23
-16.93
-14.02
-10.35
-5.84
-0.62
5.02
10.62
15.69
19.89
23.08
25.33
26.83
27.75
28.20
28.20
27.77
26.97
25.94
24.86
23.84
22.91
22.00
20.99
19.81
18.43
16.90
15.27
13.59
11.90
10.28
8.78
7.45
6.23
5.02
3.71
2.31
0.93
-0.21
-0.94
-1.23
-1.25
-1.29
-1.63
-2.37
-3.42
-4.52
-5.35
-5.56
-4.90
-3.31
-0.92
1.91
4.69
6.99
8.55
9.34
9.55
9.36
8.89
8.13
7.01
5.52
3.76
1.94
0.30
-0.98
-1.81
-2.23
-2.31
-2.18
-1.94
-1.66
-1.34
-1.02
-0.73
-0.57
-0.63
-0.99
-1.60
-2.33
-3.01
-3.56
-4.04
-4.58
-5.34
-6.37
-7.57
-8.82
-10.02
-11.16
-12.25
-13.24
-13.93
-14.01
-13.20
-11.36
-8.66
-5.53
-2.47
0.08
1.88
2.96
3.49
3.73
3.83
3.91
3.94
3.90
3.77
3.60
3.43
3.29
3.13
2.85
2.37
1.64
0.75
-0.18
-0.96
-1.48
-1.69
-1.66
-1.61
-1.78
-2.36
-3.38
-4.69
-6.02
-7.12
-7.91
-8.47
-9.01
-9.71
-10.66
-11.78
-12.94
-13.98
-14.74
-15.03
-14.57
-13.12
-10.55
-7.05
-3.08
0.77
3.96
6.20
7.47
7.94
7.85
7.36
6.58
5.56
4.34
3.04
1.81
0.82
0.24
0.12
0.36
0.73
0.92
0.71
0.08
-0.77
-1.52
-1.92
-1.92
-1.74
-1.71
-2.12
-3.06
-4.39
-5.86
-7.23
-8.34
-9.18
-9.84
-10.39
-10.91
-11.42
-11.93
-12.43
-12.90
-13.19
-13.05
-12.15
-10.23
-7.26
-3.50
0.48
4.06
6.75
8.39
9.11
9.20
8.96
8.54
7.94
7.15
6.21
5.23
4.39
3.79
3.45
3.26
3.08
2.79
2.31
1.67
0.94
0.21
-0.49
-1.18
-1.98
-3.03
-4.39
-6.03
-7.84
-9.59
-11.12
-12.30
-13.08
-13.52
-13.78
-14.04
-14.45
-15.04
-15.60
-15.75
-15.04
-13.19
-10.22
-6.49
-2.57
1.03
4.01
6.33
8.10
9.39
10.20
10.41
9.96
8.88
7.40
5.85
4.54
3.68
3.29
3.26
3.37
3.42
3.24
2.84
2.26
1.61
0.96
0.30
-0.41
-1.21
-2.10
-3.03
-3.87
-4.51
-4.86
-4.91
-4.72
-4.44
-4.26
-4.37
-4.91
-5.91
-7.25
-8.72
-10.00
-10.76
-10.73
-9.77
-7.94
-5.51
-2.87
-0.42
1.59
3.14
4.34
5.36
6.24
6.92
7.27
7.21
6.78
6.14
5.48
4.95
4.57
4.31
4.08
3.81
3.48
3.07
2.58
2.01
1.40
0.82
0.32
-0.02
-0.21
-0.31
-0.44
-0.70
-1.14
-1.67
-2.16
-2.49
-2.60
-2.58
-2.56
-2.69
-3.03
-3.60
-4.37
-5.36
-6.57
-7.88
-9.01
-9.53
-9.04
-7.36
-4.70
-1.57
1.44
3.84
5.47
6.43
6.94
7.20
7.32
7.32
7.19
6.92
6.53
6.02
5.40
4.70
3.98
3.31
2.75
2.29
1.93
1.62
1.34
1.08
0.81
0.47
-0.07
-0.87
-1.95
-3.20
-4.41
-5.37
-5.97
-6.24
-6.35
-6.51
-6.87
-7.42
-8.01
-8.46
-8.72
-8.89
-9.14
-9.52
-9.82
-9.63
-8.53
-6.36
-3.40
-0.27
2.41
4.25
5.27
5.76
6.06
6.32
6.49
6.38
5.87
5.02
4.07
3.29
2.86
2.82
3.05
3.33
3.44
3.17
2.47
1.43
0.28
-0.69
-1.30
-1.53
-1.57
-1.64
-1.92
-2.37
-2.86
-3.23
-3.43
-3.60
-3.96
-4.62
-5.54
-6.51
-7.29
-7.81
-8.16
-8.57
-9.21
-9.97
-10.49
-10.33
-9.17
-7.05
-4.33
-1.57
0.80
2.60
3.94
5.09
6.25
7.43
8.44
9.06
9.20
8.94
8.49
8.06
7.73
7.45
7.12
6.67
6.11
5.58
5.20
5.01
4.94
4.82
4.51
3.88
2.95
1.77
0.46
-0.89
-2.22
-3.46
-4.58
-5.52
-6.23
-6.68
-6.91
-6.95
-6.88
-6.83
-6.95
-7.41
-8.29
-9.57
-11.02
-12.23
-12.76
-12.26
-10.71
-8.35
-5.61
-2.92
-0.57
1.35
2.83
3.95
4.74
5.24
5.44
5.40
5.18
4.90
4.68
4.67
4.97
5.58
6.37
7.15
7.74
8.10
8.28
8.44
8.64
8.81
8.77
8.35
7.53
6.45
5.31
4.26
3.30
2.31
1.17
-0.18
-1.68
-3.18
-4.53
-5.66
-6.57
-7.36
-8.18
-9.18
-10.49
-12.07
-13.72
-15.03
-15.54
-14.88
-12.95
-9.99
-6.42
-2.77
0.56
3.34
5.47
6.95
7.76
7.94
7.60
7.00
6.48
6.31
6.57
7.13
7.68
7.93
7.70
7.03
6.14
5.29
4.69
4.39
4.28
4.20
4.04
3.79
3.61
3.75
4.41
5.65
7.25
8.82
9.92
10.24
9.83
9.03
8.43
8.54
9.65
11.60
13.93
16.02
17.45
18.23
18.85
20.14
22.93
27.60
33.92
41.03
47.83
53.31
56.97
58.88
59.75
60.79
63.59
69.58
79.40
91.97
103.96
110.08
104.61
83.60
46.91
-1.16
-52.82
-99.15
-132.75
-149.71
-150.31
-138.02
-117.85
-94.56
-71.63
-50.91
-32.83
-16.96
-2.74
9.19
17.27
19.62
15.33
5.51
-6.61
-16.64
-20.50
-15.65
-2.52
16.38
37.34
56.48
70.00
73.99
65.03
41.69
6.32
-35.56
-75.95
-107.44
-126.06
-132.94
-133.64
-135.28
-143.09
-151.99
-154.47
-143.96
-120.22
-89.32
-58.89
-33.74
-14.59
0.78
15.23
29.37
41.88
50.49
53.86
52.55
48.70
45.08
44.02
46.74
52.31
58.62
63.22
64.87
63.71
60.98
58.08
56.08
55.34
54.96
53.59
49.41
42.12
32.25
20.87
8.93
-2.96
-14.54
-26.05
-36.21
-45.65
-54.13
-61.06
-65.82
-68.54
-69.84
-70.63
-71.80
-73.76
-76.49
-79.16
-80.92
-81.11
-79.97
-78.16
-76.48
-75.62
-76.03
-78.10
-81.31
-85.29
-86.71
-82.38
-69.85
-48.67
-21.22
7.86
33.08
50.54
59.05
60.35
57.44
53.24
49.41
46.19
43.08
39.61
35.97
32.65
30.14
28.20
26.29
23.73
20.03
15.17
9.53
3.90
-0.94
-4.28
-5.91
-5.95
-4.94
-3.67
-2.95
-3.54
-5.84
-9.96
-15.67
-22.47
-29.49
-35.59
-39.50
-40.00
-36.98
-30.80
-22.76
-14.83
-8.99
-6.59
-7.96
-12.42
-18.68
-25.45
-31.62
-36.58
-40.03
-41.82
-41.86
-40.18
-37.05
-32.96
-28.50
-24.03
-19.74
-15.71
-12.14
-9.55
-8.72
-10.45
-14.98
-21.79
-29.49
-36.35
-40.89
-42.37
-41.06
-37.85
-33.84
-29.78
-25.84
-21.60
-16.47
-9.98
-2.11
6.68
15.67
24.17
31.76
38.40
44.19
49.17
53.15
55.77
56.89
56.97
57.15
58.89
63.10
69.47
76.17
80.47
79.92
73.53
62.15
48.00
33.42
19.79
7.13
-5.30
-18.02
-30.50
-41.17
-48.20
-50.58
-48.79
-44.73
-40.93
-39.43
-41.10
-45.55
-51.62
-58.15
-64.41
-70.07
-74.72
-77.52
-77.12
-72.19
-62.13
-47.55
-30.25
-12.68
2.86
14.79
22.39
25.66
25.05
21.44
16.15
11.04
8.07
8.80
13.70
21.90
31.53
40.41
46.89
50.35
51.20
50.46
49.16
47.94
46.96
46.01
44.92
43.70
42.62
42.08
42.37
43.54
45.33
47.28
48.92
49.76
49.32
46.95
41.88
33.39
21.24
6.07
-10.46
-26.01
-38.21
-45.44
-47.43
-45.12
-40.27
-34.54
-29.05
-24.11
-19.52
-15.02
-10.63
-6.72
-3.84
-2.46
-2.70
-4.30
-6.82
-9.83
-13.04
-16.23
-19.12
-21.28
-22.26
-21.87
-20.36
-18.34
-16.51
-15.13
-13.82
-11.65
-7.68
-1.62
5.80
13.03
18.43
21.08
21.28
20.46
20.50
22.82
27.84
34.90
42.76
50.34
57.27
64.00
71.49
80.41
90.47
100.09
106.53
106.67
98.23
80.87
56.75
30.23
6.54
-9.93
-17.06
-15.58
-8.43
0.54
8.05
12.24
12.68
9.89
4.59
-2.51
-10.75
-19.23
-26.75
-32.00
-34.00
-32.60
-28.65
-23.96
-20.72
-20.68
-24.38
-30.75
-37.45
-41.78
-41.86
-37.48
-30.20
-22.56
-16.91
-14.47
-15.03
-17.28
-19.49
-20.18
-18.21
-12.85
-3.58
9.81
27.10
47.54
69.94
93.05
115.93
138.19
159.80
180.65
199.84
215.37
224.14
222.68
