1660751459.00
64.000000
-0.00
-0.00
-0.00
-0.00
-0.00
-0.00
-0.00
-0.00
-0.00
-0.00
0.00
0.01
0.01
-0.00
-0.03
-0.05
-0.05
0.00
0.13
0.36
0.66
1.01
1.37
1.72
2.06
2.40
2.79
3.24
3.80
4.42
5.06
5.66
6.20
6.68
7.15
7.68
8.31
9.14
10.09
11.04
11.88
12.56
13.14
13.76
14.65
15.96
17.91
20.32
22.90
25.38
27.58
29.57
31.68
34.32
37.81
42.54
48.15
54.10
59.83
64.97
69.58
74.14
79.34
85.71
93.76
103.00
112.62
121.73
129.77
136.75
143.30
150.75
157.77
166.64
177.95
191.79
206.97
220.57
228.25
225.36
208.53
176.87
132.76
80.05
23.07
-34.94
-92.44
-149.16
-205.23
-260.37
-313.74
-363.87
-409.84
-450.91
-486.51
-515.74
-537.21
-549.19
-549.92
-538.35
-514.25
-478.81
-434.12
-382.79
-327.43
-270.27
-213.05
-157.06
-103.36
-52.83
-6.44
34.94
70.69
100.57
124.73
143.66
158.00
168.42
175.49
179.64
181.19
180.46
177.80
173.56
168.10
161.69
154.55
146.83
138.69
130.36
122.07
114.04
106.40
99.09
91.90
84.58
76.99
69.17
61.41
54.13
47.70
42.23
37.51
33.07
28.37
23.11
17.33
11.50
6.22
2.01
-0.99
-3.05
-4.73
-6.62
-9.16
-12.60
-17.01
-22.13
-27.22
-30.84
-31.17
-26.63
-16.75
-2.68
13.00
27.20
37.49
42.94
44.21
42.81
40.19
37.20
33.98
30.39
26.48
22.71
19.80
18.39
18.59
19.91
21.36
21.79
20.52
17.63
13.93
10.61
8.63
8.26
8.97
9.78
9.80
8.70
6.76
4.63
2.93
1.94
1.50
1.26
0.84
0.06
-0.98
-2.00
-2.69
-2.90
-2.72
-2.41
-2.29
-2.50
-3.00
-3.53
-3.83
-3.78
-3.41
-2.91
-2.50
-2.28
-2.25
-2.31
-2.31
-2.12
-1.68
-0.96
-0.03
0.98
1.95
2.83
3.59
4.27
4.98
5.84
7.06
8.80
11.14
13.97
16.87
19.27
20.55
20.39
18.81
16.18
13.10
9.85
6.59
3.30
-0.07
-3.44
-6.63
-9.35
-11.43
-12.82
-13.66
-14.14
-14.40
-14.48
-14.35
-13.94
-13.28
-12.45
-11.62
-10.91
-10.37
-9.92
-9.45
-8.89
-8.22
-7.47
-6.70
-5.92
-5.14
-4.35
-3.61
-2.99
-2.61
-2.54
-2.74
-3.04
-3.17
-2.86
-1.96
-0.56
1.06
2.52
3.52
3.97
3.96
3.78
3.64
3.66
3.82
3.98
4.06
4.00
3.81
3.50
3.09
2.60
2.04
1.44
0.82
0.20
-0.40
-0.97
-1.47
-1.89
-2.13
-2.27
-2.42
-2.76
-3.36
-4.15
-4.91
-5.35
-5.28
-4.72
-3.90
-3.20
-2.90
-3.16
-3.95
-5.10
-6.40
-7.60
-8.47
-8.78
-8.32
-7.01
-4.97
-2.49
0.01
2.15
3.76
4.88
5.69
6.39
7.08
7.74
8.26
8.55
8.58
8.44
8.24
8.12
8.12
8.22
8.33
8.34
8.14
7.75
7.22
6.67
6.14
5.55
4.72
3.43
1.59
-0.66
-2.98
-4.99
-6.50
-7.55
-8.41
-9.34
-10.40
-11.42
-12.15
-12.48
-12.57
-12.81
-13.58
-14.93
-16.54
-17.78
-18.12
-17.36
-15.71
-13.67
-11.71
-10.03
-8.54
-6.95
-4.98
-2.51
0.36
3.32
6.01
8.11
9.37
9.68
9.08
7.75
5.99
4.21
2.73
1.74
1.22
1.02
0.96
0.99
1.21
1.81
2.90
4.36
5.83
6.84
6.99
6.05
4.11
1.43
-1.60
-4.57
-7.17
-9.21
-10.65
-11.53
-11.88
-11.67
-10.76
-8.98
-6.28
-2.87
0.81
4.18
6.71
8.12
8.44
7.96
7.06
6.15
5.44
5.02
4.86
4.91
5.13
5.56
6.24
7.21
8.41
9.70
10.90
11.85
12.50
12.86
12.98
12.85
12.36
11.30
9.55
7.12
4.22
1.22
-1.52
-3.76
-5.43
-6.60
-7.34
-7.66
-7.57
-7.09
-6.36
-5.64
-5.18
-5.12
-5.38
-5.71
-5.81
-5.51
-4.80
-3.89
-3.02
-2.39
-2.04
-1.85
-1.63
-1.16
-0.33
0.84
2.24
3.68
5.02
6.17
7.13
7.92
8.52
8.77
8.45
7.40
5.63
3.42
1.20
-0.63
-1.90
-2.69
-3.18
-3.54
-3.73
-3.64
-3.17
-2.40
-1.58
-0.94
-0.66
-0.75
-1.16
-1.90
-3.06
-4.74
-6.96
-9.58
-12.32
-14.80
-16.66
-17.53
-17.15
-15.34
-12.22
-8.17
-3.86
0.03
2.94
4.72
5.50
5.64
5.47
5.22
5.02
4.92
5.00
5.33
5.98
6.97
8.17
9.38
10.29
10.61
10.06
8.60
6.43
3.93
1.62
-0.12
-1.14
-1.58
-1.75
-1.94
-2.31
-2.77
-3.09
-3.07
-2.62
-1.85
-0.99
-0.33
-0.10
-0.48
-1.55
-3.27
-5.48
-7.89
-10.10
-11.75
-12.52
-12.26
-10.92
-8.57
-5.34
-1.42
2.89
7.20
11.04
13.97
15.68
16.06
15.21
13.44
11.17
8.82
6.77
5.26
4.36
4.02
4.11
4.48
5.04
5.77
6.70
7.78
8.97
10.08
10.81
10.79
9.72
7.53
4.48
1.14
-1.74
-3.60
-4.26
-3.98
-3.26
-2.58
-2.09
-1.60
-0.78
0.59
2.29
3.72
4.08
2.77
-0.29
-4.61
-9.20
-12.99
-15.16
-15.41
-13.91
-11.13
-7.60
-3.75
0.10
3.66
6.60
8.55
9.15
8.29
6.19
3.38
0.65
-1.27
-1.95
-1.40
0.01
1.71
3.23
4.35
5.06
5.43
5.50
5.20
4.45
3.26
1.78
0.21
-1.27
-2.56
-3.62
-4.45
-4.95
-5.08
-4.88
-4.48
-4.05
-3.64
-3.15
-2.35
-1.07
0.63
2.48
4.03
4.91
4.99
4.44
3.68
3.28
3.72
5.26
7.87
11.23
14.89
18.43
21.57
24.31
26.86
29.53
32.64
36.35
40.60
45.18
49.65
53.55
56.31
57.43
56.46
53.09
47.17
38.83
28.44
16.66
4.41
-7.30
-17.44
-25.21
-30.13
-32.20
-31.83
-29.68
-26.44
-22.55
-18.18
-13.27
-7.69
-1.49
5.12
11.77
18.21
24.39
30.57
37.15
44.52
52.93
62.66
74.21
88.45
106.30
127.98
152.23
175.97
194.72
203.96
200.42
182.89
151.96
109.27
56.90
-2.33
-64.24
-122.83
-171.15
-203.31
-216.72
-213.24
-198.47
-179.26
-160.92
-145.68
-132.77
-120.03
-105.65
-89.04
-70.65
-51.19
-31.25
-11.64
6.05
19.27
25.30
22.53
11.78
-3.59
-18.71
-29.15
-32.52
-29.01
-20.59
-9.64
2.25
14.54
27.29
40.42
53.61
66.63
80.14
95.77
115.32
139.38
166.08
190.87
207.72
211.02
197.41
166.41
120.12
62.42
-1.69
-66.35
-125.19
-172.17
-202.90
-216.07
-213.89
-201.29
-183.99
-166.48
-150.93
-137.36
-124.82
-112.49
-100.39
-89.24
-80.03
-73.47
-69.82
-68.85
-69.94
-72.12
-74.32
-75.45
-74.69
-71.52
-65.90
-58.26
-49.37
-40.19
-31.60
-24.10
-17.67
-11.79
-5.61
1.72
10.82
21.98
35.36
51.15
69.66
91.26
116.14
144.06
174.26
205.45
235.85
263.34
285.43
299.58
303.59
296.13
277.05
247.35
208.65
162.31
109.18
49.91
-13.98
-79.11
-140.22
-191.46
-228.42
-249.83
-257.89
-257.01
-251.67
-244.69
-236.73
-227.18
-215.56
-202.55
-189.85
-179.29
-171.75
-166.71
-162.56
-157.45
-150.06
-140.06
-128.10
-115.38
-103.15
-92.33
-83.23
-75.62
-68.94
-62.66
-56.48
-50.37
-44.42
-38.62
-32.76
-26.50
-19.63
-12.21
-4.66
2.43
8.57
13.57
17.65
21.32
25.20
29.79
35.33
41.83
49.04
56.62
64.20
71.52
78.42
84.88
90.92
96.52
101.47
105.33
107.39
106.87
103.14
96.00
85.77
73.31
59.72
46.07
33.11
21.23
10.53
0.99
-7.36
-14.42
-20.11
-24.46
-27.70
-30.22
-32.39
-34.45
-36.39
-38.01
-39.00
-39.09
-38.14
-36.18
-33.38
-29.95
-26.12
-22.07
-17.96
-13.96
-10.24
-6.93
-4.16
-1.98
-0.36
0.88
2.00
3.24
4.76
6.58
8.56
10.52
12.28
13.77
15.00
16.01
16.87
17.63
18.30
18.82
19.11
19.12
18.84
18.36
17.83
17.42
17.21
17.10
16.88
16.26
15.13
13.58
11.92
10.52
9.65
9.37
9.51
9.83
10.08
10.17
10.12
10.01
9.92
9.82
9.70
9.50
9.25
8.95
8.63
8.26
7.85
7.38
6.92
6.54
6.26
6.07
5.92
5.79
5.83
6.28
7.48
9.66
12.80
16.58
20.43
23.68
25.78
26.45
25.72
23.90
21.41
18.69
16.07
13.75
11.83
10.41
9.64
9.76
11.02
13.56
17.27
21.69
26.05
29.40
30.77
29.43
25.08
17.94
8.82
-1.03
-10.14
-17.24
-21.57
-23.12
-22.46
-20.47
-17.92
-15.17
-12.21
-8.83
-5.02
-1.06
2.53
5.18
6.53
6.57
5.58
4.05
2.49
1.32
0.76
0.86
1.47
2.40
3.47
4.62
5.84
7.11
8.31
9.15
9.32
8.55
6.85
4.46
1.91
-0.25
-1.63
-2.18
-2.21
-2.24
-2.64
-3.48
-4.44
-5.01
-4.86
-4.02
-3.01
-2.55
-3.22
-5.15
-7.98
-11.05
-13.73
-15.69
-17.00
-17.90
-18.50
-18.57
-17.59
-14.96
-10.42
-4.31
2.39
8.35
12.42
14.04
13.49
11.67
9.74
8.63
8.65
9.58
10.86
12.03
13.05
14.31
16.43
19.80
24.23
28.81
32.15
32.85
29.99
23.64
14.95
5.84
-1.59
-5.87
-6.65
-4.78
-1.83
0.71
2.09
2.49
2.68
3.39
4.70
6.01
6.38
5.01
1.71
-3.03
-8.31
-13.17
-16.90
-19.19
-20.06
-19.70
-18.27
-15.80
-12.12
-7.09
-0.76
6.42
13.66
19.98
24.51
26.70
26.33
23.57
18.91
13.21
7.61
3.23
0.87
0.64
1.97
4.00
6.07
8.19
10.94
15.00
20.58
27.01
32.94
36.83
37.43
34.18
27.31
17.84
7.39
-2.04
-8.63
-11.30
-10.14
-6.39
-1.77
2.38
5.79
9.35
14.50
22.34
32.81
44.47
54.71
60.44
58.89
48.53
29.85
5.74
-18.89
-38.39
-48.22
-46.58
-35.07
-17.89
0.01
14.95
25.70
33.33
40.09
47.92
57.55
68.36
78.78
86.75
89.97
85.93
72.35
48.07
14.17
-25.41
-64.39
-95.88
-114.67
-119.01
-110.97
-95.19
-76.94
-60.22
-46.98
-37.37
-30.71
-26.22
-23.43
-21.93
-21.15
-20.33
-18.83
-16.44
-13.63
-11.32
-10.46
-11.57
-14.44
-18.15
-21.42
-23.14
-22.68
-20.22
-16.52
-12.67
-9.61
-7.78
-7.03
-6.76
-6.24
-5.02
-3.02
-0.62
1.55
2.92
3.14
2.19
0.35
-1.98
-4.42
-6.71
-8.73
-10.43
-11.79
-12.74
-13.23
-13.30
-13.05
-12.64
-12.21
-11.80
-11.32
-10.60
-9.50
-7.98
-6.12
-4.05
-1.91
0.25
2.41
4.61
6.88
9.20
11.53
13.70
15.58
17.10
18.40
19.80
21.80
24.90
29.49
35.62
42.99
50.88
58.22
63.65
65.84
63.68
56.64
44.88
29.34
11.54
-6.73
-23.79
-38.33
-49.67
-57.75
-62.91
-65.71
-66.66
-66.13
-64.41
-61.82
-58.76
-55.65
-52.80
-50.26
-47.85
-45.28
-42.38
-39.17
-35.84
-32.63
-29.63
-26.79
-23.96
-21.06
-18.09
-15.20
-12.52
-10.18
-8.17
-6.40
-4.64
-2.72
-0.50
1.97
4.51
6.79
8.49
9.44
9.70
9.57
9.48
9.81
10.75
12.29
14.20
16.18
18.03
19.64
20.94
21.90
22.44
22.40
21.67
20.23
18.25
16.02
13.90
12.14
10.89
10.14
9.77
9.65
9.67
9.75
9.87
9.97
10.04
10.03
9.92
9.73
9.47
9.15
8.74
8.21
7.46
6.49
5.33
4.03
2.67
1.21
-0.42
-2.37
-4.73
-7.46
-10.38
-13.21
-15.66
-17.58
-18.98
-20.04
-21.01
-22.09
-23.36
-24.74
-25.94
-26.61
-26.36
-24.92
-22.23
-18.47
-14.04
-9.48
-5.23
-1.60
1.41
3.93
6.17
8.27
10.29
12.19
13.96
15.61
17.23
18.87
20.54
22.19
23.71
24.95
25.79
26.10
25.80
24.83
23.22
21.09
18.62
16.00
13.40
10.96
8.76
6.86
5.23
3.83
2.59
1.45
0.40
-0.49
-1.11
-1.31
-1.00
-0.11
1.35
3.34
5.74
8.43
11.29
14.18
16.96
19.42
21.27
22.22
22.03
20.65
18.29
15.40
12.55
10.28
9.00
8.89
9.83
11.44
13.21
14.57
15.20
15.04
14.31
13.38
12.47
11.58
10.50
9.02
7.17
5.36
4.20
4.26
5.73
8.24
11.11
13.59
15.23
16.04
16.45
17.11
18.77
22.22
28.18
36.90
47.54
57.86
64.42
63.82
54.15
36.18
13.27
-9.82
-28.72
-40.88
-45.91
-44.99
-39.89
-32.32
-23.73
-15.54
-9.06
-5.09
-3.48
-2.98
-1.68
2.07
9.04
18.77
29.96
41.06
50.85
58.68
64.56
68.83
71.90
74.01
75.04
74.48
71.60
65.59
55.95
42.55
25.80
6.50
-14.18
-34.88
-54.08
-70.31
-82.39
-89.64
-92.16
-90.79
-86.88
-81.88
-76.92
-72.61
-69.05
-66.05
-63.36
-60.82
-58.38
-55.96
-53.44
-50.65
-47.53
-44.24
-41.11
-38.56
-36.84
-35.89
-35.31
-34.55
-33.18
-31.06
-28.43
-25.75
-23.45
-21.76
-20.66
-19.92
-19.29
-18.55
-17.55
-16.19
-14.34
-11.90
-8.87
-5.35
-1.56
2.28
5.98
9.52
12.88
16.08
19.06
21.73
23.99
25.76
27.05
27.84
28.13
27.86
27.03
25.64
23.79
21.60
19.28
17.09
15.34
14.33
14.21
14.94
16.15
17.32
17.88
17.45
15.99
13.76
11.23
8.83
6.76
5.02
3.43
1.80
0.06
-1.77
-3.58
-5.30
-6.98
-8.74
-10.75
-13.10
-15.70
-18.27
-20.46
-21.92
-22.49
-22.22
-21.29
-19.88
-18.00
-15.54
-12.31
-8.25
-3.56
1.38
6.10
10.18
13.34
15.43
16.42
16.36
15.43
13.89
12.04
10.17
8.54
7.42
7.04
7.67
9.45
12.24
15.61
18.87
21.39
22.79
23.15
22.86
22.34
21.91
21.56
21.12
20.35
19.11
17.43
15.38
13.01
10.27
6.98
2.98
-1.72
-6.82
-11.82
-16.07
-19.01
-20.17
-19.34
-16.57
-12.23
-7.02
-1.88
2.23
4.65
5.25
4.46
3.03
1.66
0.70
0.10
-0.40
-0.99
-1.56
-1.76
-1.25
0.10
2.06
4.18
5.97
7.12
7.65
7.78
7.85
8.16
8.87
9.98
11.42
13.07
14.85
16.69
18.48
20.10
21.41
22.29
22.59
22.17
20.89
18.60
15.21
10.74
5.34
-0.80
-7.47
-14.59
-22.11
-29.95
-37.78
-44.99
-50.67
-53.89
-54.06
-51.18
-45.90
-39.35
-32.79
-27.15
-22.80
-19.65
-17.27
-15.34
-13.72
-12.55
-11.99
-12.07
-12.58
-13.11
-13.28
-12.86
-11.83
-10.40
-8.76
-7.10
-5.53
-4.08
-2.81
-1.76
-0.93
-0.31
0.19
0.61
1.00
1.36
1.75
2.26
3.04
4.19
5.69
7.33
8.83
9.89
10.37
10.35
10.16
10.19
10.80
12.18
14.30
16.93
19.75
22.35
24.29
25.23
25.00
23.72
21.85
20.05
18.99
19.08
20.36
22.60
25.45
28.61
31.86
35.05
37.95
40.26
41.67
42.04
41.45
40.12
38.35
36.32
34.04
31.36
28.07
23.95
18.98
13.40
7.68
2.47
-1.67
-4.44
-5.86
-6.22
-5.87
-5.08
-3.94
-2.53
-0.96
0.55
1.71
2.30
2.23
1.57
0.45
-1.05
-2.85
-4.87
-6.97
-8.92
-10.50
-11.57
-12.15
-12.38
-12.33
-11.97
-11.10
-9.50
-7.11
-4.20
-1.24
1.20
2.73
3.32
3.25
3.01
3.06
3.70
5.00
6.88
9.11
11.35
13.24
14.41
14.68
14.15
13.21
12.51
12.68
14.04
16.37
19.00
20.97
21.40
19.91
16.78
12.87
9.27
6.84
5.81
5.65
5.38
4.10
1.57
-1.57
-3.96
-4.27
-1.95
2.24
6.49
8.70
7.50
3.03
-3.07
-8.25
-9.87
-6.04
3.78
18.45
34.84
47.86
51.29
39.54
10.11
-34.51
-86.77
-136.16
-172.94
-191.68
-192.78
-181.43
-164.55
-147.71
-133.49
-121.83
-111.68
-102.53
-94.89
-89.59
-86.72
-85.07
-82.54
-77.25
-68.63
-57.75
-46.83
-38.27
-33.42
-32.15
-32.92
-33.62
-32.50
-28.86
-23.26
-17.12
-12.04
-9.15
-8.69
-9.99
-11.87
-13.05
-12.66
-10.48
-6.85
-2.42
2.10
6.28
9.98
13.29
16.37
19.33
22.16
24.77
27.07
29.02
30.66
32.09
33.40
34.67
35.94
37.17
38.30
39.27
40.04
40.64
41.12
41.58
42.04
42.44
42.56
42.15
40.98
39.00
36.33
33.20
29.86
26.43
22.91
19.24
15.44
11.63
8.00
4.74
1.91
-0.50
-2.60
-4.50
-6.30
-8.09
-9.91
-11.78
-13.57
-14.99
-15.67
-15.30
-13.78
-11.31
-8.35
-5.43
-2.97
-1.17
0.00
0.72
1.17
1.44
1.57
1.55
1.44
1.36
1.48
1.90
2.70
3.81
5.14
6.54
7.86
9.01
9.93
10.65
11.18
11.52
11.63
11.47
10.96
10.14
9.12
8.13
7.39
7.05
7.15
7.51
7.82
7.71
6.90
5.32
3.19
0.95
-0.84
-1.70
-1.41
0.00
2.32
5.21
8.44
11.87
15.54
19.64
24.38
29.82
35.76
41.68
46.76
50.16
51.23
49.81
46.27
41.43
36.21
31.40
27.37
24.04
21.04
17.94
14.58
11.13
8.08
5.95
5.06
5.29
6.19
7.15
7.68
7.62
7.17
6.66
6.36
6.33
6.30
5.88
4.81
3.10
1.15
-0.44
-1.10
-0.60
0.87
2.65
3.99
4.32
3.49
1.82
-0.09
-1.64
-2.38
-2.09
-0.68
1.83
5.19
8.78
11.66
12.81
11.54
7.90
2.81
-2.38
-6.38
-8.55
-8.94
-8.09
-6.48
-4.22
-0.93
4.06
11.34
21.12
32.85
44.95
55.23
61.51
62.69
59.46
54.39
51.12
53.02
61.78
76.66
94.99
113.27
128.32
137.99
141.26
138.21
129.94
118.41
105.81
94.16
84.56
76.56
68.08
56.22
38.64
14.89
-13.18
-42.69
-70.07
-91.90
-105.73
-110.82
-108.13
-99.64
-87.40
-72.95
-58.75
-46.48
-36.37
-27.28
-17.89
-7.60
3.48
14.94
26.17
33.73
34.23
25.95
9.61
-12.66
-38.40
-65.04
-90.11
-111.91
-133.39
-158.48
-189.37
-225.11
-263.00
-300.31
-334.92
-365.55
-371.05
-338.32
-270.67
-187.20
-107.72
-42.37
7.74
45.60
74.82
98.09
113.94
120.83
119.45
113.37
106.63
101.80
99.70
100.07
101.91
101.89
97.52
88.00
75.86
64.10
54.64
48.15
44.53
43.00
41.34
37.99
32.73
26.87
21.98
19.08
18.56
22.93
30.99
40.14
48.38
54.55
58.34
59.81
59.17
56.82
53.40
48.51
41.93
33.50
22.83
9.60
-6.35
-24.65
-44.35
-64.12
-78.49
-87.47
-92.14
-93.98
-94.48
-94.83
-95.86
-98.18
-102.07
-107.10
-111.79
-112.57
-105.45
-88.03
-61.32
-29.88
-0.31
21.58
32.98
34.59
30.12
23.67
17.71
12.62
7.79
2.92
-1.18
-3.10
-2.01
1.97
7.53
12.83
16.12
17.19
16.67
15.90
16.02
17.42
19.77
22.21
23.76
23.90
22.82
21.16
19.68
18.78
18.26
17.52
15.90
13.01
9.03
4.53
0.13
-3.78
-7.16
-10.11
-12.86
-15.56
-18.32
-21.23
-24.46
-28.28
-32.86
-38.21
-43.89
-49.36
-54.16
-58.05
-61.02
-63.11
-64.28
-64.18
-63.51
-62.41
-61.11
-59.88
-58.89
-57.99
-56.70
-54.39
-50.64
-45.62
-39.91
-34.59
-30.68
-28.74
-28.66
-29.79
-31.32
-32.55
-33.12
-32.74
-31.26
-28.56
-24.54
-19.41
-13.69
-8.31
-4.16
-1.80
-1.06
-1.12
-0.87
0.65
3.77
8.22
13.24
18.04
22.12
25.48
28.40
31.31
34.46
37.88
41.39
44.81
48.08
51.35
54.87
58.77
62.98
67.04
70.21
71.64
70.63
66.85
60.57
52.63
44.18
36.32
29.75
24.54
20.21
16.02
11.38
6.06
0.29
-5.50
-10.98
-16.10
-21.11
-26.37
-32.15
-38.49
-45.23
-51.98
-58.22
-63.24
-66.23
-66.45
-63.43
-57.23
-48.54
-38.49
-28.38
-19.26
-11.69
-5.67
-0.69
4.02
9.31
15.82
23.78
32.81
41.92
49.67
54.59
55.64
52.57
46.00
37.15
27.40
17.83
8.93
0.71
-7.04
-14.33
-20.80
-25.75
-28.43
-28.40
-25.70
-20.80
-14.40
-7.10
0.68
8.79
17.18
25.74
34.25
42.36
49.79
56.37
62.15
67.36
72.25
76.90
81.09
84.31
85.87
85.12
81.67
75.53
67.10
57.10
46.29
35.37
24.76
14.60
4.80
-4.81
-14.33
-23.67
-32.60
-40.81
-48.02
-54.03
-58.74
-62.14
-64.30
-65.35
-65.38
-64.32
-61.85
-57.37
-50.21
-39.83
-26.11
-9.46
9.27
29.00
48.57
66.81
82.54
94.64
102.25
105.01
103.32
98.32
91.60
84.73
78.87
74.52
71.64
69.91
69.10
69.32
70.99
74.72
81.00
89.83
100.50
111.40
120.07
123.68
119.81
107.37
87.33
62.84
38.34
18.15
4.97
-0.96
-1.71
-0.51
-0.44
-3.42
-10.03
-19.93
-32.47
-46.98
-62.69
-78.37
-92.28
-102.53
-107.70
-107.50
-102.93
-95.91
-88.60
-82.68
-78.97
-77.32
-76.94
-76.81
-75.99
-73.96
-70.59
-66.06
-60.61
-54.27
-46.73
-37.40
-25.76
-11.80
3.65
19.01
32.39
42.27
48.11
50.42
50.44
49.53
48.56
47.86
47.22
46.14
44.27
41.53
38.41
35.49
32.99
30.86
29.16
28.15
28.38
30.40
34.35
40.04
46.65
52.92
57.79
61.41
64.66
68.63
73.94
80.18
86.84
93.14
98.21
101.43
103.98
106.92
110.41
113.46
113.76
110.99
105.75
98.73
90.74
85.19
84.52
88.97
96.29
101.46
103.41
102.61
99.70
95.67
95.78
104.05
120.98
142.96
161.68
175.05
183.49
187.92
189.99
197.05
214.89
245.01
283.81
321.67
356.71
389.31
419.12
406.78
328.16
186.40
13.25
-127.38
-230.15
-301.85
-349.63
-384.12
-408.46
-418.32
-410.47
-386.26
-352.45
-321.75
-298.38
-282.72
-273.90
-269.87
-264.52
-253.07
-234.26
-210.78
-189.89
-172.65
-158.09
-145.42
-133.99
-121.41
-106.45
-89.95
-74.71
-65.61
-62.69
-63.85
-66.68
-69.01
-68.56
-64.41
-57.19
-48.68
-41.66
-36.59
-33.09
-30.89
-29.87
-29.83
-30.56
-31.80
-33.24
-34.82
-35.92
-36.11
-35.52
-34.70
-34.43
-35.26
-37.26
-39.89
-42.26
-43.47
-42.97
-40.76
-37.27
-33.19
-29.06
-25.09
-21.11
-16.63
-11.08
-4.06
4.51
14.30
24.58
34.29
42.22
47.16
48.35
45.69
39.99
32.83
26.00
20.93
18.22
17.50
17.85
18.28
18.23
17.67
16.81
15.83
14.66
13.00
10.62
7.58
4.27
1.24
-1.10
-2.70
-3.89
-5.16
-6.92
-9.21
-11.69
-13.78
-14.93
-14.94
-13.99
-12.58
-11.24
-10.33
-9.92
-9.86
-9.96
-10.13
-10.51
-11.33
-12.85
-15.14
-18.03
-21.11
-23.89
-25.96
-27.18
-27.67
-27.73
-27.65
-27.58
-27.46
-27.10
-26.30
-24.94
-22.95
-20.23
-16.58
-11.74
-5.52
2.03
10.52
19.34
27.81
35.34
41.52
46.09
48.92
50.09
49.99
49.31
48.88
49.31
50.70
52.54
54.00
54.42
53.86
53.24
54.10
57.89
65.22
75.33
86.10
94.73
98.75
97.12
90.96
83.34
78.42
79.73
88.56
102.99
118.15
127.44
124.40
104.69
67.38
15.42
-44.90
-105.43
-157.94
-195.86
-215.58
-216.97
-203.00
-178.75
-149.86
-121.21
-96.43
-77.50
-64.95
-58.10
-55.32
-54.08
-51.50
-44.81
-32.17
-14.03
7.14
27.72
44.37
55.37
61.55
65.24
69.64
77.64
89.81
105.30
123.06
142.65
163.87
186.34
207.51
223.74
231.63
227.51
209.65
179.12
139.00
92.75
44.03
-5.42
-53.21
-95.39
-129.22
-153.21
-167.22
-172.87
-173.83
-173.82
-178.13
-189.83
-195.37
-182.65
-147.58
-96.88
-42.40
-2.23
23.81
37.38
39.43
29.69
9.24
-23.13
-66.90
-118.09
-169.87
-213.23
-242.42
-254.90
-251.79
-238.74
-222.77
-208.11
-194.48
-178.32
-154.78
-122.89
-85.06
-45.78
-10.51
16.91
36.42
51.26
65.70
83.41
104.82
128.27
151.41
171.66
186.86
195.93
198.55
194.61
184.38
168.05
146.66
122.53
98.64
77.67
61.67
51.40
46.21
44.50
44.20
43.91
43.39
43.43
44.67
47.84
53.44
61.74
72.94
87.30
104.91
125.02
145.42
161.24
167.52
160.95
140.76
108.47
66.96
19.37
-31.53
-83.32
-134.97
-183.82
-225.66
-256.51
-274.81
-282.28
-282.88
-280.73
-278.27
-277.58
-277.30
-273.45
-262.03
-241.57
-214.14
-184.56
-158.58
-126.51
-86.42
-42.37
-0.61
35.50
65.74
90.49
109.66
123.33
132.48
136.93
137.77
136.77
135.26
133.48
130.99
127.69
124.26
121.71
119.49
117.14
114.52
111.47
107.51
102.18
95.39
87.71
79.44
70.29
59.82
47.84
34.21
18.92
2.29
-14.85
-29.50
-41.18
-50.05
-56.67
-61.73
-66.18
-70.65
-75.26
-79.49
-82.53
-84.02
-83.92
-82.84
-81.52
-80.90
-81.62
-84.03
-88.04
-92.90
-97.01
-97.53
-92.48
-78.75
-56.20
-27.54
2.47
28.85
48.27
59.92
65.42
67.12
66.94
65.23
61.66
56.19
49.64
43.76
40.16
39.47
40.76
42.18
41.58
37.69
30.72
21.99
13.46
6.97
3.50
2.80
3.65
4.04
1.84
-4.67
-16.43
-32.82
-51.43
-68.80
-81.57
-87.67
-87.24
-82.31
-75.00
-68.40
-64.88
-64.95
-67.59
-71.21
-74.57
-77.33
-79.88
-82.66
-85.86
-88.75
-89.25
-85.46
-76.72
-63.89
-48.66
-32.91
-17.55
-2.89
11.35
27.04
45.09
64.60
83.29
98.99
110.42
118.35
124.21
129.65
138.60
153.62
174.54
198.44
221.17
238.28
247.31
247.00
237.68
224.67
213.36
206.76
204.66
205.13
205.46
204.61
201.44
176.51
122.46
47.32
-30.69
-96.22
-138.05
-161.81
-172.63
-174.57
-171.28
-163.40
-151.69
-137.91
-124.33
-114.30
-108.66
-105.11
-98.73
-88.98
-73.55
-53.51
-30.91
-9.15
8.49
19.76
24.73
24.22
19.15
12.83
7.89
5.57
5.38
6.02
6.31
5.82
3.95
-0.33
-6.61
-14.56
-23.78
-34.04
-45.11
-56.37
-66.96
-76.18
-85.00
-92.37
-96.87
-97.71
-94.58
-89.10
-82.91
-77.06
-73.13
-71.68
-72.13
-73.69
-75.56
-77.23
-78.44
-78.63
-77.10
-73.13
-66.20
-56.31
-44.44
-32.18
-20.96
-11.75
-4.61
0.89
5.34
9.31
13.36
17.99
23.71
30.97
39.77
49.41
58.46
65.06
67.71
65.76
59.56
50.24
39.26
27.97
17.32
7.80
-0.38
-7.04
-11.90
-14.71
-15.38
-14.09
-11.33
-7.75
-3.94
-0.23
3.42
7.33
11.97
17.70
24.58
32.32
40.36
48.06
54.90
60.60
65.08
68.35
70.30
70.62
68.93
64.93
58.62
50.41
40.97
31.01
21.06
11.23
1.39
-8.78
-19.42
-30.44
-41.46
-51.89
-61.11
-68.52
-73.64
-76.14
-75.93
-73.23
-68.52
-62.47
-55.76
-48.91
-42.24
-35.88
-29.83
-24.06
-18.53
-13.24
-8.21
-3.45
0.99
5.06
8.69
11.81
14.40
16.41
17.91
18.91
19.48
19.67
19.46
18.79
17.58
15.74
13.21
10.00
6.17
1.77
-3.06
-8.17
-13.28
-18.04
-22.08
-25.06
-26.70
-26.78
-25.15
-21.74
-16.63
-10.07
-2.49
5.50
13.24
20.17
25.86
30.06
32.73
33.93
33.84
32.64
30.55
27.79
24.64
21.40
18.31
15.51
12.97
10.53
8.00
5.29
2.46
-0.29
-2.70
-4.64
-6.18
-7.59
-9.25
-11.46
-14.31
-17.63
-21.06
-24.09
-26.26
-27.15
-26.49
-24.10
-19.91
-14.06
-6.92
0.92
8.75
15.88
21.91
26.67
30.27
32.93
34.87
36.23
37.08
37.46
37.39
36.94
36.17
35.16
33.98
32.66
31.17
29.42
27.29
24.74
21.89
19.02
16.44
14.32
12.62
11.02
9.11
6.55
3.21
-0.79
-5.21
-9.76
-14.18
-18.18
-21.46
-23.63
-24.34
-23.45
-21.06
-17.57
-13.59
-9.71
-6.37
-3.81
-2.01
-0.80
0.05
0.79
1.62
2.67
4.05
5.78
7.80
9.95
11.98
13.65
14.76
15.34
15.53
15.61
15.86
16.44
17.44
18.88
20.75
23.04
25.65
28.28
30.53
31.90
32.03
30.86
28.64
25.89
23.20
21.03
19.63
18.97
18.85
19.05
19.38
19.75
20.12
20.39
20.42
20.03
19.06
17.48
15.36
12.90
10.33
7.84
5.56
3.52
