1660939088.00
64.000000
-0.00
-0.00
-0.00
-0.00
-0.00
-0.00
-0.00
-0.00
-0.00
-0.00
0.00
0.01
0.01
-0.00
-0.03
-0.05
-0.05
0.00
0.13
0.36
0.66
1.01
1.37
1.72
2.06
2.40
2.79
3.25
3.81
4.44
5.10
5.74
6.33
6.89
7.50
8.23
9.13
10.29
11.60
12.91
14.11
15.13
16.04
17.03
18.35
20.16
22.68
25.68
28.87
31.94
34.72
37.33
40.14
43.61
48.08
53.91
60.71
67.87
74.80
81.17
87.13
93.31
100.51
109.31
120.18
132.46
145.19
157.36
168.44
178.68
188.98
200.95
213.38
228.41
246.31
266.79
288.39
308.21
322.25
326.38
317.70
295.52
262.02
220.51
174.67
127.28
79.85
33.02
-12.74
-56.60
-97.60
-134.85
-168.62
-200.03
-230.78
-262.51
-296.11
-331.08
-365.22
-394.98
-416.19
-425.51
-421.61
-405.69
-380.97
-351.45
-320.56
-290.38
-261.77
-234.80
-209.69
-186.98
-167.24
-150.65
-136.65
-124.12
-111.84
-99.03
-85.60
-72.12
-59.53
-48.55
-39.45
-31.91
-25.21
-18.63
-11.77
-4.76
1.83
7.27
11.07
13.20
14.11
14.53
15.07
16.05
17.36
18.64
19.47
19.67
19.32
18.73
18.25
18.13
18.41
18.94
19.46
19.71
19.51
18.86
17.93
16.97
16.20
15.76
15.56
15.40
15.04
14.26
12.98
11.28
9.42
7.85
7.13
7.84
10.34
14.65
20.31
26.44
31.96
35.92
37.73
37.35
35.20
31.94
28.25
24.66
21.43
18.63
16.24
14.18
12.40
10.82
9.36
7.92
6.43
4.88
3.38
2.05
1.05
0.44
0.19
0.20
0.33
0.46
0.50
0.48
0.46
0.51
0.72
1.09
1.60
2.16
2.66
3.01
3.15
3.07
2.81
2.40
1.88
1.29
0.65
-0.02
-0.69
-1.32
-1.89
-2.40
-2.91
-3.48
-4.20
-5.06
-6.02
-6.95
-7.75
-8.41
-8.97
-9.49
-9.99
-10.42
-10.67
-10.67
-10.45
-10.11
-9.73
-9.33
-8.83
-8.17
-7.36
-6.51
-5.77
-5.22
-4.77
-4.28
-3.61
-2.76
-1.91
-1.23
-0.83
-0.67
-0.60
-0.48
-0.26
0.03
0.31
0.56
0.80
1.05
1.34
1.63
1.86
2.01
2.10
2.18
2.32
2.53
2.79
3.05
3.31
3.60
3.95
4.34
4.69
4.94
5.01
4.94
4.79
4.64
4.50
4.35
4.17
3.95
3.73
3.60
3.60
3.74
4.01
4.34
4.64
4.84
4.85
4.62
4.17
3.63
3.14
2.87
2.85
3.01
3.19
3.25
3.11
2.82
2.49
2.23
2.10
2.10
2.20
2.35
2.51
2.69
2.86
3.05
3.25
3.44
3.61
3.74
3.81
3.85
3.91
4.03
4.21
4.42
4.58
4.59
4.42
4.07
3.60
3.09
2.60
2.18
1.81
1.47
1.15
0.85
0.63
0.51
0.52
0.61
0.71
0.76
0.78
0.83
0.99
1.32
1.76
2.19
2.48
2.56
2.48
2.32
2.18
2.09
2.00
1.86
1.64
1.38
1.12
0.86
0.61
0.33
0.02
-0.29
-0.52
-0.63
-0.58
-0.41
-0.16
0.13
0.45
0.77
1.09
1.38
1.62
1.77
1.83
1.80
1.72
1.61
1.51
1.42
1.33
1.23
1.08
0.93
0.80
0.71
0.68
0.65
0.60
0.48
0.32
0.18
0.13
0.22
0.42
0.63
0.74
0.67
0.42
0.10
-0.12
-0.10
0.17
0.58
0.92
0.99
0.74
0.27
-0.20
-0.49
-0.51
-0.29
0.09
0.54
0.98
1.38
1.70
1.88
1.89
1.75
1.52
1.28
1.10
0.97
0.88
0.82
0.80
0.79
0.79
0.71
0.54
0.31
0.13
0.13
0.35
0.73
1.10
1.30
1.27
1.10
0.91
0.81
0.82
0.85
0.79
0.61
0.35
0.11
-0.04
-0.12
-0.17
-0.27
-0.42
-0.54
-0.54
-0.34
0.01
0.39
0.62
0.60
0.32
-0.10
-0.50
-0.72
-0.72
-0.53
-0.27
-0.05
0.06
0.05
-0.02
-0.08
-0.10
-0.05
0.04
0.15
0.27
0.41
0.60
0.80
0.98
1.03
0.93
0.67
0.35
0.11
0.06
0.26
0.65
1.11
1.47
1.60
1.46
1.08
0.60
0.15
-0.14
-0.22
-0.10
0.13
0.39
0.60
0.69
0.68
0.59
0.46
0.29
0.09
-0.13
-0.31
-0.39
-0.33
-0.14
0.13
0.37
0.55
0.68
0.78
0.91
1.03
1.09
1.02
0.82
0.54
0.31
0.20
0.25
0.38
0.51
0.59
0.60
0.60
0.62
0.67
0.68
0.58
0.32
-0.08
-0.52
-0.85
-0.99
-0.90
-0.67
-0.39
-0.17
-0.05
-0.00
0.01
0.02
0.04
0.07
0.13
0.21
0.32
0.44
0.52
0.54
0.48
0.36
0.22
0.09
-0.03
-0.11
-0.15
-0.14
-0.09
-0.03
0.01
0.02
0.02
0.06
0.19
0.39
0.58
0.65
0.51
0.16
-0.31
-0.78
-1.09
-1.16
-0.98
-0.63
-0.25
0.03
0.14
0.12
0.05
0.06
0.20
0.45
0.71
0.88
0.93
0.88
0.83
0.83
0.86
0.86
0.74
0.51
0.22
-0.03
-0.15
-0.12
0.01
0.17
0.30
0.35
0.32
0.23
0.09
-0.05
-0.12
-0.11
0.01
0.20
0.38
0.49
0.51
0.44
0.34
0.26
0.24
0.25
0.28
0.28
0.27
0.25
0.25
0.31
0.40
0.50
0.55
0.48
0.27
-0.01
-0.27
-0.43
-0.46
-0.40
-0.35
-0.38
-0.48
-0.61
-0.68
-0.67
-0.61
-0.55
-0.54
-0.57
-0.62
-0.65
-0.63
-0.60
-0.59
-0.58
-0.56
-0.48
-0.36
-0.25
-0.20
-0.24
-0.32
-0.36
-0.28
-0.09
0.15
0.37
0.49
0.54
0.54
0.55
0.59
0.62
0.63
0.63
0.65
0.69
0.74
0.76
0.73
0.67
0.63
0.66
0.72
0.74
0.63
0.34
-0.07
-0.48
-0.76
-0.82
-0.65
-0.32
0.07
0.44
0.70
0.78
0.65
0.33
-0.08
-0.45
-0.66
-0.68
-0.54
-0.33
-0.12
0.08
0.28
0.50
0.69
0.78
0.67
0.35
-0.08
-0.48
-0.72
-0.74
-0.60
-0.39
-0.19
-0.01
0.19
0.43
0.70
0.92
1.00
0.89
0.63
0.32
0.06
-0.06
-0.03
0.11
0.30
0.46
0.51
0.43
0.20
-0.13
-0.47
-0.67
-0.64
-0.36
0.09
0.55
0.86
0.92
0.73
0.39
0.01
-0.30
-0.50
-0.57
-0.57
-0.54
-0.54
-0.60
-0.74
-0.91
-1.04
-1.06
-0.93
-0.69
-0.43
-0.24
-0.13
-0.05
0.09
0.33
0.65
0.94
1.08
1.01
0.77
0.49
0.29
0.20
0.23
0.31
0.40
0.46
0.46
0.39
0.21
-0.09
-0.45
-0.78
-0.99
-0.99
-0.76
-0.34
0.16
0.62
0.90
0.94
0.74
0.38
-0.03
-0.34
-0.45
-0.36
-0.12
0.17
0.41
0.56
0.59
0.53
0.42
0.29
0.21
0.23
0.40
0.69
1.01
1.25
1.28
1.05
0.64
0.18
-0.18
-0.36
-0.37
-0.30
-0.30
-0.43
-0.69
-0.97
-1.18
-1.25
-1.18
-1.01
-0.79
-0.55
-0.28
0.01
0.29
0.51
0.63
0.67
0.65
0.63
0.61
0.56
0.43
0.19
-0.12
-0.41
-0.60
-0.65
-0.55
-0.34
-0.08
0.20
0.44
0.58
0.57
0.41
0.17
-0.05
-0.15
-0.10
0.07
0.25
0.34
0.28
0.08
-0.21
-0.51
-0.74
-0.81
-0.70
-0.41
-0.06
0.22
0.31
0.13
-0.26
-0.73
-1.13
-1.33
-1.32
-1.16
-0.96
-0.83
-0.80
-0.81
-0.80
-0.69
-0.50
-0.27
-0.08
0.06
0.20
0.40
0.69
1.01
1.21
1.17
0.83
0.31
-0.18
-0.43
-0.34
0.02
0.46
0.76
0.84
0.74
0.62
0.59
0.68
0.83
0.95
0.98
0.95
0.88
0.82
0.73
0.55
0.23
-0.20
-0.63
-0.90
-0.90
-0.63
-0.18
0.28
0.64
0.83
0.87
0.81
0.70
0.57
0.41
0.23
0.04
-0.08
-0.09
0.02
0.16
0.23
0.16
-0.05
-0.33
-0.58
-0.72
-0.75
-0.69
-0.57
-0.43
-0.27
-0.11
0.01
0.08
0.06
-0.01
-0.05
0.02
0.26
0.60
0.95
1.16
1.14
0.89
0.50
0.10
-0.23
-0.45
-0.56
-0.62
-0.62
-0.54
-0.34
-0.02
0.33
0.62
0.74
0.66
0.45
0.23
0.11
0.13
0.25
0.35
0.35
0.20
-0.05
-0.31
-0.53
-0.72
-0.90
-1.08
-1.23
-1.24
-1.04
-0.65
-0.17
0.21
0.36
0.26
-0.02
-0.29
-0.44
-0.42
-0.29
-0.16
-0.08
-0.08
-0.12
-0.11
-0.02
0.16
0.35
0.48
0.46
0.29
0.04
-0.17
-0.26
-0.22
-0.12
-0.06
-0.12
-0.28
-0.44
-0.49
-0.37
-0.09
0.27
0.61
0.84
0.94
0.90
0.78
0.62
0.49
0.38
0.29
0.16
-0.01
-0.21
-0.37
-0.46
-0.43
-0.33
-0.18
0.00
0.22
0.50
0.83
1.14
1.32
1.27
1.00
0.58
0.12
-0.27
-0.56
-0.80
-1.00
-1.17
-1.27
-1.24
-1.07
-0.80
-0.54
-0.34
-0.26
-0.26
-0.29
-0.34
-0.40
-0.49
-0.60
-0.67
-0.64
-0.46
-0.16
0.19
0.49
0.64
0.65
0.56
0.47
0.44
0.50
0.61
0.72
0.78
0.74
0.62
0.46
0.30
0.21
0.20
0.30
0.47
0.65
0.82
0.93
0.98
0.94
0.82
0.59
0.28
-0.07
-0.40
-0.66
-0.80
-0.81
-0.71
-0.53
-0.32
-0.17
-0.16
-0.33
-0.68
-1.11
-1.46
-1.60
-1.49
-1.17
-0.77
-0.42
-0.15
0.02
0.16
0.27
0.37
0.45
0.49
0.50
0.50
0.49
0.47
0.44
0.41
0.37
0.33
0.30
0.28
0.28
0.29
0.31
0.31
0.25
0.11
-0.12
-0.44
-0.81
-1.19
-1.50
-1.67
-1.63
-1.40
-1.05
-0.69
-0.42
-0.28
-0.23
-0.19
-0.10
0.05
0.21
0.31
0.35
0.32
0.32
0.38
0.56
0.80
1.04
1.19
1.20
1.06
0.80
0.48
0.16
-0.09
-0.29
-0.44
-0.57
-0.70
-0.84
-0.99
-1.14
-1.33
-1.57
-1.85
-2.11
-2.28
-2.32
-2.19
-1.95
-1.70
-1.57
-1.61
-1.85
-2.19
-2.55
-2.82
-2.97
-3.02
-3.01
-3.00
-2.98
-2.95
-2.86
-2.70
-2.50
-2.29
-2.12
-2.01
-1.94
-1.84
-1.65
-1.34
-0.93
-0.52
-0.29
-0.37
-0.84
-1.68
-2.73
-3.79
-4.69
-5.39
-5.99
-6.64
-7.47
-8.52
-9.75
-11.04
-12.25
-13.31
-14.21
-14.98
-15.69
-16.37
-17.06
-17.76
-18.50
-19.34
-20.42
-21.97
-24.27
-27.51
-31.71
-36.58
-41.59
-46.15
-49.89
-52.91
-55.83
-59.62
-65.12
-72.66
-81.82
-91.61
-100.91
-109.07
-116.22
-123.24
-131.34
-141.63
-154.71
-170.61
-188.67
-207.40
-224.40
-236.56
-240.56
-233.97
-215.99
-187.79
-152.04
-111.73
-68.98
-24.49
22.04
70.73
120.27
167.59
208.53
239.33
258.23
266.04
265.71
261.00
255.00
249.29
244.17
239.48
235.56
233.47
234.49
239.24
247.03
255.95
263.73
268.78
270.94
271.44
272.28
275.18
280.85
288.55
296.30
301.30
300.72
292.42
275.45
250.34
218.79
183.05
145.16
106.26
66.30
24.32
-20.77
-69.12
-119.11
-167.22
-208.83
-239.68
-257.36
-262.15
-256.75
-245.14
-230.96
-216.44
-202.31
-188.43
-174.72
-161.67
-150.13
-140.70
-133.20
-126.62
-119.66
-111.40
-101.75
-91.43
-81.65
-73.42
-67.15
-62.49
-58.57
-54.42
-49.47
-43.71
-37.70
-32.22
-27.90
-24.95
-23.06
-21.61
-19.98
-17.80
-15.09
-12.19
-9.58
-7.61
-6.40
-5.79
-5.51
-5.27
-4.95
-4.62
-4.48
-4.73
-5.46
-6.53
-7.52
-7.81
-6.78
-4.04
0.32
5.71
11.17
15.71
18.63
19.68
19.08
17.25
14.68
11.78
8.86
6.19
4.00
2.41
1.37
0.61
-0.19
-1.27
-2.67
-4.21
-5.59
-6.56
-7.00
-6.92
-6.43
-5.69
-4.84
-4.01
-3.32
-2.90
-2.74
-2.76
-2.81
-2.67
-2.22
-1.43
-0.42
0.60
1.38
1.70
1.47
0.72
-0.34
-1.45
-2.35
-2.88
-3.02
-2.90
-2.70
-2.59
-2.58
-2.60
-2.50
-2.19
-1.66
-1.01
-0.41
0.01
0.19
0.19
0.12
0.05
0.04
0.10
0.25
0.58
1.18
2.08
3.20
4.32
5.16
5.50
5.27
4.58
3.66
2.72
1.94
1.34
0.85
0.38
-0.11
-0.62
-1.06
-1.38
-1.60
-1.78
-2.05
-2.46
-3.01
-3.57
-3.94
-3.99
-3.68
-3.12
-2.46
-1.82
-1.25
-0.68
-0.05
0.65
1.32
1.79
1.93
1.75
1.36
0.96
0.73
0.75
1.00
1.35
1.69
1.95
2.09
2.12
2.07
1.91
1.60
1.08
0.32
-0.65
-1.71
-2.70
-3.46
-3.95
-4.21
-4.34
-4.44
-4.53
-4.54
-4.39
-4.01
-3.47
-2.82
-2.13
-1.36
-0.37
0.91
2.50
4.21
5.77
6.94
7.56
7.64
7.28
6.59
5.67
4.57
3.35
2.14
1.05
0.19
-0.43
-0.85
-1.15
-1.39
-1.60
-1.75
-1.83
-1.84
-1.83
-1.87
-2.05
-2.40
-2.88
-3.32
-3.52
-3.31
-2.61
-1.53
-0.29
0.82
1.62
2.04
2.12
1.97
1.67
1.29
0.88
0.51
0.26
0.21
0.34
0.58
0.78
0.84
0.73
0.47
0.17
-0.11
-0.34
-0.55
-0.83
-1.22
-1.73
-2.30
-2.84
-3.26
-3.52
-3.60
-3.50
-3.22
-2.72
-1.99
-1.05
0.01
1.04
1.95
2.71
3.39
4.09
4.90
5.75
6.44
6.72
6.42
5.49
4.12
2.59
1.21
0.18
-0.44
-0.75
-0.87
-0.90
-0.84
-0.66
-0.34
0.05
0.39
0.51
0.26
-0.38
-1.32
-2.37
-3.30
-3.91
-4.08
-3.80
-3.16
-2.34
-1.49
-0.77
-0.26
-0.02
-0.07
-0.42
-1.00
-1.67
-2.22
-2.48
-2.36
-1.90
-1.28
-0.67
-0.17
0.23
0.66
1.20
1.86
2.52
2.98
3.06
2.73
2.09
1.35
0.71
0.30
0.10
-0.01
-0.15
-0.36
-0.57
-0.63
-0.43
0.08
0.78
1.50
2.09
2.45
2.59
2.61
2.63
2.71
2.84
2.91
2.82
2.47
1.86
1.06
0.16
-0.74
-1.62
-2.45
-3.21
-3.78
-4.02
-3.84
-3.26
-2.44
-1.66
-1.16
-1.04
-1.25
-1.63
-2.02
-2.35
-2.64
-2.93
-3.24
-3.58
-3.86
-4.00
-3.94
-3.67
-3.21
-2.64
-2.05
-1.55
-1.17
-0.94
-0.81
-0.76
-0.78
-0.87
-1.01
-1.15
-1.15
-0.87
-0.19
0.87
2.21
3.62
4.88
5.84
6.41
6.61
6.49
6.13
5.60
4.95
4.22
3.44
2.65
1.85
1.07
0.30
-0.44
-1.12
-1.66
-1.99
-2.02
-1.70
-1.05
-0.17
0.77
1.58
2.14
2.43
2.52
2.57
2.66
2.82
2.91
2.81
2.38
1.65
0.76
-0.09
-0.73
-1.05
-1.10
-0.94
-0.68
-0.39
-0.15
-0.03
-0.09
-0.35
-0.80
-1.37
-1.98
-2.55
-3.00
-3.25
-3.30
-3.15
-2.86
-2.54
-2.28
-2.16
-2.21
-2.41
-2.71
-3.03
-3.28
-3.36
-3.20
-2.81
-2.27
-1.73
-1.33
-1.18
-1.22
-1.36
-1.46
-1.47
-1.47
-1.56
-1.79
-2.13
-2.44
-2.57
-2.49
-2.30
-2.24
-2.50
-3.18
-4.15
-5.12
-5.77
-5.87
-5.42
-4.61
-3.75
-3.13
-2.87
-2.96
-3.25
-3.61
-3.96
-4.35
-4.86
-5.55
-6.40
-7.35
-8.26
-9.07
-9.70
-10.07
-10.03
-9.36
-7.91
-5.68
-2.94
-0.16
2.21
3.86
4.85
5.55
6.47
8.02
10.32
13.17
16.13
18.70
20.53
21.49
21.64
21.20
20.41
19.52
18.68
18.00
17.45
16.92
16.21
15.08
13.35
10.95
7.95
4.56
1.06
-2.25
-5.08
-7.25
-8.67
-9.34
-9.36
-8.91
-8.16
-7.26
-6.35
-5.51
-4.81
-4.31
-4.04
-3.98
-4.10
-4.29
-4.43
-4.36
-4.00
-3.32
-2.41
-1.44
-0.54
0.27
1.09
2.08
3.29
4.61
5.76
6.41
6.35
5.72
5.01
4.95
6.24
9.18
13.46
18.19
22.15
24.30
24.13
21.85
18.17
13.94
9.74
5.75
1.90
-1.90
-5.46
-8.35
-10.13
-10.60
-9.92
-8.60
-7.19
-6.10
-5.42
-4.98
-4.48
-3.76
-2.85
-2.05
-1.75
-2.26
-3.61
-5.48
-7.26
-8.34
-8.30
-7.12
-5.17
-3.06
-1.30
-0.19
0.29
0.34
0.15
-0.24
-0.93
-2.06
-3.67
-5.56
-7.41
-8.87
-9.71
-9.92
-9.68
-9.25
-8.86
-8.67
-8.66
-8.77
-8.90
-8.94
-8.80
-8.36
-7.53
-6.29
-4.78
-3.24
-1.91
-0.94
-0.25
0.39
1.25
2.42
3.73
4.83
5.36
5.13
4.24
2.99
1.74
0.73
0.01
-0.50
-0.94
-1.31
-1.55
-1.52
-1.18
-0.61
-0.05
0.29
0.26
-0.09
-0.65
-1.25
-1.83
-2.38
-2.94
-3.48
-3.92
-4.16
-4.14
-3.88
-3.46
-2.94
-2.36
-1.73
-1.08
-0.44
0.13
0.68
1.31
2.16
3.23
4.34
5.11
5.13
4.16
2.28
-0.04
-2.19
-3.57
-3.90
-3.27
-2.10
-1.02
-0.57
-1.00
-2.24
-3.77
-4.86
-4.75
-2.98
0.49
5.17
10.04
13.71
14.73
12.01
5.27
-4.77
-16.59
-28.39
-38.70
-46.86
-52.96
-57.54
-61.08
-63.83
-65.86
-67.42
-69.16
-72.07
-77.06
-84.41
-93.56
-103.24
-112.08
-119.18
-124.51
-128.99
-134.14
-141.64
-152.82
-168.20
-187.07
-207.16
-224.85
-235.84
-236.29
-224.05
-199.34
-164.64
-123.63
-79.86
-35.62
8.58
53.64
100.96
151.28
203.83
256.05
304.10
343.94
372.65
389.36
395.52
394.27
389.21
383.38
378.79
376.47
376.80
379.45
383.04
384.96
381.63
369.55
346.66
313.21
271.69
225.78
178.84
132.63
86.88
40.01
-9.52
-61.66
-114.06
-162.39
-201.66
-228.06
-240.33
-240.14
-231.27
-218.05
-203.86
-190.42
-178.10
-166.65
-156.00
-146.42
-138.26
-131.40
-125.11
-118.37
-110.34
-100.91
-90.66
-80.67
-71.99
-65.12
-59.89
-55.60
-51.37
-46.57
-41.05
-35.14
-29.43
-24.51
-20.68
-17.89
-15.79
-13.92
-11.94
-9.74
-7.51
-5.58
-4.28
-3.82
-4.17
-5.09
-6.23
-7.24
-7.87
-8.07
-7.93
-7.61
-7.27
-6.97
-6.66
-6.19
-5.46
-4.47
-3.36
-2.32
-1.53
-1.06
-0.87
-0.83
-0.85
-0.88
-0.97
-1.16
-1.48
-1.88
-2.25
-2.45
-2.45
-2.27
-2.02
-1.81
-1.72
-1.75
-1.87
-2.02
-2.17
-2.29
-2.36
-2.34
-2.20
-1.94
-1.62
-1.32
-1.11
-1.06
-1.21
-1.53
-1.85
-1.88
-1.23
0.39
2.94
5.98
8.75
10.45
10.67
9.52
7.57
5.51
3.80
2.49
1.30
-0.07
-1.71
-3.44
-4.87
-5.68
-5.69
-4.96
-3.69
-2.15
-0.63
0.65
1.56
2.04
2.15
2.00
1.72
1.48
1.42
1.68
2.33
3.34
4.49
5.44
5.86
5.53
4.49
3.01
1.47
0.17
-0.73
-1.28
-1.63
-1.90
-2.17
-2.40
-2.56
-2.66
-2.77
-3.00
-3.42
-4.03
-4.68
-5.19
-5.38
-5.15
-4.58
-3.84
-3.19
-2.80
-2.74
-2.91
-3.15
-3.27
-3.24
-3.10
-3.01
-3.11
-3.47
-4.00
-4.53
-4.82
-4.64
-3.85
-2.44
-0.50
1.75
4.03
6.04
7.49
8.23
8.26
7.74
6.99
6.37
6.15
6.41
7.04
7.83
8.54
9.04
9.29
9.30
9.04
8.35
7.04
4.95
2.12
-1.23
-4.72
-7.95
-10.66
-12.77
-14.32
-15.37
-15.98
-16.13
-15.78
-14.86
-13.33
-11.23
-8.68
-5.91
-3.24
-1.01
0.59
1.57
2.18
2.78
3.75
5.25
7.22
9.43
11.58
13.46
14.91
15.82
16.10
15.62
14.34
12.31
9.78
7.04
4.37
1.91
-0.35
-2.41
-4.21
-5.58
-6.30
-6.27
-5.61
-4.64
-3.76
-3.25
-3.22
-3.56
-4.07
-4.61
-5.15
-5.78
-6.54
-7.42
-8.28
-8.93
-9.21
-9.04
-8.48
-7.61
-6.51
-5.21
-3.65
-1.79
0.40
2.83
5.34
7.70
9.70
11.13
11.84
11.78
11.06
9.89
8.60
7.48
6.71
6.27
6.04
5.82
5.43
4.75
3.69
2.24
0.40
-1.75
-4.06
-6.32
-8.31
-9.85
-10.85
-11.35
