1660934778.00
64.000000
-0.00
-0.00
-0.00
-0.00
-0.00
-0.00
-0.00
-0.00
-0.00
-0.00
0.00
0.01
0.01
-0.00
-0.03
-0.05
-0.05
0.00
0.13
0.36
0.66
1.01
1.37
1.72
2.06
2.40
2.79
3.25
3.81
4.44
5.10
5.73
6.32
6.90
7.52
8.26
9.15
10.28
11.53
12.77
13.89
14.86
15.75
16.75
18.10
19.93
22.44
25.41
28.54
31.53
34.26
36.86
39.68
43.19
47.67
53.45
60.11
67.10
73.84
80.09
86.02
92.27
99.58
108.40
119.14
131.08
143.32
154.98
165.71
175.83
186.26
198.45
210.98
225.77
243.02
262.54
283.12
302.19
315.94
320.25
311.96
290.01
256.22
213.76
166.45
117.48
68.79
21.33
-24.37
-67.76
-108.28
-145.42
-179.79
-212.72
-245.95
-280.80
-317.28
-353.48
-385.71
-409.52
-421.06
-418.72
-403.71
-379.70
-351.26
-322.34
-295.08
-269.91
-246.27
-223.51
-201.69
-181.40
-163.20
-147.17
-132.72
-118.94
-105.04
-90.81
-76.61
-63.28
-51.64
-42.09
-34.43
-27.99
-21.95
-15.74
-9.22
-2.74
3.17
8.07
11.81
14.57
16.71
18.58
20.40
22.18
23.82
25.16
26.07
26.48
26.44
26.09
25.62
25.22
25.01
24.95
24.90
24.67
24.15
23.36
22.43
21.56
20.85
20.31
19.85
19.37
18.80
18.19
17.61
17.12
16.74
16.45
16.15
15.78
15.29
14.69
14.01
13.36
12.81
12.40
12.12
11.92
11.71
11.47
11.19
10.91
10.64
10.38
10.12
9.84
9.54
9.24
8.97
8.75
8.55
8.35
8.09
7.75
7.33
6.87
6.46
6.17
6.03
6.02
6.02
5.95
5.74
5.41
5.00
4.61
4.29
4.07
3.90
3.75
3.55
3.28
2.89
2.39
1.78
1.10
0.42
-0.20
-0.71
-1.12
-1.47
-1.86
-2.36
-2.99
-3.73
-4.49
-5.21
-5.88
-6.53
-7.22
-7.95
-8.65
-9.18
-9.43
-9.37
-9.09
-8.75
-8.51
-8.45
-8.57
-8.75
-8.84
-8.73
-8.34
-7.69
-6.82
-5.86
-4.91
-4.03
-3.28
-2.64
-2.09
-1.62
-1.26
-1.00
-0.84
-0.73
-0.58
-0.31
0.13
0.70
1.32
1.86
2.25
2.46
2.53
2.57
2.64
2.78
2.97
3.14
3.23
3.24
3.18
3.14
3.16
3.29
3.48
3.70
3.87
3.95
3.94
3.85
3.72
3.56
3.43
3.38
3.48
3.75
4.17
4.63
5.02
5.25
5.30
5.23
5.12
5.05
5.02
5.00
4.95
4.84
4.67
4.47
4.21
3.87
3.40
2.82
2.22
1.72
1.48
1.56
1.94
2.47
2.96
3.24
3.26
3.05
2.74
2.46
2.26
2.15
2.10
2.09
2.12
2.21
2.33
2.43
2.43
2.28
1.98
1.62
1.31
1.15
1.21
1.45
1.79
2.11
2.33
2.40
2.28
2.02
1.64
1.19
0.77
0.46
0.34
0.42
0.69
1.03
1.34
1.49
1.46
1.28
1.05
0.85
0.75
0.71
0.69
0.63
0.53
0.42
0.39
0.47
0.68
0.95
1.22
1.41
1.51
1.52
1.45
1.37
1.31
1.30
1.35
1.43
1.51
1.53
1.46
1.30
1.09
0.93
0.92
1.09
1.41
1.76
2.02
2.08
1.93
1.61
1.24
0.94
0.78
0.76
0.84
0.96
1.05
1.10
1.10
1.05
0.93
0.72
0.43
0.10
-0.17
-0.31
-0.26
-0.06
0.21
0.43
0.55
0.53
0.43
0.32
0.26
0.29
0.39
0.52
0.61
0.61
0.51
0.36
0.23
0.20
0.28
0.45
0.61
0.70
0.70
0.63
0.53
0.41
0.25
0.02
-0.27
-0.54
-0.70
-0.63
-0.33
0.09
0.51
0.77
0.83
0.72
0.53
0.33
0.17
0.07
0.01
0.04
0.22
0.58
1.08
1.61
1.99
2.08
1.89
1.53
1.21
1.08
1.15
1.32
1.42
1.31
0.98
0.53
0.10
-0.23
-0.41
-0.47
-0.43
-0.31
-0.13
0.04
0.15
0.14
0.06
-0.01
0.05
0.31
0.73
1.17
1.45
1.47
1.22
0.81
0.38
0.04
-0.18
-0.32
-0.46
-0.59
-0.67
-0.61
-0.39
-0.02
0.39
0.69
0.80
0.70
0.48
0.25
0.11
0.10
0.19
0.28
0.31
0.25
0.14
0.05
0.05
0.12
0.20
0.18
0.01
-0.28
-0.59
-0.76
-0.72
-0.52
-0.25
-0.06
-0.00
-0.05
-0.08
-0.02
0.18
0.45
0.67
0.75
0.67
0.51
0.36
0.32
0.41
0.62
0.85
1.03
1.08
1.01
0.86
0.71
0.61
0.57
0.55
0.47
0.30
0.07
-0.13
-0.18
-0.06
0.16
0.38
0.53
0.57
0.56
0.53
0.47
0.35
0.14
-0.13
-0.37
-0.49
-0.44
-0.30
-0.13
-0.03
-0.02
-0.08
-0.16
-0.24
-0.33
-0.43
-0.53
-0.58
-0.55
-0.43
-0.26
-0.08
0.06
0.12
0.13
0.12
0.13
0.20
0.34
0.53
0.74
0.93
1.04
1.06
0.94
0.70
0.39
0.10
-0.07
-0.08
0.08
0.31
0.49
0.55
0.46
0.29
0.11
0.01
-0.01
0.03
0.10
0.19
0.31
0.44
0.56
0.59
0.47
0.21
-0.12
-0.36
-0.40
-0.18
0.26
0.76
1.15
1.28
1.09
0.63
0.04
-0.48
-0.80
-0.85
-0.66
-0.34
-0.02
0.21
0.30
0.28
0.19
0.07
-0.07
-0.23
-0.39
-0.53
-0.55
-0.41
-0.09
0.35
0.77
1.01
0.99
0.67
0.16
-0.39
-0.82
-1.03
-1.02
-0.84
-0.62
-0.46
-0.46
-0.61
-0.89
-1.18
-1.37
-1.36
-1.13
-0.75
-0.36
-0.11
-0.08
-0.27
-0.60
-0.93
-1.15
-1.24
-1.22
-1.12
-0.94
-0.65
-0.19
0.44
1.13
1.69
1.94
1.77
1.20
0.39
-0.47
-1.21
-1.79
-2.25
-2.66
-3.07
-3.47
-3.81
-4.06
-4.22
-4.39
-4.70
-5.30
-6.29
-7.68
-9.35
-11.10
-12.76
-14.22
-15.53
-16.72
-17.77
-18.52
-18.74
-18.35
-17.52
-16.75
-16.68
-17.85
-20.41
-24.12
-28.54
-33.20
-37.85
-42.48
-47.18
-52.06
-57.23
-62.78
-68.78
-75.15
-81.66
-87.98
-93.82
-99.22
-104.56
-110.43
-117.33
-125.43
-134.59
-144.69
-155.88
-168.43
-182.04
-195.22
-205.03
-207.65
-199.76
-179.78
-148.47
-108.30
-62.25
-12.83
38.00
88.15
134.62
173.52
201.11
215.29
216.70
208.59
195.48
181.46
169.00
158.82
150.57
143.82
138.61
135.38
134.47
135.74
138.46
141.66
144.60
147.12
149.68
153.07
158.02
164.77
172.95
181.80
190.48
198.52
205.98
213.32
221.11
229.57
238.36
246.52
252.62
254.98
251.93
242.13
224.83
200.09
168.73
132.03
91.21
46.97
-0.35
-50.15
-100.69
-148.61
-189.42
-218.94
-234.88
-237.88
-231.19
-219.26
-205.94
-193.39
-181.95
-170.95
-159.85
-148.80
-138.51
-129.63
-122.18
-115.48
-108.51
-100.55
-91.48
-81.90
-72.78
-64.96
-58.78
-54.01
-49.97
-45.95
-41.51
-36.63
-31.68
-27.17
-23.50
-20.76
-18.76
-17.07
-15.30
-13.19
-10.73
-8.16
-5.82
-4.00
-2.84
-2.27
-2.04
-1.87
-1.55
-0.99
-0.31
0.31
0.70
0.75
0.52
0.14
-0.19
-0.33
-0.22
0.09
0.49
0.90
1.23
1.46
1.57
1.54
1.39
1.12
0.79
0.44
0.13
-0.12
-0.31
-0.43
-0.49
-0.46
-0.35
-0.19
-0.05
-0.00
-0.09
-0.33
-0.69
-1.06
-1.35
-1.45
-1.31
-0.97
-0.52
-0.09
0.18
0.22
0.05
-0.25
-0.53
-0.68
-0.60
-0.28
0.22
0.80
1.32
1.65
1.77
1.70
1.51
1.31
1.12
0.96
0.80
0.63
0.47
0.38
0.40
0.53
0.75
0.96
1.04
0.91
0.54
0.02
-0.50
-0.87
-1.01
-0.98
-0.94
-1.08
-1.48
-2.05
-2.58
-2.84
-2.74
-2.35
-1.86
-1.46
-1.21
-1.07
-0.94
-0.77
-0.58
-0.45
-0.41
-0.35
-0.11
0.45
1.35
2.43
3.42
4.07
4.26
3.99
3.40
2.65
1.87
1.14
0.51
0.00
-0.34
-0.52
-0.56
-0.54
-0.54
-0.63
-0.81
-1.06
-1.35
-1.59
-1.76
-1.83
-1.82
-1.76
-1.69
-1.63
-1.56
-1.42
-1.15
-0.76
-0.26
0.24
0.68
1.04
1.34
1.68
2.12
2.68
3.27
3.70
3.76
3.31
2.38
1.17
0.00
-0.84
-1.22
-1.19
-0.96
-0.72
-0.58
-0.52
-0.48
-0.40
-0.29
-0.24
-0.30
-0.50
-0.78
-1.05
-1.29
-1.49
-1.66
-1.80
-1.86
-1.77
-1.50
-1.06
-0.57
-0.10
0.31
0.70
1.19
1.89
2.83
3.93
4.99
5.76
6.03
5.68
4.72
3.33
1.79
0.42
-0.53
-0.97
-0.97
-0.75
-0.54
-0.50
-0.68
-1.00
-1.34
-1.59
-1.73
-1.82
-1.95
-2.20
-2.55
-2.89
-3.12
-3.13
-2.91
-2.53
-2.10
-1.69
-1.33
-0.98
-0.59
-0.13
0.40
0.97
1.56
2.15
2.68
3.07
3.21
3.02
2.57
1.99
1.49
1.22
1.19
1.29
1.30
1.08
0.55
-0.20
-1.01
-1.70
-2.16
-2.35
-2.34
-2.24
-2.13
-2.06
-2.04
-2.04
-2.04
-2.04
-2.08
-2.17
-2.28
-2.32
-2.17
-1.75
-1.10
-0.34
0.36
0.88
1.24
1.54
1.92
2.39
2.88
3.23
3.28
3.02
2.54
2.02
1.61
1.38
1.31
1.32
1.31
1.24
1.09
0.89
0.64
0.35
-0.02
-0.47
-1.02
-1.65
-2.25
-2.71
-2.94
-2.92
-2.71
-2.42
-2.16
-2.00
-1.90
-1.81
-1.64
-1.35
-0.98
-0.55
-0.11
0.35
0.83
1.33
1.78
2.05
2.04
1.74
1.28
0.87
0.73
0.97
1.53
2.25
2.92
3.40
3.62
3.57
3.26
2.73
1.99
1.08
0.09
-0.90
-1.80
-2.54
-3.09
-3.41
-3.53
-3.47
-3.27
-3.00
-2.71
-2.42
-2.16
-1.94
-1.77
-1.62
-1.45
-1.15
-0.66
0.05
0.88
1.69
2.30
2.60
2.63
2.49
2.29
2.09
1.81
1.38
0.76
0.06
-0.50
-0.70
-0.46
0.12
0.78
1.22
1.32
1.13
0.88
0.77
0.86
1.05
1.13
0.95
0.49
-0.10
-0.60
-0.83
-0.78
-0.54
-0.28
-0.14
-0.15
-0.27
-0.45
-0.65
-0.83
-0.95
-0.94
-0.73
-0.33
0.16
0.53
0.62
0.34
-0.23
-0.90
-1.47
-1.82
-1.96
-1.93
-1.79
-1.59
-1.38
-1.31
-1.57
-2.29
-3.47
-4.89
-6.25
-7.26
-7.81
-8.05
-8.27
-8.79
-9.74
-11.05
-12.46
-13.72
-14.69
-15.47
-16.33
-17.56
-19.35
-21.63
-24.14
-26.55
-28.65
-30.50
-32.37
-34.59
-37.38
-40.69
-44.20
-47.56
-50.55
-53.19
-55.69
-58.25
-60.84
-63.21
-65.07
-66.27
-66.95
-67.51
-68.36
-69.77
-71.82
-74.37
-77.30
-80.63
-84.68
-89.96
-96.94
-105.51
-114.57
-121.80
-123.87
-117.33
-99.59
-69.68
-28.37
22.16
78.90
138.38
196.71
249.72
293.37
324.75
343.09
350.25
350.38
348.44
348.27
351.02
354.73
355.18
347.78
329.35
299.25
259.20
212.09
160.52
106.10
49.75
-7.20
-61.87
-109.95
-146.99
-170.27
-180.14
-179.91
-174.25
-167.18
-160.63
-154.37
-147.02
-137.54
-126.09
-113.97
-102.82
-93.66
-86.43
-80.15
-73.62
-66.10
-57.77
-49.78
-43.71
-40.96
-42.06
-46.45
-52.57
-58.50
-62.71
-64.62
-64.73
-64.20
-64.23
-65.44
-67.61
-69.90
-71.31
-71.26
-69.86
-67.89
-66.45
-66.47
-68.40
-72.09
-76.95
-82.13
-86.87
-90.71
-93.56
-95.77
-98.07
-101.40
-106.50
-113.28
-120.27
-124.50
-121.94
-108.55
-81.65
-41.05
10.37
67.17
122.65
170.53
206.45
228.73
238.21
237.53
230.21
219.88
209.64
201.58
196.42
193.39
190.62
186.04
178.26
167.34
154.69
142.39
132.38
125.81
123.04
123.69
126.58
129.42
128.49
119.04
96.80
59.94
10.69
-44.61
-97.36
-139.72
-167.28
-180.27
-182.69
-180.06
-176.91
-175.37
-175.20
-174.91
-173.26
-170.05
-166.10
-162.50
-159.98
-158.61
-158.24
-158.76
-160.14
-161.83
-162.13
-157.78
-144.49
-118.45
-78.09
-25.46
33.76
91.70
140.74
175.72
195.20
201.19
197.80
189.65
180.59
173.48
170.30
172.27
179.50
190.25
200.51
204.33
195.50
169.97
127.91
74.24
17.30
-33.96
-72.93
-97.21
-108.49
-110.98
-109.16
-106.10
-102.90
-99.21
-94.26
-87.73
-80.08
-72.32
-65.41
-59.84
-55.54
-52.00
-48.76
-45.61
-42.69
-40.05
-37.23
-33.10
-26.36
-16.29
-3.52
9.95
21.41
28.58
30.53
27.90
22.42
16.09
10.41
6.21
3.71
2.82
3.33
4.90
7.03
9.09
10.41
10.51
9.20
6.66
3.43
0.23
-2.24
-3.53
-3.64
-2.99
-2.25
-1.99
-2.47
-3.50
-4.66
-5.50
-5.81
-5.67
-5.35
-5.17
-5.32
-5.77
-6.28
-6.58
-6.47
-5.95
-5.20
-4.55
-4.27
-4.44
-4.94
-5.45
-5.62
-5.27
-4.44
-3.39
-2.42
-1.78
-1.50
-1.48
-1.52
-1.47
-1.31
-1.08
-0.92
-0.96
-1.26
-1.80
-2.41
-2.92
-3.15
-3.04
-2.67
-2.18
-1.74
-1.48
-1.37
-1.32
-1.19
-0.91
-0.49
-0.06
0.24
0.30
0.15
-0.11
-0.32
-0.37
-0.23
0.03
0.29
0.46
0.52
0.49
0.44
0.42
0.44
0.49
0.53
0.55
0.51
0.39
0.15
-0.18
-0.54
-0.85
-1.03
-1.02
-0.85
-0.55
-0.22
0.05
0.18
0.15
-0.00
-0.16
-0.19
-0.04
0.26
0.53
0.61
0.41
0.00
-0.44
-0.73
-0.76
-0.57
-0.26
0.05
0.33
0.57
0.78
0.91
0.93
0.82
0.61
0.41
0.30
0.32
0.41
0.46
0.40
0.21
-0.04
-0.27
-0.43
-0.53
-0.64
-0.81
-1.05
-1.30
-1.48
-1.52
-1.40
-1.14
-0.79
-0.42
-0.05
0.30
0.67
1.03
1.34
1.54
1.53
1.30
0.87
0.36
-0.12
-0.45
-0.61
-0.64
-0.59
-0.51
-0.40
-0.22
0.01
0.23
0.35
0.26
-0.05
-0.48
-0.89
-1.14
-1.16
-0.99
-0.74
-0.50
-0.31
-0.16
-0.01
0.16
0.33
0.43
0.43
0.34
0.18
-0.02
-0.20
-0.37
-0.49
-0.52
-0.42
-0.19
0.09
0.33
0.44
0.44
0.40
0.44
0.61
0.87
1.09
1.15
1.03
0.80
0.58
0.48
0.49
0.50
0.39
0.12
-0.27
-0.66
-0.92
-1.03
-1.02
-1.01
-1.11
-1.30
-1.52
-1.64
-1.55
-1.24
-0.77
-0.25
0.18
0.44
0.51
0.44
0.30
0.21
0.22
0.36
0.56
0.76
0.87
0.86
0.75
0.61
0.52
0.53
0.65
0.83
1.00
1.09
1.03
0.78
0.38
-0.09
-0.50
-0.72
-0.66
-0.35
0.08
0.47
0.66
0.60
0.35
0.04
-0.21
-0.32
-0.30
-0.22
-0.12
-0.03
0.07
0.22
0.38
0.51
0.52
0.35
0.08
-0.15
-0.18
0.09
0.62
1.21
1.64
1.68
1.32
0.66
-0.04
-0.56
-0.78
-0.74
-0.58
-0.44
-0.41
-0.47
-0.52
-0.52
-0.47
-0.45
-0.54
-0.78
-1.08
-1.31
-1.36
-1.21
-0.93
-0.65
-0.47
-0.46
-0.57
-0.74
-0.91
-1.02
-1.07
-1.06
-1.01
-0.93
-0.81
-0.64
-0.43
-0.18
0.08
0.29
0.44
0.52
0.54
0.58
0.69
0.89
1.11
1.26
1.26
1.06
0.71
0.33
0.03
-0.13
-0.17
-0.15
-0.13
-0.16
-0.19
-0.21
-0.19
-0.16
-0.18
-0.27
-0.40
-0.52
-0.59
-0.59
-0.57
-0.56
-0.59
-0.67
-0.75
-0.76
-0.68
-0.54
-0.38
-0.23
-0.12
-0.05
0.04
0.16
0.34
0.58
0.81
1.00
1.08
1.06
0.95
0.80
0.66
0.55
0.44
0.30
0.14
-0.04
-0.22
-0.36
-0.44
-0.43
-0.35
-0.22
-0.09
-0.06
-0.19
-0.47
-0.83
-1.12
-1.23
-1.11
-0.83
-0.50
-0.23
-0.07
-0.02
-0.06
-0.16
-0.33
-0.54
-0.74
-0.84
-0.77
-0.50
-0.08
0.40
0.82
1.13
1.30
1.32
1.24
1.09
0.92
0.77
0.67
0.60
0.52
0.37
0.13
-0.18
-0.48
-0.69
-0.75
-0.65
-0.43
-0.15
0.15
0.40
0.58
0.67
0.69
0.64
0.55
0.45
0.33
0.21
0.08
-0.04
-0.11
-0.09
-0.01
0.09
0.12
0.02
-0.18
-0.44
-0.65
-0.77
-0.77
-0.68
-0.54
-0.35
-0.13
0.13
0.37
0.50
0.46
0.26
-0.01
-0.22
-0.24
-0.08
0.16
0.37
0.46
0.44
0.38
0.33
0.28
0.18
0.00
-0.24
-0.44
-0.52
-0.42
-0.22
-0.02
0.05
-0.01
-0.14
-0.26
-0.25
-0.10
0.17
0.47
0.72
0.84
0.80
0.59
0.24
-0.18
-0.62
-0.99
-1.24
-1.33
-1.23
-0.94
-0.53
-0.11
0.17
0.23
0.06
-0.18
-0.30
-0.18
0.17
0.60
0.88
0.86
0.54
0.09
-0.29
-0.43
-0.35
-0.14
0.03
0.06
-0.06
-0.25
-0.38
-0.37
-0.23
-0.01
0.21
0.39
0.49
0.54
0.56
0.55
0.46
0.27
-0.05
-0.41
-0.70
-0.81
-0.66
-0.27
0.25
0.75
1.09
1.19
1.08
0.85
0.59
0.41
0.32
0.32
0.36
0.39
0.39
0.36
0.33
0.29
0.24
0.16
0.03
-0.16
-0.36
-0.55
-0.70
-0.80
-0.87
-0.93
-0.94
-0.87
-0.66
-0.31
0.08
0.40
0.53
0.45
0.23
-0.02
-0.18
-0.22
-0.17
-0.10
-0.06
-0.04
-0.03
-0.01
0.01
-0.02
-0.12
-0.30
-0.50
-0.69
-0.83
-0.89
-0.85
-0.70
-0.42
-0.05
0.33
0.62
0.72
0.62
0.38
0.08
-0.14
-0.23
-0.14
0.09
0.37
0.62
0.78
0.81
0.75
0.67
0.65
0.68
0.70
0.62
0.39
0.05
-0.27
-0.47
-0.48
-0.38
-0.29
-0.29
-0.39
-0.50
-0.54
-0.45
-0.27
-0.08
0.07
0.14
0.14
0.10
0.04
-0.03
-0.09
-0.12
-0.08
0.00
0.11
0.20
0.23
0.17
0.04
-0.14
-0.31
-0.43
-0.47
-0.44
-0.35
-0.25
-0.17
-0.11
-0.03
0.10
0.29
0.51
0.66
0.70
0.60
0.46
0.38
0.44
0.65
0.92
1.13
1.16
0.97
0.64
0.26
-0.04
-0.23
-0.32
-0.37
-0.46
-0.58
-0.70
-0.78
-0.80
-0.75
-0.68
-0.58
-0.47
-0.32
-0.14
0.02
0.09
0.02
-0.19
-0.45
-0.64
-0.65
-0.46
-0.14
0.16
0.36
0.41
0.37
0.34
0.38
0.48
0.57
0.59
0.50
0.35
0.21
0.13
0.12
0.09
-0.04
-0.32
-0.69
-1.01
-1.13
-0.97
-0.56
-0.07
0.30
0.42
0.29
0.02
-0.23
-0.37
-0.43
-0.48
-0.61
-0.79
-0.93
-0.88
-0.60
-0.12
0.42
0.84
1.04
1.01
0.80
0.50
0.17
-0.16
-0.44
-0.62
-0.65
-0.52
-0.27
0.02
0.25
0.38
0.47
0.60
0.80
1.05
1.26
1.33
1.25
1.07
0.87
0.71
0.58
0.42
0.14
-0.26
-0.76
-1.24
-1.59
-1.71
-1.58
-1.23
-0.73
-0.18
0.31
0.67
0.83
0.80
0.64
0.44
0.27
0.21
0.27
0.39
0.51
0.55
0.51
0.40
0.28
0.21
0.20
0.23
0.25
0.23
0.17
0.10
0.03
-0.03
-0.08
-0.12
-0.14
-0.14
-0.10
-0.02
0.06
0.12
0.14
0.10
-0.01
-0.17
-0.37
-0.56
-0.73
-0.83
-0.89
-0.95
-1.03
-1.14
-1.21
-1.13
-0.83
-0.32
0.31
0.85
1.14
1.12
0.83
0.41
-0.00
-0.28
-0.39
-0.35
-0.18
0.05
0.32
0.53
0.60
0.47
0.15
-0.23
-0.48
-0.48
-0.19
0.27
0.69
0.91
0.87
0.63
0.35
0.17
0.14
0.19
0.22
0.14
-0.05
-0.24
-0.31
-0.22
0.02
0.29
0.44
0.39
0.16
-0.11
-0.25
-0.15
0.16
0.53
0.77
0.75
0.45
-0.04
-0.56
-0.97
-1.19
-1.22
-1.09
-0.87
-0.63
-0.40
-0.22
-0.08
0.01
0.08
0.14
0.19
0.21
0.20
0.17
0.16
0.18
0.23
0.30
0.36
0.42
0.51
0.65
0.81
0.94
0.91
0.67
0.22
-0.31
-0.78
-1.01
-0.94
-0.59
-0.11
0.31
0.54
0.52
0.32
0.09
-0.05
-0.05
0.05
0.14
0.13
-0.01
-0.17
-0.28
-0.25
-0.14
-0.03
-0.05
-0.25
-0.58
-0.92
-1.14
-1.13
-0.86
-0.41
0.09
0.49
0.65
0.54
0.20
-0.25
-0.65
-0.92
-1.01
-0.95
-0.79
-0.59
-0.36
-0.14
0.06
0.20
0.25
0.19
0.06
-0.08
-0.15
-0.11
0.05
0.29
0.56
0.78
0.90
0.92
0.84
0.72
0.57
0.38
0.16
-0.12
-0.39
-0.56
-0.52
-0.21
0.28
0.79
1.13
1.19
0.96
0.58
0.23
-0.00
-0.10
-0.16
-0.24
-0.36
-0.42
-0.32
0.01
0.52
1.05
1.42
1.49
1.24
0.76
0.22
-0.23
-0.46
-0.48
-0.35
-0.21
-0.14
-0.18
-0.27
-0.37
-0.43
-0.44
-0.46
-0.49
-0.51
-0.47
-0.32
-0.05
0.26
0.52
0.66
0.65
0.54
0.36
0.13
-0.13
-0.41
-0.64
-0.72
-0.63
-0.38
-0.11
0.04
-0.00
-0.20
-0.45
-0.63
-0.71
-0.73
-0.75
-0.81
-0.86
-0.79
-0.57
-0.24
0.07
0.24
0.23
0.12
0.05
0.09
0.23
0.37
0.42
0.35
0.22
0.14
0.17
0.31
0.49
0.58
0.53
0.34
0.11
-0.05
-0.06
0.05
0.18
0.24
0.17
0.01
-0.11
-0.09
0.11
0.41
0.66
0.72
0.56
0.26
-0.05
-0.23
-0.24
-0.09
0.14
0.36
0.48
0.45
0.26
-0.06
-0.43
-0.77
-0.98
-1.02
-0.88
-0.62
-0.32
-0.05
0.10
0.13
0.07
-0.01
-0.04
0.03
0.16
0.32
0.44
0.48
0.43
0.33
0.20
0.09
-0.01
-0.09
-0.16
-0.25
-0.36
-0.47
-0.57
-0.60
-0.50
-0.24
0.17
0.64
1.04
1.26
1.22
0.96
0.58
0.19
-0.10
-0.25
-0.30
-0.29
-0.28
-0.26
-0.19
-0.04
0.16
0.36
0.46
0.40
0.15
-0.24
-0.69
-1.11
-1.41
-1.53
-1.45
-1.17
-0.76
-0.28
0.15
0.48
0.67
0.71
0.63
0.48
0.30
0.14
0.04
0.02
0.06
0.11
0.10
-0.03
-0.26
-0.51
-0.68
-0.65
-0.41
-0.04
0.36
0.65
0.78
0.77
0.67
0.55
0.44
0.37
0.34
0.35
0.38
0.40
0.37
0.26
0.09
-0.08
-0.19
-0.21
-0.16
-0.11
-0.13
-0.22
-0.35
-0.45
-0.46
-0.38
-0.26
-0.15
-0.12
-0.17
-0.27
-0.36
-0.38
-0.32
-0.20
-0.06
0.06
0.15
0.21
0.27
0.34
0.43
0.51
0.55
0.52
0.42
0.23
-0.02
-0.31
-0.58
-0.80
-0.91
-0.89
-0.72
-0.42
-0.03
0.37
0.67
0.81
0.73
0.46
0.08
-0.30
-0.57
-0.70
-0.67
-0.52
-0.29
-0.01
0.29
0.56
0.75
0.80
0.72
0.52
0.25
-0.02
-0.24
-0.41
-0.51
-0.53
-0.45
-0.24
0.11
0.53
0.90
1.09
1.00
0.63
0.08
-0.49
-0.88
-1.00
-0.86
-0.54
-0.18
0.14
0.36
0.51
0.61
0.67
0.69
0.69
0.70
0.74
0.82
0.91
0.92
0.78
0.47
0.05
-0.36
-0.65
-0.76
-0.73
-0.64
-0.59
-0.59
-0.59
-0.52
-0.31
0.01
0.34
0.53
0.48
0.15
-0.35
-0.86
-1.20
-1.28
-1.13
-0.86
-0.59
-0.41
-0.33
-0.30
-0.27
-0.25
-0.25
-0.29
-0.37
-0.43
-0.41
-0.26
-0.02
0.21
0.31
0.25
0.05
-0.17
-0.26
-0.14
0.19
0.61
0.97
1.12
1.06
0.87
0.69
0.65
0.76
0.96
1.12
1.16
1.04
0.82
0.56
0.34
0.17
0.03
-0.09
-0.19
-0.25
-0.26
-0.19
-0.06
0.09
0.22
0.26
0.18
-0.01
-0.25
-0.43
-0.48
-0.39
-0.24
-0.14
-0.15
-0.28
-0.46
-0.60
-0.63
-0.57
-0.46
-0.36
-0.31
-0.30
-0.32
-0.34
-0.37
-0.40
-0.42
-0.40
-0.30
-0.14
0.04
0.18
0.21
0.11
-0.06
-0.21
-0.25
-0.10
0.19
0.52
0.74
0.77
0.59
0.29
-0.02
-0.25
-0.37
-0.37
-0.29
-0.14
0.09
0.35
0.58
0.70
0.65
0.46
0.22
0.07
0.07
0.19
0.31
0.32
0.18
-0.07
-0.34
-0.55
-0.68
-0.76
-0.79
-0.74
-0.56
-0.24
0.13
0.43
0.50
0.30
-0.12
-0.59
-0.91
-0.94
-0.64
-0.07
0.60
1.22
1.62
1.71
1.48
1.02
0.47
-0.03
-0.39
-0.61
-0.72
-0.78
-0.78
-0.68
-0.41
0.03
0.55
0.99
1.22
1.17
0.92
0.59
0.28
0.06
-0.11
-0.26
-0.41
-0.53
-0.59
-0.57
-0.51
-0.48
-0.51
-0.59
-0.70
-0.76
-0.77
-0.74
-0.67
-0.58
-0.47
-0.30
-0.08
0.16
0.38
0.54
0.63
0.66
0.67
0.67
0.64
0.56
0.43
0.28
0.15
0.11
0.14
0.21
0.22
0.13
-0.08
-0.31
-0.45
-0.45
-0.31
-0.15
-0.03
0.01
0.04
0.17
0.44
0.78
1.05
1.10
0.88
0.47
0.06
-0.20
-0.23
-0.09
0.11
0.25
0.27
0.17
0.00
-0.19
-0.36
-0.51
-0.61
-0.66
-0.66
-0.62
-0.54
-0.48
-0.48
-0.58
-0.74
-0.88
-0.90
-0.69
-0.24
0.36
0.92
1.28
1.32
1.04
0.57
0.04
-0.41
-0.69
-0.80
-0.76
-0.64
-0.49
-0.36
-0.27
-0.22
-0.18
-0.13
-0.04
0.10
0.27
0.43
0.52
0.52
0.42
0.27
0.16
0.13
0.17
0.25
0.25
0.11
-0.16
-0.46
-0.67
-0.71
-0.58
-0.37
-0.20
-0.13
-0.15
-0.18
-0.16
-0.04
0.14
0.32
0.43
0.43
0.34
0.20
0.09
0.04
0.08
0.18
0.31
0.41
0.44
0.41
0.34
0.30
0.31
0.40
0.51
0.62
0.67
0.64
0.53
0.34
0.06
-0.29
-0.64
-0.90
-0.97
-0.80
-0.45
-0.06
0.22
0.26
0.07
-0.24
-0.54
-0.70
-0.69
-0.59
-0.47
-0.40
-0.40
-0.41
-0.41
-0.39
-0.38
-0.38
-0.39
-0.34
-0.20
0.02
0.26
0.40
0.39
0.24
0.06
-0.04
-0.00
0.16
0.35
0.48
0.50
0.41
0.31
0.25
0.26
0.34
0.43
0.49
0.51
0.52
0.55
0.65
0.82
1.01
1.18
1.28
1.26
1.11
0.83
0.47
0.11
-0.17
-0.28
-0.18
0.07
0.38
0.61
0.63
0.43
0.06
-0.36
-0.68
-0.82
-0.75
-0.56
-0.36
-0.27
-0.35
-0.57
-0.85
-1.06
-1.09
-0.91
-0.56
-0.18
0.10
0.15
-0.04
-0.40
-0.81
-1.14
-1.32
-1.30
-1.12
-0.81
-0.41
0.04
0.48
0.83
0.99
0.88
0.53
0.06
-0.36
-0.57
-0.51
-0.23
0.15
0.49
0.72
0.80
0.77
0.64
0.45
0.20
-0.08
-0.34
-0.53
-0.58
-0.46
-0.18
0.20
0.60
0.89
1.01
0.96
0.78
0.56
0.33
0.10
-0.15
-0.41
-0.66
-0.83
-0.86
-0.74
-0.53
-0.29
-0.12
-0.04
-0.02
0.01
0.09
0.26
0.44
0.52
0.43
0.14
-0.28
-0.68
-0.92
-0.92
-0.68
-0.28
0.14
0.48
0.70
0.79
0.78
0.73
0.67
0.62
0.57
0.50
0.38
0.19
-0.04
-0.20
-0.23
-0.08
0.18
0.43
0.52
0.39
0.07
-0.28
-0.51
-0.53
-0.35
-0.10
0.10
0.15
0.07
-0.07
-0.19
-0.21
-0.17
-0.10
-0.06
-0.08
-0.15
-0.21
-0.21
-0.12
0.06
0.26
0.44
0.54
0.51
0.35
0.07
-0.26
-0.57
-0.74
-0.70
-0.45
-0.04
0.38
0.68
0.73
0.54
0.19
-0.18
-0.42
-0.51
-0.48
-0.44
-0.47
-0.60
-0.74
-0.79
-0.68
-0.42
-0.11
0.13
0.19
0.06
-0.21
-0.49
-0.68
-0.70
-0.56
-0.34
-0.12
0.02
0.08
0.08
0.10
0.17
0.28
0.37
0.38
0.26
0.05
-0.15
-0.25
-0.18
0.05
0.38
0.70
0.91
0.93
0.75
0.40
-0.00
-0.34
-0.48
-0.38
-0.05
0.37
0.76
0.99
1.03
0.91
0.71
0.51
0.36
0.26
0.21
0.23
0.33
0.50
0.71
0.90
0.98
0.88
0.58
0.12
-0.38
-0.81
-1.07
-1.12
-1.01
-0.87
-0.83
-0.95
-1.19
-1.44
-1.55
-1.48
-1.24
-0.97
-0.79
-0.78
-0.91
-1.09
-1.21
-1.21
-1.10
-0.94
-0.83
-0.83
-0.97
-1.23
-1.55
-1.88
-2.17
-2.38
-2.52
-2.63
-2.79
-3.08
-3.58
-4.31
-5.21
-6.22
-7.21
-8.10
-8.81
-9.32
-9.71
-10.10
-10.66
-11.45
-12.42
-13.37
-14.06
-14.34
-14.26
-14.13
-14.38
-15.37
-17.22
-19.68
-22.31
-24.61
-26.08
-26.19
-24.39
-20.16
-13.30
-4.30
5.57
14.44
20.47
22.58
20.85
16.51
11.24
6.42
2.59
-0.64
-4.20
-9.03
-15.69
-24.19
-34.03
-44.31
-53.91
-61.76
-67.14
-70.04
-71.25
-72.13
-74.13
-78.20
-84.47
-92.15
-99.47
-103.73
-101.54
-89.64
-66.28
-32.51
7.31
46.57
78.73
99.85
109.95
112.45
112.04
112.12
113.54
114.95
114.49
111.40
106.72
102.59
100.88
102.24
105.91
110.30
113.97
116.22
117.29
118.03
119.43
122.39
127.61
135.40
145.27
155.48
162.72
162.46
150.24
123.36
82.51
32.08
-20.92
-69.07
-106.85
-131.89
-144.95
-148.74
-146.49
-140.85
-133.58
-125.70
-117.68
-109.45
-100.48
-89.96
-77.42
-63.11
-48.28
-34.77
-24.22
-17.37
-13.81
-12.31
-11.37
-9.85
-7.20
-3.43
1.09
5.83
10.21
13.60
15.43
15.35
13.38
10.04
6.18
2.79
0.64
0.04
0.70
1.86
2.67
2.52
1.27
-0.76
-3.04
-5.08
-6.63
-7.76
-8.76
-10.03
-11.98
-14.84
-18.57
-22.73
-26.60
-29.40
-30.64
-30.36
-29.16
-27.89
-27.23
-27.41
-28.12
-28.83
-29.12
-29.03
-29.01
-29.78
-31.95
-35.82
-41.24
-47.71
-54.50
-60.76
-65.67
-68.67
-69.72
-69.44
-69.09
-70.11
-73.47
-79.23
-86.33
-93.11
-98.09
-100.65
-101.17
-100.67
-100.11
-99.99
-100.49
-101.80
-104.32
-108.28
-112.99
-116.29
-114.66
-104.23
-82.09
-47.28
-1.06
53.61
112.80
172.14
227.29
274.24
310.03
333.45
345.51
349.28
348.92
348.33
349.97
354.11
358.94
361.19
357.26
344.23
320.74
287.27
245.76
198.62
147.77
94.29
38.94
-16.67
-69.43
-114.96
-149.05
-169.44
-176.94
-175.09
-168.55
-161.20
-154.83
-149.23
-143.23
-136.07
-128.10
-120.49
-114.42
-110.22
-107.15
-103.86
-99.18
-92.72
-84.96
-77.01
-69.96
-64.39
-60.18
-56.66
-53.00
-48.63
-43.47
-37.95
-32.76
-28.50
-25.43
-23.35
-21.79
-20.17
-18.12
-15.59
-12.81
-10.13
-7.84
-6.06
-4.68
-3.52
-2.38
-1.25
-0.23
0.50
0.81
0.68
0.25
-0.24
-0.63
-0.87
-1.04
-1.27
-1.66
-2.19
-2.79
-3.32
-3.76
-4.17
-4.69
-5.46
-6.50
-7.75
-9.05
-10.24
-11.21
-11.96
-12.58
-13.20
-13.99
-15.03
-16.37
-17.94
-19.64
-21.33
-22.94
-24.43
-25.82
-27.14
-28.44
-29.88
-31.64
-33.87
-36.55
-39.33
-41.67
-43.02
-43.16
-42.40
-41.51
-41.42
-42.88
-46.18
-51.12
-57.19
-63.81
-70.62
-77.52
-84.67
-92.41
-100.98
-110.33
-120.08
-129.62
-138.33
-145.63
-150.76
-152.57
-149.29
-138.81
-119.30
-89.82
-50.65
-3.07
50.93
108.87
167.61
223.26
271.44
308.28
331.69
342.32
343.40
339.61
335.44
333.86
335.71
339.89
343.86
344.41
338.36
323.17
297.67
262.27
218.70
169.21
115.77
59.91
3.30
-51.58
-101.08
-141.23
-169.05
-183.92
-187.88
-184.72
-178.37
-171.45
-164.76
-157.83
-149.95
-141.08
-132.00
-123.81
-117.19
-112.01
-107.41
-102.42
-96.54
-90.11
-84.13
-79.71
-77.35
-76.62
-76.29
-74.91
-71.54
-66.14
-59.53
-52.91
-47.27
-43.00
-39.91
-37.55
-35.58
-34.09
-33.55
-34.57
-37.45
-41.95
-47.21
-51.94
-55.03
-56.03
-55.52
-55.00
-56.47
-61.68
-71.39
-84.71
-98.92
-109.75
-112.28
-102.25
-77.47
-38.67
10.49
64.28
116.52
162.11
197.89
222.94
238.05
245.09
246.32
243.88
239.37
233.47
225.99
216.25
203.67
188.01
169.06
146.17
118.19
84.13
44.47
2.17
-37.60
-69.12
-88.56
-95.65
-93.71
-87.83
-82.39
-79.30
-77.91
-76.34
-73.11
-68.21
-62.84
-58.39
-55.61
-54.19
-53.09
-51.24
-48.09
-43.84
-39.28
-35.28
-32.36
-30.55
-29.47
-28.58
-27.66
-26.83
-26.55
-27.23
-28.94
-31.28
-33.49
-34.80
-34.67
-32.98
-29.97
-26.07
-21.78
-17.54
-13.71
-10.49
-7.93
-5.88
-4.15
-2.54
-1.02
0.39
1.64
2.77
3.90
5.12
6.48
7.90
9.27
10.45
11.36
11.87
11.86
11.21
9.94
8.26
6.54
5.19
4.48
4.45
4.89
5.51
6.03
6.30
6.25
5.92
5.33
4.57
3.69
2.73
1.71
0.62
-0.48
-1.49
-2.29
-2.76
-2.89
-2.77
-2.53
-2.26
-1.98
-1.60
-1.03
-0.24
0.67
1.51
2.08
2.29
2.14
1.75
1.24
0.66
0.05
-0.58
-1.16
-1.58
-1.72
-1.56
-1.18
-0.71
-0.32
-0.08
0.03
0.07
0.08
0.05
-0.08
-0.34
-0.69
-1.03
-1.22
-1.21
-1.00
-0.71
-0.44
-0.29
-0.28
-0.37
-0.51
-0.65
-0.73
-0.74
-0.64
-0.44
-0.15
0.18
0.45
0.56
0.47
0.22
-0.10
-0.35
-0.41
-0.28
-0.03
0.21
0.31
0.24
0.02
-0.27
-0.58
-0.89
-1.18
-1.40
-1.49
-1.35
-0.98
-0.47
-0.00
0.23
0.17
-0.11
-0.43
-0.60
-0.52
-0.25
0.09
0.33
0.40
0.28
0.07
-0.16
-0.31
-0.32
-0.20
0.02
0.25
0.40
0.40
0.22
-0.13
-0.59
-1.08
-1.50
-1.80
-1.91
-1.83
-1.57
-1.20
-0.82
-0.50
-0.28
-0.14
-0.05
0.04
0.11
0.12
0.00
-0.27
-0.66
-1.06
-1.39
-1.55
-1.55
-1.49
-1.47
-1.63
-2.02
-2.56
-3.13
-3.60
-3.88
-3.98
-3.96
-3.93
-3.91
-3.89
-3.81
-3.65
-3.43
-3.25
-3.19
-3.31
-3.59
-3.95
-4.30
-4.57
-4.71
-4.73
-4.66
-4.56
-4.49
-4.48
-4.52
-4.54
-4.45
-4.19
-3.76
-3.28
-2.94
-2.96
-3.43
-4.32
-5.47
-6.53
-7.06
-6.51
-4.34
-0.28
5.53
12.37
19.11
24.47
27.51
27.89
25.99
22.66
18.79
15.05
11.72
8.78
6.17
3.85
1.92
0.47
-0.50
-1.12
-1.56
-1.98
-2.42
-2.80
-2.98
-2.89
-2.51
-1.93
-1.25
-0.53
0.21
1.01
1.90
2.87
3.86
4.71
5.24
5.25
4.63
3.38
1.67
-0.20
-1.93
-3.23
-4.01
-4.31
-4.29
-4.14
-4.00
-3.95
-4.00
-4.11
-4.22
-4.27
-4.19
-3.91
-3.41
-2.72
-1.90
-1.05
-0.22
0.61
1.49
2.49
3.61
4.82
6.02
7.16
8.20
9.14
9.91
10.38
10.38
9.75
8.49
6.71
4.62
2.42
0.28
-1.69
-3.42
-4.82
-5.78
-6.24
-6.21
-5.80
-5.19
-4.54
-3.93
-3.40
-2.92
-2.49
-2.16
-1.96
-1.92
-2.01
-2.15
-2.23
-2.20
-2.02
-1.73
-1.39
-1.05
-0.78
-0.59
-0.50
-0.51
-0.60
-0.70
-0.75
-0.73
-0.64
-0.50
-0.38
-0.29
-0.24
-0.21
-0.18
-0.18
-0.21
-0.31
-0.49
-0.69
-0.83
-0.85
-0.72
-0.48
-0.24
-0.10
-0.15
-0.34
-0.59
-0.73
-0.68
-0.42
-0.01
0.44
0.83
1.08
1.18
1.16
1.04
0.87
0.68
0.47
0.28
0.12
-0.00
-0.07
-0.09
-0.08
-0.05
-0.03
-0.04
-0.06
-0.09
-0.13
-0.20
-0.32
-0.48
-0.67
-0.83
-0.92
-0.93
-0.90
-0.88
-0.90
-0.95
-1.00
-0.98
-0.87
-0.67
-0.38
-0.06
0.24
0.47
0.53
0.40
0.14
-0.17
-0.36
-0.35
-0.14
0.17
0.46
0.61
0.64
0.60
0.60
0.70
0.88
1.04
1.09
0.96
0.68
0.30
-0.08
-0.38
-0.57
-0.65
-0.63
-0.53
-0.37
-0.16
0.07
0.32
0.57
0.83
1.10
1.36
1.58
1.73
1.78
1.72
1.53
1.17
0.67
0.09
-0.46
-0.88
-1.07
-1.03
-0.82
-0.54
-0.31
-0.17
-0.12
-0.13
-0.13
-0.05
0.15
0.45
0.76
0.97
1.00
0.80
0.43
-0.02
-0.44
-0.77
-1.00
-1.12
-1.13
-1.03
-0.81
-0.52
-0.25
-0.09
-0.10
-0.27
-0.51
-0.71
-0.75
-0.60
-0.31
0.00
0.21
0.23
0.08
-0.19
-0.47
-0.65
-0.69
-0.60
-0.45
-0.31
-0.25
-0.32
-0.47
-0.66
-0.81
-0.89
-0.86
-0.78
-0.67
-0.59
-0.51
-0.37
-0.15
0.17
0.52
0.81
1.01
1.10
1.11
1.10
1.08
1.05
0.97
0.85
0.70
0.53
0.36
0.18
0.02
-0.11
-0.16
-0.10
0.04
0.19
0.28
0.25
0.13
-0.05
-0.23
-0.37
-0.50
-0.62
-0.75
-0.84
-0.85
-0.80
-0.72
-0.66
-0.69
-0.78
-0.90
-0.96
-0.94
-0.85
-0.76
-0.72
-0.74
-0.78
-0.77
-0.65
-0.42
-0.12
0.19
0.46
0.69
0.87
0.99
1.01
0.90
0.63
0.28
-0.06
-0.27
-0.30
-0.16
0.06
0.27
0.40
0.45
0.45
0.42
0.39
0.36
0.33
0.32
0.34
0.37
0.39
0.37
0.28
0.13
-0.08
-0.29
-0.48
-0.63
-0.69
-0.64
-0.48
-0.25
-0.05
0.02
-0.12
-0.44
-0.85
-1.21
-1.39
-1.33
-1.07
-0.69
-0.30
0.04
0.31
0.52
0.64
0.63
0.49
0.24
-0.03
-0.23
-0.27
-0.15
0.10
0.41
0.68
0.87
0.96
0.94
0.83
0.70
0.61
0.62
0.72
0.85
0.92
0.89
0.79
0.67
0.61
0.62
0.66
0.66
0.56
0.38
0.15
-0.07
-0.30
-0.55
-0.84
-1.13
-1.33
-1.32
-1.07
-0.65
-0.22
0.05
0.05
-0.18
-0.49
-0.70
-0.69
-0.48
-0.15
0.16
0.37
0.43
0.41
0.38
0.39
0.48
0.63
0.79
0.91
0.95
0.91
0.78
0.58
0.32
0.01
-0.33
-0.64
-0.88
-0.99
-0.95
-0.79
-0.56
-0.34
-0.20
-0.18
-0.28
-0.45
-0.60
-0.67
-0.60
-0.40
-0.14
0.08
0.15
0.03
-0.28
-0.66
-0.96
-1.08
-0.96
-0.65
-0.25
0.13
0.42
0.63
0.77
0.87
0.88
0.80
0.61
0.37
0.20
0.16
0.25
0.38
0.42
0.33
0.13
-0.06
-0.12
-0.01
0.19
0.36
0.35
0.13
-0.22
-0.54
-0.70
-0.60
-0.30
0.05
0.30
0.33
0.16
-0.09
-0.26
-0.24
-0.02
0.29
0.54
0.67
0.65
0.58
0.55
0.61
0.73
0.85
0.89
0.80
0.60
0.33
0.06
-0.17
-0.34
-0.45
-0.52
-0.57
-0.64
-0.71
-0.77
-0.78
-0.67
-0.46
-0.20
0.04
0.16
0.11
-0.05
-0.22
-0.29
-0.19
0.03
0.26
0.40
0.38
0.23
0.00
-0.23
-0.44
-0.58
-0.65
-0.63
-0.51
-0.32
-0.13
-0.05
-0.11
-0.29
-0.49
-0.58
-0.48
-0.19
0.19
0.52
0.70
0.69
0.52
0.29
0.08
-0.04
-0.03
0.09
0.29
0.52
0.74
0.89
0.95
0.91
0.78
0.59
0.38
0.19
0.05
-0.02
-0.01
0.07
0.19
0.29
0.30
0.19
-0.04
-0.34
-0.59
-0.72
-0.68
-0.50
-0.26
-0.05
0.05
0.01
-0.12
-0.26
-0.34
-0.29
-0.11
0.16
0.44
0.65
0.72
0.60
0.30
-0.14
-0.62
-1.04
-1.26
-1.23
-0.92
-0.44
0.08
0.47
0.66
0.66
0.55
0.42
0.33
0.28
0.27
0.28
0.33
0.41
0.48
0.49
0.40
0.21
-0.02
-0.21
-0.30
-0.27
-0.18
-0.09
-0.08
-0.20
-0.46
-0.83
-1.25
-1.61
-1.77
-1.65
-1.23
-0.63
-0.01
0.47
0.73
0.76
0.63
0.42
0.20
-0.00
-0.14
-0.20
-0.16
-0.03
0.14
0.30
0.40
0.47
0.53
0.62
0.69
0.67
0.49
0.15
-0.21
-0.43
-0.40
-0.13
0.23
0.50
0.58
0.52
0.41
0.36
0.36
0.35
0.21
-0.05
-0.36
-0.55
-0.53
-0.32
-0.02
0.19
0.25
0.14
-0.02
-0.15
-0.17
-0.13
-0.07
-0.06
-0.11
-0.18
-0.23
-0.23
-0.17
-0.12
-0.10
-0.13
-0.19
-0.24
-0.24
-0.15
-0.02
0.12
0.23
0.28
0.29
0.29
0.31
0.33
0.31
0.20
0.01
-0.23
-0.43
-0.51
-0.45
-0.30
-0.14
-0.03
0.02
0.05
0.10
0.20
0.32
0.41
0.45
0.42
0.34
0.23
0.10
-0.02
-0.09
-0.06
0.08
0.31
0.52
0.60
0.48
0.16
-0.25
-0.60
-0.80
-0.81
-0.68
-0.49
-0.30
-0.13
0.03
0.19
0.32
0.41
0.41
0.34
0.22
0.13
0.08
0.07
0.07
0.03
-0.04
-0.10
-0.10
-0.03
0.08
0.16
0.13
-0.05
-0.31
-0.57
-0.72
-0.72
-0.59
-0.39
-0.18
0.05
0.30
0.57
0.79
0.87
0.74
0.41
-0.05
-0.49
-0.79
-0.91
-0.86
-0.73
-0.57
-0.41
-0.25
-0.07
0.13
0.33
0.50
0.62
0.70
0.77
0.86
0.95
0.99
0.96
0.84
0.66
0.48
0.38
0.37
0.42
0.50
0.53
0.49
0.34
0.07
-0.30
-0.76
-1.21
-1.54
-1.62
-1.42
-0.98
-0.47
-0.10
0.02
-0.10
-0.36
-0.56
-0.60
-0.43
-0.13
0.16
0.31
0.26
-0.01
-0.40
-0.80
-1.08
-1.17
-1.04
-0.74
-0.34
0.05
0.37
0.56
0.60
0.53
0.39
0.22
0.07
-0.01
0.00
0.07
0.15
0.18
0.14
0.07
0.05
0.14
0.33
0.55
0.67
0.63
0.42
0.14
-0.08
-0.16
-0.10
0.05
0.21
0.36
0.48
0.59
0.66
0.63
0.48
0.20
-0.12
-0.39
-0.52
-0.47
-0.27
-0.01
0.21
0.31
0.26
0.09
-0.12
-0.31
-0.41
-0.42
-0.39
-0.33
-0.30
-0.29
-0.30
-0.32
-0.35
-0.37
-0.36
-0.26
-0.06
0.22
0.54
0.80
0.94
0.93
0.79
0.57
0.31
0.04
-0.24
-0.51
-0.74
-0.88
-0.89
-0.76
-0.52
-0.25
0.01
0.19
0.26
0.21
0.04
-0.18
-0.36
-0.40
-0.23
0.12
0.51
0.80
0.87
0.75
0.54
0.40
0.43
0.60
0.79
0.87
0.78
0.55
0.29
0.12
0.11
0.23
0.40
0.53
0.56
0.48
0.35
0.20
0.08
-0.01
-0.06
-0.12
-0.20
-0.30
-0.39
-0.46
-0.51
-0.60
-0.76
-1.01
-1.34
-1.65
-1.84
-1.83
-1.62
-1.25
-0.82
-0.40
-0.04
0.28
0.54
0.71
0.75
0.65
0.48
0.34
0.32
0.49
0.76
1.03
1.15
1.10
0.90
0.68
0.52
0.48
0.53
0.59
0.58
0.48
0.27
0.01
-0.22
-0.39
-0.46
-0.45
-0.41
-0.40
-0.44
-0.55
-0.72
-0.91
-1.08
-1.19
-1.21
-1.10
-0.89
-0.60
-0.30
-0.03
0.19
0.38
0.56
0.76
0.93
1.03
0.97
0.73
0.36
-0.00
-0.24
-0.25
-0.04
0.30
0.65
0.89
0.98
0.93
0.81
0.66
0.52
0.39
0.27
0.17
0.06
-0.11
-0.39
-0.77
-1.18
-1.49
-1.58
-1.41
-1.06
-0.66
-0.36
-0.21
-0.19
-0.20
-0.19
-0.15
-0.11
-0.12
-0.17
-0.22
-0.22
-0.14
0.00
0.13
0.19
0.15
0.03
-0.10
-0.18
-0.18
-0.10
-0.00
0.06
0.08
0.09
0.16
0.34
0.59
0.81
0.89
0.79
0.55
0.30
0.15
0.17
0.33
0.55
0.72
0.79
0.77
0.70
0.66
0.66
0.71
0.77
0.82
0.83
0.81
0.74
0.65
0.53
0.37
0.17
-0.07
-0.29
-0.46
-0.54
-0.56
-0.54
-0.54
-0.59
-0.69
-0.84
-1.01
-1.20
-1.42
-1.64
-1.79
-1.80
-1.58
-1.12
-0.52
0.05
0.43
0.53
0.38
0.11
-0.16
-0.32
-0.34
-0.24
-0.08
0.07
0.16
0.18
0.12
-0.00
-0.13
-0.20
-0.18
-0.05
0.14
0.34
0.48
0.54
0.52
0.45
0.37
0.30
0.26
0.22
0.16
0.08
-0.03
-0.15
-0.26
-0.31
-0.28
-0.14
0.07
0.29
0.43
0.45
0.33
0.16
0.03
0.04
0.21
0.47
0.70
0.78
0.66
0.36
-0.05
-0.43
-0.71
-0.85
-0.85
-0.76
-0.58
-0.35
-0.09
0.14
0.31
0.35
0.32
0.30
0.38
0.62
0.97
1.28
1.37
1.17
0.72
0.19
-0.22
-0.38
-0.30
-0.07
0.17
0.34
0.46
0.53
0.59
0.59
0.47
0.18
-0.25
-0.69
-1.02
-1.13
-1.02
-0.76
-0.51
-0.34
-0.28
-0.27
-0.23
-0.14
-0.05
-0.03
-0.12
-0.32
-0.54
-0.68
-0.67
-0.53
-0.31
-0.11
0.01
0.03
-0.03
-0.12
-0.21
-0.24
-0.20
-0.10
0.05
0.17
0.23
0.20
0.09
-0.04
-0.15
-0.19
-0.20
-0.20
-0.26
-0.39
-0.58
-0.76
-0.84
-0.76
-0.52
-0.16
0.24
0.61
0.87
1.00
1.01
0.91
0.74
0.53
0.34
0.21
0.16
0.22
0.35
0.48
0.54
0.48
0.28
-0.02
-0.33
-0.56
-0.64
-0.56
-0.37
-0.17
-0.03
0.05
0.09
0.14
0.25
0.40
0.50
0.49
0.36
0.15
-0.05
-0.18
-0.19
-0.15
-0.13
-0.19
-0.33
-0.48
-0.54
-0.44
-0.19
0.13
0.40
0.56
0.62
0.64
0.69
0.78
0.85
0.81
0.64
0.36
0.08
-0.09
-0.12
-0.06
0.03
0.05
-0.00
-0.08
-0.15
-0.15
-0.12
-0.11
-0.18
-0.33
-0.53
-0.67
-0.70
-0.58
-0.36
-0.12
0.07
0.18
0.22
0.20
0.14
0.01
-0.22
-0.51
-0.80
-0.98
-1.02
-0.91
-0.72
-0.50
-0.27
-0.02
0.25
0.48
0.60
0.54
0.32
0.04
-0.13
-0.09
0.14
0.45
0.65
0.64
0.43
0.15
-0.01
0.02
0.22
0.45
0.57
0.51
0.30
0.06
-0.14
-0.25
-0.30
-0.33
-0.36
-0.33
-0.23
-0.05
0.17
0.35
0.46
0.50
0.50
0.48
0.45
0.39
0.28
0.17
0.12
0.18
0.34
0.53
0.64
0.58
0.34
-0.01
-0.37
-0.61
-0.70
-0.67
-0.59
-0.57
-0.63
-0.77
-0.92
-1.03
-1.07
-1.00
-0.83
-0.56
-0.23
0.10
0.37
0.52
0.54
0.48
0.39
0.34
0.34
0.33
0.28
0.18
0.11
0.16
0.37
0.74
1.13
1.41
1.45
1.21
0.76
0.22
-0.29
-0.66
-0.85
-0.87
-0.78
-0.64
-0.51
-0.40
-0.32
-0.26
-0.19
-0.11
-0.06
-0.07
-0.14
-0.28
-0.42
-0.50
-0.49
-0.37
-0.17
0.03
0.15
0.15
0.01
-0.21
-0.44
-0.60
-0.65
-0.59
-0.44
-0.26
-0.08
0.08
0.18
0.21
0.16
0.04
-0.09
-0.15
-0.09
0.13
0.44
0.74
0.93
0.98
0.91
0.83
0.80
0.84
0.89
0.86
0.71
0.43
0.11
-0.13
-0.22
-0.15
-0.01
0.10
0.09
-0.04
-0.26
-0.47
-0.61
-0.68
-0.69
-0.66
-0.58
-0.43
-0.19
0.08
0.31
0.35
0.15
-0.28
-0.79
-1.20
-1.34
-1.15
-0.71
-0.17
0.31
0.64
0.80
0.86
0.89
0.93
0.97
0.95
0.85
0.66
0.45
0.30
0.27
0.32
0.37
0.33
0.11
-0.25
-0.64
-0.94
-1.01
-0.86
-0.53
-0.14
0.20
0.39
0.43
0.31
0.09
-0.17
-0.40
-0.55
-0.64
-0.72
-0.83
-0.98
-1.11
-1.11
-0.90
-0.51
-0.05
0.29
0.38
0.21
-0.07
-0.27
-0.26
-0.05
0.26
0.52
0.67
0.75
0.86
1.09
1.41
1.73
1.92
1.87
1.58
1.12
0.59
0.11
-0.25
-0.45
-0.55
-0.57
-0.58
-0.56
-0.51
-0.39
-0.20
0.03
0.25
0.40
0.44
0.40
0.32
0.23
0.14
0.02
-0.15
-0.35
-0.50
-0.53
-0.42
-0.20
0.03
0.14
0.07
-0.16
-0.43
-0.60
-0.61
-0.50
-0.36
-0.31
-0.38
-0.50
-0.58
-0.59
-0.54
-0.49
-0.52
-0.59
-0.62
-0.52
-0.25
0.12
0.47
0.68
0.70
0.56
0.34
0.15
0.07
0.12
0.28
0.50
0.67
0.73
0.66
0.51
0.36
0.29
0.29
0.31
0.25
0.05
-0.28
-0.66
-0.98
-1.10
-0.97
-0.60
-0.11
0.36
0.67
0.72
0.54
0.25
-0.01
-0.13
-0.08
0.07
0.25
0.35
0.37
0.33
0.28
0.24
0.17
0.01
-0.27
-0.63
-0.97
-1.16
-1.13
-0.87
-0.48
-0.10
0.14
0.21
0.13
0.01
-0.05
0.01
0.18
0.37
0.47
0.41
0.15
-0.25
-0.68
-0.98
-1.03
-0.83
-0.45
-0.02
0.34
0.54
0.57
0.49
0.34
0.20
0.09
0.04
0.06
0.14
0.27
0.43
0.60
0.74
0.84
0.84
0.73
0.52
0.26
0.04
-0.05
0.03
0.21
0.39
0.46
0.37
0.17
-0.07
-0.23
-0.28
-0.22
-0.13
-0.07
-0.08
-0.13
-0.17
-0.15
-0.08
-0.01
-0.01
-0.12
-0.32
-0.56
-0.74
-0.83
-0.81
-0.73
-0.63
-0.54
-0.45
-0.32
-0.14
0.09
0.32
0.48
0.53
0.45
0.25
0.01
-0.20
-0.31
-0.32
-0.24
-0.13
-0.03
0.03
0.07
0.10
0.10
0.05
-0.07
-0.23
-0.34
-0.34
-0.17
0.11
0.40
0.57
0.55
0.39
0.18
0.03
-0.03
-0.02
-0.00
-0.02
-0.06
-0.11
-0.15
-0.19
-0.27
-0.43
-0.65
-0.90
-1.10
-1.19
-1.17
-1.06
-0.89
-0.69
-0.46
-0.22
-0.03
0.04
-0.07
-0.37
-0.81
-1.27
-1.67
-1.97
-2.20
-2.48
-2.86
-3.38
-3.96
-4.47
-4.81
-4.93
-4.87
-4.71
-4.56
-4.49
-4.57
-4.86
-5.41
-6.26
-7.37
-8.64
-9.89
-10.98
-11.86
-12.66
-13.66
-15.09
-17.10
-19.57
-22.18
-24.56
-26.36
-27.43
-27.82
-27.83
-27.97
-28.90
-31.12
-34.60
-38.44
-41.00
-40.44
-35.64
-27.00
-16.57
-7.42
-2.46
-3.23
-9.37
-18.86
-29.11
-37.88
-44.09
-47.93
-50.43
-52.93
-56.72
-62.83
-71.82
-83.30
-95.40
-104.52
-105.90
-95.25
-70.66
-34.07
8.86
50.53
84.03
105.51
114.97
115.33
110.51
103.62
96.23
88.72
81.19
74.09
68.22
64.21
62.03
60.92
59.71
57.41
53.67
48.85
43.82
39.50
36.49
34.88
34.32
34.22
33.97
33.14
31.55
29.31
26.74
24.32
22.58
21.94
22.53
24.12
26.13
27.77
28.37
27.68
26.06
24.46
24.03
25.67
29.61
35.28
41.54
47.11
50.87
52.03
50.30
46.32
42.41
42.72
52.27
74.72
109.77
151.82
190.95
216.31
220.08
200.14
159.97
106.38
46.62
-13.45
-69.45
-117.61
-154.29
-176.55
-183.57
-177.61
-163.65
-147.67
-134.55
-126.59
-123.36
-122.66
-121.89
-119.24
-114.25
-107.66
-100.96
-95.67
-92.76
-92.22
-93.19
-94.30
-94.21
-92.06
-87.62
-81.44
-74.62
-68.43
-63.75
-60.30
-55.97
-46.88
-28.25
3.81
50.34
108.31
170.71
228.22
271.63
294.12
292.61
268.07
224.93
170.09
111.64
57.43
13.64
-16.39
-32.55
-37.39
-34.85
-28.86
-22.45
-17.50
-15.00
-15.45
-18.78
-24.35
-30.93
-36.95
-41.10
-42.86
-42.63
-41.46
-40.45
-40.29
-40.96
-41.89
-42.30
-41.64
-39.78
-37.07
-34.14
-31.66
-29.97
-29.06
-28.59
-28.12
-27.30
-26.04
-24.45
-22.77
-21.20
-19.85
-18.68
-17.62
-16.56
-15.45
-14.31
-13.20
-12.24
-11.55
-11.25
-11.45
-12.23
-13.57
-15.33
-17.25
-19.03
-20.45
-21.55
-22.62
-24.18
-26.77
-30.65
-35.66
-41.17
-46.27
-50.20
-52.71
-54.28
-55.98
-59.06
-64.40
-72.06
-81.30
-90.93
-99.90
-107.77
-114.88
-122.18
-130.67
-141.09
-153.70
-168.24
-184.04
-199.88
-213.87
-223.48
-225.92
-218.85
-201.18
-173.50
-137.72
-96.29
-51.25
-3.90
44.79
93.29
138.93
178.14
207.59
225.53
232.65
231.78
226.70
220.64
215.42
211.35
207.93
204.70
201.65
199.17
197.58
196.84
196.55
196.31
195.99
195.80
196.21
197.54
199.88
202.96
206.51
210.44
214.86
219.93
225.58
231.46
236.92
241.12
243.07
241.57
235.22
222.65
202.94
176.03
142.88
105.12
64.32
21.26
-24.17
-72.29
-122.49
-172.37
-217.89
-254.57
-279.21
-291.16
-292.44
-286.73
-277.70
-267.83
-258.05
-248.41
-239.07
-230.82
-224.90
-222.17
-222.41
-224.23
-225.70
-225.42
-223.32
-220.70
-219.65
-221.89
-227.98
-236.93
-246.43
-253.41
-254.65
-247.35
-229.52
-200.52
-161.63
-116.24
-69.26
-25.71
11.17
41.08
66.58
91.59
119.27
150.52
183.80
216.28
245.36
269.78
289.56
305.33
317.47
325.87
330.46
331.81
331.40
331.20
332.87
337.00
342.63
347.38
348.08
341.59
325.84
300.38
266.50
226.72
183.74
139.36
93.79
46.05
-4.80
-58.17
-111.06
-158.49
-195.18
-217.61
-225.50
-221.78
-211.24
-198.49
-186.43
-175.78
-165.88
-155.84
-145.50
-135.53
-126.82
-119.76
-113.92
-108.23
-101.68
-93.83
-85.04
-76.29
-68.60
-62.56
-58.05
-54.38
-50.67
-46.32
-41.21
-35.74
-30.56
-26.22
-22.94
-20.54
-18.62
-16.77
-14.70
-12.38
-9.99
-7.77
-5.93
-4.57
-3.65
-3.05
-2.57
-2.09
-1.54
-0.94
-0.36
0.10
0.38
0.45
0.31
0.02
-0.34
-0.67
-0.87
-0.87
-0.68
-0.38
-0.09
0.08
0.08
-0.02
-0.09
-0.00
0.24
0.51
0.65
0.52
0.12
-0.39
-0.81
-0.96
-0.84
-0.54
-0.24
-0.01
0.14
0.30
0.54
0.84
1.12
1.26
1.22
1.02
0.75
0.47
0.20
-0.10
-0.44
-0.77
-0.98
-0.95
-0.63
-0.12
0.39
0.68
0.65
0.32
-0.14
-0.51
-0.69
-0.68
-0.59
-0.52
-0.52
-0.55
-0.52
-0.36
-0.07
0.30
0.67
0.97
1.18
1.26
1.22
1.05
0.80
0.57
0.46
0.53
0.73
0.92
0.96
0.75
0.34
-0.09
-0.36
-0.36
-0.12
0.20
0.40
0.36
0.09
-0.30
-0.66
-0.89
-0.96
-0.91
-0.81
-0.68
-0.52
-0.33
-0.14
-0.04
-0.10
-0.36
-0.73
-1.07
-1.20
-1.06
-0.67
-0.19
0.22
0.45
0.49
0.42
0.34
0.34
0.50
0.88
1.48
2.26
3.06
3.62
3.71
3.17
2.05
0.61
-0.79
-1.86
-2.44
-2.55
-2.34
-1.98
-1.59
-1.21
-0.88
-0.63
-0.51
-0.54
-0.69
-0.88
-0.99
-0.93
-0.72
-0.44
-0.22
-0.13
-0.20
-0.37
-0.52
-0.59
-0.53
-0.35
-0.15
-0.01
0.02
-0.05
-0.20
-0.37
-0.51
-0.59
-0.61
-0.53
-0.31
0.10
0.71
1.46
2.21
2.78
3.03
2.88
2.37
1.64
0.87
0.20
-0.28
-0.54
-0.58
-0.44
-0.17
0.14
0.40
0.51
0.46
0.28
0.04
-0.16
-0.31
-0.43
-0.62
-0.90
-1.30
-1.70
-2.00
-2.11
-2.00
-1.73
-1.40
-1.14
-1.01
-0.99
-0.97
-0.81
-0.36
0.44
1.52
2.68
3.64
4.14
4.04
3.38
2.35
1.22
0.27
-0.32
-0.52
-0.36
0.04
0.55
1.01
1.30
1.34
1.11
0.67
0.13
-0.39
-0.81
-1.11
-1.27
-1.32
-1.27
-1.14
-1.03
-0.99
-1.08
-1.24
-1.34
-1.25
-0.89
-0.31
0.35
0.95
1.41
1.74
1.96
2.12
2.21
2.18
1.99
