1660751254.00
64.000000
-0.00
-0.00
-0.00
-0.00
-0.00
-0.00
-0.00
-0.00
-0.00
-0.00
0.00
0.01
0.01
-0.00
-0.03
-0.05
-0.05
0.00
0.13
0.36
0.66
1.01
1.37
1.72
2.06
2.40
2.79
3.24
3.80
4.42
5.06
5.66
6.20
6.68
7.15
7.68
8.31
9.14
10.09
11.04
11.88
12.56
13.14
13.76
14.65
15.96
17.91
20.32
22.90
25.38
27.58
29.57
31.68
34.32
37.81
42.54
48.15
54.10
59.83
64.97
69.58
74.14
79.34
85.71
93.76
103.00
112.62
121.73
129.77
136.75
143.30
150.75
157.77
166.64
177.95
191.79
206.97
220.57
228.25
225.36
208.53
176.87
132.76
80.05
23.07
-34.94
-92.44
-149.16
-205.23
-260.37
-313.74
-363.87
-409.83
-450.91
-486.50
-515.74
-537.23
-549.22
-549.96
-538.37
-514.20
-478.67
-433.88
-382.45
-327.02
-269.85
-212.64
-156.66
-102.94
-52.34
-5.87
35.60
71.40
101.24
125.30
144.09
158.34
168.77
175.98
180.36
182.17
181.63
179.00
174.64
168.98
162.46
155.42
148.10
140.61
132.98
125.20
117.34
109.48
101.74
94.27
87.14
80.33
73.79
67.40
61.11
54.92
48.93
43.30
38.17
33.62
29.56
25.78
22.07
18.24
14.29
10.39
6.82
3.85
1.60
-0.05
-1.43
-2.94
-4.86
-7.24
-9.84
-12.23
-14.09
-15.20
-15.69
-15.86
-16.08
-16.70
-18.07
-20.46
-23.94
-28.00
-31.35
-32.16
-28.73
-20.39
-8.01
6.20
19.60
30.11
36.90
40.31
41.29
40.67
38.89
36.11
32.58
28.79
25.38
22.79
21.04
19.76
18.51
17.02
15.22
13.31
11.51
10.01
8.90
8.17
7.71
7.36
7.01
6.51
5.80
4.90
3.90
2.90
2.06
1.46
1.14
1.03
0.98
0.84
0.53
0.11
-0.28
-0.44
-0.24
0.31
1.07
1.86
2.50
2.99
3.46
4.12
5.18
6.77
8.87
11.24
13.63
15.68
17.17
17.96
18.03
17.38
16.02
13.99
11.35
8.30
4.96
1.57
-1.65
-4.55
-7.09
-9.30
-11.25
-12.96
-14.39
-15.46
-16.07
-16.15
-15.78
-15.10
-14.28
-13.47
-12.75
-12.10
-11.49
-10.88
-10.27
-9.72
-9.22
-8.79
-8.40
-8.01
-7.60
-7.20
-6.80
-6.37
-5.83
-5.12
-4.19
-3.05
-1.80
-0.59
0.38
0.94
1.04
0.75
0.23
-0.34
-0.83
-1.26
-1.68
-2.18
-2.71
-3.13
-3.30
-3.15
-2.79
-2.38
-2.10
-2.03
-2.09
-2.10
-1.95
-1.65
-1.33
-1.19
-1.33
-1.74
-2.22
-2.63
-2.81
-2.72
-2.45
-2.21
-2.17
-2.43
-2.96
-3.69
-4.52
-5.32
-5.98
-6.35
-6.27
-5.64
-4.44
-2.78
-0.87
1.08
2.94
4.59
5.95
6.90
7.31
7.13
6.40
5.27
3.98
2.74
1.66
0.76
0.04
-0.49
-0.76
-0.78
-0.62
-0.49
-0.61
-1.12
-1.98
-3.03
-4.03
-4.87
-5.59
-6.38
-7.38
-8.64
-10.01
-11.27
-12.22
-12.82
-13.19
-13.53
-13.99
-14.64
-15.46
-16.36
-17.15
-17.56
-17.27
-15.95
-13.45
-9.86
-5.60
-1.24
2.62
5.58
7.52
8.54
8.96
9.08
9.19
9.43
9.86
10.46
11.16
11.87
12.56
13.19
13.67
13.92
13.80
13.27
12.41
11.41
10.51
9.85
9.42
8.98
8.25
7.02
5.23
3.07
0.85
-1.11
-2.59
-3.59
-4.27
-4.85
-5.53
-6.37
-7.30
-8.24
-9.12
-9.86
-10.39
-10.50
-9.89
-8.23
-5.39
-1.50
3.01
7.60
11.78
15.22
17.84
19.69
20.86
21.41
21.38
20.85
19.92
18.73
17.40
16.04
14.72
13.48
12.33
11.24
10.16
9.03
7.82
6.55
5.28
4.04
2.85
1.70
0.57
-0.57
-1.68
-2.78
-3.87
-4.97
-6.05
-7.08
-7.99
-8.73
-9.33
-9.87
-10.50
-11.34
-12.40
-13.57
-14.56
-14.95
-14.35
-12.50
-9.45
-5.54
-1.33
2.57
5.75
8.04
9.50
10.30
10.56
10.28
9.42
7.97
6.01
3.76
1.47
-0.59
-2.28
-3.56
-4.51
-5.26
-5.90
-6.44
-6.73
-6.58
-5.85
-4.57
-2.96
-1.42
-0.31
0.13
-0.04
-0.54
-0.93
-0.90
-0.31
0.67
1.71
2.45
2.60
2.06
0.85
-0.90
-3.00
-5.19
-7.10
-8.30
-8.42
-7.27
-4.95
-1.87
1.42
4.39
6.77
8.50
9.71
10.58
11.17
11.50
11.50
11.14
10.47
9.57
8.57
7.56
6.62
5.82
5.24
4.95
4.95
5.14
5.33
5.32
4.96
4.25
3.26
2.14
1.04
0.07
-0.69
-1.25
-1.66
-2.07
-2.61
-3.38
-4.36
-5.43
-6.42
-7.22
-7.83
-8.40
-9.10
-10.06
-11.24
-12.49
-13.53
-14.03
-13.71
-12.35
-9.93
-6.66
-2.96
0.65
3.67
5.82
7.06
7.60
7.69
7.57
7.34
6.99
6.47
5.75
4.85
3.88
2.95
2.18
1.63
1.30
1.11
0.96
0.76
0.51
0.26
0.11
0.15
0.37
0.72
1.07
1.31
1.36
1.20
0.82
0.24
-0.54
-1.48
-2.50
-3.51
-4.36
-4.93
-5.15
-5.08
-4.90
-4.89
-5.25
-6.01
-6.91
-7.49
-7.24
-5.86
-3.39
-0.21
3.16
6.26
8.85
10.90
12.49
13.67
14.38
14.47
13.83
12.43
10.42
8.07
5.67
3.54
1.87
0.77
0.24
0.17
0.35
0.60
0.71
0.55
0.11
-0.55
-1.23
-1.72
-1.88
-1.68
-1.25
-0.83
-0.68
-0.92
-1.55
-2.38
-3.21
-3.85
-4.26
-4.53
-4.79
-5.19
-5.82
-6.68
-7.64
-8.46
-8.82
-8.39
-6.97
-4.58
-1.47
1.92
5.13
7.75
9.56
10.46
10.49
9.76
8.45
6.82
5.20
3.85
3.00
2.69
2.82
3.18
3.54
3.73
3.63
3.21
2.51
1.61
0.65
-0.22
-0.88
-1.28
-1.49
-1.66
-2.00
-2.64
-3.63
-4.87
-6.18
-7.39
-8.42
-9.31
-10.19
-11.22
-12.44
-13.75
-14.90
-15.49
-15.15
-13.69
-11.20
-8.00
-4.61
-1.53
0.89
2.55
3.57
4.22
4.77
5.39
6.15
6.98
7.83
8.64
9.39
10.11
10.80
11.35
11.60
11.39
10.63
9.44
8.04
6.74
5.74
5.04
4.47
3.77
2.73
1.27
-0.56
-2.63
-4.80
-6.97
-9.03
-10.83
-12.19
-12.91
-12.93
-12.37
-11.53
-10.81
-10.51
-10.65
-10.92
-10.76
-9.66
-7.35
-3.99
-0.11
3.61
6.58
8.48
9.36
9.49
9.23
8.86
8.53
8.30
8.18
8.21
8.39
8.74
9.18
9.64
10.00
10.21
10.32
10.39
10.54
10.76
10.92
10.80
10.07
8.51
5.99
2.65
-1.16
-4.80
-7.50
-8.59
-7.72
-5.07
-1.29
2.66
5.85
7.64
7.80
6.38
3.64
-0.14
-4.54
-8.98
-12.60
-14.48
-13.87
-10.52
-4.81
2.34
9.80
16.50
21.72
24.95
26.01
25.07
22.59
19.27
15.85
12.98
11.07
10.20
10.12
10.51
11.22
12.40
14.35
17.30
21.23
25.76
30.24
33.61
35.03
34.28
32.02
29.73
29.36
32.79
41.24
54.62
70.35
84.60
93.38
93.82
84.89
67.72
45.44
22.52
3.61
-9.34
-15.85
-16.19
-10.68
0.15
15.25
32.94
51.01
66.79
74.76
70.24
51.19
19.09
-22.23
-68.23
-114.50
-157.19
-193.29
-224.34
-252.41
-278.56
-302.01
-321.63
-337.46
-350.80
-363.38
-355.47
-314.91
-243.27
-156.49
-72.60
-1.84
53.59
95.71
127.76
152.79
169.75
177.54
176.54
170.00
162.18
156.32
154.00
155.55
160.59
165.06
166.03
162.11
154.92
147.41
141.96
139.57
140.25
143.60
147.31
148.28
144.58
137.34
129.26
122.43
117.45
113.74
110.00
103.16
91.65
73.90
51.57
28.39
7.42
-10.23
-24.76
-36.63
-47.15
-62.04
-85.01
-114.59
-145.79
-174.14
-197.89
-217.13
-232.21
-244.39
-261.15
-287.01
-319.72
-352.29
-378.32
-395.25
-403.29
-403.47
-362.57
-271.58
-150.32
-31.90
62.87
131.11
178.19
206.81
225.35
236.76
233.43
210.03
168.19
114.18
58.11
4.41
-46.25
-94.59
-127.27
-140.40
-138.20
-129.90
-122.20
-116.53
-110.78
-99.93
-77.65
-40.52
5.43
51.24
89.30
115.83
130.51
135.00
132.65
127.34
121.14
111.36
95.70
75.00
53.30
35.29
23.57
18.33
18.12
20.65
22.38
21.32
17.83
13.72
10.73
9.30
8.95
8.82
8.63
7.99
6.95
6.07
5.97
6.93
8.69
10.65
12.41
13.71
14.19
13.65
12.02
9.44
6.05
2.06
-2.34
-6.80
-11.07
-15.09
-18.99
-22.93
-27.07
-31.49
-36.15
-40.93
-45.48
-49.58
-53.15
-56.22
-58.83
-60.93
-62.32
-62.51
-62.40
-62.27
-62.41
-63.10
-64.44
-66.19
-67.60
-67.65
-65.33
-60.16
-52.18
-42.31
-31.98
-22.68
-15.40
-10.40
-7.18
-4.93
-2.87
-0.49
2.22
4.94
7.33
9.28
10.93
12.49
14.08
15.62
17.08
18.47
19.99
21.96
24.58
27.71
30.91
33.54
35.00
35.04
33.71
31.31
28.25
24.88
21.50
18.27
15.29
12.59
10.24
8.28
6.69
5.34
3.94
2.12
-0.47
-4.04
-8.53
-13.61
-18.73
-23.25
-26.50
-27.92
-27.21
-24.41
-20.03
-14.93
-10.07
-6.32
-4.17
-3.73
-4.75
-6.76
-9.21
-11.55
-13.25
-13.88
-13.18
-11.05
-7.64
-3.26
1.63
6.50
10.83
14.17
16.28
17.15
17.03
16.38
15.71
15.51
16.19
17.97
20.89
24.65
28.64
32.01
33.90
33.74
31.45
27.43
22.34
16.86
11.50
6.60
2.45
-0.65
-2.31
-2.22
-0.17
3.88
9.87
17.59
26.77
36.95
47.51
57.72
66.85
74.23
79.39
81.99
81.88
79.22
74.61
69.13
64.11
60.75
59.68
60.72
63.00
65.28
66.38
65.57
62.55
57.43
50.56
42.42
33.65
24.99
17.25
11.00
6.40
3.00
-0.08
-3.87
-9.09
-15.90
-23.86
-32.15
-39.95
-46.73
-52.36
-57.02
-61.06
-64.79
-68.40
-71.83
-74.72
-76.43
-76.19
-73.26
-67.30
-58.44
-47.31
-34.78
-21.67
-8.63
3.77
14.96
24.34
31.46
36.32
39.44
41.77
44.19
47.10
50.12
52.27
52.49
50.21
45.71
40.03
34.57
30.56
28.54
28.35
29.30
30.62
31.91
33.32
35.43
38.84
43.76
49.90
56.50
62.65
67.47
70.27
70.55
68.08
62.89
55.41
46.44
37.04
28.28
21.07
16.01
13.38
13.20
15.09
18.32
21.70
23.87
23.68
20.66
15.24
8.57
1.98
-3.47
-7.43
-10.21
-12.51
-14.97
-17.96
-21.49
-25.38
-29.46
-33.64
-37.85
-41.87
-45.25
-47.35
-47.59
-45.67
-41.68
-36.00
-29.09
-21.30
-12.92
-4.32
3.80
10.39
14.35
15.02
12.56
8.02
2.86
-1.61
-4.74
-6.51
-7.17
-6.79
-5.05
-1.37
4.61
12.63
21.85
31.16
39.75
47.53
55.13
63.43
72.87
82.93
91.90
97.38
97.05
89.75
76.09
58.49
40.50
25.58
16.04
12.50
13.91
18.29
23.51
27.88
30.34
30.37
27.79
22.72
15.60
7.18
-1.52
-9.54
-16.28
-21.70
-26.33
-30.97
-36.34
-42.75
-50.04
-57.55
-64.46
-69.91
-73.22
-73.99
-72.08
-67.61
-61.00
-52.94
-44.34
-36.20
-29.47
-24.73
-22.04
-20.75
-19.72
-17.54
-13.01
-5.51
4.76
16.79
28.96
39.36
46.28
48.65
46.35
40.34
32.33
24.23
17.47
12.60
9.26
6.72
4.33
1.99
0.01
-1.19
-1.51
-1.27
-1.06
-1.30
-2.05
-2.96
-3.57
-3.63
-3.21
-2.57
-1.94
-1.23
-0.13
1.72
4.37
7.52
10.64
13.34
15.53
17.49
19.57
21.91
24.35
26.52
28.14
29.11
29.49
29.24
28.14
25.77
21.80
16.29
9.76
3.11
-2.76
-7.34
-10.60
-12.92
-14.93
-17.21
-20.14
-23.86
-28.29
-33.17
-38.09
-42.59
-46.23
-48.71
-49.90
-49.85
-48.65
-46.37
-43.00
-38.59
-33.30
-27.52
-21.72
-16.26
-11.16
-6.13
-0.74
5.17
11.30
16.92
21.24
23.80
24.77
24.78
24.59
24.68
25.06
25.44
25.54
25.41
25.46
26.27
28.19
31.06
34.14
36.33
36.49
33.98
28.88
22.02
14.80
8.74
4.99
4.01
5.52
8.63
12.24
15.33
17.13
17.25
15.59
12.32
7.87
2.86
-2.03
-6.22
-9.44
-11.73
-13.40
-14.78
-16.01
-17.04
-17.73
-17.99
-17.91
-17.76
-17.85
-18.37
-19.37
-20.85
-22.76
-25.05
-27.63
-30.34
-32.96
-35.15
-36.37
-35.98
-33.57
-29.11
-23.13
-16.60
-10.62
-6.03
-3.04
-0.94
1.36
4.90
10.29
17.56
26.21
35.47
44.29
51.48
56.64
59.63
60.71
60.59
60.36
60.98
63.21
67.04
71.87
78.44
87.36
98.90
112.74
127.97
142.97
156.43
166.82
172.78
175.67
176.96
177.80
179.03
181.43
185.21
190.61
196.14
198.88
198.44
194.42
186.45
174.41
158.59
139.41
118.81
98.32
62.77
8.02
-59.73
-127.39
-182.80
-214.68
-225.93
-220.11
-200.91
-172.72
-139.29
-106.13
-79.74
-65.25
-67.55
-85.17
-109.38
-130.60
-143.60
-146.47
-141.54
-134.05
-126.85
-121.67
-120.11
-123.57
-134.53
-155.78
-183.59
-212.92
-237.47
-251.16
-250.43
-235.20
-208.45
-175.94
-144.05
-116.80
-96.15
-82.05
-73.44
-69.44
-69.30
-71.99
-76.21
-80.24
-81.83
-79.56
-73.20
-63.95
-54.25
-46.66
-42.85
-43.19
-46.66
-51.29
-55.16
-56.83
-55.70
-52.12
-46.89
-40.91
-34.91
-29.36
-24.40
-20.13
-16.46
-13.23
-10.26
-7.30
-4.14
-0.65
3.09
6.81
10.07
12.55
14.23
15.52
17.10
19.70
23.71
29.02
35.08
41.12
46.57
51.24
55.45
59.88
65.23
71.99
80.16
89.15
97.70
104.18
106.88
104.59
97.00
84.90
70.10
54.91
41.50
31.37
25.00
21.90
21.02
21.12
21.21
20.78
19.76
18.39
16.99
15.77
14.78
14.01
13.46
13.08
12.82
12.55
12.12
11.44
10.48
9.39
8.50
8.11
8.33
8.97
9.61
9.78
9.16
7.68
5.61
3.63
2.38
2.02
2.14
2.05
1.11
-0.95
-3.97
-7.44
-10.14
-11.02
-9.72
-6.75
-3.04
0.50
3.30
5.12
6.12
7.46
10.22
14.66
20.03
25.41
30.30
34.79
39.15
43.53
48.90
56.05
65.29
76.16
88.07
100.09
110.60
117.21
111.45
88.92
52.92
13.72
-18.55
-39.04
-48.59
-50.94
-49.95
-47.89
-44.24
-37.81
-28.53
-18.27
-9.24
-3.01
0.16
0.82
0.07
-0.27
0.83
3.03
3.83
1.51
-4.89
-14.97
-27.76
-41.85
-55.45
-67.50
-75.52
-81.24
-86.32
-91.64
-96.83
-101.22
-103.87
-103.86
-101.01
-96.07
-90.81
-86.49
-85.55
-86.23
-87.08
-86.88
-84.82
-80.94
-76.11
-71.92
-69.66
-70.27
-74.00
-81.05
-90.55
-100.18
-106.52
-105.93
-96.36
-78.16
-54.33
-29.40
-8.01
7.24
16.41
21.54
25.21
29.32
33.64
37.57
40.52
42.20
42.94
43.34
43.76
44.09
43.76
42.07
38.85
34.51
29.92
26.15
24.13
24.07
25.51
27.38
28.57
28.54
27.38
25.72
24.37
23.93
24.49
25.67
26.75
27.02
26.09
23.90
20.71
16.96
13.05
9.25
5.67
2.32
-0.75
-3.39
-5.39
-6.67
-7.36
-7.76
-8.22
-8.90
-9.63
-9.93
-9.19
-6.95
-3.10
2.05
7.87
13.64
18.75
22.85
25.83
27.71
28.54
28.33
27.09
24.96
22.27
19.52
17.19
15.53
14.44
13.57
12.48
10.96
9.12
7.30
5.86
4.98
4.54
4.26
3.88
3.25
2.37
1.34
0.23
-0.94
-2.22
-3.71
-5.48
-7.61
-10.11
-12.95
-16.04
-19.13
-21.90
-23.87
-24.55
-23.49
-20.49
-15.70
-9.67
-3.22
2.72
7.45
10.64
12.34
12.86
12.55
11.68
10.37
8.72
6.81
4.74
2.64
0.58
-1.38
-3.17
-4.78
-6.24
-7.62
-9.12
-10.94
-13.16
-15.71
-18.29
-20.51
-22.05
-22.81
-22.93
-22.83
-22.96
-23.68
-25.13
-27.19
-29.50
-31.55
-32.74
-32.44
-30.10
-25.35
-18.09
-8.65
2.26
13.70
24.70
34.49
42.64
48.99
53.55
56.39
57.63
57.46
56.24
54.35
52.13
49.67
46.76
42.98
37.95
31.53
24.08
16.38
9.41
4.01
0.55
-1.18
-1.86
-2.31
-3.16
-4.65
-6.61
-8.75
-10.81
-12.81
-14.92
-17.42
-20.49
-24.12
-28.15
-32.22
-35.80
-38.22
-38.76
-36.87
-32.44
-25.96
-18.43
-11.06
-4.86
-0.36
2.41
3.74
4.01
3.50
2.36
0.75
-1.15
-3.05
-4.71
-5.94
-6.65
-6.84
-6.52
-5.72
-4.42
-2.48
0.40
4.77
11.18
20.02
31.21
44.13
57.69
70.88
83.12
94.51
105.99
119.24
136.10
157.87
184.48
214.02
242.94
266.42
279.39
277.85
260.13
227.57
184.25
135.90
88.39
46.80
14.12
-8.96
-23.80
-32.87
-38.92
-44.27
-50.30
-57.29
-63.45
-66.61
-65.39
-59.93
-51.56
-42.07
-33.04
-25.67
-20.65
-16.34
-11.14
-4.83
1.30
5.73
7.65
7.20
5.08
2.18
2.41
9.17
23.30
42.60
63.80
83.85
101.12
115.39
127.55
142.75
165.83
198.48
238.56
283.01
328.71
373.63
416.23
426.14
381.75
282.57
151.46
18.46
-94.45
-179.37
-237.47
-274.39
-297.07
-311.17
-319.85
-326.66
-336.49
-352.38
-376.60
-408.39
-444.75
-468.53
-464.20
-425.71
-360.92
-294.64
-237.75
-195.54
-168.65
-153.59
-146.91
-144.83
-143.80
-141.48
-136.50
-126.56
-111.63
-92.47
-70.58
-48.07
-27.29
-9.03
7.33
23.60
43.01
66.25
92.60
119.55
143.21
159.22
165.59
162.74
153.28
141.37
129.18
118.34
109.09
100.32
90.35
79.47
69.02
60.70
55.82
53.15
52.30
52.98
54.86
57.75
63.19
72.46
85.68
101.68
117.18
131.68
146.02
161.30
167.09
155.54
124.70
79.98
39.02
3.13
-28.44
-55.41
-78.82
-97.00
-106.93
-107.38
-99.80
-88.13
-78.49
-73.71
-74.29
-78.99
-85.88
-91.79
-94.38
-92.98
-88.74
-84.90
-83.03
-83.77
-86.67
-91.41
-96.04
-98.56
-97.67
-93.34
-87.29
-80.73
-74.67
-68.92
-64.25
-59.86
-54.87
-48.75
-41.67
-34.72
-28.67
-24.03
-19.77
-16.26
-12.04
-5.16
6.42
24.19
48.26
77.08
100.15
119.84
129.46
125.26
106.87
77.89
44.81
14.66
-7.50
-20.18
-24.22
-24.44
-24.41
-26.03
-29.30
-33.15
-36.49
-38.95
-40.69
-41.05
-40.49
-38.18
-33.21
-25.21
-14.64
-2.71
9.06
19.43
28.22
34.84
39.54
42.68
44.52
45.24
45.01
44.10
42.92
42.26
42.41
43.79
46.60
50.68
55.53
60.22
63.64
64.74
62.89
57.86
50.05
40.26
29.37
18.10
6.93
-3.89
-14.17
-23.68
-32.21
-39.66
-46.12
-51.93
-57.59
-63.61
-70.36
-77.94
-86.12
