1660937946.00
64.000000
-0.00
-0.00
-0.00
-0.00
-0.00
-0.00
-0.00
-0.00
-0.00
-0.00
0.00
0.01
0.01
-0.00
-0.03
-0.05
-0.05
0.00
0.13
0.36
0.66
1.01
1.37
1.72
2.06
2.40
2.79
3.25
3.81
4.44
5.10
5.73
6.32
6.90
7.51
8.25
9.15
10.28
11.54
12.79
13.93
14.90
15.79
16.79
18.14
19.97
22.49
25.46
28.59
31.60
34.34
36.93
39.75
43.25
47.74
53.53
60.22
67.23
74.00
80.25
86.19
92.42
99.72
108.56
119.33
131.33
143.64
155.37
166.13
176.26
186.67
198.85
211.39
226.24
243.59
263.25
283.97
303.12
316.90
321.18
312.86
290.92
257.21
214.92
167.82
119.05
70.51
23.12
-22.60
-66.04
-106.58
-143.69
-177.91
-210.56
-243.39
-277.80
-313.95
-350.15
-382.86
-407.70
-420.70
-419.98
-406.46
-383.52
-355.65
-326.81
-299.29
-273.64
-249.46
-226.16
-203.87
-183.19
-164.71
-148.49
-133.95
-120.16
-106.31
-92.14
-77.93
-64.48
-52.57
-42.68
-34.70
-28.09
-22.09
-16.08
-9.86
-3.62
2.15
7.00
10.72
13.43
15.50
17.35
19.27
21.32
23.34
25.05
26.21
26.73
26.69
26.33
25.96
25.76
25.76
25.83
25.78
25.45
24.79
23.89
22.86
21.83
20.87
20.02
19.33
18.84
18.54
18.37
18.20
17.91
17.40
16.72
15.94
15.17
14.49
13.92
13.46
13.12
12.93
12.84
12.79
12.66
12.33
11.80
11.16
10.59
10.23
10.13
10.21
10.28
10.19
9.83
9.25
8.56
7.92
7.44
7.18
7.14
7.27
7.51
7.79
8.01
8.05
7.82
7.27
6.45
5.52
4.68
4.11
3.88
3.96
4.16
4.30
4.22
3.86
3.27
2.59
1.94
1.39
0.92
0.45
-0.12
-0.82
-1.63
-2.49
-3.31
-4.06
-4.76
-5.43
-6.08
-6.72
-7.31
-7.80
-8.19
-8.50
-8.78
-9.06
-9.33
-9.53
-9.62
-9.56
-9.35
-9.02
-8.60
-8.12
-7.59
-7.04
-6.50
-6.00
-5.54
-5.13
-4.74
-4.34
-3.93
-3.51
-3.04
-2.52
-1.90
-1.22
-0.56
-0.01
0.36
0.55
0.64
0.76
0.99
1.34
1.72
2.03
2.17
2.17
2.12
2.16
2.37
2.73
3.13
3.42
3.54
3.53
3.54
3.70
4.04
4.49
4.87
5.03
4.89
4.54
4.12
3.82
3.75
3.93
4.28
4.67
4.92
4.95
4.76
4.44
4.17
4.08
4.23
4.57
4.97
5.26
5.36
5.25
4.98
4.64
4.29
3.95
3.66
3.43
3.33
3.38
3.55
3.75
3.83
3.66
3.23
2.66
2.17
1.92
1.97
2.20
2.40
2.40
2.17
1.79
1.46
1.32
1.40
1.59
1.76
1.75
1.55
1.19
0.82
0.56
0.51
0.66
0.92
1.18
1.28
1.20
1.00
0.78
0.67
0.72
0.87
1.04
1.17
1.26
1.35
1.52
1.77
2.03
2.21
2.23
2.05
1.76
1.45
1.22
1.15
1.20
1.32
1.40
1.39
1.25
1.00
0.72
0.49
0.40
0.49
0.72
1.01
1.26
1.41
1.43
1.37
1.27
1.18
1.09
0.99
0.86
0.74
0.70
0.78
0.98
1.24
1.43
1.48
1.36
1.16
0.98
0.92
0.99
1.10
1.15
1.06
0.78
0.41
0.06
-0.16
-0.17
0.02
0.35
0.73
1.06
1.28
1.37
1.35
1.23
1.08
0.92
0.79
0.71
0.73
0.88
1.13
1.38
1.49
1.40
1.13
0.81
0.62
0.65
0.85
1.08
1.17
1.04
0.80
0.60
0.59
0.78
1.07
1.30
1.33
1.15
0.85
0.53
0.29
0.14
0.04
-0.08
-0.26
-0.49
-0.69
-0.79
-0.73
-0.53
-0.27
-0.07
-0.02
-0.11
-0.25
-0.32
-0.26
-0.08
0.13
0.28
0.33
0.31
0.31
0.38
0.49
0.58
0.59
0.49
0.37
0.31
0.39
0.59
0.80
0.89
0.82
0.61
0.38
0.24
0.25
0.42
0.65
0.86
0.95
0.90
0.75
0.56
0.42
0.39
0.47
0.64
0.88
1.14
1.42
1.71
1.97
2.11
2.06
1.75
1.21
0.54
-0.13
-0.67
-0.97
-1.04
-0.92
-0.72
-0.57
-0.54
-0.66
-0.86
-1.02
-1.04
-0.89
-0.58
-0.18
0.25
0.67
1.05
1.30
1.35
1.14
0.73
0.28
-0.04
-0.08
0.14
0.48
0.77
0.87
0.74
0.48
0.21
0.05
0.06
0.24
0.55
0.91
1.26
1.51
1.62
1.60
1.47
1.30
1.10
0.86
0.53
0.13
-0.33
-0.75
-1.05
-1.15
-1.06
-0.85
-0.62
-0.44
-0.34
-0.33
-0.38
-0.43
-0.48
-0.50
-0.47
-0.39
-0.28
-0.16
-0.10
-0.13
-0.24
-0.40
-0.49
-0.41
-0.17
0.19
0.51
0.68
0.63
0.41
0.14
-0.07
-0.14
-0.09
-0.01
0.02
-0.02
-0.06
-0.05
0.07
0.27
0.44
0.50
0.42
0.27
0.13
0.07
0.06
0.05
-0.04
-0.20
-0.39
-0.52
-0.52
-0.42
-0.29
-0.22
-0.25
-0.34
-0.41
-0.36
-0.17
0.11
0.42
0.63
0.72
0.68
0.55
0.39
0.24
0.14
0.09
0.11
0.19
0.33
0.47
0.57
0.56
0.43
0.20
-0.04
-0.22
-0.29
-0.25
-0.12
0.03
0.19
0.35
0.53
0.69
0.77
0.70
0.43
0.01
-0.46
-0.81
-0.93
-0.82
-0.56
-0.30
-0.19
-0.29
-0.58
-0.94
-1.20
-1.24
-1.02
-0.57
-0.01
0.52
0.92
1.15
1.23
1.22
1.13
0.98
0.72
0.37
-0.05
-0.44
-0.68
-0.70
-0.52
-0.25
-0.03
0.03
-0.08
-0.30
-0.53
-0.67
-0.70
-0.63
-0.48
-0.24
0.09
0.49
0.89
1.18
1.29
1.24
1.10
1.00
1.02
1.14
1.26
1.28
1.16
0.91
0.60
0.29
0.02
-0.19
-0.34
-0.42
-0.41
-0.31
-0.14
0.09
0.36
0.64
0.93
1.16
1.29
1.26
1.08
0.81
0.53
0.33
0.24
0.23
0.26
0.32
0.40
0.51
0.63
0.71
0.69
0.55
0.34
0.14
0.03
0.04
0.13
0.20
0.17
0.03
-0.18
-0.39
-0.56
-0.71
-0.86
-1.04
-1.23
-1.38
-1.44
-1.38
-1.24
-1.08
-0.96
-0.91
-0.92
-0.97
-1.03
-1.07
-1.06
-0.95
-0.72
-0.40
-0.05
0.24
0.39
0.41
0.35
0.27
0.22
0.23
0.26
0.31
0.35
0.41
0.48
0.56
0.64
0.66
0.61
0.50
0.34
0.15
-0.07
-0.29
-0.47
-0.54
-0.45
-0.16
0.27
0.70
1.00
1.03
0.77
0.31
-0.19
-0.55
-0.65
-0.49
-0.15
0.20
0.40
0.37
0.11
-0.29
-0.71
-1.05
-1.23
-1.23
-1.07
-0.78
-0.41
-0.04
0.25
0.41
0.41
0.32
0.21
0.16
0.19
0.26
0.36
0.45
0.55
0.69
0.86
1.00
1.03
0.92
0.66
0.31
-0.04
-0.36
-0.62
-0.80
-0.86
-0.77
-0.50
-0.11
0.30
0.60
0.67
0.53
0.27
0.01
-0.12
-0.12
-0.05
-0.02
-0.10
-0.27
-0.43
-0.47
-0.31
0.01
0.40
0.70
0.83
0.81
0.74
0.72
0.80
0.95
1.06
1.07
0.93
0.70
0.43
0.19
-0.01
-0.17
-0.29
-0.35
-0.33
-0.22
-0.06
0.11
0.25
0.31
0.28
0.11
-0.20
-0.65
-1.18
-1.64
-1.90
-1.87
-1.58
-1.17
-0.82
-0.64
-0.63
-0.67
-0.60
-0.35
0.04
0.41
0.67
0.77
0.80
0.90
1.11
1.42
1.71
1.86
1.81
1.59
1.27
0.94
0.62
0.34
0.10
-0.08
-0.18
-0.22
-0.21
-0.20
-0.26
-0.42
-0.68
-1.01
-1.33
-1.52
-1.50
-1.23
-0.77
-0.24
0.16
0.33
0.24
-0.00
-0.25
-0.39
-0.36
-0.21
-0.01
0.15
0.24
0.25
0.20
0.12
0.06
0.01
-0.03
-0.07
-0.12
-0.17
-0.17
-0.09
0.11
0.37
0.62
0.77
0.78
0.66
0.49
0.33
0.20
0.10
0.01
-0.10
-0.22
-0.32
-0.34
-0.21
0.07
0.47
0.89
1.23
1.41
1.42
1.30
1.13
0.97
0.82
0.61
0.27
-0.23
-0.81
-1.34
-1.69
-1.79
-1.63
-1.28
-0.86
-0.46
-0.15
0.02
0.06
-0.05
-0.29
-0.60
-0.95
-1.27
-1.52
-1.66
-1.65
-1.49
-1.16
-0.70
-0.18
0.31
0.67
0.84
0.85
0.76
0.68
0.68
0.79
0.94
1.08
1.13
1.09
0.96
0.78
0.58
0.38
0.23
0.17
0.24
0.44
0.71
0.96
1.09
1.02
0.77
0.40
-0.02
-0.40
-0.70
-0.92
-1.07
-1.20
-1.36
-1.53
-1.69
-1.80
-1.81
-1.76
-1.69
-1.66
-1.70
-1.79
-1.88
-1.92
-1.89
-1.80
-1.68
-1.52
-1.32
-1.04
-0.68
-0.30
0.01
0.20
0.21
0.07
-0.17
-0.41
-0.57
-0.57
-0.37
0.07
0.72
1.57
2.54
3.55
4.52
5.40
6.16
6.79
7.28
7.63
7.78
7.69
7.30
6.57
5.56
4.43
3.39
2.62
2.19
2.07
2.11
2.17
2.11
1.88
1.44
0.77
-0.15
-1.31
-2.65
-4.04
-5.33
-6.38
-7.09
-7.43
-7.41
-7.07
-6.51
-5.84
-5.22
-4.76
-4.51
-4.46
-4.53
-4.59
-4.53
-4.28
-3.83
-3.31
-2.88
-2.76
-3.05
-3.71
-4.51
-5.05
-4.90
-3.81
-1.76
0.93
3.73
6.10
7.63
8.26
8.18
7.78
7.39
7.22
7.26
7.35
7.33
7.04
6.41
5.43
4.12
2.55
0.88
-0.72
-2.03
-2.91
-3.30
-3.25
-2.90
-2.43
-1.99
-1.69
-1.56
-1.55
-1.56
-1.51
-1.31
-0.99
-0.59
-0.19
0.15
0.39
0.52
0.50
0.32
-0.03
-0.46
-0.87
-1.12
-1.13
-0.94
-0.64
-0.36
-0.19
-0.15
-0.18
-0.21
-0.19
-0.14
-0.14
-0.28
-0.57
-1.01
-1.50
-1.93
-2.23
-2.37
-2.37
-2.27
-2.11
-1.93
-1.76
-1.62
-1.50
-1.37
-1.20
-0.97
-0.70
-0.40
-0.12
0.09
0.24
0.33
0.42
0.50
0.56
0.57
0.51
0.40
0.30
0.27
0.34
0.52
0.79
1.08
1.32
1.44
1.46
1.39
1.27
1.16
1.06
1.00
0.97
0.96
0.97
0.96
0.92
0.84
0.73
0.62
0.56
0.53
0.52
0.45
0.31
0.10
-0.15
-0.39
-0.59
-0.75
-0.87
-0.94
-0.95
-0.89
-0.82
-0.79
-0.86
-1.04
-1.28
-1.47
-1.51
-1.38
-1.12
-0.87
-0.76
-0.83
-1.06
-1.31
-1.45
-1.37
-1.06
-0.62
-0.15
0.23
0.48
0.62
0.68
0.66
0.58
0.46
0.37
0.39
0.59
0.98
1.45
1.86
2.07
2.04
1.82
1.55
1.36
1.32
1.42
1.57
1.69
1.70
1.57
1.33
1.04
0.76
0.51
0.33
0.20
0.11
0.07
0.07
0.11
0.18
0.25
0.29
0.30
0.25
0.10
-0.22
-0.81
-1.74
-2.96
-4.35
-5.72
-6.92
-7.96
-9.00
-10.33
-12.19
-14.66
-17.59
-20.64
-23.44
-25.77
-27.68
-29.48
-31.58
-34.32
-37.79
-41.78
-45.92
-49.84
-53.41
-56.82
-60.57
-65.29
-71.44
-79.14
-88.09
-97.66
-107.21
-116.28
-124.83
-133.17
-141.79
-151.17
-161.71
-173.67
-187.10
-201.53
-215.59
-226.85
-232.10
-228.29
-213.56
-187.97
-153.43
-112.74
-68.33
-21.65
26.51
75.04
121.50
162.14
193.05
211.78
218.56
216.18
208.77
199.96
191.74
184.26
176.73
168.54
159.98
152.08
145.96
142.03
139.80
138.14
136.00
132.97
129.49
126.60
125.34
126.15
128.62
131.68
134.10
135.12
134.87
134.31
134.84
137.63
143.06
150.55
158.76
166.19
171.74
175.20
177.29
179.47
183.43
190.62
201.67
215.95
231.37
244.64
251.96
250.22
237.88
215.53
185.51
150.94
114.50
77.67
40.46
1.87
-39.32
-83.63
-130.13
-176.23
-218.06
-251.47
-273.34
-282.64
-280.77
-270.91
-256.74
-241.20
-225.86
-211.19
-197.27
-184.32
-172.88
-163.40
-155.78
-149.27
-142.81
-135.56
-127.34
-118.62
-110.28
-103.20
-97.89
-94.38
-92.39
-91.46
-91.16
-91.18
-91.36
-91.64
-92.07
-92.81
-94.10
-96.22
-99.32
-103.43
-108.35
-113.80
-119.53
-125.41
-131.53
-138.21
-145.95
-155.32
-166.82
-180.56
-195.81
-210.61
-221.82
-225.73
-219.21
-200.80
-171.44
-134.05
-92.43
-49.82
-7.76
34.13
77.65
124.78
176.42
231.46
286.74
337.75
380.05
410.74
429.38
438.05
440.47
440.51
440.85
442.20
443.31
441.67
434.46
419.55
396.00
364.28
325.94
283.02
237.49
190.71
143.28
95.13
45.87
-4.75
-56.22
-106.89
-153.91
-193.72
-223.10
-240.22
-245.36
-240.82
-229.93
-215.95
-201.21
-186.96
-173.76
-162.01
-152.05
-144.03
-137.53
-131.58
-124.96
-116.81
-107.10
-96.59
-86.52
-78.02
-71.56
-66.85
-63.03
-59.09
-54.36
-48.71
-42.53
-36.49
-31.19
-26.94
-23.65
-20.96
-18.47
-15.90
-13.22
-10.59
-8.24
-6.35
-4.95
-3.96
-3.21
-2.53
-1.81
-1.00
-0.15
0.66
1.32
1.72
1.83
1.69
1.39
1.03
0.67
0.31
-0.02
-0.34
-0.58
-0.72
-0.72
-0.60
-0.41
-0.22
-0.08
-0.03
-0.06
-0.15
-0.28
-0.38
-0.37
-0.18
0.18
0.65
1.07
1.28
1.18
0.80
0.31
-0.04
-0.07
0.26
0.83
1.40
1.73
1.74
1.51
1.21
1.01
0.90
0.74
0.36
-0.30
-1.12
-1.84
-2.19
-2.06
-1.51
-0.75
0.03
0.68
1.17
1.53
1.77
1.89
1.90
1.84
1.83
1.96
2.23
2.53
2.69
2.51
1.94
1.09
0.15
-0.66
-1.19
-1.42
-1.45
-1.36
-1.28
-1.23
-1.21
-1.22
-1.23
-1.22
-1.20
-1.19
-1.23
-1.35
-1.58
-1.87
-2.17
-2.39
-2.49
-2.43
-2.21
-1.82
-1.27
-0.58
0.13
0.73
1.08
1.12
0.95
0.77
0.80
1.16
1.80
2.52
3.06
3.24
3.07
2.73
2.49
2.54
2.88
3.27
3.38
2.90
1.77
0.16
-1.61
-3.24
-4.54
-5.53
-6.30
-6.93
-7.41
-7.64
-7.52
-7.04
-6.30
-5.45
-4.61
-3.73
-2.65
-1.15
0.82
3.10
5.33
7.08
8.09
8.34
8.04
7.49
6.89
6.24
5.43
4.38
3.15
1.97
1.09
0.64
0.58
0.68
0.72
0.63
0.44
0.27
0.18
0.13
-0.01
-0.38
-1.04
-1.89
-2.77
-3.52
-4.03
-4.28
-4.27
-4.01
-3.49
-2.71
-1.77
-0.83
-0.07
0.37
0.47
0.30
0.05
-0.10
-0.02
0.31
0.80
1.35
1.83
2.20
2.49
2.77
3.11
3.48
3.83
4.02
3.94
3.49
2.67
1.51
0.11
-1.38
-2.81
-4.04
-4.96
-5.51
-5.67
-5.46
-4.90
-4.05
-2.97
-1.74
-0.45
0.85
2.12
3.34
4.47
5.39
6.00
6.19
5.94
5.29
4.38
3.34
2.27
1.23
0.24
-0.67
-1.49
-2.16
-2.63
-2.86
-2.82
-2.53
-2.10
-1.66
-1.36
-1.31
-1.53
-1.95
-2.41
-2.77
-2.95
-2.97
-2.92
-2.89
-2.91
-2.92
-2.83
-2.59
-2.24
-1.89
-1.70
-1.71
-1.88
-2.03
-1.96
-1.53
-0.76
0.18
1.07
1.69
2.01
2.11
2.21
2.49
3.01
3.67
4.23
4.42
4.10
3.30
2.20
1.03
-0.03
-0.90
-1.57
-2.06
-2.40
-2.57
-2.55
-2.31
-1.87
-1.22
-0.38
0.63
1.83
3.16
4.55
5.85
6.87
7.41
7.35
6.70
5.56
4.17
2.73
1.38
0.17
-0.92
-1.89
-2.70
-3.26
-3.50
-3.41
-3.10
-2.70
-2.35
-2.13
-2.07
-2.19
-2.46
-2.85
-3.32
-3.83
-4.32
-4.75
-5.07
-5.25
-5.27
-5.12
-4.89
-4.70
-4.66
-4.85
-5.18
-5.42
-5.29
-4.55
-3.15
-1.25
0.86
2.87
4.65
6.19
7.62
9.05
10.51
11.90
13.03
13.73
13.89
13.54
12.76
11.67
10.36
8.88
7.26
5.56
3.90
2.45
1.39
0.83
0.77
1.14
1.77
2.45
2.95
3.00
2.35
0.85
-1.53
-4.54
-7.74
-10.66
-12.95
-14.52
-15.54
-16.33
-17.18
-18.21
-19.39
-20.59
-21.76
-22.96
-24.32
-25.98
-27.95
-30.14
-32.38
-34.58
-36.76
-39.14
-41.98
-45.56
-49.96
-55.02
-60.36
-65.54
-70.29
-74.73
-79.34
-84.81
-91.71
-100.13
-109.54
-119.08
-127.85
-135.51
-142.45
-149.61
-158.08
-168.59
-181.13
-194.94
-208.58
-220.03
-226.91
-226.91
-218.18
-200.00
-173.03
-139.19
-101.08
-61.01
-20.27
21.28
64.75
111.20
160.46
210.39
257.14
296.16
323.89
339.03
342.92
338.95
331.07
322.28
313.99
306.18
298.30
290.20
282.47
276.18
272.13
270.36
270.12
270.37
270.37
269.86
268.80
266.68
261.97
252.29
235.20
209.33
175.03
134.23
89.53
42.79
-5.45
-55.54
-107.73
-160.78
-211.37
-254.28
-283.83
-295.91
-289.79
-268.75
-239.39
-209.74
-186.86
-175.04
-175.07
-184.77
-200.42
-218.09
-234.79
-248.74
-259.20
-266.13
-270.03
-271.82
-272.73
-273.74
-274.91
-274.87
-271.08
-260.56
-240.87
-211.23
-172.82
-128.29
-80.42
-30.85
20.22
73.46
128.83
184.15
234.73
274.52
298.30
303.88
293.22
271.75
246.42
223.34
206.02
195.11
189.28
186.37
184.19
180.52
172.92
159.01
137.25
108.02
74.11
40.00
10.40
-11.64
-25.72
-33.83
-39.00
-43.72
-48.97
-54.11
-57.71
-58.48
-56.07
-51.16
-45.24
-40.00
-36.87
-36.69
-39.47
-44.63
-51.16
-57.92
-63.90
-68.35
-70.81
-71.13
-69.40
-65.84
-60.79
-54.61
-47.63
-40.18
-32.45
-24.52
-16.34
-7.78
1.19
10.42
19.48
27.81
34.84
40.19
43.83
45.95
46.93
47.15
46.88
46.26
45.29
43.97
42.27
40.28
38.17
36.20
34.56
33.36
32.48
31.70
30.76
29.56
28.21
27.04
26.46
26.74
27.89
29.58
31.32
32.62
33.20
33.17
32.87
32.79
33.24
34.23
35.50
36.66
37.46
37.93
38.43
39.52
41.78
45.55
50.78
57.03
63.25
67.84
68.78
64.25
53.25
36.30
15.54
-5.90
-24.85
-39.20
-48.37
-53.11
-54.78
-54.60
-53.21
-50.84
-47.65
-44.06
-40.70
-38.12
-36.54
-35.68
-34.99
-33.96
-32.25
-29.91
-27.24
-24.62
-22.40
-20.73
-19.55
-18.69
-17.92
-17.07
-16.11
-15.19
-14.46
-14.09
-14.03
-14.12
-14.08
-13.72
-13.00
-12.08
-11.22
-10.63
-10.36
-10.29
-10.23
-9.98
-9.46
-8.70
-7.81
-6.92
-6.10
-5.40
-4.81
-4.30
-3.84
-3.40
-2.99
-2.63
-2.34
-2.12
-1.98
-1.90
-1.86
-1.82
-1.79
-1.71
-1.56
-1.31
-0.95
-0.54
-0.18
0.05
0.08
-0.07
-0.32
-0.54
-0.62
-0.52
-0.30
-0.08
0.03
-0.04
-0.25
-0.48
-0.62
-0.65
-0.58
-0.51
-0.52
-0.62
-0.77
-0.89
-0.93
-0.89
-0.79
-0.71
-0.66
-0.65
-0.59
-0.45
-0.20
0.12
0.41
0.57
0.55
0.41
0.26
0.23
0.42
0.78
1.18
1.45
1.48
1.25
0.88
0.47
0.13
-0.11
-0.25
-0.30
-0.25
-0.10
0.11
0.31
0.44
0.47
0.39
0.29
0.21
0.20
0.25
0.34
0.44
0.55
0.65
0.71
0.68
0.52
0.23
-0.14
-0.46
-0.63
-0.60
-0.40
-0.13
0.07
0.10
-0.08
-0.38
-0.69
-0.89
-0.91
-0.75
-0.49
-0.19
0.10
0.37
0.63
0.87
1.06
1.12
1.01
0.69
0.25
-0.19
-0.48
-0.56
-0.46
-0.27
-0.15
-0.15
-0.28
-0.45
-0.55
-0.54
-0.41
-0.25
-0.11
-0.03
0.02
0.08
0.21
0.39
0.60
0.76
0.85
0.85
0.83
0.86
0.98
1.16
1.29
1.26
1.02
0.61
0.21
-0.05
-0.06
0.12
0.35
0.45
0.33
0.00
-0.41
-0.76
-0.95
-0.96
-0.85
-0.71
-0.58
-0.48
-0.37
-0.27
-0.21
-0.25
-0.39
-0.58
-0.69
-0.63
-0.33
0.11
0.55
0.82
0.82
0.59
0.21
-0.19
-0.54
-0.83
-1.04
-1.14
-1.08
-0.86
-0.51
-0.15
0.11
0.20
0.09
-0.14
-0.41
-0.63
-0.77
-0.81
-0.72
-0.49
-0.13
0.33
0.81
1.20
1.43
1.44
1.27
0.98
0.68
0.48
0.43
0.52
0.67
0.79
0.80
0.71
0.56
0.45
0.40
0.40
0.42
0.41
0.37
0.34
0.35
0.41
0.47
0.51
0.49
0.42
0.31
0.19
0.07
-0.04
-0.12
-0.16
-0.17
-0.16
-0.15
-0.17
-0.23
-0.32
-0.42
-0.52
-0.60
-0.64
-0.64
-0.59
-0.51
-0.44
-0.39
-0.35
-0.30
-0.19
-0.02
0.18
0.37
0.46
0.41
0.16
-0.29
-0.85
-1.40
-1.78
-1.87
-1.67
-1.27
-0.83
-0.48
-0.26
-0.11
0.03
0.19
0.33
0.34
0.21
-0.01
-0.16
-0.11
0.15
0.49
0.70
0.65
0.32
-0.15
-0.54
-0.73
-0.67
-0.46
-0.20
0.03
0.23
0.43
0.62
0.75
0.72
0.48
0.07
-0.35
-0.63
-0.69
-0.56
-0.34
-0.16
-0.10
-0.14
-0.26
-0.36
-0.43
-0.43
-0.36
-0.20
0.04
0.34
0.61
0.76
0.72
0.49
0.14
-0.21
-0.47
-0.59
-0.60
-0.54
-0.44
-0.32
-0.17
-0.01
0.13
0.18
0.12
-0.02
-0.16
-0.20
-0.10
0.09
0.26
0.29
0.11
-0.22
-0.60
-0.88
-1.00
-0.93
-0.71
-0.37
0.04
0.46
0.80
0.97
0.91
0.66
0.31
-0.01
-0.24
-0.35
-0.37
-0.30
-0.17
0.02
0.26
0.45
0.54
0.50
0.38
0.29
0.31
0.47
0.69
0.87
0.89
0.70
0.32
-0.17
-0.66
-1.05
-1.23
-1.15
-0.83
-0.34
0.17
0.56
0.73
0.68
0.46
0.18
-0.07
-0.24
-0.32
-0.31
-0.23
-0.11
0.03
0.14
0.18
0.15
0.09
0.05
0.09
0.19
0.32
0.42
0.44
0.40
0.31
0.21
0.14
0.11
0.14
0.25
0.41
0.56
0.60
0.49
0.24
-0.05
-0.26
-0.34
-0.32
-0.31
-0.39
-0.57
-0.79
-0.90
-0.84
-0.61
-0.32
-0.08
0.03
0.04
0.02
0.04
0.11
0.20
0.24
0.19
0.06
-0.12
-0.32
-0.51
-0.68
-0.80
-0.85
-0.81
-0.70
-0.54
-0.40
-0.29
-0.20
-0.11
0.02
0.20
0.43
0.65
0.83
0.92
0.93
0.86
0.75
0.62
0.47
0.32
0.15
-0.02
-0.18
-0.29
-0.31
-0.22
-0.02
0.22
0.44
0.59
0.64
0.62
0.53
0.41
0.27
0.13
0.00
-0.11
-0.21
-0.31
-0.42
-0.53
-0.62
-0.66
-0.61
-0.45
-0.24
-0.03
0.11
0.15
0.10
0.03
0.00
0.04
0.12
0.16
0.12
-0.02
-0.23
-0.43
-0.56
-0.60
-0.55
-0.44
-0.30
-0.16
-0.03
0.06
0.10
0.09
0.02
-0.06
-0.12
-0.11
-0.02
0.14
0.35
0.54
0.66
0.65
0.50
0.23
-0.11
-0.40
-0.57
-0.57
-0.42
-0.20
-0.02
0.04
-0.00
-0.11
-0.18
-0.16
-0.05
0.09
0.21
0.30
0.41
0.58
0.79
0.98
1.04
0.91
0.63
0.31
0.07
-0.01
0.05
0.18
0.30
0.35
0.33
0.25
0.13
0.03
-0.03
-0.03
0.03
0.10
0.11
0.03
-0.14
-0.35
-0.53
-0.67
-0.75
-0.81
-0.85
-0.85
-0.81
-0.73
-0.65
-0.61
-0.63
-0.69
-0.75
-0.76
-0.71
-0.60
-0.43
-0.21
0.10
0.48
0.91
1.29
1.50
1.48
1.22
0.81
0.40
0.12
0.02
0.06
0.13
0.12
-0.01
-0.21
-0.39
-0.46
-0.39
-0.19
0.09
0.38
0.64
0.82
0.86
0.72
0.41
-0.03
-0.50
-0.87
-1.07
-1.05
-0.85
-0.49
-0.05
0.42
0.83
1.13
1.23
1.12
0.78
0.27
-0.28
-0.73
-0.93
-0.81
-0.41
0.12
0.55
0.74
0.63
0.32
-0.06
-0.38
-0.59
-0.71
-0.80
-0.92
-1.08
-1.23
-1.31
-1.25
-1.03
-0.67
-0.23
0.19
0.51
0.70
0.74
0.69
0.56
0.40
0.23
0.07
-0.05
-0.09
-0.07
-0.01
0.02
0.01
-0.04
-0.06
0.02
0.21
0.44
0.63
0.68
0.57
0.35
0.12
-0.07
-0.19
-0.25
-0.28
-0.29
-0.24
-0.13
0.03
0.18
0.21
0.09
-0.13
-0.35
-0.44
-0.34
-0.10
0.17
0.36
0.39
0.28
0.13
0.02
-0.02
-0.01
-0.00
0.00
0.03
0.14
0.36
0.63
0.83
0.86
0.67
0.33
-0.05
-0.34
-0.50
-0.55
-0.55
-0.55
-0.52
-0.42
-0.19
0.12
0.42
0.63
0.67
0.58
0.45
0.38
0.40
0.46
0.44
0.27
-0.06
-0.45
-0.75
-0.84
-0.71
-0.43
-0.17
-0.06
-0.16
-0.38
-0.62
-0.76
-0.72
-0.52
-0.26
-0.02
0.13
0.18
0.19
0.21
0.28
0.38
0.47
0.47
0.37
0.22
0.12
0.17
0.38
0.66
0.86
0.84
0.58
0.19
-0.17
-0.34
-0.30
-0.15
-0.03
-0.04
-0.16
-0.29
-0.33
-0.26
-0.16
-0.13
-0.23
-0.39
-0.50
-0.45
-0.17
0.25
0.69
1.01
1.13
1.07
0.86
0.59
0.31
0.04
-0.17
-0.30
-0.35
-0.30
-0.19
-0.04
0.08
0.14
0.11
-0.01
-0.17
-0.32
-0.40
-0.40
-0.32
-0.21
-0.09
0.02
0.14
0.28
0.43
0.52
0.48
0.26
-0.09
-0.47
-0.72
-0.75
-0.55
-0.24
0.00
0.05
-0.13
-0.44
-0.72
-0.83
-0.74
-0.52
-0.27
-0.08
0.04
0.15
0.30
0.51
0.71
0.80
0.72
0.46
0.13
-0.17
-0.32
-0.30
-0.14
0.10
0.32
0.45
0.46
0.35
0.18
0.02
-0.04
-0.03
0.02
0.03
-0.05
-0.20
-0.36
-0.47
-0.50
-0.47
-0.42
-0.36
-0.25
-0.05
0.23
0.47
0.55
0.34
-0.12
-0.69
-1.13
-1.27
-1.07
-0.66
-0.27
-0.07
-0.12
-0.32
-0.50
-0.52
-0.37
-0.14
0.04
0.08
0.02
-0.05
-0.03
0.09
0.25
0.32
0.23
0.00
-0.24
-0.34
-0.17
0.25
0.80
1.28
1.52
1.44
1.11
0.70
0.35
0.15
0.07
0.01
-0.10
-0.28
-0.43
-0.44
-0.27
0.06
0.41
0.64
0.66
0.48
0.20
-0.08
-0.25
-0.31
-0.27
-0.19
-0.13
-0.11
-0.13
-0.17
-0.21
-0.25
-0.31
-0.40
-0.55
-0.71
-0.85
-0.89
-0.83
-0.69
-0.51
-0.36
-0.26
-0.17
-0.08
0.03
0.14
0.22
0.26
0.28
0.28
0.26
0.20
0.07
-0.13
-0.30
-0.33
-0.13
0.27
0.70
0.99
1.01
0.75
0.35
-0.04
-0.30
-0.39
-0.34
-0.20
-0.01
0.18
0.36
0.47
0.51
0.47
0.39
0.35
0.36
0.41
0.47
0.47
0.41
0.34
0.30
0.32
0.37
0.35
0.19
-0.14
-0.56
-0.96
-1.20
-1.19
-0.94
-0.53
-0.09
0.25
0.41
0.34
0.07
-0.31
-0.72
-1.04
-1.20
-1.17
-0.97
-0.63
-0.23
0.19
0.54
0.77
0.82
0.69
0.43
0.14
-0.05
-0.09
0.03
0.22
0.38
0.42
0.33
0.18
0.09
0.14
0.35
0.65
0.95
1.14
1.16
1.05
0.86
0.67
0.51
0.40
0.29
0.19
0.07
-0.06
-0.20
-0.33
-0.44
-0.51
-0.54
-0.55
-0.59
-0.68
-0.84
-1.01
-1.13
-1.09
-0.89
-0.56
-0.21
0.02
0.04
-0.14
-0.48
-0.86
-1.16
-1.29
-1.19
-0.91
-0.52
-0.14
0.11
0.19
0.15
0.06
0.03
0.11
0.27
0.42
0.44
0.32
0.11
-0.08
-0.12
-0.01
0.21
0.40
0.47
0.41
0.30
0.24
0.28
0.43
0.60
0.74
0.80
0.80
0.75
0.70
0.63
0.54
0.43
0.31
0.17
0.04
-0.08
-0.16
-0.15
-0.02
0.20
0.43
0.55
0.44
0.12
-0.28
-0.57
-0.60
-0.36
-0.01
0.21
0.17
-0.13
-0.51
-0.73
-0.66
-0.36
-0.02
0.17
0.13
-0.08
-0.27
-0.33
-0.26
-0.19
-0.24
-0.45
-0.72
-0.88
-0.80
-0.47
-0.06
0.30
0.51
0.60
0.66
0.73
0.79
0.76
0.55
0.20
-0.19
-0.47
-0.58
-0.55
-0.46
-0.43
-0.48
-0.59
-0.71
-0.76
-0.74
-0.65
-0.51
-0.35
-0.23
-0.18
-0.22
-0.32
-0.42
-0.44
-0.34
-0.08
0.27
0.66
1.01
1.25
1.37
1.37
1.28
1.11
0.88
0.61
0.36
0.18
0.15
0.28
0.51
0.74
0.84
0.75
0.50
0.22
0.03
-0.01
0.07
0.17
0.19
0.08
-0.12
-0.33
-0.48
-0.57
-0.65
-0.77
-0.97
-1.18
-1.28
-1.15
-0.77
-0.28
0.12
0.22
0.01
-0.39
-0.74
-0.78
-0.45
0.15
0.80
1.23
1.32
1.07
0.62
0.15
-0.19
-0.34
-0.35
-0.27
-0.16
-0.05
0.06
0.16
0.26
0.35
0.40
0.39
0.30
0.12
-0.12
-0.36
-0.53
-0.54
-0.35
0.02
0.45
0.79
0.91
0.78
0.45
0.09
-0.19
-0.31
-0.31
-0.26
-0.25
-0.28
-0.31
-0.31
-0.26
-0.24
-0.32
-0.52
-0.81
-1.05
-1.16
-1.06
-0.78
-0.39
0.04
0.46
0.84
1.13
1.26
1.17
0.81
0.26
-0.33
-0.73
-0.79
-0.50
0.01
0.51
0.80
0.81
0.57
0.23
-0.06
-0.22
-0.30
-0.37
-0.51
-0.69
-0.86
-0.92
-0.84
-0.63
-0.35
-0.06
0.20
0.42
0.57
0.62
0.56
0.39
0.17
0.00
-0.04
0.06
0.21
0.31
0.30
0.18
0.04
-0.01
0.05
0.21
0.37
0.45
0.42
0.30
0.16
0.07
0.07
0.17
0.31
0.44
0.51
0.52
0.46
0.35
0.24
0.10
-0.07
-0.30
-0.56
-0.78
-0.89
-0.84
-0.63
-0.35
-0.11
0.03
0.03
-0.06
-0.19
-0.29
-0.34
-0.28
-0.08
0.25
0.66
1.04
1.29
1.37
1.30
1.17
1.05
0.99
0.92
0.78
0.52
0.18
-0.18
-0.47
-0.67
-0.78
-0.86
-0.95
-1.04
-1.10
-1.07
-0.94
-0.72
-0.46
-0.26
-0.16
-0.17
-0.26
-0.35
-0.39
-0.39
-0.35
-0.32
-0.31
-0.31
-0.30
-0.27
-0.21
-0.16
-0.12
-0.09
-0.05
-0.02
0.00
-0.02
-0.09
-0.18
-0.27
-0.32
-0.32
-0.30
-0.23
-0.13
0.02
0.20
0.37
0.49
0.56
0.60
0.67
0.81
1.02
1.25
1.41
1.44
1.27
0.92
0.47
-0.01
-0.42
-0.70
-0.84
-0.84
-0.71
-0.47
-0.13
0.23
0.52
0.64
0.52
0.18
-0.27
-0.70
-0.94
-0.95
-0.76
-0.46
-0.16
0.08
0.21
0.25
0.25
0.25
0.29
0.39
0.50
0.59
0.62
0.58
0.48
0.36
0.24
0.14
0.04
-0.04
-0.11
-0.16
-0.20
-0.24
-0.28
-0.33
-0.39
-0.45
-0.51
-0.58
-0.65
-0.71
-0.75
-0.74
-0.64
-0.45
-0.18
0.13
0.41
0.60
0.63
0.53
0.32
0.07
-0.16
-0.33
-0.45
-0.50
-0.49
-0.40
-0.23
-0.03
0.16
0.27
0.26
0.15
0.01
-0.11
-0.17
-0.22
-0.28
-0.36
-0.38
-0.25
0.05
0.47
0.86
1.09
1.10
0.96
0.77
0.59
0.43
0.23
-0.06
-0.41
-0.70
-0.82
-0.72
-0.46
-0.21
-0.07
-0.08
-0.20
-0.30
-0.30
-0.16
0.07
0.30
0.46
0.51
0.45
0.35
0.27
0.26
0.31
0.39
0.45
0.47
0.45
0.40
0.35
0.29
0.23
0.15
0.02
-0.14
-0.31
-0.47
-0.60
-0.70
-0.78
-0.83
-0.86
-0.86
-0.81
-0.71
-0.53
-0.28
0.03
0.33
0.52
0.55
0.39
0.12
-0.15
-0.30
-0.25
-0.04
0.23
0.45
0.57
0.57
0.51
0.42
0.30
0.15
-0.06
-0.29
-0.47
-0.55
-0.48
-0.26
0.03
0.28
0.43
0.42
0.28
0.06
-0.14
-0.29
-0.37
-0.41
-0.45
-0.52
-0.62
-0.72
-0.77
-0.75
-0.65
-0.51
-0.38
-0.28
-0.17
-0.00
0.28
0.64
1.00
1.21
1.14
0.77
0.18
-0.45
-0.93
-1.14
-1.03
-0.66
-0.15
0.40
0.88
1.22
1.39
1.36
1.14
0.76
0.27
-0.23
-0.64
-0.88
-0.89
-0.72
-0.44
-0.15
0.05
0.17
0.22
0.26
0.34
0.44
0.53
0.57
0.50
0.32
0.06
-0.17
-0.28
-0.23
-0.06
0.11
0.15
-0.00
-0.28
-0.56
-0.70
-0.65
-0.45
-0.20
0.01
0.13
0.16
0.13
0.08
0.01
-0.07
-0.14
-0.16
-0.07
0.13
0.45
0.82
1.16
1.36
1.35
1.08
0.62
0.08
-0.40
-0.72
-0.85
-0.84
-0.74
-0.60
-0.42
-0.23
-0.05
0.09
0.17
0.19
0.20
0.27
0.41
0.58
0.72
0.74
0.58
0.27
-0.10
-0.45
-0.69
-0.86
-0.98
-1.10
-1.22
-1.28
-1.21
-0.97
-0.61
-0.21
0.11
0.33
0.46
0.55
0.65
0.72
0.70
0.55
0.31
0.06
-0.07
-0.05
0.07
0.19
0.25
0.24
0.22
0.24
0.35
0.50
0.63
0.70
0.72
0.71
0.70
0.67
0.60
0.42
0.12
-0.27
-0.72
-1.11
-1.36
-1.39
-1.17
-0.77
-0.29
0.10
0.28
0.22
-0.00
-0.24
-0.37
-0.35
-0.23
-0.09
0.02
0.12
0.26
0.48
0.77
1.07
1.27
1.35
1.31
1.24
1.24
1.39
1.68
2.09
2.55
2.98
3.34
3.57
3.65
3.62
3.51
3.39
3.35
3.43
3.66
4.01
4.40
4.75
5.05
5.38
5.88
6.68
7.76
8.93
9.88
10.35
10.36
10.24
10.58
11.93
14.53
18.10
21.91
25.09
27.00
27.55
27.32
27.27
28.39
31.17
35.36
40.13
44.30
46.91
47.58
46.64
45.04
44.11
45.28
49.66
57.38
67.04
75.33
77.31
67.63
42.37
0.93
-53.05
-112.35
-168.25
-213.31
-243.53
-259.01
-263.01
-260.12
-254.56
-249.18
-245.42
-243.39
-242.11
-239.44
-232.28
-217.03
-190.58
-151.53
-101.17
-43.60
15.06
68.29
110.87
140.26
157.01
164.15
165.80
165.56
165.51
165.95
166.07
164.95
162.23
158.21
153.29
147.45
140.07
130.28
117.62
102.51
86.16
70.17
55.72
43.08
31.74
20.98
10.48
0.76
-7.05
-11.83
-13.23
-11.99
-9.66
-7.94
-7.90
-9.63
-12.37
-15.15
-17.17
-17.96
-17.17
-14.32
-8.84
-0.26
11.18
24.49
38.15
50.65
61.07
69.09
74.67
77.24
75.35
67.03
50.82
27.15
-1.11
-29.12
-51.75
-65.48
-69.72
-66.76
-60.45
-54.45
-50.74
-49.35
-49.11
-48.86
-48.28
-48.02
-48.99
-51.57
-55.23
-58.70
-60.64
-60.23
-57.58
-53.47
-49.01
-45.24
-42.85
-42.13
-42.92
-44.45
-45.15
-42.70
-34.60
-19.10
3.71
31.49
60.09
84.94
102.66
112.27
115.14
114.13
112.21
111.39
112.42
115.20
119.29
124.07
128.45
130.67
128.51
120.18
105.31
85.44
63.45
42.59
25.10
11.73
2.03
-4.68
-8.64
-9.32
-5.94
1.58
11.71
20.97
24.63
18.25
-0.42
-30.07
-65.82
-100.71
-128.39
-145.45
-152.35
-152.57
-150.36
-148.65
-148.11
-147.66
-145.94
-142.57
-138.57
-135.71
-135.53
-138.71
-144.89
-152.88
-161.00
-167.10
-168.51
-162.19
-145.49
-117.33
-79.23
-35.46
7.84
44.53
70.36
84.18
87.89
85.37
80.86
77.56
76.95
78.84
81.99
84.82
86.13
85.37
82.67
78.71
74.34
70.34
67.18
65.06
64.04
64.17
65.69
69.13
75.13
84.11
95.91
109.61
123.77
137.01
148.59
158.76
168.52
179.02
191.02
204.57
219.00
232.96
244.46
250.80
248.97
236.67
213.70
182.74
148.85
117.54
92.23
72.45
53.99
31.04
-0.74
-41.75
-87.98
-132.70
-169.25
-193.58
-205.22
-206.59
-201.27
-192.35
-181.56
-169.60
-156.90
-144.28
-133.06
-124.56
-119.25
-116.33
-113.96
-110.09
-103.45
-94.14
-83.49
-73.45
-65.63
-60.59
-57.71
-55.61
-52.81
-48.40
-42.40
-35.61
-29.20
-24.17
-20.93
-19.22
-18.33
-17.43
-15.95
-13.77
-11.17
-8.72
-6.95
-6.13
-6.14
-6.61
-7.07
-7.20
-6.95
-6.51
-6.13
-6.05
-6.32
-6.86
-7.52
-8.22
-8.91
-9.62
-10.46
-11.52
-12.94
-14.78
-17.05
-19.67
-22.41
-25.08
-27.57
-29.93
-32.42
-35.36
-39.00
-43.34
-48.13
-52.98
-57.51
-61.59
-65.44
-69.53
-74.40
-80.33
-87.25
-94.69
-102.08
-109.02
-115.52
-122.02
-129.06
-137.03
-145.88
-155.26
-164.72
-173.88
-182.35
-189.32
-193.21
-191.76
-182.61
-164.15
-136.21
-100.11
-57.93
-11.62
37.46
88.20
138.90
186.63
227.54
258.03
276.19
282.70
280.44
273.22
264.21
255.10
246.26
237.50
229.01
221.62
216.33
213.66
213.13
213.46
213.19
211.43
208.21
204.37
201.24
200.14
202.05
207.30
215.32
224.31
231.29
232.63
225.05
206.71
177.76
140.15
96.50
48.96
-1.25
-53.36
-105.89
-155.81
-198.87
-230.98
-249.98
-256.69
-254.56
-248.10
-240.98
-234.92
-229.75
-224.40
-218.24
-211.61
-205.68
-201.53
-199.49
-198.75
-197.87
-195.54
-191.28
-185.86
-181.14
-179.38
-182.18
-189.56
-199.32
-207.33
-208.59
-198.79
-175.55
-138.90
-90.96
-35.22
24.09
82.38
134.88
177.13
205.79
219.57
219.85
210.29
195.70
180.46
167.43
157.67
150.89
146.30
143.07
140.64
138.69
137.07
135.83
135.32
136.01
138.21
141.78
145.88
149.15
150.20
148.29
143.77
138.19
133.77
132.58
135.67
142.25
149.70
154.01
150.75
136.25
108.60
68.36
18.69
-35.09
-86.64
-129.97
-160.89
-177.83
-181.94
-176.40
-165.26
-152.24
-139.99
-129.85
-122.14
-116.52
-112.33
-108.70
-104.64
-99.25
-92.10
-83.54
-74.80
-67.55
-63.34
-62.74
-65.11
-68.74
-71.71
-72.72
-71.69
-69.64
-68.11
-68.23
-70.17
-73.10
-75.75
-77.19
-77.30
-76.87
-77.10
-79.05
-83.11
-88.83
-95.06
-100.36
-103.42
-103.52
-100.91
-96.94
-93.83
-94.02
-98.91
-107.92
-117.98
-124.10
-120.81
-103.94
-72.18
-27.73
24.21
76.83
123.46
159.19
181.77
191.67
191.40
184.42
174.14
163.20
153.32
145.43
139.91
136.72
135.35
134.83
133.85
131.10
125.63
117.19
106.20
93.58
80.51
68.16
57.49
49.24
43.86
41.53
42.16
45.34
50.42
56.57
62.94
68.88
74.18
79.15
84.66
91.93
101.89
114.47
127.86
138.37
140.99
130.87
105.22
64.87
14.65
-37.72
-84.02
-118.02
-137.24
-142.99
-139.15
-130.18
-119.58
-109.26
-99.88
-91.57
-84.60
-79.36
-76.06
-74.33
-73.17
-71.29
-67.75
-62.41
-55.96
-49.65
-44.65
-41.57
-40.20
-39.62
-38.70
-36.57
-32.98
-28.43
-23.83
-20.09
-17.72
-16.63
-16.24
-15.77
-14.63
-12.61
-9.98
-7.28
-5.06
-3.67
-3.10
-3.05
-3.09
-2.90
-2.37
-1.61
-0.88
-0.38
-0.17
-0.15
-0.19
-0.17
-0.07
0.07
0.21
0.35
0.53
0.77
1.06
1.33
1.50
1.49
1.31
1.01
0.67
0.38
0.19
0.15
0.23
0.36
0.43
0.35
0.09
-0.29
-0.63
-0.80
-0.68
-0.30
0.19
0.61
0.79
0.69
0.37
-0.02
-0.35
-0.54
-0.59
-0.58
-0.53
-0.48
-0.40
-0.29
-0.16
-0.08
-0.13
-0.33
-0.63
-0.88
-0.94
-0.72
-0.22
0.43
1.05
1.48
1.62
1.45
1.04
0.54
0.07
-0.27
-0.45
-0.49
-0.46
-0.44
-0.48
-0.57
-0.67
-0.70
-0.59
-0.31
0.08
0.50
0.81
0.90
0.72
0.32
-0.18
-0.63
-0.89
-0.88
-0.63
-0.24
0.16
0.45
0.53
0.39
0.11
-0.18
-0.34
-0.28
-0.03
0.31
0.56
0.64
0.55
0.38
0.27
0.27
0.35
0.39
0.30
0.06
-0.25
-0.47
-0.45
-0.15
0.33
0.79
1.04
0.98
0.66
0.21
-0.20
-0.48
-0.61
-0.65
-0.66
-0.63
-0.47
-0.13
0.38
0.93
1.32
1.42
1.19
0.74
0.27
-0.10
-0.31
-0.41
-0.47
-0.56
-0.64
-0.69
-0.68
-0.63
-0.58
-0.55
-0.52
-0.44
-0.31
-0.13
0.00
0.03
-0.08
-0.31
-0.54
-0.67
-0.61
-0.36
-0.00
0.32
0.50
0.50
0.37
0.19
0.06
0.02
0.04
0.06
0.03
-0.05
-0.12
-0.13
-0.07
0.04
0.13
0.16
0.11
0.01
-0.06
-0.09
-0.06
-0.01
0.00
-0.05
-0.18
-0.36
-0.55
-0.68
-0.74
-0.72
-0.62
-0.45
-0.19
0.11
0.41
0.61
0.62
0.41
0.04
-0.35
-0.62
-0.70
-0.60
-0.44
-0.33
-0.31
-0.36
-0.39
-0.35
-0.23
-0.09
0.02
0.07
0.10
0.18
0.36
0.62
0.88
1.06
1.08
0.94
0.71
0.48
0.34
0.33
0.39
0.43
0.39
0.23
0.03
-0.14
-0.18
-0.09
0.09
0.28
0.41
0.46
0.43
0.35
0.23
0.09
-0.04
-0.13
-0.14
-0.06
0.06
0.14
0.13
-0.01
-0.25
-0.51
-0.71
-0.78
-0.72
-0.55
-0.34
-0.14
-0.02
0.00
-0.08
-0.25
-0.43
-0.54
-0.54
-0.39
-0.16
0.08
0.22
0.21
0.07
-0.16
-0.39
-0.54
-0.60
-0.57
-0.48
-0.35
-0.19
-0.01
0.20
0.36
0.41
0.29
0.04
-0.24
-0.39
-0.32
-0.02
0.41
0.80
1.03
1.06
0.97
0.86
0.79
0.77
0.75
0.70
0.59
0.43
0.24
0.02
-0.21
-0.42
-0.57
-0.61
-0.56
-0.45
-0.31
-0.20
-0.10
0.01
0.14
0.25
0.29
0.20
-0.01
-0.30
-0.59
-0.80
-0.89
-0.85
-0.74
-0.58
-0.42
-0.26
-0.09
0.10
0.30
0.48
0.59
0.63
0.60
0.52
0.43
0.32
0.21
0.08
-0.05
-0.15
-0.20
-0.19
-0.14
-0.05
0.03
0.11
0.19
0.24
0.28
0.31
0.33
0.34
0.34
0.29
0.15
-0.06
-0.30
-0.48
-0.57
-0.60
-0.60
-0.63
-0.68
-0.67
-0.55
-0.29
0.04
0.31
0.42
0.35
0.18
0.02
-0.05
-0.04
-0.00
-0.00
-0.06
-0.13
-0.18
-0.21
-0.22
-0.25
-0.31
-0.37
-0.37
-0.31
-0.19
-0.05
0.06
0.16
0.26
0.39
0.52
0.61
0.60
0.46
0.25
0.07
0.01
0.10
0.29
0.45
0.50
0.41
0.21
0.02
-0.07
-0.03
0.12
0.27
0.30
0.16
-0.16
-0.57
-0.94
-1.13
-1.05
-0.73
-0.29
0.11
0.31
0.26
0.01
-0.28
-0.50
-0.58
-0.50
-0.34
-0.14
0.10
0.37
0.67
0.95
1.13
1.14
0.95
0.60
0.17
-0.22
-0.46
-0.51
-0.37
-0.09
0.25
0.54
0.72
0.75
0.67
0.51
0.33
0.14
-0.08
-0.33
-0.58
-0.76
-0.79
-0.64
-0.35
-0.01
0.28
0.46
0.56
0.61
0.61
0.54
0.33
-0.03
-0.48
-0.90
-1.16
-1.20
-1.06
-0.85
-0.67
-0.59
-0.58
-0.55
-0.43
-0.19
0.11
0.36
0.50
0.51
0.45
0.42
0.45
0.52
0.55
0.47
0.27
0.06
-0.06
-0.00
0.20
0.43
0.56
0.49
0.26
-0.05
-0.36
-0.58
-0.70
-0.71
-0.63
-0.45
-0.18
0.09
0.27
0.29
0.15
-0.09
-0.28
-0.35
-0.27
-0.08
0.17
0.47
0.79
1.13
1.40
1.51
1.36
0.98
0.50
0.12
0.00
0.15
0.44
0.66
0.64
0.35
-0.12
-0.61
-0.96
-1.10
-1.02
-0.77
-0.40
-0.02
0.28
0.43
0.41
0.24
0.00
-0.25
-0.45
-0.60
-0.69
-0.72
-0.70
-0.65
-0.58
-0.53
-0.53
-0.57
-0.66
-0.74
-0.77
-0.74
-0.62
-0.43
-0.19
0.04
0.22
0.31
0.33
0.27
0.19
0.11
0.05
0.04
0.12
0.30
0.60
0.96
1.30
1.52
1.55
1.37
1.02
0.61
0.22
-0.05
-0.17
-0.15
-0.04
0.08
0.12
0.05
-0.12
-0.35
-0.56
-0.68
-0.68
-0.58
-0.47
-0.41
-0.44
-0.55
-0.68
-0.76
-0.72
-0.55
-0.27
0.05
0.37
0.61
0.74
0.73
0.60
0.38
0.15
-0.04
-0.14
-0.15
-0.11
-0.06
-0.01
0.02
0.05
0.07
0.11
0.15
0.22
0.34
0.51
0.70
0.84
0.87
0.75
0.55
0.33
0.18
0.16
0.23
0.33
0.36
0.28
0.09
-0.17
-0.44
-0.68
-0.88
-1.05
-1.20
-1.31
-1.33
-1.22
-0.93
-0.54
-0.16
0.10
0.15
0.02
-0.19
-0.34
-0.33
-0.12
0.24
0.64
0.96
1.08
0.96
0.63
0.20
-0.22
-0.51
-0.63
-0.59
-0.39
-0.09
0.28
0.67
0.98
1.13
1.05
0.77
0.37
0.00
-0.21
-0.22
-0.09
0.06
0.14
0.09
-0.06
-0.25
-0.40
-0.44
-0.35
-0.13
0.14
0.39
0.50
0.42
0.17
-0.17
-0.44
-0.53
-0.43
-0.22
-0.02
0.03
-0.10
-0.31
-0.49
-0.54
-0.47
-0.34
-0.23
-0.19
-0.14
0.00
0.31
0.74
1.14
1.30
1.10
0.57
-0.11
-0.71
-1.05
-1.08
-0.90
-0.65
-0.42
-0.26
-0.14
-0.03
0.10
0.24
0.36
0.46
0.55
0.62
0.67
0.68
0.62
0.51
0.35
0.22
0.14
0.17
0.28
0.43
0.58
0.68
0.68
0.59
0.43
0.21
-0.02
-0.24
-0.39
-0.46
-0.44
-0.36
-0.27
-0.26
-0.37
-0.63
-0.96
-1.27
-1.44
-1.41
-1.18
-0.84
-0.54
-0.37
-0.33
-0.34
-0.32
-0.21
-0.06
0.06
0.08
0.02
-0.00
0.10
0.37
0.71
1.00
1.12
1.06
0.85
0.62
0.43
0.31
0.21
0.11
-0.00
-0.10
-0.15
-0.13
-0.04
0.08
0.20
0.28
0.30
0.30
0.27
0.24
0.22
0.20
0.18
0.16
0.11
0.04
-0.08
-0.22
-0.34
-0.40
-0.36
-0.23
-0.06
0.09
0.19
0.26
0.30
0.31
0.25
0.09
-0.21
-0.60
-1.00
-1.28
-1.37
-1.27
-1.02
-0.70
-0.36
-0.04
0.24
0.43
0.50
0.46
0.34
0.22
0.19
0.28
0.48
0.72
0.91
0.94
0.81
0.54
0.20
-0.11
-0.34
-0.49
-0.61
-0.73
-0.85
-0.93
-0.87
-0.67
-0.38
-0.09
0.08
0.12
0.05
-0.04
-0.10
-0.12
-0.13
-0.17
-0.19
-0.14
0.00
0.20
0.34
0.30
0.07
-0.30
-0.63
-0.78
-0.68
-0.40
-0.06
0.17
0.23
0.15
0.07
0.10
0.29
0.58
0.84
0.91
0.74
0.39
-0.00
-0.30
-0.42
-0.35
-0.18
0.05
0.26
0.45
0.60
0.72
0.79
0.84
0.88
0.92
0.94
0.88
0.72
0.46
0.17
-0.07
-0.16
-0.07
0.15
0.40
0.57
0.55
0.31
-0.11
-0.60
-1.03
-1.29
-1.32
-1.19
-0.98
-0.79
-0.67
-0.59
-0.49
-0.37
-0.25
-0.18
-0.18
-0.23
-0.25
-0.17
0.01
0.27
0.52
0.72
0.86
0.95
0.97
0.87
0.59
0.15
-0.40
-0.88
-1.13
-1.07
-0.75
-0.30
0.07
0.25
0.22
0.08
-0.05
-0.05
0.08
0.30
0.53
0.67
0.71
0.67
0.59
0.50
0.39
0.24
0.04
-0.19
-0.36
-0.37
-0.17
0.20
0.63
0.97
1.09
0.97
0.69
0.37
0.15
0.06
0.04
-0.01
-0.16
-0.39
-0.65
-0.83
-0.87
-0.75
-0.51
-0.22
0.05
0.25
0.34
0.32
0.21
0.05
-0.12
-0.23
-0.26
-0.21
-0.11
0.00
0.11
0.17
0.19
0.14
0.05
-0.06
-0.18
-0.26
-0.29
-0.28
-0.26
-0.25
-0.27
-0.29
-0.31
-0.32
-0.33
-0.36
-0.41
-0.45
-0.43
-0.27
0.03
0.44
0.85
1.16
1.29
1.22
1.01
0.72
0.42
0.17
-0.03
-0.17
-0.25
-0.29
-0.28
-0.23
-0.19
-0.20
-0.31
-0.55
-0.85
-1.14
-1.31
-1.30
-1.15
-0.91
-0.65
-0.44
-0.26
-0.12
-0.02
0.01
-0.05
-0.19
-0.35
-0.44
-0.44
-0.35
-0.22
-0.07
0.11
0.35
0.67
0.98
1.17
1.16
0.93
0.60
0.31
0.20
0.25
0.34
0.35
0.21
-0.00
-0.13
-0.04
0.27
0.62
0.82
0.73
0.41
0.04
-0.16
-0.08
0.19
0.46
0.52
0.36
0.08
-0.09
-0.03
0.25
0.58
0.79
0.76
0.53
0.22
-0.06
-0.24
-0.34
-0.41
-0.48
-0.52
-0.49
-0.37
-0.17
0.04
0.16
0.14
-0.05
-0.38
-0.75
-1.03
-1.11
-0.94
-0.58
-0.15
0.19
0.31
0.18
-0.16
-0.59
-0.97
-1.17
-1.11
-0.79
-0.28
0.29
0.80
1.14
1.25
1.15
0.89
0.54
0.21
-0.06
-0.23
-0.31
-0.32
-0.31
-0.31
-0.36
-0.49
-0.69
-0.96
-1.18
-1.22
-0.97
-0.41
0.34
1.06
1.48
1.48
1.11
0.57
0.12
-0.06
0.04
0.28
0.53
0.69
0.77
0.82
0.88
0.95
0.98
0.91
0.72
0.45
0.16
-0.10
-0.30
-0.41
-0.43
-0.35
-0.16
0.07
0.26
0.34
0.26
0.05
-0.24
-0.54
-0.82
-1.03
-1.16
-1.14
-0.93
-0.54
-0.06
0.36
0.58
0.53
0.27
-0.10
-0.45
-0.68
-0.77
-0.73
-0.59
-0.38
-0.13
0.11
0.31
0.45
0.49
0.42
0.26
0.05
-0.14
-0.24
-0.19
-0.03
0.18
0.31
0.33
0.25
0.18
0.25
0.49
0.81
1.02
0.94
0.50
-0.20
-0.95
-1.48
-1.63
-1.38
-0.89
-0.35
0.05
0.23
0.24
0.17
0.10
0.07
0.04
-0.04
-0.17
-0.33
-0.43
-0.43
-0.33
-0.17
-0.03
0.07
0.16
0.27
0.47
0.73
0.98
1.11
1.09
0.99
0.90
0.91
1.02
1.11
1.04
0.75
0.29
-0.16
-0.40
-0.34
-0.01
0.41
0.72
0.76
0.51
0.06
-0.45
-0.90
-1.20
-1.31
-1.24
-0.98
-0.61
-0.23
0.05
0.13
-0.01
-0.31
-0.64
-0.86
-0.90
-0.75
-0.45
-0.08
0.29
0.60
0.81
0.88
0.78
0.49
0.03
-0.49
-0.92
-1.13
-1.01
-0.61
-0.04
0.52
0.90
1.04
0.97
0.77
0.51
0.22
-0.08
-0.40
-0.68
-0.83
-0.81
-0.63
-0.41
-0.30
-0.34
-0.50
-0.64
-0.62
-0.40
-0.04
0.32
0.54
0.56
0.43
0.24
0.08
-0.01
-0.07
-0.14
-0.21
-0.23
-0.16
0.02
0.29
0.55
0.73
0.76
0.65
0.46
0.25
0.09
-0.02
-0.07
-0.05
0.02
0.13
0.25
0.33
0.31
0.18
-0.05
-0.31
-0.52
-0.59
-0.49
-0.24
0.08
0.35
0.49
0.45
0.25
-0.00
-0.23
-0.36
-0.40
-0.38
-0.37
-0.39
-0.46
-0.51
-0.48
-0.35
-0.15
0.08
0.27
0.40
0.48
0.53
0.56
0.58
0.59
0.58
0.53
0.44
0.34
0.25
0.20
0.21
0.24
0.24
0.14
-0.08
-0.36
-0.59
-0.62
-0.42
-0.03
0.38
0.63
0.62
0.40
0.08
-0.18
-0.29
-0.27
-0.17
-0.04
0.10
0.25
0.41
0.53
0.55
0.43
0.18
-0.12
-0.37
-0.49
-0.47
-0.37
-0.27
-0.24
-0.28
-0.37
-0.48
-0.57
-0.60
-0.54
-0.38
-0.15
0.13
0.41
0.65
0.83
0.95
0.96
0.85
0.58
0.17
-0.30
-0.71
-0.95
-0.98
-0.84
-0.66
-0.55
-0.55
-0.62
-0.63
-0.53
-0.31
-0.04
0.16
0.24
0.22
0.16
0.16
0.25
0.42
0.58
0.69
0.70
0.63
0.50
0.34
0.19
0.04
-0.10
-0.22
-0.31
-0.37
-0.37
-0.32
-0.23
-0.08
0.11
0.29
0.40
0.36
0.14
-0.24
-0.65
-0.93
-0.98
-0.77
-0.41
-0.06
0.14
0.16
0.08
0.03
0.10
0.28
0.46
0.53
0.44
0.24
0.04
-0.03
0.05
0.24
0.45
0.60
0.66
0.65
0.61
0.53
0.40
0.22
-0.00
-0.20
-0.32
-0.36
-0.31
-0.22
-0.11
0.01
0.09
0.07
-0.10
-0.44
-0.88
-1.27
-1.46
-1.34
-0.93
-0.36
0.19
0.56
0.64
0.41
-0.01
-0.49
-0.85
-1.00
-0.91
-0.63
-0.28
0.05
0.31
0.51
0.66
0.76
0.78
0.66
0.42
0.13
-0.13
-0.24
-0.17
0.03
0.27
0.45
0.55
0.56
0.54
0.52
0.49
0.43
0.27
0.01
-0.27
-0.49
-0.55
-0.43
-0.18
0.09
0.27
0.34
0.34
0.33
0.36
0.40
0.42
0.35
0.19
0.01
-0.11
-0.12
-0.02
0.09
0.12
0.00
-0.22
-0.47
-0.62
-0.61
-0.43
-0.15
0.16
0.45
0.68
0.82
0.84
0.72
0.47
0.18
-0.06
-0.16
-0.12
0.02
0.17
0.27
0.29
0.27
0.22
0.16
0.10
0.03
-0.05
-0.11
-0.19
-0.31
-0.49
-0.69
-0.86
-0.90
-0.79
-0.56
-0.30
-0.09
0.00
-0.00
-0.05
-0.09
-0.10
-0.08
-0.04
-0.01
0.02
0.05
0.10
0.17
0.24
0.31
0.34
0.29
0.14
-0.12
-0.43
-0.71
-0.90
-0.94
-0.81
-0.57
-0.27
0.04
0.30
0.49
0.57
0.53
0.40
0.23
0.08
0.01
0.04
0.18
0.42
0.71
0.99
1.19
1.27
1.16
0.87
0.44
-0.04
-0.48
-0.82
-1.01
-1.05
-0.96
-0.76
-0.48
-0.19
0.05
0.18
0.21
0.17
0.13
0.15
0.25
0.37
0.44
0.41
0.24
-0.03
-0.33
-0.59
-0.76
-0.80
-0.72
-0.52
-0.21
0.15
0.48
0.67
0.62
0.36
-0.01
-0.32
-0.41
-0.23
0.12
0.42
0.49
0.27
-0.13
-0.51
-0.69
-0.61
-0.36
-0.07
0.12
0.19
0.17
0.11
0.03
-0.08
-0.28
-0.54
-0.80
-0.99
-1.02
-0.87
-0.60
-0.25
0.10
0.41
0.67
0.83
0.88
0.82
0.63
0.36
0.05
-0.21
-0.33
-0.28
-0.08
0.20
0.43
0.52
0.44
0.25
0.07
0.03
0.16
0.42
0.70
0.90
0.96
0.91
0.84
0.78
0.73
0.64
0.45
0.18
-0.11
-0.28
-0.22
0.06
0.45
0.81
0.97
0.88
0.59
0.22
-0.14
-0.41
-0.59
-0.69
-0.76
-0.79
-0.79
-0.75
-0.67
-0.56
-0.44
-0.33
-0.23
-0.14
-0.08
-0.05
-0.04
-0.05
-0.08
-0.13
-0.18
-0.22
-0.24
-0.25
-0.24
-0.24
-0.30
-0.44
-0.70
-1.07
-1.49
-1.87
-2.10
-2.11
-1.94
-1.67
-1.47
-1.48
-1.81
-2.49
-3.45
-4.53
-5.59
-6.48
-7.19
-7.79
-8.44
-9.28
-10.43
-11.92
-13.72
-15.76
-17.98
-20.31
-22.75
-25.29
-27.95
-30.84
-34.04
-37.65
-41.66
-45.91
-50.17
-54.21
-57.92
-61.45
-65.12
-69.37
-74.56
-80.77
-87.82
-95.23
-102.45
-108.96
-114.52
-119.22
-123.61
-128.51
-134.66
-142.11
-149.80
-155.31
-155.42
-147.00
-128.01
-97.98
-57.95
-10.02
43.03
97.77
150.14
195.62
229.99
250.45
256.58
250.40
235.61
216.18
195.13
174.19
154.19
135.77
119.86
107.50
99.40
95.45
94.65
95.50
96.54
96.81
96.07
94.67
93.37
92.99
94.15
97.12
101.75
107.46
113.44
118.93
123.40
126.72
129.18
131.50
134.51
138.72
143.66
147.53
147.31
139.46
121.02
90.57
48.84
-1.29
-55.45
-108.56
-155.83
-193.56
-219.74
-234.29
-238.87
-236.28
-229.70
-221.90
-214.80
-209.43
-206.14
-204.77
-204.70
-205.04
-204.81
-203.34
-200.57
-197.15
-194.10
-192.33
-192.38
-194.20
-197.13
-199.99
-201.08
-198.21
-189.19
-172.24
-146.61
-112.79
-72.24
-26.58
23.04
76.24
132.65
190.88
247.83
298.95
339.62
366.94
380.94
384.45
381.86
377.35
373.42
370.42
366.82
360.19
348.20
329.20
302.55
268.50
227.91
181.70
130.68
75.68
18.20
-38.88
-91.28
-134.25
-164.17
-180.02
-183.91
-180.08
-173.14
-166.21
-160.25
-154.50
-147.74
-139.49
-130.35
-121.61
-114.38
-108.90
-104.52
-100.12
-94.78
-88.21
-80.89
-73.68
-67.38
-62.38
-58.53
-55.39
-52.46
-49.52
-46.60
-43.88
-41.50
-39.36
-37.26
-34.97
-32.51
-30.21
-28.65
-28.42
-29.86
-32.88
-36.95
-41.26
-45.05
-47.89
-50.00
-52.08
-55.12
-59.86
-66.45
-74.28
-82.20
-89.08
-94.27
-97.90
-100.78
-104.07
-108.81
-115.84
-125.65
-138.26
-152.93
-167.81
-180.10
-186.68
-185.27
-175.36
-158.41
-136.98
-113.33
-88.15
-60.23
-27.28
12.44
58.68
108.55
157.20
199.40
231.32
251.67
261.87
265.14
265.13
264.65
264.93
265.82
266.59
266.76
266.45
266.38
267.33
269.68
273.27
277.69
282.61
287.89
293.29
297.96
300.13
297.16
286.41
266.19
236.54
199.24
157.09
112.64
67.21
20.73
-27.46
-77.16
-126.35
-171.15
-206.95
-230.28
-240.15
-238.46
-229.05
-216.09
-202.58
-189.75
-177.53
-165.50
-153.69
-142.72
-133.35
-125.83
-119.60
-113.53
-106.54
-98.15
-88.73
-79.26
-70.83
-64.09
-59.00
-54.93
-51.00
-46.52
-41.32
-35.73
-30.38
-25.87
-22.50
-20.19
-18.53
-17.00
-15.19
-12.92
-10.29
-7.62
-5.27
-3.55
-2.52
-2.06
-1.88
-1.70
-1.33
-0.75
-0.08
0.53
0.98
1.25
1.39
1.49
1.60
1.73
1.84
1.91
1.95
1.94
1.91
1.86
1.74
1.51
1.13
0.62
0.05
-0.48
-0.89
-1.11
-1.14
-1.05
-0.91
-0.81
-0.80
-0.89
-1.03
-1.17
-1.27
-1.32
-1.34
-1.37
-1.45
-1.56
-1.67
-1.75
-1.78
-1.77
-1.74
-1.72
-1.73
-1.80
-1.95
-2.19
-2.49
-2.82
-3.16
-3.48
-3.75
-3.97
-4.09
-4.08
-3.97
-3.79
-3.62
-3.51
-3.43
-3.29
-3.02
-2.64
-2.34
-2.40
-3.04
-4.31
-5.96
-7.55
-8.62
-8.90
-8.44
-7.65
-7.08
-7.22
-8.30
-10.16
-12.38
-14.47
-16.10
-17.32
-18.53
-20.29
-23.03
-26.84
-31.33
-35.81
-39.56
-42.20
-43.93
-45.52
-47.95
-52.02
-57.91
-65.01
-72.15
-78.14
-82.33
-84.96
-87.09
-90.08
-95.10
-102.62
-112.27
-122.97
-132.95
-139.75
-140.34
-131.65
-111.45
-79.60
-38.85
5.52
47.29
81.64
106.92
124.79
138.79
152.06
165.73
178.70
188.94
195.04
197.15
196.66
195.04
192.86
189.70
184.91
178.77
172.99
170.16
172.30
179.31
188.19
193.50
188.90
169.30
132.96
82.49
24.39
-32.88
-81.53
-116.80
-137.99
-147.82
-150.61
-150.30
-149.12
-147.54
-145.11
-141.50
-137.11
-132.98
-130.28
-129.69
-131.02
-133.34
-135.15
-134.77
-130.75
-122.46
-110.48
-96.53
-82.97
-71.86
-63.98
-58.54
-53.72
-47.67
-39.24
-27.94
-13.40
5.10
28.34
56.26
87.09
