1660756358.00
64.000000
-0.00
-0.00
-0.00
-0.00
-0.00
-0.00
-0.00
-0.00
-0.00
-0.00
0.00
0.01
0.01
-0.00
-0.03
-0.05
-0.05
0.00
0.13
0.36
0.66
1.01
1.37
1.72
2.06
2.40
2.79
3.24
3.80
4.42
5.06
5.66
6.20
6.68
7.15
7.68
8.31
9.14
10.09
11.04
11.88
12.56
13.14
13.76
14.65
15.96
17.91
20.32
22.90
25.38
27.58
29.57
31.68
34.32
37.81
42.54
48.15
54.10
59.83
64.97
69.58
74.14
79.34
85.71
93.76
103.00
112.62
121.73
129.77
136.75
143.30
150.75
157.77
166.64
177.95
191.79
206.97
220.57
228.25
225.36
208.53
176.87
132.76
80.05
23.07
-34.94
-92.44
-149.16
-205.23
-260.37
-313.74
-363.87
-409.83
-450.91
-486.50
-515.74
-537.23
-549.22
-549.96
-538.37
-514.21
-478.67
-433.88
-382.45
-327.02
-269.84
-212.63
-156.66
-102.95
-52.37
-5.90
35.58
71.43
101.35
125.50
144.38
158.69
169.15
176.37
180.75
182.57
182.07
179.51
175.23
169.65
163.18
156.15
148.81
141.30
133.69
126.02
118.33
110.69
103.16
95.80
88.68
81.83
75.25
68.95
62.95
57.25
51.86
46.78
42.03
37.59
33.45
29.61
26.07
22.81
19.83
17.11
14.67
12.48
10.54
8.83
7.35
6.07
4.97
4.05
3.27
2.62
2.09
1.65
1.30
1.01
0.79
0.61
0.47
0.37
0.29
0.23
0.19
0.17
0.16
0.16
0.17
0.19
0.21
0.24
0.28
0.32
0.36
0.40
0.45
0.50
0.54
0.59
0.64
0.70
0.76
0.82
0.89
0.97
1.05
1.15
1.25
1.37
1.49
1.64
1.81
1.99
2.19
2.42
2.67
2.95
3.25
3.59
3.96
4.36
4.79
5.27
5.77
6.32
6.91
7.54
8.22
8.93
9.69
10.50
11.35
12.25
13.19
14.18
15.24
16.36
17.54
18.78
20.05
21.32
22.52
23.57
24.37
24.80
24.73
24.05
22.69
20.59
17.77
14.30
10.25
5.83
1.23
-3.34
-7.66
-11.54
-14.80
-17.36
-19.15
-20.16
-20.44
-20.07
-19.18
-17.88
-16.28
-14.50
-12.61
-10.64
-8.63
-6.55
-4.47
-2.42
-0.43
1.49
3.34
5.13
6.93
8.82
10.90
13.11
15.40
17.74
20.10
22.48
24.92
27.51
30.37
33.70
37.31
41.09
44.93
48.76
52.54
56.32
60.25
64.58
69.59
75.00
80.55
85.98
91.04
95.61
99.74
103.71
107.94
112.84
118.00
122.91
126.90
129.22
129.19
126.27
119.93
109.15
97.10
84.54
71.47
57.37
41.64
23.93
4.43
-16.15
-36.81
-56.49
-75.19
-93.21
-111.14
-129.84
-150.27
-173.32
-199.39
-227.80
-256.26
-281.46
-299.12
-305.55
-299.07
-280.79
-254.25
-224.09
-194.39
-167.50
-144.27
-124.25
-106.67
-91.14
-77.60
-66.12
-56.44
-47.93
-39.77
-31.58
-23.34
-15.53
-8.88
-3.99
-1.06
0.23
0.46
0.21
-0.36
-1.48
-3.55
-6.69
-10.43
-13.62
-14.81
-12.85
-7.36
1.05
11.01
20.93
29.51
36.11
40.70
43.64
45.31
45.96
45.69
44.55
42.69
40.43
38.14
36.07
34.30
32.67
30.88
28.71
26.12
23.30
20.51
18.04
15.98
14.23
12.48
10.43
7.87
4.76
1.28
-2.29
-5.68
-8.68
-11.17
-13.19
-14.85
-16.42
-18.22
-20.64
-23.95
-28.21
-33.11
-37.96
-41.73
-43.36
-41.99
-37.33
-29.79
-20.37
-10.46
-1.37
5.98
11.24
14.56
16.37
17.10
17.09
16.57
15.83
15.23
15.16
15.92
17.49
19.55
21.55
22.88
23.21
22.56
21.29
19.86
18.63
17.59
16.43
14.71
12.14
8.72
4.87
1.15
-1.95
-4.21
-5.79
-7.16
-8.91
-11.54
-15.24
-19.82
-24.65
-28.72
-30.90
-30.25
-26.31
-19.38
-10.39
-0.68
8.41
15.93
21.51
25.23
27.47
28.64
29.06
28.95
28.50
27.92
27.40
27.11
27.03
27.01
26.83
26.32
25.40
24.08
22.42
20.45
18.15
15.47
12.39
8.96
5.40
1.99
-0.97
-3.31
-5.14
-6.74
-8.50
-10.77
-13.73
-17.29
-21.16
-24.77
-27.38
-28.12
-26.18
-21.08
-12.83
-2.08
10.02
22.16
33.21
42.52
49.87
55.47
59.61
62.66
64.96
66.88
68.86
71.30
74.45
78.14
81.81
84.53
85.36
83.64
79.22
72.45
63.99
54.45
44.20
33.29
21.60
9.08
-3.99
-17.03
-29.34
-40.43
-50.30
-59.66
-69.85
-82.40
-98.47
-118.04
-139.54
-159.80
-174.87
-181.19
-176.77
-161.76
-138.31
-109.73
-79.39
-50.17
-24.27
-3.43
10.89
17.83
17.62
12.03
4.22
-2.05
-3.64
1.06
11.74
26.59
42.95
58.04
69.30
74.65
72.78
63.48
47.90
28.34
7.54
-12.22
-29.77
-45.09
-58.76
-71.28
-82.62
-92.48
-100.75
-107.89
-114.81
-122.28
-130.26
-137.63
-142.66
-143.78
-140.34
-132.88
-122.72
-111.13
-98.62
-84.68
-68.13
-47.85
-23.41
4.66
35.13
66.53
97.49
126.69
152.48
172.52
183.95
184.04
171.36
146.85
114.25
79.67
50.29
32.67
31.35
48.23
82.59
131.42
189.54
249.55
302.34
338.40
350.23
334.85
295.29
240.13
180.87
128.37
89.77
67.06
57.69
56.57
58.30
58.68
55.39
47.82
36.56
22.80
7.92
-6.92
-20.85
-33.26
-43.78
-52.28
-58.92
-64.14
-68.49
-72.34
-75.64
-77.84
-78.14
-75.91
-71.03
-64.15
-56.47
-49.43
-44.11
-40.92
-39.51
-39.00
-38.45
-37.24
-35.31
-33.10
-31.29
-30.47
-30.74
-31.61
-32.17
-31.42
-28.67
-23.87
-17.52
-10.50
-3.70
2.28
7.27
11.37
14.72
17.36
19.16
19.99
19.87
19.15
18.37
18.11
18.72
20.09
21.76
23.09
23.50
22.73
20.81
18.00
14.57
10.69
6.44
1.78
-3.32
-8.93
-15.12
-21.90
-29.11
-36.30
-42.71
-47.38
-49.44
-48.38
-44.35
-38.15
-30.98
-24.06
-18.31
-14.08
-11.30
-9.61
-8.70
-8.41
-8.73
-9.62
-10.86
-12.06
-12.78
-12.71
-11.86
-10.60
-9.44
-8.83
-9.01
-9.87
-11.11
-12.39
-13.49
-14.43
-15.39
-16.60
-18.28
-20.52
-23.36
-26.77
-30.57
-34.38
-37.55
-39.31
-38.94
-36.09
-30.93
-24.18
-16.80
-9.78
-3.74
1.09
4.88
7.89
10.32
12.16
13.24
13.39
12.62
11.26
9.85
8.97
8.91
9.56
10.46
10.98
10.67
9.45
7.59
5.48
3.49
1.73
0.13
-1.48
-3.26
-5.31
-7.71
-10.58
-14.00
-17.98
-22.29
-26.35
-29.36
-30.45
-29.05
-25.06
-18.97
-11.69
-4.23
2.55
8.17
12.55
15.85
18.26
19.87
20.72
20.84
20.35
19.47
18.43
17.38
16.35
15.29
14.14
12.90
11.57
10.15
8.54
6.59
4.18
1.25
-2.08
-5.56
-8.92
-11.92
-14.46
-16.60
-18.57
-20.73
-23.47
-26.99
-31.27
-35.88
-40.05
-42.79
-43.18
-40.66
-35.20
-27.42
-18.33
-9.08
-0.60
6.58
12.35
16.92
20.54
23.37
25.40
26.58
26.87
26.40
25.44
24.35
23.39
22.67
22.12
21.56
20.83
19.85
18.66
17.31
15.79
13.99
11.76
9.08
6.06
3.00
0.16
-2.32
-4.53
-6.73
-9.28
-12.49
-16.47
-21.09
-25.89
-30.15
-32.99
-33.58
-31.46
-26.66
-19.79
-11.82
-3.78
3.51
9.68
14.68
18.65
21.71
23.91
25.22
25.63
25.29
24.51
23.68
23.18
23.21
23.72
24.43
24.94
24.92
24.24
23.00
21.45
19.85
18.34
16.84
15.18
13.17
10.70
7.83
4.76
1.78
-0.90
-3.15
-5.03
-6.80
-8.83
-11.47
-14.96
-19.35
-24.38
-29.49
-33.92
-36.82
-37.49
-35.55
-31.10
-24.70
-17.26
-9.66
-2.59
3.61
8.89
13.31
16.85
19.42
20.91
21.35
20.98
20.14
19.17
18.33
17.67
17.17
16.76
16.39
16.01
15.59
15.03
14.25
13.18
11.80
10.21
8.51
6.78
5.03
3.22
1.25
-0.91
-3.22
-5.56
-7.82
-9.89
-11.76
-13.53
-15.30
-17.21
-19.34
-21.79
-24.64
-27.91
-31.41
-34.64
-36.80
-36.99
-34.61
-29.59
-22.55
-14.61
-7.04
-0.73
3.96
7.28
9.76
11.92
13.96
15.79
17.14
17.81
17.84
17.46
17.05
16.85
16.89
17.01
16.94
16.47
15.57
14.36
13.02
11.72
10.48
9.24
7.90
6.36
4.59
2.57
0.34
-2.07
-4.58
-7.06
-9.34
-11.28
-12.81
-13.94
-14.77
-15.45
-16.17
-17.21
-18.83
-21.14
-23.97
-26.67
-28.25
-27.72
-24.49
-18.70
-11.24
-3.42
3.58
9.07
13.01
15.79
17.85
19.43
20.50
20.92
20.65
19.88
19.02
18.49
18.53
19.11
19.93
20.56
20.65
20.07
18.95
17.65
16.54
15.85
15.49
15.11
14.21
12.44
9.74
6.40
2.97
-0.06
-2.36
-3.91
-4.97
-5.88
-7.06
-8.81
-11.31
-14.54
-18.22
-21.79
-24.51
-25.65
-24.70
-21.63
-16.84
-11.13
-5.42
-0.52
3.09
5.29
6.27
6.36
5.90
5.16
4.34
3.56
2.94
2.58
2.51
2.75
3.18
3.63
3.91
3.83
3.32
2.45
1.42
0.50
-0.15
-0.59
-1.10
-2.02
-3.62
-5.84
-8.33
-10.59
-12.20
-13.06
-13.48
-14.06
-15.50
-18.39
-22.96
-28.96
-35.67
-41.98
-46.65
-48.65
-47.39
-42.84
-35.50
-26.23
-15.98
-5.64
4.04
12.47
19.25
24.17
27.27
28.84
29.38
29.43
29.39
29.42
29.36
28.78
27.11
23.83
18.65
11.58
2.95
-6.80
-17.27
-28.28
-39.84
-51.98
-64.58
-77.24
-89.43
-100.63
-110.57
-119.27
-126.87
-133.60
-139.65
-145.48
-151.84
-159.40
-168.12
-176.75
-182.92
-184.15
-179.11
-168.41
-154.43
-140.08
-127.41
-116.77
-107.16
-97.32
-86.78
-76.22
-66.89
-59.58
-54.02
-48.91
-42.61
-33.93
-22.41
-8.08
8.92
28.50
50.30
73.30
95.55
114.50
127.77
134.09
133.74
128.35
120.15
111.08
102.30
94.21
86.82
80.05
73.90
68.21
62.57
56.31
48.99
40.80
32.68
26.08
22.32
21.97
24.54
28.62
32.57
35.10
35.80
35.01
33.52
32.08
30.99
30.12
29.16
27.88
26.33
24.75
23.43
22.49
21.85
21.31
20.67
19.92
19.17
18.60
18.31
18.21
18.07
17.59
16.56
14.93
12.83
10.59
8.51
6.87
5.75
5.00
4.40
3.76
3.10
2.76
3.25
5.04
8.22
12.41
16.79
20.41
22.63
23.30
22.90
22.27
22.33
23.79
26.98
31.87
38.19
45.41
52.86
59.73
65.15
68.53
69.84
69.75
69.50
70.32
72.79
76.39
79.56
80.38
77.46
70.63
61.05
50.74
41.77
35.54
32.46
32.13
33.65
35.93
37.86
38.30
36.17
30.66
21.52
9.39
-4.17
-16.96
-26.66
-31.50
-30.80
-25.12
-16.05
-5.72
3.84
11.10
15.32
16.47
15.00
11.61
7.08
2.08
-2.80
-7.10
-10.50
-12.80
-14.00
-14.30
-14.07
-13.81
-14.02
-15.09
-17.18
-20.29
-24.25
-28.82
-33.66
-38.33
-42.25
-44.78
-45.41
-43.92
-40.52
-35.82
-30.63
-25.71
-21.56
-18.38
-16.12
-14.63
-13.73
-13.33
-13.27
-13.35
-13.28
-12.83
-11.99
-10.93
-10.05
-9.75
-10.28
-11.61
-13.45
-15.34
-16.79
-17.37
-16.78
-15.01
-12.31
-9.29
-6.79
-5.68
-6.55
-9.51
-14.08
-19.39
-24.33
-27.82
-29.00
-27.20
-22.08
-13.69
-2.51
10.57
24.41
37.82
49.87
60.00
68.16
74.75
80.45
86.05
92.18
99.11
106.64
114.09
120.49
124.79
126.02
123.47
116.71
105.69
90.82
72.89
53.04
32.47
12.15
-7.44
-26.32
-44.76
-62.88
-80.36
-96.39
-109.83
-119.65
-125.23
-126.58
-124.19
-118.94
-111.80
-103.63
-95.14
-86.79
-78.81
-71.18
-63.75
-56.28
-48.60
-40.74
-32.91
-25.51
-18.94
-13.57
-9.55
-6.82
-5.04
-3.72
-2.33
-0.55
1.65
3.99
5.97
7.14
7.23
6.26
4.46
2.18
-0.28
-2.73
-5.13
-7.55
-10.12
-12.96
-16.05
-19.23
-22.10
-24.15
-24.83
-23.75
-20.87
-16.47
-11.04
-5.16
0.71
6.26
11.35
15.89
19.82
23.08
25.64
27.52
28.78
29.53
29.91
30.07
30.14
30.24
30.34
30.37
30.14
29.54
28.52
27.16
25.61
23.97
22.26
20.41
18.34
16.05
13.58
11.08
8.68
6.46
4.40
2.36
0.13
-2.50
-5.71
-9.54
-13.81
-18.12
-21.90
-24.50
-25.39
-24.32
-21.44
-17.24
-12.43
-7.64
-3.27
0.56
3.98
7.13
10.11
12.89
15.34
17.34
18.80
19.64
19.85
19.46
18.60
17.57
16.75
16.53
17.09
18.32
19.81
21.02
21.43
20.77
19.02
16.42
13.25
9.80
6.28
2.87
-0.24
-2.83
-4.72
-5.73
-5.85
-5.17
-3.93
-2.42
-0.98
0.07
0.51
0.24
-0.65
-1.91
-3.09
-3.74
-3.43
-1.92
0.78
4.38
8.45
12.54
16.35
19.78
22.88
25.76
28.45
30.86
32.83
34.19
34.87
34.89
34.37
33.52
32.50
31.52
30.71
30.10
29.61
29.06
28.24
27.03
25.45
23.64
21.78
20.03
18.40
16.84
15.27
13.64
11.98
10.33
8.73
7.14
5.51
3.81
2.06
0.32
-1.34
-2.94
-4.59
-6.46
-8.69
-11.28
-14.05
-16.59
-18.41
-19.06
-18.28
-16.13
-12.96
-9.33
-5.75
-2.60
0.00
2.17
4.11
5.97
7.77
9.39
10.70
11.64
12.29
12.77
13.25
13.74
14.14
14.29
14.12
13.68
13.12
12.66
12.37
12.19
11.93
11.34
10.32
8.91
7.29
5.69
4.32
3.24
2.39
1.58
0.60
-0.65
-2.19
-3.88
-5.53
-7.00
-8.24
-9.34
-10.44
-11.71
-13.22
-14.93
-16.69
-18.22
-19.28
-19.58
-18.99
-17.54
-15.42
-12.91
-10.29
-7.74
-5.36
-3.18
-1.20
0.54
1.98
3.05
3.74
4.10
4.25
4.35
4.57
4.99
5.60
6.23
6.64
6.60
6.05
5.09
4.03
3.19
2.77
2.73
2.83
2.77
2.36
1.54
0.47
-0.69
-1.78
-2.77
-3.69
-4.57
-5.44
-6.30
-7.17
-8.12
-9.23
-10.55
-12.03
-13.57
-14.98
-16.06
-16.58
-16.36
-15.27
-13.37
-10.97
-8.43
-6.14
-4.28
-2.81
-1.53
-0.28
0.94
2.01
2.76
3.16
3.38
3.63
4.07
4.65
5.18
5.43
5.31
4.89
4.33
3.79
3.34
2.98
2.69
2.47
2.33
2.24
2.09
1.72
1.03
0.04
-1.09
-2.14
-2.97
-3.55
-4.01
-4.51
-5.20
-6.13
-7.27
-8.57
-9.90
-11.14
-12.13
-12.66
-12.53
-11.65
-10.06
-7.93
-5.57
-3.30
-1.38
0.11
1.24
2.18
3.08
4.00
4.87
5.59
6.16
6.66
7.25
8.07
9.13
10.25
11.25
11.98
12.45
12.80
13.24
13.87
14.66
15.46
16.11
16.47
16.55
16.41
16.15
15.91
15.75
15.71
15.76
15.88
15.99
16.10
16.25
16.57
17.31
18.81
21.41
25.30
30.47
36.65
43.35
50.00
56.11
61.46
66.08
70.36
74.73
79.46
84.36
88.75
91.45
91.12
86.83
78.44
66.78
53.31
39.59
26.62
14.93
4.33
-5.64
-15.31
-24.68
-33.41
-41.05
-47.03
-50.65
-50.66
-46.24
-37.56
-26.28
-15.31
-7.91
-6.55
-11.96
-22.79
-35.56
-46.72
-53.90
-56.36
-54.55
-49.19
-40.69
-29.22
-15.25
0.71
16.80
30.23
38.46
40.48
37.62
33.05
30.30
26.32
19.40
9.25
-2.68
-14.50
-24.95
-33.35
-39.49
-43.66
-46.60
-48.13
-48.03
-46.12
-41.99
-35.61
-27.45
-18.69
-11.00
-6.05
-4.20
-5.24
-8.88
-13.69
-18.77
-23.36
-26.77
-28.27
-27.35
-23.32
-16.27
-7.17
2.43
10.80
16.85
20.37
21.72
20.98
18.35
13.88
7.47
-1.20
-12.82
-27.77
-45.47
-64.22
-81.97
-95.96
-103.53
-103.25
-95.68
-83.52
-70.24
-58.61
-50.56
-48.22
-52.57
-63.16
-78.04
-94.34
-109.13
-119.65
-123.32
-119.19
-109.53
-97.38
-85.38
-75.13
-67.58
-63.91
-64.82
-69.75
-66.37
-47.21
-12.96
27.45
63.83
90.67
107.79
115.57
120.19
125.37
129.89
130.45
123.93
109.10
89.62
69.24
51.93
41.11
37.52
38.31
39.61
38.44
33.73
26.02
16.03
4.51
-7.64
-20.16
-33.41
-47.14
-60.16
-70.78
-77.64
-80.67
-80.65
-78.55
-75.57
-72.80
-70.65
-68.70
-66.03
-61.70
-55.44
-47.51
-38.64
-30.04
-23.07
-18.61
-16.77
-16.81
-17.49
-17.68
-16.65
-14.25
-10.90
-7.28
-3.97
-1.29
0.70
2.15
3.20
3.98
4.56
5.02
5.39
5.76
6.18
6.58
6.85
6.77
6.14
4.85
2.97
0.75
-1.39
-3.01
-3.78
-3.53
-2.31
-0.38
1.96
4.37
6.58
8.42
9.80
10.64
10.93
10.67
9.93
8.87
7.77
6.95
6.57
6.64
6.94
7.10
6.80
5.95
4.66
3.22
1.87
0.73
-0.33
-1.53
-3.08
-4.99
-7.09
-9.13
-10.95
-12.57
-14.09
-15.59
-16.92
-17.71
-17.56
-16.24
-13.80
-10.57
-7.02
-3.60
-0.61
1.96
4.18
6.26
8.40
10.99
14.54
19.47
25.82
33.05
40.16
45.89
49.17
49.56
47.42
43.78
39.86
36.64
34.49
33.40
32.73
31.23
27.35
19.95
8.79
-5.44
-21.34
-37.26
-50.96
-60.50
-64.73
-63.43
-57.01
-46.22
-32.24
-16.73
-1.64
12.04
23.34
30.91
33.30
30.13
23.01
15.30
10.82
12.29
21.73
39.08
62.13
87.64
112.69
135.32
154.14
167.74
166.49
144.93
106.19
61.57
23.17
-2.86
-16.81
-22.67
-24.91
-26.55
-27.39
-26.15
-22.33
-17.03
-12.15
-9.12
-8.45
-9.72
-11.97
-13.05
-11.25
-6.39
0.19
6.42
10.64
12.14
11.21
8.92
7.27
7.89
10.99
15.41
19.12
20.18
17.55
11.38
2.86
-5.95
-13.37
-18.92
-23.29
-28.07
-34.92
-44.96
-58.65
-75.85
-95.67
-114.61
-129.79
-136.87
-131.91
-113.51
-84.12
-49.86
-18.14
5.23
18.28
22.79
22.84
22.00
21.64
21.08
19.04
15.20
10.68
7.41
6.73
8.93
13.06
17.54
20.58
20.84
17.48
10.08
-1.01
-14.60
-28.57
-40.50
-48.52
-51.88
-51.45
-47.88
-42.11
-34.72
-26.03
-16.35
-6.46
2.42
9.08
12.94
14.39
14.40
14.15
14.50
15.64
17.14
18.20
18.13
16.59
13.87
10.55
7.46
5.30
4.56
5.20
6.83
8.77
10.36
11.12
10.76
9.33
7.12
4.50
1.73
-1.09
-4.04
-7.21
-10.60
-14.08
-17.44
-20.56
-23.41
-26.24
-29.33
-32.80
-36.39
-39.50
-41.50
-42.00
-41.15
-39.51
-38.03
-37.63
-38.92
-42.03
-46.65
-52.23
-58.15
-64.66
-71.64
-78.90
-86.19
-93.13
-99.19
-103.55
-105.32
-103.58
-97.82
-88.11
-75.45
-61.57
-48.43
-37.50
-29.27
-23.12
-17.71
-11.66
-4.15
4.62
13.48
20.71
24.63
24.08
18.78
9.52
-1.94
-13.07
-21.23
-24.32
-21.50
-13.60
-3.03
6.88
12.92
12.98
6.69
-4.58
-18.34
-31.74
-42.45
-49.11
-51.60
-50.85
-48.50
-46.41
-46.13
-48.30
-52.38
-56.63
-58.65
-56.21
-48.03
-34.33
-16.71
2.41
20.67
36.53
49.57
60.28
69.52
77.87
85.34
91.18
94.19
93.13
87.36
77.41
65.36
54.54
48.69
50.49
60.27
75.54
91.56
103.00
105.85
98.69
82.92
61.86
39.35
18.57
1.41
-11.52
-20.48
-26.23
-29.74
-32.09
-34.34
-37.36
-41.62
-46.90
-52.21
-55.91
-56.21
-51.77
-42.39
-29.17
-14.34
-0.50
10.24
16.87
19.50
19.01
16.50
12.96
9.30
6.49
5.57
7.31
11.78
17.94
23.90
27.53
27.35
23.10
15.90
7.79
0.96
-2.84
-2.78
1.03
7.69
15.85
24.02
30.91
35.50
37.17
35.54
30.51
22.49
12.67
3.12
-3.48
-4.66
0.92
12.79
28.71
45.45
59.96
70.34
76.19
78.34
78.28
77.52
77.30
78.55
81.75
86.76
92.63
97.58
99.53
96.78
88.87
76.80
62.78
49.36
38.41
30.69
25.74
22.39
19.42
15.89
11.29
5.30
-2.31
-11.72
-22.78
-34.68
-45.92
-54.46
-58.41
-56.67
-49.40
-38.11
-25.34
-14.09
-7.01
-5.68
-9.94
-17.72
-25.57
-29.84
-28.16
-20.61
-9.75
0.37
6.01
5.42
-0.54
-8.90
-16.12
-19.55
-18.34
-13.33
-6.21
1.37
8.42
14.56
19.69
23.55
25.55
24.98
21.48
15.53
8.53
2.44
-0.92
-0.60
3.19
9.28
16.19
22.71
28.25
32.71
36.22
39.02
41.46
44.20
48.25
54.61
63.61
74.37
84.70
91.78
93.26
88.29
77.98
64.91
52.01
41.33
33.39
27.23
21.23
14.13
5.63
-3.56
-12.32
-19.77
-25.70
-30.46
-34.50
-37.94
-40.53
-41.94
-42.20
-41.89
-41.97
-43.30
-46.24
-50.56
-55.63
-60.58
-64.31
-65.51
-62.73
-54.88
-41.92
-25.36
-8.18
6.09
14.59
16.26
12.15
4.89
-2.43
-7.31
-8.49
-5.96
-0.59
6.29
13.39
19.61
24.26
27.04
28.04
27.64
26.43
25.07
24.23
24.34
25.48
27.24
28.79
29.29
28.28
26.15
24.17
24.08
27.25
33.90
42.67
51.09
56.64
58.04
56.09
53.41
53.26
57.87
67.11
78.24
86.85
88.58
80.93
64.10
40.84
15.20
-8.91
-28.83
-43.46
-52.87
-57.62
-57.99
-54.18
-46.73
-36.79
-26.08
-16.48
-9.52
-6.05
-6.08
-8.57
-12.02
-14.82
-15.55
-13.18
-7.27
1.79
12.78
23.86
33.75
41.49
46.51
48.71
48.53
46.76
44.18
40.96
36.55
31.68
26.57
20.89
14.21
6.87
0.46
-2.86
-1.63
4.08
16.50
35.84
59.69
83.54
103.04
115.99
122.75
125.22
125.71
132.22
150.00
179.16
214.99
252.02
288.09
324.90
365.85
412.94
473.04
547.50
630.36
709.98
774.83
818.54
840.85
845.45
787.63
646.32
432.52
188.14
-39.66
-222.13
-352.52
-437.41
-488.00
-515.82
-522.26
-508.50
-478.79
-441.78
-406.88
-379.86
-362.30
-353.13
-350.95
-348.12
-338.92
-322.35
-303.27
-288.14
-281.62
-286.09
-297.59
-313.32
-327.18
-334.85
-335.64
-333.84
-334.50
-341.05
-354.65
-374.73
-400.32
-427.15
-449.86
-463.07
-464.09
-450.77
-422.15
-379.44
-326.49
-269.44
-213.56
-162.49
-108.37
-51.23
3.99
50.60
84.22
104.57
114.12
116.60
115.58
113.12
108.12
99.75
88.12
74.70
61.75
51.36
45.01
43.58
46.35
50.35
53.22
54.01
53.46
53.34
55.52
61.09
70.36
82.19
93.80
103.04
109.43
114.42
121.08
133.57
152.66
179.91
215.47
256.78
298.56
333.36
353.23
352.13
328.20
284.56
228.66
168.98
111.92
60.49
14.27
-28.96
-71.27
-113.14
-153.17
-188.29
-215.45
-232.63
-239.38
-236.87
-227.37
-213.38
-196.85
-178.89
-159.77
-139.84
-120.05
-101.97
-87.20
-76.71
-70.22
-66.37
-63.27
-59.16
-53.16
-45.34
-36.34
-26.82
-17.02
-6.63
4.90
17.84
31.86
45.74
57.69
65.90
69.13
67.17
60.93
52.11
42.65
34.16
27.53
22.83
19.57
17.04
14.73
12.64
11.23
11.22
13.21
17.26
22.74
28.46
33.11
35.73
36.12
34.75
32.43
29.78
26.85
23.15
17.86
10.17
-0.50
-14.19
-30.22
-47.05
-62.30
-73.13
-77.07
-72.91
-61.35
-44.96
-27.35
-12.01
-1.20
4.40
5.44
3.23
-0.83
-5.57
-10.04
-13.45
-15.32
-15.66
-15.06
-14.54
-15.11
-17.30
-20.95
-25.37
-29.76
-33.48
-36.05
-36.92
-35.35
-30.36
-21.32
-8.47
6.67
21.50
33.18
39.62
40.02
35.00
26.04
14.84
2.77
-9.24
-20.38
-29.52
-34.97
-34.88
-27.74
-12.90
9.00
35.85
64.32
90.53
111.19
124.84
131.92
134.69
136.37
140.01
147.04
156.84
167.15
175.47
180.65
182.73
182.70
182.05
181.89
182.18
181.47
177.24
167.19
150.50
126.84
96.51
61.00
23.26
-12.64
-42.29
-62.62
-72.84
-74.95
-74.81
-81.18
-101.64
-136.86
-178.80
-215.08
-236.06
-243.98
-241.99
-234.72
-226.22
-218.24
-210.30
-201.51
-188.20
-171.26
-153.41
-136.28
-120.44
-104.59
-85.76
-60.51
-26.38
17.39
68.62
123.21
176.78
224.11
260.11
280.95
284.85
272.74
248.23
215.26
177.29
137.44
97.67
59.54
24.80
-4.83
-27.76
-42.80
-46.24
-35.82
-12.19
19.95
54.58
87.54
117.10
141.31
162.03
177.34
183.48
177.50
158.64
128.20
91.11
52.05
15.25
-15.70
-42.32
-67.64
-93.78
-120.62
-146.27
-168.46
-185.99
-198.48
-206.17
-214.90
-231.38
-260.12
-301.99
-354.95
-415.51
-480.19
-545.57
-581.78
-570.25
-510.80
-421.73
-327.15
-244.23
-179.79
-133.60
-101.82
-78.82
-62.73
-51.28
-39.93
-22.59
4.83
41.99
84.11
125.13
160.03
187.48
208.38
225.87
243.06
259.88
273.46
278.77
270.21
248.74
218.97
187.70
161.45
143.77
134.00
128.72
124.31
119.47
115.78
114.61
115.69
117.26
116.86
112.74
104.83
94.65
84.66
77.52
74.04
73.04
72.25
69.60
63.67
54.43
43.18
31.93
22.71
16.62
13.48
12.33
12.05
11.87
11.59
11.55
12.42
14.75
18.63
23.59
28.98
34.28
39.35
44.17
49.12
54.86
61.95
70.76
81.36
93.70
107.53
122.61
137.98
152.74
165.95
176.69
184.18
187.77
186.81
180.30
170.81
159.18
145.95
131.39
115.69
99.11
82.01
64.84
48.03
31.79
15.47
-1.70
-20.44
-40.98
-62.82
-84.71
-104.90
-121.55
-133.70
-142.27
-149.44
-158.12
-170.82
-189.08
-213.04
-241.79
-273.53
-306.67
-340.56
-375.18
-411.08
-448.88
-489.55
-534.16
-582.88
-633.26
-680.05
-715.88
-733.08
-726.63
-695.84
-645.39
-583.73
-519.77
-458.69
-402.46
-350.89
-303.08
-258.74
-216.61
-175.51
-134.37
-92.11
-45.49
6.52
61.73
115.84
163.47
203.64
237.31
266.01
291.43
318.98
351.37
387.45
423.56
454.40
480.83
505.94
533.47
567.38
615.32
679.11
751.92
820.52
868.31
888.58
881.77
854.01
778.79
650.75
489.11
326.73
206.30
119.60
54.58
2.92
-45.10
-94.15
-142.99
-192.34
-246.26
-306.36
-371.57
-432.35
-480.35
-510.33
-518.54
-499.55
-453.47
-388.18
-316.99
-256.28
-213.50
-189.42
-179.43
-176.35
-171.93
-161.95
-147.97
-131.72
-117.44
-104.73
-92.58
-79.80
-66.12
-51.64
-37.40
-25.22
-15.57
-10.64
-9.07
-8.99
-7.48
-1.64
11.40
31.96
60.33
98.29
144.55
199.47
253.23
295.61
319.04
321.63
307.91
283.73
268.72
263.01
263.94
268.50
276.01
287.80
295.84
297.51
279.05
236.42
171.91
96.19
20.58
-46.38
-100.63
-141.81
-170.40
-188.54
-196.94
-198.79
-196.21
-191.78
-187.28
-183.77
-181.77
-180.52
-179.67
-177.67
-174.81
-171.06
-167.29
-164.26
-162.30
-161.37
-160.46
-158.71
-154.42
-147.46
-136.75
-122.14
-103.90
-82.46
-58.42
-32.16
-4.44
24.19
51.11
75.09
95.02
110.13
120.15
125.25
126.11
123.58
118.71
112.42
105.70
98.92
92.31
85.96
79.86
74.01
68.38
