1660933585.00
64.000000
-0.00
-0.00
-0.00
-0.00
-0.00
-0.00
-0.00
-0.00
-0.00
-0.00
0.00
0.01
0.01
-0.00
-0.03
-0.05
-0.05
0.00
0.13
0.36
0.66
1.01
1.37
1.72
2.06
2.40
2.79
3.25
3.81
4.44
5.09
5.73
6.32
6.90
7.53
8.27
9.15
10.26
11.49
12.70
13.80
14.76
15.65
16.66
18.01
19.85
22.34
25.28
28.38
31.35
34.07
36.67
39.51
43.02
47.49
53.24
59.84
66.76
73.45
79.67
85.63
91.91
99.24
108.03
118.66
130.43
142.48
154.00
164.66
174.81
185.32
197.56
210.03
224.61
241.51
260.64
280.92
299.85
313.64
318.09
309.91
287.88
253.75
210.75
162.84
113.38
64.44
16.99
-28.54
-71.78
-112.30
-149.68
-184.55
-218.23
-252.40
-288.21
-325.30
-361.32
-392.15
-413.25
-421.13
-414.94
-396.79
-370.94
-342.06
-313.64
-287.19
-262.63
-239.24
-216.58
-194.98
-175.15
-157.52
-141.92
-127.58
-113.66
-99.66
-85.65
-72.20
-60.01
-49.59
-40.97
-33.73
-27.23
-20.89
-14.41
-7.90
-1.73
3.70
8.13
11.53
14.16
16.36
18.44
20.58
22.74
24.70
26.21
27.03
27.13
26.69
26.01
25.40
25.04
24.93
24.92
24.81
24.48
23.90
23.16
22.36
21.61
20.94
20.33
19.70
19.02
18.27
17.51
16.82
16.29
15.94
15.70
15.46
15.13
14.66
14.11
13.57
13.11
12.76
12.47
12.22
11.97
11.73
11.50
11.28
11.04
10.75
10.39
10.02
9.69
9.47
9.34
9.26
9.15
8.96
8.68
8.35
8.00
7.65
7.29
6.91
6.53
6.21
5.97
5.83
5.69
5.47
5.10
4.61
4.10
3.69
3.46
3.36
3.30
3.14
2.85
2.45
2.04
1.68
1.34
0.93
0.37
-0.35
-1.16
-1.97
-2.71
-3.39
-4.07
-4.77
-5.48
-6.11
-6.60
-6.96
-7.26
-7.60
-8.05
-8.56
-8.98
-9.16
-9.02
-8.61
-8.09
-7.61
-7.32
-7.22
-7.26
-7.33
-7.35
-7.25
-7.00
-6.60
-6.03
-5.26
-4.33
-3.28
-2.21
-1.21
-0.36
0.32
0.84
1.21
1.44
1.55
1.56
1.54
1.56
1.67
1.90
2.23
2.59
2.86
3.02
3.06
3.07
3.13
3.29
3.49
3.64
3.65
3.51
3.29
3.11
3.04
3.10
3.26
3.47
3.68
3.90
4.11
4.27
4.34
4.27
4.11
3.95
3.86
3.87
3.95
4.00
3.94
3.82
3.71
3.69
3.79
3.91
3.94
3.80
3.53
3.25
3.10
3.13
3.29
3.44
3.47
3.32
3.05
2.74
2.46
2.27
2.18
2.21
2.38
2.67
2.97
3.16
3.10
2.80
2.36
1.99
1.85
1.96
2.21
2.40
2.38
2.11
1.68
1.19
0.75
0.40
0.14
-0.00
-0.03
0.04
0.16
0.25
0.24
0.13
-0.03
-0.14
-0.18
-0.14
-0.09
-0.05
-0.06
-0.10
-0.19
-0.37
-0.66
-1.01
-1.26
-1.20
-0.68
0.32
1.65
3.07
4.34
5.34
6.02
6.43
6.56
6.39
5.88
5.02
3.96
2.87
1.96
1.36
1.08
1.01
1.02
0.99
0.90
0.79
0.74
0.78
0.92
1.07
1.14
1.11
0.97
0.78
0.60
0.46
0.37
0.31
0.32
0.42
0.63
0.95
1.28
1.51
1.53
1.33
0.99
0.63
0.36
0.22
0.16
0.11
0.03
-0.07
-0.11
-0.05
0.11
0.31
0.44
0.46
0.38
0.29
0.25
0.27
0.30
0.26
0.14
-0.01
-0.10
-0.06
0.12
0.37
0.63
0.84
1.02
1.18
1.36
1.51
1.56
1.43
1.13
0.72
0.33
0.08
0.00
0.06
0.15
0.20
0.20
0.22
0.34
0.60
0.96
1.28
1.41
1.28
0.94
0.50
0.11
-0.14
-0.26
-0.30
-0.34
-0.38
-0.39
-0.29
-0.01
0.42
0.92
1.37
1.66
1.72
1.55
1.23
0.86
0.54
0.33
0.25
0.25
0.23
0.11
-0.14
-0.46
-0.72
-0.79
-0.59
-0.19
0.25
0.54
0.57
0.38
0.11
-0.02
0.09
0.41
0.81
1.13
1.23
1.11
0.82
0.42
-0.01
-0.43
-0.79
-1.01
-1.06
-0.92
-0.64
-0.32
-0.01
0.23
0.43
0.61
0.76
0.85
0.85
0.72
0.51
0.28
0.11
0.05
0.10
0.22
0.35
0.42
0.43
0.39
0.35
0.32
0.33
0.35
0.36
0.34
0.29
0.23
0.20
0.21
0.26
0.35
0.45
0.55
0.64
0.69
0.67
0.56
0.38
0.21
0.11
0.11
0.17
0.19
0.07
-0.20
-0.57
-0.88
-0.99
-0.83
-0.45
0.02
0.40
0.60
0.59
0.46
0.30
0.23
0.25
0.34
0.42
0.41
0.30
0.12
-0.05
-0.11
-0.05
0.14
0.40
0.67
0.90
1.09
1.21
1.25
1.15
0.88
0.44
-0.11
-0.63
-1.00
-1.11
-0.95
-0.57
-0.10
0.34
0.64
0.74
0.67
0.47
0.24
0.05
-0.07
-0.09
-0.06
-0.02
0.01
0.06
0.15
0.31
0.50
0.65
0.68
0.54
0.27
-0.03
-0.24
-0.28
-0.17
0.03
0.27
0.46
0.57
0.60
0.55
0.44
0.31
0.17
0.04
-0.11
-0.27
-0.44
-0.60
-0.70
-0.72
-0.69
-0.63
-0.59
-0.56
-0.51
-0.39
-0.22
-0.02
0.13
0.18
0.15
0.05
-0.07
-0.19
-0.32
-0.44
-0.56
-0.65
-0.70
-0.72
-0.69
-0.67
-0.68
-0.76
-0.93
-1.18
-1.50
-1.86
-2.24
-2.62
-2.99
-3.37
-3.76
-4.17
-4.63
-5.13
-5.65
-6.13
-6.48
-6.66
-6.66
-6.64
-6.82
-7.41
-8.45
-9.78
-11.04
-11.83
-11.96
-11.58
-11.16
-11.32
-12.56
-15.02
-18.45
-22.27
-25.77
-28.33
-29.59
-29.65
-29.06
-28.71
-29.58
-32.31
-36.98
-43.01
-49.51
-55.68
-61.26
-66.63
-72.57
-79.77
-88.35
-97.71
-106.79
-114.53
-120.35
-124.45
-127.65
-131.13
-136.02
-143.12
-152.53
-163.50
-174.14
-181.48
-181.96
-172.47
-151.62
-120.68
-83.42
-44.69
-8.45
23.75
52.89
81.09
109.68
137.92
163.16
182.28
193.55
197.51
196.64
193.90
191.30
189.25
187.00
183.64
179.03
173.92
169.60
167.20
167.28
169.65
173.65
178.44
183.28
187.69
191.54
194.99
198.54
202.80
208.29
215.19
223.27
231.97
240.56
248.22
253.91
256.21
253.28
243.26
224.86
197.96
163.79
124.43
81.88
37.24
-9.36
-58.05
-107.94
-156.32
-198.90
-231.13
-250.00
-255.32
-249.68
-237.26
-222.13
-206.92
-192.51
-178.70
-165.13
-152.04
-140.13
-130.12
-122.14
-115.54
-109.23
-102.22
-94.09
-85.15
-76.28
-68.40
-62.11
-57.36
-53.55
-49.85
-45.58
-40.55
-35.12
-29.93
-25.55
-22.24
-19.83
-17.92
-16.10
-14.15
-12.08
-10.04
-8.20
-6.68
-5.48
-4.56
-3.80
-3.08
-2.32
-1.50
-0.69
0.00
0.47
0.68
0.73
0.75
0.84
0.99
1.11
1.11
0.94
0.64
0.31
0.01
-0.19
-0.31
-0.35
-0.33
-0.25
-0.15
-0.03
0.07
0.12
0.13
0.08
0.00
-0.10
-0.22
-0.29
-0.25
-0.03
0.39
1.01
1.74
2.47
3.10
3.52
3.64
3.36
2.67
1.63
0.39
-0.79
-1.66
-2.02
-1.87
-1.35
-0.73
-0.26
-0.10
-0.29
-0.71
-1.21
-1.61
-1.80
-1.81
-1.73
-1.70
-1.84
-2.16
-2.57
-2.92
-3.11
-3.07
-2.89
-2.68
-2.54
-2.50
-2.48
-2.33
-1.96
-1.33
-0.51
0.43
1.40
2.32
3.11
3.67
3.92
3.82
3.43
2.99
2.76
2.92
3.48
4.20
4.77
4.96
4.71
4.19
3.61
3.12
2.69
2.19
1.47
0.51
-0.54
-1.46
-2.03
-2.16
-1.94
-1.55
-1.22
-1.12
-1.26
-1.55
-1.83
-1.97
-1.92
-1.73
-1.53
-1.36
-1.21
-0.97
-0.49
0.27
1.23
2.17
2.87
3.16
3.04
2.66
2.22
1.88
1.65
1.44
1.10
0.54
-0.20
-1.00
-1.68
-2.11
-2.24
-2.13
-1.88
-1.57
-1.28
-1.06
-0.91
-0.83
-0.80
-0.77
-0.74
-0.71
-0.75
-0.92
-1.26
-1.69
-2.08
-2.29
-2.23
-1.91
-1.45
-0.95
-0.44
0.13
0.83
1.66
2.49
3.09
3.29
3.04
2.47
1.79
1.20
0.80
0.55
0.36
0.16
-0.06
-0.28
-0.48
-0.70
-1.03
-1.51
-2.12
-2.70
-3.05
-2.96
-2.39
-1.46
-0.47
0.27
0.54
0.35
-0.11
-0.53
-0.64
-0.29
0.49
1.52
2.56
3.37
3.80
3.75
3.24
2.38
1.34
0.35
-0.43
-0.93
-1.17
-1.23
-1.22
-1.16
-1.05
-0.89
-0.70
-0.52
-0.40
-0.35
-0.31
-0.20
-0.02
0.20
0.36
0.37
0.26
0.08
-0.05
-0.08
-0.07
-0.09
-0.24
-0.52
-0.85
-1.13
-1.27
-1.26
-1.07
-0.67
-0.06
0.74
1.58
2.24
2.49
2.23
1.56
0.81
0.32
0.30
0.72
1.30
1.70
1.67
1.18
0.41
-0.36
-0.93
-1.22
-1.34
-1.42
-1.56
-1.78
-1.98
-2.07
-1.96
-1.66
-1.22
-0.76
-0.38
-0.12
-0.00
0.02
0.00
0.01
0.12
0.37
0.78
1.30
1.85
2.26
2.38
2.10
1.40
0.39
-0.69
-1.57
-2.03
-1.97
-1.45
-0.69
0.08
0.63
0.83
0.68
0.26
-0.29
-0.79
-1.08
-1.08
-0.79
-0.35
0.07
0.32
0.31
0.09
-0.25
-0.55
-0.72
-0.74
-0.65
-0.50
-0.35
-0.21
-0.11
-0.03
0.05
0.18
0.46
0.93
1.59
2.28
2.79
2.91
2.56
1.83
0.95
0.17
-0.37
-0.68
-0.81
-0.84
-0.75
-0.50
-0.10
0.33
0.61
0.56
0.15
-0.51
-1.17
-1.61
-1.71
-1.51
-1.14
-0.77
-0.53
-0.46
-0.56
-0.79
-1.07
-1.29
-1.31
-1.00
-0.28
0.79
1.99
3.00
3.55
3.50
2.92
2.04
1.12
0.36
-0.23
-0.66
-0.97
-1.15
-1.11
-0.84
-0.44
-0.13
-0.09
-0.42
-1.01
-1.62
-2.05
-2.17
-2.03
-1.76
-1.48
-1.25
-1.02
-0.75
-0.41
-0.09
0.14
0.21
0.19
0.25
0.54
1.14
1.94
2.69
3.11
3.02
2.44
1.58
0.71
0.00
-0.52
-0.94
-1.33
-1.67
-1.82
-1.62
-1.03
-0.19
0.67
1.29
1.51
1.36
0.95
0.46
0.03
-0.27
-0.44
-0.53
-0.58
-0.60
-0.61
-0.59
-0.53
-0.44
-0.33
-0.22
-0.12
-0.03
0.04
0.09
0.10
0.07
0.05
0.10
0.28
0.62
1.07
1.52
1.89
2.08
2.07
1.87
1.53
1.09
0.60
0.06
-0.47
-0.96
-1.36
-1.63
-1.77
-1.81
-1.81
-1.83
-1.89
-1.93
-1.89
-1.72
-1.41
-1.02
-0.67
-0.46
-0.39
-0.45
-0.53
-0.54
-0.43
-0.20
0.14
0.57
1.07
1.60
2.10
2.49
2.65
2.49
2.01
1.28
0.46
-0.24
-0.67
-0.77
-0.58
-0.24
0.10
0.29
0.28
0.11
-0.16
-0.44
-0.68
-0.85
-0.93
-0.91
-0.77
-0.53
-0.23
0.06
0.27
0.35
0.29
0.12
-0.13
-0.38
-0.60
-0.76
-0.81
-0.73
-0.51
-0.15
0.33
0.88
1.42
1.88
2.13
2.11
1.77
1.17
0.44
-0.23
-0.70
-0.86
-0.73
-0.42
-0.07
0.15
0.16
-0.06
-0.44
-0.89
-1.34
-1.73
-2.04
-2.21
-2.23
-2.10
-1.84
-1.54
-1.29
-1.13
-1.04
-0.92
-0.68
-0.29
0.21
0.68
1.03
1.24
1.38
1.56
1.86
2.28
2.74
3.14
3.40
3.51
3.46
3.25
2.85
2.21
1.36
0.40
-0.47
-1.07
-1.30
-1.20
-0.92
-0.65
-0.54
-0.64
-0.93
-1.28
-1.59
-1.79
-1.85
-1.77
-1.59
-1.36
-1.14
-0.95
-0.82
-0.74
-0.70
-0.69
-0.71
-0.75
-0.78
-0.73
-0.53
-0.18
0.28
0.75
1.16
1.44
1.59
1.65
1.67
1.65
1.58
1.39
1.07
0.65
0.25
-0.01
-0.03
0.20
0.57
0.95
1.21
1.32
1.29
1.19
1.04
0.84
0.54
0.11
-0.45
-1.08
-1.68
-2.16
-2.49
-2.63
-2.62
-2.46
-2.19
-1.80
-1.32
-0.83
-0.41
-0.17
-0.16
-0.34
-0.60
-0.73
-0.57
-0.08
0.66
1.42
1.97
2.19
2.10
1.83
1.52
1.26
1.05
0.83
0.56
0.24
-0.04
-0.25
-0.36
-0.40
-0.42
-0.45
-0.51
-0.56
-0.60
-0.62
-0.66
-0.74
-0.83
-0.88
-0.83
-0.64
-0.34
-0.04
0.19
0.26
0.20
0.10
0.06
0.14
0.36
0.65
0.99
1.34
1.69
2.02
2.23
2.21
1.88
1.27
0.51
-0.21
-0.69
-0.86
-0.76
-0.50
-0.22
-0.00
0.08
0.02
-0.19
-0.54
-0.96
-1.35
-1.59
-1.58
-1.31
-0.86
-0.38
-0.02
0.14
0.09
-0.10
-0.35
-0.57
-0.73
-0.82
-0.87
-0.89
-0.91
-0.93
-0.93
-0.88
-0.71
-0.39
0.09
0.70
1.36
1.96
2.42
2.66
2.65
2.36
1.80
1.03
0.19
-0.54
-1.00
-1.09
-0.83
-0.35
0.16
0.55
0.71
0.61
0.30
-0.17
-0.72
-1.23
-1.59
-1.68
-1.46
-1.01
-0.49
-0.08
0.09
-0.00
-0.26
-0.54
-0.73
-0.77
-0.68
-0.52
-0.34
-0.20
-0.11
-0.07
-0.06
-0.02
0.09
0.33
0.70
1.17
1.65
2.02
2.15
1.98
1.54
0.94
0.37
0.02
-0.05
0.11
0.33
0.40
0.18
-0.31
-0.94
-1.49
-1.77
-1.72
-1.44
-1.09
-0.88
-0.92
-1.19
-1.56
-1.84
-1.92
-1.73
-1.32
-0.80
-0.28
0.15
0.48
0.74
0.97
1.18
1.39
1.58
1.72
1.82
1.90
1.99
2.09
2.17
2.13
1.86
1.33
0.57
-0.24
-0.88
-1.17
-1.06
-0.63
-0.08
0.37
0.59
0.51
0.22
-0.16
-0.51
-0.72
-0.76
-0.63
-0.39
-0.10
0.20
0.46
0.66
0.76
0.73
0.53
0.15
-0.36
-0.86
-1.21
-1.31
-1.16
-0.86
-0.60
-0.53
-0.69
-0.99
-1.23
-1.22
-0.84
-0.18
0.57
1.13
1.32
1.09
0.59
0.00
-0.50
-0.85
-1.05
-1.14
-1.13
-0.97
-0.63
-0.14
0.41
0.87
1.12
1.13
0.95
0.70
0.48
0.35
0.35
0.44
0.55
0.58
0.44
0.11
-0.36
-0.81
-1.10
-1.13
-0.92
-0.53
-0.09
0.34
0.72
1.07
1.42
1.74
1.95
1.93
1.60
0.99
0.23
-0.51
-1.05
-1.34
-1.44
-1.44
-1.43
-1.44
-1.43
-1.35
-1.19
-0.99
-0.81
-0.68
-0.61
-0.56
-0.49
-0.39
-0.24
-0.05
0.13
0.26
0.31
0.27
0.17
0.06
0.00
-0.00
-0.00
-0.04
-0.15
-0.28
-0.33
-0.27
-0.06
0.24
0.57
0.87
1.12
1.31
1.43
1.45
1.32
1.02
0.58
0.05
-0.46
-0.86
-1.10
-1.15
-1.04
-0.80
-0.52
-0.28
-0.12
-0.09
-0.15
-0.24
-0.32
-0.34
-0.31
-0.25
-0.22
-0.24
-0.35
-0.54
-0.80
-1.08
-1.29
-1.34
-1.17
-0.77
-0.19
0.43
0.98
1.37
1.62
1.77
1.92
2.12
2.36
2.61
2.78
2.78
2.55
2.08
1.43
0.68
-0.04
-0.61
-0.94
-0.99
-0.80
-0.50
-0.22
-0.07
-0.13
-0.37
-0.68
-0.96
-1.14
-1.22
-1.23
-1.22
-1.19
-1.12
-0.99
-0.80
-0.62
-0.51
-0.53
-0.64
-0.75
-0.80
-0.71
-0.52
-0.27
-0.05
0.13
0.30
0.51
0.80
1.16
1.50
1.74
1.77
1.58
1.22
0.81
0.48
0.29
0.22
0.23
0.24
0.22
0.18
0.14
0.11
0.08
0.01
-0.10
-0.23
-0.35
-0.43
-0.47
-0.53
-0.68
-0.97
-1.34
-1.71
-1.93
-1.89
-1.56
-1.00
-0.37
0.16
0.48
0.53
0.36
0.10
-0.12
-0.16
0.02
0.42
0.90
1.30
1.48
1.34
0.95
0.46
0.10
0.04
0.34
0.89
1.49
1.95
2.10
1.89
1.36
0.62
-0.21
-1.00
-1.63
-2.04
-2.26
-2.35
-2.38
-2.41
-2.42
-2.32
-2.06
-1.64
-1.11
-0.59
-0.17
0.15
0.41
0.67
0.92
1.10
1.13
1.01
0.87
0.87
1.17
1.72
2.35
2.74
2.68
2.12
1.29
0.52
0.07
0.02
0.24
0.49
0.59
0.49
0.29
0.13
0.09
0.17
0.30
0.38
0.35
0.21
0.01
-0.21
-0.45
-0.72
-1.01
-1.32
-1.56
-1.68
-1.62
-1.39
-1.05
-0.72
-0.47
-0.38
-0.41
-0.47
-0.47
-0.31
0.00
0.36
0.65
0.76
0.69
0.51
0.33
0.22
0.19
0.19
0.15
0.05
-0.09
-0.23
-0.34
-0.41
-0.47
-0.50
-0.46
-0.34
-0.15
0.05
0.21
0.31
0.36
0.40
0.43
0.40
0.27
0.02
-0.26
-0.47
-0.54
-0.46
-0.35
-0.32
-0.47
-0.76
-1.10
-1.38
-1.50
-1.40
-1.06
-0.49
0.29
1.18
2.02
2.63
2.83
2.60
2.03
1.31
0.63
0.16
-0.07
-0.11
-0.02
0.13
0.32
0.51
0.67
0.75
0.68
0.47
0.15
-0.18
-0.41
-0.50
-0.47
-0.38
-0.30
-0.26
-0.26
-0.28
-0.32
-0.42
-0.59
-0.85
-1.19
-1.52
-1.73
-1.71
-1.34
-0.63
0.35
1.39
2.22
2.64
2.56
2.04
1.26
0.40
-0.38
-1.00
-1.44
-1.66
-1.64
-1.36
-0.88
-0.30
0.22
0.56
0.66
0.56
0.35
0.13
-0.04
-0.16
-0.26
-0.35
-0.43
-0.46
-0.45
-0.41
-0.39
-0.46
-0.64
-0.88
-1.12
-1.27
-1.28
-1.17
-0.99
-0.76
-0.45
-0.05
0.48
1.07
1.64
2.03
2.13
1.91
1.40
0.70
-0.05
-0.71
-1.19
-1.44
-1.45
-1.27
-0.98
-0.68
-0.45
-0.36
-0.41
-0.57
-0.78
-0.98
-1.10
-1.11
-1.01
-0.84
-0.65
-0.47
-0.34
-0.28
-0.30
-0.40
-0.59
-0.82
-1.01
-1.07
-0.90
-0.44
0.31
1.24
2.16
2.83
3.01
2.63
1.80
0.81
0.04
-0.25
0.03
0.70
1.46
2.03
2.29
2.29
2.16
2.05
1.97
1.90
1.73
1.46
1.13
0.82
0.60
0.48
0.39
0.21
-0.11
-0.55
-1.03
-1.42
-1.61
-1.57
-1.34
-1.02
-0.70
-0.48
-0.41
-0.50
-0.75
-1.09
-1.41
-1.60
-1.53
-1.14
-0.48
0.31
1.00
1.40
1.41
1.06
0.47
-0.19
-0.74
-1.09
-1.20
-1.11
-0.88
-0.58
-0.27
-0.01
0.12
0.08
-0.16
-0.54
-0.94
-1.21
-1.22
-0.97
-0.55
-0.12
0.16
0.23
0.12
-0.05
-0.18
-0.19
-0.11
0.02
0.14
0.19
0.18
0.13
0.12
0.23
0.48
0.81
1.13
1.34
1.43
1.45
1.50
1.59
1.70
1.70
1.52
1.17
0.76
0.44
0.27
0.24
0.24
0.18
0.02
-0.19
-0.38
-0.52
-0.59
-0.63
-0.65
-0.65
-0.65
-0.67
-0.76
-0.92
-1.14
-1.36
-1.50
-1.52
-1.40
-1.18
-0.92
-0.65
-0.43
-0.27
-0.18
-0.14
-0.10
0.03
0.30
0.67
1.08
1.41
1.55
1.48
1.26
0.96
0.66
0.42
0.22
0.05
-0.11
-0.27
-0.38
-0.43
-0.37
-0.18
0.08
0.35
0.49
0.41
0.07
-0.45
-1.02
-1.47
-1.68
-1.67
-1.47
-1.20
-0.91
-0.63
-0.38
-0.16
-0.01
0.00
-0.14
-0.39
-0.63
-0.72
-0.58
-0.19
0.40
1.06
1.68
2.13
2.34
2.29
2.01
1.63
1.31
1.14
1.13
1.15
1.05
0.75
0.29
-0.19
-0.51
-0.63
-0.63
-0.70
-0.98
-1.49
-2.10
-2.57
-2.72
-2.49
-1.98
-1.36
-0.84
-0.50
-0.34
-0.28
-0.21
-0.10
0.07
0.29
0.59
0.99
1.53
2.17
2.78
3.18
3.20
2.80
2.03
1.07
0.16
-0.51
-0.83
-0.78
-0.45
0.00
0.39
0.57
0.48
0.19
-0.18
-0.49
-0.67
-0.71
-0.67
-0.60
-0.49
-0.33
-0.12
0.09
0.23
0.26
0.20
0.09
0.01
-0.04
-0.08
-0.19
-0.40
-0.67
-0.88
-0.89
-0.59
-0.03
0.62
1.16
1.42
1.34
1.01
0.59
0.24
0.05
0.01
0.07
0.12
0.12
0.05
-0.09
-0.23
-0.36
-0.43
-0.48
-0.54
-0.64
-0.79
-0.94
-1.02
-0.98
-0.82
-0.62
-0.47
-0.47
-0.63
-0.90
-1.17
-1.34
-1.35
-1.17
-0.82
-0.34
0.21
0.80
1.39
1.96
2.45
2.77
2.80
2.46
1.80
0.93
0.09
-0.54
-0.84
-0.80
-0.51
-0.11
0.29
0.54
0.57
0.32
-0.17
-0.77
-1.30
-1.61
-1.66
-1.55
-1.46
-1.56
-1.86
-2.29
-2.62
-2.65
-2.28
-1.56
-0.65
0.21
0.80
0.97
0.70
0.14
-0.45
-0.77
-0.56
0.25
1.50
2.83
3.85
4.21
3.85
2.93
1.84
0.94
0.47
0.46
0.75
1.13
1.42
1.56
1.54
1.39
1.09
0.64
0.05
-0.55
-1.01
-1.18
-1.03
-0.66
-0.27
-0.03
-0.02
-0.25
-0.59
-0.94
-1.22
-1.40
-1.47
-1.44
-1.33
-1.15
-0.94
-0.78
-0.73
-0.81
-1.02
-1.25
-1.35
-1.19
-0.71
0.05
0.89
1.59
1.94
1.87
1.43
0.77
0.07
-0.50
-0.87
-1.04
-1.06
-0.95
-0.74
-0.47
-0.22
-0.08
-0.11
-0.36
-0.73
-1.12
-1.38
-1.45
-1.34
-1.11
-0.85
-0.60
-0.39
-0.24
-0.16
-0.17
-0.25
-0.32
-0.27
-0.07
0.22
0.48
0.61
0.62
0.64
0.85
1.35
2.07
2.78
3.19
3.05
2.34
1.23
0.03
-0.95
-1.47
-1.46
-1.02
-0.33
0.39
0.94
1.23
1.22
0.98
0.62
0.25
-0.07
-0.28
-0.39
-0.40
-0.32
-0.20
-0.09
-0.06
-0.14
-0.32
-0.57
-0.82
-1.01
-1.12
-1.15
-1.13
-1.12
-1.13
-1.20
-1.29
-1.30
-1.13
-0.67
0.10
1.07
2.01
2.69
2.92
2.67
2.03
1.19
0.32
-0.44
-1.02
-1.38
-1.49
-1.33
-0.94
-0.41
0.08
0.39
0.40
0.14
-0.29
-0.73
-1.08
-1.30
-1.41
-1.47
-1.50
-1.50
-1.45
-1.33
-1.17
-1.03
-0.94
-0.91
-0.86
-0.69
-0.35
0.16
0.75
1.27
1.62
1.78
1.84
1.93
2.14
2.48
2.86
3.13
3.20
3.07
2.80
2.49
2.17
1.85
1.45
0.97
0.46
0.02
-0.24
-0.33
-0.34
-0.41
-0.61
-0.92
-1.20
-1.31
-1.18
-0.88
-0.56
-0.39
-0.45
-0.73
-1.13
-1.51
-1.75
-1.81
-1.71
-1.48
-1.20
-0.94
-0.74
-0.61
-0.54
-0.48
-0.36
-0.12
0.28
0.81
1.41
1.96
2.30
2.34
2.03
1.43
0.67
-0.09
-0.72
-1.12
-1.23
-1.03
-0.58
-0.00
0.55
0.91
0.98
0.76
0.35
-0.08
-0.40
-0.55
-0.56
-0.50
-0.44
-0.43
-0.46
-0.56
-0.69
-0.83
-0.91
-0.89
-0.77
-0.60
-0.47
-0.46
-0.59
-0.81
-1.02
-1.10
-0.95
-0.51
0.19
1.06
1.93
2.61
2.95
2.88
2.49
1.96
1.51
1.26
1.22
1.30
1.33
1.21
0.86
0.34
-0.27
-0.85
-1.33
-1.64
-1.80
-1.83
-1.79
-1.70
-1.59
-1.46
-1.34
-1.27
-1.25
-1.30
-1.35
-1.36
-1.25
-1.02
-0.66
-0.22
0.30
0.88
1.46
1.96
2.24
2.19
1.80
1.17
0.49
-0.01
-0.21
-0.14
0.06
0.25
0.32
0.29
0.24
0.24
0.31
0.40
0.41
0.26
-0.06
-0.48
-0.87
-1.15
-1.27
-1.25
-1.16
-1.09
-1.10
-1.24
-1.49
-1.83
-2.19
-2.50
-2.69
-2.69
-2.44
-1.92
-1.18
-0.33
0.48
1.12
1.52
1.73
1.84
1.98
2.24
2.59
2.95
3.16
3.13
2.82
2.29
1.66
1.12
0.78
0.73
0.93
1.25
1.54
1.64
1.47
1.08
0.57
0.08
-0.29
-0.46
-0.45
-0.30
-0.09
0.09
0.12
-0.09
-0.55
-1.20
-1.87
-2.35
-2.46
-2.12
-1.37
-0.38
0.63
1.46
1.96
2.07
1.78
1.19
0.43
-0.32
-0.90
-1.21
-1.24
-1.06
-0.79
-0.53
-0.35
-0.24
-0.18
-0.17
-0.20
-0.26
-0.32
-0.33
-0.26
-0.14
-0.06
-0.10
-0.30
-0.60
-0.87
-1.00
-0.94
-0.76
-0.56
-0.45
-0.44
-0.47
-0.46
-0.36
-0.15
0.10
0.33
0.51
0.64
0.74
0.82
0.89
0.94
0.93
0.86
0.70
0.49
0.23
-0.04
-0.30
-0.49
-0.58
-0.55
-0.41
-0.22
-0.05
0.05
0.02
-0.08
-0.21
-0.30
-0.34
-0.38
-0.46
-0.58
-0.73
-0.85
-0.88
-0.82
-0.71
-0.57
-0.43
-0.25
-0.00
0.31
0.61
0.80
0.78
0.56
0.24
-0.05
-0.20
-0.19
-0.11
-0.04
-0.02
-0.00
0.10
0.34
0.66
0.91
0.95
0.69
0.22
-0.28
-0.58
-0.58
-0.32
0.04
0.31
0.36
0.23
0.01
-0.17
-0.26
-0.28
-0.32
-0.42
-0.59
-0.77
-0.87
-0.82
-0.63
-0.35
-0.05
0.16
0.26
0.21
0.09
-0.01
0.01
0.19
0.48
0.78
0.97
1.02
0.94
0.79
0.63
0.43
0.20
-0.09
-0.38
-0.62
-0.71
-0.62
-0.38
-0.06
0.25
0.49
0.62
0.62
0.51
0.30
0.05
-0.21
-0.45
-0.65
-0.79
-0.85
-0.79
-0.61
-0.36
-0.10
0.10
0.21
0.24
0.22
0.18
0.12
0.06
-0.02
-0.06
-0.02
0.16
0.43
0.72
0.92
0.95
0.81
0.57
0.33
0.15
0.04
-0.05
-0.18
-0.34
-0.49
-0.56
-0.52
-0.41
-0.28
-0.18
-0.14
-0.13
-0.10
-0.07
-0.03
-0.03
-0.05
-0.06
-0.02
0.06
0.15
0.19
0.15
0.06
-0.00
0.05
0.21
0.40
0.51
0.47
0.30
0.11
-0.04
-0.10
-0.12
-0.21
-0.38
-0.61
-0.80
-0.86
-0.73
-0.48
-0.21
-0.01
0.02
-0.08
-0.28
-0.46
-0.52
-0.41
-0.15
0.16
0.40
0.44
0.27
-0.04
-0.32
-0.40
-0.21
0.20
0.71
1.12
1.33
1.30
1.09
0.79
0.47
0.19
-0.05
-0.24
-0.36
-0.37
-0.29
-0.16
-0.06
-0.08
-0.24
-0.50
-0.79
-1.03
-1.15
-1.16
-1.06
-0.87
-0.61
-0.31
-0.02
0.23
0.41
0.53
0.59
0.62
0.65
0.67
0.65
0.60
0.48
0.33
0.18
0.09
0.12
0.27
0.49
0.73
0.91
0.99
0.97
0.84
0.57
0.16
-0.37
-0.91
-1.31
-1.41
-1.17
-0.68
-0.13
0.29
0.50
0.50
0.43
0.38
0.42
0.50
0.57
0.58
0.52
0.45
0.37
0.29
0.18
0.02
-0.17
-0.32
-0.40
-0.36
-0.24
-0.14
-0.12
-0.23
-0.46
-0.74
-1.00
-1.15
-1.13
-0.94
-0.60
-0.20
0.17
0.41
0.48
0.40
0.24
0.08
-0.01
0.00
0.09
0.23
0.39
0.51
0.53
0.42
0.17
-0.14
-0.40
-0.54
-0.51
-0.37
-0.20
-0.09
-0.06
-0.09
-0.12
-0.13
-0.11
-0.10
-0.14
-0.21
-0.27
-0.27
-0.18
-0.02
0.15
0.30
0.39
0.43
0.42
0.39
0.34
0.27
0.16
0.02
-0.10
-0.18
-0.18
-0.10
0.02
0.13
0.18
0.12
-0.05
-0.30
-0.53
-0.67
-0.64
-0.44
-0.15
0.14
0.34
0.41
0.38
0.31
0.22
0.12
0.01
-0.10
-0.19
-0.21
-0.20
-0.21
-0.30
-0.47
-0.63
-0.64
-0.44
-0.02
0.47
0.86
1.03
0.99
0.82
0.67
0.64
0.74
0.90
1.00
0.96
0.76
0.44
0.12
-0.10
-0.20
-0.18
-0.12
-0.09
-0.11
-0.16
-0.17
-0.13
-0.03
0.06
0.10
0.07
0.00
-0.04
-0.02
0.07
0.18
0.22
0.15
-0.04
-0.30
-0.53
-0.65
-0.60
-0.41
-0.15
0.06
0.12
0.00
-0.29
-0.66
-1.03
-1.30
-1.41
-1.33
-1.05
-0.63
-0.18
0.18
0.35
0.34
0.21
0.08
0.07
0.17
0.32
0.42
0.42
0.35
0.29
0.34
0.52
0.74
0.92
0.94
0.76
0.42
-0.01
-0.43
-0.73
-0.84
-0.72
-0.44
-0.08
0.24
0.43
0.45
0.36
0.20
0.03
-0.12
-0.21
-0.23
-0.18
-0.03
0.18
0.40
0.58
0.66
0.61
0.43
0.15
-0.17
-0.47
-0.68
-0.76
-0.69
-0.53
-0.35
-0.21
-0.16
-0.21
-0.34
-0.47
-0.57
-0.59
-0.53
-0.40
-0.25
-0.08
0.09
0.28
0.49
0.66
0.76
0.75
0.66
0.54
0.45
0.41
0.38
0.29
0.10
-0.16
-0.40
-0.53
-0.51
-0.39
-0.22
-0.06
0.07
0.21
0.37
0.53
0.64
0.66
0.59
0.48
0.40
0.38
0.39
0.37
0.24
0.01
-0.26
-0.47
-0.57
-0.58
-0.55
-0.58
-0.65
-0.72
-0.66
-0.43
-0.08
0.26
0.43
0.35
0.08
-0.23
-0.43
-0.46
-0.36
-0.22
-0.13
-0.09
-0.04
0.07
0.24
0.40
0.47
0.41
0.24
0.07
0.00
0.08
0.30
0.58
0.84
1.02
1.08
1.04
0.90
0.64
0.24
-0.32
-1.00
-1.73
-2.38
-2.89
-3.24
-3.47
-3.69
-4.01
-4.47
-5.07
-5.75
-6.43
-7.08
-7.70
-8.36
-9.08
-9.87
-10.69
-11.52
-12.39
-13.41
-14.75
-16.52
-18.69
-21.02
-23.21
-25.02
-26.48
-27.96
-29.97
-33.00
-37.18
-42.22
-47.51
-52.39
-56.54
-60.12
-63.77
-68.29
-74.30
-81.88
-90.57
-99.52
-107.97
-115.54
-122.40
-129.19
-136.71
-145.72
-156.77
-170.09
-185.45
-201.85
-217.31
-228.86
-233.23
-227.74
-211.22
-184.50
-149.90
-110.18
-67.40
-22.41
24.64
73.14
120.98
164.45
199.30
222.44
233.25
233.83
228.01
219.68
211.40
203.99
197.07
190.07
182.96
176.32
170.81
166.59
163.12
159.47
154.93
149.53
143.97
139.36
136.55
135.72
136.30
137.32
137.91
137.79
137.46
137.94
140.26
144.96
151.73
159.51
166.92
172.76
176.51
178.44
179.44
180.76
183.52
188.41
195.24
202.74
208.58
209.86
203.89
189.13
165.63
134.98
99.41
60.82
19.91
-23.66
-70.31
-119.17
-167.25
-209.81
-241.89
-260.26
-264.73
-258.17
-245.11
-229.89
-215.17
-201.59
-188.58
-175.51
-162.52
-150.48
-140.29
-132.18
-125.41
-118.72
-110.99
-101.88
-91.89
-82.08
-73.51
-66.72
-61.55
-57.31
-53.12
-48.28
-42.61
-36.43
-30.42
-25.27
-21.41
-18.77
-16.93
-15.29
-13.38
-11.09
-8.63
-6.36
-4.58
-3.37
-2.57
-1.96
-1.35
-0.69
-0.04
0.53
0.97
1.29
1.49
1.58
1.54
1.37
1.11
0.84
0.62
0.47
0.38
0.34
0.36
0.46
0.64
0.85
1.04
1.12
1.05
0.82
0.47
0.09
-0.26
-0.50
-0.58
-0.55
-0.47
-0.42
-0.45
-0.55
-0.64
-0.61
-0.41
-0.08
0.30
0.61
0.80
0.85
0.81
0.72
0.60
0.49
0.40
0.35
0.32
0.30
0.26
0.17
0.02
-0.17
-0.35
-0.47
-0.52
-0.47
-0.34
-0.20
-0.12
-0.15
-0.32
-0.54
-0.70
-0.70
-0.51
-0.19
0.15
0.42
0.59
0.70
0.78
0.87
0.94
0.94
0.84
0.63
0.35
0.09
-0.10
-0.18
-0.17
-0.08
0.04
0.15
0.21
0.19
0.12
0.01
-0.08
-0.13
-0.09
0.05
0.27
0.53
0.75
0.85
0.75
0.47
0.07
-0.35
-0.65
-0.78
-0.73
-0.56
-0.33
-0.09
0.14
0.36
0.52
0.59
0.50
0.27
-0.05
-0.35
-0.57
-0.69
-0.70
-0.66
-0.57
-0.42
-0.23
-0.05
0.01
-0.12
-0.45
-0.91
-1.33
-1.57
-1.57
-1.39
-1.15
-0.99
-0.98
-1.09
-1.25
-1.40
-1.50
-1.62
-1.85
-2.27
-2.85
-3.51
-4.10
-4.49
-4.65
-4.63
-4.57
-4.63
-4.88
-5.31
-5.83
-6.36
-6.79
-7.06
-7.16
-7.09
-6.95
-6.86
-6.97
-7.30
-7.77
-8.12
-8.01
-7.11
-5.23
-2.36
1.31
5.40
9.43
12.87
15.30
16.48
16.48
15.56
14.12
12.55
11.11
9.90
8.96
8.26
7.75
7.39
7.06
6.65
6.01
5.10
3.95
2.67
1.42
0.35
-0.44
-0.94
-1.19
-1.27
-1.25
-1.18
-1.07
-0.91
-0.71
-0.47
-0.20
0.09
0.38
0.65
0.80
0.79
0.59
0.25
-0.11
-0.34
-0.39
-0.23
0.03
0.29
0.45
0.49
0.41
0.26
0.08
-0.05
-0.03
0.25
0.84
1.66
2.53
3.21
3.51
3.39
2.93
2.34
1.77
1.30
0.91
0.58
0.32
0.22
0.38
0.86
1.59
2.38
3.01
3.29
3.11
2.53
1.65
0.64
-0.40
-1.37
-2.22
-2.91
-3.37
-3.61
-3.61
-3.46
-3.22
-2.97
-2.73
-2.50
-2.25
-1.99
-1.76
-1.60
-1.53
-1.55
-1.63
-1.74
-1.86
-2.00
-2.16
-2.35
-2.55
-2.75
-2.94
-3.07
-3.04
-2.76
-2.14
-1.20
-0.08
1.00
1.83
2.31
2.45
2.36
2.20
2.06
1.96
1.87
1.72
1.52
1.28
1.03
0.79
0.54
0.26
-0.07
-0.40
-0.73
-1.02
-1.25
-1.43
-1.56
-1.61
-1.53
-1.31
-0.93
-0.47
-0.03
0.28
0.35
0.17
-0.21
-0.72
-1.23
-1.68
-2.04
-2.29
-2.42
-2.39
-2.15
-1.64
-0.86
0.14
1.22
2.23
3.03
3.52
3.68
3.57
3.26
2.88
2.52
2.23
2.02
1.84
1.65
1.42
1.18
0.93
0.70
0.50
0.30
0.09
-0.12
-0.34
-0.58
-0.88
-1.27
-1.75
-2.22
-2.55
-2.63
-2.45
-2.10
-1.75
-1.54
-1.52
-1.58
-1.56
-1.34
-0.89
-0.28
0.34
0.89
1.31
1.66
1.94
2.15
2.21
2.05
1.66
1.13
0.67
0.47
0.62
1.04
1.52
1.77
1.59
1.00
0.19
-0.53
-0.96
-1.07
-0.99
-0.98
-1.20
-1.66
-2.20
-2.61
-2.72
-2.52
-2.16
-1.80
-1.60
-1.57
-1.65
-1.74
-1.74
-1.65
-1.48
-1.27
