1660756184.00
64.000000
-0.00
-0.00
-0.00
-0.00
-0.00
-0.00
-0.00
-0.00
-0.00
-0.00
0.00
0.01
0.01
-0.00
-0.03
-0.05
-0.05
0.00
0.13
0.36
0.66
1.01
1.37
1.72
2.06
2.40
2.79
3.24
3.80
4.42
5.06
5.66
6.20
6.68
7.15
7.68
8.31
9.14
10.09
11.04
11.88
12.56
13.14
13.76
14.65
15.96
17.91
20.32
22.90
25.38
27.58
29.57
31.68
34.32
37.81
42.54
48.15
54.10
59.83
64.97
69.58
74.14
79.34
85.71
93.76
103.00
112.62
121.73
129.77
136.75
143.30
150.75
157.77
166.64
177.95
191.79
206.97
220.57
228.25
225.36
208.53
176.87
132.76
80.05
23.07
-34.94
-92.44
-149.16
-205.23
-260.37
-313.74
-363.87
-409.83
-450.91
-486.50
-515.74
-537.23
-549.22
-549.96
-538.37
-514.21
-478.67
-433.88
-382.45
-327.02
-269.84
-212.63
-156.66
-102.95
-52.37
-5.90
35.58
71.43
101.35
125.50
144.38
158.69
169.15
176.37
180.75
182.57
182.07
179.51
175.23
169.65
163.18
156.15
148.81
141.30
133.69
126.02
118.33
110.69
103.16
95.80
88.68
81.83
75.25
68.95
62.95
57.25
51.86
46.78
42.03
37.59
33.45
29.61
26.07
22.81
19.83
17.11
14.67
12.48
10.54
8.83
7.35
6.07
4.97
4.05
3.27
2.62
2.09
1.65
1.30
1.01
0.79
0.61
0.48
0.38
0.30
0.25
0.21
0.19
0.18
0.19
0.21
0.25
0.29
0.34
0.36
0.36
0.32
0.27
0.21
0.19
0.20
0.26
0.33
0.39
0.42
0.40
0.37
0.35
0.37
0.46
0.60
0.76
0.89
0.94
0.90
0.83
0.79
0.88
1.13
1.51
1.93
2.26
2.36
2.24
1.98
1.79
1.86
2.31
3.08
3.92
4.55
4.71
4.36
3.70
3.12
3.02
3.61
4.80
6.17
7.18
7.42
6.78
5.54
4.23
3.33
3.03
3.08
2.89
1.79
-0.79
-5.15
-11.43
-19.45
-28.53
-37.26
-43.66
-45.66
-42.07
-33.29
-21.48
-9.73
-0.81
3.95
5.07
4.20
3.12
2.66
2.65
2.45
1.70
0.76
0.45
1.52
4.07
7.49
10.85
13.34
14.61
14.89
14.69
14.50
14.56
14.78
14.86
14.46
13.38
11.66
9.51
7.23
5.07
3.17
1.58
0.26
-0.87
-1.93
-3.02
-4.22
-5.45
-6.53
-7.17
-7.22
-6.63
-5.66
-4.67
-3.99
-3.75
-3.79
-3.85
-3.63
-3.01
-2.11
-1.22
-0.63
-0.56
-1.00
-1.78
-2.62
-3.18
-3.19
-2.57
-1.47
-0.22
0.77
1.16
0.87
0.02
-1.07
-2.11
-2.99
-3.82
-4.79
-5.96
-7.17
-8.05
-8.26
-7.65
-6.41
-4.89
-3.40
-2.07
-0.78
0.59
2.01
3.27
4.07
4.27
3.96
3.48
3.22
3.45
4.21
5.32
6.51
7.55
8.34
8.89
9.32
9.76
10.27
10.80
11.25
11.51
11.52
11.30
10.94
10.52
10.06
9.52
8.78
7.69
6.06
3.84
1.08
-1.98
-4.99
-7.58
-9.46
-10.55
-10.98
-11.01
-10.96
-11.10
-11.56
-12.38
-13.43
-14.58
-15.68
-16.64
-17.44
-18.11
-18.68
-19.20
-19.71
-20.26
-20.83
-21.33
-21.53
-21.23
-20.31
-18.87
-17.15
-15.44
-13.97
-12.74
-11.67
-10.58
-9.31
-7.84
-6.15
-4.26
-2.16
0.16
2.72
5.50
8.44
11.45
14.43
17.35
20.33
23.53
27.12
30.99
34.81
38.09
40.41
41.69
42.20
42.46
42.94
43.82
44.95
45.96
46.50
46.32
45.35
43.60
41.11
37.94
34.24
30.29
26.45
23.07
20.37
18.34
16.81
15.53
14.27
12.90
11.37
9.64
7.66
5.43
3.06
0.81
-1.02
-2.15
-2.52
-2.35
-2.07
-2.10
-2.70
-3.81
-5.21
-6.74
-8.36
-10.25
-12.59
-15.39
-18.42
-21.27
-23.64
-25.38
-26.68
-27.82
-29.03
-30.30
-31.48
-32.39
-33.03
-33.55
-34.18
-34.98
-35.73
-36.00
-35.30
-33.34
-30.14
-26.02
-21.41
-16.81
-12.51
-8.69
-5.41
-2.68
-0.50
1.17
2.42
3.41
4.30
5.23
6.24
7.31
8.37
9.40
10.39
11.29
12.03
12.49
12.56
12.23
11.57
10.74
9.88
9.09
8.33
7.52
6.53
5.36
4.09
2.86
1.81
0.99
0.32
-0.28
-0.86
-1.30
-1.29
-0.49
1.31
4.11
7.60
11.33
14.83
17.78
19.96
21.24
21.47
20.52
18.36
15.20
11.48
7.71
4.28
1.24
-1.76
-5.25
-9.58
-14.65
-19.96
-24.76
-28.48
-30.94
-32.39
-33.23
-33.75
-33.93
-33.46
-31.95
-29.19
-25.33
-20.86
-16.38
-12.33
-8.89
-5.93
-3.26
-0.86
1.09
2.31
2.67
2.43
2.10
2.22
2.95
4.06
5.19
6.23
7.58
9.94
13.65
18.10
21.67
22.36
18.90
11.66
2.72
-5.04
-9.40
-10.00
-8.55
-7.96
-10.75
-17.75
-27.68
-37.84
-45.58
-49.43
-49.65
-47.81
-45.84
-45.06
-46.14
-49.37
-54.98
-62.99
-72.27
-79.46
-78.96
-64.50
-32.14
17.13
76.70
136.34
185.87
218.62
232.83
230.55
214.99
188.27
150.91
103.18
46.97
-13.42
-72.07
-123.25
-163.00
-189.57
-203.01
-204.28
-194.89
-177.00
-153.47
-127.28
-100.91
-75.68
-51.55
-27.67
-3.32
21.50
46.02
69.30
90.82
110.57
128.44
143.56
154.15
158.10
154.07
142.31
125.17
106.44
89.95
78.20
71.59
68.75
67.44
65.58
61.48
54.45
44.82
33.66
22.30
11.96
3.36
-3.69
-10.23
-18.65
-30.67
-46.03
-62.44
-76.59
-85.75
-88.72
-86.18
-79.94
-73.45
-69.24
-67.93
-68.46
-69.33
-69.38
-67.74
-64.23
-58.48
-52.01
-46.14
-41.35
-37.28
-33.53
-30.06
-26.94
-24.91
-14.45
8.94
42.27
77.15
107.09
130.60
149.24
165.14
176.87
185.11
188.83
187.88
183.44
177.48
171.22
164.19
157.64
149.27
137.72
122.16
103.72
84.48
66.49
51.05
38.55
29.04
17.98
2.82
-16.07
-35.44
-51.99
-64.03
-71.34
-74.56
-74.33
-77.97
-89.92
-109.23
-130.79
-150.40
-166.96
-181.56
-196.03
-211.67
-237.84
-280.20
-336.71
-400.01
-463.94
-526.29
-587.59
-649.42
-658.74
-590.83
-464.86
-325.20
-202.22
-101.61
-16.36
61.43
134.86
202.35
251.47
273.71
270.72
252.28
228.47
205.26
185.31
169.22
157.73
145.49
129.70
112.69
99.74
94.10
93.96
98.39
105.76
115.08
121.90
123.60
121.20
118.13
117.08
118.69
122.56
127.60
133.06
136.65
137.06
134.80
131.51
128.45
126.07
124.55
123.79
123.79
123.66
122.36
119.98
116.76
113.13
109.76
107.59
107.33
109.23
112.73
116.58
119.31
119.73
117.49
113.20
108.16
103.89
101.92
103.63
109.94
120.83
134.70
148.37
157.71
158.85
149.62
130.33
103.54
72.80
41.20
10.34
-19.53
-48.87
-77.84
-105.92
-132.22
-156.10
-177.83
-198.68
-220.49
-244.85
-272.63
-303.64
-336.63
-369.57
-399.87
-424.73
-441.61
-448.83
-446.21
-435.43
-419.64
-402.54
-387.24
-375.44
-367.15
-361.13
-355.56
-348.47
-337.91
-321.90
-298.39
-265.72
-223.29
-172.37
-116.55
-61.32
-12.81
23.95
46.75
57.02
59.35
59.70
63.17
71.99
85.02
98.70
109.00
113.42
111.87
106.34
99.76
94.64
92.34
92.91
95.33
97.69
97.56
92.56
81.37
64.79
46.27
31.26
25.24
31.43
48.92
72.54
94.33
106.22
102.80
82.84
49.62
9.60
-29.61
-61.39
-81.64
-89.36
-86.17
-75.09
-59.24
-40.88
-21.47
-2.11
15.91
30.92
41.33
46.29
46.12
42.23
36.50
30.60
25.63
22.12
20.42
21.02
24.53
31.23
40.38
50.03
57.30
59.45
55.06
44.75
30.94
16.67
4.29
-5.49
-13.56
-21.59
-30.92
-41.80
-53.26
-63.57
-70.76
-73.05
-68.95
-57.52
-38.67
-13.67
14.79
43.03
67.21
84.53
93.73
95.19
90.33
80.98
68.98
56.05
43.93
34.28
28.41
26.86
29.23
34.19
39.83
43.94
44.48
40.19
31.40
20.67
12.63
12.80
25.50
51.68
87.85
126.67
159.12
177.50
177.83
160.94
131.71
97.20
64.41
38.52
21.94
14.60
14.75
20.25
29.25
40.43
52.57
64.11
73.32
78.71
79.86
77.65
73.89
70.42
68.14
66.77
65.07
61.71
55.80
47.08
35.71
22.00
6.43
-10.03
-25.74
-38.56
-46.56
-48.86
-46.03
-39.74
-31.91
-23.77
-15.45
-6.11
5.37
19.66
36.50
54.60
71.75
85.17
92.13
90.55
79.67
60.28
34.40
4.47
-27.50
-60.39
-93.73
-127.05
-159.22
-188.35
-212.09
-228.34
-235.73
-233.88
-223.75
-207.75
-189.68
-173.86
-163.66
-159.83
-159.63
-157.53
-147.17
-123.66
-85.25
-33.96
24.87
83.61
133.89
168.49
183.42
179.55
162.68
141.65
125.05
117.82
119.81
126.89
133.88
137.28
136.44
132.78
127.97
122.55
115.94
107.51
97.89
89.31
85.01
87.67
97.79
112.92
128.23
138.39
139.77
131.89
117.48
100.87
85.86
74.24
65.57
58.22
50.74
42.70
34.43
26.26
17.98
9.02
-0.76
-10.34
-17.52
-19.86
-15.95
-6.22
7.03
20.52
31.22
37.07
37.35
32.27
22.58
9.38
-5.92
-21.39
-34.91
-44.70
-50.15
-52.15
-52.92
-55.05
-60.55
-69.92
-82.04
-94.60
-104.87
-110.46
-110.04
-103.89
-94.21
-85.01
-80.81
-84.71
-96.50
-111.66
-122.36
-120.06
-99.05
-59.06
-6.01
49.82
97.29
128.20
139.93
135.65
122.53
108.50
99.25
96.63
98.87
102.33
103.76
101.87
97.31
91.68
86.11
80.65
74.54
67.13
58.59
50.08
43.18
39.06
37.93
39.02
41.02
42.59
42.95
42.09
40.52
38.65
35.93
30.62
20.47
4.24
-16.65
-37.83
-53.32
-58.45
-52.38
-38.90
-24.65
-15.84
-15.43
-22.17
-31.92
-40.00
-43.26
-40.70
-32.88
-21.03
-6.67
8.39
21.88
31.43
35.22
32.70
24.74
13.26
0.68
-10.64
-18.76
-22.47
-21.67
-17.71
-13.32
-11.71
-15.24
-24.25
-36.81
-49.69
-60.00
-66.57
-70.28
-73.23
-77.25
-82.77
-88.81
-93.67
-95.99
-95.15
-90.94
-82.96
-70.43
-52.67
-29.99
-4.28
21.41
44.07
62.00
75.44
85.92
94.97
102.84
108.09
108.50
102.64
91.26
77.46
65.64
59.54
60.73
68.11
78.83
89.70
98.20
102.41
100.56
90.96
73.05
48.94
24.02
5.50
-0.79
6.39
22.45
38.86
47.32
43.75
29.89
11.92
-3.10
-10.52
-9.49
-2.08
8.63
20.20
31.17
40.49
46.85
48.61
44.49
34.67
21.33
8.28
-0.49
-2.48
2.09
10.11
16.97
18.39
12.10
-1.35
-18.84
-35.85
-48.12
-53.53
-53.58
-53.75
-62.25
-86.85
-130.99
-191.00
-256.03
-311.26
-343.11
-344.31
-316.29
-268.17
-212.78
-161.66
-121.32
-92.09
-69.56
-47.65
-21.80
9.06
42.43
73.87
99.39
117.16
127.91
133.75
136.45
136.12
131.49
121.36
106.28
89.41
75.66
69.95
74.89
89.72
110.41
131.16
146.21
151.16
143.72
123.84
93.90
58.64
24.60
-1.37
-14.22
-12.62
0.50
19.10
36.56
48.13
52.09
49.41
42.28
32.68
21.90
10.84
0.48
-8.09
-14.32
-18.85
-23.68
-31.38
-43.73
-60.72
-80.15
-98.48
-112.27
-119.55
-120.61
-117.69
-113.83
-111.40
-111.04
-111.18
-108.79
-100.55
-84.27
-59.93
-30.09
0.41
25.52
39.64
39.66
26.54
5.69
-14.45
-25.33
-21.62
-3.51
23.19
49.40
66.40
69.19
58.24
38.86
18.61
4.29
-0.39
4.52
16.09
30.50
44.75
57.56
68.93
79.01
87.04
91.30
90.07
83.11
72.42
61.79
55.16
54.78
60.33
69.32
78.47
85.06
87.48
85.04
77.56
65.34
49.64
33.00
18.86
10.36
8.73
12.53
18.04
20.93
18.22
9.57
-2.64
-14.42
-21.80
-22.31
-15.84
-4.70
7.19
15.50
16.97
10.50
-2.69
-19.85
-38.09
-55.69
-72.60
-89.94
-108.88
-129.73
-151.60
-172.87
-191.89
-207.32
-218.16
-223.71
-224.02
-220.45
-215.96
-214.13
-217.31
-224.61
-231.16
-229.31
-211.48
-173.15
-115.05
-43.36
31.95
99.84
151.32
181.76
191.89
187.09
175.11
163.11
155.26
151.96
151.02
149.96
147.98
146.27
146.77
150.42
156.09
161.11
162.86
160.46
155.42
150.99
150.46
155.45
164.96
175.75
183.85
186.20
181.52
170.13
153.05
131.43
106.86
82.15
61.77
50.64
51.79
63.86
80.50
92.43
91.45
74.20
43.59
7.25
-25.94
-49.24
-59.78
-58.40
-48.43
-34.59
-22.43
-17.72
-25.62
-49.15
-87.84
-137.28
-190.44
-239.93
-280.62
-311.18
-334.13
-354.39
-377.08
-405.42
-439.30
-475.06
-506.51
-526.78
-530.47
-515.20
-481.99
-434.54
-377.71
-315.87
-252.07
-187.75
-123.07
-57.43
9.55
76.84
141.06
196.77
238.09
261.28
266.89
259.91
247.60
236.26
228.38
222.39
214.73
202.86
187.32
171.34
158.73
151.42
148.61
147.70
146.27
143.57
140.69
139.56
141.96
148.60
159.07
172.35
187.26
203.04
219.48
237.02
256.26
277.04
297.36
312.80
317.45
306.41
278.76
239.35
197.92
165.53
150.09
153.24
170.01
191.59
209.03
216.33
211.27
194.50
168.18
135.14
98.80
63.12
31.79
6.85
-12.37
-29.27
-48.44
-73.62
-106.13
-144.87
-187.34
-231.23
-275.34
-319.62
-364.60
-410.83
-458.95
-509.78
-563.52
-618.54
-670.61
-713.70
-742.34
-754.19
-751.14
-737.95
-719.24
-696.64
-668.30
-630.73
-582.07
-524.04
-461.62
-400.53
-344.40
-293.37
-244.99
-196.40
-146.33
-95.75
-46.97
-2.31
37.11
71.86
104.00
136.07
169.96
206.13
243.49
280.17
314.98
348.32
382.07
417.81
454.78
488.78
513.39
522.94
515.29
492.64
459.68
420.53
377.06
329.91
281.26
236.93
205.19
192.65
199.69
218.59
236.22
239.77
222.32
185.17
136.09
85.16
40.65
6.94
-15.33
-27.97
-33.95
-36.39
-37.82
-39.57
-41.25
-41.14
-36.99
-27.53
-13.21
3.75
20.13
32.86
39.91
40.56
34.96
23.98
8.78
-9.42
-29.54
-51.23
-75.60
-105.51
-144.72
-195.80
-257.58
-323.75
-383.75
-426.04
-442.32
-430.46
-394.67
-342.94
-283.19
-220.41
-156.25
-90.65
-24.48
38.99
94.51
136.89
163.33
174.71
175.09
169.79
163.21
157.42
151.85
144.68
134.68
122.60
111.45
105.57
108.72
122.53
145.66
174.16
202.48
224.63
235.26
230.66
209.99
176.51
137.87
104.78
87.75
92.92
119.21
158.28
197.75
226.20
237.36
231.48
213.61
190.22
166.24
143.95
123.55
104.59
86.61
69.04
50.64
29.46
3.61
-27.41
-61.91
-96.21
-125.82
-146.99
-157.81
-158.71
-152.19
-142.21
-133.32
-129.62
-133.75
-145.93
-163.54
-181.52
-193.42
-192.97
-175.88
-141.30
-92.65
-37.56
13.55
50.23
65.49
58.35
34.60
4.89
-18.72
-26.64
-14.26
17.49
63.29
115.47
166.14
209.09
240.88
261.29
272.63
278.17
280.23
278.80
271.52
255.06
227.22
188.60
143.03
96.29
54.06
19.99
-5.38
-24.09
-39.10
-52.42
-63.76
-70.55
-69.36
-57.79
-36.33
-8.85
18.19
37.72
44.11
34.64
9.83
-27.35
-72.90
-123.04
-175.21
-228.04
-280.72
-332.58
-383.18
-432.86
-483.31
-536.99
-595.16
-655.87
-712.80
-756.51
-777.63
-770.64
-736.22
-681.01
-614.97
-547.79
-486.11
-432.47
-385.96
-343.83
-302.95
-260.85
-216.22
-169.22
-121.31
-74.81
-31.93
6.30
40.49
72.86
106.42
143.95
187.10
235.69
286.98
335.66
374.83
398.09
402.54
391.16
373.03
360.62
364.80
389.80
430.69
475.03
507.79
517.58
500.99
463.14
414.76
367.37
328.98
302.21
284.93
272.69
261.44
249.37
236.93
225.65
216.39
208.29
199.05
186.37
169.87
152.14
138.12
132.83
138.71
154.16
174.06
192.06
203.46
206.65
202.60
192.95
178.32
158.59
134.60
109.81
90.13
81.35
85.47
98.56
111.72
115.19
103.14
76.48
42.10
9.22
-14.86
-27.26
-29.37
-24.98
-18.28
-12.80
-11.56
-17.42
-33.03
-60.02
-98.21
-145.25
-197.14
-249.41
-298.53
-342.80
-382.65
-420.46
-459.98
-505.25
-558.87
-620.07
-683.61
-740.19
-778.89
-790.84
-772.53
-727.20
-663.37
-591.48
-520.08
-453.65
-392.50
-334.57
-277.63
-220.65
-163.94
-108.36
-54.44
-2.13
49.01
99.40
149.20
198.44
247.33
296.76
348.07
402.25
458.73
514.53
564.43
602.47
624.19
628.60
618.71
600.33
579.72
561.33
546.75
534.94
523.49
509.85
492.40
470.93
446.82
422.75
401.74
385.90
375.10
366.64
356.25
339.78
315.17
283.18
246.69
209.11
172.76
138.30
105.16
72.56
40.23
8.47
-22.30
-51.95
-80.80
-109.38
-138.24
-167.74
-198.02
-229.14
-261.09
-293.74
-326.81
-360.00
-393.04
-425.87
-458.73
-492.08
-526.54
-563.11
-603.35
-649.03
-701.05
-757.83
-814.19
-861.79
-891.27
-895.66
-873.14
-827.75
-767.71
-702.07
-637.66
-577.67
-522.25
-470.26
-420.86
-374.05
-330.14
-288.99
-249.70
-211.09
-172.37
-133.63
-95.65
-59.56
-26.02
4.99
34.11
62.08
89.29
115.60
140.45
163.43
184.70
205.14
226.09
248.72
273.30
298.99
324.00
346.54
365.94
383.48
402.38
426.61
458.86
498.42
540.30
575.96
595.53
590.73
557.24
495.97
413.41
320.71
231.76
160.09
115.06
98.73
104.96
121.62
135.31
136.55
123.08
99.80
75.56
58.82
54.19
61.41
76.41
93.53
107.40
114.12
111.60
99.72
80.06
55.30
28.41
1.72
-23.52
-46.85
-68.11
-86.99
-102.98
-115.86
-126.02
-134.42
-141.97
-149.15
-156.16
-163.83
-174.28
-190.56
-214.71
-245.42
-276.82
-299.48
-303.90
-284.63
-243.25
-187.99
-130.39
-80.37
-42.39
-14.29
10.67
39.81
77.18
121.70
167.96
208.93
239.18
256.87
263.77
263.53
259.47
253.27
245.15
235.12
224.29
215.30
211.63
216.25
230.26
252.03
277.66
301.98
320.10
328.65
326.37
314.31
295.77
276.19
262.39
260.91
275.45
304.70
341.78
376.22
397.86
400.68
384.64
354.61
317.29
277.95
238.92
200.32
161.91
124.55
90.27
61.06
37.55
18.37
0.66
-18.80
-42.38
-70.85
-103.02
-136.28
-167.69
-195.45
-219.73
-242.99
-268.96
-300.83
-339.77
-384.80
-433.32
-482.20
-528.14
-567.67
-597.47
-615.64
-623.62
-627.08
-634.22
-651.78
-680.60
-713.70
-738.59
-743.01
-720.82
-674.76
-614.37
-550.65
-490.76
-435.76
-382.17
-325.90
-265.63
-203.75
-144.87
-93.25
-50.45
-14.70
18.06
52.35
91.23
135.04
181.70
227.89
270.59
308.17
340.60
368.74
393.39
414.88
432.94
446.96
456.01
458.51
451.65
431.39
393.84
337.66
266.61
190.47
123.39
79.37
66.81
84.64
122.14
162.68
189.63
191.83
166.33
117.43
53.46
-16.90
-86.90
-152.32
-210.73
-260.45
-299.97
-328.02
-343.88
-347.52
-339.97
-322.94
-298.66
-269.48
-237.58
-204.72
-172.40
-142.03
-114.86
-91.57
-71.64
-53.12
-32.93
-8.08
23.14
60.32
100.61
139.03
169.45
186.19
186.19
171.21
148.55
129.56
125.64
143.13
179.87
225.21
264.42
285.04
282.41
261.20
232.50
208.04
195.00
193.68
198.93
203.90
203.94
198.46
190.40
183.71
180.57
180.07
179.06
174.34
165.08
154.00
146.32
147.23
159.28
180.90
207.02
231.19
247.77
253.36
246.89
229.08
202.22
170.51
140.14
118.39
111.23
120.53
142.35
167.61
185.28
186.75
169.30
136.88
98.20
62.81
37.47
24.01
19.51
18.24
14.09
2.55
-18.43
-48.65
-86.50
-129.89
-176.73
-225.01
-272.74
-318.04
-359.74
-398.22
-435.88
-476.71
-524.50
-580.34
-640.62
-696.98
-738.46
-755.36
-743.01
-703.40
-644.14
-575.03
-504.28
-436.27
-371.60
-308.94
-247.09
-186.16
-127.14
-70.82
-16.83
36.37
90.85
148.34
209.61
273.94
338.92
400.60
454.17
495.09
520.59
530.71
528.26
517.66
503.15
487.36
471.09
454.23
437.13
421.56
410.31
405.87
408.73
416.75
425.83
431.59
431.15
423.82
410.73
393.41
372.59
347.78
317.91
282.51
242.58
200.60
159.67
122.23
89.10
59.43
31.31
2.86
-26.97
-57.99
-89.08
-118.77
-146.05
-170.96
-194.66
-218.97
-245.58
-275.36
-307.90
-341.94
-375.88
-408.62
-440.00
-470.75
-502.23
-536.09
-574.17
-618.11
-668.55
-723.87
-779.21
-826.78
-857.64
-864.70
-845.43
-802.88
-744.44
-678.98
-613.84
-553.17
-497.99
-447.47
-400.46
-356.06
-313.64
-272.43
-231.55
-190.38
-149.00
-108.23
-69.05
-32.02
3.25
37.88
73.05
109.09
145.11
179.32
209.87
236.01
258.61
279.96
302.96
329.92
361.71
397.38
434.28
468.54
495.91
512.78
517.15
509.53
492.93
471.90
450.79
431.57
412.60
388.79
353.88
304.05
241.20
173.85
114.62
75.15
60.97
69.10
89.86
111.93
127.90
137.33
145.66
160.30
186.10
222.88
266.12
309.63
348.26
379.18
401.32
413.88
415.44
404.16
378.71
339.66
289.96
234.36
177.98
124.48
74.98
27.98
-19.34
-69.41
-123.03
-178.91
-234.50
-287.38
-336.40
-382.25
-427.39
-475.27
-529.02
-589.72
-654.85
-717.82
-769.20
-799.48
-802.47
-777.55
-729.74
-667.38
-598.79
-529.65
-462.41
-397.53
-335.43
-277.52
-225.76
-181.18
-142.53
-106.30
-68.19
-25.16
22.98
73.45
121.60
163.20
196.51
223.44
249.03
279.80
320.88
373.35
432.87
489.99
532.40
548.44
530.84
479.78
403.91
318.84
243.16
193.07
177.35
194.78
234.74
280.95
316.85
330.72
318.67
284.77
238.63
191.47
152.48
126.45
113.40
109.88
111.10
113.11
113.93
113.89
114.64
118.19
126.09
138.87
156.12
176.41
197.25
215.08
225.50
224.04
207.22
173.67
124.92
65.35
1.04
-61.82
-118.89
-168.82
-213.37
-256.38
-302.41
-355.41
-417.54
-488.20
-563.24
-635.06
-693.86
-730.30
-738.58
-718.60
-675.89
-619.28
-557.40
-495.82
-436.15
-377.27
-317.68
-257.31
-197.81
-141.53
-89.92
-42.56
2.66
48.30
96.11
146.06
196.21
243.51
284.86
317.98
341.75
356.22
362.20
361.25
355.47
347.45
339.82
334.47
331.57
328.78
321.61
304.68
274.07
229.65
176.02
121.75
76.89
49.74
44.01
57.75
84.18
114.02
138.29
150.61
148.09
131.02
101.99
64.98
24.78
-13.52
-45.07
-66.22
-75.47
-73.97
-65.40
-54.81
-47.09
-45.43
-50.45
-60.26
-71.25
-79.42
-81.66
-76.83
-66.17
-52.88
-40.96
-33.71
-32.39
-35.91
-41.42
-45.65
-46.16
-41.87
-33.37
-22.94
-14.71
-14.17
-26.75
-55.19
-97.10
-144.22
-184.15
-204.41
-197.09
-161.91
-106.48
-43.41
14.20
57.04
81.97
91.89
93.40
93.47
96.59
103.19
110.17
113.04
108.54
96.48
79.74
62.29
46.89
33.77
21.16
7.38
-6.96
-18.28
-21.37
-12.21
9.38
38.86
68.64
91.30
102.45
101.79
91.88
76.03
56.83
36.45
17.67
4.48
0.91
8.71
25.50
45.07
60.06
65.27
59.91
47.14
31.75
17.76
7.25
0.96
-0.77
2.38
9.79
18.84
24.89
22.86
9.67
-13.90
-43.15
-71.23
-91.95
-101.89
-101.11
-92.40
-79.63
-66.26
-54.65
-45.86
-39.98
-36.43
-34.29
-32.82
-32.13
-33.77
-40.40
-54.53
-76.34
-102.02
-123.65
-131.21
-116.27
-75.80
-14.44
56.29
121.68
169.17
192.98
195.80
187.03
177.93
176.42
183.81
195.28
203.44
203.08
194.30
182.24
173.98
174.23
182.74
194.72
203.73
205.39
199.48
189.85
182.07
180.37
185.49
194.28
200.94
199.47
185.95
159.88
124.05
82.99
40.90
-0.19
-41.06
-84.45
-133.42
-189.71
-253.07
-321.42
-391.48
-459.07
-518.84
-564.40
-589.50
-590.88
-570.87
-537.98
-503.96
-478.70
-465.62
-460.38
-453.71
-436.86
-406.46
-365.83
-322.14
-281.64
-246.12
-212.62
-175.97
-132.33
-81.13
-25.80
28.01
74.70
110.59
134.73
148.64
155.35
158.23
161.05
165.99
173.29
181.62
188.99
193.17
191.64
181.88
162.05
134.46
103.58
75.24
55.11
47.39
53.46
71.42
96.76
124.35
153.53
184.49
217.09
250.58
284.52
319.71
357.54
398.67
441.30
485.14
526.23
557.60
572.16
566.56
543.00
507.86
468.82
405.64
312.25
198.52
85.81
-7.30
-73.91
-116.51
-141.45
-155.01
-162.56
-163.04
-155.07
-139.37
-119.72
-100.84
-86.14
-76.99
-72.81
-73.05
-73.45
-70.94
-65.69
-59.67
-57.27
-61.48
-73.50
-87.25
-99.37
-106.42
-106.33
-100.69
-91.85
-86.09
-88.19
-99.64
-118.65
-142.39
-166.46
-185.73
-199.62
-209.56
-223.88
-249.81
-289.89
-341.51
-400.16
-461.95
-523.36
-585.93
-613.98
-581.94
-484.92
-342.46
-184.98
-39.50
62.47
123.49
147.91
141.94
107.71
47.86
-26.01
-102.14
-168.76
-215.02
-229.68
-209.13
-155.69
-81.64
-1.14
75.76
145.59
211.13
277.30
347.01
413.89
466.25
488.19
469.49
410.42
320.00
211.21
95.47
-16.20
-110.83
-176.24
-206.74
-202.35
-166.25
-104.50
-25.99
54.65
132.94
203.14
257.26
287.69
290.68
268.22
227.85
178.84
134.77
109.01
107.17
122.93
142.54
151.56
141.20
110.94
67.28
20.09
-21.99
-55.95
-87.19
-123.58
-170.59
-228.52
-294.14
-364.24
-437.64
-514.64
-575.65
-601.78
-581.43
-517.16
-422.92
-316.17
-212.51
-123.47
-54.94
-7.35
20.42
31.69
30.80
22.57
11.90
2.88
-2.14
-1.54
4.57
12.38
17.49
16.90
10.21
0.34
-8.75
-14.34
-15.72
-13.89
-11.85
-12.10
-15.31
-19.63
-22.14
-18.95
-8.31
8.63
28.62
47.75
63.44
75.20
84.34
96.25
115.70
143.86
177.86
212.50
243.28
268.41
288.85
307.50
332.43
371.29
427.84
500.14
581.10
661.16
730.31
779.91
777.67
705.93
570.08
399.39
231.28
92.07
-9.40
-77.67
-122.91
-154.73
-175.15
-183.49
-179.88
-167.92
-154.06
-143.67
-139.47
-141.42
-147.51
-151.95
-150.30
-141.53
-129.13
-119.43
-116.98
-123.04
-136.06
-153.04
-169.09
-181.03
-188.34
-188.70
-185.69
-182.68
-181.00
-180.13
-178.51
-173.84
-165.11
-152.57
-138.36
-125.54
-115.30
-107.04
-99.14
-89.78
-77.52
-65.27
-52.58
-40.26
-29.97
-22.40
-17.42
-14.13
-10.69
-4.48
6.41
23.71
47.26
74.79
102.83
127.44
145.39
155.55
158.93
156.22
148.47
135.60
116.65
90.28
57.18
18.35
-24.12
-67.37
-110.46
-152.25
-191.59
-226.41
-253.82
-270.72
-274.86
-265.20
-230.85
-169.42
-86.99
3.36
88.26
159.26
213.97
253.69
281.08
298.45
306.13
303.92
292.25
273.58
251.69
230.22
211.26
194.91
179.31
159.66
134.44
103.44
68.72
33.63
1.42
-25.99
-48.32
-66.67
-83.87
-102.82
-126.20
-155.56
-190.88
-229.84
-267.17
-294.90
-304.57
-291.15
-255.38
-204.84
-151.41
-107.09
-79.72
-70.75
-76.17
-89.72
-106.49
-124.60
-145.09
-169.87
-200.23
-236.54
-278.95
-328.13
-384.85
-448.36
-514.49
-575.31
-620.61
-641.22
-632.15
-594.43
-534.11
-459.58
-378.58
-296.34
-215.71
-137.99
-64.29
4.23
66.66
123.04
174.41
222.48
268.91
314.64
359.25
400.33
433.49
453.12
454.25
434.78
397.16
348.33
297.74
254.27
223.74
208.27
207.33
219.62
243.79
277.61
316.21
351.01
370.57
363.76
323.88
251.99
157.86
57.78
-29.84
-89.56
-112.66
-98.66
-54.74
6.49
69.86
120.87
148.75
148.97
124.59
85.30
44.59
15.05
4.11
11.63
30.68
51.03
63.65
63.96
52.54
33.65
12.48
-7.18
-23.90
-38.17
-51.21
-63.73
-75.47
-85.96
-95.59
-105.92
-118.89
-135.22
-153.39
-170.35
-184.04
-196.23
-213.30
-243.57
-292.48
-357.99
-429.48
-491.19
-528.51
-533.76
-508.39
-460.72
-401.09
-337.43
-273.59
-210.44
-148.17
-88.02
-32.06
18.13
62.83
104.40
145.77
188.14
229.63
265.33
288.98
295.89
285.22
260.76
229.58
199.44
175.93
161.18
154.17
152.66
155.29
162.60
176.36
197.86
226.04
256.83
283.90
300.22
299.72
278.45
235.25
172.44
96.27
17.00
-52.39
-99.05
-114.23
-96.65
-53.80
-0.16
47.13
73.66
71.97
43.29
-3.51
-55.39
-99.13
-124.90
-128.23
-110.31
-77.16
-37.81
-2.08
21.70
28.75
19.19
-2.17
-27.65
-49.53
-62.68
-65.92
-61.34
-52.57
-42.78
-33.42
-24.39
-14.72
-3.55
8.77
19.81
24.65
16.97
-8.50
-52.67
-109.94
-168.73
-214.99
-237.36
-231.15
