1660936258.00
64.000000
-0.00
-0.00
-0.00
-0.00
-0.00
-0.00
-0.00
-0.00
-0.00
-0.00
0.00
0.01
0.01
-0.00
-0.03
-0.05
-0.05
0.00
0.13
0.36
0.66
1.01
1.37
1.72
2.06
2.40
2.79
3.25
3.81
4.44
5.09
5.73
6.32
6.90
7.52
8.26
9.15
10.26
11.49
12.70
13.80
14.76
15.64
16.66
18.01
19.85
22.35
25.29
28.38
31.35
34.08
36.67
39.51
43.02
47.50
53.25
59.86
66.77
73.46
79.68
85.63
91.91
99.24
108.05
118.68
130.47
142.52
154.03
164.67
174.81
185.31
197.56
210.06
224.67
241.59
260.73
280.99
299.88
313.64
318.08
309.92
287.94
253.88
210.93
163.03
113.54
64.54
17.03
-28.53
-71.73
-112.16
-149.43
-184.20
-217.84
-252.04
-287.92
-325.10
-361.17
-392.00
-413.06
-420.87
-414.56
-396.27
-370.28
-341.33
-312.98
-286.79
-262.63
-239.67
-217.29
-195.74
-175.74
-157.87
-142.08
-127.74
-113.97
-100.18
-86.30
-72.82
-60.46
-49.80
-40.97
-33.65
-27.19
-20.96
-14.59
-8.10
-1.83
3.76
8.30
11.73
14.28
16.36
18.37
20.54
22.80
24.90
26.50
27.38
27.53
27.15
26.56
26.05
25.75
25.63
25.53
25.28
24.77
24.04
23.18
22.33
21.58
20.92
20.30
19.65
18.93
18.16
17.37
16.63
15.98
15.43
14.98
14.63
14.34
14.06
13.75
13.39
13.00
12.65
12.39
12.25
12.19
12.09
11.87
11.51
11.02
10.48
9.93
9.40
8.90
8.45
8.09
7.88
7.84
7.90
7.96
7.91
7.68
7.32
6.97
6.73
6.67
6.72
6.77
6.70
6.47
6.10
5.65
5.19
4.72
4.24
3.78
3.37
3.09
2.94
2.86
2.76
2.53
2.11
1.53
0.86
0.16
-0.55
-1.29
-2.07
-2.85
-3.56
-4.13
-4.57
-4.98
-5.46
-6.09
-6.83
-7.59
-8.25
-8.71
-8.98
-9.09
-9.06
-8.93
-8.70
-8.38
-8.02
-7.67
-7.39
-7.13
-6.81
-6.33
-5.62
-4.70
-3.71
-2.83
-2.18
-1.81
-1.62
-1.48
-1.28
-0.98
-0.65
-0.36
-0.18
-0.07
0.03
0.19
0.41
0.65
0.85
0.98
1.11
1.29
1.54
1.84
2.10
2.29
2.44
2.61
2.83
3.07
3.23
3.25
3.12
2.93
2.81
2.85
3.06
3.38
3.70
3.96
4.14
4.25
4.29
4.27
4.17
3.99
3.78
3.60
3.56
3.75
4.18
4.81
5.47
5.96
6.10
5.81
5.19
4.39
3.60
2.95
2.45
2.06
1.77
1.59
1.63
1.91
2.42
2.99
3.47
3.69
3.63
3.33
2.90
2.48
2.15
1.96
1.93
1.99
2.11
2.22
2.29
2.32
2.31
2.30
2.28
2.21
2.06
1.80
1.47
1.17
1.00
1.03
1.24
1.51
1.70
1.69
1.49
1.18
0.90
0.74
0.74
0.84
0.94
0.97
0.91
0.85
0.84
0.93
1.12
1.33
1.53
1.67
1.77
1.87
2.01
2.18
2.37
2.50
2.53
2.43
2.21
1.93
1.67
1.46
1.33
1.21
1.06
0.83
0.57
0.37
0.31
0.42
0.64
0.87
0.99
0.94
0.78
0.59
0.46
0.42
0.44
0.45
0.41
0.33
0.22
0.12
0.09
0.11
0.18
0.28
0.41
0.56
0.71
0.84
0.92
0.96
0.97
0.98
0.99
1.01
1.04
1.03
0.94
0.74
0.43
0.07
-0.25
-0.43
-0.43
-0.28
-0.06
0.14
0.25
0.32
0.41
0.56
0.73
0.85
0.83
0.65
0.40
0.23
0.24
0.47
0.86
1.29
1.62
1.76
1.66
1.37
0.97
0.57
0.30
0.23
0.32
0.47
0.58
0.57
0.48
0.40
0.42
0.56
0.76
0.88
0.85
0.68
0.44
0.25
0.17
0.17
0.22
0.28
0.36
0.52
0.78
1.08
1.28
1.25
0.92
0.36
-0.24
-0.64
-0.72
-0.48
-0.07
0.32
0.56
0.63
0.62
0.58
0.52
0.41
0.19
-0.14
-0.49
-0.69
-0.62
-0.21
0.46
1.23
1.92
2.36
2.50
2.36
2.04
1.69
1.38
1.13
0.92
0.67
0.34
-0.01
-0.28
-0.36
-0.25
-0.02
0.16
0.16
-0.05
-0.35
-0.60
-0.67
-0.57
-0.42
-0.33
-0.37
-0.50
-0.63
-0.67
-0.60
-0.45
-0.30
-0.19
-0.08
0.05
0.23
0.45
0.64
0.74
0.71
0.55
0.29
0.01
-0.21
-0.31
-0.29
-0.20
-0.09
-0.03
-0.01
0.02
0.14
0.37
0.67
0.94
1.08
1.03
0.82
0.48
0.08
-0.36
-0.80
-1.16
-1.33
-1.19
-0.66
0.18
1.15
1.93
2.28
2.11
1.53
0.79
0.15
-0.23
-0.38
-0.43
-0.48
-0.56
-0.60
-0.49
-0.21
0.17
0.47
0.58
0.44
0.11
-0.28
-0.63
-0.89
-1.05
-1.13
-1.13
-1.02
-0.81
-0.50
-0.15
0.17
0.42
0.59
0.69
0.78
0.89
1.01
1.09
1.06
0.89
0.61
0.30
0.04
-0.13
-0.22
-0.27
-0.30
-0.30
-0.20
0.06
0.44
0.83
1.05
0.99
0.67
0.23
-0.11
-0.23
-0.15
0.01
0.08
-0.00
-0.19
-0.35
-0.36
-0.19
0.08
0.33
0.48
0.56
0.66
0.85
1.10
1.29
1.26
0.96
0.46
-0.04
-0.34
-0.30
0.05
0.53
0.92
1.02
0.78
0.28
-0.28
-0.69
-0.80
-0.63
-0.31
-0.02
0.07
-0.04
-0.27
-0.49
-0.58
-0.55
-0.44
-0.34
-0.27
-0.20
-0.07
0.15
0.43
0.67
0.79
0.76
0.57
0.32
0.06
-0.12
-0.19
-0.14
0.01
0.17
0.28
0.28
0.20
0.11
0.09
0.19
0.38
0.55
0.55
0.31
-0.13
-0.61
-0.95
-0.99
-0.72
-0.21
0.34
0.79
1.04
1.07
0.89
0.57
0.14
-0.36
-0.85
-1.25
-1.46
-1.43
-1.20
-0.86
-0.54
-0.30
-0.12
0.05
0.27
0.54
0.79
0.94
0.93
0.79
0.61
0.48
0.44
0.49
0.57
0.59
0.50
0.27
-0.05
-0.38
-0.61
-0.64
-0.48
-0.21
0.02
0.07
-0.11
-0.43
-0.74
-0.86
-0.69
-0.28
0.22
0.64
0.87
0.89
0.75
0.55
0.33
0.08
-0.19
-0.46
-0.66
-0.69
-0.51
-0.13
0.31
0.68
0.85
0.77
0.50
0.13
-0.21
-0.46
-0.59
-0.63
-0.62
-0.56
-0.47
-0.33
-0.10
0.19
0.52
0.83
1.06
1.18
1.17
1.07
0.90
0.70
0.51
0.35
0.23
0.18
0.20
0.25
0.29
0.25
0.12
-0.09
-0.35
-0.56
-0.67
-0.67
-0.57
-0.42
-0.23
-0.04
0.17
0.36
0.50
0.54
0.49
0.37
0.26
0.21
0.22
0.27
0.27
0.17
-0.05
-0.34
-0.65
-0.90
-1.09
-1.21
-1.27
-1.29
-1.25
-1.15
-1.02
-0.89
-0.79
-0.75
-0.74
-0.73
-0.64
-0.44
-0.14
0.16
0.33
0.26
-0.11
-0.75
-1.59
-2.53
-3.47
-4.32
-5.02
-5.49
-5.72
-5.74
-5.68
-5.70
-5.96
-6.57
-7.52
-8.66
-9.80
-10.72
-11.30
-11.51
-11.48
-11.38
-11.41
-11.67
-12.18
-12.82
-13.51
-14.18
-14.97
-16.16
-18.10
-21.09
-25.15
-30.02
-35.17
-40.00
-44.13
-47.59
-50.85
-54.61
-59.54
-65.91
-73.46
-81.54
-89.41
-96.53
-102.85
-108.76
-114.87
-121.75
-129.65
-138.35
-147.20
-155.31
-161.64
-165.11
-164.50
-158.58
-146.13
-126.21
-98.39
-62.83
-20.19
28.61
82.44
139.62
197.61
252.83
301.15
339.06
364.90
379.58
386.24
388.99
391.20
394.28
397.31
397.74
392.57
379.56
357.86
328.02
291.53
250.15
205.24
157.40
106.57
52.60
-3.73
-60.03
-112.28
-155.80
-186.77
-203.72
-208.04
-203.34
-193.87
-183.03
-172.44
-162.23
-151.90
-141.37
-131.30
-122.71
-116.21
-111.50
-107.40
-102.53
-96.00
-87.84
-78.97
-70.69
-64.06
-59.42
-56.32
-53.78
-50.76
-46.59
-41.25
-35.30
-29.62
-24.95
-21.62
-19.42
-17.78
-16.09
-14.00
-11.53
-9.00
-6.78
-5.12
-4.01
-3.30
-2.75
-2.24
-1.71
-1.18
-0.69
-0.25
0.11
0.34
0.37
0.18
-0.22
-0.72
-1.18
-1.45
-1.46
-1.22
-0.82
-0.39
-0.03
0.26
0.50
0.75
1.06
1.39
1.67
1.81
1.79
1.66
1.49
1.33
1.18
0.98
0.71
0.40
0.16
0.08
0.20
0.47
0.75
0.90
0.84
0.62
0.30
-0.05
-0.38
-0.70
-1.03
-1.36
-1.65
-1.85
-1.97
-2.00
-2.00
-1.99
-1.97
-1.94
-1.85
-1.69
-1.45
-1.17
-0.85
-0.53
-0.18
0.25
0.81
1.46
2.12
2.61
2.74
2.46
1.86
1.16
0.64
0.46
0.62
0.94
1.21
1.26
1.08
0.77
0.44
0.20
0.04
-0.05
-0.12
-0.20
-0.29
-0.39
-0.50
-0.61
-0.72
-0.81
-0.86
-0.88
-0.89
-0.89
-0.90
-0.88
-0.80
-0.65
-0.44
-0.20
0.04
0.30
0.60
0.97
1.42
1.90
2.31
2.57
2.62
2.49
2.30
2.13
2.02
1.92
1.68
1.21
0.49
-0.36
-1.16
-1.73
-2.04
-2.16
-2.26
-2.49
-2.86
-3.25
-3.50
-3.48
-3.20
-2.78
-2.40
-2.18
-2.14
-2.18
-2.19
-2.09
-1.87
-1.57
-1.19
-0.68
0.04
0.99
2.08
3.12
3.91
4.33
4.41
4.28
4.09
3.92
3.75
3.49
3.10
2.60
2.06
1.59
1.24
1.00
0.80
0.54
0.19
-0.26
-0.70
-1.05
-1.21
-1.18
-1.02
-0.85
-0.75
-0.77
-0.85
-0.90
-0.80
-0.49
-0.04
0.42
0.67
0.54
-0.03
-0.92
-1.83
-2.44
-2.51
-2.06
-1.30
-0.56
-0.10
0.03
-0.04
-0.09
-0.02
0.18
0.34
0.34
0.12
-0.22
-0.53
-0.68
-0.65
-0.50
-0.35
-0.27
-0.29
-0.37
-0.45
-0.51
-0.56
-0.65
-0.83
-1.07
-1.29
-1.33
-1.02
-0.28
0.79
1.96
2.89
3.29
3.10
2.43
1.62
0.95
0.59
0.53
0.59
0.60
0.45
0.19
-0.08
-0.23
-0.23
-0.15
-0.09
-0.15
-0.32
-0.56
-0.76
-0.87
-0.86
-0.76
-0.66
-0.61
-0.67
-0.79
-0.92
-0.96
-0.82
-0.53
-0.17
0.16
0.40
0.56
0.74
1.02
1.38
1.67
1.72
1.43
0.85
0.19
-0.32
-0.55
-0.53
-0.40
-0.32
-0.33
-0.41
-0.46
-0.45
-0.39
-0.34
-0.36
-0.45
-0.56
-0.61
-0.58
-0.45
-0.29
-0.18
-0.18
-0.34
-0.61
-0.91
-1.09
-1.06
-0.77
-0.31
0.19
0.59
0.87
1.08
1.38
1.86
2.49
3.11
3.46
3.35
2.76
1.85
0.92
0.22
-0.14
-0.24
-0.28
-0.41
-0.67
-0.97
-1.18
-1.21
-1.08
-0.90
-0.77
-0.72
-0.72
-0.73
-0.70
-0.66
-0.66
-0.72
-0.87
-1.06
-1.24
-1.34
-1.34
-1.23
-1.06
-0.87
-0.71
-0.57
-0.38
-0.07
0.40
0.97
1.52
1.88
1.95
1.76
1.46
1.25
1.23
1.38
1.53
1.50
1.14
0.52
-0.19
-0.75
-1.03
-1.04
-0.94
-0.93
-1.15
-1.56
-1.97
-2.17
-2.04
-1.63
-1.15
-0.81
-0.77
-0.97
-1.23
-1.39
-1.36
-1.20
-1.00
-0.78
-0.41
0.29
1.40
2.77
4.00
4.65
4.46
3.46
2.01
0.55
-0.56
-1.18
-1.38
-1.30
-1.06
-0.66
-0.12
0.51
1.15
1.61
1.77
1.57
1.09
0.45
-0.18
-0.68
-0.96
-1.05
-1.00
-0.87
-0.76
-0.71
-0.71
-0.73
-0.71
-0.64
-0.55
-0.51
-0.59
-0.79
-0.98
-0.95
-0.56
0.18
1.08
1.80
2.05
1.74
1.02
0.20
-0.42
-0.70
-0.67
-0.51
-0.44
-0.54
-0.79
-1.08
-1.26
-1.26
-1.12
-0.94
-0.86
-0.96
-1.23
-1.56
-1.80
-1.84
-1.66
-1.35
-1.03
-0.81
-0.73
-0.76
-0.83
-0.86
-0.80
-0.58
-0.16
0.48
1.25
2.00
2.51
2.61
2.27
1.66
1.05
0.74
0.90
1.46
2.22
2.88
3.21
3.12
2.66
2.02
1.40
0.96
0.75
0.74
0.78
0.75
0.55
0.19
-0.27
-0.68
-0.93
-0.99
-0.91
-0.80
-0.78
-0.88
-1.06
-1.24
-1.33
-1.32
-1.26
-1.17
-1.00
-0.66
-0.04
0.82
1.74
2.42
2.61
2.25
1.49
0.64
0.01
-0.27
-0.27
-0.15
-0.11
-0.24
-0.52
-0.86
-1.20
-1.50
-1.77
-2.02
-2.24
-2.40
-2.44
-2.32
-2.05
-1.68
-1.30
-0.97
-0.78
-0.74
-0.80
-0.88
-0.91
-0.83
-0.64
-0.41
-0.17
0.06
0.35
0.83
1.58
2.61
3.78
4.80
5.42
5.47
5.00
4.21
3.42
2.82
2.49
2.28
2.01
1.53
0.87
0.17
-0.39
-0.68
-0.75
-0.76
-0.90
-1.28
-1.85
-2.44
-2.85
-2.91
-2.61
-2.08
-1.52
-1.11
-0.94
-1.00
-1.19
-1.38
-1.47
-1.39
-1.11
-0.66
-0.11
0.41
0.74
0.78
0.53
0.15
-0.13
-0.11
0.28
0.90
1.47
1.73
1.57
1.10
0.52
0.09
-0.10
-0.07
-0.00
-0.04
-0.24
-0.56
-0.84
-0.99
-0.94
-0.77
-0.60
-0.52
-0.58
-0.74
-0.93
-1.08
-1.14
-1.10
-1.01
-0.91
-0.79
-0.62
-0.32
0.20
0.94
1.79
2.56
2.99
2.96
2.53
1.91
1.40
1.20
1.31
1.57
1.73
1.67
1.37
0.99
0.64
0.40
0.25
0.09
-0.14
-0.45
-0.76
-1.00
-1.14
-1.22
-1.31
-1.52
-1.88
-2.31
-2.70
-2.88
-2.76
-2.34
-1.71
-1.02
-0.42
0.02
0.30
0.42
0.42
0.31
0.10
-0.14
-0.30
-0.27
0.00
0.46
0.95
1.33
1.49
1.43
1.26
1.07
0.95
0.91
0.91
0.90
0.83
0.67
0.41
0.05
-0.39
-0.87
-1.32
-1.64
-1.79
-1.80
-1.73
-1.68
-1.70
-1.75
-1.75
-1.59
-1.20
-0.63
0.05
0.72
1.34
1.87
2.32
2.66
2.80
2.65
2.21
1.59
1.00
0.61
0.51
0.62
0.79
0.88
0.84
0.71
0.56
0.41
0.22
-0.06
-0.44
-0.82
-1.08
-1.16
-1.10
-1.01
-0.99
-1.06
-1.17
-1.20
-1.11
-0.94
-0.81
-0.83
-1.01
-1.27
-1.46
-1.40
-1.04
-0.42
0.29
0.86
1.12
1.03
0.67
0.25
-0.01
0.00
0.24
0.54
0.71
0.63
0.33
-0.06
-0.40
-0.59
-0.62
-0.56
-0.50
-0.49
-0.51
-0.52
-0.45
-0.26
0.04
0.40
0.71
0.87
0.79
0.49
0.05
-0.42
-0.79
-1.00
-1.02
-0.82
-0.35
0.41
1.42
2.44
3.16
3.31
2.86
2.03
1.22
0.79
0.82
1.11
1.28
1.04
0.35
-0.54
-1.29
-1.66
-1.60
-1.33
-1.08
-1.04
-1.20
-1.45
-1.61
-1.55
-1.28
-0.86
-0.47
-0.25
-0.25
-0.45
-0.71
-0.91
-0.94
-0.84
-0.70
-0.60
-0.56
-0.50
-0.28
0.16
0.78
1.41
1.86
2.03
1.95
1.76
1.58
1.43
1.24
0.90
0.34
-0.40
-1.15
-1.79
-2.23
-2.50
-2.68
-2.86
-3.07
-3.28
-3.44
-3.52
-3.48
-3.31
-3.03
-2.67
-2.30
-1.99
-1.75
-1.56
-1.32
-0.96
-0.43
0.27
1.11
2.05
3.02
3.93
4.64
5.01
4.96
4.57
4.06
3.65
3.52
3.64
3.82
3.82
3.50
2.86
2.07
1.33
0.81
0.55
0.50
0.51
0.44
0.15
-0.36
-0.99
-1.56
-1.93
-2.04
-1.94
-1.76
-1.59
-1.49
-1.41
-1.34
-1.25
-1.20
-1.23
-1.36
-1.52
-1.59
-1.44
-0.98
-0.26
0.59
1.34
1.81
1.91
1.69
1.36
1.11
1.08
1.24
1.44
1.47
1.15
0.47
-0.45
-1.36
-2.08
-2.47
-2.59
-2.53
-2.42
-2.30
-2.16
-1.91
-1.52
-1.03
-0.57
-0.27
-0.22
-0.40
-0.70
-0.96
-1.03
-0.85
-0.43
0.16
0.81
1.41
1.87
2.16
2.25
2.18
2.00
1.77
1.57
1.47
1.49
1.59
1.70
1.72
1.59
1.33
1.00
0.70
0.48
0.34
0.25
0.14
0.02
-0.11
-0.26
-0.44
-0.70
-1.07
-1.51
-1.92
-2.18
-2.22
-2.08
-1.86
-1.67
-1.58
-1.55
-1.47
-1.22
-0.75
-0.07
0.70
1.44
1.98
2.23
2.16
1.79
1.27
0.75
0.34
0.10
-0.02
-0.10
-0.23
-0.40
-0.56
-0.63
-0.56
-0.40
-0.28
-0.35
-0.71
-1.33
-2.08
-2.75
-3.13
-3.10
-2.73
-2.19
-1.74
-1.60
-1.86
-2.44
-3.17
-3.80
-4.10
-3.85
-2.96
-1.46
0.45
2.42
4.07
5.14
5.56
5.52
5.36
5.37
5.67
6.17
6.62
6.82
6.64
6.14
5.42
4.58
3.70
2.79
1.86
0.92
-0.02
-0.92
-1.73
-2.41
-2.92
-3.24
-3.38
-3.39
-3.36
-3.38
-3.48
-3.63
-3.74
-3.71
-3.50
-3.12
-2.65
-2.19
-1.77
-1.41
-1.04
-0.63
-0.21
0.18
0.43
0.49
0.36
0.11
-0.15
-0.33
-0.37
-0.27
-0.12
0.02
0.08
0.07
0.03
-0.01
-0.01
0.03
0.08
0.08
0.03
-0.08
-0.22
-0.36
-0.48
-0.55
-0.57
-0.47
-0.18
0.38
1.21
2.18
3.08
3.70
3.89
3.67
3.19
2.67
2.26
1.97
1.70
1.32
0.79
0.19
-0.31
-0.58
-0.59
-0.44
-0.31
-0.34
-0.55
-0.87
-1.14
-1.26
-1.18
-0.97
-0.77
-0.68
-0.71
-0.79
-0.82
-0.74
-0.54
-0.29
-0.07
0.04
-0.00
-0.17
-0.39
-0.61
-0.72
-0.65
-0.37
0.06
0.52
0.84
0.92
0.72
0.33
-0.15
-0.56
-0.86
-1.01
-1.04
-0.96
-0.82
-0.63
-0.46
-0.35
-0.35
-0.42
-0.52
-0.56
-0.47
-0.25
0.02
0.26
0.36
0.28
0.06
-0.22
-0.44
-0.54
-0.45
-0.16
0.32
0.95
1.65
2.29
2.70
2.77
2.45
1.84
1.09
0.41
-0.05
-0.22
-0.15
0.06
0.27
0.37
0.33
0.16
-0.06
-0.29
-0.50
-0.75
-1.05
-1.40
-1.71
-1.82
-1.66
-1.23
-0.65
-0.16
0.08
-0.00
-0.36
-0.82
-1.22
-1.45
-1.46
-1.26
-0.86
-0.31
0.29
0.83
1.21
1.36
1.32
1.18
1.11
1.21
1.46
1.76
1.92
1.83
1.46
0.88
0.27
-0.27
-0.67
-0.97
-1.25
-1.56
-1.91
-2.26
-2.52
-2.66
-2.67
-2.62
-2.55
-2.52
-2.47
-2.35
-2.06
-1.59
-0.96
-0.26
0.43
1.07
1.67
2.21
2.64
2.88
2.87
2.63
2.24
1.88
1.63
1.52
1.47
1.39
1.24
1.04
0.89
0.83
0.84
0.83
0.71
0.43
0.03
-0.41
-0.80
-1.11
-1.30
-1.37
-1.32
-1.15
-0.92
-0.68
-0.49
-0.38
-0.32
-0.28
-0.19
-0.10
-0.04
-0.07
-0.19
-0.30
-0.28
-0.07
0.32
0.78
1.19
1.47
1.61
1.67
1.68
1.64
1.48
1.16
0.66
0.03
-0.59
-1.10
-1.42
-1.60
-1.74
-1.93
-2.20
-2.48
-2.64
-2.58
-2.28
-1.83
-1.42
-1.23
-1.27
-1.47
-1.59
-1.43
-0.86
0.10
1.31
2.52
3.42
3.73
3.30
2.22
0.82
-0.43
-1.07
-0.94
-0.18
0.80
1.55
1.81
1.59
1.14
0.74
0.55
0.58
0.72
0.86
0.90
0.83
0.64
0.36
0.02
-0.35
-0.71
-1.02
-1.26
-1.40
-1.40
-1.24
-0.88
-0.40
0.10
0.49
0.70
0.74
0.72
0.72
0.79
0.84
0.76
0.50
0.05
-0.44
-0.81
-0.94
-0.79
-0.46
-0.10
0.16
0.22
0.09
-0.14
-0.40
-0.63
-0.84
-1.08
-1.36
-1.63
-1.79
-1.75
-1.52
-1.20
-0.97
-0.97
-1.22
-1.60
-1.91
-1.96
-1.65
-0.99
-0.05
1.06
2.22
3.30
4.18
4.73
4.90
4.68
4.20
3.60
3.05
2.65
2.45
2.37
2.33
2.22
1.97
1.57
1.04
0.43
-0.22
-0.82
-1.31
-1.64
-1.78
-1.77
-1.68
-1.60
-1.61
-1.74
-2.00
-2.34
-2.70
-3.03
-3.22
-3.19
-2.89
-2.31
-1.55
-0.78
-0.18
0.09
0.03
-0.24
-0.53
-0.64
-0.49
-0.12
0.33
0.69
0.86
0.86
0.79
0.74
0.77
0.85
0.85
0.69
0.33
-0.19
-0.77
-1.27
-1.58
-1.65
-1.48
-1.16
-0.81
-0.54
-0.46
-0.58
-0.82
-1.04
-1.07
-0.79
-0.15
0.76
1.76
2.68
3.40
3.89
4.16
4.27
4.24
4.07
3.74
3.26
2.63
1.92
1.17
0.42
-0.30
-0.97
-1.56
-2.02
-2.33
-2.47
-2.47
-2.35
-2.14
-1.90
-1.69
-1.56
-1.52
-1.51
-1.44
-1.20
-0.76
-0.17
0.45
0.95
1.25
1.34
1.30
1.25
1.27
1.37
1.53
1.66
1.71
1.64
1.43
1.10
0.64
0.08
-0.54
-1.15
-1.67
-2.03
-2.18
-2.16
-2.04
-1.92
-1.88
-1.94
-2.03
-2.07
-1.98
-1.74
-1.39
-0.99
-0.60
-0.26
0.04
0.34
0.71
1.18
1.76
2.37
2.87
3.11
2.97
2.46
1.68
0.80
0.03
-0.52
-0.83
-0.95
-0.98
-0.99
-1.04
-1.14
-1.29
-1.43
-1.53
-1.57
-1.57
-1.56
-1.56
-1.53
-1.42
-1.17
-0.83
-0.50
-0.34
-0.43
-0.73
-1.09
-1.31
-1.23
-0.85
-0.24
0.46
1.12
1.66
2.02
2.15
2.05
1.75
1.36
1.04
0.94
1.17
1.66
2.23
2.65
2.75
2.47
1.91
1.25
0.66
0.16
-0.30
-0.83
-1.47
-2.12
-2.61
-2.79
-2.65
-2.33
-2.05
-1.93
-2.00
-2.08
-2.00
-1.62
-0.94
-0.05
0.93
1.85
2.58
3.00
3.03
2.69
2.13
1.61
1.37
1.50
1.86
2.18
2.20
1.81
1.13
0.39
-0.15
-0.41
-0.49
-0.57
-0.80
-1.24
-1.77
-2.22
-2.43
-2.35
-2.04
-1.62
-1.24
-0.97
-0.81
-0.69
-0.55
-0.40
-0.30
-0.34
-0.54
-0.81
-0.97
-0.81
-0.26
0.62
1.57
2.33
2.73
2.76
2.56
2.31
2.13
2.03
1.92
1.69
1.28
0.73
0.14
-0.36
-0.70
-0.87
-0.97
-1.08
-1.26
-1.48
-1.66
-1.73
-1.68
-1.57
-1.46
-1.40
-1.35
-1.20
-0.86
-0.33
0.30
0.91
1.41
1.80
2.11
2.38
2.54
2.50
2.18
1.56
0.74
-0.08
-0.73
-1.09
-1.18
-1.11
-1.02
-0.98
-0.98
-0.92
-0.75
-0.46
-0.14
0.10
0.18
0.11
-0.02
-0.13
-0.18
-0.23
-0.34
-0.59
-0.95
-1.35
-1.66
-1.82
-1.82
-1.70
-1.53
-1.34
-1.17
-0.96
-0.70
-0.35
0.09
0.58
1.03
1.33
1.43
1.32
1.10
0.92
0.90
1.06
1.30
1.41
1.22
0.67
-0.10
-0.85
-1.32
-1.42
-1.20
-0.89
-0.75
-0.91
-1.29
-1.72
-1.98
-1.97
-1.73
-1.40
-1.11
-0.92
-0.79
-0.62
-0.37
-0.07
0.22
0.46
0.68
0.98
1.44
2.05
2.71
3.23
3.45
3.31
2.91
2.44
2.07
1.85
1.75
1.65
1.48
1.23
0.99
0.81
0.71
0.61
0.39
-0.03
-0.58
-1.10
-1.41
-1.38
-1.04
-0.53
-0.08
0.15
0.11
-0.14
-0.49
-0.83
-1.11
-1.29
-1.37
-1.32
-1.09
-0.62
0.06
0.83
1.49
1.88
1.90
1.63
1.26
1.01
1.00
1.17
1.33
1.27
0.90
0.31
-0.28
-0.65
-0.68
-0.43
-0.09
0.15
0.19
0.03
-0.22
-0.49
-0.72
-0.95
-1.19
-1.41
-1.55
-1.55
-1.39
-1.13
-0.87
-0.69
-0.60
-0.56
-0.50
-0.34
-0.05
0.35
0.81
1.21
1.44
1.42
1.12
0.62
0.05
-0.41
-0.66
-0.67
-0.54
-0.40
-0.38
-0.56
-0.93
-1.43
-1.95
-2.35
-2.52
-2.42
-2.13
-1.85
-1.75
-1.94
-2.37
-2.85
-3.19
-3.28
-3.21
-3.09
-3.06
-3.11
-3.11
-2.94
-2.60
-2.23
-2.09
-2.41
-3.23
-4.41
-5.68
-6.78
-7.57
-8.09
-8.55
-9.27
-10.52
-12.50
-15.21
-18.42
-21.70
-24.53
-26.44
-27.23
-27.11
-26.61
-26.48
-27.37
-29.55
-32.89
-36.87
-40.93
-44.75
-48.41
-52.38
-57.25
-63.43
-70.90
-79.20
-87.56
-95.19
-101.61
-106.88
-111.62
-116.95
-124.21
-134.63
-148.70
-165.58
-182.76
-196.25
-201.65
-195.48
-176.56
-146.31
-108.02
-65.39
-20.75
25.44
73.99
125.38
178.44
230.06
276.07
312.56
336.74
347.10
343.07
324.95
294.11
253.42
207.27
160.80
118.69
83.90
57.27
37.97
24.51
15.59
10.28
7.84
7.29
7.56
7.79
7.78
8.01
9.29
12.26
16.91
22.48
27.80
31.73
33.65
33.77
32.93
32.30
32.77
34.42
36.30
36.65
33.57
25.98
14.30
0.52
-12.46
-22.08
-27.13
-28.22
-27.22
-26.13
-26.03
-26.83
-27.62
-27.58
-26.59
-25.25
-24.39
-24.46
-25.17
-25.75
-25.39
-23.72
-20.98
-17.88
-15.12
-13.19
-12.17
-11.82
-11.75
-11.59
-11.10
-10.19
-8.95
-7.67
-6.71
-6.45
-7.13
-8.64
-10.59
-12.38
-13.50
-13.73
-13.24
-12.52
-12.06
-12.12
-12.58
-13.00
-12.80
-11.63
-9.56
-7.12
-5.16
-4.47
-5.42
-7.71
-10.38
-12.20
-12.19
-10.16
-6.90
-3.89
-2.67
-4.08
-7.77
-12.22
-15.48
-15.95
-13.20
-8.19
-2.90
0.40
-0.05
-4.97
-13.63
-23.68
-31.33
-32.26
-23.03
-2.76
26.08
58.03
86.50
106.14
114.59
112.91
104.58
93.59
82.65
72.28
61.12
47.19
29.34
8.27
-13.43
-32.03
-44.13
-48.10
-45.29
-40.05
-38.53
-46.54
-67.31
-100.13
-140.46
-181.49
-216.69
-242.06
-257.32
-265.23
-269.55
-272.60
-273.73
-269.82
-257.12
-233.35
-198.85
-156.16
-108.58
-58.97
-9.39
38.42
82.18
118.83
145.15
159.11
160.93
153.32
140.57
127.10
116.23
109.38
106.26
105.38
104.88
103.31
99.99
95.18
89.82
85.02
81.56
79.66
78.98
78.86
78.65
77.89
76.40
74.21
71.52
68.69
66.23
64.77
64.82
66.57
69.73
73.57
77.22
80.12
82.33
84.58
87.94
93.25
100.71
109.62
118.72
126.76
133.03
137.75
141.94
146.97
154.10
164.09
176.97
192.04
207.76
221.83
231.39
233.53
226.12
208.43
181.39
147.20
108.35
66.68
22.83
-23.38
-71.79
-120.81
-167.02
-205.94
-233.58
-248.05
-250.29
-243.52
-231.92
-218.94
-206.49
-194.93
-183.95
-173.44
-163.90
-156.18
-150.87
-147.85
-146.23
-144.87
-142.96
-140.44
-138.00
-136.69
-137.33
-140.13
-144.51
-149.31
-153.15
-154.91
-154.06
-150.83
-146.01
-140.75
-136.15
-133.05
-131.93
-132.89
-135.87
-140.83
-147.89
-157.16
-168.38
-180.27
-190.39
-195.39
-191.95
-177.92
-153.06
-118.94
-78.04
-32.71
15.35
64.66
113.19
157.71
194.23
219.27
231.39
231.88
224.20
212.52
200.06
188.34
177.37
166.52
155.47
144.55
134.47
125.82
118.65
112.57
107.01
101.63
96.40
91.68
87.86
85.17
83.55
82.69
82.15
81.51
80.50
79.07
77.42
75.96
75.23
75.74
77.72
81.03
85.17
89.48
93.45
96.95
100.20
103.56
107.30
111.50
116.19
121.65
128.40
136.81
146.27
154.69
158.73
155.09
142.20
121.43
96.98
74.28
57.78
49.41
48.36
52.11
57.84
63.11
65.70
62.93
51.61
29.03
-5.29
-48.28
-93.75
-134.50
-165.27
-184.63
-194.98
-200.64
-205.32
-210.46
-215.23
-217.95
-217.52
-214.20
-209.09
-203.16
-196.51
-188.59
-179.09
-168.63
-158.89
-151.72
-148.19
-148.02
-149.81
-151.89
-153.03
-152.98
-152.20
-151.40
-151.22
-152.04
-154.10
-157.52
-162.00
-166.29
-168.15
-164.56
-152.69
-130.82
-98.92
-58.28
-10.69
42.33
99.49
158.90
217.32
270.06
312.11
340.05
353.45
355.33
350.89
345.60
343.30
345.21
349.96
354.34
354.55
347.20
330.15
302.90
266.53
222.97
174.21
121.68
66.30
9.40
-46.52
-97.54
-139.14
-167.76
-182.23
-184.24
-177.69
-167.02
-155.76
-145.70
-136.93
-128.71
-120.47
-112.43
-105.62
-101.32
-100.24
-101.95
-104.81
-106.50
-104.98
-99.45
-90.73
-80.89
-72.31
-66.60
-63.93
-63.13
-62.34
-59.95
-55.23
-48.44
-40.50
-32.60
-25.67
-20.33
-16.98
-15.97
-17.41
-20.61
-23.50
-22.58
-13.99
4.71
33.02
66.93
100.15
126.59
142.68
148.38
146.12
138.52
126.69
110.12
88.10
61.58
33.71
8.73
-10.08
-22.09
-29.24
-34.57
-40.24
-46.44
-51.58
-53.66
-51.70
-46.26
-39.12
-32.24
-26.97
-23.68
-22.10
-21.52
-21.22
-20.78
-20.06
-19.16
-18.33
-17.72
-17.37
-17.13
-16.76
-16.14
-15.29
-14.38
-13.62
-13.15
-12.96
-12.97
-13.03
-13.00
-12.77
-12.27
-11.45
-10.31
-8.93
-7.43
-5.99
-4.74
-3.74
-2.99
-2.41
-1.97
-1.65
-1.51
-1.58
-1.86
-2.30
-2.78
-3.18
-3.43
-3.55
-3.61
-3.70
-3.86
-4.12
-4.42
-4.66
-4.74
-4.61
-4.32
-3.95
-3.62
-3.41
-3.31
-3.23
-3.09
-2.84
-2.50
-2.16
-1.88
-1.69
-1.55
-1.39
-1.15
-0.83
-0.46
-0.12
0.11
0.22
0.22
0.18
0.17
0.27
0.53
0.99
1.63
2.33
2.94
3.30
3.31
2.96
2.39
1.79
1.32
1.02
0.84
0.66
0.38
0.02
-0.32
-0.50
-0.45
-0.23
0.03
0.18
0.17
0.03
-0.12
-0.18
-0.11
0.05
0.22
0.31
0.28
0.13
-0.13
-0.47
-0.87
-1.25
-1.46
-1.36
-0.82
0.15
1.38
2.58
3.42
3.67
3.30
2.47
1.45
0.56
0.02
-0.06
0.27
0.86
1.48
1.94
2.12
1.97
1.58
1.07
0.62
0.31
0.18
0.16
0.19
0.19
0.14
0.07
-0.05
-0.23
-0.51
-0.92
-1.43
-1.96
-2.40
-2.65
-2.66
-2.48
-2.20
-1.91
-1.66
-1.43
-1.16
-0.79
-0.31
0.21
0.64
0.86
0.76
0.39
