1660930383.00
64.000000
-0.00
-0.00
-0.00
-0.00
-0.00
-0.00
-0.00
-0.00
-0.00
-0.00
0.00
0.01
0.01
-0.00
-0.03
-0.05
-0.05
0.00
0.13
0.36
0.66
1.01
1.37
1.72
2.06
2.40
2.79
3.25
3.81
4.44
5.09
5.73
6.32
6.91
7.53
8.27
9.15
10.24
11.44
12.63
13.70
14.64
15.53
16.55
17.91
19.74
22.22
25.13
28.20
31.15
33.86
36.47
39.32
42.84
47.30
53.00
59.53
66.37
73.00
79.20
85.18
91.50
98.84
107.59
118.09
129.68
141.52
152.88
163.46
173.64
184.22
196.51
208.90
223.24
239.78
258.51
278.45
297.21
311.01
315.58
307.48
285.36
250.90
207.34
158.79
108.80
59.54
12.04
-33.38
-76.46
-116.93
-154.48
-189.84
-224.39
-259.75
-296.80
-334.65
-370.33
-399.26
-416.90
-420.32
-409.60
-387.81
-359.76
-330.18
-302.16
-276.70
-253.28
-231.03
-209.45
-188.87
-169.93
-152.98
-137.79
-123.66
-109.84
-95.94
-82.10
-68.91
-57.04
-46.95
-38.64
-31.64
-25.27
-18.93
-12.36
-5.73
0.48
5.81
9.95
12.97
15.19
17.05
18.88
20.79
22.66
24.26
25.41
26.08
26.39
26.48
26.49
26.45
26.34
26.10
25.66
24.99
24.08
22.99
21.79
20.67
19.78
19.25
19.10
19.18
19.30
19.23
18.87
18.21
17.37
16.49
15.67
14.99
14.45
14.03
13.68
13.41
13.17
12.96
12.73
12.45
12.11
11.69
11.22
10.76
10.36
10.04
9.80
9.61
9.43
9.22
8.98
8.69
8.40
8.10
7.78
7.41
6.97
6.49
6.03
5.71
5.60
5.70
5.91
6.10
6.14
5.94
5.52
4.95
4.33
3.77
3.31
2.95
2.66
2.38
2.07
1.72
1.35
1.01
0.73
0.49
0.27
-0.00
-0.38
-0.89
-1.55
-2.34
-3.17
-3.97
-4.65
-5.15
-5.49
-5.75
-6.01
-6.31
-6.63
-6.88
-6.97
-6.89
-6.73
-6.62
-6.67
-6.89
-7.20
-7.48
-7.58
-7.44
-7.04
-6.46
-5.79
-5.13
-4.53
-4.01
-3.53
-3.06
-2.56
-2.05
-1.55
-1.09
-0.67
-0.27
0.12
0.52
0.91
1.26
1.57
1.82
2.02
2.19
2.34
2.46
2.57
2.66
2.70
2.69
2.64
2.60
2.62
2.76
3.00
3.28
3.53
3.70
3.78
3.80
3.79
3.76
3.70
3.59
3.41
3.23
3.12
3.15
3.37
3.73
4.14
4.47
4.63
4.59
4.41
4.19
4.03
3.98
4.03
4.12
4.19
4.20
4.15
4.02
3.82
3.53
3.16
2.76
2.41
2.17
2.09
2.15
2.29
2.44
2.53
2.52
2.42
2.24
2.05
1.93
1.95
2.15
2.48
2.85
3.14
3.26
3.15
2.85
2.45
2.05
1.74
1.55
1.44
1.33
1.16
0.91
0.65
0.46
0.43
0.55
0.76
0.96
1.10
1.18
1.26
1.37
1.50
1.55
1.47
1.23
0.91
0.62
0.42
0.34
0.35
0.42
0.53
0.70
0.92
1.14
1.26
1.18
0.85
0.34
-0.17
-0.48
-0.44
-0.03
0.59
1.24
1.72
1.92
1.87
1.69
1.47
1.26
1.06
0.86
0.66
0.53
0.50
0.60
0.75
0.86
0.88
0.83
0.79
0.86
1.08
1.39
1.68
1.79
1.69
1.40
1.07
0.86
0.85
1.00
1.22
1.35
1.31
1.10
0.82
0.57
0.42
0.40
0.46
0.55
0.64
0.72
0.80
0.85
0.85
0.80
0.70
0.59
0.55
0.59
0.69
0.79
0.82
0.73
0.55
0.34
0.18
0.11
0.14
0.22
0.31
0.36
0.38
0.42
0.47
0.54
0.56
0.51
0.39
0.27
0.21
0.27
0.41
0.55
0.59
0.48
0.22
-0.09
-0.35
-0.47
-0.39
-0.14
0.18
0.43
0.52
0.45
0.26
0.10
0.05
0.14
0.32
0.52
0.70
0.84
0.94
0.99
0.93
0.74
0.42
0.08
-0.15
-0.16
0.05
0.38
0.67
0.80
0.75
0.58
0.42
0.35
0.38
0.43
0.43
0.29
0.05
-0.22
-0.37
-0.33
-0.10
0.23
0.54
0.72
0.73
0.60
0.42
0.25
0.11
-0.00
-0.12
-0.26
-0.36
-0.34
-0.16
0.16
0.51
0.77
0.82
0.65
0.36
0.13
0.11
0.39
0.90
1.46
1.86
1.96
1.71
1.22
0.64
0.13
-0.26
-0.52
-0.72
-0.86
-0.93
-0.85
-0.59
-0.20
0.22
0.55
0.74
0.80
0.82
0.86
0.92
0.92
0.77
0.48
0.11
-0.21
-0.39
-0.42
-0.38
-0.36
-0.42
-0.48
-0.46
-0.26
0.13
0.61
1.03
1.23
1.17
0.85
0.41
-0.03
-0.34
-0.46
-0.37
-0.14
0.15
0.39
0.50
0.43
0.18
-0.18
-0.56
-0.86
-1.04
-1.07
-1.02
-0.92
-0.82
-0.69
-0.50
-0.22
0.13
0.48
0.71
0.79
0.71
0.54
0.35
0.18
0.07
0.01
0.01
0.06
0.15
0.24
0.28
0.27
0.22
0.19
0.22
0.34
0.50
0.62
0.62
0.46
0.17
-0.21
-0.59
-0.95
-1.27
-1.54
-1.77
-1.94
-2.04
-2.04
-1.94
-1.75
-1.53
-1.31
-1.15
-1.06
-1.03
-1.04
-1.05
-1.01
-0.90
-0.73
-0.56
-0.44
-0.40
-0.40
-0.35
-0.17
0.18
0.64
1.09
1.41
1.55
1.54
1.49
1.48
1.55
1.61
1.57
1.39
1.13
0.93
0.91
1.09
1.40
1.68
1.81
1.75
1.54
1.29
1.07
0.92
0.82
0.78
0.79
0.86
0.98
1.10
1.16
1.12
0.97
0.76
0.55
0.38
0.30
0.26
0.22
0.10
-0.14
-0.49
-0.91
-1.30
-1.59
-1.81
-2.04
-2.40
-2.95
-3.65
-4.39
-5.06
-5.61
-6.10
-6.58
-7.11
-7.65
-8.13
-8.54
-8.95
-9.53
-10.46
-11.87
-13.72
-15.83
-17.96
-19.89
-21.54
-22.96
-24.37
-26.04
-28.25
-31.19
-34.84
-39.04
-43.56
-48.20
-52.88
-57.70
-62.83
-68.42
-74.52
-81.04
-87.74
-94.44
-101.09
-107.81
-114.81
-122.24
-130.10
-138.33
-146.99
-156.33
-166.44
-176.68
-185.13
-188.67
-183.70
-167.46
-139.06
-99.78
-52.36
0.02
54.54
108.68
159.90
205.27
241.87
267.76
282.91
289.44
290.83
290.59
291.00
292.80
295.56
298.41
300.90
303.16
305.74
309.07
312.96
316.14
316.33
310.67
296.62
272.84
239.69
198.90
152.64
102.56
49.55
-5.60
-61.02
-113.13
-157.06
-188.32
-204.73
-207.43
-200.44
-188.89
-176.95
-166.67
-157.96
-149.67
-140.91
-131.67
-122.73
-114.94
-108.57
-103.18
-97.91
-92.01
-85.14
-77.57
-69.96
-62.95
-56.95
-51.99
-47.73
-43.71
-39.55
-35.15
-30.68
-26.53
-23.04
-20.35
-18.33
-16.63
-14.84
-12.74
-10.34
-7.89
-5.72
-4.07
-2.99
-2.37
-2.00
-1.66
-1.20
-0.53
0.35
1.36
2.39
3.26
3.79
3.85
3.40
2.49
1.31
0.08
-0.99
-1.76
-2.19
-2.32
-2.24
-2.05
-1.83
-1.64
-1.51
-1.48
-1.53
-1.65
-1.81
-1.96
-2.07
-2.12
-2.09
-1.98
-1.79
-1.52
-1.21
-0.94
-0.74
-0.61
-0.50
-0.32
-0.05
0.26
0.48
0.49
0.24
-0.20
-0.67
-1.00
-1.05
-0.82
-0.42
0.02
0.34
0.47
0.42
0.23
-0.04
-0.37
-0.70
-1.00
-1.20
-1.23
-1.05
-0.71
-0.31
0.00
0.12
0.07
-0.03
-0.03
0.14
0.44
0.72
0.79
0.61
0.26
-0.10
-0.31
-0.33
-0.24
-0.19
-0.29
-0.52
-0.78
-0.92
-0.82
-0.49
-0.02
0.43
0.75
0.87
0.82
0.67
0.49
0.34
0.22
0.12
0.01
-0.09
-0.13
-0.08
0.05
0.22
0.37
0.43
0.38
0.25
0.10
-0.04
-0.09
-0.04
0.10
0.28
0.42
0.45
0.34
0.07
-0.29
-0.68
-1.02
-1.24
-1.31
-1.24
-1.07
-0.88
-0.71
-0.62
-0.57
-0.48
-0.33
-0.14
-0.04
-0.09
-0.33
-0.64
-0.86
-0.86
-0.64
-0.32
-0.05
0.04
-0.01
-0.09
-0.07
0.12
0.46
0.82
1.12
1.30
1.41
1.49
1.59
1.68
1.70
1.54
1.17
0.63
0.04
-0.38
-0.50
-0.30
0.09
0.43
0.54
0.33
-0.10
-0.57
-0.87
-0.94
-0.83
-0.70
-0.69
-0.82
-0.97
-0.99
-0.80
-0.45
-0.09
0.11
0.10
-0.06
-0.20
-0.20
-0.01
0.28
0.52
0.59
0.48
0.29
0.17
0.22
0.45
0.75
0.94
0.89
0.60
0.17
-0.21
-0.39
-0.37
-0.23
-0.15
-0.22
-0.43
-0.68
-0.84
-0.83
-0.70
-0.53
-0.43
-0.43
-0.52
-0.62
-0.67
-0.62
-0.49
-0.31
-0.15
-0.02
0.08
0.21
0.41
0.70
1.03
1.30
1.40
1.31
1.04
0.71
0.42
0.27
0.25
0.32
0.41
0.44
0.38
0.26
0.15
0.14
0.23
0.34
0.34
0.14
-0.28
-0.79
-1.22
-1.39
-1.28
-0.98
-0.71
-0.62
-0.77
-1.10
-1.42
-1.56
-1.43
-1.02
-0.42
0.26
0.92
1.46
1.78
1.84
1.60
1.11
0.47
-0.17
-0.68
-0.94
-0.94
-0.71
-0.33
0.12
0.52
0.78
0.82
0.62
0.28
-0.06
-0.26
-0.24
-0.07
0.14
0.25
0.22
0.10
0.01
0.02
0.14
0.34
0.55
0.77
1.01
1.30
1.63
1.93
2.08
1.98
1.61
1.04
0.40
-0.14
-0.45
-0.51
-0.36
-0.13
0.06
0.08
-0.09
-0.44
-0.86
-1.26
-1.57
-1.75
-1.83
-1.81
-1.73
-1.61
-1.46
-1.30
-1.16
-1.07
-1.05
-1.07
-1.05
-0.94
-0.68
-0.30
0.14
0.56
0.87
1.07
1.18
1.26
1.35
1.43
1.44
1.32
1.05
0.67
0.29
0.00
-0.13
-0.14
-0.11
-0.12
-0.27
-0.53
-0.85
-1.16
-1.38
-1.50
-1.49
-1.35
-1.11
-0.77
-0.36
0.06
0.41
0.61
0.64
0.53
0.41
0.41
0.62
1.05
1.62
2.18
2.59
2.71
2.53
2.08
1.46
0.80
0.21
-0.26
-0.57
-0.73
-0.76
-0.74
-0.70
-0.68
-0.71
-0.78
-0.88
-0.97
-1.03
-1.04
-0.98
-0.86
-0.72
-0.61
-0.57
-0.60
-0.70
-0.82
-0.95
-1.03
-1.05
-0.99
-0.82
-0.53
-0.13
0.32
0.79
1.20
1.53
1.80
1.99
2.04
1.88
1.44
0.78
0.02
-0.62
-0.97
-0.97
-0.70
-0.35
-0.07
0.05
0.06
0.05
0.09
0.16
0.19
0.11
-0.07
-0.29
-0.45
-0.51
-0.46
-0.38
-0.30
-0.24
-0.21
-0.18
-0.17
-0.18
-0.18
-0.13
0.06
0.42
0.90
1.37
1.69
1.72
1.45
0.93
0.28
-0.35
-0.83
-1.06
-0.98
-0.63
-0.09
0.46
0.81
0.81
0.44
-0.20
-0.92
-1.50
-1.81
-1.80
-1.56
-1.20
-0.85
-0.57
-0.38
-0.29
-0.27
-0.31
-0.40
-0.49
-0.53
-0.47
-0.27
0.09
0.57
1.08
1.51
1.74
1.72
1.51
1.20
0.93
0.75
0.64
0.51
0.30
-0.01
-0.31
-0.50
-0.50
-0.32
-0.07
0.12
0.14
-0.02
-0.31
-0.64
-0.95
-1.17
-1.30
-1.34
-1.26
-1.06
-0.74
-0.34
0.06
0.38
0.56
0.58
0.49
0.38
0.34
0.43
0.67
1.03
1.44
1.79
1.98
1.95
1.72
1.34
0.92
0.53
0.21
-0.05
-0.29
-0.50
-0.65
-0.71
-0.65
-0.50
-0.32
-0.20
-0.24
-0.45
-0.79
-1.17
-1.42
-1.45
-1.21
-0.78
-0.32
-0.03
-0.02
-0.29
-0.66
-0.92
-0.90
-0.59
-0.09
0.42
0.82
1.08
1.26
1.43
1.60
1.71
1.66
1.38
0.92
0.38
-0.09
-0.42
-0.62
-0.77
-0.93
-1.14
-1.35
-1.50
-1.56
-1.52
-1.40
-1.25
-1.04
-0.78
-0.44
-0.09
0.19
0.33
0.35
0.35
0.49
0.84
1.39
1.99
2.46
2.65
2.51
2.09
1.51
0.87
0.29
-0.14
-0.38
-0.38
-0.18
0.15
0.47
0.63
0.55
0.23
-0.24
-0.69
-1.01
-1.12
-1.03
-0.84
-0.67
-0.59
-0.63
-0.74
-0.81
-0.79
-0.64
-0.40
-0.16
-0.01
0.01
-0.06
-0.13
-0.15
-0.08
0.01
0.04
-0.04
-0.23
-0.43
-0.51
-0.42
-0.20
0.04
0.12
-0.02
-0.34
-0.67
-0.82
-0.67
-0.24
0.29
0.67
0.75
0.51
0.07
-0.36
-0.64
-0.71
-0.61
-0.42
-0.21
-0.00
0.21
0.41
0.58
0.66
0.64
0.57
0.54
0.67
0.97
1.38
1.74
1.89
1.74
1.36
0.90
0.53
0.39
0.46
0.63
0.73
0.62
0.29
-0.19
-0.71
-1.18
-1.53
-1.74
-1.85
-1.88
-1.84
-1.76
-1.66
-1.51
-1.33
-1.11
-0.90
-0.76
-0.71
-0.76
-0.83
-0.83
-0.69
-0.41
-0.06
0.27
0.54
0.74
0.92
1.12
1.33
1.47
1.45
1.25
0.90
0.52
0.24
0.15
0.24
0.40
0.50
0.43
0.21
-0.08
-0.30
-0.35
-0.23
0.00
0.25
0.44
0.55
0.60
0.61
0.58
0.51
0.42
0.33
0.27
0.24
0.26
0.32
0.42
0.55
0.66
0.71
0.63
0.41
0.08
-0.26
-0.51
-0.63
-0.63
-0.56
-0.49
-0.44
-0.42
-0.41
-0.43
-0.49
-0.62
-0.82
-1.04
-1.23
-1.33
-1.30
-1.16
-0.96
-0.77
-0.64
-0.56
-0.46
-0.30
-0.06
0.18
0.34
0.35
0.25
0.20
0.32
0.66
1.15
1.62
1.87
1.83
1.50
1.01
0.49
0.04
-0.26
-0.39
-0.36
-0.15
0.19
0.58
0.90
1.05
0.92
0.53
-0.04
-0.64
-1.12
-1.39
-1.42
-1.27
-1.00
-0.70
-0.42
-0.23
-0.16
-0.19
-0.23
-0.16
0.16
0.75
1.52
2.26
2.78
2.93
2.66
2.03
1.17
0.26
-0.50
-0.94
-1.00
-0.72
-0.32
-0.02
-0.01
-0.31
-0.77
-1.20
-1.46
-1.54
-1.52
-1.47
-1.39
-1.18
-0.80
-0.29
0.21
0.49
0.48
0.19
-0.19
-0.48
-0.55
-0.42
-0.19
0.00
0.09
0.09
0.10
0.19
0.35
0.49
0.52
0.38
0.11
-0.16
-0.33
-0.35
-0.26
-0.17
-0.17
-0.26
-0.39
-0.50
-0.55
-0.59
-0.67
-0.79
-0.90
-0.89
-0.70
-0.34
0.08
0.42
0.55
0.47
0.26
0.04
-0.06
0.01
0.24
0.55
0.89
1.20
1.45
1.61
1.62
1.46
1.13
0.71
0.34
0.14
0.18
0.41
0.69
0.82
0.68
0.31
-0.16
-0.52
-0.63
-0.50
-0.29
-0.19
-0.33
-0.68
-1.10
-1.42
-1.56
-1.51
-1.39
-1.25
-1.12
-0.96
-0.69
-0.32
0.08
0.38
0.50
0.43
0.28
0.17
0.20
0.38
0.67
0.97
1.18
1.24
1.10
0.77
0.33
-0.13
-0.47
-0.59
-0.48
-0.22
0.02
0.09
-0.01
-0.21
-0.35
-0.30
-0.07
0.24
0.45
0.46
0.30
0.10
-0.00
0.08
0.28
0.49
0.59
0.57
0.51
0.52
0.66
0.91
1.19
1.42
1.55
1.59
1.57
1.52
1.40
1.19
0.85
0.37
-0.19
-0.76
-1.26
-1.64
-1.84
-1.87
-1.75
-1.54
-1.30
-1.08
-0.92
-0.84
-0.82
-0.86
-0.95
-1.07
-1.21
-1.34
-1.42
-1.38
-1.21
-0.89
-0.46
0.01
0.41
0.65
0.72
0.64
0.52
0.44
0.46
0.56
0.66
0.74
0.77
0.81
0.88
0.95
0.97
0.85
0.59
0.23
-0.09
-0.29
-0.33
-0.28
-0.23
-0.23
-0.28
-0.32
-0.31
-0.26
-0.24
-0.32
-0.52
-0.80
-1.10
-1.37
-1.61
-1.87
-2.19
-2.59
-3.03
-3.48
-3.89
-4.25
-4.55
-4.80
-5.05
-5.36
-5.82
-6.52
-7.45
-8.53
-9.59
-10.49
-11.15
-11.65
-12.21
-13.09
-14.52
-16.55
-19.07
-21.78
-24.37
-26.60
-28.45
-30.15
-32.10
-34.67
-38.09
-42.32
-47.05
-51.83
-56.23
-60.01
-63.20
-66.10
-69.20
-73.01
-77.87
-83.82
-90.64
-97.89
-105.13
-111.97
-118.17
-123.70
-128.88
-134.42
-141.32
-150.23
-160.69
-170.63
-176.49
-174.29
-161.00
-135.57
-99.06
-53.81
-2.49
52.35
107.94
160.76
206.51
241.11
262.29
270.79
270.31
266.01
262.29
261.29
262.52
264.12
264.22
262.30
259.21
256.55
255.67
257.20
261.07
266.80
273.73
280.78
286.18
287.33
281.33
265.84
240.03
204.84
162.52
115.47
65.37
13.08
-40.49
-93.35
-141.87
-181.60
-208.74
-221.91
-222.71
-215.04
-203.42
-191.27
-180.10
-169.72
-159.39
-148.75
-138.24
-128.78
-121.00
-114.82
-109.38
-103.56
-96.57
-88.29
-79.32
-70.67
-63.24
-57.45
-53.15
-49.67
-46.22
-42.20
-37.45
-32.28
-27.26
-22.93
-19.60
-17.23
-15.50
-14.02
-12.48
-10.72
-8.82
-6.93
-5.31
-4.12
-3.43
-3.14
-3.02
-2.84
-2.43
-1.78
-1.02
-0.35
0.08
0.19
0.05
-0.21
-0.46
-0.61
-0.60
-0.46
-0.22
0.05
0.27
0.39
0.40
0.28
0.09
-0.12
-0.27
-0.27
-0.05
0.38
0.95
1.50
1.91
2.08
1.98
1.68
1.26
0.79
0.31
-0.19
-0.73
-1.29
-1.82
-2.23
-2.45
-2.44
-2.24
-1.97
-1.73
-1.57
-1.46
-1.32
-1.10
-0.82
-0.55
-0.35
-0.28
-0.29
-0.32
-0.33
-0.31
-0.27
-0.22
-0.17
-0.10
-0.05
-0.05
-0.11
-0.19
-0.18
0.04
0.50
1.13
1.75
2.14
2.19
1.94
1.53
1.19
1.07
1.17
1.39
1.52
1.45
1.15
0.77
0.51
0.52
0.77
1.06
1.17
0.94
0.42
-0.18
-0.60
-0.63
-0.21
0.53
1.42
2.21
2.72
2.84
2.58
2.02
1.30
0.57
-0.10
-0.74
-1.38
-2.00
-2.54
-2.86
-2.86
-2.61
-2.26
-2.00
-1.96
-2.14
-2.42
-2.63
-2.66
-2.48
-2.18
-1.87
-1.64
-1.53
-1.47
-1.33
-1.01
-0.47
0.20
0.85
1.29
1.47
1.45
1.40
1.48
1.75
2.17
2.61
2.96
3.14
3.13
2.91
2.49
1.89
1.17
0.45
-0.12
-0.45
-0.51
-0.38
-0.19
-0.06
-0.06
-0.22
-0.49
-0.80
-1.08
-1.26
-1.28
-1.18
-0.98
-0.77
-0.55
-0.33
-0.08
0.17
0.37
0.47
0.45
0.36
0.32
0.40
0.60
0.83
0.98
0.94
0.72
0.38
0.01
-0.35
-0.65
-0.89
-1.05
-1.10
-1.04
-0.92
-0.85
-0.91
-1.12
-1.45
-1.77
-1.97
-2.02
-1.96
-1.89
-1.92
-2.08
-2.32
-2.52
-2.57
-2.42
-2.10
-1.66
-1.23
-0.88
-0.64
-0.50
-0.41
-0.30
-0.04
0.46
1.28
2.36
3.55
4.63
5.34
5.53
5.19
4.46
3.57
2.73
2.05
1.57
1.22
0.93
0.66
0.37
0.04
-0.32
-0.68
-0.96
-1.06
-0.95
-0.65
-0.31
-0.08
-0.07
-0.28
-0.59
-0.85
-0.92
-0.80
-0.54
-0.29
-0.16
-0.24
-0.52
-0.92
-1.35
