1660751738.00
64.000000
-0.00
-0.00
-0.00
-0.00
-0.00
-0.00
-0.00
-0.00
-0.00
-0.00
0.00
0.01
0.01
-0.00
-0.03
-0.05
-0.05
0.00
0.13
0.36
0.66
1.01
1.37
1.72
2.06
2.40
2.79
3.24
3.80
4.42
5.06
5.66
6.20
6.68
7.15
7.68
8.31
9.14
10.09
11.04
11.88
12.56
13.14
13.76
14.65
15.96
17.91
20.32
22.90
25.38
27.58
29.57
31.68
34.32
37.81
42.54
48.15
54.10
59.83
64.97
69.58
74.14
79.34
85.71
93.76
103.00
112.62
121.73
129.77
136.75
143.30
150.75
157.77
166.64
177.95
191.79
206.97
220.57
228.25
225.36
208.53
176.87
132.76
80.05
23.07
-34.94
-92.44
-149.16
-205.23
-260.37
-313.74
-363.87
-409.83
-450.91
-486.50
-515.74
-537.23
-549.22
-549.96
-538.37
-514.21
-478.67
-433.88
-382.45
-327.02
-269.84
-212.63
-156.66
-102.95
-52.37
-5.90
35.58
71.43
101.35
125.50
144.38
158.69
169.15
176.37
180.75
182.57
182.07
179.51
175.23
169.65
163.18
156.15
148.81
141.30
133.69
126.02
118.33
110.69
103.16
95.80
88.68
81.83
75.25
68.95
62.95
57.25
51.86
46.78
42.03
37.59
33.45
29.61
26.07
22.81
19.83
17.11
14.67
12.48
10.54
8.83
7.35
6.07
4.97
4.05
3.27
2.62
2.09
1.65
1.30
1.01
0.79
0.61
0.47
0.37
0.29
0.23
0.19
0.16
0.15
0.14
0.15
0.16
0.17
0.20
0.22
0.25
0.28
0.31
0.34
0.39
0.44
0.51
0.57
0.60
0.60
0.56
0.49
0.43
0.40
0.44
0.53
0.66
0.79
0.89
0.94
0.97
1.02
1.12
1.29
1.55
1.83
2.09
2.26
2.35
2.38
2.45
2.67
3.08
3.66
4.29
4.81
5.08
5.05
4.84
4.69
4.83
5.42
6.41
7.55
8.46
8.83
8.58
7.89
7.22
6.99
7.43
8.37
9.25
9.35
8.04
5.14
0.94
-3.83
-8.44
-12.43
-15.81
-18.96
-22.40
-26.57
-31.69
-37.88
-45.07
-52.68
-59.35
-62.94
-61.11
-52.38
-37.25
-18.39
0.14
14.45
22.34
23.89
20.89
15.65
9.87
4.23
-1.17
-6.09
-9.81
-11.37
-10.23
-6.84
-2.63
0.68
1.69
0.08
-3.37
-7.15
-9.75
-10.35
-8.98
-6.51
-3.98
-2.23
-1.58
-1.83
-2.37
-2.60
-2.08
-0.72
1.30
3.65
5.70
6.80
6.36
4.26
0.81
-3.26
-7.19
-10.48
-12.89
-14.52
-15.58
-16.08
-15.82
-14.66
-12.72
-10.39
-9.75
-11.84
-16.80
-23.73
-30.96
-36.45
-38.54
-36.29
-29.82
-20.17
-8.74
2.96
13.89
23.77
33.13
42.81
53.29
64.16
73.93
80.58
82.03
76.89
64.78
46.38
23.11
-3.20
-30.62
-57.42
-82.25
-104.49
-124.28
-142.12
-158.27
-172.18
-182.37
-186.90
-184.20
-173.80
-156.75
-135.26
-112.00
-89.20
-68.28
-49.82
-33.86
-20.23
-8.74
0.83
8.84
15.75
22.08
28.11
33.80
38.74
42.40
44.34
44.43
43.02
40.88
39.04
38.49
39.86
43.29
48.22
53.60
58.19
60.93
61.26
59.26
55.52
50.97
46.60
43.26
41.46
41.27
42.23
43.55
44.48
44.80
45.27
47.53
53.53
64.59
80.56
99.60
118.63
134.38
144.38
147.62
144.57
136.63
125.54
112.80
99.44
85.98
72.66
59.57
46.80
34.47
22.62
11.15
-0.25
-12.00
-24.48
-37.87
-52.05
-66.62
-80.97
-94.36
-105.93
-114.70
-119.78
-120.56
-117.11
-110.28
-101.51
-92.44
-84.34
-77.88
-73.13
-69.84
-67.69
-66.34
-65.30
-63.66
-60.08
-53.16
-41.75
-25.70
-6.11
14.94
35.01
52.11
65.05
73.61
78.21
79.87
79.59
78.20
76.24
74.12
72.26
71.13
71.12
72.49
75.68
80.75
87.19
94.02
100.23
105.06
108.18
109.49
108.91
107.44
105.56
102.71
97.46
88.40
75.07
58.13
39.08
19.62
3.78
-5.60
-8.11
-5.72
-1.24
3.17
6.32
7.50
6.15
6.11
10.67
21.00
36.04
54.23
75.00
98.57
124.69
152.21
185.00
225.51
272.88
322.90
370.44
411.98
446.21
473.03
463.34
402.65
296.62
169.44
46.69
-57.80
-141.41
-206.67
-255.53
-296.24
-329.05
-353.19
-369.34
-379.87
-386.88
-391.24
-388.91
-379.04
-364.12
-344.02
-319.67
-293.05
-266.81
-242.90
-222.08
-204.52
-191.16
-183.03
-177.19
-170.24
-159.74
-145.14
-127.18
-106.97
-85.67
-64.76
-45.45
-26.70
-7.34
13.12
34.06
54.12
71.98
86.70
97.64
104.73
109.11
111.94
113.88
114.87
114.43
112.14
107.90
101.86
94.43
86.23
77.79
69.55
61.84
54.89
48.85
43.60
38.69
33.41
27.02
19.03
9.42
-1.30
-12.24
-22.40
-30.94
-37.45
-42.02
-45.29
-48.21
-51.83
-56.83
-63.27
-70.33
-76.52
-80.05
-79.45
-74.14
-64.63
-52.32
-39.04
-26.48
-15.74
-7.28
-1.06
3.25
6.08
7.91
9.24
10.60
12.37
14.76
17.67
20.77
23.63
25.84
27.18
27.67
27.51
27.07
26.69
26.67
27.06
27.72
28.31
28.38
27.54
25.51
22.24
17.90
12.83
7.53
2.51
-1.87
-5.49
-8.55
-11.45
-14.63
-18.33
-22.38
-26.24
-29.09
-30.08
-28.64
-24.61
-18.31
-10.45
-1.93
6.29
13.41
18.89
22.48
24.21
24.36
23.39
21.80
20.08
18.62
17.65
17.24
17.35
17.87
18.69
19.65
20.59
21.30
21.64
21.52
20.98
20.09
18.88
17.27
15.09
12.15
8.37
3.87
-1.07
-6.08
-10.82
-15.08
-18.82
-22.19
-25.43
-28.79
-32.40
-36.10
-39.41
-41.59
-41.84
-39.55
-34.54
-27.13
-18.07
-8.30
1.28
9.98
17.40
23.41
28.05
31.46
33.76
35.01
35.24
34.51
32.97
30.85
28.43
25.97
23.59
21.26
18.82
16.09
13.07
9.92
7.06
4.95
3.87
3.77
4.24
4.73
4.86
4.75
5.00
6.46
9.80
15.13
21.92
29.18
35.72
40.45
42.44
41.05
36.03
27.83
17.90
8.61
2.60
1.97
7.35
17.64
30.45
43.03
53.27
60.19
63.89
65.05
64.40
62.41
59.28
55.15
50.20
44.62
38.46
31.66
23.98
15.15
4.82
-7.41
-21.93
-38.91
-57.88
-77.59
-96.06
-111.28
-121.88
-127.79
-130.26
-131.16
-132.05
-133.48
-134.87
-135.07
-133.05
-128.46
-121.64
-113.29
-104.15
-94.78
-85.53
-76.60
-67.91
-59.06
-49.39
-38.23
-25.37
-11.26
3.04
16.39
28.18
38.70
49.00
60.39
73.96
90.20
108.92
129.12
148.95
165.62
175.83
176.57
166.36
146.09
119.10
90.19
63.97
43.40
29.16
20.19
14.74
11.42
9.53
8.76
8.62
8.16
6.29
2.39
-3.03
-8.32
-11.11
-9.21
-1.46
11.79
28.65
46.20
61.10
70.29
71.62
64.27
48.89
27.57
3.30
-20.63
-41.34
-56.95
-66.83
-71.43
-71.96
-69.88
-66.59
-63.19
-60.41
-58.62
-57.79
-57.53
-57.19
-55.98
-53.27
-48.74
-42.49
-35.00
-26.94
-19.10
-12.12
-6.48
-2.29
0.85
3.80
7.57
13.26
21.74
33.43
48.03
64.57
81.65
97.65
110.80
119.06
120.46
113.64
98.51
76.70
51.65
28.11
10.97
3.95
7.99
21.72
42.40
66.87
92.14
115.42
134.03
145.41
147.40
137.68
116.16
86.02
53.09
23.65
2.48
-8.03
-7.81
1.46
14.28
25.51
32.26
33.95
30.61
21.95
7.84
-10.85
-32.05
-57.38
-87.49
-120.48
-152.57
-180.92
-205.31
-227.13
-247.99
-268.88
-295.72
-332.29
-377.36
-425.14
-469.48
-506.96
-536.81
-559.86
-541.49
-463.68
-337.00
-195.18
-68.84
29.22
99.92
149.67
185.18
211.31
225.80
226.74
216.15
200.10
184.79
172.89
165.33
161.68
160.61
156.88
146.91
131.07
113.35
98.09
87.48
81.40
81.95
87.73
94.15
97.71
97.81
96.39
95.76
96.90
99.05
101.36
102.78
101.72
97.49
90.71
82.60
74.51
66.68
57.77
46.99
33.73
17.87
0.05
-18.59
-36.94
-54.59
-67.06
-76.09
-83.63
-90.96
-97.92
-103.40
-106.30
-106.00
-102.86
-98.06
-93.85
-91.53
-91.93
-95.42
-101.76
-109.71
-116.44
-117.76
-109.37
-89.41
-58.99
-22.97
11.55
37.93
52.62
56.01
51.50
43.38
34.41
25.88
18.04
11.13
5.97
4.39
7.60
15.34
25.83
36.17
43.58
46.56
45.18
40.92
35.89
31.84
29.53
28.68
28.02
26.11
22.01
15.73
8.23
0.98
-4.79
-8.60
-10.76
-12.29
-14.33
-17.51
-21.77
-26.49
-30.99
-34.92
-38.45
-41.90
-45.70
-50.14
-55.11
-60.11
-64.39
-67.11
-67.49
-66.45
-64.61
-62.74
-61.49
-61.22
-61.86
-63.05
-64.43
-65.76
-66.97
-67.74
-67.63
-66.03
-62.39
-56.47
-48.55
-39.27
-29.39
-19.58
-10.20
-1.65
5.64
11.24
14.92
16.89
17.77
18.39
19.44
21.28
23.85
26.75
29.54
31.92
33.74
34.97
35.61
35.61
34.92
33.42
30.90
27.12
21.88
15.20
7.43
-0.65
-8.01
-13.56
-16.60
-17.20
-16.27
-15.41
-16.43
-20.70
-28.65
-39.57
-51.83
-63.34
-72.13
-76.84
-76.86
-72.37
-64.19
-53.53
-41.76
-30.14
-19.55
-10.37
-2.50
4.44
10.84
16.88
22.47
27.36
31.37
34.52
37.05
39.30
41.68
44.45
47.81
51.81
56.38
61.36
66.47
71.47
76.19
80.58
84.63
88.17
90.84
92.00
91.00
87.47
81.54
73.95
65.79
58.06
51.24
45.08
38.62
30.56
19.83
5.95
-10.64
-28.70
-46.48
-62.13
-74.18
-81.82
-85.02
-84.47
-81.27
-76.65
-71.55
-66.39
-61.03
-54.88
-47.29
-37.94
-27.14
-15.89
-5.60
2.49
7.80
10.69
12.44
14.65
18.62
24.86
32.86
41.47
49.42
55.82
60.35
63.15
64.47
64.47
63.07
60.20
55.97
50.89
45.69
41.07
37.44
34.77
32.75
31.06
29.58
28.44
28.01
28.67
30.76
34.56
40.30
48.02
57.44
67.84
78.06
86.77
92.92
96.07
96.45
94.71
91.46
86.92
80.80
72.56
61.88
48.97
34.70
20.34
7.14
-4.14
-13.36
-20.99
-27.75
-34.40
-41.45
-49.09
-57.23
-65.49
-73.21
-79.51
-83.36
-83.80
-80.27
-73.04
-63.27
-52.83
-43.69
-37.23
-33.67
-32.04
-30.66
-27.92
-22.90
-15.69
-7.05
2.06
10.96
19.50
27.81
36.05
44.09
51.56
57.97
63.07
66.88
69.74
72.13
74.46
76.95
79.64
82.52
85.57
88.92
92.67
96.85
101.23
105.26
108.14
108.92
106.77
101.17
92.19
80.54
67.40
54.14
41.76
30.62
20.28
9.76
-1.99
-15.56
-30.77
-46.64
-61.68
-74.31
-83.29
-88.09
-89.02
-87.13
-83.91
-80.80
-78.81
-78.18
-78.36
-78.21
-76.42
-71.94
-64.41
-54.27
-42.73
-31.30
-21.30
-13.23
-6.65
-0.34
7.00
16.10
26.63
37.28
46.37
52.55
55.42
55.66
54.64
53.76
53.89
55.15
56.99
58.72
59.89
60.56
61.24
62.46
64.50
67.09
69.47
70.65
69.74
66.23
60.24
52.44
43.93
35.92
29.38
24.82
22.17
20.97
20.60
20.52
20.30
19.56
17.76
14.21
8.23
-0.53
-11.77
-24.48
-37.13
-48.08
-56.09
-60.65
-62.10
-61.45
-60.09
-59.33
-60.02
-62.30
-65.60
-68.91
-71.12
-71.45
-69.56
-65.65
-60.24
-53.92
-47.23
-40.36
-33.11
-24.88
-14.98
-3.04
10.61
24.70
37.19
45.77
48.57
44.93
35.72
23.29
10.87
1.69
-2.00
0.49
8.13
18.73
29.73
39.11
45.90
50.12
52.37
53.28
53.24
52.40
50.88
48.89
46.68
44.29
41.41
37.49
32.09
25.31
17.94
11.25
6.38
3.80
2.98
2.66
1.33
-2.15
-8.12
-16.20
-25.49
-34.91
-43.48
-50.42
-55.20
-57.49
-57.24
-54.70
-50.43
-45.20
-39.96
-35.56
-32.59
-31.18
-30.92
-31.02
-30.50
-28.56
-24.85
-19.61
-13.58
-7.69
-2.69
1.24
4.66
8.77
15.07
24.83
38.51
55.34
73.23
88.92
98.75
99.64
90.23
71.61
47.30
22.24
1.29
-12.46
-18.47
-18.59
-15.86
-13.06
-11.68
-11.75
-12.38
-12.69
-12.39
-11.89
-11.82
-12.62
-14.15
-15.85
-17.12
-17.64
-17.63
-17.62
-18.19
-19.52
-21.40
-23.29
-24.73
-25.59
-26.20
-27.20
-29.17
-32.36
-36.43
-40.66
-44.17
-46.28
-46.75
-45.85
-44.17
-42.40
-41.02
-40.13
-39.39
-38.23
-36.07
-32.60
-27.95
-22.62
-17.33
-12.69
-9.02
-6.18
-3.69
-0.87
2.91
8.03
14.46
21.69
28.82
34.76
38.54
39.67
38.35
35.50
32.48
30.68
31.07
33.99
39.11
45.60
52.40
58.46
62.89
65.08
64.83
62.48
58.83
54.96
51.92
50.41
50.55
52.00
54.15
56.41
58.34
59.65
60.10
59.42
57.39
54.01
49.55
44.65
40.12
36.76
35.06
34.89
35.38
35.00
31.95
24.70
12.66
-3.46
-21.60
-38.76
-51.79
-58.14
-56.46
-46.88
-30.96
-11.29
9.23
28.14
44.11
57.11
68.03
77.83
86.82
94.36
99.00
99.12
93.43
81.15
61.73
34.75
0.35
-39.82
-82.00
-120.54
-149.58
-165.21
-167.07
-158.39
-144.66
-131.42
-122.61
-119.74
-122.12
-127.56
-133.22
-136.26
-134.39
-126.27
-111.59
-91.02
-65.73
-37.04
-6.30
24.71
53.57
77.47
93.89
101.48
100.39
91.59
75.66
52.18
20.45
-18.71
-61.37
-100.54
-128.19
-138.54
-130.76
-109.45
-82.67
-58.58
-42.48
-35.66
-36.37
-41.78
-49.83
-59.90
-72.29
-87.12
-103.42
-119.04
-131.32
-138.06
-138.29
-132.73
-123.35
-112.43
-101.58
-91.10
-80.17
-67.62
-52.95
-36.94
-21.54
-8.99
-0.77
3.13
4.25
4.99
7.56
13.02
20.91
29.55
37.06
42.27
45.24
47.00
48.84
51.64
55.38
59.26
62.09
62.91
61.47
58.28
54.42
51.02
48.78
47.66
46.98
45.75
43.21
39.21
34.28
29.45
25.78
24.01
24.31
26.26
29.12
31.99
34.16
35.19
35.15
34.46
33.75
33.66
34.63
36.89
40.36
44.83
49.89
55.17
60.12
63.97
65.83
64.88
60.75
53.73
44.80
35.36
26.97
20.67
16.73
14.52
12.92
10.81
7.36
2.34
-3.86
-10.06
-15.02
-17.99
-19.01
-18.67
-17.79
-17.10
-17.14
-18.05
-18.88
-18.74
-17.45
-15.70
-14.36
-13.81
-13.78
-13.51
-12.07
-7.55
1.08
13.09
26.00
37.01
44.24
47.20
46.77
44.92
45.82
53.17
68.39
89.86
114.03
136.60
153.53
161.75
150.47
115.80
64.38
10.67
-32.84
-61.39
-76.89
-83.80
-85.99
-85.50
-81.40
-72.67
-60.22
-47.14
-36.38
-29.50
-26.31
-25.51
-25.48
-23.82
-19.23
-12.59
-7.09
-5.24
-8.47
-16.78
-29.11
-43.80
-58.52
-71.40
-80.09
-86.14
-91.33
-96.91
-103.23
-109.86
-115.89
-119.92
-120.84
-118.80
-115.21
-111.29
-108.10
-106.21
-105.91
-107.25
-111.49
-116.16
-118.76
-116.65
-107.08
-88.86
-63.36
-34.33
-6.64
15.65
30.97
39.76
43.76
45.06
44.56
41.94
36.48
28.04
17.58
6.88
-2.57
-10.01
-14.94
-17.31
-17.28
-15.00
-10.69
-4.88
1.75
8.25
12.08
11.90
7.71
0.81
-6.57
-12.15
-14.24
-12.07
-5.87
3.57
15.50
29.06
43.18
56.49
67.35
74.32
76.65
74.57
69.14
61.97
54.30
46.55
38.45
29.56
19.97
10.55
2.70
-2.31
-3.90
-2.59
0.19
2.75
3.83
3.11
1.24
-0.37
-0.14
3.32
10.69
21.71
35.29
49.72
63.23
74.35
82.29
87.03
89.13
89.36
88.30
86.17
82.60
76.80
67.91
55.46
39.83
22.20
4.23
-12.53
-27.17
-39.61
-50.51
-60.67
-70.60
-79.98
-88.00
-93.64
-96.10
-94.98
-90.37
-82.89
-73.47
-63.21
-52.68
-42.43
-33.01
-24.89
-18.11
-12.16
-6.28
0.52
8.79
19.38
32.16
45.96
59.28
71.04
81.06
89.22
95.80
100.53
104.21
107.08
108.70
108.49
106.32
102.87
98.66
95.08
93.32
96.29
105.55
120.23
137.33
153.13
165.10
172.03
176.01
166.92
141.45
104.17
64.83
31.15
4.75
-11.49
-23.43
-34.83
-47.33
-58.96
-67.50
-73.51
-77.17
-79.09
-80.03
-81.91
-85.84
-92.77
-101.54
-110.63
-118.90
-125.46
-129.80
-131.37
-130.68
-128.09
-124.77
-121.47
-119.32
-119.69
-123.30
-129.91
-137.84
-144.90
-148.29
-146.04
-137.28
-123.14
-106.51
-90.83
-78.77
-70.93
-65.86
-60.37
-51.28
-36.76
-17.45
3.82
23.53
38.97
49.42
55.84
60.19
64.39
69.53
75.53
81.66
87.23
92.03
96.39
100.65
105.14
110.63
118.26
128.90
142.55
157.76
171.28
178.54
174.29
154.75
119.72
73.26
22.56
-24.19
-60.35
-82.89
-91.33
-88.49
-80.97
-75.41
-74.12
-74.96
-74.44
-70.40
-64.01
-56.86
-50.92
-47.47
-46.82
-48.79
-53.14
-59.79
-67.98
-76.10
-81.28
-80.89
-73.00
-57.35
-35.76
-11.75
10.32
27.00
36.57
40.35
39.08
35.38
32.23
30.96
30.57
28.60
25.43
20.37
14.03
7.62
2.77
0.72
1.26
4.57
10.63
19.06
28.55
37.54
44.28
47.72
47.53
44.41
40.05
36.18
33.88
32.83
32.07
30.43
27.31
22.64
17.07
11.86
7.88
5.22
2.85
-0.57
-6.05
-13.91
-24.18
-36.03
-47.73
-57.71
-64.96
-69.43
-71.85
-73.09
-74.22
-76.84
-81.68
-87.82
-93.76
-97.67
-97.94
-93.27
-82.51
-65.57
-44.57
-22.49
-1.66
