1660333246.00
64.000000
-0.00
-0.00
-0.00
-0.00
-0.00
-0.00
-0.00
-0.00
-0.00
-0.00
0.00
0.01
0.01
-0.00
-0.03
-0.05
-0.05
0.00
0.13
0.36
0.66
1.01
1.37
1.72
2.06
2.40
2.79
3.24
3.80
4.42
5.06
5.67
6.20
6.68
7.14
7.67
8.32
9.18
10.15
11.10
11.89
12.45
12.84
13.24
13.91
15.03
16.86
19.18
21.71
24.11
26.18
27.99
29.88
32.33
35.70
40.38
46.00
51.96
57.60
62.49
66.68
70.74
75.48
81.54
89.48
98.73
108.32
117.12
124.41
130.21
135.33
141.41
147.43
155.78
166.92
180.58
195.07
207.17
212.50
206.77
187.19
153.46
108.22
55.10
-2.18
-61.17
-120.88
-181.11
-241.47
-300.85
-357.55
-409.69
-456.44
-497.68
-533.62
-564.24
-588.93
-606.41
-614.70
-611.26
-593.04
-557.50
-503.36
-431.73
-346.55
-254.01
-161.01
-73.47
4.89
72.72
130.05
177.36
214.88
242.73
261.30
271.75
275.91
275.75
272.89
268.06
261.32
252.26
240.60
226.48
210.61
194.05
177.92
163.08
149.86
138.16
127.53
117.50
107.73
98.15
88.89
80.10
71.83
63.96
56.25
48.44
40.46
32.50
24.92
18.14
12.44
7.96
4.40
1.34
-1.65
-4.84
-8.19
-11.42
-14.04
-15.58
-15.76
-14.61
-12.44
-9.76
-7.11
-4.96
-3.56
-2.96
-3.05
-3.62
-4.40
-5.12
-5.50
-5.39
-4.74
-3.63
-2.27
-0.93
0.10
0.64
0.62
0.12
-0.68
-1.58
-2.44
-3.23
-4.01
-4.89
-5.88
-6.92
-7.83
-8.36
-8.34
-7.74
-6.69
-5.46
-4.34
-3.55
-3.09
-2.86
-2.65
-2.34
-1.92
-1.49
-1.20
-1.13
-1.27
-1.52
-1.74
-1.80
-1.63
-1.19
-0.49
0.48
1.66
2.88
3.92
4.45
4.27
3.34
1.93
0.48
-0.56
-0.92
-0.63
0.05
0.74
1.16
1.20
0.90
0.37
-0.27
-0.95
-1.60
-2.04
-2.09
-1.58
-0.45
1.18
2.98
4.56
5.50
5.58
4.77
3.30
1.54
-0.18
-1.59
-2.52
-2.85
-2.56
-1.69
-0.41
0.99
2.16
2.77
2.68
1.88
0.54
-1.07
-2.72
-4.25
-5.54
-6.51
-7.12
-7.34
-7.16
-6.60
-5.75
-4.72
-3.63
-2.62
-1.82
-1.28
-0.99
-0.89
-0.92
-1.00
-1.16
-1.44
-1.94
-2.67
-3.60
-4.55
-5.30
-5.58
-5.20
-4.10
-2.41
-0.40
1.57
3.15
4.10
4.35
3.95
3.07
1.85
0.41
-1.16
-2.77
-4.26
-5.40
-5.96
-5.83
-5.10
-4.06
-3.05
-2.34
-1.99
-1.90
-1.88
-1.77
-1.53
-1.28
-1.20
-1.44
-2.04
-3.01
-4.31
-5.87
-7.53
-8.97
-9.77
-9.46
-7.74
-4.59
-0.32
4.49
9.20
13.24
16.24
18.02
18.56
17.97
16.43
14.18
11.52
8.78
6.24
4.12
2.53
1.45
0.76
0.24
-0.29
-0.97
-1.79
-2.64
-3.37
-3.86
-4.10
-4.22
-4.38
-4.75
-5.39
-6.22
-7.07
-7.66
-7.65
-6.72
-4.64
-1.32
3.08
8.18
13.38
18.07
21.72
24.02
24.91
24.55
23.21
21.15
18.64
15.91
13.23
10.91
9.20
8.22
7.91
8.01
8.21
8.22
7.91
7.31
6.58
5.83
5.11
4.30
3.23
1.68
-0.46
-3.17
-6.27
-9.40
-12.13
-14.00
-14.67
-14.04
-12.21
-9.50
-6.34
-3.21
-0.53
1.35
2.17
1.80
0.26
-2.29
-5.50
-8.90
-12.05
-14.61
-16.40
-17.46
-17.90
-17.87
-17.48
-16.77
-15.73
-14.41
-12.96
-11.59
-10.57
-10.12
-10.39
-11.34
-12.81
-14.52
-16.12
-17.28
-17.69
-17.12
-15.45
-12.68
-8.94
-4.54
0.11
4.55
8.39
11.35
13.35
14.41
14.68
14.31
13.51
12.48
11.45
10.61
10.15
10.18
10.77
11.90
13.50
15.36
17.16
18.54
19.23
19.07
18.11
16.52
14.46
12.03
9.21
5.99
2.46
-1.07
-4.18
-6.42
-7.51
-7.45
-6.48
-5.00
-3.39
-1.93
-0.77
0.03
0.47
0.54
0.20
-0.55
-1.60
-2.78
-3.83
-4.54
-4.80
-4.60
-4.10
-3.45
-2.81
-2.24
-1.77
-1.41
-1.19
-1.14
-1.28
-1.59
-2.06
-2.71
-3.61
-4.82
-6.26
-7.74
-8.90
-9.34
-8.82
-7.32
-5.09
-2.50
0.13
2.67
5.07
7.29
9.28
10.94
12.26
13.31
14.29
15.49
17.12
19.16
21.41
23.58
25.44
26.92
27.97
28.60
28.81
28.68
28.24
27.54
26.60
25.36
23.67
20.93
16.72
11.17
5.07
-0.37
-4.11
-5.53
-4.68
-2.23
0.09
0.71
-1.11
-5.04
-10.15
-15.43
-20.08
-23.56
-25.68
-27.73
-31.05
-36.28
-43.11
-50.73
-58.37
-65.35
-71.10
-75.17
-78.89
-83.60
-89.76
-96.81
-103.88
-110.56
-116.79
-122.46
-118.09
-97.86
-62.96
-21.40
18.03
50.14
73.36
88.30
96.71
100.80
101.27
98.43
92.86
85.95
79.16
73.44
69.25
66.60
65.20
63.17
59.33
53.10
44.97
35.97
26.97
18.55
10.94
4.04
-3.23
-11.84
-22.13
-33.57
-45.22
-56.25
-66.03
-73.95
-79.30
-81.51
-79.90
-73.96
-63.55
-49.42
-33.19
-16.86
-2.19
9.62
17.85
22.26
22.91
20.14
14.51
6.85
-1.61
-9.46
-15.55
-19.31
-20.84
-20.73
-19.71
-18.28
-16.51
-13.95
-9.96
-4.27
2.82
10.46
17.59
23.26
27.44
29.79
30.30
29.63
28.82
28.79
29.92
31.86
33.63
33.63
30.51
23.84
14.22
3.17
-7.66
-16.90
-23.64
-27.69
-29.80
-30.89
-31.66
-32.40
-32.97
-32.85
-31.11
-26.55
-16.48
-0.69
19.35
40.84
60.36
74.66
81.45
80.10
71.70
58.61
43.39
28.41
15.35
5.01
-2.45
-7.14
-9.15
-8.57
-5.81
-1.96
1.70
3.97
4.15
2.30
-0.86
-4.25
-6.97
-8.68
-9.70
-10.53
-11.51
-12.65
-13.68
-14.32
-14.45
-14.18
-13.75
-13.40
-13.14
-12.80
-12.09
-10.86
-9.10
-6.98
-4.78
-2.82
-1.35
-0.41
0.20
0.89
2.10
4.14
7.00
10.30
13.40
15.62
16.42
15.64
13.48
10.42
7.08
3.93
1.21
-1.12
-3.22
-5.22
-7.09
-8.64
-9.63
-9.96
-9.71
-9.18
-8.69
-8.47
-8.56
-8.89
-9.32
-9.76
-10.27
-10.98
-12.03
-13.46
-15.12
-16.67
-17.67
-17.63
-16.22
-13.36
-9.39
-4.84
-0.33
3.65
6.81
9.11
10.67
11.69
12.33
12.70
12.79
12.42
11.22
8.71
4.51
-1.39
-8.43
-15.48
-21.13
-24.15
-23.90
-20.59
-15.06
-8.43
-1.80
4.00
8.31
10.60
10.44
7.64
2.49
-4.11
-10.79
-16.05
-18.76
-18.48
-15.53
-10.80
-5.35
-0.06
4.56
8.43
11.67
14.48
16.93
19.01
20.65
21.84
22.77
23.79
25.41
28.14
32.33
37.97
44.54
50.93
55.62
57.10
54.31
47.06
36.16
23.14
9.77
-2.41
-12.51
-20.24
-25.74
-29.26
-31.02
-31.11
-29.66
-26.94
-23.38
-19.51
-15.83
-12.63
-9.98
-7.77
-5.88
-4.27
-3.04
-2.37
-2.35
-2.97
-3.99
-5.06
-5.76
-5.75
-4.81
-2.97
-0.52
2.05
4.13
5.20
4.89
3.10
-0.05
-4.37
-9.60
-15.39
-21.24
-26.43
-30.15
-31.70
-30.79
-27.70
-23.23
-18.45
-14.35
-11.54
-10.11
-9.71
-9.81
-9.93
-9.81
-9.44
-8.97
-8.51
-8.03
-7.37
-6.29
-4.56
-2.10
1.00
4.53
8.25
11.89
15.25
18.25
20.95
23.63
26.67
30.46
35.19
40.65
46.16
50.67
53.05
52.45
48.62
42.04
33.83
25.44
18.22
13.09
10.29
9.41
9.60
9.92
9.59
8.28
6.05
3.28
0.48
-1.96
-3.83
-5.18
-6.20
-7.15
-8.21
-9.39
-10.54
-11.42
-11.79
-11.59
-10.96
-10.24
-9.89
-10.28
-11.58
-13.75
-16.54
-19.63
-22.68
-25.33
-27.21
-27.88
-26.96
-24.20
-19.71
-13.98
-7.85
-2.27
2.00
4.53
5.37
4.88
3.59
1.99
0.48
-0.71
-1.44
-1.69
-1.52
-1.05
-0.43
0.22
0.88
1.63
2.61
3.88
5.38
6.87
8.07
8.75
8.88
8.65
8.41
8.59
9.57
11.57
14.61
18.43
22.54
26.24
28.86
29.93
29.36
27.47
24.78
21.80
18.69
15.33
11.42
6.78
1.59
-3.62
-8.14
-11.44
-13.29
-13.91
-13.73
-13.17
-12.46
-11.59
-10.42
-8.88
-7.07
-5.31
-4.02
-3.49
-3.84
-4.90
-6.38
-8.00
-9.57
-11.04
-12.36
-13.38
-13.88
-13.60
-12.48
-10.68
-8.62
-6.78
-5.53
-4.97
-4.96
-5.16
-5.19
-4.76
-3.74
-2.20
-0.40
1.28
2.43
2.67
1.85
0.01
-2.56
-5.43
-8.13
-10.30
-11.72
-12.37
-12.37
-11.97
-11.41
-10.97
-10.88
-11.25
-12.06
-13.04
-13.67
-13.28
-11.26
-7.24
-1.29
6.10
14.13
21.86
28.43
33.18
35.73
35.99
34.13
30.60
26.00
21.00
16.22
12.09
8.84
6.58
5.32
5.10
5.93
7.76
10.33
13.23
15.92
17.92
19.00
19.26
19.09
18.89
18.82
18.65
17.76
15.38
10.88
4.09
-4.61
-14.25
-23.54
-31.07
-35.64
-36.55
-33.72
-27.68
-19.44
-10.19
-1.15
6.61
12.21
15.06
14.89
11.94
6.97
1.18
-4.16
-8.02
-9.98
-10.22
-9.40
-8.25
-7.29
-6.69
-6.31
-5.90
-5.34
-4.69
-4.12
-3.77
-3.58
-3.26
-2.42
-0.74
1.78
4.86
8.03
10.73
12.53
13.10
12.25
9.88
6.15
1.53
-3.16
-6.97
-9.13
-9.43
-8.31
-6.64
-5.35
-4.97
-5.48
-6.47
-7.40
-7.91
-7.95
-7.64
-7.10
-6.40
-5.50
-4.40
-3.22
-2.19
-1.58
-1.56
-2.06
-2.81
-3.49
-3.82
-3.82
-3.75
-4.03
-5.05
-6.90
-9.33
-11.71
-13.32
-13.61
-12.40
-10.00
-7.11
-4.60
-3.31
-3.77
-6.10
-9.99
-14.78
-19.73
-24.06
-27.16
-28.72
-28.69
-27.28
-24.80
-21.64
-18.12
-14.55
-11.06
-7.64
-4.23
-0.88
2.36
5.39
8.14
10.56
12.55
14.08
15.15
15.75
15.69
14.93
13.66
12.27
11.46
11.84
14.07
18.59
25.51
34.23
43.99
54.07
63.86
73.06
79.79
81.91
78.09
68.61
54.58
37.48
19.21
0.26
-18.35
-35.32
-49.28
-59.61
-64.80
-65.15
-62.02
-57.23
-52.43
-48.44
-45.46
-43.16
-41.00
-38.56
-35.88
-33.12
-30.31
-27.43
-24.30
-20.96
-17.56
-14.41
-11.89
-10.53
-10.53
-11.58
-12.95
-13.68
-13.15
-11.38
-9.11
-7.43
-7.44
-9.52
-13.17
-17.25
-20.49
-22.04
-21.62
-19.46
-15.93
-11.47
-6.39
-1.02
4.20
8.78
12.30
14.62
15.96
16.82
17.73
18.98
20.48
21.75
22.14
21.11
18.52
14.78
10.75
7.52
6.03
6.80
9.84
14.72
20.81
27.61
34.83
42.50
50.78
59.81
69.45
79.17
88.03
94.72
97.82
96.15
89.17
77.24
61.66
44.30
27.14
11.76
-0.98
-10.86
-18.12
-23.15
-26.27
-27.78
-27.99
-27.38
-26.54
-26.01
-26.10
-26.76
-27.61
-28.03
-27.46
-25.57
-22.32
-18.02
-13.20
-8.52
-4.74
-2.53
-2.43
-4.64
-8.93
-14.58
-20.59
-25.97
-30.04
-32.58
-33.78
-33.97
-33.48
-32.52
-31.27
-30.00
-29.07
-28.83
-29.41
-30.63
-32.04
-33.14
-33.61
-33.44
-32.90
-32.41
-32.30
-32.78
-33.84
-35.27
-36.66
-37.42
-36.90
-34.56
-30.19
-24.03
-16.75
-9.17
-2.06
4.08
9.13
13.22
16.60
19.50
22.10
24.49
26.77
29.09
31.67
34.80
38.79
43.82
49.79
56.21
62.22
66.77
68.86
67.87
63.67
56.67
47.68
37.70
27.71
18.47
10.40
3.52
-2.41
-7.76
-12.83
-17.67
-22.06
-25.56
-27.67
-28.00
-26.48
-23.32
-19.09
-14.55
-10.52
-7.66
-6.27
-6.30
-7.35
-8.93
-10.56
-11.99
-13.10
-13.93
-14.54
-14.95
-15.19
-15.28
-15.30
-15.31
-15.38
-15.47
-15.47
-15.22
-14.57
-13.46
-11.94
-10.19
-8.49
-7.20
-6.67
-7.20
-8.86
-11.43
-14.36
-16.81
-17.92
-17.04
-14.02
-9.23
-3.46
2.45
7.84
12.51
16.65
20.67
24.94
29.53
34.22
38.54
42.04
44.44
45.78
46.40
46.81
47.62
49.31
52.04
55.41
58.37
59.32
56.65
49.31
37.45
22.52
6.87
-7.10
-17.73
-24.62
-28.48
-30.57
-32.02
-33.33
-34.39
-34.70
-33.79
-31.48
-27.96
-23.65
-19.08
-14.72
-10.93
-7.98
-6.11
-5.54
-6.42
-8.75
-12.24
-16.38
-20.47
-23.88
-26.21
-27.42
-27.74
-27.57
-27.22
-26.80
-26.24
-25.36
-24.00
-22.18
-20.13
-18.21
-16.76
-15.97
-15.78
-15.94
-16.12
-16.08
-15.73
-15.09
-14.20
-12.94
-11.09
-8.37
-4.68
-0.18
4.68
9.28
13.08
15.77
17.33
17.99
18.10
17.99
17.90
17.95
18.16
18.55
19.15
20.05
21.37
23.26
25.79
28.99
32.81
37.11
41.65
46.01
49.56
51.52
51.21
48.24
42.83
35.77
28.22
21.27
15.65
11.48
8.41
5.93
3.64
1.46
-0.49
-1.96
-2.84
-3.18
-3.14
-2.93
-2.73
-2.67
-2.84
-3.33
-4.26
-5.69
-7.64
-10.02
-12.64
-15.25
-17.62
-19.57
-21.07
-22.21
-23.22
-24.35
-25.76
-27.40
-28.96
-29.98
-30.02
-28.85
-26.67
-24.05
-21.72
-20.34
-20.27
-21.42
-23.34
-25.33
-26.68
-26.79
-25.36
-22.36
-18.06
-12.95
-7.67
-2.82
1.13
3.95
5.64
6.46
6.72
6.76
6.81
6.90
6.95
6.80
6.33
5.58
4.78
4.23
4.26
5.04
6.50
8.39
10.34
12.05
13.38
14.43
15.51
17.01
19.26
22.42
26.32
30.45
33.99
36.06
36.03
33.83
30.16
26.27
23.55
23.01
24.86
28.43
32.41
35.37
36.22
34.47
30.24
24.06
16.61
8.60
0.65
-6.65
-12.75
-17.18
-19.65
-20.15
-19.02
-16.87
-14.39
-12.15
-10.43
-9.16
-8.03
-6.68
-4.93
-2.93
-1.14
-0.26
-1.01
-3.83
-8.75
-15.30
-22.58
-29.53
-35.19
-38.89
-40.32
-39.54
-36.86
-32.69
-27.53
-21.88
-16.25
-11.06
-6.60
-2.96
-0.06
2.30
4.38
6.37
8.36
10.29
11.99
13.29
14.04
14.28
14.23
14.24
14.65
15.76
17.74
20.62
24.35
28.92
34.23
40.04
45.88
51.00
54.61
56.05
55.02
51.54
45.76
37.77
27.65
15.68
2.63
-10.19
-21.25
-29.30
-33.92
-35.64
-35.54
-34.78
-34.03
-33.42
-32.70
-31.70
-30.45
-29.24
-28.31
-27.68
-27.04
-26.02
-24.34
-22.07
-19.60
-17.44
-16.02
-15.48
-15.67
-16.21
-16.65
-16.71
-16.29
-15.56
-14.88
-14.70
-15.42
-17.24
-20.11
-23.71
-27.52
-30.98
-33.56
-34.89
-34.77
-33.20
-30.37
-26.52
-21.94
-16.88
-11.59
-6.37
-1.64
2.13
4.56
5.58
5.54
5.08
4.94
5.52
6.76
8.21
9.28
9.67
9.46
9.12
9.19
10.03
11.62
13.66
15.78
17.76
19.71
22.04
25.23
29.62
35.15
41.38
47.60
53.07
57.19
59.50
59.59
57.10
51.86
44.10
34.65
24.74
15.64
8.13
2.32
-2.22
-6.00
-9.14
-11.30
-11.96
-10.94
-8.65
-6.01
-4.00
-3.15
-3.31
-3.75
-3.55
-2.05
0.89
4.81
8.84
11.87
12.84
11.02
6.16
-1.32
-10.45
-19.83
-28.06
-34.12
-37.65
-39.01
-39.09
-38.92
-39.20
-40.14
-41.37
-42.25
-42.16
-40.74
-37.93
-33.95
-29.10
-23.68
-18.03
-12.53
-7.60
-3.65
-0.99
0.35
0.55
-0.00
-0.83
-1.53
-1.83
-1.64
-1.01
-0.13
0.77
1.47
1.81
1.77
1.46
1.13
1.10
1.65
2.97
5.05
7.65
10.39
12.91
15.04
16.89
18.80
21.27
24.64
29.00
34.06
39.22
43.63
46.44
46.94
44.79
40.10
33.42
25.63
17.67
10.33
4.04
-1.14
-5.41
-9.05
-12.31
-15.27
-17.86
-19.96
-21.43
-22.22
-22.36
-21.96
-21.15
-20.00
-18.57
-16.89
-15.09
-13.40
-12.15
-11.68
-12.20
-13.72
-16.02
-18.73
-21.49
-23.97
-25.94
-27.17
-27.44
-26.53
-24.34
-21.01
-16.94
-12.67
-8.66
-5.12
-1.94
1.14
4.33
7.54
10.42
12.50
13.41
13.11
11.88
10.22
8.62
7.44
6.81
6.69
6.94
7.38
7.94
8.57
9.33
10.23
11.28
12.38
13.35
14.01
14.29
14.25
14.15
14.31
15.08
16.75
19.53
23.52
28.67
34.61
40.50
45.14
47.25
45.95
41.21
33.96
25.75
18.12
12.00
7.48
3.95
0.61
-3.05
-7.14
-11.39
-15.48
-19.27
-22.78
-26.08
-29.09
-31.50
-32.90
-32.92
-31.45
-28.67
-25.04
-21.10
-17.30
-13.97
-11.20
-9.01
-7.32
-6.07
-5.15
-4.41
-3.64
-2.63
-1.35
-0.04
0.76
0.39
-1.58
-5.06
-9.35
-13.32
-15.87
-16.32
-14.63
-11.36
-7.35
-3.38
0.04
2.63
4.28
4.90
4.38
2.76
0.26
-2.69
-5.50
-7.62
-8.70
-8.66
-7.68
-6.10
-4.28
-2.44
-0.65
1.13
2.97
4.88
6.86
8.99
11.51
14.76
19.10
24.59
30.80
36.79
41.35
43.28
41.86
37.04
29.54
20.59
11.66
4.07
-1.28
-4.12
-4.74
-3.84
-2.31
-0.94
-0.26
-0.46
-1.45
-2.95
-4.66
-6.33
-7.79
-9.00
-9.96
-10.73
-11.41
-12.13
-13.09
-14.47
-16.42
-18.94
-21.86
-24.80
-27.34
-29.06
-29.73
-29.32
-27.97
-25.95
-23.64
-21.50
-20.10
-19.86
-20.86
-22.61
-24.05
-23.92
-21.20
-15.65
-7.97
0.49
8.19
13.98
17.41
18.73
18.52
17.44
15.95
14.30
12.65
11.15
9.99
9.38
9.39
9.96
10.82
11.63
12.10
12.15
11.94
11.86
12.39
13.93
16.65
20.55
25.43
30.98
36.78
42.18
46.25
47.88
46.14
40.64
31.91
21.35
10.88
2.26
-3.41
-6.01
-6.13
-4.70
-2.56
-0.23
1.98
3.80
4.84
4.72
3.21
0.46
-2.98
-6.37
-9.04
-10.62
-11.09
-10.71
-9.78
-8.49
-6.93
-5.07
-2.92
-0.58
1.79
4.02
5.94
7.45
8.37
8.53
7.74
5.83
2.81
-1.18
-5.89
-11.06
-16.47
-21.92
-27.13
-31.68
-34.99
-36.50
-35.93
-33.42
-29.55
-25.15
-20.96
-17.50
-14.91
-13.12
-11.97
-11.31
-11.01
-10.97
-11.06
-11.14
-11.17
-11.15
-11.17
-11.26
-11.41
-11.52
-11.46
-11.13
-10.51
-9.58
-8.36
-6.85
-5.06
-3.02
-0.74
1.76
4.47
7.45
10.64
13.91
16.90
19.23
20.57
20.79
20.10
18.89
17.62
16.60
15.95
15.55
15.23
14.84
14.30
13.60
12.72
11.68
10.55
9.51
8.84
8.78
9.44
10.78
12.59
14.67
16.91
19.30
21.95
24.93
28.21
31.66
35.01
37.85
39.61
39.60
37.18
32.04
24.38
15.00
4.91
-5.01
-14.46
-23.68
-33.13
-42.88
-52.29
-60.06
-64.73
-65.36
-62.03
-55.70
-47.81
-39.68
-32.15
-25.49
-19.71
-14.79
-10.82
-7.90
-6.00
-4.85
-4.06
-3.25
-2.21
-0.97
0.32
1.47
2.44
3.31
4.28
5.57
7.31
9.53
12.17
15.13
18.46
22.34
27.06
32.80
39.48
46.65
53.50
59.04
62.25
62.30
58.65
51.23
40.56
27.76
14.38
2.08
-7.84
-14.67
-18.40
-19.50
-18.64
-16.42
-13.30
-9.66
-5.84
-2.14
1.25
4.36
7.41
10.74
14.52
18.64
22.59
25.59
26.71
25.17
20.59
13.14
3.58
-6.85
-16.82
-25.22
-31.48
-35.73
-38.59
-40.89
-43.29
-46.03
-49.02
-52.00
-54.84
-57.54
-60.15
-62.53
-64.19
-64.31
-62.08
-57.04
-49.31
-39.67
-29.24
-19.24
-10.57
-3.67
1.45
5.14
7.86
9.99
11.73
13.04
13.73
13.64
12.76
11.40
10.07
9.43
10.01
12.01
15.25
19.21
23.33
27.29
31.30
36.06
42.51
51.40
62.93
76.51
90.71
103.37
111.86
113.54
106.46
89.99
65.45
35.98
5.98
-20.10
-38.99
-49.39
-51.96
-48.65
-41.72
-32.98
-23.53
-14.06
-5.23
2.11
7.01
8.83
7.59
4.15
-0.07
-3.64
-5.79
-6.74
-7.59
-9.72
-14.07
-20.66
-28.52
-36.14
-42.24
-46.25
-48.50
-49.88
-51.28
-53.17
-55.43
-57.63
-59.43
-60.81
-62.08
-63.58
-65.40
-67.18
-68.19
-67.53
-64.50
-58.80
-50.69
-40.86
-30.34
-20.21
-11.34
-4.26
0.89
4.35
6.55
7.96
8.96
9.74
10.31
10.56
10.36
9.64
8.56
7.48
6.93
7.42
9.29
12.59
17.05
22.20
27.40
32.01
35.46
37.29
37.26
35.47
32.38
28.82
25.69
23.77
23.33
24.02
25.06
25.58
25.11
23.79
22.24
21.16
20.84
20.95
20.71
19.34
16.57
12.81
8.96
5.99
4.44
4.21
4.69
5.11
4.91
3.97
2.64
1.49
1.03
1.49
2.71
4.23
5.56
6.32
6.35
5.60
4.05
1.59
-1.89
-6.32
-11.34
-16.21
-20.10
-22.27
-22.47
-21.00
-18.68
-16.48
-15.13
-14.85
-15.22
-15.45
-14.73
-12.66
-9.33
-5.29
-1.21
2.46
5.57
8.25
10.70
12.93
14.80
16.02
16.40
15.97
14.98
13.88
13.14
13.21
14.37
16.72
20.09
24.07
28.11
31.77
34.86
37.51
39.99
42.41
44.46
45.48
44.67
41.52
36.02
28.59
19.84
10.25
0.12
-10.26
-20.40
-29.51
-36.64
-41.10
-42.74
-42.06
-39.98
-37.48
-35.23
-33.49
-32.20
-31.17
-30.26
-29.48
-28.88
-28.53
-28.37
-28.31
-28.19
-27.92
-27.44
-26.76
-25.85
-24.66
-23.07
-21.00
-18.43
-15.47
-12.36
-9.44
-6.99
-5.21
-4.12
-3.62
-3.49
-3.51
-3.51
-3.49
-3.61
-4.18
-5.47
-7.57
-10.21
-12.72
-14.26
-14.07
-11.83
-7.81
-2.77
2.36
6.86
10.39
12.99
14.88
16.21
16.98
17.10
16.58
15.59
14.50
13.67
13.38
13.75
14.77
16.34
18.32
20.53
22.68
24.34
24.99
24.17
21.72
17.92
13.53
9.57
6.95
6.15
7.00
8.79
10.55
11.42
10.89
8.88
5.64
1.63
-2.56
-6.26
-8.74
-9.42
-7.98
-4.51
0.53
6.49
12.74
18.77
24.25
28.87
32.27
34.00
33.61
30.87
25.87
19.21
11.90
5.22
0.40
-1.79
-1.29
1.07
3.80
5.13
3.68
-1.12
-8.82
-18.15
-27.51
-35.53
-41.41
-45.03
-46.73
-47.03
-46.39
-45.16
-43.66
-42.20
-41.12
-40.58
-40.42
-40.11
-38.87
-35.98
-31.10
-24.45
-16.76
-9.00
-2.01
3.80
8.49
12.52
16.47
20.80
25.60
30.56
35.01
38.23
39.63
39.15
37.35
35.36
34.57
36.14
40.51
47.16
54.61
60.79
63.59
61.45
53.93
41.83
27.11
12.31
-0.15
-8.70
-13.03
-14.03
-13.40
-13.04
-14.40
-18.13
-24.00
-31.02
-37.80
-42.95
-45.44
-44.84
-41.34
-35.67
-28.81
-21.76
-15.40
-10.44
-7.34
-6.26
-6.90
-8.54
-10.11
-10.59
-9.34
-6.35
-2.24
2.04
5.58
7.77
8.45
7.84
6.36
4.49
2.60
0.99
-0.22
-1.01
-1.47
-1.71
-1.78
-1.62
-1.13
-0.28
0.76
1.74
2.32
2.36
2.04
1.81
2.35
4.25
7.82
12.95
19.17
25.78
31.95
36.89
39.96
40.79
39.35
36.01
31.47
26.58
22.20
18.92
17.00
16.39
17.00
18.63
21.00
23.65
26.04
27.64
28.10
27.33
25.51
23.29
21.32
19.91
18.83
17.51
15.38
12.08
7.61
2.27
-3.11
-7.73
-11.33
-14.31
-17.30
-20.59
-23.83
-26.01
-25.79
-21.56
-12.43
1.22
17.65
34.52
49.73
61.78
69.62
69.30
58.06
36.56
9.48
-17.06
-38.36
-52.39
-59.52
-61.85
-61.90
-61.24
-60.08
-57.74
-53.54
-47.38
-39.85
-31.98
-25.49
-20.20
-15.17
-9.33
-2.25
5.36
12.12
16.80
18.94
18.82
17.42
15.89
15.02
14.84
14.51
13.18
10.44
7.13
3.91
1.19
-0.97
-2.81
-4.63
-7.01
-9.98
-12.89
-14.90
-15.82
-16.15
-16.74
-18.30
-21.17
-25.95
-32.46
-39.63
-45.99
-50.47
-52.79
-53.08
-51.96
-50.67
-51.82
-57.42
-67.53
-80.04
-91.46
-98.19
-97.16
-87.08
-64.08
-31.07
3.49
30.83
47.13
55.28
58.08
57.27
52.97
45.85
36.51
26.64
18.73
14.83
15.34
18.79
23.19
26.87
29.01
28.77
26.24
22.36
18.33
14.88
11.90
9.09
6.15
2.89
-1.21
-6.16
-11.21
-15.24
-17.33
-17.41
-15.97
-13.87
-12.02
-11.20
-11.58
-12.61
-13.44
-13.41
-12.41
-10.72
-8.74
-6.77
-5.01
-3.45
-1.85
0.02
2.33
5.17
8.58
12.61
17.13
21.75
25.80
28.59
29.69
29.24
27.87
26.44
25.59
25.39
25.42
25.16
24.49
23.92
24.53
27.29
32.51
39.45
46.49
51.79
54.13
53.44
50.85
48.23
47.33
49.11
53.39
58.98
64.14
67.06
66.41
61.67
53.42
43.26
33.46
26.25
22.96
23.49
26.45
29.87
32.33
33.59
34.56
36.50
40.12
45.07
50.29
54.80
58.35
61.34
64.23
66.84
68.30
67.63
64.49
59.19
51.94
41.97
27.36
6.26
-21.42
-52.69
-82.01
-103.46
-113.32
-111.68
-101.93
-88.58
-74.98
-62.22
-49.86
-37.54
-26.36
-18.84
-17.73
-24.33
-37.43
-53.55
-68.15
-77.25
-78.59
-72.18
-59.80
-44.04
-27.45
-11.92
1.33
11.47
17.74
19.48
16.42
9.14
-0.76
-10.89
-18.78
-22.72
-22.33
-18.51
-13.00
-7.61
-3.66
-1.67
-1.58
-2.95
-5.35
-8.40
-11.80
-15.23
-18.32
-20.70
-22.19
-22.82
-22.94
-23.09
-23.85
-25.62
-28.49
-32.17
-36.06
-39.38
-41.31
-41.19
-38.59
-33.47
-26.22
-17.60
-8.67
-0.50
6.07
10.59
13.13
14.12
14.12
13.58
12.69
11.43
9.65
7.33
4.61
1.78
-0.83
-2.99
-4.61
-5.76
-6.62
-7.41
-8.34
-9.57
-11.18
-13.13
-15.28
-17.43
-19.39
-21.01
-22.24
-23.14
-23.87
-24.64
-25.71
-27.16
-28.84
-30.25
-30.56
-28.93
-24.81
-18.24
-9.94
-1.08
7.05
13.50
17.83
20.12
20.79
20.35
19.21
17.62
15.69
13.54
11.29
9.07
6.97
4.95
2.90
0.69
-1.69
-4.07
-6.14
-7.63
-8.46
-8.79
-9.01
-9.51
-10.49
-11.94
-13.61
-15.24
-16.60
-17.66
-18.56
-19.52
-20.85
-22.84
-25.66
-29.18
-32.90
-35.98
-37.46
-36.57
-33.00
-26.95
-19.05
-10.06
-0.70
8.42
16.80
23.97
29.53
33.23
35.02
35.11
33.92
31.90
29.49
26.99
24.58
22.35
20.29
18.35
16.48
14.63
12.80
11.03
9.35
7.83
6.52
5.44
4.58
3.81
2.92
1.69
-0.07
-2.35
-4.97
-7.59
-9.88
-11.65
-12.90
-13.81
-14.72
-16.01
-18.01
-20.89
-24.48
-28.15
-30.85
-31.37
-28.71
-22.53
-13.33
-2.38
8.65
18.28
25.55
30.20
32.57
33.22
32.72
31.47
29.66
27.43
24.91
22.24
19.56
16.97
14.55
12.36
10.47
8.90
7.61
6.51
5.42
4.20
2.77
1.19
-0.44
-1.99
-3.42
-4.77
-6.12
-7.53
-8.99
-10.45
-11.83
-13.09
-14.23
-15.25
-16.19
-17.15
-18.31
-19.89
-22.02
-24.56
-26.96
-28.31
-27.52
-23.81
-16.99
-7.63
3.07
13.64
22.80
29.74
34.18
36.31
36.56
35.40
33.27
30.53
27.46
24.30
21.22
18.33
15.71
13.38
11.29
9.37
7.52
5.68
3.84
2.05
0.39
-1.05
-2.27
-3.32
-4.30
-5.37
-6.65
-8.18
-9.94
-11.81
-13.63
-15.28
-16.67
-17.82
-18.84
-19.89
-21.15
-22.79
-24.93
-27.55
-30.40
-32.90
-34.13
-33.05
-28.86
-21.40
-11.25
0.25
11.52
21.16
28.33
32.89
35.16
35.69
34.96
33.33
31.05
28.40
25.67
23.14
20.96
19.11
17.38
15.52
13.36
10.93
8.44
6.21
4.51
3.42
2.77
2.20
1.38
0.13
-1.47
-3.16
-4.65
-5.74
-6.46
-7.04
-7.81
-8.99
-10.67
-12.72
-14.88
-16.85
-18.40
-19.43
-20.07
-20.59
-21.39
-22.83
-25.10
-28.02
-30.90
-32.69
-32.22
-28.59
-21.60
-11.83
-0.56
10.63
20.32
27.62
32.27
34.53
34.92
34.00
32.28
30.13
27.85
25.66
23.65
21.82
20.05
18.15
15.99
13.52
10.85
8.24
5.99
4.32
3.31
2.79
2.43
1.85
0.80
-0.68
-2.33
-3.77
-4.75
-5.28
-5.65
-6.26
-7.41
-9.14
-11.23
-13.32
-15.08
-16.37
-17.23
-17.90
-18.67
-19.85
-21.71
-24.32
-27.44
-30.43
-32.27
-31.83
-28.21
-21.16
-11.27
0.18
11.54
21.28
28.43
32.73
34.48
34.32
32.87
30.61
27.84
24.76
21.58
18.50
15.74
13.40
11.43
9.69
7.97
6.12
4.11
2.04
0.10
-1.53
-2.73
-3.52
-4.06
-4.60
-5.43
-6.75
-8.57
-10.74
-12.97
-15.00
-16.67
-17.98
-19.02
-19.99
-21.12
-22.66
-24.84
-27.74
-31.09
-34.16
-35.84
-34.88
-30.38
-22.20
-11.12
1.34
13.41
23.60
31.05
35.61
37.66
37.80
36.61
34.55
31.95
29.10
26.24
23.54
21.07
18.79
16.55
14.23
11.79
9.34
7.09
5.27
4.01
3.22
2.64
1.93
0.83
-0.70
-2.45
-4.14
-5.51
-6.54
-7.43
-8.49
-10.01
-12.05
-14.41
-16.76
-18.75
-20.20
-21.18
-21.99
-23.01
-24.59
-26.94
-30.01
-33.37
-36.21
-37.42
-35.85
-30.70
-21.89
-10.27
2.56
14.76
24.83
32.00
36.30
38.32
38.76
38.13
36.72
34.66
32.11
29.30
26.47
23.77
21.17
18.54
15.79
12.91
10.08
7.56
5.55
4.09
3.09
2.27
1.37
0.23
-1.16
-2.64
-4.01
-5.12
-5.97
-6.72
-7.66
-9.06
-11.03
-13.44
-15.99
-18.27
-19.98
-21.04
-21.61
-22.10
-23.01
-24.74
-27.45
-30.80
-33.98
-35.77
-34.89
-30.41
-22.21
-11.07
1.45
13.51
23.53
30.63
34.69
36.18
35.82
34.25
31.94
29.16
26.08
22.88
19.76
16.86
14.27
11.94
9.74
7.56
5.34
3.14
1.09
-0.61
-1.86
-2.64
-3.04
-3.27
-3.56
-4.17
-5.25
-6.88
-8.94
-11.18
-13.26
-14.90
-16.03
-16.78
-17.53
-18.66
-20.52
-23.24
-26.72
-30.46
-33.66
-35.22
-34.00
-29.19
-20.65
-9.16
3.73
16.16
26.48
33.75
37.87
39.36
38.96
37.34
34.95
32.09
29.01
25.99
23.24
20.81
18.58
16.33
13.88
11.24
8.61
6.28
4.44
3.14
2.21
1.40
0.49
-0.64
-1.97
-3.42
-4.90
-6.37
-7.88
-9.49
-11.26
-13.18
-15.18
-17.14
-18.98
-20.65
-22.15
-23.57
-25.08
-26.92
-29.29
-32.19
-35.18
-37.31
-37.33
-34.11
-27.14
-16.87
-4.63
7.83
18.86
27.42
33.23
36.54
37.90
37.81
36.64
34.70
32.20
29.42
26.56
23.78
21.10
18.47
15.81
13.09
10.39
7.86
5.69
4.02
2.81
1.88
0.99
-0.09
-1.41
-2.86
-4.27
-5.51
-6.59
-7.67
-9.00
-10.74
-12.88
-15.26
-17.55
-19.46
-20.82
-21.66
-22.30
-23.24
-24.99
-27.85
-31.60
-35.39
-37.83
-37.43
-33.14
-24.80
-13.30
-0.30
12.28
22.85
30.54
35.26
37.48
37.84
36.88
34.95
32.22
28.90
25.26
21.63
18.32
15.52
13.17
11.11
9.10
6.98
4.79
2.69
0.89
-0.45
-1.33
-1.90
-2.48
-3.38
-4.84
-6.89
-9.36
-11.93
-14.25
-16.07
-17.36
-18.33
-19.29
-20.58
-22.49
-25.15
-28.52
-32.26
-35.72
-37.88
-37.57
-33.81
-26.26
-15.40
-2.57
10.48
22.05
31.05
37.10
40.46
41.69
41.37
39.91
37.58
34.61
31.29
27.93
24.82
22.04
19.52
17.05
14.46
11.76
9.18
7.02
5.51
4.59
3.94
3.12
1.78
-0.10
-2.23
-4.20
-5.70
-6.73
-7.54
-8.54
-10.02
-12.06
-14.49
-17.01
-19.33
-21.28
-22.83
-24.16
-25.56
-27.43
-30.08
-33.58
-37.51
-40.91
-42.44
-40.80
-35.15
-25.54
-12.98
0.81
13.95
24.92
32.95
37.98
40.50
41.11
40.32
38.46
35.81
32.70
29.56
26.80
24.59
22.83
21.11
18.99
16.27
13.07
9.83
7.09
5.21
4.20
3.71
3.23
2.33
0.80
-1.23
-3.44
-5.44
-6.96
-7.96
-8.62
-9.24
-10.11
-11.44
-13.24
-15.38
-17.60
-19.65
-21.32
-22.54
-23.47
-24.42
-25.84
-28.12
-31.35
-35.09
-38.33
-39.66
-37.70
-31.66
-21.68
-8.96
4.64
17.15
27.10
33.81
37.39
38.43
37.66
35.66
32.84
29.48
25.83
22.18
18.82
15.98
13.76
12.08
10.74
9.46
8.05
6.47
4.81
3.23
1.83
0.60
-0.58
-1.87
-3.32
-4.91
-6.58
-8.30
-10.09
-12.03
-14.15
-16.37
-18.48
-20.27
-21.66
-22.76
-23.94
-25.70
-28.37
-31.90
-35.62
-38.33
-38.59
-35.25
-27.91
-17.16
-4.39
8.63
20.30
29.59
36.08
39.89
41.37
40.98
39.20
36.53
33.46
30.43
27.73
25.45
23.46
21.52
19.38
16.94
14.23
11.50
9.02
7.07
5.71
4.80
4.04
3.04
1.57
-0.35
-2.50
-4.54
-6.22
-7.48
-8.52
-9.64
-11.12
-13.08
-15.42
-17.90
-20.20
-22.12
-23.58
-24.71
-25.83
-27.35
-29.65
-32.89
-36.74
-40.28
-42.16
-40.97
-35.74
-26.41
-13.97
-0.14
13.15
24.34
32.64
38.01
40.86
41.72
40.99
38.99
36.08
32.69
29.35
26.48
24.20
22.34
20.51
18.35
15.74
12.81
9.92
7.46
5.67
4.53
3.81
3.13
2.13
0.62
-1.38
-3.58
-5.62
-7.16
-8.13
-8.72
-9.36
-10.49
-12.32
-14.76
-17.43
-19.84
-21.61
-22.67
-23.25
-23.81
-24.89
-26.92
-30.04
-33.92
-37.73
-40.22
-40.03
-36.14
-28.30
-17.19
-4.32
8.46
19.52
27.86
33.28
36.15
37.10
36.65
35.13
32.70
29.55
25.98
22.39
19.18
16.58
14.59
13.04
11.64
10.21
8.66
7.02
5.37
3.79
2.34
1.07
0.00
-0.89
-1.72
-2.69
-4.03
-5.89
-8.32
-11.15
-14.12
-16.88
-19.20
-20.94
-22.15
-23.09
-24.13
-25.73
-28.26
-31.76
-35.69
-38.97
-40.14
-37.83
-31.33
-20.88
-7.78
6.06
18.69
28.73
35.58
39.42
40.84
40.51
38.96
36.53
33.51
30.19
26.91
23.92
21.31
18.97
16.68
14.24
11.65
9.11
6.90
5.30
4.37
3.94
3.69
3.23
2.26
0.70
-1.30
-3.45
-5.43
-7.01
-8.20
-9.19
-10.31
-11.86
-13.96
-16.47
-19.02
-21.22
-22.83
-23.88
-24.69
-25.78
-27.66
-30.64
-34.59
-38.82
-42.12
-43.04
-40.35
-33.48
-22.84
-9.77
3.86
16.29
26.31
33.45
37.87
40.04
40.45
39.51
37.58
35.06
32.33
29.74
27.39
25.18
22.86
20.18
17.08
13.73
10.49
7.75
5.78
4.61
4.01
3.59
2.95
1.84
0.25
-1.60
-3.42
-4.96
-6.19
-7.28
-8.52
-10.20
-12.42
-15.01
-17.61
-19.81
-21.33
-22.14
-22.50
-22.87
-23.81
-25.76
-28.88
-32.88
-36.88
-39.56
-39.47
-35.51
-27.35
-15.76
-2.36
10.83
22.05
30.24
35.20
37.41
37.58
36.35
34.15
31.26
27.90
24.34
20.91
17.89
15.40
13.42
11.81
10.37
8.93
7.37
5.67
3.86
2.07
0.44
-0.89
-1.93
-2.81
-3.81
-5.20
-7.11
-9.50
-12.09
-14.55
-16.64
-18.24
-19.44
-20.48
-21.62
-23.14
-25.27
-28.16
-31.75
-35.66
-39.02
-40.63
-39.20
-33.89
-24.64
-12.35
1.32
14.53
25.76
34.20
39.76
42.85
44.01
43.67
42.12
39.61
36.48
33.09
29.79
26.78
24.01
21.33
18.55
15.62
12.70
10.07
8.00
6.59
5.71
5.03
4.13
2.76
0.88
-1.26
-3.30
-4.95
-6.17
-7.19
-8.41
-10.18
-12.60
-15.48
-18.40
-20.92
-22.80
-24.06
-24.98
-25.99
-27.56
-30.05
-33.56
-37.77
-41.80
-44.31
-43.80
-39.15
-30.09
-17.48
-3.08
11.02
23.02
31.92
37.60
40.56
41.48
40.95
39.37
37.01
34.13
31.04
28.03
25.24
22.64
20.09
17.39
14.50
11.57
8.89
6.75
5.33
4.52
4.01
3.40
2.35
0.76
-1.21
-3.28
-5.16
-6.69
-7.93
-9.09
-10.40
-12.03
-13.93
-15.96
-17.90
-19.57
-20.90
-21.95
-22.94
-24.19
-26.08
-28.94
-32.78
-37.07
-40.68
-42.04
-39.68
-32.77
-21.60
-7.59
7.14
20.43
30.79
37.68
41.40
42.67
42.23
40.52
37.79
34.23
30.15
25.99
22.19
19.03
16.48
14.31
12.23
10.09
7.98
6.15
4.81
4.00
3.50
2.95
2.02
0.57
-1.29
-3.25
-4.99
-6.36
-7.48
-8.68
-10.31
-12.57
-15.36
-18.33
-21.01
-23.05
-24.38
-25.25
-26.13
-27.56
-29.96
-33.48
-37.81
-42.12
-45.12
-45.32
-41.53
-33.31
-21.27
-6.97
7.57
20.53
30.74
37.88
42.27
44.50
45.08
44.34
42.47
39.71
36.37
32.87
29.55
26.60
23.97
21.45
18.84
16.05
13.24
10.71
8.77
7.57
6.97
6.59
5.96
4.73
2.79
0.34
-2.25
-4.55
-6.31
-7.51
-8.34
-9.14
-10.25
-11.86
-13.99
-16.46
-18.97
-21.24
-23.06
-24.39
-25.35
-26.27
-27.55
-29.60
-32.68
-36.64
-40.76
-43.76
-44.04
-40.30
-32.04
-19.93
-5.67
8.55
20.78
29.89
35.71
38.77
39.83
39.48
38.02
35.62
32.48
28.97
25.48
22.28
19.38
16.55
13.53
10.31
7.15
4.47
2.65
1.75
1.45
1.21
0.57
-0.69
-2.39
-4.18
-5.67
-6.73
-7.48
-8.23
-9.28
-10.83
-12.83
-15.07
-17.24
-19.09
-20.46
-21.41
-22.16
-23.08
-24.62
-27.14
-30.68
-34.79
-38.46
-40.23
-38.67
-32.89
-22.96
-10.01
4.10
17.39
28.34
36.21
41.05
43.35
43.71
42.59
40.32
37.20
33.60
29.96
26.67
23.92
21.62
19.50
17.23
14.67
11.91
9.27
7.10
5.64
4.86
4.46
4.01
3.12
1.60
-0.51
-2.90
-5.19
-7.03
-8.31
-9.18
-10.02
-11.25
-13.15
-15.67
-18.55
-21.33
-23.64
-25.31
-26.46
-27.40
-28.58
-30.42
-33.22
-36.94
-40.99
-44.24
-45.17
-42.36
-35.08
-23.67
-9.53
5.32
18.86
29.75
37.46
42.16
44.40
44.73
43.59
41.32
38.26
34.81
31.35
28.20
25.47
23.09
20.84
18.44
15.75
12.82
9.93
7.47
5.74
4.79
4.36
3.99
3.22
1.86
0.00
-2.01
-3.80
-5.18
-6.20
-7.09
-8.18
-9.69
-11.70
-14.11
-16.67
-19.05
-20.95
-22.26
-23.08
-23.72
-24.68
-26.43
-29.27
-33.14
-37.48
-41.22
-42.95
-41.31
-35.43
-25.39
-12.27
2.03
15.46
26.37
33.98
38.40
40.25
40.31
39.12
36.93
33.90
30.17
26.05
21.91
18.09
14.77
11.99
9.69
7.79
6.24
5.00
4.05
3.30
2.60
1.79
0.73
-0.61
-2.15
-3.78
-5.38
-6.92
-8.48
-10.19
-12.16
-14.41
-16.82
-19.18
-21.28
-22.99
-24.37
-25.65
-27.25
-29.56
-32.81
-36.75
-40.54
-42.80
-42.04
-37.11
-27.80
-14.96
-0.32
14.06
26.42
35.72
41.71
44.76
45.50
44.54
42.44
39.62
36.46
33.25
30.16
27.24
24.40
21.55
18.65
15.74
12.95
10.45
8.41
6.90
5.87
5.10
4.33
3.26
1.74
-0.16
-2.20
-4.05
-5.51
-6.59
-7.59
-8.92
-10.91
-13.64
-16.87
-20.17
-23.12
-25.47
-27.23
-28.69
-30.25
-32.36
-35.29
-39.00
-42.93
-46.05
-46.96
-44.35
-37.50
-26.64
-13.00
1.56
15.14
26.36
34.63
40.06
43.11
44.26
43.88
42.25
39.68
36.61
33.46
30.54
27.91
25.37
22.64
19.51
16.02
12.47
9.29
6.86
5.35
4.65
4.35
3.98
3.14
1.69
-0.22
-2.25
-4.04
-5.42
-6.48
-7.53
-8.91
-10.82
-13.22
-15.83
-18.26
-20.24
-21.69
-22.74
-23.73
-25.04
-27.04
-29.96
-33.72
-37.82
-41.26
-42.66
-40.70
-34.55
-24.32
-11.17
3.02
16.23
26.89
34.29
38.53
40.23
40.10
38.65
36.14
32.75
28.69
24.36
20.22
16.65
13.82
11.66
9.93
8.38
6.86
5.38
4.01
2.82
1.79
0.86
-0.06
-1.04
-2.14
-3.42
-5.00
-7.03
-9.53
-12.42
-15.41
-18.18
-20.45
-22.15
-23.41
-24.53
-25.88
-27.83
-30.63
-34.27
-38.38
-42.06
-44.01
-42.85
-37.57
-28.03
-15.09
-0.43
13.96
26.35
35.74
41.89
45.17
46.18
45.54
43.73
41.12
38.04
34.81
31.69
28.79
26.10
23.44
20.64
17.66
14.64
11.86
9.65
8.19
7.39
6.96
6.48
5.61
4.23
2.48
0.64
-1.08
-2.60
-4.15
-6.08
-8.72
-12.22
-16.37
-20.71
-24.67
-27.80
-29.92
-31.26
-32.31
-33.74
-36.08
-39.53
-43.77
-47.86
-50.37
-49.79
-44.93
-35.51
-22.29
-6.96
8.36
21.78
32.12
39.10
43.08
44.74
44.66
43.22
40.66
37.27
33.50
29.83
26.70
24.22
22.20
20.21
17.87
15.06
12.01
9.20
7.10
5.91
5.48
5.34
4.97
4.02
2.45
0.49
-1.51
-3.27
-4.77
-6.17
-7.72
-9.64
-11.97
-14.56
-17.14
-19.41
-21.16
-22.39
-23.28
-24.17
-25.47
-27.53
-30.55
-34.43
-38.60
-42.03
-43.39
-41.39
-35.26
-25.13
-12.10
2.03
15.30
26.19
33.88
38.37
40.13
39.86
38.14
35.41
31.97
28.12
24.11
20.23
16.67
13.54
10.86
8.61
6.75
5.23
4.02
3.03
2.12
1.12
-0.14
-1.72
-3.59
-5.62
-7.66
-9.67
-11.70
-13.90
-16.41
-19.27
-22.37
-25.50
-28.43
-31.00
-33.25
-35.36
-37.64
-40.51
-44.37
-49.42
-55.50
-61.87
-67.21
-69.96
-68.79
-63.14
-53.57
-41.62
-29.25
-18.27
-9.90
-4.63
-2.57
-3.64
-7.62
-14.02
-21.74
-29.07
-33.97
-34.71
-30.44
-21.47
-9.04
5.16
19.71
33.76
47.01
59.36
70.55
79.97
86.83
90.36
90.07
85.66
77.04
64.37
48.45
31.07
14.89
2.70
-3.79
-4.85
-2.72
-0.62
-1.18
-5.32
-12.09
-19.58
-26.25
-31.63
-36.24
-40.74
-45.06
-48.08
-48.20
-44.22
-36.08
-25.06
-13.24
-2.80
4.86
9.53
12.14
14.23
17.31
22.10
28.32
34.81
40.01
42.59
41.93
38.17
32.03
24.39
16.08
7.67
-0.48
-8.19
-15.52
-22.76
-30.42
-38.85
-47.87
-56.49
-62.99
-65.49
-62.77
-54.93
-43.53
-31.13
-20.21
-12.39
-7.96
-6.19
-6.09
-7.11
-9.33
-13.18
-18.87
-25.99
-33.70
-41.19
-48.28
-55.46
-63.34
-71.73
-79.03
-82.49
-79.24
-67.79
-48.93
-25.76
-2.47
17.16
31.08
39.44
43.83
46.20
47.84
49.11
49.73
49.28
47.61
44.90
41.68
38.38
35.16
31.88
28.21
23.98
19.31
14.79
11.28
9.93
11.37
15.28
20.52
25.78
30.36
34.35
38.64
43.96
51.22
59.97
68.27
73.40
73.21
67.30
56.82
44.62
33.74
28.55
31.75
43.23
60.04
78.06
93.74
104.34
109.44
109.47
108.57
110.51
117.06
127.40
139.53
151.96
163.05
173.10
182.30
194.93
214.45
241.52
273.51
306.44
337.38
363.82
386.29
378.49
324.75
227.81
109.36
-5.19
-100.28
-164.49
-207.19
-235.71
-254.86
-263.72
-261.45
-250.22
-234.44
-219.07
-207.22
-200.80
-198.36
-198.37
-196.64
-190.13
-178.28
-163.12
-147.55
-133.36
-121.76
-111.49
-101.40
-88.93
-72.73
-53.48
-33.80
-16.93
-5.11
0.37
0.44
-3.45
-8.75
-13.29
-15.86
-16.33
-15.28
-13.39
-11.58
-10.29
-10.09
-11.13
-13.40
-16.64
-20.44
-24.24
-27.44
-29.69
-30.83
-31.09
-30.97
-30.92
-31.19
-31.78
-32.59
-33.51
-34.58
-35.95
-37.76
-40.03
-42.52
-44.79
-46.25
-46.36
-44.75
-41.25
-35.97
-29.22
-21.47
-13.34
-5.53
1.27
6.50
9.92
11.71
12.44
12.86
13.59
14.88
16.46
17.73
18.02
16.96
14.62
11.50
8.27
5.41
3.10
1.16
-0.69
-2.63
-4.62
-6.43
-7.89
-8.98
-9.92
-11.06
-12.67
-14.85
-17.42
-20.01
-22.14
-23.36
-23.32
-21.88
-19.12
-15.39
-11.19
-7.06
-3.47
-0.73
1.11
2.24
3.00
3.80
4.85
6.13
7.36
8.28
9.02
10.17
12.63
16.98
22.93
29.15
33.71
35.05
32.86
28.37
23.78
21.21
21.67
24.67
28.58
31.61
32.56
31.32
28.61
25.49
22.76
20.65
19.01
17.53
16.19
15.32
15.53
17.39
21.26
27.15
34.70
43.21
51.59
58.44
62.19
61.52
55.92
46.11
34.08
22.51
13.93
9.89
10.49
14.73
21.06
28.22
35.54
42.95
50.58
58.43
66.16
73.21
78.99
83.02
85.07
85.05
83.05
79.26
74.07
68.09
61.95
56.16
50.84
45.68
40.00
32.91
23.60
11.70
-2.53
-18.17
-33.94
-48.58
-61.12
-71.03
-78.15
-82.67
-84.86
-85.13
-83.98
-82.12
-80.23
-78.67
-77.35
-75.82
-73.97
-71.85
-69.75
-68.04
-67.10
-67.09
-67.86
-69.10
-70.48
-72.49
-75.44
-79.01
-82.31
-84.43
-84.93
-83.98
-82.25
-80.64
-80.96
-84.07
-89.28
-94.85
-99.17
-101.59
-102.45
-102.51
-102.37
-103.38
-105.60
-107.43
-106.46
-100.96
-90.73
-76.88
-61.39
-37.93
-6.39
27.09
54.37
71.89
82.26
90.88
101.87
115.95
130.00
139.72
141.86
136.14
125.10
112.40
101.04
92.65
87.36
84.76
83.12
80.88
77.49
73.38
69.17
65.17
61.35
57.48
53.31
47.82
40.04
29.52
16.34
0.96
-15.65
-31.75
-44.86
-52.44
-53.22
-47.54
-37.14
-24.47
-11.91
-1.02
7.66
14.26
18.97
21.44
21.02
17.46
11.27
3.84
-3.13
-8.23
-10.86
-11.40
-10.84
-10.25
-10.21
-10.65
-10.96
-10.45
-8.72
-6.01
-3.03
-0.79
-0.16
-1.57
-4.91
-9.65
-15.08
-20.56
-25.61
-29.79
-32.58
-33.37
-31.54
-26.81
-19.42
-10.25
-0.62
8.10
14.78
18.82
20.16
19.17
16.49
12.81
8.70
4.52
0.39
-3.69
-7.74
-11.71
-15.39
-18.62
-21.32
-23.61
-25.79
-28.10
-30.69
-33.49
-36.30
-38.90
-41.18
-43.16
-45.01
-46.98
-49.34
-52.40
-56.36
-61.13
-66.03
-69.57
-69.62
-63.94
-51.06
-31.10
-5.97
21.03
46.23
66.74
81.12
89.45
92.80
92.48
89.50
84.44
77.64
69.49
60.59
51.67
43.38
36.10
29.78
24.08
18.47
12.49
5.94
-1.11
-8.32
-15.29
-21.61
-27.06
-31.57
-35.33
-38.70
-42.20
-46.38
-51.74
-58.41
-65.95
-73.15
-78.05
-78.30
-71.87
-57.81
-36.78
-11.06
16.05
41.16
61.73
76.55
85.69
90.04
90.78
88.89
85.10
79.94
73.84
67.18
60.21
53.05
45.71
38.18
30.54
23.01
15.85
9.26
3.26
-2.31
-7.78
-13.41
-19.32
-25.34
-31.11
-36.21
-40.45
-43.96
-47.25
-51.09
-56.17
-62.79
-70.48
-77.84
-82.61
-82.19
-74.47
-58.67
-35.85
-8.78
18.79
43.30
62.34
75.09
82.07
84.55
83.83
80.86
76.25
70.47
63.98
57.24
50.53
43.89
37.18
30.19
22.93
15.63
8.69
2.43
-3.06
-8.00
-12.79
-17.76
-23.02
-28.37
-33.42
-37.75
-41.17
-43.84
-46.31
-49.32
-53.66
-59.75
-67.24
-74.79
-80.08
-80.37
-73.37
-58.20
-35.86
-9.18
18.08
42.35
61.24
73.92
80.91
83.35
82.46
79.14
74.01
67.59
60.40
52.92
45.49
38.20
31.00
23.79
16.63
9.75
3.43
-2.14
-7.04
-11.56
-16.09
-20.89
-25.93
-30.94
-35.51
-39.35
-42.42
-45.00
-47.70
-51.26
-56.28
-62.89
-70.38
-77.05
-80.41
-77.87
-67.73
-49.92
-26.31
-0.11
25.11
46.54
62.79
73.80
80.31
83.15
82.98
80.22
75.38
69.17
62.45
55.92
49.84
44.01
37.95
31.24
23.82
16.11
8.85
2.79
-1.67
-4.67
-6.90
-9.29
-12.61
-17.20
-22.77
-28.58
-33.80
-37.83
-40.59
-42.53
-44.42
-47.18
-51.51
-57.64
-65.04
-72.27
-77.07
-76.85
-69.59
-54.62
-33.12
-7.88
17.53
39.98
57.53
69.73
77.19
80.89
81.57
79.61
75.26
68.97
61.53
53.93
46.98
41.00
35.75
30.60
24.91
18.37
11.19
4.03
-2.27
-7.05
-10.15
-11.96
-13.34
-15.24
-18.35
-22.76
-27.98
-33.16
-37.47
-40.45
-42.23
-43.42
-44.86
-47.34
-51.36
-57.04
-64.02
-71.35
-77.40
-79.93
-76.66
-66.02
-47.95
-24.25
1.86
26.76
47.53
62.71
72.34
77.29
78.59
76.87
72.44
65.68
57.33
48.57
40.58
34.09
29.06
24.75
20.20
14.69
8.25
1.58
-4.25
-8.31
-10.35
-10.95
-11.29
-12.68
-15.96
-21.14
-27.39
-33.43
-38.16
-41.11
-42.64
-43.74
-45.62
-49.23
-55.03
-62.76
-71.45
-79.40
-84.42
-84.08
-76.49
-61.04
-38.94
-13.10
12.73
35.10
51.80
62.28
67.32
68.36
66.69
63.07
57.88
51.54
44.82
38.74
34.21
31.69
30.90
30.73
29.60
26.07
19.72
11.43
3.10
-3.17
-5.83
-4.65
-0.76
3.88
6.75
6.16
2.57
-2.04
-5.86
-8.46
-10.54
-13.05
-16.31
-19.80
-22.48
-23.52
-22.87
-21.17
-19.17
-17.33
-15.78
-14.57
-13.82
-13.45
-12.98
-11.69
-8.89
-4.44
0.95
5.90
9.01
9.61
8.18
6.11
4.61
4.34
5.27
6.87
8.55
10.06
11.52
13.26
15.37
17.58
19.37
20.28
20.06
18.76
16.91
15.23
14.28
14.07
14.00
13.24
11.03
6.97
1.19
-5.36
-11.23
-15.05
-16.33
-15.74
-14.83
-15.31
-18.58
-25.28
-34.58
-44.37
-52.05
-55.39
-52.93
-44.07
-29.03
-8.08
15.36
35.52
47.23
48.82
42.61
33.15
24.93
20.63
20.47
22.81
25.39
26.97
27.38
27.02
26.25
25.17
23.63
21.47
18.31
13.87
8.58
3.22
-1.49
-5.22
-8.03
-10.38
-12.90
-16.50
-20.90
-25.29
-28.50
-29.47
-28.03
-25.05
-23.14
-23.41
-26.15
-30.71
-35.88
-40.66
-43.78
-45.38
-46.46
-48.34
-51.80
-56.90
-62.53
-66.52
-66.20
-59.29
-45.05
-24.56
-0.52
23.74
45.14
61.87
73.57
80.93
84.94
86.12
84.57
80.32
73.83
65.96
57.87
50.50
44.29
39.07
34.25
29.29
24.00
18.69
13.94
10.34
8.22
7.49
7.69
8.11
8.06
7.10
5.12
2.29
-1.05
-4.56
-7.95
-11.06
-13.93
-16.68
-19.53
-22.72
-26.48
-30.98
-36.08
-41.28
-45.60
-47.71
-46.34
-40.74
-31.06
-18.44
-4.71
8.26
19.10
27.23
32.87
36.58
38.89
40.09
40.20
39.19
37.17
34.42
31.29
27.99
24.57
20.88
16.80
12.39
7.92
3.88
0.75
-1.18
-1.96
-1.93
-1.65
-1.66
-2.30
-3.60
-5.31
-7.06
-8.57
-9.81
-11.02
-12.58
-14.77
-17.62
-20.88
-24.10
-26.94
-29.24
-31.12
-32.91
-34.99
-37.69
-41.27
-45.74
-50.82
-55.70
-59.05
-59.30
-55.13
-46.06
-32.77
-17.03
-1.09
13.00
24.04
31.79
36.73
39.54
40.73
40.53
38.99
36.25
32.56
28.32
23.94
19.69
15.72
12.12
8.95
6.29
4.23
2.77
1.85
1.35
1.08
0.88
0.62
0.15
-0.62
-1.77
-3.35
-5.38
-7.85
-10.68
-13.74
-16.83
-19.74
-22.25
-24.31
-26.03
-27.74
-29.90
-32.91
-36.91
-41.53
-45.77
-48.24
-47.48
-42.52
-33.28
-20.68
-6.42
7.63
19.92
29.60
36.54
41.05
43.60
44.59
44.28
42.96
40.90
38.45
35.87
33.30
30.70
27.97
25.01
21.87
18.74
15.94
13.76
12.32
11.51
10.98
10.28
9.03
7.10
4.67
2.13
-0.09
-1.78
-3.08
-4.41
-6.25
-8.91
-12.37
-16.29
-20.15
-23.52
-26.19
-28.21
-29.87
-31.65
-34.03
-37.42
-41.88
-46.96
-51.66
-54.52
-54.07
-49.30
-40.10
-27.32
-12.56
2.34
15.78
26.79
35.05
40.75
44.29
46.13
46.60
45.98
44.51
42.43
39.95
37.22
34.28
31.07
27.51
23.59
19.48
15.50
12.08
9.61
8.23
7.78
7.84
7.84
7.30
6.01
4.06
1.76
-0.48
-2.37
-3.83
-5.05
-6.37
-8.11
-10.44
-13.26
-16.25
-19.05
-21.36
-23.12
-24.53
-25.92
-27.71
-30.25
-33.78
-38.25
-43.25
-47.91
-50.95
-51.00
-47.01
-38.69
-26.71
-12.56
1.91
14.99
25.56
33.19
38.00
40.40
40.85
39.77
37.56
34.56
31.12
27.50
23.83
20.15
16.46
12.80
9.33
6.36
4.17
2.98
2.76
3.24
3.96
4.48
4.51
3.95
2.95
1.69
0.30
-1.19
-2.90
-4.94
-7.37
-10.12
-13.01
-15.81
-18.31
-20.42
-22.24
-23.99
-26.09
-28.93
-32.76
-37.46
-42.43
-46.53
-48.37
-46.69
-40.79
-30.86
-17.95
-3.73
10.08
22.09
31.56
38.32
42.61
44.78
45.18
44.13
41.97
39.13
36.05
33.04
30.25
27.53
24.66
21.39
17.75
14.02
10.67
8.21
6.90
6.64
6.99
7.38
7.26
6.39
4.82
2.85
0.86
-0.88
-2.32
-3.65
-5.17
-7.21
-9.89
-13.12
-16.61
-19.97
-22.91
-25.32
-27.32
-29.21
-31.43
-34.39
-38.35
-43.22
-48.35
-52.56
-54.37
-52.39
-45.88
-35.07
-21.19
-6.07
8.37
20.66
30.08
36.59
40.60
42.63
43.19
42.68
41.45
39.79
37.94
36.04
34.03
31.74
28.95
25.55
21.63
17.54
13.82
10.98
9.34
8.83
9.03
9.32
9.10
8.05
6.19
3.89
1.62
-0.22
-1.51
-2.42
-3.37
-4.77
-6.90
-9.76
-13.07
-16.41
-19.36
-21.70
-23.46
-24.93
-26.52
-28.66
-31.72
-35.87
-40.95
-46.28
-50.65
-52.53
-50.50
-43.84
-32.89
-19.00
-4.13
9.78
21.38
30.12
36.10
39.74
41.46
41.53
40.14
37.55
34.14
30.38
26.67
23.19
19.92
16.67
13.31
9.86
6.58
3.82
1.87
0.78
0.35
0.23
0.03
-0.43
-1.17
-2.08
-3.05
-4.08
-5.26
-6.75
-8.65
-10.94
-13.48
-16.03
-18.40
-20.47
-22.31
-24.15
-26.33
-29.25
-33.15
-37.92
-42.89
-46.88
-48.45
-46.27
-39.71
-29.03
-15.45
-0.75
13.23
25.06
33.98
39.92
43.22
44.41
44.00
42.45
40.13
37.34
34.33
31.24
28.10
24.82
21.35
17.74
14.23
11.19
8.99
7.80
7.46
7.56
7.55
6.97
5.65
3.68
1.40
-0.82
-2.72
-4.29
-5.69
-7.25
-9.26
-11.87
-15.03
-18.52
-22.02
-25.26
-28.11
-30.60
-33.05
-35.89
-39.53
-44.02
-48.83
-52.73
-54.12
-51.51
-44.21
-32.62
-18.21
-3.00
11.09
22.83
31.76
38.09
42.30
44.86
46.08
46.13
45.19
43.44
41.13
38.44
35.50
32.29
28.78
24.96
20.97
17.12
13.83
11.46
10.17
9.76
9.77
9.60
8.80
7.23
5.07
2.72
0.59
-1.14
-2.54
-3.93
-5.70
-8.09
-11.10
-14.50
-17.90
-20.93
-23.42
-25.44
-27.32
-29.53
-32.55
-36.63
-41.61
-46.69
-50.55
-51.62
-48.63
-41.04
-29.43
-15.27
-0.57
12.84
23.72
31.66
36.83
39.73
40.82
40.41
38.76
36.13
32.86
29.30
25.75
22.37
19.21
16.21
13.38
10.74
8.36
6.29
4.55
3.12
1.99
1.15
0.54
0.11
-0.33
-0.97
-2.03
-3.65
-5.84
-8.48
-11.35
-14.18
-16.77
-19.05
-21.06
-23.05
-25.36
-28.38
-32.39
-37.31
-42.51
-46.84
-48.81
-47.09
-40.97
-30.70
-17.51
-3.17
10.52
22.20
31.24
37.58
41.50
43.38
43.56
42.36
40.16
37.38
34.42
31.52
28.72
25.90
22.90
19.66
16.34
13.23
10.66
8.83
7.71
7.04
6.48
5.71
4.56
3.06
1.34
-0.46
-2.28
-4.20
-6.36
-8.85
-11.66
-14.62
-17.45
-19.95
-22.02
-23.80
-25.60
-27.79
-30.74
-34.67
-39.54
-44.86
-49.65
-52.55
-52.11
-47.30
-37.95
-24.94
-9.97
4.93
18.03
28.37
35.76
40.59
43.42
44.75
44.93
44.20
42.81
41.03
39.03
36.84
34.32
31.25
27.52
23.23
18.79
14.76
11.66
9.76
8.97
8.86
8.83
8.37
7.22
5.43
3.34
1.34
-0.30
-1.59
-2.78
-4.26
-6.32
-9.08
-12.35
-15.81
-19.03
-21.75
-23.86
-25.50
-27.00
-28.84
-31.49
-35.33
-40.36
-46.00
-51.07
-53.93
-52.97
-47.23
-36.80
-22.91
-7.54
7.21
19.74
29.21
35.57
39.21
40.69
40.48
38.97
36.51
33.45
30.08
26.63
23.16
19.68
16.18
12.74
9.51
6.67
4.35
2.59
1.33
0.50
0.04
-0.15
-0.19
-0.24
-0.52
-1.19
-2.38
-4.10
-6.30
-8.86
-11.61
-14.40
-17.06
-19.50
-21.75
-23.98
-26.51
-29.69
-33.72
-38.46
-43.26
-47.00
-48.28
-45.91
-39.28
-28.71
-15.39
-1.06
12.51
24.01
32.79
38.81
42.40
43.98
43.94
42.62
40.38
37.56
34.50
31.38
28.24
25.01
21.65
18.22
14.96
12.17
10.11
8.84
8.19
7.81
7.32
6.42
5.02
3.22
1.27
-0.62
-2.33
-3.94
-5.65
-7.70
-10.21
-13.14
-16.30
-19.42
-22.30
-24.87
-27.29
-29.86
-33.00
-37.06
-42.03
-47.34
-51.85
-54.01
-52.38
-46.16
-35.54
-21.76
-6.65
7.88
20.43
30.31
37.49
42.28
45.09
46.25
46.04
44.79
42.85
40.60
38.27
35.92
33.37
30.38
26.82
22.79
18.65
14.90
11.97
10.06
9.03
8.48
7.94
7.06
5.68
3.89
1.91
0.01
-1.69
-3.22
-4.82
-6.77
-9.30
-12.42
-15.93
-19.46
-22.64
-25.23
-27.24
-28.89
-30.58
-32.76
-35.86
-40.08
-45.23
-50.52
-54.61
-55.85
-52.81
-44.88
-32.57
-17.45
-1.66
12.82
24.65
33.35
39.11
42.42
43.73
43.37
41.63
38.79
35.25
31.42
27.61
23.94
20.39
16.88
13.43
10.18
7.34
5.13
3.63
2.78
2.37
2.15
1.90
1.47
0.81
-0.13
-1.36
-2.95
-4.94
-7.30
-9.94
-12.66
-15.27
-17.61
-19.69
-21.63
-23.72
-26.28
-29.60
-33.80
-38.67
-43.57
-47.38
-48.75
-46.46
-39.86
-29.24
-15.81
-1.35
12.35
23.98
32.96
39.30
43.29
45.25
45.42
44.08
41.60
38.49
35.22
32.12
29.20
26.29
23.21
19.91
16.58
13.58
11.23
9.67
8.81
8.32
7.79
6.90
5.51
3.76
1.87
0.06
-1.59
-3.24
-5.16
-7.60
-10.62
-14.06
-17.58
-20.84
-23.64
-25.97
-28.07
-30.35
-33.27
-37.24
-42.33
-48.04
-53.24
-56.29
-55.58
-50.05
-39.74
-25.82
-10.22
5.05
18.44
29.15
37.10
42.52
45.74
47.03
46.68
45.08
42.74
40.17
37.67
35.28
32.75
29.76
26.13
21.95
17.65
13.77
10.85
9.11
8.46
8.46
8.55
8.22
7.22
5.61
3.67
1.75
0.03
-1.50
-3.11
-5.11
-7.71
-10.91
-14.45
-17.95
-21.04
-23.53
-25.45
-27.09
-28.88
-31.35
-34.95
-39.80
-45.53
-51.07
-54.83
-55.10
-50.61
-41.13
-27.58
-11.82
3.94
17.83
28.72
36.29
40.88
43.07
43.42
42.35
40.16
37.11
33.47
29.48
25.37
21.30
17.37
13.64
10.19
7.09
4.45
2.36
0.85
-0.08
-0.51
-0.60
-0.51
-0.45
-0.63
-1.25
-2.42
-4.21
-6.54
-9.28
-12.24
-15.24
-18.12
-20.78
-23.22
-25.54
-28.04
-31.12
-35.11
-40.00
-45.22
-49.56
-51.42
-49.34
-42.58
-31.44
-17.28
-2.03
12.37
24.57
33.96
40.55
44.71
46.81
47.16
46.02
43.72
40.65
37.22
33.73
30.29
26.87
23.40
19.89
16.48
13.39
10.81
8.80
7.26
6.02
4.89
3.76
2.59
1.40
0.13
-1.34
-3.18
-5.53
-8.43
-11.73
-15.16
-18.43
-21.32
-23.74
-25.78
-27.66
-29.70
-32.30
-35.82
-40.42
-45.80
-51.03
-54.63
-54.96
-50.78
-41.79
-28.82
-13.61
1.85
15.85
27.39
36.16
42.29
46.09
47.87
47.97
46.81
44.90
42.66
40.34
37.92
35.23
32.09
28.47
24.54
20.64
17.13
14.24
12.08
10.54
9.37
8.27
7.02
5.53
3.84
2.08
0.33
-1.45
-3.43
-5.80
-8.70
-12.04
-15.62
-19.10
-22.20
-24.77
-26.86
-28.68
-30.62
-33.17
-36.78
-41.59
-47.13
-52.24
-55.20
-54.32
-48.50
-37.77
-23.37
-7.32
8.25
21.66
32.05
39.31
43.74
45.81
45.92
44.44
41.69
38.06
33.92
29.58
25.28
21.14
17.21
13.51
10.06
6.86
3.98
1.51
-0.47
-1.89
-2.76
-3.20
-3.44
-3.79
-4.53
-5.86
-7.83
-10.25
-12.86
-15.33
-17.46
-19.23
-20.80
-22.45
-24.50
-27.27
-31.00
-35.70
-41.03
-46.09
-49.50
-49.67
-45.38
-36.25
-23.04
-7.50
8.24
22.24
33.30
41.10
45.93
48.40
49.08
48.36
46.57
43.95
40.79
37.36
33.82
30.27
26.69
23.06
19.42
15.90
12.68
9.95
7.82
6.30
5.27
4.53
3.81
2.88
1.54
-0.31
-2.68
-5.51
-8.69
-12.05
-15.41
-18.57
-21.45
-24.05
-26.55
-29.25
-32.53
-36.73
-41.96
-47.95
-53.94
-58.64
-60.54
-58.32
-51.31
-39.87
-25.30
-9.54
5.43
18.15
27.89
34.65
38.84
40.97
41.47
40.65
38.79
36.18
33.12
29.82
26.38
22.71
18.66
14.11
9.10
3.89
-1.12
-5.50
-8.97
-11.52
-13.46
-15.29
-17.48
-20.32
-23.81
-27.63
-31.22
-33.87
-34.81
-33.41
-29.40
-23.13
-15.63
-8.42
-3.05
-0.53
-1.06
-4.01
-8.40
-13.25
-17.91
-21.89
-24.64
-25.32
-23.06
-17.28
-8.18
3.21
15.31
26.54
35.89
43.10
48.61
53.13
57.27
61.25
64.82
67.47
68.65
68.07
65.77
62.09
57.45
52.18
46.51
40.57
34.53
28.53
22.64
16.63
10.10
2.77
-5.20
-12.90
-18.77
-21.10
-18.61
-10.98
0.92
15.29
29.83
42.31
50.99
54.92
53.97
48.71
40.18
29.62
18.16
6.65
-4.33
-14.41
-23.14
-29.87
-33.80
-34.35
-31.54
-26.27
-20.20
-15.13
-12.27
-11.66
-12.31
-12.86
-12.48
-11.42
-10.79
-11.85
-15.13
-20.04
-25.17
-29.07
-31.05
-31.46
-31.37
-31.92
-33.68
-36.40
-39.26
-41.35
-42.16
-41.79
-40.85
-40.13
-40.22
-41.33
-43.20
-45.39
-47.45
-49.14
-50.52
-51.83
-53.33
-55.22
-57.61
-60.61
-64.30
-68.73
-73.59
-77.94
-79.98
-77.35
-67.89
-50.64
-26.66
1.03
28.29
51.31
67.71
77.05
80.27
78.83
73.90
66.15
56.16
44.83
33.52
23.62
15.95
10.33
5.77
1.02
-4.76
-11.74
-19.49
-27.37
-34.82
-41.42
-46.78
-50.51
-52.40
-52.63
-51.92
-51.19
-50.98
-50.93
-49.83
-46.18
-39.25
-29.75
-19.67
-11.47
-6.85
-5.88
-7.06
-8.16
-7.40
-4.13
1.21
7.76
14.97
22.87
31.83
41.96
52.67
62.65
70.34
74.60
75.34
73.40
70.10
66.66
63.78
61.47
59.18
56.15
51.75
46.21
40.29
34.88
30.70
28.16
27.37
28.07
29.74
31.71
34.08
36.91
39.82
41.99
42.66
41.65
39.30
36.25
33.01
31.09
31.45
33.97
37.64
41.37
44.80
48.26
52.35
57.59
65.87
78.44
95.04
113.85
132.44
148.96
162.45
172.52
168.52
143.97
99.76
44.18
-12.91
-65.20
-109.96
-146.06
-172.90
-190.13
-196.24
-190.86
-175.62
-154.08
-130.57
-108.59
-90.27
-76.37
-66.67
-59.03
-51.30
-42.30
-31.98
-21.33
-11.55
-3.74
1.19
2.92
2.72
2.47
3.14
5.64
9.39
12.96
14.84
14.14
10.94
6.46
2.01
-1.65
-4.51
-7.08
-9.68
-12.21
-14.31
-15.50
-15.48
-14.28
-12.41
-10.51
-9.32
-9.16
-9.90
-11.08
-12.13
-12.69
-12.77
-12.64
-12.70
-13.27
-14.39
-15.77
-17.03
-17.83
-18.11
-18.05
-17.99
-18.28
-19.15
-20.61
-22.29
-23.63
-23.96
-22.62
-19.21
-13.73
-6.61
1.41
9.54
17.17
23.93
29.71
34.51
38.29
40.99
42.52
42.92
42.33
40.96
38.98
36.46
33.39
29.75
25.57
20.94
15.99
10.89
5.81
0.92
-3.61
-7.60
-10.94
-13.61
-15.64
-17.08
-18.03
-18.59
-18.98
-19.60
-20.95
-23.46
-27.27
-32.03
-36.90
-40.79
-42.66
-41.87
-38.33
-32.46
-24.91
-16.41
-7.51
1.33
9.70
17.17
23.31
27.79
30.54
31.79
31.99
31.61
31.02
30.34
29.48
28.27
26.64
24.61
22.40
20.23
18.28
16.64
15.23
13.91
12.58
11.18
9.68
8.08
6.29
4.15
1.54
-1.50
-4.73
-7.69
-9.97
-11.37
-11.97
-12.12
-12.13
-12.13
-11.98
-11.35
-9.97
-7.69
-4.39
0.15
6.23
14.02
23.19
32.67
40.76
45.68
46.22
42.30
34.91
25.68
16.16
7.44
-0.04
-6.16
-10.84
-13.93
-15.32
-15.24
-14.38
-13.80
-14.50
-17.08
-21.47
-27.01
-32.89
-38.46
-43.52
-48.20
-52.65
-56.73
-59.99
-61.89
-62.16
-61.06
-59.18
-57.20
-55.43
-53.62
-51.03
-46.86
-40.67
-32.61
-23.33
-13.73
-4.64
3.38
10.06
15.34
19.22
21.67
22.67
22.24
20.59
18.13
15.32
12.67
10.59
9.25
8.55
8.26
8.12
8.14
8.41
8.94
9.79
11.05
12.66
14.50
16.44
18.36
20.34
22.30
23.75
24.48
24.71
24.91
25.74
27.79
31.39
36.77
43.59
50.69
57.20
62.70
66.86
69.43
70.11
68.63
65.20
60.03
52.76
43.70
33.71
23.65
14.16
5.60
-4.75
-17.67
-28.99
-37.55
-44.33
-49.59
-53.55
-56.38
-58.17
-58.90
-58.04
-55.32
-51.51
-47.24
-42.91
-39.04
-35.98
-33.77
-32.09
-30.00
-26.61
-21.82
-15.54
-7.78
1.06
10.39
19.56
28.05
35.70
42.36
47.51
50.82
52.20
51.60
49.12
44.97
39.47
33.12
26.30
19.16
11.86
4.62
-2.34
-8.74
-14.33
-18.90
-22.39
-24.89
-26.71
-28.10
-29.16
-29.86
-30.12
-29.88
-29.29
-28.66
-28.38
-28.66
-29.43
-30.27
-30.50
-29.45
-26.61
-21.85
-15.44
-7.98
-0.21
7.14
13.51
18.56
22.15
24.35
25.31
25.25
24.42
23.02
21.20
19.06
16.69
14.16
11.60
9.12
6.87
4.90
3.21
1.75
0.39
-0.98
-2.48
-4.16
-6.01
-7.97
-9.90
-11.67
-13.19
-14.46
-15.61
-16.80
-18.14
-19.59
-20.88
-21.57
-21.19
-19.39
-16.07
-11.44
-5.94
-0.15
5.34
10.07
13.78
16.34
17.82
18.37
18.19
17.54
16.68
15.85
15.24
15.02
15.26
16.01
17.26
18.96
21.01
23.21
25.22
26.63
26.98
25.94
23.37
19.39
14.31
8.53
2.39
-3.86
-10.05
-16.01
-21.49
-26.13
-29.54
