1660929987.00
64.000000
-0.00
-0.00
-0.00
-0.00
-0.00
-0.00
-0.00
-0.00
-0.00
-0.00
0.00
0.01
0.01
-0.00
-0.03
-0.05
-0.05
0.00
0.13
0.36
0.66
1.01
1.37
1.72
2.06
2.40
2.79
3.25
3.80
4.43
5.09
5.73
6.34
6.94
7.56
8.26
9.06
10.05
11.14
12.25
13.28
14.22
15.13
16.17
17.51
19.27
21.65
24.45
27.44
30.36
33.10
35.76
38.62
42.07
46.35
51.79
58.05
64.70
71.28
77.57
83.68
90.04
97.21
105.52
115.37
126.28
137.61
148.79
159.53
169.98
180.67
192.60
204.08
217.07
232.18
249.81
269.30
288.23
302.53
307.36
298.82
275.36
238.84
193.07
142.79
91.92
42.73
-4.14
-48.89
-91.81
-132.99
-172.40
-210.84
-249.35
-288.49
-327.29
-362.78
-390.57
-406.31
-407.59
-394.86
-371.46
-342.31
-312.09
-283.77
-258.29
-235.09
-213.24
-192.26
-172.16
-153.37
-136.11
-120.19
-105.12
-90.43
-75.91
-61.71
-48.24
-36.01
-25.44
-16.85
-10.38
-6.04
-3.67
-2.94
-3.38
-4.48
-5.72
-6.71
-7.17
-6.92
-5.85
-3.92
-1.21
2.04
5.43
8.53
10.97
12.59
13.45
13.76
13.79
13.79
13.86
14.04
14.22
14.26
14.03
13.45
12.59
11.63
10.80
10.30
10.14
10.18
10.21
10.03
9.62
9.07
8.55
8.16
7.94
7.84
7.81
7.84
7.93
8.06
8.17
8.18
8.03
7.71
7.27
6.79
6.36
6.06
6.00
6.21
6.76
7.61
8.65
9.73
10.67
11.37
11.76
11.84
11.66
11.28
10.81
10.33
9.92
9.59
9.34
9.10
8.81
8.42
7.93
7.34
6.71
6.07
5.43
4.78
4.12
3.43
2.73
2.08
1.50
1.06
0.77
0.63
0.60
0.57
0.46
0.15
-0.38
-1.14
-2.03
-2.93
-3.74
-4.40
-4.91
-5.32
-5.69
-6.03
-6.31
-6.49
-6.56
-6.58
-6.62
-6.78
-7.08
-7.49
-7.92
-8.25
-8.42
-8.40
-8.20
-7.85
-7.34
-6.67
-5.87
-5.01
-4.22
-3.58
-3.17
-2.94
-2.80
-2.63
-2.34
-1.90
-1.36
-0.78
-0.24
0.18
0.45
0.56
0.58
0.63
0.84
1.25
1.86
2.53
3.12
3.49
3.61
3.49
3.24
2.92
2.56
2.17
1.71
1.20
0.70
0.25
-0.11
-0.39
-0.60
-0.72
-0.63
-0.22
0.57
1.67
2.87
3.92
4.60
4.89
4.93
4.96
5.17
5.62
6.26
6.94
7.55
8.06
8.49
8.87
9.21
9.47
9.58
9.49
9.20
8.76
8.26
7.76
7.30
6.85
6.41
5.97
5.58
5.28
5.12
5.09
5.10
5.03
4.79
4.37
3.81
3.24
2.77
2.44
2.23
2.09
1.93
1.70
1.42
1.11
0.82
0.54
0.23
-0.15
-0.60
-1.12
-1.68
-2.21
-2.69
-3.07
-3.33
-3.43
-3.37
-3.21
-3.00
-2.77
-2.56
-2.35
-2.15
-1.98
-1.95
-2.13
-2.55
-3.09
-3.51
-3.53
-2.97
-1.80
-0.21
1.53
3.11
4.33
5.15
5.64
5.98
6.29
6.63
6.98
7.26
7.39
7.34
7.10
6.70
6.14
5.45
4.65
3.79
2.95
2.20
1.59
1.16
0.88
0.74
0.69
0.71
0.79
0.92
1.09
1.34
1.66
2.03
2.36
2.54
2.48
2.16
1.69
1.26
1.03
1.07
1.32
1.65
1.90
2.04
2.07
2.07
2.07
2.04
1.96
1.81
1.64
1.53
1.57
1.74
1.96
2.10
2.07
1.91
1.74
1.80
2.22
3.02
4.07
5.13
5.98
6.47
6.56
6.32
5.88
5.37
4.94
4.67
4.56
4.48
4.17
3.42
2.13
0.47
-1.21
-2.52
-3.19
-3.25
-2.98
-2.74
-2.84
-3.34
-4.08
-4.81
-5.31
-5.52
-5.50
-5.34
-5.08
-4.65
-3.97
-3.04
-1.98
-1.04
-0.45
-0.34
-0.66
-1.19
-1.68
-1.91
-1.78
-1.30
-0.61
0.16
0.84
1.34
1.63
1.74
1.80
1.99
2.45
3.30
4.52
5.92
7.20
8.01
8.09
7.38
6.05
4.47
3.01
1.94
1.32
1.00
0.71
0.22
-0.59
-1.68
-2.90
-4.01
-4.83
-5.27
-5.34
-5.10
-4.66
-4.11
-3.50
-2.91
-2.45
-2.21
-2.28
-2.65
-3.20
-3.72
-4.06
-4.14
-4.05
-4.00
-4.17
-4.64
-5.34
-6.06
-6.57
-6.81
-6.81
-6.76
-6.84
-7.14
-7.64
-8.23
-8.75
-9.04
-9.04
-8.74
-8.21
-7.54
-6.85
-6.26
-5.82
-5.55
-5.45
-5.52
-5.81
-6.39
-7.32
-8.58
-10.07
-11.62
-13.08
-14.46
-15.93
-17.80
-20.40
-23.90
-28.28
-33.26
-38.46
-43.56
-48.42
-53.14
-57.92
-63.01
-68.54
-74.49
-80.69
-86.94
-93.12
-99.21
-105.33
-111.68
-118.44
-125.88
-134.45
-144.76
-157.28
-171.72
-186.44
-198.28
-203.24
-197.64
-179.42
-148.68
-107.42
-58.70
-5.84
47.73
98.37
142.09
175.16
195.10
201.82
197.84
187.42
175.04
163.82
154.95
148.03
142.05
136.24
130.39
124.66
119.17
113.77
108.18
102.19
95.90
89.66
83.96
79.15
75.33
72.31
69.81
67.56
65.51
63.87
63.00
63.29
64.93
67.77
71.32
74.88
77.78
79.68
80.74
81.56
82.97
85.69
89.99
95.64
102.02
108.49
114.68
120.68
126.86
133.62
141.10
149.21
157.84
167.05
176.91
186.88
195.37
199.60
196.28
182.83
158.41
124.11
82.27
35.38
-14.54
-65.71
-115.71
-160.97
-197.18
-220.70
-230.20
-227.42
-216.48
-202.19
-188.18
-176.04
-165.54
-155.72
-145.94
-136.32
-127.43
-119.72
-113.08
-106.87
-100.34
-93.02
-85.01
-76.86
-69.27
-62.70
-57.19
-52.42
-47.86
-43.09
-38.00
-32.75
-27.74
-23.33
-19.75
-16.97
-14.73
-12.71
-10.57
-8.14
-5.45
-2.72
-0.23
1.76
3.11
3.88
4.23
4.38
4.53
4.77
5.10
5.46
5.80
6.06
6.25
6.32
6.21
5.81
5.04
3.88
2.45
0.99
-0.21
-0.92
-1.08
-0.77
-0.22
0.36
0.84
1.21
1.54
1.88
2.20
2.33
2.09
1.35
0.15
-1.29
-2.68
-3.74
-4.33
-4.44
-4.20
-3.74
-3.14
-2.41
-1.58
-0.73
-0.02
0.33
0.16
-0.50
-1.48
-2.48
-3.24
-3.63
-3.72
-3.67
-3.69
-3.87
-4.16
-4.43
-4.58
-4.54
-4.36
-4.13
-3.90
-3.70
-3.55
-3.42
-3.32
-3.24
-3.20
-3.17
-3.13
-3.03
-2.87
-2.68
-2.53
-2.47
-2.51
-2.58
-2.55
-2.33
-1.90
-1.37
-0.89
-0.61
-0.59
-0.74
-0.90
-0.93
-0.75
-0.45
-0.15
0.05
0.10
0.08
0.09
0.19
0.38
0.59
0.71
0.72
0.65
0.61
0.68
0.90
1.19
1.43
1.49
1.33
1.00
0.63
0.33
0.13
0.02
-0.08
-0.20
-0.31
-0.36
-0.33
-0.27
-0.24
-0.32
-0.47
-0.61
-0.63
-0.49
-0.25
-0.06
-0.03
-0.19
-0.45
-0.68
-0.76
-0.71
-0.64
-0.67
-0.87
-1.19
-1.50
-1.68
-1.68
-1.50
-1.20
-0.82
-0.41
0.01
0.42
0.78
1.03
1.15
1.14
1.03
0.88
0.77
0.73
0.82
1.02
1.30
1.57
1.75
1.75
1.56
1.20
0.76
0.34
-0.01
-0.25
-0.40
-0.49
-0.55
-0.56
-0.47
-0.25
0.06
0.39
0.59
0.59
0.39
0.11
-0.06
0.02
0.38
0.90
1.39
1.67
1.64
1.33
0.87
0.40
0.04
-0.19
-0.33
-0.45
-0.57
-0.69
-0.76
-0.77
-0.74
-0.74
-0.80
-0.91
-1.03
-1.09
-1.05
-0.94
-0.80
-0.68
-0.60
-0.53
-0.45
-0.33
-0.23
-0.18
-0.21
-0.30
-0.36
-0.34
-0.19
0.05
0.30
0.47
0.51
0.45
0.37
0.37
0.52
0.80
1.10
1.33
1.38
1.24
0.96
0.67
0.46
0.41
0.52
0.75
1.05
1.33
1.54
1.65
1.64
1.46
1.12
0.62
0.01
-0.62
-1.17
-1.54
-1.67
-1.60
-1.39
-1.13
-0.91
-0.74
-0.62
-0.55
-0.56
-0.67
-0.92
-1.27
-1.62
-1.83
-1.82
-1.58
-1.19
-0.83
-0.68
-0.83
-1.24
-1.76
-2.19
-2.37
-2.23
-1.84
-1.36
-0.94
-0.65
-0.50
-0.37
-0.12
0.38
1.15
2.14
3.23
4.21
4.91
5.18
4.95
4.23
3.17
1.99
0.89
0.05
-0.49
-0.79
-1.02
-1.31
-1.73
-2.22
-2.67
-2.97
-3.09
-3.11
-3.13
-3.22
-3.37
-3.46
-3.37
-3.03
-2.49
-1.86
-1.28
-0.81
-0.45
-0.12
0.26
0.78
1.49
2.42
3.56
4.86
6.16
7.22
7.80
7.72
7.01
5.88
4.64
3.58
2.87
2.47
2.23
1.99
1.64
1.21
0.78
0.42
0.13
-0.17
-0.57
-1.13
-1.83
-2.60
-3.29
-3.81
-4.07
-4.06
-3.84
-3.53
-3.26
-3.13
-3.19
-3.38
-3.60
-3.76
-3.78
-3.65
-3.41
-3.10
-2.78
-2.45
-2.11
-1.71
-1.16
-0.39
0.60
1.77
2.94
3.92
4.53
4.70
4.49
4.07
3.57
3.09
2.61
2.07
1.40
0.60
-0.23
-0.98
-1.53
-1.83
-1.92
-1.86
-1.78
-1.75
-1.80
-1.88
-1.91
-1.78
-1.44
-0.92
-0.34
0.21
0.65
1.06
1.60
2.40
3.44
4.56
5.47
5.94
5.90
5.47
4.85
4.22
3.60
2.93
2.12
1.19
0.31
-0.32
-0.57
-0.47
-0.22
-0.05
-0.15
-0.52
-1.05
-1.57
-1.97
-2.24
-2.45
-2.68
-2.96
-3.20
-3.32
-3.25
-3.02
-2.74
-2.53
-2.48
-2.55
-2.63
-2.59
-2.36
-1.95
-1.42
-0.85
-0.31
0.20
0.67
1.09
1.44
1.67
1.80
1.84
1.84
1.84
1.84
1.77
1.56
1.15
0.52
-0.28
-1.15
-1.95
-2.56
-2.92
-3.04
-2.96
-2.73
-2.43
-2.07
-1.69
-1.30
-0.90
-0.51
-0.13
0.22
0.57
0.96
1.44
2.06
2.82
3.63
4.32
4.73
4.74
4.37
3.74
3.02
2.38
1.86
1.47
1.14
0.81
0.47
0.10
-0.25
-0.55
-0.74
-0.80
-0.75
-0.67
-0.66
-0.81
-1.14
-1.59
-2.03
-2.40
-2.68
-2.88
-3.07
-3.26
-3.41
-3.44
-3.30
-2.99
-2.56
-2.15
-1.86
-1.74
-1.76
-1.82
-1.79
-1.64
-1.36
-0.98
-0.52
0.07
0.83
1.79
2.82
3.70
4.21
4.19
3.74
3.09
2.51
2.17
2.04
1.93
1.64
1.08
0.33
-0.43
-1.06
-1.52
-1.85
-2.15
-2.45
-2.70
-2.80
-2.71
-2.42
-2.03
-1.63
-1.25
-0.90
-0.54
-0.12
0.35
0.90
1.58
2.48
3.65
5.02
6.36
7.36
7.75
7.41
6.47
5.22
3.98
2.97
2.21
1.62
1.08
0.51
-0.08
-0.65
-1.18
-1.65
-2.08
-2.48
-2.80
-3.03
-3.15
-3.18
-3.14
-3.07
-2.99
-2.91
-2.85
-2.86
-2.97
-3.19
-3.50
-3.80
-3.98
-3.95
-3.66
-3.19
-2.70
-2.38
-2.34
-2.55
-2.85
-3.01
-2.89
-2.43
-1.67
-0.69
0.48
1.78
3.15
4.39
5.27
5.57
5.23
4.43
3.51
2.82
2.56
2.70
3.01
3.21
3.13
2.76
2.26
1.78
1.41
1.13
0.81
0.36
-0.22
-0.81
-1.21
-1.27
-0.97
-0.46
0.02
0.26
0.19
-0.11
-0.50
-0.81
-0.97
-0.99
-0.92
-0.76
-0.50
-0.09
0.47
1.08
1.61
1.96
2.08
2.03
1.89
1.75
1.67
1.68
1.81
2.04
2.32
2.56
2.64
2.45
2.01
1.40
0.82
0.41
0.21
0.13
0.03
-0.23
-0.71
-1.32
-1.94
-2.43
-2.70
-2.76
-2.65
-2.43
-2.15
-1.85
-1.59
-1.42
-1.42
-1.61
-1.95
-2.32
-2.58
-2.61
-2.41
-2.08
-1.74
-1.56
-1.55
-1.68
-1.81
-1.81
-1.61
-1.22
-0.75
-0.27
0.18
0.64
1.18
1.84
2.57
3.24
3.66
3.73
3.42
2.85
2.23
1.73
1.45
1.33
1.24
1.09
0.87
0.64
0.49
0.44
0.41
0.29
0.01
-0.42
-0.90
-1.30
-1.53
-1.61
-1.58
-1.52
-1.43
-1.32
-1.18
-1.02
-0.90
-0.83
-0.79
-0.74
-0.63
-0.45
-0.22
0.02
0.23
0.35
0.31
0.10
-0.26
-0.68
-0.98
-1.03
-0.80
-0.35
0.12
0.46
0.58
0.53
0.46
0.47
0.59
0.78
0.93
0.97
0.86
0.62
0.30
-0.06
-0.41
-0.73
-0.94
-1.03
-0.97
-0.80
-0.59
-0.39
-0.24
-0.12
0.01
0.17
0.35
0.48
0.51
0.42
0.26
0.13
0.09
0.18
0.35
0.51
0.58
0.54
0.39
0.18
-0.05
-0.23
-0.34
-0.34
-0.21
0.03
0.34
0.64
0.86
0.94
0.82
0.52
0.06
-0.46
-0.91
-1.17
-1.18
-0.94
-0.57
-0.20
0.03
0.07
-0.04
-0.17
-0.20
-0.08
0.15
0.38
0.51
0.48
0.31
0.09
-0.08
-0.15
-0.17
-0.19
-0.29
-0.48
-0.70
-0.87
-0.91
-0.80
-0.59
-0.36
-0.22
-0.17
-0.20
-0.21
-0.11
0.10
0.39
0.66
0.81
0.81
0.70
0.57
0.50
0.52
0.58
0.64
0.65
0.61
0.55
0.50
0.46
0.39
0.28
0.13
-0.01
-0.10
-0.08
0.04
0.23
0.44
0.59
0.66
0.64
0.55
0.41
0.24
0.07
-0.07
-0.17
-0.21
-0.21
-0.20
-0.23
-0.30
-0.42
-0.54
-0.64
-0.68
-0.69
-0.68
-0.65
-0.57
-0.43
-0.23
0.01
0.21
0.31
0.26
0.06
-0.25
-0.63
-1.03
-1.37
-1.57
-1.58
-1.35
-0.94
-0.43
0.04
0.40
0.61
0.69
0.69
0.68
0.67
0.66
0.64
0.56
0.44
0.29
0.14
0.04
0.01
0.03
0.04
-0.03
-0.20
-0.45
-0.70
-0.89
-0.95
-0.90
-0.76
-0.59
-0.40
-0.17
0.12
0.47
0.87
1.23
1.51
1.63
1.56
1.32
0.96
0.56
0.21
-0.01
-0.09
-0.06
-0.01
-0.04
-0.18
-0.41
-0.64
-0.78
-0.76
-0.60
-0.39
-0.21
-0.15
-0.21
-0.37
-0.53
-0.63
-0.60
-0.44
-0.19
0.11
0.37
0.53
0.55
0.43
0.21
-0.06
-0.30
-0.48
-0.54
-0.47
-0.29
-0.08
0.09
0.13
0.06
-0.07
-0.16
-0.10
0.09
0.35
0.56
0.61
0.48
0.21
-0.06
-0.26
-0.34
-0.30
-0.18
-0.03
0.13
0.28
0.41
0.53
0.65
0.75
0.83
0.86
0.77
0.54
0.21
-0.10
-0.26
-0.19
0.10
0.48
0.79
0.91
0.82
0.57
0.23
-0.12
-0.47
-0.78
-1.00
-1.07
-0.96
-0.71
-0.43
-0.22
-0.14
-0.17
-0.22
-0.20
-0.11
0.03
0.12
0.11
-0.02
-0.19
-0.30
-0.27
-0.09
0.19
0.45
0.54
0.41
0.10
-0.27
-0.54
-0.64
-0.57
-0.42
-0.30
-0.28
-0.31
-0.35
-0.32
-0.19
0.00
0.20
0.36
0.49
0.62
0.78
0.96
1.11
1.15
1.02
0.73
0.35
-0.02
-0.26
-0.31
-0.19
0.03
0.22
0.30
0.24
0.11
-0.01
-0.03
0.08
0.27
0.46
0.59
0.59
0.45
0.17
-0.18
-0.53
-0.80
-0.96
-1.02
-1.03
-1.04
-1.05
-1.06
-1.01
-0.90
-0.73
-0.58
-0.47
-0.42
-0.39
-0.35
-0.25
-0.11
0.07
0.27
0.49
0.70
0.88
0.94
0.87
0.64
0.33
0.02
-0.25
-0.45
-0.61
-0.73
-0.80
-0.79
-0.66
-0.44
-0.18
0.04
0.20
0.32
0.45
0.63
0.84
1.00
1.03
0.94
0.78
0.67
0.69
0.83
0.99
1.04
0.88
0.55
0.16
-0.11
-0.19
-0.10
0.06
0.16
0.13
0.01
-0.11
-0.15
-0.09
0.01
0.10
0.12
0.10
0.05
-0.02
-0.11
-0.26
-0.44
-0.61
-0.71
-0.69
-0.58
-0.41
-0.24
-0.09
0.03
0.11
0.13
0.06
-0.05
-0.14
-0.13
0.01
0.25
0.49
0.62
0.59
0.44
0.21
-0.02
-0.21
-0.34
-0.39
-0.34
-0.21
-0.07
0.04
0.04
-0.03
-0.12
-0.14
-0.06
0.07
0.12
0.04
-0.19
-0.44
-0.58
-0.51
-0.26
0.05
0.27
0.32
0.20
0.03
-0.09
-0.08
0.04
0.20
0.31
0.34
0.30
0.25
0.25
0.31
0.42
0.54
0.62
0.63
0.54
0.38
0.17
-0.08
-0.32
-0.56
-0.76
-0.92
-1.01
-1.02
-0.97
-0.91
-0.91
-1.00
-1.18
-1.32
-1.31
-1.06
-0.57
0.04
0.59
0.91
0.94
0.76
0.51
0.34
0.34
0.48
0.69
0.84
0.87
0.77
0.56
0.34
0.14
0.02
-0.04
-0.09
-0.16
-0.25
-0.31
-0.27
-0.09
0.19
0.48
0.65
0.64
0.46
0.23
0.04
-0.07
-0.11
-0.16
-0.27
-0.42
-0.53
-0.55
-0.48
-0.36
-0.26
-0.23
-0.24
-0.25
-0.20
-0.08
0.10
0.24
0.28
0.20
0.01
-0.23
-0.41
-0.43
-0.27
-0.00
0.25
0.31
0.09
-0.42
-1.09
-1.73
-2.16
-2.30
-2.17
-1.90
-1.59
-1.33
-1.20
-1.20
-1.36
-1.67
-2.10
-2.55
-2.87
-2.98
-2.83
-2.48
-2.03
-1.57
-1.17
-0.88
-0.73
-0.77
-1.01
-1.39
-1.78
-1.98
-1.85
-1.33
-0.50
0.48
1.43
2.18
2.64
2.74
2.46
1.84
1.00
0.13
-0.56
-0.89
-0.83
-0.49
-0.09
0.12
-0.08
-0.75
-1.85
-3.20
-4.56
-5.72
-6.55
-7.09
-7.48
-7.93
-8.58
-9.48
-10.52
-11.55
-12.46
-13.28
-14.17
-15.36
-17.00
-19.09
-21.49
-23.91
-26.14
-28.04
-29.64
-31.15
-32.86
-35.11
-38.24
-42.50
-47.84
-53.77
-59.37
-63.51
-65.37
-64.84
-62.71
-60.42
-59.46
-60.81
-64.58
-70.28
-77.15
-84.65
-92.54
-100.71
-108.94
-116.90
-124.41
-131.66
-138.91
-145.96
-151.41
-152.47
-145.74
-128.38
-99.19
-59.02
-10.28
43.93
100.39
155.90
207.09
250.50
283.16
303.59
312.52
312.78
308.24
302.45
297.58
294.20
291.99
290.58
290.18
291.23
293.67
296.13
295.73
288.88
272.42
244.73
206.22
158.91
105.78
50.11
-4.77
-55.43
-98.47
-130.99
-151.37
-159.82
-158.41
-150.54
-140.00
-130.14
-123.24
-120.32
-121.04
-123.95
-126.94
-127.98
-125.84
-120.47
-112.85
-104.41
-96.29
-89.04
-82.56
-76.52
-70.71
-65.20
-60.16
-55.67
-51.59
-47.61
-43.40
-38.81
-33.98
-29.31
-25.29
-22.24
-20.17
-18.73
-17.39
-15.69
-13.47
-10.94
-8.51
-6.58
-5.29
-4.51
-3.93
-3.25
-2.39
-1.41
-0.51
0.16
0.59
0.84
1.03
1.19
1.29
1.28
1.09
0.78
0.40
0.10
-0.07
-0.11
-0.08
-0.07
-0.14
-0.28
-0.43
-0.55
-0.62
-0.62
-0.55
-0.36
-0.01
0.49
1.07
1.56
1.79
1.70
1.34
0.88
0.48
0.24
0.12
0.07
0.02
-0.04
-0.07
-0.07
-0.06
-0.15
-0.38
-0.75
-1.17
-1.49
-1.59
-1.48
-1.22
-0.93
-0.69
-0.54
-0.43
-0.33
-0.20
-0.06
0.05
0.08
0.03
-0.11
-0.26
-0.34
-0.33
-0.20
-0.03
0.10
0.10
-0.03
-0.21
-0.34
-0.37
-0.29
-0.17
-0.08
-0.03
0.04
0.22
0.56
1.04
1.58
2.06
2.39
2.51
2.42
2.17
1.81
1.46
1.18
1.03
1.01
1.08
1.16
1.17
1.09
0.91
0.66
0.38
0.10
-0.12
-0.29
-0.43
-0.60
-0.85
-1.21
-1.63
-2.06
-2.40
-2.61
-2.67
-2.62
-2.49
-2.28
-1.96
-1.54
-1.03
-0.51
-0.07
0.22
0.33
0.26
0.06
-0.25
-0.64
-1.07
-1.52
-1.92
-2.19
-2.28
-2.17
-1.87
-1.44
-0.98
-0.56
-0.24
-0.04
0.01
-0.08
-0.31
-0.63
-1.02
-1.40
-1.72
-1.96
-2.14
-2.30
-2.50
-2.78
-3.07
-3.23
-3.05
-2.31
-0.94
0.97
3.12
5.15
6.70
7.55
7.66
7.12
6.13
4.87
3.54
2.32
1.35
0.74
0.50
0.53
0.68
0.78
0.67
0.33
-0.18
-0.76
-1.29
-1.72
-2.05
-2.31
-2.51
-2.65
-2.70
-2.65
-2.53
-2.41
-2.35
-2.35
-2.37
-2.31
-2.14
-1.91
-1.71
-1.63
-1.65
-1.62
-1.31
-0.53
0.76
2.44
4.22
5.79
6.90
7.41
7.33
6.77
5.85
4.69
3.39
2.04
0.72
-0.48
-1.46
-2.18
-2.64
-2.91
-3.09
-3.33
-3.72
-4.24
-4.75
-5.05
-4.96
-4.45
-3.63
-2.75
-2.03
-1.61
-1.45
-1.39
-1.24
-0.81
0.03
1.37
3.26
5.58
8.03
10.10
11.21
10.99
9.43
6.92
4.13
1.72
0.06
-0.81
-1.13
-1.22
-1.33
-1.52
-1.78
-2.06
-2.37
-2.78
-3.31
-3.93
-4.50
-4.88
-4.97
-4.79
-4.42
-3.99
-3.61
-3.31
-3.08
-2.87
-2.67
-2.47
-2.26
-2.05
-1.81
-1.55
-1.28
-0.99
-0.66
-0.18
0.54
1.53
2.71
3.85
4.67
4.94
4.55
3.55
2.12
0.50
-1.07
-2.40
-3.37
-3.94
-4.19
-4.28
-4.44
-4.85
-5.56
-6.43
-7.23
-7.69
-7.67
-7.21
-6.49
-5.76
-5.23
-5.01
-5.09
-5.41
-5.74
-5.63
-4.42
-1.38
3.89
11.05
18.88
25.59
29.44
29.50
26.03
20.35
14.22
9.10
5.65
3.73
2.73
2.10
1.52
0.98
0.56
0.23
-0.16
-0.81
-1.83
-3.14
-4.48
-5.50
-5.97
-5.84
-5.27
-4.59
-4.13
-4.03
-4.23
-4.45
-4.40
-3.87
-2.93
-1.83
-0.91
-0.46
-0.50
-0.86
-1.23
-1.30
-0.89
-0.00
1.20
2.42
3.37
3.80
3.61
2.88
1.83
0.72
-0.22
-0.93
-1.48
-1.97
-2.47
-2.94
-3.26
-3.34
-3.17
-2.87
-2.63
-2.58
-2.76
-3.06
-3.30
-3.32
-3.02
-2.42
-1.63
-0.78
-0.01
0.60
1.02
1.28
1.44
1.55
1.66
1.73
1.73
1.58
1.22
0.63
-0.16
-1.06
-1.95
-2.67
-3.07
-3.04
-2.58
-1.77
-0.84
-0.06
0.32
0.18
-0.44
-1.32
-2.22
-2.92
-3.33
-3.54
-3.71
-3.97
-4.39
-4.92
-5.39
-5.56
-5.22
-4.24
-2.61
-0.52
1.72
3.76
5.28
6.09
6.10
5.40
4.16
2.64
1.10
-0.21
-1.12
-1.62
-1.76
-1.65
-1.36
-0.84
-0.02
1.11
2.41
3.59
4.26
4.10
2.98
0.98
-1.59
-4.32
-6.80
-8.73
-9.90
-10.24
-9.78
-8.64
-7.06
-5.29
-3.63
-2.25
-1.22
-0.42
0.39
1.46
2.93
4.78
6.75
8.42
9.35
9.25
8.11
6.21
4.05
2.09
0.59
-0.47
-1.37
-2.44
-3.87
-5.63
-7.46
-9.04
-10.22
-11.05
-11.80
-12.76
-14.12
-15.81
-17.61
-19.29
-20.73
-22.05
-23.55
-25.62
-28.50
-32.19
-36.43
-40.79
-44.80
-48.13
-50.76
-53.03
-55.60
-59.24
-64.46
-71.13
-78.24
-84.21
-87.44
-87.20
-84.09
-80.00
-77.20
-77.51
-81.56
-88.76
-97.79
-106.93
-114.14
-116.81
-111.87
-96.60
-69.95
-33.57
8.38
50.61
88.73
120.69
146.74
168.29
186.28
200.52
210.10
214.50
214.50
212.07
209.56
208.42
208.71
209.45
209.39
208.05
206.18
205.56
208.26
215.32
225.81
236.45
242.26
238.12
220.51
188.57
144.15
91.04
33.81
-22.94
-74.96
-118.47
-150.53
-169.63
-176.25
-172.90
-163.39
-151.59
-140.28
-130.73
-122.92
-116.35
-110.49
-105.07
-99.95
-94.91
-89.63
-83.89
-77.69
-71.31
-65.25
-59.94
-55.55
-51.90
-48.57
-45.09
-41.19
-36.89
-32.48
-28.29
-24.58
-21.43
-18.76
-16.43
-14.35
-12.46
-10.77
-9.29
-8.01
-6.93
-6.05
-5.38
-4.88
-4.48
-4.02
-3.37
-2.49
-1.44
-0.41
0.41
0.88
0.98
0.78
0.41
-0.01
-0.37
-0.62
-0.74
-0.69
-0.46
-0.05
0.49
1.05
1.49
1.71
1.66
1.42
1.10
0.83
0.65
0.57
0.52
0.42
0.25
0.03
-0.21
-0.41
-0.57
-0.71
-0.83
-0.93
-0.99
-0.97
-0.84
-0.63
-0.42
-0.27
-0.26
-0.40
-0.67
-0.99
-1.24
-1.35
-1.29
-1.07
-0.78
-0.48
-0.26
-0.13
-0.10
-0.12
-0.16
-0.19
-0.19
-0.18
-0.14
-0.09
-0.05
-0.07
-0.18
-0.40
-0.69
-0.99
-1.20
-1.22
-1.03
-0.63
-0.08
0.56
1.20
1.74
2.11
2.22
2.07
1.70
1.23
0.83
0.60
0.56
0.64
0.70
0.61
0.33
-0.09
-0.53
-0.87
-1.05
