1660933682.00
64.000000
-0.00
-0.00
-0.00
-0.00
-0.00
-0.00
-0.00
-0.00
-0.00
-0.00
0.00
0.01
0.01
-0.00
-0.03
-0.05
-0.05
0.00
0.13
0.36
0.66
1.01
1.37
1.72
2.06
2.40
2.79
3.25
3.81
4.44
5.09
5.73
6.32
6.90
7.52
8.26
9.15
10.27
11.50
12.73
13.84
14.79
15.68
16.69
18.05
19.88
22.39
25.33
28.44
31.42
34.14
36.74
39.58
43.09
47.56
53.32
59.95
66.89
73.60
79.83
85.78
92.05
99.37
108.18
118.85
130.69
142.81
154.38
165.06
175.20
185.68
197.91
210.41
225.08
242.12
261.40
281.78
300.75
314.51
318.91
310.70
288.73
254.75
211.96
164.27
114.97
66.11
18.65
-26.94
-70.21
-110.69
-147.96
-182.63
-216.02
-249.83
-285.26
-322.09
-358.18
-389.58
-411.80
-421.18
-416.52
-399.57
-374.36
-345.64
-317.11
-290.57
-266.01
-242.63
-219.82
-197.86
-177.54
-159.53
-143.80
-129.61
-115.92
-102.02
-87.86
-74.00
-61.31
-50.44
-41.51
-34.10
-27.49
-21.06
-14.48
-7.86
-1.61
3.83
8.17
11.40
13.80
15.76
17.63
19.59
21.59
23.43
24.93
25.97
26.55
26.77
26.75
26.60
26.37
26.08
25.71
25.24
24.64
23.89
23.00
22.05
21.12
20.32
19.68
19.20
18.80
18.40
17.98
17.53
17.10
16.69
16.31
15.93
15.53
15.09
14.62
14.14
13.66
13.18
12.69
12.23
11.82
11.49
11.25
11.06
10.87
10.66
10.42
10.16
9.92
9.70
9.47
9.19
8.86
8.51
8.21
8.02
7.93
7.87
7.74
7.49
7.14
6.81
6.57
6.49
6.50
6.51
6.41
6.14
5.70
5.11
4.44
3.73
3.04
2.45
2.03
1.82
1.78
1.82
1.80
1.61
1.21
0.64
-0.04
-0.78
-1.56
-2.39
-3.28
-4.21
-5.12
-5.93
-6.57
-7.02
-7.32
-7.53
-7.69
-7.84
-8.01
-8.20
-8.42
-8.68
-8.94
-9.11
-9.13
-8.93
-8.53
-7.96
-7.32
-6.70
-6.17
-5.72
-5.29
-4.80
-4.18
-3.42
-2.58
-1.77
-1.13
-0.78
-0.75
-0.98
-1.33
-1.57
-1.55
-1.15
-0.42
0.48
1.35
2.04
2.49
2.77
3.02
3.29
3.57
3.73
3.70
3.48
3.17
2.94
2.89
3.05
3.32
3.61
3.86
4.07
4.29
4.51
4.70
4.81
4.79
4.63
4.41
4.22
4.10
4.09
4.18
4.29
4.36
4.31
4.10
3.75
3.37
3.08
3.01
3.18
3.49
3.77
3.89
3.81
3.61
3.43
3.39
3.51
3.68
3.78
3.69
3.43
3.10
2.80
2.60
2.47
2.36
2.20
1.99
1.78
1.66
1.69
1.84
2.06
2.26
2.36
2.33
2.17
1.90
1.56
1.20
0.88
0.67
0.60
0.66
0.80
0.96
1.11
1.24
1.36
1.49
1.64
1.78
1.87
1.87
1.77
1.60
1.44
1.32
1.27
1.26
1.25
1.20
1.10
1.02
1.01
1.12
1.30
1.49
1.60
1.59
1.48
1.33
1.19
1.11
1.08
1.10
1.17
1.24
1.28
1.21
0.99
0.66
0.30
0.06
0.01
0.10
0.23
0.28
0.19
0.05
-0.03
0.04
0.27
0.54
0.75
0.83
0.81
0.81
0.87
0.99
1.08
1.06
0.92
0.75
0.69
0.82
1.12
1.48
1.73
1.79
1.66
1.40
1.13
0.91
0.77
0.70
0.69
0.75
0.86
0.98
1.06
1.06
0.96
0.80
0.63
0.50
0.46
0.50
0.62
0.76
0.91
1.01
1.03
0.94
0.75
0.47
0.16
-0.11
-0.28
-0.30
-0.15
0.14
0.48
0.78
0.98
1.05
1.01
0.89
0.74
0.57
0.38
0.17
-0.06
-0.29
-0.48
-0.59
-0.58
-0.47
-0.32
-0.18
-0.08
-0.00
0.12
0.33
0.62
0.92
1.12
1.15
1.04
0.85
0.71
0.70
0.81
0.97
1.09
1.10
0.98
0.74
0.45
0.15
-0.10
-0.26
-0.31
-0.25
-0.12
0.02
0.13
0.17
0.10
-0.05
-0.24
-0.40
-0.47
-0.41
-0.25
-0.03
0.16
0.30
0.39
0.46
0.51
0.52
0.48
0.37
0.26
0.22
0.30
0.49
0.70
0.81
0.77
0.61
0.40
0.25
0.22
0.28
0.42
0.56
0.67
0.72
0.69
0.59
0.42
0.23
0.07
-0.00
0.03
0.16
0.36
0.58
0.83
1.09
1.33
1.51
1.57
1.47
1.22
0.89
0.58
0.37
0.29
0.29
0.30
0.24
0.12
-0.04
-0.19
-0.30
-0.39
-0.46
-0.53
-0.61
-0.68
-0.73
-0.76
-0.74
-0.66
-0.53
-0.34
-0.15
0.00
0.06
0.02
-0.12
-0.29
-0.42
-0.46
-0.34
-0.08
0.31
0.74
1.10
1.29
1.23
0.91
0.39
-0.16
-0.56
-0.72
-0.60
-0.32
-0.02
0.18
0.24
0.22
0.20
0.26
0.39
0.53
0.65
0.72
0.76
0.79
0.79
0.73
0.62
0.47
0.36
0.34
0.40
0.51
0.58
0.59
0.53
0.44
0.32
0.14
-0.17
-0.65
-1.23
-1.75
-2.05
-2.06
-1.82
-1.54
-1.43
-1.61
-2.08
-2.70
-3.30
-3.74
-4.01
-4.14
-4.26
-4.43
-4.75
-5.24
-5.93
-6.78
-7.75
-8.74
-9.68
-10.49
-11.20
-11.88
-12.67
-13.75
-15.23
-17.15
-19.42
-21.82
-24.09
-26.07
-27.82
-29.62
-31.91
-35.01
-38.97
-43.50
-48.11
-52.41
-56.35
-60.30
-64.83
-70.43
-77.22
-84.94
-93.02
-100.96
-108.47
-115.59
-122.59
-129.77
-137.43
-145.94
-155.81
-167.57
-181.26
-195.79
-208.61
-216.05
-214.31
-200.90
-175.46
-139.76
-96.84
-49.75
-0.86
48.07
95.29
138.42
174.61
201.36
217.58
224.22
223.94
220.06
215.41
211.52
208.68
206.40
204.26
202.33
201.26
201.91
204.76
209.63
215.59
221.35
225.84
228.74
230.61
232.64
236.01
241.24
247.98
255.19
261.64
266.28
268.26
266.66
260.25
247.57
227.40
199.43
164.45
124.11
80.07
33.41
-15.32
-65.35
-114.74
-160.05
-197.05
-222.28
-234.46
-235.12
-227.84
-216.72
-204.86
-193.63
-182.92
-172.12
-161.01
-150.06
-140.06
-131.59
-124.49
-118.04
-111.31
-103.71
-95.22
-86.45
-78.21
-71.12
-65.35
-60.58
-56.21
-51.67
-46.66
-41.30
-35.99
-31.20
-27.26
-24.22
-21.87
-19.84
-17.80
-15.56
-13.17
-10.79
-8.61
-6.78
-5.32
-4.18
-3.29
-2.58
-2.00
-1.54
-1.19
-0.92
-0.71
-0.53
-0.39
-0.29
-0.21
-0.11
0.06
0.36
0.77
1.18
1.47
1.50
1.18
0.56
-0.21
-0.92
-1.36
-1.39
-1.04
-0.43
0.22
0.71
0.90
0.77
0.43
0.04
-0.26
-0.40
-0.40
-0.32
-0.22
-0.11
-0.02
0.02
-0.01
-0.15
-0.39
-0.70
-0.99
-1.20
-1.30
-1.29
-1.20
-1.03
-0.76
-0.38
0.13
0.70
1.26
1.76
2.22
2.69
3.23
3.79
4.21
4.26
3.76
2.75
1.46
0.21
-0.68
-1.11
-1.18
-1.09
-1.06
-1.15
-1.31
-1.42
-1.38
-1.16
-0.82
-0.46
-0.19
-0.08
-0.16
-0.44
-0.84
-1.28
-1.64
-1.82
-1.81
-1.66
-1.43
-1.18
-0.93
-0.64
-0.26
0.21
0.75
1.34
1.93
2.49
3.00
3.38
3.56
3.43
2.94
2.12
1.11
0.12
-0.64
-1.05
-1.08
-0.83
-0.43
-0.02
0.32
0.53
0.57
0.41
0.02
-0.57
-1.27
-1.90
-2.30
-2.39
-2.20
-1.87
-1.55
-1.35
-1.25
-1.17
-0.99
-0.64
-0.13
0.50
1.22
2.00
2.78
3.45
3.84
3.82
3.32
2.46
1.45
0.56
-0.05
-0.34
-0.41
-0.43
-0.51
-0.71
-0.99
-1.32
-1.63
-1.91
-2.14
-2.30
-2.38
-2.33
-2.14
-1.82
-1.43
-1.04
-0.72
-0.48
-0.32
-0.16
0.09
0.51
1.13
1.85
2.49
2.86
2.80
2.30
1.48
0.60
-0.13
-0.51
-0.52
-0.27
0.10
0.38
0.45
0.27
-0.10
-0.58
-1.03
-1.39
-1.57
-1.60
-1.50
-1.36
-1.25
-1.23
-1.33
-1.46
-1.54
-1.46
-1.16
-0.66
-0.02
0.67
1.35
2.00
2.61
3.12
3.42
3.38
2.94
2.16
1.26
0.49
0.05
-0.02
0.15
0.33
0.32
0.06
-0.41
-0.93
-1.37
-1.68
-1.89
-2.04
-2.16
-2.18
-2.04
-1.73
-1.34
-0.99
-0.81
-0.78
-0.81
-0.73
-0.45
0.02
0.59
1.18
1.73
2.24
2.70
3.04
3.12
2.84
2.21
1.41
0.74
0.42
0.52
0.93
1.35
1.53
1.32
0.75
-0.08
-0.99
-1.82
-2.48
-2.94
-3.18
-3.23
-3.13
-2.90
-2.59
-2.21
-1.74
-1.17
-0.49
0.28
1.08
1.80
2.37
2.76
2.95
2.99
2.89
2.65
2.26
1.71
1.07
0.46
0.02
-0.17
-0.10
0.07
0.16
0.02
-0.41
-1.08
-1.83
-2.53
-3.08
-3.45
-3.62
-3.57
-3.30
-2.78
-2.07
-1.29
-0.58
-0.08
0.19
0.31
0.46
0.82
1.50
2.45
3.49
4.34
4.74
4.53
3.73
2.57
1.36
0.40
-0.10
-0.13
0.17
0.61
0.97
1.11
0.97
0.55
-0.06
-0.76
-1.43
-1.93
-2.21
-2.26
-2.18
-2.04
-1.90
-1.77
-1.59
-1.33
-0.96
-0.53
-0.09
0.34
0.76
1.20
1.70
2.24
2.71
2.99
2.95
2.53
1.80
0.90
0.01
-0.71
-1.18
-1.41
-1.50
-1.56
-1.67
-1.85
-2.03
-2.15
-2.18
-2.17
-2.19
-2.33
-2.57
-2.79
-2.81
-2.50
-1.85
-1.01
-0.20
0.41
0.79
1.04
1.33
1.79
2.43
3.14
3.72
3.97
3.79
3.18
2.29
1.32
0.51
0.02
-0.10
0.05
0.31
0.51
0.56
0.46
0.26
0.03
-0.21
-0.46
-0.75
-1.05
-1.35
-1.62
-1.83
-1.99
-2.06
-2.00
-1.77
-1.33
-0.72
-0.04
0.60
1.12
1.52
1.84
2.14
2.38
2.49
2.34
1.92
1.29
0.65
0.19
0.02
0.08
0.20
0.18
-0.09
-0.59
-1.18
-1.73
-2.18
-2.52
-2.82
-3.06
-3.19
-3.11
-2.78
-2.25
-1.67
-1.19
-0.87
-0.67
-0.43
-0.02
0.63
1.46
2.32
3.04
3.52
3.71
3.64
3.34
2.86
2.27
1.68
1.22
1.01
1.09
1.38
1.68
1.79
1.54
0.91
0.02
-0.97
-1.89
-2.62
-3.14
-3.48
-3.67
-3.69
-3.52
-3.13
-2.52
-1.74
-0.92
-0.19
0.38
0.82
1.23
1.74
2.36
3.01
3.46
3.49
3.00
2.10
1.03
0.10
-0.47
-0.63
-0.53
-0.37
-0.32
-0.45
-0.71
-1.03
-1.35
-1.68
-2.04
-2.45
-2.84
-3.14
-3.25
-3.11
-2.74
-2.18
-1.50
-0.75
0.00
0.71
1.31
1.76
2.07
2.31
2.57
2.91
3.27
3.49
3.45
3.07
2.42
1.67
1.02
0.61
0.44
0.40
0.37
0.24
-0.00
-0.32
-0.66
-1.01
-1.35
-1.69
-2.01
-2.25
-2.40
-2.47
-2.52
-2.58
-2.65
-2.62
-2.38
-1.83
-1.00
-0.03
0.86
1.51
1.90
2.12
2.29
2.49
2.68
2.76
2.65
2.35
1.93
1.52
1.20
0.98
0.82
0.65
0.46
0.26
0.04
-0.23
-0.59
-1.09
-1.71
-2.37
-2.93
-3.24
-3.20
-2.80
-2.11
-1.29
-0.52
0.09
0.50
0.76
0.98
1.26
1.62
2.04
2.42
2.64
2.62
2.37
1.92
1.42
0.95
0.62
0.46
0.44
0.49
0.50
0.38
0.05
-0.50
-1.19
-1.90
-2.48
-2.82
-2.89
-2.72
-2.43
-2.14
-1.96
-1.89
-1.89
-1.86
-1.70
-1.37
-0.90
-0.35
0.23
0.83
1.48
2.19
2.89
3.42
3.61
3.35
2.68
1.86
1.21
0.97
1.17
1.58
1.86
1.69
0.98
-0.12
-1.29
-2.25
-2.81
-3.00
-2.96
-2.83
-2.66
-2.46
-2.17
-1.80
-1.41
-1.04
-0.73
-0.44
-0.07
0.42
1.01
1.55
1.91
2.02
1.92
1.74
1.59
1.52
1.50
1.43
1.28
1.08
0.92
0.85
0.86
0.85
0.72
0.40
-0.07
-0.57
-0.99
-1.23
-1.32
-1.31
-1.33
-1.47
-1.74
-2.08
-2.35
-2.43
-2.23
-1.78
-1.18
-0.60
-0.16
0.12
0.28
0.46
0.77
1.26
1.91
2.60
3.16
3.42
3.29
2.79
2.06
1.29
0.66
0.26
0.05
-0.08
-0.25
-0.51
-0.84
-1.17
-1.39
-1.46
-1.40
-1.31
-1.30
-1.45
-1.73
-2.03
-2.20
-2.11
-1.76
-1.26
-0.79
-0.50
-0.43
-0.51
-0.59
-0.51
-0.20
0.34
1.02
1.70
2.26
2.58
2.58
2.26
1.70
1.02
0.39
-0.04
-0.22
-0.21
-0.13
-0.09
-0.14
-0.23
-0.25
-0.13
0.12
0.41
0.59
0.57
0.33
-0.08
-0.54
-0.96
-1.27
-1.46
-1.53
-1.49
-1.35
-1.15
-0.93
-0.73
-0.59
-0.50
-0.43
-0.26
0.08
0.64
1.35
2.04
2.53
2.63
2.31
1.66
0.88
0.18
-0.28
-0.47
-0.45
-0.29
-0.06
0.22
0.53
0.82
1.02
1.02
0.74
0.22
-0.41
-0.97
-1.28
-1.24
-0.89
-0.37
0.13
0.48
0.63
0.61
0.50
0.36
0.22
0.09
-0.05
-0.20
-0.33
-0.42
-0.41
-0.31
-0.16
-0.04
-0.05
-0.26
-0.64
-1.04
-1.28
-1.22
-0.86
-0.34
0.14
0.40
0.43
0.30
0.16
0.14
0.23
0.36
0.45
0.46
0.41
0.36
0.35
0.35
0.32
0.20
0.04
-0.09
-0.09
0.09
0.41
0.72
0.86
0.75
0.40
-0.05
-0.42
-0.60
-0.59
-0.47
-0.38
-0.40
-0.53
-0.68
-0.77
-0.76
-0.72
-0.71
-0.80
-0.97
-1.14
-1.21
-1.10
-0.80
-0.40
-0.03
0.18
0.21
0.10
-0.05
-0.11
-0.02
0.19
0.44
0.65
0.77
0.79
0.76
0.72
0.70
0.67
0.58
0.36
-0.08
-0.77
-1.70
-2.73
-3.68
-4.40
-4.80
-4.96
-5.01
-5.14
-5.44
-5.89
-6.44
-7.01
-7.59
-8.21
-8.91
-9.72
-10.66
-11.73
-12.97
-14.40
-16.03
-17.80
-19.57
-21.21
-22.68
-24.17
-26.05
-28.78
-32.63
-37.50
-42.83
-47.78
-51.62
-54.16
-55.90
-57.94
-61.48
-67.25
-75.15
-84.29
-93.44
-101.55
-108.30
-114.17
-120.21
-127.59
-137.28
-149.84
-165.29
-182.92
-201.07
-217.06
-227.44
-228.83
-218.96
-197.41
-165.79
-126.97
-83.88
-38.37
9.05
58.55
109.64
160.22
206.49
244.09
269.84
283.02
285.71
281.77
275.32
269.33
265.04
262.41
260.90
260.21
260.38
261.54
263.56
265.95
268.15
269.83
271.06
272.27
274.05
276.77
280.21
283.26
283.89
279.46
267.50
246.61
216.99
180.48
139.71
96.93
53.04
7.54
-40.54
-91.04
-141.60
-187.70
-224.08
-246.82
-254.98
-250.95
-239.26
-224.68
-210.46
-197.72
-185.96
-174.30
-162.45
-150.99
-140.80
-132.35
-125.26
-118.48
-110.91
-102.01
-92.11
-82.20
-73.42
-66.49
-61.39
-57.44
-53.70
-49.41
-44.31
-38.69
-33.18
-28.38
-24.61
-21.79
-19.58
-17.53
-15.29
-12.79
-10.20
-7.82
-5.92
-4.63
-3.85
-3.37
-2.97
-2.48
-1.89
-1.25
-0.63
-0.09
0.31
0.56
0.62
0.48
0.19
-0.16
-0.45
-0.58
-0.53
-0.33
-0.07
0.16
0.30
0.35
0.36
0.39
0.45
0.54
0.62
0.66
0.65
0.61
0.59
0.66
0.83
1.08
1.32
1.41
1.27
0.87
0.29
-0.31
-0.79
-1.03
-1.01
-0.78
-0.41
0.01
0.40
0.66
0.68
0.38
-0.23
-1.06
-1.88
-2.45
-2.56
-2.13
-1.24
-0.12
0.95
1.73
2.09
2.06
1.76
1.32
0.86
0.37
-0.16
-0.73
-1.26
-1.63
-1.73
-1.49
-0.96
-0.29
0.37
0.90
1.26
1.47
1.58
1.60
1.53
1.34
1.02
0.58
0.06
-0.43
-0.80
-0.99
-0.99
-0.81
-0.55
-0.29
-0.13
-0.11
-0.22
-0.40
-0.59
-0.72
-0.81
-0.86
-0.90
-0.92
-0.90
-0.82
-0.68
-0.52
-0.40
-0.34
-0.35
-0.36
-0.30
-0.07
0.38
0.99
1.66
2.23
2.52
2.45
2.02
1.37
0.66
0.05
-0.35
-0.53
-0.52
-0.37
-0.11
0.20
0.53
0.78
0.90
0.86
0.68
0.44
0.24
0.14
0.11
0.08
-0.06
-0.38
-0.84
-1.32
-1.67
-1.80
-1.69
-1.42
-1.12
-0.92
-0.84
-0.86
-0.91
-0.91
-0.80
-0.55
-0.15
0.43
1.19
2.08
2.98
3.72
4.13
4.06
3.52
2.61
1.51
0.44
-0.45
-1.05
-1.33
-1.32
-1.08
-0.71
-0.34
-0.10
-0.07
-0.24
-0.50
-0.70
-0.76
-0.68
-0.59
-0.66
-0.98
-1.50
-2.04
-2.39
-2.42
-2.15
-1.72
-1.29
-0.97
-0.75
-0.60
-0.44
-0.23
0.05
0.45
1.01
1.77
2.66
3.53
4.14
4.28
3.85
2.94
1.83
0.82
0.17
-0.06
0.03
0.21
0.29
0.21
0.02
-0.16
-0.26
-0.30
-0.40
-0.68
-1.18
-1.79
-2.28
-2.48
-2.33
-1.93
-1.50
-1.21
-1.13
-1.19
-1.23
-1.12
-0.86
-0.50
-0.09
0.34
0.89
1.61
2.47
3.29
3.77
3.69
3.00
1.87
0.66
-0.28
-0.73
-0.69
-0.36
-0.00
0.17
0.09
-0.19
-0.56
-0.91
-1.20
-1.46
-1.73
-2.02
-2.28
-2.46
-2.49
-2.37
-2.12
-1.78
-1.39
-0.95
-0.48
-0.02
0.37
0.60
0.69
0.72
0.87
1.27
1.99
2.88
3.69
4.13
4.04
3.45
2.59
1.75
1.13
0.80
0.69
0.66
0.58
0.42
