1660324245.00
64.000000
-0.00
-0.00
-0.00
-0.00
-0.00
-0.00
-0.00
-0.00
-0.00
-0.00
0.00
0.01
0.01
-0.00
-0.03
-0.05
-0.05
0.00
0.13
0.36
0.66
1.01
1.37
1.72
2.06
2.40
2.79
3.24
3.80
4.42
5.06
5.66
6.20
6.68
7.15
7.68
8.32
9.15
10.09
11.03
11.88
12.57
13.16
13.81
14.71
15.99
17.84
20.08
22.47
24.74
26.77
28.65
30.69
33.29
36.73
41.35
46.80
52.57
58.12
63.15
67.72
72.31
77.53
83.83
91.68
100.55
109.72
118.41
126.15
133.04
139.63
147.08
153.88
162.14
172.42
184.99
198.92
211.60
218.83
215.85
198.95
166.80
121.45
66.69
7.17
-53.35
-112.74
-170.47
-226.83
-282.09
-336.15
-388.10
-437.11
-482.01
-521.44
-553.70
-576.99
-589.64
-590.42
-579.01
-555.93
-523.06
-483.00
-438.29
-390.44
-339.31
-283.24
-220.26
-149.65
-73.10
5.03
79.04
143.73
196.00
235.39
263.40
282.18
293.44
298.18
296.93
290.47
280.09
267.40
253.85
240.25
226.70
212.75
197.94
182.19
165.94
150.06
135.43
122.61
111.59
101.87
92.68
83.36
73.64
63.75
54.27
45.77
38.58
32.62
27.51
22.77
18.20
13.73
9.48
5.69
2.47
-0.18
-2.40
-4.32
-5.98
-7.38
-8.46
-9.14
-9.41
-9.27
-8.78
-8.06
-7.27
-6.55
-5.99
-5.60
-5.36
-5.19
-5.10
-5.11
-5.24
-5.47
-5.72
-5.89
-5.93
-5.83
-5.63
-5.34
-4.94
-4.40
-3.72
-3.03
-2.48
-2.21
-2.25
-2.49
-2.74
-2.87
-2.86
-2.75
-2.66
-2.64
-2.71
-2.82
-2.94
-3.08
-3.25
-3.45
-3.65
-3.72
-3.54
-2.97
-1.98
-0.68
0.69
1.81
2.44
2.47
2.03
1.36
0.75
0.35
0.17
0.10
0.04
-0.04
-0.04
0.15
0.57
1.14
1.65
1.92
1.89
1.67
1.46
1.44
1.70
2.17
2.71
3.20
3.59
3.91
4.14
4.23
4.08
3.62
2.82
1.79
0.63
-0.58
-1.76
-2.85
-3.76
-4.36
-4.54
-4.33
-3.88
-3.46
-3.25
-3.32
-3.55
-3.75
-3.77
-3.64
-3.48
-3.45
-3.61
-3.86
-4.02
-3.95
-3.62
-3.14
-2.73
-2.51
-2.48
-2.53
-2.51
-2.31
-2.02
-1.79
-1.79
-2.04
-2.39
-2.64
-2.60
-2.26
-1.77
-1.37
-1.25
-1.43
-1.80
-2.20
-2.50
-2.67
-2.71
-2.60
-2.23
-1.46
-0.24
1.30
2.90
4.20
4.97
5.20
5.06
4.76
4.49
4.31
4.18
4.03
3.86
3.65
3.50
3.43
3.45
3.49
3.47
3.33
3.09
2.79
2.46
2.13
1.75
1.27
0.66
-0.06
-0.81
-1.50
-2.07
-2.51
-2.86
-3.23
-3.69
-4.27
-4.96
-5.72
-6.48
-7.23
-7.97
-8.70
-9.40
-9.96
-10.20
-9.94
-9.05
-7.52
-5.51
-3.26
-1.03
1.02
2.80
4.32
5.59
6.57
7.19
7.43
7.30
6.96
6.59
6.38
6.37
6.50
6.61
6.53
6.18
5.56
4.73
3.75
2.66
1.50
0.28
-0.94
-2.06
-2.97
-3.59
-3.93
-4.03
-3.99
-3.90
-3.89
-4.03
-4.34
-4.83
-5.42
-6.00
-6.44
-6.62
-6.44
-5.83
-4.80
-3.42
-1.84
-0.27
1.14
2.27
3.11
3.71
4.14
4.43
4.54
4.44
4.12
3.66
3.22
2.97
2.99
3.29
3.71
4.06
4.21
4.11
3.84
3.48
3.12
2.75
2.26
1.56
0.61
-0.52
-1.67
-2.68
-3.47
-4.06
-4.58
-5.19
-5.98
-6.95
-8.02
-9.03
-9.80
-10.14
-9.93
-9.10
-7.70
-5.90
-3.89
-1.89
-0.05
1.55
2.88
3.93
4.70
5.18
5.40
5.44
5.38
5.30
5.27
5.32
5.44
5.63
5.81
5.89
5.77
5.42
4.93
4.47
4.20
4.16
4.22
4.13
3.64
2.67
1.34
-0.06
-1.23
-2.02
-2.44
-2.68
-2.98
-3.52
-4.39
-5.56
-6.91
-8.25
-9.37
-10.04
-10.07
-9.35
-7.92
-5.94
-3.67
-1.40
0.62
2.30
3.65
4.75
5.69
6.51
7.16
7.60
7.80
7.73
7.46
7.02
6.45
5.74
4.92
4.02
3.15
2.43
1.96
1.76
1.71
1.66
1.43
0.93
0.18
-0.68
-1.43
-1.95
-2.19
-2.28
-2.46
-2.93
-3.78
-4.94
-6.20
-7.33
-8.16
-8.58
-8.57
-8.11
-7.18
-5.79
-3.99
-1.95
0.13
2.01
3.57
4.74
5.53
5.97
6.13
6.07
5.86
5.57
5.25
4.87
4.41
3.84
3.17
2.44
1.74
1.12
0.64
0.35
0.28
0.37
0.53
0.61
0.48
0.13
-0.35
-0.81
-1.09
-1.15
-1.03
-0.83
-0.63
-0.47
-0.38
-0.34
-0.36
-0.39
-0.27
0.18
1.13
2.61
4.48
6.49
8.38
10.05
11.53
12.92
14.31
15.67
16.91
17.87
18.51
18.86
19.06
19.27
19.60
20.10
20.69
21.28
21.74
21.90
21.60
20.62
18.72
15.77
11.78
6.97
1.76
-3.35
-7.88
-11.49
-14.01
-15.47
-16.03
-15.98
-15.71
-15.60
-15.92
-16.80
-18.10
-19.54
-20.72
-21.32
-21.12
-20.10
-18.36
-16.11
-13.59
-11.06
-8.78
-6.98
-5.81
-5.33
-5.42
-5.83
-6.30
-6.60
-6.68
-6.61
-6.51
-6.42
-6.31
-6.07
-5.64
-5.07
-4.54
-4.24
-4.31
-4.69
-5.22
-5.66
-5.89
-5.87
-5.74
-5.66
-5.74
-6.04
-6.51
-7.13
-7.87
-8.71
-9.60
-10.37
-10.79
-10.58
-9.58
-7.83
-5.59
-3.25
-1.20
0.32
1.29
1.92
2.48
3.19
4.12
5.18
6.12
6.71
6.80
6.38
5.59
4.60
3.61
2.74
2.06
1.59
1.29
1.12
1.03
0.97
0.86
0.62
0.23
-0.34
-1.01
-1.67
-2.23
-2.63
-2.91
-3.16
-3.53
-4.12
-4.97
-6.01
-7.10
-7.98
-8.40
-8.14
-7.12
-5.43
-3.31
-1.12
0.81
2.28
3.24
3.76
4.00
4.06
4.00
3.85
3.63
3.38
3.11
2.85
2.54
2.14
1.60
0.92
0.19
-0.53
-1.17
-1.72
-2.24
-2.78
-3.36
-3.95
-4.49
-4.95
-5.39
-5.93
-6.70
-7.73
-8.92
-10.06
-10.93
-11.34
-11.24
-10.63
-9.56
-8.08
-6.25
-4.16
-2.02
-0.06
1.49
2.58
3.24
3.61
3.79
3.82
3.68
3.41
3.10
2.90
2.86
2.92
2.87
2.49
1.63
0.38
-1.08
-2.54
-3.90
-5.23
-6.62
-8.12
-9.66
-11.13
-12.43
-13.61
-14.80
-16.13
-17.65
-19.20
-20.52
-21.30
-21.27
-20.31
-18.42
-15.75
-12.59
-9.32
-6.37
-4.08
-2.59
-1.80
-1.48
-1.36
-1.28
-1.21
-1.23
-1.34
-1.47
-1.52
-1.44
-1.31
-1.26
-1.37
-1.57
-1.63
-1.31
-0.57
0.39
1.23
1.68
1.74
1.63
1.71
2.21
3.15
4.37
5.64
6.85
8.03
9.29
10.73
12.41
14.33
16.48
18.81
21.23
23.59
25.69
27.38
28.52
29.08
29.06
28.51
27.48
26.08
24.43
22.71
21.03
19.47
18.04
16.70
15.42
14.16
12.92
11.66
10.35
8.92
7.41
5.85
4.37
3.03
1.88
0.87
-0.07
-1.04
-2.07
-3.18
-4.33
-5.50
-6.66
-7.77
-8.72
-9.38
-9.53
-9.03
-7.85
-6.14
-4.17
-2.27
-0.70
0.43
1.17
1.66
2.01
2.32
2.61
2.91
3.26
3.72
4.30
4.97
5.61
6.09
6.30
6.18
5.76
5.09
4.21
3.16
1.98
0.72
-0.55
-1.78
-2.92
-4.01
-5.08
-6.14
-7.19
-8.14
-8.92
-9.43
-9.58
-9.29
-8.48
-7.10
-5.18
-2.87
-0.41
1.89
3.80
5.19
6.11
6.66
6.95
7.06
6.96
6.65
6.17
5.62
5.17
4.94
4.98
5.22
5.49
5.58
5.35
4.73
3.77
2.58
1.31
0.15
-0.75
-1.35
-1.70
-1.99
-2.43
-3.17
-4.20
-5.40
-6.61
-7.71
-8.71
-9.60
-10.32
-10.68
-10.45
-9.51
-7.90
-5.88
-3.77
-1.82
-0.12
1.39
2.77
4.05
5.15
5.95
6.37
6.42
6.21
5.92
5.71
5.69
5.79
5.80
5.47
4.57
3.07
1.12
-0.95
-2.85
-4.39
-5.58
-6.56
-7.39
-7.99
-8.20
-7.85
-6.98
-5.84
-4.83
-4.26
-4.21
-4.46
-4.69
-4.61
-4.14
-3.36
-2.41
-1.34
-0.07
1.48
3.32
5.29
7.12
8.54
9.42
9.78
9.68
9.22
8.40
7.22
5.73
4.06
2.45
1.12
0.27
-0.12
-0.19
-0.27
-0.69
-1.65
-3.13
-4.82
-6.31
-7.22
-7.47
-7.31
-7.21
-7.63
-8.76
-10.43
-12.19
-13.53
-14.09
-13.81
-12.90
-11.77
-10.91
-10.72
-11.36
-12.66
-14.14
-15.17
-15.27
-14.35
-12.80
-11.24
-10.18
-9.69
-9.37
-8.69
-7.34
-5.60
-4.21
-3.94
-5.17
-7.63
-10.45
-12.38
-12.18
-8.92
-2.26
7.35
18.62
29.54
37.99
42.38
42.35
38.94
34.20
30.33
28.67
28.97
29.39
27.09
19.35
4.73
-16.17
-40.63
-64.61
-84.07
-96.34
-100.86
-99.03
-93.31
-86.05
-78.83
-72.31
-66.81
-62.73
-60.70
-61.28
-64.41
-69.15
-73.95
-77.22
-77.98
-76.10
-72.13
-66.79
-60.57
-53.55
-45.64
-36.91
-27.81
-18.96
-10.81
-3.17
4.72
13.77
24.42
36.20
47.90
58.11
65.84
70.94
73.87
75.32
75.69
75.06
73.37
70.84
67.99
65.52
63.86
62.94
62.22
60.98
58.80
55.67
52.02
48.44
45.40
43.10
41.46
40.29
39.39
38.66
38.05
37.52
36.97
36.31
35.42
34.30
33.03
31.71
30.43
29.14
27.72
26.07
24.15
22.05
19.97
18.14
16.66
15.52
14.57
13.61
12.55
11.39
10.26
9.30
8.56
7.96
7.39
6.75
6.03
5.32
4.69
4.17
3.68
3.12
2.42
1.63
0.86
0.29
0.03
0.09
0.39
0.78
1.14
1.37
1.43
1.34
1.12
0.87
0.66
0.56
0.58
0.70
0.87
1.01
1.07
1.04
0.90
0.69
0.42
0.11
-0.18
-0.41
-0.54
-0.53
-0.40
-0.20
0.01
0.22
0.41
0.60
0.76
0.82
0.74
0.48
0.07
-0.41
-0.86
-1.19
-1.36
-1.37
-1.27
-1.14
-1.06
-1.06
-1.15
-1.30
-1.46
-1.62
-1.77
-1.91
-2.05
-2.14
-2.11
-1.89
-1.44
-0.82
-0.14
0.46
0.86
0.98
0.83
0.50
0.09
-0.28
-0.54
-0.64
-0.63
-0.53
-0.36
-0.15
0.08
0.28
0.37
0.28
0.02
-0.35
-0.69
-0.93
-1.02
-1.05
-1.13
-1.32
-1.61
-1.91
-2.10
-2.10
-1.95
-1.72
-1.54
-1.49
-1.59
-1.78
-1.99
-2.14
-2.24
-2.29
-2.30
-2.25
-2.11
-1.84
-1.45
-1.00
-0.60
-0.34
-0.25
-0.32
-0.45
-0.56
-0.58
-0.53
-0.45
-0.39
-0.39
-0.42
-0.45
-0.43
-0.36
-0.32
-0.37
-0.56
-0.83
-1.08
-1.17
-1.07
-0.85
-0.67
-0.65
-0.83
-1.13
-1.40
-1.55
-1.56
-1.55
-1.61
-1.79
-2.05
-2.29
-2.43
-2.47
-2.48
-2.52
-2.56
-2.55
-2.41
-2.08
-1.60
-1.08
-0.64
-0.32
-0.12
-0.02
0.01
-0.02
-0.14
-0.32
-0.52
-0.68
-0.77
-0.78
-0.74
-0.67
-0.57
-0.43
-0.25
-0.10
-0.03
-0.13
-0.38
-0.70
-0.97
-1.13
-1.19
-1.21
-1.29
-1.42
-1.58
-1.66
-1.60
-1.39
-1.12
-0.92
-0.87
-0.99
-1.24
-1.50
-1.68
-1.70
-1.54
-1.27
-0.98
-0.75
-0.63
-0.58
-0.56
-0.51
-0.39
-0.25
-0.15
-0.15
-0.26
-0.45
-0.64
-0.74
-0.73
-0.63
-0.53
-0.50
-0.60
-0.83
-1.12
-1.41
-1.64
-1.80
-1.86
-1.81
-1.64
-1.30
-0.81
-0.22
0.37
0.81
1.02
0.98
0.70
0.28
-0.19
-0.63
-1.00
-1.26
-1.43
-1.53
-1.57
-1.59
-1.60
-1.62
-1.63
-1.62
-1.56
-1.44
-1.27
-1.05
-0.82
-0.61
-0.47
-0.42
-0.47
-0.60
-0.75
-0.86
-0.87
-0.77
-0.57
-0.36
-0.23
-0.26
-0.47
-0.77
-1.01
-1.09
-0.97
-0.74
-0.55
-0.56
-0.82
-1.24
-1.66
-1.93
-1.99
-1.89
-1.72
-1.56
-1.38
-1.14
-0.78
-0.32
0.15
0.46
0.49
0.22
-0.23
-0.66
-0.90
-0.88
-0.65
-0.36
-0.16
-0.11
-0.17
-0.26
-0.31
-0.31
-0.33
-0.41
-0.55
-0.69
-0.74
-0.63
-0.42
-0.26
-0.32
-0.67
-1.21
-1.74
-2.02
-1.94
-1.56
-1.10
-0.74
-0.59
-0.60
-0.62
-0.55
-0.32
-0.01
0.28
0.47
0.51
0.43
0.26
0.07
-0.07
-0.13
-0.12
-0.13
-0.26
-0.54
-0.92
-1.25
-1.38
-1.27
-0.99
-0.72
-0.58
-0.56
-0.57
-0.49
-0.31
-0.11
-0.04
-0.20
-0.59
-1.07
-1.47
-1.66
-1.64
-1.47
-1.25
-1.07
-0.91
-0.74
-0.53
-0.29
-0.08
0.02
-0.03
-0.20
-0.42
-0.58
-0.60
-0.50
-0.34
-0.21
-0.15
-0.15
-0.14
-0.10
-0.03
-0.01
-0.12
-0.35
-0.65
-0.87
-0.88
-0.66
-0.27
0.12
0.34
0.29
-0.04
-0.55
-1.09
-1.53
-1.73
-1.67
-1.37
-0.93
-0.44
-0.00
0.31
0.47
0.47
0.30
0.03
-0.27
-0.47
-0.50
-0.33
-0.06
0.19
0.28
0.17
-0.11
-0.42
-0.65
-0.74
-0.69
-0.59
-0.49
-0.42
-0.33
-0.21
-0.05
0.07
0.07
-0.09
-0.40
-0.73
-0.96
-1.02
-0.94
-0.80
-0.69
-0.65
-0.64
-0.63
-0.57
-0.46
-0.34
-0.22
-0.13
-0.05
-0.02
-0.08
-0.27
-0.56
-0.86
-1.04
-1.03
-0.81
-0.49
-0.18
0.03
0.11
0.10
0.03
-0.07
-0.17
-0.29
-0.38
-0.42
-0.37
-0.20
0.09
0.47
0.89
1.29
1.57
1.71
1.69
1.58
1.49
1.55
1.80
2.22
2.69
3.12
3.44
3.72
4.09
4.66
5.52
6.62
7.84
9.00
10.02
10.86
11.60
12.40
13.42
14.81
16.59
18.68
20.88
22.89
24.50
25.67
26.65
27.99
30.29
33.99
39.13
45.29
51.66
57.38
61.82
64.94
67.30
69.90
73.75
79.41
86.70
94.39
100.26
101.32
94.70
78.06
50.37
12.43
-32.85
-80.53
-124.44
-158.64
-178.96
-183.61
-174.00
-153.96
-128.46
-102.18
-78.20
-57.67
-40.34
-25.55
-11.89
1.60
15.75
31.01
47.04
62.47
74.70
80.05
74.51
56.65
28.46
-3.16
-29.81
-46.46
-53.04
-52.37
-47.19
-42.78
-37.37
-28.95
-17.26
-4.58
5.14
8.03
1.68
-11.74
-29.78
-48.62
-65.50
-79.08
-89.66
-98.66
-107.45
-116.67
-126.07
-135.18
-142.56
-147.22
-148.35
-145.32
-137.72
-125.31
-108.21
-87.00
-63.00
-37.09
-9.95
18.38
48.24
79.90
113.01
146.38
178.11
205.74
227.24
240.95
245.98
242.19
230.33
212.11
190.07
167.32
146.84
130.80
119.77
112.80
107.98
103.26
97.11
88.79
78.45
66.84
55.02
43.79
33.42
23.54
13.28
1.78
-11.64
-26.61
-41.66
-54.68
-63.91
-68.55
-68.94
-66.34
-62.24
-58.84
-57.48
-58.38
-60.89
-64.19
-67.63
-70.59
-72.55
-72.87
-72.94
-73.87
-75.70
-77.72
-79.38
-80.74
-82.00
-83.53
-85.09
-89.10
-96.73
-106.90
-117.13
-125.58
-131.93
-136.85
-141.74
-147.02
-156.09
-170.09
-186.74
-201.79
-211.98
-216.51
-216.70
-215.86
-195.35
-148.99
-86.45
-26.10
20.09
50.74
70.12
83.24
89.47
91.47
87.10
75.37
58.54
41.42
28.78
23.61
33.65
59.68
96.90
133.47
159.48
171.16
170.42
161.21
147.01
130.14
111.14
91.27
70.63
50.54
33.44
21.63
15.87
15.15
17.38
19.55
19.78
16.75
10.94
4.33
-0.83
-3.35
-3.52
-2.64
-2.65
-4.60
-8.57
-13.64
-18.47
-22.04
-24.10
-25.00
-25.15
-24.90
-25.02
-25.40
-25.73
-25.78
-25.49
-24.92
-24.04
-22.70
-20.91
-18.83
-16.58
-14.35
-12.19
-9.97
-7.36
-4.04
0.12
4.93
9.98
14.90
19.42
23.40
26.69
29.06
30.07
29.28
26.50
22.06
17.03
12.82
10.68
11.20
14.08
18.28
22.54
25.88
27.90
28.67
28.39
27.04
24.38
20.19
14.51
7.83
0.82
-5.93
-12.19
-18.01
-23.51
-28.52
-32.52
-34.83
-34.96
-32.94
-29.34
-25.09
-21.05
-17.79
-15.37
-13.35
-10.95
-7.24
-1.42
6.77
16.84
27.40
36.53
42.35
43.82
41.30
36.44
31.63
28.99
29.53
32.79
37.21
40.91
42.48
41.46
38.31
33.90
29.05
24.12
19.03
13.55
7.59
1.44
-4.28
-8.88
-11.97
-13.70
-14.76
-16.10
-18.43
-21.80
-25.46
-28.01
-27.80
-23.45
-14.20
-0.22
17.20
35.60
51.51
61.16
61.69
52.31
35.04
14.42
-3.96
-15.47
-18.08
-13.03
-4.10
4.02
7.46
4.32
-5.13
-18.93
-34.26
-48.24
-58.42
-63.17
-61.90
-55.24
-44.83
-32.90
-21.57
-12.16
-4.70
2.05
10.23
22.01
38.68
59.57
81.67
100.06
109.61
107.16
93.39
73.13
53.76
42.32
42.63
53.88
71.23
88.01
98.23
98.30
87.46
67.19
40.34
10.42
-18.82
-43.89
-62.12
-72.30
-75.08
-72.70
-68.23
-64.52
-63.15
-63.93
-65.06
-63.88
-58.04
-46.56
-30.52
-12.96
1.97
10.52
10.72
3.33
-8.37
-19.71
-26.33
-25.80
-18.51
-7.36
3.28
9.19
7.62
-2.08
-18.47
-38.55
-58.61
-75.02
-84.99
-87.16
-81.85
-70.85
-56.79
-42.34
-29.32
-18.34
-8.67
1.32
13.62
29.91
50.70
74.52
97.55
114.43
120.08
112.15
92.72
68.23
47.26
37.04
40.62
55.76
76.31
94.85
105.42
104.98
93.39
72.51
45.30
15.18
-14.24
-39.52
-58.04
-68.62
-71.91
-70.01
-65.78
-61.77
-59.46
-58.81
-58.50
-56.57
-51.38
-42.57
-31.60
-21.54
-16.03
-17.78
-27.30
-42.38
-58.77
-71.71
-77.63
-75.35
-66.17
-53.16
-39.82
-29.06
-22.62
-20.99
-23.62
-29.25
-36.07
-42.01
-45.10
-43.92
-38.07
-28.25
-16.11
-3.65
7.40
16.20
22.99
29.05
36.28
46.64
61.42
80.47
101.71
121.31
134.71
138.34
131.31
116.22
98.50
84.40
78.61
82.42
93.34
106.27
115.41
116.22
106.48
86.48
58.56
26.32
-6.18
-35.11
-57.66
-72.62
-80.56
-83.54
-84.32
-85.31
-87.74
-91.24
-94.09
-94.00
-89.05
-78.59
-63.71
-47.25
-33.09
-24.92
-24.97
-32.93
-45.91
-59.30
-68.47
-70.48
-65.10
-54.57
-42.55
-32.56
-26.86
-26.06
-29.53
-36.03
-44.11
-52.25
-58.74
-61.68
-59.38
-51.06
-37.31
-20.20
-2.70
12.38
23.41
30.51
35.38
40.60
48.67
61.21
78.41
98.77
119.16
135.38
143.29
140.29
126.71
106.18
84.59
68.09
60.68
62.91
71.92
82.97
91.29
93.46
87.88
74.43
53.91
27.86
-1.48
-31.21
-58.17
-79.69
-94.27
-101.93
-103.96
-102.27
-98.80
-95.08
-92.15
-90.62
-90.70
-92.11
-94.06
-95.37
-94.96
-92.24
-87.36
-80.98
-73.75
-65.84
-56.93
-46.63
-35.14
-23.66
-14.19
-8.64
-7.91
-11.29
-16.66
-21.34
-23.11
-20.92
-14.94
-6.10
4.49
15.99
27.87
39.66
50.73
60.04
66.27
68.19
65.24
57.89
47.83
37.43
28.87
23.26
20.15
17.95
14.96
10.43
5.16
1.14
0.36
3.73
10.43
18.27
24.69
27.77
26.92
22.82
16.96
11.05
6.51
4.26
4.62
7.49
12.52
19.30
27.57
37.20
48.07
59.92
72.22
84.31
95.61
105.87
115.29
124.32
133.49
143.15
153.44
164.21
174.95
184.53
191.07
192.06
185.09
168.79
143.66
112.22
78.34
45.99
18.19
-3.62
-19.31
-29.52
-35.24
-37.81
-39.32
-42.75
-51.42
-67.71
-91.70
-120.46
-148.74
-170.81
-182.56
-182.81
-173.21
-157.10
-138.31
-120.41
-106.79
-100.52
-103.79
-116.70
-136.35
-157.04
-172.13
-176.62
-169.35
-153.33
-134.24
-117.81
-107.64
-104.29
-105.87
-109.33
-111.67
-110.72
-104.95
-93.36
-75.23
-50.29
-19.35
15.34
50.29
81.81
107.04
124.50
133.82
135.16
129.10
117.04
101.70
86.88
76.17
71.12
70.08
68.88
63.21
51.26
34.89
18.67
7.25
2.93
4.86
10.12
15.80
20.43
24.15
27.74
31.61
35.28
37.51
37.10
33.56
27.56
20.60
14.50
10.60
9.38
10.33
12.37
14.36
15.61
16.01
15.78
15.15
14.22
12.94
11.20
8.92
6.19
3.20
0.33
-1.87
-2.79
-2.01
0.51
4.33
8.66
12.68
15.78
17.79
18.98
19.88
21.03
22.77
25.19
28.09
31.03
33.37
34.54
34.31
32.85
30.65
28.25
26.10
24.43
23.32
22.50
21.80
21.22
20.90
20.90
21.03
21.01
20.48
19.04
15.65
9.39
-0.11
-12.54
-26.99
-42.20
-56.72
-69.15
-78.50
-85.27
-90.26
-93.92
-96.20
-96.95
-96.31
-94.55
-92.09
-89.29
-87.66
-88.23
-90.92
-94.61
-97.92
-99.85
-99.77
-97.48
-86.36
-64.18
-34.69
-5.49
17.59
32.94
41.85
46.34
48.02
47.93
45.48
40.40
33.55
26.65
21.28
18.12
16.93
16.31
15.58
13.38
9.38
4.84
2.17
3.54
9.67
19.44
30.38
39.70
44.74
44.60
40.34
34.29
28.66
24.61
22.14
20.97
20.70
20.79
21.01
21.34
21.78
22.13
22.04
21.27
19.86
18.10
16.20
14.34
12.59
10.96
9.38
7.80
6.16
4.47
2.71
0.82
-1.27
-3.65
-6.34
-9.34
-12.57
-15.97
-19.43
-22.88
-26.21
-29.23
-31.69
-33.29
-33.84
-33.28
-31.74
-29.45
-26.62
-23.35
-19.57
-15.21
-10.31
-5.18
-0.33
3.68
6.42
7.76
7.89
7.23
6.24
5.33
4.66
4.21
3.85
3.42
2.83
2.08
1.27
0.47
-0.32
-1.20
-2.31
-3.80
-5.67
-7.80
-9.88
-11.56
-12.47
-12.31
-10.89
-8.19
-4.32
0.42
5.63
10.84
15.63
19.65
22.64
24.51
25.20
24.76
23.18
20.31
15.74
8.96
-0.30
-11.67
-23.77
-34.40
-41.16
-42.43
-38.16
-30.07
-21.08
-14.23
-11.62
-13.85
-20.05
-28.41
-36.80
-43.19
-45.87
-43.54
-35.52
-22.06
-4.41
15.23
34.45
51.39
65.52
77.72
89.74
103.15
118.31
133.97
147.62
156.43
158.30
152.59
140.23
123.23
104.06
84.96
67.46
52.20
39.01
27.10
15.39
2.87
-11.22
-27.24
-45.17
-64.61
-84.87
-105.02
-123.96
-140.50
-153.45
-161.67
-164.15
-160.15
-149.36
-132.17
-109.78
-84.16
-57.94
-34.17
-15.97
-6.10
-6.43
-17.34
-37.02
-61.41
-84.83
-101.19
-105.64
-95.70
-71.65
-36.00
7.26
53.52
97.92
135.75
163.05
177.43
178.93
170.13
155.39
139.19
124.52
112.12
100.85
88.95
75.50
61.00
47.24
36.42
30.22
29.10
32.12
37.43
42.81
46.26
46.51
43.01
35.69
24.56
9.36
-10.51
-35.72
-66.50
-102.08
-140.20
-176.98
-207.35
-226.05
-229.14
-215.47
-187.44
-150.41
-110.90
-74.41
-43.93
-19.87
-1.19
13.09
23.10
28.31
28.40
23.96
16.42
7.34
-2.42
-12.81
-24.09
-36.01
-47.49
-56.93
-63.12
-65.84
-65.80
-64.04
-61.16
-57.08
-51.34
-43.56
-33.74
-22.15
-9.01
5.58
21.43
37.76
53.12
65.71
74.27
78.87
81.08
83.21
87.07
92.92
99.31
103.95
104.95
101.88
95.95
89.38
84.28
81.62
80.84
80.09
77.02
69.53
56.46
37.83
14.64
-11.49
-38.94
-66.51
-93.70
-120.50
-146.95
-172.53
-195.77
-214.27
-225.24
-226.51
-217.43
-199.40
-175.62
-150.29
-127.40
-109.62
-97.79
-91.05
-87.44
-84.55
-79.88
-71.01
-55.82
-33.09
-3.29
30.86
64.86
93.73
113.85
124.34
127.17
126.13
125.02
126.18
130.02
135.42
140.71
144.48
145.90
144.67
140.87
134.94
127.51
119.23
110.52
101.33
91.23
79.62
66.18
51.13
35.31
20.20
7.70
-0.13
-1.70
3.38
13.43
24.53
31.29
28.63
14.03
-11.13
-41.60
-70.23
-90.70
-99.87
-98.48
-90.16
-79.22
-68.74
-59.74
-51.74
-43.94
-36.26
-29.35
-24.01
-20.30
-17.28
-13.52
-7.96
-0.70
6.87
12.85
15.77
15.48
13.36
11.78
13.25
19.45
30.65
45.48
61.19
74.41
82.07
82.59
76.54
66.61
56.69
50.44
49.83
54.45
61.88
68.82
72.51
71.58
