1660752516.00
64.000000
-0.00
-0.00
-0.00
-0.00
-0.00
-0.00
-0.00
-0.00
-0.00
-0.00
0.00
0.01
0.01
-0.00
-0.03
-0.05
-0.05
0.00
0.13
0.36
0.66
1.01
1.37
1.72
2.06
2.40
2.79
3.24
3.80
4.42
5.06
5.66
6.20
6.68
7.15
7.68
8.31
9.14
10.09
11.04
11.88
12.56
13.14
13.76
14.65
15.96
17.91
20.32
22.90
25.38
27.58
29.57
31.68
34.32
37.81
42.54
48.15
54.10
59.83
64.97
69.58
74.14
79.34
85.71
93.76
103.00
112.62
121.73
129.77
136.75
143.30
150.75
157.77
166.64
177.95
191.79
206.97
220.57
228.25
225.36
208.53
176.87
132.76
80.05
23.07
-34.94
-92.44
-149.16
-205.23
-260.37
-313.74
-363.87
-409.83
-450.91
-486.50
-515.74
-537.23
-549.23
-549.96
-538.36
-514.18
-478.64
-433.85
-382.46
-327.09
-270.01
-212.89
-156.99
-103.33
-52.76
-6.27
35.23
71.06
100.93
124.99
143.77
158.01
168.43
175.65
180.06
181.87
181.29
178.55
174.03
168.20
161.53
154.45
147.18
139.79
132.22
124.39
116.28
108.02
99.82
91.95
84.60
77.81
71.43
65.20
58.85
52.30
45.64
39.20
33.35
28.37
24.27
20.77
17.39
13.67
9.37
4.66
-0.01
-4.04
-7.02
-8.87
-9.90
-10.68
-11.78
-13.72
-16.78
-20.96
-25.79
-30.13
-32.29
-30.52
-23.78
-12.45
1.53
15.36
26.36
33.02
35.40
34.67
32.33
29.46
26.53
23.69
21.21
19.53
19.13
20.22
22.65
26.06
29.99
33.86
36.96
38.41
37.38
33.56
27.42
20.23
13.56
8.60
5.69
4.28
3.46
2.57
1.58
1.00
1.42
3.16
5.93
8.98
11.37
12.39
11.81
9.94
7.50
5.29
4.01
3.97
5.08
6.85
8.60
9.59
9.32
7.54
4.31
-0.12
-5.61
-12.01
-19.18
-26.78
-34.20
-40.73
-45.96
-50.04
-53.43
-56.20
-57.34
-54.80
-46.28
-30.75
-9.54
13.77
34.60
49.25
56.30
56.96
53.53
48.36
42.88
37.43
31.90
26.32
20.97
16.25
12.27
8.81
5.63
2.84
0.93
0.74
2.94
7.53
13.73
20.01
24.53
25.50
21.83
13.33
0.98
-13.00
-26.25
-37.04
-45.18
-51.60
-58.17
-66.58
-76.99
-87.32
-93.69
-92.06
-80.28
-59.39
-33.44
-8.01
12.05
24.34
29.22
28.88
25.67
21.09
15.60
9.40
3.16
-1.73
-3.61
-1.45
4.56
12.95
21.57
28.38
32.29
33.51
33.39
33.70
35.82
39.94
44.95
48.80
49.47
45.85
38.30
28.57
19.09
12.06
8.78
9.36
13.01
18.77
25.67
32.95
40.21
47.50
55.27
64.30
75.44
89.13
104.78
120.31
132.25
136.40
128.93
107.58
72.48
26.34
-26.01
-78.57
-125.39
-161.56
-184.16
-192.59
-188.57
-175.56
-157.79
-139.34
-123.34
-111.53
-104.08
-99.89
-97.12
-93.94
-89.15
-82.58
-75.02
-67.73
-61.86
-58.00
-55.92
-54.73
-53.18
-50.09
-44.69
-37.03
-28.15
-19.84
-14.13
-12.36
-14.38
-18.42
-21.60
-21.13
-15.43
-4.77
9.12
23.89
37.60
49.26
58.70
66.08
71.47
74.71
75.70
74.60
71.96
68.52
64.92
61.45
58.06
54.46
50.36
45.67
40.50
35.16
30.01
25.28
21.03
17.08
13.14
8.95
4.49
0.02
-4.05
-7.29
-9.55
-11.05
-12.31
-14.03
-16.82
-20.98
-26.37
-32.39
-38.10
-42.41
-44.41
-43.62
-40.16
-34.72
-28.44
-22.51
-17.92
-15.14
-14.09
-14.17
-14.56
-14.48
-13.45
-11.38
-8.57
-5.45
-2.36
0.59
3.58
6.99
11.18
16.25
21.98
27.82
33.04
36.96
39.10
39.28
37.57
34.27
29.79
24.63
19.40
14.68
10.93
8.31
6.64
5.46
4.27
2.70
0.76
-1.17
-2.40
-2.24
-0.18
3.90
9.69
16.49
23.45
29.76
34.84
38.40
40.43
41.09
40.66
39.50
37.96
36.34
34.72
32.94
30.65
27.50
23.37
18.41
13.02
7.64
2.60
-1.98
-6.14
-9.91
-13.29
-16.18
-18.52
-20.34
-21.76
-22.95
-24.06
-25.11
-26.07
-26.92
-27.71
-28.60
-29.80
-31.48
-33.57
-35.71
-37.28
-37.49
-35.75
-31.82
-26.00
-19.05
-11.97
-5.67
-0.77
2.54
4.44
5.29
5.46
5.21
4.67
3.84
2.80
1.69
0.72
0.11
-0.03
0.20
0.59
0.86
0.90
0.83
1.07
2.11
4.38
8.05
13.01
18.89
25.20
31.29
36.46
39.86
40.66
38.20
32.27
23.32
12.46
1.32
-8.28
-14.85
-17.53
-16.39
-12.27
-6.51
-0.49
4.75
8.74
11.42
12.95
13.43
12.86
11.27
8.88
6.18
3.82
2.29
1.68
1.69
1.84
1.84
1.87
2.63
5.00
9.59
16.31
24.15
31.45
36.34
37.29
33.63
25.75
15.05
3.57
-6.60
-13.95
-17.93
-19.03
-18.52
-17.84
-18.06
-19.49
-21.71
-23.85
-25.06
-24.83
-23.19
-20.58
-17.60
-14.83
-12.68
-11.30
-10.62
-10.38
-10.22
-9.78
-8.83
-7.32
-5.38
-3.27
-1.27
0.43
1.71
2.51
2.85
2.78
2.40
1.90
1.49
1.37
1.55
1.88
2.10
1.94
1.32
0.41
-0.46
-0.94
-0.80
-0.05
1.05
2.09
2.66
2.45
1.43
-0.15
-1.72
-2.54
-1.98
0.25
4.01
8.64
13.31
17.24
20.00
21.53
22.02
21.69
20.69
19.02
16.68
13.78
10.58
7.46
4.77
2.72
1.37
0.70
0.70
1.30
2.44
3.95
5.55
6.94
7.90
8.36
8.41
8.22
7.89
7.39
6.51
5.08
3.04
0.59
-1.85
-3.88
-5.25
-6.02
-6.53
-7.18
-8.15
-9.19
-9.54
-8.16
-4.20
2.58
11.50
20.92
28.81
33.34
33.68
30.28
24.76
19.35
16.20
16.81
21.75
30.43
41.03
50.57
55.41
52.41
40.25
20.37
-2.99
-24.19
-38.15
-42.23
-36.86
-24.87
-9.81
5.62
20.27
34.08
47.04
58.32
66.23
69.03
65.99
57.99
47.43
37.27
29.94
26.52
26.57
28.64
30.89
32.20
32.70
33.60
36.32
41.73
49.70
59.24
68.99
77.60
84.57
90.47
96.48
103.56
111.83
120.56
128.64
135.20
139.21
140.43
139.54
137.74
136.06
134.94
134.42
134.30
134.31
132.13
126.18
116.73
105.88
95.94
87.96
81.46
74.85
66.15
49.62
21.77
-16.17
-58.67
-99.40
-134.11
-161.08
-180.46
-193.45
-208.42
-231.93
-265.01
-303.31
-341.53
-376.95
-409.08
-438.27
-464.79
-497.16
-541.23
-595.92
-653.61
-706.21
-749.68
-783.64
-809.44
-775.36
-654.86
-463.20
-249.74
-59.33
89.11
196.50
271.77
324.64
363.01
383.94
385.23
370.11
347.75
327.41
313.11
305.07
302.05
302.92
299.76
287.62
266.78
243.07
222.98
208.29
198.26
192.01
189.36
186.12
179.14
168.03
155.95
146.70
139.48
132.29
124.18
115.29
103.15
87.96
69.43
48.79
27.78
3.77
-25.86
-61.53
-101.76
-145.92
-194.22
-247.20
-304.16
-339.83
-338.97
-305.08
-255.51
-206.24
-164.89
-132.84
-109.19
-92.30
-80.57
-75.93
-78.46
-83.89
-84.76
-74.37
-50.22
-15.04
24.86
62.30
89.18
101.83
102.42
96.79
90.21
84.91
80.30
74.96
68.51
60.31
51.11
42.75
36.91
34.08
33.30
33.13
32.70
32.11
30.96
29.03
26.30
22.92
18.90
14.07
8.37
2.02
-4.35
-10.38
-15.83
-20.62
-24.94
-29.32
-34.43
-40.73
-48.22
-56.14
-63.57
-69.68
-74.05
-76.74
-78.20
-79.04
-79.52
-81.04
-83.57
-86.20
-87.34
-85.37
-79.25
-69.03
-55.93
-41.87
-28.82
-17.91
-9.52
-3.40
0.96
4.04
6.22
7.77
8.93
9.95
11.14
12.60
14.28
16.05
17.81
19.49
21.07
22.50
23.71
24.72
25.53
26.11
26.34
26.09
25.20
23.63
21.42
18.64
15.42
11.74
7.61
3.13
-1.36
-5.40
-8.58
-10.85
-12.63
-14.72
-18.00
-23.07
-29.96
-38.04
-46.11
-52.70
-56.40
-56.25
-51.94
-43.92
-33.24
-21.33
-9.61
0.81
9.31
15.71
20.25
23.38
25.61
27.43
29.18
31.02
32.93
34.77
36.39
37.65
38.56
39.19
39.75
40.43
41.47
42.98
44.93
47.08
49.09
50.57
51.33
51.37
50.86
49.90
48.50
46.44
43.52
39.67
35.12
30.28
25.61
21.43
17.76
14.43
11.15
7.67
3.77
-0.65
-5.59
-10.83
-15.80
-19.67
-21.49
-20.51
-16.48
-9.72
-1.09
8.37
17.62
25.82
32.37
36.76
38.72
38.16
35.46
31.45
27.32
24.29
23.24
24.37
27.20
30.77
34.09
36.48
37.80
38.37
38.76
39.42
40.60
42.29
44.37
46.75
49.40
52.34
55.48
58.56
61.09
62.51
62.44
60.80
57.93
54.45
51.05
48.22
46.11
44.49
42.81
40.35
36.37
30.27
21.79
11.22
-0.54
-12.03
-21.54
-27.59
-29.44
-27.33
-22.34
-16.07
-10.04
-5.40
-2.78
-2.33
-3.96
-7.30
-11.78
-16.52
-20.45
-22.53
-21.97
-18.62
-12.92
-5.78
1.71
8.70
14.76
19.93
24.58
29.17
33.94
38.80
43.20
46.32
47.37
45.86
42.01
36.71
31.37
27.55
26.35
28.08
32.15
37.27
41.91
44.90
45.93
45.79
46.30
49.73
58.04
72.02
90.72
111.33
129.56
140.69
140.75
127.80
102.66
68.83
31.68
-2.99
-30.52
-48.46
-56.86
-57.87
-54.65
-50.37
-47.40
-47.05
-49.55
-54.29
-60.10
-65.53
-69.31
-70.61
-69.43
-66.55
-63.34
-61.26
-61.42
-64.10
-68.71
-73.93
-78.15
-79.96
-78.54
-73.90
-66.80
-58.46
-50.09
-42.42
-35.42
-28.28
-19.89
-9.29
3.64
18.02
32.13
43.94
51.92
55.51
55.32
52.92
50.30
49.35
51.32
56.66
64.96
75.19
85.89
95.61
103.25
108.45
111.82
114.87
119.40
126.73
136.89
148.21
157.53
161.04
155.17
137.43
106.89
64.51
13.37
-41.42
-93.36
-135.90
-164.30
-177.16
-176.99
-169.12
-159.57
-152.70
-149.87
-149.62
-149.08
-145.76
-138.69
-128.44
-116.44
-104.06
-92.10
-80.93
-70.80
-62.14
-55.54
-51.32
-49.14
-47.91
-46.01
-41.95
-34.89
-25.03
-13.45
-1.62
9.16
18.29
25.96
32.81
39.48
46.14
52.31
57.01
59.22
58.40
54.76
49.23
43.18
37.99
34.70
33.79
35.11
38.01
41.54
44.80
47.29
49.15
51.20
54.59
60.39
68.97
79.66
90.67
99.37
102.89
98.80
85.95
64.98
38.43
10.21
-15.44
-35.16
-47.33
-52.27
-51.77
-48.18
-43.58
-39.38
-36.32
-34.74
-34.78
-36.41
-39.26
-42.66
-45.64
-47.28
-47.09
-45.14
-42.06
-38.77
-36.19
-34.90
-35.06
-36.39
-38.36
-40.28
-41.44
-41.10
-38.52
-33.02
-24.09
-11.53
4.38
22.87
42.71
62.32
79.93
93.85
102.66
105.43
101.91
92.43
77.83
59.28
38.27
16.66
-3.26
-18.87
-27.79
-28.56
-21.33
-8.04
8.11
23.66
36.01
44.24
49.12
52.57
56.69
62.77
70.72
79.00
84.97
85.48
77.74
60.07
32.62
-2.38
-40.96
-78.15
-109.20
-130.68
-141.10
-141.07
-132.75
-119.12
-103.17
-87.42
-73.69
-63.08
-55.96
-52.02
-50.36
-49.75
-48.93
-47.11
-44.08
-40.25
-36.36
-33.11
-30.84
-29.41
-28.32
-26.90
-24.57
-21.04
-16.35
-10.87
-5.09
0.57
6.01
11.48
17.46
24.45
32.62
41.62
50.55
58.12
62.92
63.68
59.63
50.66
37.31
20.72
2.29
-16.53
-34.28
-49.47
-60.47
-65.58
-63.54
-54.08
-38.37
-19.00
0.60
17.23
28.81
34.81
36.12
34.45
31.65
29.18
27.97
28.32
30.01
32.25
33.80
33.15
28.97
20.68
8.91
-4.47
-16.90
-25.95
-30.23
-29.89
-26.33
-21.60
-17.55
-15.32
-15.29
-17.33
-21.12
-26.28
-32.31
-38.38
-43.43
-46.40
-46.55
-43.83
-38.88
-32.83
-26.84
-21.73
-17.65
-14.16
-10.43
-5.71
0.29
7.16
13.90
19.27
22.34
22.86
21.49
19.52
18.45
19.33
22.43
27.13
32.23
36.59
39.51
41.02
41.63
41.97
42.39
42.92
43.34
43.50
43.75
44.97
48.30
54.57
63.90
75.32
87.35
98.38
107.19
113.45
117.84
121.69
126.46
133.32
142.66
154.51
168.04
181.59
193.12
200.82
203.69
201.99
197.48
192.53
189.79
189.87
190.68
188.39
179.22
161.12
134.36
101.51
65.77
30.52
-3.20
-36.32
-70.04
-104.24
-137.15
-166.92
-188.17
-200.14
-206.95
-212.79
-222.10
-237.68
-259.67
-286.41
-317.30
-353.36
-396.80
-434.35
-451.19
-436.60
-389.42
-316.68
-229.95
-143.95
-73.32
-29.00
-14.60
-27.31
-58.60
-96.68
-131.43
-150.78
-146.81
-117.83
-69.27
-12.45
36.75
63.63
60.32
30.41
-11.85
-48.21
-62.88
-43.51
12.63
97.05
193.40
275.28
318.87
315.74
275.28
217.32
161.11
118.20
90.94
75.69
66.85
60.96
57.01
53.62
48.61
39.50
25.92
11.32
2.55
6.41
26.56
60.98
101.03
134.47
150.24
142.36
110.41
60.95
4.49
-47.91
-88.11
-112.83
-123.35
-123.68
-118.50
-111.65
-105.24
-100.08
-95.89
-91.84
-87.10
-81.00
-73.05
-63.11
-51.59
-39.46
-28.24
-19.48
-14.23
-12.55
-13.31
-14.63
-14.68
-12.63
-8.94
-5.07
-3.13
-5.19
-12.38
-24.12
-38.07
-50.74
-58.63
-59.65
-53.32
-42.14
-31.85
-29.85
-42.26
-71.39
-114.77
-166.11
-217.55
-260.86
-290.56
-305.32
-307.08
-298.04
-279.01
-249.34
-208.05
-154.93
-89.41
-12.55
71.79
157.16
236.56
304.19
356.00
389.75
394.48
364.60
306.94
238.73
176.42
128.31
95.51
75.37
63.93
57.45
54.78
55.71
59.26
63.33
65.61
65.14
62.12
57.34
51.47
46.51
44.15
44.23
44.95
43.56
38.51
29.16
15.59
-1.51
-20.14
-37.89
-53.60
-65.25
-74.17
-81.57
-88.35
-95.17
-102.44
-109.99
-116.77
-121.72
-123.19
-119.39
-108.17
-88.65
-62.43
-33.62
-8.98
8.21
15.83
14.72
8.23
1.35
-1.52
1.79
12.19
26.68
42.42
57.16
70.00
80.43
88.20
92.82
93.81
91.34
86.39
81.08
77.12
75.50
75.64
76.31
76.23
74.79
72.33
69.78
68.52
69.42
72.73
77.59
83.03
88.32
93.08
97.36
101.46
106.00
111.50
118.27
125.66
133.05
139.95
145.97
150.96
154.63
156.38
154.60
151.60
147.28
141.33
133.65
124.44
114.11
102.84
90.47
76.29
59.45
38.58
13.14
-16.66
-50.22
-86.79
-125.51
-164.92
-202.37
-233.97
-256.06
-266.07
-263.99
-252.83
-237.60
-223.41
-213.68
-209.68
-211.22
-218.37
-231.62
-251.19
-275.40
-299.59
-316.39
-318.17
-300.07
-262.43
-210.96
-154.51
-101.63
-57.80
-24.45
-0.06
17.90
31.30
40.90
47.06
50.57
53.09
56.36
61.19
66.80
70.94
71.00
65.37
54.34
40.07
25.76
14.36
7.52
5.21
5.94
7.56
8.15
6.63
2.89
-2.57
-9.27
-17.11
-26.54
-38.09
-51.87
-67.19
-82.56
-96.34
-107.19
-114.79
-119.79
-123.62
-128.06
-134.59
-144.01
-156.25
-170.32
-184.49
-196.71
-205.21
-209.10
-208.78
-205.92
-202.98
-202.33
-205.50
-212.59
-222.43
-232.91
-241.58
-246.18
-244.99
-237.06
-222.25
-201.31
-175.70
-147.34
-118.25
-90.09
-63.94
-40.15
-18.37
2.18
22.53
43.74
66.74
91.99
119.19
147.01
173.24
195.21
210.63
218.39
218.85
213.61
204.85
194.55
183.97
173.59
163.38
153.21
143.06
133.10
123.52
114.39
105.60
96.80
87.49
77.03
64.78
50.26
33.48
15.14
-3.40
-20.25
-33.64
-42.37
-46.24
-45.92
-42.59
-37.39
-30.95
-23.24
-13.70
-1.73
12.99
30.37
49.92
70.94
92.70
114.49
135.60
155.28
172.73
187.41
199.21
208.58
216.11
222.06
225.86
226.01
220.65
208.41
189.19
164.29
135.95
106.54
77.85
50.85
25.98
3.61
-15.61
-30.88
-41.58
-47.87
-50.63
-51.20
-50.47
-48.09
-42.26
-30.29
-9.99
18.92
54.03
90.79
123.91
149.31
165.50
173.98
178.41
183.26
192.18
206.95
227.02
249.64
270.52
284.95
288.90
280.31
259.73
230.30
196.87
164.59
137.17
115.92
99.55
85.05
69.24
50.51
29.72
9.88
-5.36
-13.98
-17.11
-19.23
-26.98
-46.85
-82.86
-134.99
-198.86
-266.69
-329.24
-377.99
-407.16
-414.79
-402.79
-376.02
-340.62
-302.34
-265.42
-232.21
-203.34
-178.11
-154.73
-130.67
-103.51
-71.96
-37.05
-2.44
26.21
42.92
43.17
25.50
-7.80
-51.11
-96.64
-136.27
-163.56
-175.29
-172.16
-158.25
-139.30
-120.74
-106.07
-96.40
-91.02
-88.57
-87.91
-88.43
-89.81
-91.50
-92.60
-91.96
-88.62
-82.15
-72.89
-61.85
-50.46
-40.17
-31.95
-26.06
-21.87
-18.26
-14.09
-8.70
-2.06
5.56
13.99
23.43
34.21
46.28
58.83
70.47
79.86
86.55
91.28
95.74
101.73
110.31
121.61
135.05
149.86
165.55
181.71
197.69
212.36
224.35
232.52
236.44
236.47
233.45
228.30
221.80
214.58
207.25
200.44
194.36
188.56
181.68
171.85
157.53
138.36
115.72
92.43
72.02
57.71
51.66
54.64
66.23
85.33
110.64
140.97
175.07
211.19
246.63
277.73
300.45
311.54
309.71
296.21
274.50
249.05
223.91
201.55
182.50
165.71
149.28
131.19
109.82
84.25
54.41
20.98
-14.76
-51.42
-87.91
-123.96
-160.10
-197.85
-239.40
-286.97
-341.63
-401.87
-462.63
-515.71
-551.81
-563.74
-549.23
-512.09
-460.86
-405.72
-355.05
-313.24
-280.41
-253.78
-229.69
-205.13
