1660322538.00
64.000000
-0.00
-0.00
-0.00
-0.00
-0.00
-0.00
-0.00
-0.00
-0.00
-0.00
0.00
0.01
0.01
-0.00
-0.03
-0.05
-0.05
0.00
0.13
0.36
0.66
1.01
1.37
1.72
2.06
2.40
2.79
3.24
3.80
4.42
5.06
5.67
6.21
6.69
7.15
7.67
8.30
9.14
10.10
11.08
11.94
12.62
13.14
13.65
14.36
15.45
17.18
19.40
21.87
24.27
26.42
28.35
30.33
32.80
36.09
40.64
46.13
52.05
57.80
62.95
67.47
71.79
76.58
82.46
90.06
99.00
108.52
117.65
125.66
132.35
138.18
144.47
150.10
157.65
168.00
181.37
196.43
209.87
216.91
212.57
193.45
159.02
112.24
57.54
-0.50
-58.85
-116.58
-174.19
-232.38
-290.91
-348.43
-402.66
-451.83
-494.82
-531.15
-560.49
-582.22
-595.44
-599.16
-592.85
-576.11
-548.74
-509.98
-458.67
-393.99
-316.62
-229.63
-138.31
-49.05
32.55
102.74
160.20
205.37
239.42
263.51
278.66
285.97
286.95
283.47
277.23
269.38
260.26
249.66
237.21
222.87
207.09
190.79
174.94
160.31
147.18
135.37
124.37
113.59
102.65
91.52
80.52
70.14
60.83
52.79
45.92
39.88
34.29
28.89
23.63
18.57
13.90
9.69
5.99
2.82
0.23
-1.79
-3.29
-4.42
-5.34
-6.13
-6.81
-7.33
-7.66
-7.84
-7.96
-8.14
-8.42
-8.73
-8.91
-8.84
-8.42
-7.69
-6.79
-5.95
-5.34
-5.08
-5.10
-5.27
-5.40
-5.36
-5.09
-4.65
-4.13
-3.62
-3.18
-2.85
-2.65
-2.56
-2.53
-2.52
-2.47
-2.36
-2.20
-2.03
-1.87
-1.73
-1.62
-1.53
-1.47
-1.46
-1.47
-1.47
-1.41
-1.27
-1.07
-0.90
-0.83
-0.89
-1.04
-1.21
-1.32
-1.33
-1.22
-1.01
-0.74
-0.45
-0.19
-0.02
0.04
0.01
-0.06
-0.09
-0.01
0.20
0.50
0.80
1.02
1.13
1.21
1.39
1.79
2.45
3.29
4.09
4.68
4.95
4.95
4.77
4.53
4.24
3.85
3.27
2.48
1.52
0.44
-0.69
-1.85
-2.98
-4.00
-4.79
-5.25
-5.38
-5.28
-5.12
-5.04
-5.04
-5.03
-4.90
-4.64
-4.31
-4.03
-3.89
-3.86
-3.82
-3.64
-3.31
-2.91
-2.57
-2.36
-2.31
-2.30
-2.22
-1.98
-1.59
-1.14
-0.72
-0.40
-0.18
-0.04
0.05
0.08
0.01
-0.18
-0.45
-0.71
-0.86
-0.85
-0.71
-0.53
-0.38
-0.28
-0.22
-0.19
-0.22
-0.37
-0.69
-1.17
-1.68
-2.09
-2.26
-2.18
-1.93
-1.64
-1.42
-1.31
-1.29
-1.32
-1.34
-1.34
-1.28
-1.11
-0.79
-0.25
0.47
1.33
2.19
2.91
3.34
3.41
3.11
2.49
1.66
0.75
-0.11
-0.79
-1.21
-1.32
-1.14
-0.73
-0.23
0.23
0.53
0.59
0.40
0.04
-0.39
-0.75
-0.92
-0.86
-0.61
-0.30
-0.07
-0.03
-0.21
-0.55
-0.96
-1.33
-1.60
-1.78
-1.88
-1.89
-1.77
-1.49
-1.04
-0.49
0.05
0.45
0.61
0.54
0.34
0.15
0.11
0.26
0.54
0.80
0.88
0.68
0.27
-0.23
-0.61
-0.76
-0.67
-0.43
-0.19
-0.02
0.06
0.10
0.14
0.18
0.14
-0.07
-0.48
-1.04
-1.61
-2.07
-2.38
-2.58
-2.79
-3.05
-3.30
-3.41
-3.22
-2.69
-1.93
-1.15
-0.54
-0.21
-0.11
-0.08
0.07
0.40
0.89
1.39
1.77
1.91
1.83
1.63
1.44
1.37
1.49
1.76
2.08
2.34
2.46
2.44
2.36
2.30
2.34
2.45
2.56
2.56
2.39
2.02
1.53
1.05
0.72
0.59
0.61
0.63
0.53
0.22
-0.19
-0.56
-0.71
-0.60
-0.31
-0.02
0.09
0.00
-0.18
-0.29
-0.20
0.09
0.49
0.90
1.30
1.72
2.25
2.87
3.50
3.98
4.19
4.15
4.02
3.98
4.18
4.63
5.16
5.51
5.47
4.92
3.87
2.49
0.99
-0.39
-1.49
-2.20
-2.61
-2.90
-3.38
-4.29
-5.66
-7.28
-8.72
-9.49
-9.33
-8.31
-6.81
-5.40
-4.54
-4.38
-4.77
-5.29
-5.56
-5.36
-4.70
-3.77
-2.77
-1.81
-0.86
0.16
1.33
2.57
3.74
4.66
5.24
5.56
5.81
6.25
7.02
8.08
9.20
10.04
10.33
9.96
9.07
7.93
6.88
6.13
5.77
5.71
5.81
5.86
5.66
5.01
3.80
2.05
-0.11
-2.36
-4.31
-5.59
-5.93
-5.28
-3.76
-1.71
0.46
2.31
3.51
3.95
3.78
3.33
3.02
3.14
3.75
4.65
5.48
5.89
5.73
5.01
3.89
2.53
1.04
-0.52
-2.04
-3.42
-4.55
-5.52
-6.60
-8.16
-10.38
-13.07
-15.61
-17.25
-17.51
-16.47
-14.77
-13.22
-12.40
-12.31
-12.46
-12.19
-11.09
-9.20
-6.94
-4.81
-3.09
-1.74
-0.51
0.84
2.34
3.82
5.06
5.92
6.50
7.01
7.70
8.60
9.54
10.19
10.19
9.36
7.72
5.57
3.33
1.45
0.23
-0.38
-0.75
-1.46
-3.05
-5.70
-9.11
-12.55
-15.15
-16.26
-15.80
-14.20
-12.17
-10.37
-9.12
-8.35
-7.77
-7.15
-6.39
-5.52
-4.56
-3.39
-1.80
0.36
3.02
5.77
8.01
9.19
9.06
7.75
5.71
3.51
1.62
0.26
-0.58
-1.02
-1.15
-0.92
-0.19
1.12
2.92
4.93
6.73
7.94
8.36
7.96
6.91
5.46
3.93
2.68
2.05
2.28
3.39
5.11
6.97
8.41
8.99
8.53
7.05
4.80
2.12
-0.60
-2.95
-4.59
-5.31
-5.14
-4.32
-3.26
-2.45
-2.32
-3.13
-4.87
-7.21
-9.50
-11.04
-11.28
-10.11
-7.94
-5.45
-3.36
-2.01
-1.33
-0.88
-0.23
0.85
2.25
3.65
4.74
5.37
5.64
5.80
6.11
6.76
7.81
9.25
11.08
13.35
16.08
19.19
22.34
24.99
26.52
26.49
24.86
21.98
18.41
14.65
10.89
7.05
2.94
-1.48
-6.01
-10.29
-13.96
-16.89
-19.20
-21.06
-22.55
-23.53
-23.72
-22.89
-21.06
-18.54
-15.80
-13.30
-11.25
-9.61
-8.17
-6.69
-5.07
-3.37
-1.77
-0.40
0.74
1.80
3.01
4.48
6.15
7.76
8.94
9.40
9.05
8.07
6.87
5.95
5.73
6.38
7.76
9.42
10.73
11.13
10.31
8.27
5.39
2.22
-0.62
-2.64
-3.55
-3.33
-2.21
-0.55
1.19
2.62
3.45
3.55
2.98
1.94
0.76
-0.20
-0.65
-0.42
0.42
1.58
2.65
3.15
2.75
1.36
-0.83
-3.34
-5.60
-7.10
-7.60
-7.29
-6.70
-6.43
-6.89
-8.03
-9.40
-10.32
-10.29
-9.20
-7.38
-5.39
-3.73
-2.60
-1.90
-1.34
-0.67
0.17
1.05
1.72
1.97
1.80
1.40
1.12
1.28
2.05
3.32
4.76
5.93
6.50
6.28
5.35
3.95
2.44
1.19
0.51
0.62
1.63
3.44
5.81
8.33
10.51
11.94
12.35
11.78
10.50
8.96
7.58
6.63
6.11
5.86
5.61
5.17
4.46
3.52
2.44
1.32
0.23
-0.73
-1.46
-1.84
-1.83
-1.46
-0.92
-0.42
-0.14
-0.17
-0.47
-0.94
-1.42
-1.83
-2.12
-2.33
-2.54
-2.83
-3.23
-3.71
-4.19
-4.59
-4.87
-5.03
-5.14
-5.23
-5.33
-5.42
-5.47
-5.48
-5.47
-5.47
-5.47
-5.42
-5.26
-4.93
-4.46
-3.90
-3.33
-2.82
-2.40
-2.04
-1.74
-1.53
-1.49
-1.67
-2.01
-2.35
-2.42
-1.98
-0.92
0.63
2.37
3.90
4.90
5.21
4.93
4.26
3.47
2.74
2.17
1.81
1.68
1.83
2.26
2.93
3.70
4.37
4.72
4.63
4.12
3.34
2.51
1.79
1.29
0.98
0.82
0.72
0.61
0.47
0.27
0.01
-0.30
-0.63
-0.90
-1.03
-1.00
-0.83
-0.63
-0.55
-0.70
-1.10
-1.65
-2.18
-2.51
-2.55
-2.34
-2.01
-1.75
-1.69
-1.88
-2.21
-2.55
-2.73
-2.64
-2.28
-1.74
-1.15
-0.67
-0.42
-0.46
-0.75
-1.17
-1.54
-1.73
-1.67
-1.40
-1.06
-0.79
-0.71
-0.80
-0.97
-1.09
-1.05
-0.86
-0.55
-0.24
0.00
0.15
0.21
0.21
0.17
0.11
0.06
0.04
0.09
0.21
0.33
0.39
0.32
0.15
-0.04
-0.17
-0.19
-0.14
-0.09
-0.11
-0.19
-0.27
-0.30
-0.26
-0.16
-0.04
0.07
0.18
0.26
0.29
0.26
0.22
0.24
0.37
0.56
0.67
0.51
0.03
-0.68
-1.34
-1.69
-1.59
-1.12
-0.55
-0.10
0.10
0.06
-0.11
-0.32
-0.53
-0.74
-0.89
-0.93
-0.78
-0.43
0.06
0.56
0.95
1.19
1.35
1.49
1.67
1.85
1.93
1.81
1.46
0.95
0.44
0.05
-0.15
-0.17
-0.09
0.03
0.14
0.23
0.26
0.20
0.04
-0.20
-0.43
-0.57
-0.54
-0.38
-0.17
-0.05
-0.08
-0.26
-0.51
-0.74
-0.90
-0.99
-1.05
-1.11
-1.16
-1.12
-0.95
-0.61
-0.18
0.24
0.55
0.70
0.75
0.79
0.93
1.16
1.41
1.54
1.47
1.20
0.81
0.41
0.10
-0.07
-0.12
-0.08
-0.01
0.04
0.01
-0.14
-0.39
-0.65
-0.80
-0.75
-0.53
-0.28
-0.15
-0.27
-0.60
-1.03
-1.41
-1.63
-1.70
-1.65
-1.55
-1.39
-1.16
-0.85
-0.49
-0.17
0.05
0.17
0.22
0.27
0.37
0.52
0.64
0.69
0.61
0.45
0.30
0.26
0.36
0.58
0.85
1.07
1.18
1.19
1.09
0.91
0.63
0.24
-0.21
-0.62
-0.88
-0.90
-0.68
-0.34
-0.05
0.07
-0.03
-0.28
-0.55
-0.74
-0.77
-0.65
-0.42
-0.15
0.11
0.35
0.56
0.76
0.95
1.08
1.07
0.84
0.38
-0.20
-0.71
-0.99
-0.95
-0.67
-0.31
-0.05
0.04
-0.01
-0.09
-0.10
-0.03
0.08
0.16
0.21
0.24
0.31
0.44
0.60
0.65
0.50
0.08
-0.52
-1.14
-1.57
-1.67
-1.42
-0.94
-0.43
-0.06
0.10
0.11
0.10
0.20
0.46
0.86
1.31
1.71
2.00
2.14
2.13
1.97
1.71
1.42
1.20
1.15
1.30
1.66
2.13
2.58
2.90
3.03
3.00
2.92
2.91
3.04
3.33
3.71
4.09
4.35
4.46
4.44
4.38
4.40
4.55
4.87
5.27
5.63
5.80
5.72
5.42
5.07
4.89
5.06
5.63
6.53
7.55
8.47
9.14
9.54
9.77
10.05
10.59
11.60
13.20
15.29
17.58
19.48
20.27
19.24
15.99
10.66
3.99
-2.83
-8.55
-12.18
-13.33
-12.25
-9.69
-6.53
-3.57
-1.26
0.27
1.09
1.39
1.33
1.11
0.92
1.02
1.71
3.24
5.66
8.85
12.46
16.05
19.23
21.74
23.51
24.58
25.08
25.14
24.81
24.09
22.92
21.27
19.23
16.99
14.87
13.16
12.00
11.34
10.89
10.28
9.23
7.65
5.64
3.49
1.47
-0.25
-1.66
-2.93
-4.24
-5.78
-7.64
-9.83
-12.34
-15.05
-17.82
-20.46
-22.69
-24.25
-24.96
-24.76
-23.74
-22.12
-20.11
-17.93
-15.72
-13.56
-11.52
-9.67
-8.07
-6.79
-5.79
-5.04
-4.45
-3.97
-3.65
-3.58
-3.92
-4.76
-6.09
-7.69
-9.28
-10.51
-11.11
-11.00
-10.28
-9.23
-8.17
-7.39
-6.94
-6.64
-6.09
-4.88
-2.70
0.50
4.55
9.20
14.28
19.82
25.87
32.49
39.57
46.81
53.79
59.99
64.70
67.05
66.06
61.03
51.98
40.01
27.11
15.47
6.57
0.54
-3.74
-7.93
-13.26
-19.89
-27.01
-33.42
-38.31
-41.62
-43.94
-45.95
-47.97
-49.76
-50.80
-50.66
-49.37
-47.34
-45.24
-43.58
-42.57
-42.03
-41.55
-40.74
-39.37
-37.48
-35.31
-33.19
-31.36
-29.87
-28.60
-27.27
-25.62
-23.50
-20.96
-18.25
-15.72
-13.67
-12.25
-11.41
-10.93
-10.58
-10.20
-9.73
-9.16
-8.51
-7.74
-6.81
-5.72
-4.53
-3.34
-2.25
-1.31
-0.53
0.11
0.63
1.06
1.42
1.79
2.24
2.81
3.45
4.04
4.34
4.16
3.33
1.86
-0.16
-2.53
-4.99
-7.28
-9.16
-10.43
-10.94
-10.68
-9.79
-8.59
-7.46
-6.78
-6.73
-7.24
-8.05
-8.80
-9.21
-9.16
-8.69
-7.94
-7.04
-6.03
-4.91
-3.65
-2.25
-0.78
0.69
2.03
3.21
4.20
5.03
5.76
6.49
7.29
8.18
9.13
9.97
10.50
10.42
9.44
7.39
4.23
0.24
-4.06
-7.92
-10.65
-11.79
-11.32
-9.74
-7.80
-6.28
-5.66
-5.95
-6.77
-7.57
-7.87
-7.47
-6.41
-4.87
-3.03
-0.97
1.23
3.40
5.29
6.55
6.95
6.46
5.37
4.15
3.24
2.86
2.89
2.91
2.42
1.01
-1.43
-4.69
-8.24
-11.40
-13.49
-14.04
-12.93
-10.47
-7.37
-4.48
-2.52
-1.80
-2.13
-2.94
-3.54
-3.43
-2.44
-0.72
1.40
3.58
5.64
7.51
9.19
10.66
11.90
12.90
13.72
14.47
15.31
16.29
17.30
18.02
18.02
16.93
14.60
11.16
6.95
2.46
-1.85
-5.56
-8.33
-9.98
-10.55
-10.29
-9.66
-9.14
-9.03
-9.36
-9.85
-10.08
-9.66
-8.39
-6.29
-3.53
-0.41
2.72
5.45
7.45
8.53
8.73
8.35
7.82
7.53
7.67
8.18
8.83
9.28
9.27
8.66
7.42
5.72
3.92
2.49
1.93
2.47
3.98
5.82
7.15
7.16
5.58
2.73
-0.54
-3.15
-4.29
-3.70
-1.65
1.18
4.06
6.47
8.23
9.43
10.26
10.92
11.53
12.21
13.05
14.12
15.38
16.57
17.20
16.69
14.67
11.15
6.65
2.04
-1.81
-4.31
-5.39
-5.42
-4.98
-4.64
-4.76
-5.46
-6.64
-8.05
-9.41
-10.38
-10.65
-10.06
-8.59
-6.43
-3.94
-1.48
0.62
2.18
3.19
3.83
4.34
5.02
6.05
7.49
9.18
10.79
11.90
12.17
11.45
9.90
7.96
6.19
5.11
4.96
5.59
6.51
7.07
6.74
5.36
3.22
0.96
-0.72
-1.30
-0.67
0.94
3.03
5.12
6.82
7.93
8.44
8.47
8.23
8.03
8.17
8.92
10.35
12.27
14.18
15.39
15.23
13.33
9.74
5.03
0.09
-4.16
-7.07
-8.45
-8.61
-8.19
-7.90
-8.24
-9.36
-11.06
-12.87
-14.22
-14.64
-13.83
-11.76
-8.69
-5.05
-1.41
1.72
3.98
5.27
5.75
5.77
5.77
6.06
6.78
7.79
8.81
9.49
9.51
8.74
7.24
5.37
3.65
2.68
2.88
4.28
6.45
8.54
9.61
9.03
6.76
3.40
-0.03
-2.53
-3.49
-2.82
-0.90
1.67
4.30
6.56
8.18
9.07
9.26
8.89
8.25
7.72
7.62
8.10
9.05
10.07
10.57
9.98
7.88
4.18
-0.85
-6.57
-12.12
-16.62
-19.47
-20.54
-20.26
-19.42
-18.83
-18.98
-19.74
-20.51
-20.53
-19.28
-16.79
-13.61
-10.48
-7.99
-6.30
-5.15
-4.08
-2.74
-1.08
0.68
2.21
3.28
3.87
4.11
4.22
4.40
4.82
5.57
6.62
7.80
8.76
9.07
8.35
6.52
3.88
1.02
-1.38
-2.84
-3.25
-2.81
-1.90
-0.88
0.07
0.90
1.64
2.26
2.69
2.86
2.70
2.28
1.73
1.21
0.89
0.81
0.95
1.13
1.14
0.73
-0.24
-1.71
-3.42
-4.95
-5.87
-5.93
-5.12
-3.72
-2.11
-0.67
0.38
0.99
1.31
1.51
1.72
2.03
2.40
2.78
3.16
3.60
4.19
5.02
6.12
7.39
8.68
9.79
10.61
11.09
11.28
11.33
11.36
11.53
11.87
12.34
12.76
12.93
12.70
12.04
11.04
9.87
8.70
7.56
6.36
4.98
3.32
1.39
-0.70
-2.74
-4.49
-5.77
-6.49
-6.62
-6.20
-5.29
-3.96
-2.32
-0.48
1.41
3.19
4.81
6.28
7.75
9.38
11.21
13.19
15.15
16.89
18.32
19.47
20.43
21.28
22.04
22.67
23.15
23.47
23.66
23.70
23.50
22.96
22.05
20.83
19.45
18.10
16.81
15.51
13.97
11.98
9.43
6.45
3.28
0.21
-2.55
-4.99
-7.21
-9.41
-11.76
-14.29
-16.99
-19.75
-22.42
-24.84
-26.82
-28.17
-28.71
-28.36
-27.22
-25.53
-23.65
-21.91
-20.51
-19.52
-18.88
-18.51
-18.36
-18.44
-18.73
-19.16
-19.58
-19.82
-19.78
-19.45
-18.93
-18.35
-17.83
-17.37
-16.87
-16.21
-15.29
-14.05
-12.48
-10.63
-8.55
-6.32
-4.07
-1.93
0.01
1.73
3.30
4.83
6.39
7.93
9.28
10.20
10.54
10.26
9.52
8.51
7.46
6.44
5.44
4.42
3.34
2.23
1.19
0.32
-0.31
-0.70
-0.85
-0.82
-0.66
-0.49
-0.38
-0.40
-0.56
-0.81
-1.06
-1.25
-1.36
-1.43
-1.52
-1.62
-1.72
-1.75
-1.64
-1.40
-1.04
-0.63
-0.21
0.19
0.57
0.93
1.23
1.40
1.39
1.17
0.79
0.35
-0.00
-0.16
-0.10
0.10
0.32
0.43
0.36
0.15
-0.14
-0.42
-0.65
-0.84
-1.01
-1.14
-1.19
-1.13
-0.96
-0.78
-0.72
-0.88
-1.24
-1.66
-1.95
-1.95
-1.63
-1.07
-0.45
0.07
0.43
0.63
0.74
0.83
0.95
1.13
1.38
1.67
1.97
2.22
2.36
2.38
2.29
2.12
1.89
1.60
1.23
0.80
0.36
-0.02
-0.28
-0.41
-0.43
-0.40
-0.38
-0.38
-0.42
-0.47
-0.54
-0.63
-0.74
-0.87
-0.95
-0.96
-0.83
-0.59
-0.29
0.01
0.22
0.31
0.32
0.30
0.35
0.49
0.70
0.90
1.01
1.00
0.90
0.75
0.62
0.54
0.50
0.51
0.55
0.63
0.74
0.87
0.93
0.84
0.58
0.18
-0.28
-0.67
-0.91
-1.02
-1.06
-1.11
-1.19
-1.24
-1.17
-0.94
-0.59
-0.24
-0.03
0.02
-0.04
-0.04
0.13
0.49
0.90
1.22
1.32
1.23
1.05
0.93
0.91
0.95
0.95
0.85
0.69
0.57
0.60
0.80
1.06
1.26
1.27
1.07
0.72
0.34
0.03
-0.17
-0.25
-0.24
-0.21
-0.21
-0.32
-0.57
-0.93
-1.30
-1.57
-1.61
-1.41
-1.02
-0.56
-0.15
0.13
0.28
0.35
0.38
0.40
0.39
0.37
0.36
0.40
0.55
0.81
1.11
1.38
1.52
1.51
1.35
1.10
0.78
0.43
0.06
-0.27
-0.48
-0.50
-0.31
0.01
0.32
0.45
0.36
0.07
-0.28
-0.56
-0.72
-0.80
-0.86
-0.95
-1.03
-1.05
-0.91
-0.63
-0.28
0.01
0.19
0.25
0.29
0.36
0.53
0.74
0.92
1.05
1.11
1.15
1.22
1.30
1.34
1.26
1.02
0.63
0.17
-0.27
-0.58
-0.74
-0.75
-0.65
-0.49
-0.31
-0.15
-0.02
0.09
0.15
0.13
0.02
-0.16
-0.38
-0.56
-0.67
-0.67
-0.60
-0.49
-0.39
-0.35
-0.39
-0.49
-0.61
-0.71
-0.71
-0.55
-0.22
0.27
0.82
1.33
1.64
1.66
1.37
0.88
0.33
-0.11
-0.33
-0.34
-0.20
-0.03
0.10
0.18
0.21
0.24
0.28
0.30
0.31
0.28
0.23
0.19
0.17
0.16
0.12
0.03
-0.15
-0.42
-0.73
-1.00
-1.14
-1.08
-0.84
-0.47
-0.07
0.26
0.44
0.45
0.35
0.21
0.11
0.07
0.09
0.14
0.14
0.08
-0.05
-0.22
-0.38
-0.50
-0.57
-0.58
-0.53
-0.39
-0.17
0.11
0.38
0.53
0.54
0.42
0.24
0.07
-0.05
-0.12
-0.18
-0.25
-0.30
-0.27
-0.12
0.14
0.42
0.61
0.61
0.39
0.02
-0.36
-0.60
-0.64
-0.48
-0.22
0.00
0.11
0.09
0.04
0.07
0.24
0.52
0.82
1.00
1.00
0.84
0.59
0.36
0.19
0.10
0.02
-0.08
-0.23
-0.42
-0.60
-0.73
-0.77
-0.75
-0.72
-0.74
-0.86
-1.08
-1.29
-1.35
-1.16
-0.71
-0.12
0.41
0.72
0.75
0.58
0.36
0.26
0.32
0.48
0.60
0.57
0.40
0.19
0.09
0.17
0.37
0.56
0.61
0.50
0.31
0.18
0.17
0.25
0.28
0.16
-0.10
-0.37
-0.51
-0.44
-0.26
-0.12
-0.15
-0.37
-0.70
-0.98
-1.11
-1.04
-0.82
-0.51
-0.20
0.07
0.25
0.33
0.33
0.30
0.33
0.45
0.69
0.98
1.23
1.37
1.35
1.23
1.06
0.88
0.72
0.57
0.41
0.24
0.12
0.10
0.21
0.43
0.66
0.78
0.70
0.42
0.02
-0.37
-0.62
-0.69
-0.59
-0.42
-0.30
-0.34
-0.55
-0.84
-1.09
-1.17
-1.04
-0.77
-0.48
-0.30
-0.29
-0.42
-0.58
-0.68
-0.66
-0.55
-0.39
-0.23
-0.08
0.05
0.19
0.33
0.48
0.63
0.74
0.80
0.78
0.67
0.52
0.38
0.33
0.37
0.45
0.47
0.36
0.12
-0.17
-0.44
-0.61
-0.69
-0.72
-0.70
-0.64
-0.48
-0.21
0.09
0.31
0.33
0.11
-0.27
-0.65
-0.89
-0.92
-0.80
-0.63
-0.50
-0.40
-0.26
-0.01
0.38
0.81
1.12
1.13
0.81
0.22
-0.43
-0.89
-1.04
-0.85
-0.45
-0.02
0.26
0.33
0.20
-0.01
-0.19
-0.24
-0.12
0.14
0.45
0.72
0.90
0.96
0.93
0.88
0.83
0.77
0.67
0.48
0.21
-0.09
-0.32
-0.41
-0.34
-0.17
-0.03
-0.02
-0.21
-0.54
-0.89
-1.08
-1.00
-0.68
-0.24
0.12
0.27
0.19
-0.00
-0.17
-0.21
-0.11
0.06
0.25
0.43
0.63
0.84
1.02
1.08
0.95
0.61
0.13
-0.35
-0.70
-0.87
-0.86
-0.73
-0.57
-0.45
-0.42
-0.48
-0.57
-0.63
-0.61
-0.49
-0.28
-0.05
0.17
0.33
0.44
0.47
0.41
0.25
0.03
-0.19
-0.33
-0.33
-0.18
0.03
0.19
0.23
0.14
0.00
-0.08
-0.04
0.15
0.42
0.68
0.86
0.89
0.76
0.52
0.24
0.00
-0.14
-0.18
-0.16
-0.17
-0.27
-0.48
-0.78
-1.09
-1.35
-1.49
-1.50
-1.37
-1.13
-0.82
-0.52
-0.29
-0.18
-0.20
-0.30
-0.36
-0.28
0.02
0.51
1.09
1.60
1.92
1.97
1.78
1.41
0.98
0.57
0.26
0.08
0.08
0.25
0.54
0.88
1.12
1.16
0.94
0.50
-0.03
-0.49
-0.73
-0.69
-0.39
0.03
0.41
0.61
0.58
0.35
0.01
-0.37
-0.74
-1.10
-1.45
-1.76
-1.95
-1.95
-1.73
-1.32
-0.84
-0.39
-0.07
0.08
0.10
0.05
0.00
0.05
0.23
0.56
0.96
1.34
1.58
1.63
1.51
1.30
1.08
0.90
0.75
0.59
0.42
0.23
0.07
-0.03
-0.05
0.01
0.11
0.19
0.21
0.13
-0.04
-0.23
-0.35
-0.32
-0.17
0.03
0.13
0.02
-0.29
-0.68
-0.97
-1.04
-0.86
-0.55
-0.29
-0.24
-0.45
-0.85
-1.29
-1.58
-1.61
-1.35
-0.86
-0.30
0.16
0.38
0.34
0.11
-0.16
-0.36
-0.45
-0.45
-0.44
-0.46
-0.53
-0.59
-0.60
-0.53
-0.40
-0.24
-0.10
0.02
0.10
0.14
0.12
0.02
-0.13
-0.30
-0.43
-0.52
-0.58
-0.65
-0.75
-0.85
-0.86
-0.71
-0.38
0.09
0.56
0.93
1.14
1.21
1.20
1.20
1.24
1.31
1.36
1.36
1.28
1.13
0.95
0.76
0.60
0.47
0.38
0.30
0.22
0.11
0.02
-0.04
-0.02
0.07
0.15
0.15
0.02
-0.26
-0.63
-1.01
-1.32
-1.50
-1.56
-1.50
-1.35
-1.13
-0.86
-0.53
-0.16
0.20
0.52
0.73
0.80
0.72
0.57
0.43
0.39
0.48
0.62
0.73
0.70
0.55
0.36
0.24
0.29
0.49
0.75
0.94
0.95
0.79
0.50
0.21
0.01
-0.09
-0.12
-0.17
-0.31
-0.57
-0.92
-1.28
-1.54
-1.64
-1.58
-1.40
-1.19
-0.96
-0.73
-0.44
-0.12
0.22
0.48
0.58
0.52
0.33
0.11
-0.06
-0.13
-0.09
0.06
0.31
0.65
1.04
1.45
1.81
2.06
2.13
2.01
1.72
1.30
0.81
0.33
-0.09
-0.38
-0.54
-0.56
-0.51
-0.43
-0.37
-0.32
-0.26
-0.16
-0.00
0.19
0.33
0.33
0.09
-0.36
-0.93
-1.46
-1.79
-1.84
-1.63
-1.27
-0.86
-0.53
-0.31
-0.19
-0.12
-0.05
0.04
0.14
0.24
0.32
0.37
0.44
0.57
0.75
0.97
1.12
1.10
0.89
0.52
0.14
-0.13
-0.21
-0.12
0.06
0.22
0.29
0.29
0.27
0.27
0.31
0.36
0.36
0.27
0.07
-0.19
-0.46
-0.66
-0.80
-0.87
-0.94
-1.04
-1.14
-1.22
-1.18
-0.99
-0.66
-0.25
0.12
0.36
0.42
0.30
0.09
-0.12
-0.22
-0.19
-0.04
0.18
0.39
0.55
0.64
0.66
0.61
0.48
0.28
0.03
-0.19
-0.31
-0.28
-0.13
0.07
0.22
0.22
0.08
-0.13
-0.33
-0.44
-0.45
-0.40
-0.37
-0.42
-0.57
-0.79
-1.02
-1.17
-1.18
-1.01
-0.68
-0.26
0.14
0.45
0.61
0.66
0.64
0.61
0.59
0.58
0.57
0.53
0.47
0.42
0.40
0.45
0.57
0.75
0.94
1.12
1.24
1.31
1.33
1.29
1.18
0.97
0.65
0.28
-0.07
-0.31
-0.38
-0.31
-0.15
0.02
0.12
0.14
0.07
-0.06
-0.27
-0.55
-0.93
-1.39
-1.86
-2.21
-2.33
-2.14
-1.66
-1.03
-0.45
-0.08
-0.00
-0.14
-0.32
-0.39
-0.24
0.10
0.53
0.91
1.14
1.20
1.12
0.97
0.84
0.78
0.78
0.83
0.87
0.89
0.87
0.83
0.81
0.80
0.76
0.63
0.36
-0.04
-0.49
-0.88
-1.10
-1.13
-0.98
-0.72
-0.42
-0.12
0.14
0.32
0.36
0.19
-0.19
-0.70
-1.19
-1.51
-1.58
-1.42
-1.14
-0.84
-0.58
-0.38
-0.21
-0.08
-0.01
-0.03
-0.11
-0.14
-0.03
0.27
0.71
1.16
1.47
1.60
1.55
1.39
1.19
0.95
0.64
0.26
-0.15
-0.50
-0.68
-0.67
-0.51
-0.29
-0.09
0.02
0.02
-0.08
-0.29
-0.57
-0.86
-1.04
-1.04
-0.80
-0.42
-0.03
0.21
0.21
-0.02
-0.39
-0.78
-1.12
-1.35
-1.43
-1.35
-1.12
-0.77
-0.38
-0.01
0.29
0.53
0.72
0.90
1.04
1.11
1.09
1.01
0.93
0.89
0.89
0.88
0.78
0.55
0.27
0.03
-0.09
-0.06
-0.00
-0.01
-0.16
-0.41
-0.64
-0.73
-0.65
-0.45
-0.24
-0.16
-0.23
-0.44
-0.72
-0.99
-1.21
-1.38
-1.50
-1.56
-1.51
-1.30
-0.90
-0.34
0.30
0.88
1.31
1.52
1.54
1.42
1.24
1.06
0.89
0.73
0.56
0.41
0.27
0.17
0.11
0.09
0.10
0.10
0.07
-0.01
-0.15
-0.32
-0.47
-0.56
-0.59
-0.59
-0.59
-0.63
-0.70
-0.77
-0.80
-0.79
-0.78
-0.79
-0.86
-0.98
-1.09
-1.11
-0.97
-0.66
-0.23
0.19
0.49
0.57
0.45
0.23
0.08
0.11
0.33
0.65
0.95
1.10
1.08
0.97
0.86
0.83
0.89
0.97
0.98
0.88
0.69
0.51
0.45
0.59
0.86
1.10
1.14
0.93
0.52
0.10
-0.15
-0.16
-0.03
0.07
0.00
-0.27
-0.65
-1.00
-1.23
-1.37
-1.50
-1.66
-1.85
-1.97
-1.92
-1.68
-1.32
-0.97
-0.75
-0.68
-0.71
-0.69
-0.48
-0.05
0.50
1.02
1.37
1.48
1.40
1.25
1.14
1.11
1.12
1.12
1.05
0.93
0.79
0.67
0.62
0.61
0.64
0.66
0.65
0.60
0.53
0.51
0.56
0.70
0.85
0.90
0.73
0.30
-0.28
-0.84
-1.19
-1.29
-1.23
-1.17
-1.25
-1.48
-1.76
-1.94
-1.91
-1.69
-1.37
-1.07
-0.85
-0.68
-0.50
-0.27
-0.02
0.19
0.29
0.25
0.14
0.03
0.03
0.18
0.41
0.62
0.72
0.65
0.44
0.18
-0.02
-0.10
-0.06
0.03
0.13
0.15
0.09
-0.04
-0.21
-0.40
-0.58
-0.75
-0.89
-0.97
-0.97
-0.86
-0.62
-0.28
0.09
0.38
0.51
0.43
0.18
-0.14
-0.42
-0.55
-0.48
-0.22
0.18
0.65
1.10
1.42
1.56
1.48
1.19
0.79
0.36
-0.03
-0.35
-0.62
-0.83
-0.99
-1.08
-1.07
-0.96
-0.79
-0.60
-0.46
-0.39
-0.42
-0.52
-0.68
-0.85
-0.98
-1.07
-1.11
-1.11
-1.07
-0.97
-0.76
-0.42
0.02
0.48
0.85
1.08
1.16
1.16
1.13
1.10
1.05
0.96
0.85
0.76
0.74
0.79
0.87
0.90
0.82
0.67
0.52
0.47
0.52
0.61
0.61
0.46
0.21
-0.02
-0.07
0.13
0.54
1.00
1.34
1.47
1.36
1.08
0.67
0.20
-0.31
-0.81
-1.21
-1.42
-1.35
-1.03
-0.53
-0.03
0.33
0.46
0.35
0.12
-0.08
-0.08
0.20
0.72
1.35
1.92
2.27
2.33
2.15
1.83
1.48
1.14
0.83
0.51
0.20
-0.07
-0.27
-0.44
-0.65
-1.03
-1.60
-2.26
-2.86
-3.18
-3.13
-2.77
-2.23
-1.70
-1.28
-0.99
-0.78
-0.61
-0.47
-0.42
-0.45
-0.52
-0.53
-0.37
-0.01
0.49
0.97
1.28
1.31
1.09
0.71
0.26
-0.16
-0.53
-0.84
-1.06
-1.13
-0.98
-0.63
-0.18
0.27
0.62
0.84
0.96
1.00
1.00
0.94
0.82
0.68
0.57
0.51
0.49
0.46
0.34
0.10
-0.25
-0.65
-1.01
-1.28
-1.43
-1.44
-1.34
-1.19
-1.01
-0.83
-0.65
-0.48
-0.32
-0.19
-0.10
-0.02
0.06
0.18
0.35
0.55
0.75
0.91
1.03
1.08
1.06
0.99
0.90
0.81
0.78
0.82
0.90
0.98
1.02
1.00
0.95
0.88
0.76
0.56
0.22
-0.22
-0.68
-1.03
-1.22
-1.24
-1.15
-1.01
-0.82
-0.55
-0.15
0.37
0.92
1.40
1.76
2.00
2.15
2.30
2.49
2.71
2.95
3.18
3.36
3.45
3.39
3.10
2.54
1.74
0.78
-0.21
-1.08
-1.71
-2.06
-2.14
-1.99
-1.69
-1.36
-1.10
-0.97
-1.01
-1.16
-1.35
-1.50
-1.57
-1.61
-1.68
-1.86
-2.14
-2.45
-2.68
-2.73
-2.56
-2.21
-1.75
-1.28
-0.84
-0.43
-0.06
0.30
0.61
0.84
0.98
1.01
1.00
1.01
1.07
1.19
1.29
1.30
1.14
0.85
0.51
0.27
0.22
0.39
0.68
0.95
1.10
1.07
0.88
0.59
0.25
-0.12
-0.48
-0.81
-1.05
-1.13
-1.07
-0.91
-0.80
-0.83
-1.08
-1.48
-1.91
-2.22
-2.32
-2.19
-1.89
-1.48
-1.02
-0.55
-0.05
0.48
0.97
1.37
1.56
1.52
1.28
0.97
0.72
0.60
0.62
0.70
0.75
0.76
0.75
0.78
0.85
0.89
0.77
0.42
-0.16
-0.85
-1.49
-1.94
-2.17
-2.19
-2.05
-1.79
-1.46
-1.12
-0.85
-0.74
-0.82
-1.05
-1.33
-1.51
-1.52
-1.34
-1.04
-0.69
-0.35
-0.03
0.27
0.56
0.80
0.97
1.04
1.02
0.96
0.93
0.98
1.09
1.17
1.13
0.95
0.66
0.41
0.27
0.30
0.43
0.59
0.72
0.83
0.96
1.15
1.36
1.47
1.44
1.25
0.99
0.77
0.67
0.66
0.67
0.62
0.45
0.21
-0.06
-0.27
-0.38
-0.32
-0.09
0.30
0.77
1.21
1.49
1.56
1.42
1.16
0.91
0.75
0.68
0.68
0.71
0.76
0.85
1.03
1.24
1.42
1.47
1.34
1.03
0.62
0.22
-0.11
-0.35
-0.51
-0.59
-0.58
-0.46
-0.24
-0.02
0.10
-0.02
-0.39
-0.96
-1.58
-2.05
-2.24
-2.10
-1.69
-1.13
-0.55
-0.07
0.27
0.50
0.72
0.98
1.31
1.66
1.91
1.97
1.79
1.41
0.91
0.42
0.01
-0.27
-0.47
-0.65
-0.87
-1.13
-1.38
-1.56
-1.60
-1.50
-1.32
-1.15
-1.09
-1.18
-1.38
-1.65
-1.91
-2.16
-2.40
-2.68
-3.01
-3.37
-3.74
-4.10
-4.48
-4.93
-5.46
-6.01
-6.46
-6.67
-6.54
-6.10
-5.45
-4.76
-4.13
-3.58
-3.05
-2.46
-1.78
-1.07
-0.43
0.06
0.37
0.56
0.73
0.95
1.26
1.62
1.94
2.13
2.14
1.99
1.77
1.56
1.44
1.43
1.51
1.60
1.64
1.58
1.43
1.20
0.94
0.67
0.43
0.25
0.12
0.09
0.17
0.38
0.73
1.17
1.66
2.12
2.47
2.67
2.72
2.65
2.52
2.39
2.30
2.27
2.27
2.28
2.26
2.17
2.03
1.86
1.71
1.62
1.57
1.53
1.44
1.29
1.09
0.88
0.73
0.66
0.67
0.71
0.73
0.68
0.55
0.34
0.04
-0.33
-0.75
-1.16
-1.51
-1.72
-1.73
-1.51
-1.07
-0.50
0.10
0.62
1.00
1.24
1.40
1.54
1.68
1.82
1.92
1.95
1.89
1.79
1.68
1.63
1.66
1.76
1.86
1.94
1.97
1.95
1.93
1.95
2.04
2.18
2.36
2.53
2.70
2.84
2.95
3.03
3.07
3.05
2.99
2.93
2.95
3.10
3.39
3.80
4.19
4.45
4.47
4.24
3.85
3.46
3.19
3.09
3.08
3.04
2.83
2.39
1.72
0.92
0.06
-0.86
-1.90
-3.16
-4.70
-6.51
-8.50
-10.53
-12.51
-14.36
-16.08
-17.68
-19.13
-20.33
-21.16
-21.53
-21.44
-21.00
-20.38
-19.74
-19.15
-18.53
-17.74
-16.60
-15.01
-12.97
-10.63
-8.19
-5.85
-3.70
-1.75
0.10
1.97
3.91
5.96
8.07
10.16
12.14
13.90
15.34
16.35
16.91
17.05
16.95
16.80
16.76
16.87
16.97
16.83
16.18
14.95
13.28
11.47
9.91
8.86
8.38
8.37
8.63
8.96
9.21
9.32
9.28
9.13
8.92
8.76
8.71
8.75
8.76
8.55
7.94
6.93
5.68
4.49
3.59
3.06
2.80
2.57
2.19
1.61
0.93
0.26
-0.32
-0.86
-1.50
-2.30
-3.17
-3.91
-4.24
-4.07
-3.55
-3.09
-3.22
-4.37
-6.65
-9.75
-13.06
-15.84
-17.54
-17.90
-17.05
-15.36
-13.28
-11.30
-9.92
-9.65
-10.89
-13.70
-17.62
-21.63
-24.43
-24.87
-22.47
-17.64
-11.53
-5.48
-0.55
2.87
5.05
6.62
8.15
9.94
11.92
13.86
15.57
17.02
18.30
19.50
20.56
21.21
21.07
19.84
17.44
14.17
10.58
7.29
4.73
2.98
1.82
0.85
-0.21
-1.44
-2.69
-3.68
-4.21
-4.27
-4.02
-3.64
-3.30
-3.06
-2.93
-2.94
-3.16
-3.64
-4.34
-5.06
-5.57
-5.65
-5.29
-4.65
-4.00
-3.55
-3.31
-3.14
-2.87
-2.40
-1.79
-1.25
-0.92
-0.85
-0.94
-1.00
-0.87
-0.49
0.02
0.48
0.69
0.50
-0.08
-0.96
-1.88
-2.61
-2.95
-2.84
-2.27
-1.29
0.06
1.75
3.61
5.36
6.56
6.84
6.01
4.27
2.09
0.14
-1.00
-0.83
0.97
4.64
10.28
17.75
26.43
35.21
42.71
47.71
49.57
48.50
45.37
41.32
37.30
33.89
31.31
29.71
29.29
30.32
32.90
36.74
41.08
44.94
47.40
47.96
46.59
43.65
39.60
34.79
29.30
22.96
15.55
6.95
-2.60
-12.43
-21.47
-28.45
-32.29
-32.44
-29.13
-23.49
-17.30
-12.61
-11.13
-13.70
-20.03
-28.76
-37.94
-45.65
-50.64
-52.60
-52.03
-49.83
-46.88
-43.75
-40.68
-37.83
-35.34
-33.43
-32.24
-31.67
-31.38
-30.92
-29.91
-28.25
-26.16
-24.01
-22.21
-20.94
-20.15
-19.58
-18.93
-17.96
-16.64
-15.06
-13.44
-12.01
-10.88
-10.07
-9.50
-9.02
-8.52
-7.92
-7.16
-6.24
-5.21
-4.14
-3.15
-2.36
-1.83
-1.55
-1.42
-1.30
-1.12
-0.86
-0.59
-0.43
-0.44
-0.63
-0.95
-1.30
-1.64
-1.92
-2.15
-2.32
-2.38
-2.29
-1.98
-1.44
-0.71
0.11
0.88
1.47
1.79
1.83
1.62
1.29
0.99
0.86
0.98
1.34
1.82
2.24
2.45
2.38
2.07
1.67
1.30
1.07
0.99
1.01
1.06
1.05
0.98
0.85
0.71
0.59
0.46
0.30
0.06
-0.27
-0.63
-0.93
-1.08
-1.04
-0.86
-0.62
-0.41
-0.25
-0.10
0.08
0.35
0.70
1.07
1.39
1.58
1.60
1.43
1.11
0.71
0.31
0.02
-0.11
-0.07
0.12
0.39
0.63
0.78
0.78
0.64
0.43
0.21
0.04
-0.10
-0.24
-0.43
-0.64
-0.82
-0.89
-0.78
-0.53
-0.20
0.10
0.33
0.46
0.52
0.55
0.57
0.61
0.70
0.87
1.11
1.40
1.68
1.90
2.04
2.09
2.07
1.97
1.74
1.36
0.85
0.34
-0.03
-0.13
0.05
0.41
0.77
0.95
0.86
0.50
0.01
-0.49
-0.84
-0.95
-0.83
-0.54
-0.22
-0.01
0.01
-0.15
-0.38
-0.51
-0.44
-0.16
0.27
0.71
1.08
1.36
1.53
1.60
1.56
1.42
1.23
1.12
1.18
1.44
1.82
2.15
2.26
2.08
1.67
1.18
0.78
0.57
0.57
0.72
0.95
1.13
1.19
1.08
0.80
0.42
0.04
-0.25
-0.41
-0.46
-0.43
-0.37
-0.31
-0.25
-0.18
-0.09
0.02
0.17
0.40
0.72
1.14
1.60
2.02
2.30
2.37
2.20
1.86
1.46
1.14
0.99
1.04
1.21
1.39
1.48
1.42
1.23
0.95
0.68
0.46
0.33
0.31
0.38
0.49
0.61
0.68
0.67
0.55
0.32
-0.01
-0.39
-0.76
-1.03
-1.13
-1.03
-0.77
-0.43
-0.13
0.06
0.11
0.08
0.03
0.05
0.23
0.60
1.14
1.77
2.36
2.75
2.84
2.62
2.21
1.73
1.34
1.10
1.01
1.02
1.07
1.10
1.07
0.93
0.65
0.20
-0.36
-0.94
-1.43
-1.74
-1.87
-1.89
-1.88
-1.92
-1.98
-2.00
-1.87
-1.56
-1.10
-0.58
-0.13
0.19
0.37
0.47
0.54
0.65
0.81
1.03
1.29
1.57
1.79
1.87
1.76
1.48
1.12
0.84
0.74
0.85
1.08
1.34
1.51
1.59
1.60
1.60
1.56
1.44
1.16
0.69
0.06
-0.66
-1.34
-1.88
-2.19
-2.23
-2.02
-1.61
-1.12
-0.64
-0.25
0.02
0.20
0.36
0.55
0.82
1.16
1.53
1.85
2.05
2.12
2.08
2.01
1.94
1.89
1.81
1.67
1.45
1.23
