1660754699.00
64.000000
-0.00
-0.00
-0.00
-0.00
-0.00
-0.00
-0.00
-0.00
-0.00
-0.00
0.00
0.01
0.01
-0.00
-0.03
-0.05
-0.05
0.00
0.13
0.36
0.66
1.01
1.37
1.72
2.06
2.40
2.79
3.24
3.80
4.42
5.06
5.66
6.20
6.68
7.15
7.68
8.31
9.14
10.09
11.04
11.88
12.56
13.14
13.76
14.65
15.96
17.91
20.32
22.90
25.38
27.58
29.57
31.68
34.32
37.81
42.54
48.15
54.10
59.83
64.97
69.58
74.14
79.34
85.71
93.76
103.00
112.62
121.73
129.77
136.75
143.30
150.75
157.77
166.64
177.95
191.79
206.97
220.57
228.25
225.36
208.53
176.87
132.76
80.05
23.07
-34.94
-92.44
-149.16
-205.23
-260.37
-313.74
-363.87
-409.83
-450.91
-486.50
-515.74
-537.23
-549.22
-549.96
-538.37
-514.21
-478.67
-433.88
-382.45
-327.02
-269.84
-212.63
-156.66
-102.95
-52.37
-5.90
35.58
71.43
101.35
125.50
144.38
158.69
169.15
176.37
180.75
182.57
182.07
179.51
175.23
169.65
163.18
156.15
148.81
141.30
133.69
126.02
118.33
110.69
103.16
95.81
88.68
81.82
75.23
68.95
62.97
57.30
51.92
46.82
41.98
37.40
33.09
29.11
25.49
22.24
19.34
16.75
14.39
12.21
10.18
8.32
6.67
5.28
4.17
3.32
2.62
1.99
1.32
0.59
-0.16
-0.80
-1.19
-1.28
-1.12
-0.93
-0.95
-1.38
-2.27
-3.42
-4.47
-5.05
-4.94
-4.28
-3.50
-3.16
-3.72
-5.25
-7.40
-9.46
-10.70
-10.69
-9.62
-8.20
-7.41
-8.02
-10.23
-13.50
-16.76
-18.96
-19.47
-18.40
-16.48
-14.76
-14.22
-15.60
-19.38
-25.48
-32.73
-38.55
-39.34
-31.74
-14.49
10.23
37.00
59.02
70.79
70.26
59.31
42.48
24.75
9.81
-0.54
-5.89
-6.39
-2.32
5.71
16.32
27.30
36.19
41.13
41.37
37.58
31.44
24.93
19.71
16.77
16.31
17.98
21.10
24.78
28.16
30.45
31.03
29.63
26.44
21.81
16.34
10.69
5.28
0.27
-4.39
-8.75
-12.78
-16.28
-19.03
-20.90
-21.98
-22.51
-22.70
-22.57
-22.01
-20.86
-19.07
-16.85
-14.52
-12.38
-10.55
-9.03
-7.75
-6.69
-5.87
-5.35
-5.10
-5.03
-5.01
-5.01
-5.02
-5.04
-4.95
-4.61
-3.88
-2.80
-1.61
-0.62
-0.04
0.11
0.00
-0.10
-0.01
0.32
0.85
1.48
2.15
2.89
3.76
4.74
5.78
6.74
7.47
7.85
7.81
7.43
6.81
6.03
5.05
3.73
1.89
-0.64
-3.47
-6.31
-8.85
-10.87
-12.30
-13.20
-13.70
-13.96
-14.06
-13.98
-13.66
-12.90
-11.52
-9.44
-6.81
-3.94
-1.26
0.87
2.31
3.17
3.74
4.36
5.24
6.35
7.49
8.36
8.74
8.59
8.04
7.34
6.73
6.31
6.02
5.67
5.15
4.44
3.71
3.14
2.83
2.71
2.59
2.27
1.67
0.89
0.19
-0.16
-0.07
0.33
0.66
0.50
-0.45
-2.17
-4.36
-6.57
-8.35
-9.45
-9.74
-9.19
-7.76
-5.43
-2.24
1.60
5.72
9.64
13.01
15.70
17.88
19.83
21.78
23.82
25.81
27.48
28.60
28.99
28.64
27.62
26.03
23.93
21.22
17.67
13.04
7.20
0.38
-6.86
-13.71
-19.37
-23.29
-25.37
-25.95
-25.55
-24.72
-23.87
-23.28
-23.23
-23.96
-25.73
-28.63
-32.44
-36.59
-40.34
-43.00
-44.10
-43.50
-41.31
-37.79
-33.17
-27.67
-21.53
-15.14
-8.98
-3.63
0.46
3.09
4.42
4.84
4.80
4.67
4.55
4.36
3.92
3.16
2.12
1.00
-0.01
-0.76
-1.25
-1.57
-1.84
-2.14
-2.44
-2.65
-2.70
-2.59
-2.44
-2.43
-2.76
-3.51
-4.62
-5.88
-6.98
-7.64
-7.71
-7.24
-6.43
-5.56
-4.88
-4.48
-4.33
-4.25
-4.08
-3.71
-3.08
-2.17
-1.00
0.45
2.10
3.82
5.38
6.59
7.37
7.81
8.12
8.60
9.43
10.63
11.99
13.17
13.83
13.81
13.15
12.17
11.24
10.70
10.65
10.97
11.41
11.72
11.76
11.55
11.20
10.81
10.43
10.06
9.64
9.20
8.78
8.50
8.44
8.58
8.75
8.68
8.12
6.97
5.34
3.50
1.80
0.50
-0.34
-0.77
-0.98
-1.06
-1.06
-0.94
-0.62
-0.08
0.69
1.65
2.72
3.81
4.79
5.53
5.94
5.97
5.69
5.22
4.75
4.45
4.42
4.58
4.75
4.72
4.37
3.73
3.00
2.41
2.13
2.13
2.26
2.35
2.25
1.93
1.36
0.54
-0.59
-1.98
-3.51
-4.92
-5.93
-6.41
-6.44
-6.32
-6.42
-7.01
-8.15
-9.63
-11.02
-11.87
-11.84
-10.87
-9.10
-6.90
-4.61
-2.48
-0.57
1.15
2.72
4.10
5.18
5.82
6.01
5.84
5.52
5.23
5.02
4.88
4.73
4.48
4.15
3.76
3.38
3.00
2.62
2.19
1.67
1.10
0.51
0.01
-0.36
-0.61
-0.83
-1.15
-1.69
-2.46
-3.36
-4.19
-4.84
-5.27
-5.56
-5.86
-6.31
-7.00
-7.90
-8.97
-10.08
-11.10
-11.87
-12.26
-12.18
-11.65
-10.77
-9.65
-8.42
-7.14
-5.75
-4.18
-2.33
-0.14
2.39
5.11
7.77
10.10
11.89
13.18
14.25
15.52
17.39
19.99
23.18
26.62
29.90
32.70
34.91
36.57
37.82
38.84
39.83
40.92
42.17
43.49
44.60
45.06
44.40
42.18
38.17
32.44
25.31
17.35
9.20
1.43
-5.59
-11.78
-17.23
-22.15
-26.65
-30.72
-34.26
-37.18
-39.44
-41.13
-42.33
-43.10
-43.45
-43.32
-42.64
-41.35
-39.44
-36.96
-34.01
-30.79
-27.52
-24.45
-21.79
-19.61
-17.91
-16.54
-15.28
-13.91
-12.29
-10.33
-8.08
-5.63
-3.13
-0.69
1.61
3.71
5.68
7.61
9.76
12.43
15.89
20.27
25.47
31.20
37.16
43.22
49.46
56.05
63.08
70.35
77.40
83.75
89.19
93.96
98.68
104.14
111.01
119.66
130.08
141.88
154.14
165.40
173.54
176.13
170.80
155.97
131.29
97.89
58.15
15.20
-27.78
-67.97
-103.26
-132.31
-154.50
-169.79
-178.63
-181.79
-180.21
-174.89
-166.81
-156.87
-145.98
-135.01
-124.77
-115.82
-108.29
-101.81
-95.67
-89.11
-81.62
-73.15
-64.00
-54.57
-45.04
-35.37
-25.33
-14.81
-3.91
7.07
17.79
28.07
37.85
47.20
56.09
64.39
71.87
78.33
83.78
88.42
92.55
96.40
99.91
102.65
103.75
102.08
96.60
86.66
72.23
54.05
33.35
11.66
-9.51
-28.88
-45.46
-58.66
-68.33
-74.82
-78.85
-81.33
-83.04
-84.44
-85.64
-86.52
-86.90
-86.69
-85.82
-84.28
-81.97
-78.81
-74.78
-70.03
-64.85
-59.57
-54.50
-49.82
-45.59
-41.70
-38.02
-34.34
-30.51
-26.53
-22.53
-18.81
-15.56
-12.93
-10.82
-9.05
-7.48
-6.06
-4.82
-3.83
-3.05
-2.40
-1.76
-1.04
-0.28
0.41
0.90
1.06
0.86
0.31
-0.46
-1.27
-1.81
-1.81
-1.10
0.35
2.38
4.74
7.17
9.47
11.56
13.36
14.87
16.10
17.10
17.94
18.74
19.57
20.48
21.41
22.30
23.06
23.62
24.05
24.50
25.17
26.28
27.92
30.05
32.49
34.97
37.30
39.44
41.47
43.59
46.06
49.09
52.83
57.38
62.69
68.66
75.14
82.06
89.50
97.67
106.83
117.07
128.22
139.73
150.99
161.56
171.37
180.91
191.04
202.60
215.85
229.99
242.84
251.17
251.51
241.21
219.42
187.36
148.12
105.81
64.49
27.23
-4.51
-31.18
-54.87
-78.83
-106.32
-139.19
-176.58
-214.43
-246.35
-265.68
-267.96
-252.54
-222.55
-183.40
-140.66
-98.48
-59.20
-24.06
6.12
30.69
49.96
65.87
81.96
102.06
128.40
160.22
193.73
223.58
244.81
254.54
252.43
240.11
220.12
195.00
167.02
138.24
110.67
86.11
65.79
49.89
37.46
26.67
15.43
2.09
-14.02
-32.25
-50.79
-67.00
-78.19
-82.35
-78.77
-68.36
-53.38
-36.67
-20.78
-7.28
3.42
11.66
17.92
22.38
24.98
25.80
25.37
24.64
24.57
25.44
26.61
26.65
24.00
17.62
7.40
-5.91
-21.05
-36.74
-51.94
-66.03
-78.77
-90.25
-100.74
-110.54
-119.79
-128.39
-136.01
-142.28
-147.02
-150.40
-152.89
-154.95
-156.81
-158.28
-158.85
-158.02
-155.51
-151.48
-146.26
-140.22
-133.48
-125.83
-116.88
-106.21
-93.65
-79.21
-63.05
-45.42
-26.61
-7.11
12.34
30.69
46.86
60.03
69.99
77.14
82.27
86.14
89.14
91.26
92.31
92.32
91.74
91.42
92.18
94.43
97.86
101.48
103.76
103.00
97.68
86.90
70.75
50.65
29.27
9.12
-7.04
-16.84
-19.23
-15.28
-7.82
-0.15
5.23
7.35
5.75
1.23
-4.39
-9.27
-12.46
-14.18
-15.38
-17.21
-20.63
-28.55
-42.34
-60.75
-80.66
-98.98
-113.86
-124.80
-132.41
-137.95
-149.49
-171.76
-203.12
-237.33
-268.56
-294.27
-314.87
-332.45
-349.61
-382.72
-442.05
-525.83
-623.07
-722.17
-814.55
-893.08
-950.92
-982.08
-1005.64
-1035.30
-1070.18
-1098.69
-1111.69
-1108.09
-1091.69
-1067.53
-1039.48
-1039.15
-1084.07
-1165.99
-1258.32
-1336.91
-1390.53
-1418.50
-1425.44
-1248.80
-835.58
-267.18
301.19
760.62
1085.44
1297.74
1430.07
1502.16
1539.77
1527.31
1456.47
1342.09
1215.76
1104.64
1020.62
964.56
931.44
915.52
888.96
835.87
760.93
682.65
617.03
569.78
539.08
520.34
510.05
491.31
455.21
405.45
354.05
311.04
279.82
259.11
246.05
238.74
228.96
212.68
192.02
172.81
159.47
152.82
151.22
152.23
153.99
152.62
146.32
136.15
125.05
115.79
109.66
106.51
104.99
103.32
99.70
93.27
84.39
74.32
64.47
55.61
47.41
38.45
26.65
9.96
-13.33
-44.33
-83.44
-130.05
-181.98
-235.36
-284.89
-324.92
-351.12
-361.68
-357.78
-342.87
-321.25
-296.60
-271.14
-245.68
-220.29
-195.06
-170.47
-147.23
-125.90
-106.63
-89.21
-73.39
-59.20
-47.03
-37.42
-30.56
-25.98
-22.47
-18.32
-11.92
-2.32
10.40
25.01
39.51
51.75
60.14
64.02
63.83
60.71
55.95
50.43
44.41
37.66
29.95
21.37
12.52
4.31
-2.52
-7.66
-11.49
-14.79
-18.53
-23.41
-29.63
-36.83
-44.16
-50.51
-54.85
-56.51
-55.43
-52.09
-47.33
-41.92
-36.22
-30.02
-22.74
-13.82
-3.17
8.62
20.38
30.86
39.26
45.40
49.76
53.03
55.80
58.38
60.97
63.78
67.12
71.19
75.72
79.83
82.22
81.56
77.12
69.04
58.39
46.91
36.44
28.54
24.06
23.05
24.83
28.41
32.82
37.34
41.54
45.11
47.64
48.64
47.66
44.52
39.47
33.01
25.72
18.00
10.08
2.26
-4.91
-10.60
-13.87
-13.96
-10.55
-3.79
5.69
16.89
28.51
39.05
47.04
51.42
51.93
49.40
45.76
43.54
45.12
51.84
63.43
77.92
92.10
102.46
106.19
102.03
90.61
74.24
56.24
39.98
28.05
21.75
20.88
24.10
29.42
34.75
38.43
39.35
37.04
31.55
23.43
13.65
3.55
-5.35
-11.79
-15.10
-15.56
-14.23
-12.50
-11.41
-11.11
-10.75
-8.93
-4.31
3.57
14.09
25.70
36.49
44.95
50.32
52.76
53.01
52.16
51.32
51.40
52.96
55.95
59.53
62.14
61.88
57.22
47.65
34.12
18.71
3.97
-7.94
-15.77
-19.28
-18.92
-15.56
-10.23
-4.25
0.81
3.39
2.31
-2.72
-10.93
-20.71
-30.24
-37.98
-43.09
-45.30
-44.61
-41.18
-35.12
-26.76
-16.69
-5.80
4.96
14.83
23.33
30.24
35.37
38.44
38.99
36.68
31.61
24.72
17.87
13.45
13.54
18.95
28.62
39.71
48.55
52.06
49.00
40.36
28.86
17.78
9.64
5.49
4.80
6.11
7.73
8.30
7.09
3.98
-0.69
-6.25
-11.80
-16.34
-18.79
-18.31
-14.52
-7.67
1.24
10.78
19.46
26.23
30.70
33.18
34.36
34.94
35.41
35.83
35.95
35.30
33.45
30.18
25.69
20.66
16.15
13.21
12.45
13.62
15.60
16.76
15.58
11.32
4.34
-3.95
-11.64
-17.02
-19.17
-18.21
-15.18
-11.54
-8.59
-7.04
-6.88
-7.52
-8.17
-8.20
-7.53
-6.69
-6.65
-8.44
-12.61
-18.87
-26.14
-32.92
-37.87
-40.28
-40.20
-38.33
-35.86
-34.29
-35.05
-38.94
-45.33
-51.62
-53.75
-47.63
-31.18
-5.84
23.42
49.65
66.41
70.03
60.65
41.73
18.64
-3.09
-19.15
-27.18
-26.91
-19.87
-8.72
3.65
14.79
23.20
28.21
29.92
28.98
26.52
24.12
23.47
25.82
31.33
38.81
46.10
50.86
51.56
48.11
41.88
35.13
30.13
28.39
30.19
34.47
39.24
42.27
41.90
37.76
30.96
23.67
18.16
15.76
16.27
18.07
18.98
17.30
12.57
5.66
-1.74
-7.88
-11.45
-11.80
-8.83
-2.82
5.54
15.04
23.96
30.34
32.56
30.00
23.29
13.99
3.69
-6.90
-18.44
-32.62
-51.07
-74.18
-100.29
-125.96
-147.06
-160.13
-163.49
-157.61
-144.83
-128.68
-113.24
-102.11
-97.45
-99.03
-103.78
-106.44
-101.28
-84.45
-55.84
-19.59
17.30
47.58
66.37
72.68
69.13
60.36
51.01
44.26
41.36
42.10
45.46
50.32
55.64
60.51
64.11
65.81
65.34
62.95
59.34
55.41
51.96
49.45
47.85
46.71
45.40
43.34
40.33
36.63
32.89
29.94
28.38
28.39
29.68
31.63
33.64
35.34
36.60
37.44
37.77
37.26
35.45
32.02
27.17
21.82
17.45
15.61
17.17
21.81
27.95
33.26
35.70
34.37
29.92
24.24
19.56
17.51
18.73
22.83
29.04
36.60
44.81
52.71
58.73
60.75
56.73
45.62
28.02
6.11
-17.00
-38.44
-56.51
-71.07
-83.24
-94.64
-106.60
-119.45
-132.47
-144.14
-152.75
-157.05
-156.80
-152.98
-147.67
-143.47
-142.55
-145.66
-151.48
-156.61
-156.41
-146.67
-125.31
-93.50
-55.45
-17.24
15.19
37.72
48.97
50.34
45.13
37.43
31.02
28.52
30.96
37.79
47.29
57.32
65.92
71.81
74.39
73.62
69.91
64.06
57.33
51.28
47.33
46.22
47.68
50.54
53.30
54.83
54.81
53.71
52.40
51.63
51.60
51.87
51.58
49.67
45.34
38.33
29.20
19.40
10.93
5.64
4.43
6.63
10.10
12.02
10.16
3.93
-5.30
-14.79
-21.60
-23.89
-21.47
-15.74
-8.88
-2.93
0.87
2.23
1.53
-0.66
-3.87
-7.91
-12.61
-17.62
-22.15
-25.11
-25.44
-22.72
-17.51
-11.34
-6.22
-3.83
-4.80
-8.44
-13.07
-16.76
-18.06
-16.56
-12.98
-8.92
-6.43
-7.48
-13.40
-24.35
-38.86
-53.86
-65.33
-69.54
-64.54
-51.06
-32.52
-13.86
0.30
7.28
7.21
2.54
-3.16
-6.79
-6.73
-3.08
2.83
9.26
14.75
18.40
19.79
18.83
15.59
10.36
3.85
-2.70
-7.68
-9.60
-7.68
-2.23
5.40
13.31
19.87
24.25
26.67
28.07
29.61
32.06
35.51
39.20
41.70
41.30
36.69
27.67
15.75
3.96
-3.91
-4.86
2.07
15.25
30.96
44.95
53.98
57.00
55.12
50.87
46.97
45.38
46.82
50.84
56.27
61.72
65.99
68.32
68.52
66.98
64.57
62.37
61.38
62.28
65.26
70.23
77.09
85.91
96.85
109.74
123.61
136.42
145.33
147.32
140.11
122.82
96.02
61.48
21.41
-22.23
-68.22
-116.20
-166.79
-221.32
-281.07
-346.09
-413.67
-477.76
-529.77
-561.05
-565.89
-543.89
-499.98
-442.36
-379.24
-315.84
-253.48
-190.70
-125.79
-58.98
6.60
65.90
113.93
147.70
167.23
175.31
176.06
173.38
169.47
164.69
158.30
149.62
139.08
128.33
119.53
114.40
113.50
116.19
121.23
127.05
131.92
133.65
129.70
117.88
97.65
71.23
43.53
20.71
7.70
6.10
13.55
24.95
34.83
39.46
37.90
31.52
22.82
14.17
7.21
2.82
1.19
1.90
3.86
5.36
4.50
-0.04
-8.40
-19.35
-30.60
-39.77
-45.18
-46.41
-44.33
-40.56
-36.83
-34.31
-33.40
-33.79
-34.68
-35.20
-34.63
-32.63
-29.31
-25.19
-21.08
-17.79
-15.78
-14.92
-14.49
-13.48
-11.10
-7.29
-3.02
-0.03
-0.04
-3.84
-10.40
-16.89
-19.48
-14.85
-1.75
18.27
41.11
61.59
75.10
79.17
73.88
61.55
45.68
29.77
16.62
7.85
3.89
4.11
7.02
10.61
12.87
12.26
8.16
1.03
-7.84
-16.73
-24.05
-28.77
-30.52
-29.60
-26.80
-23.10
-19.47
-16.59
-14.60
-13.04
-11.02
-7.55
-2.01
5.42
13.74
21.42
26.91
29.25
28.27
24.58
19.24
13.45
8.38
5.08
4.42
7.00
12.88
21.37
30.99
39.80
45.86
47.90
45.68
39.99
32.29
24.16
16.78
10.72
5.90
1.91
-1.79
-5.64
-9.93
-14.75
-19.92
-25.01
-29.40
-32.56
-34.43
-35.62
-37.27
-40.54
-45.89
-52.66
-59.24
-63.71
-64.73
-62.15
-57.02
-51.07
-45.90
-42.43
-40.65
-39.85
-39.01
-37.20
-33.94
-29.43
-24.51
-20.42
-18.32
-18.64
-20.76
-22.90
-22.60
-17.44
-5.88
12.07
34.53
57.96
77.98
90.64
93.77
87.82
75.69
61.65
49.70
42.23
39.53
40.26
42.48
44.48
45.23
44.06
40.53
34.25
25.25
14.39
3.35
-5.71
-11.02
-11.90
-9.01
-4.09
0.82
4.21
5.61
5.65
5.56
6.60
9.46
14.15
20.11
26.63
33.00
38.56
42.51
44.05
42.56
38.17
32.12
26.66
24.34
26.92
34.44
45.11
55.94
64.03
67.73
67.06
63.47
58.91
55.12
53.15
53.31
55.44
58.98
62.92
65.94
66.55
63.55
56.58
46.24
33.79
20.69
7.91
-4.43
-17.23
-32.31
-52.18
-79.42
-115.77
-161.07
-212.49
-264.71
-311.14
-345.70
-364.49
-366.53
-353.40
-328.59
-296.80
-263.45
-234.18
-213.55
-203.35
-201.32
-201.21
-194.63
-173.99
-135.36
-79.96
-13.80
54.09
114.23
159.03
184.56
191.35
184.10
170.12
156.94
149.84
150.39
156.63
164.68
170.84
172.99
170.88
165.41
157.68
148.47
138.33
127.88
117.98
109.62
103.42
99.46
97.26
96.18
95.79
96.00
96.91
98.59
100.94
103.78
107.12
111.22
116.49
123.12
130.75
138.54
145.23
149.26
148.75
141.47
125.28
99.11
64.13
24.27
-14.79
-47.85
-72.74
-91.41
-108.86
-130.10
-156.89
-186.30
-211.93
-227.07
-228.02
-215.64
-194.44
-170.37
-148.33
-131.12
-119.76
-114.61
-116.00
-124.13
-138.15
-155.30
-171.03
-180.08
-178.42
-164.99
-142.36
-115.94
-92.05
-75.68
-68.77
-69.89
-75.16
-79.96
-80.60
-75.56
-66.19
-56.45
-51.89
-57.52
-75.36
-102.71
-132.11
-153.44
-157.43
-139.12
-99.54
-45.20
14.54
70.47
115.94
147.74
165.82
172.29
170.52
164.40
157.64
153.12
152.32
155.07
159.75
163.86
164.82
160.81
151.37
137.55
121.63
106.26
93.72
85.22
80.73
79.22
79.20
79.28
78.47
76.37
73.14
69.39
65.97
63.63
62.71
62.86
62.99
61.63
57.53
50.28
40.68
30.56
22.16
17.27
16.54
19.30
23.90
28.47
31.71
33.27
33.59
33.37
32.94
31.88
29.28
24.27
16.71
7.56
-1.39
-8.28
-11.97
-12.63
-11.63
-10.91
-12.24
-16.80
-25.09
-37.17
-52.76
-71.21
-91.30
-111.26
-129.28
-144.15
-155.81
-165.37
-174.38
-183.74
-192.92
-199.97
-202.26
-197.84
-186.68
-171.11
-155.48
-144.85
-143.34
-152.34
-169.69
-189.86
-205.47
-209.36
-196.71
-166.21
-120.31
-64.43
-5.61
49.07
93.95
125.88
144.68
152.73
153.84
151.85
149.34
147.31
145.59
143.60
141.01
137.73
133.57
127.96
120.13
109.60
96.80
83.07
70.17
59.58
51.90
46.80
43.42
40.88
38.62
36.46
34.43
32.63
31.19
30.08
28.97
26.99
22.73
14.74
2.32
-13.73
-30.85
-45.35
-53.65
-53.56
-45.20
-30.71
-13.36
3.81
18.74
30.54
39.15
44.86
48.14
49.65
50.25
50.83
51.98
53.69
55.34
56.09
55.28
52.83
49.16
44.91
40.60
36.41
32.31
28.35
24.93
22.80
22.76
25.12
29.25
33.46
35.37
32.90
25.18
13.08
-0.98
-13.80
-22.73
-26.57
-26.31
-25.23
-28.58
-42.31
-71.21
-116.41
-173.54
-232.84
-281.51
-307.68
-304.31
-271.40
-215.55
-147.43
-78.37
-17.34
30.37
63.37
83.22
93.12
96.66
96.66
94.55
90.37
83.45
73.50
61.36
49.06
39.01
33.02
31.53
33.52
37.08
40.25
41.73
41.30
39.51
37.17
35.00
33.44
32.64
32.36
31.67
28.52
20.06
3.86
-20.24
-48.59
-73.79
-86.77
-80.22
-51.83
-5.68
48.85
100.27
138.64
158.22
158.32
142.39
116.21
86.04
57.35
34.01
18.06
9.74
7.76
9.72
12.66
13.51
9.77
0.05
-15.33
-34.20
-52.80
-66.66
-71.99
-66.88
-52.23
-31.50
-9.74
8.04
18.55
21.11
17.66
11.61
6.50
4.61
6.30
9.91
12.29
9.26
-3.64
-29.87
-70.24
-121.31
-174.95
-219.65
-243.85
-240.14
-208.58
-157.27
-99.74
-49.95
-17.30
-3.79
-4.63
-11.54
-17.02
-17.20
-12.52
-5.97
-0.69
1.83
2.10
1.64
1.72
2.52
3.60
4.72
6.54
10.47
17.93
29.22
42.97
56.50
66.84
72.12
72.41
69.77
67.43
68.31
73.61
82.00
89.86
92.57
86.47
70.58
47.48
22.65
2.69
-6.99
-3.99
10.47
32.29
56.13
76.97
91.31
97.40
95.18
85.87
71.66
55.39
40.02
28.01
20.68
17.76
17.56
17.49
15.01
8.40
-2.81
-17.73
-34.49
-50.68
-64.04
-73.00
-77.14
-77.33
-75.45
-73.64
-73.48
-75.34
-78.29
-80.64
-80.87
-78.45
-74.16
-69.85
-67.85
-70.08
-77.42
-89.06
-102.20
-112.18
-113.51
-101.58
-74.71
-35.47
9.63
52.12
84.56
103.11
108.41
104.64
97.18
90.40
86.36
84.93
84.73
84.32
82.84
80.06
76.04
70.84
64.48
57.13
49.44
42.71
38.75
39.20
44.87
55.08
67.66
79.66
88.50
93.20
94.68
95.42
98.14
104.44
113.94
124.43
132.80
136.52
134.80
128.95
121.99
117.44
118.00
124.33
134.79
145.90
153.68
155.20
149.53
137.94
123.28
108.89
97.47
90.36
87.07
85.38
81.79
72.36
53.84
24.62
-14.76
-61.92
-113.62
-166.86
-219.57
-270.70
-319.72
-366.06
-408.88
-447.01
-479.22
-504.39
-521.55
-529.86
-528.81
-518.64
-500.73
-477.62
-452.26
-426.86
-401.87
-375.71
-345.59
-308.97
-264.93
-214.65
-160.82
-106.19
-52.40
0.59
54.13
109.85
168.56
229.60
290.62
347.88
397.15
434.77
458.83
469.91
470.83
465.62
458.13
450.92
444.88
439.88
435.59
432.15
430.22
430.60
433.64
438.95
445.38
451.32
455.00
454.72
449.20
437.61
419.69
395.78
366.72
333.79
298.54
262.55
227.26
193.73
162.46
133.48
106.39
80.66
55.87
31.84
8.55
-14.01
-35.93
-57.53
-79.21
-101.17
-123.37
-145.42
-166.85
-187.46
-207.59
-228.14
-250.28
-274.95
-302.39
-332.01
-362.69
-393.20
-422.82
-451.61
-480.38
-510.52
-543.82
-582.34
-627.67
-679.85
-735.98
-789.65
-831.97
-854.08
-850.40
-820.79
-770.66
-708.66
-643.33
-580.29
-521.45
-466.03
-412.64
-360.75
-311.05
-264.60
-221.81
-181.90
-143.20
-104.03
-63.42
-21.46
20.71
61.65
100.23
136.19
170.18
203.46
237.32
272.51
309.16
347.11
386.50
427.87
471.51
516.30
558.79
593.48
614.37
617.43
602.37
573.01
535.66
496.80
460.95
430.26
405.16
385.65
371.90
363.78
360.02
357.86
353.79
344.90
330.24
310.78
288.49
264.69
238.89
208.88
171.82
126.25
73.35
17.36
-35.64
-79.58
-110.28
-126.76
-131.37
-129.11
-126.37
-129.68
-144.21
-172.29
-212.35
-258.62
-302.70
-336.07
-353.20
-353.30
-340.14
-319.84
-298.01
-277.80
-259.60
-242.34
-225.20
-208.75
-194.76
-185.47
-182.44
-185.99
-195.09
-207.47
-220.22
-229.98
-233.83
-229.92
-217.83
-199.02
-177.31
-158.98
-151.76
-162.58
-194.32
-243.27
-299.02
-347.43
-375.58
-376.61
-351.74
-308.59
-257.19
-205.41
-156.75
-110.80
-65.55
-19.65
26.59
71.90
115.30
156.86
197.73
239.31
282.45
327.34
373.79
422.04
472.97
527.24
583.90
639.18
686.42
717.72
726.67
710.83
672.62
618.23
555.02
489.02
423.55
359.58
297.01
235.95
177.03
120.98
67.87
16.72
-34.06
-85.83
-139.31
-194.69
-252.08
-311.67
-373.00
-433.66
-488.48
-530.07
-550.93
-546.39
-516.52
-466.01
-401.98
-330.88
-256.85
-182.22
-109.54
-43.43
9.61
43.58
55.91
49.05
29.35
3.93
-22.55
-49.29
-78.27
-111.60
-148.78
-185.88
-216.47
-233.94
-234.04
-216.00
-182.44
-138.18
-88.84
-40.18
1.73
30.09
37.90
20.03
-23.78
-86.70
-155.31
-213.19
-246.56
-249.18
-223.86
-180.01
-128.73
-78.09
-31.14
13.12
57.07
102.33
149.06
196.58
244.15
291.01
335.83
376.13
408.47
429.44
436.64
429.68
410.21
381.57
347.94
313.50
281.65
254.33
231.82
212.94
195.91
179.25
162.58
146.89
134.00
125.80
123.48
127.11
135.38
145.37
152.59
151.20
135.10
100.15
46.49
-19.70
-86.43
-138.54
-162.09
-149.23
-101.57
-30.42
46.40
109.94
145.73
147.50
118.00
66.82
6.51
-51.62
-100.59
-138.81
-169.38
-198.29
-232.19
-276.29
-332.65
-399.12
-469.11
-532.74
-579.37
-600.90
-594.33
-562.54
-513.01
-454.71
-394.98
-337.69
-283.39
-231.03
-179.85
-130.23
-83.29
-39.87
0.45
39.40
79.36
122.49
170.33
223.20
280.04
337.79
391.14
432.86
455.21
452.31
422.57
370.07
303.76
234.60
171.50
118.09
72.09
27.62
-20.81
-74.67
-130.12
-179.60
-215.35
-232.67
-231.29
-214.34
-185.94
-149.14
-105.48
-56.23
-3.90
47.27
92.42
127.96
153.07
169.68
180.93
189.08
194.29
194.94
189.10
176.22
157.74
136.39
114.74
94.34
75.84
59.88
47.72
40.64
38.39
38.06
34.70
23.85
4.31
-20.85
-45.93
-66.10
-80.18
-90.80
-101.64
-113.85
-124.06
-125.66
-112.20
-81.01
-34.36
21.80
80.59
136.38
185.52
226.12
257.59
280.80
298.16
313.19
329.06
346.76
364.24
376.83
379.17
367.33
340.70
302.66
259.91
220.64
191.95
177.33
175.23
179.48
181.86
175.83
159.49
136.17
112.30
93.70
82.52
76.49
70.85
61.55
47.68
31.83
18.51
11.92
14.64
27.44
49.86
80.75
118.21
159.08
198.71
231.64
253.01
260.14
253.26
235.24
210.49
183.47
157.67
135.13
116.59
101.72
89.49
78.48
67.31
55.07
41.63
27.64
14.14
2.05
-8.27
-17.13
-25.32
-33.67
-42.61
-52.02
-61.36
-70.04
-77.75
-84.67
-91.29
-98.09
-105.24
-112.44
-119.14
-124.87
-129.69
-134.29
-139.78
-147.13
-156.66
-167.77
-179.12
-189.34
-197.74
-204.74
-211.62
-219.96
-230.75
-244.19
-259.97
-277.82
-297.54
-318.04
-336.49
-348.21
-348.17
-333.64
-306.11
-271.02
-234.98
-202.36
-173.33
-145.12
-115.60
-86.59
-64.13
-55.18
-62.84
-83.45
-108.01
-126.92
-135.40
-135.96
-136.52
-145.82
-169.19
-206.77
-254.46
-306.39
-356.50
-398.98
-427.72
-436.51
-420.53
-378.49
-314.62
-238.28
-161.28
-94.10
-42.77
-7.99
13.58
26.37
33.34
34.93
30.23
19.03
3.59
-11.41
-20.68
-20.94
-12.81
-0.41
10.85
17.07
17.46
13.86
8.79
3.08
-4.66
-16.65
-32.98
-49.80
-59.65
-55.17
-33.47
0.87
36.44
59.68
61.26
41.24
9.68
-17.58
-26.12
-9.22
29.66
79.02
125.35
158.67
175.63
178.65
172.29
159.90
142.46
120.20
95.13
72.28
57.85
55.55
63.50
73.97
76.76
64.20
35.13
-4.88
-46.88
-83.83
-113.88
-140.12
-166.96
-195.62
-221.98
-238.12
-236.69
-215.58
-179.72
-138.91
-102.70
-75.97
-56.93
-39.70
-18.79
7.20
34.77
58.09
72.71
77.90
76.29
71.67
66.73
62.41
59.02
57.58
60.13
68.50
82.24
97.74
109.05
110.30
98.51
75.03
45.19
16.37
-4.74
-14.50
-13.29
-5.01
4.61
10.38
9.31
1.21
-12.17
-28.58
-46.54
-65.18
-83.39
-98.95
-108.71
-110.05
-102.49
-88.31
-71.59
-56.16
-43.75
-33.40
-22.64
-9.41
6.27
22.24
35.37
43.20
44.88
41.01
32.83
21.76
9.38
-2.40
-11.45
-16.04
-15.67
-11.37
-5.51
-1.01
-0.38
-4.95
-14.60
-27.64
-41.22
-52.27
-58.44
-58.78
-53.82
-44.90
-33.31
-19.64
-4.13
12.59
28.91
42.65
52.25
57.97
61.97
67.14
75.24
85.66
95.60
101.66
101.75
96.12
87.03
77.55
70.20
66.26
65.79
68.04
71.96
76.35
79.69
80.15
76.20
67.57
55.90
44.21
35.45
30.90
29.78
30.29
31.12
32.14
33.57
34.67
33.04
26.01
13.06
-2.46
-13.99
-14.97
-2.45
21.07
48.84
73.42
89.78
96.41
94.17
84.51
68.84
48.99
28.02
9.86
-2.02
-6.23
-3.76
2.85
10.97
18.70
24.62
27.18
24.46
15.03
-0.67
-19.46
-36.10
-45.49
-45.12
-36.32
-23.64
-12.73
-7.78
-9.78
-16.27
-22.59
-24.16
-18.49
-6.31
8.98
22.96
32.41
36.69
37.56
37.71
39.13
42.05
45.09
46.49
45.37
42.20
38.26
34.43
30.32
24.50
15.62
3.79
-8.56
-17.25
-18.28
-10.18
4.68
20.77
31.83
34.09
28.16
18.62
11.37
10.21
14.74
20.82
23.14
18.41
6.99
-7.67
-21.22
-30.72
-35.62
-37.35
-38.15
-39.87
-43.83
-50.76
-60.68
-72.45
-83.60
-90.99
-92.20
-86.92
-77.09
-65.72
-54.91
-44.66
-33.13
-18.59
-1.28
15.90
28.65
33.58
29.90
19.71
6.75
-5.15
-13.21
-16.13
-13.92
-7.80
0.11
7.53
12.94
16.28
18.75
21.98
26.75
32.31
36.69
37.91
35.16
29.28
22.13
15.40
9.55
4.06
-1.77
-7.64
-11.88
-12.22
-6.90
3.95
17.84
30.63
37.98
37.25
28.66
15.30
1.99
-6.44
-6.79
1.57
16.58
34.14
49.48
58.55
59.28
51.99
39.01
23.42
7.96
-5.73
-16.85
-24.84
-28.81
-27.69
-21.06
-9.97
2.92
14.24
21.34
23.24
20.51
14.31
5.56
-5.14
-16.89
-28.12
-36.71
-40.86
-40.06
-35.38
-28.73
-21.66
-14.67
-7.36
0.64
8.88
15.96
20.22
20.52
16.88
10.46
3.19
-2.98
-6.59
-7.08
-4.99
-1.88
0.24
-0.38
-4.55
-11.80
-20.75
-29.73
-37.35
-42.78
-45.51
-44.99
-40.62
-32.08
-19.70
-4.71
10.91
24.94
35.59
41.99
44.21
42.88
38.65
31.93
23.14
13.19
3.60
-3.80
-7.74
-8.30
-6.93
-5.64
-5.71
-7.09
-8.59
-9.01
-8.02
-6.41
-5.36
-5.56
-6.62
-7.34
-6.58
-3.93
0.02
4.11
7.25
8.89
9.03
8.02
6.35
4.42
2.58
0.98
-0.38
-1.48
-1.99
-1.16
1.81
7.16
14.01
20.56
24.67
24.95
21.47
15.77
10.14
6.56
5.83
7.37
9.78
11.58
11.92
10.67
8.36
5.56
2.51
-0.91
-4.95
-9.60
-14.47
-18.68
-21.14
-20.77
-16.91
-9.50
0.74
12.28
23.01
30.72
33.81
31.83
25.62
17.07
8.27
0.84
-4.52
-7.94
-10.03
-11.52
-12.98
-14.67
-16.53
-18.26
-19.46
-19.83
-19.22
-17.46
-14.49
-10.20
-4.63
1.92
8.66
14.37
17.65
17.40
13.29
6.07
-2.34
-9.44
-12.93
-11.64
-6.06
1.94
10.00
16.24
19.87
21.07
20.19
17.29
12.03
4.22
-5.63
-16.11
-25.35
-31.84
-34.96
-35.14
-33.27
-30.22
-26.55
-22.62
-18.80
-15.52
-12.98
-10.79
-8.18
-4.30
1.19
7.82
14.49
19.89
23.10
23.85
22.53
19.93
16.95
14.53
13.46
14.26
16.92
20.68
24.17
25.79
24.50
20.35
14.69
9.44
6.08
4.85
4.68
3.92
1.58
-1.96
-4.96
-5.44
-2.38
3.56
10.35
15.93
19.26
20.77
21.84
23.62
26.32
29.06
30.60
30.09
27.46
23.52
19.62
17.39
18.26
23.07
31.57
42.25
52.73
60.45
63.56
61.26
53.96
43.11
31.31
22.12
19.40
25.66
40.28
58.62
72.66
73.99
57.12
21.54
-27.73
-82.17
-132.41
-170.73
-192.60
-196.89
-185.29
-161.51
-130.39
-97.00
-65.80
-39.98
-21.26
-9.91
-5.04
-5.22
-9.23
-16.66
-28.35
-45.83
-70.51
-102.38
-139.45
-178.17
-214.68
-246.25
-272.16
-293.37
-311.75
-328.77
-344.41
-357.41
-365.40
-366.00
-357.75
-340.68
-316.37
-287.19
-255.44
-222.69
-189.89
-157.80
-127.38
-99.62
-75.53
-55.26
-37.52
-19.77
0.80
25.87
55.20
87.10
119.54
150.48
178.83
205.28
232.35
263.83
303.66
354.95
418.77
493.91
573.93
648.29
706.05
739.94
748.82
736.98
712.23
682.81
656.31
634.74
615.73
595.87
573.51
549.18
523.35
495.75
465.21
432.29
394.88
349.53
293.77
227.96
154.77
76.35
-5.98
-104.93
-213.29
-312.28
-385.49
-428.76
-446.73
-445.22
-429.98
-405.32
-374.26
-336.72
-295.25
-253.69
-215.02
-184.34
-157.75
-132.22
-105.99
-78.28
-47.29
-14.66
16.44
43.17
64.44
81.25
93.87
102.10
104.67
107.11
110.41
113.93
116.90
119.37
122.75
127.76
134.88
144.33
156.60
170.31
183.62
194.71
202.30
206.04
205.41
200.15
190.30
176.42
158.32
136.07
110.08
81.11
50.47
19.42
-10.72
-38.65
-63.06
-83.38
-99.24
-110.48
-117.27
-119.92
-118.96
-115.04
-108.77
-100.81
-92.07
-83.33
-75.28
-68.48
-63.26
-59.68
-57.56
-56.61
-56.64
-57.75
-60.44
-65.41
-73.43
-84.99
-100.10
-118.28
-138.61
-160.51
-183.55
-207.50
-232.22
-257.66
-283.58
-309.45
-334.33
-357.26
-377.87
-396.37
-413.36
-429.62
-446.00
-463.21
-481.64
-501.05
-520.10
-536.85
-547.79
-548.24
-533.73
-502.12
-454.62
-395.79
-331.82
-268.63
-212.46
-166.47
-130.20
-100.88
-76.02
-54.74
-37.46
-24.77
-16.37
-15.48
-23.42
-38.28
-55.77
-72.15
-85.52
-95.31
-100.75
-100.43
-100.21
-104.41
-112.88
-121.35
-125.40
-123.01
-115.11
-103.76
-91.34
-89.75
-107.72
-146.24
-198.95
-258.15
-318.91
-380.27
-443.04
-448.04
-365.31
-208.24
-25.32
137.69
260.65
345.66
403.28
444.46
476.80
494.51
492.41
472.10
442.80
412.01
389.59
379.52
381.45
392.53
401.99
402.29
392.87
379.38
368.44
364.22
366.22
371.36
375.67
369.81
347.37
307.22
252.80
188.75
119.89
52.47
-6.07
-49.43
-77.00
-91.07
-94.88
-91.59
-84.43
-76.20
-69.23
-64.82
-63.15
-64.68
-69.49
-77.04
-86.21
-95.67
-104.05
-110.61
-115.53
-119.39
-123.06
-127.13
-131.42
-134.92
-136.15
-133.40
-125.40
-111.75
-93.42
-70.54
-43.91
-14.48
16.84
49.19
81.69
113.39
140.84
162.77
178.55
187.91
191.17
189.26
183.43
175.02
165.19
154.75
144.41
134.39
124.54
114.73
105.10
95.87
87.32
79.66
72.83
66.79
61.21
55.61
49.76
43.87
38.45
34.05
31.02
29.20
28.10
26.87
24.75
21.52
17.74
14.48
12.73
13.06
15.08
17.73
19.59
19.71
18.07
15.58
14.04
14.19
16.33
20.20
25.45
31.74
38.47
44.10
45.85
40.32
25.12
0.72
-29.14
-58.41
-81.25
-94.66
-99.52
-99.49
-98.16
-96.40
-91.50
-79.12
-56.34
-24.16
12.32
46.27
72.57
90.06
101.00
108.63
113.85
114.13
105.19
84.41
53.63
19.30
-10.23
-28.63
-34.42
-30.94
-23.98
-18.76
-17.58
-19.79
-23.30
-26.31
-28.33
-30.01
-32.29
-35.57
-39.54
-43.29
-45.81
-46.69
-46.18
-44.93
-43.65
-42.66
-41.80
-40.63
-38.66
-35.87
-32.86
-30.53
-29.68
-30.41
-32.16
-33.72
-33.95
-32.25
-29.10
-26.16
-25.32
-28.02
-34.02
-41.03
-45.72
-45.15
-37.98
-25.92
-13.07
-4.06
-1.97
-6.84
-15.54
-23.10
-24.69
-16.47
2.71
31.13
64.38
95.79
117.32
121.50
104.23
67.25
19.49
-26.15
-57.45
-67.29
-56.14
-31.16
-2.51
21.96
35.02
36.95
32.25
25.50
18.55
11.00
2.09
-7.63
-16.06
-20.80
-20.19
-15.02
-8.19
-3.09
-2.08
-5.36
-11.24
-17.09
-20.69
-20.68
-17.57
-13.30
-10.17
-9.69
-12.07
-16.29
-20.76
-24.08
-25.39
-24.90
-23.66
-22.94
-23.61
-25.82
-29.10
-32.61
-35.65
-37.64
-38.51
-38.51
-37.99
-37.16
-35.94
-34.10
-31.35
-27.55
-22.67
-16.94
-10.65
-4.21
1.97
7.58
12.37
16.19
18.97
20.69
21.43
21.28
20.42
19.00
17.21
15.16
12.95
10.61
8.16
5.57
2.75
-0.24
-3.38
-6.70
-10.22
-13.96
-17.97
-22.29
-26.97
-32.14
-37.59
-43.21
-48.92
-54.68
-60.47
-66.28
-72.15
-78.18
-84.55
-90.95
-97.27
-103.47
-109.59
-115.66
-121.76
-127.98
-134.46
-141.42
-148.38
-155.04
-161.18
-166.52
-170.67
-173.03
-172.62
-167.83
-161.41
-154.02
-146.00
-137.60
-129.02
-120.39
-111.86
-103.54
-95.57
-88.18
-80.96
-73.80
-66.73
-59.88
-53.37
-47.26
-41.49
-35.97
-30.62
-24.98
-18.89
-12.47
-5.99
0.30
6.29
12.16
18.23
24.85
32.50
41.26
50.75
60.40
69.70
78.45
86.95
95.86
105.95
117.84
131.62
146.76
162.48
177.99
192.92
207.40
222.04
237.78
255.75
277.00
302.10
330.51
360.10
387.12
406.94
415.47
410.66
393.33
366.83
335.67
303.89
273.91
246.34
220.71
196.44
173.42
152.00
132.55
115.05
99.04
83.88
69.17
54.97
41.72
30.05
20.36
12.71
6.72
1.77
-2.75
-7.29
-11.95
-16.52
-20.60
-23.81
-25.89
-26.90
-27.13
-27.01
-26.99
-27.33
-28.04
-28.92
-29.74
-30.26
-30.45
-30.38
-30.20
-30.07
-30.15
-30.53
-31.28
-32.41
-33.80
-35.27
-36.57
-37.52
-38.07
-38.40
-38.81
-39.57
-40.78
-42.32
-43.93
-45.35
-46.38
-46.94
-47.00
-46.59
-45.87
-45.19
-45.12
-46.40
-49.62
-54.92
-61.92
-69.81
-77.82
-85.51
-92.90
-100.18
-107.27
-113.52
-117.75
-118.57
-114.98
-106.68
-94.09
-78.10
-59.70
-39.88
-19.58
0.21
18.53
34.58
47.94
58.58
66.80
72.80
76.59
77.84
76.09
71.03
62.83
52.19
40.33
28.78
18.99
12.01
8.21
7.08
7.43
7.88
7.41
5.78
3.58
1.86
1.62
3.31
6.66
10.90
15.14
18.76
21.62
24.01
26.41
29.20
32.47
35.97
39.17
41.58
42.90
43.19
42.77
41.88
40.54
38.56
35.75
32.37
29.26
27.68
28.66
32.63
39.01
46.41
53.06
57.15
56.88
50.43
36.03
12.72
-18.57
-54.52
-89.65
-117.97
-134.94
-139.15
-132.65
-119.93
-106.09
-95.13
-89.06
-87.91
-90.40
-94.67
-98.74
-100.63
-98.68
-91.81
-80.07
-64.93
-48.92
-34.80
-24.52
-18.42
-15.21
-12.86
-9.78
-5.71
-1.78
0.40
-0.09
-2.90
-6.43
-8.99
-9.63
-8.69
-7.27
-6.43
-6.58
-7.39
-8.25
-8.89
-9.68
-11.38
-14.61
-19.19
-24.03
-27.44
-27.92
-24.87
-18.95
-11.77
-5.29
-0.96
0.69
0.14
-1.60
-3.46
-4.69
-4.90
-3.88
-1.50
2.22
6.95
11.85
15.83
17.90
17.70
15.74
13.13
11.05
10.14
10.30
10.90
11.19
10.79
9.74
8.34
6.87
5.46
4.10
2.83
1.82
1.29
1.31
1.69
1.94
1.57
0.27
-1.85
-4.40
-6.88
-8.98
-10.66
-12.17
-13.85
-15.85
-18.08
-20.14
-21.56
-21.94
-21.10
-19.09
-16.16
-12.60
-8.79
-5.11
-2.02
0.11
1.07
0.96
0.26
-0.38
-0.40
0.39
1.69
2.90
3.35
2.70
1.09
-0.96
-2.82
-4.14
-4.99
-5.78
-7.02
-8.97
-11.52
-14.32
-16.99
-19.32
-21.12
-22.21
-22.22
-20.82
-18.12
-14.81
-11.88
-9.91
-8.36
-5.37
1.67
14.92
34.91
59.98
86.61
110.54
128.11
137.35
138.36
132.94
123.87
113.92
105.14
98.60
94.50
92.61
92.58
94.11
96.86
100.22
103.39
105.57
106.39
105.98
105.02
104.34
104.61
106.04
108.43
111.33
114.26
116.95
119.49
122.19
125.36
128.88
131.87
132.75
129.66
121.17
106.91
87.73
65.25
41.17
16.47
-8.81
-35.25
-63.43
-93.25
-123.69
-153.00
-179.20
-200.51
-215.76
-224.33
-226.20
-221.89
-212.48
-199.63
-185.31
-171.37
-159.03
-148.59
-139.49
-130.70
-121.28
-110.80
-99.47
-87.96
-77.10
-67.50
-59.40
-52.62
-46.70
-41.04
-35.14
-28.79
-22.14
-15.67
-10.05
-5.79
-3.08
-1.65
-0.91
-0.21
0.91
2.49
4.23
5.62
6.24
5.83
4.52
2.61
0.44
-1.74
-3.87
-6.06
-8.43
-11.01
-13.64
-16.05
-18.01
-19.41
-20.35
-21.13
-22.08
-23.44
-25.20
-27.14
-28.84
-29.80
-29.60
-27.96
-24.93
-20.89
-16.59
-13.01
-11.09
-11.31
-13.49
-16.81
-20.03
-22.00
-22.04
-20.11
-16.79
-12.90
-9.25
-6.42
-4.68
-4.00
-4.17
-4.85
-5.62
-6.07
-5.94
-5.12
-3.76
-2.08
-0.31
1.31
2.65
3.60
4.10
4.17
3.90
3.51
3.20
3.11
3.20
3.28
3.12
2.55
1.59
0.43
-0.69
-1.56
-2.13
-2.51
-2.94
-3.65
-4.85
-6.55
-8.58
-10.52
-11.89
-12.25
-11.42
-9.56
-7.12
-4.62
-2.45
-0.73
0.68
2.00
3.40
4.93
6.54
8.18
9.85
11.59
13.44
15.28
16.93
18.20
18.95
19.26
19.33
19.35
19.40
19.40
19.16
18.56
17.62
16.55
15.59
14.88
14.37
13.82
13.00
11.79
10.27
8.71
7.37
6.43
5.88
5.55
5.22
4.67
3.83
2.70
1.41
0.10
-1.08
-2.10
-3.02
-4.02
-5.28
-6.94
-8.92
-10.97
-12.68
-13.58
-13.35
-11.86
-9.32
-6.19
-3.02
-0.28
1.86
3.53
5.07
6.89
9.26
12.23
15.68
19.30
22.71
25.54
27.46
28.34
28.36
28.06
28.29
29.90
33.37
38.63
44.84
50.71
54.84
56.13
54.11
49.01
41.81
33.97
27.14
22.77
21.73
24.15
29.41
36.37
43.62
49.84
54.02
55.78
55.41
53.98
53.08
54.20
58.10
64.19
70.41
73.68
70.77
59.40
39.00
10.96
-21.69
-55.01
-85.09
-108.88
-124.73
-132.52
-133.41
-129.34
-122.39
-114.30
-106.17
-98.45
-91.24
-84.49
-78.26
-72.68
-67.90
-63.85
-60.22
-56.62
-52.76
-48.76
-45.04
-42.13
-40.34
-39.47
-38.92
-37.88
-35.75
-32.35
-27.96
-23.12
-18.37
-14.10
-10.50
-7.61
-5.40
-3.81
-2.75
-2.12
-1.79
-1.58
-1.38
-1.13
-0.80
-0.41
0.02
0.54
1.22
2.10
3.18
4.34
5.50
6.64
7.90
9.51
11.64
14.22
16.97
19.39
21.06
21.85
21.93
21.80
22.00
22.91
24.54
26.51
28.18
28.85
28.06
25.82
22.66
19.46
17.06
15.76
15.03
13.52
9.53
1.79
-9.92
-24.50
-39.82
-53.46
-63.51
-68.97
-69.80
-66.51
-59.72
-49.96
-37.80
-24.17
-10.44
1.83
11.31
17.17
19.08
16.96
10.90
1.41
-10.12
-21.14
-28.25
-28.31
-19.76
-3.40
17.69
39.24
57.48
70.41
78.32
83.36
88.52
96.55
109.12
126.50
147.46
169.63
189.94
205.05
211.97
208.52
193.78
168.34
134.32
94.95
53.91
14.39
-21.69
-54.17
-84.61
-115.69
-150.25
-190.09
-234.89
-281.57
-324.53
-356.80
-372.07
-366.60
-340.52
-297.69
-244.26
-186.32
-128.05
-71.02
-15.01
40.31
93.62
141.43
178.82
201.27
206.43
195.15
171.25
140.32
108.32
80.31
59.89
49.09
48.56
57.50
73.63
93.10
110.93
122.03
122.64
111.54
90.73
64.71
38.87
17.44
1.99
-8.99
-18.96
-31.44
-48.18
-68.39
-89.23
-107.19
-119.40
-124.42
-122.15
-113.17
-98.27
-78.28
-54.27
-27.89
-1.42
22.60
41.98
55.41
62.80
65.10
63.93
61.13
58.42
57.18
58.30
62.00
67.69
73.91
78.56
79.27
74.07
62.07
43.92
21.80
-1.02
-20.92
-34.94
-41.53
-41.06
-35.68
-28.64
-23.18
-21.51
-24.05
-29.57
-35.81
-40.63
-42.79
-42.32
-40.07
-37.13
-34.24
-31.65
-29.34
-27.40
-26.24
-26.42
-28.30
-31.72
-35.92
-39.75
-42.12
-42.37
-40.50
-37.24
-33.84
-31.80
-32.48
-36.68
-44.22
-53.82
-63.40
-70.61
-73.63
-71.77
-65.74
-57.31
-48.65
-41.49
-36.43
-32.82
-29.09
-23.54
-15.19
-4.30
7.75
19.14
28.58
35.99
42.58
50.08
59.68
71.15
82.63
91.44
95.17
92.66
84.47
72.51
59.49
48.35
42.19
43.91
55.15
75.01
99.37
121.75
136.07
140.08
137.03
134.56
140.89
159.67
187.03
212.79
225.25
217.12
189.17
149.92
111.74
85.31
75.20
78.50
87.17
92.37
88.29
73.63
50.16
20.01
-16.47
-60.83
-114.80
-176.21
-236.48
-281.23
-295.17
-268.79
-203.09
-110.26
-10.69
72.76
122.28
129.86
98.46
38.89
-35.02
-109.50
-171.65
-211.35
-223.76
-209.63
-175.61
-132.57
-93.14
-68.51
-64.57
-79.41
-93.14
-85.37
-45.04
21.79
98.39
170.30
230.85
276.08
311.12
337.87
353.53
354.45
339.27
310.14
274.46
238.54
205.88
177.37
150.76
121.95
88.19
49.75
10.37
-24.55
-51.45
-70.07
-82.95
-95.01
-111.41
-134.89
-164.69
-197.12
-227.48
-253.15
-274.49
-294.04
-315.62
-342.73
-377.42
-419.70
-467.11
-514.38
-553.87
-576.80
-576.18
-550.89
-507.82
-460.32
-422.83
-404.25
-403.52
-410.62
-411.88
-396.94
-363.50
-316.87
-265.83
-217.32
-173.53
-132.59
-91.59
-49.52
-7.97
29.81
61.49
87.19
109.53
132.41
159.44
192.65
231.66
273.72
314.34
348.74
373.39
387.25
391.82
389.84
383.41
372.59
355.66
330.64
297.48
258.82
219.19
182.84
151.85
125.75
103.07
83.49
69.00
63.00
67.83
82.43
102.01
119.61
129.18
128.22
118.59
105.24
93.65
87.55
87.73
92.34
98.35
103.12
105.47
105.85
105.62
106.02
107.36
108.90
109.46
108.23
105.34
101.63
97.78
93.45
87.16
77.07
62.17
43.12
21.91
0.71
-19.38
-38.66
-58.08
-77.93
-97.10
-113.40
-124.79
-130.56
-131.55
-129.49
-125.85
-121.28
-115.73
-109.17
-101.92
-94.56
-87.32
-79.56
-69.98
-57.42
-41.62
-23.60
-5.18
11.67
25.44
35.31
41.17
43.74
44.67
46.34
51.06
59.90
71.79
83.67
91.82
93.68
89.16
80.48
70.87
62.75
56.62
51.28
44.96
36.69
26.88
17.03
8.79
3.20
0.31
-0.72
-1.15
-2.24
-4.96
-9.78
-16.67
-25.18
-34.52
-43.71
-51.73
-57.60
-60.53
-60.13
-56.61
-50.73
-43.66
-36.56
-30.29
-25.19
-21.09
-17.64
-14.63
-12.01
-9.92
-8.51
-7.79
-7.60
-7.57
-7.19
-5.94
-3.48
0.05
3.92
6.82
7.40
4.86
-0.45
-7.02
-12.68
-15.48
-14.66
-10.92
-6.07
-1.98
0.30
0.90
0.78
0.97
1.96
3.53
5.12
6.25
6.71
6.42
5.26
3.08
-0.11
-3.85
-7.27
-9.43
-9.79
-8.45
-6.04
-3.30
-0.63
2.04
4.94
8.14
11.30
13.96
15.93
17.60
19.71
22.78
26.59
30.18
32.36
32.52
31.06
29.07
27.48
26.10
23.51
17.72
7.67
-5.86
-20.32
-32.69
-41.10
-45.88
-49.40
-54.86
-64.54
-78.49
-94.31
-108.05
-115.69
-114.26
-102.68
-82.14
-55.69
-27.11
0.98
28.41
57.48
91.05
130.66
174.10
214.77
243.37
251.26
234.37
194.28
136.97
69.65
1.02
-59.92
-104.01
-123.80
-115.76
-81.63
-30.00
25.40
68.01
87.10
79.93
51.12
7.31
-46.63
-107.63
-173.90
-242.85
-312.50
-375.46
-423.15
-448.87
-452.67
-440.32
-417.72
-388.22
-351.92
-310.64
-261.52
-202.78
-134.58
-61.19
-0.45
30.24
23.36
10.11
6.78
24.83
55.52
91.24
123.61
147.38
164.29
180.56
202.91
231.14
269.65
318.66
374.63
430.15
478.78
518.81
551.52
579.13
600.66
624.23
654.48
689.58
720.25
735.64
729.04
699.35
650.73
543.89
375.74
177.55
-5.74
-147.31
-244.71
-307.03
-343.97
-362.22
-367.55
-357.38
-332.91
-300.68
-269.75
-245.99
-229.88
-218.40
-208.04
-197.31
-180.56
-156.37
-128.34
-102.93
-84.06
-72.00
-64.53
-58.81
-53.31
-43.85
-28.91
-10.36
8.25
24.56
38.26
50.51
62.79
75.25
89.41
105.47
121.98
136.55
147.21
152.56
150.96
146.66
140.86
134.84
129.19
123.85
118.37
112.47
106.17
99.04
91.15
82.38
73.85
65.80
58.23
50.96
44.04
37.61
31.16
24.63
17.96
12.31
7.94
4.81
2.71
1.55
1.26
-0.02
-3.36
-8.62
-13.12
-16.56
-19.37
-22.25
-25.38
-28.81
-37.52
-54.27
-77.42
-98.54
-115.65
-128.99
-139.93
-148.81
-155.86
-171.53
-202.07
-244.42
-281.90
-311.16
-333.32
-351.69
-366.98
-379.31
-404.91
-453.23
-518.76
-574.54
-615.46
-643.80
-665.30
-681.38
-692.43
-719.70
-776.08
-856.00
-927.43
-988.25
-1045.16
-1105.91
-1167.57
-1091.66
-819.44
-408.01
-71.60
176.52
352.03
495.00
611.02
702.11
768.95
791.61
761.05
690.45
622.61
568.72
527.93
492.85
460.23
427.10
374.42
290.76
181.16
97.28
61.29
69.84
100.64
135.79
166.90
182.46
178.04
159.19
144.77
136.16
129.88
122.21
114.06
107.21
97.89
83.56
65.72
51.92
40.10
27.15
12.76
1.97
1.16
12.64
35.16
64.61
96.60
122.71
136.90
137.94
129.65
117.04
103.89
92.38
83.32
77.35
74.43
74.54
77.23
80.82
81.73
75.65
59.61
33.69
1.57
-31.14
-58.79
-78.68
-89.98
-94.94
-97.23
-99.70
-103.11
-105.68
-104.16
-95.56
-78.70
-55.15
-28.23
-4.25
12.19
19.48
19.32
15.08
9.66
4.94
1.49
-0.74
-0.20
5.72
19.40
41.66
70.95
103.73
135.87
163.12
180.40
185.06
176.33
155.61
126.43
94.09
60.84
27.94
-4.54
-36.03
-63.47
-81.50
-84.34
-68.97
-37.50
2.52
40.40
65.19
68.82
48.61
8.09
-43.88
-95.09
-133.62
-151.42
-146.66
-124.08
-92.12
-58.59
-27.03
2.93
32.85
61.85
85.13
95.94
89.68
67.67
35.93
7.15
-7.67
-4.76
11.28
30.97
44.99
48.19
40.12
24.02
2.90
-21.49
-47.67
-73.13
-94.08
-106.75
-109.29
-101.73
-89.88
-80.46
-78.43
-84.93
-97.45
-111.92
-124.93
-134.72
-140.94
-144.51
-144.04
-138.28
-126.96
-111.06
-92.40
-73.01
-54.54
-37.79
-23.00
-8.69
6.04
20.92
34.48
45.43
52.93
57.07
58.62
59.01
61.96
71.12
83.16
94.88
104.59
111.50
115.80
117.75
117.73
118.02
119.84
122.96
124.56
122.84
116.63
105.72
90.01
58.76
8.45
-57.56
-118.54
-168.13
-205.20
-234.14
-256.39
-272.87
-284.14
-288.94
-286.81
-278.13
-266.09
-252.68
-239.40
-226.85
-215.52
-205.38
-194.54
-181.47
-164.08
-143.01
-119.13
-94.12
-69.65
-47.06
-26.56
-6.57
14.53
40.79
73.42
111.39
151.03
187.96
219.08
243.83
264.23
282.99
307.40
341.58
385.10
432.90
478.23
516.40
546.48
570.52
591.63
619.66
662.22
721.74
794.11
870.71
941.64
997.84
1031.99
997.07
868.27
652.87
390.93
132.96
-85.38
-251.56
-369.63
-450.24
-504.11
-532.89
-536.33
-521.44
-500.61
-487.12
-489.58
-509.08
-539.86
-572.52
-592.59
-590.35
-559.98
-507.78
-448.59
-397.87
-364.67
-349.43
-346.74
-346.00
-340.23
-328.18
-313.30
-299.87
-289.77
-281.89
-273.20
-262.24
-247.33
-228.57
-207.62
-186.70
-167.27
-149.33
-131.82
-112.72
-91.26
-67.49
-42.50
-18.19
4.75
26.63
48.26
70.30
94.54
121.17
148.83
175.48
198.30
217.78
235.84
254.18
273.43
295.91
321.68
348.88
374.69
394.82
410.22
424.58
442.48
468.00
506.66
558.57
617.17
670.70
703.87
710.10
690.70
653.06
580.33
468.47
325.50
169.60
39.32
-62.29
-138.45
-191.26
-225.98
-245.77
-252.13
-249.97
-246.82
-250.47
-269.19
-303.47
-350.28
-403.50
-453.64
-486.69
-491.63
-465.71
-415.40
-354.70
-294.81
-245.84
-206.50
-171.74
-134.91
-92.57
-46.25
-4.08
23.91
32.67
22.73
-1.35
-32.22
-61.80
-82.36
-90.09
-86.59
-77.25
-66.15
-54.01
-38.48
-17.26
9.24
37.53
61.91
77.07
80.73
74.44
62.37
49.02
37.38
27.38
16.84
2.35
-19.36
-50.04
-90.10
-138.97
-195.49
-254.37
-309.51
-353.53
-379.56
-383.39
-365.04
-329.04
-282.93
-234.43
-189.15
-150.07
-117.75
-91.85
-72.22
-58.86
-51.33
-48.22
-47.18
-45.71
-42.54
-37.67
-32.04
-26.91
-22.72
-18.72
-13.11
-3.66
11.36
32.44
58.81
88.78
120.29
151.58
181.74
211.19
241.83
276.44
317.14
363.80
412.65
456.46
486.71
496.66
484.01
451.80
406.87
357.06
308.80
265.92
230.02
201.31
179.01
161.23
144.76
125.75
101.27
70.95
37.71
6.82
-16.42
-28.80
-30.62
-25.38
-18.25
-14.23
-16.29
-24.56
-36.66
-48.92
-58.20
-63.18
-64.71
-64.85
-65.57
-67.38
-69.28
-69.58
-67.15
-62.24
-56.27
-50.94
-47.27
-45.45
-44.75
-43.87
-41.31
-35.53
-25.34
-10.25
9.13
31.05
52.08
68.85
79.08
82.37
80.15
74.80
68.98
65.20
65.34
68.48
72.12
72.62
66.32
50.68
24.97
-9.22
-48.22
-87.40
-125.29
-161.98
-198.36
-234.52
-268.93
-298.88
-321.39
-334.31
-337.03
-334.16
-331.74
-335.10
-347.09
-368.31
-398.73
-438.92
-489.46
-528.52
-536.39
-500.32
-421.74
-314.49
-197.03
-86.15
6.23
74.53
119.50
143.31
149.96
143.67
128.41
107.96
85.99
65.97
51.16
43.77
41.22
40.15
37.43
31.43
22.75
13.45
5.89
1.95
2.49
5.51
8.09
7.82
3.58
-4.08
-13.50
-22.60
-29.54
-32.96
-32.75
-32.11
-32.94
-36.12
-41.40
-47.79
-53.95
-58.79
-61.68
-63.01
-63.46
-63.23
-62.22
-60.01
-56.01
-49.67
-40.83
-29.79
-17.42
-4.58
8.45
21.75
35.75
51.04
68.29
87.74
109.01
130.84
151.89
171.35
189.03
205.47
222.01
241.13
265.04
294.35
326.22
355.81
377.49
386.64
380.90
361.03
331.91
299.55
269.15
241.66
216.98
194.31
173.19
152.72
131.79
111.46
93.31
79.31
68.36
60.90
57.54
58.84
63.42
69.10
77.06
89.99
111.11
138.59
171.04
206.46
243.21
278.52
293.35
275.24
220.32
159.44
108.09
73.53
48.60
29.32
11.66
-7.95
-29.39
-51.44
-72.47
-95.11
-119.73
-145.33
-169.10
-189.41
-205.64
-215.76
-218.35
-212.92
-203.39
-192.78
-183.44
-176.14
-171.53
-169.39
-166.96
-160.85
-148.55
-131.84
-113.84
-98.37
-87.90
-83.31
-83.22
-84.21
-83.07
-78.40
-72.07
-66.71
-64.32
-64.92
-67.11
-68.80
-68.13
-64.45
-58.38
-51.63
-45.57
-40.78
-37.01
-33.64
-30.05
-25.81
-20.58
-14.21
-6.68
1.72
10.28
18.05
24.07
27.71
28.88
27.97
25.72
22.91
20.31
18.47
17.69
17.96
19.02
20.42
21.74
22.76
23.54
24.34
25.54
27.42
30.14
33.66
37.82
42.23
46.34
49.47
50.92
50.25
47.43
42.96
37.68
32.55
28.28
25.07
22.52
19.83
16.01
10.15
1.62
-9.81
-23.84
-39.50
-55.16
-68.85
-78.77
-83.94
-84.59
-81.97
-77.80
-73.41
-69.23
-64.90
-59.80
-53.66
-46.86
-40.20
-34.35
-29.41
-24.96
-20.37
-15.34
-10.13
-5.39
-1.68
0.94
3.03
5.40
8.66
12.81
17.26
21.16
23.85
25.04
24.74
23.05
19.88
15.09
8.70
1.23
-6.39
-13.15
-18.41
-22.12
-24.73
-26.78
-28.50
-29.70
-30.00
-29.17
-27.27
-24.66
-21.75
-18.80
-15.87
-13.01
-10.38
-8.29
-7.10
-6.96
-7.79
-9.22
-10.80
-12.12
-12.95
-13.15
-12.69
-11.54
-9.70
-7.22
-4.24
-1.02
2.15
5.01
7.44
9.48
11.30
13.03
14.67
16.03
16.87
17.04
16.63
15.99
15.45
15.18
15.04
14.69
13.84
12.43
10.73
9.14
7.94
7.17
6.60
5.95
5.04
3.87
2.52
1.05
-0.52
-2.17
-3.80
-5.22
-6.28
-7.04
-7.72
-8.65
-9.99
-11.67
-13.29
-14.36
-14.47
-13.45
-11.39
-8.66
-5.79
-3.36
-1.97
-2.01
-3.54
-6.23
-9.44
-12.40
-14.45
-15.21
-14.66
-13.09
-10.95
-8.77
-6.96
-5.74
-5.10
-4.80
-4.47
-3.72
-2.25
0.09
3.22
6.92
10.83
14.50
17.56
19.70
20.83
21.03
20.56
19.72
18.77
17.90
17.19
16.65
16.21
15.77
15.26
14.60
13.79
12.83
11.75
10.55
9.26
7.90
6.51
5.15
3.87
2.68
1.57
0.47
-0.64
-1.72
-2.71
-3.56
-4.28
-5.01
-5.92
-7.12
-8.58
-10.08
-11.29
-11.92
-11.83
-11.11
-10.02
-8.82
-7.72
-6.75
-5.82
-4.77
-3.53
-2.09
-0.56
0.92
2.27
3.45
4.49
5.40
6.22
6.88
7.35
7.55
7.48
7.17
6.69
6.13
5.50
4.77
3.89
2.86
1.74
0.67
-0.20
-0.75
-1.01
-1.07
-1.10
-1.20
-1.39
-1.60
-1.80
-1.98
-2.22
-2.65
-3.39
-4.46
-5.79
-7.16
-8.35
-9.19
-9.66
-9.83
-9.84
-9.79
-9.67
-9.39
-8.86
-8.00
-6.90
-5.74
-4.70
-3.89
-3.22
-2.47
-1.44
-0.01
1.72
3.48
4.95
5.93
6.42
6.59
6.65
6.73
6.83
6.88
6.82
6.65
6.46
6.30
6.17
5.94
5.45
4.61
3.43
2.03
0.56
-0.85
-2.16
-3.33
-4.41
-5.46
-6.58
-7.94
-9.66
-11.77
-14.06
-16.15
-17.57
-17.95
-17.21
-15.49
-13.15
-10.53
-7.89
-5.41
-3.20
-1.38
-0.03
0.86
1.48
2.11
3.02
4.30
5.80
7.20
8.13
8.46
8.22
7.68
7.11
6.73
6.60
6.62
6.68
6.62
6.36
5.88
5.26
4.64
4.13
3.78
3.53
3.30
2.98
2.53
1.98
1.38
0.71
-0.10
-1.11
-2.36
-3.81
-5.35
-6.84
-8.19
-9.33
-10.11
-10.42
-10.11
-9.16
-7.68
-5.90
-4.07
-2.36
-0.87
0.43
1.63
2.81
4.05
5.31
6.56
7.72
8.72
9.54
10.23
10.81
11.31
11.63
11.66
11.32
10.67
9.88
9.18
8.77
8.66
8.70
8.64
8.22
7.27
5.79
3.93
1.94
0.16
-1.18
-1.95
-2.22
-2.20
-2.12
-2.18
-2.48
-3.10
-4.08
-5.43
-7.10
-8.88
-10.47
-11.51
-11.74
-11.13
-9.86
-8.21
-6.50
-4.90
-3.47
-2.14
-0.84
0.52
2.03
3.72
5.62
7.63
9.56
11.14
12.11
12.32
11.84
10.86
9.64
8.39
7.17
6.01
4.91
3.92
3.08
2.42
1.85
1.21
0.40
-0.56
-1.51
-2.23
-2.65
-2.88
-3.25
-4.07
-5.53
-7.52
-9.72
-11.72
-13.15
-13.79
-13.49
-12.18
-9.80
-6.40
-2.18
2.39
6.72
10.26
12.66
13.89
14.11
13.59
12.51
10.94
8.87
6.35
3.52
0.64
-1.99
-4.13
-5.65
-6.60
-7.15
-7.54
-7.95
-8.41
-8.84
-9.06
-9.00
-8.81
-8.94
-9.83
-11.73
-14.48
-17.48
-20.07
-21.75
-22.53
-22.92
-23.65
-25.33
-28.25
-32.37
-37.36
-42.88
-48.64
-54.43
-60.01
-65.01
-68.91
-71.04
-70.77
-67.63
-61.62
-53.23
-43.40
-33.28
-23.81
-15.52
-8.46
-2.40
2.87
7.42
11.19
14.15
16.47
18.54
20.77
23.40
26.33
29.20
31.52
32.91
33.25
32.64
31.35
29.71
27.96
26.31
24.81
23.44
22.10
20.71
19.25
17.75
16.21
14.62
12.91
11.05
9.12
7.40
6.31
6.23
7.30
9.34
11.84
14.22
16.02
17.11
17.65
17.97
18.41
19.18
20.39
22.05
24.12
26.46
28.73
30.46
31.18
30.64
28.98
26.67
24.30
22.34
20.93
19.90
19.02
18.11
17.22
16.50
16.04
15.80
15.57
15.12
14.32
13.24
12.12
11.26
10.86
10.93
11.30
11.64
11.53
10.64
8.74
5.78
1.96
-2.34
-6.66
-10.55
-13.74
-16.18
-17.89
-19.00
-19.58
-19.71
-19.48
-19.07
-18.70
-18.43
-18.13
-17.40
-15.79
-13.06
-9.31
-5.13
-1.27
1.57
3.09
3.39
2.95
2.35
1.99
2.02
2.37
2.85
3.32
3.74
4.20
4.82
5.67
6.73
7.87
8.94
9.78
10.24
10.21
9.60
8.44
6.85
5.05
3.30
1.78
0.53
-0.55
-1.61
-2.81
-4.16
-5.60
-7.01
-8.35
-9.65
-11.00
-12.43
-13.81
-14.90
-15.43
-15.21
-14.31
-12.98
-11.53
-10.20
-9.07
-8.04
-6.93
-5.62
-4.04
-2.28
-0.43
1.35
2.95
4.30
5.40
6.27
7.01
7.74
8.57
9.58
10.80
12.17
13.55
14.73
15.49
15.63
15.06
13.79
11.97
9.86
7.79
6.01
4.65
3.64
2.77
1.76
0.41
-1.28
-3.14
-4.88
-6.33
-7.46
-8.44
-9.44
-10.52
-11.52
-12.09
-11.95
-10.97
-9.28
-7.20
-5.06
-3.08
-1.26
0.48
2.31
4.32
6.57
9.00
11.47
13.75
15.45
16.24
15.92
14.59
12.64
10.55
8.74
7.28
5.96
4.34
2.13
-0.62
-3.49
-5.85
-7.14
-7.11
-5.89
-3.80
-1.27
1.39
3.93
6.17
7.96
9.31
10.43
11.77
13.86
16.95
20.78
24.55
27.09
27.26
24.28
17.96
8.72
-2.38
-13.76
-23.49
-29.54
-30.32
-25.10
-14.39
0.13
16.08
31.08
43.26
51.63
55.88
56.09
52.50
45.45
35.54
23.75
11.42
-0.07
-9.57
-16.36
-20.20
-21.07
-19.16
-14.76
-8.33
-0.59
7.53
15.20
21.79
26.93
30.51
32.52
33.01
32.22
30.65
28.97
27.77
27.21
26.83
25.68
22.63
16.87
8.14
-3.30
-16.96
-32.49
-49.78
-68.74
-88.91
-109.02
-126.75
-138.94
-142.23
-134.04
-113.53
-82.18
-43.53
-2.24
37.48
73.20
104.78
133.88
162.58
191.74
220.07
244.13
259.67
263.17
253.46
232.06
202.56
169.31
136.14
105.61
79.18
57.72
42.10
33.15
31.22
35.52
43.81
52.84
59.21
60.37
55.30
44.49
29.55
12.62
-4.27
-19.75
-33.29
-45.27
-56.62
-68.31
-80.85
-93.98
-106.73
-117.96
-127.01
-134.13
-140.59
-148.25
-158.65
-172.01
-186.67
-199.33
-206.67
-207.17
-202.35
-196.44
-194.58
-200.66
-215.74
-238.18
-264.68
-291.83
-316.74
-336.82
-349.37
-351.66
-342.39
-323.01
-297.85
-272.71
-252.50
-238.85
-229.65
-220.35
-206.10
-184.02
-153.73
-116.34
-73.45
-26.57
23.00
73.57
122.63
167.34
204.81
233.27
253.41
267.89
280.44
294.91
314.35
339.91
370.51
401.70
426.77
439.38
435.52
414.81
380.80
339.51
295.49
253.96
218.65
188.28
161.05
136.56
115.47
98.30
84.22
70.81
55.21
33.89
5.27
-28.72
-63.67
-94.85
-119.28
-136.83
-150.05
-162.94
-181.19
-208.65
-244.80
-284.50
-319.57
-341.26
-342.98
-322.18
-271.38
-193.03
-98.98
-6.98
66.15
110.79
126.61
120.26
101.47
77.00
50.72
25.08
2.30
-15.18
-25.35
-27.58
-23.36
-16.11
-7.10
0.32
4.13
4.58
3.96
4.97
9.43
17.51
27.93
38.91
48.02
54.07
57.31
59.15
60.94
63.46
66.72
70.25
73.61
76.20
77.97
79.32
80.82
82.15
82.58
81.25
77.76
72.43
65.96
59.16
52.59
46.32
39.02
29.15
15.65
-1.64
-21.97
-44.10
-66.74
-88.54
-108.34
-126.56
-144.40
-163.81
-186.96
-215.48
-249.65
-287.99
-327.36
-355.20
-360.14
-334.73
-279.04
-200.81
-111.82
-22.91
58.57
128.90
186.49
229.78
258.18
272.24
274.46
268.32
257.08
243.04
227.32
209.86
189.47
165.38
137.60
107.22
75.85
44.73
14.01
-15.24
-43.73
-73.79
-107.84
-146.99
-189.46
-230.03
-260.96
-274.41
-265.47
-234.70
-188.27
-135.81
-87.34
-50.35
-28.43
-21.45
-26.94
-41.41
-61.43
-83.51
-104.05
-119.47
-126.78
-124.50
-113.08
-95.05
-74.36
-55.46
-41.71
-34.36
-32.31
-32.82
-33.00
-30.97
-26.35
-19.61
-11.18
-0.41
14.31
34.62
61.10
92.40
125.48
156.52
182.07
199.69
208.17
207.19
196.99
178.38
152.81
122.53
90.22
58.38
28.79
2.31
-21.12
-41.86
-59.79
-73.87
-81.93
-81.04
-68.35
-42.22
-3.52
43.45
91.03
129.63
149.90
145.19
112.95
54.87
-23.64
-114.30
-206.72
-289.47
-351.46
-384.44
-385.37
-357.51
-309.43
-252.16
-195.82
-147.32
-109.76
-83.21
-66.03
-55.51
-48.13
-40.02
-27.73
-9.28
15.12
43.56
73.80
104.58
136.25
169.87
205.43
240.39
269.66
287.20
288.70
273.70
245.99
212.40
180.03
153.52
134.11
120.19
109.09
98.94
89.36
80.99
74.31
68.83
63.16
55.91
46.69
36.54
27.68
22.41
21.96
25.83
31.95
37.45
39.82
37.84
31.97
24.02
16.39
11.24
9.83
12.34
18.00
25.56
33.82
41.96
49.71
57.16
64.48
71.62
78.23
83.70
87.31
88.43
86.58
81.49
73.17
62.04
48.91
34.79
20.56
6.64
-7.21
-21.80
-38.02
-56.45
-76.99
-98.75
-120.06
-138.70
-152.32
-158.93
-157.42
-148.05
-132.41
-113.06
-92.69
-73.32
-55.84
-40.03
-25.15
-10.50
4.15
18.58
32.37
45.25
57.13
67.89
77.00
83.23
84.69
79.28
65.56
43.58
15.46
-14.75
-41.89
-60.98
-68.50
-63.29
-46.58
-21.52
7.86
37.42
63.63
84.05
97.58
104.80
107.93
110.33
115.38
125.19
139.57
155.91
170.28
178.94
179.92
173.82
163.55
153.24
146.64
