1660329413.00
64.000000
-0.00
-0.00
-0.00
-0.00
-0.00
-0.00
-0.00
-0.00
-0.00
-0.00
0.00
0.01
0.01
-0.00
-0.03
-0.05
-0.05
0.00
0.13
0.36
0.66
1.01
1.37
1.72
2.06
2.40
2.79
3.24
3.80
4.42
5.06
5.66
6.20
6.68
7.15
7.68
8.31
9.14
10.09
11.04
11.88
12.56
13.14
13.76
14.65
15.96
17.91
20.32
22.90
25.38
27.58
29.57
31.68
34.32
37.81
42.54
48.15
54.10
59.83
64.97
69.58
74.14
79.34
85.71
93.76
103.00
112.62
121.73
129.77
136.75
143.30
150.75
157.77
166.64
177.95
191.79
206.97
220.57
228.25
225.36
208.53
176.87
132.76
80.05
23.07
-34.94
-92.44
-149.16
-205.23
-260.37
-313.74
-363.87
-409.83
-450.91
-486.50
-515.74
-537.23
-549.22
-549.96
-538.37
-514.21
-478.67
-433.88
-382.45
-327.02
-269.84
-212.63
-156.66
-102.95
-52.37
-5.90
35.58
71.43
101.35
125.50
144.38
158.69
169.15
176.37
180.75
182.57
182.07
179.51
175.23
169.65
163.18
156.15
148.81
141.30
133.69
126.02
118.33
110.69
103.16
95.80
88.68
81.83
75.25
68.95
62.95
57.25
51.86
46.78
42.03
37.59
33.45
29.61
26.07
22.81
19.83
17.11
14.67
12.48
10.54
8.83
7.35
6.07
4.97
4.05
3.27
2.62
2.09
1.65
1.30
1.01
0.79
0.61
0.47
0.37
0.29
0.23
0.19
0.17
0.15
0.15
0.16
0.18
0.20
0.23
0.26
0.30
0.34
0.39
0.43
0.48
0.53
0.57
0.63
0.68
0.74
0.80
0.87
0.95
1.03
1.12
1.22
1.33
1.46
1.60
1.76
1.94
2.14
2.36
2.61
2.88
3.17
3.50
3.86
4.25
4.68
5.14
5.64
6.18
6.76
7.38
8.04
8.75
9.50
10.30
11.14
12.03
12.96
13.95
14.99
16.10
17.27
18.51
19.77
21.05
22.28
23.39
24.27
24.82
24.90
24.40
23.24
21.37
18.79
15.55
11.74
7.52
3.08
-1.42
-5.79
-9.84
-13.41
-16.37
-18.60
-20.07
-20.80
-20.86
-20.41
-19.58
-18.50
-17.28
-15.97
-14.58
-13.10
-11.54
-9.95
-8.44
-7.09
-5.92
-4.90
-3.95
-2.92
-1.68
-0.15
1.50
3.05
4.30
5.13
5.59
5.88
6.34
7.25
8.83
10.70
12.41
13.50
13.72
13.10
12.04
11.09
10.82
11.56
12.76
13.67
13.56
11.98
8.93
4.91
0.68
-3.04
-5.73
-8.03
-10.81
-15.13
-22.22
-33.33
-49.42
-70.95
-97.79
-124.06
-145.11
-156.96
-157.52
-147.41
-129.70
-108.70
-88.36
-71.08
-57.36
-47.22
-40.13
-35.64
-33.32
-32.43
-31.64
-29.23
-23.64
-14.05
-1.25
13.23
27.45
39.71
48.93
54.78
57.57
58.00
56.96
54.91
52.28
49.33
46.23
43.08
39.94
36.85
33.84
30.93
27.96
24.85
21.52
17.94
14.11
10.10
5.96
1.71
-2.64
-7.16
-11.69
-15.74
-18.50
-18.93
-16.27
-10.33
-1.71
8.35
18.42
27.18
33.82
38.00
39.76
39.38
37.25
33.92
30.01
26.17
22.97
20.75
19.63
19.55
20.26
21.39
22.53
23.27
23.36
22.79
21.76
20.54
19.19
17.51
15.08
11.48
6.64
1.04
-4.35
-8.28
-9.64
-7.90
-3.22
3.57
11.30
18.80
25.24
30.29
33.91
36.28
37.53
37.71
36.85
35.07
32.63
29.87
27.07
24.31
21.50
18.46
15.07
11.41
7.67
4.11
0.83
-2.24
-5.35
-8.86
-13.00
-17.81
-23.01
-28.02
-31.99
-34.06
-33.53
-30.18
-24.36
-16.97
-9.24
-2.37
2.79
5.85
6.85
6.12
4.09
1.15
-2.31
-5.95
-9.36
-12.29
-14.52
-16.03
-16.88
-17.18
-17.02
-16.52
-15.85
-15.25
-15.05
-15.57
-17.10
-19.70
-23.21
-27.11
-30.63
-32.77
-32.58
-29.48
-23.45
-15.14
-5.69
3.60
11.58
17.53
21.12
22.43
21.80
19.71
16.68
13.21
9.64
6.19
2.90
-0.24
-3.23
-6.05
-8.62
-10.88
-12.85
-14.61
-16.30
-18.15
-20.49
-23.69
-27.97
-33.18
-38.70
-43.37
-45.88
-45.15
-40.85
-33.44
-24.12
-14.34
-5.35
2.07
7.65
11.42
13.54
14.15
13.46
11.74
9.51
7.32
5.65
4.68
4.29
4.11
3.69
2.80
1.43
-0.20
-1.86
-3.48
-5.24
-7.50
-10.68
-14.99
-20.28
-25.88
-30.75
-33.59
-33.35
-29.47
-22.22
-12.58
-1.92
8.37
17.34
24.50
29.76
33.17
34.82
34.85
33.54
31.37
28.95
26.80
25.15
23.94
22.90
21.73
20.28
18.55
16.66
14.72
12.78
10.80
8.63
6.05
2.81
-1.32
-6.36
-11.99
-17.59
-22.24
-25.03
-25.25
-22.66
-17.65
-11.00
-3.75
3.25
9.45
14.68
18.98
22.38
24.81
26.15
26.34
25.52
24.05
22.38
20.87
19.68
18.80
18.11
17.46
16.78
16.04
15.27
14.53
13.80
12.91
11.55
9.35
6.09
1.81
-3.20
-8.49
-13.69
-18.52
-22.67
-25.68
-26.84
-25.45
-21.16
-14.28
-5.77
3.06
11.00
17.35
21.91
24.83
26.35
26.63
25.80
24.06
21.80
19.52
17.66
16.46
15.87
15.54
15.01
13.87
11.89
9.17
5.98
2.70
-0.34
-3.02
-5.36
-7.50
-9.61
-11.92
-14.68
-18.08
-22.10
-26.32
-29.92
-31.92
-31.46
-28.21
-22.48
-15.14
-7.21
0.36
6.87
11.92
15.30
16.98
17.11
16.01
14.18
12.17
10.44
9.28
8.70
8.54
8.43
8.00
6.95
5.21
2.99
0.64
-1.51
-3.26
-4.68
-6.04
-7.71
-10.04
-13.20
-17.13
-21.44
-25.39
-28.03
-28.51
-26.36
-21.65
-15.00
-7.35
0.33
7.22
12.79
16.71
18.83
19.16
17.91
15.51
12.53
9.63
7.31
5.82
5.08
4.76
4.43
3.75
2.56
0.94
-0.93
-2.87
-4.83
-6.88
-9.13
-11.69
-14.64
-18.06
-22.01
-26.35
-30.62
-33.98
-35.35
-33.85
-29.19
-21.84
-12.90
-3.67
4.81
11.99
17.74
22.16
25.23
26.90
27.09
25.94
23.88
21.53
19.55
18.35
18.01
18.18
18.36
18.06
17.04
15.43
13.60
11.99
10.87
10.21
9.75
9.04
7.56
4.90
0.90
-4.22
-9.78
-14.78
-18.19
-19.40
-18.31
-15.42
-11.39
-6.68
-1.44
4.41
10.85
17.55
23.87
29.17
33.11
35.79
37.69
39.36
41.27
43.58
46.20
48.88
51.36
53.41
54.95
56.01
56.70
57.10
57.20
56.87
55.99
54.52
52.45
49.89
47.08
44.45
42.75
43.02
46.39
53.53
64.28
77.39
90.84
102.56
111.26
116.98
120.97
125.09
130.87
138.73
147.58
154.97
157.73
152.73
137.73
112.10
77.12
35.92
-7.13
-47.31
-80.64
-104.67
-118.84
-124.37
-123.64
-119.49
-114.58
-110.98
-110.02
-112.30
-117.78
-125.88
-135.70
-146.19
-156.42
-165.71
-173.57
-179.64
-183.46
-184.42
-181.97
-175.83
-166.16
-153.62
-139.06
-123.24
-106.67
-89.78
-73.11
-57.47
-43.78
-32.64
-24.04
-17.24
-11.10
-4.57
2.90
11.20
19.73
27.69
34.37
39.24
41.90
42.05
39.54
34.51
27.59
19.92
13.07
8.71
8.26
12.49
21.27
33.42
47.02
59.73
69.44
74.69
75.05
71.01
63.82
54.99
45.93
37.71
30.91
25.76
22.24
20.31
19.98
21.26
24.20
28.73
34.65
41.67
49.47
57.72
65.95
73.52
79.45
82.55
81.61
75.57
63.88
46.60
24.59
-0.61
-26.77
-51.38
-72.00
-86.75
-94.67
-95.76
-90.76
-80.84
-67.18
-50.89
-32.99
-14.62
2.97
18.45
30.68
38.86
42.77
42.70
39.39
33.83
27.11
20.28
14.30
9.74
6.55
3.73
-0.37
-7.23
-17.03
-28.00
-36.67
-39.35
-33.99
-21.60
-6.10
7.09
13.14
9.45
-3.90
-24.68
-49.40
-73.78
-93.06
-102.42
-98.19
-79.39
-48.81
-12.47
22.42
50.25
68.94
80.10
87.46
94.47
102.67
111.27
118.10
120.85
118.00
109.11
94.68
75.93
54.67
33.20
13.98
-0.94
-10.39
-14.49
-14.46
-12.23
-9.76
-8.49
-8.90
-10.33
-11.01
-8.40
0.28
17.38
44.11
80.07
122.85
168.10
210.23
243.58
264.01
270.12
263.71
249.06
231.28
214.57
201.01
190.43
181.26
171.74
160.87
148.57
135.44
122.11
108.90
95.76
82.48
68.98
55.44
42.26
29.88
18.66
8.67
-0.25
-8.52
-16.65
-25.18
-34.51
-44.83
-55.99
-67.58
-78.99
-89.60
-99.17
-107.93
-116.68
-126.54
-138.50
-153.02
-169.89
-188.36
-207.59
-227.06
-246.90
-267.88
-291.25
-318.65
-352.15
-393.82
-444.79
-503.74
-565.74
-622.48
-664.22
-683.05
-675.91
-645.73
-600.19
-548.47
-497.95
-452.20
-411.23
-373.15
-336.14
-299.55
-263.84
-229.67
-197.19
-165.88
-134.83
-103.28
-70.85
-37.63
-3.67
31.31
67.94
106.60
146.48
184.85
217.33
239.15
247.31
242.21
227.98
210.96
197.10
189.47
187.44
187.53
185.66
179.20
167.85
153.10
136.86
120.25
103.32
85.61
66.88
47.66
29.04
12.23
-1.96
-13.19
-21.42
-26.62
-28.65
-27.38
-22.89
-15.51
-5.88
5.22
16.88
28.14
37.99
45.59
50.47
52.74
53.08
52.52
52.00
52.12
52.86
53.77
54.30
54.13
53.36
52.42
51.77
51.64
51.90
52.13
51.87
50.69
48.24
44.06
37.62
28.44
16.58
2.89
-10.84
-22.49
-30.22
-33.19
-31.76
-27.15
-20.90
-14.37
-8.61
-4.63
-3.42
-5.96
-12.66
-23.01
-35.44
-47.82
-58.28
-65.85
-70.49
-72.56
-72.10
-68.50
-60.76
-48.33
-31.83
-13.13
5.12
20.51
31.66
38.37
41.23
41.11
38.80
35.00
30.77
27.59
27.21
31.10
39.88
52.98
68.88
85.54
100.96
113.58
122.32
126.48
125.63
119.66
108.93
94.52
78.18
62.06
48.22
38.06
31.99
29.48
29.34
30.26
31.24
31.90
32.28
32.69
33.15
33.23
31.86
27.53
18.79
4.81
-14.19
-36.67
-59.85
-80.26
-94.34
-99.31
-93.72
-77.92
-53.89
-24.85
5.56
34.05
58.18
76.54
88.48
93.86
92.91
86.36
75.72
63.33
52.06
44.52
42.37
45.83
53.89
64.86
76.91
88.49
98.41
105.68
109.55
109.49
105.31
97.03
84.60
67.66
45.46
17.13
-17.71
-58.48
-103.31
-149.26
-192.74
-230.02
-257.76
-273.58
-276.56
-267.60
-249.47
-226.21
-201.99
-179.91
-161.13
-144.79
-128.63
-110.00
-86.87
-58.52
-25.69
9.59
44.43
75.56
100.09
116.15
123.41
123.07
117.38
108.82
99.33
90.11
81.82
75.24
71.62
72.58
79.48
92.64
110.92
131.89
152.61
170.36
183.06
189.01
186.72
175.03
153.83
124.83
91.79
59.77
33.48
15.68
6.32
3.12
2.97
3.62
4.40
5.94
9.11
13.93
19.22
22.93
22.99
18.07
7.94
-6.58
-23.89
-41.91
-58.30
-70.77
-77.33
-76.77
-69.03
-55.37
-38.25
-20.78
-6.02
3.61
6.73
3.04
-6.83
-21.57
-39.41
-58.42
-76.74
-92.72
-105.07
-112.89
-115.79
-113.90
-107.96
-99.22
-89.12
-78.77
-68.64
-58.31
-46.95
-33.97
-19.43
-4.18
10.77
24.84
38.27
51.78
65.84
80.04
93.13
103.67
110.94
115.46
118.81
122.72
128.08
134.48
140.49
144.54
145.91
145.04
143.30
142.19
142.62
144.35
146.10
145.90
141.61
131.49
114.87
92.50
66.78
41.14
19.11
3.05
-6.76
-12.25
-16.65
-23.12
-33.42
-47.26
-62.53
-76.19
-85.28
-87.80
-83.05
-71.72
-55.60
-37.13
-18.76
-2.56
10.15
18.79
23.35
24.23
22.14
18.07
13.24
8.81
5.54
3.33
1.12
-2.84
-10.27
-22.09
-37.97
-56.31
-74.81
-91.25
-104.15
-113.20
-119.12
-123.29
-127.21
-131.86
-137.35
-142.86
-146.78
-147.13
-142.10
-130.41
-111.53
-85.75
-54.03
-17.92
20.52
58.93
94.87
126.28
151.87
171.26
184.97
194.01
199.44
201.97
201.84
199.09
193.83
186.62
178.46
170.64
164.35
160.36
158.68
158.28
157.16
152.59
141.95
123.62
97.76
66.35
32.42
-1.20
-32.94
-62.71
-91.17
-118.61
-144.03
-165.07
-178.77
-182.65
-175.55
-157.99
-131.99
-100.59
-67.36
-35.76
-8.67
12.18
26.44
34.96
39.24
40.77
40.44
38.50
34.79
29.23
22.23
14.60
7.20
0.44
-6.07
-13.41
-22.90
-35.55
-51.63
-70.55
-90.97
-111.00
-128.50
-141.54
-148.96
-150.97
-149.32
-146.72
-145.69
-147.06
-149.21
-148.37
-140.21
-121.69
-92.49
-55.08
-13.65
27.39
64.73
96.51
122.05
141.16
153.80
160.05
160.48
156.28
149.15
140.77
132.33
124.31
116.61
109.04
101.57
94.49
88.28
83.45
80.36
78.97
78.64
77.95
74.97
67.79
55.39
38.20
17.94
-3.09
-23.11
-41.45
-58.33
-73.95
-87.39
-96.40
-98.03
-89.91
-71.46
-44.17
-11.07
24.31
58.87
90.33
117.14
138.23
152.82
160.58
161.73
157.21
148.43
136.86
123.59
108.97
92.68
74.03
52.49
27.98
0.94
-27.91
-58.09
-89.53
-122.50
-157.12
-192.62
-226.99
-257.05
-279.49
-292.12
-295.03
-290.67
-282.74
-274.35
-266.29
-256.43
-240.67
-214.79
-176.43
-126.19
-67.49
-5.47
54.38
107.20
149.42
178.85
194.78
197.94
190.46
175.43
156.32
136.36
118.11
103.44
93.56
89.11
90.21
96.35
106.45
118.92
131.68
142.20
147.65
145.39
133.56
111.81
81.46
45.04
5.41
-34.98
-74.30
-110.92
-142.76
-166.98
-180.54
-181.31
-169.23
-146.67
-117.86
-87.57
-59.84
-37.23
-20.87
-10.87
-6.81
-8.04
-13.73
-22.77
-33.71
-44.70
-53.75
-59.10
-59.86
-56.54
-51.16
-46.69
-45.82
-49.76
-57.60
-66.65
-73.74
-76.76
-75.63
-72.38
-70.29
-72.63
-81.46
-97.00
-117.37
-138.90
-156.77
-166.05
-162.84
-145.45
-114.89
-74.65
-29.60
15.25
55.76
89.15
113.91
129.59
136.57
136.03
129.91
120.62
110.61
101.71
94.74
89.46
84.83
79.65
73.07
64.95
55.91
47.04
39.53
34.29
31.70
31.64
33.70
37.45
42.62
48.96
55.93
62.49
67.11
68.23
64.87
57.21
46.74
35.82
27.04
22.37
22.73
27.80
36.25
46.18
55.61
62.87
66.85
67.12
63.77
57.35
48.67
38.68
28.34
18.52
9.86
2.62
-3.26
-8.05
-12.02
-15.19
-17.34
-18.11
-17.31
-15.15
-12.25
-9.54
-7.85
-7.58
-8.62
-10.54
-13.00
-16.05
-20.15
-25.81
-33.10
-41.22
-48.59
-53.33
-54.05
-50.43
-43.43
-34.81
-26.40
-19.45
-14.18
-9.95
-5.60
0.03
7.75
17.87
30.15
44.00
58.77
74.16
90.34
108.00
127.80
149.81
173.02
195.44
214.77
229.36
238.98
244.55
247.58
249.09
249.22
247.34
242.48
233.42
218.41
195.24
162.28
120.42
74.91
35.69
15.10
23.42
64.16
131.39
210.91
284.89
337.94
361.76
356.34
327.81
284.40
233.04
177.83
120.90
64.11
10.40
-36.50
-73.50
-99.77
-117.56
-131.30
-145.73
-164.17
-187.88
-216.28
-247.17
-277.14
-301.87
-317.04
-319.85
-310.38
-292.04
-270.43
-250.91
-236.40
-226.51
-218.54
-209.62
-198.66
-186.90
-176.82
-170.38
-167.58
-166.41
-164.07
-158.64
-150.21
-140.99
-134.50
-134.01
-141.16
-155.13
-173.02
-190.90
-205.30
-214.23
-217.59
-216.65
-213.15
-208.34
-202.57
-195.47
-186.29
-174.63
-160.95
-146.96
-135.20
-128.05
-126.42
-128.58
-130.20
-125.49
-109.05
-77.54
-30.42
30.23
100.14
173.29
242.15
298.29
333.64
342.53
323.52
280.29
220.84
155.22
93.00
41.54
5.23
-14.46
-18.76
-11.12
3.42
19.30
31.83
38.33
38.41
33.33
25.05
15.57
6.64
-0.02
-2.55
0.82
11.30
28.94
52.38
79.19
106.63
132.50
155.58
175.81
193.75
210.13
225.41
239.91
253.90
267.75
281.62
294.84
305.56
310.94
308.18
295.93
275.22
249.37
222.73
198.97
179.69
164.29
150.92
137.76
124.08
110.30
97.44
86.32
77.11
69.48
63.01
57.50
53.17
50.40
49.44
50.20
52.23
54.87
57.54
59.87
61.74
63.23
64.39
65.20
65.51
65.03
63.51
60.64
56.10
49.47
40.28
28.02
12.37
-6.64
-28.66
-52.96
-78.70
-105.12
-131.72
-158.37
-185.37
-213.34
-242.97
-274.53
-307.35
-339.50
-368.03
-389.64
-401.84
-403.83
-396.98
-384.47
-370.27
-357.85
-348.96
-343.39
-339.12
-333.41
-323.84
-309.21
-289.86
-267.20
-243.00
-218.67
-195.09
-172.83
-152.68
-135.70
-122.80
-114.18
-108.70
-104.12
-97.86
-88.07
-74.34
-57.75
-40.23
-23.63
-9.14
2.84
12.35
19.72
25.35
29.85
33.87
37.84
41.62
44.37
44.91
42.24
36.18
27.51
17.80
8.85
2.24
-1.04
-0.98
1.18
2.51
-1.24
-14.47
-39.60
-75.43
-116.74
-156.01
-186.30
-203.65
-207.94
-201.53
-187.19
-166.47
-139.75
-107.42
-71.31
-34.93
-2.30
23.84
43.22
57.92
71.02
84.89
100.24
116.20
131.29
144.41
155.49
165.48
175.79
187.46
200.68
214.65
227.95
239.13
247.24
252.11
254.20
254.47
254.16
254.66
257.14
262.04
268.45
273.86
274.61
267.03
248.67
219.44
181.61
139.13
96.34
56.90
23.09
-4.11
-24.70
-39.27
-48.77
-54.49
-57.87
-60.33
-62.79
-65.55
-68.31
-70.57
-72.07
-73.13
-74.70
-77.92
-83.57
-91.58
-100.95
-110.01
-117.13
-121.30
-122.57
-121.99
-121.20
-121.72
-124.34
-128.79
-133.79
-137.42
-137.82
-133.69
-124.60
-111.06
-94.24
-75.65
-56.79
-38.87
-22.78
-8.88
2.97
13.54
23.98
35.48
48.53
62.41
75.18
84.35
87.90
85.25
77.50
66.80
55.35
44.61
35.08
26.82
19.91
14.86
12.32
12.71
15.95
21.68
29.59
39.60
51.74
65.81
81.09
96.31
109.85
120.06
125.32
124.02
114.70
96.28
68.49
32.18
-10.84
-58.37
-108.25
-158.71
-208.27
-255.37
-298.29
-335.36
-365.38
-387.96
-403.63
-413.50
-418.91
-421.17
-421.42
-420.72
-419.98
-419.89
-420.68
-422.01
-423.04
-422.62
-419.61
-413.05
-402.38
-387.49
-368.81
-347.38
-324.73
-302.50
-282.06
-264.06
-248.20
-233.43
-218.35
-201.72
-183.00
-162.44
-140.88
-119.37
-98.68
-79.02
-60.13
-41.48
-22.44
-2.48
18.72
41.09
63.93
85.98
105.59
121.24
132.08
138.02
139.58
137.36
131.77
123.02
111.56
98.58
85.84
75.34
68.43
65.30
65.11
66.67
69.25
72.70
76.84
80.66
82.16
79.11
70.28
56.44
40.06
24.17
10.85
0.50
-7.63
-14.21
-18.88
-20.19
-16.61
-7.74
5.25
20.23
35.32
49.90
64.65
80.73
98.76
118.47
138.63
157.95
175.76
192.42
209.15
227.70
249.70
276.04
306.21
337.87
367.06
388.97
399.36
395.99
379.26
352.02
318.32
282.03
245.76
210.78
177.50
146.22
117.59
92.51
71.80
55.78
