1659459594.00
64.000000
-0.00
-0.00
-0.00
-0.00
-0.00
-0.00
-0.00
-0.00
-0.00
-0.00
0.00
0.01
0.01
-0.00
-0.03
-0.05
-0.05
0.00
0.13
0.36
0.66
1.01
1.37
1.72
2.06
2.40
2.79
3.24
3.80
4.42
5.06
5.66
6.20
6.68
7.15
7.68
8.31
9.14
10.09
11.04
11.88
12.56
13.14
13.76
14.65
15.96
17.91
20.32
22.90
25.38
27.58
29.57
31.68
34.32
37.81
42.54
48.15
54.10
59.83
64.97
69.58
74.14
79.34
85.71
93.76
103.00
112.62
121.73
129.77
136.75
143.30
150.75
157.78
166.65
177.95
191.80
206.96
220.55
228.23
225.36
208.56
176.95
132.87
80.13
23.03
-35.20
-92.98
-150.00
-206.31
-261.59
-315.00
-365.10
-411.02
-452.10
-487.78
-517.15
-538.78
-550.84
-551.55
-539.84
-515.55
-480.01
-435.42
-384.44
-329.62
-273.04
-216.23
-160.32
-106.39
-55.53
-9.05
31.89
66.57
94.88
117.41
135.13
149.05
159.80
167.54
172.00
172.88
170.23
164.69
157.39
149.60
142.30
135.71
129.33
122.20
113.45
102.83
90.93
78.95
68.11
59.21
52.26
46.59
41.25
35.34
27.98
18.19
5.37
-9.75
-24.17
-32.64
-29.32
-10.41
23.58
67.31
112.45
150.76
176.80
188.88
188.09
176.53
156.06
128.41
95.91
62.12
31.32
7.30
-7.92
-14.56
-14.56
-10.53
-5.15
-0.40
2.48
3.15
1.91
-0.46
-3.24
-6.12
-9.25
-12.88
-16.80
-20.17
-21.75
-20.57
-16.65
-11.12
-5.83
-2.43
-1.64
-2.94
-5.09
-6.76
-7.36
-7.10
-6.70
-6.75
-7.32
-7.93
-7.92
-6.92
-5.15
-3.19
-1.71
-0.98
-0.91
-1.10
-1.26
-1.29
-1.32
-1.46
-1.68
-1.81
-1.71
-1.38
-0.94
-0.61
-0.48
-0.55
-0.78
-1.13
-1.65
-2.30
-2.93
-3.19
-2.79
-1.64
0.05
1.84
3.34
4.39
5.15
5.87
6.75
7.77
8.72
9.42
9.82
10.06
10.32
10.67
10.94
10.88
10.21
8.83
6.91
4.63
2.26
-0.03
-2.22
-4.39
-6.61
-8.81
-10.78
-12.24
-12.98
-12.99
-12.49
-11.83
-11.29
-10.92
-10.59
-10.11
-9.41
-8.62
-8.01
-7.74
-7.81
-7.92
-7.72
-7.00
-5.77
-4.30
-2.94
-1.96
-1.43
-1.24
-1.19
-1.11
-0.97
-0.83
-0.81
-1.01
-1.43
-1.96
-2.44
-2.72
-2.72
-2.50
-2.19
-1.98
-1.98
-2.20
-2.53
-2.78
-2.80
-2.56
-2.20
-1.98
-2.14
-2.78
-3.76
-4.81
-5.66
-6.13
-6.27
-6.23
-6.20
-6.28
-6.48
-6.76
-7.04
-7.29
-7.56
-7.86
-8.10
-8.09
-7.66
-6.71
-5.35
-3.83
-2.41
-1.24
-0.30
0.51
1.31
2.06
2.64
2.92
2.88
2.62
2.31
2.07
1.89
1.70
1.37
0.87
0.23
-0.51
-1.32
-2.23
-3.20
-4.18
-5.08
-5.84
-6.47
-7.06
-7.69
-8.36
-9.04
-9.68
-10.33
-11.10
-12.13
-13.44
-14.90
-16.24
-17.13
-17.36
-16.85
-15.64
-13.76
-11.19
-7.91
-3.89
0.73
5.66
10.48
14.76
18.15
20.51
21.92
22.62
22.91
23.01
23.00
22.80
22.28
21.40
20.26
19.07
18.05
17.32
16.81
16.32
15.66
14.71
13.50
12.13
10.70
9.24
7.72
6.09
4.38
2.70
1.23
0.15
-0.48
-0.73
-0.84
-1.10
-1.75
-2.84
-4.18
-5.45
-6.29
-6.51
-6.14
-5.41
-4.63
-4.03
-3.63
-3.30
-2.85
-2.16
-1.26
-0.38
0.24
0.45
0.28
-0.06
-0.26
-0.10
0.48
1.31
2.10
2.58
2.64
2.31
1.80
1.35
1.08
1.02
1.04
0.96
0.67
0.15
-0.50
-1.08
-1.46
-1.61
-1.62
-1.69
-1.99
-2.64
-3.61
-4.81
-6.07
-7.23
-8.16
-8.70
-8.73
-8.17
-7.08
-5.66
-4.22
-3.02
-2.19
-1.64
-1.21
-0.74
-0.25
0.11
0.13
-0.32
-1.13
-2.06
-2.81
-3.20
-3.30
-3.32
-3.52
-4.04
-4.85
-5.77
-6.60
-7.25
-7.78
-8.40
-9.27
-10.47
-11.84
-13.13
-14.02
-14.33
-14.06
-13.36
-12.43
-11.41
-10.32
-9.06
-7.53
-5.73
-3.70
-1.52
0.76
3.20
5.83
8.64
11.44
13.95
15.86
17.02
17.49
17.45
17.16
16.77
16.33
15.80
15.10
14.21
13.16
12.05
11.01
10.15
9.54
9.14
8.81
8.37
7.73
6.89
6.02
5.26
4.69
4.21
3.67
2.94
2.09
1.29
0.79
0.65
0.77
0.88
0.78
0.37
-0.24
-0.89
-1.45
-1.93
-2.39
-2.86
-3.28
-3.47
-3.27
-2.62
-1.61
-0.41
0.78
1.85
2.73
3.33
3.57
3.35
2.69
1.78
0.93
0.46
0.51
1.01
1.68
2.21
2.39
2.19
1.77
1.35
1.11
1.14
1.37
1.64
1.77
1.65
1.29
0.82
0.43
0.22
0.21
0.27
0.27
0.14
-0.11
-0.42
-0.77
-1.23
-1.90
-2.77
-3.68
-4.37
-4.56
-4.13
-3.17
-1.92
-0.71
0.24
0.81
1.05
1.04
0.89
0.64
0.34
-0.05
-0.53
-1.09
-1.66
-2.15
-2.46
-2.55
-2.50
-2.46
-2.57
-2.87
-3.30
-3.71
-3.98
-4.08
-4.13
-4.29
-4.70
-5.42
-6.36
-7.40
-8.44
-9.40
-10.29
-11.16
-12.03
-12.92
-13.82
-14.67
-15.41
-15.95
-16.20
-15.98
-15.14
-13.50
-11.00
-7.72
-3.90
0.09
3.89
7.26
10.13
12.54
14.56
16.25
17.56
18.40
18.66
18.30
17.43
16.25
15.02
13.98
13.21
12.66
12.11
11.37
10.34
9.12
7.92
6.99
6.45
6.23
6.11
5.82
5.17
4.15
2.92
1.73
0.85
0.46
0.49
0.69
0.66
0.01
-1.45
-3.56
-5.84
-7.64
-8.40
-7.95
-6.59
-5.04
-4.17
-4.59
-6.34
-8.84
-11.08
-12.08
-11.38
-9.38
-7.15
-6.07
-7.09
-10.27
-14.69
-18.75
-20.93
-20.34
-17.13
-12.57
-8.70
-7.76
-11.60
-21.16
-35.92
-53.62
-70.22
-80.71
-80.56
-67.41
-42.31
-9.67
23.96
52.04
70.04
76.54
72.98
62.33
47.62
30.99
13.58
-3.71
-19.36
-31.09
-36.34
-33.47
-22.76
-6.68
10.75
25.65
35.92
42.14
46.82
52.99
62.46
74.92
88.43
100.60
110.39
118.89
128.73
142.30
160.37
181.50
202.68
220.88
233.96
241.43
244.14
243.27
239.33
232.27
222.12
209.40
195.46
181.24
167.13
152.82
137.41
119.08
96.73
70.87
43.68
18.78
-1.87
-17.58
-28.64
-36.36
-44.35
-55.86
-72.27
-92.29
-111.48
-127.73
-139.97
-147.90
-152.76
-159.66
-173.81
-197.73
-229.68
-262.22
-290.56
-310.68
-319.44
-316.83
-309.65
-306.86
-315.47
-337.47
-367.23
-401.81
-438.38
-473.97
-481.81
-444.21
-363.19
-262.11
-189.32
-148.44
-132.23
-132.24
-132.49
-123.57
-103.19
-72.42
-33.38
12.32
66.19
123.86
179.88
230.06
270.35
295.18
300.46
285.71
255.07
218.19
181.50
149.94
127.34
114.67
108.87
105.13
99.26
89.58
78.52
67.55
58.01
50.93
45.92
41.01
34.22
24.93
14.35
5.51
0.05
-1.61
-0.01
3.45
7.00
9.26
9.79
9.07
8.36
8.41
9.49
11.47
13.78
15.73
16.75
16.53
15.06
12.59
9.54
6.29
3.12
0.09
-2.89
-5.95
-9.08
-12.04
-14.30
-15.34
-14.80
-12.76
-9.68
-6.21
-2.87
0.08
2.61
4.77
6.54
7.86
8.77
9.62
10.95
13.25
16.67
20.85
25.09
28.69
31.20
32.54
32.94
32.65
31.94
31.05
30.24
29.76
29.72
30.03
30.37
30.36
29.76
28.65
27.39
26.40
25.99
26.24
27.14
28.64
30.53
32.27
32.90
31.17
26.19
17.97
7.75
-2.41
-10.60
-15.97
-19.15
-21.72
-25.22
-30.20
-35.91
-40.82
-43.60
-43.90
-42.47
-40.60
-39.35
-38.93
-38.70
-37.64
-35.06
-31.00
-26.22
-21.72
-18.25
-15.89
-14.10
-11.93
-8.52
-3.31
3.68
11.96
20.58
28.33
33.91
36.31
35.25
31.54
27.10
24.42
25.57
31.21
40.08
49.52
56.64
59.62
58.37
54.36
49.51
45.10
41.26
37.21
32.13
25.87
19.26
13.60
9.92
8.30
7.62
5.88
1.00
-8.27
-21.65
-37.20
-52.06
-63.63
-70.64
-73.50
-73.87
-73.83
-75.27
-79.53
-87.40
-98.88
-112.69
-125.87
-134.14
-133.40
-121.68
-100.41
-74.12
-48.47
-27.69
-13.10
-3.39
3.77
9.98
15.48
19.77
22.76
25.42
29.37
35.84
44.77
54.65
63.36
69.29
72.11
72.79
72.99
74.12
76.71
80.26
83.55
85.31
84.74
81.89
77.59
73.18
70.02
69.03
70.40
73.47
76.86
78.85
77.87
73.03
64.43
53.19
41.10
29.98
21.17
15.21
11.66
9.15
5.55
-1.55
-14.09
-32.47
-55.03
-78.31
-98.32
-112.11
-118.96
-120.60
-120.33
-121.70
-127.18
-137.39
-150.88
-164.35
-173.34
-173.52
-162.09
-139.10
-107.78
-73.52
-41.87
-16.48
1.90
14.98
25.32
34.89
44.29
53.17
61.09
68.14
74.91
81.91
88.87
94.64
97.76
97.29
93.46
87.66
81.74
77.12
74.15
72.11
69.80
66.36
61.85
57.28
54.11
53.52
55.79
60.12
64.80
67.82
67.52
63.11
54.93
44.32
33.14
23.18
15.61
10.72
7.98
6.35
4.55
1.35
-4.26
-12.82
-24.10
-36.96
-49.58
-60.08
-67.18
-70.57
-71.00
-69.95
-69.32
-70.96
-76.33
-85.86
-98.53
-111.63
-121.45
-124.58
-119.25
-106.15
-87.91
-67.77
-48.06
-29.53
-11.85
5.40
21.80
36.22
47.50
55.38
60.65
64.72
68.72
72.82
76.27
77.99
77.45
75.09
72.20
70.23
69.94
70.87
71.50
70.05
65.59
58.75
51.66
47.03
46.78
51.07
58.12
64.95
68.65
67.52
61.45
51.66
39.94
27.98
16.95
7.45
-0.47
-7.21
-13.56
-20.53
-28.99
-39.30
-51.08
-63.35
-74.84
-84.44
-91.49
-95.72
-97.17
-96.00
-92.53
-87.31
-81.20
-75.25
-70.62
-68.35
-69.09
-72.72
-77.93
-82.20
-82.32
-75.57
-61.08
-40.49
-17.54
3.47
19.52
29.93
36.34
41.45
47.51
55.30
64.07
72.31
78.67
82.58
84.36
84.83
84.89
85.10
85.52
85.77
85.37
84.00
81.76
79.04
76.39
74.13
72.35
71.07
70.50
71.22
73.82
78.08
82.05
81.95
73.42
53.53
22.69
-15.12
-53.79
-87.71
-113.72
-131.43
-141.82
-145.67
-142.95
-133.88
-120.49
-107.22
-99.44
-100.71
-110.41
-123.49
-132.69
-131.98
-119.11
-96.06
-67.37
-37.81
-10.71
12.34
30.78
44.27
52.57
56.01
55.94
54.71
54.84
57.90
63.81
70.84
76.56
78.98
77.43
72.59
65.93
58.80
51.98
45.54
39.21
32.67
25.76
18.44
10.73
2.64
-5.83
-14.55
-23.12
-30.84
-36.87
-40.55
-41.78
-41.14
-39.74
-38.62
-38.27
-38.36
-37.94
-36.09
-32.37
-27.06
-20.95
-14.93
-9.68
-5.50
-2.29
0.38
3.18
6.78
11.43
16.64
21.28
24.17
24.76
23.71
22.62
23.11
25.90
30.28
34.50
36.69
35.83
32.09
26.52
20.50
15.22
11.51
9.89
10.52
13.06
16.44
18.81
17.95
12.08
0.58
-15.65
-34.27
-52.26
-66.86
-76.25
-79.94
-78.55
-73.25
-65.18
-55.17
-43.75
-31.43
-18.99
-7.44
2.29
9.90
15.85
21.19
26.94
33.45
40.16
45.91
49.63
50.90
50.09
47.95
45.01
41.36
36.84
31.44
25.55
19.92
15.22
11.63
8.91
6.63
4.52
2.58
0.89
-0.61
-2.18
-4.11
-6.47
-8.89
-10.79
-11.65
-11.32
-10.05
-8.23
-6.19
-4.09
-1.99
-0.08
1.34
1.91
1.48
0.22
-1.41
-2.90
-3.90
-4.41
-4.74
-5.25
-6.23
-7.70
-9.51
-11.44
-13.23
-14.66
-15.52
-15.61
-14.85
-13.35
-11.39
-9.40
-7.72
-6.53
-5.77
-5.27
-4.88
-4.61
-4.55
-4.83
-5.52
-6.52
-7.61
-8.53
-9.08
-9.17
-8.78
-7.96
-6.72
-5.10
-3.15
-0.97
1.28
3.44
5.38
7.03
8.37
9.33
9.87
9.90
9.40
8.48
7.41
6.50
5.99
5.90
6.04
6.14
5.97
5.45
4.66
3.74
2.86
2.11
1.49
0.99
0.59
0.31
0.17
0.17
0.21
0.14
-0.23
-0.97
-2.04
-3.18
-4.04
-4.32
-3.84
-2.68
-1.11
0.55
2.04
3.25
4.21
5.04
5.83
6.60
7.28
7.75
7.87
7.62
7.12
6.55
6.06
5.70
5.40
5.03
4.56
4.08
3.73
3.60
3.66
3.70
3.50
2.99
2.29
1.61
1.11
0.75
0.32
-0.40
-1.49
-2.88
-4.35
-5.76
-7.07
-8.30
-9.50
-10.59
-11.40
-11.78
-11.68
-11.15
-10.33
-9.35
-8.24
-6.95
-5.41
-3.61
-1.65
0.27
1.90
3.04
3.56
3.47
2.84
1.80
0.57
-0.62
-1.56
-2.16
-2.43
-2.56
-2.78
-3.32
-4.31
-5.73
-7.50
-9.49
-11.61
-13.79
-15.94
-17.88
-19.46
-20.55
-21.18
-21.44
-21.42
-21.19
-20.72
-20.02
-19.13
-18.11
-16.91
-15.33
-13.04
-9.72
-5.28
-0.07
5.27
10.04
13.76
16.36
18.16
19.60
20.94
22.19
23.10
23.38
22.94
21.91
20.65
19.51
18.70
18.18
17.74
17.13
16.20
14.96
13.60
12.31
11.23
10.34
9.48
8.51
7.39
6.18
5.04
4.11
3.42
2.87
2.30
1.51
0.34
-1.27
-3.26
-5.41
-7.36
-8.74
-9.27
-8.94
-7.98
-6.75
-5.58
-4.58
-3.64
-2.58
-1.29
0.19
1.75
3.25
4.60
5.76
6.68
7.21
7.21
6.62
5.55
4.27
3.12
2.39
2.29
2.81
3.82
4.99
5.93
6.29
5.84
4.63
2.98
1.33
0.10
-0.56
-0.76
-0.81
-1.04
-1.60
-2.42
-3.29
-4.01
-4.50
-4.85
-5.20
-5.62
-6.06
-6.31
-6.19
-5.58
-4.58
-3.37
-2.16
-1.08
-0.12
0.73
1.46
1.96
2.15
1.98
1.59
1.21
1.10
1.33
1.77
2.17
2.23
1.83
1.05
0.12
-0.69
-1.20
-1.36
-1.26
-1.03
-0.81
-0.69
-0.71
-0.92
-1.31
-1.87
-2.53
-3.19
-3.74
-4.08
-4.19
-4.13
-4.04
-4.05
-4.24
-4.60
-5.08
-5.58
-6.07
-6.49
-6.79
-6.85
-6.49
-5.61
-4.20
-2.48
-0.78
0.58
1.39
1.63
1.49
1.19
0.92
0.74
0.65
0.57
0.45
0.28
0.05
-0.19
-0.37
-0.41
-0.29
-0.05
0.23
0.43
0.50
0.42
0.22
-0.10
-0.53
-1.13
-1.85
-2.59
-3.17
-3.49
-3.55
-3.49
-3.47
-3.51
-3.54
-3.39
-2.98
-2.38
-1.76
-1.29
-0.95
-0.57
0.11
1.22
2.64
4.07
5.15
5.64
5.57
5.19
4.88
4.92
5.45
6.30
7.16
7.63
7.43
6.51
5.08
3.49
2.12
1.16
0.63
0.34
0.12
-0.18
-0.61
-1.14
-1.76
-2.42
-3.13
-3.85
-4.52
-5.10
-5.61
-6.14
-6.75
-7.45
-8.11
-8.50
-8.39
-7.67
-6.38
-4.75
-3.03
-1.44
-0.13
0.88
1.59
2.04
2.30
2.45
2.56
2.64
2.68
2.58
2.33
1.96
1.55
1.21
0.96
0.77
0.60
0.43
0.30
0.27
0.36
0.48
0.46
0.14
-0.54
-1.48
-2.52
-3.44
-4.14
-4.62
-4.96
-5.27
-5.64
-6.08
-6.55
-6.96
-7.26
-7.38
-7.31
-7.01
-6.49
-5.71
-4.70
-3.50
-2.21
-0.93
0.19
1.07
1.67
1.99
2.07
1.98
1.79
1.62
1.51
1.52
1.64
1.83
2.04
2.24
2.40
2.47
2.38
2.03
1.36
0.40
-0.72
-1.81
-2.71
-3.35
-3.78
-4.07
-4.31
-4.51
-4.71
-4.96
-5.37
-6.01
-6.86
-7.72
-8.29
-8.31
-7.66
-6.47
-5.04
-3.74
-2.80
-2.20
-1.75
-1.19
-0.37
0.65
1.63
2.27
2.37
1.93
1.12
0.25
-0.40
-0.65
-0.46
0.06
0.73
1.34
1.75
1.88
1.77
1.54
1.28
1.05
0.89
0.76
0.69
0.69
0.81
1.08
1.49
1.92
2.20
2.13
1.62
0.69
-0.51
-1.76
-2.85
-3.64
-4.09
-4.15
-3.81
-3.06
-1.91
-0.49
0.94
2.12
2.87
3.18
3.23
3.24
3.38
3.66
3.96
4.13
4.06
3.75
3.30
2.86
2.57
2.47
2.50
2.54
2.48
2.27
1.90
1.44
1.00
0.64
0.40
0.24
0.12
-0.01
-0.19
-0.45
-0.76
-1.09
-1.43
-1.77
-2.13
-2.57
-3.14
-3.80
-4.41
-4.75
-4.66
-4.10
-3.15
-2.03
-0.95
-0.05
0.65
1.20
1.69
2.13
2.47
2.61
2.50
2.17
1.73
1.31
0.99
0.76
0.56
0.32
0.03
-0.20
-0.25
-0.06
0.35
0.82
1.14
1.13
0.74
0.04
-0.81
-1.59
-2.14
-2.37
-2.30
-2.01
-1.64
-1.38
-1.41
-1.86
-2.80
-4.15
-5.62
-6.79
-7.20
-6.55
-4.86
-2.51
-0.06
1.98
3.33
4.06
4.39
4.55
4.59
4.47
4.11
3.56
3.02
2.70
2.74
3.03
3.33
3.35
2.97
2.31
1.58
1.07
0.90
1.02
1.24
1.33
1.14
0.65
-0.01
-0.66
-1.14
-1.38
-1.40
-1.32
-1.27
-1.39
-1.76
-2.37
-3.15
-3.98
-4.70
-5.18
-5.30
-5.02
-4.37
-3.41
-2.25
-1.00
0.22
1.32
2.22
2.86
3.26
3.42
3.41
3.26
2.97
2.59
2.16
1.77
1.52
1.45
1.51
1.59
1.58
1.42
1.13
0.82
0.55
0.36
0.20
0.01
-0.20
-0.37
-0.44
-0.40
-0.34
-0.43
-0.82
-1.57
-2.62
-3.81
-4.96
-5.85
-6.33
-6.32
-5.89
-5.19
-4.44
-3.81
-3.34
-2.94
-2.45
-1.72
-0.76
0.33
1.37
2.20
2.74
2.98
2.94
2.68
2.24
1.74
1.30
1.05
1.00
1.11
1.23
1.25
1.10
0.78
0.36
-0.12
-0.64
-1.17
-1.63
-1.94
-2.02
-1.85
-1.55
-1.27
-1.18
-1.37
-1.82
-2.45
-3.14
-3.82
-4.41
-4.85
-5.07
-5.01
-4.66
-4.08
-3.33
-2.48
-1.60
-0.75
-0.01
0.52
0.75
0.66
0.33
-0.10
-0.52
-0.89
-1.27
-1.77
-2.48
-3.41
-4.50
-5.60
-6.63
-7.51
-8.29
-9.02
-9.74
-10.44
-11.06
-11.50
-11.68
-11.54
-11.07
-10.26
-9.13
-7.69
-6.00
-4.13
-2.19
-0.27
1.54
3.19
4.67
5.98
7.17
8.27
9.32
10.29
11.14
11.76
12.11
12.21
12.14
12.03
11.90
11.73
11.40
10.83
10.03
9.09
8.16
7.41
6.87
6.53
6.32
6.14
5.94
5.63
5.16
4.49
3.69
2.86
2.18
1.73
1.54
1.51
1.51
1.44
1.21
0.83
0.29
-0.39
-1.16
-1.96
-2.70
-3.31
-3.75
-4.06
-4.25
-4.33
-4.19
-3.76
-3.00
-2.02
-0.99
-0.13
0.43
0.72
0.84
0.95
1.15
1.48
1.86
2.22
2.47
2.59
2.62
2.58
2.53
2.47
2.36
2.21
1.98
1.70
1.41
1.18
1.04
0.98
0.95
0.80
0.47
-0.08
-0.71
-1.23
-1.47
-1.37
-1.06
-0.79
-0.80
-1.20
-1.94
-2.80
-3.54
-3.98
-4.04
-3.81
-3.40
-2.95
-2.51
-2.06
-1.54
-0.91
-0.19
0.54
1.16
1.63
1.96
2.25
2.57
2.95
3.30
3.52
3.51
3.28
2.92
2.56
2.32
2.25
2.30
2.41
2.45
2.35
2.06
1.60
1.03
0.43
-0.11
-0.56
-0.88
-1.10
-1.24
-1.35
-1.48
-1.68
-2.02
-2.53
-3.19
-3.93
-4.65
-5.17
-5.37
-5.16
-4.62
-3.90
-3.22
-2.69
-2.33
-2.04
-1.68
-1.18
-0.56
0.12
0.79
1.41
1.95
2.38
2.65
2.68
2.46
2.03
1.48
0.90
0.36
-0.10
-0.42
-0.54
-0.40
-0.06
0.35
0.62
0.62
0.36
-0.01
-0.30
-0.38
-0.31
-0.25
-0.38
-0.80
-1.45
-2.15
-2.74
-3.12
-3.33
-3.45
-3.55
-3.60
-3.52
-3.18
-2.53
-1.65
-0.68
0.21
0.91
1.41
1.76
2.04
2.32
2.61
2.88
3.08
3.17
3.12
3.01
2.89
2.84
2.87
2.94
2.93
2.78
2.45
2.02
1.61
1.30
1.12
0.95
0.65
0.11
-0.62
-1.41
-2.01
-2.25
-2.08
-1.64
-1.19
-1.00
-1.21
-1.79
-2.59
-3.38
-3.97
-4.28
-4.29
-3.99
-3.39
-2.46
-1.22
0.20
1.62
2.82
3.67
4.12
4.30
4.36
4.39
4.38
4.25
3.90
3.32
2.62
2.00
1.58
1.38
1.25
1.00
0.53
-0.05
-0.53
-0.68
-0.42
0.12
0.64
0.88
0.73
0.29
-0.21
-0.57
-0.69
-0.62
-0.51
-0.47
-0.55
-0.76
-1.04
-1.39
-1.81
-2.29
-2.82
-3.29
-3.59
-3.56
-3.13
-2.29
-1.14
0.12
1.27
2.10
2.50
2.52
2.33
2.16
2.17
2.41
2.74
2.92
2.74
2.13
1.19
0.16
-0.66
-1.09
-1.12
-0.88
-0.58
-0.39
-0.39
-0.57
-0.89
-1.27
-1.64
-1.89
-1.95
-1.76
-1.34
-0.79
-0.30
-0.02
-0.07
-0.53
-1.38
-2.52
-3.79
-4.95
-5.74
-5.97
-5.58
-4.72
-3.65
-2.60
-1.71
-0.95
-0.24
0.45
1.07
1.51
1.73
1.80
1.88
2.11
2.51
2.93
3.15
3.02
2.53
1.84
1.15
0.62
0.26
0.02
-0.15
-0.23
-0.15
0.15
0.62
1.10
1.43
1.51
1.36
1.10
0.80
0.47
0.03
-0.61
-1.44
-2.36
-3.22
-3.87
-4.32
-4.65
-4.97
-5.29
-5.50
-5.44
-4.97
-4.10
-2.98
-1.83
-0.87
-0.18
0.25
0.53
0.74
0.92
1.08
1.14
1.08
0.91
0.71
0.61
0.68
0.92
1.23
1.51
1.69
1.77
1.82
1.91
2.04
2.17
2.20
2.09
1.89
1.72
1.74
2.01
2.46
2.90
3.10
2.94
2.41
1.65
0.83
0.09
-0.52
-1.00
-1.34
-1.46
-1.26
-0.67
0.23
1.22
2.02
2.43
2.43
2.21
2.02
2.08
2.49
3.14
3.79
4.18
4.14
3.68
2.95
2.15
1.45
0.91
0.54
0.32
0.27
0.42
0.73
1.05
1.23
1.12
0.72
0.19
-0.28
-0.58
-0.75
-0.92
-1.19
-1.58
-2.01
-2.41
-2.81
-3.28
-3.86
-4.44
-4.80
-4.72
-4.10
-3.09
-2.00
-1.10
-0.49
-0.08
0.30
0.79
1.37
1.92
2.31
2.49
2.52
2.47
2.41
2.34
2.24
2.08
1.84
1.48
0.94
0.19
-0.71
-1.58
-2.15
-2.24
-1.84
-1.14
-0.43
0.03
0.18
0.11
-0.05
-0.19
-0.33
-0.56
-0.92
-1.39
-1.86
-2.23
-2.45
-2.55
-2.63
-2.77
-2.95
-3.12
-3.10
-2.80
-2.15
-1.25
-0.26
0.62
1.26
1.65
1.86
2.00
2.11
2.16
2.06
1.71
1.07
0.19
-0.82
-1.78
-2.55
-3.06
-3.33
-3.44
-3.56
-3.79
-4.17
-4.68
-5.24
-5.83
-6.45
-7.12
-7.81
-8.46
-9.05
-9.59
-10.20
-11.04
-12.21
-13.67
-15.23
-16.55
-17.32
-17.36
-16.63
-15.27
-13.49
-11.53
-9.56
-7.61
-5.66
-3.59
-1.29
1.30
4.13
7.02
9.74
11.99
13.52
14.20
14.03
13.18
11.96
10.65
9.49
8.57
7.80
7.04
6.10
4.91
3.55
2.19
0.98
-0.01
-0.83
-1.67
-2.73
-4.13
-5.85
-7.75
-9.60
-11.20
-12.44
-13.41
-14.30
-15.36
-16.81
-18.70
-20.98
-23.57
-26.49
-29.64
-32.71
-35.02
-35.69
-34.07
-30.06
-24.30
-17.83
-11.49
-5.36
1.22
9.17
18.85
29.62
39.95
48.20
53.44
55.84
56.48
56.56
56.84
57.39
57.89
58.16
58.43
59.27
61.12
63.73
66.01
66.29
63.00
55.27
43.39
28.70
13.16
-1.25
-13.12
-21.79
-27.37
-30.41
-31.55
-31.35
-30.18
-28.34
-26.17
-24.09
-22.49
-21.56
-21.15
-20.78
-19.86
-18.02
-15.26
-11.96
-8.73
-6.12
-4.36
-3.35
-2.72
-2.10
-1.24
-0.14
1.01
1.96
2.57
2.86
3.00
3.19
3.54
4.03
4.58
5.03
5.35
5.52
5.59
5.56
5.46
5.35
5.32
5.53
5.98
6.50
6.72
6.18
4.52
1.67
-2.13
-6.37
-10.48
-13.99
-16.63
-18.32
-19.16
-19.28
-18.86
-18.09
-17.12
-16.09
-15.06
-14.08
-13.06
-11.90
-10.49
-8.83
-7.05
-5.44
-4.34
-4.02
-4.49
-5.42
-6.30
-6.60
-6.04
-4.71
-2.97
-1.33
-0.17
0.35
0.30
-0.15
-0.80
-1.52
-2.20
-2.71
-2.97
-2.89
-2.52
-1.97
-1.43
-1.05
-0.83
-0.75
-0.68
-0.54
-0.29
0.05
0.43
0.81
1.19
1.56
1.90
2.17
2.31
2.31
2.19
2.01
1.87
1.77
1.67
1.51
1.22
0.83
0.46
0.23
0.19
0.29
0.39
0.35
0.12
-0.26
-0.67
-1.01
-1.27
-1.50
-1.76
-2.05
-2.31
-2.42
-2.34
-2.13
-1.94
-1.95
-2.20
-2.65
-3.09
-3.31
-3.16
-2.58
-1.66
-0.57
0.52
1.46
2.19
2.73
3.13
3.42
3.58
3.56
3.31
2.83
2.24
1.69
1.32
1.21
1.31
1.47
1.51
1.33
0.95
0.51
0.18
0.12
0.35
0.79
1.29
1.67
1.79
1.59
1.05
0.26
-0.63
-1.40
-1.85
-1.84
-1.39
-0.71
-0.09
0.20
0.03
-0.56
-1.38
-2.20
-2.85
-3.22
-3.28
-3.02
-2.46
-1.63
-0.62
0.41
1.30
1.93
2.27
2.34
2.24
2.04
1.82
1.66
1.58
1.61
1.68
1.70
1.58
1.30
0.99
0.79
0.88
1.27
1.80
2.23
2.33
2.03
1.43
0.76
0.24
-0.01
0.02
0.20
0.34
0.29
-0.06
-0.66
-1.39
-2.09
-2.57
-2.75
-2.61
-2.23
-1.68
-1.08
-0.47
0.11
0.67
1.24
1.82
2.38
2.82
3.05
3.02
2.77
2.43
2.13
1.95
1.83
1.69
1.50
1.32
1.30
1.55
2.05
2.60
2.95
2.94
2.58
2.05
1.57
1.24
1.02
0.75
0.26
-0.47
-1.29
-2.01
-2.45
-2.57
-2.47
-2.31
-2.20
-2.14
-2.05
-1.82
-1.40
-0.84
-0.21
0.43
1.05
1.64
2.15
2.52
2.68
2.66
2.55
2.48
2.52
2.64
2.70
2.59
2.29
1.88
1.48
1.17
0.94
0.72
0.48
0.23
-0.00
-0.18
-0.30
-0.40
-0.52
-0.63
-0.69
-0.66
-0.55
-0.45
-0.50
-0.80
-1.41
-2.24
-3.15
-3.93
-4.42
-4.54
-4.32
-3.88
-3.38
-2.96
-2.70
-2.64
-2.75
-2.91
-3.00
-2.89
-2.52
-1.92
-1.26
-0.71
-0.42
-0.43
-0.65
-0.93
-1.14
-1.23
-1.21
-1.14
-1.10
-1.18
-1.44
-1.90
-2.42
-2.73
-2.50
-1.47
0.33
2.58
4.74
6.31
7.11
7.28
7.21
7.26
7.51
7.77
7.70
7.06
5.91
4.55
3.33
2.47
1.96
1.58
1.13
0.59
0.13
-0.01
0.33
1.03
1.80
2.29
2.32
1.97
1.47
1.11
1.02
1.17
1.41
1.58
1.61
1.52
1.37
1.25
1.24
1.38
1.63
1.87
1.93
1.65
0.99
0.10
-0.74
-1.24
-1.30
-1.00
-0.56
-0.24
-0.16
-0.29
-0.50
-0.62
-0.57
-0.36
-0.02
0.33
0.60
0.73
0.67
0.48
0.27
0.22
0.46
1.12
2.17
3.52
4.99
6.37
7.50
8.32
8.86
9.27
9.71
10.29
11.06
11.97
12.93
13.78
14.38
14.65
14.61
14.46
14.50
15.03
16.16
17.64
18.79
18.75
16.78
12.75
7.29
1.69
-2.66
-4.91
-5.18
-4.51
-4.34
-5.72
-8.82
-12.94
-16.93
-19.87
-21.26
-20.87
-18.63
-14.71
-9.90
-5.80
-4.36
-6.82
-12.58
-18.87
-21.70
-17.73
-6.08
10.94
28.68
42.08
47.71
44.70
34.44
19.48
2.29
-15.23
-31.73
-45.98
-56.69
-62.55
-62.66
-57.10
-47.18
-35.27
-24.03
-15.58
-10.77
-9.09
-9.30
-10.17
-11.19
-12.59
-14.89
-18.12
-21.40
-23.16
-21.82
-16.73
-8.69
0.28
7.81
12.13
12.83
10.82
7.80
5.34
4.32
4.72
6.00
7.59
9.28
11.18
13.46
16.00
18.26
19.56
19.44
17.94
15.61
13.21
11.30
10.05
9.30
8.78
8.30
7.91
7.74
7.87
8.24
8.67
8.95
8.96
8.67
8.07
7.17
5.97
4.54
3.04
1.71
0.76
0.29
0.19
0.16
-0.17
-1.12
-2.81
-5.17
-7.90
-10.60
-12.85
-14.30
-14.73
-14.07
-12.45
-10.13
-7.51
-5.00
-2.87
-1.24
0.01
1.10
2.27
3.61
5.06
6.46
7.64
8.58
9.37
10.20
11.24
12.57
14.14
15.84
17.55
19.27
21.09
23.16
25.56
28.25
31.14
34.08
36.92
39.48
41.49
42.52
42.11
39.91
35.93
30.73
25.30
20.75
17.91
16.96
17.56
19.17
21.30
23.70
26.16
28.29
29.46
29.03
26.65
22.57
17.57
12.53
7.76
2.91
-2.67
-9.33
-16.72
-24.11
-30.80
-36.61
-41.76
-46.45
-50.27
-52.20
-51.22
-47.06
-41.20
-35.99
-33.64
-35.06
-39.45
-44.71
-48.39
-48.70
-44.96
-38.50
-31.16
-24.66
-20.11
-17.88
-17.70
-18.88
-20.57
-21.89
-23.49
-26.05
-29.86
-34.78
-40.55
-47.22
-55.24
-65.25
-77.09
-90.68
-103.81
-112.90
-114.87
-109.38
-99.90
-92.48
-93.38
-95.35
-91.99
-78.84
-56.23
-28.76
-2.52
17.46
29.46
35.10
38.63
42.70
48.23
53.88
56.97
55.03
45.32
29.14
9.13
-10.68
-26.64
-35.02
-33.25
-21.19
-1.95
18.72
34.67
41.44
38.41
27.80
13.80
0.94
-6.43
-5.81
2.33
14.71
26.51
34.23
36.76
35.79
34.57
36.17
41.93
51.18
62.39
72.24
78.52
81.78
84.69
88.32
90.62
88.18
79.36
65.47
50.30
38.31
32.69
34.22
41.19
50.32
57.53
60.30
55.14
40.75
19.01
-5.61
-27.79
-43.58
-51.70
-53.66
-52.55
-51.52
-51.91
-53.02
-53.18
-51.26
-47.59
-43.43
-40.11
-38.12
-36.96
-35.12
-30.92
-23.59
-13.78
-3.35
5.47
10.95
12.51
10.84
7.62
4.83
3.93
5.25
7.91
10.29
10.80
8.66
4.29
-0.86
-5.05
-7.20
-7.34
-6.51
-6.09
-6.97
-9.00
-11.02
-11.52
-9.53
-5.13
0.49
5.66
9.06
10.31
10.10
9.66
10.00
11.31
13.02
14.24
14.49
14.00
13.51
13.68
14.49
15.21
14.82
12.72
9.08
4.86
1.28
-0.73
-0.96
0.13
1.74
3.21
4.23
4.91
5.64
6.78
8.49
10.58
12.56
13.88
14.14
13.23
11.35
8.85
6.16
3.66
1.65
0.36
-0.09
0.19
0.77
1.02
0.33
-1.58
-4.40
-7.34
-9.49
-10.27
-9.75
-8.56
-7.53
-7.19
-7.52
-8.02
-8.09
-7.38
-6.02
-4.45
-3.14
-2.33
-1.90
-1.60
-1.20
-0.72
-0.33
-0.19
-0.34
-0.67
-0.99
-1.18
-1.14
-0.81
-0.12
0.92
2.10
2.97
3.02
1.94
-0.06
-2.20
-3.47
-3.18
-1.31
1.42
4.02
5.78
6.74
7.54
8.93
11.22
13.89
15.76
15.60
12.72
7.40
0.83
-5.45
-10.13
-12.61
-13.07
-12.22
-10.81
-9.38
-8.05
-6.68
-5.09
-3.29
-1.55
-0.34
-0.07
-0.95
-2.84
-5.35
-7.99
-10.41
-12.41
-13.94
-14.92
-15.18
-14.51
-12.75
-9.90
-6.29
-2.44
1.12
3.95
5.82
6.77
7.00
6.76
6.35
5.99
5.85
6.05
6.62
7.49
8.44
9.11
9.14
8.34
6.84
5.12
3.80
3.32
3.67
4.38
4.76
4.28
2.86
0.86
-1.11
-2.54
-3.27
-3.42
-3.25
-2.91
-2.38
-1.57
-0.50
0.58
1.27
1.21
0.28
-1.29
-3.03
-4.40
-5.05
-4.88
-4.07
-2.94
-1.78
-0.72
0.25
1.23
2.30
3.43
4.50
5.29
5.62
5.42
4.77
3.85
2.88
1.99
1.23
0.63
0.25
0.19
0.50
1.06
1.58
1.67
1.06
-0.19
-1.69
-2.90
-3.47
-3.45
-3.28
-3.57
-4.69
-6.66
-9.13
-11.61
-13.71
-15.23
-16.08
-16.19
-15.49
-13.99
-11.95
-9.81
-8.00
-6.77
-6.07
-5.58
-4.97
-4.01
-2.68
-0.97
1.19
3.95
7.38
11.29
15.10
18.04
19.46
19.19
17.59
15.42
13.40
11.90
10.87
9.95
8.83
7.42
5.96
4.85
4.40
4.67
5.46
6.40
7.12
7.42
7.28
6.85
6.28
5.68
4.99
4.10
2.89
1.33
-0.45
-2.24
-3.85
-5.22
-6.42
-7.60
-8.85
-10.10
-11.20
-11.99
-12.45
-12.75
-13.11
-13.71
-14.51
-15.29
-15.82
-15.97
-15.79
-15.34
-14.45
-12.81
-10.18
-6.66
-2.70
1.28
5.24
9.71
15.40
22.66
30.95
38.90
44.73
47.02
45.21
39.78
31.93
23.07
14.42
6.68
0.10
-5.42
-10.07
-13.90
-16.66
-17.93
-17.38
-15.09
-11.65
-7.92
-4.60
-1.87
0.57
3.28
6.57
10.34
14.08
17.06
18.63
18.47
16.57
13.21
8.94
4.40
0.23
-3.01
-5.08
-5.96
-5.91
-5.24
-4.25
-3.10
-1.83
-0.48
0.91
2.24
3.43
4.49
5.49
6.51
7.55
8.44
8.94
8.87
8.18
7.08
5.86
4.82
4.09
3.64
3.29
2.89
2.33
1.60
0.79
0.04
-0.51
-0.77
-0.69
-0.31
0.25
0.81
1.20
1.37
1.34
1.27
1.30
1.53
1.93
2.37
2.71
2.84
2.73
2.41
1.91
1.28
0.52
-0.28
-1.01
-1.46
-1.49
-1.04
-0.26
0.56
1.13
1.29
1.13
0.90
0.86
1.11
1.53
1.89
2.00
1.87
1.67
1.59
1.60
1.49
0.95
-0.18
-1.80
-3.48
-4.71
-5.11
-4.63
-3.59
-2.42
-1.44
-0.73
-0.18
0.42
1.23
2.25
3.25
3.89
3.91
3.28
2.22
1.14
0.47
0.70
1.97
3.91
5.73
6.71
6.53
5.48
4.27
3.62
4.48
7.14
11.02
14.89
17.53
18.36
17.64
16.22
15.05
15.55
18.39
23.04
27.91
31.33
32.43
31.47
29.59
28.36
30.05
36.16
46.43
58.89
70.83
79.86
84.20
82.76
69.08
40.86
2.46
-36.01
-64.97
-80.56
-85.09
-84.18
-82.80
-83.15
-83.98
-82.94
-78.65
-71.78
-64.05
-57.09
-51.63
-47.31
-43.16
-37.70
-30.27
-21.55
-13.24
-7.03
-3.91
-3.91
-6.14
-9.03
-10.08
-6.84
1.81
14.80
28.99
40.39
45.73
43.97
36.70
27.51
20.11
16.44
15.84
15.68
12.91
5.63
-6.11
-20.49
-34.62
-45.58
-51.40
-51.41
-46.24
-37.42
-26.90
-16.54
-7.68
-0.94
3.73
6.78
8.63
9.43
9.01
7.17
4.15
0.79
-1.74
-2.38
-0.72
2.92
7.81
13.12
18.11
22.08
24.14
23.34
19.04
11.47
1.88
-7.68
-15.29
-19.83
-21.46
-21.22
-20.28
-19.31
-18.23
-16.55
-13.98
-10.74
-7.47
-4.83
-2.96
-1.31
1.17
5.46
11.81
19.34
26.28
30.71
31.41
28.36
22.63
15.85
9.46
4.27
0.41
-2.31
-4.03
-4.79
-4.61
-3.80
-2.97
-2.82
-3.81
-5.93
-8.72
-11.55
-13.84
-15.21
-15.59
-15.11
-14.08
-12.85
-11.73
-10.91
-10.38
-10.02
-9.61
-8.98
-8.01
-6.63
-4.83
-2.67
-0.37
1.70
3.11
3.55
3.03
1.90
0.73
-0.02
-0.09
0.46
1.40
2.49
3.62
4.74
5.77
6.57
6.93
6.69
5.79
4.35
2.67
1.09
-0.07
-0.64
-0.62
-0.22
0.23
0.33
-0.21
-1.40
-2.97
-4.47
-5.42
-5.58
-5.01
-4.06
-3.18
-2.71
-2.70
-2.95
-3.14
-3.14
-3.01
-3.00
-3.28
-3.78
-4.15
-3.95
-2.91
-1.08
1.14
3.16
4.46
4.77
4.18
3.02
1.77
0.75
0.12
-0.23
-0.52
-0.94
-1.49
-1.98
-2.17
-1.93
-1.36
-0.77
-0.50
-0.71
-1.32
-2.06
-2.61
-2.80
-2.63
-2.26
-1.88
-1.65
-1.55
-1.42
-1.09
-0.47
0.28
0.77
0.58
-0.47
-2.15
-3.87
-4.96
-5.03
-4.18
-2.90
-1.78
-1.16
-0.91
-0.69
-0.11
0.88
2.00
2.79
2.91
2.29
1.19
0.06
-0.65
-0.69
-0.02
1.15
2.49
3.63
4.25
4.19
3.51
2.44
1.29
0.31
-0.43
-0.94
-1.25
-1.32
-1.05
-0.42
0.40
1.05
1.15
0.50
-0.72
-2.03
-2.87
-2.88
-2.05
-0.70
0.67
1.58
1.76
1.18
0.04
-1.23
-2.18
-2.45
-1.96
-0.91
0.28
1.23
1.75
1.89
1.86
1.78
1.64
1.36
0.87
0.26
-0.28
-0.58
-0.53
-0.22
0.16
0.43
0.49
0.34
0.10
-0.08
-0.12
-0.04
0.03
-0.08
-0.48
-1.08
-1.67
-1.99
-2.00
-1.95
-2.19
-3.00
-4.27
-5.55
-6.28
-6.11
-5.11
-3.67
-2.24
-1.13
-0.38
0.16
0.59
0.93
1.11
1.12
1.04
1.07
1.36
1.95
2.71
3.40
3.82
3.81
3.36
2.54
1.53
0.55
-0.19
-0.52
-0.44
-0.10
0.24
0.39
0.33
0.21
0.23
0.51
0.97
1.37
1.54
1.50
1.44
1.57
1.96
2.44
2.81
2.95
2.96
3.04
3.28
3.54
3.57
3.24
2.72
2.48
3.00
4.40
6.29
7.94
8.62
8.04
6.46
4.49
2.73
1.46
0.61
-0.08
-0.76
-1.35
-1.55
-1.08
0.07
1.57
2.89
3.57
3.49
2.86
2.11
1.60
1.43
1.41
1.25
0.75
-0.06
-0.88
-1.36
-1.24
-0.48
0.65
1.68
2.14
1.70
0.40
-1.39
-3.13
-4.29
-4.68
-4.46
-4.03
-3.76
-3.77
-3.88
-3.72
-3.06
-1.96
-0.80
-0.05
-0.04
-0.76
-1.91
-3.05
-3.83
-4.08
-3.86
-3.36
-2.79
-2.35
-2.15
-2.23
-2.54
-2.93
-3.18
-3.08
-2.57
-1.73
-0.84
-0.22
-0.09
-0.49
-1.26
-2.13
-2.80
-3.09
-2.98
-2.57
-2.08
-1.75
-1.71
-1.99
-2.46
-2.87
-2.99
-2.70
-2.00
-1.05
-0.06
0.80
1.43
1.78
1.87
1.74
1.43
1.07
0.86
0.93
1.27
1.72
2.03
2.02
1.68
1.17
0.71
0.45
0.46
0.64
0.89
1.18
1.52
1.90
2.26
2.45
2.30
1.79
1.09
0.47
0.13
0.13
0.30
0.44
0.39
0.15
-0.18
-0.50
-0.80
-1.13
-1.50
-1.82
-1.89
-1.54
-0.75
0.31
1.35
2.10
2.43
2.40
2.18
1.97
1.95
2.20
2.68
3.21
3.51
3.36
2.67
1.64
0.67
0.16
0.33
1.06
1.94
2.53
2.53
1.96
1.09
0.27
-0.25
-0.43
-0.38
-0.28
-0.23
-0.23
-0.19
-0.04
0.19
0.38
0.40
0.15
-0.31
-0.82
-1.21
-1.38
-1.32
-1.13
-0.89
-0.59
-0.21
0.29
0.89
1.49
1.97
2.27
2.36
2.31
2.16
1.95
1.67
1.33
0.97
0.66
0.45
0.39
0.47
0.66
0.93
1.19
1.38
1.41
1.25
0.88
0.38
-0.11
-0.44
-0.50
-0.22
0.34
1.01
1.59
1.90
1.95
1.84
1.72
1.68
1.63
1.40
0.86
0.03
-0.85
-1.49
-1.66
-1.39
-0.88
-0.43
-0.24
-0.37
-0.73
-1.13
-1.40
-1.37
-1.00
-0.37
0.34
0.86
1.01
0.75
0.25
-0.25
-0.49
-0.41
-0.13
0.13
0.17
-0.01
-0.31
-0.56
-0.61
-0.43
-0.08
0.39
0.88
1.30
1.52
1.42
0.94
0.10
-0.94
-1.99
-2.86
-3.45
-3.77
-3.93
-4.09
-4.28
-4.46
-4.45
-4.04
-3.20
-2.05
-0.97
-0.31
-0.27
-0.78
-1.50
-2.07
-2.28
-2.12
-1.75
-1.32
-0.88
-0.40
0.14
0.68
1.05
1.12
0.89
0.50
0.19
0.19
0.56
1.15
1.67
1.83
1.49
0.73
-0.15
-0.81
-1.06
-0.96
-0.78
-0.79
-1.09
-1.54
-1.84
-1.76
-1.30
-0.71
-0.31
-0.34
-0.77
-1.36
-1.82
-1.93
-1.65
-1.10
-0.47
0.13
0.67
1.22
1.81
2.42
2.89
3.06
2.82
2.27
1.66
1.29
1.38
1.84
2.43
2.78
2.64
1.96
0.94
-0.11
-0.89
-1.19
-0.99
-0.38
0.41
1.09
1.44
1.34
0.88
0.30
-0.15
-0.34
-0.32
-0.27
-0.35
-0.61
-1.02
-1.46
-1.86
-2.17
-2.37
-2.46
-2.38
-2.11
-1.66
-1.08
-0.40
0.39
1.29
2.23
3.04
3.47
3.32
2.62
1.62
0.69
0.13
-0.03
0.03
0.00
-0.27
-0.74
-1.15
-1.24
-0.90
-0.24
0.46
0.91
1.00
0.80
0.53
0.38
0.46
0.73
1.04
1.26
1.30
1.19
1.01
0.86
0.82
0.88
0.92
0.80
0.39
-0.30
-1.15
-1.95
-2.47
-2.58
-2.28
-1.73
-1.06
-0.41
0.19
0.70
1.08
1.23
1.10
0.72
0.21
-0.21
-0.37
-0.22
0.11
0.43
0.58
0.52
0.35
0.25
0.38
0.76
1.34
1.98
2.56
3.02
3.34
3.52
3.58
3.46
3.14
2.61
1.93
1.25
0.75
0.58
0.79
1.22
1.62
1.72
1.40
0.77
0.14
-0.20
-0.19
0.01
0.06
-0.27
-0.94
-1.67
-2.07
-1.93
-1.30
-0.48
0.21
0.59
0.68
0.58
0.37
0.01
-0.60
-1.53
-2.67
-3.76
-4.47
-4.55
-4.01
-3.12
-2.25
-1.76
-1.78
-2.18
-2.68
-2.95
-2.83
-2.33
-1.71
-1.26
-1.15
-1.38
-1.73
-1.95
-1.89
-1.60
-1.30
-1.25
-1.57
-2.17
-2.75
-2.98
-2.68
-1.89
-0.89
0.01
0.61
0.89
0.95
0.94
0.90
0.82
0.64
0.35
-0.01
-0.34
-0.52
-0.47
-0.21
0.19
0.59
0.84
0.87
0.69
0.41
0.18
0.14
0.33
0.68
1.05
1.33
1.48
1.56
1.62
1.64
1.53
1.23
0.71
0.09
-0.51
-0.99
-1.31
-1.51
-1.63
-1.69
-1.63
-1.41
-1.01
-0.52
-0.06
0.24
0.34
0.25
0.12
0.03
0.04
0.08
0.06
-0.07
-0.26
-0.39
-0.35
-0.13
0.16
0.32
0.24
-0.04
-0.33
-0.42
-0.20
0.27
0.80
1.19
1.28
1.06
0.63
0.12
-0.33
-0.59
-0.63
-0.48
-0.26
-0.07
0.01
-0.03
-0.11
-0.20
-0.30
-0.53
-1.01
-1.73
-2.57
-3.24
-3.47
-3.11
-2.25
-1.14
-0.08
0.75
1.32
1.73
2.05
2.26
2.23
1.83
1.14
0.44
0.10
0.34
1.10
2.02
2.60
2.55
1.88
0.92
0.09
-0.31
-0.22
0.24
0.87
1.53
2.16
2.68
2.98
2.93
2.43
1.57
0.59
-0.18
-0.51
-0.36
0.12
0.65
0.96
0.91
0.48
-0.23
-1.04
-1.75
-2.18
-2.21
-1.81
-1.06
-0.11
0.85
1.68
2.31
2.70
2.85
2.78
2.51
2.13
1.76
1.52
1.46
1.55
1.71
1.85
1.97
2.11
2.29
2.49
2.58
2.42
1.97
1.34
0.78
0.53
0.70
1.19
1.74
2.07
2.04
1.72
1.37
1.26
1.52
2.04
2.50
2.56
2.03
1.00
-0.19
-1.18
-1.73
-1.79
-1.56
-1.24
-0.97
-0.77
-0.58
-0.37
-0.13
0.13
0.38
0.62
0.85
1.06
1.25
1.40
1.49
1.50
1.36
1.01
0.48
-0.11
-0.55
-0.68
-0.47
-0.10
0.17
0.09
-0.40
-1.17
-1.99
-2.69
-3.16
-3.41
-3.48
-3.38
-3.18
-2.99
-2.98
-3.29
-3.98
-4.95
-5.98
-6.78
-7.12
-6.89
-6.09
-4.89
-3.52
-2.30
-1.48
-1.19
-1.36
-1.76
-2.04
-1.92
-1.31
-0.29
0.87
1.89
2.55
2.76
2.58
2.17
1.71
1.35
1.17
1.18
1.35
1.57
1.73
1.75
1.63
1.42
1.25
1.24
1.38
1.56
1.60
1.37
0.88
0.28
-0.23
-0.48
-0.46
-0.29
-0.20
-0.40
-0.95
-1.75
-2.54
-3.01
-2.94
-2.28
-1.27
-0.27
0.33
0.33
-0.23
-1.09
-1.95
-2.60
-2.97
-3.08
-3.02
-2.82
-2.47
-1.97
-1.38
-0.78
-0.27
0.11
0.40
0.65
0.89
1.07
1.15
1.08
0.91
0.71
0.52
0.37
0.20
-0.04
-0.34
-0.67
-0.92
-1.06
-1.15
-1.30
-1.63
-2.15
-2.74
-3.15
-3.21
-2.86
-2.21
-1.46
-0.77
-0.21
0.31
0.93
1.71
2.56
3.21
3.39
2.94
1.95
0.75
-0.29
-0.85
-0.87
-0.47
0.05
0.39
0.40
0.11
-0.30
-0.60
-0.60
-0.28
0.18
0.56
0.65
0.41
-0.03
-0.42
-0.56
-0.39
-0.03
0.31
0.47
0.39
0.16
-0.11
-0.37
-0.64
-1.01
-1.51
-2.03
-2.35
-2.28
-1.78
-1.02
-0.28
0.21
0.42
0.54
0.82
1.39
2.10
2.64
2.67
2.06
0.98
-0.13
-0.81
-0.77
-0.06
0.99
1.97
2.56
2.67
2.42
2.04
1.71
1.53
1.41
1.24
0.91
0.42
-0.10
-0.46
-0.55
-0.36
-0.06
0.07
-0.16
-0.80
-1.69
-2.51
-2.96
-2.89
-2.38
-1.67
-1.03
-0.64
-0.53
-0.57
-0.58
-0.39
0.05
0.66
1.28
1.70
1.86
1.76
1.53
1.29
1.10
0.93
0.74
0.51
0.30
0.18
0.24
0.44
0.69
0.89
0.99
1.00
0.99
1.02
1.10
1.22
1.33
1.41
1.44
1.41
1.33
1.20
1.03
0.83
0.60
0.33
-0.01
-0.47
-1.05
-1.68
-2.20
-2.43
-2.24
-1.63
-0.76
0.12
0.78
1.11
1.14
1.03
0.98
1.06
1.25
1.40
1.40
1.19
0.85
0.55
0.42
0.48
0.63
0.66
0.45
0.08
-0.26
-0.30
0.11
0.86
1.65
2.18
2.31
2.10
1.79
1.51
1.25
0.82
0.05
-1.03
-2.11
-2.79
-2.78
-2.12
-1.20
-0.54
-0.50
-1.16
-2.24
-3.29
-3.88
-3.79
-3.02
-1.81
-0.53
0.47
0.93
0.83
0.32
-0.32
-0.83
-1.09
-1.15
-1.13
-1.11
-1.07
-0.84
-0.30
0.56
1.54
2.30
2.55
2.18
1.38
0.53
0.04
0.18
0.97
2.18
3.49
4.50
4.94
4.67
3.77
2.50
1.29
0.62
0.80
1.81
3.20
4.23
4.22
2.91
0.61
-1.82
-3.48
-3.69
-2.46
-0.42
1.50
2.61
2.77
2.47
2.54
3.67
6.14
9.45
12.55
14.29
14.00
11.83
8.77
6.26
5.69
7.98
12.72
18.20
22.10
22.53
18.65
10.80
0.19
-11.49
-22.01
-29.80
-34.16
-35.28
-34.01
-31.55
-28.97
-26.57
-23.49
-17.23
-6.23
9.08
25.94
40.21
47.75
45.63
32.76
9.13
-21.17
-51.54
-76.00
-92.60
-103.27
-111.13
-117.73
-121.94
-123.51
-116.67
-97.07
-63.80
-19.88
28.65
74.16
109.45
130.02
132.36
118.60
94.34
66.52
40.76
19.95
4.44
-6.65
-14.20
-18.71
-19.97
-18.75
-16.18
-12.87
-7.99
0.27
13.08
29.24
44.92
55.86
59.77
58.08
54.89
54.74
60.30
71.29
84.76
96.09
100.20
93.42
74.73
45.96
12.07
-19.92
-43.52
-56.23
-61.62
-68.05
-82.82
-106.93
-134.14
-153.45
-154.53
-132.66
-91.08
-35.40
20.10
59.58
76.60
77.27
73.67
74.77
83.32
97.22
112.54
125.21
132.56
135.20
131.04
116.96
90.51
52.45
7.47
-37.44
-73.85
-95.33
-100.97
-94.91
-83.31
-71.65
-62.69
-56.58
-52.41
-49.20
-46.67
-44.41
-43.44
-43.46
-45.27
-50.27
-59.34
-71.90
-84.39
-91.17
-85.41
-62.29
-22.99
23.97
65.94
91.21
93.37
73.66
37.74
-7.45
-50.60
-82.53
-100.28
-105.69
-100.98
-91.24
-74.93
-52.44
-27.07
-3.33
14.39
24.55
27.41
25.66
22.59
21.05
21.33
22.41
23.21
22.54
19.64
14.74
9.30
5.17
4.20
6.23
9.66
12.04
10.81
4.68
-5.53
-17.04
-26.61
-31.80
-32.52
-30.33
-27.27
-25.05
-24.34
-25.02
-26.73
-29.60
-33.97
-40.12
-47.15
-52.65
-53.50
-47.08
-32.59
-11.66
12.29
35.40
54.78
69.45
80.16
88.36
95.15
100.65
104.13
104.30
99.69
89.11
72.02
49.21
23.15
-2.28
-23.19
-37.58
-46.59
-54.21
-65.01
-81.38
-101.52
-120.02
-130.16
-127.26
-110.71
-83.63
-50.33
-13.53
26.91
72.42
122.60
172.74
214.06
237.16
236.56
213.70
176.02
132.86
90.59
50.12
8.45
-36.96
-83.83
-124.06
-146.82
-144.20
-116.05
-71.04
-23.27
13.70
32.21
32.62
21.58
7.58
-3.25
-9.16
-12.01
-14.58
-17.90
-20.39
-18.98
-11.42
1.84
17.41
30.37
36.47
33.84
23.44
8.16
-8.80
-25.29
-40.67
-55.22
-69.06
-81.10
-88.94
-89.91
-82.47
-67.36
-47.58
-27.26
-9.96
2.61
10.82
16.46
21.71
28.25
36.76
46.88
57.28
65.97
70.86
70.68
65.73
58.22
51.74
49.97
55.16
67.16
83.23
98.92
109.38
110.89
101.99
83.82
59.70
33.98
10.57
-8.13
-21.66
-31.18
-38.66
-46.20
-55.58
-68.02
-83.99
-102.89
-122.89
-141.00
-153.78
-158.33
-153.28
-139.15
-118.05
-92.80
-66.15
