1660320873.00
64.000000
-0.00
-0.00
-0.00
-0.00
-0.00
-0.00
-0.00
-0.00
-0.00
-0.00
0.00
0.01
0.01
-0.00
-0.03
-0.05
-0.05
0.00
0.13
0.36
0.66
1.01
1.37
1.72
2.06
2.40
2.79
3.24
3.80
4.42
5.06
5.66
6.20
6.68
7.15
7.68
8.32
9.15
10.09
11.04
11.87
12.56
13.15
13.80
14.71
16.01
17.91
20.18
22.59
24.86
26.86
28.70
30.72
33.31
36.77
41.43
46.91
52.70
58.24
63.23
67.76
72.31
77.54
83.90
91.84
100.81
110.02
118.67
126.32
133.09
139.61
147.11
154.09
162.59
173.11
185.80
199.67
212.12
219.07
215.91
199.06
167.24
122.38
68.11
8.83
-51.79
-111.60
-169.88
-226.62
-281.86
-335.45
-386.63
-434.89
-479.39
-518.93
-551.77
-575.84
-589.11
-590.13
-578.46
-554.66
-520.70
-479.37
-433.59
-385.53
-335.75
-283.02
-225.05
-160.07
-88.21
-12.49
61.94
129.41
185.61
228.78
259.60
280.11
292.42
297.97
297.54
291.77
281.76
269.04
255.19
241.33
227.82
214.43
200.60
185.92
170.47
154.77
139.58
125.65
113.38
102.74
93.30
84.42
75.53
66.41
57.21
48.38
40.41
33.61
27.93
23.07
18.69
14.48
10.36
6.52
3.20
0.57
-1.39
-2.88
-4.15
-5.38
-6.61
-7.73
-8.58
-9.04
-9.07
-8.76
-8.26
-7.74
-7.35
-7.15
-7.10
-7.11
-7.10
-7.00
-6.80
-6.51
-6.16
-5.75
-5.32
-4.91
-4.53
-4.20
-3.91
-3.62
-3.30
-2.96
-2.67
-2.49
-2.45
-2.52
-2.61
-2.66
-2.66
-2.64
-2.63
-2.62
-2.58
-2.48
-2.32
-2.17
-2.09
-2.12
-2.21
-2.28
-2.26
-2.10
-1.82
-1.48
-1.11
-0.77
-0.47
-0.23
-0.10
-0.07
-0.14
-0.26
-0.37
-0.40
-0.34
-0.17
0.10
0.41
0.70
0.91
1.04
1.10
1.19
1.41
1.78
2.26
2.77
3.22
3.58
3.90
4.26
4.70
5.16
5.48
5.48
5.06
4.23
3.14
1.98
0.86
-0.17
-1.14
-2.07
-3.00
-3.87
-4.63
-5.24
-5.71
-6.06
-6.29
-6.39
-6.33
-6.09
-5.68
-5.12
-4.48
-3.81
-3.18
-2.69
-2.43
-2.42
-2.60
-2.81
-2.85
-2.64
-2.21
-1.73
-1.41
-1.35
-1.53
-1.78
-1.97
-2.00
-1.90
-1.70
-1.45
-1.15
-0.79
-0.40
-0.05
0.16
0.19
0.04
-0.24
-0.57
-0.87
-1.12
-1.28
-1.33
-1.25
-1.08
-0.88
-0.72
-0.63
-0.60
-0.56
-0.45
-0.24
0.04
0.33
0.58
0.73
0.76
0.71
0.61
0.53
0.50
0.50
0.52
0.53
0.52
0.53
0.55
0.60
0.63
0.64
0.65
0.78
1.16
1.85
2.76
3.65
4.27
4.46
4.27
3.91
3.65
3.64
3.87
4.15
4.25
3.98
3.26
2.09
0.51
-1.39
-3.48
-5.62
-7.56
-9.09
-10.03
-10.33
-10.06
-9.38
-8.47
-7.46
-6.45
-5.48
-4.59
-3.83
-3.25
-2.86
-2.62
-2.48
-2.35
-2.16
-1.88
-1.52
-1.07
-0.56
-0.02
0.56
1.14
1.71
2.24
2.68
2.95
3.00
2.80
2.38
1.83
1.27
0.78
0.45
0.30
0.32
0.43
0.55
0.56
0.44
0.20
-0.04
-0.18
-0.15
0.01
0.22
0.40
0.52
0.62
0.77
1.02
1.35
1.68
1.98
2.24
2.51
2.83
3.21
3.56
3.80
3.84
3.62
3.18
2.61
2.02
1.51
1.14
0.91
0.83
0.83
0.89
0.94
0.96
0.90
0.77
0.57
0.30
-0.01
-0.36
-0.73
-1.09
-1.39
-1.58
-1.64
-1.61
-1.59
-1.66
-1.84
-2.04
-2.14
-2.02
-1.68
-1.18
-0.64
-0.13
0.27
0.59
0.81
0.95
1.00
0.97
0.91
0.88
0.89
0.95
1.03
1.12
1.22
1.34
1.44
1.46
1.31
0.97
0.48
-0.01
-0.37
-0.49
-0.40
-0.18
0.00
0.04
-0.13
-0.47
-0.86
-1.19
-1.36
-1.36
-1.27
-1.18
-1.20
-1.34
-1.58
-1.79
-1.86
-1.76
-1.47
-1.09
-0.65
-0.18
0.32
0.84
1.29
1.56
1.59
1.40
1.13
0.94
0.96
1.16
1.44
1.63
1.69
1.66
1.66
1.76
1.93
2.05
2.02
1.81
1.52
1.25
1.04
0.87
0.64
0.32
-0.07
-0.42
-0.63
-0.68
-0.63
-0.59
-0.65
-0.85
-1.18
-1.58
-1.97
-2.28
-2.44
-2.44
-2.30
-2.07
-1.80
-1.50
-1.16
-0.74
-0.25
0.26
0.72
1.05
1.22
1.28
1.24
1.14
0.96
0.71
0.44
0.25
0.24
0.48
0.91
1.39
1.78
1.95
1.88
1.62
1.23
0.78
0.33
-0.07
-0.37
-0.55
-0.60
-0.58
-0.58
-0.67
-0.84
-1.05
-1.20
-1.25
-1.20
-1.12
-1.11
-1.24
-1.51
-1.85
-2.11
-2.20
-2.07
-1.78
-1.43
-1.11
-0.83
-0.53
-0.13
0.38
0.94
1.41
1.65
1.64
1.45
1.25
1.18
1.27
1.44
1.60
1.65
1.61
1.52
1.41
1.31
1.17
0.99
0.79
0.66
0.67
0.83
1.04
1.17
1.13
0.89
0.54
0.22
0.03
-0.00
0.09
0.22
0.30
0.26
0.06
-0.32
-0.84
-1.41
-1.95
-2.34
-2.52
-2.50
-2.32
-2.05
-1.73
-1.38
-0.99
-0.58
-0.18
0.15
0.38
0.50
0.57
0.61
0.67
0.74
0.80
0.81
0.78
0.73
0.66
0.58
0.47
0.30
0.05
-0.27
-0.60
-0.88
-1.05
-1.09
-1.06
-1.03
-1.09
-1.23
-1.40
-1.48
-1.41
-1.19
-0.91
-0.70
-0.64
-0.75
-0.94
-1.09
-1.14
-1.05
-0.86
-0.59
-0.29
0.04
0.37
0.67
0.93
1.15
1.39
1.70
2.08
2.45
2.75
2.94
3.04
3.15
3.36
3.74
4.26
4.75
5.02
4.97
4.69
4.42
4.39
4.75
5.50
6.46
7.34
7.90
8.07
8.05
8.10
8.40
9.03
9.99
11.24
12.50
13.50
14.15
14.78
15.67
17.01
18.91
21.49
24.78
28.30
31.33
33.16
33.76
32.93
30.60
26.95
22.71
18.85
15.59
12.66
9.62
6.96
4.63
2.45
0.03
-2.77
-6.11
-11.04
-18.67
-29.47
-41.90
-54.72
-67.01
-78.40
-88.55
-92.50
-86.45
-69.78
-52.00
-36.52
-24.16
-12.54
-1.03
10.52
21.90
31.92
39.48
44.20
47.73
51.36
55.89
61.38
67.72
74.57
80.73
84.84
85.73
83.43
77.64
68.18
55.35
40.50
25.65
12.41
1.56
-6.98
-13.42
-18.59
-23.19
-27.51
-31.26
-34.05
-35.99
-37.63
-39.55
-41.73
-43.92
-45.68
-46.65
-46.70
-46.03
-45.10
-44.37
-44.00
-43.77
-43.33
-42.39
-40.86
-38.86
-36.66
-34.59
-32.91
-31.69
-30.82
-30.03
-29.06
-27.76
-26.14
-24.29
-22.35
-20.41
-18.46
-16.45
-14.34
-12.11
-9.81
-7.51
-5.32
-3.37
-1.75
-0.50
0.39
0.99
1.39
1.66
1.85
1.97
2.01
2.01
2.04
2.15
2.36
2.64
2.88
2.97
2.82
2.42
1.86
1.25
0.76
0.46
0.37
0.40
0.44
0.42
0.29
0.07
-0.24
-0.68
-1.32
-2.20
-3.28
-4.40
-5.33
-5.87
-5.92
-5.55
-4.90
-4.13
-3.28
-2.36
-1.31
-0.10
1.19
2.44
3.52
4.36
4.92
5.23
5.27
5.03
4.52
3.77
2.86
1.91
1.02
0.26
-0.32
-0.70
-0.84
-0.71
-0.38
-0.02
0.15
-0.11
-0.86
-2.00
-3.22
-4.17
-4.57
-4.32
-3.48
-2.22
-0.81
0.48
1.44
1.94
2.03
1.90
1.89
2.36
3.45
5.04
6.75
8.12
8.81
8.80
8.32
7.72
7.34
7.28
7.44
7.54
7.34
6.73
5.80
4.77
3.90
3.39
3.24
3.30
3.35
3.16
2.66
1.93
1.20
0.70
0.58
0.84
1.36
1.91
2.28
2.27
1.68
0.43
-1.46
-3.74
-5.96
-7.60
-8.26
-7.85
-6.65
-5.18
-3.93
-3.18
-2.90
-2.87
-2.92
-2.99
-3.19
-3.67
-4.48
-5.51
-6.50
-7.23
-7.56
-7.52
-7.25
-6.90
-6.60
-6.34
-6.06
-5.62
-4.87
-3.68
-1.99
0.14
2.49
4.66
6.20
6.71
6.00
4.16
1.61
-1.09
-3.37
-4.87
-5.47
-5.34
-4.77
-4.05
-3.39
-2.84
-2.38
-1.97
-1.63
-1.46
-1.51
-1.79
-2.17
-2.43
-2.33
-1.70
-0.56
0.95
2.55
4.01
5.19
6.11
6.86
7.58
8.30
8.99
9.56
9.90
9.93
9.60
8.89
7.78
6.32
4.62
2.90
1.40
0.32
-0.28
-0.49
-0.48
-0.40
-0.31
-0.20
0.01
0.36
0.82
1.28
1.65
1.85
1.87
1.75
1.54
1.29
0.99
0.63
0.23
-0.15
-0.40
-0.41
-0.11
0.57
1.67
3.15
4.94
6.84
8.58
9.93
10.77
11.13
11.16
10.93
10.37
9.29
7.51
5.10
2.44
0.16
-1.19
-1.36
-0.51
0.87
2.28
3.37
4.00
4.25
4.25
4.10
3.93
3.90
4.20
5.00
6.29
7.88
9.41
10.46
10.77
10.25
8.97
7.16
5.07
2.99
1.21
0.02
-0.45
-0.25
0.29
0.68
0.44
-0.70
-2.65
-5.00
-7.20
-8.80
-9.59
-9.65
-9.18
-8.40
-7.40
-6.21
-4.84
-3.36
-1.97
-0.85
-0.11
0.29
0.49
0.64
0.82
1.07
1.46
2.10
3.12
4.54
6.18
7.73
8.86
9.39
9.40
9.10
8.73
8.35
7.88
7.16
6.13
4.90
3.65
2.54
1.55
0.52
-0.72
-2.23
-3.87
-5.38
-6.41
-6.73
-6.24
-4.98
-3.09
-0.80
1.73
4.34
6.90
9.29
11.33
12.80
13.53
13.38
12.40
10.81
8.92
7.10
5.60
4.54
3.88
3.50
3.27
3.06
2.83
2.53
2.19
1.80
1.32
0.67
-0.24
-1.43
-2.83
-4.26
-5.50
-6.36
-6.78
-6.83
-6.67
-6.49
-6.38
-6.31
-6.12
-5.63
-4.64
-3.07
-0.91
1.76
4.78
7.87
10.67
12.74
13.74
13.58
12.46
10.85
9.30
8.19
7.57
7.23
6.78
5.93
4.63
3.00
1.28
-0.35
-1.88
-3.38
-4.97
-6.68
-8.42
-9.98
-11.10
-11.56
-11.21
-9.99
-7.92
-5.07
-1.57
2.42
6.59
10.52
13.74
15.82
16.57
16.11
14.83
13.33
12.13
11.54
11.51
11.73
11.71
11.06
9.57
7.32
4.58
1.72
-0.96
-3.28
-5.23
-6.91
-8.47
-10.02
-11.61
-13.15
-14.53
-15.59
-16.24
-16.49
-16.48
-16.36
-16.23
-16.03
-15.61
-14.70
-13.07
-10.58
-7.27
-3.37
0.72
4.51
7.55
9.53
10.43
10.44
9.91
9.14
8.30
7.37
6.29
4.98
3.48
1.89
0.31
-1.23
-2.74
-4.20
-5.51
-6.48
-6.92
-6.74
-6.00
-4.95
-3.88
-3.04
-2.54
-2.31
-2.14
-1.81
-1.12
0.02
1.59
3.49
5.48
7.28
8.59
9.17
8.94
7.97
6.53
4.96
3.61
2.76
2.57
3.06
4.13
5.53
6.95
8.00
8.41
8.02
6.92
5.31
3.48
1.67
0.06
-1.32
-2.48
-3.50
-4.47
-5.50
-6.62
-7.75
-8.68
-9.05
-8.50
-6.82
-4.05
-0.61
2.81
5.44
6.72
6.56
5.30
3.59
2.08
1.12
0.66
0.36
-0.18
-1.11
-2.28
-3.32
-3.87
-3.86
-3.47
-3.09
-3.03
-3.42
-4.10
-4.81
-5.30
-5.51
-5.57
-5.73
-6.21
-7.06
-8.12
-9.09
-9.60
-9.47
-8.68
-7.41
-5.89
-4.31
-2.71
-1.11
0.48
1.96
3.19
4.09
4.70
5.21
5.80
6.57
7.47
8.35
9.05
9.48
9.64
9.54
9.11
8.26
6.90
5.00
2.68
0.13
-2.42
-4.76
-6.74
-8.27
-9.35
-10.02
-10.38
-10.54
-10.52
-10.21
-9.36
-7.68
-5.05
-1.69
1.82
4.70
6.28
6.32
5.15
3.52
2.24
1.76
2.07
2.70
3.08
2.84
1.97
0.75
-0.45
-1.40
-2.09
-2.71
-3.47
-4.44
-5.49
-6.34
-6.67
-6.32
-5.32
-3.95
-2.55
-1.39
-0.48
0.35
1.42
3.01
5.15
7.65
10.06
11.86
12.57
11.94
9.99
7.01
3.51
0.04
-2.90
-5.02
-6.22
-6.61
-6.37
-5.70
-4.78
-3.73
-2.65
-1.61
-0.72
-0.06
0.25
0.14
-0.40
-1.25
-2.22
-3.11
-3.76
-4.16
-4.44
-4.78
-5.32
-6.06
-6.94
-7.86
-8.77
-9.69
-10.56
-11.21
-11.33
-10.61
-8.93
-6.49
-3.75
-1.23
0.75
2.18
3.29
4.30
5.22
5.83
5.79
4.93
3.37
1.52
-0.14
-1.28
-1.85
-2.04
-2.10
-2.21
-2.42
-2.68
-2.89
-3.03
-3.05
-2.95
-2.68
-2.21
-1.55
-0.74
0.16
1.10
2.06
3.04
3.97
4.77
5.34
5.64
5.75
5.81
5.95
6.20
6.43
6.41
5.89
4.83
3.39
1.91
0.80
0.31
0.48
1.08
1.76
2.20
2.23
1.89
1.38
0.92
0.66
0.56
0.47
0.18
-0.44
-1.39
-2.53
-3.69
-4.69
-5.39
-5.66
-5.39
-4.48
-2.95
-1.05
0.79
2.03
2.33
1.74
0.71
-0.08
-0.08
0.83
2.31
3.78
4.70
4.88
4.47
3.83
3.26
2.87
2.59
2.32
2.01
1.76
1.69
1.82
2.10
2.42
2.73
3.12
3.78
4.92
6.60
8.71
10.94
12.91
14.27
14.76
14.28
12.90
10.89
8.61
6.43
4.61
3.20
2.03
0.81
-0.69
-2.49
-4.39
-6.04
-7.19
-7.70
-7.65
-7.23
-6.57
-5.68
-4.51
-3.06
-1.49
-0.11
0.73
0.87
0.40
-0.28
-0.68
-0.39
0.77
2.72
5.24
8.05
10.75
12.88
13.91
13.45
11.43
8.22
4.58
1.27
-1.18
-2.67
-3.42
-3.74
-3.86
-3.81
-3.66
-3.59
-3.96
-5.10
-7.10
-9.66
-12.21
-14.15
-15.13
-15.16
-14.54
-13.62
-12.62
-11.51
-10.09
-8.13
-5.56
-2.48
0.87
4.19
7.20
9.68
11.39
12.18
11.98
10.90
9.25
7.44
5.87
4.69
3.86
3.13
2.23
0.97
-0.68
-2.64
-4.82
-7.15
-9.55
-11.90
-13.93
-15.29
-15.67
-14.95
-13.33
-11.33
-9.61
-8.65
-8.65
-9.32
-10.11
-10.34
-9.47
-7.23
-3.73
0.56
4.82
8.12
9.69
9.24
7.11
4.16
1.38
-0.47
-1.21
-1.18
-0.93
-0.87
-1.09
-1.39
-1.54
-1.45
-1.21
-1.00
-0.90
-0.83
-0.59
-0.05
0.75
1.59
2.11
2.03
1.29
0.06
-1.27
-2.29
-2.71
-2.47
-1.66
-0.46
0.95
2.42
3.83
5.05
5.96
6.51
6.83
7.17
7.79
8.83
10.18
11.51
12.41
12.56
11.90
10.54
8.74
6.70
4.53
2.24
-0.18
-2.64
-4.99
-7.03
-8.57
-9.54
-9.97
-10.01
-9.80
-9.41
-8.76
-7.64
-5.87
-3.49
-0.82
1.58
3.16
3.65
3.24
2.39
1.62
1.17
0.91
0.47
-0.42
-1.73
-3.15
-4.19
-4.55
-4.19
-3.35
-2.31
-1.32
-0.43
0.41
1.21
1.93
2.41
2.44
1.87
0.68
-1.03
-3.00
-4.89
-6.41
-7.37
-7.73
-7.59
-6.98
-5.89
-4.20
-1.81
1.21
4.47
7.37
9.25
9.69
8.69
6.71
4.45
2.62
1.64
1.57
2.18
3.12
4.06
4.81
5.28
5.43
5.24
4.68
3.71
2.39
0.85
-0.69
-2.00
-2.91
-3.38
-3.54
-3.65
-3.97
-4.67
-5.71
-6.84
-7.67
-7.77
-6.84
-4.81
-1.89
1.43
4.46
6.52
7.14
6.22
4.11
1.50
-0.81
-2.26
-2.59
-1.94
-0.65
0.88
2.32
3.44
4.05
4.04
3.32
1.95
0.11
-1.89
-3.68
-4.97
-5.63
-5.69
-5.35
-4.82
-4.28
-3.76
-3.14
-2.22
-0.80
1.23
3.76
6.49
8.97
10.74
11.42
10.84
9.07
6.39
3.23
0.01
-2.90
-5.22
-6.81
-7.57
-7.51
-6.72
-5.43
-3.95
-2.63
-1.73
-1.36
-1.46
-1.87
-2.38
-2.87
-3.27
-3.59
-3.90
-4.29
-4.84
-5.55
-6.35
-7.06
-7.51
-7.51
-6.98
-5.87
-4.23
-2.22
-0.11
1.69
2.78
2.89
2.05
0.67
-0.67
-1.44
-1.45
-0.91
-0.28
0.04
-0.08
-0.46
-0.74
-0.63
-0.08
0.71
1.41
1.82
1.89
1.77
1.64
1.63
1.71
1.75
1.62
1.29
0.91
0.74
1.05
1.97
3.44
5.18
6.80
7.86
8.00
7.02
4.99
2.25
-0.66
-3.16
-4.77
-5.32
-4.92
-3.95
-2.77
-1.70
-0.85
-0.20
0.28
0.57
0.60
0.30
-0.30
-1.07
-1.77
-2.14
-2.07
-1.63
-1.05
-0.67
-0.79
-1.51
-2.71
-4.13
-5.43
-6.39
-6.89
-6.92
-6.46
-5.45
-3.88
-1.84
0.33
2.22
3.40
3.73
3.35
2.63
1.99
1.66
1.64
1.79
1.92
1.98
2.07
2.31
2.76
3.35
3.95
4.39
4.63
4.73
4.82
5.04
5.42
5.92
6.43
6.89
7.32
7.89
8.81
10.17
11.82
13.37
14.25
13.94
12.12
8.90
4.75
0.39
-3.41
-6.12
-7.55
-7.88
-7.53
-6.95
-6.43
-6.04
-5.67
-5.15
-4.42
-3.56
-2.73
-2.03
-1.40
-0.63
0.51
2.14
4.09
5.95
7.19
7.39
6.45
4.68
2.70
1.22
0.78
1.60
3.58
6.38
9.47
12.21
13.93
14.08
12.37
8.94
4.36
-0.56
-5.02
-8.52
-10.92
-12.30
-12.84
-12.61
-11.69
-10.24
-8.66
-7.47
-7.09
-7.64
-8.83
-10.06
-10.67
-10.25
-8.78
-6.60
-4.25
-2.21
-0.71
0.32
1.18
2.20
3.64
5.57
7.83
10.16
12.19
13.53
13.89
13.08
11.18
8.52
5.61
2.99
1.06
-0.04
-0.45
-0.43
-0.31
-0.32
-0.59
-1.21
-2.24
-3.67
-5.42
-7.26
-8.89
-9.99
-10.38
-10.01
-9.00
-7.55
-5.89
-4.22
-2.66
-1.25
0.10
1.66
3.73
6.50
9.86
13.21
15.65
16.27
14.59
10.84
5.90
0.97
-2.94
-5.44
-6.73
-7.41
-8.01
-8.73
-9.42
-9.77
-9.64
-9.14
-8.59
-8.22
-8.03
-7.74
-6.95
-5.41
-3.23
-0.84
1.17
2.39
2.67
2.26
1.60
1.13
1.09
1.49
2.14
2.87
3.49
3.93
4.07
3.81
3.03
1.75
0.11
-1.56
-2.94
-3.82
-4.21
-4.26
-4.19
-4.10
-3.99
-3.76
-3.36
-2.86
-2.45
-2.37
-2.77
-3.65
-4.88
-6.24
-7.52
-8.64
-9.61
-10.51
-11.42
-12.31
-13.02
-13.33
-12.99
-11.84
-9.88
-7.31
-4.43
-1.62
0.89
3.04
4.91
6.57
7.95
8.81
8.76
7.59
5.36
2.55
-0.14
-2.05
-2.83
-2.56
-1.59
-0.40
0.71
1.64
2.49
3.40
4.41
5.43
6.27
6.77
6.87
6.67
6.42
6.39
6.78
7.68
9.05
10.77
12.73
14.75
16.63
18.05
18.65
18.14
16.44
13.76
10.57
7.40
4.58
2.13
-0.18
-2.62
-5.23
-7.78
-9.83
-11.03
-11.31
-10.95
-10.40
-10.06
-10.08
-10.34
-10.56
-10.48
-9.99
-9.12
-8.00
-6.77
-5.50
-4.22
-2.90
-1.52
-0.01
1.68
3.61
5.74
7.83
9.51
10.28
9.77
7.89
4.97
1.67
-1.26
-3.29
-4.23
-4.28
-3.81
-3.12
-2.36
-1.51
-0.54
0.47
1.30
1.72
1.55
0.84
-0.21
-1.27
-2.07
-2.45
-2.39
-1.98
-1.38
-0.67
0.12
1.06
2.27
3.80
5.65
7.69
9.66
11.21
11.93
11.48
9.72
6.77
3.06
-0.82
-4.24
-6.77
-8.30
-8.98
-9.14
-9.06
-8.88
-8.57
-8.03
-7.21
-6.19
-5.16
-4.33
-3.81
-3.56
-3.36
-3.04
-2.55
-2.00
-1.68
-1.80
-2.40
-3.29
-4.14
-4.61
-4.43
-3.44
-1.61
0.92
3.78
6.37
8.01
8.24
7.06
5.00
2.86
1.35
0.77
0.90
1.23
1.32
1.03
0.49
-0.05
-0.43
-0.72
-1.07
-1.59
-2.21
-2.73
-2.90
-2.58
-1.83
-0.85
0.13
0.99
1.80
2.76
4.06
5.73
7.52
8.99
9.67
9.24
7.69
5.31
2.63
0.22
-1.46
-2.22
-2.19
-1.76
-1.43
-1.63
-2.49
-3.85
-5.30
-6.43
-7.00
-7.03
-6.78
-6.52
-6.36
-6.24
-5.90
-5.14
-3.94
-2.55
-1.38
-0.85
-1.13
-2.12
-3.44
-4.65
-5.40
-5.53
-5.07
-4.09
-2.65
-0.80
1.36
3.55
5.42
6.62
7.05
6.89
6.49
6.21
6.15
6.16
5.90
5.11
3.78
2.14
0.55
-0.66
-1.41
-1.77
-1.93
-2.07
-2.26
-2.45
-2.48
-2.21
-1.54
-0.51
0.76
2.11
3.44
4.76
6.15
7.69
9.29
10.67
11.38
10.97
9.20
6.16
2.34
-1.52
-4.68
-6.60
-7.16
-6.58
-5.36
-3.94
-2.65
-1.56
-0.63
0.17
0.79
1.04
0.80
0.09
-0.78
-1.37
-1.25
-0.22
1.52
3.42
4.83
5.25
4.57
3.16
1.68
0.80
1.01
2.44
4.93
8.04
11.18
13.67
14.90
14.44
12.31
9.01
5.37
2.30
0.37
-0.34
-0.21
0.20
0.44
0.32
-0.12
-0.78
-1.63
-2.75
-4.20
-5.87
-7.47
-8.55
-8.66
-7.56
-5.25
-2.05
1.56
5.08
8.15
10.64
12.66
14.37
15.88
17.09
17.73
17.43
15.89
13.01
8.87
3.80
-1.77
-7.29
-12.25
-16.19
-18.80
-19.99
-19.86
-18.70
-16.90
-14.87
-12.95
-11.37
-10.26
-9.69
-9.62
-9.99
-10.67
-11.55
-12.50
-13.40
-14.11
-14.45
-14.26
-13.41
-11.84
-9.56
-6.61
-2.98
1.27
5.96
10.68
14.76
17.45
18.20
16.90
14.03
10.41
6.93
4.21
2.40
1.25
0.33
-0.68
-1.89
-3.18
-4.37
-5.35
-6.12
-6.74
-7.25
-7.59
-7.63
-7.19
-6.24
-4.88
-3.35
-1.88
-0.63
0.46
1.58
3.02
4.99
7.56
10.53
13.49
15.86
16.96
16.20
13.35
8.65
2.93
-2.62
-6.81
-8.86
-8.69
-6.89
-4.41
-2.17
-0.75
-0.24
-0.41
-0.95
-1.57
-2.18
-2.80
-3.51
-4.41
-5.55
-6.93
-8.46
-9.91
-10.97
-11.33
-10.72
-8.99
-6.23
-2.77
0.82
3.79
5.46
5.51
4.13
2.02
0.11
-0.88
-0.80
-0.05
0.62
0.60
-0.29
-1.70
-3.03
-3.74
-3.65
-2.97
-2.14
-1.57
-1.45
-1.71
-2.11
-2.40
-2.43
-2.24
-1.98
-1.79
-1.74
-1.73
-1.56
-1.02
0.00
1.48
3.30
5.33
7.46
9.55
11.40
12.70
13.05
12.15
9.95
6.76
3.24
0.19
-1.74
-2.25
-1.45
0.14
1.87
3.17
3.69
3.41
2.53
1.36
0.19
-0.82
-1.66
-2.42
-3.22
-4.11
-5.05
-5.91
-6.54
-6.85
-6.74
-6.15
-4.91
-2.90
-0.18
2.90
5.69
7.53
8.05
7.42
6.23
5.22
4.83
4.94
5.01
4.46
3.02
0.93
-1.19
-2.70
-3.32
-3.20
-2.79
-2.55
-2.69
-3.09
-3.46
-3.48
-3.02
-2.21
-1.38
-0.84
-0.83
-1.31
-2.08
-2.76
-2.95
-2.28
-0.51
2.43
6.33
10.64
14.58
17.28
18.04
16.60
13.26
8.80
4.20
0.32
-2.32
-3.58
-3.66
-2.85
-1.48
0.13
1.60
2.52
2.55
1.54
-0.32
-2.56
-4.57
-5.89
-6.33
-6.10
-5.63
-5.38
-5.65
-6.43
-7.43
-8.16
-8.08
-6.74
-4.02
-0.24
3.84
7.15
8.68
7.84
4.79
0.41
-4.01
-7.23
-8.54
-7.95
-6.10
-3.87
-2.03
-0.96
-0.65
-0.91
-1.46
-2.14
-2.81
-3.35
-3.65
-3.62
-3.23
-2.57
-1.76
-0.89
0.07
1.24
2.77
4.68
6.84
8.90
10.38
10.80
9.80
7.27
3.42
-1.26
-6.03
-10.10
-12.83
-13.88
-13.33
-11.62
-9.37
-7.16
-5.37
-4.13
-3.35
-2.88
-2.60
-2.50
-2.61
-2.96
-3.46
-4.00
-4.40
-4.60
-4.66
-4.74
-5.03
-5.63
-6.50
-7.40
-8.04
-8.10
-7.36
-5.78
-3.54
-1.08
1.04
2.32
2.49
1.74
0.62
-0.15
-0.02
1.13
2.91
4.64
5.68
5.76
5.00
3.81
2.62
1.69
1.04
0.52
0.04
-0.39
-0.60
-0.46
0.06
0.78
1.37
1.50
1.02
0.05
-1.05
-1.82
-1.86
-1.03
0.57
2.55
4.47
5.88
6.51
6.24
5.16
3.54
1.75
0.18
-0.81
-1.07
-0.66
0.17
1.08
1.78
2.09
1.95
1.44
0.65
-0.28
-1.20
-1.97
-2.47
-2.66
-2.57
-2.29
-1.88
-1.34
-0.69
0.02
0.67
1.11
1.25
1.16
1.07
1.24
1.81
2.68
3.61
4.27
4.49
4.30
3.92
3.60
3.49
3.60
3.79
3.93
3.95
3.92
3.98
4.21
4.58
4.94
5.08
4.86
4.26
3.40
2.50
1.77
1.32
1.20
1.32
1.51
1.59
1.39
0.87
0.12
-0.63
-1.12
-1.20
-0.92
-0.51
-0.26
-0.39
-0.94
-1.74
-2.56
-3.15
-3.40
-3.30
-2.93
-2.41
-1.83
-1.28
-0.82
-0.46
-0.18
0.04
0.26
0.50
0.75
0.94
1.01
0.90
0.63
0.30
0.00
-0.15
-0.15
-0.08
-0.03
-0.12
-0.35
-0.65
-0.91
-1.05
-1.03
-0.95
-0.90
-1.01
-1.31
-1.76
-2.24
-2.63
-2.82
-2.74
-2.40
-1.84
-1.11
-0.28
0.60
1.46
2.23
2.84
3.22
3.32
3.14
2.75
2.24
1.75
1.37
1.20
1.23
1.40
1.58
1.62
1.45
1.07
0.61
0.26
0.13
0.24
0.49
0.70
0.73
0.51
0.10
-0.37
-0.78
-1.02
-1.03
-0.79
-0.34
0.23
0.79
1.22
1.45
1.52
1.50
1.51
1.61
1.75
1.85
1.81
1.59
1.23
0.82
0.47
0.27
0.22
0.27
0.32
0.33
0.30
0.28
0.32
0.44
0.59
0.65
0.55
0.27
-0.14
-0.57
-0.95
-1.28
-1.55
-1.77
-1.89
-1.84
-1.57
-1.14
-0.62
-0.13
0.32
0.75
1.23
1.81
2.40
2.89
3.13
3.04
2.66
2.14
1.65
1.33
1.22
1.29
1.44
1.53
1.49
1.32
1.05
0.79
0.58
0.46
0.39
0.30
0.16
-0.04
-0.27
-0.53
-0.84
-1.19
-1.57
-1.88
-2.02
-1.89
-1.48
-0.89
-0.25
0.31
0.74
1.08
1.38
1.67
1.91
2.04
2.00
1.82
1.54
1.25
0.98
0.73
0.48
0.21
-0.08
-0.36
-0.59
-0.75
-0.85
-0.90
-0.91
-0.88
-0.82
-0.76
-0.78
-0.91
-1.18
-1.51
-1.80
-1.97
-2.01
-2.02
-2.08
-2.24
-2.40
-2.40
-2.08
-1.38
-0.43
0.58
1.40
1.93
2.13
2.07
1.84
1.49
1.08
0.64
0.26
0.03
0.01
0.18
0.47
0.75
0.93
0.94
0.79
0.52
0.20
-0.08
-0.27
-0.37
-0.41
-0.47
-0.61
-0.85
-1.16
-1.48
-1.75
-1.96
-2.08
-2.11
-2.01
-1.71
-1.18
-0.46
0.35
1.10
1.64
1.90
1.89
1.68
1.39
1.09
0.85
0.65
0.52
0.42
0.37
0.38
0.43
0.48
0.47
0.36
0.12
-0.19
-0.49
-0.70
-0.73
-0.60
-0.39
-0.22
-0.17
-0.29
-0.54
-0.86
-1.15
-1.34
-1.43
-1.43
-1.34
-1.17
-0.90
-0.54
-0.13
0.27
0.58
0.76
0.83
0.83
0.80
0.75
0.66
0.54
0.41
0.33
0.34
0.44
0.58
0.65
0.59
0.38
0.09
-0.18
-0.37
-0.48
-0.54
-0.63
-0.79
-0.99
-1.17
-1.27
-1.29
-1.27
-1.28
-1.34
-1.39
-1.37
-1.17
-0.80
-0.30
0.20
0.63
0.94
1.15
1.32
1.50
1.69
1.86
1.96
1.96
1.89
1.75
1.57
1.35
1.08
0.78
0.51
0.36
0.38
0.58
0.86
1.06
1.04
0.77
0.32
-0.16
-0.55
-0.81
-1.02
-1.29
-1.67
-2.09
-2.40
-2.43
-2.13
-1.61
-1.03
-0.57
-0.28
-0.11
0.02
0.17
0.32
0.42
0.50
0.60
0.82
1.20
1.67
2.09
2.31
2.25
1.97
1.57
1.16
0.79
0.49
0.21
-0.06
-0.33
-0.57
-0.78
-0.93
-0.99
-0.96
-0.85
-0.72
-0.69
-0.85
-1.23
-1.76
-2.27
-2.57
-2.54
-2.21
-1.68
-1.08
-0.48
0.10
0.69
1.24
1.68
1.89
1.80
1.46
1.00
0.58
0.32
0.18
0.09
-0.04
-0.25
-0.49
-0.69
-0.80
-0.83
-0.86
-0.95
-1.08
-1.22
-1.28
-1.22
-1.06
-0.90
-0.84
-0.92
-1.12
-1.32
-1.40
-1.27
-0.92
-0.44
0.06
0.47
0.74
0.88
0.96
1.02
1.08
1.13
1.11
1.02
0.86
0.64
0.39
0.13
-0.09
-0.21
-0.18
0.01
0.29
0.54
0.61
0.45
0.07
-0.39
-0.77
-0.98
-1.02
-0.96
-0.88
-0.81
-0.77
-0.74
-0.70
-0.67
-0.66
-0.64
-0.57
-0.42
-0.20
0.03
0.21
0.31
0.37
0.46
0.64
0.91
1.20
1.38
1.38
1.20
0.94
0.72
0.64
0.71
0.87
1.02
1.05
0.94
0.71
0.43
0.16
-0.04
-0.20
-0.38
-0.65
-1.01
-1.44
-1.84
-2.11
-2.19
-2.08
-1.88
-1.70
-1.60
-1.57
-1.50
-1.24
-0.73
-0.01
0.74
1.30
1.53
1.46
1.24
1.05
1.02
1.13
1.28
1.36
1.30
1.16
1.01
0.91
0.83
0.72
0.51
0.19
-0.18
-0.51
-0.74
-0.85
-0.89
-0.92
-0.98
-1.10
-1.23
-1.33
-1.34
-1.29
-1.21
-1.16
-1.15
-1.12
-0.97
-0.60
0.01
0.76
1.47
1.98
2.26
2.35
2.38
2.40
2.39
2.28
2.03
1.69
1.38
1.20
1.16
1.17
1.08
0.83
0.45
0.07
-0.20
-0.28
-0.23
-0.15
-0.13
-0.25
-0.47
-0.78
-1.10
-1.42
-1.72
-1.99
-2.26
-2.51
-2.75
-2.90
-2.90
-2.67
-2.19
-1.50
-0.76
-0.09
0.38
0.64
0.70
0.63
0.44
0.16
-0.18
-0.53
-0.79
-0.83
-0.60
-0.13
0.44
0.96
1.26
1.30
1.12
0.81
0.50
0.25
0.09
0.03
0.03
0.07
0.06
-0.06
-0.36
-0.83
-1.41
-1.98
-2.39
-2.56
-2.47
-2.15
-1.65
-1.02
-0.28
0.52
1.32
1.98
2.40
2.51
2.34
1.97
1.56
1.21
1.00
0.92
0.94
0.98
1.00
0.97
0.87
0.70
0.46
0.13
-0.24
-0.60
-0.88
-1.03
-1.02
-0.91
-0.78
-0.73
-0.82
-1.04
-1.34
-1.58
-1.69
-1.62
-1.40
-1.10
-0.78
-0.46
-0.09
0.37
0.95
1.55
2.04
2.26
2.13
1.73
1.24
0.85
0.70
0.73
0.81
0.76
0.52
0.18
-0.11
-0.21
-0.09
0.17
0.40
0.47
0.36
0.13
-0.14
-0.39
-0.61
-0.85
-1.12
-1.41
-1.66
-1.80
-1.77
-1.58
-1.28
-0.92
-0.55
-0.18
0.17
0.50
0.81
1.01
1.06
0.95
0.72
0.49
0.36
0.37
0.47
0.60
0.69
0.72
0.74
0.80
0.89
0.93
0.86
0.66
0.38
0.13
-0.03
-0.08
-0.11
-0.23
-0.47
-0.80
-1.13
-1.37
-1.45
-1.39
-1.26
-1.12
-0.99
-0.86
-0.70
-0.50
-0.26
-0.01
0.22
0.39
0.50
0.54
0.51
0.43
0.34
0.27
0.26
0.33
0.49
0.70
0.93
1.12
1.23
1.22
1.06
0.79
0.44
0.12
-0.12
-0.23
-0.23
-0.18
-0.13
-0.14
-0.19
-0.30
-0.47
-0.66
-0.82
-0.87
-0.76
-0.46
-0.05
0.38
0.74
0.99
1.19
1.39
1.60
1.78
1.79
1.55
1.09
0.58
0.20
0.09
0.23
0.46
0.64
0.68
0.59
0.46
0.32
0.17
-0.05
-0.37
-0.73
-0.98
-1.04
-0.88
-0.64
-0.53
-0.68
-1.09
-1.60
-2.00
-2.11
-1.88
-1.37
-0.75
-0.13
0.42
0.88
1.27
1.54
1.62
1.44
1.03
0.51
0.06
-0.19
-0.20
-0.09
-0.01
-0.11
-0.38
-0.73
-0.98
-1.04
-0.86
-0.51
-0.12
0.19
0.34
0.31
0.12
-0.17
-0.48
-0.77
-1.05
-1.35
-1.69
-2.04
-2.31
-2.37
-2.15
-1.64
-0.95
-0.23
0.39
0.86
1.17
1.36
1.48
1.52
1.49
1.35
1.08
0.72
0.32
-0.03
-0.26
-0.34
-0.34
-0.33
-0.40
-0.54
-0.68
-0.69
-0.52
-0.21
0.12
0.29
0.20
-0.16
-0.69
-1.23
-1.65
-1.86
-1.87
-1.68
-1.34
-0.90
-0.40
0.10
0.55
0.87
1.03
1.03
0.89
0.71
0.55
0.48
0.49
0.56
0.61
0.63
0.61
0.55
0.44
0.26
-0.01
-0.33
-0.63
-0.85
-0.96
-0.99
-1.05
-1.18
-1.38
-1.61
-1.77
-1.81
-1.74
-1.58
-1.33
-0.98
-0.49
0.10
0.73
1.29
1.71
2.00
2.21
2.38
2.51
2.51
2.32
1.93
1.45
1.03
0.83
0.91
1.20
1.56
1.84
1.93
1.80
1.49
1.11
0.72
0.37
0.05
-0.26
-0.60
-0.97
-1.33
-1.66
-1.90
-2.07
-2.20
-2.35
-2.50
-2.57
-2.44
-2.04
-1.38
-0.62
0.05
0.46
0.60
0.57
0.55
0.67
0.95
1.30
1.59
1.73
1.72
1.65
1.60
1.57
1.52
1.39
1.17
0.92
0.74
0.71
0.79
0.88
0.86
0.61
0.14
-0.49
-1.18
-1.80
-2.28
-2.56
-2.63
-2.49
-2.20
-1.83
-1.47
-1.14
-0.80
-0.44
-0.05
0.33
0.63
0.79
0.83
0.83
0.88
1.04
1.29
1.57
1.80
1.90
1.86
1.69
1.40
1.04
0.65
0.27
-0.08
-0.36
-0.58
-0.72
-0.80
-0.82
-0.77
-0.67
-0.53
-0.39
-0.32
-0.40
-0.66
-1.10
-1.59
-1.97
-2.06
-1.77
-1.14
-0.32
0.47
1.07
1.41
1.54
1.58
1.64
1.75
1.86
1.87
1.69
1.31
0.81
0.31
-0.06
-0.28
-0.40
-0.51
-0.68
-0.90
-1.10
-1.19
-1.12
-0.90
-0.62
-0.38
-0.28
-0.38
-0.70
-1.21
-1.79
-2.31
-2.65
-2.70
-2.40
-1.81
-0.99
-0.11
0.70
1.30
1.59
1.56
1.32
1.00
0.78
0.73
0.81
0.87
0.76
0.44
-0.02
-0.45
-0.68
-0.67
-0.48
-0.26
-0.16
-0.21
-0.37
-0.53
-0.64
-0.69
-0.76
-0.93
-1.24
-1.63
-2.01
-2.26
-2.30
-2.13
-1.79
-1.33
-0.77
-0.09
0.68
1.50
2.23
2.74
2.93
2.84
2.59
2.33
2.15
2.05
1.96
1.84
1.66
1.48
1.33
1.24
1.17
1.05
0.85
0.53
0.15
-0.27
-0.67
-1.01
-1.26
-1.41
-1.52
-1.66
-1.89
-2.21
-2.53
-2.70
-2.61
-2.22
-1.59
-0.89
-0.22
0.37
0.87
1.30
1.64
1.81
1.78
1.57
1.27
0.99
0.81
0.73
0.71
0.70
0.69
0.71
0.76
0.77
0.68
0.42
0.03
-0.38
-0.68
-0.80
-0.75
-0.64
-0.61
-0.69
-0.90
-1.15
-1.39
-1.57
-1.71
-1.84
-1.97
-2.08
-2.11
-2.02
-1.74
-1.29
-0.70
-0.06
0.56
1.06
1.45
1.73
1.98
2.21
2.43
2.61
2.70
2.66
2.52
2.30
2.07
1.86
1.70
1.55
1.35
1.08
0.71
0.29
-0.11
-0.46
-0.72
-0.92
-1.09
-1.25
-1.41
-1.56
-1.69
-1.80
-1.89
-1.97
-2.04
-2.09
-2.12
-2.11
-2.02
-1.80
-1.40
-0.83
-0.13
0.60
1.24
1.67
1.85
1.79
1.58
1.33
1.16
1.12
1.22
1.39
1.52
1.49
1.25
0.84
0.36
-0.06
-0.32
-0.42
-0.43
-0.42
-0.48
-0.65
-0.93
-1.34
-1.87
-2.52
-3.24
-3.96
-4.55
-4.92
-5.05
-5.02
-4.97
-5.06
-5.37
-5.92
-6.55
-7.06
-7.23
-6.89
-6.01
-4.71
-3.18
-1.70
-0.45
0.44
0.96
1.21
1.32
1.41
1.56
1.80
2.12
2.46
2.80
3.11
3.37
3.56
3.68
3.74
3.76
3.74
3.68
3.58
3.39
3.12
2.77
2.41
2.11
1.92
1.81
1.73
1.64
1.52
1.37
1.19
0.98
0.70
0.38
0.05
-0.19
-0.25
-0.09
0.23
0.63
1.00
1.31
1.57
1.83
2.11
2.39
2.61
2.72
2.70
2.57
2.36
2.09
1.79
1.45
1.12
0.81
0.58
0.45
0.48
0.65
0.94
1.26
1.49
1.52
1.31
0.90
0.40
-0.06
-0.41
-0.63
-0.76
-0.86
-0.96
-1.09
-1.29
-1.57
-1.95
-2.38
-2.74
-2.90
-2.75
-2.26
-1.53
-0.69
0.09
0.69
1.10
1.36
1.54
1.69
1.82
1.91
1.94
1.93
1.87
1.80
1.72
1.62
1.49
1.35
1.26
1.25
1.30
1.35
1.31
1.14
0.89
0.63
0.45
0.36
0.29
0.16
-0.05
-0.30
-0.53
-0.66
-0.69
-0.71
-0.78
-0.94
-1.17
-1.42
-1.65
-1.87
-2.09
-2.29
-2.39
-2.30
-1.97
-1.43
-0.80
-0.21
0.21
0.45
0.54
0.59
0.71
0.90
1.14
1.36
1.50
1.55
1.55
1.56
1.59
1.64
1.66
1.60
1.43
1.18
0.90
0.67
0.52
0.44
0.35
0.18
-0.08
-0.37
-0.60
-0.69
-0.66
-0.60
-0.62
-0.78
-1.04
-1.31
-1.51
-1.62
-1.70
-1.84
-2.06
-2.34
-2.55
-2.57
-2.36
-1.95
-1.44
-0.92
-0.44
0.02
0.49
0.95
1.34
1.60
1.69
1.66
1.59
1.58
1.65
1.75
1.79
1.70
1.49
1.22
0.98
0.80
0.65
0.49
0.26
-0.02
-0.30
-0.55
-0.73
-0.84
-0.90
-0.90
-0.86
-0.78
-0.69
-0.68
-0.78
-1.04
-1.40
-1.75
-1.99
-2.03
-1.89
-1.61
-1.30
-0.99
-0.69
-0.38
-0.02
0.33
0.64
0.84
0.90
0.85
0.76
0.68
0.67
0.74
0.88
1.05
1.20
1.26
1.21
1.02
0.73
0.38
0.04
-0.24
-0.43
-0.52
-0.53
-0.47
-0.37
-0.26
-0.15
-0.09
-0.12
-0.29
-0.62
-1.08
-1.55
-1.92
-2.12
-2.11
-1.93
-1.65
-1.32
-0.96
-0.54
-0.06
0.45
0.92
1.30
1.52
1.60
1.59
1.55
1.51
1.49
1.46
1.39
1.24
1.01
0.73
0.49
0.35
0.36
0.48
0.63
0.72
0.71
0.57
0.36
0.12
-0.14
-0.42
-0.72
-1.04
-1.32
-1.54
-1.68
-1.77
-1.86
-1.97
-2.06
-2.08
-1.96
-1.68
-1.28
-0.85
-0.48
-0.20
0.02
0.25
0.55
0.93
1.32
1.59
1.64
1.45
1.09
0.68
0.34
0.12
0.00
-0.07
-0.16
-0.26
-0.37
-0.42
-0.40
-0.33
-0.28
-0.31
-0.47
-0.78
-1.21
-1.71
-2.19
-2.60
-2.91
-3.15
-3.43
-3.81
-4.33
-4.95
-5.56
-6.06
-6.38
-6.53
-6.53
-6.45
-6.28
-6.02
-5.60
-5.03
-4.28
-3.38
-2.31
-1.08
0.27
1.70
3.09
4.33
5.32
6.03
6.44
6.60
6.56
6.37
6.11
5.83
5.57
5.35
5.14
4.90
4.61
4.30
4.00
3.76
3.57
3.38
3.07
2.58
1.87
1.02
0.16
-0.55
-0.98
-1.11
-0.96
-0.65
-0.31
-0.02
0.17
0.29
0.38
0.51
0.68
0.86
1.03
1.16
1.23
1.28
1.31
1.32
1.26
1.08
0.77
0.36
-0.06
-0.36
-0.47
-0.37
-0.11
0.18
0.38
0.42
0.29
0.06
-0.19
-0.37
-0.46
-0.47
-0.46
-0.52
-0.70
-1.04
-1.47
-1.90
-2.23
-2.38
-2.33
-2.11
-1.77
-1.37
-0.95
-0.53
-0.11
0.29
0.66
0.99
1.26
1.43
1.46
1.35
1.14
0.91
0.76
0.77
0.89
1.04
1.11
1.03
0.84
0.66
0.58
0.64
0.78
0.90
0.90
0.80
0.63
0.44
0.26
0.06
-0.17
-0.43
-0.73
-1.04
-1.37
-1.71
-2.02
-2.23
-2.23
-1.98
-1.47
-0.81
-0.13
0.47
0.93
1.20
1.27
1.14
0.85
0.52
0.31
0.34
0.64
1.12
1.60
1.94
2.04
1.94
1.73
1.50
1.30
1.12
0.88
0.54
0.09
-0.39
-0.82
-1.11
-1.21
-1.16
-1.05
-0.97
-1.02
-1.22
-1.55
-1.92
-2.27
-2.55
-2.67
-2.63
-2.41
-2.02
-1.52
-0.99
-0.50
-0.06
0.31
0.64
0.95
1.26
1.52
1.70
1.77
1.74
1.63
1.49
1.35
1.22
1.10
0.96
0.83
0.74
0.71
0.76
0.88
1.04
1.16
1.19
1.10
0.90
0.64
0.40
0.27
0.28
0.45
0.72
1.01
1.21
1.26
1.14
0.91
0.68
0.54
0.58
0.80
1.18
1.67
2.25
2.96
3.83
4.88
6.04
7.21
8.30
9.24
10.08
10.92
11.85
12.92
14.10
15.31
16.46
17.55
18.63
19.81
21.21
22.90
24.88
27.14
29.64
32.38
35.34
38.42
41.39
43.92
45.71
46.67
47.03
47.31
48.05
49.59
51.87
54.37
56.29
56.83
55.31
51.26
44.43
34.85
22.93
9.59
-3.79
-15.56
-24.22
-28.79
-29.04
-25.51
-19.28
-11.59
-3.64
3.71
9.93
14.84
18.51
21.20
23.20
24.77
25.98
26.73
26.79
25.89
23.90
20.91
17.30
13.53
10.05
7.01
4.29
1.56
-1.59
-5.46
-10.23
-15.99
-22.74
-30.41
-38.71
-47.08
-54.72
-60.80
-64.77
-66.48
-66.28
-64.81
-62.75
-60.61
-58.62
-56.77
-54.96
-53.10
-51.19
-49.34
-47.73
-46.45
-45.51
-44.73
-43.86
-42.64
-40.98
-38.94
-36.72
-34.58
-32.71
-31.13
-29.75
-28.45
-27.15
-25.85
-24.58
-23.41
-22.32
-21.26
-20.15
-18.97
-17.76
-16.61
-15.64
-14.90
-14.37
-13.98
-13.61
-13.19
-12.70
-12.18
-11.74
-11.48
-11.45
-11.60
-11.78
-11.77
-11.36
-10.48
-9.18
-7.63
-6.06
-4.61
-3.38
-2.37
-1.54
-0.89
-0.41
-0.07
0.16
0.38
0.67
1.05
1.51
1.98
2.35
2.59
2.68
2.66
2.53
2.33
2.06
1.73
1.40
1.14
1.00
0.97
0.98
0.93
0.75
0.44
0.06
-0.31
-0.61
-0.86
-1.11
-1.43
-1.85
-2.33
-2.82
-3.30
-3.77
-4.25
-4.79
-5.34
-5.79
-5.97
-5.72
-4.99
-3.85
-2.50
-1.17
-0.04
0.81
1.40
1.80
2.08
2.30
2.52
2.79
3.14
3.54
3.93
4.21
4.27
4.11
3.76
3.32
2.90
2.57
2.37
2.27
2.24
2.22
2.17
2.04
1.83
1.55
1.23
0.90
0.56
0.22
-0.15
-0.52
-0.92
-1.37
-1.88
-2.48
-3.12
-3.74
-4.23
-4.53
-4.57
-4.39
-4.01
-3.49
-2.85
-2.10
-1.24
-0.25
0.83
1.96
3.06
4.03
4.79
5.28
5.53
5.59
5.58
5.55
5.53
5.51
5.45
5.35
5.19
5.03
4.89
4.77
4.67
4.54
4.36
4.12
3.83
3.49
3.09
2.59
1.95
1.15
0.25
-0.64
-1.40
-1.95
-2.31
-2.62
-3.02
-3.60
-4.28
-4.82
-5.02
-4.71
-3.93
-2.84
-1.65
-0.49
0.60
1.64
2.65
3.62
4.48
5.17
5.68
6.01
6.23
6.34
6.37
6.32
6.25
6.19
6.18
6.19
6.13
5.90
5.43
4.70
3.78
2.73
1.66
0.67
-0.15
-0.63
-0.67
-0.22
0.59
1.52
2.30
2.70
2.66
2.27
1.67
1.01
0.35
-0.32
-0.96
-1.50
-1.78
-1.69
-1.15
-0.23
0.94
2.18
3.33
4.32
5.12
5.75
6.22
6.54
6.68
6.67
6.54
6.38
6.29
6.30
6.40
6.53
6.61
6.64
6.64
6.66
6.73
6.77
6.69
6.43
5.99
5.46
4.95
4.50
4.10
3.67
3.17
2.61
2.05
1.58
1.25
1.00
0.71
0.26
-0.41
-1.22
-2.01
-2.54
-2.65
-2.24
-1.37
-0.22
0.99
