1660932382.00
64.000000
-0.00
-0.00
-0.00
-0.00
-0.00
-0.00
-0.00
-0.00
-0.00
-0.00
0.00
0.01
0.01
-0.00
-0.03
-0.05
-0.05
0.00
0.13
0.36
0.66
1.01
1.37
1.72
2.06
2.40
2.79
3.25
3.81
4.44
5.09
5.73
6.32
6.90
7.53
8.27
9.15
10.26
11.48
12.69
13.79
14.74
15.63
16.64
18.00
19.83
22.33
25.26
28.36
31.32
34.05
36.65
39.49
43.00
47.47
53.20
59.80
66.70
73.39
79.61
85.57
91.86
99.19
107.98
118.58
130.32
142.34
153.84
164.49
174.66
185.19
197.44
209.89
224.43
241.28
260.36
280.59
299.50
313.30
317.78
309.61
287.57
253.40
210.32
162.31
112.78
63.80
16.35
-29.15
-72.35
-112.83
-150.21
-185.15
-218.97
-253.36
-289.37
-326.53
-362.38
-392.75
-413.18
-420.34
-413.55
-395.04
-369.08
-340.31
-312.17
-286.11
-261.99
-239.04
-216.71
-195.25
-175.35
-157.49
-141.59
-127.00
-112.93
-98.87
-84.85
-71.39
-59.19
-48.76
-40.19
-33.08
-26.74
-20.51
-13.97
-7.19
-0.57
5.29
9.89
13.10
15.21
16.74
18.24
20.00
21.95
23.80
25.23
26.05
26.33
26.28
26.13
25.98
25.85
25.64
25.30
24.81
24.21
23.55
22.87
22.17
21.42
20.60
19.70
18.78
17.93
17.24
16.79
16.56
16.49
16.44
16.31
16.01
15.54
14.93
14.26
13.61
13.03
12.55
12.14
11.80
11.53
11.34
11.27
11.27
11.27
11.16
10.87
10.38
9.76
9.13
8.58
8.14
7.80
7.52
7.28
7.09
6.96
6.88
6.81
6.71
6.57
6.39
6.20
5.99
5.78
5.56
5.33
5.09
4.85
4.61
4.34
4.00
3.57
3.05
2.47
1.87
1.32
0.88
0.57
0.37
0.19
-0.08
-0.54
-1.19
-1.97
-2.77
-3.49
-4.08
-4.60
-5.11
-5.68
-6.31
-6.96
-7.55
-8.01
-8.32
-8.49
-8.53
-8.45
-8.25
-7.94
-7.53
-7.05
-6.58
-6.19
-5.92
-5.73
-5.56
-5.32
-4.96
-4.50
-4.01
-3.57
-3.19
-2.83
-2.43
-1.97
-1.49
-1.07
-0.75
-0.52
-0.29
0.02
0.45
0.97
1.51
1.97
2.31
2.51
2.59
2.57
2.49
2.40
2.38
2.49
2.76
3.15
3.60
4.01
4.28
4.36
4.25
4.00
3.73
3.52
3.43
3.46
3.53
3.55
3.47
3.33
3.21
3.22
3.39
3.65
3.90
4.01
3.93
3.73
3.52
3.43
3.50
3.68
3.86
3.94
3.85
3.64
3.40
3.26
3.27
3.43
3.71
4.01
4.29
4.48
4.59
4.61
4.56
4.46
4.28
4.03
3.67
3.21
2.68
2.20
1.85
1.69
1.73
1.87
1.97
1.94
1.74
1.43
1.14
0.98
0.98
1.14
1.36
1.55
1.63
1.56
1.36
1.08
0.78
0.54
0.40
0.41
0.54
0.76
1.01
1.24
1.39
1.42
1.31
1.08
0.74
0.37
0.07
-0.05
0.08
0.48
1.02
1.56
1.94
2.05
1.90
1.59
1.25
1.02
0.94
1.02
1.19
1.39
1.54
1.60
1.55
1.39
1.15
0.88
0.67
0.56
0.60
0.74
0.92
1.05
1.07
0.96
0.76
0.51
0.28
0.09
-0.03
-0.07
0.02
0.25
0.58
0.91
1.10
1.04
0.71
0.23
-0.18
-0.32
-0.11
0.37
0.93
1.36
1.57
1.56
1.46
1.33
1.24
1.15
1.04
0.89
0.73
0.58
0.48
0.40
0.34
0.26
0.15
0.03
-0.06
-0.11
-0.07
0.07
0.31
0.60
0.89
1.10
1.19
1.16
1.02
0.83
0.65
0.49
0.33
0.17
-0.02
-0.21
-0.35
-0.42
-0.38
-0.23
0.00
0.28
0.55
0.79
0.98
1.09
1.09
1.01
0.84
0.64
0.44
0.26
0.11
0.02
-0.00
0.05
0.17
0.32
0.43
0.48
0.47
0.44
0.43
0.46
0.52
0.58
0.62
0.62
0.60
0.58
0.55
0.51
0.42
0.26
0.07
-0.11
-0.19
-0.12
0.09
0.37
0.61
0.71
0.63
0.40
0.13
-0.08
-0.17
-0.15
-0.07
0.00
0.03
0.05
0.11
0.23
0.38
0.47
0.38
0.12
-0.22
-0.45
-0.40
-0.06
0.39
0.72
0.73
0.40
-0.12
-0.56
-0.75
-0.67
-0.41
-0.13
0.06
0.17
0.22
0.30
0.40
0.52
0.61
0.66
0.69
0.76
0.88
1.06
1.26
1.43
1.51
1.48
1.35
1.16
0.93
0.66
0.32
-0.05
-0.41
-0.66
-0.75
-0.67
-0.49
-0.32
-0.23
-0.25
-0.32
-0.37
-0.34
-0.20
0.03
0.28
0.51
0.65
0.68
0.62
0.54
0.52
0.62
0.80
1.01
1.16
1.19
1.14
1.09
1.12
1.25
1.40
1.46
1.36
1.08
0.70
0.32
0.01
-0.19
-0.31
-0.36
-0.34
-0.20
0.08
0.45
0.84
1.15
1.31
1.30
1.15
0.90
0.58
0.21
-0.16
-0.48
-0.66
-0.70
-0.64
-0.60
-0.69
-0.91
-1.21
-1.45
-1.57
-1.57
-1.52
-1.48
-1.47
-1.43
-1.30
-1.06
-0.74
-0.40
-0.09
0.21
0.50
0.78
0.97
1.00
0.84
0.55
0.24
0.07
0.10
0.31
0.60
0.85
1.00
1.04
0.98
0.83
0.63
0.40
0.19
0.00
-0.13
-0.23
-0.31
-0.38
-0.43
-0.41
-0.29
-0.10
0.07
0.12
-0.00
-0.28
-0.61
-0.90
-1.08
-1.16
-1.22
-1.31
-1.47
-1.66
-1.81
-1.83
-1.68
-1.32
-0.77
-0.09
0.62
1.23
1.63
1.78
1.71
1.52
1.30
1.11
0.98
0.89
0.87
0.95
1.17
1.52
1.89
2.14
2.11
1.77
1.22
0.67
0.33
0.30
0.55
0.94
1.28
1.43
1.35
1.05
0.63
0.19
-0.19
-0.45
-0.57
-0.58
-0.56
-0.57
-0.62
-0.68
-0.70
-0.63
-0.51
-0.40
-0.36
-0.42
-0.54
-0.66
-0.74
-0.78
-0.77
-0.74
-0.67
-0.51
-0.26
0.08
0.43
0.70
0.82
0.76
0.54
0.24
-0.06
-0.32
-0.49
-0.53
-0.40
-0.05
0.46
1.02
1.46
1.61
1.39
0.87
0.21
-0.35
-0.68
-0.72
-0.55
-0.28
-0.04
0.10
0.13
0.10
0.04
0.01
-0.00
-0.03
-0.10
-0.23
-0.39
-0.54
-0.65
-0.69
-0.68
-0.65
-0.61
-0.54
-0.46
-0.37
-0.33
-0.39
-0.53
-0.71
-0.84
-0.86
-0.75
-0.53
-0.30
-0.10
0.04
0.12
0.16
0.20
0.23
0.26
0.25
0.19
0.09
-0.04
-0.12
-0.14
-0.05
0.12
0.33
0.54
0.73
0.89
1.05
1.21
1.35
1.42
1.39
1.24
1.01
0.76
0.52
0.35
0.21
0.10
0.02
-0.03
-0.01
0.07
0.21
0.40
0.58
0.74
0.84
0.83
0.69
0.39
-0.02
-0.45
-0.81
-0.97
-0.93
-0.74
-0.49
-0.29
-0.17
-0.13
-0.11
-0.08
-0.04
0.00
0.01
-0.03
-0.11
-0.20
-0.29
-0.36
-0.41
-0.45
-0.48
-0.47
-0.40
-0.29
-0.13
0.04
0.18
0.27
0.25
0.13
-0.09
-0.39
-0.69
-0.88
-0.87
-0.62
-0.17
0.35
0.77
0.97
0.90
0.60
0.19
-0.23
-0.55
-0.72
-0.71
-0.53
-0.20
0.19
0.56
0.80
0.88
0.80
0.64
0.46
0.36
0.36
0.47
0.64
0.79
0.83
0.68
0.37
-0.01
-0.34
-0.47
-0.36
-0.06
0.30
0.59
0.72
0.70
0.55
0.35
0.11
-0.17
-0.47
-0.76
-1.02
-1.18
-1.26
-1.22
-1.09
-0.85
-0.50
-0.05
0.43
0.85
1.11
1.15
0.96
0.59
0.15
-0.23
-0.42
-0.35
-0.04
0.38
0.71
0.82
0.65
0.27
-0.15
-0.46
-0.58
-0.55
-0.43
-0.33
-0.31
-0.34
-0.39
-0.41
-0.36
-0.25
-0.09
0.08
0.20
0.22
0.12
-0.07
-0.29
-0.47
-0.55
-0.56
-0.52
-0.48
-0.45
-0.42
-0.36
-0.27
-0.20
-0.18
-0.25
-0.39
-0.49
-0.47
-0.29
0.03
0.35
0.56
0.58
0.46
0.32
0.27
0.37
0.56
0.73
0.80
0.73
0.58
0.44
0.34
0.29
0.23
0.12
-0.04
-0.20
-0.31
-0.31
-0.20
-0.04
0.11
0.20
0.21
0.14
0.02
-0.11
-0.22
-0.29
-0.31
-0.30
-0.29
-0.34
-0.46
-0.62
-0.73
-0.72
-0.52
-0.15
0.30
0.70
0.94
0.98
0.84
0.58
0.28
0.01
-0.16
-0.21
-0.15
-0.04
0.06
0.09
0.01
-0.11
-0.20
-0.18
-0.03
0.22
0.48
0.67
0.69
0.50
0.13
-0.34
-0.76
-1.02
-1.03
-0.81
-0.44
-0.03
0.32
0.53
0.58
0.48
0.25
-0.04
-0.31
-0.46
-0.44
-0.30
-0.15
-0.08
-0.15
-0.30
-0.40
-0.32
-0.06
0.30
0.62
0.81
0.83
0.74
0.62
0.51
0.40
0.30
0.19
0.11
0.09
0.15
0.23
0.28
0.24
0.07
-0.18
-0.47
-0.72
-0.87
-0.87
-0.73
-0.49
-0.23
-0.05
-0.02
-0.16
-0.44
-0.73
-0.91
-0.88
-0.63
-0.24
0.15
0.39
0.41
0.23
-0.04
-0.29
-0.41
-0.37
-0.21
-0.00
0.18
0.30
0.35
0.37
0.37
0.36
0.32
0.22
0.06
-0.10
-0.20
-0.19
-0.08
0.10
0.27
0.36
0.36
0.30
0.21
0.12
0.06
0.02
0.00
-0.01
-0.01
0.02
0.13
0.36
0.68
1.04
1.29
1.36
1.21
0.90
0.56
0.29
0.14
0.07
0.05
0.03
-0.00
-0.04
-0.09
-0.19
-0.35
-0.53
-0.66
-0.65
-0.44
-0.09
0.27
0.49
0.45
0.19
-0.18
-0.52
-0.70
-0.71
-0.59
-0.41
-0.26
-0.16
-0.14
-0.21
-0.38
-0.63
-0.86
-0.95
-0.82
-0.46
0.04
0.51
0.80
0.87
0.74
0.51
0.23
-0.04
-0.30
-0.53
-0.72
-0.81
-0.79
-0.67
-0.47
-0.25
-0.08
-0.03
-0.13
-0.35
-0.60
-0.77
-0.75
-0.51
-0.15
0.19
0.38
0.39
0.26
0.12
0.04
0.09
0.22
0.42
0.65
0.88
1.09
1.23
1.28
1.22
1.10
0.94
0.81
0.72
0.65
0.60
0.55
0.48
0.38
0.26
0.12
-0.01
-0.08
-0.09
-0.03
0.04
0.07
0.03
-0.10
-0.26
-0.40
-0.48
-0.50
-0.48
-0.46
-0.48
-0.53
-0.60
-0.63
-0.57
-0.41
-0.20
-0.01
0.07
-0.02
-0.26
-0.55
-0.79
-0.86
-0.74
-0.46
-0.11
0.17
0.31
0.30
0.18
0.03
-0.07
-0.15
-0.27
-0.50
-0.86
-1.26
-1.57
-1.65
-1.52
-1.26
-1.07
-1.06
-1.26
-1.57
-1.86
-2.05
-2.16
-2.28
-2.45
-2.65
-2.79
-2.80
-2.66
-2.46
-2.37
-2.48
-2.77
-3.07
-3.22
-3.06
-2.61
-1.99
-1.42
-1.09
-1.10
-1.42
-1.90
-2.28
-2.33
-1.88
-0.88
0.57
2.26
3.93
5.31
6.22
6.55
6.34
5.71
4.87
4.00
3.27
2.73
2.38
2.18
2.09
2.12
2.27
2.54
2.87
3.20
3.48
3.68
3.86
4.06
4.30
4.55
4.78
4.94
5.06
5.14
5.18
5.10
4.80
4.14
3.12
1.84
0.54
-0.56
-1.27
-1.56
-1.55
-1.37
-1.20
-1.12
-1.15
-1.26
-1.40
-1.55
-1.71
-1.90
-2.15
-2.50
-2.97
-3.56
-4.25
-4.99
-5.69
-6.24
-6.54
-6.56
-6.35
-6.09
-5.98
-6.15
-6.57
-7.09
-7.43
-7.41
-7.04
-6.50
-6.06
-5.95
-6.18
-6.65
-7.17
-7.65
-8.12
-8.73
-9.59
-10.74
-12.08
-13.54
-15.09
-16.82
-18.87
-21.40
-24.50
-28.16
-32.35
-36.99
-42.04
-47.42
-53.06
-58.88
-64.82
-70.91
-77.16
-83.63
-90.32
-97.25
-104.37
-111.60
-118.79
-125.76
-132.46
-139.25
-146.94
-156.46
-168.19
-181.16
-192.70
-198.85
-195.50
-179.73
-150.74
-110.02
-60.89
-7.78
44.55
91.59
129.72
156.78
172.62
179.17
179.85
178.54
178.31
180.64
185.37
191.36
197.36
202.72
207.56
212.51
218.13
224.50
231.08
236.99
241.52
244.70
247.37
250.97
256.95
266.04
277.89
290.87
302.33
309.10
308.34
298.14
278.14
249.52
214.47
175.41
134.19
91.58
47.27
0.54
-48.80
-99.53
-148.69
-192.10
-225.62
-246.53
-254.53
-251.75
-241.76
-228.20
-213.55
-198.91
-184.47
-170.38
-157.21
-145.88
-137.01
-130.39
-124.92
-119.12
-111.86
-102.92
-92.95
-83.17
-74.69
-68.05
-63.10
-59.12
-55.23
-50.76
-45.54
-39.90
-34.52
-30.04
-26.78
-24.61
-22.98
-21.23
-18.92
-16.02
-12.93
-10.28
-8.51
-7.77
-7.76
-7.99
-7.97
-7.38
-6.21
-4.65
-2.98
-1.44
-0.17
0.86
1.72
2.57
3.48
4.42
5.27
5.84
6.02
5.79
5.33
4.95
5.01
5.80
7.42
9.73
12.31
14.57
15.88
15.79
14.17
11.27
7.65
3.99
0.93
-1.15
-2.19
-2.33
-1.83
-0.92
0.24
1.47
2.52
3.06
2.81
1.63
-0.31
-2.61
-4.76
-6.34
-7.21
-7.49
-7.48
-7.43
-7.45
-7.48
-7.35
-6.94
-6.24
-5.39
-4.61
-4.10
-3.93
-4.03
-4.20
-4.24
-4.06
-3.64
-3.10
-2.58
-2.17
-1.88
-1.67
-1.43
-1.08
-0.61
-0.07
0.41
0.75
0.92
0.97
1.05
1.30
1.75
2.34
2.92
3.36
3.58
3.61
3.49
3.25
2.89
2.36
1.67
0.87
0.10
-0.53
-0.94
-1.15
-1.21
-1.22
-1.24
-1.30
-1.39
-1.50
-1.61
-1.72
-1.85
-2.01
-2.18
-2.36
-2.52
-2.67
-2.80
-2.91
-2.97
-2.96
-2.81
-2.48
-1.93
-1.21
-0.38
0.42
1.09
1.54
1.78
1.87
1.92
2.01
2.15
2.29
2.29
2.06
1.56
0.84
0.05
-0.63
-1.05
-1.15
-1.01
-0.79
-0.69
-0.87
-1.36
-2.08
-2.89
-3.64
-4.23
-4.63
-4.86
-4.93
-4.81
-4.52
-4.08
-3.54
-2.97
-2.38
-1.69
-0.77
0.52
2.26
4.43
6.86
9.30
11.47
13.06
13.85
13.71
12.62
10.71
8.23
5.50
2.86
0.56
-1.22
-2.43
-3.10
-3.29
-3.10
-2.61
-1.92
-1.17
-0.52
-0.08
0.08
0.04
-0.07
-0.15
-0.15
-0.16
-0.30
-0.69
-1.32
-2.06
-2.76
-3.26
-3.50
-3.48
-3.26
-2.89
-2.45
-2.03
-1.81
-1.97
-2.66
-3.83
-5.28
-6.62
-7.46
-7.51
-6.71
-5.20
-3.29
-1.30
0.46
1.80
2.65
3.08
3.21
3.18
3.10
3.02
2.90
2.66
2.28
1.84
1.50
1.42
1.73
2.40
3.33
4.35
5.27
5.97
6.35
6.34
5.93
5.25
4.58
4.26
4.61
5.67
7.17
8.61
9.54
9.71
9.23
8.38
7.43
6.42
5.19
3.52
1.32
-1.21
-3.67
-5.69
-7.07
-7.88
-8.35
-8.72
-9.11
-9.46
-9.62
-9.46
-8.95
-8.18
-7.33
-6.57
-5.99
-5.57
-5.18
-4.68
-3.99
-3.11
-2.18
-1.34
-0.71
-0.29
-0.05
0.07
0.11
0.00
-0.33
-0.93
-1.74
-2.61
-3.27
-3.57
-3.40
-2.83
-2.00
-1.07
-0.19
0.56
1.18
1.66
2.06
2.42
2.76
3.05
3.21
3.16
2.87
2.42
1.96
1.63
1.52
1.59
1.73
1.82
1.82
1.80
1.82
1.87
1.89
1.79
1.53
1.19
0.96
0.99
1.33
1.80
2.15
2.15
1.71
1.00
0.28
-0.23
-0.47
-0.52
-0.58
-0.74
-0.99
-1.16
-1.13
-0.87
-0.46
-0.10
0.05
-0.08
-0.42
-0.81
-1.10
-1.21
-1.16
-1.06
-1.02
-1.11
-1.31
-1.55
-1.72
-1.76
-1.71
-1.65
-1.65
-1.73
-1.85
-1.96
-2.03
-2.12
-2.29
-2.59
-2.94
-3.23
-3.26
-2.87
-2.03
-0.86
0.34
1.24
1.57
1.24
0.46
-0.37
-0.85
-0.71
-0.04
0.83
1.43
1.43
0.70
-0.61
-2.22
-3.81
-5.05
-5.69
-5.52
-4.47
-2.65
-0.38
1.92
3.84
5.14
5.85
6.18
6.41
6.73
7.13
7.41
7.29
6.58
5.29
3.64
1.98
0.68
-0.01
-0.08
0.34
1.03
1.76
2.39
2.89
3.29
3.64
3.95
4.20
4.27
4.03
3.39
2.37
1.13
-0.09
-1.08
-1.75
-2.19
-2.54
-2.91
-3.27
-3.50
-3.45
-3.07
-2.38
-1.49
-0.52
0.47
1.44
2.33
3.04
3.48
3.61
3.44
3.07
2.59
2.05
1.47
0.87
0.27
-0.29
-0.76
-1.09
-1.30
-1.42
-1.52
-1.67
-1.92
-2.27
-2.73
-3.26
-3.85
-4.48
-5.15
-5.85
-6.52
-7.06
-7.39
-7.45
-7.27
-6.94
-6.56
-6.21
-5.94
-5.70
-5.36
-4.68
-3.42
-1.46
1.08
3.78
6.13
7.65
8.15
7.75
6.81
5.72
4.75
4.01
3.47
3.11
2.89
2.80
2.77
2.70
2.48
2.08
1.58
1.09
0.74
0.57
0.55
0.60
0.65
0.65
0.60
0.48
0.29
0.02
-0.34
-0.75
-1.16
-1.45
-1.51
-1.20
-0.46
0.68
2.10
3.57
4.82
5.64
5.95
5.82
5.42
4.95
4.54
4.25
4.03
3.78
3.41
2.82
1.95
0.81
-0.55
-2.06
-3.60
-5.08
-6.46
-7.72
-8.86
-9.88
-10.71
-11.28
-11.50
-11.36
-10.90
-10.26
-9.65
-9.25
-9.14
-9.23
-9.28
-8.88
-7.59
-5.12
-1.42
3.21
8.18
12.69
16.04
17.75
17.72
16.19
13.65
10.62
7.61
4.97
2.99
1.80
1.46
1.88
2.81
3.93
4.85
5.29
5.06
4.12
2.62
0.80
-1.04
-2.61
-3.71
-4.29
-4.40
-4.23
-3.98
-3.83
-3.85
-4.02
-4.19
-4.20
-3.94
-3.46
-2.95
-2.67
-2.81
-3.40
-4.28
-5.16
-5.78
-6.01
-5.84
-5.40
-4.79
-4.15
-3.53
-2.98
-2.54
-2.22
-1.94
-1.60
-1.07
-0.30
0.62
1.50
2.15
2.51
2.68
2.86
3.24
3.89
4.70
5.48
6.06
6.43
6.66
6.86
7.09
7.31
7.48
7.61
7.79
8.10
8.47
8.67
8.35
7.26
5.39
3.02
0.63
-1.30
-2.51
-3.02
-3.06
-2.96
-2.96
-3.17
-3.53
-3.92
-4.24
-4.41
-4.45
-4.40
-4.33
-4.27
-4.23
-4.15
-4.04
-3.92
-3.86
-3.94
-4.18
-4.52
-4.83
-4.93
-4.68
-4.11
-3.33
-2.56
-1.97
-1.64
-1.52
-1.51
-1.51
-1.52
-1.62
-1.88
-2.31
-2.80
-3.08
-2.92
-2.16
-0.87
0.73
2.32
3.62
4.49
4.92
5.05
5.02
4.93
4.81
4.61
4.27
3.81
3.29
2.84
2.57
2.52
2.64
2.85
3.02
3.07
2.97
2.74
2.46
2.18
1.93
1.76
1.69
1.76
1.98
2.30
2.63
2.77
2.54
1.83
0.66
-0.80
-2.25
-3.43
-4.15
-4.39
-4.24
-3.88
-3.46
-3.06
-2.73
-2.44
-2.15
-1.86
-1.55
-1.25
-0.98
-0.74
-0.56
-0.45
-0.44
-0.57
-0.86
-1.26
-1.69
-2.02
-2.16
-2.07
-1.81
-1.49
-1.24
-1.13
-1.21
-1.41
-1.68
-1.89
-1.95
-1.82
-1.50
-1.11
-0.75
-0.49
-0.29
-0.04
0.40
1.08
1.90
2.67
3.19
3.33
3.15
2.80
2.48
2.30
2.30
2.43
2.59
2.72
2.79
2.78
2.63
2.27
1.63
0.69
-0.44
-1.61
-2.62
-3.30
-3.57
-3.47
-3.13
-2.67
-2.17
-1.64
-1.00
-0.17
0.83
1.88
2.74
3.15
2.98
2.29
1.34
0.43
-0.14
-0.27
-0.00
0.56
1.28
2.15
3.14
4.24
5.33
6.21
6.62
6.37
5.42
3.92
2.18
0.54
-0.71
-1.46
-1.76
-1.78
-1.72
-1.64
-1.53
-1.30
-0.92
-0.43
0.04
0.36
0.49
0.48
0.43
0.41
0.45
0.46
0.36
0.10
-0.33
-0.88
-1.46
-2.01
-2.47
-2.78
-2.94
-2.98
-2.98
-3.03
-3.17
-3.38
-3.59
-3.71
-3.76
-3.83
-4.05
-4.49
-5.13
-5.85
-6.49
-6.95
-7.20
-7.26
-7.18
-6.97
-6.67
-6.36
-6.13
-6.06
-6.08
-5.89
-5.06
-3.18
-0.15
3.67
7.56
10.67
12.39
12.56
11.50
9.79
7.96
6.32
4.94
3.75
2.72
1.99
1.72
2.05
2.96
4.25
5.58
6.66
7.29
7.38
6.95
6.10
4.95
3.62
2.24
0.93
-0.20
-1.09
-1.69
-2.01
-2.10
-2.07
-1.98
-1.90
-1.78
-1.54
-1.07
-0.31
0.68
1.72
2.51
2.84
2.58
1.81
0.73
-0.36
-1.23
-1.75
-1.93
-1.86
-1.69
-1.54
-1.52
-1.64
-1.90
-2.26
-2.65
-3.05
-3.45
-3.88
-4.39
-5.00
-5.70
-6.43
-7.11
-7.67
-8.05
-8.24
-8.23
-8.02
-7.62
-7.01
-6.16
-5.03
-3.51
-1.47
1.21
4.43
7.83
10.81
12.75
13.24
12.28
10.26
7.79
5.42
3.48
2.02
0.94
0.13
-0.42
-0.65
-0.47
0.08
0.89
1.72
2.39
2.76
2.78
2.51
2.06
1.50
0.87
0.17
-0.59
-1.39
-2.18
-2.86
-3.34
-3.56
-3.47
-3.04
-2.29
-1.32
-0.28
0.63
1.23
1.42
1.20
0.62
-0.20
-1.13
-2.07
-2.92
-3.58
-3.96
-4.02
-3.74
-3.17
-2.37
-1.48
-0.63
0.03
0.42
0.54
0.46
0.33
0.29
0.43
0.76
1.21
1.69
2.12
2.51
2.91
3.35
3.85
4.32
4.63
4.68
4.53
4.42
4.67
5.49
6.83
8.27
9.19
9.07
7.77
5.60
3.17
1.06
-0.40
-1.25
-1.75
-2.14
-2.49
-2.73
-2.77
-2.68
-2.65
-2.93
-3.66
-4.74
-5.94
-6.96
-7.59
-7.77
-7.58
-7.19
-6.73
-6.32
-5.99
-5.73
-5.53
-5.35
-5.20
-5.07
-4.90
-4.63
-4.19
-3.58
-2.90
-2.34
-2.10
-2.32
-2.98
-3.87
-4.67
-5.03
-4.74
-3.75
-2.22
-0.41
1.35
2.84
3.94
4.70
5.30
6.00
7.02
8.51
10.40
12.41
14.06
14.88
14.53
13.00
10.60
7.89
5.47
3.75
2.89
2.73
3.01
3.39
3.64
3.59
3.21
2.56
1.78
1.07
0.60
0.37
0.26
0.00
-0.62
-1.65
-2.96
-4.29
-5.37
-6.10
-6.53
-6.81
-7.00
-7.08
-6.91
-6.40
-5.59
-4.65
-3.83
-3.32
-3.14
-3.17
-3.22
-3.11
-2.77
-2.25
-1.70
-1.27
-1.07
-1.09
-1.32
-1.63
-1.91
-2.03
-1.91
-1.56
-1.05
-0.55
-0.20
-0.13
-0.35
-0.81
-1.44
-2.18
-3.00
-3.82
-4.52
-4.91
-4.86
-4.35
-3.47
-2.43
-1.37
-0.32
0.87
2.37
4.25
6.33
8.24
9.52
9.81
9.03
7.45
5.55
3.86
2.73
2.25
2.28
2.57
2.88
3.11
3.20
3.11
2.75
2.02
0.92
-0.34
-1.36
-1.64
-0.89
0.80
2.91
4.71
5.52
5.03
3.42
1.23
-0.90
-2.52
-3.45
-3.79
-3.74
-3.49
-3.09
-2.57
-1.93
-1.22
-0.55
0.03
0.48
0.81
1.07
1.26
1.38
1.38
1.23
0.91
0.48
0.04
-0.29
-0.42
-0.37
-0.19
0.00
0.11
0.06
-0.15
-0.50
-0.91
-1.29
-1.54
-1.61
-1.46
-1.17
-0.83
-0.51
-0.21
0.16
0.72
1.55
2.61
3.81
5.01
6.03
6.70
6.83
6.30
5.09
3.36
1.42
-0.38
-1.79
-2.72
-3.34
-3.91
-4.66
-5.70
-6.97
-8.25
-9.33
-10.03
-10.31
-10.24
-10.01
-9.79
-9.65
-9.42
-8.81
-7.50
-5.31
-2.36
0.95
4.09
6.60
8.17
8.75
8.48
7.64
6.49
5.29
4.28
3.61
3.39
3.64
4.25
5.04
5.78
6.28
6.42
6.16
5.55
4.64
3.50
2.20
0.84
-0.41
-1.38
-1.94
-2.10
-1.96
-1.75
-1.62
-1.66
-1.82
-1.99
-2.06
-1.94
-1.64
-1.17
-0.64
-0.16
0.09
0.02
-0.41
-1.05
-1.67
-1.99
-1.85
-1.27
-0.43
0.38
0.94
1.12
0.92
0.42
-0.26
-1.03
-1.84
-2.65
-3.47
-4.27
-5.02
-5.68
-6.18
-6.46
-6.52
-6.43
-6.29
-6.21
-6.22
-6.27
-6.23
-5.95
-5.35
-4.32
-2.81
-0.76
1.79
4.66
7.51
9.86
11.32
11.64
10.90
9.36
7.41
5.37
3.46
1.82
0.56
-0.14
-0.10
0.77
2.34
4.25
5.99
7.08
7.25
6.51
5.10
3.37
1.63
0.08
-1.20
-2.20
-2.89
-3.28
-3.35
-3.17
-2.81
-2.43
-2.16
-2.05
-2.08
-2.11
-1.95
-1.43
-0.45
0.91
2.43
3.82
4.80
5.17
4.88
4.02
2.76
1.35
0.04
-0.97
-1.58
-1.85
-1.93
-2.03
-2.30
-2.77
-3.40
-4.08
-4.73
-5.35
-5.94
-6.50
-7.00
-7.39
-7.63
-7.72
-7.65
-7.41
-6.96
-6.27
-5.37
-4.30
-3.11
-1.78
-0.18
1.89
4.57
7.79
11.22
14.30
16.35
16.87
15.69
13.03
9.44
5.64
2.23
-0.39
-2.10
-3.01
-3.29
-3.16
-2.78
-2.23
-1.61
-1.00
-0.48
-0.10
0.13
0.24
0.31
0.38
0.46
0.51
0.40
0.04
-0.62
-1.47
-2.32
-2.93
-3.16
-2.99
-2.57
-2.10
-1.80
-1.76
-2.01
-2.47
-3.05
-3.65
-4.22
-4.70
-5.08
-5.34
-5.47
-5.39
-5.03
-4.29
-3.15
-1.71
-0.14
1.33
2.58
3.54
4.23
4.68
4.92
4.98
4.91
4.80
4.78
4.89
5.11
5.37
5.57
5.64
5.53
5.26
4.84
4.27
3.59
2.90
2.31
1.98
2.06
2.67
3.82
5.39
7.02
8.24
8.56
7.68
5.71
3.08
0.44
-1.65
-2.94
-3.56
-3.83
-4.10
-4.52
-5.03
-5.39
-5.42
-5.09
-4.61
-4.27
-4.33
-4.87
-5.74
-6.65
-7.31
-7.57
-7.45
-7.14
-6.82
-6.60
-6.50
-6.46
-6.41
-6.33
-6.27
-6.25
-6.28
-6.29
-6.14
-5.69
-4.88
-3.74
-2.45
-1.25
-0.40
-0.04
-0.16
-0.59
-1.09
-1.45
-1.48
-1.11
-0.27
1.03
2.73
4.72
6.79
8.73
10.31
11.44
12.07
12.22
11.91
11.15
9.98
8.51
6.96
5.56
4.49
3.77
3.29
2.86
2.37
1.84
1.39
1.15
1.14
1.26
1.33
1.20
0.84
0.36
-0.09
-0.38
-0.45
-0.26
0.17
0.84
1.69
2.55
3.14
3.15
2.39
0.94
-0.89
-2.63
-3.90
-4.55
-4.66
-4.44
-4.09
-3.71
-3.26
-2.73
-2.15
-1.63
-1.29
-1.19
-1.28
-1.42
-1.51
-1.49
-1.42
-1.44
-1.66
-2.11
-2.70
-3.25
-3.56
-3.53
-3.23
-2.86
-2.62
-2.64
-2.87
-3.15
-3.31
-3.26
-3.03
-2.73
-2.51
-2.44
-2.53
-2.73
-2.90
-2.89
-2.54
-1.75
-0.55
0.90
2.32
3.46
4.18
4.50
4.60
4.65
4.77
4.95
5.10
5.05
4.68
3.92
2.78
1.39
-0.04
-1.28
-2.14
-2.57
-2.62
-2.47
-2.29
-2.21
-2.27
-2.46
-2.69
-2.82
-2.65
-1.99
-0.78
0.82
2.42
3.60
4.10
3.97
3.57
3.26
3.28
3.51
3.70
3.65
3.39
3.15
3.19
3.53
3.96
4.09
3.63
2.59
1.21
-0.11
-1.05
-1.49
-1.49
-1.26
-1.01
-0.90
-1.01
-1.29
-1.63
-1.91
-2.02
-1.95
-1.78
-1.59
-1.38
-1.03
-0.38
0.63
1.90
3.17
4.09
4.43
4.18
3.54
2.80
2.17
1.73
1.37
0.91
0.25
-0.59
-1.49
-2.29
-2.86
-3.18
-3.35
-3.52
-3.84
-4.43
-5.28
-6.29
-7.30
-8.12
-8.63
-8.83
-8.82
-8.72
-8.63
-8.57
-8.47
-8.24
-7.78
-7.06
-6.05
-4.67
-2.80
-0.35
2.62
5.82
8.75
10.94
12.04
12.04
11.21
9.92
8.53
7.21
5.97
4.80
3.74
2.94
2.58
2.75
3.36
4.22
5.04
5.61
5.83
5.72
5.36
4.83
4.16
3.30
2.18
0.76
-0.88
-2.57
-4.02
-4.98
-5.32
-5.09
-4.51
-3.93
-3.62
-3.74
-4.20
-4.79
-5.20
-5.15
-4.55
-3.45
-2.00
-0.45
1.03
2.34
3.45
4.38
5.14
5.71
6.03
6.04
5.70
4.98
3.88
2.49
0.93
-0.58
-1.86
-2.78
-3.36
-3.74
-4.10
-4.58
-5.17
-5.75
-6.20
-6.40
-6.35
-6.08
-5.63
-5.03
-4.29
-3.45
-2.60
-1.79
-1.03
-0.26
0.57
1.51
2.53
3.53
4.34
4.82
4.87
4.50
3.83
3.08
2.45
2.07
1.92
1.84
1.62
1.12
0.39
-0.36
-0.83
-0.82
-0.32
0.47
1.25
1.76
1.88
1.68
1.37
1.10
0.93
0.74
0.36
-0.33
-1.28
-2.28
-3.05
-3.36
-3.13
-2.45
-1.54
-0.61
0.19
0.80
1.26
1.64
2.03
2.40
2.69
2.77
2.53
1.95
1.09
0.13
-0.73
-1.40
-1.85
-2.16
-2.45
-2.76
-3.07
-3.30
-3.35
-3.20
-2.87
-2.47
-2.08
-1.75
-1.49
-1.24
-0.95
-0.63
-0.31
-0.02
0.22
0.43
0.65
0.90
1.14
1.35
1.53
1.81
2.36
3.38
4.88
6.63
8.19
9.08
8.94
7.75
5.78
3.47
1.24
-0.67
-2.18
-3.33
-4.17
-4.66
-4.68
-4.19
-3.23
-2.00
-0.81
0.07
0.48
0.39
-0.06
-0.67
-1.23
-1.61
-1.76
-1.73
-1.61
-1.54
-1.68
-2.08
-2.73
-3.48
-4.13
-4.49
-4.46
-4.08
-3.51
-2.97
-2.63
-2.61
-2.95
-3.60
-4.47
-5.36
-6.02
-6.21
-5.74
-4.63
-3.04
-1.25
0.42
1.77
2.75
3.47
4.12
4.91
5.97
7.32
8.81
10.20
11.17
11.48
10.95
9.61
7.63
5.29
2.97
0.98
-0.40
-1.10
-1.15
-0.78
-0.23
0.24
0.53
0.68
0.85
1.20
1.81
2.58
3.25
3.54
3.26
2.43
1.30
0.18
-0.61
-0.98
-0.97
-0.77
-0.56
-0.42
-0.32
-0.16
0.11
0.51
0.95
1.26
1.29
0.95
0.27
-0.60
-1.44
-2.10
-2.47
-2.57
-2.49
-2.32
-2.05
-1.63
-1.02
-0.24
0.55
1.12
1.23
0.77
-0.19
-1.38
-2.48
-3.21
-3.46
-3.28
-2.83
-2.31
-1.86
-1.49
-1.19
-0.94
-0.72
-0.59
-0.60
-0.76
-1.02
-1.30
-1.52
-1.62
-1.61
-1.52
-1.39
-1.27
-1.16
-1.09
-1.06
-1.10
-1.22
-1.43
-1.70
-2.00
-2.25
-2.35
-2.25
-1.94
-1.51
-1.07
-0.73
-0.52
-0.36
-0.09
0.44
1.20
2.04
2.67
2.87
2.55
1.86
1.09
0.50
0.17
-0.02
-0.35
-1.05
-2.13
-3.39
-4.49
-5.18
-5.39
-5.25
-4.94
-4.53
-3.98
-3.17
-2.14
-1.16
-0.66
-0.98
-2.12
-3.60
-4.69
-4.75
-3.59
-1.65
0.28
1.35
1.11
-0.36
-2.56
-4.92
-7.04
-8.83
-10.47
-12.11
-13.83
-15.61
-17.35
-18.98
-20.44
-21.57
-21.91
-20.59
-16.46
-8.60
3.19
17.80
32.85
45.23
52.19
52.28
45.97
35.33
23.16
11.95
3.13
-2.95
-6.59
-8.13
-7.62
-5.04
-0.66
4.60
9.33
12.11
12.09
9.49
5.42
1.39
-1.36
-2.36
-2.00
-1.20
-0.89
-1.58
-3.16
-5.13
-6.93
-8.32
-9.35
-10.16
-10.68
-10.58
-9.40
-6.94
-3.52
0.09
2.99
4.59
4.87
4.33
3.64
3.25
3.19
3.20
2.91
2.17
1.10
-0.05
-1.03
-1.72
-2.15
-2.46
-2.84
-3.42
-4.20
-5.04
-5.75
-6.16
-6.25
-6.12
-6.00
-6.08
-6.44
-7.05
-7.75
-8.43
-9.02
-9.61
-10.36
-11.47
-13.01
-14.94
-17.04
-19.05
-20.74
-22.05
-23.17
-24.46
-26.37
-29.25
-33.23
-38.09
-43.34
-48.34
-52.59
-56.05
-59.22
-63.00
-68.28
-75.51
-84.39
-93.96
-103.09
-110.94
-117.36
-122.93
-128.69
-135.77
-145.05
-156.93
-171.14
-186.41
-200.36
-209.70
-210.93
-201.39
-180.22
-148.72
-109.83
-66.95
-22.60
22.46
69.12
118.83
172.01
226.93
279.64
325.09
359.02
379.56
387.94
387.76
383.49
378.84
375.88
375.08
375.92
377.40
378.16
376.32
369.48
355.12
331.56
298.66
258.05
212.44
164.59
116.18
67.44
17.66
-33.52
-85.02
-133.84
-175.72
-206.66
-224.46
-229.57
-224.83
-214.18
-201.23
-188.17
-175.82
-164.18
-153.20
-143.18
-134.56
-127.47
-121.46
-115.59
-108.90
-100.87
-91.60
-81.81
-72.45
-64.31
-57.77
-52.71
-48.65
-45.02
-41.40
-37.69
-34.09
-30.96
-28.54
-26.80
-25.39
-23.82
-21.67
-18.83
-15.51
-12.10
-8.88
-5.88
-2.89
0.35
3.91
7.47
10.43
12.12
12.09
10.31
7.14
3.23
-0.73
-4.18
-6.73
-8.21
-8.60
-8.03
-6.75
-5.10
-3.44
-2.10
-1.29
-1.04
-1.19
-1.44
-1.44
-0.98
-0.02
1.22
2.36
3.06
3.09
2.42
1.19
-0.39
-2.08
-3.68
-4.97
-5.74
-5.87
-5.40
-4.52
-3.58
-2.90
-2.64
-2.74
-2.96
-3.06
-2.87
-2.42
-1.90
-1.47
-1.26
-1.30
-1.49
-1.76
-2.00
-2.21
-2.40
-2.63
-2.97
-3.44
-4.04
-4.71
-5.36
-5.89
-6.20
-6.21
-5.89
-5.26
-4.45
-3.68
-3.14
-2.96
-3.15
-3.63
-4.31
-5.22
-6.42
-7.93
-9.55
-10.80
-11.10
-10.02
-7.57
-4.22
-0.73
2.17
4.05
4.93
5.06
4.82
4.51
4.39
4.66
5.46
6.81
8.49
10.02
10.80
10.38
8.66
6.02
3.08
0.52
-1.21
-2.06
-2.25
-2.18
-2.22
-2.57
-3.14
-3.60
-3.44
-2.20
0.34
3.95
7.97
11.53
13.86
14.57
13.76
11.85
9.36
6.64
3.86
1.10
-1.54
-3.90
-5.75
-6.96
-7.53
-7.62
-7.48
-7.34
-7.35
-7.59
-8.04
-8.57
-8.96
-8.89
-8.05
-6.26
-3.61
-0.48
2.58
5.05
6.59
7.15
6.92
6.14
5.00
3.54
1.75
-0.30
-2.39
-4.18
-5.35
-5.71
-5.27
-4.19
-2.71
-1.00
0.85
2.83
4.89
6.94
8.80
10.26
11.18
11.53
11.42
11.04
10.64
10.41
10.47
10.88
11.63
12.65
13.86
15.08
16.11
16.67
16.51
15.43
13.38
10.52
7.16
3.76
0.75
-1.60
-3.25
-4.38
-5.26
-6.06
-6.71
-6.92
-6.30
-4.63
-2.00
1.17
4.21
6.53
7.74
7.77
6.80
5.18
3.25
1.26
-0.62
-2.31
-3.76
-4.95
-5.87
-6.55
-7.03
-7.34
-7.55
-7.70
-7.86
-8.04
-8.24
-8.38
-8.37
-8.09
-7.51
-6.67
-5.69
-4.74
-3.95
-3.37
-3.00
-2.75
-2.51
-2.16
-1.60
-0.81
0.19
1.28
2.29
3.08
3.58
3.83
3.86
3.72
3.37
2.80
2.00
1.08
0.18
-0.51
-0.91
-1.03
-0.95
-0.78
-0.60
-0.49
-0.49
-0.62
-0.86
-1.16
-1.43
-1.57
-1.59
-1.53
-1.49
-1.56
-1.74
-2.01
-2.29
-2.50
-2.62
-2.66
-2.67
-2.70
-2.79
-2.94
-3.10
-3.21
-3.18
-2.99
-2.65
-2.26
-1.94
-1.76
-1.76
-1.90
-2.08
-2.17
-2.10
-1.83
-1.39
-0.88
-0.38
0.03
0.34
0.62
0.91
1.29
1.72
2.16
2.51
2.73
2.87
3.00
3.21
3.50
3.76
3.86
3.68
3.20
2.55
1.89
1.34
0.93
0.60
0.23
-0.26
-0.86
-1.46
-1.88
-1.98
-1.70
-1.11
-0.39
0.23
0.53
0.42
-0.08
-0.81
-1.51
-1.95
-2.00
-1.65
-1.03
-0.34
0.18
0.38
0.21
-0.26
-0.85
-1.32
-1.43
-1.05
-0.16
1.07
2.31
3.20
3.47
3.03
2.02
0.78
-0.34
-1.06
-1.27
-1.06
