1660931429.00
64.000000
-0.00
-0.00
-0.00
-0.00
-0.00
-0.00
-0.00
-0.00
-0.00
-0.00
0.00
0.01
0.01
-0.00
-0.03
-0.05
-0.05
0.00
0.13
0.36
0.66
1.01
1.37
1.72
2.06
2.40
2.79
3.25
3.81
4.43
5.09
5.73
6.33
6.92
7.55
8.28
9.13
10.17
11.32
12.47
13.52
14.46
15.36
16.39
17.75
19.55
21.99
24.85
27.88
30.82
33.54
36.17
39.04
42.54
46.93
52.52
58.94
65.68
72.28
78.51
84.54
90.89
98.17
106.74
116.95
128.22
139.81
151.05
161.68
171.98
182.64
194.81
206.84
220.61
236.50
254.70
274.39
293.19
307.21
311.93
303.69
281.02
245.66
201.10
151.72
101.27
51.97
4.70
-40.47
-83.53
-124.34
-162.70
-199.36
-235.64
-272.79
-311.00
-348.49
-381.55
-405.51
-416.54
-413.10
-396.72
-371.46
-342.22
-313.09
-286.21
-261.88
-239.39
-218.04
-197.62
-178.47
-160.96
-145.09
-130.43
-116.40
-102.58
-88.94
-75.79
-63.61
-52.77
-43.43
-35.43
-28.40
-21.87
-15.51
-9.24
-3.24
2.17
6.68
10.16
12.75
14.81
16.72
18.77
21.01
23.24
25.11
26.36
26.85
26.72
26.24
25.70
25.31
25.07
24.88
24.57
24.08
23.45
22.81
22.26
21.82
21.41
20.89
20.17
19.24
18.23
17.28
16.49
15.85
15.29
14.74
14.19
13.68
13.29
13.06
12.96
12.86
12.66
12.30
11.82
11.34
10.96
10.71
10.57
10.43
10.23
9.99
9.76
9.59
9.49
9.42
9.29
9.05
8.69
8.29
7.88
7.51
7.19
6.90
6.64
6.41
6.19
5.96
5.69
5.37
5.00
4.65
4.36
4.17
4.05
3.94
3.74
3.40
2.92
2.36
1.85
1.49
1.30
1.21
1.08
0.78
0.24
-0.45
-1.14
-1.70
-2.08
-2.35
-2.64
-3.08
-3.67
-4.31
-4.88
-5.27
-5.47
-5.56
-5.64
-5.83
-6.17
-6.63
-7.13
-7.53
-7.72
-7.63
-7.29
-6.81
-6.31
-5.90
-5.60
-5.36
-5.12
-4.84
-4.50
-4.13
-3.75
-3.35
-2.92
-2.45
-1.96
-1.51
-1.13
-0.83
-0.55
-0.24
0.18
0.70
1.30
1.90
2.38
2.69
2.80
2.76
2.65
2.59
2.65
2.84
3.11
3.35
3.51
3.58
3.58
3.61
3.71
3.87
4.01
4.04
3.92
3.69
3.43
3.27
3.26
3.40
3.60
3.76
3.82
3.78
3.68
3.56
3.45
3.38
3.33
3.34
3.39
3.48
3.60
3.73
3.84
3.92
3.93
3.85
3.69
3.46
3.21
2.99
2.84
2.74
2.68
2.63
2.58
2.55
2.53
2.50
2.44
2.31
2.10
1.87
1.68
1.59
1.63
1.77
1.94
2.06
2.07
1.96
1.73
1.46
1.21
1.05
1.03
1.13
1.32
1.53
1.68
1.76
1.77
1.75
1.75
1.77
1.80
1.82
1.80
1.72
1.58
1.43
1.28
1.16
1.09
1.05
1.02
0.97
0.91
0.85
0.83
0.88
1.01
1.19
1.37
1.49
1.52
1.44
1.29
1.14
1.05
1.09
1.22
1.36
1.41
1.27
0.93
0.49
0.11
-0.07
-0.01
0.26
0.63
0.98
1.29
1.54
1.79
2.04
2.24
2.30
2.17
1.85
1.41
0.97
0.62
0.40
0.26
0.14
0.01
-0.12
-0.22
-0.26
-0.27
-0.27
-0.27
-0.24
-0.12
0.16
0.56
0.99
1.33
1.46
1.38
1.14
0.84
0.58
0.45
0.47
0.63
0.83
0.97
0.91
0.59
0.07
-0.53
-1.03
-1.30
-1.28
-1.04
-0.67
-0.29
0.03
0.25
0.39
0.47
0.55
0.64
0.75
0.84
0.87
0.83
0.75
0.70
0.75
0.88
1.01
1.01
0.82
0.48
0.12
-0.12
-0.17
-0.08
0.01
-0.03
-0.21
-0.48
-0.71
-0.78
-0.67
-0.41
-0.09
0.21
0.41
0.47
0.40
0.23
0.03
-0.16
-0.31
-0.43
-0.49
-0.46
-0.28
0.05
0.45
0.78
0.91
0.78
0.46
0.13
-0.00
0.15
0.53
0.98
1.30
1.38
1.23
1.01
0.88
0.92
1.10
1.27
1.31
1.14
0.82
0.47
0.18
-0.00
-0.15
-0.34
-0.61
-0.89
-1.09
-1.11
-0.93
-0.57
-0.15
0.26
0.56
0.74
0.77
0.69
0.55
0.42
0.37
0.40
0.47
0.49
0.38
0.12
-0.24
-0.58
-0.82
-0.88
-0.79
-0.58
-0.30
0.01
0.30
0.58
0.81
1.01
1.15
1.24
1.29
1.27
1.19
1.09
1.02
1.04
1.16
1.39
1.63
1.82
1.90
1.84
1.69
1.46
1.20
0.94
0.71
0.58
0.59
0.71
0.87
0.98
0.97
0.88
0.79
0.75
0.78
0.80
0.76
0.65
0.52
0.48
0.58
0.79
1.00
1.13
1.13
1.01
0.84
0.63
0.42
0.22
0.10
0.12
0.29
0.56
0.80
0.90
0.82
0.64
0.49
0.49
0.67
0.96
1.25
1.46
1.54
1.51
1.46
1.48
1.70
2.13
2.72
3.26
3.43
2.97
1.70
-0.33
-2.84
-5.49
-7.94
-9.96
-11.47
-12.47
-13.00
-13.06
-12.66
-11.87
-10.89
-10.03
-9.63
-9.97
-11.15
-13.04
-15.36
-17.78
-20.06
-22.15
-24.21
-26.53
-29.43
-33.03
-37.24
-41.72
-46.00
-49.71
-52.76
-55.43
-58.30
-62.04
-67.16
-73.71
-81.32
-89.25
-96.63
-102.90
-107.98
-112.41
-117.28
-123.90
-133.29
-145.49
-159.04
-170.83
-176.59
-171.97
-153.85
-121.52
-77.22
-25.77
26.54
73.57
110.75
135.85
149.15
152.78
149.85
143.53
136.39
130.13
125.68
123.55
124.17
127.97
135.25
145.80
158.78
172.74
186.09
197.61
206.91
214.34
220.65
226.36
231.53
235.88
239.30
242.20
245.34
249.08
252.60
253.54
248.53
234.40
209.45
173.91
129.62
79.07
24.79
-30.64
-84.14
-131.85
-169.60
-194.16
-204.66
-203.07
-193.53
-180.72
-168.18
-157.40
-148.15
-139.47
-130.69
-121.86
-113.46
-105.89
-99.04
-92.39
-85.34
-77.70
-69.83
-62.55
-56.65
-52.50
-49.84
-47.86
-45.62
-42.44
-38.21
-33.35
-28.53
-24.32
-20.93
-18.18
-15.66
-13.00
-10.06
-6.97
-4.05
-1.59
0.31
1.82
3.29
5.07
7.30
9.84
12.31
14.30
15.63
16.38
16.91
17.67
18.97
20.94
23.52
26.56
29.71
32.35
33.51
32.07
27.20
18.87
8.06
-3.47
-13.79
-21.52
-26.24
-28.42
-28.93
-28.55
-27.72
-26.55
-25.12
-23.65
-22.50
-21.92
-21.89
-22.05
-21.92
-21.07
-19.34
-16.95
-14.34
-12.00
-10.26
-9.15
-8.37
-7.42
-5.76
-3.10
0.49
4.56
8.35
11.03
11.96
10.87
7.94
3.75
-0.87
-5.05
-8.15
-9.84
-10.15
-9.40
-8.06
-6.54
-5.14
-4.01
-3.18
-2.65
-2.40
-2.41
-2.58
-2.79
-2.91
-2.86
-2.64
-2.35
-2.14
-2.07
-2.10
-2.09
-1.92
-1.48
-0.81
-0.07
0.54
0.84
0.76
0.32
-0.33
-1.02
-1.60
-1.94
-2.01
-1.80
-1.40
-0.94
-0.55
-0.37
-0.45
-0.76
-1.18
-1.56
-1.77
-1.80
-1.70
-1.57
-1.50
-1.51
-1.61
-1.78
-2.00
-2.26
-2.51
-2.67
-2.69
-2.51
-2.11
-1.52
-0.79
0.06
0.95
1.81
2.55
3.03
3.16
2.97
2.55
2.09
1.74
1.53
1.42
1.28
1.01
0.60
0.11
-0.36
-0.73
-1.00
-1.24
-1.53
-1.89
-2.32
-2.76
-3.11
-3.31
-3.32
-3.13
-2.82
-2.48
-2.22
-2.09
-2.08
-2.09
-1.95
-1.44
-0.40
1.26
3.44
5.89
8.22
9.98
10.83
10.64
9.51
7.74
5.73
3.83
2.27
1.11
0.29
-0.30
-0.77
-1.14
-1.39
-1.51
-1.53
-1.55
-1.70
-2.09
-2.68
-3.35
-3.91
-4.19
-4.12
-3.77
-3.27
-2.75
-2.29
-1.92
-1.59
-1.30
-1.06
-0.88
-0.79
-0.77
-0.77
-0.74
-0.65
-0.50
-0.29
-0.07
0.12
0.22
0.21
0.10
-0.06
-0.19
-0.21
-0.08
0.12
0.27
0.21
-0.20
-0.93
-1.87
-2.76
-3.39
-3.59
-3.36
-2.82
-2.17
-1.57
-1.10
-0.74
-0.37
0.10
0.75
1.65
2.84
4.36
6.16
8.09
9.82
10.97
11.21
10.44
8.85
6.84
4.87
3.27
2.14
1.35
0.72
0.09
-0.55
-1.12
-1.54
-1.82
-2.05
-2.38
-2.92
-3.67
-4.53
-5.31
-5.86
-6.08
-5.93
-5.46
-4.73
-3.86
-2.96
-2.17
-1.57
-1.17
-0.89
-0.61
-0.22
0.31
0.92
1.49
1.89
2.05
1.92
1.54
0.93
0.15
-0.70
-1.50
-2.08
-2.33
-2.22
-1.90
-1.60
-1.59
-1.99
-2.73
-3.59
-4.25
-4.45
-4.13
-3.37
-2.40
-1.44
-0.65
-0.08
0.25
0.38
0.35
0.29
0.43
1.08
2.49
4.72
7.47
10.14
12.02
12.63
11.87
10.13
8.01
6.12
4.76
3.89
3.24
2.54
1.64
0.59
-0.46
-1.39
-2.17
-2.88
-3.60
-4.37
-5.09
-5.62
-5.83
-5.69
-5.33
-4.93
-4.70
-4.68
-4.78
-4.76
-4.45
-3.78
-2.88
-1.97
-1.25
-0.79
-0.53
-0.32
-0.05
0.34
0.85
1.45
2.09
2.73
3.25
3.51
3.35
2.76
1.83
0.83
-0.00
-0.49
-0.68
-0.75
-0.92
-1.32
-1.93
-2.59
-3.10
-3.33
-3.28
-3.09
-2.89
-2.77
-2.71
-2.60
-2.33
-1.85
-1.20
-0.39
0.60
1.85
3.50
5.54
7.77
9.81
11.15
11.43
10.54
8.69
6.34
4.00
2.02
0.53
-0.52
-1.29
-1.86
-2.24
-2.42
-2.43
-2.40
-2.45
-2.72
-3.18
-3.74
-4.25
-4.58
-4.69
-4.60
-4.35
-4.00
-3.54
-2.98
-2.36
-1.74
-1.19
-0.78
-0.54
-0.45
-0.44
-0.42
-0.35
-0.22
-0.10
-0.07
-0.19
-0.44
-0.78
-1.09
-1.32
-1.40
-1.31
-1.03
-0.52
0.22
1.15
2.15
3.03
3.66
3.94
3.91
3.69
3.37
2.99
2.50
1.85
1.04
0.15
-0.67
-1.23
-1.41
-1.13
-0.36
0.87
2.41
4.04
5.45
6.37
6.64
6.28
5.48
4.47
3.44
2.49
1.64
0.87
0.22
-0.25
-0.52
-0.58
-0.56
-0.56
-0.68
-0.93
-1.23
-1.50
-1.67
-1.80
-1.98
-2.36
-3.03
-3.98
-5.13
-6.32
-7.44
-8.39
-9.15
-9.73
-10.17
-10.58
-11.06
-11.69
-12.43
-13.14
-13.66
-13.92
-14.07
-14.35
-15.05
-16.31
-18.06
-20.08
-22.12
-24.04
-25.91
-27.93
-30.29
-33.11
-36.32
-39.75
-43.18
-46.46
-49.66
-53.05
-57.08
-62.14
-68.40
-75.59
-83.12
-90.24
-96.36
-101.40
-105.77
-110.31
-115.94
-123.37
-132.83
-144.01
-156.04
-167.58
-177.03
-182.90
-184.12
-180.38
-171.98
-159.49
-143.16
-122.69
-97.16
-65.46
-27.00
17.67
66.47
115.91
161.78
200.16
228.40
245.68
253.07
252.95
248.19
241.37
234.42
228.55
224.45
222.35
222.01
222.71
223.40
223.17
221.61
219.04
216.17
213.72
212.00
211.02
210.73
211.26
212.71
214.63
215.39
212.18
201.62
180.79
148.15
103.95
50.06
-10.38
-73.25
-133.54
-185.81
-224.92
-247.51
-253.46
-246.77
-234.83
-226.33
-228.30
-243.44
-269.08
-298.34
-323.00
-337.05
-338.79
-330.70
-317.19
-301.58
-284.07
-262.01
-231.78
-191.33
-141.39
-85.16
-26.84
29.90
82.37
128.63
166.91
195.63
213.79
221.73
221.31
215.39
207.07
198.99
193.04
190.27
190.94
194.50
199.60
204.40
207.10
206.69
203.49
199.24
196.64
198.42
206.00
218.33
231.60
240.00
237.38
219.33
184.58
135.54
77.66
18.15
-35.58
-77.24
-102.78
-111.28
-105.46
-91.25
-76.30
-67.49
-68.64
-79.29
-95.33
-111.10
-121.98
-125.87
-123.37
-116.60
-107.73
-98.12
-88.27
-78.38
-68.90
-60.62
-54.39
-50.66
-49.25
-49.45
-50.36
-51.26
-51.82
-52.14
-52.53
-53.24
-54.18
-54.86
-54.48
-52.27
-47.86
-41.63
-34.65
-28.31
-23.81
-21.70
-21.71
-22.91
-24.19
-24.67
-24.04
-22.72
-21.51
-21.25
-22.40
-24.79
-27.67
-29.98
-30.83
-29.89
-27.57
-24.83
-22.67
-21.69
-21.70
-21.88
-21.21
-19.12
-15.78
-12.16
-9.55
-9.04
-11.15
-15.70
-21.91
-28.42
-33.42
-34.93
-31.32
-22.02
-8.00
8.24
23.56
35.22
41.87
43.85
42.62
39.86
36.70
33.49
30.15
26.66
23.39
20.93
19.73
19.77
20.46
20.97
20.60
19.15
16.97
14.80
13.35
13.02
13.73
14.99
16.15
16.67
16.29
15.07
13.26
11.17
9.07
7.11
5.35
3.76
2.20
0.49
-1.50
-3.80
-6.26
-8.59
-10.46
-11.64
-12.11
-12.05
-11.75
-11.41
-11.09
-10.72
-10.16
-9.33
-8.30
-7.24
-6.35
-5.73
-5.39
-5.25
-5.15
-5.00
-4.73
-4.35
-3.90
-3.42
-2.96
-2.54
-2.14
-1.76
-1.39
-1.01
-0.65
-0.32
-0.08
0.07
0.16
0.25
0.38
0.56
0.71
0.78
0.75
0.65
0.61
0.70
0.94
1.27
1.58
1.74
1.71
1.52
1.22
0.88
0.56
0.31
0.18
0.18
0.29
0.42
0.46
0.34
0.07
-0.26
-0.52
-0.60
-0.52
-0.36
-0.23
-0.22
-0.34
-0.53
-0.73
-0.88
-0.99
-1.03
-1.01
-0.90
-0.67
-0.36
-0.06
0.13
0.14
-0.03
-0.30
-0.58
-0.79
-0.93
-1.02
-1.06
-1.04
-0.91
-0.64
-0.28
0.09
0.32
0.34
0.13
-0.22
-0.61
-0.90
-1.05
-1.03
-0.91
-0.72
-0.53
-0.38
-0.31
-0.34
-0.46
-0.65
-0.84
-0.99
-1.02
-0.96
-0.83
-0.69
-0.59
-0.57
-0.60
-0.65
-0.66
-0.57
-0.31
0.11
0.67
1.26
1.76
2.06
2.15
2.10
2.07
2.20
2.54
2.96
3.29
3.32
3.00
2.39
1.67
1.00
0.49
0.16
-0.01
-0.07
-0.03
0.12
0.37
0.67
0.96
1.17
1.24
1.20
1.06
0.87
0.64
0.38
0.09
-0.20
-0.45
-0.65
-0.78
-0.90
-1.06
-1.26
-1.51
-1.72
-1.83
-1.79
-1.62
-1.36
-1.09
-0.85
-0.64
-0.43
-0.18
0.10
0.40
0.64
0.77
0.73
0.55
0.29
0.08
0.00
0.07
0.22
0.36
0.38
0.26
0.04
-0.16
-0.26
-0.21
-0.08
0.05
0.06
-0.09
-0.42
-0.84
-1.24
-1.49
-1.48
-1.17
-0.61
0.08
0.73
1.20
1.44
1.51
1.51
1.56
1.70
1.91
2.14
2.30
2.35
2.28
2.11
1.86
1.58
1.30
1.07
0.92
0.84
0.80
0.72
0.57
0.34
0.05
-0.23
-0.49
-0.72
-0.93
-1.10
-1.22
-1.28
-1.30
-1.30
-1.30
-1.34
-1.38
-1.42
-1.42
-1.35
-1.24
-1.09
-0.89
-0.65
-0.42
-0.24
-0.19
-0.32
-0.61
-0.96
-1.24
-1.32
-1.17
-0.84
-0.45
-0.13
0.03
-0.01
-0.17
-0.37
-0.54
-0.61
-0.57
-0.41
-0.19
0.04
0.20
0.26
0.21
0.12
0.05
0.04
0.09
0.15
0.18
0.16
0.11
0.04
-0.03
-0.13
-0.30
-0.50
-0.67
-0.71
-0.52
-0.13
0.35
0.76
0.96
0.89
0.61
0.25
-0.04
-0.17
-0.12
0.01
0.14
0.19
0.16
0.06
-0.06
-0.18
-0.30
-0.41
-0.49
-0.52
-0.46
-0.35
-0.21
-0.09
-0.01
0.04
0.11
0.20
0.29
0.35
0.36
0.31
0.22
0.14
0.10
0.09
0.09
0.07
0.02
-0.07
-0.18
-0.27
-0.33
-0.33
-0.26
-0.14
0.02
0.19
0.36
0.48
0.55
0.54
0.47
0.38
0.32
0.30
0.33
0.36
0.33
0.20
-0.02
-0.25
-0.39
-0.37
-0.17
0.10
0.32
0.37
0.22
-0.07
-0.35
-0.51
-0.50
-0.36
-0.17
-0.01
0.08
0.08
0.02
-0.09
-0.26
-0.44
-0.57
-0.59
-0.49
-0.28
-0.01
0.25
0.46
0.60
0.65
0.62
0.49
0.29
0.05
-0.14
-0.23
-0.20
-0.11
-0.00
0.05
0.04
-0.02
-0.11
-0.17
-0.20
-0.17
-0.08
0.06
0.21
0.33
0.38
0.32
0.16
-0.05
-0.28
-0.49
-0.63
-0.69
-0.67
-0.59
-0.48
-0.37
-0.27
-0.16
-0.04
0.06
0.11
0.04
-0.15
-0.42
-0.66
-0.76
-0.65
-0.35
0.07
0.47
0.76
0.90
0.91
0.83
0.75
0.70
0.68
0.68
0.66
0.58
0.43
0.22
-0.03
-0.28
-0.49
-0.63
-0.72
-0.76
-0.76
-0.72
-0.58
-0.32
0.05
0.45
0.79
0.96
0.92
0.70
0.37
0.06
-0.16
-0.27
-0.30
-0.31
-0.31
-0.31
-0.26
-0.13
0.09
0.36
0.56
0.62
0.48
0.21
-0.12
-0.39
-0.54
-0.58
-0.54
-0.47
-0.40
-0.32
-0.21
-0.07
0.07
0.19
0.26
0.30
0.34
0.41
0.50
0.60
0.64
0.60
0.50
0.37
0.28
0.26
0.30
0.37
0.40
0.31
0.10
-0.19
-0.50
-0.75
-0.87
-0.86
-0.73
-0.55
-0.40
-0.32
-0.33
-0.37
-0.34
-0.16
0.20
0.68
1.17
1.52
1.64
1.50
1.12
0.62
0.08
-0.39
-0.72
-0.84
-0.76
-0.54
-0.30
-0.15
-0.17
-0.32
-0.51
-0.61
-0.54
-0.31
-0.00
0.28
0.43
0.44
0.32
0.12
-0.11
-0.35
-0.60
-0.83
-1.01
-1.06
-0.93
-0.64
-0.25
0.13
0.37
0.43
0.36
0.25
0.20
0.22
0.24
0.18
-0.00
-0.24
-0.40
-0.36
-0.11
0.20
0.41
0.38
0.10
-0.28
-0.53
-0.53
-0.26
0.16
0.55
0.78
0.83
0.73
0.58
0.44
0.31
0.20
0.05
-0.12
-0.27
-0.34
-0.28
-0.07
0.22
0.48
0.57
0.40
-0.02
-0.56
-1.03
-1.25
-1.15
-0.79
-0.30
0.16
0.46
0.58
0.53
0.37
0.13
-0.13
-0.39
-0.58
-0.67
-0.60
-0.37
-0.05
0.25
0.43
0.41
0.21
-0.09
-0.39
-0.60
-0.69
-0.71
-0.72
-0.74
-0.77
-0.75
-0.64
-0.47
-0.28
-0.17
-0.23
-0.45
-0.74
-0.99
-1.11
-1.06
-0.90
-0.70
-0.53
-0.42
-0.33
-0.23
-0.13
-0.07
-0.08
-0.17
-0.30
-0.41
-0.48
-0.50
-0.51
-0.54
-0.52
-0.38
-0.02
0.59
1.37
2.17
2.85
3.27
3.43
3.36
3.15
2.87
2.55
2.20
1.83
1.47
1.14
0.89
0.69
0.49
0.20
-0.21
-0.69
-1.12
-1.35
-1.31
-1.04
-0.70
-0.45
-0.42
-0.62
-0.94
-1.25
-1.41
-1.40
-1.22
-0.96
-0.72
-0.54
-0.40
-0.27
-0.10
0.12
0.36
0.53
0.58
0.49
0.31
0.10
-0.05
-0.12
-0.11
-0.06
0.03
0.16
0.34
0.56
0.76
0.87
0.87
0.76
0.61
0.50
0.46
0.51
0.60
0.65
0.62
0.48
0.29
0.08
-0.07
-0.15
-0.17
-0.15
-0.07
0.05
0.22
0.42
0.62
0.76
0.80
0.74
0.58
0.36
0.12
-0.12
-0.31
-0.43
-0.44
-0.32
-0.09
0.17
0.40
0.54
0.58
0.59
0.61
0.67
0.75
0.77
0.67
0.43
0.14
-0.12
-0.25
-0.24
-0.16
-0.11
-0.18
-0.37
-0.64
-0.88
-1.00
-0.99
-0.87
-0.69
-0.52
-0.41
-0.37
-0.39
-0.46
-0.56
-0.67
-0.78
-0.86
-0.86
-0.75
-0.53
-0.22
0.12
0.43
0.64
0.75
0.79
0.79
0.79
0.79
0.78
0.74
0.62
0.45
0.25
0.06
-0.08
-0.15
-0.16
-0.13
-0.09
-0.05
-0.01
0.03
0.05
-0.01
-0.15
-0.39
-0.65
-0.84
-0.90
-0.82
-0.69
-0.60
-0.62
-0.71
-0.79
-0.77
-0.64
-0.45
-0.29
-0.19
-0.16
-0.14
-0.10
-0.03
0.05
0.14
0.24
0.39
0.58
0.74
0.77
0.59
0.20
-0.29
-0.71
-0.94
-0.95
-0.78
-0.55
-0.36
-0.22
-0.16
-0.13
-0.14
-0.19
-0.30
-0.43
-0.52
-0.50
-0.34
-0.12
0.09
0.21
0.21
0.18
0.21
0.35
0.58
0.81
0.94
0.93
0.81
0.66
0.55
0.48
0.40
0.24
0.01
-0.26
-0.47
-0.54
-0.46
-0.28
-0.09
0.02
0.01
-0.10
-0.24
-0.37
-0.46
-0.50
-0.52
-0.52
-0.47
-0.34
-0.13
0.11
0.29
0.33
0.21
0.03
-0.10
-0.13
-0.08
-0.05
-0.13
-0.37
-0.67
-0.90
-0.91
-0.63
-0.08
0.63
1.35
1.93
2.26
2.32
2.09
1.67
1.13
0.60
0.16
-0.12
-0.22
-0.18
-0.05
0.10
0.18
0.17
0.07
-0.04
-0.08
0.03
0.26
0.51
0.68
0.64
0.35
-0.14
-0.72
-1.25
-1.61
-1.70
-1.48
-1.01
-0.40
0.17
0.52
0.61
0.47
0.24
0.08
0.04
0.11
0.19
0.19
0.09
-0.07
-0.19
-0.20
-0.12
-0.02
0.01
-0.09
-0.31
-0.59
-0.82
-0.92
-0.86
-0.68
-0.47
-0.29
-0.18
-0.11
-0.05
0.04
0.13
0.18
0.13
-0.01
-0.18
-0.29
-0.27
-0.13
0.07
0.25
0.33
0.30
0.19
0.07
-0.00
0.01
0.10
0.27
0.47
0.66
0.78
0.76
0.57
0.24
-0.15
-0.48
-0.68
-0.75
-0.73
-0.68
-0.61
-0.48
-0.26
0.07
0.42
0.69
0.76
0.61
0.33
0.04
-0.13
-0.15
-0.03
0.15
0.30
0.40
0.40
0.32
0.17
-0.04
-0.27
-0.47
-0.64
-0.75
-0.81
-0.82
-0.73
-0.51
-0.15
0.31
0.77
1.10
1.23
1.19
1.03
0.84
0.69
0.59
0.56
0.57
0.62
0.66
0.62
0.43
0.08
-0.38
-0.82
-1.10
-1.15
-1.00
-0.78
-0.59
-0.48
-0.38
-0.20
0.10
0.47
0.78
0.91
0.83
0.60
0.36
0.25
0.30
0.46
0.59
0.57
0.35
-0.01
-0.41
-0.72
-0.85
-0.76
-0.51
-0.15
0.24
0.59
0.83
0.92
0.80
0.51
0.09
-0.31
-0.55
-0.59
-0.45
-0.24
-0.12
-0.16
-0.33
-0.54
-0.64
-0.57
-0.32
0.04
0.38
0.61
0.70
0.66
0.54
0.40
0.29
0.20
0.11
0.01
-0.10
-0.23
-0.32
-0.35
-0.31
-0.21
-0.12
-0.07
-0.09
-0.15
-0.20
-0.20
-0.11
0.03
0.16
0.20
0.10
-0.13
-0.41
-0.65
-0.78
-0.78
-0.69
-0.58
-0.50
-0.45
-0.40
-0.32
-0.20
-0.07
0.02
0.04
0.01
-0.04
-0.05
0.01
0.13
0.23
0.28
0.27
0.24
0.28
0.42
0.61
0.79
0.85
0.75
0.52
0.22
-0.05
-0.22
-0.29
-0.27
-0.21
-0.14
-0.10
-0.11
-0.17
-0.25
-0.32
-0.31
-0.23
-0.08
0.08
0.16
0.14
-0.00
-0.24
-0.51
-0.78
-0.98
-1.05
-0.98
-0.76
-0.48
-0.23
-0.08
-0.06
-0.12
-0.13
-0.02
0.21
0.51
0.75
0.86
0.79
0.62
0.42
0.29
0.30
0.45
0.68
0.88
0.96
0.85
0.58
0.27
0.09
0.13
0.37
0.68
0.85
0.77
0.44
0.02
-0.31
-0.43
-0.34
-0.12
0.07
0.14
0.06
-0.09
-0.25
-0.37
-0.45
-0.54
-0.67
-0.80
-0.88
-0.84
-0.66
-0.39
-0.15
-0.01
0.00
-0.06
-0.13
-0.16
-0.20
-0.32
-0.56
-0.85
-1.08
-1.11
-0.90
-0.50
-0.03
0.41
0.77
1.02
1.15
1.14
0.94
0.60
0.20
-0.12
-0.25
-0.19
-0.01
0.15
0.26
0.33
0.42
0.56
0.73
0.83
0.79
0.60
0.29
-0.05
-0.33
-0.51
-0.56
-0.52
-0.45
-0.40
-0.43
-0.53
-0.63
-0.65
-0.53
-0.27
0.06
0.31
0.36
0.19
-0.12
-0.43
-0.62
-0.63
-0.50
-0.30
-0.14
-0.04
-0.00
0.01
0.04
0.09
0.17
0.25
0.32
0.39
0.47
0.52
0.55
0.53
0.45
0.32
0.14
-0.05
-0.22
-0.34
-0.38
-0.34
-0.27
-0.23
-0.26
-0.38
-0.56
-0.73
-0.79
-0.70
-0.49
-0.22
0.03
0.23
0.35
0.38
0.37
0.33
0.32
0.37
0.49
0.66
0.83
0.95
0.97
0.89
0.74
0.54
0.35
0.18
0.03
-0.07
-0.12
-0.10
-0.03
0.03
0.06
0.02
-0.05
-0.11
-0.11
-0.05
0.05
0.12
0.13
0.02
-0.18
-0.44
-0.68
-0.82
-0.79
-0.60
-0.30
0.01
0.21
0.24
0.09
-0.18
-0.45
-0.60
-0.56
-0.33
0.01
0.35
0.56
0.60
0.51
0.38
0.33
0.39
0.52
0.63
0.62
0.48
0.23
-0.04
-0.27
-0.42
-0.52
-0.57
-0.61
-0.63
-0.64
-0.63
-0.57
-0.45
-0.27
-0.06
0.12
0.25
0.31
0.36
0.47
0.69
0.93
1.09
1.03
0.70
0.22
-0.24
-0.48
-0.41
-0.12
0.25
0.53
0.63
0.59
0.46
0.30
0.14
-0.04
-0.22
-0.39
-0.50
-0.49
-0.38
-0.21
-0.04
0.04
0.01
-0.13
-0.34
-0.54
-0.68
-0.71
-0.62
-0.46
-0.28
-0.13
-0.04
-0.00
0.01
0.01
-0.00
-0.03
-0.08
-0.13
-0.15
-0.14
-0.09
-0.02
0.03
0.01
-0.06
-0.16
-0.23
-0.23
-0.15
-0.05
0.04
0.08
0.09
0.12
0.20
0.34
0.51
0.64
0.70
0.69
0.63
0.57
0.52
0.46
0.40
0.33
0.24
0.15
0.08
0.02
0.01
0.03
0.09
0.15
0.12
-0.05
-0.33
-0.65
-0.87
-0.89
-0.69
-0.36
-0.02
0.22
0.32
0.31
0.26
0.21
0.17
0.09
-0.02
-0.17
-0.33
-0.43
-0.46
-0.40
-0.29
-0.16
-0.05
0.04
0.13
0.23
0.33
0.39
0.35
0.20
-0.01
-0.21
-0.29
-0.24
-0.11
0.03
0.10
0.11
0.11
0.17
0.30
0.45
0.55
0.53
0.43
0.29
0.21
0.23
0.34
0.48
0.56
0.53
0.39
0.19
0.00
-0.11
-0.13
-0.09
-0.07
-0.14
-0.31
-0.55
-0.77
-0.87
-0.84
-0.71
-0.61
-0.62
-0.78
-1.05
-1.32
-1.48
-1.47
-1.29
-0.96
-0.52
-0.00
0.52
0.95
1.19
1.18
0.95
0.63
0.38
0.32
0.47
0.74
0.96
1.03
0.90
0.63
0.29
-0.03
-0.29
-0.44
-0.47
-0.37
-0.12
0.20
0.48
0.61
0.52
0.21
-0.21
-0.60
-0.80
-0.76
-0.52
-0.20
0.08
0.23
0.19
0.01
-0.26
-0.51
-0.66
-0.66
-0.49
-0.21
0.10
0.35
0.48
0.49
0.44
0.40
0.43
0.55
0.70
0.80
0.77
0.59
0.29
-0.03
-0.30
-0.47
-0.51
-0.46
-0.37
-0.27
-0.18
-0.09
-0.00
0.04
0.00
-0.12
-0.33
-0.55
-0.67
-0.64
-0.43
-0.12
0.19
0.37
0.36
0.18
-0.07
-0.27
-0.31
-0.16
0.10
0.36
0.51
0.49
0.32
0.07
-0.14
-0.28
-0.35
-0.39
-0.44
-0.48
-0.44
-0.26
0.07
0.48
0.81
0.94
0.81
0.51
0.17
-0.09
-0.20
-0.24
-0.29
-0.39
-0.49
-0.49
-0.33
-0.02
0.31
0.49
0.43
0.16
-0.17
-0.36
-0.30
-0.03
0.32
0.61
0.74
0.74
0.67
0.61
0.57
0.49
0.31
0.04
-0.26
-0.45
-0.44
-0.23
0.10
0.41
0.58
0.56
0.40
0.20
0.04
-0.03
-0.04
-0.03
-0.03
-0.06
-0.08
-0.07
-0.01
0.07
0.11
0.07
-0.04
-0.22
-0.40
-0.52
-0.56
-0.52
-0.40
-0.25
-0.12
-0.02
0.02
-0.01
-0.09
-0.19
-0.25
-0.25
-0.17
-0.07
-0.02
-0.05
-0.18
-0.35
-0.50
-0.58
-0.57
-0.48
-0.29
-0.02
0.28
0.53
0.62
0.52
0.25
-0.06
-0.26
-0.26
-0.09
0.12
0.22
0.15
-0.06
-0.26
-0.33
-0.26
-0.10
0.04
0.10
0.08
0.05
0.06
0.09
0.08
-0.05
-0.26
-0.45
-0.45
-0.15
0.41
1.09
1.63
1.87
1.78
1.48
1.16
1.02
1.12
1.41
1.78
2.07
2.24
2.33
2.48
2.79
3.30
3.88
4.37
4.57
4.44
4.11
3.88
4.04
4.80
6.09
7.63
9.00
9.81
9.93
9.56
9.16
9.31
10.38
12.36
14.83
17.11
18.69
19.32
19.21
18.86
18.85
19.65
21.65
25.16
30.19
36.09
41.32
43.63
40.87
32.07
18.20
2.02
-12.98
-24.03
-30.14
-32.18
-32.01
-31.30
-30.80
-30.30
-29.28
-27.62
-25.83
-24.68
-24.69
-25.69
-26.96
-27.65
-27.19
-25.70
-23.78
-22.20
-21.48
-21.70
-22.47
-23.22
-23.47
-23.04
-22.06
-20.88
-19.90
-19.40
-19.50
-20.24
-21.58
-23.51
-26.02
-29.06
-32.49
-36.05
-39.37
-42.06
-43.86
-44.79
-45.17
-45.58
-46.66
-48.82
-52.17
-56.44
-61.21
-66.08
-70.89
-75.69
-80.64
-86.00
-91.99
-98.80
-106.55
-115.22
-124.54
-134.23
-144.20
-154.68
-165.92
-177.50
-187.71
-193.46
-191.03
-177.39
-151.34
-113.90
-67.82
-16.71
35.64
85.41
128.72
161.96
182.63
190.46
187.90
179.55
170.56
164.77
163.63
166.26
170.52
174.19
175.87
175.18
172.50
168.61
164.41
160.75
158.25
157.16
157.35
158.47
160.17
162.42
165.44
169.61
175.13
181.96
189.77
197.94
205.51
211.01
212.33
207.07
193.08
169.22
135.87
94.65
47.67
-3.44
-58.10
-116.22
-176.95
-237.40
-292.55
-336.53
-365.01
-377.26
-376.58
-368.65
-358.59
-348.45
-336.60
-319.08
-292.13
-254.25
-206.77
-152.99
-96.91
-42.34
7.29
49.07
80.99
102.72
116.08
124.69
132.59
142.67
155.70
170.56
185.29
198.35
209.19
218.00
225.15
230.85
235.12
238.29
241.27
245.52
252.43
262.39
273.98
283.92
287.81
281.53
262.86
232.18
192.19
146.49
97.99
48.12
-2.71
-53.81
-102.98
-146.38
-179.71
-200.08
-207.32
-204.09
-194.68
-183.18
-172.19
-162.49
-153.65
-145.03
-136.49
-128.41
-121.34
-115.46
-110.41
-105.45
-99.88
-93.37
-86.10
-78.70
-71.85
-66.03
-61.28
-57.24
-53.36
-49.17
-44.52
-39.64
-34.99
-31.04
-28.02
-25.85
-24.18
-22.60
-20.81
-18.75
-16.59
-14.68
-13.29
-12.54
-12.32
-12.41
-12.61
-12.82
-13.17
-13.85
-15.04
-16.80
-18.98
-21.35
-23.72
-26.04
-28.44
-31.17
-34.44
-38.35
-42.78
-47.44
-52.01
-56.27
-60.22
-64.13
-68.43
-73.51
-79.51
-86.18
-93.04
-99.61
-105.63
-111.26
-116.90
-122.93
-129.57
-136.82
-144.73
-153.45
-163.11
-173.29
-182.56
-188.40
-187.73
-177.95
-157.84
-127.96
-90.05
-46.23
1.74
52.27
103.24
151.47
192.83
223.37
240.89
245.94
241.68
232.57
222.63
214.21
207.77
202.46
197.28
191.80
186.24
181.23
177.29
174.56
172.83
171.71
170.79
169.82
168.81
167.96
167.58
167.95
169.15
171.08
173.59
176.80
181.14
187.10
194.53
201.93
206.39
204.14
191.87
167.95
133.02
89.51
40.40
-11.80
-65.38
-118.73
-169.54
-214.50
-250.17
-274.32
-287.10
-291.05
-289.85
-286.66
-283.08
-279.06
-273.97
-267.89
-262.13
-258.62
-258.70
-262.05
-266.64
-269.48
-267.66
-259.05
-242.38
-217.39
-184.97
-147.32
-107.64
-69.23
-34.13
-2.38
27.79
58.44
90.36
122.19
151.03
174.13
190.33
200.58
206.98
211.31
214.22
215.38
214.39
211.62
208.30
205.88
205.17
205.98
207.27
207.82
206.98
205.08
203.32
203.00
204.57
206.85
206.86
200.44
183.53
153.61
110.87
58.57
2.47
-50.58
-94.47
-125.27
-142.09
-146.82
-143.09
-134.96
-125.69
-117.21
-110.26
-104.82
-100.60
-97.21
-94.03
-90.10
-84.37
-76.14
-65.62
-54.03
-43.33
-35.49
-31.79
-32.30
-35.96
-41.00
-45.60
-48.53
-49.36
-48.48
-46.69
-44.71
-42.94
-41.29
-39.45
-37.15
-34.36
-31.30
-28.34
-25.73
-23.54
-21.69
-20.00
-18.37
-16.76
-15.16
-13.57
-11.98
-10.37
-8.76
-7.18
-5.65
-4.25
-3.05
-2.10
-1.40
-0.89
-0.47
0.01
0.62
1.35
2.09
2.78
3.38
3.95
4.53
5.13
5.69
6.09
6.25
6.17
5.96
5.74
5.57
5.43
5.24
4.90
4.36
3.64
2.77
1.75
0.51
-1.09
-3.11
-5.53
-8.15
-10.67
-12.78
-14.32
-15.28
-15.83
-16.22
-16.66
-17.30
-18.17
-19.26
-20.59
-22.23
-24.30
-26.88
-29.94
-33.30
-36.71
-39.89
-42.69
-45.13
-47.39
-49.71
-52.34
-55.36
-58.66
-61.99
-65.01
-67.43
-69.16
-70.33
-71.26
-72.37
-74.05
-76.51
-79.86
-84.04
-88.84
-94.00
-99.33
-104.83
-110.92
-118.42
-128.11
-140.09
-153.05
-164.04
-169.07
-164.25
-147.09
-117.15
-76.01
-26.76
26.66
79.78
127.93
166.65
192.58
204.40
203.37
193.05
178.05
162.49
148.89
137.89
128.91
121.06
113.67
106.48
99.42
92.32
84.99
77.43
69.95
63.20
57.88
54.41
52.62
51.84
51.10
49.56
46.86
43.12
38.86
34.66
30.87
27.61
24.75
22.12
19.62
17.31
15.28
13.67
12.54
11.89
11.65
11.75
12.10
12.61
13.17
13.65
13.97
14.11
14.14
14.16
14.30
14.66
15.30
16.24
17.43
18.78
20.15
21.41
22.51
23.54
24.76
26.49
28.99
32.30
36.23
40.43
44.54
48.44
52.26
56.38
61.15
66.78
73.11
79.75
86.28
92.41
98.20
103.95
110.00
116.61
124.02
132.66
143.20
156.22
171.39
186.84
199.05
203.66
196.99
177.42
145.77
104.67
57.23
6.15
-46.24
-97.31
-143.48
-180.51
-204.79
-214.98
-212.79
-202.40
-188.73
-175.52
-164.37
-154.95
-146.06
-136.81
-127.21
-117.90
-109.56
-102.43
-96.18
-90.21
-83.99
-77.32
-70.46
-63.86
-57.98
-53.03
-48.94
-45.37
-41.89
-38.18
-34.15
-29.98
-26.00
-22.59
-19.90
-17.89
-16.26
-14.69
-12.91
-10.87
-8.71
-6.65
-4.90
-3.53
-2.50
-1.71
-1.05
-0.43
0.14
0.61
0.96
1.15
1.23
1.26
1.31
1.44
1.68
1.98
2.29
2.52
2.65
2.69
2.71
2.76
2.88
3.04
3.16
3.13
2.91
2.50
2.01
1.54
1.14
0.81
0.48
0.11
-0.30
-0.68
-0.93
-1.03
-0.98
-0.86
-0.74
-0.67
-0.64
-0.60
-0.51
-0.38
-0.27
-0.25
-0.36
-0.59
-0.88
-1.14
-1.29
-1.30
-1.22
-1.16
-1.25
-1.56
-2.05
-2.60
-3.04
-3.22
-3.11
-2.80
-2.44
-2.18
-2.06
-2.05
-2.05
-1.98
-1.80
-1.56
-1.33
-1.12
-0.90
-0.63
-0.31
0.02
0.25
0.32
0.27
0.20
0.26
0.55
1.02
1.51
1.88
2.03
1.98
1.82
1.69
1.62
1.60
1.61
1.62
1.61
1.54
1.36
1.02
0.52
-0.06
-0.57
-0.86
-0.85
-0.56
-0.11
0.38
0.77
0.99
1.00
0.79
0.43
-0.01
-0.38
-0.58
-0.53
-0.28
0.05
0.31
0.40
0.29
0.06
-0.20
-0.37
-0.44
-0.44
-0.43
-0.48
-0.60
-0.74
-0.87
-0.98
-1.11
-1.27
-1.46
-1.62
-1.67
-1.59
-1.40
-1.21
-1.13
-1.20
-1.43
-1.75
-2.12
-2.50
-2.85
-3.13
-3.27
-3.21
-2.93
-2.53
-2.15
-1.93
-1.96
-2.19
-2.52
-2.80
-2.90
-2.79
-2.56
-2.33
-2.23
-2.37
-2.74
-3.24
-3.67
-3.75
-3.18
-1.79
0.44
3.29
6.37
9.22
11.45
12.82
13.31
13.05
12.29
11.23
10.06
8.88
7.73
6.63
5.55
4.51
3.54
2.69
1.97
1.38
0.89
0.47
0.13
-0.11
-0.24
-0.30
-0.35
-0.50
-0.81
-1.25
-1.73
-2.11
-2.28
-2.20
-1.90
-1.51
-1.18
-1.07
-1.22
-1.58
-1.98
-2.23
-2.21
-1.93
-1.52
-1.17
-1.03
-1.14
-1.42
-1.74
-2.01
-2.18
-2.24
-2.23
-2.15
-2.02
-1.83
-1.62
-1.41
-1.23
-1.13
-1.12
-1.20
-1.36
-1.57
-1.79
-1.95
-1.98
-1.80
-1.39
-0.79
-0.09
0.54
0.97
1.11
0.97
0.66
0.31
0.04
-0.11
-0.15
-0.14
-0.11
-0.07
0.04
0.25
0.53
0.82
1.00
1.01
0.86
0.62
0.38
0.21
0.12
0.07
0.04
0.01
-0.00
0.04
0.14
0.30
0.46
0.56
0.57
0.47
0.29
0.04
-0.27
-0.59
-0.87
-1.03
-1.00
-0.77
-0.42
-0.09
0.09
0.04
-0.19
-0.51
-0.80
-0.97
-1.06
-1.09
-1.09
-1.07
-0.98
-0.82
-0.64
-0.53
-0.53
-0.63
-0.71
-0.65
-0.40
-0.02
0.33
0.49
0.36
-0.03
-0.53
-0.95
-1.15
-1.10
-0.84
-0.46
-0.07
0.28
0.54
0.69
0.74
0.69
0.56
0.42
0.29
0.21
0.17
0.15
0.09
-0.05
-0.28
-0.56
-0.82
-0.98
-0.97
-0.78
-0.47
-0.15
0.07
0.13
0.04
-0.14
-0.34
-0.48
-0.53
-0.51
-0.45
-0.39
-0.38
-0.46
-0.60
-0.80
-0.96
-1.03
-0.96
-0.79
-0.61
-0.56
-0.78
-1.32
-2.12
-3.00
-3.72
-4.01
-3.65
-2.55
-0.81
1.28
3.35
5.03
6.08
6.50
6.47
6.31
6.27
6.44
6.68
6.74
6.35
5.42
4.06
2.56
1.20
0.17
-0.52
-1.00
-1.41
-1.80
-2.12
-2.26
-2.19
-2.00
-1.86
-1.91
-2.17
-2.51
-2.75
-2.71
-2.35
-1.78
-1.15
-0.65
-0.34
-0.20
-0.17
-0.18
-0.20
-0.23
-0.29
-0.38
-0.45
-0.46
-0.35
-0.13
0.17
0.47
0.66
0.68
0.52
0.26
0.00
-0.11
-0.00
0.31
0.69
0.98
1.04
0.87
0.55
0.25
0.07
0.02
0.02
-0.05
-0.23
-0.48
-0.68
-0.70
-0.48
-0.09
0.33
0.64
0.74
0.62
0.40
0.18
0.07
0.09
0.19
0.31
0.35
0.29
0.14
-0.08
-0.31
-0.53
-0.69
-0.79
-0.81
-0.73
-0.57
-0.35
-0.12
0.08
0.20
0.23
0.18
0.09
-0.01
-0.12
-0.25
-0.44
-0.65
-0.83
-0.90
-0.81
-0.58
-0.32
-0.14
-0.11
-0.19
-0.29
-0.34
-0.27
-0.13
0.02
0.16
0.26
0.38
0.52
0.63
0.62
0.44
0.09
-0.32
-0.66
-0.82
-0.78
-0.62
-0.45
-0.33
-0.26
-0.14
0.07
0.34
0.54
0.54
0.26
-0.20
-0.69
-1.00
-1.04
-0.83
-0.49
-0.17
0.06
0.21
0.32
0.44
0.59
0.72
0.75
0.68
0.54
0.38
0.29
0.26
0.24
0.17
0.00
-0.21
-0.38
-0.41
-0.29
-0.09
0.05
0.06
-0.09
-0.31
-0.49
-0.57
-0.52
-0.39
-0.23
-0.07
0.08
0.21
0.31
0.33
0.26
0.09
-0.09
-0.22
-0.24
-0.12
0.06
0.24
0.33
0.30
0.14
-0.13
-0.45
-0.75
-0.95
-0.99
-0.81
-0.43
0.06
0.50
0.76
0.75
0.46
-0.01
-0.55
-1.02
-1.29
-1.24
-0.82
-0.06
0.88
1.75
2.28
2.28
1.77
0.95
0.13
-0.41
-0.52
-0.27
0.16
0.55
0.77
0.80
0.71
0.56
0.43
0.31
0.17
0.01
-0.18
-0.35
-0.47
-0.53
-0.53
-0.50
-0.42
-0.30
-0.14
0.04
0.18
0.25
0.21
0.09
-0.07
-0.20
-0.27
-0.28
-0.26
-0.24
-0.25
-0.29
-0.36
-0.42
-0.46
-0.47
-0.47
-0.47
-0.47
-0.46
-0.41
-0.30
-0.13
0.07
0.25
0.34
0.33
0.24
0.12
0.04
0.01
0.03
0.06
0.08
0.10
0.14
0.23
0.37
0.55
0.70
0.80
0.82
0.82
0.82
0.86
0.91
0.90
0.81
0.64
0.44
0.24
0.09
-0.02
-0.14
-0.29
-0.44
-0.54
-0.50
-0.29
0.04
0.40
0.66
0.73
0.59
0.33
0.05
-0.15
-0.22
-0.19
-0.13
-0.11
-0.18
-0.32
-0.47
-0.55
-0.53
-0.38
-0.13
0.16
0.42
0.61
0.69
0.63
0.44
0.15
-0.21
-0.56
-0.86
-1.06
-1.16
-1.14
-1.01
-0.76
-0.42
-0.01
0.38
0.65
0.75
0.64
0.39
0.10
-0.13
-0.23
-0.23
-0.21
-0.26
-0.41
-0.62
-0.76
-0.71
-0.42
0.03
0.49
0.76
0.76
0.51
0.14
-0.17
-0.29
-0.22
-0.01
0.22
0.38
0.40
0.30
0.11
-0.08
-0.19
-0.16
-0.00
0.23
0.44
0.53
0.42
0.12
-0.30
-0.73
-1.05
-1.16
-1.05
-0.76
-0.39
-0.05
0.18
0.28
0.28
0.22
0.15
0.13
0.16
0.27
0.43
0.61
0.74
0.78
0.69
0.49
0.21
-0.07
-0.28
-0.39
-0.39
-0.30
-0.16
-0.05
-0.03
-0.11
-0.29
-0.49
-0.61
-0.59
-0.44
-0.22
0.00
0.18
0.31
0.40
0.47
0.49
0.44
0.33
0.23
0.21
0.29
0.41
0.44
0.28
-0.09
-0.56
-0.95
-1.10
-0.97
-0.65
-0.32
-0.12
-0.12
-0.25
-0.41
-0.47
-0.41
-0.26
-0.10
0.01
0.05
0.07
0.10
0.13
0.12
0.03
-0.15
-0.37
-0.55
-0.60
-0.53
-0.36
-0.16
0.00
0.11
0.15
0.14
0.05
-0.11
-0.31
-0.50
-0.61
-0.57
-0.38
-0.07
0.28
0.64
0.97
1.28
1.54
1.72
1.77
1.68
1.44
1.09
0.68
0.27
-0.10
-0.41
-0.61
-0.71
-0.70
-0.61
-0.48
-0.38
-0.32
-0.30
-0.31
-0.30
-0.26
-0.19
-0.08
0.05
0.20
0.33
0.43
0.44
0.35
0.19
0.01
-0.11
-0.11
0.01
0.20
0.37
0.42
0.30
0.03
-0.30
-0.60
-0.78
-0.81
-0.71
-0.54
-0.38
-0.27
-0.21
-0.17
-0.14
-0.12
-0.10
-0.13
-0.19
-0.27
-0.35
-0.41
-0.41
-0.33
-0.18
0.01
0.18
0.28
0.26
0.14
-0.01
-0.14
-0.22
-0.25
-0.26
-0.25
-0.20
-0.08
0.12
0.37
0.56
0.61
0.48
0.23
-0.08
-0.33
-0.48
-0.50
-0.38
-0.16
0.13
0.46
0.76
0.98
1.10
1.09
0.97
0.75
0.47
0.21
0.03
-0.01
0.11
0.29
0.41
0.36
0.15
-0.12
-0.27
-0.19
0.10
0.48
0.77
0.86
0.80
0.73
0.77
0.99
1.29
1.54
1.63
1.53
1.31
1.08
0.89
0.72
0.54
0.28
-0.04
-0.39
-0.69
-0.91
-1.06
-1.18
-1.30
-1.42
-1.48
-1.43
-1.22
-0.91
-0.59
-0.37
-0.33
-0.46
-0.68
-0.85
-0.89
-0.75
-0.49
-0.22
-0.06
-0.09
-0.30
-0.63
-0.97
-1.18
-1.20
-0.97
-0.56
-0.11
0.24
0.40
0.35
0.17
-0.02
-0.14
-0.18
-0.21
-0.27
-0.38
-0.50
-0.56
-0.52
-0.41
-0.27
-0.15
-0.07
0.02
0.15
0.33
0.53
0.68
0.75
0.71
0.59
0.44
0.30
0.23
0.22
0.27
0.35
0.41
0.39
0.27
0.07
-0.15
-0.29
-0.30
-0.18
-0.01
0.12
0.12
0.03
-0.09
-0.12
-0.04
0.12
0.23
0.20
0.01
-0.28
-0.56
-0.72
-0.72
-0.57
-0.38
-0.22
-0.16
-0.20
-0.29
-0.38
-0.39
-0.30
-0.14
0.06
0.21
0.29
0.30
0.26
0.20
0.14
0.10
0.05
0.02
0.00
0.04
0.13
0.26
0.39
0.45
0.38
0.14
-0.23
-0.63
-0.88
-0.85
-0.50
0.04
0.58
0.89
0.88
0.63
0.32
0.12
0.10
0.20
0.29
0.26
0.13
-0.03
-0.10
-0.04
0.09
0.21
0.24
0.14
-0.02
-0.18
-0.26
-0.22
-0.08
0.08
0.19
0.21
0.17
0.13
0.16
0.28
0.46
0.62
0.68
0.62
0.48
0.31
0.19
0.13
0.12
0.14
0.16
0.20
0.24
0.25
0.21
0.09
-0.09
-0.26
-0.38
-0.38
-0.28
-0.11
0.02
0.05
-0.05
-0.25
-0.46
-0.61
-0.67
-0.66
-0.61
-0.54
-0.43
-0.26
-0.07
0.06
0.07
-0.10
-0.36
-0.58
-0.65
-0.52
-0.29
-0.10
-0.04
-0.12
-0.23
-0.24
-0.09
0.19
0.49
0.71
0.79
0.75
0.65
0.52
0.37
0.19
-0.01
-0.17
-0.23
-0.12
0.12
0.41
0.63
0.67
0.52
0.25
-0.04
-0.28
-0.43
-0.53
-0.61
-0.67
-0.68
-0.61
-0.45
-0.25
-0.08
0.02
0.05
0.07
0.15
0.31
0.57
0.86
1.09
1.19
1.08
0.80
0.39
-0.03
-0.37
-0.55
-0.60
-0.56
-0.50
-0.46
-0.40
-0.29
-0.10
0.12
0.27
0.28
0.14
-0.08
-0.28
-0.34
-0.25
-0.07
0.11
0.20
0.15
-0.01
-0.25
-0.49
-0.67
-0.73
-0.64
-0.42
-0.14
0.08
0.18
0.14
0.05
0.02
0.15
0.41
0.65
0.71
0.46
-0.11
-0.83
-1.50
-1.90
-1.93
-1.61
-1.05
-0.38
0.24
0.75
1.08
1.25
1.29
1.24
1.19
1.17
1.19
1.23
1.20
1.04
0.73
0.33
-0.05
-0.30
-0.34
-0.18
0.07
0.25
0.23
-0.01
-0.39
-0.76
-0.96
-0.90
-0.61
-0.23
0.08
0.22
0.19
0.08
-0.00
-0.02
-0.01
-0.07
-0.24
-0.48
-0.67
-0.66
-0.40
0.07
0.56
0.89
0.91
0.63
0.18
-0.27
-0.56
-0.61
-0.44
-0.12
0.22
0.49
0.66
0.72
0.69
0.61
0.49
0.33
0.16
0.01
-0.08
-0.05
0.07
0.24
0.38
0.43
0.37
0.24
0.09
-0.06
-0.23
-0.44
-0.68
-0.90
-1.03
-1.04
-0.96
-0.86
-0.79
-0.74
-0.67
-0.52
-0.29
-0.04
0.15
0.24
0.25
0.24
0.27
0.33
0.37
0.35
0.27
0.16
0.10
0.06
0.05
0.01
-0.05
-0.09
-0.02
0.19
0.54
0.90
1.14
1.15
0.90
0.49
0.04
-0.30
-0.48
-0.51
-0.48
-0.48
-0.56
-0.68
-0.77
-0.75
-0.62
-0.43
-0.27
-0.19
-0.19
-0.19
-0.13
0.02
0.22
0.38
0.42
0.32
0.15
-0.03
-0.12
-0.08
0.09
0.36
0.67
0.94
1.08
1.02
0.75
0.36
-0.01
-0.23
-0.22
-0.01
0.25
0.42
0.39
0.17
-0.14
-0.42
-0.56
-0.53
-0.38
-0.20
-0.05
0.05
0.11
0.15
0.14
0.04
-0.17
-0.45
-0.69
-0.77
-0.63
-0.32
0.01
0.20
0.15
-0.11
-0.46
-0.70
-0.73
-0.51
-0.13
0.27
0.57
0.73
0.75
0.69
0.57
0.40
0.18
-0.10
-0.35
-0.49
-0.42
-0.11
0.36
0.83
1.14
1.17
0.93
0.50
0.06
-0.28
-0.42
-0.34
-0.12
0.16
0.36
0.38
0.21
-0.12
-0.52
-0.89
-1.13
-1.22
-1.15
-0.97
-0.71
-0.40
-0.05
0.32
0.67
0.96
1.13
1.13
0.95
0.63
0.22
-0.19
-0.52
-0.72
-0.74
-0.59
-0.31
0.03
0.33
0.49
0.47
0.32
0.15
0.06
0.08
0.14
0.13
-0.03
-0.29
-0.51
-0.56
-0.37
-0.04
0.26
0.36
0.21
-0.14
-0.54
-0.86
-1.02
-1.02
-0.86
-0.58
-0.23
0.13
0.39
0.48
0.37
0.13
-0.15
-0.32
-0.35
-0.25
-0.07
0.11
0.26
0.37
0.45
0.52
0.57
0.60
0.61
0.61
0.62
0.68
0.77
0.86
0.88
0.76
0.49
0.12
-0.23
-0.47
-0.53
-0.45
-0.32
-0.23
-0.21
-0.23
-0.24
-0.22
-0.19
-0.19
-0.26
-0.39
-0.53
-0.65
-0.71
-0.72
-0.70
-0.67
-0.63
-0.55
-0.44
-0.29
-0.14
0.00
0.14
0.28
0.40
0.50
0.52
0.48
0.40
0.35
0.34
0.38
0.38
0.29
0.11
-0.09
-0.18
-0.08
0.18
0.46
0.58
0.43
0.05
-0.43
-0.80
-0.92
-0.76
-0.39
0.05
0.43
0.67
0.72
0.63
0.45
0.27
0.15
0.14
0.21
0.30
0.35
0.31
0.22
0.15
0.15
0.24
0.35
0.39
0.29
0.05
-0.21
-0.34
-0.23
0.12
0.57
0.94
1.04
0.83
0.40
-0.10
-0.54
-0.84
-1.01
-1.08
-1.06
-0.96
-0.75
-0.45
-0.11
0.19
0.41
0.54
0.63
0.73
0.83
0.89
0.82
0.59
0.21
-0.19
-0.43
-0.40
-0.09
0.38
0.79
0.99
0.94
0.75
0.60
0.65
0.92
1.31
1.69
1.98
2.16
2.30
2.43
2.57
2.70
2.76
2.73
2.59
2.34
2.01
1.64
1.28
0.99
0.78
0.70
0.81
1.24
2.04
3.14
4.26
4.94
4.72
3.36
0.94
-2.23
-5.73
-9.26
-12.67
-15.93
-18.97
-21.63
-23.73
-25.22
-26.31
-27.43
-29.05
-31.44
-34.54
-38.01
-41.44
-44.56
-47.38
-50.10
-52.99
-56.14
-59.44
-62.67
-65.63
-68.33
-70.95
-73.78
-76.96
-80.47
-84.14
-87.82
-91.52
-95.28
-98.93
-101.59
-101.57
-96.47
-83.64
-60.87
-26.82
18.53
73.65
135.21
197.95
254.92
298.47
321.70
320.12
292.95
243.57
179.01
108.49
41.42
-14.51
-54.79
-78.75
-89.17
-91.05
-89.70
-89.03
-90.59
-93.80
-97.05
-98.98
-99.35
-99.13
-99.78
-102.66
-108.48
-117.23
-128.29
-140.20
-150.59
-156.14
-153.12
-138.80
-112.94
-78.71
-42.14
-10.10
12.13
22.76
23.73
19.52
15.03
13.78
17.14
24.68
35.11
47.08
59.54
71.62
82.48
91.25
97.28
100.42
101.15
100.45
99.50
99.21
99.91
101.35
102.80
103.47
102.89
101.08
98.59
96.18
94.67
94.53
95.78
98.01
100.58
102.89
104.68
106.08
107.56
109.67
112.73
116.74
121.43
126.55
132.05
138.11
144.93
152.30
159.54
165.84
170.85
175.02
179.28
184.08
188.44
189.65
184.07
168.65
142.18
105.65
61.58
12.87
-37.82
-87.96
-134.54
-173.93
-202.48
-217.95
-220.59
-213.37
-200.75
-187.01
-174.81
-164.81
-156.22
-147.91
-139.24
-130.33
-121.71
-113.93
-107.15
-101.13
-95.38
-89.32
-82.66
-75.45
-68.12
-61.32
-55.68
-51.52
-48.69
-46.56
-44.30
-41.18
-36.92
-31.86
-26.85
-22.97
-21.05
-21.23
-22.81
-24.38
-24.44
-22.19
-18.05
-13.71
-11.48
-13.14
-18.91
-27.01
-34.34
-37.75
-35.65
-28.80
-20.10
-13.46
-12.26
-17.87
-29.06
-41.95
-50.60
-48.22
-29.21
8.41
60.98
118.73
168.01
195.70
194.24
164.86
117.08
64.69
19.97
-10.58
-27.43
-35.69
-41.22
-47.55
-54.72
-59.95
-59.22
-48.78
-26.80
5.49
42.95
77.14
98.84
101.55
84.46
53.21
17.50
-13.27
-33.74
-43.76
-46.76
-46.46
-44.47
-40.12
-32.19
-21.04
-9.38
-1.15
0.61
-4.39
-13.56
-22.55
-27.51
-26.76
-21.32
-14.09
-8.25
-5.83
-6.90
-9.92
-12.68
-13.51
-11.96
-8.80
-5.46
-3.23
-2.61
-3.23
-4.13
-4.33
-3.29
-1.05
1.81
4.57
6.56
7.44
7.19
6.08
4.58
3.17
2.19
1.65
1.28
0.65
-0.52
-2.15
-3.84
-5.06
-5.59
-5.67
-5.89
-6.85
-8.78
-11.33
-13.68
-14.98
-14.81
-13.44
-11.72
-10.74
-11.32
-13.67
-17.36
-21.53
-25.33
-28.25
-30.30
-32.00
-34.02
-36.97
-41.07
-46.15
-51.51
-56.22
-59.24
-59.67
-57.23
-52.59
-47.51
-44.26
-44.56
-48.05
-51.48
-49.18
-35.19
-5.87
37.96
90.68
143.43
186.81
213.40
219.08
203.09
167.67
117.48
59.16
0.54
-50.79
-89.22
-112.67
-122.83
-123.89
-120.32
-114.81
-107.11
-94.40
-72.68
-38.48
9.44
69.02
134.60
197.81
249.18
280.51
286.86
267.56
225.90
168.04
101.68
34.84
-24.97
-71.52
-100.79
-111.89
-107.35
-92.43
-73.18
-54.40
-38.44
-25.39
-14.56
-5.95
-0.97
-1.60
-9.01
-22.41
-39.07
-55.40
-68.35
-76.34
-79.41
-78.47
-74.66
-68.98
-62.35
-55.84
-50.58
-47.47
-46.81
-48.30
-51.20
-54.84
-58.95
-63.68
-69.41
-76.36
-84.38
-92.98
-101.53
-109.41
-116.18
-121.57
-125.53
-128.34
-130.76
-134.01
-139.43
-147.72
-158.06
-167.80
-172.91
-169.25
-154.09
-126.97
-89.61
-44.68
5.44
59.29
115.86
173.41
228.66
277.16
314.76
339.33
351.80
355.61
355.18
354.02
353.78
354.29
354.32
352.32
346.80
336.33
319.42
294.83
262.00
221.25
173.65
120.60
63.65
4.93
-52.41
-104.10
-145.54
-173.30
-186.52
-187.34
-180.04
-169.21
-158.19
-148.23
-139.04
-129.83
-120.39
-111.35
-103.73
-98.21
-94.63
-92.05
-89.29
-85.52
-80.62
-75.30
-70.58
-67.19
-65.10
-63.32
-60.22
-54.31
-44.91
-32.61
-19.09
-6.43
3.66
10.42
14.06
15.26
14.78
13.02
10.12
6.15
1.28
-4.17
-9.84
-15.34
-20.19
-23.65
-24.85
-23.08
-18.17
-10.79
-2.34
5.53
11.48
14.90
15.87
14.94
12.70
9.65
6.14
2.53
-0.81
-3.63
-5.88
-7.78
-9.65
-11.60
-13.36
-14.21
-13.33
-10.24
-5.10
1.24
7.54
12.62
15.76
16.87
16.33
14.68
12.35
9.57
6.43
3.13
-0.05
-2.78
-4.87
-6.33
-7.40
-8.29
-9.00
-9.28
-8.75
-7.14
-4.53
-1.31
1.90
4.54
6.27
6.93
6.53
5.10
2.74
-0.37
-3.84
-7.21
-9.96
-11.78
-12.58
-12.52
-11.92
-11.16
-10.52
-10.14
-9.99
-9.87
-9.49
-8.58
-7.04
-4.98
-2.73
-0.68
0.87
1.84
2.33
2.53
2.58
2.51
2.32
2.03
1.76
1.60
1.59
1.64
1.59
1.31
0.77
0.05
-0.73
-1.49
-2.20
-2.84
-3.29
-3.41
-3.07
-2.33
-1.45
-0.88
-1.02
-2.02
-3.64
-5.35
-6.45
-6.45
-5.22
-3.09
-0.67
1.38
2.63
3.03
2.91
2.73
2.90
3.60
4.73
5.99
7.05
7.68
7.73
7.19
6.03
4.25
1.87
-0.94
-3.84
-6.34
-7.90
-8.17
-7.11
-5.00
-2.41
0.05
1.88
2.83
2.95
2.49
1.75
1.05
0.59
0.48
0.74
1.33
2.17
3.11
3.97
4.62
4.95
4.97
4.79
4.55
4.36
4.30
4.41
4.68
5.11
5.70
6.44
7.32
8.31
9.35
10.29
10.91
10.89
9.97
8.03
5.19
1.83
-1.54
-4.51
-6.86
-8.60
-9.86
-10.73
-11.21
-11.25
-10.85
-10.10
-9.17
-8.21
-7.28
-6.35
-5.37
-4.37
-3.49
-2.86
-2.57
-2.52
-2.51
-2.32
-1.82
-1.11
-0.42
-0.01
-0.06
-0.51
-1.15
-1.64
-1.73
-1.30
-0.50
0.41
1.18
1.65
1.80
1.73
1.52
1.22
0.80
0.23
-0.48
-1.31
-2.18
-3.03
-3.81
-4.44
-4.85
-4.93
-4.62
-3.93
-2.95
-1.82
-0.71
0.27
1.06
1.70
2.26
2.83
3.48
4.23
5.02
5.78
6.43
6.93
7.27
7.47
7.54
7.44
7.08
6.37
5.27
3.80
2.11
0.40
-1.11
-2.27
-2.99
-3.27
-3.17
-2.75
-2.11
-1.36
-0.62
-0.02
0.35
0.47
0.37
0.13
-0.10
-0.19
0.03
0.72
1.92
3.54
5.27
6.66
7.28
6.92
5.65
3.85
2.05
0.74
0.21
0.51
1.46
2.83
4.45
6.25
8.21
10.32
12.41
14.21
15.45
15.96
15.84
15.38
14.90
14.53
14.08
13.10
11.10
