1660939423.00
64.000000
-0.00
-0.00
-0.00
-0.00
-0.00
-0.00
-0.00
-0.00
-0.00
-0.00
0.00
0.01
0.01
-0.00
-0.03
-0.05
-0.05
0.00
0.13
0.36
0.66
1.01
1.37
1.72
2.06
2.40
2.79
3.25
3.81
4.44
5.10
5.73
6.32
6.90
7.52
8.26
9.15
10.27
11.51
12.75
13.86
14.82
15.71
16.72
18.07
19.90
22.41
25.37
28.48
31.47
34.20
36.80
39.62
43.13
47.61
53.37
60.02
66.98
73.71
79.95
85.89
92.15
99.46
108.28
118.97
130.86
143.03
154.65
165.36
175.50
185.95
198.15
210.65
225.37
242.50
261.90
282.39
301.42
315.18
319.53
311.26
289.27
255.35
212.71
165.22
116.10
67.35
19.90
-25.75
-69.12
-109.66
-146.91
-181.44
-214.60
-248.09
-283.20
-319.82
-355.94
-387.72
-410.69
-421.11
-417.60
-401.65
-377.08
-348.51
-319.72
-292.70
-267.71
-244.16
-221.44
-199.70
-179.51
-161.39
-145.34
-130.74
-116.74
-102.70
-88.53
-74.67
-61.90
-50.90
-41.92
-34.65
-28.35
-22.26
-15.85
-9.11
-2.48
3.44
8.13
11.50
13.85
15.69
17.50
19.53
21.69
23.73
25.38
26.49
27.10
27.34
27.34
27.15
26.82
26.36
25.81
25.21
24.62
24.03
23.40
22.71
21.98
21.27
20.65
20.13
19.66
19.15
18.52
17.72
16.84
15.98
15.30
14.89
14.75
14.76
14.77
14.62
14.24
13.65
12.98
12.39
11.97
11.71
11.53
11.35
11.11
10.82
10.54
10.27
9.99
9.67
9.28
8.87
8.50
8.20
7.98
7.77
7.56
7.33
7.12
6.93
6.75
6.55
6.26
5.91
5.52
5.17
4.90
4.71
4.56
4.41
4.22
3.97
3.63
3.21
2.72
2.25
1.83
1.47
1.13
0.71
0.14
-0.59
-1.38
-2.16
-2.85
-3.46
-4.04
-4.61
-5.19
-5.74
-6.22
-6.63
-7.00
-7.39
-7.84
-8.33
-8.78
-9.12
-9.30
-9.28
-9.08
-8.77
-8.38
-7.96
-7.54
-7.14
-6.76
-6.40
-6.02
-5.60
-5.08
-4.45
-3.73
-2.97
-2.23
-1.62
-1.15
-0.82
-0.60
-0.43
-0.25
-0.05
0.20
0.53
0.92
1.33
1.70
1.94
2.02
1.95
1.82
1.73
1.76
1.93
2.23
2.62
3.08
3.59
4.08
4.46
4.62
4.54
4.25
3.89
3.65
3.63
3.84
4.20
4.58
4.86
4.98
4.97
4.88
4.77
4.65
4.53
4.42
4.30
4.21
4.17
4.19
4.26
4.33
4.31
4.16
3.86
3.49
3.15
2.95
2.93
3.08
3.31
3.52
3.62
3.59
3.47
3.32
3.16
3.00
2.85
2.68
2.50
2.32
2.14
1.96
1.80
1.65
1.55
1.48
1.44
1.39
1.28
1.15
1.03
1.02
1.17
1.49
1.88
2.25
2.50
2.59
2.51
2.28
1.90
1.40
0.88
0.44
0.19
0.19
0.38
0.66
0.88
0.98
0.94
0.84
0.75
0.71
0.71
0.73
0.74
0.74
0.71
0.67
0.59
0.49
0.40
0.37
0.43
0.57
0.75
0.96
1.19
1.46
1.76
2.05
2.24
2.28
2.18
2.03
1.94
1.97
2.08
2.16
2.12
1.94
1.66
1.40
1.24
1.20
1.21
1.20
1.11
0.95
0.73
0.51
0.32
0.18
0.09
0.03
-0.02
-0.08
-0.18
-0.26
-0.29
-0.19
0.07
0.44
0.83
1.12
1.23
1.17
1.02
0.88
0.82
0.79
0.71
0.51
0.23
0.01
-0.01
0.25
0.73
1.24
1.59
1.63
1.39
1.00
0.64
0.44
0.42
0.51
0.59
0.55
0.38
0.14
-0.07
-0.13
0.00
0.27
0.57
0.76
0.77
0.60
0.35
0.18
0.16
0.32
0.55
0.70
0.67
0.45
0.15
-0.08
-0.10
0.05
0.27
0.36
0.23
-0.07
-0.36
-0.44
-0.21
0.29
0.85
1.28
1.47
1.39
1.15
0.86
0.61
0.45
0.40
0.44
0.55
0.69
0.82
0.89
0.87
0.75
0.56
0.33
0.10
-0.08
-0.20
-0.27
-0.31
-0.36
-0.42
-0.48
-0.54
-0.60
-0.62
-0.58
-0.42
-0.11
0.35
0.90
1.41
1.75
1.85
1.71
1.40
1.05
0.72
0.46
0.26
0.11
-0.01
-0.06
-0.03
0.08
0.27
0.48
0.66
0.74
0.69
0.51
0.24
-0.02
-0.20
-0.26
-0.22
-0.12
-0.03
0.03
0.05
0.08
0.14
0.22
0.31
0.37
0.44
0.53
0.68
0.87
1.04
1.11
1.03
0.82
0.55
0.32
0.21
0.21
0.30
0.41
0.48
0.46
0.33
0.10
-0.20
-0.47
-0.60
-0.51
-0.21
0.16
0.42
0.41
0.13
-0.30
-0.62
-0.66
-0.41
0.00
0.42
0.70
0.87
1.02
1.21
1.44
1.60
1.61
1.48
1.33
1.32
1.51
1.80
1.98
1.84
1.31
0.54
-0.24
-0.80
-1.04
-1.04
-0.97
-0.99
-1.13
-1.35
-1.56
-1.76
-2.02
-2.46
-3.17
-4.12
-5.18
-6.19
-7.06
-7.84
-8.75
-10.07
-12.02
-14.63
-17.74
-21.02
-24.10
-26.77
-29.04
-31.19
-33.66
-36.88
-41.04
-46.00
-51.31
-56.36
-60.68
-64.21
-67.40
-71.01
-75.82
-82.15
-89.65
-97.40
-104.35
-109.85
-114.02
-117.74
-122.24
-128.58
-137.42
-148.90
-162.79
-178.38
-194.24
-207.91
-216.12
-215.51
-203.71
-180.26
-146.70
-105.77
-60.15
-11.57
39.10
90.86
141.52
187.43
224.42
249.47
262.16
264.84
261.62
256.52
252.06
248.91
246.57
244.57
243.24
243.57
246.47
251.90
258.69
264.98
269.20
270.82
270.61
270.38
272.12
277.17
285.58
295.75
304.67
308.63
304.27
289.73
265.19
232.83
195.80
157.08
118.40
79.96
40.72
-0.86
-45.82
-93.92
-143.24
-190.30
-230.77
-260.64
-277.55
-281.52
-274.93
-261.51
-244.96
-227.92
-211.61
-196.34
-182.14
-169.31
-158.24
-149.04
-141.22
-133.76
-125.57
-116.07
-105.47
-94.60
-84.60
-76.31
-69.93
-64.98
-60.57
-55.81
-50.20
-43.84
-37.32
-31.41
-26.73
-23.47
-21.33
-19.75
-18.13
-16.11
-13.65
-10.99
-8.51
-6.51
-5.11
-4.21
-3.58
-2.98
-2.25
-1.37
-0.44
0.36
0.88
1.09
1.03
0.80
0.51
0.23
-0.04
-0.28
-0.50
-0.70
-0.84
-0.92
-0.95
-0.94
-0.90
-0.80
-0.59
-0.27
0.14
0.56
0.90
1.08
1.11
1.03
0.93
0.87
0.83
0.76
0.62
0.41
0.20
0.06
0.04
0.11
0.19
0.18
-0.00
-0.33
-0.75
-1.15
-1.42
-1.50
-1.39
-1.18
-0.99
-0.92
-1.01
-1.19
-1.35
-1.39
-1.28
-1.10
-0.94
-0.87
-0.87
-0.88
-0.82
-0.66
-0.40
-0.07
0.28
0.63
0.93
1.15
1.24
1.19
1.05
0.91
0.88
1.01
1.27
1.57
1.83
1.97
1.99
1.93
1.83
1.70
1.52
1.24
0.84
0.36
-0.13
-0.54
-0.81
-0.94
-0.96
-0.88
-0.73
-0.52
-0.27
-0.06
0.01
-0.12
-0.40
-0.71
-0.87
-0.74
-0.34
0.22
0.74
1.12
1.33
1.47
1.65
1.88
2.09
2.10
1.84
1.32
0.71
0.25
0.10
0.27
0.66
1.08
1.39
1.54
1.54
1.47
1.38
1.27
1.14
0.95
0.70
0.38
0.02
-0.32
-0.58
-0.71
-0.71
-0.63
-0.51
-0.40
-0.28
-0.09
0.26
0.79
1.42
2.04
2.48
2.69
2.65
2.45
2.17
1.83
1.43
0.94
0.36
-0.25
-0.80
-1.19
-1.40
-1.44
-1.36
-1.21
-1.02
-0.81
-0.61
-0.42
-0.26
-0.15
-0.08
-0.04
-0.02
-0.01
0.03
0.13
0.34
0.70
1.18
1.72
2.24
2.68
2.99
3.16
3.22
3.19
3.14
3.08
3.03
2.91
2.66
2.16
1.37
0.33
-0.85
-2.01
-3.03
-3.82
-4.39
-4.74
-4.92
-4.93
-4.78
-4.52
-4.20
-3.91
-3.70
-3.60
-3.59
-3.60
-3.58
-3.51
-3.37
-3.21
-3.03
-2.88
-2.74
-2.59
-2.43
-2.23
-2.00
-1.75
-1.52
-1.36
-1.32
-1.41
-1.60
-1.83
-1.99
-2.01
-1.86
-1.60
-1.31
-1.05
-0.84
-0.62
-0.30
0.21
0.92
1.76
2.65
3.48
4.20
4.82
5.39
5.93
6.46
6.90
7.17
7.18
6.88
6.31
5.60
4.88
4.29
3.88
3.62
3.43
3.28
3.20
3.28
3.58
4.07
4.60
4.97
5.03
4.71
4.08
3.24
2.32
1.34
0.30
-0.83
-2.03
-3.23
-4.32
-5.19
-5.76
-5.96
-5.84
-5.47
-5.01
-4.64
-4.50
-4.59
-4.79
-4.91
-4.79
-4.37
-3.76
-3.15
-2.70
-2.46
-2.36
-2.27
-2.06
-1.73
-1.35
-1.03
-0.86
-0.85
-0.94
-1.05
-1.10
-1.10
-1.06
-1.03
-1.07
-1.19
-1.36
-1.55
-1.68
-1.72
-1.62
-1.37
-0.95
-0.39
0.25
0.86
1.31
1.53
1.51
1.34
1.11
0.91
0.73
0.53
0.25
-0.13
-0.55
-0.91
-1.17
-1.31
-1.38
-1.44
-1.49
-1.46
-1.21
-0.62
0.37
1.66
3.04
4.21
4.89
4.90
4.26
3.13
1.77
0.45
-0.63
-1.39
-1.84
-2.04
-2.04
-1.90
-1.61
-1.18
-0.65
-0.15
0.16
0.12
-0.31
-1.01
-1.74
-2.31
-2.60
-2.70
-2.77
-2.88
-2.99
-2.91
-2.41
-1.43
-0.08
1.36
2.60
3.49
4.03
4.35
4.62
4.93
5.27
5.56
5.71
5.72
5.61
5.46
5.34
5.23
5.07
4.73
4.14
3.30
2.31
1.29
0.35
-0.48
-1.22
-1.89
-2.49
-2.97
-3.26
-3.36
-3.30
-3.17
-3.05
-3.00
-3.01
-3.06
-3.11
-3.11
-3.07
-2.99
-2.93
-2.94
-3.08
-3.37
-3.76
-4.14
-4.37
-4.27
-3.71
-2.67
-1.22
0.47
2.19
3.76
5.11
6.24
7.14
7.81
8.15
8.12
7.71
7.04
6.32
5.77
5.51
5.49
5.53
5.44
5.07
4.39
3.51
2.55
1.68
0.95
0.39
-0.06
-0.47
-0.88
-1.31
-1.75
-2.18
-2.61
-3.01
-3.34
-3.50
-3.40
-2.98
-2.26
-1.34
-0.41
0.35
0.80
0.87
0.64
0.23
-0.15
-0.35
-0.29
-0.03
0.27
0.42
0.27
-0.21
-0.96
-1.85
-2.75
-3.57
-4.23
-4.72
-4.99
-5.03
-4.88
-4.58
-4.22
-3.85
-3.53
-3.28
-3.10
-2.98
-2.93
-2.90
-2.79
-2.51
-1.98
-1.16
-0.08
1.15
2.41
3.57
4.50
5.11
5.36
5.24
4.82
4.23
3.64
3.19
2.93
2.79
2.69
2.49
2.14
1.63
0.99
0.26
-0.55
-1.40
-2.23
-2.93
-3.42
-3.63
-3.60
-3.45
-3.33
-3.32
-3.44
-3.61
-3.71
-3.63
-3.36
-2.91
-2.38
-1.82
-1.31
-0.87
-0.53
-0.30
-0.17
-0.10
-0.05
0.01
0.08
0.10
-0.00
-0.24
-0.59
-0.97
-1.33
-1.65
-1.98
-2.38
-2.83
-3.28
-3.61
-3.72
-3.59
-3.21
-2.64
-1.88
-0.93
0.19
1.41
2.59
3.58
4.28
4.67
4.81
4.80
4.68
4.47
4.12
3.63
3.04
2.47
2.05
1.89
1.99
2.26
2.55
2.67
2.53
2.10
1.47
0.77
0.10
-0.46
-0.90
-1.26
-1.58
-1.89
-2.22
-2.54
-2.84
-3.10
-3.33
-3.55
-3.75
-3.94
-4.10
-4.22
-4.25
-4.19
-4.04
-3.82
-3.55
-3.24
-2.83
-2.20
-1.22
0.19
2.02
4.11
6.17
7.87
8.99
9.44
9.35
8.96
8.51
8.16
7.97
7.86
7.73
7.49
7.11
6.58
5.95
5.26
4.56
3.88
3.28
2.76
2.31
1.90
1.50
1.07
0.64
0.22
-0.19
-0.61
-1.09
-1.68
-2.38
-3.17
-3.99
-4.79
-5.51
-6.13
-6.63
-6.98
-7.17
-7.18
-7.06
-6.85
-6.59
-6.32
-6.08
-5.91
-5.87
-5.99
-6.25
-6.53
-6.72
-6.72
-6.51
-6.16
-5.79
-5.45
-5.12
-4.75
-4.30
-3.80
-3.35
-3.04
-2.92
-2.98
-3.14
-3.38
-3.67
-3.98
-4.20
-4.09
-3.40
-1.94
0.27
2.97
5.71
8.03
9.61
10.38
10.50
10.27
9.99
9.82
9.82
9.90
9.96
9.94
9.83
9.72
9.66
9.64
9.58
9.34
8.81
7.99
7.01
6.10
5.51
5.34
5.58
6.04
6.51
6.76
6.61
5.95
4.71
2.92
0.73
-1.61
-3.80
-5.57
-6.80
-7.55
-7.99
-8.28
-8.50
-8.62
-8.55
-8.25
-7.75
-7.19
-6.73
-6.42
-6.23
-6.04
-5.72
-5.24
-4.69
-4.22
-3.99
-4.05
-4.30
-4.55
-4.57
-4.26
-3.61
-2.76
-1.89
-1.14
-0.59
-0.21
0.07
0.36
0.72
1.14
1.56
1.89
2.08
2.17
2.28
2.51
2.89
3.29
3.55
3.48
3.03
2.31
1.49
0.76
0.21
-0.17
-0.42
-0.59
-0.67
-0.65
-0.57
-0.54
-0.66
-1.01
-1.48
-1.88
-1.98
-1.67
-0.99
-0.14
0.62
1.12
1.30
1.23
1.05
0.83
0.59
0.25
-0.24
-0.91
-1.68
-2.41
-2.93
-3.15
-3.06
-2.73
-2.28
-1.80
-1.34
-0.90
-0.47
-0.09
0.15
0.14
-0.14
-0.63
-1.17
-1.53
-1.56
-1.27
-0.78
-0.33
-0.09
-0.11
-0.29
-0.39
-0.22
0.32
1.15
2.11
3.06
3.94
4.81
5.71
6.62
7.34
7.66
7.43
6.71
5.75
4.86
4.28
4.03
3.96
3.88
3.62
3.19
2.66
2.15
1.72
1.33
0.94
0.49
0.00
-0.47
-0.83
-1.05
-1.09
-1.03
-0.95
-0.99
-1.20
-1.61
-2.14
-2.69
-3.17
-3.51
-3.74
-3.94
-4.16
-4.45
-4.74
-4.92
-4.87
-4.55
-4.03
-3.49
-3.07
-2.89
-2.90
-2.94
-2.84
-2.50
-1.94
-1.27
-0.65
-0.16
0.23
0.59
1.00
1.44
1.85
2.17
2.37
2.50
2.63
2.81
3.03
3.20
3.21
3.00
2.55
1.95
1.32
0.75
0.31
0.03
-0.12
-0.17
-0.16
-0.15
-0.20
-0.38
-0.70
-1.12
-1.56
-1.95
-2.25
-2.47
-2.67
-2.88
-3.09
-3.27
-3.38
-3.43
-3.49
-3.64
-3.98
-4.52
-5.19
-5.87
-6.44
-6.78
-6.83
-6.59
-6.11
-5.48
-4.84
-4.37
-4.24
-4.51
-5.02
-5.33
-4.83
-2.97
0.44
5.07
10.09
14.47
17.33
18.30
17.54
15.64
13.27
11.00
9.16
7.87
7.15
6.96
7.20
7.68
8.13
8.27
7.85
6.77
5.08
3.00
0.82
-1.16
-2.74
-3.83
-4.47
-4.81
-5.00
-5.17
-5.31
-5.38
-5.25
-4.86
-4.19
-3.32
-2.38
-1.52
-0.82
-0.32
0.02
0.26
0.44
0.56
0.55
0.36
0.01
-0.49
-1.05
-1.61
-2.10
-2.48
-2.78
-3.01
-3.25
-3.59
-4.11
-4.83
-5.72
-6.64
-7.42
-7.95
-8.18
-8.15
-7.93
-7.61
-7.22
-6.79
-6.35
-5.92
-5.46
-4.81
-3.71
-1.90
0.71
3.88
7.07
9.58
10.87
10.82
9.75
8.24
6.83
5.78
5.01
4.29
3.41
2.37
1.37
0.64
0.29
0.28
0.42
0.52
0.49
0.36
0.26
0.34
0.68
1.25
1.92
2.49
2.77
2.63
2.10
1.30
0.47
-0.20
-0.56
-0.58
-0.27
0.34
1.22
2.26
3.32
4.16
4.57
4.48
3.97
3.24
2.55
2.05
1.78
1.66
1.57
1.39
1.06
0.58
-0.02
-0.71
-1.40
-2.02
-2.47
-2.68
-2.64
-2.42
-2.13
-1.85
-1.62
-1.43
-1.22
-0.95
-0.56
-0.06
0.52
1.11
1.64
2.05
2.28
2.26
1.95
1.35
0.50
-0.46
-1.42
-2.22
-2.78
-3.10
-3.24
-3.31
-3.40
-3.61
-3.94
-4.36
-4.82
-5.27
-5.67
-5.96
-6.11
-6.10
-5.95
-5.70
-5.42
-5.16
-4.94
-4.76
-4.63
-4.56
-4.57
-4.70
-4.95
-5.29
-5.71
-6.16
-6.60
-6.95
-7.16
-7.16
-6.90
-6.31
-5.28
-3.65
-1.29
1.85
5.55
9.40
12.82
15.35
16.78
17.19
16.89
16.26
15.54
14.85
14.21
13.58
12.97
12.41
11.91
11.46
11.03
10.56
10.04
9.49
8.95
8.52
8.25
8.17
8.27
8.45
8.52
8.15
7.00
4.83
1.64
-2.24
-6.23
-9.68
-12.11
-13.36
-13.60
-13.20
-12.51
-11.75
-10.99
-10.23
-9.48
-8.80
-8.25
-7.82
-7.48
-7.14
-6.75
-6.29
-5.77
-5.22
-4.66
-4.14
-3.73
-3.46
-3.33
-3.28
-3.22
-3.06
-2.81
-2.54
-2.36
-2.34
-2.43
-2.52
-2.49
-2.31
-2.04
-1.82
-1.72
-1.69
-1.52
-1.00
0.01
1.48
3.22
4.94
6.38
7.37
7.89
7.95
7.61
6.89
5.87
4.67
3.46
2.44
1.74
1.39
1.30
1.34
1.38
1.37
1.31
1.25
1.30
1.51
1.90
2.40
2.85
3.05
2.85
2.22
1.28
0.21
-0.80
-1.67
-2.42
-3.15
-3.93
-4.80
-5.70
-6.56
-7.30
-7.87
-8.24
-8.36
-8.25
-7.87
-7.28
-6.54
-5.77
-5.10
-4.67
-4.56
-4.74
-5.11
-5.46
-5.58
-5.37
-4.84
-4.15
-3.51
-3.09
-2.97
-3.13
-3.42
-3.63
-3.50
-2.74
-1.17
1.26
4.40
7.91
11.31
14.17
16.15
17.12
17.15
16.44
15.23
13.73
12.09
10.39
8.68
7.04
5.54
4.27
3.24
2.44
1.78
1.14
0.47
-0.24
-0.93
-1.54
-2.01
-2.32
-2.52
-2.70
-2.94
-3.28
-3.70
-4.12
-4.41
-4.49
-4.34
-4.02
-3.65
-3.36
-3.22
-3.22
-3.26
-3.19
-2.85
-2.16
-1.09
0.24
1.60
2.72
3.37
3.42
2.96
2.20
1.44
0.90
0.70
0.77
0.97
1.18
1.31
1.38
1.41
1.41
1.35
1.19
0.89
0.46
-0.03
-0.52
-1.00
-1.48
-1.99
-2.51
-2.92
-3.07
-2.79
-2.04
-0.93
0.31
1.37
2.04
2.22
1.99
1.53
1.05
0.66
0.39
0.19
-0.00
-0.23
-0.50
-0.81
-1.17
-1.58
-2.04
-2.47
-2.75
-2.80
-2.62
-2.37
-2.28
-2.59
-3.38
-4.56
-5.91
-7.12
-7.96
-8.36
-8.38
-8.20
-8.02
-7.88
-7.62
-6.85
-5.14
-2.17
2.06
7.21
12.66
17.71
21.79
24.56
25.88
25.77
24.37
21.87
18.61
15.03
11.57
8.56
6.13
4.19
2.52
0.89
-0.84
-2.69
-4.54
-6.25
-7.65
-8.65
-9.22
-9.40
-9.28
-9.01
-8.72
-8.54
-8.52
-8.60
-8.63
-8.40
-7.73
-6.59
-5.10
-3.55
-2.22
-1.34
-0.93
-0.87
-0.95
-1.00
-0.95
-0.82
-0.71
-0.67
-0.72
-0.86
-1.07
-1.36
-1.72
-2.14
-2.57
-3.00
-3.38
-3.71
-3.94
-4.00
-3.82
-3.34
-2.58
-1.63
-0.68
0.09
0.59
0.81
0.85
0.84
0.89
1.05
1.30
1.62
1.96
2.34
2.77
3.25
3.75
4.18
4.43
4.40
4.03
3.35
2.47
1.51
0.66
0.04
-0.27
-0.29
-0.12
0.10
0.24
0.20
-0.04
-0.39
-0.76
-1.00
-1.01
-0.76
-0.27
0.33
0.84
1.02
0.72
-0.06
-1.08
-1.95
-2.24
-1.71
-0.38
1.45
3.35
4.88
5.82
6.14
5.96
5.45
4.74
3.89
2.91
1.87
0.88
0.07
-0.44
-0.65
-0.67
-0.65
-0.71
-0.90
-1.17
-1.43
-1.59
-1.63
-1.58
-1.51
-1.48
-1.50
-1.52
-1.51
-1.47
-1.43
-1.43
-1.51
-1.66
-1.81
-1.91
-1.95
-1.98
-2.07
-2.29
-2.63
-2.99
-3.26
-3.30
-3.11
-2.74
-2.26
-1.78
-1.36
-1.03
-0.84
-0.82
-1.01
-1.38
-1.84
-2.27
-2.55
-2.61
-2.48
-2.23
-1.94
-1.68
-1.46
-1.31
-1.22
-1.19
-1.22
-1.30
-1.44
-1.67
-2.02
-2.53
-3.20
-3.95
-4.62
-4.96
-4.77
-3.94
-2.47
-0.54
1.56
3.55
5.16
6.23
6.73
6.77
6.56
6.32
6.28
6.55
7.10
7.80
8.46
8.93
9.12
9.05
8.78
8.37
7.86
7.27
6.63
6.02
5.47
4.98
4.48
3.94
3.33
2.70
2.16
1.77
1.56
1.47
1.37
1.10
0.52
-0.42
-1.69
-3.15
-4.55
-5.61
-6.13
-6.07
-5.58
-4.92
-4.33
-3.93
-3.64
-3.34
-2.94
-2.47
-2.04
-1.79
-1.76
-1.89
-2.08
-2.24
-2.38
-2.52
-2.71
-2.93
-3.10
-3.17
-3.11
-2.97
-2.84
-2.80
-2.89
-3.06
-3.24
-3.32
-3.21
-2.90
-2.43
-1.90
-1.44
-1.11
-0.93
-0.82
-0.66
-0.35
0.16
0.84
1.59
2.28
2.82
3.14
3.19
2.97
2.51
1.83
1.00
0.12
-0.69
-1.32
-1.68
-1.73
-1.51
-1.12
-0.69
-0.30
-0.02
0.13
0.18
0.13
0.03
-0.09
-0.16
-0.12
0.10
0.47
0.94
1.41
1.78
2.02
2.12
2.08
1.90
1.61
1.24
0.86
0.59
0.54
0.74
1.11
1.49
1.71
1.67
1.32
0.68
-0.18
-1.17
-2.14
-2.92
-3.32
-3.25
-2.75
-2.04
-1.38
-1.01
-0.99
-1.21
-1.42
-1.42
-1.06
-0.38
0.48
1.33
2.04
2.54
2.88
3.11
3.32
3.56
3.83
4.15
4.51
4.91
5.34
5.72
5.94
5.85
5.36
4.45
3.24
1.92
0.70
-0.27
-0.95
-1.39
-1.71
-2.02
-2.34
-2.64
-2.82
-2.83
-2.69
-2.49
-2.34
-2.33
-2.47
-2.72
-3.01
-3.27
-3.51
-3.77
-4.11
-4.58
-5.19
-5.91
-6.64
-7.29
-7.76
-8.04
-8.16
-8.20
-8.17
-7.97
-7.40
-6.17
-4.13
-1.31
1.97
5.22
7.92
9.75
10.65
10.83
10.60
10.24
9.85
9.40
8.85
8.15
7.38
6.62
5.91
5.20
4.40
3.43
2.33
1.24
0.32
-0.29
-0.60
-0.72
-0.84
-1.11
-1.61
-2.29
-2.98
-3.42
-3.41
-2.85
-1.83
-0.62
0.46
1.14
1.37
1.28
1.07
0.93
0.94
0.99
0.95
0.68
0.13
-0.67
-1.63
-2.62
-3.55
-4.35
-5.03
-5.60
-6.11
-6.57
-6.95
-7.17
-7.16
-6.82
-6.17
-5.29
-4.31
-3.46
-2.95
-2.89
-3.19
-3.56
-3.48
-2.51
-0.42
2.60
5.96
8.89
10.72
11.13
10.22
8.40
6.15
3.87
1.80
0.11
-1.08
-1.62
-1.47
-0.73
0.32
1.26
1.74
1.60
0.95
0.08
-0.66
-0.98
-0.79
-0.13
0.81
1.83
2.70
3.26
3.40
3.09
2.43
1.59
0.79
0.20
-0.07
-0.01
0.30
0.74
1.16
1.41
1.39
1.04
0.40
-0.43
-1.31
-2.12
-2.80
-3.35
-3.81
-4.23
-4.64
-5.07
-5.55
-6.09
-6.68
-7.29
-7.80
-8.13
-8.20
-8.04
-7.76
-7.45
-7.19
-6.96
-6.64
-6.12
-5.29
-4.13
-2.59
-0.67
1.68
4.45
7.54
10.66
13.44
15.51
16.65
16.92
16.51
15.71
14.70
13.51
12.07
10.33
8.35
6.31
4.45
2.93
1.76
0.78
-0.21
-1.40
-2.86
-4.50
-6.16
-7.65
-8.81
-9.60
-10.11
-10.47
-10.82
-11.24
-11.70
-12.11
-12.36
-12.39
-12.26
-12.12
-12.12
-12.37
-12.81
-13.18
-13.12
-12.27
-10.41
-7.53
-3.75
0.74
5.77
11.14
16.51
21.38
25.15
27.32
27.75
26.73
24.85
22.72
20.68
18.73
16.70
14.43
12.00
9.69
7.79
6.50
5.76
5.37
5.03
4.50
3.66
2.49
1.07
-0.45
-1.92
-3.25
-4.44
-5.55
-6.69
-7.90
-9.12
-10.18
-10.96
-11.35
-11.42
-11.28
-11.09
-10.91
-10.75
-10.54
-10.27
-9.93
-9.57
-9.24
-8.97
-8.72
-8.43
-8.09
-7.72
-7.40
-7.21
-7.20
-7.29
-7.38
-7.34
-7.15
-6.81
-6.47
-6.25
-6.25
-6.49
-6.92
-7.37
-7.63
-7.49
-6.74
-5.32
-3.26
-0.76
1.91
4.46
6.67
8.43
9.78
10.78
11.48
11.92
12.04
11.82
11.27
10.50
9.67
8.91
8.31
7.85
7.50
7.19
6.90
6.63
6.37
6.10
5.80
5.44
5.02
4.62
4.34
4.30
4.57
5.14
5.92
6.68
7.14
7.04
6.22
4.70
2.68
0.49
-1.57
-3.23
-4.37
-4.96
-5.09
-4.90
-4.57
-4.29
-4.18
-4.30
-4.60
-4.97
-5.28
-5.46
-5.53
-5.59
-5.74
-5.99
-6.30
-6.51
-6.44
-5.98
-5.17
-4.12
-3.03
-2.04
-1.21
-0.52
0.08
0.58
0.90
0.94
0.68
0.27
0.03
0.30
1.27
2.87
4.76
6.49
7.68
8.19
8.11
7.66
6.99
6.13
5.01
3.53
1.72
-0.28
-2.18
-3.73
-4.77
-5.30
-5.45
-5.35
-5.13
-4.81
-4.34
-3.68
-2.82
-1.79
-0.67
0.54
1.87
3.39
5.08
6.80
8.22
8.98
8.79
7.63
5.79
3.73
1.87
0.43
-0.68
-1.71
-2.82
-3.98
-4.93
-5.37
-5.14
-4.38
-3.45
-2.73
-2.49
-2.76
-3.41
-4.27
-5.19
-6.08
-6.88
-7.51
-7.88
-7.88
-7.46
-6.64
-5.48
-4.09
-2.56
-0.98
0.63
2.25
3.87
5.42
6.82
7.95
8.66
8.86
8.51
7.63
6.34
4.80
3.21
1.74
0.51
-0.41
-1.07
-1.53
-1.85
-2.08
-2.25
-2.44
-2.68
-3.00
-3.31
-3.49
-3.39
-3.00
-2.43
-1.85
-1.43
-1.18
-0.93
-0.41
0.62
2.24
4.35
6.69
8.93
10.74
11.85
12.07
11.30
9.58
7.10
4.17
1.16
-1.52
-3.58
-4.89
-5.50
-5.61
-5.43
-5.18
-4.96
-4.77
-4.60
-4.47
-4.45
-4.66
-5.17
-5.94
-6.79
-7.48
-7.87
-7.97
-7.98
-8.18
-8.73
-9.60
-10.58
-11.38
-11.87
-12.15
-12.58
-13.58
-15.43
-18.12
-21.32
-24.54
-27.37
-29.69
-31.79
-34.22
-37.57
-42.13
-47.74
-53.75
-59.30
-63.70
-66.73
-68.84
-71.05
-74.52
-80.16
-88.23
-98.20
-108.99
-119.34
-128.29
-135.59
-141.80
-148.16
-156.29
-167.64
-182.90
-201.33
-220.48
-236.49
-245.07
-242.81
-228.43
-203.14
-170.10
-133.03
-94.79
-56.49
-17.44
23.95
68.96
117.31
166.65
212.81
250.88
276.60
287.67
284.44
269.79
248.06
223.78
200.58
180.60
164.63
152.56
143.87
137.79
133.40
129.57
125.12
119.15
111.33
102.10
92.60
84.30
78.43
75.47
74.90
75.42
75.53
74.11
70.94
66.74
62.75
60.25
59.89
61.53
64.33
67.26
69.58
71.31
73.08
75.71
79.78
85.16
91.18
97.09
102.70
108.48
115.06
122.36
129.08
132.88
131.36
123.00
107.86
87.51
64.47
41.60
21.89
8.13
2.50
5.78
16.54
30.72
42.37
45.46
36.17
14.55
-15.25
-46.38
-71.73
-86.24
-88.52
-81.41
-70.98
-64.55
-68.09
-84.14
-110.89
-143.02
-173.86
-198.01
-213.09
-219.96
-221.34
-220.06
-217.69
-214.40
-209.94
-204.73
-200.28
-198.60
-200.99
-207.29
-215.97
-225.05
-232.96
-238.94
-242.51
-242.87
-238.39
-226.91
-206.58
-176.66
-137.71
-91.20
-38.93
17.22
74.91
130.84
180.76
220.45
247.28
261.46
266.23
266.45
266.53
268.71
272.57
276.03
277.05
275.07
271.30
267.94
266.92
268.96
273.58
279.58
285.70
290.75
293.51
292.28
284.98
269.68
245.35
212.37
172.43
127.65
79.68
29.34
-22.91
-75.84
-126.62
-171.03
-204.68
-224.86
-231.71
-228.21
-218.81
-207.68
-197.30
-188.23
-179.82
-171.39
-162.97
-155.29
-149.24
-145.23
-142.87
-141.28
-139.44
-136.60
-132.50
-127.54
-122.69
-119.39
-119.18
-123.11
-131.35
-142.94
-156.07
-168.61
-178.73
-185.28
-187.94
-187.14
-183.90
-179.81
-176.70
-176.19
-178.85
-183.50
-187.16
-185.70
-175.14
-153.00
-119.12
-75.83
-27.57
20.26
62.62
96.18
120.01
135.65
145.95
153.63
160.02
164.69
166.17
163.32
156.41
147.37
138.98
133.41
131.31
131.68
132.66
132.58
130.76
127.44
123.39
119.16
114.68
109.32
102.38
93.73
84.08
74.81
67.40
62.74
60.82
60.72
61.16
60.98
59.43
56.33
51.83
46.29
40.08
33.55
27.12
21.34
16.88
14.43
14.54
17.35
22.51
29.21
36.37
43.04
48.74
53.56
58.14
63.24
69.35
76.49
84.19
91.70
98.37
103.93
108.64
113.31
119.15
127.55
139.44
154.61
171.00
184.67
190.66
184.70
164.96
132.89
92.70
49.34
6.23
-36.01
-79.04
-124.95
-174.01
-223.51
-268.16
-301.55
-318.00
-313.76
-287.64
-241.38
-179.91
-111.42
-46.59
3.16
28.41
24.52
-6.83
-57.94
-117.44
-173.67
-217.76
-245.58
-257.93
-259.42
-256.14
-253.35
-253.63
-256.22
-257.49
-252.49
-236.70
-207.44
-164.51
-110.35
-49.67
11.26
65.71
108.10
135.41
148.23
150.44
147.84
145.98
148.26
154.78
162.38
165.72
159.33
139.93
108.30
69.90
33.45
7.88
-1.05
6.95
26.97
51.52
73.94
90.84
102.42
110.70
117.50
123.24
127.39
129.65
130.79
132.41
135.91
141.54
148.17
153.98
157.61
159.04
159.70
161.82
167.34
176.95
189.66
202.91
213.22
217.07
211.99
197.45
174.94
147.41
117.92
88.09
57.40
23.58
-15.62
-60.44
-107.93
-152.54
-188.20
-210.71
-219.50
-217.35
-208.86
-198.31
-188.23
-178.95
-169.15
-156.88
-140.68
-120.54
-98.39
-77.66
-62.16
-54.49
-54.73
-60.30
-67.12
-71.58
-72.09
-69.40
-65.52
-62.10
-59.33
-56.11
-51.11
-44.03
-36.01
-29.01
-24.65
-23.32
-24.07
-25.05
-24.58
-21.89
-17.37
-12.32
-8.23
-6.11
-6.10
-7.44
-8.93
-9.48
-8.58
-6.43
-3.80
-1.57
-0.38
-0.35
-1.11
-2.04
-2.59
-2.52
-1.94
-1.22
-0.75
-0.74
-1.17
-1.84
-2.49
-2.94
-3.14
-3.16
-3.09
-3.03
-3.00
-3.00
-3.02
-3.06
-3.12
-3.20
-3.25
-3.24
-3.10
-2.86
-2.55
-2.28
-2.13
-2.14
-2.25
-2.36
-2.31
-2.04
-1.64
-1.29
-1.23
-1.58
-2.29
-3.13
-3.81
-4.15
-4.17
-4.10
-4.24
-4.76
-5.61
-6.53
-7.13
-7.04
-6.06
-4.17
-1.59
1.32
4.07
6.17
7.26
7.14
5.91
3.93
1.81
0.25
-0.07
1.32
4.53
