1660328149.00
64.000000
-0.00
-0.00
-0.00
-0.00
-0.00
-0.00
-0.00
-0.00
-0.00
-0.00
0.00
0.01
0.01
-0.00
-0.03
-0.05
-0.05
0.00
0.13
0.36
0.66
1.01
1.37
1.72
2.06
2.40
2.79
3.24
3.80
4.42
5.06
5.66
6.20
6.68
7.15
7.68
8.31
9.14
10.09
11.04
11.88
12.56
13.14
13.76
14.65
15.96
17.91
20.32
22.90
25.38
27.58
29.57
31.68
34.32
37.81
42.54
48.15
54.10
59.83
64.97
69.58
74.14
79.34
85.71
93.76
103.00
112.62
121.73
129.77
136.75
143.30
150.75
157.77
166.64
177.95
191.79
206.97
220.57
228.25
225.36
208.53
176.87
132.76
80.05
23.07
-34.94
-92.44
-149.16
-205.23
-260.37
-313.74
-363.87
-409.83
-450.91
-486.50
-515.74
-537.23
-549.22
-549.96
-538.37
-514.21
-478.67
-433.88
-382.45
-327.02
-269.84
-212.63
-156.66
-102.95
-52.37
-5.90
35.58
71.43
101.35
125.50
144.38
158.69
169.15
176.37
180.75
182.57
182.07
179.51
175.23
169.65
163.18
156.15
148.81
141.30
133.69
126.02
118.33
110.69
103.16
95.80
88.68
81.83
75.25
68.95
62.95
57.25
51.86
46.78
42.03
37.59
33.45
29.61
26.07
22.81
19.83
17.11
14.67
12.48
10.54
8.83
7.35
6.07
4.97
4.05
3.27
2.62
2.09
1.65
1.30
1.01
0.79
0.61
0.48
0.37
0.28
0.22
0.17
0.14
0.11
0.09
0.08
0.08
0.08
0.09
0.10
0.12
0.14
0.17
0.20
0.24
0.27
0.31
0.36
0.40
0.45
0.49
0.54
0.59
0.64
0.69
0.75
0.81
0.88
0.96
1.04
1.13
1.24
1.36
1.49
1.64
1.80
1.99
2.19
2.42
2.67
2.95
3.25
3.58
3.95
4.35
4.78
5.25
5.75
6.29
6.88
7.51
8.17
8.88
9.62
10.41
11.24
12.14
13.08
14.09
15.15
16.23
17.31
18.38
19.42
20.43
21.39
22.22
22.82
23.02
22.66
21.58
19.72
17.05
13.67
9.70
5.34
0.78
-3.80
-8.26
-12.46
-16.26
-19.48
-21.97
-23.59
-24.29
-24.19
-23.54
-22.66
-21.85
-21.30
-20.99
-20.70
-20.15
-19.17
-17.79
-16.34
-15.25
-14.95
-15.53
-16.78
-18.13
-18.94
-18.79
-17.72
-16.25
-15.21
-15.37
-17.08
-20.13
-23.77
-27.19
-29.73
-31.24
-32.10
-32.97
-34.68
-38.06
-43.87
-52.39
-62.87
-73.09
-79.50
-78.33
-67.24
-46.68
-20.22
6.49
27.87
40.40
43.60
39.67
32.03
23.79
16.82
11.71
8.20
5.82
4.06
2.24
-0.64
-5.56
-12.89
-21.95
-30.73
-36.37
-36.17
-28.64
-14.34
4.15
23.02
38.44
47.70
49.99
46.46
39.75
33.37
30.80
34.76
46.32
64.35
85.34
104.12
115.12
113.95
98.58
69.88
31.48
-11.04
-51.17
-82.67
-100.86
-103.73
-92.56
-71.71
-47.32
-25.35
-9.72
-1.42
1.17
0.82
-0.17
-0.91
-1.90
-4.23
-8.60
-14.77
-21.70
-27.99
-32.50
-34.64
-34.35
-31.87
-27.55
-21.77
-14.94
-7.65
-0.53
5.75
10.64
13.78
14.95
14.17
11.57
7.56
2.77
-2.00
-5.87
-8.11
-8.24
-6.16
-2.03
3.74
10.66
18.07
25.25
31.43
35.86
38.07
37.88
35.52
31.55
26.75
21.96
17.85
14.83
12.93
11.91
11.35
10.83
10.06
8.94
7.49
5.75
3.79
1.69
-0.47
-2.59
-4.64
-6.76
-9.25
-12.47
-16.57
-21.30
-25.92
-29.37
-30.60
-28.95
-24.36
-17.46
-9.27
-0.88
6.87
13.51
18.89
23.02
25.91
27.53
27.87
27.10
25.52
23.51
21.36
19.16
16.84
14.27
11.49
8.78
6.64
5.58
5.85
7.27
9.25
10.94
11.62
10.93
9.02
6.38
3.63
1.21
-0.72
-2.28
-3.77
-5.43
-7.43
-9.88
-12.87
-16.50
-20.83
-25.71
-30.63
-34.75
-37.03
-36.54
-32.85
-26.27
-17.78
-8.81
-0.75
5.43
9.37
11.34
11.98
11.99
12.04
12.36
12.71
12.48
11.17
8.51
4.69
0.12
-4.89
-9.95
-14.73
-19.03
-22.79
-26.17
-29.88
-34.94
-42.47
-53.01
-65.50
-77.82
-87.88
-94.60
-98.36
-100.91
-103.88
-108.03
-112.81
-115.36
-113.35
-106.87
-98.88
-93.63
-94.95
-103.17
-115.63
-127.47
-130.30
-117.61
-87.74
-44.16
6.84
57.54
102.93
138.84
162.12
175.87
184.87
193.34
204.17
219.70
240.02
266.21
296.53
327.22
360.64
399.66
444.13
489.80
530.68
559.78
576.43
582.19
543.34
444.52
297.65
136.56
-6.39
-102.10
-162.84
-200.72
-223.72
-236.53
-239.09
-229.55
-209.42
-183.67
-157.44
-135.53
-116.77
-99.82
-84.79
-68.58
-49.59
-29.93
-14.55
-8.05
-13.95
-30.10
-53.06
-79.72
-104.72
-123.74
-135.40
-140.91
-142.24
-141.58
-138.29
-131.68
-121.79
-108.05
-90.52
-70.54
-50.23
-31.56
-16.31
-4.75
3.15
7.56
9.56
10.63
11.79
13.34
15.05
16.73
19.36
24.89
35.41
51.85
72.86
94.39
110.91
117.43
111.65
94.78
70.81
44.65
20.22
-0.42
-16.70
-28.44
-35.18
-36.24
-31.74
-23.61
-15.71
-12.67
-17.89
-31.72
-50.97
-70.05
-83.38
-87.69
-83.30
-73.78
-64.34
-59.77
-62.78
-73.18
-88.22
-103.40
-113.83
-115.37
-105.61
-84.37
-53.72
-17.44
19.81
53.55
80.71
100.31
113.33
121.83
127.35
129.47
125.47
111.35
83.96
43.36
-6.13
-56.63
-99.09
-126.25
-134.96
-126.68
-106.42
-80.56
-54.81
-32.97
-16.70
-6.12
-0.58
0.66
-1.74
-7.24
-15.26
-25.24
-36.85
-50.08
-65.14
-82.20
-100.83
-119.87
-137.68
-152.83
-164.50
-172.48
-176.72
-176.90
-172.44
-163.18
-150.29
-136.55
-125.98
-122.48
-128.53
-144.14
-166.75
-191.91
-214.26
-228.75
-231.55
-220.66
-195.98
-159.21
-113.27
-61.82
-8.83
41.69
85.89
120.65
144.24
156.82
160.47
158.42
153.84
148.75
143.60
137.61
129.63
118.99
106.11
92.54
80.53
72.33
69.33
71.56
77.63
85.43
93.11
99.97
106.78
115.30
127.33
143.62
163.07
182.57
197.39
202.17
192.38
166.11
125.37
76.30
28.04
-9.94
-30.91
-32.84
-18.82
4.66
30.21
51.94
66.62
73.34
72.47
64.41
49.20
26.84
-1.70
-33.68
-64.65
-89.45
-104.05
-107.19
-101.03
-90.21
-79.76
-72.95
-70.00
-68.68
-65.95
-59.86
-50.38
-38.99
-27.49
-17.04
-8.12
-1.30
1.94
-0.84
-11.95
-31.91
-58.27
-85.84
-108.33
-120.67
-120.76
-109.81
-91.28
-69.03
-45.93
-23.32
-1.55
19.09
37.75
53.01
63.54
68.83
69.44
66.61
61.42
54.11
43.90
29.65
10.87
-11.38
-34.38
-54.58
-68.95
-76.06
-76.51
-72.20
-65.09
-56.19
-45.06
-30.10
-9.49
17.68
50.27
84.36
113.30
128.98
124.20
95.80
46.87
-13.09
-70.65
-112.70
-130.76
-123.17
-94.59
-53.23
-7.47
36.26
73.94
103.14
122.09
129.55
125.40
111.45
91.56
70.83
53.84
43.10
38.30
36.65
34.16
27.38
14.59
-3.76
-25.58
-48.23
-69.44
-87.91
-103.37
-116.19
-126.95
-136.01
-143.31
-148.29
-150.05
-147.60
-140.44
-129.13
-115.49
-102.27
-92.24
-86.92
-85.75
-86.01
-83.80
-75.59
-59.51
-35.85
-6.60
25.65
58.69
91.04
121.54
148.81
170.89
185.73
192.19
190.72
183.41
173.02
161.66
149.82
136.52
120.37
100.96
79.69
59.52
43.64
33.98
30.20
29.88
29.66
26.67
19.65
9.14
-3.19
-15.56
-26.88
-37.02
-46.24
-54.58
-61.40
-65.54
-66.00
-62.53
-55.73
-46.50
-35.44
-22.59
-7.99
7.35
20.90
28.98
28.27
17.55
-1.27
-23.64
-44.12
-58.51
-65.22
-65.15
-60.51
-53.41
-44.96
-35.42
-24.77
-13.42
-2.37
7.11
13.90
17.25
16.88
12.87
5.94
-2.30
-9.26
-11.79
-7.28
5.15
23.90
45.07
63.43
73.98
73.38
60.64
37.36
7.34
-24.23
-51.65
-69.91
-75.80
-68.83
-51.41
-28.14
-4.26
16.13
31.27
41.88
50.29
58.68
67.70
76.05
80.86
79.11
69.03
50.50
25.16
-3.87
-32.37
-55.32
-67.97
-67.32
-53.63
-31.33
-8.20
7.24
9.06
-3.47
-25.44
-48.20
-63.01
-64.25
-51.28
-27.91
-0.27
25.66
45.86
58.74
64.46
63.84
57.73
46.85
32.52
17.31
4.87
-1.18
1.75
14.17
34.51
60.04
87.62
114.46
138.31
157.71
172.32
183.20
192.32
201.43
210.70
217.84
218.70
209.00
186.26
150.60
104.21
49.87
-10.04
-73.15
-135.86
-192.24
-234.40
-254.66
-248.43
-216.29
-164.43
-102.80
-42.25
8.54
45.11
67.41
78.49
82.33
81.73
77.53
69.05
55.56
37.68
17.67
-1.49
-17.76
-31.10
-43.47
-57.58
-75.27
-96.38
-118.86
-139.71
-156.38
-167.80
-174.56
-178.52
-181.90
-186.32
-192.38
-199.64
-207.08
-213.59
-218.36
-220.82
-220.35
-216.09
-206.85
-191.50
-169.42
-140.83
-106.87
-69.16
-29.44
10.71
49.90
86.92
120.83
151.17
178.17
202.64
225.51
247.14
266.89
283.21
294.32
299.03
297.31
290.39
280.23
268.95
258.23
248.98
241.27
234.28
226.46
215.78
200.35
178.90
151.04
117.06
77.32
31.56
-21.25
-82.13
-150.60
-223.18
-293.02
-351.17
-389.38
-402.86
-392.18
-362.69
-322.14
-277.53
-232.77
-188.07
-141.08
-89.24
-31.82
28.81
87.35
137.04
171.78
188.14
186.56
171.14
148.07
123.37
101.02
82.34
66.70
52.93
40.52
29.82
21.49
15.48
10.77
5.65
-1.25
-10.23
-20.25
-29.26
-35.20
-36.88
-34.51
-29.65
-24.49
-21.08
-20.48
-22.46
-25.71
-28.54
-29.65
-28.72
-26.57
-24.79
-25.00
-28.11
-33.83
-40.69
-46.48
-49.09
-47.17
-40.54
-30.12
-17.37
-3.71
9.99
23.43
36.66
49.60
61.89
72.88
81.94
88.74
93.42
96.39
98.01
98.38
97.17
93.87
88.07
79.82
69.59
58.22
46.55
35.10
23.99
12.94
1.59
-10.24
-22.28
-33.88
-44.23
-52.66
-58.96
-63.36
-66.37
-68.49
-69.91
-70.47
-69.69
-67.09
-62.43
-55.81
-47.70
-38.70
-29.31
-19.87
-10.64
-1.83
6.15
12.81
17.68
20.64
21.96
22.32
22.51
23.08
24.19
25.58
26.85
27.76
28.35
28.84
29.43
29.95
29.90
28.57
25.47
20.52
14.19
7.24
0.51
-5.34
-10.01
-13.47
-15.93
-17.66
-18.94
-19.93
-20.66
-21.02
-20.81
-19.82
-17.84
-14.66
-10.12
-4.19
2.90
10.57
17.96
24.16
28.49
30.78
31.42
31.13
30.60
30.26
30.09
29.78
28.93
27.35
25.14
22.58
19.92
17.21
14.21
10.55
5.99
0.59
-5.21
-10.80
-15.63
-19.44
-22.35
-24.65
-26.61
-28.31
-29.62
-30.37
-30.50
-30.19
-29.75
-29.44
-29.27
-28.87
-27.63
-24.98
-20.69
-15.08
-8.90
-3.07
1.67
5.05
7.14
8.29
8.75
8.60
7.73
6.03
3.58
0.66
-2.27
-4.76
-6.52
-7.47
-7.78
-7.78
-7.74
-7.83
-8.03
-8.23
-8.33
-8.36
-8.49
-8.97
-9.96
-11.44
-13.21
-14.92
-16.37
-17.53
-18.57
-19.73
-21.07
-22.33
-22.93
-22.17
-19.60
-15.23
-9.69
-4.00
0.72
3.72
4.82
4.31
2.73
0.53
-2.06
-4.97
-8.10
-11.12
-13.53
-14.78
-14.55
-12.97
-10.54
-8.02
-6.08
-5.12
-5.13
-5.77
-6.59
-7.22
-7.52
-7.60
-7.67
-7.96
-8.52
-9.30
-10.17
-11.06
-12.03
-13.23
-14.87
-17.02
-19.56
-22.03
-23.79
-24.15
-22.61
-19.12
-14.03
-8.05
-2.01
3.34
7.47
10.06
10.86
9.73
6.64
1.86
-3.95
-9.74
-14.31
-16.70
-16.44
-13.70
-9.09
-3.32
3.10
9.84
16.70
23.30
29.04
33.20
35.27
35.26
33.65
31.34
29.15
27.70
27.17
27.43
28.15
28.96
29.57
29.88
30.01
30.31
31.17
32.86
35.35
38.26
40.98
42.82
43.24
41.98
39.04
34.61
29.04
22.72
16.09
9.58
3.54
-1.81
-6.37
-10.19
-13.38
-16.00
-18.14
-19.85
-21.24
-22.52
-23.95
-25.74
-28.00
-30.61
-33.40
-36.19
-38.95
-41.86
-45.13
-48.91
-53.16
-57.64
-62.06
-66.12
-69.71
-72.70
-74.95
-76.14
-75.78
-73.35
-68.52
-61.40
-52.66
-43.50
-35.36
-29.54
-26.80
-27.22
-30.23
-34.87
-40.08
-44.86
-48.43
-50.14
-49.60
-46.66
-41.44
-34.37
-26.02
-17.09
-8.20
0.15
7.74
14.60
20.88
26.72
32.02
36.30
38.86
39.08
36.77
32.39
26.97
21.67
17.50
14.98
14.18
14.91
17.01
20.40
25.02
30.67
36.77
42.37
46.31
47.58
45.77
41.25
35.20
29.11
24.32
21.56
20.87
21.77
23.68
26.17
29.04
32.19
35.50
38.72
41.55
43.83
45.59
47.02
48.30
49.42
50.11
49.93
48.51
45.79
42.17
38.40
35.30
33.38
32.53
31.94
30.27
26.02
17.90
5.17
-12.31
-33.96
-58.69
-85.03
-111.32
-136.00
-157.66
-175.04
-186.92
-192.01
-189.12
-177.57
-157.67
-131.07
-100.60
-69.57
-40.98
-16.73
2.41
16.64
26.49
32.53
35.38
35.93
35.46
35.34
36.52
39.01
41.77
43.32
42.46
39.02
33.99
29.01
25.55
24.22
24.55
25.31
25.12
23.10
19.03
13.33
6.58
-0.75
-8.47
-16.64
-25.27
-34.17
-42.89
-50.75
-57.12
-61.59
-64.10
-64.88
-64.31
-62.65
-59.89
-55.73
-49.81
-42.07
-33.00
-23.60
-15.04
-8.12
-2.85
1.48
5.90
11.14
17.41
24.42
31.86
39.77
48.52
58.50
69.57
80.85
90.94
98.49
102.82
104.07
102.97
100.40
97.00
93.03
88.55
83.63
78.54
73.71
69.50
66.03
63.09
60.19
56.81
52.52
47.12
40.73
33.63
26.27
19.08
12.52
6.94
2.62
-0.28
-1.77
-1.93
-0.95
0.94
3.45
6.19
8.74
10.68
11.68
11.60
10.43
8.32
5.45
2.07
-1.45
-4.59
-6.71
-7.21
-5.74
-2.45
2.00
6.63
10.40
12.57
12.86
11.44
8.73
5.19
1.14
-3.23
-7.78
-12.26
-16.34
-19.58
-21.62
-22.30
-21.61
-19.65
-16.56
-12.43
-7.39
-1.68
4.29
9.98
14.85
18.54
20.96
22.29
22.85
22.95
22.70
22.03
20.76
18.78
16.23
13.54
11.24
9.70
8.89
8.39
7.54
5.83
3.13
-0.23
-3.67
-6.62
-8.88
-10.61
-12.24
-14.17
-16.48
-19.00
-21.34
-23.21
-24.53
-25.38
-25.85
-25.84
-25.02
-22.94
-19.22
-13.83
-7.07
0.40
7.87
14.66
20.35
24.76
27.89
29.91
31.00
31.33
31.03
30.25
29.10
27.78
26.41
25.07
23.70
22.15
20.27
17.96
15.31
12.58
10.03
7.90
6.20
4.67
2.96
0.70
-2.22
-5.69
-9.39
-13.07
-16.66
-20.30
-24.17
-28.19
-31.82
-34.21
-34.47
-32.12
-27.38
-21.11
-14.52
-8.65
-4.02
-0.55
2.19
4.66
7.02
9.03
10.31
10.58
9.95
8.91
8.10
8.03
8.86
10.33
11.94
13.19
13.84
13.93
13.69
13.40
13.16
12.89
12.37
11.41
10.04
8.49
7.16
6.34
6.11
6.25
6.36
6.09
5.32
4.19
3.03
2.19
1.82
1.90
2.31
3.02
4.19
6.19
9.36
13.79
19.16
24.86
30.16
34.63
38.25
41.35
44.34
47.42
50.37
52.75
54.09
54.28
53.63
52.85
52.64
53.42
55.01
56.67
57.35
56.09
52.34
46.10
37.83
28.24
17.92
7.30
-3.34
-13.73
-23.45
-32.01
-38.98
-44.19
-47.82
-50.34
-52.26
-53.92
-55.41
-56.57
-57.21
-57.22
-56.72
-56.00
-55.29
-54.65
-53.84
-52.38
-49.77
-45.79
-40.60
-34.72
-28.87
-23.66
-19.39
-15.98
-13.15
-10.61
-8.29
-6.34
-5.03
-4.52
-4.64
-4.99
-5.07
-4.52
-3.33
-1.76
-0.21
1.06
2.00
2.80
3.66
4.61
5.43
5.72
5.15
3.60
1.30
-1.29
-3.71
-5.67
-7.19
-8.53
-10.08
-12.06
-14.53
-17.32
-20.14
-22.75
-25.03
-26.97
-28.66
-30.09
-31.05
-31.18
-30.11
-27.66
-24.13
-20.23
-16.83
-14.59
-13.62
-13.51
-13.62
-13.45
-12.95
-12.47
-12.47
-13.17
-14.33
-15.46
-15.96
-15.56
-14.35
-12.72
-11.19
-10.05
-9.33
-8.74
-7.89
-6.48
-4.56
-2.43
-0.56
0.67
1.14
1.02
0.61
0.21
-0.09
-0.35
-0.72
-1.28
-1.96
-2.52
-2.68
-2.19
-0.93
1.19
4.28
8.53
14.18
21.30
29.53
37.94
45.06
49.19
48.99
44.05
35.10
23.82
12.23
1.95
-6.29
-12.83
-18.66
-24.93
-32.39
-41.17
-50.85
-60.72
-70.00
-78.01
-84.21
-88.28
-90.08
-89.76
-87.67
-84.15
-79.44
-73.61
-66.68
-58.80
-50.30
-41.65
-33.16
-24.99
-17.18
-9.89
-3.39
2.34
7.80
14.02
21.98
31.74
41.81
49.52
52.12
48.35
39.36
28.42
19.52
15.50
17.01
22.61
30.01
37.45
44.53
52.03
60.99
71.77
83.60
94.90
103.99
109.87
112.42
112.14
109.54
104.65
96.88
85.37
69.47
49.09
24.79
-2.40
-31.13
-59.69
-86.11
-108.30
-124.60
-134.28
-137.85
-136.69
-132.51
-126.86
-120.95
-116.01
-113.56
-115.33
-122.69
-135.81
-153.22
-171.94
-188.22
-198.46
-200.01
-191.50
-172.89
-145.39
-111.30
-73.64
-35.58
0.30
32.45
60.45
84.67
105.73
123.97
139.40
151.71
160.61
166.06
168.42
168.43
167.06
165.23
163.37
161.35
158.45
153.72
146.43
136.38
123.96
109.89
94.88
79.25
63.03
46.21
29.08
12.43
-2.67
-15.28
-25.03
-32.25
-37.74
-42.34
-46.44
-49.86
-52.10
-52.78
-52.08
-50.79
-49.86
-49.83
-50.43
-50.59
-48.95
-44.52
-37.27
-28.24
-19.35
-12.84
-10.69
-14.13
-23.34
-37.41
-54.45
-71.95
-87.29
-98.24
-103.45
-102.59
-96.30
-85.71
-72.14
-56.60
-39.74
-21.82
-2.92
16.87
37.17
57.23
75.95
92.07
104.52
112.79
117.13
118.54
118.41
118.06
118.33
119.48
121.38
123.89
127.14
131.47
137.06
143.63
150.22
155.37
157.53
155.38
148.10
135.33
117.05
93.54
65.38
33.52
-0.86
-36.53
-72.60
-108.68
-144.77
-180.87
-216.64
-251.11
-283.02
-311.15
-334.72
-353.37
-366.82
-374.32
-374.55
-365.92
-347.32
-318.89
-282.27
-240.08
-195.02
-148.92
-102.54
-56.00
-9.79
34.63
74.76
107.82
131.89
146.66
153.55
155.07
153.84
151.75
149.62
147.40
144.65
141.00
136.42
131.18
125.75
120.64
116.35
113.30
111.81
112.00
113.81
116.85
120.46
123.75
125.71
125.46
122.48
116.88
109.34
100.78
91.76
81.90
69.81
53.69
32.36
6.33
-21.86
-48.13
-68.11
-78.43
-77.50
-65.56
-44.30
-16.22
15.65
47.94
77.07
99.76
113.64
118.03
114.10
104.56
92.78
81.78
73.60
69.06
68.00
69.62
72.80
76.25
78.64
78.68
75.44
68.37
57.30
42.10
22.37
-2.61
-33.71
-71.43
-115.46
-164.42
-215.99
-267.13
-314.38
-354.19
-383.27
-399.10
-400.48
-387.89
-363.33
-329.72
-290.15
-247.26
-203.05
-159.01
-116.33
-75.84
-37.96
-2.47
31.23
63.68
94.75
123.38
147.84
166.44
178.33
183.95
184.87
183.20
180.85
179.00
177.98
177.37
176.43
174.44
170.95
165.84
159.27
151.49
142.76
133.34
123.52
113.71
104.37
95.82
88.05
80.66
73.00
64.47
54.66
43.33
30.14
14.58
-4.04
-26.18
-51.60
-79.12
-106.61
-131.41
-150.92
-163.10
-166.80
-161.79
-148.54
-128.01
-101.32
-69.71
-34.52
2.64
39.75
74.43
104.22
127.16
142.21
149.41
149.58
143.94
133.65
119.75
103.40
86.10
69.84
56.82
48.72
46.04
47.43
49.79
48.98
40.89
22.43
-7.80
-49.43
-100.29
-156.43
-212.06
-259.93
-292.43
-303.44
-290.39
-255.62
-206.11
-151.50
-101.29
-62.32
-37.60
-26.69
-27.12
-35.63
-48.99
-64.00
-77.34
-85.78
-86.67
-78.67
-62.21
-39.44
-13.50
12.34
35.46
54.31
68.47
78.37
84.83
88.75
90.81
91.50
91.25
90.58
90.20
90.77
92.69
95.83
99.46
102.50
103.88
102.91
99.52
94.19
87.81
81.39
75.84
71.71
69.04
67.40
66.04
64.27
61.70
58.32
54.23
49.41
43.44
35.68
25.58
13.08
-1.32
-16.75
-32.36
-47.52
-61.85
-75.07
-86.97
-97.58
-107.44
-117.49
-128.57
-140.49
-151.40
-157.98
-156.51
-144.54
-122.15
-92.26
-59.71
-29.49
-5.27
11.34
20.46
23.16
20.67
14.04
4.43
-6.57
-16.97
-24.81
-28.75
-28.37
-24.11
-16.92
-7.87
2.03
11.88
20.86
28.27
33.77
37.46
39.87
41.69
43.55
45.77
48.44
51.41
54.36
56.72
57.64
56.12
51.34
43.10
31.99
19.22
6.26
-5.58
-15.43
-22.77
-27.35
-28.98
-27.51
-22.69
-14.31
-2.12
13.99
33.82
56.59
80.91
104.94
126.77
144.86
158.45
167.72
173.82
178.44
183.22
189.03
195.49
200.71
201.75
195.51
180.00
155.08
122.62
85.67
47.47
10.60
-23.17
-52.40
-75.60
-90.97
-96.83
-92.24
-77.63
-55.13
-28.20
-0.81
23.62
42.92
56.53
65.13
70.22
73.53
76.70
80.87
86.56
93.55
101.06
108.28
114.94
121.69
130.01
141.43
156.64
175.02
194.89
214.50
232.79
249.51
264.56
277.16
285.61
287.92
282.99
271.59
256.28
240.49
227.04
217.28
210.91
206.69
203.34
200.11
196.96
194.20
192.06
190.52
189.26
187.84
185.84
183.09
179.55
175.29
170.34
164.54
157.57
148.92
138.11
124.71
108.51
89.45
67.69
43.55
17.39
-10.26
-38.80
-67.54
-95.70
-122.48
-147.14
-169.09
-187.86
-203.24
-215.18
-223.80
-229.37
-232.24
-232.77
-231.34
-228.20
-223.49
-217.24
-209.44
-200.16
-189.65
-178.38
-167.02
-156.24
-146.59
-138.37
-131.63
-126.34
-122.53
-120.48
-120.76
-124.03
-130.81
-141.24
-154.93
-171.10
-188.96
-207.96
-228.04
-249.50
-272.72
-297.88
-324.86
-353.49
-383.64
-415.16
-447.36
-478.66
-506.45
-527.63
-539.54
-540.68
-531.01
-511.56
-483.69
-448.62
-407.43
-361.84
-314.97
-271.74
-238.28
-220.24
-220.79
-239.18
-270.69
-308.14
-344.22
-373.45
-393.01
-402.05
-400.35
-387.39
-362.35
-325.17
-277.58
-223.31
-167.17
-113.59
-65.37
-23.40
12.92
44.60
72.43
96.73
117.51
134.98
150.12
164.92
181.93
202.77
226.31
247.85
259.69
253.72
224.64
172.18
101.00
18.41
-68.50
-154.57
-236.15
-309.49
-369.51
-410.36
-427.70
-421.17
-395.24
-357.71
-316.61
-277.37
-241.59
-207.92
-174.00
-138.40
-101.40
-64.70
-30.47
-0.37
24.89
45.53
62.41
76.54
88.47
98.38
106.26
112.38
117.65
123.51
131.35
141.65
153.69
165.83
176.27
184.01
189.19
192.89
196.33
200.34
205.10
210.51
216.62
223.77
232.38
242.46
253.21
263.07
270.11
272.65
269.79
261.59
249.05
233.83
217.82
202.82
190.23
180.99
175.56
174.11
176.48
182.16
190.22
198.99
206.29
209.79
207.78
199.83
187.10
172.05
157.57
146.05
138.76
135.77
136.44
139.96
145.68
152.99
160.98
168.10
172.39
172.01
166.13
155.30
141.36
126.60
112.66
99.89
87.27
73.29
56.80
37.80
17.44
-2.58
-20.73
-36.24
-48.99
-59.12
-66.45
-70.35
-70.25
-66.39
-60.48
-55.60
-55.13
-61.28
-73.84
-90.10
-105.92
-117.47
-122.73
-121.98
-117.03
-109.74
-100.77
-89.11
-72.73
-49.94
-20.57
13.35
47.91
78.37
100.53
111.94
112.39
103.64
88.46
69.50
48.49
26.07
2.28
-22.80
-48.52
-73.54
-96.02
-113.77
-124.57
-126.54
-118.86
-102.55
-80.83
-58.64
-41.15
-32.08
-32.24
-39.58
-50.23
-60.20
-66.73
-68.65
-65.98
-59.28
-49.33
-37.28
-24.83
-14.11
-6.87
-3.71
-3.65
-4.55
-4.01
-0.43
6.55
16.15
27.09
38.22
48.88
58.81
67.89
75.92
82.70
88.16
92.46
95.95
98.97
101.60
103.63
104.62
104.11
101.76
97.46
91.30
83.56
74.73
65.46
56.52
48.63
42.31
37.73
34.71
32.72
31.11
29.23
26.57
22.84
18.08
12.66
7.17
2.31
-1.41
-3.81
-5.14
-5.95
-6.89
-8.45
-10.80
-13.79
-17.03
-20.06
-22.53
-24.21
-25.04
-25.04
-24.25
-22.69
-20.39
-17.51
-14.30
-11.16
-8.52
-6.70
-5.77
-5.54
-5.66
-5.84
-5.91
-5.99
-6.27
-6.96
-8.09
-9.52
-10.97
-12.19
-12.95
-13.17
-12.85
-12.12
-11.07
-9.83
-8.50
-7.12
-5.83
-4.74
-4.02
-3.74
-3.91
-4.39
-4.99
-5.55
-5.97
-6.27
-6.51
-6.71
-6.84
-6.76
-6.31
-5.39
-3.98
-2.23
-0.41
1.11
2.05
2.25
1.73
0.64
-0.88
-2.74
-4.93
-7.43
-10.08
-12.62
-14.66
-15.85
-15.96
-14.96
-13.01
-10.43
-7.65
-5.08
-3.05
-1.71
-0.97
-0.61
-0.35
0.01
0.57
1.34
2.24
3.19
4.08
4.75
5.07
4.98
4.56
4.00
3.57
3.43
3.60
3.88
4.06
3.94
3.48
2.73
1.82
0.80
-0.29
-1.45
-2.66
-3.92
-5.14
-6.26
-7.14
-7.67
-7.78
-7.54
-7.14
-6.88
-7.06
-7.94
-9.65
-12.18
-15.51
-19.58
-24.27
-29.38
-34.55
-39.31
-43.16
-45.72
-46.84
-46.65
-45.45
-43.55
-41.24
-38.60
-35.64
-32.30
-28.61
-24.73
-20.75
-16.68
-12.34
-7.43
-1.82
4.32
10.49
16.02
20.41
23.51
25.68
27.52
29.63
32.36
35.69
39.28
42.64
45.31
47.00
47.70
47.58
46.89
45.82
44.44
42.69
40.54
38.12
35.68
33.51
31.72
30.18
28.53
26.43
23.73
20.65
17.66
15.23
13.62
12.68
11.95
10.89
9.08
6.42
3.11
-0.49
-4.01
-7.16
-9.71
-11.37
-11.79
-10.61
-7.58
-2.78
3.39
10.28
17.13
23.36
28.62
32.89
36.32
39.16
41.54
43.50
44.94
45.66
45.47
44.17
41.58
37.57
32.03
24.94
16.44
6.81
-3.48
-13.88
-23.90
-33.13
-41.38
-48.65
-55.06
-60.79
-66.04
-70.94
-75.51
-79.65
-83.13
-85.63
-86.82
-86.50
-84.66
-81.56
-77.62
-73.33
-69.10
-65.11
-61.35
-57.65
-53.71
-49.35
-44.50
-39.35
-34.34
-30.11
-27.31
-26.46
-27.72
-30.85
-35.29
-40.40
-45.72
-51.06
-56.50
-62.23
-68.34
-74.68
-80.71
-85.51
-87.95
-86.88
-81.52
-71.78
-58.46
-43.17
-27.88
-14.27
-3.14
5.98
14.48
24.07
35.95
50.27
66.14
82.07
96.54
108.39
116.92
121.72
122.56
119.55
113.34
105.24
97.02
90.29
85.87
83.59
82.21
80.05
75.54
67.75
56.88
44.42
33.10
26.28
26.97
36.57
54.10
76.18
98.06
115.19
124.69
126.07
120.84
111.60
100.87
90.54
81.78
75.52
72.58
73.72
79.12
88.00
98.55
108.10
114.13
114.86
110.10
101.17
90.36
80.04
71.68
65.56
60.94
56.62
51.59
45.23
37.33
27.83
16.67
3.89
-9.97
-23.80
-36.11
-45.68
-52.06
-55.66
-57.37
-58.01
-58.36
-58.77
-59.11
-58.89
-57.34
-53.33
-45.33
-32.00
-12.74
11.29
37.68
63.52
86.54
105.78
121.57
135.22
148.15
161.16
173.46
183.94
192.13
198.59
204.26
209.57
214.02
216.21
214.22
204.63
185.93
160.12
131.99
106.44
86.29
71.82
61.60
53.09
39.90
17.88
-12.09
-44.83
-74.84
-99.22
-117.92
-132.38
-145.38
-165.86
-199.69
-245.27
-294.46
-338.83
-374.01
-400.07
-419.23
-435.78
-462.21
-507.73
-572.99
-650.74
-732.26
-810.95
-881.56
-937.76
-919.21
-793.12
-578.57
-335.98
-120.31
44.94
161.63
237.94
292.48
333.78
355.74
352.90
328.75
295.86
266.96
249.62
244.88
249.90
258.46
258.65
242.89
212.44
176.16
144.07
122.79
114.83
120.16
135.20
150.62
157.40
150.74
131.44
103.83
73.57
46.17
26.16
14.91
9.35
5.42
0.80
-3.96
-6.97
-6.68
-3.03
2.72
8.16
10.62
8.88
3.87
-1.99
-6.23
-7.54
-6.12
-3.22
-0.52
0.79
0.47
-0.86
-2.13
-2.39
-1.26
0.87
3.11
4.46
4.22
2.32
-0.80
-4.28
-7.34
-9.41
-10.35
-10.38
-9.84
-9.12
-8.48
-8.08
-8.02
-8.41
-9.35
-10.85
-12.76
-14.77
-16.46
-17.49
-17.65
-16.98
-15.64
-13.87
-11.92
-10.00
-8.28
-6.85
-5.72
-4.76
-3.77
-2.57
-1.07
0.58
2.09
3.05
3.02
1.73
-0.78
-4.08
-7.35
-9.70
-10.47
-9.53
-7.26
-4.37
-1.52
0.94
3.00
4.78
6.28
7.18
6.95
5.09
1.39
-3.87
-10.01
-16.19
-21.69
-26.14
-29.62
-32.60
-35.63
-39.16
-43.22
-47.39
-50.93
-53.02
-53.09
-51.04
-47.42
-43.23
-39.70
-37.82
-37.89
-39.37
-40.94
-40.94
-37.93
-31.30
-21.58
-10.53
-0.82
4.72
4.07
-3.06
-14.82
-27.76
-37.87
-42.14
-39.48
-30.92
-18.84
-5.76
6.64
17.72
27.55
36.18
43.18
47.77
49.24
47.49
43.24
37.76
32.41
28.12
25.16
23.16
21.42
19.29
16.54
13.52
11.22
11.00
14.33
22.22
34.72
50.56
67.09
80.70
87.61
84.77
70.69
45.98
13.43
-22.53
-56.81
-84.91
-104.05
-113.68
-115.27
-111.38
-104.50
-96.25
-87.28
-77.62
-67.41
-57.15
-47.72
-39.96
-34.34
-30.92
-29.47
-29.57
-30.64
-31.73
-31.59
-28.78
-22.15
-11.34
2.94
19.12
35.28
49.82
62.05
72.28
81.61
91.42
102.64
115.13
127.30
136.25
138.56
131.51
114.32
88.79
59.03
30.13
6.38
-10.08
-19.63
-24.31
-26.43
-27.33
-27.06
-24.98
-20.62
-14.31
-6.97
0.50
7.88
15.85
25.50
37.52
51.60
66.41
80.11
91.14
98.68
102.68
103.46
101.39
96.64
89.33
79.77
68.42
55.74
41.79
26.11
7.94
-13.04
-36.11
-59.16
-79.19
-93.42
-100.36
-100.46
-95.75
-88.91
-82.12
-76.33
-71.25
-65.95
-59.57
-51.82
-43.00
-33.73
-24.55
-15.76
-7.44
0.46
8.04
15.45
22.90
30.67
38.99
47.85
56.93
65.67
73.44
79.84
84.88
89.00
92.92
97.49
103.41
110.93
119.60
127.99
133.83
134.41
127.61
112.68
90.79
64.72
37.85
13.04
-8.31
-26.18
-41.23
-53.81
-63.29
-68.23
-67.18
-59.56
-46.18
-29.05
-10.58
7.21
23.16
36.82
48.09
56.74
62.33
64.59
63.68
60.49
56.28
52.13
48.40
44.51
39.19
30.91
18.56
1.70
-19.38
-43.96
-71.17
-100.19
-130.11
-159.64
-186.99
-209.89
-226.15
-234.10
-233.11
-223.48
-206.18
-182.46
-153.58
-120.94
-86.27
-51.78
-19.81
7.65
29.48
45.59
56.75
64.11
68.85
72.04
74.63
77.49
81.35
86.62
93.18
100.38
107.26
112.85
116.56
118.32
118.48
117.63
116.36
115.16
114.20
113.13
110.77
105.14
93.95
75.60
50.30
20.54
-9.42
-34.97
-52.88
-62.34
-64.82
-62.93
-58.80
-53.19
-45.56
-34.93
-20.99
-4.53
12.72
28.81
42.34
52.69
60.01
64.74
67.27
67.70
65.86
61.49
54.40
44.55
32.00
16.84
-0.83
-20.81
-42.48
-64.71
-85.78
-103.66
-116.71
-124.33
-127.39
-127.96
-128.38
-130.09
-132.84
-134.84
-133.67
-127.68
-116.78
-102.43
-86.67
-71.07
-56.04
-41.09
-25.65
-9.81
5.43
18.69
28.91
35.92
40.35
43.25
45.53
47.71
50.00
52.41
54.84
57.04
58.56
58.84
57.51
54.65
50.90
47.30
45.04
45.15
48.26
54.42
62.79
71.49
77.82
79.02
73.46
61.60
46.10
30.91
19.62
13.99
13.59
16.36
19.98
22.97
25.00
26.32
27.05
26.67
24.21
18.91
10.75
0.65
-9.67
-18.21
-23.22
-23.86
-20.65
-15.69
-12.22
-13.56
-21.79
-36.78
-56.03
-75.55
-91.36
-100.88
-103.60
-100.77
-94.45
-86.46
-77.76
-68.47
-58.31
-47.22
-35.61
-24.41
-14.79
-7.70
-3.44
-1.47
-0.48
1.32
5.76
14.20
27.33
44.94
65.94
88.26
108.84
123.94
129.83
124.17
107.09
81.66
52.97
26.35
5.51
-8.94
-18.60
-25.96
-32.70
-38.87
-43.11
-43.92
-40.98
-35.67
-31.18
-30.75
-36.32
-47.55
-61.86
-75.37
-84.55
-87.50
-84.11
-76.57
-67.00
-56.48
-44.44
-29.37
-9.97
13.49
38.93
64.11
85.43
102.24
116.15
129.94
145.28
160.97
172.73
175.26
167.48
148.73
124.47
100.88
81.09
63.69
44.67
21.55
-2.61
-16.04
-11.80
16.85
68.43
132.88
195.43
242.75
267.45
269.46
258.11
235.75
208.55
181.60
160.01
149.13
153.55
173.99
178.67
190.10
190.57
171.22
130.71
75.29
15.29
-39.68
-84.16
-117.27
-136.26
-146.69
-148.12
-139.67
-121.73
-97.32
-71.80
-50.98
-39.31
-35.42
-42.26
-57.69
-79.50
-106.18
-137.03
-171.28
-207.00
-240.65
-265.63
-280.03
-281.82
-271.86
-253.06
-228.63
-200.46
-168.79
-133.61
-95.66
-60.60
-35.03
-24.84
-32.20
-54.06
-83.02
-110.38
-129.22
-136.02
-131.64
-118.72
-100.36
-79.17
-57.27
-36.50
-18.57
-4.61
5.28
12.16
17.79
23.94
31.59
40.68
50.37
59.49
67.14
73.02
77.65
82.32
88.73
98.20
110.91
125.41
138.87
148.13
151.02
147.25
138.56
127.78
117.67
109.90
104.86
101.97
100.41
99.42
98.50
97.27
95.44
93.04
90.71
89.78
92.05
99.21
112.17
130.49
152.10
173.57
190.80
199.95
198.45
185.66
162.94
133.15
99.88
66.37
34.83
6.14
-20.07
-45.07
-70.54
-98.25
-129.93
-167.00
-209.92
-257.34
-305.29
-347.52
-376.92
-388.13
-379.70
-354.98
-320.76
-284.55
-251.83
-224.59
-201.95
-181.83
-162.78
-144.52
-127.30
-110.72
-92.91
-70.67
-40.26
1.23
54.74
118.18
186.07
250.41
302.44
335.08
345.08
333.84
306.47
269.62
229.18
188.88
150.16
112.97
76.60
39.88
1.03
-42.19
-91.34
-145.61
-200.34
-247.06
-275.36
-276.13
-245.11
-185.03
-105.62
-21.22
52.83
103.96
125.20
116.39
83.45
36.31
-14.17
-58.84
-91.91
-111.15
-117.03
-111.71
-98.57
-82.15
-68.13
-62.56
-70.13
-92.35
-126.47
-166.01
-202.97
-230.61
-245.42
-247.57
-239.71
-225.08
-206.11
-183.92
-158.78
-131.04
-101.77
-72.84
-46.37
-24.02
-6.40
7.03
17.39
25.64
31.97
35.67
35.49
30.28
19.54
3.61
-16.25
-38.35
-61.05
-83.08
-103.74
-122.71
-139.96
-155.49
-169.46
-181.72
-191.95
-200.00
-205.90
-209.77
-211.61
-211.56
-209.97
-208.07
-206.71
-206.15
-205.92
-204.55
-199.97
-190.02
-174.01
-152.84
-129.88
-108.33
-90.59
-77.89
-70.00
-65.37
-61.33
-55.71
-46.62
-33.64
-15.22
10.58
44.43
84.83
127.24
165.22
191.21
209.02
218.72
221.60
219.98
214.73
204.47
184.26
156.40
127.31
106.07
99.49
110.76
139.07
175.56
207.93
225.56
223.96
204.83
175.00
142.23
114.07
95.94
90.12
96.84
114.58
140.31
168.61
192.90
206.44
205.26
189.34
162.14
129.74
98.75
74.36
58.49
50.16
46.57
45.04
43.86
42.33
40.52
39.19
39.74
43.52
51.48
63.68
79.04
95.51
110.43
121.30
126.89
127.72
125.74
123.46
122.98
125.11
129.31
134.17
137.80
139.37
139.52
139.79
141.62
145.83
152.35
160.67
170.02
177.84
181.36
178.16
166.74
147.39
123.36
100.03
83.55
77.87
79.78
83.13
82.08
73.28
56.21
33.27
6.92
-20.61
-48.37
-80.85
-120.21
-164.02
-206.99
-244.91
-276.16
-304.17
-334.03
-370.55
-421.68
-487.84
-559.59
-621.59
-660.10
-667.17
-645.22
-602.78
-516.13
-385.94
-236.22
-97.67
13.40
90.11
147.45
194.64
236.80
277.73
314.31
344.29
368.22
387.65
402.40
411.65
412.76
405.11
389.89
364.78
329.95
289.32
248.65
212.25
182.32
157.00
133.58
109.75
81.58
48.05
11.71
-23.62
-55.74
-84.90
-114.35
-146.95
-183.23
-221.67
-257.03
-281.81
-289.33
-276.77
-246.03
-203.20
-155.71
-110.21
-71.68
-42.13
-20.43
-2.75
16.74
44.88
87.34
146.47
219.23
296.86
367.00
417.59
440.82
435.37
405.93
360.41
306.54
249.56
191.94
134.56
78.29
24.68
-24.53
-68.45
-107.87
-145.09
-182.99
-223.76
-267.86
-313.49
-356.59
-391.68
-413.12
-416.80
-401.60
-370.09
-327.96
-282.29
-239.47
-203.53
-175.79
-155.41
-140.59
-129.58
-121.11
-114.45
-109.45
-106.58
-107.27
-113.78
-128.50
-152.65
-184.91
-220.83
-253.50
-275.46
-280.93
-267.53
-236.82
-193.41
-143.43
-92.87
-46.67
-8.18
21.09
41.56
55.27
64.87
72.23
77.54
79.51
76.85
70.07
62.43
59.04
64.72
81.79
