1659462080.00
64.000000
-0.00
-0.00
-0.00
-0.00
-0.00
-0.00
-0.00
-0.00
-0.00
-0.00
0.00
0.01
0.01
-0.00
-0.03
-0.05
-0.05
0.00
0.13
0.36
0.66
1.01
1.37
1.72
2.06
2.40
2.79
3.24
3.80
4.42
5.06
5.66
6.20
6.68
7.15
7.68
8.31
9.14
10.09
11.04
11.88
12.56
13.14
13.76
14.65
15.96
17.91
20.32
22.90
25.38
27.58
29.57
31.68
34.32
37.81
42.54
48.15
54.10
59.83
64.97
69.58
74.14
79.34
85.71
93.76
103.00
112.62
121.73
129.77
136.75
143.30
150.74
157.77
166.65
177.97
191.83
207.01
220.57
228.18
225.18
208.22
176.44
132.25
79.51
22.53
-35.47
-92.98
-149.76
-205.93
-261.19
-314.67
-364.85
-410.81
-451.84
-487.41
-516.70
-538.36
-550.62
-551.67
-540.33
-516.30
-480.75
-435.85
-384.38
-329.11
-272.39
-215.92
-160.79
-107.82
-57.66
-11.25
30.41
66.35
95.99
119.25
136.68
149.30
158.25
164.54
168.69
170.76
170.48
167.56
162.00
154.24
145.16
135.75
126.82
118.70
111.27
104.04
96.45
88.01
78.35
67.33
55.26
43.25
33.22
27.56
28.26
35.83
48.77
63.88
77.38
86.35
89.82
88.45
83.88
77.80
71.23
64.46
57.52
50.55
44.02
38.50
34.34
31.48
29.48
27.64
25.34
22.33
18.76
15.12
12.01
9.84
8.68
8.22
7.88
7.17
5.84
3.99
2.05
0.45
-0.56
-1.05
-1.24
-1.33
-1.32
-1.06
-0.45
0.41
1.17
1.37
0.74
-0.64
-2.36
-3.79
-4.48
-4.26
-3.32
-2.13
-1.16
-0.71
-0.82
-1.31
-1.88
-2.31
-2.50
-2.54
-2.58
-2.73
-2.97
-3.16
-3.17
-2.94
-2.53
-2.09
-1.79
-1.71
-1.80
-1.95
-1.99
-1.79
-1.32
-0.72
-0.17
0.14
0.18
0.07
0.09
0.43
1.22
2.31
3.48
4.50
5.29
5.95
6.63
7.47
8.44
9.42
10.22
10.71
10.83
10.56
9.91
8.85
7.41
5.53
3.23
0.63
-2.11
-4.79
-7.21
-9.20
-10.66
-11.55
-11.94
-11.94
-11.68
-11.28
-10.79
-10.26
-9.70
-9.14
-8.62
-8.18
-7.80
-7.43
-7.07
-6.70
-6.36
-6.07
-5.86
-5.68
-5.45
-5.09
-4.59
-3.97
-3.33
-2.78
-2.44
-2.38
-2.54
-2.81
-2.99
-2.91
-2.44
-1.59
-0.48
0.66
1.64
2.26
2.46
2.31
1.93
1.52
1.19
0.96
0.76
0.48
0.07
-0.40
-0.81
-1.04
-1.12
-1.16
-1.33
-1.70
-2.20
-2.62
-2.77
-2.56
-2.08
-1.58
-1.35
-1.51
-1.97
-2.48
-2.71
-2.43
-1.65
-0.56
0.53
1.35
1.76
1.78
1.54
1.17
0.78
0.44
0.25
0.35
0.84
1.79
3.08
4.49
5.74
6.62
7.06
7.12
6.94
6.66
6.37
6.05
5.65
5.12
4.43
3.59
2.65
1.66
0.69
-0.24
-1.11
-1.93
-2.68
-3.35
-3.93
-4.45
-4.98
-5.60
-6.34
-7.19
-8.04
-8.73
-9.14
-9.23
-9.02
-8.62
-8.14
-7.66
-7.26
-6.98
-6.84
-6.78
-6.68
-6.36
-5.72
-4.75
-3.62
-2.52
-1.65
-1.08
-0.74
-0.50
-0.22
0.12
0.48
0.74
0.80
0.63
0.27
-0.16
-0.53
-0.76
-0.80
-0.73
-0.65
-0.65
-0.77
-0.93
-0.99
-0.88
-0.57
-0.14
0.30
0.70
1.08
1.48
1.93
2.39
2.76
2.92
2.82
2.47
1.97
1.40
0.89
0.53
0.39
0.49
0.81
1.25
1.72
2.13
2.48
2.77
3.03
3.27
3.41
3.34
2.97
2.30
1.44
0.55
-0.20
-0.77
-1.24
-1.78
-2.53
-3.54
-4.75
-6.01
-7.19
-8.26
-9.26
-10.30
-11.45
-12.76
-14.19
-15.67
-17.06
-18.25
-19.12
-19.56
-19.49
-18.85
-17.55
-15.57
-12.94
-9.79
-6.28
-2.59
1.16
4.92
8.68
12.35
15.78
18.70
20.90
22.26
22.81
22.75
22.26
21.50
20.54
19.42
18.18
16.88
15.67
14.66
13.88
13.27
12.67
11.88
10.81
9.48
8.06
6.74
5.73
5.06
4.64
4.27
3.75
2.99
2.05
1.08
0.26
-0.30
-0.60
-0.72
-0.81
-0.94
-1.17
-1.48
-1.86
-2.26
-2.63
-2.91
-3.00
-2.84
-2.37
-1.67
-0.84
-0.01
0.71
1.31
1.83
2.30
2.72
3.01
3.10
2.96
2.66
2.30
1.99
1.83
1.79
1.84
1.92
1.95
1.90
1.70
1.33
0.78
0.10
-0.62
-1.32
-1.94
-2.47
-2.90
-3.21
-3.37
-3.36
-3.20
-3.01
-2.94
-3.11
-3.55
-4.18
-4.81
-5.21
-5.24
-4.85
-4.08
-3.09
-1.98
-0.86
0.25
1.32
2.32
3.17
3.78
4.08
4.10
3.87
3.47
2.97
2.40
1.75
1.04
0.32
-0.32
-0.76
-0.96
-0.98
-0.97
-1.15
-1.63
-2.41
-3.33
-4.16
-4.72
-4.91
-4.78
-4.45
-4.01
-3.49
-2.90
-2.23
-1.51
-0.87
-0.38
-0.10
-0.00
0.02
0.16
0.52
1.19
2.12
3.17
4.18
4.97
5.40
5.41
5.00
4.27
3.32
2.28
1.25
0.30
-0.52
-1.16
-1.60
-1.82
-1.82
-1.66
-1.41
-1.13
-0.87
-0.63
-0.43
-0.28
-0.26
-0.40
-0.74
-1.19
-1.62
-1.93
-2.07
-2.08
-2.07
-2.11
-2.23
-2.35
-2.41
-2.39
-2.31
-2.26
-2.27
-2.29
-2.23
-1.98
-1.55
-1.07
-0.72
-0.63
-0.74
-0.87
-0.71
-0.09
1.00
2.33
3.56
4.37
4.64
4.45
3.99
3.54
3.28
3.27
3.42
3.61
3.70
3.63
3.42
3.09
2.71
2.28
1.83
1.36
0.93
0.58
0.36
0.25
0.22
0.22
0.19
0.09
-0.10
-0.45
-0.99
-1.73
-2.58
-3.36
-3.86
-3.90
-3.40
-2.42
-1.17
0.09
1.12
1.78
2.05
2.04
1.92
1.86
1.94
2.14
2.35
2.42
2.26
1.86
1.35
0.86
0.50
0.29
0.15
0.02
-0.13
-0.25
-0.25
-0.12
0.05
0.04
-0.29
-0.97
-1.83
-2.56
-2.90
-2.78
-2.34
-1.89
-1.71
-1.93
-2.47
-3.09
-3.52
-3.61
-3.31
-2.68
-1.85
-0.98
-0.22
0.30
0.54
0.52
0.35
0.19
0.15
0.25
0.42
0.56
0.52
0.23
-0.30
-0.99
-1.73
-2.36
-2.75
-2.87
-2.75
-2.49
-2.27
-2.20
-2.32
-2.61
-3.01
-3.46
-3.90
-4.30
-4.58
-4.69
-4.58
-4.31
-3.97
-3.70
-3.58
-3.66
-3.89
-4.12
-4.18
-3.90
-3.23
-2.22
-1.05
0.08
0.98
1.57
1.87
2.01
2.10
2.19
2.30
2.36
2.33
2.23
2.12
2.04
1.99
1.93
1.80
1.55
1.25
0.99
0.89
0.96
1.10
1.10
0.80
0.16
-0.67
-1.45
-1.95
-2.11
-2.03
-1.93
-2.01
-2.36
-2.93
-3.57
-4.13
-4.52
-4.64
-4.48
-4.00
-3.28
-2.44
-1.64
-1.02
-0.65
-0.44
-0.24
0.06
0.48
0.89
1.06
0.78
-0.04
-1.28
-2.73
-4.09
-5.14
-5.73
-5.93
-5.95
-6.17
-6.99
-8.69
-11.08
-13.43
-14.61
-13.66
-10.45
-5.96
-1.97
-0.34
-2.02
-6.63
-12.76
-18.76
-23.51
-26.47
-27.37
-25.76
-21.17
-13.62
-4.30
4.49
10.19
11.26
8.04
2.65
-2.08
-3.96
-2.18
2.78
10.02
18.95
29.62
42.14
56.07
69.98
81.80
89.63
92.48
90.72
85.90
80.05
74.77
70.76
67.67
64.51
60.30
54.75
48.59
43.49
41.52
44.39
52.74
65.71
80.98
95.40
105.74
109.58
105.81
94.73
77.74
56.81
33.93
10.79
-11.31
-31.33
-48.40
-61.76
-71.01
-76.27
-78.27
-78.14
-76.95
-75.37
-73.48
-70.97
-67.55
-63.28
-58.59
-54.14
-50.42
-47.63
-45.61
-44.05
-42.61
-41.10
-39.49
-37.80
-36.12
-34.48
-32.89
-31.23
-29.34
-27.03
-24.27
-21.16
-17.99
-15.08
-12.67
-10.80
-9.37
-8.17
-7.01
-5.73
-4.18
-2.26
0.04
2.58
5.03
6.99
8.13
8.34
7.86
7.11
6.55
6.53
7.22
8.62
10.63
13.05
15.56
17.76
19.26
19.79
19.32
18.02
16.19
14.09
11.94
9.92
8.26
7.21
6.91
7.29
7.99
8.48
8.26
7.00
4.61
1.22
-2.99
-7.80
-12.96
-18.08
-22.67
-26.24
-28.43
-29.20
-28.84
-27.84
-26.63
-25.51
-24.56
-23.72
-22.94
-22.22
-21.61
-21.17
-20.90
-20.69
-20.41
-19.92
-19.17
-18.18
-17.02
-15.83
-14.74
-13.89
-13.38
-13.19
-13.19
-13.17
-12.91
-12.36
-11.61
-10.94
-10.63
-10.85
-11.58
-12.59
-13.55
-14.23
-14.57
-14.67
-14.77
-15.05
-15.53
-16.05
-16.27
-15.89
-14.75
-12.95
-10.83
-8.81
-7.35
-6.81
-7.45
-9.40
-12.54
-16.45
-20.36
-23.27
-24.22
-22.60
-18.31
-11.81
-3.95
4.29
11.98
18.38
23.07
25.87
26.93
26.64
25.56
24.24
23.10
22.27
21.59
20.73
19.30
17.10
14.16
10.74
7.22
3.89
0.85
-1.99
-4.69
-7.21
-9.30
-10.67
-11.13
-10.75
-9.86
-8.85
-8.06
-7.56
-7.26
-6.97
-6.57
-6.10
-5.67
-5.42
-5.37
-5.44
-5.47
-5.32
-4.95
-4.41
-3.86
-3.39
-3.07
-2.85
-2.69
-2.51
-2.27
-1.95
-1.52
-0.99
-0.39
0.21
0.72
1.09
1.32
1.49
1.63
1.75
1.80
1.73
1.51
1.21
0.95
0.85
0.98
1.37
2.01
2.83
3.76
4.69
5.52
6.16
6.58
6.79
6.85
6.79
6.62
6.30
5.81
5.18
4.50
3.94
3.60
3.54
3.72
4.02
4.26
4.31
4.13
3.76
3.32
2.94
2.67
2.53
2.45
2.34
2.19
2.02
1.90
1.87
1.95
2.03
1.97
1.69
1.17
0.51
-0.07
-0.37
-0.27
0.20
0.91
1.71
2.46
3.14
3.80
4.47
5.13
5.65
5.90
5.79
5.36
4.75
4.18
3.81
3.69
3.75
3.83
3.76
3.50
3.10
2.68
2.36
2.18
2.09
1.96
1.74
1.45
1.20
1.10
1.21
1.48
1.76
1.93
1.93
1.75
1.45
1.06
0.63
0.21
-0.12
-0.20
0.09
0.78
1.77
2.81
3.64
4.09
4.18
4.06
3.94
3.97
4.15
4.36
4.45
4.33
4.06
3.75
3.53
3.41
3.33
3.17
2.90
2.53
2.15
1.85
1.66
1.55
1.47
1.38
1.28
1.19
1.12
1.04
0.92
0.70
0.38
-0.03
-0.49
-0.97
-1.46
-1.94
-2.37
-2.64
-2.66
-2.34
-1.70
-0.85
0.04
0.77
1.26
1.53
1.68
1.84
2.08
2.38
2.66
2.87
3.00
3.10
3.22
3.34
3.39
3.28
2.96
2.46
1.93
1.54
1.35
1.32
1.28
1.06
0.59
-0.09
-0.82
-1.44
-1.86
-2.12
-2.34
-2.61
-3.01
-3.52
-4.15
-4.86
-5.64
-6.42
-7.08
-7.43
-7.34
-6.83
-6.08
-5.35
-4.92
-4.92
-5.34
-6.03
-6.85
-7.68
-8.47
-9.28
-10.14
-11.06
-12.01
-12.95
-13.80
-14.52
-15.00
-15.11
-14.67
-13.51
-11.51
-8.71
-5.33
-1.70
1.85
5.11
8.04
10.74
13.28
15.66
17.72
19.28
20.17
20.35
19.91
19.01
17.81
16.45
15.04
13.70
12.56
11.72
11.21
10.96
10.84
10.73
10.54
10.25
9.88
9.47
9.04
8.57
8.08
7.59
7.14
6.71
6.26
5.74
5.14
4.52
4.00
3.67
3.51
3.43
3.28
2.98
2.52
1.96
1.41
0.90
0.46
0.06
-0.30
-0.60
-0.84
-1.05
-1.29
-1.65
-2.15
-2.75
-3.31
-3.66
-3.63
-3.11
-2.15
-0.92
0.36
1.42
2.14
2.50
2.57
2.48
2.30
2.06
1.78
1.50
1.30
1.23
1.31
1.48
1.65
1.72
1.64
1.46
1.26
1.12
1.08
1.10
1.10
0.95
0.60
0.05
-0.59
-1.20
-1.66
-1.94
-2.05
-2.09
-2.12
-2.20
-2.33
-2.50
-2.70
-2.91
-3.09
-3.14
-2.98
-2.55
-1.86
-0.99
-0.05
0.81
1.48
1.91
2.10
2.10
2.01
1.90
1.83
1.79
1.72
1.59
1.40
1.19
1.01
0.90
0.86
0.83
0.80
0.75
0.71
0.65
0.55
0.33
-0.02
-0.48
-0.95
-1.31
-1.50
-1.52
-1.49
-1.53
-1.72
-2.06
-2.50
-2.89
-3.14
-3.15
-2.92
-2.48
-1.90
-1.26
-0.62
-0.01
0.51
0.91
1.15
1.23
1.20
1.17
1.21
1.37
1.57
1.71
1.71
1.52
1.25
0.99
0.83
0.78
0.74
0.63
0.40
0.10
-0.18
-0.36
-0.44
-0.51
-0.68
-1.02
-1.50
-2.01
-2.42
-2.64
-2.65
-2.51
-2.34
-2.26
-2.28
-2.40
-2.52
-2.51
-2.27
-1.77
-1.06
-0.30
0.32
0.67
0.74
0.68
0.68
0.90
1.30
1.74
2.00
1.98
1.71
1.35
1.08
1.01
1.11
1.26
1.35
1.35
1.26
1.17
1.09
1.05
1.02
0.95
0.83
0.68
0.53
0.41
0.32
0.22
0.05
-0.27
-0.75
-1.33
-1.89
-2.30
-2.42
-2.25
-1.82
-1.27
-0.71
-0.19
0.24
0.62
0.95
1.27
1.58
1.87
2.15
2.40
2.60
2.69
2.62
2.36
1.93
1.41
0.92
0.57
0.44
0.52
0.73
0.93
1.01
0.89
0.57
0.09
-0.47
-0.98
-1.35
-1.54
-1.53
-1.40
-1.21
-1.05
-0.96
-0.92
-0.90
-0.88
-0.83
-0.75
-0.61
-0.36
0.01
0.49
0.99
1.37
1.53
1.45
1.21
0.97
0.89
1.03
1.34
1.65
1.76
1.59
1.18
0.71
0.33
0.16
0.17
0.25
0.26
0.14
-0.08
-0.32
-0.45
-0.46
-0.37
-0.31
-0.35
-0.55
-0.88
-1.24
-1.57
-1.84
-2.09
-2.39
-2.81
-3.31
-3.77
-3.98
-3.78
-3.11
-2.10
-1.01
-0.12
0.40
0.55
0.48
0.40
0.46
0.71
1.07
1.36
1.49
1.40
1.19
0.97
0.86
0.91
1.06
1.20
1.25
1.15
0.97
0.83
0.80
0.88
0.99
0.99
0.79
0.38
-0.15
-0.66
-1.04
-1.27
-1.39
-1.50
-1.69
-1.99
-2.37
-2.76
-3.09
-3.32
-3.42
-3.36
-3.10
-2.63
-1.96
-1.19
-0.45
0.14
0.55
0.81
1.04
1.32
1.64
1.92
2.06
2.01
1.79
1.50
1.22
1.00
0.83
0.68
0.54
0.42
0.36
0.44
0.68
1.06
1.49
1.82
1.91
1.65
1.07
0.31
-0.42
-0.92
-1.14
-1.13
-1.03
-0.97
-1.02
-1.16
-1.35
-1.50
-1.55
-1.45
-1.17
-0.73
-0.19
0.32
0.67
0.80
0.74
0.60
0.54
0.61
0.79
1.00
1.12
1.11
1.01
0.87
0.76
0.68
0.60
0.48
0.30
0.09
-0.13
-0.35
-0.54
-0.72
-0.89
-1.03
-1.11
-1.11
-1.02
-0.86
-0.68
-0.52
-0.48
-0.60
-0.92
-1.42
-1.97
-2.46
-2.74
-2.73
-2.41
-1.87
-1.18
-0.47
0.21
0.80
1.27
1.61
1.80
1.84
1.73
1.51
1.21
0.89
0.58
0.25
-0.12
-0.60
-1.16
-1.77
-2.33
-2.78
-3.12
-3.44
-3.85
-4.42
-5.16
-5.97
-6.77
-7.49
-8.14
-8.78
-9.44
-10.14
-10.84
-11.52
-12.20
-12.93
-13.78
-14.77
-15.82
-16.77
-17.43
-17.64
-17.27
-16.33
-14.84
-12.88
-10.52
-7.81
-4.80
-1.55
1.85
5.26
8.50
11.43
13.88
15.79
17.12
17.95
18.34
18.38
18.13
17.65
16.96
16.12
15.16
14.13
13.03
11.89
10.75
9.68
8.72
7.90
7.18
6.49
5.77
4.99
4.18
3.36
2.53
1.70
0.88
0.17
-0.28
-0.32
0.08
0.79
1.52
1.98
2.01
1.67
1.19
0.81
0.71
0.89
1.24
1.58
1.80
1.82
1.67
1.40
1.07
0.76
0.49
0.30
0.19
0.14
0.15
0.19
0.25
0.32
0.34
0.28
0.07
-0.26
-0.64
-0.97
-1.17
-1.24
-1.27
-1.39
-1.67
-2.11
-2.60
-2.97
-3.10
-2.96
-2.63
-2.21
-1.79
-1.39
-0.97
-0.48
0.06
0.60
1.03
1.23
1.17
0.89
0.51
0.20
0.09
0.22
0.53
0.89
1.14
1.20
1.07
0.83
0.60
0.46
0.46
0.53
0.59
0.57
0.43
0.22
0.04
-0.02
0.09
0.34
0.61
0.76
0.71
0.43
-0.02
-0.53
-1.01
-1.43
-1.79
-2.07
-2.23
-2.19
-1.89
-1.31
-0.53
0.32
1.06
1.55
1.76
1.73
1.58
1.42
1.34
1.38
1.54
1.81
2.15
2.49
2.74
2.80
2.64
2.29
1.84
1.41
1.08
0.89
0.78
0.72
0.66
0.57
0.45
0.27
0.04
-0.22
-0.49
-0.75
-0.98
-1.24
-1.58
-2.00
-2.46
-2.82
-2.93
-2.73
-2.26
-1.67
-1.14
-0.79
-0.61
-0.48
-0.25
0.14
0.66
1.14
1.38
1.28
0.90
0.40
-0.00
-0.15
-0.05
0.18
0.36
0.34
0.06
-0.37
-0.80
-1.06
-1.06
-0.84
-0.50
-0.17
0.03
0.07
-0.02
-0.19
-0.41
-0.67
-0.97
-1.33
-1.67
-1.93
-2.05
-2.03
-1.90
-1.74
-1.61
-1.53
-1.45
-1.33
-1.10
-0.78
-0.40
-0.02
0.31
0.60
0.92
1.30
1.76
2.25
2.64
2.83
2.76
2.49
2.16
1.93
1.88
2.02
2.23
2.39
2.43
2.32
2.11
1.87
1.66
1.50
1.36
1.19
0.96
0.69
0.40
0.18
0.05
-0.00
-0.09
-0.36
-0.89
-1.65
-2.44
-2.99
-3.05
-2.56
-1.65
-0.61
0.21
0.62
0.63
0.42
0.23
0.24
0.42
0.61
0.64
0.42
0.04
-0.31
-0.45
-0.29
0.10
0.51
0.78
0.83
0.69
0.49
0.32
0.21
0.13
0.02
-0.15
-0.37
-0.60
-0.76
-0.81
-0.73
-0.58
-0.47
-0.53
-0.85
-1.42
-2.14
-2.83
-3.33
-3.54
-3.43
-3.03
-2.43
-1.69
-0.90
-0.16
0.45
0.82
0.93
0.80
0.52
0.19
-0.06
-0.19
-0.16
-0.02
0.21
0.44
0.60
0.64
0.58
0.47
0.40
0.41
0.50
0.57
0.55
0.38
0.11
-0.18
-0.42
-0.61
-0.82
-1.12
-1.51
-1.90
-2.12
-2.08
-1.79
-1.40
-1.10
-1.03
-1.19
-1.47
-1.67
-1.66
-1.42
-1.01
-0.52
-0.08
0.26
0.48
0.58
0.57
0.43
0.21
-0.06
-0.33
-0.57
-0.82
-1.12
-1.52
-2.02
-2.50
-2.80
-2.78
-2.44
-1.97
-1.68
-1.88
-2.72
-4.04
-5.44
-6.36
-6.36
-5.29
-3.39
-1.21
0.59
1.60
1.75
1.43
1.39
2.70
6.51
13.79
24.91
39.23
54.94
69.32
79.48
83.24
79.91
70.48
57.18
42.64
28.98
17.31
7.75
-0.12
-6.82
-12.55
-17.24
-20.76
-23.13
-24.64
-25.82
-27.14
-28.76
-30.49
-31.91
-32.70
-32.91
-33.05
-33.99
-36.56
-41.26
-47.88
-55.50
-62.77
-68.43
-71.84
-73.16
-73.13
-72.31
-70.55
-66.63
-58.66
-45.08
-25.64
-1.82
23.67
47.93
68.92
85.86
98.86
108.31
114.15
115.98
113.61
107.86
100.83
95.41
94.01
97.62
105.55
115.78
125.82
133.62
138.14
139.34
137.78
133.47
126.34
116.69
105.32
93.33
81.65
70.77
60.71
51.27
40.98
28.88
15.36
1.84
-10.21
-20.37
-29.46
-39.06
-50.70
-67.11
-89.70
-117.06
-145.93
-172.80
-195.46
-213.25
-226.34
-234.96
-241.51
-247.90
-253.61
-257.05
-257.40
-256.15
-256.71
-262.81
-260.35
-239.50
-199.42
-147.66
-94.36
-45.97
-5.26
26.92
50.83
67.47
75.40
70.46
53.98
29.53
2.55
-20.67
-33.82
-31.94
-13.09
24.39
69.93
111.06
139.38
153.58
157.46
156.09
152.59
147.04
136.48
117.97
93.32
67.69
46.81
33.86
28.27
26.92
26.32
23.62
17.35
9.15
1.83
-2.28
-2.54
0.06
3.58
6.02
5.71
1.47
-6.20
-15.76
-25.19
-32.76
-36.69
-36.01
-30.71
-21.85
-11.67
-2.68
2.68
2.72
-3.01
-13.25
-25.38
-36.09
-42.47
-43.07
-38.20
-29.58
-19.56
-10.13
-2.32
3.70
8.21
11.49
13.49
14.11
13.45
12.02
10.61
9.96
10.31
11.34
12.35
12.60
11.69
9.72
7.20
4.78
2.97
1.90
1.35
0.91
0.18
-1.04
-2.69
-4.48
-6.08
-7.21
-7.78
-7.88
-7.67
-7.27
-6.76
-6.11
-5.27
-4.17
-2.77
-1.04
1.00
3.29
5.70
8.06
10.25
12.25
14.12
15.98
17.86
19.66
21.16
22.16
22.60
22.62
22.43
22.26
22.14
21.99
21.61
20.83
19.62
18.02
16.20
14.31
12.48
10.70
8.87
6.81
4.29
1.10
-2.87
-7.57
-12.74
-17.87
-22.31
-25.45
-26.96
-26.94
-25.89
-24.49
-23.30
-22.54
-22.02
-21.43
-20.47
-19.15
-17.71
-16.47
-15.70
-15.42
-15.49
-15.64
-15.58
-15.14
-14.25
-12.98
-11.50
-9.98
-8.56
-7.22
-5.89
-4.43
-2.72
-0.67
1.74
4.50
7.53
10.64
13.52
15.89
17.53
18.51
19.23
20.27
22.23
25.50
30.11
35.80
42.08
48.35
54.01
58.51
61.38
62.28
61.09
57.94
53.17
47.28
40.77
34.10
27.56
21.28
15.26
9.37
3.40
-2.88
-9.58
-16.66
-23.87
-30.88
-37.34
-43.04
-47.99
-52.40
-56.59
-60.88
-65.49
-70.39
-75.29
-79.60
-82.56
-83.41
-81.60
-76.97
-69.81
-60.78
-50.75
-40.60
-31.07
-22.61
-15.39
-9.28
-3.96
0.99
5.94
11.15
16.66
22.32
27.88
33.05
37.55
41.24
44.11
46.34
48.28
50.37
52.92
56.01
59.29
62.12
63.72
63.55
61.55
58.24
54.42
50.86
47.99
45.75
43.90
42.22
40.80
39.85
39.56
39.76
39.95
39.47
37.83
34.94
31.07
26.65
21.98
17.07
11.70
5.56
-1.52
-9.51
-18.13
-27.02
-35.83
-44.26
-52.15
-59.41
-66.01
-71.99
-77.40
-82.38
-87.03
-91.41
-95.38
-98.57
-100.40
-100.20
-97.35
-91.49
-82.67
-71.36
-58.40
-44.77
-31.40
-18.87
-7.35
3.25
13.16
22.46
31.01
38.56
44.89
49.99
54.10
57.59
60.87
64.18
67.55
70.83
73.75
76.02
77.41
77.78
77.11
75.40
72.70
69.13
64.91
60.42
56.18
52.67
50.12
48.44
47.24
46.03
44.44
42.36
39.89
37.19
34.27
30.97
27.03
22.23
16.55
10.24
3.63
-2.98
-9.49
-16.04
-22.86
-30.11
-37.74
-45.46
-52.86
-59.58
-65.47
-70.60
-75.20
-79.47
-83.53
-87.35
-90.82
-93.71
-95.75
-96.58
-95.77
-92.92
-87.73
-80.18
-70.57
-59.50
-47.75
-36.08
-25.09
-15.14
-6.33
1.44
8.42
14.89
21.11
27.22
33.21
38.92
44.22
49.03
53.48
57.76
62.13
66.66
71.27
75.64
79.29
81.68
82.31
80.85
77.30
72.07
66.00
60.07
55.13
51.56
49.23
47.59
46.04
44.18
41.89
39.26
36.41
33.37
30.06
26.39
22.23
17.53
12.24
6.31
-0.24
-7.31
-14.69
-22.15
-29.49
-36.64
-43.60
-50.38
-56.95
-63.18
-68.91
-73.97
-78.26
-81.76
-84.58
-86.86
-88.72
-90.16
-90.89
-90.44
-88.22
-83.79
-77.06
-68.35
-58.30
-47.60
-36.79
-26.22
-16.01
-6.27
2.83
11.10
18.38
24.64
29.99
34.57
38.48
41.74
44.38
46.51
48.42
50.53
53.21
56.65
60.71
65.04
69.12
72.48
74.82
75.94
75.82
74.56
72.43
69.90
67.51
65.74
64.73
64.20
63.49
61.86
58.85
54.40
48.82
42.52
35.75
28.49
20.60
12.01
2.89
-6.45
-15.74
-24.92
-34.17
-43.65
-53.26
-62.42
-70.20
-75.59
-77.99
-77.37
-74.27
-69.50
-63.76
-57.47
-50.82
-43.95
-37.15
-30.89
-25.66
-21.79
-19.36
-18.25
-18.28
-19.35
-21.45
-24.54
-28.44
-32.75
-36.90
-40.29
-42.55
-43.62
-43.74
-43.16
-41.93
-39.68
-35.70
-29.15
-19.33
-5.91
10.93
30.27
50.41
68.98
83.49
92.29
95.54
95.44
95.48
98.89
106.96
118.43
129.95
137.76
139.54
135.78
129.71
125.68
127.18
134.78
146.21
156.86
161.57
156.21
138.43
107.56
65.06
14.95
-36.02
-79.13
-107.28
-118.57
-118.88
-120.25
-135.81
-172.94
-228.47
-289.01
-336.41
-356.80
-346.62
-313.30
-270.43
-230.65
-200.09
-175.23
-150.10
-119.20
-82.29
-45.15
-16.07
-0.31
3.28
1.00
2.67
13.47
33.60
58.56
83.33
104.82
123.52
143.12
169.09
196.75
221.20
237.46
241.54
233.45
216.30
194.40
171.03
147.01
120.63
90.26
59.43
27.32
-4.71
-33.92
-57.64
-74.49
-84.75
-89.97
-91.27
-89.43
-85.68
-80.60
-74.91
-69.49
-65.04
-61.82
-59.69
-57.70
-54.83
-50.99
-46.04
-40.34
-34.61
-29.44
-25.23
-22.14
-19.83
-17.83
-15.98
-13.92
-11.47
-8.65
-5.32
-1.51
2.43
6.02
8.92
11.00
12.69
14.72
17.80
22.80
29.80
37.85
45.26
50.62
53.36
54.05
54.00
54.66
57.54
63.13
70.52
77.69
82.44
82.88
77.49
65.07
42.10
8.80
-29.62
-65.46
-93.32
-111.96
-122.88
-128.01
-128.37
-124.31
-115.72
-103.62
-90.73
-80.56
-75.59
-76.24
-81.22
-88.11
-93.65
-94.18
-86.09
-67.25
-38.47
-3.10
33.87
67.10
92.79
110.79
122.06
128.19
129.66
124.66
110.34
84.64
48.70
8.33
-26.86
-46.48
-43.23
-15.27
29.98
79.15
118.34
137.90
134.91
112.80
78.74
40.75
5.31
-23.82
-44.74
-57.38
-62.70
-62.00
-56.81
-48.77
-39.52
-31.19
-25.89
-24.71
-27.06
-30.88
-33.49
-32.94
-28.78
-22.19
-15.36
-10.38
-8.28
-8.67
-10.17
-11.17
-10.59
-8.25
-4.79
-1.21
1.63
3.36
4.24
4.70
5.02
5.20
4.96
4.00
2.22
-0.16
-2.94
-5.55
-8.03
-10.86
-14.75
-20.20
-27.12
-34.71
-41.26
-45.97
-48.13
-48.08
-46.87
-45.86
-46.28
-49.07
-54.67
-62.61
-71.27
-76.97
-75.51
-63.52
-40.40
-9.31
23.61
51.62
70.29
79.05
81.00
80.49
80.74
82.37
83.86
83.40
80.34
75.92
72.39
71.63
74.18
79.40
86.23
93.25
98.91
100.98
96.72
83.76
61.62
32.64
1.63
-25.79
-45.42
-56.05
-59.42
-58.73
-56.81
-54.96
-53.10
-50.69
-47.70
-44.91
-43.37
-43.69
-45.62
-48.21
-50.43
-51.44
-51.13
-49.87
-48.37
-47.33
-47.31
-48.59
-51.10
-54.55
-58.40
-61.98
-64.73
-66.50
-67.44
-68.11
-69.20
-71.12
-74.11
-78.36
-84.20
-91.70
-99.85
-105.88
-105.52
-94.74
-71.05
-36.04
4.83
43.96
74.63
93.53
101.39
101.75
98.66
94.89
91.22
87.48
83.22
78.60
74.24
70.71
68.11
66.22
64.87
63.90
63.67
64.21
65.23
66.25
66.69
66.17
64.77
63.02
61.77
62.45
66.13
73.47
83.99
95.29
103.12
102.47
89.72
63.20
28.29
-7.34
-36.35
-54.57
-62.16
-62.51
-59.74
-56.42
-52.98
-48.19
-41.78
-35.00
-30.26
-29.76
-34.10
-41.83
-50.22
-57.07
-60.64
-61.67
-62.42
-65.37
-72.27
-83.62
-98.80
-115.34
-131.14
-142.49
-145.38
-136.58
-115.33
-84.44
-49.81
-18.42
4.47
17.07
21.58
21.93
21.69
22.48
24.05
25.64
26.80
28.35
31.50
37.07
44.59
52.40
58.58
61.58
61.09
57.88
53.41
49.05
45.73
43.58
42.15
40.80
39.15
37.26
35.48
34.26
33.80
34.07
34.86
35.90
36.99
38.25
39.74
41.32
42.53
42.78
41.73
39.81
38.23
38.77
43.07
51.37
62.04
71.62
76.17
73.14
62.97
49.02
36.19
29.00
29.64
37.62
50.56
65.49
79.83
91.38
98.02
95.31
80.41
53.85
20.86
-10.00
-30.24
-35.27
-26.44
-9.87
6.94
18.87
23.96
22.01
11.61
-10.54
-47.68
-99.93
-161.62
-221.37
-264.74
-279.43
-259.96
-210.82
-144.25
-75.82
-19.37
16.99
32.43
32.61
26.47
22.12
22.39
25.69
28.59
28.71
26.61
24.86
26.27
31.73
38.91
40.85
30.36
3.92
-36.68
-84.58
-131.72
-171.95
-202.74
-213.10
-197.67
-160.23
-112.56
-66.97
-28.66
2.73
29.44
52.76
72.20
84.33
86.20
77.67
59.40
36.73
14.58
-4.21
-18.98
-31.05
-44.14
-61.71
-79.05
-95.31
-109.89
-122.90
-134.02
-141.18
-140.39
-127.87
-101.60
-63.04
-18.49
24.26
57.86
78.45
86.87
87.32
84.48
81.54
79.57
77.59
75.14
72.48
70.38
70.09
71.34
73.16
74.84
76.27
77.78
80.14
83.25
85.65
84.89
78.63
66.08
48.89
30.58
14.77
3.81
-2.49
-6.72
-12.53
-23.08
-39.54
-60.42
-81.92
-98.88
-106.00
-99.13
-76.65
-40.21
5.44
51.33
87.29
105.62
104.24
87.53
64.43
44.27
32.73
29.66
29.96
27.08
16.52
-2.26
-26.18
-50.47
-70.98
-85.50
-93.77
-96.57
-94.27
-86.45
-72.23
-51.38
-25.16
3.57
31.20
54.87
73.35
87.40
98.82
109.22
119.12
128.00
135.27
141.43
148.62
159.95
177.90
202.49
230.32
255.21
270.18
270.13
253.90
224.87
189.48
154.61
124.73
100.45
78.94
56.11
28.92
-3.21
-38.58
-74.67
-109.64
-143.16
-176.12
-209.62
-243.94
-278.13
-310.39
-338.77
-361.79
-378.54
-388.39
-390.98
-386.78
-378.01
-369.00
-365.21
-370.89
-386.53
-407.60
-425.70
-431.75
-419.72
-388.72
-342.53
-286.91
-226.64
-164.15
-100.14
-35.52
27.13
83.75
130.39
164.98
188.39
203.96
216.19
229.06
244.95
264.17
285.21
305.47
322.14
333.05
337.16
334.57
325.98
312.25
294.17
272.81
250.02
228.54
211.33
200.28
195.04
192.43
187.06
173.01
145.86
104.67
52.88
-2.17
-51.22
-85.98
-101.81
-99.03
-82.27
-58.26
-33.07
-10.44
8.14
22.01
29.82
29.30
18.40
-2.77
-30.98
-60.44
-84.92
-100.14
-105.38
-103.49
-99.53
-98.60
-103.92
-115.72
-131.33
-146.23
-155.56
-155.50
-144.25
-122.53
-93.95
-64.85
-43.25
-36.64
-48.89
-77.53
-113.14
-141.62
-149.39
-129.14
-83.33
-23.45
34.99
79.13
103.76
112.18
112.89
114.53
121.75
134.02
147.49
158.17
164.51
167.98
171.84
178.89
189.73
202.51
214.21
222.51
227.20
230.40
235.41
244.92
259.50
277.13
293.85
305.09
307.07
297.65
276.20
243.11
199.50
147.71
91.95
38.49
-5.60
-35.01
-49.02
-52.59
-54.94
-65.72
-90.63
-128.82
-173.41
-214.85
-245.40
-262.08
-267.03
-265.18
-261.25
-257.70
-254.57
-250.82
-246.00
-241.02
-237.88
-238.45
-243.36
-251.96
-263.10
-276.28
-291.84
-310.16
-330.07
-347.79
-357.67
-354.48
-336.32
-306.11
-270.64
-237.44
-211.10
-191.25
-173.22
-150.68
-118.83
-76.22
-24.77
31.68
88.97
143.64
193.15
235.67
269.80
294.54
309.35
314.67
312.19
304.74
295.70
288.11
283.93
283.57
285.86
288.72
290.41
290.51
289.98
290.46
293.08
297.70
302.91
306.66
307.01
303.46
297.21
290.52
285.43
282.77
282.13
282.61
283.28
282.03
276.94
266.84
252.09
234.59
217.22
202.75
192.90
186.49
177.41
159.39
129.57
90.37
47.91
8.44
-24.33
-49.37
-69.02
-90.50
-119.31
-156.51
-198.63
-240.81
-280.32
-317.53
-353.11
-388.72
-429.93
