1659460246.00
64.000000
-0.00
-0.00
-0.00
-0.00
-0.00
-0.00
-0.00
-0.00
-0.00
-0.00
0.00
0.01
0.01
-0.00
-0.03
-0.05
-0.05
0.00
0.13
0.36
0.66
1.01
1.37
1.72
2.06
2.40
2.79
3.24
3.80
4.42
5.06
5.66
6.20
6.68
7.15
7.68
8.31
9.14
10.09
11.04
11.88
12.56
13.14
13.76
14.65
15.96
17.92
20.32
22.91
25.38
27.57
29.56
31.67
34.33
37.85
42.60
48.20
54.12
59.74
64.73
69.16
73.56
78.64
84.94
92.98
102.22
111.81
120.84
128.74
135.57
141.99
149.36
156.39
165.30
176.64
190.41
205.37
218.63
225.91
222.68
205.66
174.00
130.00
77.32
20.12
-38.50
-96.96
-154.80
-211.87
-267.63
-321.15
-371.14
-417.03
-458.52
-495.30
-526.43
-550.16
-564.17
-566.23
-555.06
-530.71
-495.00
-450.74
-401.01
-348.40
-294.60
-240.54
-186.76
-134.00
-83.36
-36.44
5.14
39.99
67.22
86.66
99.11
106.63
112.47
120.44
133.64
153.18
177.56
203.03
225.07
240.11
246.76
245.84
239.43
229.65
217.85
204.58
190.07
174.83
159.77
145.86
133.67
123.07
113.34
103.59
93.26
82.39
71.55
61.58
53.07
46.18
40.69
35.95
31.31
26.46
21.43
16.54
12.15
8.53
5.72
3.59
1.90
0.40
-1.05
-2.42
-3.63
-4.52
-5.03
-5.20
-5.19
-5.24
-5.48
-5.94
-6.49
-6.95
-7.18
-7.16
-6.93
-6.61
-6.34
-6.19
-6.16
-6.14
-5.96
-5.46
-4.60
-3.52
-2.53
-1.93
-1.91
-2.38
-3.06
-3.63
-3.90
-3.87
-3.72
-3.63
-3.66
-3.74
-3.73
-3.55
-3.15
-2.60
-1.96
-1.35
-0.85
-0.53
-0.42
-0.50
-0.67
-0.78
-0.74
-0.58
-0.40
-0.35
-0.52
-0.88
-1.29
-1.55
-1.54
-1.22
-0.70
-0.11
0.42
0.82
1.13
1.42
1.76
2.19
2.66
3.12
3.55
3.98
4.50
5.17
5.94
6.66
7.16
7.28
6.98
6.33
5.46
4.48
3.45
2.27
0.91
-0.65
-2.32
-3.98
-5.47
-6.65
-7.46
-7.87
-7.97
-7.83
-7.57
-7.25
-6.89
-6.52
-6.15
-5.81
-5.58
-5.49
-5.51
-5.52
-5.40
-5.08
-4.57
-3.99
-3.49
-3.16
-3.00
-2.91
-2.78
-2.57
-2.32
-2.11
-2.02
-2.03
-2.07
-2.03
-1.84
-1.50
-1.10
-0.78
-0.63
-0.69
-0.92
-1.27
-1.64
-1.95
-2.13
-2.12
-1.89
-1.45
-0.87
-0.28
0.15
0.29
0.13
-0.21
-0.57
-0.81
-0.89
-0.90
-0.96
-1.16
-1.53
-1.96
-2.29
-2.41
-2.28
-2.00
-1.68
-1.41
-1.22
-1.05
-0.85
-0.59
-0.33
-0.16
-0.17
-0.38
-0.75
-1.18
-1.57
-1.87
-2.05
-2.15
-2.19
-2.20
-2.19
-2.21
-2.28
-2.43
-2.61
-2.74
-2.69
-2.40
-1.89
-1.27
-0.72
-0.42
-0.42
-0.68
-1.04
-1.38
-1.61
-1.78
-1.98
-2.30
-2.77
-3.32
-3.88
-4.36
-4.75
-5.10
-5.47
-5.91
-6.41
-6.97
-7.53
-8.11
-8.71
-9.31
-9.85
-10.23
-10.34
-10.07
-9.39
-8.29
-6.83
-5.11
-3.21
-1.22
0.79
2.76
4.64
6.41
8.03
9.49
10.76
11.78
12.48
12.81
12.77
12.46
12.03
11.60
11.22
10.84
10.34
9.67
8.83
7.92
7.05
6.29
5.61
4.97
4.34
3.78
3.39
3.23
3.26
3.38
3.47
3.44
3.28
2.98
2.57
2.08
1.52
0.96
0.47
0.11
-0.10
-0.24
-0.42
-0.69
-1.04
-1.40
-1.67
-1.82
-1.86
-1.86
-1.86
-1.82
-1.65
-1.28
-0.70
-0.02
0.60
1.05
1.25
1.25
1.14
1.01
0.94
0.94
0.99
1.02
0.99
0.89
0.76
0.65
0.63
0.69
0.78
0.82
0.75
0.58
0.40
0.32
0.40
0.61
0.85
1.00
0.98
0.79
0.48
0.13
-0.20
-0.49
-0.77
-1.04
-1.30
-1.51
-1.63
-1.61
-1.45
-1.19
-0.88
-0.56
-0.27
-0.03
0.17
0.29
0.36
0.39
0.40
0.44
0.51
0.62
0.73
0.79
0.79
0.73
0.63
0.51
0.38
0.25
0.13
0.02
-0.06
-0.12
-0.15
-0.16
-0.18
-0.23
-0.30
-0.39
-0.49
-0.60
-0.75
-0.95
-1.18
-1.39
-1.51
-1.48
-1.32
-1.08
-0.89
-0.81
-0.85
-0.89
-0.79
-0.47
0.07
0.71
1.29
1.72
1.98
2.14
2.24
2.28
2.22
2.00
1.63
1.20
0.84
0.69
0.80
1.10
1.46
1.73
1.83
1.76
1.56
1.31
1.06
0.82
0.58
0.35
0.16
0.02
-0.05
-0.06
-0.05
-0.02
0.01
0.03
-0.00
-0.16
-0.50
-1.00
-1.60
-2.16
-2.54
-2.68
-2.58
-2.29
-1.87
-1.34
-0.75
-0.11
0.50
1.00
1.31
1.38
1.25
0.97
0.64
0.35
0.16
0.11
0.20
0.41
0.66
0.90
1.05
1.08
0.97
0.74
0.41
0.03
-0.34
-0.65
-0.85
-0.88
-0.77
-0.56
-0.34
-0.18
-0.09
-0.04
0.04
0.18
0.35
0.47
0.48
0.34
0.08
-0.25
-0.56
-0.74
-0.72
-0.46
0.01
0.62
1.24
1.76
2.12
2.33
2.40
2.34
2.14
1.80
1.36
0.90
0.51
0.28
0.22
0.29
0.46
0.65
0.84
0.97
0.98
0.84
0.56
0.20
-0.12
-0.30
-0.33
-0.30
-0.29
-0.39
-0.59
-0.80
-0.89
-0.83
-0.64
-0.47
-0.47
-0.71
-1.18
-1.72
-2.11
-2.19
-1.90
-1.31
-0.59
0.09
0.62
0.99
1.27
1.51
1.73
1.90
1.96
1.87
1.68
1.45
1.25
1.09
0.97
0.85
0.70
0.56
0.48
0.51
0.66
0.88
1.08
1.16
1.07
0.79
0.38
-0.09
-0.54
-0.90
-1.14
-1.24
-1.20
-1.06
-0.90
-0.78
-0.78
-0.93
-1.19
-1.52
-1.85
-2.12
-2.25
-2.15
-1.74
-1.01
-0.04
0.96
1.75
2.14
2.09
1.70
1.19
0.76
0.52
0.46
0.50
0.51
0.42
0.24
0.03
-0.13
-0.20
-0.19
-0.16
-0.16
-0.21
-0.25
-0.26
-0.20
-0.05
0.12
0.26
0.36
0.42
0.47
0.50
0.46
0.32
0.04
-0.37
-0.83
-1.27
-1.63
-1.85
-1.94
-1.88
-1.68
-1.33
-0.85
-0.31
0.19
0.52
0.58
0.38
-0.03
-0.53
-1.01
-1.39
-1.62
-1.70
-1.65
-1.54
-1.45
-1.46
-1.65
-2.07
-2.70
-3.46
-4.25
-4.97
-5.54
-5.94
-6.21
-6.46
-6.78
-7.26
-7.94
-8.77
-9.64
-10.43
-11.01
-11.33
-11.40
-11.25
-10.94
-10.47
-9.81
-8.87
-7.54
-5.74
-3.48
-0.88
1.88
4.56
6.98
9.02
10.65
11.90
12.81
13.40
13.69
13.69
13.40
12.90
12.26
11.52
10.69
9.77
8.75
7.71
6.74
5.96
5.40
5.00
4.63
4.16
3.56
2.88
2.24
1.72
1.31
0.99
0.70
0.46
0.35
0.43
0.69
1.03
1.32
1.47
1.46
1.37
1.25
1.18
1.16
1.15
1.13
1.10
1.07
1.05
1.07
1.12
1.19
1.26
1.33
1.40
1.50
1.65
1.93
2.35
2.93
3.64
4.33
4.87
5.18
5.28
5.30
5.43
5.86
6.70
7.93
9.24
10.27
10.79
10.92
11.08
11.87
13.70
16.53
19.92
22.96
24.85
25.34
24.86
24.23
24.34
25.76
28.70
33.07
38.19
43.26
47.65
50.97
53.20
54.91
57.51
63.14
73.89
89.65
108.43
126.99
142.08
151.56
154.83
152.59
146.19
136.73
122.95
103.23
77.01
45.72
12.12
-21.15
-52.56
-81.75
-109.03
-136.90
-167.13
-199.63
-232.27
-262.20
-287.70
-308.95
-327.71
-333.03
-317.45
-280.50
-230.17
-177.30
-128.85
-87.14
-51.91
-22.32
2.25
20.15
30.13
32.50
29.51
24.85
21.42
20.74
22.92
27.21
30.81
31.33
27.77
20.11
11.72
5.30
2.07
1.35
1.37
-0.91
-8.01
-21.36
-40.98
-64.36
-87.87
-106.77
-116.24
-112.41
-94.36
-64.41
-25.12
13.44
42.77
59.08
64.33
63.05
59.52
55.75
53.25
50.49
46.64
43.24
42.39
46.11
54.46
65.72
76.96
85.23
88.35
85.94
80.45
71.22
60.28
49.52
39.93
31.53
23.84
16.25
8.70
2.03
-2.89
-5.14
-5.00
-3.59
-2.20
-1.71
-2.43
-3.97
-5.53
-6.52
-6.39
-5.36
-4.12
-3.32
-3.27
-3.90
-4.81
-5.52
-5.81
-5.51
-4.86
-4.27
-4.03
-4.16
-4.51
-4.83
-4.94
-4.82
-4.40
-3.73
-2.85
-1.73
-0.36
1.26
3.06
4.90
6.61
8.11
9.36
10.39
11.26
12.02
12.67
13.15
13.35
13.15
12.46
11.23
9.45
7.18
4.56
1.82
-0.79
-3.05
-4.91
-6.41
-7.71
-8.95
-10.20
-11.45
-12.65
-13.76
-14.81
-15.85
-16.87
-17.77
-18.42
-18.66
-18.45
-17.84
-16.96
-15.95
-14.89
-13.75
-12.47
-10.85
-8.70
-5.82
-2.15
2.15
6.68
10.86
14.12
16.10
16.75
16.28
15.10
13.60
12.06
10.63
9.38
8.31
7.35
6.38
5.28
3.96
2.44
0.79
-0.86
-2.45
-3.98
-5.43
-6.75
-7.79
-8.40
-8.47
-8.03
-7.22
-6.30
-5.53
-5.11
-5.14
-5.53
-6.00
-6.12
-5.40
-3.51
-0.40
3.60
7.85
11.64
14.42
15.94
16.29
15.76
14.72
13.45
12.18
11.04
10.13
9.47
9.01
8.57
7.94
6.86
5.23
3.05
0.50
-2.17
-4.67
-6.78
-8.32
-9.30
-9.82
-10.09
-10.32
-10.60
-10.86
-10.89
-10.43
-9.29
-7.47
-5.11
-2.46
0.26
2.92
5.50
8.07
10.73
13.58
16.66
19.92
23.22
26.32
28.85
30.40
30.65
29.48
27.06
23.88
20.59
17.85
16.09
15.36
15.39
15.66
15.65
15.01
13.64
11.72
9.62
7.80
6.68
6.46
7.05
8.06
8.88
8.95
7.93
5.85
3.08
0.15
-2.45
-4.42
-5.66
-6.28
-6.41
-6.23
-5.89
-5.58
-5.51
-5.88
-6.79
-8.18
-9.87
-11.58
-13.05
-14.15
-14.90
-15.39
-15.74
-15.97
-15.98
-15.64
-14.81
-13.46
-11.63
-9.42
-6.91
-4.15
-1.14
2.11
5.54
9.06
12.54
15.81
18.72
21.14
22.99
24.27
25.03
25.36
25.34
25.05
24.49
23.62
22.44
20.98
19.35
17.68
16.11
14.72
13.44
12.11
10.52
8.51
6.06
3.37
0.81
-1.20
-2.29
-2.28
-1.24
0.49
2.37
3.81
4.33
3.71
2.10
-0.08
-2.30
-4.15
-5.46
-6.27
-6.77
-7.12
-7.38
-7.54
-7.60
-7.67
-7.98
-8.74
-10.10
-11.99
-14.25
-16.60
-18.81
-20.68
-22.09
-22.96
-23.26
-22.98
-22.19
-20.97
-19.43
-17.63
-15.61
-13.30
-10.60
-7.43
-3.76
0.31
4.63
8.98
13.10
16.78
19.82
22.10
23.59
24.37
24.56
24.31
23.73
22.86
21.65
20.03
17.95
15.45
12.69
9.87
7.24
4.94
3.03
1.45
0.09
-1.20
-2.50
-3.85
-5.18
-6.39
-7.29
-7.67
-7.32
-6.08
-3.96
-1.22
1.69
4.22
5.96
6.75
6.72
6.17
5.42
4.63
3.81
2.87
1.76
0.47
-0.90
-2.25
-3.56
-4.87
-6.25
-7.75
-9.34
-10.98
-12.61
-14.21
-15.79
-17.31
-18.72
-19.89
-20.64
-20.85
-20.46
-19.51
-18.09
-16.25
-13.98
-11.25
-8.03
-4.43
-0.67
2.94
6.17
8.90
11.21
13.27
15.30
17.41
19.55
21.57
23.25
24.42
24.95
24.83
24.07
22.73
20.88
18.65
16.19
13.71
11.40
9.40
7.74
6.33
5.04
3.71
2.23
0.55
-1.26
-3.05
-4.60
-5.65
-6.00
-5.58
-4.51
-3.09
-1.75
-0.87
-0.64
-1.04
-1.81
-2.65
-3.33
-3.83
-4.23
-4.70
-5.33
-6.08
-6.84
-7.52
-8.12
-8.76
-9.59
-10.67
-11.92
-13.15
-14.15
-14.78
-14.95
-14.72
-14.11
-13.19
-11.98
-10.51
-8.80
-6.85
-4.66
-2.23
0.45
3.29
6.16
8.84
11.17
13.04
14.45
15.44
15.97
15.94
15.17
13.58
11.31
8.65
5.97
3.47
1.34
-0.35
-1.62
-2.61
-3.50
-4.40
-5.36
-6.48
-7.96
-9.92
-12.46
-15.56
-19.06
-22.62
-25.52
-27.07
-26.94
-25.59
-23.70
-22.00
-20.94
-20.45
-19.91
-17.89
-13.21
-5.77
2.69
10.41
16.08
19.28
20.38
20.34
21.33
25.03
31.70
38.73
44.16
46.85
46.81
44.57
41.16
39.40
41.72
48.73
57.23
65.39
72.54
78.81
83.22
83.97
81.46
77.51
75.21
75.69
82.59
98.42
122.60
150.00
160.78
141.50
92.59
44.13
8.67
-10.92
-22.06
-29.90
-38.44
-49.14
-58.73
-62.97
-59.69
-52.66
-45.03
-39.13
-35.58
-34.49
-35.11
-34.62
-30.36
-21.31
-10.40
0.75
11.50
22.32
33.36
44.37
55.49
65.92
73.46
73.88
64.86
46.26
20.28
-9.70
-39.90
-66.73
-87.94
-103.11
-113.53
-119.90
-122.44
-120.57
-113.43
-100.31
-81.16
-56.98
-30.26
-4.30
18.04
33.79
41.05
39.80
32.32
22.24
13.53
8.17
6.32
6.40
4.13
-5.04
-23.53
-50.18
-80.80
-109.15
-130.27
-140.45
-138.21
-126.96
-113.17
-103.48
-102.17
-110.53
-126.52
-147.85
-170.93
-179.88
-162.59
-118.41
-60.04
-4.57
30.87
48.11
51.90
47.45
39.09
30.41
22.05
13.76
5.85
-0.54
-3.00
-0.80
6.24
17.31
29.01
37.20
39.92
38.66
37.06
39.00
44.89
52.71
59.39
61.40
56.65
45.85
32.13
19.27
10.36
5.96
5.27
7.15
10.17
13.19
15.80
18.28
21.07
24.49
27.91
30.36
31.02
29.45
25.79
21.01
16.42
13.14
11.50
10.80
9.82
7.54
3.73
-1.00
-5.55
-8.98
-11.04
-12.28
-13.66
-16.06
-19.83
-24.73
-30.15
-35.46
-40.32
-44.65
-48.48
-51.70
-53.96
-54.73
-53.59
-50.32
-45.03
-38.08
-29.95
-21.17
-12.24
-3.66
4.13
10.71
15.79
19.29
21.39
22.49
23.03
23.41
23.85
24.44
25.11
25.80
26.47
27.11
27.71
28.16
28.28
27.84
26.66
24.73
22.24
19.60
17.27
15.58
14.63
14.25
14.11
13.92
13.50
12.85
12.06
11.28
10.61
10.12
9.88
9.92
10.23
10.81
11.62
12.77
14.41
16.80
20.03
23.91
27.89
31.25
33.43
34.25
33.98
33.07
31.82
30.29
28.48
26.58
25.01
24.09
23.62
22.69
20.03
14.71
6.77
-2.62
-11.81
-19.63
-26.02
-31.89
-38.34
-45.64
-52.81
-58.04
-59.72
-57.46
-52.34
-46.35
-41.18
-37.41
-34.23
-30.13
-23.90
-15.56
-6.36
1.84
7.68
10.88
12.31
13.33
14.86
16.95
18.80
19.39
18.10
15.10
11.12
7.12
3.81
1.43
-0.26
-1.65
-3.08
-4.59
-6.01
-7.05
-7.47
-7.28
-6.70
-6.08
-5.75
-5.91
-6.53
-7.41
-8.27
-8.86
-9.12
-9.12
-9.06
-9.10
-9.28
-9.47
-9.43
-8.99
-8.08
-6.88
-5.64
-4.62
-3.92
-3.45
-3.05
-2.54
-1.89
-1.14
-0.42
0.20
0.71
1.16
1.55
1.84
1.88
1.57
0.92
0.12
-0.57
-0.88
-0.72
-0.24
0.31
0.63
0.59
0.27
-0.12
-0.38
-0.45
-0.47
-0.64
-1.13
-1.90
-2.72
-3.33
-3.55
-3.42
-3.12
-2.87
-2.74
-2.65
-2.38
-1.76
-0.79
0.35
1.39
2.11
2.48
2.61
2.70
2.86
3.06
3.16
3.04
2.68
2.15
1.64
1.25
1.05
1.02
1.09
1.17
1.21
1.13
0.90
0.53
0.09
-0.30
-0.54
-0.61
-0.58
-0.59
-0.75
-1.06
-1.47
-1.85
-2.12
-2.31
-2.44
-2.55
-2.62
-2.53
-2.17
-1.48
-0.52
0.55
1.52
2.25
2.69
2.92
3.06
3.21
3.39
3.52
3.49
3.26
2.84
2.36
1.94
1.67
1.50
1.30
0.97
0.47
-0.11
-0.56
-0.74
-0.59
-0.22
0.16
0.34
0.19
-0.25
-0.84
-1.39
-1.78
-1.94
-1.96
-1.96
-2.04
-2.16
-2.21
-2.06
-1.61
-0.90
-0.05
0.74
1.33
1.68
1.88
2.08
2.40
2.84
3.27
3.51
3.44
3.06
2.53
2.07
1.81
1.75
1.77
1.69
1.46
1.15
0.89
0.78
0.80
0.82
0.70
0.42
0.04
-0.30
-0.50
-0.58
-0.62
-0.75
-1.04
-1.44
-1.86
-2.17
-2.30
-2.22
-2.00
-1.67
-1.32
-0.97
-0.60
-0.20
0.29
0.88
1.54
2.17
2.65
2.86
2.80
2.56
2.29
2.08
1.95
1.77
1.43
0.86
0.18
-0.40
-0.67
-0.56
-0.14
0.36
0.74
0.86
0.72
0.39
-0.01
-0.40
-0.76
-1.05
-1.25
-1.37
-1.44
-1.49
-1.59
-1.78
-2.07
-2.43
-2.82
-3.17
-3.36
-3.27
-2.76
-1.81
-0.54
0.84
2.04
2.84
3.20
3.21
3.08
2.97
2.96
3.00
2.98
2.84
2.56
2.23
1.92
1.68
1.45
1.16
0.74
0.22
-0.27
-0.56
-0.54
-0.26
0.08
0.21
-0.04
-0.64
-1.37
-1.90
-2.05
-1.85
-1.55
-1.41
-1.60
-2.08
-2.66
-3.15
-3.44
-3.50
-3.38
-3.06
-2.54
-1.83
-0.99
-0.14
0.60
1.20
1.67
2.07
2.40
2.62
2.67
2.54
2.33
2.15
2.06
1.99
1.84
1.50
0.98
0.37
-0.14
-0.42
-0.45
-0.30
-0.08
0.12
0.26
0.38
0.49
0.57
0.55
0.35
-0.10
-0.71
-1.35
-1.83
-2.02
-1.93
-1.73
-1.64
-1.85
-2.36
-3.00
-3.50
-3.63
-3.29
-2.57
-1.68
-0.82
-0.10
0.48
0.99
1.50
2.00
2.46
2.78
2.91
2.86
2.71
2.56
2.51
2.54
2.59
2.51
2.20
1.72
1.22
0.92
0.98
1.37
1.88
2.23
2.21
1.76
1.01
0.18
-0.52
-0.98
-1.23
-1.33
-1.39
-1.45
-1.53
-1.65
-1.82
-2.06
-2.41
-2.82
-3.20
-3.41
-3.29
-2.80
-2.04
-1.18
-0.45
0.04
0.32
0.54
0.85
1.31
1.87
2.41
2.78
2.89
2.74
2.38
1.93
1.50
1.19
0.99
0.89
0.83
0.76
0.70
0.70
0.82
1.05
1.29
1.39
1.26
0.88
0.38
-0.07
-0.33
-0.37
-0.25
-0.13
-0.13
-0.33
-0.70
-1.16
-1.65
-2.11
-2.53
-2.93
-3.30
-3.59
-3.68
-3.44
-2.80
-1.79
-0.58
0.61
1.60
2.31
2.76
3.04
3.21
3.31
3.30
3.14
2.84
2.43
2.03
1.72
1.53
1.44
1.34
1.17
0.89
0.55
0.24
0.05
-0.01
0.02
0.06
0.05
-0.05
-0.23
-0.49
-0.79
-1.13
-1.47
-1.78
-2.02
-2.18
-2.33
-2.52
-2.81
-3.16
-3.47
-3.59
-3.41
-2.87
-2.01
-0.99
0.03
0.90
1.52
1.92
2.19
2.43
2.66
2.84
2.87
2.69
2.31
1.85
1.46
1.21
1.12
1.12
1.11
1.05
0.97
0.91
0.95
1.07
1.21
1.27
1.18
0.90
0.47
-0.04
-0.54
-1.01
-1.43
-1.81
-2.16
-2.46
-2.72
-2.95
-3.19
-3.43
-3.62
-3.66
-3.43
-2.88
-2.07
-1.11
-0.17
0.66
1.34
1.91
2.41
2.85
3.20
3.42
3.45
3.29
2.96
2.56
2.17
1.88
1.76
1.78
1.88
1.95
1.92
1.79
1.60
1.46
1.39
1.38
1.32
1.13
0.78
0.31
-0.19
-0.65
-1.07
-1.47
-1.90
-2.34
-2.78
-3.15
-3.46
-3.70
-3.93
-4.16
-4.36
-4.42
-4.20
-3.62
-2.70
-1.57
-0.42
0.56
1.23
1.56
1.61
1.52
1.41
1.40
1.52
1.78
2.14
2.52
2.84
3.00
2.95
2.68
2.27
1.85
1.56
1.47
1.55
1.70
1.78
1.67
1.35
0.88
0.38
-0.10
-0.56
-1.03
-1.51
-1.95
-2.26
-2.40
-2.38
-2.30
-2.31
-2.51
-2.91
-3.41
-3.84
-4.05
-3.95
-3.57
-2.97
-2.27
-1.55
-0.85
-0.20
0.41
1.01
1.61
2.22
2.84
3.42
3.93
4.31
4.49
4.44
4.16
3.72
3.22
2.74
2.37
2.14
2.02
1.99
2.01
2.06
2.13
2.19
2.22
2.16
1.99
1.72
1.40
1.06
0.74
0.47
0.20
-0.09
-0.41
-0.74
-1.08
-1.38
-1.65
-1.95
-2.33
-2.84
-3.43
-3.97
-4.23
-4.04
-3.30
-2.12
-0.74
0.55
1.53
2.15
2.52
2.83
3.21
3.65
4.02
4.15
3.95
3.45
2.82
2.24
1.84
1.63
1.55
1.52
1.49
1.47
1.47
1.51
1.55
1.55
1.46
1.24
0.89
0.45
-0.03
-0.48
-0.86
-1.14
-1.35
-1.56
-1.83
-2.17
-2.56
-2.93
-3.27
-3.56
-3.86
-4.19
-4.53
-4.80
-4.87
-4.67
-4.20
-3.53
-2.77
-1.99
-1.24
-0.49
0.25
1.01
1.75
2.44
3.01
3.41
3.59
3.54
3.28
2.88
2.44
2.06
1.78
1.60
1.47
1.37
1.31
1.33
1.42
1.55
1.63
1.60
1.42
1.15
0.85
0.59
0.36
0.08
-0.33
-0.94
-1.71
-2.49
-3.13
-3.53
-3.70
-3.79
-4.01
-4.48
-5.19
-5.91
-6.35
-6.26
-5.56
-4.39
-3.04
-1.75
-0.69
0.15
0.85
1.46
2.00
2.39
2.53
2.44
2.20
2.00
1.99
2.23
2.66
3.10
3.37
3.36
3.10
2.69
2.25
1.86
1.55
1.34
1.22
1.18
1.18
1.13
0.97
0.63
0.16
-0.34
-0.76
-1.04
-1.20
-1.28
-1.33
-1.34
-1.35
-1.42
-1.65
-2.16
-2.92
-3.76
-4.40
-4.60
-4.22
-3.37
-2.31
-1.30
-0.54
-0.03
0.40
0.98
1.86
3.03
4.31
5.38
5.97
5.98
5.51
4.83
4.21
3.79
3.53
3.30
2.98
2.54
2.07
1.68
1.40
1.20
0.93
0.50
-0.12
-0.83
-1.48
-1.94
-2.17
-2.27
-2.43
-2.82
-3.47
-4.29
-5.07
-5.59
-5.81
-5.80
-5.79
-5.99
-6.49
-7.20
-7.96
-8.63
-9.12
-9.43
-9.48
-9.12
-8.07
-6.11
-3.23
0.30
3.96
7.17
9.49
10.74
11.04
10.67
9.91
8.97
7.94
6.85
5.72
4.60
3.62
2.89
2.46
2.34
2.38
2.43
2.32
1.99
1.47
0.87
0.30
-0.16
-0.50
-0.75
-0.93
-1.08
-1.25
-1.45
-1.68
-1.92
-2.15
-2.35
-2.54
-2.78
-3.13
-3.62
-4.23
-4.85
-5.35
-5.63
-5.65
-5.45
-5.09
-4.62
-4.08
-3.42
-2.62
-1.64
-0.51
0.68
1.83
2.79
3.48
3.85
3.90
3.66
3.20
2.60
1.97
1.43
1.09
1.03
1.25
1.69
2.17
2.54
2.69
2.62
2.42
2.21
2.06
2.01
1.99
1.93
1.73
1.39
0.93
0.45
0.01
-0.34
-0.64
-0.96
-1.34
-1.75
-2.10
-2.29
-2.29
-2.18
-2.14
-2.40
-3.02
-3.91
-4.82
-5.45
-5.58
-5.17
-4.35
-3.33
-2.29
-1.37
-0.57
0.13
0.78
1.37
1.88
2.27
2.51
2.61
2.62
2.58
2.51
2.40
2.24
2.01
1.79
1.68
1.78
2.12
2.61
3.07
3.28
3.13
2.59
1.82
1.05
0.51
0.30
0.38
0.60
0.75
0.67
0.36
-0.11
-0.57
-0.92
-1.15
-1.35
-1.60
-1.97
-2.44
-2.92
-3.35
-3.70
-3.99
-4.24
-4.41
-4.39
-4.09
-3.50
-2.68
-1.80
-1.04
-0.50
-0.16
0.12
0.49
1.06
1.82
2.65
3.37
3.80
3.85
3.52
2.94
2.34
1.88
1.66
1.62
1.62
1.49
1.18
0.77
0.44
0.35
0.51
0.78
0.91
0.74
0.24
-0.44
-1.04
-1.40
-1.48
-1.38
-1.27
-1.26
-1.40
-1.61
-1.79
-1.90
-1.95
-2.05
-2.27
-2.64
-3.10
-3.51
-3.69
-3.57
-3.13
-2.49
-1.82
-1.24
-0.80
-0.43
0.02
0.66
1.49
2.41
3.23
3.77
3.93
3.74
3.31
2.79
2.32
1.91
1.56
1.27
1.05
0.98
1.11
1.40
1.74
1.95
1.88
1.51
0.96
0.45
0.13
0.09
0.22
0.34
0.28
-0.05
-0.56
-1.10
-1.53
-1.75
-1.83
-1.91
-2.12
-2.54
-3.16
-3.88
-4.55
-5.03
-5.26
-5.23
-4.98
-4.60
-4.12
-3.51
-2.72
-1.74
-0.59
0.58
1.58
2.25
2.58
2.70
2.80
3.06
3.47
3.86
4.03
3.84
3.38
2.84
2.49
2.46
2.69
2.99
3.13
2.95
2.48
1.90
1.40
1.10
1.01
1.05
1.09
1.03
0.88
0.65
0.39
0.08
-0.28
-0.74
-1.29
-1.88
-2.42
-2.85
-3.13
-3.32
-3.47
-3.71
-4.10
-4.67
-5.31
-5.87
-6.15
-5.97
-5.29
-4.18
-2.82
-1.41
-0.16
0.84
1.53
1.93
2.10
2.12
2.09
2.13
2.31
2.62
3.00
3.31
3.43
3.29
2.92
2.44
1.99
1.65
1.47
1.42
1.46
1.56
1.66
1.73
1.73
1.64
1.46
1.21
0.88
0.46
-0.05
-0.61
-1.13
-1.48
-1.59
-1.49
-1.28
-1.16
-1.24
-1.58
-2.14
-2.85
-3.63
-4.37
-4.96
-5.26
-5.14
-4.57
-3.60
-2.40
-1.17
-0.07
0.83
1.53
2.04
2.41
2.65
2.79
2.86
2.90
2.94
2.99
3.00
2.92
2.70
2.38
2.02
1.72
1.58
1.58
1.65
1.70
1.64
1.49
1.33
1.26
1.32
1.44
1.48
1.32
0.90
0.26
-0.47
-1.16
-1.73
-2.15
-2.44
-2.67
-2.86
-3.04
-3.24
-3.53
-3.95
-4.48
-5.01
-5.36
-5.32
-4.81
-3.87
-2.67
-1.43
-0.32
0.57
1.24
1.75
2.14
2.43
2.61
2.69
2.69
2.62
2.49
2.31
2.09
1.84
1.60
1.41
1.28
1.20
1.16
1.13
1.13
1.16
1.24
1.35
1.45
1.48
1.36
1.05
0.58
0.06
-0.37
-0.60
-0.62
-0.52
-0.48
-0.63
-0.99
-1.44
-1.79
-1.91
-1.79
-1.57
-1.46
-1.55
-1.81
-2.03
-2.00
-1.63
-0.99
-0.21
0.54
1.17
1.73
2.28
2.86
3.41
3.80
3.92
3.75
3.35
2.85
2.41
2.09
1.88
1.71
1.49
1.18
0.79
0.41
0.14
0.04
0.09
0.22
0.32
0.31
0.19
0.00
-0.17
-0.28
-0.36
-0.47
-0.70
-1.10
-1.63
-2.18
-2.61
-2.86
-2.96
-3.05
-3.32
-3.87
-4.67
-5.51
-6.13
-6.28
-5.90
-5.11
-4.12
-3.17
-2.37
-1.68
-1.01
-0.29
0.51
1.29
1.95
2.40
2.63
2.72
2.76
2.83
2.94
3.01
2.95
2.67
2.19
1.65
1.25
1.17
1.47
2.03
2.62
3.01
3.05
2.72
2.17
1.59
1.10
0.76
0.49
0.18
-0.28
-0.92
-1.62
-2.21
-2.52
-2.48
-2.19
-1.84
-1.71
-1.95
-2.57
-3.38
-4.10
-4.52
-4.56
-4.27
-3.77
-3.14
-2.37
-1.42
-0.28
0.93
2.01
2.69
2.86
2.57
2.07
1.70
1.69
2.05
2.61
3.12
3.37
3.35
3.17
3.03
3.03
3.14
3.25
3.23
3.04
2.73
2.39
2.11
1.92
1.78
1.65
1.48
1.24
0.89
0.42
-0.19
-0.87
-1.50
-1.97
-2.25
-2.37
-2.42
-2.49
-2.64
-2.84
-3.09
-3.39
-3.79
-4.28
-4.79
-5.14
-5.12
-4.61
-3.68
-2.52
-1.42
-0.57
0.03
0.52
1.06
1.76
2.57
3.35
3.92
4.22
4.23
4.04
3.78
3.51
3.26
3.02
2.74
2.40
2.01
1.65
1.40
1.33
1.44
1.62
1.72
1.61
1.28
0.81
0.34
-0.01
-0.23
-0.37
-0.50
-0.69
-0.91
-1.13
-1.33
-1.57
-1.94
-2.50
-3.28
-4.17
-4.98
-5.49
-5.49
-4.94
-3.93
-2.71
-1.58
-0.81
-0.46
-0.41
-0.41
-0.19
0.37
1.22
2.17
2.97
3.49
3.69
3.69
3.59
3.47
3.30
3.06
2.72
2.35
2.06
1.96
2.09
2.34
2.54
2.51
2.18
1.62
1.03
0.56
0.30
0.21
0.14
-0.05
-0.39
-0.79
-1.14
-1.34
-1.44
-1.59
-1.92
-2.51
-3.32
-4.18
-4.93
-5.40
-5.52
-5.32
-4.85
-4.20
-3.44
-2.63
-1.76
-0.82
0.20
1.27
2.29
3.13
3.66
3.83
3.68
3.37
3.05
2.83
2.74
2.74
2.75
2.69
2.56
2.42
2.33
2.34
2.42
2.44
2.27
1.84
1.19
0.50
-0.02
-0.23
-0.17
0.03
0.14
0.02
-0.33
-0.79
-1.19
-1.47
-1.66
-1.92
-2.41
-3.17
-4.11
-5.01
-5.69
-6.03
-6.04
-5.85
-5.59
-5.32
-4.98
-4.44
-3.57
-2.38
-0.99
0.38
1.51
2.28
2.73
2.97
3.13
3.32
3.56
3.82
4.03
4.11
4.02
3.76
3.38
2.97
2.63
2.41
2.32
2.31
2.33
2.36
2.42
2.56
2.77
2.99
3.10
3.03
2.73
2.23
1.61
0.95
0.31
-0.28
-0.80
-1.29
-1.77
-2.25
-2.78
-3.35
-3.97
-4.63
-5.32
-5.98
-6.51
-6.80
-6.72
-6.21
-5.28
-4.08
-2.79
-1.64
-0.75
-0.12
0.34
0.80
1.38
2.11
2.86
3.50
3.91
4.09
4.12
4.12
4.16
4.17
4.08
3.81
3.36
2.86
2.43
2.16
2.05
2.06
2.11
2.15
2.17
2.17
2.14
2.04
1.84
1.51
1.07
0.54
-0.04
-0.59
-1.08
-1.46
-1.74
-1.94
-2.13
-2.39
-2.78
-3.30
-3.91
-4.48
-4.87
-5.00
-4.81
-4.36
-3.79
-3.18
-2.60
-2.01
-1.36
-0.59
0.25
1.04
1.67
2.06
2.25
2.35
2.45
2.57
2.63
2.52
2.18
1.71
1.29
1.08
1.14
1.34
1.47
1.35
0.95
0.38
-0.19
-0.61
-0.87
-1.10
-1.40
-1.88
-2.51
-3.19
-3.83
-4.40
-4.90
-5.40
-5.99
-6.70
-7.53
-8.49
-9.53
-10.65
-11.80
-12.95
-14.04
-14.98
-15.64
-15.85
-15.49
-14.50
-12.92
-10.92
-8.71
-6.48
-4.33
-2.29
-0.32
1.58
3.38
5.00
6.36
7.44
8.28
8.97
9.60
10.21
10.86
11.55
12.26
12.87
13.13
12.81
11.89
10.74
10.11
10.83
13.33
17.23
21.25
23.59
22.66
17.60
8.57
-3.46
-17.19
-31.47
-45.55
-58.99
-71.54
-82.95
-92.80
-100.57
-105.48
-106.66
-103.17
-94.44
-80.66
-63.05
-43.61
-24.63
-7.99
5.38
15.45
22.84
28.31
32.45
35.63
38.04
39.86
41.25
42.28
42.93
43.11
42.75
41.87
40.58
39.04
37.32
35.41
33.29
30.82
27.84
24.11
19.57
14.57
9.90
6.61
5.57
6.94
9.99
13.32
15.46
15.48
13.33
9.79
5.89
2.43
-0.44
-3.14
-6.36
-10.50
-15.39
-20.26
-24.05
-25.82
-25.27
-22.77
-19.05
-14.83
-10.43
-5.89
-1.42
2.14
3.46
1.43
-3.87
-10.65
-16.10
-17.85
-15.40
-10.60
-6.58
-5.81
-8.52
-12.48
-14.29
-11.51
-4.02
6.02
15.49
22.14
25.53
26.89
27.84
29.22
30.62
30.83
28.87
24.78
19.88
16.28
15.98
20.19
28.91
41.07
54.83
68.03
78.48
84.31
84.22
77.74
65.34
48.43
29.07
9.60
-7.64
-20.68
-28.06
-29.19
-24.54
-15.69
-5.08
4.52
10.85
12.83
10.83
6.37
1.31
-3.02
-6.18
-8.50
-10.47
-12.09
-12.79
-11.83
-8.90
-4.60
-0.32
2.38
2.54
0.21
-3.66
-7.76
-11.00
-12.83
-13.29
-12.74
-11.63
-10.36
-9.21
-8.34
-7.87
-7.82
-8.21
-9.03
-10.15
-11.31
-12.12
-12.18
-11.28
-9.50
-7.22
-4.97
-3.16
-1.98
-1.36
-1.06
-0.83
-0.51
0.01
0.73
1.65
2.70
3.80
4.81
5.62
6.18
6.47
6.56
6.49
6.30
6.06
5.83
5.70
5.73
5.90
6.12
6.25
6.14
5.71
4.96
3.92
2.66
1.25
-0.29
-1.89
-3.54
-5.19
-6.80
-8.34
-9.79
-11.13
-12.38
-13.55
-14.65
-15.73
-16.84
-17.99
-19.15
-20.24
-21.05
-21.34
-20.88
-19.52
-17.30
-14.50
-11.60
-9.15
-7.56
-6.87
-6.77
-6.68
-6.06
-4.69
-2.79
-0.84
0.68
1.60
2.11
2.63
3.57
5.21
7.64
10.79
14.42
18.04
20.86
21.97
20.74
17.39
13.31
10.71
11.74
17.36
26.53
36.31
43.05
43.72
37.17
24.50
8.57
-7.06
-19.29
-26.13
-26.94
-22.17
-13.15
-1.69
10.15
20.62
28.70
34.57
39.50
45.06
51.64
57.36
58.07
49.06
27.59
-5.10
-43.67
-80.75
-110.12
-129.07
-138.70
-142.02
-141.59
-138.16
-130.91
-118.82
-101.85
-81.11
-57.97
-33.22
-7.05
20.21
47.36
72.36
93.17
108.81
119.55
126.36
129.89
129.93
125.97
118.16
108.04
98.06
90.38
85.63
82.52
78.65
71.97
62.04
50.22
38.75
29.70
24.22
22.44
23.79
27.34
31.98
36.51
39.77
40.86
39.79
37.75
36.43
37.08
39.65
42.82
44.67
43.56
38.28
28.67
15.84
1.94
-10.51
-19.28
-22.82
-20.88
-15.21
-10.35
-11.82
-23.54
-45.52
-73.50
-100.36
-118.82
-124.58
-118.24
-105.85
-95.34
-92.54
-98.64
-110.91
-124.90
-136.75
-144.42
-141.24
-123.09
-91.09
-51.73
-12.74
19.80
41.97
51.88
50.11
40.03
25.96
11.84
0.52
-6.13
-8.17
-7.10
-4.81
-2.53
-0.50
0.76
0.80
-0.58
-1.74
-1.98
-1.19
0.37
2.45
4.89
7.05
8.33
8.46
7.73
6.35
4.53
2.55
0.80
-0.24
-0.38
0.34
1.84
4.02
6.50
8.93
11.06
12.87
14.42
15.65
16.39
16.50
16.00
15.01
13.82
12.76
11.98
11.38
10.65
9.41
7.46
4.96
2.28
-0.04
-1.57
-2.15
-1.94
-1.33
-0.81
-0.74
-1.31
-2.50
-4.13
-5.98
-7.84
-9.60
-11.23
-12.75
-14.18
-15.47
-16.52
-17.18
-17.33
-16.89
-15.81
-14.08
-11.73
-8.86
-5.73
-2.71
-0.19
1.56
2.50
2.91
3.20
3.71
4.56
5.60
6.50
6.98
6.92
6.44
5.83
5.35
5.14
5.17
5.30
5.38
5.30
5.06
4.75
4.45
4.20
4.00
3.75
3.37
2.79
2.00
1.09
0.14
-0.80
-1.72
-2.67
-3.64
-4.51
-5.07
-5.03
-4.21
-2.66
-0.64
1.45
3.25
4.58
5.47
6.03
6.38
6.55
6.44
5.99
5.18
4.12
2.96
1.88
0.97
0.29
-0.21
-0.57
-0.82
-0.99
-1.12
-1.25
-1.46
-1.82
-2.33
-2.95
-3.55
-4.00
-4.20
-4.17
-4.00
-3.89
-4.02
-4.49
-5.31
-6.30
-7.20
-7.67
-7.42
-6.27
-4.24
-1.57
1.38
4.15
6.38
7.89
8.66
8.85
8.66
8.31
7.92
7.54
7.11
6.54
5.74
4.68
3.40
1.98
0.59
-0.62
-1.50
-2.01
-2.18
-2.18
-2.19
-2.41
-2.94
-3.76
-4.75
-5.78
-6.71
-7.48
-8.12
-8.71
-9.30
-9.87
-10.34
-10.55
-10.36
-9.65
-8.37
-6.56
-4.36
-1.95
0.45
2.66
4.55
6.09
7.27
8.11
8.63
8.81
8.66
8.23
7.59
6.81
5.91
4.89
3.76
2.57
1.44
0.52
-0.10
-0.45
-0.66
-0.90
-1.31
-1.88
-2.56
-3.24
-3.86
-4.45
-5.05
-5.70
-6.37
-7.01
-7.58
-8.09
-8.62
-9.21
-9.77
-10.11
-9.91
-8.92
-7.04
-4.43
-1.43
1.52
4.07
6.06
7.47
8.43
9.06
9.43
9.53
9.28
8.64
7.64
6.40
5.09
3.85
2.81
1.98
1.32
0.76
0.27
-0.15
-0.49
-0.75
-0.95
-1.17
-1.49
-1.96
-2.60
-3.36
-4.17
-4.96
-5.68
-6.32
-6.90
-7.47
-8.05
-8.62
-9.06
-9.12
-8.54
-7.12
-4.87
-2.03
0.97
3.66
5.74
7.13
8.00
8.58
9.04
9.35
9.35
8.92
8.05
6.93
5.85
4.98
4.35
3.82
3.22
2.47
1.64
0.87
0.31
-0.03
-0.25
-0.50
-0.89
-1.43
-2.03
-2.58
-3.02
-3.38
-3.74
-4.24
-4.95
-5.89
-6.97
-8.02
-8.79
-9.04
-8.60
-7.40
-5.56
-3.27
-0.84
1.46
3.46
5.06
6.30
7.22
7.86
8.22
8.28
8.02
7.45
6.65
5.72
4.76
3.82
2.93
2.09
1.35
0.79
0.49
0.47
0.64
0.83
0.83
0.52
-0.11
-0.94
-1.82
-2.64
-3.37
-4.02
-4.63
-5.25
-5.91
-6.67
-7.59
-8.64
-9.65
-10.31
-10.25
-9.23
-7.23
-4.54
-1.60
1.14
3.40
5.09
6.27
7.11
7.75
8.21
8.50
8.54
8.29
7.75
7.00
6.13
5.27
4.48
3.76
3.08
2.39
1.72
1.16
0.77
0.55
0.44
0.28
-0.08
-0.70
-1.50
-2.35
-3.08
-3.60
-3.95
-4.22
-4.55
-5.07
-5.82
-6.78
-7.86
-8.90
-9.66
-9.88
-9.33
-7.92
-5.74
-3.10
-0.36
2.14
4.19
5.74
6.82
7.50
7.83
7.85
7.60
7.20
6.77
6.40
6.11
5.82
5.42
4.84
4.09
3.24
2.42
1.75
1.30
1.10
1.09
1.16
1.19
1.07
0.73
0.15
-0.60
-1.42
-2.22
-2.91
-3.47
-3.97
-4.48
-5.14
-6.04
-7.18
-8.45
-9.57
-10.20
-10.02
-8.87
-6.81
-4.19
-1.47
0.91
2.71
3.93
4.75
5.42
6.08
6.76
7.34
7.71
7.81
7.64
7.30
6.85
6.33
5.73
5.07
4.40
3.80
3.34
3.07
2.93
2.83
2.64
2.26
1.66
0.84
-0.16
-1.23
-2.21
-2.93
-3.29
-3.32
-3.21
-3.26
-3.73
-4.70
-6.08
-7.58
-8.90
-9.80
-10.16
-9.90
-9.00
-7.50
-5.48
-3.14
-0.76
1.41
3.23
4.64
5.71
6.52
7.11
7.50
7.67
7.60
7.30
6.79
6.10
5.28
4.43
3.68
3.13
2.82
2.69
2.64
2.55
2.34
1.99
1.53
1.01
0.47
-0.13
-0.82
-1.64
-2.56
-3.44
-4.16
-4.63
-4.88
-5.09
-5.47
-6.21
-7.28
-8.47
-9.44
-9.85
-9.50
-8.40
-6.70
-4.65
-2.51
-0.42
1.49
3.20
4.68
5.91
6.90
7.62
8.08
8.25
8.11
7.68
6.98
6.10
5.17
4.31
3.62
3.12
2.81
2.64
2.56
2.54
2.51
2.41
2.15
1.65
0.88
-0.10
-1.18
-2.22
-3.09
-3.71
-4.12
-4.41
-4.76
-5.30
-6.14
-7.25
-8.50
-9.67
-10.50
-10.78
-10.37
-9.26
-7.54
-5.41
-3.09
-0.82
1.19
2.82
4.03
4.89
5.57
6.21
6.86
7.44
7.73
7.54
6.79
5.64
4.35
3.26
2.53
2.21
2.17
2.28
2.44
2.64
2.87
3.07
3.12
2.87
2.24
1.26
0.06
-1.18
-2.25
-3.02
-3.42
-3.50
-3.42
-3.43
-3.73
-4.45
-5.55
-6.85
-8.12
-9.16
-9.80
-9.91
-9.38
-8.11
-6.11
-3.58
-0.88
1.55
3.37
4.51
5.14
5.61
6.17
6.89
7.63
8.15
8.24
7.90
7.24
6.50
5.82
5.28
4.86
4.45
4.01
3.54
3.09
2.74
2.51
2.38
2.23
1.93
1.39
0.61
-0.30
-1.14
-1.79
-2.20
-2.49
-2.83
-3.39
-4.24
-5.32
-6.51
-7.67
-8.71
-9.58
-10.23
-10.55
-10.39
-9.62
-8.21
-6.25
-3.92
-1.50
0.75
2.63
4.09
5.16
5.96
6.64
7.32
7.99
8.56
8.85
8.77
8.27
7.47
6.53
5.61
4.78
4.05
3.41
2.88
2.54
2.46
2.67
3.05
3.41
3.50
3.16
2.37
1.26
0.07
-0.99
-1.78
-2.31
-2.67
-3.00
-3.41
-3.94
-4.58
-5.27
-5.98
-6.68
-7.32
-7.80
-7.92
-7.49
-6.40
-4.67
-2.53
-0.32
1.64
3.16
4.22
4.98
5.66
6.42
7.25
8.04
8.56
8.62
8.19
7.36
6.37
5.45
4.75
4.24
3.83
3.40
2.92
2.46
2.12
1.93
1.79
1.53
1.00
0.15
-0.93
-2.06
-3.01
-3.66
-4.00
-4.14
-4.24
-4.46
-4.88
-5.51
-6.27
-7.12
-8.02
-8.99
-9.98
-10.84
-11.31
-11.07
-9.93
-7.93
-5.37
-2.73
-0.42
1.33
2.57
3.50
4.38
5.31
6.25
7.01
7.37
7.23
6.64
5.77
4.89
4.18
3.74
3.57
3.55
3.60
3.63
3.61
3.52
3.33
3.02
2.54
1.89
1.04
0.02
-1.08
-2.14
-3.04
-3.68
-4.04
-4.24
-4.45
-4.82
-5.48
-6.37
-7.43
-8.50
-9.47
-10.24
-10.70
-10.72
-10.16
-8.93
-7.10
-4.84
-2.43
-0.15
1.82
3.43
4.72
5.79
6.71
7.51
8.14
8.56
8.72
8.60
8.28
7.86
7.44
7.05
6.67
6.24
5.73
5.19
4.71
4.36
4.10
3.81
3.33
2.57
1.56
0.48
-0.49
-1.22
-1.71
-2.07
-2.41
-2.80
-3.23
-3.69
-4.15
-4.69
-5.41
-6.42
-7.75
-9.28
-10.78
-11.92
-12.39
-12.00
-10.68
-8.60
-6.04
-3.36
-0.87
1.26
2.98
4.41
5.66
6.80
7.81
8.59
9.04
9.12
8.87
8.38
7.76
7.10
6.47
5.92
5.48
5.17
4.95
4.79
4.65
4.48
4.28
4.01
3.62
3.08
2.36
1.55
0.75
0.09
-0.38
-0.73
-1.13
-1.76
-2.72
-3.95
-5.28
-6.48
-7.45
-8.21
-8.92
-9.73
-10.66
-11.53
-12.06
-11.93
-11.00
-9.31
-7.08
-4.60
-2.12
0.20
2.32
4.23
5.89
7.27
8.30
8.95
9.27
9.33
9.24
9.08
8.84
8.48
7.91
7.09
6.10
5.11
4.33
3.88
3.74
3.73
3.62
3.27
2.67
1.96
1.29
0.75
0.28
-0.25
-0.98
-1.94
-3.05
-4.14
-5.09
-5.86
-6.51
-7.15
-7.87
-8.68
-9.57
-10.48
-11.29
-11.88
-12.07
-11.67
-10.53
-8.64
-6.13
-3.29
-0.47
2.04
4.06
5.58
6.70
7.50
8.05
8.34
8.33
8.05
7.59
7.11
6.75
6.54
6.39
6.17
5.75
5.11
4.36
3.65
3.11
2.76
2.53
2.28
1.89
1.34
0.66
-0.06
-0.79
-1.56
-2.46
-3.53
-4.71
-5.85
-6.77
-7.37
-7.72
-8.06
-8.64
-9.65
-11.03
-12.45
-13.44
-13.51
-12.40
-10.14
-7.08
-3.75
-0.65
1.86
3.71
5.03
6.01
6.84
7.54
8.07
8.38
8.48
8.42
8.29
8.12
7.90
7.55
7.05
6.46
5.88
5.46
5.25
5.17
5.08
4.80
4.25
3.47
2.58
1.71
0.92
0.15
-0.68
-1.64
-2.72
-3.83
-4.82
-5.60
-6.18
-6.65
-7.17
-7.89
-8.86
-10.05
-11.29
-12.38
-13.06
-13.11
-12.40
-10.89
-8.68
-5.99
-3.11
-0.36
1.97
3.75
5.05
6.06
6.98
7.95
8.92
9.74
10.23
10.29
9.94
9.34
8.62
7.92
7.29
6.76
6.33
6.01
5.75
5.47
5.08
4.55
3.89
3.19
2.54
1.95
1.36
0.69
-0.11
-1.01
-1.93
-2.79
-3.55
-4.24
-4.95
-5.73
-6.61
-7.59
-8.65
-9.78
-10.98
-12.15
-13.12
-13.65
-13.48
-12.44
-10.52
-7.88
-4.83
-1.75
1.02
3.26
4.93
6.18
7.21
8.23
9.26
10.20
10.81
10.94
10.57
9.86
9.07
8.39
7.86
7.40
6.89
6.25
5.56
4.94
4.49
4.25
4.09
3.83
3.31
2.47
1.40
0.25
-0.82
-1.72
-2.47
-3.12
-3.77
-4.48
-5.24
-6.02
-6.81
-7.66
-8.66
-9.92
-11.41
-12.97
-14.27
-14.92
-14.62
-13.24
-10.94
-8.07
-5.08
-2.31
0.05
2.03
3.76
5.38
6.95
8.38
9.52
10.18
10.27
9.81
8.95
7.95
7.04
6.37
5.99
5.81
5.70
5.54
5.26
4.85
4.35
3.80
3.21
2.62
2.03
1.44
0.86
0.27
-0.39
-1.16
-2.06
-3.07
-4.12
-5.18
-6.18
-7.13
-8.06
-9.00
-10.01
-11.11
-12.26
-13.36
-14.20
-14.54
-14.14
-12.86
-10.75
-7.99
-4.89
-1.81
1.00
3.35
5.24
6.71
7.87
8.76
9.38
9.65
9.54
9.09
8.43
7.76
7.23
6.91
6.75
6.64
6.50
6.28
6.02
5.74
5.41
4.96
4.33
3.56
2.71
1.89
1.13
0.39
-0.42
-1.35
-2.38
-3.42
-4.34
-5.08
-5.70
-6.32
-7.12
-8.22
-9.66
-11.32
-13.00
-14.43
-15.30
-15.39
-14.57
-12.86
-10.39
-7.38
-4.12
-0.90
2.02
4.45
6.30
7.65
8.64
9.46
10.18
10.78
11.15
11.20
10.89
10.31
9.61
8.91
8.27
7.67
7.06
6.38
5.64
4.86
4.10
3.42
2.88
2.47
2.13
1.77
1.26
0.54
-0.38
-1.41
-2.44
-3.40
-4.27
-5.08
-5.87
-6.67
-7.55
-8.54
-9.72
-11.12
-12.62
-14.02
-14.99
-15.24
-14.56
-12.94
-10.52
-7.55
-4.37
-1.27
1.47
3.73
5.46
6.78
7.83
8.77
9.69
10.53
11.19
11.50
11.41
10.95
10.25
9.47
8.71
8.02
7.40
6.84
6.37
5.96
5.62
5.29
4.93
4.47
3.87
3.07
2.09
0.97
-0.21
-1.32
-2.30
-3.13
-3.86
-4.60
-5.46
-6.46
-7.57
-8.73
-9.91
-11.14
-12.42
-13.68
-14.73
-15.25
-14.92
-13.51
-11.04
-7.79
-4.21
-0.79
2.13
4.41
6.15
7.51
8.65
9.61
10.33
10.71
10.68
10.28
9.67
9.00
8.39
7.85
7.31
6.63
5.79
4.84
3.98
3.40
3.22
3.35
3.56
3.53
3.07
2.12
0.82
-0.60
-1.96
-3.14
-4.12
-4.94
-5.64
-6.30
-7.04
-7.97
-9.19
-10.73
-12.49
-14.23
-15.63
-16.37
-16.19
-14.98
-12.84
-10.01
-6.81
-3.56
-0.50
2.29
4.74
6.84
8.52
9.70
10.33
10.46
10.23
9.80
9.29
8.78
8.27
7.79
7.36
6.99
6.67
6.30
5.82
5.22
4.55
3.94
3.47
3.11
2.71
2.10
1.17
-0.04
-1.35
-2.58
-3.60
-4.43
-5.20
-6.04
-7.04
-8.22
-9.54
-10.97
-12.46
-13.90
-15.12
-15.84
-15.76
-14.67
-12.56
-9.63
-6.27
-2.91
0.12
2.69
4.83
6.70
8.43
10.02
11.37
12.30
12.69
12.54
12.01
11.35
10.73
10.21
9.74
9.21
8.58
7.89
7.26
6.81
6.54
6.39
6.20
5.84
5.21
4.30
3.14
1.79
0.37
-1.03
-2.32
-3.45
-4.40
-5.19
-5.89
-6.54
-7.19
-7.92
-8.84
-10.04
-11.58
-13.34
-15.02
-16.19
-16.44
-15.56
-13.61
-10.89
-7.82
-4.76
-1.89
0.75
3.18
5.43
7.44
9.13
10.44
11.41
12.07
12.49
12.69
12.67
12.39
11.84
11.05
10.09
9.10
8.24
7.62
7.27
7.06
6.80
6.33
5.60
4.68
3.73
2.88
2.13
1.39
0.52
-0.54
-1.74
-2.92
-3.92
-4.68
-5.25
-5.79
-6.51
-7.58
-9.08
-10.91
-12.86
-14.61
-15.80
-16.14
-15.48
-13.84
-11.42
-8.48
-5.31
-2.16
0.78
3.35
5.46
7.09
8.29
9.18
9.93
10.61
11.22
11.62
11.65
11.19
10.30
9.19
8.09
7.20
6.55
6.08
5.65
5.18
4.63
4.05
3.51
3.02
2.58
2.11
1.57
0.90
0.11
-0.78
-1.69
-2.58
-3.44
-4.30
-5.23
-6.25
-7.36
-8.52
-9.69
-10.86
-12.05
-13.23
-14.28
-14.97
-15.01
-14.16
-12.35
-9.70
-6.54
-3.29
-0.34
2.11
4.00
5.46
6.63
7.61
8.43
9.02
9.30
9.20
8.75
8.05
7.27
6.56
6.06
5.80
5.70
5.65
5.52
5.26
4.88
4.43
3.96
3.43
2.75
1.89
0.91
-0.08
-0.91
-1.52
-1.95
-2.35
-2.90
-3.68
-4.70
-5.85
-7.02
-8.17
-9.33
-10.58
-11.92
-13.26
-14.33
-14.80
-14.34
-12.79
-10.25
-7.05
-3.67
-0.53
2.08
4.10
5.65
6.86
7.85
8.62
9.16
9.41
9.38
9.14
8.77
8.34
7.85
7.32
6.73
6.14
5.62
5.27
5.11
5.07
5.02
4.78
4.26
3.50
2.65
1.85
1.17
0.59
-0.02
-0.72
-1.56
-2.48
-3.38
-4.18
-4.89
-5.57
-6.35
-7.33
-8.59
-10.12
-11.82
-13.48
-14.85
-15.65
-15.68
-14.86
-13.22
-10.92
-8.17
-5.22
-2.31
0.38
2.74
4.73
6.33
7.51
8.23
8.49
8.39
8.18
8.15
8.55
9.42
10.53
11.53
12.09
12.07
11.54
10.71
9.77
8.79
7.76
6.62
5.40
4.21
3.15
2.28
1.55
0.84
0.01
-1.05
-2.34
-3.77
-5.13
-6.21
-6.86
-7.10
-7.17
-7.42
-8.19
-9.63
-11.59
-13.65
-15.27
-15.99
-15.55
-13.95
-11.44
-8.37
-5.13
-2.07
0.57
2.64
4.18
5.31
6.24
7.13
8.05
8.92
9.53
9.68
9.26
8.36
7.23
6.16
5.35
4.88
4.68
4.60
4.48
4.22
3.80
3.24
2.59
1.90
1.20
0.47
-0.29
-1.06
-1.78
-2.37
-2.75
-2.97
-3.13
-3.41
-3.93
-4.76
-5.84
-7.08
-8.39
-9.72
-11.05
-12.26
-13.15
-13.43
-12.83
-11.23
-8.73
-5.63
-2.36
0.68
3.16
5.01
6.28
7.19
7.91
8.57
9.14
9.49
9.47
9.01
8.20
7.22
6.32
5.65
5.22
4.94
4.64
4.21
3.65
3.05
2.54
2.22
2.02
1.80
1.37
0.60
-0.49
-1.73
-2.90
-3.79
-4.39
-4.78
-5.20
-5.82
-6.75
-7.99
-9.48
-11.09
-12.70
-14.15
-15.26
-15.80
-15.56
-14.40
-12.31
-9.47
-6.21
-2.97
-0.11
2.16
3.85
5.12
6.22
7.28
8.31
9.20
9.83
10.13
10.13
9.93
9.62
9.22
8.70
8.04
7.24
6.40
5.62
5.00
4.55
4.19
3.85
3.43
2.91
2.27
1.55
0.77
-0.02
-0.79
-1.50
-2.18
-2.84
-3.58
-4.43
-5.41
-6.49
-7.63
-8.85
-10.19
-11.66
-13.15
-14.36
-14.87
-14.30
-12.49
-9.65
-6.29
-3.02
-0.34
1.59
2.92
4.02
5.21
6.63
8.17
9.53
10.45
10.76
10.51
9.88
9.11
8.42
7.88
7.50
7.21
6.91
6.53
6.03
5.43
4.80
4.19
3.67
3.25
2.91
2.58
2.17
1.60
0.82
-0.20
-1.40
-2.70
-3.96
-5.05
-5.90
-6.50
-6.97
-7.50
-8.29
-9.48
-11.02
-12.68
-14.04
-14.65
-14.18
-12.55
-10.01
-6.96
-3.88
-1.11
1.23
3.19
4.86
6.33
7.57
8.55
9.26
9.76
10.12
10.42
10.61
10.56
10.17
9.40
8.36
7.27
6.37
5.80
5.55
5.45
5.26
4.80
4.00
2.96
1.86
0.87
0.04
-0.68
-1.45
-2.44
-3.73
-5.30
-6.99
-8.64
-10.15
-11.64
-13.38
-15.73
-18.97
-23.13
-27.94
-32.86
-37.26
-40.61
-42.54
-42.84
-41.44
-38.35
-33.68
-27.72
-21.00
-14.15
-7.81
-2.45
1.82
5.31
8.68
12.73
18.15
25.12
33.19
41.18
47.49
50.41
48.66
41.75
30.15
15.28
-0.85
-15.98
-28.14
-36.07
-39.58
-39.58
-37.74
-35.87
-35.21
-36.08
-37.87
-39.58
-40.38
-40.07
-39.05
-37.96
-37.23
-36.85
-36.45
-35.64
-34.18
-32.06
-29.30
-25.89
-21.72
-16.79
-11.27
-5.48
0.30
5.98
11.83
18.36
26.11
35.46
46.36
58.12
69.40
78.44
83.72
84.71
82.35
78.74
76.11
75.54
76.06
74.89
68.69
55.38
35.31
11.22
-13.06
-34.50
-52.07
-66.52
-78.98
-89.39
-95.86
-95.56
-86.56
-69.46
-47.64
-25.94
-8.42
3.37
10.67
16.36
23.06
31.68
41.17
49.41
54.56
56.06
54.89
53.08
52.70
55.02
59.89
65.73
70.16
71.00
67.14
58.88
47.65
35.22
22.93
11.37
0.62
-9.20
-17.45
-23.11
-25.16
-23.37
-18.68
-13.09
-8.98
-8.05
-10.73
-15.96
-21.70
-25.80
-26.85
-24.68
-20.27
-15.30
-11.36
-9.45
-9.67
-11.39
-13.63
-15.55
-16.79
-17.51
-18.20
-19.32
-21.09
-23.29
-25.46
-27.09
-27.83
-27.62
-26.59
-25.11
-23.61
-22.46
-21.83
-21.51
-20.93
-19.28
-15.87
-10.61
-4.19
2.01
6.55
8.56
8.09
6.09
3.89
2.49
2.28
3.03
4.15
5.25
6.20
6.89
6.95
6.00
4.37
4.02
8.11
19.65
39.46
64.67
89.26
106.70
113.19
109.71
101.59
94.95
93.39
96.42
100.30
100.66
95.21
84.85
72.71
62.50
56.10
53.36
53.21
54.84
58.34
64.44
73.54
84.50
94.82
100.24
96.59
81.85
57.31
27.02
-4.04
-32.02
-58.33
-82.89
-105.20
-124.03
-137.64
-144.17
-142.98
-135.51
-124.88
-115.05
-108.35
-105.77
-106.05
-106.14
-102.61
-93.59
-81.00
-66.30
-52.18
-40.75
-33.93
-31.78
-32.39
-32.66
-30.47
-25.49
-18.84
-12.81
-9.52
-11.89
-21.88
-40.13
-64.33
-91.35
-117.22
-137.05
-146.26
-135.17
-101.54
-53.28
-4.19
35.08
60.68
74.55
81.51
85.99
90.27
92.89
93.20
88.75
79.37
66.41
51.95
38.23
26.84
18.44
11.91
6.12
0.80
-3.31
-4.98
-3.61
0.49
6.09
11.53
14.84
15.08
12.56
8.96
6.11
5.06
5.89
7.93
10.14
11.41
11.24
9.88
8.28
7.47
7.95
9.62
11.94
14.22
15.93
16.92
17.39
17.80
18.46
19.23
19.61
18.92
16.67
12.77
7.58
1.78
-3.86
-8.70
-12.45
-15.10
-16.93
-18.26
-19.40
-20.47
-21.40
-21.92
-21.70
-20.51
-18.35
-15.54
-12.63
-10.18
-8.63
-8.14
-8.57
-9.58
-10.79
-11.88
-12.71
-13.21
-13.44
-13.37
-12.85
-11.67
-9.64
-6.77
-3.40
-0.12
2.42
3.78
3.85
2.86
1.22
-0.71
-2.68
-4.60
-6.38
-7.94
-9.10
-9.69
-9.66
-9.15
-8.52
-8.28
-8.93
-10.74
-13.55
-16.72
-19.24
-20.04
-18.34
-14.03
-7.74
-0.67
5.75
10.32
12.35
11.76
9.02
4.91
0.32
-3.90
-7.13
-9.03
-9.60
-9.07
-7.88
-6.44
-5.05
-3.81
-2.65
-1.39
0.10
1.90
4.00
6.31
8.71
11.02
13.07
14.67
15.69
16.10
15.99
15.53
14.91
14.25
13.54
12.69
11.59
10.22
8.77
7.49
6.69
6.46
6.68
6.99
6.93
6.16
4.58
2.35
-0.21
-2.68
-4.72
-6.10
-6.76
-6.78
-6.38
-5.86
-5.50
-5.45
-5.73
-6.18
-6.53
-6.52
-5.93
-4.72
-2.91
-0.65
1.85
4.34
6.48
7.95
8.42
7.73
5.92
3.30
0.35
-2.41
-4.63
-6.21
-7.28
-8.07
-8.73
-9.27
-9.55
-9.46
-9.02
-8.46
-8.11
-8.27
-9.04
-10.25
-11.55
-12.54
-12.95
-12.77
-12.18
-11.52
-11.01
-10.67
-10.23
-9.30
-7.48
-4.61
-0.79
3.64
8.19
12.37
15.77
18.08
19.13
18.91
17.63
15.75
13.83
12.45
11.96
12.41
13.47
14.63
