1660939497.00
64.000000
-0.00
-0.00
-0.00
-0.00
-0.00
-0.00
-0.00
-0.00
-0.00
-0.00
0.00
0.01
0.01
-0.00
-0.03
-0.05
-0.05
0.00
0.13
0.36
0.66
1.01
1.37
1.72
2.06
2.40
2.79
3.25
3.81
4.44
5.10
5.73
6.32
6.89
7.51
8.24
9.14
10.29
11.58
12.86
14.03
15.02
15.92
16.91
18.25
20.08
22.61
25.61
28.78
31.81
34.57
37.16
39.96
43.45
47.94
53.77
60.53
67.62
74.46
80.75
86.68
92.88
100.15
109.00
119.87
132.05
144.58
156.51
167.39
177.52
187.86
199.96
212.52
227.57
245.30
265.40
286.52
305.92
319.73
323.88
315.43
293.52
260.10
218.37
171.97
123.83
75.69
28.42
-17.41
-61.02
-101.63
-138.59
-172.37
-204.25
-235.97
-269.10
-304.19
-340.18
-374.14
-401.97
-419.41
-423.69
-414.62
-394.71
-368.13
-339.13
-310.70
-283.99
-258.87
-234.73
-211.53
-189.85
-170.45
-153.65
-138.97
-125.38
-111.77
-97.61
-83.07
-68.99
-56.40
-45.98
-37.77
-31.14
-25.20
-19.12
-12.54
-5.62
1.06
6.86
11.37
14.52
16.62
18.17
19.66
21.35
23.21
25.00
26.36
27.07
27.12
26.73
26.17
25.73
25.49
25.39
25.27
25.00
24.54
23.96
23.37
22.81
22.31
21.77
21.14
20.41
19.60
18.81
18.11
17.56
17.12
16.76
16.38
15.93
15.37
14.68
13.93
13.20
12.56
12.09
11.78
11.60
11.49
11.40
11.30
11.16
10.99
10.78
10.56
10.33
10.10
9.87
9.62
9.32
8.98
8.60
8.23
7.88
7.60
7.41
7.32
7.33
7.38
7.38
7.19
6.73
6.00
5.12
4.25
3.60
3.23
3.11
3.10
3.06
2.91
2.65
2.35
2.01
1.59
1.03
0.28
-0.59
-1.46
-2.16
-2.64
-2.96
-3.31
-3.84
-4.58
-5.42
-6.19
-6.77
-7.16
-7.47
-7.83
-8.26
-8.71
-9.08
-9.29
-9.32
-9.25
-9.16
-9.11
-9.07
-8.99
-8.81
-8.51
-8.08
-7.58
-7.02
-6.43
-5.81
-5.11
-4.34
-3.49
-2.62
-1.84
-1.22
-0.84
-0.67
-0.61
-0.51
-0.25
0.26
0.95
1.70
2.36
2.83
3.09
3.18
3.14
3.03
2.88
2.74
2.66
2.69
2.85
3.12
3.46
3.79
4.08
4.25
4.29
4.17
3.93
3.64
3.42
3.39
3.56
3.86
4.13
4.26
4.22
4.09
3.99
3.98
4.07
4.18
4.26
4.32
4.40
4.54
4.74
4.92
4.99
4.91
4.73
4.52
4.39
4.37
4.44
4.53
4.59
4.58
4.46
4.25
3.92
3.49
3.01
2.57
2.23
2.05
1.98
1.92
1.77
1.52
1.23
1.02
0.99
1.17
1.51
1.88
2.18
2.34
2.35
2.23
2.01
1.74
1.49
1.34
1.34
1.50
1.75
1.97
2.07
1.98
1.78
1.56
1.41
1.39
1.44
1.51
1.51
1.42
1.28
1.12
0.99
0.89
0.84
0.82
0.85
0.91
0.99
1.07
1.13
1.16
1.15
1.11
1.05
0.99
0.99
1.09
1.29
1.58
1.87
2.09
2.15
2.02
1.74
1.38
1.03
0.76
0.58
0.48
0.44
0.48
0.61
0.86
1.18
1.47
1.61
1.53
1.28
1.00
0.84
0.87
1.04
1.16
1.05
0.66
0.08
-0.45
-0.72
-0.63
-0.25
0.26
0.70
0.96
1.03
1.01
0.97
0.96
0.94
0.84
0.61
0.27
-0.05
-0.17
0.02
0.51
1.15
1.70
1.96
1.83
1.38
0.79
0.31
0.08
0.15
0.43
0.77
1.01
1.06
0.89
0.56
0.19
-0.10
-0.20
-0.10
0.12
0.35
0.43
0.32
0.04
-0.25
-0.37
-0.22
0.21
0.80
1.37
1.75
1.83
1.64
1.28
0.89
0.57
0.40
0.37
0.45
0.56
0.61
0.54
0.34
0.05
-0.25
-0.47
-0.55
-0.48
-0.32
-0.15
-0.02
0.03
0.07
0.16
0.34
0.60
0.85
0.98
0.91
0.61
0.18
-0.26
-0.59
-0.70
-0.60
-0.31
0.08
0.47
0.79
0.98
1.02
0.95
0.81
0.70
0.69
0.79
0.98
1.18
1.30
1.27
1.07
0.74
0.35
-0.04
-0.33
-0.51
-0.56
-0.46
-0.25
0.06
0.42
0.76
1.00
1.11
1.09
0.97
0.83
0.69
0.58
0.47
0.36
0.23
0.10
0.00
-0.06
-0.09
-0.12
-0.15
-0.19
-0.23
-0.27
-0.30
-0.32
-0.31
-0.25
-0.13
0.03
0.20
0.36
0.46
0.50
0.46
0.36
0.24
0.17
0.20
0.35
0.59
0.79
0.83
0.66
0.35
0.03
-0.14
-0.10
0.10
0.29
0.34
0.20
-0.09
-0.37
-0.51
-0.44
-0.20
0.13
0.42
0.59
0.62
0.55
0.45
0.37
0.33
0.29
0.23
0.13
0.03
-0.03
0.01
0.17
0.37
0.52
0.54
0.38
0.08
-0.25
-0.49
-0.57
-0.47
-0.24
0.04
0.24
0.29
0.18
-0.01
-0.16
-0.17
0.02
0.34
0.69
0.94
1.05
1.02
0.91
0.78
0.64
0.47
0.23
-0.05
-0.29
-0.39
-0.28
0.02
0.40
0.69
0.72
0.44
-0.09
-0.69
-1.16
-1.39
-1.35
-1.14
-0.89
-0.70
-0.58
-0.45
-0.24
0.08
0.44
0.71
0.79
0.63
0.32
-0.01
-0.23
-0.30
-0.22
-0.08
0.06
0.17
0.26
0.36
0.47
0.52
0.45
0.23
-0.08
-0.38
-0.56
-0.54
-0.33
-0.01
0.32
0.57
0.68
0.64
0.45
0.16
-0.18
-0.47
-0.63
-0.60
-0.40
-0.08
0.23
0.45
0.50
0.40
0.21
0.05
0.01
0.10
0.28
0.42
0.44
0.30
0.07
-0.13
-0.20
-0.10
0.08
0.24
0.26
0.16
0.01
-0.03
0.13
0.48
0.91
1.26
1.39
1.24
0.88
0.44
0.04
-0.23
-0.35
-0.37
-0.33
-0.27
-0.20
-0.10
0.06
0.27
0.49
0.66
0.72
0.67
0.57
0.49
0.50
0.59
0.67
0.65
0.46
0.14
-0.20
-0.44
-0.52
-0.48
-0.41
-0.39
-0.42
-0.45
-0.40
-0.24
-0.00
0.22
0.35
0.40
0.41
0.41
0.42
0.35
0.15
-0.22
-0.69
-1.14
-1.44
-1.50
-1.31
-0.94
-0.50
-0.07
0.26
0.44
0.45
0.31
0.09
-0.11
-0.20
-0.12
0.13
0.48
0.81
1.00
0.98
0.76
0.39
0.01
-0.27
-0.37
-0.31
-0.12
0.11
0.30
0.42
0.45
0.42
0.35
0.26
0.17
0.10
0.07
0.07
0.11
0.15
0.18
0.17
0.16
0.17
0.20
0.22
0.20
0.10
-0.06
-0.24
-0.38
-0.43
-0.40
-0.32
-0.24
-0.17
-0.13
-0.11
-0.09
-0.07
-0.04
-0.00
0.05
0.10
0.11
0.07
-0.05
-0.24
-0.45
-0.63
-0.73
-0.74
-0.66
-0.52
-0.32
-0.08
0.16
0.34
0.40
0.33
0.17
0.02
-0.03
0.08
0.31
0.56
0.76
0.87
0.92
0.94
0.94
0.87
0.66
0.27
-0.24
-0.75
-1.09
-1.17
-0.97
-0.57
-0.11
0.28
0.51
0.55
0.44
0.26
0.11
0.04
0.05
0.11
0.15
0.14
0.11
0.09
0.15
0.29
0.45
0.55
0.56
0.46
0.27
0.07
-0.13
-0.28
-0.35
-0.31
-0.14
0.14
0.46
0.73
0.84
0.74
0.49
0.16
-0.14
-0.36
-0.52
-0.68
-0.87
-1.08
-1.24
-1.28
-1.17
-0.95
-0.69
-0.48
-0.35
-0.30
-0.25
-0.16
0.01
0.21
0.34
0.32
0.14
-0.14
-0.40
-0.53
-0.51
-0.39
-0.28
-0.25
-0.29
-0.33
-0.24
-0.01
0.32
0.60
0.71
0.60
0.35
0.07
-0.14
-0.28
-0.41
-0.60
-0.90
-1.30
-1.75
-2.21
-2.68
-3.18
-3.74
-4.31
-4.81
-5.13
-5.22
-5.16
-5.14
-5.35
-5.94
-6.87
-8.00
-9.13
-10.13
-11.01
-11.87
-12.88
-14.14
-15.69
-17.46
-19.33
-21.17
-22.90
-24.52
-26.13
-27.96
-30.27
-33.24
-36.96
-41.27
-45.91
-50.64
-55.40
-60.35
-65.79
-72.01
-79.07
-86.68
-94.37
-101.71
-108.56
-115.14
-121.88
-129.20
-137.28
-146.08
-155.53
-165.70
-176.56
-187.59
-197.20
-202.68
-200.74
-188.58
-165.08
-131.23
-89.76
-43.88
3.91
52.36
101.12
149.77
196.99
240.47
277.57
306.36
326.42
338.93
346.03
350.04
352.71
355.11
357.78
361.06
365.21
370.16
375.01
377.84
375.92
366.44
347.50
318.89
282.18
240.18
195.82
151.04
106.25
60.49
12.43
-38.28
-90.05
-139.24
-181.12
-211.53
-228.44
-232.68
-227.44
-216.90
-204.61
-192.52
-181.00
-169.68
-158.36
-147.48
-137.86
-130.05
-123.85
-118.27
-112.07
-104.44
-95.38
-85.70
-76.58
-69.00
-63.26
-58.97
-55.21
-51.08
-46.05
-40.21
-34.18
-28.78
-24.63
-21.89
-20.24
-19.05
-17.69
-15.78
-13.33
-10.64
-8.12
-6.07
-4.59
-3.59
-2.89
-2.30
-1.76
-1.24
-0.80
-0.48
-0.28
-0.19
-0.12
-0.04
0.07
0.17
0.21
0.13
-0.04
-0.25
-0.42
-0.50
-0.53
-0.58
-0.71
-0.92
-1.15
-1.26
-1.17
-0.88
-0.49
-0.11
0.16
0.32
0.43
0.59
0.84
1.13
1.39
1.49
1.40
1.16
0.85
0.55
0.32
0.14
-0.06
-0.27
-0.46
-0.58
-0.57
-0.46
-0.32
-0.24
-0.24
-0.29
-0.30
-0.19
0.03
0.31
0.55
0.72
0.85
1.00
1.22
1.43
1.53
1.41
1.06
0.57
0.11
-0.16
-0.18
-0.01
0.19
0.29
0.20
-0.05
-0.35
-0.61
-0.76
-0.79
-0.73
-0.63
-0.52
-0.43
-0.38
-0.37
-0.38
-0.39
-0.34
-0.24
-0.10
0.04
0.17
0.28
0.41
0.55
0.66
0.66
0.49
0.16
-0.23
-0.51
-0.54
-0.31
0.11
0.57
0.93
1.11
1.12
1.02
0.86
0.66
0.41
0.11
-0.24
-0.63
-1.00
-1.35
-1.66
-1.93
-2.15
-2.29
-2.25
-1.99
-1.52
-0.94
-0.42
-0.09
0.00
-0.06
-0.12
-0.05
0.22
0.67
1.19
1.71
2.15
2.48
2.68
2.72
2.60
2.35
2.00
1.60
1.20
0.82
0.47
0.18
-0.04
-0.16
-0.20
-0.21
-0.21
-0.25
-0.37
-0.57
-0.88
-1.24
-1.58
-1.79
-1.79
-1.60
-1.33
-1.12
-1.06
-1.12
-1.20
-1.17
-0.95
-0.59
-0.20
0.11
0.23
0.15
-0.05
-0.27
-0.38
-0.26
0.09
0.62
1.18
1.67
2.03
2.26
2.41
2.47
2.40
2.12
1.60
0.93
0.26
-0.23
-0.47
-0.48
-0.40
-0.36
-0.43
-0.58
-0.71
-0.75
-0.66
-0.49
-0.33
-0.26
-0.29
-0.34
-0.27
0.02
0.54
1.17
1.73
2.06
2.04
1.71
1.19
0.66
0.28
0.07
0.01
-0.01
-0.08
-0.24
-0.44
-0.60
-0.65
-0.58
-0.44
-0.33
-0.34
-0.48
-0.70
-0.90
-1.03
-1.12
-1.22
-1.43
-1.74
-2.09
-2.33
-2.34
-2.07
-1.60
-1.09
-0.69
-0.50
-0.53
-0.71
-0.92
-1.04
-0.98
-0.74
-0.37
0.07
0.52
0.94
1.34
1.70
1.97
2.10
2.07
1.88
1.62
1.40
1.31
1.35
1.44
1.45
1.31
1.01
0.57
0.06
-0.48
-1.01
-1.47
-1.80
-1.96
-1.89
-1.61
-1.19
-0.72
-0.30
0.03
0.26
0.43
0.60
0.83
1.13
1.51
1.92
2.30
2.55
2.62
2.43
1.96
1.28
0.49
-0.27
-0.87
-1.23
-1.35
-1.26
-1.04
-0.78
-0.55
-0.43
-0.43
-0.54
-0.71
-0.90
-1.09
-1.32
-1.60
-1.94
-2.26
-2.47
-2.48
-2.26
-1.89
-1.47
-1.09
-0.79
-0.55
-0.35
-0.18
-0.11
-0.17
-0.40
-0.73
-1.06
-1.27
-1.29
-1.09
-0.71
-0.19
0.42
1.14
1.96
2.88
3.82
4.69
5.33
5.61
5.47
4.91
4.04
2.98
1.90
0.91
0.06
-0.64
-1.19
-1.63
-1.96
-2.15
-2.20
-2.10
-1.89
-1.62
-1.37
-1.20
-1.12
-1.11
-1.10
-1.00
-0.77
-0.39
0.08
0.54
0.86
0.97
0.88
0.68
0.49
0.40
0.45
0.59
0.72
0.76
0.70
0.54
0.34
0.13
-0.09
-0.33
-0.60
-0.90
-1.22
-1.57
-1.91
-2.26
-2.60
-2.91
-3.19
-3.46
-3.73
-4.06
-4.48
-4.98
-5.55
-6.12
-6.63
-6.99
-7.17
-7.14
-6.96
-6.72
-6.56
-6.56
-6.79
-7.20
-7.69
-8.18
-8.67
-9.28
-10.21
-11.64
-13.62
-15.97
-18.40
-20.62
-22.51
-24.23
-26.13
-28.60
-31.88
-35.93
-40.48
-45.17
-49.71
-54.03
-58.31
-62.90
-68.21
-74.48
-81.74
-89.65
-97.64
-105.14
-111.73
-117.45
-122.85
-128.82
-136.30
-145.94
-157.90
-171.73
-186.28
-199.76
-209.66
-213.23
-207.94
-192.29
-166.31
-131.61
-90.69
-45.98
0.85
48.93
97.52
145.26
189.85
228.47
258.73
279.57
291.55
296.42
296.29
292.81
287.00
279.28
270.00
259.67
249.07
238.92
229.70
221.50
214.22
207.83
202.62
199.15
198.00
199.05
200.80
200.32
193.62
176.75
147.08
104.48
51.84
-5.25
-59.87
-105.48
-137.70
-155.30
-160.08
-155.83
-146.77
-136.20
-125.99
-116.81
-108.74
-101.91
-96.53
-92.68
-89.95
-87.43
-84.14
-79.50
-73.69
-67.49
-61.92
-57.71
-54.98
-53.28
-51.83
-49.94
-47.25
-43.88
-40.32
-37.21
-35.09
-34.16
-34.28
-34.98
-35.68
-35.92
-35.57
-34.79
-34.04
-33.79
-34.35
-35.76
-37.81
-40.21
-42.75
-45.39
-48.15
-51.04
-53.94
-56.68
-59.35
-62.43
-66.74
-72.82
-80.19
-86.94
-90.22
-87.41
-77.59
-62.28
-45.19
-30.75
-22.56
-22.34
-29.80
-43.15
-59.56
-75.34
-85.90
-86.25
-72.31
-42.73
-0.22
48.78
95.94
134.03
159.20
171.70
174.90
173.10
169.69
166.22
162.82
159.02
154.61
149.82
145.13
140.86
136.93
132.93
128.13
121.61
112.02
97.46
75.56
43.87
0.88
-52.98
-114.59
-178.03
-235.54
-279.11
-302.43
-302.22
-278.89
-236.13
-180.01
-117.77
-56.68
-2.87
39.53
69.03
86.92
96.47
101.81
106.45
112.32
119.61
127.38
134.44
140.20
144.90
149.31
154.20
159.90
166.13
172.27
177.78
182.53
186.96
191.90
198.18
206.24
215.95
226.63
237.20
246.27
252.21
253.25
247.67
234.24
212.65
183.70
149.11
110.91
70.65
28.83
-14.98
-61.22
-109.22
-156.36
-198.39
-230.69
-250.05
-255.98
-250.88
-238.85
-224.11
-209.45
-195.87
-183.08
-170.60
-158.47
-147.31
-137.84
-130.25
-123.96
-117.94
-111.27
-103.63
-95.33
-87.20
-80.03
-74.27
-69.87
-66.41
-63.31
-60.19
-56.90
-53.56
-50.38
-47.50
-45.01
-43.00
-41.65
-41.30
-42.18
-44.24
-46.99
-49.56
-51.15
-51.46
-51.07
-51.32
-53.72
-59.19
-67.42
-76.84
-85.32
-91.18
-94.18
-95.64
-97.71
-102.18
-109.40
-118.22
-126.57
-132.23
-133.16
-127.29
-112.58
-87.97
-55.15
-19.91
8.29
19.29
6.55
-29.17
-79.15
-129.77
-167.62
-184.39
-178.66
-154.41
-117.51
-72.62
-22.34
31.53
86.05
136.30
176.28
201.42
210.62
206.97
196.38
184.92
176.47
171.59
168.28
163.80
156.40
146.23
134.91
124.50
116.34
110.60
106.42
102.58
98.16
92.97
87.49
82.43
78.34
75.31
73.02
71.09
69.31
67.86
67.15
67.50
68.93
71.09
73.45
75.68
77.87
80.56
84.46
90.06
97.29
105.45
113.55
120.76
126.81
132.13
137.66
144.41
153.21
164.50
178.19
193.55
208.95
221.87
229.18
227.95
216.43
194.61
164.30
128.30
89.18
48.33
5.79
-39.00
-85.75
-132.40
-175.09
-209.40
-232.11
-242.57
-242.90
-236.88
-228.21
-219.12
-209.99
-200.09
-188.85
-176.66
-164.84
-154.89
-147.57
-142.40
-137.99
-132.72
-125.47
-115.91
-104.51
-92.24
-80.21
-69.41
-60.52
-53.78
-48.97
-45.54
-42.85
-40.36
-37.90
-35.56
-33.54
-32.01
-30.95
-30.26
-29.73
-29.06
-27.79
-25.39
-21.52
-16.27
-10.48
-5.55
-2.99
-3.82
-8.23
-15.43
-23.81
-31.08
-34.72
-32.49
-23.23
-7.49
12.29
32.37
48.97
59.62
63.93
63.42
60.42
57.08
54.62
53.40
53.38
54.51
56.65
59.28
61.23
60.93
57.27
50.31
41.73
34.51
31.71
35.01
43.78
55.09
64.79
69.10
65.91
55.35
39.40
20.93
2.67
-13.43
-26.31
-35.70
-41.82
-45.23
-46.63
-46.69
-45.90
-44.54
-42.69
-40.41
-37.77
-34.95
-32.09
-29.24
-26.47
-23.85
-21.46
-19.44
-17.83
-16.51
-15.28
-13.91
-12.37
-10.85
-9.67
-9.09
-9.12
-9.51
-9.88
-9.88
-9.41
-8.56
-7.51
-6.41
-5.30
-4.14
-2.92
-1.75
-0.80
-0.29
-0.32
-0.88
-1.80
-2.86
-3.85
-4.62
-5.14
-5.44
-5.61
-5.74
-5.84
-5.90
-5.88
-5.74
-5.50
-5.22
-4.96
-4.75
-4.57
-4.32
-3.94
-3.36
-2.60
-1.76
-0.97
-0.35
0.03
0.14
0.02
-0.30
-0.77
-1.34
-1.97
-2.58
-3.05
-3.31
-3.30
-2.99
-2.37
-1.46
-0.29
1.11
2.70
4.36
6.00
7.45
8.56
9.14
9.02
8.12
6.46
4.24
1.79
-0.47
-2.18
-3.12
-3.28
-2.85
-2.11
-1.40
-0.93
-0.86
-1.24
-2.04
-3.14
-4.38
-5.49
-6.18
-6.20
-5.46
-4.10
-2.44
-0.88
0.25
0.85
0.98
0.85
0.66
0.53
0.49
0.49
0.47
0.39
0.22
-0.08
-0.49
-0.93
-1.31
-1.51
-1.48
-1.25
-0.96
-0.80
-0.96
-1.51
-2.43
-3.51
-4.44
-4.84
-4.38
-2.87
-0.40
2.67
5.77
8.29
9.74
9.87
