1660936942.00
64.000000
-0.00
-0.00
-0.00
-0.00
-0.00
-0.00
-0.00
-0.00
-0.00
-0.00
0.00
0.01
0.01
-0.00
-0.03
-0.05
-0.05
0.00
0.13
0.36
0.66
1.01
1.37
1.72
2.06
2.40
2.79
3.25
3.81
4.44
5.09
5.73
6.32
6.90
7.53
8.27
9.15
10.25
11.47
12.67
13.76
14.71
15.59
16.61
17.97
19.80
22.29
25.21
28.30
31.26
33.98
36.59
39.43
42.95
47.41
53.13
59.70
66.59
73.25
79.47
85.43
91.73
99.06
107.84
118.40
130.10
142.06
153.51
164.14
174.31
184.86
197.11
209.54
224.01
240.75
259.71
279.85
298.71
312.52
317.03
308.87
286.79
252.50
209.24
161.05
111.37
62.33
14.89
-30.58
-73.76
-114.28
-151.77
-186.89
-220.96
-255.63
-291.93
-329.28
-365.10
-395.09
-414.74
-420.79
-412.74
-393.06
-366.23
-336.94
-308.55
-282.41
-258.25
-235.31
-213.13
-192.05
-172.74
-155.62
-140.39
-126.26
-112.34
-98.18
-83.99
-70.42
-58.28
-48.02
-39.61
-32.49
-25.96
-19.41
-12.66
-5.91
0.33
5.59
9.59
12.41
14.45
16.16
17.92
19.87
21.91
23.79
25.28
26.25
26.72
26.80
26.64
26.34
25.99
25.61
25.19
24.69
24.07
23.26
22.30
21.29
20.38
19.70
19.27
19.02
18.78
18.40
17.85
17.16
16.48
15.91
15.46
15.07
14.65
14.14
13.57
13.06
12.69
12.51
12.48
12.45
12.33
12.05
11.64
11.21
10.84
10.59
10.41
10.24
10.03
9.76
9.45
9.17
8.95
8.80
8.67
8.50
8.22
7.83
7.34
6.83
6.37
6.01
5.75
5.57
5.43
5.28
5.10
4.91
4.71
4.47
4.20
3.84
3.40
2.91
2.39
1.88
1.40
0.92
0.41
-0.15
-0.75
-1.35
-1.91
-2.40
-2.81
-3.15
-3.45
-3.76
-4.12
-4.60
-5.22
-5.99
-6.82
-7.58
-8.17
-8.50
-8.61
-8.60
-8.57
-8.55
-8.51
-8.38
-8.12
-7.78
-7.42
-7.08
-6.76
-6.38
-5.87
-5.18
-4.36
-3.51
-2.75
-2.11
-1.62
-1.20
-0.82
-0.40
0.04
0.48
0.87
1.15
1.31
1.37
1.38
1.39
1.42
1.50
1.63
1.80
2.02
2.27
2.52
2.76
2.96
3.14
3.32
3.52
3.74
3.93
4.06
4.10
4.08
4.06
4.04
4.04
4.01
3.93
3.84
3.78
3.80
3.90
4.02
4.06
3.95
3.67
3.31
2.99
2.79
2.77
2.90
3.11
3.30
3.39
3.38
3.29
3.20
3.16
3.19
3.28
3.36
3.38
3.32
3.18
3.02
2.85
2.70
2.58
2.50
2.50
2.59
2.79
3.03
3.24
3.29
3.09
2.65
2.09
1.59
1.31
1.33
1.60
1.97
2.28
2.43
2.43
2.35
2.24
2.15
2.03
1.87
1.65
1.44
1.29
1.22
1.21
1.21
1.18
1.07
0.88
0.66
0.45
0.32
0.34
0.56
0.98
1.51
1.98
2.23
2.19
1.88
1.45
1.08
0.89
0.90
1.02
1.14
1.18
1.13
1.02
0.87
0.66
0.39
0.07
-0.20
-0.30
-0.16
0.20
0.63
0.97
1.07
0.92
0.61
0.31
0.14
0.15
0.31
0.56
0.82
1.03
1.17
1.24
1.24
1.19
1.06
0.88
0.68
0.52
0.48
0.62
0.92
1.31
1.67
1.88
1.91
1.77
1.56
1.33
1.10
0.88
0.63
0.38
0.16
0.01
-0.03
0.04
0.18
0.32
0.41
0.41
0.31
0.17
0.05
0.01
0.10
0.31
0.58
0.83
1.00
1.03
0.94
0.82
0.74
0.76
0.87
1.00
1.02
0.86
0.54
0.13
-0.19
-0.29
-0.14
0.21
0.60
0.92
1.09
1.11
1.01
0.81
0.51
0.12
-0.29
-0.61
-0.72
-0.55
-0.13
0.41
0.90
1.22
1.29
1.17
0.90
0.57
0.24
-0.04
-0.25
-0.34
-0.30
-0.17
0.01
0.18
0.27
0.25
0.15
0.03
-0.04
0.01
0.22
0.53
0.85
1.07
1.12
0.99
0.76
0.53
0.39
0.36
0.43
0.53
0.63
0.69
0.69
0.63
0.52
0.36
0.20
0.11
0.09
0.16
0.28
0.41
0.51
0.56
0.54
0.49
0.43
0.39
0.39
0.43
0.48
0.54
0.60
0.68
0.77
0.85
0.89
0.82
0.64
0.35
-0.04
-0.48
-0.92
-1.29
-1.50
-1.48
-1.24
-0.81
-0.30
0.16
0.51
0.70
0.76
0.72
0.61
0.45
0.30
0.18
0.14
0.21
0.33
0.45
0.50
0.45
0.30
0.09
-0.12
-0.29
-0.38
-0.40
-0.35
-0.27
-0.16
-0.06
0.03
0.06
0.04
-0.02
-0.05
-0.00
0.14
0.36
0.59
0.77
0.89
0.95
0.98
1.00
0.99
0.93
0.82
0.70
0.61
0.55
0.49
0.37
0.11
-0.29
-0.77
-1.20
-1.45
-1.43
-1.14
-0.64
-0.09
0.37
0.61
0.61
0.44
0.23
0.14
0.27
0.56
0.90
1.11
1.10
0.88
0.56
0.28
0.13
0.11
0.16
0.17
0.06
-0.17
-0.45
-0.71
-0.85
-0.82
-0.62
-0.30
0.04
0.32
0.46
0.45
0.32
0.16
0.04
0.02
0.10
0.25
0.39
0.42
0.31
0.08
-0.18
-0.34
-0.31
-0.08
0.25
0.56
0.75
0.79
0.74
0.66
0.57
0.43
0.21
-0.09
-0.38
-0.54
-0.48
-0.23
0.10
0.31
0.29
0.01
-0.40
-0.73
-0.83
-0.61
-0.17
0.31
0.65
0.73
0.53
0.16
-0.22
-0.48
-0.59
-0.56
-0.43
-0.24
0.02
0.35
0.70
1.01
1.20
1.19
1.01
0.74
0.47
0.29
0.22
0.24
0.29
0.31
0.27
0.14
-0.06
-0.28
-0.48
-0.61
-0.64
-0.59
-0.48
-0.36
-0.27
-0.21
-0.19
-0.20
-0.21
-0.23
-0.26
-0.31
-0.37
-0.44
-0.51
-0.55
-0.53
-0.44
-0.27
-0.02
0.27
0.54
0.72
0.76
0.61
0.32
-0.02
-0.27
-0.32
-0.15
0.18
0.56
0.85
0.96
0.84
0.52
0.08
-0.37
-0.69
-0.76
-0.53
-0.03
0.59
1.14
1.48
1.52
1.27
0.85
0.39
-0.02
-0.31
-0.47
-0.52
-0.49
-0.41
-0.27
-0.09
0.11
0.29
0.36
0.28
0.07
-0.19
-0.40
-0.48
-0.40
-0.21
0.01
0.18
0.26
0.21
0.05
-0.18
-0.43
-0.64
-0.74
-0.67
-0.46
-0.16
0.15
0.41
0.62
0.75
0.80
0.75
0.59
0.33
0.03
-0.22
-0.35
-0.33
-0.18
0.02
0.19
0.28
0.31
0.30
0.30
0.29
0.21
0.02
-0.32
-0.77
-1.23
-1.60
-1.77
-1.74
-1.57
-1.37
-1.26
-1.29
-1.45
-1.64
-1.77
-1.77
-1.66
-1.57
-1.71
-2.22
-3.13
-4.28
-5.38
-6.14
-6.33
-5.99
-5.40
-4.98
-5.19
-6.25
-8.03
-10.06
-11.66
-12.31
-11.90
-10.86
-10.09
-10.54
-12.72
-16.44
-20.71
-24.18
-25.76
-25.13
-23.05
-21.09
-20.95
-23.67
-29.04
-35.59
-41.12
-43.68
-42.38
-37.85
-31.94
-27.13
-25.75
-29.13
-37.02
-47.15
-55.18
-55.31
-41.69
-10.62
37.23
95.78
154.58
201.79
228.21
230.30
210.94
177.69
139.34
102.76
71.26
45.04
22.95
4.22
-10.85
-21.35
-26.84
-28.18
-27.41
-26.76
-27.61
-29.87
-32.10
-32.47
-29.94
-24.82
-18.81
-14.12
-12.38
-13.91
-17.63
-21.60
-23.99
-23.88
-21.55
-18.29
-15.62
-14.64
-15.63
-17.97
-20.60
-22.51
-23.14
-22.54
-21.17
-19.63
-18.38
-17.60
-17.24
-17.11
-17.05
-17.06
-17.25
-17.76
-18.73
-20.13
-21.83
-23.62
-25.35
-26.99
-28.71
-30.78
-33.44
-36.84
-40.98
-45.74
-50.99
-56.67
-62.80
-69.48
-76.76
-84.59
-92.80
-101.12
-109.24
-116.97
-124.24
-131.17
-138.11
-145.63
-154.41
-164.86
-176.64
-188.24
-196.90
-199.21
-191.95
-173.09
-142.31
-101.17
-52.75
-1.19
48.81
92.71
126.90
149.42
160.41
161.96
157.31
149.88
142.36
136.38
132.70
131.61
133.19
137.27
143.26
150.11
156.51
161.34
164.07
164.96
164.93
165.25
167.05
170.94
176.81
183.88
191.08
197.44
202.54
206.60
210.39
214.98
221.25
229.67
240.03
251.36
261.91
269.37
271.29
265.57
251.07
227.95
197.55
161.93
123.14
82.52
40.33
-3.96
-50.81
-99.56
-147.74
-191.36
-225.97
-248.33
-257.59
-255.59
-245.93
-232.51
-218.14
-204.07
-190.37
-176.86
-163.78
-151.90
-141.97
-134.14
-127.70
-121.41
-114.12
-105.37
-95.57
-85.78
-77.15
-70.35
-65.32
-61.32
-57.35
-52.56
-46.65
-39.95
-33.22
-27.30
-22.75
-19.67
-17.68
-16.17
-14.53
-12.41
-9.83
-7.07
-4.56
-2.64
-1.45
-0.86
-0.60
-0.38
-0.03
0.48
1.03
1.47
1.68
1.65
1.43
1.13
0.83
0.60
0.44
0.33
0.24
0.18
0.14
0.17
0.28
0.47
0.72
0.98
1.17
1.22
1.08
0.72
0.17
-0.47
-1.07
-1.51
-1.71
-1.70
-1.55
-1.38
-1.28
-1.26
-1.29
-1.33
-1.35
-1.36
-1.36
-1.38
-1.38
-1.37
-1.30
-1.17
-0.95
-0.64
-0.25
0.22
0.77
1.41
2.11
2.82
3.44
3.88
4.02
3.85
3.41
2.80
2.15
1.53
0.99
0.53
0.15
-0.09
-0.12
0.10
0.50
0.95
1.25
1.28
1.06
0.73
0.52
0.61
1.05
1.75
2.49
3.03
3.24
3.10
2.71
2.18
1.58
0.93
0.27
-0.36
-0.85
-1.09
-1.08
-0.90
-0.72
-0.74
-1.04
-1.59
-2.24
-2.84
-3.25
-3.45
-3.48
-3.43
-3.34
-3.22
-3.03
-2.71
-2.29
-1.82
-1.39
-1.05
-0.76
-0.45
-0.03
0.53
1.17
1.74
2.09
2.12
1.85
1.42
1.00
0.74
0.71
0.88
1.16
1.45
1.68
1.86
1.99
2.13
2.25
2.33
2.33
2.20
1.94
1.54
0.99
0.30
-0.48
-1.24
-1.88
-2.30
-2.50
-2.56
-2.61
-2.76
-2.99
-3.23
-3.37
-3.32
-3.07
-2.69
-2.26
-1.88
-1.57
-1.34
-1.15
-0.92
-0.57
-0.06
0.61
1.39
2.16
2.81
3.26
3.50
3.60
3.65
3.69
3.77
3.84
3.83
3.68
3.36
2.92
2.42
1.92
1.44
0.96
0.44
-0.13
-0.72
-1.25
-1.63
-1.82
-1.83
-1.73
-1.61
-1.55
-1.57
-1.62
-1.67
-1.65
-1.58
-1.47
-1.38
-1.37
-1.45
-1.64
-1.90
-2.18
-2.44
-2.58
-2.56
-2.33
-1.90
-1.35
-0.80
-0.38
-0.13
-0.00
0.12
0.37
0.79
1.32
1.80
2.12
2.22
2.21
2.24
2.43
2.77
3.11
3.23
2.99
2.38
1.57
0.77
0.15
-0.21
-0.37
-0.42
-0.42
-0.41
-0.40
-0.42
-0.50
-0.66
-0.89
-1.16
-1.42
-1.60
-1.69
-1.69
-1.59
-1.41
-1.17
-0.90
-0.66
-0.52
-0.48
-0.53
-0.61
-0.68
-0.68
-0.63
-0.52
-0.36
-0.12
0.19
0.55
0.89
1.15
1.26
1.21
1.05
0.88
0.77
0.71
0.64
0.48
0.19
-0.24
-0.73
-1.17
-1.50
-1.72
-1.88
-2.10
-2.47
-3.01
-3.70
-4.42
-5.03
-5.39
-5.41
-5.10
-4.59
-4.04
-3.61
-3.34
-3.20
-3.01
-2.59
-1.82
-0.65
0.80
2.39
3.93
5.27
6.34
7.14
7.66
7.93
7.96
7.76
7.39
6.93
6.41
5.88
5.31
4.68
4.01
3.35
2.82
2.53
2.49
2.65
2.86
2.94
2.82
2.48
2.00
1.51
1.09
0.76
0.54
0.38
0.28
0.21
0.10
-0.14
-0.59
-1.28
-2.14
-3.03
-3.74
-4.15
-4.22
-4.01
-3.68
-3.36
-3.13
-3.00
-2.91
-2.81
-2.69
-2.54
-2.41
-2.31
-2.24
-2.16
-2.04
-1.87
-1.68
-1.50
-1.37
-1.31
-1.28
-1.24
-1.15
-0.97
-0.75
-0.51
-0.30
-0.11
0.09
0.32
0.57
0.82
1.03
1.16
1.25
1.32
1.43
1.57
1.74
1.90
1.99
2.01
1.93
1.78
1.57
1.33
1.09
0.86
0.60
0.33
0.06
-0.19
-0.35
-0.41
-0.39
-0.34
-0.30
-0.32
-0.38
-0.44
-0.49
-0.54
-0.65
-0.86
-1.20
-1.60
-1.97
-2.18
-2.14
-1.83
-1.32
-0.74
-0.25
0.03
0.08
-0.02
-0.13
-0.13
0.03
0.33
0.69
1.04
1.35
1.62
1.84
1.97
1.93
1.65
1.13
0.48
-0.13
-0.55
-0.71
-0.68
-0.58
-0.50
-0.49
-0.52
-0.54
-0.58
-0.69
-0.90
-1.21
-1.52
-1.72
-1.73
-1.55
-1.28
-1.03
-0.85
-0.74
-0.68
-0.66
-0.73
-0.94
-1.32
-1.78
-2.18
-2.34
-2.16
-1.67
-0.99
-0.35
0.14
0.44
0.65
0.92
1.34
1.89
2.43
2.80
2.93
2.86
2.73
2.64
2.63
2.61
2.48
2.16
1.69
1.20
0.81
0.59
0.51
0.52
0.55
0.62
0.73
0.89
1.01
0.99
0.73
0.25
-0.37
-0.97
-1.38
-1.50
-1.35
-1.00
-0.61
-0.32
-0.22
-0.30
-0.52
-0.74
-0.83
-0.73
-0.44
-0.05
0.32
0.54
0.56
0.36
0.02
-0.35
-0.61
-0.68
-0.54
-0.26
0.06
0.32
0.48
0.51
0.43
0.26
0.05
-0.17
-0.33
-0.40
-0.39
-0.34
-0.31
-0.33
-0.39
-0.46
-0.47
-0.41
-0.27
-0.12
0.02
0.11
0.15
0.15
0.13
0.11
0.12
0.15
0.21
0.27
0.30
0.29
0.25
0.23
0.25
0.35
0.51
0.67
0.78
0.80
0.71
0.54
0.32
0.08
-0.13
-0.30
-0.44
-0.55
-0.61
-0.59
-0.47
-0.25
0.02
0.27
0.40
0.37
0.19
-0.07
-0.33
-0.54
-0.71
-0.86
-1.03
-1.22
-1.42
-1.59
-1.71
-1.73
-1.60
-1.27
-0.76
-0.15
0.41
0.73
0.75
0.52
0.18
-0.10
-0.22
-0.19
-0.09
0.01
0.09
0.19
0.36
0.61
0.89
1.13
1.25
1.22
1.06
0.83
0.61
0.47
0.47
0.62
0.93
1.32
1.68
1.89
1.84
1.55
1.08
0.57
0.16
-0.11
-0.29
-0.43
-0.60
-0.80
-1.00
-1.15
-1.21
-1.21
-1.19
-1.19
-1.23
-1.33
-1.44
-1.50
-1.47
-1.30
-0.98
-0.55
-0.05
0.43
0.81
1.03
1.07
0.97
0.79
0.62
0.55
0.61
0.78
1.00
1.18
1.28
1.26
1.12
0.90
0.64
0.41
0.26
0.21
0.24
0.29
0.28
0.22
0.13
0.05
0.04
0.11
0.28
0.54
0.85
1.13
1.30
1.24
0.92
0.38
-0.23
-0.76
-1.09
-1.22
-1.25
-1.29
-1.37
-1.45
-1.42
-1.20
-0.78
-0.24
0.28
0.63
0.73
0.56
0.20
-0.23
-0.62
-0.87
-0.95
-0.90
-0.80
-0.71
-0.68
-0.70
-0.72
-0.67
-0.53
-0.28
0.01
0.28
0.46
0.50
0.41
0.26
0.11
-0.01
-0.09
-0.15
-0.23
-0.30
-0.31
-0.21
0.03
0.38
0.79
1.15
1.40
1.51
1.49
1.38
1.22
1.08
1.02
1.05
1.18
1.32
1.40
1.37
1.20
0.93
0.62
0.32
0.05
-0.18
-0.38
-0.58
-0.78
-0.96
-1.08
-1.08
-0.94
-0.65
-0.27
0.14
0.47
0.67
0.72
0.65
0.51
0.35
0.21
0.11
0.06
0.07
0.11
0.14
0.10
-0.09
-0.40
-0.78
-1.11
-1.26
-1.18
-0.90
-0.54
-0.23
-0.10
-0.17
-0.40
-0.71
-0.97
-1.09
-1.04
-0.86
-0.64
-0.46
-0.39
-0.43
-0.55
-0.71
-0.87
-1.01
-1.10
-1.08
-0.92
-0.62
-0.29
-0.05
-0.04
-0.31
-0.79
-1.35
-1.81
-2.05
-2.04
-1.78
-1.39
-1.00
-0.73
-0.65
-0.73
-0.88
-0.93
-0.77
-0.34
0.29
0.99
1.63
2.12
2.43
2.57
2.57
2.49
2.37
2.25
2.16
2.13
2.14
2.16
2.16
2.12
2.02
1.82
1.53
1.17
0.78
0.45
0.22
0.09
0.02
-0.07
-0.20
-0.38
-0.58
-0.75
-0.87
-0.91
-0.87
-0.71
-0.42
-0.05
0.35
0.65
0.77
0.68
0.49
0.35
0.41
0.72
1.19
1.64
1.87
1.80
1.49
1.07
0.73
0.56
0.52
0.48
0.32
-0.05
-0.58
-1.17
-1.71
-2.12
-2.37
-2.47
-2.49
-2.49
-2.51
-2.54
-2.57
-2.54
-2.42
-2.24
-2.03
-1.86
-1.76
-1.73
-1.74
-1.76
-1.80
-1.84
-1.89
-1.94
-1.95
-1.89
-1.72
-1.49
-1.26
-1.08
-0.94
-0.79
-0.54
-0.14
0.39
0.96
1.43
1.76
1.96
2.13
2.35
2.65
2.91
3.04
2.94
2.67
2.35
2.14
2.13
2.24
2.34
2.25
1.86
1.23
0.54
-0.00
-0.27
-0.28
-0.17
-0.12
-0.26
-0.59
-1.00
-1.34
-1.50
-1.48
-1.36
-1.20
-1.05
-0.87
-0.61
-0.24
0.24
0.75
1.21
1.55
1.74
1.76
1.66
1.46
1.20
0.91
0.60
0.32
0.06
-0.20
-0.48
-0.82
-1.22
-1.60
-1.87
-1.94
-1.79
-1.44
-0.96
-0.40
0.17
0.72
1.15
1.36
1.28
0.93
0.43
-0.01
-0.27
-0.31
-0.20
-0.08
-0.02
-0.03
-0.03
0.04
0.17
0.31
0.38
0.36
0.27
0.18
0.16
0.24
0.39
0.55
0.68
0.77
0.79
0.73
0.56
0.29
-0.03
-0.31
-0.44
-0.37
-0.12
0.21
0.50
0.68
0.73
0.72
0.69
0.70
0.71
0.66
0.53
0.34
0.16
0.04
0.02
0.05
0.08
0.02
-0.12
-0.35
-0.62
-0.87
-1.04
-1.07
-0.94
-0.70
-0.42
-0.21
-0.14
-0.23
-0.44
-0.66
-0.78
-0.79
-0.69
-0.58
-0.53
-0.62
-0.81
-1.08
-1.36
-1.59
-1.72
-1.73
-1.61
-1.40
-1.15
-0.96
-0.86
-0.86
-0.91
-0.90
-0.73
-0.37
0.12
0.61
0.97
1.16
1.19
1.15
1.09
1.06
1.06
1.05
1.07
1.09
1.13
1.16
1.13
1.05
0.93
0.87
0.89
1.01
1.12
1.12
0.90
0.48
-0.02
-0.45
-0.70
-0.74
-0.66
-0.59
-0.63
-0.82
-1.08
-1.31
-1.41
-1.37
-1.23
-1.02
-0.77
-0.47
-0.08
0.39
0.87
1.23
1.38
1.32
1.13
0.92
0.79
0.77
0.80
0.83
0.82
0.81
0.83
0.87
0.87
0.75
0.45
-0.01
-0.54
-1.01
-1.32
-1.46
-1.49
-1.49
-1.51
-1.58
-1.66
-1.74
-1.77
-1.70
-1.52
-1.23
-0.85
-0.46
-0.15
0.01
-0.02
-0.22
-0.54
-0.95
-1.38
-1.81
-2.16
-2.37
-2.37
-2.13
-1.68
-1.10
-0.49
0.08
0.54
0.87
1.07
1.18
1.25
1.31
1.43
1.59
1.79
2.01
2.21
2.36
2.44
2.42
2.31
2.12
1.88
1.62
1.37
1.10
0.80
0.48
0.20
0.01
-0.04
0.04
0.14
0.18
0.05
-0.26
-0.65
-1.03
-1.28
-1.30
-1.08
-0.64
-0.07
0.50
0.96
1.23
1.32
1.28
1.21
1.16
1.16
1.21
1.29
1.39
1.50
1.59
1.58
1.38
0.94
0.33
-0.31
-0.76
-0.86
-0.59
-0.09
0.43
0.77
0.81
0.61
0.31
0.09
0.07
0.25
0.55
0.85
1.05
1.09
0.96
0.70
0.34
-0.06
-0.43
-0.69
-0.76
-0.62
-0.32
0.04
0.33
0.45
0.39
0.18
-0.11
-0.39
-0.58
-0.61
-0.47
-0.20
0.10
0.26
0.17
-0.19
-0.71
-1.19
-1.46
-1.43
-1.12
-0.68
-0.27
-0.02
0.00
-0.23
-0.66
-1.22
-1.76
-2.17
-2.36
-2.33
-2.18
-2.00
-1.89
-1.89
-1.98
-2.11
-2.27
-2.43
-2.59
-2.68
-2.65
-2.42
-1.98
-1.39
-0.75
-0.18
0.26
0.57
0.80
1.05
1.39
1.87
2.47
3.10
3.65
4.01
4.13
4.01
3.70
3.31
2.90
2.55
2.27
2.07
1.95
1.91
1.93
2.03
2.19
2.38
2.55
2.64
2.63
2.56
2.50
2.52
2.65
2.80
2.85
2.70
2.36
1.94
1.63
1.54
1.68
1.92
2.11
2.12
1.94
1.61
1.19
0.69
0.09
-0.68
-1.63
-2.67
-3.69
-4.52
-5.07
-5.31
-5.30
-5.17
-5.00
-4.87
-4.74
-4.57
-4.33
-4.01
-3.68
-3.42
-3.31
-3.38
-3.58
-3.83
-4.05
-4.17
-4.19
-4.14
-4.06
-3.99
-3.95
-3.95
-3.98
-4.04
-4.08
-4.05
-3.88
-3.55
-3.07
-2.53
-2.02
-1.62
-1.36
-1.20
-1.08
-0.95
-0.75
-0.42
0.17
1.09
2.33
3.77
5.14
6.21
6.82
6.99
6.85
6.58
6.24
5.84
5.30
4.58
3.76
2.97
2.35
2.00
1.89
1.95
2.07
2.17
2.26
2.33
2.42
2.51
2.56
2.51
2.33
2.06
1.76
1.50
1.32
1.19
1.10
1.04
1.05
1.20
1.52
1.92
2.28
2.41
2.22
1.69
0.94
0.07
-0.81
-1.64
-2.38
-3.01
-3.48
-3.74
-3.79
-3.65
-3.39
-3.08
-2.75
-2.44
-2.21
-2.10
-2.16
-2.38
-2.71
-3.06
-3.36
-3.55
-3.63
-3.65
-3.65
-3.65
-3.64
-3.60
-3.54
-3.51
-3.54
-3.63
-3.74
-3.75
-3.58
-3.19
-2.63
-1.95
-1.23
-0.50
0.22
0.90
1.54
2.14
2.78
3.55
4.52
5.62
6.67
7.42
7.67
7.40
6.77
6.07
5.56
5.35
5.38
5.44
5.31
4.89
4.19
3.36
2.56
1.88
1.29
0.73
0.13
-0.48
-1.01
-1.35
-1.43
-1.32
-1.17
-1.14
-1.35
-1.75
-2.24
-2.66
-2.89
-2.91
-2.76
-2.54
-2.34
-2.20
-2.08
-1.92
-1.69
-1.39
-1.11
-0.93
-0.91
-1.00
-1.11
-1.11
-0.93
-0.56
-0.09
0.36
0.70
0.89
0.96
0.97
0.96
0.91
0.77
0.48
0.06
-0.39
-0.75
-0.93
-0.92
-0.80
-0.68
-0.62
-0.62
-0.62
-0.55
-0.39
-0.16
0.08
0.29
0.44
0.53
0.58
0.62
0.67
0.77
0.92
1.14
1.40
1.63
1.77
1.77
1.63
1.40
1.14
0.90
0.69
0.51
0.32
0.13
-0.00
-0.06
-0.01
0.08
0.14
0.06
-0.17
-0.51
-0.83
-1.06
-1.16
-1.15
-1.11
-1.09
-1.12
-1.18
-1.24
-1.29
-1.33
-1.41
-1.52
-1.60
-1.57
-1.35
-0.93
-0.37
0.19
0.59
0.71
0.54
0.16
-0.29
-0.64
-0.81
-0.80
-0.74
-0.74
-0.88
-1.13
-1.35
-1.38
-1.11
-0.55
0.11
0.63
0.85
0.75
0.46
0.20
0.12
0.24
0.44
0.60
0.64
0.59
0.58
0.72
1.03
1.42
1.72
1.81
1.64
1.28
0.88
0.57
0.42
0.43
0.52
0.58
0.55
0.45
0.32
0.25
0.25
0.30
0.32
0.25
0.07
-0.19
-0.46
-0.66
-0.76
-0.76
-0.69
-0.58
-0.44
-0.30
-0.14
0.02
0.20
0.38
0.55
0.66
0.68
0.58
0.40
0.20
0.02
-0.09
-0.19
-0.35
-0.63
-1.01
-1.39
-1.69
-1.82
-1.81
-1.75
-1.73
-1.81
-1.96
-2.09
-2.12
-2.00
-1.80
-1.62
-1.55
-1.64
-1.89
-2.20
-2.47
-2.62
-2.62
-2.48
-2.24
-1.97
-1.71
-1.52
-1.38
-1.27
-1.10
-0.75
-0.09
0.97
2.41
4.12
5.87
7.39
8.45
8.92
8.80
8.21
7.35
6.44
5.64
5.05
4.64
4.32
3.95
3.44
2.72
1.86
0.92
-0.01
-0.91
-1.78
-2.62
-3.41
-4.09
-4.54
-4.71
-4.59
-4.28
-3.90
-3.58
-3.36
-3.20
-3.02
-2.75
-2.36
-1.87
-1.27
-0.55
0.31
1.25
2.14
2.80
3.06
2.87
2.32
1.61
0.96
0.50
0.23
0.09
-0.06
-0.30
-0.67
-1.14
-1.67
-2.21
-2.72
-3.12
-3.36
-3.36
-3.11
-2.63
-2.02
-1.41
-0.88
-0.45
-0.10
0.23
0.54
0.80
0.98
1.07
1.12
1.20
1.37
1.62
1.91
2.15
2.32
2.43
2.54
2.63
2.65
2.56
2.31
1.96
1.61
1.34
1.19
1.15
1.14
1.11
1.01
0.81
0.48
-0.04
-0.74
-1.57
-2.41
-3.12
-3.61
-3.85
-3.89
-3.80
-3.64
-3.39
-3.05
-2.67
-2.34
-2.16
-2.19
-2.41
-2.65
-2.74
-2.59
-2.23
-1.80
-1.41
-1.08
-0.66
0.01
1.04
2.35
3.72
4.79
5.32
5.21
4.63
3.85
3.20
2.86
2.84
3.00
3.09
2.94
2.47
1.75
0.95
0.24
-0.26
-0.53
-0.63
-0.64
-0.60
-0.54
-0.45
-0.32
-0.18
-0.07
-0.03
-0.04
-0.06
-0.01
0.15
0.43
0.77
1.09
1.29
1.34
1.25
1.09
0.92
0.76
0.63
0.48
0.28
-0.00
-0.38
-0.85
-1.37
-1.90
-2.37
-2.75
-2.99
-3.08
-2.99
-2.73
-2.33
-1.87
-1.47
-1.24
-1.25
-1.50
-1.90
-2.32
-2.63
-2.79
-2.80
-2.74
-2.66
-2.59
-2.57
-2.58
-2.61
-2.63
-2.56
-2.36
-2.00
-1.54
-1.09
-0.79
-0.71
-0.81
-0.97
-1.05
-0.87
-0.38
0.47
1.62
2.98
4.38
5.58
6.37
6.60
6.29
5.62
4.84
4.20
3.81
3.63
3.51
3.28
2.82
2.15
1.32
0.48
-0.26
-0.83
-1.18
-1.27
-1.13
-0.77
-0.25
0.32
0.85
1.23
1.41
1.40
1.24
1.02
0.78
0.56
0.37
0.22
0.14
0.17
0.36
0.67
1.04
1.36
1.53
1.48
1.20
0.74
0.18
-0.40
-0.94
-1.37
-1.69
-1.90
-2.02
-2.10
-2.14
-2.15
-2.12
-2.03
-1.89
-1.74
-1.58
-1.45
-1.34
-1.28
-1.29
-1.36
-1.50
-1.71
-1.96
-2.24
-2.53
-2.82
-3.03
-3.11
-3.00
-2.68
-2.23
-1.74
-1.32
-1.00
-0.76
-0.52
-0.24
0.11
0.51
0.91
1.33
1.76
2.22
2.68
3.11
3.41
3.55
3.55
3.47
3.40
3.34
3.26
3.04
2.58
1.89
1.11
0.44
0.04
-0.04
0.06
0.15
0.05
-0.26
-0.67
-0.97
-1.01
-0.78
-0.40
-0.06
0.09
0.03
-0.15
-0.34
-0.47
-0.49
-0.46
-0.38
-0.28
-0.17
-0.05
0.03
0.04
-0.04
-0.19
-0.33
-0.40
-0.36
-0.24
-0.13
-0.10
-0.18
-0.33
-0.48
-0.58
-0.62
-0.66
-0.75
-0.92
-1.10
-1.20
-1.12
-0.83
-0.37
0.12
0.49
0.66
0.64
0.50
0.33
0.19
0.10
0.06
0.08
0.17
0.35
0.57
0.77
0.91
0.95
0.92
0.84
0.72
0.54
0.28
-0.05
-0.38
-0.61
-0.65
-0.49
-0.21
0.12
0.41
0.67
0.92
1.20
1.45
1.58
1.50
1.19
0.71
0.22
-0.12
-0.19
0.01
0.36
0.69
0.82
0.67
0.23
-0.35
-0.94
-1.37
-1.57
-1.57
-1.47
-1.39
-1.41
-1.52
-1.67
-1.78
-1.80
-1.73
-1.60
-1.45
-1.32
-1.20
-1.09
-0.96
-0.79
-0.59
-0.35
-0.11
0.12
0.30
0.42
0.47
0.48
0.47
0.48
0.51
0.58
0.69
0.84
1.03
1.25
1.42
1.50
1.43
1.24
1.01
0.81
0.66
0.58
0.49
0.33
0.10
-0.19
-0.42
-0.53
-0.46
-0.26
-0.02
0.17
0.23
0.16
0.00
-0.18
-0.35
-0.47
-0.54
-0.51
-0.35
-0.06
0.29
0.57
0.64
0.41
-0.05
-0.58
-0.95
-1.02
-0.78
-0.39
-0.05
0.07
-0.04
-0.31
-0.57
-0.72
-0.76
-0.73
-0.71
-0.72
-0.74
-0.70
-0.60
-0.45
-0.31
-0.21
-0.13
0.00
0.24
0.56
0.88
1.06
1.03
0.80
0.44
0.08
-0.21
-0.36
-0.37
-0.24
0.00
0.31
0.57
0.70
0.60
0.28
-0.17
-0.58
-0.83
-0.83
-0.61
-0.26
0.11
0.42
0.62
0.73
0.73
0.61
0.38
0.04
-0.32
-0.61
-0.70
-0.54
-0.12
0.44
1.00
1.40
1.57
1.52
1.31
1.04
0.79
0.57
0.37
0.17
-0.02
-0.19
-0.28
-0.32
-0.33
-0.39
-0.55
-0.78
-0.99
-1.04
-0.84
-0.43
0.10
0.56
0.83
0.90
0.82
0.68
0.55
0.44
0.33
0.23
0.16
0.13
0.15
0.14
0.05
-0.12
-0.31
-0.41
-0.36
-0.18
0.00
0.06
-0.07
-0.32
-0.56
-0.66
-0.59
-0.42
-0.27
-0.26
-0.38
-0.55
-0.65
-0.64
-0.53
-0.40
-0.33
-0.31
-0.29
-0.20
-0.01
0.20
0.35
0.36
0.24
0.08
-0.04
-0.04
0.07
0.25
0.46
0.65
0.79
0.84
0.81
0.69
0.54
0.41
0.33
0.28
0.20
0.05
-0.16
-0.37
-0.51
-0.56
-0.53
-0.48
-0.44
-0.37
-0.24
-0.05
0.16
0.30
0.28
0.14
-0.05
-0.19
-0.20
-0.12
-0.01
0.01
-0.09
-0.29
-0.49
-0.60
-0.59
-0.48
-0.33
-0.19
-0.08
0.01
0.09
0.16
0.19
0.16
0.10
0.07
0.11
0.27
0.52
0.78
0.95
0.95
0.74
0.37
-0.04
-0.37
-0.55
-0.54
-0.39
-0.22
-0.10
-0.08
-0.13
-0.16
-0.12
0.02
0.21
0.39
0.54
0.63
0.67
0.65
0.57
0.41
0.19
-0.04
-0.24
-0.36
-0.43
-0.47
-0.55
-0.69
-0.87
-1.02
-1.08
-0.97
-0.67
-0.22
0.25
0.60
0.73
0.61
0.35
0.10
0.01
0.10
0.28
0.38
0.28
-0.03
-0.39
-0.61
-0.56
-0.27
0.10
0.35
0.39
0.29
0.20
0.28
0.55
0.90
1.16
1.18
0.95
0.59
0.25
0.03
-0.08
-0.16
-0.28
-0.43
-0.55
-0.54
-0.37
-0.09
0.18
0.32
0.25
-0.00
-0.32
-0.57
-0.67
-0.60
-0.41
-0.20
-0.01
0.12
0.22
0.28
0.31
0.28
0.19
0.03
-0.13
-0.25
-0.27
-0.21
-0.11
-0.05
-0.12
-0.34
-0.67
-0.99
-1.15
-1.06
-0.71
-0.21
0.24
0.49
0.45
0.15
-0.26
-0.62
-0.80
-0.74
-0.45
0.02
0.55
1.01
1.29
1.32
1.15
0.85
0.55
0.31
0.15
0.02
-0.11
-0.25
-0.35
-0.38
-0.31
-0.18
-0.06
0.01
0.03
-0.01
-0.08
-0.15
-0.20
-0.19
-0.10
0.08
0.32
0.54
0.65
0.59
0.35
-0.02
-0.42
-0.75
-0.94
-0.96
-0.82
-0.58
-0.27
0.05
0.34
0.56
0.62
0.46
0.06
-0.49
-1.04
-1.37
-1.32
-0.87
-0.14
0.67
1.34
1.73
1.81
1.65
1.39
1.14
0.94
0.79
0.61
0.36
0.07
-0.18
-0.34
-0.38
-0.36
-0.34
-0.39
-0.47
-0.50
-0.37
-0.07
0.34
0.71
0.92
0.92
0.76
0.58
0.44
0.35
0.25
0.07
-0.21
-0.50
-0.72
-0.78
-0.68
-0.51
-0.40
-0.40
-0.47
-0.50
-0.39
-0.11
0.22
0.46
0.49
0.31
0.02
-0.23
-0.34
-0.30
-0.17
-0.08
-0.09
-0.21
-0.39
-0.56
-0.68
-0.73
-0.72
-0.67
-0.60
-0.51
-0.42
-0.32
-0.23
-0.17
-0.10
0.01
0.17
0.38
0.57
0.68
0.67
0.56
0.43
0.34
0.33
0.33
0.28
0.14
-0.08
-0.29
-0.39
-0.35
-0.20
-0.03
0.05
-0.01
-0.20
-0.46
-0.70
-0.82
-0.78
-0.60
-0.34
-0.10
0.09
0.21
0.33
0.50
0.71
0.88
0.90
0.74
0.46
0.16
-0.03
-0.08
-0.06
-0.04
-0.10
-0.25
-0.44
-0.63
-0.82
-1.07
-1.42
-1.90
-2.46
-3.05
-3.61
-4.10
-4.48
-4.75
-4.91
-5.00
-5.15
-5.48
-6.09
-6.98
-8.01
-8.99
-9.77
-10.29
-10.69
-11.22
-12.14
-13.58
-15.51
-17.73
-19.99
-22.08
-23.97
-25.83
-27.99
-30.86
-34.69
-39.45
-44.80
-50.16
-55.03
-59.21
-62.99
-67.07
-72.19
-78.80
-86.80
-95.53
-104.16
-112.06
-119.20
-126.19
-134.04
-143.76
-156.06
-171.17
-188.65
-207.29
-224.98
-238.85
-245.69
-242.87
-229.17
-205.18
-173.13
-135.86
-95.77
-53.93
-10.12
36.22
84.71
133.16
177.66
213.75
238.18
250.16
251.67
246.49
238.55
230.53
223.22
216.15
208.62
200.73
193.48
188.15
185.46
184.90
185.00
184.03
181.00
176.13
170.84
166.98
165.94
168.00
172.25
177.14
181.26
184.02
185.79
187.44
189.74
192.92
196.70
200.69
204.67
208.48
211.52
212.27
208.42
197.53
178.08
150.15
115.28
75.55
32.44
-13.53
-62.09
-111.99
-160.04
-201.40
-231.20
-246.53
-247.80
-238.55
-223.85
-208.24
-194.26
-182.21
-171.10
-159.93
-148.57
-137.70
-128.19
-120.38
-113.80
-107.42
-100.29
-92.05
-83.06
-74.25
-66.54
-60.43
-55.79
-51.99
-48.27
-44.06
-39.26
-34.16
-29.28
-25.07
-21.72
-19.19
-17.20
-15.43
-13.59
-11.58
-9.44
-7.39
-5.67
-4.45
-3.73
-3.32
-2.96
-2.40
-1.58
-0.60
0.28
0.84
0.98
0.74
0.33
-0.05
-0.27
-0.31
-0.23
-0.12
-0.02
0.08
0.25
0.49
0.75
0.93
0.93
0.77
0.54
0.36
0.34
0.47
0.67
0.79
0.74
0.49
0.11
-0.28
-0.60
-0.80
-0.88
-0.86
-0.78
-0.63
-0.41
-0.13
0.20
0.52
0.77
0.87
0.79
0.55
0.23
-0.07
-0.26
-0.31
-0.28
-0.25
-0.29
-0.43
-0.62
-0.78
-0.81
-0.67
-0.39
-0.05
0.22
0.35
0.36
0.32
0.33
0.45
0.65
0.85
0.94
0.86
0.63
0.32
0.04
-0.15
-0.22
-0.19
-0.10
0.03
0.19
0.38
0.58
0.77
0.89
0.90
0.76
0.46
0.05
-0.39
-0.77
-1.01
-1.07
-0.99
-0.81
-0.59
-0.38
-0.22
-0.16
-0.19
-0.29
-0.34
-0.26
0.03
0.47
0.91
1.15
1.09
0.74
0.24
-0.21
-0.49
-0.56
-0.48
-0.32
-0.13
0.11
0.35
0.54
0.58
0.42
0.11
-0.22
-0.45
-0.48
-0.34
-0.12
0.05
0.14
0.14
0.10
0.07
0.05
0.01
-0.07
-0.20
-0.34
-0.45
-0.48
-0.41
-0.27
-0.12
-0.02
-0.01
-0.09
-0.20
-0.29
-0.32
-0.27
-0.19
-0.11
-0.06
-0.03
-0.00
0.03
0.09
0.17
0.28
0.43
0.59
