1659460518.00
64.000000
-0.00
-0.00
-0.00
-0.00
-0.00
-0.00
-0.00
-0.00
-0.00
-0.00
0.00
0.01
0.01
-0.00
-0.03
-0.05
-0.05
0.00
0.13
0.36
0.66
1.01
1.37
1.72
2.06
2.40
2.79
3.24
3.80
4.42
5.06
5.66
6.20
6.68
7.15
7.68
8.31
9.14
10.09
11.04
11.88
12.56
13.14
13.76
14.65
15.96
17.91
20.32
22.90
25.38
27.58
29.58
31.68
34.32
37.81
42.53
48.15
54.12
59.88
65.03
69.62
74.11
79.20
85.41
93.30
102.40
111.94
121.02
129.05
136.02
142.53
149.86
156.75
165.48
176.69
190.50
205.71
219.35
227.02
224.01
206.91
174.89
130.42
77.46
20.40
-37.55
-94.96
-151.75
-208.20
-264.09
-318.46
-369.60
-416.32
-457.73
-493.29
-522.38
-544.01
-556.74
-558.95
-549.34
-527.21
-493.24
-449.22
-397.82
-342.14
-285.07
-228.92
-175.14
-124.42
-76.95
-32.97
7.11
42.65
72.89
97.31
115.71
128.23
135.20
137.21
135.37
131.70
129.10
130.62
138.37
152.39
170.43
188.61
203.01
211.07
212.37
208.14
200.27
190.23
178.68
165.77
151.75
137.35
123.61
111.48
101.30
92.67
84.68
76.39
67.35
57.80
48.69
40.84
34.77
30.40
27.14
24.13
20.72
16.70
12.31
8.10
4.60
2.14
0.75
0.16
-0.03
-0.21
-0.70
-1.62
-2.89
-4.29
-5.50
-6.27
-6.54
-6.44
-6.23
-6.13
-6.25
-6.47
-6.64
-6.56
-6.16
-5.46
-4.55
-3.54
-2.58
-1.80
-1.32
-1.21
-1.45
-1.95
-2.55
-3.12
-3.58
-3.88
-4.02
-4.00
-3.81
-3.48
-3.06
-2.67
-2.40
-2.29
-2.33
-2.48
-2.69
-2.91
-3.08
-3.13
-3.02
-2.75
-2.38
-2.00
-1.72
-1.59
-1.60
-1.68
-1.72
-1.66
-1.47
-1.21
-0.94
-0.73
-0.57
-0.36
-0.01
0.58
1.42
2.41
3.44
4.39
5.21
5.91
6.48
6.95
7.30
7.51
7.63
7.69
7.73
7.72
7.55
7.10
6.24
4.98
3.33
1.42
-0.59
-2.54
-4.32
-5.86
-7.09
-7.98
-8.54
-8.82
-8.88
-8.81
-8.67
-8.50
-8.30
-8.02
-7.65
-7.17
-6.63
-6.07
-5.54
-5.07
-4.70
-4.42
-4.24
-4.13
-4.06
-3.95
-3.69
-3.23
-2.59
-1.87
-1.21
-0.73
-0.50
-0.46
-0.52
-0.58
-0.63
-0.69
-0.79
-0.94
-1.07
-1.11
-0.99
-0.76
-0.56
-0.51
-0.68
-1.00
-1.29
-1.40
-1.26
-0.93
-0.60
-0.47
-0.64
-1.06
-1.59
-2.05
-2.31
-2.33
-2.17
-1.92
-1.70
-1.58
-1.63
-1.81
-2.06
-2.31
-2.54
-2.78
-3.04
-3.33
-3.54
-3.50
-3.07
-2.24
-1.15
-0.08
0.73
1.16
1.29
1.31
1.44
1.74
2.12
2.42
2.48
2.33
2.09
1.94
2.00
2.23
2.48
2.59
2.45
2.08
1.58
1.08
0.68
0.40
0.17
-0.07
-0.38
-0.77
-1.18
-1.55
-1.83
-1.99
-2.06
-2.09
-2.15
-2.27
-2.48
-2.81
-3.23
-3.69
-4.11
-4.37
-4.37
-3.99
-3.21
-2.11
-0.84
0.36
1.28
1.79
1.91
1.78
1.57
1.38
1.23
1.06
0.84
0.58
0.41
0.44
0.68
1.05
1.38
1.52
1.46
1.31
1.22
1.29
1.52
1.80
2.01
2.00
1.73
1.24
0.60
-0.04
-0.54
-0.84
-0.93
-0.91
-0.92
-1.06
-1.37
-1.77
-2.11
-2.25
-2.12
-1.73
-1.17
-0.54
0.09
0.68
1.22
1.70
2.11
2.45
2.71
2.92
3.09
3.23
3.31
3.29
3.13
2.83
2.44
2.03
1.70
1.47
1.36
1.33
1.32
1.30
1.25
1.17
1.09
1.03
0.98
0.95
0.88
0.76
0.57
0.32
0.04
-0.25
-0.53
-0.80
-1.05
-1.29
-1.50
-1.67
-1.82
-2.00
-2.24
-2.55
-2.85
-3.01
-2.92
-2.48
-1.74
-0.82
0.14
0.97
1.61
2.03
2.27
2.34
2.28
2.12
1.88
1.61
1.34
1.13
0.98
0.92
0.93
0.99
1.09
1.17
1.23
1.25
1.22
1.15
1.06
0.97
0.90
0.82
0.71
0.53
0.26
-0.09
-0.47
-0.81
-1.05
-1.17
-1.20
-1.18
-1.17
-1.24
-1.40
-1.64
-1.91
-2.13
-2.21
-2.08
-1.71
-1.15
-0.50
0.12
0.60
0.89
1.02
1.05
1.04
1.02
0.98
0.92
0.83
0.80
0.86
1.05
1.33
1.60
1.77
1.80
1.70
1.52
1.30
1.07
0.84
0.63
0.44
0.30
0.16
-0.01
-0.27
-0.59
-0.91
-1.15
-1.23
-1.17
-1.06
-1.04
-1.18
-1.45
-1.77
-2.05
-2.23
-2.30
-2.31
-2.26
-2.15
-1.90
-1.45
-0.79
0.03
0.89
1.64
2.15
2.35
2.27
2.00
1.67
1.36
1.14
0.98
0.86
0.75
0.66
0.58
0.53
0.50
0.48
0.45
0.38
0.27
0.13
-0.03
-0.19
-0.30
-0.34
-0.30
-0.23
-0.19
-0.23
-0.34
-0.48
-0.58
-0.59
-0.59
-0.67
-0.95
-1.43
-1.98
-2.41
-2.49
-2.12
-1.38
-0.47
0.36
0.90
1.09
1.02
0.87
0.79
0.88
1.12
1.41
1.62
1.68
1.60
1.43
1.24
1.08
0.96
0.88
0.83
0.84
0.94
1.12
1.33
1.50
1.55
1.42
1.13
0.71
0.24
-0.23
-0.62
-0.89
-1.04
-1.09
-1.10
-1.12
-1.22
-1.41
-1.73
-2.13
-2.58
-2.99
-3.24
-3.21
-2.85
-2.17
-1.27
-0.33
0.49
1.12
1.55
1.85
2.06
2.19
2.15
1.88
1.39
0.81
0.39
0.31
0.63
1.22
1.79
2.09
2.00
1.60
1.10
0.71
0.56
0.61
0.73
0.79
0.72
0.56
0.35
0.11
-0.15
-0.46
-0.84
-1.25
-1.61
-1.84
-1.93
-1.88
-1.78
-1.73
-1.82
-2.08
-2.43
-2.74
-2.84
-2.61
-2.06
-1.31
-0.54
0.06
0.41
0.50
0.37
0.07
-0.36
-0.90
-1.50
-2.07
-2.51
-2.74
-2.78
-2.75
-2.81
-3.09
-3.63
-4.39
-5.26
-6.13
-6.90
-7.57
-8.18
-8.77
-9.39
-10.03
-10.68
-11.29
-11.80
-12.18
-12.38
-12.36
-12.04
-11.37
-10.33
-8.96
-7.32
-5.46
-3.39
-1.06
1.53
4.36
7.24
9.93
12.17
13.79
14.77
15.22
15.31
15.16
14.85
14.34
13.64
12.77
11.83
10.88
10.00
9.19
8.40
7.62
6.86
6.19
5.72
5.48
5.43
5.41
5.24
4.79
4.06
3.14
2.21
1.47
1.01
0.84
0.87
0.99
1.06
0.98
0.70
0.22
-0.43
-1.15
-1.80
-2.24
-2.40
-2.27
-1.93
-1.49
-1.05
-0.68
-0.36
-0.09
0.18
0.43
0.65
0.82
0.94
1.03
1.07
1.06
0.97
0.76
0.45
0.05
-0.35
-0.69
-0.89
-0.93
-0.80
-0.53
-0.17
0.21
0.53
0.71
0.72
0.55
0.29
0.04
-0.08
-0.03
0.17
0.42
0.63
0.79
0.95
1.18
1.55
2.01
2.46
2.82
3.05
3.27
3.64
4.30
5.34
6.71
8.24
9.78
11.15
12.32
13.27
14.03
14.68
15.32
16.13
17.39
19.42
22.50
26.73
31.82
37.09
41.70
44.93
46.45
46.37
45.14
43.27
41.14
38.90
36.53
34.12
31.93
30.27
29.23
28.59
27.84
26.46
23.94
20.06
15.16
10.10
5.89
3.42
3.27
5.54
9.87
15.04
19.36
21.54
21.28
19.19
16.23
13.07
9.89
6.42
1.61
-5.53
-14.87
-24.59
-32.18
-35.61
-34.23
-28.78
-21.05
-14.01
-10.82
-13.66
-22.87
-38.32
-59.71
-86.79
-118.82
-147.17
-161.58
-155.22
-129.12
-90.10
-47.24
-7.50
24.97
49.01
63.33
70.48
72.77
72.17
71.57
71.76
72.30
70.92
65.12
54.85
40.02
20.73
-2.44
-26.87
-51.78
-76.90
-103.81
-124.39
-130.97
-120.63
-97.23
-77.55
-64.02
-57.58
-60.41
-72.77
-96.98
-134.18
-182.27
-236.13
-288.18
-327.87
-347.24
-325.45
-257.39
-158.59
-57.12
24.46
78.31
108.77
126.40
139.14
150.65
158.38
160.49
155.49
145.11
132.43
119.75
108.84
99.68
91.51
81.86
69.34
54.77
40.23
28.87
22.68
22.37
26.66
33.21
38.26
39.06
35.06
28.13
21.16
16.40
14.87
16.10
18.66
20.36
19.75
16.72
12.50
8.77
6.58
6.16
7.01
8.33
9.15
8.94
7.73
6.05
4.57
3.64
3.28
3.30
3.45
3.65
4.01
4.72
5.96
7.70
9.70
11.50
12.70
13.06
12.60
11.54
10.20
8.86
7.74
6.91
6.40
6.19
6.25
6.55
7.00
7.49
7.85
7.95
7.70
7.15
6.37
5.50
4.62
3.72
2.75
1.65
0.45
-0.75
-1.78
-2.53
-2.98
-3.25
-3.52
-3.91
-4.48
-5.14
-5.74
-6.19
-6.48
-6.72
-7.03
-7.49
-8.02
-8.50
-8.77
-8.76
-8.54
-8.23
-7.98
-7.88
-7.93
-8.09
-8.26
-8.29
-7.99
-7.17
-5.72
-3.75
-1.57
0.36
1.68
2.24
2.17
1.76
1.28
0.80
0.23
-0.60
-1.72
-3.04
-4.42
-5.84
-7.53
-9.85
-13.09
-17.24
-21.94
-26.56
-30.51
-33.43
-35.24
-36.10
-36.13
-35.36
-33.59
-30.56
-26.11
-20.35
-13.66
-6.72
-0.50
3.80
5.01
2.42
-3.68
-11.81
-19.51
-24.18
-24.01
-18.70
-9.45
1.60
12.25
20.98
27.20
31.01
32.81
33.00
31.95
30.01
27.63
25.21
23.06
21.29
19.90
18.83
18.05
17.51
17.05
16.30
14.78
12.07
8.06
3.11
-2.09
-6.72
-10.13
-12.05
-12.51
-11.70
-9.82
-7.13
-4.09
-1.34
0.41
0.81
0.09
-0.99
-1.61
-1.41
-0.78
-0.54
-1.36
-3.10
-4.82
-5.25
-3.64
-0.33
3.31
5.62
5.58
3.37
0.31
-1.82
-1.69
1.00
5.54
10.59
14.88
17.69
18.99
19.18
18.73
17.84
16.39
14.11
10.91
7.07
3.29
0.44
-0.89
-0.61
0.74
2.28
3.15
2.95
1.81
0.19
-1.38
-2.68
-3.85
-5.28
-7.26
-9.76
-12.41
-14.64
-15.95
-16.11
-15.30
-13.91
-12.30
-10.55
-8.34
-5.08
-0.27
6.10
13.41
20.54
26.32
30.01
31.58
31.65
31.03
30.37
29.88
29.41
28.74
27.79
26.68
25.58
24.50
23.20
21.35
18.74
15.55
12.32
9.86
8.84
9.56
11.75
14.73
17.66
19.91
21.19
21.60
21.46
21.07
20.57
19.94
19.10
17.96
16.51
14.76
12.68
10.10
6.78
2.47
-2.94
-9.35
-16.37
-23.46
-29.99
-35.34
-39.04
-40.80
-40.61
-38.82
-36.16
-33.50
-31.58
-30.71
-30.56
-30.33
-29.05
-26.01
-21.04
-14.56
-7.43
-0.66
4.83
8.46
10.03
9.84
8.54
6.97
5.90
5.81
6.78
8.49
10.43
12.08
13.05
13.23
12.79
12.03
11.25
10.62
10.08
9.41
8.48
7.35
6.36
5.97
6.51
8.02
10.28
12.93
15.68
18.38
20.87
22.91
24.08
23.93
22.23
19.16
15.30
11.44
8.24
5.91
4.11
2.12
-0.83
-5.20
-10.87
-17.17
-23.09
-27.65
-30.23
-30.76
-29.68
-27.70
-25.50
-23.53
-21.92
-20.59
-19.39
-18.18
-16.80
-15.04
-12.53
-8.95
-4.16
1.53
7.33
12.17
15.09
15.69
14.30
11.90
9.66
8.53
8.86
10.32
12.16
13.54
13.89
13.09
11.39
9.27
7.15
5.31
3.86
2.82
2.21
2.10
2.51
3.46
4.85
6.58
8.61
10.92
13.53
16.31
18.99
21.12
22.24
22.03
20.49
17.95
14.96
12.08
9.70
7.87
6.32
4.55
2.07
-1.41
-5.86
-10.91
-15.98
-20.48
-24.05
-26.66
-28.54
-30.07
-31.55
-33.04
-34.36
-35.16
-35.12
-34.07
-32.05
-29.35
-26.31
-23.25
-20.44
-18.02
-16.11
-14.77
-13.98
-13.62
-13.39
-12.87
-11.69
-9.69
-7.03
-4.22
-1.87
-0.40
0.21
0.48
1.19
3.04
6.28
10.63
15.48
20.22
24.55
28.51
32.33
36.18
40.01
43.63
46.79
49.34
51.22
52.44
52.97
52.83
52.12
51.05
49.86
48.69
47.48
46.05
44.13
41.54
38.21
34.10
29.15
23.25
16.40
8.79
1.03
-6.08
-11.76
-15.62
-17.76
-18.72
-19.13
-19.56
-20.31
-21.40
-22.66
-23.76
-24.22
-23.53
-21.35
-17.75
-13.32
-9.10
-6.22
-5.43
-6.85
-10.02
-14.17
-18.68
-23.16
-27.48
-31.49
-34.96
-37.58
-39.15
-39.72
-39.55
-38.90
-37.86
-36.32
-34.04
-30.95
-27.12
-22.62
-17.39
-11.20
-4.04
3.56
10.37
14.92
16.31
14.89
12.31
10.83
12.09
16.31
22.08
27.22
29.91
29.52
26.76
23.12
19.93
17.76
16.28
14.64
12.12
8.56
4.44
0.56
-2.44
-4.43
-5.81
-7.19
-9.05
-11.52
-14.53
-18.08
-22.36
-27.57
-33.53
-39.34
-43.46
-44.24
-40.68
-32.98
-22.61
-11.79
-2.70
3.28
5.84
5.62
3.73
1.31
-0.82
-2.21
-2.74
-2.43
-1.42
0.13
1.96
3.74
5.18
6.09
6.49
6.61
6.82
7.56
9.19
11.91
15.64
19.98
24.23
27.55
29.22
28.92
26.90
23.89
20.82
18.51
17.32
17.14
17.48
17.80
17.72
17.11
16.13
14.97
13.83
12.75
11.63
10.29
8.45
5.92
2.64
-1.22
-5.26
-8.98
-11.96
-13.98
-15.05
-15.32
-15.02
-14.47
-14.14
-14.63
-16.44
-19.73
-24.02
-28.22
-31.06
-31.58
-29.55
-25.62
-20.92
-16.67
-13.70
-12.36
-12.62
-14.15
-16.47
-19.01
-21.20
-22.57
-22.92
-22.35
-21.25
-20.03
-19.05
-18.42
-18.05
-17.72
-17.18
-16.19
-14.54
-12.04
-8.56
-4.08
1.17
6.71
11.85
15.87
18.32
19.18
18.95
18.37
18.11
18.37
18.85
18.87
17.84
15.57
12.42
9.10
6.35
4.55
3.68
3.38
3.19
2.77
2.04
1.12
0.25
-0.28
-0.28
0.36
1.58
3.22
5.10
7.07
9.10
11.26
13.62
16.17
18.81
21.40
23.87
26.23
28.52
30.67
32.34
32.97
31.94
28.84
23.79
17.44
10.81
4.96
0.58
-2.21
-3.75
-4.62
-5.26
-5.87
-6.38
-6.72
-6.93
-7.20
-7.77
-8.79
-10.14
-11.54
-12.61
-13.01
-12.44
-10.73
-7.87
-4.13
-0.05
3.66
6.39
7.94
8.59
8.91
9.46
10.40
11.42
11.96
11.51
9.90
7.34
4.22
0.87
-2.56
-6.13
-9.89
-13.81
-17.63
-21.00
-23.61
-25.34
-26.43
-27.42
-28.97
-31.54
-35.09
-38.93
-41.95
-43.05
-41.64
-37.90
-32.68
-27.09
-22.02
-17.84
-14.39
-11.29
-8.26
-5.31
-2.66
-0.52
1.05
2.26
3.45
4.89
6.61
8.40
9.90
10.81
10.97
10.49
9.63
8.71
7.94
7.37
6.89
6.29
5.36
3.97
2.13
0.04
-1.98
-3.46
-3.96
-3.19
-1.09
2.06
5.76
9.41
12.50
14.69
15.88
16.15
15.67
14.61
13.16
11.46
9.63
7.74
5.82
3.86
1.92
0.12
-1.41
-2.51
-3.10
-3.25
-3.13
-2.98
-3.06
-3.53
-4.45
-5.73
-7.20
-8.63
-9.82
-10.60
-10.83
-10.44
-9.38
-7.64
-5.29
-2.56
0.20
2.52
3.95
4.24
3.46
1.99
0.46
-0.55
-0.69
0.01
1.19
2.32
2.97
2.98
2.48
1.82
1.38
1.38
1.89
2.84
4.18
6.05
8.66
12.22
16.67
21.57
26.24
29.99
32.42
33.64
34.05
34.12
34.06
33.72
32.74
30.83
28.01
24.66
21.25
18.12
15.31
12.51
9.31
5.40
0.75
-4.37
-9.47
-14.01
-17.60
-20.15
-21.88
-23.23
-24.61
-26.23
-28.01
-29.59
-30.57
-30.73
-30.09
-28.89
-27.34
-25.44
-23.04
-19.94
-16.22
-12.35
-9.08
-7.12
-6.75
-7.61
-8.83
-9.43
-8.76
-6.74
-3.85
-0.80
1.76
3.50
4.46
4.90
5.20
5.70
6.60
7.95
9.53
10.99
11.97
12.32
12.17
11.96
12.16
13.05
14.60
16.44
18.05
19.01
19.05
18.13
16.38
13.99
11.23
8.42
5.88
3.90
2.65
2.14
2.23
2.73
3.33
3.73
3.56
2.53
0.47
-2.62
-6.62
-11.37
-16.71
-22.49
-28.33
-33.50
-36.99
-37.82
-35.55
-30.56
-23.92
-16.95
-10.58
-4.99
0.21
5.55
11.07
16.22
20.02
21.59
20.60
17.45
13.04
8.40
4.30
1.04
-1.46
-3.52
-5.38
-7.02
-8.16
-8.44
-7.75
-6.36
-4.83
-3.80
-3.52
-3.81
-4.08
-3.69
-2.29
0.01
2.70
5.08
6.57
6.89
6.08
4.47
2.54
0.77
-0.53
-1.26
-1.51
-1.46
-1.28
-1.02
-0.66
-0.20
0.28
0.57
0.46
-0.21
-1.39
-2.85
-4.26
-5.25
-5.59
-5.17
-4.06
-2.44
-0.55
1.39
3.15
4.58
5.56
6.02
6.02
5.75
5.57
5.93
7.15
9.32
12.09
14.74
16.44
16.53
14.86
11.76
7.89
3.87
0.03
-3.59
-7.16
-10.68
-13.96
-16.63
-18.39
-19.20
-19.29
-18.99
-18.47
-17.57
-15.91
-13.15
-9.31
-4.87
-0.62
2.70
4.67
5.38
5.30
5.05
5.08
5.63
6.63
7.91
9.24
10.46
11.40
11.96
12.01
11.38
9.93
7.60
4.47
0.79
-3.02
-6.50
-9.27
-11.15
-12.21
-12.63
-12.63
-12.39
-12.06
-11.85
-12.05
-12.93
-14.47
-16.29
-17.58
-17.40
-15.06
-10.50
-4.35
2.24
8.01
12.01
13.87
13.76
12.21
9.89
7.35
4.99
3.05
1.65
0.82
0.56
0.77
1.28
1.88
2.37
2.62
2.55
2.23
1.80
1.53
1.68
2.46
3.88
5.77
7.78
9.60
11.05
12.17
13.16
14.19
15.26
16.14
16.52
16.18
15.12
13.58
11.84
10.03
8.07
5.64
2.39
-1.85
-6.94
-12.42
-17.65
-22.00
-25.08
-26.89
-27.65
-27.73
-27.34
-26.47
-24.98
-22.78
-20.06
-17.23
-14.84
-13.17
-12.09
-11.11
-9.61
-7.20
-3.89
-0.06
3.83
7.42
10.55
13.22
15.41
17.03
17.92
17.94
17.11
15.64
13.92
12.35
11.26
10.72
10.59
10.49
10.04
9.01
7.47
5.75
4.29
3.38
3.08
3.29
3.94
5.15
7.16
10.10
13.72
17.33
20.00
21.03
20.24
18.06
15.25
12.48
10.08
7.96
5.81
3.41
0.69
-2.20
-5.12
-8.01
-10.93
-13.99
-17.27
-20.76
-24.33
-27.73
-30.66
-32.81
-34.04
-34.40
-34.14
-33.56
-32.91
-32.22
-31.37
-30.19
-28.54
-26.38
-23.66
-20.30
-16.16
-11.20
-5.64
0.01
5.03
8.79
11.05
12.03
12.31
12.49
12.97
13.87
15.01
16.20
17.30
18.32
19.29
20.18
20.88
21.23
21.15
20.67
19.91
19.09
18.42
18.11
18.38
19.35
20.94
22.72
24.06
24.29
23.07
20.58
17.50
14.67
12.64
11.43
10.52
9.26
7.29
4.72
2.08
-0.11
-1.70
-3.01
-4.72
-7.44
-11.35
-16.08
-20.87
-24.88
-27.55
-28.79
-28.86
-28.29
-27.60
-27.18
-27.20
-27.52
-27.81
-27.57
-26.31
-23.75
-19.91
-15.13
-9.99
-5.09
-0.95
2.11
3.93
4.59
4.35
3.66
3.05
2.98
3.69
5.10
6.91
8.68
10.10
11.06
11.64
11.98
12.21
12.41
12.65
13.00
13.59
14.57
16.08
18.22
20.99
24.21
27.44
30.07
31.43
31.11
29.09
25.88
22.17
18.55
15.21
11.87
8.10
3.72
-1.02
-5.43
-8.79
-10.79
-11.67
-12.15
-13.04
-14.78
-17.31
-20.12
-22.57
-24.23
-24.99
-25.08
-24.84
-24.54
-24.30
-24.07
-23.70
-23.09
-22.09
-20.62
-18.52
-15.62
-11.89
-7.51
-2.97
1.05
3.90
5.24
5.23
4.45
3.64
3.44
4.11
5.59
7.57
9.64
11.47
12.83
13.58
13.68
13.21
12.35
11.33
10.38
9.65
9.25
9.27
9.79
10.86
12.42
14.23
16.00
17.42
18.31
18.66
18.51
17.91
16.85
15.27
13.22
10.81
8.29
5.86
3.66
1.63
-0.38
-2.56
-5.07
-7.99
-11.32
-14.93
-18.54
-21.79
-24.31
-25.91
-26.59
-26.54
-26.08
-25.48
-24.82
-23.96
-22.53
-20.04
-16.08
-10.54
-3.69
3.79
11.02
17.12
21.46
23.72
23.92
22.31
19.33
15.54
11.55
7.90
4.83
2.21
-0.45
-3.73
-7.94
-12.95
-18.15
-22.77
-26.19
-28.17
-28.79
-28.31
-26.89
-24.49
-20.97
-16.33
-10.90
-5.37
-0.61
2.70
4.36
4.70
4.44
4.32
4.73
5.67
6.81
7.76
8.33
8.61
8.88
9.42
10.28
11.23
11.78
11.40
9.73
6.77
2.94
-1.02
-4.28
-6.23
-6.67
-5.84
-4.32
-2.76
-1.78
-1.85
-3.27
-6.09
-9.89
-13.76
-16.46
-16.83
-14.33
-9.31
-2.99
3.06
7.49
9.63
9.56
7.81
5.12
2.06
-0.93
-3.53
-5.47
-6.57
-6.81
-6.29
-5.26
-3.96
-2.60
-1.28
-0.07
1.00
1.97
2.97
4.20
5.88
8.13
10.84
13.69
16.24
18.09
19.09
19.34
19.06
18.52
17.89
17.23
16.61
16.16
16.03
16.36
17.08
17.89
18.36
18.03
16.66
14.28
11.07
7.34
3.35
-0.63
-4.40
-7.75
-10.55
-12.80
-14.64
-16.26
-17.85
-19.49
-21.13
-22.63
-23.77
-24.36
-24.24
-23.22
-21.11
-17.72
-12.99
-7.12
-0.69
5.40
10.17
12.87
13.29
11.81
9.26
6.56
4.38
2.96
2.15
1.65
1.23
0.84
0.52
0.36
0.34
0.39
0.44
0.51
0.67
1.07
1.73
2.56
3.32
3.73
3.67
3.23
2.75
2.63
3.14
4.27
5.65
6.81
7.32
7.03
6.08
4.79
3.45
2.18
0.83
-0.90
-3.27
-6.39
-10.04
-13.73
-16.84
-18.83
-19.50
-19.02
-17.81
-16.34
-15.00
-13.97
-13.31
-13.01
-13.05
-13.33
-13.61
-13.57
-12.88
-11.29
-8.72
-5.21
-0.89
3.98
9.03
13.72
17.37
19.37
19.43
17.82
15.21
12.54
10.60
9.76
9.94
10.74
11.66
12.34
12.57
12.33
11.67
10.68
9.47
8.25
7.28
6.87
7.25
8.46
10.31
12.36
14.14
15.24
15.51
15.02
14.04
12.84
11.58
10.28
8.84
7.17
5.26
3.20
1.08
-1.03
-3.15
-5.40
-7.88
-10.62
-13.57
-16.58
-19.53
-22.32
-24.92
-27.24
-29.20
-30.66
-31.49
-31.63
-31.15
-30.20
-28.93
-27.45
-25.74
-23.64
-20.98
-17.64
-13.66
-9.22
-4.63
-0.26
3.56
6.56
8.65
9.95
10.70
11.27
11.97
12.95
14.12
15.19
15.83
15.84
15.26
14.33
13.43
12.83
12.62
12.66
12.74
12.68
12.49
12.35
12.51
13.15
14.28
15.70
17.10
18.22
18.91
19.16
19.06
18.61
17.71
16.10
13.51
9.80
5.12
-0.12
-5.40
-10.26
-14.48
-18.12
-21.40
-24.51
-27.43
-29.91
-31.60
-32.23
-31.78
-30.55
-29.03
-27.74
-26.93
-26.53
-26.14
-25.17
-23.16
-19.87
-15.42
-10.15
-4.56
0.82
5.53
9.11
11.29
11.98
11.36
9.83
7.94
6.16
4.87
4.25
4.36
5.16
6.56
8.35
10.26
11.94
13.10
13.60
13.45
12.85
12.12
11.65
11.85
13.00
15.15
17.98
20.93
23.28
24.47
24.27
22.82
20.52
17.78
14.82
11.64
8.14
4.27
0.21
-3.64
-6.85
-9.15
-10.56
-11.45
-12.33
-13.62
-15.42
-17.44
-19.11
-19.86
-19.37
-17.69
-15.28
-12.79
-10.79
-9.64
-9.33
-9.57
-9.90
-9.87
-9.15
-7.59
-5.26
-2.43
0.50
3.03
4.74
5.37
4.93
3.72
2.18
0.83
0.05
0.01
0.69
1.85
3.19
4.37
5.13
5.34
5.05
4.44
3.75
3.20
2.87
2.79
2.93
3.36
4.24
5.73
7.86
10.56
13.59
16.67
19.59
22.15
24.13
25.27
25.33
24.16
21.86
18.74
15.25
11.78
8.52
5.50
2.62
-0.22
-3.09
-6.01
-9.00
-12.00
-14.83
-17.23
-18.91
-19.67
-19.57
-18.96
-18.36
-18.27
-18.90
-20.08
-21.30
-21.90
-21.44
-19.86
-17.48
-14.80
-12.19
-9.76
-7.35
-4.83
-2.31
-0.19
1.06
1.20
0.44
-0.66
-1.52
-1.91
-2.04
-2.39
-3.35
-4.84
-6.37
-7.28
-7.09
-5.84
-4.00
-2.25
-1.10
-0.70
-0.76
-0.81
-0.37
0.76
2.50
4.55
6.52
8.11
9.16
9.67
9.76
9.57
9.21
8.79
8.35
7.97
7.73
7.65
7.70
7.71
7.48
6.79
5.53
3.74
1.59
-0.66
-2.76
-4.55
-5.94
-6.89
-7.43
-7.63
-7.63
-7.67
-7.97
-8.62
-9.59
-10.63
-11.45
-11.75
-11.41
-10.46
-9.11
-7.66
-6.42
-5.68
-5.58
-6.07
-6.94
-7.84
-8.48
-8.70
-8.54
-8.17
-7.74
-7.25
-6.59
-5.62
-4.30
-2.75
-1.13
0.48
2.27
4.59
7.84
12.17
17.27
22.45
26.85
29.75
30.92
30.62
29.45
28.12
27.14
26.74
26.90
27.46
28.18
28.84
29.21
29.02
28.05
26.11
23.15
19.23
14.56
9.47
4.37
-0.31
-4.14
-6.91
-8.68
-9.76
-10.65
-11.80
-13.44
-15.60
-18.12
-20.74
-23.21
-25.18
-26.26
-25.99
-24.10
-20.63
-16.09
-11.31
-7.20
-4.41
-3.15
-3.11
-3.73
-4.46
-4.93
-5.07
-4.99
-4.82
-4.55
-3.98
-2.89
-1.12
1.22
3.73
5.94
7.46
8.24
8.55
8.90
9.77
11.39
13.62
15.99
17.89
18.78
18.32
16.46
13.40
9.53
5.37
1.48
-1.62
-3.56
-4.26
-4.00
-3.38
-3.13
-3.86
-5.77
-8.62
-11.83
-14.82
-17.22
-18.95
-20.15
-21.00
-21.50
-21.55
-21.00
-19.78
-17.98
-15.82
-13.60
-11.54
-9.83
-8.52
-7.62
-7.01
-6.54
-6.00
-5.28
-4.36
-3.34
-2.36
-1.45
-0.52
0.53
1.74
2.90
3.60
3.38
2.01
-0.37
-3.16
-5.61
-7.11
-7.55
-7.32
-6.95
-6.75
-6.49
-5.52
-3.21
0.57
5.26
9.84
13.33
15.19
15.49
14.60
12.77
9.95
5.91
0.65
-5.33
-10.89
-14.68
-15.57
-13.17
-7.95
-1.17
5.53
10.56
12.93
12.51
10.13
7.23
5.31
5.24
6.94
9.46
11.53
12.12
10.95
8.37
5.14
1.95
-0.80
-3.00
-4.65
-5.72
-6.18
-6.22
-6.22
-6.72
-8.04
-10.05
-12.08
-13.20
-12.69
-10.36
-6.62
-2.25
2.04
5.83
9.01
11.61
13.61
14.88
15.30
14.81
13.54
11.76
9.78
7.90
6.36
5.31
4.74
4.40
3.82
2.50
0.12
-3.26
-7.27
-11.45
-15.48
-19.31
-23.04
-26.74
-30.24
-33.20
-35.31
-36.41
-36.58
-35.75
-33.54
-29.16
-21.89
-11.72
0.34
12.43
22.65
29.92
34.54
37.84
41.33
45.80
50.81
55.13
57.50
57.42
55.38
52.59
50.33
49.54
50.72
54.00
59.20
65.69
72.13
76.47
76.40
70.17
57.45
39.71
19.90
1.52
-12.45
-20.37
-22.09
-18.70
-11.84
-3.14
6.20
15.61
25.12
35.24
46.59
59.66
74.56
91.04
108.47
125.91
141.99
155.00
163.33
166.19
164.16
158.99
152.76
146.56
139.72
130.04
115.18
94.34
69.21
43.54
21.46
5.52
-4.41
-10.83
-17.11
-25.80
-37.57
-51.33
-65.07
-77.07
-86.54
-93.66
-99.05
-103.17
-105.85
-106.56
-104.85
-100.87
-95.55
-90.40
-86.90
-85.89
-87.21
-89.77
-91.99
-92.54
-90.91
-87.70
-84.52
-83.34
-85.79
-92.67
-103.52
-116.67
-129.40
-138.44
-140.78
-134.61
-120.09
-99.33
-75.73
-52.61
-32.12
-14.84
-0.27
12.12
22.11
28.69
30.80
28.26
22.20
14.70
7.84
2.84
-0.25
-2.19
-3.79
-5.35
-6.59
-6.87
-5.74
-3.28
-0.15
2.64
4.13
3.73
1.44
-2.21
-6.41
-10.30
-13.27
-15.08
-15.85
-15.98
-15.96
-16.20
-16.90
-18.02
-19.39
-20.74
-21.81
-22.29
-21.95
-20.66
-18.52
-15.89
-13.29
-11.23
-9.85
-8.92
-7.88
-6.24
-3.90
-1.21
1.22
2.97
4.05
4.95
6.32
8.55
11.54
14.72
17.38
19.05
19.69
19.64
19.42
19.37
19.54
19.74
19.67
19.18
18.42
17.70
17.40
17.68
18.40
19.17
19.51
19.16
18.22
17.14
16.45
16.57
17.55
19.08
20.62
21.64
21.79
21.01
19.42
17.30
14.92
12.49
10.16
7.94
5.81
3.66
1.38
-1.16
-4.02
-7.20
-10.62
-14.10
-17.43
-20.37
-22.73
-24.43
-25.48
-25.97
-26.03
-25.77
-25.27
-24.62
-23.93
-23.30
-22.82
-22.51
-22.35
-22.26
-22.14
-21.89
-21.46
-20.80
-19.91
-18.86
-17.79
-16.88
-16.30
-16.11
-16.27
-16.61
-16.91
-16.97
-16.66
-15.98
-15.00
-13.83
-12.62
-11.47
-10.50
-9.80
-9.41
-9.27
-9.24
-9.10
-8.66
-7.84
-6.67
-5.32
-3.96
-2.73
-1.63
-0.58
0.48
1.56
2.58
3.39
3.91
4.16
4.26
4.39
4.61
4.87
5.00
4.80
4.18
3.23
2.20
1.39
1.02
1.16
1.67
2.30
2.86
3.21
3.41
3.54
3.69
3.90
4.12
4.29
4.40
4.48
4.57
4.67
4.73
4.65
4.35
3.79
3.01
2.06
1.02
-0.05
-1.06
-1.91
-2.52
-2.85
-2.96
-2.95
-2.98
-3.14
-3.43
-3.78
-4.09
-4.31
-4.39
-4.32
-4.09
-3.67
-3.05
-2.30
-1.52
-0.88
-0.51
-0.44
-0.56
-0.70
-0.66
-0.33
0.31
1.18
2.16
3.15
4.10
4.95
5.68
6.26
6.67
6.87
6.81
6.47
5.84
4.96
3.87
2.64
1.30
-0.10
-1.45
-2.62
-3.39
-3.61
-3.20
-2.26
-1.02
0.21
1.18
1.74
1.87
1.72
1.47
1.31
1.31
1.46
1.64
1.74
1.70
1.52
1.26
1.01
0.78
0.56
0.33
0.14
0.09
0.33
0.95
1.92
3.08
4.19
5.04
5.57
5.87
6.14
6.52
7.07
7.69
8.20
8.43
8.29
7.79
7.00
6.06
5.13
4.31
3.69
3.27
3.03
2.90
2.83
2.78
2.78
2.85
2.99
3.15
3.26
3.22
3.01
2.66
2.27
1.98
1.86
1.89
2.00
2.02
1.85
1.45
0.87
0.18
-0.50
-1.07
-1.47
-1.64
-1.59
-1.35
-1.01
-0.66
-0.38
-0.16
0.03
0.24
0.50
0.79
1.06
1.25
1.30
1.21
0.99
0.67
0.29
-0.09
-0.43
-0.69
-0.90
-1.12
-1.37
-1.64
-1.86
-1.93
-1.81
-1.57
-1.33
-1.20
-1.22
-1.32
-1.36
-1.27
-1.04
-0.77
-0.58
-0.52
-0.57
-0.68
-0.80
-0.95
-1.13
-1.32
-1.49
-1.54
-1.38
-0.95
-0.26
0.64
1.63
2.58
3.37
3.93
4.25
4.33
4.23
3.97
3.61
3.18
2.76
2.41
2.19
2.12
2.21
2.41
2.68
2.95
3.14
3.13
2.88
2.39
1.82
1.35
1.14
1.20
1.39
1.47
1.24
0.66
-0.16
-1.00
-1.71
-2.21
-2.56
-2.86
-3.13
-3.36
-3.49
-3.47
-3.34
-3.16
-2.99
-2.83
-2.61
-2.23
-1.61
-0.76
0.23
1.24
2.13
2.80
3.18
3.24
3.02
2.56
1.95
1.30
0.67
0.13
-0.28
-0.57
-0.72
-0.74
-0.67
-0.55
-0.48
-0.55
-0.82
-1.26
-1.81
-2.36
-2.88
-3.38
-3.88
-4.40
-4.93
-5.43
-5.94
-6.52
-7.30
-8.35
-9.63
-10.98
-12.12
-12.74
-12.64
-11.77
-10.23
-8.30
-6.26
-4.42
-2.92
-1.84
-1.13
-0.69
-0.40
-0.17
0.05
0.28
0.50
0.70
0.87
1.04
1.24
1.48
1.78
2.09
2.40
2.69
3.00
3.35
3.74
4.15
4.49
4.72
4.84
4.92
4.98
5.06
5.09
5.01
4.73
4.19
3.40
2.43
1.37
0.32
-0.61
-1.37
-1.90
-2.14
-2.06
-1.64
-0.89
0.12
1.28
2.43
3.44
4.24
4.85
5.33
5.74
6.12
6.44
6.67
6.77
6.77
6.71
6.64
6.58
6.48
6.27
5.91
5.43
4.92
4.48
4.20
4.12
4.19
4.30
4.34
4.16
3.71
3.02
2.22
1.50
1.05
0.91
1.04
1.26
1.39
1.29
0.95
0.40
-0.29
-1.08
-1.96
-2.90
-3.79
-4.42
-4.58
-4.16
-3.24
-2.07
-0.98
-0.18
0.35
0.81
1.43
2.35
3.46
4.51
5.21
5.39
5.10
4.52
3.90
3.40
3.08
2.91
2.85
2.84
2.91
3.05
3.24
3.43
3.55
3.54
3.38
3.09
2.73
2.35
1.94
1.48
0.93
0.28
-0.41
-1.08
-1.65
-2.10
-2.48
-2.90
-3.46
-4.20
-5.06
-5.86
-6.39
-6.48
-6.04
-5.13
-3.93
-2.63
-1.42
-0.41
0.41
1.10
1.76
2.49
3.32
4.15
4.82
5.18
5.15
4.80
4.33
3.96
3.78
3.77
3.77
3.70
3.53
3.39
3.41
3.66
4.03
4.28
4.21
3.72
2.90
1.96
1.14
0.58
0.29
0.22
0.26
0.33
0.36
0.32
0.13
-0.24
-0.81
-1.50
-2.22
-2.84
-3.22
-3.28
-2.97
-2.29
-1.28
-0.01
1.36
2.65
3.67
4.27
4.40
4.11
3.56
2.93
2.37
1.96
1.67
1.41
1.11
0.71
0.24
-0.23
-0.62
-0.89
-1.03
-1.08
-1.09
-1.08
-1.06
-0.96
-0.77
-0.54
-0.40
-0.52
-1.03
-1.89
-2.91
-3.83
-4.39
-4.49
-4.24
-3.89
-3.71
-3.87
-4.37
-5.04
-5.61
-5.85
-5.58
-4.76
-3.47
-1.89
-0.27
1.18
2.33
3.15
3.73
4.20
4.70
5.31
5.96
6.54
6.92
7.01
6.84
6.51
6.11
5.70
5.28
4.83
4.36
3.94
3.65
3.54
3.61
3.70
3.67
3.36
2.77
1.98
1.12
0.30
-0.45
-1.12
-1.69
-2.16
-2.50
-2.74
-3.00
-3.42
-4.11
-5.07
-6.12
-7.01
-7.51
-7.49
-6.98
-6.14
-5.14
-4.09
-3.01
-1.86
-0.60
0.74
2.04
3.14
3.92
4.34
4.49
4.54
4.65
4.90
5.26
5.57
5.70
5.54
5.11
4.55
4.03
3.70
3.62
3.71
3.82
3.79
3.54
3.08
2.54
2.03
1.62
1.26
0.86
0.30
-0.41
-1.22
-1.97
-2.57
-2.99
-3.36
-3.79
-4.38
-5.12
-5.86
-6.44
-6.70
-6.54
-5.93
-4.92
-3.60
-2.09
-0.54
0.93
2.27
3.46
4.52
5.49
6.34
7.04
7.55
7.85
7.99
8.05
8.10
8.17
8.20
8.12
7.88
7.48
6.98
6.49
6.08
5.78
5.55
5.34
5.08
4.76
4.35
3.84
3.18
2.31
1.26
0.10
-0.99
-1.86
-2.42
-2.70
-2.83
-3.00
-3.39
-4.10
-5.12
-6.35
-7.59
-8.57
-9.10
-9.04
-8.39
-7.26
-5.86
-4.35
-2.83
-1.31
0.22
1.73
3.08
4.13
4.77
5.01
4.96
4.80
4.62
4.45
4.25
3.96
3.62
3.30
3.09
3.03
3.06
3.09
3.00
2.71
2.24
1.66
1.08
0.61
0.27
0.02
-0.22
-0.54
-0.95
-1.42
-1.86
-2.25
-2.62
-3.05
-3.63
-4.38
-5.21
-5.98
-6.54
-6.82
-6.84
-6.65
-6.29
-5.73
-4.92
-3.78
-2.35
-0.74
0.87
2.31
3.48
4.37
5.01
5.45
5.66
5.57
5.19
4.61
4.00
3.53
3.33
3.33
3.40
3.35
3.06
2.51
1.78
1.02
0.36
-0.11
-0.37
-0.48
-0.54
-0.63
-0.81
-1.07
-1.37
-1.66
-1.91
-2.15
-2.41
-2.73
-3.13
-3.65
-4.28
-5.01
-5.80
-6.56
-7.15
-7.41
-7.24
-6.58
-5.46
-3.97
-2.29
-0.63
0.82
1.89
2.56
2.93
3.14
3.34
3.54
3.66
3.59
3.28
2.85
2.50
2.45
2.78
3.35
3.90
4.15
3.96
3.41
2.74
2.20
1.88
1.71
1.50
1.09
0.49
-0.13
-0.53
-0.58
-0.35
-0.10
-0.12
-0.55
-1.33
-2.27
-3.13
-3.81
-4.34
-4.83
-5.37
-5.92
-6.35
-6.47
-6.13
-5.31
-4.11
-2.71
-1.34
-0.20
0.64
1.22
1.67
2.16
2.74
3.38
3.95
4.30
4.36
4.18
3.87
3.54
3.29
3.12
2.97
2.78
2.54
2.29
2.09
2.03
2.15
2.39
2.63
2.66
2.31
1.56
0.55
-0.46
-1.20
-1.58
-1.66
-1.65
-1.80
-2.22
-2.90
-3.75
-4.64
-5.51
-6.33
-7.06
-7.65
-7.96
-7.85
-7.21
-6.08
-4.57
-2.96
-1.50
-0.38
0.36
0.91
1.51
2.35
3.43
4.57
5.42
5.70
5.33
4.47
3.50
2.78
2.51
2.70
3.12
3.54
3.81
3.90
3.87
3.79
3.65
3.38
2.94
2.34
1.69
1.11
0.68
0.35
0.01
-0.46
-1.11
-1.83
-2.47
-2.90
-3.12
-3.22
-3.40
-3.79
-4.45
-5.27
-6.08
-6.71
-7.02
-6.94
-6.46
-5.62
-4.50
-3.23
-1.94
-0.75
0.33
1.32
2.29
3.25
4.14
4.85
5.25
5.31
5.07
4.64
4.15
3.67
3.27
2.96
2.77
2.65
2.61
2.61
2.60
2.54
2.38
2.11
1.72
1.25
0.75
0.26
-0.21
-0.64
-1.07
-1.48
-1.82
-2.05
-2.14
-2.15
-2.21
-2.48
-3.05
-3.91
-4.91
-5.84
-6.50
-6.75
-6.57
-6.01
-5.18
-4.19
-3.11
-2.03
-0.98
-0.03
0.80
1.48
2.01
2.42
2.78
3.15
3.58
4.02
4.36
4.45
4.18
3.58
2.78
2.00
1.44
1.18
1.18
1.26
1.28
1.14
0.88
0.61
0.42
0.35
0.31
0.20
-0.10
-0.59
-1.19
-1.76
-2.19
-2.45
-2.63
-2.88
-3.27
-3.78
-4.28
-4.65
-4.76
-4.64
-4.35
-4.00
-3.64
-3.27
-2.83
-2.25
-1.47
-0.52
0.57
1.70
2.77
3.68
4.38
4.82
5.01
5.00
4.81
4.46
3.99
3.41
2.82
2.31
1.93
1.73
1.68
1.71
1.73
1.67
1.51
1.27
1.00
0.77
0.59
0.42
0.20
-0.15
-0.65
-1.25
-1.87
-2.43
-2.95
-3.46
-4.03
-4.69
-5.37
-5.95
-6.30
-6.31
-5.95
-5.25
-4.31
-3.23
-2.11
-1.02
0.01
0.96
1.81
2.57
3.22
3.75
4.17
4.49
4.74
4.89
4.90
4.70
4.32
3.81
3.36
3.12
3.16
3.44
3.76
3.91
3.77
3.35
2.77
2.20
1.76
1.45
1.22
0.99
0.66
0.20
-0.46
-1.32
-2.40
-3.68
-5.08
-6.45
-7.65
-8.48
-8.81
-8.60
-7.90
-6.84
-5.63
-4.43
-3.31
-2.28
-1.27
-0.24
0.79
1.78
2.64
3.34
3.87
4.27
4.56
4.74
4.78
4.62
4.26
3.74
3.15
2.59
2.18
1.98
2.01
2.17
2.38
2.51
2.51
2.35
2.07
1.73
1.39
1.07
0.75
0.40
-0.02
-0.52
-1.04
-1.52
-1.89
-2.18
-2.49
-2.96
-3.64
-4.45
-5.13
-5.35
-4.93
-3.86
-2.38
-0.86
0.37
1.20
1.69
2.02
2.36
2.71
3.01
3.13
3.07
2.88
2.69
2.61
2.59
2.54
2.31
1.81
1.08
0.26
-0.44
-0.88
-0.94
-0.68
-0.21
0.29
0.60
0.61
0.26
-0.37
-1.12
-1.83
-2.37
-2.73
-2.95
-3.15
-3.42
-3.83
-4.40
-5.06
-5.72
-6.28
-6.60
-6.60
-6.19
-5.36
-4.18
-2.77
-1.35
-0.08
0.92
1.63
2.15
2.58
3.03
3.51
3.97
4.35
4.57
4.65
4.62
4.54
4.39
4.15
3.80
3.32
2.76
2.20
1.75
1.43
1.25
1.15
1.05
0.87
0.61
0.31
0.03
-0.19
-0.35
-0.57
-0.99
-1.67
-2.62
-3.67
-4.62
-5.35
-5.83
-6.18
-6.52
-6.85
-7.04
-6.89
-6.23
-5.07
-3.62
-2.16
-0.92
0.03
0.77
1.48
2.27
3.13
3.94
4.55
4.85
4.84
4.60
4.25
3.86
3.47
3.07
2.69
2.34
2.07
1.88
1.72
1.54
1.31
1.05
0.83
0.69
0.62
0.54
0.33
-0.11
-0.73
-1.42
-2.04
-2.49
-2.79
-3.06
-3.45
-4.05
-4.81
-5.59
-6.19
-6.52
-6.53
-6.27
-5.81
-5.13
-4.20
-2.96
-1.46
0.15
1.62
2.75
3.43
3.72
3.83
3.96
4.25
4.67
5.05
5.24
5.15
4.84
4.45
4.09
3.80
3.53
3.23
2.91
2.68
2.64
2.81
3.08
3.25
3.10
2.55
1.65
0.57
-0.44
-1.25
-1.80
-2.16
-2.43
-2.70
-3.03
-3.40
-3.80
-4.20
-4.63
-5.11
-5.57
-5.90
-5.88
-5.38
-4.37
-3.01
-1.59
-0.35
0.60
1.28
1.86
2.47
3.14
3.79
4.29
4.54
4.55
4.40
4.21
4.06
3.94
3.82
3.66
3.42
3.16
2.92
2.76
2.70
2.74
2.81
2.84
2.76
2.50
2.04
1.39
0.66
-0.07
-0.68
-1.14
-1.44
-1.67
-1.89
-2.14
-2.41
-2.69
-3.03
-3.49
-4.15
-4.99
-5.87
-6.52
-6.68
-6.19
-5.10
-3.63
-2.07
-0.67
0.49
1.47
2.40
3.32
4.19
4.88
5.29
5.39
5.24
4.95
4.61
4.26
3.89
3.52
3.19
2.95
2.82
2.76
2.71
2.59
2.37
2.06
1.66
1.23
0.77
0.32
-0.08
-0.45
-0.82
-1.26
-1.81
-2.45
-3.06
-3.52
-3.77
-3.90
-4.10
-4.58
-5.44
-6.61
-7.84
-8.81
-9.24
-8.98
-8.03
-6.57
-4.86
-3.19
-1.76
-0.63
0.28
1.09
1.95
2.88
3.79
4.56
5.09
5.35
5.40
5.33
5.21
5.05
4.86
4.65
4.44
4.26
4.12
4.00
3.88
3.69
3.44
3.13
2.81
2.48
2.16
1.82
1.44
0.99
0.48
-0.05
-0.53
-0.90
-1.15
-1.35
-1.62
-2.08
-2.77
-3.63
-4.52
-5.27
-5.75
-5.92
-5.81
-5.45
-4.87
-4.06
-3.02
-1.81
-0.56
0.60
1.58
2.38
3.04
3.59
4.03
4.30
4.36
4.25
4.04
3.83
3.66
3.48
3.18
2.71
2.10
1.47
0.98
0.72
0.71
0.85
1.03
1.14
1.12
0.98
0.74
0.44
0.09
-0.27
-0.61
-0.86
-1.03
-1.13
-1.23
-1.43
-1.78
-2.36
-3.17
-4.18
-5.27
-6.27
-7.00
-7.27
-6.98
-6.17
-4.94
-3.53
-2.16
-0.99
-0.12
0.48
0.91
1.28
1.66
2.06
2.42
2.68
2.83
2.93
3.08
3.33
3.65
3.95
4.09
4.02
3.74
3.33
2.88
2.43
2.01
1.60
1.22
0.91
0.71
0.60
0.53
0.44
0.29
0.05
-0.25
-0.60
-1.01
-1.49
-2.05
-2.69
-3.39
-4.11
-4.83
-5.48
-6.04
-6.43
-6.60
-6.47
-5.97
-5.07
-3.81
-2.33
-0.83
0.50
1.54
2.27
2.76
3.12
3.44
3.74
4.02
4.22
4.31
4.29
4.17
3.95
3.69
3.44
3.21
2.99
2.72
2.31
1.73
1.06
0.45
0.07
-0.03
0.05
0.14
0.05
-0.27
-0.80
-1.40
-1.94
-2.38
-2.71
-2.97
-3.20
-3.47
-3.81
-4.28
-4.91
-5.65
-6.42
-7.08
-7.47
-7.47
-7.00
-6.08
-4.78
-3.26
-1.70
-0.28
0.86
1.67
2.21
2.59
2.98
3.48
4.08
4.69
5.18
5.43
5.41
5.19
4.87
4.56
4.31
4.10
3.92
3.72
3.52
3.37
3.26
3.17
3.00
2.70
2.24
1.68
1.13
0.67
0.34
0.10
-0.14
-0.42
-0.77
-1.16
-1.57
-2.00
-2.54
-3.25
-4.14
-5.14
-6.06
-6.64
-6.73
-6.28
-5.39
-4.30
-3.21
-2.22
-1.37
-0.57
0.24
1.06
1.86
2.56
3.15
3.63
4.02
4.31
4.50
4.54
4.43
4.18
3.85
3.46
3.07
2.71
2.40
2.20
2.13
2.19
2.33
2.43
2.36
2.04
1.44
0.66
-0.19
-0.96
-1.57
-2.00
-2.28
-2.49
-2.67
-2.87
-3.08
-3.32
-3.60
-3.99
-4.53
-5.23
-5.97
-6.59
-6.89
-6.74
-6.13
-5.14
-3.92
-2.62
-1.34
-0.14
0.96
1.95
2.81
3.51
4.02
4.32
4.41
4.29
4.00
3.59
3.09
2.55
2.02
1.50
1.05
0.72
0.55
0.57
0.73
0.96
1.14
1.20
1.13
0.96
0.75
0.48
0.11
-0.40
-1.06
-1.76
-2.40
-2.89
-3.26
-3.62
-4.13
-4.87
-5.81
-6.75
-7.43
-7.64
-7.25
-6.31
-5.00
-3.56
-2.20
-1.02
-0.04
0.84
1.75
2.75
3.83
4.88
5.75
6.31
6.52
6.37
5.96
5.43
4.95
4.68
4.69
4.96
5.37
5.75
5.92
5.80
5.38
4.78
4.16
3.65
3.32
3.17
3.11
3.06
2.97
2.88
2.85
2.97
3.24
3.58
3.80
3.74
3.29
2.47
1.49
0.61
0.13
0.27
1.18
2.83
5.15
7.95
11.03
14.21
17.34
20.41
23.45
26.37
28.86
30.35
30.11
27.54
22.42
15.10
6.46
-2.22
-9.71
-15.15
-18.29
-19.62
-20.05
-20.52
-21.63
-23.42
-25.47
-27.20
-28.26
-28.70
-28.89
-29.29
-30.14
-31.40
-32.72
-33.64
-33.68
-32.34
-29.21
-23.98
-16.64
-7.58
2.41
12.30
21.17
28.60
34.86
40.78
47.37
55.31
64.46
73.70
81.31
85.59
85.56
81.37
74.17
65.68
57.61
51.04
46.24
42.73
39.54
35.58
29.99
22.20
12.34
1.31
-9.39
-18.27
-24.42
-28.06
-30.65
-34.58
-42.67
-56.94
-77.46
-102.21
-127.74
-150.21
-166.50
-175.02
-175.63
-169.71
-159.03
-144.92
-128.36
-110.78
-94.24
-80.74
-71.30
-64.94
-59.44
-51.72
-38.70
-18.80
6.92
34.82
60.20
78.46
86.40
81.63
63.01
33.00
-0.31
-26.60
-39.31
-38.34
-31.17
-22.18
-13.87
-6.70
0.73
10.47
23.83
40.13
57.45
73.25
85.48
92.20
92.72
88.09
80.44
71.58
62.24
52.19
41.01
29.16
17.55
7.71
1.31
-0.74
0.99
4.71
8.48
11.13
12.76
13.95
15.33
17.24
19.47
21.36
22.15
21.58
19.90
17.80
15.74
13.82
11.82
9.36
6.15
2.13
-2.45
-7.07
-11.04
-13.73
-14.68
-13.65
-10.78
-6.65
-2.18
1.62
3.91
4.33
3.06
0.65
-2.15
-4.75
-6.81
-8.29
-9.31
-10.01
-10.46
-10.62
-10.45
-9.98
-9.33
-8.69
-8.21
-7.96
-7.92
-8.01
-8.12
-8.17
-8.14
-8.05
-7.93
-7.79
-7.66
-7.58
-7.67
-8.15
-9.29
-11.36
-14.42
-18.26
-22.31
-25.81
-28.01
-28.42
-26.91
-23.79
-19.56
-14.80
-9.94
-5.20
-0.62
3.79
7.99
11.92
15.56
19.02
22.52
26.17
29.78
32.79
34.46
34.21
31.91
27.85
22.53
16.42
9.86
3.28
-2.64
-6.86
-8.29
-6.31
-1.09
6.37
14.61
22.24
28.28
32.24
33.93
33.39
30.90
27.06
22.78
19.01
16.40
15.12
14.79
14.70
14.21
13.09
11.61
10.41
10.20
11.38
13.96
17.51
21.35
24.73
27.05
27.93
27.25
25.10
21.75
17.64
13.33
9.42
6.45
4.70
4.24
4.93
6.61
9.10
12.20
15.66
19.14
22.33
25.11
27.64
30.49
34.41
40.10
47.83
57.13
66.77
75.01
80.16
81.05
77.28
69.06
56.91
41.43
23.47
4.36
-13.98
-29.42
-40.28
-46.00
-47.46
-46.58
-45.57
-46.11
-49.01
-54.22
-61.21
-69.35
-78.10
-86.90
-94.92
-100.80
-102.72
-98.82
-88.09
-71.24
-51.02
-31.68
-17.53
-11.25
-12.89
-20.10
-29.37
-37.59
-43.14
-45.96
-46.79
-46.41
-45.12
-42.92
-39.88
-36.40
-33.21
-31.04
-30.27
-30.77
-31.84
-32.48
-31.64
-28.61
-23.32
-16.38
-8.96
-2.36
2.45
5.15
6.24
6.73
7.82
10.45
15.06
21.51
29.26
37.60
45.72
52.76
57.77
59.89
58.61
54.15
47.57
40.57
34.86
31.47
30.47
30.99
31.87
32.25
31.95
31.40
31.24
31.83
33.02
34.19
34.60
33.74
31.65
28.91
26.45
25.21
25.69
27.82
31.01
34.46
37.56
40.05
42.06
43.83
45.47
46.81
47.42
46.88
44.95
41.76
37.75
33.46
29.33
25.47
21.63
17.35
12.18
5.95
-1.18
-8.71
-16.03
-22.61
-28.07
-32.21
-34.98
-36.47
-36.89
-36.63
-36.18
-36.07
-36.72
-38.30
-40.71
-43.63
-46.55
-48.96
-50.42
-50.66
-49.62
-47.46
-44.50
-41.16
-37.81
-34.74
-32.10
-29.84
-27.83
-25.85
-23.71
-21.24
-18.37
-15.16
-11.75
-8.38
-5.33
-2.81
-0.89
0.53
1.65
2.71
3.82
4.91
5.81
6.26
6.14
5.50
4.53
3.54
2.77
2.32
2.14
2.09
1.98
1.62
0.95
-0.05
-1.29
-2.61
-3.80
-4.59
-4.77
-4.16
-2.75
-0.67
1.79
4.26
6.40
7.98
8.90
9.19
8.99
8.44
7.68
6.80
5.88
4.93
3.99
3.04
2.10
1.17
0.26
-0.61
-1.41
-2.10
-2.63
-3.01
-3.25
-3.41
-3.54
-3.70
-3.89
-4.15
-4.52
-5.08
-5.92
-7.08
-8.51
-10.06
-11.47
-12.48
-12.84
-12.42
-11.22
-9.33
-6.95
-4.33
-1.75
0.54
2.38
3.69
4.52
4.97
5.17
5.23
5.22
5.14
4.92
4.48
3.78
2.86
1.86
0.94
0.23
-0.24
-0.54
-0.76
-1.00
-1.28
-1.59
-1.92
-2.28
-2.72
-3.29
-4.03
-4.87
-5.73
-6.54
-7.29
-8.04
-8.81
-9.54
-10.05
-10.05
-9.31
-7.75
-5.49
-2.84
-0.16
2.25
4.21
5.67
6.69
7.35
7.74
7.91
7.90
7.72
7.36
6.81
6.13
5.39
4.72
4.18
3.77
3.40
2.94
2.34
1.64
0.93
0.35
-0.09
-0.44
-0.85
-1.44
-2.24
-3.17
-4.10
-4.92
-5.60
-6.26
-7.02
-7.96
-8.99
-9.86
-10.21
-9.68
-8.14
-5.72
-2.79
0.16
2.69
4.61
5.94
6.87
7.60
8.18
8.56
8.63
8.34
7.73
6.97
6.19
5.44
4.67
3.76
2.70
1.59
0.64
0.07
-0.07
0.12
0.38
0.47
0.25
-0.24
-0.87
-1.47
-1.91
-2.22
-2.52
-3.01
-3.88
-5.17
-6.76
-8.31
-9.40
-9.67
-8.96
-7.39
-5.25
-2.94
-0.73
1.22
2.93
4.44
5.74
6.77
7.45
7.73
7.65
7.28
6.71
5.98
5.11
4.11
3.07
2.12
1.37
0.91
0.68
0.57
0.41
0.12
-0.29
-0.69
-0.96
-1.02
-0.91
-0.78
-0.77
-1.06
-1.69
-2.64
-3.83
-5.11
-6.28
-7.14
-7.43
-6.95
-5.61
-3.47
-0.76
2.16
4.88
7.10
8.63
9.42
9.56
9.21
8.55
7.74
6.90
6.09
5.31
4.55
3.79
3.07
2.45
1.99
1.70
1.54
1.40
1.22
0.94
0.56
0.11
-0.41
-0.97
-1.57
-2.16
-2.68
-3.07
-3.30
-3.42
-3.58
-3.94
-4.66
-5.76
-7.07
-8.23
-8.79
-8.41
-6.96
-4.62
-1.81
1.02
3.51
5.49
6.93
7.89
8.39
8.47
8.22
7.75
7.20
6.64
6.06
5.38
4.57
3.67
2.81
2.10
1.57
1.16
0.77
0.32
-0.20
-0.75
-1.29
-1.83
-2.38
-2.97
-3.57
-4.18
-4.74
-5.26
-5.71
-6.11
-6.51
-7.03
-7.77
-8.77
-9.88
-10.75
-10.93
-10.11
-8.24
-5.58
-2.62
0.14
2.39
4.06
5.23
6.02
6.49
6.64
6.44
5.92
5.17
4.32
3.50
2.80
2.23
1.76
1.33
0.87
0.35
-0.23
-0.82
-1.34
-1.73
-1.98
-2.15
-2.36
-2.67
-3.13
-3.66
-4.17
-4.61
-5.00
-5.44
-6.08
-7.04
-8.29
-9.64
-10.79
-11.38
-11.14
-9.96
-7.97
-5.44
-2.74
-0.19
2.00
3.80
5.23
6.38
7.27
7.93
8.35
8.50
8.39
8.01
7.34
6.42
5.31
4.14
3.04
2.14
1.51
1.14
0.97
0.92
0.91
0.85
0.72
0.46
0.06
-0.48
-1.17
-1.98
-2.87
-3.77
-4.60
-5.34
-6.02
-6.73
-7.60
-8.64
-9.72
-10.57
-10.84
-10.23
-8.70
-6.36
-3.58
-0.71
1.94
4.23
6.13
7.72
9.00
9.95
10.45
10.44
9.92
9.04
8.00
6.98
6.09
5.32
4.60
3.84
3.05
2.28
1.67
1.31
1.19
1.22
1.25
1.09
0.65
-0.07
-0.97
-1.91
-2.74
-3.34
-3.71
-3.93
-4.12
-4.48
-5.16
-6.28
-7.76
-9.40
-10.80
-11.54
-11.31
-10.00
-7.77
-4.97
-1.99
0.87
3.45
5.68
7.53
8.95
9.90
10.35
10.37
10.08
9.66
9.23
8.84
8.45
8.01
7.47
6.83
6.14
5.45
4.80
4.20
3.63
3.09
2.55
2.02
1.45
0.80
0.02
-0.89
-1.89
-2.84
-3.61
-4.14
-4.44
-4.67
-5.01
-5.62
-6.58
-7.82
-9.11
-10.13
-10.48
-9.87
-8.20
-5.67
-2.72
0.14
2.47
4.13
5.22
6.03
6.79
7.61
8.33
8.71
8.52
7.72
6.48
5.09
3.87
2.99
2.44
2.10
1.83
1.59
1.38
1.24
1.15
1.01
0.67
-0.01
-1.03
-2.28
-3.54
-4.64
-5.46
-6.03
-6.45
-6.88
-7.41
-8.12
-9.01
-10.02
-11.05
-11.90
-12.35
-12.13
-11.12
-9.28
-6.75
-3.82
-0.80
2.02
4.43
6.37
7.86
9.00
9.87
10.53
10.95
11.03
10.64
9.69
8.27
6.64
5.13
4.08
3.59
3.54
3.66
3.65
3.32
2.68
1.88
1.05
0.25
-0.55
-1.43
-2.40
-3.40
-4.30
-4.99
-5.44
-5.74
-6.08
-6.63
-7.50
-8.63
-9.83
-10.81
-11.24
-10.91
-9.73
-7.81
-5.40
-2.80
-0.29
1.96
3.91
5.60
7.09
8.39
9.40
10.01
10.16
9.90
9.32
8.57
7.76
6.94
6.13
5.35
4.65
4.08
3.67
3.35
3.03
2.64
2.12
1.55
0.98
0.47
0.01
-0.50
-1.11
-1.85
-2.69
-3.55
-4.32
-4.99
-5.58
-6.14
-6.79
-7.57
-8.49
-9.49
-10.43
-11.12
-11.33
-10.84
-9.52
-7.39
-4.60
-1.46
1.67
4.50
6.86
8.69
10.00
10.86
11.28
11.29
10.92
10.27
9.47
8.70
8.08
7.64
7.31
7.00
6.62
6.14
5.58
5.02
4.49
3.99
3.49
2.96
2.37
1.73
1.01
0.20
-0.75
-1.88
-3.15
-4.45
-5.62
-6.53
-7.15
-7.55
-7.87
-8.27
-8.83
-9.53
-10.26
-10.82
-11.00
-10.64
-9.66
-8.08
-6.03
-3.72
-1.27
1.19
3.63
5.96
8.07
9.80
10.98
11.55
11.54
11.12
10.47
9.71
8.89
8.01
7.09
6.22
5.55
5.18
5.07
5.00
4.66
3.84
2.54
1.01
-0.39
-1.35
-1.81
-1.93
-1.98
-2.22
-2.77
-3.61
-4.68
-5.89
-7.22
-8.62
-10.01
-11.23
-12.16
-12.73
-13.02
-13.22
-13.52
-13.94
-14.35
-14.45
-14.01
-12.92
-11.30
-9.46
-7.66
-6.06
-4.59
-3.06
-1.33
0.61
2.57
4.31
5.62
6.44
6.84
6.96
6.92
6.75
6.44
5.98
5.40
4.77
4.17
3.58
2.95
2.20
1.32
0.36
-0.48
-1.01
-1.07
-0.61
0.22
1.21
2.10
2.66
2.82
2.63
2.20
1.63
0.96
0.15
-0.86
-2.08
-3.41
-4.69
-5.69
-6.21
-6.07
-5.17
-3.50
-1.17
1.55
4.34
6.85
8.85
10.25
11.13
11.66
11.98
12.14
12.11
11.82
11.25
10.44
9.50
8.56
7.69
6.93
6.21
5.54
4.94
4.50
4.26
4.19
4.18
4.10
3.83
3.33
2.63
1.80
0.91
0.01
-0.87
-1.70
-2.48
-3.22
-3.94
-4.65
-5.34
-6.00
-6.63
-7.26
-7.99
-8.90
-9.89
-10.73
-11.06
-10.57
-9.16
-7.03
-4.56
-2.14
-0.02
1.76
3.29
4.65
5.86
6.83
7.47
7.76
7.76
7.59
7.30
6.89
6.27
5.36
4.21
2.93
1.73
0.82
0.33
0.24
0.47
0.84
1.19
1.40
1.44
1.30
0.99
0.48
-0.26
-1.28
-2.51
-3.83
-5.00
-5.82
-6.19
-6.14
-5.89
-5.68
-5.76
-6.24
-7.12
-8.29
-9.57
-10.71
-11.46
-11.56
-10.84
-9.24
-6.88
-4.01
-0.96
1.93
4.39
6.24
7.44
8.09
8.34
8.40
8.41
8.44
8.45
8.33
8.00
7.44
6.67
5.83
5.04
4.42
4.02
3.85
3.83
3.84
3.74
3.44
2.90
2.18
1.32
0.41
-0.52
-1.43
-2.24
-2.94
-3.50
-3.97
-4.47
-5.08
-5.85
-6.71
-7.50
-8.10
-8.47
-8.71
-9.00
-9.48
-10.11
-10.65
-10.70
-9.93
-8.18
-5.62
-2.62
0.34
2.87
4.82
6.19
7.14
7.78
8.20
8.38
8.29
7.94
7.36
6.62
5.81
5.04
4.38
3.88
3.54
3.35
3.25
3.20
3.16
3.09
2.93
2.61
2.08
1.33
0.41
-0.58
-1.53
-2.36
-3.05
-3.63
-4.14
-4.60
-4.98
-5.24
-5.39
-5.51
-5.73
-6.22
-7.08
-8.25
-9.50
-10.48
-10.84
-10.32
-8.89
-6.73
-4.14
-1.44
1.09
3.26
4.98
6.27
7.18
7.82
8.29
8.62
8.77
8.64
8.11
7.16
5.90
4.58
3.44
2.65
2.23
2.03
1.86
1.57
1.11
0.52
-0.10
-0.66
-1.12
-1.50
-1.87
-2.30
-2.85
-3.52
-4.22
-4.84
-5.26
-5.45
-5.50
-5.58
-5.86
-6.42
-7.22
-8.13
-9.05
-9.84
-10.43
-10.63
-10.27
-9.17
-7.30
-4.80
-2.00
0.72
3.05
4.82
6.06
6.87
7.39
7.74
7.98
8.10
8.04
7.75
7.18
6.36
5.44
4.60
4.03
3.79
3.83
3.96
4.01
3.85
3.48
2.96
2.36
1.72
1.03
0.27
-0.58
-1.45
-2.28
-2.99
-3.57
-4.01
-4.33
-4.58
-4.81
-5.07
-5.41
-5.89
-6.57
-7.43
-8.42
-9.39
-10.14
-10.42
-10.01
-8.78
-6.77
-4.23
-1.55
0.87
2.75
4.08
5.03
5.83
6.66
7.51
8.22
8.59
8.52
8.04
7.34
6.59
5.93
5.37
4.86
4.34
3.79
3.24
2.76
2.44
2.26
2.15
1.97
1.59
0.96
0.14
-0.71
-1.45
-2.04
-2.52
-3.03
-3.68
-4.45
-5.22
-5.82
-6.17
-6.31
-6.43
-6.73
-7.36
-8.32
-9.40
-10.29
-10.64
-10.23
-8.99
-7.08
-4.80
-2.45
-0.26
1.69
3.48
5.18
6.82
8.31
9.48
10.23
10.55
10.52
10.28
9.86
9.26
8.43
7.41
6.29
5.25
4.43
3.88
3.53
3.23
2.85
2.35
1.77
1.25
0.92
0.85
0.95
1.08
1.01
0.55
-0.33
-1.55
-2.89
-4.07
-4.90
-5.38
-5.68
-6.05
-6.75
-7.86
-9.25
-10.63
-11.64
-11.97
-11.45
-10.07
-7.93
-5.22
-2.20
0.82
3.54
5.67
7.08
7.76
7.90
7.75
7.55
7.41
7.33
7.22
6.98
6.59
6.09
5.58
5.16
4.82
4.49
4.10
3.58
2.95
2.27
1.62
1.03
0.50
0.01
-0.49
-1.02
-1.60
-2.26
-3.05
-3.97
-4.98
-6.00
-6.92
-7.63
-8.10
-8.40
-8.71
-9.21
-10.02
-11.10
-12.21
-12.92
-12.82
-11.61
-9.29
-6.20
-2.87
0.17
2.58
4.32
5.59
6.65
7.64
8.53
9.11
9.15
8.58
7.50
6.21
5.08
4.35
4.10
4.17
4.32
4.31
4.00
3.45
2.82
2.34
2.12
2.13
2.22
2.18
1.88
1.30
0.51
-0.37
-1.24
-2.08
-2.89
-3.66
-4.40
-5.09
-5.77
-6.51
-7.44
-8.64
-10.11
-11.69
-13.05
-13.81
-13.60
-12.25
-9.85
-6.76
-3.47
-0.47
1.97
3.84
5.34
6.68
7.99
9.17
10.06
10.45
10.30
9.69
8.81
7.84
6.94
6.19
5.64
5.30
5.17
5.20
5.28
5.31
5.19
4.87
4.35
3.65
2.84
1.98
1.10
0.22
-0.68
-1.63
-2.63
-3.63
-4.55
-5.31
-5.89
-6.32
-6.73
-7.30
-8.21
-9.55
-11.23
-12.97
-14.35
-14.90
-14.27
-12.44
-9.62
-6.28
-2.87
0.29
3.07
5.49
7.56
9.29
10.60
11.45
11.85
11.89
11.70
11.35
10.84
10.17
9.36
8.51
7.74
7.18
6.84
6.67
6.52
6.28
5.88
5.37
4.80
4.24
3.65
2.92
1.94
0.70
-0.67
-1.90
-2.75
-3.13
-3.17
-3.20
-3.53
-4.35
-5.60
-7.11
-8.69
-10.27
-11.82
-13.25
-14.34
-14.76
-14.15
-12.38
-9.57
-6.11
-2.49
0.86
3.64
5.76
7.26
8.33
9.14
9.86
10.55
11.11
11.37
11.15
10.43
9.32
8.04
6.82
5.78
4.94
4.28
3.76
3.41
3.28
3.35
3.54
3.72
3.70
3.38
2.71
1.77
0.64
-0.53
-1.64
-2.61
-3.43
-4.13
-4.77
-5.46
-6.29
-7.30
-8.56
-10.05
-11.72
-13.44
-14.98
-16.05
-16.34
-15.64
-13.89
-11.25
-8.05
-4.67
-1.44
1.46
4.01
6.24
8.10
9.55
10.47
10.84
10.70
10.22
9.54
8.77
7.97
7.22
6.58
6.13
5.92
5.89
5.89
5.79
5.48
4.99
4.42
3.86
3.37
2.91
2.43
1.86
1.15
0.25
-0.88
-2.23
-3.74
-5.30
-6.76
-8.03
-9.09
-10.02
-10.97
-12.05
-13.29
-14.60
-15.73
-16.36
-16.17
-14.97
-12.78
-9.83
-6.51
-3.23
-0.30
2.18
4.26
6.08
7.77
9.36
10.77
11.86
12.52
12.66
12.30
11.53
10.52
9.42
8.40
7.54
6.90
6.45
6.16
5.98
5.85
5.72
5.54
5.27
4.86
4.28
3.53
2.59
1.48
0.23
-1.08
-2.37
-3.56
-4.61
-5.50
-6.28
-7.05
-7.91
-8.94
-10.22
-11.74
-13.41
-15.01
-16.22
-16.68
-16.12
-14.46
-11.83
-8.54
-4.98
-1.47
1.75
4.60
7.04
9.06
10.66
11.83
12.58
12.93
12.96
12.70
12.20
11.47
10.57
9.60
8.67
7.92
7.41
7.14
7.01
6.89
6.68
6.34
5.91
5.46
5.11
4.91
4.88
4.99
5.11
5.08
4.72
3.88
2.49
0.64
-1.46
-3.57
-5.50
-7.23
-8.88
-10.65
-12.62
-14.70
-16.55
-17.71
-17.79
-16.57
-14.16
-10.83
-7.00
-3.05
0.74
4.21
7.25
9.78
11.73
13.05
13.72
13.81
13.43
12.75
11.90
10.99
10.07
9.16
8.29
7.51
6.88
6.49
6.34
6.40
6.55
6.66
6.55
6.08
5.21
3.99
2.55
1.09
-0.21
-1.28
-2.12
-2.80
-3.40
-4.01
-4.66
-5.44
-6.42
-7.65
-9.16
-10.92
-12.78
-14.53
-15.93
-16.70
-16.63
-15.61
-13.67
-11.01
-7.93
-4.78
-1.83
0.73
2.88
4.67
6.18
7.43
8.40
9.05
9.30
9.14
8.62
7.86
7.02
6.22
5.52
4.92
4.43
4.04
3.78
3.64
3.58
3.47
3.18
2.65
1.86
0.91
-0.10
-1.11
-2.09
-3.05
-4.02
-5.00
-5.96
-6.90
-7.85
-8.84
-9.96
-11.23
-12.68
-14.27
-15.85
-17.17
-17.88
-17.65
-16.29
-13.85
-10.62
-7.06
-3.60
-0.54
2.04
4.19
6.05
7.66
9.03
10.06
10.69
10.92
10.79
10.41
9.88
9.29
8.70
8.14
7.64
7.20
6.81
6.43
6.01
5.53
4.99
4.42
3.88
3.36
2.77
1.95
0.75
-0.84
-2.69
-4.51
-6.00
-7.03
-7.65
-8.10
-8.66
-9.52
-10.72
-12.17
-13.74
-15.27
-16.56
-17.37
-17.38
-16.33
-14.14
-10.95
-7.16
-3.25
0.33
3.29
5.59
7.35
8.77
10.05
11.27
12.35
13.16
13.53
13.40
12.79
11.84
10.74
9.63
8.58
7.64
6.82
6.14
5.63
5.29
5.05
4.84
4.57
4.17
3.57
2.73
1.66
0.38
-1.01
-2.42
-3.75
-4.94
-6.02
-7.06
-8.15
-9.36
-10.70
-12.14
-13.62
-15.07
-16.41
-17.51
-18.20
-18.22
-17.34
-15.41
-12.50
-8.86
-4.94
-1.21
1.98
4.48
6.38
7.87
9.15
10.32
11.34
12.08
12.37
12.08
11.22
9.90
8.34
6.78
5.43
4.41
3.75
3.42
3.35
3.48
3.69
3.82
3.64
2.99
1.83
0.32
-1.21
-2.43
-3.15
-3.46
-3.61
-3.89
-4.43
-5.20
-6.04
-6.84
-7.67
-8.70
-10.12
-11.97
-14.01
-15.79
-16.84
-16.77
-15.46
-13.04
-9.89
-6.45
-3.08
-0.02
2.68
5.07
7.26
9.26
11.01
12.40
13.33
13.75
13.75
13.46
13.02
12.51
11.90
11.12
10.15
9.07
8.06
7.31
6.91
6.79
6.72
6.45
5.80
4.77
3.53
2.27
1.18
0.30
-0.43
-1.09
-1.76
-2.48
-3.27
-4.16
-5.20
-6.45
-7.91
-9.56
-11.32
-13.05
-14.58
-15.68
-16.12
-15.68
-14.27
-11.98
-9.03
-5.76
-2.49
0.59
3.40
5.93
8.20
10.18
11.77
12.84
13.29
13.07
12.26
11.01
9.58
8.21
7.09
6.30
5.77
5.35
4.91
4.41
3.88
3.40
3.00
2.63
2.19
1.58
0.76
-0.22
-1.29
-2.39
-3.49
-4.61
-5.76
-6.89
-7.94
-8.85
-9.70
-10.62
-11.82
-13.41
-15.31
-17.20
-18.59
-18.99
-18.06
-15.75
-12.31
-8.24
-4.08
-0.31
2.77
5.12
6.85
8.13
9.09
9.80
10.24
10.43
10.43
10.41
10.51
10.89
11.57
12.50
13.60
14.78
16.01
17.27
18.50
19.62
20.55
21.21
21.54
21.45
20.77
19.19
16.30
11.68
5.09
-3.37
-13.18
-23.36
-32.66
-40.00
-44.72
-46.86
-47.06
-46.22
-45.08
-43.89
-42.48
-40.45
-37.54
-33.78
-29.39
-24.56
-19.26
-13.35
-6.73
0.39
7.48
13.91
19.21
23.31
26.42
28.85
30.68
31.68
31.46
29.75
26.64
22.70
18.67
15.18
12.45
10.22
7.98
5.29
2.07
-1.38
-4.47
-6.67
-7.59
-7.00
-4.85
-1.15
3.86
9.41
14.20
16.47
14.57
7.41
-5.12
-22.34
-43.31
-67.24
-93.67
-122.11
-151.59
-180.36
-205.97
-225.72
-237.30
-239.25
-231.19
-213.68
-187.87
-155.19
-117.18
-75.60
-32.71
8.68
45.46
74.95
95.73
108.23
114.43
117.09
118.62
120.25
122.00
123.30
123.63
122.94
121.50
119.43
116.43
111.64
103.99
92.78
78.17
61.48
45.07
31.68
23.49
21.32
24.24
29.92
35.53
38.81
38.68
35.35
29.77
23.09
16.23
9.80
4.17
-0.41
-3.75
-5.90
-7.29
-8.56
-10.26
-12.66
-15.62
-18.64
-21.01
-21.93
-20.86
-17.75
-12.94
-7.03
-0.74
5.36
10.87
15.62
19.81
23.53
26.70
29.13
30.80
31.89
32.71
33.61
34.89
37.50
41.99
48.15
55.15
61.92
67.31
70.30
70.35
67.72
64.75
63.38
64.08
66.14
68.72
71.40
74.28
77.75
82.15
89.64
100.64
113.35
125.25
135.32
144.27
153.83
165.60
179.94
198.49
219.82
238.83
249.49
248.26
234.61
210.51
179.11
126.44
51.84
-32.28
-109.29
-168.77
-208.26
-230.10
-238.00
-235.91
-228.51
-217.24
-204.08
-192.93
-188.02
-187.60
-188.09
-186.72
-182.69
-177.90
-172.93
-169.76
-173.38
-187.85
-212.58
-243.97
-277.54
-302.84
-312.55
-301.10
-258.34
-189.97
-114.44
-50.17
-6.27
18.94
32.49
40.13
45.36
48.72
49.79
47.56
45.39
47.66
56.99
72.97
91.94
109.50
122.27
128.18
123.56
111.37
96.77
84.26
75.99
71.14
67.50
62.91
55.41
44.72
33.30
23.70
17.36
14.30
13.46
13.63
13.91
13.41
11.59
9.13
6.54
3.94
1.13
-2.11
-5.71
-9.20
-12.10
-14.13
-14.87
-14.59
-14.13
-14.51
-16.43
-19.90
-24.19
-28.09
-30.37
-29.98
-26.68
-21.05
-14.29
-7.76
-2.57
0.73
2.22
2.41
2.01
1.62
1.57
1.98
2.79
3.91
5.12
6.15
6.69
6.48
5.40
3.62
1.48
-0.58
-2.20
-3.29
-4.03
-4.89
-6.30
-8.34
-10.50
-11.71
-10.73
-6.69
0.38
9.36
18.34
25.20
28.26
26.74
20.83
11.54
0.38
-10.94
-20.82
-27.97
-31.62
-31.55
-28.16
-22.26
-14.91
-7.19
-0.13
5.56
9.48
11.69
12.60
12.86
13.13
13.81
14.91
16.13
17.00
17.17
16.51
15.20
13.57
12.00
10.77
10.07
10.03
10.74
12.12
13.94
15.68
16.72
16.51
14.88
12.15
9.01
6.27
4.39
3.32
2.43
0.83
-2.22
-6.89
-12.66
-18.47
-23.11
-25.66
-25.81
-23.78
-20.12
-15.37
-9.86
-3.74
2.84
9.54
15.84
21.22
25.37
28.39
30.68
32.75
34.93
37.24
39.50
41.51
