1660935151.00
64.000000
-0.00
-0.00
-0.00
-0.00
-0.00
-0.00
-0.00
-0.00
-0.00
-0.00
0.00
0.01
0.01
-0.00
-0.03
-0.05
-0.05
0.00
0.13
0.36
0.66
1.01
1.37
1.72
2.06
2.40
2.79
3.25
3.81
4.44
5.09
5.73
6.32
6.90
7.53
8.27
9.15
10.26
11.48
12.68
13.78
14.72
15.61
16.62
17.98
19.81
22.30
25.24
28.33
31.29
34.01
36.61
39.45
42.97
47.44
53.17
59.76
66.65
73.32
79.53
85.49
91.78
99.11
107.90
118.50
130.23
142.22
153.69
164.31
174.45
184.97
197.23
209.69
224.23
241.05
260.07
280.23
299.08
312.84
317.30
309.15
287.13
252.96
209.83
161.73
112.08
63.00
15.49
-30.03
-73.20
-113.64
-151.01
-185.98
-219.92
-254.47
-290.68
-328.02
-363.97
-394.29
-414.48
-421.17
-413.71
-394.41
-367.66
-338.22
-309.59
-283.27
-259.05
-236.11
-213.84
-192.51
-172.85
-155.41
-140.10
-126.20
-112.74
-99.06
-85.12
-71.49
-59.02
-48.41
-39.79
-32.73
-26.45
-20.23
-13.73
-7.10
-0.81
4.61
8.85
11.96
14.29
16.27
18.23
20.28
22.31
24.06
25.32
25.96
26.02
25.69
25.21
24.83
24.68
24.74
24.87
24.86
24.58
23.98
23.17
22.27
21.43
20.68
20.00
19.31
18.58
17.83
17.09
16.44
15.90
15.52
15.29
15.18
15.10
14.98
14.72
14.30
13.77
13.21
12.70
12.30
12.01
11.81
11.66
11.54
11.39
11.17
10.85
10.41
9.90
9.39
8.95
8.60
8.33
8.09
7.87
7.65
7.45
7.26
7.09
6.93
6.80
6.73
6.72
6.72
6.65
6.42
5.98
5.36
4.64
3.96
3.41
3.01
2.74
2.54
2.34
2.12
1.81
1.41
0.88
0.24
-0.45
-1.16
-1.83
-2.44
-2.99
-3.49
-3.98
-4.45
-4.90
-5.35
-5.78
-6.21
-6.65
-7.08
-7.49
-7.84
-8.08
-8.20
-8.18
-8.06
-7.88
-7.68
-7.49
-7.33
-7.17
-6.98
-6.72
-6.39
-5.98
-5.51
-4.98
-4.38
-3.69
-2.93
-2.14
-1.38
-0.74
-0.28
0.00
0.15
0.24
0.34
0.48
0.66
0.86
1.04
1.19
1.32
1.45
1.65
1.97
2.41
2.91
3.36
3.63
3.67
3.49
3.22
2.99
2.93
3.05
3.29
3.54
3.74
3.84
3.86
3.81
3.70
3.52
3.31
3.14
3.11
3.31
3.77
4.38
4.98
5.42
5.58
5.49
5.20
4.86
4.55
4.32
4.16
4.03
3.88
3.69
3.45
3.17
2.85
2.52
2.20
1.93
1.75
1.70
1.79
2.00
2.26
2.52
2.72
2.84
2.88
2.84
2.74
2.59
2.42
2.25
2.15
2.12
2.18
2.26
2.34
2.40
2.46
2.53
2.57
2.53
2.34
1.97
1.50
1.07
0.79
0.69
0.71
0.75
0.75
0.73
0.77
0.89
1.03
1.09
0.97
0.70
0.38
0.18
0.16
0.30
0.51
0.70
0.83
0.96
1.14
1.34
1.48
1.44
1.17
0.76
0.41
0.29
0.48
0.92
1.40
1.75
1.85
1.74
1.54
1.38
1.31
1.27
1.19
1.00
0.75
0.56
0.51
0.66
0.93
1.23
1.44
1.53
1.53
1.50
1.45
1.41
1.36
1.29
1.22
1.19
1.20
1.25
1.30
1.31
1.24
1.09
0.89
0.65
0.45
0.34
0.37
0.53
0.72
0.82
0.72
0.37
-0.14
-0.63
-0.90
-0.85
-0.51
-0.01
0.45
0.74
0.81
0.71
0.52
0.32
0.17
0.10
0.11
0.18
0.29
0.37
0.41
0.40
0.38
0.40
0.45
0.53
0.57
0.54
0.48
0.44
0.50
0.67
0.86
0.97
0.92
0.70
0.40
0.12
-0.03
-0.01
0.14
0.37
0.64
0.87
1.02
1.04
0.94
0.75
0.54
0.39
0.33
0.34
0.39
0.46
0.57
0.72
0.90
1.06
1.14
1.11
0.99
0.80
0.57
0.33
0.09
-0.12
-0.23
-0.17
0.08
0.47
0.85
1.06
1.00
0.67
0.18
-0.32
-0.70
-0.89
-0.89
-0.77
-0.57
-0.33
-0.03
0.30
0.64
0.91
1.04
0.99
0.81
0.59
0.43
0.36
0.37
0.38
0.34
0.25
0.16
0.15
0.20
0.28
0.27
0.13
-0.11
-0.35
-0.44
-0.36
-0.13
0.11
0.25
0.27
0.21
0.17
0.21
0.33
0.46
0.56
0.60
0.64
0.72
0.88
1.05
1.15
1.07
0.79
0.37
-0.06
-0.36
-0.45
-0.32
-0.07
0.17
0.29
0.24
0.06
-0.16
-0.35
-0.47
-0.52
-0.50
-0.44
-0.30
-0.10
0.14
0.37
0.51
0.56
0.51
0.41
0.29
0.17
0.05
-0.05
-0.11
-0.08
0.07
0.32
0.58
0.74
0.73
0.53
0.21
-0.08
-0.23
-0.18
0.03
0.29
0.48
0.54
0.51
0.45
0.44
0.50
0.58
0.62
0.58
0.46
0.31
0.19
0.12
0.11
0.13
0.15
0.13
0.04
-0.11
-0.25
-0.30
-0.20
0.05
0.33
0.50
0.46
0.17
-0.26
-0.68
-0.99
-1.14
-1.20
-1.23
-1.28
-1.32
-1.30
-1.14
-0.87
-0.56
-0.32
-0.24
-0.32
-0.49
-0.67
-0.80
-0.84
-0.84
-0.84
-0.90
-1.01
-1.20
-1.42
-1.68
-1.96
-2.29
-2.68
-3.15
-3.75
-4.50
-5.40
-6.44
-7.57
-8.70
-9.77
-10.76
-11.72
-12.76
-14.02
-15.53
-17.22
-18.87
-20.30
-21.48
-22.67
-24.38
-27.16
-31.34
-36.83
-43.11
-49.32
-54.66
-58.63
-61.25
-63.09
-64.98
-67.74
-71.92
-77.55
-84.26
-91.48
-98.66
-105.48
-111.82
-117.75
-123.44
-129.36
-136.28
-145.04
-155.89
-167.74
-177.76
-181.90
-176.14
-158.04
-127.71
-87.52
-40.83
9.62
62.37
116.71
171.45
223.80
269.58
304.61
326.61
336.41
337.62
335.10
333.00
333.49
336.63
341.23
346.00
350.09
352.96
353.72
350.67
341.49
324.03
297.25
261.78
219.70
173.66
125.66
76.46
25.79
-26.50
-79.16
-129.01
-171.52
-202.45
-219.63
-223.84
-218.46
-207.94
-196.09
-185.00
-175.03
-165.59
-156.11
-146.64
-137.66
-129.64
-122.54
-115.76
-108.53
-100.36
-91.34
-82.13
-73.68
-66.68
-61.33
-57.20
-53.49
-49.45
-44.67
-39.27
-33.76
-28.77
-24.72
-21.73
-19.54
-17.77
-16.00
-14.01
-11.76
-9.41
-7.22
-5.42
-4.13
-3.35
-2.90
-2.56
-2.11
-1.46
-0.67
0.13
0.74
1.05
1.05
0.84
0.55
0.34
0.25
0.27
0.31
0.30
0.20
0.05
-0.07
-0.10
-0.01
0.13
0.25
0.23
0.06
-0.22
-0.49
-0.67
-0.67
-0.52
-0.27
-0.03
0.16
0.25
0.28
0.28
0.32
0.45
0.65
0.90
1.16
1.38
1.59
1.79
2.01
2.22
2.37
2.39
2.21
1.82
1.22
0.43
-0.45
-1.33
-2.07
-2.57
-2.74
-2.59
-2.18
-1.64
-1.09
-0.64
-0.36
-0.27
-0.36
-0.59
-0.91
-1.20
-1.39
-1.43
-1.30
-1.08
-0.82
-0.54
-0.26
0.02
0.27
0.43
0.44
0.27
-0.01
-0.25
-0.27
0.08
0.84
1.89
3.04
4.02
4.60
4.64
4.13
3.21
2.09
1.03
0.23
-0.23
-0.37
-0.30
-0.13
0.04
0.10
0.01
-0.26
-0.69
-1.20
-1.66
-1.97
-2.03
-1.88
-1.62
-1.39
-1.33
-1.44
-1.65
-1.82
-1.85
-1.72
-1.46
-1.19
-0.96
-0.80
-0.64
-0.37
0.08
0.69
1.37
1.99
2.40
2.56
2.48
2.25
1.95
1.66
1.41
1.21
1.03
0.85
0.64
0.40
0.11
-0.20
-0.56
-0.93
-1.30
-1.64
-1.94
-2.18
-2.34
-2.41
-2.38
-2.22
-1.94
-1.55
-1.13
-0.76
-0.49
-0.35
-0.29
-0.27
-0.24
-0.11
0.21
0.81
1.75
2.96
4.24
5.28
5.81
5.69
4.97
3.90
2.74
1.73
0.94
0.35
-0.08
-0.39
-0.60
-0.71
-0.76
-0.82
-0.96
-1.23
-1.63
-2.10
-2.57
-2.94
-3.14
-3.14
-2.97
-2.70
-2.41
-2.15
-1.93
-1.71
-1.45
-1.11
-0.71
-0.28
0.15
0.59
1.07
1.65
2.28
2.89
3.31
3.39
3.07
2.40
1.58
0.83
0.34
0.17
0.22
0.31
0.23
-0.10
-0.66
-1.28
-1.78
-2.04
-2.06
-1.95
-1.86
-1.88
-2.01
-2.15
-2.16
-1.96
-1.55
-1.02
-0.51
-0.12
0.12
0.24
0.33
0.50
0.83
1.36
2.09
2.96
3.82
4.49
4.79
4.59
3.89
2.81
1.60
0.54
-0.12
-0.27
-0.01
0.45
0.82
0.87
0.54
-0.10
-0.83
-1.49
-1.98
-2.30
-2.50
-2.62
-2.67
-2.57
-2.31
-1.91
-1.50
-1.24
-1.23
-1.47
-1.82
-2.09
-2.06
-1.66
-0.92
0.02
1.02
1.94
2.71
3.27
3.56
3.53
3.20
2.64
2.03
1.54
1.26
1.17
1.12
0.94
0.51
-0.16
-0.95
-1.68
-2.19
-2.39
-2.29
-1.96
-1.51
-1.10
-0.83
-0.76
-0.90
-1.19
-1.53
-1.79
-1.86
-1.66
-1.22
-0.66
-0.16
0.12
0.13
-0.01
-0.03
0.31
1.11
2.21
3.26
3.87
3.87
3.33
2.52
1.76
1.18
0.77
0.41
-0.00
-0.41
-0.69
-0.73
-0.54
-0.26
-0.07
-0.12
-0.42
-0.86
-1.30
-1.62
-1.78
-1.79
-1.67
-1.48
-1.27
-1.11
-1.08
-1.24
-1.57
-1.99
-2.38
-2.63
-2.71
-2.65
-2.56
-2.55
-2.70
-3.04
-3.53
-4.07
-4.48
-4.55
-4.11
-3.17
-1.94
-0.80
-0.20
-0.42
-1.47
-3.08
-4.83
-6.34
-7.47
-8.33
-9.22
-10.47
-12.18
-14.24
-16.31
-18.03
-19.23
-20.04
-20.90
-22.40
-24.98
-28.69
-33.12
-37.54
-41.21
-43.70
-45.14
-46.17
-47.61
-50.21
-54.24
-59.43
-65.04
-70.10
-73.74
-75.41
-75.16
-73.68
-72.29
-72.60
-75.79
-81.79
-88.61
-92.38
-88.10
-71.17
-39.06
7.48
63.96
123.25
177.60
220.82
249.74
264.35
266.66
259.23
244.20
223.27
198.17
170.89
143.38
116.94
91.72
67.08
42.51
18.56
-2.98
-19.84
-30.55
-35.25
-35.51
-33.53
-31.08
-29.09
-27.83
-27.35
-27.68
-28.80
-30.44
-31.97
-32.68
-32.16
-30.44
-28.09
-26.05
-25.19
-26.02
-28.45
-31.81
-35.12
-37.45
-38.27
-37.61
-35.89
-33.66
-31.35
-29.12
-26.95
-24.77
-22.53
-20.24
-17.93
-15.59
-13.23
-10.90
-8.71
-6.80
-5.25
-4.05
-3.17
-2.53
-2.09
-1.79
-1.60
-1.44
-1.21
-0.82
-0.21
0.64
1.72
2.99
4.36
5.81
7.29
8.79
10.26
11.63
12.81
13.68
14.21
14.42
14.46
14.50
14.70
15.12
15.68
16.24
16.61
16.73
16.66
16.54
16.48
16.48
16.35
15.82
14.65
12.78
10.40
7.84
5.47
3.58
2.28
1.53
1.11
0.66
-0.26
-2.06
-4.87
-8.47
-12.22
-15.34
-17.21
-17.61
-16.83
-15.46
-14.15
-13.27
-12.89
-12.84
-12.83
-12.63
-12.16
-11.43
-10.50
-9.48
-8.47
-7.56
-6.79
-6.15
-5.61
-5.15
-4.73
-4.32
-3.90
-3.43
-2.87
-2.22
-1.53
-0.89
-0.39
-0.10
-0.01
-0.07
-0.21
-0.34
-0.43
-0.46
-0.47
-0.50
-0.61
-0.85
-1.20
-1.63
-2.02
-2.28
-2.33
-2.15
-1.80
-1.37
-0.96
-0.66
-0.49
-0.45
-0.48
-0.48
-0.40
-0.22
0.00
0.17
0.19
-0.01
-0.39
-0.84
-1.22
-1.40
-1.33
-1.04
-0.63
-0.22
0.12
0.34
0.47
0.51
0.48
0.40
0.27
0.12
-0.02
-0.10
-0.12
-0.07
0.02
0.13
0.28
0.44
0.59
0.65
0.62
0.53
0.45
0.47
0.64
0.88
1.08
1.12
0.95
0.62
0.24
-0.09
-0.31
-0.42
-0.42
-0.35
-0.21
-0.03
0.17
0.31
0.37
0.34
0.25
0.17
0.13
0.15
0.19
0.19
0.13
0.03
-0.06
-0.08
-0.01
0.09
0.16
0.12
-0.04
-0.23
-0.38
-0.42
-0.38
-0.32
-0.32
-0.39
-0.48
-0.49
-0.38
-0.15
0.09
0.22
0.17
-0.05
-0.34
-0.57
-0.66
-0.60
-0.47
-0.36
-0.36
-0.45
-0.61
-0.75
-0.82
-0.83
-0.78
-0.69
-0.52
-0.24
0.17
0.66
1.09
1.35
1.34
1.03
0.54
0.01
-0.39
-0.56
-0.48
-0.24
0.03
0.21
0.27
0.23
0.18
0.17
0.20
0.22
0.20
0.12
0.04
0.02
0.09
0.19
0.26
0.25
0.16
0.06
0.03
0.08
0.18
0.29
0.35
0.34
0.27
0.16
0.03
-0.10
-0.20
-0.23
-0.18
-0.07
0.05
0.12
0.07
-0.11
-0.37
-0.67
-0.90
-1.02
-1.00
-0.84
-0.61
-0.38
-0.21
-0.13
-0.14
-0.20
-0.25
-0.23
-0.14
0.01
0.16
0.25
0.25
0.14
-0.03
-0.19
-0.26
-0.22
-0.08
0.09
0.25
0.36
0.40
0.38
0.32
0.24
0.16
0.10
0.10
0.15
0.21
0.26
0.25
0.22
0.18
0.18
0.22
0.25
0.20
0.05
-0.16
-0.32
-0.36
-0.25
-0.08
0.03
-0.04
-0.32
-0.70
-1.02
-1.15
-1.01
-0.67
-0.26
0.10
0.33
0.44
0.49
0.52
0.55
0.55
0.49
0.34
0.15
0.00
-0.04
0.09
0.35
0.66
0.88
0.93
0.77
0.43
0.04
-0.29
-0.46
-0.44
-0.29
-0.09
0.05
0.08
0.02
-0.04
-0.02
0.14
0.43
0.77
1.06
1.23
1.23
1.07
0.80
0.46
0.10
-0.24
-0.50
-0.63
-0.60
-0.41
-0.12
0.18
0.39
0.46
0.40
0.29
0.18
0.11
0.05
-0.04
-0.19
-0.38
-0.52
-0.56
-0.46
-0.32
-0.25
-0.33
-0.52
-0.68
-0.67
-0.43
-0.04
0.36
0.60
0.60
0.38
0.07
-0.22
-0.40
-0.47
-0.47
-0.45
-0.45
-0.49
-0.54
-0.58
-0.58
-0.53
-0.44
-0.33
-0.25
-0.21
-0.21
-0.23
-0.23
-0.21
-0.16
-0.11
-0.08
-0.09
-0.14
-0.16
-0.10
0.08
0.37
0.70
0.96
1.05
0.96
0.72
0.41
0.11
-0.14
-0.31
-0.40
-0.40
-0.31
-0.16
0.04
0.23
0.36
0.39
0.31
0.11
-0.19
-0.53
-0.82
-0.96
-0.90
-0.65
-0.30
0.03
0.23
0.29
0.24
0.16
0.09
0.02
-0.07
-0.19
-0.29
-0.30
-0.15
0.16
0.53
0.81
0.84
0.60
0.15
-0.31
-0.62
-0.66
-0.46
-0.16
0.12
0.25
0.24
0.14
0.05
0.05
0.16
0.35
0.55
0.72
0.80
0.78
0.66
0.44
0.16
-0.10
-0.33
-0.51
-0.66
-0.82
-1.00
-1.16
-1.22
-1.12
-0.82
-0.38
0.08
0.43
0.61
0.62
0.54
0.46
0.44
0.48
0.56
0.66
0.74
0.79
0.80
0.75
0.67
0.58
0.52
0.52
0.56
0.62
0.63
0.58
0.48
0.39
0.34
0.31
0.24
0.09
-0.20
-0.56
-0.88
-1.08
-1.12
-1.08
-1.09
-1.24
-1.51
-1.77
-1.79
-1.48
-0.87
-0.17
0.37
0.57
0.44
0.13
-0.13
-0.20
-0.06
0.18
0.40
0.50
0.51
0.47
0.45
0.45
0.47
0.47
0.46
0.47
0.50
0.57
0.63
0.65
0.60
0.50
0.39
0.30
0.28
0.32
0.40
0.47
0.48
0.37
0.12
-0.23
-0.58
-0.83
-0.94
-0.89
-0.74
-0.56
-0.41
-0.31
-0.21
-0.12
-0.02
0.04
0.00
-0.15
-0.38
-0.62
-0.75
-0.71
-0.48
-0.14
0.19
0.39
0.40
0.26
0.05
-0.09
-0.11
0.02
0.22
0.40
0.49
0.46
0.34
0.20
0.10
0.10
0.19
0.33
0.45
0.51
0.48
0.36
0.20
0.04
-0.09
-0.15
-0.15
-0.10
-0.02
0.01
-0.03
-0.17
-0.38
-0.59
-0.71
-0.70
-0.57
-0.39
-0.26
-0.25
-0.36
-0.52
-0.63
-0.64
-0.52
-0.36
-0.22
-0.13
-0.08
0.03
0.25
0.58
0.92
1.13
1.10
0.80
0.32
-0.19
-0.59
-0.78
-0.79
-0.67
-0.52
-0.38
-0.24
-0.05
0.19
0.47
0.71
0.84
0.85
0.78
0.70
0.66
0.66
0.63
0.48
0.21
-0.15
-0.51
-0.78
-0.91
-0.88
-0.74
-0.54
-0.33
-0.19
-0.12
-0.09
-0.04
0.10
0.33
0.57
0.70
0.64
0.41
0.10
-0.12
-0.15
0.02
0.29
0.54
0.66
0.63
0.47
0.27
0.09
-0.05
-0.16
-0.26
-0.36
-0.46
-0.53
-0.56
-0.53
-0.47
-0.40
-0.35
-0.34
-0.33
-0.29
-0.17
0.04
0.30
0.54
0.69
0.71
0.62
0.49
0.38
0.34
0.36
0.42
0.43
0.39
0.30
0.20
0.12
0.08
0.07
0.07
0.07
0.06
0.04
-0.03
-0.15
-0.31
-0.48
-0.61
-0.67
-0.67
-0.62
-0.55
-0.46
-0.34
-0.19
-0.03
0.11
0.17
0.12
0.01
-0.12
-0.18
-0.16
-0.11
-0.07
-0.07
-0.07
-0.00
0.19
0.49
0.79
0.93
0.81
0.45
-0.04
-0.47
-0.70
-0.67
-0.47
-0.23
-0.08
-0.07
-0.14
-0.20
-0.15
0.05
0.35
0.62
0.79
0.78
0.64
0.46
0.32
0.29
0.35
0.46
0.54
0.55
0.47
0.34
0.17
0.02
-0.09
-0.14
-0.14
-0.07
0.04
0.15
0.21
0.14
-0.09
-0.42
-0.75
-0.97
-0.99
-0.85
-0.61
-0.42
-0.35
-0.40
-0.52
-0.64
-0.71
-0.69
-0.60
-0.42
-0.17
0.11
0.38
0.55
0.59
0.50
0.34
0.19
0.09
0.05
0.05
0.09
0.16
0.24
0.32
0.35
0.31
0.18
0.03
-0.09
-0.10
0.03
0.25
0.53
0.77
0.93
0.98
0.90
0.71
0.43
0.11
-0.18
-0.37
-0.42
-0.35
-0.22
-0.13
-0.15
-0.32
-0.56
-0.77
-0.86
-0.79
-0.60
-0.39
-0.23
-0.16
-0.12
-0.03
0.18
0.47
0.76
0.94
0.92
0.71
0.39
0.06
-0.20
-0.35
-0.40
-0.39
-0.34
-0.25
-0.13
-0.02
0.03
-0.04
-0.23
-0.49
-0.72
-0.81
-0.70
-0.40
-0.00
0.40
0.72
0.90
0.94
0.88
0.76
0.61
0.48
0.41
0.44
0.55
0.72
0.86
0.92
0.82
0.57
0.20
-0.21
-0.55
-0.77
-0.82
-0.75
-0.64
-0.58
-0.62
-0.73
-0.84
-0.84
-0.70
-0.40
-0.04
0.26
0.42
0.37
0.15
-0.15
-0.42
-0.59
-0.62
-0.56
-0.46
-0.37
-0.33
-0.32
-0.30
-0.23
-0.12
0.03
0.20
0.37
0.51
0.60
0.61
0.52
0.31
0.02
-0.29
-0.54
-0.66
-0.60
-0.37
-0.06
0.24
0.42
0.42
0.23
-0.08
-0.41
-0.65
-0.73
-0.61
-0.32
0.03
0.33
0.47
0.42
0.22
-0.00
-0.14
-0.12
0.05
0.29
0.51
0.66
0.76
0.82
0.84
0.81
0.70
0.54
0.38
0.31
0.39
0.58
0.76
0.80
0.61
0.23
-0.24
-0.64
-0.88
-0.94
-0.87
-0.74
-0.59
-0.44
-0.30
-0.20
-0.16
-0.24
-0.42
-0.64
-0.82
-0.89
-0.82
-0.65
-0.44
-0.29
-0.22
-0.23
-0.23
-0.15
0.03
0.26
0.45
0.53
0.45
0.27
0.10
0.01
0.06
0.21
0.37
0.47
0.47
0.37
0.23
0.07
-0.04
-0.10
-0.07
0.04
0.20
0.37
0.47
0.47
0.37
0.20
0.04
-0.06
-0.08
-0.05
0.02
0.11
0.18
0.23
0.24
0.19
0.09
-0.04
-0.12
-0.14
-0.07
0.03
0.14
0.22
0.28
0.36
0.43
0.49
0.47
0.36
0.20
0.03
-0.07
-0.08
-0.05
-0.04
-0.10
-0.24
-0.37
-0.42
-0.36
-0.20
-0.02
0.12
0.18
0.16
0.10
0.05
0.02
0.02
0.06
0.15
0.29
0.47
0.64
0.70
0.62
0.35
-0.02
-0.39
-0.61
-0.62
-0.43
-0.14
0.09
0.12
-0.08
-0.44
-0.83
-1.09
-1.15
-1.05
-0.85
-0.65
-0.49
-0.35
-0.20
-0.04
0.12
0.24
0.29
0.28
0.25
0.23
0.21
0.16
0.06
-0.06
-0.13
-0.07
0.11
0.36
0.53
0.51
0.25
-0.18
-0.67
-1.06
-1.25
-1.23
-1.04
-0.75
-0.45
-0.20
-0.01
0.11
0.16
0.18
0.18
0.18
0.19
0.22
0.26
0.31
0.35
0.35
0.29
0.15
-0.05
-0.23
-0.30
-0.19
0.09
0.42
0.66
0.67
0.47
0.13
-0.19
-0.36
-0.35
-0.22
-0.01
0.23
0.50
0.81
1.10
1.28
1.27
1.04
0.65
0.21
-0.21
-0.57
-0.84
-1.02
-1.08
-0.98
-0.68
-0.23
0.26
0.65
0.86
0.84
0.64
0.35
0.04
-0.22
-0.39
-0.43
-0.35
-0.14
0.15
0.45
0.67
0.74
0.63
0.36
0.01
-0.30
-0.46
-0.41
-0.17
0.15
0.43
0.57
0.55
0.41
0.22
0.03
-0.13
-0.26
-0.33
-0.33
-0.20
0.04
0.33
0.56
0.61
0.44
0.12
-0.22
-0.45
-0.51
-0.42
-0.27
-0.17
-0.19
-0.31
-0.49
-0.62
-0.63
-0.51
-0.31
-0.10
0.07
0.20
0.33
0.52
0.75
0.97
1.09
1.02
0.75
0.36
-0.01
-0.24
-0.26
-0.14
0.01
0.04
-0.11
-0.39
-0.65
-0.76
-0.63
-0.31
0.05
0.30
0.37
0.29
0.16
0.06
0.00
-0.05
-0.12
-0.21
-0.26
-0.24
-0.13
-0.00
0.07
0.04
-0.11
-0.29
-0.43
-0.47
-0.38
-0.18
0.05
0.26
0.40
0.44
0.42
0.35
0.28
0.26
0.31
0.44
0.59
0.68
0.63
0.40
0.02
-0.43
-0.83
-1.14
-1.34
-1.44
-1.46
-1.37
-1.14
-0.79
-0.40
-0.09
0.07
0.11
0.12
0.22
0.44
0.71
0.91
0.95
0.81
0.55
0.26
-0.00
-0.21
-0.34
-0.39
-0.32
-0.13
0.14
0.40
0.58
0.61
0.46
0.15
-0.25
-0.66
-0.99
-1.14
-1.06
-0.76
-0.31
0.16
0.52
0.68
0.63
0.40
0.11
-0.13
-0.23
-0.16
0.03
0.23
0.35
0.34
0.22
0.06
-0.08
-0.17
-0.24
-0.30
-0.36
-0.39
-0.35
-0.23
-0.05
0.12
0.23
0.29
0.34
0.42
0.56
0.72
0.82
0.82
0.69
0.49
0.30
0.19
0.18
0.23
0.26
0.24
0.16
0.08
0.08
0.18
0.33
0.46
0.51
0.47
0.38
0.33
0.35
0.41
0.44
0.35
0.12
-0.19
-0.47
-0.62
-0.62
-0.55
-0.50
-0.56
-0.75
-0.98
-1.17
-1.21
-1.12
-0.95
-0.77
-0.65
-0.58
-0.53
-0.46
-0.37
-0.28
-0.22
-0.21
-0.20
-0.16
-0.03
0.19
0.46
0.71
0.85
0.82
0.62
0.28
-0.09
-0.38
-0.46
-0.25
0.24
0.89
1.53
1.98
2.14
2.00
1.66
1.24
0.87
0.62
0.47
0.37
0.27
0.12
-0.10
-0.36
-0.59
-0.74
-0.75
-0.66
-0.52
-0.42
-0.39
-0.42
-0.45
-0.44
-0.35
-0.20
-0.06
0.03
0.06
0.03
-0.06
-0.20
-0.38
-0.55
-0.67
-0.69
-0.56
-0.33
-0.08
0.07
0.07
-0.11
-0.39
-0.65
-0.80
-0.77
-0.58
-0.31
-0.07
0.06
0.09
0.07
0.10
0.22
0.41
0.56
0.57
0.41
0.10
-0.21
-0.41
-0.41
-0.24
-0.01
0.19
0.28
0.32
0.38
0.51
0.67
0.75
0.62
0.26
-0.22
-0.61
-0.72
-0.48
-0.02
0.47
0.80
0.86
0.71
0.45
0.18
-0.03
-0.17
-0.24
-0.26
-0.26
-0.24
-0.22
-0.21
-0.21
-0.22
-0.24
-0.28
-0.33
-0.39
-0.45
-0.48
-0.49
-0.46
-0.40
-0.32
-0.20
-0.04
0.16
0.36
0.49
0.48
0.35
0.15
-0.00
-0.02
0.10
0.29
0.45
0.49
0.39
0.21
0.03
-0.10
-0.16
-0.19
-0.21
-0.21
-0.13
0.05
0.30
0.54
0.70
0.70
0.54
0.25
-0.11
-0.46
-0.75
-0.91
-0.91
-0.77
-0.54
-0.29
-0.11
-0.01
0.05
0.12
0.24
0.41
0.57
0.65
0.63
0.53
0.41
0.33
0.31
0.33
0.37
0.38
0.38
0.35
0.31
0.23
0.08
-0.17
-0.51
-0.88
-1.18
-1.34
-1.28
-1.05
-0.72
-0.38
-0.06
0.24
0.55
0.87
1.15
1.29
1.19
0.83
0.29
-0.27
-0.69
-0.86
-0.74
-0.40
0.05
0.48
0.81
0.95
0.90
0.71
0.44
0.19
0.04
0.00
0.06
0.15
0.23
0.27
0.25
0.20
0.14
0.06
-0.02
-0.12
-0.24
-0.37
-0.47
-0.51
-0.48
-0.37
-0.19
0.01
0.19
0.31
0.33
0.25
0.10
-0.11
-0.33
-0.55
-0.76
-0.97
-1.14
-1.23
-1.14
-0.85
-0.37
0.17
0.61
0.84
0.82
0.62
0.34
0.07
-0.16
-0.37
-0.57
-0.75
-0.86
-0.89
-0.84
-0.76
-0.70
-0.66
-0.63
-0.55
-0.40
-0.20
0.02
0.22
0.37
0.52
0.69
0.88
1.03
1.07
0.92
0.59
0.17
-0.20
-0.36
-0.25
0.08
0.50
0.84
0.98
0.95
0.83
0.73
0.71
0.71
0.65
0.47
0.18
-0.13
-0.36
-0.46
-0.44
-0.41
-0.44
-0.56
-0.73
-0.85
-0.86
-0.73
-0.50
-0.26
-0.07
0.02
-0.00
-0.10
-0.24
-0.39
-0.51
-0.59
-0.59
-0.46
-0.20
0.20
0.67
1.11
1.42
1.53
1.45
1.25
1.04
0.86
0.73
0.62
0.48
0.31
0.16
0.07
0.09
0.20
0.34
0.41
0.36
0.18
-0.07
-0.30
-0.46
-0.49
-0.40
-0.19
0.05
0.26
0.34
0.23
-0.06
-0.43
-0.77
-0.98
-1.05
-1.06
-1.10
-1.19
-1.28
-1.26
-1.04
-0.65
-0.23
0.07
0.16
0.06
-0.13
-0.28
-0.31
-0.20
0.03
0.36
0.77
1.21
1.59
1.78
1.65
1.19
0.55
-0.06
-0.39
-0.36
-0.02
0.46
0.86
1.04
0.98
0.73
0.41
0.10
-0.17
-0.37
-0.52
-0.62
-0.68
-0.71
-0.72
-0.72
-0.69
-0.59
-0.39
-0.13
0.14
0.31
0.30
0.12
-0.17
-0.45
-0.60
-0.52
-0.23
0.21
0.65
0.94
0.98
0.75
0.30
-0.22
-0.65
-0.87
-0.84
-0.62
-0.33
-0.08
0.06
0.10
0.11
0.15
0.23
0.34
0.40
0.39
0.30
0.14
-0.03
-0.19
-0.31
-0.41
-0.49
-0.56
-0.62
-0.66
-0.69
-0.69
-0.65
-0.55
-0.38
-0.16
0.06
0.22
0.28
0.24
0.12
0.01
-0.02
0.04
0.17
0.29
0.33
0.24
0.06
-0.12
-0.21
-0.14
0.07
0.31
0.46
0.41
0.16
-0.20
-0.53
-0.69
-0.62
-0.38
-0.09
0.10
0.12
0.01
-0.13
-0.18
-0.11
0.05
0.22
0.29
0.24
0.12
-0.00
-0.06
-0.03
0.08
0.22
0.36
0.48
0.54
0.50
0.33
0.02
-0.35
-0.67
-0.78
-0.60
-0.16
0.40
0.88
1.12
1.06
0.78
0.41
0.07
-0.13
-0.17
-0.11
0.01
0.10
0.12
0.09
-0.00
-0.10
-0.16
-0.15
-0.06
0.14
0.41
0.71
0.96
1.06
0.97
0.70
0.35
0.05
-0.07
0.01
0.24
0.53
0.82
1.08
1.33
1.53
1.61
1.52
1.25
0.92
0.74
0.89
1.42
2.26
3.16
3.88
4.26
4.28
4.08
3.86
3.80
4.02
4.51
5.17
5.84
6.36
6.62
6.59
6.40
6.30
6.64
7.75
9.81
12.71
15.95
18.74
20.21
19.67
16.89
12.14
6.09
-0.43
-6.66
-12.09
-16.44
-19.63
-21.71
-22.77
-22.96
-22.43
-21.40
-20.09
-18.68
-17.29
-15.95
-14.59
-13.06
-11.24
-9.11
-6.81
-4.64
-2.91
-1.78
-1.20
-0.94
-0.70
-0.25
0.42
1.19
1.85
2.24
2.28
2.04
1.64
1.26
1.06
1.11
1.42
1.82
2.12
2.16
1.88
1.45
1.13
1.15
1.61
2.34
2.97
3.04
2.26
0.58
-1.68
-3.95
-5.62
-6.28
-5.86
-4.78
-3.71
-3.36
-4.09
-5.74
-7.64
-8.87
-8.69
-6.88
-3.86
-0.58
1.87
2.54
0.92
-2.90
-8.03
-12.73
-14.68
-11.71
-2.80
11.10
27.02
40.96
49.37
50.63
45.57
36.75
27.06
18.40
11.15
4.63
-1.91
-8.54
-14.61
-19.27
-22.04
-23.06
-22.74
-21.33
-18.73
-14.63
-8.99
-2.41
4.00
9.00
11.74
12.11
10.64
8.12
5.29
2.58
0.25
-1.53
-2.61
-2.98
-2.83
-2.63
-2.90
-4.03
-6.11
-8.89
-11.74
-13.84
-14.38
-12.85
-9.34
-4.58
0.28
4.13
6.34
7.01
6.79
6.42
6.31
6.33
6.01
4.89
2.91
0.47
-1.76
-3.21
-3.69
-3.43
-2.90
-2.57
-2.61
-2.87
-2.98
-2.61
-1.66
-0.37
0.83
1.54
1.58
1.06
0.31
-0.32
-0.64
-0.68
-0.62
-0.66
-0.90
-1.27
-1.60
-1.72
-1.54
-1.12
-0.61
-0.15
0.18
0.36
0.44
0.40
0.23
-0.12
-0.62
-1.17
-1.65
-1.98
-2.19
-2.40
-2.73
-3.24
-3.88
-4.54
-5.13
-5.62
-6.06
-6.47
-6.83
-7.07
-7.17
-7.15
-7.17
-7.40
-7.96
-8.87
-10.02
-11.28
-12.53
-13.76
-15.00
-16.34
-17.86
-19.62
-21.72
-24.25
-27.29
-30.85
-34.82
-38.95
-42.93
-46.60
-49.99
-53.40
-57.29
-62.06
-67.84
-74.44
-81.33
-87.91
-93.65
-98.33
-102.10
-105.49
-109.14
-113.53
-118.44
-122.80
-124.79
-122.34
-113.88
-98.99
-78.57
-54.65
-29.80
-6.32
14.46
32.58
49.43
67.29
88.45
114.20
144.17
176.20
207.11
233.81
254.41
268.69
277.78
283.27
286.51
288.33
289.27
289.90
290.83
292.14
292.82
290.50
281.92
264.11
235.53
196.56
149.06
95.58
38.70
-18.85
-73.73
-121.83
-158.90
-181.93
-190.49
-187.17
-176.58
-163.61
-151.64
-141.85
-133.72
-126.17
-118.61
-111.25
-104.69
-99.26
-94.67
-90.14
-84.92
-78.65
-71.56
-64.35
-57.86
-52.61
-48.67
-45.60
-42.70
-39.36
-35.31
-30.76
-26.26
-22.41
-19.58
-17.72
-16.45
-15.22
-13.64
-11.58
-9.24
-7.03
-5.29
-4.21
-3.70
-3.48
-3.20
-2.63
-1.69
-0.53
0.58
1.38
1.68
1.50
1.01
0.42
-0.04
-0.27
-0.27
-0.12
0.06
0.16
0.09
-0.16
-0.51
-0.87
-1.11
-1.15
-0.97
-0.64
-0.24
0.12
0.40
0.58
0.69
0.75
0.79
0.80
0.77
0.68
0.52
0.30
0.03
-0.26
-0.53
-0.75
-0.88
-0.91
-0.86
-0.75
-0.62
-0.49
-0.38
-0.34
-0.39
-0.58
-0.92
-1.36
-1.83
-2.21
-2.46
-2.56
-2.54
-2.46
-2.34
-2.22
-2.12
-2.04
-1.99
-1.92
-1.74
-1.36
-0.76
-0.04
0.62
1.06
1.25
1.34
1.53
1.99
2.70
3.48
4.09
4.33
4.22
3.92
3.63
3.53
3.64
3.83
3.98
4.00
3.89
3.73
3.60
3.56
3.54
3.38
2.93
2.06
0.78
-0.80
-2.47
-4.03
-5.37
-6.44
-7.25
-7.84
-8.22
-8.38
-8.30
-8.00
-7.49
-6.82
-6.06
-5.28
-4.58
-4.04
-3.73
-3.60
-3.58
-3.54
-3.38
-3.01
-2.45
-1.73
-0.97
-0.31
0.11
0.20
0.01
-0.31
-0.53
-0.41
0.14
1.10
2.29
3.51
4.58
5.42
6.02
6.39
6.53
6.41
5.97
5.25
4.35
3.48
