1660327301.00
64.000000
-0.00
-0.00
-0.00
-0.00
-0.00
-0.00
-0.00
-0.00
-0.00
-0.00
0.00
0.01
0.01
-0.00
-0.03
-0.05
-0.05
0.00
0.13
0.36
0.66
1.01
1.37
1.72
2.06
2.40
2.79
3.24
3.80
4.42
5.06
5.66
6.20
6.68
7.15
7.68
8.31
9.14
10.09
11.04
11.88
12.56
13.14
13.76
14.65
15.96
17.91
20.32
22.90
25.38
27.58
29.57
31.68
34.32
37.81
42.54
48.15
54.10
59.83
64.97
69.58
74.14
79.34
85.71
93.76
103.00
112.62
121.73
129.77
136.75
143.30
150.75
157.77
166.64
177.95
191.79
206.97
220.57
228.25
225.36
208.53
176.87
132.76
80.05
23.07
-34.94
-92.44
-149.16
-205.23
-260.37
-313.74
-363.87
-409.83
-450.91
-486.50
-515.74
-537.23
-549.22
-549.96
-538.37
-514.21
-478.67
-433.88
-382.45
-327.02
-269.84
-212.63
-156.66
-102.95
-52.37
-5.90
35.58
71.43
101.35
125.50
144.38
158.69
169.15
176.37
180.75
182.57
182.07
179.51
175.23
169.65
163.18
156.15
148.81
141.30
133.69
126.02
118.33
110.69
103.16
95.80
88.68
81.83
75.25
68.95
62.95
57.25
51.86
46.78
42.03
37.59
33.45
29.61
26.07
22.81
19.83
17.11
14.67
12.48
10.54
8.83
7.35
6.07
4.97
4.05
3.27
2.62
2.09
1.65
1.30
1.01
0.79
0.61
0.48
0.37
0.30
0.25
0.21
0.19
0.19
0.19
0.21
0.24
0.27
0.30
0.34
0.38
0.43
0.47
0.52
0.57
0.62
0.67
0.73
0.80
0.86
0.93
1.02
1.10
1.20
1.32
1.44
1.58
1.73
1.91
2.10
2.32
2.56
2.82
3.12
3.44
3.79
4.18
4.60
5.06
5.55
6.08
6.65
7.27
7.93
8.63
9.37
10.17
11.01
11.89
12.82
13.80
14.84
15.94
17.11
18.33
19.60
20.89
22.15
23.31
24.27
24.92
25.13
24.79
23.78
22.05
19.58
16.41
12.59
8.29
3.69
-0.99
-5.53
-9.72
-13.36
-16.34
-18.57
-20.06
-20.84
-21.04
-20.75
-20.09
-19.15
-18.01
-16.71
-15.32
-13.87
-12.41
-11.02
-9.71
-8.49
-7.33
-6.16
-4.93
-3.63
-2.27
-0.88
0.43
1.59
2.65
3.69
4.81
6.15
7.72
9.47
11.28
12.85
14.03
14.83
15.46
16.20
17.31
18.86
20.76
22.78
24.42
25.45
26.10
26.88
28.52
31.61
36.36
42.54
49.52
56.14
61.51
65.22
67.21
67.60
66.32
62.73
55.37
44.91
30.69
11.98
-11.78
-40.60
-73.49
-108.03
-140.43
-166.20
-181.41
-184.49
-176.35
-160.15
-140.08
-119.83
-101.62
-86.11
-73.03
-61.93
-53.00
-46.51
-42.40
-40.04
-38.18
-35.61
-31.63
-26.44
-21.00
-16.83
-15.08
-16.17
-19.64
-24.32
-28.69
-31.28
-30.99
-27.29
-20.33
-10.82
0.15
11.31
21.50
29.84
35.91
39.63
41.22
41.00
39.45
37.12
34.60
32.49
31.24
31.05
31.84
33.29
34.99
36.53
37.69
38.40
38.70
38.58
37.95
36.65
34.60
31.89
28.76
25.51
22.33
19.16
15.76
11.75
6.78
0.63
-6.72
-15.03
-23.78
-32.12
-39.00
-43.38
-44.53
-42.32
-37.25
-30.32
-22.64
-15.03
-7.92
-1.28
5.11
11.35
17.32
22.68
26.97
29.78
30.80
29.83
26.73
21.64
14.97
7.57
0.59
-4.80
-7.82
-8.33
-6.82
-4.20
-1.44
0.75
2.01
2.32
1.82
0.63
-1.19
-3.75
-7.20
-11.68
-17.24
-23.59
-30.11
-35.73
-39.12
-38.98
-34.48
-25.69
-13.67
-0.28
12.38
22.52
29.14
32.15
32.10
29.84
26.23
22.00
17.71
13.85
10.77
8.66
7.49
6.98
6.78
6.50
5.90
4.84
3.27
1.23
-1.19
-3.79
-6.33
-8.58
-10.41
-11.89
-13.25
-14.80
-16.90
-19.80
-23.71
-28.61
-34.14
-39.39
-43.03
-43.51
-39.65
-31.20
-19.08
-5.17
8.30
19.56
27.72
32.84
35.63
36.90
37.30
37.16
36.61
35.69
34.46
33.00
31.33
29.45
27.32
24.91
22.22
19.33
16.26
13.08
9.81
6.55
3.38
0.36
-2.60
-5.74
-9.38
-13.80
-19.08
-25.12
-31.63
-38.24
-44.41
-49.38
-52.20
-51.77
-47.36
-38.90
-27.24
-13.95
-0.84
10.59
19.58
26.10
30.57
33.53
35.38
36.36
36.56
36.02
34.82
33.09
31.01
28.84
26.81
25.08
23.68
22.45
21.15
19.54
17.44
14.83
11.76
8.37
4.83
1.33
-1.97
-4.92
-7.56
-10.06
-12.81
-16.29
-20.89
-26.62
-32.83
-38.20
-41.05
-39.90
-34.11
-24.19
-11.67
1.47
13.49
23.33
30.71
35.85
39.05
40.49
40.27
38.60
35.94
32.94
30.28
28.29
26.92
25.77
24.36
22.36
19.83
17.06
14.38
11.95
9.63
7.12
4.10
0.53
-3.40
-7.30
-10.85
-13.88
-16.49
-18.99
-21.75
-25.17
-29.56
-34.97
-41.04
-46.93
-51.36
-52.91
-50.39
-43.27
-31.90
-17.52
-1.93
13.04
25.85
35.65
42.18
45.66
46.61
45.61
43.27
40.21
36.95
33.94
31.46
29.63
28.36
27.47
26.75
25.94
24.81
23.14
20.78
17.68
13.97
9.90
5.82
2.01
-1.30
-4.11
-6.59
-9.12
-12.15
-16.11
-21.18
-27.10
-33.11
-37.98
-40.34
-39.07
-33.70
-24.69
-13.30
-1.27
9.82
18.79
25.20
29.09
30.75
30.58
28.95
26.20
22.76
19.07
15.57
12.58
10.29
8.68
7.58
6.70
5.64
4.09
1.91
-0.80
-3.71
-6.38
-8.52
-10.04
-11.16
-12.22
-13.61
-15.67
-18.60
-22.45
-26.94
-31.50
-35.12
-36.68
-35.16
-30.12
-21.90
-11.58
-0.63
9.53
17.91
24.03
27.77
29.20
28.47
25.84
21.82
17.15
12.63
8.91
6.33
4.87
4.24
4.05
3.94
3.62
2.86
1.50
-0.52
-3.11
-6.08
-9.13
-11.99
-14.49
-16.61
-18.53
-20.58
-23.16
-26.46
-30.28
-33.84
-35.89
-35.15
-30.71
-22.58
-11.74
0.17
11.37
20.55
27.14
31.20
33.16
33.41
32.19
29.70
26.23
22.28
18.54
15.60
13.80
13.07
13.01
13.09
12.81
11.89
10.24
8.01
5.49
3.00
0.72
-1.32
-3.30
-5.41
-7.84
-10.68
-13.92
-17.56
-21.55
-25.63
-29.22
-31.35
-30.89
-26.98
-19.51
-9.31
2.11
12.98
21.90
28.19
31.87
33.41
33.34
32.02
29.68
26.53
22.96
19.53
16.80
15.16
14.58
14.62
14.59
13.83
11.94
8.96
5.27
1.38
-2.25
-5.47
-8.36
-11.18
-14.06
-17.04
-20.05
-23.04
-26.11
-29.47
-33.16
-36.83
-39.52
-40.02
-37.22
-30.77
-21.23
-10.01
1.16
10.78
17.93
22.39
24.36
24.28
22.63
19.92
16.67
13.47
10.81
8.99
8.05
7.79
7.87
7.97
7.82
7.19
5.98
4.21
2.06
-0.21
-2.31
-4.11
-5.62
-7.06
-8.63
-10.43
-12.44
-14.61
-17.01
-19.82
-23.17
-26.87
-30.26
-32.20
-31.54
-27.53
-20.20
-10.46
0.19
10.13
18.02
23.14
25.44
25.41
23.83
21.51
19.12
17.08
15.57
14.61
14.14
14.03
14.16
14.35
14.44
14.25
13.67
12.74
11.56
10.34
9.22
8.24
7.35
6.45
5.48
4.39
3.17
1.71
-0.17
-2.62
-5.63
-8.77
-11.21
-11.94
-10.09
-5.37
1.78
10.20
18.37
24.84
28.61
29.38
27.55
24.04
19.96
16.25
13.43
11.51
10.05
8.41
6.05
2.89
-0.61
-3.61
-5.34
-5.60
-4.98
-4.80
-6.52
-10.98
-17.95
-26.07
-33.42
-38.28
-39.81
-38.24
-34.60
-30.54
-27.92
-28.59
-33.96
-44.36
-58.50
-73.36
-84.90
-89.25
-84.05
-69.16
-46.45
-18.95
10.28
38.80
64.87
87.05
103.77
113.03
112.73
101.39
79.28
49.42
17.70
-8.46
-22.44
-21.02
-5.72
17.95
42.89
63.52
77.70
86.67
93.27
99.72
106.61
113.04
118.06
121.82
125.80
132.07
142.19
156.36
173.23
190.41
205.39
216.33
222.78
225.68
226.88
228.22
230.47
232.83
233.14
228.79
218.19
201.67
181.71
162.06
146.24
136.20
131.62
130.23
128.89
124.82
116.62
104.44
89.49
73.17
56.38
39.29
21.69
3.46
-15.05
-33.09
-49.91
-65.21
-79.39
-93.32
-107.97
-124.03
-141.64
-160.46
-179.79
-198.86
-216.97
-233.60
-248.46
-261.46
-272.64
-281.93
-288.95
-292.93
-292.89
-288.06
-278.27
-264.11
-246.58
-226.57
-204.38
-179.80
-152.84
-124.58
-97.75
-76.38
-64.67
-65.53
-79.71
-105.95
-141.69
-183.92
-229.42
-274.57
-315.26
-347.22
-366.74
-371.70
-361.91
-338.68
-304.03
-259.97
-208.58
-152.67
-96.29
-44.48
-2.06
27.92
45.20
52.22
52.84
50.69
48.09
45.81
43.49
40.60
36.95
32.79
28.45
24.02
19.18
13.56
6.96
-0.37
-7.83
-14.61
-20.17
-24.53
-28.31
-32.60
-38.36
-45.93
-54.53
-62.29
-66.78
-65.87
-58.61
-45.56
-28.67
-10.59
6.21
19.94
29.74
35.52
37.62
36.68
33.60
29.50
25.57
22.72
21.26
20.67
19.86
17.66
13.48
7.67
1.41
-3.84
-6.95
-7.61
-6.34
-4.13
-2.01
-0.70
-0.55
-1.67
-4.17
-8.20
-13.87
-20.86
-28.17
-34.09
-36.56
-34.04
-26.08
-13.68
1.01
15.48
27.74
36.81
42.63
45.66
46.32
44.82
41.29
36.14
30.27
24.92
21.33
20.22
21.52
24.28
26.88
27.41
24.29
16.75
5.22
-8.66
-22.42
-33.44
-39.78
-40.69
-36.86
-30.05
-22.44
-15.96
-11.78
-10.12
-10.48
-11.85
-13.07
-12.98
-10.61
-5.30
3.08
13.88
25.65
36.41
44.18
47.64
46.63
42.13
35.90
29.74
24.89
21.72
19.94
18.94
18.23
17.68
17.55
18.30
20.25
23.29
26.67
29.19
29.44
26.37
19.65
9.87
-1.58
-12.84
-21.85
-26.78
-26.37
-20.16
-8.79
6.11
22.15
36.90
48.48
56.06
59.97
61.37
61.59
61.54
61.36
60.45
57.92
53.18
46.38
38.42
30.57
23.69
17.81
11.96
4.74
-4.90
-17.04
-30.53
-43.45
-53.78
-60.28
-62.90
-62.80
-61.98
-62.52
-65.68
-71.34
-77.86
-82.45
-82.14
-74.77
-59.72
-38.08
-12.24
14.88
40.49
62.39
79.10
89.92
94.98
95.25
92.56
89.19
87.35
88.46
92.61
98.61
104.32
107.47
106.40
100.62
90.82
78.68
66.29
55.67
48.31
44.83
44.88
47.20
49.84
50.56
47.34
38.87
25.17
7.86
-10.03
-24.67
-32.66
-32.05
-23.05
-7.82
10.31
28.13
43.43
55.37
64.11
70.19
73.95
75.47
74.72
71.86
67.35
61.79
55.59
48.82
41.17
32.21
21.63
9.40
-4.27
-19.00
-34.43
-50.24
-66.14
-81.80
-96.67
-109.93
-120.50
-127.24
-129.26
-126.22
-118.46
-106.83
-92.46
-76.41
-59.38
-41.76
-23.59
-4.83
14.60
34.45
54.08
72.34
87.74
98.83
104.68
105.30
101.58
95.07
87.55
80.51
75.04
71.71
70.60
71.37
73.41
75.91
78.05
79.13
78.69
76.47
72.40
66.46
58.52
48.38
35.82
20.88
4.12
-13.14
-29.00
-41.37
-48.57
-49.78
-45.22
-35.88
-23.07
-8.07
8.04
24.25
39.52
52.71
62.83
69.21
71.79
71.06
67.94
63.45
58.45
53.46
48.57
43.52
37.93
31.48
24.12
16.10
7.70
-0.94
-10.03
-20.05
-31.44
-44.20
-57.77
-71.04
-82.66
-91.42
-96.35
-96.78
-92.26
-82.70
-68.54
-50.90
-31.45
-12.03
5.89
21.58
35.05
46.70
56.99
66.03
73.70
79.77
84.08
86.61
87.42
86.55
84.08
80.14
75.07
69.42
63.78
58.57
53.92
49.60
45.14
40.05
33.96
26.66
18.09
8.39
-2.07
-12.60
-22.34
-30.58
-37.12
-42.53
-47.88
-54.18
-61.66
-69.36
-75.26
-77.11
-73.28
-63.52
-49.03
-32.00
-14.88
0.32
12.38
20.85
25.86
27.84
27.29
24.71
20.61
15.52
10.01
4.65
-0.07
-3.86
-6.68
-8.83
-10.88
-13.61
-17.80
-23.95
-32.09
-41.57
-51.29
-59.99
-66.65
-70.79
-72.62
-72.90
-72.64
-72.77
-73.89
-75.99
-78.47
-79.98
-78.77
-73.02
-61.45
-43.83
-21.16
4.46
30.35
53.94
73.15
86.73
94.27
96.06
93.00
86.47
78.13
69.58
62.04
56.02
51.30
47.17
42.89
37.99
32.48
26.78
21.38
16.59
12.36
8.33
4.13
-0.35
-4.78
-8.59
-11.26
-12.79
-13.86
-15.44
-18.23
-22.02
-25.47
-26.56
-23.46
-15.41
-3.08
11.72
26.84
40.71
52.72
63.13
72.45
80.92
88.18
93.53
96.41
96.85
95.58
93.89
93.02
93.76
96.04
98.93
100.85
99.98
94.72
84.15
68.43
49.06
28.86
11.39
-0.11
-4.03
-1.37
4.21
7.41
3.18
-11.40
-36.10
-67.58
-100.65
-130.04
-151.83
-164.27
-167.70
-163.89
-155.31
-144.37
-133.04
-122.53
-113.26
-104.96
-96.97
-88.53
-79.09
-68.50
-57.04
-45.35
-34.22
-24.46
-16.80
-11.79
-9.61
-9.98
-12.11
-14.79
-16.72
-17.00
-15.52
-12.95
-10.59
-9.73
-11.24
-15.36
-21.61
-29.12
-36.93
-44.18
-50.20
-54.49
-56.62
-56.11
-52.45
-45.20
-34.17
-19.70
-2.76
15.10
32.10
46.59
57.47
64.32
67.29
66.88
63.80
58.83
52.81
46.57
40.65
35.02
28.88
21.02
10.30
-3.49
-19.21
-34.51
-46.46
-52.65
-52.04
-45.50
-35.54
-25.64
-19.29
-18.96
-25.50
-37.93
-53.78
-69.76
-82.59
-89.67
-89.47
-81.60
-66.74
-46.51
-23.32
-0.05
20.45
35.95
45.41
49.18
48.66
45.73
42.02
38.42
35.04
31.51
27.52
23.16
19.07
16.12
14.99
15.74
17.83
20.34
22.41
23.58
24.05
24.56
26.18
29.84
35.86
43.50
50.83
55.16
53.80
45.10
29.16
8.11
-14.46
-34.48
-48.45
-54.14
-50.97
-39.91
-23.15
-3.68
15.25
30.78
41.12
45.89
46.19
44.04
41.65
40.59
41.26
42.86
43.77
42.15
36.56
26.41
12.03
-5.45
-24.42
-43.06
-59.44
-71.82
-78.86
-80.07
-76.08
-68.82
-61.08
-55.69
-54.52
-57.75
-63.88
-70.43
-75.04
-76.43
-74.67
-70.80
-65.98
-60.84
-55.24
-48.59
-40.40
-30.63
-19.74
-8.39
2.86
13.76
24.17
33.91
42.48
49.14
53.18
54.27
52.63
49.11
44.84
40.92
38.12
36.74
36.71
37.72
39.45
41.68
44.31
47.18
49.84
51.40
50.52
45.70
35.89
21.07
2.60
-17.02
-34.76
-47.91
-54.80
-55.09
-49.52
-39.59
-27.04
-13.45
-0.14
12.04
22.59
31.42
38.64
44.50
49.13
52.43
54.08
53.56
50.41
44.38
35.59
24.50
11.75
-1.99
-16.14
-30.06
-42.92
-53.54
-60.62
-63.16
-61.01
-55.20
-47.71
-40.92
-36.72
-35.98
-38.33
-42.59
-47.28
-51.12
-53.21
-52.99
-50.07
-44.20
-35.33
-23.78
-10.28
4.03
17.94
30.42
40.82
48.97
55.11
59.64
62.95
65.20
66.29
66.00
64.12
60.66
55.89
50.18
43.85
37.13
30.18
23.36
17.37
13.12
11.32
11.97
13.98
15.28
13.52
6.99
-4.54
-19.56
-35.15
-48.05
-55.56
-56.39
-50.75
-40.04
-26.17
-11.01
4.05
18.18
30.93
42.02
51.10
57.69
61.21
61.19
57.42
50.03
39.50
26.53
11.95
-3.34
-18.44
-32.58
-45.26
-56.39
-66.21
-75.08
-83.01
-89.38
-92.96
-92.44
-87.13
-77.66
-66.07
-55.27
-47.97
-45.57
-47.53
-51.60
-54.68
-53.89
-47.49
-35.22
-18.10
2.05
23.10
42.98
59.88
72.48
80.08
82.79
81.48
77.61
72.95
69.15
67.44
68.38
71.75
76.63
81.58
85.02
85.65
82.75
76.38
67.28
56.57
45.33
34.33
23.96
14.30
5.27
-3.37
-12.12
-21.79
-33.30
-47.17
-62.90
-78.55
-91.01
-96.90
-93.73
-80.88
-59.88
-33.94
-6.85
18.05
38.53
53.70
63.78
69.61
72.20
72.49
71.07
68.23
63.92
57.87
49.78
39.50
27.27
13.86
0.41
-11.99
-22.83
-32.56
-42.49
-54.30
-69.07
-86.60
-105.20
-122.08
-134.43
-140.24
-138.98
-131.49
-119.58
-105.24
-90.21
-75.57
-61.70
-48.38
-35.01
-20.89
-5.52
11.10
28.43
45.38
60.61
72.77
80.70
83.77
81.97
76.14
67.87
59.33
52.70
49.58
50.62
55.42
62.98
72.10
81.80
91.40
100.17
107.14
111.08
110.85
105.94
96.77
84.47
70.41
55.74
41.10
26.84
13.32
1.09
-9.29
-17.68
-24.50
-30.67
-36.92
-43.31
-48.90
-52.22
-51.86
-47.33
-39.28
-29.39
-19.82
-12.57
-8.99
-9.54
-13.73
-20.44
-28.19
-35.72
-42.34
-47.99
-53.07
-57.97
-62.68
-66.69
-69.27
-69.87
-68.64
-66.55
-65.26
-66.49
-71.41
-80.02
-91.00
-101.92
-109.86
-112.15
-106.99
-93.91
-73.82
-48.97
-22.51
1.91
20.90
32.04
34.61
29.99
21.37
12.93
8.62
10.96
20.39
35.35
52.94
69.83
83.12
90.85
92.19
87.42
77.73
64.90
50.85
37.11
24.43
12.57
0.70
-12.04
-25.87
-39.92
-52.57
-61.97
-66.76
-66.53
-61.83
-53.82
-43.77
-32.65
-20.90
-8.47
4.82
18.90
33.01
45.74
55.21
59.78
58.84
53.25
45.32
37.99
33.84
34.02
38.01
44.05
50.07
54.59
57.23
58.42
58.91
59.00
58.28
55.88
50.99
43.44
33.94
23.96
15.14
8.81
5.57
4.98
5.72
5.72
2.66
-5.24
-18.51
-35.65
-53.16
-66.33
-70.87
-64.70
-49.10
-28.70
-9.89
1.32
1.66
-8.32
-24.66
-41.57
-53.73
-57.95
-53.83
-43.34
-29.59
-15.74
-4.25
3.17
5.43
1.94
-7.28
-21.30
-38.18
-55.28
-69.86
-79.91
-84.62
-84.44
-80.66
-74.79
-68.02
-60.87
-53.14
-44.01
-32.45
-17.62
0.61
21.36
42.85
62.85
79.46
91.78
100.07
105.41
108.99
111.31
111.87
109.43
102.68
91.02
75.11
56.80
38.56
22.63
10.34
1.75
-4.13
-8.87
-14.05
-20.84
-29.76
-40.53
-52.09
-62.78
-70.62
-73.81
-71.28
-63.05
-50.19
-34.52
-18.17
-3.32
7.96
13.83
12.97
5.11
-8.52
-25.21
-41.46
-53.98
-60.84
-62.03
-59.28
-55.27
-52.57
-52.76
-56.00
-61.14
-66.14
-68.79
-67.47
-61.54
-51.57
-39.13
-26.18
-14.66
-5.98
-0.83
0.87
-0.04
-2.12
-3.64
-2.93
1.05
8.48
18.56
29.78
40.52
49.49
56.13
60.54
63.27
64.91
65.83
66.10
65.58
64.22
62.28
60.45
59.86
61.74
66.99
75.48
85.85
95.54
101.49
101.15
93.35
78.80
59.92
40.09
22.68
10.16
3.56
2.34
4.63
7.86
9.50
7.91
2.93
-4.13
-10.99
-15.26
-15.41
-11.14
-3.48
5.77
14.53
21.07
24.23
23.61
19.45
12.49
3.83
-5.35
-13.89
-20.77
-25.14
-26.21
-23.33
-16.17
-5.16
8.22
21.34
30.86
33.61
27.58
12.90
-8.10
-31.43
-52.57
-67.90
-75.55
-75.73
-70.31
-62.01
-53.59
-47.29
-44.55
-45.86
-50.66
-57.48
-64.10
-68.02
-67.27
-61.01
-49.87
-35.79
-21.36
-8.86
0.38
6.27
9.72
12.01
14.26
17.06
20.44
24.12
27.79
31.43
35.51
40.79
47.91
56.79
66.20
73.81
76.83
73.07
62.02
45.34
26.53
9.82
-1.26
-4.99
-1.82
6.14
16.02
25.07
31.22
33.11
29.95
21.40
7.64
-10.40
-30.88
-51.27
-68.77
-81.16
-87.31
-87.35
-82.43
-74.12
-64.02
-53.50
-43.88
-36.49
-32.66
-33.28
-38.23
-45.90
-53.39
-57.33
-55.24
-46.73
-33.88
-20.65
-11.27
-8.48
-12.43
-20.70
-29.44
-34.99
-35.16
-29.64
-19.57
-6.59
7.74
22.10
35.14
45.27
50.76
50.42
44.36
34.36
23.68
16.07
14.52
20.16
31.97
47.24
62.55
74.98
83.01
86.71
87.47
87.22
87.73
89.99
94.00
98.78
102.54
103.05
98.13
86.30
67.31
42.57
14.95
-11.68
-33.42
-47.32
-52.02
-48.07
-37.64
-23.92
-10.26
0.61
7.22
9.51
8.60
6.20
3.91
2.60
2.10
1.31
-1.42
-7.57
-17.87
-31.83
-47.73
-63.10
-75.55
-83.51
-86.77
-86.37
-84.09
-81.64
-80.08
-79.46
-78.99
-77.30
-72.97
-64.98
-53.18
-38.52
-23.08
-9.56
-0.48
2.65
-0.05
-6.90
-15.13
-21.79
-24.50
-21.97
-14.12
-1.97
12.54
27.09
39.39
47.78
51.71
51.75
49.36
46.33
44.13
43.64
44.97
47.65
50.90
53.90
56.13
57.54
58.74
60.61
63.93
68.75
74.19
78.60
80.25
78.06
71.79
61.89
48.90
33.09
14.44
-6.73
-29.26
-50.82
-68.30
-78.72
-80.18
-72.62
-57.73
-38.45
-18.07
0.60
15.68
26.38
32.73
35.23
34.38
30.43
23.37
13.06
-0.52
-17.11
-36.13
-56.75
-78.09
-99.20
-119.03
-136.37
-149.91
-158.49
-161.45
-158.82
-151.36
-140.15
-126.18
-110.09
-92.24
-73.15
-53.82
-35.81
-20.86
-10.21
-4.01
-1.21
0.02
1.71
5.34
11.73
20.99
32.90
46.98
62.48
78.32
93.00
105.00
113.11
116.93
116.93
114.27
110.45
106.78
104.10
102.65
102.09
101.66
100.40
97.41
92.17
84.79
76.05
67.19
59.54
53.98
50.61
48.80
47.49
45.60
42.34
37.26
30.11
20.70
9.02
-4.64
-19.35
-33.52
-45.21
-52.60
-54.68
-51.53
-44.40
-35.31
-26.47
-19.74
-16.05
-15.35
-16.72
-18.85
-20.62
-21.57
-21.98
-22.58
-24.01
-26.41
-29.18
-31.38
-32.21
-31.55
-30.27
-30.00
-32.63
-39.63
-51.43
-67.08
-84.28
-99.76
-110.04
-112.28
-105.24
-89.81
-69.02
-47.30
-29.18
-17.97
-14.75
-18.16
-24.93
-31.02
-32.72
-27.67
-15.19
3.74
26.88
51.28
73.81
91.55
102.35
105.14
100.23
89.28
74.90
59.93
46.56
35.77
27.24
19.70
11.68
2.12
-9.34
-22.40
-36.34
-50.28
-63.39
-74.80
-83.77
-89.54
-91.57
-89.45
-82.98
-72.05
-56.58
-36.76
-13.17
12.68
38.29
60.32
75.34
80.88
76.38
63.58
46.13
28.52
14.68
6.93
5.55
9.16
15.48
22.26
27.84
31.47
33.31
34.13
35.04
37.07
40.87
46.53
53.41
60.41
66.09
69.12
68.68
64.58
57.37
48.00
37.42
26.23
14.65
2.86
-8.62
-18.56
-25.35
-27.57
-24.80
-18.19
-10.35
-4.77
-4.96
-13.50
-31.41
-57.75
-89.59
-122.36
-150.73
-170.00
-177.32
-172.53
-157.98
-137.58
-115.38
-94.46
-76.47
-61.87
-50.51
-42.14
-36.56
-33.63
-33.09
-34.55
-37.43
-41.08
-44.67
-47.15
-47.39
-44.27
-37.03
-25.45
-9.90
8.69
28.98
49.49
68.78
85.66
99.40
109.75
116.83
121.00
122.53
121.48
117.70
111.02
101.58
90.00
77.45
65.40
55.22
47.77
43.18
40.85
39.62
38.25
35.58
30.83
23.57
13.72
1.60
-12.05
-25.96
-38.40
-47.44
-51.47
-49.77
-43.01
-33.22
-23.46
-17.02
-16.51
-23.13
-36.32
-53.91
-72.53
-88.48
-98.44
-100.38
-94.07
-81.29
-65.38
-50.30
-39.29
-33.68
-32.48
-32.89
-31.62
-26.32
-16.60
-3.98
8.82
18.99
24.50
24.42
18.91
8.92
-3.98
-17.60
-29.49
-37.43
-40.07
-37.41
-30.83
-22.51
-14.60
-8.51
-4.49
-1.92
0.29
3.09
7.03
12.18
18.25
24.86
31.60
38.21
44.51
50.46
56.28
62.50
69.82
78.78
89.29
100.18
109.29
114.08
112.60
104.43
91.04
75.35
60.64
49.50
42.99
40.63
40.85
41.79
41.89
40.14
36.15
30.08
22.50
14.23
6.23
-0.65
-5.85
-9.28
-11.34
-12.59
-13.34
-13.27
-11.49
-7.01
0.51
10.03
19.09
24.35
22.86
13.18
-3.80
-25.03
-46.19
-63.08
-73.13
-76.18
-74.52
-72.00
-72.58
-78.80
-90.77
-106.12
-120.82
-130.54
-131.92
-123.34
-105.08
-78.98
-47.82
-14.91
16.42
43.32
63.91
77.66
85.33
88.64
89.50
89.35
88.76
87.48
84.96
80.78
75.14
68.85
63.03
58.75
56.51
56.00
56.14
55.28
51.71
44.12
32.08
16.41
-0.90
-17.07
-29.51
-36.78
-39.42
-40.04
-42.35
-49.64
-63.00
-80.34
-96.81
-106.37
-104.04
-87.74
-59.05
-22.45
16.19
51.36
79.21
97.97
107.81
110.18
107.18
100.93
93.14
84.84
76.24
66.89
56.12
43.49
29.03
13.36
-2.63
-18.21
-33.06
-47.53
-62.43
-78.76
-97.32
-118.17
-140.20
-160.88
-176.67
-184.13
-181.49
-169.78
-152.98
-136.68
-125.64
-121.70
-122.77
-123.86
-119.39
-105.68
-82.23
-51.41
-16.95
17.74
50.36
79.61
104.38
123.31
135.00
138.79
135.61
128.14
120.09
114.98
114.87
119.80
128.12
137.45
145.79
152.15
156.64
159.97
162.95
166.02
169.19
172.00
173.34
171.61
164.93
151.85
131.99
106.37
77.18
46.93
17.63
-9.64
-34.48
-56.43
-74.44
-86.82
-91.91
-88.88
-78.34
-62.30
-43.51
-24.78
-8.28
4.58
13.17
17.43
17.70
14.57
8.79
1.22
-7.24
-15.62
-22.92
-28.16
-30.53
-29.63
-25.56
-18.91
-10.50
-1.20
8.14
16.70
23.44
27.26
27.20
22.94
15.05
4.94
-5.67
-15.45
-23.97
-31.81
-40.22
-50.61
-63.90
-80.38
-99.63
-120.66
-141.95
-161.37
-176.38
-184.47
-183.86
-174.26
-157.20
-135.69
-113.33
-93.26
-77.30
-65.72
-57.58
-51.36
-45.44
-38.44
-29.22
-16.95
-1.23
17.57
38.25
58.81
76.99
90.80
99.02
101.34
98.15
90.20
78.39
63.84
48.05
32.85
20.02
10.72
4.96
1.59
-1.12
-4.54
-8.99
-13.60
-16.71
-16.79
-13.15
-6.34
1.99
9.70
14.81
16.18
13.68
8.17
0.95
-6.80
-14.42
-21.85
-29.36
-37.14
-45.01
-52.41
-58.66
-63.16
-65.72
-66.64
-66.75
-67.23
-69.36
-74.15
-81.93
-92.12
-103.23
-113.03
-118.89
-118.43
-110.02
-93.42
-70.07
-43.00
-16.09
6.91
23.49
33.14
37.18
38.14
38.70
40.81
45.39
52.41
61.27
71.11
80.91
89.56
95.98
99.43
99.77
97.67
94.34
91.10
88.91
88.04
88.21
88.88
89.58
90.02
89.92
88.92
86.48
82.12
75.66
67.28
57.53
47.10
36.76
27.32
19.55
14.02
10.62
8.30
5.19
-0.80
-11.05
-25.34
-41.70
-56.92
-67.69
-71.63
-67.94
-57.48
-42.28
-24.95
-8.09
6.06
15.96
21.02
21.65
19.19
15.42
12.10
10.34
10.24
10.82
10.32
6.85
-1.00
-13.60
-30.19
-49.24
-69.16
-88.85
-107.99
-126.73
-144.96
-161.83
-175.53
-183.70
-184.26
-176.14
-159.79
-137.16
-111.19
-85.11
-61.70
-42.73
-28.65
-18.75
-11.49
-5.07
2.16
11.39
23.34
38.17
55.44
74.03
92.12
107.44
117.94
122.46
121.25
115.99
109.16
103.19
99.61
98.60
99.19
99.74
98.70
95.17
89.10
81.32
73.22
66.50
62.78
63.30
68.46
77.47
88.25
97.75
102.57
100.05
89.12
70.70
47.45
23.06
1.15
-15.51
-25.42
-28.47
-25.59
-18.55
-9.59
-0.98
5.31
8.13
7.30
3.55
-1.94
-7.96
-13.76
-19.14
-24.31
-29.69
-35.61
-42.21
-49.38
-56.89
-64.56
-72.53
-81.27
-91.41
-103.36
-116.83
-130.52
-142.21
-149.26
-149.40
-141.57
-126.44
-106.38
-84.84
-65.24
-49.83
-39.07
-31.67
-25.33
-17.83
-7.78
5.03
19.98
36.12
52.58
68.57
83.31
95.89
105.39
111.12
112.84
110.85
105.81
98.50
89.67
79.95
69.99
60.43
51.85
44.60
38.63
33.54
28.72
23.75
18.65
13.86
10.06
7.74
7.07
7.82
9.60
11.94
14.29
15.79
15.28
11.54
3.89
-7.21
-20.01
-31.92
-40.38
-43.74
-41.76
-35.49
-26.74
-17.48
-9.46
-3.93
-1.52
-2.11
-4.82
-8.21
-10.70
-11.20
-9.60
-6.90
-4.87
-5.54
-10.72
-21.64
-38.72
-61.32
-87.40
-113.31
-134.16
-144.88
-141.77
-123.85
-93.48
-55.55
-15.88
20.62
51.07
74.78
92.75
106.76
118.95
131.55
146.80
166.55
191.71
221.71
254.31
286.07
313.27
332.90
343.36
344.61
337.87
325.05
308.00
288.04
265.71
240.87
213.09
182.19
148.69
113.79
79.05
45.96
15.30
-13.04
-40.03
-67.30
-96.79
-130.18
-168.09
-209.13
-249.54
-283.88
-306.78
-315.32
-310.69
-298.24
-285.82
-281.11
-289.12
-310.94
-343.80
-382.33
-419.87
-449.79
-466.54
-466.52
-448.73
-414.94
-368.87
-314.73
-255.94
-194.61
-132.06
-69.95
-11.12
40.74
81.97
110.23
125.07
127.83
121.16
108.54
94.01
81.82
75.82
78.45
89.70
106.90
125.60
141.39
151.87
157.63
161.72
168.01
179.22
195.56
214.60
232.38
244.97
249.81
246.23
235.16
218.24
196.97
172.37
145.07
115.67
85.11
54.64
25.78
0.10
-20.97
-36.24
-45.02
-47.37
-44.35
-37.99
-30.91
-25.81
-24.76
-28.74
-37.46
-49.29
-61.70
-71.73
-76.79
-75.24
-66.85
-52.77
-35.26
-17.15
-1.24
10.15
15.59
14.84
8.95
0.03
-9.32
-16.80
-21.20
-22.76
-22.97
-23.81
-26.93
-33.00
-41.63
-51.68
-61.82
-70.84
-77.90
-82.59
-85.07
-86.11
-86.93
-88.80
-92.36
-97.28
-102.32
-106.09
-107.98
-108.73
-110.19
-114.37
-122.11
-132.20
-141.35
-145.31
-140.36
-124.78
-99.65
-68.56
-36.54
-8.58
11.74
23.03
26.05
23.12
17.22
11.06
6.54
4.64
5.51
8.74
13.59
19.16
24.43
28.33
29.95
28.68
24.54
18.22
10.93
4.01
-1.51
-5.32
-7.82
-9.91
-12.53
-16.34
-21.40
-27.12
-32.39
-35.82
-36.23
-32.95
-26.18
-16.78
-6.01
4.95
15.35
24.86
33.44
40.94
47.09
51.47
53.75
53.90
52.27
49.45
46.17
43.04
40.42
38.44
36.96
35.73
34.38
32.64
30.34
27.45
24.04
20.18
15.97
11.46
6.75
1.97
-2.71
-7.25
-11.75
-16.47
-21.68
-27.38
-33.09
-37.90
-40.63
-40.22
-36.07
-28.20
-17.34
-4.69
8.24
19.92
29.15
35.23
38.13
38.37
36.85
34.46
31.87
29.43
27.25
25.39
23.90
22.79
21.92
20.92
19.24
16.40
12.29
7.27
2.12
-2.27
-5.30
-6.90
-7.57
-8.14
-9.44
-11.97
-15.77
-20.43
-25.27
-29.41
-31.92
-31.93
-28.82
-22.41
-13.17
-2.14
9.29
19.74
28.27
34.53
38.66
41.08
42.21
42.35
41.72
40.57
39.27
38.26
37.90
38.23
38.98
39.62
39.53
38.30
35.78
32.15
27.75
22.90
17.76
12.33
6.49
0.11
-6.90
-14.58
-22.95
-31.83
-40.88
-49.35
-56.10
-59.85
-59.48
-54.49
-45.12
-32.40
-17.82
-2.97
10.75
22.41
31.54
38.11
42.43
44.93
46.11
46.32
45.80
44.69
43.16
41.41
39.74
38.48
37.71
37.33
36.91
35.94
33.99
30.93
26.94
22.41
17.68
12.94
8.27
3.89
0.12
-2.72
-4.75
-6.68
-9.62
-14.35
-20.53
-26.47
-29.63
-27.83
-20.34
-8.34
5.55
18.50
28.59
35.33
39.46
42.10
44.11
45.76
46.81
46.96
46.10
44.41
42.24
39.91
37.58
35.25
32.83
30.27
27.54
24.63
21.53
18.20
14.60
10.74
6.62
2.26
-2.37
-7.32
-12.61
-18.24
-24.15
-30.25
-36.39
-42.21
-47.11
-50.23
-50.65
-47.74
-41.45
-32.47
-22.03
-11.53
-2.11
5.65
11.66
16.13
19.31
21.38
22.38
22.43
21.72
20.64
19.60
18.92
18.71
18.82
18.91
18.56
17.47
15.51
12.78
9.47
5.79
1.87
-2.24
-6.58
-11.13
-15.88
-20.80
-25.92
-31.27
-36.74
-41.87
-45.74
-47.16
-45.00
-38.76
-28.76
-16.20
-2.67
10.27
21.53
30.63
37.39
41.77
43.64
42.86
39.53
34.09
27.39
20.40
13.89
8.18
3.19
-1.41
-5.98
-10.65
-15.31
-19.64
-23.33
-26.14
-28.10
-29.42
-30.50
-31.75
-33.56
-36.13
-39.49
-43.41
-47.36
-50.57
-52.02
-50.71
-45.93
-37.54
-26.21
-13.27
-0.46
10.76
19.45
25.40
28.98
30.65
30.75
29.31
26.28
21.76
16.26
10.62
5.70
2.02
-0.43
-2.17
-3.86
-5.96
-8.45
-10.96
-13.00
-14.27
-14.87
-15.30
-16.26
-18.41
-22.11
-27.21
-33.02
-38.40
-42.03
-42.77
-39.98
-33.72
-24.73
-14.13
-3.09
7.41
16.79
24.77
31.21
35.92
38.64
39.16
37.46
33.93
29.31
24.52
20.31
17.08
14.70
12.67
10.42
7.59
4.18
0.58
-2.64
-5.03
-6.48
-7.32
-8.21
-9.95
-13.10
-17.82
-23.71
-29.90
-35.11
-37.84
-36.61
-30.36
-18.85
-2.96
15.43
33.85
50.02
62.43
70.63
75.08
76.66
76.13
73.93
70.21
65.14
59.08
52.67
46.58
41.23
36.59
32.25
27.64
22.30
16.15
9.48
2.79
-3.42
-8.98
-14.02
-18.95
-24.23
-30.19
-36.88
-44.19
-51.79
-59.10
-65.32
-69.34
-70.02
-66.45
-58.43
-46.59
-32.35
-17.48
-3.66
7.91
16.73
22.72
26.12
27.24
26.47
24.32
21.39
18.34
15.62
13.52
12.02
10.95
10.04
9.06
7.84
6.27
4.35
2.10
-0.46
-3.29
-6.42
-9.87
-13.60
-17.58
-21.65
-25.72
-29.71
-33.70
-37.87
-42.39
-47.27
-52.11
-56.04
-57.78
-56.06
-50.10
-39.93
-26.60
-11.81
2.59
15.12
25.00
32.13
36.78
39.32
40.07
39.34
37.59
35.41
33.40
31.96
31.14
30.64
29.99
28.85
27.11
24.93
22.53
20.06
17.44
14.50
11.03
7.00
2.54
-2.13
-6.75
-11.11
-15.08
-18.65
-21.91
-25.09
-28.50
-32.45
-37.05
-42.03
-46.62
-49.71
-50.09
-46.88
-39.86
-29.60
-17.30
-4.40
7.79
18.35
26.79
32.97
36.88
38.60
38.38
36.69
34.17
31.58
29.56
28.48
28.34
28.85
29.60
30.16
30.31
29.94
29.13
28.06
26.88
25.59
24.11
22.23
19.76
16.61
12.87
8.82
4.78
1.03
-2.35
-5.47
-8.64
-12.27
-16.70
-21.99
-27.79
-33.33
-37.47
-39.00
-37.00
-31.15
-21.94
-10.60
1.30
12.28
21.31
28.09
32.77
35.63
36.90
36.60
34.73
31.48
27.31
22.85
18.67
15.05
11.99
9.29
6.77
4.36
2.10
0.03
-1.90
-3.79
-5.80
-7.99
-10.34
-12.77
-15.14
-17.40
-19.49
-21.48
-23.55
-25.97
-28.98
-32.60
-36.45
-39.71
-41.20
-39.86
-35.04
-26.82
-16.04
-4.06
7.70
18.05
26.36
32.43
36.41
38.50
38.89
37.73
35.28
31.95
28.35
25.09
22.55
20.76
19.40
17.99
16.12
13.62
10.56
7.14
3.57
-0.04
-3.64
-7.20
-10.68
-14.04
-17.30
-20.55
-24.00
-27.94
-32.61
-38.00
-43.76
-49.13
-53.00
-54.24
-52.00
-46.06
-36.95
-25.81
-14.13
-3.29
5.67
12.29
16.59
18.91
19.63
19.12
17.62
15.38
12.73
10.10
7.89
6.33
5.37
4.70
3.95
2.88
1.47
-0.08
-1.58
-2.95
-4.30
-5.85
-7.80
-10.18
-12.92
-15.89
-19.05
-22.55
-26.61
-31.34
-36.54
-41.50
-45.12
-46.14
-43.60
-37.20
-27.52
-15.85
-3.82
7.08
15.91
22.36
26.62
29.15
30.35
30.48
29.70
28.10
25.86
23.25
20.60
18.26
16.44
15.15
14.19
13.16
11.62
9.26
6.02
2.11
-2.07
-6.17
-9.98
-13.41
-16.51
-19.42
-22.25
-25.24
-28.64
-32.73
-37.54
-42.66
-47.21
-49.99
-49.86
-46.14
-38.97
-29.20
-18.20
-7.43
1.96
9.25
14.26
17.15
18.27
18.09
17.06
15.64
14.23
13.15
12.64
12.78
13.49
14.53
15.52
16.07
15.81
14.57
12.35
9.38
5.92
2.27
-1.36
-4.79
-7.87
-10.57
-12.96
-15.35
-18.23
-22.10
-27.30
-33.75
-40.80
-47.29
-51.76
-52.92
-49.98
-42.97
-32.75
-20.72
-8.46
2.71
12.00
19.11
24.11
27.29
28.94
29.42
29.06
28.26
27.37
26.66
26.10
25.56
24.76
23.53
21.83
19.80
17.65
15.48
13.24
10.69
7.58
3.77
-0.60
-5.15
-9.39
-12.88
-15.45
-17.22
-18.64
-20.32
-22.80
-26.24
-30.28
-34.04
-36.27
-35.74
-31.65
-23.86
-12.98
-0.22
12.95
25.22
35.62
43.72
49.50
53.20
55.14
55.64
55.01
53.60
51.84
50.15
48.84
47.97
47.38
46.77
45.86
44.57
42.90
40.93
38.68
36.07
32.95
29.16
24.61
19.35
13.53
7.41
1.36
-4.34
-9.50
-14.16
-18.57
-23.12
-28.19
-33.85
-39.75
-45.03
-48.51
-49.04
-45.89
-39.04
-29.16
-17.52
-5.50
5.75
15.49
23.46
29.65
34.16
37.08
38.46
38.41
37.12
34.89
32.02
28.76
25.17
21.26
16.94
12.22
7.23
2.27
-2.38
-6.47
-9.96
-13.03
-15.95
-19.02
-22.33
-25.79
-29.13
-32.07
-34.46
-36.37
-38.09
-40.03
-42.53
-45.69
-49.20
-52.31
-53.92
-52.90
-48.48
-40.62
-30.08
-18.22
-6.55
3.76
12.07
18.22
22.39
24.73
25.42
24.64
22.70
20.11
17.43
15.10
13.34
12.12
11.27
10.53
9.74
8.78
7.57
6.05
4.24
2.22
0.16
-1.77
-3.49
-5.13
-6.94
-9.26
-12.32
-16.24
-20.95
-26.22
-31.65
-36.55
-40.00
-41.00
-38.73
-32.99
-24.28
-13.81
-3.01
6.81
14.86
20.92
25.13
27.82
29.28
29.74
29.38
28.38
26.95
25.30
23.67
22.26
21.20
20.42
19.68
18.59
16.79
14.10
10.66
6.86
3.12
-0.31
-3.43
-6.49
-9.79
-13.50
-17.69
-22.28
-27.24
-32.58
-38.11
-43.26
-47.03
-48.18
-45.78
-39.60
-30.26
-19.04
-7.37
3.63
13.33
21.49
28.03
32.88
35.94
37.24
36.98
35.59
33.52
31.22
28.98
26.93
25.10
23.44
21.83
20.18
18.38
16.38
14.05
11.29
8.01
4.22
0.11
-4.04
-7.92
-11.40
-14.56
-17.65
-21.03
-25.03
-29.82
-35.29
-41.07
-46.37
-50.13
-51.15
-48.50
-41.83
-31.63
-19.10
-5.89
6.45
16.86
24.98
30.98
35.27
38.26
40.13
40.92
40.72
39.70
38.25
36.78
35.54
34.56
33.64
32.50
30.95
29.05
26.98
25.00
23.19
21.35
19.12
16.08
12.10
7.40
2.58
-1.66
-4.89
-7.16
-9.02
-11.32
-14.86
-20.04
-26.65
-33.89
-40.54
-45.27
-46.93
-44.83
-38.93
-29.82
-18.68
-6.86
4.31
13.92
21.47
26.88
30.24
31.71
31.51
29.89
27.27
24.17
21.16
18.61
16.66
15.09
13.55
11.64
9.19
6.26
3.11
0.11
-2.50
-4.71
-6.76
-9.05
-11.93
-15.54
-19.72
-24.08
-28.15
-31.62
-34.44
-36.81
-39.02
-41.42
-44.25
-47.73
-51.87
-56.43
-60.80
-63.90
-64.47
-61.40
-54.25
-43.39
-30.05
-15.88
-2.42
9.26
18.74
26.17
31.86
36.06
38.84
40.16
40.01
38.68
36.70
34.79
33.56
33.27
33.74
34.44
34.77
34.30
33.02
31.18
29.22
27.42
25.78
24.06
21.90
19.07
15.56
11.69
7.86
4.47
1.72
-0.51
-2.44
-4.43
-6.74
-9.52
-12.83
-16.70
-21.08
-25.75
-30.15
-33.32
-34.16
-31.64
-25.36
-15.65
-3.56
9.52
22.29
33.77
43.39
50.87
56.12
59.15
60.16
59.52
57.85
55.97
54.75
54.94
56.82
60.02
63.40
65.26
63.91
58.28
48.31
34.97
19.89
4.68
-9.58
-22.46
-33.99
-44.26
-53.18
-60.42
-65.67
-68.89
-70.48
-71.17
-71.78
-72.86
-74.66
-77.03
-79.75
-82.63
-85.44
-87.80
-88.96
-87.87
-83.50
-75.28
-63.45
-49.04
-33.67
-18.92
-6.09
4.15
11.58
16.35
18.85
19.56
19.12
18.14
17.18
16.59
16.47
16.67
16.96
17.12
17.07
16.82
16.49
16.14
15.74
15.09
13.88
11.83
8.80
4.94
0.61
-3.73
-7.70
-11.14
-14.15
-17.04
-20.15
-23.80
-28.24
-33.48
-39.14
-44.38
-47.98
-48.62
-45.40
-38.20
-27.83
-15.69
-3.37
7.90
17.37
24.79
30.17
33.60
35.17
35.05
33.49
30.91
27.83
24.73
21.95
19.65
17.75
16.03
14.26
12.31
10.24
8.19
6.29
4.55
2.78
0.77
-1.69
-4.56
-7.74
-10.95
-14.00
-16.86
-19.71
-22.96
-26.99
-31.92
-37.36
-42.33
-45.46
-45.40
-41.39
-33.56
-22.97
-11.23
0.04
9.75
17.52
23.48
27.94
31.06
32.77
32.93
31.57
29.05
26.02
23.15
20.91
19.39
18.36
17.47
16.39
14.92
13.04
10.79
8.23
5.42
2.37
-0.85
-4.19
-7.54
-10.88
-14.28
-18.01
-22.40
-27.62
-33.33
-38.64
-42.15
-42.46
-38.73
-31.01
-20.31
-8.18
3.74
14.34
23.10
30.05
35.42
39.40
42.03
43.28
43.26
42.26
40.74
39.15
37.76
36.61
35.48
33.99
31.76
28.49
24.06
18.58
12.31
5.60
-1.24
-8.05
-14.86
-21.77
-28.91
-36.42
-44.34
-52.63
-61.03
-68.84
-74.94
-77.86
-76.29
-69.58
-58.09
-43.20
-26.88
-11.04
2.96
14.56
23.77
30.90
36.17
39.62
41.17
40.82
38.83
35.67
31.95
28.19
24.65
21.29
17.90
14.30
10.39
6.28
2.21
-1.59
-5.04
-8.21
-11.34
-14.69
-18.40
-22.48
-26.86
-31.53
-36.59
-42.26
-48.55
-55.07
-60.86
-64.48
-64.50
-60.01
-50.99
-38.33
-23.61
-8.48
5.77
18.34
28.98
37.66
44.37
49.05
51.68
52.46
51.83
50.49
49.09
48.09
47.60
47.42
47.20
46.63
45.64
44.31
42.85
41.37
39.78
37.77
34.99
31.20
26.41
20.86
14.93
8.93
2.96
-3.12
-9.64
-17.01
-25.51
-35.12
-45.24
-54.71
-61.86
-64.95
-62.67
-54.68
-41.77
-25.67
-8.46
8.01
22.61
34.87
44.80
52.49
57.90
60.87
61.33
59.50
56.00
51.67
47.34
43.50
40.24
37.23
34.02
30.31
26.08
21.59
17.18
13.13
9.46
5.90
2.08
-2.40
-7.71
-13.79
-20.34
-26.89
-33.00
-38.34
-42.85
-46.71
-50.32
-54.25
-59.07
-65.24
-72.84
-81.39
-89.73
-96.20
-98.99
-96.73
-88.99
-76.47
-60.77
-43.96
-27.89
-13.81
-2.23
6.86
13.70
18.52
21.52
22.94
23.18
22.83
22.56
22.95
24.32
26.57
29.34
32.07
34.21
35.48
35.87
35.63
35.09
34.44
33.62
32.35
30.31
27.30
23.42
19.09
14.84
11.15
8.23
5.92
3.75
1.15
-2.38
-7.10
-12.98
-19.67
-26.55
-32.70
-37.02
-38.34
-35.68
-28.64
-17.58
-3.66
11.44
26.03
38.85
49.26
57.19
62.84
66.41
68.02
67.75
65.88
62.93
59.60
56.53
54.09
52.24
50.62
48.77
46.35
43.33
39.92
36.44
33.16
30.17
27.32
24.36
20.97
16.91
12.12
6.77
1.23
-4.03
-8.70
-12.68
-16.20
-19.69
-23.60
-28.29
-33.91
-40.42
-47.51
-54.50
-60.30
-63.53
-62.93
-57.80
-48.41
-35.97
-22.24
-8.98
2.54
11.75
18.61
23.31
26.00
26.75
25.71
23.32
20.33
17.65
15.99
15.61
16.21
17.08
17.50
17.05
15.75
13.94
12.07
10.40
8.94
7.42
5.51
2.95
-0.31
-4.06
-7.92
-11.47
-14.41
-16.70
-18.60
-20.51
-22.94
-26.27
-30.70
-36.14
-42.10
-47.62
-51.44
-52.13
-48.71
-40.99
-29.79
-16.65
-3.33
8.78
18.97
27.11
33.36
37.77
40.21
40.56
38.90
35.77
32.05
28.67
26.21
24.73
23.86
23.01
21.76
19.99
17.89
15.75
13.77
11.90
9.89
7.38
4.13
0.11
-4.49
-9.24
-13.70
-17.55
-20.80
-23.68
-26.64
-30.18
-34.63
-40.07
-46.20
-52.29
-57.18
-59.53
-58.19
-52.58
-43.07
-30.85
-17.62
-5.02
5.88
14.65
21.44
26.53
30.13
32.24
32.83
32.07
30.38
28.33
26.42
24.89
23.69
22.54
21.21
19.56
17.66
15.68
13.71
11.75
9.63
7.11
4.01
0.36
-3.65
-7.65
-11.25
-14.24
-16.64
-18.80
-21.31
-24.78
-29.60
-35.74
-42.49
-48.61
-52.51
-52.73
-48.49
-39.97
-28.30
-15.20
-2.49
8.50
17.13
23.36
27.52
30.00
31.05
30.90
29.77
27.92
25.72
23.47
21.28
19.16
16.97
14.57
11.90
9.00
6.01
3.06
0.24
-2.48
-5.16
-7.93
-10.86
-14.00
-17.29
-20.65
-23.97
-27.25
-30.59
-34.27
-38.60
-43.71
-49.35
-54.73
-58.63
-59.67
-56.86
-49.87
-39.24
-26.27
-12.63
0.17
11.11
19.78
26.28
30.93
34.07
35.93
36.68
36.44
35.34
33.54
31.20
28.53
25.74
23.01
20.49
18.19
16.04
13.89
11.65
9.21
6.51
3.44
-0.12
-4.17
-8.56
-12.98
-17.07
-20.65
-23.89
-27.29
-31.48
-36.91
-43.48
-50.36
-56.15
-59.25
-58.35
-52.97
-43.64
-31.71
-18.92
-6.80
3.75
12.49
19.62
25.45
30.07
33.33
35.04
35.13
33.90
31.86
29.60
27.55
25.79
24.15
22.37
20.37
18.24
16.19
14.30
12.42
10.25
7.45
3.95
-0.06
-4.18
-8.06
-11.61
-14.96
-18.49
-22.63
-27.64
-33.49
-39.69
-45.21
-48.69
-48.69
-44.21
-35.12
-22.21
-7.02
8.72
23.57
36.66
47.66
56.62
63.69
69.04
72.89
75.65
77.82
79.97
82.43
85.24
88.11
90.78
93.19
95.76
99.30
104.69
112.43
122.11
132.24
140.48
144.29
141.84
132.68
117.93
99.81
80.99
63.76
49.62
39.19
32.39
28.53
26.54
25.18
23.39
20.68
17.44
14.72
13.65
14.73
17.34
19.96
20.73
18.22
11.88
1.89
-11.27
-27.36
-46.42
-68.57
-93.60
-120.73
-148.81
-176.84
-204.53
-232.48
-261.80
-293.19
-325.96
-357.55
-383.99
-401.03
-405.54
-396.46
-374.90
-343.37
-304.94
-262.46
-218.47
-175.23
-134.75
-98.33
-66.04
-36.46
-7.32
23.34
55.92
88.74
118.79
143.19
160.64
171.97
179.55
185.93
192.68
199.93
206.82
212.46
216.53
219.39
221.68
223.67
225.06
225.09
223.02
218.43
211.37
202.15
191.08
178.35
164.19
149.12
134.22
121.17
112.04
108.91
113.05
124.27
140.39
157.51
170.85
176.05
170.53
153.95
127.80
94.33
55.52
12.82
-32.31
-77.52
-119.22
-153.19
-175.94
-186.05
-184.68
-174.95
-160.46
-144.01
-126.92
-109.22
-90.52
-70.67
-50.18
-30.10
-11.68
3.90
15.73
23.24
26.33
25.38
21.36
15.58
9.32
3.20
-3.48
-12.80
-27.52
-49.47
-78.20
-110.34
-140.55
-163.41
-175.25
-174.88
-163.13
-141.79
-113.07
-80.22
-48.32
-24.18
-14.46
-22.47
-45.99
-77.38
-106.64
-125.86
-132.64
-130.55
-126.69
-127.79
-137.32
-154.35
-174.56
-192.09
-201.24
-197.14
-176.27
-137.08
-81.23
-14.55
52.93
109.04
143.12
149.95
132.21
99.90
66.59
44.07
37.91
45.88
59.97
70.89
72.59
64.81
52.35
41.84
38.11
41.94
50.36
59.00
64.70
67.19
68.65
71.75
77.57
84.65
89.64
89.36
82.55
70.55
56.54
44.06
35.56
31.78
31.84
33.86
35.66
35.55
32.71
27.39
20.65
13.80
7.75
2.66
-1.93
-6.57
-11.28
-15.25
-17.21
-16.21
-12.34
-6.94
-2.32
-0.83
-4.00
-11.78
-22.36
-32.54
-38.59
-37.25
-26.74
-7.32
18.61
47.04
73.13
92.30
101.32
99.30
88.15
72.31
57.52
48.98
49.62
59.50
76.20
96.07
115.41
131.01
140.09
140.15
129.43
107.91
78.37
46.28
18.34
0.16
-5.59
0.43
15.15
34.62
55.03
72.80
84.28
85.88
74.99
51.43
18.38
-18.19
-51.26
-75.02
-86.36
-85.01
-72.65
-51.66
-24.40
6.87
39.63
71.06
98.15
118.23
129.46
131.10
123.68
108.59
87.72
62.89
35.31
5.11
-28.77
-67.72
-112.37
-161.30
-210.66
-255.05
-289.22
-310.09
-317.84
-315.59
-307.86
-298.70
-290.45
-283.54
-277.29
-270.72
-263.09
-253.83
-242.25
-227.36
-208.33
-184.91
-157.92
-129.12
-100.66
-74.49
-51.82
-32.98
-17.54
-4.77
6.08
15.43
23.31
29.57
34.08
37.03
38.94
40.54
42.39
44.72
47.31
49.80
51.89
53.69
55.73
58.82
63.68
70.66
79.39
88.77
97.03
102.22
102.88
98.95
92.21
86.16
84.78
90.81
104.30
122.14
139.09
149.59
149.37
136.31
110.52
74.08
30.79
-14.17
-55.05
-86.79
-106.75
-115.42
-116.01
-112.44
-107.22
-100.09
-88.67
-70.40
-44.50
-12.94
20.45
51.72
78.31
99.29
114.45
123.17
124.13
116.06
98.89
74.64
46.96
19.51
-5.58
-28.54
-51.22
-75.57
-102.05
-129.14
-153.94
-173.46
-185.76
-190.40
-188.14
-180.52
-169.36
-156.62
-144.09
-133.03
-123.69
-115.28
-106.17
-94.47
-78.99
-59.71
-38.06
-16.43
2.51
16.75
25.43
29.14
29.44
28.51
28.48
31.11
37.54
48.07
62.04
77.80
92.80
104.12
109.17
106.30
95.17
76.75
52.82
25.67
-2.28
-28.52
-50.50
-65.81
-72.61
-70.13
-59.11
-41.73
-21.22
-1.00
16.02
28.09
34.73
36.52
34.69
30.75
26.11
21.96
19.17
18.20
19.22
22.00
25.94
30.21
33.79
35.79
35.60
33.14
28.75
23.06
16.70
10.21
4.02
-1.34
-5.10
-6.38
-4.61
-0.16
5.37
9.34
8.94
2.43
-10.00
-25.98
-41.71
-53.24
-57.55
-53.30
-40.79
-21.60
1.98
27.24
51.34
71.71
86.47
94.99
98.00
97.30
94.96
92.53
90.50
88.24
84.20
76.52
63.47
44.11
18.75
-10.67
-40.70
-67.06
-85.71
-94.08
-91.94
-81.39
-66.35
-51.27
-39.96
-34.62
-35.38
-40.45
-46.78
-51.08
-50.69
-44.45
-32.74
-17.20
-0.08
16.39
30.27
40.10
44.91
44.33
38.75
29.27
17.51
5.05
-7.14
-18.90
-30.69
-42.85
-54.92
-65.33
-71.96
-73.07
-68.28
-58.92
-47.54
-36.79
-28.46
-22.90
-19.38
-16.86
-14.79
-13.39
-13.26
-14.78
-17.44
-19.83
-19.91
-15.81
-6.45
8.03
26.34
46.53
66.55
84.79
100.22
112.31
120.68
124.92
124.60
119.53
109.96
96.70
80.98
64.16
47.49
31.92
18.07
6.26
-3.50
-11.45
-17.98
-23.55
-28.58
-33.40
-38.23
-43.18
-48.27
-53.36
-58.32
-63.08
-67.76
-72.56
-77.49
-81.93
-84.58
-83.59
-77.22
-64.46
-45.59
-22.08
3.92
30.13
54.61
75.76
92.04
101.93
104.23
98.60
86.12
69.20
50.89
33.86
19.61
8.33
-0.33
-6.50
-9.47
-7.97
-0.95
11.46
27.81
45.64
62.49
76.61
87.15
93.89
96.61
94.92
88.51
77.72
64.08
50.14
39.02
33.23
33.97
40.53
50.51
60.51
67.02
67.42
60.53
46.84
28.16
7.10
-13.70
-32.14
-46.93
-57.59
-64.14
-66.84
-66.13
-62.63
-57.14
-50.67
-44.10
-37.94
-32.12
-26.07
-19.16
-11.14
-2.41
5.94
12.47
15.89
15.55
11.66
5.43
-1.27
-6.38
-8.18
-5.89
0.25
9.10
19.13
28.93
37.53
44.38
49.15
51.42
50.68
46.57
39.22
29.49
18.89
9.20
1.86
-2.36
-3.64
-2.84
-1.14
0.37
0.97
0.39
-1.38
-4.23
-8.03
-12.62
-17.75
-23.08
-28.29
-33.20
-37.94
-42.80
-47.94
-53.13
-57.43
-59.40
-57.50
-50.57
-38.30
-21.37
-1.33
19.79
39.85
57.07
70.30
79.19
84.23
86.44
87.02
86.98
86.81
86.55
85.97
84.77
82.78
79.96
76.33
71.93
66.84
61.30
55.62
50.29
45.74
42.29
40.02
38.82
38.46
38.52
38.54
38.04
36.72
34.70
32.68
31.97
34.02
39.88
49.46
61.25
72.42
79.41
78.76
67.86
45.28
11.13
-32.85
-83.31
-135.70
-185.06
-227.11
-259.26
-280.99
-293.54
-299.02
-299.36
-295.80
-288.71
-278.04
-263.74
-246.01
-225.38
-202.48
-177.98
-152.47
-126.56
-101.02
-76.85
-55.23
-37.45
-24.40
-16.09
-11.31
-7.73
-2.62
6.18
