1660932539.00
64.000000
-0.00
-0.00
-0.00
-0.00
-0.00
-0.00
-0.00
-0.00
-0.00
-0.00
0.00
0.01
0.01
-0.00
-0.03
-0.05
-0.05
0.00
0.13
0.36
0.66
1.01
1.37
1.72
2.06
2.40
2.79
3.25
3.81
4.44
5.10
5.73
6.32
6.89
7.51
8.25
9.15
10.29
11.55
12.81
13.95
14.93
15.82
16.82
18.17
20.00
22.53
25.50
28.65
31.65
34.39
36.98
39.80
43.30
47.79
53.60
60.31
67.34
74.12
80.37
86.30
92.53
99.83
108.69
119.49
131.54
143.90
155.66
166.43
176.55
186.95
199.12
211.71
226.64
244.10
263.85
284.63
303.80
317.55
321.81
313.49
291.62
258.04
215.90
168.96
120.29
71.79
24.38
-21.36
-64.81
-105.31
-142.33
-176.40
-208.81
-241.33
-275.43
-311.42
-347.78
-381.08
-406.89
-421.05
-421.42
-408.69
-386.19
-358.50
-329.72
-302.26
-276.69
-252.46
-228.90
-206.13
-184.87
-165.89
-149.36
-134.69
-120.86
-106.96
-92.70
-78.43
-65.04
-53.35
-43.76
-36.06
-29.56
-23.44
-17.16
-10.58
-4.03
1.99
7.01
10.84
13.63
15.73
17.53
19.31
21.16
22.98
24.58
25.79
26.51
26.77
26.69
26.42
26.10
25.81
25.55
25.26
24.88
24.35
23.69
22.92
22.12
21.33
20.58
19.85
19.15
18.49
17.88
17.32
16.81
16.34
15.90
15.51
15.18
14.91
14.70
14.50
14.24
13.89
13.44
12.93
12.44
12.04
11.75
11.57
11.44
11.30
11.14
10.96
10.74
10.47
10.09
9.58
8.98
8.39
7.91
7.63
7.54
7.56
7.57
7.47
7.22
6.81
6.32
5.86
5.51
5.32
5.27
5.26
5.14
4.84
4.33
3.69
3.00
2.35
1.75
1.18
0.63
0.13
-0.31
-0.66
-0.94
-1.21
-1.57
-2.04
-2.64
-3.34
-4.07
-4.77
-5.39
-5.88
-6.24
-6.51
-6.74
-7.00
-7.35
-7.80
-8.30
-8.77
-9.14
-9.30
-9.23
-8.93
-8.46
-7.92
-7.41
-6.98
-6.66
-6.41
-6.16
-5.80
-5.27
-4.57
-3.74
-2.88
-2.11
-1.51
-1.09
-0.83
-0.62
-0.38
-0.05
0.34
0.75
1.10
1.36
1.55
1.71
1.89
2.09
2.27
2.42
2.52
2.64
2.82
3.11
3.47
3.78
3.94
3.88
3.65
3.38
3.24
3.33
3.63
4.03
4.39
4.60
4.65
4.62
4.59
4.65
4.76
4.87
4.87
4.74
4.51
4.25
4.03
3.90
3.81
3.71
3.59
3.47
3.40
3.42
3.52
3.63
3.66
3.56
3.34
3.06
2.82
2.66
2.60
2.62
2.67
2.73
2.80
2.89
3.02
3.16
3.27
3.28
3.13
2.84
2.49
2.19
2.04
2.02
2.04
1.99
1.81
1.54
1.28
1.17
1.24
1.44
1.66
1.76
1.70
1.50
1.26
1.09
1.05
1.17
1.37
1.55
1.59
1.43
1.10
0.73
0.43
0.28
0.31
0.41
0.53
0.60
0.69
0.85
1.14
1.54
1.95
2.26
2.41
2.39
2.25
2.05
1.87
1.75
1.69
1.68
1.71
1.74
1.75
1.70
1.58
1.37
1.10
0.82
0.59
0.48
0.51
0.63
0.78
0.88
0.90
0.86
0.83
0.84
0.92
1.01
1.05
0.99
0.81
0.51
0.20
-0.05
-0.12
0.02
0.36
0.78
1.16
1.37
1.39
1.28
1.14
1.06
1.07
1.11
1.11
1.02
0.85
0.66
0.49
0.38
0.30
0.21
0.07
-0.13
-0.34
-0.50
-0.51
-0.37
-0.10
0.19
0.43
0.57
0.60
0.58
0.52
0.43
0.27
0.06
-0.16
-0.28
-0.24
-0.02
0.29
0.58
0.77
0.86
0.90
0.97
1.10
1.25
1.35
1.36
1.27
1.10
0.90
0.70
0.51
0.35
0.24
0.21
0.26
0.39
0.58
0.79
0.98
1.09
1.07
0.93
0.68
0.43
0.25
0.20
0.26
0.38
0.49
0.54
0.54
0.49
0.40
0.27
0.07
-0.16
-0.38
-0.52
-0.56
-0.49
-0.33
-0.13
0.09
0.24
0.24
0.02
-0.41
-0.93
-1.34
-1.43
-1.11
-0.43
0.43
1.26
1.90
2.28
2.45
2.47
2.37
2.17
1.86
1.47
1.08
0.77
0.63
0.64
0.70
0.70
0.58
0.33
0.06
-0.16
-0.28
-0.33
-0.40
-0.53
-0.71
-0.89
-1.01
-1.03
-0.99
-0.90
-0.79
-0.69
-0.60
-0.56
-0.57
-0.58
-0.51
-0.27
0.13
0.65
1.11
1.40
1.42
1.23
0.93
0.64
0.43
0.33
0.29
0.24
0.12
-0.09
-0.35
-0.58
-0.70
-0.65
-0.41
-0.08
0.27
0.53
0.69
0.75
0.76
0.73
0.63
0.42
0.10
-0.30
-0.67
-0.88
-0.85
-0.56
-0.09
0.39
0.72
0.83
0.73
0.51
0.31
0.23
0.29
0.44
0.60
0.71
0.74
0.74
0.74
0.76
0.78
0.78
0.76
0.75
0.81
0.97
1.17
1.31
1.29
1.09
0.76
0.42
0.17
0.07
0.07
0.12
0.15
0.11
0.01
-0.16
-0.35
-0.53
-0.64
-0.66
-0.57
-0.40
-0.20
-0.01
0.11
0.16
0.12
-0.00
-0.18
-0.33
-0.38
-0.24
0.08
0.53
0.95
1.22
1.22
0.96
0.51
-0.02
-0.49
-0.79
-0.87
-0.75
-0.51
-0.26
-0.09
-0.03
-0.05
-0.10
-0.13
-0.11
-0.08
-0.08
-0.16
-0.30
-0.47
-0.61
-0.67
-0.64
-0.54
-0.41
-0.30
-0.26
-0.28
-0.33
-0.36
-0.32
-0.23
-0.11
-0.04
-0.07
-0.20
-0.41
-0.61
-0.77
-0.82
-0.79
-0.70
-0.57
-0.44
-0.32
-0.22
-0.13
-0.05
0.03
0.06
0.04
-0.03
-0.09
-0.06
0.10
0.34
0.56
0.66
0.60
0.46
0.37
0.43
0.67
0.98
1.28
1.51
1.71
1.89
2.07
2.13
1.99
1.60
1.06
0.53
0.17
0.03
0.06
0.15
0.22
0.24
0.25
0.27
0.30
0.31
0.29
0.25
0.18
0.09
-0.09
-0.40
-0.84
-1.32
-1.72
-1.92
-1.86
-1.59
-1.23
-0.94
-0.81
-0.88
-1.11
-1.45
-1.84
-2.20
-2.50
-2.65
-2.60
-2.27
-1.66
-0.83
0.03
0.72
1.10
1.18
1.06
0.91
0.89
1.05
1.34
1.70
2.06
2.39
2.68
2.92
3.07
3.05
2.86
2.52
2.09
1.64
1.19
0.79
0.45
0.18
-0.01
-0.13
-0.22
-0.31
-0.40
-0.47
-0.46
-0.34
-0.13
0.10
0.30
0.42
0.50
0.56
0.64
0.76
0.90
1.06
1.23
1.38
1.44
1.34
1.05
0.60
0.10
-0.31
-0.52
-0.54
-0.40
-0.22
-0.05
0.07
0.15
0.20
0.21
0.11
-0.11
-0.45
-0.83
-1.15
-1.29
-1.19
-0.86
-0.40
0.05
0.37
0.47
0.36
0.14
-0.04
-0.06
0.09
0.33
0.51
0.48
0.16
-0.36
-0.93
-1.33
-1.43
-1.25
-0.93
-0.68
-0.62
-0.81
-1.19
-1.66
-2.11
-2.51
-2.80
-2.93
-2.83
-2.41
-1.67
-0.71
0.29
1.13
1.68
1.96
2.06
2.13
2.24
2.36
2.37
2.14
1.58
0.66
-0.58
-2.06
-3.72
-5.52
-7.40
-9.28
-11.08
-12.70
-14.12
-15.38
-16.64
-18.11
-19.97
-22.31
-25.07
-28.05
-30.95
-33.51
-35.67
-37.57
-39.58
-42.09
-45.38
-49.45
-54.02
-58.66
-62.99
-66.88
-70.47
-74.12
-78.19
-82.85
-87.97
-93.22
-98.26
-102.89
-107.23
-111.63
-116.61
-122.75
-130.67
-140.96
-153.81
-168.55
-183.24
-194.61
-198.77
-192.36
-173.62
-142.97
-102.63
-55.80
-5.86
44.17
91.67
134.36
170.46
199.04
220.38
235.87
247.57
257.40
266.55
275.31
283.29
289.91
294.77
297.87
299.64
300.85
302.42
305.20
309.69
315.76
322.51
328.19
330.47
326.88
315.36
294.97
266.09
230.35
189.96
146.88
102.06
55.37
6.23
-45.22
-97.14
-145.84
-186.66
-215.68
-231.18
-234.36
-228.67
-218.29
-206.57
-195.18
-184.21
-173.19
-161.94
-150.99
-141.22
-133.18
-126.63
-120.59
-113.89
-105.80
-96.42
-86.56
-77.37
-69.75
-63.97
-59.61
-55.84
-51.79
-46.96
-41.39
-35.57
-30.18
-25.73
-22.41
-20.04
-18.18
-16.41
-14.45
-12.29
-10.11
-8.13
-6.49
-5.18
-4.08
-3.09
-2.19
-1.45
-1.00
-0.84
-0.89
-0.93
-0.77
-0.35
0.16
0.42
0.09
-1.03
-2.78
-4.71
-6.20
-6.77
-6.29
-5.09
-3.86
-3.33
-3.92
-5.53
-7.57
-9.20
-9.73
-8.89
-6.98
-4.64
-2.62
-1.48
-1.43
-2.34
-3.75
-4.67
-3.58
1.25
10.99
25.20
41.27
54.92
61.68
58.90
47.03
29.58
11.52
-2.81
-11.33
-14.49
-14.29
-12.79
-11.11
-9.35
-7.21
-4.72
-2.51
-1.46
-2.17
-4.50
-7.56
-10.15
-11.26
-10.56
-8.47
-5.86
-3.67
-2.48
-2.27
-2.60
-2.88
-2.71
-2.05
-1.21
-0.61
-0.56
-1.14
-2.13
-3.18
-3.96
-4.23
-3.93
-3.18
-2.18
-1.20
-0.47
-0.17
-0.30
-0.77
-1.37
-1.88
-2.16
-2.22
-2.18
-2.22
-2.45
-2.85
-3.32
-3.65
-3.69
-3.41
-2.93
-2.44
-2.13
-2.03
-2.03
-1.93
-1.56
-0.94
-0.23
0.31
0.55
0.48
0.23
-0.03
-0.17
-0.15
0.05
0.48
1.18
2.13
3.13
3.83
3.88
3.12
1.66
-0.10
-1.68
-2.72
-3.13
-3.03
-2.68
-2.29
-1.96
-1.73
-1.57
-1.48
-1.45
-1.40
-1.18
-0.57
0.62
2.39
4.52
6.52
7.86
8.14
7.26
5.52
3.44
1.59
0.34
-0.21
-0.22
0.03
0.33
0.58
0.79
0.97
1.09
1.07
0.83
0.34
-0.35
-1.13
-1.87
-2.44
-2.79
-2.92
-2.84
-2.60
-2.24
-1.84
-1.49
-1.26
-1.19
-1.25
-1.39
-1.53
-1.64
-1.72
-1.78
-1.84
-1.86
-1.79
-1.60
-1.35
-1.14
-1.07
-1.12
-1.16
-0.99
-0.45
0.39
1.28
1.85
1.84
1.24
0.30
-0.62
-1.19
-1.28
-0.97
-0.50
-0.08
0.16
0.19
0.04
-0.22
-0.51
-0.72
-0.62
0.04
1.43
3.48
5.83
7.90
9.14
9.24
8.28
6.63
4.75
2.99
1.46
0.16
-0.92
-1.65
-1.88
-1.52
-0.67
0.34
1.14
1.40
1.03
0.12
-1.11
-2.40
-3.54
-4.38
-4.79
-4.77
-4.38
-3.78
-3.19
-2.77
-2.59
-2.57
-2.61
-2.59
-2.48
-2.29
-2.10
-1.94
-1.85
-1.85
-1.92
-2.03
-2.12
-2.10
-1.87
-1.36
-0.58
0.40
1.43
2.34
2.99
3.31
3.35
3.21
3.04
2.88
2.73
2.44
1.92
1.13
0.18
-0.73
-1.41
-1.82
-1.99
-1.98
-1.74
-1.07
0.25
2.26
4.69
7.00
8.64
9.26
8.88
7.87
6.68
5.64
4.84
4.14
3.33
2.29
1.08
-0.14
-1.17
-1.85
-2.15
-2.12
-1.94
-1.81
-1.90
-2.31
-3.02
-3.88
-4.71
-5.30
-5.57
-5.52
-5.28
-4.96
-4.70
-4.49
-4.28
-3.97
-3.52
-2.95
-2.37
-1.90
-1.59
-1.44
-1.38
-1.36
-1.38
-1.49
-1.69
-1.92
-1.98
-1.65
-0.76
0.68
2.40
3.99
5.05
5.30
4.71
3.45
1.81
0.10
-1.42
-2.55
-3.19
-3.30
-2.95
-2.33
-1.66
-1.14
-0.80
-0.47
0.19
1.53
3.74
6.69
9.92
12.72
14.40
14.52
13.04
10.35
7.14
4.11
1.77
0.30
-0.46
-0.79
-0.99
-1.21
-1.44
-1.63
-1.74
-1.85
-2.10
-2.62
-3.45
-4.47
-5.46
-6.20
-6.57
-6.64
-6.61
-6.66
-6.89
-7.25
-7.60
-7.78
-7.73
-7.51
-7.25
-7.08
-7.08
-7.19
-7.30
-7.29
-7.13
-6.85
-6.57
-6.42
-6.42
-6.51
-6.51
-6.26
-5.71
-4.97
-4.29
-3.91
-3.95
-4.29
-4.61
-4.56
-3.90
-2.64
-1.03
0.64
2.12
3.44
4.80
6.48
8.61
11.08
13.44
15.08
15.43
14.20
11.60
8.24
4.92
2.29
0.51
-0.81
-2.40
-4.97
-8.69
-13.07
-17.08
-19.52
-19.53
-16.84
-11.84
-5.42
1.33
7.42
12.25
15.71
18.07
19.72
20.75
20.89
19.53
16.04
10.22
2.52
-6.01
-13.76
-18.69
-18.39
-10.82
4.45
25.12
45.95
60.35
63.09
53.03
33.97
12.95
-3.15
-10.81
-11.03
-7.85
-5.48
-5.80
-7.90
-9.40
-8.63
-5.86
-3.02
-2.23
-4.28
-8.25
-12.05
-13.63
-12.17
-8.40
-4.17
-1.48
-1.57
-4.34
-8.53
-12.31
-14.12
-13.27
-10.23
-6.34
-3.07
-1.58
-2.19
-4.34
-7.03
-9.30
-10.55
-10.49
-8.88
-5.52
-0.45
5.68
11.54
15.55
16.63
14.75
11.03
7.07
4.06
2.22
0.86
-0.93
-3.56
-6.64
-9.29
-10.74
-10.92
-10.40
-10.01
-10.31
-11.36
-12.84
-14.19
-15.07
-15.42
-15.49
-15.73
-16.53
-18.05
-20.13
-22.35
-24.22
-25.45
-26.18
-26.97
-28.63
-31.83
-36.77
-43.03
-49.71
-55.74
-60.38
-63.53
-65.72
-67.85
-70.80
-75.06
-80.63
-87.05
-93.76
-100.35
-106.89
-113.88
-122.06
-132.08
-144.24
-158.32
-173.57
-188.61
-201.50
-209.86
-211.21
-203.57
-186.04
-159.09
-124.35
-83.92
-39.51
8.06
58.53
111.34
164.62
214.95
258.06
290.41
310.53
319.66
321.00
318.29
314.33
310.31
306.09
301.35
296.44
292.65
291.63
294.47
300.99
309.63
317.85
322.84
322.07
313.74
297.10
272.35
240.58
203.33
162.05
117.57
70.00
19.21
-34.19
-87.97
-138.19
-180.08
-209.69
-225.42
-228.59
-222.82
-212.40
-200.76
-189.53
-178.79
-167.95
-156.77
-145.69
-135.60
-127.14
-120.26
-114.16
-107.78
-100.35
-91.79
-82.68
-74.01
-66.68
-61.06
-56.91
-53.53
-50.06
-45.93
-41.03
-35.76
-30.79
-26.70
-23.71
-21.66
-20.03
-18.34
-16.30
-13.95
-11.60
-9.62
-8.26
-7.51
-7.10
-6.65
-5.78
-4.31
-2.28
0.07
2.47
4.72
6.77
8.72
10.64
12.51
14.11
15.12
15.25
14.39
12.65
10.31
7.68
5.00
2.37
-0.13
-2.43
-4.41
-5.90
-6.80
-7.08
-6.83
-6.21
-5.39
-4.59
-4.00
-3.77
-4.01
-4.63
-5.43
-6.06
-6.25
-5.87
-5.05
-4.10
-3.33
-2.93
-2.87
-2.99
-3.11
-3.16
-3.17
-3.22
-3.32
-3.44
-3.49
-3.37
-3.04
-2.45
-1.68
-0.83
-0.04
0.54
0.85
0.91
0.83
0.78
0.84
1.03
1.27
1.44
1.51
1.47
1.38
1.27
1.13
0.94
0.66
0.33
0.00
-0.21
-0.21
0.05
0.56
1.20
1.78
2.11
2.04
1.54
0.68
-0.37
-1.46
-2.53
-3.58
-4.62
-5.61
-6.42
-6.92
-7.08
-6.99
-6.91
-7.05
-7.53
-8.22
-8.87
-9.22
-9.15
-8.78
-8.32
-7.98
-7.80
-7.67
-7.41
-6.86
-6.02
-4.97
-3.85
-2.74
-1.70
-0.69
0.30
1.30
2.31
3.35
4.44
5.58
6.70
7.65
8.27
8.45
8.19
7.64
7.03
6.60
6.47
6.60
6.77
6.72
6.27
5.45
4.51
3.85
3.80
4.46
5.63
6.82
7.52
7.32
6.09
3.99
1.38
-1.30
-3.61
-5.25
-6.05
-6.00
-5.22
-3.94
-2.45
-1.12
-0.33
-0.37
-1.32
-3.02
-5.00
-6.71
-7.64
-7.56
-6.51
-4.69
-2.30
0.51
3.63
6.85
9.72
11.71
12.32
11.37
9.11
6.13
3.15
0.74
-0.80
-1.53
-1.65
-1.45
-1.13
-0.79
-0.46
-0.18
0.00
-0.02
-0.28
-0.74
-1.23
-1.60
-1.72
-1.63
-1.49
-1.55
-2.00
-2.86
-4.00
-5.15
-6.05
-6.44
-6.21
-5.39
-4.10
-2.59
-1.11
0.06
0.69
0.67
0.04
-1.03
-2.24
-3.23
-3.64
-3.21
-1.85
0.40
3.36
6.82
10.59
14.55
18.52
22.22
25.25
27.09
27.31
25.72
22.51
18.24
13.69
9.60
6.45
4.38
3.22
2.66
2.35
1.99
1.35
0.27
-1.30
-3.24
-5.30
-7.12
-8.42
-9.11
-9.27
-9.12
-8.87
-8.62
-8.43
-8.31
-8.31
-8.49
-8.87
-9.39
-9.87
-10.14
-10.10
-9.69
-8.89
-7.67
-5.98
-3.84
-1.47
0.76
2.46
3.41
3.67
3.54
3.40
3.49
3.86
4.40
4.95
5.43
5.85
6.22
6.47
6.52
6.26
5.68
4.87
3.96
3.03
2.13
1.25
