1660935966.00
64.000000
-0.00
-0.00
-0.00
-0.00
-0.00
-0.00
-0.00
-0.00
-0.00
-0.00
0.00
0.01
0.01
-0.00
-0.03
-0.05
-0.05
0.00
0.13
0.36
0.66
1.01
1.37
1.72
2.06
2.40
2.79
3.23
3.79
4.43
5.11
5.78
6.40
6.94
7.44
7.96
8.56
9.36
10.32
11.37
12.41
13.37
14.26
15.20
16.37
17.92
20.12
22.82
25.80
28.77
31.53
34.10
36.74
39.87
43.83
49.11
55.44
62.39
69.34
75.83
81.74
87.38
93.40
100.43
109.26
119.68
131.13
142.75
153.75
163.77
173.07
182.82
191.88
202.94
217.15
234.99
255.31
274.83
288.63
291.52
279.93
253.22
214.34
167.78
118.24
68.94
21.13
-25.35
-71.05
-116.23
-160.85
-204.51
-246.97
-287.19
-322.73
-349.78
-364.11
-362.80
-345.59
-315.43
-277.37
-237.18
-199.53
-167.12
-140.55
-118.85
-100.30
-82.92
-64.86
-44.64
-21.84
2.47
25.27
42.00
47.52
38.03
12.90
-24.42
-66.87
-106.05
-134.89
-149.94
-151.98
-144.89
-133.49
-121.49
-110.59
-100.73
-91.27
-81.92
-73.07
-65.39
-59.21
-54.18
-49.33
-43.70
-36.88
-29.25
-21.84
-15.80
-11.84
-9.88
-9.14
-8.50
-7.02
-4.36
-0.90
2.51
4.98
6.08
5.98
5.39
5.17
5.90
7.66
9.98
12.19
13.69
14.26
14.07
13.52
13.03
12.84
13.00
13.40
13.92
14.46
14.97
15.37
15.60
15.56
15.21
14.61
13.87
13.16
12.60
12.25
12.06
11.95
11.84
11.68
11.44
11.14
10.78
10.38
9.95
9.51
9.08
8.68
8.32
7.98
7.65
7.29
6.92
6.55
6.21
5.92
5.69
5.53
5.40
5.28
5.12
4.92
4.63
4.23
3.69
3.01
2.21
1.38
0.62
0.04
-0.32
-0.52
-0.69
-0.97
-1.47
-2.19
-3.05
-3.91
-4.67
-5.29
-5.80
-6.28
-6.76
-7.24
-7.69
-8.06
-8.35
-8.56
-8.67
-8.69
-8.58
-8.36
-8.05
-7.71
-7.38
-7.07
-6.77
-6.47
-6.12
-5.71
-5.22
-4.62
-3.91
-3.12
-2.31
-1.58
-1.04
-0.72
-0.60
-0.56
-0.46
-0.19
0.27
0.82
1.32
1.64
1.76
1.76
1.76
1.88
2.13
2.45
2.75
2.96
3.11
3.25
3.42
3.60
3.75
3.81
3.80
3.81
3.93
4.20
4.54
4.82
4.90
4.73
4.38
4.01
3.78
3.80
4.08
4.51
4.99
5.40
5.69
5.83
5.81
5.62
5.26
4.80
4.36
4.04
3.92
3.96
4.07
4.10
3.98
3.74
3.46
3.25
3.14
3.11
3.12
3.14
3.17
3.26
3.38
3.46
3.43
3.25
2.96
2.67
2.52
2.56
2.74
2.93
3.00
2.88
2.58
2.19
1.84
1.58
1.42
1.31
1.18
1.01
0.82
0.66
0.58
0.60
0.72
0.88
1.04
1.18
1.31
1.42
1.52
1.58
1.59
1.54
1.46
1.37
1.29
1.25
1.21
1.20
1.22
1.26
1.31
1.30
1.15
0.86
0.49
0.18
0.06
0.19
0.50
0.86
1.15
1.35
1.51
1.68
1.86
1.95
1.89
1.67
1.39
1.16
1.06
1.07
1.09
1.04
0.91
0.77
0.69
0.70
0.74
0.76
0.69
0.58
0.50
0.48
0.54
0.61
0.60
0.45
0.16
-0.17
-0.46
-0.62
-0.60
-0.41
-0.11
0.23
0.55
0.79
0.92
0.90
0.77
0.58
0.42
0.40
0.59
0.98
1.50
2.04
2.49
2.80
2.92
2.85
2.62
2.24
1.78
1.32
0.97
0.77
0.73
0.78
0.83
0.83
0.79
0.75
0.76
0.81
0.87
0.88
0.83
0.75
0.69
0.70
0.78
0.87
0.91
0.86
0.73
0.54
0.38
0.28
0.30
0.45
0.71
1.04
1.37
1.62
1.73
1.69
1.55
1.38
1.25
1.19
1.17
1.12
0.99
0.74
0.39
0.02
-0.31
-0.52
-0.60
-0.54
-0.39
-0.17
0.05
0.27
0.44
0.55
0.57
0.49
0.33
0.11
-0.13
-0.35
-0.51
-0.59
-0.57
-0.45
-0.21
0.13
0.54
0.95
1.28
1.42
1.31
0.93
0.38
-0.22
-0.69
-0.95
-0.94
-0.72
-0.38
-0.01
0.31
0.56
0.72
0.78
0.75
0.61
0.39
0.14
-0.09
-0.26
-0.33
-0.32
-0.27
-0.20
-0.17
-0.16
-0.16
-0.16
-0.15
-0.16
-0.23
-0.37
-0.56
-0.75
-0.87
-0.84
-0.64
-0.28
0.20
0.73
1.21
1.57
1.75
1.75
1.61
1.38
1.13
0.89
0.66
0.42
0.16
-0.11
-0.32
-0.39
-0.27
-0.01
0.30
0.54
0.60
0.48
0.25
0.02
-0.10
-0.11
-0.05
0.02
0.05
0.05
0.06
0.09
0.11
0.07
-0.06
-0.22
-0.32
-0.26
-0.01
0.36
0.68
0.79
0.62
0.23
-0.19
-0.43
-0.35
0.06
0.69
1.35
1.89
2.20
2.27
2.14
1.86
1.48
1.03
0.56
0.13
-0.19
-0.35
-0.34
-0.17
0.12
0.42
0.67
0.79
0.76
0.59
0.36
0.17
0.08
0.14
0.30
0.45
0.48
0.31
-0.03
-0.47
-0.86
-1.12
-1.21
-1.16
-1.06
-0.95
-0.84
-0.71
-0.57
-0.42
-0.34
-0.37
-0.53
-0.76
-1.00
-1.17
-1.23
-1.21
-1.14
-1.06
-0.99
-0.88
-0.68
-0.39
-0.05
0.26
0.42
0.39
0.20
-0.06
-0.25
-0.30
-0.23
-0.12
-0.06
-0.06
-0.08
-0.04
0.12
0.36
0.60
0.73
0.67
0.46
0.19
-0.03
-0.16
-0.18
-0.15
-0.12
-0.10
-0.08
-0.02
0.07
0.16
0.24
0.30
0.39
0.53
0.74
1.02
1.31
1.52
1.59
1.46
1.09
0.43
-0.51
-1.71
-3.04
-4.32
-5.33
-5.90
-6.01
-5.81
-5.55
-5.51
-5.85
-6.58
-7.58
-8.65
-9.66
-10.52
-11.24
-11.82
-12.26
-12.59
-12.86
-13.17
-13.57
-14.09
-14.62
-15.07
-15.41
-15.73
-16.27
-17.32
-19.13
-21.88
-25.60
-30.29
-35.88
-42.30
-49.38
-56.92
-64.63
-72.15
-79.16
-85.34
-90.56
-94.90
-98.71
-102.57
-107.15
-112.93
-120.20
-128.95
-139.10
-150.46
-162.76
-175.40
-187.21
-196.45
-200.89
-198.31
-187.09
-166.55
-137.05
-99.70
-56.00
-7.77
42.68
92.36
137.72
175.33
202.76
219.40
226.56
226.85
223.21
218.08
213.08
209.25
207.42
208.39
212.59
219.79
228.91
238.36
246.67
253.10
257.79
261.48
265.10
269.25
274.13
279.42
284.31
287.47
287.01
280.81
267.05
244.81
214.46
177.56
136.15
91.80
45.13
-3.97
-55.27
-107.00
-155.48
-195.82
-223.71
-237.13
-237.22
-227.78
-213.58
-198.55
-184.74
-172.33
-160.63
-149.17
-138.20
-128.46
-120.54
-114.29
-108.79
-102.84
-95.61
-87.04
-77.88
-69.26
-62.13
-56.83
-53.01
-49.84
-46.45
-42.30
-37.43
-32.31
-27.65
-23.93
-21.30
-19.47
-17.94
-16.19
-13.99
-11.38
-8.69
-6.29
-4.47
-3.29
-2.61
-2.17
-1.73
-1.12
-0.38
0.35
0.87
1.04
0.87
0.48
0.09
-0.09
-0.01
0.27
0.59
0.77
0.71
0.40
-0.08
-0.63
-1.13
-1.48
-1.61
-1.44
-0.96
-0.22
0.67
1.54
2.20
2.53
2.49
2.16
1.68
1.17
0.75
0.45
0.26
0.18
0.16
0.18
0.20
0.15
-0.00
-0.30
-0.71
-1.15
-1.49
-1.59
-1.36
-0.83
-0.10
0.62
1.18
1.51
1.66
1.78
2.02
2.48
3.15
3.94
4.67
5.17
5.29
4.95
4.17
3.03
1.70
0.37
-0.81
-1.71
-2.31
-2.63
-2.76
-2.78
-2.76
-2.76
-2.81
-2.93
-3.15
-3.47
-3.87
-4.27
-4.56
-4.62
-4.42
-3.98
-3.40
-2.80
-2.24
-1.71
-1.18
-0.59
0.11
0.94
1.91
2.99
4.14
5.22
6.06
6.48
6.37
5.77
4.88
3.96
3.21
2.71
2.38
2.09
1.73
1.29
0.82
0.37
-0.09
-0.61
-1.28
-2.09
-2.95
-3.70
-4.15
-4.24
-3.99
-3.55
-3.06
-2.64
-2.33
-2.10
-1.86
-1.53
-1.05
-0.39
0.45
1.41
2.37
3.18
3.68
3.77
3.42
2.74
1.92
1.15
0.57
0.17
-0.12
-0.41
-0.71
-1.02
-1.28
-1.51
-1.79
-2.22
-2.81
-3.44
-3.88
-3.95
-3.57
-2.86
-2.08
-1.40
-0.91
-0.51
-0.05
0.58
1.32
2.08
2.71
3.20
3.60
3.97
4.27
4.38
4.15
3.51
2.58
1.64
0.97
0.72
0.84
1.07
1.14
0.84
0.20
-0.62
-1.36
-1.87
-2.13
-2.24
-2.35
-2.53
-2.80
-3.05
-3.21
-3.23
-3.11
-2.88
-2.53
-2.05
-1.43
-0.70
0.08
0.84
1.52
2.11
2.59
2.90
2.96
2.70
2.19
1.59
1.19
1.14
1.42
1.79
1.93
1.62
0.85
-0.15
-1.07
-1.68
-2.00
-2.19
-2.50
-3.04
-3.72
-4.29
-4.47
-4.14
-3.33
-2.30
-1.30
-0.53
-0.01
0.37
0.77
1.29
1.94
2.67
3.34
3.84
4.07
3.96
3.53
2.87
2.18
1.66
1.45
1.53
1.71
1.72
1.34
0.58
-0.42
-1.39
-2.17
-2.70
-3.08
-3.38
-3.58
-3.55
-3.15
-2.40
-1.46
-0.61
-0.07
0.11
0.08
0.08
0.24
0.58
0.96
1.25
1.40
1.44
1.42
1.35
1.17
0.84
0.42
0.07
-0.04
0.17
0.58
0.94
0.97
0.56
-0.22
-1.11
-1.86
-2.32
-2.47
-2.43
-2.29
-2.10
-1.87
-1.59
-1.31
-1.06
-0.86
-0.65
-0.35
0.07
0.60
1.15
1.65
2.06
2.40
2.62
2.60
2.17
1.22
-0.18
-1.72
-2.99
-3.66
-3.65
-3.15
-2.55
-2.22
-2.30
-2.67
-3.03
-3.07
-2.61
-1.77
-0.85
-0.32
-0.56
-1.72
-3.68
-6.07
-8.41
-10.33
-11.67
-12.53
-13.12
-13.63
-14.13
-14.54
-14.79
-14.90
-15.14
-15.97
-17.83
-20.97
-25.29
-30.28
-35.24
-39.52
-42.88
-45.52
-48.08
-51.32
-55.80
-61.60
-68.21
-74.89
-80.90
-85.87
-89.95
-93.66
-97.68
-102.67
-109.42
-118.61
-130.46
-143.99
-156.19
-162.20
-156.51
-135.44
-99.36
-53.38
-5.38
37.51
72.15
100.25
126.56
155.56
188.88
224.70
259.16
288.28
309.06
319.09
315.70
295.92
258.24
204.81
142.67
82.55
35.26
7.56
-0.14
6.77
19.89
31.57
37.46
37.04
32.47
26.65
21.69
18.55
17.45
18.50
21.91
27.70
35.34
43.64
51.05
56.12
58.12
57.15
54.05
50.10
46.54
43.95
41.69
37.70
29.02
13.24
-10.04
-38.27
-66.44
-88.91
-101.76
-104.32
-99.20
-90.71
-82.66
-76.87
-73.00
-69.64
-65.61
-60.85
-56.19
-52.59
-50.35
-48.92
-47.29
-44.58
-40.55
-35.78
-31.21
-27.70
-25.57
-24.52
-23.82
-22.71
-20.75
-18.01
-14.99
-12.37
-10.70
-10.15
-10.51
-11.29
-11.93
-12.11
-11.82
-11.35
-11.10
-11.37
-12.18
-13.29
-14.33
-15.02
-15.30
-15.39
-15.69
-16.56
-18.16
-20.36
-22.76
-24.88
-26.39
-27.26
-27.86
-28.79
-30.63
-33.70
-37.86
-42.58
-47.15
-50.95
-53.69
-55.47
-56.71
-58.11
-60.51
-64.66
-70.86
-78.49
-85.76
-89.98
-88.36
-79.34
-63.51
-43.86
-24.82
-10.68
-3.94
-4.57
-10.44
-18.58
-26.66
-33.88
-40.85
-48.72
-58.28
-69.36
-80.76
-90.54
-96.41
-96.04
-87.15
-67.87
-37.29
3.87
52.80
104.83
154.41
196.65
228.61
249.95
262.67
269.99
275.07
280.13
286.07
292.73
299.44
305.53
310.51
313.91
314.73
311.44
302.03
284.73
258.66
224.32
183.21
137.12
87.37
34.74
-19.71
-73.70
-123.26
-163.52
-190.40
-202.40
-201.36
-191.73
-178.68
-166.17
-155.86
-147.50
-139.89
-132.19
-124.36
-116.96
-110.47
-104.85
-99.50
-93.68
-86.98
-79.54
-72.03
-65.24
-59.65
-55.24
-51.52
-47.84
-43.67
-38.90
-33.79
-28.83
-24.53
-21.15
-18.68
-16.88
-15.34
-13.71
-11.80
-9.65
-7.48
-5.57
-4.12
-3.15
-2.52
-1.98
-1.31
-0.45
0.50
1.34
1.90
2.16
2.22
2.23
2.27
2.26
2.04
1.42
0.36
-1.05
-2.60
-4.06
-5.32
-6.36
-7.23
-7.98
-8.66
-9.31
-9.97
-10.69
-11.47
-12.25
-12.88
-13.28
-13.48
-13.69
-14.22
-15.36
-17.15
-19.36
-21.58
-23.38
-24.59
-25.37
-26.20
-27.62
-29.99
-33.34
-37.31
-41.42
-45.32
-48.90
-52.34
-55.84
-59.41
-62.95
-66.51
-70.75
-76.82
-85.56
-96.13
-105.10
-107.14
-97.20
-73.32
-38.35
0.66
34.97
57.29
63.51
52.72
25.80
-15.54
-68.63
-128.71
-188.23
-237.75
-268.66
-276.15
-260.91
-228.29
-185.56
-138.84
-91.18
-42.77
7.16
58.33
108.11
151.93
184.98
204.27
209.97
205.22
194.71
182.68
171.50
161.52
151.87
141.76
131.33
121.57
113.64
107.99
104.09
100.67
96.54
91.15
84.89
78.86
74.25
71.79
71.43
72.39
73.57
74.06
73.44
71.95
70.30
69.23
69.30
70.63
72.92
75.64
78.20
80.23
81.65
82.75
84.05
86.08
89.12
93.01
97.14
100.79
103.57
105.71
108.05
111.29
115.17
117.84
115.93
105.44
82.95
46.84
-1.92
-59.87
-121.60
-180.48
-229.52
-262.28
-273.94
-262.68
-230.85
-185.27
-136.05
-93.95
-67.18
-58.97
-67.13
-85.55
-107.00
-125.49
-137.39
-141.24
-136.87
-125.03
-107.43
-87.23
-68.68
-56.04
-51.98
-56.69
-68.05
-82.67
-97.03
-108.05
-113.05
-109.74
-96.80
-74.71
-46.30
-16.27
10.50
30.87
44.50
53.31
59.89
65.74
70.58
72.99
71.87
67.71
62.55
59.06
59.10
62.79
68.57
74.01
77.05
76.86
73.92
69.50
64.90
60.89
57.57
54.56
51.46
48.19
45.09
42.70
41.46
41.43
42.26
43.25
43.70
43.14
41.56
39.40
37.38
36.16
36.12
37.14
38.66
39.93
40.28
39.50
37.88
36.17
35.24
35.77
37.93
41.30
45.00
48.01
49.67
49.93
49.50
49.51
51.07
54.68
60.05
66.19
71.77
75.61
77.04
76.06
73.46
70.71
69.79
72.68
80.50
92.50
105.52
114.39
113.47
98.97
70.83
33.38
-5.95
-39.17
-60.56
-68.36
-64.77
-54.33
-41.75
-30.07
-20.07
-10.84
-0.84
11.17
25.77
42.90
61.87
81.29
98.68
110.44
112.31
100.48
73.14
31.74
-18.67
-70.48
-115.58
-147.80
-164.60
-167.34
-160.25
-148.46
-136.18
-125.79
-117.81
-111.69
-106.71
-102.42
-98.65
-95.20
-91.64
-87.43
-82.20
-75.99
-69.28
-62.80
-57.17
-52.60
-48.92
-45.69
-42.49
-39.07
-35.49
-32.01
-28.95
-26.49
-24.64
-23.19
-21.82
-20.23
-18.26
-15.93
-13.45
-11.13
-9.27
-8.02
-7.34
-7.00
-6.69
-6.16
-5.28
-4.09
-2.80
-1.62
-0.74
-0.20
0.09
0.25
0.42
0.63
0.80
0.87
0.80
0.68
0.65
