1660929514.00
64.000000
-0.00
-0.00
-0.00
-0.00
-0.00
-0.00
-0.00
-0.00
-0.00
-0.00
0.00
0.01
0.01
-0.00
-0.03
-0.05
-0.05
0.00
0.13
0.36
0.66
1.01
1.37
1.72
2.06
2.40
2.79
3.25
3.81
4.44
5.09
5.73
6.32
6.91
7.53
8.27
9.15
10.25
11.45
12.64
13.72
14.66
15.55
16.56
17.92
19.75
22.23
25.15
28.22
31.17
33.88
36.49
39.33
42.86
47.32
53.03
59.58
66.43
73.07
79.26
85.23
91.53
98.87
107.64
118.17
129.80
141.68
153.05
163.63
173.79
184.34
196.61
209.03
223.42
240.03
258.82
278.80
297.56
311.33
315.86
307.74
285.65
251.26
207.81
159.36
109.42
60.16
12.62
-32.84
-75.94
-116.39
-153.89
-189.14
-223.52
-258.66
-295.49
-333.23
-369.03
-398.42
-416.84
-421.23
-411.40
-390.19
-362.30
-332.46
-303.91
-277.81
-253.73
-230.83
-208.66
-187.59
-168.36
-151.40
-136.52
-122.96
-109.84
-96.60
-83.22
-70.21
-58.24
-47.86
-39.21
-31.98
-25.58
-19.40
-13.09
-6.71
-0.64
4.60
8.68
11.61
13.75
15.65
17.73
20.06
22.42
24.38
25.63
26.09
25.98
25.64
25.39
25.36
25.46
25.55
25.48
25.22
24.82
24.39
24.00
23.62
23.18
22.60
21.83
20.91
19.89
18.85
17.85
16.92
16.11
15.44
14.92
14.53
14.20
13.84
13.38
12.82
12.22
11.67
11.22
10.89
10.64
10.40
10.13
9.83
9.53
9.29
9.18
9.20
9.33
9.49
9.59
9.58
9.46
9.25
8.99
8.68
8.32
7.91
7.50
7.14
6.92
6.85
6.88
6.89
6.76
6.40
5.80
5.04
4.21
3.42
2.78
2.32
2.08
1.98
1.94
1.86
1.66
1.33
0.86
0.32
-0.26
-0.85
-1.40
-1.92
-2.39
-2.81
-3.17
-3.49
-3.76
-4.01
-4.28
-4.60
-5.03
-5.57
-6.21
-6.91
-7.63
-8.30
-8.87
-9.26
-9.40
-9.28
-8.91
-8.37
-7.75
-7.10
-6.48
-5.91
-5.39
-4.95
-4.57
-4.20
-3.78
-3.24
-2.57
-1.86
-1.21
-0.72
-0.42
-0.29
-0.23
-0.12
0.10
0.48
1.01
1.65
2.34
3.01
3.56
3.93
4.09
4.06
3.92
3.77
3.65
3.62
3.64
3.66
3.65
3.63
3.63
3.72
3.91
4.13
4.30
4.33
4.20
3.98
3.81
3.77
3.91
4.15
4.35
4.40
4.23
3.91
3.55
3.25
3.09
3.04
3.06
3.08
3.05
2.98
2.87
2.78
2.77
2.90
3.21
3.66
4.16
4.55
4.68
4.43
3.83
3.02
2.21
1.57
1.17
0.99
0.94
0.96
0.99
1.07
1.21
1.40
1.61
1.76
1.86
1.93
2.06
2.30
2.61
2.87
2.92
2.66
2.14
1.51
0.97
0.64
0.58
0.71
0.94
1.21
1.48
1.73
1.93
1.98
1.82
1.45
0.94
0.44
0.06
-0.14
-0.21
-0.21
-0.19
-0.17
-0.15
-0.13
-0.16
-0.26
-0.44
-0.67
-0.88
-1.01
-1.02
-0.93
-0.82
-0.77
-0.89
-1.25
-1.86
-2.67
-3.55
-4.30
-4.78
-4.90
-4.68
-4.23
-3.69
-3.21
-2.90
-2.78
-2.78
-2.74
-2.49
-1.88
-0.79
0.74
2.65
4.79
7.04
9.23
11.20
12.75
13.71
13.99
13.64
12.87
11.99
11.19
10.54
9.91
9.11
7.95
6.37
4.37
2.00
-0.66
-3.47
-6.13
-8.28
-9.58
-9.93
-9.58
-9.03
-8.79
-9.12
-9.87
-10.64
-10.98
-10.70
-9.91
-8.90
-7.90
-6.90
-5.68
-3.97
-1.66
1.13
4.05
6.75
8.98
10.66
11.85
12.63
13.03
13.02
12.58
11.71
10.51
9.12
7.67
6.29
5.06
4.00
3.08
2.22
1.30
0.24
-0.95
-2.18
-3.22
-3.90
-4.12
-3.94
-3.51
-3.01
-2.55
-2.09
-1.56
-0.84
0.10
1.18
2.27
3.18
3.78
3.99
3.85
3.44
2.87
2.22
1.57
0.95
0.38
-0.09
-0.45
-0.69
-0.83
-0.92
-1.02
-1.13
-1.20
-1.16
-0.95
-0.54
0.02
0.66
1.25
1.65
1.80
1.64
1.23
0.66
0.09
-0.38
-0.66
-0.76
-0.76
-0.72
-0.72
-0.80
-0.92
-1.03
-1.02
-0.80
-0.34
0.30
0.98
1.51
1.73
1.60
1.21
0.72
0.30
0.05
-0.01
0.06
0.18
0.30
0.39
0.46
0.51
0.48
0.36
0.10
-0.24
-0.61
-0.93
-1.10
-1.09
-0.93
-0.68
-0.40
-0.18
-0.05
0.01
0.03
0.03
0.04
0.07
0.10
0.10
0.05
-0.06
-0.21
-0.31
-0.32
-0.17
0.11
0.48
0.86
1.18
1.41
1.53
1.54
1.44
1.23
0.95
0.68
0.51
0.53
0.72
0.99
1.18
1.20
1.03
0.75
0.49
0.33
0.23
0.08
-0.25
-0.80
-1.46
-2.05
-2.38
-2.34
-2.00
-1.55
-1.19
-1.05
-1.18
-1.46
-1.77
-2.00
-2.11
-2.19
-2.34
-2.66
-3.14
-3.67
-4.13
-4.41
-4.54
-4.71
-5.18
-6.12
-7.51
-9.12
-10.53
-11.42
-11.66
-11.50
-11.44
-12.01
-13.54
-15.94
-18.73
-21.18
-22.73
-23.19
-22.94
-22.79
-23.69
-26.24
-30.39
-35.40
-40.12
-43.50
-45.03
-45.02
-44.37
-44.32
-45.97
-50.04
-56.73
-65.42
-74.38
-80.57
-80.16
-69.72
-47.98
-16.96
18.15
50.64
74.80
87.95
90.99
87.29
80.68
73.81
67.52
61.60
55.75
50.24
45.73
42.67
40.77
39.09
36.53
32.50
27.25
21.76
17.23
14.53
13.81
14.47
15.46
15.66
14.36
11.50
7.66
3.81
0.85
-0.72
-1.02
-0.68
-0.61
-1.51
-3.67
-6.81
-10.22
-13.10
-14.87
-15.49
-15.43
-15.50
-16.45
-18.66
-21.97
-25.89
-29.83
-33.36
-36.22
-38.17
-38.97
-38.37
-36.34
-33.19
-29.60
-26.46
-24.61
-24.58
-26.59
-30.63
-36.47
-43.68
-51.64
-59.48
-66.30
-71.54
-75.25
-78.22
-81.91
-88.05
-97.83
-111.13
-125.93
-138.32
-143.38
-136.61
-115.56
-81.01
-37.06
10.01
53.64
88.92
113.78
128.98
137.11
141.20
143.51
145.15
146.31
146.95
147.40
148.53
151.41
156.74
164.34
173.14
181.60
188.31
192.50
194.33
194.69
194.83
195.85
198.41
202.47
207.16
210.71
210.62
204.08
188.52
162.35
125.55
79.99
29.37
-21.36
-66.87
-102.58
-125.49
-134.83
-131.98
-119.98
-102.76
-84.17
-67.28
-54.06
-45.12
-39.91
-36.97
-34.22
-29.47
-20.87
-7.48
10.13
29.45
46.00
54.16
49.02
28.52
-5.11
-45.43
-83.94
-113.11
-129.08
-132.51
-127.37
-118.46
-109.18
-100.68
-92.53
-84.05
-75.35
-67.36
-61.13
-56.98
-54.24
-51.57
-47.76
-42.33
-35.71
-29.01
-23.49
-19.92
-18.42
-18.35
-18.71
-18.58
-17.48
-15.54
-13.35
-11.63
-10.82
-10.93
-11.47
-11.82
-11.42
-10.13
-8.20
-6.15
-4.52
-3.64
-3.58
-4.14
-5.02
-5.93
-6.68
-7.17
-7.37
-7.26
-6.84
-6.15
-5.31
-4.46
-3.77
-3.31
-3.05
-2.90
-2.76
-2.60
-2.49
-2.52
-2.76
-3.16
-3.59
-3.88
-3.88
-3.54
-2.90
-2.07
-1.14
-0.22
0.61
1.27
1.65
1.65
1.30
0.75
0.28
0.19
0.69
1.77
3.22
4.65
5.72
6.17
6.02
5.42
4.63
3.82
3.06
2.29
1.45
0.56
-0.29
-0.93
-1.24
-1.19
-0.89
-0.54
-0.31
-0.29
-0.43
-0.66
-0.88
-1.05
-1.19
-1.38
-1.64
-1.97
-2.34
-2.72
-3.08
-3.40
-3.69
-3.91
-4.08
-4.15
-4.14
-4.04
-3.88
-3.71
-3.55
-3.45
-3.39
-3.28
-2.94
-2.18
-0.85
1.05
3.30
5.57
7.50
8.83
9.43
9.32
8.56
7.26
5.55
3.61
1.65
-0.05
-1.28
-1.92
-1.99
-1.67
-1.20
-0.84
-0.81
-1.16
-1.79
-2.51
-3.11
-3.46
-3.54
-3.43
-3.21
-2.95
-2.63
-2.25
-1.78
-1.23
-0.60
0.14
1.02
2.05
3.17
4.25
5.15
5.76
6.07
6.19
6.22
6.26
6.31
6.26
6.00
5.40
4.43
3.16
1.72
0.27
-1.03
-2.07
-2.83
-3.31
-3.57
-3.68
-3.71
-3.74
-3.81
-3.91
-4.03
-4.11
-4.13
-4.09
-4.03
-4.00
-4.07
-4.26
-4.54
-4.87
-5.18
-5.44
-5.58
-5.56
-5.33
-4.89
-4.32
-3.73
-3.22
-2.86
-2.61
-2.33
-1.83
-0.89
0.62
2.72
5.22
7.84
10.15
11.79
12.49
12.20
11.09
9.50
7.77
6.14
4.70
3.41
2.18
0.95
-0.25
-1.35
-2.29
-3.01
-3.56
-4.01
-4.45
-4.93
-5.41
-5.79
-5.94
-5.77
-5.31
-4.63
-3.85
-3.03
-2.18
-1.23
-0.14
1.09
2.38
3.62
4.73
5.66
6.42
7.02
7.46
7.72
7.79
7.74
7.64
7.54
7.43
7.23
6.77
5.91
4.57
2.82
0.83
-1.14
-2.85
-4.16
-5.01
-5.44
-5.54
-5.42
-5.16
-4.85
-4.57
-4.37
-4.30
-4.34
-4.46
-4.60
-4.70
-4.73
-4.71
-4.66
-4.62
-4.63
-4.68
-4.78
-4.89
-4.98
-5.01
-4.95
-4.76
-4.42
-3.92
-3.31
-2.63
-1.91
-1.13
-0.21
0.94
2.31
3.81
5.22
6.31
6.92
7.01
6.71
6.20
5.66
5.19
4.79
4.42
4.01
3.52
2.95
2.30
1.61
0.88
0.10
-0.72
-1.56
-2.31
-2.86
-3.07
-2.89
-2.39
-1.70
-0.97
-0.30
0.29
0.87
1.49
2.14
2.77
3.26
3.57
3.71
3.80
3.95
4.28
4.79
5.40
5.96
6.29
6.23
5.71
4.72
3.35
1.73
0.03
-1.60
-3.00
-4.08
-4.75
-5.02
-4.91
-4.51
-3.92
-3.26
-2.64
-2.16
-1.88
-1.82
-1.97
-2.26
-2.58
-2.86
-3.06
-3.23
-3.43
-3.74
-4.16
-4.59
-4.96
-5.22
-5.36
-5.46
-5.54
-5.57
-5.46
-5.18
-4.75
-4.23
-3.67
-2.97
-1.91
-0.20
2.26
5.29
8.43
11.07
12.71
13.11
12.35
10.71
8.58
6.28
4.04
2.02
0.31
-1.01
-1.89
-2.34
-2.44
-2.29
-2.01
-1.72
-1.46
-1.25
-1.09
-0.97
-0.88
-0.80
-0.71
-0.56
-0.34
-0.05
0.25
0.47
0.55
0.49
0.37
0.29
0.37
0.63
1.06
1.56
2.09
2.59
3.06
3.47
3.78
3.94
3.93
3.79
3.59
3.44
3.41
3.47
3.52
3.42
3.08
2.48
1.66
0.74
-0.19
-1.07
-1.88
-2.61
-3.25
-3.71
-3.93
-3.84
-3.47
-2.95
-2.46
-2.16
-2.12
-2.27
-2.47
-2.53
-2.40
-2.16
-1.95
-1.89
-2.02
-2.22
-2.35
-2.31
-2.11
-1.86
-1.70
-1.65
-1.64
-1.57
-1.34
-1.00
-0.65
-0.46
-0.52
-0.82
-1.25
-1.67
-1.94
-2.04
-2.00
-1.92
-1.86
-1.85
-1.83
-1.75
-1.56
-1.28
-0.97
-0.68
-0.44
-0.20
0.06
0.36
0.58
0.61
0.38
-0.07
-0.58
-0.95
-1.04
-0.86
-0.52
-0.16
0.16
0.47
0.85
1.33
1.90
2.44
2.81
2.95
2.84
2.57
2.24
1.96
1.75
1.61
1.46
1.23
0.91
0.55
0.24
0.10
0.15
0.33
0.53
0.62
0.58
0.47
0.37
0.33
0.33
0.28
0.12
-0.14
-0.42
-0.58
-0.56
-0.35
-0.05
0.18
0.25
0.14
-0.09
-0.32
-0.47
-0.47
-0.36
-0.22
-0.13
-0.15
-0.29
-0.55
-0.86
-1.19
-1.50
-1.71
-1.74
-1.56
-1.19
-0.80
-0.61
-0.81
-1.44
-2.39
-3.39
-4.17
-4.61
-4.78
-4.87
-5.15
-5.82
-6.97
-8.59
-10.52
-12.55
-14.46
-16.13
-17.58
-19.06
-20.91
-23.37
-26.46
-29.78
-32.74
-34.81
-35.88
-36.36
-37.05
-38.80
-42.00
-46.41
-51.12
-54.96
-56.98
-56.99
-55.82
-55.15
-56.99
-62.63
-71.78
-82.02
-89.17
-88.44
-75.92
-49.49
-8.98
44.15
106.85
174.17
239.19
293.84
330.91
346.45
341.13
319.49
287.39
249.25
206.73
159.91
109.62
59.19
14.11
-20.53
-42.71
-54.54
-60.90
-66.60
-73.96
-82.30
-89.26
-92.67
-92.08
-88.68
-84.40
-80.71
-77.94
-75.49
-72.55
-68.68
-64.04
-59.28
-55.10
-51.92
-49.75
-48.24
-46.91
-45.38
-43.51
-41.46
-39.60
-38.27
-37.55
-37.02
-35.75
-32.61
-26.87
-18.66
-9.27
-0.70
5.16
7.46
6.85
5.15
4.42
5.89
9.41
13.73
17.24
18.90
18.71
17.43
15.98
14.84
13.81
12.28
9.66
5.78
1.07
-3.76
-7.92
-10.96
-12.86
-13.92
-14.61
-15.29
-16.12
-17.00
-17.72
-18.17
-18.47
-18.97
-20.06
-21.91
-24.29
-26.58
-28.04
-28.27
-27.45
-26.38
-26.13
-27.52
-30.75
-35.25
-40.03
-44.12
-47.08
-49.23
-51.47
-54.86
-60.17
-67.45
-75.97
-84.55
-92.06
-97.85
-102.06
-105.45
-109.12
-114.13
-121.39
-131.68
-145.40
-162.19
-180.34
-196.48
-206.23
-205.37
-191.43
-164.60
-127.42
-83.42
-35.43
15.12
67.72
121.29
173.03
218.53
253.22
274.44
282.87
282.41
278.46
275.70
276.38
279.97
284.05
286.06
284.54
279.69
273.02
266.42
261.47
259.14
259.88
263.79
270.55
279.02
286.91
290.92
287.43
273.80
249.25
215.22
174.58
130.46
84.88
38.33
-9.69
-59.45
-109.73
-157.41
-198.17
-227.96
-244.57
-248.47
-242.52
-230.73
-216.72
-202.65
-189.15
-175.98
-163.01
-150.67
-139.81
-131.09
-124.36
-118.61
-112.43
-104.73
-95.26
-84.80
-74.74
-66.43
-60.52
-56.76
-54.13
-51.42
-47.76
-43.03
-37.79
-32.94
-29.20
-26.76
-25.30
-24.13
-22.63
-20.46
-17.69
-14.68
-11.86
-9.55
-7.86
-6.71
-5.89
-5.19
-4.49
-3.77
-3.14
-2.69
-2.47
-2.42
-2.40
-2.27
-1.94
-1.41
-0.74
-0.02
0.69
1.36
1.98
2.54
3.00
3.34
3.54
3.64
3.69
3.78
3.93
4.13
4.35
4.55
4.72
4.88
5.03
5.12
5.06
4.77
4.23
3.51
2.78
2.21
1.89
1.81
1.86
1.91
1.89
1.79
1.66
1.55
1.49
1.46
1.40
1.27
1.03
0.68
0.26
-0.17
-0.53
-0.77
-0.85
-0.78
-0.63
-0.46
-0.38
-0.43
-0.55
-0.65
-0.62
-0.42
-0.15
-0.06
-0.43
-1.39
-2.91
-4.68
-6.33
-7.53
-8.12
-8.19
-7.96
-7.65
-7.36
-7.08
-6.74
-6.32
-5.87
-5.47
-5.20
-5.04
-4.91
-4.73
-4.55
-4.51
-4.85
-5.74
-7.10
-8.67
-10.04
-10.91
-11.29
-11.56
-12.27
-13.87
-16.42
-19.49
-22.32
-24.16
-24.65
-24.07
-23.26
-23.24
-24.75
-27.87
-31.86
-35.54
-37.81
-38.20
-37.04
-35.33
-34.21
-34.42
-36.03
-38.51
-40.75
-41.08
-37.21
-26.64
-7.44
20.64
55.37
92.27
125.92
151.85
168.07
175.37
176.19
172.77
165.87
154.56
137.33
113.58
84.62
53.56
24.20
-0.38
-18.68
-30.99
-38.75
-43.64
-46.75
-48.48
-48.75
-47.61
-45.57
-43.56
-42.55
-43.05
-44.77
-46.76
-47.83
-47.10
-44.47
-40.57
-36.41
-32.90
-30.49
-28.95
-27.59
-25.60
-22.45
-18.05
-12.75
-7.18
-1.92
2.66
6.44
9.48
11.93
13.83
15.18
15.92
15.99
15.40
14.19
12.41
10.18
7.63
5.00
2.57
0.61
-0.68
-1.30
-1.40
-1.24
-1.08
-1.11
-1.42
-1.99
-2.74
-3.55
-4.34
-5.07
-5.72
-6.31
-6.81
-7.20
-7.38
-7.30
-6.91
-6.26
-5.43
-4.55
-3.72
-2.99
-2.39
-1.90
-1.51
-1.23
-1.03
-0.91
-0.90
-1.00
-1.23
-1.53
-1.78
-1.88
-1.77
-1.49
-1.15
-0.89
-0.77
-0.76
-0.78
-0.75
-0.62
-0.37
-0.05
0.32
0.65
0.88
0.92
0.73
0.31
-0.21
-0.72
-1.06
-1.20
-1.17
-1.05
-0.94
-0.86
-0.82
-0.76
-0.68
-0.56
-0.42
-0.29
-0.16
-0.02
0.08
0.14
0.13
0.07
0.01
-0.01
0.03
0.09
0.07
-0.09
-0.37
-0.70
-0.93
-0.98
-0.83
-0.56
-0.28
-0.09
0.01
0.06
0.14
0.26
0.40
0.47
0.38
0.11
-0.31
-0.75
-1.12
-1.31
-1.30
-1.11
-0.81
-0.49
-0.27
-0.26
-0.50
-0.98
-1.59
-2.20
-2.65
-2.86
-2.86
-2.78
-2.75
-2.87
-3.16
-3.53
-3.93
-4.26
-4.51
-4.63
-4.50
-3.96
