1660934903.00
64.000000
-0.00
-0.00
-0.00
-0.00
-0.00
-0.00
-0.00
-0.00
-0.00
-0.00
0.00
0.01
0.01
-0.00
-0.03
-0.05
-0.05
0.00
0.13
0.36
0.66
1.01
1.37
1.72
2.06
2.40
2.79
3.25
3.81
4.44
5.10
5.73
6.32
6.89
7.50
8.24
9.14
10.29
11.58
12.87
14.04
15.03
15.93
16.93
18.27
20.10
22.63
25.62
28.80
31.83
34.59
37.19
39.99
43.47
47.96
53.79
60.55
67.65
74.51
80.81
86.74
92.94
100.20
109.06
119.92
132.12
144.67
156.62
167.53
177.67
188.01
200.10
212.66
227.72
245.46
265.61
286.78
306.22
320.06
324.22
315.75
293.81
260.40
218.70
172.37
124.32
76.27
29.04
-16.77
-60.40
-101.06
-138.04
-171.82
-203.62
-235.21
-268.15
-303.07
-338.97
-373.00
-401.10
-418.95
-423.72
-415.12
-395.60
-369.31
-340.54
-312.26
-285.66
-260.58
-236.44
-213.18
-191.37
-171.75
-154.60
-139.50
-125.45
-111.48
-97.14
-82.62
-68.72
-56.39
-46.20
-38.13
-31.56
-25.58
-19.36
-12.57
-5.46
1.33
7.08
11.36
14.22
16.09
17.57
19.13
20.92
22.83
24.60
25.97
26.84
27.26
27.35
27.21
26.90
26.44
25.85
25.17
24.47
23.79
23.13
22.47
21.79
21.11
20.48
19.96
19.56
19.22
18.84
18.32
17.63
16.83
16.04
15.38
14.95
14.76
14.75
14.81
14.79
14.60
14.22
13.68
13.07
12.48
11.97
11.52
11.15
10.84
10.61
10.45
10.34
10.24
10.07
9.82
9.47
9.08
8.66
8.23
7.80
7.40
7.06
6.81
6.69
6.64
6.60
6.49
6.23
5.82
5.33
4.82
4.40
4.10
3.93
3.85
3.77
3.58
3.21
2.67
2.02
1.37
0.83
0.43
0.09
-0.29
-0.81
-1.55
-2.52
-3.64
-4.80
-5.86
-6.72
-7.31
-7.67
-7.89
-8.10
-8.41
-8.81
-9.22
-9.50
-9.58
-9.45
-9.24
-9.06
-9.01
-9.02
-8.95
-8.65
-8.03
-7.13
-6.11
-5.15
-4.38
-3.84
-3.49
-3.22
-2.97
-2.70
-2.41
-2.10
-1.78
-1.40
-0.95
-0.44
0.14
0.74
1.36
1.94
2.42
2.72
2.79
2.63
2.33
2.06
1.97
2.14
2.51
2.93
3.24
3.35
3.31
3.21
3.19
3.28
3.42
3.54
3.57
3.54
3.52
3.61
3.81
4.08
4.37
4.61
4.83
5.03
5.24
5.40
5.47
5.39
5.20
4.98
4.83
4.82
4.93
5.08
5.15
5.12
4.97
4.75
4.47
4.12
3.74
3.34
3.01
2.82
2.79
2.85
2.89
2.79
2.51
2.11
1.70
1.37
1.17
1.10
1.14
1.25
1.43
1.65
1.91
2.18
2.44
2.63
2.71
2.63
2.38
2.02
1.62
1.33
1.21
1.25
1.38
1.48
1.46
1.29
1.02
0.74
0.53
0.44
0.48
0.61
0.80
1.02
1.27
1.52
1.72
1.85
1.88
1.81
1.69
1.58
1.51
1.49
1.51
1.53
1.53
1.49
1.41
1.31
1.19
1.06
0.98
0.99
1.14
1.42
1.74
1.98
2.03
1.88
1.56
1.18
0.80
0.48
0.22
0.03
-0.05
0.02
0.26
0.60
0.95
1.20
1.28
1.23
1.10
0.96
0.84
0.74
0.65
0.60
0.63
0.79
1.05
1.34
1.58
1.69
1.65
1.47
1.20
0.90
0.63
0.45
0.40
0.50
0.69
0.92
1.09
1.13
1.02
0.78
0.49
0.25
0.14
0.20
0.40
0.62
0.74
0.66
0.39
-0.00
-0.37
-0.60
-0.66
-0.56
-0.38
-0.14
0.15
0.50
0.90
1.26
1.45
1.41
1.16
0.83
0.56
0.43
0.39
0.33
0.17
-0.05
-0.24
-0.28
-0.13
0.11
0.30
0.33
0.22
0.09
0.07
0.23
0.50
0.78
0.97
1.03
1.02
0.97
0.91
0.82
0.66
0.44
0.19
-0.00
-0.08
-0.01
0.15
0.33
0.45
0.46
0.40
0.35
0.40
0.55
0.76
0.91
0.94
0.86
0.74
0.66
0.66
0.69
0.64
0.48
0.23
0.00
-0.10
-0.06
0.05
0.14
0.16
0.15
0.19
0.32
0.54
0.76
0.85
0.76
0.52
0.23
0.01
-0.06
0.01
0.17
0.32
0.39
0.37
0.28
0.16
0.01
-0.15
-0.32
-0.45
-0.50
-0.44
-0.27
-0.05
0.14
0.24
0.25
0.20
0.11
0.03
-0.05
-0.12
-0.17
-0.17
-0.12
-0.05
-0.00
-0.02
-0.11
-0.21
-0.24
-0.13
0.10
0.42
0.74
1.01
1.21
1.33
1.39
1.38
1.28
1.07
0.82
0.58
0.43
0.43
0.54
0.68
0.74
0.65
0.40
0.10
-0.17
-0.31
-0.32
-0.27
-0.23
-0.23
-0.27
-0.29
-0.27
-0.20
-0.09
0.02
0.15
0.33
0.57
0.84
1.07
1.16
1.07
0.82
0.49
0.18
-0.04
-0.16
-0.18
-0.12
0.02
0.24
0.53
0.83
1.06
1.12
0.97
0.62
0.16
-0.29
-0.61
-0.74
-0.64
-0.37
-0.01
0.30
0.47
0.42
0.15
-0.27
-0.72
-1.10
-1.30
-1.30
-1.16
-0.94
-0.78
-0.78
-0.99
-1.39
-1.86
-2.24
-2.39
-2.25
-1.86
-1.39
-1.01
-0.86
-0.99
-1.36
-1.83
-2.18
-2.12
-1.38
0.15
2.34
4.74
6.70
7.62
7.19
5.50
3.03
0.38
-1.97
-3.74
-4.80
-5.14
-4.76
-3.76
-2.45
-1.28
-0.67
-0.79
-1.49
-2.39
-3.18
-3.89
-4.91
-6.77
-9.71
-13.53
-17.52
-20.80
-22.63
-22.76
-21.45
-19.35
-17.22
-15.64
-14.87
-14.88
-15.40
-16.22
-17.20
-18.37
-19.83
-21.63
-23.69
-25.82
-27.96
-30.19
-32.89
-36.59
-41.74
-48.52
-56.83
-66.27
-76.09
-84.94
-90.94
-92.09
-87.08
-76.25
-62.04
-48.50
-39.85
-38.87
-45.89
-58.89
-74.74
-90.68
-105.21
-118.03
-129.14
-138.23
-144.61
-147.92
-148.61
-147.94
-147.02
-145.66
-141.98
-132.81
-115.01
-86.79
-48.41
-1.95
49.32
101.69
151.29
194.41
227.82
249.47
259.16
258.90
252.31
243.51
235.92
231.36
230.09
231.29
233.69
236.29
238.54
240.44
242.36
244.84
248.38
253.26
259.50
266.81
274.43
281.02
284.54
282.50
272.55
253.26
224.69
188.37
146.62
101.50
54.07
4.60
-46.54
-97.65
-145.29
-184.88
-212.36
-225.92
-226.75
-218.56
-205.96
-192.70
-180.68
-169.95
-159.71
-149.38
-139.09
-129.59
-121.58
-115.16
-109.71
-104.27
-98.00
-90.64
-82.57
-74.53
-67.24
-61.03
-55.78
-51.01
-46.25
-41.25
-36.16
-31.43
-27.55
-24.79
-23.09
-22.02
-21.00
-19.54
-17.41
-14.74
-11.90
-9.35
-7.39
-6.13
-5.41
-4.97
-4.51
-3.86
-2.98
-1.99
-1.06
-0.33
0.13
0.32
0.31
0.18
-0.02
-0.23
-0.41
-0.52
-0.51
-0.36
-0.10
0.22
0.50
0.68
0.72
0.65
0.56
0.52
0.56
0.67
0.79
0.83
0.74
0.47
0.04
-0.46
-0.91
-1.17
-1.18
-0.94
-0.54
-0.08
0.36
0.72
0.97
1.07
0.94
0.51
-0.20
-1.06
-1.82
-2.25
-2.21
-1.76
-1.13
-0.57
-0.30
-0.42
-0.90
-1.58
-2.30
-2.87
-3.15
-3.12
-2.86
-2.58
-2.52
-2.79
-3.36
-4.00
-4.41
-4.40
-3.98
-3.34
-2.78
-2.51
-2.58
-2.86
-3.14
-3.26
-3.11
-2.59
-1.55
0.18
2.66
5.63
8.58
10.84
11.94
11.78
10.75
9.50
8.56
8.18
8.18
8.20
7.89
7.15
6.11
4.99
3.96
3.08
2.30
1.58
0.92
0.37
0.00
-0.19
-0.29
-0.46
-0.87
-1.63
-2.69
-3.88
-4.93
-5.62
-5.84
-5.58
-4.99
-4.26
-3.55
-2.93
-2.37
-1.76
-0.97
0.05
1.28
2.56
3.67
4.37
4.48
3.98
3.04
1.92
0.89
0.13
-0.33
-0.58
-0.74
-0.91
-1.08
-1.21
-1.27
-1.30
-1.38
-1.61
-2.00
-2.46
-2.82
-2.93
-2.73
-2.29
-1.77
-1.36
-1.16
-1.22
-1.47
-1.81
-2.07
-2.09
-1.71
-0.85
0.45
1.96
3.34
4.20
4.33
3.75
2.73
1.66
0.88
0.52
0.48
0.50
0.38
0.02
-0.49
-0.99
-1.34
-1.52
-1.63
-1.82
-2.19
-2.76
-3.42
-4.03
-4.49
-4.77
-4.92
-5.03
-5.18
-5.39
-5.64
-5.90
-6.07
-6.04
-5.65
-4.73
-3.19
-1.09
1.27
3.47
5.08
5.85
5.81
5.21
4.36
3.47
2.56
1.52
0.29
-1.01
-2.04
-2.38
-1.74
-0.14
2.06
4.32
6.15
7.25
7.68
7.73
7.71
7.80
7.92
7.81
7.19
5.97
4.29
2.48
0.89
-0.25
-0.94
-1.32
-1.54
-1.69
-1.73
-1.54
-1.01
-0.13
1.04
2.32
3.44
4.14
4.20
3.58
2.44
1.11
0.01
-0.58
-0.56
-0.10
0.53
1.00
1.14
0.92
0.44
-0.15
-0.70
-1.16
-1.54
-1.86
-2.15
-2.42
-2.67
-2.86
-2.98
-3.04
-3.08
-3.15
-3.27
-3.39
-3.46
-3.39
-3.11
-2.56
-1.74
-0.69
0.45
1.48
2.20
2.46
2.25
1.72
1.09
0.59
0.31
0.21
0.17
0.06
-0.15
-0.37
-0.49
-0.45
-0.31
-0.21
-0.30
-0.62
-1.10
-1.58
-1.88
-1.91
-1.69
-1.31
-0.90
-0.55
-0.32
-0.19
-0.15
-0.19
-0.29
-0.45
-0.65
-0.86
-1.02
-1.13
-1.14
-1.01
-0.70
-0.19
0.53
1.37
2.24
3.02
3.54
3.70
3.42
2.72
1.71
0.63
-0.28
-0.82
-0.95
-0.79
-0.55
-0.43
-0.53
-0.77
-1.04
-1.19
-1.22
-1.19
-1.22
-1.40
-1.72
-2.13
-2.51
-2.79
-2.94
-2.94
-2.85
-2.69
-2.49
-2.27
-2.01
-1.71
-1.36
-0.93
-0.40
0.26
1.04
1.89
2.73
3.43
3.86
3.91
3.57
2.90
2.02
1.11
0.32
-0.25
-0.54
-0.59
-0.47
-0.26
-0.02
0.26
0.59
0.98
1.43
1.88
2.26
2.51
2.61
2.59
2.49
2.35
2.18
1.98
1.69
1.32
0.87
0.40
-0.02
-0.32
-0.46
-0.42
-0.22
0.13
0.61
1.11
1.46
1.48
1.02
0.06
-1.23
-2.54
-3.56
-4.05
-3.98
-3.47
-2.80
-2.19
-1.81
-1.66
-1.68
-1.69
-1.56
-1.23
-0.74
-0.20
0.24
0.51
0.60
0.57
0.50
0.44
0.41
0.39
0.37
0.38
0.41
0.49
0.57
0.60
0.50
0.22
-0.17
-0.54
-0.65
-0.30
0.54
1.67
2.68
3.14
2.83
1.86
0.61
-0.43
-0.97
-1.04
-0.92
-0.93
-1.22
-1.66
-1.97
-1.94
-1.58
-1.08
-0.77
-0.83
-1.26
-1.84
-2.29
-2.41
-2.16
-1.65
-1.02
-0.40
0.14
0.59
0.95
1.16
1.20
1.11
0.99
1.02
1.37
2.05
2.89
3.59
3.80
3.32
2.20
0.71
-0.77
-1.87
-2.39
-2.35
-1.93
-1.37
-0.87
-0.50
-0.22
0.06
0.37
0.68
0.91
0.99
0.86
0.57
0.18
-0.25
-0.66
-1.05
-1.43
-1.80
-2.16
-2.44
-2.58
-2.48
-2.12
-1.53
-0.86
-0.25
0.16
0.31
0.25
0.09
-0.02
0.05
0.39
1.01
1.83
2.65
3.20
3.28
2.83
2.01
1.10
0.44
0.20
0.36
0.73
1.04
1.11
0.85
0.33
-0.34
-1.04
-1.68
-2.20
-2.56
-2.73
-2.67
-2.40
-1.97
-1.45
-0.96
-0.58
-0.36
-0.31
-0.41
-0.61
-0.85
-1.03
-1.08
-0.94
-0.58
0.03
0.84
1.80
2.84
3.87
4.79
5.46
5.78
5.67
5.14
4.28
3.25
2.22
1.36
0.76
0.41
0.23
0.08
-0.19
-0.64
-1.23
-1.82
-2.27
-2.48
-2.45
-2.28
-2.11
-2.02
-2.02
-2.06
-2.06
-1.98
-1.84
-1.72
-1.71
-1.83
-2.05
-2.28
-2.43
-2.38
-2.13
-1.67
-1.04
-0.32
0.43
1.09
1.51
1.58
1.25
0.63
-0.05
-0.47
-0.41
0.19
1.17
2.23
3.11
3.64
3.83
3.73
3.44
2.99
2.39
1.67
0.88
0.15
-0.41
-0.72
-0.83
-0.83
-0.89
-1.08
-1.42
-1.83
-2.18
-2.36
-2.35
-2.19
-1.99
-1.83
-1.75
-1.72
-1.67
-1.48
-1.02
-0.25
0.80
1.93
2.86
3.26
2.99
2.14
1.08
0.28
0.08
0.53
1.33
2.01
2.21
1.83
1.06
0.23
-0.39
-0.73
-0.89
-1.04
-1.29
-1.64
-1.97
-2.17
-2.18
-2.04
-1.85
-1.71
-1.68
-1.74
-1.83
-1.83
-1.68
-1.34
-0.81
-0.15
0.59
1.29
1.81
2.02
1.86
1.39
0.77
0.26
0.04
0.17
0.52
0.88
1.03
0.89
0.56
0.21
0.05
0.14
0.41
0.69
0.81
0.72
0.47
0.22
0.10
0.18
0.38
0.58
0.61
0.41
0.03
-0.41
-0.74
-0.86
-0.76
-0.53
-0.32
-0.25
-0.37
-0.62
-0.89
-1.05
-1.03
-0.85
-0.58
-0.29
0.03
0.46
1.07
1.83
2.60
3.12
3.17
2.70
1.86
0.96
0.31
0.10
0.28
0.66
0.98
1.10
1.00
0.77
0.50
0.21
-0.13
-0.58
-1.12
-1.68
-2.11
-2.32
-2.29
-2.11
-1.89
-1.72
-1.65
-1.62
-1.59
-1.51
-1.37
-1.19
-0.98
-0.75
-0.48
-0.19
0.07
0.29
0.48
0.66
0.94
1.37
1.90
2.43
2.73
2.65
2.13
1.30
0.37
-0.39
-0.83
-0.92
-0.72
-0.40
-0.11
0.04
-0.01
-0.23
-0.57
-0.91
-1.17
-1.29
-1.26
-1.13
-0.96
-0.80
-0.69
-0.63
-0.60
-0.61
-0.65
-0.75
-0.88
-1.06
-1.23
-1.35
-1.30
-0.96
-0.22
0.95
2.40
3.83
4.87
5.18
4.65
3.45
1.95
0.57
-0.38
-0.80
-0.79
-0.53
-0.21
0.05
0.22
0.32
0.34
0.34
0.31
0.29
0.25
0.15
-0.04
-0.33
-0.65
-0.94
-1.14
-1.25
-1.32
-1.38
-1.40
-1.33
-1.15
-0.89
-0.65
-0.55
-0.68
-0.96
-1.21
-1.21
-0.79
0.05
1.09
1.99
2.45
2.31
1.69
0.87
0.16
-0.27
-0.46
-0.60
-0.83
-1.21
-1.61
-1.83
-1.72
-1.27
-0.64
-0.06
0.27
0.26
-0.05
-0.48
-0.85
-0.99
-0.85
-0.52
-0.16
0.06
0.09
0.01
-0.06
0.01
0.25
0.62
1.05
1.50
2.03
2.65
3.31
3.82
3.94
3.49
2.48
1.14
-0.22
-1.28
-1.92
-2.15
-2.14
-2.00
-1.80
-1.54
-1.17
-0.68
-0.14
0.35
0.70
0.82
0.69
0.36
-0.07
-0.48
-0.74
-0.81
-0.74
-0.66
-0.68
-0.84
-1.07
-1.26
-1.26
-1.04
-0.68
-0.33
-0.13
-0.14
-0.32
-0.53
-0.61
-0.41
0.14
1.00
2.00
2.85
3.29
3.14
2.39
1.24
0.01
-0.98
-1.54
-1.66
-1.46
-1.16
-0.90
-0.75
-0.68
-0.65
-0.63
-0.64
-0.72
-0.90
-1.12
-1.26
-1.20
-0.89
-0.39
0.15
0.56
0.73
0.65
0.43
0.16
-0.06
-0.19
-0.23
-0.22
-0.18
-0.11
0.01
0.24
0.60
1.10
1.70
2.31
2.80
3.02
2.86
2.28
1.36
0.23
-0.88
-1.79
-2.32
-2.41
-2.07
-1.38
-0.52
0.35
1.04
1.42
1.44
1.14
0.65
0.14
-0.24
-0.40
-0.35
-0.16
0.07
0.25
0.29
0.17
-0.10
-0.48
-0.92
-1.33
-1.61
-1.71
-1.64
-1.44
-1.18
-0.94
-0.73
-0.55
-0.39
-0.23
-0.09
0.04
0.21
0.53
1.07
1.85
2.69
3.31
3.40
2.84
1.76
0.49
-0.54
-1.05
-1.02
-0.63
-0.18
0.10
0.14
0.00
-0.21
-0.40
-0.55
-0.67
-0.78
-0.87
-0.89
-0.85
-0.73
-0.57
-0.44
-0.39
-0.45
-0.63
-0.84
-0.96
-0.88
-0.59
-0.16
0.25
0.49
0.52
0.45
0.49
0.85
1.58
2.52
3.37
3.78
3.53
2.62
1.27
-0.13
-1.22
-1.78
-1.81
-1.46
-1.00
-0.64
-0.48
-0.49
-0.57
-0.65
-0.70
-0.77
-0.92
-1.21
-1.57
-1.92
-2.12
-2.08
-1.79
-1.35
-0.87
-0.48
-0.23
-0.11
-0.03
0.08
0.29
0.60
0.98
1.35
1.67
1.86
1.89
1.73
1.39
0.93
0.43
0.01
-0.25
-0.31
-0.20
0.01
0.26
0.46
0.56
0.55
0.44
0.25
0.01
-0.22
-0.43
-0.59
-0.67
-0.67
-0.61
-0.53
-0.49
-0.57
-0.79
-1.13
-1.44
-1.60
-1.48
-1.11
-0.60
-0.13
0.10
0.02
-0.34
-0.79
-1.11
-1.09
-0.58
0.42
1.72
3.03
4.01
4.37
4.02
3.09
1.87
0.70
-0.15
-0.53
-0.50
-0.21
0.16
0.47
0.62
0.60
0.46
0.26
0.06
-0.10
-0.26
-0.48
-0.85
-1.33
-1.82
-2.13
-2.15
-1.87
-1.44
-1.08
-0.96
-1.07
-1.28
-1.38
-1.25
-0.86
-0.25
0.52
1.39
2.31
3.12
3.60
3.52
2.80
1.56
0.15
-1.03
-1.68
-1.72
-1.30
-0.67
-0.07
0.37
0.63
0.72
0.68
0.52
0.26
-0.05
-0.37
-0.62
-0.75
-0.75
-0.63
-0.48
-0.35
-0.35
-0.48
-0.70
-0.89
-0.93
-0.74
-0.36
0.13
0.59
0.87
0.88
0.57
-0.03
-0.79
-1.49
-1.86
-1.70
-0.94
0.24
1.53
2.56
3.04
2.89
2.21
1.24
0.25
-0.51
-0.90
-0.92
-0.64
-0.26
0.06
0.21
0.13
-0.12
-0.48
-0.88
-1.28
-1.63
-1.85
-1.88
-1.70
-1.34
-0.92
-0.56
-0.36
-0.34
-0.44
-0.56
-0.61
-0.58
-0.49
-0.40
-0.33
-0.27
-0.14
0.16
0.70
1.47
2.38
3.24
3.88
4.16
4.04
3.57
2.83
1.92
0.91
-0.11
-1.02
-1.69
-2.01
-1.92
-1.51
-0.96
-0.44
-0.11
-0.01
-0.13
-0.41
-0.80
-1.24
-1.70
-2.12
-2.44
-2.62
-2.65
-2.53
-2.30
-1.99
-1.61
-1.18
-0.73
-0.29
0.13
0.50
0.88
1.35
1.99
2.82
3.68
4.31
4.42
3.81
2.55
0.98
-0.44
-1.28
-1.36
-0.81
0.03
0.76
1.10
1.04
0.72
0.36
0.11
-0.03
-0.14
-0.32
-0.59
-0.89
-1.08
-1.10
-0.94
-0.71
-0.52
-0.49
-0.63
-0.88
-1.15
-1.33
-1.38
-1.26
-1.02
-0.72
-0.45
-0.21
0.07
0.51
1.20
2.07
2.88
3.30
3.07
2.16
0.86
-0.38
-1.11
-1.14
-0.64
0.00
0.40
0.35
-0.08
-0.64
-1.04
-1.16
-1.10
-1.03
-1.15
-1.52
-2.03
-2.47
-2.67
-2.53
-2.09
-1.48
-0.86
-0.37
-0.06
0.08
0.12
0.13
0.17
0.26
0.41
0.65
1.08
1.75
2.63
3.51
4.09
4.08
3.35
2.03
0.49
-0.84
-1.65
-1.83
-1.54
-1.02
-0.47
0.03
0.52
1.02
1.53
1.89
1.97
1.66
1.01
0.18
-0.59
-1.13
-1.37
-1.37
-1.25
-1.13
-1.08
-1.11
-1.19
-1.27
-1.32
-1.30
-1.19
-1.00
-0.77
-0.59
-0.51
-0.55
-0.62
-0.53
-0.10
0.73
1.81
2.80
3.29
3.03
2.03
0.64
-0.67
-1.48
-1.64
-1.31
-0.84
-0.53
-0.49
-0.61
-0.73
-0.71
-0.58
-0.48
-0.54
-0.82
-1.25
-1.69
-2.01
-2.14
-2.05
-1.80
-1.45
-1.09
-0.82
-0.72
-0.79
-0.98
-1.13
-1.10
-0.82
-0.35
0.12
0.44
0.50
0.37
0.17
0.05
0.02
0.01
-0.16
-0.63
-1.42
-2.47
-3.61
-4.71
-5.67
-6.47
-7.15
-7.75
-8.37
-9.09
-10.01
-11.15
-12.52
-14.04
-15.66
-17.35
-19.11
-21.03
-23.16
-25.50
-27.98
-30.44
-32.74
-34.84
-36.80
-38.80
-41.09
-43.80
-46.97
-50.47
-54.19
-58.02
-61.97
-66.15
-70.58
-75.24
-80.07
-84.97
-89.95
-95.15
-100.53
-105.63
-109.47
-110.73
-108.28
-101.53
-90.71
-76.47
-59.45
-39.80
-17.37
7.61
33.92
59.05
79.73
93.07
97.62
93.74
83.33
69.05
53.79
40.47
31.81
30.01
36.07
49.06
66.15
83.36
96.89
104.49
105.98
102.62
96.22
88.16
79.21
69.86
60.78
52.97
47.43
44.63
44.21
45.25
46.67
47.66
48.00
47.96
48.01
48.62
50.11
52.57
55.95
60.03
64.51
69.05
73.38
77.43
81.32
85.38
89.93
95.19
101.16
107.61
114.17
120.52
126.57
132.64
139.51
148.09
158.83
171.09
182.68
190.13
189.60
178.09
154.31
118.91
74.11
23.12
-30.20
-81.50
-126.24
-160.35
-181.21
-188.66
-185.13
-174.83
-162.20
-150.46
-140.88
-133.15
-126.34
-119.73
-113.21
-107.02
-101.31
-95.89
-90.33
-84.27
-77.64
-70.69
-63.97
-57.91
-52.74
-48.37
-44.49
-40.80
-37.08
-33.36
-29.83
-26.74
-24.27
-22.41
-20.95
-19.60
-18.06
-16.19
-14.05
-11.80
-9.66
-7.72
-5.96
-4.26
-2.54
-0.86
0.58
1.50
1.70
1.16
0.11
-1.02
-1.84
-2.10
-1.80
-1.17
-0.55
-0.17
-0.13
-0.36
-0.69
-0.98
-1.18
-1.27
-1.30
-1.29
-1.24
-1.13
-1.01
-0.91
-0.89
-0.98
-1.17
-1.38
-1.55
-1.58
-1.46
-1.19
-0.85
-0.52
-0.28
-0.13
0.00
0.23
0.61
1.15
1.71
2.09
2.11
1.70
0.96
0.07
-0.73
-1.28
-1.52
-1.48
-1.26
-0.95
-0.64
-0.39
-0.22
-0.15
-0.15
-0.21
-0.29
-0.35
-0.41
-0.46
-0.53
-0.61
-0.68
-0.71
-0.68
-0.60
-0.53
-0.54
-0.69
-0.98
-1.32
-1.56
-1.58
-1.32
-0.90
-0.50
-0.25
-0.16
-0.01
0.46
1.43
2.84
4.33
5.38
5.56
4.74
3.17
1.34
-0.22
-1.17
-1.40
-1.09
-0.47
0.24
0.90
1.47
1.90
2.14
2.13
1.83
1.29
0.65
0.02
-0.50
-0.87
-1.11
-1.25
-1.27
-1.15
-0.89
-0.48
0.00
0.46
0.76
0.78
0.47
-0.12
-0.82
-1.35
-1.43
-0.88
0.23
1.64
2.88
3.57
3.48
2.70
1.53
0.38
-0.43
-0.79
-0.79
-0.66
-0.65
-0.87
-1.27
-1.70
-1.99
-2.06
-1.95
-1.78
-1.69
-1.78
-2.05
-2.41
-2.75
-2.95
-2.93
-2.66
-2.15
-1.47
-0.71
0.00
0.58
0.97
1.19
1.33
1.50
1.77
2.17
2.67
3.16
3.51
3.54
3.12
2.21
0.98
-0.30
-1.25
-1.62
-1.37
-0.70
0.07
0.59
0.73
0.54
0.22
-0.04
-0.15
-0.14
-0.10
-0.08
-0.07
-0.06
-0.03
-0.02
-0.08
-0.23
-0.45
-0.70
-0.94
-1.12
-1.25
-1.31
-1.24
-1.02
-0.64
-0.18
0.22
0.43
0.44
0.37
0.42
0.76
1.37
2.03
2.42
2.30
1.63
0.63
-0.34
-0.97
-1.15
-1.01
-0.77
-0.65
-0.74
-0.94
-1.11
-1.14
-1.04
-0.86
-0.70
-0.61
-0.58
-0.57
-0.54
-0.46
-0.38
-0.35
-0.46
-0.69
-1.01
-1.29
-1.40
-1.28
-0.94
-0.49
-0.09
0.15
0.21
0.22
0.37
0.85
1.70
2.76
3.64
3.95
3.40
2.04
0.18
-1.62
-2.85
-3.23
-2.77
-1.77
-0.61
0.37
1.02
1.33
1.41
1.36
1.22
1.04
0.79
0.51
0.26
0.10
0.10
0.26
0.47
0.59
0.43
-0.06
-0.83
-1.66
-2.30
-2.55
-2.37
-1.84
-1.19
-0.62
-0.23
-0.06
-0.03
-0.07
-0.10
-0.05
0.17
0.62
1.27
2.01
2.60
2.83
2.57
1.90
1.05
0.28
-0.22
-0.44
-0.48
-0.50
-0.61
-0.80
-1.02
-1.16
-1.20
-1.16
-1.06
-0.96
-0.90
-0.94
-1.11
-1.36
-1.60
-1.69
-1.52
-1.09
-0.53
-0.05
0.15
0.04
-0.27
-0.59
-0.70
-0.51
-0.04
0.60
1.31
2.00
2.65
3.20
3.59
3.69
3.41
2.73
1.79
0.80
0.02
-0.39
-0.40
-0.14
0.22
0.50
0.62
0.57
0.37
0.07
-0.33
-0.79
-1.27
-1.68
-1.93
-1.96
-1.77
-1.43
-1.04
-0.69
-0.44
-0.33
-0.35
-0.45
-0.58
-0.68
-0.71
-0.63
-0.44
-0.13
0.30
0.87
1.60
2.42
3.22
3.76
3.81
3.24
2.15
0.83
-0.30
-0.92
-0.96
-0.57
-0.03
0.39
0.59
0.61
0.54
0.43
0.25
-0.07
-0.50
-0.93
-1.22
-1.27
-1.12
-0.92
-0.83
-0.90
-1.07
-1.22
-1.23
-1.10
-0.93
-0.83
-0.85
-0.99
-1.16
-1.29
-1.34
-1.35
-1.31
-1.21
-0.94
-0.39
0.44
1.44
2.35
2.87
2.82
2.21
1.31
0.47
0.01
0.01
0.33
0.73
0.94
0.86
0.56
0.17
-0.18
-0.47
-0.76
-1.10
-1.48
-1.77
-1.84
-1.59
-1.08
-0.48
-0.04
0.05
-0.29
-0.98
-1.79
-2.45
-2.75
-2.59
-2.02
-1.19
-0.35
0.24
0.38
-0.02
-0.87
-1.97
-3.05
-3.88
-4.36
-4.56
-4.71
-5.09
-5.91
-7.26
-9.07
-11.14
-13.22
-15.08
-16.61
-17.86
-19.06
-20.53
-22.55
-25.22
-28.35
-31.50
-34.15
-35.92
-36.78
-37.18
-37.88
-39.66
-43.00
-47.74
-53.19
-58.27
-62.10
-64.42
-65.80
-67.51
-70.86
-76.55
-84.12
-92.12
-98.73
-102.72
-104.28
-105.03
-107.28
-112.88
-122.06
-133.09
-142.57
-146.37
-140.57
-122.32
-90.70
-47.48
2.42
51.42
90.91
113.94
117.89
106.11
87.25
72.50
71.56
89.07
123.25
166.97
210.96
247.33
271.99
285.03
289.42
288.82
286.02
282.65
279.78
278.72
281.09
287.60
296.75
304.35
304.57
292.18
264.86
224.14
174.46
120.92
67.16
14.66
-36.41
-85.48
-130.40
-167.72
-194.09
-208.05
-210.81
-205.78
-197.04
-187.79
-179.59
-172.43
-165.65
-158.68
-151.38
-143.95
-136.56
-129.27
-122.10
-115.26
-109.18
-104.39
-101.34
-100.11
-100.41
-101.73
-103.59
-105.74
-108.12
-110.78
-113.73
-116.80
-119.66
-122.05
-123.86
-125.40
-127.34
-130.64
-136.25
-144.48
-154.29
-163.07
-166.76
-160.86
-141.74
-108.03
-61.51
-6.99
48.70
98.38
136.44
160.13
170.09
169.83
164.55
159.48
158.41
162.82
171.77
182.68
192.48
198.93
201.29
200.57
198.81
198.26
200.44
205.85
214.08
224.22
234.82
243.77
248.16
244.90
232.03
209.84
181.21
150.43
120.91
93.26
64.85
31.61
-9.08
-56.01
-103.90
-145.49
-174.69
-189.17
-190.73
-183.87
-173.28
-162.06
-151.25
-140.61
-129.84
-119.30
-109.88
-102.37
-96.72
-91.86
-86.20
-78.52
-68.56
-57.24
-46.30
-37.48
-31.85
-29.39
-29.07
-29.40
-28.99
-27.10
-23.78
-19.68
-15.71
-12.60
-10.63
-9.59
-8.98
-8.24
-7.05
-5.42
-3.68
-2.22
-1.30
-0.88
-0.64
-0.20
0.62
1.70
2.67
3.07
2.68
1.63
0.31
-0.75
-1.23
-1.08
-0.55
-0.01
0.22
0.01
-0.53
-1.22
-1.87
-2.39
-2.79
-3.16
-3.54
-3.93
-4.22
-4.29
-4.04
-3.47
-2.67
-1.81
-1.05
-0.50
-0.20
-0.08
-0.04
0.04
0.20
0.37
0.45
0.34
-0.01
-0.50
-1.01
-1.39
-1.58
-1.61
-1.60
-1.63
-1.71
-1.77
-1.70
-1.46
-1.11
-0.80
-0.68
-0.81
-1.10
-1.38
-1.49
-1.34
-0.98
-0.55
-0.17
0.08
0.21
0.28
0.31
0.31
0.22
0.02
-0.30
-0.65
-0.93
-1.07
-1.01
-0.79
-0.46
-0.13
0.14
0.31
0.36
0.30
0.19
0.09
0.04
0.06
0.16
0.29
0.41
0.49
0.50
0.45
0.36
0.25
0.14
0.08
0.06
0.07
0.08
0.07
0.05
0.07
0.19
0.41
0.67
0.88
0.93
0.79
0.51
0.18
-0.10
-0.28
-0.35
-0.35
-0.27
-0.13
0.10
0.36
0.58
0.67
0.57
0.31
0.03
-0.12
0.00
0.40
0.99
1.58
2.01
2.17
2.08
1.82
1.49
1.14
0.74
0.23
-0.39
-1.05
-1.61
-1.94
-2.00
-1.86
-1.66
-1.55
-1.56
-1.64
-1.66
-1.51
-1.19
-0.77
-0.41
-0.23
-0.26
-0.45
-0.66
-0.76
-0.70
-0.50
-0.24
-0.01
0.18
0.37
0.59
0.84
1.06
1.13
1.02
0.78
0.51
0.33
0.29
0.32
0.33
0.23
0.04
-0.16
-0.27
-0.25
-0.14
-0.02
0.02
-0.07
-0.29
-0.57
-0.82
-0.95
-0.91
-0.71
-0.43
-0.16
0.00
0.02
-0.11
-0.31
-0.51
-0.62
-0.65
-0.62
-0.60
-0.64
-0.73
-0.84
-0.88
-0.80
-0.60
-0.35
-0.16
-0.13
-0.24
-0.39
-0.44
-0.30
0.00
0.34
0.55
0.52
0.26
-0.11
-0.40
-0.49
-0.36
-0.07
0.22
0.39
0.41
0.32
0.23
0.21
0.30
0.48
0.67
0.82
0.91
0.95
0.96
0.94
0.85
0.66
0.35
-0.06
-0.47
-0.78
-0.92
-0.89
-0.74
-0.55
-0.42
-0.36
-0.37
-0.35
-0.25
-0.04
0.24
0.50
0.65
0.61
0.37
-0.00
-0.40
-0.71
-0.84
-0.78
-0.56
-0.26
0.05
0.34
0.61
0.87
1.06
1.13
0.98
0.57
0.00
-0.55
-0.87
-0.81
-0.40
0.19
0.71
0.97
0.92
0.68
0.40
0.21
0.13
0.06
-0.06
-0.27
-0.49
-0.62
-0.62
-0.50
-0.33
-0.19
-0.09
-0.01
0.07
0.12
0.10
-0.07
-0.38
-0.75
-1.05
-1.14
-0.99
-0.65
-0.22
0.16
0.43
0.60
0.69
0.78
0.88
0.97
1.01
0.96
0.84
0.66
0.46
0.25
0.05
-0.12
-0.20
-0.13
0.08
0.36
0.60
0.66
0.49
0.14
-0.21
-0.41
-0.35
-0.07
0.28
0.54
0.57
0.38
0.07
-0.24
-0.43
-0.47
-0.36
-0.19
-0.06
-0.03
-0.13
-0.32
-0.48
-0.53
-0.40
-0.13
0.16
0.34
0.35
0.21
-0.00
-0.19
-0.30
-0.35
-0.40
-0.47
-0.52
-0.51
-0.40
-0.22
-0.08
-0.11
-0.35
-0.74
-1.12
-1.29
-1.17
-0.75
-0.20
0.32
0.65
0.74
0.67
0.56
0.50
0.55
0.67
0.81
0.90
0.92
0.87
0.79
0.69
0.55
0.36
0.13
-0.11
-0.28
-0.32
-0.18
0.08
0.32
0.39
0.23
-0.11
-0.48
-0.70
-0.69
-0.50
-0.27
-0.15
-0.16
-0.24
-0.28
-0.19
0.02
0.24
0.36
0.32
0.16
-0.00
-0.07
0.02
0.23
0.43
0.53
0.46
0.26
0.05
-0.04
0.03
0.22
0.41
0.44
0.24
-0.14
-0.56
-0.84
-0.88
-0.68
-0.34
-0.01
0.22
0.34
0.38
0.39
0.41
0.41
0.36
0.28
0.18
0.11
0.10
0.11
0.15
0.19
0.25
0.34
0.46
0.53
0.51
0.37
0.11
-0.17
-0.42
-0.60
-0.70
-0.74
-0.66
-0.45
-0.10
0.32
0.67
0.83
0.76
0.54
0.29
0.10
0.00
-0.07
-0.17
-0.32
-0.47
-0.56
-0.58
-0.60
-0.68
-0.81
-0.90
-0.82
-0.50
0.00
0.51
0.83
0.87
0.70
0.49
0.39
0.45
0.60
0.70
0.66
0.48
0.26
0.10
0.05
0.06
0.03
-0.14
-0.47
-0.90
-1.32
-1.61
-1.71
-1.65
-1.47
-1.26
-1.05
-0.88
-0.75
-0.64
-0.57
-0.54
-0.55
-0.61
-0.67
-0.69
-0.61
-0.39
-0.04
0.38
0.77
1.04
1.14
1.08
0.89
0.63
0.32
0.05
-0.14
-0.17
0.01
0.36
0.78
1.09
1.15
0.91
0.45
-0.06
-0.41
-0.50
-0.31
0.03
0.36
0.55
0.58
0.49
0.34
0.20
0.06
-0.09
-0.26
-0.43
-0.54
-0.51
-0.32
-0.00
0.34
0.59
0.65
0.52
0.26
-0.00
-0.18
-0.22
-0.13
0.01
0.11
0.13
0.04
-0.08
-0.17
-0.13
0.04
0.30
0.55
0.67
0.61
0.38
0.08
-0.15
-0.23
-0.16
0.01
0.19
0.30
0.33
0.27
0.15
-0.03
-0.26
-0.49
-0.69
-0.80
-0.80
-0.68
-0.48
-0.28
-0.15
-0.12
-0.17
-0.27
-0.35
-0.40
-0.40
-0.34
-0.24
-0.09
0.09
0.27
0.35
0.28
0.04
-0.28
-0.56
-0.65
-0.49
-0.10
0.37
0.77
0.97
0.97
0.81
0.64
0.53
0.54
0.61
0.70
0.74
0.70
0.61
0.48
0.32
0.11
-0.16
-0.50
-0.81
-0.98
-0.94
-0.70
-0.37
-0.10
-0.01
-0.12
-0.32
-0.46
-0.43
-0.25
0.01
0.22
0.31
0.31
0.30
0.36
0.50
0.67
0.76
0.71
0.50
0.17
-0.19
-0.47
-0.60
-0.55
-0.35
-0.09
0.15
0.28
0.27
0.14
-0.07
-0.30
-0.51
-0.65
-0.72
-0.69
-0.57
-0.41
-0.24
-0.10
-0.00
0.07
0.13
0.15
0.10
-0.06
-0.29
-0.52
-0.65
-0.60
-0.40
-0.11
0.19
0.46
0.68
0.86
1.01
1.09
1.06
0.91
0.63
0.28
-0.09
-0.38
-0.55
-0.55
-0.42
-0.20
0.02
0.17
0.26
0.30
0.31
0.30
0.21
0.01
-0.31
-0.65
-0.91
-0.97
-0.83
-0.54
-0.22
0.04
0.20
0.25
0.21
0.10
-0.06
-0.23
-0.38
-0.44
-0.36
-0.13
0.20
0.56
0.87
1.07
1.18
1.19
1.13
0.99
0.76
0.43
0.07
-0.25
-0.43
-0.42
-0.25
-0.01
0.19
0.26
0.23
0.14
0.03
-0.10
-0.29
-0.58
-0.94
-1.29
-1.50
-1.48
-1.22
-0.79
-0.35
-0.00
0.22
0.35
0.46
0.62
0.83
1.06
1.23
1.28
1.16
0.89
0.51
0.12
-0.20
-0.38
-0.40
-0.27
-0.10
0.02
0.00
-0.18
-0.47
-0.74
-0.87
-0.80
-0.58
-0.32
-0.17
-0.18
-0.30
-0.40
-0.38
-0.17
0.14
0.41
0.51
0.40
0.16
-0.08
-0.20
-0.19
-0.09
0.02
0.12
0.22
0.40
0.65
0.93
1.10
1.08
0.85
0.51
0.19
-0.00
-0.05
-0.00
0.07
0.11
0.11
0.08
0.03
-0.05
-0.17
-0.31
-0.46
-0.57
-0.61
-0.58
-0.49
-0.40
-0.36
-0.37
-0.41
-0.43
-0.39
-0.27
-0.09
0.08
0.21
0.25
0.19
0.06
-0.11
-0.27
-0.39
-0.43
-0.36
-0.20
0.01
0.19
0.30
0.35
0.37
0.40
0.47
0.52
0.51
0.41
0.26
0.16
0.19
0.38
0.68
0.95
1.04
0.84
0.37
-0.23
-0.74
-0.94
-0.76
-0.30
0.20
0.50
0.47
0.19
-0.16
-0.36
-0.33
-0.16
-0.05
-0.15
-0.47
-0.85
-1.07
-1.01
-0.67
-0.23
0.11
0.22
0.09
-0.13
-0.32
-0.38
-0.34
-0.30
-0.36
-0.53
-0.73
-0.84
-0.80
-0.61
-0.38
-0.19
-0.07
0.02
0.15
0.36
0.57
0.67
0.59
0.33
0.03
-0.14
-0.08
0.19
0.58
0.92
1.12
1.18
1.15
1.09
1.01
0.90
0.74
0.51
0.25
0.00
-0.21
-0.34
-0.39
-0.32
-0.14
0.14
0.45
0.67
0.72
0.55
0.19
-0.26
-0.65
-0.90
-0.95
-0.83
-0.58
-0.26
0.07
0.37
0.56
0.63
0.55
0.35
0.09
-0.16
-0.34
-0.40
-0.35
-0.22
-0.09
-0.03
-0.07
-0.19
-0.31
-0.31
-0.15
0.11
0.36
0.48
0.43
0.28
0.14
0.06
0.04
0.02
-0.08
-0.23
-0.36
-0.37
-0.26
-0.11
-0.07
-0.22
-0.54
-0.88
-1.10
-1.08
-0.85
-0.54
-0.26
-0.07
0.05
0.16
0.34
0.58
0.81
0.97
0.99
0.88
0.69
0.50
0.33
0.20
0.09
-0.05
-0.23
-0.46
-0.67
-0.80
-0.80
-0.66
-0.42
-0.16
0.07
0.27
0.44
0.62
0.81
0.95
1.00
0.92
0.74
0.52
0.31
0.11
-0.06
-0.23
-0.37
-0.46
-0.49
-0.49
-0.50
-0.57
-0.66
-0.70
-0.61
-0.36
-0.06
0.16
0.19
0.00
-0.29
-0.54
-0.64
-0.57
-0.40
-0.21
-0.05
0.09
0.24
0.41
0.56
0.60
0.46
0.16
-0.18
-0.41
-0.43
-0.22
0.09
0.34
0.40
0.21
-0.15
-0.50
-0.70
-0.69
-0.49
-0.20
0.04
0.17
0.16
0.08
0.01
-0.03
-0.05
-0.11
-0.25
-0.44
-0.61
-0.66
-0.52
-0.24
0.12
0.44
0.69
0.85
0.95
1.02
1.03
0.96
0.82
0.63
0.43
0.25
0.14
0.08
0.06
0.03
-0.06
-0.24
-0.52
-0.84
-1.11
-1.22
-1.14
-0.91
-0.61
-0.32
-0.09
0.12
0.31
0.50
0.66
0.78
0.83
0.83
0.79
0.71
0.59
0.44
0.30
0.22
0.21
0.24
0.25
0.18
0.02
-0.14
-0.19
-0.08
0.19
0.49
0.69
0.72
0.60
0.43
0.30
0.24
0.21
0.15
0.03
-0.11
-0.18
-0.14
0.02
0.21
0.32
0.25
0.00
-0.38
-0.80
-1.14
-1.30
-1.24
-0.95
-0.49
0.05
0.53
0.82
0.84
0.56
0.07
-0.48
-0.88
-1.01
-0.83
-0.42
0.05
0.37
0.41
0.16
-0.27
-0.72
-1.03
-1.09
-0.90
-0.54
-0.14
0.16
0.27
0.19
-0.01
-0.20
-0.27
-0.18
0.04
0.33
0.63
0.92
1.18
1.39
1.50
1.45
1.21
0.82
0.37
-0.06
-0.38
-0.60
-0.72
-0.77
-0.76
-0.68
-0.56
-0.41
-0.27
-0.15
-0.02
0.12
0.30
0.47
0.59
0.60
0.50
0.30
0.05
-0.18
-0.35
-0.40
-0.35
-0.22
-0.12
-0.14
-0.38
-0.81
-1.30
-1.64
-1.66
-1.29
-0.62
0.12
0.74
1.09
1.14
0.95
0.61
0.19
-0.23
-0.56
-0.73
-0.65
-0.32
0.20
0.77
1.21
1.40
1.31
1.01
0.62
0.28
0.08
0.04
0.12
0.26
0.40
0.51
0.57
0.61
0.59
0.53
0.42
0.29
0.16
0.07
-0.02
-0.14
-0.28
-0.43
-0.51
-0.46
-0.26
-0.01
0.18
0.18
-0.06
-0.49
-1.00
-1.45
-1.73
-1.77
-1.60
-1.25
-0.78
-0.29
0.16
0.52
0.74
0.79
0.68
0.43
0.08
-0.25
-0.51
-0.62
-0.56
-0.36
-0.05
0.28
0.55
0.69
0.67
0.51
0.31
0.17
0.16
0.26
0.37
0.37
0.19
-0.13
-0.45
-0.64
-0.61
-0.42
-0.16
0.05
0.19
0.29
0.41
0.55
0.65
0.62
0.40
0.07
-0.25
-0.40
-0.32
-0.06
0.25
0.44
0.42
0.18
-0.17
-0.54
-0.80
-0.91
-0.87
-0.71
-0.49
-0.28
-0.14
-0.11
-0.17
-0.26
-0.30
-0.22
-0.01
0.26
0.50
0.63
0.61
0.48
0.33
0.22
0.20
0.27
0.41
0.56
0.69
0.81
0.91
0.98
0.99
0.89
0.66
0.35
0.05
-0.12
-0.12
0.03
0.20
0.28
0.19
-0.01
-0.22
-0.35
-0.36
-0.31
-0.30
-0.35
-0.48
-0.61
-0.69
-0.66
-0.52
-0.29
0.01
0.31
0.53
0.61
0.47
0.13
-0.35
-0.84
-1.21
-1.39
-1.37
-1.20
-0.98
-0.80
-0.69
-0.63
-0.60
-0.53
-0.40
-0.23
-0.04
0.09
0.14
0.13
0.07
0.01
-0.03
-0.04
-0.00
0.11
0.28
0.48
0.68
0.81
0.86
0.84
0.79
0.78
0.78
0.80
0.78
0.70
0.55
0.37
0.19
0.00
-0.17
-0.32
-0.44
-0.49
-0.45
-0.34
-0.19
-0.06
0.01
0.04
0.03
0.03
0.04
0.05
0.03
-0.04
-0.15
-0.25
-0.32
-0.33
-0.32
-0.30
-0.27
-0.23
-0.15
-0.07
-0.00
-0.01
-0.11
-0.24
-0.30
-0.20
0.11
0.56
1.00
1.27
1.29
1.08
0.78
0.54
0.43
0.45
0.49
0.48
0.39
0.26
0.15
0.08
0.03
-0.07
-0.22
-0.34
-0.34
-0.13
0.24
0.63
0.85
0.76
0.40
-0.11
-0.55
-0.77
-0.73
-0.49
-0.20
0.05
0.19
0.26
0.30
0.36
0.45
0.51
0.49
0.35
0.10
-0.22
-0.54
-0.82
-1.00
-1.05
-0.95
-0.74
-0.48
-0.26
-0.15
-0.18
-0.31
-0.46
-0.57
-0.60
-0.58
-0.52
-0.44
-0.30
-0.09
0.15
0.36
0.45
0.40
0.24
0.07
-0.04
-0.05
0.02
0.13
0.26
0.39
0.51
0.59
0.58
0.46
0.22
-0.04
-0.23
-0.28
-0.20
-0.04
0.13
0.27
0.38
0.48
0.56
0.58
0.52
0.34
0.09
-0.14
-0.27
-0.25
-0.12
0.07
0.23
0.31
0.31
0.24
0.13
0.01
-0.09
-0.17
-0.23
-0.27
-0.27
-0.23
-0.17
-0.13
-0.16
-0.27
-0.48
-0.69
-0.84
-0.84
-0.70
-0.49
-0.31
-0.24
-0.29
-0.40
-0.47
-0.43
-0.27
-0.02
0.26
0.51
0.66
0.69
0.58
0.34
0.04
-0.23
-0.36
-0.32
-0.13
0.09
0.23
0.27
0.23
0.17
0.16
0.17
0.13
-0.04
-0.32
-0.64
-0.85
-0.84
-0.61
-0.26
0.08
0.28
0.33
0.28
0.24
0.30
0.46
0.66
0.81
0.85
0.80
0.73
0.73
0.80
0.88
0.83
0.58
0.14
-0.33
-0.62
-0.58
-0.19
0.41
0.99
1.34
1.35
1.08
0.67
0.28
-0.01
-0.18
-0.31
-0.43
-0.59
-0.77
-0.91
-0.99
-1.03
-1.06
-1.11
-1.16
-1.16
-1.07
-0.87
-0.61
-0.37
-0.19
-0.09
-0.02
0.05
0.15
0.25
0.30
0.27
0.19
0.11
0.13
0.28
0.53
0.77
0.86
0.76
0.49
0.17
-0.07
-0.17
-0.11
0.02
0.15
0.22
0.23
0.22
0.23
0.26
0.27
0.22
0.11
-0.00
-0.05
0.01
0.17
0.32
0.35
0.20
-0.11
-0.46
-0.73
-0.85
-0.81
-0.67
-0.50
-0.37
-0.29
-0.23
-0.18
-0.10
0.03
0.20
0.37
0.45
0.41
0.27
0.12
0.09
0.24
0.51
0.75
0.82
0.67
0.43
0.24
0.21
0.31
0.40
0.34
0.06
-0.35
-0.73
-0.92
-0.86
-0.61
-0.27
0.01
0.17
0.16
0.00
-0.24
-0.49
-0.70
-0.85
-0.93
-0.92
-0.82
-0.60
-0.30
0.03
0.28
0.34
0.21
-0.03
-0.27
-0.36
-0.28
-0.09
0.07
0.09
-0.06
-0.32
-0.55
-0.62
-0.47
-0.11
0.33
0.71
0.90
0.84
0.57
0.21
-0.09
-0.22
-0.15
0.05
0.30
0.48
0.54
0.45
0.25
-0.01
-0.29
-0.52
-0.65
-0.62
-0.39
0.03
0.56
1.04
1.30
1.24
0.85
0.24
-0.40
-0.87
-1.06
-0.95
-0.59
-0.10
0.39
0.77
0.96
0.91
0.65
0.27
-0.08
-0.30
-0.33
-0.24
-0.16
-0.19
-0.34
-0.53
-0.65
-0.61
-0.43
-0.15
0.11
0.31
0.40
0.39
0.32
0.21
0.12
0.10
0.19
0.38
0.61
0.80
0.84
0.69
0.39
0.02
-0.28
-0.44
-0.41
-0.23
0.00
0.17
0.21
0.12
-0.06
-0.22
-0.32
-0.34
-0.30
-0.25
-0.22
-0.18
-0.13
-0.03
0.08
0.18
0.25
0.26
0.23
0.15
0.05
-0.08
-0.19
-0.25
-0.22
-0.10
0.05
0.17
0.21
0.18
0.08
0.00
-0.04
-0.03
-0.02
-0.03
-0.04
-0.04
0.01
0.13
0.27
0.35
0.32
0.16
-0.11
-0.44
-0.78
-1.05
-1.25
-1.36
-1.35
-1.24
-1.02
-0.71
-0.34
0.05
0.40
0.67
0.81
0.79
0.68
0.53
0.43
0.41
0.45
0.47
0.43
0.33
0.21
0.12
0.08
0.04
-0.04
-0.19
-0.37
-0.47
-0.45
-0.26
0.01
0.27
0.41
0.40
0.24
-0.02
-0.30
-0.50
-0.58
-0.48
-0.22
0.12
0.42
0.57
0.50
0.25
-0.07
-0.30
-0.35
-0.21
0.02
0.20
0.24
0.10
-0.16
-0.42
-0.57
-0.57
-0.43
-0.25
-0.10
-0.06
-0.15
-0.37
-0.65
-0.91
-1.08
-1.14
-1.12
-1.12
-1.28
-1.68
-2.30
-3.04
-3.73
-4.20
-4.40
-4.35
-4.19
-4.07
-4.17
-4.56
-5.23
-6.05
-6.83
-7.42
-7.79
-8.08
-8.49
-9.21
-10.26
-11.46
-12.50
-13.08
-13.10
-12.74
-12.40
-12.54
-13.47
-15.14
-17.13
-18.79
-19.60
-19.45
-18.77
-18.45
-19.39
-22.04
-26.11
-30.65
-34.45
-36.56
-36.67
-35.20
-33.01
-31.04
-29.97
-30.10
-31.44
-33.76
-36.85
-40.58
-44.99
-50.34
-57.16
-66.19
-77.90
-91.89
-106.14
-116.76
-118.64
-107.06
-79.79
-38.69
10.20
58.24
97.03
121.19
129.77
125.80
114.37
100.39
87.09
75.86
66.95
60.39
56.39
55.10
56.10
58.18
59.50
58.41
54.14
47.19
39.14
31.92
27.03
24.89
24.86
25.58
25.72
24.54
22.17
19.40
17.22
16.26
16.51
17.35
17.96
17.72
16.63
15.23
14.28
14.32
15.35
16.77
17.76
17.74
16.82
15.74
15.56
17.01
20.03
23.70
26.68
27.91
27.21
25.49
24.35
25.30
28.95
34.71
41.09
46.40
49.66
50.87
50.62
49.44
47.43
44.83
42.94
44.58
53.13
70.28
94.02
118.60
136.84
143.78
139.13
126.88
112.07
97.00
79.54
54.89
19.64
-24.73
-71.35
-111.02
-136.70
-146.77
-145.04
-138.00
-131.21
-127.00
-124.50
-121.41
-116.09
-108.64
-100.79
-94.59
-91.21
-90.16
-89.67
-87.55
-82.34
-73.99
-63.86
-54.01
-46.12
-40.74
-37.04
-33.44
-28.46
-21.48
-13.02
-4.26
3.59
9.98
15.12
19.69
24.37
29.47
34.84
40.01
44.50
47.87
49.79
50.01
48.42
45.06
40.21
34.38
28.15
22.16
16.96
13.02
10.57
9.54
9.42
9.41
8.66
6.69
3.60
0.03
-3.20
-5.53
-6.95
-7.94
-9.07
-10.63
-12.39
-13.81
-14.41
-14.06
-13.13
-12.19
-11.73
-11.85
-12.29
-12.62
-12.54
-11.99
-11.18
-10.43
-9.98
-9.88
-10.02
-10.17
-10.15
-9.84
-9.21
-8.35
-7.40
-6.48
-5.64
-4.84
-4.02
-3.15
-2.32
-1.70
-1.47
-1.71
-2.28
-2.93
-3.37
-3.48
-3.30
-3.06
-3.01
-3.30
-3.95
-4.86
-5.86
-6.81
-7.62
-8.27
-8.79
-9.24
-9.69
-10.20
-10.80
-11.53
-12.43
-13.54
-14.93
-16.61
-18.55
-20.66
-22.87
-25.13
-27.42
-29.74
-32.06
-34.32
-36.52
-38.79
-41.30
-44.20
-47.39
-50.57
-53.26
-55.11
-56.12
-56.65
-57.18
-58.06
-59.22
-60.42
-61.44
-62.45
-64.03
-66.84
-71.21
-76.90
-83.34
-89.95
-96.19
-101.34
-103.96
-101.71
-91.75
-71.71
-40.52
1.23
51.61
107.90
166.99
225.39
279.33
325.23
360.42
383.89
396.10
398.38
391.69
376.02
350.82
315.90
272.29
222.10
167.77
111.40
54.68
-0.46
-51.17
-93.77
-124.97
-143.36
-150.15
-148.78
-143.43
-137.39
-132.20
-127.83
-123.52
-118.72
-113.34
-107.64
-101.79
-95.76
-89.46
-83.00
-76.92
-71.92
-68.62
-67.13
-67.01
-67.45
-67.70
-67.46
-66.94
-66.72
-67.41
-69.29
-72.15
-75.44
-78.55
-81.04
-82.86
-84.19
-85.39
-86.73
-88.37
-90.38
-92.69
-95.11
-97.43
-99.49
-101.42
-103.88
-108.06
-115.20
-125.77
-138.52
-150.16
-156.05
-151.58
-133.72
-102.03
-58.59
-7.11
48.11
102.93
153.63
196.89
230.01
251.43
261.33
261.81
256.46
249.22
243.19
239.86
239.04
239.50
239.87
239.59
239.18
239.73
241.88
244.76
245.62
240.37
224.97
196.80
155.48
102.92
42.69
-20.57
-81.69
-135.41
-177.13
-203.96
-215.78
-215.52
-208.44
-200.31
-195.34
-194.51
-195.21
-192.26
-180.08
-155.17
-117.81
-72.32
-25.62
15.38
46.13
65.74
76.40
81.50
83.66
83.77
81.43
76.25
69.09
62.33
59.04
61.67
70.68
83.84
96.42
102.46
96.74
77.06
45.43
7.80
-28.07
-55.56
-71.59
-77.23
-76.37
-73.20
-70.12
-67.26
-63.37
-57.53
-50.29
-43.52
-39.28
-38.50
-40.38
-42.84
-43.58
-41.25
-36.02
-29.44
-23.60
-20.09
-19.37
-20.65
-22.39
-23.04
-21.80
-18.85
-15.21
-12.09
-10.38
-10.27
-11.25
-12.48
-13.13
-12.78
-11.48
-9.67
-7.92
-6.65
-6.01
-5.83
-5.80
-5.61
-5.13
-4.41
-3.61
-2.92
-2.40
-2.01
-1.65
-1.18
-0.55
0.20
0.93
1.50
1.78
1.75
1.47
1.04
0.59
0.22
-0.06
-0.30
-0.52
-0.78
-1.07
-1.39
-1.68
-1.89
-1.97
-1.89
-1.68
-1.41
-1.20
-1.15
-1.29
-1.58
-1.88
-2.08
-2.11
-1.99
-1.84
-1.77
-1.85
-2.03
-2.21
-2.24
-1.97
-1.33
-0.32
0.97
2.34
3.60
4.57
5.14
5.33
5.24
5.02
4.82
4.74
4.80
4.97
5.15
5.25
5.18
4.85
4.25
3.41
2.44
1.52
0.84
0.54
0.62
0.99
1.43
1.72
1.73
1.42
0.90
0.34
-0.14
-0.49
-0.72
-0.88
-1.02
-1.13
-1.19
-1.19
-1.19
-1.22
-1.33
-1.47
-1.58
-1.58
-1.40
-1.07
-0.67
-0.27
0.06
0.30
0.47
0.61
0.76
0.91
1.06
1.19
1.29
1.37
1.41
1.42
1.36
1.19
0.89
0.44
-0.13
-0.80
-1.49
-2.11
-2.56
-2.77
-2.71
-2.42
-2.01
-1.58
-1.22
-1.00
-0.97
-1.13
-1.48
-1.96
-2.46
-2.83
-2.97
-2.83
-2.45
-1.98
-1.54
-1.22
-1.04
-0.95
-0.90
-0.84
-0.76
-0.68
-0.65
-0.68
-0.79
-0.94
-1.07
-1.12
-1.06
-0.88
-0.60
-0.28
0.03
0.28
0.44
0.48
0.41
0.22
-0.03
-0.30
-0.52
-0.63
-0.59
-0.40
-0.09
0.29
0.65
0.91
1.03
0.97
0.74
0.40
0.04
-0.21
-0.30
-0.21
0.02
0.30
0.54
0.68
0.75
0.78
0.83
0.94
1.08
1.20
1.24
1.20
1.10
0.98
0.85
0.70
0.52
0.30
0.08
-0.12
-0.29
-0.47
-0.67
-0.93
-1.20
-1.39
-1.43
-1.30
-1.04
-0.76
-0.54
-0.40
-0.32
-0.22
-0.07
0.15
0.40
0.60
0.67
0.57
0.32
-0.01
-0.30
-0.46
-0.44
-0.28
-0.09
0.05
0.07
-0.03
-0.18
-0.32
-0.38
-0.33
-0.19
-0.00
0.22
0.46
0.71
0.95
1.15
1.27
1.27
1.12
0.82
0.44
0.08
-0.18
-0.33
-0.36
-0.34
-0.31
-0.26
-0.15
0.04
0.31
0.57
0.69
0.59
0.24
-0.25
-0.75
-1.11
-1.27
-1.23
-1.04
-0.76
-0.46
-0.18
0.04
0.16
0.17
0.09
-0.05
-0.21
-0.36
-0.46
-0.51
-0.48
-0.39
-0.24
-0.09
0.04
0.11
0.13
0.13
0.15
0.16
0.13
0.04
-0.09
-0.20
-0.22
-0.14
-0.02
0.02
-0.08
-0.30
-0.53
-0.63
-0.50
-0.14
0.34
0.83
1.19
1.35
1.28
1.02
0.62
0.17
-0.26
-0.61
-0.87
-1.05
-1.15
-1.18
-1.11
-0.97
-0.77
-0.57
-0.42
-0.32
-0.24
-0.17
-0.10
-0.02
0.06
0.15
0.26
0.37
0.44
0.39
0.21
-0.04
-0.23
-0.22
0.03
0.48
0.99
1.39
1.59
1.60
1.46
1.24
0.97
0.65
0.27
-0.15
-0.52
-0.77
-0.82
-0.67
-0.37
-0.04
0.23
0.37
0.38
0.31
0.22
0.16
0.17
0.24
0.32
0.38
0.41
0.40
0.35
0.29
0.19
0.05
-0.14
-0.38
-0.63
-0.83
-0.91
-0.85
-0.63
-0.32
0.01
0.31
0.50
0.56
0.51
0.34
0.08
-0.22
-0.48
-0.65
-0.63
-0.43
-0.04
0.47
1.00
1.43
1.63
1.53
1.11
0.44
-0.31
-0.94
-1.27
-1.21
-0.82
-0.29
0.18
0.42
0.38
0.11
-0.28
-0.69
-1.03
-1.28
-1.44
-1.52
-1.49
-1.35
-1.10
-0.80
-0.55
-0.42
-0.44
-0.56
-0.68
-0.68
-0.50
-0.15
0.25
0.58
0.76
0.75
0.63
0.51
0.49
0.59
0.77
0.92
0.96
0.84
0.59
0.29
0.01
-0.21
-0.33
-0.39
-0.38
-0.31
-0.17
0.07
0.36
0.63
0.79
0.76
0.52
0.11
-0.31
-0.59
-0.61
-0.36
0.04
0.43
0.61
0.51
0.16
-0.33
-0.77
-1.03
-1.02
-0.76
-0.33
0.15
0.56
0.80
0.85
0.72
0.50
0.29
0.19
0.21
0.35
0.53
0.68
0.75
0.74
0.66
0.54
0.38
0.18
-0.03
-0.23
-0.34
-0.33
-0.22
-0.08
0.02
0.00
-0.14
-0.35
-0.53
-0.59
-0.52
-0.35
-0.15
-0.02
-0.02
-0.13
-0.30
-0.48
-0.62
-0.71
-0.74
-0.74
-0.69
-0.56
-0.33
-0.01
0.35
0.65
0.83
0.85
0.74
0.54
0.34
0.21
0.20
0.31
0.50
0.73
0.90
0.97
0.89
0.66
0.33
-0.03
-0.36
-0.59
-0.68
-0.63
-0.51
-0.40
-0.36
-0.37
-0.35
-0.18
0.17
0.65
1.06
1.20
0.96
0.39
-0.32
-0.93
-1.27
-1.33
-1.21
-1.03
-0.88
-0.77
-0.66
-0.51
-0.33
-0.15
0.01
0.16
0.29
0.42
0.52
0.54
0.48
0.38
0.30
0.29
0.38
0.48
0.53
0.49
0.39
0.32
0.34
0.45
0.58
0.60
0.44
0.14
-0.18
-0.37
-0.36
-0.18
0.06
0.21
0.20
0.02
-0.26
-0.54
-0.76
-0.88
-0.90
-0.83
-0.69
-0.51
-0.32
-0.16
-0.06
-0.02
-0.01
0.01
0.07
0.17
0.28
0.38
0.45
0.53
0.64
0.78
0.91
0.98
0.94
0.78
0.52
0.26
0.06
-0.02
0.01
0.06
0.06
-0.07
-0.36
-0.70
-0.99
-1.08
-0.94
-0.62
-0.24
0.08
0.26
0.28
0.21
0.09
-0.03
-0.12
-0.17
-0.16
-0.06
0.09
0.22
0.25
0.14
-0.09
-0.37
-0.61
-0.74
-0.73
-0.57
-0.27
0.13
0.60
1.07
1.45
1.64
1.59
1.33
0.94
0.54
0.22
0.00
-0.14
-0.22
-0.27
-0.26
-0.15
0.02
0.22
0.37
0.42
0.37
0.29
0.26
0.30
0.40
0.48
0.47
0.35
0.17
-0.04
-0.22
-0.36
-0.45
-0.47
-0.38
-0.18
0.11
0.40
0.61
0.72
0.76
0.80
0.89
0.97
0.94
0.74
0.40
0.08
-0.06
0.06
0.36
0.67
0.80
0.68
0.40
0.07
-0.21
-0.41
-0.59
-0.76
-0.89
-0.93
-0.81
-0.56
-0.24
0.03
0.20
0.27
0.31
0.35
0.40
0.41
0.33
0.11
-0.20
-0.53
-0.74
-0.77
-0.63
-0.41
-0.24
-0.20
-0.29
-0.42
-0.48
-0.43
-0.31
-0.24
-0.32
-0.56
-0.85
-1.05
-1.07
-0.96
-0.82
-0.78
-0.88
-1.01
-1.06
-0.89
-0.50
0.01
0.44
0.64
0.53
0.13
-0.40
-0.91
-1.22
-1.25
-1.04
-0.68
-0.33
-0.09
0.01
-0.01
-0.04
-0.02
0.07
0.20
0.33
0.40
0.41
0.37
0.34
0.32
0.30
0.27
0.18
0.06
-0.07
-0.17
-0.22
-0.25
-0.30
-0.41
-0.57
-0.74
-0.85
-0.84
-0.75
-0.63
-0.54
-0.48
-0.44
-0.36
-0.22
-0.02
0.20
0.40
0.53
0.59
0.58
0.55
0.55
0.65
0.88
1.20
1.51
1.73
1.80
1.71
1.53
1.30
1.07
0.83
0.58
0.32
0.10
-0.05
-0.11
-0.12
-0.12
-0.19
-0.31
-0.47
-0.63
-0.77
-0.88
-0.99
-1.11
-1.27
-1.42
-1.51
-1.50
-1.35
-1.10
-0.84
-0.62
-0.49
-0.40
-0.29
-0.08
0.23
0.58
0.85
0.98
0.98
0.91
0.88
0.89
0.92
0.89
0.78
0.61
0.43
0.30
0.24
0.22
0.22
0.20
0.18
0.15
0.12
0.06
-0.07
-0.27
-0.50
-0.69
-0.77
-0.72
-0.57
-0.40
-0.28
-0.26
-0.34
-0.46
-0.53
-0.49
-0.31
-0.04
0.24
0.40
0.38
0.18
-0.11
-0.35
-0.48
-0.46
-0.33
-0.17
0.02
0.22
0.48
0.79
1.07
1.22
1.15
0.86
0.44
0.04
-0.19
-0.17
0.04
0.34
0.58
0.68
0.63
0.50
0.35
0.23
0.17
0.16
0.17
0.19
0.21
0.21
0.19
0.15
0.13
0.18
0.32
0.50
0.63
0.60
0.37
-0.01
-0.40
-0.65
-0.67
-0.47
-0.15
0.16
0.37
0.47
0.48
0.43
0.37
0.27
0.14
-0.02
-0.16
-0.24
-0.24
-0.19
-0.14
-0.17
-0.33
-0.58
-0.85
-1.01
-0.95
-0.66
-0.23
0.22
0.54
0.68
0.66
0.54
0.42
0.31
0.18
-0.02
-0.30
-0.58
-0.76
-0.74
-0.50
-0.14
0.18
0.34
0.30
0.12
-0.05
-0.12
-0.06
0.05
0.13
0.13
0.05
-0.02
-0.02
0.06
0.15
0.17
0.02
-0.30
-0.69
-1.01
-1.15
-1.05
-0.79
-0.47
-0.26
-0.21
-0.34
-0.56
-0.80
-0.98
-1.06
-1.02
-0.85
-0.55
-0.12
0.38
0.88
1.28
1.48
1.45
1.21
0.85
0.47
0.20
0.08
0.13
0.30
0.52
0.71
0.79
0.71
0.47
0.11
-0.28
-0.60
-0.74
-0.67
-0.46
-0.24
-0.12
-0.17
-0.32
-0.51
-0.63
-0.67
-0.66
-0.65
-0.67
-0.72
-0.78
-0.84
-0.89
-0.91
-0.90
-0.83
-0.70
-0.54
-0.44
-0.48
-0.72
-1.12
-1.61
-2.04
-2.27
-2.17
-1.67
-0.76
0.50
1.96
3.42
4.65
5.48
5.81
5.66
5.17
4.51
3.84
3.22
2.67
2.12
1.54
0.90
0.25
-0.35
-0.82
-1.11
-1.21
-1.19
-1.12
-1.08
-1.12
-1.23
-1.35
-1.40
-1.33
-1.16
-0.95
-0.76
-0.66
-0.66
-0.72
-0.80
-0.83
-0.79
-0.67
-0.50
-0.32
-0.20
-0.17
-0.25
-0.42
-0.62
-0.80
-0.91
-0.95
-0.91
-0.80
-0.62
-0.37
-0.07
0.20
0.39
0.46
0.42
0.35
0.30
0.32
0.37
0.39
0.38
0.35
0.38
0.53
0.78
1.00
1.06
0.90
0.56
0.17
-0.12
-0.24
-0.26
-0.27
-0.37
-0.54
-0.72
-0.78
-0.65
-0.36
0.03
0.39
0.66
0.80
0.83
0.77
0.65
0.46
0.22
-0.06
-0.36
-0.65
-0.87
-1.00
-0.99
-0.84
-0.57
-0.24
0.06
0.26
0.35
0.32
0.24
0.15
0.05
-0.08
-0.27
-0.51
-0.71
-0.74
-0.53
-0.11
0.40
0.77
0.86
0.61
0.15
-0.35
-0.70
-0.80
-0.65
-0.35
-0.01
0.28
0.48
0.59
0.66
0.72
0.79
0.83
0.82
0.72
0.53
0.29
0.04
-0.21
-0.45
-0.68
-0.92
-1.11
-1.22
-1.16
-0.93
-0.57
-0.20
0.07
0.16
0.10
-0.02
-0.09
-0.03
0.14
0.33
0.43
0.40
0.26
0.13
0.10
0.18
0.32
0.41
0.36
0.18
-0.02
-0.13
-0.03
0.25
0.59
0.82
0.78
0.47
0.00
-0.41
-0.58
-0.44
-0.05
0.41
0.73
0.80
0.61
0.31
0.05
-0.04
0.09
0.36
0.65
0.83
0.81
0.58
0.21
-0.19
-0.50
-0.67
-0.70
-0.63
-0.49
-0.28
-0.00
0.33
0.67
0.91
0.96
0.81
0.52
0.20
-0.03
-0.14
-0.17
-0.21
-0.31
-0.44
-0.55
-0.59
-0.54
-0.46
-0.41
-0.42
-0.49
-0.58
-0.64
-0.61
-0.49
-0.27
-0.01
0.26
0.46
0.58
0.58
0.51
0.38
0.22
0.04
-0.14
-0.30
-0.41
-0.43
-0.37
-0.28
-0.23
-0.30
-0.50
-0.79
-1.05
-1.18
-1.11
-0.86
-0.50
-0.14
0.13
0.27
0.28
0.21
0.14
0.14
0.25
0.46
0.68
0.83
0.85
0.74
0.58
0.46
0.43
0.45
0.43
0.32
0.15
0.02
0.02
0.17
0.36
0.44
0.32
-0.01
-0.38
-0.65
-0.69
-0.54
-0.30
-0.12
-0.08
-0.15
-0.26
-0.34
-0.35
-0.33
-0.33
-0.37
-0.41
-0.42
-0.36
-0.25
-0.13
-0.06
-0.09
-0.24
-0.48
-0.71
-0.83
-0.74
-0.39
0.16
0.79
1.34
1.67
1.73
1.56
1.25
0.90
0.58
0.28
-0.01
-0.29
-0.52
-0.66
-0.69
-0.61
-0.44
-0.26
-0.12
-0.08
-0.19
-0.39
-0.61
-0.74
-0.69
-0.47
-0.15
0.11
0.21
0.14
-0.00
-0.08
0.01
0.26
0.54
0.71
0.68
0.45
0.11
-0.21
-0.41
-0.46
-0.38
-0.23
-0.05
0.14
0.30
0.42
0.48
0.47
0.41
0.34
0.29
0.30
0.34
0.37
0.32
0.15
-0.10
-0.37
-0.54
-0.52
-0.34
-0.04
0.23
0.40
0.45
0.43
0.39
0.37
0.36
0.30
0.14
-0.10
-0.34
-0.47
-0.45
-0.29
-0.11
-0.03
-0.12
-0.34
-0.59
-0.74
-0.72
-0.51
-0.19
0.14
0.40
0.56
0.64
0.66
0.60
0.44
0.16
-0.21
-0.60
-0.92
-1.09
-1.10
-0.98
-0.77
-0.53
-0.29
-0.08
0.10
0.21
0.24
0.22
0.17
0.14
0.16
0.25
0.41
0.58
0.76
0.89
0.96
0.96
0.89
0.79
0.67
0.57
0.49
0.44
0.43
0.42
0.35
0.17
-0.13
-0.52
-0.89
-1.14
-1.19
-1.03
-0.72
-0.36
-0.03
0.21
0.31
0.26
0.08
-0.16
-0.38
-0.49
-0.42
-0.23
0.03
0.23
0.32
0.27
0.12
-0.05
-0.20
-0.27
-0.26
-0.20
-0.12
-0.03
0.06
0.15
0.26
0.35
0.40
0.39
0.32
0.26
0.24
0.26
0.27
0.15
-0.15
-0.57
-0.98
-1.19
-1.06
-0.59
0.10
0.80
1.34
1.60
1.54
1.19
0.67
0.11
-0.35
-0.60
-0.61
-0.42
-0.13
0.13
0.30
0.35
0.34
0.32
0.28
0.23
0.16
0.10
0.08
0.11
0.17
0.16
0.01
-0.30
-0.68
-1.00
-1.17
-1.15
-0.97
-0.72
-0.45
-0.18
0.08
0.29
0.40
0.36
0.15
-0.15
-0.44
-0.63
-0.69
-0.66
-0.61
-0.63
-0.73
-0.86
-0.94
-0.90
-0.71
-0.35
0.10
0.55
0.90
1.04
0.96
0.69
0.34
0.05
-0.06
0.03
0.30
0.59
0.76
0.70
0.41
0.01
-0.30
-0.39
-0.23
0.08
0.35
0.42
0.28
0.05
-0.07
0.07
0.44
0.86
1.07
0.92
0.41
-0.24
-0.74
-0.89
-0.62
-0.08
0.48
0.87
0.99
0.91
0.78
0.73
0.80
0.92
0.98
0.87
0.57
0.18
-0.19
-0.41
-0.44
-0.28
-0.04
0.21
0.37
0.39
0.28
0.07
-0.19
-0.45
-0.68
-0.87
-0.99
-1.05
-1.06
-1.01
-0.95
-0.87
-0.81
-0.76
-0.72
-0.66
-0.59
-0.51
-0.43
-0.34
-0.23
-0.12
0.01
0.11
0.15
0.10
-0.03
-0.21
-0.37
-0.44
-0.40
-0.26
-0.09
0.07
0.16
0.17
0.11
0.00
-0.09
-0.12
-0.04
0.16
0.41
0.64
0.76
0.72
0.52
0.23
-0.08
-0.35
-0.52
-0.58
-0.52
-0.36
-0.13
0.10
0.31
0.48
0.60
0.70
0.77
0.79
0.75
0.67
0.55
0.46
0.40
0.36
0.29
0.15
-0.07
-0.33
-0.56
-0.67
-0.64
-0.51
-0.35
-0.21
-0.11
-0.03
0.07
0.19
0.27
0.27
0.15
-0.05
-0.26
-0.39
-0.40
-0.28
-0.09
0.11
0.28
0.39
0.40
0.31
0.13
-0.09
-0.27
-0.34
-0.27
-0.13
-0.04
-0.08
-0.29
-0.56
-0.79
-0.86
-0.73
-0.46
-0.14
0.14
0.33
0.43
0.47
0.48
0.47
0.47
0.48
0.51
0.55
0.59
0.62
0.61
0.56
0.46
0.32
0.17
0.03
-0.10
-0.22
-0.34
-0.43
-0.46
-0.36
-0.12
0.24
0.59
0.81
0.81
0.60
0.29
-0.00
-0.16
-0.17
-0.09
0.02
0.09
0.10
0.09
0.09
0.15
0.27
0.39
0.42
0.29
-0.03
-0.48
-0.99
-1.44
-1.73
-1.79
-1.64
-1.32
-0.92
-0.51
-0.14
0.15
0.37
0.53
0.62
0.62
0.51
0.30
0.06
-0.13
-0.20
-0.13
0.03
0.17
0.24
0.22
0.17
0.15
0.19
0.26
0.32
0.33
0.32
0.32
0.34
0.39
0.39
0.30
0.13
-0.10
-0.29
-0.42
-0.46
-0.45
-0.40
-0.35
-0.31
-0.27
-0.25
-0.27
-0.32
-0.35
-0.34
-0.25
-0.08
0.16
0.41
0.62
0.78
0.85
0.82
0.69
0.48
0.24
0.03
-0.11
-0.17
-0.16
-0.08
0.09
0.35
0.68
1.00
1.19
1.13
0.81
0.28
-0.27
-0.67
-0.79
-0.61
-0.24
0.13
0.35
0.34
0.14
-0.15
-0.39
-0.53
-0.54
-0.46
-0.37
-0.33
-0.39
-0.53
-0.73
-0.90
-0.95
-0.83
-0.53
-0.14
0.25
0.53
0.66
0.63
0.49
0.29
0.09
-0.07
-0.15
-0.09
0.09
0.31
0.50
0.54
0.40
0.14
-0.14
-0.34
-0.40
-0.33
-0.20
-0.06
0.03
0.08
0.11
0.13
0.16
0.17
0.14
0.07
-0.02
-0.11
-0.18
-0.20
-0.18
-0.13
-0.08
-0.05
-0.05
-0.08
-0.15
-0.23
-0.31
-0.36
-0.33
-0.22
-0.05
0.13
0.25
0.26
0.16
-0.02
-0.16
-0.20
-0.09
0.14
0.42
0.64
0.75
0.76
0.68
0.55
0.40
0.26
0.16
0.11
0.10
0.10
0.05
-0.10
-0.33
-0.58
-0.78
-0.84
-0.77
-0.64
-0.53
-0.51
-0.53
-0.53
-0.45
-0.29
-0.14
-0.13
-0.35
-0.80
-1.37
-1.91
-2.27
-2.40
-2.37
-2.30
-2.36
-2.61
-3.09
-3.73
-4.43
-5.08
-5.59
-5.90
-6.03
-6.10
-6.28
-6.79
-7.77
-9.18
-10.84
-12.37
-13.45
-13.87
-13.71
-13.31
-13.24
-13.99
-15.77
-18.36
-20.99
-22.53
-21.86
-18.34
-12.16
-4.43
3.06
8.40
10.16
7.87
2.10
-5.75
-14.03
-21.37
-27.15
-31.55
-35.33
-39.45
-44.54
-50.57
-56.66
-61.23
-62.41
-58.87
-50.45
-38.54
-25.80
-15.25
-9.14
-8.15
-11.30
-16.72
-22.74
-28.72
-35.16
-43.02
-53.06
-65.28
-78.92
-92.66
-104.61
-112.25
-112.61
-102.97
-82.11
-51.34
-14.62
22.59
55.23
80.37
97.75
109.03
116.22
120.55
122.16
120.78
116.70
111.10
105.70
101.88
99.93
99.00
97.62
94.58
89.64
83.61
78.02
74.38
73.48
75.05
77.90
80.39
81.19
79.83
76.90
73.77
71.97
72.54
75.45
79.60
83.20
84.47
82.38
77.00
69.59
62.36
58.12
59.69
69.12
86.60
109.67
133.16
150.20
154.10
140.40
108.36
61.27
5.49
-51.22
-101.63
-140.52
-165.41
-176.62
-176.74
-169.56
-159.02
-148.12
-138.45
-130.32
-123.32
-116.97
-111.14
-105.97
-101.65
-98.13
-95.07
-91.94
-88.27
-83.92
-79.02
-73.83
-68.43
-62.55
-55.68
-47.36
-37.38
-25.60
-11.66
5.24
26.10
51.39
80.06
108.85
132.71
146.24
145.66
130.53
104.12
72.34
41.66
16.96
0.37
-8.69
-12.36
-13.00
-12.21
-10.75
-8.96
-7.34
-6.73
-8.02
-11.46
-16.41
-21.46
-25.05
-26.16
-24.78
-21.90
-18.94
-17.11
-16.86
-17.83
-19.09
-19.71
-19.19
-17.69
-15.83
-14.36
-13.77
-14.05
-14.82
-15.53
-15.78
-15.44
-14.68
-13.75
-12.91
-12.25
-11.72
-11.28
-10.88
-10.55
-10.37
-10.42
-10.75
-11.31
-12.04
-12.81
-13.59
-14.43
-15.47
-16.90
-18.77
-21.02
-23.37
-25.53
-27.33
-28.82
-30.32
-32.26
-35.00
-38.68
-43.22
-48.34
-53.74
-59.19
-64.45
-69.33
-73.69
-77.40
-80.47
-83.07
-85.55
-88.39
-92.18
-97.52
-104.88
-114.47
-126.19
-139.77
-154.79
-170.65
-186.26
-199.70
-208.31
-209.10
-199.72
-179.35
-149.00
-110.93
-67.60
-20.86
28.13
78.01
126.33
169.34
202.93
224.28
233.27
232.66
226.98
220.61
216.24
214.36
213.83
213.12
211.38
208.81
206.39
205.19
205.80
208.06
211.25
214.40
216.76
218.11
218.82
219.62
221.12
223.49
226.44
229.49
232.36
235.00
237.30
238.48
236.79
229.86
215.47
192.59
161.88
125.31
85.13
42.71
-1.78
-48.75
-97.78
-146.45
-190.42
-224.68
-245.55
-252.24
-247.16
-234.75
-219.62
-204.89
-191.56
-179.16
-166.88
-154.57
-142.88
-132.72
-124.53
-117.86
-111.61
-104.69
-96.59
-87.60
-78.67
-70.82
-64.67
-60.16
-56.64
-53.21
-49.14
-44.16
-38.54
-32.94
-28.03
-24.28
-21.68
-19.86
-18.27
-16.43
-14.16
-11.58
-9.06
-6.96
-5.50
-4.68
-4.31
-4.11
-3.85
-3.40
-2.78
-2.10
-1.51
-1.09
-0.88
-0.84
-0.90
-1.01
-1.13
-1.23
-1.31
-1.32
-1.22
-0.96
-0.54
-0.03
0.43
0.73
0.81
0.72
0.54
0.38
0.30
0.26
0.22
0.14
-0.00
-0.17
-0.31
-0.43
-0.52
-0.59
-0.63
-0.61
-0.52
-0.36
-0.15
0.02
0.11
0.11
0.02
-0.13
-0.32
-0.54
-0.77
-0.97
-1.07
-0.98
-0.67
-0.16
0.46
1.09
1.62
2.00
2.23
2.31
2.24
2.05
1.76
1.43
1.15
1.01
1.02
1.12
1.22
1.21
1.06
0.84
0.65
0.55
0.56
0.62
0.64
0.55
0.34
0.07
-0.17
-0.31
-0.35
-0.36
-0.38
-0.46
-0.55
-0.59
-0.49
-0.27
-0.05
0.03
-0.14
-0.52
-0.95
-1.20
-1.14
-0.81
-0.39
-0.13
-0.16
-0.45
-0.81
-1.04
-1.01
-0.79
-0.52
-0.35
-0.30
-0.29
-0.18
0.11
0.54
0.95
1.16
1.08
0.75
0.33
0.04
-0.00
0.23
0.62
0.99
1.19
1.12
0.79
0.29
-0.23
-0.62
-0.77
-0.68
-0.41
-0.10
0.14
0.19
0.04
-0.27
-0.66
-1.05
-1.36
-1.51
-1.46
-1.16
-0.63
0.04
0.70
1.18
1.39
1.31
1.04
0.72
0.49
0.40
0.41
0.43
0.40
0.30
0.16
0.03
-0.07
-0.15
-0.24
-0.37
-0.51
-0.61
-0.64
-0.57
-0.44
-0.30
-0.21
-0.18
-0.21
-0.26
-0.24
-0.10
0.17
0.49
0.70
0.67
0.34
-0.15
-0.60
-0.78
-0.59
-0.10
0.52
1.08
1.49
1.76
1.96
2.14
2.26
2.26
2.08
1.76
1.38
1.01
0.68
0.39
0.09
-0.25
-0.59
-0.90
-1.12
-1.22
-1.23
-1.20
-1.21
-1.30
-1.49
-1.73
-1.94
-2.02
-1.93
-1.67
-1.32
-0.97
-0.71
-0.60
-0.63
-0.78
-0.98
-1.13
-1.14
-0.90
-0.31
0.61
1.76
2.89
