1660929410.00
64.000000
-0.00
-0.00
-0.00
-0.00
-0.00
-0.00
-0.00
-0.00
-0.00
-0.00
0.00
0.01
0.01
-0.00
-0.03
-0.05
-0.05
0.00
0.13
0.36
0.66
1.01
1.37
1.72
2.06
2.40
2.79
3.25
3.81
4.44
5.10
5.73
6.32
6.89
7.51
8.25
9.15
10.29
11.57
12.84
13.99
14.97
15.86
16.86
18.20
20.04
22.56
25.56
28.71
31.73
34.47
37.06
39.87
43.37
47.86
53.68
60.42
67.48
74.28
80.54
86.46
92.67
99.96
108.83
119.67
131.80
144.23
156.06
166.86
176.96
187.32
199.46
212.06
227.07
244.68
264.61
285.53
304.76
318.49
322.67
314.30
292.43
258.98
217.07
170.40
121.95
73.57
26.16
-19.67
-63.21
-103.75
-140.69
-174.57
-206.66
-238.75
-272.40
-308.06
-344.44
-378.31
-405.31
-421.10
-423.17
-411.80
-390.02
-362.40
-333.28
-305.44
-279.66
-255.47
-232.08
-209.41
-188.10
-168.92
-152.19
-137.42
-123.56
-109.63
-95.23
-80.64
-66.79
-54.64
-44.74
-36.93
-30.46
-24.40
-18.03
-11.16
-4.17
2.29
7.63
11.63
14.46
16.59
18.46
20.31
22.15
23.83
25.18
26.14
26.72
26.98
26.98
26.74
26.30
25.71
25.09
24.55
24.13
23.79
23.40
22.84
22.02
21.01
19.94
18.98
18.26
17.77
17.43
17.13
16.83
16.53
16.29
16.14
16.02
15.82
15.44
14.85
14.14
13.48
12.98
12.69
12.51
12.30
11.96
11.46
10.92
10.46
10.19
10.10
10.11
10.12
10.03
9.81
9.48
9.09
8.67
8.25
7.85
7.48
7.15
6.87
6.63
6.47
6.40
6.39
6.37
6.24
5.91
5.38
4.73
4.11
3.65
3.40
3.26
3.07
2.68
2.05
1.24
0.40
-0.34
-0.89
-1.28
-1.55
-1.77
-2.00
-2.26
-2.57
-2.92
-3.32
-3.79
-4.34
-5.01
-5.82
-6.76
-7.75
-8.65
-9.29
-9.57
-9.47
-9.12
-8.73
-8.48
-8.44
-8.52
-8.55
-8.37
-7.90
-7.21
-6.47
-5.84
-5.45
-5.24
-5.12
-4.92
-4.51
-3.87
-3.10
-2.34
-1.78
-1.48
-1.45
-1.55
-1.63
-1.55
-1.28
-0.88
-0.46
-0.13
0.06
0.15
0.19
0.28
0.46
0.75
1.10
1.41
1.60
1.63
1.54
1.44
1.44
1.63
1.95
2.31
2.56
2.64
2.61
2.60
2.76
3.13
3.62
4.10
4.45
4.66
4.85
5.18
5.77
6.66
7.75
8.92
9.99
10.87
11.48
11.79
11.78
11.47
10.91
10.17
9.35
8.46
7.54
6.57
5.59
4.67
3.92
3.41
3.17
3.13
3.17
3.21
3.18
3.07
2.89
2.67
2.43
2.20
2.02
1.90
1.87
1.87
1.87
1.83
1.76
1.66
1.56
1.45
1.30
1.08
0.77
0.41
0.07
-0.12
-0.01
0.49
1.37
2.47
3.48
4.01
3.77
2.71
1.07
-0.71
-2.20
-3.11
-3.43
-3.31
-2.99
-2.65
-2.49
-2.80
-3.91
-5.96
-8.60
-10.93
-11.82
-10.48
-7.03
-2.52
1.51
3.88
4.39
3.85
3.47
4.11
5.74
7.53
8.51
8.14
6.72
5.10
4.19
4.39
5.49
6.80
7.62
7.56
6.69
5.43
4.30
3.58
3.29
3.14
2.81
2.09
1.00
-0.20
-1.19
-1.71
-1.70
-1.32
-0.84
-0.53
-0.54
-0.83
-1.17
-1.29
-1.02
-0.35
0.54
1.36
1.88
1.97
1.70
1.27
0.88
0.65
0.62
0.74
0.90
1.05
1.15
1.21
1.22
1.20
1.12
0.98
0.81
0.63
0.48
0.35
0.24
0.12
-0.01
-0.11
-0.16
-0.14
-0.07
-0.01
0.04
0.09
0.21
0.47
0.85
1.27
1.58
1.67
1.50
1.14
0.76
0.51
0.45
0.56
0.70
0.71
0.53
0.16
-0.27
-0.59
-0.67
-0.50
-0.18
0.18
0.46
0.64
0.73
0.79
0.82
0.77
0.60
0.33
0.03
-0.15
-0.13
0.10
0.44
0.71
0.77
0.62
0.34
0.11
0.02
0.13
0.31
0.46
0.44
0.24
-0.09
-0.44
-0.69
-0.76
-0.64
-0.36
-0.03
0.24
0.35
0.27
0.08
-0.13
-0.25
-0.23
-0.07
0.16
0.41
0.64
0.83
0.96
1.02
0.98
0.85
0.67
0.48
0.34
0.27
0.23
0.19
0.10
-0.05
-0.27
-0.48
-0.60
-0.58
-0.38
-0.03
0.37
0.70
0.84
0.76
0.48
0.11
-0.23
-0.40
-0.35
-0.07
0.34
0.79
1.16
1.35
1.33
1.15
0.90
0.68
0.59
0.63
0.74
0.81
0.76
0.55
0.25
-0.02
-0.15
-0.12
-0.01
0.06
-0.01
-0.21
-0.44
-0.52
-0.39
-0.09
0.25
0.44
0.39
0.14
-0.17
-0.44
-0.59
-0.65
-0.68
-0.71
-0.69
-0.61
-0.46
-0.30
-0.21
-0.20
-0.23
-0.23
-0.11
0.12
0.42
0.71
0.95
1.09
1.12
1.05
0.90
0.73
0.61
0.60
0.69
0.79
0.80
0.69
0.45
0.21
0.03
-0.03
-0.01
0.01
-0.00
-0.04
-0.04
0.05
0.25
0.52
0.76
0.86
0.77
0.50
0.15
-0.13
-0.26
-0.23
-0.12
-0.06
-0.11
-0.27
-0.45
-0.54
-0.51
-0.39
-0.26
-0.21
-0.25
-0.34
-0.39
-0.35
-0.20
0.03
0.25
0.44
0.57
0.62
0.63
0.61
0.59
0.57
0.57
0.53
0.44
0.25
-0.01
-0.30
-0.49
-0.49
-0.27
0.12
0.54
0.85
0.97
0.91
0.74
0.57
0.45
0.41
0.43
0.49
0.56
0.62
0.62
0.53
0.30
-0.05
-0.49
-0.93
-1.30
-1.52
-1.56
-1.45
-1.24
-0.98
-0.75
-0.54
-0.35
-0.15
0.09
0.34
0.53
0.63
0.61
0.52
0.42
0.36
0.35
0.35
0.30
0.15
-0.09
-0.35
-0.52
-0.50
-0.28
0.09
0.51
0.87
1.15
1.34
1.49
1.59
1.58
1.37
0.91
0.27
-0.40
-0.89
-1.07
-0.97
-0.70
-0.44
-0.30
-0.28
-0.27
-0.20
-0.04
0.12
0.18
0.07
-0.22
-0.60
-0.94
-1.14
-1.12
-0.89
-0.49
-0.01
0.47
0.85
1.05
1.05
0.84
0.50
0.11
-0.23
-0.43
-0.47
-0.39
-0.27
-0.15
-0.07
-0.00
0.06
0.13
0.20
0.21
0.13
-0.05
-0.27
-0.47
-0.53
-0.44
-0.22
0.04
0.23
0.28
0.18
-0.03
-0.26
-0.49
-0.74
-1.08
-1.58
-2.23
-2.95
-3.60
-4.05
-4.26
-4.21
-3.96
-3.57
-3.10
-2.64
-2.35
-2.35
-2.70
-3.33
-4.05
-4.60
-4.83
-4.76
-4.53
-4.33
-4.27
-4.32
-4.33
-4.20
-3.91
-3.54
-3.27
-3.23
-3.46
-3.94
-4.58
-5.28
-5.98
-6.62
-7.15
-7.54
-7.79
-8.01
-8.33
-8.90
-9.75
-10.78
-11.77
-12.46
-12.68
-12.48
-12.10
-11.91
-12.28
-13.46
-15.42
-17.82
-20.01
-21.10
-20.27
-17.11
-11.86
-5.46
0.70
5.37
7.84
8.23
7.26
5.87
4.70
3.89
3.17
2.12
0.47
-1.74
-4.22
-6.44
-7.85
-7.86
-6.09
-2.38
3.00
9.43
16.02
21.87
26.34
29.13
30.28
30.04
28.74
26.71
24.33
21.98
20.03
18.75
18.16
18.03
17.92
17.38
16.14
14.22
11.97
9.86
8.32
7.49
7.22
7.07
6.57
5.38
3.50
1.29
-0.66
-1.77
-1.73
-0.66
0.90
2.12
2.20
0.61
-2.70
-7.29
-12.39
-17.22
-21.23
-24.31
-26.78
-29.15
-31.78
-34.68
-37.47
-39.61
-40.76
-41.05
-41.04
-41.46
-42.81
-45.05
-47.71
-50.20
-52.18
-53.77
-55.47
-57.82
-61.07
-65.11
-69.53
-73.93
-78.05
-81.91
-85.72
-89.83
-94.78
-101.40
-110.75
-123.70
-140.18
-158.44
-174.78
-184.23
-182.05
-165.46
-134.92
-94.02
-48.36
-3.67
35.93
68.62
94.55
114.78
130.25
141.25
147.61
149.37
147.34
143.20
139.05
136.67
136.81
138.95
141.73
143.71
144.18
143.50
142.92
143.83
146.97
151.98
157.55
162.02
164.18
163.74
161.33
158.06
154.92
152.51
150.98
150.28
150.12
149.64
146.96
139.35
124.16
100.17
68.62
33.15
-1.53
-31.47
-54.80
-71.72
-83.43
-90.77
-93.56
-90.97
-82.71
-69.74
-54.21
-38.56
-24.77
-14.03
-7.17
-5.01
-8.24
-16.81
-29.25
-42.77
-54.08
-60.66
-61.71
-58.20
-52.03
-44.84
-37.31
-29.22
-20.09
-10.08
-0.41
6.88
9.78
7.31
0.12
-9.58
-18.68
-24.43
-25.47
-22.20
-16.40
-10.19
-5.01
-0.96
2.89
7.81
14.50
22.64
31.00
38.06
42.80
45.15
45.99
46.62
48.04
50.52
53.67
56.99
60.20
63.09
64.75
63.12
55.33
39.04
14.14
-16.40
-47.14
-72.31
-88.18
-94.37
-93.38
-88.82
-83.48
-78.41
-73.34
-67.81
-62.05
-57.04
-53.86
-52.77
-52.99
-53.04
-51.49
-47.70
-42.04
-35.73
-30.13
-26.26
-24.33
-23.81
-23.72
-23.10
-21.40
-18.60
-15.20
-11.85
-9.12
-7.21
-5.98
-5.03
-3.95
-2.55
-0.94
0.45
1.14
0.85
-0.38
-2.11
-3.76
-4.87
-5.32
-5.35
-5.39
-5.76
-6.51
-7.38
-7.98
-8.08
-7.65
-6.94
-6.30
-5.97
-5.97
-6.17
-6.32
-6.23
-5.79
-5.04
-4.09
-3.08
-2.12
-1.27
-0.53
0.17
0.83
1.45
1.94
2.24
2.29
2.12
1.75
1.24
0.59
-0.19
-1.10
-2.06
-2.94
-3.60
-3.93
-3.91
-3.69
-3.41
-3.22
-3.19
-3.24
-3.22
-2.92
-2.21
-1.00
0.71
2.80
5.08
7.29
9.09
10.16
10.26
9.32
7.51
5.18
2.83
0.89
-0.34
-0.82
-0.68
-0.18
0.43
0.97
1.38
1.65
1.84
1.98
2.08
2.13
2.14
2.11
2.04
1.96
1.85
1.75
1.68
1.65
1.69
1.80
1.98
2.20
2.41
2.59
2.67
2.60
2.32
1.77
0.94
-0.10
-1.22
-2.27
-3.10
-3.65
-3.93
-3.96
-3.75
-3.32
-2.73
-2.11
-1.65
-1.53
-1.84
-2.50
-3.28
-3.93
-4.31
-4.40
-4.30
-4.17
-4.09
-4.05
-4.01
-3.88
-3.61
-3.22
-2.74
-2.26
-1.83
-1.47
-1.11
-0.64
0.05
1.00
2.14
3.29
4.26
4.87
5.08
4.89
4.39
3.71
2.95
2.24
1.73
1.55
1.75
2.25
2.88
3.42
3.68
3.61
3.25
2.69
2.03
1.36
0.72
0.17
-0.25
-0.48
-0.52
-0.44
-0.32
-0.26
-0.34
-0.52
-0.78
-1.03
-1.21
-1.29
-1.27
-1.21
-1.16
-1.19
-1.28
-1.37
-1.39
-1.25
-0.94
-0.50
-0.01
0.44
0.80
1.05
1.19
1.18
1.00
0.63
0.12
-0.47
-1.04
-1.50
-1.81
-1.95
-1.95
-1.84
-1.70
-1.58
-1.53
-1.60
-1.76
-1.95
-2.09
-2.11
-2.01
-1.87
-1.77
-1.78
-1.89
-2.03
-2.13
-2.13
-2.04
-1.89
-1.73
-1.60
-1.48
-1.34
-1.10
-0.69
-0.02
0.91
1.99
3.01
3.69
3.85
3.43
2.59
1.58
0.69
0.11
-0.09
0.05
0.50
1.18
2.06
3.03
3.89
4.43
4.44
3.87
2.86
1.72
0.78
0.28
0.27
0.60
1.03
1.37
1.50
1.45
1.26
0.99
0.67
0.34
0.05
-0.12
-0.05
0.30
0.89
1.57
2.16
2.49
2.50
2.21
1.74
1.20
0.64
0.03
-0.69
-1.56
-2.52
-3.41
-4.07
-4.35
-4.26
-3.89
-3.39
-2.85
-2.32
-1.75
-1.14
-0.52
0.01
0.33
0.33
0.04
-0.47
-1.06
-1.60
-2.01
-2.29
-2.47
-2.60
-2.73
-2.84
-2.91
-2.88
-2.70
-2.36
-1.82
-1.12
-0.25
0.73
1.78
2.79
3.62
4.13
4.20
3.84
3.17
2.37
1.66
1.13
0.81
0.63
0.53
0.50
0.57
0.80
1.18
1.60
1.92
2.01
1.80
1.37
0.85
0.42
0.19
0.16
0.24
0.30
0.23
0.01
-0.31
-0.61
-0.79
-0.78
-0.61
-0.28
0.20
0.81
1.51
2.21
2.75
3.02
2.97
2.66
2.22
1.78
1.39
1.08
0.81
0.54
0.24
-0.13
-0.58
-1.12
-1.68
-2.15
-2.39
-2.32
-1.97
-1.49
-1.07
-0.87
-0.96
-1.23
-1.54
-1.71
-1.64
-1.35
-0.97
-0.68
-0.68
-1.04
-1.72
-2.53
-3.23
-3.59
-3.52
-3.04
-2.32
-1.58
-1.04
-0.85
-1.02
-1.44
-1.87
-2.03
-1.66
-0.62
1.04
3.04
4.93
6.25
6.62
5.95
4.36
2.23
-0.03
-2.00
-3.39
-4.07
-4.09
-3.60
-2.87
-2.19
-1.78
-1.74
-2.01
-2.43
-2.77
-2.89
-2.76
-2.42
-1.94
-1.34
-0.58
0.40
1.61
2.97
4.34
5.54
6.42
6.91
7.00
6.73
6.16
5.42
4.64
3.95
3.49
3.31
3.38
3.62
3.89
4.08
4.06
3.71
2.98
1.86
0.47
-0.96
-2.16
-2.90
-3.11
-2.85
-2.31
-1.72
-1.24
-0.93
-0.77
-0.72
-0.73
-0.82
-1.05
-1.48
-2.14
-2.99
-3.94
-4.85
-5.59
-6.08
-6.31
-6.31
-6.15
-5.83
-5.34
-4.62
-3.64
-2.47
-1.24
-0.13
0.70
1.25
1.61
2.00
2.55
3.31
4.14
4.83
5.18
5.08
4.57
3.72
2.61
1.27
-0.24
-1.80
-3.18
-4.10
-4.33
-3.88
-2.97
-1.99
-1.33
-1.15
-1.38
-1.75
-1.98
-1.91
-1.56
-1.09
-0.65
-0.34
-0.15
0.01
0.20
0.46
0.80
1.19
1.64
2.14
2.72
3.35
3.97
4.51
4.88
5.03
4.93
4.63
4.24
3.89
3.65
3.49
3.28
2.81
1.98
0.82
-0.45
-1.51
-2.10
-2.12
-1.67
-1.00
-0.38
-0.01
0.04
-0.21
-0.69
-1.30
-1.95
-2.60
-3.23
-3.81
-4.35
-4.80
-5.13
-5.26
-5.16
-4.83
-4.30
-3.64
-2.90
-2.14
-1.40
-0.75
-0.26
0.05
0.20
0.32
0.57
1.11
2.01
3.20
4.55
5.81
6.74
7.14
6.90
6.00
4.56
2.77
0.88
-0.83
-2.13
-2.87
-2.99
-2.58
-1.86
-1.09
-0.55
-0.40
-0.67
-1.21
-1.81
-2.25
-2.38
-2.19
-1.76
-1.27
-0.90
-0.75
-0.78
-0.91
-0.97
-0.88
-0.64
-0.34
-0.08
0.12
0.31
0.60
1.02
1.51
1.92
2.14
2.14
2.06
2.06
2.28
2.68
3.07
3.20
2.92
2.17
1.06
-0.25
-1.58
-2.79
-3.76
-4.40
-4.65
-4.49
-4.00
-3.31
-2.63
-2.18
-2.14
-2.55
-3.35
-4.33
-5.23
-5.81
-5.95
-5.65
-5.04
-4.20
-3.20
-2.03
-0.66
0.89
2.52
4.06
5.33
6.22
6.71
6.85
6.75
6.49
6.15
5.81
5.50
5.25
5.02
4.77
4.40
3.85
3.06
2.01
0.75
-0.59
-1.89
-2.99
-3.74
-4.06
-3.88
-3.25
-2.26
-1.11
-0.02
0.80
1.19
1.12
0.69
0.08
-0.47
-0.82
-0.93
-0.82
-0.60
-0.34
-0.08
0.19
0.50
0.84
1.18
1.50
1.80
2.13
2.54
3.07
3.69
4.28
4.72
4.92
4.89
4.69
4.46
4.29
4.22
4.22
4.18
3.96
3.42
2.45
1.00
-0.84
-2.86
-4.78
-6.32
-7.28
-7.62
-7.42
-6.89
-6.25
-5.64
-5.14
-4.76
-4.47
-4.25
-4.14
-4.16
-4.32
-4.62
-5.00
-5.40
-5.76
-6.05
-6.24
-6.33
-6.34
-6.28
-6.20
-6.15
-6.12
-6.07
-5.86
-5.32
-4.28
-2.61
-0.34
2.32
5.05
7.46
9.22
10.15
10.26
9.68
8.62
7.32
5.97
4.77
3.90
3.48
3.52
3.90
4.38
4.66
4.51
3.84
2.74
1.45
0.25
-0.61
-0.97
-0.81
-0.25
0.50
1.22
1.71
1.91
1.84
1.62
1.38
1.21
1.12
1.10
1.10
1.09
1.08
1.07
1.07
1.07
1.09
1.14
1.26
1.42
1.61
1.74
1.75
1.62
1.36
1.02
0.60
0.08
-0.59
-1.42
-2.27
-2.98
-3.33
-3.22
-2.67
-1.85
-0.97
-0.24
0.23
0.44
0.40
0.17
-0.22
-0.77
-1.43
-2.19
-2.98
-3.77
-4.51
-5.17
-5.66
-5.89
-5.78
-5.28
-4.45
-3.43
-2.40
-1.52
-0.82
-0.23
0.39
1.16
2.08
3.02
3.76
4.11
3.94
3.27
2.23
1.02
-0.14
-1.03
-1.53
-1.55
-1.12
-0.32
0.68
1.64
2.36
2.69
2.56
2.05
1.32
0.54
-0.13
-0.59
-0.83
-0.84
-0.63
-0.23
0.30
0.87
1.38
1.74
1.94
2.02
2.06
2.07
2.00
1.79
1.48
1.17
1.06
1.27
1.82
2.57
3.27
3.74
3.87
3.67
3.19
2.51
1.63
0.56
-0.66
-1.92
-3.07
-3.95
-4.44
-4.52
-4.22
-3.63
-2.89
-2.13
-1.49
-1.03
-0.76
-0.63
-0.55
-0.48
-0.44
-0.47
-0.62
-0.90
-1.22
-1.53
-1.75
-1.92
-2.11
-2.41
-2.81
-3.27
-3.69
-4.00
-4.19
-4.29
-4.30
-4.14
-3.73
-2.99
-1.95
-0.72
0.50
1.54
2.28
2.73
2.94
2.98
2.90
2.73
2.49
2.24
2.06
2.05
2.21
2.47
2.71
2.77
2.58
2.17
1.69
1.29
1.08
1.09
1.26
1.48
1.69
1.84
1.92
1.93
1.88
1.81
1.76
1.77
1.85
1.95
1.98
1.84
1.51
1.06
0.63
0.36
0.32
0.45
0.63
0.71
0.57
0.17
-0.47
-1.25
-2.04
-2.66
-2.97
-2.91
-2.54
-1.99
-1.47
-1.11
-0.95
-0.96
-1.05
-1.16
-1.29
-1.47
-1.73
-2.05
-2.37
-2.60
-2.69
-2.63
-2.50
-2.34
-2.20
-2.07
-1.92
-1.70
-1.39
-0.99
-0.53
0.01
0.65
1.44
2.41
3.48
4.47
5.15
5.29
4.83
3.82
2.46
0.96
-0.48
-1.71
-2.65
-3.25
-3.44
-3.23
-2.66
-1.88
-1.08
-0.45
-0.11
-0.07
-0.24
-0.49
-0.72
-0.87
-0.92
-0.89
-0.83
-0.79
-0.80
-0.85
-0.89
-0.84
-0.62
-0.22
0.33
0.98
1.67
2.41
3.21
4.10
5.01
5.83
6.43
6.67
6.52
6.02
5.27
4.38
3.42
2.40
1.35
0.32
-0.57
-1.15
-1.30
-0.98
-0.28
0.55
1.20
1.45
1.20
0.56
-0.24
-0.97
-1.51
-1.88
-2.22
-2.70
-3.39
-4.26
-5.17
-5.97
-6.55
-6.86
-6.91
-6.71
-6.25
-5.57
-4.73
-3.86
-3.15
-2.73
-2.65
-2.77
-2.84
-2.51
-1.55
0.05
2.02
3.89
5.18
5.55
4.98
3.72
2.18
0.74
-0.34
-0.97
-1.17
-1.00
-0.55
0.09
0.79
1.38
1.70
1.63
1.18
0.44
-0.39
-1.10
-1.52
-1.58
-1.29
-0.80
-0.27
0.19
0.50
0.67
0.79
0.95
1.22
1.65
2.23
2.93
3.66
4.31
4.79
5.04
5.03
4.81
4.44
3.99
3.53
3.11
2.74
2.41
2.11
1.77
1.33
0.81
0.31
-0.03
-0.08
0.15
0.51
0.75
0.66
0.19
-0.55
-1.34
-2.01
-2.51
-2.93
-3.40
-3.99
-4.63
-5.15
-5.38
-5.26
-4.88
-4.41
-4.05
-3.88
-3.84
-3.79
-3.60
-3.20
-2.62
-1.99
-1.37
-0.74
-0.01
0.95
2.15
3.48
4.69
5.52
5.78
5.46
4.70
3.75
2.85
2.17
1.75
1.52
1.37
1.19
0.97
0.78
0.70
0.73
0.80
0.77
0.53
0.08
-0.44
-0.81
-0.90
-0.70
-0.38
-0.20
-0.34
-0.83
-1.52
-2.16
-2.53
-2.57
-2.31
-1.89
-1.46
-1.09
-0.79
-0.51
-0.24
0.04
0.26
0.38
0.40
0.36
0.32
0.33
0.37
0.38
0.27
0.01
-0.36
-0.71
-0.92
-0.95
-0.83
-0.68
-0.59
-0.60
-0.64
-0.62
-0.50
-0.31
-0.12
-0.05
-0.16
-0.44
-0.81
-1.19
-1.53
-1.82
-2.07
-2.28
-2.47
-2.62
-2.67
-2.60
-2.38
-2.06
-1.75
-1.56
-1.54
-1.64
-1.70
-1.49
-0.85
0.24
1.64
3.06
4.19
4.77
4.70
4.02
2.96
1.77
0.75
0.08
-0.19
-0.10
0.21
0.61
1.01
1.31
1.45
1.40
1.14
0.72
0.26
-0.12
-0.33
-0.36
-0.27
-0.14
-0.03
0.05
0.14
0.29
0.50
0.77
1.08
1.40
1.69
1.91
2.00
1.91
1.65
1.28
0.93
0.69
0.63
0.74
0.96
1.25
1.56
1.87
2.12
2.24
2.13
1.74
1.08
0.25
-0.63
-1.46
-2.19
-2.81
-3.30
-3.59
-3.59
-3.24
-2.55
-1.67
-0.83
-0.24
-0.00
-0.12
-0.47
-0.88
-1.26
-1.56
-1.84
-2.15
-2.55
-3.00
-3.45
-3.79
-3.95
-3.86
-3.55
-3.08
-2.52
-1.99
-1.52
-1.11
-0.70
-0.19
0.55
1.54
2.70
3.84
4.68
5.01
4.73
3.91
2.78
1.63
0.68
0.05
-0.25
-0.29
-0.14
0.15
0.51
0.89
1.17
1.26
1.13
0.86
0.57
0.41
0.46
0.68
1.00
1.31
1.61
1.92
2.30
2.73
3.09
3.22
3.00
2.41
1.57
0.67
-0.14
-0.75
-1.14
-1.32
-1.29
-1.04
-0.57
0.04
0.67
1.19
1.49
1.59
1.58
1.57
1.62
1.70
1.68
1.40
0.80
-0.08
-1.08
-2.01
-2.73
-3.21
-3.49
-3.63
-3.62
-3.40
-2.93
-2.17
-1.22
-0.27
0.47
0.86
0.84
0.49
-0.09
-0.73
-1.36
-1.90
-2.34
-2.64
-2.81
-2.83
-2.70
-2.48
-2.25
-2.10
-2.04
-2.06
-2.07
-1.96
-1.69
-1.25
-0.69
-0.05
0.64
1.35
2.07
2.73
3.25
3.54
3.54
3.26
2.75
2.08
1.36
0.67
0.10
-0.24
-0.21
0.25
1.07
2.08
2.97
3.48
3.44
2.91
2.07
1.18
0.46
0.03
-0.06
0.12
0.49
0.92
1.27
1.41
1.27
0.85
0.25
-0.35
-0.76
-0.87
-0.66
-0.27
0.13
0.36
0.35
0.18
0.00
-0.01
0.23
0.70
1.31
1.93
2.47
2.84
2.92
2.65
1.98
0.98
-0.18
-1.28
-2.12
-2.65
-2.91
-3.02
-3.04
-3.00
-2.84
-2.51
-2.00
-1.36
-0.65
0.04
0.66
1.17
1.50
1.59
1.38
0.85
0.02
-1.00
-2.09
-3.10
-3.94
-4.50
-4.77
-4.76
-4.51
-4.12
-3.69
-3.35
-3.19
-3.30
-3.70
-4.27
-4.81
-5.03
-4.71
-3.77
-2.33
-0.67
0.90
2.17
3.06
3.64
4.05
4.38
4.66
4.89
5.05
5.19
5.36
5.59
5.83
5.94
5.73
5.11
4.06
2.75
1.41
0.29
-0.44
-0.76
-0.75
-0.62
-0.53
-0.58
-0.78
-1.00
-1.11
-1.01
-0.72
-0.32
0.06
0.33
0.52
0.69
0.90
1.12
1.32
1.42
1.45
1.46
1.53
1.66
1.78
1.81
1.67
1.36
0.96
0.54
0.13
-0.29
-0.76
-1.27
-1.76
-2.11
-2.26
-2.20
-1.99
-1.73
-1.53
-1.42
-1.39
-1.40
-1.40
-1.39
-1.41
-1.54
-1.83
-2.27
-2.76
-3.13
-3.23
-3.00
-2.50
-1.86
-1.22
-0.68
-0.25
0.13
0.52
0.94
1.40
1.87
2.34
2.76
3.06
3.17
3.00
2.51
1.76
0.86
-0.02
-0.75
-1.25
-1.49
-1.54
-1.44
-1.28
-1.10
-0.94
-0.86
-0.88
-1.04
-1.31
-1.64
-1.95
-2.17
-2.26
-2.21
-2.02
-1.65
-1.08
-0.28
0.70
1.75
2.70
3.41
3.79
3.84
3.64
3.28
2.83
2.40
2.04
1.83
1.83
2.00
2.28
2.52
2.60
2.46
2.10
1.55
0.88
0.15
-0.58
-1.20
-1.60
-1.66
-1.38
-0.86
-0.34
-0.04
-0.07
-0.39
-0.81
-1.18
-1.44
-1.65
-1.93
-2.35
-2.83
-3.19
-3.28
-3.05
-2.63
-2.19
-1.87
-1.72
-1.69
-1.69
-1.63
-1.50
-1.27
-0.92
-0.42
0.24
1.05
1.92
2.76
3.45
3.89
4.02
3.79
3.17
2.21
1.00
-0.29
-1.46
-2.33
-2.79
-2.82
-2.52
-2.02
-1.50
-1.11
-0.96
-1.10
-1.51
-2.10
-2.70
-3.17
-3.40
-3.36
-3.09
-2.67
-2.15
-1.53
-0.77
0.15
1.19
2.23
3.11
3.74
4.13
4.39
4.70
5.18
5.79
6.39
6.81
6.92
6.75
6.44
6.09
5.72
5.21
4.40
3.21
1.72
0.19
-1.06
-1.77
-1.86
-1.43
-0.73
-0.07
0.32
0.26
-0.26
-1.18
-2.34
-3.54
-4.61
-5.44
-5.99
-6.33
-6.55
-6.78
-7.06
-7.38
-7.66
-7.83
-7.84
-7.67
-7.32
-6.83
-6.19
-5.40
-4.41
-3.19
-1.71
0.03
2.02
4.17
6.33
8.26
9.65
10.25
9.92
8.71
6.87
4.76
2.73
1.09
-0.03
-0.61
-0.73
-0.53
-0.13
0.32
0.66
0.80
0.66
0.26
-0.30
-0.88
-1.33
-1.50
-1.34
-0.88
-0.26
0.37
0.83
1.05
1.03
0.88
0.75
0.76
1.01
1.49
2.09
2.65
3.01
3.06
2.80
2.37
1.94
1.71
1.74
1.96
2.21
2.31
2.15
1.75
1.17
0.53
-0.12
-0.75
-1.37
-1.93
-2.41
-2.73
-2.88
-2.90
-2.88
-2.92
-3.10
-3.40
-3.76
-4.11
-4.39
-4.57
-4.64
-4.57
-4.29
-3.78
-3.04
-2.18
-1.34
-0.59
0.04
0.63
1.28
2.05
2.88
3.63
4.08
4.12
3.72
3.01
2.22
1.54
1.04
0.68
0.33
-0.10
-0.61
-1.09
-1.40
-1.49
-1.40
-1.31
-1.37
-1.65
-2.06
-2.42
-2.54
-2.30
-1.70
-0.88
-0.05
0.62
0.98
1.06
0.99
0.97
1.22
1.84
2.81
3.97
5.11
6.05
6.66
6.93
6.92
6.72
6.44
6.18
5.95
5.75
5.46
4.98
4.21
3.14
1.84
0.42
-1.00
-2.34
-3.55
-4.59
-5.40
-5.93
-6.11
-5.90
-5.31
-4.46
-3.49
-2.63
-2.05
-1.86
-2.04
-2.46
-2.94
-3.34
-3.61
-3.81
-4.01
-4.25
-4.52
-4.76
-4.90
-4.82
-4.45
-3.69
-2.47
-0.81
1.11
3.01
4.52
5.35
5.39
4.72
3.60
2.35
1.19
0.25
-0.43
-0.90
-1.17
-1.28
-1.19
-0.92
-0.52
-0.07
0.31
0.51
0.51
0.36
0.17
0.09
0.21
0.54
1.01
1.51
1.91
2.16
2.27
2.28
2.29
2.34
2.46
2.64
2.81
2.93
2.96
2.88
2.71
2.47
2.21
1.97
1.80
1.71
1.72
1.79
1.87
1.88
1.72
1.36
0.77
0.02
-0.78
-1.51
-2.06
-2.34
-2.34
-2.11
-1.80
-1.53
-1.40
-1.47
-1.71
-2.07
-2.48
-2.91
-3.30
-3.59
-3.75
-3.75
-3.62
-3.43
-3.31
-3.35
-3.59
-3.97
-4.37
-4.63
-4.64
-4.34
-3.74
-2.90
-1.88
-0.78
0.27
1.15
1.69
1.84
1.64
1.25
0.89
0.74
0.90
1.33
1.91
2.51
3.04
3.45
3.72
3.85
3.85
3.75
3.57
3.38
3.21
3.10
3.07
3.13
3.27
3.46
3.65
3.74
3.65
3.34
2.85
2.31
1.86
1.59
1.52
1.58
1.66
1.67
1.52
1.17
0.58
-0.23
-1.23
-2.33
-3.43
-4.39
-5.14
-5.63
-5.88
-5.97
-6.03
-6.24
-6.78
-7.75
-9.06
-10.45
-11.50
-11.80
-11.17
-9.80
-8.15
-6.81
-6.20
-6.44
-7.37
-8.70
-10.23
-11.94
-13.86
-15.99
-18.15
-20.09
-21.64
-22.91
-24.28
-26.26
-29.13
-32.77
-36.71
-40.37
-43.37
-45.78
-48.06
-50.88
-54.85
-60.32
-67.36
-75.82
-85.47
-96.00
-107.03
-118.12
-128.79
-138.73
-147.94
-156.94
-166.54
-177.61
-190.61
-205.11
-219.62
-231.69
-238.42
-237.21
-226.54
-206.36
-178.08
-144.02
-106.54
-67.32
-26.94
14.77
57.97
101.97
144.78
183.42
214.80
236.74
248.71
251.76
247.94
239.43
227.93
214.41
199.52
183.95
168.70
154.93
143.53
134.69
127.78
121.64
115.09
107.47
98.85
89.98
81.72
74.74
69.14
64.48
60.08
55.33
50.00
44.25
38.57
33.46
29.27
26.02
23.50
21.35
19.27
17.12
14.93
12.85
11.01
9.49
8.28
7.28
6.38
5.46
4.46
3.34
2.18
1.07
0.12
-0.59
-1.04
-1.32
-1.56
-1.87
-2.31
-2.87
-3.48
-4.03
-4.47
-4.77
-4.92
-4.93
-4.80
-4.54
-4.16
-3.69
-3.17
-2.61
-2.00
-1.33
-0.63
0.05
0.61
1.05
1.44
1.89
2.52
3.32
4.17
4.91
5.42
5.73
6.02
6.50
7.29
8.34
9.49
10.57
11.47
12.29
13.21
14.45
16.13
18.24
20.63
23.10
25.47
27.68
29.82
32.14
34.97
38.54
42.88
47.75
52.68
57.25
61.27
64.96
68.93
73.85
80.15
87.80
96.22
104.65
112.48
119.57
126.26
133.09
140.48
148.57
157.33
166.68
176.46
186.08
194.17
198.37
195.93
184.57
163.48
133.66
97.45
57.31
14.74
-30.04
-77.28
-126.33
-174.70
-218.20
-252.34
-274.13
-283.18
-281.67
-273.10
-260.80
-246.97
-232.64
-218.43
-205.40
-195.19
-189.46
-188.96
-192.91
-199.14
-204.98
-208.45
-209.00
-207.57
-205.91
-205.58
-207.29
-210.72
-214.86
-218.34
-219.66
-217.10
-208.85
-193.18
-169.10
-136.68
-97.05
-51.71
-1.84
51.86
108.56
166.21
221.06
268.19
303.25
324.35
333.01
333.42
330.57
328.25
327.96
329.06
329.65
327.65
321.25
309.00
289.72
262.52
227.11
183.97
134.07
78.51
18.27
-45.44
-110.56
-173.67
-230.23
-275.90
-308.06
-326.94
-335.56
-338.51
-340.24
-343.51
-348.70
-354.09
-356.75
-353.70
-342.74
-322.95
-294.63
-258.96
-217.39
-171.08
-120.68
-66.73
-10.58
45.00
95.83
137.37
166.33
182.02
186.55
183.84
177.94
171.46
165.14
158.34
150.27
140.92
131.27
122.71
116.17
111.57
107.90
103.83
98.44
91.61
84.01
76.72
70.60
65.95
62.42
59.20
55.49
50.79
45.14
39.09
33.39
28.69
25.28
22.99
21.34
19.77
17.93
15.76
13.50
11.49
9.97
8.96
8.30
7.76
7.16
6.45
5.72
5.11
4.71
4.55
4.59
4.76
5.01
5.34
5.78
6.37
7.14
8.07
9.09
10.14
11.11
11.96
12.68
13.28
13.79
14.22
14.57
14.85
15.10
15.37
15.73
16.22
16.84
17.49
17.97
17.98
17.26
15.66
13.22
10.13
6.66
3.04
-0.56
-4.11
-7.63
-11.23
-14.98
-18.95
-23.13
-27.40
-31.51
-35.12
-37.92
-39.72
-40.59
-40.79
-40.69
-40.56
-40.51
-40.41
-40.07
-39.24
-37.81
-35.80
-33.35
-30.71
-28.08
-25.57
-23.07
-20.27
-16.80
-12.39
-7.06
-1.17
4.68
9.88
14.08
17.26
19.66
21.54
22.97
23.82
23.86
23.01
21.47
19.71
18.20
17.24
16.76
16.44
15.86
14.78
13.27
11.59
10.08
8.96
8.23
7.74
7.31
6.81
6.27
5.78
5.47
5.38
5.49
5.69
5.82
5.68
5.14
4.10
2.62
0.86
-0.91
-2.39
-3.37
-3.77
-3.64
-3.16
-2.58
-2.14
-2.01
-2.28
-2.95
-3.96
-5.24
-6.71
-8.24
-9.66
-10.73
-11.18
-10.83
-9.67
-7.89
-5.80
-3.72
-1.83
-0.12
1.56
3.37
5.34
7.32
9.02
10.17
10.64
10.51
10.12
9.91
10.24
11.20
12.56
13.91
14.84
15.19
15.05
14.76
14.65
14.92
15.56
16.41
17.27
17.99
18.49
18.72
18.71
18.51
18.22
17.95
17.78
17.64
17.36
16.65
15.22
12.86
9.55
5.41
0.79
-3.81
-7.81
-10.76
-12.48
-13.11
-13.08
-12.80
-12.52
-12.16
-11.40
-9.92
-7.57
-4.46
-0.87
3.01
7.12
11.55
16.28
21.03
25.28
28.43
30.08
30.17
28.94
26.72
23.69
19.93
15.54
10.88
6.66
3.67
2.52
3.37
5.85
9.32
13.15
16.90
20.42
23.77
27.20
31.07
35.83
41.84
49.17
57.44
65.83
73.43
79.64
84.55
89.07
94.56
102.38
113.28
127.00
142.00
155.60
164.37
164.73
153.80
130.29
95.13
51.63
5.02
-38.71
-74.16
-97.62
-107.44
-103.72
-87.66
-61.13
-26.80
11.39
47.95
76.35
90.32
85.59
61.36
20.94
-29.04
-80.35
-125.28
-158.42
-177.65
-183.90
-180.24
-170.39
-157.62
-144.06
-130.80
-118.35
-107.20
-97.85
-90.60
-85.23
-80.85
-76.26
-70.51
-63.44
-55.71
-48.48
-42.82
-39.19
-37.21
-35.89
-34.14
-31.27
-27.24
-22.70
-18.54
-15.53
-13.92
-13.41
-13.31
-12.90
-11.73
-9.77
-7.37
-5.04
-3.26
-2.24
-1.95
-2.19
-2.67
-3.14
-3.41
-3.41
-3.12
-2.61
-2.02
-1.45
-1.03
-0.80
-0.73
-0.77
-0.85
-0.94
-1.02
-1.11
-1.22
-1.33
-1.39
-1.33
-1.13
-0.83
-0.49
-0.16
0.10
0.28
0.35
0.32
0.14
-0.17
-0.57
-0.96
-1.19
-1.18
-0.91
-0.48
-0.02
0.38
0.71
1.00
1.32
