1660753921.00
64.000000
-0.00
-0.00
-0.00
-0.00
-0.00
-0.00
-0.00
-0.00
-0.00
-0.00
0.00
0.01
0.01
-0.00
-0.03
-0.05
-0.05
0.00
0.13
0.36
0.66
1.01
1.37
1.72
2.06
2.40
2.79
3.24
3.80
4.42
5.06
5.66
6.20
6.68
7.15
7.68
8.31
9.14
10.09
11.04
11.88
12.56
13.14
13.76
14.65
15.96
17.91
20.32
22.90
25.38
27.58
29.57
31.68
34.32
37.81
42.54
48.15
54.10
59.83
64.97
69.58
74.14
79.34
85.71
93.76
103.00
112.62
121.73
129.77
136.75
143.30
150.75
157.77
166.64
177.95
191.79
206.97
220.57
228.25
225.36
208.53
176.87
132.76
80.05
23.07
-34.94
-92.44
-149.16
-205.23
-260.37
-313.74
-363.87
-409.83
-450.91
-486.50
-515.74
-537.23
-549.22
-549.96
-538.37
-514.21
-478.67
-433.88
-382.45
-327.02
-269.84
-212.63
-156.66
-102.95
-52.37
-5.90
35.58
71.43
101.35
125.50
144.38
158.69
169.15
176.37
180.75
182.57
182.07
179.51
175.23
169.65
163.18
156.15
148.81
141.30
133.69
126.02
118.33
110.69
103.16
95.80
88.68
81.83
75.25
68.95
62.95
57.25
51.86
46.78
42.03
37.59
33.45
29.61
26.07
22.81
19.83
17.11
14.67
12.48
10.54
8.83
7.35
6.06
4.97
4.05
3.28
2.64
2.12
1.68
1.29
0.94
0.64
0.37
0.17
0.03
-0.06
-0.12
-0.16
-0.23
-0.32
-0.42
-0.51
-0.56
-0.57
-0.53
-0.49
-0.47
-0.52
-0.64
-0.82
-0.99
-1.10
-1.10
-1.02
-0.92
-0.92
-1.10
-1.48
-2.01
-2.52
-2.87
-2.97
-2.84
-2.65
-2.63
-2.98
-3.73
-4.76
-5.78
-6.49
-6.71
-6.50
-6.12
-5.98
-6.40
-7.48
-8.98
-10.48
-11.55
-11.93
-11.68
-11.09
-10.57
-10.50
-11.15
-12.69
-15.14
-18.16
-20.83
-21.70
-19.20
-12.36
-1.47
11.80
24.97
35.75
42.90
46.56
47.88
48.12
47.95
47.31
45.70
42.80
38.75
34.19
29.52
24.93
20.25
15.17
9.57
3.64
-2.05
-6.85
-10.34
-12.45
-13.45
-13.82
-13.95
-14.07
-14.16
-14.12
-13.86
-13.39
-12.81
-12.24
-11.71
-11.27
-10.89
-10.55
-10.14
-9.56
-8.66
-7.30
-5.54
-3.59
-1.83
-0.64
-0.23
-0.52
-1.23
-1.97
-2.39
-2.39
-2.03
-1.49
-0.96
-0.55
-0.23
0.10
0.52
1.05
1.64
2.16
2.54
2.78
2.94
3.09
3.28
3.49
3.71
3.91
4.11
4.35
4.65
5.02
5.43
5.84
6.23
6.67
7.20
7.87
8.68
9.53
10.25
10.63
10.52
9.86
8.75
7.36
5.88
4.45
3.08
1.77
0.52
-0.65
-1.70
-2.57
-3.27
-3.82
-4.25
-4.49
-4.42
-3.92
-2.96
-1.67
-0.36
0.58
0.82
0.23
-1.12
-2.94
-4.93
-6.86
-8.60
-10.15
-11.55
-12.80
-13.85
-14.65
-15.17
-15.40
-15.31
-14.75
-13.53
-11.46
-8.48
-4.71
-0.39
4.18
8.81
13.39
17.88
22.21
26.26
29.87
32.89
35.25
36.96
38.07
38.58
38.44
37.59
36.01
33.75
30.94
27.70
24.03
19.83
14.96
9.34
3.09
-3.46
-9.83
-15.65
-20.71
-25.10
-29.03
-32.70
-36.13
-39.12
-41.37
-42.66
-42.94
-42.43
-41.53
-40.60
-39.85
-39.34
-39.03
-38.85
-38.72
-38.48
-37.89
-36.60
-34.39
-31.29
-27.74
-24.37
-21.76
-20.11
-19.02
-17.72
-15.46
-11.87
-7.17
-2.01
2.85
6.86
9.88
12.06
13.66
14.88
15.75
16.17
16.11
15.62
14.89
14.16
13.60
13.24
12.96
12.57
11.94
11.08
10.16
9.37
8.84
8.54
8.25
7.71
6.72
5.26
3.50
1.70
0.10
-1.21
-2.28
-3.30
-4.39
-5.61
-6.86
-7.96
-8.68
-8.84
-8.35
-7.22
-5.55
-3.48
-1.20
1.14
3.36
5.34
6.96
8.19
9.07
9.81
10.61
11.64
12.90
14.26
15.48
16.44
17.14
17.74
18.43
19.32
20.41
21.57
22.69
23.68
24.54
25.33
26.05
26.66
27.11
27.40
27.57
27.75
28.00
28.31
28.50
28.31
27.49
25.91
23.58
20.72
17.56
14.32
11.10
7.92
4.71
1.39
-1.98
-5.24
-8.13
-10.32
-11.52
-11.57
-10.52
-8.62
-6.26
-3.97
-2.21
-1.32
-1.37
-2.10
-2.97
-3.20
-2.05
0.97
5.96
12.61
20.30
28.37
36.17
43.18
48.95
53.05
55.08
54.75
51.93
46.77
39.60
30.87
21.02
10.51
-0.23
-10.76
-20.59
-29.24
-36.29
-41.40
-44.34
-45.00
-43.39
-39.73
-34.39
-27.90
-20.86
-13.81
-7.22
-1.48
3.10
6.29
8.06
8.58
8.27
7.60
6.84
5.88
4.28
1.53
-2.60
-7.76
-13.09
-17.52
-20.23
-20.94
-20.01
-18.21
-16.27
-14.68
-13.54
-12.70
-12.03
-11.48
-11.15
-11.10
-11.20
-11.01
-9.85
-7.04
-2.16
4.69
12.81
21.00
27.77
31.63
31.38
26.29
16.32
2.30
-14.18
-30.89
-45.42
-55.69
-60.43
-59.44
-53.45
-43.82
-32.08
-19.68
-7.85
2.37
10.17
15.07
17.08
16.82
15.37
13.96
13.57
14.75
17.55
21.67
26.72
32.35
38.24
44.13
49.76
54.93
59.52
63.52
66.90
69.61
71.50
72.43
72.23
70.71
67.54
62.20
54.01
42.39
27.09
8.40
-12.86
-35.50
-58.21
-79.75
-98.95
-114.81
-126.47
-133.40
-135.57
-133.58
-128.51
-121.62
-114.06
-106.50
-99.14
-91.84
-84.35
-76.57
-68.56
-60.50
-52.52
-44.65
-36.81
-28.98
-21.29
-14.01
-7.45
-1.79
3.03
7.33
11.52
15.97
20.83
26.05
31.44
36.81
42.03
47.22
52.61
58.51
65.07
72.17
79.29
85.58
89.97
91.40
89.12
82.88
73.11
60.87
47.62
34.84
23.60
14.25
6.35
-0.98
-8.65
-17.13
-26.17
-35.00
-42.62
-48.25
-51.51
-52.48
-51.47
-48.89
-45.16
-40.71
-36.03
-31.69
-28.21
-25.82
-24.36
-23.22
-21.42
-17.94
-11.95
-3.16
8.02
20.58
33.14
44.41
53.72
61.22
67.89
75.14
84.28
96.01
110.14
125.62
140.82
153.82
163.00
167.41
167.15
163.41
158.30
154.17
152.85
154.84
158.98
162.64
162.51
155.67
140.46
116.85
86.26
50.98
13.38
-24.61
-61.87
-98.16
-133.93
-169.76
-205.72
-240.70
-272.31
-297.33
-312.67
-316.31
-307.81
-288.05
-258.53
-220.96
-177.44
-130.92
-85.61
-46.45
-17.74
-1.70
2.48
-1.94
-10.69
-20.32
-29.16
-37.31
-45.71
-55.01
-64.99
-74.70
-83.03
-89.28
-93.38
-95.74
-96.83
-96.91
-95.99
-94.11
-91.58
-89.17
-87.88
-88.49
-91.12
-95.06
-99.08
-102.08
-103.76
-104.86
-106.86
-111.18
-118.51
-128.37
-139.31
-149.36
-156.59
-159.33
-156.17
-146.00
-128.09
-102.41
-69.78
-31.76
10.01
54.64
102.42
154.30
210.38
268.35
322.77
365.96
390.41
391.50
369.03
326.84
270.90
207.05
139.97
73.37
11.25
-41.48
-79.61
-99.46
-100.65
-86.75
-64.11
-39.63
-18.53
-3.27
6.18
11.17
13.19
13.21
11.74
9.15
6.01
3.07
1.03
0.37
1.02
2.45
3.89
4.60
4.14
2.49
0.00
-2.75
-5.28
-7.36
-9.04
-10.58
-12.23
-14.06
-15.88
-17.35
-18.16
-18.25
-17.92
-17.61
-17.83
-18.77
-20.31
-21.93
-22.95
-22.82
-21.25
-18.36
-14.53
-10.21
-5.77
-1.38
2.94
7.29
11.78
16.39
20.97
25.18
28.57
30.75
31.54
31.18
30.19
29.28
29.01
29.59
30.78
31.99
32.59
32.06
30.22
27.25
23.61
20.06
17.34
16.11
16.60
18.47
20.79
22.27
21.73
18.56
12.96
5.83
-1.57
-8.16
-13.33
-17.05
-19.58
-21.29
-22.35
-22.82
-22.80
-22.57
-22.67
-23.56
-25.29
-27.33
-28.74
-28.64
-26.56
-22.58
-17.18
-10.83
-3.85
3.47
10.61
16.62
20.37
21.06
18.75
14.42
9.59
5.60
2.99
1.43
0.06
-1.89
-4.72
-8.28
-12.11
-15.78
-19.02
-21.66
-23.52
-24.45
-24.37
-23.49
-22.39
-21.84
-22.63
-25.20
-29.53
-35.13
-41.10
-46.24
-49.13
-48.45
-43.32
-33.91
-21.79
-9.81
-1.51
0.11
-6.45
-20.44
-39.08
-58.41
-74.52
-84.77
-88.47
-87.14
-84.01
-83.12
-88.09
-100.88
-120.82
-144.57
-167.04
-182.96
-188.64
-183.08
-167.94
-146.52
-122.22
-97.45
-73.23
-49.77
-27.07
-5.58
14.05
31.49
47.23
62.71
79.82
100.33
125.30
154.93
188.61
225.04
262.33
298.23
330.36
356.76
376.35
389.17
396.20
398.74
397.82
393.81
386.48
375.36
360.23
341.43
319.78
296.45
272.76
250.10
229.86
213.28
201.01
192.74
186.85
180.64
171.01
155.47
133.09
104.93
73.54
42.10
13.20
-12.00
-34.02
-54.64
-76.41
-102.00
-133.57
-171.81
-214.90
-257.98
-293.77
-314.56
-315.02
-294.69
-258.61
-215.73
-175.68
-145.32
-126.97
-118.72
-116.47
-116.29
-115.93
-114.81
-113.10
-110.77
-107.13
-101.37
-93.18
-83.24
-73.22
-65.05
-60.00
-58.18
-58.49
-59.25
-58.97
-57.03
-53.88
-50.68
-48.64
-48.48
-50.06
-52.48
-54.53
-55.12
-53.61
-49.94
-44.57
-38.33
-32.06
-26.41
-21.50
-16.96
-12.08
-6.27
0.61
8.04
14.97
20.19
22.79
22.42
19.41
14.54
8.82
3.24
-1.36
-4.34
-5.34
-4.32
-1.66
1.88
5.33
7.70
8.30
6.95
4.13
0.80
-1.77
-2.42
-0.45
4.07
10.37
17.07
22.60
25.64
25.52
22.35
16.98
10.65
4.59
-0.25
-3.40
-4.86
-4.97
-4.21
-3.09
-2.00
-1.09
-0.33
0.43
1.33
2.38
3.42
4.16
4.35
3.87
2.84
1.50
0.17
-0.91
-1.65
-2.13
-2.55
-3.20
-4.34
-6.07
-8.32
-10.76
-12.95
-14.37
-14.73
-14.01
-12.48
-10.45
-8.00
-4.88
-0.64
4.96
11.58
18.21
23.55
26.56
26.86
24.78
21.10
16.61
11.88
7.27
2.98
-0.93
-4.75
-9.14
-15.00
-23.01
-33.04
-44.01
-54.26
-62.29
-67.50
-70.39
-72.23
-74.45
-78.06
-83.36
-90.12
-97.69
-105.13
-111.24
-114.66
-114.36
-110.41
-104.49
-99.81
-99.78
-106.13
-117.44
-129.01
-134.44
-128.27
-108.39
-76.86
-38.86
-0.43
33.94
62.36
85.18
103.66
118.68
130.30
138.05
141.59
141.15
137.67
132.44
126.80
121.86
118.26
116.08
114.85
113.69
111.59
107.75
101.77
93.75
83.99
72.93
61.02
48.99
37.90
29.08
23.71
22.24
24.06
27.65
31.14
33.00
32.52
29.87
25.81
21.26
16.96
13.45
11.02
9.72
9.37
9.54
9.60
8.99
7.43
5.05
2.29
-0.28
-2.20
-3.24
-3.35
-2.65
-1.37
0.21
1.77
3.01
3.73
3.95
3.87
3.86
4.25
5.22
6.73
8.52
10.24
11.56
12.23
12.18
11.47
10.25
8.81
7.45
6.44
5.91
5.88
6.13
6.33
6.08
5.09
3.36
1.23
-0.67
-1.74
-1.75
-1.18
-1.14
-2.99
-7.67
-15.18
-24.45
-33.68
-41.05
-45.39
-46.40
-44.62
-41.06
-36.77
-32.62
-29.11
-26.27
-23.83
-21.32
-18.39
-15.07
-11.93
-9.84
-9.55
-11.09
-13.52
-15.26
-14.73
-11.18
-5.04
2.14
8.23
11.25
9.89
4.08
-5.05
-14.94
-21.76
-21.34
-10.63
10.85
40.31
72.63
102.46
125.97
142.26
153.36
162.56
172.32
182.76
191.76
196.25
194.41
186.13
173.42
159.78
148.69
142.01
138.76
135.75
129.17
116.98
98.96
76.83
53.35
30.85
10.35
-8.59
-26.44
-45.72
-63.46
-74.41
-75.24
-66.95
-53.75
-39.95
-28.38
-19.37
-11.48
-2.43
8.45
19.69
30.62
41.01
50.99
60.24
68.61
76.03
82.87
88.61
92.34
93.24
90.20
85.75
80.60
74.99
68.95
62.68
55.16
45.60
34.41
22.93
12.69
4.10
-2.90
-8.71
-13.80
-21.43
-33.65
-49.54
-65.82
-79.10
-88.01
-92.57
-93.74
-92.83
-96.73
-109.70
-130.13
-151.73
-168.33
-177.23
-178.76
-175.00
-168.78
-171.60
-190.77
-224.19
-262.45
-296.44
-322.42
-341.20
-356.02
-370.82
-400.44
-454.32
-530.40
-617.69
-705.27
-787.18
-860.14
-920.86
-892.56
-739.75
-492.58
-225.34
1.54
166.90
277.26
350.25
403.08
446.34
472.09
472.07
447.70
409.14
370.30
339.30
318.55
307.01
301.77
291.48
269.52
238.80
209.18
189.47
182.06
183.87
192.50
202.48
203.45
189.24
161.27
127.13
95.07
69.98
53.28
44.17
40.34
37.23
32.22
25.97
21.32
20.60
23.92
29.92
36.93
43.43
48.00
50.37
51.37
52.33
54.12
56.66
59.45
62.06
64.06
65.45
66.26
66.34
65.26
62.63
58.31
52.58
46.04
39.24
32.70
26.84
22.15
19.21
18.27
18.67
18.34
14.07
2.56
-17.95
-46.51
-79.35
-111.10
-136.72
-153.18
-160.29
-160.25
-156.36
-151.64
-147.85
-145.07
-142.06
-136.98
-128.16
-114.83
-97.45
-77.64
-57.57
-39.40
-24.89
-15.18
-10.88
-11.80
-16.82
-23.96
-31.00
-36.76
-42.37
-51.51
-68.86
-97.35
-135.22
-174.96
-205.04
-214.05
-195.58
-151.20
-90.28
-26.75
25.61
57.20
64.51
49.72
18.97
-19.84
-58.59
-90.22
-109.62
-114.39
-105.18
-85.37
-60.05
-34.41
-12.47
3.71
14.00
19.73
23.04
26.45
32.43
42.90
58.63
78.66
100.27
119.57
132.76
137.62
134.36
125.39
113.89
102.08
90.05
76.20
59.11
39.48
20.72
7.30
1.85
2.82
4.62
0.37
-14.18
-37.98
-65.02
-87.42
-99.29
-99.26
-90.28
-77.39
-65.14
-56.07
-50.95
-49.82
-52.71
-59.45
-68.86
-78.08
-82.88
-79.06
-64.23
-39.01
-7.14
25.80
54.44
75.42
88.14
94.34
96.77
97.81
98.78
99.84
100.55
100.25
98.23
93.96
87.44
79.73
73.16
70.71
74.60
84.75
98.10
109.17
112.16
103.11
81.54
50.54
15.48
-17.88
-45.01
-63.56
-73.35
-75.71
-72.84
-67.04
-60.29
-54.12
-49.55
-47.26
-47.52
-50.01
-53.47
-55.66
-53.88
-46.08
-31.86
-12.96
7.07
24.24
35.25
38.48
33.88
22.61
6.70
-11.09
-27.28
-38.40
-41.94
-37.64
-28.00
-17.61
-11.38
-12.56
-21.53
-35.79
-51.10
-63.05
-68.49
-66.22
-57.12
-43.72
-29.39
-17.33
-9.69
-7.09
-8.58
-12.13
-15.38
-16.31
-13.67
-7.14
2.65
14.46
26.70
37.75
46.19
51.00
51.81
49.27
45.30
42.80
44.49
51.47
62.52
74.83
86.06
96.42
108.98
127.70
154.07
184.77
211.99
226.84
223.78
203.52
172.38
138.58
108.01
81.96
58.14
33.73
8.22
-15.93
-35.04
-46.86
-52.31
-55.06
-59.32
-67.32
-78.10
-88.07
-93.10
-90.82
-81.81
-69.24
-57.20
-48.82
-45.04
-44.40
-44.22
-41.88
-36.14
-27.28
-16.72
-6.29
2.37
8.21
11.12
12.27
13.99
19.02
29.07
43.40
58.39
68.67
69.55
59.47
40.92
19.36
0.77
-10.90
-15.03
-13.79
-10.62
-8.64
-9.78
-14.75
-23.15
-33.75
-44.64
-53.62
-58.79
-59.23
-55.46
-49.17
-42.48
-37.00
-33.22
-30.54
-27.81
-24.03
-18.64
-11.45
-2.30
8.98
22.15
36.08
48.98
59.30
67.13
74.73
85.57
102.03
123.10
143.71
156.54
155.43
138.60
109.68
76.07
45.55
23.11
9.70
3.14
0.30
-1.09
-1.85
-1.94
-1.44
-1.15
-2.34
-5.87
-11.50
-17.64
-21.93
-22.24
-17.56
-8.51
2.95
14.37
23.65
29.67
32.44
32.73
31.65
30.23
29.22
28.92
29.04
28.66
26.53
21.81
14.75
7.15
1.72
0.89
5.25
12.91
20.05
22.58
18.01
6.37
-10.05
-28.10
-45.01
-59.09
-69.44
-75.45
-76.46
-72.21
-63.43
-52.18
-41.49
-34.34
-32.53
-35.91
-42.40
-48.76
-51.75
-49.29
-41.22
-29.45
-17.23
-7.93
-3.62
-4.25
-7.60
-10.25
-9.16
-3.03
6.97
17.54
24.41
24.03
15.18
-0.11
-16.63
-27.27
-25.43
-7.70
24.21
63.27
99.02
121.11
122.96
104.09
70.08
30.20
-5.91
-31.32
-43.29
-42.83
-33.29
-18.58
-2.10
13.54
26.50
35.44
39.72
39.62
36.53
32.70
30.60
32.07
37.67
46.55
56.73
65.86
72.01
74.37
73.35
70.16
65.80
60.17
51.84
38.90
20.68
-0.81
-20.81
-33.61
-35.39
-26.48
-11.73
1.59
6.94
1.28
-14.17
-35.05
-56.17
-73.33
-84.11
-87.53
-83.50
-72.51
-55.90
-35.94
-15.79
1.27
12.74
17.64
16.70
12.07
6.61
3.10
3.40
7.95
15.61
24.05
30.49
32.66
29.57
21.87
11.65
1.64
-5.68
-9.06
-8.97
-7.64
-8.66
-15.96
-32.53
-58.86
-91.82
-124.67
-148.62
-155.75
-142.24
-110.30
-68.08
-26.93
2.50
13.94
7.30
-11.94
-35.35
-54.76
-64.78
-63.75
-53.26
-36.77
-18.14
-0.70
13.16
21.98
25.14
23.08
17.42
10.94
7.00
8.45
16.63
30.88
48.66
66.56
81.36
90.96
94.83
93.90
89.93
84.72
79.22
73.05
64.77
52.77
36.54
17.52
-1.04
-15.27
-22.46
-22.41
-17.74
-12.74
-11.62
-16.82
-28.29
-43.80
-59.97
-73.33
-81.25
-82.37
-76.69
-65.34
-50.21
-33.38
-16.73
-1.55
11.49
22.15
30.48
36.67
41.10
44.32
47.03
49.73
52.49
54.89
56.14
55.60
53.17
49.45
45.48
42.29
40.50
39.99
40.01
39.35
36.74
31.31
23.02
12.96
3.31
-3.27
-4.66
-0.43
7.59
15.67
19.47
15.73
3.50
-15.47
-37.59
-58.79
-75.87
-87.27
-93.12
-94.75
-93.95
-92.28
-90.56
-88.66
-85.57
-79.88
-70.38
-56.61
-39.12
-19.35
0.78
19.39
35.01
46.75
54.29
57.94
58.60
57.74
56.97
57.42
59.02
60.13
58.07
50.22
35.39
14.81
-8.00
-28.13
-40.78
-42.53
-32.33
-11.91
14.15
38.99
54.88
55.28
37.26
3.05
-40.17
-82.35
-113.91
-128.83
-126.10
-109.09
-83.48
-54.95
-27.66
-4.06
14.55
27.50
34.59
36.41
34.65
31.92
30.99
33.84
40.84
50.67
60.89
69.03
73.63
74.59
73.10
70.87
69.39
69.40
70.77
72.64
73.81
73.16
69.99
64.30
56.74
48.42
40.48
33.60
27.79
22.43
16.78
10.49
3.90
-2.07
-6.48
-8.93
-9.88
-10.32
-11.22
-12.86
-14.65
-15.44
-14.17
-10.56
-5.36
-0.07
3.79
5.44
5.19
4.28
4.30
6.39
10.80
16.85
23.27
28.76
32.47
34.11
33.93
32.48
30.45
28.49
27.14
26.63
26.74
26.74
25.38
21.28
13.38
1.46
-13.56
-29.61
-44.01
-54.26
-58.99
-58.49
-54.64
-50.08
-47.12
-46.77
-48.44
-50.24
-49.72
-44.53
-33.18
-15.53
6.76
30.41
51.26
65.67
71.88
70.51
63.89
54.50
43.83
32.23
19.88
8.03
-0.89
-4.51
-2.40
3.07
7.66
7.51
1.21
-9.76
-22.40
-34.18
-44.02
-51.91
-57.49
-59.16
-54.49
-41.91
-22.39
0.22
20.41
33.17
35.87
29.02
15.66
0.04
-13.86
-23.26
-27.01
-25.45
-19.92
-12.08
-3.43
4.80
11.59
15.93
16.98
14.46
8.94
2.00
-4.37
-8.55
-9.95
-9.14
-7.32
-5.70
-4.94
-5.22
-6.61
-9.43
-14.06
-20.45
-27.63
-33.63
-36.28
-34.12
-27.20
-17.04
-5.83
4.68
13.99
22.81
32.38
43.50
55.93
68.52
79.82
88.94
96.08
102.61
110.64
122.46
139.84
163.45
192.43
224.15
254.51
278.64
291.97
291.33
275.69
246.16
205.36
156.55
102.73
46.12
-12.02
-70.97
-129.99
-187.67
-241.59
-288.58
-325.44
-350.05
-362.19
-363.64
-357.26
-345.43
-328.87
-306.60
-277.21
-240.66
-199.46
-158.29
-122.32
-95.07
-77.18
-66.79
-60.96
-57.40
-55.21
-54.58
-55.56
-57.09
-56.93
-52.64
-42.88
-28.40
-11.96
2.69
12.32
15.46
12.84
6.88
0.53
-3.91
-5.50
-4.62
-2.35
0.34
3.04
6.01
9.71
14.32
19.44
24.19
27.72
29.66
30.41
30.94
32.16
34.28
36.52
37.39
35.44
29.96
21.28
10.67
-0.15
-9.51
-16.10
-19.08
-18.14
-13.44
-5.62
4.41
15.88
28.41
42.14
57.25
73.34
88.91
101.49
108.41
108.01
100.47
88.04
74.28
62.80
55.89
53.92
55.23
56.65
54.08
43.48
22.12
-9.61
-46.81
-80.20
-98.49
-92.77
-60.96
-10.02
45.78
89.79
109.06
98.86
63.43
13.34
-39.10
-83.76
-114.76
-130.41
-132.00
-122.51
-105.74
-85.87
-67.08
-53.02
-46.15
-47.14
-54.79
-66.33
-78.21
-87.07
-90.56
-87.77
-79.08
-65.66
-49.06
-30.76
-11.98
6.23
22.77
36.05
43.88
43.83
34.24
15.64
-8.30
-31.19
-45.83
-47.05
-34.15
-11.52
12.94
31.03
37.50
31.89
18.16
2.50
-9.35
-14.21
-12.05
-5.33
2.45
8.08
9.62
6.70
0.30
-7.68
-15.10
-20.20
-22.03
-20.70
-17.15
-12.73
-8.55
-5.09
-2.11
1.06
5.02
9.75
14.39
16.88
14.19
3.04
-18.60
-49.77
-85.31
-116.13
-131.70
-124.02
-91.50
-40.80
14.81
60.27
84.57
84.92
67.22
42.60
21.99
11.58
11.29
16.58
22.08
24.89
25.49
26.39
29.62
34.78
39.21
39.79
35.22
27.13
19.67
17.40
23.09
36.45
54.33
72.12
85.61
92.00
90.06
79.58
61.05
35.94
7.35
-19.81
-39.74
-47.76
-42.32
-25.99
-4.65
14.63
26.06
26.69
16.65
-1.56
-24.25
-47.34
-66.87
-79.50
-83.22
-77.90
-65.52
-49.54
-33.84
-21.48
-14.04
-11.43
-12.22
-14.27
-15.27
-13.39
-7.74
1.17
11.59
20.94
26.67
27.20
22.56
14.47
5.70
-0.77
-2.75
0.34
7.07
14.15
17.17
11.95
-3.83
-29.11
-58.96
-85.44
-100.04
-96.79
-74.90
-39.61
-0.93
29.79
43.83
38.23
16.69
-12.23
-38.67
-55.21
-59.14
-52.53
-40.21
-27.19
-16.65
-9.45
-4.97
-2.31
-1.00
-0.89
-1.39
-0.91
2.90
12.21
27.97
49.25
73.45
97.19
117.43
132.35
141.52
145.36
144.31
138.10
125.74
106.23
79.85
49.03
18.39
-6.49
-21.13
-23.99
-17.24
-5.76
4.77
10.03
8.20
-0.02
-12.44
-26.50
-39.96
-51.24
-59.46
-64.40
-66.51
-66.83
-66.49
-66.23
-66.04
-65.34
-63.45
-60.14
-55.81
-51.16
-46.64
-42.16
-37.17
-31.22
-24.33
-17.21
-10.85
-5.95
-2.43
0.57
4.48
10.56
19.34
30.32
42.00
52.26
58.74
59.41
53.09
40.03
22.27
3.67
-10.96
-17.28
-13.03
0.93
20.71
40.66
55.24
60.71
56.21
43.67
26.92
10.49
-1.83
-7.91
-7.61
-2.64
4.25
10.31
13.59
13.35
10.05
4.87
-0.66
-4.96
-6.70
-5.14
-0.42
6.40
13.56
19.27
22.36
22.74
21.35
19.66
18.99
19.81
21.44
22.08
19.47
11.81
-1.17
-17.62
-33.63
-44.31
-45.40
-35.07
-14.92
10.10
33.08
47.32
48.55
36.25
13.70
-13.24
-38.10
-55.61
-62.91
-59.88
-48.77
-33.30
-17.77
-5.93
-0.21
-1.08
-6.99
-15.03
-21.96
-25.44
-24.75
-20.89
-15.91
-11.85
-9.88
-9.98
-11.07
-11.69
-10.64
-7.42
-2.51
2.76
6.45
6.74
2.79
-4.31
-11.25
-13.23
-5.78
12.95
40.79
71.65
97.56
111.66
110.83
96.55
73.94
49.44
28.46
13.96
6.34
4.19
5.36
7.79
9.82
10.30
8.53
4.38
-1.57
-8.02
-13.09
-14.86
-12.08
-4.77
5.59
16.73
26.33
33.11
37.06
39.10
40.36
41.44
42.08
41.23
37.52
29.90
18.25
3.93
-10.31
-21.01
-25.33
-22.54
-14.66
-5.99
-1.29
-3.82
-14.02
-29.71
-47.27
-63.33
-75.75
-83.62
-86.75
-85.26
-79.60
-70.87
-61.08
-52.82
-48.45
-49.11
-54.13
-61.22
-67.40
-70.22
-68.72
-63.74
-57.36
-51.76
-48.30
-46.85
-46.05
-43.87
-38.41
-28.38
-13.37
5.96
27.61
48.39
64.63
73.70
75.76
74.57
76.51
87.71
110.75
142.50
174.67
196.77
200.35
182.39
146.30
100.30
54.13
15.68
-10.89
-25.34
-30.01
-28.19
-22.90
-16.44
-10.69
-7.40
-8.31
-14.59
-26.18
-41.10
-55.66
-65.43
-66.98
-59.35
-44.66
-27.39
-12.70
-4.39
-3.50
-8.13
-14.49
-18.51
-17.38
-10.36
1.03
13.48
22.84
25.54
20.17
8.28
-5.84
-16.94
-21.33
-18.86
-13.08
-9.41
-12.24
-22.61
-37.81
-52.97
-63.54
-67.27
-64.53
-57.39
-48.15
-38.49
-29.44
-21.90
-16.85
-15.28
-17.64
-23.36
-30.80
-37.77
-42.27
-43.29
-41.02
-36.73
-32.19
-29.01
-27.95
-28.67
-29.76
-29.18
-24.97
-15.99
-2.53
13.42
28.61
39.52
43.71
41.01
34.00
27.19
25.40
31.70
45.97
64.82
82.83
94.74
97.36
90.69
77.48
61.90
47.75
37.33
31.04
27.85
26.33
25.42
24.87
24.92
25.78
27.02
27.58
26.25
22.40
16.51
10.15
5.31
3.49
5.03
8.98
13.64
17.32
19.09
18.97
17.75
16.48
15.96
16.58
18.31
20.87
23.75
26.12
26.60
23.44
15.09
1.12
-16.95
-35.57
-50.16
-56.87
-54.30
-44.20
-30.73
-18.55
-10.97
-8.94
-11.51
-17.08
-24.42
-32.90
-41.77
-49.49
-53.68
-52.24
-44.75
-33.39
-22.47
-16.60
-18.55
-27.80
-40.74
-52.30
-58.16
-56.60
-48.89
-38.45
-29.08
-23.32
-21.62
-22.53
-23.73
-23.20
-20.11
-14.93
-8.98
-3.99
-1.62
-3.17
-9.16
-18.82
-29.56
-37.24
-37.23
-26.48
-5.14
22.65
49.85
68.99
75.00
67.12
49.01
27.19
8.45
-2.43
-3.94
2.30
12.77
23.62
31.92
36.17
36.04
31.83
24.12
13.86
2.69
-6.94
-12.30
-11.34
-3.76
8.67
22.77
35.12
43.35
46.77
46.20
43.16
38.79
33.18
25.22
13.38
-2.95
-22.13
-39.93
-50.49
-48.71
-32.79
-5.70
25.52
52.29
67.79
69.38
59.03
41.83
23.65
9.12
0.63
-1.61
0.99
6.01
10.61
12.16
8.84
0.33
-12.03
-25.49
-36.84
-43.41
-43.98
-39.16
-31.03
-22.36
-15.66
-12.48
-13.03
-16.37
-20.67
-23.86
-24.17
-20.90
-14.96
-9.02
-6.77
-11.49
-24.53
-44.24
-66.22
-84.63
-94.24
-92.03
-78.12
-55.64
-29.78
-6.40
9.57
15.64
12.61
4.37
-3.61
-6.44
-1.98
8.42
20.72
30.32
34.21
32.05
25.87
18.68
12.90
9.66
8.86
10.07
13.19
18.65
26.98
38.18
51.12
63.70
73.56
79.13
80.20
77.64
72.46
64.80
53.88
38.97
20.96
3.06
-10.00
-14.07
-7.97
5.61
21.08
32.52
36.23
31.84
21.77
9.35
-2.75
-13.30
-22.10
-29.27
-34.73
-38.33
-40.18
-40.99
-41.84
-43.67
-46.79
-50.57
-53.71
-54.71
-52.49
-46.79
-38.28
-28.26
-18.23
-9.43
-2.56
2.26
5.36
7.21
8.31
9.09
9.89
10.96
12.21
13.02
12.09
7.76
-1.23
-14.83
-31.02
-46.08
-55.70
-56.67
-48.32
-32.96
-15.17
-0.07
8.45
9.11
3.40
-5.16
-12.58
-15.78
-13.64
-7.06
1.62
9.79
15.62
18.68
19.69
19.92
20.37
21.34
22.42
23.01
22.81
22.09
21.58
22.08
24.04
27.33
31.28
35.06
38.05
40.09
41.27
41.63
40.76
37.83
32.00
23.21
12.60
2.55
-4.22
-5.83
-2.13
5.06
12.76
17.96
18.68
14.42
5.94
-5.29
-17.62
-29.38
-39.09
-45.45
-47.72
-45.99
-41.42
-35.99
-31.82
-30.35
-31.70
-34.63
-37.06
-36.98
-33.28
-26.12
-16.77
-6.98
1.73
8.63
13.83
18.00
21.80
25.52
28.98
31.59
32.66
31.43
27.17
19.41
8.32
-4.64
-16.44
-22.94
-20.34
-6.87
15.77
42.49
66.37
81.16
83.56
74.13
56.68
36.50
18.54
6.22
1.09
3.06
10.87
22.42
35.06
46.12
53.50
56.31
55.19
52.09
49.52
49.66
53.61
61.15
70.91
80.84
88.77
92.75
91.60
85.07
74.05
60.48
46.56
33.76
22.17
10.58
-2.37
-16.86
-31.23
-42.63
-48.69
-49.13
-46.33
-44.33
-46.87
-55.74
-70.30
-88.29
-106.96
-123.97
-137.35
-145.26
-146.16
-139.57
-127.02
-112.17
-99.88
-94.44
-98.01
-109.82
-126.61
-143.97
-157.82
-165.45
-165.99
-160.23
-150.15
-138.09
-125.90
-114.33
-102.71
-89.48
-72.93
-51.97
-26.54
2.25
31.90
58.57
77.74
85.68
81.77
70.30
60.34
62.74
85.22
127.73
180.92
228.97
255.99
252.87
221.12
171.80
120.21
79.19
54.64
44.95
44.02
45.57
46.31
46.33
47.28
49.75
51.92
50.20
41.40
24.98
4.00
-15.64
-27.79
-28.66
-18.51
-1.52
15.89
27.70
30.65
25.14
14.68
3.85
-3.72
-6.73
-6.06
-3.63
-1.19
0.06
-1.04
-6.30
-18.17
-38.54
-66.99
-99.74
-130.34
-152.07
-160.83
-156.97
-144.80
-130.34
-118.53
-111.63
-109.22
-109.68
-111.69
-114.85
-119.20
-124.34
-128.95
-131.25
-129.87
-124.73
-117.14
-109.13
-102.32
-97.08
-92.49
-86.78
-78.30
-66.09
-50.17
-31.33
-10.74
10.36
30.75
49.23
64.73
76.58
84.78
90.19
94.30
98.68
104.28
110.75
116.32
118.34
114.45
103.89
88.39
71.95
59.39
54.41
57.91
67.80
80.11
90.99
98.14
101.02
99.93
94.93
85.41
70.80
51.82
31.07
12.52
-0.12
-5.09
-3.33
2.19
7.94
11.51
12.31
11.31
10.05
9.67
10.48
12.05
13.78
15.30
16.68
18.28
20.30
22.67
25.01
26.94
28.40
29.75
31.57
34.32
37.99
41.98
45.40
47.56
48.31
48.13
47.79
47.71
47.65
46.63
43.56
37.93
30.28
22.12
15.10
10.33
7.85
6.85
6.33
5.52
4.12
1.92
-1.51
-6.84
-14.36
-23.29
-31.60
-36.58
-36.18
-30.28
-21.00
-11.96
-6.60
-6.54
-10.80
-16.43
-19.87
-18.70
-12.52
-2.91
7.58
16.73
23.56
28.35
32.10
35.67
39.29
42.53
44.62
44.58
41.13
32.59
17.37
-5.00
-32.56
-60.76
-83.50
-95.70
-95.77
-86.57
-74.10
-64.55
-61.47
-64.47
-70.21
-74.76
-75.68
-72.75
-67.04
-59.51
-50.12
-38.08
-22.75
-4.42
15.51
35.18
52.99
68.01
79.92
88.74
94.49
97.29
97.48
95.71
92.75
89.22
85.25
80.45
73.96
64.78
52.01
35.25
15.08
-6.51
-26.35
-40.76
-46.98
-44.37
-34.95
-22.81
-12.53
-7.50
-8.78
-15.10
-23.73
-31.70
-36.87
-38.26
-36.18
-31.82
-26.98
-23.54
-22.83
-25.11
-29.36
-33.50
-35.10
-32.32
-24.63
-13.14
-0.37
10.45
16.40
15.81
8.86
-2.53
-15.31
-26.34
-33.48
-36.30
-36.41
-37.16
-42.63
-56.18
-78.70
-107.55
-136.63
-158.10
-165.09
-154.60
-129.07
-95.90
-64.62
-43.14
-34.55
-36.02
-40.54
-40.21
-30.00
-9.78
15.98
40.59
58.42
67.29
68.86
66.99
65.37
65.42
66.24
65.81
62.87
58.12
53.96
53.18
57.28
66.00
77.65
90.36
102.96
114.71
124.07
127.69
120.75
99.09
62.25
15.13
-32.81
-71.04
-92.23
-95.00
-83.75
-65.84
-47.97
-33.82
-23.98
-17.42
-13.24
-11.31
-11.81
-14.32
-17.42
-19.21
-18.30
-14.65
-9.69
-5.72
-5.09
-8.99
-16.81
-26.23
-34.13
-38.09
-37.72
-34.90
-32.86
-34.19
-39.08
-44.72
-46.49
-40.20
-24.35
-1.02
24.57
45.59
55.63
50.66
30.58
-0.14
-33.17
-58.59
-68.15
-58.28
-31.61
3.96
38.00
61.25
68.44
59.55
39.07
13.96
-8.71
-23.81
-29.18
-25.61
-16.06
-4.26
6.51
14.21
18.18
18.86
17.43
15.53
14.94
17.18
22.96
31.85
42.47
52.91
61.57
67.53
70.74
71.82
71.84
72.13
73.83
77.23
80.99
82.15
77.19
63.98
43.49
20.16
0.28
-10.88
-11.74
-5.04
3.56
8.49
6.83
-0.76
-10.90
-19.53
-23.68
-22.40
-16.61
-8.48
-0.80
3.73
3.01
-3.88
-16.34
-32.57
-50.12
-66.78
-81.24
-93.22
-103.15
-111.73
-119.62
-127.29
-134.93
-142.15
-147.69
-149.28
-144.24
-130.97
-110.35
-86.17
-63.72
-47.04
-36.50
-28.07
-15.40
6.49
37.85
73.38
104.45
123.16
125.91
114.67
95.39
74.99
58.56
48.16
43.40
42.77
44.81
48.39
52.56
56.22
58.16
57.42
53.79
48.07
41.83
36.94
34.84
36.12
40.30
46.05
51.71
55.78
57.24
55.65
50.80
42.49
30.51
14.97
-3.09
-21.43
-36.92
-46.56
-48.68
-43.58
-33.48
-21.59
-10.93
-3.53
-0.17
-0.70
-4.36
-9.95
-15.82
-19.87
-19.97
-14.91
-5.30
6.12
15.11
17.54
11.17
-3.22
-21.89
-39.72
-52.27
-57.52
-56.39
-51.92
-47.64
-46.02
-47.80
-52.25
-57.90
-63.38
-67.77
-70.70
-72.25
-72.89
-73.60
-75.73
-80.71
-89.40
-101.31
-114.26
-124.62
-128.43
-122.78
-107.18
-84.02
-57.98
-34.46
-17.72
-9.54
-8.87
-12.51
-16.52
-17.63
-14.21
-6.65
2.98
11.71
16.68
15.93
8.71
-4.45
-22.15
-42.13
-61.33
-76.18
-83.45
-81.74
-72.87
-61.89
-55.38
-58.36
-71.42
-90.18
-107.33
-116.43
-115.14
-105.81
-93.28
-81.36
-70.21
-56.48
-35.92
-6.62
29.14
65.69
96.61
117.69
128.50
131.89
132.10
132.58
134.77
138.18
141.37
143.07
142.84
141.00
138.11
134.35
129.36
122.44
113.11
101.63
89.24
77.99
70.08
67.06
69.17
75.29
83.43
91.66
98.90
105.16
110.98
116.67
121.72
124.88
124.81
120.97
113.85
104.66
94.41
83.10
69.66
52.48
30.41
3.32
-27.61
-60.19
-91.48
-117.98
-135.82
-141.18
-131.38
-106.23
-69.03
-26.41
13.30
42.78
58.23
60.57
54.67
47.04
43.12
45.54
53.86
65.76
78.67
90.99
102.27
112.64
122.00
129.68
134.75
136.79
136.34
134.91
134.48
136.62
141.71
148.75
155.62
160.00
160.26
156.22
149.05
140.70
132.97
126.67
121.44
116.18
109.86
102.19
93.80
85.96
79.86
76.09
74.37
73.74
72.98
70.98
66.98
60.64
51.96
41.21
28.87
15.48
1.59
-12.36
-25.97
-38.83
-50.45
-60.37
-68.38
-74.61
-79.51
-83.58
-87.10
-90.02
-92.09
-93.24
-93.86
-94.67
-96.47
-99.64
-103.94
-108.63
-112.90
-116.13
-118.01
-118.34
-116.85
-113.24
-107.46
-99.98
-91.81
-84.23
-78.23
-74.15
-71.59
-69.66
-67.33
-63.58
-57.46
-48.06
-34.64
-17.01
4.13
27.06
49.54
69.59
86.32
99.99
111.52
121.51
129.39
133.41
131.25
120.86
101.17
72.13
34.55
-9.99
-58.84
-107.97
-152.17
-186.10
-206.08
-211.64
-205.93
-194.61
-183.73
-177.61
-177.73
-182.85
-190.31
-197.40
-202.25
-204.03
-202.54
-197.77
-189.64
-178.12
-163.51
-146.63
-128.91
-111.98
-97.14
-84.91
-74.80
-65.68
-56.45
-46.61
-36.58
-27.46
-20.22
-15.23
-11.97
-9.32
-6.23
-2.27
2.24
6.47
9.63
11.42
12.18
12.61
13.38
14.79
16.63
18.40
19.59
19.93
19.55
18.80
18.12
17.72
17.52
17.24
16.57
15.37
13.71
11.81
9.86
7.90
5.89
3.81
1.84
0.33
-0.36
-0.00
1.35
3.36
5.58
7.66
9.38
10.72
11.75
12.49
12.95
13.05
12.69
11.86
10.61
9.15
7.72
6.56
5.81
5.43
5.29
5.24
5.17
5.09
5.09
5.32
5.87
6.80
8.01
9.39
10.78
12.12
13.39
14.67
16.02
17.43
18.79
19.98
21.03
22.17
23.78
26.15
29.25
32.69
35.83
38.12
39.37
39.77
39.79
39.86
40.17
40.58
40.72
40.21
38.77
36.32
32.97
28.93
24.48
19.92
15.42
11.04
6.67
2.12
-2.76
-7.92
-13.21
-18.32
-22.98
-27.10
-30.79
-34.27
-37.69
-41.09
-44.27
-46.93
-48.77
-49.62
-49.45
-48.29
-46.22
-43.22
-39.29
-34.49
-29.07
-23.47
-18.18
-13.59
-9.87
-6.91
-4.47
-2.29
-0.30
1.42
2.73
3.55
3.92
3.97
3.81
3.47
2.91
2.07
0.98
-0.19
-1.22
-1.88
-2.03
-1.68
-0.96
-0.13
0.55
0.90
0.90
0.65
0.36
0.17
0.14
0.17
0.14
-0.05
-0.36
-0.68
-0.85
-0.74
-0.29
0.48
1.52
2.79
4.29
6.03
7.97
10.02
12.05
13.90
15.44
16.59
17.30
17.55
17.29
16.49
15.19
13.49
11.61
9.75
8.06
6.55
5.15
3.79
2.44
1.12
-0.14
-1.30
-2.38
-3.39
-4.36
-5.37
-6.48
-7.81
-9.40
-11.15
-12.79
-13.98
-14.52
-14.38
-13.79
-13.06
-12.48
-12.18
-12.15
-12.35
-12.83
-13.71
-15.12
-17.01
-19.16
-21.15
-22.53
-22.98
-22.35
-20.74
-18.44
-15.83
-13.23
-10.80
-8.51
-6.22
-3.80
-1.29
1.13
3.18
4.69
5.69
6.39
7.05
7.79
8.54
9.11
9.39
9.40
9.34
9.42
9.77
10.36
11.03
11.51
11.63
11.23
10.31
8.99
7.51
6.17
5.20
4.65
4.37
4.08
3.53
2.60
1.40
0.09
-1.12
-2.15
-3.02
-3.83
-4.67
-5.64
-6.84
-8.35
-10.20
-12.22
-14.08
-15.34
-15.60
-14.64
-12.56
-9.70
-6.48
-3.28
-0.34
2.25
4.50
6.43
8.06
9.39
10.47
11.37
12.20
13.00
13.82
14.62
15.37
16.01
16.55
16.99
17.36
17.70
18.01
18.33
18.62
18.82
18.80
18.44
17.68
16.58
15.31
14.11
13.13
12.38
11.64
10.61
9.05
6.90
4.35
1.75
-0.54
-2.32
-3.61
-4.58
-5.48
-6.52
-7.76
-9.15
-10.52
-11.64
-12.27
-12.17
-11.17
-9.21
-6.41
-3.04
0.48
3.78
6.66
9.13
11.35
13.53
15.79
18.09
20.27
22.15
23.55
24.43
24.77
24.53
23.72
22.35
20.51
18.38
16.16
14.04
12.09
10.34
8.72
7.20
5.76
4.43
3.32
2.46
1.91
1.58
1.40
1.17
0.73
-0.09
-1.37
-3.06
-5.06
-7.22
-9.47
-11.81
-14.38
-17.27
-20.44
-23.65
-26.45
-28.31
-28.77
-27.60
-24.81
-20.66
-15.59
-10.07
-4.59
0.46
4.90
8.71
12.05
15.14
18.06
20.75
23.02
24.59
25.27
24.98
23.81
21.96
19.71
17.38
15.28
13.61
12.43
11.61
10.84
9.76
8.08
5.75
2.92
-0.07
-2.89
-5.42
-7.73
-10.05
-12.64
-15.54
-18.62
-21.68
-24.51
-27.03
-29.19
-30.92
-32.00
-32.12
-30.92
-28.14
-23.68
-17.56
-10.07
-1.71
6.73
14.28
19.97
23.12
23.54
21.59
18.05
13.84
9.76
6.37
3.88
2.22
1.09
0.06
-1.30
-3.26
-5.83
-8.71
-11.26
-12.73
-12.45
-10.08
-5.68
0.32
7.36
14.81
22.18
29.11
35.14
39.71
42.14
41.81
38.35
31.92
23.17
13.07
2.63
-7.37
-16.57
-25.00
-32.92
-40.61
-48.11
-55.14
-61.02
-64.78
-65.30
-61.62
-53.13
-39.82
-22.42
-2.34
18.55
38.28
55.19
68.16
76.80
81.21
81.80
79.15
73.88
66.68
58.33
49.68
41.48
34.35
28.65
24.52
22.00
20.97
21.23
22.56
24.69
27.43
30.67
34.28
38.06
41.58
44.26
45.45
44.65
41.63
36.45
29.38
20.76
10.98
0.46
-10.26
-20.59
-29.86
-37.54
-43.27
-46.86
-48.29
-47.57
-44.80
-40.27
-34.53
-28.32
-22.51
-17.73
-14.22
-11.73
-9.75
-7.72
-5.38
-2.77
-0.26
1.74
2.92
3.14
2.39
0.66
-2.02
-5.53
-9.51
-13.36
-16.30
-17.68
-17.11
-14.62
-10.63
-5.75
-0.65
4.06
7.89
10.47
11.60
11.26
9.60
6.93
3.65
0.11
-3.38
-6.62
-9.53
-12.10
-14.38
-16.46
-18.45
-20.37
-22.20
-23.81
-24.94
-25.35
-24.78
-23.18
-20.74
-17.85
-15.04
-12.74
-11.13
-10.14
-9.54
-9.09
-8.69
-8.41
-8.31
-8.37
-8.38
-8.06
-7.10
-5.38
-2.90
0.12
3.43
6.77
9.95
12.82
15.25
17.10
18.26
18.70
18.52
17.95
17.28
16.73
16.38
16.05
15.46
14.38
12.77
10.94
9.46
8.93
9.72
11.68
14.11
16.01
16.40
14.79
11.54
7.88
5.57
6.16
10.38
17.63
26.04
32.91
35.35
30.83
17.66
-4.59
-34.71
-69.65
-104.66
-134.22
-153.41
-159.44
-152.44
-135.22
-112.12
-87.50
-64.58
-45.12
-29.73
-18.37
-10.61
-5.62
-2.12
1.52
6.95
15.28
26.73
40.63
55.68
70.17
82.27
90.13
92.08
87.04
74.95
57.04
35.72
14.05
-5.04
-19.53
-28.79
-33.37
-34.55
-33.67
-31.60
-28.57
-24.33
-18.42
-10.40
-0.02
12.57
26.58
40.37
51.61
57.79
57.03
48.98
35.17
18.61
2.76
-9.71
-17.65
-21.46
-22.34
-21.45
-19.23
-15.56
-10.24
-3.56
3.55
9.82
14.22
16.33
16.46
15.25
13.29
10.74
7.36
2.69
-3.61
-11.52
-20.45
-29.14
-35.65
-37.54
-32.53
-19.43
0.81
24.81
47.39
63.12
68.31
62.38
48.06
30.36
14.70
5.11
3.20
8.05
16.87
25.96
31.66
31.17
23.15
8.12
-11.73
-33.03
-52.12
-66.10
-73.33
-73.68
-68.18
-58.48
-46.41
-33.63
-21.55
-11.24
-3.49
1.28
3.04
2.08
-1.10
-5.90
-11.71
-17.88
-23.78
-28.78
-32.30
-33.85
-33.21
-30.50
-26.21
-21.10
-16.07
-11.86
-8.98
-7.53
-7.31
-7.83
-8.43
-8.41
-7.23
-4.68
-1.01
3.11
6.90
9.70
11.31
12.07
12.66
13.82
15.94
19.03
22.71
26.47
29.84
32.58
34.61
35.98
36.77
36.98
36.60
35.67
34.36
32.95
31.73
30.84
30.18
29.42
28.21
26.33
23.86
21.19
18.78
16.97
15.80
14.97
14.04
12.63
10.61
8.13
5.50
3.14
1.41
0.59
0.86
2.20
4.41
7.07
9.65
11.62
12.68
12.81
12.32
11.65
11.19
11.16
11.46
11.85
12.02
11.73
10.87
9.50
7.75
5.82
3.86
1.98
0.23
-1.33
-2.67
-3.79
-4.77
-5.78
-6.96
-8.33
-9.77
-10.98
-11.71
-11.86
-11.63
-11.44
-11.80
-13.06
-15.23
-17.93
-20.47
-22.11
-22.30
-20.89
-18.19
-14.81
-11.48
-8.69
-6.63
-5.14
-3.90
-2.56
-0.93
1.01
3.17
5.42
7.60
9.60
11.30
12.57
13.31
13.48
13.16
12.56
11.91
11.42
11.17
11.12
11.10
10.91
10.42
9.55
8.32
6.80
5.11
3.35
1.62
-0.01
-1.54
-3.02
-4.55
-6.19
-7.97
-9.88
-11.90
-13.98
-16.01
-17.82
-19.14
-19.68
-19.19
-17.63
-15.15
-12.08
-8.83
-5.77
-3.10
-0.86
1.00
2.58
3.92
5.09
6.10
6.96
7.69
8.28
8.72
8.96
8.96
8.70
8.18
7.40
6.43
5.36
4.33
3.49
2.97
2.81
2.90
3.03
2.94
2.43
1.43
0.02
-1.60
-3.20
-4.60
-5.73
-6.64
-7.49
-8.48
-9.82
-11.59
-13.81
-16.27
-18.66
-20.52
-21.45
-21.13
-19.56
-16.97
-13.83
-10.59
-7.58
-4.98
-2.73
-0.74
1.12
2.88
4.55
6.10
7.44
8.50
9.22
9.58
9.60
9.33
8.81
8.09
7.24
6.37
5.63
5.12
4.84
4.75
4.69
4.55
4.27
3.83
3.19
2.35
1.32
0.18
-0.97
-2.04
-3.09
-4.30
-5.87
-7.89
-10.19
-12.46
-14.28
-15.35
-15.50
-14.71
-13.08
-10.78
-8.07
-5.24
-2.59
-0.33
1.48
2.94
4.22
5.46
6.63
7.63
8.26
8.45
8.24
7.81
7.40
7.16
7.09
7.08
6.98
6.70
6.25
5.78
5.35
5.02
4.74
4.49
4.31
4.29
4.52
5.05
5.88
6.99
8.48
10.55
13.36
16.89
20.75
24.24
26.62
27.39
26.60
24.77
22.66
20.91
19.78
19.10
18.53
17.79
16.78
15.56
14.18
12.55
10.51
7.97
5.08
2.27
0.21
-0.44
0.75
3.79
8.23
13.28
18.08
21.98
24.72
26.53
27.95
29.64
32.19
35.87
40.45
44.95
47.59
46.04
38.14
22.64
-0.03
-27.73
-57.13
-84.70
-107.60
-124.18
-133.97
-137.30
-134.99
-128.00
-117.45
-104.61
-90.77
-77.17
-64.78
-54.13
-45.32
-37.95
-31.38
-24.97
-18.40
-11.77
-5.59
-0.50
3.12
5.26
6.32
6.88
7.38
8.00
8.65
9.15
9.36
9.34
9.26
9.38
9.84
10.61
11.43
11.97
11.96
11.37
10.40
9.42
8.75
8.45
8.30
7.86
6.69
4.63
1.90
-1.00
-3.42
-4.82
-5.00
-4.02
-2.13
0.30
2.97
5.67
8.25
10.59
12.61
14.21
15.41
16.25
16.89
17.46
18.00
18.45
18.67
18.53
18.00
17.24
16.44
15.79
15.30
14.87
14.26
13.35
12.14
10.76
9.44
8.32
7.47
6.89
6.48
6.06
5.40
4.27
2.52
0.13
-2.70
-5.53
-7.85
-9.20
-9.25
-7.97
-5.59
-2.57
0.59
3.46
5.84
7.75
9.32
10.62
11.68
12.41
12.69
12.51
11.94
11.13
10.20
9.26
8.34
7.53
6.87
6.35
5.87
5.24
4.29
2.88
1.06
-1.01
-3.06
-4.88
-6.35
-7.54
-8.65
-9.91
-11.51
-13.51
-15.73
-17.91
-19.74
-20.88
-21.10
-20.26
-18.36
-15.58
-12.22
-8.68
-5.28
-2.18
0.64
3.34
6.02
8.64
11.00
12.87
14.13
14.84
15.23
15.57
15.95
16.29
16.41
16.08
15.26
14.09
12.84
11.82
11.20
10.97
10.95
10.96
10.79
10.35
9.60
8.50
7.03
5.14
2.82
0.11
-2.86
-5.89
-8.73
-11.09
-12.75
-13.55
-13.44
-12.47
-10.85
-8.80
-6.64
-4.57
-2.75
-1.19
0.13
1.26
2.21
2.96
3.48
3.79
3.99
4.21
4.58
5.14
5.79
6.36
6.64
6.47
5.83
4.87
3.84
2.98
2.41
2.09
1.77
1.24
0.38
-0.75
-1.97
-3.17
-4.36
-5.70
-7.41
-9.59
-12.15
-14.81
-17.28
-19.28
-20.66
-21.38
-21.39
-20.58
-18.86
-16.18
-12.65
-8.60
-4.43
-0.56
2.84
5.78
8.41
10.82
12.93
14.55
15.49
15.73
15.46
15.05
14.83
14.90
15.10
15.13
14.75
13.94
12.93
12.05
11.53
11.33
11.17
10.64
9.41
7.50
5.20
2.95
1.05
-0.49
-1.95
-3.70
-5.94
-8.71
-11.79
-14.92
-17.89
-20.47
-22.41
-23.39
-23.13
-21.51
-18.72
-15.14
-11.34
-7.72
-4.54
-1.86
0.37
2.21
3.76
5.12
6.50
8.06
9.91
11.98
14.07
15.90
17.28
18.12
18.47
18.47
18.21
17.76
17.12
16.30
15.36
14.44
13.69
13.27
13.27
13.68
14.42
15.35
16.35
17.33
18.22
18.93
19.28
19.08
18.20
16.67
14.79
13.00
11.79
11.54
12.38
14.20
16.75
19.71
22.77
25.73
28.46
30.90
32.96
34.59
35.73
36.33
36.39
35.88
34.61
32.15
27.76
20.66
10.23
-3.60
-20.23
-38.39
-56.34
-72.24
-84.51
-92.18
-95.05
-93.70
-89.24
-82.95
-75.85
-68.57
-61.37
-54.40
-47.92
-42.33
-38.00
-35.16
-33.78
-33.70
-34.74
-36.72
-39.34
-42.07
-44.13
-44.69
-43.18
-39.47
-33.96
-27.33
-20.22
-13.01
-5.81
1.40
8.60
15.63
22.26
28.32
33.87
39.12
44.31
49.52
54.61
59.23
63.08
66.10
68.60
71.12
74.23
78.20
82.89
87.91
92.75
97.04
100.59
103.31
105.04
105.56
104.59
101.98
97.86
92.61
86.69
80.47
74.05
67.37
60.36
53.19
46.25
39.99
34.76
30.58
27.26
24.50
22.13
20.07
18.36
16.91
15.50
13.77
11.44
8.34
4.54
0.22
-4.32
-8.66
-12.24
-14.33
-14.29
-11.76
-6.98
-0.89
5.18
9.85
12.10
11.47
7.95
1.68
-7.31
-19.07
-33.53
-50.14
-67.64
-84.26
-98.19
-108.10
-113.49
-114.62
-112.17
-106.87
-99.24
-89.66
-78.53
-66.49
-54.54
-44.03
-36.39
-32.85
-34.06
-39.69
-48.33
-57.70
-65.23
-68.92
-67.91
-62.76
-55.00
-46.53
-38.78
-32.46
-27.57
-23.72
-20.51
-17.76
-15.54
-13.98
-13.17
-13.03
-13.23
-13.28
-12.64
-10.91
-7.97
-4.07
0.25
4.44
8.16
11.52
15.09
19.61
25.62
33.07
41.18
48.69
54.29
57.23
57.70
56.90
56.76
59.44
66.91
80.48
100.46
125.89
154.38
182.27
205.34
219.89
223.61
216.20
198.95
173.75
141.86
103.32
57.44
4.35
-53.50
-110.75
-160.18
-195.08
-211.83
-211.25
-198.24
-179.68
-161.87
-148.62
-140.78
-137.20
-136.10
-136.21
-136.84
-137.51
-137.37
-135.21
-129.84
-120.85
-108.94
-95.82
-83.68
-74.19
-68.01
-64.55
-62.40
-59.94
-56.02
-50.33
-43.43
-36.44
-30.54
-26.47
-24.18
-22.87
-21.26
-18.14
-12.94
-5.90
1.98
9.42
15.39
19.47
21.91
23.37
24.53
25.70
26.86
27.73
28.04
27.72
26.89
25.80
24.66
23.64
22.86
22.46
22.64
23.55
25.16
27.20
29.25
30.84
31.68
31.74
31.27
30.63
30.21
30.28
30.90
32.06
33.63
35.53
37.74
40.35
43.52
47.29
51.32
54.63
55.68
52.58
43.78
28.66
8.05
-15.84
-39.84
-60.62
-75.47
-82.84
-82.56
-75.55
-63.57
-48.70
-33.04
-18.39
-6.12
2.97
8.63
11.12
11.07
9.42
7.23
5.56
5.25
6.67
9.68
13.69
17.86
21.42
23.92
25.30
25.80
25.68
24.98
23.38
20.38
15.54
8.78
0.57
-8.19
-16.33
-22.70
-26.37
-26.78
-23.82
-17.82
-9.48
0.16
9.90
18.60
25.33
29.45
30.58
28.48
23.04
14.35
2.87
-10.36
-23.70
-35.09
-42.58
-44.78
-41.35
-33.07
-21.67
-9.26
2.16
11.18
17.20
20.27
20.83
19.26
15.75
10.33
3.14
-5.15
-13.28
-19.59
-22.59
-21.56
-16.85
-9.82
-2.35
3.84
7.57
8.38
6.43
2.21
-3.57
-10.03
-16.24
-21.21
-24.08
-24.35
-21.97
-17.36
-11.24
-4.39
2.50
8.92
14.51
18.97
22.09
23.79
24.26
24.07
23.94
24.63
26.60
29.83
33.90
38.21
42.28
45.96
49.40
52.95
56.93
61.44
66.33
71.29
76.04
80.45
84.62
88.78
93.20
98.04
103.26
108.67
113.83
118.12
120.53
119.74
114.24
102.66
84.26
59.19
28.65
-5.36
-40.50
-74.53
-105.71
-132.89
-155.40
-172.75
-184.45
-190.09
-189.52
-183.19
-172.22
-158.21
-142.85
-127.33
-112.23
-97.53
-83.06
-68.70
-54.46
-40.32
-25.93
-10.80
5.42
22.35
38.73
52.68
62.37
66.88
66.63
63.18
58.56
54.45
51.64
49.99
48.87
47.71
46.36
45.16
44.75
45.74
48.51
53.08
59.13
66.02
72.89
78.79
82.87
84.51
83.50
80.08
74.84
68.55
62.00
55.73
49.91
44.18
37.76
29.68
19.28
6.72
-6.84
-19.46
-29.22
-34.98
-36.91
-36.34
-35.01
-34.28
-34.54
-35.44
-36.50
-37.71
-39.71
-43.31
-48.75
-55.29
-61.38
-65.45
-66.62
-65.19
-62.30
-59.31
-57.15
-55.96
-55.24
-54.30
-52.62
-49.98
-46.31
-41.52
-35.33
-27.60
-18.73
-10.00
-3.48
-1.38
-5.17
-14.65
-27.77
-41.22
-51.63
-56.74
-56.11
-50.87
-42.98
-34.26
-25.87
-18.22
-11.37
-5.34
-0.22
3.92
7.25
10.21
13.39
17.25
21.84
26.75
31.28
34.75
36.79
37.45
37.12
36.12
34.33
31.05
25.24
16.35
4.85
-7.31
-17.33
-22.75
-22.66
-18.31
-12.56
-8.52
-8.21
-12.01
-19.08
-28.31
-39.31
-52.27
-67.49
-84.53
-101.78
-116.95
-127.89
-133.34
-133.05
-127.36
-116.73
-101.63
-82.95
-62.50
-43.21
-28.40
-20.67
-20.68
-26.66
-35.06
-41.93
-44.50
-42.07
-35.87
-28.09
-20.64
-14.27
-8.48
-2.10
5.74
14.86
24.00
31.39
35.89
37.71
38.56
40.87
46.56
56.06
68.05
80.24
90.57
98.28
104.12
109.73
116.64
125.27
134.85
143.90
151.15
156.35
160.54
165.69
173.82
186.08
202.09
219.71
235.59
246.09
248.37
241.33
225.86
204.36
179.83
154.78
130.49
106.89
83.07
57.82
30.08
-0.80
-34.85
-71.07
-107.08
-139.20
-163.25
-175.90
-175.99
-164.95
-146.10
-123.21
-99.10
-75.18
-51.86
-29.40
-8.47
10.23
26.59
41.67
57.31
74.94
94.28
112.75
125.96
129.09
118.64
93.68
56.36
11.42
-34.94
-76.47
-108.34
-128.40
-137.54
-139.22
-137.88
-137.09
-138.12
-139.75
-139.39
-134.96
-126.26
-115.16
-104.62
-97.11
-93.47
-92.78
-92.97
-91.82
-87.59
-79.32
-66.93
-51.45
-35.07
-21.00
-12.80
-13.31
-23.68
-43.03
-68.72
-97.07
-124.20
-146.59
-161.19
-165.69
-158.73
-140.45
-112.79
-79.40
-44.94
-13.81
10.93
28.24
38.88
44.72
47.68
49.11
49.49
48.64
46.28
42.31
37.10
31.33
25.81
21.22
18.06
16.57
16.79
18.60
21.74
25.83
30.38
34.82
38.61
41.39
43.01
43.52
43.06
41.72
39.56
36.55
32.79
28.53
24.11
19.95
16.35
13.43
11.05
8.92
6.78
4.46
2.02
-0.34
-2.40
-4.03
-5.34
-6.52
-7.75
-9.04
-10.28
-11.33
-12.11
-12.64
-12.97
-13.02
-12.59
-11.39
-9.22
-6.09
-2.30
1.63
5.17
7.83
9.39
9.90
9.65
9.12
8.76
8.90
9.61
10.68
11.74
12.40
12.46
11.86
10.82
9.63
8.66
8.16
8.17
8.55
8.96
9.01
8.35
6.82
4.44
1.37
-2.11
-5.77
-9.44
-13.04
-16.56
-19.96
-23.14
-25.92
-28.04
-29.23
-29.30
-28.14
-25.81
-22.51
-18.52
-14.26
-10.18
-6.68
-4.08
-2.48
-1.76
-1.64
-1.81
-1.96
-1.97
-1.77
-1.42
-0.92
-0.27
0.58
1.60
2.74
3.89
4.95
5.83
6.45
6.72
6.51
5.76
4.49
2.85
1.06
-0.68
-2.29
-3.79
-5.35
-7.08
-9.06
-11.24
-13.51
-15.62
-17.25
-17.99
-17.46
-15.49
-12.15
-7.85
-3.21
1.19
4.92
7.82
9.98
11.57
12.74
13.60
14.19
14.57
14.81
15.02
15.30
15.70
16.23
16.86
17.53
18.10
18.42
18.26
17.44
15.88
13.65
11.04
8.43
6.13
4.30
2.86
1.58
0.21
-1.50
-3.64
-6.15
-8.77
-11.10
-12.68
-13.06
-11.97
-9.40
-5.65
-1.22
3.35
7.55
11.13
13.98
16.21
17.95
19.33
20.41
21.23
21.78
22.05
22.00
21.65
21.02
20.16
19.13
17.94
16.57
14.97
13.14
11.12
9.02
7.00
5.18
3.63
2.29
1.06
-0.24
-1.82
-3.81
-6.28
-9.12
-12.03
-14.56
-16.23
-16.71
-15.83
-13.70
-10.62
-7.05
-3.47
-0.28
2.31
4.35
6.07
7.76
9.61
11.57
13.47
15.04
16.12
16.65
16.67
16.17
15.15
13.57
11.53
9.24
7.04
5.23
3.93
3.03
2.25
1.35
0.18
-1.20
-2.57
-3.75
-4.69
-5.54
-6.56
-8.04
-10.16
-12.89
-15.99
-18.96
-21.17
-22.01
-21.09
-18.45
-14.57
-10.19
-6.02
-2.46
0.51
3.13
5.64
8.10
10.26
11.84
12.66
12.82
12.70
12.70
13.07
13.80
14.66
15.35
15.71
15.76
15.67
15.54
15.36
14.93
14.01
12.47
10.42
8.15
5.97
4.08
2.49
1.04
-0.42
-2.05
-3.92
-6.11
-8.67
-11.61
-14.77
-17.75
-20.00
-20.89
-20.05
-17.43
-13.39
-8.59
-3.64
0.99
5.10
8.75
12.03
14.95
17.33
18.91
19.50
19.13
18.12
16.94
16.06
15.77
16.01
16.47
16.68
16.28
15.23
13.78
12.41
11.52
11.23
11.29
11.20
10.38
8.46
5.48
1.85
-1.80
-4.88
-7.05
-8.32
-9.01
-9.57
-10.49
-12.08
-14.43
-17.36
-20.52
-23.38
-25.35
-25.86
-24.65
-21.78
-17.72
-13.19
-8.89
-5.24
-2.32
0.13
2.49
5.00
7.70
10.38
12.70
14.36
15.16
15.10
14.35
13.22
12.10
11.33
11.11
11.42
12.02
12.58
12.79
12.54
11.97
11.35
10.96
10.86
10.88
10.66
9.84
8.12
5.37
1.53
-3.37
-9.04
-14.82
-19.57
-21.91
-20.68
-15.44
-6.80
3.74
14.32
23.36
30.07
34.50
37.20
38.82
39.77
40.22
40.26
40.03
39.74
39.47
39.02
37.88
35.46
31.41
25.90
19.61
13.51
8.47
4.97
3.07
2.46
2.68
3.24
3.74
3.89
3.57
2.81
1.79
0.69
-0.39
-1.48
-2.70
-4.11
-5.68
-7.22
-8.55
-9.64
-10.60
-11.70
-13.15
-15.05
-17.24
-19.35
-20.95
-21.59
-21.00
-19.09
-15.98
-12.02
-7.71
-3.61
-0.15
2.45
4.23
5.39
6.18
6.74
7.08
7.16
6.98
6.64
6.31
6.11
6.10
6.18
6.21
6.07
5.69
5.06
4.20
3.12
1.80
0.28
-1.30
-2.79
-4.03
-4.95
-5.63
-6.23
-7.01
-8.19
-10.00
-12.55
-15.72
-19.13
-22.12
-23.95
-24.02
-22.11
-18.50
-13.82
-8.84
-4.15
-0.13
3.10
5.58
7.37
8.58
9.32
9.79
10.17
10.61
11.16
11.81
12.46
13.04
13.44
13.59
13.44
13.02
12.44
11.79
11.13
10.47
9.81
9.16
8.55
7.97
7.32
6.41
5.04
3.18
0.99
-1.20
-3.09
-4.57
-5.79
-7.12
-8.88
-11.20
-13.84
-16.28
-17.91
-18.16
-16.83
-14.04
-10.25
-6.09
-2.10
1.39
4.27
6.65
8.69
10.50
12.12
13.49
14.57
15.31
15.79
16.03
16.08
15.94
15.59
15.02
14.24
13.31
12.31
11.31
10.37
9.50
8.71
8.01
7.45
7.00
6.62
6.17
5.50
4.52
3.22
1.70
0.13
-1.35
-2.69
-3.89
-5.05
-6.26
-7.57
-8.96
-10.35
-11.53
-12.22
-12.11
-10.96
-8.75
-5.65
-2.05
1.63
5.06
8.09
10.68
12.84
14.57
15.83
16.62
17.08
17.44
17.96
18.75
19.77
20.80
21.59
21.87
21.52
20.54
19.02
17.14
15.10
13.08
11.12
9.18
7.14
4.93
2.55
0.05
-2.51
-5.20
-8.09
-11.21
-14.48
-17.63
-20.34
-22.36
-23.55
-23.86
-23.23
-21.48
-18.25
-13.14
-5.89
3.40
14.13
25.26
35.52
43.75
49.22
51.75
51.79
50.09
47.45
44.43
41.26
37.90
34.17
29.92
25.12
19.88
14.37
8.74
3.11
-2.44
-7.84
-12.94
-17.51
-21.29
-24.02
-25.52
-25.80
-25.02
-23.49
-21.55
-19.50
-17.60
-15.93
-14.56
-13.52
-12.92
-12.97
-13.94
-16.03
-19.29
-23.47
-28.06
-32.40
-35.76
-37.62
-37.67
-35.95
-32.76
-28.62
-24.13
-19.83
-16.09
-13.03
-10.60
-8.58
-6.81
-5.19
-3.78
-2.74
-2.24
-2.36
-2.98
-3.66
-3.68
-2.11
1.78
8.19
16.53
25.49
33.39
38.80
40.94
39.85
36.25
31.24
26.00
21.62
18.98
18.61
20.46
23.71
26.95
28.54
27.25
22.74
15.66
7.44
-0.26
-5.99
-8.89
-8.73
-5.85
-1.02
4.72
10.25
14.60
17.27
18.38
18.72
19.47
21.70
25.85
31.56
37.79
43.32
47.39
49.98
51.66
53.09
54.39
54.95
53.71
49.74
42.88
33.85
24.00
14.80
7.34
2.07
-1.25
-3.44
-5.71
-9.33
-15.31
-24.03
-35.11
-47.40
-59.25
-68.88
-74.68
-75.55
-71.02
-61.47
-48.19
-33.30
-19.30
-8.52
-2.45
-1.42
-4.59
-10.31
-16.58
-21.48
-23.56
-22.25
-18.02
-12.35
-7.36
-5.03
-6.52
-11.72
-19.29
-27.14
-33.05
-35.31
-33.04
-26.35
-16.38
-5.05
5.36
12.78
16.06
15.31
11.86
7.69
4.66
3.84
5.17
7.59
9.55
9.55
6.66
0.88
-6.97
-15.63
-23.98
-31.62
-38.91
-46.63
-55.24
-64.21
-71.88
-76.06
-74.99
-68.24
-56.95
-43.37
-29.80
-17.74
-7.53
1.33
9.43
16.90
23.24
27.72
29.99
30.55
30.47
30.76
31.47
31.31
28.09
19.72
5.41
-13.68
-34.67
-53.80
-67.61
-73.91
-72.18
-63.41
-49.71
-33.73
-18.18
-5.32
3.42
7.70
8.27
6.61
4.41
3.16
3.80
6.62
11.02
15.56
18.12
16.52
9.32
-3.47
-20.11
-37.71
-53.19
-64.35
-70.34
-71.58
-69.10
-63.91
-56.73
-48.08
-38.58
-29.04
-20.39
-13.34
-8.13
-4.60
-2.32
-0.89
-0.14
-0.09
-0.75
-2.03
-3.61
-5.08
-6.08
-6.47
-6.30
-5.78
-5.15
-4.65
-4.45
-4.75
-5.73
-7.50
-9.90
-12.51
-14.63
-15.57
-14.85
-12.44
-8.75
-4.46
-0.27
3.35
6.21
8.44
10.32
12.11
13.96
15.88
17.69
19.14
20.00
20.15
19.65
18.71
17.65
16.80
16.34
16.33
16.59
16.90
17.00
16.77
16.20
15.37
14.38
13.26
12.07
10.90
9.84
9.01
8.47
8.12
7.78
7.22
6.26
4.86
3.07
1.02
-1.12
-3.22
-5.17
-6.80
-7.97
-8.47
-8.12
-6.84
-4.68
-1.90
1.14
3.99
6.31
8.06
9.41
10.71
12.22
13.96
15.69
16.99
17.53
17.25
16.43
15.50
14.90
14.85
15.26
15.85
16.27
16.28
15.86
15.14
14.32
13.50
12.62
11.52
10.03
8.11
5.95
3.92
2.36
1.39
0.86
0.37
-0.53
-2.13
-4.45
-7.25
-10.18
-12.82
-14.80
-15.76
-15.43
-13.75
-10.88
-7.22
-3.31
0.34
3.45
5.96
8.02
9.85
11.59
13.29
14.87
16.20
17.15
17.67
17.77
17.58
17.21
16.80
16.39
16.01
15.59
15.06
14.35
13.43
12.32
11.07
9.76
8.40
6.95
5.34
3.53
1.60
-0.27
-1.93
-3.35
-4.66
-6.18
-8.14
-10.63
-13.49
-16.34
-18.77
-20.41
-21.04
-20.60
-19.17
-16.92
-14.09
-10.88
-7.49
-4.05
-0.66
2.55
5.48
7.96
9.91
11.32
12.30
13.00
13.60
14.16
14.61
14.83
14.64
14.00
13.02
11.95
11.05
10.47
10.15
9.87
9.45
8.78
7.93
7.01
6.07
5.05
3.79
2.17
0.19
-1.98
-4.05
-5.79
-7.16
-8.31
-9.57
-11.24
-13.46
-16.10
-18.79
-20.98
-22.19
-22.07
-20.57
-17.87
-14.35
-10.45
-6.53
-2.84
0.48
3.38
5.75
7.50
8.55
8.97
9.01
9.03
9.35
10.06
11.02
11.90
12.42
12.46
12.09
11.50
10.80
10.05
9.17
8.11
6.92
5.66
4.43
3.21
1.87
0.30
-1.60
-3.74
-5.95
-8.01
-9.77
-11.28
-12.69
-14.24
-16.07
-18.19
-20.41
-22.41
-23.78
-24.17
-23.43
-21.58
-18.88
-15.68
-12.33
-9.06
-5.97
-3.07
-0.37
2.10
4.24
5.95
7.21
8.05
8.58
8.90
9.09
9.14
9.04
8.76
8.32
7.80
7.30
6.88
6.51
6.13
5.57
4.72
3.57
2.18
0.73
-0.61
-1.80
-2.93
-4.20
-5.80
-7.83
-10.23
-12.82
-15.28
-17.32
-18.59
-18.89
-18.07
-16.14
-13.32
-9.97
-6.51
-3.28
-0.46
2.00
4.30
6.60
8.96
11.27
13.31
14.86
15.76
15.99
15.63
14.86
13.89
12.96
12.25
11.84
11.69
11.60
11.36
10.75
9.68
8.16
6.32
4.33
2.39
0.63
-0.87
-2.11
-3.19
-4.31
-5.68
-7.51
-9.85
-12.50
-15.10
-17.13
-18.13
-17.79
-16.06
-13.17
-9.54
-5.71
-2.10
1.01
3.59
5.77
7.76
9.67
11.45
12.93
13.96
14.46
14.54
14.34
13.99
13.53
12.92
12.09
11.06
9.97
8.98
8.17
7.53
6.90
6.05
4.87
3.37
1.68
-0.00
-1.57
-3.04
-4.58
-6.37
-8.57
-11.18
-14.07
-16.97
-19.58
-21.62
-22.82
-23.02
-22.13
-20.25
-17.61
-14.52
-11.28
-8.09
-4.99
-1.92
1.19
4.34
7.40
10.17
12.42
13.98
14.82
15.03
14.86
14.58
14.42
14.47
14.69
14.92
14.97
14.66
13.93
12.80
11.31
9.57
7.64
5.56
3.37
1.11
-1.17
-3.44
-5.68
-7.95
-10.33
-12.88
-15.60
-18.39
-21.12
-23.67
-25.96
-27.98
-29.60
-30.54
-30.46
-29.00
-26.06
-21.84
-16.83
-11.63
-6.72
-2.28
1.72
5.42
8.89
12.07
14.76
16.79
18.10
18.81
19.15
19.34
19.56
19.84
20.11
20.30
20.29
20.05
19.56
18.82
17.82
16.51
14.89
13.01
11.03
9.10
7.38
5.84
4.37
2.76
0.90
-1.23
-3.44
-5.57
-7.52
-9.36
-11.32
-13.61
-16.29
-19.19
-21.96
-24.19
-25.51
-25.74
-24.84
-22.98
-20.37
-17.25
-13.82
-10.24
-6.60
-3.02
0.40
3.51
6.18
8.37
10.06
11.29
12.14
12.62
12.82
12.83
12.77
12.76
12.83
12.93
12.88
12.51
11.68
10.42
8.87
7.24
5.71
4.40
3.32
2.38
1.49
0.52
-0.59
-1.90
-3.46
-5.28
-7.35
-9.59
-11.93
-14.21
-16.27
-17.87
-18.77
-18.75
-17.63
-15.45
-12.39
-8.80
-5.10
-1.64
1.39
4.02
6.36
8.60
10.87
13.13
15.20
16.83
17.79
17.92
17.31
16.18
14.90
13.82
13.17
12.99
13.09
13.19
12.99
12.27
10.94
9.08
6.87
4.50
2.16
0.00
-1.87
-3.41
-4.64
-5.72
-6.85
-8.29
-10.24
-12.70
-15.43
-17.95
-19.67
-20.05
-18.83
-16.11
-12.33
-8.09
-3.96
-0.28
2.80
5.30
7.30
8.84
9.98
10.79
11.43
12.09
12.89
13.86
14.87
15.75
16.27
16.31
15.94
15.32
14.70
14.27
14.03
13.79
13.25
12.12
10.28
7.87
5.16
2.47
-0.05
-2.39
-4.66
-6.95
-9.26
-11.50
-13.63
-15.74
-17.96
-20.40
-22.92
-25.12
-26.40
-26.27
-24.55
-21.46
-17.59
-13.54
-9.78
-6.46
-3.49
-0.68
2.11
4.77
7.08
8.75
9.67
9.99
10.09
10.36
11.06
12.05
12.97
13.40
13.11
12.25
11.17
10.22
9.49
8.80
7.83
6.37
4.43
2.24
0.13
-1.67
-3.09
-4.20
-5.23
-6.40
-7.90
-9.82
-12.09
-14.53
-16.88
-18.83
-20.12
-20.59
-20.21
-19.04
-17.19
-14.83
-12.08
-9.02
-5.72
-2.30
1.06
4.05
6.36
7.82
8.46
8.50
8.20
7.82
7.48
7.25
7.17
7.24
7.47
7.77
7.98
7.92
7.50
6.71
5.66
4.47
3.23
1.99
0.73
-0.57
-1.93
-3.27
-4.55
-5.75
-6.91
-8.11
-9.53
-11.31
-13.52
-16.11
-18.87
-21.49
-23.60
-24.86
-25.01
-23.91
-21.58
-18.25
-14.29
-10.16
-6.26
-2.75
0.46
3.61
7.00
10.71
14.58
18.24
21.17
22.95
23.29
22.14
19.61
16.01
11.76
7.41
3.51
0.47
-1.49
-2.54
-3.07
-3.59
-4.45
-5.81
-7.54
-9.41
-11.25
-13.04
-14.92
-17.08
-19.67
-22.67
-25.91
-29.07
-31.85
-33.99
-35.31
-35.68
-35.03
-33.38
-30.84
-27.64
-24.11
-20.50
-17.02
-13.71
-10.52
-7.40
-4.37
-1.48
1.16
3.47
5.40
6.83
7.65
7.80
7.25
6.16
4.79
3.41
2.21
1.33
0.83
0.79
1.26
2.25
3.64
5.19
6.64
7.85
8.80
9.63
10.50
11.51
12.66
13.84
14.96
15.91
16.59
16.89
16.63
15.65
13.89
11.47
8.73
6.11
4.04
2.74
2.29
2.64
3.71
5.40
7.59
10.05
12.48
14.53
15.91
16.54
16.60
16.45
16.55
17.31
18.94
21.43
24.59
28.06
31.45
34.46
36.88
38.59
39.59
39.86
39.40
38.26
36.54
34.40
32.01
29.51
26.91
24.12
20.98
17.37
13.31
8.85
4.17
-0.56
-5.16
-9.42
-13.08
-15.81
-17.27
-17.21
-15.56
-12.50
-8.48
-4.10
-0.06
3.04
4.76
4.99
3.89
1.94
-0.23
-2.01
-3.00
-3.09
-2.49
-1.63
-0.94
-0.67
-0.66
-0.28
1.44
5.43
12.18
21.36
31.79
41.71
49.33
53.35
53.27
49.40
42.57
33.80
24.06
14.15
4.87
-3.09
-9.13
-12.97
-14.81
-15.29
-15.33
-15.81
-17.30
-19.84
-22.99
-26.03
-28.25
-29.19
-28.69
-26.98
-24.46
-21.56
-18.61
-15.70
-12.78
-9.78
-6.81
-4.26
-2.76
-2.89
-4.92
-8.58
-13.08
-17.31
-20.32
-21.61
-21.32
-20.18
-19.13
-18.98
-20.14
-22.42
-25.21
-27.66
-29.00
-28.74
-26.85
-23.74
-20.14
-16.98
-15.14
-15.21
-17.29
-20.82
-24.66
-27.28
-27.27
-23.80
-17.09
-8.36
0.45
7.35
10.99
11.11
8.44
4.34
0.16
-3.29
-5.87
-8.03
-10.38
-13.41
-17.23
-21.65
-26.20
-30.28
-33.30
-34.69
-34.01
-31.11
-26.22
-20.00
-13.49
-7.84
-4.01
-2.50
-3.19
-5.41
-8.17
-10.46
-11.55
-11.02
-8.78
-4.95
0.24
6.44
13.27
20.27
26.95
32.88
37.73
41.31
43.63
44.80
44.94
44.16
42.45
39.76
36.09
31.56
26.49
21.37
16.75
13.19
11.06
10.48
11.44
13.76
17.27
21.74
26.99
32.78
38.81
44.73
50.19
54.86
58.56
61.25
63.10
64.58
66.39
69.38
74.24
81.30
90.30
100.40
110.45
119.35
126.31
131.10
133.89
134.91
134.05
130.50
122.60
108.19
85.24
52.81
11.79
-34.92
-82.85
-127.17
-163.92
-190.97
-208.15
-216.75
-218.67
-215.66
-209.03
-199.63
-188.20
-175.27
-161.28
-146.37
-130.32
-112.81
-93.62
-72.96
-51.49
-30.21
-10.28
7.21
21.41
31.77
38.23
41.29
41.97
41.59
41.40
42.19
44.25
47.46
51.50
56.17
61.49
67.18
73.11
79.35
86.14
93.66
101.72
109.77
116.96
122.59
126.12
127.85
129.05
131.52
136.78
145.36
156.54
168.59
179.33
186.02
186.93
182.23
173.83
164.52
156.63
151.22
147.77
144.48
136.76
121.22
97.61
69.05
39.94
13.71
-8.06
-25.60
-40.19
-58.06
-83.92
-118.18
-156.85
-194.29
-225.62
-247.12
-256.17
-251.79
-242.92
-238.99
-245.15
-260.15
-279.66
-299.73
-318.01
-333.79
-347.90
-372.06
-415.45
-479.15
-555.37
-634.28
-710.18
-782.59
-854.20
-866.65
-786.12
-621.82
-421.80
-233.69
-80.02
37.49
125.70
192.28
243.12
272.31
275.50
255.06
222.04
190.86
173.89
179.17
209.50
261.97
318.43
366.16
398.02
415.20
423.85
430.34
439.03
452.28
471.14
491.54
510.62
527.37
541.51
550.75
550.14
534.97
504.48
463.04
416.42
369.51
328.91
298.53
277.96
262.92
247.59
226.80
197.10
156.63
107.21
55.21
10.79
-14.97
-14.75
11.10
53.25
96.26
124.52
128.47
107.73
69.46
24.16
-19.30
-56.51
-87.27
-113.20
-135.17
-152.46
-163.54
-168.11
-167.91
-166.35
-167.09
-172.38
-182.25
-194.64
-206.52
-215.39
-220.49
-223.03
-225.50
-230.53
-239.85
-253.88
-271.94
-292.78
-314.92
-336.67
-355.91
-370.08
-376.63
-373.85
-361.54
-341.20
-315.51
-287.42
-259.38
-232.92
-208.87
-187.62
-169.37
-154.10
-141.40
-130.47
-120.22
-109.61
-97.96
-85.17
-71.72
-58.54
-46.65
-36.82
-29.23
-23.47
-18.69
-14.15
-9.50
-4.97
-1.17
1.34
2.40
2.42
2.15
2.35
3.44
5.34
7.63
9.72
11.23
12.09
12.52
12.99
13.87
15.34
17.19
18.86
19.63
18.85
16.23
12.04
7.08
2.48
-0.58
-1.22
0.92
5.64
12.21
19.62
26.74
32.60
36.59
38.49
38.56
37.31
35.27
32.84
30.10
27.10
23.90
20.80
18.27
16.78
16.55
17.37
18.60
19.57
19.77
19.20
18.20
17.25
16.63
16.23
15.65
14.34
11.92
8.29
3.74
-1.17
-5.64
-8.78
-9.77
-8.08
-3.71
2.53
9.26
14.84
18.00
18.23
15.90
11.98
7.58
3.50
0.08
-2.79
-5.35
-7.73
-9.85
-11.49
-12.39
-12.46
-11.75
-10.45
-8.81
-7.11
-5.64
-4.72
-4.60
-5.47
-7.36
-10.14
-13.54
-17.29
-21.25
-25.40
-29.83
-34.65
-39.76
-44.80
-48.99
-51.11
-49.50
-42.13
-27.03
-2.89
30.07
69.52
111.00
148.76
177.38
193.30
195.79
186.83
170.09
149.62
128.66
109.31
92.58
78.80
67.89
59.37
52.39
45.78
38.39
29.50
19.08
7.84
-3.05
-12.40
-19.39
-23.80
-25.92
-26.31
-25.47
-23.57
-20.43
-15.69
-9.05
-0.59
9.14
19.14
28.15
35.08
39.40
41.36
41.98
42.44
43.56
45.19
46.19
44.99
40.21
31.20
18.03
1.20
-18.61
-40.47
-62.95
-83.88
-100.68
-111.07
-113.89
-109.51
-99.67
-86.70
-72.67
-58.96
-46.16
-34.51
-24.16
-15.35
-8.34
-3.17
0.37
2.71
4.28
5.41
6.20
6.55
6.30
5.31
3.63
1.60
-0.18
-1.06
-0.55
1.37
4.19
6.89
8.32
7.53
4.20
-1.36
-8.29
-15.46
-21.87
-26.92
-30.55
-33.23
-35.73
-38.73
-42.52
-46.81
-50.79
-53.53
-54.58
-54.35
-54.05
-55.23
-59.10
-66.08
-75.64
-86.53
-97.06
-105.16
-108.34
-103.93
-89.81
-65.76
-34.45
-1.23
27.45
46.43
53.55
49.89
38.39
21.90
1.84
-21.76
-48.97
-78.73
-108.21
-133.38
-150.33
-156.50
-151.23
-135.46
-111.38
-81.82
-49.97
-18.85
9.19
32.83
51.76
66.23
76.51
82.58
84.05
80.40
71.18
56.50
37.25
15.50
-5.65
-22.25
-30.32
-26.90
-11.11
15.35
48.32
81.98
110.11
127.46
130.89
120.27
98.87
72.56
48.48
32.84
29.06
36.84
52.53
70.72
86.20
95.53
97.79
94.51
88.67
83.54
81.47
83.06
87.08
91.25
93.57
93.42
91.85
90.78
91.80
95.17
99.66
103.29
104.23
101.36
94.36
83.36
68.66
50.80
31.02
11.41
-5.28
-16.17
-19.13
-13.36
0.34
19.71
41.58
62.51
79.59
91.16
96.98
98.11
96.26
93.10
89.74
86.65
83.86
81.30
79.08
77.54
77.04
77.71
79.27
81.03
82.02
81.37
78.77
74.60
69.94
66.01
63.54
62.27
61.00
58.10
52.30
43.40
32.32
20.63
9.78
0.49
-7.41
-14.64
-21.96
-29.69
