1660749604.00
64.000000
-0.00
-0.00
-0.00
-0.00
-0.00
-0.00
-0.00
-0.00
-0.00
-0.00
0.00
0.01
0.01
-0.00
-0.03
-0.05
-0.05
0.00
0.13
0.36
0.66
1.01
1.37
1.72
2.06
2.40
2.79
3.24
3.80
4.42
5.06
5.66
6.20
6.68
7.15
7.68
8.31
9.14
10.09
11.04
11.88
12.56
13.14
13.76
14.65
15.96
17.91
20.32
22.90
25.38
27.58
29.57
31.68
34.32
37.81
42.54
48.15
54.10
59.83
64.97
69.58
74.14
79.34
85.71
93.76
103.00
112.62
121.73
129.77
136.75
143.30
150.75
157.77
166.64
177.95
191.79
206.97
220.57
228.25
225.36
208.53
176.87
132.76
80.05
23.07
-34.95
-92.44
-149.16
-205.22
-260.35
-313.70
-363.84
-409.83
-450.97
-486.66
-516.01
-537.60
-549.65
-550.41
-538.80
-514.63
-479.11
-434.38
-383.04
-327.72
-270.63
-213.46
-157.47
-103.72
-53.12
-6.71
34.62
70.22
99.88
123.82
142.61
156.96
167.51
174.76
178.97
180.36
179.19
175.90
171.03
165.15
158.70
151.86
144.61
136.79
128.34
119.35
110.19
101.32
93.11
85.71
78.90
72.23
65.23
57.65
49.62
41.64
34.30
28.05
23.00
18.83
15.04
11.08
6.58
1.25
-4.98
-11.86
-18.55
-23.47
-24.65
-20.45
-10.52
3.76
19.51
33.44
43.09
47.66
48.02
45.91
42.90
39.78
36.60
33.14
29.41
25.87
23.10
21.45
20.76
20.44
19.72
18.05
15.46
12.56
10.30
9.47
10.25
12.03
13.69
14.14
12.82
10.08
6.86
4.22
2.79
2.52
2.80
2.92
2.47
1.48
0.30
-0.69
-1.29
-1.61
-1.86
-2.19
-2.65
-3.06
-3.23
-3.08
-2.72
-2.34
-2.16
-2.27
-2.54
-2.77
-2.76
-2.48
-2.01
-1.51
-1.12
-0.83
-0.59
-0.31
0.01
0.33
0.56
0.72
0.89
1.27
2.06
3.30
4.88
6.56
8.09
9.30
10.19
10.90
11.62
12.42
13.23
13.80
13.82
13.07
11.49
9.28
6.56
3.59
0.56
-2.40
-5.21
-7.77
-9.99
-11.72
-12.85
-13.38
-13.39
-13.07
-12.63
-12.23
-11.94
-11.69
-11.38
-10.91
-10.27
-9.52
-8.81
-8.24
-7.87
-7.61
-7.34
-6.95
-6.42
-5.82
-5.27
-4.86
-4.60
-4.38
-4.10
-3.73
-3.37
-3.15
-3.18
-3.38
-3.53
-3.35
-2.67
-1.54
-0.18
1.08
1.98
2.41
2.42
2.17
1.81
1.44
1.10
0.77
0.40
0.01
-0.36
-0.62
-0.72
-0.67
-0.55
-0.45
-0.46
-0.54
-0.62
-0.61
-0.46
-0.22
0.04
0.20
0.22
0.08
-0.23
-0.70
-1.30
-1.96
-2.60
-3.09
-3.34
-3.35
-3.20
-2.99
-2.85
-2.83
-2.95
-3.23
-3.65
-4.17
-4.68
-5.00
-4.91
-4.26
-3.03
-1.39
0.35
1.89
3.03
3.75
4.15
4.35
4.48
4.53
4.48
4.27
3.94
3.57
3.27
3.10
3.06
3.05
2.95
2.65
2.14
1.52
0.96
0.60
0.51
0.60
0.69
0.61
0.25
-0.32
-0.94
-1.42
-1.65
-1.67
-1.61
-1.64
-1.89
-2.37
-3.02
-3.74
-4.43
-5.00
-5.38
-5.49
-5.20
-4.41
-3.10
-1.37
0.51
2.20
3.43
4.05
4.15
3.93
3.66
3.48
3.42
3.37
3.22
2.86
2.31
1.70
1.19
0.93
0.94
1.13
1.31
1.31
1.07
0.67
0.24
-0.10
-0.33
-0.55
-0.85
-1.29
-1.77
-2.14
-2.26
-2.09
-1.71
-1.30
-1.05
-1.12
-1.57
-2.38
-3.43
-4.49
-5.32
-5.70
-5.50
-4.71
-3.43
-1.85
-0.21
1.29
2.47
3.22
3.51
3.44
3.18
2.90
2.71
2.63
2.57
2.45
2.24
1.99
1.82
1.81
1.96
2.16
2.29
2.25
2.03
1.70
1.37
1.14
1.03
1.00
0.98
0.84
0.51
-0.00
-0.62
-1.17
-1.52
-1.62
-1.58
-1.59
-1.84
-2.41
-3.22
-4.07
-4.76
-5.14
-5.15
-4.79
-4.08
-3.05
-1.75
-0.29
1.15
2.37
3.21
3.57
3.47
3.02
2.40
1.83
1.46
1.40
1.65
2.09
2.60
3.01
3.23
3.24
3.09
2.86
2.63
2.43
2.26
2.10
1.91
1.66
1.36
1.02
0.66
0.29
-0.11
-0.53
-0.96
-1.40
-1.81
-2.21
-2.62
-3.12
-3.74
-4.47
-5.20
-5.72
-5.81
-5.31
-4.24
-2.77
-1.18
0.28
1.43
2.27
2.90
3.39
3.76
3.93
3.82
3.40
2.79
2.19
1.84
1.86
2.22
2.74
3.21
3.47
3.50
3.35
3.14
2.95
2.78
2.58
2.32
2.02
1.78
1.67
1.71
1.78
1.72
1.38
0.74
-0.12
-1.03
-1.82
-2.44
-2.94
-3.47
-4.13
-4.87
-5.46
-5.58
-4.97
-3.59
-1.70
0.23
1.69
2.32
2.04
1.02
-0.41
-1.87
-3.02
-3.65
-3.64
-3.10
-2.27
-1.53
-1.21
-1.48
-2.20
-3.04
-3.60
-3.58
-2.94
-1.82
-0.46
0.90
2.11
3.11
3.87
4.40
4.72
4.91
5.08
5.34
5.75
6.26
6.71
6.91
6.75
6.17
5.22
3.98
2.56
1.05
-0.37
-1.46
-1.95
-1.73
-0.86
0.35
1.46
2.08
2.04
1.41
0.42
-0.65
-1.65
-2.53
-3.30
-3.99
-4.60
-5.06
-5.31
-5.32
-5.14
-4.88
-4.64
-4.48
-4.40
-4.31
-4.14
-3.82
-3.36
-2.80
-2.21
-1.63
-1.08
-0.58
-0.14
0.22
0.50
0.69
0.82
0.86
0.77
0.52
0.11
-0.38
-0.82
-1.08
-1.10
-0.84
-0.32
0.44
1.42
2.60
3.91
5.19
6.25
6.96
7.25
7.20
6.96
6.65
6.31
5.89
5.29
4.49
3.59
2.76
2.19
1.96
2.00
2.14
2.19
2.08
1.86
1.63
1.51
1.46
1.39
1.13
0.58
-0.22
-1.16
-2.04
-2.73
-3.18
-3.45
-3.70
-4.06
-4.59
-5.23
-5.76
-5.95
-5.57
-4.61
-3.23
-1.74
-0.45
0.48
1.02
1.27
1.30
1.10
0.63
-0.07
-0.89
-1.59
-1.95
-1.89
-1.47
-0.90
-0.42
-0.18
-0.19
-0.38
-0.60
-0.74
-0.73
-0.58
-0.39
-0.30
-0.40
-0.75
-1.31
-1.95
-2.55
-3.03
-3.40
-3.72
-4.06
-4.47
-4.95
-5.47
-5.92
-6.21
-6.17
-5.69
-4.69
-3.19
-1.36
0.59
2.40
3.85
4.80
5.24
5.26
5.03
4.73
4.55
4.56
4.76
5.02
5.19
5.12
4.77
4.21
3.54
2.92
2.45
2.19
2.11
2.12
2.13
2.03
1.71
1.14
0.37
-0.51
-1.32
-1.90
-2.21
-2.26
-2.19
-2.20
-2.48
-3.10
-4.04
-5.08
-5.90
-6.20
-5.75
-4.54
-2.83
-0.99
0.58
1.67
2.33
2.77
3.18
3.66
4.07
4.24
4.02
3.49
2.89
2.54
2.59
2.98
3.42
3.60
3.34
2.72
2.01
1.47
1.23
1.17
1.06
0.73
0.15
-0.50
-1.01
-1.25
-1.30
-1.34
-1.54
-1.97
-2.55
-3.15
-3.68
-4.13
-4.53
-4.90
-5.13
-5.01
-4.37
-3.17
-1.56
0.15
1.64
2.69
3.27
3.56
3.75
4.01
4.34
4.65
4.78
4.64
4.23
3.65
3.03
2.50
2.13
1.96
1.96
2.08
2.25
2.42
2.57
2.69
2.71
2.58
2.20
1.52
0.58
-0.46
-1.39
-2.04
-2.31
-2.27
-2.09
-2.00
-2.17
-2.70
-3.56
-4.61
-5.65
-6.43
-6.77
-6.53
-5.71
-4.40
-2.78
-1.06
0.54
1.86
2.80
3.35
3.55
3.49
3.32
3.18
3.19
3.35
3.60
3.77
3.71
3.36
2.84
2.34
2.09
2.16
2.46
2.77
2.90
2.77
2.43
1.98
1.51
1.04
0.51
-0.10
-0.76
-1.37
-1.82
-2.04
-2.03
-1.93
-1.90
-2.09
-2.57
-3.26
-3.99
-4.59
-5.00
-5.28
-5.59
-6.03
-6.55
-6.89
-6.71
-5.80
-4.16
-2.06
0.07
1.85
3.06
3.72
3.95
3.95
3.81
3.61
3.34
3.03
2.71
2.45
2.32
2.34
2.53
2.82
3.09
3.23
3.16
2.87
2.45
2.07
1.86
1.87
2.06
2.26
2.35
2.29
2.15
2.01
1.85
1.62
1.28
0.93
0.76
0.94
1.55
2.40
3.15
3.40
2.96
1.99
0.98
0.45
0.72
1.84
3.55
5.43
7.09
8.44
9.80
11.84
14.96
19.26
24.50
30.26
35.97
41.01
44.82
47.01
47.39
45.47
41.04
34.75
28.36
24.15
23.81
27.67
34.65
42.87
49.64
53.21
53.52
51.97
49.92
47.19
42.00
32.33
17.60
-1.91
-24.67
-48.67
-72.43
-95.89
-120.55
-148.10
-178.94
-203.07
-209.94
-194.45
-161.18
-120.58
-81.91
-49.85
-24.92
-5.28
11.30
25.37
36.21
43.06
46.24
47.14
47.37
48.22
50.46
54.19
58.40
61.53
62.48
61.23
58.61
55.50
52.28
48.99
44.58
38.57
30.34
19.87
7.91
-4.38
-16.10
-27.02
-35.52
-42.77
-49.49
-55.93
-61.75
-66.27
-68.92
-69.70
-69.21
-68.37
-68.30
-69.60
-72.71
-77.70
-83.86
-89.42
-91.67
-87.80
-76.10
-57.45
-34.81
-12.61
5.19
16.73
22.75
25.71
27.96
30.98
34.38
37.17
38.56
38.64
38.26
38.35
39.21
40.39
41.00
40.12
37.49
33.62
29.45
25.95
23.69
22.59
22.04
21.27
19.60
16.83
13.35
9.82
6.91
4.96
3.78
2.77
1.35
-0.82
-3.68
-6.77
-9.58
-11.72
-13.20
-14.34
-15.60
-17.21
-19.19
-21.32
-23.30
-24.89
-26.01
-26.68
-26.91
-27.14
-27.45
-27.75
-27.87
-27.65
-26.92
-25.55
-23.48
-20.68
-17.31
-13.60
-9.92
-6.71
-4.34
-2.97
-2.49
-2.59
-2.83
-2.84
-2.42
-1.69
-0.99
-0.68
-0.95
-1.66
-2.41
-2.75
-2.45
-1.57
-0.48
0.42
0.87
0.90
0.76
0.70
0.78
0.86
0.68
0.08
-0.95
-2.21
-3.48
-4.64
-5.79
-7.10
-8.80
-10.98
-13.56
-16.32
-18.96
-21.21
-22.90
-24.01
-24.61
-24.77
-24.44
-23.44
-21.52
-18.58
-14.80
-10.66
-6.79
-3.73
-1.62
-0.17
1.26
3.28
6.19
9.78
13.35
15.97
16.98
16.20
14.11
11.56
9.45
8.32
8.23
8.89
9.91
11.06
12.31
13.69
15.07
16.06
16.08
14.71
11.91
8.13
4.24
1.21
-0.20
0.26
2.21
4.79
6.81
7.14
5.08
0.58
-5.66
-12.30
-17.75
-20.67
-20.33
-16.84
-11.07
-4.29
2.22
7.57
11.26
13.28
13.87
13.44
12.44
11.31
10.36
9.66
8.99
7.94
6.08
3.26
-0.30
-4.00
-7.13
-9.07
-9.41
-7.99
-4.85
-0.33
4.85
9.53
12.38
12.40
9.46
4.60
-0.28
-3.15
-2.82
0.56
5.57
10.22
12.86
12.80
10.39
6.62
2.55
-1.06
-3.83
-5.60
-6.26
-5.68
-3.76
-0.56
3.64
8.35
13.00
17.03
20.06
21.95
22.85
23.05
22.89
22.53
21.92
20.91
19.43
17.75
16.44
16.17
17.38
19.89
22.91
25.28
25.92
24.26
20.47
15.34
9.89
4.99
1.04
-2.08
-4.88
-7.94
-11.76
-16.57
-22.34
-28.83
-35.54
-41.77
-46.53
-48.73
-47.43
-42.22
-33.51
-22.59
-11.25
-1.23
6.38
11.54
15.10
18.33
22.20
27.00
32.14
36.66
39.70
40.91
40.58
39.38
37.92
36.53
35.14
33.51
31.47
29.11
26.69
24.49
22.59
20.80
18.80
16.40
13.67
11.02
9.00
7.96
7.84
8.13
8.02
6.78
4.09
0.27
-3.80
-6.94
-8.08
-6.68
-2.93
2.34
7.94
12.76
16.15
18.01
18.73
18.81
18.61
18.08
16.94
14.85
11.70
7.72
3.40
-0.75
-4.34
-7.14
-9.01
-9.66
-8.72
-5.89
-1.24
4.61
10.49
15.16
17.77
18.32
17.59
16.75
16.73
17.76
19.29
20.37
20.24
18.65
15.97
12.83
9.77
6.92
4.08
1.00
-2.24
-5.14
-6.97
-7.11
-5.40
-2.25
1.58
5.35
8.64
11.49
14.28
17.40
20.98
24.71
27.99
30.17
30.89
30.29
28.96
27.68
27.05
27.18
27.66
27.73
26.75
24.58
21.59
18.55
16.12
14.47
13.17
11.41
8.40
3.87
-1.93
-8.31
-14.51
-20.03
-24.70
-28.57
-31.72
-34.18
-35.85
-36.62
-36.28
-34.49
-30.73
-24.55
-15.82
-5.22
5.73
15.01
20.80
22.32
20.20
16.29
12.84
11.55
12.96
16.40
20.59
24.34
27.07
28.93
30.34
31.64
32.68
32.98
31.97
29.46
25.71
21.37
17.12
13.35
10.03
6.81
3.32
-0.60
-4.72
-8.53
-11.43
-13.03
-13.27
-12.37
-10.67
-8.37
-5.48
-1.90
2.31
6.70
10.45
12.54
12.24
9.47
4.90
-0.30
-4.94
-8.34
-10.43
-11.65
-12.54
-13.36
-13.99
-14.11
-13.46
-12.15
-10.64
-9.51
-9.23
-9.84
-11.03
-12.28
-13.16
-13.51
-13.44
-13.23
-13.15
-13.26
-13.43
-13.37
-12.80
-11.62
-9.92
-8.04
-6.41
-5.38
-5.05
-5.24
-5.49
-5.30
-4.36
-2.70
-0.75
0.85
1.54
1.06
-0.40
-2.31
-4.09
-5.26
-5.65
-5.30
-4.33
-2.86
-0.95
1.25
3.50
5.38
6.48
6.64
6.00
4.98
4.12
3.84
4.28
5.40
7.08
9.25
11.98
15.29
19.08
23.00
26.52
29.13
30.55
30.88
30.44
29.61
28.58
27.26
25.32
22.40
18.26
12.95
6.84
0.45
-5.63
-10.91
-15.14
-18.28
-20.53
-22.17
-23.42
-24.42
-25.21
-25.79
-26.27
-26.84
-27.71
-29.03
-30.80
-32.83
-34.88
-36.67
-38.05
-39.02
-39.75
-40.47
-41.45
-42.85
-44.71
-46.91
-49.23
-51.38
-53.03
-53.90
-53.75
-52.40
-49.80
-45.96
-41.03
-35.21
-28.79
-22.07
-15.29
-8.58
-1.97
4.62
11.24
17.79
23.99
29.51
34.06
37.61
40.41
42.82
45.10
47.21
48.85
49.59
49.11
47.40
44.72
41.49
38.13
34.88
31.81
28.84
25.94
23.15
20.62
18.55
17.06
16.17
15.72
15.41
14.93
14.02
12.54
10.51
8.04
5.30
2.48
-0.20
-2.53
-4.27
-5.25
-5.36
-4.65
-3.33
-1.74
-0.26
0.81
1.34
1.36
1.05
0.63
0.27
0.02
-0.17
-0.41
-0.79
-1.27
-1.73
-1.97
-1.81
-1.13
0.07
1.71
3.67
5.73
7.63
9.04
9.64
9.22
7.83
5.79
3.73
2.36
2.23
3.47
5.71
8.20
10.07
10.70
9.94
8.07
5.64
3.11
0.63
-1.90
-4.61
-7.44
-10.09
-12.10
-13.10
-13.01
-12.05
-10.53
-8.71
-6.66
-4.32
-1.64
1.23
3.97
6.10
7.20
7.09
5.85
3.83
1.48
-0.79
-2.78
-4.50
-6.05
-7.51
-8.79
-9.68
-9.96
-9.56
-8.63
-7.48
-6.45
-5.75
-5.37
-5.14
-4.89
-4.55
-4.21
-4.09
-4.37
-5.08
-6.03
-6.94
-7.55
-7.77
-7.70
-7.56
-7.54
-7.68
-7.84
-7.93
-7.91
-7.91
-8.12
-8.62
-9.29
-9.77
-9.66
-8.70
-6.90
-4.54
-2.03
0.21
1.94
3.08
3.68
3.84
3.69
3.36
2.98
2.64
2.42
2.33
2.35
2.45
2.62
2.89
3.23
3.59
3.85
3.88
3.59
2.96
2.09
1.13
0.29
-0.28
-0.51
-0.40
-0.08
0.23
0.29
-0.09
-1.02
-2.47
-4.27
-6.21
-8.02
-9.43
-10.27
-10.52
-10.37
-10.19
-10.39
-11.23
-12.65
-14.25
-15.40
-15.49
-14.18
-11.52
-7.94
-4.03
-0.33
2.80
5.24
6.99
8.03
8.33
7.86
6.68
5.05
3.32
1.86
0.83
0.11
-0.59
-1.56
-2.90
-4.39
-5.65
-6.32
-6.28
-5.71
-4.95
-4.32
-3.92
-3.65
-3.30
-2.72
-1.96
-1.26
-0.91
-1.07
-1.74
-2.68
-3.63
-4.41
-5.03
-5.64
-6.41
-7.41
-8.52
-9.50
-10.10
-10.12
-9.58
-8.57
-7.27
-5.82
-4.31
-2.77
-1.27
0.07
1.10
1.68
1.78
1.49
1.05
0.72
0.70
1.02
1.57
2.10
2.44
2.54
2.49
2.44
2.47
2.50
2.31
1.74
0.76
-0.43
-1.51
-2.18
-2.37
-2.19
-1.92
-1.81
-1.94
-2.23
-2.47
-2.49
-2.26
-1.93
-1.73
-1.94
-2.64
-3.77
-5.06
-6.18
-6.85
-6.96
-6.52
-5.66
-4.49
-3.07
-1.44
0.36
2.16
3.74
4.81
5.20
4.88
4.02
2.94
1.99
1.41
1.28
1.51
1.87
2.14
2.21
2.11
1.95
1.87
1.95
2.15
2.39
2.59
2.73
2.84
2.98
3.17
3.32
3.31
3.01
2.38
1.53
0.68
0.08
-0.12
-0.02
0.12
-0.04
-0.74
-1.94
-3.38
-4.71
-5.67
-6.19
-6.37
-6.31
-6.03
-5.43
-4.37
-2.78
-0.79
1.36
3.33
4.83
5.73
6.01
5.79
5.20
4.33
3.26
2.02
0.68
-0.65
-1.79
-2.55
-2.78
-2.47
-1.73
-0.77
0.19
1.03
1.69
2.18
2.50
2.61
2.43
1.94
1.19
0.31
-0.50
-1.08
-1.33
-1.25
-0.94
-0.58
-0.40
-0.57
-1.17
-2.11
-3.13
-3.94
-4.32
-4.20
-3.75
-3.18
-2.71
-2.41
-2.22
-2.05
-1.86
-1.72
-1.78
-2.07
-2.50
-2.81
-2.74
-2.14
-1.14
-0.06
0.68
0.75
0.06
-1.21
-2.74
-4.22
-5.50
-6.52
-7.30
-7.83
-8.05
-7.90
-7.41
-6.79
-6.31
-6.26
-6.76
-7.72
-8.86
-9.81
-10.25
-9.96
-8.88
-7.13
-4.95
-2.59
-0.27
1.94
4.06
6.13
8.16
10.02
11.54
12.64
13.35
13.90
14.55
15.46
16.62
17.87
18.96
19.74
20.15
20.21
19.89
19.07
17.55
15.18
12.02
8.36
4.64
1.28
-1.54
-3.92
-6.15
-8.55
-11.26
-14.19
-17.12
-19.85
-22.26
-24.38
-26.18
-27.52
-28.08
-27.52
-25.63
-22.53
-18.67
-14.63
-10.98
-8.07
-5.95
-4.49
-3.46
-2.64
-1.94
-1.31
-0.79
-0.41
-0.16
-0.04
0.05
0.16
0.32
0.49
0.55
0.41
0.04
-0.45
-0.86
-1.07
-1.08
-1.08
-1.37
-2.21
-3.66
-5.51
-7.37
-8.82
-9.54
-9.53
-9.01
-8.29
-7.66
-7.27
-7.16
-7.26
-7.51
-7.86
-8.16
-8.18
-7.62
-6.30
-4.24
-1.74
0.71
2.68
3.97
4.64
4.97
5.23
5.59
6.05
6.53
6.89
7.04
6.94
6.61
6.16
5.71
5.43
5.39
5.58
5.86
6.07
6.11
5.98
5.77
5.54
5.28
4.91
4.33
3.49
2.49
1.50
0.67
0.06
-0.38
-0.78
-1.28
-1.92
-2.63
-3.32
-3.93
-4.52
-5.21
-6.16
-7.37
-8.62
-9.46
-9.41
-8.19
-5.90
-3.00
-0.13
2.21
3.80
4.79
5.49
6.18
6.89
7.51
7.85
7.85
7.60
7.32
7.18
7.27
7.52
7.78
7.89
7.75
7.38
6.85
6.28
5.75
5.26
4.73
4.06
3.20
2.23
1.30
0.60
0.20
0.03
-0.14
-0.53
-1.23
-2.18
-3.14
-3.87
-4.28
-4.48
-4.77
-5.47
-6.75
-8.40
-9.96
-10.79
-10.42
-8.73
-6.00
-2.77
0.40
3.17
5.46
7.32
8.80
9.89
10.51
10.62
10.32
9.85
9.44
9.22
9.14
9.08
8.85
8.39
7.73
7.02
6.35
5.80
5.31
4.81
4.24
3.59
2.94
2.37
1.95
1.66
1.37
0.92
0.18
-0.90
-2.24
-3.65
-4.92
-5.92
-6.63
-7.15
-7.62
-8.14
-8.72
-9.31
-9.84
-10.31
-10.82
-11.54
-12.58
-13.86
-15.11
-15.84
-15.58
-14.02
-11.16
-7.41
-3.41
0.19
2.97
4.82
5.98
6.83
7.65
8.53
9.33
9.86
9.99
9.70
9.14
8.46
7.80
7.24
6.78
6.42
6.17
6.05
6.07
6.20
6.36
6.43
6.28
5.84
5.17
4.40
3.69
3.13
2.68
2.20
1.57
0.73
-0.20
-1.03
-1.60
-1.90
-2.07
-2.36
-2.94
-3.83
-4.85
-5.75
-6.31
-6.52
-6.57
-6.76
-7.36
-8.52
-10.16
-12.04
-13.86
-15.29
-16.02
-15.81
-14.49
-12.06
-8.71
-4.82
-0.86
2.67
5.40
7.14
7.91
7.93
7.57
7.20
7.10
7.35
7.82
8.24
8.33
7.99
7.30
6.51
5.87
5.55
5.53
5.71
5.95
6.14
6.26
6.31
6.23
5.94
5.29
4.24
2.89
1.51
0.43
-0.10
-0.04
0.42
0.94
1.16
0.91
0.16
-0.97
-2.28
-3.63
-4.94
-6.19
-7.35
-8.40
-9.24
-9.77
-9.96
-9.94
-9.92
-10.18
-10.90
-12.01
-13.20
-13.94
-13.72
-12.25
-9.64
-6.26
-2.72
0.52
3.16
5.16
6.66
7.74
8.40
8.59
8.29
7.63
6.90
6.42
6.36
6.68
7.07
7.19
6.79
5.90
4.73
3.62
2.84
2.50
2.48
2.53
2.43
2.08
1.57
1.11
0.85
0.86
0.97
0.95
0.57
-0.20
-1.23
-2.25
-3.07
-3.61
-3.95
-4.27
-4.73
-5.35
-6.03
-6.62
-7.00
-7.16
-7.26
-7.52
-8.10
-9.04
-10.19
-11.31
-12.21
-12.79
-13.01
-12.84
-12.19
-10.87
-8.77
-5.92
-2.60
0.73
3.62
5.80
7.19
7.96
8.32
8.43
8.36
8.12
7.74
7.27
6.86
6.61
6.57
6.71
6.92
7.08
7.14
7.11
7.10
7.20
7.46
7.86
8.29
8.60
8.63
8.23
7.31
5.88
4.08
2.13
0.28
-1.31
-2.59
-3.62
-4.49
-5.22
-5.74
-5.95
-5.82
-5.51
-5.28
-5.44
-6.16
-7.40
-8.93
-10.46
-11.69
-12.38
-12.37
-11.53
-9.81
-7.31
-4.27
-1.07
1.86
4.18
5.77
6.66
7.03
7.12
7.14
7.21
7.36
7.56
7.69
7.66
7.41
6.96
6.43
5.90
5.47
5.15
4.88
4.59
4.23
3.77
3.24
2.68
2.14
1.64
1.17
0.74
0.30
-0.16
-0.64
-1.10
-1.55
-2.01
-2.54
-3.25
-4.12
-5.08
-5.97
-6.63
-6.98
-7.10
-7.15
-7.30
-7.68
-8.31
-9.15
-10.17
-11.36
-12.72
-14.14
-15.33
-15.84
-15.22
-13.22
-9.96
-5.94
-1.89
1.51
3.92
5.38
6.21
6.83
7.48
8.21
8.87
9.31
9.44
9.31
9.03
8.69
8.33
7.93
7.40
6.75
6.05
5.46
5.19
5.33
5.82
6.41
6.79
6.70
6.11
5.17
4.15
3.25
2.52
1.81
0.95
-0.15
-1.41
-2.61
-3.57
-4.24
-4.74
-5.30
-6.11
-7.20
-8.39
-9.38
-9.94
-9.98
-9.64
-9.23
-9.09
-9.45
-10.38
-11.72
-13.16
-14.32
-14.83
-14.43
-13.02
-10.68
-7.68
-4.39
-1.23
1.42
3.35
4.47
4.93
4.97
4.88
4.89
5.08
5.41
5.70
5.82
5.68
5.36
5.00
4.73
4.66
4.74
4.88
4.97
4.94
4.80
4.61
4.39
4.08
3.63
2.95
2.05
1.07
0.24
-0.26
-0.33
-0.11
0.15
0.13
-0.36
-1.26
-2.34
-3.27
-3.80
-3.90
-3.73
-3.57
-3.70
-4.24
-5.16
-6.31
-7.46
-8.38
-8.85
-8.65
-7.67
-5.88
-3.41
-0.58
2.24
4.67
6.51
7.70
8.35
8.62
8.68
8.63
8.52
8.40
8.25
8.07
7.86
7.60
7.28
6.94
6.61
6.38
6.26
6.21
6.16
5.99
5.64
5.12
4.52
3.93
3.40
2.92
2.42
1.84
1.19
0.51
-0.17
-0.84
-1.56
-2.43
-3.49
-4.68
-5.86
-6.91
-7.74
-8.41
-9.08
-9.95
-11.10
-12.43
-13.59
-14.13
-13.62
-11.87
-9.00
-5.42
-1.73
1.55
4.08
5.79
6.82
7.40
7.71
7.82
7.74
7.46
6.98
6.40
5.83
5.36
5.04
4.84
4.69
4.54
4.38
4.26
4.21
4.23
4.27
4.22
3.98
3.47
2.74
1.87
1.01
0.30
-0.20
-0.52
-0.79
-1.15
-1.76
-2.65
-3.78
-5.03
-6.25
-7.30
-8.15
-8.81
-9.32
-9.74
-10.09
-10.41
-10.78
-11.35
-12.22
-13.35
-14.43
-14.95
-14.34
-12.26
-8.86
-4.71
-0.66
2.55
4.62
5.68
6.20
6.63
7.20
7.81
8.24
8.29
8.01
7.62
7.41
7.51
7.82
8.05
7.90
7.23
6.21
5.18
4.48
4.25
4.35
4.49
4.37
3.92
3.25
2.57
2.00
1.52
0.98
0.27
-0.55
-1.31
-1.80
-1.97
-2.00
-2.20
-2.81
-3.90
-5.25
-6.59
-7.71
-8.59
-9.37
-10.29
-11.49
-12.97
-14.55
-15.89
-16.56
-16.17
-14.48
-11.54
-7.76
-3.81
-0.36
2.16
3.69
4.54
5.11
5.68
6.31
6.86
7.18
7.25
7.18
7.16
7.30
7.60
7.92
8.12
8.09
7.87
7.59
7.40
7.37
7.45
7.48
7.29
6.80
6.05
5.21
4.45
3.84
3.34
2.75
1.89
0.64
-0.93
-2.57
-3.97
-4.89
-5.32
-5.42
-5.54
-5.96
-6.84
-8.11
-9.57
-10.90
-11.82
-12.07
-11.45
-9.86
-7.33
-4.10
-0.62
2.61
5.15
6.80
7.64
7.97
8.13
8.36
8.77
9.28
9.78
10.13
10.28
10.23
10.06
9.83
9.57
9.28
8.90
8.43
7.85
7.22
6.63
6.13
5.74
5.36
4.87
4.11
3.03
1.71
0.35
-0.81
-1.62
-2.11
-2.50
-3.09
-4.10
-5.51
-7.11
-8.57
-9.63
-10.28
-10.74
-11.39
-12.57
-14.35
-16.49
-18.47
-19.67
-19.54
-17.82
-14.62
-10.42
-5.91
-1.74
1.62
4.03
5.61
6.64
7.38
7.98
8.50
8.96
9.34
9.66
9.88
9.91
9.67
9.09
8.27
7.42
6.81
6.62
6.86
7.35
7.82
8.01
7.82
7.26
6.49
5.65
4.83
4.00
3.08
2.01
0.80
-0.46
-1.61
-2.56
-3.33
-4.06
-4.92
-5.99
-7.23
-8.41
-9.28
-9.66
-9.61
-9.39
-9.41
-10.04
-11.41
-13.39
-15.58
-17.38
-18.28
-17.94
-16.28
-13.51
-10.02
-6.23
-2.55
0.75
3.47
5.46
6.70
7.24
7.28
7.10
7.02
7.23
7.73
8.37
8.84
8.91
8.49
7.69
6.75
5.98
5.56
5.54
5.81
6.17
6.44
6.53
6.44
6.22
5.90
5.42
4.68
3.64
2.35
1.00
-0.13
-0.90
-1.30
-1.53
-1.86
-2.41
-3.15
-3.89
-4.42
-4.69
-4.89
-5.36
-6.39
-8.06
-10.13
-12.04
-13.19
-13.08
-11.55
-8.77
-5.21
-1.44
2.02
4.85
6.96
8.45
9.50
10.27
10.81
11.09
11.09
10.84
10.46
10.05
9.71
9.43
9.16
8.82
8.42
8.02
7.72
7.56
7.47
7.29
6.81
5.89
4.57
3.01
1.47
0.19
-0.73
-1.32
-1.73
-2.14
-2.70
-3.48
-4.44
-5.48
-6.45
-7.25
-7.85
-8.30
-8.70
-9.16
-9.80
-10.67
-11.83
-13.29
-14.93
-16.50
-17.53
-17.47
-15.88
-12.69
-8.31
-3.50
0.85
4.10
6.06
6.95
7.25
7.36
7.51
7.70
7.85
7.86
7.75
7.61
7.55
7.60
7.71
7.71
7.42
6.77
5.86
4.97
4.44
4.49
5.06
5.79
6.24
6.05
5.19
3.92
2.63
1.61
0.92
0.39
-0.19
-0.98
-1.95
-2.98
-3.90
-4.67
-5.33
-5.99
-6.75
-7.60
-8.51
-9.38
-10.18
-10.93
-11.77
-12.86
-14.27
-15.89
-17.35
-18.09
-17.60
-15.59
-12.17
-7.88
-3.47
0.38
3.27
5.21
6.45
7.27
7.86
8.23
8.33
8.20
8.03
8.04
8.41
9.13
9.95
10.50
10.50
9.87
8.77
7.56
6.58
6.02
5.87
5.93
5.93
5.66
5.05
4.18
3.22
2.30
1.50
0.75
-0.07
-1.07
-2.29
-3.60
-4.84
-5.83
-6.46
-6.78
-6.92
-7.07
-7.35
-7.79
-8.39
-9.13
-10.06
-11.23
-12.61
-14.00
-14.95
-14.94
-13.56
-10.70
-6.73
-2.33
1.70
4.79
6.76
7.85
8.51
9.12
9.86
10.59
11.08
11.12
10.71
10.08
9.54
9.33
9.53
9.96
10.34
10.38
9.98
9.27
8.49
7.91
7.59
7.37
6.97
6.17
4.93
3.46
2.07
1.00
0.27
-0.33
-1.09
-2.21
-3.67
-5.22
-6.52
-7.32
-7.61
-7.64
-7.79
-8.41
-9.65
-11.45
-13.55
-15.60
-17.25
-18.16
-18.05
-16.70
-14.06
-10.28
-5.84
-1.33
2.64
5.63
7.50
8.42
8.71
8.71
8.67
8.65
8.64
8.57
8.40
8.12
7.80
7.50
7.27
7.09
6.90
6.65
6.27
5.78
5.25
4.80
4.51
4.38
4.29
4.03
3.41
2.32
0.91
-0.57
-1.80
-2.63
-3.15
-3.61
-4.34
-5.47
-6.91
-8.37
-9.50
-10.12
-10.30
-10.39
-10.78
-11.79
-13.44
-15.51
-17.62
-19.34
-20.34
-20.38
-19.33
-17.15
-13.93
-9.95
-5.64
-1.58
1.72
3.96
5.15
5.59
5.70
5.86
6.27
6.93
7.69
8.35
8.75
8.81
8.60
8.27
7.97
7.86
7.92
8.08
8.17
8.01
7.58
6.95
6.25
5.58
4.96
4.31
3.57
2.74
1.92
1.23
0.77
0.46
0.12
-0.48
-1.49
-2.87
-4.38
-5.68
-6.46
-6.64
-6.41
-6.17
-6.43
-7.49
-9.27
-11.32
-12.90
-13.26
-12.00
-9.13
-5.12
-0.70
3.46
6.85
9.32
10.96
11.96
12.51
12.71
12.63
12.32
11.92
11.58
11.40
11.36
11.31
11.04
10.44
9.56
8.61
7.89
7.60
7.77
8.20
8.58
8.63
8.20
7.34
6.22
5.04
3.88
2.70
1.39
-0.13
-1.80
-3.43
-4.81
-5.86
-6.63
-7.32
-8.14
-9.14
-10.27
-11.43
-12.59
-13.81
-15.19
-16.77
-18.33
-19.49
-19.74
-18.66
-16.13
-12.36
-7.87
-3.32
0.70
3.81
5.96
7.29
8.12
8.67
9.06
9.27
9.24
8.96
8.52
8.11
7.87
7.83
7.90
7.89
7.71
7.36
6.96
6.70
6.65
6.75
6.76
6.45
5.60
4.25
2.60
0.98
-0.28
-1.04
-1.38
-1.54
-1.81
-2.45
-3.49
-4.86
-6.37
-7.84
-9.13
-10.21
-11.11
-11.87
-12.59
-13.34
-14.22
-15.30
-16.61
-18.13
-19.63
-20.77
-21.03
-19.92
-17.20
-13.03
-8.05
-3.15
0.83
3.43
4.73
5.20
5.42
5.78
6.37
7.00
7.42
7.50
7.31
7.03
6.84
6.82
6.87
6.82
6.56
6.08
5.54
5.15
5.08
5.33
5.73
6.02
5.93
5.34
4.35
3.19
2.14
1.37
0.89
0.55
0.09
-0.63
-1.62
-2.67
-3.48
-3.79
-3.56
-2.98
-2.47
-2.49
-3.33
-5.01
-7.22
-9.46
-11.15
-11.85
-11.35
-9.65
-6.97
-3.63
-0.01
3.54
6.77
9.48
11.65
13.29
14.49
15.37
16.02
16.53
16.91
17.13
17.09
16.71
16.02
15.22
14.61
14.52
15.06
16.11
17.27
18.04
18.05
17.19
15.63
13.67
11.61
9.63
7.78
6.07
4.47
3.00
1.67
0.49
-0.65
-1.86
-3.30
-5.05
-7.02
-9.03
-10.88
-12.53
-14.21
-16.37
-19.43
-23.49
-28.10
-32.35
-35.15
-35.68
-33.76
-29.92
-25.18
-20.61
-16.94
-14.36
-12.64
-11.40
-10.40
-9.65
-9.32
-9.53
-10.20
-11.03
-11.67
-11.96
-12.02
-12.19
-12.81
-14.03
-15.67
-17.36
-18.71
-19.51
-19.86
-20.08
-20.59
-21.67
-23.34
-25.39
-27.44
-29.16
-30.32
-30.87
-30.80
-30.05
-28.46
-25.85
-22.14
-17.41
-12.02
-6.42
-1.10
3.61
7.57
10.82
13.49
15.74
17.75
19.68
21.74
24.15
27.12
30.77
35.03
39.62
44.14
48.21
51.67
54.62
57.39
60.27
63.25
65.85
67.27
66.58
63.13
56.80
48.00
37.55
26.37
15.31
4.97
-4.23
-11.97
-18.03
-22.30
-24.86
-25.98
-26.10
-25.69
-25.15
-24.66
-24.17
-23.52
-22.45
-20.84
-18.74
-16.39
-14.12
-12.28
-11.06
-10.46
-10.35
-10.51
-10.78
-11.04
-11.20
-11.12
-10.54
-9.16
-6.76
-3.40
0.56
4.48
7.70
9.76
10.56
10.39
9.78
9.24
9.12
9.53
10.35
11.40
12.45
13.33
13.90
14.09
13.83
13.11
12.01
10.66
9.31
8.20
7.52
7.30
7.41
7.59
7.59
7.22
6.46
5.45
4.45
3.71
3.38
3.48
3.87
4.32
4.64
4.69
4.42
3.90
3.19
2.36
1.45
0.40
-0.81
-2.17
-3.61
-4.93
-5.82
-5.96
-5.10
-3.17
-0.34
3.04
6.51
9.56
11.75
12.69
12.13
10.00
6.50
2.09
-2.53
-6.64
-9.70
-11.49
-12.12
-11.90
-11.24
-10.43
-9.68
-9.04
-8.46
-7.86
-7.15
-6.31
-5.39
-4.48
-3.72
-3.23
-3.13
-3.49
-4.34
-5.65
-7.33
-9.19
-10.92
-12.24
-12.91
-12.95
-12.61
-12.25
-12.25
-12.73
-13.53
-14.29
-14.59
-14.12
-12.76
-10.64
-7.97
-5.00
-1.91
1.16
4.11
6.85
9.26
11.26
12.84
14.14
15.42
16.89
18.63
20.34
21.46
21.35
19.61
16.33
12.12
7.85
4.31
1.94
0.79
0.59
1.05
1.98
3.32
5.05
7.01
8.91
10.41
11.22
11.29
10.76
9.88
8.90
7.87
6.70
5.17
3.15
0.64
-2.18
-4.99
-7.50
-9.49
-10.87
-11.56
-11.50
-10.57
-8.73
-6.06
-2.85
0.41
3.17
5.04
5.87
5.82
5.23
4.53
4.05
3.96
4.27
4.86
5.59
6.33
7.03
7.68
8.31
8.93
9.49
9.90
10.07
9.94
9.58
9.16
8.81
8.60
8.38
7.89
6.89
5.26
3.14
0.88
-1.17
-2.79
-4.00
-5.07
-6.28
-7.79
-9.58
-11.47
-13.20
-14.63
-15.65
-16.21
-16.25
-15.64
-14.24
-12.05
-9.18
-5.94
-2.69
0.23
2.62
4.45
5.83
6.92
7.83
8.57
9.03
9.05
8.52
7.49
6.10
4.59
3.19
1.99
1.01
0.17
-0.63
-1.42
-2.11
-2.54
-2.51
-1.93
-0.90
0.29
1.25
1.72
1.62
1.15
0.58
0.18
0.02
-0.04
-0.26
-0.89
-2.07
-3.83
-6.09
-8.70
-11.45
-14.02
-16.03
-17.08
-16.87
-15.30
-12.55
-9.04
-5.32
-1.92
0.77
2.61
3.63
4.00
3.91
3.53
2.99
2.35
1.67
0.96
0.23
-0.50
-1.20
-1.83
-2.38
-2.88
-3.42
-4.07
-4.79
-5.42
-5.70
-5.43
-4.64
-3.59
-2.71
-2.35
-2.62
-3.33
-4.06
-4.43
-4.28
-3.80
-3.36
-3.35
-3.92
-4.92
-6.00
-6.70
-6.73
-6.01
-4.70
-3.04
-1.22
0.66
2.66
4.79
6.97
8.98
10.56
11.50
11.78
11.57
11.10
10.54
9.95
9.25
8.36
7.25
6.02
4.81
3.75
2.89
2.22
1.68
1.22
0.79
0.31
-0.24
-0.88
-1.59
-2.34
-3.14
-4.00
-4.94
-5.95
-6.97
-7.91
-8.78
-9.62
-10.56
-11.64
-12.80
-13.78
-14.25
-13.89
-12.54
-10.25
-7.30
-4.10
-1.09
1.38
3.15
4.21
4.70
4.84
4.79
4.66
4.47
4.26
4.02
3.82
3.69
3.63
3.56
3.30
2.72
1.77
0.54
-0.73
-1.83
-2.60
-3.04
-3.27
-3.42
-3.60
-3.80
-3.97
-4.06
-4.07
-4.06
-4.16
-4.46
-5.03
-5.81
-6.59
-7.09
-6.99
-6.10
-4.42
-2.15
0.43
3.08
5.65
8.09
10.27
12.02
13.11
13.44
13.18
12.78
12.83
13.78
15.74
18.37
21.07
23.23
24.41
24.51
23.60
21.81
19.25
16.00
12.18
8.11
4.24
1.01
-1.29
-2.69
-3.50
-4.17
-5.10
-6.46
-8.17
-9.99
-11.69
-13.15
-14.41
-15.61
-16.91
-18.37
-19.93
-21.46
-22.80
-23.81
-24.39
-24.51
-24.17
-23.42
-22.29
-20.78
-18.83
-16.39
-13.48
-10.24
-6.96
-3.98
-1.56
0.19
1.30
1.86
1.91
1.36
0.10
-1.89
-4.36
-6.84
-8.76
-9.64
-9.32
-7.96
-6.04
-4.06
-2.43
-1.28
-0.55
-0.03
0.44
0.84
1.06
0.93
0.37
-0.58
-1.78
-3.04
-4.22
-5.18
-5.77
-5.71
-4.69
-2.45
1.07
5.57
10.47
15.05
18.65
20.86
21.58
20.94
19.24
16.85
14.12
11.37
8.80
6.50
4.45
2.56
0.76
-0.96
-2.57
-3.96
-5.08
-5.88
-6.31
-6.31
-5.80
-4.79
-3.37
-1.82
-0.44
0.51
0.95
0.96
0.74
0.42
-0.02
-0.74
-1.96
-3.83
-6.27
-9.01
-11.54
-13.34
-13.92
-13.01
-10.55
-6.81
-2.28
2.37
6.46
9.46
11.17
11.73
11.55
11.15
10.93
11.05
11.40
11.75
11.86
11.58
10.91
9.95
8.83
7.68
6.59
5.62
4.87
4.38
4.17
4.16
4.19
4.07
3.59
2.65
1.29
-0.36
-2.04
-3.51
-4.58
-5.18
-5.39
-5.46
-5.68
-6.31
-7.41
-8.75
-9.84
-10.05
-8.87
-6.10
-2.02
2.67
7.10
10.49
12.44
12.99
12.54
11.65
10.76
10.08
9.58
9.15
8.70
8.22
7.81
7.49
7.23
6.88
6.20
5.03
3.34
1.33
-0.61
-2.05
-2.67
-2.42
-1.58
-0.59
0.10
0.34
0.26
0.22
0.50
1.11
1.70
1.66
0.46
-2.23
-6.35
-11.52
-17.17
-22.62
-27.23
-30.38
-31.62
-30.68
-27.58
-22.71
-16.75
-10.56
-4.97
-0.62
2.24
3.70
4.10
3.85
3.28
2.52
1.60
0.55
-0.51
-1.31
-1.58
-1.16
-0.09
1.40
3.00
4.50
5.87
7.22
8.64
10.03
11.08
11.34
10.43
8.24
5.01
1.26
-2.42
-5.50
-7.73
-9.09
-9.72
-9.78
-9.43
-8.77
-7.91
-7.01
-6.30
-5.98
-6.13
-6.64
-7.22
-7.50
-7.12
-5.91
-3.91
-1.36
1.35
3.87
5.94
7.53
8.76
9.85
10.93
11.98
12.78
13.09
12.74
11.84
10.67
9.56
8.71
8.09
7.47
6.65
5.58
4.41
3.43
2.85
2.72
2.86
3.02
2.92
2.43
1.58
0.57
-0.39
-1.16
-1.74
-2.26
-2.92
-3.86
-5.05
-6.31
-7.37
-8.06
-8.46
-8.82
-9.51
-10.77
-12.50
-14.30
-15.49
-15.49
-13.94
-10.95
-6.98
-2.69
1.26
4.46
6.72
8.11
8.78
8.92
8.63
8.01
7.14
6.21
5.40
4.92
4.86
5.16
5.61
5.97
6.05
5.78
5.30
4.80
4.49
4.46
4.67
4.94
5.04
4.80
4.14
3.13
1.86
0.50
-0.84
-2.09
-3.19
-4.11
-4.86
-5.50
-6.16
-6.99
-8.11
-9.53
-11.02
-12.13
-12.34
-11.19
-8.55
-4.71
-0.29
3.98
7.52
10.07
11.70
12.67
13.17
13.32
13.07
12.42
11.44
10.31
9.23
8.37
7.75
7.31
6.94
6.53
6.04
5.51
5.00
4.54
4.13
3.67
3.05
2.17
0.99
-0.42
-1.88
-3.22
-4.33
-5.19
-5.90
-6.57
-7.30
-8.14
-9.07
-10.02
-10.95
-11.88
-12.90
-14.10
-15.46
-16.75
-17.48
-17.09
-15.16
-11.66
-7.02
-1.99
2.62
6.26
8.78
10.36
11.29
11.85
12.13
12.10
11.80
11.32
10.84
10.53
10.40
10.32
10.04
9.38
8.30
6.96
5.60
4.45
3.58
2.92
2.27
1.45
0.44
-0.66
-1.65
-2.40
-2.92
-3.41
-4.10
-5.15
-6.53
-8.03
-9.36
-10.32
-10.94
-11.39
-11.99
-13.00
-14.49
-16.30
-18.07
-19.32
-19.58
-18.53
-16.07
-12.41
-7.98
-3.30
1.15
5.00
8.10
10.39
11.94
12.78
13.00
12.69
11.99
11.04
10.01
8.97
7.97
7.02
6.17
5.58
5.42
5.80
6.70
7.87
8.99
9.70
9.80
9.28
8.28
6.99
5.60
4.18
2.77
1.35
-0.05
-1.44
-2.78
-4.06
-5.24
-6.29
-7.20
-8.01
-8.84
-9.83
-11.10
-12.59
-14.09
-15.17
-15.39
-14.45
-12.27
-9.04
-5.15
-1.01
2.97
6.45
9.18
10.96
11.73
11.56
10.72
9.55
8.42
7.56
7.02
6.69
6.39
5.97
5.40
4.77
4.22
3.89
3.81
3.90
3.98
3.87
3.49
2.90
2.26
1.71
1.31
0.94
0.44
-0.33
-1.41
-2.69
-3.98
-5.11
-5.98
-6.60
-7.02
-7.34
-7.62
-7.97
-8.52
-9.42
-10.69
-12.19
-13.51
-14.05
-13.25
-10.78
-6.75
-1.76
3.38
7.85
11.10
13.02
13.83
13.91
13.66
13.33
13.02
12.70
12.34
11.88
11.32
10.68
10.02
9.37
8.75
8.10
7.38
6.55
5.63
4.71
3.83
3.02
2.20
1.26
0.16
-1.05
-2.21
-3.14
-3.76
-4.22
-4.77
-5.71
-7.15
-8.94
-10.72
-12.07
-12.75
-12.82
-12.65
-12.74
-13.47
-14.96
-16.94
-18.90
-20.21
-20.35
-19.06
-16.34
-12.43
-7.75
-2.77
2.06
6.37
9.89
12.49
14.10
14.81
14.77
14.20
13.37
12.48
11.65
10.93
10.26
9.60
8.92
8.25
7.68
7.28
7.07
7.00
7.01
7.01
6.91
6.67
6.23
5.61
4.83
3.90
2.87
1.75
0.58
-0.54
-1.50
-2.20
-2.69
-3.08
-3.64
-4.57
-5.92
-7.53
-9.10
-10.31
-11.04
-11.41
-11.73
-12.39
-13.64
-15.46
-17.54
-19.36
-20.31
-19.90
-17.89
-14.40
-9.84
-4.84
-0.07
3.95
6.95
8.92
10.08
10.71
11.06
11.26
11.32
11.19
10.85
10.35
9.75
9.13
8.60
8.15
7.80
7.54
7.34
7.16
6.92
6.54
6.01
5.39
4.79
4.30
3.89
3.47
2.86
1.99
0.88
-0.33
-1.46
-2.37
-3.10
-3.79
-4.60
-5.60
-6.71
-7.69
-8.31
-8.41
-8.05
-7.47
-7.09
-7.31
-8.37
-10.20
-12.43
-14.44
-15.60
-15.44
-13.78
-10.80
-6.87
-2.48
1.93
6.02
9.52
12.24
14.01
14.80
14.71
14.00
13.05
12.15
11.48
11.02
10.61
10.11
9.47
8.78
8.22
7.92
7.95
8.22
8.57
8.83
8.89
8.68
8.17
7.32
6.15
4.67
2.99
1.28
-0.26
-1.49
-2.34
-2.89
-3.31
-3.78
-4.51
-5.56
-6.89
-8.34
-9.66
-10.63
-11.16
-11.36
-11.49
-11.91
-12.86
-14.36
-16.13
-17.66
-18.35
-17.74
-15.67
-12.32
-8.17
-3.80
0.26
3.67
6.30
8.14
9.28
9.80
9.82
9.54
9.16
8.90
8.85
8.92
8.91
8.57
7.79
6.66
5.49
4.63
4.33
4.57
5.12
5.62
5.80
5.60
5.15
4.67
4.31
4.02
3.58
2.76
1.46
-0.17
-1.77
-3.00
-3.68
-3.93
-4.06
-4.40
-5.13
-6.20
-7.40
-8.50
-9.35
-9.98
-10.49
-10.96
-11.44
-11.92
-12.43
-13.01
-13.78
-14.78
-15.93
-16.97
-17.44
-16.86
-14.83
-11.29
-6.58
-1.40
3.36
6.99
9.13
9.90
9.79
9.33
8.98
8.85
8.87
8.87
8.69
8.33
7.87
7.44
7.15
7.01
6.95
6.86
6.66
6.38
6.07
5.82
5.67
5.54
5.28
4.73
3.83
2.63
1.36
0.28
-0.43
-0.74
-0.80
-0.87
-1.19
-1.87
-2.85
-3.91
-4.78
-5.33
-5.57
-5.69
-5.95
-6.53
-7.51
-8.83
-10.32
-11.75
-12.82
-13.19
-12.57
-10.78
-7.83
-3.96
0.34
4.54
8.17
10.94
12.80
13.86
14.33
14.39
14.15
13.65
12.88
11.84
10.55
9.17
7.94
7.09
6.75
6.89
7.28
7.62
7.63
7.23
6.49
5.62
4.83
4.17
3.57
2.86
1.93
0.79
-0.42
-1.50
-2.42
-3.28
-4.29
-5.60
-7.18
-8.79
-10.10
-10.88
-11.13
-11.13
-11.24
-11.79
-12.93
-14.57
-16.43
-18.12
-19.21
-19.29
-18.06
-15.45
-11.68
-7.23
-2.73
1.28
4.43
6.63
7.97
8.58
8.61
8.20
7.51
6.72
6.06
5.66
5.54
5.60
5.64
5.52
5.18
4.71
4.26
3.99
3.91
3.97
4.02
3.89
3.49
2.81
1.89
0.82
-0.29
-1.34
-2.28
-3.03
-3.58
-4.00
-4.35
-4.75
-5.24
-5.83
-6.43
-6.92
-7.21
-7.30
-7.27
-7.35
-7.79
-8.81
-10.46
-12.55
-14.61
-15.99
-16.09
-14.52
-11.34
-7.00
-2.26
2.14
5.70
8.27
9.98
11.08
11.78
12.16
12.19
11.88
11.28
10.51
9.72
8.98
8.27
7.49
6.53
5.37
4.06
2.76
1.70
1.04
0.88
1.13
1.59
2.01
2.15
1.93
1.37
0.58
-0.33
-1.29
-2.34
-3.54
-4.93
-6.47
-8.00
-9.34
-10.38
-11.07
-11.49
-11.72
-11.78
-11.58
-11.02
-10.00
-8.52
-6.64
-4.43
-1.92
0.84
3.76
6.62
9.09
10.87
11.83
12.06
11.84
11.49
11.23
11.14
11.17
11.20
11.11
10.85
10.41
9.85
9.27
8.80
8.56
8.55
8.69
8.78
8.66
8.25
7.64
6.95
6.27
5.57
4.68
3.42
1.67
-0.49
-2.85
-5.14
-7.12
-8.66
-9.70
-10.27
-10.48
-10.51
-10.60
-11.01
-11.98
-13.60
-15.75
-18.07
-19.96
-20.74
-19.89
-17.21
-12.96
-7.85
-2.78
1.44
4.35
5.97
6.64
6.85
6.99
7.23
7.52
7.77
7.88
7.87
7.81
7.76
7.65
7.39
6.83
6.01
5.12
4.47
4.36
4.92
5.97
7.10
7.78
7.60
6.40
4.37
1.90
-0.51
-2.48
-3.84
-4.64
-5.08
-5.40
-5.79
-6.33
-6.98
-7.61
-8.11
-8.40
-8.43
-8.23
-7.88
-7.45
-7.11
-7.03
-7.40
-8.33
-9.77
-11.45
-12.81
-13.23
-12.18
-9.48
-5.41
-0.65
4.05
8.03
11.01
13.07
14.50
15.60
16.57
17.45
18.16
18.63
18.84
18.80
18.57
18.15
17.51
16.62
15.46
14.16
12.89
11.86
11.19
10.83
10.62
10.28
9.63
8.60
7.24
5.69
4.05
2.36
0.57
-1.34
-3.29
-5.06
-6.38
-7.06
-7.11
-6.84
-6.74
-7.25
-8.56
-10.49
-12.55
-14.15
-14.91
-14.86
-14.37
-13.95
-14.06
-14.84
-16.15
-17.66
-19.01
-19.90
-20.07
-19.33
-17.50
-14.49
-10.46
-5.77
-1.09
2.93
5.79
7.36
7.89
7.87
7.78
7.91
8.30
8.79
9.14
9.17
8.86
8.32
7.72
7.23
6.92
6.76
6.65
6.50
6.26
5.96
5.67
5.39
5.06
4.58
3.85
2.88
1.79
0.77
-0.07
-0.72
-1.28
-1.92
-2.77
-3.86
-5.08
-6.23
-7.10
-7.55
-7.61
-7.51
-7.56
-8.11
-9.32
-11.10
-13.09
-14.70
-15.37
-14.70
-12.60
-9.30
-5.28
-1.15
2.60
5.63
7.90
9.49
10.58
11.30
11.70
11.83
11.72
11.48
11.23
11.06
10.96
10.83
10.53
9.96
9.14
8.24
7.48
7.03
6.94
7.06
7.15
6.95
6.32
5.27
3.98
2.66
1.46
0.45
-0.43
-1.31
-2.30
-3.42
-4.65
-5.87
-6.97
-7.90
-8.63
-9.22
-9.71
-10.15
-10.63
-11.30
-12.31
-13.75
-15.47
-17.02
-17.77
-17.10
-14.68
-10.67
-5.74
-0.78
3.37
6.26
7.90
8.68
9.12
9.61
10.25
10.89
11.31
11.31
10.93
10.33
9.72
9.18
8.69
8.14
7.47
6.78
6.20
5.92
5.93
6.12
6.25
6.10
5.57
4.70
3.61
2.46
1.37
0.37
-0.50
-1.28
-1.99
-2.70
-3.47
-4.32
-5.27
-6.26
-7.22
-8.05
-8.69
-9.15
-9.48
-9.80
-10.22
-10.88
-11.91
-13.39
-15.26
-17.22
-18.76
-19.27
-18.29
-15.70
-11.83
-7.33
-2.90
0.93
3.95
6.22
7.92
9.17
9.97
10.30
10.20
9.87
9.57
9.50
9.70
10.02
10.18
9.93
9.24
8.25
7.28
6.67
6.57
6.90
7.37
7.60
7.31
6.42
5.08
3.58
2.20
1.08
0.25
-0.36
-0.82
-1.19
-1.51
-1.87
-2.39
-3.19
-4.33
-5.73
-7.19
-8.47
-9.41
-9.97
-10.29
-10.60
-11.17
-12.18
-13.67
-15.51
-17.42
-19.03
-19.89
-19.64
-18.10
-15.29
-11.47
-7.09
-2.68
1.31
4.55
6.93
8.45
9.25
9.46
9.25
8.78
8.21
7.69
7.32
7.11
6.99
6.84
6.61
6.34
6.16
6.24
6.62
7.17
7.63
7.74
7.33
6.48
5.38
4.29
3.34
2.54
1.85
1.19
0.59
0.09
-0.34
-0.80
-1.51
-2.60
-4.11
-5.84
-7.48
-8.68
-9.26
-9.21
-8.78
-8.31
-8.23
-8.81
-10.13
-12.00
-13.90
-15.18
-15.22
-13.67
-10.58
-6.44
-1.93
2.27
5.72
8.28
10.03
11.11
11.63
11.61
11.13
10.30
9.41
8.73
8.41
8.40
8.51
8.50
8.27
7.93
7.72
7.83
8.30
8.95
9.48
9.59
9.15
8.23
7.00
5.66
4.34
3.09
1.93
0.82
-0.25
-1.27
-2.28
-3.31
-4.40
-5.52
-6.62
-7.58
-8.29
-8.72
-8.91
-9.06
-9.45
-10.35
-11.89
-13.96
-16.15
-17.79
-18.22
-16.96
-13.96
-9.70
-4.94
-0.52
3.00
5.45
7.01
8.07
8.92
9.68
10.29
10.62
10.61
10.30
9.88
9.53
9.35
9.33
9.40
9.43
9.37
9.23
9.06
8.91
8.74
8.48
8.02
7.32
6.36
5.25
4.08
2.91
1.77
0.62
-0.51
-1.55
-2.42
-3.03
-3.39
-3.62
-3.91
-4.44
-5.28
-6.39
-7.61
-8.78
-9.81
-10.71
-11.61
-12.70
-14.15
-16.02
-18.17
-20.21
-21.53
-21.46
-19.55
-15.77
-10.59
-4.85
0.59
5.09
8.43
10.71
12.24
13.31
14.08
14.61
14.90
14.93
14.78
14.49
14.09
13.60
12.98
12.22
11.31
10.25
9.05
7.69
6.11
4.27
2.15
-0.23
-2.78
-5.39
-7.95
-10.38
-12.57
-14.40
-15.67
-16.18
-15.85
-14.76
-13.22
-11.64
-10.40
-9.68
-9.47
-9.52
-9.58
-9.50
-9.26
-9.08
-9.25
-10.01
-11.46
-13.53
-15.95
-18.36
-20.38
-21.68
-22.11
-21.68
-20.59
-19.13
-17.61
-16.20
-14.95
-13.74
-12.43
-10.99
-9.56
-8.38
-7.66
-7.45
-7.50
-7.47
-7.00
-5.94
-4.35
-2.36
-0.06
2.61
5.80
9.58
13.83
18.27
22.57
26.53
30.07
33.26
36.27
39.32
42.52
45.98
49.72
53.70
57.85
61.98
65.82
69.10
71.43
72.35
71.31
67.93
62.09
54.01
44.12
32.92
21.00
8.73
-3.83
-16.74
-29.79
-42.24
-52.83
-60.12
-63.09
-61.09
-54.51
-44.97
-34.89
-26.57
-21.36
-19.43
-19.90
-21.36
-21.77
-19.59
-14.50
-7.50
-0.17
6.17
10.84
13.89
16.05
19.35
26.12
37.86
54.47
74.35
94.69
111.68
121.48
116.88
94.58
58.72
19.71
-12.40
-33.09
-43.19
-46.33
-45.81
-43.59
-39.46
-32.74
-23.81
-14.47
-6.84
-2.04
-0.09
0.29
0.53
2.09
5.67
10.41
14.50
16.21
14.85
9.89
2.67
-5.64
-14.08
-22.11
-30.19
-39.15
-49.47
-58.79
-67.01
-73.49
-77.98
-80.58
-81.67
-82.22
-82.99
-84.08
-84.89
-84.95
-83.45
-80.26
-77.35
-74.37
-72.01
-71.10
-72.32
-75.75
-80.72
-84.83
-84.78
-77.38
-60.90
-36.72
-8.89
17.32
37.35
48.77
52.20
50.09
45.24
39.74
34.12
28.22
22.06
16.10
11.02
7.40
5.26
4.06
3.23
2.27
0.45
-1.94
-4.28
-5.94
-6.65
-6.66
-6.61
-7.13
-8.66
-10.97
-13.19
-14.17
-13.03
-9.48
-4.01
2.32
8.23
12.67
15.14
15.84
15.37
14.47
13.72
13.37
13.32
13.26
12.87
12.00
10.78
9.45
8.28
7.43
6.91
6.65
6.55
6.58
6.72
7.00
7.36
7.68
7.77
7.48
6.73
5.55
4.03
2.27
0.37
-1.54
-3.35
-4.97
-6.35
-7.54
-8.69
-10.01
-11.66
-13.66
-15.81
-17.78
-19.09
-19.31
-18.05
-15.21
-10.86
-5.36
0.72
6.70
11.95
16.02
18.72
20.18
20.69
20.64
20.33
19.94
19.52
19.07
18.57
18.04
17.46
16.80
15.99
14.95
13.64
12.09
10.42
8.79
7.39
6.38
5.75
5.32
4.76
3.74
2.12
0.03
-2.05
-3.55
-4.03
-3.48
-2.31
-1.27
-1.09
-2.17
-4.51
-7.72
-11.24
-14.54
-17.20
-18.87
-19.24
-18.03
-15.09
-10.54
-4.85
1.22
6.84
11.41
14.71
16.89
18.30
19.23
19.75
19.71
18.87
17.20
14.99
12.86
11.51
11.37
12.41
14.12
15.76
16.74
16.87
16.33
15.51
14.70
13.95
13.10
11.93
10.34
8.37
6.29
4.28
2.28
0.02
-2.80
-6.06
-9.41
-12.50
-15.15
-17.26
-19.02
-20.80
-22.96
-25.67
-28.40
-30.30
-30.37
-27.94
-22.44
-14.08
-3.81
6.94
16.56
24.39
30.36
34.77
38.18
42.43
48.95
57.96
68.28
77.25
83.61
86.90
87.38
86.10
86.86
92.63
103.85
118.13
130.44
139.01
143.82
145.75
146.43
150.87
162.45
180.88
202.25
219.36
230.50
236.66
239.78
242.61
251.73
271.57
302.02
338.58
372.44
401.13
424.55
442.63
422.49
344.25
212.69
56.89
-71.40
-171.11
-251.43
-320.24
-383.67
-439.45
-479.30
-496.74
-491.18
-468.61
-435.60
-396.25
-355.84
-324.59
-301.75
-280.83
-255.98
-226.96
-197.73
-175.57
-162.54
-157.37
-157.15
-157.40
-153.15
-141.40
-122.24
-98.59
-76.12
-58.02
-45.62
-38.84
-35.63
-33.20
-29.01
-21.63
-10.99
1.15
13.27
23.87
31.64
36.26
38.03
38.06
37.99
39.50
43.51
50.26
59.17
69.02
78.80
87.66
95.50
102.94
110.99
120.50
131.62
143.67
154.97
162.87
163.84
154.27
131.68
96.00
50.29
0.43
-46.32
-83.41
-106.93
-116.59
-115.38
-108.16
-99.84
-93.87
-91.64
-92.69
-95.48
-98.30
-99.97
