1660937808.00
64.000000
-0.00
-0.00
-0.00
-0.00
-0.00
-0.00
-0.00
-0.00
-0.00
-0.00
0.00
0.01
0.01
-0.00
-0.03
-0.05
-0.05
0.00
0.13
0.36
0.66
1.01
1.37
1.72
2.06
2.40
2.79
3.25
3.81
4.44
5.10
5.73
6.32
6.90
7.52
8.25
9.15
10.28
11.53
12.78
13.91
14.88
15.77
16.78
18.13
19.96
22.48
25.45
28.58
31.57
34.31
36.90
39.72
43.23
47.72
53.51
60.19
67.18
73.94
80.18
86.12
92.37
99.67
108.51
119.27
131.25
143.52
155.22
165.96
176.08
186.51
198.71
211.27
226.10
243.42
263.00
283.64
302.75
316.51
320.82
312.55
290.64
256.92
214.56
167.35
118.46
69.84
22.42
-23.26
-66.63
-107.12
-144.21
-178.49
-211.27
-244.29
-278.89
-315.18
-351.40
-383.93
-408.35
-420.71
-419.22
-404.97
-381.54
-353.56
-325.00
-298.02
-272.97
-249.18
-225.97
-203.50
-182.51
-163.78
-147.45
-132.93
-119.22
-105.46
-91.39
-77.39
-64.28
-52.80
-43.27
-35.44
-28.67
-22.27
-15.81
-9.23
-2.85
2.88
7.63
11.30
14.07
16.26
18.20
20.08
21.89
23.52
24.80
25.62
25.98
26.01
25.90
25.81
25.79
25.78
25.68
25.36
24.77
23.94
22.96
21.94
20.97
20.15
19.52
19.11
18.85
18.65
18.40
18.03
17.54
16.98
16.42
15.91
15.44
14.97
14.46
13.95
13.49
13.17
13.00
12.90
12.75
12.46
12.02
11.50
11.04
10.71
10.53
10.43
10.32
10.14
9.90
9.68
9.52
9.40
9.26
9.03
8.67
8.24
7.81
7.44
7.13
6.83
6.47
6.02
5.50
4.98
4.53
4.19
3.92
3.69
3.43
3.15
2.88
2.66
2.52
2.40
2.20
1.81
1.23
0.50
-0.27
-0.98
-1.57
-2.11
-2.71
-3.44
-4.26
-5.07
-5.76
-6.27
-6.66
-7.01
-7.42
-7.89
-8.34
-8.66
-8.79
-8.75
-8.60
-8.43
-8.26
-8.08
-7.86
-7.60
-7.35
-7.17
-7.07
-6.97
-6.78
-6.43
-5.90
-5.25
-4.57
-3.89
-3.24
-2.59
-1.94
-1.33
-0.80
-0.37
0.00
0.39
0.83
1.32
1.78
2.12
2.30
2.37
2.40
2.47
2.58
2.71
2.80
2.81
2.77
2.71
2.68
2.71
2.82
2.99
3.23
3.51
3.81
4.06
4.25
4.35
4.39
4.40
4.42
4.45
4.48
4.49
4.46
4.40
4.36
4.38
4.46
4.60
4.78
4.92
5.00
4.99
4.88
4.70
4.49
4.30
4.16
4.04
3.92
3.76
3.57
3.37
3.23
3.17
3.18
3.17
3.06
2.80
2.41
2.00
1.66
1.48
1.45
1.51
1.59
1.64
1.67
1.72
1.82
1.96
2.08
2.12
2.03
1.82
1.54
1.30
1.16
1.15
1.26
1.42
1.55
1.61
1.58
1.48
1.35
1.24
1.19
1.22
1.34
1.52
1.73
1.92
2.06
2.11
2.10
2.08
2.08
2.11
2.15
2.13
2.00
1.74
1.39
1.03
0.73
0.54
0.44
0.41
0.40
0.41
0.43
0.50
0.61
0.72
0.78
0.73
0.57
0.32
0.08
-0.09
-0.15
-0.11
-0.03
0.02
0.03
0.03
0.09
0.32
0.74
1.30
1.88
2.31
2.48
2.31
1.86
1.26
0.69
0.29
0.15
0.29
0.63
1.08
1.53
1.88
2.04
1.99
1.73
1.31
0.84
0.47
0.28
0.35
0.63
0.97
1.23
1.27
1.07
0.72
0.40
0.25
0.34
0.59
0.84
0.96
0.89
0.68
0.46
0.30
0.24
0.19
0.10
-0.05
-0.19
-0.20
-0.02
0.30
0.61
0.76
0.64
0.27
-0.20
-0.61
-0.82
-0.77
-0.52
-0.12
0.35
0.84
1.28
1.57
1.63
1.42
1.01
0.53
0.12
-0.12
-0.19
-0.19
-0.21
-0.32
-0.47
-0.57
-0.53
-0.32
0.01
0.38
0.71
0.95
1.07
1.09
0.99
0.78
0.47
0.14
-0.13
-0.21
-0.07
0.27
0.69
1.05
1.25
1.28
1.22
1.17
1.16
1.15
1.05
0.78
0.38
-0.01
-0.23
-0.19
0.05
0.35
0.55
0.60
0.53
0.49
0.56
0.76
0.97
1.07
1.00
0.77
0.51
0.35
0.36
0.52
0.74
0.90
0.90
0.68
0.27
-0.22
-0.67
-0.95
-1.03
-0.95
-0.77
-0.59
-0.44
-0.28
-0.10
0.09
0.24
0.25
0.09
-0.16
-0.38
-0.41
-0.21
0.12
0.41
0.50
0.34
0.02
-0.27
-0.38
-0.27
-0.01
0.23
0.37
0.41
0.44
0.53
0.72
0.94
1.08
1.11
1.03
0.93
0.87
0.83
0.77
0.62
0.36
0.02
-0.30
-0.53
-0.60
-0.55
-0.39
-0.18
0.04
0.18
0.19
0.06
-0.19
-0.46
-0.64
-0.65
-0.47
-0.15
0.22
0.55
0.82
0.98
1.04
0.98
0.82
0.57
0.29
0.05
-0.09
-0.13
-0.09
-0.03
0.01
-0.01
-0.08
-0.17
-0.23
-0.25
-0.19
-0.05
0.15
0.36
0.55
0.68
0.73
0.67
0.50
0.23
-0.11
-0.46
-0.73
-0.87
-0.86
-0.74
-0.60
-0.50
-0.51
-0.62
-0.77
-0.90
-0.95
-0.91
-0.84
-0.84
-1.02
-1.42
-2.04
-2.75
-3.38
-3.77
-3.86
-3.75
-3.63
-3.75
-4.26
-5.16
-6.24
-7.20
-7.79
-7.93
-7.77
-7.65
-7.97
-8.94
-10.53
-12.46
-14.31
-15.73
-16.59
-17.01
-17.28
-17.75
-18.73
-20.46
-23.08
-26.40
-29.69
-31.66
-30.79
-25.97
-17.25
-6.09
4.97
13.26
17.06
16.22
12.02
6.35
0.85
-3.69
-7.30
-10.35
-13.09
-15.51
-17.53
-19.35
-21.57
-24.93
-29.85
-35.95
-41.93
-45.99
-46.63
-43.46
-37.57
-31.16
-26.73
-26.11
-29.76
-36.67
-44.90
-52.40
-57.66
-60.23
-60.70
-60.31
-60.55
-62.80
-68.06
-76.76
-88.33
-100.75
-110.35
-112.28
-101.98
-77.16
-39.34
5.91
50.54
86.80
109.89
119.19
117.64
109.73
99.35
88.61
77.90
66.86
55.42
44.42
35.42
30.10
29.43
33.11
39.60
46.63
51.97
54.24
53.30
49.94
45.29
40.13
34.56
28.28
21.16
13.57
6.40
0.54
-3.68
-6.96
-10.73
-16.39
-24.30
-33.10
-39.88
-41.35
-35.40
-22.30
-4.82
12.85
26.82
34.86
37.03
35.17
31.94
29.79
30.36
34.54
42.64
54.69
70.46
89.31
110.09
131.15
150.67
167.04
179.43
188.19
194.75
201.19
209.37
220.27
233.73
248.54
262.79
274.26
280.58
279.53
269.53
250.09
222.05
187.37
148.37
106.83
63.33
17.46
-31.20
-81.81
-131.54
-175.90
-210.22
-231.38
-239.09
-235.89
-225.95
-213.30
-200.54
-188.42
-176.54
-164.41
-152.20
-140.76
-130.99
-123.21
-116.87
-110.84
-104.05
-96.05
-87.12
-78.17
-70.12
-63.53
-58.34
-53.98
-49.69
-44.89
-39.40
-33.54
-27.89
-23.06
-19.42
-16.95
-15.29
-13.92
-12.38
-10.42
-8.15
-5.89
-4.02
-2.82
-2.29
-2.22
-2.27
-2.16
-1.78
-1.21
-0.70
-0.48
-0.72
-1.38
-2.33
-3.36
-4.28
-5.04
-5.62
-6.05
-6.33
-6.42
-6.28
-5.92
-5.44
-4.94
-4.50
-4.14
-3.79
-3.39
-2.96
-2.59
-2.39
-2.42
-2.56
-2.62
-2.44
-2.01
-1.46
-1.04
-0.94
-1.20
-1.69
-2.16
-2.45
-2.50
-2.39
-2.25
-2.18
-2.17
-2.13
-1.97
-1.65
-1.24
-0.88
-0.70
-0.76
-0.98
-1.20
-1.26
-1.09
-0.75
-0.35
0.01
0.30
0.55
0.80
1.05
1.25
1.30
1.17
0.90
0.60
0.40
0.39
0.55
0.79
0.96
0.93
0.65
0.22
-0.18
-0.37
-0.26
0.05
0.37
0.49
0.29
-0.17
-0.73
-1.21
-1.47
-1.42
-1.04
-0.31
0.75
2.10
3.56
4.92
5.95
6.54
6.71
6.64
6.53
6.54
6.67
6.81
6.79
6.47
5.80
4.83
3.68
2.52
1.44
0.53
-0.18
-0.69
-1.02
-1.23
-1.39
-1.57
-1.82
-2.18
-2.62
-3.07
-3.40
-3.53
-3.37
-2.97
-2.41
-1.80
-1.23
-0.69
-0.12
0.53
1.27
2.01
2.61
2.97
3.04
2.88
2.60
2.27
1.94
1.59
1.15
0.62
-0.02
-0.74
-1.51
-2.31
-3.11
-3.88
-4.54
-5.00
-5.20
-5.13
-4.89
-4.62
-4.48
-4.59
-4.97
-5.55
-6.23
-6.87
-7.40
-7.77
-7.98
-8.08
-8.17
-8.32
-8.55
-8.84
-9.16
-9.47
-9.77
-10.10
-10.52
-11.00
-11.40
-11.48
-10.90
-9.38
-6.78
-3.13
1.30
6.09
10.74
14.75
17.81
19.81
20.90
21.30
21.24
20.85
20.11
19.02
17.58
15.94
14.33
12.95
11.88
11.05
10.31
9.51
8.61
7.64
6.71
5.94
5.38
5.03
4.87
4.89
5.02
5.16
5.07
4.48
3.16
1.09
-1.57
-4.41
-6.98
-8.93
-10.17
-10.83
-11.16
-11.37
-11.48
-11.37
-10.84
-9.84
-8.49
-7.10
-6.00
-5.41
-5.34
-5.62
-6.03
-6.37
-6.58
-6.70
-6.81
-6.93
-7.03
-6.99
-6.73
-6.23
-5.62
-5.11
-4.88
-5.00
-5.36
-5.72
-5.79
-5.39
-4.48
-3.16
-1.57
0.18
2.06
4.04
6.06
7.97
9.56
10.66
11.18
11.17
10.73
10.01
9.12
8.09
6.92
5.64
4.30
3.02
1.97
1.25
0.92
0.90
1.06
1.21
1.20
0.98
0.62
0.24
0.01
0.03
0.29
0.71
1.09
1.26
1.12
0.72
0.18
-0.34
-0.80
-1.26
-1.91
-2.88
-4.20
-5.73
-7.22
-8.43
-9.24
-9.66
-9.81
-9.85
-9.89
-9.98
-10.10
-10.25
-10.43
-10.69
-11.10
-11.66
-12.28
-12.79
-12.97
-12.67
-11.85
-10.66
-9.33
-8.14
-7.29
-6.81
-6.58
-6.30
-5.59
-4.07
-1.48
2.18
6.61
11.22
15.33
18.34
19.94
20.18
19.40
17.99
16.29
14.51
12.71
10.93
9.22
7.63
6.22
4.97
3.77
2.58
1.37
0.23
-0.69
-1.27
-1.47
-1.35
-1.05
-0.67
-0.31
0.02
0.30
0.59
0.90
1.24
1.60
1.99
2.39
2.79
3.16
3.50
3.77
3.96
4.05
4.02
3.88
3.71
3.64
3.82
4.35
5.20
6.23
7.18
7.80
7.93
7.54
6.71
5.65
4.55
3.60
2.92
2.57
2.55
2.75
3.05
3.27
3.23
2.84
2.10
1.16
0.26
-0.30
-0.34
0.18
1.06
1.97
2.52
2.44
1.71
0.53
-0.71
-1.58
-1.82
-1.35
-0.37
0.80
1.77
2.27
2.23
1.71
0.93
0.09
-0.65
-1.18
-1.46
-1.48
-1.27
-0.90
-0.51
-0.24
-0.25
-0.62
-1.34
-2.29
-3.32
-4.24
-4.91
-5.30
-5.44
-5.43
-5.32
-5.13
-4.85
-4.51
-4.19
-4.07
-4.28
-4.83
-5.55
-6.12
-6.28
-5.89
-5.08
-4.12
-3.29
-2.76
-2.51
-2.38
-2.20
-1.81
-1.16
-0.27
0.74
1.68
2.41
2.82
2.95
2.93
2.94
3.05
3.19
3.19
2.86
2.14
1.17
0.21
-0.48
-0.79
-0.76
-0.59
-0.47
-0.49
-0.65
-0.88
-1.11
-1.35
-1.65
-2.04
-2.41
-2.54
-2.19
-1.16
0.46
2.40
4.18
5.36
5.72
5.28
4.28
3.07
1.94
1.08
0.55
0.32
0.33
0.50
0.69
0.74
0.51
-0.09
-1.03
-2.14
-3.22
-4.06
-4.56
-4.71
-4.61
-4.38
-4.11
-3.85
-3.61
-3.41
-3.27
-3.19
-3.19
-3.22
-3.25
-3.24
-3.15
-3.00
-2.82
-2.61
-2.33
-1.89
-1.20
-0.23
0.96
2.21
3.27
3.97
4.22
4.10
3.77
3.40
3.14
3.02
2.99
2.99
2.92
2.78
2.57
2.32
2.07
1.84
1.62
1.39
1.11
0.76
0.36
-0.09
-0.53
-0.99
-1.48
-2.00
-2.46
-2.70
-2.54
-1.85
-0.70
0.68
1.96
2.84
3.18
3.05
2.68
2.32
2.15
2.21
2.44
2.67
2.77
2.67
2.35
1.91
1.46
1.12
0.94
0.91
0.98
1.06
1.07
0.97
0.78
0.53
0.27
0.03
-0.18
-0.33
-0.41
-0.39
-0.23
0.04
0.34
0.50
0.34
-0.28
-1.35
-2.70
-4.05
-5.14
-5.82
-6.11
-6.10
-5.93
-5.65
-5.25
-4.74
-4.18
-3.76
-3.61
-3.83
-4.30
-4.83
-5.21
-5.35
-5.32
-5.30
-5.47
-5.86
-6.39
-6.85
-7.08
-7.01
-6.73
-6.43
-6.28
-6.42
-6.84
-7.46
-8.06
-8.35
-7.99
-6.63
-4.06
-0.36
4.07
8.58
12.46
15.20
16.66
17.08
16.89
16.51
16.17
15.91
15.60
15.10
14.39
13.53
12.64
11.80
11.04
10.27
9.44
8.52
7.52
6.53
5.59
4.71
3.81
2.76
1.50
0.10
-1.26
-2.28
-2.70
-2.41
-1.57
-0.59
0.03
-0.13
-1.22
-3.06
-5.22
-7.23
-8.77
-9.76
-10.27
-10.45
-10.41
-10.17
-9.72
-9.12
-8.48
-7.95
-7.56
-7.25
-6.91
-6.40
-5.68
-4.81
-3.95
-3.21
-2.65
-2.25
-1.94
-1.67
-1.45
-1.35
-1.44
-1.71
-2.11
-2.53
-2.83
-2.95
-2.85
-2.54
-1.98
-1.13
0.06
1.59
3.31
4.99
6.38
7.32
7.84
8.09
8.29
8.56
8.84
8.96
8.73
8.08
7.06
5.86
4.70
3.71
2.93
2.31
1.78
1.32
0.96
0.72
0.63
0.68
0.79
0.93
1.05
1.17
1.34
1.55
1.81
2.09
2.35
2.54
2.57
2.35
1.74
0.67
-0.83
-2.57
-4.28
-5.71
-6.69
-7.25
-7.53
-7.70
-7.87
-8.06
-8.22
-8.32
-8.36
-8.39
-8.48
-8.65
-8.86
-9.03
-9.04
-8.84
-8.43
-7.84
-7.17
-6.49
-5.87
-5.33
-4.81
-4.22
-3.47
-2.45
-1.08
0.71
2.90
5.37
7.91
10.23
12.07
13.32
14.03
14.34
14.42
14.30
13.94
13.22
12.06
10.51
8.70
6.83
4.99
3.23
1.57
0.04
-1.28
-2.31
-2.99
-3.36
-3.50
-3.52
-3.49
-3.43
-3.33
-3.17
-2.94
-2.68
-2.42
-2.22
-2.11
-2.10
-2.19
-2.34
-2.53
-2.69
-2.80
-2.82
-2.72
-2.48
-2.07
-1.47
-0.72
0.13
0.98
1.73
2.29
2.64
2.80
2.84
2.79
2.68
2.52
2.29
2.02
1.73
1.44
1.21
1.04
0.92
0.79
0.64
0.47
0.32
0.27
0.35
0.54
0.79
1.03
1.21
1.32
1.38
1.41
1.45
1.48
1.53
1.56
1.57
1.56
1.53
1.52
1.56
1.59
1.52
1.18
0.47
-0.55
-1.69
-2.68
-3.32
-3.57
-3.60
-3.64
-3.86
-4.27
-4.72
-5.04
-5.09
-4.87
-4.47
-3.97
-3.43
-2.82
-2.12
-1.34
-0.55
0.08
0.40
0.37
0.08
-0.21
-0.23
0.20
1.02
1.97
2.70
2.97
2.78
2.34
1.98
1.92
2.14
2.40
2.39
1.96
1.17
0.31
-0.31
-0.54
-0.42
-0.17
0.00
-0.03
-0.23
-0.47
-0.61
-0.59
-0.45
-0.26
-0.08
0.06
0.16
0.23
0.22
0.10
-0.14
-0.46
-0.75
-0.85
-0.70
-0.30
0.25
0.76
1.10
1.20
1.14
1.01
0.92
0.90
0.86
0.67
0.24
-0.42
-1.22
-1.96
-2.50
-2.79
-2.89
-2.98
-3.24
-3.78
-4.58
-5.54
-6.49
-7.23
-7.67
-7.74
-7.45
-6.86
-6.05
-5.16
-4.34
-3.76
-3.49
-3.47
-3.40
-2.90
-1.61
0.62
3.57
6.68
9.31
10.93
11.39
10.87
9.81
8.59
7.40
6.22
4.96
3.59
2.26
1.20
0.61
0.50
0.72
1.00
1.13
1.01
0.72
0.39
0.13
-0.04
-0.19
-0.38
-0.64
-0.92
-1.16
-1.29
-1.34
-1.31
-1.21
-0.97
-0.47
0.34
1.42
2.56
3.46
3.82
3.50
2.58
1.37
0.23
-0.56
-0.92
-0.94
-0.84
-0.81
-0.93
-1.20
-1.55
-1.91
-2.25
-2.54
-2.79
-2.94
-2.94
-2.75
-2.34
-1.70
-0.87
0.03
0.89
1.60
2.12
2.52
2.92
3.37
3.85
4.23
4.36
4.15
3.64
2.93
2.18
1.46
0.76
0.03
-0.78
-1.64
-2.46
-3.13
-3.56
-3.77
-3.81
-3.80
-3.86
-4.06
-4.38
-4.71
-4.93
-4.98
-4.85
-4.65
-4.51
-4.54
-4.75
-5.06
-5.34
-5.52
-5.60
-5.65
-5.79
-6.09
-6.53
-7.01
-7.37
-7.41
-6.98
-5.98
-4.37
-2.22
0.37
3.19
6.02
8.63
10.87
12.64
13.91
14.69
15.01
14.94
14.57
13.99
13.30
12.51
11.63
10.66
9.63
8.64
7.86
7.36
7.14
7.06
6.89
6.46
5.69
4.73
3.78
3.04
2.58
2.33
2.11
1.78
1.29
0.64
-0.11
-0.98
-2.02
-3.28
-4.71
-6.17
-7.46
-8.38
-8.81
-8.78
-8.41
-7.85
-7.23
-6.63
-6.10
-5.65
-5.30
-5.08
-5.04
-5.19
-5.50
-5.90
-6.27
-6.49
-6.51
-6.34
-6.05
-5.72
-5.42
-5.12
-4.82
-4.52
-4.28
-4.21
-4.39
-4.81
-5.35
-5.79
-5.90
-5.47
-4.41
-2.74
-0.61
1.71
3.93
5.80
7.17
8.03
8.48
8.68
8.72
8.62
8.36
7.87
7.19
6.39
5.61
4.94
4.42
3.98
3.58
3.15
2.74
2.42
2.25
2.24
2.30
2.34
2.27
2.14
2.04
2.12
2.47
3.06
3.76
4.34
4.59
4.39
3.75
2.78
1.65
0.50
-0.57
-1.54
-2.42
-3.19
-3.80
-4.16
-4.22
-4.01
-3.61
-3.14
-2.69
-2.27
-1.88
-1.50
-1.17
-0.98
-1.07
-1.52
-2.29
-3.24
-4.15
-4.83
-5.18
-5.18
-4.94
-4.57
-4.16
-3.73
-3.28
-2.81
-2.37
-2.00
-1.76
-1.60
-1.46
-1.19
-0.75
-0.12
0.60
1.27
1.78
2.09
2.25
2.38
2.56
2.80
3.04
3.18
3.15
2.91
2.53
2.09
1.66
1.25
0.84
0.41
-0.05
-0.49
-0.85
-1.06
-1.13
-1.05
-0.87
-0.65
-0.43
-0.28
-0.18
-0.09
0.06
0.36
0.81
1.34
1.75
1.88
1.62
1.00
0.16
-0.74
-1.53
-2.17
-2.63
-2.91
-3.01
-2.91
-2.62
-2.18
-1.64
-1.04
-0.41
0.26
0.94
1.57
2.05
2.31
2.34
2.18
1.96
1.76
1.65
1.63
1.66
1.70
1.73
1.75
1.78
1.85
1.98
2.20
2.51
2.84
3.10
3.18
2.99
2.52
1.86
1.14
0.48
-0.00
-0.29
-0.43
-0.51
-0.62
-0.79
-1.01
-1.24
-1.44
-1.54
-1.50
-1.28
-0.88
-0.34
0.23
0.72
0.98
0.95
0.58
-0.07
-0.86
-1.67
-2.33
-2.77
-2.94
-2.90
-2.75
-2.62
-2.60
-2.72
-2.96
-3.21
-3.38
-3.40
-3.27
-3.01
-2.63
-2.15
-1.55
-0.83
-0.01
0.85
1.65
2.25
2.57
2.60
2.43
2.21
2.09
2.13
2.28
2.45
2.52
2.45
2.26
2.06
1.92
1.86
1.79
1.63
1.29
0.80
0.26
-0.19
-0.44
-0.46
-0.31
-0.08
0.13
0.24
0.25
0.18
0.07
-0.05
-0.18
-0.34
-0.57
-0.86
-1.19
-1.47
-1.61
-1.53
-1.23
-0.77
-0.26
0.20
0.55
0.77
0.88
0.92
0.87
0.72
0.48
0.15
-0.21
-0.57
-0.92
-1.24
-1.51
-1.72
-1.81
-1.78
-1.63
-1.44
-1.34
-1.41
-1.70
-2.14
-2.56
-2.77
-2.64
-2.16
-1.44
-0.68
-0.06
0.30
0.39
0.26
0.04
-0.18
-0.32
-0.29
-0.08
0.32
0.82
1.33
1.71
1.91
1.96
1.92
1.91
1.98
2.11
2.26
2.35
2.38
2.31
2.16
1.93
1.60
1.21
0.77
0.35
-0.02
-0.33
-0.60
-0.88
-1.17
-1.45
-1.68
-1.81
-1.87
-1.89
-1.93
-2.03
-2.16
-2.29
-2.33
-2.23
-1.95
-1.52
-0.98
-0.42
0.12
0.59
0.96
1.25
1.43
1.50
1.46
1.31
1.06
0.75
0.39
0.02
-0.35
-0.64
-0.78
-0.73
-0.53
-0.29
-0.18
-0.30
-0.66
-1.14
-1.55
-1.74
-1.67
-1.40
-1.04
-0.69
-0.40
-0.17
0.01
0.16
0.28
0.39
0.55
0.79
1.13
1.57
2.02
2.41
2.67
2.80
2.84
2.83
2.79
2.70
2.53
2.23
1.80
1.32
0.84
0.43
0.09
-0.25
-0.66
-1.21
-1.88
-2.60
-3.26
-3.74
-3.99
-4.01
-3.90
-3.76
-3.67
-3.71
-3.85
-4.03
-4.17
-4.20
-4.12
-4.03
-4.03
-4.23
-4.66
-5.26
-5.85
-6.22
-6.14
-5.50
-4.31
-2.74
-0.97
0.79
2.46
4.01
5.45
6.73
7.75
8.36
8.44
8.03
7.29
6.45
5.72
5.25
5.04
5.00
4.99
4.91
4.71
4.41
4.08
3.77
3.54
3.36
3.24
3.20
3.25
3.40
3.62
3.79
3.79
3.52
3.02
2.44
1.90
1.48
1.12
0.63
-0.13
-1.18
-2.42
-3.62
-4.56
-5.17
-5.45
-5.49
-5.37
-5.14
-4.78
-4.32
-3.85
-3.51
-3.45
-3.72
-4.24
-4.85
-5.34
-5.60
-5.63
-5.51
-5.34
-5.22
-5.18
-5.20
-5.21
-5.15
-4.96
-4.63
-4.23
-3.80
-3.45
-3.23
-3.15
-3.17
-3.14
-2.87
-2.14
-0.82
1.10
3.45
5.89
8.03
9.56
10.36
10.52
10.27
9.84
9.39
8.95
8.48
7.94
7.29
6.58
5.87
5.24
4.70
4.26
3.87
3.47
3.02
2.49
1.89
1.27
0.69
0.23
-0.10
-0.28
-0.32
-0.23
-0.00
0.38
0.90
1.47
1.95
2.19
2.05
1.49
0.56
-0.56
-1.69
-2.69
-3.47
-4.07
-4.54
-4.88
-5.05
-4.96
-4.58
-3.98
-3.31
-2.76
-2.44
-2.34
-2.39
-2.48
-2.54
-2.55
-2.52
-2.44
-2.31
-2.14
-1.98
-1.88
-1.88
-1.95
-2.08
-2.20
-2.30
-2.36
-2.32
-2.11
-1.67
-1.01
-0.26
0.39
0.76
0.81
0.68
0.61
0.81
1.37
2.17
2.98
3.57
3.82
3.71
3.34
2.78
2.08
1.21
0.22
-0.81
-1.72
-2.33
-2.52
-2.27
-1.72
-1.06
-0.48
-0.11
0.03
-0.03
-0.22
-0.44
-0.61
-0.64
-0.47
-0.08
0.44
0.99
1.40
1.58
1.50
1.25
0.94
0.62
0.30
-0.10
-0.63
-1.27
-1.92
-2.40
-2.57
-2.35
-1.78
-0.96
-0.07
0.72
1.26
1.44
1.28
0.85
0.33
-0.09
-0.28
-0.21
0.03
0.35
0.64
0.92
1.26
1.72
2.27
2.81
3.18
3.26
3.07
2.73
2.39
2.14
1.97
1.79
1.50
1.12
0.77
0.61
0.77
1.24
1.84
2.35
2.55
2.37
1.90
1.30
0.75
0.32
-0.00
-0.31
-0.71
-1.24
-1.87
-2.47
-2.95
-3.25
-3.40
-3.46
-3.47
-3.45
-3.33
-3.06
-2.64
-2.15
-1.72
-1.48
-1.49
-1.72
-2.06
-2.42
-2.71
-2.91
-2.98
-2.88
-2.56
-1.99
-1.18
-0.16
0.99
2.23
3.51
4.78
5.92
6.81
7.31
7.36
6.95
6.20
5.22
4.16
3.10
2.09
1.18
0.40
-0.21
-0.61
-0.77
-0.71
-0.53
-0.35
-0.29
-0.44
-0.78
-1.25
-1.69
-2.01
-2.14
-2.09
-1.91
-1.67
-1.44
-1.29
-1.27
-1.40
-1.68
-2.06
-2.46
-2.82
-3.07
-3.21
-3.26
-3.26
-3.24
-3.24
-3.25
-3.31
-3.41
-3.52
-3.62
-3.66
-3.59
-3.41
-3.15
-2.82
-2.45
-2.01
-1.51
-0.92
-0.30
0.27
0.70
0.93
0.94
0.81
0.64
0.53
0.51
0.55
0.59
0.57
0.45
0.23
-0.06
-0.37
-0.62
-0.72
-0.56
-0.05
0.80
1.92
3.10
4.18
5.00
5.53
5.81
5.88
5.74
5.32
4.53
3.36
1.88
0.29
-1.23
-2.54
-3.59
-4.37
-4.91
-5.18
-5.18
-4.93
-4.55
-4.18
-3.99
-4.02
-4.28
-4.65
-5.07
-5.47
-5.85
-6.17
-6.38
-6.43
-6.25
-5.86
-5.28
-4.57
-3.77
-2.88
-1.92
-0.95
-0.06
0.66
1.17
1.48
1.67
1.86
2.15
2.59
3.22
3.97
4.73
5.35
5.70
5.75
5.53
5.13
4.64
4.05
3.33
2.44
1.38
0.25
-0.80
-1.68
-2.36
-2.89
-3.32
-3.72
-4.09
-4.44
-4.86
-5.51
-6.56
-8.14
-10.22
-12.58
-14.82
-16.52
-17.41
-17.52
-17.20
-17.08
-17.79
-19.65
-22.51
-25.70
-28.36
-29.78
-29.87
-29.22
-28.94
-30.12
-33.32
-38.25
-43.79
-48.58
-51.58
-52.62
-52.45
-52.44
-54.03
-58.25
-65.42
-75.03
-85.44
-93.75
-95.98
-88.11
-67.68
-35.39
4.34
44.41
77.53
98.81
107.34
105.87
98.93
90.56
82.93
76.31
70.14
64.15
58.83
54.99
53.04
52.48
52.07
50.45
46.90
41.65
35.79
30.73
27.50
26.30
26.52
27.04
26.78
25.21
22.45
19.16
16.14
13.93
12.63
11.90
11.21
10.12
8.48
6.47
4.46
2.88
2.02
1.91
2.37
3.01
3.40
3.17
2.19
0.56
-1.38
-3.21
-4.58
-5.38
-5.66
-5.63
-5.44
-5.13
-4.66
-3.96
-3.03
-1.97
-0.93
-0.02
0.70
1.25
1.63
1.82
1.80
1.59
1.24
0.86
0.54
0.33
0.22
0.16
0.12
0.09
0.05
0.02
-0.01
-0.03
-0.03
-0.04
-0.09
-0.21
-0.44
-0.72
-0.97
-1.07
-0.96
-0.68
-0.34
-0.06
0.09
0.16
0.20
0.27
0.39
0.51
0.57
0.53
0.39
0.17
-0.11
-0.41
-0.69
-0.91
-1.02
-0.97
-0.76
-0.42
-0.04
0.28
0.47
0.46
0.25
-0.10
-0.47
-0.71
-0.71
-0.43
0.05
0.56
0.92
1.01
0.82
0.48
0.17
0.03
0.10
0.30
0.46
0.46
0.30
0.05
-0.14
-0.22
-0.18
-0.13
-0.13
-0.24
-0.41
-0.59
-0.73
-0.80
-0.80
-0.76
-0.70
-0.64
-0.60
-0.61
-0.69
-0.82
-0.97
-1.09
-1.18
-1.27
-1.37
-1.51
-1.65
-1.71
-1.66
-1.51
-1.36
-1.31
-1.42
-1.67
-1.93
-2.10
-2.11
-2.04
-2.02
-2.19
-2.63
-3.31
-4.14
-4.99
-5.74
-6.31
-6.62
-6.65
-6.42
-6.03
-5.62
-5.35
-5.33
-5.61
-6.08
-6.60
-6.91
-6.80
-6.08
-4.67
-2.57
0.06
2.98
5.85
8.34
10.17
11.20
11.39
10.86
9.83
8.53
7.23
6.12
5.31
4.84
4.65
4.63
4.65
4.59
4.41
4.12
3.79
3.47
3.20
2.96
2.72
2.48
2.23
1.98
1.72
1.40
1.01
0.56
0.14
-0.12
-0.16
0.02
0.29
0.48
0.48
0.30
0.04
-0.18
-0.28
-0.31
-0.33
-0.40
-0.48
-0.52
-0.49
-0.40
-0.33
-0.35
-0.46
-0.57
-0.59
-0.49
-0.29
-0.05
0.15
0.28
0.35
0.38
0.39
0.37
0.29
0.17
0.01
-0.13
-0.23
-0.24
-0.16
0.02
0.25
0.47
0.61
0.65
0.57
0.38
0.11
-0.23
-0.57
-0.84
-0.94
-0.80
-0.43
0.09
0.61
0.98
1.11
1.00
0.71
0.31
-0.09
-0.43
-0.66
-0.77
-0.76
-0.64
-0.46
-0.30
-0.21
-0.22
-0.29
-0.34
-0.29
-0.09
0.20
0.44
0.51
0.33
-0.07
-0.52
-0.86
-0.97
-0.82
-0.49
-0.10
0.27
0.55
0.72
0.77
0.70
0.50
0.22
-0.11
-0.39
-0.57
-0.64
-0.60
-0.49
-0.37
-0.28
-0.29
-0.41
-0.67
-0.99
-1.29
-1.46
-1.42
-1.17
-0.77
-0.31
0.12
0.47
0.70
0.77
0.65
0.35
-0.05
-0.43
-0.68
-0.75
-0.68
-0.55
-0.45
-0.41
-0.43
-0.49
-0.55
-0.60
-0.59
-0.46
-0.20
0.17
0.56
0.82
0.90
0.83
0.73
0.73
0.88
1.11
1.26
1.23
0.97
0.59
0.22
-0.04
-0.14
-0.10
0.01
0.11
0.14
0.07
-0.07
-0.25
-0.38
-0.43
-0.39
-0.32
-0.29
-0.33
-0.41
-0.43
-0.30
-0.02
0.35
0.63
0.71
0.54
0.22
-0.10
-0.29
-0.29
-0.14
0.08
0.30
0.51
0.73
0.98
1.20
1.31
1.22
0.92
0.45
-0.02
-0.37
-0.47
-0.34
-0.06
0.21
0.36
0.29
0.03
-0.34
-0.70
-0.92
-0.94
-0.70
-0.26
0.30
0.84
1.24
1.37
1.21
0.82
0.35
-0.04
-0.24
-0.24
-0.14
-0.06
-0.09
-0.27
-0.55
-0.84
-1.07
-1.18
-1.15
-0.95
-0.59
-0.11
0.44
0.96
1.37
1.58
1.55
1.30
0.86
0.30
-0.29
-0.80
-1.09
-1.08
-0.76
-0.24
0.28
0.62
0.66
0.42
0.06
-0.26
-0.42
-0.43
-0.37
-0.34
-0.38
-0.44
-0.44
-0.31
-0.10
0.11
0.21
0.14
-0.05
-0.24
-0.31
-0.18
0.12
0.49
0.81
1.03
1.12
1.12
1.07
0.97
0.78
0.50
0.13
-0.26
-0.59
-0.78
-0.84
-0.80
-0.74
-0.69
-0.66
-0.64
-0.61
-0.56
-0.49
-0.39
-0.26
-0.08
0.13
0.34
0.52
0.60
0.57
0.43
0.21
-0.04
-0.27
-0.44
-0.52
-0.53
-0.50
-0.49
-0.51
-0.60
-0.70
-0.76
-0.73
-0.57
-0.33
-0.07
0.11
0.16
0.03
-0.19
-0.41
-0.49
-0.32
0.09
0.62
1.06
1.19
0.96
0.43
-0.15
-0.55
-0.63
-0.41
-0.04
0.30
0.51
0.55
0.48
0.36
0.23
0.05
-0.18
-0.46
-0.71
-0.85
-0.80
-0.54
-0.13
0.35
0.78
1.06
1.14
1.05
0.85
0.64
0.46
0.34
0.26
0.20
0.16
0.14
0.18
0.30
0.48
0.68
0.84
0.90
0.84
0.66
0.42
0.18
0.01
-0.05
-0.02
0.04
0.09
0.07
-0.04
-0.23
-0.46
-0.70
-0.93
-1.14
-1.30
-1.35
-1.28
-1.07
-0.77
-0.43
-0.11
0.13
0.28
0.37
0.41
0.46
0.50
0.53
0.49
0.34
0.13
-0.10
-0.25
-0.27
-0.20
-0.13
-0.17
-0.34
-0.58
-0.75
-0.73
-0.50
-0.16
0.14
0.26
0.18
-0.02
-0.22
-0.31
-0.25
-0.10
0.09
0.29
0.49
0.69
0.85
0.92
0.85
0.64
0.37
0.13
0.04
0.13
0.33
0.51
0.56
0.42
0.16
-0.14
-0.37
-0.51
-0.53
-0.47
-0.34
-0.18
-0.01
0.10
0.12
0.02
-0.21
-0.48
-0.73
-0.87
-0.83
-0.62
-0.27
0.14
0.52
0.79
0.94
1.00
0.99
0.96
0.87
0.71
0.49
0.24
0.04
-0.04
-0.00
0.13
0.29
0.39
0.41
0.33
0.17
-0.02
-0.19
-0.31
-0.35
-0.35
-0.42
-0.59
-0.86
-1.13
-1.26
-1.14
-0.80
-0.33
0.12
0.45
0.63
0.69
0.62
0.43
0.11
-0.30
-0.70
-0.98
-1.07
-0.96
-0.73
-0.51
-0.39
-0.37
-0.42
-0.47
-0.45
-0.37
-0.25
-0.14
-0.07
-0.03
-0.02
-0.00
0.03
0.08
0.15
0.23
0.33
0.45
0.58
0.70
0.75
0.70
0.55
0.33
0.09
-0.08
-0.16
-0.12
0.01
0.14
0.21
0.17
0.01
-0.20
-0.37
-0.43
-0.36
-0.20
-0.04
0.05
0.04
-0.03
-0.06
-0.00
0.17
0.42
0.66
0.81
0.83
0.70
0.49
0.24
-0.01
-0.24
-0.44
-0.60
-0.68
-0.63
-0.44
-0.15
0.16
0.38
0.42
0.29
0.04
-0.21
-0.38
-0.43
-0.35
-0.18
0.03
0.26
0.47
0.62
0.69
0.68
0.61
0.51
0.44
0.41
0.38
0.33
0.25
0.16
0.11
0.10
0.14
0.20
0.24
0.25
0.20
0.09
-0.10
-0.36
-0.67
-0.94
-1.12
-1.14
-1.01
-0.81
-0.61
-0.50
-0.47
-0.50
-0.50
-0.44
-0.34
-0.23
-0.16
-0.13
-0.11
-0.07
0.03
0.15
0.24
0.26
0.23
0.17
0.15
0.17
0.18
0.11
-0.05
-0.29
-0.50
-0.59
-0.54
-0.39
-0.21
-0.05
0.10
0.25
0.43
0.61
0.75
0.82
0.81
0.76
0.72
0.67
0.60
0.48
0.27
0.01
-0.28
-0.54
-0.71
-0.76
-0.68
-0.51
-0.30
-0.10
0.05
0.15
0.20
0.18
0.09
-0.07
-0.24
-0.33
-0.24
0.06
0.52
0.98
1.31
1.43
1.35
1.16
0.92
0.67
0.39
0.11
-0.13
-0.26
-0.20
0.03
0.32
0.53
0.59
0.49
0.30
0.12
-0.01
-0.11
-0.24
-0.41
-0.60
-0.74
-0.79
-0.77
-0.75
-0.78
-0.86
-0.94
-0.95
-0.86
-0.70
-0.49
-0.26
-0.01
0.26
0.51
0.67
0.66
0.48
0.18
-0.11
-0.30
-0.37
-0.37
-0.37
-0.44
-0.55
-0.63
-0.62
-0.48
-0.23
0.09
0.40
0.64
0.73
0.65
0.40
0.06
-0.27
-0.46
-0.44
-0.24
0.07
0.39
0.63
0.76
0.80
0.78
0.73
0.62
0.44
0.16
-0.20
-0.54
-0.78
-0.82
-0.65
-0.34
0.00
0.27
0.41
0.45
0.46
0.50
0.60
0.73
0.83
0.86
0.83
0.75
0.64
0.49
0.28
0.00
-0.31
-0.59
-0.76
-0.79
-0.68
-0.52
-0.36
-0.24
-0.16
-0.11
-0.10
-0.15
-0.30
-0.54
-0.80
-0.96
-0.96
-0.78
-0.51
-0.26
-0.11
-0.07
-0.07
-0.00
0.16
0.36
0.48
0.39
0.07
-0.42
-0.88
-1.13
-1.05
-0.69
-0.17
0.32
0.65
0.83
0.92
1.01
1.12
1.21
1.21
1.07
0.82
0.55
0.35
0.23
0.18
0.12
-0.04
-0.28
-0.55
-0.73
-0.74
-0.55
-0.25
0.04
0.18
0.08
-0.23
-0.64
-1.02
-1.24
-1.25
-1.05
-0.73
-0.36
-0.02
0.28
0.52
0.71
0.81
0.80
0.67
0.44
0.17
-0.08
-0.28
-0.41
-0.47
-0.46
-0.35
-0.14
0.13
0.39
0.54
0.52
0.35
0.11
-0.11
-0.28
-0.39
-0.46
-0.51
-0.51
-0.44
-0.28
-0.09
0.06
0.11
0.05
-0.05
-0.11
-0.06
0.12
0.39
0.66
0.84
0.86
0.71
0.43
0.10
-0.21
-0.45
-0.58
-0.61
-0.54
-0.41
-0.28
-0.19
-0.23
-0.39
-0.65
-0.92
-1.11
-1.15
-1.06
-0.91
-0.80
-0.77
-0.79
-0.75
-0.61
-0.33
-0.02
0.20
0.25
0.12
-0.09
-0.25
-0.29
-0.19
-0.03
0.10
0.17
0.19
0.20
0.24
0.32
0.41
0.51
0.60
0.70
0.80
0.88
0.91
0.88
0.78
0.67
0.57
0.50
0.47
0.48
0.53
0.60
0.64
0.60
0.45
0.21
-0.03
-0.18
-0.19
-0.09
0.02
0.04
-0.07
-0.30
-0.52
-0.66
-0.64
-0.48
-0.23
0.05
0.31
0.53
0.67
0.73
0.67
0.52
0.29
0.06
-0.12
-0.17
-0.09
0.11
0.36
0.54
0.59
0.46
0.20
-0.09
-0.31
-0.40
-0.36
-0.23
-0.08
0.02
0.08
0.11
0.15
0.19
0.18
0.10
-0.06
-0.27
-0.47
-0.58
-0.60
-0.55
-0.49
-0.48
-0.50
-0.48
-0.34
-0.06
0.31
0.66
0.84
0.82
0.65
0.46
0.36
0.38
0.45
0.43
0.26
-0.05
-0.37
-0.55
-0.49
-0.23
0.12
0.39
0.50
0.45
0.30
0.15
0.02
-0.09
-0.25
-0.49
-0.77
-1.03
-1.18
-1.19
-1.09
-0.98
-0.94
-1.01
-1.13
-1.18
-1.07
-0.77
-0.34
0.12
0.52
0.78
0.87
0.82
0.65
0.40
0.14
-0.08
-0.20
-0.19
-0.03
0.24
0.58
0.95
1.29
1.54
1.63
1.53
1.25
0.86
0.45
0.16
0.03
0.06
0.17
0.27
0.28
0.19
0.03
-0.13
-0.25
-0.35
-0.45
-0.59
-0.76
-0.88
-0.86
-0.64
-0.24
0.24
0.64
0.83
0.77
0.53
0.26
0.08
0.06
0.17
0.33
0.41
0.36
0.20
-0.03
-0.22
-0.30
-0.26
-0.11
0.08
0.25
0.35
0.34
0.26
0.13
-0.01
-0.16
-0.32
-0.50
-0.68
-0.82
-0.87
-0.82
-0.70
-0.55
-0.44
-0.37
-0.30
-0.18
0.01
0.25
0.46
0.54
0.45
0.21
-0.06
-0.25
-0.28
-0.19
-0.07
-0.02
-0.09
-0.22
-0.32
-0.33
-0.23
-0.14
-0.16
-0.33
-0.58
-0.82
-0.94
-0.92
-0.86
-0.86
-0.96
-1.08
-1.09
-0.87
-0.41
0.20
0.77
1.14
1.24
1.12
0.90
0.72
0.65
0.70
0.81
0.94
1.02
1.06
1.04
0.99
0.91
0.83
0.77
0.73
0.69
0.61
0.43
0.11
-0.32
-0.77
-1.13
-1.30
-1.25
-1.02
-0.67
-0.31
-0.00
0.20
0.27
0.21
0.04
-0.17
-0.34
-0.40
-0.33
-0.14
0.08
0.27
0.40
0.50
0.62
0.76
0.91
0.98
0.95
0.81
0.64
0.49
0.40
0.34
0.26
0.12
-0.08
-0.28
-0.44
-0.54
-0.58
-0.58
-0.56
-0.56
-0.58
-0.68
-0.89
-1.17
-1.45
-1.61
-1.57
-1.31
-0.92
-0.54
-0.29
-0.17
-0.15
-0.11
-0.01
0.14
0.25
0.27
0.17
0.03
-0.07
-0.06
0.05
0.20
0.30
0.30
0.26
0.27
0.41
0.65
0.90
1.02
0.95
0.71
0.42
0.25
0.28
0.52
0.87
1.20
1.38
1.34
1.09
0.69
0.29
0.03
0.01
0.24
0.59
0.88
0.91
0.64
0.13
-0.44
-0.89
-1.09
-1.07
-0.92
-0.73
-0.60
-0.58
-0.68
-0.87
-1.11
-1.31
-1.38
-1.28
-0.99
-0.58
-0.13
0.25
0.47
0.52
0.46
0.36
0.32
0.35
0.43
0.52
0.57
0.57
0.53
0.50
0.51
0.54
0.56
0.51
0.39
0.22
0.03
-0.14
-0.27
-0.38
-0.45
-0.52
-0.59
-0.67
-0.72
-0.71
-0.63
-0.47
-0.28
-0.10
0.02
0.06
0.05
0.02
-0.00
0.01
0.08
0.21
0.41
0.64
0.84
0.94
0.91
0.76
0.55
0.34
0.17
0.04
-0.07
-0.16
-0.20
-0.19
-0.12
-0.02
0.09
0.22
0.36
0.49
0.53
0.39
0.05
-0.42
-0.83
-1.00
-0.81
-0.29
0.40
1.01
1.35
1.31
0.90
0.24
-0.46
-1.01
-1.25
-1.16
-0.82
-0.39
-0.06
0.08
0.00
-0.21
-0.45
-0.64
-0.75
-0.77
-0.69
-0.54
-0.32
-0.07
0.16
0.31
0.33
0.24
0.08
-0.06
-0.14
-0.15
-0.07
0.06
0.21
0.37
0.49
0.52
0.40
0.16
-0.14
-0.35
-0.35
-0.11
0.30
0.71
0.96
0.97
0.76
0.46
0.16
-0.06
-0.22
-0.31
-0.37
-0.36
-0.29
-0.16
0.02
0.20
0.36
0.50
0.59
0.63
0.57
0.41
0.16
-0.12
-0.38
-0.59
-0.69
-0.64
-0.40
0.04
0.59
1.11
1.42
1.38
0.99
0.36
-0.31
-0.83
-1.10
-1.11
-0.96
-0.75
-0.59
-0.52
-0.55
-0.65
-0.78
-0.89
-0.94
-0.93
-0.86
-0.77
-0.65
-0.47
-0.21
0.11
0.43
0.66
0.70
0.55
0.27
-0.04
-0.27
-0.39
-0.41
-0.36
-0.25
-0.07
0.15
0.36
0.47
0.42
0.18
-0.15
-0.44
-0.57
-0.51
-0.32
-0.13
-0.03
-0.03
-0.08
-0.10
-0.04
0.08
0.17
0.17
0.06
-0.14
-0.36
-0.56
-0.71
-0.82
-0.86
-0.82
-0.65
-0.41
-0.15
0.01
0.01
-0.13
-0.33
-0.46
-0.44
-0.26
0.03
0.32
0.56
0.68
0.68
0.56
0.35
0.09
-0.11
-0.16
0.02
0.37
0.77
1.06
1.13
0.98
0.69
0.40
0.22
0.16
0.23
0.36
0.52
0.73
0.97
1.22
1.41
1.48
1.37
1.07
0.61
0.07
-0.44
-0.85
-1.12
-1.23
-1.24
-1.19
-1.11
-0.99
-0.81
-0.55
-0.24
0.05
0.20
0.17
-0.03
-0.32
-0.53
-0.55
-0.33
0.05
0.42
0.63
0.61
0.40
0.16
0.06
0.19
0.50
0.86
1.10
1.12
0.91
0.56
0.20
-0.08
-0.26
-0.36
-0.42
-0.46
-0.49
-0.53
-0.62
-0.81
-1.10
-1.45
-1.75
-1.88
-1.81
-1.58
-1.36
-1.31
-1.51
-1.92
-2.37
-2.70
-2.81
-2.76
-2.72
-2.90
-3.43
-4.30
-5.40
-6.51
-7.49
-8.26
-8.87
-9.46
-10.19
-11.19
-12.51
-14.06
-15.66
-17.05
-18.05
-18.60
-18.93
-19.42
-20.52
-22.49
-25.28
-28.49
-31.53
-33.95
-35.55
-36.57
-37.48
-38.78
-40.88
-44.04
-48.38
-53.78
-59.58
-64.44
-66.50
-64.02
-56.19
-43.62
-28.19
-12.29
2.29
15.00
26.57
38.07
50.07
62.03
72.52
80.04
83.84
84.26
82.58
80.32
78.51
77.44
76.72
75.68
74.02
71.95
70.20
69.51
70.27
72.22
74.59
76.65
78.20
79.75
82.08
85.44
88.95
90.71
88.64
81.69
70.66
58.03
47.02
40.20
38.60
41.59
47.64
54.98
62.20
68.07
71.40
71.10
66.58
58.48
48.92
41.16
38.36
41.97
50.51
59.39
62.40
54.11
32.28
-0.91
-39.56
-76.34
-105.20
-123.27
-131.11
-131.45
-127.37
-120.98
-113.19
-104.34
-95.03
-86.31
-79.38
-74.94
-72.73
-71.66
-70.25
-67.40
-62.74
-56.80
-50.62
-45.29
-41.45
-39.09
-37.58
-36.01
-33.65
-30.24
-26.05
-21.78
-18.12
-15.53
-14.06
-13.39
-13.07
-12.71
-12.12
-11.30
-10.37
-9.45
-8.62
-7.94
-7.42
-7.03
-6.76
-6.56
-6.39
-6.24
-6.12
-6.09
-6.20
-6.48
-6.91
-7.42
-7.90
-8.23
-8.36
-8.32
-8.19
-8.11
-8.19
-8.45
-8.82
-9.13
-9.27
-9.18
-8.93
-8.65
-8.52
-8.62
-8.99
-9.56
-10.18
-10.68
-10.89
-10.64
-9.79
-8.26
-6.03
-3.09
0.48
4.57
8.98
13.42
17.51
20.82
22.93
23.54
22.53
19.99
16.24
11.65
6.58
1.28
-4.14
-9.62
-15.06
-20.21
-24.71
-28.24
-30.69
-32.35
-33.86
-35.96
-39.18
-43.49
-48.31
-52.72
-55.89
-57.53
-58.05
-58.35
-59.39
-61.70
-65.04
-68.59
-71.38
-72.82
-72.98
-72.43
-71.87
-71.67
-71.88
-72.45
-73.51
-75.04
-76.18
-74.63
-67.02
-50.34
-23.92
9.39
43.68
72.21
90.22
96.85
94.92
89.00
82.88
78.00
73.70
68.74
62.92
57.63
54.99
56.36
61.31
67.61
72.30
73.16
69.71
63.25
56.01
49.96
45.93
43.49
41.48
38.74
34.76
29.84
24.81
20.53
17.46
15.58
14.40
13.27
11.71
9.54
6.96
4.32
2.04
0.39
-0.59
-1.03
-1.19
-1.33
-1.69
-2.36
-3.32
-4.43
-5.52
-6.44
-7.04
-7.13
-6.52
-5.00
-2.52
0.79
4.50
8.01
10.76
12.41
12.91
12.52
11.59
10.49
9.46
8.65
8.09
7.75
7.59
7.48
7.32
7.02
6.53
5.87
5.10
4.31
3.60
3.06
2.74
2.63
2.65
2.70
2.63
2.35
1.87
1.26
0.64
0.13
-0.17
-0.27
-0.21
-0.09
-0.01
-0.03
-0.11
-0.19
-0.20
-0.08
0.14
0.42
0.64
0.75
0.72
0.58
0.39
0.20
0.05
-0.06
-0.12
-0.15
-0.16
-0.16
-0.13
-0.10
-0.08
-0.09
-0.14
-0.20
-0.22
-0.18
-0.09
0.02
0.05
-0.03
-0.25
-0.55
-0.85
-1.08
-1.21
-1.21
-1.07
-0.77
-0.33
0.16
0.55
0.70
0.55
0.17
-0.26
-0.53
-0.49
-0.15
0.38
0.91
1.28
1.44
1.40
1.24
1.01
0.75
0.46
0.15
-0.15
-0.37
-0.47
-0.42
-0.24
0.00
0.21
0.30
0.26
0.10
-0.08
-0.22
-0.25
-0.16
0.00
0.17
0.30
0.38
0.43
0.50
0.62
0.78
0.94
1.05
1.08
1.02
0.96
1.00
1.24
1.67
2.19
2.62
2.79
2.62
2.19
1.66
1.19
0.87
0.68
0.52
0.28
-0.05
-0.42
-0.74
-0.95
-1.06
-1.12
-1.21
-1.36
-1.54
-1.70
-1.79
-1.77
-1.64
-1.46
-1.28
-1.16
-1.12
-1.16
-1.22
-1.23
-1.14
-0.93
-0.64
-0.34
-0.08
0.08
0.16
0.15
0.06
-0.09
-0.27
-0.45
-0.64
-0.82
-0.99
-1.15
-1.24
-1.21
-0.98
-0.59
-0.10
0.33
0.56
0.54
0.31
-0.00
-0.26
-0.36
-0.31
-0.15
0.01
0.14
0.19
0.20
0.20
0.22
0.30
0.44
0.60
0.76
0.88
0.92
0.88
0.75
0.58
0.39
0.23
0.15
0.15
0.23
0.34
0.45
0.51
0.51
0.47
0.41
0.35
0.34
0.40
0.53
0.72
0.96
1.20
1.39
1.52
1.55
1.52
1.41
1.22
0.93
0.51
-0.04
-0.67
-1.27
-1.71
-1.90
-1.84
-1.62
-1.39
-1.30
-1.42
-1.70
-1.99
-2.14
-2.06
-1.76
-1.35
-0.94
-0.64
-0.49
-0.45
-0.47
-0.49
-0.44
-0.30
-0.10
0.13
0.33
0.48
0.57
0.62
0.64
0.61
0.51
0.34
0.12
-0.10
-0.27
-0.39
-0.48
-0.57
-0.66
-0.71
-0.69
-0.56
-0.36
-0.17
-0.06
-0.05
-0.06
-0.02
0.16
0.46
0.79
1.01
1.04
0.87
0.60
0.36
0.22
0.17
0.14
0.03
-0.16
-0.41
-0.66
-0.86
-1.04
-1.19
-1.28
-1.23
-0.95
-0.43
0.21
0.77
1.04
0.92
0.49
-0.05
-0.49
-0.67
-0.57
-0.29
0.05
0.36
0.57
0.70
0.72
0.65
0.44
0.13
-0.24
-0.57
-0.78
-0.79
-0.58
-0.21
0.22
0.59
0.79
0.77
0.55
0.26
0.02
-0.02
0.19
0.63
1.21
1.78
2.21
2.39
2.30
1.98
1.56
1.16
0.92
0.88
1.01
1.23
1.44
1.61
1.74
1.87
2.02
2.15
2.17
2.04
1.75
1.35
0.90
0.43
-0.11
-0.75
-1.49
-2.23
-2.82
-3.09
-2.99
-2.60
-2.10
-1.68
-1.45
-1.40
-1.42
-1.39
-1.26
-1.06
-0.91
-0.88
-0.96
-1.08
-1.15
-1.16
-1.12
-1.08
-1.07
-1.07
-1.02
-0.87
-0.64
-0.40
-0.23
-0.19
-0.23
-0.27
-0.24
-0.13
0.02
0.16
0.27
0.36
0.47
0.63
0.83
1.07
1.31
1.52
1.66
1.70
1.62
1.43
1.15
0.80
0.44
0.13
-0.07
-0.10
-0.01
0.12
0.18
0.08
-0.18
-0.50
-0.74
-0.78
-0.66
-0.47
-0.37
-0.43
-0.62
-0.82
-0.89
-0.77
-0.48
-0.10
0.28
0.57
0.75
0.77
0.62
0.36
0.05
-0.22
-0.35
-0.30
-0.10
0.17
0.41
0.53
0.48
0.27
-0.03
-0.35
-0.62
-0.80
-0.91
-0.96
-0.98
-0.96
-0.88
-0.76
-0.63
-0.54
-0.57
-0.71
-0.90
-1.02
-0.96
-0.69
-0.27
0.17
0.45
0.49
0.29
-0.05
-0.36
-0.48
-0.36
-0.04
0.34
0.62
0.68
0.51
0.19
-0.13
-0.28
-0.19
0.15
0.61
1.01
1.21
1.16
0.92
0.65
0.54
0.66
0.96
1.33
1.59
1.66
1.54
1.31
1.04
0.77
0.49
0.17
-0.16
-0.48
-0.71
-0.81
-0.81
-0.76
-0.69
-0.60
-0.44
-0.16
0.22
0.61
0.88
0.93
0.77
0.53
0.38
0.46
0.77
1.21
1.60
1.83
1.90
1.90
1.96
2.17
2.54
3.00
3.49
3.90
4.17
4.23
3.99
3.41
2.49
1.30
0.01
-1.22
-2.26
-3.03
-3.56
-3.88
-4.06
-4.13
-4.08
-3.90
-3.65
-3.37
-3.16
-3.07
-3.09
-3.15
-3.14
-2.99
-2.73
-2.42
-2.15
-1.94
-1.78
-1.58
-1.29
-0.92
-0.56
-0.31
-0.23
-0.32
-0.46
-0.55
-0.54
-0.44
-0.33
-0.29
-0.32
-0.38
-0.40
-0.34
-0.26
-0.24
-0.36
-0.59
-0.78
-0.81
-0.61
-0.26
0.04
0.12
-0.07
-0.42
-0.71
-0.75
-0.46
0.06
0.62
1.02
1.16
1.07
0.86
0.64
0.49
0.45
0.45
0.42
0.31
0.11
-0.13
-0.34
-0.45
-0.45
-0.35
-0.22
-0.12
-0.04
0.03
0.09
0.16
0.22
0.26
0.30
0.35
0.39
0.41
0.36
0.23
0.05
-0.10
-0.18
-0.18
-0.13
-0.09
-0.06
-0.03
0.07
0.23
0.39
0.46
0.39
0.20
-0.01
-0.09
0.00
0.23
0.49
0.62
0.55
0.34
0.10
-0.06
-0.06
0.10
0.33
0.58
0.76
0.82
0.72
0.45
0.06
-0.34
-0.62
-0.65
-0.42
-0.05
0.25
0.31
0.04
-0.47
-1.08
-1.58
-1.86
-1.89
-1.69
-1.31
-0.78
-0.18
0.39
0.81
0.99
0.89
0.63
0.36
0.24
0.32
0.55
0.80
0.95
0.95
0.83
0.69
0.60
0.58
0.58
0.53
0.39
0.19
0.01
-0.11
-0.17
-0.21
-0.32
-0.53
-0.83
-1.11
-1.29
-1.28
-1.10
-0.81
-0.53
-0.35
-0.28
-0.29
-0.29
-0.19
0.02
0.30
0.55
0.69
0.69
0.58
0.44
0.32
0.23
0.15
0.02
-0.17
-0.39
-0.59
-0.67
-0.62
-0.44
-0.20
-0.01
0.06
-0.02
-0.22
-0.45
-0.61
-0.66
-0.62
-0.56
-0.50
-0.43
-0.28
-0.00
0.39
0.78
1.03
1.00
0.70
0.25
-0.14
-0.32
-0.23
0.05
0.35
0.54
0.56
0.46
0.30
0.18
0.09
0.03
-0.02
-0.04
-0.01
0.10
0.29
0.50
0.62
0.62
0.45
0.20
-0.06
-0.27
-0.40
-0.49
-0.56
-0.61
-0.62
-0.55
-0.38
-0.17
0.02
0.12
0.09
-0.05
-0.26
-0.49
-0.67
-0.78
-0.76
-0.60
-0.31
0.06
0.40
0.62
0.68
0.56
0.34
0.08
-0.16
-0.33
-0.40
-0.30
-0.04
0.35
0.77
1.07
1.16
1.01
0.68
0.28
-0.07
-0.31
-0.45
-0.50
-0.50
-0.45
-0.34
-0.17
0.00
0.14
0.21
0.22
0.18
0.16
0.14
0.13
0.11
0.08
0.06
0.11
0.22
0.37
0.50
0.53
0.47
0.36
0.31
0.38
0.56
0.76
0.83
0.70
0.37
-0.05
-0.40
-0.58
-0.58
-0.47
-0.37
-0.32
-0.32
-0.31
-0.25
-0.17
-0.10
-0.07
-0.07
-0.07
-0.03
0.06
0.17
0.25
0.29
0.30
0.35
0.48
0.67
0.87
1.04
1.13
1.13
1.05
0.87
0.60
0.23
-0.19
-0.62
-1.00
-1.28
-1.42
-1.41
-1.27
-1.01
-0.68
-0.35
-0.07
0.10
0.13
0.04
-0.17
-0.46
-0.78
-1.05
-1.17
-1.06
-0.73
-0.28
0.15
0.42
0.48
0.39
0.24
0.12
0.06
0.01
-0.06
-0.17
-0.26
-0.28
-0.15
0.11
0.41
0.66
0.74
0.66
0.48
0.32
0.26
0.32
0.44
0.50
0.44
0.24
-0.02
-0.26
-0.39
-0.39
-0.27
-0.10
0.05
0.12
0.06
-0.12
-0.40
-0.72
-0.97
-1.07
-1.00
-0.75
-0.43
-0.13
0.04
0.08
0.03
-0.00
0.08
0.30
0.62
0.91
1.06
1.04
0.89
0.72
0.62
0.61
0.66
0.68
0.63
0.51
0.39
0.31
0.27
0.22
0.08
-0.17
-0.48
-0.73
-0.78
-0.62
-0.29
0.07
0.32
0.41
0.32
0.11
-0.19
-0.50
-0.76
-0.90
-0.84
-0.56
-0.11
0.40
0.84
1.11
1.17
1.07
0.91
0.77
0.72
0.74
0.80
0.84
0.79
0.65
0.47
0.35
0.37
0.53
0.77
0.98
1.06
1.01
0.88
0.76
0.72
0.79
0.93
1.07
1.19
1.24
1.20
1.05
0.72
0.22
-0.41
-1.06
-1.57
-1.86
-1.91
-1.82
-1.71
-1.69
-1.79
-1.95
-2.11
-2.17
-2.11
-1.89
-1.58
-1.22
-0.87
-0.59
-0.41
-0.34
-0.39
-0.53
-0.77
-1.03
-1.21
-1.24
-1.04
-0.64
-0.18
0.18
0.30
0.18
-0.11
-0.41
-0.60
-0.64
-0.53
-0.33
-0.10
0.13
0.33
0.51
0.66
0.76
0.82
0.85
0.86
0.88
0.91
0.92
0.87
0.71
0.46
0.18
-0.01
-0.05
0.07
0.27
0.39
0.32
0.04
-0.36
-0.70
-0.85
-0.78
-0.53
-0.21
0.05
0.22
0.28
0.28
0.23
0.16
0.08
0.02
0.03
0.13
0.31
0.52
0.68
0.74
0.67
0.54
0.40
0.32
0.29
0.26
0.18
-0.00
-0.26
-0.55
-0.78
-0.92
-0.92
-0.81
-0.61
-0.39
-0.19
-0.05
0.04
0.08
0.11
0.12
0.11
0.07
-0.02
-0.13
-0.22
-0.25
-0.19
-0.06
0.10
0.22
0.22
0.09
-0.13
-0.33
-0.42
-0.37
-0.23
-0.10
-0.07
-0.15
-0.27
-0.29
-0.16
0.10
0.36
0.52
0.50
0.37
0.22
0.13
0.10
0.06
-0.09
-0.37
-0.70
-0.96
-1.06
-0.96
-0.73
-0.47
-0.26
-0.15
-0.12
-0.15
-0.23
-0.36
-0.51
-0.66
-0.75
-0.73
-0.60
-0.42
-0.25
-0.17
-0.19
-0.28
-0.38
-0.41
-0.32
-0.12
0.16
0.46
0.72
0.90
0.99
1.00
0.96
0.90
0.85
0.80
0.72
0.60
0.40
0.14
-0.15
-0.40
-0.54
-0.52
-0.34
-0.04
0.26
0.47
0.52
0.42
0.23
0.04
-0.09
-0.14
-0.13
-0.10
-0.02
0.10
0.28
0.51
0.71
0.81
0.77
0.58
0.30
-0.03
-0.34
-0.63
-0.89
-1.10
-1.21
-1.14
-0.87
-0.45
0.03
0.44
0.67
0.74
0.71
0.66
0.64
0.67
0.73
0.80
0.88
0.94
0.96
0.89
0.69
0.40
0.08
-0.17
-0.30
-0.34
-0.39
-0.54
-0.81
-1.11
-1.29
-1.25
-1.00
-0.64
-0.32
-0.13
-0.03
0.05
0.20
0.45
0.72
0.94
1.01
0.93
0.76
0.55
0.38
0.25
0.18
0.15
0.14
0.13
0.10
0.07
0.05
0.07
0.11
0.13
0.10
-0.01
-0.16
-0.28
-0.30
-0.21
-0.09
-0.03
-0.11
-0.33
-0.63
-0.90
-1.09
-1.18
-1.18
-1.14
-1.06
-0.95
-0.77
-0.53
-0.24
0.06
0.31
0.48
0.54
0.48
0.32
0.11
-0.06
-0.12
-0.04
0.14
0.33
0.41
0.33
0.11
-0.12
-0.25
-0.22
-0.08
0.08
0.13
0.04
-0.13
-0.29
-0.33
-0.21
0.05
0.39
0.74
1.03
1.21
1.24
1.11
0.86
0.56
0.32
0.21
0.22
0.29
0.32
0.28
0.16
0.06
0.03
0.10
0.22
0.30
0.27
0.16
0.04
0.01
0.10
0.24
0.30
0.14
-0.24
-0.75
-1.18
-1.35
-1.19
-0.79
-0.30
0.09
0.29
0.28
0.17
0.03
-0.07
-0.14
-0.20
-0.28
-0.36
-0.42
-0.46
-0.46
-0.44
-0.41
-0.39
-0.36
-0.32
-0.24
-0.15
-0.07
-0.02
-0.04
-0.12
-0.25
-0.39
-0.48
-0.50
-0.44
-0.33
-0.19
-0.08
-0.02
-0.03
-0.08
-0.14
-0.14
-0.06
0.12
0.37
0.62
0.81
0.92
0.92
0.79
0.50
0.06
-0.49
-0.99
-1.25
-1.13
-0.61
0.13
0.84
1.29
1.36
1.11
0.70
0.25
-0.13
-0.42
-0.62
-0.71
-0.66
-0.46
-0.17
0.14
0.40
0.57
0.64
0.60
0.46
0.21
-0.10
-0.36
-0.45
-0.32
0.00
0.37
0.63
0.71
0.63
0.50
0.43
0.45
0.52
0.56
0.53
0.42
0.28
0.18
0.13
0.15
0.22
0.31
0.40
0.48
0.57
0.69
0.83
0.94
0.95
0.80
0.48
0.07
-0.30
-0.49
-0.45
-0.24
-0.00
0.09
-0.06
-0.40
-0.81
-1.15
-1.33
-1.36
-1.31
-1.23
-1.15
-1.02
-0.84
-0.58
-0.32
-0.12
-0.03
-0.00
0.03
0.12
0.28
0.46
0.57
0.54
0.38
0.14
-0.10
-0.26
-0.33
-0.30
-0.20
-0.07
0.07
0.19
0.28
0.30
0.25
0.14
-0.00
-0.12
-0.16
-0.11
-0.02
0.01
-0.10
-0.35
-0.66
-0.88
-0.89
-0.64
-0.24
0.17
0.46
0.54
0.45
0.27
0.09
-0.03
-0.07
-0.05
-0.02
-0.01
-0.05
-0.13
-0.20
-0.19
-0.04
0.21
0.49
0.68
0.71
0.58
0.36
0.14
0.01
-0.01
0.07
0.19
0.30
0.37
0.36
0.29
0.16
0.01
-0.13
-0.21
-0.25
-0.24
-0.18
-0.09
0.05
0.20
0.33
0.41
0.46
0.54
0.70
0.97
1.26
1.46
1.41
1.10
0.61
0.11
-0.23
-0.35
-0.30
-0.22
-0.21
-0.31
-0.49
-0.70
-0.88
-0.99
-1.01
-0.90
-0.66
-0.31
0.08
0.42
0.63
0.68
0.60
0.51
0.48
0.56
0.72
0.86
0.92
0.84
0.65
0.39
0.10
-0.21
-0.54
-0.87
-1.16
-1.33
-1.31
-1.14
-0.87
-0.62
-0.47
-0.45
-0.50
-0.57
-0.60
-0.57
-0.52
-0.46
-0.41
-0.39
-0.37
-0.31
-0.22
-0.09
0.03
0.09
0.08
0.01
-0.04
-0.02
0.10
0.29
0.49
0.61
0.61
0.45
0.15
-0.26
-0.71
-1.07
-1.25
-1.15
-0.79
-0.29
0.20
0.51
0.56
0.40
0.16
-0.01
-0.01
0.17
0.47
0.77
0.97
1.05
1.02
0.95
0.87
0.82
0.78
0.75
0.69
0.60
0.47
0.29
0.09
-0.12
-0.30
-0.40
-0.41
-0.33
-0.24
-0.18
-0.19
-0.27
-0.37
-0.47
-0.53
-0.58
-0.63
-0.70
-0.74
-0.72
-0.55
-0.23
0.20
0.63
0.96
1.10
1.03
0.79
0.46
0.17
0.03
0.08
0.30
0.56
0.74
0.74
0.51
0.10
-0.40
-0.88
-1.27
-1.46
-1.44
-1.20
-0.80
-0.34
0.04
0.26
0.30
0.21
0.08
-0.07
-0.23
-0.42
-0.64
-0.81
-0.82
-0.60
-0.15
0.38
0.78
0.88
0.62
0.08
-0.52
-0.98
-1.13
-0.96
-0.59
-0.16
0.17
0.32
0.31
0.24
0.21
0.28
0.42
0.56
0.62
0.57
0.39
0.15
-0.10
-0.29
-0.36
-0.31
-0.14
0.07
0.26
0.38
0.42
0.42
0.43
0.46
0.48
0.43
0.27
0.03
-0.20
-0.31
-0.23
0.01
0.33
0.60
0.72
0.66
0.47
0.23
0.00
-0.16
-0.23
-0.23
-0.16
-0.04
0.08
0.19
0.21
0.13
-0.05
-0.29
-0.50
-0.60
-0.52
-0.24
0.18
0.63
0.97
1.11
0.99
0.65
0.18
-0.32
-0.74
-1.04
-1.17
-1.09
-0.83
-0.42
-0.01
0.26
0.26
-0.04
-0.52
-0.97
-1.21
-1.14
-0.81
-0.37
0.04
0.31
0.42
0.43
0.39
0.34
0.28
0.20
0.09
0.01
-0.01
0.07
0.26
0.48
0.64
0.68
0.55
0.27
-0.11
-0.55
-0.99
-1.39
-1.73
-1.94
-1.96
-1.77
-1.39
-0.89
-0.41
-0.07
0.03
-0.14
-0.54
-1.05
-1.54
-1.87
-1.98
-1.89
-1.70
-1.54
-1.52
-1.66
-1.91
-2.20
-2.46
-2.66
-2.81
-2.93
-3.05
-3.16
-3.25
-3.31
-3.28
-3.16
-2.95
-2.71
-2.52
-2.44
-2.46
-2.44
-2.20
-1.61
-0.70
0.36
1.30
1.96
2.36
2.72
3.40
4.67
6.71
9.48
12.83
16.48
20.16
23.55
26.49
28.94
31.14
33.49
36.36
39.86
43.70
47.24
49.79
51.00
51.12
51.05
51.95
54.79
59.78
66.18
72.52
77.12
78.91
77.94
75.49
73.58
74.35
79.27
88.57
100.98
113.66
122.46
122.71
110.51
84.21
45.51
-0.57
-46.98
-86.82
-115.44
-131.50
-136.65
-134.14
-127.32
-118.60
-109.30
-100.08
-91.37
-83.62
-77.22
-72.29
-68.61
-65.64
-62.78
-59.52
-55.66
-51.35
-47.04
-43.30
-40.49
-38.60
-37.15
-35.41
-32.82
-29.24
-25.10
-21.18
-18.22
-16.63
-16.28
-16.65
-17.07
-17.04
-16.37
-15.21
-13.89
-12.77
-12.14
-12.11
-12.68
-13.74
-15.11
-16.56
-17.87
-18.94
-19.81
-20.74
-22.12
-24.31
-27.40
-31.09
-34.74
-37.62
-39.27
-39.73
-39.60
-39.76
-41.00
-43.64
-47.43
-51.69
-55.63
-58.70
-60.73
-61.85
-62.46
-63.03
-64.05
-66.10
-69.60
-74.40
-79.25
-81.61
-78.20
-66.42
-45.71
-18.40
10.82
36.63
55.00
64.55
66.54
63.58
58.18
51.75
44.56
36.42
27.43
18.25
9.76
2.44
-3.81
-9.62
-15.75
-22.64
-30.31
-38.39
-46.46
-54.10
-60.95
-66.63
-70.82
-73.23
-73.36
-70.17
-61.92
-46.42
-22.04
11.18
50.74
92.00
129.56
159.28
179.65
192.10
199.78
205.89
212.23
218.84
224.63
228.54
230.35
230.88
231.74
234.39
239.25
245.02
248.70
246.36
234.45
210.85
175.48
130.08
77.60
21.75
-33.36
-83.34
-123.97
-152.02
-166.21
-167.78
-160.16
-147.80
-134.70
-123.40
-114.70
-108.23
-103.23
-98.98
-95.00
-90.84
-86.14
-80.63
-74.40
-67.85
-61.56
-56.10
-51.76
-48.44
-45.73
-43.10
-40.10
-36.51
-32.44
-28.23
-24.34
-21.15
-18.77
-17.05
-15.61
-14.09
-12.25
-10.10
-7.88
-5.91
-4.44
-3.55
-3.12
-2.88
-2.55
-1.93
-1.03
0.00
0.91
1.50
1.70
1.59
1.34
1.10
0.94
0.84
0.75
0.64
0.51
0.42
0.40
0.47
0.66
0.95
1.36
1.86
2.38
2.82
3.14
3.31
3.41
3.58
3.94
4.51
5.20
5.78
5.94
5.46
4.29
2.61
0.85
-0.47
-0.89
-0.24
1.35
3.42
5.41
6.83
7.47
7.51
7.40
7.77
9.08
11.45
14.55
17.73
20.26
21.68
22.04
21.93
22.24
23.76
26.82
31.03
35.47
39.07
41.11
41.56
41.10
40.79
41.73
44.73
50.25
58.22
67.70
76.40
80.77
76.97
62.47
37.74
6.72
-24.31
-49.10
-63.90
-68.61
-66.21
-60.73
-55.30
-51.14
-47.97
-45.13
-42.57
-40.97
-41.10
-43.06
-45.99
-48.39
-48.84
-46.71
-42.35
-37.02
-32.15
-28.83
-27.34
-27.13
-27.15
-26.39
-24.36
-21.29
-17.93
-15.16
-13.54
-13.07
-13.24
-13.29
-12.59
-10.98
-8.71
-6.30
-4.22
-2.67
-1.57
-0.65
0.32
1.35
2.25
2.74
2.59
1.79
0.54
-0.91
-2.29
-3.48
-4.46
-5.26
-5.90
-6.43
-6.88
-7.32
-7.81
-8.39
-9.05
-9.76
-10.59
-11.65
-13.11
-14.99
-17.13
-19.12
-20.43
-20.63
-19.68
-17.97
-16.27
-15.44
-16.05
-18.17
-21.29
-24.65
-27.58
-29.91
-32.08
-34.85
-38.90
-44.38
-50.74
-56.99
-62.20
-65.94
-68.48
-70.70
-73.69
-78.44
-85.57
-95.23
-106.87
-118.88
-128.51
-132.24
-126.91
-111.08
-85.95
-55.30
-24.22
2.66
22.73
35.99
44.38
50.58
56.76
64.03
72.48
81.63
90.80
99.26
106.24
110.98
112.84
111.56
107.31
100.76
93.01
85.24
78.47
73.26
69.55
66.76
63.99
60.49
55.91
50.45
44.74
39.53
35.35
32.31
30.09
28.18
26.06
23.45
20.35
17.01
13.77
10.93
8.67
7.03
5.86
4.93
4.01
2.95
1.72
0.45
-0.69
-1.55
-2.06
-2.25
-2.21
-2.03
-1.77
-1.44
-1.06
-0.61
-0.12
0.39
0.88
1.34
1.77
2.18
2.55
2.90
3.22
3.52
3.81
4.12
4.48
4.98
5.70
6.73
8.13
9.84
11.76
13.70
15.51
17.11
18.48
19.68
20.75
21.68
22.46
23.07
23.58
24.07
24.59
25.09
25.41
25.38
24.91
24.05
22.86
21.32
19.32
16.71
13.51
10.05
6.98
5.03
4.72
6.15
9.05
12.96
17.51
22.40
27.22
