1660938706.00
64.000000
-0.00
-0.00
-0.00
-0.00
-0.00
-0.00
-0.00
-0.00
-0.00
-0.00
0.00
0.01
0.01
-0.00
-0.03
-0.05
-0.05
0.00
0.13
0.36
0.66
1.01
1.37
1.72
2.06
2.40
2.79
3.25
3.81
4.44
5.10
5.73
6.32
6.90
7.52
8.26
9.15
10.28
11.52
12.76
13.87
14.84
15.73
16.74
18.09
19.92
22.43
25.39
28.51
31.50
34.23
36.83
39.65
43.16
47.64
53.42
60.07
67.04
73.77
80.01
85.95
92.21
99.53
108.35
119.06
130.97
143.16
154.79
165.51
175.64
186.11
198.33
210.86
225.60
242.77
262.20
282.71
301.75
315.52
319.89
311.66
289.72
255.87
213.28
165.82
116.71
67.97
20.54
-25.07
-68.38
-108.85
-146.03
-180.53
-213.65
-247.10
-282.15
-318.72
-354.84
-386.73
-409.94
-420.71
-417.60
-402.05
-377.86
-349.65
-321.21
-294.50
-269.70
-246.16
-223.27
-201.19
-180.62
-162.21
-146.02
-131.44
-117.56
-103.63
-89.49
-75.52
-62.51
-51.19
-41.84
-34.25
-27.73
-21.54
-15.14
-8.46
-1.87
4.04
8.78
12.22
14.61
16.44
18.21
20.17
22.25
24.19
25.67
26.48
26.65
26.40
25.99
25.66
25.49
25.41
25.31
25.04
24.53
23.83
23.01
22.16
21.30
20.43
19.54
18.64
17.82
17.17
16.76
16.53
16.40
16.24
16.00
15.68
15.36
15.08
14.82
14.53
14.13
13.60
12.97
12.32
11.77
11.39
11.23
11.27
11.41
11.54
11.53
11.27
10.76
10.07
9.34
8.73
8.36
8.23
8.26
8.32
8.30
8.16
7.90
7.59
7.29
7.02
6.73
6.38
5.92
5.40
4.86
4.39
4.04
3.80
3.61
3.39
3.09
2.70
2.29
1.93
1.64
1.40
1.11
0.68
0.07
-0.69
-1.53
-2.33
-3.03
-3.65
-4.24
-4.85
-5.47
-6.02
-6.42
-6.65
-6.76
-6.91
-7.21
-7.68
-8.24
-8.72
-9.01
-9.03
-8.85
-8.56
-8.25
-7.93
-7.61
-7.26
-6.89
-6.51
-6.11
-5.65
-5.09
-4.44
-3.75
-3.09
-2.56
-2.14
-1.78
-1.41
-1.00
-0.57
-0.20
0.06
0.22
0.37
0.57
0.90
1.34
1.84
2.35
2.83
3.25
3.62
3.91
4.08
4.13
4.06
3.93
3.81
3.74
3.71
3.72
3.73
3.77
3.87
4.02
4.20
4.32
4.32
4.16
3.90
3.61
3.40
3.32
3.37
3.50
3.64
3.75
3.79
3.75
3.67
3.58
3.53
3.53
3.61
3.72
3.82
3.85
3.81
3.72
3.64
3.59
3.57
3.55
3.49
3.37
3.23
3.09
2.98
2.90
2.82
2.76
2.72
2.70
2.71
2.68
2.55
2.29
1.96
1.65
1.49
1.53
1.71
1.93
2.05
2.01
1.87
1.70
1.61
1.61
1.63
1.60
1.46
1.25
1.07
1.00
1.09
1.28
1.46
1.56
1.56
1.53
1.53
1.64
1.82
1.99
2.03
1.85
1.45
0.94
0.51
0.31
0.43
0.79
1.21
1.47
1.44
1.14
0.73
0.41
0.30
0.40
0.62
0.80
0.88
0.84
0.74
0.63
0.54
0.47
0.38
0.30
0.26
0.31
0.46
0.72
1.03
1.33
1.56
1.70
1.74
1.64
1.41
1.05
0.63
0.27
0.06
0.05
0.23
0.53
0.86
1.13
1.29
1.31
1.17
0.93
0.66
0.47
0.47
0.66
0.98
1.28
1.43
1.36
1.12
0.80
0.52
0.37
0.37
0.50
0.71
0.93
1.10
1.15
1.05
0.81
0.49
0.16
-0.10
-0.24
-0.29
-0.28
-0.25
-0.20
-0.08
0.14
0.51
1.00
1.48
1.82
1.90
1.70
1.30
0.86
0.54
0.44
0.54
0.73
0.89
0.93
0.83
0.65
0.47
0.33
0.21
0.05
-0.19
-0.50
-0.80
-0.98
-0.95
-0.70
-0.30
0.12
0.45
0.63
0.67
0.64
0.60
0.55
0.49
0.41
0.35
0.36
0.46
0.64
0.84
0.97
0.98
0.87
0.73
0.64
0.64
0.68
0.69
0.61
0.46
0.32
0.28
0.37
0.53
0.62
0.55
0.30
-0.04
-0.32
-0.45
-0.40
-0.25
-0.09
0.03
0.13
0.25
0.43
0.58
0.62
0.44
0.05
-0.42
-0.78
-0.88
-0.67
-0.26
0.19
0.50
0.60
0.53
0.39
0.27
0.21
0.18
0.14
0.10
0.09
0.19
0.42
0.74
1.04
1.19
1.10
0.79
0.38
0.02
-0.19
-0.20
-0.08
0.08
0.23
0.34
0.43
0.52
0.61
0.64
0.60
0.49
0.36
0.24
0.14
0.04
-0.09
-0.24
-0.39
-0.50
-0.53
-0.49
-0.43
-0.40
-0.41
-0.43
-0.40
-0.28
-0.05
0.25
0.54
0.76
0.88
0.90
0.89
0.88
0.89
0.90
0.86
0.74
0.55
0.37
0.26
0.27
0.38
0.54
0.65
0.68
0.60
0.47
0.32
0.17
0.04
-0.09
-0.19
-0.27
-0.29
-0.24
-0.12
0.02
0.14
0.21
0.23
0.21
0.18
0.13
0.09
0.03
-0.05
-0.14
-0.25
-0.36
-0.41
-0.41
-0.36
-0.28
-0.18
-0.08
0.02
0.14
0.27
0.40
0.50
0.57
0.61
0.62
0.60
0.50
0.33
0.10
-0.11
-0.22
-0.18
-0.03
0.13
0.20
0.13
-0.07
-0.31
-0.51
-0.63
-0.66
-0.61
-0.46
-0.23
0.07
0.33
0.47
0.41
0.18
-0.14
-0.44
-0.69
-0.90
-1.15
-1.48
-1.85
-2.19
-2.40
-2.46
-2.45
-2.51
-2.77
-3.26
-3.92
-4.62
-5.25
-5.76
-6.21
-6.66
-7.19
-7.81
-8.48
-9.15
-9.82
-10.60
-11.69
-13.30
-15.55
-18.32
-21.27
-23.92
-25.92
-27.24
-28.22
-29.50
-31.74
-35.27
-39.94
-45.11
-50.00
-54.08
-57.38
-60.53
-64.45
-69.86
-76.88
-84.96
-93.18
-100.72
-107.34
-113.42
-119.77
-127.18
-136.11
-146.68
-158.76
-172.04
-185.73
-198.33
-207.33
-209.74
-202.84
-185.23
-157.29
-120.97
-78.72
-32.43
17.02
69.26
123.24
176.26
224.07
262.13
287.53
300.38
303.83
302.65
301.12
301.49
303.61
305.88
306.90
306.59
306.31
307.89
312.43
319.51
327.20
332.82
333.86
328.63
316.50
297.64
272.69
242.45
207.71
169.19
127.43
82.68
34.94
-15.55
-67.70
-119.03
-165.72
-203.52
-229.14
-241.49
-242.10
-234.42
-222.42
-209.18
-196.19
-183.65
-171.28
-159.10
-147.70
-137.82
-129.78
-123.12
-116.78
-109.66
-101.22
-91.71
-82.04
-73.32
-66.28
-61.03
-56.98
-53.25
-49.04
-44.01
-38.36
-32.71
-27.73
-23.85
-21.08
-19.12
-17.49
-15.76
-13.73
-11.47
-9.19
-7.16
-5.55
-4.40
-3.66
-3.19
-2.83
-2.46
-2.00
-1.43
-0.84
-0.33
-0.05
-0.06
-0.32
-0.68
-0.98
-1.05
-0.87
-0.50
-0.10
0.19
0.32
0.31
0.27
0.29
0.39
0.51
0.53
0.36
-0.03
-0.57
-1.13
-1.54
-1.73
-1.65
-1.39
-1.04
-0.70
-0.39
-0.10
0.20
0.51
0.82
1.07
1.24
1.38
1.54
1.78
2.11
2.47
2.77
2.97
3.10
3.21
3.34
3.41
3.31
2.91
2.19
1.28
0.34
-0.47
-1.10
-1.60
-2.06
-2.50
-2.86
-2.99
-2.85
-2.45
-1.95
-1.54
-1.37
-1.47
-1.75
-2.10
-2.41
-2.65
-2.79
-2.82
-2.69
-2.37
-1.82
-1.10
-0.31
0.43
1.04
1.48
1.74
1.82
1.72
1.43
1.02
0.59
0.30
0.29
0.63
1.27
2.02
2.66
2.97
2.86
2.38
1.70
1.00
0.39
-0.11
-0.58
-1.10
-1.68
-2.25
-2.69
-2.91
-2.91
-2.77
-2.63
-2.55
-2.49
-2.34
-1.97
-1.33
-0.46
0.57
1.64
2.71
3.75
4.71
5.54
6.10
6.31
6.12
5.58
4.80
3.90
2.98
2.05
1.12
0.17
-0.75
-1.54
-2.09
-2.30
-2.16
-1.76
-1.27
-0.84
-0.63
-0.69
-0.98
-1.44
-1.97
-2.48
-2.88
-3.11
-3.14
-2.98
-2.64
-2.18
-1.63
-1.04
-0.45
0.09
0.53
0.84
1.01
1.10
1.17
1.26
1.37
1.46
1.49
1.43
1.24
0.91
0.43
-0.15
-0.72
-1.17
-1.41
-1.42
-1.31
-1.22
-1.29
-1.56
-2.00
-2.49
-2.91
-3.14
-3.11
-2.76
-2.03
-0.91
0.49
1.98
3.30
4.24
4.71
4.82
4.73
4.64
4.64
4.68
4.64
4.36
3.76
2.84
1.69
0.47
-0.65
-1.49
-1.91
-1.82
-1.27
-0.38
0.61
1.40
1.79
1.65
1.06
0.20
-0.71
-1.47
-2.01
-2.38
-2.64
-2.83
-2.92
-2.80
-2.39
-1.70
-0.89
-0.16
0.29
0.42
0.28
-0.02
-0.36
-0.69
-0.97
-1.20
-1.28
-1.13
-0.68
0.02
0.83
1.58
2.09
2.31
2.26
2.02
1.69
1.31
0.86
0.33
-0.26
-0.89
-1.50
-2.04
-2.51
-2.94
-3.36
-3.77
-4.13
-4.36
-4.40
-4.18
-3.72
-3.07
-2.29
-1.42
-0.46
0.64
1.92
3.32
4.70
5.82
6.47
6.53
6.05
5.22
4.24
3.29
2.44
1.67
0.93
0.20
-0.49
-1.09
-1.54
-1.82
-1.97
-2.00
-1.96
-1.86
-1.71
-1.49
-1.22
-0.92
-0.64
-0.44
-0.36
-0.42
-0.60
-0.86
-1.12
-1.31
-1.35
-1.18
-0.79
-0.28
0.18
0.42
0.33
-0.01
-0.38
-0.48
-0.12
0.72
1.88
3.10
4.14
4.87
5.30
5.52
5.58
5.54
5.33
4.90
4.18
3.16
1.92
0.56
-0.80
-2.04
-3.12
-4.02
-4.75
-5.30
-5.65
-5.76
-5.65
-5.34
-4.92
-4.44
-3.91
-3.31
-2.58
-1.71
-0.71
0.36
1.43
2.48
3.50
4.47
5.33
5.95
6.14
5.78
4.88
3.63
2.39
1.51
1.21
1.45
1.96
2.37
2.40
1.97
1.25
0.48
-0.13
-0.48
-0.63
-0.66
-0.71
-0.82
-1.04
-1.42
-1.92
-2.52
-3.10
-3.57
-3.84
-3.92
-3.85
-3.72
-3.57
-3.42
-3.26
-3.08
-2.92
-2.81
-2.72
-2.59
-2.29
-1.78
-1.07
-0.29
0.39
0.86
1.09
1.14
1.11
1.01
0.80
0.38
-0.29
-1.19
-2.16
-3.00
-3.51
-3.61
-3.35
-2.87
-2.34
-1.91
-1.68
-1.66
-1.81
-2.10
-2.46
-2.88
-3.29
-3.64
-3.83
-3.77
-3.48
-3.08
-2.80
-2.85
-3.26
-3.84
-4.20
-3.85
-2.45
0.05
3.39
7.02
10.28
12.57
13.47
12.90
11.10
8.50
5.69
3.17
1.27
0.05
-0.63
-1.03
-1.42
-1.98
-2.73
-3.60
-4.41
-4.95
-5.00
-4.45
-3.29
-1.67
0.16
1.90
3.32
4.29
4.79
4.94
4.82
4.50
4.01
3.37
2.64
1.90
1.19
0.53
-0.11
-0.78
-1.42
-1.93
-2.21
-2.17
-1.87
-1.44
-1.01
-0.69
-0.51
-0.48
-0.56
-0.73
-0.95
-1.20
-1.45
-1.70
-1.94
-2.17
-2.31
-2.23
-1.79
-0.96
0.16
1.35
2.35
2.98
3.24
3.24
3.15
3.10
3.12
3.17
3.12
2.85
2.28
1.41
0.30
-0.82
-1.70
-2.06
-1.69
-0.63
0.90
2.51
3.79
4.48
4.55
4.20
3.75
3.43
3.30
3.17
2.82
2.09
1.05
-0.03
-0.84
-1.18
-1.07
-0.73
-0.43
-0.30
-0.33
-0.38
-0.34
-0.21
-0.07
-0.07
-0.32
-0.85
-1.59
-2.46
-3.37
-4.25
-5.08
-5.88
-6.66
-7.40
-8.06
-8.54
-8.78
-8.72
-8.37
-7.70
-6.69
-5.28
-3.49
-1.46
0.53
2.18
3.34
4.15
4.94
6.05
7.57
9.21
10.48
10.91
10.31
8.90
7.19
5.80
5.21
5.58
6.78
8.36
9.72
10.29
9.69
7.86
5.05
1.72
-1.67
-4.74
-7.33
-9.38
-10.86
-11.77
-12.11
-11.99
-11.57
-11.12
-10.84
-10.83
-11.04
-11.36
-11.59
-11.55
-11.08
-10.03
-8.33
-5.95
-3.03
0.17
3.30
5.97
7.88
8.94
9.27
9.11
8.77
8.44
8.12
7.72
7.05
6.03
4.72
3.33
2.16
1.51
1.52
2.14
3.09
3.97
4.40
4.17
3.25
1.89
0.41
-0.81
-1.55
-1.75
-1.56
-1.19
-0.85
-0.69
-0.76
-1.05
-1.49
-2.02
-2.56
-3.05
-3.42
-3.60
-3.54
-3.24
-2.74
-2.10
-1.41
-0.72
-0.08
0.46
0.88
1.16
1.29
1.27
1.12
0.82
0.34
-0.38
-1.36
-2.54
-3.80
-4.95
-5.81
-6.26
-6.29
-5.99
-5.53
-5.11
-4.93
-5.10
-5.63
-6.43
-7.35
-8.26
-9.15
-10.12
-11.37
-13.09
-15.31
-17.86
-20.40
-22.60
-24.30
-25.71
-27.32
-29.75
-33.46
-38.48
-44.36
-50.31
-55.54
-59.58
-62.54
-65.08
-68.17
-72.67
-78.94
-86.66
-94.94
-102.63
-108.81
-113.12
-115.89
-118.02
-120.60
-124.68
-131.06
-140.17
-151.86
-165.01
-177.18
-184.88
-184.62
-174.32
-154.33
-127.27
-96.73
-65.45
-34.07
-1.38
34.14
72.56
111.51
146.95
174.92
193.51
203.58
208.05
210.32
212.73
215.92
219.21
221.57
222.60
222.78
223.31
225.32
229.19
234.30
239.26
242.71
243.92
243.31
242.23
242.25
244.31
248.31
253.22
257.68
260.54
261.02
258.46
251.89
239.95
221.35
195.43
162.70
124.60
82.81
38.35
-8.52
-57.69
-107.99
-156.41
-198.40
-229.37
-246.52
-250.04
-243.03
-230.05
-215.29
-201.24
-188.42
-176.22
-164.01
-151.87
-140.52
-130.77
-122.82
-116.10
-109.59
-102.35
-94.04
-84.96
-75.98
-67.99
-61.56
-56.71
-52.92
-49.39
-45.40
-40.64
-35.29
-29.91
-25.19
-21.57
-19.06
-17.30
-15.75
-13.97
-11.81
-9.46
-7.27
-5.54
-4.37
-3.63
-3.06
-2.44
-1.70
-0.91
-0.25
0.17
0.32
0.26
0.09
-0.13
-0.39
-0.69
-1.02
-1.29
-1.43
-1.40
-1.22
-1.02
-0.94
-1.04
-1.30
-1.62
-1.90
-2.06
-2.13
-2.18
-2.36
-2.79
-3.51
-4.48
-5.57
-6.62
-7.50
-8.13
-8.51
-8.68
-8.67
-8.47
-8.06
-7.43
-6.56
-5.43
-4.01
-2.23
-0.14
2.10
4.21
5.81
6.62
6.57
5.81
4.66
3.49
2.53
1.87
1.47
1.24
1.12
1.10
1.19
1.42
1.77
2.22
2.69
3.10
3.33
3.29
3.00
2.71
2.89
4.23
7.31
12.33
18.92
26.19
32.95
38.09
40.87
40.96
38.52
34.03
28.24
22.08
16.47
12.12
9.29
7.74
6.80
5.65
3.70
0.77
-2.93
-6.96
-10.83
-14.19
-16.82
-18.64
-19.66
-19.97
-19.72
-19.11
-18.36
-17.63
-17.04
-16.59
-16.22
-15.83
-15.32
-14.62
-13.76
-12.81
-11.92
-11.20
-10.69
-10.35
-10.01
-9.52
-8.75
-7.65
-6.31
-4.88
-3.55
-2.50
-1.82
-1.51
-1.42
-1.32
-0.96
-0.16
1.03
2.35
3.42
3.86
3.56
2.69
1.68
1.02
1.01
1.61
2.48
3.13
3.21
2.66
1.74
0.84
0.34
0.40
0.95
