1660753368.00
64.000000
-0.00
-0.00
-0.00
-0.00
-0.00
-0.00
-0.00
-0.00
-0.00
-0.00
0.00
0.01
0.01
-0.00
-0.03
-0.05
-0.05
0.00
0.13
0.36
0.66
1.01
1.37
1.72
2.06
2.40
2.79
3.24
3.80
4.42
5.06
5.66
6.20
6.68
7.15
7.68
8.31
9.14
10.09
11.04
11.88
12.56
13.14
13.76
14.65
15.96
17.91
20.32
22.90
25.38
27.58
29.57
31.68
34.32
37.81
42.54
48.15
54.10
59.83
64.97
69.58
74.14
79.34
85.71
93.76
103.00
112.62
121.73
129.77
136.75
143.30
150.75
157.77
166.64
177.95
191.79
206.97
220.57
228.25
225.36
208.53
176.87
132.76
80.05
23.07
-34.94
-92.44
-149.16
-205.23
-260.37
-313.74
-363.87
-409.83
-450.91
-486.50
-515.74
-537.23
-549.22
-549.96
-538.37
-514.21
-478.67
-433.88
-382.45
-327.02
-269.84
-212.63
-156.66
-102.95
-52.37
-5.90
35.58
71.43
101.35
125.50
144.38
158.69
169.15
176.37
180.75
182.57
182.07
179.51
175.23
169.65
163.18
156.15
148.81
141.30
133.69
126.02
118.33
110.69
103.16
95.80
88.68
81.83
75.25
68.95
62.95
57.25
51.86
46.78
42.03
37.59
33.45
29.61
26.07
22.81
19.83
17.11
14.67
12.48
10.54
8.84
7.35
6.07
4.97
4.04
3.25
2.61
2.09
1.70
1.39
1.14
0.90
0.63
0.34
0.04
-0.21
-0.38
-0.46
-0.47
-0.45
-0.44
-0.47
-0.51
-0.54
-0.51
-0.40
-0.23
-0.07
0.01
-0.07
-0.30
-0.64
-0.97
-1.15
-1.09
-0.78
-0.38
-0.09
-0.14
-0.64
-1.50
-2.44
-3.13
-3.30
-2.91
-2.23
-1.73
-1.82
-2.69
-4.14
-5.63
-6.57
-6.54
-5.62
-4.33
-3.46
-3.61
-4.94
-6.96
-8.82
-9.62
-9.10
-7.54
-5.75
-4.53
-4.23
-4.74
-5.99
-8.35
-12.54
-18.60
-24.76
-27.43
-22.33
-6.75
18.43
48.86
78.31
101.58
116.37
123.14
123.17
116.53
101.61
76.73
42.84
4.81
-29.53
-52.61
-60.57
-54.84
-41.21
-26.89
-17.67
-15.93
-20.76
-29.33
-38.77
-47.28
-54.23
-59.36
-61.96
-60.61
-53.58
-40.32
-22.34
-3.25
12.53
21.57
22.75
17.43
8.37
-1.54
-10.23
-16.77
-21.01
-23.25
-24.02
-24.46
-26.15
-30.82
-39.67
-52.57
-68.14
-83.66
-95.46
-99.69
-93.25
-74.77
-45.48
-9.20
28.73
62.52
87.78
102.59
107.56
104.88
97.22
86.78
72.72
55.35
35.24
13.59
-7.80
-26.84
-42.04
-53.22
-61.64
-69.34
-77.56
-86.47
-94.87
-100.96
-103.41
-102.20
-98.71
-94.91
-92.38
-91.18
-90.03
-86.83
-79.75
-68.22
-53.65
-39.26
-28.95
-25.80
-30.71
-42.47
-58.56
-76.37
-94.13
-110.73
-125.10
-135.20
-138.07
-130.73
-111.55
-80.98
-41.32
4.33
52.47
98.99
138.80
166.26
176.99
170.51
152.04
131.75
120.86
126.51
148.27
178.46
206.12
222.60
225.35
217.90
206.71
197.06
190.51
185.40
179.02
170.03
159.17
148.51
139.74
133.22
128.09
123.28
118.53
114.57
112.56
113.31
116.61
120.98
124.01
122.88
115.30
100.28
78.69
53.19
27.51
5.27
-11.33
-22.13
-28.87
-34.23
-40.49
-48.65
-58.21
-67.77
-75.92
-81.87
-85.59
-87.41
-87.63
-86.37
-83.64
-79.64
-74.88
-70.02
-65.64
-61.97
-58.90
-56.16
-53.49
-50.86
-48.33
-46.03
-44.08
-42.55
-41.49
-40.85
-40.45
-39.98
-39.05
-37.39
-34.96
-31.99
-28.85
-25.90
-23.43
-21.57
-20.41
-19.97
-20.25
-21.15
-22.41
-23.66
-24.51
-24.68
-24.15
-23.21
-22.28
-21.69
-21.49
-21.33
-20.62
-18.81
-15.65
-11.28
-6.17
-0.85
4.24
8.87
12.93
16.35
19.00
20.84
21.87
22.30
22.32
22.04
21.39
20.19
18.33
15.96
13.45
11.26
9.67
8.57
7.49
5.76
2.84
-1.46
-6.86
-12.74
-18.39
-23.17
-26.70
-28.85
-29.72
-29.58
-28.78
-27.76
-26.95
-26.67
-27.12
-28.24
-29.72
-31.03
-31.51
-30.59
-27.98
-23.85
-18.84
-13.83
-9.68
-6.87
-5.41
-4.85
-4.51
-3.76
-2.25
0.06
2.99
6.30
9.85
13.65
17.79
22.35
27.28
32.42
37.50
42.27
46.67
50.90
55.49
61.21
69.00
79.76
94.14
112.19
133.11
155.22
176.30
194.26
207.85
217.05
222.95
227.25
231.56
236.95
243.76
251.72
260.14
268.03
274.15
277.08
275.51
268.51
255.92
238.46
217.67
195.72
174.99
157.60
144.94
137.26
133.59
132.00
130.33
126.89
120.92
112.72
103.15
93.12
83.17
73.37
63.57
53.68
43.84
34.30
25.28
16.70
8.28
-0.32
-9.27
-18.36
-27.14
-35.14
-42.20
-48.61
-54.94
-61.76
-69.24
-76.87
-83.62
-88.20
-89.68
-87.84
-83.33
-77.53
-72.05
-68.20
-66.50
-66.62
-67.66
-68.72
-69.48
-70.56
-73.22
-78.81
-87.98
-100.17
-113.94
-127.49
-139.73
-150.86
-162.42
-176.83
-196.74
-224.45
-261.38
-307.31
-359.49
-412.16
-457.02
-485.28
-490.72
-472.26
-434.88
-387.77
-340.79
-300.80
-269.90
-246.12
-225.95
-206.82
-188.13
-170.63
-154.81
-139.82
-123.48
-103.38
-78.12
-47.98
-14.86
18.66
50.29
78.74
104.01
127.11
149.30
171.04
191.21
206.90
214.01
208.70
188.67
153.95
106.57
49.74
-13.06
-78.35
-142.39
-201.00
-249.80
-285.22
-305.64
-312.07
-307.73
-296.84
-283.12
-268.86
-254.86
-240.93
-226.69
-212.02
-197.17
-182.53
-168.42
-154.96
-142.06
-129.54
-117.15
-104.79
-92.51
-80.54
-69.12
-58.48
-48.76
-40.10
-32.63
-26.54
-21.95
-18.74
-16.50
-14.55
-12.24
-9.22
-5.61
-1.95
1.06
2.86
3.38
3.05
2.72
3.24
5.09
8.15
11.76
15.06
17.55
19.41
21.50
24.92
30.42
37.85
46.15
53.71
58.98
61.15
60.36
57.65
54.39
51.71
50.06
49.08
47.90
45.53
41.44
35.76
29.21
22.82
17.47
13.63
11.35
10.44
10.76
12.27
15.02
18.82
23.02
26.49
27.89
26.23
21.38
14.39
7.20
2.05
0.58
3.34
9.60
17.62
25.07
29.66
29.62
24.29
14.44
2.40
-8.63
-15.55
-16.55
-11.90
-3.93
3.90
8.29
7.22
0.54
-10.19
-22.46
-33.58
-41.37
-44.63
-43.31
-38.47
-31.93
-25.78
-21.95
-21.73
-25.51
-32.59
-41.33
-49.37
-54.29
-54.39
-49.39
-40.62
-30.71
-22.64
-18.70
-19.72
-24.90
-32.12
-38.73
-42.24
-40.93
-34.02
-21.70
-4.95
14.60
34.99
54.28
70.95
84.31
94.72
103.34
111.60
120.57
130.35
140.01
147.94
152.37
151.90
145.90
134.62
119.14
101.41
83.94
69.41
59.97
56.50
58.19
62.78
67.46
70.00
69.71
67.44
64.73
62.67
60.93
57.86
51.50
40.84
26.64
11.09
-3.37
-15.33
-24.80
-32.78
-40.44
-49.00
-60.12
-76.32
-100.27
-132.94
-171.60
-209.19
-236.06
-243.38
-226.82
-188.41
-135.75
-79.25
-28.53
10.11
34.64
46.68
49.93
48.64
46.27
44.90
45.11
46.48
48.40
50.53
52.90
55.64
58.79
62.39
66.87
73.21
82.85
97.07
116.36
140.14
166.94
195.01
222.90
249.81
275.45
299.58
321.22
338.14
346.91
343.79
326.29
294.84
253.70
210.47
174.13
152.21
148.27
160.73
183.58
208.63
228.07
236.42
231.23
212.50
181.73
141.07
93.23
41.55
-10.14
-58.18
-100.35
-136.86
-170.64
-206.19
-247.62
-296.68
-351.92
-409.05
-462.37
-506.62
-538.37
-556.66
-562.73
-559.12
-548.57
-533.09
-513.45
-489.42
-460.41
-426.34
-388.25
-348.02
-307.85
-269.27
-232.71
-197.62
-163.06
-128.51
-94.03
-60.14
-27.25
4.61
35.89
67.35
99.74
133.46
168.50
204.58
241.40
278.98
317.75
358.28
400.69
444.06
486.19
523.94
553.97
573.47
580.63
574.48
554.60
520.96
474.38
417.26
354.21
291.72
236.70
194.22
165.66
148.29
136.70
125.40
111.37
95.40
81.31
73.85
76.13
88.06
106.17
124.90
138.32
141.60
131.89
108.69
74.07
32.55
-9.48
-45.49
-71.07
-85.86
-94.27
-103.94
-122.52
-153.88
-195.81
-240.64
-278.47
-301.62
-307.77
-300.59
-287.55
-276.41
-272.13
-275.76
-285.32
-297.78
-310.89
-324.17
-338.55
-355.22
-374.24
-393.71
-409.89
-418.26
-415.20
-399.41
-372.72
-339.21
-303.36
-267.99
-233.43
-197.85
-159.07
-116.00
-69.26
-20.82
26.76
70.56
107.31
133.66
147.21
148.07
140.07
130.30
126.91
135.99
159.07
192.87
231.17
267.79
298.98
323.70
342.24
354.30
358.35
352.68
337.35
315.39
292.14
272.95
260.59
253.85
248.35
239.24
223.84
202.94
180.23
160.25
146.46
140.25
141.25
148.27
160.34
177.01
198.16
223.50
251.76
280.47
305.80
323.47
330.04
324.09
306.59
280.13
247.72
211.91
174.77
138.46
105.82
79.93
62.85
54.15
50.39
46.04
35.39
14.76
-16.64
-56.92
-102.49
-149.13
-192.26
-227.49
-251.45
-263.22
-265.47
-264.51
-268.45
-284.05
-313.77
-354.41
-398.49
-437.59
-466.03
-482.71
-490.58
-493.96
-495.53
-494.68
-487.93
-470.89
-440.54
-397.05
-344.70
-291.41
-246.77
-219.03
-212.16
-223.95
-246.64
-269.84
-284.54
-286.29
-275.62
-255.95
-230.47
-200.20
-164.33
-122.44
-76.46
-30.92
9.03
40.68
65.52
88.66
116.34
153.22
200.26
254.39
309.44
357.93
392.82
409.32
406.26
386.71
357.52
327.39
304.17
292.25
291.53
298.38
307.92
316.67
323.47
328.81
332.66
332.69
323.84
299.86
256.41
194.27
121.35
51.32
-0.75
-24.58
-19.55
4.67
32.46
49.60
49.60
35.64
17.19
3.83
0.08
4.18
10.87
15.71
17.66
18.58
20.44
22.90
23.19
18.18
6.76
-8.97
-24.90
-37.13
-43.89
-45.78
-44.79
-42.66
-40.12
-36.95
-32.64
-27.29
-21.78
-17.57
-15.92
-17.60
-22.99
-32.62
-47.73
-70.61
-104.42
-152.01
-214.23
-288.13
-366.28
-437.75
-491.14
-518.29
-517.10
-491.99
-451.66
-405.38
-359.77
-317.46
-277.83
-239.00
-199.58
-159.25
-118.21
-76.27
-32.70
12.89
59.21
102.68
138.13
160.52
167.44
160.63
145.79
130.84
123.39
128.58
148.11
180.24
220.98
265.33
308.30
345.63
373.77
389.40
389.15
369.81
329.99
272.43
205.62
143.16
100.02
87.05
106.38
150.25
204.15
252.61
284.67
296.26
289.04
267.14
234.55
194.39
149.98
105.95
67.94
40.57
24.90
17.38
11.08
-1.36
-24.12
-56.32
-92.42
-124.66
-146.35
-154.74
-151.77
-143.05
-135.24
-133.32
-138.68
-148.92
-159.04
-163.72
-158.99
-143.50
-118.60
-88.15
-57.91
-35.13
-27.57
-41.68
-80.01
-138.95
-208.39
-273.89
-321.14
-340.69
-330.81
-296.94
-248.54
-194.58
-140.32
-86.40
-30.36
30.67
97.54
167.92
236.66
297.15
343.17
370.26
376.72
363.71
334.70
294.14
246.31
194.36
139.84
82.96
23.53
-37.83
-98.88
-155.49
-202.38
-234.37
-247.69
-241.00
-215.54
-174.95
-125.05
-73.67
-30.02
-3.12
0.61
-20.15
-60.41
-109.80
-155.49
-185.80
-193.18
-175.60
-136.45
-83.49
-26.88
23.05
58.36
75.52
75.93
64.77
48.40
31.78
17.36
5.45
-4.36
-12.43
-19.28
-26.53
-36.86
-52.81
-74.73
-99.50
-121.32
-134.52
-136.59
-129.59
-118.97
-110.48
-107.30
-108.78
-111.59
-111.92
-107.63
-98.64
-86.16
-71.29
-54.29
-35.06
-14.31
5.49
20.12
25.22
18.41
1.12
-21.07
-39.96
-47.48
-38.33
-11.47
30.11
80.92
134.77
185.90
229.38
261.20
278.75
281.78
273.17
258.72
245.58
239.77
243.83
256.14
271.79
284.69
289.77
284.35
268.60
245.11
218.14
192.48
172.32
160.08
155.96
158.35
164.92
173.93
184.67
197.06
210.40
222.52
229.74
228.10
214.94
190.14
156.05
116.59
75.80
36.67
0.76
-31.83
-62.04
-91.36
-121.74
-155.36
-194.54
-240.79
-293.25
-347.51
-395.61
-428.36
-439.29
-428.13
-401.71
-371.61
-349.39
-341.91
-349.04
-364.77
-380.65
-389.59
-388.07
-376.17
-356.19
-331.10
-303.59
-275.73
-248.96
-223.96
-200.66
-178.32
-155.62
-130.67
-101.09
-64.79
-21.69
24.59
66.41
94.23
100.86
85.45
55.00
22.21
0.45
-1.68
17.16
52.38
97.22
146.56
198.20
251.44
304.60
353.67
393.25
419.21
430.98
431.83
427.15
421.58
416.75
410.61
398.76
376.88
343.11
299.34
251.06
205.63
169.93
148.11
140.38
143.26
151.13
158.52
161.84
160.14
154.84
148.52
143.75
142.12
143.95
148.24
153.00
155.71
153.87
145.52
129.64
106.35
76.81
42.94
7.06
-28.61
-62.46
-93.73
-122.75
-150.72
-179.29
-210.15
-244.78
-284.24
-328.93
-378.02
-428.98
-477.62
-518.95
-548.61
-564.16
-565.70
-555.39
-536.18
-510.65
-480.64
-447.58
-413.42
-381.04
-353.96
-335.07
-325.42
-323.31
-324.46
-323.33
-314.87
-296.16
-267.44
-231.84
-193.73
-156.86
-123.06
-92.30
-63.84
-37.45
-13.93
5.53
20.50
32.34
43.89
58.29
77.59
102.06
130.79
162.77
197.95
237.03
280.22
325.60
368.63
403.24
424.24
429.67
421.67
405.54
387.27
370.90
356.95
342.89
324.89
300.15
268.60
233.04
198.18
168.80
148.07
136.42
131.61
129.73
126.78
120.51
111.10
100.88
93.04
90.01
92.50
99.41
108.34
115.96
118.68
113.15
97.39
71.97
40.45
8.42
-18.81
-38.83
-53.24
-66.57
-83.51
-106.07
-132.55
-158.88
-181.37
-198.60
-211.35
-220.63
-225.76
-224.11
-212.78
-191.16
-162.31
-132.13
-106.74
-89.86
-81.43
-78.23
-75.94
-71.13
-62.34
-50.16
-36.52
-23.87
-14.40
-9.40
-8.81
-11.21
-14.28
-15.67
-13.94
-9.06
-2.60
2.25
0.85
-12.11
-41.08
-87.35
-147.10
-211.15
-267.22
-304.01
-315.28
-301.78
-269.86
-227.97
-182.74
-136.91
-89.71
-38.90
16.82
76.35
135.95
190.24
233.71
262.52
275.86
276.39
269.72
262.39
259.50
263.09
272.10
284.00
296.93
310.89
327.13
346.24
366.28
382.35
388.39
379.89
356.26
321.30
281.59
243.57
210.84
183.23
157.56
129.87
97.41
59.57
17.19
-28.88
-78.76
-133.05
-191.13
-249.34
-300.47
-335.43
-346.40
-329.74
-287.11
-224.22
-148.17
-65.09
20.47
104.60
182.55
248.35
296.15
322.38
327.41
315.51
293.03
265.97
238.28
211.55
185.62
159.96
134.34
108.88
83.49
57.49
29.65
-1.21
-35.56
-72.90
-111.83
-150.86
-189.07
-226.61
-264.82
-306.10
-353.56
-410.12
-477.06
-552.39
-629.94
-700.13
-752.49
-779.21
-777.95
-752.54
-711.20
-663.12
-615.27
-570.89
-529.92
-490.78
-452.05
-413.28
-374.74
-336.85
-299.83
-263.77
-228.86
-195.26
-162.86
-131.15
-99.15
-65.91
-31.05
4.77
40.14
73.42
103.60
130.88
156.68
183.38
213.66
249.93
293.43
342.95
393.70
437.51
464.70
468.00
446.62
408.28
367.46
339.99
336.54
358.00
395.31
433.57
458.28
460.60
439.34
399.49
348.76
294.32
241.09
191.73
147.54
109.33
77.83
53.16
34.46
19.73
6.41
-7.61
-22.94
-38.44
-51.62
-59.98
-62.30
-59.21
-52.97
-46.55
-42.43
-41.87
-44.81
-50.18
-56.56
-62.73
-67.82
-71.04
-71.56
-68.57
-62.10
-54.13
-49.29
-54.22
-75.24
-115.02
-170.07
-230.50
-282.92
-315.28
-321.17
-301.63
-263.51
-215.38
-163.66
-110.71
-55.75
2.36
62.61
121.21
173.15
214.76
245.57
268.19
286.13
301.27
312.46
316.30
309.45
291.13
264.03
233.10
203.24
177.18
154.97
135.23
116.92
100.63
88.58
83.61
87.88
101.74
123.23
148.13
170.47
183.68
182.31
163.39
127.24
77.21
18.80
-41.52
-97.24
-142.63
-173.65
-188.99
-190.80
-184.48
-177.22
-175.44
-182.51
-197.82
-217.88
-238.66
-258.00
-276.61
-297.22
-322.37
-352.15
-383.30
-410.25
-427.31
-430.99
-421.18
-400.65
-373.04
-340.90
-305.16
-265.70
-223.01
-179.13
-137.52
-101.34
-71.57
-45.86
-19.18
14.61
60.31
119.28
188.27
259.34
321.34
362.32
373.10
350.52
299.64
233.06
167.25
117.05
90.59
87.14
98.82
115.22
128.21
134.60
135.58
134.07
132.12
130.03
127.50
125.46
127.16
137.20
159.09
192.84
234.19
275.76
309.56
329.89
335.22
328.58
316.34
305.83
302.72
309.16
323.15
339.63
352.75
358.17
354.42
342.88
326.52
308.23
289.59
270.67
250.73
229.18
206.32
183.35
161.71
142.36
125.30
109.41
93.00
74.52
53.16
29.21
3.92
-21.09
-44.49
-65.81
-85.67
-105.58
-127.28
-152.07
-180.22
-210.84
-242.38
-273.14
-302.12
-329.33
-355.82
-383.32
-413.97
-450.09
-493.78
-546.00
-605.21
-666.49
-721.72
-761.58
-778.67
-770.28
-739.53
-693.91
-642.19
-591.11
-543.69
-499.64
-457.35
-415.85
-375.72
-338.45
-305.08
-275.07
-246.19
-215.38
-180.10
-139.35
-94.27
-47.49
-2.05
40.06
78.70
115.62
153.66
195.41
242.21
294.00
349.89
408.78
469.23
528.64
582.71
626.12
654.57
667.03
666.56
658.81
648.81
638.02
623.69
600.97
566.47
520.90
469.02
417.04
369.27
326.11
284.59
240.55
191.13
136.13
78.13
21.99
-26.67
-63.21
-85.65
-95.94
-99.69
-104.43
-116.84
-140.63
-175.98
-220.42
-270.33
-321.90
-371.14
-413.63
-445.06
-462.86
-467.66
-463.46
-456.06
-450.53
-449.40
-452.68
-459.16
-467.56
-476.60
-484.20
-486.66
-479.37
-458.88
-425.04
-381.55
-334.30
-288.61
-246.94
-208.63
-171.56
-134.21
-96.87
-61.37
-30.07
-5.11
12.23
21.79
24.71
23.61
22.48
25.62
36.25
55.17
80.63
109.39
138.60
167.30
196.68
229.00
265.82
306.77
349.62
391.27
429.01
461.20
487.00
505.86
516.98
519.19
511.62
494.15
467.56
433.12
392.05
345.30
294.09
240.96
190.11
146.73
114.93
95.61
85.71
79.57
71.98
61.08
49.30
41.70
42.77
53.50
70.55
87.75
98.76
99.25
87.45
63.36
27.92
-16.74
-66.35
-114.10
-151.79
-172.56
-173.89
-158.86
-134.83
-110.35
-91.94
-82.51
-81.68
-87.27
-96.45
-106.06
-112.49
-112.07
-102.27
-83.26
-58.54
-33.93
-15.21
-5.87
-6.11
-13.42
-24.22
-35.37
-45.05
-52.66
-58.35
-62.72
-66.57
-71.02
-77.27
-86.42
-98.94
-114.16
-130.16
-144.17
-153.64
-157.87
-159.46
-164.44
-180.35
-212.64
-261.23
-319.09
-374.14
-413.64
-429.11
-419.07
-388.59
-346.00
-299.06
-252.49
-207.68
-164.24
-121.58
-79.69
-38.77
1.68
43.45
89.06
140.46
197.38
256.50
311.51
354.86
380.53
386.69
376.96
359.47
343.74
336.91
341.08
353.27
368.03
380.91
391.06
401.09
414.63
433.20
454.27
471.98
479.79
473.64
453.69
423.78
389.21
354.21
320.57
287.87
254.79
220.64
186.04
152.51
121.36
92.87
65.95
38.87
10.21
-20.14
-50.93
-80.31
-107.15
-132.09
-157.53
-186.14
-218.82
-253.27
-284.11
-304.56
-308.69
-293.25
-258.20
-206.41
-143.04
-74.97
-10.25
43.01
78.37
92.78
87.49
67.33
38.59
6.75
-24.96
-55.36
-84.27
-111.46
-136.44
-159.17
-180.73
-203.52
-230.91
-266.52
-313.20
-371.90
-440.67
-514.05
-583.71
-640.42
-676.85
-690.06
-682.34
-659.86
-629.92
-598.16
-567.16
-536.85
-506.12
-474.34
-441.95
-409.89
-378.69
-347.99
-316.80
-284.29
-250.43
-215.99
-182.22
-150.09
-119.87
-91.06
-62.85
-34.52
-5.80
23.18
52.31
81.74
112.12
144.23
178.58
214.87
252.08
288.66
323.29
355.44
385.67
415.56
447.53
484.29
528.01
579.08
634.85
689.28
733.90
760.16
762.22
739.06
694.83
637.35
575.51
516.71
465.24
422.10
386.00
354.92
327.32
302.56
280.54
260.87
242.21
222.38
199.11
171.19
139.22
105.14
71.02
37.70
4.25
-31.33
-70.52
-113.23
-157.48
-200.46
-240.15
-276.33
-310.89
-347.37
-389.95
-442.04
-504.64
-574.98
-646.07
-708.04
-750.93
-768.14
-758.92
-728.37
-685.19
-638.00
-592.33
-549.66
-508.60
-467.09
-424.28
-380.90
-338.38
-297.57
-258.01
-218.22
-176.49
-131.86
-84.34
-35.14
14.17
62.11
107.71
150.61
191.01
229.43
266.65
303.83
342.49
384.16
429.51
477.34
524.11
564.33
592.02
602.58
594.21
568.26
528.45
479.30
424.72
367.27
307.95
246.47
181.63
112.36
39.01
-35.18
-103.73
-158.19
-190.83
-197.69
-180.37
-145.37
-101.81
-58.44
-21.65
5.18
21.10
26.88
24.57
17.41
9.21
3.40
1.88
4.12
7.38
7.67
1.04
-15.20
-41.60
-76.18
-114.62
-151.29
-180.89
-200.11
-208.60
-208.44
-202.33
-191.83
-176.69
-155.69
-128.44
-96.42
-62.85
-31.42
-5.16
13.56
22.59
19.74
3.85
-23.49
-56.67
-86.77
-104.37
-103.04
-81.39
-42.62
8.02
65.81
127.42
190.02
249.52
300.12
335.79
352.83
351.82
337.59
317.13
296.65
279.42
265.17
250.96
233.07
208.97
178.56
144.64
112.22
87.13
74.00
74.47
86.46
104.96
124.26
140.24
151.75
160.12
167.11
172.80
174.48
167.42
147.03
111.54
63.86
11.37
-36.26
-70.43
-86.75
-86.69
-76.80
-66.13
-62.97
-72.37
-94.88
-127.14
-163.45
-197.57
-224.23
-240.14
-244.55
-239.31
-228.63
-218.11
-213.29
-218.00
-233.02
-255.86
-281.53
-304.11
-318.72
-322.99
-317.46
-304.74
-288.44
-271.92
-257.66
-247.23
-241.21
-238.60
-236.36
-229.85
-214.61
-188.95
-155.51
-120.81
-92.15
-73.80
-64.61
-58.39
-47.11
-24.57
11.36
58.97
114.64
174.62
235.46
293.12
342.55
378.69
398.97
405.41
404.65
404.80
411.19
423.27
434.73
436.76
422.86
391.87
348.32
299.99
254.93
219.47
197.57
190.79
198.08
215.55
236.83
254.83
264.34
263.92
255.81
243.83
230.54
215.58
196.37
170.57
138.62
104.40
73.61
50.89
37.28
29.71
22.68
10.94
-8.21
-34.22
-64.20
-94.97
-124.82
-154.29
-185.37
-220.05
-258.76
-300.01
-341.29
-380.66
-417.84
-454.01
-490.53
-527.62
-563.64
-595.74
-621.18
-638.26
-646.31
-645.06
-633.83
-611.61
-577.98
-534.07
-482.73
-427.46
-371.16
-315.60
-262.14
-212.91
-171.25
-140.56
-122.13
-113.58
-109.10
-101.61
-85.47
-58.36
-21.13
23.82
73.95
126.87
179.30
225.98
260.13
275.61
270.06
247.07
215.79
187.90
173.31
176.46
195.17
222.71
251.77
277.89
300.81
323.04
347.04
372.96
398.09
418.37
430.59
433.84
429.19
418.34
402.05
379.73
350.32
313.66
271.15
225.34
178.51
131.30
82.77
31.58
-21.95
-74.73
-121.45
-156.65
-177.21
-183.61
-179.59
-170.45
-161.22
-156.01
-158.20
-171.03
-197.32
-237.95
-289.90
-345.25
-392.64
-420.87
-423.16
-399.84
-358.09
-308.87
-262.76
-226.57
-202.27
-188.20
-181.38
-179.49
-181.23
-185.35
-189.48
-189.93
-182.96
-166.60
-142.08
-113.46
-86.06
-64.19
-49.77
-42.52
-41.09
-44.37
-51.94
-63.48
-77.88
-92.80
-105.36
-113.38
-116.34
-115.25
-111.82
-107.15
-101.20
-93.08
-81.87
-67.37
-50.22
-31.60
-12.57
6.02
23.39
38.46
50.02
57.20
60.16
60.47
60.71
63.65
71.14
83.56
99.94
118.56
137.85
157.00
176.06
195.63
216.09
237.08
257.49
276.06
292.10
305.90
318.27
329.68
339.62
346.64
349.16
346.52
339.30
328.89
316.38
301.65
283.39
259.98
230.89
197.59
163.43
132.58
108.39
92.30
83.65
80.42
80.48
82.51
86.22
91.93
99.57
108.12
115.75
120.52
121.36
118.60
113.61
107.85
102.14
96.32
89.70
81.72
72.37
62.28
52.22
42.78
34.14
26.07
18.21
10.16
1.68
-7.38
-17.01
-27.00
-36.77
-45.48
-52.19
-56.25
-57.62
-56.93
-55.34
-54.07
-54.08
-55.90
-59.47
-64.32
-69.57
-74.05
-76.48
-75.82
-71.71
-64.65
-55.96
-47.24
-39.78
-34.07
-29.81
-26.35
-23.19
-20.28
-17.97
-16.59
-16.09
-16.03
-15.77
-14.88
-13.37
-11.64
-10.15
-9.08
-8.16
-6.75
-4.21
-0.23
4.96
10.63
15.85
19.82
22.26
23.51
24.51
26.49
30.46
36.89
45.44
55.14
64.73
73.13
79.53
83.32
84.00
81.26
75.24
66.93
58.09
50.65
45.98
44.44
45.60
48.98
54.62
63.03
74.44
88.02
101.69
112.93
120.21
123.99
126.76
131.92
142.06
157.69
176.96
196.43
212.19
221.21
222.30
216.46
206.69
197.02
191.02
190.52
195.02
202.30
209.77
215.89
220.81
225.89
232.54
241.13
250.70
259.49
265.83
268.91
268.69
265.38
258.72
247.80
231.34
208.50
179.38
145.38
108.84
72.25
37.54
5.58
-23.79
-51.36
-77.85
-103.40
-127.45
-148.96
-167.04
-181.48
-193.03
-203.11
-213.29
-224.57
-236.96
-249.54
-260.97
-270.33
-277.75
-284.58
-292.89
-304.60
-320.55
-340.08
-361.46
-382.55
-401.93
-419.55
-436.65
-455.39
-478.19
-507.22
-543.87
-587.90
-636.39
-683.36
-720.46
-739.03
-733.01
-701.21
-647.66
-580.04
-506.47
-432.75
-361.03
-290.50
-219.40
-147.36
-76.52
-11.49
42.20
80.08
100.90
107.40
105.44
101.67
100.31
101.72
102.95
100.50
93.00
82.33
71.99
64.18
57.80
49.27
35.84
18.75
3.76
-1.91
5.80
24.57
46.51
62.51
67.47
62.83
54.90
50.52
53.16
61.77
72.68
82.57
90.50
97.20
103.44
108.17
108.20
99.80
80.64
51.18
14.56
-24.65
-62.32
-96.04
-125.33
-150.72
-172.68
-190.76
-203.36
-208.64
-206.19
-198.40
-190.42
-188.31
-196.06
-213.03
-233.71
-249.56
-252.59
-238.42
-207.57
-164.60
-115.90
-67.32
-23.08
14.16
42.87
62.35
72.98
76.73
77.10
78.14
82.83
91.80
103.03
112.60
116.44
112.02
99.53
81.92
64.00
50.77
45.81
50.32
63.16
81.42
101.10
117.93
127.92
128.31
118.53
100.62
78.90
58.38
43.04
34.84
33.42
37.15
44.32
53.87
65.35
78.24
91.34
102.75
110.39
112.68
109.09
100.16
87.34
72.65
58.16
45.49
35.51
28.45
24.29
23.07
24.79
28.95
34.18
38.60
40.80
40.61
39.33
38.84
40.30
43.17
45.19
43.49
36.04
22.71
5.39
-12.90
-29.02
-40.61
-46.48
-46.80
-42.92
-37.12
-32.17
-30.85
-35.28
-46.50
-64.19
-86.50
-110.41
-132.43
-149.40
-159.25
-161.25
-155.76
-143.63
-125.91
-103.70
-78.41
-52.14
-28.03
-10.08
-2.62
-9.10
-30.50
-64.40
-104.63
-142.11
-167.24
-173.17
-159.00
-130.87
-100.07
-78.28
-72.44
-81.63
-98.01
-111.09
-112.89
-101.32
-79.90
-54.60
-30.12
-7.72
14.33
38.45
65.43
93.68
119.96
141.10
155.45
163.44
167.32
170.59
176.61
187.21
202.06
218.88
234.80
247.92
257.99
265.89
272.23
275.88
274.10
264.13
245.13
219.07
189.90
161.43
135.66
112.54
91.03
70.65
51.95
35.66
21.46
7.70
-7.63
-24.92
-41.85
-53.97
-57.07
-49.76
-34.66
-17.08
-2.12
7.88
14.15
19.91
27.92
38.77
50.83
61.65
69.66
74.95
78.51
81.06
82.32
81.36
77.72
72.11
66.46
62.86
62.36
64.29
66.77
67.68
65.79
61.20
54.94
47.98
40.55
32.05
21.54
8.66
-5.69
-19.40
-29.86
-35.23
-35.28
-31.47
-26.16
-21.38
-17.81
-14.69
-10.68
-4.83
2.70
10.80
18.03
23.37
26.51
27.73
27.61
26.70
25.45
24.16
22.97
21.83
20.45
18.54
16.10
13.46
11.16
9.62
8.91
8.79
8.95
9.33
10.13
11.63
13.73
15.87
17.35
17.76
17.19
16.12
14.95
13.56
11.36
7.77
2.68
-3.25
-8.97
-13.62
-17.05
-19.98
-23.53
-28.48
-34.73
-41.16
-46.01
-47.65
-45.31
-39.53
-32.04
-25.37
-21.88
-22.93
-28.27
-36.12
-43.86
-49.18
-51.06
-50.12
-48.26
-47.82
-50.47
-56.61
-65.29
-74.61
-82.63
-88.19
-91.18
-92.51
-94.06
-98.50
-109.06
-128.63
-158.45
-196.78
-238.54
-276.44
-303.42
-315.15
-311.23
-294.66
-269.70
-239.58
-205.44
-166.91
-123.66
-76.49
-27.38
21.77
70.40
119.89
173.09
233.12
302.37
381.33
467.77
556.59
640.31
710.59
760.53
786.89
791.05
778.33
755.69
729.22
702.50
676.57
651.10
625.78
601.06
577.69
555.85
534.42
511.18
483.75
450.66
411.92
368.94
323.72
277.94
232.26
186.35
139.38
90.80
40.99
-8.58
-55.69
-98.06
-134.13
-163.39
-186.41
-204.34
-218.36
-229.24
-237.29
-242.53
-245.16
-245.86
-245.86
-246.65
-249.53
-255.20
-263.59
-274.01
-285.54
-297.45
-309.48
-321.88
-335.34
-350.92
-369.87
-393.17
-420.86
-451.25
-480.60
-503.82
-515.90
-513.74
-497.40
-470.03
-436.57
-401.86
-369.16
-339.64
-313.08
-288.76
-266.29
-245.76
-227.33
-211.03
-196.65
-184.05
-173.38
-165.06
-159.44
-156.30
-154.76
-153.52
-151.54
-148.50
-144.95
-141.76
-139.35
-137.16
-133.41
-125.53
-110.78
-87.11
-53.83
-12.00
35.66
85.03
131.55
171.44
202.88
226.44
244.44
259.34
272.07
281.20
283.63
276.08
256.77
226.06
186.10
139.95
91.00
42.96
0.12
-32.74
-51.20
-52.47
-36.41
-5.74
34.87
80.01
124.31
163.01
192.15
208.98
212.53
204.11
187.01
165.42
142.89
121.19
100.17
78.58
55.27
30.05
3.77
-22.26
-46.92
-69.63
-90.18
-108.28
-123.41
-134.84
-142.12
-145.45
-145.70
-144.23
-142.42
-141.31
-141.46
-143.02
-145.85
-149.65
-153.93
-157.93
-160.71
-161.29
-158.90
-153.24
-144.61
-133.76
-121.63
-109.05
-96.48
-84.10
-72.02
-60.50
-49.99
-40.98
-33.65
-27.80
-22.99
-18.86
-15.37
-12.76
-11.18
-10.38
-9.57
-7.75
-4.07
1.65
8.84
16.32
22.63
26.47
27.04
24.29
18.86
11.96
5.02
-0.85
-5.32
-8.91
-12.65
-17.54
-23.86
-31.15
-38.46
-44.88
-50.04
-54.27
-58.16
-61.92
-65.01
-66.33
-65.05
-60.92
-54.31
-45.87
-35.93
-24.23
-9.98
7.59
28.66
51.96
75.70
98.11
117.34
131.11
136.35
129.74
108.91
