1660927960.00
64.000000
-0.00
-0.00
-0.00
-0.00
-0.00
-0.00
-0.00
-0.00
-0.00
-0.00
0.00
0.01
0.01
-0.00
-0.03
-0.05
-0.05
0.00
0.13
0.36
0.66
1.01
1.37
1.72
2.06
2.40
2.79
3.25
3.81
4.44
5.09
5.73
6.32
6.91
7.54
8.28
9.15
10.22
11.40
12.58
13.64
14.58
15.47
16.49
17.86
19.68
22.15
25.05
28.09
31.03
33.74
36.36
39.22
42.74
47.19
52.86
59.35
66.16
72.77
78.97
84.96
91.30
98.64
107.36
117.78
129.25
140.99
152.27
162.85
173.07
183.71
196.01
208.33
222.51
238.82
257.32
277.11
295.84
309.72
314.40
306.35
284.15
249.45
205.53
156.62
106.36
57.03
9.61
-35.62
-78.54
-118.98
-156.72
-192.49
-227.64
-263.64
-301.13
-338.94
-373.84
-401.19
-416.63
-417.65
-404.82
-381.63
-353.08
-323.76
-296.44
-271.73
-248.81
-226.69
-204.93
-184.03
-164.84
-147.82
-132.82
-119.09
-105.84
-92.61
-79.52
-67.11
-56.06
-46.75
-39.07
-32.45
-26.15
-19.63
-12.76
-5.89
0.37
5.51
9.32
12.00
14.03
15.91
17.93
20.11
22.21
23.95
25.11
25.68
25.78
25.65
25.47
25.31
25.17
24.93
24.51
23.88
23.13
22.35
21.66
21.07
20.54
19.96
19.24
18.34
17.31
16.24
15.26
14.45
13.88
13.57
13.52
13.70
14.04
14.45
14.85
15.16
15.36
15.42
15.30
14.95
14.29
13.31
12.10
10.86
9.79
9.09
8.78
8.74
8.78
8.73
8.50
8.12
7.66
7.24
6.90
6.66
6.47
6.29
6.11
5.92
5.75
5.64
5.64
5.77
6.03
6.33
6.56
6.60
6.34
5.78
5.00
4.14
3.38
2.82
2.46
2.21
1.87
1.32
0.48
-0.58
-1.73
-2.80
-3.63
-4.09
-4.13
-3.82
-3.31
-2.85
-2.67
-2.89
-3.49
-4.29
-5.04
-5.58
-5.83
-5.86
-5.77
-5.67
-5.57
-5.48
-5.43
-5.43
-5.55
-5.76
-5.98
-6.09
-5.98
-5.60
-5.01
-4.34
-3.73
-3.23
-2.88
-2.62
-2.41
-2.18
-1.91
-1.56
-1.13
-0.62
-0.06
0.52
1.07
1.56
1.95
2.23
2.38
2.45
2.49
2.54
2.60
2.63
2.53
2.25
1.81
1.33
0.99
0.92
1.18
1.71
2.37
2.98
3.43
3.68
3.72
3.63
3.46
3.28
3.13
3.02
2.94
2.86
2.78
2.71
2.68
2.71
2.81
2.95
3.11
3.25
3.34
3.38
3.34
3.21
2.96
2.62
2.26
1.99
1.91
2.08
2.43
2.84
3.18
3.35
3.33
3.14
2.84
2.48
2.12
1.81
1.66
1.74
2.08
2.61
3.21
3.72
4.01
4.04
3.81
3.40
2.93
2.50
2.17
1.94
1.75
1.50
1.17
0.79
0.46
0.30
0.37
0.66
1.07
1.47
1.78
1.97
2.11
2.26
2.45
2.63
2.73
2.64
2.35
1.92
1.48
1.14
0.97
0.96
1.06
1.22
1.40
1.61
1.84
2.04
2.12
2.00
1.64
1.11
0.50
-0.07
-0.50
-0.76
-0.87
-0.83
-0.66
-0.36
0.06
0.54
0.96
1.25
1.34
1.25
1.07
0.87
0.72
0.65
0.68
0.82
1.07
1.39
1.70
1.90
1.93
1.78
1.56
1.38
1.33
1.44
1.64
1.84
1.96
1.94
1.78
1.47
1.05
0.56
0.09
-0.24
-0.35
-0.19
0.15
0.54
0.84
0.97
0.96
0.92
0.93
1.04
1.20
1.31
1.31
1.21
1.07
0.99
0.98
1.00
0.93
0.68
0.25
-0.27
-0.75
-1.07
-1.18
-1.11
-0.91
-0.67
-0.45
-0.27
-0.12
0.04
0.23
0.47
0.75
1.03
1.25
1.38
1.37
1.24
1.01
0.73
0.48
0.31
0.26
0.34
0.51
0.71
0.90
1.00
0.99
0.82
0.52
0.12
-0.28
-0.58
-0.69
-0.59
-0.34
-0.04
0.23
0.41
0.51
0.57
0.60
0.58
0.46
0.17
-0.27
-0.76
-1.18
-1.40
-1.37
-1.15
-0.84
-0.52
-0.19
0.21
0.69
1.20
1.63
1.84
1.78
1.51
1.20
0.98
0.93
1.03
1.16
1.21
1.11
0.82
0.38
-0.14
-0.64
-1.02
-1.20
-1.15
-0.91
-0.56
-0.19
0.15
0.41
0.60
0.71
0.72
0.64
0.47
0.26
0.04
-0.13
-0.22
-0.20
-0.09
0.08
0.24
0.34
0.33
0.25
0.16
0.17
0.35
0.68
1.08
1.42
1.61
1.61
1.46
1.22
0.97
0.73
0.53
0.37
0.30
0.31
0.39
0.47
0.47
0.32
0.03
-0.35
-0.71
-0.96
-1.03
-0.94
-0.74
-0.50
-0.31
-0.20
-0.18
-0.23
-0.32
-0.40
-0.42
-0.33
-0.13
0.17
0.52
0.84
1.04
1.07
0.91
0.60
0.22
-0.18
-0.53
-0.82
-1.03
-1.14
-1.14
-1.03
-0.82
-0.55
-0.26
0.01
0.22
0.39
0.50
0.56
0.55
0.48
0.39
0.35
0.42
0.60
0.80
0.91
0.83
0.58
0.28
0.08
0.08
0.23
0.39
0.40
0.21
-0.08
-0.25
-0.13
0.28
0.83
1.27
1.38
1.12
0.63
0.12
-0.22
-0.34
-0.33
-0.33
-0.45
-0.67
-0.89
-0.96
-0.81
-0.45
0.01
0.39
0.60
0.60
0.47
0.30
0.17
0.10
0.05
0.00
-0.07
-0.12
-0.11
0.00
0.17
0.33
0.38
0.28
0.08
-0.12
-0.21
-0.14
0.06
0.28
0.42
0.41
0.24
-0.02
-0.29
-0.47
-0.51
-0.38
-0.12
0.19
0.45
0.60
0.60
0.46
0.22
-0.07
-0.38
-0.63
-0.80
-0.83
-0.69
-0.43
-0.12
0.11
0.15
-0.01
-0.32
-0.65
-0.86
-0.88
-0.70
-0.42
-0.17
-0.06
-0.15
-0.42
-0.77
-1.12
-1.37
-1.48
-1.47
-1.37
-1.27
-1.23
-1.30
-1.51
-1.79
-2.04
-2.14
-2.01
-1.67
-1.24
-0.86
-0.66
-0.67
-0.82
-1.00
-1.14
-1.24
-1.34
-1.51
-1.80
-2.22
-2.76
-3.41
-4.15
-4.95
-5.77
-6.55
-7.23
-7.75
-8.08
-8.30
-8.55
-9.03
-9.93
-11.23
-12.67
-13.76
-13.97
-12.98
-10.88
-8.22
-5.81
-4.38
-4.35
-5.67
-7.95
-10.68
-13.46
-16.03
-18.27
-20.05
-21.20
-21.62
-21.33
-20.64
-20.08
-20.33
-22.00
-25.52
-30.95
-38.00
-46.07
-54.52
-62.86
-70.85
-78.44
-85.35
-90.83
-93.68
-92.79
-87.82
-79.77
-70.99
-64.48
-62.85
-67.53
-78.51
-94.76
-114.67
-136.28
-156.93
-173.11
-180.61
-175.65
-156.19
-123.07
-80.10
-33.02
12.25
51.34
82.37
105.82
123.44
137.06
147.71
155.48
160.03
161.19
159.40
155.67
151.20
146.94
143.27
140.16
137.48
135.34
134.10
134.20
135.74
138.36
141.35
143.99
145.93
147.37
148.95
151.41
155.22
160.21
165.68
170.55
173.84
175.03
174.43
173.18
172.82
174.66
178.78
183.49
185.47
180.60
165.28
137.63
98.17
49.82
-2.72
-54.00
-98.86
-133.43
-155.75
-166.00
-166.19
-159.40
-148.80
-136.90
-125.23
-114.44
-104.67
-95.90
-87.91
-80.29
-72.39
-63.51
-53.29
-42.06
-31.00
-21.88
-16.55
-16.08
-20.29
-27.77
-36.46
-44.51
-50.96
-55.83
-59.68
-62.91
-65.36
-66.38
-65.36
-62.20
-57.48
-52.20
-47.29
-43.23
-39.98
-37.18
-34.43
-31.50
-28.37
-25.21
-22.24
-19.66
-17.55
-15.84
-14.38
-12.97
-11.49
-9.96
-8.49
-7.23
-6.27
-5.58
-5.01
-4.42
-3.73
-2.97
-2.26
-1.75
-1.48
-1.41
-1.39
-1.29
-1.06
-0.72
-0.38
-0.11
0.05
0.16
0.32
0.61
1.07
1.63
2.13
2.38
2.28
1.86
1.28
0.73
0.30
-0.11
-0.75
-1.85
-3.46
-5.35
-7.07
-8.19
-8.48
-8.02
-7.13
-6.17
-5.39
-4.82
-4.40
-4.02
-3.66
-3.36
-3.24
-3.30
-3.49
-3.64
-3.59
-3.21
-2.52
-1.65
-0.76
0.00
0.58
0.99
1.29
1.54
1.73
1.85
1.87
1.82
1.76
1.76
1.89
2.15
2.51
2.90
3.27
3.54
3.66
3.58
3.27
2.76
2.08
1.36
0.70
0.20
-0.14
-0.34
-0.48
-0.65
-0.89
-1.19
-1.51
-1.79
-2.00
-2.14
-2.21
-2.23
-2.19
-2.07
-1.85
-1.53
-1.16
-0.84
-0.68
-0.76
-1.12
-1.66
-2.23
-2.64
-2.74
-2.49
-1.95
-1.28
-0.65
-0.21
-0.03
-0.05
-0.20
-0.31
-0.28
-0.04
0.43
1.08
1.81
2.48
2.92
2.94
2.42
1.36
-0.08
-1.62
-2.91
-3.67
-3.79
-3.35
-2.55
-1.60
-0.68
0.08
0.65
0.97
1.02
0.83
0.47
0.06
-0.25
-0.38
-0.31
-0.09
0.22
0.56
0.92
1.25
1.49
1.58
1.49
1.26
1.02
0.88
0.90
1.07
1.32
1.58
1.80
1.98
2.12
2.20
2.17
1.96
1.56
1.00
0.39
-0.17
-0.60
-0.86
-0.98
-1.00
-1.01
-1.03
-1.11
-1.24
-1.38
-1.47
-1.47
-1.37
-1.19
-0.99
-0.83
-0.75
-0.78
-0.93
-1.24
-1.72
-2.35
-3.04
-3.62
-3.92
-3.85
-3.45
-2.88
-2.32
-1.90
-1.58
-1.21
-0.61
0.32
1.53
2.82
3.97
4.76
5.12
5.06
4.63
3.89
2.92
1.79
0.65
-0.32
-0.98
-1.30
-1.36
-1.29
-1.24
-1.24
-1.23
-1.10
-0.76
-0.25
0.32
0.79
1.03
1.03
0.86
0.64
0.48
0.45
0.53
0.70
0.88
1.04
1.13
1.16
1.16
1.14
1.13
1.14
1.17
1.23
1.32
1.45
1.57
1.57
1.37
0.90
0.19
-0.63
-1.38
-1.89
-2.09
-1.97
-1.62
-1.17
-0.73
-0.42
-0.29
-0.35
-0.55
-0.76
-0.89
-0.86
-0.71
-0.56
-0.54
-0.71
-1.07
-1.53
-2.00
-2.43
-2.79
-3.09
-3.33
-3.47
-3.50
-3.41
-3.21
-2.94
-2.57
-2.03
-1.23
-0.10
1.29
2.76
4.01
4.77
4.86
4.29
3.24
2.02
0.93
0.14
-0.28
-0.38
-0.28
-0.04
0.27
0.61
0.92
1.12
1.16
1.00
0.72
0.43
0.27
0.28
0.44
0.66
0.81
0.89
0.93
1.05
1.30
1.65
1.97
2.10
1.97
1.63
1.25
1.00
0.98
1.15
1.38
1.51
1.51
1.41
1.29
1.19
1.09
0.86
0.43
-0.17
-0.76
-1.17
-1.24
-1.01
-0.67
-0.46
-0.56
-0.96
-1.53
-2.05
-2.38
-2.49
-2.48
-2.48
-2.60
-2.85
-3.16
-3.43
-3.58
-3.55
-3.34
-2.99
-2.53
-2.02
-1.51
-1.05
-0.64
-0.22
0.31
1.08
2.12
3.32
4.47
5.26
5.45
4.94
3.82
2.30
0.68
-0.77
-1.86
-2.51
-2.71
-2.56
-2.17
-1.66
-1.11
-0.60
-0.14
0.25
0.55
0.78
0.94
1.05
1.16
1.25
1.34
1.40
1.43
1.42
1.41
1.41
1.44
1.47
1.46
1.38
1.26
1.13
1.04
1.04
1.12
1.28
1.50
1.73
1.94
2.06
2.04
1.86
1.53
1.08
0.60
0.16
-0.19
-0.44
-0.61
-0.72
-0.81
-0.90
-1.00
-1.15
-1.40
-1.74
-2.13
-2.48
-2.66
-2.64
-2.44
-2.16
-1.97
-2.01
-2.32
-2.83
-3.40
-3.83
-3.96
-3.72
-3.13
-2.30
-1.39
-0.55
0.11
0.57
0.84
0.99
1.09
1.20
1.37
1.65
2.08
2.64
3.26
3.82
4.17
4.21
3.88
3.21
2.30
1.30
0.36
-0.34
-0.70
-0.71
-0.45
-0.07
0.22
0.30
0.10
-0.30
-0.78
-1.22
-1.53
-1.68
-1.71
-1.66
-1.55
-1.40
-1.22
-0.99
-0.74
-0.47
-0.18
0.16
0.56
0.97
1.31
1.50
1.47
1.28
1.08
1.00
1.14
1.44
1.75
1.90
1.79
1.47
1.06
0.70
0.45
0.31
0.19
0.03
-0.23
-0.60
-1.03
-1.45
-1.80
-2.01
-2.04
-1.92
-1.71
-1.50
-1.36
-1.31
-1.34
-1.46
-1.64
-1.89
-2.19
-2.47
-2.69
-2.81
-2.86
-2.92
-3.09
-3.45
-3.98
-4.56
-5.06
-5.35
-5.39
-5.27
-5.16
-5.25
-5.69
-6.48
-7.52
-8.60
-9.54
-10.22
-10.70
-11.14
-11.78
-12.86
-14.50
-16.70
-19.29
-22.02
-24.59
-26.87
-28.92
-31.03
-33.58
-36.87
-40.95
-45.48
-49.92
-53.70
-56.61
-58.91
-61.32
-64.69
-69.59
-75.98
-83.20
-90.23
-96.13
-100.48
-103.42
-105.53
-107.66
-110.70
-115.59
-123.07
-133.10
-144.17
-153.00
-155.24
-147.02
-126.69
-95.66
-57.92
-18.27
19.77
55.14
89.06
123.46
159.22
194.99
227.44
252.68
267.94
272.87
269.67
262.18
254.45
249.44
248.27
250.53
254.72
258.85
260.72
258.04
248.89
232.67
210.83
187.04
165.83
150.49
141.11
134.02
123.01
102.06
68.04
22.20
-30.29
-82.27
-127.16
-160.76
-182.00
-192.35
-194.66
-191.85
-186.18
-179.06
-171.33
-163.67
-156.75
-151.14
-147.06
-144.22
-141.98
-139.71
-137.04
-133.85
-129.79
-123.86
-114.46
-99.92
-79.56
-54.44
-27.39
-2.22
17.70
30.55
36.44
36.93
34.03
29.40
24.05
18.63
13.78
10.26
8.59
8.61
9.23
8.82
6.14
1.19
-4.68
-9.64
-12.97
-16.14
-22.70
-36.71
-60.59
-93.70
-132.22
-170.36
-202.26
-223.24
-230.21
-221.39
-196.25
-156.03
-104.66
-48.96
2.55
42.26
66.29
76.18
78.09
79.99
88.22
104.96
127.86
151.80
171.66
184.54
190.40
191.29
189.53
186.63
183.03
178.71
174.00
169.92
167.83
168.66
172.40
178.05
184.04
188.86
191.64
192.40
191.89
190.92
189.58
186.57
179.17
163.80
137.40
98.91
50.33
-3.38
-55.69
-100.51
-133.99
-155.36
-166.38
-169.98
-168.83
-164.57
-157.90
-149.15
-138.91
-128.17
-118.08
-109.41
-102.24
-96.03
-90.02
-83.71
-77.05
-70.41
-64.30
-59.14
-54.97
-51.46
-48.12
-44.50
-40.35
-35.82
-31.27
-27.19
-23.93
-21.53
-19.82
-18.44
-17.11
-15.65
-14.06
-12.46
-10.97
-9.66
-8.53
-7.57
-6.75
-6.06
-5.49
-5.07
-4.77
-4.57
-4.37
-4.03
-3.38
-2.39
-1.19
-0.13
0.36
-0.00
-1.19
-2.84
-4.37
-5.25
-5.20
-4.26
-2.74
-1.02
0.58
1.83
2.61
2.92
2.78
2.33
1.77
1.31
1.10
1.18
1.49
1.91
2.35
2.76
3.09
3.30
3.33
3.15
2.77
2.32
1.94
1.77
1.82
1.94
1.92
1.55
0.72
-0.56
-2.20
-4.08
-6.04
-7.97
-9.75
-11.28
-12.61
-13.92
-15.53
-17.84
-21.13
-25.42
-30.46
-35.78
-40.92
-45.64
-50.01
-54.36
-59.14
-64.73
-71.25
-78.51
-86.13
-93.73
-101.05
-108.06
-114.85
-121.52
-128.11
-134.75
-141.81
-149.97
-159.72
-170.62
-180.72
-186.58
-184.15
-170.20
-143.51
-105.11
-57.60
-4.08
52.57
109.58
163.80
211.47
248.79
273.27
284.87
286.23
281.70
275.54
270.42
266.86
263.96
260.51
256.20
251.92
249.24
249.45
252.56
256.84
259.04
255.27
242.07
217.48
181.45
135.84
83.94
29.80
-22.43
-69.03
-107.13
-135.03
-152.34
-159.97
-159.81
-154.28
-145.83
-136.50
-127.78
-120.45
-114.62
-109.87
-105.47
-100.67
-95.06
-88.67
-81.92
-75.39
-69.57
-64.64
-60.44
-56.61
-52.76
-48.64
-44.24
-39.73
-35.38
-31.44
-28.06
-25.27
-22.97
-21.02
-19.22
-17.42
-15.54
-13.57
-11.61
-9.78
-8.19
-6.90
-5.85
-4.98
-4.19
-3.46
-2.79
-2.21
-1.68
-1.16
-0.59
0.00
0.55
0.95
1.12
1.05
0.79
0.42
-0.00
-0.42
-0.80
-1.06
-1.16
-1.07
-0.83
-0.52
-0.27
-0.15
-0.14
-0.18
-0.15
0.01
0.29
0.61
0.87
0.99
0.93
0.73
0.43
0.14
-0.05
-0.06
0.17
0.61
1.17
1.69
2.04
2.18
2.16
2.09
2.09
2.16
2.25
2.29
2.23
2.06
1.85
1.65
1.49
1.37
1.28
1.20
1.13
1.08
1.04
0.99
0.90
0.78
0.69
0.69
0.80
0.97
1.13
1.14
0.95
0.60
0.19
-0.16
-0.36
-0.41
-0.32
-0.16
0.02
0.20
0.34
0.38
0.32
0.17
0.01
-0.06
0.03
0.25
0.51
0.71
0.78
0.72
0.56
0.35
0.13
-0.08
-0.26
-0.36
-0.35
-0.23
-0.05
0.08
0.08
-0.08
-0.34
-0.59
-0.74
-0.73
-0.58
-0.37
-0.17
-0.03
0.04
0.07
0.10
0.12
0.08
-0.07
-0.35
-0.72
-1.04
-1.20
-1.12
-0.80
-0.34
0.13
0.53
0.86
1.15
1.44
1.70
1.79
1.60
1.09
0.34
-0.39
-0.87
-0.95
-0.63
-0.09
0.42
0.73
0.77
0.63
0.43
0.28
0.21
0.15
0.06
-0.11
-0.32
-0.52
-0.65
-0.69
-0.65
-0.58
-0.52
-0.49
-0.48
-0.47
-0.41
-0.28
-0.08
0.16
0.38
0.51
0.50
0.33
0.07
-0.18
-0.32
-0.29
-0.13
0.07
0.22
0.26
0.19
0.08
-0.02
-0.09
-0.18
-0.33
-0.53
-0.72
-0.83
-0.80
-0.66
-0.46
-0.29
-0.18
-0.11
-0.05
0.01
0.07
0.06
-0.01
-0.12
-0.20
-0.16
0.01
0.28
0.54
0.71
0.73
0.61
0.42
0.19
-0.02
-0.19
-0.32
-0.38
-0.38
-0.33
-0.25
-0.17
-0.07
0.07
0.23
0.39
0.46
0.37
0.11
-0.19
-0.42
-0.48
-0.38
-0.25
-0.20
-0.28
-0.43
-0.52
-0.46
-0.24
0.05
0.30
0.44
0.45
0.40
0.33
0.32
0.38
0.48
0.57
0.57
0.44
0.22
0.02
-0.03
0.15
0.50
0.88
1.12
1.09
0.84
0.47
0.15
-0.04
-0.10
-0.08
-0.02
0.04
0.13
0.23
0.31
0.33
0.29
0.21
0.16
0.20
0.35
0.54
0.65
0.58
0.28
-0.16
-0.61
-0.89
-0.93
-0.77
-0.56
-0.46
-0.54
-0.72
-0.85
-0.78
-0.46
0.01
0.46
0.72
0.70
0.50
0.25
0.10
0.10
0.20
0.31
0.33
0.19
-0.10
-0.47
-0.81
-1.01
-0.99
-0.73
-0.32
0.08
0.34
0.35
0.16
-0.14
-0.39
-0.49
-0.42
-0.27
-0.12
-0.04
-0.03
-0.06
-0.09
-0.11
-0.09
-0.05
0.03
0.13
0.23
0.31
0.35
0.35
0.33
0.29
0.21
0.09
-0.07
-0.25
-0.37
-0.39
-0.33
-0.23
-0.18
-0.23
-0.39
-0.60
-0.79
-0.93
-0.98
-0.95
-0.83
-0.63
-0.33
0.02
0.36
0.60
0.69
0.65
0.57
0.55
0.66
0.89
1.11
1.20
1.04
0.67
0.19
-0.25
-0.55
-0.69
-0.72
-0.71
-0.69
-0.64
-0.50
-0.26
0.04
0.29
0.40
0.34
0.16
-0.04
-0.14
-0.08
0.11
0.35
0.53
0.60
0.56
0.42
0.22
-0.01
-0.26
-0.49
-0.63
-0.65
-0.57
-0.45
-0.37
-0.36
-0.40
-0.41
-0.31
-0.06
0.25
0.53
0.65
0.56
0.32
0.04
-0.16
-0.22
-0.13
0.04
0.18
0.22
0.16
0.05
-0.04
-0.02
0.11
0.34
0.58
0.78
0.86
0.81
0.64
0.40
0.15
-0.05
-0.14
-0.10
0.05
0.25
0.43
0.55
0.57
0.48
0.28
-0.01
-0.33
-0.60
-0.71
-0.61
-0.32
0.07
0.43
0.65
0.71
0.66
0.61
0.65
0.79
0.94
0.99
0.83
0.43
-0.12
-0.67
-1.08
-1.28
-1.29
-1.19
-1.03
-0.86
-0.67
-0.47
-0.30
-0.20
-0.25
-0.41
-0.62
-0.77
-0.78
-0.61
-0.32
0.03
0.35
0.59
0.73
0.74
0.61
0.32
-0.05
-0.39
-0.57
-0.48
-0.14
0.33
0.74
0.96
0.93
0.72
0.45
0.23
0.08
-0.05
-0.22
-0.43
-0.59
-0.55
-0.25
0.26
0.83
1.24
1.34
1.12
0.66
0.12
-0.37
-0.70
-0.85
-0.83
-0.70
-0.51
-0.34
-0.24
-0.25
-0.36
-0.49
-0.55
-0.50
-0.35
-0.19
-0.10
-0.14
-0.32
-0.57
-0.78
-0.87
-0.79
-0.54
-0.19
0.16
0.41
0.49
0.38
0.14
-0.14
-0.37
-0.51
-0.58
-0.63
-0.69
-0.75
-0.77
-0.70
-0.52
-0.28
-0.07
-0.01
-0.10
-0.30
-0.47
-0.49
-0.35
-0.13
0.05
0.05
-0.15
-0.50
-0.88
-1.20
-1.40
-1.47
-1.44
-1.30
-1.06
-0.74
-0.42
-0.22
-0.21
-0.42
-0.75
-1.06
-1.21
-1.13
-0.83
-0.38
0.12
0.57
0.91
1.09
1.10
0.98
0.75
0.49
0.23
0.04
-0.06
-0.04
0.09
0.28
0.48
0.65
0.76
0.85
0.95
1.09
1.24
1.38
1.45
1.44
1.36
1.25
1.13
1.00
0.88
0.77
0.68
0.62
0.55
0.46
0.35
0.25
0.24
0.39
0.68
1.02
1.28
1.38
1.29
1.08
0.84
0.63
0.45
0.24
-0.01
-0.27
-0.49
-0.62
-0.63
-0.55
-0.41
-0.26
-0.14
-0.05
-0.02
-0.08
-0.23
-0.45
-0.66
-0.78
-0.72
-0.47
-0.10
0.30
0.59
0.71
0.68
0.55
0.42
0.32
0.26
0.21
0.13
0.04
-0.02
-0.02
0.01
-0.02
-0.20
-0.53
-0.92
-1.19
-1.16
-0.79
-0.21
0.37
0.71
0.70
0.44
0.12
-0.06
0.00
0.23
0.46
0.54
0.40
0.10
-0.22
-0.46
-0.55
-0.54
-0.49
-0.47
-0.47
-0.47
-0.44
-0.41
-0.41
-0.48
-0.62
-0.76
-0.82
-0.70
-0.39
0.08
0.62
1.10
1.44
1.57
1.48
1.21
0.83
0.39
-0.00
-0.30
-0.45
-0.43
-0.26
0.02
0.32
0.55
0.61
0.48
0.19
-0.17
-0.51
-0.71
-0.73
-0.57
-0.28
0.05
0.32
0.46
0.44
0.31
0.12
-0.04
-0.14
-0.17
-0.15
-0.09
0.00
0.14
0.30
0.45
0.51
0.43
0.18
-0.19
-0.57
-0.83
-0.87
-0.68
-0.33
0.06
0.36
0.50
0.49
0.39
0.29
0.22
0.20
0.17
0.10
-0.03
-0.17
-0.26
-0.27
-0.20
-0.12
-0.07
-0.04
0.00
0.13
0.37
0.68
0.95
1.05
0.90
0.54
0.09
-0.29
-0.51
-0.54
-0.48
-0.46
-0.55
-0.75
-0.96
-1.10
-1.09
-0.94
-0.70
-0.45
-0.26
-0.19
-0.24
-0.40
-0.62
-0.82
-0.90
-0.82
-0.57
-0.21
0.18
0.54
0.79
0.87
0.78
0.52
0.18
-0.13
-0.29
-0.23
0.03
0.39
0.69
0.81
0.71
0.43
0.08
-0.23
-0.36
-0.27
0.03
0.48
0.94
1.32
1.53
1.59
1.53
1.41
1.27
1.12
0.93
0.69
0.39
0.09
-0.19
-0.42
-0.57
-0.63
-0.59
-0.46
-0.26
-0.07
0.06
0.06
-0.06
-0.26
-0.44
-0.52
-0.47
-0.32
-0.13
0.04
0.15
0.20
0.20
0.19
0.19
0.23
0.28
0.31
0.27
0.10
-0.16
-0.45
-0.67
-0.72
-0.59
-0.33
-0.06
0.11
0.16
0.13
0.13
0.26
0.54
0.92
1.24
1.36
1.18
0.70
0.04
-0.62
-1.11
-1.28
-1.12
-0.73
-0.26
0.12
0.26
0.12
-0.28
-0.82
-1.34
-1.67
-1.72
-1.48
-1.03
-0.55
-0.22
-0.16
-0.37
-0.75
-1.12
-1.27
-1.09
-0.57
0.12
0.76
1.16
1.23
1.02
0.72
0.50
0.48
0.66
0.91
1.08
1.07
0.84
0.46
0.05
-0.29
-0.48
-0.49
-0.38
-0.24
-0.13
-0.09
-0.10
-0.08
0.05
0.29
0.59
0.87
1.03
1.05
0.93
0.73
0.51
0.29
0.09
-0.08
-0.20
-0.24
-0.20
-0.10
0.01
0.09
0.13
0.14
0.13
0.15
0.20
0.24
0.26
0.23
0.17
0.13
0.15
0.23
0.32
0.35
0.28
0.10
-0.11
-0.28
-0.36
-0.35
-0.30
-0.26
-0.26
-0.33
-0.44
-0.59
-0.75
-0.90
-0.98
-0.97
-0.87
-0.71
-0.55
-0.45
-0.41
-0.42
-0.40
-0.31
-0.13
0.10
0.31
0.45
0.51
0.51
0.47
0.44
0.41
0.35
0.24
0.08
-0.08
-0.17
-0.11
0.09
0.36
0.61
0.72
0.66
0.51
0.37
0.32
0.38
0.47
0.50
0.44
0.29
0.14
0.07
0.09
0.14
0.16
0.10
-0.01
-0.10
-0.10
-0.00
0.18
0.39
0.60
0.77
0.88
0.90
0.81
0.60
0.29
-0.06
-0.39
-0.66
-0.87
-1.03
-1.15
-1.21
-1.15
-0.96
-0.63
-0.23
0.14
0.38
0.42
0.28
0.06
-0.10
-0.11
0.03
0.24
0.40
0.43
0.34
0.23
0.18
0.22
0.32
0.39
0.33
0.13
-0.15
-0.45
-0.68
-0.81
-0.83
-0.73
-0.54
-0.29
-0.04
0.17
0.33
0.41
0.41
0.37
0.29
0.20
0.09
-0.02
-0.15
-0.32
-0.53
-0.73
-0.83
-0.76
-0.49
-0.10
0.27
0.47
0.44
0.24
-0.02
-0.21
-0.26
-0.21
-0.12
-0.08
-0.12
-0.21
-0.27
-0.26
-0.18
-0.07
-0.01
-0.05
-0.18
-0.38
-0.58
-0.71
-0.74
-0.63
-0.38
-0.03
0.34
0.65
0.81
0.78
0.62
0.39
0.21
0.09
0.03
-0.01
-0.05
-0.09
-0.09
-0.06
-0.05
-0.13
-0.33
-0.58
-0.75
-0.73
-0.47
-0.08
0.25
0.37
0.23
-0.07
-0.35
-0.47
-0.36
-0.07
0.26
0.53
0.64
0.60
0.45
0.24
0.04
-0.06
-0.01
0.22
0.60
1.01
1.32
1.39
1.22
0.86
0.45
0.09
-0.15
-0.29
-0.34
-0.33
-0.23
-0.03
0.27
0.62
0.91
1.05
0.98
0.71
0.28
-0.19
-0.60
-0.85
-0.88
-0.70
-0.41
-0.15
-0.02
-0.09
-0.30
-0.58
-0.80
-0.90
-0.86
-0.68
-0.43
-0.15
0.08
0.23
0.27
0.26
0.25
0.26
0.29
0.26
0.11
-0.13
-0.40
-0.57
-0.56
-0.38
-0.13
0.07
0.13
0.08
-0.01
-0.06
-0.03
0.08
0.18
0.24
0.22
0.19
0.20
0.32
0.55
0.82
1.02
1.05
0.86
0.52
0.11
-0.23
-0.42
-0.47
-0.41
-0.30
-0.17
-0.06
0.04
0.12
0.17
0.21
0.23
0.24
0.23
0.20
0.13
0.02
-0.12
-0.25
-0.34
-0.37
-0.36
-0.35
-0.35
-0.36
-0.34
-0.24
-0.08
0.07
0.13
0.03
-0.21
-0.50
-0.73
-0.84
-0.79
-0.64
-0.44
-0.24
-0.05
0.15
0.35
0.53
0.66
0.71
0.72
0.70
0.68
0.63
0.48
0.21
-0.15
-0.50
-0.70
-0.70
-0.51
-0.23
-0.01
0.06
-0.04
-0.22
-0.38
-0.43
-0.35
-0.16
0.05
0.22
0.31
0.31
0.26
0.18
0.08
-0.02
-0.12
-0.20
-0.26
-0.30
-0.32
-0.34
-0.32
-0.23
-0.05
0.21
0.52
0.80
0.97
1.02
0.94
0.76
0.52
0.22
-0.10
-0.41
-0.61
-0.66
-0.53
-0.28
-0.01
0.17
0.22
0.14
-0.02
-0.17
-0.27
-0.27
-0.18
-0.03
0.11
0.17
0.11
-0.09
-0.36
-0.56
-0.58
-0.38
-0.00
0.41
0.69
0.69
0.41
-0.07
-0.58
-0.92
-0.96
-0.71
-0.28
0.16
0.44
0.51
0.39
0.19
0.04
-0.04
-0.07
-0.14
-0.30
-0.52
-0.76
-0.92
-0.97
-0.88
-0.70
-0.42
-0.06
0.39
0.86
1.25
1.44
1.32
0.94
0.44
0.03
-0.15
-0.05
0.22
0.49
0.60
0.53
0.36
0.22
0.22
0.37
0.56
0.67
0.59
0.34
0.06
-0.09
0.01
0.31
0.67
0.90
0.87
0.59
0.20
-0.15
-0.35
-0.39
-0.33
-0.24
-0.16
-0.05
0.06
0.15
0.14
-0.04
-0.35
-0.69
-0.91
-0.89
-0.62
-0.20
0.21
0.43
0.39
0.11
-0.26
-0.56
-0.68
-0.61
-0.42
-0.23
-0.13
-0.12
-0.14
-0.14
-0.08
-0.00
0.04
0.01
-0.07
-0.16
-0.19
-0.17
-0.11
-0.07
-0.06
-0.09
-0.08
0.00
0.20
0.46
0.69
0.81
0.76
0.57
0.33
0.15
0.08
0.07
0.03
-0.13
-0.43
-0.77
-1.01
-1.00
-0.68
-0.15
0.42
0.81
0.90
0.68
0.30
-0.03
-0.18
-0.09
0.13
0.34
0.39
0.27
0.03
-0.23
-0.45
-0.62
-0.75
-0.87
-0.94
-0.87
-0.63
-0.23
0.24
0.67
0.96
1.10
1.11
1.05
0.92
0.74
0.50
0.21
-0.06
-0.27
-0.36
-0.38
-0.36
-0.36
-0.40
-0.46
-0.51
-0.50
-0.45
-0.37
-0.33
-0.35
-0.44
-0.56
-0.66
-0.66
-0.52
-0.24
0.12
0.43
0.61
0.62
0.50
0.33
0.22
0.19
0.21
0.17
-0.00
-0.32
-0.71
-1.04
-1.20
-1.11
-0.80
-0.39
0.00
0.28
0.39
0.39
0.33
0.29
0.28
0.30
0.35
0.40
0.48
0.58
0.69
0.76
0.73
0.60
0.41
0.24
0.17
0.21
0.32
0.40
0.39
0.30
0.19
0.15
0.20
0.29
0.31
0.20
-0.09
-0.49
-0.90
-1.20
-1.30
-1.18
-0.89
-0.52
-0.20
-0.06
-0.11
-0.32
-0.57
-0.72
-0.65
-0.33
0.15
0.68
1.09
1.30
1.27
1.06
0.73
0.38
0.06
-0.19
-0.34
-0.38
-0.28
-0.06
0.24
0.51
0.65
0.59
0.31
-0.11
-0.56
-0.92
-1.11
-1.08
-0.84
-0.45
-0.00
0.41
0.70
0.76
0.59
0.21
-0.24
-0.63
-0.84
-0.81
-0.58
-0.24
0.07
0.26
0.27
0.14
-0.05
-0.20
-0.22
-0.09
0.19
0.54
0.88
1.14
1.22
1.11
0.81
0.43
0.08
-0.12
-0.14
-0.03
0.09
0.10
-0.01
-0.21
-0.38
-0.45
-0.41
-0.31
-0.24
-0.25
-0.36
-0.54
-0.77
-0.96
-1.08
-1.05
-0.88
-0.61
-0.37
-0.28
-0.40
-0.64
-0.84
-0.84
-0.55
-0.06
0.46
0.85
1.03
1.05
0.97
0.84
0.68
0.45
0.19
-0.04
-0.15
-0.13
-0.02
0.05
-0.05
-0.39
-0.94
-1.62
-2.33
-2.97
-3.48
-3.81
-3.99
-4.06
-4.18
-4.50
-5.18
-6.27
-7.66
-9.11
-10.38
-11.29
-11.89
-12.40
-13.17
-14.46
-16.36
-18.69
-21.14
-23.39
-25.29
-26.97
-28.73
-30.95
-33.88
-37.51
-41.59
-45.71
-49.49
-52.78
-55.77
-58.88
-62.67
-67.48
-73.37
-80.11
-87.40
-94.94
-102.37
-109.05
-114.01
-116.39
-116.05
-114.08
-112.36
-112.33
-113.68
-113.85
-108.83
-95.05
-71.28
-39.33
-3.35
32.01
63.28
88.91
108.88
123.71
133.75
139.09
140.05
137.49
132.83
127.63
123.06
119.56
116.86
114.26
111.01
106.64
101.05
94.38
86.90
78.75
70.05
60.94
51.75
42.97
35.19
28.87
24.17
20.99
18.96
17.65
16.62
15.57
14.36
13.10
12.11
11.84
12.71
14.87
18.12
21.93
25.53
28.23
29.70
30.09
30.03
30.43
32.12
35.45
40.07
45.06
49.31
52.12
53.67
54.98
57.59
62.72
70.67
80.51
90.46
98.68
104.13
107.11
109.15
112.39
118.70
129.14
143.61
160.80
178.30
192.85
200.59
197.89
182.68
155.62
120.58
83.58
50.33
23.69
2.23
-18.75
-44.40
-77.01
-114.25
-149.99
-177.28
-191.66
-192.99
-184.94
-172.69
-160.37
-149.69
-140.27
-131.04
-121.66
-112.86
-105.91
-101.65
-99.70
-98.45
-95.81
-90.26
-81.58
-71.03
-60.83
-53.16
-49.18
-48.58
-49.66
-50.21
-48.44
-43.81
-37.26
-30.68
-26.00
-24.26
-25.14
-27.14
-28.37
-27.45
-24.08
-19.03
-13.66
-9.22
-6.37
-5.04
-4.73
-4.91
-5.23
-5.65
-6.18
-6.80
-7.37
-7.66
-7.51
-6.88
-5.86
-4.70
-3.72
-3.15
-3.10
-3.42
-3.72
-3.51
-2.41
-0.37
2.24
4.75
6.40
6.67
5.52
3.38
0.97
-1.02
-2.17
-2.46
-2.14
-1.58
-1.03
-0.61
-0.35
-0.31
-0.64
-1.50
-2.89
-4.52
-5.90
-6.51
-6.05
-4.64
-2.73
-0.91
0.30
0.62
0.08
-1.12
-2.65
-4.22
-5.57
-6.59
-7.31
-7.89
-8.56
-9.43
-10.44
-11.26
-11.44
-10.65
-8.88
-6.49
-4.18
-2.66
-2.39
-3.44
-5.46
-7.93
-10.36
-12.55
-14.59
-16.89
-19.83
-23.65
-28.27
-33.28
-38.08
-42.18
-45.42
-48.13
-51.06
-55.08
-60.78
-68.20
-76.73
-85.40
-93.26
-99.79
-105.04
-109.60
-114.25
-119.78
-126.92
-136.29
-148.28
-162.53
-177.38
-189.69
-195.37
-190.59
-173.19
-143.51
-104.14
-58.62
-9.82
40.96
93.59
147.84
201.88
251.97
293.43
322.49
338.12
342.38
339.61
334.47
330.23
327.97
327.13
326.73
326.37
326.35
326.85
326.81
323.63
313.73
294.03
263.35
222.90
175.57
124.44
71.52
17.72
-36.25
-88.54
-135.66
-173.23
-197.77
-208.32
-207.01
-198.08
-186.09
-174.26
-163.80
-154.36
-145.15
-135.86
-126.86
-118.84
-112.16
-106.52
-101.10
-95.08
-88.06
-80.28
-72.48
-65.50
-59.85
-55.50
-51.93
-48.43
-44.38
-39.62
-34.40
-29.29
-24.84
-21.37
-18.86
-17.03
-15.48
-13.86
-12.00
-9.92
-7.78
-5.78
-4.07
-2.76
-1.84
-1.23
-0.82
-0.49
-0.17
0.17
0.49
0.73
0.87
0.89
0.84
0.79
0.80
0.87
0.99
1.14
1.28
1.40
1.46
1.42
1.32
1.23
1.24
1.42
1.71
1.95
1.89
1.34
0.25
-1.25
-2.91
-4.54
-5.97
-7.18
-8.12
-8.75
-8.97
-8.70
-8.00
-7.00
-5.94
-5.03
-4.40
-4.11
-4.13
-4.30
-4.37
-3.91
-2.56
-0.11
3.27
7.01
10.33
12.55
13.31
12.74
11.28
9.46
7.73
6.29
5.15
4.26
3.58
3.10
2.84
2.81
2.94
3.11
3.18
3.03
2.58
1.84
0.91
-0.07
-0.98
-1.74
-2.33
-2.80
-3.16
-3.45
-3.67
-3.80
-3.82
-3.76
-3.61
-3.41
-3.17
-2.91
-2.66
-2.48
-2.39
-2.41
-2.51
-2.67
-2.85
-3.01
-3.12
-3.09
-2.86
-2.37
-1.66
-0.87
-0.16
0.30
0.50
0.52
0.49
0.49
0.54
0.56
0.48
0.31
0.15
0.11
0.22
0.42
0.59
0.62
0.52
0.36
0.24
0.20
0.21
0.16
-0.00
-0.25
-0.47
-0.56
-0.45
-0.17
0.20
0.59
1.00
1.48
2.06
2.72
3.32
3.68
3.61
3.06
2.08
0.86
-0.36
-1.41
-2.21
-2.78
-3.18
-3.42
-3.47
-3.24
-2.69
-1.86
-0.89
0.02
0.70
1.09
1.19
1.11
0.95
0.78
0.65
0.56
0.48
0.37
0.19
-0.11
-0.53
-1.00
-1.43
-1.65
-1.53
-0.96
0.05
1.39
2.85
4.17
5.10
5.49
5.31
4.63
3.60
2.40
1.19
0.10
-0.78
-1.38
-1.65
-1.63
-1.39
-1.11
-0.98
-1.13
-1.60
-2.26
-2.83
-3.03
-2.64
-1.68
-0.40
0.85
1.71
2.03
1.89
1.51
1.09
0.70
0.25
-0.38
-1.24
-2.18
-2.95
-3.32
-3.23
-2.82
-2.32
-1.91
-1.66
-1.46
-1.23
-0.92
-0.60
-0.34
-0.14
0.06
0.36
0.78
1.19
1.39
1.19
0.59
-0.24
-1.00
-1.43
-1.43
-1.09
-0.60
-0.10
0.34
0.76
1.18
1.60
1.92
2.06
1.94
1.59
1.12
0.63
0.21
-0.10
-0.32
-0.43
-0.36
0.01
0.78
1.95
3.39
4.87
6.06
6.71
6.70
6.07
5.03
3.81
2.66
1.72
0.98
0.38
-0.22
-0.92
-1.74
-2.61
-3.43
-4.10
-4.62
-5.02
-5.36
-5.68
-5.96
-6.15
-6.23
-6.23
-6.25
-6.38
-6.67
-7.12
-7.66
-8.23
-8.79
-9.40
-10.11
-10.93
-11.79
-12.56
-13.07
-13.21
-12.95
-12.33
-11.40
-10.22
-8.91
-7.70
-6.93
