1660929346.00
64.000000
-0.00
-0.00
-0.00
-0.00
-0.00
-0.00
-0.00
-0.00
-0.00
-0.00
0.00
0.01
0.01
-0.00
-0.03
-0.05
-0.05
0.00
0.13
0.36
0.66
1.01
1.37
1.72
2.06
2.40
2.79
3.25
3.81
4.44
5.10
5.73
6.32
6.90
7.52
8.26
9.15
10.28
11.52
12.76
13.88
14.85
15.74
16.74
18.10
19.93
22.44
25.40
28.52
31.52
34.25
36.85
39.67
43.18
47.66
53.44
60.10
67.08
73.82
80.06
86.00
92.25
99.56
108.38
119.10
131.03
143.25
154.91
165.64
175.78
186.22
198.42
210.95
225.72
242.93
262.42
282.99
302.06
315.84
320.17
311.90
289.94
256.11
213.61
166.26
117.27
68.59
21.17
-24.49
-67.86
-108.37
-145.53
-179.92
-212.87
-246.10
-280.93
-317.35
-353.45
-385.50
-409.07
-420.34
-417.73
-402.54
-378.49
-350.18
-321.46
-294.42
-269.36
-245.70
-222.81
-200.84
-180.44
-162.19
-146.13
-131.65
-117.83
-103.98
-89.96
-76.16
-63.32
-52.07
-42.63
-34.73
-27.77
-21.11
-14.38
-7.61
-1.18
4.42
8.79
11.84
13.80
15.15
16.36
17.79
19.53
21.42
23.18
24.52
25.28
25.51
25.38
25.12
24.89
24.72
24.56
24.29
23.84
23.21
22.51
21.84
21.27
20.81
20.38
19.92
19.37
18.74
18.06
17.38
16.71
16.10
15.53
15.03
14.58
14.20
13.83
13.43
12.97
12.46
11.95
11.53
11.25
11.10
11.03
10.97
10.88
10.76
10.66
10.62
10.64
10.64
10.54
10.30
9.94
9.56
9.26
9.06
8.91
8.69
8.32
7.79
7.19
6.64
6.24
6.00
5.81
5.55
5.18
4.73
4.32
4.03
3.89
3.79
3.63
3.33
2.88
2.33
1.77
1.20
0.63
0.01
-0.62
-1.19
-1.64
-1.96
-2.22
-2.55
-3.05
-3.72
-4.51
-5.32
-6.07
-6.74
-7.35
-7.88
-8.30
-8.57
-8.69
-8.72
-8.78
-8.96
-9.24
-9.51
-9.60
-9.40
-8.90
-8.19
-7.40
-6.58
-5.74
-4.84
-3.91
-3.05
-2.39
-2.04
-1.98
-2.07
-2.14
-2.03
-1.71
-1.23
-0.69
-0.16
0.34
0.83
1.34
1.83
2.23
2.48
2.57
2.55
2.53
2.60
2.76
2.96
3.11
3.15
3.08
3.01
3.02
3.20
3.57
4.09
4.68
5.22
5.59
5.70
5.50
5.03
4.44
3.93
3.66
3.69
3.95
4.30
4.55
4.59
4.40
4.05
3.70
3.47
3.50
3.81
4.37
5.04
5.68
6.15
6.39
6.43
6.40
6.40
6.52
6.74
6.95
7.02
6.82
6.27
5.41
4.34
3.20
2.13
1.22
0.53
0.07
-0.21
-0.37
-0.53
-0.70
-0.88
-0.92
-0.68
-0.06
0.86
1.85
2.58
2.80
2.48
1.79
1.03
0.43
0.05
-0.20
-0.51
-0.96
-1.45
-1.77
-1.68
-1.10
-0.13
0.98
1.93
2.53
2.74
2.68
2.54
2.46
2.50
2.58
2.60
2.44
2.11
1.68
1.28
1.00
0.84
0.69
0.43
0.01
-0.50
-0.92
-1.08
-0.92
-0.49
0.01
0.41
0.63
0.71
0.73
0.77
0.84
0.90
0.95
1.01
1.12
1.31
1.51
1.66
1.67
1.52
1.28
1.02
0.78
0.56
0.32
0.07
-0.15
-0.25
-0.16
0.11
0.49
0.85
1.09
1.20
1.19
1.13
1.06
0.97
0.86
0.72
0.59
0.51
0.51
0.60
0.76
0.94
1.07
1.10
1.02
0.84
0.62
0.45
0.41
0.54
0.82
1.13
1.38
1.48
1.44
1.33
1.23
1.20
1.21
1.23
1.20
1.13
1.05
1.00
0.97
0.94
0.85
0.68
0.44
0.23
0.12
0.15
0.28
0.39
0.38
0.16
-0.24
-0.70
-1.08
-1.24
-1.16
-0.89
-0.52
-0.20
0.02
0.16
0.27
0.42
0.62
0.83
0.98
1.01
0.94
0.81
0.66
0.55
0.48
0.42
0.37
0.32
0.29
0.32
0.44
0.65
0.91
1.14
1.24
1.16
0.88
0.51
0.18
-0.02
-0.06
-0.02
-0.01
-0.10
-0.27
-0.46
-0.59
-0.64
-0.62
-0.56
-0.48
-0.37
-0.17
0.07
0.31
0.47
0.51
0.46
0.39
0.38
0.45
0.53
0.56
0.51
0.42
0.36
0.41
0.54
0.70
0.79
0.78
0.72
0.69
0.75
0.86
0.94
0.86
0.63
0.30
0.00
-0.15
-0.15
-0.08
-0.06
-0.15
-0.33
-0.50
-0.57
-0.51
-0.37
-0.25
-0.18
-0.15
-0.07
0.13
0.45
0.81
1.08
1.15
0.99
0.66
0.31
0.09
0.07
0.25
0.54
0.80
0.92
0.87
0.67
0.39
0.13
-0.05
-0.13
-0.08
0.13
0.48
0.92
1.33
1.56
1.47
1.06
0.44
-0.14
-0.49
-0.50
-0.24
0.11
0.36
0.40
0.27
0.07
-0.05
-0.06
-0.01
-0.00
-0.13
-0.38
-0.65
-0.80
-0.75
-0.52
-0.23
-0.01
0.07
0.03
-0.08
-0.16
-0.19
-0.17
-0.09
0.01
0.15
0.32
0.49
0.59
0.58
0.42
0.17
-0.12
-0.36
-0.49
-0.50
-0.40
-0.21
0.06
0.39
0.73
1.02
1.20
1.22
1.08
0.83
0.57
0.40
0.34
0.36
0.41
0.42
0.38
0.29
0.18
0.04
-0.17
-0.42
-0.69
-0.87
-0.90
-0.74
-0.45
-0.17
-0.00
-0.02
-0.22
-0.48
-0.69
-0.77
-0.69
-0.51
-0.32
-0.19
-0.12
-0.08
-0.02
0.10
0.25
0.37
0.39
0.28
0.08
-0.16
-0.40
-0.62
-0.81
-0.95
-1.01
-0.92
-0.67
-0.28
0.15
0.49
0.67
0.69
0.60
0.48
0.37
0.30
0.23
0.16
0.07
-0.02
-0.07
-0.06
0.03
0.19
0.37
0.51
0.55
0.45
0.26
0.07
0.01
0.16
0.52
1.00
1.46
1.78
1.89
1.77
1.48
1.08
0.64
0.24
-0.03
-0.15
-0.15
-0.12
-0.15
-0.28
-0.47
-0.58
-0.50
-0.18
0.28
0.72
0.97
0.96
0.72
0.38
0.05
-0.21
-0.38
-0.48
-0.49
-0.43
-0.33
-0.25
-0.26
-0.36
-0.52
-0.64
-0.63
-0.46
-0.20
0.06
0.23
0.28
0.22
0.08
-0.09
-0.28
-0.47
-0.65
-0.81
-0.90
-0.89
-0.75
-0.51
-0.23
-0.01
0.09
0.06
-0.04
-0.10
-0.04
0.15
0.41
0.65
0.84
0.99
1.11
1.21
1.21
1.02
0.60
-0.01
-0.65
-1.15
-1.34
-1.20
-0.77
-0.20
0.35
0.74
0.88
0.75
0.40
-0.06
-0.47
-0.71
-0.72
-0.54
-0.29
-0.10
-0.05
-0.17
-0.38
-0.58
-0.69
-0.66
-0.54
-0.40
-0.31
-0.27
-0.24
-0.17
0.01
0.28
0.59
0.85
1.01
1.01
0.89
0.70
0.50
0.35
0.28
0.28
0.31
0.29
0.22
0.11
-0.01
-0.06
-0.06
-0.00
0.05
0.08
0.09
0.11
0.16
0.23
0.27
0.24
0.09
-0.15
-0.41
-0.60
-0.65
-0.51
-0.24
0.11
0.45
0.72
0.89
0.96
0.94
0.83
0.64
0.39
0.13
-0.10
-0.27
-0.36
-0.40
-0.44
-0.48
-0.50
-0.46
-0.32
-0.11
0.10
0.24
0.24
0.12
-0.02
-0.12
-0.12
-0.03
0.11
0.23
0.31
0.32
0.30
0.27
0.23
0.21
0.20
0.20
0.22
0.22
0.20
0.17
0.15
0.18
0.32
0.56
0.86
1.15
1.32
1.31
1.10
0.71
0.19
-0.37
-0.85
-1.19
-1.35
-1.34
-1.19
-0.98
-0.76
-0.58
-0.43
-0.31
-0.20
-0.10
-0.02
0.03
0.03
-0.01
-0.08
-0.15
-0.20
-0.20
-0.17
-0.10
0.01
0.17
0.36
0.57
0.72
0.76
0.66
0.44
0.18
-0.04
-0.17
-0.20
-0.17
-0.12
-0.08
-0.04
-0.00
0.01
-0.02
-0.10
-0.22
-0.33
-0.39
-0.38
-0.32
-0.25
-0.24
-0.31
-0.44
-0.56
-0.59
-0.48
-0.24
0.05
0.29
0.38
0.32
0.16
0.01
-0.05
-0.03
-0.01
-0.08
-0.26
-0.51
-0.69
-0.68
-0.45
-0.08
0.30
0.53
0.57
0.42
0.17
-0.10
-0.32
-0.47
-0.51
-0.47
-0.34
-0.16
0.05
0.26
0.42
0.52
0.52
0.39
0.16
-0.10
-0.28
-0.30
-0.12
0.16
0.39
0.45
0.31
0.07
-0.12
-0.15
-0.01
0.22
0.44
0.59
0.72
0.86
1.02
1.14
1.12
0.92
0.55
0.13
-0.17
-0.26
-0.12
0.16
0.45
0.62
0.63
0.48
0.21
-0.11
-0.40
-0.63
-0.76
-0.78
-0.68
-0.50
-0.26
-0.01
0.21
0.34
0.37
0.30
0.18
0.01
-0.16
-0.32
-0.45
-0.50
-0.47
-0.33
-0.12
0.11
0.31
0.42
0.46
0.47
0.52
0.63
0.77
0.87
0.85
0.70
0.43
0.17
-0.01
-0.07
-0.04
-0.02
-0.08
-0.24
-0.41
-0.50
-0.40
-0.15
0.14
0.28
0.14
-0.25
-0.74
-1.14
-1.25
-1.04
-0.62
-0.17
0.11
0.16
0.01
-0.24
-0.49
-0.69
-0.84
-0.96
-1.01
-0.92
-0.65
-0.19
0.39
0.94
1.32
1.41
1.19
0.73
0.17
-0.35
-0.69
-0.79
-0.65
-0.39
-0.15
-0.05
-0.20
-0.62
-1.23
-1.95
-2.66
-3.25
-3.65
-3.85
-3.94
-4.05
-4.30
-4.75
-5.34
-5.88
-6.20
-6.16
-5.79
-5.22
-4.69
-4.41
-4.50
-4.96
-5.62
-6.21
-6.49
-6.32
-5.80
-5.26
-5.16
-5.84
-7.38
-9.42
-11.36
-12.56
-12.67
-11.87
-10.84
-10.52
-11.72
-14.75
-19.18
-23.86
-27.34
-28.41
-26.77
-23.29
-19.80
-18.35
-20.20
-25.18
-31.66
-37.32
-40.32
-40.19
-37.94
-35.51
-34.89
-37.32
-43.05
-51.30
-60.06
-65.99
-64.61
-51.51
-24.36
15.09
60.35
101.71
129.75
138.97
129.94
108.53
82.99
60.32
44.05
34.25
29.11
26.66
25.60
24.96
23.45
19.40
11.32
-1.00
-16.10
-31.30
-43.96
-52.74
-58.18
-62.27
-67.32
-74.90
-85.18
-97.07
-108.88
-119.11
-127.08
-133.15
-138.47
-144.44
-152.14
-161.74
-172.16
-181.01
-184.88
-180.23
-164.62
-137.83
-102.48
-63.66
-27.35
1.75
22.07
35.88
48.11
64.01
86.62
115.34
146.36
174.50
195.61
208.08
213.11
213.54
212.29
211.24
210.97
211.38
212.48
214.74
218.91
225.38
233.64
242.27
249.32
253.18
253.32
250.75
247.61
246.11
247.13
249.34
249.27
242.55
225.70
197.59
159.69
115.02
66.59
16.30
-34.86
-85.70
-133.73
-175.00
-205.29
-221.92
-225.11
-218.00
-205.28
-191.31
-178.65
-167.84
-158.05
-148.34
-138.44
-128.83
-120.22
-112.95
-106.67
-100.50
-93.62
-85.63
-76.86
-68.19
-60.54
-54.47
-49.91
-46.22
-42.62
-38.57
-34.02
-29.38
-25.26
-22.12
-20.08
-18.88
-18.03
-17.03
-15.57
-13.60
-11.32
-9.08
-7.15
-5.71
-4.68
-3.85
-3.01
-2.02
-0.93
0.03
0.64
0.74
0.35
-0.35
-1.12
-1.77
-2.25
-2.60
-2.94
-3.34
-3.75
-4.05
-4.11
-3.86
-3.37
-2.77
-2.22
-1.83
-1.58
-1.43
-1.28
-1.11
-0.92
-0.74
-0.62
-0.60
-0.70
-0.99
-1.49
-2.24
-3.16
-4.13
-4.96
-5.47
-5.52
-5.08
-4.25
-3.23
-2.24
-1.45
-0.92
-0.59
-0.36
-0.14
0.06
0.15
0.04
-0.28
-0.72
-1.09
-1.19
-0.93
-0.32
0.45
1.18
1.67
1.82
1.68
1.39
1.10
0.96
1.05
1.38
1.88
2.45
2.96
3.30
3.38
3.20
2.83
2.37
1.91
1.50
1.13
0.79
0.44
0.10
-0.22
-0.54
-0.89
-1.34
-1.88
-2.44
-2.84
-2.93
-2.62
-1.97
-1.19
-0.52
-0.18
-0.24
-0.63
-1.17
-1.69
-2.03
-2.17
-2.12
-1.95
-1.75
-1.54
-1.34
-1.13
-0.92
-0.69
-0.43
-0.13
0.21
0.62
1.06
1.51
1.88
2.07
1.96
1.51
0.77
-0.12
-0.93
-1.47
-1.64
-1.46
-1.06
-0.59
-0.14
0.26
0.60
0.89
1.05
1.02
0.75
0.32
-0.12
-0.39
-0.33
0.05
0.67
1.35
1.93
2.29
2.41
2.32
2.09
1.82
1.59
1.49
1.54
1.73
2.00
2.24
2.37
2.33
2.10
1.73
1.25
0.71
0.13
-0.47
-1.06
-1.57
-1.89
-1.96
-1.78
-1.43
-1.06
-0.80
-0.75
-0.92
-1.20
-1.48
-1.65
-1.65
-1.51
-1.29
-1.09
-0.98
-1.02
-1.21
-1.46
-1.66
-1.69
-1.51
-1.18
-0.82
-0.51
-0.30
-0.17
-0.05
0.10
0.26
0.39
0.45
0.44
0.36
0.25
0.09
-0.08
-0.25
-0.38
-0.41
-0.32
-0.14
0.05
0.17
0.18
0.12
0.06
0.08
0.20
0.35
0.42
0.30
0.02
-0.31
-0.48
-0.33
0.19
0.95
1.70
2.22
2.37
2.19
1.83
1.46
1.20
1.09
1.11
1.23
1.41
1.61
1.81
1.96
2.01
1.89
1.58
1.07
0.41
-0.27
-0.88
-1.29
-1.51
-1.54
-1.48
-1.35
-1.15
-0.81
-0.32
0.25
0.76
1.04
0.97
0.56
-0.12
-0.92
-1.72
-2.46
-3.09
-3.60
-3.95
-4.09
-3.98
-3.63
-3.08
-2.44
-1.81
-1.29
-0.89
-0.61
-0.37
-0.09
0.31
0.89
1.64
2.47
3.24
3.76
3.88
3.55
2.81
1.83
0.82
-0.01
-0.55
-0.74
-0.62
-0.25
0.26
0.79
1.20
1.39
1.30
0.96
0.50
0.04
-0.27
-0.39
-0.33
-0.14
0.12
0.39
0.64
0.86
1.03
1.14
1.21
1.28
1.37
1.48
1.59
1.63
1.58
1.45
1.28
1.11
0.94
0.73
0.41
-0.04
-0.55
-1.04
-1.37
-1.50
-1.43
-1.23
-0.98
-0.75
-0.60
-0.58
-0.70
-0.93
-1.23
-1.55
-1.89
-2.24
-2.62
-2.98
-3.26
-3.36
-3.22
-2.83
-2.25
-1.59
-0.94
-0.39
0.02
0.26
0.38
0.39
0.39
0.43
0.58
0.87
1.27
1.69
2.01
2.14
2.01
1.65
1.13
0.61
0.20
0.02
0.05
0.20
0.35
0.39
0.29
0.06
-0.21
-0.49
-0.71
-0.87
-0.96
-0.95
-0.85
-0.64
-0.34
0.05
0.50
1.00
1.49
1.91
2.15
2.17
1.93
1.50
1.03
0.64
0.45
0.47
0.67
0.97
1.28
1.54
1.68
1.65
1.42
1.01
0.52
0.07
-0.18
-0.16
0.09
0.45
0.76
0.87
0.72
0.32
-0.26
-0.90
-1.52
-2.03
-2.38
-2.53
-2.50
-2.37
-2.24
-2.21
-2.36
-2.68
-3.10
-3.53
-3.85
-3.96
-3.81
-3.37
-2.65
-1.69
-0.53
0.71
1.88
2.79
3.27
3.25
2.77
2.04
1.28
0.70
0.42
0.44
0.66
0.99
1.34
1.67
1.97
2.19
2.29
2.22
1.99
1.64
1.31
1.11
1.10
1.28
1.54
1.77
1.88
1.88
1.77
1.60
1.39
1.17
0.99
0.93
1.07
1.43
1.87
2.17
2.08
1.42
0.22
-1.27
-2.72
-3.80
-4.40
-4.58
-4.52
-4.43
-4.41
-4.41
-4.32
-4.04
-3.59
-3.08
-2.70
-2.54
-2.56
-2.63
-2.62
-2.50
-2.42
-2.50
-2.71
-2.81
-2.40
-1.20
0.69
2.75
4.27
4.73
4.02
2.54
0.85
-0.58
-1.70
-2.70
-3.83
-5.12
-6.31
-6.98
-6.86
-5.99
-4.76
-3.75
-3.52
-4.44
-6.58
-9.72
-13.47
-17.37
-21.02
-24.21
-27.01
-29.79
-33.08
-37.32
-42.63
-48.66
-54.65
-59.83
-63.80
-66.74
-69.27
-72.16
-75.84
-80.21
-84.94
-89.62
-94.24
-99.21
-105.18
-112.79
-122.48
-134.70
-150.02
-168.83
-190.67
-213.43
-233.25
-245.23
-245.20
-231.23
-204.43
-168.28
-126.97
-83.52
-38.74
8.29
58.62
111.47
163.45
209.14
243.06
261.89
265.80
258.17
243.94
227.76
212.19
197.72
183.54
168.97
154.29
140.62
129.15
120.23
113.02
105.98
97.73
87.84
76.99
66.70
58.43
52.92
49.85
48.05
46.02
42.64
37.64
31.60
25.63
20.80
17.69
16.11
15.35
14.49
12.90
10.41
7.37
4.33
1.77
-0.07
-1.26
-1.98
-2.43
-2.66
-2.63
-2.30
-1.66
-0.82
0.09
0.97
1.79
2.61
3.58
4.85
6.52
8.61
10.99
13.41
15.59
17.41
19.03
20.92
23.71
27.91
33.64
40.43
47.38
53.41
57.77
60.33
61.80
63.54
67.10
73.67
83.56
96.03
109.53
122.23
132.76
140.70
146.79
152.59
159.96
170.42
184.61
201.87
220.10
236.00
245.79
246.21
235.56
214.24
184.49
149.48
112.12
74.04
35.34
-4.89
-47.52
-92.23
-136.91
-177.90
-211.08
-233.21
-243.16
-242.19
-233.43
-220.71
-207.21
-194.79
-183.93
-174.35
-165.67
-157.74
-150.60
-144.06
-137.59
-130.39
-121.78
-111.62
-100.43
-89.29
-79.41
-71.72
-66.53
-63.47
-61.60
-59.86
-57.38
-53.79
-49.32
-44.65
-40.59
-37.78
-36.36
-35.95
-35.86
-35.43
-34.35
-32.80
-31.23
-30.15
-29.74
-29.85
-30.11
-30.22
-30.15
-30.17
-30.71
-32.12
-34.49
-37.54
-40.77
-43.64
-45.79
-47.21
-48.26
-49.62
-52.06
-56.19
-62.21
-69.81
-78.26
-86.76
-94.77
-102.28
-109.77
-118.02
-127.76
-139.66
-154.26
-172.00
-192.77
-215.31
-236.66
-252.41
-257.74
-249.19
-226.12
-191.07
-148.82
-104.45
-61.48
-20.92
18.39
58.75
102.38
150.54
203.09
258.26
312.73
362.11
402.06
429.63
444.48
448.97
447.27
443.50
439.92
436.04
429.03
415.31
392.24
359.32
318.17
271.66
222.62
172.80
122.59
71.26
17.59
-39.31
-99.46
-161.58
-222.98
-279.92
-328.48
-365.61
-390.16
-403.23
-407.88
-408.07
-407.32
-407.67
-409.05
-409.60
-406.35
-396.30
-377.39
-349.04
-312.22
-268.99
-221.71
-172.23
-121.64
-70.50
-19.47
30.18
76.46
117.00
149.80
173.73
188.84
196.09
196.95
193.00
185.60
176.02
165.58
155.70
147.66
142.28
139.49
138.24
136.87
133.76
127.94
119.43
109.19
98.58
88.82
80.57
73.77
67.89
62.25
56.37
50.17
43.89
38.00
32.94
28.98
26.07
23.93
22.13
20.29
18.24
16.04
13.97
12.32
11.20
10.48
9.86
9.07
8.05
7.03
6.37
6.35
6.98
7.92
8.68
8.89
8.45
7.58
6.68
6.06
5.84
5.95
6.21
6.46
6.66
6.85
7.03
7.14
7.12
6.87
6.39
5.79
5.17
4.62
4.13
3.61
2.99
2.24
1.41
0.63
0.03
-0.29
-0.31
-0.06
0.34
0.76
1.03
1.02
0.67
0.04
-0.72
-1.39
-1.81
-1.88
-1.64
-1.20
-0.69
-0.24
0.07
0.18
0.05
-0.26
-0.64
-0.93
-0.98
-0.77
-0.38
0.00
0.19
0.07
-0.33
-0.87
-1.39
-1.72
-1.81
-1.66
-1.29
-0.77
-0.08
0.74
1.70
2.75
3.87
5.03
6.25
7.60
9.16
10.98
13.05
15.27
17.44
19.29
20.55
21.10
20.99
20.53
20.23
20.64
22.10
24.65
27.99
31.54
34.74
37.25
39.07
40.57
42.27
44.59
47.69
51.33
55.01
58.21
60.75
62.89
65.35
69.02
74.52
81.88
90.54
99.48
107.75
114.88
121.06
126.99
133.57
141.54
151.26
162.70
175.39
188.31
199.79
207.54
209.02
202.22
186.27
161.82
130.71
95.10
56.53
15.42
-28.46
-74.85
-121.85
-165.67
-201.50
-225.18
-234.95
-232.20
-220.81
-205.63
-190.63
-177.79
-167.14
-157.64
-148.29
-138.85
-129.80
-121.86
-115.44
-110.43
-106.25
-102.26
-97.97
-93.27
-88.41
-83.74
-79.53
-75.80
-72.24
-68.35
-63.70
-58.12
-51.88
-45.59
-39.94
-35.38
-31.95
-29.26
-26.74
-23.95
-20.74
-17.36
-14.28
-11.95
-10.61
-10.19
-10.30
-10.32
-9.60
-7.60
-4.17
0.40
5.38
9.70
12.29
12.42
9.90
5.20
-0.68
-6.52
-11.25
-14.18
-15.18
-14.58
-13.02
-11.15
-9.45
-8.10
-7.09
-6.27
-5.53
-4.84
-4.24
-3.69
-3.04
-2.05
-0.51
1.56
3.90
6.01
7.35
7.68
7.08
5.96
4.84
4.12
3.90
4.07
4.41
4.70
4.85
4.82
4.63
4.28
3.74
3.05
2.29
1.63
1.19
1.05
1.15
1.33
1.42
1.28
0.83
0.13
-0.69
-1.50
-2.17
-2.70
-3.13
-3.56
-4.09
-4.74
-5.44
-6.08
-6.57
-6.84
-6.94
-6.96
-6.99
-7.10
-7.29
-7.45
-7.40
-6.95
-5.88
-4.14
