1660756695.00
64.000000
-0.00
-0.00
-0.00
-0.00
-0.00
-0.00
-0.00
-0.00
-0.00
-0.00
0.00
0.01
0.01
-0.00
-0.03
-0.05
-0.05
0.00
0.13
0.36
0.66
1.01
1.37
1.72
2.06
2.40
2.79
3.24
3.80
4.42
5.06
5.66
6.20
6.68
7.15
7.68
8.31
9.14
10.09
11.04
11.88
12.56
13.14
13.76
14.65
15.96
17.91
20.32
22.90
25.38
27.58
29.57
31.68
34.32
37.81
42.54
48.15
54.10
59.83
64.97
69.58
74.14
79.34
85.71
93.76
103.00
112.62
121.73
129.77
136.75
143.30
150.75
157.77
166.64
177.95
191.79
206.97
220.57
228.25
225.36
208.53
176.87
132.76
80.05
23.07
-34.94
-92.44
-149.16
-205.23
-260.37
-313.74
-363.87
-409.83
-450.91
-486.50
-515.74
-537.23
-549.22
-549.96
-538.37
-514.21
-478.67
-433.88
-382.45
-327.02
-269.84
-212.63
-156.66
-102.95
-52.37
-5.90
35.58
71.43
101.35
125.50
144.38
158.69
169.15
176.37
180.75
182.57
182.07
179.51
175.23
169.65
163.18
156.15
148.81
141.30
133.69
126.02
118.33
110.69
103.16
95.80
88.68
81.83
75.25
68.95
62.95
57.25
51.86
46.78
42.03
37.59
33.45
29.61
26.07
22.81
19.83
17.11
14.67
12.48
10.54
8.83
7.35
6.07
4.97
4.05
3.27
2.62
2.09
1.65
1.30
1.01
0.79
0.61
0.48
0.37
0.28
0.22
0.18
0.14
0.11
0.09
0.08
0.07
0.07
0.07
0.08
0.09
0.11
0.13
0.16
0.19
0.23
0.26
0.31
0.35
0.40
0.44
0.49
0.54
0.59
0.64
0.70
0.76
0.82
0.90
0.97
1.06
1.15
1.26
1.38
1.51
1.65
1.82
2.01
2.22
2.44
2.69
2.97
3.28
3.61
3.97
4.36
4.79
5.27
5.80
6.36
6.96
7.57
8.18
8.79
9.43
10.12
10.88
11.72
12.64
13.64
14.68
15.76
16.86
17.99
19.15
20.35
21.52
22.58
23.37
23.70
23.41
22.40
20.61
18.07
14.90
11.19
6.98
2.37
-2.59
-7.77
-12.93
-17.75
-21.87
-24.97
-26.94
-27.87
-28.09
-28.02
-28.02
-28.21
-28.50
-28.60
-28.18
-27.13
-25.60
-24.00
-22.87
-22.57
-23.10
-24.11
-24.96
-25.10
-24.22
-22.39
-19.97
-17.51
-15.54
-14.56
-14.99
-16.89
-19.64
-21.71
-20.84
-14.89
-3.00
14.00
33.72
53.04
69.27
80.85
87.52
89.85
88.68
84.59
78.21
70.45
62.49
55.45
50.08
46.45
44.01
41.96
39.23
35.20
29.84
23.66
17.50
12.22
8.16
4.65
2.29
-0.34
-5.39
-14.81
-29.48
-48.66
-69.98
-90.27
-106.61
-117.32
-122.74
-124.38
-124.11
-123.29
-122.42
-121.32
-119.64
-117.30
-114.47
-111.66
-108.99
-106.16
-102.71
-98.38
-93.42
-88.50
-84.39
-81.52
-80.06
-79.62
-79.71
-79.94
-80.36
-81.22
-82.79
-84.94
-87.01
-87.87
-86.14
-80.65
-70.93
-57.35
-41.01
-23.33
-5.49
11.91
28.72
44.89
59.99
73.05
82.93
88.87
91.08
90.68
89.35
88.68
89.66
92.59
97.24
103.19
109.85
116.43
121.82
124.78
124.31
120.08
112.63
103.10
92.72
82.32
72.22
62.40
52.96
44.36
37.40
32.77
30.74
30.89
32.30
33.99
35.31
36.09
36.54
36.96
37.58
38.48
39.69
41.08
42.38
43.10
42.63
40.57
36.99
32.51
28.03
24.30
21.51
19.26
16.86
13.80
9.92
5.39
0.44
-4.83
-10.43
-16.24
-21.79
-26.37
-29.40
-30.78
-31.07
-31.26
-32.38
-35.13
-39.65
-45.51
-51.93
-57.93
-62.51
-64.91
-64.84
-62.65
-59.33
-56.18
-54.35
-54.51
-56.49
-59.58
-62.87
-65.63
-67.59
-68.91
-69.89
-70.74
-71.26
-70.94
-69.19
-65.66
-60.47
-54.16
-47.36
-40.54
-33.79
-26.99
-19.99
-12.99
-6.50
-1.12
2.71
5.03
6.29
7.16
8.12
9.28
10.27
10.50
9.57
7.55
5.11
3.28
3.01
4.76
8.29
12.81
17.37
21.26
24.23
26.39
27.98
29.16
29.94
30.29
30.16
29.56
28.42
26.57
23.83
20.13
15.71
11.09
6.95
3.87
2.11
1.59
1.88
2.46
2.87
2.89
2.65
2.58
3.27
5.30
8.99
14.25
20.60
27.28
33.52
38.61
42.15
43.97
44.16
42.97
40.66
37.47
33.55
29.03
24.16
19.31
14.95
11.46
8.98
7.30
6.03
4.74
3.26
1.58
-0.16
-1.84
-3.44
-5.02
-6.67
-8.42
-10.37
-12.64
-15.38
-18.63
-22.21
-25.66
-28.42
-30.06
-30.42
-29.69
-28.19
-26.31
-24.29
-22.26
-20.24
-18.16
-15.91
-13.32
-10.25
-6.62
-2.45
2.09
6.81
11.56
16.45
21.98
29.14
39.27
53.69
73.17
97.59
125.84
156.06
186.18
214.25
238.73
258.47
272.66
280.92
283.44
281.13
275.49
268.14
260.24
252.11
243.14
232.23
218.24
200.42
178.72
153.80
127.01
100.08
74.76
52.19
32.52
14.85
-2.47
-21.02
-41.59
-63.78
-86.19
-107.12
-125.18
-139.93
-151.77
-161.64
-170.46
-178.78
-186.55
-193.22
-198.00
-200.10
-198.97
-194.51
-187.16
-177.87
-167.96
-158.79
-151.32
-145.70
-141.06
-135.79
-128.11
-116.92
-102.29
-85.56
-68.70
-53.47
-40.77
-30.41
-21.61
-13.51
-5.75
1.64
8.59
15.31
22.45
30.82
40.86
52.38
64.44
75.76
85.17
92.03
96.35
98.68
99.76
100.14
99.94
98.89
96.51
92.39
86.46
78.95
70.28
60.93
51.24
41.47
31.87
22.79
14.61
7.67
2.14
-2.05
-5.20
-7.72
-10.05
-12.54
-15.45
-18.90
-22.86
-27.22
-31.76
-36.28
-40.62
-44.67
-48.37
-51.57
-54.08
-55.64
-56.06
-55.47
-54.21
-52.84
-51.86
-51.49
-51.64
-52.01
-52.33
-52.48
-52.43
-52.12
-51.26
-49.41
-46.14
-41.31
-35.22
-28.52
-21.94
-16.03
-11.00
-6.85
-3.47
-0.85
0.94
1.81
1.72
0.83
-0.59
-2.18
-3.66
-4.90
-5.95
-7.01
-8.34
-10.05
-12.06
-14.14
-16.06
-17.74
-19.31
-21.10
-23.35
-26.10
-29.08
-31.82
-33.78
-34.48
-33.69
-31.37
-27.73
-23.22
-18.40
-13.82
-9.77
-6.29
-3.25
-0.53
1.82
3.56
4.45
4.48
3.88
3.09
2.52
2.34
2.46
2.61
2.46
1.84
0.74
-0.71
-2.35
-4.01
-5.63
-7.25
-9.03
-11.20
-13.88
-17.03
-20.36
-23.45
-25.82
-27.03
-26.83
-25.22
-22.40
-18.71
-14.55
-10.26
-6.05
-2.04
1.68
5.00
7.71
9.60
10.51
10.45
9.60
8.26
6.74
5.25
3.91
2.73
1.66
0.64
-0.38
-1.41
-2.49
-3.67
-5.02
-6.69
-8.76
-11.29
-14.22
-17.40
-20.58
-23.45
-25.61
-26.73
-26.48
-24.73
-21.58
-17.32
-12.34
-7.01
-1.52
4.11
9.85
15.53
20.80
25.17
28.30
30.11
30.87
31.05
31.14
31.43
31.92
32.41
32.64
32.41
31.67
30.44
28.75
26.57
23.76
20.20
15.90
11.10
6.23
1.77
-2.04
-5.22
-8.00
-10.51
-12.61
-13.89
-13.87
-12.30
-9.38
-5.64
-1.62
2.37
6.33
10.53
15.06
19.84
24.45
28.47
31.62
33.94
35.72
37.33
39.01
40.77
42.37
43.40
43.48
42.40
40.21
37.17
33.56
29.62
25.44
21.10
16.74
12.58
8.76
5.26
1.69
-2.51
-7.85
-14.46
-21.93
-29.43
-35.97
-40.67
-42.92
-42.41
-39.09
-33.19
-25.18
-15.79
-5.90
3.63
12.09
19.01
24.17
27.53
29.08
28.84
27.04
23.96
19.96
15.42
10.65
5.90
1.32
-3.14
-7.46
-11.39
-14.50
-16.48
-17.45
-18.17
-19.80
-23.46
-29.95
-39.00
-49.24
-58.79
-66.13
-70.77
-73.32
-75.01
-77.00
-80.62
-85.91
-91.43
-95.03
-95.00
-90.94
-83.83
-75.48
-67.89
-64.45
-67.22
-75.80
-87.26
-96.95
-99.71
-90.93
-68.30
-33.34
5.37
37.38
54.23
52.11
31.75
-2.84
-45.82
-91.21
-134.05
-174.19
-211.27
-242.95
-265.56
-276.79
-277.37
-270.27
-259.14
-225.21
-161.29
-75.67
12.63
88.14
145.29
185.12
210.81
225.75
233.25
233.15
226.45
216.12
206.14
198.92
194.46
191.33
187.98
183.52
175.09
161.45
143.94
125.82
110.06
98.08
89.61
83.32
77.64
69.85
58.93
45.74
32.62
21.64
13.71
8.50
5.14
2.76
0.18
-3.10
-6.68
-9.88
-12.22
-13.47
-13.79
-13.54
-12.82
-11.66
-9.68
-6.13
0.59
9.78
20.20
30.19
38.04
42.50
43.20
40.69
36.14
29.89
22.25
13.09
1.69
-12.68
-30.47
-51.69
-76.22
-100.04
-122.30
-140.40
-149.83
-145.97
-126.68
-94.12
-54.61
-16.58
12.93
30.18
36.49
36.19
33.73
31.64
30.24
28.64
26.33
23.85
22.02
21.83
23.40
25.88
28.00
28.67
27.67
25.60
23.46
21.92
21.47
22.08
23.31
24.60
25.52
25.94
25.96
25.75
25.46
25.17
24.94
24.80
24.70
24.74
25.32
27.00
30.13
34.27
37.76
37.85
31.70
17.85
-2.79
-26.77
-49.37
-66.66
-76.46
-79.28
-77.58
-74.32
-71.58
-70.10
-69.54
-69.05
-68.02
-66.38
-64.56
-63.24
-62.83
-63.12
-63.04
-61.18
-56.22
-47.45
-35.25
-20.30
-3.64
13.65
30.31
44.55
53.83
55.50
48.02
32.26
12.01
-7.11
-19.62
-22.33
-15.56
-2.68
11.58
23.14
29.98
32.35
31.77
29.90
27.71
25.29
22.26
18.42
14.01
9.75
6.42
4.38
3.37
2.50
0.71
-2.62
-7.31
-12.49
-16.99
-20.03
-21.63
-22.91
-25.53
-30.88
-39.08
-48.67
-57.01
-61.36
-60.24
-53.96
-44.75
-35.79
-29.87
-28.34
-30.98
-36.62
-43.92
-52.01
-59.98
-67.03
-72.14
-74.22
-72.66
-67.58
-59.86
-50.38
-41.87
-35.62
-31.95
-30.41
-30.14
-30.08
-29.26
-26.92
-22.79
-17.40
-11.68
-7.13
-5.23
-6.94
-12.41
-21.01
-31.55
-42.53
-52.18
-58.16
-58.08
-50.02
-33.46
-9.93
16.87
41.96
60.71
70.38
71.29
66.28
59.33
53.78
51.19
51.17
52.22
52.87
52.49
51.30
49.68
47.45
43.63
36.93
26.61
13.18
-1.53
-15.08
-25.31
-31.28
-33.49
-33.49
-33.33
-34.97
-39.95
-49.11
-62.34
-78.32
-94.57
-107.98
-115.73
-116.34
-110.21
-99.31
-86.36
-73.71
-62.67
-53.44
-45.58
-38.48
-31.71
-25.06
-18.40
-11.66
-4.81
2.12
9.06
16.03
23.07
30.05
36.63
42.23
46.42
49.24
51.51
54.41
58.83
64.76
71.01
75.72
77.21
74.77
68.81
60.52
51.25
42.26
34.93
30.86
31.77
38.67
50.87
65.59
78.80
86.95
88.74
85.89
82.26
81.82
86.61
95.79
106.27
114.32
117.18
113.80
104.57
90.48
72.44
51.27
28.09
4.82
-15.86
-31.23
-39.44
-40.36
-35.62
-28.14
-21.23
-17.75
-19.52
-26.94
-38.97
-53.28
-66.97
-77.40
-83.25
-84.98
-84.57
-84.50
-86.48
-90.62
-95.45
-98.78
-98.72
-94.38
-85.89
-73.89
-59.00
-41.63
-22.24
-1.70
18.61
37.03
52.16
63.50
71.68
78.29
85.22
93.81
104.30
115.62
125.82
132.90
135.51
133.41
127.52
119.47
111.27
104.91
102.02
103.57
109.46
118.21
127.15
133.06
133.36
127.16
115.71
101.78
88.38
77.32
68.59
60.59
51.27
39.26
24.52
8.18
-8.13
-23.06
-35.83
-46.11
-53.65
-57.98
-58.58
-55.23
-48.37
-39.24
-29.66
-21.67
-17.11
-17.11
-21.79
-29.96
-39.39
-47.45
-52.16
-53.04
-51.33
-49.36
-49.36
-52.36
-57.72
-63.66
-68.15
-69.87
-68.55
-64.56
-58.40
-50.33
-40.41
-28.85
-16.33
-4.05
6.48
13.90
17.37
16.96
13.80
9.95
8.00
10.27
18.03
30.96
47.16
63.77
77.88
87.55
92.28
93.11
92.21
92.22
95.41
102.87
113.92
126.07
135.52
138.34
131.80
115.47
91.54
64.24
38.55
18.63
6.62
2.16
2.80
5.14
6.06
3.76
-1.95
-10.03
-19.04
-27.92
-36.21
-43.93
-51.08
-57.26
-61.83
-64.18
-64.19
-62.37
-59.71
-57.37
-56.25
-56.75
-58.50
-60.35
-60.32
-55.82
-43.89
-21.75
12.44
58.71
114.63
175.39
234.34
284.31
319.35
336.16
334.91
318.89
293.49
264.41
236.26
211.42
189.66
168.53
144.30
113.47
74.31
27.89
-21.77
-68.16
-104.19
-124.01
-124.31
-104.91
-68.61
-20.72
31.67
80.66
119.70
143.89
150.79
140.72
116.53
82.97
45.34
8.09
-25.93
-53.71
-74.09
-87.94
-98.13
-108.93
-124.93
-149.91
-185.58
-230.28
-275.33
-309.56
-322.66
-309.38
-271.18
-214.85
-149.57
-83.56
-21.74
38.71
102.01
170.78
243.11
313.55
376.47
428.58
469.47
475.23
431.45
336.90
207.34
66.13
-67.03
-181.13
-272.30
-340.63
-388.07
-411.75
-413.97
-398.28
-370.61
-337.52
-303.90
-271.58
-239.68
-205.79
-164.14
-113.46
-55.06
5.57
60.52
102.64
127.95
136.39
131.18
119.08
106.04
96.02
89.40
84.09
77.70
69.14
58.91
48.59
40.74
36.90
37.64
42.02
48.37
55.21
61.78
67.98
73.98
80.29
87.11
94.44
101.46
106.49
107.25
101.52
87.94
66.93
40.99
14.27
-8.39
-23.09
-27.90
-23.25
-11.31
4.95
22.75
39.80
54.65
66.56
75.16
80.37
82.38
81.81
79.81
77.98
77.81
80.42
86.44
95.89
108.22
122.29
136.39
148.41
156.20
157.46
150.97
137.07
117.73
95.81
74.18
54.86
38.80
26.09
14.56
2.01
-12.99
-30.70
-50.41
-71.09
-91.87
-112.11
-131.39
-152.97
-179.84
-213.40
-252.54
-294.09
-334.42
-370.83
-401.95
-427.61
-453.92
-486.57
-528.51
-578.43
-631.96
-684.32
-732.23
-773.90
-808.03
-840.45
-875.97
-916.72
-961.11
-1005.27
-1045.67
-1080.31
-1108.20
-1083.39
-975.60
-777.79
-514.30
-229.08
36.79
259.42
432.56
560.87
653.14
711.14
736.17
731.53
704.65
666.01
625.75
590.88
564.62
547.26
531.84
511.69
483.05
446.89
407.84
371.31
341.05
318.52
303.36
290.75
276.12
256.86
233.44
208.60
185.60
166.72
152.77
143.47
136.23
128.65
119.28
108.26
96.87
86.62
78.60
73.14
70.04
68.21
66.63
64.67
62.31
59.95
57.96
56.62
55.84
55.29
54.52
53.07
50.64
47.13
42.46
36.58
29.62
21.61
12.49
2.26
-8.96
-20.79
-32.56
-42.87
-51.41
-57.85
-62.30
-65.31
-67.59
-69.76
-72.00
-73.95
-75.02
-74.72
-72.84
-69.88
-66.91
-65.08
-65.25
-67.81
-71.60
-75.25
-77.72
-78.44
-77.78
-76.81
-76.69
-78.37
-82.49
-89.36
-98.82
-109.60
-118.68
-121.86
-115.16
-96.81
-68.75
-36.34
-6.40
15.48
27.26
30.70
29.73
28.18
28.09
29.38
31.28
33.38
36.09
40.32
46.56
54.24
61.90
67.94
71.18
71.57
69.95
67.45
64.94
62.59
59.86
55.94
50.28
42.98
34.87
27.15
20.81
16.21
13.01
10.38
7.58
4.37
1.08
-1.59
-3.07
-3.38
-3.28
-3.97
-6.49
-11.24
-17.71
-24.68
-30.65
-34.24
-34.55
-31.45
-25.86
-20.02
-17.26
-21.23
-34.41
-56.64
-84.26
-111.22
-131.13
-139.89
-137.20
-126.50
-113.26
-102.60
-97.57
-98.50
-104.04
-112.34
-121.94
-131.82
-141.07
-148.41
-152.17
-152.19
-148.13
-140.40
-129.97
-118.04
-105.48
-92.64
-79.39
-65.47
-50.80
-35.42
-19.64
-3.73
12.35
29.04
46.95
66.52
87.77
110.26
133.53
157.31
181.79
207.76
236.40
269.06
306.71
349.32
395.17
440.76
481.08
510.85
525.95
524.60
507.54
477.27
436.82
388.86
335.77
280.19
225.68
176.50
136.70
108.55
91.35
81.41
72.75
58.65
33.14
-7.48
-63.13
-128.87
-194.95
-248.89
-279.44
-280.94
-256.39
-217.09
-178.83
-156.27
-157.78
-183.04
-224.02
-268.69
-305.14
-324.68
-323.11
-300.69
-261.27
-211.25
-158.18
-108.92
-67.91
-36.34
-12.47
6.76
23.76
39.05
51.06
57.14
54.95
43.18
21.69
-8.87
-47.03
-90.27
-134.88
-176.64
-212.48
-241.95
-267.44
-292.44
-318.77
-344.36
-363.40
-368.91
-356.35
-326.14
-283.27
-234.71
-185.98
-139.41
-94.43
-49.54
-4.32
40.01
80.93
115.64
141.68
157.09
160.66
152.88
137.20
119.94
108.41
107.28
116.01
128.66
137.16
136.18
126.58
115.33
111.46
120.97
143.48
173.09
202.49
227.50
249.17
271.95
299.50
330.92
360.04
377.84
377.15
356.47
320.95
280.31
244.24
218.17
201.32
188.36
173.29
153.65
132.27
115.92
111.47
121.69
143.50
169.39
191.30
204.49
209.25
209.46
209.19
209.65
208.27
200.22
181.46
151.31
113.05
72.45
35.11
4.17
-20.50
-41.58
-62.63
-86.23
-113.04
-141.80
-170.35
-196.55
-219.39
-239.30
-257.99
-277.81
-301.38
-331.20
-369.03
-414.89
-465.79
-515.18
-553.83
-572.34
-564.53
-529.86
-473.65
-404.98
-333.18
-264.81
-202.66
-146.28
-93.67
-42.58
8.40
59.26
107.80
149.40
177.95
188.02
177.65
150.09
113.09
76.41
48.38
33.42
31.43
38.92
50.58
60.76
64.35
57.57
38.99
10.58
-22.23
-51.83
-71.08
-76.25
-68.77
-55.25
-45.55
-49.48
-73.34
-117.52
-175.99
-237.95
-291.23
-325.96
-337.35
-326.39
-298.41
-260.51
-219.15
-178.98
-142.87
-112.65
-89.54
-73.90
-64.43
-57.97
-50.12
-36.87
-16.43
10.14
39.61
68.58
95.15
119.08
140.72
159.61
174.29
183.23
186.40
185.70
183.96
182.82
181.32
176.72
167.27
155.01
145.91
146.58
159.12
177.87
190.87
185.79
157.25
