1660755745.00
64.000000
-0.00
-0.00
-0.00
-0.00
-0.00
-0.00
-0.00
-0.00
-0.00
-0.00
0.00
0.01
0.01
-0.00
-0.03
-0.05
-0.05
0.00
0.13
0.36
0.66
1.01
1.37
1.72
2.06
2.40
2.79
3.24
3.80
4.42
5.06
5.66
6.20
6.68
7.15
7.68
8.31
9.14
10.09
11.04
11.88
12.56
13.14
13.76
14.65
15.96
17.91
20.32
22.90
25.38
27.58
29.57
31.68
34.32
37.81
42.54
48.15
54.10
59.83
64.97
69.58
74.14
79.34
85.71
93.76
103.00
112.62
121.73
129.77
136.75
143.30
150.75
157.77
166.64
177.95
191.79
206.97
220.57
228.25
225.36
208.53
176.87
132.76
80.05
23.07
-34.94
-92.44
-149.16
-205.23
-260.37
-313.74
-363.87
-409.83
-450.91
-486.50
-515.74
-537.23
-549.22
-549.96
-538.37
-514.21
-478.67
-433.88
-382.45
-327.02
-269.84
-212.63
-156.66
-102.95
-52.37
-5.90
35.58
71.43
101.35
125.50
144.38
158.69
169.15
176.37
180.75
182.57
182.07
179.51
175.23
169.65
163.18
156.15
148.81
141.30
133.69
126.02
118.33
110.69
103.16
95.80
88.68
81.83
75.25
68.95
62.95
57.25
51.86
46.78
42.03
37.59
33.45
29.61
26.07
22.81
19.83
17.11
14.67
12.48
10.54
8.83
7.35
6.07
4.97
4.05
3.27
2.62
2.09
1.65
1.30
1.01
0.79
0.61
0.47
0.37
0.29
0.23
0.18
0.16
0.14
0.13
0.14
0.15
0.17
0.20
0.23
0.26
0.30
0.34
0.38
0.43
0.50
0.56
0.62
0.65
0.65
0.61
0.56
0.52
0.52
0.57
0.67
0.79
0.90
0.98
1.03
1.06
1.13
1.26
1.47
1.75
2.05
2.32
2.51
2.63
2.71
2.87
3.17
3.67
4.31
4.97
5.50
5.78
5.82
5.75
5.79
6.16
6.95
8.06
9.22
10.10
10.45
10.28
9.82
9.52
9.74
10.62
11.93
13.07
13.34
12.19
9.51
5.60
1.10
-3.41
-7.57
-11.51
-15.60
-20.26
-25.81
-32.36
-39.90
-48.12
-56.17
-62.49
-64.96
-61.68
-51.91
-36.77
-19.14
-2.62
9.83
16.97
19.48
19.18
17.93
16.74
15.71
14.42
12.67
10.78
9.39
9.06
9.81
11.10
12.16
12.22
11.02
8.80
6.24
4.12
2.96
2.89
3.55
4.40
4.80
4.38
3.11
1.32
-0.50
-1.83
-2.41
-2.24
-1.54
-0.61
0.41
1.50
2.80
4.35
6.09
7.74
8.99
9.66
9.75
9.42
8.96
8.62
8.53
8.75
9.32
10.05
10.89
11.74
12.46
12.93
12.99
12.57
11.63
10.26
8.58
6.82
5.13
3.65
2.43
1.45
0.65
-0.05
-0.70
-1.34
-1.96
-2.55
-3.10
-3.63
-4.15
-4.72
-5.38
-6.17
-7.08
-7.98
-8.72
-9.24
-9.65
-10.22
-11.24
-12.81
-14.77
-16.76
-18.34
-19.27
-19.50
-19.10
-18.12
-16.53
-14.32
-11.63
-8.79
-6.27
-4.39
-3.16
-2.26
-1.27
0.11
1.82
3.51
4.75
5.34
5.41
5.34
5.56
6.28
7.40
8.60
9.54
10.02
10.09
9.95
9.75
9.54
9.25
8.85
8.34
7.85
7.52
7.41
7.46
7.53
7.48
7.14
6.50
5.56
4.41
3.16
1.94
0.85
-0.10
-0.99
-2.00
-3.25
-4.82
-6.63
-8.56
-10.53
-12.47
-14.35
-16.07
-17.46
-18.30
-18.42
-17.79
-16.53
-14.87
-13.06
-11.26
-9.48
-7.67
-5.79
-3.85
-1.92
-0.08
1.67
3.36
5.01
6.59
7.96
8.97
9.51
9.53
9.09
8.37
7.56
6.92
6.62
6.75
7.23
7.83
8.23
8.19
7.65
6.74
5.71
4.85
4.29
4.01
3.88
3.72
3.42
2.96
2.31
1.51
0.53
-0.68
-2.18
-3.99
-6.02
-8.06
-9.81
-10.93
-11.18
-10.50
-9.05
-7.13
-5.09
-3.19
-1.59
-0.25
0.92
2.02
3.17
4.38
5.64
6.84
7.89
8.67
9.16
9.44
9.68
10.03
10.55
11.13
11.52
11.47
10.85
9.76
8.44
7.17
6.10
5.18
4.28
3.33
2.40
1.66
1.26
1.21
1.34
1.40
1.19
0.68
-0.03
-0.75
-1.38
-1.91
-2.47
-3.19
-4.14
-5.33
-6.65
-7.92
-8.94
-9.51
-9.50
-8.89
-7.89
-6.76
-5.78
-5.08
-4.60
-4.15
-3.45
-2.37
-0.93
0.65
2.04
2.95
3.34
3.41
3.52
3.97
4.91
6.16
7.34
8.13
8.35
8.11
7.66
7.20
6.76
6.22
5.43
4.36
3.13
1.96
0.96
0.13
-0.64
-1.44
-2.31
-3.21
-4.07
-4.87
-5.66
-6.48
-7.38
-8.37
-9.52
-10.95
-12.70
-14.66
-16.45
-17.55
-17.50
-16.15
-13.71
-10.73
-7.77
-5.26
-3.29
-1.74
-0.43
0.68
1.50
1.87
1.79
1.40
1.02
0.93
1.24
1.87
2.60
3.19
3.51
3.62
3.65
3.76
4.03
4.39
4.70
4.74
4.45
3.90
3.30
2.93
2.95
3.32
3.76
3.94
3.59
2.67
1.34
-0.20
-1.83
-3.60
-5.67
-8.05
-10.59
-12.91
-14.63
-15.52
-15.59
-15.05
-14.13
-12.98
-11.62
-10.02
-8.25
-6.51
-5.10
-4.29
-4.11
-4.42
-4.90
-5.28
-5.47
-5.62
-6.00
-6.86
-8.31
-10.27
-12.54
-14.92
-17.39
-20.11
-23.39
-27.45
-32.23
-37.36
-42.28
-46.40
-49.63
-52.50
-56.00
-61.16
-68.31
-77.10
-86.72
-96.28
-105.07
-112.89
-120.01
-126.94
-134.15
-141.72
-149.72
-158.55
-168.87
-180.75
-193.41
-204.87
-212.13
-212.08
-201.96
-180.68
-149.13
-109.62
-64.02
-14.47
35.83
82.02
117.83
139.14
144.96
138.62
127.39
122.08
131.28
157.41
195.97
237.53
275.43
306.19
329.37
346.31
361.40
377.07
391.94
401.45
399.25
385.37
362.83
335.78
308.77
290.15
286.88
301.66
331.95
369.87
411.57
453.50
491.29
494.37
443.65
343.53
221.37
122.70
49.72
-3.79
-44.22
-78.20
-108.01
-130.92
-144.87
-151.27
-155.27
-164.83
-180.59
-199.71
-218.30
-232.50
-236.96
-228.92
-210.06
-186.08
-165.23
-150.02
-139.82
-132.64
-125.98
-116.22
-101.43
-82.62
-64.00
-51.26
-45.91
-46.82
-51.50
-56.94
-59.59
-56.82
-47.97
-34.89
-21.11
-8.85
0.61
6.73
9.76
11.00
12.13
14.52
17.48
19.62
20.30
19.49
17.26
13.64
8.94
3.94
-0.33
-6.10
-15.20
-27.48
-40.98
-53.65
-64.27
-72.13
-76.81
-78.34
-83.82
-98.81
-123.37
-152.19
-178.95
-199.30
-211.22
-214.60
-210.99
-213.29
-231.47
-266.17
-309.11
-350.37
-383.54
-406.24
-419.14
-425.24
-442.14
-483.31
-550.10
-632.84
-720.64
-807.36
-890.72
-969.05
-956.99
-809.67
-550.39
-253.63
14.41
223.81
371.98
469.34
530.94
571.77
590.45
584.95
559.20
522.76
483.98
446.69
412.72
384.72
366.43
349.61
328.09
301.43
274.68
252.68
237.56
230.21
231.49
241.74
253.32
258.99
256.00
247.14
237.23
230.28
228.69
233.13
242.14
249.42
249.79
241.15
225.29
205.63
185.11
165.54
147.81
132.10
117.27
102.51
87.68
73.16
59.07
45.05
30.79
16.44
2.68
-9.63
-19.81
-27.64
-33.26
-36.89
-38.67
-38.58
-36.63
-33.02
-28.18
-22.68
-17.22
-12.46
-8.92
-6.99
-6.88
-8.63
-12.08
-17.03
-23.30
-30.81
-39.63
-49.92
-61.85
-75.73
-92.13
-111.89
-135.76
-163.59
-193.53
-221.94
-244.04
-255.59
-254.42
-241.39
-219.84
-194.41
-169.42
-148.10
-132.47
-123.71
-122.14
-126.76
-134.72
-141.49
-142.14
-133.32
-115.04
-91.06
-67.57
-51.02
-45.81
-53.25
-71.46
-96.44
-123.03
-145.60
-158.51
-156.71
-136.98
-99.17
-47.27
11.05
66.10
108.96
133.84
139.09
126.50
99.53
61.76
16.25
-33.87
-84.35
-129.67
-163.87
-182.53
-184.81
-174.06
-156.84
-140.35
-129.65
-125.90
-126.48
-126.89
-123.23
-113.82
-99.51
-82.41
-64.40
-46.02
-26.82
-6.42
14.51
33.81
48.98
58.52
62.91
64.20
64.28
62.54
54.72
34.12
-5.03
-63.55
-134.86
-206.02
-261.96
-291.17
-289.92
-262.83
-219.85
-171.34
-124.22
-80.65
-39.31
2.29
45.73
90.86
135.80
177.39
211.75
235.19
245.08
240.95
224.77
200.11
170.87
140.02
109.41
80.40
54.93
35.62
25.26
25.58
36.43
56.17
82.66
114.31
150.13
188.67
226.73
259.06
279.77
285.15
276.48
261.10
250.27
254.61
279.01
319.79
365.65
402.07
416.95
405.01
368.93
317.52
262.25
213.82
179.94
164.05
164.98
177.31
192.52
201.11
195.24
171.05
129.51
75.53
15.76
-43.85
-99.36
-149.20
-193.44
-233.16
-270.11
-306.67
-346.03
-391.20
-443.17
-499.02
-551.74
-592.36
-613.94
-615.05
-600.62
-579.18
-558.32
-540.71
-523.31
-500.15
-466.55
-421.98
-370.08
-316.14
-264.07
-214.93
-167.57
-120.56
-73.74
-28.26
14.68
54.84
93.35
131.96
172.09
214.06
256.87
298.73
337.96
373.94
407.60
441.29
478.06
520.72
570.66
626.76
684.30
735.46
771.62
786.36
777.67
748.55
705.78
657.30
609.35
563.93
519.21
472.50
423.05
372.50
323.69
278.97
239.40
204.61
172.18
138.85
103.04
65.99
30.21
-2.68
-32.69
-61.02
-89.23
-120.42
-158.77
-206.97
-264.85
-330.67
-403.02
-481.25
-564.84
-640.42
-688.17
-697.63
-675.40
-636.67
-593.72
-552.97
-516.92
-486.34
-461.11
-441.16
-426.46
-413.59
-395.62
-365.67
-321.38
-266.43
-208.66
-158.15
-118.49
-92.09
-77.88
-71.62
-68.70
-66.58
-64.87
-63.99
-63.87
-63.68
-63.87
-64.84
-66.51
-68.52
-70.64
-72.10
-70.87
-68.52
-64.41
-58.64
-51.41
-42.94
-33.60
-24.17
-15.47
-8.10
-2.19
3.31
9.13
16.12
25.03
36.16
49.02
62.51
75.21
85.90
94.78
102.71
111.45
123.16
139.61
161.27
186.58
212.05
233.34
247.29
253.13
253.33
252.78
256.95
270.01
293.59
326.54
365.36
404.83
438.24
458.00
457.16
431.52
381.80
314.27
239.07
166.56
103.53
51.33
7.10
-32.86
-69.68
-100.59
-120.67
-126.04
-116.34
-94.88
-66.43
-34.74
-1.24
33.63
67.83
96.19
111.37
107.36
83.25
44.96
3.33
-30.71
-51.30
-60.27
-66.06
-80.00
-111.32
-163.57
-233.15
-310.26
-381.45
-433.13
-455.47
-445.80
-410.36
-363.14
-321.30
-298.80
-300.81
-321.89
-348.82
-366.82
-365.86
-343.99
-306.23
-260.55
-213.54
-168.13
-123.99
-79.68
-34.59
10.36
53.55
93.93
131.74
168.34
205.62
244.84
285.96
327.46
367.34
404.04
437.12
466.76
492.26
510.42
515.18
499.61
460.02
400.01
331.57
271.67
235.49
229.37
247.88
276.24
297.10
297.62
273.43
228.26
170.96
111.97
60.82
24.95
8.42
10.95
27.06
47.11
60.44
59.39
42.16
12.38
-23.46
-59.68
-93.14
-122.98
-148.86
-169.74
-184.36
-192.86
-198.24
-205.77
-220.31
-243.16
-269.85
-291.39
-298.39
-286.29
-258.96
-228.51
-211.04
-220.10
-260.82
-327.16
-403.95
-472.40
-516.82
-529.43
-511.73
-472.02
-421.01
-367.63
-316.59
-268.73
-222.73
-176.94
-130.22
-81.90
-31.85
18.91
67.09
107.04
132.24
138.47
126.77
104.20
81.85
70.43
76.37
100.04
136.92
180.46
224.69
265.26
299.28
325.16
342.82
354.16
362.59
371.17
379.78
383.85
375.36
346.92
296.81
231.80
166.15
116.92
97.94
115.19
165.37
237.58
316.93
388.51
440.56
466.24
464.20
437.91
393.98
340.15
283.45
229.11
180.23
137.95
101.52
68.54
35.41
-1.16
-42.29
-85.56
-125.44
-155.27
-170.29
-169.56
-156.42
-137.03
-118.16
-105.38
-102.17
-109.92
-128.45
-156.25
-190.84
-229.39
-269.46
-309.85
-351.28
-396.15
-447.38
-506.41
-571.48
-636.72
-693.13
-731.21
-744.20
-730.60
-694.65
-644.55
-589.19
-535.29
-485.96
-441.25
-399.73
-360.03
-321.42
-283.61
-246.32
-209.20
-172.11
-135.49
-100.17
-66.84
-35.55
-5.31
25.41
57.93
92.54
128.15
162.60
193.62
219.90
241.69
261.40
283.07
311.29
349.34
396.77
447.65
490.86
512.74
502.45
457.34
385.61
304.71
235.62
195.57
192.31
222.31
273.04
327.93
371.63
393.58
389.16
359.11
307.74
241.03
165.04
84.68
3.10
-78.43
-159.99
-241.72
-322.29
-398.25
-464.03
-513.32
-541.19
-545.83
-529.30
-496.77
-454.36
-407.50
-360.03
-314.40
-272.44
-235.70
-205.04
-179.70
-157.09
-133.36
-105.02
-70.52
-30.93
10.72
50.73
86.59
117.97
146.64
175.53
207.44
244.12
286.03
332.38
381.20
429.24
471.87
503.51
519.03
515.38
493.05
456.03
410.57
363.03
317.98
277.49
241.55
209.17
179.27
150.97
123.44
95.74
67.15
37.90
9.65
-14.49
-30.87
-36.62
-30.68
-14.16
10.39
40.15
72.79
106.85
141.30
175.09
206.76
234.36
255.45
266.96
265.88
250.81
224.10
193.01
168.58
161.76
178.29
215.28
261.68
302.88
327.07
329.84
314.65
289.33
261.10
233.39
205.70
176.29
144.81
113.44
85.78
64.45
49.37
37.64
24.88
7.44
-15.89
-43.33
-71.13
-95.38
-113.95
-127.43
-138.95
-152.71
-172.15
-198.50
-230.33
-264.58
-297.83
-328.00
-355.05
-380.84
-408.30
-440.50
-480.05
-528.43
-585.21
-647.10
-707.60
-757.77
-788.59
-794.00
-773.15
-730.71
-674.82
-613.76
-553.14
-494.90
-438.36
-382.33
-326.78
-273.02
-222.78
-176.79
-134.12
-92.56
-49.75
-4.31
43.61
92.36
139.84
184.39
225.51
264.07
301.78
340.51
381.84
426.88
476.37
530.48
588.17
646.47
700.15
742.52
767.26
770.48
752.15
716.07
668.33
615.24
561.55
509.85
460.95
414.88
371.55
331.01
293.21
257.76
223.92
190.75
157.52
123.80
89.67
55.61
22.24
-9.75
-39.90
-68.04
-94.49
-119.99
-145.59
-172.27
-200.63
-230.65
-261.60
-292.52
-322.53
-351.31
-379.31
-407.52
-437.27
-470.12
-507.84
-552.07
-603.28
-659.46
-715.21
-762.27
-791.70
-797.11
-777.12
-735.96
-681.63
-622.69
-565.33
-512.28
-463.51
-418.04
-375.42
-335.89
-299.70
-266.10
-233.17
-198.55
-160.60
-119.26
-76.02
-33.35
6.56
42.79
76.00
108.09
141.29
177.15
215.86
256.20
296.07
333.59
367.91
399.85
431.81
466.96
507.91
555.41
607.45
659.45
705.46
739.78
758.58
760.64
747.20
720.80
684.51
641.02
592.54
541.07
488.42
435.90
384.11
333.15
283.67
237.93
199.81
173.47
160.98
160.69
167.23
173.65
174.34
167.15
153.46
136.28
117.99
99.07
78.62
55.90
31.61
7.79
-13.46
-31.38
-47.24
-63.43
-82.02
-103.77
-127.61
-151.42
-173.29
-192.50
-209.97
-227.80
-248.25
-272.65
-300.86
-331.39
-362.16
-391.58
-419.21
-445.94
-473.84
-505.65
-544.20
-591.43
-647.01
-707.29
-765.09
-811.09
-836.59
-836.56
-811.50
-767.08
-711.73
-653.40
-597.19
-544.83
-495.88
-449.50
-405.69
-365.19
-328.76
-296.32
-266.74
-238.45
-210.20
-181.58
-153.06
-125.67
-100.34
-77.60
-57.41
-39.22
-22.20
-5.40
12.04
30.77
51.02
72.53
94.43
115.49
134.55
151.02
165.38
179.09
194.19
212.38
234.24
258.88
284.30
308.27
329.41
347.95
365.64
385.24
409.57
440.95
480.42
526.96
576.83
623.23
656.91
668.09
649.78
601.13
529.46
449.08
376.84
325.96
300.94
296.00
298.09
292.82
270.20
227.67
169.18
101.14
28.70
-45.75
-121.01
-194.29
-259.86
-311.23
-345.40
-366.20
-383.82
-409.90
-451.01
-504.22
-557.73
-596.43
-609.18
-593.64
-556.30
-508.22
-459.52
-415.80
-377.82
-343.67
-311.36
-279.93
-249.11
-218.53
-187.26
-154.19
-119.11
-83.20
-48.55
-17.02
10.90
36.33
61.98
90.92
124.65
162.20
200.38
235.19
264.01
286.89
306.30
326.93
354.09
391.68
440.58
497.57
554.90
601.82
626.90
621.42
584.85
527.18
466.32
422.02
408.01
426.15
467.02
513.33
545.54
552.14
533.18
496.15
450.35
401.78
351.37
299.42
246.36
190.35
134.14
84.37
44.91
14.78
-11.80
-42.56
-79.61
-121.76
-172.27
-229.40
-285.63
-334.57
-371.85
-395.30
-404.25
-393.88
-360.72
-313.12
-257.11
-192.30
-118.54
-36.32
52.31
108.85
103.21
76.49
44.77
-6.74
-76.16
-153.09
-222.46
-270.26
-288.57
-272.98
-228.02
-174.48
-130.94
-105.45
-99.49
-107.62
-119.84
-125.96
-116.26
-89.50
-60.80
-46.81
-56.38
-90.86
-142.95
-199.99
-249.28
-279.76
-286.30
-273.49
-246.58
-208.03
-160.71
-108.22
-54.94
-5.12
39.88
81.55
121.68
164.34
214.61
273.92
338.01
396.73
436.84
447.85
427.22
382.70
331.92
296.18
291.09
319.91
372.24
428.95
470.73
485.68
472.48
438.39
393.84
347.21
302.31
259.16
216.48
174.09
133.56
97.01
65.53
38.15
12.04
-16.02
-48.16
-84.55
-123.54
-162.52
-199.20
-232.45
-262.74
-291.60
-320.93
-352.21
-385.90
-421.67
-459.09
-498.50
-541.20
-588.46
-639.66
-690.82
-734.57
-762.11
-766.42
-745.13
-701.35
-642.15
-575.48
-507.42
-440.89
-376.48
-313.96
-253.64
-196.33
-142.56
-91.58
-41.36
10.64
66.18
125.32
186.30
245.98
301.05
349.14
389.63
423.82
454.47
484.75
517.03
551.91
587.69
620.78
646.58
660.94
661.54
648.68
625.12
595.03
562.45
529.93
498.13
466.29
433.33
398.95
363.93
329.61
297.03
266.31
236.72
207.37
177.95
149.04
121.76
97.06
75.15
55.27
36.17
16.73
-3.44
-23.89
-43.65
-61.88
-78.35
-93.65
-108.85
-124.93
-142.24
-160.28
-177.96
-194.26
-208.89
-222.59
-236.96
-253.73
-273.98
-297.62
-323.59
-350.24
-376.23
-401.12
-425.57
-451.16
-480.13
-515.04
-558.07
-609.72
-667.50
-725.18
-773.69
-803.65
-808.68
-787.88
-746.09
-691.61
-632.73
-574.72
-518.96
-464.29
-409.39
-354.51
-301.61
-252.99
-209.57
-170.02
-131.21
-89.75
-43.70
6.57
58.33
107.95
152.58
191.17
225.80
259.82
296.65
338.38
385.36
436.54
490.47
545.39
598.18
644.64
679.06
696.82
697.18
684.56
666.89
651.68
641.87
633.53
620.29
595.53
557.27
509.14
457.93
409.42
365.37
323.57
278.40
230.01
179.53
130.55
86.79
49.89
18.43
-11.31
-43.55
-84.99
-131.11
-179.35
-225.84
-267.36
-302.82
-333.83
-363.81
-396.36
-439.89
-487.51
-538.27
-591.01
-644.72
-698.06
-748.11
-789.62
-815.88
-828.95
-816.75
-781.22
-728.23
-665.12
-597.76
-529.39
-461.88
-347.05
-257.70
-190.09
-148.64
-131.79
-130.77
-132.16
-123.08
-96.15
-51.52
-3.35
49.94
102.93
154.04
204.48
255.49
306.62
355.63
400.17
433.46
464.95
499.16
540.94
592.51
651.13
708.63
753.44
774.44
761.39
719.78
657.39
585.52
514.29
449.29
390.87
335.99
281.27
223.39
165.65
110.21
58.85
11.67
-32.76
-76.42
-120.94
-167.42
-217.46
-271.37
-329.81
-391.53
-451.95
-503.10
-535.48
-541.41
-518.19
-469.38
-403.23
-329.57
-256.19
-187.06
-122.47
-60.65
0.83
64.45
132.47
206.22
284.65
363.02
432.74
483.66
507.76
502.35
471.39
423.73
369.34
315.63
265.59
218.42
171.72
123.81
74.72
25.62
-22.27
-68.75
-114.73
-161.56
-210.46
-262.37
-318.10
-378.61
-444.32
-513.84
-582.83
-644.01
-689.00
-711.16
-708.23
-683.25
-643.16
-595.97
-547.97
-502.44
-460.11
-420.58
-383.65
-349.50
-318.15
-288.81
-259.83
-229.44
-196.78
-162.40
-128.06
-96.00
-67.72
-43.30
-21.37
0.23
23.47
49.22
76.92
104.89
131.24
154.82
175.81
195.60
216.14
238.99
264.62
292.33
320.84
348.86
375.88
402.13
428.31
455.21
483.71
515.15
551.23
593.27
640.58
689.12
731.27
757.57
759.90
734.62
684.13
616.03
540.33
466.01
398.75
340.10
288.50
240.91
194.04
145.11
92.12
33.92
-29.10
-93.98
-154.46
-202.04
-228.56
-230.25
-210.87
-181.92
-158.69
-153.56
-169.82
-200.09
-230.10
-246.62
-244.77
-230.51
-217.37
-219.58
-245.64
-295.61
-362.56
-436.23
-506.49
-565.20
-606.47
-626.62
-624.33
-600.99
-560.73
-509.46
-453.26
-396.92
-343.66
-295.28
-252.57
-215.31
-182.11
-150.34
-116.81
-78.86
-35.58
11.75
60.14
105.99
146.55
180.90
210.21
237.18
265.19
297.39
336.19
382.70
435.93
491.95
543.62
581.66
597.05
584.39
544.36
484.00
413.94
344.31
281.41
226.64
177.90
132.14
87.62
44.72
5.58
-27.18
-51.62
-67.43
-76.44
-82.87
-92.86
-112.92
-147.85
-198.44
-260.31
-324.53
-380.13
-417.43
-430.68
-419.06
-386.03
-337.64
-280.71
-221.27
-163.91
-111.58
-65.66
-25.58
11.66
50.95
97.37
153.37
216.05
276.08
319.53
332.70
307.93
248.06
166.86
84.95
22.73
-6.15
1.76
40.81
100.22
168.33
235.05
292.13
332.70
351.72
347.72
324.01
287.94
248.10
210.44
176.47
144.58
113.75
86.69
69.83
70.09
90.46
127.35
171.71
212.98
243.53
260.94
267.58
268.24
267.54
268.40
271.81
277.14
282.75
286.52
286.44
281.17
270.45
254.93
235.75
213.94
190.24
165.41
140.65
117.58
97.89
82.43
70.65
60.69
50.10
36.84
20.16
0.75
-19.61
-38.89
-55.59
-69.26
-80.60
-90.99
-101.99
-114.63
-129.06
-144.45
-159.29
-171.95
-181.27
-187.08
-190.29
-192.70
-196.37
-202.97
-213.17
-226.56
-242.09
-258.61
-275.65
-293.72
-314.23
-339.13
-370.61
-410.88
-461.57
-522.71
-591.35
-660.93
-721.99
-764.64
-781.96
-772.44
-740.42
-693.98
-641.41
-588.28
-536.37
-484.80
-432.30
-378.95
-326.36
-276.65
-230.88
-188.16
-146.11
-102.04
-54.35
-3.18
49.52
101.14
149.54
194.00
235.50
276.15
318.37
364.22
415.17
472.08
534.96
602.12
669.38
729.97
775.82
800.03
799.45
775.90
735.41
685.80
633.81
583.38
535.73
490.60
447.86
408.09
372.24
340.66
312.58
286.24
259.76
232.06
203.26
174.60
147.79
124.09
103.83
86.12
69.24
51.25
30.73
7.32
-18.22
-44.29
-69.22
-91.87
-112.20
-131.31
-151.02
-173.20
-199.01
-228.45
-260.35
-293.04
-324.89
-355.11
-384.02
-412.82
-443.29
-477.51
-517.73
-565.89
-622.68
-686.05
-750.44
-807.23
-847.06
-863.00
-853.22
-821.58
-775.78
-724.11
-672.39
-622.79
-574.64
-526.45
-477.65
-429.09
-382.33
-338.47
-297.46
-258.14
-219.05
-179.18
-138.45
-97.93
-59.29
-24.16
6.44
32.62
55.63
77.53
100.49
125.94
153.98
183.26
211.55
236.70
257.91
276.16
294.05
314.63
339.91
370.12
404.11
440.53
479.03
519.94
562.50
602.89
634.46
650.22
646.80
626.89
598.32
569.62
544.89
521.80
494.17
457.59
413.99
371.68
340.55
325.58
323.25
323.11
313.71
288.67
249.18
201.83
153.90
109.08
66.50
22.81
-24.74
-75.95
-127.91
-176.96
-221.09
-261.21
-301.04
-346.04
-401.03
-467.90
-543.69
-620.44
-686.88
-731.99
-748.89
-737.40
-703.87
-658.22
-609.95
-564.72
-523.54
-484.21
-444.04
-401.90
-358.85
-317.07
-278.29
-242.84
-209.54
-176.54
-142.20
-105.69
-67.10
-27.09
13.61
54.72
96.37
139.11
183.53
229.89
278.15
328.49
381.74
439.34
502.08
568.26
632.32
685.16
716.57
719.00
690.71
636.55
566.14
490.08
416.17
347.74
283.95
221.57
157.01
87.97
14.64
-59.94
-130.13
-188.92
-229.90
-249.31
-247.04
-226.21
-191.77
-148.76
-101.21
-51.66
-1.12
51.01
106.55
167.40
233.56
301.33
362.93
408.55
430.07
424.57
395.56
351.02
299.71
247.88
197.78
148.72
99.39
49.73
1.15
-44.68
-87.12
-127.35
-167.79
-210.85
-258.04
-309.82
-366.01
-426.37
-490.13
-555.08
-616.55
-667.65
-700.98
-711.17
-697.09
-662.38
-614.11
-560.25
-507.21
-458.61
-415.47
-377.14
-342.24
-309.17
-276.27
-242.07
-205.68
-167.24
-127.83
-88.82
-51.14
-14.68
21.73
59.59
99.84
142.37
186.00
229.02
269.89
307.85
343.18
377.39
412.89
452.51
498.25
549.67
602.78
650.20
682.75
692.30
674.84
632.24
572.06
505.28
442.79
392.27
356.56
334.26
321.70
315.07
311.74
309.87
307.35
301.01
286.78
261.12
223.13
176.14
127.37
85.64
57.67
45.10
43.74
45.32
40.80
24.07
-5.80
-44.67
-85.40
-121.08
-147.79
-166.00
-179.44
-193.22
-211.27
-235.05
-263.84
-296.17
-331.38
-370.33
-414.92
-466.33
-523.03
-580.04
-629.74
-664.26
-678.15
-670.29
-643.87
-604.83
-559.74
-513.60
-469.09
-426.98
-387.35
-350.50
-317.26
-288.33
-263.24
-239.87
-214.72
-184.20
-146.03
-100.27
-49.02
4.46
57.25
107.99
157.57
208.90
265.86
331.26
404.58
480.45
548.91
597.89
617.33
602.97
557.98
491.76
416.00
340.28
269.52
203.23
137.34
66.94
-11.08
-96.61
-185.88
-271.95
-346.15
-399.66
-426.22
-424.10
-397.10
-354.07
-306.89
-267.30
-243.68
-238.72
-248.32
-264.27
-277.50
-281.18
-272.40
-252.08
-223.52
-190.50
-155.95
-119.89
-82.75
-46.02
-11.63
19.66
49.12
79.39
112.78
149.86
192.83
240.62
289.41
334.93
375.10
410.91
445.42
482.06
523.15
574.55
636.74
704.08
767.56
819.41
855.99
877.26
884.62
879.04
867.50
852.00
828.88
791.99
738.01
669.40
593.38
519.11
408.44
252.18
67.95
-111.89
-263.25
-378.82
-461.24
-515.59
-547.21
-562.06
-559.62
-542.83
-517.75
-490.58
-463.83
-435.88
-403.86
-366.85
-327.43
-285.57
-245.89
-216.50
-205.32
-215.10
-241.19
-273.13
-298.23
-305.48
-285.39
-237.52
-171.09
-101.47
-43.96
-9.05
-0.66
-17.39
-55.57
-106.83
-162.53
-215.01
-257.28
-282.49
-285.13
-263.52
-221.79
-169.44
-117.56
-76.08
-50.46
-40.55
-41.87
-48.58
-56.25
-63.00
-68.94
-74.34
-78.85
-81.14
-79.46
-72.47
-59.94
-42.63
-21.93
0.41
22.64
42.95
59.80
72.51
81.60
88.50
94.62
100.20
103.81
102.89
95.14
80.05
59.54
37.38
17.56
2.65
-6.92
-12.54
-16.33
-20.03
-24.38
-28.95
-32.44
-32.84
-27.74
-14.83
7.30
38.24
75.28
113.67
147.88
173.12
186.60
187.93
178.85
162.51
142.67
123.15
107.34
97.66
95.07
98.79
106.59
115.71
123.93
130.43
135.93
142.07
150.65
162.83
178.89
198.22
219.70
241.86
263.08
281.25
294.40
301.29
301.80
297.05
288.80
278.79
267.95
256.02
241.55
223.05
200.03
173.37
145.02
116.99
90.61
66.25
43.58
21.26
-1.62
-25.06
-48.23
-70.11
-90.06
-107.88
-123.50
-136.76
-149.65
-163.59
-178.58
-193.09
-205.09
-213.18
-216.74
-215.69
-210.22
-205.52
-206.23
-214.37
-228.63
-246.30
-265.13
-283.79
-301.14
-315.91
-334.31
-361.37
-397.76
-439.04
-478.86
-512.43
-537.51
-553.62
-561.63
-573.27
-599.31
-644.68
-706.84
-779.71
-858.52
-941.55
-1028.91
-1059.05
-992.50
-826.09
-595.22
-346.60
-113.45
87.85
250.76
374.29
461.68
510.31
522.18
505.98
475.07
441.97
414.31
395.01
384.71
384.55
387.27
385.89
377.72
364.82
351.20
339.84
331.83
327.86
328.16
327.66
321.91
310.03
294.42
279.03
267.22
257.15
248.00
239.07
227.31
205.44
171.12
126.81
78.50
32.35
-7.54
-38.98
-61.87
-78.06
-89.44
-96.02
-97.47
-92.99
-82.66
-67.69
-49.50
-29.68
-9.31
11.57
34.84
60.75
90.25
124.32
163.74
209.11
259.56
311.82
360.03
397.18
416.73
415.38
394.12
358.05
314.58
270.78
231.39
198.29
171.33
149.26
130.86
114.84
99.88
84.72
68.49
51.06
33.10
15.67
-0.53
-15.60
-30.61
-47.29
-67.18
-91.19
-119.25
-150.16
-181.86
-211.60
-236.53
-254.34
-263.79
-264.85
-258.50
-246.07
-228.71
-207.23
-182.47
-156.15
-131.72
-114.41
-109.78
-121.20
-147.49
-181.98
-214.15
-233.33
-233.05
-213.98
-183.98
-154.84
-137.44
-137.44
-153.55
-178.83
-204.04
-221.07
-225.07
-214.61
-190.56
-154.63
-108.36
-52.84
11.12
82.13
157.20
230.94
295.59
342.10
362.48
352.59
313.79
253.04
180.46
106.00
36.60
-25.13
-80.21
-131.68
-182.27
-232.87
-281.51
-323.33
-351.64
-359.78
-343.12
-300.77
-236.30
-157.14
-73.32
4.41
66.53
106.51
122.42
117.49
99.40
77.93
61.70
55.12
57.25
62.71
64.62
57.63
39.84
13.25
-17.19
-45.21
-64.82
-71.58
-63.47
-41.23
-7.99
31.26
70.68
104.77
129.39
142.38
143.86
135.97
122.17
106.39
91.92
80.70
72.87
66.99
60.61
51.37
37.81
19.98
-0.44
-20.81
-38.38
-51.36
-59.46
-64.05
-67.50
-72.16
-79.50
-89.39
-100.19
-109.41
-114.64
-114.44
-108.88
-99.91
-91.26
-87.89
-94.69
-114.64
-147.07
-186.94
-225.76
-254.25
-265.41
-256.82
-230.79
-192.59
-147.70
-99.62
-49.46
2.75
56.30
108.77
156.44
195.80
225.02
244.29
255.10
258.87
255.92
245.32
225.88
197.16
160.27
117.77
73.03
29.45
-9.99
-42.78
-66.90
-81.02
-85.01
-80.39
-70.20
-58.03
-46.54
-36.52
-27.06
-16.82
-5.72
4.17
9.15
5.72
-7.33
-27.71
-50.16
-68.35
-77.17
-74.40
-60.93
-39.86
-15.22
8.82
28.17
39.00
38.15
24.29
-0.89
-32.35
-62.74
-84.49
-92.32
-85.09
-66.23
-42.43
-21.42
-9.63
-10.56
-24.26
-47.82
-76.45
-104.79
-128.01
-142.61
-146.77
-140.29
-124.33
-101.12
-73.62
-45.04
-18.33
4.62
23.39
38.89
52.71
66.10
79.39
91.72
101.61
107.78
110.11
109.80
108.96
109.68
113.07
118.78
125.29
130.95
134.94
137.98
142.24
150.45
165.14
188.24
221.18
264.83
319.01
381.34
446.40
506.23
552.33
578.68
583.94
571.83
549.07
522.36
495.89
470.49
444.76
416.71
385.13
349.55
309.65
264.32
211.68
150.41
81.98
12.56
-47.02
-84.05
-89.05
-60.57
-7.12
55.21
108.94
141.90
151.07
141.71
122.71
101.00
78.58
53.29
22.16
-15.10
-55.09
-92.19
-121.49
-141.08
-152.46
-159.38
-165.52
-172.92
-181.19
-188.33
-192.08
-191.20
-186.20
-179.22
-173.24
-171.24
-175.88
-189.43
-213.91
-250.51
