1660322925.00
64.000000
-0.00
-0.00
-0.00
-0.00
-0.00
-0.00
-0.00
-0.00
-0.00
-0.00
0.00
0.01
0.01
-0.00
-0.03
-0.05
-0.05
0.00
0.13
0.36
0.66
1.01
1.37
1.72
2.06
2.40
2.79
3.24
3.80
4.42
5.06
5.67
6.21
6.68
7.15
7.67
8.30
9.15
10.12
11.10
11.95
12.58
13.05
13.50
14.17
15.25
17.01
19.28
21.78
24.21
26.34
28.22
30.15
32.59
35.90
40.49
46.05
52.02
57.76
62.82
67.21
71.39
76.10
81.99
89.71
98.81
108.44
117.54
125.32
131.64
137.09
143.14
148.80
156.62
167.36
181.01
196.05
209.08
215.42
210.34
190.75
156.34
110.07
56.10
-1.35
-59.61
-117.91
-176.58
-235.90
-295.15
-352.72
-406.29
-454.43
-496.47
-532.30
-561.77
-584.33
-599.02
-604.70
-600.27
-584.33
-555.45
-511.98
-452.92
-378.88
-292.94
-200.49
-108.04
-21.61
54.77
119.23
171.70
212.87
243.50
264.32
276.31
281.05
280.56
276.88
271.35
264.45
255.97
245.37
232.43
217.43
201.23
184.92
169.54
155.66
143.33
132.09
121.28
110.38
99.24
88.12
77.52
67.90
59.47
52.13
45.59
39.50
33.65
27.96
22.49
17.32
12.64
8.51
4.99
2.09
-0.19
-1.96
-3.38
-4.62
-5.77
-6.84
-7.78
-8.47
-8.85
-8.93
-8.79
-8.58
-8.42
-8.33
-8.22
-7.96
-7.43
-6.63
-5.70
-4.86
-4.30
-4.11
-4.20
-4.39
-4.55
-4.58
-4.50
-4.34
-4.12
-3.82
-3.38
-2.84
-2.26
-1.79
-1.53
-1.54
-1.78
-2.14
-2.52
-2.79
-2.88
-2.77
-2.47
-2.06
-1.64
-1.32
-1.13
-1.05
-1.03
-1.05
-1.14
-1.32
-1.57
-1.82
-1.94
-1.86
-1.58
-1.20
-0.88
-0.72
-0.73
-0.82
-0.83
-0.66
-0.30
0.16
0.62
0.95
1.12
1.17
1.20
1.27
1.41
1.55
1.62
1.55
1.39
1.26
1.31
1.64
2.23
2.95
3.61
4.06
4.21
4.04
3.57
2.87
1.97
0.96
-0.14
-1.23
-2.24
-3.10
-3.76
-4.24
-4.52
-4.63
-4.59
-4.44
-4.20
-3.88
-3.52
-3.15
-2.83
-2.64
-2.61
-2.68
-2.78
-2.78
-2.60
-2.28
-1.94
-1.72
-1.69
-1.82
-2.00
-2.13
-2.20
-2.21
-2.24
-2.30
-2.38
-2.41
-2.34
-2.15
-1.85
-1.44
-0.94
-0.36
0.24
0.78
1.13
1.24
1.12
0.86
0.59
0.42
0.37
0.36
0.27
0.05
-0.33
-0.75
-1.08
-1.24
-1.26
-1.20
-1.18
-1.22
-1.31
-1.37
-1.34
-1.21
-1.07
-1.02
-1.13
-1.37
-1.65
-1.89
-2.02
-2.05
-2.02
-1.93
-1.79
-1.58
-1.31
-1.04
-0.86
-0.78
-0.75
-0.65
-0.35
0.17
0.83
1.43
1.78
1.74
1.37
0.80
0.25
-0.12
-0.24
-0.18
-0.08
-0.08
-0.32
-0.82
-1.52
-2.27
-2.88
-3.19
-3.08
-2.59
-1.85
-1.09
-0.58
-0.47
-0.77
-1.33
-1.88
-2.17
-2.08
-1.64
-0.96
-0.21
0.51
1.16
1.76
2.33
2.88
3.39
3.83
4.18
4.44
4.63
4.77
4.87
4.90
4.83
4.65
4.34
3.95
3.56
3.25
3.08
3.07
3.16
3.30
3.39
3.37
3.17
2.76
2.13
1.29
0.34
-0.65
-1.58
-2.36
-2.96
-3.40
-3.67
-3.80
-3.74
-3.42
-2.81
-1.95
-0.96
-0.04
0.66
1.05
1.20
1.21
1.21
1.25
1.29
1.25
1.03
0.63
0.10
-0.48
-1.01
-1.46
-1.81
-2.02
-2.08
-1.97
-1.67
-1.25
-0.79
-0.41
-0.20
-0.16
-0.27
-0.41
-0.50
-0.45
-0.23
0.10
0.51
0.89
1.16
1.27
1.20
0.99
0.75
0.57
0.56
0.75
1.11
1.55
1.93
2.12
2.06
1.73
1.20
0.58
-0.00
-0.42
-0.61
-0.55
-0.31
-0.02
0.24
0.37
0.38
0.32
0.28
0.29
0.37
0.44
0.42
0.23
-0.14
-0.61
-1.07
-1.38
-1.49
-1.44
-1.36
-1.36
-1.51
-1.79
-2.07
-2.22
-2.20
-2.03
-1.81
-1.58
-1.32
-0.98
-0.52
0.04
0.55
0.87
0.89
0.66
0.31
0.03
-0.05
0.11
0.43
0.82
1.17
1.44
1.65
1.79
1.83
1.73
1.45
1.02
0.56
0.21
0.07
0.14
0.32
0.45
0.42
0.25
-0.02
-0.30
-0.54
-0.79
-1.09
-1.46
-1.87
-2.21
-2.41
-2.42
-2.28
-2.04
-1.75
-1.40
-0.94
-0.35
0.36
1.10
1.76
2.24
2.48
2.52
2.44
2.32
2.23
2.16
2.08
1.96
1.78
1.58
1.40
1.28
1.22
1.17
1.10
0.97
0.80
0.62
0.44
0.25
-0.01
-0.39
-0.90
-1.43
-1.86
-2.07
-1.99
-1.69
-1.27
-0.92
-0.76
-0.87
-1.23
-1.77
-2.34
-2.79
-2.98
-2.83
-2.34
-1.62
-0.80
-0.03
0.58
0.96
1.10
1.00
0.69
0.25
-0.19
-0.46
-0.45
-0.11
0.43
1.00
1.39
1.50
1.36
1.08
0.80
0.57
0.39
0.23
0.06
-0.08
-0.15
-0.17
-0.16
-0.21
-0.37
-0.65
-0.99
-1.33
-1.62
-1.84
-1.96
-1.98
-1.89
-1.67
-1.30
-0.81
-0.23
0.36
0.88
1.25
1.44
1.45
1.37
1.29
1.29
1.37
1.45
1.44
1.28
0.96
0.57
0.22
-0.02
-0.13
-0.15
-0.18
-0.24
-0.31
-0.36
-0.33
-0.25
-0.15
-0.05
0.01
0.05
0.10
0.16
0.18
0.15
0.07
-0.01
-0.04
-0.03
-0.06
-0.24
-0.64
-1.22
-1.79
-2.16
-2.21
-1.92
-1.42
-0.88
-0.45
-0.16
0.04
0.27
0.58
1.00
1.46
1.83
2.05
2.06
1.91
1.69
1.50
1.41
1.40
1.41
1.35
1.20
0.96
0.69
0.42
0.15
-0.15
-0.46
-0.74
-0.93
-0.94
-0.80
-0.58
-0.45
-0.48
-0.70
-1.01
-1.25
-1.31
-1.18
-0.92
-0.64
-0.40
-0.21
-0.02
0.19
0.43
0.65
0.77
0.78
0.72
0.65
0.66
0.77
0.96
1.19
1.38
1.53
1.62
1.69
1.75
1.80
1.81
1.70
1.40
0.88
0.18
-0.55
-1.17
-1.52
-1.59
-1.44
-1.24
-1.15
-1.24
-1.49
-1.78
-1.96
-1.95
-1.72
-1.35
-0.92
-0.52
-0.19
0.06
0.25
0.40
0.51
0.57
0.56
0.48
0.37
0.25
0.16
0.11
0.10
0.11
0.09
-0.00
-0.18
-0.47
-0.81
-1.15
-1.37
-1.38
-1.15
-0.77
-0.36
-0.09
-0.03
-0.17
-0.39
-0.57
-0.62
-0.56
-0.48
-0.45
-0.48
-0.53
-0.51
-0.41
-0.27
-0.16
-0.14
-0.20
-0.26
-0.22
-0.06
0.17
0.38
0.49
0.48
0.38
0.27
0.20
0.15
0.09
0.00
-0.11
-0.18
-0.16
-0.00
0.25
0.53
0.76
0.91
0.96
0.96
0.95
0.93
0.88
0.77
0.62
0.45
0.35
0.35
0.50
0.75
1.05
1.32
1.56
1.81
2.15
2.68
3.43
4.36
5.40
6.43
7.42
8.38
9.40
10.57
11.94
13.47
15.06
16.57
17.89
19.00
19.98
21.07
22.59
24.83
27.99
32.06
36.78
41.70
46.32
50.13
52.82
54.34
54.91
55.02
55.36
56.63
59.37
63.64
68.97
74.51
79.38
83.17
86.10
89.04
93.01
98.82
106.71
116.35
127.00
137.73
147.42
154.76
158.23
156.16
147.41
131.84
110.58
85.80
60.14
36.00
15.11
-1.76
-14.81
-24.80
-32.67
-39.25
-45.17
-50.87
-56.58
-62.40
-68.29
-74.54
-81.40
-89.00
-97.33
-106.34
-115.88
-125.61
-134.95
-143.22
-150.70
-157.67
-164.06
-169.41
-173.24
-175.37
-175.87
-174.90
-172.63
-171.05
-171.38
-173.51
-175.99
-177.25
-176.61
-174.24
-170.75
-166.88
-165.99
-169.96
-178.23
-187.98
-196.11
-200.87
-201.93
-199.79
-195.20
-192.65
-194.86
-201.86
-211.03
-219.48
-225.73
-229.64
-231.69
-209.33
-152.49
-67.90
23.62
102.63
160.67
198.50
220.34
230.45
231.93
222.45
203.80
180.85
160.90
150.24
151.35
162.64
180.05
199.13
210.76
209.73
196.50
176.09
154.13
134.00
116.53
101.36
88.10
75.07
62.22
50.46
41.03
34.51
30.35
27.36
24.63
21.83
18.24
14.16
10.08
6.64
4.02
1.95
0.05
-1.78
-3.29
-4.72
-5.88
-6.59
-6.85
-6.85
-6.89
-7.17
-7.64
-8.04
-8.07
-7.41
-6.02
-4.14
-2.16
-0.42
0.93
1.90
2.58
3.03
3.29
3.35
3.19
2.83
2.35
1.85
1.41
1.01
0.65
0.32
0.10
0.09
0.39
1.02
1.92
2.98
4.06
5.06
5.98
6.84
7.69
8.55
9.40
10.19
10.87
11.39
11.72
11.84
11.80
11.69
11.69
12.01
12.85
14.29
16.24
18.48
20.68
22.52
23.75
24.23
23.92
22.87
21.25
19.28
17.21
15.28
13.62
12.22
10.99
9.75
8.37
6.74
4.83
2.62
0.17
-2.44
-5.09
-7.66
-10.01
-12.08
-13.85
-15.38
-16.81
-18.29
-20.00
-22.02
-24.33
-26.79
-29.12
-30.99
-32.04
-31.96
-30.54
-27.81
-24.07
-19.85
-15.80
-12.46
-10.12
-8.72
-7.95
-7.37
-6.65
-5.65
-4.43
-3.14
-1.90
-0.73
0.47
1.90
3.79
6.30
9.42
12.91
16.30
18.94
20.24
19.89
18.04
15.32
12.64
10.85
10.47
11.48
13.39
15.49
17.11
17.88
17.71
16.76
15.34
13.77
12.34
11.27
10.72
10.74
11.26
12.03
12.71
12.90
12.24
10.57
7.97
4.79
1.58
-1.00
-2.43
-2.50
-1.43
0.13
1.31
1.38
-0.01
-2.66
-5.92
-8.90
-10.84
-11.38
-10.57
-8.83
-6.70
-4.72
-3.20
-2.35
-2.18
-2.61
-3.49
-4.57
-5.52
-6.05
-5.92
-5.04
-3.50
-1.53
0.66
2.95
5.32
7.86
10.58
13.41
16.06
18.15
19.19
18.80
16.84
13.50
9.40
5.39
2.37
1.04
1.56
3.60
6.42
9.15
11.09
11.91
11.63
10.58
9.19
7.90
7.05
6.86
7.35
8.38
9.58
10.49
10.61
9.59
7.36
4.21
0.80
-2.02
-3.44
-3.01
-0.92
1.96
4.27
4.75
2.69
-1.67
-7.25
-12.55
-16.24
-17.67
-16.95
-14.74
-11.85
-8.91
-6.31
-4.24
-2.85
-2.31
-2.73
-4.00
-5.73
-7.34
-8.29
-8.27
-7.35
-5.92
-4.46
-3.33
-2.59
-2.00
-1.10
0.55
3.26
6.99
11.31
15.39
18.24
19.02
17.40
13.81
9.34
5.38
3.06
2.89
4.57
7.28
10.03
12.02
12.90
12.68
11.61
10.05
8.39
6.98
6.17
6.13
6.84
8.02
9.17
9.67
9.04
7.08
4.01
0.46
-2.70
-4.61
-4.81
-3.49
-1.56
-0.44
-1.45
-5.29
-11.61
-19.05
-25.76
-30.13
-31.38
-29.71
-26.06
-21.57
-17.15
-13.29
-10.15
-7.84
-6.47
-6.13
-6.70
-7.78
-8.78
-9.21
-8.90
-8.05
-7.07
-6.28
-5.70
-4.89
-3.17
0.13
5.38
12.48
20.72
28.81
35.05
37.80
36.03
29.86
20.72
11.00
3.22
-0.83
-0.70
2.70
7.59
12.10
14.85
15.27
13.56
10.44
6.86
3.79
1.96
1.72
2.94
5.02
7.16
8.58
8.85
7.98
6.44
4.97
4.33
5.03
7.20
10.34
13.34
14.72
13.09
7.75
-0.86
-11.17
-21.05
-28.57
-32.77
-33.81
-32.69
-30.54
-28.03
-25.21
-21.74
-17.36
-12.19
-6.91
-2.55
-0.20
-0.61
-3.84
-9.14
-15.05
-19.86
-22.18
-21.53
-18.40
-14.10
-10.10
-7.41
-6.08
-5.24
-3.57
-0.07
5.35
11.71
17.33
20.55
20.50
17.43
12.58
7.51
3.51
1.25
0.77
1.80
3.94
6.82
10.01
13.00
15.28
16.52
16.69
16.05
14.97
13.84
12.90
12.29
12.02
12.10
12.47
13.01
13.48
13.52
12.72
10.75
7.40
2.69
-3.25
-10.09
-17.25
-23.83
-28.68
-30.79
-29.71
-25.99
-21.10
-16.90
-14.82
-15.21
-17.22
-19.30
-20.03
-18.71
-15.57
-11.36
-6.90
-2.70
1.08
4.50
7.59
10.29
12.53
14.27
15.63
16.84
18.12
19.60
21.21
22.70
23.67
23.74
22.68
20.58
17.86
15.14
13.05
12.02
12.05
12.74
13.43
13.52
12.64
10.84
8.47
6.10
4.25
3.28
3.34
4.36
6.08
8.08
9.92
11.27
11.96
12.09
11.92
11.87
12.27
13.23
14.49
15.53
15.81
15.13
13.79
12.40
11.44
10.78
9.56
6.58
1.17
-6.10
-13.39
-18.18
-18.54
-14.03
-6.00
3.28
11.64
17.52
19.94
18.09
11.39
0.31
-12.72
-23.22
-25.97
-17.34
2.47
28.96
54.90
73.53
81.50
79.87
72.66
63.92
55.26
45.26
31.16
11.45
-12.32
-35.82
-53.94
-63.54
-65.09
-62.44
-60.54
-62.74
-69.12
-76.67
-81.19
-79.73
-72.12
-60.85
-49.58
-41.23
-36.70
-34.82
-33.30
-30.25
-25.09
-18.74
-12.92
-9.17
-8.07
-9.07
-10.90
-12.20
-12.20
-10.97
-9.20
-7.74
-7.24
-7.76
-8.82
-9.58
-9.23
-7.39
-4.20
-0.27
3.68
6.87
8.79
9.33
8.91
8.27
8.17
9.15
11.43
14.93
18.87
22.12
23.68
23.30
21.71
20.26
20.42
23.28
29.14
36.74
43.70
47.35
45.90
38.99
27.43
12.95
-2.01
-14.67
-23.33
-27.93
-30.24
-33.16
-39.85
-53.02
-73.80
-101.03
-126.87
-141.30
-137.16
-115.42
-83.90
-51.53
-23.98
-2.96
12.52
24.45
33.74
40.13
42.89
42.20
39.25
35.66
32.68
30.79
29.62
27.55
22.56
13.34
0.83
-11.83
-20.55
-22.00
-15.10
-1.55
14.43
27.95
34.56
33.29
26.44
17.66
10.10
5.14
2.50
0.95
-0.79
-3.06
-5.28
-6.66
-6.83
-5.92
-4.53
-3.33
-2.92
-3.54
-5.02
-6.82
-8.30
-9.01
-8.81
-7.84
-6.42
-4.84
-3.27
-1.72
-0.10
1.62
2.94
3.46
2.93
1.41
-0.80
-3.21
-5.27
-6.52
-6.67
-5.63
-3.44
-0.34
3.28
6.90
10.02
12.31
13.64
14.07
13.75
12.92
11.81
10.63
9.59
8.90
8.67
8.90
9.48
10.17
10.78
11.16
11.18
10.70
9.63
7.88
5.52
2.79
0.06
-2.30
-4.04
-5.17
-5.87
-6.41
-6.98
-7.58
-8.04
-8.11
-7.57
-6.31
-4.42
-2.10
0.29
2.38
3.79
4.24
3.69
2.39
0.83
-0.38
-0.74
-0.04
1.54
3.47
5.14
6.04
5.99
5.09
3.61
1.82
-0.15
-2.36
-4.91
-7.80
-10.86
-13.68
-15.82
-16.91
-16.91
-16.12
-15.12
-14.55
-14.82
-15.84
-17.07
-17.63
-16.72
-14.00
-9.82
-5.11
-0.93
1.95
3.42
3.94
4.22
4.77
5.78
7.23
9.11
11.44
14.03
16.15
16.58
14.16
8.64
1.35
-4.94
-7.14
-3.35
6.02
18.20
29.31
36.08
37.23
33.80
28.23
22.90
19.09
16.80
15.50
15.07
16.38
21.02
30.32
44.20
60.63
76.08
86.67
89.74
84.82
73.71
59.56
45.46
33.25
23.11
14.15
5.38
-3.20
-10.31
-13.76
-11.64
-3.39
9.83
25.61
41.09
53.63
61.07
61.70
54.28
38.51
15.57
-11.66
-39.07
-62.58
-79.59
-89.94
-95.70
-100.07
-105.87
-114.55
-126.12
-139.77
-154.40
-168.74
-180.99
-188.55
-188.30
-177.50
-154.84
-121.36
-80.46
-37.10
3.62
37.78
63.36
80.32
89.94
93.96
93.94
91.00
85.91
79.36
72.30
65.91
61.27
58.89
58.37
58.44
57.68
55.19
51.17
46.78
43.36
41.39
40.03
37.53
32.35
24.32
14.91
6.15
-0.98
-7.61
-16.00
-27.58
-41.35
-54.23
-63.53
-69.47
-75.59
-86.22
-102.60
-120.67
-132.40
-130.27
-111.92
-81.90
-49.30
-22.82
-6.61
0.58
3.04
4.45
5.77
5.79
3.35
-1.01
-4.93
-5.58
-1.66
5.70
13.36
17.82
16.94
11.19
3.66
-1.17
0.47
9.77
24.58
40.23
51.67
55.84
53.00
46.38
40.44
38.55
41.56
47.71
53.95
57.68
58.05
56.04
53.62
52.43
52.90
54.16
54.65
53.09
49.23
44.01
39.03
35.64
34.24
34.17
34.23
33.59
32.30
31.34
31.89
34.43
38.16
41.14
41.09
36.43
27.00
14.11
-0.08
-13.49
-24.83
-33.88
-41.29
-48.03
-54.99
-62.73
-71.47
-81.22
-91.96
-103.71
-116.41
-129.81
-143.16
-155.19
-164.39
-169.62
-170.71
-168.67
-165.25
-161.99
-159.31
-156.16
-150.47
-140.15
-124.07
-102.54
-77.10
-49.83
-22.75
2.58
25.08
43.93
58.49
68.37
73.54
74.49
72.34
68.76
65.73
65.17
68.48
76.10
87.39
100.71
113.84
124.62
131.53
134.06
132.72
128.74
123.60
118.52
114.22
110.85
108.14
105.67
102.94
99.45
94.68
88.10
79.43
68.82
56.94
44.79
33.30
22.90
13.36
3.91
-6.26
-17.51
-29.43
-40.98
-50.89
-58.23
-62.65
-64.41
-64.09
-62.33
-59.56
-56.10
-52.24
-48.25
-44.28
-40.09
-34.90
-27.63
-17.39
-4.19
10.75
25.14
36.42
42.65
43.21
38.89
31.32
22.34
13.40
5.45
-0.87
-5.00
-6.49
-5.24
-1.79
2.67
6.67
9.02
9.23
7.72
5.40
3.26
1.90
1.33
1.16
0.85
0.01
-1.49
-3.56
-5.95
-8.31
-10.27
-11.41
-11.38
-9.98
-7.28
-3.59
0.70
5.21
9.71
14.09
18.24
21.98
25.01
27.16
28.46
29.31
30.37
32.24
35.19
38.99
42.91
46.02
47.42
46.52
43.14
37.49
30.06
21.50
12.51
3.77
-4.15
-10.84
-16.10
-19.96
-22.64
-24.51
-26.00
-27.50
