1660753447.00
64.000000
-0.00
-0.00
-0.00
-0.00
-0.00
-0.00
-0.00
-0.00
-0.00
-0.00
0.00
0.01
0.01
-0.00
-0.03
-0.05
-0.05
0.00
0.13
0.36
0.66
1.01
1.37
1.72
2.06
2.40
2.79
3.24
3.80
4.42
5.06
5.66
6.20
6.68
7.15
7.68
8.31
9.14
10.09
11.04
11.88
12.56
13.14
13.76
14.65
15.96
17.91
20.32
22.90
25.38
27.58
29.57
31.68
34.32
37.81
42.54
48.15
54.10
59.83
64.97
69.58
74.14
79.34
85.71
93.76
103.00
112.62
121.73
129.77
136.75
143.30
150.75
157.77
166.64
177.95
191.79
206.97
220.57
228.25
225.36
208.53
176.87
132.76
80.05
23.07
-34.94
-92.44
-149.16
-205.23
-260.37
-313.74
-363.88
-409.83
-450.90
-486.49
-515.72
-537.19
-549.16
-549.88
-538.25
-514.05
-478.48
-433.63
-382.15
-326.66
-269.42
-212.14
-156.10
-102.33
-51.68
-5.14
36.42
72.35
102.36
126.59
145.57
159.98
170.55
177.89
182.41
184.39
184.05
181.68
177.63
172.29
166.09
159.37
152.37
145.24
138.05
130.84
123.66
116.58
109.65
102.96
96.55
90.45
84.68
79.26
74.19
69.48
65.15
61.19
57.61
54.40
51.56
49.09
47.00
45.28
43.92
42.91
42.21
41.79
41.53
41.33
41.03
40.46
39.44
37.80
35.41
32.17
28.08
23.18
17.56
11.40
4.94
-1.56
-7.81
-13.55
-18.56
-22.64
-25.69
-27.65
-28.50
-28.32
-27.20
-25.26
-22.63
-19.46
-15.87
-11.98
-7.91
-3.74
0.40
4.41
8.18
11.65
14.73
17.39
19.60
21.39
22.82
23.91
24.73
25.35
25.88
26.42
27.07
27.95
29.21
31.00
33.31
36.16
39.54
43.42
47.73
52.45
57.52
62.98
68.91
75.17
81.67
88.34
95.07
101.76
108.30
114.65
120.88
127.16
133.32
139.25
144.74
149.41
152.79
154.28
153.27
149.13
143.42
136.94
130.17
123.31
116.21
108.48
99.73
89.79
78.88
67.58
56.33
45.51
35.14
24.80
13.76
1.31
-12.87
-28.48
-44.64
-60.58
-75.59
-89.50
-102.62
-115.70
-129.58
-145.11
-162.92
-183.16
-205.10
-226.63
-244.38
-254.58
-254.44
-243.38
-223.44
-198.63
-173.60
-152.27
-136.98
-128.41
-126.14
-129.27
-136.87
-147.97
-161.53
-176.25
-190.55
-202.69
-211.11
-214.79
-213.76
-209.30
-203.38
-197.85
-193.49
-189.79
-185.47
-179.46
-171.57
-162.49
-153.18
-144.19
-135.46
-126.48
-116.80
-106.26
-94.88
-82.66
-69.40
-54.88
-39.11
-22.54
-5.84
10.38
25.91
41.04
56.34
72.17
88.32
103.78
117.11
126.95
132.55
133.92
131.54
126.00
117.92
108.20
98.32
90.19
85.37
84.18
85.27
86.34
85.70
83.40
81.22
81.21
83.85
87.42
88.82
85.18
74.98
57.98
34.68
6.33
-24.37
-52.71
-72.55
-78.89
-70.71
-52.13
-30.45
-12.12
0.64
10.30
21.19
35.58
51.43
63.34
65.67
55.87
35.69
10.18
-14.96
-35.61
-50.29
-59.81
-66.04
-70.58
-73.88
-74.96
-71.96
-63.35
-49.11
-31.33
-13.54
1.02
10.99
17.48
23.06
30.15
39.46
49.73
58.43
63.01
62.09
55.81
45.82
34.58
24.58
17.58
14.09
13.44
14.23
15.12
15.43
15.21
14.92
15.10
16.04
17.65
19.50
20.97
21.47
20.63
18.45
15.08
10.74
5.61
0.01
-5.47
-9.90
-12.28
-11.96
-9.10
-4.73
-0.33
3.00
5.06
6.51
8.32
11.03
14.39
17.66
20.25
22.06
23.43
24.75
25.97
26.57
25.85
23.35
19.32
14.67
10.63
8.22
7.71
8.47
9.33
9.33
8.21
6.81
6.68
8.96
13.53
18.70
22.08
21.88
17.82
11.11
3.51
-3.70
-10.13
-15.97
-21.16
-24.89
-25.85
-23.18
-17.26
-9.88
-3.41
0.33
0.92
-0.71
-3.05
-4.82
-5.53
-5.30
-4.54
-3.60
-2.59
-1.27
0.85
4.30
9.36
15.68
22.24
27.72
31.03
31.71
30.07
26.85
22.76
18.28
13.93
10.63
9.49
11.17
15.16
19.70
22.60
22.23
18.15
10.98
1.67
-8.97
-20.32
-31.31
-40.20
-45.04
-44.65
-39.55
-31.89
-24.40
-18.98
-15.72
-13.13
-9.24
-2.99
5.32
14.32
22.45
28.53
32.14
33.48
33.08
31.57
29.50
27.22
24.84
22.31
19.44
16.12
12.46
8.99
6.47
5.38
5.52
5.85
5.02
2.14
-2.65
-8.32
-13.59
-17.77
-20.83
-22.98
-24.01
-23.19
-19.74
-13.74
-6.42
0.25
4.56
6.12
6.07
6.38
8.60
12.97
18.48
23.48
26.57
27.15
25.50
22.46
19.08
16.21
14.24
13.14
12.71
12.81
13.52
15.16
17.99
21.83
25.79
28.39
27.99
23.50
14.84
2.93
-10.77
-24.83
-38.15
-49.91
-59.30
-65.38
-67.33
-64.85
-58.61
-50.14
-41.33
-33.63
-27.48
-22.34
-17.26
-11.67
-5.73
-0.07
4.63
8.12
10.69
12.94
15.32
17.83
20.02
21.22
21.03
19.55
17.29
14.82
12.59
10.77
9.33
8.03
6.53
4.46
1.49
-2.60
-8.01
-14.73
-22.56
-30.89
-38.69
-44.71
-48.04
-48.45
-46.59
-43.78
-41.42
-40.50
-41.36
-43.67
-46.88
-50.62
-54.90
-60.03
-66.36
-74.23
-83.85
-95.21
-108.05
-121.81
-135.78
-149.39
-162.37
-174.86
-187.32
-200.42
-215.00
-231.92
-251.80
-274.43
-298.33
-320.75
-338.20
-347.60
-347.41
-338.16
-322.21
-302.75
-282.74
-264.10
-247.59
-233.23
-220.82
-210.22
-201.44
-194.40
-188.72
-183.75
-178.77
-173.16
-166.59
-158.93
-150.06
-139.64
-127.08
-111.58
-92.49
-69.62
-43.45
-15.14
13.67
41.24
66.10
87.31
104.50
117.73
127.21
133.16
135.62
134.67
130.56
123.92
115.73
107.20
99.42
93.05
88.14
84.18
80.51
76.69
72.99
70.39
70.37
74.37
83.26
97.09
115.10
136.20
159.44
184.45
211.46
241.02
273.65
309.52
348.26
388.76
429.06
466.32
497.14
518.27
527.60
525.14
513.28
496.03
477.36
459.45
441.79
421.76
396.36
364.26
327.04
288.75
254.33
227.58
209.85
199.89
194.97
192.16
189.45
185.86
180.99
174.49
165.86
154.67
140.99
125.55
109.70
94.90
82.26
72.06
63.85
56.66
49.49
41.77
33.60
25.71
19.18
14.98
13.60
14.81
17.82
21.57
25.13
27.99
30.17
31.97
33.65
35.15
36.06
35.78
33.94
30.63
26.43
22.17
18.61
16.17
14.93
14.74
15.38
16.55
17.84
18.69
18.53
17.06
14.56
11.99
10.62
11.43
14.58
19.21
23.76
26.58
26.53
23.24
17.04
8.67
-1.06
-11.42
-21.89
-32.17
-42.13
-51.81
-61.24
-70.21
-78.19
-84.41
-88.16
-89.24
-88.11
-85.66
-82.79
-80.00
-77.41
-74.98
-72.90
-71.54
-71.11
-71.26
-70.93
-68.76
-63.65
-55.41
-44.79
-32.95
-20.93
-9.16
2.45
14.16
26.07
38.10
50.32
63.22
77.59
94.11
112.56
131.50
148.36
160.21
164.88
161.82
152.35
139.00
124.53
110.83
98.38
86.52
74.07
60.09
44.32
27.19
9.49
-7.98
-24.59
-39.95
-53.86
-66.36
-77.87
-89.38
-102.49
-119.18
-141.11
-168.82
-201.03
-234.47
-264.48
-286.00
-294.71
-288.00
-265.45
-228.97
-182.50
-131.13
-79.78
-32.03
10.49
47.59
79.44
105.39
123.90
133.46
133.88
126.84
115.15
101.07
84.89
64.88
38.75
5.56
-33.27
-74.46
-114.61
-151.72
-185.51
-216.64
-245.31
-270.59
-290.60
-303.52
-308.55
-306.42
-298.90
-288.07
-275.58
-262.29
-248.42
-233.97
-219.14
-204.46
-190.68
-178.38
-167.64
-157.90
-148.14
-137.32
-124.84
-110.84
-96.05
-81.41
-67.64
-55.03
-43.46
-32.67
-22.49
-12.99
-4.38
3.15
9.58
15.02
19.72
23.88
27.64
31.01
33.92
36.22
37.65
37.88
36.49
33.15
27.80
20.81
13.01
5.55
-0.50
-4.37
-5.77
-4.85
-2.05
1.94
6.12
9.13
9.48
6.01
-1.39
-11.36
-21.27
-28.01
-29.25
-24.30
-14.25
-1.47
11.50
22.76
31.38
37.21
40.56
41.75
41.11
38.99
35.81
32.07
28.36
25.24
23.33
23.17
25.17
29.38
35.39
42.32
49.01
54.36
57.66
58.81
58.23
56.72
55.16
54.29
54.54
55.90
57.97
59.97
61.11
60.76
58.71
55.21
50.77
45.86
40.75
35.56
30.51
25.98
22.58
20.95
21.56
24.64
30.23
38.18
48.29
60.20
73.32
86.86
100.04
112.02
121.82
128.09
128.83
121.91
105.88
81.18
50.65
18.90
-9.47
-31.73
-47.94
-60.24
-71.07
-81.46
-90.52
-96.29
-97.54
-94.94
-90.99
-88.70
-90.11
-95.48
-103.75
-113.69
-124.97
-138.20
-154.06
-172.26
-191.09
-207.90
-220.32
-227.28
-229.04
-226.41
-219.54
-207.01
-186.51
-156.47
-117.97
-75.36
-35.10
-2.99
18.47
31.49
42.01
56.88
80.63
113.52
151.73
189.47
221.77
246.49
264.52
278.43
290.34
300.49
307.31
308.94
305.16
298.37
292.85
292.62
299.13
310.10
320.41
324.37
318.28
301.74
277.50
249.83
222.63
198.24
177.24
159.10
143.13
129.14
117.56
109.14
104.47
103.62
106.00
110.66
116.49
122.67
128.68
134.28
139.37
143.79
147.29
149.53
150.10
148.52
144.21
136.57
125.07
109.51
90.19
68.02
44.27
20.22
-3.43
-26.84
-51.04
-77.37
-106.85
-139.44
-173.98
-208.58
-241.41
-271.53
-299.31
-326.29
-354.75
-387.07
-425.31
-470.50
-521.81
-575.71
-625.85
-664.21
-683.37
-679.12
-651.98
-606.76
-550.45
-489.42
-427.59
-366.31
-305.65
-245.83
-187.97
-133.41
-82.50
-33.84
15.60
69.62
131.60
203.43
284.53
370.96
455.64
529.51
583.95
613.67
618.54
603.54
576.60
545.37
514.75
486.24
459.09
432.32
406.05
381.49
359.88
341.33
324.39
306.77
286.50
262.87
236.59
209.48
183.43
159.66
138.29
118.45
98.75
77.83
54.88
29.84
3.39
-23.40
-49.35
-73.52
-95.49
-115.53
-134.49
-153.65
-174.22
-196.93
-221.70
-247.55
-273.24
-297.55
-320.00
-341.06
-362.00
-384.66
-411.19
-443.94
-484.94
-534.80
-591.38
-649.09
-699.56
-734.05
-746.55
-736.12
-707.19
-667.43
-624.57
-583.68
-546.31
-511.62
-478.39
-446.48
-416.76
-390.07
-366.03
-342.61
-316.98
-286.90
-251.86
-213.38
-174.45
-138.06
-105.87
-77.39
-50.19
-20.93
13.18
53.15
97.69
143.91
188.60
229.63
266.90
302.21
338.40
378.30
423.84
475.59
532.44
591.24
646.77
692.29
721.00
728.00
712.04
675.71
624.31
563.69
498.40
431.18
363.73
297.82
235.61
179.15
128.90
82.88
37.26
-12.20
-68.61
-133.02
-204.54
-280.40
-355.77
-423.69
-476.20
-507.10
-515.29
-506.26
-490.42
-478.26
-475.12
-478.66
-480.77
-472.76
-450.57
-416.72
-378.04
-341.07
-308.35
-277.86
-245.69
-209.63
-171.04
-133.94
-102.49
-78.11
-58.67
-39.61
-16.10
14.62
52.07
93.26
134.23
172.02
206.05
238.16
271.91
311.32
359.63
418.20
485.56
556.86
624.30
678.78
712.52
721.72
707.81
676.84
636.94
595.40
556.51
521.39
489.24
459.05
430.63
404.52
381.17
360.20
340.44
320.46
299.32
276.85
253.49
229.87
206.29
182.49
157.87
131.79
103.81
73.72
41.50
7.05
-29.77
-69.06
-110.61
-153.66
-197.10
-239.58
-280.05
-318.09
-353.94
-388.54
-423.61
-461.54
-504.90
-555.23
-611.43
-668.77
-719.28
-754.02
-766.38
-754.69
-722.87
-678.62
-630.25
-583.64
-541.19
-502.42
-465.89
-430.73
-396.95
-364.82
-333.92
-302.87
-269.87
-233.71
-194.27
-152.56
-110.19
-68.50
-27.69
12.79
54.13
97.42
143.06
190.80
240.21
291.04
343.29
396.92
451.53
506.31
559.95
610.54
655.31
690.51
711.84
715.70
700.63
668.51
624.44
575.25
527.27
484.43
447.48
414.88
384.27
353.92
323.27
292.69
262.82
233.92
206.02
178.43
150.12
119.99
87.11
51.04
12.10
-28.88
-70.79
-112.71
-154.29
-195.80
-237.97
-282.00
-329.53
-382.39
-441.87
-507.42
-575.46
-639.27
-690.39
-721.29
-728.25
-712.70
-680.55
-639.69
-597.12
-557.13
-521.19
-489.15
-460.56
-435.19
-412.69
-391.91
-370.70
-346.62
-318.07
-285.13
-249.51
-213.70
-179.59
-147.41
-115.63
-81.64
-43.21
0.43
48.06
97.17
145.03
190.06
232.44
273.77
316.46
362.80
414.51
472.25
534.97
599.01
657.83
703.23
727.92
728.54
707.29
671.04
628.27
585.33
544.43
504.24
462.34
417.97
372.73
329.37
289.46
252.01
213.88
171.85
124.76
74.05
23.10
-24.81
-68.27
-108.37
-148.20
-191.91
-243.41
-305.13
-376.93
-455.12
-532.46
-599.46
-647.07
-669.70
-667.26
-644.98
-611.08
-573.39
-536.72
-502.17
-468.62
-434.88
-401.18
-369.18
-340.58
-315.71
-292.94
-269.29
-241.90
-209.32
-172.07
-132.29
-92.49
-54.37
-17.87
18.64
57.49
100.59
148.59
200.61
255.31
311.94
370.49
430.81
491.36
548.93
599.63
640.68
671.61
693.83
708.82
716.20
713.39
697.09
665.92
622.21
571.56
520.43
473.23
430.69
390.55
349.69
306.38
261.18
216.30
174.11
136.06
102.07
70.60
39.37
6.49
-29.00
-66.74
-105.20
-142.54
-177.28
-209.04
-238.66
-267.79
-298.29
-332.10
-371.10
-416.92
-470.06
-528.71
-587.90
-639.87
-676.16
-690.58
-681.70
-653.37
-612.98
-568.35
-524.95
-484.95
-448.00
-413.06
-379.82
-348.78
-320.44
-294.13
-267.80
-238.79
-205.09
-166.32
-123.75
-79.81
-36.58
5.03
45.56
86.73
130.45
178.07
230.30
287.42
349.25
414.62
480.78
543.53
598.21
641.24
671.20
688.80
695.58
692.47
679.12
654.68
619.30
575.37
527.33
480.17
437.45
400.05
366.42
333.94
300.47
265.31
229.15
193.36
159.43
128.33
99.87
72.96
45.82
16.59
-16.04
-52.23
-90.98
-130.60
-169.36
-206.29
-241.45
-275.81
-310.96
-348.85
-391.58
-440.98
-497.56
-559.28
-620.81
-674.12
-710.76
-724.86
-715.58
-687.34
-647.87
-604.96
-563.78
-526.04
-491.14
-458.15
-427.18
-399.27
-375.19
-354.05
-333.10
-308.67
-278.02
-240.71
-198.85
-156.25
-116.49
-81.13
-48.91
-16.51
20.00
63.15
113.01
167.40
223.42
278.76
331.98
382.05
427.83
468.13
502.76
532.96
560.50
585.93
606.73
616.87
608.92
577.85
524.77
458.30
392.34
341.13
313.72
310.59
323.90
340.98
349.29
340.73
313.49
271.46
221.50
169.88
120.21
72.85
26.22
-21.43
-70.75
-121.17
-172.10
-223.73
-277.09
-332.64
-387.90
-436.52
-470.36
-483.78
-477.91
-461.83
-448.92
-450.32
-468.84
-497.38
-522.88
-533.41
-524.04
-498.26
-464.66
-431.42
-402.45
-377.11
-352.79
-327.89
-303.18
-280.82
-262.37
-247.36
-233.38
-217.28
-197.01
-172.42
-145.38
-118.60
-94.21
-72.83
-53.35
-33.59
-11.53
13.67
41.39
69.99
97.91
124.53
150.68
177.97
207.97
241.17
276.66
312.53
347.12
379.88
411.64
444.04
478.65
516.31
556.65
597.91
636.89
669.02
689.16
692.84
677.90
645.30
598.88
543.70
484.06
422.32
359.23
295.42
232.64
174.07
122.78
79.75
42.60
6.13
-35.81
-88.06
-152.17
-225.87
-302.93
-374.25
-429.47
-459.45
-459.62
-432.99
-390.94
-350.64
-329.13
-336.44
-371.33
-421.80
-470.60
-502.79
-511.36
-498.39
-471.73
-439.61
-406.78
-373.85
-339.43
-302.93
-266.09
-231.99
-202.88
-178.49
-155.91
-131.01
-100.78
-64.65
-24.46
16.47
55.29
90.80
123.71
156.04
189.98
226.74
266.12
306.72
346.70
384.86
421.52
458.94
500.52
549.06
604.44
662.21
713.94
749.60
761.38
746.56
708.55
655.10
595.23
536.09
481.65
432.98
389.68
351.01
316.22
284.19
253.23
221.47
187.66
152.01
116.12
82.15
51.82
25.47
1.97
-20.62
-44.11
-69.31
-95.88
-122.77
-148.86
-173.69
-197.81
-222.48
-249.30
-280.02
-316.30
-359.20
-408.19
-460.12
-508.73
-545.66
-562.79
-555.19
-523.06
-471.59
-408.51
-340.65
-271.46
-200.99
-128.38
-55.20
12.88
67.00
98.52
102.98
81.94
41.83
-9.64
-66.88
-127.63
-191.24
-255.39
-313.93
-357.51
-377.12
-368.18
-332.95
-279.69
-219.09
-160.21
-107.75
-61.99
-20.48
19.65
60.21
101.80
144.78
190.27
240.20
296.13
357.36
419.48
474.33
512.42
526.40
514.02
479.16
429.73
373.94
317.00
260.06
202.32
144.52
90.99
48.87
24.92
22.03
37.84
66.11
99.59
132.49
161.17
183.24
196.21
197.01
183.06
153.83
111.89
62.46
11.71
-35.23
-75.89
-110.84
-143.10
-176.58
-214.37
-257.06
-301.92
-343.16
-373.60
-386.37
-376.54
-342.48
-286.65
-216.25
-143.07
-82.04
-47.72
-49.62
-88.17
-153.52
-228.57
-294.95
-339.51
-357.97
-354.55
-338.13
-317.37
-297.59
-280.37
-265.43
-252.89
-244.21
-241.46
-245.79
-256.35
-270.27
-284.11
-295.51
-304.13
-311.38
-319.43
-329.48
-340.75
-350.55
-355.06
-351.00
-336.78
-313.18
-282.86
-249.22
-214.94
-181.19
-147.51
-112.45
-74.79
-34.38
7.52
48.62
86.59
120.10
149.34
175.91
201.97
229.28
258.31
288.15
317.02
343.07
365.29
383.81
399.88
415.52
433.20
455.46
484.18
519.46
558.48
595.34
622.25
632.15
621.45
591.71
549.07
501.81
457.26
419.57
389.52
365.71
346.44
330.77
318.46
309.20
301.91
294.77
285.95
274.43
260.49
245.47
231.15
218.85
208.86
200.38
192.01
182.36
170.74
157.41
143.39
130.09
118.63
109.57
102.75
97.51
93.09
88.92
84.81
80.93
77.65
75.18
73.53
72.29
70.75
68.12
63.66
57.00
48.22
37.84
26.69
15.59
5.09
-4.82
-14.62
-25.17
-37.26
-51.28
-66.95
-83.42
-99.51
-114.32
-127.56
-139.82
-152.30
-166.34
-182.85
-201.85
-222.62
-243.85
-264.32
-283.33
-300.99
-318.32
-337.34
-360.91
-392.00
-432.19
-479.87
-529.10
-570.28
-592.82
-588.95
-556.78
-501.01
-430.83
-356.12
-283.89
-216.71
-153.46
-91.27
-27.34
40.29
112.50
188.73
266.22
339.44
400.59
441.78
457.96
448.85
419.24
376.92
329.69
282.89
238.68
196.97
156.96
118.29
81.04
45.20
10.01
-25.88
-63.79
-104.14
-146.42
-189.71
-233.55
-278.55
-325.64
-374.63
-422.84
-464.92
-494.05
-504.51
-493.80
-463.66
-419.16
-366.65
-311.61
-257.44
-205.51
-156.09
-109.73
-67.79
-32.37
-5.65
11.03
17.11
12.26
-4.50
-34.88
-80.11
-138.48
-203.39
-264.01
-308.57
-329.30
-325.91
-305.60
-279.35
-256.61
-241.40
-231.93
-223.68
-212.92
-199.16
-184.58
-171.93
-162.44
-155.26
-148.49
-140.85
-132.53
-124.72
-118.68
-114.45
-110.53
-104.46
-93.84
-77.40
-55.63
-30.46
-4.27
21.27
45.97
71.13
98.73
130.23
165.71
203.75
242.04
278.56
312.54
344.84
377.80
414.49
457.94
509.93
569.80
633.54
693.87
741.75
769.06
771.41
749.71
709.60
658.91
604.63
550.81
498.34
446.40
394.36
343.21
295.56
254.60
222.68
200.05
184.54
172.13
158.43
140.45
118.04
93.68
70.98
52.32
37.07
21.54
0.97
-27.77
-64.05
-103.58
-140.45
-170.19
-192.02
-209.22
-227.62
-253.05
-289.14
-336.05
-390.41
-446.03
-494.95
-528.94
-541.47
-529.91
-497.43
-453.48
-411.94
-386.90
-387.53
-414.32
-458.64
-506.18
-542.57
-558.67
-552.90
-529.98
-497.30
-461.17
-424.99
-389.74
-355.82
-324.54
-298.12
-278.39
-265.19
-255.92
-246.41
-232.93
-213.94
-190.69
-166.50
-145.09
-128.70
-117.18
-108.16
-98.28
-84.79
-66.76
-45.34
-23.03
-2.43
15.06
29.79
43.56
58.65
76.63
97.69
120.58
143.40
164.57
183.76
201.91
220.77
241.97
266.15
292.86
320.91
349.23
377.29
405.09
432.75
460.41
488.55
518.19
550.54
585.77
621.72
653.37
674.20
678.81
665.73
638.42
603.94
569.90
541.25
518.97
500.89
483.98
466.37
447.92
429.38
410.72
390.34
365.17
331.83
288.05
233.68
170.88
103.15
34.32
-32.66
-96.36
-156.87
-215.36
-273.74
-334.26
-398.93
-468.40
-540.53
-609.64
-667.27
-704.62
-715.89
-700.75
-664.55
-615.85
-562.90
-510.57
-459.62
-408.13
-353.92
-295.92
-233.94
-167.47
-95.38
-16.91
65.97
147.32
217.85
267.99
291.44
287.58
261.01
218.69
166.76
109.23
48.81
-10.87
-63.95
-103.27
-122.99
-121.29
-101.08
-68.08
-27.29
19.58
73.94
137.75
209.59
282.80
