1660928045.00
64.000000
-0.00
-0.00
-0.00
-0.00
-0.00
-0.00
-0.00
-0.00
-0.00
-0.00
0.00
0.01
0.01
-0.00
-0.03
-0.05
-0.05
0.00
0.13
0.36
0.66
1.01
1.37
1.72
2.06
2.40
2.79
3.25
3.81
4.44
5.09
5.73
6.33
6.91
7.54
8.28
9.14
10.22
11.39
12.56
13.62
14.56
15.45
16.48
17.84
19.66
22.13
25.02
28.06
31.00
33.72
36.34
39.20
42.72
47.15
52.81
59.29
66.09
72.70
78.91
84.92
91.26
98.58
107.27
117.65
129.10
140.83
152.12
162.72
172.96
183.59
195.85
208.12
222.23
238.49
256.97
276.78
295.54
309.45
314.12
306.01
283.71
248.89
204.90
155.97
105.74
56.46
9.08
-36.17
-79.16
-119.69
-157.54
-193.44
-228.73
-264.87
-302.43
-340.14
-374.71
-401.51
-416.28
-416.65
-403.34
-379.87
-351.20
-321.83
-294.45
-269.66
-246.71
-224.71
-203.28
-182.89
-164.21
-147.57
-132.65
-118.72
-105.09
-91.48
-78.13
-65.66
-54.66
-45.43
-37.80
-31.24
-25.09
-18.88
-12.45
-6.02
-0.01
5.14
9.16
12.08
14.17
15.83
17.41
19.08
20.81
22.41
23.68
24.52
24.95
25.10
25.13
25.11
25.03
24.78
24.30
23.56
22.67
21.78
21.01
20.42
19.98
19.61
19.22
18.80
18.40
18.04
17.73
17.40
16.96
16.40
15.74
15.07
14.50
14.04
13.69
13.37
13.02
12.59
12.08
11.53
11.00
10.57
10.32
10.27
10.37
10.51
10.55
10.37
9.97
9.42
8.84
8.36
8.03
7.88
7.87
7.93
7.99
7.96
7.79
7.44
6.95
6.38
5.82
5.33
4.92
4.57
4.26
3.97
3.71
3.49
3.31
3.14
2.92
2.58
2.11
1.51
0.88
0.33
-0.04
-0.22
-0.23
-0.15
-0.04
0.04
0.05
-0.06
-0.37
-0.96
-1.84
-2.99
-4.28
-5.55
-6.66
-7.53
-8.13
-8.47
-8.58
-8.56
-8.47
-8.41
-8.46
-8.65
-8.94
-9.21
-9.32
-9.16
-8.69
-8.00
-7.25
-6.63
-6.27
-6.12
-6.03
-5.77
-5.15
-4.09
-2.72
-1.22
0.18
1.34
2.21
2.84
3.28
3.62
3.88
4.06
4.17
4.22
4.23
4.23
4.24
4.26
4.26
4.20
4.04
3.76
3.36
2.91
2.49
2.20
2.11
2.30
2.80
3.59
4.62
5.72
6.69
7.32
7.43
6.99
6.11
5.05
4.09
3.46
3.23
3.32
3.56
3.77
3.86
3.82
3.71
3.56
3.32
2.94
2.38
1.67
0.95
0.36
-0.01
-0.16
-0.17
-0.14
-0.14
-0.16
-0.13
0.01
0.30
0.71
1.22
1.81
2.47
3.21
3.98
4.70
5.24
5.51
5.48
5.22
4.88
4.64
4.59
4.74
5.00
5.22
5.27
5.04
4.49
3.62
2.53
1.35
0.27
-0.52
-0.87
-0.76
-0.27
0.41
1.05
1.51
1.68
1.59
1.29
0.82
0.27
-0.28
-0.75
-1.04
-1.06
-0.82
-0.38
0.13
0.54
0.75
0.72
0.50
0.22
0.01
-0.05
0.06
0.28
0.50
0.67
0.78
0.87
1.01
1.18
1.30
1.29
1.11
0.80
0.50
0.33
0.38
0.63
1.01
1.46
1.93
2.38
2.78
3.04
3.09
2.88
2.47
1.98
1.55
1.29
1.19
1.15
1.04
0.76
0.32
-0.17
-0.59
-0.82
-0.83
-0.67
-0.45
-0.25
-0.14
-0.12
-0.18
-0.29
-0.44
-0.61
-0.77
-0.88
-0.87
-0.72
-0.43
-0.07
0.29
0.61
0.87
1.09
1.28
1.46
1.58
1.62
1.56
1.40
1.16
0.87
0.56
0.30
0.17
0.27
0.67
1.34
2.19
3.02
3.63
3.91
3.80
3.35
2.66
1.81
0.88
-0.09
-1.01
-1.82
-2.45
-2.86
-3.03
-2.99
-2.77
-2.39
-1.86
-1.15
-0.26
0.79
1.88
2.85
3.51
3.73
3.47
2.76
1.76
0.68
-0.25
-0.87
-1.07
-0.83
-0.26
0.46
1.11
1.48
1.44
0.99
0.22
-0.65
-1.40
-1.83
-1.79
-1.27
-0.40
0.64
1.63
2.35
2.69
2.63
2.17
1.40
0.43
-0.58
-1.44
-1.94
-1.96
-1.52
-0.78
-0.00
0.56
0.74
0.56
0.13
-0.38
-0.80
-1.06
-1.11
-0.91
-0.47
0.19
0.97
1.71
2.20
2.28
1.89
1.10
0.08
-0.93
-1.70
-2.05
-1.90
-1.26
-0.25
0.89
1.91
2.58
2.78
2.53
1.97
1.35
0.86
0.63
0.65
0.84
1.06
1.25
1.37
1.39
1.30
1.06
0.64
0.06
-0.58
-1.10
-1.34
-1.18
-0.63
0.17
1.03
1.71
2.04
1.92
1.37
0.54
-0.38
-1.17
-1.65
-1.77
-1.54
-1.09
-0.58
-0.16
0.07
0.04
-0.22
-0.61
-0.98
-1.16
-1.07
-0.71
-0.17
0.42
0.96
1.41
1.77
2.04
2.21
2.25
2.11
1.79
1.37
0.92
0.58
0.39
0.37
0.46
0.59
0.69
0.73
0.73
0.68
0.61
0.50
0.36
0.18
0.00
-0.16
-0.28
-0.40
-0.52
-0.64
-0.74
-0.78
-0.74
-0.65
-0.56
-0.53
-0.55
-0.58
-0.58
-0.51
-0.41
-0.29
-0.17
-0.03
0.15
0.36
0.58
0.74
0.79
0.76
0.68
0.64
0.70
0.88
1.18
1.57
1.98
2.33
2.49
2.32
1.75
0.85
-0.19
-1.10
-1.60
-1.58
-1.14
-0.50
0.03
0.24
0.13
-0.16
-0.39
-0.35
0.00
0.58
1.20
1.63
1.69
1.33
0.54
-0.57
-1.88
-3.23
-4.50
-5.56
-6.30
-6.67
-6.63
-6.17
-5.32
-4.20
-2.99
-1.90
-1.11
-0.71
-0.64
-0.76
-0.88
-0.89
-0.75
-0.50
-0.25
-0.05
0.08
0.17
0.27
0.41
0.59
0.75
0.84
0.81
0.66
0.45
0.25
0.16
0.24
0.47
0.83
1.25
1.69
2.17
2.70
3.28
3.89
4.42
4.78
4.91
4.83
4.63
4.40
4.21
4.03
3.76
3.26
2.45
1.33
0.01
-1.37
-2.66
-3.79
-4.73
-5.49
-6.03
-6.25
-6.06
-5.38
-4.24
-2.83
-1.41
-0.27
0.37
0.42
-0.03
-0.74
-1.50
-2.09
-2.39
-2.30
-1.71
-0.53
1.20
3.24
5.12
6.32
6.45
5.47
3.72
1.78
0.20
-0.73
-1.03
-0.95
-0.73
-0.53
-0.29
0.09
0.66
1.35
2.02
2.52
2.74
2.71
2.47
2.12
1.68
1.15
0.52
-0.19
-0.91
-1.53
-1.98
-2.22
-2.32
-2.34
-2.33
-2.31
-2.22
-2.00
-1.63
-1.14
-0.63
-0.18
0.18
0.48
0.76
1.05
1.35
1.61
1.78
1.85
1.82
1.71
1.54
1.33
1.08
0.80
0.53
0.30
0.16
0.13
0.19
0.32
0.46
0.53
0.47
0.26
-0.06
-0.39
-0.64
-0.75
-0.74
-0.66
-0.55
-0.40
-0.21
0.03
0.28
0.47
0.54
0.44
0.20
-0.13
-0.50
-0.84
-1.10
-1.24
-1.19
-0.94
-0.53
-0.06
0.36
0.59
0.58
0.36
0.06
-0.21
-0.33
-0.29
-0.16
-0.05
-0.04
-0.15
-0.32
-0.46
-0.52
-0.47
-0.37
-0.30
-0.34
-0.50
-0.74
-0.96
-1.07
-1.03
-0.86
-0.66
-0.51
-0.50
-0.60
-0.71
-0.73
-0.61
-0.35
-0.04
0.24
0.45
0.60
0.72
0.83
0.94
1.02
1.01
0.89
0.65
0.33
-0.03
-0.33
-0.52
-0.55
-0.45
-0.27
-0.05
0.15
0.32
0.48
0.63
0.76
0.82
0.79
0.65
0.45
0.27
0.16
0.16
0.21
0.24
0.20
0.07
-0.11
-0.29
-0.41
-0.49
-0.53
-0.56
-0.55
-0.47
-0.29
-0.06
0.14
0.24
0.24
0.18
0.17
0.25
0.36
0.42
0.32
0.05
-0.31
-0.61
-0.74
-0.69
-0.52
-0.34
-0.23
-0.16
-0.08
0.10
0.40
0.75
1.04
1.16
1.05
0.76
0.40
0.08
-0.14
-0.27
-0.39
-0.55
-0.79
-1.07
-1.32
-1.49
-1.60
-1.69
-1.87
-2.22
-2.78
-3.52
-4.35
-5.16
-5.84
-6.30
-6.53
-6.56
-6.49
-6.43
-6.53
-6.90
-7.63
-8.72
-10.07
-11.45
-12.56
-13.09
-12.84
-11.83
-10.41
-9.19
-8.85
-9.91
-12.47
-16.12
-20.15
-23.85
-26.85
-29.26
-31.54
-34.22
-37.62
-41.64
-45.95
-50.15
-54.06
-57.78
-61.67
-66.15
-71.60
-78.21
-85.94
-94.48
-103.20
-111.21
-117.64
-121.89
-123.85
-124.06
-123.62
-124.08
-126.91
-132.98
-141.82
-151.38
-158.26
-158.58
-149.08
-128.06
-95.83
-54.48
-7.33
41.68
88.53
129.57
161.93
184.01
195.93
199.46
197.44
192.94
188.32
184.85
182.76
181.78
181.56
182.03
183.37
185.85
189.58
194.36
199.69
204.97
209.73
213.86
217.58
221.25
225.11
229.18
233.38
237.64
241.89
245.74
247.98
246.53
238.80
222.55
196.83
162.37
121.08
75.05
25.80
-25.63
-77.84
-128.13
-172.34
-205.95
-225.84
-231.71
-226.33
-214.30
-200.17
-186.84
-175.18
-164.56
-154.14
-143.64
-133.53
-124.53
-116.97
-110.50
-104.31
-97.60
-90.01
-81.75
-73.52
-66.10
-59.96
-55.12
-51.16
-47.46
-43.51
-39.13
-34.48
-29.92
-25.84
-22.45
-19.72
-17.46
-15.39
-13.33
-11.19
-9.06
-7.08
-5.41
-4.13
-3.20
-2.51
-1.90
-1.24
-0.47
0.35
1.14
1.78
2.19
2.37
2.42
2.44
2.56
2.83
3.23
3.68
4.06
4.27
4.27
4.09
3.80
3.45
3.07
2.66
2.27
1.97
1.90
2.10
2.52
2.97
3.22
3.09
2.57
1.77
0.90
0.15
-0.38
-0.68
-0.76
-0.66
-0.42
-0.08
0.22
0.28
-0.11
-1.07
-2.57
-4.42
-6.31
-7.90
-8.95
-9.35
-9.12
-8.37
-7.27
-5.95
-4.59
-3.34
-2.33
-1.67
-1.37
-1.31
-1.35
-1.32
-1.12
-0.75
-0.31
0.05
0.22
0.14
-0.16
-0.60
-1.06
-1.45
-1.69
-1.77
-1.69
-1.44
-1.04
-0.53
0.03
0.55
0.99
1.31
1.52
1.65
1.72
1.71
1.61
1.38
1.05
0.70
0.40
0.21
0.14
0.15
0.17
0.15
0.07
-0.07
-0.27
-0.48
-0.62
-0.62
-0.41
-0.01
0.50
0.96
1.24
1.28
1.14
0.89
0.61
0.28
-0.16
-0.73
-1.32
-1.74
-1.81
-1.48
-0.88
-0.25
0.18
0.36
0.38
0.40
0.55
0.78
0.93
0.88
0.59
0.17
-0.20
-0.43
-0.54
-0.71
-1.09
-1.70
-2.41
-3.01
-3.33
-3.31
-2.99
-2.45
-1.71
-0.72
0.54
1.96
3.26
4.12
4.31
3.81
2.83
1.78
0.99
0.69
0.84
1.29
1.81
2.22
2.38
2.26
1.85
1.24
0.55
-0.08
-0.54
-0.76
-0.76
-0.58
-0.29
0.05
0.39
0.70
0.97
1.16
1.23
1.14
0.84
0.33
-0.34
-1.04
-1.58
-1.81
-1.63
-1.11
-0.42
0.19
0.56
0.61
0.36
-0.11
-0.68
-1.27
-1.79
-2.16
-2.35
-2.36
-2.26
-2.14
-2.07
-2.08
-2.11
-2.11
-1.99
-1.72
-1.31
-0.81
-0.30
0.14
0.49
0.76
0.99
1.26
1.61
2.04
2.48
2.80
2.88
2.63
2.05
1.22
0.29
-0.57
-1.24
-1.65
-1.80
-1.71
-1.39
-0.88
-0.26
0.35
0.79
0.93
0.73
0.30
-0.19
-0.53
-0.61
-0.42
-0.08
0.29
0.57
0.73
0.76
0.70
0.58
0.42
0.24
0.08
0.01
0.05
0.20
0.40
0.59
0.73
0.85
1.01
1.27
1.60
1.91
2.06
1.95
1.59
1.09
0.58
0.15
-0.20
-0.55
-0.98
-1.48
-1.98
-2.35
-2.53
-2.52
-2.36
-2.10
-1.76
-1.39
-1.06
-0.88
-0.96
-1.34
-1.93
-2.56
-3.05
-3.27
-3.22
-2.96
-2.60
-2.24
-1.94
-1.75
-1.71
-1.77
-1.80
-1.58
-0.88
0.39
2.10
3.90
5.33
6.00
5.74
4.70
3.24
1.80
0.71
0.10
-0.08
0.02
0.26
0.58
0.96
1.37
1.73
1.90
1.77
1.36
0.82
0.37
0.20
0.39
0.84
1.38
1.82
2.05
2.08
1.99
1.91
1.93
2.11
2.40
2.72
2.91
2.87
2.56
2.01
1.37
0.80
0.39
0.18
0.10
0.04
-0.11
-0.43
-0.94
-1.58
-2.30
-3.00
-3.59
-3.97
-4.07
-3.88
-3.46
-2.89
-2.32
-1.87
-1.61
-1.58
-1.73
-1.99
-2.25
-2.41
-2.43
-2.32
-2.14
-1.96
-1.85
-1.79
-1.73
-1.57
-1.25
-0.75
-0.07
0.78
1.79
2.89
3.99
4.86
5.25
4.95
3.92
2.33
0.54
-1.06
-2.14
-2.60
-2.50
-2.04
-1.38
-0.66
0.02
0.60
0.99
1.10
0.90
0.47
-0.02
-0.39
-0.49
-0.31
0.06
0.50
0.89
1.17
1.35
1.41
1.38
1.25
1.05
0.82
0.65
0.60
0.70
0.91
1.17
1.41
1.57
1.63
1.59
1.44
1.16
0.73
0.19
-0.43
-1.04
-1.57
-1.94
-2.13
-2.10
-1.88
-1.51
-1.05
-0.57
-0.18
0.05
0.08
-0.07
-0.34
-0.64
-0.91
-1.12
-1.28
-1.47
-1.73
-2.10
-2.51
-2.84
-2.94
-2.69
-2.06
-1.17
-0.19
0.66
1.25
1.54
1.64
1.68
1.76
1.90
2.02
2.03
1.81
1.35
0.67
-0.08
-0.77
-1.28
-1.51
-1.45
-1.15
-0.69
-0.17
0.35
0.81
1.15
1.34
1.33
1.14
0.79
0.38
0.01
-0.21
-0.21
0.02
0.42
0.87
1.27
1.52
1.61
1.59
1.54
1.52
1.53
1.55
1.52
1.41
1.25
1.12
1.05
1.04
1.03
0.92
0.66
0.25
-0.24
-0.75
-1.23
-1.62
-1.90
-2.03
-1.99
-1.76
-1.37
-0.89
-0.42
-0.04
0.21
0.25
0.07
-0.36
-1.04
-1.86
-2.67
-3.30
-3.59
-3.52
-3.12
-2.54
-1.89
-1.26
-0.69
-0.17
0.30
0.75
1.19
1.67
2.18
2.71
3.19
3.48
3.45
3.02
2.23
1.24
0.27
-0.46
-0.83
-0.81
-0.50
-0.01
0.53
1.02
1.37
1.51
1.38
0.97
0.33
-0.44
-1.20
-1.83
-2.25
-2.44
-2.41
-2.17
-1.74
-1.14
-0.40
0.40
1.16
1.75
2.08
2.10
1.87
1.49
1.09
0.76
0.52
0.36
0.26
0.23
0.26
0.33
0.34
0.19
-0.22
-0.87
-1.63
-2.29
-2.68
-2.76
-2.65
-2.56
-2.65
-2.95
-3.36
-3.72
-3.86
-3.76
-3.50
-3.23
-3.09
-3.15
-3.40
-3.76
-4.11
-4.33
-4.29
-3.96
-3.38
-2.75
-2.35
-2.45
-3.12
-4.21
-5.40
-6.34
-6.91
-7.30
-7.94
-9.33
-11.65
-14.66
-17.66
-19.86
-20.71
-20.27
-19.27
-18.77
-19.72
-22.39
-26.22
-30.00
-32.46
-32.85
-31.33
-28.77
-26.41
-25.25
-25.84
-28.41
-32.87
-38.66
-44.16
-46.41
-41.69
-27.12
-2.54
28.55
59.71
84.08
97.29
99.26
93.75
86.01
79.95
76.42
73.56
68.81
60.99
51.24
42.39
37.15
36.63
39.92
44.86
49.45
52.83
55.31
57.30
58.21
56.11
48.58
34.27
14.18
-8.28
-28.57
-42.89
-49.72
-50.08
-46.61
-42.09
-38.36
-35.97
-34.63
-33.92
-33.66
-33.89
-34.60
-35.49
-36.02
-35.67
-34.28
-32.17
-30.11
-28.90
-29.06
-30.48
-32.46
-33.97
-34.16
-32.77
-30.32
-27.94
-26.87
-27.93
-31.13
-35.64
-40.15
-43.46
-44.99
-45.10
-44.88
-45.70
-48.51
-53.34
-59.24
-64.64
-68.00
-68.61
-66.93
-64.54
-63.58
-66.07
-72.98
-83.56
-95.20
-103.67
-104.09
-92.21
-65.67
-24.97
26.26
81.84
134.38
177.01
205.04
217.17
215.53
204.58
189.08
172.33
155.40
137.64
118.27
97.77
78.17
61.98
50.40
42.31
34.61
23.98
8.94
-9.29
-27.36
-41.82
-51.07
-55.95
-59.08
-62.95
-68.37
-74.15
-77.92
-77.64
-72.99
-65.69
-58.72
-54.99
-56.12
-61.83
-69.75
-76.08
-76.64
-68.34
-50.48
-25.32
2.46
27.41
45.35
54.82
57.23
55.67
53.02
50.73
48.60
45.75
41.78
37.36
33.94
32.77
34.01
36.59
38.76
38.97
36.62
32.45
28.08
25.22
24.92
27.04
30.35
33.14
33.96
32.38
29.12
25.75
23.93
24.60
27.57
31.59
35.02
36.59
36.02
34.04
32.06
31.45
33.07
37.16
43.43
51.03
58.38
62.93
61.59
51.71
32.53
6.13
-22.90
-49.00
-67.83
-77.81
-80.35
-78.54
-75.32
-72.25
-69.38
-66.20
-62.64
-59.50
-57.93
-58.59
-60.91
-63.35
-64.09
-62.02
-57.33
-51.56
-46.81
-44.99
-47.09
-52.87
-60.77
-68.21
-72.07
-69.56
-59.14
-41.26
-18.46
5.29
25.99
40.91
49.36
52.44
52.13
50.16
47.43
44.03
39.84
35.02
30.15
26.00
23.06
21.28
20.08
18.69
16.54
13.49
9.96
6.63
4.22
3.07
3.04
3.43
3.35
1.92
-1.29
-6.10
-11.81
-17.38
-21.90
-24.83
-26.23
-26.61
-26.71
-27.24
-28.71
-31.41
-35.33
-40.00
-44.29
-46.42
-44.37
-36.63
-22.95
-4.69
15.58
34.95
51.32
63.93
73.21
80.16
85.49
89.23
91.02
90.58
88.40
85.72
84.22
85.28
89.32
95.65
102.64
108.48
111.84
112.47
111.25
109.90
110.43
114.59
123.08
135.12
148.08
157.77
159.20
147.93
121.61
81.17
31.04
-21.86
-70.01
-107.42
-131.16
-141.63
-141.73
-135.36
-126.02
-116.09
-106.82
-98.78
-92.30
-87.58
-84.50
-82.49
-80.49
-77.44
-72.75
-66.62
-59.91
-53.72
-48.94
-45.82
-43.98
-42.65
-41.03
-38.58
-35.19
-31.19
-27.13
-23.56
-20.83
-18.98
-17.74
-16.68
-15.42
-13.75
-11.75
-9.68
-7.83
-6.38
-5.35
-4.58
-3.92
-3.23
-2.52
-1.87
-1.39
-1.12
-1.02
-1.00
-0.92
-0.70
-0.30
0.21
0.73
1.16
1.38
1.39
1.18
0.86
0.52
0.27
0.16
0.22
0.40
0.59
0.72
0.73
0.59
0.35
0.08
-0.14
-0.24
-0.19
-0.02
0.23
0.49
0.70
0.80
0.78
0.63
0.39
0.11
-0.16
-0.35
-0.45
-0.45
-0.38
-0.24
-0.05
0.19
0.47
0.73
0.87
0.81
0.51
0.03
-0.48
-0.89
-1.08
-1.08
-0.95
-0.80
-0.67
-0.57
-0.43
-0.24
-0.03
0.13
0.18
0.10
-0.06
-0.21
-0.32
-0.38
-0.43
-0.50
-0.55
-0.53
-0.40
-0.18
0.05
0.16
0.07
-0.20
-0.55
-0.81
-0.88
-0.70
-0.36
0.01
0.27
0.37
0.32
0.21
0.14
0.15
0.22
0.24
0.13
-0.14
-0.50
-0.81
-0.92
-0.81
-0.53
-0.24
-0.07
-0.04
-0.04
0.07
0.37
0.82
1.25
1.49
1.45
1.21
0.92
0.72
0.63
0.58
0.44
0.14
-0.27
-0.63
-0.77
-0.64
-0.28
0.16
0.51
0.66
0.62
0.46
0.27
0.13
0.08
0.11
0.17
0.23
0.24
0.18
0.06
-0.09
-0.24
-0.34
-0.36
-0.28
-0.11
0.14
0.41
0.66
0.80
0.82
0.70
0.49
0.28
0.10
0.00
-0.03
-0.02
-0.02
-0.05
-0.11
-0.20
-0.30
-0.38
-0.42
-0.42
-0.38
-0.30
-0.16
0.01
0.16
0.22
0.13
-0.10
-0.38
-0.56
-0.52
-0.29
0.01
0.18
0.12
-0.17
-0.50
-0.72
-0.71
-0.53
-0.31
-0.21
-0.28
-0.45
-0.60
-0.65
-0.55
-0.36
-0.13
0.07
0.23
0.36
0.45
0.50
0.48
0.40
0.26
0.10
-0.01
0.00
0.15
0.42
0.73
0.97
1.04
0.92
0.64
0.26
-0.13
-0.46
-0.70
-0.83
-0.82
-0.66
-0.33
0.10
0.54
0.90
1.07
1.03
0.82
0.53
0.29
0.14
0.09
0.05
-0.04
-0.21
-0.39
-0.50
-0.46
-0.21
0.20
0.67
1.08
1.35
1.43
1.32
1.06
0.71
0.35
0.02
-0.22
-0.37
-0.45
-0.49
-0.52
-0.52
-0.50
-0.46
-0.42
-0.42
-0.46
-0.51
-0.48
-0.32
0.01
0.42
0.77
0.93
0.84
0.55
0.19
-0.11
-0.27
-0.30
-0.24
-0.16
-0.06
0.07
0.24
0.41
0.50
0.43
0.19
-0.14
-0.42
-0.51
-0.35
0.01
0.42
0.70
0.76
0.57
0.25
-0.05
-0.21
-0.17
0.04
0.32
0.60
0.80
0.93
1.03
1.14
1.28
1.45
1.61
1.71
1.74
1.72
1.66
1.56
1.39
1.13
0.82
0.52
0.36
0.41
0.67
1.02
1.31
1.38
1.17
0.72
0.12
-0.53
-1.16
-1.74
-2.21
-2.49
-2.54
-2.34
-1.94
-1.47
-1.03
-0.70
-0.49
-0.34
-0.25
-0.22
-0.28
-0.44
-0.65
-0.83
-0.91
-0.87
-0.75
-0.64
-0.63
-0.72
-0.87
-1.00
-1.00
-0.81
-0.43
0.10
0.69
1.22
1.58
1.70
1.56
1.23
0.80
0.38
0.11
0.06
0.28
0.74
1.37
2.05
2.65
3.06
3.17
2.92
2.30
1.41
0.42
-0.40
-0.81
-0.63
0.10
1.21
2.36
3.19
3.41
2.91
1.81
0.34
-1.11
-2.20
-2.67
-2.45
-1.70
-0.70
0.20
0.72
0.72
0.21
-0.66
-1.65
-2.50
-2.98
-2.98
-2.50
-1.73
-0.93
-0.38
-0.28
-0.64
-1.30
-2.02
-2.55
-2.73
-2.54
-2.11
-1.60
-1.16
-0.86
-0.71
-0.70
-0.80
-0.98
-1.18
-1.31
-1.25
-0.94
-0.41
0.19
0.66
0.82
0.66
0.29
-0.08
-0.27
-0.22
0.02
0.33
0.62
0.80
0.86
0.79
0.61
0.37
0.14
-0.01
-0.02
0.09
0.25
0.37
0.38
0.23
-0.03
-0.31
-0.51
-0.57
-0.49
-0.35
-0.22
-0.19
-0.28
-0.46
-0.66
-0.83
-0.90
-0.85
-0.68
-0.38
-0.00
0.39
0.71
0.88
0.89
0.77
0.61
0.49
0.42
0.34
0.17
-0.18
-0.66
-1.16
-1.49
-1.50
-1.19
-0.66
-0.12
0.25
0.39
0.39
0.36
0.42
0.56
0.72
0.80
0.75
0.60
0.42
0.27
0.15
0.04
-0.06
-0.15
-0.20
-0.19
-0.10
-0.00
0.05
-0.04
-0.28
-0.66
-1.09
-1.44
-1.59
-1.48
-1.15
-0.72
-0.32
-0.04
0.08
0.13
0.17
0.26
0.38
0.47
0.47
0.36
0.17
-0.04
-0.22
-0.33
-0.35
-0.32
-0.23
-0.13
-0.07
-0.09
-0.19
-0.34
-0.47
-0.50
-0.38
-0.14
0.11
0.27
0.27
0.10
-0.15
-0.39
-0.53
-0.52
-0.34
-0.04
0.32
0.63
0.80
0.78
0.59
0.36
0.22
0.25
0.43
0.64
0.74
0.64
0.37
0.02
-0.31
-0.54
-0.66
-0.72
-0.74
-0.74
-0.68
-0.52
-0.23
0.15
0.59
1.00
1.31
1.46
1.45
1.28
0.96
0.57
0.16
-0.15
-0.29
-0.22
0.05
0.42
0.76
0.96
0.94
0.72
0.41
0.10
-0.12
-0.23
-0.28
-0.34
-0.41
-0.48
-0.49
-0.39
-0.18
0.05
0.22
0.26
0.18
0.04
-0.12
-0.24
-0.34
-0.40
-0.40
-0.27
0.02
0.42
0.83
1.09
1.10
0.85
0.48
0.15
0.02
0.11
0.36
0.65
0.89
1.04
1.14
1.22
1.25
1.20
1.01
0.70
0.33
-0.00
-0.24
-0.38
-0.46
-0.55
-0.69
-0.90
-1.14
-1.34
-1.46
-1.44
-1.27
-0.99
-0.70
-0.51
-0.48
-0.63
-0.87
-1.07
-1.14
-1.03
-0.74
-0.34
0.11
0.53
0.86
1.03
0.95
0.61
0.04
-0.64
-1.27
-1.70
-1.83
-1.70
-1.39
-1.06
-0.83
-0.76
-0.83
-0.97
-1.05
-0.98
-0.73
-0.35
0.07
0.43
0.65
0.71
0.65
0.53
0.40
0.31
0.26
0.25
0.28
0.31
0.33
0.27
0.09
-0.22
-0.60
-0.96
-1.18
-1.17
-0.95
-0.59
-0.24
-0.03
0.00
-0.12
-0.29
-0.37
-0.26
0.05
0.49
0.95
1.33
1.57
1.61
1.48
1.20
0.81
0.37
-0.01
-0.25
-0.33
-0.24
-0.06
0.13
0.27
0.39
0.53
0.73
0.97
1.15
1.19
1.02
0.68
0.29
-0.04
-0.22
-0.25
-0.19
-0.14
-0.17
-0.30
-0.50
-0.74
-0.96
-1.12
-1.17
-1.05
-0.76
-0.34
0.09
0.42
0.55
0.49
0.30
0.07
-0.11
-0.23
-0.31
-0.35
-0.36
-0.32
-0.24
-0.15
-0.10
-0.14
-0.28
-0.45
-0.57
-0.59
-0.51
-0.37
-0.23
-0.15
-0.13
-0.18
-0.27
-0.37
-0.44
-0.45
-0.36
-0.15
0.14
0.45
0.66
0.72
0.62
0.43
0.23
0.12
0.13
0.17
0.18
0.09
-0.12
-0.38
-0.61
-0.74
-0.77
-0.73
-0.66
-0.58
-0.47
-0.28
-0.01
0.34
0.68
0.91
0.98
0.85
0.62
0.42
0.38
0.57
0.92
1.30
1.55
1.57
1.39
1.12
0.85
0.63
0.42
0.17
-0.09
-0.28
-0.34
-0.23
-0.02
0.19
0.30
0.27
0.15
-0.04
-0.25
-0.49
-0.72
-0.88
-0.85
-0.58
-0.10
0.44
0.84
0.99
0.87
0.61
0.37
0.27
0.32
0.47
0.61
0.66
0.64
0.58
0.57
0.63
0.78
0.95
1.09
1.13
1.06
0.91
0.73
0.59
0.50
0.46
0.46
0.43
0.40
0.39
0.44
0.57
0.72
0.81
0.76
0.55
0.25
-0.04
-0.22
-0.27
-0.24
-0.20
-0.19
-0.16
-0.05
0.21
0.59
0.93
1.07
0.86
0.32
-0.40
-1.06
-1.48
-1.55
-1.31
-0.91
-0.55
-0.37
-0.44
-0.74
-1.19
-1.65
-1.97
-2.06
-1.87
-1.47
-0.97
-0.53
-0.27
-0.23
-0.41
-0.70
-1.01
-1.24
-1.34
-1.30
-1.12
-0.86
-0.58
-0.35
-0.21
-0.17
-0.20
-0.24
-0.25
-0.23
-0.21
-0.23
-0.32
-0.45
-0.61
-0.76
-0.86
-0.92
-0.93
-0.88
-0.80
-0.71
-0.67
-0.71
-0.79
-0.81
-0.68
-0.34
0.14
0.63
0.93
0.94
0.69
0.33
0.06
0.02
0.26
0.65
1.04
1.28
1.29
1.11
0.83
0.54
0.27
0.02
-0.24
-0.51
-0.75
-0.86
-0.81
-0.61
-0.32
-0.05
0.15
0.27
0.34
0.38
0.39
0.37
0.29
0.18
0.07
0.03
0.10
0.28
0.54
0.77
0.88
0.81
0.58
0.24
-0.11
-0.40
-0.58
-0.65
-0.65
-0.59
-0.50
-0.37
-0.19
0.02
0.24
0.46
0.64
0.77
0.79
0.70
0.49
0.20
-0.10
-0.36
-0.52
-0.56
-0.51
-0.37
-0.19
0.01
0.22
0.41
0.56
0.64
0.64
0.57
0.40
0.16
-0.13
-0.41
-0.64
-0.78
-0.82
-0.81
-0.77
-0.73
-0.68
-0.59
-0.44
-0.26
-0.10
-0.00
-0.00
-0.07
-0.15
-0.16
-0.05
0.17
0.42
0.61
0.63
0.46
0.19
-0.07
-0.18
-0.09
0.17
0.47
0.68
0.70
0.52
0.20
-0.17
-0.55
-0.86
-1.07
-1.13
-1.00
-0.70
-0.30
0.07
0.25
0.16
-0.18
-0.67
-1.14
-1.47
-1.59
-1.48
-1.17
-0.69
-0.11
0.50
1.06
1.50
1.75
1.81
1.73
1.54
1.31
1.07
0.85
0.67
0.52
0.40
0.30
0.24
0.24
0.32
0.50
0.74
0.94
1.00
0.84
0.50
0.11
-0.18
-0.27
-0.18
-0.02
0.07
-0.02
-0.27
-0.58
-0.83
-0.90
-0.76
-0.47
-0.11
0.20
0.39
0.42
0.26
-0.05
-0.46
-0.82
-1.03
-1.00
-0.74
-0.38
-0.11
-0.06
-0.28
-0.68
-1.07
-1.30
-1.30
-1.07
-0.71
-0.32
0.03
0.31
0.52
0.68
0.83
0.98
1.10
1.16
1.09
0.90
0.64
0.39
0.23
0.17
0.14
0.08
-0.05
-0.20
-0.27
-0.18
0.06
0.36
0.59
0.63
0.46
0.13
-0.25
-0.58
-0.81
-0.89
-0.81
-0.61
-0.30
0.04
0.33
0.51
0.52
0.37
0.10
-0.16
-0.34
-0.39
-0.33
-0.24
-0.19
-0.22
-0.34
-0.48
-0.60
-0.60
-0.49
-0.24
0.10
0.47
0.80
1.01
1.06
0.94
0.69
0.39
0.11
-0.09
-0.19
-0.17
-0.04
0.18
0.40
0.55
0.53
0.38
0.16
-0.01
-0.03
0.06
0.18
0.21
0.10
-0.13
-0.37
-0.53
-0.55
-0.45
-0.30
-0.13
0.03
0.19
0.35
0.48
0.56
0.53
0.37
0.13
-0.14
-0.32
-0.34
-0.16
0.15
0.48
0.70
0.73
0.58
0.35
0.14
0.05
0.08
0.19
0.30
0.34
0.30
0.17
-0.01
-0.18
-0.29
-0.30
-0.20
-0.01
0.19
0.32
0.31
0.15
-0.11
-0.38
-0.58
-0.66
-0.64
-0.54
-0.40
-0.21
0.06
0.37
0.67
0.82
0.73
0.38
-0.13
-0.61
-0.88
-0.88
-0.67
-0.38
-0.16
-0.07
-0.08
-0.09
-0.05
0.06
0.19
0.25
0.22
0.12
0.01
-0.05
-0.04
-0.00
0.03
0.01
-0.06
-0.14
-0.14
-0.02
0.22
0.53
0.80
0.97
0.99
0.86
0.65
0.40
0.18
-0.00
-0.11
-0.13
-0.07
0.05
0.16
0.18
0.06
-0.19
-0.53
-0.86
-1.09
-1.16
-1.04
-0.79
-0.49
-0.26
-0.17
-0.26
-0.45
-0.64
-0.68
-0.51
-0.13
0.34
0.74
0.95
0.93
0.75
0.52
0.32
0.22
0.17
0.14
0.07
-0.04
-0.17
-0.28
-0.35
-0.35
-0.27
-0.12
0.09
0.33
0.57
0.74
0.81
0.74
0.53
0.25
-0.05
-0.29
-0.41
-0.39
-0.27
-0.12
-0.00
0.01
-0.10
-0.29
-0.49
-0.63
-0.65
-0.59
-0.48
-0.42
-0.44
-0.57
-0.76
-0.94
-1.02
-0.95
-0.72
-0.38
-0.04
0.24
0.39
0.43
0.41
0.39
0.39
0.43
0.48
0.49
0.47
0.43
0.40
0.41
0.45
0.50
0.54
0.56
0.52
0.41
0.23
-0.00
-0.22
-0.35
-0.35
-0.22
-0.01
0.18
0.24
0.15
-0.08
-0.35
-0.58
-0.71
-0.69
-0.54
-0.33
-0.12
0.02
0.04
-0.04
-0.17
-0.27
-0.27
-0.16
0.00
0.14
0.19
0.14
0.00
-0.17
-0.35
-0.46
-0.50
-0.41
-0.19
0.11
0.42
0.64
0.70
0.59
0.36
0.06
-0.19
-0.34
-0.35
-0.23
-0.04
0.16
0.28
0.32
0.29
0.30
0.40
0.58
0.77
0.83
0.70
0.43
0.15
0.01
0.07
0.25
0.36
0.30
0.05
-0.25
-0.44
-0.40
-0.12
0.25
0.55
0.68
0.61
0.40
0.15
-0.08
-0.24
-0.33
-0.32
-0.24
-0.10
0.07
0.20
0.24
0.17
-0.02
-0.29
-0.56
-0.75
-0.82
-0.73
-0.53
-0.30
-0.12
-0.03
-0.01
-0.03
-0.02
0.03
0.07
0.03
-0.13
-0.41
-0.71
-0.93
-1.00
-0.91
-0.73
-0.52
-0.33
-0.13
0.12
0.43
0.71
0.83
0.69
0.31
-0.18
-0.54
-0.60
-0.33
0.13
0.55
0.72
0.62
0.37
0.17
0.19
0.40
0.69
0.85
0.77
0.50
0.22
0.11
0.25
0.58
0.86
0.90
0.61
0.09
-0.47
-0.84
-0.90
-0.68
-0.32
0.02
0.25
0.36
0.37
0.33
0.25
0.14
-0.02
-0.24
-0.49
-0.72
-0.87
-0.88
-0.73
-0.43
-0.04
0.33
0.60
0.71
0.65
0.45
0.17
-0.13
-0.36
-0.45
-0.37
-0.11
0.24
0.55
0.72
0.69
0.47
0.15
-0.18
-0.45
-0.62
-0.72
-0.77
-0.77
-0.71
-0.61
-0.48
-0.36
-0.28
-0.27
-0.32
-0.41
-0.51
-0.60
-0.65
-0.65
-0.61
-0.54
-0.45
-0.35
-0.22
-0.07
0.10
0.24
0.32
0.33
0.33
0.35
0.44
0.57
0.64
0.60
0.42
0.18
0.02
0.05
0.27
0.57
0.82
0.90
0.79
0.61
0.45
0.40
0.41
0.42
0.35
0.20
0.02
-0.10
-0.12
-0.05
0.05
0.08
0.01
-0.18
-0.41
-0.61
-0.71
-0.65
-0.44
-0.12
0.22
0.48
0.57
0.45
0.15
-0.21
-0.51
-0.62
-0.51
-0.22
0.13
0.42
0.57
0.55
0.40
0.15
-0.16
-0.48
-0.77
-0.94
-0.91
-0.66
-0.27
0.15
0.50
0.71
0.77
0.75
0.70
0.65
0.63
0.59
0.52
0.37
0.15
-0.13
-0.37
-0.49
-0.45
-0.27
-0.06
0.08
0.08
-0.04
-0.15
-0.16
-0.03
0.19
0.36
0.41
0.31
0.15
0.02
-0.00
0.07
0.17
0.18
0.02
-0.33
-0.81
-1.28
-1.62
-1.72
-1.54
-1.18
-0.79
-0.51
-0.43
-0.56
-0.83
-1.16
-1.52
-1.88
-2.25
-2.63
-2.98
-3.26
-3.41
-3.42
-3.28
-3.04
-2.76
-2.55
-2.50
-2.67
-3.01
-3.38
-3.58
-3.50
-3.15
-2.68
-2.29
-2.11
-2.09
-2.05
-1.83
-1.34
-0.66
0.11
1.07
2.63
5.45
10.10
16.72
24.78
33.27
41.12
47.63
52.53
55.67
56.65
54.71
49.16
39.96
28.13
15.55
4.24
-4.53
-10.60
-14.68
-17.66
-19.95
-21.35
-21.42
-20.03
-17.57
-14.83
-12.44
-10.51
-8.66
-6.27
-2.99
1.19
5.86
10.39
14.16
16.52
16.97
15.20
11.29
5.81
-0.23
-5.74
-9.85
-12.20
-12.97
-12.62
-11.59
-10.18
-8.53
-6.80
-5.35
-4.61
-4.98
-6.52
-8.92
-11.61
-13.97
-15.60
-16.37
-16.44
-16.08
-15.56
-15.03
-14.55
-14.15
-13.81
-13.48
-13.07
-12.43
-11.39
-9.82
-7.73
-5.30
-2.85
-0.76
0.69
1.36
1.30
0.72
-0.08
-0.76
-1.01
-0.60
0.55
2.28
4.27
6.11
7.42
7.99
7.81
7.06
5.93
4.54
3.00
1.41
-0.00
-1.01
-1.48
-1.52
-1.48
-1.72
-2.41
-3.32
-3.92
-3.72
-2.57
-0.81
0.81
1.54
0.89
-1.14
-4.15
-7.45
-10.32
-12.12
-12.43
-11.18
-8.71
-5.66
-2.80
-0.73
0.26
0.26
-0.47
-1.67
-3.09
-4.46
-5.41
-5.54
-4.61
-2.76
-0.53
1.35
2.38
2.47
2.01
1.57
1.55
1.94
2.40
2.46
1.83
0.55
-1.00
-2.33
-3.04
-3.02
-2.46
-1.77
-1.39
-1.59
-2.39
-3.58
-4.85
-5.96
-6.86
-7.67
-8.57
-9.69
-10.98
-12.21
-13.10
-13.37
-12.86
-11.64
-9.94
-8.14
-6.64
-5.78
-5.73
-6.43
-7.63
-8.97
-10.11
-10.93
-11.51
-12.13
-13.09
-14.52
-16.27
-18.03
-19.48
-20.55
-21.53
-23.01
-25.64
-29.82
-35.48
-42.07
-48.76
-54.79
-59.80
-63.93
-67.79
-72.20
-77.83
-84.95
-93.44
-102.80
-112.32
-121.18
-128.47
-133.51
-136.21
-137.53
-139.35
-143.82
-151.92
-162.37
-171.33
-173.47
-163.94
-140.31
-103.62
-57.89
-8.49
39.74
83.69
122.09
154.83
182.05
203.60
219.13
228.47
232.17
231.63
228.85
225.95
224.52
225.16
227.49
230.42
232.80
233.84
233.36
231.70
229.39
226.98
224.93
223.87
224.48
227.16
231.27
234.53
233.12
222.76
200.56
166.54
123.98
78.32
35.10
-1.97
-31.83
-55.57
-75.14
-92.16
-107.45
-121.25
-133.62
-144.66
-154.34
-162.18
-167.27
-168.61
-165.61
-158.47
-148.21
-136.36
-124.45
-113.70
-104.76
-97.65
-91.90
-86.74
-81.44
-75.51
-68.89
-61.93
-55.22
-49.33
-44.59
-40.98
-38.11
-35.45
-32.52
-29.11
-25.31
-21.45
-17.91
-14.95
-12.61
-10.77
-9.21
-7.78
-6.42
-5.15
-4.02
-3.04
-2.20
-1.47
-0.82
-0.25
0.28
0.78
1.26
1.68
1.97
2.05
1.91
1.59
1.19
0.85
0.64
0.55
0.51
0.40
0.18
-0.16
-0.51
-0.72
-0.69
-0.41
0.02
0.42
0.64
0.57
0.29
-0.05
-0.30
-0.37
-0.32
-0.32
-0.52
-0.96
-1.57
-2.18
-2.62
-2.80
-2.76
-2.52
-1.99
-0.97
0.73
3.03
5.51
7.53
8.47
8.16
6.95
5.54
4.58
4.31
4.44
4.37
3.58
2.00
-0.00
-1.80
-2.91
-3.22
-2.99
-2.64
-2.48
-2.57
-2.74
-2.70
-2.31
-1.62
-0.86
-0.32
-0.17
-0.40
-0.80
-1.17
-1.37
-1.39
-1.36
-1.41
-1.59
-1.88
-2.16
-2.31
-2.26
-1.98
-1.54
-1.07
-0.65
-0.37
-0.23
-0.23
-0.34
-0.52
-0.76
-1.02
-1.24
-1.39
-1.42
-1.38
-1.30
-1.28
-1.37
-1.56
-1.77
-1.92
-1.94
-1.85
-1.69
-1.55
-1.53
-1.69
-2.06
-2.64
-3.33
-4.02
-4.53
-4.73
-4.57
-4.14
-3.61
-3.23
-3.13
-3.35
-3.75
-4.13
-4.30
-4.15
-3.74
-3.19
-2.68
-2.26
-1.90
-1.47
-0.85
-0.02
0.93
1.82
2.52
3.03
3.49
4.10
4.98
6.08
7.19
8.06
8.51
8.54
8.23
7.72
7.08
6.33
5.49
4.62
3.81
3.19
2.81
2.63
2.55
2.47
2.37
2.27
2.23
2.25
2.29
2.25
2.09
1.78
1.38
0.97
0.65
0.50
0.55
0.80
1.15
1.51
1.77
1.88
1.90
1.94
2.13
2.52
3.06
3.64
4.14
4.48
4.63
4.57
4.30
3.83
3.20
