1660755973.00
64.000000
-0.00
-0.00
-0.00
-0.00
-0.00
-0.00
-0.00
-0.00
-0.00
-0.00
0.00
0.01
0.01
-0.00
-0.03
-0.05
-0.05
0.00
0.13
0.36
0.66
1.01
1.37
1.72
2.06
2.40
2.79
3.24
3.80
4.42
5.06
5.66
6.20
6.68
7.15
7.68
8.31
9.14
10.09
11.04
11.88
12.56
13.14
13.76
14.65
15.96
17.91
20.32
22.90
25.38
27.58
29.57
31.68
34.32
37.81
42.54
48.15
54.10
59.83
64.97
69.58
74.14
79.34
85.71
93.76
103.00
112.62
121.73
129.77
136.75
143.30
150.75
157.77
166.64
177.95
191.79
206.97
220.57
228.25
225.36
208.53
176.87
132.76
80.05
23.07
-34.94
-92.44
-149.16
-205.23
-260.37
-313.74
-363.87
-409.83
-450.91
-486.50
-515.74
-537.23
-549.22
-549.96
-538.37
-514.21
-478.67
-433.88
-382.45
-327.02
-269.84
-212.63
-156.66
-102.95
-52.37
-5.90
35.58
71.43
101.35
125.50
144.38
158.69
169.15
176.37
180.75
182.57
182.07
179.51
175.23
169.65
163.18
156.15
148.81
141.30
133.69
126.02
118.33
110.69
103.16
95.80
88.68
81.83
75.25
68.95
62.95
57.25
51.86
46.78
42.03
37.59
33.45
29.61
26.07
22.81
19.83
17.11
14.67
12.48
10.54
8.83
7.35
6.07
4.97
4.05
3.27
2.62
2.09
1.65
1.30
1.01
0.79
0.61
0.48
0.37
0.29
0.24
0.20
0.18
0.17
0.17
0.19
0.21
0.23
0.26
0.30
0.34
0.38
0.43
0.47
0.52
0.57
0.62
0.67
0.73
0.80
0.86
0.94
1.02
1.11
1.21
1.32
1.45
1.59
1.75
1.92
2.12
2.33
2.58
2.84
3.14
3.46
3.81
4.20
4.62
5.08
5.58
6.11
6.69
7.30
7.96
8.66
9.40
10.19
11.03
11.93
12.88
13.87
14.92
15.98
17.07
18.18
19.31
20.45
21.60
22.67
23.57
24.15
24.26
23.77
22.55
20.59
17.90
14.57
10.67
6.33
1.71
-3.03
-7.73
-12.18
-16.15
-19.45
-21.91
-23.51
-24.33
-24.58
-24.51
-24.35
-24.20
-24.03
-23.69
-23.04
-22.04
-20.83
-19.71
-19.00
-18.96
-19.54
-20.49
-21.37
-21.77
-21.52
-20.81
-20.12
-20.03
-20.92
-22.84
-25.39
-27.94
-29.94
-31.08
-31.50
-31.66
-32.15
-33.59
-36.50
-41.23
-47.58
-54.57
-60.22
-61.98
-57.61
-46.26
-29.16
-9.38
9.24
23.53
32.06
35.27
34.76
32.37
29.43
26.59
24.10
22.25
21.42
21.94
23.81
26.42
28.86
30.25
30.13
28.69
26.54
24.51
23.22
22.92
23.42
24.23
24.78
24.66
23.72
22.13
20.21
18.41
17.01
16.13
15.64
15.29
14.74
13.77
12.25
10.22
7.80
5.15
2.44
-0.14
-2.43
-4.36
-6.05
-7.72
-9.70
-12.15
-15.06
-18.19
-21.18
-23.70
-25.42
-26.11
-25.52
-23.55
-20.31
-16.15
-11.57
-7.09
-3.02
0.58
3.82
6.85
9.71
12.36
14.67
16.54
17.92
18.78
19.16
19.13
18.85
18.52
18.26
18.09
17.84
17.27
16.26
14.87
13.32
11.87
10.63
9.50
8.28
6.76
4.89
2.78
0.61
-1.43
-3.32
-5.15
-7.08
-9.22
-11.54
-13.95
-16.31
-18.56
-20.74
-22.84
-24.78
-26.26
-26.85
-26.12
-23.94
-20.50
-16.27
-11.86
-7.68
-3.97
-0.69
2.22
4.82
7.11
9.06
10.65
11.94
13.01
13.91
14.65
15.19
15.47
15.45
15.09
14.39
13.39
12.16
10.85
9.57
8.41
7.36
6.36
5.34
4.26
3.15
2.06
1.07
0.23
-0.48
-1.16
-1.93
-2.91
-4.11
-5.53
-7.09
-8.78
-10.64
-12.73
-15.13
-17.81
-20.58
-23.01
-24.60
-24.83
-23.41
-20.39
-16.14
-11.37
-6.76
-2.85
0.15
2.40
4.21
5.91
7.61
9.21
10.51
11.36
11.77
11.93
12.08
12.38
12.81
13.25
13.58
13.78
13.99
14.36
14.96
15.68
16.26
16.41
15.98
15.02
13.69
12.16
10.49
8.59
6.29
3.56
0.50
-2.61
-5.45
-7.81
-9.68
-11.21
-12.68
-14.34
-16.35
-18.68
-21.14
-23.34
-24.80
-25.05
-23.80
-21.07
-17.22
-12.77
-8.28
-4.12
-0.43
2.79
5.54
7.80
9.56
10.87
11.94
12.97
14.07
15.15
15.99
16.42
16.42
16.18
15.98
16.00
16.25
16.60
16.84
16.81
16.42
15.67
14.61
13.32
11.92
10.51
9.12
7.71
6.17
4.38
2.36
0.19
-1.99
-4.02
-5.87
-7.59
-9.34
-11.28
-13.55
-16.13
-18.84
-21.30
-23.01
-23.52
-22.58
-20.28
-16.99
-13.21
-9.37
-5.74
-2.47
0.43
2.98
5.22
7.21
8.98
10.59
12.01
13.15
13.92
14.29
14.33
14.15
13.87
13.53
13.06
12.39
11.47
10.34
9.07
7.75
6.42
5.05
3.54
1.79
-0.25
-2.51
-4.80
-6.81
-8.27
-9.05
-9.22
-9.11
-9.12
-9.57
-10.50
-11.78
-13.16
-14.49
-15.75
-17.02
-18.32
-19.48
-20.16
-19.88
-18.32
-15.42
-11.49
-7.14
-3.02
0.40
2.99
4.96
6.63
8.32
10.06
11.69
12.92
13.58
13.70
13.46
13.11
12.82
12.63
12.49
12.32
12.09
11.82
11.50
11.08
10.44
9.47
8.09
6.30
4.24
2.10
0.09
-1.66
-3.13
-4.37
-5.49
-6.64
-7.91
-9.35
-10.99
-12.85
-14.91
-17.07
-19.21
-21.12
-22.58
-23.35
-23.26
-22.24
-20.31
-17.64
-14.50
-11.20
-8.04
-5.24
-2.89
-0.96
0.66
2.14
3.64
5.20
6.79
8.26
9.47
10.38
11.07
11.64
12.13
12.38
12.11
11.00
8.89
5.91
2.42
-1.11
-4.36
-7.19
-9.61
-11.61
-13.10
-13.93
-14.05
-13.63
-13.07
-12.76
-12.89
-13.42
-14.10
-14.74
-15.23
-15.52
-15.53
-15.03
-13.77
-11.67
-9.00
-6.27
-4.05
-2.66
-2.02
-1.76
-1.45
-0.83
0.12
1.19
2.09
2.51
2.17
0.87
-1.47
-4.70
-8.50
-12.50
-16.42
-20.16
-23.86
-27.71
-31.90
-36.53
-41.58
-46.97
-52.60
-58.33
-63.94
-69.11
-73.45
-76.51
-77.96
-77.62
-75.45
-71.53
-65.95
-58.65
-49.42
-37.97
-24.26
-8.76
7.46
22.91
36.14
46.32
53.47
58.33
61.92
64.96
67.56
69.34
69.87
69.03
67.22
65.08
63.10
61.33
59.36
56.63
52.85
48.19
43.27
38.83
35.38
32.93
31.17
29.58
27.85
25.92
23.95
22.13
20.52
19.00
17.41
15.65
13.81
12.10
10.71
9.70
8.93
8.15
7.12
5.68
3.86
1.80
-0.19
-1.82
-2.87
-3.30
-3.28
-3.16
-3.31
-4.08
-5.58
-7.74
-10.31
-12.93
-15.26
-17.03
-18.09
-18.45
-18.25
-17.70
-17.01
-16.29
-15.55
-14.74
-13.83
-12.85
-11.82
-10.65
-9.16
-7.08
-4.19
-0.48
3.77
8.10
11.92
14.72
16.26
16.52
15.78
14.50
13.27
12.61
12.93
14.37
16.77
19.69
22.53
24.68
25.70
25.41
24.03
22.02
20.01
18.51
17.76
17.69
18.04
18.54
19.08
19.63
20.18
20.60
20.68
20.22
19.26
18.16
17.48
17.56
18.31
19.22
19.60
19.02
17.57
15.72
14.09
13.08
12.65
12.60
13.05
14.42
17.08
20.74
24.08
25.16
22.22
14.27
1.86
-12.94
-27.10
-37.63
-42.17
-39.41
-28.83
-11.30
10.22
30.83
45.23
49.40
42.14
25.66
5.17
-11.91
-18.59
-11.42
8.08
33.90
57.25
69.12
63.10
37.75
-1.53
-44.19
-78.66
-95.95
-91.93
-68.07
-30.41
12.38
46.88
62.44
59.15
46.21
34.15
28.83
30.75
37.30
45.74
54.38
63.99
77.32
94.02
111.17
124.77
131.63
130.67
123.30
112.05
100.61
92.14
87.24
83.76
79.06
71.39
60.63
48.24
34.76
21.14
8.62
-2.18
-11.60
-20.38
-28.81
-36.15
-41.05
-45.74
-52.31
-60.92
-70.01
-77.75
-82.75
-83.80
-79.58
-69.16
-58.14
-52.37
-54.30
-62.47
-74.19
-87.22
-99.71
-110.20
-118.21
-131.79
-159.38
-204.15
-263.29
-332.06
-406.87
-485.79
-567.58
-605.02
-567.52
-459.29
-313.15
-162.68
-29.32
74.28
141.30
171.78
173.88
154.94
124.03
91.46
65.81
50.13
42.73
41.14
44.91
51.92
60.25
66.32
69.00
70.30
72.92
78.45
87.41
99.91
115.54
130.04
138.72
139.78
134.68
126.16
116.87
108.95
103.68
102.95
104.77
105.58
103.09
97.06
88.81
80.31
73.57
70.00
69.99
72.17
74.35
74.86
73.17
69.78
65.84
62.90
62.34
64.89
70.11
76.42
81.56
83.23
79.84
70.97
57.46
41.07
24.02
8.26
-4.68
-13.98
-19.41
-21.30
-20.26
-17.12
-12.91
-9.05
-7.53
-10.56
-19.84
-35.73
-56.55
-78.69
-97.71
-109.73
-112.83
-107.53
-96.31
-82.46
-68.87
-57.22
-47.77
-39.85
-32.40
-24.73
-17.03
-10.55
-7.21
-8.99
-16.93
-30.72
-48.75
-68.66
-88.23
-105.88
-120.71
-132.17
-139.74
-142.81
-140.97
-134.47
-124.33
-112.34
-100.58
-90.84
-84.25
-81.04
-80.57
-81.47
-81.94
-80.13
-74.60
-64.79
-51.42
-36.41
-22.64
-13.13
-10.18
-14.67
-25.59
-40.16
-54.20
-63.13
-63.71
-55.63
-42.48
-31.05
-28.80
-40.47
-65.47
-97.43
-126.49
-143.36
-142.77
-125.13
-95.44
-60.63
-26.97
1.33
22.02
34.22
38.00
34.56
26.66
18.28
13.67
15.80
25.27
40.07
56.52
70.65
79.66
82.66
80.44
74.87
67.95
61.16
55.14
49.61
43.42
34.88
22.47
6.06
-12.03
-26.96
-32.86
-25.48
-4.92
23.32
49.90
65.32
64.11
47.25
21.75
-2.65
-17.73
-19.85
-10.55
5.10
21.36
34.14
41.88
45.05
44.98
42.77
38.88
33.59
27.49
21.87
18.55
19.11
24.22
33.24
44.51
56.08
66.52
75.22
82.06
86.76
88.27
85.06
76.18
62.51
47.25
35.16
30.70
35.85
49.02
65.49
79.39
86.04
83.85
74.94
64.28
57.91
60.73
74.83
98.70
127.65
155.27
175.67
185.33
184.17
175.03
162.15
149.09
137.25
125.71
112.02
93.83
70.11
41.75
11.04
-19.28
-46.84
-70.37
-90.44
-109.68
-132.30
-162.29
-201.05
-245.45
-287.49
-316.09
-320.63
-295.14
-240.83
-166.48
-86.04
-14.91
34.14
54.32
46.89
21.32
-7.92
-25.91
-22.47
4.80
50.25
103.28
153.23
193.94
225.83
252.64
277.89
302.28
324.68
344.32
362.39
382.10
407.23
441.01
481.00
519.52
546.74
556.96
551.37
536.38
518.92
503.00
490.71
478.46
460.19
430.22
387.90
336.99
281.88
224.07
162.42
98.42
31.92
-37.73
-112.26
-191.27
-266.05
-318.44
-334.48
-334.86
-332.97
-337.75
-342.77
-347.05
-349.93
-350.54
-348.82
-346.45
-345.40
-343.32
-339.44
-334.55
-331.82
-332.60
-336.11
-340.46
-344.36
-347.03
-345.58
-339.75
-331.62
-325.52
-324.49
-330.01
-342.52
-361.57
-384.45
-403.52
-410.03
-397.43
-365.89
-323.13
-283.05
-260.57
-264.79
-293.83
-334.22
-368.09
-381.21
-369.04
-336.36
-292.91
-247.31
-203.18
-159.00
-110.87
-56.78
1.51
59.23
111.72
156.88
196.23
233.83
273.97
319.22
369.68
423.86
479.83
536.02
590.60
640.44
680.47
704.48
707.22
686.68
645.18
588.61
524.22
458.29
394.84
335.79
281.88
233.57
190.98
153.43
119.03
85.00
48.72
8.91
-33.88
-77.64
-119.69
-158.05
-192.26
-223.53
-254.42
-288.03
-326.96
-372.20
-422.41
-473.76
-520.88
-558.37
-582.71
-593.45
-593.24
-586.75
-578.91
-573.53
-572.46
-575.57
-581.06
-585.90
-586.46
-579.21
-561.70
-533.33
-495.73
-452.14
-406.35
-361.49
-319.45
-280.99
-246.10
-214.58
-186.11
-160.10
-135.71
-111.93
-88.04
-63.92
-40.18
-17.79
2.20
19.21
33.27
44.93
55.01
64.10
72.42
79.69
85.39
89.00
90.36
89.78
87.95
85.66
83.60
82.05
80.96
79.96
78.71
77.06
75.17
73.44
72.40
72.36
73.30
74.87
76.53
77.82
78.63
79.29
80.43
82.69
86.32
90.93
95.58
99.07
100.55
99.93
98.09
96.53
96.75
99.51
104.36
109.80
113.88
115.21
113.78
111.05
109.52
111.58
118.34
128.99
141.14
151.72
158.45
160.77
160.15
159.38
161.83
170.60
187.59
212.64
242.45
269.91
284.64
275.63
235.36
163.90
70.45
-28.65
-115.31
-175.94
-205.56
-207.97
-192.43
-168.81
-143.99
-120.84
-99.45
-79.15
-59.81
-41.86
-25.56
-10.49
4.57
20.81
38.75
58.18
78.65
99.83
121.95
145.47
170.49
196.38
222.06
246.45
269.42
292.08
316.35
344.34
377.79
417.55
463.63
514.61
566.72
613.34
646.30
658.96
649.77
624.01
591.93
563.69
544.10
530.11
512.75
482.50
435.06
374.14
309.76
253.10
211.13
183.71
164.68
145.68
120.38
86.96
48.09
8.30
-29.01
-63.69
-99.16
-140.55
-191.62
-252.56
-318.84
-382.20
-433.05
-463.55
-470.01
-453.99
-421.54
-380.82
-339.10
-300.76
-267.07
-237.33
-211.04
-189.38
-175.34
-172.65
-184.50
-212.59
-256.79
-314.86
-382.08
-451.12
-512.94
-558.66
-582.10
-581.53
-559.77
-522.49
-476.00
-425.44
-374.26
-324.93
-279.50
-239.62
-205.91
-177.21
-150.48
-122.10
-89.60
-53.04
-15.07
20.55
50.75
74.95
95.48
116.42
141.64
172.82
208.75
245.78
279.70
307.75
329.87
348.94
369.73
397.30
435.05
483.74
538.54
591.21
630.93
647.11
632.76
587.58
519.22
441.65
371.48
320.42
292.67
283.28
280.88
273.06
251.32
213.30
161.61
101.99
36.20
-34.11
-107.50
-180.82
-248.51
-304.36
-344.10
-367.35
-373.33
-370.42
-361.18
-345.18
-319.40
-280.22
-225.91
-158.18
-82.44
1.20
75.58
133.67
171.41
188.57
188.40
176.69
160.22
145.01
146.91
151.40
153.67
147.31
128.16
97.75
64.28
40.05
36.52
75.85
138.14
215.04
296.50
375.35
449.66
522.11
597.14
573.90
580.46
591.57
598.49
592.10
565.74
516.85
447.21
361.66
266.10
183.23
102.44
32.29
-17.83
-40.35
-33.23
-2.26
39.84
77.57
111.42
122.61
113.51
91.05
62.66
33.36
5.11
-22.00
-48.23
-65.11
-80.51
-94.12
-106.26
-117.83
-129.86
-143.01
-157.37
-172.74
-183.97
-194.29
-203.08
-210.24
-216.35
-222.49
-229.80
-239.13
-251.41
-263.53
-275.66
-286.32
-294.43
-299.90
-303.82
-308.12
-314.91
-327.29
-343.14
-361.00
-378.64
-393.97
-406.16
-416.04
-425.79
-438.13
-458.26
-484.47
-517.21
-555.24
-595.09
-630.90
-655.16
-660.60
-642.37
-603.31
-542.48
-466.11
-381.04
-292.64
-204.23
-116.99
-30.86
77.16
174.70
264.25
341.69
402.52
444.02
467.07
476.21
477.46
474.84
464.90
449.42
426.69
399.66
376.58
367.38
377.74
404.83
437.57
459.01
462.10
444.63
412.40
374.80
339.35
308.31
279.10
247.27
208.46
165.44
121.51
80.27
43.44
10.12
-22.55
-57.51
-96.07
-137.83
-178.44
-213.99
-241.76
-261.42
-275.11
-286.59
-299.49
-315.91
-336.09
-358.04
-379.64
-399.69
-418.61
-438.33
-461.46
-490.61
-527.79
-573.97
-628.45
-687.99
-746.37
-795.06
-825.25
-830.74
-810.24
-767.90
-711.62
-650.04
-589.64
-533.59
-482.26
-435.00
-391.59
-352.58
-318.60
-289.45
-263.71
-239.27
-214.32
-188.21
-161.48
-135.63
-112.09
-91.56
-73.70
-57.32
-41.06
-23.97
-6.01
12.01
28.75
42.99
54.10
62.21
68.15
72.99
77.62
82.45
87.36
91.84
95.34
97.57
98.66
99.20
99.99
101.79
105.11
109.98
116.01
122.56
129.00
134.96
140.49
146.05
152.38
160.18
169.86
181.28
193.80
206.42
218.20
228.60
237.80
246.63
256.33
268.01
282.34
299.06
317.01
334.48
349.80
362.26
373.02
385.41
403.97
432.26
470.17
512.02
547.21
563.19
549.74
502.55
424.73
325.90
219.44
119.47
37.90
-17.94
-46.90
-54.68
-52.93
-56.51
-79.02
-128.13
-202.54
-292.22
-381.82
-456.01
-504.03
-522.25
-513.80
-486.06
-447.49
-405.19
-363.77
-325.47
-290.98
-260.20
-232.44
-206.45
-180.70
-153.84
-125.50
-96.53
-68.53
-42.80
-19.69
1.83
23.70
47.63
74.25
102.90
131.92
159.53
184.95
208.74
232.83
260.16
293.67
334.90
382.21
430.00
469.63
492.60
494.58
478.45
454.35
436.37
437.22
463.10
511.39
571.76
630.21
673.73
694.03
688.73
660.33
614.35
557.08
494.02
429.41
366.09
305.46
248.00
193.51
141.82
93.64
51.02
16.94
-6.02
-17.30
-19.54
-18.09
-19.35
-28.57
-48.32
-78.29
-116.17
-159.03
-204.04
-248.78
-291.23
-330.04
-365.19
-398.66
-434.49
-477.49
-530.88
-593.86
-660.21
-719.29
-759.43
-772.43
-756.75
-718.03
-666.40
-612.03
-561.32
-515.43
-471.75
-426.95
-379.73
-331.27
-285.27
-244.54
-209.58
-178.19
-146.41
-110.46
-68.50
-21.75
26.53
71.21
108.63
137.80
160.91
182.59
208.53
243.70
290.64
349.07
412.22
470.16
510.63
522.58
500.52
447.55
375.45
301.54
245.93
218.35
222.92
255.04
303.46
353.57
391.33
406.95
397.58
372.91
337.40
301.96
273.91
254.26
238.56
219.93
192.82
154.82
114.02
62.00
-1.31
-74.79
-153.50
-227.43
-283.51
-310.48
-303.79
-257.46
-194.32
-127.28
-65.33
-10.22
42.98
102.09
173.09
188.96
225.06
255.56
265.46
244.03
189.52
110.96
25.70
-46.39
-89.82
-87.94
-56.97
-10.36
34.97
64.62
71.13
55.58
25.89
-7.44
-28.32
-43.79
-58.87
-82.05
-119.87
-172.74
-233.98
-292.73
-338.99
-362.22
-367.99
-359.85
-341.50
-314.84
-279.89
-236.01
-183.63
-124.76
-59.76
6.46
73.24
141.16
210.00
276.61
333.91
372.68
385.62
373.25
343.51
312.55
297.38
308.20
343.67
391.63
435.01
459.62
459.50
437.50
401.52
359.45
315.87
271.94
227.62
183.83
143.20
108.66
81.36
59.63
39.54
16.85
-10.74
-42.56
-75.60
-106.08
-131.60
-152.24
-170.54
-190.12
-214.03
-243.60
-277.90
-314.63
-351.21
-386.08
-419.37
-453.08
-490.65
-535.68
-590.05
-651.90
-714.76
-768.38
-801.61
-806.31
-780.27
-728.04
-658.87
-583.05
-508.46
-438.79
-374.08
-312.54
-252.49
-193.19
-134.72
-77.33
-20.90
34.99
90.64
146.04
200.89
254.79
308.02
362.03
419.25
481.94
550.29
620.80
686.00
736.21
762.87
761.91
735.36
690.43
636.53
581.68
530.44
483.73
440.50
399.60
360.93
325.19
292.97
263.97
236.85
209.95
182.08
153.07
123.83
95.88
70.54
48.36
28.83
10.60
-7.93
-27.93
-49.68
-72.42
-94.66
-114.88
-132.17
-146.76
-160.05
-174.14
-191.20
-212.64
-238.60
-268.00
-299.15
-330.39
-360.85
-390.70
-420.98
-453.18
-489.05
-530.43
-578.92
-634.81
-695.82
-756.18
-807.22
-839.55
-846.43
-826.26
-783.32
-725.84
-662.77
-600.66
-542.35
-487.74
-435.67
-385.64
-338.26
-294.67
-255.42
-219.92
-186.64
-153.90
-120.58
-86.44
-52.19
-18.98
12.14
40.59
66.43
90.47
113.97
138.32
164.62
193.34
224.18
256.12
288.03
318.99
348.81
378.09
408.01
439.96
475.36
515.68
562.12
614.70
671.07
725.70
770.35
796.19
796.85
770.87
722.43
659.60
591.22
523.88
460.58
401.33
344.94
290.65
238.56
189.03
141.70
95.06
47.08
-3.68
-57.26
-112.10
-165.67
-215.81
-261.70
-304.36
-346.33
-390.87
-440.74
-497.17
-558.96
-622.19
-680.89
-728.38
-759.12
-770.29
-762.40
-738.75
-703.97
-662.48
-617.51
-571.09
-524.67
-479.73
-437.86
-400.33
-367.39
-337.96
-310.01
-281.37
-250.77
-218.39
-185.83
-155.25
-128.39
-105.66
-85.89
-66.84
-46.33
-23.31
1.53
25.93
47.19
63.48
74.95
83.91
93.90
108.13
127.94
152.00
176.76
198.28
213.98
223.99
231.34
240.68
256.38
281.16
315.21
356.17
399.21
437.60
464.20
473.83
465.76
445.36
423.37
412.45
422.00
453.71
500.02
546.58
578.00
584.35
565.30
529.81
491.51
462.17
446.45
440.55
435.01
419.87
389.04
342.53
285.20
223.98
165.64
115.65
78.09
55.51
48.04
52.47
62.19
68.67
64.19
44.56
10.00
-35.79
-87.50
-140.10
-190.05
-235.50
-276.28
-314.13
-352.63
-396.50
-449.50
-511.98
-579.12
-641.22
-686.51
-705.37
-694.03
-655.81
-599.51
-535.68
-472.85
-415.47
-363.96
-316.37
-270.29
-223.95
-176.34
-126.95
-75.61
-22.48
31.67
85.67
138.44
189.32
238.62
287.83
339.42
396.17
459.89
529.83
601.60
667.43
718.03
745.82
747.64
725.90
687.32
639.99
590.30
541.26
492.98
444.41
395.14
346.08
298.61
253.29
209.04
163.48
114.30
60.59
3.57
-53.93
-108.62
-158.35
-203.01
-244.44
-285.76
-330.47
-381.64
-441.20
-509.08
-582.35
-654.90
-718.34
-764.20
-786.88
-785.73
-765.24
-733.03
-696.75
-661.34
-628.25
-596.44
-564.29
-531.19
-497.63
-464.43
-431.59
-398.04
-362.15
-322.86
-280.46
-236.72
-194.46
-156.48
-124.65
-99.41
-79.83
-64.04
-50.05
-36.37
-22.49
-8.86
3.43
13.22
19.89
23.74
26.04
28.66
33.45
41.38
52.14
64.10
74.90
82.45
86.01
86.77
87.59
92.00
102.72
120.35
143.00
167.12
188.87
205.99
218.80
230.01
243.85
264.54
295.15
336.58
386.78
439.88
486.47
515.44
517.71
490.63
440.64
382.46
334.30
310.91
317.77
349.31
391.77
429.24
449.48
447.18
423.57
383.61
332.81
275.38
214.11
151.30
89.59
32.30
-17.51
-58.00
-89.08
-112.24
-129.39
-141.50
-148.01
-147.20
-137.43
-118.76
-93.78
-67.08
-43.79
-27.56
-19.25
-16.70
-15.72
-11.78
-1.81
14.53
34.28
51.66
59.32
50.48
21.51
-25.91
-83.97
-140.06
-180.06
-192.86
-174.32
-129.14
-69.45
-10.71
33.68
56.73
59.41
49.12
35.81
27.73
28.73
37.86
51.04
63.62
72.49
76.78
77.37
75.57
72.12
67.08
60.33
52.42
45.05
41.04
43.36
53.93
72.65
97.36
124.77
151.86
177.03
199.99
220.59
237.21
246.30
243.68
227.41
200.56
171.82
152.89
153.59
177.09
217.82
263.59
300.69
319.28
316.45
295.78
264.39
229.47
196.12
166.93
142.82
123.71
108.85
96.74
85.11
71.51
54.18
32.71
8.07
-17.97
-43.72
-68.24
-91.59
-114.71
-138.89
-165.27
-194.51
-226.44
-260.30
-295.09
-330.13
-365.43
-402.22
-442.97
-490.56
-546.69
-609.92
-674.53
-731.19
-769.59
-782.19
-767.04
-728.43
-674.71
-614.68
-554.37
-495.80
-438.04
-379.36
-319.16
-258.29
-198.24
-139.89
-82.87
-25.93
32.08
91.59
152.35
213.76
275.43
336.95
397.18
453.72
502.77
539.99
562.05
567.97
559.75
541.80
519.47
497.64
479.84
468.04
462.91
463.88
469.02
474.97
477.37
471.95
455.97
429.22
394.01
354.25
313.98
276.00
241.40
209.93
180.75
153.06
126.28
99.87
73.24
45.84
17.42
-11.68
-40.54
-68.11
-93.70
-117.56
-140.81
-165.09
-191.86
-221.74
-254.20
-287.99
-321.57
-353.99
-385.27
-416.36
-448.96
-485.16
-527.17
-576.56
-633.19
-693.96
-752.46
-800.00
-828.10
-831.50
-810.20
-769.42
-717.32
-661.93
-608.52
-558.97
-512.75
-468.72
-426.33
-385.76
-347.24
-310.28
-273.62
-235.81
-196.09
-154.74
-112.93
-72.23
-33.67
2.53
37.00
70.78
104.84
139.66
175.30
211.50
247.96
284.49
320.92
357.04
392.74
428.29
464.45
502.30
542.42
584.06
624.77
660.63
687.03
699.80
696.00
674.27
634.90
580.04
513.90
442.79
373.99
313.84
265.53
227.73
195.03
160.10
116.73
62.35
-0.68
-65.97
-124.74
-168.97
-194.10
-200.73
-195.00
-186.99
-187.84
-206.15
-245.15
-301.58
-367.07
-431.23
-484.99
-522.70
-542.63
-545.92
-534.89
-512.11
-479.89
-440.66
-397.17
-351.93
-306.32
-259.66
-209.60
-154.26
-95.33
-39.97
0.31
14.25
-3.20
-47.22
-103.38
-153.12
-181.12
-180.95
-156.17
-116.70
-72.83
-30.69
8.95
48.56
90.34
134.20
178.09
220.04
260.00
299.81
341.72
385.78
428.57
463.91
485.40
489.55
477.60
454.94
428.44
403.22
380.93
360.44
340.16
320.26
302.97
291.06
285.55
284.80
285.61
285.73
285.95
289.88
301.76
323.15
351.02
378.56
398.14
404.75
397.83
380.63
357.78
332.77
306.75
279.03
248.55
215.38
181.20
148.61
119.73
95.15
73.56
52.46
29.37
3.08
-25.86
-55.48
-83.44
-108.25
-130.08
-150.67
-172.59
-198.00
-227.62
-260.36
-293.99
-326.08
-355.15
-381.31
-406.06
-431.76
-461.04
-496.30
-539.23
-589.90
-645.70
-700.71
-746.36
-773.63
-776.03
-752.06
-705.73
-644.78
-577.65
-510.54
-446.22
-384.60
-324.29
-264.21
-204.30
-145.26
-88.04
-33.33
18.85
69.53
120.88
175.46
234.42
295.68
352.76
395.77
414.32
401.02
354.34
279.32
186.28
88.38
-1.21
-71.55
-115.33
-129.54
-115.48
-78.74
-28.42
24.55
69.76
100.17
114.27
116.86
117.36
125.75
147.60
180.47
214.64
237.93
242.57
229.89
209.67
193.71
188.35
190.30
189.22
175.69
148.93
118.69
99.97
103.46
127.92
159.81
180.05
174.07
138.81
82.66
19.37
-40.36
-94.11
-147.57
-209.53
-284.34
-369.17
-453.74
-523.67
-566.44
-576.43
-556.88
-517.91
-471.89
-428.41
-391.39
-359.24
-327.77
-293.86
-257.70
-222.51
-192.29
-169.29
-152.76
-139.59
-126.05
-109.65
-90.19
-69.78
-51.38
-37.38
-28.51
-23.50
-19.80
-14.47
-5.19
9.04
27.93
50.32
74.94
100.85
127.66
155.40
184.21
214.19
245.53
278.86
315.37
356.26
401.50
448.40
490.94
520.57
528.82
510.44
465.91
402.00
329.76
261.09
205.25
166.70
144.97
135.89
133.17
129.83
119.46
97.69
63.62
20.86
-22.81
-57.58
-74.86
-70.69
-47.48
-13.21
21.43
46.22
54.19
43.16
15.80
-21.51
-60.61
-93.84
-115.92
-124.79
-121.98
-111.36
-97.25
-82.65
-68.53
-54.28
-38.84
-21.55
-1.47
21.23
45.24
68.44
88.69
104.68
116.15
123.62
128.33
133.81
142.42
154.58
168.71
182.56
194.51
204.29
212.28
220.09
233.16
255.29
286.83
324.28
362.26
395.71
421.60
438.13
445.61
449.74
454.65
461.03
466.05
466.09
459.17
446.24
428.93
379.77
286.05
153.30
4.43
-134.60
-247.95
-332.11
-386.87
-423.56
-450.78
-469.42
-480.03
-485.43
-491.95
-503.95
-525.40
-551.44
-576.07
-592.28
-589.66
-559.69
-498.17
-407.44
-296.24
-178.50
-72.65
10.18
61.80
81.24
73.65
48.13
14.58
-18.73
-47.36
-68.97
-84.68
-99.03
-115.61
-136.24
-161.08
-188.73
-214.69
-231.11
-228.05
-198.09
-141.46
-66.09
14.37
83.91
129.45
145.83
135.84
109.33
79.92
54.49
31.99
9.25
-15.03
-42.96
-75.44
-111.65
-147.89
-178.21
-197.10
-198.72
-176.43
-128.33
-58.19
27.00
118.06
204.67
276.04
320.39
330.63
310.31
267.50
211.73
152.47
95.55
41.58
-13.57
-78.35
-158.11
-247.36
-337.00
-417.04
-477.43
-511.70
-518.46
-486.62
-419.24
-352.15
-298.98
-255.28
-218.02
-184.74
-154.66
-127.01
-101.49
-80.05
-64.55
-49.73
-32.17
-11.56
10.84
32.83
54.67
77.24
99.63
118.72
137.50
157.94
180.37
203.66
225.81
247.72
270.30
292.63
309.88
322.74
332.51
340.86
348.40
337.15
296.58
226.34
158.50
104.51
69.55
47.25
36.12
35.64
45.68
68.33
104.06
150.20
197.65
239.94
272.81
295.69
309.22
315.28
318.01
320.70
324.64
325.84
321.61
310.26
292.43
268.46
239.06
206.16
171.78
137.67
102.68
66.77
30.16
-5.58
-40.16
-73.46
-105.25
-134.92
-161.31
-184.50
-203.68
-218.27
-227.38
-232.97
-232.34
-224.92
-212.51
-198.06
-184.56
-171.74
-164.81
-160.78
-157.13
-153.01
-149.99
-151.16
-153.10
-154.49
-153.98
-150.58
-142.68
-130.33
-114.23
-95.83
-77.95
-62.51
-50.93
-42.84
-36.90
-30.78
-23.36
-14.25
-3.65
5.38
9.89
7.16
-3.85
-22.70
-47.37
-75.69
-105.38
-134.03
-163.34
-195.31
-231.27
-270.27
-309.27
-344.21
-371.83
-390.51
-382.33
-337.82
-257.56
-153.74
-43.99
56.89
141.14
206.85
251.33
280.18
295.26
298.18
291.73
280.51
269.72
263.25
265.08
275.77
294.55
316.76
338.16
356.12
369.86
379.53
385.03
385.71
380.41
369.23
351.16
326.20
295.21
259.70
221.33
181.63
142.08
103.99
69.01
37.28
8.39
-18.43
-43.71
-67.44
-89.00
-107.38
-121.83
-131.91
-138.41
-142.79
-146.77
-151.77
-158.46
-166.63
-175.40
-183.79
-191.12
-197.66
-204.56
-213.53
-226.14
-243.20
-264.32
-288.23
-313.27
-338.09
-362.16
-385.80
-409.98
-436.10
-465.80
-500.69
-541.43
-586.57
-631.51
-668.65
-689.15
-685.79
-655.76
-601.85
-531.30
-453.00
-374.58
-300.49
-232.10
-168.93
-109.99
-54.39
-1.25
50.39
101.27
151.10
198.42
241.06
277.46
307.75
334.07
359.79
388.35
422.33
462.99
510.17
561.74
613.10
657.05
684.86
688.62
664.02
612.09
538.88
453.25
363.74
276.21
193.53
116.17
43.72
-24.24
-88.31
-149.97
-212.04
-277.96
-349.90
-426.47
-501.60
-565.24
-606.48
-617.67
-597.53
-551.66
-490.11
-423.10
-357.37
-294.71
-233.24
-170.20
-104.55
-37.76
27.32
88.16
144.09
196.43
247.52
299.56
354.10
411.91
473.42
538.34
604.70
667.97
721.00
755.78
766.13
750.23
711.49
657.31
596.21
534.98
477.17
423.35
372.52
323.54
275.77
228.98
182.91
137.07
90.96
44.41
-2.35
-48.88
-94.65
-139.38
-182.97
-225.36
-266.57
-306.51
-345.23
-382.92
-419.94
-456.90
-494.96
-536.04
-582.41
-635.50
-694.15
-753.46
-805.09
-839.49
-849.29
-832.17
-791.64
-735.44
-672.23
-608.64
-547.87
-490.34
-435.37
-382.64
-332.57
-285.69
-241.89
-200.24
-159.58
-119.47
-80.56
-44.37
-12.54
14.20
36.60
56.63
76.78
98.94
123.47
148.94
172.87
192.97
208.49
220.56
231.39
242.75
254.58
265.00
271.45
272.43
268.82
