1660932482.00
64.000000
-0.00
-0.00
-0.00
-0.00
-0.00
-0.00
-0.00
-0.00
-0.00
-0.00
0.00
0.01
0.01
-0.00
-0.03
-0.05
-0.05
0.00
0.13
0.36
0.66
1.01
1.37
1.72
2.06
2.40
2.79
3.25
3.81
4.44
5.10
5.73
6.32
6.90
7.52
8.26
9.15
10.27
11.51
12.74
13.86
14.82
15.71
16.72
18.08
19.91
22.41
25.37
28.48
31.46
34.19
36.79
39.62
43.13
47.61
53.38
60.02
66.98
73.70
79.94
85.89
92.16
99.48
108.29
118.98
130.85
143.01
154.62
165.34
175.49
185.96
198.18
210.69
225.39
242.49
261.86
282.33
301.37
315.16
319.56
311.34
289.36
255.43
212.74
165.18
116.02
67.27
19.87
-25.71
-68.99
-109.49
-146.74
-181.35
-214.60
-248.20
-283.35
-319.92
-355.89
-387.43
-410.15
-420.37
-416.77
-400.88
-376.54
-348.33
-319.93
-293.21
-268.33
-244.66
-221.63
-199.49
-178.96
-160.67
-144.64
-130.24
-116.55
-102.85
-88.97
-75.29
-62.61
-51.60
-42.55
-35.18
-28.79
-22.57
-15.98
-9.00
-2.06
4.13
9.03
12.47
14.76
16.47
18.13
19.98
21.92
23.65
24.94
25.69
26.04
26.16
26.21
26.19
26.04
25.68
25.15
24.56
24.04
23.69
23.50
23.36
23.08
22.54
21.66
20.51
19.22
17.98
16.93
16.14
15.59
15.23
15.00
14.84
14.71
14.55
14.30
13.93
13.44
12.89
12.38
12.00
11.79
11.75
11.81
11.86
11.81
11.59
11.21
10.73
10.22
9.77
9.39
9.06
8.72
8.38
8.08
7.87
7.77
7.72
7.64
7.43
7.07
6.62
6.19
5.85
5.65
5.54
5.49
5.42
5.28
5.03
4.61
4.00
3.27
2.52
1.91
1.53
1.36
1.31
1.18
0.84
0.26
-0.49
-1.33
-2.17
-2.97
-3.73
-4.44
-5.04
-5.48
-5.73
-5.87
-6.01
-6.29
-6.79
-7.50
-8.26
-8.89
-9.23
-9.23
-8.93
-8.45
-7.94
-7.51
-7.20
-7.00
-6.85
-6.69
-6.47
-6.15
-5.71
-5.14
-4.43
-3.65
-2.90
-2.27
-1.83
-1.53
-1.29
-0.97
-0.51
0.05
0.64
1.14
1.49
1.71
1.87
2.01
2.18
2.38
2.59
2.78
2.94
3.01
2.97
2.82
2.62
2.46
2.44
2.59
2.85
3.09
3.18
3.07
2.81
2.56
2.48
2.68
3.10
3.62
4.08
4.40
4.55
4.62
4.66
4.72
4.76
4.73
4.60
4.40
4.21
4.11
4.14
4.27
4.43
4.54
4.53
4.37
4.05
3.64
3.22
2.94
2.87
2.99
3.18
3.25
3.08
2.67
2.15
1.73
1.59
1.75
2.11
2.47
2.67
2.67
2.52
2.34
2.20
2.10
2.02
1.89
1.70
1.49
1.31
1.21
1.22
1.33
1.50
1.70
1.90
2.10
2.26
2.36
2.37
2.27
2.07
1.81
1.52
1.24
1.00
0.81
0.69
0.62
0.61
0.65
0.75
0.91
1.10
1.26
1.32
1.23
0.99
0.70
0.50
0.48
0.70
1.08
1.46
1.73
1.80
1.70
1.50
1.27
1.07
0.90
0.74
0.59
0.47
0.44
0.51
0.72
1.02
1.35
1.61
1.70
1.58
1.28
0.90
0.59
0.46
0.52
0.71
0.89
0.94
0.81
0.52
0.21
-0.02
-0.09
-0.01
0.19
0.47
0.78
1.09
1.37
1.55
1.59
1.49
1.28
1.06
0.89
0.83
0.81
0.80
0.75
0.67
0.61
0.59
0.58
0.50
0.32
0.07
-0.14
-0.20
-0.08
0.16
0.35
0.39
0.25
0.09
0.05
0.26
0.65
1.07
1.36
1.43
1.37
1.32
1.40
1.61
1.79
1.77
1.44
0.86
0.23
-0.20
-0.30
-0.11
0.19
0.41
0.42
0.29
0.17
0.21
0.45
0.80
1.12
1.28
1.23
1.03
0.82
0.68
0.66
0.75
0.88
0.99
1.00
0.89
0.66
0.36
0.05
-0.22
-0.41
-0.52
-0.56
-0.57
-0.56
-0.50
-0.42
-0.29
-0.13
0.04
0.23
0.43
0.61
0.76
0.82
0.75
0.55
0.29
0.07
-0.01
0.07
0.27
0.47
0.56
0.50
0.38
0.31
0.42
0.72
1.12
1.47
1.61
1.51
1.21
0.81
0.40
0.07
-0.15
-0.22
-0.17
-0.02
0.14
0.25
0.24
0.12
-0.05
-0.21
-0.29
-0.29
-0.25
-0.20
-0.19
-0.22
-0.28
-0.35
-0.41
-0.50
-0.65
-0.87
-1.15
-1.44
-1.65
-1.70
-1.58
-1.30
-0.94
-0.60
-0.32
-0.12
-0.00
0.06
0.06
0.02
-0.04
-0.06
0.01
0.19
0.45
0.71
0.87
0.89
0.78
0.60
0.46
0.47
0.68
1.05
1.50
1.84
1.94
1.71
1.21
0.59
0.05
-0.27
-0.30
-0.10
0.21
0.55
0.85
1.10
1.31
1.43
1.41
1.18
0.76
0.25
-0.21
-0.47
-0.50
-0.32
-0.05
0.19
0.34
0.38
0.34
0.25
0.14
0.03
-0.05
-0.07
-0.03
0.05
0.14
0.20
0.21
0.18
0.12
0.03
-0.09
-0.21
-0.30
-0.31
-0.26
-0.21
-0.23
-0.37
-0.61
-0.85
-0.95
-0.83
-0.50
-0.04
0.43
0.81
1.03
1.09
1.00
0.82
0.60
0.42
0.33
0.37
0.49
0.64
0.73
0.71
0.56
0.31
0.01
-0.26
-0.43
-0.47
-0.36
-0.16
0.04
0.12
0.04
-0.18
-0.43
-0.58
-0.55
-0.38
-0.13
0.08
0.20
0.25
0.27
0.33
0.42
0.50
0.49
0.34
0.06
-0.26
-0.51
-0.62
-0.58
-0.44
-0.31
-0.26
-0.33
-0.44
-0.50
-0.45
-0.28
-0.04
0.18
0.29
0.29
0.21
0.15
0.17
0.31
0.53
0.75
0.89
0.91
0.81
0.66
0.49
0.35
0.24
0.14
0.06
0.02
0.02
0.05
0.08
0.07
-0.01
-0.14
-0.29
-0.40
-0.45
-0.47
-0.49
-0.55
-0.64
-0.72
-0.76
-0.72
-0.61
-0.48
-0.35
-0.26
-0.18
-0.11
-0.03
0.06
0.14
0.20
0.23
0.22
0.19
0.14
0.10
0.08
0.08
0.12
0.20
0.33
0.50
0.68
0.81
0.88
0.84
0.72
0.55
0.40
0.32
0.31
0.36
0.45
0.55
0.63
0.68
0.69
0.62
0.45
0.19
-0.12
-0.41
-0.58
-0.56
-0.31
0.14
0.66
1.09
1.30
1.25
1.01
0.74
0.58
0.61
0.82
1.11
1.37
1.55
1.63
1.62
1.55
1.43
1.24
1.01
0.79
0.62
0.56
0.59
0.66
0.71
0.66
0.50
0.24
-0.04
-0.30
-0.45
-0.51
-0.48
-0.40
-0.30
-0.17
-0.02
0.13
0.23
0.20
0.02
-0.33
-0.77
-1.21
-1.58
-1.86
-2.05
-2.16
-2.20
-2.17
-2.11
-2.05
-2.06
-2.14
-2.24
-2.30
-2.23
-2.01
-1.65
-1.25
-0.85
-0.52
-0.26
-0.08
0.03
0.11
0.19
0.35
0.63
1.03
1.48
1.84
2.00
1.89
1.54
1.10
0.74
0.57
0.61
0.72
0.75
0.56
0.16
-0.33
-0.70
-0.81
-0.63
-0.30
0.03
0.20
0.19
0.06
-0.07
-0.14
-0.12
-0.05
0.03
0.09
0.13
0.18
0.21
0.19
0.09
-0.12
-0.40
-0.67
-0.83
-0.80
-0.59
-0.24
0.10
0.31
0.33
0.15
-0.12
-0.36
-0.47
-0.44
-0.34
-0.24
-0.20
-0.19
-0.13
0.00
0.20
0.39
0.45
0.34
0.09
-0.17
-0.32
-0.29
-0.13
0.04
0.11
0.03
-0.14
-0.27
-0.26
-0.09
0.17
0.38
0.43
0.28
-0.02
-0.37
-0.70
-0.94
-1.07
-1.07
-0.93
-0.64
-0.22
0.25
0.66
0.92
0.97
0.86
0.65
0.45
0.32
0.28
0.28
0.27
0.23
0.18
0.17
0.23
0.34
0.45
0.49
0.44
0.33
0.24
0.23
0.29
0.35
0.32
0.18
-0.00
-0.11
-0.03
0.24
0.59
0.86
0.93
0.77
0.48
0.16
-0.08
-0.20
-0.17
-0.02
0.23
0.53
0.80
0.98
1.00
0.86
0.60
0.31
0.06
-0.10
-0.18
-0.24
-0.32
-0.46
-0.65
-0.87
-1.07
-1.24
-1.34
-1.34
-1.24
-1.05
-0.82
-0.61
-0.52
-0.59
-0.79
-0.99
-1.12
-1.11
-1.01
-0.91
-0.89
-0.96
-1.06
-1.09
-1.07
-1.05
-1.11
-1.25
-1.40
-1.40
-1.13
-0.60
0.05
0.59
0.85
0.79
0.47
0.01
-0.50
-1.02
-1.53
-2.00
-2.33
-2.43
-2.24
-1.82
-1.32
-0.91
-0.68
-0.62
-0.64
-0.61
-0.51
-0.44
-0.53
-0.92
-1.61
-2.46
-3.26
-3.82
-4.10
-4.24
-4.49
-5.06
-6.04
-7.34
-8.80
-10.26
-11.68
-13.11
-14.72
-16.67
-19.04
-21.84
-24.98
-28.28
-31.54
-34.58
-37.32
-39.85
-42.46
-45.52
-49.34
-53.97
-59.12
-64.23
-68.70
-72.26
-75.12
-77.97
-81.67
-86.86
-93.64
-101.50
-109.47
-116.44
-121.56
-124.51
-125.61
-125.75
-126.22
-128.39
-133.21
-140.68
-149.34
-156.30
-157.83
-150.27
-131.24
-100.37
-59.58
-12.55
36.29
82.93
124.65
160.25
189.69
213.49
232.24
246.46
256.78
264.15
269.77
274.76
279.74
284.62
288.73
291.47
292.87
293.80
295.61
299.44
305.52
312.86
319.38
322.39
319.22
307.92
287.73
259.26
224.16
184.62
142.48
98.63
52.82
4.41
-46.64
-98.61
-147.83
-189.49
-219.28
-235.14
-238.06
-231.56
-220.14
-207.52
-195.56
-184.35
-173.13
-161.47
-149.74
-138.91
-129.78
-122.37
-115.86
-109.07
-101.24
-92.35
-83.16
-74.78
-68.02
-63.02
-59.28
-55.91
-52.06
-47.31
-41.77
-36.00
-30.71
-26.45
-23.46
-21.54
-20.22
-18.91
-17.22
-15.03
-12.58
-10.27
-8.49
-7.42
-6.99
-6.93
-6.92
-6.72
-6.28
-5.63
-4.84
-3.92
-2.86
-1.67
-0.37
0.93
2.11
3.07
3.76
4.20
4.43
4.53
4.56
4.62
4.79
5.12
5.63
6.23
6.82
7.30
7.64
7.85
7.94
7.89
7.65
7.20
6.56
5.83
5.10
4.43
3.76
2.98
2.00
0.87
-0.29
-1.30
-2.05
-2.51
-2.71
-2.71
-2.53
-2.22
-1.89
-1.71
-1.86
-2.37
-3.13
-3.90
-4.46
-4.74
-4.86
-5.00
-5.29
-5.68
-6.00
-6.08
-5.87
-5.48
-5.08
-4.79
-4.67
-4.65
-4.68
-4.71
-4.69
-4.50
-3.94
-2.75
-0.82
1.75
4.57
7.08
8.74
9.26
8.72
7.50
6.09
4.89
4.04
3.48
2.98
2.35
1.55
0.69
-0.05
-0.52
-0.73
-0.78
-0.81
-0.92
-1.09
-1.23
-1.22
-1.03
-0.74
-0.50
-0.46
-0.71
-1.20
-1.76
-2.20
-2.38
-2.27
-1.95
-1.56
-1.20
-0.90
-0.60
-0.20
0.33
0.94
1.49
1.86
1.97
1.85
1.59
1.30
1.07
0.94
0.90
0.92
0.98
1.07
1.11
1.03
0.71
0.10
-0.80
-1.85
-2.86
-3.66
-4.12
-4.26
-4.15
-3.95
-3.76
-3.65
-3.60
-3.56
-3.47
-3.26
-2.85
-2.17
-1.08
0.50
2.55
4.93
7.27
9.09
9.97
9.69
8.40
6.55
4.69
3.26
2.37
1.79
1.17
0.26
-0.87
-1.95
-2.63
-2.77
-2.49
-2.12
-1.97
-2.14
-2.52
-2.83
-2.88
-2.64
-2.23
-1.82
-1.51
-1.27
-0.97
-0.53
0.06
0.69
1.22
1.54
1.59
1.41
1.06
0.62
0.11
-0.47
-1.09
-1.68
-2.12
-2.29
-2.15
-1.79
-1.38
-1.12
-1.12
-1.31
-1.54
-1.63
-1.53
-1.31
-1.16
-1.25
-1.59
-2.09
-2.51
-2.65
-2.42
-1.87
-1.15
-0.44
0.12
0.49
0.66
0.69
0.68
0.81
1.31
2.35
3.94
5.85
7.64
8.83
9.07
8.35
6.94
5.30
3.82
2.69
1.88
1.24
0.61
-0.05
-0.67
-1.15
-1.45
-1.59
-1.61
-1.61
-1.62
-1.63
-1.65
-1.66
-1.70
-1.80
-1.98
-2.19
-2.37
-2.41
-2.31
-2.10
-1.89
-1.73
-1.62
-1.48
-1.24
-0.91
-0.64
-0.58
-0.81
-1.27
-1.74
-1.99
-1.88
-1.45
-0.88
-0.37
-0.09
-0.06
-0.21
-0.37
-0.43
-0.33
-0.07
0.29
0.67
1.03
1.36
1.68
1.96
2.16
2.20
2.04
1.68
1.19
0.67
0.22
-0.10
-0.23
-0.08
0.44
1.38
2.64
3.98
5.01
5.44
5.14
4.26
3.12
2.11
1.45
1.16
1.10
1.03
0.81
0.38
-0.23
-0.93
-1.63
-2.23
-2.67
-2.91
-2.93
-2.76
-2.50
-2.23
-2.05
-1.99
-2.06
-2.23
-2.45
-2.68
-2.89
-3.05
-3.15
-3.16
-3.04
-2.76
-2.35
-1.88
-1.51
-1.33
-1.38
-1.59
-1.82
-1.94
-1.91
-1.77
-1.60
-1.45
-1.27
-0.95
-0.37
0.51
1.59
2.69
3.56
4.01
3.99
3.60
3.06
2.62
2.44
2.49
2.63
2.64
2.37
1.82
1.14
0.53
0.17
0.19
0.62
1.47
2.74
4.33
6.05
7.53
8.35
8.23
7.11
5.26
3.18
1.38
0.19
-0.37
-0.55
-0.68
-0.98
-1.50
-2.11
-2.57
-2.75
-2.61
-2.28
-1.93
-1.76
-1.90
-2.41
-3.24
-4.25
-5.28
-6.17
-6.84
-7.26
-7.47
-7.53
-7.49
-7.40
-7.32
-7.38
-7.66
-8.21
-8.95
-9.70
-10.21
-10.35
-10.08
-9.52
-8.88
-8.38
-8.15
-8.24
-8.56
-8.95
-9.20
-9.17
-8.83
-8.28
-7.76
-7.48
-7.58
-8.04
-8.62
-9.06
-9.13
-8.78
-8.15
-7.56
-7.30
-7.51
-8.12
-8.73
-8.70
-7.21
-3.48
3.15
12.80
24.82
37.78
49.81
59.19
64.95
67.04
65.97
62.27
56.01
46.91
34.88
20.66
6.00
-6.81
-15.80
-20.18
-20.47
-18.06
-14.37
-10.29
-6.11
-1.96
1.78
4.37
5.15
3.96
1.46
-1.26
-3.32
-4.65
-5.98
-8.25
-11.83
-16.12
-19.86
-21.94
-22.20
-21.46
-20.96
-21.25
-21.81
-21.24
-18.29
-12.73
-5.69
1.03
5.84
8.01
7.91
6.40
4.30
2.12
0.41
0.28
3.20
10.17
20.64
31.99
40.24
41.87
35.57
23.11
8.52
-3.87
-11.35
-13.80
-13.08
-11.61
-10.85
-10.85
-10.81
-10.09
-8.88
-8.02
-8.22
-9.29
-10.27
-9.83
-7.21
-2.86
1.77
4.97
5.69
3.96
0.84
-2.32
-4.54
-5.58
-5.87
-6.09
-6.76
-7.97
-9.45
-10.81
-11.70
-11.99
-11.70
-11.05
-10.18
-9.16
-7.95
-6.47
-4.70
-2.78
-0.94
0.51
1.32
1.34
0.56
-0.85
-2.60
-4.32
-5.75
-6.87
-8.03
-9.70
-12.30
-15.89
-20.19
-24.72
-29.10
-33.16
-36.97
-40.59
-44.00
-47.08
-49.73
-52.08
-54.52
-57.63
-61.97
-67.89
-75.44
-84.30
-93.92
-103.61
-112.83
-121.25
-128.93
-136.23
-143.49
-150.75
-157.78
-164.32
-170.43
-176.48
-182.66
-188.17
-190.91
-187.76
-175.69
-153.14
-120.63
-80.43
-35.24
12.86
62.72
113.34
162.79
207.70
244.01
268.55
280.55
281.99
276.67
268.61
260.58
253.70
247.85
242.62
238.00
234.33
231.98
230.80
230.15
229.15
227.30
224.73
222.15
220.63
221.11
224.09
229.44
236.25
242.68
246.12
243.67
232.89
212.58
183.14
146.29
104.16
58.32
9.51
-41.75
-93.99
-143.99
-186.98
-218.16
-234.69
-236.98
-228.60
-214.68
-199.84
-186.68
-175.56
-165.41
-155.10
-144.38
-133.87
-124.52
-116.80
-110.35
-104.22
-97.45
-89.58
-80.91
-72.32
-64.80
-58.90
-54.50
-50.92
-47.28
-42.95
-37.85
-32.38
-27.17
-22.76
-19.32
-16.72
-14.63
-12.71
-10.76
-8.79
-6.94
-5.39
-4.26
-3.55
-3.14
-2.81
-2.37
-1.70
-0.81
0.17
1.06
1.72
2.04
2.03
1.76
1.36
0.94
0.63
0.44
0.36
0.31
0.24
0.16
0.14
0.27
0.56
0.92
1.16
1.13
0.72
0.05
-0.68
-1.19
-1.28
-0.95
-0.34
0.23
0.44
0.10
-0.72
-1.70
-2.42
-2.50
-1.86
-0.78
0.17
0.40
-0.41
-2.16
-4.29
-6.07
-6.92
-6.74
-5.90
-5.16
-5.27
-6.65
-9.21
-12.30
-14.79
-15.24
-12.04
-3.81
9.87
27.80
46.99
63.22
72.46
72.40
63.41
48.25
30.88
14.79
1.91
-7.54
-14.30
-19.13
-22.26
-23.54
-22.93
-20.90
-18.41
-16.52
-15.90
-16.58
-17.99
-19.33
-19.90
-19.36
-17.83
-15.76
-13.73
-12.20
-11.41
-11.29
-11.61
-12.05
-12.39
-12.50
-12.23
-11.25
-8.96
-4.72
1.80
10.16
19.03
26.48
30.68
30.65
26.64
19.94
12.28
5.13
-0.68
-4.97
-7.79
-9.19
-9.15
-7.77
-5.50
-3.13
-1.60
-1.56
-3.11
-5.78
-8.73
-11.15
-12.56
-12.95
-12.68
-12.28
-12.15
-12.44
-13.04
-13.74
-14.32
-14.60
-14.37
-13.30
-10.92
-6.83
-0.90
6.47
14.41
21.73
27.27
30.29
30.60
28.52
24.75
20.05
15.12
10.46
6.45
3.29
1.08
-0.22
-0.79
-0.94
-1.01
-1.27
-1.83
-2.61
-3.38
-3.87
-3.90
-3.44
-2.60
-1.66
-0.90
-0.61
-0.95
-1.91
-3.25
-4.60
-5.52
-5.74
-5.28
-4.39
-3.51
-3.05
-3.18
-3.80
-4.63
-5.35
-5.76
-5.77
-5.42
-4.79
-3.93
-2.88
-1.69
-0.41
0.86
2.02
3.00
3.78
4.33
4.63
4.63
4.30
3.62
2.64
1.53
0.52
-0.06
0.08
1.11
2.95
5.29
7.64
9.54
10.66
10.95
10.51
9.55
8.24
6.64
4.83
2.93
1.13
-0.26
-1.04
-1.10
-0.61
0.14
0.73
0.83
0.33
-0.71
-2.01
-3.27
-4.22
-4.75
-4.91
-4.80
-4.55
-4.27
-4.06
-4.01
-4.18
-4.62
-5.29
-6.06
-6.77
