1660323167.00
64.000000
-0.00
-0.00
-0.00
-0.00
-0.00
-0.00
-0.00
-0.00
-0.00
-0.00
0.00
0.01
0.01
-0.00
-0.03
-0.05
-0.05
0.00
0.13
0.36
0.66
1.01
1.37
1.72
2.06
2.40
2.79
3.24
3.80
4.42
5.06
5.66
6.20
6.68
7.15
7.68
8.31
9.14
10.09
11.04
11.88
12.56
13.14
13.76
14.65
15.96
17.91
20.32
22.90
25.38
27.58
29.57
31.68
34.32
37.81
42.54
48.15
54.11
59.83
64.98
69.59
74.15
79.35
85.70
93.75
102.99
112.64
121.79
129.85
136.84
143.31
150.59
157.37
165.95
176.97
190.60
205.64
219.17
226.80
223.84
206.87
175.03
130.76
77.98
21.05
-36.80
-94.08
-150.67
-206.81
-262.29
-316.23
-367.01
-413.52
-454.87
-490.46
-519.53
-540.99
-553.38
-555.11
-545.00
-522.50
-488.36
-444.33
-392.99
-337.30
-280.10
-223.72
-169.71
-118.92
-71.53
-27.70
12.38
48.15
78.74
103.24
121.14
132.66
138.84
141.37
141.84
141.56
140.86
139.35
136.23
130.75
122.48
111.24
97.22
81.19
65.16
52.55
47.94
55.36
76.61
109.90
149.88
189.49
222.56
246.02
259.90
265.61
263.64
252.75
230.84
197.08
153.82
105.46
57.72
15.75
-16.98
-38.93
-50.21
-51.75
-45.41
-33.85
-20.38
-8.07
0.87
5.37
5.26
0.79
-7.44
-18.19
-28.95
-36.70
-38.89
-35.04
-27.17
-18.85
-13.32
-11.79
-13.06
-14.40
-13.46
-9.44
-3.65
1.51
3.91
2.88
-0.48
-3.99
-5.60
-4.43
-1.04
2.84
5.41
5.63
3.80
1.40
0.29
1.64
5.20
9.56
12.98
14.45
14.13
13.03
12.10
11.50
10.51
8.11
3.87
-1.66
-7.16
-11.15
-12.86
-12.41
-10.68
-8.66
-6.96
-5.60
-4.25
-2.56
-0.50
1.59
3.22
4.00
3.95
3.47
3.19
3.62
4.83
6.57
8.45
10.13
11.53
12.81
14.14
15.52
16.89
18.08
18.91
19.15
18.56
17.06
14.81
12.05
8.88
5.04
-0.10
-7.05
-15.64
-24.77
-32.62
-37.37
-37.92
-34.22
-27.37
-19.12
-11.39
-5.67
-2.58
-1.65
-1.55
-0.64
2.14
6.38
10.19
10.95
6.77
-2.46
-14.65
-26.72
-35.92
-41.03
-42.45
-41.46
-39.17
-36.02
-31.86
-26.51
-20.43
-14.58
-10.01
-7.51
-7.16
-8.45
-10.45
-12.28
-13.52
-14.31
-15.04
-15.70
-15.60
-13.48
-8.12
0.93
12.67
24.70
33.99
38.05
35.82
27.95
16.62
4.73
-5.07
-11.21
-13.69
-13.96
-14.28
-16.79
-22.39
-30.48
-39.56
-47.87
-54.56
-60.22
-66.02
-72.34
-77.80
-79.71
-75.63
-65.22
-50.95
-37.11
-27.70
-24.42
-26.19
-30.08
-33.20
-34.20
-33.75
-33.75
-36.01
-41.14
-48.30
-55.87
-62.32
-66.67
-68.35
-66.70
-60.80
-50.01
-34.62
-16.30
2.13
17.89
29.60
38.02
45.55
54.79
66.87
80.60
92.98
100.74
102.03
97.27
88.99
80.51
74.44
71.51
70.45
68.85
64.54
56.87
47.05
37.50
30.45
26.90
26.37
27.39
28.49
28.82
28.29
27.15
25.56
23.53
21.08
18.41
15.83
13.68
12.08
10.97
10.22
9.73
9.48
9.53
9.91
10.56
11.39
12.42
13.83
15.78
18.22
20.74
22.64
23.23
22.31
20.43
18.72
18.32
19.72
22.26
24.36
24.24
21.01
15.28
9.02
4.55
3.31
5.10
8.33
10.96
11.71
10.74
9.33
9.03
10.59
13.55
16.56
18.23
17.87
15.72
12.67
9.55
6.73
4.06
1.35
-1.38
-3.88
-6.00
-8.00
-10.35
-13.26
-16.20
-18.02
-17.53
-14.29
-9.11
-3.63
0.58
3.03
4.51
6.55
10.21
15.29
20.35
23.52
23.62
20.72
15.91
10.57
5.77
1.96
-0.82
-2.78
-4.15
-5.17
-6.11
-7.28
-8.80
-10.56
-12.24
-13.43
-13.89
-13.60
-12.78
-11.69
-10.57
-9.61
-8.84
-8.20
-7.52
-6.64
-5.64
-4.89
-4.93
-6.18
-8.57
-11.40
-13.54
-13.95
-12.28
-9.06
-5.48
-2.74
-1.43
-1.24
-1.12
0.06
2.78
6.66
10.67
13.87
15.89
17.00
17.67
17.97
17.54
15.83
12.67
8.56
4.40
0.91
-1.72
-3.87
-6.01
-8.26
-10.29
-11.58
-11.86
-11.28
-10.23
-9.08
-8.08
-7.45
-7.46
-8.24
-9.60
-10.90
-11.42
-10.95
-10.13
-10.23
-12.40
-16.92
-23.03
-29.47
-35.19
-39.70
-42.69
-43.51
-40.94
-33.86
-22.23
-7.67
6.91
18.59
25.75
28.61
28.71
27.88
27.24
27.08
27.21
27.40
27.48
27.15
25.84
22.86
17.90
11.44
4.67
-1.00
-4.60
-6.09
-6.22
-6.07
-6.33
-7.04
-7.78
-8.11
-7.96
-7.71
-7.74
-8.11
-8.37
-7.88
-6.25
-3.80
-1.42
-0.10
-0.26
-1.53
-3.01
-3.86
-3.77
-3.09
-2.52
-2.74
-4.01
-6.09
-8.39
-10.19
-10.94
-10.30
-8.21
-4.85
-0.56
4.37
9.76
15.51
21.45
27.16
31.97
35.14
36.07
34.63
31.11
26.17
20.53
14.75
9.11
3.51
-2.25
-8.16
-13.77
-18.18
-20.44
-19.94
-16.79
-11.79
-6.17
-1.01
3.22
6.79
10.46
14.93
20.30
25.90
30.48
32.84
32.44
29.68
25.78
22.25
20.13
19.34
18.62
16.09
10.31
1.30
-9.20
-18.38
-23.43
-22.87
-17.15
-8.23
1.63
10.98
19.63
28.05
36.36
43.89
49.72
53.73
57.29
62.48
70.51
80.31
88.57
91.34
86.32
74.19
58.21
42.36
29.11
18.53
8.74
-2.43
-15.88
-30.82
-45.32
-57.32
-65.52
-69.78
-70.84
-69.89
-68.21
-66.69
-65.54
-64.31
-62.26
-58.80
-54.14
-49.26
-45.50
-43.90
-44.51
-46.36
-47.89
-47.79
-45.50
-41.29
-35.83
-29.54
-22.30
-13.61
-3.24
8.28
19.71
29.56
36.69
40.60
41.25
38.72
33.09
24.77
14.79
4.74
-3.81
-10.03
-14.08
-16.88
-19.27
-21.39
-22.64
-22.24
-19.90
-16.20
-12.27
-8.99
-6.44
-3.92
-0.61
3.69
8.19
11.41
11.96
9.40
4.47
-1.13
-5.43
-7.14
-6.25
-4.05
-2.31
-2.26
-3.81
-5.64
-5.93
-3.45
1.83
8.76
15.77
21.77
26.65
31.18
36.41
42.90
50.27
57.19
62.07
63.66
61.71
57.12
51.78
47.97
47.48
50.81
56.88
63.31
67.57
68.03
64.90
60.15
56.61
56.87
62.40
73.47
89.46
108.95
129.65
148.17
160.26
161.84
150.69
127.91
98.14
67.89
42.60
23.98
9.18
-7.37
-30.69
-62.25
-99.25
-136.52
-169.12
-194.48
-212.58
-224.35
-229.95
-228.17
-217.46
-197.86
-171.82
-143.15
-115.07
-88.67
-63.25
-38.16
-14.47
4.88
16.63
19.46
15.15
7.54
0.38
-5.08
-10.74
-20.51
-38.19
-64.95
-98.08
-131.12
-155.53
-163.34
-149.99
-116.92
-71.52
-25.16
11.14
30.32
31.45
18.51
-2.57
-26.91
-52.10
-77.26
-101.15
-120.87
-132.47
-133.03
-122.75
-105.32
-86.29
-70.51
-59.62
-51.92
-43.84
-32.58
-17.77
-1.43
13.73
26.48
37.81
50.04
64.70
81.05
96.50
108.00
114.16
115.84
115.30
114.16
112.60
109.56
104.19
96.90
88.99
80.64
69.37
50.58
20.44
-20.31
-64.98
-102.79
-124.05
-124.94
-109.25
-85.57
-62.02
-42.26
-24.83
-6.15
15.30
36.85
53.01
59.39
56.04
48.17
43.52
48.05
62.51
81.88
97.53
101.17
88.67
61.93
27.86
-5.06
-30.58
-47.36
-58.70
-69.73
-83.88
-100.52
-115.86
-125.75
-129.01
-128.10
-127.49
-130.29
-135.75
-139.55
-136.55
-124.11
-103.39
-78.23
-52.60
-28.87
-7.87
9.69
21.94
25.77
18.28
-1.19
-30.03
-63.10
-94.70
-120.50
-138.06
-146.16
-143.83
-130.25
-105.88
-73.84
-39.97
-11.06
8.28
18.20
23.81
32.89
52.27
84.76
128.52
178.54
229.11
275.56
314.29
341.68
353.54
345.44
314.19
259.43
184.76
97.70
8.90
-69.37
-125.34
-150.35
-141.76
-104.44
-49.97
7.06
54.35
86.34
105.26
118.44
133.46
153.71
176.78
196.27
205.23
199.30
177.61
141.79
94.70
40.18
-16.51
-68.38
-108.10
-130.91
-136.85
-130.64
-118.87
-106.57
-94.77
-81.15
-62.63
-37.74
-7.54
25.33
58.12
88.50
113.82
130.26
133.28
119.45
88.71
45.06
-4.76
-53.86
-97.04
-131.15
-154.52
-166.75
-169.43
-167.02
-166.38
-174.15
-193.20
-220.18
-246.06
-259.71
-252.88
-223.44
-175.07
-114.19
-46.09
26.60
102.04
175.72
238.81
280.07
291.71
274.45
238.73
200.16
171.54
156.21
147.31
133.30
106.06
66.14
22.16
-14.68
-36.77
-42.72
-35.62
-19.50
3.12
30.19
57.39
76.57
77.93
55.13
10.06
-46.35
-98.24
-132.37
-144.11
-138.90
-128.00
-121.33
-121.48
-122.59
-113.98
-86.86
-39.81
19.88
79.49
126.14
151.61
153.81
134.86
98.27
47.80
-11.50
-72.10
-123.99
-157.42
-166.49
-151.58
-118.91
-77.65
-35.84
2.46
37.28
70.44
102.32
131.15
153.95
168.79
176.03
178.10
177.96
177.41
176.24
171.55
161.19
146.18
130.60
119.19
114.19
113.86
113.54
108.63
94.75
73.08
50.61
36.32
35.19
44.73
56.57
60.81
50.70
20.39
-29.38
-91.31
-155.07
-212.80
-262.00
-304.22
-342.46
-379.57
-424.06
-482.79
-557.11
-641.96
-728.79
-808.23
-870.80
-908.42
-878.30
-762.12
-579.05
-376.80
-199.49
-67.07
21.83
79.13
116.76
143.16
157.13
155.97
141.97
123.14
108.13
101.85
107.43
125.47
150.66
173.78
188.10
193.21
194.29
197.41
205.60
221.93
246.60
277.07
306.73
330.15
346.65
359.87
374.21
391.90
417.20
451.85
494.47
540.13
583.92
624.02
661.50
698.25
705.51
665.32
577.27
459.32
333.89
214.65
105.13
3.92
-89.99
-174.72
-241.97
-285.21
-304.04
-304.39
-294.92
-281.77
-267.01
-250.83
-231.07
-203.87
-169.26
-132.43
-100.96
-80.88
-73.15
-75.34
-83.61
-94.54
-103.89
-109.01
-109.95
-107.54
-102.39
-93.91
-81.83
-69.42
-62.05
-63.40
-74.76
-95.75
-123.25
-152.34
-176.47
-192.48
-200.51
-203.09
-202.94
-193.74
-173.36
-143.87
-119.38
-100.81
-86.44
-71.31
-54.71
-37.63
-21.74
-9.66
-2.48
0.56
2.73
5.46
8.79
11.84
14.25
16.32
17.65
18.18
18.09
18.80
20.16
21.55
22.26
22.35
22.33
22.09
21.48
20.43
19.66
19.14
18.62
17.77
16.61
15.32
13.83
12.15
10.50
9.59
9.59
10.36
11.40
12.20
12.39
11.68
10.12
7.99
5.88
4.15
3.00
2.49
2.59
3.20
4.15
5.17
5.90
6.07
5.66
5.00
4.81
5.85
8.60
12.88
17.73
21.71
23.42
22.14
18.19
12.94
8.38
6.38
8.06
13.32
20.97
29.20
36.34
41.55
45.15
48.28
52.25
57.67
63.99
69.68
72.96
72.71
69.12
63.67
58.67
56.29
57.82
63.13
70.70
78.05
82.42
81.38
73.33
58.04
37.12
14.47
-4.18
-12.70
-6.91
13.11
42.12
71.13
90.75
94.96
83.23
60.03
32.39
7.14
-10.83
-18.69
-15.20
-0.56
23.05
51.12
77.38
95.89
103.46
101.19
93.77
86.98
84.70
86.75
89.25
86.24
72.11
43.24
-1.33
-59.44
-125.55
-190.69
-243.66
-273.93
-275.64
-251.18
-212.11
-175.99
-159.98
-173.87
-215.90
-273.66
-329.38
-366.92
-377.15
-359.33
-318.70
-262.33
-196.25
-124.96
-52.74
15.31
73.69
118.77
150.69
174.02
196.18
223.72
258.40
295.42
324.78
334.99
318.09
273.35
209.12
141.53
89.62
68.01
80.58
118.43
163.15
194.14
195.62
161.62
97.58
17.21
-62.74
-127.11
-165.07
-171.63
-147.66
-101.18
-46.26
1.31
28.67
29.13
3.15
-43.17
-101.85
-157.42
-192.90
-199.44
-180.68
-147.43
-109.94
-74.76
-45.84
-26.72
-18.11
-18.20
-26.07
-36.53
-44.79
-48.75
-49.06
-49.11
-55.25
-72.33
-101.56
-140.70
-184.35
-219.05
-233.93
-222.65
-176.37
-102.55
-21.10
47.19
91.21
112.57
120.25
122.97
125.72
129.40
134.22
139.52
147.50
159.51
173.75
185.22
188.09
180.31
166.16
154.20
151.34
163.70
189.08
216.60
231.66
221.90
182.63
117.48
35.58
-51.18
-129.89
-189.10
-219.37
-214.66
-176.25
-113.70
-43.79
14.70
47.37
49.11
23.60
-19.50
-66.95
-104.65
-123.26
-124.28
-115.92
-105.25
-94.31
-82.39
-68.63
-53.87
-44.60
-43.79
-52.93
-70.56
-93.27
-117.75
-142.25
-166.26
-179.70
-176.83
-154.88
-116.01
-66.06
-12.92
35.52
73.60
99.17
113.33
117.64
114.55
106.22
95.62
86.35
81.89
85.92
98.91
118.49
138.49
151.62
151.20
134.83
106.53
76.26
56.68
57.69
80.78
117.10
151.67
169.20
160.32
124.48
68.57
1.57
-63.34
-114.33
-142.84
-143.68
-115.21
-59.70
16.18
101.77
183.49
247.62
281.99
281.11
248.12
193.34
129.85
68.89
16.53
-26.97
-64.76
-102.93
-145.00
-191.35
-240.63
-291.37
-341.29
-386.29
-420.83
-439.53
-442.96
-434.83
-420.28
-403.49
-386.17
-366.35
-339.99
-304.11
-243.29
-158.45
-64.55
20.10
85.81
132.47
164.00
185.60
199.18
206.89
210.46
215.40
229.32
259.18
303.15
355.28
405.30
439.11
444.97
416.54
359.40
290.16
230.09
195.79
192.94
214.05
239.90
251.45
236.86
197.14
142.65
85.46
32.77
-14.35
-58.89
-107.40
-161.88
-219.44
-273.44
-318.35
-353.26
-381.74
-408.66
-417.96
-398.29
-348.05
-278.52
-203.79
-133.58
-73.16
-25.60
7.90
28.42
32.71
24.51
9.17
-7.28
-21.33
-33.28
-46.05
-63.06
-78.23
-92.20
-105.95
-119.53
-129.46
-130.37
-117.16
-87.45
-42.97
10.40
61.77
102.32
127.61
139.29
141.88
140.12
136.89
133.45
130.31
126.70
124.66
126.24
134.00
148.08
165.49
180.41
186.13
177.49
152.30
113.73
67.60
25.41
-4.34
-19.06
-22.00
-18.78
-14.40
-11.32
-8.95
-5.79
-0.73
5.07
9.31
9.05
4.36
-3.39
-12.14
-19.80
-25.66
-29.76
-33.50
-36.46
-40.20
-44.80
-49.46
-52.94
-54.08
-52.92
-49.79
-45.79
-41.99
-39.35
-37.75
-36.77
-35.80
-34.08
-31.77
-28.82
-25.44
-21.89
-18.66
-15.84
-13.65
-13.34
-12.95
-13.06
-13.45
-13.67
-13.25
-12.11
-10.34
-8.39
-7.69
-7.61
-8.10
-8.44
-7.80
-5.68
-2.61
0.57
2.42
1.73
-1.72
-8.17
-16.88
-26.77
-36.29
-43.29
-45.20
-40.01
-27.55
-9.85
8.41
22.56
29.68
29.86
25.81
21.17
18.45
17.63
17.32
15.36
11.42
6.92
4.18
5.05
9.76
17.00
24.37
32.07
38.70
44.18
49.19
54.43
59.97
64.49
65.90
61.19
49.13
29.74
5.00
-22.20
-49.35
-74.78
-98.75
-118.90
-136.40
-152.54
-168.51
-184.85
-201.58
-217.71
-230.18
-234.74
-226.63
-203.36
-165.87
-119.46
-71.84
-30.33
0.57
22.62
39.11
53.83
68.90
85.03
101.85
118.96
136.42
151.83
165.31
176.02
182.70
183.82
178.71
168.38
155.61
144.32
137.73
137.00
138.70
136.17
121.79
90.68
43.23
-14.89
-74.88
-127.59
-166.06
-187.89
-193.11
-184.03
-164.76
-140.76
-117.99
-101.61
-94.12
-94.87
-100.91
-107.87
-112.33
-112.97
-110.14
-105.18
-99.53
-93.79
-88.75
-85.51
-84.82
-87.22
-92.96
-101.66
-112.54
-124.74
-136.75
-147.93
-158.15
-166.74
-173.25
-177.32
-178.18
-174.04
-168.04
-160.36
-151.10
-140.22
-125.75
-106.83
-84.25
-60.10
-36.45
-14.55
6.05
25.32
43.59
65.10
91.87
122.24
151.85
176.54
194.52
207.06
215.65
223.11
238.68
267.66
308.94
356.27
402.83
444.86
482.36
515.49
546.58
586.15
639.44
703.41
768.32
823.67
863.21
885.73
891.06
825.20
668.40
442.50
198.30
-19.75
-192.17
-318.57
-396.71
-443.21
-467.67
-466.12
-436.76
-383.62
-315.68
-247.08
-193.03
-161.51
-155.36
-168.52
-184.84
-192.64
-188.49
-177.29
-167.01
-162.91
-166.37
-177.07
-191.23
-197.11
-191.32
-174.33
-150.01
-123.46
-99.18
-81.85
-77.64
-90.49
-118.78
-157.03
-195.55
-223.90
-234.07
-219.88
-181.76
-127.58
-68.59
-14.86
26.55
53.42
66.81
69.39
64.42
54.73
42.74
30.94
21.47
15.45
13.21
13.83
15.26
15.26
11.92
4.66
-5.29
-15.43
-23.17
-26.64
-25.65
-21.61
-16.76
-13.36
-12.60
-14.23
-16.89
-19.00
-19.43
-18.01
-15.43
-12.77
-11.08
-10.91
-12.21
-14.36
-16.53
-17.95
-18.17
-17.22
-15.49
-13.68
-12.42
-12.08
-12.58
-13.52
-14.39
-14.81
-14.69
-14.17
-13.51
-12.89
-12.35
-11.79
-11.06
-10.03
-8.69
-7.11
-5.44
-3.80
-2.29
-0.96
0.16
1.03
1.60
1.83
1.74
1.43
1.05
0.82
0.88
1.29
1.97
2.75
3.43
3.88
4.07
4.08
4.06
4.16
4.48
5.04
5.83
6.77
7.78
8.77
9.68
10.42
10.97
11.37
11.67
11.94
12.16
12.28
12.20
11.96
11.68
11.57
11.86
12.69
14.02
15.75
17.69
19.65
21.50
23.15
24.54
25.68
26.71
27.82
29.22
31.04
33.19
35.42
37.39
38.90
40.00
40.99
42.36
44.57
47.86
52.15
57.04
62.00
66.58
70.57
74.04
77.43
81.37
86.48
93.00
100.50
107.84
113.40
115.55
113.26
106.64
97.18
87.27
79.48
75.75
76.55
80.56
84.27
82.31
68.70
38.97
-7.77
-67.45
-131.36
-188.73
-230.56
-253.28
-259.47
-255.32
-246.68
-236.12
-223.01
-205.11
-180.58
-149.11
-111.91
-70.52
-26.08
19.74
62.74
94.50
105.57
90.37
51.68
0.61
-47.07
-76.51
-79.08
-54.55
-10.49
38.88
78.37
101.12
110.66
114.61
117.65
119.14
119.06
112.70
98.20
77.95
57.06
40.30
29.84
25.00
22.71
21.02
18.33
14.64
10.91
7.89
4.62
-1.76
-14.44
-34.69
-60.22
-86.29
-106.46
-115.31
-110.77
-95.31
-74.96
-56.59
-45.04
-41.49
-44.38
-50.37
-56.34
-60.50
-62.63
-63.29
-62.81
-60.65
-55.63
-46.89
-34.41
-19.46
-4.42
7.93
15.27
16.74
13.32
7.65
2.94
2.08
6.61
16.23
29.08
42.31
52.95
58.74
58.69
53.38
44.80
35.80
29.13
26.45
27.61
30.77
33.33
33.42
31.07
28.56
29.69
38.08
55.50
80.77
109.79
136.40
153.93
157.08
143.60
115.40
78.56
41.83
14.10
1.57
5.73
22.99
46.08
66.70
77.89
75.50
58.34
27.05
-16.99
-72.36
-137.07
-207.27
-276.23
-334.73
-373.30
-385.47
-370.37
-332.93
-281.74
-225.58
-170.90
-121.07
-77.42
-40.63
-11.36
10.16
24.90
35.18
43.87
53.11
63.40
73.47
80.48
80.35
68.07
39.12
-8.32
-70.86
-138.95
-198.76
-236.52
-243.33
-217.80
-165.58
-96.58
-21.97
47.74
103.58
138.86
150.56
140.96
117.99
93.23
77.76
77.85
92.64
115.25
