1660332945.00
64.000000
-0.00
-0.00
-0.00
-0.00
-0.00
-0.00
-0.00
-0.00
-0.00
-0.00
0.00
0.01
0.01
-0.00
-0.03
-0.05
-0.05
0.00
0.13
0.36
0.66
1.01
1.37
1.72
2.06
2.40
2.79
3.24
3.80
4.42
5.06
5.67
6.20
6.68
7.14
7.67
8.31
9.17
10.14
11.10
11.91
12.49
12.89
13.30
13.96
15.07
16.88
19.19
21.72
24.13
26.22
28.05
29.94
32.39
35.74
40.40
46.01
51.98
57.65
62.58
66.82
70.89
75.61
81.61
89.50
98.73
108.34
117.24
124.66
130.58
135.75
141.78
147.68
155.89
166.96
180.66
195.33
207.67
213.23
207.60
187.95
153.99
108.48
55.19
-2.06
-60.79
-120.11
-179.97
-240.14
-299.59
-356.61
-409.15
-456.25
-497.62
-533.42
-563.61
-587.63
-604.36
-612.10
-608.73
-591.53
-558.06
-506.71
-437.85
-354.55
-262.42
-168.34
-78.75
1.83
71.40
129.70
177.33
214.87
242.65
261.19
271.57
275.59
275.27
272.33
267.57
261.01
252.18
240.69
226.71
210.98
194.67
178.88
164.36
151.24
139.23
127.86
116.78
105.93
95.53
85.88
77.20
69.46
62.40
55.62
48.77
41.68
34.38
27.12
20.26
14.10
8.96
4.89
1.84
-0.31
-1.77
-2.81
-3.69
-4.66
-5.82
-7.08
-8.26
-9.12
-9.51
-9.45
-9.09
-8.63
-8.24
-8.02
-7.96
-8.02
-8.13
-8.15
-7.90
-7.20
-5.98
-4.30
-2.42
-0.74
0.39
0.73
0.28
-0.80
-2.23
-3.73
-5.08
-6.14
-6.86
-7.21
-7.17
-6.69
-5.83
-4.70
-3.52
-2.58
-2.07
-2.03
-2.32
-2.68
-2.86
-2.75
-2.38
-1.95
-1.64
-1.55
-1.67
-1.91
-2.10
-2.10
-1.74
-0.93
0.36
1.99
3.64
4.96
5.60
5.44
4.56
3.22
1.72
0.33
-0.83
-1.68
-2.18
-2.26
-1.89
-1.12
-0.08
0.99
1.84
2.34
2.47
2.39
2.29
2.35
2.61
3.04
3.45
3.66
3.49
2.87
1.88
0.73
-0.25
-0.81
-0.75
-0.11
0.87
1.78
2.23
1.95
0.95
-0.56
-2.27
-3.89
-5.25
-6.35
-7.22
-7.84
-8.14
-8.00
-7.38
-6.36
-5.16
-4.06
-3.29
-2.88
-2.75
-2.68
-2.50
-2.15
-1.69
-1.27
-1.06
-1.14
-1.53
-2.15
-2.86
-3.44
-3.62
-3.17
-1.94
-0.00
2.33
4.60
6.33
7.22
7.21
6.45
5.17
3.54
1.64
-0.49
-2.77
-4.96
-6.73
-7.75
-7.83
-7.04
-5.69
-4.19
-2.97
-2.29
-2.18
-2.49
-2.98
-3.43
-3.74
-3.92
-4.02
-4.13
-4.32
-4.63
-5.06
-5.55
-5.93
-5.87
-5.00
-3.04
0.06
3.99
8.16
11.90
14.67
16.18
16.42
15.55
13.81
11.46
8.78
6.08
3.69
1.89
0.84
0.52
0.73
1.18
1.58
1.69
1.44
0.85
0.04
-0.84
-1.68
-2.44
-3.21
-4.13
-5.36
-6.94
-8.77
-10.52
-11.67
-11.71
-10.29
-7.37
-3.27
1.38
5.87
9.62
12.27
13.73
14.07
13.43
11.99
9.89
7.33
4.61
2.04
-0.05
-1.48
-2.25
-2.54
-2.62
-2.75
-3.04
-3.45
-3.85
-4.08
-4.11
-4.04
-4.06
-4.39
-5.20
-6.53
-8.26
-10.10
-11.62
-12.33
-11.82
-9.88
-6.66
-2.57
1.78
5.77
8.93
11.03
12.02
11.98
11.02
9.28
6.96
4.31
1.66
-0.64
-2.30
-3.19
-3.38
-3.13
-2.82
-2.75
-3.04
-3.54
-3.98
-4.10
-3.81
-3.30
-2.89
-2.92
-3.58
-4.85
-6.51
-8.18
-9.41
-9.77
-8.92
-6.70
-3.29
0.86
5.10
8.77
11.40
12.74
12.80
11.74
9.71
6.91
3.61
0.23
-2.71
-4.66
-5.24
-4.36
-2.31
0.32
2.77
4.33
4.53
3.18
0.45
-3.21
-7.23
-11.05
-14.29
-16.82
-18.72
-20.18
-21.33
-22.04
-22.02
-20.84
-18.12
-13.80
-8.15
-1.74
4.70
10.52
15.30
18.85
21.22
22.52
22.94
22.65
21.89
20.91
19.96
19.21
18.65
18.07
17.17
15.65
13.38
10.40
6.97
3.47
0.24
-2.45
-4.49
-5.92
-6.90
-7.59
-8.13
-8.49
-8.56
-8.13
-7.04
-5.25
-2.94
-0.42
1.89
3.62
4.53
4.57
3.83
2.55
0.97
-0.69
-2.31
-3.82
-5.19
-6.37
-7.20
-7.46
-6.91
-5.45
-3.15
-0.34
2.52
4.94
6.55
7.24
7.09
6.38
5.36
4.23
3.03
1.71
0.22
-1.39
-2.88
-3.91
-4.11
-3.24
-1.36
1.20
3.94
6.33
8.01
8.87
8.97
8.43
7.37
5.81
3.81
1.46
-1.03
-3.35
-5.21
-6.41
-6.92
-6.84
-6.41
-5.91
-5.58
-5.53
-5.69
-5.85
-5.69
-4.97
-3.64
-1.90
-0.11
1.25
1.85
1.54
0.38
-1.31
-3.09
-4.41
-4.74
-3.64
-0.97
3.08
7.92
12.68
16.50
18.69
18.96
17.40
14.36
10.31
5.69
0.88
-3.76
-7.84
-11.01
-13.06
-14.05
-14.31
-14.32
-14.52
-15.13
-16.05
-16.94
-17.42
-17.25
-16.41
-15.11
-13.63
-12.29
-11.28
-10.63
-10.26
-9.92
-9.30
-8.02
-5.84
-2.71
1.16
5.36
9.37
12.73
15.14
16.48
16.79
16.16
14.72
12.63
10.09
7.36
4.74
2.51
0.83
-0.29
-0.99
-1.49
-2.01
-2.64
-3.35
-3.99
-4.39
-4.41
-4.09
-3.58
-3.13
-3.01
-3.42
-4.40
-5.83
-7.41
-8.74
-9.33
-8.80
-6.91
-3.71
0.46
5.05
9.39
12.92
15.23
16.19
15.86
14.46
12.27
9.60
6.72
3.90
1.43
-0.47
-1.63
-2.03
-1.81
-1.26
-0.71
-0.41
-0.46
-0.79
-1.26
-1.76
-2.28
-2.91
-3.81
-5.10
-6.80
-8.79
-10.85
-12.61
-13.61
-13.36
-11.52
-8.07
-3.37
1.84
6.69
10.47
12.78
13.63
13.31
12.17
10.51
8.52
6.31
4.07
2.02
0.45
-0.43
-0.62
-0.29
0.22
0.59
0.63
0.36
-0.01
-0.22
-0.13
0.17
0.42
0.29
-0.49
-1.95
-3.89
-5.91
-7.54
-8.35
-8.01
-6.43
-3.72
-0.20
3.66
7.37
10.54
12.94
14.47
15.14
14.96
13.93
12.13
9.70
6.90
4.11
1.69
-0.06
-0.96
-1.01
-0.37
0.67
1.69
2.31
2.24
1.44
0.07
-1.57
-3.20
-4.71
-6.19
-7.82
-9.72
-11.83
-13.84
-15.26
-15.62
-14.56
-12.00
-8.11
-3.24
2.10
7.39
12.13
15.87
18.31
19.26
18.71
16.80
13.89
10.44
6.98
3.99
1.79
0.46
-0.13
-0.27
-0.27
-0.36
-0.56
-0.78
-0.79
-0.43
0.39
1.58
2.95
4.15
4.85
4.72
3.62
1.67
-0.76
-3.14
-4.86
-5.50
-4.88
-3.13
-0.59
2.27
4.98
7.15
8.47
8.79
8.09
6.50
4.28
1.73
-0.84
-3.16
-5.02
-6.26
-6.84
-6.80
-6.34
-5.71
-5.17
-4.86
-4.75
-4.65
-4.35
-3.71
-2.78
-1.85
-1.29
-1.46
-2.58
-4.66
-7.45
-10.46
-13.08
-14.68
-14.76
-13.13
-10.00
-5.89
-1.52
2.48
5.71
8.02
9.45
10.05
9.80
8.64
6.58
3.83
0.81
-1.91
-3.78
-4.50
-4.05
-2.67
-0.77
1.24
3.08
4.60
5.76
6.59
7.15
7.45
7.49
7.22
6.54
5.36
3.69
1.67
-0.34
-1.86
-2.41
-1.72
0.12
2.70
5.39
7.55
8.76
8.85
7.89
6.04
3.50
0.42
-2.97
-6.39
-9.48
-11.84
-13.20
-13.46
-12.74
-11.32
-9.57
-7.81
-6.24
-4.92
-3.77
-2.69
-1.63
-0.70
-0.10
-0.10
-0.89
-2.50
-4.79
-7.46
-10.16
-12.54
-14.31
-15.24
-15.15
-14.03
-11.97
-9.24
-6.20
-3.24
-0.68
1.27
2.46
2.83
2.42
1.35
-0.15
-1.70
-2.95
-3.61
-3.60
-3.04
-2.22
-1.44
-0.92
-0.74
-0.84
-1.11
-1.48
-1.96
-2.60
-3.46
-4.52
-5.70
-6.84
-7.74
-8.18
-7.87
-6.54
-4.03
-0.35
4.20
9.10
13.71
17.48
20.06
21.35
21.44
20.48
18.62
16.01
12.84
9.45
6.29
3.84
2.48
2.33
3.18
4.54
5.78
6.29
5.73
4.03
1.44
-1.64
-4.78
-7.68
-10.25
-12.55
-14.72
-16.81
-18.67
-19.92
-20.08
-18.74
-15.74
-11.31
-5.96
-0.39
4.73
8.93
11.98
13.83
14.52
14.12
12.75
10.59
7.91
5.11
2.60
0.74
-0.26
-0.43
-0.01
0.65
1.18
1.32
0.99
0.25
-0.75
-1.88
-3.06
-4.34
-5.78
-7.49
-9.50
-11.70
-13.83
-15.44
-15.96
-14.89
-11.99
-7.44
-1.84
3.94
9.08
13.02
15.63
17.05
17.56
17.35
16.47
14.91
12.74
10.22
7.75
5.69
4.22
3.24
2.51
1.73
0.69
-0.63
-2.17
-3.81
-5.46
-7.07
-8.62
-10.13
-11.63
-13.21
-14.96
-16.90
-18.87
-20.49
-21.23
-20.61
-18.35
-14.57
-9.70
-4.43
0.59
4.89
8.22
10.57
11.94
12.35
11.81
10.39
8.37
6.22
4.46
3.49
3.48
4.29
5.61
7.09
8.46
9.58
10.39
10.87
10.98
10.70
9.99
8.85
7.28
5.27
2.83
0.01
-3.05
-6.07
-8.67
-10.39
-10.89
-9.98
-7.79
-4.70
-1.26
1.97
4.56
6.27
6.99
6.72
5.50
3.44
0.79
-2.05
-4.55
-6.23
-6.83
-6.40
-5.31
-4.07
-3.11
-2.65
-2.63
-2.82
-2.90
-2.69
-2.17
-1.49
-0.90
-0.66
-0.94
-1.83
-3.28
-5.08
-6.81
-8.00
-8.15
-7.00
-4.66
-1.59
1.57
4.19
5.94
6.84
7.17
7.23
7.19
7.01
6.58
5.87
5.02
4.30
3.99
4.23
4.95
5.93
6.87
7.47
7.55
7.02
5.93
4.42
2.69
0.93
-0.72
-2.22
-3.62
-5.00
-6.43
-7.86
-9.08
-9.75
-9.45
-7.82
-4.70
-0.23
5.09
10.53
15.29
18.74
20.62
21.02
20.27
18.79
16.85
14.58
12.05
9.38
6.81
4.69
3.32
2.76
2.83
3.15
3.29
3.02
2.37
1.58
0.90
0.50
0.28
-0.05
-0.81
-2.26
-4.48
-7.34
-10.56
-13.76
-16.47
-18.17
-18.40
-16.85
-13.54
-8.88
-3.58
1.49
5.65
8.53
10.19
10.96
11.23
11.25
11.12
10.84
10.41
9.95
9.66
9.71
10.13
10.77
11.30
11.40
10.89
9.78
8.28
6.64
5.07
3.58
2.05
0.29
-1.83
-4.34
-7.14
-10.09
-13.04
-15.80
-18.08
-19.46
-19.46
-17.67
-13.91
-8.42
-1.83
4.96
10.99
15.46
17.88
18.13
16.41
13.19
9.06
4.64
0.51
-2.88
-5.23
-6.42
-6.51
-5.75
-4.48
-3.06
-1.74
-0.61
0.46
1.80
3.75
6.55
10.23
14.58
19.17
23.51
27.07
29.40
30.17
29.13
26.19
21.38
15.00
7.58
-0.12
-7.33
-13.35
-17.77
-20.51
-21.80
-22.01
-21.45
-20.28
-18.42
-15.85
-12.51
-8.43
-3.73
1.31
6.31
10.85
14.52
16.94
17.63
16.39
13.34
8.87
3.47
-2.49
-8.71
-14.93
-20.82
-26.39
-31.49
-35.90
-39.44
-42.21
-44.57
-46.92
-49.44
-51.94
-54.38
-56.37
-57.23
-56.30
-53.32
-48.63
-43.10
-37.92
-31.29
-23.10
-14.61
-7.63
-3.00
-0.06
2.56
6.01
10.72
16.33
21.52
25.17
26.83
26.78
25.75
24.47
23.48
23.03
23.12
23.22
22.87
21.87
20.24
18.13
15.77
13.50
11.79
11.10
11.43
12.46
13.65
14.34
14.00
12.37
9.52
5.72
1.38
-3.17
-7.57
-11.36
-14.11
-15.78
-16.42
-16.50
-16.54
-16.67
-16.57
-15.55
-12.95
-8.32
-1.90
6.01
15.07
24.80
34.33
42.29
46.96
47.03
42.23
33.65
23.47
13.96
6.70
2.12
-0.19
-1.00
-0.82
0.09
1.55
3.25
4.61
5.02
4.11
1.88
-1.21
-4.52
-7.45
-9.65
-11.03
-11.77
-12.09
-12.14
-11.97
-11.56
-10.92
-10.15
-9.41
-8.82
-8.43
-8.17
-7.92
-7.56
-6.97
-6.15
-5.15
-4.08
-3.07
-2.31
-1.90
-1.85
-1.99
-1.98
-1.41
0.07
2.49
5.61
8.87
11.62
13.33
13.71
12.80
10.86
8.30
5.48
2.69
0.10
-2.14
-3.87
-4.95
-5.27
-4.83
-3.80
-2.50
-1.30
-0.52
-0.28
-0.52
-1.07
-1.68
-2.20
-2.60
-2.96
-3.32
-3.71
-4.09
-4.46
-4.89
-5.45
-6.19
-6.96
-7.44
-7.23
-6.04
-3.93
-1.27
1.30
3.17
3.99
3.66
2.35
0.32
-2.17
-4.93
-7.74
-10.36
-12.49
-13.75
-13.86
-12.77
-10.72
-8.17
-5.65
-3.63
-2.38
-1.87
-1.86
-2.02
-2.06
-1.86
-1.54
-1.35
-1.64
-2.67
-4.54
-7.07
-9.77
-11.95
-12.79
-11.61
-8.12
-2.55
4.30
11.26
17.14
21.01
22.45
21.57
18.91
15.25
11.36
7.89
5.20
3.39
2.32
1.71
1.20
0.47
-0.68
-2.26
-4.12
-5.93
-7.30
-7.95
-7.76
-6.86
-5.57
-4.28
-3.33
-2.92
-3.08
-3.69
-4.53
-5.34
-5.81
-5.61
-4.48
-2.23
1.15
5.46
10.33
15.24
19.63
22.96
24.80
24.87
23.12
19.74
15.14
10.00
5.11
1.27
-0.93
-1.24
0.10
2.40
4.75
6.23
6.32
4.93
2.43
-0.60
-3.62
-6.32
-8.64
-10.68
-12.52
-14.21
-15.68
-16.85
-17.61
-17.82
-17.29
-15.70
-12.79
-8.39
-2.58
4.30
11.79
19.38
26.61
33.04
38.27
41.85
43.46
43.01
40.75
37.25
33.24
29.43
26.39
24.45
23.73
24.07
25.03
25.97
26.17
25.06
22.43
18.49
13.71
8.53
3.19
-2.35
-8.25
-14.57
-21.02
-27.01
-31.82
-34.86
-35.85
-34.92
-32.49
-29.08
-25.17
-21.09
-17.18
-13.78
-11.36
-10.36
-11.10
-13.50
-17.13
-21.20
-24.87
-27.44
-28.56
-28.27
-26.87
-24.78
-22.35
-19.80
-17.27
-14.90
-12.90
-11.53
-11.09
-11.74
-13.48
-16.11
-19.22
-22.19
-24.34
-24.95
-23.45
-19.64
-13.73
-6.41
1.36
8.64
14.77
19.52
23.10
26.01
28.86
32.22
36.54
42.02
48.53
55.52
62.04
66.88
68.96
67.63
62.97
55.85
47.68
39.92
33.67
29.27
26.36
24.14
21.84
18.99
15.57
11.73
7.66
3.37
-1.19
-5.93
-10.45
-14.12
-16.36
-16.97
-16.31
-15.17
-14.49
-15.04
-17.19
-20.88
-25.74
-31.22
-36.70
-41.61
-45.50
-48.08
-49.28
-49.24
-48.24
-46.57
-44.52
-42.25
-39.88
-37.44
-34.93
-32.30
-29.50
-26.50
-23.44
-20.58
-18.34
-17.14
-17.17
-18.26
-19.82
-20.99
-20.90
-19.00
-15.23
-10.01
-4.07
1.82
7.12
11.57
15.25
18.40
21.28
24.06
26.83
29.60
32.41
35.41
38.84
42.92
47.71
52.97
58.12
62.36
64.87
64.95
62.27
56.98
49.68
41.40
33.35
26.62
21.94
19.46
18.75
18.97
19.20
18.70
17.15
14.68
11.66
8.54
5.58
2.80
0.01
-3.05
-6.66
-10.95
-15.98
-21.76
-28.24
-35.26
-42.51
-49.42
-55.30
-59.48
-61.51
-61.32
-59.27
-56.00
-52.27
-48.71
-45.72
-43.41
-41.64
-40.09
-38.45
-36.46
-34.01
-31.14
-28.01
-24.83
-21.85
-19.33
-17.40
-16.04
-15.00
-13.79
-11.86
-8.79
-4.51
0.74
6.44
12.08
17.25
21.76
25.49
28.31
30.11
30.84
30.77
30.47
30.71
32.14
35.03
39.05
43.44
47.36
50.26
52.19
53.85
56.29
60.54
67.18
76.09
86.26
95.88
102.44
103.22
95.91
79.49
54.95
25.33
-4.90
-31.20
-50.38
-61.42
-65.44
-64.70
-61.38
-56.77
-51.21
-44.61
-37.21
-29.88
-23.82
-19.99
-18.64
-19.27
-21.06
-23.42
-26.34
-30.30
-35.76
-42.67
-50.20
-56.91
-61.33
-62.48
-60.32
-55.60
-49.49
-43.14
-37.29
-32.27
-28.10
-24.71
-22.06
-20.08
-18.65
-17.50
-16.32
-14.90
-13.24
-11.63
-10.51
-10.32
-11.32
-13.38
-15.93
-18.11
-18.95
-17.75
-14.32
-8.99
-2.51
4.28
10.72
16.47
21.48
25.86
29.72
33.11
36.03
38.56
40.77
42.78
44.65
46.28
47.46
47.89
47.32
45.67
43.07
39.86
36.48
33.29
30.48
27.97
25.48
22.61
18.97
14.32
8.61
1.96
-5.41
-13.20
-21.11
-28.86
-36.20
-42.94
-48.91
-53.89
-57.56
-59.45
-59.02
-55.94
-50.25
-42.50
-33.62
-24.67
-16.47
-9.40
-3.45
1.65
6.13
10.07
13.42
16.14
18.29
20.11
21.92
23.96
26.28
28.68
30.80
32.32
33.08
33.17
32.95
32.83
33.16
33.98
35.05
35.90
36.07
35.24
33.38
30.74
27.73
24.75
22.09
19.82
17.79
15.73
13.29
10.20
6.25
1.45
-3.95
-9.46
-14.40
-18.09
-20.03
-20.17
-18.90
-16.94
-15.06
-13.79
-13.31
-13.38
-13.60
-13.54
-12.99
-12.00
-10.90
-10.18
-10.31
-11.58
-14.03
-17.40
-21.24
-25.10
-28.56
-31.34
-33.15
-33.74
-32.81
-30.18
-26.00
-20.84
-15.60
-11.22
-8.24
-6.52
-5.27
-3.46
-0.34
4.11
9.21
14.03
17.97
21.14
24.27
28.28
33.73
40.66
48.73
57.52
66.68
75.80
84.18
90.72
94.24
93.96
90.02
83.47
75.98
69.04
63.46
59.21
55.62
51.92
47.64
42.78
37.61
32.45
27.40
22.38
17.22
11.91
6.65
1.81
-2.39
-5.99
-9.40
-13.09
-17.30
-21.83
-26.04
-29.20
-30.85
-31.04
-30.27
-29.16
-28.09
-26.95
-25.32
-22.71
-18.97
-14.47
-10.04
-6.69
-5.19
-5.87
-8.53
-12.70
-17.84
-23.51
-29.39
-35.16
-40.35
-44.34
-46.49
-46.38
-44.06
-40.04
-35.23
-30.52
-26.53
-23.35
-20.59
-17.65
-13.98
-9.42
-4.25
0.96
5.67
9.58
12.77
15.64
18.63
22.02
25.86
29.87
33.59
36.50
38.12
38.16
36.60
33.71
30.12
26.62
24.02
22.87
23.23
24.67
26.37
27.44
27.21
25.46
22.40
18.54
14.43
10.44
6.74
3.23
-0.22
-3.79
-7.56
-11.53
-15.63
-19.73
-23.65
-27.19
-30.23
-32.74
-34.79
-36.60
-38.44
-40.56
-43.11
-46.08
-49.22
-52.04
-53.90
-54.16
-52.37
-48.47
-42.75
-35.70
-27.83
-19.47
-10.85
-2.22
5.87
12.59
17.02
18.57
17.25
13.86
9.63
5.88
3.45
2.56
2.82
3.55
4.03
3.81
2.72
0.83
-1.64
-4.38
-7.02
-9.15
-10.48
-11.00
-11.16
-11.82
-14.05
-18.66
-25.80
-34.66
-43.60
-50.56
-53.69
-51.94
-45.41
-35.30
-23.57
-12.44
-3.77
1.37
2.95
1.89
-0.26
-1.88
-1.70
0.78
5.26
10.88
16.62
21.63
25.51
28.23
29.97
30.89
30.99
30.19
28.47
25.96
23.03
20.10
17.48
15.21
13.11
10.88
8.28
5.29
2.14
-0.77
-3.04
-4.40
-4.88
-4.75
-4.42
-4.31
-4.67
-5.58
-6.98
-8.81
-11.02
-13.64
-16.67
-20.02
-23.51
-26.90
-29.93
-32.29
-33.64
-33.63
-32.00
-28.76
-24.25
-19.14
-14.21
-10.06
-6.99
-4.90
-3.48
-2.41
-1.53
-0.83
-0.37
-0.23
-0.37
-0.70
-1.13
-1.60
-2.10
-2.65
-3.23
-3.77
-4.20
-4.46
-4.53
-4.54
-4.65
-5.08
-5.99
-7.39
-9.13
-10.96
-12.60
-13.84
-14.65
-15.20
-15.74
-16.55
-17.79
-19.38
-20.99
-22.02
-21.84
-19.93
-16.18
-10.90
-4.83
1.16
6.33
10.27
12.92
14.52
15.35
15.64
15.54
15.09
14.39
13.55
12.67
11.83
10.99
10.08
8.99
7.67
6.13
4.50
2.93
1.60
0.63
0.04
-0.27
-0.49
-0.83
-1.46
-2.43
-3.74
-5.30
-6.99
-8.67
-10.16
-11.30
-12.00
-12.34
-12.56
-13.03
-14.11
-16.01
-18.72
-21.97
-25.24
-27.80
-28.79
-27.44
-23.36
-16.77
-8.53
0.05
7.67
13.51
17.41
19.77
21.22
22.23
22.93
23.21
22.95
22.17
21.06
19.87
18.78
17.77
16.69
15.37
13.71
11.76
9.73
7.86
6.36
5.31
4.65
4.20
3.74
3.07
2.12
0.90
-0.46
-1.80
-3.02
-4.04
-4.88
-5.62
-6.34
-7.15
-8.12
-9.28
-10.62
-12.08
-13.59
-15.00
-16.22
-17.17
-17.90
-18.58
-19.48
-20.86
-22.82
-25.16
-27.28
-28.35
-27.51
-24.21
-18.45
-10.82
-2.38
5.72
12.50
17.44
20.52
22.07
22.54
22.32
21.66
20.69
19.52
18.27
17.06
15.97
14.97
13.92
12.70
11.22
9.56
7.92
6.56
5.63
5.11
4.82
4.49
3.93
3.06
2.01
0.97
0.05
-0.76
-1.63
-2.81
-4.42
-6.40
-8.49
-10.34
-11.69
-12.50
-12.93
-13.30
-13.97
-15.22
-17.18
-19.74
-22.51
-24.82
-25.80
-24.64
-20.87
-14.65
-6.75
1.67
9.40
15.64
20.09
22.96
24.64
25.48
25.65
25.23
24.26
22.91
21.40
19.94
18.59
17.27
15.81
14.14
12.30
10.51
8.99
7.89
7.18
6.73
6.34
5.80
4.99
3.82
2.32
0.59
-1.16
-2.69
-3.81
-4.54
-5.11
-5.84
-7.02
-8.67
-10.59
-12.42
-13.83
-14.71
-15.19
-15.58
-16.22
-17.39
-19.24
-21.72
-24.51
-27.02
-28.41
-27.85
-24.78
-19.17
-11.63
-3.16
5.12
12.37
18.15
22.41
25.28
26.92
27.50
27.19
26.26
25.01
23.71
22.50
21.32
20.04
18.52
16.71
14.70
12.69
10.87
9.41
8.36
7.65
7.16
6.69
6.04
5.10
3.83
2.28
0.59
-1.04
-2.41
-3.42
-4.06
-4.52
-5.08
-6.00
-7.43
-9.26
-11.18
-12.83
-13.96
-14.55
-14.86
-15.29
-16.26
-18.01
-20.52
-23.46
-26.25
-28.13
-28.33
-26.30
-21.84
-15.27
-7.32
1.01
8.75
15.17
19.94
23.05
24.68
25.11
24.58
23.29
21.52
19.53
17.57
15.85
14.36
13.00
11.63
10.18
8.70
7.38
6.38
5.73
5.32
4.90
4.25
3.27
2.04
0.78
-0.28
-1.03
-1.52
-1.97
-2.69
-3.88
-5.59
-7.66
-9.77
-11.59
-12.91
-13.75
-14.31
-14.94
-15.94
-17.48
-19.54
-21.85
-23.89
-25.00
-24.49
-21.86
-17.02
-10.36
-2.69
4.98
11.74
17.04
20.70
22.90
23.94
24.12
23.68
22.76
21.49
20.03
18.56
17.24
16.16
15.28
14.50
13.66
12.66
11.48
10.25
9.09
8.12
7.33
6.62
5.82
4.80
3.50
2.00
0.45
-0.96
-2.12
-3.03
-3.85
-4.81
-6.09
-7.69
-9.45
-11.09
-12.42
-13.39
-14.13
-14.90
-15.92
-17.29
-19.08
-21.28
-23.79
-26.39
-28.56
-29.57
-28.64
-25.23
-19.36
-11.65
-3.14
5.01
11.93
17.21
20.84
23.14
24.47
25.15
25.38
25.24
24.79
24.09
23.21
22.23
21.20
20.12
18.92
17.54
15.94
14.17
12.35
10.66
9.22
8.13
7.34
6.74
6.12
5.28
4.08
2.51
0.72
-1.04
-2.47
-3.40
-3.87
-4.11
-4.44
-5.18
-6.45
-8.21
-10.19
-12.11
-13.72
-14.90
-15.72
-16.38
-17.16
-18.33
-20.09
-22.48
-25.24
-27.84
-29.55
-29.59
-27.40
-22.83
-16.26
-8.48
-0.48
6.85
12.89
17.37
20.35
22.06
22.78
22.80
22.30
21.42
20.29
19.01
17.72
16.49
15.35
14.26
13.12
11.84
10.47
9.12
7.99
7.19
6.70
6.33
5.79
4.83
3.41
1.72
0.08
-1.21
-2.02
-2.49
-2.94
-3.68
-4.90
-6.52
-8.28
-9.92
-11.28
-12.38
-13.38
-14.49
-15.92
-17.78
-20.11
-22.73
-25.30
-27.19
-27.65
-26.05
-22.08
-15.99
-8.51
-0.67
6.56
12.52
16.98
20.06
22.03
23.17
23.65
23.53
22.86
21.72
20.29
18.80
17.43
16.26
15.23
14.22
13.10
11.88
10.65
9.57
8.75
8.16
7.66
7.03
6.10
4.79
3.14
1.32
-0.48
-2.03
-3.21
-4.02
-4.63
-5.31
-6.31
-7.73
-9.50
-11.36
-13.04
-14.43
-15.57
-16.67
-17.95
-19.53
-21.46
-23.69
-26.08
-28.37
-30.08
-30.55
-29.10
-25.34
-19.35
-11.77
-3.59
4.19
10.85
16.11
20.05
22.93
24.96
26.22
26.75
26.57
25.81
24.69
23.45
22.26
21.16
20.08
18.88
17.44
15.75
13.92
12.18
10.71
9.60
8.82
8.18
7.49
6.59
5.43
4.06
2.59
1.12
-0.26
-1.51
-2.62
-3.64
-4.64
-5.72
-6.93
-8.30
-9.76
-11.23
-12.66
-14.00
-15.24
-16.39
-17.47
-18.57
-19.87
-21.61
-23.91
-26.56
-28.95
-30.15
-29.24
-25.70
-19.66
-11.88
-3.48
4.42
11.03
16.01
19.38
21.37
22.27
22.36
21.87
21.02
20.02
19.02
18.11
17.25
16.34
15.22
13.82
12.12
10.29
8.60
7.33
6.62
6.40
6.36
6.07
5.25
3.79
1.92
0.04
-1.45
-2.33
-2.68
-2.81
-3.10
-3.85
-5.15
-6.84
-8.69
-10.47
-12.04
-13.37
-14.46
-15.38
-16.22
-17.16
-18.47
-20.39
-22.98
-25.89
-28.39
-29.48
-28.31
-24.46
-18.17
-10.29
-1.95
5.79
12.23
17.12
20.59
22.89
24.26
24.85
24.76
24.10
23.07
21.90
20.76
19.72
18.69
17.55
16.21
14.69
13.10
11.58
10.27
9.19
8.34
7.63
6.98
6.25
5.34
4.18
2.76
1.18
-0.42
-1.88
-3.13
-4.21
-5.24
-6.35
-7.63
-9.08
-10.65
-12.21
-13.65
-14.89
-15.91
-16.75
-17.54
-18.44
-19.64
-21.33
-23.61
-26.42
-29.40
-31.95
-33.24
-32.52
-29.35
-23.80
-16.50
-8.34
-0.28
6.96
13.04
17.88
21.56
24.20
25.91
26.79
26.98
26.66
25.95
24.91
23.58
21.99
20.23
18.45
16.81
15.42
14.33
13.47
12.74
12.02
11.21
10.27
9.19
7.99
6.71
5.37
3.97
2.54
1.11
-0.26
-1.50
-2.56
-3.46
-4.27
-5.07
-5.98
-7.07
-8.38
-9.88
-11.51
-13.14
-14.66
-15.93
-16.93
-17.72
-18.55
-19.69
-21.44
-23.87
-26.70
-29.29
-30.72
-30.12
-26.98
-21.38
-13.97
-5.74
2.24
9.18
14.65
18.58
21.11
22.43
22.75
22.26
21.19
19.80
18.41
17.23
16.40
15.85
15.38
14.75
13.80
12.51
11.04
9.60
8.39
7.49
6.86
6.35
5.79
5.04
3.98
2.63
1.07
-0.52
-1.94
-3.03
-3.81
-4.44
-5.15
-6.17
-7.53
-9.14
-10.74
-12.12
-13.19
-14.03
-14.91
-16.09
-17.80
-20.11
-22.87
-25.74
-28.17
-29.50
-29.08
-26.43
-21.47
-14.57
-6.54
1.61
8.94
14.83
19.10
21.91
23.61
24.52
24.82
24.59
23.84
22.62
21.10
19.49
18.00
16.78
15.83
15.01
14.16
13.10
11.83
10.44
9.11
8.00
7.19
6.58
5.97
5.17
4.03
2.59
0.99
-0.52
-1.80
-2.79
-3.59
-4.42
-5.46
-6.84
-8.52
-10.32
-12.04
-13.52
-14.77
-15.90
-17.05
-18.38
-19.99
-21.96
-24.28
-26.90
-29.53
-31.69
-32.70
-31.83
-28.61
-23.02
-15.56
-7.15
1.19
8.59
14.57
19.04
22.15
24.17
25.35
25.88
25.88
25.46
24.73
23.80
22.79
21.77
20.74
19.67
18.52
17.23
15.85
14.45
13.14
11.99
10.99
10.08
9.13
8.07
6.82
5.38
3.80
2.16
0.55
-0.96
-2.31
-3.49
-4.51
-5.39
-6.17
-6.87
-7.62
-8.54
-9.75
-11.33
-13.19
-15.14
-16.95
-18.43
-19.53
-20.40
-21.36
-22.74
-24.78
-27.38
-30.05
-31.89
-31.89
-29.27
-23.81
-16.03
-7.08
1.63
8.96
14.30
17.71
19.65
20.71
21.30
21.60
21.59
21.24
20.61
19.81
18.97
18.11
17.14
15.87
14.21
12.21
10.13
8.32
7.08
6.50
6.42
6.45
6.16
5.24
3.61
1.47
-0.80
-2.78
-4.18
-4.92
-5.17
-5.26
-5.54
-6.21
-7.34
-8.81
-10.42
-12.01
-13.46
-14.75
-15.88
-16.95
-18.11
-19.57
-21.52
-23.97
-26.58
-28.64
-29.19
-27.40
-22.90
-16.00
-7.63
0.98
8.75
15.01
19.60
22.75
24.76
25.88
26.19
25.74
24.59
22.96
21.12
19.35
17.85
16.65
15.68
14.75
13.74
12.56
11.27
9.98
8.86
7.98
7.28
6.59
5.67
4.33
2.57
0.57
-1.37
-2.95
-3.99
-4.53
-4.81
-5.13
-5.75
-6.83
-8.38
-10.27
-12.31
-14.27
-15.97
-17.25
-18.09
-18.62
-19.09
-19.85
-21.23
-23.38
-26.19
-29.15
-31.44
-32.07
-30.27
-25.73
-18.83
-10.53
-2.04
5.57
11.68
16.23
19.52
21.92
23.69
24.85
25.36
25.16
24.38
23.23
21.96
20.68
19.40
18.04
16.51
14.85
13.19
11.74
10.64
9.92
9.44
8.98
8.33
7.35
6.07
4.61
3.12
1.71
0.40
-0.81
-1.93
-2.93
-3.77
-4.41
-4.93
-5.52
-6.39
-7.69
-9.40
-11.32
-13.10
-14.47
-15.31
-15.76
-16.10
-16.68
-17.83
-19.72
-22.31
-25.32
-28.15
-29.97
-29.92
-27.36
-22.17
-14.87
-6.49
1.77
8.89
14.33
18.06
20.37
21.67
22.27
22.33
21.90
21.03
19.87
18.59
17.39
16.39
15.54
14.73
13.80
12.67
11.38
10.09
8.96
8.12
7.50
6.91
6.13
4.98
3.46
1.73
0.03
-1.42
-2.50
-3.26
-3.81
-4.32
-4.93
-5.71
-6.68
-7.81
-9.00
-10.17
-11.23
-12.13
-12.87
-13.53
-14.27
-15.30
-16.82
-18.90
-21.41
-23.91
-25.74
-26.08
-24.31
-20.19
-13.99
-6.47
1.38
8.61
14.54
18.89
21.65
23.03
23.30
22.75
21.64
20.21
18.70
17.30
16.11
15.13
14.25
13.36
12.32
11.12
9.83
8.61
7.58
6.84
6.37
6.05
5.72
5.22
4.41
3.25
1.79
0.15
-1.47
-2.91
-4.04
-4.87
-5.51
-6.12
-6.85
-7.78
-8.89
-10.11
-11.37
-12.62
-13.84
-15.03
-16.14
-17.20
-18.30
-19.61
-21.34
-23.58
-26.13
-28.43
-29.64
-28.92
-25.77
-20.23
-12.91
-4.82
3.02
9.79
15.10
18.91
21.44
22.94
23.67
23.81
23.51
22.92
22.15
21.32
20.47
19.56
18.55
17.39
16.07
14.61
13.09
11.60
10.24
9.06
8.09
7.29
6.56
5.75
4.77
3.55
2.15
0.69
-0.65
-1.71
-2.43
-2.85
-3.12
-3.46
-4.08
-5.11
-6.57
-8.33
-10.19
-11.95
-13.42
-14.54
-15.35
-15.99
-16.69
-17.74
-19.39
-21.71
-24.53
-27.29
-29.16
-29.25
-26.90
-21.96
-14.90
-6.66
1.58
8.79
14.33
18.04
20.12
20.98
20.99
20.44
19.49
18.27
16.91
15.56
14.36
13.37
12.55
11.77
10.92
9.94
8.93
8.01
7.30
6.75
6.23
5.53
4.55
3.32
1.98
0.74
-0.27
-1.01
-1.59
-2.14
-2.79
-3.65
-4.76
-6.15
-7.74
-9.45
-11.10
-12.51
-13.53
-14.12
-14.39
-14.56
-14.94
-15.83
-17.41
-19.64
-22.21
-24.52
-25.78
-25.17
-22.19
-16.81
-9.57
-1.45
6.39
12.99
17.78
20.69
22.06
22.39
22.15
21.62
20.93
20.07
19.03
17.81
16.48
15.09
13.69
12.30
10.95
9.64
8.46
7.45
6.68
6.15
5.76
5.37
4.79
3.85
2.49
0.77
-1.12
-2.90
-4.35
-5.37
-6.04
-6.56
-7.19
-8.09
-9.28
-10.70
-12.22
-13.73
-15.13
-16.33
-17.30
-18.09
-18.90
-20.01
-21.71
-24.05
-26.71
-28.92
-29.69
-28.14
-23.87
-17.16
-8.90
-0.26
7.67
14.18
19.03
22.34
24.37
25.38
25.56
25.07
24.12
22.93
21.73
20.63
19.62
18.59
17.43
16.09
14.64
13.23
11.97
10.93
10.08
9.34
8.62
7.87
7.04
6.08
4.96
3.62
2.08
0.41
-1.23
-2.66
-3.79
-4.62
-5.32
-6.10
-7.13
-8.46
-10.02
-11.65
-13.21
-14.59
-15.77
-16.76
-17.62
-18.46
-19.49
-20.95
-23.02
-25.60
-28.18
-29.90
-29.77
-27.07
-21.68
-14.21
-5.77
2.41
9.42
14.83
18.70
21.32
22.97
23.82
23.93
23.38
22.34
21.07
19.80
18.64
17.52
16.28
14.83
13.20
11.56
10.18
9.23
8.71
8.47
8.27
7.89
7.22
6.28
5.12
3.82
2.42
1.01
-0.29
-1.38
-2.21
-2.82
-3.42
-4.23
-5.42
-7.00
-8.83
-10.61
-12.09
-13.14
-13.78
-14.21
-14.68
-15.46
-16.79
-18.77
-21.32
-24.04
-26.28
-27.16
-25.90
-22.08
-15.87
-8.04
0.25
7.84
13.88
18.05
20.46
21.50
21.59
21.02
19.96
18.52
16.86
15.19
13.73
12.65
11.91
11.35
10.72
9.87
8.81
7.75
6.93
6.48
6.30
6.06
5.40
4.10
2.26
0.18
-1.69
-3.08
-3.94
-4.48
-5.00
-5.76
-6.85
-8.23
-9.77
-11.31
-12.75
-14.02
-15.09
-16.05
-17.06
-18.36
-20.20
-22.64
-25.46
-28.06
-29.56
-29.05
-25.96
-20.25
-12.53
-3.85
4.61
11.90
17.51
21.38
23.78
25.03
25.41
25.09
24.18
22.84
21.25
19.65
18.20
16.97
15.89
14.84
13.69
12.39
11.01
9.67
8.52
7.63
7.00
6.52
6.00
5.30
4.29
2.97
1.42
-0.21
-1.73
-3.03
-4.06
-4.91
-5.72
-6.65
-7.84
-9.32
-11.03
-12.81
-14.47
-15.86
-16.92
-17.70
-18.41
-19.31
-20.68
-22.69
-25.27
-28.08
-30.47
-31.65
-30.82
-27.49
-21.65
-13.87
-5.11
3.48
10.95
16.77
20.82
23.34
24.67
25.16
25.06
24.53
23.70
22.73
21.72
20.75
19.81
18.79
17.54
15.97
14.09
12.04
10.05
8.37
7.14
6.38
5.96
5.65
5.23
4.59
3.66
2.50
1.17
-0.21
-1.57
-2.81
-3.86
-4.72
-5.44
-6.17
-7.07
-8.27
-9.80
-11.55
-13.31
-14.82
-15.92
-16.59
-17.00
-17.49
-18.44
-20.13
-22.59
-25.45
-27.91
-28.97
-27.70
-23.61
-16.94
-8.60
0.08
7.82
13.80
17.78
20.06
21.14
21.46
21.25
20.59
19.50
18.09
16.54
15.02
13.67
12.49
11.39
10.33
9.29
8.32
7.51
6.91
6.49
6.13
5.63
4.83
3.57
1.90
-0.01
-1.86
-3.37
-4.37
-4.88
-5.09
-5.28
-5.71
-6.51
-7.68
-9.09
-10.60
-12.04
-13.30
-14.32
-15.18
-16.07
-17.30
-19.14
-21.63
-24.41
-26.67
-27.41
-25.76
-21.35
-14.52
-6.22
2.33
9.99
16.05
20.28
22.82
23.99
24.14
23.54
22.38
20.88
19.25
17.72
16.45
15.48
14.71
13.96
13.05
11.87
10.50
9.14
8.00
7.20
6.68
6.22
5.58
4.57
3.17
1.51
-0.20
-1.79
-3.12
-4.18
-5.04
-5.83
-6.72
-7.84
-9.26
-10.95
-12.77
-14.53
-16.06
-17.27
-18.20
-18.96
-19.76
-20.86
-22.51
-24.78
-27.44
-29.89
-31.23
-30.52
-27.14
-21.05
-12.87
-3.72
5.17
12.81
18.67
22.70
25.17
26.50
27.04
27.05
26.66
25.93
24.95
23.79
22.53
21.25
19.96
18.59
17.07
15.36
13.51
11.69
10.05
8.71
7.67
6.84
6.07
5.25
4.32
3.26
2.08
0.86
-0.34
-1.43
-2.33
-3.09
-3.82
-4.70
-5.91
-7.47
-9.26
-11.10
-12.80
-14.31
-15.73
-17.22
-18.91
-20.84
-23.01
-25.33
-27.70
-29.88
-31.45
-31.83
-30.41
-26.82
-21.15
-13.97
-6.18
1.24
7.52
12.17
15.04
16.13
15.64
13.88
11.30
8.38
5.52
2.86
0.25
-2.68
-6.27
-10.63
-15.51
-20.34
-24.37
-26.81
-27.07
-24.83
-20.27
-14.14
-7.79
-2.83
-0.61
-1.72
-5.63
-10.94
-16.01
-19.68
-21.76
-22.94
-24.16
-26.03
-28.42
-30.74
-32.46
-33.57
-34.75
-36.88
-40.54
-45.62
-51.31
-56.40
-59.61
-59.84
-56.27
-48.45
-36.43
-20.97
-3.57
13.77
28.98
40.56
47.91
51.47
52.41
52.12
51.82
52.20
53.37
54.96
56.30
56.61
55.22
51.81
46.52
40.00
33.29
27.48
23.40
21.31
20.86
21.22
21.51
21.13
19.94
18.23
16.41
14.83
13.58
12.60
11.79
11.11
10.65
10.50
10.63
10.83
10.80
10.26
9.12
7.50
5.68
3.90
2.24
0.60
-1.31
-3.81
-7.13
-11.30
-16.09
-21.04
-25.61
-29.28
-31.79
-33.09
-33.35
-32.81
-31.69
-30.17
-28.46
-26.90
-25.90
-25.90
-27.22
-30.00
-34.19
-39.53
-45.56
-51.71
-57.30
-61.81
-65.02
-67.16
-68.73
-70.09
-71.07
-70.88
-68.33
-62.42
-52.89
-40.28
-25.66
-10.15
5.36
20.12
33.14
43.05
48.33
47.90
41.74
31.14
18.33
5.70
-4.93
-12.73
-17.84
-21.04
-23.46
-26.27
-30.64
-37.48
-47.11
-58.97
-71.42
-82.11
-88.59
-89.24
-83.81
-73.46
-60.40
-47.01
-35.18
-25.88
-19.16
-14.41
-10.75
-7.17
-2.77
3.17
11.04
20.75
31.68
42.83
53.11
61.67
68.23
73.10
77.07
81.07
85.76
91.28
97.23
102.82
107.23
109.85
110.52
109.49
107.25
104.32
101.06
97.60
93.84
89.53
84.39
78.13
70.57
61.63
51.42
40.31
28.94
18.18
9.01
2.28
-1.50
-2.27
-0.51
3.01
7.33
11.54
14.91
16.97
17.52
16.62
14.60
11.92
9.08
6.52
4.61
3.65
3.88
5.42
8.21
11.89
15.78
19.01
20.84
20.84
19.03
15.83
11.80
7.52
3.44
-0.03
-2.50
-3.66
-3.37
-1.84
0.31
2.22
3.05
2.27
-0.24
-4.16
-8.86
-13.51
-17.25
-19.23
-18.83
-15.85
-10.58
-3.82
3.33
9.82
14.87
18.13
19.60
19.51
18.13
15.71
12.50
8.76
4.72
0.64
-3.29
-6.87
-9.93
-12.37
-14.20
-15.63
-17.00
-18.70
-20.99
-23.86
-27.06
-30.24
-33.05
-35.29
-36.85
-37.66
-37.68
-36.96
-35.78
-34.64
-34.10
-34.47
-35.50
-36.31
-35.70
-32.60
-26.65
-18.33
-8.84
0.47
8.63
15.37
21.02
26.18
31.24
36.20
40.73
44.42
47.08
48.85
50.09
51.14
52.13
52.85
52.94
52.07
50.17
47.55
44.81
42.58
41.35
41.29
42.27
44.04
46.37
49.13
52.27
55.62
58.91
61.58
62.98
62.52
60.02
55.79
50.57
45.33
40.91
37.89
36.29
35.52
34.48
31.95
26.94
19.11
9.08
-1.66
-10.87
-16.63
-18.26
-16.73
-14.31
-13.55
-16.19
-22.27
-30.21
-36.88
-39.63
-37.56
-31.76
-24.40
-17.60
-12.87
-10.55
-10.36
-10.34
-8.81
-5.24
-0.30
4.99
10.00
14.26
17.94
21.02
25.50
32.59
41.79
51.02
58.36
63.43
66.93
71.02
77.28
89.09
107.94
132.41
158.69
182.98
203.12
217.98
228.11
215.79
171.92
101.50
21.87
-49.85
-105.31
-140.86
-163.64
-178.27
-187.20
-189.00
-183.05
-170.74
-156.14
-143.55
-135.33
-131.91
-131.23
-131.15
-128.26
-120.95
-110.24
-99.29
-91.18
-87.23
-87.30
-89.39
-91.46
-90.52
-84.52
-72.97
-57.00
-38.35
-18.64
0.54
18.22
33.41
45.95
55.85
63.01
67.19
68.36
66.97
63.70
59.48
54.90
50.35
45.89
41.36
36.55
31.48
26.39
21.50
16.88
12.29
7.36
1.83
-4.24
-10.54
-16.62
-22.11
-26.79
-30.53
-33.28
-35.02
-35.90
-36.31
-36.82
-38.01
-40.09
-42.70
-44.87
-45.41
-43.39
-38.54
-31.44
-23.30
-15.57
-9.43
-5.54
-3.94
-4.20
-5.63
-7.51
-9.26
-10.48
-11.16
-11.42
-11.44
-11.40
-11.41
-11.52
-11.67
-11.68
-11.39
-10.91
-10.46
-10.32
-10.71
-11.81
-13.66
-16.15
-19.05
-22.03
-25.02
-27.91
-30.42
-32.30
-33.44
-33.87
-33.58
-32.32
-29.55
-25.57
-20.61
-14.69
-7.93
-0.98
5.12
9.45
11.60
11.81
8.99
2.90
-5.26
-13.35
-19.63
-23.25
-24.07
-22.32
-18.43
-15.84
-17.13
-22.68
-31.23
-41.88
-54.62
-69.87
-87.71
-107.52
-131.66
-160.73
-192.33
-222.17
-247.22
-266.45
-280.44
-290.37
-274.52
-224.18
-148.94
-69.24
0.22
55.82
100.80
139.17
172.69
200.57
217.01
218.02
204.57
183.53
159.85
136.89
116.29
98.74
85.05
73.66
64.23
58.19
57.58
62.46
71.11
81.12
89.99
96.43
98.56
95.76
88.87
79.74
69.85
60.41
52.26
46.00
41.84
38.36
33.66
25.91
14.93
2.29
-8.97
-16.10
-17.86
-14.57
-8.05
-0.46
6.65
12.65
17.20
20.64
22.82
23.26
21.77
18.59
14.35
9.95
6.23
3.61
1.81
0.90
0.29
-0.50
-1.69
-3.22
-4.82
-6.21
-7.26
-8.06
-8.91
-10.20
-12.10
-14.52
-17.22
-19.84
-22.09
-23.72
-24.66
-25.04
-25.20
-25.47
-26.12
-27.16
-28.32
-28.95
-28.20
-25.33
-19.96
-12.38
-3.43
5.69
13.83
20.11
24.18
26.13
26.32
25.17
23.06
20.34
17.34
14.35
11.59
9.11
6.83
4.59
2.23
-0.27
-2.81
-5.20
-7.28
-9.00
-10.45
-11.77
-13.14
-14.62
-16.18
-17.67
-18.88
-19.64
-19.89
-19.75
-19.50
-19.51
-20.10
-21.44
-23.37
-25.41
-26.74
-26.41
-23.64
-18.14
-10.25
-0.97
8.38
16.52
22.55
26.18
27.59
27.24
25.65
23.26
20.42
17.44
14.58
11.97
9.60
7.33
4.98
2.45
-0.19
-2.75
-4.98
-6.75
-8.07
-9.10
-10.08
-11.14
-12.26
-13.33
-14.17
-14.67
-14.87
-14.96
-15.20
-15.86
-17.07
-18.86
-21.03
-23.18
-24.66
-24.70
-22.55
-17.78
-10.54
-1.58
7.85
16.43
23.11
27.41
29.38
29.47
28.21
26.08
23.42
20.51
17.59
14.86
12.44
10.26
8.21
6.09
3.87
1.61
-0.48
-2.20
-3.44
-4.25
-4.83
-5.42
-6.27
-7.46
-8.94
-10.57
-12.13
-13.47
-14.56
-15.54
-16.70
-18.37
-20.79
-23.92
-27.32
-30.09
-31.13
-29.42
-24.49
-16.60
-6.74
3.66
13.22
20.96
26.47
29.88
31.51
31.72
30.75
28.77
26.02
22.84
19.67
16.91
14.75
13.11
11.69
10.12
8.15
5.74
3.15
0.72
-1.19
-2.45
-3.18
-3.74
-4.51
-5.77
-7.55
-9.59
-11.53
-13.02
-13.89
-14.26
-14.42
-14.75
-15.58
-17.11
-19.43
-22.36
-25.44
-27.84
-28.47
-26.33
-20.90
-12.46
-2.12
8.55
17.97
25.13
29.74
32.13
32.89
32.55
31.43
29.65
27.28
24.47
21.48
18.57
15.93
13.65
11.65
9.76
7.79
5.64
3.29
0.88
-1.35
-3.18
-4.46
-5.23
-5.66
-6.04
-6.62
-7.54
-8.82
-10.35
-11.94
-13.41
-14.65
-15.60
-16.35
-17.03
-17.88
-19.15
-21.02
-23.51
-26.32
-28.75
-29.82
-28.48
-24.05
-16.52
-6.69
4.03
14.09
22.22
27.81
30.87
31.85
31.30
29.62
27.07
23.82
20.14
16.40
13.04
10.41
8.59
7.33
6.22
4.83
2.97
0.71
-1.62
-3.64
-5.08
-5.87
-6.15
-6.24
-6.48
-7.18
-8.51
-10.42
-12.67
-14.86
-16.63
-17.74
-18.26
-18.44
-18.65
-19.23
-20.42
-22.31
-24.78
-27.38
-29.28
-29.42
-26.77
-20.80
-11.80
-0.89
10.28
20.11
27.51
32.14
34.27
34.48
33.31
31.16
28.27
24.87
21.26
17.80
14.79
12.39
10.53
8.98
7.42
5.62
3.51
1.25
-0.85
-2.46
-3.38
-3.68
-3.69
-3.88
-4.68
-6.28
-8.55
-11.09
-13.44
-15.23
-16.35
-16.96
-17.38
-17.97
-19.01
-20.69
-23.06
-25.94
-28.85
-30.96
-31.19
-28.55
-22.59
-13.65
-2.87
8.16
17.90
25.34
30.16
32.61
33.23
32.58
31.09
29.04
26.66
24.15
21.69
19.40
17.28
15.24
13.21
11.12
9.01
6.99
5.20
3.72
2.55
1.58
0.65
-0.37
-1.50
-2.64
-3.63
-4.41
-5.03
-5.69
-6.62
-7.94
-9.61
-11.38
-12.99
-14.24
-15.15
-15.95
-16.98
-18.55
-20.86
-23.84
-27.14
-30.06
-31.68
-30.99
-27.25
-20.30
-10.75
0.09
10.63
19.48
25.86
29.69
31.39
31.56
30.64
28.90
26.53
23.75
20.90
18.31
16.14
14.32
12.60
10.76
8.73
6.64
4.74
3.26
2.28
1.71
1.31
0.80
-0.02
-1.18
-2.60
-4.04
-5.27
-6.18
-6.80
-7.34
-8.05
-9.11
-10.55
-12.24
-13.97
-15.53
-16.79
-17.72
-18.49
-19.40
-20.83
-23.06
-25.95
-28.82
-30.53
-29.77
-25.64
-18.10
-8.03
2.98
13.25
21.49
27.12
30.24
31.28
30.73
28.96
26.20
22.73
18.89
15.12
11.82
9.18
7.17
5.58
4.14
2.69
1.20
-0.24
-1.44
-2.28
-2.73
-2.86
-2.83
-2.87
-3.19
-3.91
-5.08
-6.61
-8.33
-10.02
-11.52
-12.73
-13.67
-14.43
-15.17
-16.12
-17.53
-19.64
-22.46
-25.63
-28.38
-29.60
-28.20
-23.55
-15.76
-5.75
5.03
15.04
23.11
28.68
31.78
32.83
32.38
30.91
28.77
26.27
23.63
21.10
18.82
16.84
15.09
13.40
11.64
9.79
7.96
6.35
5.13
4.34
3.82
3.34
2.70
1.83
0.77
-0.38
-1.54
-2.73
-4.03
-5.52
-7.23
-9.15
-11.17
-13.15
-14.91
-16.33
-17.36
-18.11
-18.83
-19.92
-21.74
-24.46
-27.83
-31.10
-33.14
-32.71
-28.93
-21.67
-11.62
-0.21
10.91
20.33
27.28
31.67
33.88
34.51
34.04
32.78
30.93
28.68
26.28
23.99
21.95
20.18
18.51
16.73
14.70
12.41
10.05
7.90
6.21
5.12
4.56
4.32
4.10
3.60
2.66
1.25
-0.47
-2.29
-3.95
-5.25
-6.15
-6.74
-7.29
-8.08
-9.31
-11.00
-13.00
-15.01
-16.74
-18.03
-18.90
-19.55
-20.32
-21.54
-23.48
-26.13
-29.07
-31.46
-32.18
-30.13
-24.74
-16.22
-5.62
5.46
15.44
23.14
28.11
30.51
30.85
29.74
27.67
25.04
22.15
19.31
16.76
14.61
12.81
11.17
9.49
7.68
5.82
4.12
2.82
2.01
1.61
1.36
0.97
0.23
-0.92
-2.38
-3.99
-5.57
-7.03
-8.32
-9.52
-10.72
-12.02
-13.45
-14.94
-16.35
-17.49
-18.24
-18.62
-18.84
-19.28
-20.36
-22.34
-25.12
-28.11
-30.27
-30.39
-27.48
-21.20
-12.06
-1.35
9.34
18.56
25.42
29.71
31.70
31.93
30.88
28.96
26.45
23.66
20.87
18.35
16.25
14.55
13.06
11.57
9.90
8.04
6.13
4.38
2.97
2.00
1.41
1.06
0.77
0.39
-0.16
-0.93
-1.93
-3.17
-4.68
-6.44
-8.36
-10.31
-12.10
-13.57
-14.63
-15.33
-15.83
-16.43
-17.48
-19.30
-22.00
-25.35
-28.66
-30.86
-30.82
-27.70
-21.29
-12.17
-1.56
9.05
18.33
25.42
30.04
32.39
32.92
32.13
30.51
28.41
26.15
23.94
21.94
20.19
18.63
17.10
15.44
13.55
11.51
9.51
7.84
6.75
6.28
6.24
6.29
6.03
5.22
3.80
1.98
0.09
-1.55
-2.78
-3.65
-4.42
-5.46
-7.04
-9.20
-11.77
-14.36
-16.61
-18.29
-19.38
-20.13
-20.95
-22.27
-24.43
-27.47
-31.01
-34.22
-35.93
-34.94
-30.46
-22.49
-11.93
-0.37
10.42
19.06
24.87
27.90
28.74
28.12
26.66
24.79
22.72
20.58
18.44
16.35
14.27
12.17
10.05
7.99
6.10
4.54
3.38
2.55
1.91
1.28
0.49
-0.52
-1.70
-2.93
-4.11
-5.13
-6.02
-6.89
-7.90
-9.17
-10.72
-12.45
-14.13
-15.53
-16.51
-17.09
-17.48
-18.02
-19.12
-21.05
-23.82
-26.92
-29.38
-29.93
-27.47
-21.51
-12.46
-1.56
9.49
19.10
26.26
30.73
32.83
33.16
32.30
30.61
28.32
25.62
22.70
19.79
17.09
14.67
12.51
10.54
8.72
7.06
5.66
4.56
3.76
3.13
2.50
1.75
0.83
-0.21
-1.31
-2.45
-3.64
-4.97
-6.46
-8.12
-9.88
-11.67
-13.40
-15.00
-16.42
-17.68
-18.83
-20.07
-21.66
-23.83
-26.61
-29.63
-32.05
-32.73
-30.57
-24.96
-16.10
-5.05
6.53
16.95
25.00
30.22
32.86
33.58
33.05
31.76
29.97
27.84
25.56
23.38
21.48
19.90
18.46
16.89
15.01
12.84
10.61
8.68
7.31
6.53
6.14
5.77
5.11
3.96
2.34
0.45
-1.48
-3.25
-4.79
-6.17
-7.55
-9.07
-10.78
-12.65
-14.52
-16.23
-17.64
-18.72
-19.50
-20.13
-20.88
-22.09
-24.11
-27.02
-30.47
-33.59
-35.13
-33.88
-29.15
-21.06
-10.61
0.70
11.27
19.93
26.11
29.85
31.49
31.52
30.33
28.25
25.56
22.55
19.54
16.75
14.32
12.27
10.51
8.95
7.47
6.02
4.55
3.02
1.49
0.04
-1.17
-1.99
-2.44
-2.66
-2.98
-3.68
-4.91
-6.62
-8.62
-10.67
-12.60
-14.34
-15.85
-17.08
-18.02
-18.74
-19.41
-20.36
-21.91
-24.22
-27.06
-29.70
-31.00
-29.79
-25.24
-17.27
-6.72
4.91
15.89
24.79
30.87
34.13
35.06
34.34
32.54
30.04
27.11
24.00
21.02
18.40
16.29
14.63
13.24
11.86
10.36
8.74
7.14
5.75
4.68
3.91
3.24
2.47
1.40
0.02
-1.59
-3.25
-4.84
-6.35
-7.85
-9.43
-11.09
-12.74
-14.29
-15.68
-16.98
-18.35
-19.96
-21.96
-24.43
-27.27
-30.17
-32.54
-33.54
-32.26
-28.06
-20.85
-11.28
-0.54
9.94
18.93
25.70
30.13
32.50
33.27
32.86
31.60
29.71
27.41
24.93
22.48
20.24
18.25
16.46
14.76
13.02
11.22
9.43
7.85
6.64
5.82
5.25
4.62
3.60
2.03
-0.05
-2.35
-4.51
-6.24
-7.47
-8.35
-9.20
-10.31
-11.83
-13.70
-15.69
-17.49
-18.87
-19.79
-20.38
-21.02
-22.11
-24.03
-26.81
-30.08
-32.96
-34.27
-32.90
-28.14
-20.11
-9.72
1.54
12.03
20.46
26.21
29.30
30.22
29.61
28.07
25.99
23.65
21.23
18.88
16.71
14.71
12.82
10.94
9.03
7.10
5.28
3.68
2.40
1.44
0.72
0.12
-0.51
-1.25
-2.20
-3.39
-4.84
-6.51
-8.30
-10.07
-11.70
-13.07
-14.14
-14.92
-15.47
-15.88
-16.34
-17.12
-18.51
-20.71
-23.63
-26.78
-29.20
-29.75
-27.42
-21.74
-13.03
-2.39
8.66
18.57
26.23
31.13
33.34
33.38
31.92
29.62
27.00
24.41
22.01
19.79
17.67
15.52
13.30
11.08
9.01
7.28
5.97
5.08
4.43
3.83
3.07
2.08
0.88
-0.46
-1.84
-3.22
-4.64
-6.13
-7.72
-9.40
-11.11
-12.78
-14.37
-15.82
-17.14
-18.32
-19.42
-20.59
-22.06
-24.10
-26.82
-29.96
-32.81
-34.22
-33.04
-28.50
-20.63
-10.34
0.86
11.37
19.96
26.09
29.85
31.72
32.22
31.73
30.48
28.64
26.47
24.29
22.44
21.07
20.06
19.05
17.66
15.68
13.20
10.63
8.44
6.94
6.09
5.57
4.95
3.86
2.22
0.21
-1.82
-3.57
-4.83
-5.65
-6.21
-6.82
-7.76
-9.23
-11.20
-13.48
-15.74
-17.61
-18.88
-19.59
-20.01
-20.61
-21.89
-24.19
-27.43
-31.08
-34.14
-35.40
-33.76
-28.65
-20.26
-9.59
1.86
12.52
21.15
27.15
30.53
31.74
31.36
29.94
27.87
25.42
22.80
20.18
17.71
15.42
13.26
11.13
8.96
6.82
4.83
3.15
1.88
0.96
0.25
-0.41
-1.15
-1.98
-2.91
-3.88
-4.93
-6.13
-7.55
-9.23
-11.10
-13.04
-14.89
-16.47
-17.70
-18.58
-19.27
-20.04
-21.23
-23.10
-25.71
-28.71
-31.31
-32.39
-30.80
-25.77
-17.30
-6.28
5.74
16.99
26.02
32.04
35.05
35.57
34.39
32.21
29.51
26.56
23.53
20.59
17.91
15.63
13.80
12.33
11.07
9.79
8.34
6.68
4.88
3.12
1.58
0.33
-0.67
-1.55
-2.51
-3.70
-5.19
-6.96
-8.91
-10.88
-12.71
-14.31
-15.67
-16.89
-18.12
-19.58
-21.47
-23.91
-26.92
-30.22
-33.20
-34.91
-34.23
-30.32
-22.95
-12.80
-1.28
9.93
19.39
26.32
30.69
32.97
33.77
33.55
32.58
31.01
28.95
26.61
24.17
21.75
19.41
17.10
14.82
12.61
10.56
8.77
7.30
6.11
5.12
4.18
3.16
1.98
0.63
-0.85
-2.39
-3.94
-5.47
-7.00
-8.54
-10.12
-11.77
-13.44
-15.04
-16.48
-17.73
-18.86
-20.10
-21.78
-24.22
-27.43
-30.98
-33.88
-34.88
-32.79
-27.05
-17.97
-6.75
4.94
15.43
23.58
28.96
31.76
32.55
31.95
30.43
28.38
26.08
23.77
21.62
19.68
17.85
15.94
13.79
11.38
8.89
6.63
4.88
3.76
3.15
2.74
2.18
1.19
-0.23
-1.96
-3.73
-5.39
-6.90
-8.38
-9.98
-11.74
-13.58
-15.28
-16.67
-17.66
-18.33
-18.87
-19.60
-20.83
-22.83
-25.63
-28.90
-31.85
-33.33
-32.13
-27.47
-19.36
-8.76
2.72
13.34
21.78
27.44
30.44
31.33
30.73
29.10
26.65
23.54
19.95
16.22
12.78
9.98
7.98
6.72
5.94
5.34
4.67
3.82
2.81
1.76
0.83
0.08
-0.51
-1.12
-1.97
-3.28
-5.11
-7.34
-9.72
-11.90
-13.67
-14.95
-15.88
-16.69
-17.66
-19.03
-21.00
-23.62
-26.74
-29.88
-32.10
-32.28
-29.36
-22.83
-13.05
-1.21
10.96
21.72
29.87
34.94
37.15
37.12
35.55
33.02
29.98
26.77
23.67
20.94
18.67
16.83
15.26
13.73
12.08
10.20
8.18
6.17
4.32
2.77
1.57
0.65
-0.13
-0.96
-2.01
-3.39
-5.12
-7.14
-9.31
-11.46
-13.43
-15.09
-16.40
-17.40
-18.20
-19.02
-20.16
-21.90
-24.42
-27.69
-31.28
-34.31
-35.63
-34.08
-28.98
-20.42
-9.39
2.55
13.72
22.82
29.27
33.17
35.01
35.42
34.86
33.64
31.91
29.83
27.54
25.19
22.87
20.60
18.34
16.03
13.64
11.27
9.05
7.18
5.73
4.67
3.77
2.76
1.43
-0.24
-2.06
-3.73
-5.02
-5.94
-6.70
-7.65
-9.04
-10.95
-13.19
-15.46
-17.43
-18.88
-19.78
-20.28
-20.73
-21.55
-23.18
-25.83
-29.29
-32.82
-35.22
-35.15
-31.60
-24.28
-13.88
-1.83
10.09
20.30
27.80
32.32
34.17
33.99
32.42
30.03
27.19
24.19
21.26
18.59
16.29
14.39
12.81
11.39
9.98
8.44
6.75
4.97
3.19
1.52
0.01
-1.34
-2.54
-3.68
-4.82
-6.05
-7.46
-9.06
-10.78
-12.50
-14.05
-15.31
-16.26
-16.99
-17.66
-18.49
-19.69
-21.47
-23.98
-27.10
-30.32
-32.72
-33.10
-30.38
-24.06
-14.54
-3.06
8.62
18.82
26.42
31.05
33.04
33.05
31.79
29.79
27.38
24.79
22.22
19.81
17.67
15.76
13.95
12.07
10.05
7.99
6.08
4.52
3.38
2.51
1.61
0.46
-1.02
-2.74
-4.46
-6.04
-7.46
-8.83
-10.30
-11.91
-13.61
-15.24
-16.71
-18.03
-19.29
-20.64
-22.18
-24.01
-26.22
-28.86
-31.77
-34.51
-36.22
-35.85
-32.46
-25.68
-15.91
-4.34
7.44
17.93
26.11
31.64
34.73
35.86
35.58
34.36
32.56
30.46
28.29
26.16
24.07
21.95
19.69
17.23
14.63
12.07
9.78
7.97
6.74
6.00
5.52
4.98
4.02
2.48
0.44
-1.78
-3.81
-5.39
-6.50
-7.39
-8.40
-9.81
-11.68
-13.83
-15.98
-17.82
-19.18
-20.05
-20.58
-21.12
-22.11
-23.96
-26.87
-30.56
-34.17
-36.41
-35.88
-31.67
-23.68
-12.81
-0.61
11.14
21.04
28.32
32.85
34.95
35.08
33.71
31.21
27.96
24.32
20.60
17.08
13.93
11.24
9.07
7.38
6.13
5.14
4.21
3.15
1.86
0.38
-1.19
-2.70
-4.08
-5.33
-6.49
-7.61
-8.75
-9.96
-11.29
-12.78
-14.44
-16.21
-17.93
-19.46
-20.71
-21.76
-22.87
-24.42
-26.72
-29.82
-33.30
-36.23
-37.41
-35.68
-30.43
-21.84
-10.99
0.46
10.72
18.33
22.57
23.49
21.73
18.30
14.11
9.83
5.71
1.62
-2.75
-7.67
-13.24
-19.24
-25.25
-30.79
-35.51
-39.45
-43.15
-47.59
-54.01
-63.44
-76.17
-91.34
-106.90
-120.03
-128.01
-129.18
-123.56
-112.89
-99.88
-87.13
-76.22
-67.26
-59.32
-51.13
-41.95
-31.98
-22.40
-15.00
-11.52
-13.18
-20.15
-31.20
-43.59
-53.43
-56.56
-49.93
-32.68
-6.58
24.67
56.76
86.26
111.26
131.25
146.32
156.46
161.47
161.36
156.93
149.85
142.25
135.99
131.92
129.69
128.01
125.19
119.62
110.07
95.99
77.81
57.22
36.80
19.33
6.81
-0.29
-3.21
-4.35
-6.32
-10.86
-18.09
-26.79
-35.10
-41.31
-44.37
-44.20
-41.69
-38.51
-36.93
-38.71
-45.50
-58.19
-75.93
-95.11
-109.51
-111.99
-97.33
-64.69
-17.34
36.60
86.73
124.01
144.12
148.43
142.31
132.12
122.56
117.93
119.40
125.66
134.17
143.05
151.67
159.91
167.08
171.66
174.84
177.37
179.41
180.67
181.44
182.92
186.19
191.30
179.03
140.13
78.95
11.23
-47.81
-90.88
-118.21
-134.26
-144.74
-154.46
-161.36
-164.59
-163.60
-159.19
-152.86
-146.24
-141.18
-139.68
-143.04
-149.81
-156.26
-158.27
-153.65
-142.27
-124.90
-102.94
-78.72
-54.96
-33.00
-14.45
-1.52
3.56
0.69
-7.13
-14.82
-17.91
-14.05
-3.83
8.85
18.33
19.97
12.91
-0.02
-14.34
-27.13
-36.93
-43.42
-46.52
-46.10
-41.81
-32.98
-19.85
-4.05
10.90
22.62
30.74
37.23
44.70
51.30
54.28
51.09
46.85
42.72
39.26
34.88
30.15
25.88
22.55
20.91
21.62
25.03
30.01
35.54
40.45
43.76
44.38
41.67
36.26
29.54
23.03
17.03
11.57
6.25
0.63
-5.93
-13.82
-22.60
-31.26
-38.60
-44.14
-47.53
-48.78
-48.05
-45.88
-42.89
-39.41
-35.69
-32.03
-29.08
-27.33
-27.04
-28.06
-30.03
-32.52
-34.97
-36.96
-38.31
-39.10
-39.34
-38.92
-37.57
-34.95
-30.82
-24.86
-17.07
-7.83
2.10
11.84
20.65
28.13
34.16
38.83
42.60
45.87
48.84
51.56
54.01
56.14
57.94
59.29
57.92
52.22
41.91
28.30
13.48
-1.04
-14.65
-27.31
-39.08
-49.87
-58.95
-65.42
-68.62
-68.24
-64.80
-59.53
-53.82
-49.03
-46.24
-45.72
-46.85
-47.95
-46.70
-39.93
-25.64
-3.74
23.61
52.46
78.44
97.80
106.31
103.83
92.26
74.42
53.48
32.50
14.05
-0.12
-9.37
-14.28
-15.89
-15.64
-14.83
-14.22
-14.12
-14.58
-15.46
-16.50
-17.36
-17.49
-16.70
-15.27
-13.53
-11.93
-10.77
-10.13
-9.86
-9.72
-9.37
-8.79
-8.21
-7.87
-7.84
-7.80
-7.15
-5.24
-1.74
3.23
8.96
14.40
18.52
20.69
20.83
19.28
16.62
13.37
9.98
6.72
3.77
1.23
-0.85
-2.50
-3.79
-4.90
-5.99
-7.18
-8.31
-9.07
-9.11
-8.24
-6.54
-4.45
-2.61
-1.64
-1.98
-3.51
-5.64
-7.79
-9.80
-12.05
-15.00
-18.76
-23.07
-27.48
-31.19
-33.63
-34.58
-34.04
-32.00
-28.36
-22.91
-15.57
-6.54
3.63
14.08
23.85
32.15
38.55
43.00
45.67
46.78
46.49
44.99
42.46
39.13
35.37
31.58
28.10
25.11
22.60
20.44
18.45
16.45
14.32
12.05
9.83
8.10
7.39
8.07
9.95
12.19
13.38
12.02
7.19
-1.15
-12.11
-24.25
-36.15
-46.78
-55.52
-61.97
-65.73
-66.40
-63.72
-57.88
-49.60
-39.99
-30.24
-21.26
-13.50
-7.00
-1.58
2.93
6.57
9.29
11.06
11.98
12.35
12.59
13.08
13.97
15.13
16.18
16.62
16.06
14.32
11.47
7.76
3.48
-1.13
-5.86
-10.54
-14.96
-18.91
-22.24
-24.88
-26.85
-28.18
-28.83
-28.65
-27.44
-25.01
-21.38
-16.76
-11.58
-6.32
-1.39
2.98
6.74
9.99
12.83
15.32
17.46
19.26
20.74
21.91
22.83
23.52
23.96
24.16
24.21
24.30
24.63
25.33
26.27
27.11
27.37
26.63
24.75
21.91
18.59
15.45
13.10
11.90
11.84
12.50
13.14
12.89
11.02
7.11
1.34
-5.57
-12.42
-17.84
-20.65
-20.23
-16.74
-11.07
-4.56
1.45
6.03
8.84
10.10
10.23
9.62
8.41
6.57
4.02
0.80
-2.93
-6.88
-10.76
-14.34
-17.44
-19.96
-21.84
-23.02
-23.50
-23.32
-22.60
-21.52
-20.37
-19.48
-19.24
-19.98
-21.85
-24.69
-27.96
-30.78
-32.22
-31.49
-28.22
-22.56
-15.13
-6.74
1.76
9.71
16.68
22.40
26.79
29.97
32.29
34.21
36.17
38.26
40.21
41.44
41.35
39.70
36.73
33.03
29.31
26.06
23.42
21.29
19.47
17.78
16.08
14.19
11.83
