1660935800.00
64.000000
-0.00
-0.00
-0.00
-0.00
-0.00
-0.00
-0.00
-0.00
-0.00
-0.00
0.00
0.01
0.01
-0.00
-0.03
-0.05
-0.05
0.00
0.13
0.36
0.66
1.01
1.37
1.72
2.06
2.40
2.79
3.25
3.81
4.44
5.10
5.73
6.32
6.89
7.51
8.25
9.15
10.29
11.56
12.82
13.96
14.93
15.82
16.83
18.17
20.01
22.53
25.51
28.66
31.67
34.41
37.00
39.82
43.32
47.81
53.62
60.33
67.36
74.15
80.40
86.33
92.56
99.86
108.72
119.53
131.59
143.96
155.73
166.51
176.63
187.02
199.20
211.79
226.74
244.21
263.99
284.78
303.97
317.73
322.00
313.69
291.83
258.27
216.15
169.23
120.58
72.11
24.73
-20.99
-64.41
-104.90
-141.91
-175.99
-208.42
-240.92
-274.98
-310.89
-347.17
-380.47
-406.41
-420.82
-421.49
-409.05
-386.72
-359.04
-330.16
-302.53
-276.77
-252.42
-228.84
-206.21
-185.26
-166.73
-150.70
-136.48
-122.88
-108.96
-94.44
-79.76
-65.92
-53.83
-43.95
-36.07
-29.49
-23.35
-17.02
-10.33
-3.57
2.72
7.98
11.94
14.67
16.54
18.06
19.66
21.54
23.60
25.54
27.00
27.73
27.70
27.10
26.24
25.44
24.85
24.48
24.18
23.83
23.35
22.78
22.18
21.62
21.09
20.54
19.92
19.23
18.52
17.87
17.38
17.08
16.95
16.89
16.78
16.53
16.06
15.40
14.64
13.91
13.31
12.89
12.66
12.53
12.39
12.17
11.83
11.34
10.77
10.15
9.58
9.12
8.84
8.77
8.87
9.05
9.15
9.05
8.69
8.09
7.40
6.77
6.35
6.17
6.16
6.18
6.11
5.90
5.60
5.27
5.03
4.90
4.84
4.77
4.57
4.21
3.68
3.05
2.42
1.85
1.36
0.89
0.36
-0.27
-1.01
-1.78
-2.51
-3.18
-3.79
-4.41
-5.07
-5.75
-6.36
-6.84
-7.16
-7.38
-7.58
-7.85
-8.22
-8.64
-9.08
-9.47
-9.77
-9.89
-9.78
-9.42
-8.84
-8.15
-7.46
-6.89
-6.45
-6.06
-5.61
-5.03
-4.31
-3.57
-2.94
-2.49
-2.23
-2.08
-1.92
-1.65
-1.18
-0.48
0.44
1.55
2.74
3.80
4.50
4.64
4.15
3.20
2.13
1.31
1.00
1.25
1.87
2.57
3.07
3.27
3.23
3.10
3.06
3.17
3.41
3.65
3.79
3.76
3.60
3.36
3.12
2.97
2.95
3.09
3.39
3.80
4.27
4.73
5.10
5.35
5.46
5.43
5.28
5.02
4.68
4.32
3.99
3.76
3.62
3.52
3.39
3.21
3.01
2.91
3.01
3.35
3.80
4.17
4.25
3.92
3.28
2.56
2.03
1.84
1.98
2.26
2.45
2.43
2.24
2.05
2.02
2.19
2.45
2.58
2.43
2.01
1.52
1.23
1.34
1.82
2.47
2.95
3.02
2.61
1.87
1.05
0.43
0.15
0.22
0.56
1.00
1.39
1.63
1.66
1.50
1.21
0.90
0.67
0.59
0.69
0.92
1.21
1.48
1.65
1.70
1.65
1.53
1.38
1.22
1.08
0.98
0.95
1.01
1.15
1.34
1.52
1.62
1.59
1.45
1.26
1.08
0.94
0.86
0.84
0.88
0.98
1.12
1.28
1.38
1.38
1.28
1.11
0.94
0.85
0.84
0.86
0.83
0.69
0.50
0.35
0.35
0.52
0.79
1.02
1.10
1.00
0.83
0.72
0.76
0.94
1.16
1.29
1.25
1.05
0.79
0.59
0.51
0.56
0.66
0.73
0.70
0.58
0.44
0.39
0.47
0.68
0.93
1.10
1.14
1.06
0.93
0.85
0.86
0.91
0.91
0.79
0.54
0.20
-0.15
-0.42
-0.56
-0.58
-0.47
-0.29
-0.08
0.09
0.17
0.14
0.04
-0.06
-0.08
0.03
0.27
0.56
0.84
1.02
1.08
1.03
0.85
0.59
0.27
-0.07
-0.36
-0.52
-0.51
-0.33
-0.02
0.28
0.47
0.49
0.35
0.16
0.04
0.06
0.23
0.46
0.62
0.64
0.51
0.32
0.16
0.08
0.07
0.06
0.03
-0.02
-0.00
0.12
0.35
0.61
0.78
0.78
0.59
0.31
0.07
0.00
0.13
0.40
0.66
0.82
0.80
0.62
0.36
0.09
-0.13
-0.29
-0.40
-0.47
-0.46
-0.31
0.02
0.53
1.14
1.70
2.05
2.10
1.83
1.36
0.86
0.46
0.22
0.08
-0.07
-0.29
-0.53
-0.68
-0.62
-0.36
-0.01
0.25
0.30
0.16
-0.03
-0.07
0.10
0.42
0.68
0.73
0.55
0.24
-0.02
-0.13
-0.09
0.01
0.09
0.14
0.24
0.47
0.80
1.14
1.33
1.28
1.03
0.70
0.41
0.23
0.14
0.08
-0.01
-0.09
-0.14
-0.14
-0.08
-0.02
-0.02
-0.08
-0.22
-0.41
-0.62
-0.78
-0.81
-0.68
-0.40
-0.03
0.28
0.45
0.45
0.35
0.28
0.30
0.40
0.50
0.53
0.45
0.35
0.33
0.45
0.65
0.83
0.88
0.74
0.48
0.23
0.09
0.09
0.13
0.09
-0.10
-0.43
-0.76
-0.93
-0.85
-0.54
-0.12
0.24
0.43
0.41
0.26
0.09
0.01
0.03
0.13
0.22
0.24
0.17
0.03
-0.11
-0.20
-0.22
-0.18
-0.10
0.05
0.28
0.60
0.96
1.23
1.28
1.02
0.48
-0.18
-0.73
-0.97
-0.82
-0.35
0.24
0.72
0.95
0.92
0.70
0.42
0.17
-0.04
-0.20
-0.31
-0.31
-0.15
0.16
0.53
0.77
0.78
0.52
0.14
-0.15
-0.19
0.03
0.35
0.57
0.53
0.24
-0.16
-0.46
-0.55
-0.41
-0.15
0.11
0.28
0.34
0.32
0.24
0.10
-0.15
-0.53
-1.02
-1.53
-1.93
-2.08
-1.94
-1.54
-0.99
-0.43
0.01
0.31
0.45
0.49
0.48
0.46
0.46
0.48
0.50
0.52
0.51
0.44
0.31
0.13
-0.03
-0.11
-0.07
0.05
0.20
0.29
0.27
0.13
-0.09
-0.32
-0.53
-0.69
-0.87
-1.07
-1.28
-1.43
-1.45
-1.26
-0.84
-0.22
0.55
1.40
2.22
2.82
2.99
2.50
1.29
-0.52
-2.61
-4.54
-5.89
-6.47
-6.36
-5.91
-5.57
-5.64
-6.15
-6.81
-7.16
-6.89
-6.01
-4.90
-4.13
-4.17
-5.19
-7.00
-9.22
-11.55
-13.91
-16.38
-19.11
-22.18
-25.54
-29.17
-33.07
-37.29
-41.72
-46.05
-49.80
-52.58
-54.40
-55.72
-57.33
-59.94
-63.85
-68.93
-74.75
-80.92
-87.36
-94.24
-101.87
-110.43
-119.96
-130.28
-140.95
-151.31
-160.38
-166.99
-170.22
-169.87
-166.66
-161.92
-156.72
-150.93
-142.92
-129.96
-109.27
-79.19
-39.91
6.44
56.22
105.00
148.38
182.73
205.88
217.49
219.11
213.65
204.54
194.79
186.37
180.14
176.12
173.86
172.69
171.83
170.59
168.57
165.93
163.47
162.26
163.22
166.71
172.33
179.23
186.49
193.52
200.34
207.40
215.31
224.54
235.12
246.47
257.27
265.53
268.86
264.92
252.11
230.13
200.09
164.10
124.47
82.77
39.34
-6.34
-54.64
-104.53
-152.95
-195.32
-227.07
-245.45
-250.63
-245.49
-234.29
-220.87
-207.44
-194.38
-181.14
-167.35
-153.47
-140.61
-129.87
-121.53
-114.88
-108.65
-101.66
-93.45
-84.42
-75.56
-67.86
-61.83
-57.31
-53.58
-49.79
-45.36
-40.24
-34.81
-29.69
-25.41
-22.18
-19.88
-18.11
-16.40
-14.41
-12.02
-9.38
-6.82
-4.72
-3.31
-2.61
-2.42
-2.43
-2.34
-1.99
-1.41
-0.74
-0.18
0.13
0.16
0.02
-0.16
-0.25
-0.22
-0.11
-0.01
0.03
0.01
-0.03
-0.04
-0.01
0.03
0.03
0.01
0.00
0.08
0.27
0.50
0.67
0.64
0.38
-0.09
-0.64
-1.09
-1.28
-1.11
-0.59
0.15
0.90
1.43
1.58
1.33
0.79
0.15
-0.40
-0.78
-0.99
-1.09
-1.12
-1.10
-1.03
-0.97
-0.96
-1.09
-1.32
-1.59
-1.77
-1.79
-1.67
-1.51
-1.44
-1.48
-1.56
-1.47
-1.02
-0.05
1.41
3.19
4.97
6.43
7.26
7.26
6.43
4.96
3.19
1.55
0.39
-0.14
-0.12
0.19
0.45
0.44
0.11
-0.40
-0.89
-1.16
-1.20
-1.13
-1.12
-1.28
-1.58
-1.85
-1.92
-1.67
-1.20
-0.73
-0.52
-0.69
-1.14
-1.59
-1.78
-1.53
-0.93
-0.18
0.50
1.04
1.50
2.02
2.58
3.09
3.32
3.15
2.62
1.94
1.36
1.04
0.92
0.79
0.44
-0.21
-1.05
-1.84
-2.32
-2.34
-1.91
-1.15
-0.25
0.56
1.11
1.25
0.88
0.07
-0.99
-2.02
-2.69
-2.83
-2.46
-1.79
-1.11
-0.66
-0.53
-0.67
-0.95
-1.21
-1.32
-1.10
-0.46
0.59
1.86
2.95
3.49
3.26
2.39
1.30
0.48
0.23
0.50
0.96
1.23
1.09
0.59
-0.05
-0.61
-1.03
-1.37
-1.73
-2.12
-2.43
-2.52
-2.32
-1.92
-1.51
-1.33
-1.46
-1.87
-2.39
-2.83
-3.05
-2.95
-2.49
-1.65
-0.45
0.99
2.46
3.66
4.35
4.48
4.16
3.67
3.26
3.06
3.00
2.93
2.73
2.42
2.10
1.85
1.69
1.50
1.13
0.52
-0.25
-0.96
-1.41
-1.54
-1.44
-1.36
-1.55
-2.06
-2.76
-3.36
-3.57
-3.25
-2.45
-1.31
0.03
1.44
2.80
3.90
4.46
4.27
3.35
2.00
0.75
0.04
0.04
0.52
1.04
1.25
1.02
0.55
0.09
-0.15
-0.21
-0.25
-0.43
-0.80
-1.27
-1.69
-1.98
-2.13
-2.19
-2.21
-2.20
-2.12
-1.94
-1.63
-1.19
-0.66
-0.10
0.42
0.82
0.99
0.92
0.65
0.33
0.17
0.34
0.82
1.44
1.91
2.00
1.65
1.03
0.38
-0.10
-0.40
-0.65
-1.06
-1.68
-2.42
-3.08
-3.51
-3.69
-3.72
-3.76
-3.87
-4.04
-4.17
-4.20
-4.13
-4.05
-4.00
-4.02
-4.08
-4.11
-4.11
-4.11
-4.16
-4.30
-4.49
-4.60
-4.46
-3.92
-2.89
-1.39
0.43
2.28
3.85
4.81
4.99
4.42
3.36
2.25
1.59
1.77
2.92
4.87
7.21
9.40
10.97
11.67
11.52
10.75
9.68
8.61
7.63
6.72
5.78
4.72
3.58
2.46
1.50
0.76
0.22
-0.24
-0.73
-1.28
-1.86
-2.37
-2.70
-2.80
-2.68
-2.39
-1.98
-1.47
-0.87
-0.20
0.48
1.09
1.51
1.68
1.60
1.34
1.00
0.69
0.42
0.17
-0.15
-0.57
-1.09
-1.63
-2.08
-2.36
-2.47
-2.49
-2.49
-2.55
-2.67
-2.76
-2.75
-2.61
-2.39
-2.20
-2.12
-2.14
-2.16
-2.03
-1.71
-1.24
-0.75
-0.35
0.01
0.47
1.17
2.12
3.13
3.88
4.09
3.76
3.09
2.42
2.02
1.89
1.87
1.71
1.31
0.73
0.19
-0.13
-0.20
-0.17
-0.24
-0.56
-1.12
-1.76
-2.29
-2.54
-2.47
-2.20
-1.91
-1.76
-1.85
-2.11
-2.42
-2.62
-2.61
-2.31
-1.74
-0.96
-0.10
0.66
1.13
1.18
0.79
0.13
-0.52
-0.87
-0.78
-0.34
0.23
0.70
0.92
0.94
0.90
0.92
1.01
1.11
1.12
1.00
0.81
0.61
0.45
0.33
0.18
-0.06
-0.40
-0.82
-1.27
-1.69
-2.04
-2.25
-2.27
-2.08
-1.74
-1.36
-1.05
-0.83
-0.61
-0.25
0.32
1.07
1.80
2.29
2.44
2.27
1.97
1.72
1.61
1.59
1.53
1.35
1.05
0.73
0.47
0.30
0.16
-0.05
-0.38
-0.78
-1.16
-1.40
-1.44
-1.33
-1.14
-0.94
-0.79
-0.71
-0.71
-0.80
-0.93
-1.01
-0.90
-0.50
0.16
0.93
1.53
1.74
1.49
0.91
0.28
-0.14
-0.23
-0.02
0.27
0.46
0.45
0.24
-0.06
-0.36
-0.58
-0.70
-0.73
-0.67
-0.53
-0.33
-0.11
0.09
0.21
0.24
0.20
0.11
-0.00
-0.15
-0.33
-0.55
-0.81
-1.05
-1.25
-1.34
-1.28
-0.99
-0.41
0.46
1.52
2.56
3.30
3.53
3.18
2.41
1.51
0.78
0.38
0.26
0.26
0.16
-0.09
-0.43
-0.75
-0.96
-1.12
-1.33
-1.66
-2.05
-2.35
-2.40
-2.13
-1.63
-1.14
-0.86
-0.90
-1.20
-1.58
-1.85
-1.86
-1.54
-0.89
0.04
1.17
2.33
3.30
3.85
3.85
3.34
2.53
1.70
1.07
0.71
0.51
0.29
-0.08
-0.60
-1.16
-1.63
-1.96
-2.18
-2.38
-2.61
-2.84
-2.99
-2.99
-2.83
-2.54
-2.19
-1.84
-1.48
-1.11
-0.68
-0.21
0.30
0.91
1.71
2.79
4.14
5.55
6.66
7.06
6.56
5.25
3.51
1.88
0.78
0.33
0.35
0.47
0.38
-0.04
-0.67
-1.26
-1.60
-1.64
-1.49
-1.36
-1.43
-1.73
-2.19
-2.60
-2.82
-2.82
-2.67
-2.48
-2.31
-2.14
-1.86
-1.38
-0.69
0.13
0.91
1.51
1.89
2.11
2.30
2.60
3.03
3.48
3.72
3.57
2.92
1.88
0.71
-0.29
-0.92
-1.14
-1.14
-1.14
-1.30
-1.64
-2.05
-2.37
-2.56
-2.63
-2.68
-2.77
-2.91
-3.08
-3.24
-3.37
-3.49
-3.58
-3.59
-3.48
-3.21
-2.77
-2.18
-1.48
-0.71
0.06
0.76
1.33
1.79
2.23
2.79
3.55
4.44
5.21
5.52
5.13
4.06
2.56
1.08
0.04
-0.30
0.05
0.86
1.79
2.53
2.91
2.94
2.74
2.47
2.24
2.03
1.80
1.46
1.00
0.46
-0.05
-0.47
-0.78
-0.99
-1.13
-1.23
-1.30
-1.35
-1.39
-1.46
-1.54
-1.61
-1.64
-1.57
-1.33
-0.92
-0.30
0.48
1.34
2.15
2.76
3.02
2.88
2.36
1.62
0.83
0.18
-0.23
-0.41
-0.42
-0.38
-0.37
-0.45
-0.60
-0.80
-1.04
-1.32
-1.60
-1.86
-2.04
-2.09
-2.03
-1.91
-1.80
-1.71
-1.62
-1.44
-1.12
-0.67
-0.14
0.38
0.86
1.33
1.86
2.49
3.14
3.63
3.79
3.53
2.94
2.21
1.61
1.26
1.16
1.14
0.99
0.59
-0.02
-0.69
-1.26
-1.61
-1.76
-1.82
-1.92
-2.10
-2.33
-2.47
-2.44
-2.17
-1.74
-1.27
-0.92
-0.77
-0.80
-0.94
-1.06
-1.04
-0.82
-0.40
0.18
0.84
1.50
2.07
2.44
2.50
2.20
1.56
0.71
-0.11
-0.68
-0.88
-0.71
-0.35
-0.01
0.16
0.15
0.03
-0.04
-0.00
0.12
0.17
0.04
-0.35
-0.91
-1.49
-1.91
-2.07
-2.01
-1.84
-1.73
-1.79
-2.06
-2.43
-2.77
-2.88
-2.66
-2.08
-1.22
-0.26
0.63
1.31
1.73
1.91
1.89
1.73
1.49
1.25
1.07
1.06
1.26
1.59
1.91
2.02
1.79
1.24
0.51
-0.19
-0.69
-0.94
-1.00
-0.96
-0.86
-0.74
-0.56
-0.37
-0.25
-0.33
-0.65
-1.15
-1.64
-1.87
-1.67
-1.01
0.00
1.12
2.12
2.78
2.99
2.74
2.08
1.18
0.26
-0.46
-0.80
-0.74
-0.34
0.22
0.75
1.09
1.18
1.01
0.64
0.16
-0.27
-0.55
-0.60
-0.44
-0.22
-0.11
-0.23
-0.56
-0.95
-1.18
-1.11
-0.78
-0.35
-0.04
0.00
-0.23
-0.61
-1.01
-1.29
-1.36
-1.13
-0.49
0.58
1.96
3.36
4.34
4.53
3.79
2.37
0.78
-0.39
-0.80
-0.51
0.10
0.57
0.54
0.01
-0.80
-1.54
-1.95
-1.98
-1.75
-1.45
-1.22
-1.13
-1.15
-1.22
-1.28
-1.27
-1.21
-1.10
-0.97
-0.86
-0.77
-0.69
-0.57
-0.39
-0.15
0.14
0.50
0.96
1.55
2.29
3.07
3.68
3.88
3.55
2.80
1.90
1.20
0.90
0.96
1.09
0.95
0.36
-0.63
-1.75
-2.68
-3.25
-3.48
-3.55
-3.68
-3.97
-4.35
-4.65
-4.69
-4.40
-3.86
-3.22
-2.66
-2.25
-1.90
-1.44
-0.71
0.37
1.72
3.22
4.75
6.25
7.64
8.79
9.45
9.41
8.59
7.21
5.70
4.52
3.90
3.71
3.57
3.07
2.01
0.55
-0.95
-2.12
-2.79
-3.05
-3.14
-3.30
-3.59
-3.93
-4.10
-3.94
-3.46
-2.82
-2.25
-1.96
-2.02
-2.33
-2.68
-2.86
-2.75
-2.35
-1.75
-1.05
-0.34
0.37
1.07
1.68
2.12
2.29
2.16
1.81
1.36
0.97
0.69
0.44
0.09
-0.45
-1.18
-1.93
-2.50
-2.75
-2.72
-2.56
-2.46
-2.52
-2.71
-2.86
-2.83
-2.57
-2.14
-1.71
-1.42
-1.28
-1.24
-1.14
-0.88
-0.43
0.19
0.96
1.84
2.84
3.86
4.73
5.20
5.04
4.23
2.96
1.62
0.59
0.10
0.13
0.43
0.72
0.80
0.69
0.53
0.45
0.50
0.57
0.48
0.14
-0.40
-0.97
-1.37
-1.49
-1.34
-1.09
-0.92
-0.95
-1.18
-1.54
-1.87
-2.05
-2.03
-1.81
-1.46
-1.08
-0.75
-0.45
-0.10
0.42
1.19
2.15
3.08
3.73
3.86
3.46
2.66
1.74
0.94
0.34
-0.09
-0.48
-0.90
-1.31
-1.60
-1.67
-1.53
-1.31
-1.19
-1.29
-1.59
-1.99
-2.34
-2.53
-2.55
-2.43
-2.24
-2.03
-1.82
-1.60
-1.37
-1.11
-0.79
-0.38
0.17
0.87
1.69
2.58
3.44
4.15
4.63
4.84
4.77
4.47
4.00
3.46
2.91
2.41
1.98
1.64
1.39
1.22
1.06
0.79
0.30
-0.48
-1.48
-2.50
-3.31
-3.69
-3.60
-3.17
-2.59
-2.10
-1.79
-1.64
-1.55
-1.46
-1.38
-1.34
-1.39
-1.49
-1.54
-1.41
-1.06
-0.51
0.12
0.75
1.30
1.73
2.00
2.09
1.95
1.63
1.24
0.95
0.89
1.10
1.43
1.62
1.44
0.78
-0.26
-1.41
-2.35
-2.83
-2.79
-2.37
-1.84
-1.47
-1.42
-1.64
-1.95
-2.15
-2.10
-1.80
-1.37
-0.96
-0.67
-0.49
-0.38
-0.27
-0.17
-0.11
-0.09
-0.06
0.10
0.52
1.22
2.04
2.70
2.91
2.54
1.73
0.80
0.14
0.00
0.36
0.96
1.47
1.64
1.42
0.96
0.48
0.12
-0.13
-0.36
-0.68
-1.10
-1.46
-1.58
-1.34
-0.78
-0.13
0.37
0.53
0.39
0.11
-0.09
-0.11
0.00
0.10
0.12
0.14
0.35
0.89
1.74
2.62
3.20
3.21
2.64
1.75
0.90
0.38
0.27
0.42
0.61
0.63
0.39
-0.03
-0.50
-0.92
-1.19
-1.32
-1.35
-1.30
-1.22
-1.12
-0.99
-0.86
-0.75
-0.68
-0.69
-0.76
-0.85
-0.92
-0.89
-0.78
-0.62
-0.48
-0.46
-0.60
-0.80
-0.91
-0.72
-0.13
0.80
1.81
2.56
2.83
2.59
2.02
1.42
1.01
0.88
0.92
0.98
0.96
0.87
0.78
0.76
0.79
0.80
0.71
0.47
0.14
-0.17
-0.34
-0.34
-0.19
0.02
0.16
0.14
-0.05
-0.36
-0.67
-0.86
-0.85
-0.64
-0.25
0.21
0.64
0.93
1.03
0.97
0.81
0.70
0.79
1.12
1.61
2.09
2.34
2.23
1.77
1.14
0.55
0.18
0.08
0.13
0.18
0.05
-0.28
-0.77
-1.24
-1.55
-1.61
-1.47
-1.28
-1.19
-1.28
-1.55
-1.85
-2.06
-2.09
-1.98
-1.83
-1.77
-1.85
-1.99
-2.07
-1.96
-1.62
-1.12
-0.49
0.24
1.15
2.27
3.47
4.48
4.90
4.51
3.35
1.83
0.49
-0.22
-0.20
0.30
0.78
0.84
0.32
-0.62
-1.61
-2.33
-2.60
-2.50
-2.28
-2.18
-2.32
-2.69
-3.07
-3.29
-3.24
-2.93
-2.49
-2.05
-1.71
-1.47
-1.28
-1.07
-0.77
-0.43
-0.11
0.07
0.09
0.04
0.15
0.66
1.66
2.95
4.09
4.59
4.17
2.99
1.55
0.44
0.02
0.23
0.68
0.89
0.58
-0.21
-1.20
-2.08
-2.67
-2.96
-3.10
-3.23
-3.40
-3.53
-3.50
-3.22
-2.70
-2.06
-1.48
-1.12
-1.04
-1.14
-1.26
-1.24
-0.99
-0.50
0.22
1.19
2.41
3.86
5.37
6.64
7.33
7.23
6.35
4.96
3.49
2.35
1.79
1.85
2.34
2.99
3.49
3.63
3.31
2.63
1.76
0.93
0.25
-0.25
-0.65
-1.05
-1.47
-1.85
-2.06
-2.03
-1.79
-1.46
-1.23
-1.23
-1.47
-1.88
-2.31
-2.63
-2.76
-2.71
-2.53
-2.23
-1.81
-1.20
-0.41
0.45
1.16
1.46
1.19
0.41
-0.66
-1.70
-2.44
-2.81
-2.90
-2.89
-2.94
-3.10
-3.30
-3.45
-3.48
-3.38
-3.24
-3.14
-3.17
-3.37
-3.70
-4.10
-4.46
-4.71
-4.80
-4.74
-4.61
-4.49
-4.44
-4.48
-4.57
-4.59
-4.43
-3.98
-3.16
-1.92
-0.29
1.69
3.89
6.11
8.12
9.71
10.74
11.24
11.40
11.47
11.66
12.05
12.51
12.78
12.61
11.85
10.57
8.93
7.19
5.54
4.03
2.64
1.26
-0.15
-1.54
-2.82
-3.84
-4.53
-4.90
-5.03
-5.07
-5.13
-5.25
-5.39
-5.46
-5.38
-5.14
-4.80
-4.39
-3.93
-3.32
-2.45
-1.27
0.07
1.30
2.10
2.28
1.88
1.19
0.58
0.33
0.50
0.91
1.29
1.38
1.07
0.42
-0.36
-1.03
-1.43
-1.51
-1.37
-1.15
-0.99
-0.93
-0.92
-0.83
-0.59
-0.22
0.18
0.43
0.44
0.17
-0.29
-0.78
-1.21
-1.52
-1.75
-1.92
-2.02
-1.93
-1.51
-0.73
0.29
1.31
2.01
2.24
2.04
1.62
1.24
1.04
0.98
0.88
0.56
-0.00
-0.68
-1.25
-1.56
-1.59
-1.51
-1.50
-1.68
-1.96
-2.15
-2.01
-1.43
-0.51
0.50
1.32
1.76
1.77
1.48
1.05
0.61
0.22
-0.10
-0.30
-0.33
-0.10
0.41
1.12
1.83
2.30
2.33
1.92
1.21
0.48
0.02
-0.05
0.21
0.58
0.81
0.74
0.34
-0.29
-0.98
-1.60
-2.06
-2.34
-2.45
-2.41
-2.25
-2.01
-1.75
-1.53
-1.37
-1.22
-1.06
-0.86
-0.64
-0.45
-0.34
-0.30
-0.32
-0.34
-0.34
-0.32
-0.26
-0.07
0.38
1.17
2.25
3.39
4.24
4.51
4.11
3.23
2.25
1.53
1.25
1.31
1.47
1.47
1.18
0.67
0.10
-0.35
-0.58
-0.62
-0.56
-0.48
-0.45
-0.45
-0.44
-0.36
-0.20
-0.02
0.10
0.06
-0.15
-0.49
-0.84
-1.06
-1.06
-0.81
-0.35
0.23
0.86
1.46
1.97
2.31
2.41
2.23
1.75
1.06
0.26
-0.49
-1.09
-1.44
-1.52
-1.35
-1.02
-0.65
-0.34
-0.20
-0.26
-0.48
-0.76
-0.97
-1.03
-0.94
-0.76
-0.56
-0.44
-0.44
-0.56
-0.72
-0.82
-0.77
-0.53
-0.12
0.36
0.79
1.09
1.20
1.12
0.91
0.65
0.48
0.60
1.13
2.09
3.27
4.33
4.85
4.59
3.57
2.10
0.65
-0.40
-0.89
-0.95
-0.87
-0.90
-1.11
-1.41
-1.65
-1.75
-1.78
-1.90
-2.24
-2.77
-3.30
-3.58
-3.44
-2.90
-2.19
-1.59
-1.30
-1.35
-1.62
-1.91
-2.05
-1.92
-1.52
-0.85
-0.02
0.84
1.50
1.80
1.66
1.19
0.64
0.26
0.18
0.36
0.59
0.66
0.46
0.04
-0.41
-0.72
-0.81
-0.73
-0.60
-0.57
-0.70
-1.00
-1.42
-1.87
-2.26
-2.54
-2.67
-2.66
-2.56
-2.46
-2.43
-2.54
-2.74
-3.00
-3.26
-3.53
-3.84
-4.20
-4.47
-4.41
-3.76
-2.41
-0.52
1.53
3.27
4.38
4.79
4.68
4.31
3.82
3.22
2.35
1.12
-0.40
-1.99
-3.36
-4.34
-4.90
-5.17
-5.33
-5.48
-5.56
-5.38
-4.70
-3.36
-1.41
0.86
3.01
4.62
5.47
5.73
5.86
6.49
8.06
10.62
13.66
16.21
17.26
16.09
12.68
7.68
2.20
-2.74
-6.44
-8.74
-9.72
-9.55
-8.27
-5.91
-2.66
1.06
4.66
7.59
9.57
10.63
10.90
10.45
9.21
7.07
4.11
0.67
-2.65
-5.35
-7.15
-8.05
-8.33
-8.38
-8.61
-9.18
-9.83
-9.75
-7.92
-3.58
3.14
11.02
18.11
22.49
23.25
20.83
16.76
12.78
9.97
8.36
7.18
5.55
3.02
-0.26
-3.89
-7.54
-11.15
-14.74
-18.03
-20.37
-20.80
-18.71
-14.24
-8.44
-2.92
0.89
2.34
1.77
0.22
-1.24
-2.05
-2.34
-2.67
-3.58
-5.29
-7.65
-10.41
-13.34
-16.14
-18.28
-18.83
-16.75
-11.42
-3.21
6.47
15.54
22.15
25.36
25.40
23.26
20.08
16.63
13.18
9.77
6.48
3.57
1.33
-0.17
-1.13
-1.98
-3.04
-4.41
-5.79
-6.72
-6.78
-5.85
-4.17
-2.29
-0.77
0.03
0.08
-0.31
-0.72
-0.84
-0.62
-0.27
-0.06
-0.18
-0.60
-1.13
-1.49
-1.53
-1.25
-0.77
-0.28
0.11
0.32
0.38
0.36
0.28
0.15
-0.06
-0.38
-0.82
-1.29
-1.67
-1.86
-1.78
-1.46
-0.96
-0.42
0.06
0.39
0.52
0.47
0.30
0.10
-0.05
-0.08
0.00
0.13
0.22
0.24
0.22
0.23
0.31
0.43
0.54
0.58
0.54
0.48
0.46
0.51
0.56
0.54
0.40
0.15
-0.12
-0.31
-0.37
-0.33
-0.25
-0.20
-0.19
-0.19
-0.14
-0.04
0.09
0.17
0.12
-0.11
-0.51
-1.05
-1.70
-2.46
-3.35
-4.40
-5.59
-6.83
-7.96
-8.79
-9.19
-9.14
-8.79
-8.45
-8.44
-8.98
-10.07
-11.50
-12.91
-13.97
-14.60
-15.01
-15.67
-17.02
-19.32
-22.44
-25.90
-29.09
-31.54
-33.16
-34.38
-35.92
-38.58
-42.81
-48.56
-55.19
-61.75
-67.41
-71.75
-75.00
-77.94
-81.61
-86.92
-94.48
-104.44
-116.34
-128.88
-139.94
-146.93
-147.65
-141.44
-129.76
-115.90
-103.74
-95.82
-92.08
-89.67
-84.07
-70.87
-47.26
-12.73
31.12
81.14
133.39
183.67
228.20
264.22
290.66
308.24
318.99
325.53
330.13
334.16
338.17
342.06
345.39
347.29
346.27
340.31
327.24
305.51
274.91
236.62
192.68
145.04
94.79
42.29
-11.87
-65.73
-115.54
-156.53
-184.65
-198.30
-199.14
-191.32
-179.66
-167.87
-157.58
-148.60
-140.04
-131.36
-122.79
-114.98
-108.45
-103.07
-98.15
-92.84
-86.59
-79.42
-71.89
-64.82
-58.82
-54.07
-50.29
-46.87
-43.21
-39.01
-34.37
-29.75
-25.70
-22.55
-20.31
-18.64
-17.09
-15.28
-13.09
-10.70
-8.41
-6.51
-5.17
-4.32
-3.77
-3.27
-2.61
-1.73
-0.73
0.18
0.78
0.89
0.54
-0.11
-0.79
-1.30
-1.48
-1.34
-0.99
-0.54
-0.11
0.23
0.47
0.64
0.79
1.01
1.35
1.78
2.20
2.45
2.40
2.03
1.45
0.84
0.40
0.19
0.20
0.31
0.43
0.51
0.59
0.73
0.93
1.14
1.23
1.06
0.58
-0.16
-1.02
-1.82
-2.42
-2.78
-2.95
-3.02
-3.09
-3.24
-3.48
-3.77
-4.02
-4.08
-3.80
-3.10
-1.98
-0.65
0.60
1.50
1.88
1.82
1.55
1.38
1.51
1.95
2.52
2.96
3.07
2.82
2.31
1.72
1.21
0.81
0.49
0.16
-0.20
-0.53
-0.71
-0.68
-0.44
-0.10
0.18
0.26
0.11
-0.20
-0.53
-0.75
-0.81
-0.73
-0.59
-0.46
-0.38
-0.34
-0.28
-0.12
0.22
0.79
1.62
2.68
3.87
5.05
6.06
6.70
6.81
6.26
5.09
3.49
1.81
0.42
-0.38
-0.53
-0.20
0.31
0.71
0.83
0.63
0.24
-0.25
-0.75
-1.24
-1.71
-2.14
-2.46
-2.65
-2.70
-2.66
-2.60
-2.56
-2.50
-2.38
-2.17
-1.88
-1.62
-1.48
-1.51
-1.68
-1.90
-2.10
-2.20
-2.12
-1.78
-1.03
0.17
1.72
3.31
4.50
4.93
4.47
3.36
2.08
1.15
0.86
1.17
1.75
2.15
2.05
1.43
0.46
-0.51
-1.21
-1.52
-1.51
-1.38
-1.32
-1.44
-1.77
-2.19
-2.57
-2.77
-2.73
-2.48
-2.11
-1.73
-1.38
-1.07
-0.77
-0.44
-0.09
0.21
0.43
0.58
0.73
0.99
1.42
1.98
2.52
2.85
2.83
2.47
1.90
1.37
1.07
1.05
1.24
1.46
1.52
1.32
0.84
0.17
-0.57
-1.25
-1.79
-2.12
-2.24
-2.17
-1.97
-1.71
-1.46
-1.26
-1.13
-1.09
-1.14
-1.24
-1.33
-1.29
-1.06
-0.63
-0.08
0.49
1.01
1.52
2.08
2.70
3.28
3.63
3.54
2.94
1.95
0.87
0.02
-0.36
-0.23
0.26
0.85
1.29
1.41
1.15
0.59
-0.14
-0.87
-1.47
-1.85
-1.97
-1.90
-1.71
-1.51
-1.39
-1.37
-1.46
-1.61
-1.78
-1.93
-2.05
-2.09
-2.01
-1.76
-1.34
-0.77
-0.13
0.54
1.19
1.83
2.41
2.88
3.11
2.98
2.47
1.68
0.83
0.17
-0.09
0.10
0.65
1.33
1.88
2.07
1.78
1.05
0.07
-0.93
-1.74
-2.24
-2.42
