1660936448.00
64.000000
-0.00
-0.00
-0.00
-0.00
-0.00
-0.00
-0.00
-0.00
-0.00
-0.00
0.00
0.01
0.01
-0.00
-0.03
-0.05
-0.05
0.00
0.13
0.36
0.66
1.01
1.37
1.72
2.06
2.40
2.79
3.25
3.81
4.44
5.09
5.73
6.32
6.90
7.52
8.26
9.15
10.26
11.49
12.71
13.81
14.76
15.65
16.67
18.03
19.86
22.36
25.30
28.40
31.37
34.10
36.70
39.54
43.05
47.53
53.27
59.88
66.80
73.49
79.72
85.68
91.96
99.29
108.09
118.73
130.52
142.58
154.11
164.78
174.94
185.46
197.71
210.20
224.80
241.73
260.89
281.19
300.13
313.94
318.40
310.24
288.24
254.16
211.20
163.34
113.91
65.01
17.59
-27.92
-71.12
-111.59
-148.93
-183.74
-217.35
-251.44
-287.15
-324.15
-360.12
-390.99
-412.25
-420.38
-414.49
-396.61
-370.99
-342.32
-314.14
-288.02
-263.83
-240.75
-218.25
-196.62
-176.61
-158.81
-143.12
-128.81
-114.95
-100.93
-86.78
-73.05
-60.54
-49.82
-40.95
-33.53
-26.91
-20.48
-13.97
-7.50
-1.43
3.81
7.99
11.13
13.51
15.53
17.50
19.56
21.61
23.43
24.80
25.62
25.98
26.07
26.10
26.17
26.27
26.29
26.08
25.56
24.74
23.74
22.69
21.71
20.84
20.07
19.36
18.71
18.15
17.74
17.50
17.40
17.35
17.22
16.94
16.50
15.96
15.41
14.91
14.47
14.05
13.59
13.07
12.50
11.94
11.47
11.12
10.90
10.76
10.66
10.55
10.39
10.17
9.87
9.50
9.11
8.76
8.52
8.37
8.25
8.06
7.71
7.18
6.56
5.99
5.62
5.50
5.55
5.60
5.49
5.15
4.63
4.10
3.70
3.46
3.30
3.09
2.69
2.09
1.38
0.68
0.10
-0.34
-0.67
-0.92
-1.13
-1.33
-1.58
-1.94
-2.49
-3.22
-4.08
-4.97
-5.80
-6.54
-7.16
-7.66
-8.02
-8.26
-8.40
-8.52
-8.72
-9.01
-9.35
-9.60
-9.64
-9.42
-8.98
-8.47
-8.01
-7.65
-7.35
-7.06
-6.74
-6.42
-6.15
-5.96
-5.81
-5.62
-5.31
-4.85
-4.30
-3.74
-3.26
-2.91
-2.68
-2.51
-2.38
-2.25
-2.11
-1.93
-1.68
-1.31
-0.78
-0.07
0.84
1.95
3.23
4.63
6.09
7.50
8.75
9.71
10.35
10.67
10.78
10.79
10.87
11.09
11.50
12.06
12.70
13.36
13.97
14.52
14.98
15.38
15.70
15.93
16.04
15.93
15.53
14.76
13.58
12.03
10.14
7.97
5.55
2.93
0.18
-2.59
-5.23
-7.61
-9.59
-11.08
-12.06
-12.56
-12.67
-12.51
-12.21
-11.82
-11.31
-10.61
-9.66
-8.49
-7.21
-5.95
-4.73
-3.43
-1.82
0.34
3.11
6.30
9.44
12.01
13.60
14.06
13.52
12.35
10.95
9.59
8.38
7.30
6.27
5.26
4.32
3.56
3.05
2.75
2.56
2.37
2.07
1.66
1.20
0.82
0.61
0.64
0.85
1.15
1.39
1.46
1.36
1.16
1.00
0.98
1.13
1.35
1.46
1.30
0.82
0.11
-0.63
-1.18
-1.42
-1.32
-0.97
-0.53
-0.10
0.27
0.56
0.82
1.09
1.32
1.47
1.48
1.31
1.00
0.60
0.17
-0.22
-0.51
-0.66
-0.64
-0.44
-0.12
0.22
0.45
0.48
0.31
0.03
-0.23
-0.36
-0.35
-0.24
-0.09
0.06
0.20
0.36
0.54
0.69
0.75
0.69
0.57
0.49
0.55
0.80
1.18
1.56
1.84
1.97
1.97
1.91
1.85
1.83
1.89
2.09
2.47
3.04
3.71
4.33
4.72
4.77
4.48
3.96
3.35
2.79
2.31
1.88
1.42
0.87
0.21
-0.53
-1.29
-1.99
-2.53
-2.81
-2.76
-2.36
-1.70
-0.92
-0.17
0.46
0.92
1.23
1.35
1.23
0.77
-0.10
-1.32
-2.68
-3.84
-4.50
-4.51
-3.95
-3.09
-2.29
-1.83
-1.79
-2.05
-2.36
-2.52
-2.53
-2.52
-2.75
-3.37
-4.36
-5.47
-6.40
-6.86
-6.74
-6.15
-5.29
-4.41
-3.57
-2.74
-1.75
-0.45
1.22
3.15
5.10
6.84
8.16
9.03
9.49
9.64
9.54
9.24
8.72
7.99
7.08
6.04
4.92
3.80
2.76
1.90
1.26
0.84
0.57
0.32
0.03
-0.32
-0.63
-0.81
-0.76
-0.51
-0.13
0.23
0.46
0.53
0.45
0.30
0.14
0.03
-0.02
-0.02
0.04
0.15
0.31
0.50
0.68
0.78
0.76
0.62
0.37
0.06
-0.27
-0.58
-0.82
-0.93
-0.84
-0.55
-0.11
0.35
0.71
0.88
0.79
0.42
-0.23
-1.14
-2.25
-3.44
-4.52
-5.31
-5.62
-5.41
-4.71
-3.69
-2.54
-1.45
-0.54
0.12
0.57
0.87
1.10
1.28
1.39
1.43
1.38
1.29
1.21
1.22
1.32
1.46
1.56
1.55
1.42
1.21
0.97
0.77
0.62
0.52
0.47
0.46
0.53
0.69
0.95
1.25
1.53
1.73
1.81
1.75
1.58
1.35
1.11
0.92
0.81
0.77
0.75
0.66
0.40
-0.09
-0.74
-1.38
-1.83
-1.96
-1.75
-1.33
-0.87
-0.54
-0.38
-0.35
-0.34
-0.27
-0.13
0.04
0.16
0.15
0.01
-0.23
-0.48
-0.68
-0.77
-0.74
-0.60
-0.37
-0.09
0.21
0.49
0.71
0.85
0.90
0.87
0.82
0.78
0.80
0.87
0.94
0.96
0.92
0.81
0.67
0.53
0.38
0.20
-0.01
-0.22
-0.39
-0.45
-0.36
-0.18
0.01
0.09
-0.02
-0.31
-0.67
-0.95
-1.02
-0.83
-0.42
0.08
0.52
0.79
0.85
0.76
0.60
0.46
0.39
0.34
0.25
0.05
-0.28
-0.69
-1.08
-1.32
-1.34
-1.09
-0.65
-0.14
0.28
0.49
0.45
0.20
-0.14
-0.42
-0.52
-0.41
-0.13
0.20
0.50
0.71
0.83
0.86
0.82
0.71
0.55
0.35
0.17
0.05
0.02
0.07
0.13
0.17
0.17
0.12
0.08
0.07
0.11
0.19
0.30
0.40
0.48
0.52
0.50
0.42
0.30
0.15
0.02
-0.04
-0.01
0.11
0.29
0.47
0.59
0.60
0.47
0.20
-0.12
-0.42
-0.61
-0.62
-0.48
-0.23
0.06
0.31
0.51
0.63
0.66
0.59
0.45
0.26
0.07
-0.07
-0.13
-0.14
-0.14
-0.17
-0.24
-0.29
-0.27
-0.17
-0.03
0.05
-0.01
-0.21
-0.48
-0.70
-0.80
-0.76
-0.64
-0.50
-0.38
-0.25
-0.11
0.02
0.08
0.02
-0.15
-0.33
-0.40
-0.33
-0.15
0.04
0.14
0.16
0.17
0.25
0.42
0.61
0.69
0.60
0.35
0.06
-0.11
-0.11
0.06
0.27
0.42
0.45
0.38
0.26
0.17
0.14
0.16
0.18
0.15
0.04
-0.15
-0.38
-0.63
-0.83
-0.94
-0.94
-0.80
-0.54
-0.19
0.17
0.51
0.77
0.92
0.94
0.86
0.68
0.45
0.22
0.05
0.01
0.08
0.26
0.45
0.57
0.56
0.40
0.15
-0.14
-0.39
-0.57
-0.64
-0.63
-0.55
-0.42
-0.26
-0.09
0.07
0.20
0.25
0.24
0.14
-0.00
-0.16
-0.30
-0.38
-0.41
-0.38
-0.32
-0.22
-0.06
0.15
0.38
0.56
0.63
0.54
0.32
0.04
-0.18
-0.22
-0.06
0.27
0.64
0.91
1.00
0.87
0.58
0.24
-0.03
-0.15
-0.10
0.06
0.23
0.30
0.22
-0.01
-0.35
-0.75
-1.20
-1.66
-2.10
-2.42
-2.49
-2.24
-1.70
-1.00
-0.37
-0.03
-0.07
-0.42
-0.92
-1.40
-1.76
-1.99
-2.16
-2.34
-2.56
-2.77
-2.90
-2.91
-2.79
-2.56
-2.28
-1.94
-1.51
-0.94
-0.19
0.70
1.61
2.37
2.85
2.97
2.78
2.41
2.01
1.71
1.57
1.55
1.59
1.59
1.45
1.13
0.65
0.11
-0.33
-0.51
-0.26
0.45
1.55
2.81
3.94
4.63
4.69
4.12
3.12
2.04
1.24
0.91
1.01
1.26
1.27
0.71
-0.52
-2.29
-4.25
-6.02
-7.36
-8.19
-8.62
-8.86
-9.10
-9.44
-9.93
-10.54
-11.24
-12.02
-12.88
-13.88
-15.04
-16.34
-17.82
-19.47
-21.35
-23.49
-25.89
-28.49
-31.14
-33.70
-36.11
-38.41
-40.77
-43.40
-46.50
-50.20
-54.60
-59.74
-65.60
-72.03
-78.76
-85.45
-91.81
-97.70
-103.16
-108.32
-113.30
-118.19
-123.03
-127.97
-133.39
-139.85
-147.66
-156.34
-164.15
-168.16
-164.88
-151.35
-126.16
-89.84
-44.65
6.14
59.00
110.66
158.34
199.85
233.71
259.43
277.59
289.73
297.88
303.92
309.20
314.46
320.02
326.04
332.66
339.91
347.39
354.04
358.03
357.00
348.62
331.31
304.88
270.60
230.71
187.56
142.69
96.32
47.72
-3.70
-57.20
-109.97
-157.57
-195.27
-219.85
-230.83
-230.53
-222.92
-212.02
-200.46
-189.12
-177.77
-166.02
-154.15
-143.06
-133.70
-126.36
-120.41
-114.56
-107.64
-99.10
-89.33
-79.40
-70.51
-63.45
-58.25
-54.26
-50.51
-46.19
-41.00
-35.26
-29.65
-24.89
-21.39
-19.08
-17.50
-16.05
-14.28
-12.01
-9.42
-6.85
-4.66
-3.09
-2.14
-1.64
-1.36
-1.10
-0.76
-0.37
-0.03
0.13
0.01
-0.38
-0.93
-1.39
-1.55
-1.27
-0.63
0.12
0.66
0.78
0.46
-0.10
-0.64
-0.95
-0.97
-0.79
-0.56
-0.37
-0.25
-0.15
0.02
0.29
0.67
1.12
1.62
2.16
2.75
3.42
4.16
4.86
5.34
5.40
4.93
3.97
2.74
1.55
0.69
0.25
0.16
0.22
0.22
0.07
-0.27
-0.72
-1.24
-1.78
-2.32
-2.84
-3.28
-3.58
-3.69
-3.66
-3.53
-3.35
-3.13
-2.84
-2.47
-2.03
-1.58
-1.21
-0.95
-0.76
-0.48
0.04
0.90
2.06
3.33
4.45
5.20
5.45
5.22
4.68
4.04
3.50
3.12
2.89
2.66
2.30
1.74
0.99
0.16
-0.62
-1.27
-1.72
-2.00
-2.16
-2.27
-2.34
-2.38
-2.31
-2.09
-1.71
-1.24
-0.81
-0.53
-0.49
-0.65
-0.90
-1.07
-1.05
-0.79
-0.31
0.32
1.01
1.64
2.09
2.25
2.04
1.49
0.76
0.11
-0.22
-0.13
0.32
0.87
1.22
1.18
0.74
0.08
-0.57
-1.01
-1.16
-1.06
-0.84
-0.65
-0.57
-0.68
-0.95
-1.32
-1.67
-1.89
-1.92
-1.79
-1.58
-1.40
-1.31
-1.30
-1.29
-1.16
-0.85
-0.34
0.41
1.44
2.73
4.13
5.38
6.11
6.07
5.23
3.91
2.57
1.64
1.32
1.44
1.68
1.69
1.34
0.69
-0.04
-0.68
-1.17
-1.58
-2.01
-2.49
-2.95
-3.25
-3.25
-2.93
-2.37
-1.76
-1.28
-1.05
-1.10
-1.37
-1.73
-2.03
-2.16
-2.00
-1.50
-0.64
0.51
1.77
2.94
3.79
4.20
4.17
3.84
3.42
3.03
2.66
2.17
1.41
0.34
-0.92
-2.10
-2.94
-3.30
-3.27
-3.07
-2.92
-2.92
-3.01
-3.05
-2.94
-2.72
-2.51
-2.44
-2.57
-2.79
-2.94
-2.89
-2.62
-2.21
-1.73
-1.18
-0.51
0.27
1.09
1.71
1.97
1.82
1.46
1.21
1.37
1.98
2.81
3.46
3.61
3.17
2.37
1.57
1.06
0.92
0.99
0.99
0.71
0.15
-0.53
-1.08
-1.33
-1.25
-0.97
-0.65
-0.46
-0.42
-0.49
-0.56
-0.57
-0.51
-0.41
-0.31
-0.20
0.00
0.42
1.08
1.90
2.67
3.16
3.22
2.86
2.23
1.54
0.96
0.50
0.09
-0.37
-0.91
-1.48
-1.99
-2.35
-2.54
-2.58
-2.53
-2.45
-2.38
-2.33
-2.28
-2.21
-2.08
-1.86
-1.60
-1.35
-1.16
-1.04
-0.95
-0.75
-0.30
0.48
1.54
2.69
3.59
3.98
3.71
2.94
2.03
1.41
1.37
1.90
2.70
3.34
3.46
2.99
2.12
1.21
0.56
0.28
0.24
0.21
-0.05
-0.58
-1.28
-1.96
-2.46
-2.73
-2.83
-2.86
-2.88
-2.85
-2.71
-2.39
-1.87
-1.19
-0.44
0.27
0.89
1.39
1.83
2.23
2.60
2.87
2.95
2.74
2.27
1.68
1.22
1.09
1.36
1.84
2.26
2.33
1.94
1.17
0.23
-0.65
-1.33
-1.82
-2.19
-2.56
-2.93
-3.27
-3.45
-3.42
-3.18
-2.89
-2.70
-2.76
-3.11
-3.61
-4.06
-4.28
-4.20
-3.86
-3.31
-2.52
-1.40
0.10
1.90
3.72
5.23
6.14
6.40
6.16
5.66
5.09
4.51
3.84
3.00
1.97
0.84
-0.26
-1.22
-1.97
-2.49
-2.76
-2.81
-2.69
-2.47
-2.24
-2.04
-1.83
-1.58
-1.22
-0.79
-0.34
0.04
0.36
0.66
0.95
1.18
1.22
0.93
0.29
-0.55
-1.31
-1.69
-1.51
-0.85
0.06
0.91
1.47
1.65
1.54
1.34
1.23
1.30
1.52
1.75
1.82
1.62
1.20
0.69
0.28
0.06
0.01
0.01
-0.07
-0.30
-0.63
-0.94
-1.14
-1.18
-1.08
-0.81
-0.33
0.42
1.45
2.65
3.78
4.58
4.84
4.52
3.81
2.95
2.21
1.69
1.36
1.04
0.56
-0.13
-0.97
-1.80
-2.46
-2.88
-3.08
-3.14
-3.14
-3.12
-3.08
-2.99
-2.82
-2.57
-2.27
-1.92
-1.54
-1.14
-0.73
-0.32
0.07
0.47
0.95
1.50
2.09
2.59
2.86
2.79
2.42
1.88
1.42
1.21
1.25
1.39
1.37
1.01
0.31
-0.56
-1.34
-1.84
-2.05
-2.13
-2.25
-2.52
-2.85
-3.07
-3.03
-2.68
-2.16
-1.66
-1.34
-1.22
-1.22
-1.24
-1.23
-1.22
-1.22
-1.14
-0.82
-0.05
1.23
2.84
4.44
5.61
6.08
5.80
4.95
3.87
2.83
2.00
1.39
0.92
0.47
-0.00
-0.51
-1.00
-1.45
-1.82
-2.13
-2.42
-2.73
-3.05
-3.32
-3.42
-3.27
-2.80
-2.09
-1.30
-0.62
-0.24
-0.22
-0.55
-1.08
-1.65
-2.09
-2.26
-2.02
-1.31
-0.18
1.20
2.51
3.44
3.79
3.58
3.02
2.43
2.00
1.80
1.71
1.59
1.37
1.08
0.78
0.49
0.15
-0.35
-1.03
-1.82
-2.49
-2.83
-2.77
-2.39
-1.91
-1.55
-1.37
-1.32
-1.24
-1.00
-0.58
0.01
0.74
1.64
2.72
3.86
4.77
5.08
4.55
3.26
1.67
0.37
-0.17
0.07
0.68
1.09
0.94
0.25
-0.59
-1.13
-1.13
-0.71
-0.26
-0.16
-0.56
-1.29
-2.01
-2.37
-2.24
-1.72
-1.05
-0.51
-0.27
-0.34
-0.64
-1.01
-1.29
-1.39
-1.24
-0.90
-0.41
0.14
0.71
1.24
1.72
2.11
2.37
2.43
2.28
1.93
1.45
0.90
0.32
-0.24
-0.77
-1.22
-1.57
-1.79
-1.90
-1.95
-1.99
-2.08
-2.21
-2.35
-2.42
-2.35
-2.10
-1.69
-1.17
-0.63
-0.19
0.07
0.11
0.01
-0.10
-0.04
0.37
1.14
2.17
3.14
3.68
3.53
2.66
1.35
0.05
-0.78
-0.91
-0.43
0.33
0.96
1.18
0.97
0.52
0.09
-0.15
-0.21
-0.19
-0.22
-0.36
-0.59
-0.83
-1.02
-1.15
-1.27
-1.40
-1.55
-1.69
-1.78
-1.79
-1.74
-1.66
-1.58
-1.52
-1.45
-1.37
-1.21
-0.93
-0.50
0.07
0.71
1.30
1.72
1.87
1.79
1.56
1.37
1.35
1.53
1.85
2.15
2.27
2.12
1.75
1.23
0.69
0.18
-0.28
-0.73
-1.19
-1.63
-1.95
-2.04
-1.82
-1.32
-0.68
-0.07
0.34
0.51
0.51
0.47
0.56
0.89
1.51
2.37
3.34
4.23
4.84
4.99
4.63
3.82
2.77
1.71
0.82
0.12
-0.46
-1.01
-1.58
-2.08
-2.39
-2.41
-2.22
-2.01
-2.03
-2.38
-2.95
-3.46
-3.56
-3.09
-2.14
-1.04
-0.20
0.11
-0.15
-0.78
-1.42
-1.79
-1.69
-1.13
-0.23
0.81
1.76
2.43
2.66
2.43
1.82
1.05
0.39
0.04
0.07
0.41
0.85
1.20
1.31
1.16
0.81
0.38
-0.03
-0.35
-0.56
-0.69
-0.77
-0.87
-1.02
-1.22
-1.41
-1.49
-1.44
-1.29
-1.18
-1.23
-1.47
-1.80
-2.01
-1.89
-1.34
-0.41
0.71
1.81
2.68
3.22
3.45
3.47
3.41
3.38
3.43
3.49
3.42
3.08
2.45
1.61
0.76
0.08
-0.33
-0.54
-0.65
-0.80
-1.01
-1.21
-1.28
-1.19
-0.95
-0.72
-0.62
-0.72
-0.98
-1.26
-1.45
-1.46
-1.33
-1.13
-0.94
-0.82
-0.74
-0.69
-0.67
-0.72
-0.86
-1.07
-1.25
-1.29
-1.08
-0.63
-0.05
0.48
0.79
0.79
0.50
0.05
-0.40
-0.69
-0.75
-0.64
-0.48
-0.42
-0.59
-0.98
-1.51
-2.03
-2.43
-2.67
-2.80
-2.89
-3.02
-3.23
-3.48
-3.71
-3.87
-3.89
-3.69
-3.18
-2.24
-0.78
1.15
3.33
5.40
6.96
7.71
7.59
6.82
5.76
4.72
3.84
3.01
2.01
0.70
-0.80
-2.19
-3.09
-3.25
-2.70
-1.67
-0.47
0.65
1.58
2.25
2.59
2.48
1.80
0.55
-1.03
-2.54
-3.57
-3.88
-3.50
-2.69
-1.80
-1.09
-0.62
-0.32
-0.10
0.08
0.17
0.13
0.05
0.10
0.54
1.50
2.91
4.46
5.75
6.47
6.48
5.84
4.81
3.62
2.47
1.42
0.44
-0.52
-1.44
-2.26
-2.84
-3.12
-3.08
-2.87
-2.66
-2.63
-2.82
-3.16
-3.47
-3.58
-3.37
-2.85
-2.11
-1.29
-0.46
0.30
0.93
1.32
1.42
1.30
1.21
1.58
2.75
4.82
7.43
9.84
11.24
11.12
9.50
6.90
4.10
1.74
0.06
-1.04
-1.86
-2.60
-3.25
-3.61
-3.50
-2.92
-2.08
-1.33
-0.99
-1.16
-1.72
-2.39
-2.92
-3.17
-3.16
-2.97
-2.65
-2.21
-1.59
-0.79
0.09
0.90
1.50
1.82
1.87
1.74
1.51
1.19
0.76
0.19
-0.47
-1.12
-1.65
-1.99
-2.18
-2.29
-2.41
-2.58
-2.74
-2.82
-2.74
-2.48
-2.07
-1.58
-1.08
-0.64
-0.33
-0.15
-0.11
-0.17
-0.28
-0.35
-0.29
-0.02
0.43
0.96
1.37
1.46
1.13
0.47
-0.27
-0.78
-0.88
-0.61
-0.19
0.16
0.32
0.36
0.45
0.70
1.06
1.33
1.29
0.85
0.12
-0.66
-1.24
-1.45
-1.31
-0.91
-0.44
-0.04
0.18
0.18
-0.05
-0.45
-0.95
-1.45
-1.89
-2.19
-2.32
-2.23
-1.87
-1.26
-0.46
0.36
1.03
1.38
1.34
0.97
0.42
-0.18
-0.74
-1.28
-1.87
-2.53
-3.22
-3.85
-4.33
-4.66
-4.92
-5.24
-5.71
-6.28
-6.84
-7.21
-7.34
-7.28
-7.21
-7.32
-7.65
-8.10
-8.49
-8.65
-8.56
-8.31
-8.01
-7.72
-7.40
-6.97
-6.43
-5.83
-5.20
-4.35
-2.91
-0.39
3.48
8.49
13.94
18.84
22.29
23.87
23.70
22.25
20.02
17.25
13.92
9.90
5.27
0.47
-3.82
-6.89
-8.33
-8.23
-7.12
-5.75
-4.74
-4.35
-4.48
-4.79
-4.89
-4.54
-3.71
-2.51
-1.09
0.43
1.91
3.20
4.21
4.88
5.35
5.94
6.97
8.62
10.76
12.89
14.37
14.65
13.55
11.33
8.54
5.77
3.46
1.74
0.56
-0.20
-0.62
-0.74
-0.59
-0.31
-0.11
-0.25
-0.84
-1.88
-3.13
-4.27
-5.00
-5.16
-4.79
-4.08
-3.30
-2.59
-1.92
-1.11
0.00
1.45
3.05
4.48
5.43
5.77
5.63
5.23
4.79
4.42
4.04
3.57
2.96
2.31
1.72
1.24
0.83
0.34
-0.33
-1.15
-1.96
-2.55
-2.74
-2.51
-1.96
-1.30
-0.70
-0.30
-0.12
-0.15
-0.31
-0.51
-0.63
-0.57
-0.32
0.02
0.26
0.23
-0.10
-0.61
-1.04
-1.16
-0.90
-0.39
0.11
0.35
0.20
-0.26
-0.85
-1.38
-1.73
-1.94
-2.09
-2.27
-2.51
-2.73
-2.82
-2.74
-2.53
-2.31
-2.24
-2.38
-2.68
-2.97
-3.07
-2.89
-2.44
-1.84
-1.16
-0.44
0.39
1.32
2.27
3.04
3.43
3.33
2.84
2.18
1.59
1.20
0.99
0.81
0.54
0.13
-0.34
-0.75
-1.04
-1.21
-1.37
-1.60
-1.95
-2.35
-2.69
-2.84
-2.73
-2.36
-1.84
-1.28
-0.76
-0.35
-0.05
0.14
0.27
0.39
0.58
0.94
1.51
2.22
2.87
3.21
3.06
2.40
1.42
0.41
-0.31
-0.57
-0.39
0.04
0.43
0.58
0.41
0.02
-0.41
-0.70
-0.79
-0.76
-0.75
-0.86
-1.09
-1.33
-1.44
-1.32
-1.06
-0.79
-0.69
-0.85
-1.25
-1.76
-2.25
-2.58
-2.64
-2.34
-1.60
-0.39
1.15
2.74
3.97
4.42
3.85
2.33
0.24
-1.89
-3.56
-4.51
-4.83
-4.83
-4.89
-5.27
-5.98
-6.86
-7.69
-8.35
-8.87
-9.42
-10.17
-11.18
-12.41
-13.69
-14.88
-15.92
-16.87
-17.86
-19.06
-20.60
-22.54
-24.92
-27.66
-30.56
-33.32
-35.58
-37.16
-38.19
-39.13
-40.66
-43.33
-47.26
-51.98
-56.59
-60.18
-62.35
-63.56
-64.86
-67.45
-71.83
-77.02
-80.40
-78.12
-66.23
-42.01
-5.09
42.15
95.07
147.87
194.74
230.84
252.91
259.68
252.05
233.26
208.39
183.14
161.88
146.09
133.90
121.45
105.33
84.87
62.64
42.93
29.05
21.11
15.92
8.75
-3.59
-20.98
-40.12
-56.50
-66.99
-71.34
-71.69
-70.97
-70.91
-71.34
-70.79
-67.78
-62.06
-54.99
-48.73
-45.10
-44.62
-46.33
-48.37
-48.96
-47.24
-43.50
-38.97
-35.04
-32.65
-31.90
-32.08
-32.08
-30.85
-27.84
-23.17
-17.61
-12.24
-8.08
-5.69
-5.01
-5.45
-6.14
-6.39
-5.94
-4.99
-4.04
-3.50
-3.49
-3.78
-3.96
-3.77
-3.20
-2.50
-2.01
-1.95
-2.26
-2.67
-2.88
-2.69
-2.14
-1.46
-0.94
-0.71
-0.73
-0.80
-0.68
-0.25
0.49
1.42
2.36
3.16
3.69
3.84
3.58
2.94
2.11
1.31
0.81
0.68
0.84
1.06
1.09
0.83
0.35
-0.13
-0.43
-0.46
-0.31
-0.11
-0.03
-0.12
-0.34
-0.57
-0.69
-0.64
-0.45
-0.24
-0.14
-0.23
-0.52
-0.90
-1.24
-1.38
-1.27
-0.93
-0.43
0.16
0.78
1.38
1.83
2.00
1.77
1.15
0.28
-0.63
-1.34
-1.73
-1.83
-1.79
-1.73
-1.73
-1.77
-1.74
-1.61
-1.37
-1.13
-1.01
-1.05
-1.25
-1.52
-1.71
-1.75
-1.65
-1.48
-1.38
-1.41
-1.57
-1.75
-1.78
-1.55
-1.02
-0.27
0.60
1.47
2.25
2.90
3.34
3.56
3.53
3.31
3.03
2.86
2.89
3.10
3.33
3.39
3.09
2.43
1.53
0.59
-0.19
-0.73
-1.07
-1.33
-1.62
-1.98
-2.32
-2.56
-2.62
-2.50
-2.32
-2.21
-2.24
-2.43
-2.70
-2.91
-2.91
-2.60
-1.92
-0.92
0.24
1.29
1.92
1.96
1.43
0.62
-0.06
-0.25
0.14
0.94
1.78
2.33
2.42
2.08
1.51
0.91
0.46
0.21
0.12
0.10
0.01
-0.28
-0.76
-1.33
-1.80
-2.01
-1.93
-1.67
-1.45
-1.40
-1.52
-1.66
-1.64
-1.38
-0.90
-0.31
0.31
0.93
1.58
2.24
2.83
3.23
3.35
3.18
2.85
2.50
2.27
2.16
2.10
1.95
1.60
1.03
0.32
-0.40
-0.97
-1.31
-1.37
-1.24
-1.01
-0.80
-0.67
-0.63
-0.66
-0.71
-0.76
-0.77
-0.74
-0.68
-0.60
-0.52
-0.46
-0.42
-0.36
-0.29
-0.19
-0.10
-0.04
-0.01
-0.00
0.03
0.13
0.29
0.47
0.63
0.68
0.60
0.41
0.15
-0.11
-0.34
-0.50
-0.61
-0.70
-0.78
-0.87
-0.97
-1.04
-1.04
-0.93
-0.73
-0.45
-0.16
0.10
0.30
0.45
0.57
0.70
0.93
1.34
1.99
2.86
3.80
4.56
4.86
4.53
3.62
2.41
1.24
0.43
0.06
-0.00
-0.03
-0.23
-0.65
-1.18
-1.60
-1.80
-1.79
-1.68
-1.64
-1.77
-2.06
-2.44
-2.78
-3.01
-3.05
-2.90
-2.56
-2.09
-1.56
-1.06
-0.64
-0.34
-0.12
0.08
0.32
0.63
0.98
1.29
1.49
1.56
1.50
1.36
1.22
1.10
1.00
0.89
0.76
0.63
0.55
0.56
0.70
0.91
1.12
1.18
0.99
0.51
-0.21
-1.02
-1.70
-2.06
-1.99
-1.58
-1.02
-0.60
-0.49
-0.70
-1.06
-1.30
-1.25
-0.88
-0.30
0.37
1.09
1.92
2.89
3.89
4.69
4.98
4.59
3.64
2.45
1.45
0.90
0.80
0.94
1.02
0.89
0.52
0.08
-0.29
-0.53
-0.70
-0.91
-1.25
-1.71
-2.19
-2.55
-2.68
-2.57
-2.32
-2.11
-2.12
-2.41
-2.91
-3.46
-3.82
-3.84
-3.49
-2.90
-2.26
-1.78
-1.58
-1.64
-1.87
-2.20
-2.55
-2.93
-3.34
-3.75
-4.09
-4.27
-4.23
-4.01
-3.71
-3.48
-3.45
-3.66
-4.06
-4.55
-5.05
-5.49
-5.89
-6.33
-6.94
-7.76
-8.80
-9.85
-10.58
-10.54
-9.37
-6.90
-3.31
0.81
4.65
7.36
8.33
7.38
4.81
1.31
-2.26
-5.06
-6.41
-5.92
-3.58
0.23
4.78
9.17
12.60
14.62
15.25
14.94
14.32
13.84
13.61
13.45
13.05
12.26
11.18
10.14
9.45
9.29
9.52
9.88
10.06
9.89
9.41
8.80
8.20
7.64
7.00
6.08
4.82
3.34
1.96
1.05
0.85
1.34
2.26
3.19
3.74
3.68
3.03
2.00
0.88
-0.11
-0.86
-1.41
-1.87
-2.34
-2.84
-3.32
-3.71
-3.99
-4.23
-4.58
-5.14
-5.91
-6.77
-7.51
-7.92
-7.91
-7.53
-6.92
-6.23
-5.56
-4.93
-4.31
-3.71
-3.13
-2.60
-2.14
-1.68
-1.12
-0.35
0.62
1.63
2.36
2.53
2.00
0.92
-0.34
-1.38
-1.90
-1.89
-1.54
-1.14
-0.90
-0.85
-0.87
-0.82
-0.63
-0.39
-0.25
-0.35
-0.74
-1.32
-1.88
-2.23
-2.26
-1.98
-1.53
-1.09
-0.81
-0.74
-0.84
-1.01
-1.15
-1.25
-1.28
-1.22
-1.00
-0.58
0.02
0.63
1.00
0.91
0.31
-0.62
-1.54
-2.12
-2.18
-1.78
-1.13
-0.52
-0.12
0.00
-0.10
-0.35
-0.68
-1.02
-1.33
-1.55
-1.64
-1.58
-1.38
-1.09
-0.80
-0.52
-0.23
0.11
0.56
1.15
1.90
2.77
3.68
4.51
5.06
5.13
4.58
3.45
1.97
0.47
-0.70
-1.31
-1.40
-1.11
-0.70
-0.31
-0.02
0.19
0.35
0.41
0.32
0.03
-0.41
-0.87
-1.20
-1.31
-1.22
-1.06
-0.95
-0.95
-1.01
-1.04
-0.99
-0.87
-0.78
-0.77
-0.79
-0.70
-0.36
0.25
0.98
1.57
1.80
1.64
1.23
0.82
0.60
0.63
0.82
1.02
1.09
0.99
0.75
0.44
0.15
-0.09
-0.28
-0.46
-0.70
-1.04
-1.46
-1.92
-2.32
-2.60
-2.72
-2.70
-2.52
-2.13
-1.49
-0.59
0.45
1.38
1.97
2.15
2.02
1.81
1.73
1.85
2.01
2.00
1.68
1.05
0.30
-0.36
-0.82
-1.10
-1.32
-1.61
-1.96
-2.28
-2.44
-2.37
-2.10
-1.78
-1.52
-1.43
-1.51
-1.72
-2.01
-2.34
-2.74
-3.20
-3.70
-4.21
-4.69
-5.15
-5.60
-6.09
-6.62
-7.12
-7.52
-7.80
-7.98
-8.17
-8.49
-9.01
-9.77
-10.74
-11.83
-12.93
-13.94
-14.83
-15.58
-16.28
-17.07
-18.16
-19.72
-21.82
-24.37
-27.14
-29.80
-32.06
-33.83
-35.24
-36.65
-38.46
-40.97
-44.23
-47.98
-51.83
-55.35
-58.20
-60.33
-62.04
-63.89
-66.51
-69.95
-73.15
-73.74
-68.30
-53.14
-25.27
16.69
71.78
136.39
204.32
267.44
317.11
346.02
349.91
328.55
285.58
227.38
161.55
95.55
35.85
-12.62
-46.89
-66.36
-72.99
-70.68
-64.14
-57.34
-52.51
-50.01
-49.03
-48.43
-47.51
-46.06
-44.18
-42.01
-39.61
-37.07
-34.57
-32.31
-30.48
-29.10
-28.00
-26.87
-25.38
-23.32
-20.63
-17.42
-13.97
-10.65
-7.88
-6.04
-5.31
-5.60
-6.56
-7.73
-8.71
-9.31
-9.58
-9.69
-9.80
-9.92
-9.96
-9.79
-9.37
-8.78
-8.15
-7.58
-7.11
-6.71
-6.32
-5.90
-5.44
-4.94
-4.41
-3.87
-3.39
-3.06
-2.96
-3.07
-3.34
-3.61
-3.78
-3.78
-3.69
-3.64
-3.75
-4.10
-4.65
-5.31
-5.95
-6.49
-6.90
-7.23
-7.55
-8.00
-8.67
-9.60
-10.76
-12.01
-13.20
-14.21
-15.02
-15.79
-16.79
-18.32
-20.55
-23.44
-26.70
-29.95
-32.86
-35.36
-37.67
-40.20
-43.38
-47.48
-52.52
-58.33
-64.55
-70.76
-76.56
-81.62
-85.89
-89.61
-93.38
-97.87
-103.45
-109.97
-116.64
-122.50
-126.99
-130.52
-134.46
-140.54
-149.80
-161.79
-174.31
-183.88
-186.88
-180.44
-163.14
-135.05
-97.83
-54.58
-9.54
32.66
68.23
95.50
115.63
132.03
148.71
168.36
191.02
214.26
234.63
249.40
257.73
260.74
260.53
258.99
257.11
254.98
252.36
249.29
246.27
244.13
243.56
244.67
246.83
249.10
250.87
252.27
254.05
256.84
260.20
262.03
259.01
247.73
226.20
194.65
155.25
110.88
63.78
14.90
-35.46
-86.38
-135.24
-177.83
-209.70
-228.00
-232.84
-227.20
-215.56
-202.12
-189.38
-177.89
-166.93
-155.74
-144.26
-133.15
-123.31
-115.14
-108.29
-101.84
-94.86
-86.91
-78.28
-69.83
-62.51
-56.90
-52.96
-50.06
-47.36
-44.21
-40.39
-36.20
-32.20
-28.86
-26.37
-24.53
-22.90
-21.02
-18.63
-15.82
-12.91
-10.36
-8.50
-7.47
-7.17
-7.35
-7.70
-7.94
-7.87
-7.40
-6.53
-5.38
-4.14
-3.00
-2.10
-1.50
-1.14
-0.90
-0.67
-0.40
-0.11
0.16
0.37
0.49
0.55
0.55
0.47
0.25
-0.15
-0.66
-1.13
-1.32
-1.06
-0.31
0.77
1.86
2.65
2.94
2.74
2.21
1.60
1.10
0.79
0.64
0.58
0.58
0.66
0.85
1.17
1.59
2.02
2.37
2.55
2.51
2.24
1.74
1.06
0.27
-0.54
-1.30
-1.93
-2.41
-2.75
-2.99
-3.15
-3.21
-3.16
-3.01
-2.82
-2.67
-2.64
-2.75
-2.93
-3.08
-3.10
-2.93
-2.55
-1.97
-1.23
-0.39
0.41
1.02
1.33
1.31
1.03
0.63
0.24
-0.11
-0.46
-0.86
-1.33
-1.82
-2.20
-2.42
-2.48
-2.42
-2.30
-2.12
-1.87
-1.48
-0.92
-0.15
0.85
2.02
3.30
4.52
5.49
6.01
5.96
5.33
4.22
2.80
1.29
-0.20
-1.59
-2.87
-4.02
-4.99
-5.71
-6.13
-6.30
-6.33
-6.39
-6.59
-6.92
-7.24
-7.37
-7.15
-6.50
-5.47
-4.23
-2.98
-1.99
-1.53
-1.83
-3.01
-4.95
-7.37
-9.80
-11.70
-12.58
-12.21
-10.65
-8.32
-5.79
-3.56
-1.80
-0.30
1.49
4.11
7.78
12.27
16.91
20.90
23.64
24.88
24.75
23.54
21.51
18.80
15.52
11.85
8.13
4.77
2.15
0.43
-0.49
-0.90
-1.09
-1.19
-1.08
-0.50
0.82
2.98
5.84
9.04
12.16
14.84
16.88
18.20
18.85
18.88
18.41
17.51
16.24
14.61
12.55
9.95
6.68
2.77
-1.59
-5.99
-9.94
-13.04
-15.08
-16.15
-16.48
-16.30
-15.80
-14.99
-13.90
-12.54
-11.06
-9.64
-8.46
-7.52
-6.73
-5.90
-4.92
-3.85
-2.86
-2.19
-1.98
-2.23
-2.79
-3.46
-4.07
-4.53
-4.81
-4.91
-4.81
-4.45
-3.79
-2.85
-1.73
-0.58
0.43
1.17
1.58
1.69
1.54
1.24
0.88
0.58
0.40
0.39
0.52
0.75
1.00
1.25
1.48
1.67
1.78
1.77
1.57
1.22
0.84
0.58
0.56
0.80
1.17
1.45
1.46
1.11
0.40
-0.58
-1.73
-2.94
-4.10
-5.11
-5.89
-6.39
-6.61
-6.60
-6.44
-6.17
-5.79
-5.32
-4.81
-4.37
-4.09
-4.04
-4.13
-4.20
-4.04
-3.50
-2.57
-1.32
0.17
1.85
3.69
5.64
7.55
9.17
10.17
10.37
9.80
8.71
7.50
6.45
5.67
5.10
4.62
4.21
3.95
3.96
4.23
4.58
4.75
4.55
3.97
3.28
2.76
2.61
2.77
3.02
3.10
2.90
2.43
1.79
1.07
0.33
-0.48
-1.38
-2.43
-3.62
-4.93
-6.26
-7.45
-8.35
-8.84
-8.90
-8.61
-8.04
-7.27
-6.28
-5.08
-3.71
-2.32
-1.08
-0.12
0.53
0.99
1.37
1.76
2.15
2.45
2.61
2.58
2.41
2.15
1.87
1.62
1.47
1.46
1.62
1.93
2.32
2.73
3.07
3.29
3.31
3.13
2.76
2.26
1.75
1.33
1.06
0.91
0.72
0.37
-0.25
-1.07
-1.93
-2.64
-3.07
-3.23
-3.22
-3.18
-3.19
-3.25
-3.26
-3.14
-2.86
-2.45
-2.02
-1.65
-1.38
-1.16
-0.93
-0.64
-0.31
-0.04
0.06
-0.09
-0.47
-0.98
-1.47
-1.77
-1.79
-1.52
-1.04
-0.51
-0.08
0.06
-0.13
-0.62
-1.24
-1.77
-1.96
-1.65
-0.84
0.30
1.49
2.37
2.70
2.39
1.57
0.49
