1660327733.00
64.000000
-0.00
-0.00
-0.00
-0.00
-0.00
-0.00
-0.00
-0.00
-0.00
-0.00
0.00
0.01
0.01
-0.00
-0.03
-0.05
-0.05
0.00
0.13
0.36
0.66
1.01
1.37
1.72
2.06
2.40
2.79
3.24
3.80
4.42
5.06
5.66
6.20
6.68
7.15
7.68
8.31
9.14
10.09
11.04
11.88
12.56
13.14
13.76
14.65
15.96
17.91
20.32
22.90
25.38
27.58
29.57
31.68
34.32
37.81
42.54
48.15
54.10
59.83
64.97
69.58
74.14
79.34
85.71
93.76
103.00
112.62
121.73
129.77
136.75
143.30
150.75
157.77
166.64
177.95
191.79
206.97
220.57
228.25
225.36
208.53
176.87
132.76
80.05
23.07
-34.94
-92.44
-149.16
-205.23
-260.37
-313.74
-363.87
-409.83
-450.91
-486.50
-515.74
-537.23
-549.22
-549.96
-538.37
-514.21
-478.67
-433.88
-382.45
-327.02
-269.84
-212.63
-156.66
-102.95
-52.37
-5.90
35.58
71.43
101.35
125.50
144.38
158.69
169.15
176.37
180.75
182.57
182.07
179.51
175.23
169.65
163.18
156.15
148.81
141.30
133.69
126.02
118.33
110.69
103.16
95.80
88.68
81.83
75.25
68.95
62.95
57.25
51.86
46.78
42.03
37.59
33.45
29.61
26.07
22.81
19.83
17.11
14.67
12.48
10.54
8.83
7.35
6.07
4.97
4.05
3.27
2.62
2.09
1.65
1.30
1.01
0.79
0.61
0.48
0.38
0.30
0.26
0.22
0.21
0.21
0.22
0.24
0.27
0.30
0.34
0.38
0.42
0.47
0.52
0.56
0.62
0.67
0.73
0.79
0.86
0.93
1.01
1.10
1.19
1.30
1.42
1.56
1.71
1.89
2.08
2.29
2.53
2.79
3.08
3.40
3.75
4.13
4.55
5.00
5.49
6.02
6.59
7.20
7.86
8.56
9.30
10.09
10.93
11.81
12.74
13.72
14.76
15.86
17.03
18.26
19.54
20.85
22.16
23.37
24.44
25.22
25.59
25.44
24.66
23.18
20.93
17.98
14.35
10.20
5.69
1.03
-3.56
-7.87
-11.70
-14.88
-17.31
-18.95
-19.79
-19.92
-19.47
-18.58
-17.40
-16.03
-14.55
-12.98
-11.32
-9.57
-7.78
-6.01
-4.31
-2.70
-1.18
0.34
1.92
3.66
5.66
7.79
9.95
12.01
13.94
15.75
17.56
19.56
21.95
24.89
28.10
31.26
34.11
36.46
38.36
40.08
42.02
44.61
48.16
52.15
56.02
59.14
61.14
62.01
62.17
62.33
63.15
65.07
67.29
68.77
68.38
65.24
58.91
49.39
36.67
20.09
2.80
-14.70
-32.71
-51.98
-73.54
-98.32
-126.89
-158.66
-191.37
-220.78
-242.27
-251.46
-246.08
-227.03
-198.28
-165.33
-133.24
-105.20
-82.04
-63.53
-48.81
-37.21
-28.36
-21.86
-16.88
-12.23
-6.79
-0.01
7.55
14.76
20.42
23.72
24.57
23.57
21.65
19.69
18.17
16.88
15.25
12.70
9.05
4.73
0.77
-1.58
-1.30
1.99
7.81
15.01
22.17
27.99
31.60
32.70
31.45
28.37
24.14
19.50
15.07
11.28
8.26
5.88
3.89
2.08
0.32
-1.36
-2.89
-4.32
-5.80
-7.53
-9.69
-12.34
-15.49
-19.14
-23.28
-27.78
-32.20
-35.76
-37.45
-36.37
-32.12
-25.04
-16.09
-6.62
2.06
8.99
13.64
15.89
15.95
14.24
11.36
7.94
4.57
1.74
-0.25
-1.32
-1.56
-1.18
-0.48
0.28
0.88
1.17
1.05
0.43
-0.79
-2.70
-5.37
-8.74
-12.54
-16.21
-18.99
-20.07
-18.80
-15.00
-8.96
-1.45
6.63
14.40
21.27
26.91
31.16
33.99
35.43
35.69
35.17
34.43
34.11
34.72
36.49
39.27
42.59
45.77
48.13
49.18
48.71
46.87
44.06
40.85
37.72
34.94
32.51
30.15
27.41
23.94
19.67
15.03
10.88
8.36
8.50
11.77
17.96
26.16
35.14
43.68
50.93
56.48
60.26
62.40
63.12
62.70
61.50
59.98
58.58
57.62
57.13
56.82
56.11
54.37
51.12
46.18
39.82
32.67
25.55
19.23
14.20
10.57
8.08
6.30
4.76
3.10
1.02
-1.67
-5.08
-9.02
-12.94
-15.92
-16.90
-15.07
-10.29
-3.23
4.73
12.03
17.34
19.94
19.79
17.32
13.16
7.85
1.74
-4.97
-12.08
-19.23
-25.93
-31.59
-35.75
-38.19
-38.89
-37.99
-35.65
-31.97
-27.06
-21.13
-14.55
-7.96
-2.05
2.49
5.20
5.87
4.55
1.41
-3.34
-9.50
-16.84
-24.98
-33.33
-41.10
-47.47
-51.89
-54.30
-55.12
-55.07
-54.82
-54.79
-54.99
-55.13
-54.94
-54.24
-53.10
-51.70
-50.20
-48.65
-46.99
-45.08
-42.81
-40.09
-36.88
-33.19
-29.02
-24.40
-19.38
-14.14
-8.91
-4.03
0.14
3.29
5.24
6.01
5.72
4.62
2.97
1.03
-0.92
-2.55
-3.45
-3.21
-1.59
1.32
5.12
9.10
12.55
14.94
16.07
16.00
14.96
13.19
10.84
8.02
4.81
1.37
-1.99
-4.92
-7.11
-8.41
-8.94
-9.07
-9.30
-10.05
-11.51
-13.59
-15.95
-18.22
-20.05
-21.21
-21.57
-21.17
-20.31
-19.56
-19.66
-21.20
-24.31
-28.39
-32.24
-34.46
-33.97
-30.39
-24.13
-16.15
-7.56
0.69
7.95
13.80
18.00
20.43
21.13
20.40
18.72
16.67
14.79
13.39
12.52
12.03
11.70
11.36
10.89
10.33
9.69
9.00
8.26
7.48
6.70
5.97
5.30
4.65
3.86
2.73
1.10
-1.10
-3.76
-6.67
-9.45
-11.65
-12.73
-12.14
-9.46
-4.55
2.34
10.52
19.05
26.96
33.46
38.10
40.73
41.47
40.61
38.54
35.72
32.53
29.28
26.06
22.80
19.42
15.84
12.17
8.53
5.07
1.81
-1.31
-4.38
-7.43
-10.38
-13.07
-15.35
-17.18
-18.65
-19.97
-21.40
-23.17
-25.38
-27.95
-30.54
-32.59
-33.43
-32.43
-29.26
-24.06
-17.43
-10.32
-3.70
1.73
5.73
8.48
10.33
11.59
12.45
12.94
13.16
13.41
14.13
15.72
18.27
21.54
24.91
27.73
29.52
30.11
29.56
28.04
25.60
22.21
17.76
12.28
5.99
-0.68
-7.26
-13.36
-18.81
-23.61
-27.76
-31.13
-33.27
-33.64
-31.73
-27.38
-20.96
-13.27
-5.33
1.91
7.87
12.29
15.19
16.66
16.80
15.78
13.86
11.50
9.24
7.53
6.55
6.15
5.97
5.57
4.68
3.22
1.40
-0.45
-1.98
-2.96
-3.34
-3.31
-3.16
-3.21
-3.69
-4.69
-6.19
-8.12
-10.30
-12.48
-14.25
-15.09
-14.51
-12.26
-8.41
-3.42
1.97
7.00
11.05
13.77
15.16
15.46
15.00
14.15
13.18
12.26
11.51
11.06
11.01
11.39
12.12
12.93
13.52
13.61
13.20
12.50
11.89
11.70
12.09
12.90
13.77
14.22
13.81
12.32
9.75
6.41
2.83
-0.34
-2.47
-3.13
-2.26
-0.20
2.44
4.97
6.79
7.54
7.11
5.57
3.05
-0.21
-3.89
-7.56
-10.77
-13.16
-14.64
-15.38
-15.78
-16.23
-16.95
-17.93
-19.01
-20.05
-21.01
-22.02
-23.25
-24.78
-26.61
-28.67
-30.92
-33.30
-35.70
-37.87
-39.35
-39.63
-38.33
-35.43
-31.29
-26.61
-22.16
-18.58
-16.22
-15.21
-15.46
-16.77
-18.87
-21.46
-24.17
-26.66
-28.64
-29.94
-30.52
-30.51
-30.09
-29.48
-28.81
-28.13
-27.39
-26.50
-25.41
-24.14
-22.80
-21.58
-20.70
-20.27
-20.25
-20.36
-20.15
-19.12
-16.97
-13.66
-9.48
-4.93
-0.54
3.37
6.65
9.30
11.36
12.77
13.46
13.48
13.03
12.51
12.38
12.98
14.41
16.47
18.78
20.89
22.43
23.19
23.12
22.31
20.91
19.06
16.87
14.43
11.77
8.92
5.90
2.82
-0.10
-2.50
-3.89
-3.82
-1.98
1.64
6.65
12.38
18.05
22.95
26.63
28.93
29.91
29.74
28.62
26.78
24.53
22.21
20.18
18.66
17.70
17.16
16.70
16.03
14.94
13.40
11.47
9.26
6.86
4.27
1.50
-1.46
-4.55
-7.67
-10.80
-13.95
-17.16
-20.33
-23.13
-24.99
-25.34
-23.88
-20.84
-16.89
-12.77
-8.89
-5.14
-1.04
3.78
9.11
14.14
17.77
19.23
18.59
16.79
15.24
15.19
17.16
20.79
25.13
29.10
31.96
33.46
33.79
33.34
32.67
32.54
34.02
38.35
46.52
58.63
73.63
89.52
104.19
116.35
126.06
134.33
142.21
149.75
155.63
157.69
153.94
143.54
127.17
106.64
84.16
61.62
40.23
20.55
2.66
-13.65
-28.62
-42.45
-55.13
-66.44
-76.02
-83.63
-89.40
-93.91
-98.01
-102.55
-108.07
-114.72
-122.25
-130.20
-137.97
-144.90
-150.32
-153.56
-154.10
-151.73
-146.69
-139.65
-131.52
-123.23
-115.38
-108.09
-100.99
-93.39
-84.59
-74.16
-62.18
-49.26
-36.45
-24.84
-15.28
-8.13
-3.18
0.13
2.51
4.49
6.19
7.27
7.13
5.20
1.27
-4.41
-11.12
-17.91
-23.75
-27.72
-29.04
-27.14
-21.81
-13.21
-1.87
11.70
27.33
45.12
64.96
85.82
105.34
120.29
128.00
127.79
121.85
114.68
111.28
115.13
126.44
141.90
155.63
160.86
151.55
123.72
76.48
12.86
-60.12
-132.09
-191.53
-228.61
-238.05
-220.64
-182.81
-134.31
-85.04
-42.42
-10.13
11.40
23.70
28.72
28.18
23.64
16.95
10.37
6.25
6.28
10.94
19.39
29.95
41.03
51.78
62.12
72.32
82.17
90.77
96.75
99.02
97.61
93.87
90.03
88.45
90.91
98.27
110.37
126.17
143.65
160.13
172.71
179.11
178.34
171.05
158.95
143.91
127.12
108.86
88.93
67.51
45.77
25.84
10.27
1.19
-0.16
6.28
19.41
37.15
56.78
75.43
90.72
101.38
107.30
109.13
107.55
102.71
94.28
82.01
66.25
48.02
28.43
7.95
-13.81
-37.33
-61.92
-84.82
-101.62
-108.07
-102.21
-85.59
-62.46
-37.61
-14.07
7.72
28.97
50.46
70.93
86.96
94.60
91.33
77.26
54.87
27.53
-2.07
-32.58
-63.66
-94.93
-125.41
-153.43
-177.29
-195.97
-209.49
-218.83
-225.44
-230.66
-235.22
-238.76
-239.75
-235.65
-223.70
-201.97
-170.37
-131.21
-88.79
-48.29
-14.34
9.97
23.39
26.07
18.83
2.81
-20.51
-48.67
-77.92
-103.33
-119.74
-123.10
-111.59
-86.09
-49.82
-7.47
35.71
74.53
104.37
121.74
124.97
114.76
94.08
67.32
38.93
12.31
-10.74
-29.51
-43.66
-52.80
-56.58
-55.31
-50.27
-43.40
-36.42
-29.98
-23.37
-14.99
-3.36
12.02
30.38
50.20
69.93
88.74
106.81
125.02
144.33
165.07
186.45
206.62
223.31
234.67
240.05
240.10
236.23
229.75
221.15
210.14
196.23
179.60
161.64
144.62
130.91
121.78
116.84
114.16
111.17
105.65
96.55
84.16
69.79
55.19
41.93
30.94
22.21
14.90
7.65
-0.95
-11.86
-25.29
-40.54
-56.18
-70.43
-81.74
-89.32
-93.46
-95.44
-96.87
-98.94
-101.67
-103.79
-103.45
-99.22
-91.04
-80.31
-69.11
-58.89
-49.49
-39.42
-26.78
-11.07
5.71
19.31
24.37
16.14
-7.97
-47.60
-98.98
-154.76
-204.77
-238.10
-246.47
-228.14
-189.96
-146.19
-113.55
-104.50
-121.85
-157.68
-196.99
-224.32
-229.85
-212.15
-177.04
-133.81
-91.18
-54.97
-27.82
-10.15
-1.33
-0.53
-6.38
-16.78
-28.75
-38.73
-43.63
-41.91
-34.31
-23.69
-14.26
-9.82
-12.33
-21.14
-33.29
-44.80
-52.28
-54.03
-50.43
-43.41
-35.36
-28.17
-22.58
-18.22
-14.08
-9.20
-3.17
3.65
10.31
15.75
19.14
20.30
19.65
18.10
16.62
15.92
16.16
16.87
17.21
16.21
13.09
7.42
-0.73
-10.74
-21.46
-31.38
-38.97
-43.20
-43.82
-41.44
-36.99
-31.24
-24.30
-15.78
-5.29
6.92
19.68
31.24
39.93
44.90
46.30
45.02
42.09
38.14
33.35
27.68
21.16
14.00
6.38
-1.73
-10.51
-20.00
-29.68
-38.39
-44.59
-47.14
-45.82
-41.63
-36.20
-31.10
-27.21
-24.65
-23.18
-22.60
-23.03
-24.56
-26.78
-28.47
-27.85
-23.25
-13.96
-0.66
14.57
28.95
39.90
45.73
46.02
41.42
33.29
23.29
13.07
4.11
-2.46
-6.08
-6.87
-5.72
-3.85
-2.40
-1.94
-2.33
-2.99
-3.40
-3.59
-4.27
-6.67
-12.08
-21.35
-34.44
-50.17
-66.15
-79.24
-86.22
-84.78
-74.38
-56.53
-34.29
-11.17
9.97
27.75
42.11
53.73
63.21
70.65
75.79
78.41
78.69
77.12
74.15
69.73
63.25
53.94
41.50
26.57
10.60
-4.67
-17.88
-28.44
-36.53
-42.75
-47.88
-52.72
-58.03
-64.37
-71.85
-79.77
-86.69
-90.75
-90.18
-83.89
-71.75
-54.65
-34.36
-13.28
5.88
20.77
30.12
34.30
35.33
36.10
39.18
45.74
55.15
65.49
74.45
80.39
82.70
81.71
78.19
72.94
66.49
59.18
51.27
43.02
34.74
26.80
19.68
13.97
10.39
9.55
11.71
16.58
23.17
29.96
35.24
37.55
36.16
31.27
23.96
15.69
7.74
0.65
-5.91
-12.82
-20.81
-29.71
-38.14
-43.87
-44.68
-39.45
-28.77
-14.80
-0.58
11.08
18.38
20.81
18.91
13.81
6.99
0.08
-5.03
-6.54
-3.19
5.03
16.66
29.01
38.99
44.00
42.59
34.46
20.21
0.95
-21.76
-45.86
-68.69
-87.30
-99.01
-102.24
-96.99
-84.87
-68.59
-51.02
-34.50
-20.20
-8.13
2.51
12.71
23.03
33.25
42.45
49.46
53.38
54.11
52.34
49.31
46.37
44.61
44.67
46.63
50.13
54.32
58.10
60.36
60.40
58.17
54.30
49.70
45.07
40.41
34.92
27.28
16.37
1.93
-14.92
-31.78
-45.73
-54.31
-56.44
-52.97
-46.37
-39.82
-36.10
-36.59
-40.95
-47.30
-52.93
-55.09
-51.79
-42.26
-27.08
-8.04
12.47
32.04
48.88
62.08
71.56
77.74
81.23
82.50
81.80
79.21
74.69
68.19
59.79
49.74
38.53
26.70
14.58
1.95
-12.13
-29.00
-49.67
-73.87
-99.55
-123.13
-140.64
-149.26
-148.47
-140.09
-127.25
-112.71
-97.72
-81.83
-63.75
-42.72
-19.29
4.82
27.55
47.56
64.58
79.10
91.64
102.08
109.65
113.41
112.91
108.58
101.62
93.56
85.67
78.64
72.59
67.30
62.44
57.75
53.01
47.88
41.68
33.29
21.25
4.34
-17.61
-42.99
-68.32
-89.14
-101.57
-103.85
-97.08
-84.48
-69.68
-55.02
-40.74
-25.53
-7.96
12.10
33.08
52.27
67.04
75.92
78.87
77.05
72.03
65.25
57.77
50.35
43.57
37.84
33.37
30.03
27.44
25.04
22.36
19.05
14.78
9.00
0.79
-10.97
-27.18
-47.78
-71.21
-94.26
-112.62
-122.04
-119.68
-105.18
-80.97
-51.67
-22.61
1.78
19.32
30.39
37.31
42.97
49.46
57.43
66.13
74.20
80.44
84.31
85.83
85.27
82.85
78.65
72.85
65.86
58.48
51.58
45.83
41.42
38.01
34.91
31.36
26.80
21.07
14.36
7.03
-0.63
-8.58
-17.03
-26.13
-35.58
-44.39
-51.02
-53.90
-52.15
-46.15
-37.40
-27.94
-19.49
-12.78
-7.48
-2.66
2.45
8.08
13.83
19.04
23.24
26.38
28.75
30.70
32.35
33.59
34.19
34.10
33.60
33.13
33.10
33.50
33.71
32.65
29.09
22.00
10.89
-4.15
-22.56
-43.41
-65.52
-87.49
-107.64
-124.17
-135.25
-139.36
-135.54
-123.81
-105.39
-82.67
-58.81
-36.94
-19.14
-5.74
4.78
14.97
27.26
42.75
60.80
79.48
96.43
109.74
118.40
122.10
120.98
115.28
105.56
92.78
78.45
64.32
51.89
41.88
34.11
27.78
22.04
16.45
11.15
6.67
3.50
1.64
0.35
-1.82
-6.49
-14.72
-26.29
-39.41
-51.17
-58.64
-60.09
-55.75
-47.57
-38.22
-29.75
-22.79
-16.67
-10.33
-3.34
3.66
9.33
12.46
12.76
11.01
8.59
6.71
5.88
5.94
6.44
7.08
7.95
9.33
11.26
13.18
13.91
12.04
6.53
-2.76
-15.00
-28.58
-41.63
-52.56
-60.47
-65.31
-67.73
-68.82
-69.53
-70.30
-70.74
-69.75
-65.95
-58.26
-46.52
-31.65
-15.51
-0.31
12.08
20.67
25.45
27.31
27.55
27.46
27.92
29.22
31.19
33.37
35.29
36.66
37.35
37.42
37.00
36.29
35.59
35.25
35.53
36.51
38.01
39.66
41.15
42.30
43.11
43.46
42.92
40.62
35.59
27.21
15.65
2.01
-12.05
-24.88
-35.32
-42.94
-47.85
-50.31
-50.45
-48.17
-43.23
-35.41
-24.82
-12.05
1.73
14.70
24.90
30.84
32.18
30.09
26.99
25.64
28.15
35.38
46.98
61.80
78.26
94.10
106.32
111.65
108.13
97.11
83.94
76.10
79.46
94.67
116.25
135.30
144.41
141.65
131.06
119.29
110.77
104.51
94.84
75.25
42.98
1.01
-43.26
-81.55
-107.78
-119.03
-114.88
-96.50
-66.51
-29.20
9.61
43.84
69.08
83.62
88.23
84.43
72.97
53.63
26.51
-6.61
-42.08
-75.69
-104.68
-128.64
-148.52
-164.44
-174.38
-174.77
-162.94
-139.49
-108.90
-77.95
-52.84
-36.97
-30.21
-29.93
-32.82
-36.26
-38.74
-39.61
-38.73
-36.07
-31.84
-26.62
-21.43
-17.44
-15.60
-16.01
-17.88
-19.75
-20.13
-18.26
-14.36
-9.56
-5.21
-2.11
-0.13
1.74
4.84
10.10
17.59
26.44
35.23
42.64
47.84
50.64
51.30
50.32
48.49
47.00
47.43
51.29
59.32
70.83
83.73
95.39
104.01
109.74
114.47
120.57
129.17
139.29
148.28
153.54
153.90
150.19
144.43
138.35
132.54
126.62
120.47
115.23
113.47
117.86
129.28
145.68
162.35
173.75
175.72
167.00
149.32
126.27
101.75
78.71
58.95
43.54
33.30
28.69
29.53
34.41
40.86
45.88
46.99
42.93
33.67
20.16
3.62
-14.88
-34.68
-55.34
-76.87
-99.72
-124.69
-152.53
-183.09
-214.61
-243.69
-266.19
-278.76
-280.09
-271.30
-255.18
-234.86
-212.73
-190.15
-167.95
-147.13
-129.12
-115.31
-106.36
-101.65
-99.48
-97.68
-94.60
-89.48
-82.47
-74.26
-65.55
-56.78
-48.06
-39.24
-29.88
-19.41
-7.36
6.43
21.67
37.42
52.31
64.87
74.17
80.24
84.34
88.60
95.14
104.75
116.27
126.41
130.83
125.78
109.33
81.74
44.97
2.02
-43.38
-86.99
-124.69
-153.74
-174.17
-189.12
-203.39
-220.65
-240.86
-259.77
-270.96
-269.42
-254.31
-229.14
-199.39
-169.31
-140.03
-110.20
-78.23
-44.52
-11.91
15.87
36.42
50.00
59.41
68.26
78.69
89.91
98.22
98.30
85.34
56.75
13.11
-42.22
-104.18
-167.35
-226.75
-278.01
-317.41
-341.77
-348.96
-338.41
-311.42
-270.85
-220.30
-163.36
-103.31
-43.42
12.67
60.87
97.48
120.25
129.38
127.49
118.76
107.42
96.54
87.60
80.97
76.63
74.93
76.76
83.23
95.18
112.53
133.76
155.90
174.75
185.87
185.69
172.58
147.36
113.14
74.39
35.78
1.12
-27.33
-48.85
-63.95
-73.89
-80.21
-84.45
-87.99
-91.96
-97.03
-103.40
-110.62
-117.68
-123.04
-124.84
-121.10
-109.91
-89.91
-60.74
-23.82
17.37
57.65
91.27
113.58
122.58
119.47
108.23
94.17
82.20
75.52
75.09
79.92
87.90
96.70
104.26
109.05
110.00
106.42
98.21
85.90
70.54
53.17
34.35
13.80
-9.08
-34.18
-59.78
-82.33
-97.56
-102.24
-95.82
-80.80
-61.64
-42.80
-26.90
-14.14
-3.04
8.05
19.67
30.78
39.11
41.98
37.06
22.89
-0.60
-31.63
-66.51
-99.96
-126.38
-141.45
-143.52
-134.05
-116.99
-97.27
-79.10
-65.04
-55.61
-49.88
-46.07
-42.25
-36.71
-28.31
-16.65
-2.21
13.70
29.40
43.26
54.36
62.75
69.58
76.79
86.33
99.42
115.73
133.12
147.99
156.42
155.48
144.38
124.85
100.49
75.44
53.04
34.96
21.18
10.63
2.15
-4.95
-10.77
-15.20
-18.33
-20.71
-23.12
-26.18
-29.97
-34.02
-37.60
-40.10
-41.37
-41.67
-41.42
-40.86
-39.85
-38.01
-34.87
-30.25
-24.31
-17.54
-10.61
-4.19
1.10
4.77
6.55
6.48
4.91
2.47
-0.13
-2.21
-3.39
-3.51
-2.68
-1.09
1.07
3.65
6.54
9.56
12.43
14.80
16.36
16.86
16.27
14.76
12.59
10.01
7.12
3.91
0.34
-3.62
-7.84
-12.17
-16.49
-20.67
-24.57
-27.88
-30.03
-30.36
-28.29
-23.71
-17.04
-9.24
-1.43
5.47
10.93
14.87
17.53
19.21
20.10
20.34
20.01
19.25
18.31
17.47
16.96
16.83
16.96
17.10
17.03
16.67
16.02
15.18
14.17
12.93
11.32
9.19
6.39
2.87
-1.38
-6.30
-11.81
-17.80
-24.10
-30.42
-36.28
-41.01
-43.84
-44.08
-41.41
-36.10
-28.97
-21.06
-13.19
-5.74
1.38
8.41
15.27
21.40
25.85
27.76
26.76
23.19
17.99
12.34
7.21
3.17
0.34
-1.58
-3.22
-5.35
-8.78
-14.10
-21.52
-30.69
-40.74
-50.42
-58.46
-63.91
-66.48
-66.66
-65.51
-64.16
-63.26
-62.67
-61.44
-58.35
-52.49
-43.74
-32.82
-20.86
-8.85
2.82
14.36
26.30
39.11
52.94
67.51
82.26
96.43
109.20
119.72
127.13
130.72
129.95
124.61
114.78
100.94
84.02
65.45
47.03
30.54
17.16
7.08
-0.71
-8.01
-16.68
-27.91
-41.74
-57.21
-72.77
-86.92
-98.60
-107.31
-113.02
-115.85
-116.00
-113.54
-108.44
-100.57
-89.60
-75.23
-57.26
-35.85
-11.81
13.27
37.08
56.99
70.61
76.59
75.12
68.11
58.77
50.73
46.86
48.43
54.86
63.96
72.91
79.18
81.16
78.20
70.31
57.77
41.14
21.45
0.41
-19.69
-36.47
-48.03
-53.30
-52.04
-44.56
-31.58
-14.28
5.53
25.47
43.13
56.90
66.50
72.95
77.80
82.02
85.28
86.07
82.45
72.99
57.27
35.93
10.16
-18.70
-49.29
-80.06
-109.21
-134.75
-154.81
-168.01
-173.68
-171.86
-163.02
-147.90
-127.51
-103.25
-77.15
-51.95
-30.69
-16.04
-9.47
-10.54
-16.73
-23.87
-27.37
-23.60
-11.07
9.16
34.03
59.72
82.94
101.91
116.36
127.09
135.09
140.90
144.45
145.35
143.47
139.39
134.48
130.43
128.55
129.17
131.45
133.60
133.28
127.98
115.17
92.49
58.26
12.35
-42.91
-102.23
-157.99
-201.96
-227.61
-232.18
-217.52
-189.03
-153.57
-117.01
-82.82
-51.92
-23.77
2.40
26.83
49.30
69.69
88.38
106.06
122.93
137.96
148.73
152.34
146.80
132.16
110.81
86.71
63.90
45.08
30.86
19.94
10.11
-0.63
-13.01
-26.21
-38.37
-47.45
-52.13
-52.37
-49.26
-44.65
-40.44
-38.05
-38.28
-41.25
-46.60
-53.66
-61.53
-69.14
-75.35
-79.06
-79.46
-76.28
-69.89
-61.14
-51.07
-40.51
-29.91
-19.48
-9.51
-0.69
6.01
9.86
10.92
10.48
10.70
13.83
21.20
32.62
46.52
60.62
72.72
81.34
85.87
86.52
84.05
79.42
73.35
65.85
55.99
42.09
22.61
-2.85
-32.61
-62.87
-88.69
-105.53
-110.68
-103.94
-87.36
-64.27
-38.17
-12.04
12.02
32.65
49.13
61.31
69.60
74.96
78.74
82.45
87.46
94.81
105.00
117.71
131.75
145.07
155.18
159.95
158.27
150.42
137.87
122.54
106.11
89.66
73.77
58.74
44.62
30.99
16.65
-0.00
-20.14
-43.26
-66.64
-85.92
-96.85
-97.26
-88.14
-73.21
-57.21
-43.94
-35.00
-29.82
-26.76
-24.29
-21.76
-19.26
-17.11
-15.28
-13.38
-10.92
-7.90
-5.04
-3.66
-5.14
-10.13
-18.14
-27.51
-35.93
-41.34
-42.67
-40.20
-35.41
-30.26
-26.44
-24.77
-24.99
-25.99
-26.26
-24.39
-19.36
-10.75
1.21
15.69
31.33
46.50
59.63
69.68
76.35
80.02
81.43
81.25
79.68
76.40
70.80
62.26
50.55
35.94
19.26
1.69
-15.47
-31.06
-44.26
-54.66
-62.21
-67.00
-69.10
-68.45
-64.94
-58.67
-50.13
-40.27
-30.27
-21.35
-14.53
-10.51
-9.74
-12.46
-18.58
-27.62
-38.57
-49.98
-60.26
-68.10
-72.67
-73.77
-71.65
-66.74
-59.52
-50.49
-40.22
-29.39
-18.75
-8.97
-0.58
6.13
11.03
14.11
15.44
15.23
13.84
11.72
9.36
7.10
5.06
3.18
1.27
-0.72
-2.62
-3.97
-4.09
-2.40
1.34
6.79
13.04
18.89
23.24
25.49
25.67
24.34
22.23
19.95
17.83
16.03
14.73
14.32
15.22
17.75
21.84
27.03
32.53
37.48
41.19
43.26
43.58
42.26
39.47
35.42
30.23
23.87
16.25
7.16
-3.56
-15.90
-29.61
-44.13
-58.58
-71.77
-82.25
-88.56
-89.45
-84.35
-73.57
