1660935749.00
64.000000
-0.00
-0.00
-0.00
-0.00
-0.00
-0.00
-0.00
-0.00
-0.00
-0.00
0.00
0.01
0.01
-0.00
-0.03
-0.05
-0.05
0.00
0.13
0.36
0.66
1.01
1.37
1.72
2.06
2.40
2.79
3.25
3.81
4.44
5.10
5.73
6.32
6.90
7.52
8.26
9.15
10.28
11.53
12.78
13.90
14.87
15.76
16.77
18.12
19.96
22.47
25.43
28.56
31.55
34.29
36.88
39.71
43.21
47.70
53.49
60.16
67.15
73.90
80.14
86.08
92.33
99.64
108.48
119.22
131.18
143.44
155.12
165.85
175.98
186.42
198.63
211.17
225.99
243.26
262.81
283.41
302.50
316.27
320.60
312.35
290.43
256.68
214.24
166.97
118.02
69.37
21.95
-23.70
-67.05
-107.53
-144.67
-179.03
-211.91
-245.03
-279.71
-316.02
-352.20
-384.60
-408.82
-420.93
-419.19
-404.75
-381.23
-353.24
-324.71
-297.75
-272.65
-248.73
-225.37
-202.77
-181.73
-163.02
-146.77
-132.35
-118.67
-104.88
-90.73
-76.64
-63.48
-52.02
-42.57
-34.84
-28.15
-21.77
-15.29
-8.71
-2.42
3.10
7.54
10.88
13.41
15.54
17.61
19.78
21.97
23.95
25.49
26.42
26.75
26.62
26.25
25.83
25.50
25.27
25.07
24.79
24.36
23.75
23.01
22.17
21.32
20.53
19.86
19.34
18.95
18.61
18.24
17.78
17.21
16.59
16.01
15.51
15.10
14.77
14.50
14.26
14.04
13.80
13.47
13.03
12.48
11.89
11.38
10.99
10.75
10.61
10.52
10.41
10.28
10.10
9.87
9.55
9.14
8.66
8.18
7.77
7.47
7.26
7.06
6.80
6.46
6.05
5.64
5.26
4.92
4.57
4.16
3.68
3.15
2.64
2.22
1.90
1.66
1.40
1.05
0.58
-0.03
-0.74
-1.49
-2.23
-2.94
-3.61
-4.27
-4.96
-5.70
-6.53
-7.42
-8.35
-9.25
-10.04
-10.60
-10.83
-10.66
-10.15
-9.40
-8.58
-7.81
-7.11
-6.47
-5.79
-5.04
-4.23
-3.44
-2.77
-2.23
-1.81
-1.42
-0.97
-0.40
0.25
0.92
1.50
1.94
2.19
2.30
2.31
2.31
2.31
2.31
2.25
2.10
1.87
1.61
1.40
1.30
1.27
1.26
1.16
0.89
0.47
-0.06
-0.60
-1.04
-1.35
-1.51
-1.56
-1.51
-1.33
-0.95
-0.25
0.88
2.50
4.51
6.64
8.57
9.97
10.68
10.70
10.20
9.42
8.56
7.76
7.07
6.41
5.74
4.99
4.18
3.38
2.67
2.11
1.72
1.43
1.14
0.81
0.44
0.11
-0.12
-0.21
-0.19
-0.13
-0.07
0.01
0.19
0.59
1.27
2.25
3.40
4.60
5.66
6.45
6.90
6.99
6.76
6.31
5.74
5.12
4.50
3.87
3.21
2.49
1.72
0.94
0.23
-0.31
-0.62
-0.71
-0.65
-0.53
-0.44
-0.43
-0.49
-0.54
-0.51
-0.33
0.02
0.54
1.20
2.03
3.04
4.21
5.43
6.48
7.12
7.13
6.45
5.22
3.71
2.23
1.04
0.21
-0.27
-0.51
-0.59
-0.57
-0.49
-0.44
-0.49
-0.72
-1.13
-1.62
-2.05
-2.26
-2.21
-1.97
-1.68
-1.47
-1.33
-1.16
-0.79
-0.10
0.87
2.00
3.05
3.85
4.33
4.51
4.48
4.33
4.11
3.86
3.58
3.26
2.89
2.46
2.01
1.58
1.25
1.09
1.08
1.16
1.21
1.17
1.04
0.86
0.69
0.57
0.46
0.33
0.15
-0.09
-0.34
-0.57
-0.77
-0.93
-1.03
-1.02
-0.86
-0.53
-0.09
0.34
0.65
0.72
0.56
0.24
-0.12
-0.40
-0.54
-0.55
-0.47
-0.37
-0.29
-0.23
-0.14
-0.01
0.16
0.34
0.45
0.46
0.35
0.14
-0.09
-0.29
-0.42
-0.46
-0.37
-0.17
0.13
0.47
0.73
0.83
0.72
0.46
0.18
0.03
0.07
0.26
0.49
0.63
0.66
0.60
0.57
0.62
0.73
0.84
0.87
0.81
0.69
0.59
0.56
0.57
0.61
0.62
0.60
0.56
0.51
0.48
0.47
0.49
0.52
0.53
0.47
0.29
-0.01
-0.36
-0.63
-0.67
-0.42
0.07
0.65
1.10
1.30
1.20
0.88
0.50
0.21
0.10
0.17
0.40
0.68
0.91
1.03
0.97
0.75
0.44
0.12
-0.09
-0.11
0.10
0.47
0.92
1.32
1.55
1.56
1.35
0.94
0.41
-0.16
-0.69
-1.10
-1.35
-1.41
-1.32
-1.11
-0.84
-0.56
-0.30
-0.08
0.09
0.21
0.28
0.33
0.38
0.47
0.62
0.81
1.00
1.08
0.98
0.68
0.25
-0.16
-0.39
-0.37
-0.12
0.23
0.53
0.68
0.66
0.51
0.31
0.09
-0.11
-0.25
-0.30
-0.22
-0.01
0.27
0.52
0.66
0.70
0.70
0.70
0.74
0.78
0.75
0.59
0.33
0.02
-0.22
-0.34
-0.31
-0.18
-0.02
0.08
0.09
0.02
-0.09
-0.17
-0.19
-0.14
-0.06
-0.01
-0.02
-0.09
-0.19
-0.26
-0.27
-0.20
-0.08
0.05
0.14
0.14
0.03
-0.16
-0.37
-0.48
-0.42
-0.17
0.21
0.54
0.69
0.56
0.19
-0.31
-0.75
-1.00
-1.02
-0.86
-0.63
-0.43
-0.32
-0.31
-0.37
-0.46
-0.52
-0.53
-0.44
-0.26
-0.04
0.13
0.15
-0.06
-0.51
-1.09
-1.64
-2.02
-2.18
-2.19
-2.25
-2.54
-3.17
-4.08
-5.08
-5.95
-6.53
-6.82
-6.93
-7.05
-7.32
-7.83
-8.64
-9.73
-11.03
-12.27
-13.03
-12.76
-11.13
-8.25
-4.81
-1.92
-0.64
-1.54
-4.45
-8.56
-12.82
-16.37
-18.85
-20.42
-21.62
-23.07
-25.34
-28.75
-33.37
-38.93
-44.90
-50.62
-55.55
-59.56
-62.95
-66.44
-70.79
-76.54
-83.69
-91.81
-100.27
-108.57
-116.61
-124.66
-133.11
-142.21
-151.99
-162.32
-172.99
-183.60
-193.13
-199.73
-200.82
-193.75
-176.78
-149.73
-113.99
-71.67
-24.67
25.73
78.39
131.27
180.85
222.61
252.56
269.01
273.54
270.48
265.06
261.46
261.54
264.85
269.75
274.74
279.27
283.83
289.30
296.29
304.68
313.56
321.57
327.13
328.87
325.65
316.59
301.10
278.95
250.33
215.93
176.79
134.06
88.58
40.74
-9.20
-60.47
-111.05
-157.56
-195.96
-222.85
-236.78
-238.85
-232.24
-220.83
-207.87
-195.14
-183.05
-171.39
-160.08
-149.48
-140.11
-132.23
-125.42
-118.83
-111.51
-102.99
-93.44
-83.70
-74.79
-67.55
-62.23
-58.39
-55.18
-51.64
-47.16
-41.73
-35.89
-30.44
-26.02
-22.88
-20.73
-19.02
-17.16
-14.86
-12.16
-9.41
-7.01
-5.25
-4.19
-3.64
-3.30
-2.88
-2.24
-1.39
-0.49
0.26
0.73
0.90
0.83
0.66
0.48
0.33
0.22
0.14
0.09
0.07
0.08
0.12
0.17
0.24
0.32
0.40
0.42
0.33
0.11
-0.18
-0.45
-0.58
-0.53
-0.34
-0.13
0.01
0.05
0.04
0.07
0.19
0.40
0.65
0.83
0.89
0.84
0.70
0.54
0.40
0.29
0.16
-0.01
-0.26
-0.54
-0.75
-0.79
-0.60
-0.23
0.17
0.44
0.44
0.20
-0.19
-0.54
-0.69
-0.58
-0.28
0.08
0.35
0.47
0.42
0.29
0.14
0.05
0.03
0.02
-0.03
-0.16
-0.36
-0.60
-0.81
-0.96
-1.02
-0.98
-0.87
-0.72
-0.57
-0.45
-0.34
-0.24
-0.10
0.11
0.36
0.60
0.73
0.68
0.46
0.16
-0.09
-0.16
-0.03
0.25
0.58
0.84
1.00
1.05
1.01
0.90
0.74
0.53
0.32
0.17
0.11
0.17
0.29
0.39
0.39
0.28
0.08
-0.16
-0.41
-0.66
-0.91
-1.16
-1.37
-1.47
-1.45
-1.31
-1.14
-0.99
-0.94
-0.98
-1.03
-1.04
-0.96
-0.83
-0.68
-0.54
-0.36
-0.08
0.36
0.96
1.62
2.19
2.49
2.40
1.87
0.98
-0.09
-1.12
-1.89
-2.24
-2.12
-1.60
-0.84
-0.03
0.68
1.23
1.65
1.97
2.21
2.33
2.24
1.92
1.39
0.79
0.26
-0.07
-0.20
-0.19
-0.13
-0.10
-0.11
-0.12
-0.06
0.12
0.45
0.96
1.66
2.52
3.44
4.27
4.82
4.92
4.50
3.62
2.49
1.34
0.41
-0.19
-0.47
-0.59
-0.70
-0.93
-1.31
-1.74
-2.10
-2.33
-2.46
-2.56
-2.74
-2.99
-3.22
-3.27
-3.04
-2.55
-1.92
-1.35
-0.97
-0.79
-0.69
-0.55
-0.22
0.30
0.96
1.66
2.28
2.73
2.97
2.95
2.66
2.14
1.47
0.77
0.17
-0.23
-0.44
-0.54
-0.63
-0.76
-0.95
-1.15
-1.33
-1.48
-1.69
-2.02
-2.51
-3.05
-3.48
-3.60
-3.31
-2.70
-1.97
-1.32
-0.87
-0.59
-0.36
-0.04
0.39
0.90
1.40
1.88
2.37
2.90
3.45
3.90
4.05
3.76
3.06
2.12
1.25
0.71
0.61
0.86
1.18
1.26
0.91
0.17
-0.76
-1.58
-2.11
-2.32
-2.33
-2.28
-2.28
-2.30
-2.29
-2.22
-2.10
-1.96
-1.80
-1.56
-1.14
-0.50
0.32
1.16
1.81
2.16
2.20
2.03
1.80
1.64
1.60
1.68
1.82
1.96
2.06
2.09
2.01
1.74
1.21
0.38
-0.66
-1.73
-2.60
-3.08
-3.17
-3.02
-2.86
-2.82
-2.88
-2.86
-2.57
-1.92
-1.05
-0.18
0.45
0.78
0.88
0.91
1.02
1.30
1.73
2.26
2.80
3.22
3.41
3.29
2.82
2.12
1.39
0.84
0.60
0.64
0.76
0.75
0.47
-0.07
-0.71
-1.29
-1.70
-1.97
-2.20
-2.49
-2.86
-3.21
-3.40
-3.32
-2.99
-2.49
-1.97
-1.56
-1.29
-1.10
-0.89
-0.56
-0.04
0.66
1.49
2.36
3.19
3.90
4.44
4.77
4.81
4.52
3.88
3.00
2.07
1.31
0.85
0.66
0.60
0.46
0.11
-0.43
-1.03
-1.53
-1.84
-2.02
-2.20
-2.52
-3.05
-3.72
-4.37
-4.80
-4.85
-4.47
-3.70
-2.69
-1.61
-0.60
0.24
0.86
1.23
1.37
1.33
1.21
1.12
1.14
1.24
1.25
0.92
0.06
-1.34
-3.03
-4.60
-5.69
-6.12
-6.04
-5.84
-5.95
-6.66
-7.98
-9.69
-11.42
-12.79
-13.62
-13.91
-13.82
-13.63
-13.63
-14.07
-15.01
-16.28
-17.47
-18.01
-17.44
-15.70
-13.38
-11.59
-11.56
-13.98
-18.52
-23.82
-27.97
-29.36
-27.58
-23.68
-19.78
-18.15
-20.13
-25.54
-32.80
-39.57
-43.80
-44.50
-41.96
-37.70
-33.93
-32.83
-35.69
-42.00
-48.83
-51.00
-42.36
-17.86
23.95
79.40
140.00
194.51
232.20
245.74
233.17
197.55
145.63
85.99
27.51
-21.76
-55.38
-69.25
-62.29
-36.59
2.99
49.82
96.71
136.89
164.61
175.56
167.49
140.93
99.78
50.84
2.28
-38.73
-68.14
-85.81
-94.70
-98.52
-99.61
-98.04
-92.39
-81.50
-66.19
-49.67
-36.07
-28.50
-27.43
-30.57
-34.20
-35.21
-32.54
-27.35
-22.10
-18.99
-18.95
-21.50
-25.39
-29.38
-32.63
-34.61
-34.74
-32.33
-26.81
-18.22
-7.49
3.63
13.20
19.86
23.26
23.95
22.89
20.87
18.21
14.84
10.70
6.00
1.24
-3.04
-6.45
-8.81
-9.90
-9.41
-7.00
-2.72
2.82
8.36
12.45
14.02
12.89
9.79
5.95
2.51
0.07
-1.44
-2.44
-3.31
-4.19
-4.96
-5.47
-5.67
-5.70
-5.72
-5.81
-5.88
-5.76
-5.27
-4.40
-3.32
-2.31
-1.65
-1.50
-1.85
-2.50
-3.16
-3.56
-3.53
-3.10
-2.49
-2.01
-1.93
-2.29
-2.80
-2.99
-2.37
-0.75
1.57
3.87
5.31
5.37
4.04
1.87
-0.37
-2.08
-3.10
-3.73
-4.40
-5.41
-6.70
-8.00
-9.03
-9.77
-10.49
-11.60
-13.39
-15.82
-18.52
-20.96
-22.71
-23.56
-23.61
-23.18
-22.65
-22.45
-22.93
-24.39
-27.03
-30.87
-35.67
-40.96
-46.17
-50.93
-55.21
-59.41
-64.21
-70.24
-77.76
-86.45
-95.59
-104.31
-112.02
-118.77
-125.19
-132.36
-141.42
-153.18
-167.76
-184.30
-200.78
-214.21
-221.13
-218.49
-204.59
-179.52
-145.14
-104.29
-59.67
-13.01
35.20
85.09
136.45
187.83
236.43
278.80
312.01
334.74
347.59
352.73
352.85
350.39
346.98
343.58
340.86
339.44
339.96
342.57
346.52
349.83
349.59
342.64
326.68
300.98
266.67
226.29
182.69
137.82
92.02
44.26
-6.62
-60.29
-113.96
-162.65
-200.86
-224.75
-233.69
-230.45
-219.81
-206.59
-193.94
-182.83
-172.69
-162.60
-152.28
-142.24
-133.24
-125.64
-119.04
-112.53
-105.25
-96.87
-87.73
-78.74
-70.83
-64.54
-59.84
-56.14
-52.56
-48.39
-43.33
-37.59
-31.77
-26.54
-22.37
-19.34
-17.20
-15.51
-13.86
-12.03
-10.03
-8.05
-6.28
-4.84
-3.74
-2.86
-2.07
-1.26
-0.45
0.27
0.78
0.97
0.84
0.49
0.07
-0.30
-0.63
-0.98
-1.44
-2.02
-2.62
-3.09
-3.31
-3.24
-2.95
-2.61
-2.33
-2.15
-2.05
-1.94
-1.70
-1.27
-0.62
0.19
1.04
1.78
2.25
2.39
2.24
1.98
1.80
1.81
2.02
2.34
2.62
2.75
2.67
2.45
2.14
1.86
1.65
1.53
1.45
1.34
1.13
0.78
0.32
-0.17
-0.63
-1.04
-1.43
-1.85
-2.29
-2.70
-2.97
-3.00
-2.78
-2.38
-1.95
-1.58
-1.35
-1.20
-1.06
-0.86
-0.58
-0.23
0.16
0.57
1.03
1.58
2.19
2.79
3.23
3.34
3.05
2.42
1.64
0.95
0.54
0.47
0.62
0.85
1.01
1.05
0.98
0.84
0.64
0.38
0.06
-0.29
-0.59
-0.77
-0.81
-0.77
-0.78
-0.92
-1.24
-1.68
-2.14
-2.47
-2.58
-2.48
-2.20
-1.84
-1.47
-1.15
-0.86
-0.59
-0.31
-0.06
0.16
0.33
0.52
0.82
1.33
2.07
2.90
3.60
3.97
3.90
3.46
2.86
2.32
1.94
1.69
1.44
1.05
0.52
-0.05
-0.51
-0.76
-0.82
-0.81
-0.88
-1.13
-1.54
-2.00
-2.39
-2.61
-2.64
-2.53
-2.35
-2.15
-1.96
-1.76
-1.56
-1.37
-1.22
-1.09
-0.89
-0.51
0.14
1.06
2.10
2.97
3.34
3.03
2.07
0.71
-0.65
-1.65
-2.09
-1.98
-1.51
-0.90
-0.36
0.01
0.22
0.31
0.35
0.37
0.35
0.29
0.19
0.04
-0.14
-0.31
-0.45
-0.54
-0.56
-0.52
-0.44
-0.31
-0.11
0.19
0.57
0.99
1.42
1.80
2.14
2.42
2.61
2.63
2.39
1.82
1.00
0.15
-0.48
-0.68
-0.41
0.15
0.69
0.93
0.76
0.26
-0.36
-0.87
-1.11
-1.11
-0.97
-0.84
-0.80
-0.85
-0.96
-1.04
-1.08
-1.10
-1.15
-1.27
-1.44
-1.61
-1.64
-1.47
-1.04
-0.39
0.39
1.19
1.90
2.43
2.71
2.68
2.33
1.70
0.94
0.25
-0.20
-0.29
-0.05
0.37
0.74
0.90
0.77
0.38
-0.14
-0.64
-0.98
-1.09
-0.98
-0.77
-0.64
-0.75
-1.16
-1.79
-2.43
-2.86
-2.93
-2.64
-2.12
-1.54
-1.00
-0.55
