1660324111.00
64.000000
-0.00
-0.00
-0.00
-0.00
-0.00
-0.00
-0.00
-0.00
-0.00
-0.00
0.00
0.01
0.01
-0.00
-0.03
-0.05
-0.05
0.00
0.13
0.36
0.66
1.01
1.37
1.72
2.06
2.40
2.79
3.24
3.80
4.42
5.06
5.66
6.19
6.67
7.16
7.71
8.37
9.20
10.09
10.92
11.57
12.01
12.34
12.76
13.50
14.72
16.60
18.92
21.37
23.65
25.62
27.41
29.37
31.97
35.47
40.20
45.71
51.40
56.70
61.31
65.42
69.64
74.70
81.05
89.05
97.95
106.79
114.66
121.18
126.70
132.16
139.00
145.80
154.42
164.98
177.22
189.92
200.49
205.23
200.07
181.94
149.75
105.23
51.44
-7.89
-69.60
-131.61
-192.82
-252.49
-309.87
-364.23
-414.69
-461.11
-503.65
-542.52
-577.35
-606.56
-626.99
-634.03
-622.68
-589.02
-532.38
-455.95
-366.31
-271.60
-179.19
-93.96
-17.97
48.61
106.26
154.87
193.94
223.13
242.97
255.03
261.42
264.06
264.05
261.60
256.26
247.64
235.88
221.80
206.65
191.75
177.95
165.49
154.00
142.80
131.36
119.50
107.48
95.77
84.93
75.27
66.85
59.46
52.73
46.31
39.95
33.61
27.41
21.60
16.42
11.99
8.32
5.18
2.37
-0.22
-2.45
-4.13
-5.15
-5.60
-5.78
-6.02
-6.54
-7.26
-8.00
-8.53
-8.79
-8.84
-8.80
-8.70
-8.46
-7.98
-7.26
-6.42
-5.66
-5.12
-4.82
-4.62
-4.37
-3.99
-3.54
-3.15
-2.92
-2.85
-2.89
-2.97
-3.02
-3.04
-3.00
-2.88
-2.65
-2.33
-2.02
-1.82
-1.80
-1.92
-2.05
-2.02
-1.76
-1.32
-0.88
-0.59
-0.56
-0.72
-0.96
-1.16
-1.29
-1.39
-1.51
-1.65
-1.74
-1.67
-1.40
-0.95
-0.45
-0.03
0.18
0.19
0.07
-0.04
-0.04
0.06
0.20
0.24
0.12
-0.13
-0.34
-0.35
-0.01
0.68
1.55
2.35
2.86
3.00
2.85
2.64
2.59
2.80
3.20
3.57
3.68
3.38
2.72
1.84
0.95
0.14
-0.57
-1.19
-1.73
-2.20
-2.57
-2.85
-3.09
-3.36
-3.70
-4.10
-4.47
-4.70
-4.74
-4.61
-4.35
-4.08
-3.88
-3.81
-3.86
-4.00
-4.16
-4.23
-4.11
-3.70
-2.98
-2.00
-0.91
0.12
0.92
1.37
1.50
1.38
1.16
0.98
0.89
0.91
1.00
1.13
1.28
1.40
1.43
1.30
0.91
0.27
-0.50
-1.21
-1.61
-1.53
-0.94
0.02
1.12
2.06
2.67
2.89
2.76
2.41
1.98
1.55
1.21
0.97
0.85
0.83
0.88
0.89
0.80
0.54
0.11
-0.44
-0.98
-1.39
-1.55
-1.44
-1.09
-0.57
0.03
0.65
1.24
1.78
2.25
2.61
2.86
2.98
3.01
2.95
2.81
2.60
2.29
1.89
1.44
0.99
0.54
0.07
-0.50
-1.24
-2.18
-3.23
-4.23
-5.00
-5.42
-5.44
-5.12
-4.57
-3.95
-3.42
-3.08
-2.97
-3.03
-3.10
-3.02
-2.65
-1.94
-1.02
-0.15
0.35
0.14
-0.91
-2.71
-4.94
-7.14
-8.91
-10.00
-10.35
-10.11
-9.44
-8.43
-7.07
-5.36
-3.31
-1.09
1.05
2.86
4.17
4.96
5.31
5.37
5.34
5.34
5.43
5.58
5.72
5.72
5.53
5.16
4.74
4.46
4.46
4.78
5.33
5.93
6.40
6.64
6.65
6.48
6.18
5.75
5.22
4.59
3.96
3.44
3.06
2.73
2.19
1.18
-0.52
-2.91
-5.74
-8.67
-11.28
-13.22
-14.25
-14.29
-13.39
-11.82
-10.00
-8.40
-7.41
-7.18
-7.60
-8.30
-8.90
-9.09
-8.77
-7.94
-6.68
-5.05
-3.08
-0.84
1.57
3.97
6.16
7.97
9.30
10.13
10.47
10.38
9.91
9.11
8.02
6.65
5.06
3.38
1.81
0.57
-0.18
-0.39
-0.22
0.10
0.32
0.30
0.12
-0.07
-0.08
0.12
0.40
0.53
0.33
-0.25
-1.05
-1.84
-2.38
-2.55
-2.40
-2.03
-1.58
-1.13
-0.69
-0.26
0.15
0.52
0.80
0.94
0.96
0.92
0.91
1.00
1.22
1.52
1.80
1.94
1.85
1.53
1.04
0.50
0.07
-0.16
-0.14
0.08
0.42
0.78
1.09
1.30
1.44
1.50
1.47
1.36
1.16
0.93
0.75
0.71
0.84
1.09
1.37
1.61
1.80
1.99
2.25
2.59
2.94
3.20
3.26
3.07
2.62
1.97
1.20
0.46
-0.12
-0.44
-0.49
-0.36
-0.22
-0.19
-0.31
-0.53
-0.75
-0.92
-1.05
-1.17
-1.32
-1.48
-1.59
-1.59
-1.49
-1.33
-1.14
-0.93
-0.66
-0.28
0.16
0.59
0.91
1.08
1.18
1.34
1.69
2.20
2.73
3.09
3.10
2.75
2.14
1.49
0.97
0.66
0.56
0.56
0.55
0.45
0.22
-0.14
-0.57
-0.98
-1.28
-1.38
-1.28
-1.03
-0.70
-0.38
-0.09
0.17
0.37
0.46
0.39
0.09
-0.41
-1.00
-1.50
-1.75
-1.66
-1.30
-0.76
-0.22
0.20
0.46
0.57
0.59
0.58
0.58
0.58
0.55
0.47
0.31
0.12
-0.09
-0.28
-0.45
-0.60
-0.78
-0.98
-1.23
-1.53
-1.89
-2.34
-2.88
-3.47
-3.96
-4.17
-3.96
-3.24
-2.11
-0.80
0.40
1.27
1.76
1.91
1.85
1.64
1.29
0.76
0.02
-0.82
-1.62
-2.12
-2.13
-1.49
-0.15
1.78
4.05
6.20
7.73
8.18
7.40
5.61
3.34
1.27
-0.11
-0.63
-0.45
0.06
0.58
0.96
1.20
1.35
1.42
1.31
0.92
0.28
-0.40
-0.77
-0.53
0.43
1.90
3.42
4.51
4.86
4.43
3.47
2.26
1.06
-0.05
-1.06
-1.97
-2.73
-3.20
-3.34
-3.22
-3.04
-3.06
-3.44
-4.14
-4.97
-5.64
-5.90
-5.61
-4.81
-3.68
-2.46
-1.44
-0.82
-0.67
-0.92
-1.38
-1.80
-1.96
-1.79
-1.32
-0.69
-0.03
0.54
0.98
1.24
1.30
1.18
0.92
0.62
0.42
0.42
0.64
0.98
1.29
1.42
1.31
0.99
0.59
0.22
-0.03
-0.13
-0.11
-0.01
0.14
0.29
0.40
0.42
0.28
-0.05
-0.53
-1.09
-1.59
-1.94
-2.07
-1.98
-1.74
-1.40
-0.99
-0.53
-0.03
0.46
0.88
1.13
1.22
1.16
1.06
1.00
1.05
1.21
1.41
1.57
1.66
1.69
1.72
1.82
2.04
2.39
2.83
3.36
3.93
4.51
5.04
5.45
5.67
5.76
5.83
6.10
6.71
7.65
8.76
9.79
10.52
10.90
11.14
11.54
12.53
14.46
17.43
21.22
25.12
28.04
28.73
26.41
20.93
13.28
5.33
-0.73
-3.07
-0.83
5.69
15.25
26.26
36.82
45.52
51.57
54.07
52.87
49.03
44.68
41.95
42.40
45.57
50.24
54.97
58.54
60.47
60.41
59.01
56.67
53.41
47.31
37.20
23.38
7.56
-7.94
-21.37
-32.37
-42.53
-50.45
-58.72
-69.51
-83.39
-99.54
-116.65
-133.70
-149.97
-164.81
-177.11
-187.92
-197.05
-203.04
-204.37
-200.64
-192.94
-183.29
-173.72
-153.24
-119.07
-76.29
-34.56
-1.62
19.97
31.59
36.35
37.62
38.17
37.50
35.01
30.94
26.08
21.32
17.27
14.42
13.47
15.43
19.75
25.35
33.01
42.67
52.79
60.49
62.71
57.95
46.99
33.25
22.05
18.28
23.68
36.21
51.12
63.48
70.47
72.19
70.34
67.12
64.08
61.57
59.29
57.02
54.82
52.86
50.70
47.12
40.75
31.09
18.95
6.38
-4.10
-11.31
-15.01
-16.07
-15.79
-15.25
-14.84
-14.38
-13.57
-12.36
-11.11
-10.18
-9.86
-10.15
-10.91
-12.08
-13.75
-16.01
-18.62
-20.97
-22.13
-21.60
-19.75
-17.70
-16.82
-17.94
-20.94
-24.86
-28.58
-31.25
-32.82
-33.74
-34.35
-34.57
-34.01
-32.41
-29.90
-28.01
-27.64
-29.01
-31.48
-33.63
-33.97
-31.53
-26.43
-19.90
-13.87
-10.11
-9.62
-12.11
-15.87
-18.16
-16.07
-7.70
6.97
25.62
44.06
57.13
60.37
51.76
32.78
8.35
-14.58
-29.44
-32.47
-23.82
-7.25
11.83
28.72
41.07
49.05
54.26
58.11
60.88
61.77
59.82
54.96
48.43
42.24
38.18
36.93
37.90
39.58
40.49
39.74
37.25
33.44
28.74
23.36
17.44
11.51
6.60
4.10
5.04
9.39
15.81
21.90
25.12
23.76
17.62
8.05
-2.52
-11.48
-16.86
-17.82
-14.76
-8.94
-1.94
4.78
10.18
13.59
14.54
12.67
7.84
0.38
-8.61
-17.43
-24.19
-27.50
-26.96
-23.35
-18.36
-14.23
-13.34
-17.78
-28.66
-45.14
-63.85
-79.15
-84.86
-76.75
-54.79
-23.78
8.21
33.05
45.71
45.95
37.68
26.57
17.39
12.28
10.84
11.41
12.57
14.00
16.30
20.24
25.98
32.58
38.35
41.51
41.03
37.10
31.02
24.59
19.26
15.61
13.23
11.23
8.94
6.39
4.32
3.73
5.25
8.78
13.44
17.90
20.88
21.39
19.05
14.09
7.44
0.67
-4.37
-6.10
-3.91
1.37
7.66
12.28
13.04
9.06
1.12
-8.81
-18.32
-25.59
-29.81
-31.37
-31.36
-31.09
-31.67
-33.74
-37.27
-41.29
-43.78
-42.15
-34.22
-19.51
-0.07
19.64
34.16
39.02
32.60
16.86
-3.42
-22.39
-35.10
-38.85
-33.46
-20.69
-3.38
15.44
33.11
47.57
57.46
62.17
61.86
57.45
50.69
43.90
39.34
38.61
42.03
48.48
55.90
62.16
66.07
67.92
69.31
72.33
78.46
87.78
98.84
109.18
116.22
118.27
115.10
108.06
99.58
92.25
87.85
86.72
87.68
88.55
87.01
81.22
70.01
52.64
28.41
-3.44
-43.39
-91.36
-146.78
-208.80
-276.26
-347.11
-417.44
-480.94
-529.58
-555.76
-555.12
-528.33
-480.91
-420.75
-354.96
-287.63
-219.75
-151.01
-81.97
-15.66
43.27
90.76
125.63
150.27
168.96
185.27
200.34
212.85
219.84
219.13
211.08
198.74
186.63
178.00
173.43
171.26
169.79
167.71
164.74
160.92
155.79
148.39
137.10
121.27
102.85
87.07
78.82
80.09
88.17
96.23
96.39
81.98
49.79
-3.04
-70.77
-141.62
-202.08
-242.08
-260.51
-256.77
-231.06
-186.78
-131.08
-71.41
-19.13
16.33
31.46
29.90
20.38
10.61
2.98
-6.19
-22.98
-52.00
-91.65
-133.29
-164.21
-172.46
-152.77
-108.71
-50.71
8.55
57.84
90.92
107.10
109.88
104.75
96.55
88.28
81.34
76.38
73.54
73.01
74.75
78.11
81.55
82.94
80.39
73.31
62.99
51.96
43.05
38.24
37.90
40.70
44.08
45.17
42.02
34.49
24.49
15.26
9.97
10.14
15.00
22.02
28.33
32.04
32.77
30.98
27.06
20.76
11.61
0.05
-11.81
-20.56
-22.90
-17.46
-5.88
7.50
17.19
18.55
9.43
-9.12
-33.19
-57.21
-75.67
-84.85
-83.87
-74.82
-61.75
-49.18
-40.87
-39.10
-44.51
-55.80
-69.60
-80.71
-83.35
-73.36
-50.34
-18.62
13.99
39.27
51.87
51.16
40.88
26.77
14.05
5.87
3.23
5.78
12.65
22.55
33.59
43.27
49.03
49.20
43.81
34.77
25.30
18.78
17.35
21.15
28.13
34.72
37.01
32.34
20.60
4.57
-10.70
-19.73
-18.67
-6.98
12.05
32.33
47.15
51.72
45.04
30.25
13.16
-0.27
-6.47
-5.53
-0.66
3.77
4.67
1.73
-2.74
-5.47
-4.26
0.65
6.77
10.75
10.25
5.35
-1.40
-5.77
-3.67
6.99
24.93
45.08
59.40
58.88
36.59
-9.20
-73.10
-143.31
-204.19
-240.83
-243.53
-210.76
-149.93
-75.57
-5.56
43.52
60.81
44.73
3.98
-45.02
-83.88
-99.02
-86.31
-51.62
-7.19
33.84
63.12
79.62
87.98
94.40
102.82
113.46
123.70
129.99
128.97
119.02
101.01
78.12
54.76
35.14
23.08
21.38
30.85
48.55
68.35
82.59
84.09
67.95
33.47
-14.46
-65.99
-103.38
-111.45
-89.41
-52.32
-20.22
-6.40
-12.24
-29.07
-44.15
-47.43
-38.73
-23.78
-9.81
-2.32
-3.43
-11.96
-24.84
-38.35
-49.11
-56.87
-63.73
-71.78
-81.25
-89.99
-94.59
-92.69
-84.69
-73.40
-62.78
-56.94
-55.49
-57.05
-60.85
-66.47
-73.26
-79.03
-79.41
-69.73
-47.32
-13.41
27.27
63.72
87.35
95.96
93.49
86.98
82.16
81.08
82.59
83.71
81.82
76.50
69.08
61.49
55.77
53.27
54.13
58.11
64.31
71.34
77.67
81.55
78.50
64.06
35.57
-5.21
-50.76
-89.40
-109.55
-104.65
-76.97
-37.40
-0.43
21.65
23.63
8.36
-16.19
-41.55
-62.01
-75.60
-82.33
-81.62
-72.05
-52.47
-24.65
5.22
27.35
31.90
12.97
-29.35
-85.56
-139.90
-175.64
-180.99
-152.88
-97.43
-27.30
42.72
99.93
136.77
151.07
145.20
124.42
95.30
64.44
37.49
18.41
9.17
9.95
19.11
33.75
50.09
64.38
73.68
76.51
73.01
64.79
54.33
44.12
36.02
30.77
27.96
26.24
23.97
20.17
15.17
10.69
9.02
11.90
19.52
30.43
42.10
51.77
57.26
57.21
51.21
39.86
24.94
9.39
-3.15
-9.50
-8.26
-0.75
9.15
16.16
15.27
3.34
-20.04
-52.71
-90.64
-128.92
-162.77
-188.55
-204.52
-211.10
-210.31
-204.48
-194.59
-179.37
-155.64
-119.98
-71.27
-12.51
48.99
103.33
141.13
156.54
149.00
123.17
87.23
50.40
20.51
2.44
-2.41
4.30
18.97
37.14
54.51
67.66
74.52
74.39
67.98
57.25
45.15
34.66
27.46
23.57
21.85
21.02
20.50
20.78
22.94
28.09
36.43
46.25
54.81
59.52
58.94
53.03
42.92
30.45
18.37
9.43
4.53
2.72
1.68
-1.37
-8.90
-22.37
-42.25
-66.40
-90.13
-109.29
-122.11
-129.42
-132.96
-134.21
-134.35
-134.54
-136.66
-137.30
-132.44
-118.15
-91.78
-53.30
-5.70
46.16
92.24
125.87
145.38
151.09
143.66
123.85
94.24
60.41
31.85
13.84
9.53
17.27
29.70
37.28
32.42
12.89
-17.67
-51.77
-81.57
-99.27
-100.25
-85.33
-59.67
-30.16
-2.75
19.26
35.01
44.92
50.73
54.07
56.04
57.71
60.00
63.07
65.55
64.66
57.34
42.58
22.01
-0.40
-19.56
-31.10
-32.84
-25.46
-12.01
3.13
15.86
23.22
24.05
19.16
10.79
1.65
-6.30
-12.40
-17.14
-21.50
-26.49
-33.11
-42.42
-55.13
-70.55
-85.61
-94.85
-92.21
-73.92
-41.08
-0.14
39.21
67.79
80.31
76.64
60.72
38.21
14.36
-6.87
-22.65
-31.03
-31.08
-23.49
-10.77
3.33
14.98
21.56
22.37
18.53
12.32
6.22
2.19
1.29
3.52
7.90
12.69
15.80
15.37
10.64
2.58
-5.96
-11.06
-9.35
0.33
16.01
33.20
46.65
52.46
49.54
39.66
26.26
12.95
2.36
-4.08
-5.88
-3.12
3.43
12.13
20.37
25.18
24.30
17.16
5.28
-8.35
-20.36
-28.18
-30.77
-28.61
-23.10
-15.90
-8.46
-1.94
2.49
3.43
-0.60
-10.44
-25.15
-41.50
-54.40
-58.70
-51.52
-34.04
-11.66
7.88
17.55
13.96
-1.39
-22.84
-42.92
-55.08
-55.64
-44.45
-24.38
-0.10
23.22
41.14
50.94
52.04
45.85
35.08
22.83
11.66
3.09
-2.53
-5.94
-8.77
-12.95
-19.76
-28.85
-37.76
-42.59
-39.69
-27.83
-9.49
9.68
23.23
27.12
21.68
11.43
2.53
-0.50
3.13
10.54
17.41
20.64
19.94
17.42
15.74
16.09
17.38
16.96
12.48
3.71
-7.09
-16.18
-20.17
-17.66
-9.55
1.54
12.40
19.93
21.20
13.76
-3.49
-28.64
-55.77
-75.76
-79.62
-62.85
-28.71
12.10
45.49
60.08
52.17
26.88
-4.70
-30.78
-43.55
-41.15
-26.69
-5.71
16.47
36.03
50.82
59.93
63.13
60.80
54.04
44.60
34.60
25.92
19.60
15.51
12.67
9.88
6.50
2.97
0.85
2.21
8.58
19.65
32.46
41.67
41.43
28.26
3.51
-26.15
-51.05
-62.70
-57.81
-39.78
-16.73
2.90
14.50
18.86
20.28
22.76
26.97
29.89
27.41
17.79
3.49
-9.67
-15.72
-12.01
-0.70
12.08
18.80
13.36
-6.92
-40.56
-82.07
-122.76
-152.32
-161.25
-144.15
-102.63
-46.28
9.46
48.61
60.79
45.58
12.48
-23.41
-47.99
-53.68
-41.35
-18.17
6.86
27.18
40.43
47.65
50.81
50.75
46.92
38.69
26.88
14.41
5.51
3.56
9.21
19.59
29.38
33.12
27.92
14.92
-1.00
-13.29
-16.70
-9.51
5.88
24.06
38.91
45.76
42.69
30.68
13.02
-5.81
-21.16
-29.43
-28.90
-20.26
-6.40
8.49
20.29
26.13
25.03
17.76
6.30
-6.84
-19.24
-28.93
-34.61
-35.80
-32.91
-27.09
-20.03
-13.39
-8.21
-4.40
-0.69
4.60
12.39
21.88
30.34
34.02
29.94
17.39
-1.45
-22.22
-40.04
-51.14
-53.81
-48.35
-36.47
-20.46
-2.71
14.58
29.67
41.42
49.50
54.27
56.40
56.46
54.68
51.08
45.69
38.90
31.47
24.37
18.59
15.05
14.69
18.33
26.25
37.47
49.46
58.65
61.88
58.12
49.40
39.98
34.28
34.37
38.86
43.73
44.77
40.06
31.11
21.83
16.12
15.52
18.13
19.52
14.81
0.50
-24.79
-60.73
-105.94
-158.16
-213.62
-266.39
-308.74
-332.80
-332.98
-307.97
-260.99
-198.39
-127.41
-54.61
14.39
74.30
119.75
145.81
149.84
133.16
101.73
64.82
32.19
10.97
3.90
9.35
22.80
38.90
53.35
63.90
70.33
73.51
74.24
72.86
69.60
65.14
60.57
57.21
56.16
57.70
60.75
62.97
62.07
57.53
51.27
46.36
45.51
49.75
58.05
67.71
75.02
76.57
70.34
55.59
31.54
-2.47
-46.34
-96.25
-142.93
-175.83
-189.65
-186.29
-171.89
-153.28
-135.16
-119.82
-108.20
-100.97
-99.11
-102.64
-110.61
-116.47
-113.22
-95.83
-63.30
-19.29
29.34
74.08
105.65
121.08
123.83
119.63
113.34
107.29
101.61
96.08
90.97
87.27
86.53
89.32
93.91
96.94
96.05
88.29
73.35
53.28
31.55
12.12
-2.22
-10.94
-15.16
-16.62
-16.76
-15.96
-14.25
-12.02
-10.03
-9.30
-10.67
-13.86
-17.48
-19.71
-18.87
-14.06
-5.91
3.97
13.30
19.34
19.19
10.47
-7.62
-32.89
-59.97
-81.62
-91.22
-85.68
-66.88
-40.86
-15.23
3.78
13.18
13.13
5.70
-6.48
-20.89
-35.08
-46.48
-52.65
-52.17
-45.44
-34.96
-24.36
-16.78
-13.28
-12.36
-10.76
-5.33
5.20
19.33
33.40
43.18
45.76
40.74
30.15
17.49
6.29
-0.95
-3.11
-0.40
6.09
14.73
23.72
31.34
36.23
37.65
35.65
31.03
25.02
18.89
13.70
10.27
9.14
10.39
13.48
17.16
19.81
20.16
18.17
15.27
14.01
16.57
23.33
32.30
40.01
43.30
40.98
34.33
26.44
20.84
19.76
22.93
27.99
31.96
32.82
30.17
24.76
17.59
9.65
1.17
-8.80
-21.64
-37.86
-56.08
-73.46
-87.12
-95.13
-95.65
-87.47
-70.96
-48.69
-25.36
-7.26
-1.17
-12.42
-41.99
-82.91
-121.95
-144.70
-141.04
-108.40
-52.35
15.01
78.81
117.65
116.70
79.69
27.27
-16.23
-36.18
-32.40
-12.04
14.46
37.54
53.26
62.14
66.40
68.21
68.80
68.46
66.89
63.02
55.74
45.84
35.60
27.52
23.54
24.96
32.40
45.52
62.23
79.07
92.64
99.67
96.89
81.66
53.62
16.50
-21.80
-51.64
-65.33
-60.38
-41.34
-18.55
-3.91
-5.75
-25.53
-58.13
-95.11
-128.62
-153.77
-168.97
-174.61
-171.30
-159.24
-138.62
-110.75
-78.90
-48.63
-26.75
-19.27
-28.92
-53.04
-83.14
-106.47
-110.17
-86.27
-35.71
30.64
95.10
139.08
149.82
124.90
73.10
11.10
-42.41
-73.10
-75.19
-52.33
-14.90
24.71
56.93
77.65
87.83
90.98
90.31
87.13
81.17
72.14
61.17
50.84
43.94
42.03
44.73
50.07
55.43
58.85
59.55
57.74
54.16
49.32
43.15
35.13
24.83
12.53
-0.41
-11.81
-19.55
-22.53
-21.31
-17.98
-15.24
-15.36
-19.44
-27.35
-38.17
-50.60
-62.95
-73.10
-78.47
-76.70
-66.68
-49.44
-28.26
-8.06
5.76
8.72
-1.57
-24.19
-54.28
-83.35
-101.17
-99.10
-73.88
-30.05
20.64
63.16
85.02
81.42
56.94
23.18
-6.61
-23.03
-23.57
-12.06
4.57
20.17
31.63
38.99
43.80
47.02
48.20
46.07
39.95
30.86
21.52
15.06
13.45
16.39
21.43
25.21
25.10
20.44
12.79
5.16
0.72
1.31
6.62
14.09
19.83
20.14
13.10
-0.42
-16.81
-30.88
-37.82
-34.94
-22.73
-4.65
14.22
28.83
35.66
33.48
23.31
7.85
-9.28
-24.41
-34.53
-37.96
-34.71
-26.57
-16.61
-8.25
-4.00
-4.40
-7.63
-10.20
-8.40
-0.07
14.10
30.44
43.31
47.17
38.70
18.22
-10.17
-39.80
-63.60
-76.28
-75.82
-63.73
-44.12
-22.04
-1.85
13.89
24.58
31.02
34.41
35.67
35.24
33.31
30.26
26.91
24.41
23.72
25.02
27.43
29.42
29.68
28.05
25.75
24.83
27.01
32.72
40.80
49.08
55.33
57.99
56.37
50.51
40.88
28.47
14.96
2.73
-5.65
-8.31
-4.99
2.44
10.30
14.02
9.36
-6.34
-33.12
-68.20
-106.38
-141.38
-167.52
-181.46
-183.15
-175.56
-162.96
-148.64
-133.19
-114.39
-88.89
-54.79
-13.69
28.95
65.60
89.58
97.69
91.23
75.03
55.19
36.81
22.87
14.39
11.28
13.18
19.64
29.80
42.14
54.43
64.24
69.66
69.92
65.70
58.86
51.87
47.08
46.13
49.53
56.35
64.35
70.31
71.07
64.79
52.22
37.07
25.02
21.57
29.62
47.92
71.08
91.00
99.18
89.12
58.50
10.58
-45.81
-97.97
-132.76
-141.08
-121.52
-81.50
-35.25
0.94
14.18
-1.04
-41.48
-96.73
-152.82
-196.35
-218.06
-215.02
-191.03
-155.16
-118.58
-90.59
-75.24
-70.30
-68.61
-61.74
-43.98
-14.82
20.98
55.71
81.93
95.16
94.86
83.72
65.94
45.68
26.34
10.58
0.55
-2.22
2.65
13.88
28.55
42.79
52.89
56.61
53.91
46.89
38.90
33.25
31.92
34.92
40.38
45.34
46.89
43.14
33.95
21.10
7.81
-2.08
-5.43
-0.95
10.26
25.06
39.27
48.89
51.06
44.55
29.78
8.89
-14.44
-35.42
-49.14
-52.01
-43.20
-25.20
-3.11
17.06
30.46
34.70
30.00
18.46
2.99
-13.48
-28.41
-39.77
-46.36
-48.10
-46.27
-43.25
-41.67
-43.08
-46.86
-50.08
-48.60
-38.99
-20.52
4.00
28.99
48.21
57.22
55.05
44.29
29.64
15.98
6.68
3.05
4.67
10.14
17.72
25.67
32.26
36.00
35.96
32.17
25.78
18.98
14.39
14.10
18.80
27.38
37.12
44.48
46.37
41.42
30.88
18.50
9.13
6.87
13.28
26.60
42.32
54.97
60.21
56.86
47.24
35.97
27.72
25.22
28.25
34.13
39.35
41.00
38.46
33.13
26.67
19.38
9.96
-3.11
-19.41
-35.36
-45.65
-44.12
-27.06
3.70
40.00
69.90
81.66
67.61
26.35
-38.20
-115.52
-190.25
-246.27
-271.31
-260.66
-219.25
-161.29
-106.34
-73.96
-73.76
-101.21
-140.84
-174.14
-187.10
-174.42
-139.29
-80.70
-8.57
60.53
113.32
145.84
160.17
158.73
143.42
117.26
85.96
55.80
33.74
26.27
35.47
57.13
82.31
101.35
107.20
97.15
71.87
35.73
-3.21
-36.23
-56.54
-60.82
-49.90
-28.76
-5.27
11.62
16.35
9.11
-5.35
-20.84
-32.78
-39.81
-43.47
-46.32
-50.28
-54.93
-57.70
-55.87
-48.47
-37.02
-25.28
-17.82
-18.14
-26.67
-39.47
-48.81
-46.25
-26.62
8.72
51.41
88.81
109.15
106.65
84.06
51.32
20.93
2.57
-0.41
8.87
23.57
36.94
45.12
47.93
47.54
46.42
45.70
44.82
42.48
37.85
31.53
25.06
19.99
16.71
14.18
10.49
4.27
-4.36
-13.36
-19.65
-20.60
-15.65
-7.04
0.87
3.47
-1.83
-14.22
-29.64
-42.53
-48.26
-44.90
-33.68
-17.98
-1.71
12.04
21.49
25.83
24.86
18.85
8.94
-2.69
-12.94
-18.77
-18.31
-11.62
-0.89
10.09
16.83
15.35
3.70
-16.65
-40.32
-59.09
-64.81
-53.01
-25.59
9.07
39.17
54.29
49.87
28.91
0.29
-25.53
-40.83
-43.09
-34.67
-20.42
-5.00
8.75
19.91
28.49
34.43
37.14
35.95
30.91
23.41
16.02
11.42
11.29
15.39
21.53
26.33
26.71
21.36
11.52
0.72
-6.67
-7.28
-0.29
12.13
25.67
35.59
38.38
32.78
19.86
2.32
-16.33
-32.59
-43.59
-47.70
-44.84
-36.65
-26.02
-16.23
-9.90
-8.20
-10.79
-16.19
-22.50
-27.92
-31.04
-30.96
-27.49
-21.40
-14.56
-9.40
-7.91
-10.42
-15.03
-18.05
-15.61
-5.59
11.09
30.44
46.71
54.69
51.62
38.25
18.42
-2.43
-19.17
-28.56
-29.96
-25.06
-16.85
-8.39
-1.82
1.92
2.88
1.52
-1.65
-6.04
-10.83
-14.78
-16.52
-15.03
-10.17
-2.81
5.45
12.81
17.97
20.38
20.30
18.64
16.74
16.02
17.68
22.11
28.70
35.76
41.04
42.48
39.00
31.02
20.35
9.63
1.53
-2.04
-0.41
5.75
14.65
24.05
32.01
37.39
40.26
41.57
42.68
44.81
48.48
52.99
56.09
54.34
44.43
25.28
-0.29
-25.50
-41.69
-41.86
-23.76
9.06
48.71
85.93
112.79
124.19
118.06
95.04
58.24
13.44
-31.43
-68.14
-90.85
-98.42
-94.77
-86.47
-79.56
-77.46
-80.73
-88.19
-98.14
-109.22
-120.39
-130.32
-137.15
-139.38
-137.28
-133.33
-130.82
-131.61
-135.19
-139.22
-140.86
-137.82
-129.04
-114.78
-96.39
-75.45
-52.86
-28.81
-3.10
25.03
57.10
94.54
137.12
179.62
210.66
219.21
202.89
169.59
131.47
98.24
74.09
58.05
46.47
36.18
26.72
19.85
17.18
18.41
21.19
22.25
19.00
10.75
-0.58
-10.91
-16.00
-13.74
-5.14
7.01
18.82
27.21
31.02
31.37
30.92
32.20
36.02
40.96
44.30
43.44
37.12
25.78
11.13
-4.52
-19.14
-31.43
-40.71
-46.47
-48.20
-45.57
-38.81
-29.01
-17.93
-7.48
0.82
6.21
8.77
9.09
7.94
5.98
3.67
1.22
-1.31
-4.00
-6.97
-10.30
-13.99
-17.94
-22.06
-26.39
-31.17
-36.67
-43.04
-50.12
-57.44
-64.33
-70.07
-73.95
-75.32
-73.61
-68.48
-60.08
-49.16
-37.03
-25.24
-15.08
-7.20
-1.55
2.48
5.63
8.42
10.99
13.15
14.57
15.00
14.39
12.87
10.73
8.28
5.79
3.45
1.32
-0.62
-2.50
-4.40
-6.31
-8.01
-9.11
-9.23
-8.07
-5.55
-1.77
3.10
8.97
15.77
23.34
31.29
38.94
45.46
50.14
52.67
53.22
52.41
51.08
50.05
49.93
50.95
52.97
55.50
57.94
59.78
60.77
60.93
60.40
59.32
57.62
55.15
51.77
47.52
42.61
37.38
32.05
26.62
20.95
14.87
8.25
1.10
-6.57
-14.83
-23.83
-33.74
-44.37
-54.86
-63.81
-69.67
-71.44
-69.14
-63.91
-57.63
-52.20
-48.80
-47.31
-46.67
-45.47
-42.70
-38.08
-32.12
-25.72
-19.75
-14.68
-10.09
-5.03
1.53
10.13
20.52
31.81
42.68
51.86
58.55
62.96
65.93
68.47
71.00
73.48
75.76
77.88
80.06
79.63
73.99
61.29
41.37
15.73
-12.81
-40.82
-65.13
-83.78
-96.42
-103.66
-106.06
-104.12
-98.59
-90.64
-81.87
-74.25
-69.70
-69.69
-74.74
-84.75
-96.29
-105.31
-107.36
-98.45
-76.74
-43.81
-3.26
35.91
66.63
86.17
95.61
98.36
98.17
96.88
94.34
89.82
83.32
76.89
73.62
75.62
82.69
92.32
99.88
99.86
88.61
65.72
34.82
1.94
-27.06
-49.41
-64.45
-73.79
-80.42
-86.88
-94.28
-101.54
-105.84
-102.69
-90.31
-69.13
-40.26
-7.31
25.18
52.99
73.53
85.87
90.09
85.23
72.80
54.38
31.71
7.68
-13.98
-29.84
-37.24
-35.74
-27.66
-16.75
-7.40
-2.96
-4.26
-10.32
-19.63
-31.16
-44.44
-58.69
-71.24
-78.18
-75.76
-62.18
-39.29
-12.10
13.40
32.51
43.36
47.07
46.07
41.68
35.33
27.97
20.29
13.14
7.52
4.29
3.84
5.54
7.87
8.83
6.36
-0.76
-11.96
-24.68
-35.01
-39.21
-35.37
-24.35
-9.37
5.17
15.53
20.05
19.38
15.77
11.58
8.09
5.46
3.13
0.37
-3.17
-7.22
-11.18
-14.24
-16.06
-17.17
-18.26
-19.63
-21.24
-22.59
-23.00
-21.96
-19.08
-14.72
-10.55
-7.94
-7.34
-8.63
-11.12
-13.83
-15.81
-15.74
-12.97
-8.60
-3.42
2.49
9.12
16.52
24.75
33.85
44.66
57.57
70.94
83.43
94.32
102.62
107.37
107.94
98.97
78.72
57.48
39.84
24.99
13.08
3.93
-3.04
-8.67
-13.88
-18.58
-22.63
-27.37
-33.12
-39.05
-44.37
-48.52
-51.21
-52.32
-51.13
-47.22
-41.83
-36.02
-30.37
-25.56
-22.15
-20.25
-19.40
-18.29
-15.70
-11.71
-6.62
-0.60
5.99
12.59
18.58
23.52
27.39
30.26
31.83
32.08
31.51
30.88
30.48
30.31
30.57
31.99
35.38
40.96
48.22
56.36
64.50
71.25
75.49
77.20
77.80
79.21
82.75
88.58
95.62
101.75
102.86
94.17
72.26
36.80
-9.67
-62.95
-118.61
-172.97
-215.81
-236.94
-232.71
-209.13
-176.63
-143.28
-112.85
-86.41
-63.81
-44.66
-29.58
-19.43
-14.15
-12.11
-11.01
-9.07
-5.66
-0.90
4.76
9.98
13.33
14.21
13.38
12.26
12.03
13.05
15.21
18.17
21.04
22.84
23.16
22.40
21.45
21.03
21.35
22.39
23.97
25.61
26.81
27.30
27.27
27.09
27.13
27.36
27.76
28.20
28.43
28.16
27.22
25.58
23.08
20.08
16.56
12.69
8.57
4.34
0.15
-3.86
-7.49
-10.65
-12.53
-13.65
-14.11
-13.99
-13.40
-12.49
-11.40
-10.26
-9.19
-8.25
-7.61
-7.21
-6.99
-6.89
-6.85
-6.79
-6.64
-6.38
-5.99
-5.55
-5.03
-4.45
-3.83
-3.18
