1660323064.00
64.000000
-0.00
-0.00
-0.00
-0.00
-0.00
-0.00
-0.00
-0.00
-0.00
-0.00
0.00
0.01
0.01
-0.00
-0.03
-0.05
-0.05
0.00
0.13
0.36
0.66
1.01
1.37
1.72
2.06
2.40
2.79
3.24
3.80
4.42
5.06
5.66
6.20
6.68
7.15
7.68
8.31
9.14
10.09
11.04
11.88
12.56
13.14
13.76
14.65
15.96
17.91
20.32
22.90
25.38
27.58
29.57
31.68
34.32
37.81
42.54
48.15
54.11
59.83
64.97
69.58
74.14
79.36
85.74
93.81
103.04
112.62
121.65
129.55
136.36
142.73
150.03
156.98
165.85
177.19
191.07
206.22
219.69
227.18
224.10
207.15
175.50
131.50
78.92
21.96
-36.22
-94.09
-151.33
-207.90
-263.36
-316.79
-366.74
-412.47
-453.51
-489.49
-519.60
-542.30
-555.53
-557.13
-545.79
-521.34
-485.33
-440.46
-389.83
-336.26
-281.68
-227.10
-172.97
-119.80
-68.54
-20.89
21.18
56.05
83.09
103.00
117.48
128.61
138.04
146.37
153.04
156.75
156.06
150.17
139.42
125.60
111.62
100.82
96.01
98.71
108.94
125.23
144.83
164.00
178.52
184.76
181.09
169.13
153.31
138.84
128.70
122.07
115.06
103.60
86.51
66.66
49.60
39.98
39.00
44.05
50.65
55.07
55.93
53.68
48.96
41.52
30.42
15.36
-2.19
-19.17
-31.93
-37.75
-35.66
-26.78
-14.03
-1.44
7.14
9.31
5.21
-2.46
-9.46
-12.02
-9.14
-3.06
1.84
1.55
-5.53
-17.91
-31.93
-43.26
-48.06
-43.86
-30.29
-9.30
15.08
37.87
54.61
62.82
62.54
55.96
46.07
35.37
25.17
15.67
6.51
-2.66
-12.14
-22.34
-33.49
-45.28
-56.78
-66.85
-74.42
-78.43
-77.59
-70.16
-54.80
-31.76
-4.17
22.50
42.25
50.93
48.21
37.73
25.21
15.57
10.48
8.25
5.90
1.87
-2.59
-4.32
-0.82
7.51
17.27
24.05
24.96
20.11
12.11
4.31
-0.82
-2.56
-1.46
1.38
4.89
8.07
9.91
9.63
7.15
3.51
0.01
-2.22
-2.75
-1.91
-0.36
1.38
2.84
3.57
3.23
1.87
0.28
-0.35
0.52
2.15
2.53
-0.35
-6.96
-15.46
-22.38
-24.70
-21.74
-15.47
-9.09
-4.93
-3.15
-2.09
0.13
4.07
8.49
11.15
10.24
5.49
-1.62
-8.62
-13.08
-13.53
-9.84
-3.27
4.03
9.73
12.41
12.22
10.65
9.38
9.05
8.93
7.53
4.17
-0.30
-3.94
-4.99
-3.04
0.89
5.22
8.71
10.89
11.83
11.46
9.28
4.47
-3.37
-13.84
-25.81
-37.32
-46.39
-51.43
-51.54
-46.52
-36.91
-24.02
-9.55
4.95
18.55
30.72
40.78
47.32
48.26
41.96
28.52
10.68
-6.40
-17.19
-18.38
-10.77
0.84
10.05
12.08
6.04
-5.07
-16.27
-23.34
-24.57
-20.93
-14.91
-8.84
-3.77
0.51
4.61
8.64
11.84
12.95
11.02
6.01
-0.88
-7.60
-11.94
-12.28
-8.36
-1.46
5.96
11.35
13.12
11.34
7.50
3.67
1.61
1.97
4.26
7.40
10.54
13.51
16.70
20.47
24.32
26.81
26.18
21.41
13.19
3.88
-3.45
-6.56
-5.44
-2.68
-2.20
-6.94
-16.93
-29.05
-38.59
-41.85
-38.11
-29.67
-20.12
-11.93
-5.14
2.10
11.89
24.90
39.54
52.58
60.48
60.91
53.61
40.30
24.09
8.46
-3.85
-11.78
-16.09
-18.74
-21.69
-25.88
-30.86
-35.21
-37.46
-36.81
-33.35
-27.78
-20.75
-12.56
-2.98
8.19
20.33
31.39
38.21
37.95
29.69
15.35
-1.00
-14.87
-23.49
-26.79
-26.78
-25.79
-24.88
-23.55
-20.61
-15.68
-9.81
-4.88
-2.31
-2.09
-2.97
-3.45
-2.57
0.07
4.64
11.53
21.03
32.74
45.26
56.70
65.69
72.15
77.06
81.36
85.15
87.55
87.48
84.62
79.77
74.12
68.17
61.38
52.82
42.56
32.18
23.80
17.94
11.84
-0.29
-24.62
-63.93
-115.03
-168.98
-214.14
-240.45
-242.71
-221.60
-181.79
-128.81
-66.38
3.94
80.94
161.07
236.99
298.50
335.72
343.09
321.72
278.88
224.74
168.40
115.02
65.16
16.73
-32.92
-85.39
-141.39
-201.37
-265.65
-333.32
-400.71
-460.71
-504.14
-522.81
-512.67
-475.80
-419.35
-352.64
-283.92
-218.13
-156.76
-99.17
-43.95
10.49
66.22
125.86
191.43
262.27
333.38
395.52
437.83
451.77
434.64
390.53
328.37
258.11
187.28
119.58
55.76
-4.26
-59.86
-109.24
-150.26
-181.09
-200.41
-207.20
-200.67
-180.86
-149.37
-109.52
-66.10
-24.21
11.99
40.12
59.64
71.22
76.10
75.68
71.35
64.32
55.66
46.07
35.95
25.76
16.28
8.69
4.26
3.79
7.17
13.14
19.71
24.85
27.39
27.58
26.85
26.83
28.40
31.12
33.70
34.99
34.78
33.99
33.96
35.42
37.63
38.65
36.38
29.59
18.61
5.29
-7.82
-18.43
-25.30
-28.67
-29.74
-30.09
-31.05
-33.54
-38.05
-44.64
-52.76
-61.00
-67.02
-68.11
-62.15
-48.67
-29.41
-7.83
12.12
27.57
37.68
43.45
46.65
48.37
48.47
46.03
40.34
31.78
22.02
13.29
7.17
3.60
0.75
-4.05
-12.88
-26.26
-42.88
-60.17
-75.35
-86.36
-92.06
-92.19
-87.11
-77.82
-65.96
-53.37
-41.52
-31.11
-21.95
-13.34
-4.66
4.16
12.44
18.84
21.79
20.14
13.79
4.01
-6.90
-16.40
-22.63
-25.04
-24.30
-21.74
-18.52
-15.04
-10.78
-4.72
3.93
15.21
28.21
41.11
51.66
57.90
58.89
55.20
48.60
41.09
33.89
26.94
19.65
11.86
4.38
-1.46
-4.95
-6.76
-8.58
-11.98
-17.21
-22.96
-27.21
-28.55
-26.83
-23.02
-18.36
-13.64
-8.92
-3.83
2.03
8.77
16.07
23.27
29.47
33.87
36.36
38.08
41.07
47.32
57.24
68.86
78.65
83.35
81.89
75.69
67.26
58.16
48.31
36.89
24.15
12.30
4.73
3.65
8.04
13.43
14.07
6.41
-8.77
-26.77
-41.82
-50.44
-53.12
-53.47
-55.33
-60.11
-65.94
-69.05
-66.14
-56.29
-41.35
-24.83
-10.09
1.20
9.29
15.68
21.94
28.84
36.09
42.35
45.88
45.25
40.21
31.81
22.10
13.10
6.08
1.10
-2.76
-6.48
-10.48
-14.51
-17.91
-19.97
-20.08
-17.97
-13.87
-8.64
-3.62
-0.13
0.89
-0.94
-5.83
-14.26
-26.83
-43.27
-61.14
-75.32
-79.24
-67.44
-38.60
3.43
50.88
95.04
129.07
149.20
153.56
140.60
109.07
59.85
-1.81
-65.64
-118.87
-150.71
-156.21
-137.58
-102.51
-60.99
-22.21
7.24
24.41
30.36
29.97
30.56
38.92
57.45
81.85
102.08
107.14
90.45
53.18
3.31
-48.46
-93.02
-125.14
-143.02
-147.18
-139.18
-121.44
-97.13
-69.64
-41.56
-14.08
12.66
38.50
62.25
81.94
95.95
104.13
107.77
108.28
105.50
97.39
81.38
56.55
25.32
-6.86
-33.74
-50.99
-58.25
-58.72
-57.14
-57.03
-59.13
-61.68
-61.93
-57.97
-49.46
-37.49
-23.70
-9.66
3.31
13.86
20.84
23.82
23.69
22.55
22.69
25.37
29.79
33.57
34.28
31.04
25.09
18.79
13.91
10.46
6.81
1.14
-6.98
-15.79
-22.28
-24.07
-21.12
-15.94
-12.08
-11.93
-15.28
-19.58
-21.69
-19.96
-15.20
-10.02
-7.27
-8.47
-13.04
-18.73
-22.98
-24.23
-22.75
-20.07
-18.01
-17.44
-17.78
-17.26
-14.00
-7.07
2.91
14.08
24.31
32.04
36.68
38.28
36.93
32.59
25.35
16.09
6.61
-0.86
-4.69
-4.64
-1.94
1.40
3.67
4.23
3.73
3.38
4.22
6.55
9.91
13.37
16.16
17.89
18.57
18.30
17.00
14.58
11.17
7.46
4.50
3.38
4.78
8.72
14.54
21.12
27.24
31.85
34.30
34.50
32.91
30.36
27.82
26.04
25.41
25.89
27.24
29.10
31.16
33.09
34.44
34.84
34.30
33.23
32.15
31.25
30.15
28.20
25.14
21.60
18.90
18.06
18.84
19.51
17.68
11.71
1.58
-11.05
-23.67
-34.09
-41.21
-45.10
-46.49
-46.12
-44.43
-41.51
-37.40
-32.23
-26.32
-20.03
-13.72
-7.64
-1.95
3.16
7.34
10.02
10.50
8.27
3.48
-2.75
-8.70
-12.91
-15.04
-16.02
-17.46
-20.53
-25.17
-29.81
-32.24
-30.54
-23.90
-12.97
0.37
13.29
22.49
24.80
18.34
3.48
-16.63
-36.85
-52.11
-59.59
-59.58
-54.72
-48.06
-41.49
-35.67
-30.92
-27.78
-26.73
-27.19
-27.03
-23.21
-13.70
0.62
15.62
25.69
26.64
17.63
1.20
-18.87
-39.88
-61.29
-84.04
-108.53
-132.64
-151.19
-157.77
-148.10
-123.60
-92.40
-67.02
-58.77
-71.85
-100.21
-129.58
-143.71
-131.12
-89.56
-25.74
48.39
120.51
180.97
223.06
242.50
237.22
208.26
160.88
104.47
50.41
8.68
-15.10
-20.78
-12.13
5.82
29.23
55.92
84.35
112.38
137.18
156.50
170.34
181.37
193.34
208.10
223.13
231.60
224.90
196.45
144.59
73.19
-9.69
-93.93
-169.06
-225.45
-255.84
-257.52
-234.43
-197.52
-161.81
-140.92
-141.42
-159.98
-185.10
-202.43
-200.74
-175.71
-130.19
-71.52
-8.22
52.34
104.50
144.01
167.96
175.12
166.85
147.27
122.26
97.64
77.14
61.70
49.88
39.10
27.15
13.23
-1.95
-16.67
-28.98
-37.28
-40.50
-37.98
-29.46
-15.40
2.64
21.86
38.82
50.72
56.83
59.03
60.75
64.84
71.56
78.22
80.66
75.79
63.53
46.80
29.77
15.36
3.94
-5.95
-15.71
-25.02
-31.93
-34.44
-32.26
-27.39
-22.90
-20.80
-20.80
-20.65
-18.02
-12.23
-4.79
1.74
5.55
6.84
7.55
9.83
14.45
20.44
25.88
29.31
30.56
30.69
31.19
33.10
36.49
40.56
44.27
46.85
48.18
48.58
48.29
46.99
43.77
37.63
28.44
17.50
7.11
-0.73
-5.51
-8.42
-11.25
-14.87
-18.47
-20.33
-19.48
-16.79
-14.54
-14.36
-15.42
-14.39
-7.62
5.95
23.43
39.33
48.86
50.91
48.37
45.93
46.96
51.81
58.58
65.43
72.08
79.69
89.29
100.25
110.19
116.36
117.34
113.73
107.11
98.47
87.18
71.47
49.63
21.47
-11.41
-46.15
-79.98
-111.21
-139.33
-164.33
-185.89
-203.05
-214.64
-220.10
-220.11
-216.55
-211.77
-207.43
-203.61
-198.93
-191.46
-180.05
-165.14
-148.73
-133.29
-120.41
-110.15
-101.53
-93.50
-85.63
-78.25
-71.83
-66.30
-60.77
-54.02
-45.26
-34.71
-23.60
-13.30
-4.58
2.75
9.72
17.50
26.73
37.27
48.32
58.79
67.62
73.71
76.30
75.15
70.84
64.60
57.77
51.16
44.74
37.94
30.38
22.53
15.68
11.10
9.11
8.65
7.83
5.17
0.65
-4.16
-7.08
-6.62
-3.01
2.18
7.00
10.34
12.35
14.21
17.15
21.69
27.32
32.74
36.49
37.55
35.76
31.79
27.07
23.27
21.82
23.29
27.24
32.39
37.27
40.81
42.59
42.69
41.42
39.21
36.68
34.62
33.71
34.11
35.20
35.69
34.29
30.36
24.42
17.95
12.88
10.64
11.53
14.39
17.07
17.36
13.98
7.34
-0.36
-6.21
-8.03
-5.78
-1.79
0.35
-2.12
-9.45
-19.22
-27.65
-31.75
-30.72
-25.93
-19.78
-14.10
-9.41
-5.20
-0.96
3.14
6.23
7.53
7.20
6.60
7.70
12.05
19.94
30.20
40.71
49.22
54.04
54.46
50.83
44.51
37.33
30.95
26.08
22.32
18.46
13.35
6.73
-0.56
-7.11
-11.91
-14.76
-16.21
-17.14
-18.16
-19.53
-21.13
-22.59
-23.19
-21.93
-17.87
-10.86
-1.93
7.00
14.15
19.08
23.07
28.18
35.57
44.21
50.97
52.14
45.74
32.75
16.69
1.68
-9.76
-17.99
-26.11
-38.18
-56.70
-80.66
-105.29
-123.35
-127.93
-115.30
-86.33
-45.88
-0.54
43.78
82.83
113.34
131.79
134.54
119.80
90.23
53.86
22.07
4.86
5.87
20.06
35.76
40.05
24.56
-11.07
-59.70
-110.24
-152.11
-178.46
-187.15
-179.99
-161.25
-136.10
-109.35
-84.79
-64.68
-49.87
-40.00
-33.91
-29.89
-26.32
-22.10
-17.06
-11.93
-8.08
-6.99
-9.61
-15.80
-24.29
-32.97
-39.58
-42.42
-40.77
-34.81
-25.38
-13.60
-0.75
11.63
21.83
28.43
30.88
29.86
27.17
24.87
24.36
25.74
27.86
29.01
27.89
24.43
19.84
16.05
14.78
16.86
21.90
28.47
34.58
38.28
38.33
34.68
28.53
21.81
16.44
13.39
12.29
11.64
9.59
5.00
-1.85
-9.31
-15.05
-17.36
-16.00
-12.22
-8.08
-5.33
-4.65
-5.62
-7.33
-9.08
-10.68
-12.16
-13.42
-14.04
-13.37
-10.92
-6.73
-1.44
3.95
8.50
11.64
13.38
14.04
14.07
13.89
13.83
14.19
15.10
16.33
17.23
16.95
14.77
10.56
4.81
-1.68
-8.09
-13.87
-18.67
-22.09
-23.41
-21.70
-16.40
-7.78
2.74
13.21
21.93
28.26
32.63
35.89
38.53
40.23
40.24
37.98
33.64
28.24
23.17
19.60
17.88
17.42
16.84
14.63
9.81
2.55
-5.73
-12.87
-16.82
-16.75
-13.34
-8.47
-4.13
-1.51
-0.51
-0.14
0.71
2.65
5.72
9.53
13.62
17.53
20.77
22.91
23.71
23.42
22.65
22.04
21.71
21.15
19.59
16.54
12.34
7.96
4.32
1.58
-1.08
-4.90
-10.48
-17.17
-23.27
-27.03
-27.80
-26.51
-24.96
-24.51
-25.03
-24.82
-21.73
-14.55
-3.94
7.83
18.12
25.35
29.60
32.27
34.92
38.34
42.16
45.39
47.12
47.19
46.27
45.55
46.11
48.44
52.24
56.55
60.14
61.87
61.03
57.60
52.21
46.07
40.75
37.87
38.58
42.93
49.50
55.34
56.88
51.15
37.22
16.92
-5.50
-24.74
-36.30
-37.79
-29.58
-14.34
4.07
21.92
36.89
48.58
58.34
68.48
81.02
96.38
112.82
126.63
133.13
128.17
109.79
79.25
41.06
1.59
-33.32
-61.01
-83.54
-107.02
-138.40
-181.21
-232.58
-283.12
-320.44
-334.37
-320.59
-281.17
-222.13
-150.09
-70.68
10.10
83.88
139.81
167.82
163.83
133.19
89.63
49.87
26.00
20.53
26.42
31.47
24.02
-2.97
-50.88
-116.38
-192.85
-271.07
-339.86
-387.73
-405.81
-391.15
-348.48
-289.33
-228.04
-176.85
-142.27
-123.93
-116.08
-110.98
-102.27
-86.73
-64.36
-37.18
-7.45
23.41
55.14
88.26
123.38
161.17
202.22
246.74
293.96
341.40
385.02
420.31
444.04
455.56
456.79
450.88
440.10
424.44
401.77
369.50
326.64
274.94
218.35
161.34
107.08
56.44
8.28
-39.43
-88.62
-140.87
-197.36
-258.59
-323.53
-388.45
-446.69
-489.81
-510.23
-503.77
-471.32
-418.49
-353.59
-284.90
-218.45
-157.42
-102.82
-54.69
-12.80
23.28
54.36
81.43
105.09
124.95
139.73
148.13
149.89
146.48
140.75
135.72
133.39
134.43
138.61
145.52
154.64
164.86
173.61
176.96
170.89
153.42
126.01
93.37
61.56
35.30
16.08
2.08
-9.99
-22.54
-35.56
-46.96
-54.24
-56.35
-54.42
-51.19
-49.15
-49.27
-50.68
-51.76
-51.75
-51.29
-51.46
-52.34
-52.38
-49.14
-41.23
-29.66
-17.54
-8.09
-2.53
0.59
4.16
10.15
18.01
24.99
28.00
25.74
19.48
12.10
6.21
2.68
0.43
-2.50
-7.70
-15.50
-24.96
-34.41
-42.33
-48.06
-52.02
-55.27
-58.84
-62.97
-66.67
-68.04
-65.19
-57.10
-44.14
-28.05
-11.41
3.10
13.61
19.52
21.55
21.37
20.71
20.75
21.74
23.17
24.39
25.14
25.72
26.56
27.64
28.33
27.91
26.28
24.30
23.37
24.30
26.47
28.03
27.11
23.21
17.63
12.79
10.73
11.87
14.83
17.40
18.02
16.67
14.74
13.97
15.26
18.14
21.08
22.39
21.14
17.55
12.77
8.07
4.15
0.98
-1.99
-5.32
-9.20
-13.32
-17.06
-19.83
-21.33
-21.55
-20.69
-19.00
-16.78
-14.38
-12.20
-10.62
-9.84
-9.65
-9.53
-8.86
-7.33
-5.06
-2.57
-0.36
1.29
2.47
3.57
5.01
7.00
9.43
11.96
14.20
15.73
16.19
15.30
12.93
9.18
4.41
-0.82
-5.93
-10.53
-14.48
-17.94
-21.17
-24.29
-27.09
-29.03
-29.49
-28.21
-25.57
-22.60
-20.62
-20.58
-22.41
-25.01
-26.70
-26.17
-23.12
-18.39
-13.46
-9.65
-7.52
-6.75
-6.62
-6.62
-6.73
-7.24
-8.33
-9.64
-10.46
-10.17
-8.76
-6.91
-5.53
-5.09
-5.22
-4.96
-3.48
-0.82
1.88
2.87
0.89
-3.89
-9.78
-14.33
-15.54
-12.79
-7.12
-0.69
4.31
6.51
5.82
3.14
-0.20
-2.93
-4.24
-3.86
-2.01
0.65
3.23
4.95
5.73
6.25
7.69
10.71
14.92
18.67
20.09
18.22
13.72
8.79
5.75
5.74
7.98
10.20
10.22
7.34
3.00
-0.10
0.53
5.78
14.97
26.47
38.51
49.87
59.74
67.49
72.18
72.54
67.46
56.93
42.50
27.08
14.00
5.39
1.17
-1.40
-6.39
-17.31
-34.80
-55.82
-74.74
-85.83
-86.53
-78.87
-68.51
-61.69
-62.08
-69.38
-80.15
-89.92
-95.19
-94.43
-87.97
-77.27
-64.31
-51.04
-38.95
-28.61
-19.49
-10.55
-1.38
7.18
13.47
16.39
16.98
18.47
24.71
37.44
54.51
70.28
78.85
77.75
69.59
60.47
56.18
58.75
65.18
69.32
65.64
52.66
33.67
14.56
0.71
-5.40
-4.29
2.12
12.64
27.88
49.68
79.20
115.13
153.14
186.99
210.75
221.05
218.09
204.91
185.52
162.63
136.59
105.81
68.10
21.91
-33.05
-95.68
-163.44
-232.30
-296.17
-347.25
-377.65
-382.11
-359.75
-314.44
-253.02
-183.04
-111.62
-45.96
5.52
33.30
29.61
-7.43
-70.34
-142.80
-204.51
-238.18
-235.22
-197.23
-133.46
-56.44
21.62
90.26
140.59
165.40
160.79
128.70
78.26
24.23
-17.87
-37.80
-34.56
-15.92
6.13
21.21
25.05
20.12
12.70
8.57
9.77
14.10
17.05
14.98
7.62
-1.58
-7.09
-4.14
8.68
28.90
51.03
69.19
79.62
82.10
79.55
76.17
75.05
76.72
79.26
79.66
75.90
68.40
59.89
53.99
53.19
57.36
63.86
68.86
69.19
63.89
54.39
43.58
34.12
27.23
22.41
18.26
13.60
8.34
3.56
0.74
0.73
3.06
5.98
7.39
5.96
1.96
-2.90
-6.37
-6.97
-4.83
-1.49
1.17
2.06
1.40
0.30
-0.08
0.79
2.84
5.90
10.10
15.85
23.29
31.71
39.47
44.51
45.25
41.26
33.44
23.49
13.18
3.64
-4.89
-12.79
-20.56
-28.39
-35.78
-41.69
-44.96
-44.90
-41.62
-35.96
-29.05
-21.70
-14.11
-5.92
3.18
12.86
21.95
28.78
32.10
31.77
28.88
25.16
22.10
20.22
19.07
17.77
15.68
12.75
9.52
6.59
4.37
2.84
1.74
0.83
0.10
-0.28
-0.25
-0.05
-0.35
-2.12
-6.11
-12.33
-19.70
-26.13
-29.30
-27.55
-20.64
-9.84
2.64
14.59
24.42
31.29
34.86
35.01
31.87
26.23
19.60
13.90
10.56
9.64
9.71
8.52
4.20
-3.84
-14.73
-26.70
-37.89
-46.90
-52.92
-55.67
-55.29
-52.42
-48.04
-43.20
-38.49
-33.80
-28.35
-21.28
-12.28
-1.98
8.22
16.81
22.77
25.90
26.76
26.42
26.14
26.98
29.32
32.50
34.85
34.34
29.65
21.10
10.69
1.15
-5.55
-9.16
-11.25
-13.90
-18.22
-23.49
-27.54
-28.11
-24.31
-17.12
-8.66
-0.86
5.64
11.64
18.57
27.32
37.42
47.00
53.61
55.29
51.38
42.81
31.63
20.20
10.32
2.62
-3.50
-9.37
-16.17
-24.25
-32.75
-40.03
-44.43
-45.03
-42.03
-36.51
-29.83
-23.03
-16.57
-10.46
-4.69
0.47
4.50
6.86
7.33
6.09
3.54
0.06
-4.10
-8.71
-13.40
-17.46
-19.97
-20.18
-18.07
-14.61
-11.37
-9.85
-10.71
-13.51
-16.94
-19.57
-20.50
-19.69
-17.78
-15.54
-13.43
-11.38
-9.00
-5.85
-1.88
2.48
6.47
9.20
10.05
8.89
6.10
2.53
-0.81
-3.11
-4.03
-3.67
-2.49
-1.05
0.10
0.50
-0.09
-1.66
-3.77
-5.66
-6.45
-5.59
-3.07
0.49
4.10
6.75
7.75
6.99
5.01
2.78
1.50
2.12
4.94
9.27
13.44
15.31
13.17
6.60
-3.17
-13.71
-22.37
-27.37
-28.38
-26.25
-22.27
-17.50
-12.47
-7.35
-2.29
2.36
6.22
9.06
10.95
12.11
12.70
12.71
12.10
11.07
10.10
9.74
10.26
11.34
12.13
11.72
9.68
6.35
2.66
-0.38
-2.22
-3.01
-3.42
-4.13
-5.42
-6.98
-8.07
-8.00
-6.47
-3.75
-0.50
2.52
4.79
6.14
6.71
6.91
7.11
7.51
8.01
8.23
7.69
6.08
3.51
0.55
-1.96
-3.28
-3.08
-1.62
0.43
2.24
3.21
3.15
2.27
0.95
-0.43
-1.59
-2.35
-2.68
-2.64
-2.46
-2.40
-2.70
-3.35
-4.10
-4.47
-4.10
-2.94
-1.31
0.27
1.37
1.93
2.18
2.38
2.60
2.54
1.79
0.22
-1.84
-3.64
-4.48
-4.08
-2.78
-1.35
-0.50
-0.58
-1.45
-2.66
-3.68
-4.14
-3.93
-3.12
-1.93
-0.70
0.18
0.40
0.00
-0.51
-0.33
1.17
3.99
7.39
10.18
11.41
10.85
8.99
6.66
4.46
2.50
0.54
-1.61
-3.81
-5.56
-6.38
-6.15
-5.22
-4.21
-3.56
-3.28
-3.06
-2.54
-1.66
-0.70
-0.13
-0.29
-1.20
-2.59
-4.01
-5.14
-5.96
-6.76
-7.94
-9.71
-11.93
-14.15
-15.85
-16.78
-17.05
-17.09
-17.31
-17.75
-17.85
-16.73
-13.70
-8.68
-2.34
4.22
9.99
14.43
17.54
19.54
20.55
20.50
19.23
16.81
13.65
10.45
7.83
6.03
4.84
3.79
2.56
1.19
0.08
-0.33
0.10
1.05
1.83
1.87
1.08
-0.05
-0.68
-0.25
1.19
2.95
4.16
4.38
3.79
3.04
2.69
2.89
3.26
3.30
2.83
2.21
2.16
3.26
5.43
7.88
9.38
8.95
6.42
2.61
-1.05
-3.18
-3.21
-1.60
0.42
1.48
0.80
-1.49
-4.54
-7.26
-8.62
-7.84
-4.46
1.49
9.26
17.49
24.65
29.75
32.64
33.87
33.90
32.47
28.70
21.73
11.64
-0.31
-12.25
-22.70
-31.10
-37.61
-42.34
-44.91
-44.69
-41.59
-36.47
-30.88
-26.05
-22.03
-17.71
-11.61
-3.05
7.37
18.15
27.85
35.75
41.94
46.82
50.50
52.70
52.99
51.21
47.65
42.84
37.29
31.24
24.66
17.29
8.86
-0.68
-10.95
-21.07
-29.86
-36.17
-39.28
-39.06
-36.01
-31.03
-25.07
-18.93
-13.13
-8.03
-3.79
-0.40
2.30
4.60
6.68
8.48
9.65
9.75
8.56
6.22
3.06
-0.63
-4.77
-9.38
-14.31
-19.06
-22.79
-24.71
-24.46
-22.45
-19.58
-16.83
-14.62
-12.79
-10.78
-8.19
-5.09
-1.95
0.64
2.40
3.49
4.30
5.22
6.36
7.50
8.26
8.24
7.11
4.77
1.35
-2.69
-6.57
-9.55
-11.22
-11.79
-11.96
-12.46
-13.54
-14.75
-15.18
-14.03
-11.20
-7.35
-3.41
-0.11
2.30
3.88
4.64
4.45
3.26
1.39
-0.48
-1.63
-1.78
-1.31
-0.91
-1.14
-2.02
-3.16
-4.13
-4.86
-5.70
-6.99
-8.73
-10.34
-11.00
-10.11
-7.60
-3.93
0.16
4.01
7.10
9.23
10.44
10.96
11.11
11.12
11.05
10.80
10.38
9.98
9.98
10.58
11.51
12.08
11.44
9.11
5.21
0.49
-4.21
-8.37
-11.98
-15.25
-18.21
-20.54
-21.72
-21.50
-20.04
-17.81
-15.16
-11.93
-7.54
-1.45
6.26
14.62
22.01
26.74
27.73
24.85
18.91
11.28
3.58
-2.66
-6.32
-7.25
-6.75
-7.67
-13.72
-28.06
-51.62
-82.03
-113.74
-139.39
-152.05
-147.32
-124.56
-86.81
-39.55
10.93
59.00
100.37
132.21
153.14
163.20
163.73
157.40
147.32
136.08
124.61
112.07
96.52
76.21
51.18
23.39
-4.41
-30.52
-55.51
-81.90
-112.49
-148.23
-187.04
-223.93
-252.54
-267.07
-263.61
-240.53
-198.24
-139.34
-69.18
3.71
68.85
116.58
141.85
146.51
138.83
130.01
129.01
138.84
155.67
171.11
175.91
163.79
133.20
87.10
31.86
-24.24
-72.54
-105.78
-119.90
-115.46
-97.47
-73.50
-50.87
-34.12
-24.20
-19.25
-16.56
-14.18
-11.40
-8.08
-3.69
2.89
12.73
25.65
39.64
51.40
57.71
57.03
50.14
39.65
28.64
19.31
12.38
7.27
2.80
-2.02
-7.52
-13.35
-18.55
-22.09
-23.17
-21.68
-18.16
-13.64
-9.04
-4.53
0.51
7.08
15.72
25.95
36.35
45.24
51.38
54.41
54.54
52.24
47.82
41.57
33.86
25.28
16.33
7.19
-2.39
-12.67
-23.44
-33.57
-41.26
-44.77
-43.37
-37.92
-30.49
-23.45
-18.33
-15.14
-12.57
-8.83
-2.79
5.43
14.37
21.92
26.40
27.11
24.44
19.34
12.74
5.27
-2.62
-10.31
-16.98
-21.98
-25.38
-28.08
-31.27
-35.46
-39.84
-42.44
-41.45
-36.94
-31.90
-31.93
-43.75
-72.91
-121.77
-188.25
-265.78
-344.28
-412.29
-459.64
-480.04
-472.61
-441.91
-396.02
-343.67
-291.65
-243.50
-199.87
-159.82
-122.05
-85.22
-47.73
-7.71
36.24
83.55
130.46
170.46
196.59
204.66
196.03
177.75
159.97
151.79
157.65
176.15
201.64
227.40
248.45
262.68
270.11
271.52
267.38
257.89
243.54
225.61
206.06
186.92
169.75
155.24
143.23
133.07
123.88
114.96
105.87
96.64
87.82
80.37
75.05
71.83
69.75
67.33
63.40
57.72
51.12
44.97
40.71
38.83
38.78
39.40
39.81
39.95
40.41
41.89
44.61
48.92
54.47
60.35
65.43
68.99
70.84
71.11
69.92
67.37
65.32
65.34
67.82
71.93
76.39
80.29
83.16
84.79
85.14
86.89
91.89
99.97
109.00
116.54
121.22
122.77
121.53
118.09
116.50
119.69
128.08
139.55
151.60
162.86
172.95
181.74
167.26
118.41
40.15
-48.74
-129.35
-191.79
-234.55
-260.56
-274.40
-280.80
-280.39
-273.68
-262.25
-249.14
-236.99
-226.48
-216.35
-205.00
-190.21
-169.00
-142.01
-114.26
-92.99
-83.24
-84.82
-92.73
-100.22
-102.36
-96.73
-85.12
-71.82
-60.97
-54.15
-50.29
-47.42
-44.49
-41.86
-40.09
-39.57
-39.95
-40.23
-39.23
-36.21
-31.46
-26.09
-21.56
-18.75
-17.71
-17.88
-18.37
-18.37
-17.41
-15.58
-13.44
-11.71
-10.99
-11.42
-12.62
-13.90
-14.55
-14.18
-12.83
-10.94
-9.10
-7.86
-7.41
-7.60
-8.06
-8.39
-8.36
-7.98
-7.40
-6.80
-6.20
-5.47
-4.45
-3.07
-1.45
0.19
1.64
2.85
3.91
4.90
5.79
6.42
6.59
6.32
5.90
5.80
6.43
7.86
9.76
11.57
12.79
13.24
13.12
12.83
12.74
13.02
13.59
14.28
14.89
15.29
15.43
15.37
15.24
15.23
15.52
16.16
17.12
18.22
19.31
20.21
20.74
20.70
19.86
18.08
15.45
12.38
9.50
7.44
6.54
6.68
7.31
7.71
7.31
5.89
3.71
1.32
-0.60
-1.48
-0.99
0.89
3.87
7.37
10.62
12.83
13.43
12.28
9.87
7.19
5.37
5.29
7.20
10.63
14.63
18.15
20.24
20.16
17.41
12.00
4.77
-2.49
-7.36
-7.79
-3.22
4.72
12.70
17.05
15.43
7.97
-2.91
-13.69
-21.30
-24.22
-22.59
-17.68
-11.03
-4.06
2.11
6.52
8.51
7.87
5.15
1.60
-1.11
-1.46
1.43
7.52
15.89
24.90
32.48
36.58
35.80
30.22
21.71
13.50
8.84
9.46
14.70
21.89
27.81
30.35
29.35
26.22
22.68
19.76
17.56
16.02
15.70
18.04
24.41
34.88
47.42
58.29
63.54
60.84
50.55
35.51
20.03
8.09
1.97
1.45
3.65
3.60
-4.93
-27.58
-67.15
-121.50
-182.66
-238.16
-274.39
-281.30
-256.15
-204.80
-139.54
-74.64
-21.59
14.10
33.11
40.25
41.37
40.90
40.88
41.59
42.65
43.87
45.51
47.80
50.46
52.32
51.87
48.21
42.06
35.61
31.57
31.89
36.41
42.92
48.07
49.24
45.82
39.84
34.37
31.75
32.54
35.44
38.75
41.10
41.93
41.14
39.05
35.57
30.58
24.74
19.67
17.94
21.23
29.15
39.00
47.62
52.14
51.19
45.35
36.29
26.71
18.76
13.61
6.84
-4.33
-21.08
-44.31
-73.72
-111.81
-157.31
-204.59
-243.02
-261.11
-250.62
-210.91
-149.74
-80.36
-16.81
31.39
60.91
74.13
76.28
73.23
68.86
64.69
60.77
56.78
53.13
50.45
48.99
48.24
47.21
44.83
40.52
34.80
29.00
25.00
24.08
26.22
30.01
33.53
35.32
35.08
33.71
32.61
32.85
34.52
36.86
38.93
40.26
40.90
40.92
39.93
37.10
31.87
24.77
17.61
12.94
12.61
16.76
23.51
29.91
33.35
32.55
27.68
19.66
9.71
-1.01
-11.27
-19.96
-26.89
-33.90
-45.39
-67.17
-103.65
-154.47
-212.78
-266.45
-302.04
-309.76
-286.87
-238.21
-173.75
-104.80
-40.80
12.19
51.38
76.42
88.47
89.90
84.04
74.84
66.16
60.79
59.83
62.58
67.12
70.98
72.19
70.03
65.26
59.79
55.97
55.45
58.54
64.00
69.60
73.31
74.20
72.82
70.67
69.30
69.56
71.40
74.08
76.68
78.35
78.30
75.79
70.31
62.03
52.30
43.72
39.30
41.18
49.29
60.62
69.68
70.06
56.19
25.18
-22.00
-80.46
-142.48
-199.40
-243.61
-270.29
-278.34
-270.58
-253.12
-233.58
-218.73
-212.03
-212.10
-213.01
-206.52
-185.42
-146.74
-93.20
-32.47
25.72
72.87
104.29
119.84
122.83
118.01
109.74
101.00
93.15
86.54
81.22
77.28
74.80
73.47
72.37
70.18
65.70
58.60
49.68
40.63
33.29
28.80
27.12
27.17
27.35
26.36
23.68
19.73
15.58
12.41
11.01
11.58
13.76
16.76
19.52
21.02
20.54
17.94
13.79
9.24
5.71
4.38
5.55
8.53
12.05
14.94
16.71
17.66
18.68
20.71
24.25
28.86
33.27
36.06
36.64
35.60
34.35
34.54
37.30
42.77
49.66
55.62
58.47
57.30
52.77
46.63
40.92
37.39
37.27
40.58
46.00
51.31
53.91
51.15
40.57
20.46
-9.75
-45.51
-78.18
-100.12
-109.33
-108.74
-102.74
-94.60
-85.69
-75.79
-64.09
-50.86
-37.79
-27.65
-22.09
-20.94
-22.37
-23.83
-23.00
-18.63
-11.32
-4.51
-1.40
-3.98
-12.14
-23.60
-35.16
-43.80
-47.88
-47.73
-45.43
-44.98
-48.97
-58.15
-71.60
-88.18
-106.34
-124.35
-139.74
-140.32
-121.41
-83.58
-32.87
21.49
69.52
105.40
128.89
144.43
157.29
167.77
173.78
168.60
147.34
109.08
59.55
8.32
-34.84
-61.94
-71.90
-70.00
-63.98
-59.15
-60.57
-66.84
-76.48
-89.21
-105.32
-124.73
-144.09
-157.20
-150.35
-120.17
-71.93
-17.39
30.81
64.18
80.29
82.97
78.82
74.14
70.75
68.30
65.49
61.85
58.00
54.99
53.92
54.93
57.94
62.38
67.66
74.40
82.98
92.39
98.72
96.91
80.04
47.94
4.67
-42.19
-84.35
-115.99
-134.95
-143.15
-141.25
-129.62
-108.24
-78.72
-44.68
-10.93
17.61
37.67
47.11
48.12
44.41
39.80
36.15
33.42
31.09
28.61
26.01
23.85
23.20
24.43
27.11
31.35
35.58
39.12
41.93
44.61
48.16
53.80
61.79
71.01
78.83
81.68
76.84
63.43
43.10
19.63
-2.24
-18.92
-28.95
-33.13
-33.72
-32.81
-31.68
-30.64
-29.39
-27.46
-24.77
-21.60
-18.56
-16.17
-14.24
-12.56
-11.09
-9.88
-9.01
-8.30
-7.16
-4.73
-0.43
5.94
12.63
16.17
12.65
-0.05
-20.91
-46.00
-69.87
-87.64
-95.89
-94.43
-85.92
-73.97
-61.02
-47.30
-31.32
-10.96
15.42
49.24
89.58
132.78
173.09
204.35
221.52
221.50
203.51
163.75
106.20
42.16
-15.05
-57.02
-82.59
-94.81
-97.83
-95.07
-89.12
-80.88
-71.53
-62.82
-56.20
-51.93
-49.00
-46.06
-42.39
-38.29
-33.82
-29.48
-25.99
-23.65
-22.08
-20.45
-18.06
-15.17
-12.87
-11.71
-12.36
-16.07
-22.55
-30.44
-37.15
-39.85
-36.77
-28.61
-18.16
-9.88
-7.89
-13.83
-25.71
-38.92
-48.87
-51.67
-48.60
-43.24
-39.64
-40.50
-46.52
-57.03
-68.55
-77.34
-79.61
-72.48
-54.64
-27.84
4.49
34.55
56.50
68.19
70.97
68.12
62.65
56.39
49.83
43.09
36.54
31.54
29.24
29.71
31.81
33.69
33.93
32.04
28.81
25.53
24.37
25.75
29.23
33.61
37.43
39.71
40.22
39.56
38.81
39.38
42.08
46.66
51.54
54.17
51.95
43.35
28.81
10.64
-7.52
-22.39
-32.15
-36.86
-38.05
-37.61
-36.88
-36.23
-35.48
-34.26
-32.70
-31.31
-30.61
-30.70
-31.10
-30.95
-29.29
-26.37
-22.54
-18.47
-14.81
-11.99
-10.11
-9.03
-8.47
-8.18
-8.00
-7.68
-7.11
-6.22
-5.07
-3.78
-2.52
-1.41
-0.47
0.32
1.11
1.94
2.69
3.21
3.36
3.12
2.66
2.24
2.11
2.39
3.01
3.75
4.35
4.67
4.67
4.45
4.09
3.67
3.27
2.92
2.64
2.44
2.26
2.04
1.70
1.26
0.83
0.60
0.63
0.80
0.88
0.64
0.02
-0.76
-1.30
-1.09
0.29
2.96
6.75
11.27
16.05
20.73
25.15
29.39
33.76
38.65
44.08
49.66
54.66
58.45
60.73
61.75
62.27
63.32
65.90
70.14
75.44
80.71
85.02
87.88
89.34
90.00
90.95
93.56
98.40
105.40
113.92
123.06
131.53
137.15
136.84
127.48
107.32
76.28
36.78
-6.84
-49.75
-88.69
-123.41
-156.23
-190.17
-220.88
-240.93
-243.79
-228.95
-202.24
-171.60
-143.19
-119.72
-100.78
-84.17
-68.61
-54.23
-42.21
-33.53
-28.25
-25.54
-23.94
-21.88
-18.06
-12.55
-6.41
-1.09
2.39
3.94
4.12
3.86
4.12
5.61
8.24
11.27
13.81
15.26
15.64
15.33
14.88
14.78
15.40
16.64
18.12
19.40
20.18
20.54
20.66
20.80
21.13
21.80
22.73
23.77
24.76
25.54
26.19
26.72
27.15
27.42
27.45
27.13
26.33
24.96
22.69
19.74
16.19
12.14
7.73
3.17
-1.37
-5.72
-9.24
-12.17
-14.44
-16.04
-17.00
-17.38
-17.24
-16.70
-15.88
-14.87
-13.84
-12.76
-11.69
-10.64
-9.83
-9.07
-8.35
-7.65
-6.97
-6.37
-5.80
-5.25
-4.74
-4.26
-3.77
-3.31
-2.87
-2.47
-2.11
-1.80
-1.51
-1.25
-1.03
-0.80
-0.59
-0.41
-0.26
-0.16
-0.08
-0.03
-0.01
-0.02
-0.03
-0.06
-0.12
-0.21
-0.34
-0.50
-0.68
-0.90
-1.15
-1.41
-1.70
-2.01
-2.36
-2.75
-3.18
-3.65
-4.18
-4.77
-5.38
-6.05
-6.80
-7.62
-8.52
-9.50
-10.56
-11.72
-12.98
-14.29
-15.68
-17.18
-18.80
-20.55
-22.40
-24.37
-26.41
-28.49
-30.45
-32.25
-33.78
-34.89
-35.47
-35.40
-34.60
-33.05
-31.17
-28.71
-25.76
-22.47
-18.97
-15.38
-11.77
-8.13
-4.40
-0.47
3.87
8.67
14.03
19.95
26.39
33.24
40.40
47.67
54.90
61.95
68.66
74.86
80.40
85.07
88.65
90.81
91.27
89.78
86.24
80.61
72.99
63.73
53.17
41.75
29.97
18.31
7.28
-2.62
-11.03
-17.66
-22.28
-24.86
-25.46
-24.23
-21.26
-16.57
-9.99
-1.43
9.30
22.26
37.28
53.88
71.43
89.34
107.26
125.28
143.64
162.81
183.04
204.04
224.80
