1660929613.00
64.000000
-0.00
-0.00
-0.00
-0.00
-0.00
-0.00
-0.00
-0.00
-0.00
-0.00
0.00
0.01
0.01
-0.00
-0.03
-0.05
-0.05
0.00
0.13
0.36
0.66
1.01
1.38
1.72
2.05
2.39
2.78
3.24
3.83
4.49
5.15
5.75
6.23
6.60
6.92
7.32
7.87
8.70
9.73
10.84
11.86
12.71
13.43
14.18
15.23
16.77
19.04
21.85
24.87
27.73
30.20
32.32
34.47
37.18
40.91
46.11
52.41
59.13
65.51
71.01
75.64
80.02
85.13
91.81
100.79
111.54
122.97
133.78
143.00
150.56
157.31
165.09
173.20
184.28
198.91
216.72
235.79
252.56
262.47
261.19
246.03
216.96
176.92
129.86
79.76
29.18
-21.17
-71.94
-124.08
-177.60
-230.87
-280.35
-321.92
-351.67
-367.22
-368.57
-358.04
-339.40
-316.47
-292.13
-267.75
-243.91
-220.99
-199.73
-181.01
-165.30
-152.24
-140.61
-128.89
-115.98
-101.79
-87.17
-73.46
-61.85
-52.79
-45.91
-40.24
-34.71
-28.57
-21.74
-14.68
-8.13
-2.69
1.43
4.43
6.79
8.95
11.17
13.46
15.65
17.56
19.09
20.22
21.00
21.49
21.73
21.76
21.68
21.56
21.48
21.43
21.35
21.15
20.77
20.23
19.59
18.91
18.22
17.54
16.92
16.47
16.28
16.39
16.72
17.08
17.24
17.05
16.52
15.79
15.08
14.56
14.30
14.25
14.30
14.32
14.18
13.78
13.02
11.81
10.18
8.27
6.34
4.69
3.55
2.97
2.87
3.02
3.20
3.29
3.26
3.18
3.13
3.14
3.19
3.25
3.30
3.36
3.47
3.67
3.92
4.14
4.25
4.18
3.92
3.54
3.17
2.91
2.80
2.80
2.84
2.80
2.64
2.36
2.04
1.78
1.66
1.71
1.89
2.12
2.28
2.29
2.14
1.85
1.47
1.07
0.67
0.29
-0.06
-0.40
-0.70
-0.96
-1.16
-1.30
-1.35
-1.33
-1.26
-1.19
-1.17
-1.20
-1.24
-1.24
-1.17
-1.07
-1.01
-1.04
-1.14
-1.23
-1.23
-1.07
-0.79
-0.47
-0.18
0.03
0.18
0.27
0.32
0.34
0.36
0.45
0.67
1.03
1.47
1.88
2.15
2.25
2.23
2.17
2.11
2.05
1.98
1.86
1.72
1.58
1.47
1.38
1.27
1.17
1.09
1.09
1.20
1.39
1.58
1.71
1.74
1.69
1.63
1.61
1.63
1.66
1.67
1.63
1.56
1.49
1.45
1.46
1.53
1.65
1.82
2.03
2.25
2.44
2.60
2.70
2.75
2.76
2.75
2.71
2.66
2.61
2.57
2.53
2.43
2.24
1.96
1.65
1.41
1.33
1.41
1.62
1.83
1.96
1.98
1.92
1.83
1.76
1.72
1.70
1.70
1.72
1.76
1.84
1.94
2.04
2.12
2.18
2.15
2.01
1.73
1.34
0.95
0.69
0.68
0.89
1.21
1.46
1.47
1.21
0.78
0.36
0.11
0.10
0.25
0.46
0.62
0.66
0.58
0.40
0.12
-0.24
-0.63
-0.94
-1.07
-0.96
-0.63
-0.22
0.08
0.14
-0.09
-0.51
-0.99
-1.39
-1.62
-1.69
-1.64
-1.52
-1.38
-1.25
-1.13
-1.00
-0.85
-0.66
-0.42
-0.16
0.07
0.22
0.28
0.25
0.19
0.15
0.16
0.23
0.32
0.44
0.58
0.75
0.96
1.18
1.33
1.36
1.21
0.95
0.65
0.43
0.37
0.44
0.57
0.63
0.58
0.42
0.27
0.21
0.27
0.37
0.41
0.31
0.11
-0.05
-0.05
0.20
0.63
1.10
1.44
1.55
1.39
1.02
0.54
0.06
-0.33
-0.59
-0.70
-0.67
-0.56
-0.39
-0.15
0.13
0.44
0.73
0.95
1.06
1.06
1.01
1.00
1.11
1.35
1.70
2.11
2.47
2.74
2.89
2.95
2.96
3.02
3.20
3.58
4.19
4.95
5.76
6.50
7.07
7.50
7.89
8.38
9.07
9.96
10.95
11.94
12.87
13.81
14.90
16.32
18.10
20.19
22.40
24.55
26.54
28.43
30.36
32.54
35.13
38.15
41.51
45.04
48.57
52.01
55.31
58.47
61.46
64.22
66.69
68.88
70.81
72.34
73.06
72.18
68.70
61.85
51.44
38.09
23.06
7.75
-6.75
-19.85
-31.37
-41.22
-49.10
-54.55
-57.22
-57.18
-55.07
-51.98
-49.12
-47.39
-47.27
-48.71
-51.34
-54.56
-57.74
-60.34
-61.98
-62.53
-62.04
-60.74
-58.91
-56.79
-54.61
-52.51
-50.61
-48.94
-47.47
-46.12
-44.87
-43.77
-43.05
-43.00
-43.87
-45.74
-48.41
-51.43
-54.20
-56.03
-56.32
-54.64
-50.86
-45.25
-38.59
-31.88
-26.06
-21.40
-17.25
-12.13
-4.39
6.86
21.06
36.22
49.67
59.14
63.68
63.78
60.88
56.37
50.85
43.94
34.60
21.84
5.31
-14.36
-35.65
-56.56
-75.12
-89.93
-100.45
-107.03
-110.56
-112.08
-112.40
-111.99
-110.95
-108.86
-104.75
-97.06
-84.07
-64.47
-38.12
-6.35
28.31
62.83
94.51
121.44
142.59
157.60
166.57
170.15
169.54
166.60
163.48
161.99
162.91
165.56
167.79
166.35
157.82
139.82
112.14
77.17
39.36
3.81
-25.50
-46.86
-60.94
-69.82
-75.53
-79.02
-80.11
-78.08
-72.65
-64.37
-54.34
-43.64
-32.71
-21.42
-9.49
2.98
15.29
26.41
35.29
41.19
43.67
42.50
37.53
28.78
16.65
2.14
-13.19
-27.57
-39.46
-48.01
-53.18
-55.66
-56.45
-56.50
-56.36
-56.09
-55.44
-54.11
-52.05
-49.63
-47.52
-46.46
-46.88
-48.82
-51.87
-55.09
-57.02
-55.81
-49.53
-36.84
-17.70
6.18
31.63
54.95
73.18
85.16
91.68
94.68
96.02
96.27
94.48
88.67
76.92
58.30
33.44
4.42
-25.85
-54.24
-78.15
-96.01
-107.41
-113.14
-114.82
-114.33
-113.08
-111.26
-107.63
-99.75
-84.84
-60.97
-28.01
11.91
54.98
96.75
133.48
163.20
185.88
203.02
216.69
228.46
238.46
245.20
245.85
237.17
216.49
182.68
136.65
81.47
21.82
-36.70
-88.73
-130.17
-159.00
-175.50
-181.78
-180.60
-174.19
-163.50
-148.48
-129.01
-105.93
-81.41
-58.28
-38.98
-24.50
-14.35
-7.12
-1.51
3.10
6.68
9.12
10.87
13.05
17.02
23.63
32.64
42.69
51.84
58.45
61.84
62.67
62.53
63.24
65.94
70.67
76.35
81.40
84.54
85.42
84.79
84.09
84.82
87.78
92.82
98.94
104.51
107.45
105.34
95.65
76.48
47.61
11.38
-27.44
-62.79
-89.41
-104.71
-109.46
-107.05
-101.67
-96.49
-92.77
-90.16
-87.72
-84.94
-82.10
-79.81
-78.43
-77.64
-76.58
-74.35
-70.52
-65.41
-59.99
-55.26
-51.88
-49.81
-48.44
-46.99
-44.91
-42.12
-38.99
-36.06
-33.71
-32.03
-30.83
-29.81
-28.81
-27.86
-27.17
-26.95
-27.24
-27.83
-28.34
-28.44
-28.06
-27.47
-27.27
-28.06
-30.20
-33.49
-37.22
-40.39
-42.16
-42.29
-41.35
-40.56
-41.31
-44.41
-49.62
-55.66
-60.71
-63.26
-62.89
-60.53
-58.06
-57.75
-61.45
-69.99
-82.71
-97.13
-109.01
-112.87
-103.53
-78.16
-38.06
10.91
59.88
99.99
125.50
135.51
133.50
124.98
114.86
105.75
97.94
90.58
83.13
75.98
70.11
66.26
64.21
62.73
60.27
55.85
49.56
42.55
36.45
32.58
31.26
31.74
32.51
31.93
28.92
23.28
15.75
7.65
0.35
-5.22
-8.84
-10.99
-12.59
-14.48
-17.13
-20.40
-23.76
-26.63
-28.69
-30.07
-31.20
-32.62
-34.71
-37.58
-41.10
-45.02
-49.05
-52.96
-56.59
-59.92
-62.99
-65.89
-68.70
-71.42
-74.01
-76.42
-78.66
-80.71
-82.40
-83.17
-82.08
-78.02
-70.24
-58.78
-44.68
-29.67
-15.49
-3.25
6.93
15.72
24.06
32.53
41.18
49.64
57.47
64.50
70.76
76.28
80.84
83.96
85.17
84.35
81.94
78.88
76.24
74.86
75.04
76.48
78.55
80.65
82.50
84.37
87.04
91.59
99.03
109.82
123.59
139.04
154.26
167.28
176.75
182.41
185.16
186.73
188.96
192.86
197.95
202.01
201.48
192.42
171.65
137.86
92.33
38.98
-16.33
-67.07
-107.63
-134.65
-147.69
-149.01
-142.65
-133.06
-123.88
-117.24
-113.64
-112.46
-112.46
-112.38
-111.19
-108.16
-103.01
-95.88
-87.35
-78.29
-69.64
-62.16
-56.19
-51.59
-47.78
-44.00
-39.65
-34.54
-28.97
-23.59
-19.08
-15.82
-13.68
-12.02
-10.07
-7.26
-3.54
0.56
4.17
6.49
7.23
6.72
5.80
5.45
6.33
8.51
11.40
13.94
15.08
14.25
11.68
8.41
5.94
5.57
7.86
12.39
17.95
23.21
27.26
29.97
31.91
33.92
36.66
40.47
45.50
51.61
58.05
63.05
63.76
57.15
41.44
17.48
-10.97
-38.41
-59.74
-72.22
-76.24
-74.52
-70.31
-65.83
-61.68
-57.42
-52.60
-47.51
-43.07
-40.18
-39.01
-38.87
-38.61
-37.09
-33.87
-29.31
-24.39
-20.17
-17.34
-15.90
-15.28
-14.60
-13.17
-10.81
-7.88
-5.13
-3.24
-2.54
-2.87
-3.66
-4.28
-4.35
-3.89
-3.23
-2.80
-2.90
-3.50
-4.33
-5.05
-5.40
-5.31
-4.87
-4.25
-3.57
-2.91
-2.30
-1.79
-1.45
-1.37
-1.55
-1.95
-2.45
-2.92
-3.28
-3.47
-3.50
-3.41
-3.20
-2.90
-2.50
-2.00
-1.37
-0.67
0.00
0.48
0.58
0.20
-0.60
-1.66
-2.71
-3.50
-3.95
-4.12
-4.15
-4.20
-4.34
-4.56
-4.79
-5.01
-5.21
-5.41
-5.57
-5.56
-5.21
-4.28
-2.64
-0.22
2.87
6.35
9.85
12.92
15.14
16.18
15.93
14.46
12.06
9.11
5.98
3.00
0.43
-1.58
-2.99
-3.86
-4.36
-4.71
-5.05
-5.46
-5.86
-6.12
-6.13
-5.86
-5.34
-4.65
-3.82
-2.84
-1.71
-0.48
0.68
1.56
2.01
2.01
1.74
1.47
1.45
1.74
2.24
2.72
2.92
2.69
2.04
1.08
-0.02
-1.06
-1.81
-2.09
-1.74
-0.80
0.56
1.99
3.15
3.83
4.06
4.06
4.13
4.40
4.83
5.17
5.12
4.53
3.46
2.13
0.83
-0.24
-1.00
-1.53
-1.96
-2.37
-2.77
-3.10
-3.29
-3.27
-3.09
-2.84
-2.65
-2.58
-2.61
-2.65
-2.58
-2.30
-1.79
-1.12
-0.36
0.45
1.30
2.21
3.15
4.03
4.70
4.97
4.73
3.98
2.86
1.60
0.47
-0.33
-0.67
-0.55
-0.06
0.64
1.37
1.95
2.21
2.03
1.38
0.36
-0.78
-1.73
-2.21
-2.09
-1.47
-0.62
0.15
0.67
0.94
1.11
1.33
1.66
2.02
2.25
2.19
1.82
1.21
0.51
-0.16
-0.67
-0.99
-1.08
-0.96
-0.66
-0.26
0.13
0.38
0.34
-0.05
-0.80
-1.82
-2.98
-4.10
-5.07
-5.79
-6.26
-6.48
-6.45
-6.17
-5.63
-4.86
-3.93
-2.92
-1.95
-1.07
-0.29
0.46
1.19
1.90
2.50
2.90
3.04
2.93
2.63
2.25
1.82
1.31
0.71
0.01
-0.68
-1.24
-1.60
-1.80
-2.00
-2.36
-2.92
-3.55
-3.98
-3.91
-3.21
-1.94
-0.33
1.32
2.72
3.71
4.22
4.24
3.84
3.13
2.31
1.60
1.19
1.20
1.63
2.36
3.20
3.96
4.46
4.59
4.32
3.71
2.88
2.03
1.30
0.80
0.47
0.21
-0.08
-0.42
-0.76
-0.97
-0.99
-0.80
-0.45
0.04
0.67
1.50
2.53
3.71
4.88
5.88
6.56
6.84
6.72
6.22
5.35
4.14
2.61
0.86
-1.00
-2.76
-4.25
-5.31
-5.87
-6.00
-5.89
-5.77
-5.82
-6.07
-6.39
-6.58
-6.43
-5.88
-4.99
-3.94
-2.95
-2.17
-1.68
-1.44
-1.39
-1.45
-1.55
-1.68
-1.81
-1.95
-2.08
-2.12
-2.01
-1.74
-1.37
-1.04
-0.89
-0.99
-1.30
-1.67
-1.90
-1.84
-1.45
-0.78
0.06
0.94
1.74
2.36
2.72
2.79
2.60
2.25
1.90
1.70
1.72
1.93
2.21
2.40
2.36
2.05
1.51
0.88
0.29
-0.13
-0.34
-0.33
-0.17
0.07
0.33
0.56
0.74
0.87
0.96
1.02
1.09
1.21
1.43
1.79
2.30
2.92
3.55
4.06
4.35
4.34
4.07
3.59
2.98
2.28
1.53
0.76
0.04
-0.52
-0.87
-1.01
-1.02
-1.01
-1.06
-1.16
-1.25
-1.26
-1.18
-1.10
-1.08
-1.18
-1.37
-1.60
-1.85
-2.16
-2.60
-3.20
-3.93
-4.62
-5.08
-5.11
-4.64
-3.75
-2.63
-1.56
-0.75
-0.28
-0.08
0.01
0.15
0.44
0.82
1.24
1.61
1.94
2.22
2.47
2.61
2.51
2.08
1.29
0.27
-0.72
-1.43
-1.69
-1.46
-0.90
-0.26
0.20
0.26
-0.14
-0.94
-1.93
-2.88
-3.58
-3.94
-3.94
-3.65
-3.21
-2.74
-2.32
-2.03
-1.88
-1.86
-1.95
-2.11
-2.27
-2.35
-2.29
-2.08
-1.82
-1.73
-2.00
-2.60
-3.17
-3.07
-1.64
1.49
6.12
11.49
16.58
20.44
22.58
22.96
21.87
19.68
16.68
13.14
9.38
5.83
2.92
0.95
-0.13
-0.64
-1.06
-1.76
-2.86
-4.24
-5.62
-6.76
-7.54
-7.97
-8.10
-8.05
-7.93
-7.84
-7.82
-7.87
-7.89
-7.74
-7.35
-6.72
-5.98
-5.30
-4.75
-4.28
-3.72
-2.86
-1.59
0.02
1.75
3.32
4.42
4.90
4.74
4.04
3.00
1.83
0.71
-0.23
-0.88
-1.18
-1.12
-0.78
-0.31
0.10
0.26
0.08
-0.39
-1.00
-1.57
-1.97
-2.19
-2.26
-2.25
-2.21
-2.15
-2.04
-1.89
-1.69
-1.43
-1.10
-0.67
-0.10
0.62
1.50
2.49
3.49
4.39
5.07
5.45
5.49
5.25
4.80
4.22
3.58
2.94
2.38
1.97
1.78
1.83
2.08
2.45
2.79
2.99
2.96
2.64
2.03
1.14
0.04
-1.15
-2.33
-3.37
-4.22
-4.88
-5.41
-5.86
-6.24
-6.52
-6.64
-6.57
-6.30
-5.88
-5.39
-4.94
-4.60
-4.42
-4.39
-4.46
-4.52
-4.40
-3.95
-3.02
-1.56
0.40
2.68
5.03
7.14
8.74
9.63
9.72
9.02
7.66
5.85
3.81
1.77
-0.06
-1.49
-2.41
-2.78
-2.70
-2.37
-2.02
-1.86
-1.97
-2.32
-2.78
-3.20
-3.46
-3.47
-3.20
-2.66
-1.93
-1.10
-0.28
0.45
1.10
1.75
2.50
3.44
4.54
5.71
6.80
7.62
8.06
8.05
7.63
6.91
6.07
5.26
4.62
4.17
3.82
3.40
2.76
1.80
0.53
-0.90
-2.29
-3.44
-4.19
-4.50
-4.42
-4.06
-3.56
-3.05
-2.64
-2.38
-2.30
-2.36
-2.47
-2.58
-2.63
-2.64
-2.64
-2.68
-2.76
-2.85
-2.89
-2.83
-2.67
-2.41
-2.06
-1.62
-1.11
-0.55
0.01
0.51
0.93
1.25
1.48
1.63
1.68
1.62
1.41
1.03
0.46
-0.28
-1.17
-2.17
-3.17
-4.01
-4.48
-4.43
-3.83
-2.82
-1.67
-0.71
-0.21
-0.24
-0.67
-1.26
-1.76
-2.03
-2.07
-1.96
-1.78
-1.51
-1.10
-0.49
0.31
1.19
2.02
2.69
3.20
3.64
4.15
4.88
5.85
6.99
8.09
8.98
9.51
9.64
9.42
8.91
8.10
6.95
5.40
3.49
1.42
-0.52
-2.02
-2.90
-3.16
-2.99
-2.61
-2.17
-1.77
-1.40
-1.09
-0.92
-1.02
-1.48
-2.33
-3.43
-4.57
-5.51
-6.09
-6.30
-6.20
-5.96
-5.67
-5.39
-5.08
-4.69
-4.19
-3.60
-3.00
-2.51
-2.23
-2.18
-2.29
-2.45
-2.51
-2.35
-1.91
-1.18
-0.16
1.07
2.45
3.86
5.18
6.24
6.90
7.08
6.78
6.07
5.14
4.15
3.28
2.62
2.21
2.04
2.05
2.17
2.33
2.42
2.35
2.05
1.48
0.66
-0.37
-1.50
-2.58
-3.47
-4.02
-4.15
-3.88
-3.30
-2.55
-1.77
-1.05
-0.38
0.28
1.02
1.83
2.68
3.45
4.06
4.43
4.57
4.50
4.26
3.90
3.46
2.96
2.48
2.12
1.93
1.91
1.92
1.80
1.40
0.67
-0.27
-1.24
-2.04
-2.53
-2.71
-2.69
-2.61
-2.60
-2.71
-2.97
-3.34
-3.79
-4.25
-4.66
-4.97
-5.15
-5.22
-5.17
-5.03
-4.81
-4.52
-4.22
-3.96
-3.80
-3.72
-3.66
-3.50
-3.18
-2.66
-1.98
-1.23
-0.51
0.09
0.52
0.69
0.59
0.25
-0.23
-0.65
-0.80
-0.56
0.11
1.10
2.24
3.35
4.28
4.95
5.33
5.41
5.19
4.73
4.12
3.50
3.04
2.84
2.88
3.03
3.07
2.83
2.22
1.35
0.46
-0.19
-0.46
-0.34
0.04
0.52
0.95
1.26
1.46
1.56
1.56
1.44
1.15
0.69
0.06
-0.72
-1.61
-2.55
-3.50
-4.39
-5.11
-5.56
-5.66
-5.42
-4.93
-4.34
-3.78
-3.33
-2.91
-2.43
-1.77
-0.93
-0.02
0.76
1.25
1.37
1.18
0.83
0.48
0.24
0.09
-0.03
-0.15
-0.27
-0.32
-0.21
0.12
0.64
1.26
1.89
2.46
2.99
3.53
4.11
4.66
5.02
4.99
4.43
3.36
1.96
0.51
-0.68
-1.45
-1.77
-1.78
-1.62
-1.42
-1.18
-0.89
-0.52
-0.17
0.00
-0.16
-0.68
-1.40
-2.03
-2.30
-2.08
-1.48
-0.73
-0.09
0.32
0.55
0.74
1.01
1.40
1.82
2.20
2.52
2.83
3.28
3.94
4.77
5.64
6.37
6.79
6.82
6.47
5.81
4.91
3.84
2.66
1.43
0.25
-0.81
-1.69
-2.36
-2.83
-3.15
-3.37
-3.50
-3.57
-3.58
-3.52
-3.42
-3.31
-3.23
-3.25
-3.41
-3.73
-4.15
-4.55
-4.79
-4.76
-4.48
-4.03
-3.59
-3.29
-3.18
-3.21
-3.27
-3.25
-3.06
-2.70
-2.16
-1.47
-0.67
0.17
1.00
1.77
2.43
2.91
3.19
3.21
2.97
2.47
1.81
1.13
0.57
0.23
0.15
0.27
0.54
0.88
1.19
1.36
1.29
0.92
0.29
-0.43
-1.02
-1.28
-1.16
-0.75
-0.22
0.29
0.70
1.03
1.33
1.57
1.72
1.72
1.55
1.27
0.99
0.80
0.79
0.94
1.21
1.53
1.87
2.20
2.53
2.82
3.05
3.14
3.05
2.75
2.30
1.76
1.21
0.70
0.20
-0.34
-0.92
-1.49
-1.92
-2.12
-2.07
-1.85
-1.63
-1.53
-1.57
-1.65
-1.67
-1.54
-1.29
-1.03
-0.86
-0.84
-0.93
-1.11
-1.31
-1.54
-1.78
-2.01
-2.15
-2.15
-1.97
-1.62
-1.15
-0.60
0.00
0.65
1.29
1.88
2.34
2.64
2.77
2.76
2.59
2.28
1.83
1.29
0.73
0.22
-0.22
-0.64
-1.09
-1.57
-2.06
-2.45
-2.67
-2.69
-2.52
-2.24
-1.88
-1.49
-1.11
-0.77
-0.53
-0.41
-0.38
-0.37
-0.29
-0.08
0.24
0.61
0.93
1.08
1.01
0.74
0.33
-0.08
-0.34
-0.31
0.09
0.84
1.82
2.83
3.66
4.15
4.25
4.00
3.54
2.99
2.46
1.97
1.51
1.07
0.69
0.42
0.32
0.38
0.60
0.89
1.22
1.51
1.73
1.82
1.71
1.34
0.65
-0.34
-1.53
-2.76
-3.86
-4.67
-5.09
-5.13
-4.86
-4.39
-3.82
-3.24
-2.68
-2.21
-1.90
-1.84
-2.04
-2.40
-2.75
-2.88
-2.63
-2.00
-1.13
-0.18
0.73
1.57
2.39
3.19
3.93
4.44
4.55
4.17
3.32
2.15
0.85
-0.38
-1.39
-2.11
-2.49
-2.60
-2.55
-2.50
-2.61
-2.97
-3.55
-4.23
-4.84
-5.22
-5.30
-5.11
-4.66
-4.01
-3.17
-2.18
-1.07
0.08
1.20
2.25
3.23
4.19
5.19
6.27
7.36
8.32
8.98
9.21
8.99
8.38
7.53
6.61
5.75
5.04
4.47
4.01
3.57
3.10
2.53
1.83
1.03
0.23
-0.43
-0.82
-0.88
-0.66
-0.27
0.11
0.39
0.49
0.42
0.19
-0.21
-0.77
-1.44
-2.15
-2.80
-3.35
-3.81
-4.26
-4.77
-5.34
-5.89
-6.29
-6.40
-6.22
-5.78
-5.17
-4.45
-3.64
-2.71
-1.70
-0.68
0.19
0.78
1.04
1.07
1.05
1.19
1.63
2.35
3.17
3.86
4.19
4.04
3.39
2.32
0.97
-0.50
-1.90
-3.03
-3.72
-3.82
-3.30
-2.26
-0.98
0.24
1.09
1.43
1.25
0.73
0.08
-0.53
-0.99
-1.29
-1.45
-1.52
-1.54
-1.54
-1.60
-1.73
-1.91
-2.04
-1.96
-1.56
-0.82
0.13
1.08
1.84
2.33
2.60
2.79
3.02
3.32
3.69
4.01
4.21
4.20
3.94
3.42
2.65
1.69
0.64
-0.36
-1.20
-1.81
-2.17
-2.36
-2.44
-2.49
-2.55
-2.60
-2.57
-2.41
-2.07
-1.59
-1.09
-0.67
-0.44
-0.42
-0.58
-0.86
-1.22
-1.65
-2.14
-2.71
-3.32
-3.93
-4.45
-4.80
-4.92
-4.84
-4.64
-4.44
-4.37
-4.48
-4.68
-4.76
-4.44
-3.48
-1.75
0.71
3.72
6.94
10.00
12.52
14.22
14.91
14.52
13.14
10.94
8.21
5.26
2.41
-0.05
-1.95
-3.18
-3.78
-3.83
-3.50
-2.95
-2.35
-1.81
-1.42
-1.18
-1.12
-1.20
-1.39
-1.60
-1.74
-1.72
-1.48
-1.02
-0.41
0.26
0.90
1.47
1.93
2.27
2.48
2.55
2.54
2.52
2.58
2.77
3.08
3.45
3.82
4.13
4.37
4.52
4.53
4.32
3.79
2.90
1.69
0.29
-1.14
-2.44
-3.53
-4.34
-4.86
-5.08
-5.03
-4.76
-4.34
-3.84
-3.27
-2.61
-1.83
-0.97
-0.18
0.37
0.51
0.18
-0.54
-1.49
-2.48
-3.40
-4.18
-4.79
-5.19
-5.33
-5.21
-4.86
-4.38
-3.85
-3.34
-2.82
-2.22
-1.49
-0.62
0.32
1.23
2.07
2.83
3.52
4.12
4.54
4.66
4.37
3.68
2.73
1.74
0.89
0.28
-0.11
-0.32
-0.40
-0.31
-0.03
0.45
1.01
1.45
1.60
1.41
0.97
0.47
0.10
-0.04
0.03
0.21
0.43
0.66
0.93
1.27
1.67
2.07
2.38
2.52
2.43
2.13
1.72
1.35
1.18
1.33
1.78
2.43
3.10
3.62
3.89
3.86
3.53
2.93
2.09
1.12
0.12
-0.73
-1.36
-1.75
-2.01
-2.31
-2.73
-3.28
-3.82
-4.20
-4.30
-4.07
-3.58
-2.95
-2.34
-1.88
-1.62
-1.55
-1.61
-1.73
-1.88
-2.06
-2.30
-2.58
-2.88
-3.10
-3.20
-3.19
-3.10
-2.99
-2.86
-2.64
-2.28
-1.79
-1.22
-0.63
-0.04
0.61
1.41
2.37
3.39
4.22
4.64
4.53
3.94
3.05
2.10
1.22
0.46
-0.16
-0.62
-0.86
-0.79
-0.38
0.32
1.16
1.94
2.44
2.52
2.11
1.29
0.25
-0.75
-1.45
-1.73
-1.62
-1.27
-0.86
-0.50
-0.21
0.08
0.46
0.95
1.44
1.81
1.90
1.66
1.14
0.47
-0.17
-0.64
-0.82
-0.71
-0.34
0.19
0.76
1.23
1.55
1.69
1.70
1.64
1.58
1.58
1.60
1.60
1.49
1.21
0.71
0.03
-0.77
-1.62
-2.44
-3.14
-3.67
-3.98
-4.03
-3.79
-3.28
-2.59
-1.78
-0.99
-0.31
0.16
0.39
0.36
0.11
-0.26
-0.62
-0.87
-0.92
-0.79
-0.55
-0.33
-0.26
-0.37
-0.64
-0.97
-1.24
-1.34
-1.22
-0.89
-0.39
0.24
0.98
1.82
2.70
3.54
4.18
4.46
4.24
3.49
2.32
0.92
-0.42
-1.48
-2.11
-2.31
-2.18
-1.88
-1.51
-1.09
-0.60
-0.02
0.58
1.09
1.40
1.44
1.27
1.04
0.88
0.88
1.04
1.27
1.50
1.68
1.77
1.76
1.63
1.39
1.09
0.82
0.67
0.66
0.72
0.75
0.66
0.42
0.11
-0.10
-0.11
0.15
0.61
1.13
1.58
1.87
1.93
1.78
1.46
0.99
0.41
-0.19
-0.77
-1.23
-1.54
-1.67
-1.65
-1.57
-1.51
-1.50
-1.50
-1.42
-1.15
-0.63
0.02
0.63
0.98
0.99
0.73
0.38
0.13
0.04
0.06
0.03
-0.22
-0.72
-1.43
-2.18
-2.83
-3.25
-3.40
-3.27
-2.95
-2.53
-2.11
-1.78
-1.54
-1.37
-1.23
-1.10
-0.99
-0.94
-0.91
-0.79
-0.44
0.25
1.28
2.45
3.47
4.03
3.99
3.36
2.32
1.09
-0.12
-1.18
-2.01
-2.53
-2.70
-2.52
-2.07
-1.53
-1.10
-0.90
-0.95
-1.12
-1.28
-1.32
-1.26
-1.15
-1.08
-1.08
-1.14
-1.18
-1.13
-0.89
-0.41
0.32
1.24
2.28
3.32
4.27
5.13
5.93
6.72
7.46
8.08
8.43
8.41
7.99
7.26
6.35
5.41
4.49
3.62
2.74
1.77
0.65
-0.63
-2.01
-3.38
-4.54
-5.32
-5.60
-5.37
-4.75
-3.97
-3.24
-2.70
-2.38
-2.16
-1.92
-1.59
-1.21
-0.90
-0.81
-1.03
-1.49
-2.05
-2.47
-2.60
-2.38
-1.90
-1.31
-0.78
-0.37
-0.07
0.17
0.42
0.66
0.87
1.02
1.13
1.31
1.68
2.28
2.99
3.57
3.72
3.28
2.21
0.70
-1.00
-2.69
-4.21
-5.52
-6.55
-7.23
-7.44
-7.13
-6.32
-5.18
-3.94
-2.87
-2.13
-1.77
-1.73
-1.86
-2.00
-2.02
-1.89
-1.62
-1.28
-0.91
-0.51
-0.05
0.50
1.12
1.73
2.28
2.74
3.13
3.50
3.84
4.12
4.30
4.36
4.33
4.31
4.32
4.34
4.28
4.03
3.55
2.91
2.21
1.58
1.06
0.64
0.27
-0.07
-0.37
-0.62
-0.76
-0.78
-0.68
-0.49
-0.27
-0.13
-0.16
-0.42
-0.86
-1.35
-1.75
-1.94
-1.93
-1.82
-1.76
-1.86
-2.12
-2.51
-2.95
-3.37
-3.74
-3.99
-4.07
-3.89
-3.41
-2.64
-1.70
-0.73
0.12
0.76
1.19
1.50
1.81
2.21
2.76
3.38
3.89
4.08
3.75
2.78
1.25
-0.62
-2.43
-3.74
-4.25
-3.84
-2.65
-1.03
0.65
2.07
3.08
3.68
3.93
3.93
3.73
3.36
2.90
2.41
2.00
1.68
1.45
1.19
0.84
0.35
-0.24
-0.82
-1.26
-1.43
-1.30
-0.92
-0.41
0.03
0.27
0.21
-0.08
-0.47
-0.82
-1.03
-1.16
-1.33
-1.68
-2.23
-2.88
-3.40
-3.62
-3.47
-3.04
-2.50
-2.00
-1.61
-1.29
-0.98
-0.62
-0.25
0.08
0.30
0.38
0.36
0.29
0.18
0.04
-0.17
-0.51
-1.01
-1.63
-2.30
-2.89
-3.31
-3.50
-3.45
-3.20
-2.80
-2.26
-1.56
-0.64
0.56
2.05
3.74
5.40
6.72
7.41
7.31
6.51
5.26
3.87
2.60
1.56
0.70
-0.04
-0.70
-1.20
-1.41
-1.25
-0.74
-0.00
0.76
1.38
1.73
1.79
1.61
1.27
0.90
0.57
0.35
0.24
0.22
0.24
0.29
0.37
0.50
0.72
1.02
1.40
1.80
2.14
2.35
2.36
2.20
1.96
1.80
1.86
2.21
2.82
3.52
4.06
4.23
3.92
3.18
2.17
1.06
-0.01
-1.02
-1.97
-2.91
-3.79
-4.52
-4.99
-5.16
-5.06
-4.77
-4.35
-3.85
-3.26
-2.57
-1.80
-1.04
-0.37
0.09
0.30
0.22
-0.08
-0.54
-1.06
-1.55
-1.98
-2.34
-2.65
-2.94
-3.18
-3.31
-3.30
-3.15
-2.92
-2.68
-2.46
-2.23
-1.91
-1.41
-0.70
0.15
1.00
1.66
2.01
1.99
1.70
1.32
1.03
0.95
1.08
1.33
1.60
1.86
2.16
2.56
3.08
3.59
3.93
3.94
3.60
3.02
2.40
1.93
1.71
1.72
1.85
1.98
2.00
1.85
1.54
1.15
0.78
0.52
0.42
0.50
0.70
0.95
1.21
1.44
1.59
1.66
1.60
1.40
1.06
0.65
0.24
-0.09
-0.29
-0.36
-0.37
-0.40
-0.53
-0.78
-1.14
-1.52
-1.85
-2.05
-2.14
-2.18
-2.25
-2.38
-2.59
-2.84
-3.04
-3.15
-3.12
-2.94
-2.67
-2.35
-2.05
-1.78
-1.54
-1.31
-1.09
-0.92
-0.85
-0.91
-1.05
-1.22
-1.33
-1.35
-1.35
-1.39
-1.52
-1.74
-1.95
-2.04
-1.94
-1.66
-1.29
-0.93
-0.68
-0.56
-0.57
-0.66
-0.80
-0.98
-1.19
-1.40
-1.56
-1.59
-1.39
-0.89
-0.06
1.06
2.39
3.78
5.05
5.99
6.45
6.33
5.67
4.67
3.56
2.57
1.78
1.17
0.64
0.13
-0.38
-0.83
-1.15
-1.30
-1.30
-1.23
-1.20
-1.27
-1.44
-1.67
-1.86
-1.95
-1.92
-1.82
-1.74
-1.74
-1.82
-1.89
-1.84
-1.61
-1.21
-0.72
-0.23
0.19
0.52
0.77
0.95
1.05
1.09
1.02
0.83
0.44
-0.21
-1.21
-2.55
-4.16
-5.86
-7.47
-8.84
-9.94
-10.84
-11.71
-12.69
-13.88
-15.28
-16.84
-18.52
-20.36
-22.43
-24.78
-27.37
-30.04
-32.59
-34.91
-37.09
-39.35
-41.95
-45.02
-48.38
-51.60
-54.17
-55.75
-56.48
-57.13
-59.01
-63.33
-70.41
-78.80
-85.12
-84.76
-73.30
-47.84
-7.71
45.61
109.08
178.49
248.40
312.08
362.03
391.44
396.18
376.26
335.79
281.28
219.27
154.71
90.86
30.35
-23.66
-67.60
-98.52
-115.71
-121.30
-119.53
-114.92
-110.53
-107.27
-104.36
-100.64
-95.56
-89.51
-83.34
-77.70
-72.66
-67.85
-62.84
-57.47
-51.99
-46.92
-42.81
-40.05
-38.72
-38.50
-38.59
-37.81
-34.95
-29.29
-21.03
-11.42
-2.39
4.18
7.25
6.90
4.25
0.85
-2.05
-3.84
-4.58
-4.65
-4.43
-4.00
-3.25
-2.03
-0.41
1.30
2.60
3.08
2.58
1.31
-0.25
-1.57
-2.28
-2.33
-1.96
-1.54
-1.40
-1.63
-2.11
-2.56
-2.76
-2.59
-2.14
-1.63
-1.29
-1.31
-1.75
-2.51
-3.40
-4.20
-4.70
-4.85
-4.74
-4.58
-4.66
-5.16
-6.10
-7.29
-8.46
-9.32
-9.72
-9.80
-9.85
-10.27
-11.38
-13.24
-15.63
-18.13
-20.36
-22.12
-23.42
-24.42
-25.30
-26.16
-26.99
-27.71
-28.25
-28.57
-28.82
-29.33
-30.68
-33.54
-38.49
-45.62
-54.36
-63.52
-71.77
-78.27
-83.11
-87.39
-92.69
-100.42
-111.20
-124.75
-139.92
-154.88
-167.29
-174.65
-175.00
-168.03
-155.88
-143.06
-135.05
-135.86
-145.80
-160.81
-173.80
-177.59
-167.70
-143.76
-108.68
-66.45
-20.01
29.48
81.64
135.20
186.84
231.67
264.97
284.29
290.57
287.67
280.59
273.40
268.06
264.45
261.43
258.07
254.34
251.03
249.01
248.68
249.70
251.30
252.79
253.93
255.07
257.06
260.78
266.63
274.06
281.21
285.10
282.35
270.20
247.52
215.14
175.50
131.46
85.06
36.96
-13.15
-65.20
-117.49
-166.25
-206.55
-234.17
-247.41
-247.75
-239.17
-226.37
-212.96
-200.55
-188.95
-177.34
-165.28
-153.20
-142.09
-132.75
-125.20
-118.68
-112.10
-104.64
-96.18
-87.30
-79.01
-72.11
-66.89
-62.99
-59.58
-55.81
-51.18
-45.75
-40.06
-34.84
-30.64
-27.58
-25.34
-23.36
-21.12
-18.39
-15.25
-12.03
-9.14
-6.80
-5.01
-3.54
-2.11
-0.55
1.16
2.84
4.25
5.19
5.56
5.44
4.95
4.28
3.57
2.92
2.36
1.91
1.59
1.43
1.46
1.70
2.09
2.49
2.75
2.74
2.45
1.99
1.53
1.22
1.13
1.22
1.42
1.66
1.88
2.07
2.22
2.31
2.35
2.38
2.45
2.62
2.89
3.17
3.34
3.31
3.03
2.61
2.18
1.90
1.85
2.04
2.43
2.90
3.30
3.45
3.17
2.35
1.01
-0.66
-2.36
-3.74
-4.56
-4.76
-4.48
-3.96
-3.48
-3.19
-3.13
-3.25
-3.47
-3.71
-3.91
-4.02
-3.98
-3.77
-3.39
-2.93
-2.55
-2.41
-2.62
-3.14
-3.85
-4.58
-5.19
-5.57
-5.71
-5.61
-5.27
-4.72
-4.03
-3.30
-2.61
-1.99
-1.40
-0.78
-0.11
0.52
0.91
0.89
0.40
-0.43
-1.35
-2.12
-2.60
-2.84
-2.97
-3.11
-3.27
-3.34
-3.15
-2.64
-1.85
-0.95
-0.11
0.56
1.08
1.51
1.85
2.03
1.89
1.31
0.32
-0.88
-2.00
-2.82
-3.33
-3.72
-4.29
-5.27
-6.73
-8.45
-10.10
-11.29
-11.66
-11.00
-9.17
-6.21
-2.37
1.93
6.12
9.63
12.10
13.45
13.95
14.04
14.19
14.69
15.61
16.74
17.73
18.22
17.95
16.89
15.24
13.33
11.50
9.89
8.47
7.00
5.25
3.11
0.70
-1.71
-3.75
-5.15
-5.74
-5.46
-4.36
-2.57
-0.28
2.22
4.57
6.37
7.25
6.93
5.33
2.66
-0.60
-3.73
-6.08
-7.25
-7.29
-6.74
-6.39
-6.99
-8.77
-11.38
-13.86
-15.15
-14.47
-11.82
-8.05
-4.60
-2.95
-3.89
-7.08
-11.05
-13.80
-13.63
-10.04
-4.04
2.33
6.76
7.75
4.99
-0.72
-7.93
-14.69
-18.29
-15.34
-2.72
20.40
50.76
80.74
100.68
102.99
85.94
54.78
19.38
-10.30
-28.53
-35.33
-34.88
-32.02
-29.47
-27.12
-23.46
-17.73
-10.97
-5.60
-3.76
-5.99
-10.87
-15.62
-17.65
-15.77
-10.71
-4.58
0.13
1.79
0.24
-3.27
-6.79
-8.70
-8.33
