1660327581.00
64.000000
-0.00
-0.00
-0.00
-0.00
-0.00
-0.00
-0.00
-0.00
-0.00
-0.00
0.00
0.01
0.01
-0.00
-0.03
-0.05
-0.05
0.00
0.13
0.36
0.66
1.01
1.37
1.72
2.06
2.40
2.79
3.24
3.80
4.42
5.06
5.66
6.20
6.68
7.15
7.68
8.31
9.14
10.09
11.04
11.88
12.56
13.14
13.76
14.65
15.96
17.91
20.32
22.90
25.38
27.58
29.57
31.68
34.32
37.81
42.54
48.15
54.10
59.83
64.97
69.58
74.14
79.34
85.71
93.76
103.00
112.62
121.73
129.77
136.75
143.30
150.75
157.77
166.64
177.95
191.79
206.97
220.57
228.25
225.36
208.53
176.87
132.76
80.05
23.07
-34.94
-92.44
-149.16
-205.23
-260.37
-313.74
-363.87
-409.83
-450.91
-486.50
-515.74
-537.23
-549.22
-549.96
-538.37
-514.21
-478.67
-433.88
-382.45
-327.02
-269.84
-212.63
-156.66
-102.95
-52.37
-5.90
35.58
71.43
101.35
125.50
144.38
158.69
169.15
176.37
180.75
182.57
182.07
179.51
175.23
169.65
163.18
156.15
148.81
141.30
133.69
126.02
118.33
110.69
103.16
95.80
88.68
81.83
75.25
68.95
62.95
57.25
51.86
46.78
42.03
37.59
33.45
29.61
26.07
22.81
19.83
17.11
14.67
12.48
10.54
8.83
7.35
6.07
4.97
4.05
3.27
2.62
2.09
1.65
1.30
1.01
0.79
0.61
0.47
0.37
0.28
0.22
0.18
0.15
0.13
0.12
0.12
0.12
0.13
0.15
0.18
0.21
0.25
0.28
0.32
0.37
0.41
0.46
0.51
0.56
0.61
0.66
0.72
0.78
0.85
0.92
1.00
1.09
1.19
1.30
1.42
1.56
1.71
1.88
2.07
2.29
2.52
2.78
3.07
3.39
3.74
4.12
4.53
4.99
5.47
6.00
6.56
7.16
7.81
8.51
9.24
10.03
10.85
11.72
12.63
13.60
14.61
15.71
16.87
18.09
19.36
20.63
21.83
22.88
23.72
24.21
24.30
23.86
22.82
21.10
18.63
15.44
11.57
7.16
2.44
-2.34
-6.94
-11.16
-14.83
-17.89
-20.32
-22.14
-23.35
-23.97
-24.00
-23.49
-22.54
-21.32
-20.08
-19.00
-18.22
-17.71
-17.32
-16.84
-16.09
-15.06
-13.89
-12.89
-12.37
-12.51
-13.22
-14.20
-15.01
-15.31
-15.01
-14.38
-13.93
-14.18
-15.44
-17.61
-20.23
-22.69
-24.49
-25.45
-25.83
-26.15
-27.01
-28.98
-32.50
-37.80
-44.50
-51.40
-56.43
-57.18
-51.84
-40.07
-23.42
-4.88
12.19
25.38
33.96
38.75
41.32
43.10
44.78
46.38
47.80
48.81
49.39
49.64
49.65
49.28
48.24
46.15
42.79
38.36
33.36
28.54
24.64
21.99
20.42
19.42
18.38
16.91
15.00
12.89
10.88
9.21
7.90
6.80
5.78
4.66
3.36
1.85
0.16
-1.57
-3.10
-4.25
-5.03
-5.60
-6.29
-7.30
-8.63
-10.15
-11.67
-13.19
-14.80
-16.61
-18.43
-19.77
-19.96
-18.49
-15.31
-10.85
-5.91
-1.25
2.66
5.64
7.70
8.97
9.51
9.40
8.74
7.73
6.59
5.50
4.62
4.01
3.67
3.53
3.46
3.29
2.92
2.30
1.53
0.76
0.13
-0.28
-0.57
-0.89
-1.42
-2.29
-3.54
-5.10
-6.81
-8.55
-10.21
-11.74
-13.17
-14.57
-16.05
-17.68
-19.49
-21.41
-23.21
-24.46
-24.61
-23.18
-19.95
-15.13
-9.35
-3.47
1.70
5.70
8.46
10.19
11.20
11.69
11.76
11.37
10.59
9.55
8.45
7.51
6.86
6.52
6.42
6.40
6.33
6.14
5.88
5.64
5.49
5.39
5.20
4.69
3.69
2.18
0.30
-1.73
-3.71
-5.50
-7.01
-8.17
-8.96
-9.48
-9.99
-10.83
-12.23
-14.09
-15.90
-16.95
-16.55
-14.42
-10.81
-6.37
-1.92
1.92
4.79
6.67
7.69
8.07
7.96
7.53
6.88
6.07
5.19
4.34
3.62
3.15
3.00
3.13
3.44
3.73
3.79
3.45
2.63
1.35
-0.28
-2.03
-3.70
-5.06
-6.12
-7.05
-8.16
-9.74
-11.93
-14.61
-17.39
-19.83
-21.45
-21.90
-20.95
-18.50
-14.63
-9.61
-4.02
1.45
6.14
9.60
11.78
12.91
13.34
13.36
13.08
12.51
11.64
10.55
9.40
8.42
7.75
7.38
7.20
7.00
6.60
5.86
4.75
3.30
1.61
-0.21
-2.09
-4.03
-6.19
-8.80
-12.11
-16.23
-21.06
-26.18
-30.86
-34.17
-35.30
-33.81
-29.86
-24.16
-17.74
-11.62
-6.42
-2.37
0.61
2.68
3.90
4.20
3.60
2.31
0.78
-0.48
-1.16
-1.25
-0.98
-0.69
-0.55
-0.60
-0.74
-0.89
-1.10
-1.50
-2.20
-3.24
-4.53
-5.98
-7.56
-9.35
-11.53
-14.21
-17.27
-20.31
-22.66
-23.56
-22.49
-19.36
-14.53
-8.73
-2.75
2.82
7.71
11.87
15.35
18.15
20.13
21.19
21.30
20.64
19.56
18.40
17.44
16.70
16.06
15.29
14.27
13.04
11.76
10.62
9.67
8.77
7.65
6.07
4.01
1.67
-0.68
-2.87
-4.96
-7.16
-9.61
-12.11
-14.06
-14.65
-13.21
-9.58
-4.21
1.97
7.91
12.82
16.37
18.61
19.80
20.14
19.68
18.41
16.44
14.08
11.81
10.14
9.37
9.52
10.32
11.44
12.53
13.34
13.65
13.30
12.13
10.15
7.55
4.67
1.84
-0.80
-3.36
-6.14
-9.44
-13.42
-18.03
-22.95
-27.63
-31.34
-33.33
-32.96
-30.04
-24.88
-18.31
-11.42
-5.19
-0.26
3.09
4.87
5.21
4.27
2.22
-0.59
-3.70
-6.53
-8.60
-9.60
-9.53
-8.66
-7.40
-6.24
-5.48
-5.22
-5.28
-5.34
-5.10
-4.46
-3.53
-2.60
-2.01
-1.99
-2.67
-4.05
-5.98
-8.20
-10.22
-11.46
-11.33
-9.50
-6.01
-1.34
3.87
8.92
13.30
16.71
18.95
19.95
19.72
18.46
16.61
14.78
13.62
13.62
14.94
17.28
19.99
22.16
22.82
21.14
16.76
9.88
1.36
-7.57
-15.56
-21.64
-25.45
-27.19
-27.47
-27.10
-26.75
-26.78
-27.22
-27.75
-27.88
-27.11
-25.10
-21.76
-17.23
-11.78
-5.66
1.02
8.19
15.71
23.15
29.73
34.45
36.42
35.23
31.23
25.37
18.98
13.26
8.94
6.17
4.71
4.34
4.99
6.83
10.04
14.54
19.91
25.47
30.58
34.82
38.02
40.10
40.85
39.80
36.50
30.73
22.97
14.45
6.84
1.75
0.04
1.54
5.08
9.00
11.83
12.76
11.83
9.65
7.00
4.51
2.38
0.64
-0.79
-1.89
-2.48
-2.37
-1.49
0.05
1.96
3.87
5.44
6.45
6.78
6.45
5.52
4.07
2.14
-0.30
-3.35
-7.13
-11.66
-16.78
-22.05
-26.79
-30.20
-31.58
-30.47
-26.91
-21.39
-14.77
-7.97
-1.85
3.04
6.39
8.08
8.09
6.50
3.60
-0.10
-3.85
-6.85
-8.53
-8.71
-7.70
-6.06
-4.40
-3.10
-2.30
-1.92
-1.82
-1.95
-2.34
-3.11
-4.44
-6.45
-9.25
-12.74
-16.65
-20.43
-23.41
-24.88
-24.37
-21.71
-17.17
-11.33
-4.99
1.09
6.25
10.09
12.42
13.29
12.92
11.71
10.12
8.66
7.74
7.58
8.12
9.00
9.67
9.59
8.37
5.92
2.46
-1.68
-6.13
-10.63
-15.02
-19.24
-23.26
-27.00
-30.39
-33.21
-35.23
-36.08
-35.39
-32.90
-28.65
-23.00
-16.58
-10.15
-4.25
0.85
5.22
9.09
12.62
15.87
18.81
21.40
23.69
25.83
27.94
30.02
31.88
33.12
33.22
31.72
28.40
23.41
17.23
10.53
3.95
-2.15
-7.71
-12.89
-17.88
-22.72
-27.17
-30.77
-32.93
-33.10
-30.90
-26.28
-19.59
-11.58
-3.28
4.30
10.43
14.87
17.72
19.29
19.86
19.53
18.36
16.54
14.48
12.68
11.54
11.16
11.30
11.50
11.34
10.63
9.44
8.01
6.58
5.23
3.87
2.29
0.18
-2.69
-6.39
-10.72
-15.11
-18.70
-20.52
-19.83
-16.35
-10.43
-2.95
4.98
12.35
18.48
23.15
26.41
28.46
29.51
29.66
29.02
27.83
26.41
25.11
24.13
23.39
22.57
21.26
19.25
16.57
13.59
10.69
8.11
5.74
3.19
0.03
-4.03
-8.98
-14.54
-20.16
-25.19
-28.89
-30.61
-29.89
-26.64
-21.20
-14.26
-6.68
0.68
7.19
12.46
16.28
18.56
19.31
18.63
16.79
14.24
11.57
9.38
8.07
7.72
7.98
8.28
8.00
6.79
4.66
1.93
-0.99
-3.77
-6.35
-8.81
-11.31
-13.99
-16.86
-19.98
-23.33
-26.71
-29.63
-31.29
-30.79
-27.55
-21.61
-13.71
-5.08
2.99
9.65
14.60
17.97
20.07
21.14
21.27
20.50
19.01
17.11
15.23
13.75
12.79
12.14
11.36
9.90
7.45
4.05
0.14
-3.59
-6.52
-8.34
-9.15
-9.39
-9.66
-10.47
-12.07
-14.43
-17.27
-20.15
-22.44
-23.45
-22.61
-19.63
-14.67
-8.38
-1.67
4.54
9.52
12.94
14.79
15.36
15.07
14.42
13.83
13.66
14.01
14.79
15.67
16.24
16.13
15.17
13.43
11.14
8.61
6.03
3.40
0.59
-2.56
-5.97
-9.19
-11.37
-11.64
-9.50
-5.30
-0.32
3.71
5.29
4.01
0.87
-1.95
-1.94
2.67
12.09
24.91
38.53
50.16
57.94
61.51
62.23
62.69
65.96
74.53
89.19
108.24
127.42
140.46
140.64
122.91
86.02
33.90
-24.64
-77.96
-114.93
-128.39
-117.33
-86.83
-45.88
-3.94
32.09
59.49
79.32
94.52
107.74
119.95
130.48
138.14
142.50
144.57
146.28
149.43
154.65
160.92
166.32
169.35
169.96
169.71
170.89
175.04
181.78
188.64
192.12
189.43
180.04
166.00
151.09
138.90
131.13
126.82
122.79
115.42
102.37
83.77
61.97
40.19
20.73
3.74
-12.60
-30.78
-52.04
-75.08
-96.42
-111.89
-118.85
-117.69
-111.91
-106.93
-108.35
-120.55
-145.82
-183.75
-230.70
-279.70
-320.97
-343.90
-339.98
-306.05
-246.33
-172.15
-98.99
-41.95
-11.24
-9.48
-31.65
-67.72
-106.54
-139.43
-162.03
-174.20
-178.19
-176.63
-171.34
-163.24
-153.34
-143.25
-134.97
-130.00
-128.45
-128.85
-128.81
-126.14
-119.95
-110.81
-100.35
-90.39
-82.08
-75.69
-70.69
-66.25
-61.66
-56.65
-51.43
-46.52
-42.58
-40.05
-38.99
-38.93
-39.08
-38.57
-36.91
-34.22
-31.12
-28.47
-26.86
-26.37
-26.51
-26.47
-25.48
-23.11
-19.23
-14.02
-7.80
-0.93
6.20
13.11
19.20
23.68
25.68
24.35
19.22
10.38
-1.23
-13.96
-25.73
-34.63
-39.38
-39.76
-36.50
-31.03
-24.90
-19.34
-14.94
-11.67
-8.98
-6.12
-2.40
2.49
8.49
15.24
22.25
29.11
35.59
41.63
47.24
52.41
56.89
60.31
62.21
62.28
60.53
57.34
53.38
49.37
45.82
42.83
40.00
36.51
31.12
22.29
8.53
-11.03
-35.81
-63.51
-90.33
-112.28
-126.62
-132.96
-133.11
-129.87
-125.41
-120.24
-113.46
-103.85
-91.18
-76.67
-62.39
-50.10
-40.19
-31.69
-23.04
-13.26
-2.58
7.69
15.99
21.36
23.90
24.66
24.94
25.59
26.66
27.44
26.98
24.70
20.85
16.60
13.75
14.13
18.91
28.20
40.86
54.68
67.01
75.54
79.01
77.55
72.35
65.02
56.80
48.07
38.47
27.57
15.62
3.85
-5.87
-11.81
-13.24
-10.75
-5.85
-0.07
5.69
11.54
18.16
26.17
35.63
45.91
56.01
64.79
71.00
73.15
69.44
58.20
38.62
11.48
-20.79
-54.66
-86.64
-114.27
-136.43
-153.11
-164.78
-171.95
-175.02
-174.29
-169.93
-161.93
-149.93
-133.56
-112.87
-88.80
-63.29
-38.83
-17.74
-1.62
8.90
14.01
14.44
11.33
6.26
1.19
-1.78
-0.90
4.68
14.48
26.82
39.27
49.64
56.78
61.23
65.13
71.43
82.65
99.63
120.92
143.15
162.24
175.02
180.10
178.06
170.56
159.44
146.02
131.11
115.40
99.70
84.70
70.59
56.78
42.12
25.80
8.11
-9.30
-23.97
-33.74
-37.66
-36.37
-31.45
-24.73
-17.54
-10.61
-4.33
0.92
4.61
6.16
5.11
1.25
-5.36
-14.42
-25.27
-36.85
-47.67
-56.08
-60.69
-60.85
-56.84
-49.71
-40.86
-31.47
-22.22
-13.26
-4.53
3.97
12.13
19.84
27.10
34.04
40.61
46.23
49.78
49.76
45.06
35.46
22.09
7.14
-6.80
-17.42
-23.24
-23.63
-18.75
-9.29
3.38
17.23
29.72
38.33
41.29
38.28
30.56
20.59
11.19
4.63
2.04
3.37
7.75
13.97
20.86
27.51
33.21
37.41
39.80
40.42
39.62
37.96
35.87
33.40
30.17
25.70
19.88
13.36
7.53
4.08
4.33
8.60
16.11
25.25
34.25
41.81
47.34
51.04
53.45
55.20
56.62
57.63
57.71
55.91
51.18
42.58
29.60
12.42
-8.03
-30.23
-52.36
-72.74
-90.08
-103.67
-113.30
-119.20
-121.89
-121.95
-119.84
-115.45
-107.99
-96.21
-79.14
-57.05
-31.98
-7.44
12.89
26.68
34.05
37.49
40.58
46.35
55.97
68.52
81.80
93.40
101.67
105.92
106.17
102.76
96.11
86.79
75.66
63.91
52.98
44.14
38.28
35.65
35.80
37.68
39.85
40.85
39.58
35.59
29.10
20.81
11.41
1.33
-9.25
-20.07
-30.40
-38.92
-44.10
-44.89
-41.29
-34.37
-25.88
-17.40
-9.78
-3.06
3.20
9.28
15.05
19.99
23.53
25.54
26.45
27.16
28.64
31.50
35.65
40.41
44.65
47.26
47.57
45.56
41.82
37.33
32.98
29.10
25.15
19.58
10.17
-5.13
-27.24
-55.09
-85.41
-113.30
-133.54
-142.06
-137.33
-120.91
-97.12
-71.87
-50.82
-37.70
-33.05
-34.16
-36.15
-33.83
-23.72
-5.25
19.18
45.39
68.99
86.74
97.04
99.77
95.67
85.99
72.27
56.35
40.34
26.28
15.66
9.01
5.80
4.82
4.75
4.73
4.65
5.03
6.60
9.83
14.54
19.82
24.40
27.20
27.92
27.24
26.41
26.43
27.27
27.59
25.23
18.31
6.38
-9.01
-24.66
-36.78
-42.42
-40.46
-31.94
-19.42
-5.90
6.18
15.70
22.84
28.64
34.13
39.78
45.14
49.14
50.67
49.13
44.63
37.86
29.60
20.41
10.39
-0.73
-13.33
-27.60
-43.33
-59.69
-75.13
-87.50
-94.44
-94.14
-86.31
-72.79
-57.49
-45.19
-39.78
-42.51
-51.41
-62.06
-69.65
-70.99
-65.76
-56.14
-45.26
-35.48
-27.42
-20.30
-13.02
-5.38
1.71
6.78
8.89
8.40
6.82
5.99
7.01
9.60
12.39
13.70
12.62
9.60
6.29
4.87
7.18
13.96
24.71
38.02
52.15
65.55
77.14
86.24
92.48
95.70
95.88
93.23
88.06
80.58
70.75
58.18
42.46
23.68
2.90
-17.76
-35.65
-48.42
-54.88
-55.28
-50.99
-43.69
-34.63
-24.39
-13.07
-0.84
11.67
23.39
33.28
40.79
46.05
49.59
51.81
52.60
51.26
46.75
38.07
24.49
5.74
-17.87
-45.09
-73.55
-99.75
-119.71
-130.21
-129.96
-120.30
-104.88
-88.32
-74.55
-65.40
-60.43
-57.56
-54.41
-49.35
-41.94
-32.70
-22.52
-12.16
-2.21
6.85
14.48
20.00
23.00
23.55
22.26
20.09
17.88
16.16
15.27
15.58
17.70
22.29
29.51
38.67
48.15
55.91
60.21
60.11
55.66
47.56
36.93
25.18
14.04
5.44
0.87
0.41
2.19
2.56
-2.40
-14.90
-33.97
-55.32
-72.79
-80.88
-76.93
-62.08
-40.75
-18.94
-2.17
6.22
5.81
-1.19
-11.02
-19.89
-25.32
-26.80
-25.49
-23.18
-21.13
-19.33
-16.54
-11.14
-2.02
10.75
25.91
41.39
54.88
64.19
67.67
64.53
55.31
42.02
27.54
14.72
5.14
-1.64
-7.82
-16.05
-27.89
-42.73
-57.91
-69.85
-75.61
-73.91
-65.26
-51.23
-33.69
-14.32
5.29
23.31
37.60
46.20
48.18
44.24
36.68
28.70
23.17
21.68
24.14
29.07
34.40
38.35
40.00
39.51
37.86
36.38
36.22
37.90
41.06
44.42
46.13
44.27
37.61
26.19
11.48
-4.01
-17.69
-28.07
-35.34
-41.15
-47.56
-55.50
-63.99
-70.23
-70.83
-63.48
-48.18
-27.39
-5.09
14.72
29.39
38.18
42.13
43.30
43.91
45.72
49.56
55.13
61.00
64.97
64.68
58.49
46.07
28.56
8.11
-12.88
-32.67
-50.53
-66.76
-82.40
-98.61
-116.14
-134.66
-152.39
-166.30
-172.79
-169.20
-155.20
-133.41
-108.78
-86.64
-70.53
-60.68
-54.25
-46.97
-35.37
-18.39
2.44
24.11
43.69
59.48
71.15
79.12
83.79
85.24
83.49
79.14
73.72
69.49
68.73
72.82
81.74
94.07
107.63
120.25
130.35
137.28
141.13
142.43
141.67
139.09
134.55
127.70
118.27
106.29
92.24
76.82
60.72
44.36
27.79
10.87
-6.35
-23.48
-39.57
-53.34
-63.42
-68.65
-68.44
-62.90
-52.94
-40.13
-26.41
-13.65
-3.27
3.94
7.79
8.37
5.84
0.19
-8.56
-20.19
-34.09
-49.24
-64.41
-78.46
-90.57
-100.46
-108.38
-115.14
-121.85
-129.60
-138.84
-148.89
-157.60
-161.68
-157.66
-143.23
-118.52
-86.51
-52.42
-22.10
-0.14
11.52
13.90
10.19
4.43
0.07
-0.74
2.73
10.17
20.64
32.87
45.38
56.66
65.47
71.23
74.29
75.73
76.84
78.54
80.73
82.46
82.25
78.78
71.39
60.41
47.00
32.84
19.71
9.00
1.37
-3.56
-7.09
-10.96
-16.47
-23.75
-31.65
-38.29
-42.15
-42.81
-41.06
-38.18
-34.87
-30.79
-24.68
-15.30
-2.35
13.05
28.78
42.45
52.27
57.57
58.70
56.76
53.20
49.45
46.55
44.86
43.95
42.74
39.85
34.10
24.93
12.54
-2.17
-17.75
-32.55
-45.08
-54.50
-60.96
-65.80
-71.18
-79.14
-90.59
-104.44
-117.53
-125.57
-124.73
-113.31
-92.74
-67.35
-42.95
-24.71
-15.41
-14.59
-19.15
-24.82
-27.86
-26.22
-19.69
-9.25
3.85
18.56
34.06
49.30
62.81
72.87
78.24
78.78
75.80
71.69
69.04
69.87
74.99
83.93
95.21
106.72
116.28
122.07
123.14
119.74
113.35
106.17
100.30
96.89
95.74
95.42
94.03
89.96
82.42
71.54
58.02
42.71
26.49
10.25
-5.11
-18.61
-29.52
-37.50
-42.74
-45.75
-47.07
-46.95
-45.34
-42.12
-37.51
-32.28
-27.65
-24.85
-24.60
-26.79
-30.78
-35.71
-40.97
-46.23
-51.11
-54.93
-56.59
-55.11
-50.39
-43.72
-37.67
-35.24
-38.51
-47.55
-60.04
-71.98
-79.25
-79.20
-71.89
-60.00
-47.74
-38.97
-35.43
-36.11
-37.77
-36.61
-30.05
-17.87
-2.03
14.37
28.50
38.69
44.52
46.28
44.39
39.02
30.32
18.70
5.19
-8.81
-21.89
-33.11
-42.12
-49.02
-53.86
-56.34
-55.73
-51.21
-42.36
-29.66
-14.45
1.37
15.94
28.07
37.50
44.95
51.80
59.69
69.83
82.28
95.56
106.70
112.14
109.03
96.63
76.90
54.00
32.88
17.44
9.29
7.52
9.49
12.20
13.32
11.69
7.16
0.18
-8.59
-18.47
-28.82
-39.08
-48.70
-57.10
-63.64
-67.50
-67.84
-63.95
-55.55
-43.19
-28.37
-13.48
-1.33
5.60
5.92
0.05
-9.75
-19.95
-26.92
-28.25
-23.68
-15.34
-6.97
-2.52
-4.71
-14.01
-28.50
-44.73
-58.89
-68.02
-70.74
-67.12
-58.17
-45.27
-29.83
-13.48
1.80
13.59
19.62
18.58
10.89
-1.29
-14.74
-26.34
-34.16
-37.84
-38.23
-36.62
-33.97
-30.43
-25.60
-18.88
-9.98
0.84
13.00
25.84
38.95
52.28
66.01
80.25
94.74
108.69
120.72
129.10
132.09
128.41
117.66
100.59
79.27
56.70
36.25
20.77
11.81
9.22
11.27
15.38
19.00
20.39
18.97
15.12
9.68
3.44
-3.20
-10.25
-17.85
-26.02
-34.44
-42.43
-49.06
-53.47
-55.26
-54.76
-53.21
-52.50
-54.45
-60.14
-69.14
-79.38
-87.65
-90.66
-86.30
-74.57
-57.78
-39.86
-25.11
-16.73
-15.88
-21.39
-30.28
-38.79
-43.54
-42.36
-34.73
-21.67
-5.19
12.22
28.15
40.69
48.57
51.29
49.02
42.61
33.36
22.95
12.96
4.69
-1.21
-4.68
-6.06
-5.70
-3.62
0.58
7.39
17.01
28.87
41.51
52.76
60.33
62.63
59.68
53.49
47.72
46.33
51.80
63.60
78.01
89.42
92.61
84.97
67.55
44.41
20.88
1.57
-10.92
-16.20
-15.48
-10.90
-4.90
0.08
2.00
-0.27
-6.60
-15.53
-24.83
-32.24
-36.30
-36.77
-34.38
-30.46
-26.24
-22.62
-20.23
-19.75
-22.16
-28.75
-40.64
-58.13
-80.21
-104.33
-126.78
-143.50
-151.15
-148.11
-135.16
-115.39
-93.50
-74.46
-61.88
-56.88
-57.66
-60.29
-60.18
-53.91
-40.44
-21.18
0.80
22.16
40.36
54.11
63.14
67.69
68.20
65.45
60.83
56.42
54.72
57.80
66.55
80.28
96.91
113.74
128.28
138.88
144.89
146.46
144.14
138.59
130.32
119.82
107.67
94.47
80.85
67.07
52.90
37.48
19.78
-0.85
-24.06
-48.25
-70.90
-89.30
-101.43
-106.49
-104.95
-98.19
-88.10
-76.60
-65.52
-56.44
-50.48
-48.15
-49.15
-52.57
-57.26
-62.34
-67.48
-72.83
-78.61
-84.62
-90.09
-93.92
-95.23
-94.00
-91.23
-88.71
-88.32
-91.18
-97.08
-104.27
-109.87
-110.67
-104.25
-89.92
-69.22
-45.55
-23.11
-5.42
5.82
11.08
12.38
12.22
12.48
14.10
17.30
22.22
29.17
38.49
49.92
62.26
73.52
81.75
86.06
87.29
87.80
90.61
98.27
111.93
131.07
153.70
176.94
197.59
212.71
220.10
218.80
209.24
193.03
172.36
149.24
124.96
100.22
75.53
51.55
29.11
8.76
-9.70
-27.27
-45.08
-63.58
-81.81
-97.58
-108.39
-112.49
-109.75
-101.70
-90.90
-80.07
-71.23
-65.26
-61.87
-59.82
-57.60
-54.03
-48.83
-42.83
-37.53
-34.57
-34.99
-38.85
-45.25
-52.67
-59.53
-64.83
-68.49
-71.50
-75.57
-82.43
-92.71
-105.11
-116.30
-121.75
-117.49
-102.03
-77.30
-48.22
-20.88
-0.26
11.49
15.25
13.99
11.15
9.25
9.51
12.03
16.42
22.09
28.26
33.87
37.73
38.90
37.32
33.98
30.76
29.85
32.90
40.53
52.07
65.85
79.70
91.48
99.72
103.84
104.22
101.90
98.07
93.60
88.71
83.04
76.00
67.25
56.97
45.78
34.36
23.12
11.92
0.39
-11.64
-23.59
-33.98
-40.83
-42.52
-38.57
-30.02
-19.11
-8.59
-0.72
3.31
3.46
0.62
-3.82
-8.44
-12.04
-13.85
-13.67
-11.90
-9.42
-7.21
-6.04
-6.14
-7.24
-8.94
-11.16
-14.49
-20.04
-29.07
-42.30
-59.33
-78.51
-97.09
-111.71
-119.28
-117.74
-106.96
-89.04
-67.93
-48.25
-33.70
-25.75
-23.14
-22.72
-20.84
-14.97
-4.44
9.77
25.92
42.42
58.12
72.17
83.66
91.62
95.33
94.93
91.52
86.84
82.46
79.15
76.56
73.59
69.17
62.94
55.57
48.51
43.27
40.74
40.76
42.24
43.51
42.88
39.10
31.69
21.09
8.69
-3.57
-13.71
-20.46
-23.76
-24.75
-25.15
-26.32
-28.58
-31.11
-32.54
-31.89
-29.06
-24.80
-20.10
-15.62
-11.52
-7.70
-4.27
-1.62
-0.32
-0.57
-1.91
-3.22
-3.14
-0.55
5.00
13.21
22.95
32.38
38.94
39.64
31.81
14.14
-12.24
-43.36
-73.13
-94.93
-103.75
-97.82
-79.26
-53.32
-26.78
-5.86
5.47
6.41
-0.79
-11.83
-21.94
-27.38
-26.60
-20.33
-11.02
-1.71
5.03
7.60
5.52
-0.89
-10.67
-22.29
-33.79
-42.99
-48.06
-48.13
-43.73
-36.64
-29.33
-23.98
-21.66
-21.90
-22.95
-22.59
-19.05
-11.64
-0.88
11.83
24.89
37.02
47.56
56.63
64.94
73.51
83.01
93.16
102.32
107.75
106.55
97.01
79.72
57.65
35.11
16.16
3.15
-3.73
-5.89
-5.12
-2.69
0.84
5.28
10.27
15.16
19.34
22.75
26.08
30.47
36.82
45.04
53.90
61.37
65.38
64.39
57.46
44.11
24.12
-2.10
-33.03
-65.45
-94.80
-116.28
-126.51
-124.82
-113.75
-98.28
-84.26
-76.59
-77.84
-87.68
-103.24
-120.09
-133.58
-140.12
-137.97
-127.36
-110.01
-88.33
-64.74
-41.35
-19.88
-1.77
11.94
20.87
25.57
27.42
28.25
29.57
32.04
35.30
38.33
40.11
40.23
39.12
37.72
36.95
37.18
37.97
38.33
37.23
34.19
29.62
25.04
22.65
24.64
32.13
44.34
58.48
70.51
76.70
75.13
66.66
54.60
43.39
36.90
37.13
43.76
54.68
66.91
77.54
84.38
86.30
83.21
75.87
65.48
53.24
39.98
26.08
11.40
-4.43
-21.87
-41.04
-61.12
-80.15
-95.07
-102.71
-101.03
-90.29
-73.34
-54.80
-39.19
-29.13
-24.51
-23.09
-22.23
-20.80
-20.10
-23.15
-32.92
-50.38
-73.45
-97.52
-117.10
-127.71
-127.23
-116.12
-96.49
-71.07
-42.36
-12.58
15.92
40.32
57.65
65.65
63.90
54.43
41.42
29.85
23.70
24.63
31.49
41.10
49.73
54.71
55.31
52.68
49.06
46.60
46.60
49.03
52.72
55.69
55.66
50.71
40.05
24.56
6.88
-9.24
-20.33
-24.66
-23.10
-18.91
-16.31
-18.45
-25.87
-36.11
-44.80
-47.49
-41.55
-27.01
-6.27
16.98
39.14
57.56
70.88
78.91
82.12
81.45
77.97
72.83
66.97
60.91
54.67
47.75
39.55
29.62
17.89
4.60
-9.84
-25.14
-41.24
-58.36
-76.86
-97.18
-119.38
-142.61
-164.74
-182.39
-191.97
-191.25
-180.70
-163.87
-146.09
-132.09
-123.76
-119.21
-113.91
-103.12
-84.35
-58.46
-28.92
0.03
25.25
45.58
61.42
73.58
82.52
88.10
90.26
89.66
88.04
87.80
91.22
99.49
112.30
127.98
144.11
158.20
168.30
173.16
172.38
166.26
155.70
141.94
126.30
109.82
93.10
76.33
59.28
41.53
22.54
1.79
-21.05
-45.75
-71.18
-95.15
-114.72
-127.02
-130.13
-123.81
-109.63
-90.44
-69.50
-49.65
-32.68
-19.27
-9.16
-1.64
4.06
8.33
11.06
11.69
9.52
4.06
-4.56
-15.49
-27.33
-38.44
-47.37
-53.38
-56.70
-58.68
-61.39
-67.04
-77.02
-91.14
-107.32
-121.95
-130.99
-131.35
-122.11
-104.90
-83.45
-62.33
-45.50
-35.19
-31.44
-32.35
-34.81
-35.47
-31.45
-20.99
-3.67
19.44
45.93
72.53
95.86
113.27
123.59
127.21
125.85
121.84
117.31
113.78
112.01
112.19
114.10
117.25
120.92
124.06
125.44
123.79
118.15
108.15
94.29
77.73
59.96
42.17
24.79
7.45
-10.69
-30.10
-50.24
-69.29
-84.53
-93.24
-93.63
-85.52
-70.31
-50.48
-28.88
-7.99
10.42
25.53
37.30
46.14
52.43
56.12
56.49
52.41
42.83
27.46
7.19
-15.90
-39.04
-59.45
-75.21
-85.68
-91.55
-94.58
-96.98
-100.68
-106.68
-114.63
-122.83
-128.65
-129.54
-124.06
-112.74
-98.10
-83.88
-73.64
-69.36
-70.58
-74.61
-77.60
-75.93
-67.46
-51.95
-30.70
-5.83
20.44
46.14
69.60
89.38
104.36
114.04
118.92
120.49
120.93
122.33
125.98
131.98
139.34
146.62
152.59
156.68
158.95
159.82
159.61
158.14
154.63
147.71
135.94
118.40
95.45
68.92
41.71
16.72
-4.39
-21.84
-37.35
-52.94
-69.60
-86.50
-101.36
-111.43
-114.60
-110.09
-98.43
-81.08
-60.16
-38.14
-17.65
-1.12
9.75
14.45
13.67
8.85
1.55
-7.16
-16.85
-27.47
-39.00
-51.10
-63.07
-73.94
-82.76
-88.86
-92.09
-92.94
-92.41
-91.82
-92.39
-94.92
-99.47
-105.13
-110.01
-111.68
-107.84
-97.24
-80.52
-60.25
-40.32
-24.60
-15.53
-13.40
-16.26
-20.87
-23.74
-22.12
-14.33
0.09
20.51
45.31
72.00
97.61
119.32
135.24
144.74
148.67
148.89
147.73
147.30
149.00
153.24
159.39
166.02
171.27
173.52
171.68
165.45
155.19
141.63
125.51
107.38
87.57
66.29
43.95
21.33
-0.37
-19.78
-35.85
-48.38
-58.18
-66.80
-75.71
-85.48
-95.23
-102.90
-106.03
-102.88
-93.07
-77.61
-58.44
-37.76
-17.52
0.72
15.72
26.58
32.82
34.61
32.64
27.92
21.30
13.16
3.40
-8.38
-22.36
-38.24
-55.25
-72.47
-89.27
-105.53
-121.46
-137.23
-152.41
-165.74
-175.29
-178.89
-174.76
-162.23
-142.09
-116.83
-90.28
-66.85
-50.21
-42.13
-41.50
-44.58
-46.18
-41.51
-28.02
-6.16
21.05
49.49
75.49
96.83
112.87
123.94
130.71
133.83
133.99
132.06
129.03
125.70
122.41
118.84
114.31
108.22
100.41
91.22
81.33
71.41
61.82
52.58
43.28
33.18
21.46
7.52
-8.59
-26.00
-43.23
-58.82
-71.98
-82.97
-92.75
-102.15
-111.07
-118.15
-121.22
-118.27
-108.38
-92.24
-71.85
-49.77
-28.30
-8.83
8.12
22.62
34.78
44.42
51.01
54.03
53.41
49.80
44.58
39.36
35.49
33.40
32.45
30.91
26.46
16.70
-0.03
-23.88
-52.94
-83.09
-108.76
-124.51
-127.05
-116.95
-99.10
-81.18
-70.79
-72.20
-84.46
-101.65
-115.48
-118.76
-108.22
-85.31
-54.99
-23.15
5.62
29.05
46.80
59.44
67.64
72.20
74.49
76.73
81.54
90.92
105.17
122.59
140.05
154.41
163.73
167.79
167.66
164.67
159.66
152.71
143.47
131.72
117.72
102.12
85.74
69.31
53.28
37.70
22.23
6.27
-10.82
-29.24
-48.47
-67.17
-83.57
-96.14
-104.17
-107.81
-107.72
-104.48
-98.33
-89.35
-77.97
-65.31
-53.09
-42.98
-35.87
-31.51
-28.81
-26.38
-23.34
-19.59
-15.66
-12.10
-8.95
-5.61
-1.06
5.71
15.25
27.41
41.33
55.57
68.40
78.15
83.73
85.00
83.05
79.93
77.90
78.48
81.81
86.57
90.90
93.58
94.57
94.63
94.45
94.05
92.92
90.81
88.07
85.19
81.47
74.17
59.14
33.30
-2.58
-42.70
-78.07
-100.63
-107.02
-99.88
-85.87
-71.69
-61.07
-54.19
-49.65
-47.04
-47.90
-54.68
-68.50
-87.47
-106.95
-121.57
-127.74
-124.88
-114.96
-100.82
-84.54
-66.89
-47.86
-27.71
-7.64
10.23
23.75
31.68
34.18
32.66
29.01
24.88
21.23
18.27
15.79
13.58
11.74
10.59
10.55
11.86
14.33
17.29
19.69
20.50
18.99
15.01
8.80
0.74
-9.02
-20.55
-33.79
-48.19
-62.45
-74.91
-84.30
-90.30
-93.77
-96.20
-98.81
-101.82
-104.38
-105.17
-103.28
-98.85
-93.02
-87.35
-83.03
-80.37
-78.78
-77.14
-74.40
-69.99
-63.99
-56.95
-49.57
-42.46
-35.95
-30.21
-25.24
-21.10
-17.83
-15.45
-13.81
-12.66
-11.70
-10.73
-9.74
-8.93
-8.49
-8.52
-8.78
-8.79
-7.94
-5.79
-2.22
2.45
7.66
12.75
17.23
20.78
23.33
24.91
25.63
25.78
25.71
25.89
26.69
28.22
30.30
32.51
34.43
35.76
36.41
36.37
35.59
33.95
31.36
27.78
23.40
18.49
13.36
8.24
3.30
-1.31
-5.49
-9.17
-12.52
-15.93
-19.93
-24.93
-30.84
-36.90
-41.72
-43.65
-41.30
-33.97
-22.04
-6.83
9.73
25.64
39.39
50.24
58.41
64.74
70.38
76.30
82.98
90.33
97.89
105.02
111.22
116.24
120.13
123.23
126.07
129.15
132.85
137.17
141.54
144.88
145.89
143.41
136.98
127.15
115.41
103.98
95.34
91.64
93.98
101.75
112.34
121.61
125.12
119.92
106.01
86.64
67.35
53.85
49.87
56.07
70.43
89.67
110.75
131.61
150.93
167.39
179.16
184.16
180.81
168.91
149.87
126.32
101.05
75.96
51.57
27.36
2.71
-22.21
-46.00
-66.57
-81.96
-91.14
-94.34
-92.79
-88.05
-81.43
-73.87
-66.15
-59.13
-53.67
-50.12
-47.79
-44.70
-38.09
-25.57
-6.27
18.31
44.50
67.46
82.75
87.89
83.05
70.78
54.72
38.06
22.48
8.01
-6.37
-21.73
-38.71
-57.55
-78.50
-101.78
-127.14
-153.07
-176.62
-194.17
-202.96
-202.53
-195.11
-184.65
-174.95
-168.17
-164.35
-162.25
-160.57
-158.77
-156.99
-155.30
-153.16
-149.33
-142.66
-132.74
-120.24
-106.46
-92.70
-79.71
-67.56
-55.96
-44.72
-34.00
-24.20
-15.75
-8.80
-3.27
1.11
4.61
7.28
9.01
9.42
8.03
4.42
-1.65
-10.00
-20.00
-30.66
-40.93
-49.99
-57.43
-63.24
-67.63
-70.87
-73.06
-74.20
-74.13
-72.67
-69.72
-65.28
-59.56
-53.01
-46.27
-40.06
-35.05
-31.63
-29.86
-29.42
-29.80
-30.47
-31.03
-31.32
-31.38
-31.28
-31.05
-30.55
-29.62
-28.18
-26.32
-24.29
-22.39
-20.75
-19.45
-18.57
-18.40
-19.42
-22.10
-26.62
-32.71
-39.59
-46.28
-52.00
-56.38
-59.57
-62.10
-64.54
-67.41
-70.97
-75.23
-79.90
-84.38
-87.63
-88.25
-84.78
-76.23
-62.71
-45.79
-28.17
-12.92
-2.36
2.79
3.58
2.25
1.31
2.64
7.04
14.37
23.99
35.17
47.18
59.26
70.51
80.00
87.02
91.31
93.17
93.24
92.31
90.97
89.47
87.79
85.89
83.74
81.36
78.67
75.30
70.71
64.39
56.20
46.50
36.14
25.98
16.44
7.30
-2.38
-13.75
-27.80
-44.72
-63.72
-82.83
-99.04
-108.77
-108.56
-96.17
-71.55
-37.25
1.88
39.73
70.53
90.14
96.86
91.43
76.38
55.06
30.84
6.61
-15.34
-33.24
-45.71
-51.89
-51.64
-45.66
-35.35
-22.51
-8.66
5.39
19.63
34.40
49.67
64.43
76.64
83.86
84.24
77.34
64.50
48.26
31.31
15.35
0.45
-14.90
-32.97
-55.64
-83.59
-115.85
-150.12
-183.21
-211.77
-232.84
-244.36
-245.54
-237.06
-221.04
-200.57
-179.04
-159.13
-142.12
-127.45
-113.09
-96.29
-74.66
-47.12
-14.31
21.64
57.78
91.20
119.62
141.65
156.70
164.84
166.81
164.05
158.68
153.04
149.08
147.61
147.94
148.20
146.24
140.65
131.46
120.18
108.99
99.80
93.35
88.92
84.58
77.77
65.87
46.84
19.76
-14.38
-52.15
-87.85
-114.82
-127.54
-123.90
-106.19
-80.38
-53.62
-31.52
-16.33
-7.02
-0.90
4.45
9.88
14.96
18.95
21.89
24.82
29.28
36.21
45.40
55.51
64.84
72.03
76.65
79.18
80.44
81.00
80.70
78.56
73.20
63.42
48.83
30.10
8.85
-12.72
-32.43
-48.64
-60.52
-68.06
-72.03
-73.60
-74.24
-75.40
-78.48
-84.38
-93.25
-104.16
