1660932107.00
64.000000
-0.00
-0.00
-0.00
-0.00
-0.00
-0.00
-0.00
-0.00
-0.00
-0.00
0.00
0.01
0.01
-0.00
-0.03
-0.05
-0.05
0.00
0.13
0.36
0.66
1.01
1.37
1.72
2.06
2.40
2.79
3.25
3.81
4.44
5.10
5.73
6.32
6.90
7.51
8.25
9.15
10.28
11.54
12.79
13.92
14.89
15.78
16.79
18.13
19.97
22.48
25.45
28.59
31.59
34.33
36.92
39.74
43.24
47.72
53.52
60.21
67.21
73.98
80.23
86.16
92.39
99.69
108.53
119.30
131.30
143.60
155.32
166.07
176.18
186.58
198.75
211.30
226.17
243.53
263.18
283.87
302.99
316.73
320.98
312.65
290.72
257.03
214.74
167.64
118.83
70.24
22.79
-22.96
-66.42
-106.95
-144.05
-178.27
-210.93
-243.77
-278.21
-314.41
-350.70
-383.54
-408.49
-421.52
-420.70
-406.93
-383.68
-355.51
-326.46
-298.88
-273.31
-249.26
-226.09
-203.87
-183.20
-164.66
-148.34
-133.68
-119.75
-105.79
-91.56
-77.38
-64.03
-52.32
-42.70
-35.04
-28.71
-22.86
-16.80
-10.28
-3.60
2.60
7.72
11.47
14.01
15.83
17.47
19.26
21.24
23.20
24.83
25.95
26.54
26.75
26.81
26.89
27.05
27.22
27.23
26.93
26.24
25.20
23.96
22.68
21.50
20.49
19.71
19.15
18.84
18.72
18.72
18.68
18.49
18.05
17.40
16.65
15.95
15.39
14.98
14.63
14.24
13.76
13.20
12.60
12.04
11.56
11.18
10.86
10.59
10.34
10.09
9.82
9.54
9.22
8.89
8.59
8.37
8.26
8.27
8.34
8.40
8.42
8.36
8.19
7.86
7.32
6.57
5.67
4.79
4.09
3.73
3.68
3.79
3.82
3.58
3.04
2.33
1.64
1.16
0.94
0.86
0.76
0.54
0.17
-0.27
-0.70
-1.10
-1.52
-2.07
-2.82
-3.70
-4.59
-5.34
-5.86
-6.21
-6.51
-6.87
-7.36
-7.93
-8.49
-8.98
-9.34
-9.57
-9.70
-9.70
-9.56
-9.23
-8.72
-8.03
-7.23
-6.33
-5.40
-4.48
-3.67
-3.05
-2.67
-2.51
-2.47
-2.39
-2.15
-1.69
-1.07
-0.40
0.20
0.66
0.99
1.22
1.40
1.57
1.72
1.86
1.99
2.09
2.17
2.22
2.27
2.38
2.57
2.85
3.17
3.46
3.65
3.73
3.74
3.71
3.66
3.58
3.45
3.28
3.14
3.10
3.21
3.45
3.73
3.97
4.16
4.29
4.40
4.50
4.52
4.43
4.22
3.96
3.75
3.70
3.81
4.01
4.20
4.26
4.13
3.83
3.43
3.05
2.80
2.74
2.86
3.10
3.40
3.69
3.92
4.05
4.04
3.86
3.50
3.02
2.49
2.02
1.70
1.55
1.54
1.59
1.64
1.68
1.69
1.71
1.73
1.76
1.79
1.82
1.83
1.81
1.76
1.69
1.67
1.72
1.86
2.07
2.25
2.31
2.18
1.87
1.49
1.17
1.04
1.14
1.42
1.73
1.93
1.94
1.75
1.44
1.09
0.74
0.42
0.12
-0.14
-0.27
-0.18
0.18
0.77
1.40
1.87
2.01
1.77
1.30
0.82
0.57
0.64
0.97
1.39
1.71
1.80
1.70
1.51
1.33
1.22
1.13
1.02
0.84
0.65
0.49
0.40
0.37
0.33
0.25
0.12
0.01
-0.00
0.15
0.44
0.79
1.09
1.27
1.30
1.20
1.05
0.89
0.75
0.61
0.44
0.23
0.03
-0.04
0.10
0.48
0.98
1.40
1.56
1.39
1.00
0.59
0.35
0.33
0.45
0.53
0.47
0.26
0.02
-0.10
-0.00
0.28
0.65
0.96
1.11
1.09
0.95
0.74
0.54
0.37
0.25
0.20
0.23
0.31
0.40
0.42
0.33
0.13
-0.12
-0.31
-0.37
-0.28
-0.07
0.17
0.40
0.57
0.70
0.79
0.86
0.89
0.88
0.83
0.79
0.78
0.81
0.86
0.87
0.80
0.66
0.50
0.42
0.46
0.59
0.72
0.75
0.64
0.45
0.28
0.23
0.34
0.53
0.70
0.77
0.72
0.59
0.45
0.35
0.29
0.28
0.29
0.31
0.32
0.33
0.32
0.28
0.20
0.08
-0.06
-0.16
-0.17
-0.05
0.23
0.60
0.98
1.24
1.30
1.15
0.84
0.48
0.15
-0.11
-0.28
-0.34
-0.26
-0.04
0.34
0.84
1.34
1.71
1.85
1.73
1.42
1.10
0.90
0.93
1.16
1.45
1.64
1.62
1.41
1.08
0.77
0.57
0.45
0.34
0.18
-0.03
-0.21
-0.25
-0.13
0.09
0.25
0.22
-0.04
-0.46
-0.89
-1.21
-1.37
-1.39
-1.38
-1.44
-1.61
-1.88
-2.20
-2.45
-2.54
-2.39
-2.01
-1.49
-0.93
-0.46
-0.13
0.04
0.07
-0.01
-0.17
-0.39
-0.64
-0.85
-0.94
-0.85
-0.54
-0.06
0.48
0.97
1.33
1.53
1.62
1.68
1.77
1.91
2.09
2.22
2.27
2.19
1.99
1.68
1.27
0.80
0.33
-0.07
-0.35
-0.46
-0.41
-0.23
0.01
0.24
0.42
0.49
0.46
0.36
0.21
0.06
-0.05
-0.11
-0.13
-0.15
-0.16
-0.17
-0.21
-0.27
-0.37
-0.50
-0.61
-0.64
-0.51
-0.21
0.20
0.60
0.86
0.90
0.73
0.44
0.16
-0.01
-0.02
0.08
0.22
0.34
0.38
0.35
0.25
0.08
-0.15
-0.42
-0.67
-0.82
-0.82
-0.65
-0.35
-0.04
0.18
0.23
0.12
-0.09
-0.30
-0.42
-0.39
-0.21
0.04
0.28
0.44
0.48
0.39
0.25
0.11
0.05
0.09
0.26
0.50
0.76
0.94
0.97
0.82
0.53
0.20
-0.09
-0.28
-0.39
-0.44
-0.49
-0.53
-0.52
-0.38
-0.07
0.38
0.84
1.17
1.24
1.00
0.54
-0.01
-0.48
-0.74
-0.78
-0.64
-0.43
-0.20
0.01
0.21
0.38
0.50
0.51
0.43
0.30
0.22
0.26
0.42
0.61
0.71
0.67
0.51
0.31
0.18
0.14
0.13
0.07
-0.11
-0.37
-0.65
-0.85
-0.93
-0.90
-0.82
-0.74
-0.66
-0.54
-0.35
-0.10
0.16
0.35
0.42
0.35
0.17
-0.04
-0.24
-0.35
-0.35
-0.22
0.01
0.29
0.55
0.70
0.70
0.53
0.28
0.03
-0.11
-0.08
0.12
0.45
0.76
0.94
0.89
0.60
0.12
-0.40
-0.82
-1.05
-1.03
-0.82
-0.49
-0.11
0.25
0.53
0.68
0.68
0.54
0.29
0.03
-0.14
-0.17
-0.05
0.17
0.42
0.63
0.72
0.67
0.47
0.17
-0.16
-0.44
-0.58
-0.55
-0.36
-0.07
0.23
0.44
0.50
0.40
0.18
-0.10
-0.32
-0.37
-0.18
0.23
0.81
1.41
1.92
2.24
2.34
2.22
1.95
1.59
1.22
0.91
0.74
0.75
0.93
1.20
1.43
1.49
1.32
0.93
0.42
-0.11
-0.54
-0.85
-1.02
-1.08
-1.06
-1.02
-1.01
-1.09
-1.32
-1.72
-2.26
-2.90
-3.58
-4.23
-4.86
-5.47
-6.10
-6.73
-7.29
-7.63
-7.60
-7.13
-6.32
-5.42
-4.75
-4.57
-4.93
-5.67
-6.52
-7.24
-7.75
-8.05
-8.26
-8.48
-8.78
-9.25
-9.99
-11.12
-12.75
-14.94
-17.61
-20.68
-24.06
-27.75
-31.79
-36.27
-41.16
-46.30
-51.50
-56.57
-61.52
-66.57
-72.11
-78.49
-85.85
-94.01
-102.48
-110.79
-118.62
-125.98
-133.22
-140.83
-149.26
-158.71
-169.17
-180.25
-190.99
-199.74
-204.25
-201.93
-190.71
-169.67
-139.28
-101.13
-57.27
-9.67
39.98
89.96
138.12
181.75
218.06
244.97
261.97
270.37
272.90
272.73
272.45
273.41
275.68
278.41
280.64
281.82
282.23
282.79
284.67
288.78
295.30
303.56
312.15
319.08
322.08
318.96
308.06
288.59
260.92
226.37
186.87
144.21
99.44
52.76
3.91
-46.86
-97.96
-146.10
-187.00
-216.77
-233.41
-237.54
-232.10
-221.07
-207.98
-194.87
-182.34
-170.20
-158.36
-147.27
-137.70
-130.14
-124.33
-119.30
-113.75
-106.77
-98.22
-88.73
-79.43
-71.36
-65.05
-60.33
-56.45
-52.49
-47.76
-42.15
-36.08
-30.33
-25.59
-22.17
-19.88
-18.20
-16.54
-14.55
-12.28
-10.08
-8.42
-7.69
-7.96
-9.02
-10.38
-11.49
-11.94
-11.57
-10.58
-9.42
-8.65
-8.69
-9.67
-11.28
-12.94
-13.97
-13.83
-12.40
-9.97
-7.17
-4.76
-3.31
-3.03
-3.73
-4.89
-5.77
-5.48
-3.20
1.56
8.58
16.75
24.22
28.94
29.52
25.88
19.29
11.88
5.73
2.07
0.96
1.59
2.90
4.09
4.85
5.22
5.29
5.05
4.39
3.17
1.41
-0.68
-2.72
-4.30
-5.16
-5.25
-4.79
-4.13
-3.64
-3.49
-3.58
-3.63
-3.30
-2.43
-1.15
0.23
1.28
1.73
1.51
0.78
-0.20
-1.14
-1.88
-2.33
-2.53
-2.53
-2.41
-2.23
-2.05
-1.88
-1.76
-1.68
-1.66
-1.69
-1.76
-1.83
-1.88
-1.89
-1.85
-1.78
-1.69
-1.57
-1.43
-1.25
-1.03
-0.77
-0.47
-0.11
0.33
0.88
1.54
2.23
2.87
3.35
3.61
3.65
3.49
3.18
2.71
2.07
1.20
0.12
-1.07
-2.23
-3.15
-3.68
-3.75
-3.43
-2.89
-2.36
-2.04
-2.04
-2.33
-2.76
-3.20
-3.53
-3.75
-3.92
-4.12
-4.40
-4.75
-5.07
-5.19
-4.99
-4.31
-3.11
-1.37
0.87
3.46
6.17
8.64
10.49
11.38
11.21
10.13
8.56
6.96
5.67
4.75
4.03
3.26
2.29
1.22
0.27
-0.32
-0.46
-0.32
-0.18
-0.30
-0.78
-1.53
-2.32
-2.95
-3.30
-3.41
-3.40
-3.36
-3.27
-3.03
-2.53
-1.73
-0.72
0.33
1.18
1.68
1.78
1.51
0.98
0.33
-0.30
-0.81
-1.14
-1.29
-1.32
-1.29
-1.24
-1.20
-1.15
-1.11
-1.12
-1.30
-1.70
-2.36
-3.15
-3.90
-4.38
-4.47
-4.17
-3.58
-2.88
-2.20
-1.57
-0.95
-0.27
0.50
1.35
2.30
3.42
4.78
6.43
8.22
9.84
10.84
10.86
9.83
8.01
5.87
3.94
2.53
1.64
1.06
0.53
-0.10
-0.82
-1.48
-1.92
-2.13
-2.17
-2.18
-2.26
-2.41
-2.59
-2.74
-2.83
-2.88
-2.95
-3.04
-3.12
-3.10
-2.94
-2.59
-2.06
-1.38
-0.62
0.17
0.89
1.43
1.68
1.58
1.20
0.67
0.19
-0.10
-0.16
-0.08
-0.03
-0.17
-0.53
-1.04
-1.52
-1.83
-1.91
-1.82
-1.73
-1.75
-1.93
-2.17
-2.29
-2.17
-1.83
-1.40
-1.11
-1.09
-1.31
-1.61
-1.74
-1.51
-0.89
0.04
1.13
2.28
3.41
4.47
5.34
5.88
5.92
5.45
4.60
3.60
2.71
2.04
1.55
1.10
0.57
-0.02
-0.55
-0.83
-0.79
-0.54
-0.30
-0.32
-0.72
-1.45
-2.29
-2.95
-3.22
-3.00
-2.41
-1.63
-0.92
-0.43
-0.17
-0.06
0.07
0.33
0.69
1.02
1.15
1.00
0.64
0.24
-0.01
-0.04
0.09
0.21
0.13
-0.21
-0.75
-1.31
-1.71
-1.84
-1.71
-1.48
-1.36
-1.52
-2.05
-2.86
-3.73
-4.41
-4.73
-4.65
-4.31
-3.93
-3.68
-3.61
-3.66
-3.71
-3.65
-3.40
-2.87
-1.91
-0.33
1.98
4.86
7.92
10.52
12.05
12.19
11.07
9.20
7.22
5.63
4.53
3.73
2.95
2.00
0.96
0.12
-0.22
-0.01
0.57
1.09
1.18
0.65
-0.37
-1.52
-2.43
-2.89
-2.90
-2.66
-2.38
-2.19
-2.08
-1.93
-1.64
-1.17
-0.56
0.06
0.58
0.89
0.96
0.80
0.46
0.01
-0.50
-1.02
-1.52
-1.98
-2.35
-2.58
-2.60
-2.36
-1.88
-1.22
-0.50
0.15
0.66
1.00
1.17
1.17
0.99
0.63
0.13
-0.46
-1.05
-1.54
-1.85
-1.85
-1.43
-0.47
1.02
2.81
4.48
5.53
5.68
4.95
3.72
2.52
1.74
1.44
1.39
1.23
0.73
-0.11
-1.04
-1.75
-2.03
-1.88
-1.46
-1.01
-0.73
-0.70
-0.92
-1.30
-1.75
-2.20
-2.59
-2.92
-3.14
-3.17
-2.93
-2.39
-1.60
-0.69
0.17
0.85
1.27
1.49
1.53
1.47
1.30
1.04
0.70
0.33
-0.00
-0.23
-0.34
-0.39
-0.45
-0.58
-0.78
-0.93
-0.93
-0.67
-0.20
0.32
0.67
0.62
0.07
-0.94
-2.23
-3.54
-4.58
-5.14
-5.11
-4.57
-3.78
-3.07
-2.74
-2.89
-3.36
-3.84
-4.00
-3.75
-3.28
-3.03
-3.43
-4.71
-6.78
-9.20
-11.25
-12.14
-11.26
-8.36
-3.67
2.20
8.42
14.06
18.27
20.44
20.40
18.59
15.97
13.57
12.15
11.70
11.60
11.02
9.51
7.40
5.60
5.04
6.00
7.77
9.01
8.54
5.91
1.69
-2.93
-6.80
-9.24
-10.28
-10.41
-10.18
-9.92
-9.56
-8.85
-7.60
-5.87
-4.04
-2.60
-1.94
-2.14
-2.92
-3.80
-4.35
-4.36
-3.97
-3.53
-3.45
-3.99
-5.14
-6.65
-8.10
-9.12
-9.43
-9.00
-7.98
-6.69
-5.39
-4.22
-3.12
-1.85
-0.18
1.97
4.40
6.63
8.14
8.59
7.98
6.70
5.34
4.43
4.27
4.77
5.59
6.31
6.63
6.47
5.96
5.34
4.83
4.48
4.18
3.77
3.11
2.22
1.21
0.20
-0.74
-1.68
-2.73
-3.94
-5.25
-6.46
-7.37
-7.89
-8.12
-8.34
-8.83
-9.67
-10.74
-11.74
-12.37
-12.58
-12.64
-13.02
-14.21
-16.41
-19.39
-22.55
-25.16
-26.73
-27.25
-27.26
-27.69
-29.47
-33.17
-38.80
-45.72
-52.80
-58.67
-62.28
-63.31
-62.58
-61.92
-63.59
-69.27
-79.31
-92.51
-106.59
-119.30
-129.43
-137.29
-144.45
-152.95
-164.50
-179.75
-198.03
-217.21
-234.04
-244.75
-245.98
-235.85
-214.56
-184.21
-147.87
-108.35
-67.16
-24.34
20.94
69.19
119.46
168.99
213.75
249.75
274.49
287.78
291.67
289.43
284.16
277.72
270.57
262.51
253.65
245.06
238.45
235.32
236.01
239.37
243.23
245.52
245.19
242.60
239.27
237.00
237.14
240.13
245.51
252.15
258.45
262.49
262.20
255.60
241.38
219.25
190.09
155.60
117.58
77.18
34.47
-11.13
-59.88
-110.56
-159.97
-203.45
-236.35
-255.75
-261.60
-256.62
-244.99
-230.74
-216.37
-202.63
-189.20
-175.71
-162.46
-150.28
-139.99
-131.67
-124.56
-117.42
-109.22
-99.65
-89.22
-79.03
-70.18
-63.23
-58.09
-54.03
-50.13
-45.65
-40.41
-34.75
-29.35
-24.85
-21.57
-19.38
-17.79
-16.22
-14.27
-11.88
-9.32
-7.05
-5.45
-4.68
-4.59
-4.86
-5.11
-5.09
-4.74
-4.17
-3.59
-3.17
-3.03
-3.17
-3.48
-3.76
-3.80
-3.43
-2.59
-1.32
0.25
1.95
3.59
5.02
6.06
6.60
6.58
6.07
5.27
4.45
3.84
3.54
3.55
3.78
4.19
4.75
5.40
6.06
6.59
6.84
6.74
6.30
5.64
4.88
4.11
3.35
2.58
1.75
0.88
-0.00
-0.83
-1.55
-2.15
-2.63
-3.04
-3.40
-3.74
-4.00
-4.13
-4.08
-3.83
-3.41
-2.93
-2.49
-2.19
-2.09
-2.16
-2.30
-2.40
-2.38
-2.21
-1.92
-1.62
-1.41
-1.33
-1.37
-1.46
-1.52
-1.49
-1.36
-1.14
-0.90
-0.69
-0.56
-0.55
-0.65
-0.79
-0.91
-0.94
-0.88
-0.73
-0.54
-0.34
-0.15
0.00
0.12
0.21
0.28
0.37
0.49
0.64
0.78
0.86
0.83
0.69
0.45
0.16
-0.11
-0.33
-0.45
-0.46
-0.37
-0.22
-0.09
-0.05
-0.16
-0.36
-0.59
-0.73
-0.72
-0.55
-0.29
-0.02
0.18
0.28
0.27
0.19
0.05
-0.11
-0.28
-0.45
-0.60
-0.71
-0.76
-0.75
-0.70
-0.67
-0.69
-0.77
-0.82
-0.75
-0.51
-0.10
0.36
0.74
0.94
0.98
0.92
0.84
0.77
0.68
0.59
0.57
0.71
1.07
1.57
2.02
2.18
1.96
1.47
0.96
0.68
0.68
0.81
0.83
0.55
-0.01
-0.64
-1.12
-1.26
-1.07
-0.68
-0.25
0.11
0.34
0.43
0.39
0.22
-0.07
-0.43
-0.77
-0.99
-1.06
-0.99
-0.86
-0.76
-0.76
-0.85
-0.99
-1.11
-1.16
-1.14
-1.05
-0.91
-0.72
-0.47
-0.17
0.15
0.46
0.70
0.86
0.96
1.04
1.11
1.15
1.11
0.98
0.81
0.66
0.59
0.58
0.56
0.44
0.21
-0.11
-0.41
-0.62
-0.70
-0.69
-0.66
-0.64
-0.62
-0.59
-0.54
-0.49
-0.52
-0.67
-0.94
