1660320579.00
64.000000
-0.00
-0.00
-0.00
-0.00
-0.00
-0.00
-0.00
-0.00
-0.00
-0.00
0.00
0.01
0.01
-0.00
-0.03
-0.05
-0.05
0.00
0.13
0.36
0.66
1.01
1.37
1.72
2.06
2.40
2.79
3.24
3.80
4.42
5.06
5.66
6.20
6.68
7.15
7.68
8.31
9.14
10.09
11.04
11.88
12.56
13.14
13.76
14.66
15.97
17.92
20.31
22.90
25.37
27.59
29.60
31.73
34.38
37.83
42.46
47.92
53.69
59.25
64.25
68.78
73.31
78.50
84.82
92.79
101.90
111.36
120.33
128.28
135.26
141.85
149.31
156.27
164.94
175.91
189.35
204.17
217.56
225.20
222.39
205.58
173.69
128.99
75.33
17.22
-41.84
-100.03
-157.00
-213.03
-268.16
-321.98
-373.27
-421.10
-464.42
-502.11
-532.81
-554.92
-566.93
-567.63
-556.63
-534.15
-501.39
-459.95
-411.73
-358.68
-302.73
-245.79
-189.64
-136.01
-86.43
-42.48
-5.47
24.11
47.14
66.16
84.88
106.92
134.21
166.03
199.07
228.85
251.51
265.21
270.33
268.63
262.10
252.13
239.42
224.50
208.25
191.90
176.62
163.02
150.88
139.40
127.67
115.20
102.15
89.27
77.50
67.53
59.54
53.16
47.67
42.32
36.77
30.92
25.00
19.44
14.65
10.82
7.93
5.75
4.01
2.43
0.85
-0.73
-2.22
-3.52
-4.56
-5.38
-6.08
-6.75
-7.41
-8.00
-8.35
-8.29
-7.78
-6.92
-5.96
-5.15
-4.68
-4.62
-4.93
-5.50
-6.16
-6.69
-6.93
-6.73
-6.14
-5.34
-4.63
-4.24
-4.22
-4.43
-4.58
-4.48
-4.06
-3.45
-2.86
-2.45
-2.24
-2.10
-1.89
-1.53
-1.04
-0.56
-0.27
-0.27
-0.57
-1.02
-1.47
-1.76
-1.82
-1.70
-1.50
-1.32
-1.16
-1.01
-0.80
-0.54
-0.29
-0.12
-0.11
-0.26
-0.50
-0.73
-0.84
-0.76
-0.49
-0.02
0.56
1.20
1.82
2.38
2.89
3.36
3.85
4.37
4.94
5.53
6.08
6.52
6.74
6.68
6.25
5.48
4.33
2.84
1.11
-0.73
-2.52
-4.12
-5.46
-6.51
-7.32
-7.94
-8.37
-8.58
-8.50
-8.13
-7.51
-6.78
-6.09
-5.51
-5.04
-4.61
-4.13
-3.58
-3.02
-2.49
-2.06
-1.75
-1.54
-1.45
-1.49
-1.69
-2.03
-2.44
-2.79
-2.93
-2.75
-2.26
-1.52
-0.70
0.08
0.68
1.06
1.24
1.25
1.14
0.93
0.63
0.22
-0.26
-0.73
-1.08
-1.19
-0.98
-0.50
0.09
0.54
0.66
0.36
-0.25
-0.96
-1.52
-1.76
-1.70
-1.45
-1.16
-0.99
-1.00
-1.17
-1.44
-1.77
-2.19
-2.74
-3.49
-4.39
-5.31
-6.04
-6.38
-6.23
-5.60
-4.64
-3.50
-2.29
-1.04
0.26
1.55
2.76
3.76
4.44
4.79
4.88
4.79
4.56
4.18
3.64
2.99
2.35
1.87
1.64
1.66
1.80
1.94
1.97
1.88
1.67
1.38
0.97
0.43
-0.23
-0.92
-1.52
-1.94
-2.17
-2.32
-2.55
-2.99
-3.65
-4.44
-5.17
-5.66
-5.79
-5.50
-4.83
-3.86
-2.70
-1.50
-0.41
0.39
0.83
0.95
0.90
0.91
1.13
1.61
2.25
2.85
3.25
3.39
3.35
3.25
3.20
3.20
3.20
3.12
2.92
2.62
2.28
1.93
1.58
1.18
0.71
0.14
-0.45
-0.99
-1.42
-1.77
-2.11
-2.55
-3.14
-3.85
-4.54
-5.09
-5.36
-5.34
-5.06
-4.58
-3.92
-3.12
-2.14
-1.02
0.16
1.30
2.28
3.00
3.47
3.72
3.86
3.94
4.01
4.04
3.96
3.72
3.32
2.80
2.26
1.77
1.33
0.91
0.43
-0.13
-0.75
-1.34
-1.86
-2.27
-2.59
-2.91
-3.30
-3.81
-4.44
-5.17
-5.93
-6.69
-7.46
-8.29
-9.24
-10.30
-11.36
-12.19
-12.56
-12.29
-11.34
-9.79
-7.83
-5.62
-3.30
-0.90
1.52
3.88
6.05
7.85
9.15
9.94
10.30
10.39
10.37
10.35
10.32
10.25
10.09
9.85
9.55
9.23
8.87
8.43
7.84
7.06
6.15
5.19
4.34
3.68
3.25
2.98
2.74
2.40
1.89
1.23
0.50
-0.19
-0.79
-1.30
-1.79
-2.31
-2.86
-3.37
-3.74
-3.87
-3.72
-3.27
-2.58
-1.70
-0.68
0.38
1.41
2.31
2.98
3.38
3.52
3.43
3.21
2.92
2.66
2.50
2.45
2.53
2.65
2.74
2.69
2.48
2.15
1.80
1.55
1.45
1.45
1.41
1.22
0.80
0.21
-0.43
-1.00
-1.45
-1.79
-2.10
-2.41
-2.76
-3.13
-3.49
-3.82
-4.10
-4.25
-4.19
-3.84
-3.20
-2.37
-1.52
-0.80
-0.29
0.03
0.31
0.68
1.18
1.74
2.23
2.54
2.63
2.56
2.42
2.30
2.23
2.21
2.18
2.12
2.01
1.83
1.59
1.28
0.93
0.59
0.30
0.08
-0.11
-0.34
-0.68
-1.15
-1.70
-2.23
-2.65
-2.95
-3.21
-3.54
-4.03
-4.66
-5.28
-5.69
-5.68
-5.18
-4.24
-3.04
-1.83
-0.80
-0.02
0.56
1.03
1.48
1.90
2.24
2.42
2.45
2.35
2.24
2.19
2.20
2.21
2.12
1.92
1.65
1.45
1.42
1.57
1.81
1.95
1.84
1.40
0.69
-0.16
-0.96
-1.56
-1.88
-1.97
-1.91
-1.86
-1.94
-2.23
-2.70
-3.29
-3.89
-4.40
-4.75
-4.90
-4.79
-4.40
-3.71
-2.73
-1.58
-0.41
0.61
1.35
1.77
1.89
1.82
1.65
1.51
1.46
1.53
1.71
1.96
2.17
2.24
2.12
1.84
1.53
1.32
1.27
1.38
1.51
1.51
1.32
0.97
0.56
0.18
-0.17
-0.55
-1.06
-1.72
-2.45
-3.08
-3.49
-3.68
-3.76
-3.87
-4.08
-4.33
-4.43
-4.23
-3.67
-2.80
-1.75
-0.66
0.36
1.27
2.03
2.60
2.96
3.07
2.97
2.73
2.46
2.28
2.27
2.42
2.65
2.88
3.01
3.02
2.93
2.78
2.58
2.31
1.94
1.47
0.96
0.48
0.08
-0.27
-0.62
-1.03
-1.54
-2.10
-2.64
-3.15
-3.66
-4.21
-4.82
-5.41
-5.79
-5.82
-5.41
-4.64
-3.71
-2.88
-2.30
-2.05
-2.04
-2.12
-2.19
-2.21
-2.20
-2.23
-2.33
-2.49
-2.72
-2.99
-3.32
-3.72
-4.17
-4.60
-4.93
-5.03
-4.81
-4.20
-3.19
-1.84
-0.27
1.35
2.84
4.06
4.96
5.57
5.94
6.09
5.98
5.53
4.70
3.55
2.30
1.23
0.61
0.59
1.10
1.95
2.87
3.64
4.13
4.33
4.33
4.24
4.17
4.19
4.29
4.42
4.53
4.53
4.40
4.16
3.86
3.54
3.25
2.99
2.75
2.50
2.24
1.97
1.69
1.41
1.14
0.90
0.68
0.42
0.10
-0.35
-0.93
-1.62
-2.37
-3.10
-3.73
-4.17
-4.35
-4.26
-3.93
-3.43
-2.83
-2.19
-1.52
-0.83
-0.11
0.57
1.18
1.65
2.02
2.34
2.67
3.03
3.37
3.58
3.60
3.45
3.20
2.96
2.79
2.68
2.60
2.52
2.41
2.24
2.01
1.70
1.29
0.83
0.35
-0.13
-0.59
-1.07
-1.59
-2.13
-2.67
-3.18
-3.64
-4.07
-4.48
-4.82
-5.04
-5.03
-4.76
-4.26
-3.61
-2.88
-2.10
-1.25
-0.29
0.73
1.72
2.52
3.05
3.29
3.32
3.25
3.18
3.13
3.12
3.12
3.13
3.16
3.19
3.20
3.15
3.02
2.83
2.60
2.33
1.99
1.53
0.99
0.45
0.06
-0.09
-0.03
0.08
0.04
-0.29
-0.88
-1.58
-2.23
-2.75
-3.19
-3.66
-4.26
-4.93
-5.49
-5.72
-5.46
-4.71
-3.61
-2.38
-1.18
-0.14
0.70
1.34
1.78
2.05
2.19
2.28
2.42
2.66
3.00
3.37
3.69
3.89
3.95
3.90
3.78
3.63
3.46
3.28
3.11
2.96
2.85
2.76
2.65
2.48
2.24
1.91
1.51
1.05
0.54
-0.01
-0.56
-1.05
-1.43
-1.68
-1.81
-1.87
-1.95
-2.14
-2.48
-3.03
-3.74
-4.53
-5.25
-5.74
-5.84
-5.52
-4.81
-3.81
-2.69
-1.60
-0.63
0.15
0.74
1.18
1.49
1.72
1.87
1.96
2.00
2.02
2.06
2.18
2.36
2.56
2.72
2.77
2.66
2.44
2.13
1.80
1.49
1.24
1.07
1.00
1.02
1.08
1.12
1.03
0.76
0.27
-0.39
-1.15
-1.92
-2.64
-3.24
-3.69
-3.94
-3.99
-3.88
-3.67
-3.47
-3.33
-3.24
-3.10
-2.81
-2.27
-1.51
-0.61
0.30
1.12
1.81
2.33
2.66
2.75
2.58
2.16
1.61
1.09
0.75
0.67
0.81
1.03
1.16
1.09
0.79
0.36
-0.10
-0.48
-0.74
-0.92
-1.11
-1.39
-1.84
-2.48
-3.23
-4.01
-4.73
-5.33
-5.82
-6.23
-6.64
-7.12
-7.75
-8.52
-9.40
-10.25
-10.92
-11.25
-11.12
-10.53
-9.59
-8.46
-7.29
-6.12
-4.92
-3.57
-1.98
-0.17
1.80
3.78
5.65
7.29
8.65
9.68
10.42
10.90
11.21
11.44
11.63
11.73
11.63
11.21
10.42
9.37
8.26
7.29
6.59
6.15
5.85
5.54
5.14
4.65
4.15
3.70
3.33
3.02
2.70
2.33
1.88
1.33
0.69
-0.02
-0.72
-1.32
-1.71
-1.84
-1.70
-1.37
-0.94
-0.46
0.03
0.52
0.98
1.35
1.57
1.58
1.44
1.22
1.06
1.00
1.05
1.16
1.24
1.27
1.23
1.15
1.05
0.93
0.80
0.67
0.58
0.56
0.61
0.70
0.74
0.64
0.35
-0.10
-0.61
-1.04
-1.31
-1.46
-1.59
-1.84
-2.28
-2.89
-3.52
-4.02
-4.28
-4.31
-4.21
-4.13
-4.13
-4.15
-4.06
-3.76
-3.22
-2.55
-1.88
-1.33
-0.90
-0.51
-0.08
0.44
0.99
1.47
1.78
1.91
1.92
1.88
1.89
1.97
2.07
2.14
2.12
1.98
1.75
1.48
1.23
1.02
0.83
0.62
0.36
0.09
-0.14
-0.25
-0.22
-0.07
0.13
0.26
0.28
0.14
-0.17
-0.66
-1.36
-2.24
-3.18
-3.99
-4.45
-4.41
-3.85
-2.93
-1.90
-1.00
-0.38
-0.08
-0.03
-0.13
-0.31
-0.48
-0.61
-0.67
-0.66
-0.61
-0.60
-0.69
-0.93
-1.31
-1.80
-2.28
-2.69
-2.95
-3.08
-3.14
-3.17
-3.22
-3.27
-3.27
-3.20
-3.09
-3.07
-3.24
-3.66
-4.24
-4.81
-5.17
-5.19
-4.92
-4.52
-4.16
-3.92
-3.75
-3.47
-2.92
-2.04
-0.90
0.34
1.50
2.45
3.17
3.65
3.96
4.17
4.35
4.61
5.04
5.68
6.45
7.21
7.78
8.02
7.93
7.59
7.08
6.53
5.98
5.47
5.05
4.80
4.77
4.92
5.10
5.14
4.88
4.33
3.64
3.05
2.71
2.58
2.42
1.92
0.92
-0.43
-1.73
-2.49
-2.39
-1.49
-0.17
1.04
1.79
1.98
1.85
1.69
1.73
1.97
2.27
2.46
2.45
2.29
2.08
1.89
1.71
1.48
1.16
0.75
0.35
0.08
0.02
0.14
0.33
0.44
0.35
-0.01
-0.59
-1.28
-1.97
-2.54
-2.96
-3.24
-3.46
-3.68
-3.95
-4.27
-4.60
-4.89
-5.12
-5.30
-5.47
-5.65
-5.86
-6.03
-6.08
-5.89
-5.41
-4.64
-3.66
-2.63
-1.71
-0.99
-0.50
-0.18
0.08
0.36
0.68
1.00
1.23
1.31
1.26
1.15
1.04
0.97
0.89
0.75
0.48
0.11
-0.30
-0.63
-0.83
-0.91
-0.89
-0.84
-0.77
-0.69
-0.58
-0.44
-0.33
-0.31
-0.48
-0.89
-1.53
-2.32
-3.12
-3.75
-4.06
-3.98
-3.58
-3.02
-2.50
-2.10
-1.80
-1.47
-1.00
-0.40
0.23
0.75
1.07
1.23
1.37
1.62
2.01
2.46
2.78
2.89
2.76
2.53
2.31
2.17
2.06
1.86
1.47
0.91
0.26
-0.35
-0.81
-1.08
-1.19
-1.21
-1.16
-1.08
-0.98
-0.90
-0.91
-1.07
-1.40
-1.85
-2.27
-2.50
-2.42
-1.98
-1.25
-0.33
0.64
1.57
2.43
3.23
3.96
4.62
5.18
5.68
6.19
6.80
7.57
8.53
9.57
10.52
11.20
11.45
11.24
10.64
9.84
9.06
8.53
8.33
8.47
8.79
9.13
9.28
9.12
8.58
7.67
6.47
5.08
3.63
2.28
1.13
0.20
-0.56
-1.24
-1.92
-2.61
-3.27
-3.81
-4.19
-4.37
-4.42
-4.44
-4.57
-4.85
-5.31
-5.85
-6.35
-6.66
-6.70
-6.44
-5.89
-5.10
-4.09
-2.90
-1.60
-0.29
0.93
2.02
2.99
3.95
4.97
6.09
7.23
8.26
9.07
9.61
9.96
10.26
10.62
11.02
11.29
11.11
10.18
8.31
5.55
2.17
-1.37
-4.55
-6.98
-8.46
-9.06
-9.06
-8.86
-8.81
-9.10
-9.64
-10.16
-10.28
-9.75
-8.56
-6.97
-5.42
-4.41
-4.31
-5.27
-7.14
-9.55
-11.90
-13.61
-14.22
-13.62
-12.05
-10.06
-8.35
-7.46
-7.63
-8.75
-10.47
-12.41
-14.41
-16.58
-19.23
-22.71
-27.15
-32.34
-37.74
-42.61
-46.19
-47.85
-47.13
-43.70
-37.45
-28.47
-17.22
-4.53
8.43
20.41
30.34
37.53
41.84
43.58
43.39
41.95
39.84
37.42
34.83
32.06
29.07
25.84
22.47
19.10
15.89
12.95
10.30
7.93
5.78
3.83
2.07
0.55
-0.74
-1.82
-2.79
-3.76
-4.82
-5.96
-7.07
-8.02
-8.69
-9.09
-9.28
-9.35
-9.27
-8.98
-8.34
-7.27
-5.80
-4.08
-2.29
-0.65
0.68
1.62
2.17
2.43
2.56
2.78
3.24
4.00
4.98
6.00
6.84
7.36
7.60
7.72
7.97
8.55
9.47
10.52
11.37
11.68
11.22
9.97
8.10
5.88
3.57
1.31
-0.85
-2.95
-5.01
-6.99
-8.81
-10.34
-11.47
-12.18
-12.57
-12.85
-13.21
-13.78
-14.53
-15.29
-15.83
-15.93
-15.50
-14.62
-13.47
-12.32
-11.37
-10.67
-10.07
-9.31
-8.08
-6.24
-3.84
-1.20
1.25
3.15
4.35
4.96
5.24
5.47
5.76
6.06
6.20
6.08
5.63
4.88
3.79
2.24
-0.01
-3.12
-6.97
-11.06
-14.55
-16.61
-16.75
-15.11
-12.38
-9.57
-7.53
-6.70
-7.02
-8.03
-9.09
-9.56
-8.86
-6.55
-2.40
3.52
10.75
18.54
26.06
32.65
38.04
42.34
45.88
49.07
52.22
55.61
59.38
63.51
67.62
70.94
72.48
71.36
67.23
60.52
52.34
44.03
36.67
30.73
26.05
22.07
18.19
14.03
9.50
4.73
-0.13
-4.94
-9.65
-14.17
-18.36
-22.06
-25.12
-27.53
-29.40
-31.00
-32.58
-34.28
-36.02
-37.52
-38.41
-38.39
-37.40
-35.61
-33.41
-31.18
-29.18
-27.46
-25.88
-24.24
-22.46
-20.59
-18.84
-17.44
-16.55
-16.17
-16.12
-16.18
-16.19
-16.09
-15.95
-15.86
-15.87
-15.91
-15.89
-15.70
-15.31
-14.74
-14.05
-13.25
-12.33
-11.24
-9.94
-8.47
-6.91
-5.35
-3.88
-2.55
-1.35
-0.25
0.76
1.70
2.55
3.27
3.82
4.21
4.44
4.59
4.71
4.89
5.15
5.50
5.91
6.32
6.65
6.78
6.66
6.27
5.68
5.04
4.53
4.27
4.27
4.42
4.58
4.65
4.56
4.32
3.95
3.49
2.93
2.32
1.71
1.23
0.96
0.93
1.11
1.39
1.65
1.84
1.95
2.00
2.02
1.96
1.78
1.47
1.03
0.53
0.08
-0.26
-0.51
-0.73
-1.03
-1.50
-2.11
-2.78
-3.36
-3.76
-3.95
-3.99
-3.95
-3.88
-3.83
-3.78
-3.74
-3.74
-3.77
-3.85
-3.94
-4.00
-4.00
-3.93
-3.80
-3.58
-3.20
-2.62
-1.82
-0.87
0.09
0.93
1.56
1.99
2.31
2.63
3.06
3.66
4.47
5.49
6.71
8.10
9.62
11.18
12.62
13.77
14.38
14.31
13.53
12.21
10.64
9.17
8.07
7.45
7.28
7.46
7.83
8.23
8.46
8.24
7.29
5.39
2.55
-1.01
-4.83
-8.35
-11.10
-12.78
-13.34
-12.91
-11.74
-10.16
-8.44
-6.79
-5.33
-4.12
-3.20
-2.57
-2.20
-2.04
-1.96
-1.86
-1.67
-1.42
-1.20
-1.18
-1.46
-2.06
-2.96
-4.10
-5.43
-6.89
-8.42
-9.88
-11.08
-11.82
-11.96
-11.49
-10.52
-9.25
-7.89
-6.68
-5.72
-5.08
-4.71
-4.48
-4.25
-3.90
-3.38
-2.74
-2.08
-1.54
-1.18
-1.05
-1.14
-1.43
-1.91
-2.54
-3.23
-3.84
-4.18
-4.07
-3.46
-2.43
-1.19
-0.01
0.90
1.41
1.54
1.40
1.13
0.83
0.56
0.28
-0.05
-0.46
-0.92
-1.35
-1.67
-1.82
-1.83
-1.74
-1.62
-1.50
-1.34
-1.06
-0.62
-0.03
0.64
1.27
1.75
2.04
2.18
2.23
2.26
2.30
2.35
2.39
2.38
2.37
2.37
2.40
2.45
2.45
2.36
2.15
1.87
1.57
1.30
1.03
0.73
0.32
-0.19
-0.72
-1.19
-1.52
-1.69
-1.76
-1.79
-1.81
-1.82
-1.80
-1.71
-1.59
-1.47
-1.41
-1.39
-1.36
-1.22
-0.93
-0.47
0.10
0.66
1.09
1.31
1.27
0.99
0.54
0.03
-0.46
-0.79
-0.91
-0.80
-0.52
-0.15
0.22
0.54
0.75
0.84
0.74
0.37
-0.32
-1.36
-2.64
-3.96
-5.11
-5.89
-6.20
-6.07
-5.60
-4.92
-4.11
-3.26
-2.38
-1.51
-0.67
0.15
0.93
1.67
2.36
2.96
3.45
3.80
4.00
4.12
4.21
4.32
4.46
4.59
4.61
4.43
3.99
3.30
2.45
1.59
0.88
0.46
0.35
0.51
0.82
1.11
1.27
1.22
0.96
0.55
0.10
-0.26
-0.37
-0.09
0.67
1.91
3.58
5.56
7.75
10.11
12.68
15.53
18.65
21.84
24.68
26.58
27.00
25.65
22.64
18.46
13.79
9.23
5.15
1.64
-1.37
-3.98
-6.18
-7.89
-8.99
-9.49
-9.45
-9.08
-8.54
-7.99
-7.53
-7.20
-7.02
-7.04
-7.26
-7.74
-8.46
-9.36
-10.34
-11.25
-11.94
-12.30
-12.26
-11.83
-11.08
-10.11
-9.03
-8.02
-7.23
-6.77
-6.63
-6.63
-6.49
-5.98
-5.04
-3.80
-2.50
-1.32
-0.18
1.13
2.90
5.24
8.01
10.93
13.78
16.44
18.93
21.20
23.05
24.11
24.11
23.02
21.16
19.01
16.99
15.26
13.72
12.13
10.41
8.82
7.92
8.06
9.18
10.88
12.71
14.34
15.60
16.59
17.55
18.92
20.91
23.51
26.47
29.55
32.55
35.03
36.55
36.80
35.98
34.16
31.48
28.17
24.78
22.06
19.94
18.17
16.59
16.19
17.16
19.27
21.88
24.64
27.41
28.73
27.34
22.97
18.47
15.49
14.84
16.19
19.45
24.48
28.54
28.87
24.37
19.23
16.46
17.79
22.23
27.31
28.82
18.81
-9.12
-56.39
-115.03
-176.85
-235.03
-286.86
-332.24
-354.41
-342.13
-295.54
-252.60
-226.53
-219.53
-219.71
-221.58
-221.55
-217.07
-209.71
-201.83
-195.68
-189.83
-184.90
-180.87
-176.46
-167.58
-149.48
-121.77
-86.88
-41.97
10.48
60.97
100.97
127.82
144.17
156.14
164.58
168.62
168.84
169.38
175.66
189.41
211.36
239.64
269.52
293.85
306.64
305.09
290.38
266.64
239.37
213.39
191.01
172.08
154.64
137.24
119.63
102.38
86.49
72.68
61.30
51.75
43.13
34.62
26.10
18.04
10.68
4.18
-1.56
-6.73
-11.87
-17.40
-23.36
-29.26
-34.46
-38.64
-41.88
-44.51
-46.70
-48.50
-49.79
-50.40
-50.20
-49.18
-47.29
-44.32
-40.00
-34.30
-27.83
-21.91
-18.08
-17.35
-19.55
-23.31
-26.65
-27.85
-26.22
-22.24
-17.15
-12.27
-8.33
-5.41
-3.13
-1.13
0.64
1.89
2.23
1.49
-0.09
-1.86
-2.98
-2.83
-1.29
1.14
3.59
5.15
5.38
4.45
3.06
2.01
1.84
2.59
3.83
4.99
5.60
5.49
4.75
3.64
2.46
1.56
1.31
2.11
4.19
7.27
10.38
12.00
10.60
5.34
-3.36
-13.69
-23.02
-28.79
-29.43
-24.84
-16.37
-6.23
3.22
10.16
13.69
13.89
11.62
8.14
4.68
2.10
0.64
-0.02
-0.62
-2.00
-4.83
-9.47
-15.92
-23.85
-32.76
-42.07
-51.28
-60.01
-68.07
-75.36
-81.69
-86.58
-89.05
-87.68
-80.98
-68.08
-49.40
-26.94
-3.87
16.37
31.19
39.60
42.30
41.06
37.85
34.12
30.67
27.76
25.51
24.09
23.62
23.98
24.78
25.44
25.46
24.67
23.38
22.15
21.64
22.16
23.58
25.31
26.56
26.72
25.57
23.39
20.72
18.12
15.87
14.01
12.46
11.24
10.53
10.43
10.76
10.86
9.76
6.56
0.84
-7.14
-16.53
-26.17
-34.91
-41.80
-46.10
-47.33
-45.29
-40.23
-32.90
-24.48
-16.31
-9.47
-4.51
-1.35
0.56
1.99
3.70
6.27
9.97
14.65
19.66
23.99
26.63
27.04
25.52
23.14
21.26
20.75
21.58
22.82
23.27
22.15
19.34
15.21
9.97
3.32
-5.45
-16.84
-30.50
-45.13
-58.99
-70.75
-80.09
-87.52
-93.61
-98.14
-99.82
-96.83
-87.81
-72.81
-53.41
-32.15
-11.48
7.06
23.01
36.66
48.31
57.92
65.12
69.59
71.36
70.91
68.89
65.73
61.41
55.47
47.27
36.31
22.45
6.18
-11.38
-28.48
-42.99
-52.92
-56.91
-54.74
-47.39
-36.69
-24.70
-13.03
-2.57
6.44
14.05
20.26
24.91
27.77
28.83
28.43
27.19
25.79
24.65
23.82
23.05
22.03
20.58
18.82
17.06
15.63
14.69
14.13
13.61
12.73
11.20
9.03
6.46
3.95
1.89
0.55
-0.09
-0.21
-0.09
0.06
0.18
0.31
0.55
0.92
1.36
1.74
1.99
2.10
2.11
2.10
2.11
2.09
1.95
1.65
1.18
0.68
0.35
0.36
0.73
1.36
1.97
2.30
2.18
1.64
0.88
0.18
-0.28
-0.45
-0.48
-0.61
-1.01
-1.75
-2.73
-3.75
-4.60
-5.16
-5.37
-5.28
-4.97
-4.46
-3.77
-2.91
-1.89
-0.78
0.34
1.35
2.11
2.52
2.54
2.22
1.73
1.29
1.11
1.28
1.70
2.23
2.67
2.95
3.06
3.08
3.07
3.06
3.01
2.89
2.66
2.29
1.76
1.03
0.13
-0.89
-1.90
-2.77
-3.38
-3.67
-3.64
-3.34
-2.83
-2.20
-1.51
-0.86
-0.32
0.08
0.35
0.58
0.82
1.14
1.53
1.93
2.25
2.42
2.39
2.18
1.84
1.44
1.04
0.68
0.38
0.16
-0.01
-0.19
-0.48
-0.95
-1.63
-2.43
-3.20
-3.77
-4.04
-4.01
-3.75
-3.46
-3.25
-3.24
-3.44
-3.80
-4.20
-4.48
-4.51
-4.18
-3.43
-2.29
-0.85
0.75
2.37
3.91
5.31
6.53
7.57
8.43
9.10
9.52
9.64
9.41
8.79
7.78
6.40
4.75
2.92
1.04
-0.83
-2.63
-4.34
-5.95
-7.37
-8.55
-9.45
-10.07
-10.47
-10.68
-10.69
-10.45
-9.90
-9.07
-8.04
-6.94
-5.85
-4.78
-3.66
-2.42
-1.02
0.48
1.96
3.33
4.51
5.51
6.36
7.09
7.72
8.24
8.63
8.91
9.09
9.16
9.12
8.94
8.63
8.19
7.72
7.31
7.06
7.04
7.19
7.42
7.59
7.55
7.23
6.65
5.90
5.15
4.54
4.15
3.94
3.79
3.59
3.25
2.83
2.47
2.29
2.40
2.77
3.34
4.03
4.80
5.62
6.43
7.07
7.32
6.96
5.94
4.38
2.65
1.17
0.35
0.48
1.72
4.17
7.96
13.17
19.69
27.10
34.60
41.23
46.20
49.13
50.13
49.65
48.10
45.56
41.76
36.28
28.93
20.00
10.15
0.17
-9.44
-18.75
-28.38
-39.25
-52.16
-67.51
-85.12
-104.27
-123.84
-142.22
-157.42
-167.12
-169.08
-161.81
-145.25
-121.10
-92.49
-63.08
-36.01
-13.11
5.25
19.62
30.82
39.38
45.48
49.18
50.78
50.84
50.08
49.01
47.83
46.41
44.51
42.00
39.02
35.94
33.13
30.88
29.22
27.93
26.70
25.23
23.35
21.09
18.57
16.00
13.57
11.41
9.58
8.08
6.83
5.75
4.75
3.80
2.91
2.17
1.64
1.35
1.24
1.16
1.00
0.66
0.17
-0.39
-0.85
-1.10
-1.03
-0.63
0.08
1.03
2.14
3.36
4.65
5.97
7.27
8.47
9.43
10.01
10.12
9.76
9.02
8.05
7.01
6.02
5.14
4.37
3.73
3.20
2.80
2.53
2.34
2.19
2.04
1.87
1.74
1.72
1.85
2.10
2.39
2.61
2.68
2.62
2.52
2.51
2.65
2.89
3.14
3.29
3.28
3.12
2.89
2.61
2.26
1.83
1.34
0.84
0.47
0.28
0.28
0.33
0.31
0.12
-0.24
-0.70
-1.19
-1.68
-2.17
-2.72
-3.29
-3.80
-4.09
-4.06
-3.64
-2.89
-1.96
-1.04
-0.28
0.23
0.50
0.59
0.64
0.74
0.98
1.38
1.87
2.33
2.64
2.73
2.57
2.27
1.95
1.70
1.51
1.31
1.01
0.55
-0.01
-0.53
-0.88
-0.95
-0.77
-0.46
-0.19
-0.13
-0.39
-0.98
-1.82
-2.77
-3.65
-4.31
-4.66
-4.67
-4.39
-3.90
-3.23
-2.39
-1.38
-0.24
0.90
1.88
2.53
2.79
2.73
2.49
2.27
2.14
2.11
2.07
1.89
1.53
1.01
0.42
-0.16
-0.70
-1.23
-1.81
-2.44
-3.10
-3.66
-4.03
-4.20
-4.24
-4.33
-4.60
-5.14
-5.92
-6.82
-7.67
-8.33
-8.70
-8.73
-8.39
-7.65
-6.53
-5.05
-3.30
-1.39
0.50
2.26
3.80
5.07
6.14
7.03
7.81
8.44
8.90
9.10
9.03
8.71
8.18
7.50
6.71
5.80
4.80
3.75
2.73
1.85
1.14
0.60
0.16
-0.27
-0.71
-1.12
-1.41
-1.51
-1.41
-1.18
-0.97
-0.94
-1.18
-1.67
-2.31
-2.94
-3.43
-3.67
-3.60
-3.24
-2.62
-1.86
-1.11
-0.55
-0.35
-0.57
-1.18
-2.02
-2.88
-3.55
-3.86
-3.76
-3.30
-2.58
-1.82
-1.27
-1.21
-1.75
-2.85
-4.24
-5.54
-6.45
-6.84
-6.85
-6.72
-6.69
-6.83
-7.04
-7.10
-6.83
-6.10
-4.89
-3.20
-1.10
1.27
3.65
5.69
7.07
7.60
7.36
6.66
5.90
5.42
5.37
5.68
6.11
6.45
6.58
6.50
6.33
6.14
5.92
5.63
5.21
4.73
4.30
4.12
4.30
4.77
5.37
5.86
6.05
5.91
5.56
5.18
4.93
4.84
4.83
4.76
4.53
4.09
3.50
2.87
2.28
1.76
1.27
0.76
0.22
-0.26
-0.54
-0.50
-0.08
0.63
1.42
2.10
2.57
2.81
2.94
3.09
3.30
3.53
3.69
3.68
3.49
3.18
2.88
2.65
2.51
2.42
2.33
2.23
2.16
2.14
2.19
2.21
2.11
1.81
1.30
0.68
0.08
-0.36
-0.59
-0.62
-0.61
-0.71
-1.05
-1.68
-2.49
-3.31
-3.93
-4.26
-4.27
-4.03
-3.63
-3.18
-2.71
-2.31
-2.02
-1.87
-1.86
-1.91
-1.93
-1.87
-1.75
-1.68
-1.73
-1.90
-2.12
-2.29
-2.32
-2.24
-2.11
-1.96
-1.79
-1.54
-1.15
-0.64
-0.11
0.31
0.55
0.65
0.79
1.17
1.88
2.87
3.96
4.92
5.59
5.99
6.22
6.43
6.68
6.93
7.07
6.99
6.62
6.03
5.32
4.63
4.01
3.46
2.89
2.22
1.40
0.45
-0.52
-1.38
-2.03
-2.44
-2.66
-2.72
-2.59
-2.21
-1.50
-0.46
0.82
2.13
3.24
3.96
4.27
4.21
3.92
3.50
3.02
2.49
1.94
1.42
1.01
0.78
0.76
0.89
1.04
1.08
0.93
0.61
0.27
0.04
0.02
0.16
0.37
0.53
0.56
0.53
0.58
0.85
1.44
2.34
3.44
4.57
5.56
6.29
6.72
6.93
7.11
7.47
8.16
9.22
10.50
11.72
12.52
12.59
11.69
9.75
6.89
3.47
0.10
-2.48
-3.64
-3.14
-1.34
0.90
2.47
2.39
0.19
-3.97
-9.43
-15.28
-20.66
-24.95
-27.87
-29.36
-29.54
-28.62
-26.84
-24.52
-21.99
-19.63
-17.75
-16.52
-15.88
-15.57
-15.21
-14.48
-13.30
-11.76
-10.15
-8.72
-7.58
-6.71
-5.96
-5.23
-4.49
-3.81
-3.27
-2.91
-2.68
-2.49
-2.28
-2.05
-1.87
-1.79
-1.84
-1.93
-1.98
-1.91
-1.72
-1.43
-1.08
-0.68
-0.17
0.45
1.16
1.83
2.29
2.47
2.38
2.16
1.96
1.92
2.05
2.30
2.55
2.73
2.83
2.87
2.89
2.93
2.99
3.12
3.34
3.66
4.03
4.38
4.59
4.57
4.23
3.54
2.52
1.22
-0.23
-1.66
-2.90
-3.79
-4.31
-4.52
-4.61
-4.77
-5.06
-5.44
-5.75
-5.81
-5.51
-4.83
-3.82
-2.57
-1.17
0.26
1.63
2.81
3.66
4.16
4.39
4.51
4.70
5.05
5.53
5.97
6.23
6.24
6.01
5.66
5.28
4.92
4.57
4.17
3.70
3.12
2.47
1.77
1.08
0.46
-0.03
-0.37
-0.53
-0.56
-0.51
-0.41
-0.25
-0.00
0.35
0.81
1.34
1.93
2.59
3.34
4.12
4.84
5.32
5.45
5.24
4.88
4.67
4.89
5.68
6.99
8.58
10.17
11.53
12.58
13.38
14.08
14.88
15.95
17.35
19.06
20.94
22.77
24.39
25.66
26.57
27.29
28.15
29.53
31.70
34.52
37.41
39.41
39.57
37.36
32.94
27.09
20.86
15.12
10.25
6.01
1.73
-3.49
-10.50
-19.94
-32.09
-46.84
-63.58
-81.30
-98.74
-114.69
-128.24
-139.00
-146.99
-152.38
-155.03
-154.21
-148.75
-137.51
-120.09
-97.34
-71.35
-44.86
-20.41
0.41
17.17
30.31
40.52
48.33
53.95
57.48
59.23
59.71
59.55
59.20
58.74
57.94
56.41
53.86
50.34
46.20
42.03
38.39
35.61
33.73
32.45
31.33
29.94
28.02
25.62
22.96
20.37
18.12
16.38
15.18
14.51
14.30
14.43
14.71
14.85
14.63
13.89
12.68
11.16
9.57
8.02
6.49
4.90
3.20
1.49
-0.01
-1.05
-1.53
-1.56
-1.38
-1.23
-1.26
-1.46
-1.69
-1.81
-1.77
-1.60
-1.41
-1.31
-1.33
-1.43
-1.56
-1.66
-1.70
-1.65
-1.45
-1.05
-0.38
0.49
1.42
2.15
2.44
2.20
1.48
0.55
-0.32
-0.89
-1.10
-1.03
-0.89
-0.87
-1.11
-1.70
-2.63
-3.84
-5.19
-6.48
-7.49
-8.03
-8.05
-7.64
-6.97
-6.26
-5.68
-5.33
-5.21
-5.25
-5.36
-5.46
-5.46
-5.30
-4.98
-4.54
-4.05
-3.63
-3.31
-3.09
-2.89
-2.64
-2.30
-1.89
-1.46
-1.06
-0.67
-0.28
0.16
0.60
0.98
1.23
1.31
1.28
1.22
1.17
1.11
0.99
0.72
0.31
-0.18
-0.61
-0.83
-0.72
-0.25
0.47
1.26
1.88
2.13
1.94
1.41
0.75
0.22
-0.02
0.04
0.28
0.56
0.76
0.83
0.81
0.74
0.64
0.49
0.30
0.05
-0.24
-0.55
-0.87
-1.20
-1.53
-1.86
-2.17
-2.44
-2.66
-2.81
-2.85
-2.72
-2.38
-1.82
-1.10
-0.34
0.37
1.00
1.58
2.22
3.00
3.96
5.05
6.21
7.36
8.42
9.37
10.19
10.89
11.48
12.02
12.54
13.14
13.85
14.69
15.59
16.43
17.08
17.42
17.45
17.23
16.86
16.43
15.99
15.57
15.22
15.01
14.98
15.07
15.05
14.62
13.57
11.88
9.78
7.65
5.77
4.21
2.87
1.55
0.16
-1.22
-2.34
-2.99
-3.04
-2.49
-1.49
-0.23
1.10
2.31
3.24
3.75
3.73
3.16
2.07
0.55
-1.29
-3.33
-5.44
-7.58
-9.69
-11.75
-13.72
-15.51
-17.07
-18.39
-19.51
-20.50
-21.39
-22.08
-22.36
-21.98
-20.76
-18.68
-15.96
-12.95
-10.12
-7.83
-6.28
-5.41
-4.96
-4.49
-3.59
-1.99
0.34
3.16
6.06
8.58
10.28
10.89
10.35
8.84
6.66
4.19
1.71
-0.65
-2.95
-5.23
-7.48
-9.50
-11.04
-11.91
-12.12
-11.95
-11.78
-11.96
-12.61
-13.61
-14.64
-15.36
-15.53
-15.03
-13.92
-12.35
-10.62
-9.20
-8.62
-9.38
-11.68
-15.25
-19.32
-22.82
-24.70
-24.27
-21.34
-16.24
-9.68
-2.60
4.05
9.46
13.12
14.94
15.16
14.31
12.91
11.42
10.16
9.38
9.33
10.19
11.95
14.27
16.51
17.94
18.05
16.76
14.48
11.90
9.69
8.20
7.40
6.90
6.24
5.06
3.29
1.17
-0.87
-2.41
-3.20
-3.23
-2.66
-1.75
-0.78
0.08
0.68
0.97
0.96
0.72
0.38
0.13
0.07
0.22
0.48
0.65
0.60
0.29
-0.15
-0.56
-0.84
-1.09
-1.58
-2.57
-4.17
-6.22
-8.37
-10.23
-11.57
-12.42
-12.94
-13.30
-13.52
-13.48
-13.04
-12.19
-11.09
-9.97
-9.05
-8.36
-7.83
-7.28
-6.59
-5.71
-4.65
-3.48
-2.24
-0.96
0.32
1.58
2.82
4.01
5.15
6.19
7.06
7.69
8.00
7.97
7.63
7.02
6.24
5.36
4.49
3.71
3.08
2.58
2.16
1.71
1.17
0.51
-0.24
-1.01
-1.77
-2.44
-2.94
-3.19
-3.07
-2.55
-1.71
-0.73
0.18
0.82
1.11
1.10
0.91
0.73
0.71
0.97
1.49
2.23
3.10
3.99
4.82
5.49
5.98
6.30
6.47
6.53
6.51
6.41
6.25
6.07
5.90
5.78
5.71
5.65
5.55
5.33
5.00
4.55
4.04
3.48
2.90
2.29
1.67
1.04
0.43
-0.13
-0.63
-1.09
-1.52
-1.93
-2.34
-2.75
-3.12
-3.39
-3.47
-3.25
-2.70
-1.87
-0.88
0.08
0.81
1.19
1.20
0.95
0.58
0.22
-0.09
-0.39
-0.81
-1.39
-2.14
-2.93
-3.63
-4.17
-4.53
-4.79
-5.01
-5.24
-5.42
-5.46
-5.25
-4.75
-3.99
-3.08
-2.13
-1.25
-0.43
0.48
1.69
3.38
5.62
8.34
11.36
14.52
17.70
20.77
23.55
25.81
27.26
27.68
27.01
25.32
22.78
19.53
15.66
11.18
6.22
1.00
-4.12
-8.80
-12.84
-16.21
-19.06
-21.52
-23.63
-25.24
-26.19
-26.37
-25.83
-24.80
-23.56
-22.31
-21.12
-19.90
-18.53
-16.96
-15.23
-13.47
-11.86
-10.53
-9.53
-8.79
-8.20
-7.60
-6.85
-5.86
-4.62
-3.20
-1.68
-0.18
1.24
2.55
3.77
4.96
6.26
7.80
9.66
11.75
13.87
15.72
17.08
17.90
18.29
18.44
18.44
18.29
17.82
16.88
15.43
13.55
11.41
9.16
6.85
4.52
2.22
0.09
-1.65
-2.79
-3.24
-3.09
-2.55
-1.91
-1.39
-1.10
-1.06
-1.25
-1.63
-2.14
-2.65
-3.05
-3.20
-3.13
-3.02
-3.22
-4.07
-5.72
-8.01
-10.50
-12.67
-14.07
-14.58
-14.32
-13.57
-12.53
-11.26
-9.68
-7.71
-5.41
-2.97
-0.65
1.39
3.13
4.68
6.12
7.45
8.56
9.29
9.56
9.39
8.85
7.97
6.75
5.17
3.30
1.37
-0.33
-1.59
-2.39
-2.86
-3.19
-3.49
-3.72
-3.77
-3.56
-3.16
-2.78
-2.58
-2.67
-2.96
-3.33
-3.66
-3.93
-4.23
-4.65
-5.20
-5.81
-6.31
-6.51
-6.33
-5.79
-5.03
-4.23
-3.53
-2.98
-2.56
-2.24
-1.97
-1.76
-1.62
-1.53
-1.45
-1.29
-1.07
-0.82
-0.65
-0.68
-0.92
-1.31
-1.73
-2.05
-2.21
-2.17
-1.95
-1.56
-1.10
-0.68
-0.41
-0.39
-0.56
-0.75
-0.74
-0.37
0.35
1.25
2.10
2.71
3.04
3.15
3.19
3.19
3.14
2.97
2.69
2.35
2.05
1.85
1.75
1.69
1.60
1.45
1.28
1.10
0.92
0.73
0.52
0.33
0.21
0.22
0.35
0.52
0.61
0.55
0.34
0.03
-0.26
-0.44
-0.47
-0.32
-0.05
0.27
0.57
0.76
0.79
0.66
0.43
0.19
0.04
0.06
0.27
0.63
1.04
1.37
1.52
1.45
1.20
0.84
0.52
0.33
0.32
0.50
0.81
1.16
1.45
1.58
1.52
1.29
0.96
0.62
0.36
0.21
0.15
0.10
-0.00
-0.20
-0.47
-0.75
-0.95
-1.03
-1.01
-0.96
-0.96
-1.03
-1.10
-1.07
-0.88
-0.53
-0.15
0.11
0.16
0.03
-0.15
-0.27
-0.26
-0.15
-0.06
-0.06
-0.20
-0.42
-0.67
-0.88
-1.04
-1.15
-1.19
-1.15
-1.00
-0.75
-0.43
-0.15
-0.02
-0.10
-0.39
-0.80
-1.18
-1.41
-1.41
-1.22
-0.91
-0.59
-0.34
-0.17
-0.07
-0.01
0.02
0.04
0.07
0.16
0.37
0.71
1.15
1.60
1.96
2.16
2.21
2.18
2.15
2.20
2.35
2.58
2.82
3.01
3.10
3.05
2.86
2.56
2.23
1.95
1.79
1.73
1.72
1.68
1.58
1.42
1.29
1.25
1.36
1.61
1.96
2.30
2.52
2.51
2.17
1.45
0.44
-0.62
-1.44
-1.76
-1.47
-0.67
0.35
1.29
1.95
2.31
2.48
2.58
2.66
2.68
2.54
2.23
1.83
1.50
1.41
1.56
1.83
2.02
1.95
1.54
0.87
0.09
-0.63
-1.20
-1.58
-1.75
-1.74
-1.55
-1.21
-0.77
-0.34
0.00
0.20
0.24
0.12
-0.12
-0.48
-0.97
-1.54
-2.14
-2.69
-3.12
-3.40
-3.50
-3.39
-3.06
-2.50
-1.79
-1.06
-0.42
0.03
0.30
0.45
0.55
0.64
0.71
0.70
0.62
0.56
0.60
0.84
1.22
1.64
1.96
2.10
2.07
1.99
1.92
1.89
1.83
1.62
1.20
0.56
-0.20
-0.96
-1.62
-2.10
-2.42
-2.59
-2.66
-2.68
-2.66
-2.59
-2.42
-2.09
-1.61
-1.03
-0.42
0.15
0.73
1.39
2.23
3.24
4.29
5.17
5.70
5.86
5.75
5.58
5.49
5.49
5.49
5.34
4.94
4.29
3.46
2.55
1.66
0.84
0.14
-0.40
-0.74
-0.88
-0.84
-0.68
-0.46
-0.26
-0.14
-0.14
-0.29
-0.61
-1.08
-1.65
-2.21
-2.65
-2.87
-2.84
-2.60
-2.26
-1.93
-1.65
-1.39
-1.06
-0.59
0.04
0.76
1.44
1.93
2.18
2.20
2.05
1.83
1.59
1.38
1.20
1.05
0.95
0.89
0.86
0.83
0.74
0.59
0.38
0.18
0.01
-0.10
-0.15
-0.14
-0.08
0.02
0.15
0.26
0.28
0.17
-0.10
-0.47
-0.85
-1.14
-1.30
-1.35
-1.36
-1.41
-1.54
-1.73
-1.94
-2.07
-2.03
-1.79
-1.39
-0.91
-0.46
-0.09
0.18
0.37
0.51
0.61
0.69
0.75
0.82
0.94
1.06
1.13
1.10
0.94
0.69
0.42
0.22
0.13
0.12
0.17
0.25
0.33
0.41
0.47
0.44
0.29
0.00
-0.37
-0.75
-1.01
-1.07
-0.91
-0.62
-0.32
-0.18
-0.28
-0.60
-0.98
-1.26
-1.34
-1.20
-0.94
-0.69
-0.52
-0.47
-0.46
-0.44
-0.36
-0.22
-0.01
0.23
0.49
0.74
0.95
1.12
1.24
1.29
1.26
1.15
0.96
0.78
0.68
0.77
1.05
1.43
1.80
2.00
1.93
1.63
1.20
0.78
0.52
0.45
0.53
0.69
0.82
0.84
0.74
0.52
0.19
-0.23
-0.72
-1.23
-1.69
-2.00
-2.10
-2.01
-1.82
-1.70
-1.79
-2.09
-2.48
-2.74
-2.70
-2.30
-1.67
-1.03
-0.59
-0.43
-0.44
-0.45
-0.30
0.04
0.46
0.79
0.90
0.81
0.60
0.43
0.40
0.52
0.73
0.97
1.13
1.15
1.03
0.79
0.54
0.39
0.44
0.68
0.99
1.22
1.24
1.01
0.61
0.17
-0.18
-0.37
-0.42
-0.37
-0.28
-0.23
-0.25
-0.39
-0.65
-1.02
-1.42
-1.78
-2.05
-2.18
-2.17
-2.04
-1.80
-1.50
-1.17
-0.85
-0.56
-0.32
-0.14
0.01
0.17
0.38
0.68
1.04
1.38
1.60
1.63
1.47
1.19
0.94
0.82
0.86
0.98
1.09
1.08
0.97
0.79
0.62
0.48
0.38
0.30
0.24
0.23
0.31
0.48
0.65
0.72
0.58
0.18
-0.38
-0.94
-1.37
-1.59
-1.66
-1.68
-1.76
-1.89
-2.02
-2.04
-1.91
-1.67
-1.43
-1.29
-1.31
-1.42
-1.52
-1.50
-1.29
-0.92
-0.49
-0.12
0.11
0.18
0.16
0.15
0.20
0.33
0.50
0.65
0.76
0.81
0.83
0.82
0.81
0.78
0.76
0.74
0.69
0.60
0.44
0.20
-0.09
-0.37
-0.59
-0.70
-0.70
-0.63
-0.53
-0.48
-0.54
-0.70
-0.95
-1.21
-1.41
-1.49
-1.44
-1.28
-1.05
-0.77
-0.46
-0.11
0.24
0.55
0.73
0.76
0.65
0.49
0.36
0.33
0.39
0.44
0.43
0.32
0.14
-0.01
-0.05
0.04
0.20
0.35
0.42
0.42
0.40
0.46
0.67
1.01
1.45
1.88
2.22
2.37
2.29
1.98
1.50
0.97
0.52
0.25
0.17
0.24
0.40
0.56
0.67
0.65
0.45
0.06
-0.50
-1.10
-1.58
-1.82
-1.79
-1.55
-1.25
-1.03
-0.97
-1.07
-1.25
-1.45
-1.60
-1.70
-1.73
-1.70
-1.64
-1.54
-1.40
-1.21
-0.93
-0.58
-0.20
0.12
0.31
0.31
0.18
0.01
-0.09
-0.06
0.09
0.29
0.44
0.52
0.57
0.66
0.81
0.97
1.02
0.85
0.44
-0.13
-0.70
-1.15
-1.40
-1.49
-1.49
-1.43
-1.31
-1.08
-0.71
-0.26
0.19
0.55
0.77
0.84
0.83
0.78
0.74
0.76
0.85
1.00
1.17
1.29
1.27
1.08
0.73
0.34
0.01
-0.16
-0.16
-0.02
0.20
0.42
0.59
0.68
0.69
0.63
0.53
0.40
0.24
0.06
-0.17
-0.44
-0.67
-0.79
-0.71
-0.45
-0.11
0.17
0.26
0.12
-0.21
-0.60
-0.97
-1.25
-1.43
-1.54
-1.57
-1.51
-1.38
-1.21
-1.04
-0.90
-0.80
-0.70
-0.55
-0.31
-0.03
0.24
0.42
0.44
0.29
0.01
-0.32
-0.55
-0.59
-0.38
0.02
0.48
0.86
1.03
0.95
0.71
0.44
0.26
0.23
0.33
0.47
0.55
0.47
0.21
-0.19
-0.63
-1.01
-1.26
-1.38
-1.42
-1.47
-1.59
-1.79
-2.06
-2.34
-2.59
-2.75
-2.77
-2.61
-2.26
-1.79
-1.29
-0.86
-0.58
-0.43
-0.33
-0.18
0.12
0.60
1.17
1.70
2.02
2.06
1.82
1.41
0.99
0.70
0.60
0.67
0.82
0.98
1.06
1.05
0.96
0.83
0.72
0.66
0.66
0.68
0.68
0.60
0.44
0.24
0.04
-0.15
-0.33
-0.56
-0.86
-1.19
-1.49
-1.64
-1.60
-1.41
-1.19
-1.05
-1.08
-1.23
-1.40
-1.44
-1.24
-0.80
-0.19
0.46
1.00
1.38
1.59
1.70
1.79
1.88
1.95
1.94
1.82
1.57
1.29
1.08
1.04
1.16
1.35
1.48
1.44
1.21
0.85
0.49
0.22
0.09
0.05
0.06
0.06
0.01
-0.11
-0.32
-0.58
-0.87
-1.14
-1.35
-1.50
-1.60
-1.62
-1.53
-1.32
-1.00
-0.68
-0.46
-0.44
-0.58
-0.78
-0.88
-0.77
-0.45
0.03
0.55
1.03
1.42
1.72
1.89
1.93
1.87
1.77
1.67
1.63
1.65
1.69
1.71
1.68
1.57
1.39
1.14
0.88
0.66
0.51
0.44
0.39
0.27
0.02
-0.38
-0.83
-1.22
-1.41
-1.40
-1.24
-1.13
-1.21
-1.55
-2.09
-2.64
-3.00
-3.06
-2.81
-2.37
-1.90
-1.48
-1.14
-0.82
-0.45
-0.05
0.31
0.51
0.53
0.40
0.24
0.14
0.15
0.22
0.27
0.25
0.17
0.07
0.02
0.08
0.21
0.37
0.49
0.55
0.58
0.65
0.80
1.01
1.19
1.22
1.03
0.66
0.23
-0.12
-0.28
-0.27
-0.19
-0.17
-0.27
-0.49
-0.78
-1.07
-1.32
-1.51
-1.60
-1.55
-1.31
-0.85
-0.25
0.40
0.97
1.36
1.57
1.64
1.61
1.50
1.29
0.95
0.52
0.12
-0.11
-0.03
0.37
0.94
1.47
1.76
1.73
1.47
1.14
0.89
0.79
0.78
0.75
0.62
0.40
0.15
-0.04
-0.15
-0.16
-0.14
-0.15
-0.21
-0.35
-0.57
-0.89
-1.28
-1.68
-2.01
-2.17
-2.11
-1.82
-1.34
-0.76
-0.15
0.41
0.84
1.03
0.95
0.62
0.19
-0.18
-0.31
-0.15
0.25
0.73
1.14
1.38
1.44
1.38
1.27
1.12
0.92
0.63
0.21
-0.27
-0.70
-0.96
-0.94
-0.67
-0.26
0.09
0.21
-0.01
-0.54
-1.23
-1.89
-2.36
-2.58
-2.59
-2.54
-2.56
-2.75
-3.08
-3.43
-3.61
-3.48
-3.02
-2.32
-1.59
-1.00
-0.65
-0.51
-0.49
-0.48
-0.47
-0.46
-0.47
-0.45
-0.26
0.30
1.31
2.68
4.16
5.41
6.19
6.42
6.23
5.82
5.38
4.98
4.58
4.06
3.37
2.55
1.69
0.86
0.09
-0.66
-1.49
-2.46
-3.58
-4.78
-5.96
-7.05
-7.98
-8.76
-9.42
-9.97
-10.39
-10.58
-10.45
-9.91
-8.97
-7.69
-6.21
-4.63
-3.02
-1.38
0.32
2.10
3.89
5.59
7.03
8.07
8.65
8.81
8.65
8.28
7.80
7.22
6.54
5.78
5.00
4.34
3.90
3.75
3.84
4.07
4.32
4.49
4.56
4.55
4.49
4.43
4.41
4.50
4.72
5.09
5.55
5.99
6.33
6.47
6.42
6.22
5.94
5.66
5.41
5.21
5.01
4.79
4.53
4.26
4.01
3.80
3.60
3.31
2.80
1.99
0.92
-0.30
-1.48
-2.54
-3.50
-4.41
-5.38
-6.39
-7.36
-8.13
-8.59
-8.68
-8.51
-8.23
-8.00
-7.90
-7.92
-7.96
-7.88
-7.57
-6.99
-6.18
-5.27
-4.39
-3.66
-3.16
-2.86
-2.71
-2.60
-2.43
-2.15
-1.73
-1.23
-0.75
-0.38
-0.17
-0.14
-0.22
-0.34
-0.44
-0.46
-0.40
-0.25
-0.04
0.23
0.55
0.92
1.33
1.73
2.09
2.37
2.54
2.61
2.60
2.52
2.38
2.16
1.86
1.52
1.18
0.89
0.71
0.68
0.78
0.96
1.15
1.28
1.29
1.14
0.86
0.49
0.11
-0.20
-0.42
-0.52
-0.53
-0.47
-0.36
-0.26
-0.23
-0.35
-0.61
-0.94
-1.20
-1.26
-1.06
-0.68
-0.28
-0.00
0.09
0.03
-0.07
-0.14
-0.15
-0.14
-0.17
-0.25
-0.36
-0.42
-0.37
-0.22
-0.01
0.16
0.25
0.26
0.21
0.19
0.23
0.34
0.49
0.63
0.70
0.66
0.49
0.25
0.01
-0.11
-0.03
0.24
0.59
0.89
0.98
0.84
0.52
0.17
-0.04
0.01
0.35
0.93
1.68
2.46
3.20
3.84
4.45
5.17
6.22
7.71
9.64
11.77
13.75
15.30
16.26
16.75
17.03
17.45
18.26
19.57
21.31
23.34
25.51
27.66
29.69
31.46
32.88
33.90
34.61
35.21
35.94
36.92
38.04
38.89
39.03
38.26
36.83
35.36
34.52
34.65
35.52
36.42
36.48
35.11
32.26
28.37
24.02
19.57
15.06
10.42
5.66
0.93
-3.51
-7.43
-10.79
-13.83
-16.87
-20.09
-23.32
-26.11
-28.37
-30.27
-32.15
-34.19
-36.45
-38.83
-41.11
-42.93
-43.87
-44.18
-44.36
-44.58
-44.47
-43.48
-41.37
-38.32
-34.64
-30.54
-27.29
-26.58
-29.60
-36.50
-46.63
-58.99
-72.30
-84.80
-94.52
-101.21
-106.22
-111.61
-119.18
-130.66
-147.87
-172.21
-204.06
-231.00
-241.49
-230.43
-201.74
-164.01
-124.15
-85.19
-47.67
-11.83
18.35
42.09
57.70
64.52
64.41
61.17
58.56
58.66
61.71
66.65
71.07
72.56
70.46
65.76
59.43
51.03
38.87
21.58
0.07
-22.17
-40.00
-47.58
-40.22
-16.41
21.31
66.93
112.38
149.76
172.93
178.85
168.63
146.91
119.93
93.15
70.04
51.91
38.60
29.56
24.24
22.25
23.12
25.81
28.80
30.58
30.31
28.25
25.65
23.95
23.96
25.44
27.15
27.54
25.60
21.36
15.87
10.70
7.25
6.32
7.96
11.58
16.25
20.92
24.68
26.88
27.36
26.39
24.62
22.76
21.35
20.61
20.52
21.02
22.12
23.83
25.98
28.16
29.85
30.70
30.81
30.62
30.54
30.59
30.23
28.58
24.96
19.28
12.22
5.00
-1.11
-5.19
-6.97
-6.76
-5.30
-3.33
-1.43
0.18
1.57
2.97
4.53
6.16
7.45
7.91
7.19
5.39
3.03
0.94
-0.22
-0.14
1.02
2.80
4.73
6.38
7.32
7.01
4.66
-0.45
-8.67
-19.61
-32.16
-44.86
-56.40
-65.94
-73.16
-77.90
-79.86
-78.63
-73.95
-66.17
-56.44
-46.46
-37.97
-32.14
-29.39
-29.36
-31.26
-34.06
-36.64
-37.87
-36.83
-33.05
-26.66
-18.16
-7.96
3.91
17.73
33.57
50.53
66.66
79.40
86.82
88.60
86.41
83.20
81.89
84.05
89.35
95.80
100.67
101.46
96.57
85.53
68.95
48.26
25.42
2.52
-18.54
-36.51
-50.97
-62.25
-71.00
-77.77
-82.76
-86.02
-87.87
-89.21
-91.41
-95.71
-102.50
-110.83
-118.69
-123.85
-124.79
-121.32
-114.39
-105.36
-95.07
-83.34
-69.24
-51.85
-31.08
-8.12
14.75
34.85
50.03
59.27
62.91
62.24
58.99
54.69
50.38
46.53
43.15
40.10
37.18
34.39
31.91
30.12
29.46
30.17
32.23
35.22
38.57
41.69
44.13
45.66
46.21
45.66
43.81
40.35
34.99
27.62
18.48
8.16
-2.50
-12.57
-21.30
-28.18
-33.01
-35.80
-36.72
-36.11
-34.54
-32.72
-31.41
-31.14
-31.94
-33.27
-34.21
-33.84
-31.72
-28.12
-23.96
-20.55
-19.00
-19.78
-22.48
-25.89
-28.42
-28.71
-26.22
-21.34
-15.26
-9.35
-4.61
-1.37
0.60
1.75
2.44
2.82
3.01
3.29
4.19
6.25
9.69
14.22
18.99
22.95
25.26
25.59
24.29
22.14
20.00
18.52
17.83
17.60
17.21
16.00
13.59
10.04
5.79
1.52
-2.08
-4.51
-5.55
-5.23
-3.76
-1.46
1.27
3.96
6.13
7.33
7.35
6.29
4.54
2.69
1.29
0.63
0.68
1.15
1.69
2.04
2.13
2.04
1.90
1.77
1.67
1.54
1.36
1.18
1.07
1.09
1.26
1.50
1.71
1.79
1.68
1.36
0.83
0.10
-0.82
-1.88
-3.03
-4.20
-5.30
-6.27
-7.03
-7.54
-7.75
-7.63
-7.22
-6.59
-5.81
-4.93
-3.95
-2.78
-1.41
0.11
1.56
2.63
3.03
2.63
1.61
0.46
-0.26
-0.07
1.07
2.79
4.43
5.37
5.32
4.43
3.21
2.21
1.71
1.61
1.54
1.13
0.30
-0.71
-1.51
-1.80
-1.58
-1.14
-0.96
-1.41
-2.59
-4.28
-6.04
-7.41
-8.08
-7.98
-7.28
-6.32
-5.44
-4.88
-4.70
-4.78
-4.89
-4.75
-4.19
-3.10
-1.58
0.14
1.74
2.93
3.53
3.60
3.42
3.37
3.74
4.61
5.80
6.93
7.62
7.62
6.88
5.56
3.86
2.01
0.17
-1.54
-3.00
-4.08
-4.62
-4.47
-3.55
-1.91
0.24
2.56
4.62
6.07
6.74
6.60
5.78
4.48
2.89
1.29
-0.02
-0.70
-0.48
0.66
2.48
4.49
6.12
6.99
7.01
6.41
5.54
4.72
4.07
3.56
3.11
2.68
2.30
2.03
1.89
1.78
1.57
1.13
0.47
-0.28
-0.95
-1.36
-1.46
-1.31
-1.06
-0.84
-0.80
-1.02
-1.51
-2.24
-3.06
-3.81
-4.25
-4.23
-3.70
-2.74
-1.55
-0.36
0.65
1.38
1.87
2.22
2.54
2.86
3.16
3.31
3.19
2.69
1.80
0.62
-0.62
-1.68
-2.31
-2.40
-1.93
-1.03
0.09
1.20
2.09
2.62
2.74
2.52
2.09
1.55
1.01
0.45
-0.12
-0.74
-1.35
-1.91
-2.34
-2.63
-2.83
-2.98
-3.10
-3.07
-2.75
-2.06
-1.06
0.07
1.04
1.66
1.92
1.92
1.86
1.86
1.95
2.03
1.98
1.76
1.41
1.06
0.79
0.65
0.63
0.68
0.75
0.82
0.86
0.82
0.70
0.51
0.31
0.21
0.25
0.42
0.59
0.61
0.35
-0.22
-0.98
-1.76
-2.36
-2.61
-2.44
-1.86
-0.99
-0.03
0.80
1.32
1.46
1.32
1.09
1.03
1.27
1.82
2.54
3.24
3.76
4.04
4.10
4.02
3.86
3.65
3.42
3.17
2.92
2.71
2.54
2.41
2.28
2.10
1.84
1.51
1.12
0.73
0.37
0.06
-0.23
-0.60
-1.10
-1.78
-2.59
-3.40
-4.01
-4.27
-4.06
-3.43
-2.48
-1.43
-0.46
0.30
0.77
0.99
1.05
1.08
1.18
1.40
1.72
2.08
2.39
2.58
2.62
2.52
2.30
2.02
1.72
1.45
1.23
1.08
1.01
0.99
1.00
1.03
1.06
1.07
1.02
0.84
0.44
-0.21
-1.07
-1.97
-2.72
-3.13
-3.16
-2.90
-2.52
-2.18
-1.90
-1.59
-1.12
-0.43
0.43
1.27
1.94
2.36
2.56
2.66
2.72
2.76
2.72
2.54
2.23
1.89
1.64
1.58
1.69
1.88
2.03
2.06
1.95
1.75
1.56
1.41
1.29
1.13
0.88
0.48
-0.06
-0.74
-1.50
-2.27
-3.00
-3.58
-3.95
-4.08
-3.94
-3.57
-3.00
-2.24
-1.32
-0.32
0.62
1.35
1.77
1.88
1.81
1.74
1.81
2.04
2.32
2.51
2.51
2.31
2.02
1.74
1.55
1.46
1.39
1.26
1.05
0.76
0.42
0.09
-0.19
-0.42
-0.58
-0.72
-0.86
-1.05
-1.31
-1.61
-1.89
-2.08
-2.15
-2.11
-1.99
-1.82
-1.62
-1.39
-1.14
-0.88
-0.62
-0.39
-0.15
0.14
0.51
0.97
1.45
1.88
2.15
2.21
2.08
1.83
1.56
1.39
1.36
1.46
1.62
1.75
1.79
1.73
1.58
1.36
1.12
0.84
0.56
0.32
0.15
0.06
0.01
-0.10
-0.33
-0.69
-1.13
-1.52
-1.78
-1.87
-1.83
-1.70
-1.53
-1.32
-1.07
-0.76
-0.40
-0.05
0.25
0.46
0.58
0.64
0.68
0.69
0.67
0.60
0.51
0.47
0.58
0.94
1.52
2.21
2.80
3.09
3.00
2.60
2.07
1.59
1.27
1.09
0.92
0.64
0.24
-0.16
-0.42
-0.44
-0.24
0.02
0.17
0.11
-0.10
-0.32
-0.39
-0.25
0.09
0.52
0.96
1.35
1.67
1.86
1.86
1.57
0.95
0.08
-0.89
-1.77
-2.43
-2.82
-2.97
-2.97
-2.89
-2.75
-2.56
-2.31
-2.04
-1.82
-1.71
-1.74
-1.87
-2.01
-2.07
-2.02
-1.86
-1.65
-1.43
-1.21
-1.02
-0.89
-0.90
-1.11
-1.49
-1.92
-2.19
-2.15
-1.76
-1.13
-0.47
0.06
0.41
0.64
0.84
1.02
1.13
1.13
1.03
0.91
0.89
1.01
1.23
1.43
1.56
1.62
1.70
1.87
2.14
2.46
2.68
2.71
2.51
2.12
1.62
1.10
0.68
0.43
0.36
0.44
0.57
0.66
0.64
0.48
0.19
-0.19
-0.66
-1.20
-1.74
-2.20
-2.47
-2.45
-2.16
-1.69
-1.20
-0.83
-0.68
-0.72
-0.89
-1.09
-1.21
-1.19
-1.06
-0.85
-0.68
-0.60
-0.63
-0.70
-0.71
-0.54
-0.15
0.42
1.07
1.68
2.19
2.56
2.82
2.95
2.91
2.65
2.20
1.71
1.36
1.28
1.49
1.87
2.20
2.28
2.07
1.63
1.13
0.70
0.45
0.36
0.41
0.53
0.68
0.78
0.78
0.66
0.45
0.26
0.24
0.48
0.97
1.57
2.12
2.48
2.63
2.65
2.69
2.87
3.25
3.76
4.27
4.61
4.63
4.23
3.35
2.01
0.31
-1.58
-3.43
-5.03
-6.22
-6.98
-7.39
-7.61
-7.74
-7.83
-7.79
-7.52
-6.92
-6.04
-5.02
-4.05
-3.27
-2.72
-2.33
-2.07
-1.90
-1.87
-2.07
-2.57
-3.34
-4.30
-5.28
-6.17
-6.92
-7.57
-8.21
-8.91
-9.62
-10.23
-10.55
-10.42
-9.79
-8.70
-7.29
-5.72
-4.11
-2.54
-1.07
0.25
1.45
2.55
3.62
4.70
5.74
6.65
7.27
7.50
7.32
6.84
6.20
5.60
5.12
4.79
4.59
4.40
4.11
3.61
2.87
1.93
0.93
0.02
-0.68
-1.14
-1.38
-1.46
-1.38
-1.09
-0.56
0.19
1.05
1.84
2.39
2.67
2.75
2.78
2.86
3.03
3.22
3.36
3.43
3.47
3.55
3.72
3.92
4.03
3.93
3.57
3.02
2.45
2.01
1.79
1.74
1.75
1.70
1.57
1.44
1.42
1.58
1.87
2.13
2.17
1.90
1.38
0.79
0.33
0.08
0.03
0.03
-0.03
-0.18
-0.32
-0.34
-0.17
0.14
0.46
0.64
0.68
0.70
0.90
1.42
2.25
3.20
4.00
4.46
4.58
4.52
4.49
4.64
4.96
5.32
5.56
5.58
5.38
4.99
4.48
3.88
3.25
2.63
2.09
1.69
1.43
1.31
1.29
1.33
1.36
1.34
1.23
1.02
0.76
0.55
0.48
0.64
0.97
1.41
1.84
2.18
2.45
2.67
2.87
3.05
3.18
3.27
3.38
3.59
3.99
4.56
5.23
5.83
6.25
6.46
6.53
6.59
6.67
6.69
6.45
5.77
4.59
3.04
1.38
-0.09
-1.21
-1.99
-2.60
-3.24
-4.06
-5.05
-6.09
-7.03
-7.74
-8.19
-8.39
-8.39
-8.21
-7.86
-7.39
-6.89
-6.52
-6.39
-6.55
-6.90
-7.26
-7.41
-7.27
-6.88
-6.38
-5.94
-5.64
-5.44
-5.24
-4.95
-4.52
-3.98
-3.41
-2.85
-2.32
-1.79
-1.27
-0.76
-0.33
-0.03
0.09
0.03
-0.11
-0.24
-0.27
-0.14
0.12
0.45
0.75
0.95
1.01
0.95
0.81
0.69
0.64
0.68
0.74
0.76
0.67
0.54
0.46
0.55
0.80
1.06
1.13
0.86
0.26
-0.45
-1.04
-1.31
-1.24
-0.95
-0.55
-0.08
0.48
1.20
2.08
2.99
3.74
4.21
4.36
4.26
4.09
3.97
3.97
4.07
4.22
4.35
4.46
4.54
4.62
4.67
4.69
4.71
4.80
5.04
5.53
6.26
7.15
8.05
8.80
9.24
9.32
9.05
8.52
7.91
7.36
7.01
6.92
7.03
7.23
7.36
7.36
7.21
6.98
6.74
6.52
6.21
5.62
4.47
2.57
-0.15
-3.49
-7.09
-10.43
-13.05
-14.67
-15.23
-14.87
-13.79
-12.20
-10.25
-8.10
-5.91
-3.92
-2.33
-1.25
-0.61
-0.24
0.06
0.35
0.50
0.25
-0.66
-2.32
-4.56
-7.06
-9.42
-11.34
-12.69
-13.46
-13.74
-13.66
-13.38
-13.04
-12.80
-12.74
-12.84
-12.97
-12.92
-12.55
-11.83
-10.86
-9.77
-8.65
-7.52
-6.32
-5.06
-3.79
-2.65
-1.80
-1.32
-1.14
-1.06
-0.84
-0.28
0.64
1.76
2.83
3.60
3.94
3.88
3.59
3.22
2.89
2.62
2.36
2.07
1.76
1.50
1.33
1.26
1.26
1.28
1.26
1.21
1.16
1.11
1.04
0.91
0.64
0.24
-0.21
-0.56
-0.69
-0.56
-0.24
0.10
0.28
0.26
0.11
0.00
0.09
0.41
0.86
1.29
1.55
1.61
1.58
1.60
1.78
2.12
2.51
2.80
2.86
2.70
2.40
2.10
1.90
1.82
1.78
1.68
1.48
1.19
0.95
0.87
1.03
1.41
1.93
2.42
2.79
2.95
2.93
2.79
2.62
2.50
2.47
2.54
2.65
2.75
2.75
2.64
2.38
2.04
1.71
1.51
1.53
1.76
2.03
2.08
1.67
0.75
-0.52
-1.80
-2.73
-3.17
-3.18
-2.99
-2.85
-2.83
-2.87
-2.81
-2.54
-2.15
-1.81
-1.68
-1.79
-2.06
-2.28
-2.28
-2.03
-1.59
-1.10
-0.60
-0.12
0.39
0.96
1.53
2.07
2.61
3.31
4.37
5.94
7.94
10.08
11.94
13.20
13.74
13.68
13.20
12.46
11.50
10.31
8.92
7.42
5.98
4.73
3.70
2.79
1.84
0.73
-0.59
-2.11
-3.74
-5.38
-6.86
-8.07
-8.93
-9.48
-9.81
-10.01
-10.11
-10.01
-9.61
-8.92
-8.15
-7.66
-7.79
-8.72
-10.31
-12.16
-13.79
-14.84
-15.19
-14.94
-14.32
-13.54
-12.70
-11.81
-10.84
-9.80
-8.71
-7.65
-6.64
-5.71
-4.84
-4.01
-3.20
-2.41
-1.66
-0.97
-0.40
0.02
0.26
0.32
0.31
0.36
0.56
0.98
1.56
2.22
2.85
3.39
3.80
4.07
4.18
4.09
3.81
3.40
2.94
2.53
2.25
2.12
2.09
2.08
2.01
1.81
1.46
0.97
0.41
-0.12
-0.54
-0.79
-0.85
-0.76
-0.54
-0.23
0.14
0.56
1.01
1.45
1.84
2.18
2.46
2.69
2.88
3.04
3.15
3.21
3.20
3.15
3.12
3.19
3.42
3.86
4.47
5.14
5.77
6.24
6.53
6.68
6.77
6.85
6.96
7.06
7.16
7.26
7.42
7.68
8.07
8.58
9.18
9.80
10.41
11.00
11.58
12.18
12.85
13.60
14.38
15.06
15.44
15.29
14.48
13.01
11.03
8.83
6.65
4.69
2.98
1.46
0.05
-1.33
-2.70
-4.06
-5.40
-6.74
-8.06
-9.36
-10.57
-11.63
-12.53
-13.29
-14.01
-14.77
-15.60
-16.44
-17.12
-17.49
-17.40
-16.84
-15.91
-14.79
-13.69
-12.72
-11.95
-11.32
-10.77
-10.22
-9.68
-9.13
-8.61
-8.09
-7.54
-6.93
-6.23
-5.50
-4.83
-4.29
-3.90
-3.62
-3.31
-2.87
-2.25
-1.49
-0.72
-0.06
0.44
0.81
1.14
1.52
1.95
2.36
2.65
2.73
2.58
2.29
1.94
1.64
1.41
1.23
1.06
0.88
0.68
0.49
0.34
0.23
0.18
0.18
0.20
0.23
0.27
0.30
0.31
0.28
0.17
-0.05
-0.35
-0.69
-1.00
-1.23
-1.39
-1.52
-1.64
-1.76
-1.81
-1.69
-1.37
-0.87
-0.31
0.22
0.64
0.96
1.20
1.41
1.58
1.68
1.71
1.70
1.73
1.85
2.07
2.35
2.63
2.85
2.99
3.07
3.12
3.16
3.21
3.26
3.32
3.39
3.47
3.55
3.59
3.57
3.47
3.30
3.11
2.91
2.69
2.41
2.03
1.58
1.13
0.78
0.58
0.50
0.45
0.33
0.09
-0.23
-0.55
-0.81
-0.97
-1.05
-1.07
-1.02
-0.87
-0.62
-0.27
0.11
0.48
0.80
1.03
1.19
1.28
1.27
1.16
0.98
0.78
0.64
0.63
0.79
1.07
1.39
1.63
1.73
1.67
1.54
1.43
1.41
1.48
1.57
1.57
1.40
1.06
0.67
0.36
0.26
0.38
0.62
0.79
0.74
0.42
-0.10
-0.73
-1.35
-1.90
-2.36
-2.70
-2.87
-2.80
-2.44
-1.84
-1.10
-0.38
0.19
0.55
0.75
0.89
1.10
1.45
1.97
2.61
3.27
3.84
4.20
4.29
4.11
3.72
3.23
2.76
2.44
2.34
2.55
3.10
3.94
4.89
5.68
5.93
5.38
3.93
1.82
-0.51
-2.52
-3.84
-4.35
-4.22
-3.80
-3.45
-3.36
-3.53
-3.84
-4.15
-4.39
-4.54
-4.63
-4.65
-4.54
-4.24
-3.72
-3.04
-2.32
-1.72
-1.32
-1.11
-0.96
-0.72
-0.31
0.25
0.85
1.37
1.71
1.87
1.91
1.86
1.74
1.54
1.26
0.93
0.67
0.57
0.65
0.84
1.01
1.03
0.91
0.72
0.56
0.50
0.47
0.37
0.11
-0.31
-0.79
-1.21
-1.46
-1.54
-1.54
-1.54
-1.61
-1.74
-1.88
-2.00
-2.07
-2.11
-2.10
-2.05
-1.90
-1.61
-1.18
-0.65
-0.11
0.34
0.69
0.96
1.20
1.46
1.73
1.96
2.09
2.12
2.07
2.02
2.01
2.01
1.95
1.78
1.46
1.05
0.63
0.30
0.14
0.15
0.28
0.46
0.61
0.71
0.72
0.65
0.52
0.34
0.12
-0.13
-0.41
-0.69
-0.98
-1.27
-1.54
-1.76
-1.86
-1.78
-1.49
-1.03
-0.45
0.18
0.84
1.57
2.40
3.34
4.31
5.16
5.76
6.03
5.99
5.84
5.81
6.12
6.86
7.96
9.17
10.21
10.87
11.14
11.27
11.61
12.47
13.91
15.69
17.35
18.43
18.70
18.27
17.59
17.22
17.70
19.24
21.74
24.71
27.49
29.45
30.22
29.74
28.32
26.60
25.41
25.63
27.83
31.89
36.75
40.57
41.36
37.80
29.98
19.42
8.50
-0.55
-6.58
-9.75
-11.18
-12.12
-13.36
-15.03
-16.86
-18.65
-20.49
-22.70
-25.52
-28.88
-32.31
-35.06
-36.48
-36.23
-34.40
-31.49
-28.13
-24.91
-22.14
-19.88
-18.06
-16.58
-15.53
-15.09
-15.53
-16.95
-19.15
-21.57
-23.45
-24.04
-22.81
-19.64
-14.71
-8.41
-1.08
7.01
15.68
24.74
33.90
42.77
50.96
58.26
64.68
70.39
75.57
80.18
83.87
85.94
85.53
81.85
74.45
63.46
49.60
34.10
18.38
3.64
-9.37
-20.47
-29.84
-37.80
-44.56
-50.15
-54.52
-57.70
-59.83
-61.20
-62.04
-62.44
-62.34
-61.64
-60.30
-58.48
-56.45
-54.50
-52.77
-51.13
-49.29
-46.92
-43.86
-40.18
-36.20
-32.34
-28.88
-25.97
-23.58
-21.60
-19.96
-18.59
-17.40
-16.28
-15.08
-13.67
-12.02
-10.24
-8.50
-7.01
-5.90
-5.17
-4.74
-4.48
-4.26
-4.04
-3.83
-3.68
-3.63
-3.65
-3.68
-3.65
-3.58
-3.55
-3.71
-4.08
-4.60
-5.08
-5.37
-5.45
-5.46
-5.62
-6.11
-6.90
-7.79
-8.51
-8.85
-8.77
-8.38
-7.83
-7.22
-6.58
-5.83
-4.93
-3.87
-2.76
-1.76
-1.00
-0.52
-0.27
-0.14
0.00
0.21
0.46
0.68
0.78
0.72
0.53
0.29
0.08
-0.02
0.01
0.21
0.56
1.00
1.44
1.75
1.81
1.55
0.99
0.23
-0.55
-1.21
-1.66
-1.92
-2.05
-2.13
-2.24
-2.41
-2.65
-3.02
-3.54
-4.26
-5.09
-5.88
-6.39
-6.41
-5.85
-4.79
-3.44
-2.02
-0.67
0.54
1.64
2.62
3.45
4.08
4.47
4.67
4.76
4.79
4.77
4.67
4.44
4.05
3.57
3.09
2.66
2.32
2.01
1.65
1.22
0.75
0.32
0.06
0.05
0.31
0.83
1.57
2.50
3.57
4.68
5.69
6.37
6.50
5.95
4.71
2.99
1.12
-0.50
-1.61
-2.06
-1.89
-1.22
-0.21
0.99
2.28
3.55
4.69
5.58
6.13
6.29
6.13
5.76
5.31
4.92
4.68
4.64
4.79
5.11
5.51
5.92
6.26
6.51
6.74
7.05
7.57
8.38
9.56
11.14
13.08
15.20
17.24
18.83
19.68
19.63
18.73
17.18
15.29
13.28
11.29
9.36
7.50
5.66
3.81
1.88
-0.20
-2.45
-4.79
-7.01
-8.89
-10.24
-11.01
-11.29
-11.23
-10.93
-10.37
-9.43
-7.97
-5.94
-3.44
-0.64
2.35
5.51
8.92
12.55
16.10
19.06
20.84
21.10
19.94
17.91
15.71
13.87
12.49
11.32
9.94
8.07
5.70
3.04
0.36
-2.15
-4.44
-6.53
-8.42
-10.03
-11.24
-11.94
-12.15
-11.95
-11.48
-10.81
-9.87
-8.41
-6.10
-2.68
1.87
7.22
12.71
17.44
20.57
21.53
20.28
17.28
13.36
9.43
6.18
3.84
2.15
0.56
-1.52
-4.42
-8.09
-12.15
-16.06
-19.41
-22.00
-23.84
-25.04
-25.70
-25.83
-25.43
-24.60
-23.47
-22.19
-20.75
-18.94
-16.45
-12.99
-8.47
-3.14
2.58
8.15
13.11
17.13
19.98
21.55
21.92
21.33
20.21
19.00
18.06
17.45
16.93
16.10
14.59
12.23
9.15
5.73
2.39
-0.54
-2.96
-4.98
-6.76
-8.43
-9.94
-11.05
-11.42
-10.72
-8.73
-5.43
-0.96
4.34
10.03
15.55
20.29
23.67
25.28
25.01
23.10
20.16
16.94
14.10
11.93
10.26
8.58
6.28
2.96
-1.35
-6.25
-11.17
-15.61
-19.30
-22.24
-24.57
-26.42
-27.82
-28.73
-29.07
-28.80
-27.91
-26.43
-24.33
-21.57
-18.07
-13.85
-9.03
-3.85
1.31
6.10
10.24
13.60
16.20
18.17
19.67
20.82
21.67
22.19
22.25
21.70
20.44
18.46
15.90
13.00
10.00
7.06
4.22
1.44
-1.30
-3.95
-6.37
-8.41
-9.97
-11.07
-11.85
-12.46
-12.96
-13.19
-12.81
-11.42
-8.73
-4.72
0.28
5.70
10.87
15.19
18.25
19.82
19.85
18.49
16.13
13.37
10.89
9.14
8.12
7.36
6.14
3.89
0.50
-3.61
-7.73
-11.24
-13.84
-15.62
-16.83
-17.70
-18.31
-18.65
-18.73
-18.66
-18.64
-18.78
-19.08
-19.28
-18.98
-17.79
-15.50
-12.25
-8.52
-5.02
-2.47
-1.27
-1.32
-1.99
-2.26
-1.09
2.17
7.44
13.81
19.73
23.64
24.60
22.74
19.21
15.68
13.51
13.17
14.12
15.24
15.48
14.40
12.24
9.65
7.17
4.95
2.75
0.19
-2.89
-6.33
-9.66
-12.35
-14.01
-14.55
-14.08
-12.90
-11.27
-9.37
-7.28
-5.04
-2.70
-0.38
1.75
3.53
4.83
5.64
6.02
6.06
5.84
5.37
4.61
3.46
1.86
-0.17
-2.50
-4.84
-6.85
-8.22
-8.78
-8.56
-7.79
-6.79
-5.91
-5.39
-5.31
-5.59
-6.09
-6.62
-7.04
-7.27
-7.28
-7.02
-6.49
-5.68
-4.59
-3.32
-1.97
-0.71
0.31
1.00
1.37
1.52
1.61
1.76
2.00
2.31
2.57
2.69
2.66
2.52
2.34
2.18
2.05
1.92
1.80
1.71
1.72
1.88
2.14
2.34
2.32
1.94
1.19
0.16
-0.93
-1.83
-2.33
-2.32
-1.81
-0.93
0.10
1.11
1.99
2.73
3.39
4.02
4.62
5.14
5.51
5.73
5.82
5.81
5.70
5.46
5.08
4.63
4.26
4.14
4.34
4.77
5.22
5.47
5.35
4.89
4.22
3.54
2.97
2.55
2.29
2.22
2.38
2.80
3.41
4.02
4.41
4.42
4.08
3.56
3.16
3.07
3.32
3.76
4.18
4.39
4.32
3.99
3.45
2.68
1.66
0.37
-1.10
-2.57
-3.85
-4.76
-5.26
-5.41
-5.35
-5.20
-5.01
-4.80
-4.58
-4.36
-4.23
-4.26
-4.50
-4.88
-5.27
-5.51
-5.50
-5.27
-4.97
-4.77
-4.81
-5.05
-5.30
-5.34
-4.99
-4.23
-3.21
-2.17
-1.31
-0.75
-0.49
-0.43
-0.49
-0.60
-0.71
-0.84
-0.94
-0.99
-0.95
-0.81
-0.60
-0.42
-0.36
-0.44
-0.62
-0.80
-0.88
-0.79
-0.56
-0.25
0.04
0.19
0.14
-0.12
-0.55
-1.05
-1.51
-1.86
-2.10
-2.22
-2.24
-2.13
-1.83
-1.31
-0.61
0.14
0.77
1.20
1.45
1.66
1.98
2.51
3.19
3.91
4.50
4.88
5.03
5.01
4.88
4.69
4.47
4.20
3.90
3.57
3.23
2.92
2.64
2.38
2.08
1.73
1.32
0.90
0.54
0.24
-0.01
-0.30
-0.69
-1.21
-1.82
-2.41
-2.88
-3.14
-3.11
-2.82
-2.30
-1.62
-0.89
-0.17
0.50
1.12
1.73
2.30
2.78
3.05
3.08
2.93
2.75
2.70
2.85
3.14
3.46
3.67
3.75
3.72
3.67
3.62
3.55
3.38
3.06
2.57
1.97
1.31
0.69
0.17
-0.19
-0.37
-0.39
-0.31
-0.24
-0.28
-0.49
-0.89
-1.45
-2.11
-2.77
-3.32
-3.64
-3.64
-3.25
-2.49
-1.45
-0.31
0.75
1.58
2.11
2.36
2.42
2.40
2.36
2.34
2.34
2.37
2.48
2.68
2.98
3.31
3.56
3.64
3.51
3.22
2.83
2.42
2.03
1.67
1.38
1.15
0.98
0.82
0.60
0.25
-0.19
-0.64
-0.99
-1.17
-1.24
-1.35
-1.65
-2.19
-2.87
-3.48
-3.80
-3.72
-3.21
-2.38
-1.33
-0.20
0.91
1.90
2.67
3.14
3.29
3.21
3.01
2.81
2.68
2.62
2.56
2.47
2.33
2.18
2.06
2.02
2.04
2.05
1.97
1.76
1.43
1.06
0.76
0.61
0.64
0.79
0.91
0.90
0.65
0.16
-0.50
-1.20
-1.84
-2.35
-2.69
-2.87
-2.88
-2.70
-2.28
-1.59
-0.65
0.43
1.50
2.41
3.04
3.38
3.46
3.36
3.16
2.94
2.74
2.56
2.40
2.25
2.10
1.94
1.80
1.68
1.53
1.33
1.01
0.58
0.11
-0.30
-0.55
-0.60
-0.49
-0.33
-0.20
-0.16
-0.25
-0.44
-0.73
-1.11
-1.57
-2.06
-2.51
-2.82
-2.92
-2.78
-2.41
-1.86
-1.19
-0.46
0.29
1.04
1.75
2.39
2.91
3.27
3.45
3.45
3.32
3.09
2.79
2.45
2.08
1.73
1.44
1.27
1.20
1.22
1.24
1.22
1.12
0.96
0.76
0.53
0.30
0.06
-0.14
-0.25
-0.26
-0.21
-0.19
-0.31
-0.60
-0.99
-1.39
-1.68
-1.85
-1.93
-1.96
-1.98
-1.91
-1.65
-1.13
-0.36
0.54
1.43
2.17
2.70
3.04
3.26
3.41
3.51
3.60
3.67
3.77
3.89
4.02
4.11
4.11
3.99
3.81
3.65
3.64
3.83
4.18
4.59
4.95
5.19
5.35
5.53
5.84
6.31
6.82
7.12
6.95
6.13
4.64
2.60
0.26
-2.13
-4.39
-6.35
-7.93
-9.03
-9.59
-9.57
-9.01
-8.01
-6.78
-5.56
-4.57
-3.92
-3.62
-3.56
-3.55
-3.43
-3.13
-2.72
-2.35
-2.15
-2.19
-2.43
-2.75
-3.08
-3.35
-3.59
-3.82
-4.05
-4.26
-4.40
-4.41
-4.24
-3.90
-3.46
-3.02
-2.72
-2.64
-2.81
-3.16
-3.57
-3.89
-4.03
-3.93
-3.65
-3.23
-2.70
-2.07
-1.30
-0.35
0.76
1.95
3.11
4.11
4.86
5.33
5.55
5.58
5.49
5.28
4.95
4.44
3.73
2.85
1.89
0.95
0.13
-0.53
-1.06
-1.49
-1.84
-2.09
-2.20
-2.16
-2.00
-1.83
-1.72
-1.74
-1.89
-2.11
-2.34
-2.55
-2.71
-2.84
-2.92
-2.96
-2.89
-2.68
-2.26
-1.60
-0.74
0.25
1.26
2.19
2.97
3.57
4.00
4.28
4.40
4.36
4.19
3.94
3.70
3.55
3.51
3.60
3.77
3.98
4.18
4.34
4.48
4.63
4.81
5.05
5.29
5.43
5.33
4.87
3.99
2.75
1.27
-0.28
-1.73
-2.99
-4.01
-4.77
-5.31
-5.66
-5.88
-6.03
-6.14
-6.23
-6.26
-6.16
-5.86
-5.36
-4.68
-3.94
-3.26
-2.69
-2.26
-1.91
-1.60
-1.33
-1.15
-1.09
-1.11
-1.13
-1.07
-0.88
-0.67
-0.55
-0.65
-0.97
-1.37
-1.69
-1.79
-1.64
-1.33
-0.96
-0.67
-0.53
-0.60
-0.93
-1.47
-2.14
-2.80
-3.31
-3.62
-3.77
-3.83
-3.85
-3.77
-3.50
-2.96
-2.15
-1.21
-0.34
0.35
0.83
1.20
1.59
2.03
2.47
2.77
2.81
2.59
2.20
1.78
1.47
1.27
1.11
0.89
0.54
0.10
-0.33
-0.62
-0.69
-0.57
-0.35
-0.14
-0.05
-0.10
-0.30
-0.63
-1.04
-1.51
-2.00
-2.48
-2.92
-3.32
-3.67
-3.96
-4.15
-4.17
-3.97
-3.51
-2.83
-2.04
-1.25
-0.58
-0.07
0.33
0.74
1.24
1.84
2.44
2.88
3.06
2.95
2.66
2.34
2.15
2.13
2.21
2.30
2.27
2.08
1.77
1.38
0.99
0.62
0.30
0.04
-0.16
-0.31
-0.45
-0.58
-0.74
-0.93
-1.15
-1.39
-1.67
-2.00
-2.38
-2.79
-3.13
-3.30
-3.20
-2.76
-1.98
-0.94
0.22
1.33
2.27
2.97
3.41
3.68
3.82
3.88
3.83
3.63
3.24
2.72
2.14
1.67
1.40
1.39
1.58
1.86
2.09
2.17
2.05
1.78
1.42
1.09
0.88
0.83
0.89
0.97
0.91
0.64
0.17
-0.42
-0.98
-1.42
-1.70
-1.89
-2.10
-2.39
-2.76
-3.14
-3.42
-3.48
-3.31
-2.95
-2.47
-1.89
-1.20
-0.36
0.63
1.70
2.67
3.34
3.59
3.44
3.03
2.61
2.36
2.34
2.50
2.71
2.83
2.81
2.67
2.46
2.18
1.84
1.45
1.03
0.66
0.38
0.24
0.18
0.12
-0.03
-0.28
-0.62
-1.00
-1.34
-1.61
-1.81
-1.94
-2.00
-2.00
-1.95
-1.95
-2.10
-2.47
-3.05
-3.75
-4.36
-4.70
-4.64
-4.18
-3.42
-2.54
-1.68
-0.94
-0.33
0.17
0.59
0.93
1.20
1.42
1.60
1.78
1.97
2.21
2.49
2.74
2.90
2.90
2.71
2.37
1.96
1.59
1.28
1.02
0.76
0.45
0.14
-0.08
-0.14
-0.06
0.07
0.08
-0.17
-0.66
-1.29
-1.87
-2.24
-2.35
-2.25
-2.11
-2.06
-2.20
-2.58
-3.15
-3.81
-4.43
-4.87
-5.01
-4.82
-4.30
-3.52
-2.53
-1.43
-0.30
0.74
1.63
2.30
2.76
3.06
3.26
3.42
3.55
3.63
3.63
3.53
3.32
3.02
2.61
2.14
1.65
1.23
0.97
0.89
0.91
0.90
0.74
0.38
-0.12
-0.60
-0.91
-1.00
-0.92
-0.82
-0.83
-1.05
-1.43
-1.87
-2.27
-2.59
-2.83
-3.01
-3.13
-3.11
-2.86
-2.33
-1.60
-0.79
-0.06
0.52
0.97
1.37
1.77
2.18
2.54
2.77
2.84
2.77
2.59
2.37
2.13
1.91
1.71
1.56
1.47
1.47
1.53
1.63
1.70
1.67
1.47
1.09
0.60
0.10
-0.31
-0.60
-0.79
-0.99
-1.28
-1.67
-2.08
-2.43
-2.66
-2.75
-2.78
-2.79
-2.83
-2.90
-2.97
-2.97
-2.84
-2.54
-2.05
-1.42
-0.72
-0.09
0.39
0.71
0.91
1.12
1.43
1.84
2.26
2.55
2.66
2.59
2.44
2.33
2.30
2.30
2.22
1.96
1.52
1.02
0.62
0.44
0.50
0.68
0.84
0.83
0.61
0.22
-0.21
-0.60
-0.91
-1.21
-1.55
-1.99
-2.47
-2.92
-3.22
-3.36
-3.41
-3.45
-3.55
-3.65
-3.61
-3.28
-2.62
-1.73
-0.78
0.04
0.64
1.02
1.25
1.40
1.48
1.51
1.47
1.40
1.39
1.48
1.68
1.94
2.20
2.38
2.50
2.58
2.64
2.63
2.50
2.15
1.59
0.91
0.28
-0.16
-0.35
-0.41
-0.47
-0.67
-1.02
-1.37
-1.58
-1.55
-1.36
-1.16
-1.13
-1.33
-1.71
-2.10
-2.37
-2.47
-2.41
-2.23
-1.95
-1.54
-0.95
-0.21
0.57
1.22
1.59
1.59
1.29
0.88
0.59
0.59
0.86
1.29
1.65
1.80
1.70
1.43
1.14
0.94
0.85
0.80
0.70
0.50
0.20
-0.13
-0.44
-0.68
-0.82
-0.89
-0.94
-0.99
-1.08
-1.17
-1.24
-1.26
-1.22
-1.21
-1.34
-1.69
-2.26
-2.93
-3.49
-3.75
-3.58
-3.01
-2.15
-1.16
-0.20
0.62
1.24
1.64
1.87
1.97
2.01
2.00
1.96
1.91
1.90
1.97
2.12
2.32
2.46
2.44
2.22
1.85
1.44
1.10
0.87
0.71
0.54
0.29
-0.02
-0.35
-0.61
-0.76
-0.83
-0.91
-1.13
-1.53
-2.06
-2.56
-2.88
-2.95
-2.84
-2.70
-2.65
-2.66
-2.56
-2.17
-1.39
-0.35
0.70
1.48
1.86
1.90
1.78
1.73
1.83
2.07
2.34
2.50
2.45
2.18
1.77
1.33
0.98
0.80
0.77
0.82
0.86
0.83
0.70
0.50
0.25
-0.03
-0.35
-0.66
-0.91
-1.06
-1.05
-0.93
-0.76
-0.65
-0.70
-0.96
-1.43
-2.02
-2.65
-3.20
-3.56
-3.64
-3.44
-2.97
-2.32
-1.60
-0.91
-0.30
0.23
0.72
1.20
1.69
2.15
2.54
2.81
2.95
2.99
2.97
2.89
2.75
2.50
2.13
1.71
1.37
1.23
1.34
1.63
1.90
1.94
1.63
1.01
0.23
-0.49
-0.98
-1.21
-1.23
-1.15
-1.09
-1.09
-1.15
-1.22
-1.30
-1.41
-1.61
-1.94
-2.36
-2.76
-3.01
-2.98
-2.68
-2.19
-1.69
-1.32
-1.13
-1.08
-1.07
-0.99
-0.76
-0.34
0.28
1.04
1.88
2.65
3.18
3.36
3.17
2.74
2.29
2.05
2.15
2.53
2.99
3.27
3.19
2.71
1.96
1.15
0.48
0.06
-0.10
-0.08
0.04
0.14
0.15
0.01
-0.34
-0.86
-1.48
-2.06
-2.48
-2.69
-2.73
-2.72
-2.77
-2.94
-3.21
-3.52
-3.81
-4.02
-4.12
-4.07
-3.82
-3.36
-2.69
-1.90
-1.12
-0.47
-0.02
0.25
0.43
0.60
0.80
1.04
1.26
1.46
1.62
1.79
1.95
2.06
2.06
1.94
1.73
1.53
1.46
1.55
1.76
1.95
1.99
1.83
1.48
1.02
0.51
0.01
-0.47
-0.92
-1.31
-1.61
-1.77
-1.80
-1.71
-1.59
-1.51
-1.60
-1.89
-2.37
-2.91
-3.31
-3.40
-3.11
-2.51
-1.78
-1.10
-0.60
-0.26
-0.00
0.28
0.63
1.02
1.37
1.62
1.75
1.79
1.80
1.79
1.78
1.77
1.73
1.67
1.63
1.62
1.65
1.73
1.81
1.89
1.96
1.99
1.93
1.75
1.43
1.01
0.56
0.16
-0.13
-0.33
-0.48
-0.62
-0.75
-0.87
-0.91
-0.89
-0.86
-0.91
-1.12
-1.49
-1.95
-2.41
-2.74
-2.87
-2.79
-2.51
-2.05
-1.47
-0.84
-0.21
0.36
0.83
1.19
1.44
1.62
1.76
1.89
2.05
2.22
2.38
2.48
2.49
2.37
2.16
1.93
1.76
1.73
1.84
2.00
2.11
2.08
1.88
1.58
1.22
0.86
0.50
0.13
-0.24
-0.56
-0.78
-0.87
-0.85
-0.84
-0.96
-1.26
-1.74
-2.31
-2.86
-3.32
-3.66
-3.89
-3.99
-3.93
-3.68
-3.21
-2.57
-1.87
-1.21
-0.68
-0.33
-0.12
0.02
0.19
0.47
0.87
1.36
1.80
2.07
2.08
1.83
1.39
0.95
0.63
0.54
0.67
0.97
1.32
1.66
1.90
1.99
1.89
1.62
1.22
0.76
0.36
0.07
-0.11
-0.26
-0.49
-0.86
-1.37
-1.94
-2.48
-2.90
-3.15
-3.25
-3.24
-3.12
-2.90
-2.54
-1.99
-1.28
-0.48
0.29
0.92
1.36
1.63
1.83
2.04
2.28
2.47
2.49
2.27
1.84
1.36
1.04
1.04
1.36
1.88
2.36
2.59
2.46
2.00
1.32
0.63
0.06
-0.30
-0.47
-0.52
-0.56
-0.63
-0.74
-0.85
-0.92
-0.97
-1.01
-1.10
-1.29
-1.58
-1.95
-2.35
-2.76
-3.13
-3.41
-3.49
-3.29
-2.77
-2.00
-1.15
-0.39
0.14
0.46
0.65
0.84
1.06
1.31
1.48
1.51
1.39
1.17
0.93
0.72
0.57
0.48
0.45
0.48
0.59
0.76
0.94
1.05
1.05
0.91
0.70
0.54
0.52
0.62
0.74
0.70
0.38
-0.21
-0.89
-1.45
-1.78
-1.92
-2.02
-2.29
-2.74
-3.24
-3.53
-3.39
-2.80
-1.93
-1.02
-0.29
0.19
0.49
0.74
1.00
1.28
1.51
1.66
1.73
1.80
1.95
2.21
2.51
2.73
2.77
2.60
2.26
1.86
1.51
1.30
1.21
1.20
1.17
1.08
0.89
0.67
0.45
0.27
0.11
-0.06
-0.29
-0.58
-0.91
-1.21
-1.42
-1.56
-1.69
-1.90
-2.27
-2.75
-3.24
-3.60
-3.70
-3.52
-3.10
-2.52
-1.86
-1.18
-0.50
0.20
0.89
1.54
2.06
2.40
2.53
2.49
2.32
2.13
1.95
1.79
1.63
1.46
1.33
1.27
1.31
1.40
1.45
1.35
1.04
0.59
0.15
-0.13
-0.16
0.04
0.31
0.49
0.45
0.20
-0.19
-0.62
-1.00
-1.31
-1.59
-1.87
-2.19
-2.50
-2.74
-2.86
-2.80
-2.60
-2.28
-1.93
-1.57
-1.19
-0.75
-0.25
0.32
0.90
1.40
1.73
1.83
1.73
1.52
1.33
1.26
1.33
1.47
1.56
1.49
1.23
0.83
0.39
0.05
-0.15
-0.22
-0.24
-0.28
-0.37
-0.49
-0.55
-0.50
-0.35
-0.16
-0.04
-0.05
-0.16
-0.30
-0.38
-0.36
-0.32
-0.38
-0.68
-1.24
-1.96
-2.66
-3.15
-3.31
-3.15
-2.77
-2.32
-1.90
-1.53
-1.19
-0.83
-0.43
-0.03
0.36
0.72
1.06
1.39
1.69
1.95
2.14
2.27
2.36
2.46
2.55
2.60
2.54
2.33
2.03
1.72
1.50
1.37
1.27
1.08
0.74
0.26
-0.25
-0.65
-0.86
-0.91
-0.93
-1.06
-1.35
-1.78
-2.22
-2.54
-2.68
-2.66
-2.58
-2.51
-2.49
-2.46
-2.31
-1.96
-1.40
-0.71
-0.02
0.58
1.03
1.34
1.52
1.61
1.58
1.44
1.22
1.00
0.86
0.88
1.02
1.21
1.35
1.38
1.36
1.36
1.42
1.51
1.54
1.42
1.12
0.73
0.37
0.14
0.07
0.07
0.07
-0.02
-0.20
-0.44
-0.70
-1.01
-1.38
-1.84
-2.39
-2.93
-3.36
-3.56
-3.43
-2.97
-2.25
-1.43
-0.65
-0.04
0.38
0.61
0.73
0.81
0.91
1.08
1.33
1.65
1.98
2.24
2.33
2.22
1.98
1.71
1.51
1.43
1.44
1.46
1.42
1.32
1.24
1.24
1.34
1.44
1.42
1.19
0.73
0.15
-0.38
-0.73
-0.87
-0.90
-0.97
-1.21
-1.67
-2.27
-2.85
-3.25
-3.40
-3.28
-2.95
-2.50
-2.01
-1.49
-0.97
-0.43
0.12
0.63
1.07
1.40
1.61
1.70
1.74
1.78
1.86
1.99
2.12
2.22
2.25
2.17
2.02
1.83
1.62
1.39
1.15
0.90
0.63
0.39
0.21
0.14
0.21
0.40
0.63
0.78
0.74
0.45
-0.01
-0.53
-0.96
-1.23
-1.37
-1.45
-1.54
-1.68
-1.87
-2.01
-2.03
-1.85
-1.44
-0.79
0.06
1.04
2.08
3.10
3.98
4.66
5.07
5.24
5.27
5.39
5.81
6.67
7.95
9.48
11.03
12.44
13.69
14.87
16.09
17.44
18.97
20.74
22.82
25.22
27.80
30.22
32.05
33.02
33.23
33.13
33.33
34.22
35.72
37.22
37.95
37.26
34.97
31.29
26.71
21.76
16.88
12.51
9.11
7.15
6.99
8.74
12.14
16.69
21.82
27.08
32.13
36.77
40.77
43.98
46.41
48.30
50.12
52.38
55.36
58.88
62.28
64.63
64.96
62.58
57.16
48.77
37.86
25.20
11.80
-1.22
-12.94
-22.87
-31.09
-38.18
-44.90
-51.80
-58.96
-65.94
-72.02
-76.51
-79.06
-79.73
-78.90
-77.06
-74.69
-72.11
-69.51
-67.03
-64.73
-62.61
-60.56
-58.41
-55.96
-53.07
-49.80
-46.35
-43.00
-40.02
-37.52
-35.44
-33.61
-31.82
-29.94
-27.92
-25.83
-23.78
-21.91
-20.27
-18.89
-17.70
-16.62
-15.58
-14.59
-13.69
-12.96
-12.46
-12.19
-12.08
-12.02
-11.92
-11.72
-11.44
-11.11
-10.82
-10.63
-10.61
-10.77
-11.06
-11.41
-11.78
-12.15
-12.53
-12.91
-13.27
-13.52
-13.56
-13.31
-12.78
-11.99
-11.02
-9.96
-8.85
-7.73
-6.64
-5.62
-4.76
-4.12
-3.74
-3.61
-3.61
-3.59
-3.43
-3.06
-2.57
-2.09
-1.76
-1.63
-1.67
-1.71
-1.63
-1.34
-0.87
-0.32
0.17
0.51
0.65
0.58
0.33
-0.06
-0.52
-0.99
-1.38
-1.64
-1.73
-1.63
-1.43
-1.23
-1.18
-1.40
-1.89
-2.54
-3.11
-3.34
-3.08
-2.34
-1.34
-0.35
0.42
0.94
1.32
1.72
2.27
2.93
3.59
4.08
4.32
4.31
4.12
3.88
3.66
3.50
3.39
3.31
3.21
3.11
3.03
3.01
3.05
3.17
3.31
3.51
3.82
4.39
5.32
6.64
8.17
9.62
10.71
11.24
11.23
10.79
10.05
9.05
7.75
6.07
4.10
2.05
0.33
-0.69
-0.79
0.01
1.42
3.06
4.60
5.80
6.61
7.08
7.31
7.33
7.17
6.80
6.24
5.55
4.85
4.24
3.79
3.50
3.35
3.26
3.22
3.20
3.21
3.22
3.20
3.09
2.86
2.50
2.07
1.63
1.23
0.85
0.40
-0.25
-1.17
-2.38
-3.79
-5.28
-6.75
-8.12
-9.35
-10.34
-11.00
-11.14
-10.62
-9.39
-7.54
-5.31
-2.99
-0.90
0.77
1.93
2.62
2.97
3.21
3.52
4.04
4.75
5.53
6.12
6.28
5.88
4.95
3.73
2.55
1.75
1.57
2.00
2.86
3.80
4.47
4.62
4.22
3.46
2.67
2.18
2.17
2.61
3.31
4.01
4.46
4.52
4.19
3.50
2.59
1.60
0.67
-0.05
-0.43
-0.41
0.02
0.79
1.79
2.89
3.98
4.95
5.74
6.33
6.71
6.91
6.94
6.78
6.41
5.81
5.00
4.07
3.16
2.46
2.09
2.12
2.50
3.05
3.53
3.71
3.47
2.79
1.79
0.67
-0.35
-1.11
-1.57
-1.78
-1.88
-2.02
-2.31
-2.72
-3.11
-3.30
-3.08
-2.38
-1.25
0.12
1.51
2.75
3.78
4.61
5.27
5.75
6.04
6.08
5.89
5.54
5.16
4.85
4.61
4.37
3.99
3.39
2.57
1.68
0.92
0.47
0.39
0.60
0.91
1.12
1.12
0.95
0.76
0.72
0.90
1.22
1.41
1.22
0.49
-0.67
-1.97
-2.98
-3.43
-3.25
-2.63
-1.91
-1.36
-1.12
-1.13
-1.30
-1.49
-1.62
-1.66
-1.56
-1.25
-0.70
0.06
0.92
1.69
2.21
2.39
2.24
1.85
1.33
0.78
0.28
-0.15
-0.48
-0.72
-0.88
-0.95
-0.95
-0.91
-0.89
-0.96
-1.21
-1.66
-2.21
-2.67
-2.85
-2.61
-2.01
-1.17
-0.28
0.51
1.16
1.70
2.20
2.66
3.10
3.52
3.91
4.29
4.64
4.97
5.25
5.52
5.80
6.10
6.38
6.54
6.50
6.17
5.57
4.77
3.90
3.09
2.45
2.04
1.81
1.67
1.50
1.19
0.73
0.19
-0.37
-0.88
-1.33
-1.71
-1.99
-2.08
-1.90
-1.41
-0.69
0.17
1.06
1.93
2.78
3.59
4.25
4.68
4.76
4.52
4.07
3.57
3.16
2.90
2.78
2.75
2.76
2.76
2.70
2.58
2.40
2.17
