1660933449.00
64.000000
-0.00
-0.00
-0.00
-0.00
-0.00
-0.00
-0.00
-0.00
-0.00
-0.00
0.00
0.01
0.01
-0.00
-0.03
-0.05
-0.05
0.00
0.13
0.36
0.66
1.01
1.37
1.72
2.06
2.40
2.79
3.25
3.81
4.44
5.09
5.73
6.32
6.90
7.52
8.26
9.15
10.26
11.48
12.70
13.79
14.75
15.63
16.64
18.00
19.83
22.32
25.26
28.35
31.32
34.04
36.64
39.48
42.99
47.46
53.21
59.80
66.71
73.40
79.61
85.56
91.84
99.16
107.95
118.57
130.33
142.37
153.87
164.51
174.65
185.15
197.38
209.84
224.40
241.28
260.39
280.63
299.52
313.28
317.71
309.51
287.48
253.34
210.31
162.34
112.81
63.79
16.28
-29.29
-72.52
-113.00
-150.35
-185.22
-218.98
-253.28
-289.21
-326.34
-362.26
-392.85
-413.64
-421.22
-414.78
-396.44
-370.40
-341.35
-312.79
-286.30
-261.78
-238.46
-215.80
-194.05
-173.98
-156.18
-140.64
-126.67
-113.33
-99.91
-86.24
-72.77
-60.22
-49.22
-40.00
-32.27
-25.47
-19.00
-12.55
-6.20
-0.29
4.78
8.77
11.74
14.03
16.07
18.21
20.55
22.90
24.90
26.22
26.70
26.45
25.78
25.07
24.61
24.52
24.68
24.88
24.93
24.69
24.15
23.42
22.60
21.78
20.97
20.18
19.37
18.56
17.77
17.04
16.40
15.85
15.38
14.98
14.63
14.34
14.07
13.79
13.47
13.12
12.79
12.55
12.45
12.47
12.49
12.40
12.13
11.70
11.23
10.82
10.55
10.38
10.24
10.02
9.71
9.33
8.92
8.54
8.18
7.85
7.55
7.31
7.11
6.92
6.69
6.34
5.87
5.29
4.66
4.08
3.62
3.31
3.13
3.06
3.03
2.98
2.86
2.64
2.32
1.90
1.41
0.85
0.26
-0.34
-0.92
-1.43
-1.87
-2.24
-2.60
-3.00
-3.48
-4.08
-4.78
-5.53
-6.26
-6.92
-7.47
-7.90
-8.22
-8.41
-8.47
-8.41
-8.24
-7.98
-7.68
-7.35
-7.02
-6.70
-6.41
-6.12
-5.83
-5.49
-5.10
-4.66
-4.21
-3.81
-3.48
-3.19
-2.88
-2.48
-1.95
-1.31
-0.65
-0.06
0.43
0.80
1.13
1.46
1.86
2.33
2.80
3.19
3.40
3.40
3.19
2.87
2.55
2.36
2.36
2.54
2.82
3.10
3.28
3.38
3.43
3.53
3.73
4.02
4.35
4.62
4.77
4.79
4.72
4.59
4.44
4.25
4.04
3.84
3.72
3.77
4.00
4.35
4.67
4.82
4.68
4.25
3.67
3.12
2.75
2.63
2.68
2.78
2.81
2.76
2.70
2.69
2.79
2.94
3.03
2.98
2.80
2.58
2.42
2.40
2.50
2.66
2.79
2.83
2.79
2.68
2.51
2.32
2.09
1.85
1.60
1.39
1.24
1.21
1.32
1.53
1.79
1.97
1.97
1.78
1.45
1.11
0.90
0.87
0.99
1.17
1.31
1.37
1.36
1.32
1.29
1.29
1.31
1.30
1.26
1.16
0.99
0.78
0.57
0.41
0.34
0.36
0.42
0.44
0.40
0.34
0.38
0.62
1.10
1.72
2.26
2.52
2.43
2.03
1.49
1.01
0.67
0.48
0.38
0.28
0.19
0.14
0.17
0.28
0.42
0.52
0.56
0.58
0.63
0.78
1.04
1.34
1.60
1.73
1.70
1.52
1.27
1.03
0.85
0.76
0.75
0.81
0.93
1.08
1.21
1.28
1.23
1.04
0.78
0.50
0.29
0.17
0.11
0.06
-0.01
-0.07
-0.04
0.12
0.42
0.77
1.04
1.13
1.02
0.77
0.49
0.32
0.29
0.39
0.48
0.47
0.30
0.02
-0.23
-0.34
-0.25
0.01
0.32
0.57
0.73
0.79
0.80
0.81
0.81
0.78
0.69
0.57
0.47
0.45
0.54
0.73
0.94
1.09
1.10
0.95
0.68
0.35
0.06
-0.12
-0.15
-0.06
0.10
0.30
0.51
0.70
0.82
0.85
0.78
0.65
0.55
0.51
0.55
0.61
0.60
0.50
0.34
0.23
0.23
0.33
0.43
0.43
0.31
0.11
-0.06
-0.10
-0.03
0.07
0.12
0.12
0.12
0.20
0.39
0.63
0.81
0.84
0.73
0.56
0.44
0.45
0.56
0.66
0.61
0.36
-0.04
-0.46
-0.74
-0.81
-0.68
-0.47
-0.30
-0.25
-0.29
-0.32
-0.23
0.02
0.39
0.78
1.07
1.18
1.09
0.85
0.51
0.14
-0.21
-0.52
-0.74
-0.85
-0.81
-0.62
-0.30
0.08
0.43
0.68
0.79
0.79
0.77
0.79
0.89
1.07
1.23
1.28
1.17
0.87
0.42
-0.06
-0.45
-0.63
-0.56
-0.27
0.13
0.47
0.63
0.55
0.26
-0.07
-0.29
-0.25
0.06
0.55
1.02
1.31
1.31
1.03
0.56
0.04
-0.40
-0.67
-0.74
-0.61
-0.34
-0.02
0.26
0.41
0.39
0.22
-0.02
-0.20
-0.25
-0.13
0.09
0.31
0.43
0.41
0.28
0.15
0.11
0.20
0.35
0.45
0.41
0.23
0.01
-0.12
-0.09
0.06
0.19
0.18
0.02
-0.19
-0.31
-0.23
0.02
0.31
0.51
0.52
0.37
0.17
0.02
-0.06
-0.09
-0.13
-0.22
-0.32
-0.39
-0.36
-0.19
0.07
0.38
0.63
0.74
0.66
0.38
-0.01
-0.38
-0.58
-0.53
-0.29
0.04
0.28
0.34
0.21
-0.04
-0.28
-0.43
-0.46
-0.42
-0.33
-0.23
-0.12
-0.01
0.07
0.10
0.02
-0.13
-0.30
-0.41
-0.40
-0.27
-0.07
0.11
0.23
0.29
0.35
0.45
0.59
0.74
0.81
0.77
0.62
0.43
0.26
0.17
0.13
0.10
0.00
-0.18
-0.41
-0.64
-0.79
-0.81
-0.68
-0.43
-0.09
0.27
0.57
0.72
0.66
0.38
-0.03
-0.46
-0.76
-0.82
-0.60
-0.17
0.40
0.95
1.35
1.52
1.43
1.16
0.80
0.48
0.25
0.12
0.06
0.01
-0.04
-0.11
-0.18
-0.23
-0.24
-0.19
-0.07
0.16
0.44
0.70
0.81
0.70
0.36
-0.10
-0.49
-0.67
-0.56
-0.22
0.20
0.54
0.72
0.72
0.57
0.38
0.20
0.09
0.06
0.09
0.15
0.18
0.13
-0.04
-0.33
-0.68
-1.03
-1.28
-1.41
-1.38
-1.25
-1.04
-0.79
-0.54
-0.27
0.00
0.27
0.52
0.72
0.85
0.89
0.86
0.76
0.63
0.45
0.26
0.04
-0.16
-0.32
-0.40
-0.38
-0.29
-0.16
-0.02
0.12
0.27
0.44
0.62
0.75
0.78
0.65
0.36
-0.05
-0.46
-0.75
-0.83
-0.67
-0.32
0.11
0.47
0.68
0.71
0.61
0.47
0.34
0.25
0.16
0.03
-0.13
-0.26
-0.30
-0.21
-0.03
0.14
0.18
0.05
-0.20
-0.48
-0.66
-0.69
-0.58
-0.42
-0.28
-0.21
-0.19
-0.18
-0.14
-0.04
0.10
0.24
0.36
0.47
0.59
0.69
0.74
0.66
0.44
0.12
-0.19
-0.38
-0.37
-0.19
0.04
0.18
0.15
-0.04
-0.32
-0.57
-0.72
-0.72
-0.60
-0.40
-0.17
0.02
0.16
0.26
0.36
0.49
0.68
0.90
1.09
1.17
1.10
0.87
0.54
0.19
-0.12
-0.33
-0.44
-0.47
-0.46
-0.45
-0.46
-0.47
-0.44
-0.34
-0.16
0.08
0.30
0.44
0.44
0.32
0.13
-0.05
-0.17
-0.23
-0.25
-0.25
-0.26
-0.26
-0.24
-0.24
-0.27
-0.35
-0.47
-0.61
-0.74
-0.77
-0.65
-0.35
0.11
0.64
1.12
1.42
1.50
1.36
1.08
0.74
0.38
0.02
-0.35
-0.69
-0.93
-0.98
-0.83
-0.52
-0.17
0.08
0.16
0.08
-0.08
-0.24
-0.32
-0.27
-0.13
0.04
0.17
0.20
0.11
-0.05
-0.22
-0.32
-0.30
-0.17
-0.01
0.10
0.10
-0.01
-0.20
-0.40
-0.57
-0.69
-0.78
-0.85
-0.91
-0.93
-0.90
-0.85
-0.82
-0.90
-1.14
-1.53
-1.97
-2.37
-2.64
-2.76
-2.77
-2.73
-2.72
-2.77
-2.92
-3.20
-3.62
-4.16
-4.76
-5.33
-5.83
-6.20
-6.47
-6.68
-6.88
-7.13
-7.50
-8.01
-8.69
-9.46
-10.22
-10.85
-11.23
-11.30
-10.96
-10.12
-8.70
-6.63
-3.97
-0.94
2.12
4.82
6.88
8.14
8.60
8.38
7.63
6.51
5.20
3.89
2.76
1.94
1.41
1.04
0.58
-0.19
-1.44
-3.12
-5.06
-7.01
-8.80
-10.49
-12.29
-14.52
-17.39
-20.85
-24.58
-28.13
-31.18
-33.74
-36.15
-38.95
-42.58
-47.13
-52.32
-57.62
-62.60
-67.21
-71.76
-76.88
-83.10
-90.54
-98.89
-107.58
-116.01
-123.69
-130.18
-134.94
-137.57
-138.20
-137.96
-138.78
-142.47
-149.34
-157.30
-162.01
-158.33
-142.32
-112.74
-71.34
-22.06
30.31
81.18
126.59
163.38
189.32
203.48
206.65
201.33
190.94
178.90
167.65
158.25
150.68
144.30
138.36
132.29
125.75
118.62
110.95
103.01
95.20
87.95
81.63
76.44
72.29
68.90
65.85
62.79
59.52
56.15
53.03
50.60
49.27
49.17
50.18
51.95
54.02
56.05
57.88
59.64
61.65
64.28
67.80
72.27
77.48
83.05
88.65
94.09
99.49
105.16
111.40
118.42
126.34
135.29
145.49
157.07
169.64
181.80
191.09
194.39
188.82
172.70
146.00
110.04
66.82
18.52
-32.52
-83.32
-130.02
-168.36
-194.76
-207.77
-208.75
-201.33
-189.96
-178.22
-167.82
-158.74
-150.06
-141.11
-131.92
-123.04
-115.00
-107.88
-101.25
-94.57
-87.52
-80.23
-73.16
-66.80
-61.39
-56.76
-52.48
-48.07
-43.27
-38.09
-32.85
-27.94
-23.69
-20.21
-17.42
-15.15
-13.19
-11.37
-9.63
-7.97
-6.45
-5.15
-4.18
-3.58
-3.33
-3.33
-3.41
-3.42
-3.26
-2.93
-2.49
-2.04
-1.64
-1.33
-1.12
-0.98
-0.92
-0.89
-0.85
-0.73
-0.49
-0.15
0.21
0.48
0.59
0.54
0.42
0.33
0.34
0.41
0.46
0.36
0.07
-0.36
-0.83
-1.22
-1.45
-1.49
-1.36
-1.11
-0.82
-0.56
-0.42
-0.45
-0.63
-0.92
-1.19
-1.38
-1.42
-1.31
-1.09
-0.77
-0.40
-0.02
0.31
0.47
0.40
0.13
-0.25
-0.53
-0.58
-0.35
0.05
0.44
0.63
0.55
0.27
-0.07
-0.34
-0.47
-0.50
-0.48
-0.48
-0.48
-0.47
-0.41
-0.31
-0.22
-0.14
-0.08
-0.02
0.07
0.20
0.33
0.43
0.44
0.38
0.28
0.20
0.21
0.32
0.51
0.70
0.77
0.64
0.29
-0.20
-0.72
-1.13
-1.38
-1.48
-1.48
-1.43
-1.27
-0.99
-0.54
-0.04
0.35
0.49
0.33
-0.04
-0.43
-0.63
-0.59
-0.34
-0.03
0.18
0.22
0.11
-0.09
-0.30
-0.48
-0.63
-0.73
-0.76
-0.69
-0.49
-0.18
0.22
0.66
1.07
1.37
1.51
1.46
1.23
0.92
0.61
0.38
0.25
0.18
0.14
0.11
0.15
0.28
0.51
0.75
0.87
0.82
0.64
0.43
0.32
0.36
0.49
0.60
0.62
0.58
0.52
0.50
0.50
0.44
0.24
-0.12
-0.58
-1.04
-1.37
-1.54
-1.55
-1.42
-1.19
-0.88
-0.52
-0.14
0.19
0.46
0.63
0.76
0.88
1.02
1.17
1.27
1.25
1.05
0.70
0.26
-0.17
-0.51
-0.69
-0.69
-0.52
-0.22
0.15
0.54
0.92
1.30
1.71
2.17
2.65
3.05
3.23
3.09
2.59
1.78
0.84
-0.09
-0.88
-1.50
-1.96
-2.30
-2.56
-2.76
-2.93
-3.11
-3.36
-3.71
-4.20
-4.82
-5.53
-6.30
-7.09
-7.88
-8.65
-9.42
-10.19
-11.03
-12.01
-13.24
-14.83
-16.85
-19.29
-22.02
-24.81
-27.30
-29.21
-30.43
-31.15
-31.88
-33.25
-35.81
-39.74
-44.74
-50.13
-55.19
-59.43
-62.89
-66.05
-69.64
-74.22
-79.95
-86.48
-93.08
-98.97
-103.61
-106.93
-109.38
-111.93
-115.91
-122.69
-133.02
-146.34
-160.25
-170.57
-172.36
-161.55
-136.55
-99.17
-54.30
-8.46
32.26
63.85
85.15
97.45
103.39
105.75
106.74
107.73
109.47
112.29
116.15
120.62
124.82
127.60
127.89
125.15
119.56
111.99
103.68
95.75
88.92
83.35
78.80
74.81
70.88
66.64
61.94
56.93
52.07
47.96
45.11
43.63
43.19
43.09
42.61
41.42
39.79
38.49
38.44
40.29
44.16
49.66
56.13
62.96
69.84
76.78
84.03
91.95
100.80
110.53
120.81
130.98
140.38
148.62
155.82
162.64
169.89
178.15
187.49
197.47
207.41
216.49
223.72
227.67
226.53
218.34
201.72
176.49
143.84
105.78
64.17
20.01
-26.49
-75.02
-123.98
-169.92
-208.20
-234.57
-246.98
-246.40
-236.43
-221.71
-206.21
-192.05
-179.51
-167.85
-156.41
-145.20
-134.83
-125.91
-118.54
-112.14
-105.75
-98.56
-90.31
-81.43
-72.83
-65.39
-59.58
-55.25
-51.74
-48.16
-43.90
-38.82
-33.32
-28.16
-24.01
-21.18
-19.50
-18.39
-17.18
-15.46
-13.19
-10.68
-8.35
-6.50
-5.21
-4.35
-3.71
-3.12
-2.49
-1.82
-1.17
-0.60
-0.14
0.17
0.35
0.44
0.48
0.51
0.53
0.57
0.63
0.75
0.99
1.33
1.73
2.08
2.27
2.27
2.17
2.05
2.05
2.17
2.39
2.60
2.72
2.68
2.45
2.05
1.57
1.04
0.54
0.06
-0.40
-0.88
-1.36
-1.77
-2.02
-2.04
-1.83
-1.47
-1.09
-0.80
-0.65
-0.65
-0.77
-1.01
-1.37
-1.84
-2.38
-2.92
-3.32
-3.47
-3.32
-2.88
-2.24
-1.55
-0.95
-0.51
-0.23
-0.01
0.25
0.66
1.23
1.89
2.52
2.99
3.22
3.18
2.92
2.49
1.99
1.50
1.08
0.76
0.51
0.26
-0.06
-0.53
-1.12
-1.75
-2.31
-2.67
-2.80
-2.74
-2.56
-2.32
-2.03
-1.67
-1.23
-0.76
-0.35
-0.10
-0.04
-0.13
-0.23
-0.20
0.09
0.70
1.60
2.61
3.53
4.08
4.09
3.53
2.58
1.55
0.77
0.41
0.44
0.61
0.63
0.32
-0.30
-1.06
-1.71
-2.11
-2.29
-2.42
-2.66
-3.07
-3.51
-3.79
-3.73
-3.32
-2.72
-2.19
-1.93
-2.00
-2.30
-2.66
-2.90
-2.85
-2.38
-1.38
0.16
2.10
4.12
5.79
6.73
6.80
6.11
5.01
3.86
2.87
2.02
1.14
0.10
-1.10
-2.26
-3.14
-3.60
-3.71
-3.65
-3.61
-3.65
-3.64
-3.37
-2.72
-1.72
-0.55
0.52
1.31
1.73
1.82
1.68
1.44
1.25
1.27
1.66
2.47
3.56
4.62
5.30
5.34
4.73
3.75
2.81
2.25
2.23
2.61
3.06
3.27
3.03
2.33
1.33
0.23
-0.82
-1.76
-2.59
-3.32
-3.90
-4.28
-4.39
-4.26
-3.96
-3.61
-3.27
-2.96
-2.60
-2.14
-1.58
-0.99
-0.45
-0.03
0.29
0.58
0.92
1.34
1.76
2.08
2.21
2.12
1.86
1.48
1.03
0.49
-0.14
-0.82
-1.44
-1.87
-2.03
-1.97
-1.84
-1.83
-2.04
-2.42
-2.80
-2.97
-2.78
-2.25
-1.46
-0.54
0.40
1.31
2.18
2.99
3.70
4.23
4.55
4.66
4.61
4.46
4.23
3.92
3.50
3.00
2.47
2.01
1.70
1.57
1.58
1.62
1.54
1.23
0.67
-0.09
-0.90
-1.62
-2.14
-2.47
-2.69
-2.93
-3.28
-3.69
-4.05
-4.22
-4.13
-3.86
-3.56
-3.36
-3.29
-3.24
-3.02
-2.49
-1.63
-0.55
0.54
1.42
1.95
2.11
1.96
1.68
1.41
1.26
1.27
1.39
1.57
1.78
1.97
2.13
2.21
2.14
1.91
1.54
1.13
0.79
0.57
0.45
0.36
0.20
-0.02
-0.25
-0.39
-0.38
-0.22
-0.01
0.14
0.17
0.08
-0.05
-0.14
-0.13
-0.03
0.08
0.14
0.10
-0.06
-0.28
-0.50
-0.67
-0.74
-0.73
-0.62
-0.44
-0.18
0.13
0.45
0.72
0.88
0.83
0.53
-0.02
-0.75
-1.50
-2.08
-2.32
-2.13
-1.53
-0.71
0.08
0.58
0.67
0.38
-0.09
-0.48
-0.59
-0.38
0.03
0.40
0.56
0.47
0.27
0.19
0.38
0.86
1.47
1.95
2.13
1.96
1.57
1.16
0.89
0.79
0.76
0.68
0.44
0.07
-0.33
-0.62
-0.71
-0.62
-0.47
-0.37
-0.40
-0.54
-0.64
-0.59
-0.36
-0.02
0.22
0.17
-0.21
-0.84
-1.47
-1.85
-1.85
-1.51
-1.06
-0.76
-0.79
-1.19
-1.82
-2.51
-3.10
-3.54
-3.88
-4.23
-4.65
-5.15
-5.70
-6.24
-6.70
-7.02
-7.18
-7.16
-6.96
-6.63
-6.24
-5.84
-5.43
-4.96
-4.33
-3.42
-2.14
-0.47
1.51
3.67
5.77
7.58
8.91
9.66
9.92
9.93
9.94
10.14
10.55
11.03
11.34
11.27
10.62
9.33
7.41
5.07
2.65
0.55
-0.96
-1.93
-2.71
-3.84
-5.68
-8.20
-10.87
-12.92
-13.75
-13.24
-11.84
-10.34
-9.44
-9.46
-10.25
-11.37
-12.34
-12.81
-12.59
-11.55
-9.63
-6.89
-3.74
-0.99
0.50
0.27
-1.13
-2.12
-0.66
4.71
13.86
24.96
35.14
41.76
43.60
41.17
36.17
30.57
25.67
21.86
18.92
16.52
14.59
13.27
12.62
12.42
12.10
11.08
9.00
5.90
2.25
-1.39
-4.54
-6.95
-8.67
-9.96
-11.04
-12.09
-13.10
-13.92
-14.35
-14.25
-13.55
-12.37
-10.94
-9.57
-8.53
-7.94
-7.73
-7.68
-7.56
-7.20
-6.58
-5.82
-5.05
-4.40
-3.94
-3.64
-3.46
-3.34
-3.18
-2.90
-2.44
-1.83
-1.13
-0.48
0.02
0.29
0.35
0.25
0.07
-0.13
-0.32
-0.47
-0.55
-0.55
-0.46
-0.33
-0.20
-0.14
-0.23
-0.47
-0.80
-1.16
-1.47
-1.66
-1.75
-1.76
-1.72
-1.67
-1.57
-1.38
-1.09
-0.73
-0.39
-0.17
-0.14
-0.31
-0.58
-0.83
-0.92
-0.83
-0.62
-0.40
-0.27
-0.26
-0.31
-0.32
-0.24
-0.05
0.18
0.41
0.57
0.65
0.63
0.49
0.21
-0.20
-0.62
-0.95
-1.08
-1.01
-0.79
-0.52
-0.28
-0.06
0.13
0.29
0.37
0.34
0.18
-0.03
-0.19
-0.20
-0.08
0.08
0.17
0.14
0.01
-0.12
-0.18
-0.16
-0.11
-0.07
-0.07
-0.05
0.03
0.15
0.25
0.25
0.12
-0.07
-0.19
-0.13
0.12
0.47
0.76
0.89
0.85
0.71
0.58
0.53
0.51
0.46
0.30
0.03
-0.27
-0.47
-0.53
-0.45
-0.30
-0.17
-0.09
-0.07
-0.09
-0.13
-0.17
-0.19
-0.15
0.01
0.28
0.62
0.88
0.92
0.67
0.19
-0.34
-0.71
-0.81
-0.65
-0.38
-0.15
-0.05
-0.07
-0.10
-0.05
0.12
0.38
0.65
0.87
1.01
1.05
0.97
0.78
0.48
0.09
-0.31
-0.68
-0.97
-1.16
-1.27
-1.26
-1.13
-0.87
-0.54
-0.22
0.01
0.09
0.05
-0.04
-0.13
-0.16
-0.15
-0.09
-0.01
0.08
0.15
0.17
0.10
-0.03
-0.18
-0.25
-0.20
-0.03
0.17
0.29
0.27
0.11
-0.10
-0.26
-0.25
-0.06
0.28
0.68
1.05
1.31
1.43
1.40
1.23
0.91
0.48
-0.01
-0.49
-0.86
-1.04
-1.01
-0.80
-0.55
-0.40
-0.45
-0.70
-1.06
-1.40
-1.59
-1.62
-1.53
-1.43
-1.37
-1.33
-1.24
-1.05
-0.76
-0.45
-0.27
-0.33
-0.67
-1.24
-1.90
-2.48
-2.89
-3.11
-3.17
-3.17
-3.18
-3.22
-3.30
-3.36
-3.38
-3.32
-3.18
-2.99
-2.79
-2.60
-2.46
-2.38
-2.38
-2.45
-2.60
-2.82
-3.11
-3.45
-3.76
-3.95
-3.94
-3.67
-3.17
-2.55
-1.91
-1.33
-0.86
-0.46
-0.06
0.44
1.10
1.94
2.91
3.92
4.85
5.57
6.01
6.14
6.03
5.80
5.60
5.53
5.57
5.69
5.81
5.87
5.87
5.84
5.78
5.64
5.37
4.92
4.33
3.69
3.15
2.77
2.56
2.43
2.30
2.12
1.86
1.59
1.33
1.11
0.94
0.78
0.59
0.35
0.02
-0.34
-0.67
-0.87
-0.86
-0.66
-0.39
-0.22
-0.28
-0.60
-1.07
-1.55
-1.89
-2.02
-1.97
-1.80
-1.56
-1.27
-0.92
-0.51
-0.08
0.30
0.56
0.70
0.75
0.83
1.01
1.32
1.68
1.94
1.94
1.63
1.08
0.45
-0.08
-0.41
-0.49
-0.38
-0.14
0.17
0.51
0.82
1.02
1.08
0.99
0.85
0.81
1.00
1.44
2.04
2.60
2.96
3.04
2.91
2.70
2.57
2.62
2.84
3.17
3.51
3.81
4.03
4.17
4.21
4.18
4.12
4.06
4.03
3.97
3.74
3.14
2.04
0.44
-1.47
-3.37
-4.96
-6.05
-6.61
-6.75
-6.63
-6.35
-5.95
-5.42
-4.78
-4.09
-3.41
-2.82
-2.32
-1.85
-1.35
-0.78
-0.16
0.45
0.95
1.29
1.45
1.45
1.33
1.12
0.84
0.50
0.12
-0.29
-0.68
-1.03
-1.33
-1.57
-1.74
-1.83
-1.85
-1.81
-1.75
-1.72
-1.75
-1.81
-1.88
-1.90
-1.83
-1.68
-1.49
-1.30
-1.14
-1.00
-0.88
-0.76
-0.65
-0.60
-0.61
-0.67
-0.73
-0.73
-0.62
-0.41
-0.18
-0.03
-0.04
-0.24
-0.55
-0.88
-1.09
-1.12
-0.99
-0.77
-0.55
-0.39
-0.32
-0.32
-0.37
-0.44
-0.52
-0.58
-0.61
-0.56
-0.42
-0.18
0.11
0.38
0.57
0.64
0.61
0.52
0.44
0.40
0.40
0.40
0.34
0.22
0.06
-0.06
-0.05
0.09
0.30
0.47
0.51
0.37
0.11
-0.17
-0.36
-0.36
-0.16
0.17
0.55
0.86
1.02
1.01
0.81
0.43
-0.10
-0.74
-1.44
-2.13
-2.73
-3.16
-3.42
-3.54
-3.60
-3.66
-3.78
-4.00
-4.32
-4.77
-5.36
-6.10
-6.96
-7.88
-8.79
-9.60
-10.26
-10.82
-11.42
-12.26
-13.53
-15.26
-17.33
-19.50
-21.48
-23.18
-24.76
-26.60
-29.14
-32.58
-36.81
-41.33
-45.55
-49.06
-51.92
-54.70
-58.30
-63.55
-70.81
-79.71
-89.26
-98.25
-105.74
-111.55
-116.35
-121.33
-127.73
-136.42
-147.74
-161.52
-177.01
-192.72
-206.25
-214.40
-213.91
-202.48
-179.60
-146.79
-106.86
-62.52
-15.32
34.54
87.23
141.82
195.31
243.05
280.35
304.53
316.14
318.67
316.85
314.60
313.67
313.58
312.84
310.53
307.21
304.70
305.06
309.33
316.93
325.82
333.24
336.54
333.71
323.66
306.12
281.59
251.08
215.91
177.42
136.66
94.12
49.71
3.01
-46.03
-96.42
-145.64
-189.94
-225.31
-248.76
-259.43
-258.83
-250.18
-237.15
-222.58
-208.00
-193.85
-180.18
-167.30
-155.80
-146.19
-138.35
-131.48
-124.37
-116.07
-106.35
-95.81
-85.58
-76.74
-69.85
-64.72
-60.57
-56.42
-51.51
-45.70
-39.41
-33.40
-28.40
-24.80
-22.44
-20.83
-19.31
-17.40
-14.95
-12.13
-9.31
-6.88
-5.07
-3.92
-3.31
-2.98
-2.66
-2.16
-1.43
-0.57
0.22
0.75
0.94
0.84
0.59
0.34
0.17
0.09
0.06
0.06
0.07
0.10
0.14
0.17
0.17
0.12
0.05
-0.01
-0.04
-0.02
0.01
0.04
0.05
0.05
0.05
0.05
0.08
0.14
0.25
0.41
0.57
0.67
0.64
0.47
0.21
-0.05
-0.20
-0.19
-0.05
0.16
0.35
0.47
0.51
0.51
0.50
0.43
0.24
-0.06
-0.41
-0.66
-0.67
-0.43
-0.08
0.18
0.16
-0.14
-0.60
-0.97
-1.09
-0.95
-0.68
-0.48
-0.46
-0.62
-0.85
-1.01
-1.01
-0.84
-0.55
-0.20
0.18
0.55
0.88
1.15
1.28
1.25
1.05
0.74
0.42
0.24
0.25
0.47
0.82
1.15
1.35
1.34
1.15
0.90
0.68
0.57
0.53
0.50
0.41
0.25
0.05
-0.14
-0.26
-0.35
-0.41
-0.48
-0.54
-0.55
-0.50
-0.39
-0.27
-0.16
-0.09
-0.00
0.13
0.31
0.51
0.65
0.68
0.60
0.46
0.33
0.23
0.19
0.17
0.15
0.12
0.06
-0.01
-0.07
-0.11
-0.15
-0.16
-0.16
-0.13
-0.08
-0.02
0.04
0.09
0.12
0.14
0.12
0.08
0.03
0.01
0.03
0.11
0.22
0.34
0.40
0.39
0.30
0.19
0.08
0.02
0.05
0.13
0.24
0.33
0.37
0.33
0.19
-0.03
-0.29
-0.53
-0.70
-0.75
-0.68
-0.54
-0.38
-0.23
-0.07
0.11
0.30
0.45
0.50
0.41
0.22
0.01
-0.11
-0.12
-0.08
-0.10
-0.27
-0.58
-0.90
-1.09
-1.05
-0.82
-0.53
-0.34
-0.34
-0.50
-0.73
-0.90
-0.96
-0.89
-0.77
-0.65
-0.58
-0.54
-0.51
-0.45
-0.37
-0.29
