1660750407.00
64.000000
-0.00
-0.00
-0.00
-0.00
-0.00
-0.00
-0.00
-0.00
-0.00
-0.00
0.00
0.01
0.01
-0.00
-0.03
-0.05
-0.05
0.00
0.13
0.36
0.66
1.01
1.37
1.72
2.06
2.40
2.79
3.24
3.80
4.42
5.06
5.66
6.20
6.68
7.15
7.68
8.31
9.14
10.09
11.04
11.88
12.56
13.14
13.76
14.65
15.96
17.91
20.32
22.90
25.38
27.58
29.57
31.68
34.32
37.81
42.54
48.15
54.10
59.83
64.97
69.58
74.14
79.34
85.71
93.76
103.00
112.62
121.73
129.77
136.75
143.30
150.75
157.77
166.64
177.95
191.79
206.97
220.57
228.25
225.36
208.53
176.87
132.76
80.05
23.07
-34.94
-92.44
-149.16
-205.23
-260.37
-313.74
-363.87
-409.83
-450.91
-486.50
-515.74
-537.23
-549.22
-549.96
-538.37
-514.20
-478.67
-433.88
-382.46
-327.03
-269.84
-212.62
-156.63
-102.92
-52.36
-5.95
35.45
71.20
101.04
125.14
144.00
158.32
168.78
175.98
180.30
182.04
181.44
178.81
174.51
168.95
162.51
155.49
148.09
140.43
132.61
124.70
116.83
109.12
101.64
94.38
87.29
80.28
73.32
66.44
59.80
53.58
47.94
42.90
38.31
33.92
29.48
24.85
20.13
15.59
11.57
8.33
5.89
3.98
2.14
-0.05
-2.79
-5.92
-9.02
-11.56
-13.22
-14.00
-14.25
-14.48
-15.14
-16.51
-18.69
-21.67
-25.28
-28.87
-31.23
-30.80
-26.16
-16.90
-4.08
9.90
22.33
31.25
36.24
38.28
38.83
38.86
38.34
36.61
33.16
28.30
23.19
19.27
17.46
17.68
18.97
20.03
19.92
18.40
15.89
13.08
10.59
8.65
7.22
6.11
5.08
4.11
3.27
2.66
2.36
2.31
2.39
2.43
2.33
1.99
1.47
0.88
0.40
0.17
0.28
0.67
1.16
1.52
1.65
1.56
1.45
1.50
1.93
2.78
3.98
5.40
6.94
8.49
9.98
11.31
12.36
13.05
13.33
13.23
12.82
12.19
11.37
10.31
8.97
7.16
4.78
1.88
-1.41
-4.84
-8.16
-11.13
-13.58
-15.40
-16.57
-17.09
-17.05
-16.56
-15.73
-14.72
-13.63
-12.55
-11.57
-10.79
-10.25
-9.89
-9.61
-9.25
-8.68
-7.90
-6.97
-6.03
-5.22
-4.60
-4.21
-4.01
-3.98
-4.06
-4.19
-4.35
-4.55
-4.87
-5.42
-6.28
-7.48
-8.92
-10.38
-11.60
-12.39
-12.64
-12.45
-11.95
-11.34
-10.81
-10.47
-10.32
-10.31
-10.37
-10.43
-10.44
-10.22
-9.55
-8.25
-6.20
-3.42
-0.10
3.56
7.43
11.04
14.17
16.75
18.78
20.27
21.18
21.44
21.02
19.95
18.35
16.43
14.39
12.33
10.28
8.23
6.18
4.24
2.53
1.14
0.13
-0.65
-1.44
-2.47
-3.83
-5.40
-6.87
-7.89
-8.16
-7.55
-6.21
-4.45
-2.69
-1.29
-0.43
-0.11
-0.19
-0.50
-0.94
-1.50
-2.25
-3.17
-4.13
-4.91
-5.27
-5.08
-4.43
-3.52
-2.64
-1.97
-1.54
-1.27
-1.01
-0.62
-0.07
0.61
1.28
1.82
2.14
2.22
2.11
1.91
1.68
1.45
1.19
0.87
0.50
0.08
-0.44
-1.10
-1.96
-2.97
-3.91
-4.44
-4.26
-3.23
-1.48
0.66
2.83
4.69
6.08
6.98
7.40
7.44
7.22
6.91
6.66
6.55
6.53
6.47
6.25
5.81
5.21
4.55
3.93
3.35
2.80
2.26
1.77
1.40
1.18
1.10
1.08
0.98
0.69
0.17
-0.55
-1.35
-2.13
-2.81
-3.39
-3.92
-4.51
-5.20
-6.01
-6.94
-7.95
-9.05
-10.15
-11.10
-11.62
-11.44
-10.42
-8.65
-6.47
-4.29
-2.44
-1.01
0.10
1.06
1.98
2.86
3.68
4.39
5.00
5.55
6.01
6.32
6.44
6.37
6.19
6.03
5.97
6.01
6.06
6.01
5.77
5.33
4.73
4.04
3.31
2.56
1.79
1.00
0.20
-0.58
-1.31
-1.97
-2.59
-3.18
-3.80
-4.47
-5.22
-6.06
-6.97
-7.89
-8.64
-8.93
-8.50
-7.20
-5.11
-2.62
-0.21
1.71
2.99
3.71
4.10
4.36
4.52
4.55
4.40
4.16
3.98
4.00
4.26
4.66
5.03
5.23
5.22
5.02
4.74
4.46
4.24
4.09
3.98
3.84
3.60
3.22
2.71
2.16
1.66
1.26
0.95
0.64
0.30
-0.09
-0.49
-0.87
-1.25
-1.74
-2.49
-3.58
-4.99
-6.52
-7.86
-8.66
-8.66
-7.78
-6.15
-4.04
-1.81
0.21
1.84
3.02
3.80
4.29
4.57
4.71
4.69
4.54
4.23
3.75
3.14
2.49
1.94
1.66
1.68
1.94
2.26
2.47
2.48
2.32
2.14
2.02
1.98
1.96
1.82
1.54
1.16
0.76
0.42
0.12
-0.20
-0.58
-0.99
-1.32
-1.47
-1.40
-1.20
-1.00
-0.97
-1.24
-1.88
-2.83
-3.95
-4.97
-5.60
-5.55
-4.68
-3.04
-0.85
1.46
3.53
5.06
5.97
6.35
6.39
6.32
6.26
6.21
6.08
5.75
5.14
4.28
3.24
2.19
1.21
0.35
-0.38
-1.00
-1.48
-1.81
-1.98
-2.02
-2.02
-2.04
-2.16
-2.36
-2.60
-2.81
-2.96
-3.03
-3.06
-3.14
-3.39
-3.87
-4.56
-5.31
-5.87
-6.06
-5.82
-5.29
-4.77
-4.58
-4.87
-5.60
-6.48
-7.14
-7.21
-6.52
-5.11
-3.24
-1.29
0.37
1.52
2.16
2.40
2.42
2.31
2.05
1.62
1.04
0.42
-0.09
-0.37
-0.47
-0.49
-0.57
-0.74
-0.91
-0.94
-0.71
-0.24
0.38
1.05
1.64
2.06
2.25
2.17
1.86
1.45
1.05
0.78
0.62
0.48
0.23
-0.15
-0.57
-0.87
-0.97
-0.89
-0.81
-0.96
-1.47
-2.33
-3.36
-4.27
-4.75
-4.56
-3.65
-2.16
-0.37
1.39
2.88
4.00
4.75
5.21
5.44
5.45
5.25
4.89
4.47
4.15
3.98
3.96
4.02
4.07
4.07
4.02
3.95
3.86
3.79
3.74
3.74
3.80
3.87
3.84
3.59
3.06
2.28
1.37
0.48
-0.29
-0.88
-1.29
-1.55
-1.67
-1.68
-1.65
-1.66
-1.78
-2.04
-2.45
-2.99
-3.66
-4.47
-5.31
-6.00
-6.28
-5.93
-4.89
-3.28
-1.44
0.31
1.72
2.68
3.18
3.27
3.03
2.57
2.05
1.63
1.44
1.50
1.74
2.03
2.24
2.28
2.14
1.88
1.58
1.29
1.10
1.00
1.00
1.05
1.10
1.12
1.06
0.90
0.63
0.25
-0.20
-0.67
-1.10
-1.47
-1.83
-2.24
-2.76
-3.39
-4.02
-4.54
-4.91
-5.13
-5.29
-5.41
-5.44
-5.23
-4.62
-3.53
-2.06
-0.42
1.05
2.11
2.70
2.89
2.89
2.88
2.94
2.98
2.90
2.62
2.20
1.77
1.51
1.52
1.74
2.01
2.13
1.98
1.57
1.04
0.54
0.20
0.00
-0.15
-0.35
-0.67
-1.06
-1.44
-1.70
-1.79
-1.75
-1.65
-1.60
-1.67
-1.88
-2.27
-2.81
-3.49
-4.23
-4.95
-5.51
-5.77
-5.60
-4.92
-3.75
-2.24
-0.64
0.79
1.85
2.53
2.94
3.28
3.66
4.06
4.35
4.39
4.14
3.72
3.32
3.12
3.19
3.46
3.81
4.07
4.15
3.99
3.59
3.00
2.34
1.75
1.30
0.96
0.60
0.05
-0.73
-1.68
-2.60
-3.31
-3.77
-4.07
-4.38
-4.84
-5.50
-6.27
-7.02
-7.61
-7.93
-7.94
-7.59
-6.83
-5.62
-3.96
-1.95
0.23
2.29
3.96
5.02
5.42
5.29
4.83
4.31
3.88
3.58
3.40
3.28
3.22
3.21
3.21
3.13
2.91
2.51
2.02
1.59
1.36
1.37
1.52
1.62
1.50
1.12
0.54
-0.11
-0.68
-1.08
-1.35
-1.56
-1.85
-2.30
-2.96
-3.76
-4.57
-5.23
-5.59
-5.53
-5.02
-4.08
-2.81
-1.37
0.09
1.43
2.54
3.42
4.07
4.51
4.73
4.66
4.31
3.73
3.07
2.50
2.16
2.07
2.15
2.27
2.29
2.14
1.81
1.33
0.79
0.29
-0.08
-0.27
-0.30
-0.31
-0.45
-0.86
-1.55
-2.41
-3.27
-3.98
-4.47
-4.79
-5.07
-5.44
-5.98
-6.65
-7.36
-7.93
-8.18
-7.94
-7.14
-5.82
-4.13
-2.28
-0.47
1.12
2.42
3.40
4.08
4.49
4.71
4.79
4.81
4.76
4.65
4.48
4.28
4.16
4.17
4.31
4.44
4.42
4.13
3.59
2.98
2.46
2.13
1.94
1.78
1.52
1.14
0.72
0.33
0.01
-0.30
-0.67
-1.16
-1.77
-2.44
-3.10
-3.72
-4.25
-4.69
-4.98
-5.10
-5.02
-4.72
-4.20
-3.47
-2.57
-1.58
-0.62
0.17
0.74
1.07
1.25
1.36
1.44
1.46
1.36
1.13
0.80
0.46
0.18
-0.00
-0.11
-0.17
-0.16
-0.05
0.20
0.59
1.02
1.37
1.52
1.42
1.13
0.73
0.33
-0.05
-0.40
-0.78
-1.15
-1.47
-1.64
-1.63
-1.49
-1.37
-1.46
-1.90
-2.66
-3.53
-4.20
-4.36
-3.86
-2.74
-1.24
0.31
1.65
2.63
3.27
3.69
4.01
4.26
4.41
4.38
4.15
3.75
3.27
2.86
2.62
2.61
2.80
3.11
3.41
3.58
3.54
3.29
2.87
2.39
1.94
1.59
1.34
1.17
1.02
0.86
0.66
0.40
0.11
-0.20
-0.51
-0.82
-1.10
-1.39
-1.73
-2.22
-2.91
-3.89
-5.10
-6.38
-7.45
-7.99
-7.75
-6.70
-5.02
-3.06
-1.20
0.32
1.41
2.12
2.58
2.88
3.04
3.08
3.03
2.93
2.85
2.82
2.85
2.88
2.83
2.63
2.26
1.79
1.34
1.04
0.98
1.16
1.50
1.86
2.12
2.20
2.07
1.74
1.23
0.56
-0.21
-0.96
-1.56
-1.91
-1.99
-1.95
-1.94
-2.14
-2.61
-3.29
-4.07
-4.82
-5.45
-5.87
-5.97
-5.60
-4.67
-3.20
-1.41
0.40
1.94
3.05
3.80
4.33
4.75
5.08
5.26
5.17
4.79
4.22
3.59
3.05
2.68
2.45
2.32
2.23
2.13
1.96
1.73
1.44
1.16
0.93
0.81
0.77
0.79
0.83
0.83
0.79
0.65
0.35
-0.18
-0.96
-1.88
-2.81
-3.58
-4.09
-4.40
-4.62
-4.91
-5.35
-5.95
-6.63
-7.28
-7.72
-7.78
-7.30
-6.19
-4.50
-2.47
-0.42
1.35
2.70
3.62
4.22
4.58
4.73
4.66
4.35
3.84
3.23
2.60
2.03
1.57
1.30
1.29
1.56
2.04
2.59
3.03
3.25
3.26
3.16
3.07
3.05
3.03
2.93
2.66
2.21
1.63
0.96
0.26
-0.49
-1.29
-2.13
-2.93
-3.58
-3.99
-4.14
-4.15
-4.21
-4.51
-5.09
-5.76
-6.14
-5.86
-4.76
-3.02
-1.08
0.56
1.61
2.11
2.32
2.53
2.86
3.20
3.35
3.14
2.61
1.96
1.47
1.30
1.45
1.79
2.15
2.45
2.64
2.76
2.83
2.85
2.74
2.46
1.98
1.36
0.69
0.10
-0.32
-0.55
-0.66
-0.71
-0.83
-1.07
-1.47
-2.05
-2.74
-3.46
-4.10
-4.57
-4.86
-5.03
-5.20
-5.46
-5.75
-5.93
-5.75
-5.04
-3.75
-1.99
-0.04
1.84
3.43
4.60
5.36
5.75
5.85
5.69
5.28
4.63
3.79
2.86
2.00
1.38
1.09
1.14
1.42
1.77
2.07
2.20
2.13
1.85
1.45
1.00
0.63
0.42
0.41
0.53
0.64
0.56
0.20
-0.47
-1.38
-2.41
-3.44
-4.39
-5.15
-5.69
-5.97
-6.06
-6.07
-6.09
-6.12
-6.03
-5.62
-4.74
-3.42
-1.88
-0.44
0.63
1.27
1.60
1.82
2.09
2.42
2.69
2.76
2.59
2.25
1.90
1.69
1.66
1.79
1.97
2.07
2.02
1.80
1.46
1.07
0.72
0.51
0.46
0.54
0.66
0.69
0.54
0.17
-0.41
-1.10
-1.82
-2.52
-3.14
-3.69
-4.20
-4.73
-5.40
-6.27
-7.30
-8.34
-9.10
-9.31
-8.84
-7.77
-6.34
-4.86
-3.46
-2.13
-0.71
0.95
2.83
4.80
6.62
8.10
9.17
9.85
10.23
10.41
10.46
10.41
10.30
10.13
9.90
9.56
9.07
8.40
7.58
6.64
5.65
4.63
3.59
2.48
1.28
-0.06
-1.47
-2.84
-4.02
-4.92
-5.53
-5.95
-6.35
-6.94
-7.82
-8.98
-10.26
-11.38
-12.02
-11.89
-10.84
-8.90
-6.32
-3.51
-0.93
1.10
2.51
3.45
4.19
5.00
6.00
7.17
8.44
9.73
11.02
12.42
14.14
16.45
19.60
23.64
28.30
32.84
36.13
36.92
34.28
27.93
18.41
7.04
-4.50
-14.58
-22.07
-26.56
-28.29
-27.98
-26.49
-24.53
-22.51
-20.61
-18.89
-17.38
-16.19
-15.42
-15.06
-14.91
-14.64
-13.92
-12.60
-10.75
-8.67
-6.67
-4.96
-3.53
-2.24
-0.87
0.68
2.33
3.85
4.94
5.35
5.02
4.09
2.81
1.46
0.23
-0.90
-2.06
-3.39
-4.92
-6.49
-7.83
-8.71
-9.03
-8.84
-8.29
-7.54
-6.66
-5.64
-4.47
-3.15
-1.76
-0.40
0.79
1.65
2.04
1.86
1.10
-0.08
-1.36
-2.33
-2.62
-2.02
-0.59
1.40
3.58
5.62
7.28
8.46
9.15
9.40
9.27
8.83
8.18
7.46
6.85
6.52
6.64
7.25
8.30
9.56
10.74
11.49
11.57
10.87
9.48
7.64
5.62
3.63
1.75
-0.02
-1.75
-3.35
-4.66
-5.39
-5.35
-4.57
-3.33
-2.10
-1.37
-1.38
-2.13
-3.37
-4.83
-6.26
-7.58
-8.73
-9.65
-10.22
-10.29
-9.80
-8.86
-7.70
-6.61
-5.78
-5.25
-4.97
-4.77
-4.53
-4.10
-3.43
-2.49
-1.30
0.04
1.42
2.70
3.79
4.72
5.59
6.58
7.84
9.39
11.09
12.60
13.48
13.33
11.91
9.25
5.63
1.51
-2.59
-6.17
-8.90
-10.60
-11.32
-11.26
-10.74
-10.04
-9.37
-8.81
-8.34
-7.88
-7.40
-6.84
-6.16
-5.26
-4.05
-2.45
-0.48
1.68
3.77
5.52
6.78
7.57
8.04
8.38
8.69
8.96
9.06
8.88
8.41
7.75
7.09
6.57
6.16
5.78
5.29
4.65
3.96
3.30
2.78
2.35
1.93
1.43
0.79
0.04
-0.77
-1.60
-2.41
-3.17
-3.86
-4.46
-4.99
-5.49
-6.03
-6.65
-7.36
-8.12
-8.84
-9.38
-9.57
-9.22
-8.19
-6.44
-4.07
-1.31
1.56
4.32
6.78
8.87
10.52
11.72
12.48
12.88
13.03
13.03
12.93
12.71
12.38
12.01
11.74
11.74
12.08
12.69
13.37
13.94
14.33
14.62
14.98
15.48
16.06
16.48
16.41
15.53
13.60
10.56
6.50
1.70
-3.38
-8.15
-12.00
-14.50
-15.53
-15.32
-14.34
-13.18
-12.27
-11.92
-12.19
-13.06
-14.41
-16.06
-17.76
-19.20
-20.06
-20.12
-19.35
-17.93
-16.24
-14.69
-13.55
-12.87
-12.41
-11.84
-10.81
-9.20
-7.12
-4.90
-2.89
-1.33
-0.23
0.56
1.27
2.02
2.81
3.51
4.04
4.37
4.61
4.89
5.31
5.85
6.42
6.91
7.23
7.39
7.42
7.39
7.27
7.03
6.60
5.92
5.05
4.08
3.20
2.50
2.02
1.64
1.19
0.49
-0.53
-1.86
-3.41
-5.07
-6.73
-8.24
-9.41
-10.00
-9.77
-8.64
-6.73
-4.39
-2.06
-0.14
1.13
1.79
2.02
2.09
2.16
2.34
2.59
2.84
3.10
3.40
3.81
4.33
4.89
5.36
5.60
5.59
5.42
5.25
5.23
5.35
5.53
5.58
5.40
4.98
4.44
3.98
3.73
3.73
3.88
4.03
3.99
3.64
2.94
1.94
0.74
-0.52
-1.69
-2.69
-3.46
-4.00
-4.39
-4.76
-5.27
-6.08
-7.23
-8.57
-9.73
-10.25
-9.71
-7.98
-5.27
-2.08
0.96
3.38
4.99
5.90
6.35
6.58
6.66
6.59
6.36
6.03
5.73
5.62
5.73
6.02
6.41
6.84
7.31
7.89
8.60
9.38
10.05
10.42
10.34
9.79
8.94
8.08
7.59
7.82
9.03
11.26
14.27
17.56
20.42
22.13
22.12
20.16
16.36
11.19
5.30
-0.57
-5.76
-9.78
-12.36
-13.53
-13.57
-13.03
-12.50
-12.50
-13.26
-14.66
-16.24
-17.43
-17.78
-17.10
-15.50
-13.31
-10.90
-8.57
-6.48
-4.74
-3.40
-2.52
-2.11
-2.15
-2.53
-3.13
-3.77
-4.31
-4.63
-4.63
-4.28
-3.64
-2.80
-1.89
-0.95
0.02
1.04
2.08
2.99
3.59
3.76
3.48
2.92
2.28
1.66
1.03
0.27
-0.75
-2.06
-3.56
-5.03
-6.30
-7.23
-7.75
-7.87
-7.61
-7.03
-6.18
-5.11
-3.96
-2.96
-2.40
-2.63
-3.84
-5.94
-8.48
-10.74
-12.05
-11.97
-10.46
-7.83
-4.58
-1.21
1.86
4.33
6.01
6.88
7.12
7.07
7.14
7.59
8.44
9.45
10.24
10.57
10.45
10.11
9.97
10.40
11.59
13.46
15.66
17.59
18.63
18.33
16.70
14.29
12.13
11.43
13.10
17.48
24.10
31.82
39.12
44.49
46.76
45.33
40.21
31.97
21.59
10.18
-1.27
-12.00
-21.53
-29.56
-35.78
-39.77
-41.08
-39.49
-35.21
-29.03
-22.18
-15.93
-11.22
-8.30
-6.73
-5.67
-4.29
-2.23
0.25
2.38
3.23
2.10
-1.10
-5.74
-10.68
-14.66
-16.79
-16.90
-15.58
-13.86
-12.65
-12.24
-12.14
-11.19
-8.15
-2.21
6.60
17.34
28.25
37.07
41.43
39.51
30.72
16.28
-0.81
-16.40
-26.62
-29.20
-24.27
-14.12
-2.06
9.05
17.53
23.25
27.06
30.10
33.04
35.77
37.54
37.36
34.59
28.81
20.23
9.61
-1.99
-13.42
-23.85
-32.84
-40.20
-45.83
-50.40
-55.06
-61.25
-70.22
-82.25
-96.39
-110.23
-120.22
-122.51
-114.98
-97.79
-73.83
-47.89
-25.50
-11.61
-9.40
-19.50
-35.22
-48.63
-52.91
-46.28
-31.99
-14.92
1.33
15.35
27.30
38.08
47.60
55.03
59.42
60.42
58.85
56.21
54.05
53.44
54.80
57.26
59.41
60.10
58.93
56.44
53.70
51.73
51.17
52.15
54.02
55.75
56.64
56.38
55.19
53.46
51.46
49.21
46.48
42.82
37.42
30.38
22.03
12.87
3.40
-6.12
-15.66
-25.21
-33.64
-41.31
-47.84
-52.73
-55.68
-56.83
-56.83
-56.60
-56.97
-58.31
-60.56
-62.87
-64.44
-64.77
-63.94
-62.60
-61.59
-61.66
-63.30
-66.93
-72.45
-79.14
-85.24
-87.98
-84.37
-72.53
-52.92
-28.65
-4.48
15.22
28.11
34.43
36.72
37.63
38.77
40.36
41.68
42.10
41.76
41.38
41.69
42.82
44.09
44.54
43.37
40.39
36.14
31.56
27.64
24.90
23.29
22.25
21.03
19.05
16.18
12.75
9.37
6.65
4.82
3.66
2.63
1.14
-1.15
-4.21
-7.71
-11.10
-13.77
-15.23
-15.24
-13.91
-11.67
-9.14
-7.07
-6.05
-6.40
-7.98
-10.49
-13.52
-16.77
-20.06
-23.27
-26.36
-29.31
-32.13
-34.69
-36.90
-38.69
-39.99
-40.66
-40.54
-39.39
-36.82
-33.59
-30.02
-26.41
-23.03
-20.08
-17.61
-15.50
-13.62
-11.85
-10.23
-8.77
-7.65
-7.03
-7.04
-7.69
-8.99
-10.89
-13.31
-16.09
-18.91
-21.53
-23.94
-26.42
-29.33
-32.83
-36.56
-39.62
-40.89
-39.49
-35.27
-28.95
-21.78
-15.01
-9.43
-5.18
-1.91
0.82
3.32
5.55
7.28
8.24
8.36
7.79
6.78
5.60
4.38
3.17
1.90
0.46
-1.32
-3.59
-6.48
-9.97
-13.73
-17.17
-19.53
-20.10
-18.43
-14.51
-8.83
-2.30
3.90
8.61
11.00
10.88
8.87
6.21
4.29
3.96
5.08
6.56
6.82
4.67
0.01
-6.06
-11.62
-14.79
-14.47
-10.69
-4.46
2.79
9.88
16.16
21.53
26.21
30.32
33.80
36.34
37.70
37.91
37.34
36.67
36.53
37.27
38.75
40.44
41.65
41.94
41.30
40.24
39.48
39.56
40.58
42.04
43.01
42.51
39.88
35.07
28.59
21.34
14.23
7.82
2.17
-3.09
-8.52
-14.60
-21.51
-29.15
-37.26
-45.51
-53.60
-61.04
-67.04
-70.51
-70.26
-65.51
-56.36
-43.96
-30.18
-17.01
-5.81
3.10
10.28
16.60
22.68
28.43
33.23
36.36
37.43
36.68
34.85
32.83
31.29
30.51
30.35
30.53
30.79
31.06
31.45
32.16
33.45
35.49
38.43
42.38
47.38
53.42
60.28
67.53
74.42
79.92
82.97
82.75
79.01
72.21
63.43
53.91
44.59
35.69
26.70
16.87
5.74
-6.29
-17.96
-27.58
-33.79
-36.09
-35.12
-32.27
-29.13
-26.90
-26.19
-27.04
-29.17
-32.22
-35.77
-39.39
-42.48
-44.44
-44.69
-42.89
-39.03
-33.42
-26.70
-19.65
-13.06
-7.42
-2.76
1.39
5.80
11.04
17.17
23.46
28.71
31.71
31.80
29.21
24.88
20.06
15.81
12.64
10.59
9.29
8.30
7.20
5.70
3.72
1.42
-0.72
-1.90
-1.24
1.99
8.04
16.52
26.45
36.54
45.43
52.07
55.86
56.77
55.27
52.19
48.39
44.53
40.80
36.91
32.29
26.38
18.94
10.21
0.85
-8.39
-16.95
-24.64
-31.64
-38.30
-44.84
-51.19
-57.03
-61.94
-65.59
-67.83
-68.61
-67.82
-65.21
-60.46
-53.39
-44.10
-33.14
-21.32
-9.56
1.38
10.97
18.97
25.29
29.97
33.11
34.95
35.80
36.09
36.29
36.81
37.96
39.83
42.33
45.20
48.09
50.70
52.85
54.48
55.65
56.47
57.03
57.33
57.32
56.83
55.75
54.12
52.14
50.15
48.51
47.34
46.54
45.75
44.59
42.83
40.57
38.11
35.76
33.63
31.47
28.80
25.08
19.95
13.38
5.77
-2.25
-9.95
-16.73
-22.35
-26.95
-31.01
-35.07
-39.57
-44.62
-50.00
-55.24
-59.74
-62.97
-64.53
-64.18
-61.92
-57.91
-52.44
-45.81
-38.17
-29.41
-19.20
-7.25
6.33
20.81
34.74
46.30
53.81
56.28
53.74
47.16
38.21
28.72
20.25
13.83
9.87
8.29
8.62
10.21
12.39
14.51
16.14
17.07
17.32
17.10
16.68
16.35
16.27
16.35
16.26
15.45
13.29
9.34
3.61
-3.37
-10.64
-17.10
-21.98
-24.98
-26.33
-26.43
-25.54
-23.56
-20.16
-15.16
-8.86
-2.12
3.85
8.08
10.16
10.39
9.50
8.21
6.90
5.54
3.87
1.72
-0.80
-3.32
-5.34
-6.52
-6.79
-6.41
-5.85
-5.62
-6.09
-7.31
-9.07
-10.98
-12.70
-14.07
-15.18
-16.14
-16.97
-17.48
-17.36
-16.45
-14.86
-13.02
-11.40
-10.25
-9.44
-8.52
-6.99
-4.56
-1.33
2.32
5.83
8.72
10.59
11.19
10.32
7.98
4.47
0.46
-3.07
-5.07
-4.87
-2.37
1.81
6.68
11.27
15.02
17.86
20.06
21.89
23.38
24.31
24.39
23.51
21.86
19.79
17.68
15.67
13.65
11.37
8.59
5.22
1.41
-2.56
-6.36
-9.67
-12.29
-14.18
-15.48
-16.43
-17.28
-18.19
-19.17
-20.09
-20.78
-21.14
-21.19
-21.02
-20.77
-20.54
-20.41
-20.42
-20.57
-20.86
-21.20
-21.46
-21.42
-20.86
-19.60
-17.53
-14.73
-11.43
-7.99
-4.86
-2.41
-0.82
-0.08
0.03
-0.29
-0.87
-1.70
-2.83
-4.26
-5.85
-7.29
-8.20
-8.27
-7.39
-5.67
-3.33
-0.62
2.34
5.54
8.97
12.54
15.94
18.73
20.44
20.85
20.07
18.52
16.78
15.23
13.94
12.61
10.85
8.38
5.30
2.02
-0.97
-3.32
-5.05
-6.48
-8.06
-10.15
-12.84
-16.02
-19.31
-22.20
-24.04
-24.16
-22.11
-17.83
-11.82
-5.02
1.43
6.55
9.83
11.32
11.46
10.91
10.23
9.75
9.48
9.14
8.40
6.92
4.65
1.82
-1.09
-3.56
-5.24
-6.14
-6.52
-6.79
-7.29
-8.13
-9.29
-10.61
-11.98
-13.36
-14.68
-15.75
-16.18
-15.60
-13.78
-10.90
-7.65
-5.00
-3.82
-4.39
-6.27
-8.44
-9.83
-9.88
-8.81
-7.47
-6.77
-7.11
-8.12
-8.82
-8.24
-5.90
-2.16
2.06
5.70
8.09
9.18
9.41
9.25
8.94
8.32
6.99
4.54
0.87
-3.74
-8.71
-13.41
-17.40
-20.49
-22.72
-24.21
-24.99
-25.00
-24.16
-22.46
-19.97
-16.84
-13.22
-9.18
-4.80
-0.19
4.46
8.86
12.68
15.64
17.52
18.20
17.70
16.21
14.05
11.62
9.23
6.91
4.34
1.03
-3.46
-9.15
-15.54
-21.63
-26.27
-28.54
-28.04
-25.01
-20.25
-14.78
-9.54
-5.11
-1.66
0.89
2.62
3.46
3.23
1.81
-0.57
-3.31
-5.55
-6.46
-5.47
-2.41
2.53
8.92
15.95
22.36
26.51
26.67
21.75
11.85
-1.51
-15.77
-28.29
-37.21
-41.96
-43.10
-41.78
-39.09
-35.63
-31.55
-26.72
-20.92
-13.90
-5.43
4.57
15.79
27.17
36.90
42.75
42.67
35.68
22.48
5.84
-9.62
-18.42
-15.75
0.74
29.73
66.32
103.38
133.96
153.53
161.12
158.92
150.63
139.70
128.02
115.95
102.98
88.76
73.46
57.86
42.84
28.95
16.19
4.21
-7.34
-18.35
-28.14
-35.73
-40.28
-41.59
-40.31
-37.84
-35.66
-34.64
-34.62
-34.52
-33.08
-29.25
-22.59
-13.39
-2.53
8.86
19.86
30.08
39.74
48.85
57.80
67.45
78.97
93.37
111.13
131.90
154.32
176.03
192.72
200.42
197.10
183.34
161.68
135.48
107.90
81.27
56.86
32.98
7.76
-19.34
-47.54
-75.90
-104.41
-133.66
-164.02
-194.61
-225.87
-256.51
-282.94
-300.82
-307.82
-305.23
-297.13
-288.40
-266.02
-223.03
-161.97
-93.61
-28.67
27.41
73.50
110.38
139.63
161.01
174.38
179.72
178.66
174.15
168.72
163.11
156.40
146.61
135.69
120.85
99.77
72.93
43.50
15.57
-7.37
-22.68
-28.91
-26.23
-21.48
-21.13
-27.76
-39.45
-52.65
-64.50
-73.74
-80.67
-86.71
-99.53
-123.71
-157.69
-194.99
-229.39
-257.84
-280.23
-297.96
-312.60
-332.17
-360.75
-396.05
-431.06
-459.84
-480.12
-492.63
-499.17
-459.70
-358.65
-213.74
-63.63
62.91
157.11
222.73
267.23
297.53
319.00
327.40
322.86
309.07
294.93
286.01
284.05
288.12
296.35
307.02
313.90
313.94
307.70
299.01
292.01
288.33
287.61
288.71
290.56
289.35
283.49
272.95
260.29
247.71
235.71
223.32
208.76
189.59
160.64
126.33
88.90
51.34
16.04
-15.84
-44.12
-69.08
-91.08
-110.70
-127.74
-142.73
-155.52
-166.12
-175.02
-183.04
-191.01
-199.68
-209.57
-220.83
-234.17
-249.14
-264.08
-276.35
-283.04
-282.00
-272.63
-255.93
-233.86
-209.12
-183.54
-158.03
-133.03
-109.01
-86.83
-67.46
-51.48
-38.64
-28.13
-18.64
-9.01
1.28
12.04
22.52
31.85
39.44
45.16
49.16
51.80
53.32
53.73
52.85
50.53
46.89
42.40
37.78
33.70
30.56
28.30
26.53
24.73
22.52
19.82
16.92
14.27
12.27
11.02
10.23
9.25
7.34
3.94
-1.16
-7.76
-15.31
-23.06
-30.15
-35.70
-38.93
-39.32
-36.85
-32.06
-25.95
-19.61
-13.90
-9.19
-5.51
-2.64
-0.46
1.03
1.80
1.88
1.45
0.78
0.12
-0.47
-1.06
-1.80
-2.77
-3.93
-5.11
-6.10
-6.72
-6.92
-6.79
-6.57
-6.45
-6.55
-6.84
-7.13
-7.26
-7.04
-6.34
-5.09
-3.29
-1.05
1.29
3.21
4.15
3.78
2.24
0.17
-1.45
-1.63
0.23
4.19
9.75
16.05
22.09
26.98
30.15
31.44
31.10
29.67
27.68
25.53
23.29
20.81
17.98
14.87
11.76
8.98
6.70
4.79
2.97
1.07
-0.91
-2.74
-4.15
-5.01
-5.50
-5.92
-6.60
-7.73
-9.29
-11.03
-12.65
-13.82
-14.43
-14.52
-14.35
-14.31
-14.76
-15.88
-17.61
-19.66
-21.49
-22.46
-21.91
-19.36
-14.72
-8.35
-1.14
5.88
11.73
15.85
18.11
18.77
18.17
16.69
14.62
12.25
9.81
7.51
5.46
3.68
2.16
0.89
-0.14
-0.99
-1.76
-2.64
-3.70
-4.88
-5.93
-6.60
-6.80
-6.72
-6.71
-7.16
-8.20
-9.71
-11.41
-12.96
-14.18
-15.06
-15.78
-16.58
-17.71
-19.32
-21.45
-23.89
-26.19
-27.75
-27.90
-26.15
-22.24
-16.41
-9.27
-1.76
5.04
10.27
13.39
14.45
13.87
12.28
10.22
7.96
5.55
3.01
0.35
-2.24
-4.59
-6.65
-8.52
-10.40
-12.40
-14.42
-16.14
-17.17
-17.27
-16.47
-15.14
-13.81
-13.00
-13.02
-13.84
-15.12
-16.41
-17.30
-17.62
-17.41
-16.91
-16.40
-16.05
-15.96
-16.20
-16.82
-17.84
-19.05
-20.03
-20.10
-18.56
-14.91
-9.12
-1.67
6.57
14.61
21.60
27.03
30.80
33.11
34.19
34.25
33.36
31.56
29.04
26.10
23.16
20.55
18.34
16.30
14.17
11.85
9.55
7.69
6.62
6.39
6.68
7.00
6.92
6.29
5.18
3.78
2.23
0.57
-1.16
-2.84
-4.30
-5.33
-5.89
-6.17
-6.60
-7.58
-9.46
-12.11
-14.96
-17.01
-17.11
-14.42
-8.75
-0.75
8.33
17.00
24.09
28.99
31.70
32.59
32.07
30.52
28.19
25.35
22.32
19.39
16.75
14.44
12.31
10.12
7.67
4.92
1.99
-0.84
-3.31
-5.24
-6.63
-7.63
-8.55
-9.61
-10.96
-12.57
-14.34
-16.14
-17.86
-19.40
-20.60
-21.40
-21.83
-22.11
-22.63
-23.76
-25.70
-28.43
-31.63
-34.81
-37.31
-38.37
-37.23
-33.36
-26.62
-17.52
-7.14
3.12
11.97
18.64
22.99
25.39
26.35
26.39
25.75
24.58
22.94
20.92
18.65
16.26
13.90
11.67
9.68
7.98
6.64
5.70
5.14
4.89
4.86
4.92
4.97
4.97
4.85
4.53
3.85
2.65
0.87
-1.36
-3.71
-5.77
-7.24
-8.12
-8.67
-9.27
-10.28
-11.83
-13.91
-16.31
-18.62
-20.20
-20.15
-17.59
-11.97
-3.46
6.89
17.45
26.55
33.01
36.53
37.59
37.06
35.78
34.16
32.25
29.87
26.91
23.48
19.88
16.53
13.65
11.25
9.08
6.82
4.35
1.76
-0.59
-2.38
-3.46
-3.99
-4.31
-4.75
-5.54
-6.69
-8.13
-9.76
-11.50
-13.33
-15.21
-17.10
-18.99
-20.90
-22.90
-25.12
-27.66
-30.63
-34.07
-37.78
-41.29
-43.77
-44.25
-41.84
-36.19
-27.70
-17.46
-6.93
2.52
9.98
15.21
18.37
19.95
20.39
20.05
19.16
17.87
16.35
14.70
13.08
11.57
10.22
9.04
7.97
6.93
5.89
4.93
4.20
3.94
4.25
5.06
6.11
7.03
7.52
7.45
6.90
6.02
4.92
3.65
2.22
0.67
-0.87
-2.19
-3.19
-3.87
-4.48
-5.47
-7.28
-10.17
-13.89
-17.60
-20.03
-19.88
-16.32
-9.38
0.04
10.52
20.63
29.36
36.28
41.38
44.80
46.65
46.93
45.75
43.37
40.21
36.72
33.24
29.94
26.83
23.98
21.42
19.24
17.47
16.07
14.94
13.92
12.83
11.53
9.91
7.88
5.41
2.56
-0.62
-3.95
-7.27
-10.39
-13.12
-15.34
-17.06
-18.42
-19.72
-21.37
-23.77
-27.21
-31.80
-37.33
-43.30
-48.81
-52.70
-53.72
-50.93
-44.06
-33.77
-21.45
-8.95
2.06
10.49
16.03
19.07
20.31
20.46
19.96
18.99
17.51
15.48
12.97
10.16
7.30
4.58
2.14
0.10
-1.42
-2.28
-2.43
-1.99
-1.29
-0.73
-0.54
-0.72
-1.00
-1.12
-1.02
-0.93
-1.27
-2.36
-4.28
-6.79
-9.51
-12.13
-14.56
-16.89
-19.31
-22.00
-25.04
-28.44
-32.12
-35.81
-38.98
-40.81
-40.32
-36.62
-29.37
-18.95
-6.46
6.54
18.50
28.34
35.64
40.56
43.59
45.16
45.52
44.77
42.98
40.31
37.07
33.60
30.21
27.11
24.39
22.07
20.17
18.57
17.21
15.99
14.93
14.09
13.52
13.10
12.51
11.29
9.03
5.63
1.35
-3.25
-7.59
-11.30
-14.34
-16.99
-19.64
-22.68
-26.34
-30.72
-35.68
-40.79
-45.28
-48.07
-47.99
-44.09
-36.08
-24.52
-10.71
3.60
16.72
27.47
35.37
40.63
43.80
45.54
46.31
46.32
45.60
44.10
41.92
39.20
36.18
33.08
30.08
27.27
24.71
22.43
20.42
18.60
16.84
14.97
12.90
10.60
8.14
5.61
3.06
0.56
-1.88
-4.28
-6.72
-9.34
-12.29
-15.65
-19.30
-22.98
-26.37
-29.22
-31.60
-33.85
-36.56
-40.24
-45.02
-50.36
-55.00
-57.19
-55.22
-48.12
-36.07
-20.51
-3.63
12.32
25.69
35.81
42.79
47.18
49.57
50.34
49.77
48.11
45.75
43.07
40.39
37.77
35.01
31.73
27.66
22.78
17.47
12.39
8.26
5.56
4.25
3.82
3.47
2.54
0.69
-1.94
-4.93
-7.87
-10.53
-13.00
-15.60
-18.63
-22.20
-26.17
-30.15
-33.67
-36.44
-38.44
-39.91
-41.28
-42.97
-45.24
-48.26
-52.01
-56.30
-60.61
-63.91
-64.79
-61.72
-53.74
-41.01
-24.93
-7.78
8.08
20.92
30.21
36.33
40.17
42.50
43.71
43.79
42.65
40.38
37.29
33.87
30.46
27.27
24.24
21.22
18.17
15.25
12.86
11.36
10.97
11.55
12.55
13.33
13.30
12.19
10.18
7.78
5.55
3.86
2.69
1.65
0.18
-2.08
-5.13
-8.51
-11.51
-13.60
-14.74
-15.48
-16.80
-19.63
-24.43
-30.83
-37.61
-43.02
-45.20
-42.69
-34.90
-22.29
-6.30
10.94
27.19
40.69
50.47
56.47
59.28
59.72
58.50
56.08
52.77
48.84
44.63
40.50
36.61
32.92
29.23
25.36
21.40
17.65
14.59
12.55
11.55
11.22
11.01
10.37
8.96
6.78
4.11
1.38
-1.05
-3.01
-4.67
-6.40
-8.60
-11.50
-15.04
-18.91
-22.62
-25.82
-28.30
-30.14
-31.64
-33.27
-35.62
-39.20
-44.21
-50.30
-56.41
-60.86
-61.73
-57.50
-47.59
-32.78
-14.98
3.22
19.43
32.08
40.76
46.04
48.95
50.33
50.58
49.73
47.72
44.71
41.12
37.46
34.05
30.81
27.43
23.55
19.08
14.38
10.02
6.64
4.54
3.60
3.28
2.89
1.81
-0.28
-3.28
-6.83
-10.40
-13.63
-16.40
-18.84
-21.28
-24.04
-27.28
-30.93
-34.74
-38.34
-41.48
-44.12
-46.45
-48.86
-51.73
-55.37
-59.81
-64.79
-69.71
-73.61
-75.21
-73.18
-66.53
-55.01
-39.49
-21.76
-4.08
11.54
23.92
32.83
38.76
42.40
44.25
44.55
43.40
40.98
37.70
34.13
30.81
28.05
25.82
23.92
22.18
20.56
19.25
18.58
18.67
19.43
20.45
21.20
21.26
20.51
19.17
17.63
16.18
14.82
13.29
11.20
8.33
4.75
0.77
-3.20
-6.82
-9.98
-12.81
-15.58
-18.69
-22.59
-27.59
-33.74
-40.53
-46.76
-50.67
-50.36
-44.52
-32.94
-16.80
1.69
19.91
35.67
47.68
55.68
60.06
61.51
60.67
58.08
54.25
49.75
45.24
41.20
37.80
34.80
31.70
28.07
23.79
19.25
15.16
12.25
10.86
10.83
11.46
11.89
11.34
9.45
6.39
2.66
-1.14
-4.56
-7.45
-9.98
-12.39
-14.87
-17.44
-20.03
-22.53
-24.90
-27.21
-29.56
-32.07
-34.98
-38.64
-43.42
-49.54
-56.67
-63.65
-68.59
-69.32
-64.14
-52.59
-35.73
-15.90
4.00
21.46
34.98
44.25
49.91
52.91
54.08
53.86
52.37
49.73
46.19
42.16
38.02
33.92
29.69
25.01
19.77
14.19
8.95
4.70
1.89
0.40
-0.33
-1.07
-2.50
-4.87
-8.07
-11.61
-14.92
-17.53
-19.24
-20.25
-21.10
-22.52
-25.02
-28.73
-33.28
-37.91
-41.87
-44.75
-46.59
-47.82
-48.98
-50.60
-53.04
-56.48
-60.76
-65.23
-68.76
-69.71
-66.42
-57.78
-43.75
-25.61
-5.59
13.70
30.17
42.61
50.93
55.81
58.25
59.13
59.01
58.17
56.67
54.56
51.87
48.63
44.88
40.66
36.15
31.61
27.48
24.18
22.02
21.06
21.02
21.36
21.44
20.76
19.09
16.61
13.73
10.92
8.39
6.06
3.50
0.27
-3.84
-8.63
-13.56
-18.06
-21.74
-24.62
-27.00
-29.49
-32.73
-37.27
-43.25
-50.07
-56.31
-59.83
-58.48
-50.89
-37.18
-19.10
0.56
18.88
33.73
44.25
50.66
53.83
54.72
54.12
52.56
50.44
48.06
45.62
43.19
40.65
37.78
34.37
30.32
25.87
21.49
17.79
15.25
14.04
13.88
14.14
14.07
13.06
10.90
7.70
3.92
0.12
-3.21
-5.84
-7.86
-9.71
-11.96
-15.08
-19.20
-24.08
-29.13
-33.74
-37.48
-40.27
-42.46
-44.72
-47.86
-52.54
-58.99
-66.60
-73.91
-78.78
-79.09
-73.44
-61.81
-45.59
-27.15
-9.09
6.60
18.81
27.44
32.94
35.99
37.15
36.77
35.13
32.53
29.44
26.38
23.73
21.61
19.67
17.43
14.47
10.82
7.05
3.96
2.23
2.05
2.90
3.95
4.32
3.51
1.59
-0.96
-3.47
-5.45
-6.77
-7.75
-9.00
-11.10
-14.29
-18.35
-22.64
-26.46
-29.27
-31.01
-31.96
-32.63
-33.60
-35.41
-38.57
-43.35
-49.56
-56.12
-61.12
-62.11
-57.04
-45.13
-27.37
-6.34
14.62
32.57
45.86
54.30
58.83
60.76
61.08
60.27
58.36
55.38
51.51
47.20
42.85
38.70
34.70
30.73
26.83
23.33
20.78
19.57
19.69
20.55
21.27
21.02
19.39
16.48
12.72
8.65
4.63
0.76
-3.01
-6.84
-10.85
-15.12
-19.63
-24.19
-28.57
-32.55
-36.05
-39.32
-42.89
-47.39
-53.25
-60.30
-67.58
-73.24
-75.09
-71.12
-60.31
-43.25
-22.03
0.31
20.73
37.16
48.86
56.30
60.53
62.55
62.98
62.16
60.34
57.82
54.99
52.12
49.24
46.18
42.69
38.59
33.92
29.02
24.42
20.75
18.47
17.61
17.76
18.15
17.89
16.46
13.78
10.27
6.57
3.22
0.43
-1.97
-4.38
-7.32
-11.13
-15.88
-21.29
-26.82
-31.78
-35.70
-38.52
-40.61
-42.68
-45.56
-49.92
-56.11
-63.83
-71.91
-78.35
-80.62
-76.53
-65.01
-46.87
-24.59
-1.59
18.94
35.05
46.25
53.20
57.01
58.55
58.32
56.66
53.99
50.90
48.01
45.69
43.88
42.17
39.95
36.85
32.85
28.36
24.08
20.64
18.47
17.51
17.32
17.20
16.46
14.70
11.86
8.25
4.38
0.82
-2.11
-4.36
-6.23
-8.29
-11.03
-14.74
-19.22
-23.92
-28.14
-31.33
-33.39
-34.58
-35.46
-36.63
-38.67
-42.08
-47.06
-53.33
-59.83
-64.70
-65.64
-60.68
-49.04
-31.57
-10.64
10.68
29.60
44.34
54.40
60.29
62.96
63.30
61.89
59.15
55.41
51.09
46.68
42.54
38.70
34.87
30.60
25.55
19.81
13.92
8.71
4.94
2.92
2.46
2.86
3.27
3.01
1.69
-0.67
-3.70
-6.97
-10.12
-13.03
-15.86
-18.94
-22.46
-26.40
-30.43
-34.09
-36.97
-38.92
-40.12
-40.98
-42.02
-43.80
-46.79
-51.26
-57.05
-63.25
-68.20
-69.77
-65.97
-55.81
-39.74
-19.70
1.49
20.94
36.56
47.51
54.16
57.66
59.27
59.88
59.81
58.95
57.10
54.25
50.67
46.78
42.88
38.98
34.92
30.56
26.05
21.84
18.45
16.08
14.48
12.97
10.78
7.48
3.07
-1.95
-6.93
-11.37
-15.09
-18.36
-21.68
-25.55
-30.26
-35.63
-41.19
-46.29
-50.45
-53.58
-56.03
-58.46
-61.62
-66.05
-71.87
-78.56
-84.90
-89.12
-89.29
-83.94
-72.63
-56.18
-36.58
-16.35
2.12
17.17
28.08
34.99
38.61
39.87
39.70
38.75
37.43
35.84
33.93
31.59
28.81
25.68
22.39
19.15
16.17
13.72
11.99
11.19
11.41
12.55
14.36
16.41
18.27
19.55
19.97
19.36
17.63
14.81
11.00
6.42
1.49
-3.28
-7.41
-10.57
-12.81
-14.62
-16.76
-20.13
-25.29
-32.25
-40.17
-47.50
-52.21
-52.33
-46.60
-34.88
-18.38
0.56
19.24
35.25
47.16
54.76
58.69
59.96
59.49
57.79
55.09
51.46
47.07
42.20
37.18
32.37
28.07
24.43
21.49
19.13
17.14
15.33
13.55
11.87
10.42
9.23
8.13
6.74
4.59
1.41
-2.80
-7.70
-12.81
-17.68
-21.99
-25.60
-28.53
-30.93
-33.08
-35.38
-38.36
-42.54
-48.21
-55.23
-62.67
-68.74
-71.17
-67.84
-57.62
-41.05
-20.28
1.56
21.38
37.16
48.27
55.25
59.13
60.85
60.95
59.78
57.65
54.98
52.15
49.35
46.42
43.04
38.89
33.95
28.53
23.27
18.81
15.68
13.98
13.43
13.33
12.85
11.30
8.44
4.54
0.26
-3.67
-6.79
-9.08
-10.95
-12.97
-15.63
-19.09
-23.15
-27.38
-31.29
-34.58
-37.27
-39.73
-42.60
-46.54
-51.93
-58.70
-66.08
-72.66
-76.56
-75.88
-69.21
-56.17
-37.85
-16.53
4.81
23.40
37.52
46.85
52.17
54.77
55.82
55.91
55.17
53.54
51.04
47.91
44.47
40.99
37.55
34.10
30.61
27.12
23.82
20.86
18.37
16.39
14.87
13.72
12.72
11.55
9.83
7.31
3.92
-0.03
-3.98
-7.38
-9.95
-11.83
-13.59
-15.94
-19.39
-24.01
-29.39
-34.80
-39.54
-43.24
-46.00
-48.28
-50.70
-53.86
-58.19
-63.81
-70.48
-77.34
-82.86
-85.03
-81.89
-72.35
-56.74
-36.95
-15.87
3.60
19.40
30.78
38.07
42.17
43.98
44.22
43.34
41.75
39.78
37.71
35.62
33.34
30.60
27.18
23.14
18.82
14.82
11.80
10.26
10.28
11.50
13.16
14.43
14.59
13.33
10.78
7.41
3.87
0.77
-1.52
-3.00
-4.04
-5.22
-7.13
-10.01
-13.68
-17.57
-21.03
-23.62
-25.36
-26.72
-28.40
-31.13
-35.40
-41.23
-48.02
-54.34
-58.17
-57.40
-50.53
-37.37
-19.30
1.16
21.13
38.29
51.40
60.30
65.51
67.78
67.81
66.20
63.47
60.08
56.40
52.65
48.90
45.10
41.21
37.20
33.11
29.09
25.42
22.47
20.49
19.44
18.87
18.09
16.48
13.78
10.21
6.41
2.93
0.09
-2.25
-4.51
-7.15
-10.47
-14.53
-19.09
-23.72
-27.93
-31.35
-33.80
-35.54
-37.15
-39.45
-43.21
-48.83
-56.13
-64.03
-70.72
-73.89
-71.45
-62.25
-46.67
-26.68
-5.19
14.79
31.22
43.36
51.55
56.70
59.58
60.59
59.92
57.80
54.60
50.85
46.99
43.19
39.39
35.37
31.03
26.43
21.98
18.20
15.56
14.26
14.05
14.32
14.23
13.13
10.85
7.75
4.54
1.87
-0.00
-1.35
-2.71
-4.68
-7.36
-10.53
-13.82
-16.94
-19.88
-22.90
-26.50
-30.99
-36.46
-42.49
-48.50
-54.01
-58.89
-63.48
-68.48
-74.52
-81.53
-88.43
-93.01
-92.84
-86.23
-72.97
-54.68
-34.48
-16.46
-4.69
-2.19
-9.36
-24.09
-41.71
-55.73
-59.94
-50.71
-29.15
-0.98
25.47
43.42
49.15
43.46
31.77
22.04
21.76
34.47
58.34
86.52
110.42
120.28
108.41
73.12
20.33
-36.94
-83.00
-104.14
-93.10
-49.77
16.30
89.28
153.39
198.04
220.48
223.49
212.71
183.25
139.69
93.63
54.80
27.72
8.43
-6.65
-21.87
-40.73
-65.14
-92.58
-119.27
-141.62
-156.32
-161.02
-154.28
-136.84
-111.18
-81.11
-49.79
-21.27
0.46
13.65
18.72
17.45
10.57
-2.72
-23.93
-52.91
-87.87
-125.16
-159.07
-183.86
-195.45
-192.93
-178.19
-154.92
-127.18
-99.17
-74.55
-55.15
-41.39
-32.70
-29.48
-33.06
-42.87
-56.03
-67.75
-77.13
-83.90
-87.82
-90.32
-92.11
-93.42
-93.92
-93.19
-90.97
-87.48
-82.78
-77.17
-71.28
-65.61
-60.44
-55.65
-51.03
-46.46
-42.12
-37.88
-33.67
-29.64
-25.78
-22.03
-18.14
-13.95
-9.42
-4.79
-0.14
4.38
8.52
12.07
14.85
16.76
17.68
17.45
15.80
12.66
7.94
1.61
-6.27
-15.57
-26.06
-37.50
-49.61
-62.11
-74.70
-87.02
-98.73
-109.48
-118.90
-126.67
-132.56
-136.40
-138.15
-137.88
-135.78
-132.03
-126.83
-120.30
-112.53
-103.60
-93.59
-82.72
-71.23
-59.40
-47.45
-35.45
-23.32
-10.88
2.05
15.44
29.04
42.35
54.73
65.67
74.90
82.50
88.83
94.36
99.45
104.23
108.64
112.54
115.95
119.17
122.80
127.61
134.45
144.12
157.26
174.09
194.07
215.56
235.83
251.59
260.00
259.59
250.82
235.79
217.39
198.21
179.84
162.81
146.94
131.96
117.77
104.44
91.95
80.06
68.34
56.33
43.78
30.72
17.38
4.06
-9.04
-21.81
-34.16
-45.76
-55.92
-63.44
-66.82
-64.68
-56.23
-41.77
-22.73
-1.44
19.52
37.98
52.68
63.41
70.80
75.85
79.50
82.36
84.57
86.02
86.51
85.94
84.39
82.10
79.36
76.38
73.29
70.07
66.71
63.21
59.68
56.21
52.84
49.54
46.17
42.64
38.86
34.84
30.58
26.06
21.21
15.99
10.49
4.96
-0.24
-4.76
-8.45
-11.45
-14.20
-17.31
-21.34
-26.52
-32.51
-38.30
-42.33
-42.94
-38.88
-29.85
-16.66
-1.04
14.88
29.17
40.59
48.64
53.42
55.41
55.17
53.28
50.27
46.55
42.39
37.89
33.02
27.70
21.92
15.71
9.20
2.52
-4.14
-10.57
-16.53
-21.80
-26.29
-30.07
-33.46
-36.86
-40.68
-45.19
-50.50
-56.52
-63.07
-69.21
-74.21
-77.97
-80.86
-83.37
-85.76
-88.12
-90.50
-92.84
-94.25
-93.76
-90.74
-84.83
-75.79
-63.34
-47.47
-28.59
-7.58
16.02
41.99
68.80
94.08
115.87
133.44
147.11
157.73
166.27
178.16
196.86
221.55
247.72
270.64
287.72
298.47
303.62
304.51
312.12
333.93
369.08
409.49
446.61
475.93
496.54
509.12
514.73
529.62
564.57
617.62
675.81
725.95
761.67
782.68
791.53
791.44
805.03
847.24
915.88
994.13
1065.01
1120.54
1160.57
1187.97
1082.01
788.68
351.26
-115.29
-512.43
-802.19
-991.36
-1103.75
-1164.34
-1193.35
-1185.07
-1135.63
-1053.91
-960.83
-876.10
-809.59
-762.35
-730.91
-710.96
-683.20
-634.84
-567.00
-493.42
-427.57
-376.18
-339.47
-314.28
-297.33
-275.97
-241.77
-195.28
-144.66
-98.47
-61.02
-32.43
-10.70
5.83
23.44
46.23
73.79
101.74
125.23
140.92
146.48
146.26
142.03
136.80
132.59
129.68
126.92
123.10
117.73
111.14
104.16
96.84
89.48
82.34
75.63
69.49
64.02
59.28
55.34
52.38
49.90
47.58
45.18
42.48
39.26
35.35
30.57
24.82
18.09
10.05
0.55
-10.41
-22.69
-36.06
-50.23
-64.79
-79.30
-93.24
-106.26
-117.97
-127.96
-135.90
-141.59
-144.97
-146.18
-145.48
-143.26
-140.00
-136.13
-131.98
-127.79
-123.73
-119.96
-116.61
-113.80
-111.60
-109.93
-108.57
-107.11
-105.12
-102.22
-98.26
-93.34
-87.81
-82.11
-76.57
-71.33
-66.26
-61.14
-55.87
-50.67
-46.16
-43.16
-42.48
-44.48
-48.92
-54.97
-61.65
-68.14
-74.30
-80.71
-88.36
-98.28
-111.04
-126.54
-144.05
-162.37
-180.07
-195.65
-207.66
-214.91
-216.77
-213.37
-205.65
-195.05
-183.17
-171.44
-161.23
-154.09
-152.01
-157.14
-170.98
-193.37
-221.57
-250.27
-272.45
-281.14
-271.50
-242.73
-198.93
-148.34
-101.10
-66.15
-48.36
-47.22
-57.59
-72.14
-84.29
-90.17
-88.98
-81.90
-70.50
-55.76
-38.16
-18.35
2.10
20.77
35.07
43.27
45.09
41.72
35.26
27.82
21.02
15.74
12.61
12.33
16.00
24.80
39.42
59.40
82.85
106.77
127.89
143.58
152.48
154.62
150.89
142.50
130.62
116.21
100.20
83.63
67.56
52.98
40.53
30.56
23.17
18.40
16.09
15.82
16.80
17.80
17.54
15.07
10.10
3.15
-4.64
-11.94
-17.72
-21.49
-23.50
-24.60
-25.97
-28.76
-33.75
-40.82
-48.76
-55.36
-57.92
-54.16
-43.04
-25.26
-3.11
20.19
41.57
58.89
71.28
78.99
82.75
83.33
81.27
76.95
70.78
63.45
55.80
48.58
42.26
36.83
31.85
26.70
20.97
14.63
8.15
2.29
-2.27
-5.23
-6.90
-8.10
-9.82
-12.80
-17.24
-22.72
-28.46
-33.69
-37.96
-41.36
-44.37
-47.69
-52.09
-58.18
-66.17
-75.57
-84.88
-91.70
-93.25
-87.23
-72.74
-50.76
-23.90
4.38
30.79
53.04
70.10
81.92
89.01
92.00
91.51
88.25
83.08
76.94
70.68
64.80
59.27
53.60
47.16
39.53
30.93
22.16
14.36
8.53
5.07
3.63
3.29
2.96
1.76
-0.65
-4.06
-7.95
-11.69
-14.86
-17.46
-19.86
-22.72
-26.83
-32.79
-40.76
-50.17
-59.58
-66.81
-69.36
-65.18
-53.33
-34.49
-10.81
14.69
38.95
59.71
75.78
86.98
93.65
96.42
95.94
92.85
87.90
81.75
75.00
67.96
60.72
53.21
45.37
37.27
29.19
21.56
14.93
9.74
6.18
4.01
2.61
1.04
-1.60
-5.89
-11.80
-18.80
-26.04
-32.74
-38.45
-43.20
-47.53
-52.25
-58.28
-66.27
-76.17
-87.02
-96.86
-103.11
-103.30
-95.84
-80.54
-58.78
-33.08
-6.42
18.49
39.71
56.28
68.03
75.34
78.82
79.14
77.01
73.17
68.36
63.20
58.10
53.10
47.91
42.24
35.93
29.24
22.76
17.19
13.05
10.47
9.15
8.49
7.80
6.48
4.21
0.94
-3.02
-7.18
-11.12
-14.54
-17.44
-20.08
-22.90
-26.46
-31.33
-37.89
-46.05
-54.90
-62.56
-66.52
-64.34
-54.58
-37.48
-15.00
9.81
33.80
54.60
71.01
82.88
90.61
94.72
95.58
93.50
88.89
82.35
74.66
66.65
58.93
51.81
45.23
38.90
32.56
26.18
20.05
14.70
10.58
7.85
6.18
4.87
3.00
-0.17
-4.99
-11.32
-18.54
-25.83
-32.35
-37.59
-41.53
-44.59
-47.54
-51.27
-56.52
-63.68
-72.40
-81.49
-88.85
-91.89
-88.22
-76.48
-57.03
-31.92
-4.37
22.26
45.43
63.82
77.29
86.28
91.43
93.20
92.03
88.41
82.95
76.28
68.95
61.28
53.46
45.64
37.98
30.74
24.13
18.34
13.45
9.50
6.46
4.23
2.56
1.03
-0.94
-3.93
-8.28
-14.07
-20.95
-28.32
-35.49
-42.00
-47.73
-52.88
-57.92
-63.34
-69.57
-76.91
-85.36
-94.34
-102.56
-107.98
-108.23
-101.43
-86.90
-65.66
-40.14
-13.45
11.57
33.03
50.14
62.92
71.74
76.98
79.06
78.41
75.59
71.28
66.13
60.68
55.28
50.09
45.07
40.10
35.10
30.15
25.54
21.66
18.85
17.21
16.43
15.97
15.21
13.65
11.01
7.32
2.70
-2.56
-8.10
-13.65
-18.96
-23.93
-28.59
-33.10
-37.81
-43.20
-49.79
-57.77
-66.69
-75.09
-80.67
-80.79
-73.50
-58.26
-36.36
-10.59
15.72
39.60
59.15
73.68
83.39
88.95
91.09
90.49
87.66
83.04
77.05
70.16
62.84
55.51
48.44
41.71
35.30
29.19
23.53
18.63
14.79
12.09
10.29
8.82
7.00
4.35
0.70
-3.83
-8.97
-14.41
-19.93
-25.35
-30.51
-35.30
-39.67
-43.69
-47.64
-51.97
-57.26
-64.03
-72.43
-81.88
-90.80
-96.85
-97.46
-90.72
-76.14
-54.87
-29.42
-2.86
22.02
43.24
59.81
71.57
78.85
82.33
82.79
81.02
77.78
73.61
68.92
63.90
58.66
53.16
47.42
41.52
35.70
30.41
26.11
23.05
21.13
19.89
18.70
17.08
14.87
12.15
9.15
5.96
2.52
-1.36
-5.82
-10.89
-16.35
-21.82
-26.91
-31.32
-35.08
-38.54
-42.43
-47.63
-54.91
-64.48
-75.67
-86.84
-95.53
-99.09
-95.45
-83.76
-64.81
-40.83
-14.88
9.95
31.33
47.98
59.63
66.64
69.69
69.58
67.09
63.07
58.24
53.06
47.66
41.88
35.49
28.45
21.10
14.12
8.27
4.09
1.63
0.51
0.05
-0.46
-1.43
-3.00
-5.02
-7.34
-9.95
-12.96
-16.48
-20.55
-24.98
-29.46
-33.65
-37.40
-40.80
-44.06
-47.45
-51.22
-55.67
-61.08
-67.73
-75.57
-83.86
-90.93
-94.44
-92.03
-82.16
-64.79
-41.60
-15.48
10.33
33.14
51.46
65.09
74.76
81.52
86.22
89.16
90.17
88.96
85.45
80.01
73.36
66.37
59.69
53.68
48.41
43.89
40.17
37.28
35.12
33.47
31.91
30.06
27.68
24.71
21.12
16.89
11.95
6.27
-0.06
-6.81
-13.70
-20.47
-26.94
-33.08
-39.00
-45.01
-51.68
-59.63
-69.16
-79.78
-89.87
-96.92
-98.18
-91.69
-77.08
-55.74
-30.39
-4.22
20.02
40.49
56.41
67.73
74.96
78.80
80.06
79.46
77.58
74.75
71.07
66.50
61.00
54.67
47.79
40.90
34.60
29.54
26.06
24.11
23.20
22.46
21.00
18.21
14.02
8.93
3.71
-0.86
-4.44
-7.24
-9.97
-13.45
-18.32
-24.71
-32.16
-39.85
-46.90
-52.78
-57.50
-61.67
-66.32
-72.57
-81.15
-92.02
-103.97
-114.63
-120.96
-120.08
-110.31
-91.90
-66.97
-38.89
-11.14
13.52
33.65
48.84
59.39
65.81
68.70
68.70
66.67
63.55
60.08
56.68
53.25
49.34
44.47
38.45
31.58
24.56
18.28
13.54
10.75
9.80
10.15
10.96
11.42
10.91
9.21
6.43
2.94
-0.79
-4.38
-7.66
-10.67
-13.69
-17.11
-21.25
-26.22
-31.82
-37.56
-42.87
-47.30
-50.81
-53.84
-57.23
-61.93
-68.58
-77.07
-86.30
-94.24
-98.34
-96.20
-86.38
-68.86
-45.21
-18.05
9.59
35.12
56.79
73.85
86.31
94.59
99.30
101.10
100.66
98.66
95.63
91.82
87.31
81.99
75.89
69.32
62.87
57.19
52.80
49.85
48.06
46.86
45.59
43.73
40.93
37.09
32.29
26.75
20.80
14.76
8.95
3.39
-2.08
-7.79
-14.05
-20.98
-28.33
-35.65
-42.38
-48.15
-53.00
-57.35
-62.01
-67.97
-76.00
-86.27
-97.89
-108.82
-116.15
-116.97
-109.21
-92.51
-68.37
-39.75
-10.20
17.14
40.14
57.87
70.36
78.21
82.34
83.70
83.25
81.76
79.77
77.40
74.48
70.70
65.80
59.80
53.06
46.28
40.13
35.17
31.60
29.23
27.65
26.34
24.85
22.92
20.38
17.15
13.21
8.54
3.24
-2.43
-8.11
-13.43
-18.12
-22.22
-26.06
-30.12
-34.92
-40.73
-47.47
-54.63
-61.57
-67.70
-72.70
-76.77
-80.41
-84.43
-89.69
-96.85
-106.03
-116.50
-126.49
-133.44
-134.44
-127.31
-111.29
-87.54
-58.80
-28.61
-0.24
24.03
43.21
57.28
66.83
72.59
75.34
75.89
75.04
73.46
71.56
69.36
66.65
63.12
58.62
53.29
47.64
42.24
37.64
34.16
31.93
30.85
30.73
31.30
32.18
32.88
32.84
31.58
28.93
25.15
20.85
16.72
13.15
10.07
6.91
3.02
-1.97
-7.92
-14.22
-20.17
-25.30
-29.67
-33.75
-38.30
-43.96
-51.19
-60.07
-70.22
-80.57
-89.24
-93.80
-91.91
-82.04
-64.21
-40.20
-13.03
13.95
37.99
57.60
72.52
83.26
90.50
94.69
96.05
94.71
90.99
85.43
78.79
71.81
65.00
58.61
52.64
47.05
41.82
37.14
33.25
30.45
28.81
28.15
27.96
27.56
26.28
23.75
20.03
15.51
10.78
6.30
2.24
-1.64
-5.81
-10.79
-16.93
-24.21
-32.25
-40.35
-47.77
-53.89
-58.60
-62.31
-65.93
-70.61
-77.45
-87.00
-98.98
-111.94
-123.36
-130.14
-129.33
-119.14
-99.71
-73.17
-43.11
-13.36
12.90
33.94
49.46
60.09
66.81
70.54
72.01
71.78
70.39
68.20
65.35
61.76
57.18
51.47
44.76
37.48
30.26
23.77
18.53
14.86
12.81
12.20
12.58
13.28
13.52
12.59
10.03
5.89
0.62
-4.99
-10.18
-14.43
-17.74
-20.58
-23.63
-27.59
-32.82
-39.18
-46.08
-52.75
-58.52
-63.09
-66.66
-69.82
-73.39
-78.17
-84.73
-93.14
-102.74
-111.99
-118.60
-119.93
-113.82
-99.31
-77.10
-49.56
-20.00
8.20
32.49
51.55
65.26
74.31
79.72
82.50
83.46
83.21
82.12
80.36
77.88
74.49
70.01
64.43
58.14
51.86
46.45
42.66
40.76
40.41
40.75
40.77
39.65
37.07
33.22
28.61
23.80
19.09
14.50
9.74
4.52
-1.37
-7.88
-14.69
-21.41
-27.73
-33.56
-39.20
-45.25
-52.46
-61.54
-72.73
-85.57
-98.50
-109.11
-114.47
-112.10
-100.73
-80.92
-54.93
-26.11
2.20
27.45
48.30
64.50
76.38
84.49
89.42
91.66
91.81
90.44
88.00
84.75
80.69
75.71
69.85
63.32
56.60
50.31
45.07
41.29
39.03
37.95
37.34
36.33
34.10
30.28
24.97
18.73
12.36
6.48
1.40
-3.11
-7.63
-12.88
-19.44
-27.41
-36.42
-45.62
-54.07
-61.14
-66.81
-71.80
-77.32
-84.73
-94.90
-107.81
-122.16
-135.49
-144.59
-146.37
-138.70
-121.30
-95.85
-65.60
-34.33
-5.37
19.17
38.56
53.08
63.54
70.74
75.35
77.92
78.85
78.49
76.98
74.38
70.56
65.47
59.20
52.07
44.70
37.78
32.07
28.15
26.20
25.95
26.64
27.29
26.91
24.90
21.20
16.30
10.96
5.90
1.48
-2.35
-6.07
-10.23
-15.30
-21.48
-28.64
-36.39
-44.15
-51.30
-57.31
-61.94
-65.44
-68.59
-72.62
-78.83
-87.96
-99.61
-111.92
-121.89
-126.12
-121.94
-108.25
-85.91
-57.48
-26.35
4.19
31.68
54.74
73.05
86.92
96.96
103.80
108.01
110.05
110.33
109.21
106.99
103.88
99.96
95.24
89.82
83.91
77.93
72.45
68.03
64.88
62.78
61.11
59.02
55.81
51.15
45.26
38.69
32.14
26.02
20.36
14.76
8.64
1.54
-6.73
-15.98
-25.77
-35.52
-44.71
-52.95
-60.13
-66.52
-72.78
-79.94
-89.08
-100.90
-115.07
-129.81
-142.06
-148.09
-144.74
-130.46
-106.11
-74.71
-40.52
-7.69
20.83
43.74
61.22
74.21
83.75
90.65
95.44
98.48
100.09
100.48
99.69
97.57
93.84
88.32
81.15
72.92
64.57
57.18
51.60
48.18
46.67
46.31
46.12
45.25
43.13
39.60
34.78
28.95
22.42
15.61
8.93
2.76
-2.74
-7.87
-13.20
-19.42
-26.91
-35.59
-44.86
-53.90
-62.00
-68.88
-74.73
-80.11
-85.83
-92.77
-101.70
-112.91
-125.75
-138.34
-147.65
-150.12
-142.84
-124.68
-96.87
-62.72
-26.66
7.19
35.95
58.43
74.75
85.73
92.35
95.53
96.15
95.13
93.31
91.25
89.04
86.27
82.33
76.75
69.55
61.36
53.22
46.22
41.05
37.90
36.37
35.63
34.76
32.96
29.82
25.32
19.84
13.89
7.98
2.39
-2.94
-8.33
-14.27
-21.13
-28.95
-37.37
-45.81
-53.62
-60.47
-66.48
-72.17
-78.45
-86.26
-96.32
-108.66
-122.30
-135.05
-143.78
-145.20
-136.92
-118.50
-91.67
-59.98
-27.58
1.96
26.49
45.41
59.15
68.59
74.54
77.68
78.60
77.92
76.14
73.61
70.32
65.98
60.29
53.15
44.97
36.64
29.29
23.89
20.86
19.92
20.03
19.99
18.81
16.18
12.56
8.85
5.86
3.95
2.73
1.35
-1.09
-5.09
-10.52
-16.73
-22.94
-28.56
-33.49
-38.07
-42.97
-48.96
-56.76
-66.73
-78.61
-91.20
-102.27
-108.80
-107.82
-97.34
-77.19
-49.27
-17.09
15.32
44.47
68.18
85.76
97.62
104.70
108.03
108.47
106.68
103.22
98.57
93.06
86.91
80.20
72.97
65.39
57.86
50.97
45.33
41.37
39.05
37.91
37.13
35.81
33.21
29.08
23.68
17.64
11.64
6.02
0.66
-4.97
-11.50
-19.25
-28.05
-37.22
-45.92
-53.48
-59.65
-64.78
-69.68
-75.50
-83.39
-94.15
-107.67
-122.47
-135.57
-143.12
-141.52
-128.78
-105.33
-74.04
-39.18
-5.11
24.90
49.18
67.42
80.12
88.06
92.07
93.04
91.97
89.81
87.25
84.54
81.36
77.15
71.44
64.10
55.59
46.81
38.79
32.42
28.11
25.75
24.78
24.40
23.80
22.32
19.53
15.26
9.60
2.94
-4.14
-11.04
-17.44
-23.39
-29.39
-36.17
-44.22
-53.53
-63.40
-72.72
-80.44
-86.00
-89.54
-91.90
-94.34
-98.20
-104.60
-114.10
-126.33
-139.57
-150.84
-156.35
-152.60
-137.66
-111.97
-78.45
-41.55
-5.87
25.15
49.91
68.35
81.35
89.99
95.21
97.73
98.27
97.54
96.11
94.20
91.56
87.60
81.80
74.00
64.73
55.11
46.55
40.25
36.77
35.92
36.80
38.15
38.80
37.92
35.24
30.99
25.77
20.28
15.10
10.52
6.39
2.22
-2.60
-8.55
-15.68
-23.65
-31.67
-38.98
-45.03
-49.79
-53.81
-58.08
-63.83
-72.06
-83.04
-95.85
-108.20
-116.69
-117.84
-109.18
-90.32
-63.14
-31.27
1.13
30.64
55.32
74.66
89.10
99.26
105.61
108.39
107.92
104.79
99.81
93.80
87.31
80.58
73.58
66.27
58.80
51.56
45.11
39.94
36.35
34.26
33.22
32.45
31.07
28.33
23.93
18.11
11.61
5.31
-0.09
-4.43
-8.13
-12.05
-17.10
-23.86
-32.29
-41.75
-51.25
-59.81
-66.90
-72.66
-77.84
-83.68
-91.45
-102.13
-115.90
-131.64
-146.79
-157.57
-159.87
-150.70
-129.35
-97.98
-61.04
-23.79
9.37
36.04
55.86
69.79
79.08
84.67
87.10
86.81
84.40
80.69
76.42
71.96
67.24
61.86
55.47
48.02
40.00
32.25
25.79
21.38
19.27
19.04
19.75
20.24
19.55
17.20
13.23
8.12
2.55
-2.87
-7.72
-11.84
-15.41
-18.86
-22.79
-27.79
-34.19
-41.85
-50.13
-58.13
-64.93
-70.16
-74.04
-77.47
-81.80
-88.37
-97.95
-110.34
-123.84
-135.39
-141.12
-137.59
-122.99
-97.95
-65.42
-29.81
4.54
34.41
58.33
76.28
89.04
97.54
102.56
104.73
104.63
102.89
100.02
96.32
91.86
86.52
80.27
73.28
66.07
59.38
54.02
50.50
48.86
48.51
48.43
47.54
45.07
40.86
35.36
29.32
23.40
17.82
12.29
6.20
-1.00
-9.47
-18.80
-28.15
-36.68
-43.86
-49.78
-55.10
-60.91
-68.36
-78.40
-91.34
-106.44
-121.64
-133.63
-138.64
-133.54
-117.09
-90.55
-57.38
-22.10
11.11
39.46
61.87
78.50
90.18
97.81
102.22
104.09
104.11
102.86
100.63
97.44
93.05
87.18
79.72
70.93
61.47
52.31
44.52
38.94
35.86
34.92
35.11
35.03
33.42
29.53
23.45
16.00
8.46
1.94
-3.10
-7.11
-11.23
-16.75
-24.46
-34.14
-44.75
-54.81
-63.18
-69.54
-74.51
-79.35
-85.48
-94.10
-105.84
-120.55
-136.84
-152.09
-162.61
-164.56
-155.13
-133.79
-102.73
-66.27
-29.46
3.51
30.34
50.72
65.67
76.54
84.38
89.72
92.79
93.84
93.20
91.25
88.20
84.03
78.56
71.74
63.83
55.47
47.55
40.99
36.36
33.80
32.99
33.28
33.87
33.94
32.81
30.07
25.71
20.18
14.26
8.84
4.47
1.12
-1.83
-5.33
-10.23
-16.82
-24.75
-33.11
-40.83
-47.07
-51.60
-54.91
-58.08
-62.41
-69.10
-78.66
-90.55
-103.05
-113.47
-118.76
-116.46
-105.43
-86.34
-61.52
-34.34
-8.21
14.21
31.52
43.52
50.71
53.85
53.52
50.06
43.78
35.07
24.57
13.02
1.10
-10.87
-23.00
-35.74
-49.47
-64.15
-78.89
-91.91
-100.80
-103.21
-97.59
-83.95
-64.08
-40.98
-17.87
2.74
19.86
34.00
46.78
59.91
74.31
89.60
104.69
118.56
130.90
142.26
153.61
165.72
178.60
191.41
202.50
210.57
215.21
216.93
216.84
216.39
217.07
220.01
225.50
231.84
236.59
237.25
231.57
217.86
195.57
165.52
129.54
89.90
47.17
2.99
-39.62
-77.50
-109.00
-134.19
-154.45
-171.47
-186.70
-203.34
-221.79
-239.71
-254.72
-266.82
-278.18
-291.55
-308.46
-328.59
-353.23
-379.80
-402.36
-415.11
-415.51
-404.79
-386.63
-365.19
-322.44
-258.51
-190.00
-134.39
-97.38
-75.85
-64.94
-61.06
-61.39
-63.74
-70.09
-80.30
-91.27
-99.19
-101.73
-98.19
-91.41
-83.36
-75.40
-70.20
-67.57
-64.39
-56.96
-42.46
-20.85
5.65
34.54
63.73
91.90
120.11
151.24
188.40
235.38
293.55
361.25
434.79
508.11
574.46
625.92
654.94
656.84
634.29
592.66
536.64
469.34
391.29
304.99
213.32
120.80
34.85
-31.91
-70.88
-82.24
-73.68
-57.26
-40.06
-26.40
-17.82
-41.29
-104.67
-191.27
-274.98
-329.01
-363.01
-384.16
-394.48
-397.73
-394.15
-380.38
-356.35
-326.86
-298.65
-277.74
-262.89
-251.04
-239.55
-226.29
-207.12
-180.90
-150.44
-120.13
-93.88
-70.08
-45.95
-19.24
11.48
48.01
88.95
129.10
161.66
180.79
186.07
180.40
168.73
156.74
150.28
151.84
159.57
169.00
175.38
176.72
172.99
165.45
156.01
148.57
145.53
146.67
150.10
153.96
157.37
159.73
160.51
159.57
161.01
167.19
176.31
183.23
182.97
173.05
154.04
129.21
103.43
87.34
86.87
99.82
118.72
137.30
153.44
168.19
183.52
200.70
227.44
266.76
313.92
359.68
396.85
422.46
436.42
439.64
385.31
259.31
90.84
-70.14
-192.27
-271.20
-316.60
-340.26
-351.48
-356.20
-349.89
-330.07
-300.83
-270.50
-245.39
-227.72
-216.76
-211.05
-209.26
-204.27
-191.91
-173.86
-155.70
-141.92
-134.80
-134.14
-139.15
-148.95
-159.13
-167.30
-174.45
-182.85
-189.87
-192.33
-185.42
-166.39
-136.67
-100.00
-62.88
-32.22
-12.32
-2.96
-0.99
-2.26
-4.33
-6.77
-9.38
-11.86
-13.51
-13.62
-11.74
-8.57
-5.21
-2.92
-2.51
-3.64
-5.08
-5.29
-3.17
1.56
7.78
14.02
18.86
21.61
22.47
22.35
22.30
23.08
24.69
26.39
27.31
26.75
24.61
21.35
17.84
14.90
13.39
13.62
15.12
16.68
16.43
12.48
3.53
-10.35
-27.74
-45.87
-62.00
-74.45
-83.02
-88.81
-93.41
-98.07
-103.15
-108.21
-111.81
-112.62
-109.77
-102.95
-92.28
-78.05
-60.49
-39.35
-17.71
2.12
18.22
29.37
35.25
36.48
34.36
30.41
25.94
21.65
18.14
15.48
13.39
11.44
9.18
6.28
2.60
-1.74
-6.50
-10.96
-14.50
-16.75
-17.61
-17.26
-16.02
-14.42
-13.07
-12.72
-13.78
-16.46
-20.61
-25.64
-30.72
-35.08
-38.32
-40.59
-42.67
-45.56
-50.20
-56.98
-65.39
-73.85
-80.05
-81.59
-76.68
-64.74
-46.58
-24.01
0.84
26.05
50.11
72.01
91.20
107.34
120.27
129.92
136.51
140.86
144.07
147.09
150.42
154.02
157.47
160.25
161.87
161.94
160.56
157.51
152.28
144.43
134.28
123.14
112.68
104.04
97.13
92.01
87.81
82.91
75.75
65.81
53.82
41.04
28.40
16.22
7.06
2.21
0.34
-2.03
-8.14
-18.84
-32.40
-45.31
-53.72
-50.17
-30.47
3.74
46.04
89.33
129.28
164.43
195.19
222.40
252.60
290.24
334.86
381.73
425.76
464.21
495.80
519.44
496.16
405.58
258.29
91.21
-59.27
-174.84
-253.39
-301.52
-328.10
-341.54
-342.67
-332.16
-314.88
-298.44
-290.19
-293.60
-307.82
-327.74
-346.28
-352.42
-339.70
-310.14
-273.18
-240.52
-217.73
-208.07
-210.12
-219.20
-226.87
-226.88
-217.57
-201.08
-180.40
-156.88
-130.81
-101.99
-71.25
-39.50
-8.79
17.83
37.70
49.82
55.58
57.81
60.40
67.02
80.56
101.53
127.27
152.25
169.59
173.48
161.19
134.48
98.87
61.40
28.06
1.81
-17.63
-32.55
-45.21
-56.60
-66.10
-72.48
-75.20
-74.89
-73.20
-71.94
-72.16
-73.79
-75.91
-77.57
-78.30
-78.39
-78.14
-77.53
-75.90
-71.96
-64.11
-51.10
-32.68
-9.68
16.12
43.51
71.35
98.41
123.29
144.70
161.42
172.03
175.36
170.61
159.70
145.39
130.12
115.23
101.59
89.92
80.53
74.05
70.72
73.26
83.29
99.71
118.68
136.14
149.66
158.31
163.44
166.63
172.89
185.74
205.38
228.46
251.37
272.04
289.23
