1660933077.00
64.000000
-0.00
-0.00
-0.00
-0.00
-0.00
-0.00
-0.00
-0.00
-0.00
-0.00
0.00
0.01
0.01
-0.00
-0.03
-0.05
-0.05
0.00
0.13
0.36
0.66
1.01
1.37
1.72
2.06
2.40
2.79
3.25
3.81
4.44
5.10
5.73
6.32
6.89
7.51
8.25
9.15
10.29
11.55
12.81
13.95
14.92
15.81
16.81
18.16
19.99
22.51
25.49
28.63
31.64
34.38
36.97
39.78
43.28
47.77
53.58
60.29
67.32
74.09
80.34
86.27
92.49
99.79
108.64
119.44
131.50
143.85
155.61
166.37
176.47
186.85
199.01
211.59
226.52
243.98
263.73
284.49
303.64
317.37
321.59
313.25
291.36
257.78
215.64
168.69
120.00
71.47
24.01
-21.78
-65.27
-105.79
-142.81
-176.88
-209.31
-241.86
-276.01
-312.04
-348.44
-381.77
-407.60
-421.75
-422.03
-409.13
-386.40
-358.45
-329.44
-301.82
-276.10
-251.73
-228.06
-205.22
-183.97
-165.06
-148.65
-134.12
-120.41
-106.63
-92.51
-78.40
-65.11
-53.42
-43.70
-35.80
-29.13
-22.97
-16.76
-10.29
-3.75
2.40
7.68
11.80
14.77
16.88
18.54
20.12
21.78
23.49
25.03
26.14
26.67
26.64
26.19
25.61
25.12
24.86
24.80
24.78
24.62
24.23
23.60
22.81
21.95
21.08
20.23
19.40
18.61
17.91
17.35
16.95
16.65
16.38
16.02
15.53
14.94
14.38
13.97
13.76
13.72
13.73
13.62
13.31
12.79
12.20
11.69
11.38
11.25
11.20
11.10
10.86
10.50
10.12
9.79
9.56
9.40
9.26
9.11
8.95
8.82
8.76
8.73
8.63
8.38
7.94
7.35
6.72
6.17
5.77
5.51
5.28
4.98
4.55
3.96
3.26
2.55
1.88
1.32
0.89
0.58
0.35
0.13
-0.13
-0.47
-0.92
-1.47
-2.09
-2.77
-3.49
-4.24
-4.98
-5.71
-6.39
-7.02
-7.60
-8.12
-8.56
-8.89
-9.08
-9.15
-9.13
-9.08
-9.03
-8.95
-8.78
-8.46
-7.98
-7.36
-6.69
-6.06
-5.56
-5.18
-4.87
-4.57
-4.19
-3.70
-3.13
-2.52
-1.92
-1.33
-0.76
-0.19
0.36
0.84
1.22
1.48
1.61
1.69
1.76
1.85
1.93
1.98
1.98
1.96
1.99
2.09
2.28
2.48
2.61
2.64
2.61
2.62
2.77
3.09
3.53
3.97
4.30
4.45
4.45
4.37
4.27
4.19
4.16
4.15
4.18
4.26
4.39
4.53
4.59
4.51
4.28
3.94
3.61
3.42
3.43
3.61
3.88
4.13
4.29
4.32
4.20
3.97
3.66
3.35
3.09
2.98
3.04
3.23
3.46
3.60
3.55
3.30
2.91
2.50
2.19
2.01
1.96
2.00
2.09
2.21
2.32
2.39
2.39
2.29
2.15
2.06
2.10
2.27
2.48
2.60
2.50
2.16
1.66
1.13
0.70
0.44
0.36
0.47
0.73
1.08
1.43
1.69
1.78
1.71
1.55
1.38
1.29
1.27
1.29
1.31
1.30
1.24
1.16
1.08
1.03
1.03
1.11
1.25
1.39
1.43
1.32
1.06
0.74
0.45
0.30
0.28
0.36
0.46
0.54
0.59
0.63
0.73
0.87
1.02
1.12
1.08
0.89
0.58
0.25
0.02
-0.03
0.08
0.29
0.47
0.55
0.51
0.41
0.34
0.35
0.49
0.74
1.07
1.43
1.74
1.94
1.97
1.82
1.54
1.23
0.98
0.88
0.92
1.00
1.01
0.87
0.58
0.25
0.02
0.02
0.26
0.64
1.01
1.24
1.33
1.33
1.32
1.35
1.39
1.38
1.28
1.16
1.06
1.05
1.10
1.14
1.08
0.91
0.68
0.49
0.40
0.44
0.56
0.67
0.74
0.76
0.78
0.85
0.97
1.10
1.17
1.15
1.05
0.90
0.77
0.69
0.66
0.62
0.56
0.46
0.34
0.21
0.04
-0.18
-0.42
-0.61
-0.65
-0.51
-0.21
0.10
0.32
0.38
0.30
0.19
0.17
0.23
0.30
0.25
0.01
-0.39
-0.80
-1.05
-1.03
-0.77
-0.38
-0.05
0.08
-0.03
-0.29
-0.58
-0.77
-0.79
-0.63
-0.35
-0.03
0.26
0.46
0.56
0.56
0.50
0.45
0.44
0.50
0.63
0.79
0.94
1.01
0.96
0.75
0.43
0.08
-0.19
-0.27
-0.13
0.20
0.59
0.90
1.03
0.95
0.74
0.49
0.32
0.27
0.38
0.60
0.91
1.23
1.49
1.62
1.59
1.43
1.19
0.93
0.68
0.42
0.16
-0.09
-0.24
-0.24
-0.09
0.12
0.23
0.12
-0.22
-0.64
-0.97
-1.08
-0.97
-0.75
-0.58
-0.54
-0.60
-0.64
-0.57
-0.39
-0.23
-0.27
-0.59
-1.14
-1.75
-2.19
-2.35
-2.24
-2.00
-1.80
-1.74
-1.78
-1.85
-1.84
-1.75
-1.64
-1.63
-1.77
-2.02
-2.31
-2.53
-2.58
-2.40
-1.92
-1.13
-0.04
1.26
2.58
3.69
4.42
4.69
4.58
4.24
3.85
3.50
3.21
2.97
2.74
2.52
2.35
2.24
2.17
2.14
2.10
2.03
1.91
1.73
1.52
1.29
1.06
0.85
0.64
0.39
0.07
-0.35
-0.84
-1.33
-1.74
-2.00
-2.07
-1.95
-1.68
-1.33
-0.98
-0.68
-0.47
-0.36
-0.34
-0.41
-0.52
-0.68
-0.80
-0.85
-0.80
-0.65
-0.48
-0.37
-0.39
-0.53
-0.71
-0.88
-1.02
-1.17
-1.44
-1.85
-2.36
-2.86
-3.23
-3.45
-3.58
-3.74
-4.02
-4.46
-5.01
-5.57
-6.10
-6.58
-7.01
-7.46
-7.94
-8.48
-9.06
-9.64
-10.10
-10.35
-10.27
-9.87
-9.31
-8.79
-8.52
-8.60
-8.93
-9.33
-9.58
-9.50
-8.99
-7.98
-6.45
-4.38
-1.84
1.02
3.93
6.55
8.62
9.98
10.61
10.64
10.28
9.85
9.67
9.99
10.93
12.40
14.13
15.81
17.19
18.17
18.74
18.97
18.86
18.30
17.17
15.42
13.19
10.75
8.46
6.55
4.99
3.51
1.69
-0.93
-4.67
-9.64
-15.68
-22.40
-29.27
-35.68
-41.20
-45.67
-49.30
-52.57
-56.04
-60.07
-64.64
-69.41
-73.92
-77.91
-81.46
-85.06
-89.36
-94.84
-101.51
-108.86
-115.96
-121.74
-125.47
-127.06
-127.27
-127.63
-130.07
-136.25
-146.71
-160.18
-173.45
-181.93
-180.84
-166.72
-138.65
-98.71
-51.54
-3.12
40.84
76.13
100.91
115.64
122.74
125.61
127.74
131.82
139.19
149.77
162.34
175.22
186.83
196.09
202.54
206.28
207.85
208.14
208.28
209.43
212.47
217.58
224.13
230.85
236.43
240.17
242.35
244.07
246.64
250.99
257.11
264.04
270.02
272.90
270.56
261.27
244.12
219.24
187.76
151.47
112.17
70.93
27.80
-17.84
-66.21
-116.00
-163.86
-205.10
-235.16
-251.46
-254.38
-247.01
-233.76
-218.68
-204.18
-190.87
-178.28
-165.93
-153.89
-142.75
-133.08
-124.90
-117.55
-110.04
-101.62
-92.19
-82.35
-73.06
-65.19
-59.05
-54.33
-50.27
-46.02
-41.08
-35.49
-29.73
-24.48
-20.24
-17.12
-14.84
-12.90
-10.90
-8.70
-6.54
-4.86
-4.09
-4.46
-5.86
-7.91
-10.11
-12.03
-13.42
-14.27
-14.71
-14.90
-14.94
-14.81
-14.39
-13.57
-12.34
-10.86
-9.42
-8.33
-7.80
-7.85
-8.29
-8.72
-8.54
-7.06
-3.64
2.03
9.64
18.11
25.81
31.02
32.59
30.33
25.08
18.34
11.65
6.10
2.15
-0.25
-1.40
-1.58
-1.02
0.03
1.19
2.01
2.09
1.25
-0.37
-2.34
-4.12
-5.31
-5.74
-5.55
-5.11
-4.82
-4.98
-5.67
-6.71
-7.78
-8.51
-8.62
-8.06
-7.01
-5.80
-4.74
-4.03
-3.67
-3.49
-3.27
-2.85
-2.25
-1.57
-0.98
-0.57
-0.37
-0.34
-0.40
-0.48
-0.59
-0.70
-0.79
-0.78
-0.59
-0.16
0.45
1.11
1.67
2.04
2.24
2.38
2.61
2.96
3.34
3.54
3.38
2.82
2.01
1.19
0.63
0.40
0.42
0.50
0.48
0.32
0.09
-0.10
-0.22
-0.31
-0.50
-0.85
-1.28
-1.58
-1.54
-1.06
-0.25
0.66
1.42
1.86
1.99
1.88
1.63
1.28
0.81
0.23
-0.38
-0.88
-1.14
-1.14
-0.98
-0.87
-0.98
-1.35
-1.94
-2.58
-3.16
-3.61
-3.96
-4.26
-4.50
-4.65
-4.58
-4.23
-3.58
-2.71
-1.76
-0.89
-0.15
0.51
1.29
2.44
4.12
6.29
8.67
10.80
12.25
12.71
12.15
10.74
8.75
6.50
4.24
2.20
0.48
-0.86
-1.88
-2.67
-3.34
-3.95
-4.46
-4.78
-4.86
-4.75
-4.58
-4.48
-4.51
-4.63
-4.72
-4.69
-4.50
-4.24
-4.01
-3.89
-3.91
-4.00
-4.08
-4.06
-3.89
-3.58
-3.19
-2.79
-2.46
-2.24
-2.15
-2.17
-2.26
-2.38
-2.49
-2.50
-2.35
-1.96
-1.33
-0.49
0.43
1.26
1.82
2.03
1.85
1.38
0.79
0.21
-0.23
-0.51
-0.63
-0.63
-0.56
-0.43
-0.22
0.10
0.59
1.26
2.14
3.19
4.36
5.56
6.69
7.64
8.27
8.50
8.28
7.68
6.85
6.02
5.37
4.97
4.74
4.47
3.94
3.04
1.84
0.52
-0.71
-1.75
-2.60
-3.35
-4.08
-4.75
-5.24
-5.43
-5.22
-4.72
-4.10
-3.59
-3.33
-3.30
-3.35
-3.30
-3.04
-2.57
-2.02
-1.51
-1.13
-0.87
-0.66
-0.44
-0.22
-0.05
-0.03
-0.16
-0.36
-0.52
-0.55
-0.46
-0.34
-0.27
-0.25
-0.18
0.04
0.47
1.02
1.48
1.65
1.44
0.92
0.32
-0.13
-0.29
-0.20
0.01
0.20
0.29
0.34
0.41
0.58
0.85
1.12
1.27
1.23
0.99
0.61
0.15
-0.28
-0.60
-0.75
-0.65
-0.29
0.31
1.02
1.72
2.25
2.52
2.53
2.33
2.04
1.81
1.78
2.03
2.58
3.34
4.10
4.60
4.62
4.05
2.94
1.53
0.15
-0.90
-1.47
-1.63
-1.58
-1.56
-1.71
-1.98
-2.24
-2.34
-2.25
-2.06
-1.91
-1.92
-2.08
-2.29
-2.40
-2.31
-2.03
-1.67
-1.43
-1.47
-1.87
-2.58
-3.39
-4.06
-4.33
-4.13
-3.60
-3.02
-2.70
-2.80
-3.22
-3.64
-3.73
-3.29
-2.38
-1.34
-0.61
-0.48
-0.95
-1.63
-1.94
-1.33
0.41
3.03
5.81
7.81
8.26
6.82
3.84
0.20
-3.00
-4.92
-5.37
-4.95
-4.73
-5.78
-8.55
-12.60
-16.72
-19.60
-20.42
-19.30
-17.22
-15.48
-15.02
-16.17
-18.65
-21.81
-24.63
-25.51
-22.16
-12.19
5.54
29.56
55.28
76.28
86.81
84.39
71.01
52.05
33.60
19.75
11.35
6.66
3.32
0.12
-2.56
-3.54
-2.19
0.82
3.76
4.85
3.21
-0.59
-4.99
-8.25
-9.28
-8.13
-5.81
-3.75
-3.03
-4.02
-6.20
-8.56
-10.05
-10.09
-8.82
-6.93
-5.35
-4.79
-5.44
-6.89
-8.35
-8.97
-8.26
-6.22
-3.38
-0.52
1.53
2.29
1.70
0.12
-1.83
-3.54
-4.61
-5.00
-4.91
-4.69
-4.64
-4.88
-5.38
-6.06
-6.88
-7.82
-8.90
-10.07
-11.23
-12.23
-12.91
-13.21
-13.15
-12.83
-12.33
-11.72
-11.03
-10.24
-9.27
-7.99
-6.33
-4.27
-1.93
0.50
2.87
5.16
7.53
10.14
13.06
16.07
18.71
20.45
20.91
20.02
18.01
15.25
12.10
8.87
5.79
3.12
1.13
-0.01
-0.28
0.12
0.81
1.43
1.70
1.53
0.96
0.16
-0.73
-1.57
-2.29
-2.86
-3.25
-3.44
-3.44
-3.29
-3.07
-2.87
-2.81
-2.92
-3.11
-3.15
-2.81
-1.89
-0.40
1.46
3.35
4.94
6.04
6.58
6.62
6.21
5.42
4.32
3.04
1.74
0.62
-0.20
-0.71
-1.04
-1.37
-1.84
-2.48
-3.24
-3.99
-4.65
-5.19
-5.64
-6.06
-6.44
-6.67
-6.63
-6.18
-5.34
-4.21
-2.98
-1.84
-0.85
0.11
1.21
2.61
4.38
6.49
8.80
11.11
13.15
14.58
15.06
14.33
12.38
9.51
6.24
3.15
0.72
-0.86
-1.68
-2.03
-2.24
-2.54
-3.00
-3.54
-4.03
-4.37
-4.55
-4.66
-4.77
-4.94
-5.09
-5.10
-4.88
-4.45
-3.98
-3.69
-3.74
-4.13
-4.69
-5.18
-5.38
-5.22
-4.78
-4.21
-3.69
-3.29
-3.07
-3.04
-3.21
-3.63
-4.29
-5.09
-5.82
-6.18
-5.95
-5.04
-3.57
-1.80
-0.05
1.48
2.73
3.78
4.78
5.83
6.92
7.93
8.68
9.03
8.92
8.40
7.58
6.65
5.75
5.05
4.66
4.66
5.01
5.60
6.23
6.73
6.98
6.99
6.87
6.77
6.85
7.17
7.73
8.42
9.05
9.35
9.06
8.04
6.33
4.17
1.93
-0.11
-1.88
-3.51
-5.24
-7.19
-9.27
-11.17
-12.57
-13.32
-13.51
-13.41
-13.32
-13.36
-13.47
-13.49
-13.21
-12.57
-11.57
-10.29
-8.85
-7.33
-5.82
-4.40
-3.15
-2.13
-1.34
-0.74
-0.22
0.29
0.83
1.36
1.80
2.02
1.92
1.46
0.65
-0.45
-1.72
-2.99
-4.08
-4.76
-4.85
-4.23
-2.96
-1.25
0.62
2.32
3.65
4.57
5.18
5.66
6.17
6.77
7.43
8.02
8.41
8.47
8.18
7.59
6.83
6.06
5.41
4.92
4.52
4.09
3.51
2.75
1.90
1.13
0.57
0.29
0.25
0.38
0.60
0.91
1.32
1.79
2.19
2.34
2.12
1.56
0.85
0.26
0.00
0.08
0.35
0.53
0.43
0.02
-0.54
-0.98
-1.10
-0.86
-0.45
-0.17
-0.26
-0.78
-1.60
-2.45
-3.10
-3.45
-3.56
-3.61
-3.74
-3.97
-4.20
-4.28
-4.11
-3.72
-3.26
-2.96
-2.98
-3.36
-4.00
-4.72
-5.28
-5.53
-5.44
-5.08
-4.65
-4.36
-4.34
-4.60
-4.95
-5.14
-4.88
-3.93
-2.13
0.60
4.17
8.35
12.63
16.31
18.68
19.21
17.81
14.88
11.15
7.38
4.05
1.24
-1.26
-3.69
-6.06
-8.11
-9.46
-9.90
-9.50
-8.65
-7.90
-7.61
-7.83
-8.28
-8.46
-7.88
-6.25
-3.53
0.03
3.98
7.71
10.66
12.46
13.01
12.57
11.61
10.58
9.74
9.04
8.24
7.10
5.59
3.93
2.47
1.55
1.26
1.43
1.71
1.78
1.43
0.68
-0.28
-1.20
-1.91
-2.37
-2.68
-2.96
-3.29
-3.63
-3.85
-3.79
-3.36
-2.62
-1.78
-1.08
-0.70
-0.65
-0.79
-0.87
-0.69
-0.16
0.62
1.46
2.11
2.36
2.09
1.36
0.31
-0.79
-1.65
-2.06
-1.96
-1.45
-0.80
-0.26
-0.03
-0.19
-0.67
-1.36
-2.15
-2.99
-3.83
-4.65
-5.42
-6.09
-6.60
-6.93
-7.08
-7.09
-7.07
-7.11
-7.27
-7.52
-7.80
-7.98
-7.96
-7.62
-6.89
-5.69
-4.01
-1.92
0.43
2.83
5.06
6.94
8.34
9.14
9.28
8.72
7.54
5.95
4.30
3.01
2.34
2.37
2.93
3.68
4.30
4.58
4.48
4.11
3.59
3.01
2.33
1.44
0.26
-1.20
-2.73
-4.04
-4.84
-4.98
-4.57
-3.91
-3.37
-3.21
-3.49
-4.05
-4.57
-4.69
-4.16
-2.83
-0.71
2.10
5.29
8.43
11.00
12.55
12.86
12.06
10.55
8.85
7.36
6.22
5.31
4.41
3.34
2.09
0.76
-0.53
-1.73
-2.91
-4.15
-5.50
-6.91
-8.25
-9.36
-10.11
-10.43
-10.31
-9.83
-9.10
-8.25
-7.43
-6.77
-6.29
-5.85
-5.24
-4.12
-2.22
0.57
4.11
7.99
11.66
14.55
16.20
16.37
15.08
12.58
9.30
5.83
2.77
0.60
-0.40
-0.31
0.51
1.53
2.23
2.29
1.64
0.48
-0.94
-2.36
-3.61
-4.59
-5.25
-5.51
-5.32
-4.74
-3.92
-3.12
-2.55
-2.36
-2.48
-2.73
-2.91
-2.88
-2.65
-2.33
-2.03
-1.82
-1.70
-1.65
-1.67
-1.82
-2.11
-2.51
-2.93
-3.21
-3.27
-3.09
-2.74
-2.31
-1.83
-1.29
-0.68
-0.01
0.62
1.04
1.18
1.04
0.79
0.63
0.77
1.30
2.15
3.19
4.25
5.15
5.78
6.08
6.09
5.92
5.71
5.59
5.58
5.61
5.54
5.23
4.65
3.87
3.06
2.41
2.05
2.02
2.22
2.47
2.54
2.22
1.42
0.18
-1.32
-2.81
-4.04
-4.86
-5.22
-5.16
-4.79
-4.24
-3.65
-3.14
-2.82
-2.75
-2.89
-3.18
-3.51
-3.80
-3.99
-4.08
-4.05
-3.87
-3.54
-3.09
-2.61
-2.23
-2.10
-2.26
-2.66
-3.17
-3.55
-3.62
-3.29
-2.65
-1.90
-1.34
-1.16
-1.41
-1.95
-2.54
-2.95
-3.07
-2.96
-2.73
-2.44
-2.04
-1.42
-0.51
0.66
1.93
3.12
4.12
4.94
5.66
6.29
6.72
6.76
6.27
5.28
4.00
2.76
1.84
1.37
1.27
1.35
1.43
1.42
1.39
1.44
1.66
2.04
2.47
2.78
2.85
2.64
2.22
1.75
1.38
1.27
1.47
1.95
2.58
3.17
3.47
3.36
2.81
1.92
0.87
-0.20
-1.17
-2.04
-2.78
-3.36
-3.70
-3.72
-3.41
-2.82
-2.13
-1.53
-1.21
-1.25
-1.67
-2.35
-3.08
-3.63
-3.82
-3.61
-3.10
-2.49
-2.00
-1.77
-1.81
-2.04
-2.30
-2.46
-2.44
-2.28
-2.09
-2.05
-2.24
-2.66
-3.17
-3.58
-3.73
-3.55
-3.11
-2.53
-1.91
-1.26
-0.56
0.23
1.05
1.78
2.29
2.49
2.42
2.17
1.84
1.45
0.96
0.25
-0.78
-2.22
-4.12
-6.49
-9.29
-12.40
-15.56
-18.39
-20.56
-21.81
-22.15
-21.84
-21.28
-20.86
-20.92
-21.57
-22.59
-23.18
-21.93
-17.16
-7.59
6.95
25.05
43.92
60.21
71.15
75.44
73.50
67.07
58.37
49.35
41.15
34.15
28.14
22.68
17.36
11.98
6.57
1.39
-3.19
-6.94
-9.75
-11.65
-12.76
-13.21
-13.16
-12.80
-12.37
-12.12
-12.25
-12.82
-13.68
-14.56
-15.13
-15.13
-14.41
-13.07
-11.39
-9.77
-8.56
-7.93
-7.78
-7.79
-7.53
-6.68
-5.16
-3.18
-1.16
0.44
1.33
1.47
1.06
0.50
0.14
0.20
0.63
1.16
1.46
1.24
0.43
-0.81
-2.21
-3.45
-4.36
-4.97
-5.44
-6.00
-6.83
-7.95
-9.19
-10.27
-10.89
-10.93
-10.45
-9.72
-9.07
-8.77
-8.94
-9.54
-10.40
-11.21
-11.53
-10.74
-8.20
-3.58
2.90
10.26
17.01
21.72
23.51
22.45
19.44
15.69
12.22
9.48
7.42
5.76
4.40
3.46
3.21
3.75
4.89
6.17
7.07
7.32
6.91
6.11
5.23
4.42
3.60
2.54
1.01
-1.06
-3.48
-5.87
-7.77
-8.87
-9.11
-8.65
-7.80
-6.91
-6.17
-5.65
-5.26
-4.84
-4.19
-3.02
-1.04
1.95
5.89
10.29
14.25
16.82
17.28
15.56
12.18
8.08
4.23
1.24
-0.70
-1.81
-2.49
-3.09
-3.85
-4.82
-5.92
-7.04
-8.06
-8.97
-9.80
-10.64
-11.51
-12.33
-12.91
-13.05
-12.62
-11.70
-10.53
-9.44
-8.67
-8.29
-8.15
-7.96
-7.33
-5.92
-3.47
0.12
4.78
10.17
15.66
20.36
23.36
23.99
22.14
18.35
13.62
9.06
5.49
3.26
2.24
2.01
2.15
2.31
2.35
2.19
1.77
1.07
0.08
-1.15
-2.50
-3.79
-4.86
-5.56
-5.83
-5.69
-5.28
-4.81
-4.50
-4.46
-4.67
-4.99
-5.21
-5.16
-4.75
-4.02
-3.13
-2.27
-1.63
-1.32
-1.37
-1.73
-2.26
-2.84
-3.32
-3.54
-3.43
-2.95
-2.19
-1.31
-0.47
0.18
0.57
0.75
0.78
0.76
0.73
0.75
0.84
1.06
1.44
1.96
2.52
3.00
3.29
3.37
3.31
3.24
3.30
3.54
3.95
4.41
4.78
4.96
4.89
4.61
4.26
4.08
4.32
5.13
6.43
7.92
9.07
9.35
8.47
6.48
3.80
1.04
-1.30
-2.95
-3.95
-4.54
-4.97
-5.33
-5.59
-5.62
-5.36
-4.86
-4.32
-3.90
-3.73
-3.83
-4.10
-4.50
-4.95
-5.46
-6.01
-6.59
-7.14
-7.56
-7.75
-7.68
-7.31
-6.69
-5.88
-4.98
-4.01
-3.00
-1.93
-0.85
0.17
0.97
1.41
1.40
0.99
0.34
-0.30
-0.71
-0.79
-0.50
0.12
1.00
2.09
3.30
4.55
5.68
6.54
6.98
6.95
6.51
5.85
5.20
4.77
4.60
4.58
4.46
4.03
3.20
2.10
1.04
0.35
0.25
0.74
1.57
2.40
2.91
2.94
2.55
1.94
1.36
0.97
0.84
0.92
1.13
1.35
1.48
1.42
1.08
0.45
-0.42
-1.37
-2.21
-2.81
-3.14
-3.29
-3.36
-3.40
-3.37
-3.15
-2.70
-2.09
-1.51
-1.19
-1.22
-1.51
-1.83
-1.94
-1.71
-1.23
-0.71
-0.41
-0.47
-0.90
-1.55
-2.25
-2.88
-3.37
-3.76
-4.04
-4.22
-4.26
-4.17
-3.98
-3.78
-3.68
-3.72
-3.89
-4.11
-4.27
-4.25
-4.00
-3.53
-2.92
-2.25
-1.63
-1.09
-0.62
-0.14
0.41
1.09
1.91
2.80
3.64
4.27
4.57
4.51
4.13
3.50
2.65
1.54
0.14
-1.54
-3.38
-5.15
-6.66
-7.78
-8.55
-9.09
-9.38
-9.24
-8.30
-6.22
-2.90
1.36
6.00
10.39
14.05
16.75
18.48
19.33
19.43
18.91
17.92
16.63
15.19
13.66
12.02
10.23
8.33
6.51
5.03
4.06
3.60
3.40
3.16
2.59
1.59
0.23
-1.27
-2.73
-3.99
-4.98
-5.71
-6.16
-6.31
-6.12
-5.62
-4.90
-4.12
-3.43
-2.92
-2.52
-2.07
-1.35
-0.30
0.98
2.21
3.11
3.49
3.37
2.93
2.36
1.74
1.03
0.15
-0.92
-2.05
-3.00
-3.57
-3.73
-3.63
-3.52
-3.63
-4.03
-4.64
-5.29
-5.86
-6.34
-6.78
-7.27
-7.79
-8.24
-8.49
-8.48
-8.26
-7.99
-7.83
-7.85
-8.01
-8.15
-8.13
-7.90
-7.60
-7.41
-7.43
-7.59
-7.57
-6.94
-5.37
-2.76
0.72
4.70
8.68
12.19
14.79
16.16
16.11
14.65
12.11
9.08
6.27
4.29
3.43
3.59
4.36
5.25
5.85
5.97
5.62
4.94
4.08
3.18
2.28
1.41
0.56
-0.25
-0.98
-1.59
-2.03
-2.29
-2.41
-2.42
-2.37
-2.23
-2.00
-1.62
-1.10
-0.47
0.20
0.87
1.51
2.07
2.46
2.59
2.37
1.81
1.03
0.24
-0.39
-0.75
-0.86
-0.81
-0.75
-0.80
-1.08
-1.67
-2.55
-3.66
-4.82
-5.83
-6.52
-6.84
-6.91
-6.92
-7.07
-7.42
-7.93
-8.42
-8.72
-8.69
-8.30
-7.59
-6.64
-5.51
-4.26
-2.93
-1.54
-0.05
1.64
3.76
6.49
9.83
13.46
16.77
19.01
19.64
18.53
16.09
12.99
9.92
7.28
5.13
3.29
1.63
0.14
-1.04
-1.78
-2.04
-1.95
-1.73
-1.55
-1.51
-1.61
-1.84
-2.18
-2.65
-3.28
-4.03
-4.82
-5.57
-6.18
-6.55
-6.59
-6.24
-5.52
-4.55
-3.55
-2.79
-2.44
-2.58
-3.05
-3.56
-3.75
-3.33
-2.14
-0.27
2.01
4.35
6.36
7.81
8.56
8.67
8.26
7.54
6.71
5.92
5.26
4.70
4.13
3.39
2.36
1.02
-0.51
-2.00
-3.28
-4.16
-4.59
-4.60
-4.27
-3.69
-2.93
-2.03
-0.99
0.17
1.38
2.48
3.28
3.61
3.46
3.01
2.53
2.27
2.34
2.66
2.99
3.11
2.88
2.29
1.42
0.37
-0.74
-1.83
-2.83
-3.63
-4.14
-4.36
-4.32
-4.10
-3.78
-3.39
-2.95
-2.52
-2.15
-1.98
-2.08
-2.43
-2.93
-3.38
-3.62
-3.60
-3.42
-3.20
-3.10
-3.13
-3.25
-3.31
-3.23
-2.97
-2.60
-2.19
-1.83
-1.55
-1.38
-1.31
-1.32
-1.39
-1.46
-1.49
-1.44
-1.29
-1.02
-0.62
-0.03
0.79
1.80
2.86
3.72
4.14
4.03
3.52
2.93
2.61
2.71
3.15
3.61
3.77
3.39
2.50
1.34
0.15
-0.88
-1.72
-2.45
-3.24
-4.21
-5.44
-6.95
-8.63
-10.27
-11.62
-12.45
-12.76
-12.82
-13.14
-14.30
-16.62
-19.99
-23.87
-27.54
-30.42
-32.45
-34.07
-36.09
-39.24
-43.81
-49.53
-55.74
-61.66
-66.83
-71.27
-75.40
-79.90
-85.36
-92.09
-99.94
-108.41
-116.77
-124.41
-131.03
-136.96
-143.00
-150.11
-159.02
-169.80
-181.79
-193.60
-203.36
-208.93
-208.21
-199.62
-182.51
-157.57
-126.62
-92.02
-55.61
-17.96
21.61
63.98
108.84
153.68
194.02
224.98
243.27
248.58
243.56
232.40
219.03
205.79
193.13
180.54
167.65
154.90
143.36
134.09
127.33
122.28
117.57
111.94
104.88
96.83
88.95
82.45
78.06
75.65
74.39
73.12
70.94
67.61
63.70
60.30
58.48
58.75
60.80
63.54
65.64
66.07
64.58
61.86
59.28
58.35
60.10
64.60
71.02
77.89
83.76
87.88
90.50
92.71
96.00
101.58
109.99
121.10
134.22
148.05
160.56
169.19
171.77
167.55
157.92
145.98
134.86
125.77
116.95
104.18
82.78
50.03
6.71
-42.98
-92.92
-137.17
-171.51
-194.13
-205.33
-206.89
-201.32
-191.32
-179.26
-166.97
-155.63
-145.99
-138.33
-132.50
-127.83
-123.30
-117.76
-110.48
-101.50
-91.64
-82.13
-74.15
-68.20
-64.00
-60.57
-56.75
-51.69
-45.30
-38.27
-31.79
-26.98
-24.43
-24.02
-24.96
-26.13
-26.47
-25.25
-22.35
-18.19
-13.54
-9.25
-5.84
-3.40
-1.60
-0.00
1.65
3.27
4.48
4.94
4.56
3.63
2.63
2.02
1.93
2.22
2.55
2.59
2.17
1.31
0.14
-1.13
-2.36
-3.45
-4.42
-5.35
-6.36
-7.57
-9.05
-10.75
-12.54
-14.29
-15.86
-17.24
-18.50
-19.79
-21.22
-22.86
-24.66
-26.44
-28.00
-29.15
-29.83
-30.13
-30.29
-30.55
-31.11
-31.97
-32.92
-33.50
-33.09
-31.10
-27.12
-21.22
-13.92
-6.22
0.70
5.82
8.54
8.81
7.14
4.51
2.26
1.86
4.50
10.78
20.44
32.50
45.74
59.27
72.92
87.04
102.09
117.96
133.63
147.28
156.70
159.82
154.89
140.79
117.23
85.23
47.50
8.31
-27.34
-55.07
-72.41
-79.43
-78.41
-72.68
-65.32
-58.36
-52.60
-48.02
-44.38
-41.49
-39.31
-37.73
-36.45
-35.01
-33.00
-30.16
-26.49
-22.29
-18.05
-14.27
-11.30
-9.20
-7.65
-6.09
-3.91
-0.78
3.17
7.35
10.95
13.32
14.28
14.28
14.23
15.05
17.17
20.24
23.16
24.51
23.35
19.69
14.53
9.54
6.09
4.59
4.35
4.18
2.96
0.02
-5.17
-13.38
-25.79
-43.17
-64.66
-87.14
-105.81
-116.19
-116.51
-108.88
-98.23
-89.31
-83.69
-78.75
-69.36
-51.44
-24.97
5.39
32.57
50.74
58.06
57.02
52.50
48.82
47.59
47.76
47.17
44.54
40.36
36.64
35.48
37.72
42.54
47.94
51.80
52.85
51.20
47.95
44.43
41.41
38.77
35.70
31.26
25.01
17.30
9.15
1.81
-3.70
-6.88
-7.81
-7.01
-5.31
-3.62
-2.72
-3.06
-4.62
-6.89
-9.01
-10.10
-9.61
-7.68
-5.11
-3.16
-3.04
-5.37
-9.84
-15.26
-19.96
-22.50
-22.23
-19.61
-15.99
-13.09
-12.46
-14.96
-20.45
-27.53
-33.58
-35.34
-29.93
-16.08
4.89
29.05
50.86
64.96
68.06
60.05
43.91
24.41
6.36
-6.92
-14.22
-16.27
-14.86
-11.94
-9.01
-6.91
-5.97
-6.28
-7.98
-11.13
-15.54
-20.62
-25.44
-29.05
-30.94
-31.33
-31.14
-31.65
-33.88
-38.01
-43.32
-48.42
-51.98
-53.44
-53.33
-53.00
-53.92
-56.87
-61.56
-66.85
-71.47
-74.62
-76.23
-76.84
-77.10
-77.49
-78.27
-79.55
-81.54
-84.56
-88.94
-94.96
-102.81
-112.68
-124.53
-137.67
-150.21
-159.01
-160.09
-149.74
-125.74
-88.41
-40.85
11.53
62.18
104.89
135.25
151.48
154.65
147.91
135.31
120.37
105.45
91.89
80.67
73.05
70.42
73.60
81.89
92.94
103.44
110.52
112.99
111.72
108.92
106.93
106.92
108.54
110.34
110.80
109.20
106.03
102.66
100.64
100.91
103.39
107.10
110.64
113.01
114.06
114.49
115.42
117.83
122.20
128.56
136.57
145.54
154.15
160.23
161.28
155.45
142.90
126.27
109.98
98.41
93.88
95.52
99.74
101.79
97.62
84.83
62.75
31.95
-6.01
-48.50
-91.60
-130.53
-160.77
-179.49
-186.44
-183.89
-175.40
-164.46
-153.43
-143.30
-134.20
-125.95
-118.51
-111.94
-106.16
-100.87
-95.63
-90.09
-84.24
-78.29
-72.67
-67.67
-63.31
-59.35
-55.42
-51.19
-46.56
-41.64
-36.74
-32.21
-28.32
-25.12
-22.52
-20.28
-18.19
-16.11
-14.07
-12.22
-10.73
-9.75
-9.28
-9.18
-9.22
-9.19
-8.96
-8.52
-7.99
-7.52
-7.22
-7.10
-7.08
-7.01
-6.82
-6.50
-6.14
-5.84
-5.67
-5.59
-5.48
-5.20
-4.68
-3.97
-3.21
-2.59
