1660938459.00
64.000000
-0.00
-0.00
-0.00
-0.00
-0.00
-0.00
-0.00
-0.00
-0.00
-0.00
0.00
0.01
0.01
-0.00
-0.03
-0.05
-0.05
0.00
0.13
0.36
0.66
1.01
1.37
1.72
2.06
2.40
2.79
3.25
3.81
4.44
5.10
5.73
6.32
6.90
7.52
8.26
9.15
10.27
11.51
12.75
13.86
14.82
15.70
16.71
18.07
19.90
22.41
25.37
28.48
31.46
34.19
36.79
39.62
43.12
47.61
53.38
60.02
66.98
73.70
79.92
85.86
92.12
99.44
108.26
118.97
130.85
143.01
154.61
165.30
175.42
185.88
198.10
210.63
225.36
242.49
261.86
282.31
301.29
315.03
319.39
311.16
289.22
255.34
212.70
165.15
115.95
67.11
19.62
-26.02
-69.32
-109.77
-146.95
-181.49
-214.72
-248.36
-283.62
-320.37
-356.52
-388.23
-411.05
-421.23
-417.39
-401.07
-376.18
-347.44
-318.70
-291.93
-267.27
-243.99
-221.38
-199.60
-179.35
-161.28
-145.43
-131.15
-117.41
-103.45
-89.12
-74.89
-61.65
-50.19
-40.81
-33.24
-26.79
-20.68
-14.41
-7.92
-1.56
4.12
8.66
11.96
14.28
16.13
17.98
20.05
22.22
24.16
25.55
26.25
26.34
26.12
25.86
25.69
25.62
25.52
25.27
24.80
24.12
23.28
22.35
21.38
20.46
19.68
19.12
18.81
18.70
18.63
18.39
17.86
17.04
16.10
15.29
14.80
14.65
14.69
14.67
14.44
13.99
13.48
13.11
12.96
12.96
12.91
12.66
12.13
11.42
10.68
10.09
9.71
9.49
9.35
9.21
9.01
8.76
8.45
8.10
7.74
7.41
7.15
6.99
6.92
6.92
6.92
6.92
6.87
6.76
6.55
6.15
5.54
4.72
3.82
3.01
2.41
2.10
1.99
1.93
1.79
1.50
1.08
0.66
0.29
-0.00
-0.30
-0.71
-1.29
-2.04
-2.86
-3.66
-4.36
-4.97
-5.57
-6.19
-6.86
-7.50
-8.00
-8.30
-8.38
-8.32
-8.25
-8.28
-8.45
-8.70
-8.92
-8.97
-8.77
-8.31
-7.69
-7.00
-6.35
-5.78
-5.32
-4.94
-4.59
-4.24
-3.82
-3.29
-2.63
-1.89
-1.13
-0.46
0.05
0.41
0.70
1.02
1.43
1.93
2.45
2.88
3.20
3.42
3.60
3.80
3.99
4.14
4.18
4.10
3.97
3.87
3.83
3.85
3.87
3.82
3.67
3.47
3.30
3.25
3.34
3.54
3.74
3.85
3.81
3.61
3.34
3.08
2.93
2.94
3.10
3.33
3.56
3.74
3.86
3.91
3.92
3.90
3.86
3.79
3.70
3.59
3.50
3.43
3.40
3.41
3.48
3.58
3.67
3.71
3.63
3.43
3.12
2.79
2.51
2.35
2.32
2.36
2.43
2.48
2.50
2.47
2.40
2.28
2.10
1.88
1.69
1.55
1.48
1.45
1.43
1.41
1.41
1.50
1.70
2.00
2.32
2.55
2.62
2.49
2.22
1.88
1.56
1.29
1.11
1.00
0.94
0.92
0.87
0.76
0.57
0.32
0.09
-0.04
-0.02
0.16
0.42
0.69
0.90
1.03
1.10
1.15
1.21
1.28
1.37
1.45
1.49
1.49
1.46
1.40
1.32
1.22
1.07
0.87
0.65
0.43
0.23
0.09
0.00
-0.03
-0.01
0.11
0.34
0.65
0.97
1.18
1.22
1.10
0.93
0.82
0.82
0.89
0.94
0.86
0.68
0.48
0.38
0.48
0.75
1.12
1.47
1.72
1.83
1.81
1.67
1.44
1.11
0.72
0.31
-0.08
-0.39
-0.58
-0.60
-0.44
-0.15
0.21
0.49
0.62
0.56
0.37
0.18
0.08
0.15
0.36
0.63
0.89
1.07
1.16
1.18
1.11
0.97
0.77
0.53
0.31
0.14
0.06
0.05
0.09
0.13
0.17
0.20
0.23
0.30
0.41
0.56
0.71
0.84
0.92
0.92
0.87
0.78
0.66
0.52
0.35
0.15
-0.07
-0.23
-0.29
-0.25
-0.16
-0.10
-0.14
-0.25
-0.34
-0.27
0.01
0.48
0.95
1.26
1.31
1.14
0.91
0.77
0.81
0.97
1.10
1.06
0.80
0.41
0.05
-0.13
-0.06
0.18
0.44
0.55
0.46
0.21
-0.07
-0.22
-0.19
-0.03
0.14
0.18
0.02
-0.33
-0.77
-1.15
-1.34
-1.31
-1.12
-0.86
-0.65
-0.54
-0.49
-0.41
-0.26
-0.03
0.20
0.32
0.30
0.15
-0.02
-0.12
-0.10
-0.01
0.08
0.11
0.07
-0.02
-0.09
-0.15
-0.18
-0.21
-0.24
-0.25
-0.21
-0.07
0.16
0.44
0.70
0.84
0.81
0.63
0.37
0.13
-0.00
0.03
0.22
0.51
0.80
1.01
1.06
0.91
0.57
0.12
-0.33
-0.68
-0.85
-0.84
-0.71
-0.52
-0.35
-0.24
-0.19
-0.23
-0.35
-0.58
-0.86
-1.15
-1.35
-1.41
-1.33
-1.17
-1.06
-1.05
-1.19
-1.43
-1.73
-2.03
-2.32
-2.61
-2.93
-3.27
-3.64
-4.02
-4.39
-4.76
-5.15
-5.59
-6.13
-6.78
-7.51
-8.28
-9.04
-9.79
-10.55
-11.39
-12.35
-13.43
-14.56
-15.59
-16.38
-16.75
-16.57
-15.75
-14.27
-12.18
-9.61
-6.78
-3.93
-1.28
1.03
3.02
4.82
6.57
8.40
10.27
12.01
13.36
14.11
14.17
13.62
12.64
11.46
10.20
8.85
7.29
5.42
3.19
0.73
-1.72
-3.86
-5.50
-6.61
-7.35
-8.07
-9.24
-11.27
-14.40
-18.58
-23.43
-28.29
-32.51
-35.63
-37.66
-39.11
-40.78
-43.43
-47.40
-52.45
-57.81
-62.66
-66.49
-69.33
-71.76
-74.56
-78.32
-83.31
-89.49
-96.60
-104.16
-111.42
-117.35
-121.02
-122.26
-122.31
-123.51
-128.27
-137.34
-148.65
-157.47
-158.01
-145.70
-118.92
-79.23
-30.52
22.54
75.53
124.63
166.61
198.88
219.97
230.25
232.14
229.53
226.62
226.57
230.74
238.64
248.62
258.65
267.10
273.16
276.93
279.16
280.90
283.02
285.95
289.43
292.43
293.21
289.45
278.79
259.47
231.06
194.88
153.61
110.31
67.08
24.45
-18.30
-61.82
-105.23
-145.64
-178.90
-201.40
-211.78
-211.58
-204.43
-194.33
-184.07
-174.49
-165.04
-154.89
-143.97
-133.05
-123.30
-115.40
-109.16
-103.56
-97.39
-89.86
-80.99
-71.52
-62.49
-54.76
-48.70
-44.16
-40.70
-37.86
-35.34
-33.07
-31.11
-29.53
-28.33
-27.42
-26.63
-25.74
-24.58
-23.04
-21.13
-19.00
-16.87
-15.00
-13.57
-12.58
-11.88
-11.22
-10.38
-9.30
-8.08
-6.96
-6.12
-5.66
-5.48
-5.34
-4.98
-4.22
-3.03
-1.54
0.06
1.55
2.79
3.74
4.43
4.93
5.30
5.52
5.50
5.17
4.53
3.64
2.67
1.78
1.07
0.56
0.22
-0.05
-0.32
-0.63
-1.02
-1.51
-2.07
-2.64
-3.12
-3.43
-3.51
-3.39
-3.15
-2.89
-2.68
-2.51
-2.30
-2.01
-1.59
-1.10
-0.60
-0.17
0.15
0.31
0.33
0.17
-0.12
-0.51
-0.89
-1.16
-1.25
-1.16
-0.95
-0.68
-0.36
0.00
0.43
0.89
1.29
1.50
1.42
1.09
0.64
0.26
0.12
0.25
0.56
0.88
1.06
1.00
0.70
0.22
-0.37
-1.00
-1.63
-2.22
-2.76
-3.20
-3.50
-3.58
-3.38
-2.87
-2.06
-1.02
0.16
1.38
2.56
3.63
4.49
5.04
5.16
4.83
4.17
3.37
2.69
2.29
2.19
2.24
2.23
2.02
1.58
1.04
0.57
0.29
0.21
0.24
0.27
0.25
0.19
0.18
0.30
0.53
0.74
0.79
0.54
0.02
-0.63
-1.16
-1.39
-1.24
-0.78
-0.13
0.56
1.22
1.79
2.21
2.39
2.28
1.89
1.35
0.79
0.32
-0.12
-0.64
-1.36
-2.27
-3.16
-3.77
-3.87
-3.50
-2.88
-2.39
-2.29
-2.65
-3.32
-4.03
-4.55
-4.77
-4.72
-4.53
-4.31
-4.08
-3.85
-3.57
-3.20
-2.74
-2.19
-1.55
-0.84
-0.07
0.72
1.45
2.04
2.39
2.46
2.28
1.98
1.69
1.51
1.45
1.45
1.37
1.16
0.80
0.40
0.06
-0.13
-0.19
-0.19
-0.19
-0.26
-0.41
-0.61
-0.82
-1.00
-1.16
-1.31
-1.47
-1.66
-1.87
-2.03
-2.03
-1.75
-1.17
-0.38
0.48
1.19
1.65
1.83
1.81
1.68
1.51
1.37
1.34
1.48
1.83
2.37
2.99
3.55
3.92
4.05
3.97
3.79
3.57
3.32
2.99
2.48
1.77
0.87
-0.12
-1.07
-1.85
-2.38
-2.66
-2.74
-2.70
-2.59
-2.47
-2.35
-2.20
-2.00
-1.71
-1.29
-0.77
-0.22
0.27
0.64
0.86
0.98
1.06
1.16
1.22
1.13
0.75
0.00
-1.06
-2.27
-3.33
-4.01
-4.13
-3.68
-2.83
-1.84
-0.99
-0.48
-0.37
-0.55
-0.88
-1.21
-1.53
-1.88
-2.29
-2.76
-3.18
-3.43
-3.40
-3.06
-2.47
-1.64
-0.63
0.56
1.84
3.05
3.94
4.25
3.86
2.89
1.64
0.49
-0.26
-0.54
-0.48
-0.36
-0.40
-0.66
-1.02
-1.29
-1.30
-1.04
-0.65
-0.38
-0.44
-0.89
-1.63
-2.48
-3.23
-3.74
-3.98
-4.04
-4.05
-4.16
-4.41
-4.81
-5.29
-5.68
-5.78
-5.28
-3.92
-1.54
1.74
5.55
9.34
12.55
14.86
16.23
16.84
16.92
16.62
15.97
14.91
13.48
11.78
10.01
8.34
6.83
5.46
4.16
2.85
1.53
0.22
-1.06
-2.28
-3.40
-4.41
-5.26
-5.94
-6.48
-6.93
-7.32
-7.62
-7.74
-7.57
-7.06
-6.26
-5.29
-4.30
-3.45
-2.84
-2.50
-2.44
-2.57
-2.82
-3.06
-3.20
-3.10
-2.71
-2.00
-1.02
0.10
1.24
2.26
3.09
3.71
4.15
4.45
4.60
4.57
4.32
3.79
3.00
2.00
0.86
-0.36
-1.59
-2.77
-3.82
-4.65
-5.19
-5.39
-5.26
-4.84
-4.24
-3.54
-2.88
-2.34
-1.94
-1.60
-1.18
-0.58
0.19
0.99
1.56
1.69
1.31
0.59
-0.20
-0.81
-1.12
-1.21
-1.27
-1.49
-1.94
-2.60
-3.37
-4.15
-4.91
-5.60
-6.19
-6.64
-6.92
-7.08
-7.20
-7.41
-7.79
-8.37
-9.12
-9.96
-10.84
-11.74
-12.57
-13.18
-13.31
-12.70
-11.22
-9.00
-6.50
-4.32
-3.03
-2.92
-3.87
-5.41
-6.85
-7.57
-7.17
-5.67
-3.49
-1.34
-0.03
-0.09
-1.64
-4.25
-7.18
-9.77
-11.76
-13.54
-15.91
-19.68
-25.15
-31.89
-38.80
-44.65
-48.53
-50.35
-50.93
-51.65
-53.96
-58.82
-66.20
-74.87
-82.48
-86.18
-83.65
-74.14
-59.10
-42.01
-27.28
-18.47
-16.70
-19.81
-22.68
-18.75
-2.18
30.09
77.09
133.64
191.49
241.29
275.08
288.46
281.77
259.78
229.93
199.84
175.14
158.34
149.00
144.69
141.92
136.79
125.44
104.76
73.50
33.35
-10.89
-52.53
-85.15
-105.08
-112.59
-111.17
-105.62
-99.95
-96.02
-93.76
-92.17
-90.38
-88.11
-85.53
-82.77
-79.69
-76.01
-71.56
-66.54
-61.42
-56.87
-53.31
-50.82
-49.10
-47.61
-45.80
-43.20
-39.62
-35.09
-29.84
-24.21
-18.56
-13.21
-8.36
-4.08
-0.40
2.68
5.18
7.12
8.56
9.67
10.66
11.76
13.10
14.70
16.38
17.87
18.88
19.22
18.90
18.13
17.24
16.55
16.28
16.42
16.84
17.35
17.83
18.29
18.81
19.53
20.52
21.75
23.03
24.07
24.55
24.25
23.10
21.23
18.85
16.19
13.35
10.32
7.02
3.38
-0.52
-4.49
-8.22
-11.35
-13.65
-15.00
-15.48
-15.27
-14.64
-13.83
-13.06
-12.43
-12.01
-11.82
-11.85
-12.04
-12.32
-12.56
-12.65
-12.50
-12.10
-11.48
-10.71
-9.89
-9.08
-8.33
-7.65
-7.05
-6.56
-6.16
-5.83
-5.50
-5.11
-4.65
-4.17
-3.74
-3.39
-3.13
-2.89
-2.64
-2.38
-2.17
-2.06
-2.04
-2.01
-1.84
-1.44
-0.87
-0.27
0.17
0.37
0.35
0.22
0.11
0.10
0.17
0.27
0.31
0.27
0.14
-0.03
-0.18
-0.23
-0.16
0.01
0.20
0.33
0.33
0.19
-0.01
-0.20
-0.32
-0.38
-0.43
-0.54
-0.70
-0.89
-1.03
-1.06
-0.97
-0.78
-0.53
-0.27
0.01
0.31
0.62
0.92
1.16
1.29
1.23
1.00
0.62
0.20
-0.14
-0.33
-0.34
-0.19
0.03
0.23
0.33
0.32
0.22
0.10
0.02
-0.03
-0.04
-0.07
-0.12
-0.19
-0.25
-0.28
-0.27
-0.20
-0.08
0.11
0.36
0.65
0.92
1.05
0.96
0.63
0.13
-0.40
-0.79
-0.95
-0.86
-0.58
-0.21
0.12
0.32
0.40
0.35
0.21
-0.01
-0.28
-0.57
-0.79
-0.83
-0.64
-0.25
0.18
0.47
0.47
0.19
-0.24
-0.61
-0.78
-0.73
-0.52
-0.30
-0.13
-0.05
-0.00
0.04
0.11
0.19
0.27
0.33
0.37
0.39
0.41
0.43
0.45
0.46
0.43
0.34
0.18
-0.01
-0.20
-0.33
-0.40
-0.41
-0.34
-0.24
-0.09
0.06
0.21
0.34
0.43
0.49
0.50
0.47
0.39
0.28
0.15
0.05
-0.02
-0.03
-0.01
0.03
0.07
0.08
0.03
-0.12
-0.38
-0.70
-1.02
-1.27
-1.40
-1.40
-1.29
-1.06
-0.73
-0.31
0.12
0.45
0.60
0.54
0.36
0.20
0.17
0.28
0.43
0.50
0.45
0.31
0.21
0.23
0.38
0.60
0.78
0.87
0.84
0.73
0.55
0.33
0.07
-0.18
-0.40
-0.54
-0.59
-0.57
-0.51
-0.45
-0.41
-0.39
-0.37
-0.38
-0.43
-0.55
-0.72
-0.87
-0.89
-0.70
-0.27
0.32
0.90
1.28
1.32
0.99
0.41
-0.18
-0.56
-0.60
-0.35
0.05
0.38
0.50
0.40
0.17
-0.04
-0.12
-0.05
0.14
0.38
0.60
0.79
0.92
0.95
0.81
0.49
0.02
-0.49
-0.86
-0.97
-0.81
-0.43
0.02
0.39
0.60
0.66
0.62
0.57
0.53
0.49
0.42
0.29
0.12
-0.03
-0.13
-0.19
-0.22
-0.31
-0.45
-0.59
-0.66
-0.59
-0.38
-0.14
0.01
-0.02
-0.21
-0.48
-0.70
-0.80
-0.76
-0.66
-0.54
-0.43
-0.28
-0.07
0.22
0.53
0.80
0.95
0.96
0.88
0.73
0.55
0.33
0.08
-0.16
-0.34
-0.36
-0.21
0.06
0.35
0.51
0.48
0.26
-0.03
-0.26
-0.32
-0.22
-0.06
0.05
0.04
-0.06
-0.16
-0.15
-0.02
0.16
0.26
0.21
0.02
-0.23
-0.42
-0.49
-0.45
-0.37
-0.31
-0.26
-0.22
-0.14
-0.00
0.17
0.34
0.47
0.53
0.52
0.42
0.25
0.03
-0.19
-0.37
-0.46
-0.43
-0.29
-0.07
0.21
0.49
0.71
0.84
0.82
0.66
0.37
0.00
-0.37
-0.68
-0.92
-1.07
-1.13
-1.11
-0.98
-0.78
-0.53
-0.27
-0.08
0.01
-0.03
-0.15
-0.31
-0.44
-0.49
-0.42
-0.25
-0.01
0.24
0.44
0.55
0.56
0.48
0.37
0.27
0.20
0.18
0.16
0.15
0.13
0.11
0.12
0.16
0.20
0.23
0.22
0.16
0.08
0.03
0.05
0.19
0.43
0.72
0.99
1.16
1.19
1.06
0.78
0.40
0.00
-0.36
-0.61
-0.72
-0.67
-0.51
-0.28
-0.06
0.08
0.11
0.03
-0.15
-0.40
-0.69
-0.94
-1.09
-1.07
-0.85
-0.44
0.07
0.57
0.93
1.09
1.04
0.83
0.59
0.39
0.31
0.33
0.41
0.48
0.47
0.37
0.18
-0.04
-0.25
-0.38
-0.40
-0.32
-0.17
-0.03
0.05
0.02
-0.10
-0.30
-0.51
-0.69
-0.79
-0.80
-0.71
-0.52
-0.29
-0.07
0.09
0.13
0.07
-0.06
-0.19
-0.27
-0.29
-0.29
-0.28
-0.29
-0.29
-0.26
-0.18
-0.08
0.02
0.11
0.21
0.36
0.57
0.81
0.99
1.02
0.89
0.60
0.24
-0.11
-0.37
-0.49
-0.45
-0.27
0.02
0.36
0.66
0.85
0.92
0.86
0.70
0.47
0.19
-0.12
-0.41
-0.60
-0.64
-0.51
-0.25
0.01
0.18
0.19
0.09
-0.05
-0.12
-0.08
0.05
0.18
0.22
0.14
-0.03
-0.23
-0.39
-0.47
-0.47
-0.41
-0.31
-0.18
-0.03
0.13
0.28
0.39
0.42
0.35
0.20
0.00
-0.20
-0.37
-0.49
-0.55
-0.54
-0.45
-0.26
0.00
0.27
0.41
0.33
0.01
-0.46
-0.91
-1.18
-1.17
-0.91
-0.52
-0.15
0.11
0.24
0.29
0.33
0.40
0.51
0.58
0.57
0.44
0.22
-0.01
-0.18
-0.24
-0.17
-0.01
0.19
0.38
0.51
0.54
0.48
0.34
0.19
0.07
0.03
0.04
0.08
0.08
-0.00
-0.18
-0.41
-0.60
-0.67
-0.56
-0.27
0.11
0.43
0.55
0.43
0.13
-0.18
-0.35
-0.30
-0.07
0.22
0.42
0.48
0.40
0.26
0.13
0.02
-0.10
-0.26
-0.47
-0.65
-0.70
-0.57
-0.28
0.10
0.40
0.53
0.45
0.23
-0.01
-0.17
-0.20
-0.14
-0.06
-0.01
-0.00
-0.00
0.03
0.11
0.22
0.30
0.28
0.16
-0.04
-0.24
-0.37
-0.41
-0.37
-0.32
-0.29
-0.29
-0.28
-0.23
-0.14
-0.07
-0.07
-0.20
-0.42
-0.67
-0.82
-0.80
-0.57
-0.19
0.28
0.76
1.20
1.56
1.82
1.96
1.96
1.82
1.54
1.14
0.67
0.20
-0.16
-0.35
-0.30
-0.08
0.20
0.36
0.27
-0.09
-0.61
-1.08
-1.32
-1.23
-0.87
-0.42
-0.02
0.21
0.26
0.19
0.10
0.04
0.05
0.12
0.20
0.24
0.15
-0.07
-0.40
-0.75
-1.00
-1.09
-1.02
-0.86
-0.71
-0.63
-0.57
-0.47
-0.26
0.06
0.44
0.76
0.93
0.91
0.73
0.47
0.20
-0.01
-0.11
-0.09
0.01
0.16
0.30
0.36
0.32
0.18
-0.01
-0.18
-0.28
-0.27
-0.20
-0.11
-0.06
-0.05
-0.06
-0.03
0.06
0.21
0.33
0.34
0.21
-0.05
-0.37
-0.62
-0.74
-0.66
-0.40
-0.04
0.34
0.60
0.66
0.46
0.07
-0.37
-0.71
-0.82
-0.67
-0.36
-0.03
0.17
0.17
-0.01
-0.21
-0.32
-0.26
-0.08
0.10
0.15
0.02
-0.24
-0.49
-0.58
-0.43
-0.12
0.23
0.49
0.59
0.55
0.42
0.25
0.06
-0.14
-0.29
-0.34
-0.23
0.04
0.38
0.68
0.84
0.80
0.59
0.29
-0.00
-0.20
-0.24
-0.13
0.12
0.43
0.72
0.87
0.84
0.62
0.28
-0.07
-0.33
-0.42
-0.36
-0.21
-0.10
-0.09
-0.21
-0.40
-0.55
-0.57
-0.45
-0.23
0.01
0.17
0.22
0.18
0.08
-0.07
-0.24
-0.40
-0.51
-0.48
-0.26
0.10
0.50
0.77
0.84
0.73
0.56
0.48
0.52
0.61
0.60
0.41
0.08
-0.24
-0.39
-0.30
-0.06
0.19
0.29
0.24
0.09
-0.05
-0.10
-0.04
0.08
0.23
0.36
0.43
0.39
0.24
-0.01
-0.28
-0.49
-0.56
-0.47
-0.30
-0.13
-0.05
-0.08
-0.20
-0.39
-0.60
-0.81
-1.00
-1.13
-1.17
-1.07
-0.83
-0.50
-0.15
0.12
0.27
0.29
0.23
0.15
0.08
0.03
-0.00
-0.04
-0.06
-0.01
0.10
0.26
0.38
0.40
0.30
0.11
-0.06
-0.13
-0.05
0.17
0.48
0.76
0.95
0.99
0.85
0.52
0.08
-0.41
-0.81
-1.02
-0.99
-0.76
-0.41
-0.05
0.25
0.49
0.71
0.93
1.14
1.28
1.27
1.08
0.73
0.31
-0.09
-0.38
-0.53
-0.55
-0.48
-0.36
-0.21
-0.06
0.07
0.15
0.16
0.09
-0.04
-0.19
-0.29
-0.30
-0.23
-0.13
-0.04
-0.02
-0.06
-0.14
-0.19
-0.18
-0.13
-0.07
-0.04
-0.04
-0.04
0.01
0.13
0.29
0.41
0.41
0.25
-0.02
-0.31
-0.49
-0.49
-0.31
-0.05
0.17
0.25
0.19
0.08
0.03
0.08
0.20
0.32
0.33
0.22
0.06
-0.06
-0.05
0.05
0.12
0.04
-0.23
-0.60
-0.89
-0.97
-0.77
-0.38
0.05
0.36
0.49
0.48
0.40
0.31
0.20
0.05
-0.19
-0.47
-0.69
-0.75
-0.58
-0.22
0.22
0.57
0.72
0.67
0.47
0.25
0.13
0.15
0.29
0.47
0.57
0.53
0.38
0.17
0.01
-0.06
-0.03
0.04
0.07
0.02
-0.09
-0.21
-0.27
-0.28
-0.25
-0.27
-0.35
-0.50
-0.62
-0.63
-0.45
-0.10
0.32
0.66
0.82
0.74
0.49
0.17
-0.11
-0.30
-0.38
-0.35
-0.24
-0.07
0.13
0.31
0.38
0.33
0.16
-0.07
-0.27
-0.36
-0.32
-0.16
0.04
0.16
0.15
-0.01
-0.26
-0.49
-0.62
-0.64
-0.57
-0.49
-0.43
-0.40
-0.33
-0.17
0.07
0.34
0.57
0.73
0.79
0.79
0.73
0.62
0.47
0.29
0.11
-0.06
-0.20
-0.33
-0.46
-0.59
-0.68
-0.72
-0.68
-0.57
-0.41
-0.24
-0.12
-0.06
-0.08
-0.14
-0.20
-0.22
-0.20
-0.15
-0.09
-0.02
0.07
0.21
0.38
0.51
0.53
0.39
0.16
-0.06
-0.13
-0.01
0.24
0.49
0.62
0.62
0.52
0.42
0.37
0.33
0.24
0.06
-0.21
-0.50
-0.72
-0.82
-0.82
-0.77
-0.71
-0.64
-0.54
-0.38
-0.19
-0.02
0.09
0.13
0.11
0.10
0.11
0.13
0.10
-0.01
-0.18
-0.31
-0.28
-0.06
0.34
0.80
1.18
1.37
1.34
1.14
0.87
0.60
0.40
0.28
0.22
0.21
0.23
0.26
0.28
0.27
0.20
0.10
-0.04
-0.16
-0.22
-0.22
-0.19
-0.14
-0.10
-0.10
-0.14
-0.22
-0.33
-0.46
-0.56
-0.60
-0.54
-0.38
-0.19
-0.02
0.07
0.08
0.03
0.00
0.05
0.16
0.29
0.38
0.38
0.27
0.07
-0.16
-0.37
-0.54
-0.64
-0.68
-0.64
-0.51
-0.26
0.07
0.42
0.70
0.81
0.69
0.37
-0.05
-0.41
-0.57
-0.47
-0.13
0.33
0.75
0.98
0.96
0.72
0.33
-0.07
-0.42
-0.65
-0.77
-0.77
-0.67
-0.49
-0.26
-0.04
0.13
0.19
0.14
-0.01
-0.18
-0.31
-0.34
-0.29
-0.16
-0.02
0.11
0.20
0.25
0.26
0.25
0.25
0.24
0.20
0.10
-0.07
-0.27
-0.43
-0.48
-0.41
-0.27
-0.16
-0.15
-0.26
-0.41
-0.48
-0.40
-0.20
0.03
0.18
0.26
0.33
0.52
0.89
1.36
1.77
1.93
1.75
1.27
0.65
0.10
-0.23
-0.30
-0.15
0.11
0.33
0.41
0.27
-0.09
-0.59
-1.10
-1.45
-1.55
-1.37
-1.01
-0.64
-0.39
-0.29
-0.30
-0.30
-0.23
-0.08
0.08
0.17
0.17
0.10
0.04
0.03
0.06
0.07
0.01
-0.11
-0.22
-0.22
-0.04
0.28
0.66
0.94
1.04
0.96
0.75
0.52
0.34
0.22
0.13
0.01
-0.14
-0.28
-0.39
-0.45
-0.48
-0.49
-0.50
-0.50
-0.44
-0.28
-0.03
0.26
0.48
0.58
0.53
0.39
0.25
0.24
0.36
0.55
0.70
0.67
0.45
0.08
-0.30
-0.58
-0.66
-0.55
-0.32
-0.03
0.23
0.40
0.43
0.34
0.12
-0.16
-0.43
-0.59
-0.63
-0.54
-0.35
-0.12
0.14
0.41
0.66
0.84
0.89
0.75
0.41
-0.02
-0.40
-0.62
-0.60
-0.41
-0.15
0.09
0.24
0.31
0.35
0.41
0.50
0.58
0.59
0.48
0.25
-0.08
-0.41
-0.66
-0.77
-0.71
-0.53
-0.29
-0.05
0.12
0.21
0.22
0.18
0.10
0.00
-0.12
-0.24
-0.33
-0.35
-0.28
-0.13
0.02
0.13
0.15
0.09
-0.01
-0.06
-0.04
0.05
0.15
0.17
0.05
-0.22
-0.61
-1.02
-1.30
-1.38
-1.20
-0.82
-0.35
0.08
0.37
0.48
0.47
0.41
0.31
0.17
-0.05
-0.37
-0.73
-1.01
-1.09
-0.93
-0.60
-0.20
0.12
0.31
0.37
0.36
0.31
0.22
0.13
0.05
0.06
0.17
0.38
0.58
0.68
0.60
0.41
0.22
0.12
0.18
0.32
0.47
0.53
0.51
0.44
0.42
0.46
0.58
0.70
0.76
0.72
0.58
0.35
0.11
-0.09
-0.22
-0.28
-0.27
-0.22
-0.15
-0.08
-0.04
-0.06
-0.15
-0.28
-0.38
-0.41
-0.35
-0.25
-0.19
-0.21
-0.30
-0.35
-0.27
-0.04
0.26
0.49
0.53
0.39
0.16
-0.01
-0.05
0.04
0.19
0.30
0.31
0.23
0.12
0.04
0.05
0.14
0.26
0.33
0.26
0.04
-0.29
-0.63
-0.85
-0.88
-0.70
-0.38
-0.03
0.28
0.48
0.53
0.45
0.25
-0.04
-0.34
-0.56
-0.61
-0.43
-0.06
0.41
0.81
1.03
1.00
0.75
0.38
0.04
-0.18
-0.22
-0.11
0.07
0.26
0.37
0.38
0.27
0.05
-0.24
-0.57
-0.87
-1.07
-1.15
-1.11
-1.01
-0.89
-0.79
-0.73
-0.68
-0.65
-0.65
-0.72
-0.85
-0.96
-0.95
-0.74
-0.31
0.22
0.70
0.97
1.00
0.86
0.68
0.55
0.51
0.53
0.55
0.55
0.53
0.53
0.55
0.54
0.44
0.25
-0.03
-0.32
-0.55
-0.65
-0.63
-0.51
-0.33
-0.10
0.18
0.49
0.77
0.96
0.99
0.82
0.51
0.15
-0.13
-0.25
-0.22
-0.09
0.03
0.04
-0.09
-0.29
-0.47
-0.51
-0.39
-0.18
0.06
0.24
0.35
0.41
0.44
0.46
0.43
0.34
0.20
0.03
-0.11
-0.19
-0.20
-0.18
-0.14
-0.08
0.03
0.16
0.28
0.31
0.24
0.08
-0.11
-0.24
-0.32
-0.36
-0.40
-0.47
-0.54
-0.54
-0.44
-0.27
-0.07
0.08
0.14
0.11
0.00
-0.14
-0.31
-0.45
-0.53
-0.50
-0.32
-0.02
0.33
0.64
0.85
0.93
0.91
0.79
0.60
0.35
0.07
-0.18
-0.38
-0.47
-0.45
-0.32
-0.09
0.22
0.59
0.95
1.23
1.32
1.19
0.84
0.37
-0.08
-0.40
-0.53
-0.49
-0.34
-0.18
-0.07
-0.05
-0.10
-0.18
-0.25
-0.28
-0.27
-0.27
-0.31
-0.41
-0.54
-0.66
-0.68
-0.59
-0.39
-0.15
0.04
0.13
0.08
-0.06
-0.22
-0.33
-0.36
-0.29
-0.16
-0.01
0.14
0.25
0.31
0.31
0.25
0.18
0.13
0.14
0.20
0.24
0.21
0.11
-0.01
-0.05
0.05
0.27
0.48
0.51
0.30
-0.10
-0.54
-0.83
-0.85
-0.62
-0.23
0.21
0.58
0.85
1.00
1.05
0.99
0.83
0.60
0.35
0.13
-0.03
-0.12
-0.17
-0.18
-0.18
-0.15
-0.11
-0.10
-0.11
-0.12
-0.10
0.00
0.19
0.39
0.51
0.50
0.34
0.14
-0.01
-0.03
0.02
0.07
0.03
-0.14
-0.34
-0.48
-0.48
-0.32
-0.05
0.25
0.48
0.59
0.53
0.28
-0.11
-0.54
-0.88
-1.03
-0.92
-0.62
-0.26
0.02
0.11
0.02
-0.16
-0.36
-0.52
-0.64
-0.77
-0.92
-1.06
-1.14
-1.09
-0.89
-0.60
-0.30
-0.09
-0.01
-0.05
-0.16
-0.27
-0.36
-0.40
-0.39
-0.32
-0.17
0.06
0.34
0.60
0.73
0.69
0.49
0.25
0.11
0.19
0.46
0.83
1.12
1.26
1.25
1.17
1.12
1.15
1.20
1.20
1.06
0.77
0.40
0.03
-0.25
-0.41
-0.46
-0.40
-0.26
-0.05
0.19
0.38
0.44
0.31
0.01
-0.35
-0.63
-0.72
-0.59
-0.31
0.00
0.25
0.37
0.37
0.26
0.10
-0.11
-0.34
-0.57
-0.77
-0.91
-0.97
-0.95
-0.92
-0.94
-1.04
-1.23
-1.45
-1.64
-1.73
-1.79
-1.90
-2.19
-2.70
-3.35
-3.99
-4.47
-4.77
-4.97
-5.24
-5.73
-6.44
-7.26
-8.01
-8.58
-8.98
-9.32
-9.78
-10.47
-11.44
-12.60
-13.86
-15.13
-16.39
-17.73
-19.26
-21.10
-23.30
-25.75
-28.24
-30.56
-32.63
-34.55
-36.64
-39.24
-42.60
-46.66
-51.09
-55.40
-59.20
-62.35
-65.04
-67.69
-70.71
-74.41
-78.75
-83.35
-87.56
-90.69
-92.19
-92.07
-91.05
-90.36
-91.20
-93.75
-96.49
-96.19
-88.71
-70.33
-39.04
4.82
58.56
117.82
177.35
231.87
276.90
309.48
328.85
336.81
337.25
334.94
333.60
334.42
335.53
332.92
322.26
300.66
267.61
224.56
173.99
118.42
60.35
2.61
-51.14
-96.59
-129.96
-149.46
-156.15
-153.67
-146.68
-139.12
-132.94
-128.11
-123.51
-118.11
-111.70
-104.85
-98.45
-93.03
-88.55
-84.53
-80.33
-75.53
-70.11
-64.43
-58.95
-54.03
-49.76
-46.00
-42.50
-39.01
-35.45
-31.87
-28.42
-25.26
-22.49
-20.16
-18.18
-16.43
-14.71
-12.90
-10.99
-9.07
-7.36
-5.99
-5.01
-4.30
-3.67
-2.96
-2.11
-1.20
-0.35
0.30
0.74
1.00
1.13
1.18
1.15
1.05
0.88
0.68
0.48
0.33
0.20
0.09
-0.05
-0.21
-0.36
-0.46
-0.51
-0.55
-0.63
-0.84
-1.19
-1.63
-2.09
-2.52
-2.87
-3.12
-3.24
-3.19
-2.95
-2.52
-1.92
-1.21
-0.42
0.44
1.37
2.32
3.20
3.84
4.13
4.04
3.66
3.16
2.67
2.28
2.02
1.87
1.81
1.82
1.83
1.76
1.47
0.88
0.00
-1.03
-1.98
-2.64
-2.83
-2.54
-1.91
-1.18
-0.60
-0.37
-0.52
-0.99
-1.63
-2.27
-2.80
-3.16
-3.40
-3.55
-3.66
-3.73
-3.76
-3.77
-3.80
-3.90
-4.10
-4.37
-4.66
-4.88
-4.99
-5.01
-5.00
-5.07
-5.26
-5.56
-5.91
-6.24
-6.52
-6.76
-6.92
-6.92
-6.54
-5.53
-3.71
-1.09
2.04
5.14
7.57
8.82
8.73
7.50
5.62
3.64
1.93
0.60
-0.45
-1.40
-2.33
-3.20
-3.92
-4.43
-4.84
-5.35
-6.13
-7.19
-8.31
-9.18
-9.62
-9.71
-9.81
-10.40
-11.74
-13.71
-15.82
-17.47
-18.21
-18.03
-17.36
-16.84
-16.99
-18.02
-19.71
-21.62
-23.31
-24.61
-25.63
-26.79
-28.52
-31.17
-34.82
-39.28
-44.15
-48.99
-53.30
-56.71
-58.90
-59.71
-59.27
-57.98
-56.66
-56.17
-57.17
-59.59
-62.28
-63.20
-59.97
-50.88
-35.64
-15.73
6.08
26.68
43.55
55.43
62.23
64.74
63.98
60.91
56.21
50.31
43.51
36.06
28.17
20.17
12.50
5.68
0.04
-4.45
-8.42
-12.94
-19.10
-27.61
-38.49
-50.93
-63.36
-73.73
-80.01
-80.89
-76.21
-67.46
-57.55
-50.09
-48.08
-52.55
-61.57
-70.28
-72.26
-61.89
-36.67
1.39
46.29
90.07
125.68
149.25
160.84
163.53
161.60
158.60
156.53
155.97
156.78
158.72
161.61
165.13
168.66
171.28
172.17
171.16
169.04
167.26
167.19
168.94
170.47
167.66
155.54
130.51
92.48
45.68
-2.42
-43.81
-73.00
-88.71
-93.69
-92.66
-89.81
-87.23
-84.83
-81.53
-76.66
-70.64
-64.65
-59.79
-56.30
-53.47
-50.15
-45.54
-39.64
-33.14
-27.09
-22.24
-18.71
-16.01
-13.33
-9.97
-5.71
-0.87
3.86
7.80
10.64
12.54
13.99
15.43
16.81
17.50
16.54
13.06
6.86
-1.41
-10.34
-18.29
-23.94
-26.74
-26.97
-25.48
-23.25
-21.01
-18.98
-16.99
-14.67
-11.77
-8.34
-4.74
-1.47
1.07
2.83
4.15
5.63
7.89
11.27
15.65
20.50
25.01
28.50
30.74
32.11
33.49
35.88
39.90
45.44
51.61
57.24
61.31
63.43
63.78
62.85
61.12
59.03
57.20
56.50
57.52
59.58
60.17
55.37
41.53
17.47
-14.24
-47.83
-76.57
-95.67
-103.99
-103.87
-99.24
-93.41
-87.77
-82.09
-75.69
-68.59
-61.79
-56.63
-53.81
-52.94
-52.70
-51.54
-48.51
-43.60
-37.74
-32.26
-28.24
-26.08
-25.38
-25.19
-24.48
-22.58
-19.51
-15.87
-12.53
-10.22
-9.19
-9.16
-9.47
-9.42
-8.62
-7.07
-5.12
-3.27
-1.88
-1.09
-0.76
-0.63
-0.46
-0.11
0.39
0.91
1.27
1.37
1.21
0.86
0.47
0.14
-0.10
-0.28
-0.51
-0.83
-1.26
-1.74
-2.20
-2.53
-2.73
-2.79
-2.78
-2.76
-2.73
-2.69
-2.59
-2.42
-2.19
-1.95
-1.74
-1.59
-1.47
-1.34
-1.15
-0.87
-0.52
-0.18
0.07
0.18
0.16
0.10
0.09
0.19
0.40
0.64
0.78
0.75
0.51
0.11
-0.30
-0.58
-0.64
-0.51
-0.29
-0.14
-0.18
-0.39
-0.68
-0.91
-0.97
-0.85
-0.60
-0.33
-0.12
-0.01
0.01
-0.03
-0.09
-0.15
-0.19
-0.20
-0.20
-0.21
-0.24
-0.29
-0.34
-0.37
-0.38
-0.36
-0.31
-0.23
-0.14
-0.07
-0.06
-0.11
-0.21
-0.29
-0.31
-0.28
-0.24
-0.29
-0.46
-0.75
-1.07
-1.34
-1.47
-1.40
-1.17
-0.82
-0.47
-0.24
-0.21
-0.39
-0.73
-1.10
-1.38
-1.50
-1.51
-1.51
-1.63
-1.93
-2.37
-2.88
-3.36
-3.72
-3.96
-4.11
-4.23
-4.36
-4.54
-4.82
-5.16
-5.54
-5.87
-6.08
-6.11
-5.98
-5.75
-5.52
-5.39
-5.42
-5.61
-5.91
-6.28
-6.67
-7.09
