1660327679.00
64.000000
-0.00
-0.00
-0.00
-0.00
-0.00
-0.00
-0.00
-0.00
-0.00
-0.00
0.00
0.01
0.01
-0.00
-0.03
-0.05
-0.05
0.00
0.13
0.36
0.66
1.01
1.37
1.72
2.06
2.40
2.79
3.24
3.80
4.42
5.06
5.66
6.20
6.68
7.15
7.68
8.31
9.14
10.09
11.04
11.88
12.56
13.14
13.76
14.65
15.96
17.91
20.32
22.90
25.38
27.58
29.57
31.68
34.32
37.81
42.54
48.15
54.10
59.83
64.97
69.58
74.14
79.34
85.71
93.76
103.00
112.62
121.73
129.77
136.75
143.30
150.75
157.77
166.64
177.95
191.79
206.97
220.57
228.25
225.36
208.53
176.87
132.76
80.05
23.07
-34.94
-92.44
-149.16
-205.23
-260.37
-313.74
-363.87
-409.83
-450.91
-486.50
-515.74
-537.23
-549.22
-549.96
-538.37
-514.21
-478.67
-433.88
-382.45
-327.02
-269.84
-212.63
-156.66
-102.95
-52.37
-5.90
35.58
71.43
101.35
125.50
144.38
158.69
169.15
176.37
180.75
182.57
182.07
179.51
175.23
169.65
163.18
156.15
148.81
141.30
133.69
126.02
118.33
110.69
103.16
95.80
88.68
81.83
75.25
68.95
62.95
57.25
51.86
46.78
42.03
37.59
33.45
29.61
26.07
22.81
19.83
17.11
14.67
12.48
10.54
8.83
7.35
6.07
4.97
4.05
3.27
2.62
2.09
1.65
1.30
1.01
0.79
0.61
0.48
0.37
0.30
0.25
0.21
0.19
0.19
0.19
0.21
0.24
0.27
0.30
0.34
0.38
0.43
0.47
0.52
0.57
0.62
0.67
0.73
0.79
0.86
0.93
1.01
1.10
1.20
1.31
1.44
1.58
1.73
1.91
2.11
2.32
2.56
2.83
3.12
3.44
3.79
4.18
4.60
5.05
5.54
6.08
6.65
7.26
7.92
8.62
9.37
10.16
11.00
11.88
12.81
13.79
14.83
15.93
17.10
18.33
19.61
20.91
22.18
23.36
24.35
25.02
25.26
24.94
23.98
22.29
19.87
16.75
13.00
8.78
4.29
-0.26
-4.64
-8.65
-12.13
-14.97
-17.14
-18.63
-19.45
-19.69
-19.41
-18.70
-17.64
-16.35
-14.95
-13.52
-12.13
-10.76
-9.43
-8.09
-6.69
-5.20
-3.63
-2.01
-0.43
1.12
2.68
4.25
5.89
7.72
9.77
11.94
14.09
16.00
17.60
19.00
20.18
21.39
22.87
24.74
26.88
28.94
30.50
31.35
31.64
31.41
31.07
31.15
31.85
32.96
33.88
33.85
32.38
29.56
25.37
20.29
14.93
9.47
3.43
-4.37
-15.85
-33.72
-56.28
-83.50
-114.69
-147.74
-179.04
-204.00
-218.42
-220.00
-209.15
-188.84
-164.02
-139.06
-116.62
-97.43
-80.98
-66.48
-53.56
-42.35
-32.98
-25.78
-20.36
-15.91
-11.53
-6.57
-0.68
6.06
13.34
20.77
27.54
33.07
36.87
38.61
38.05
35.17
30.16
23.61
16.45
9.72
4.49
1.64
1.67
4.60
10.08
17.47
25.94
34.72
42.99
50.22
56.19
60.98
64.89
68.22
71.05
73.25
74.38
73.96
71.60
67.05
60.35
51.65
41.30
29.73
17.63
5.84
-4.67
-13.02
-18.59
-21.16
-20.84
-17.93
-12.78
-5.83
2.32
10.80
18.55
24.51
27.96
28.73
27.26
24.33
20.76
17.10
13.54
9.93
5.95
1.32
-4.06
-9.97
-15.87
-20.96
-24.46
-25.80
-24.90
-22.24
-18.66
-15.08
-12.12
-9.96
-8.25
-6.32
-3.44
0.90
6.76
13.65
20.61
26.43
29.95
30.42
27.67
22.19
14.97
7.24
0.14
-5.42
-8.96
-10.44
-10.17
-8.74
-6.86
-5.12
-3.85
-3.10
-2.69
-2.31
-1.70
-0.68
0.71
2.34
3.97
5.35
6.26
6.52
6.08
5.09
3.95
3.25
3.65
5.60
9.12
13.75
18.67
22.92
25.78
26.81
25.89
23.11
18.58
12.47
5.02
-3.26
-11.64
-19.20
-25.11
-28.87
-30.50
-30.52
-29.78
-29.20
-29.44
-30.81
-33.21
-36.24
-39.33
-41.89
-43.47
-43.93
-43.55
-42.92
-42.68
-43.14
-43.95
-44.05
-42.09
-36.94
-28.31
-16.90
-4.17
8.20
18.87
27.11
32.80
36.15
37.46
36.98
35.00
31.87
28.13
24.36
21.01
18.24
15.85
13.47
10.66
7.27
3.37
-0.74
-4.75
-8.51
-12.13
-15.88
-20.08
-24.90
-30.19
-35.42
-39.68
-41.93
-41.24
-37.19
-30.00
-20.53
-9.97
0.45
9.77
17.40
23.03
26.59
28.21
28.20
27.10
25.51
23.96
22.65
21.40
19.81
17.51
14.43
10.87
7.40
4.51
2.44
1.05
-0.09
-1.50
-3.71
-7.23
-12.49
-19.78
-28.95
-39.17
-48.91
-56.20
-59.32
-57.41
-50.85
-41.17
-30.39
-20.34
-12.13
-6.08
-2.07
0.07
0.34
-1.28
-4.52
-8.59
-12.21
-14.07
-13.32
-9.98
-4.87
0.72
5.66
9.33
11.74
13.23
14.15
14.51
13.98
12.07
8.41
2.92
-4.11
-12.19
-20.63
-28.58
-35.04
-38.84
-38.89
-34.48
-25.60
-13.12
1.45
16.23
29.53
40.09
47.21
50.70
50.74
47.79
42.61
36.20
29.67
24.01
19.81
17.13
15.54
14.33
12.76
10.32
6.86
2.54
-2.26
-7.05
-11.33
-14.72
-16.97
-18.01
-17.98
-17.19
-16.09
-15.18
-14.94
-15.74
-17.76
-20.87
-24.63
-28.24
-30.80
-31.43
-29.61
-25.26
-18.75
-10.75
-2.01
6.84
15.31
23.04
29.80
35.50
40.23
44.32
48.19
52.22
56.51
60.92
65.05
68.41
70.69
71.82
72.04
71.88
71.96
72.82
74.65
77.21
79.82
81.63
82.00
80.83
78.58
76.06
73.95
72.41
70.99
68.84
65.23
59.96
53.60
47.21
42.11
39.51
40.36
45.21
54.01
65.85
78.84
90.35
97.75
99.46
95.83
89.32
83.79
82.94
88.78
100.79
116.28
131.62
143.70
150.73
152.04
147.36
136.17
117.79
92.17
60.91
27.65
-2.59
-25.02
-36.73
-37.83
-31.30
-21.76
-13.82
-10.81
-14.08
-23.15
-36.39
-51.60
-66.60
-79.49
-88.89
-94.14
-95.53
-94.20
-91.80
-89.78
-88.79
-88.33
-87.20
-84.36
-79.81
-74.83
-71.36
-70.81
-73.19
-76.79
-79.10
-78.15
-73.49
-66.28
-58.56
-51.98
-47.15
-43.71
-41.02
-39.10
-38.80
-41.38
-47.47
-56.34
-65.82
-72.94
-75.11
-71.15
-61.76
-49.14
-36.20
-25.43
-18.08
-13.83
-11.14
-8.11
-3.29
3.69
12.12
20.70
28.11
33.63
37.24
39.35
40.32
40.13
38.30
34.29
27.86
19.45
10.18
1.42
-5.77
-11.13
-15.38
-19.90
-26.17
-35.08
-46.54
-59.50
-72.40
-83.89
-93.38
-101.18
-108.24
-115.41
-122.94
-130.25
-136.29
-140.17
-141.62
-140.91
-138.37
-133.99
-127.24
-117.63
-105.24
-90.80
-75.05
-57.77
-37.48
-12.13
19.22
54.96
90.73
120.71
140.00
146.49
141.44
128.50
111.93
95.00
79.53
66.19
55.21
46.79
41.02
37.62
35.81
34.48
32.54
29.32
24.69
19.10
13.33
8.17
4.11
1.13
-1.28
-3.84
-7.11
-11.13
-15.27
-18.45
-19.52
-17.79
-13.27
-6.73
0.57
7.38
12.76
16.37
18.36
19.16
19.22
18.81
18.06
16.93
15.42
13.61
11.67
9.79
8.20
7.06
6.43
6.26
6.42
6.64
6.68
6.34
5.54
4.29
2.62
0.59
-1.77
-4.46
-7.46
-10.73
-14.22
-17.84
-21.42
-24.63
-26.98
-27.91
-26.90
-23.72
-18.54
-11.96
-4.81
1.98
7.73
12.02
14.76
16.07
16.23
15.54
14.38
13.12
12.12
11.66
11.81
12.47
13.35
14.09
14.39
14.07
13.15
11.72
9.94
7.92
5.73
3.40
0.94
-1.59
-4.15
-6.77
-9.57
-12.71
-16.26
-20.01
-23.43
-25.73
-26.20
-24.43
-20.53
-15.08
-8.88
-2.67
2.98
7.73
11.38
13.76
14.75
14.40
12.98
10.94
8.90
7.35
6.59
6.66
7.36
8.35
9.28
9.85
9.83
9.12
7.71
5.72
3.36
0.92
-1.34
-3.30
-5.01
-6.77
-8.95
-11.87
-15.60
-19.79
-23.73
-26.51
-27.34
-25.80
-22.07
-16.83
-11.02
-5.57
-1.06
2.35
4.74
6.30
7.10
7.09
6.24
4.67
2.81
1.23
0.46
0.75
1.92
3.50
4.85
5.52
5.35
4.49
3.26
1.98
0.81
-0.22
-1.22
-2.31
-3.59
-5.14
-7.05
-9.41
-12.25
-15.44
-18.59
-21.08
-22.19
-21.31
-18.23
-13.22
-6.93
-0.20
6.18
11.66
15.93
18.88
20.50
20.84
20.05
18.41
16.34
14.26
12.55
11.40
10.78
10.55
10.50
10.45
10.30
9.99
9.50
8.85
8.04
7.08
6.01
4.82
3.52
2.08
0.45
-1.45
-3.74
-6.51
-9.73
-13.18
-16.37
-18.68
-19.49
-18.42
-15.46
-11.01
-5.74
-0.34
4.60
8.76
12.01
14.33
15.74
16.29
16.07
15.32
14.36
13.56
13.17
13.26
13.71
14.25
14.63
14.61
14.10
13.10
11.63
9.80
7.69
5.44
3.15
0.86
-1.43
-3.75
-6.17
-8.76
-11.62
-14.84
-18.40
-22.09
-25.38
-27.52
-27.76
-25.65
-21.21
-14.98
-7.77
-0.44
6.36
12.21
16.85
20.13
21.95
22.33
21.41
19.52
17.07
14.53
12.26
10.52
9.37
8.66
8.07
7.24
5.90
4.02
1.80
-0.42
-2.35
-3.89
-5.14
-6.31
-7.58
-9.06
-10.74
-12.63
-14.64
-16.68
-18.44
-19.48
-19.29
-17.48
-13.99
-9.10
-3.38
2.50
7.94
12.42
15.57
17.18
17.21
15.89
13.73
11.42
9.61
8.69
8.65
9.11
9.49
9.29
8.37
6.92
5.40
4.22
3.52
3.08
2.44
1.17
-0.86
-3.43
-6.04
-8.09
-9.05
-8.59
-6.74
-3.93
-1.09
0.46
-0.77
-6.04
-15.82
-29.30
-44.19
-57.14
-64.58
-63.90
-54.25
-36.73
-13.81
11.66
37.40
61.92
84.21
103.17
117.39
125.59
127.42
123.74
116.20
106.26
94.31
79.73
62.07
42.18
22.81
7.86
0.71
2.71
12.68
27.60
44.14
59.88
73.81
85.96
96.86
107.28
118.50
132.37
150.80
174.64
202.40
230.02
251.94
263.32
262.08
249.75
230.41
208.52
186.89
165.91
144.38
121.27
96.84
72.57
49.92
28.98
8.19
-14.62
-40.53
-68.31
-94.65
-115.63
-128.61
-133.57
-133.00
-130.62
-129.53
-130.98
-134.32
-137.86
-140.15
-140.80
-140.43
-139.71
-138.36
-134.50
-125.23
-107.90
-81.75
-49.07
-15.03
13.40
29.30
27.43
5.57
-34.61
-87.30
-142.93
-189.62
-215.81
-213.56
-181.67
-126.86
-62.24
-3.19
37.84
54.96
49.84
29.50
2.55
-24.24
-47.40
-66.20
-81.09
-92.30
-99.62
-102.90
-102.88
-101.42
-100.67
-101.96
-105.01
-108.00
-108.48
-104.58
-95.87
-83.70
-70.56
-59.18
-51.48
-47.98
-47.85
-49.29
-50.38
-49.73
-46.94
-42.53
-37.57
-33.13
-29.93
-28.01
-26.94
-26.10
-25.04
-23.68
-22.34
-21.53
-21.59
-22.63
-24.46
-26.76
-29.28
-31.97
-34.91
-38.08
-41.23
-43.77
-44.88
-43.79
-40.00
-33.55
-25.05
-15.43
-5.73
3.19
10.77
16.69
20.69
22.42
21.51
17.75
11.35
3.15
-5.43
-12.70
-17.26
-18.39
-16.28
-11.82
-6.24
-0.73
3.93
7.37
9.55
10.60
10.60
9.54
7.25
3.46
-2.12
-9.61
-18.73
-28.60
-37.80
-44.61
-47.53
-45.82
-39.82
-30.89
-21.05
-12.39
-6.51
-4.25
-5.61
-9.89
-15.91
-22.20
-27.34
-30.22
-30.42
-28.20
-24.43
-20.11
-15.99
-12.23
-8.50
-4.27
0.81
6.70
12.92
18.83
23.82
27.41
29.29
29.23
27.13
23.11
17.69
11.78
6.69
3.82
4.30
8.65
16.52
26.83
38.02
48.62
57.61
64.68
70.15
74.52
77.99
80.17
79.93
75.83
66.78
52.75
35.08
16.34
-0.56
-13.38
-21.39
-25.43
-27.27
-28.50
-29.69
-30.28
-29.11
-25.43
-19.57
-12.96
-7.51
-4.63
-4.59
-6.34
-8.05
-7.79
-4.29
2.86
13.18
25.66
39.09
52.26
64.06
73.41
79.31
80.82
77.21
67.92
52.66
31.50
5.03
-25.42
-57.69
-88.90
-115.78
-135.21
-144.97
-144.25
-133.98
-116.68
-95.91
-75.41
-58.17
-45.65
-37.67
-32.75
-28.95
-24.73
-19.43
-13.13
-6.26
0.89
8.40
16.53
25.35
34.59
43.71
52.27
60.21
67.87
75.55
83.10
89.66
94.04
95.37
93.63
89.83
85.65
82.57
81.20
80.90
80.04
76.68
69.29
57.31
41.26
22.50
2.73
-16.53
-34.32
-50.39
-64.95
-78.21
-89.93
-99.09
-104.08
-103.25
-95.58
-81.25
-61.64
-38.97
-15.52
6.94
27.56
46.14
62.76
77.35
89.48
98.48
103.68
104.74
101.65
94.78
84.74
72.21
57.80
41.92
24.63
5.71
-15.16
-37.85
-61.32
-83.36
-101.02
-111.58
-113.70
-108.16
-97.71
-86.03
-76.27
-69.81
-65.89
-62.26
-56.32
-46.34
-32.02
-14.40
4.72
23.43
40.25
54.27
65.14
72.96
78.12
81.24
83.07
84.47
86.22
88.83
92.35
96.36
100.07
102.61
103.35
102.14
99.39
95.91
92.54
89.71
87.01
83.19
76.44
65.10
48.39
26.91
2.51
-22.34
-45.43
-65.48
-82.23
-95.85
-106.34
-113.08
-115.03
-111.27
-101.67
-87.00
-68.74
-48.46
-27.44
-6.45
14.00
33.50
51.59
67.80
81.82
93.47
102.63
108.92
111.77
110.48
104.60
94.07
79.27
60.73
38.86
13.84
-14.21
-44.79
-76.58
-107.16
-133.24
-151.35
-158.90
-155.16
-141.72
-122.03
-100.21
-79.59
-61.68
-46.10
-31.42
-16.43
-1.08
13.44
25.47
33.96
39.14
42.37
45.43
49.63
55.39
62.31
69.77
77.38
85.26
93.65
102.46
111.03
118.22
122.76
123.84
121.33
115.69
107.62
97.66
85.99
72.49
56.96
39.40
20.11
-0.21
-20.63
-40.04
-57.39
-71.87
-83.04
-90.82
-95.33
-96.68
-94.82
-89.70
-81.47
-70.79
-58.84
-47.01
-36.45
-27.67
-20.34
-13.56
-6.33
1.96
11.18
20.60
29.18
36.03
40.67
43.02
43.20
41.28
37.10
30.31
20.55
7.73
-7.88
-25.57
-44.14
-61.87
-76.56
-85.92
-88.22
-83.09
-71.99
-57.95
-44.47
-34.17
-27.71
-23.65
-19.41
-12.65
-2.55
9.91
22.50
32.92
39.81
43.06
43.43
41.93
39.23
35.73
31.85
28.52
27.19
29.37
35.82
45.99
58.00
69.26
77.58
81.85
82.40
80.47
77.48
74.19
70.43
65.25
57.64
47.15
34.33
20.52
7.32
-4.15
-13.70
-22.03
-30.20
-38.91
-48.00
-56.48
-62.98
-66.47
-66.76
-64.45
-60.52
-55.81
-50.69
-45.09
-38.84
-32.08
-25.40
-19.72
-15.88
-14.22
-14.36
-15.35
-16.05
-15.66
-14.11
-12.07
-10.74
-11.31
-14.33
-19.43
-25.32
-30.28
-32.78
-32.02
-28.19
-22.45
-16.48
-12.02
-10.31
-11.61
-15.05
-18.80
-20.66
-18.92
-13.05
-3.94
6.41
15.79
22.63
26.41
27.61
26.99
25.12
22.14
18.04
13.06
7.88
3.45
0.49
-0.93
-1.45
-2.06
-3.55
-6.03
-8.89
-11.03
-11.39
-9.36
-4.93
1.27
8.26
14.94
20.30
23.70
25.07
25.08
25.08
26.72
31.36
39.43
50.09
61.26
70.17
73.95
70.43
58.67
39.41
15.02
-10.95
-34.73
-53.33
-65.41
-71.39
-72.87
-71.71
-69.09
-65.38
-60.43
-54.30
-47.70
-41.68
-37.04
-33.56
-29.91
-24.17
-14.85
-1.82
13.49
28.55
41.00
49.74
55.59
60.84
68.23
79.52
94.59
111.20
125.58
133.56
131.80
118.73
94.96
63.63
30.21
1.33
-17.16
-22.51
-16.19
-3.19
10.61
21.46
29.53
38.45
52.64
74.19
100.91
126.68
143.60
144.95
127.39
91.80
43.05
-10.76
-59.63
-93.83
-106.68
-96.88
-68.98
-31.59
5.86
36.31
56.61
67.05
69.28
64.25
51.44
29.63
-1.17
-38.20
-75.62
-105.78
-121.57
-118.82
-97.66
-62.56
-20.91
19.18
51.01
70.58
76.70
70.36
54.16
31.70
6.96
-16.46
-36.44
-53.14
-68.96
-87.28
-110.45
-138.18
-167.04
-191.80
-207.33
-210.58
-201.23
-181.15
-153.14
-120.03
-84.51
-49.32
-17.54
7.98
25.35
34.55
37.45
36.97
35.75
35.00
34.24
31.96
26.78
18.30
7.38
-4.39
-15.41
-24.64
-31.73
-36.83
-40.33
-42.63
-44.14
-45.21
-46.11
-46.82
-47.01
-46.08
-43.33
-38.37
-31.23
-22.46
-12.85
-3.14
6.11
14.60
22.21
28.95
34.92
40.28
45.28
50.17
55.10
60.00
64.63
68.66
71.86
74.37
76.68
79.51
83.54
89.01
95.57
102.45
108.74
113.73
117.26
119.77
122.11
125.40
130.82
139.44
151.59
166.26
180.79
191.28
194.00
187.08
171.56
151.14
130.62
113.78
101.94
93.84
86.81
78.36
67.20
53.37
37.53
20.21
1.50
-18.76
-40.71
-64.33
-89.53
-116.08
-143.26
-169.46
-192.00
-207.43
-212.68
-206.10
-188.24
-161.76
-130.51
-98.32
-68.00
-40.89
-17.15
3.57
21.64
37.11
49.97
60.42
69.14
77.13
85.46
94.80
105.15
115.83
125.77
133.88
139.41
142.20
142.59
141.29
139.07
136.56
133.93
130.73
125.73
117.06
102.55
80.39
49.90
12.22
-29.55
-70.72
-106.01
-131.03
-143.63
-144.69
-137.86
-128.47
-121.78
-121.48
-128.71
-142.09
-158.52
-174.42
-186.78
-193.74
-194.68
-189.91
-180.29
-167.05
-151.62
-135.62
-120.60
-107.83
-97.88
-90.59
-85.06
-80.11
-74.75
-68.55
-61.69
-54.74
-48.32
-42.77
-38.07
-33.92
-29.99
-26.06
-22.10
-18.29
-14.89
-12.16
-10.20
-9.00
-8.34
-8.00
-7.79
-7.68
-7.83
-8.42
-9.57
-11.22
-13.07
-14.74
-15.79
-15.87
-14.77
-12.39
-8.77
-4.03
1.71
8.28
15.40
22.59
29.05
33.74
35.61
34.04
29.00
21.21
11.85
2.11
-7.10
-15.42
-22.86
-29.58
-35.65
-41.00
-45.48
-49.00
-51.55
-53.14
-53.81
-53.45
-51.96
-49.33
-45.77
-41.75
-37.94
-35.03
-33.61
-34.04
-36.44
-40.74
-46.71
-53.92
-61.77
-69.56
-76.56
-82.29
-86.61
-89.81
-92.52
-95.43
-99.01
-103.15
-106.97
-108.94
-107.31
-100.83
-89.31
-73.92
-56.83
-40.37
-26.15
-14.56
-4.85
4.18
13.51
23.45
33.76
44.20
54.96
66.68
80.03
95.15
111.12
126.12
137.95
144.72
145.47
140.20
129.68
114.83
96.44
75.04
51.16
25.62
-0.27
-24.90
-46.56
-63.85
-75.84
-82.22
-83.49
-81.18
-77.99
-77.49
-83.39
-98.15
-121.76
-151.02
-180.08
-201.92
-210.41
-202.20
-177.64
-140.67
-97.68
-55.75
-20.87
3.52
17.05
22.12
22.76
23.10
26.09
32.60
41.52
50.35
56.31
57.34
52.89
44.15
33.69
24.68
19.78
20.31
25.94
34.99
45.32
55.17
63.62
70.57
76.22
80.66
83.59
84.28
81.70
74.62
61.72
42.05
15.83
-14.82
-45.65
-71.06
-85.79
-86.78
-74.35
-52.10
-25.41
0.52
22.25
38.63
50.29
58.67
65.05
70.31
74.88
78.91
82.47
85.39
87.33
88.08
87.86
87.65
88.97
93.25
100.81
110.13
117.90
119.81
112.14
93.08
63.51
26.51
-13.78
-53.74
-91.18
-125.48
-156.92
-185.75
-211.55
-233.10
-248.71
-256.79
-256.35
-247.03
-229.07
-203.20
-170.67
-133.41
-94.07
-55.73
-21.45
6.47
26.87
39.87
46.53
48.46
47.39
45.02
42.98
42.77
45.58
52.05
62.20
75.44
90.80
107.09
122.88
136.54
146.37
151.02
149.95
143.76
134.18
123.48
113.82
106.60
102.24
100.28
99.61
98.72
95.88
89.42
78.04
61.30
39.84
15.28
-10.29
-34.98
-57.62
-77.72
-95.15
-109.55
-120.04
-125.41
-124.55
-116.99
-103.03
-83.59
-59.96
-33.47
-5.46
22.78
50.07
75.43
98.16
117.65
133.12
143.31
146.53
141.10
126.09
101.84
70.10
33.42
-5.61
-45.15
-84.33
-122.85
-160.26
-195.19
-225.19
-247.21
-258.60
-258.13
-246.50
-226.11
-200.13
-171.47
-142.12
-113.08
-84.87
-57.99
-33.19
-11.28
7.33
22.86
36.12
48.13
59.60
70.73
81.23
90.64
98.76
105.96
113.10
121.14
130.50
140.64
150.03
156.79
159.46
157.75
152.78
146.56
141.12
137.74
136.51
136.57
136.67
135.74
132.95
127.63
118.92
105.74
87.04
62.30
31.91
-2.71
-39.22
-74.74
-106.18
-130.63
-145.77
-150.16
-143.50
-126.58
-101.13
-69.42
-33.98
2.67
38.17
