1660932163.00
64.000000
-0.00
-0.00
-0.00
-0.00
-0.00
-0.00
-0.00
-0.00
-0.00
-0.00
0.00
0.01
0.01
-0.00
-0.03
-0.05
-0.05
0.00
0.13
0.36
0.66
1.01
1.37
1.72
2.06
2.40
2.79
3.25
3.81
4.44
5.09
5.73
6.32
6.90
7.52
8.26
9.15
10.27
11.50
12.73
13.84
14.80
15.69
16.70
18.06
19.89
22.39
25.34
28.45
31.44
34.16
36.76
39.59
43.10
47.58
53.34
59.97
66.92
73.64
79.87
85.82
92.09
99.41
108.22
118.89
130.75
142.89
154.48
165.17
175.32
185.80
198.02
210.52
225.20
242.26
261.58
282.00
301.00
314.78
319.17
310.96
288.98
255.02
212.29
164.66
115.43
66.62
19.17
-26.42
-69.69
-110.15
-147.37
-181.97
-215.30
-249.06
-284.46
-321.23
-357.21
-388.50
-410.64
-420.07
-415.62
-399.01
-374.15
-345.66
-317.17
-290.49
-265.74
-242.28
-219.54
-197.75
-177.57
-159.58
-143.73
-129.36
-115.54
-101.58
-87.37
-73.35
-60.37
-49.13
-39.94
-32.54
-26.29
-20.47
-14.54
-8.41
-2.34
3.21
7.80
11.26
13.74
15.63
17.34
19.17
21.17
23.18
24.93
26.17
26.79
26.81
26.40
25.78
25.14
24.59
24.17
23.78
23.32
22.70
21.92
21.06
20.22
19.52
19.00
18.63
18.30
17.90
17.35
16.66
15.90
15.18
14.62
14.26
14.05
13.88
13.63
13.23
12.70
12.13
11.63
11.27
11.06
10.97
10.94
10.90
10.82
10.65
10.35
9.93
9.40
8.85
8.38
8.09
8.01
8.11
8.30
8.47
8.50
8.35
8.04
7.66
7.28
6.96
6.71
6.51
6.32
6.12
5.89
5.58
5.14
4.55
3.82
3.08
2.48
2.13
2.04
2.09
2.07
1.83
1.32
0.58
-0.24
-1.01
-1.66
-2.21
-2.71
-3.24
-3.81
-4.40
-4.95
-5.40
-5.71
-5.91
-6.08
-6.31
-6.66
-7.11
-7.56
-7.89
-8.00
-7.91
-7.68
-7.42
-7.18
-6.96
-6.67
-6.26
-5.68
-4.97
-4.22
-3.52
-2.91
-2.41
-2.02
-1.71
-1.45
-1.25
-1.06
-0.86
-0.60
-0.23
0.24
0.77
1.23
1.53
1.61
1.52
1.35
1.22
1.18
1.18
1.12
0.94
0.69
0.47
0.45
0.70
1.20
1.80
2.31
2.58
2.59
2.41
2.20
2.12
2.22
2.44
2.67
2.81
2.80
2.73
2.70
2.77
2.96
3.19
3.35
3.39
3.31
3.17
3.02
2.90
2.82
2.83
2.97
3.27
3.72
4.22
4.64
4.88
4.94
4.90
4.85
4.87
4.93
4.98
4.93
4.80
4.64
4.55
4.63
4.84
5.10
5.25
5.20
4.91
4.47
4.00
3.61
3.35
3.17
2.94
2.59
2.12
1.66
1.37
1.38
1.70
2.21
2.68
2.93
2.86
2.52
2.04
1.55
1.10
0.74
0.48
0.34
0.32
0.43
0.60
0.77
0.86
0.87
0.83
0.81
0.84
0.93
1.07
1.23
1.40
1.55
1.64
1.63
1.48
1.22
0.86
0.46
0.04
-0.41
-0.88
-1.34
-1.73
-2.02
-2.21
-2.34
-2.47
-2.61
-2.70
-2.62
-2.26
-1.57
-0.62
0.42
1.42
2.22
2.81
3.15
3.26
3.15
2.82
2.35
1.86
1.50
1.40
1.56
1.87
2.14
2.23
2.05
1.69
1.29
1.02
0.96
1.09
1.31
1.49
1.49
1.25
0.83
0.33
-0.12
-0.43
-0.59
-0.66
-0.74
-0.87
-1.04
-1.16
-1.18
-1.07
-0.90
-0.74
-0.68
-0.73
-0.85
-0.97
-1.02
-1.02
-0.93
-0.78
-0.55
-0.25
0.07
0.36
0.51
0.48
0.28
-0.02
-0.28
-0.40
-0.34
-0.14
0.10
0.30
0.48
0.74
1.24
2.02
3.06
4.18
5.15
5.79
6.03
5.92
5.63
5.31
5.05
4.87
4.72
4.50
4.14
3.60
2.88
2.04
1.19
0.47
-0.05
-0.33
-0.46
-0.52
-0.62
-0.78
-0.98
-1.15
-1.21
-1.13
-0.88
-0.47
0.05
0.60
1.07
1.40
1.55
1.52
1.38
1.17
0.91
0.59
0.21
-0.17
-0.51
-0.75
-0.91
-1.02
-1.14
-1.28
-1.44
-1.56
-1.62
-1.62
-1.63
-1.67
-1.78
-1.95
-2.14
-2.30
-2.37
-2.35
-2.19
-1.86
-1.33
-0.61
0.28
1.19
1.96
2.42
2.45
2.07
1.45
0.79
0.30
0.10
0.18
0.42
0.71
0.90
0.95
0.85
0.67
0.43
0.17
-0.09
-0.36
-0.62
-0.83
-0.97
-1.03
-1.05
-1.04
-0.99
-0.86
-0.59
-0.11
0.53
1.23
1.80
2.11
2.09
1.78
1.32
0.88
0.56
0.39
0.32
0.25
0.07
-0.24
-0.61
-0.93
-1.07
-0.98
-0.71
-0.37
-0.08
0.09
0.14
0.17
0.24
0.34
0.42
0.36
0.13
-0.24
-0.61
-0.83
-0.80
-0.53
-0.15
0.18
0.34
0.30
0.16
0.02
-0.02
0.02
0.07
0.06
-0.04
-0.15
-0.15
-0.01
0.26
0.53
0.69
0.71
0.62
0.50
0.40
0.28
0.07
-0.29
-0.73
-1.15
-1.41
-1.44
-1.25
-0.97
-0.70
-0.50
-0.37
-0.26
-0.13
0.06
0.29
0.54
0.76
0.90
0.96
0.99
1.04
1.19
1.43
1.71
1.93
1.99
1.85
1.56
1.20
0.89
0.66
0.50
0.37
0.26
0.17
0.15
0.21
0.31
0.38
0.34
0.18
-0.04
-0.21
-0.24
-0.12
0.09
0.31
0.45
0.48
0.42
0.31
0.17
0.02
-0.10
-0.18
-0.16
-0.06
0.09
0.22
0.26
0.16
-0.05
-0.29
-0.49
-0.57
-0.52
-0.38
-0.23
-0.11
-0.08
-0.11
-0.19
-0.27
-0.31
-0.31
-0.29
-0.29
-0.33
-0.38
-0.40
-0.33
-0.15
0.10
0.31
0.34
0.12
-0.36
-0.96
-1.53
-1.90
-1.98
-1.77
-1.37
-0.90
-0.47
-0.12
0.13
0.33
0.55
0.79
1.05
1.26
1.35
1.27
1.06
0.79
0.57
0.46
0.48
0.57
0.66
0.68
0.62
0.50
0.36
0.25
0.18
0.15
0.19
0.30
0.47
0.67
0.84
0.94
0.95
0.90
0.82
0.71
0.58
0.40
0.18
-0.05
-0.25
-0.40
-0.50
-0.56
-0.59
-0.61
-0.63
-0.68
-0.76
-0.87
-0.97
-0.99
-0.86
-0.60
-0.26
0.01
0.12
0.04
-0.17
-0.37
-0.44
-0.37
-0.20
-0.08
-0.11
-0.33
-0.67
-1.01
-1.23
-1.25
-1.08
-0.79
-0.46
-0.16
0.04
0.13
0.12
0.03
-0.11
-0.24
-0.36
-0.44
-0.45
-0.35
-0.10
0.29
0.78
1.27
1.66
1.92
2.04
2.07
2.07
2.05
1.97
1.79
1.45
1.00
0.52
0.14
-0.06
-0.09
-0.01
0.04
-0.01
-0.16
-0.29
-0.31
-0.14
0.19
0.56
0.83
0.90
0.79
0.55
0.32
0.14
0.02
-0.09
-0.26
-0.52
-0.84
-1.19
-1.51
-1.75
-1.91
-2.00
-2.05
-2.11
-2.21
-2.38
-2.62
-2.95
-3.33
-3.70
-3.97
-4.08
-4.02
-3.84
-3.68
-3.69
-4.02
-4.74
-5.77
-6.89
-7.77
-8.10
-7.76
-6.87
-5.85
-5.21
-5.36
-6.42
-8.15
-10.06
-11.62
-12.46
-12.60
-12.42
-12.51
-13.41
-15.33
-18.03
-20.88
-23.15
-24.43
-24.75
-24.71
-25.14
-26.70
-29.68
-34.02
-39.44
-45.47
-51.31
-55.69
-57.09
-54.37
-47.49
-37.84
-27.91
-20.26
-16.48
-16.70
-19.95
-25.02
-31.29
-38.89
-48.28
-59.49
-71.73
-83.59
-93.76
-101.75
-108.28
-115.07
-124.14
-137.00
-153.54
-171.53
-186.87
-194.57
-190.28
-171.68
-139.18
-95.76
-46.07
4.74
51.95
91.99
122.78
143.95
156.73
163.44
166.80
169.06
171.52
174.47
177.60
180.49
182.88
184.55
185.36
185.22
184.37
183.53
183.71
185.79
190.06
195.94
202.28
207.93
212.35
215.85
219.38
224.07
230.72
239.48
249.67
259.80
267.71
270.82
266.67
253.61
231.29
200.85
164.50
124.63
82.85
39.50
-6.06
-54.30
-104.26
-152.87
-195.45
-227.30
-245.52
-250.19
-244.25
-232.06
-217.72
-203.69
-190.60
-178.02
-165.56
-153.43
-142.42
-133.22
-125.82
-119.36
-112.56
-104.40
-94.67
-83.97
-73.52
-64.46
-57.42
-52.29
-48.40
-44.83
-40.90
-36.33
-31.33
-26.39
-21.98
-18.39
-15.59
-13.36
-11.34
-9.20
-6.77
-4.10
-1.45
0.83
2.42
3.16
3.08
2.33
1.13
-0.40
-2.19
-4.21
-6.37
-8.46
-10.23
-11.45
-12.04
-12.09
-11.79
-11.37
-11.01
-10.76
-10.60
-10.47
-10.27
-9.95
-9.45
-8.72
-7.72
-6.48
-5.11
-3.71
-2.28
-0.65
1.53
4.63
8.80
13.73
18.63
22.44
24.18
23.31
19.94
14.77
8.83
3.15
-1.48
-4.57
-6.01
-5.95
-4.75
-2.93
-1.09
0.21
0.59
-0.07
-1.56
-3.44
-5.14
-6.23
-6.48
-5.98
-5.01
-3.95
-3.08
-2.53
-2.29
-2.21
-2.21
-2.20
-2.18
-2.17
-2.17
-2.17
-2.15
-2.10
-2.06
-2.07
-2.16
-2.33
-2.51
-2.56
-2.39
-1.96
-1.35
-0.72
-0.24
-0.03
-0.04
-0.13
-0.14
0.02
0.27
0.48
0.50
0.28
-0.10
-0.50
-0.80
-0.99
-1.12
-1.28
-1.46
-1.60
-1.56
-1.27
-0.78
-0.27
0.06
0.08
-0.19
-0.62
-1.01
-1.22
-1.24
-1.17
-1.16
-1.36
-1.82
-2.49
-3.22
-3.83
-4.15
-4.09
-3.66
-2.94
-2.10
-1.29
-0.60
-0.03
0.52
1.11
1.74
2.31
2.63
2.56
2.05
1.23
0.30
-0.46
-0.88
-0.91
-0.64
-0.17
0.39
1.01
1.67
2.30
2.74
2.81
2.36
1.38
0.08
-1.23
-2.23
-2.74
-2.75
-2.44
-2.04
-1.73
-1.61
-1.66
-1.86
-2.20
-2.67
-3.21
-3.61
-3.55
-2.69
-0.82
1.95
5.22
8.42
11.02
12.66
13.22
12.76
11.41
9.37
6.90
4.37
2.27
0.97
0.64
1.02
1.59
1.70
0.96
-0.65
-2.74
-4.74
-6.11
-6.58
-6.20
-5.22
-3.99
-2.77
-1.66
-0.63
0.48
1.79
3.34
5.06
6.83
8.50
9.99
11.27
12.30
12.97
13.05
12.26
10.44
7.66
4.28
0.87
-2.09
-4.33
-5.93
-7.16
-8.32
-9.53
-10.68
-11.52
-11.84
-11.57
-10.85
-9.92
-9.04
-8.35
-7.91
-7.69
-7.67
-7.78
-7.96
-8.06
-7.94
-7.51
-6.80
-5.90
-4.98
-4.14
-3.43
-2.85
-2.37
-2.01
-1.78
-1.67
-1.62
-1.52
-1.34
-1.14
-1.03
-1.08
-1.24
-1.31
-1.07
-0.38
0.72
2.05
3.38
4.57
5.56
6.39
7.12
7.74
8.19
8.42
8.33
7.93
7.28
6.47
5.68
5.10
4.90
5.12
5.68
6.37
6.92
7.10
6.81
6.11
5.23
4.45
4.02
4.07
4.55
5.26
5.88
6.12
5.76
4.72
3.07
0.99
-1.29
-3.50
-5.43
-7.00
-8.19
-9.04
-9.65
-10.01
-10.11
-9.92
-9.46
-8.84
-8.20
-7.61
-7.05
-6.39
-5.46
-4.21
-2.74
-1.30
-0.15
0.51
0.63
0.33
-0.18
-0.67
-0.97
-1.00
-0.74
-0.26
0.31
0.81
1.09
1.02
0.53
-0.32
-1.39
-2.43
-3.19
-3.49
-3.25
-2.56
-1.57
-0.50
0.51
1.37
2.07
2.60
2.97
3.20
3.34
3.45
3.61
3.84
4.10
4.25
4.21
3.95
3.57
3.22
3.03
3.04
3.16
3.25
3.18
2.88
2.41
1.86
1.38
1.01
0.72
0.41
-0.05
-0.76
-1.70
-2.73
-3.71
-4.46
-4.92
-5.04
-4.82
-4.21
-3.17
-1.69
0.12
2.01
3.65
4.73
5.11
4.81
4.02
2.99
1.97
1.08
0.38
-0.17
-0.60
-0.91
-1.07
-1.02
-0.73
-0.25
0.32
0.87
1.31
1.66
2.03
2.53
3.20
3.97
4.68
5.14
5.29
5.19
5.01
4.86
4.76
4.55
4.02
3.04
1.64
0.03
-1.48
-2.69
-3.55
-4.16
-4.75
-5.48
-6.42
-7.45
-8.38
-8.99
-9.11
-8.73
-7.95
-6.97
-6.01
-5.22
-4.65
-4.21
-3.75
-3.16
-2.39
-1.49
-0.55
0.31
1.02
1.53
1.80
1.82
1.61
1.24
0.90
0.77
1.01
1.65
2.53
3.40
3.98
4.12
3.86
3.36
2.87
2.55
2.48
2.58
2.71
2.72
2.53
2.17
1.77
1.47
1.42
1.63
2.02
2.37
2.44
2.03
1.10
-0.24
-1.67
-2.82
-3.39
-3.22
-2.41
-1.20
0.03
0.95
1.34
1.17
0.56
-0.27
-1.09
-1.71
-2.08
-2.20
-2.15
-1.97
-1.72
-1.42
-1.09
-0.80
-0.62
-0.60
-0.79
-1.18
-1.73
-2.36
-3.00
-3.58
-4.04
-4.31
-4.32
-4.05
-3.53
-2.86
-2.24
-1.82
-1.70
-1.82
-2.03
-2.10
-1.84
-1.15
-0.07
1.22
2.46
3.38
3.78
3.62
3.03
2.27
1.64
1.34
1.45
1.91
2.57
3.25
3.79
4.04
3.91
3.35
2.41
1.26
0.12
-0.82
-1.47
-1.84
-2.05
-2.22
-2.48
-2.86
-3.40
-4.03
-4.66
-5.14
-5.34
-5.21
-4.80
-4.23
-3.67
-3.16
-2.64
-1.90
-0.71
1.10
3.47
6.15
8.65
10.48
11.22
10.72
9.15
6.93
4.60
2.62
1.29
0.68
0.63
0.92
1.28
1.46
1.28
0.67
-0.29
-1.46
-2.61
-3.59
-4.27
-4.62
-4.60
-4.19
-3.36
-2.17
-0.76
0.69
1.98
3.03
3.83
4.44
4.95
5.39
5.82
6.28
6.78
7.28
7.66
7.67
7.12
5.95
4.29
2.46
0.77
-0.57
-1.54
-2.29
-3.02
-3.86
-4.83
-5.86
-6.83
-7.59
-8.04
-8.12
-7.83
-7.22
-6.44
-5.63
-4.90
-4.33
-3.93
-3.67
-3.49
-3.35
-3.21
-3.02
-2.80
-2.58
-2.41
-2.37
-2.50
-2.80
-3.24
-3.76
-4.29
-4.77
-5.12
-5.34
-5.42
-5.40
-5.24
-4.86
-4.06
-2.67
-0.64
1.91
4.63
7.11
9.04
10.31
10.98
11.24
11.26
11.08
10.68
10.03
9.17
8.24
7.43
6.85
6.51
6.29
5.99
5.49
4.78
3.94
3.16
2.59
2.32
2.34
2.61
3.10
3.81
4.66
5.48
5.98
5.82
4.78
2.92
0.56
-1.79
-3.69
-4.92
-5.62
-6.13
-6.80
-7.77
-8.90
-9.87
-10.37
-10.27
-9.71
-8.96
-8.29
-7.82
-7.47
-7.07
-6.46
-5.61
-4.63
-3.70
-2.97
-2.55
-2.43
-2.55
-2.78
-2.99
-3.09
-3.04
-2.84
-2.53
-2.16
-1.80
-1.45
-1.18
-0.96
-0.78
-0.57
-0.24
0.26
0.90
1.56
2.06
2.25
2.14
1.85
1.62
1.66
2.09
2.89
3.94
5.04
6.01
6.68
6.97
6.87
6.47
5.91
5.36
4.91
4.58
4.34
4.13
3.88
3.58
3.26
2.91
2.55
2.17
1.76
1.32
0.91
0.63
0.58
0.83
1.34
1.92
2.31
2.28
1.72
0.71
-0.50
-1.60
-2.37
-2.70
-2.64
-2.33
-1.91
-1.50
-1.16
-0.89
-0.69
-0.58
-0.60
-0.78
-1.14
-1.59
-2.01
-2.23
-2.17
-1.83
-1.35
-0.91
-0.65
-0.61
-0.73
-0.89
-0.96
-0.84
-0.45
0.20
1.09
2.09
3.01
3.60
3.70
3.26
2.36
1.24
0.09
-0.92
-1.79
-2.58
-3.36
-4.11
-4.75
-5.16
-5.28
-5.15
-4.92
-4.76
-4.80
-5.05
-5.44
-5.87
-6.25
-6.58
-6.88
-7.21
-7.54
-7.81
-7.89
-7.67
-7.08
-6.12
-4.86
-3.41
-1.87
-0.28
1.43
3.42
5.79
8.50
11.26
13.64
15.19
15.71
15.28
14.21
12.87
11.44
9.92
8.21
6.25
4.18
2.32
0.99
0.38
0.38
0.72
1.04
1.07
0.75
0.22
-0.30
-0.61
-0.65
-0.52
-0.40
-0.46
-0.77
-1.24
-1.75
-2.15
-2.38
-2.47
-2.47
-2.46
-2.43
-2.37
-2.25
-2.07
-1.85
-1.63
-1.42
-1.25
-1.12
-1.03
-1.00
-1.01
-1.03
-1.01
-0.93
-0.79
-0.68
-0.71
-0.99
-1.53
-2.21
-2.83
-3.18
-3.14
-2.75
-2.17
-1.64
-1.31
-1.22
-1.25
-1.27
-1.17
-0.91
-0.59
-0.34
-0.27
-0.42
-0.74
-1.14
-1.47
-1.58
-1.34
-0.65
0.47
1.88
3.28
4.36
4.83
4.63
3.91
3.01
2.28
1.95
2.02
2.29
2.51
2.48
2.16
1.68
1.19
0.83
0.64
0.55
0.46
0.28
-0.03
-0.45
-0.95
-1.46
-1.95
-2.37
-2.71
-2.95
-3.06
-3.05
-2.90
-2.63
-2.25
-1.83
-1.43
-1.08
-0.76
-0.38
0.14
0.84
1.70
2.56
3.30
3.77
3.93
3.82
3.50
3.05
2.51
1.89
1.21
0.49
-0.23
-0.97
-1.70
-2.43
-3.16
-3.85
-4.48
-5.08
-5.63
-6.15
-6.57
-6.81
-6.75
-6.31
-5.47
-4.30
-2.92
-1.48
-0.09
1.16
2.30
3.39
4.61
6.11
7.96
10.08
12.18
13.86
14.76
14.66
13.60
11.82
9.67
7.45
5.34
3.43
1.73
0.22
-1.08
-2.16
-3.04
-3.76
-4.36
-4.89
-5.36
-5.80
-6.20
-6.56
-6.88
-7.13
-7.31
-7.38
-7.30
-7.03
-6.57
-5.93
-5.16
-4.34
-3.51
-2.75
-2.10
-1.58
-1.21
-1.02
-1.01
-1.18
-1.49
-1.85
-2.18
-2.39
-2.44
-2.32
-2.05
-1.67
-1.23
-0.78
-0.35
0.06
0.51
1.03
1.66
2.38
3.11
3.75
4.19
4.36
4.26
3.93
3.49
3.08
2.88
3.00
3.47
4.22
5.06
5.79
6.27
6.47
6.45
6.34
6.24
6.24
6.41
6.77
7.27
7.75
7.97
7.69
6.80
5.39
3.76
2.22
1.00
0.07
-0.78
-1.80
-3.16
-4.81
-6.58
-8.24
-9.59
-10.56
-11.15
-11.41
-11.40
-11.22
-10.91
-10.53
-10.09
-9.62
-9.12
-8.63
-8.20
-7.84
-7.51
-7.15
-6.66
-6.05
-5.36
-4.71
-4.16
-3.71
-3.26
-2.70
-2.00
-1.24
-0.60
-0.26
-0.29
-0.59
-0.90
-0.92
-0.44
0.61
2.13
3.90
5.71
7.36
8.66
9.50
9.78
9.50
8.76
7.82
6.95
6.39
6.26
6.47
6.79
6.99
6.84
6.30
5.43
4.39
3.41
2.65
2.19
2.02
2.02
2.08
2.13
2.21
2.39
2.70
3.12
3.48
3.63
3.43
2.89
2.11
1.27
0.53
-0.05
-0.45
-0.74
-0.99
-1.23
-1.46
-1.66
-1.83
-1.94
-2.02
-2.09
-2.14
-2.17
-2.17
-2.19
-2.27
-2.45
-2.72
-3.00
-3.18
-3.15
-2.90
-2.47
-2.00
-1.59
-1.31
-1.15
-1.07
-1.00
-0.91
-0.80
-0.74
-0.80
-1.02
-1.40
-1.86
-2.32
-2.72
-3.06
-3.38
-3.70
-3.95
-4.02
-3.80
-3.22
-2.30
-1.15
0.14
1.53
3.00
4.49
5.90
7.01
7.56
7.29
6.10
4.03
1.32
-1.67
-4.55
-7.01
-8.85
-10.01
-10.55
-10.53
-10.05
-9.19
-8.05
-6.79
-5.52
-4.30
-3.04
-1.48
0.63
3.39
6.61
9.79
12.28
13.55
13.37
11.95
9.79
7.46
5.39
3.76
2.56
1.67
1.04
0.68
0.65
0.95
1.48
2.01
2.30
2.19
1.63
0.76
-0.18
-0.94
-1.39
-1.52
-1.51
-1.53
-1.71
-2.05
-2.40
-2.62
-2.60
-2.41
-2.17
-2.01
-1.93
-1.78
-1.39
-0.62
0.51
1.79
2.96
3.78
4.13
4.04
3.63
3.08
2.51
1.98
1.48
0.95
0.33
-0.40
-1.19
-1.90
-2.42
-2.74
-2.99
-3.37
-4.09
-5.20
-6.55
-7.80
-8.66
-8.97
-8.80
-8.42
-8.10
-8.00
-8.06
-8.13
-7.92
-7.21
-5.75
-3.41
-0.19
3.68
7.73
11.31
13.83
14.93
14.64
13.30
11.39
9.29
7.15
5.01
2.93
1.08
-0.26
-0.82
-0.55
0.35
1.57
2.74
3.66
4.23
4.44
4.29
3.76
2.83
1.59
0.19
-1.16
-2.30
-3.15
-3.70
-4.00
-4.10
-4.02
-3.84
-3.65
-3.51
-3.40
-3.17
-2.64
-1.68
-0.27
1.40
2.97
4.12
4.63
4.50
3.89
3.06
2.29
1.71
1.36
1.14
0.90
0.52
-0.05
-0.78
-1.55
-2.32
-3.06
-3.84
-4.74
-5.74
-6.76
-7.60
-8.03
-7.88
-7.14
-5.93
-4.43
-2.79
-1.14
0.46
1.95
3.25
4.26
4.96
5.46
5.99
6.81
8.00
9.37
10.48
10.82
10.01
8.01
5.11
1.84
-1.27
-3.78
-5.47
-6.29
-6.31
-5.72
-4.72
-3.59
-2.58
-1.87
-1.54
-1.53
-1.70
-1.91
-2.04
-2.03
-1.88
-1.64
-1.38
-1.20
-1.15
-1.21
-1.30
-1.30
-1.13
-0.78
-0.34
0.04
0.24
0.20
-0.01
-0.23
-0.32
-0.25
-0.09
-0.01
-0.12
-0.41
-0.76
-0.98
-0.89
-0.49
0.09
0.65
0.99
1.02
0.77
0.36
-0.05
-0.35
-0.45
-0.31
0.02
0.48
0.94
1.29
1.46
1.49
1.47
1.54
1.79
2.19
2.60
2.84
2.75
2.30
1.63
0.96
0.57
0.66
1.29
2.33
3.53
4.53
5.06
4.94
4.18
2.95
1.53
0.17
-0.96
-1.78
-2.34
-2.72
-2.97
-3.07
-2.99
-2.67
-2.15
-1.55
-1.07
-0.88
-1.05
-1.51
-2.08
-2.54
-2.78
-2.82
-2.79
-2.85
-3.10
-3.50
-3.91
-4.18
-4.24
-4.11
-3.88
-3.66
-3.48
-3.35
-3.23
-3.11
-2.99
-2.93
-2.92
-2.93
-2.83
-2.52
-1.94
-1.08
-0.02
1.13
2.25
3.23
3.97
4.42
4.57
4.48
4.25
4.01
3.81
3.65
3.45
3.16
2.75
2.30
1.95
1.84
2.05
2.55
3.22
3.88
4.42
4.79
5.05
5.29
5.55
5.81
5.95
5.90
5.59
5.07
4.40
3.64
2.80
1.88
0.86
-0.21
-1.28
-2.23
-3.00
-3.55
-3.92
-4.15
-4.29
-4.38
-4.42
-4.39
-4.26
-4.04
-3.78
-3.52
-3.32
-3.17
-3.04
-2.88
-2.66
-2.43
-2.27
-2.27
-2.43
-2.67
-2.89
-2.97
-2.85
-2.58
-2.25
-1.92
-1.64
-1.37
-1.10
-0.79
-0.49
-0.23
-0.04
0.10
0.29
0.62
1.18
1.95
2.84
3.69
4.31
4.57
4.43
3.95
3.30
2.65
2.15
1.86
1.75
1.77
1.85
1.93
1.95
1.83
1.48
0.83
-0.11
-1.20
-2.20
-2.82
-2.88
-2.37
-1.47
-0.44
0.52
1.30
1.93
2.50
3.02
3.48
3.76
3.76
3.43
2.72
1.66
0.34
-1.11
-2.49
-3.62
-4.35
-4.68
-4.69
-4.50
-4.22
-3.89
-3.49
-3.00
-2.43
-1.85
-1.30
-0.79
-0.31
0.13
0.51
0.73
0.73
0.50
0.14
-0.20
-0.39
-0.37
-0.17
0.08
0.28
0.34
0.22
-0.05
-0.39
-0.66
-0.74
-0.54
-0.04
0.67
1.39
1.93
2.10
1.81
1.10
0.08
-1.07
-2.19
-3.13
-3.81
-4.23
-4.44
-4.49
-4.43
-4.27
-3.98
-3.58
-3.12
-2.65
-2.22
-1.79
-1.27
-0.60
0.21
1.07
1.86
2.51
3.07
3.64
4.29
4.99
5.62
6.02
6.15
6.07
5.94
5.91
5.98
6.01
5.81
5.23
4.27
3.05
1.80
0.69
-0.15
-0.72
-1.03
-1.12
-1.02
-0.73
-0.24
0.37
1.02
1.55
1.86
1.90
1.68
1.27
0.73
0.09
-0.65
-1.46
-2.28
-2.98
-3.43
-3.54
-3.33
-2.89
-2.35
-1.87
-1.51
-1.28
-1.15
-1.04
-0.88
-0.62
-0.24
0.23
0.77
1.29
1.69
1.84
1.69
1.24
0.59
-0.07
-0.56
-0.80
-0.81
-0.74
-0.73
-0.87
-1.18
-1.59
-2.06
-2.57
-3.11
-3.66
-4.15
-4.48
-4.61
-4.63
-4.63
-4.74
-4.92
-5.04
-4.88
-4.25
-3.11
-1.58
0.14
1.78
3.15
4.21
5.01
5.75
6.60
7.64
8.77
9.70
10.07
9.57
8.11
5.91
3.38
1.03
-0.74
-1.73
-1.96
-1.58
-0.83
0.09
0.96
1.63
2.00
2.05
1.85
1.53
1.24
1.04
0.87
0.60
0.09
-0.70
-1.72
-2.85
-3.91
-4.78
-5.36
-5.61
-5.52
-5.15
-4.56
-3.91
-3.31
-2.84
-2.44
-1.98
-1.28
-0.27
1.00
2.32
3.40
3.96
3.85
3.03
1.64
-0.04
-1.68
-2.97
-3.71
-3.83
-3.45
-2.77
-2.05
-1.44
-1.01
-0.74
-0.56
-0.40
-0.27
-0.20
-0.24
-0.40
-0.62
-0.81
-0.86
-0.69
-0.28
0.34
1.06
1.72
2.17
2.32
2.15
1.75
1.26
0.91
0.83
1.12
1.71
2.43
3.05
3.36
3.27
2.75
1.90
0.87
-0.18
-1.09
-1.71
-1.95
-1.81
-1.38
-0.83
-0.33
-0.00
0.13
0.13
0.04
-0.06
-0.20
-0.37
-0.54
-0.67
-0.68
-0.56
-0.36
-0.19
-0.13
-0.18
-0.28
-0.31
-0.18
0.11
0.46
0.70
0.71
0.45
-0.04
-0.59
-1.08
-1.44
-1.67
-1.82
-1.90
-1.88
-1.68
-1.22
-0.50
0.37
1.28
2.11
2.78
3.27
3.57
3.63
3.40
2.89
2.14
1.29
0.47
-0.23
-0.78
-1.24
-1.64
-2.01
-2.33
-2.54
-2.63
-2.57
-2.36
-1.98
-1.42
-0.70
0.08
0.76
1.14
1.11
0.68
-0.01
-0.74
-1.34
-1.70
-1.82
-1.77
-1.58
-1.23
-0.67
0.10
0.95
1.66
2.01
1.91
1.41
0.69
-0.01
-0.52
-0.79
-0.85
-0.77
-0.60
-0.32
0.02
0.38
0.67
0.78
0.66
0.35
-0.03
-0.33
-0.43
-0.35
-0.18
-0.08
-0.18
-0.49
-0.89
-1.20
-1.23
-0.92
-0.36
0.30
0.86
1.20
1.31
1.24
1.08
0.93
0.85
0.85
0.89
0.85
0.56
-0.07
-1.01
-2.03
-2.80
-3.02
-2.67
-2.03
-1.69
-2.21
-3.81
-6.20
-8.62
-10.16
-10.20
-8.82
-6.82
-5.47
-5.96
-8.81
-13.46
-18.47
-22.00
-22.69
-20.43
-16.60
-13.62
-13.87
-18.40
-26.20
-34.49
-39.85
-39.94
-34.63
-26.23
-18.32
-14.52
-17.13
-26.63
-41.65
-59.11
-74.28
-81.07
-73.34
-47.32
-4.42
47.55
95.99
128.01
135.75
119.71
88.21
53.26
25.12
8.53
2.43
2.56
4.97
8.08
12.42
18.88
26.96
34.36
38.15
36.54
29.89
20.54
11.82
6.33
5.01
6.82
9.53
10.82
9.38
5.45
0.57
-3.24
-4.51
-3.03
0.16
3.28
4.71
3.68
0.52
-3.57
-7.11
-9.01
-8.93
-7.33
-5.11
-3.20
-2.23
-2.33
-3.18
-4.26
-5.05
-5.25
-4.83
-3.98
-2.99
-2.12
-1.56
-1.38
-1.59
-2.10
-2.80
-3.50
-3.97
-3.98
-3.36
-2.10
-0.42
1.32
2.69
3.38
3.27
2.50
1.35
0.12
-0.96
-1.78
-2.30
-2.50
-2.41
-2.14
-1.95
-2.16
-3.04
-4.61
-6.58
-8.48
-9.78
-10.10
-9.31
-7.48
-4.86
-1.73
1.56
4.65
7.16
8.78
9.37
8.97
7.87
6.44
5.02
3.81
2.85
2.10
1.50
1.00
0.59
0.20
-0.33
-1.16
-2.33
-3.72
-5.07
-6.09
-6.74
-7.28
-8.18
-9.84
-12.36
-15.44
-18.51
-21.02
-22.68
-23.65
-24.36
-25.39
-27.21
-30.07
-33.93
-38.48
-43.27
-47.89
-52.07
-55.87
-59.62
-63.80
-68.80
-74.66
-81.01
-87.26
-92.87
-97.67
-101.98
-106.37
-111.36
-117.25
-124.15
-132.03
-140.71
-149.54
-156.89
-160.14
-156.06
-141.79
-115.97
-79.25
-33.88
17.34
72.09
128.77
185.88
241.16
291.21
332.19
361.30
378.20
385.36
387.03
387.29
388.05
388.29
384.65
373.30
351.76
320.01
280.19
235.19
187.12
136.51
82.89
26.22
-31.57
-86.11
-131.71
-163.56
-179.76
-182.14
-175.38
-164.89
-154.73
-146.50
-139.67
-132.88
-125.25
-117.01
-109.19
-102.76
-97.96
-94.13
-90.17
-85.10
-78.63
-71.21
-63.81
-57.34
-52.29
-48.56
-45.54
-42.50
-38.90
-34.67
-30.16
-25.92
-22.39
-19.68
-17.56
-15.65
-13.57
-11.21
-8.71
-6.35
-4.43
-3.07
-2.23
-1.77
-1.53
-1.38
-1.27
-1.18
-1.16
-1.25
-1.55
-2.13
-3.00
-4.05
-5.11
-5.93
-6.34
-6.25
-5.76
-5.06
-4.40
-3.93
-3.71
-3.64
-3.53
-3.13
-2.17
-0.49
1.95
4.96
8.18
11.06
13.09
13.88
13.35
11.68
9.30
6.67
4.14
1.93
0.10
-1.33
-2.34
-2.91
-3.10
-3.01
-2.86
-2.87
-3.18
-3.81
-4.62
-5.38
-5.88
-6.01
-5.81
-5.43
-5.05
-4.82
-4.80
-4.93
-5.09
-5.11
-4.91
-4.45
-3.83
-3.19
-2.72
-2.54
-2.70
-3.15
-3.82
-4.61
-5.45
-6.27
-6.99
-7.46
-7.55
-7.19
-6.44
-5.53
-4.75
-4.37
-4.48
-4.94
-5.47
-5.75
-5.60
-5.05
-4.30
-3.60
-3.03
-2.57
-2.08
-1.50
-0.96
-0.72
-1.01
-1.85
-3.00
-4.03
-4.52
-4.28
-3.41
-2.19
-0.97
-0.09
0.18
-0.35
-1.72
-3.69
-5.75
-7.25
-7.62
-6.68
-4.74
-2.39
-0.24
1.48
2.97
4.69
7.01
9.96
13.17
16.08
18.15
19.14
19.06
18.11
16.53
14.54
12.28
9.94
7.68
5.68
4.08
2.93
2.21
1.87
1.78
1.78
1.67
1.26
0.42
-0.78
-2.17
-3.47
-4.47
-5.06
-5.27
-5.13
-4.67
-3.86
-2.69
-1.20
0.49
2.19
3.74
5.06
6.14
7.08
7.98
8.93
9.97
11.12
12.37
13.71
15.17
16.74
18.41
20.08
21.52
22.42
22.39
21.10
18.37
14.21
8.93
2.97
-3.11
-8.82
-13.79
-17.84
-20.92
-23.07
-24.29
-24.59
-24.03
-22.75
-20.95
-18.90
-16.85
-15.00
-13.46
-12.22
-11.18
-10.11
-8.76
-6.92
-4.56
-1.81
1.06
3.74
6.00
7.75
9.04
9.97
10.58
10.82
10.57
9.74
8.30
6.37
4.19
2.06
0.32
-0.76
-1.05
-0.55
0.58
2.04
3.51
4.64
5.21
5.10
4.32
3.02
1.43
-0.14
-1.29
-1.69
-1.12
0.28
2.09
3.64
4.26
3.54
1.54
-1.33
-4.40
-7.02
-8.80
-9.65
-9.73
-9.35
-8.79
-8.27
-7.83
-7.42
-6.84
-5.88
-4.35
