1660331765.00
64.000000
-0.00
-0.00
-0.00
-0.00
-0.00
-0.00
-0.00
-0.00
-0.00
-0.00
0.00
0.01
0.01
-0.00
-0.03
-0.05
-0.05
0.00
0.13
0.36
0.66
1.01
1.37
1.72
2.06
2.40
2.79
3.25
3.80
4.42
5.05
5.65
6.20
6.70
7.19
7.74
8.34
9.09
9.87
10.60
11.18
11.62
11.99
12.47
13.27
14.48
16.31
18.54
20.91
23.17
25.19
27.08
29.16
31.80
35.24
39.79
45.04
50.51
55.70
60.39
64.72
69.17
74.30
80.44
87.92
96.12
104.33
111.90
118.57
124.60
130.62
137.72
144.18
151.82
161.04
172.07
184.17
195.00
200.70
196.68
179.18
146.63
100.72
44.94
-16.21
-78.85
-140.60
-200.52
-258.52
-314.58
-368.51
-419.65
-467.94
-513.41
-555.72
-593.25
-622.44
-638.07
-634.41
-607.41
-556.22
-484.35
-398.51
-306.69
-215.86
-130.68
-53.37
15.42
75.42
126.34
167.64
199.28
221.95
237.10
246.45
251.51
253.22
251.92
247.65
240.46
230.71
219.11
206.54
193.84
181.54
169.72
158.14
146.42
134.27
121.77
109.32
97.49
86.82
77.48
69.30
61.83
54.63
47.45
40.34
33.57
27.45
22.16
17.79
14.32
11.65
9.70
8.20
6.82
5.25
3.31
1.01
-1.48
-3.90
-6.05
-7.82
-9.17
-10.11
-10.63
-10.75
-10.48
-9.91
-9.18
-8.38
-7.60
-6.88
-6.23
-5.64
-5.17
-4.85
-4.70
-4.72
-4.84
-4.95
-4.98
-4.89
-4.69
-4.43
-4.18
-4.00
-3.87
-3.77
-3.60
-3.29
-2.72
-1.86
-0.71
0.59
1.79
2.66
2.98
2.68
1.85
0.70
-0.54
-1.67
-2.57
-3.19
-3.52
-3.57
-3.32
-2.80
-2.06
-1.24
-0.50
-0.02
0.11
-0.08
-0.49
-0.92
-1.22
-1.29
-1.17
-0.97
-0.81
-0.78
-0.92
-1.18
-1.46
-1.64
-1.59
-1.18
-0.32
0.95
2.54
4.24
5.78
6.91
7.49
7.48
6.97
6.11
5.04
3.86
2.63
1.39
0.23
-0.79
-1.54
-2.01
-2.22
-2.26
-2.25
-2.32
-2.55
-2.96
-3.50
-4.04
-4.48
-4.72
-4.75
-4.62
-4.43
-4.29
-4.25
-4.33
-4.49
-4.68
-4.83
-4.82
-4.50
-3.74
-2.48
-0.81
1.01
2.67
3.80
4.19
3.80
2.80
1.48
0.14
-1.04
-1.97
-2.66
-3.16
-3.50
-3.64
-3.53
-3.12
-2.45
-1.62
-0.82
-0.23
0.03
-0.08
-0.50
-1.12
-1.78
-2.40
-2.92
-3.38
-3.80
-4.24
-4.73
-5.27
-5.89
-6.52
-7.05
-7.25
-6.84
-5.56
-3.21
0.08
3.92
7.71
10.87
12.98
13.92
13.75
12.75
11.20
9.36
7.48
5.74
4.32
3.29
2.68
2.39
2.32
2.34
2.35
2.32
2.22
2.04
1.80
1.52
1.21
0.86
0.44
-0.11
-0.82
-1.71
-2.74
-3.83
-4.92
-5.95
-6.91
-7.75
-8.31
-8.35
-7.58
-5.85
-3.22
-0.01
3.30
6.22
8.41
9.74
10.24
10.03
9.23
7.97
6.40
4.72
3.15
1.90
1.11
0.76
0.75
0.94
1.17
1.33
1.36
1.22
0.89
0.37
-0.30
-1.06
-1.82
-2.52
-3.12
-3.66
-4.25
-4.99
-6.00
-7.32
-8.87
-10.48
-11.85
-12.67
-12.62
-11.57
-9.63
-7.11
-4.47
-2.16
-0.44
0.62
1.13
1.21
0.98
0.55
0.00
-0.49
-0.73
-0.55
0.10
1.05
1.97
2.48
2.28
1.26
-0.48
-2.67
-5.00
-7.22
-9.17
-10.81
-12.10
-13.03
-13.58
-13.76
-13.68
-13.54
-13.49
-13.59
-13.68
-13.36
-12.13
-9.61
-5.74
-0.83
4.53
9.62
13.91
17.11
19.22
20.39
20.75
20.42
19.44
17.91
16.04
14.17
12.61
11.57
11.02
10.77
10.51
9.95
8.90
7.36
5.43
3.31
1.20
-0.78
-2.60
-4.33
-6.13
-8.12
-10.42
-12.99
-15.70
-18.28
-20.37
-21.55
-21.42
-19.72
-16.43
-11.80
-6.34
-0.73
4.38
8.47
11.26
12.77
13.20
12.85
12.01
10.91
9.70
8.49
7.36
6.42
5.74
5.36
5.22
5.20
5.14
4.98
4.73
4.49
4.35
4.33
4.35
4.28
4.00
3.43
2.56
1.42
0.02
-1.67
-3.64
-5.76
-7.78
-9.28
-9.84
-9.12
-7.05
-3.91
-0.21
3.41
6.37
8.35
9.30
9.37
8.81
7.83
6.58
5.20
3.87
2.80
2.19
2.14
2.54
3.12
3.48
3.32
2.53
1.24
-0.24
-1.60
-2.63
-3.30
-3.75
-4.18
-4.75
-5.49
-6.36
-7.29
-8.26
-9.30
-10.42
-11.51
-12.31
-12.41
-11.41
-9.13
-5.71
-1.64
2.40
5.76
8.05
9.21
9.49
9.21
8.63
7.84
6.82
5.56
4.15
2.82
1.77
1.13
0.83
0.67
0.43
-0.04
-0.72
-1.50
-2.23
-2.84
-3.32
-3.75
-4.17
-4.64
-5.13
-5.66
-6.25
-6.96
-7.85
-8.89
-9.91
-10.57
-10.43
-9.13
-6.56
-2.96
1.12
4.99
8.09
10.16
11.29
11.69
11.61
11.11
10.18
8.78
7.03
5.22
3.70
2.77
2.52
2.80
3.32
3.75
3.83
3.46
2.70
1.71
0.67
-0.32
-1.20
-2.01
-2.77
-3.49
-4.15
-4.76
-5.39
-6.16
-7.17
-8.36
-9.48
-10.07
-9.69
-8.07
-5.28
-1.72
2.00
5.28
7.71
9.13
9.65
9.44
8.73
7.68
6.43
5.13
3.98
3.16
2.78
2.82
3.13
3.50
3.73
3.72
3.47
3.07
2.65
2.31
2.08
1.92
1.77
1.52
1.07
0.37
-0.58
-1.71
-2.91
-4.06
-5.07
-5.84
-6.30
-6.32
-5.80
-4.67
-2.97
-0.87
1.37
3.44
5.11
6.25
6.82
6.91
6.61
6.03
5.26
4.40
3.51
2.65
1.86
1.14
0.49
-0.08
-0.59
-1.04
-1.43
-1.77
-2.04
-2.29
-2.57
-3.02
-3.72
-4.74
-6.02
-7.38
-8.61
-9.53
-10.10
-10.39
-10.56
-10.71
-10.85
-10.82
-10.34
-9.13
-7.04
-4.15
-0.79
2.59
5.51
7.61
8.68
8.70
7.75
5.98
3.53
0.62
-2.47
-5.33
-7.56
-8.79
-8.81
-7.56
-5.17
-1.99
1.59
5.18
8.47
11.25
13.17
13.85
13.18
11.46
9.18
6.72
4.25
1.80
-0.59
-2.81
-4.63
-5.76
-6.01
-5.36
-3.95
-2.06
-0.04
1.74
2.93
3.32
2.87
1.70
0.01
-1.91
-3.78
-5.32
-6.37
-6.82
-6.72
-6.23
-5.63
-5.22
-5.24
-5.77
-6.75
-8.04
-9.45
-10.85
-12.09
-12.98
-13.32
-12.97
-12.01
-10.73
-9.75
-9.49
-10.15
-11.39
-12.34
-11.86
-8.99
-3.19
5.45
16.14
27.63
38.31
46.45
50.54
49.75
44.27
35.40
25.14
15.50
7.89
2.68
-0.57
-2.66
-4.19
-5.35
-6.02
-6.14
-5.85
-5.51
-5.47
-5.95
-6.83
-7.81
-8.55
-8.88
-8.86
-8.76
-8.85
-9.27
-10.02
-10.85
-11.47
-11.62
-11.25
-10.49
-9.59
-8.74
-7.96
-7.02
-5.56
-3.33
-0.38
2.93
5.96
8.15
9.18
9.08
8.18
6.88
5.50
4.19
3.03
2.02
1.23
0.74
0.59
0.76
1.14
1.52
1.73
1.64
1.24
0.66
0.06
-0.36
-0.54
-0.50
-0.37
-0.29
-0.33
-0.47
-0.64
-0.81
-1.04
-1.44
-2.08
-2.86
-3.51
-3.68
-3.09
-1.69
0.28
2.42
4.28
5.51
5.95
5.58
4.50
2.83
0.76
-1.51
-3.71
-5.56
-6.83
-7.35
-7.11
-6.26
-5.05
-3.77
-2.64
-1.74
-1.02
-0.35
0.42
1.39
2.56
3.79
4.84
5.45
5.35
4.34
2.39
-0.37
-3.65
-7.01
-10.00
-12.19
-13.28
-13.17
-11.90
-9.72
-6.94
-3.90
-0.89
1.90
4.33
6.30
7.69
8.41
8.45
7.91
7.01
6.03
5.18
4.51
3.93
3.28
2.48
1.58
0.74
0.09
-0.37
-0.80
-1.41
-2.35
-3.51
-4.57
-5.16
-5.03
-4.26
-3.20
-2.28
-1.71
-1.31
-0.58
1.07
4.02
8.15
12.88
17.40
20.93
23.03
23.58
22.77
20.90
18.31
15.30
12.17
9.24
6.77
4.88
3.47
2.26
0.88
-0.97
-3.39
-6.22
-9.16
-11.83
-13.99
-15.54
-16.54
-17.04
-17.06
-16.55
-15.51
-14.09
-12.62
-11.51
-11.00
-11.07
-11.31
-11.12
-9.90
-7.38
-3.67
0.79
5.40
9.62
13.08
15.55
16.91
17.09
16.03
13.81
10.69
7.10
3.61
0.74
-1.16
-2.05
-2.14
-1.84
-1.56
-1.58
-2.01
-2.79
-3.70
-4.50
-5.01
-5.14
-4.96
-4.67
-4.57
-4.94
-5.94
-7.51
-9.34
-10.93
-11.76
-11.50
-10.07
-7.65
-4.57
-1.10
2.59
6.50
10.67
15.05
19.40
23.27
26.14
27.50
27.02
24.67
20.77
15.90
10.75
5.94
1.84
-1.48
-4.13
-6.30
-8.09
-9.51
-10.56
-11.27
-11.80
-12.39
-13.29
-14.66
-16.50
-18.63
-20.75
-22.46
-23.35
-23.08
-21.48
-18.60
-14.72
-10.28
-5.77
-1.60
1.96
4.83
7.02
8.64
9.77
10.52
11.00
11.30
11.52
11.67
11.70
11.45
10.75
9.56
7.96
6.22
4.74
3.85
3.79
4.50
5.66
6.74
7.11
6.26
3.93
0.20
-4.53
-9.62
-14.29
-17.78
-19.50
-19.14
-16.77
-12.90
-8.29
-3.81
-0.11
2.56
4.29
5.46
6.46
7.50
8.60
9.67
10.67
11.67
12.83
14.26
15.86
17.31
18.12
17.91
16.56
14.31
11.69
9.26
7.40
6.21
5.46
4.82
3.88
2.38
0.15
-2.88
-6.67
-10.99
-15.37
-19.10
-21.41
-21.67
-19.62
-15.52
-10.11
-4.37
0.75
4.60
6.89
7.72
7.38
6.26
4.74
3.13
1.70
0.66
0.10
-0.00
0.21
0.48
0.53
0.12
-0.87
-2.38
-4.18
-5.94
-7.28
-7.95
-7.88
-7.23
-6.36
-5.76
-5.86
-6.91
-8.94
-11.64
-14.54
-17.07
-18.69
-19.07
-18.10
-15.87
-12.73
-9.05
-5.23
-1.59
1.66
4.38
6.53
8.09
9.15
9.90
10.65
11.74
13.45
15.86
18.78
21.75
24.18
25.46
25.20
23.27
19.91
15.61
11.00
6.70
3.10
0.34
-1.65
-3.12
-4.36
-5.60
-7.01
-8.65
-10.41
-11.98
-12.89
-12.63
-10.84
-7.58
-3.29
1.27
5.32
8.34
10.19
11.05
11.20
10.83
9.90
8.33
6.06
3.28
0.32
-2.41
-4.60
-6.17
-7.23
-7.99
-8.61
-9.19
-9.73
-10.25
-10.82
-11.54
-12.51
-13.69
-14.93
-15.96
-16.51
-16.43
-15.77
-14.77
-13.79
-13.09
-12.80
-12.73
-12.52
-11.76
-10.12
-7.57
-4.30
-0.70
2.79
5.84
8.24
9.94
10.99
11.44
11.37
10.90
10.21
9.57
9.21
9.32
9.92
10.93
12.19
13.52
14.80
15.93
16.85
17.45
17.60
17.13
15.95
14.09
11.71
9.05
6.36
3.81
1.45
-0.78
-3.05
-5.51
-8.29
-11.37
-14.50
-17.23
-18.95
-19.07
-17.27
-13.61
-8.63
-3.16
1.90
5.88
8.43
9.54
9.40
8.27
6.38
3.98
1.38
-1.02
-2.83
-3.80
-3.89
-3.26
-2.19
-0.90
0.52
2.05
3.62
4.97
5.63
5.15
3.30
0.28
-3.31
-6.68
-9.18
-10.53
-10.86
-10.55
-10.12
-9.95
-10.31
-11.23
-12.54
-13.92
-14.85
-14.81
-13.34
-10.25
-5.64
0.09
6.34
12.44
17.78
21.85
24.37
25.33
25.01
23.95
22.78
22.02
21.95
22.45
23.14
23.57
23.39
22.52
21.19
19.76
18.65
18.20
18.60
19.77
21.22
21.86
20.21
14.79
4.90
-8.88
-24.59
-39.48
-51.07
-58.04
-60.63
-60.20
-58.31
-55.87
-52.84
-48.57
-42.48
-34.60
-25.71
-16.96
-9.33
-3.29
1.28
4.80
7.65
9.97
11.65
12.51
12.50
11.79
10.76
9.83
9.33
9.31
9.62
9.89
9.82
9.21
8.14
6.90
5.84
5.22
5.07
5.14
5.09
4.59
3.54
2.07
0.48
-0.95
-2.10
-3.01
-3.85
-4.83
-6.07
-7.54
-9.07
-10.31
-10.84
-10.24
-8.26
-4.89
-0.48
4.37
8.95
12.72
15.39
16.99
17.73
17.84
17.44
16.59
15.34
13.81
12.22
10.82
9.78
9.11
8.72
8.41
8.00
7.34
6.39
5.21
3.92
2.70
1.69
0.92
0.29
-0.41
-1.37
-2.67
-4.18
-5.72
-7.03
-8.02
-8.73
-9.33
-10.02
-10.93
-12.15
-13.67
-15.45
-17.34
-19.02
-20.05
-19.90
-18.15
-14.67
-9.78
-4.16
1.34
5.95
9.24
11.18
12.00
12.06
11.67
11.01
10.15
9.17
8.13
7.12
6.23
5.47
4.79
4.15
3.51
2.91
2.45
2.18
2.14
2.20
2.20
1.94
1.30
0.28
-0.96
-2.18
-3.19
-3.88
-4.33
-4.72
-5.32
-6.37
-7.98
-10.12
-12.54
-14.79
-16.34
-16.66
-15.43
-12.63
-8.61
-4.01
0.44
4.16
6.85
8.50
9.31
9.48
9.18
8.48
7.50
6.41
5.44
4.77
4.44
4.34
4.27
4.03
3.60
3.11
2.73
2.59
2.64
2.72
2.59
2.05
1.06
-0.27
-1.77
-3.22
-4.47
-5.47
-6.27
-6.99
-7.77
-8.77
-10.08
-11.67
-13.33
-14.65
-15.12
-14.27
-11.86
-8.05
-3.33
1.55
5.86
9.09
11.06
11.88
11.91
11.49
10.92
10.34
9.76
9.18
8.58
8.01
7.54
7.17
6.80
6.31
5.59
4.65
3.65
2.84
2.39
2.32
2.47
2.54
2.26
1.50
0.27
-1.23
-2.76
-4.08
-5.06
-5.69
-6.11
-6.58
-7.34
-8.59
-10.34
-12.41
-14.45
-15.96
-16.44
-15.47
-12.93
-8.97
-4.11
0.97
5.57
9.20
11.69
13.11
13.73
13.75
13.31
12.47
11.32
10.02
8.78
7.82
7.20
6.84
6.59
6.30
5.86
5.28
4.62
3.96
3.36
2.87
2.49
2.16
1.75
1.11
0.10
-1.26
-2.81
-4.27
-5.38
-6.02
-6.25
-6.32
-6.54
-7.18
-8.38
-10.07
-11.99
-13.70
-14.69
-14.47
-12.74
-9.50
-5.12
-0.23
4.43
8.22
10.77
12.03
12.17
11.45
10.18
8.62
6.99
5.51
4.36
3.65
3.35
3.31
3.30
3.14
2.72
2.11
1.47
0.96
0.67
0.53
0.38
0.04
-0.60
-1.53
-2.63
-3.70
-4.58
-5.18
-5.54
-5.77
-6.10
-6.77
-7.95
-9.65
-11.63
-13.45
-14.56
-14.44
-12.84
-9.79
-5.68
-1.08
3.37
7.15
9.89
11.46
11.94
11.51
10.47
9.08
7.61
6.25
5.14
4.33
3.82
3.51
3.27
3.02
2.70
2.35
2.01
1.74
1.53
1.31
0.98
0.44
-0.39
-1.49
-2.79
-4.13
-5.31
-6.19
-6.73
-7.08
-7.49
-8.23
-9.47
-11.13
-12.88
-14.22
-14.62
-13.68
-11.31
-7.72
-3.40
1.04
5.04
8.19
10.33
11.52
11.91
11.66
10.90
9.75
8.36
6.95
5.77
4.95
4.48
4.18
3.83
3.30
2.60
1.89
1.35
1.10
1.08
1.14
1.07
0.72
0.04
-0.92
-2.03
-3.17
-4.21
-5.09
-5.83
-6.47
-7.12
-7.91
-8.93
-10.21
-11.63
-12.90
-13.63
-13.38
-11.84
-8.97
-5.02
-0.50
3.94
7.71
10.45
12.04
12.62
12.47
11.87
11.03
10.08
9.09
8.12
7.25
6.59
6.21
6.10
6.15
6.19
6.05
5.69
5.19
4.71
4.33
4.03
3.63
2.92
1.78
0.27
-1.38
-2.85
-3.93
-4.58
-4.95
-5.29
-5.84
-6.74
-8.01
-9.58
-11.27
-12.85
-13.96
-14.19
-13.16
-10.73
-7.07
-2.68
1.75
5.55
8.27
9.80
10.29
10.06
9.41
8.55
7.57
6.52
5.47
4.49
3.67
3.08
2.72
2.58
2.59
2.71
2.87
3.03
3.14
3.14
2.96
2.52
1.77
0.68
-0.65
-2.04
-3.26
-4.11
-4.54
-4.67
-4.73
-5.01
-5.74
-6.96
-8.50
-10.02
-11.11
-11.33
-10.37
-8.17
-4.90
-1.00
2.95
6.43
9.05
10.62
11.20
10.96
10.12
8.93
7.56
6.12
4.69
3.34
2.17
1.28
0.78
0.69
0.96
1.43
1.88
2.09
1.95
1.41
0.55
-0.52
-1.70
-2.87
-3.94
-4.84
-5.57
-6.16
-6.75
-7.48
-8.53
-9.95
-11.63
-13.27
-14.40
-14.51
-13.23
-10.47
-6.51
-1.92
2.63
6.49
9.27
10.83
11.23
10.71
9.55
8.02
6.41
4.95
3.76
2.89
2.29
1.87
1.58
1.41
1.36
1.37
1.37
1.26
0.97
0.50
-0.09
-0.78
-1.54
-2.40
-3.34
-4.29
-5.16
-5.93
-6.68
-7.60
-8.90
-10.61
-12.57
-14.34
-15.38
-15.19
-13.54
-10.51
-6.52
-2.11
2.14
5.73
8.31
9.73
10.00
9.24
7.70
5.73
3.79
2.30
1.50
1.42
1.84
2.48
3.10
3.62
4.19
5.15
6.79
9.21
12.28
15.77
19.48
23.20
26.12
27.13
25.16
19.94
12.19
3.34
-5.09
-11.91
-16.67
-19.65
-21.46
-22.48
-22.69
-21.73
-19.38
-15.91
-12.17
-9.24
-8.01
-8.65
-10.67
-13.15
-15.15
-16.02
-15.45
-13.44
-10.31
-6.70
-3.41
-1.16
-0.30
-0.60
-1.36
-1.76
-1.26
0.11
1.84
3.21
3.72
3.09
1.32
-1.30
-4.20
-6.22
-5.78
-1.33
7.74
20.44
33.98
44.75
49.83
48.21
41.16
31.45
22.02
14.73
9.95
6.90
4.57
2.42
0.49
-0.89
-1.58
-1.87
-2.36
-3.62
-5.86
-8.67
-11.27
-12.87
-13.01
-11.80
-9.87
-8.00
-6.88
-6.81
-7.60
-8.78
-9.83
-10.38
-10.32
-9.78
-9.07
-8.43
-7.99
-7.72
-7.42
-6.94
-6.20
-5.25
-4.19
-3.09
-1.90
-0.51
1.21
3.30
5.58
7.72
9.33
10.09
9.92
8.96
7.46
5.75
4.03
2.46
1.08
-0.02
-0.78
-1.12
-1.02
-0.59
0.02
0.62
1.06
1.27
1.20
0.88
0.34
-0.36
-1.15
-1.92
-2.56
-3.01
-3.27
-3.44
-3.62
-3.91
-4.36
-4.92
-5.44
-5.70
-5.47
-4.56
-2.94
-0.70
1.90
4.49
6.68
8.18
8.83
8.65
7.80
6.49
4.90
3.20
1.56
0.17
-0.79
-1.17
-0.88
0.00
1.25
2.52
3.49
3.95
3.88
3.37
2.57
1.59
0.55
-0.50
-1.47
-2.27
-2.85
-3.30
-3.82
-4.73
-6.26
-8.51
-11.30
-14.20
-16.59
-17.90
-17.69
-15.80
-12.37
-7.80
-2.64
2.48
6.98
10.44
12.62
13.47
13.15
11.92
10.12
8.13
6.28
4.83
3.89
3.46
3.42
3.58
3.77
3.83
3.68
3.23
2.45
1.34
-0.07
-1.65
-3.21
-4.55
-5.46
-5.88
-5.88
-5.67
-5.56
-5.82
-6.57
-7.74
-9.02
-9.95
-10.06
-8.99
-6.59
-3.01
1.36
5.99
10.34
14.10
17.23
19.94
22.50
25.03
27.38
29.10
29.65
28.52
25.46
20.49
13.91
6.33
-1.39
-8.22
-13.18
-15.55
-15.18
-12.46
-8.19
-3.30
1.45
5.50
8.43
9.76
9.00
5.75
-0.10
-8.16
-17.52
-26.91
-34.92
-40.36
-42.45
-41.03
-36.62
-30.21
-23.01
-16.03
-9.82
-4.40
0.52
5.17
9.50
13.06
15.24
15.57
14.06
11.26
8.06
5.40
3.87
3.59
4.29
5.49
6.79
7.92
8.72
9.04
8.71
7.60
5.68
3.13
0.25
-2.63
-5.28
-7.68
-9.93
-12.11
-14.14
-15.74
-16.44
-15.72
-13.22
-8.83
-2.85
4.09
11.11
17.25
21.68
23.90
23.78
21.68
18.30
14.54
11.23
8.94
7.79
7.50
7.55
7.43
6.80
5.58
3.89
1.94
-0.05
-1.92
-3.48
-4.60
-5.14
-5.13
-4.80
-4.56
-4.91
-6.19
-8.49
-11.52
-14.74
-17.55
-19.37
-19.86
-18.86
-16.47
-12.98
-8.88
-4.76
-1.17
1.53
3.29
4.43
5.45
6.86
8.98
11.75
14.75
17.31
18.72
18.50
16.60
13.42
9.74
6.44
4.19
3.28
3.56
4.61
5.88
6.93
7.47
7.35
6.54
5.02
2.77
-0.26
-4.03
-8.40
-13.05
-17.46
-20.98
-22.98
-23.05
-21.12
-17.48
-12.73
-7.65
-2.98
0.71
3.23
4.78
5.85
6.89
8.02
8.89
8.78
7.13
3.90
-0.21
-4.03
-6.47
-7.05
-6.09
-4.44
-2.96
-2.00
-1.36
-0.49
1.06
3.31
5.89
8.32
10.32
11.94
13.44
15.01
16.55
17.71
18.09
17.56
16.40
15.16
14.29
13.92
13.65
12.88
11.15
8.43
5.18
2.10
-0.29
-1.86
-2.92
-4.01
-5.54
