1660322369.00
64.000000
-0.00
-0.00
-0.00
-0.00
-0.00
-0.00
-0.00
-0.00
-0.00
-0.00
0.00
0.01
0.01
-0.00
-0.03
-0.05
-0.05
0.00
0.13
0.36
0.66
1.01
1.37
1.72
2.06
2.40
2.79
3.24
3.80
4.42
5.06
5.66
6.20
6.68
7.15
7.68
8.31
9.14
10.08
11.03
11.88
12.58
13.18
13.82
14.69
15.92
17.74
19.95
22.32
24.61
26.66
28.57
30.63
33.22
36.64
41.23
46.66
52.44
58.02
63.09
67.70
72.28
77.46
83.67
91.42
100.23
109.39
118.14
125.99
132.96
139.54
146.85
153.42
161.41
171.50
184.05
198.13
211.07
218.51
215.56
198.43
165.83
119.98
64.86
5.27
-54.97
-113.90
-171.21
-227.44
-282.99
-337.69
-390.39
-439.93
-484.96
-524.06
-555.71
-578.38
-590.63
-591.38
-580.36
-558.14
-526.55
-487.88
-444.04
-395.61
-341.67
-280.44
-210.73
-133.42
-51.94
28.20
101.17
162.61
210.66
245.81
269.95
285.17
293.03
294.65
290.96
283.14
272.60
260.60
248.01
235.09
221.69
207.52
192.53
176.99
161.53
146.88
133.61
121.91
111.51
101.84
92.28
82.42
72.26
62.19
52.80
44.57
37.72
32.06
27.18
22.62
18.20
13.85
9.69
5.94
2.76
0.19
-1.86
-3.55
-5.02
-6.33
-7.47
-8.39
-9.03
-9.41
-9.57
-9.60
-9.55
-9.41
-9.15
-8.74
-8.21
-7.61
-7.05
-6.60
-6.25
-5.94
-5.57
-5.11
-4.60
-4.17
-3.90
-3.81
-3.81
-3.73
-3.49
-3.10
-2.70
-2.43
-2.33
-2.36
-2.40
-2.35
-2.22
-2.06
-1.97
-1.98
-2.04
-2.11
-2.14
-2.14
-2.13
-2.13
-2.15
-2.15
-2.11
-2.00
-1.82
-1.55
-1.20
-0.80
-0.42
-0.13
0.01
0.01
-0.06
-0.14
-0.15
-0.09
0.00
0.11
0.23
0.41
0.67
1.00
1.33
1.56
1.67
1.70
1.74
1.92
2.26
2.72
3.19
3.62
3.97
4.25
4.46
4.55
4.46
4.14
3.59
2.84
1.98
1.01
-0.09
-1.26
-2.43
-3.47
-4.27
-4.78
-5.00
-5.03
-4.96
-4.89
-4.84
-4.83
-4.83
-4.78
-4.64
-4.41
-4.11
-3.82
-3.61
-3.50
-3.47
-3.45
-3.33
-3.09
-2.76
-2.42
-2.18
-2.08
-2.09
-2.11
-2.05
-1.86
-1.57
-1.29
-1.09
-1.04
-1.09
-1.11
-0.98
-0.67
-0.26
0.10
0.25
0.13
-0.15
-0.42
-0.53
-0.46
-0.31
-0.27
-0.46
-0.82
-1.19
-1.41
-1.38
-1.13
-0.81
-0.58
-0.49
-0.54
-0.62
-0.68
-0.67
-0.59
-0.51
-0.45
-0.44
-0.49
-0.57
-0.64
-0.67
-0.63
-0.53
-0.39
-0.26
-0.17
-0.12
-0.09
-0.02
0.11
0.31
0.53
0.75
0.89
0.92
0.82
0.62
0.38
0.16
-0.01
-0.08
-0.05
0.03
0.12
0.17
0.15
0.04
-0.13
-0.33
-0.48
-0.55
-0.50
-0.34
-0.09
0.21
0.48
0.68
0.76
0.69
0.46
0.11
-0.30
-0.70
-1.01
-1.18
-1.19
-1.06
-0.85
-0.59
-0.35
-0.16
-0.04
0.01
-0.01
-0.09
-0.25
-0.48
-0.74
-0.96
-1.09
-1.14
-1.20
-1.38
-1.72
-2.18
-2.64
-2.96
-3.13
-3.23
-3.42
-3.80
-4.31
-4.80
-5.12
-5.23
-5.22
-5.29
-5.54
-5.89
-6.15
-6.02
-5.35
-4.11
-2.45
-0.63
1.11
2.63
3.84
4.77
5.44
5.91
6.20
6.33
6.30
6.12
5.85
5.56
5.32
5.18
5.12
5.07
4.93
4.66
4.24
3.73
3.21
2.75
2.38
2.05
1.69
1.24
0.69
0.06
-0.55
-1.03
-1.29
-1.28
-1.03
-0.60
-0.07
0.48
1.00
1.44
1.78
1.97
2.01
1.90
1.68
1.38
1.07
0.81
0.64
0.60
0.67
0.80
0.94
0.99
0.90
0.66
0.29
-0.14
-0.52
-0.78
-0.93
-1.04
-1.20
-1.49
-1.87
-2.26
-2.51
-2.56
-2.42
-2.16
-1.88
-1.59
-1.27
-0.85
-0.32
0.25
0.73
1.08
1.31
1.50
1.71
1.96
2.17
2.22
2.07
1.73
1.28
0.80
0.35
-0.05
-0.36
-0.54
-0.53
-0.27
0.23
0.81
1.31
1.51
1.36
0.91
0.37
-0.03
-0.14
0.01
0.24
0.32
0.06
-0.55
-1.32
-1.98
-2.32
-2.26
-1.88
-1.34
-0.82
-0.37
0.03
0.43
0.87
1.32
1.66
1.80
1.71
1.46
1.16
0.95
0.90
0.98
1.13
1.24
1.25
1.18
1.09
1.05
1.09
1.19
1.28
1.30
1.19
0.98
0.73
0.52
0.40
0.34
0.29
0.15
-0.11
-0.50
-0.94
-1.36
-1.70
-1.98
-2.22
-2.47
-2.71
-2.89
-2.94
-2.82
-2.53
-2.18
-1.85
-1.67
-1.64
-1.72
-1.80
-1.83
-1.76
-1.65
-1.52
-1.41
-1.31
-1.21
-1.12
-1.07
-1.08
-1.16
-1.24
-1.25
-1.10
-0.82
-0.45
-0.10
0.16
0.29
0.32
0.28
0.22
0.17
0.14
0.12
0.07
-0.10
-0.43
-0.93
-1.48
-1.92
-2.09
-1.90
-1.42
-0.82
-0.29
0.07
0.26
0.33
0.38
0.43
0.45
0.40
0.23
-0.03
-0.32
-0.58
-0.79
-0.97
-1.13
-1.28
-1.42
-1.58
-1.78
-2.05
-2.40
-2.79
-3.09
-3.18
-2.94
-2.38
-1.59
-0.73
0.09
0.80
1.42
2.01
2.57
3.09
3.51
3.81
4.02
4.17
4.31
4.44
4.51
4.52
4.50
4.51
4.61
4.76
4.88
4.81
4.52
4.03
3.49
3.05
2.75
2.58
2.43
2.25
2.01
1.77
1.57
1.43
1.31
1.18
1.02
0.88
0.83
0.91
1.11
1.32
1.44
1.38
1.15
0.83
0.52
0.33
0.25
0.20
0.10
-0.15
-0.55
-1.02
-1.44
-1.72
-1.82
-1.79
-1.68
-1.56
-1.44
-1.30
-1.12
-0.86
-0.50
-0.02
0.55
1.12
1.61
1.91
1.98
1.85
1.61
1.34
1.14
1.00
0.94
0.94
0.97
1.01
1.03
0.99
0.88
0.73
0.59
0.47
0.34
0.14
-0.16
-0.50
-0.77
-0.83
-0.66
-0.32
0.02
0.25
0.33
0.34
0.36
0.46
0.58
0.67
0.70
0.72
0.83
1.11
1.61
2.26
2.98
3.70
4.40
5.07
5.72
6.31
6.78
7.12
7.34
7.59
8.03
8.81
9.99
11.47
13.06
14.52
15.68
16.52
17.16
17.80
18.64
19.82
21.41
23.41
25.84
28.65
31.69
34.67
37.18
38.88
39.61
39.46
38.71
37.60
36.18
34.33
31.84
28.71
25.25
22.02
19.62
18.34
18.11
18.55
19.27
20.16
21.41
23.31
25.93
28.80
30.97
31.32
29.00
23.87
16.49
7.91
-0.76
-8.67
-15.39
-20.81
-24.96
-27.95
-29.96
-31.26
-32.19
-33.11
-34.26
-35.71
-37.35
-38.97
-40.37
-41.34
-41.64
-40.92
-38.73
-34.59
-28.18
-19.52
-9.05
2.36
13.64
23.85
32.43
39.35
45.03
50.03
54.70
58.89
61.87
62.47
59.46
52.09
40.49
25.71
9.54
-6.11
-19.63
-30.14
-37.38
-41.61
-43.27
-42.92
-41.21
-38.97
-37.08
-36.25
-36.82
-38.57
-40.89
-43.03
-44.45
-44.95
-44.72
-44.13
-43.53
-43.11
-42.82
-42.49
-41.90
-40.91
-39.52
-37.79
-35.87
-33.89
-32.01
-30.33
-28.93
-27.82
-26.88
-25.95
-24.83
-23.39
-21.67
-19.79
-17.96
-16.33
-14.97
-13.87
-13.00
-12.27
-11.64
-11.02
-10.35
-9.60
-8.77
-7.92
-7.09
-6.30
-5.50
-4.61
-3.57
-2.41
-1.24
-0.24
0.43
0.68
0.51
-0.03
-0.85
-1.88
-3.05
-4.26
-5.37
-6.29
-6.97
-7.46
-7.88
-8.35
-8.92
-9.52
-9.99
-10.14
-9.86
-9.16
-8.12
-6.90
-5.65
-4.49
-3.49
-2.72
-2.21
-1.95
-1.85
-1.78
-1.54
-0.99
-0.06
1.19
2.52
3.65
4.25
4.07
3.00
1.14
-1.24
-3.73
-5.83
-7.18
-7.60
-7.21
-6.36
-5.51
-5.09
-5.26
-5.98
-6.98
-7.93
-8.55
-8.66
-8.17
-7.11
-5.60
-3.78
-1.84
0.04
1.72
3.11
4.15
4.85
5.27
5.54
5.87
6.46
7.41
8.63
9.85
10.71
10.86
10.10
8.41
5.93
2.90
-0.38
-3.55
-6.32
-8.45
-9.86
-10.61
-10.96
-11.20
-11.59
-12.21
-12.94
-13.51
-13.60
-12.98
-11.61
-9.64
-7.36
-5.09
-3.10
-1.53
-0.41
0.37
0.99
1.69
2.70
4.16
6.06
8.13
9.94
10.97
10.81
9.34
6.86
4.01
1.62
0.41
0.68
2.18
4.13
5.52
5.52
3.81
0.72
-2.89
-5.98
-7.73
-7.81
-6.37
-3.95
-1.12
1.65
4.09
6.05
7.48
8.34
8.61
8.42
8.02
7.77
8.01
8.97
10.53
12.31
13.66
13.96
12.85
10.41
7.18
3.86
1.04
-1.07
-2.71
-4.32
-6.27
-8.55
-10.81
-12.55
-13.35
-13.14
-12.12
-10.69
-9.20
-7.84
-6.61
-5.43
-4.18
-2.74
-1.06
0.89
3.09
5.45
7.81
9.90
11.46
12.28
12.39
12.03
11.63
11.63
12.31
13.56
14.95
15.83
15.62
14.06
11.30
7.90
4.61
2.07
0.63
0.23
0.50
0.93
1.08
0.72
-0.12
-1.23
-2.30
-3.03
-3.23
-2.79
-1.73
-0.16
1.71
3.68
5.57
7.24
8.60
9.57
10.00
9.77
8.88
7.52
6.04
4.79
3.95
3.37
2.70
1.64
0.19
-1.28
-2.20
-2.13
-1.02
0.69
2.37
3.45
3.76
3.49
3.04
2.79
2.90
3.30
3.82
4.32
4.72
5.01
5.21
5.27
5.20
5.04
4.89
4.92
5.28
6.00
6.96
7.91
8.51
8.48
7.68
6.17
4.23
2.23
0.56
-0.49
-0.82
-0.48
0.28
1.19
1.96
2.42
2.50
2.26
1.83
1.35
0.97
0.76
0.76
0.95
1.30
1.74
2.13
2.32
2.16
1.57
0.65
-0.30
-0.92
-0.89
-0.07
1.36
2.98
4.29
4.89
4.66
3.77
2.63
1.68
1.24
1.42
2.12
3.08
4.02
4.70
5.00
4.87
4.39
3.73
3.03
2.47
2.15
2.12
2.37
2.89
3.58
4.29
4.81
4.88
4.38
3.38
2.21
1.41
1.49
2.65
4.70
7.06
9.00
9.94
9.71
8.61
7.19
6.03
5.52
5.72
6.45
7.38
8.23
8.81
9.03
8.93
8.56
8.01
7.38
6.72
6.07
5.44
4.77
4.01
3.09
1.95
0.59
-0.95
-2.57
-4.16
-5.62
-6.90
-8.00
-8.95
-9.75
-10.41
-10.86
-11.03
-10.87
-10.31
-9.37
-8.13
-6.70
-5.22
-3.85
-2.68
-1.75
-1.08
-0.63
-0.37
-0.25
-0.18
-0.02
0.36
1.09
2.16
3.42
4.58
5.33
5.39
4.67
3.33
1.73
0.40
-0.21
0.13
1.31
2.86
4.15
4.62
4.02
2.51
0.60
-1.07
-1.98
-1.91
-0.99
0.44
1.95
3.25
4.23
4.91
5.42
5.82
6.10
6.22
6.11
5.76
5.22
4.57
3.90
3.21
2.49
1.66
0.71
-0.30
-1.27
-2.07
-2.63
-3.03
-3.43
-4.02
-4.90
-6.01
-7.17
-8.10
-8.54
-8.40
-7.70
-6.65
-5.50
-4.49
-3.74
-3.26
-2.92
-2.50
-1.85
-0.89
0.26
1.42
2.35
2.94
3.24
3.41
3.62
3.98
4.44
4.92
5.26
5.34
5.08
4.43
3.44
2.29
1.29
0.76
0.91
1.63
2.48
2.89
2.40
0.97
-0.98
-2.72
-3.58
-3.23
-1.78
0.28
2.39
4.13
5.29
5.91
6.08
5.92
5.55
5.11
4.80
4.78
5.12
5.76
6.48
7.00
7.04
6.48
5.32
3.73
1.93
0.17
-1.31
-2.38
-3.00
-3.28
-3.48
-3.90
-4.73
-5.96
-7.35
-8.51
-9.08
-8.88
-7.98
-6.66
-5.23
-3.96
-2.97
-2.25
-1.73
-1.31
-0.90
-0.42
0.21
0.98
1.87
2.77
3.57
4.19
4.52
4.54
4.22
3.59
2.78
1.98
1.46
1.40
1.79
2.42
2.90
2.90
2.24
1.04
-0.36
-1.55
-2.23
-2.32
-1.91
-1.23
-0.45
0.33
1.08
1.79
2.41
2.87
3.11
3.13
3.01
2.87
2.82
2.93
3.23
3.70
4.24
4.70
4.81
4.23
2.72
0.24
-2.90
-6.10
-8.68
-10.16
-10.44
-9.85
-8.96
-8.36
-8.32
-8.74
-9.26
-9.42
-8.92
-7.74
-6.10
-4.35
-2.78
-1.55
-0.70
-0.11
0.32
0.67
0.99
1.32
1.69
2.18
2.81
3.57
4.36
5.05
5.58
5.98
6.37
6.93
7.75
8.76
9.65
10.03
9.56
8.06
5.70
2.87
0.12
-2.07
-3.39
-3.82
-3.55
-2.91
-2.22
-1.71
-1.48
-1.50
-1.67
-1.85
-1.98
-2.03
-2.05
-2.06
-2.07
-2.06
-1.97
-1.80
-1.53
-1.24
-1.02
-0.99
-1.23
-1.77
-2.52
-3.31
-3.96
-4.34
-4.50
-4.61
-4.94
-5.62
-6.59
-7.52
-7.98
-7.65
-6.48
-4.75
-2.94
-1.53
-0.79
-0.67
-0.88
-1.02
-0.78
-0.05
1.07
2.31
3.40
4.15
4.52
4.58
4.47
4.34
4.33
4.54
5.04
5.81
6.75
7.62
8.09
7.89
6.88
5.20
3.20
1.36
0.06
-0.51
-0.41
0.10
0.69
1.13
1.29
1.22
1.05
0.89
0.77
0.65
0.44
0.09
-0.36
-0.77
-1.01
-1.01
-0.81
-0.60
-0.53
-0.75
-1.28
-2.05
-2.98
-3.94
-4.78
-5.33
-5.48
-5.25
-4.82
-4.49
-4.54
-5.08
-5.95
-6.79
-7.20
-6.95
-6.03
-4.66
-3.15
-1.77
-0.68
0.09
0.59
0.92
1.18
1.47
1.84
2.28
2.75
3.20
3.58
3.88
4.09
4.23
4.29
4.29
4.26
4.28
4.42
4.69
4.99
5.11
4.86
4.17
3.15
2.10
1.33
1.05
1.21
1.57
1.80
1.64
1.05
0.13
-0.91
-1.94
-2.88
-3.72
-4.42
-4.87
-4.93
-4.53
-3.78
-2.89
-2.13
-1.68
-1.51
-1.46
-1.33
-1.00
-0.54
-0.14
-0.02
-0.31
-0.96
-1.81
-2.63
-3.28
-3.74
-4.05
-4.27
-4.37
-4.27
-3.92
-3.32
-2.59
-1.90
-1.43
-1.29
-1.43
-1.75
-2.07
-2.25
-2.20
-1.87
-1.27
-0.44
0.56
1.65
2.75
3.76
4.54
4.95
4.87
4.36
3.64
3.07
2.94
3.30
3.89
4.16
3.65
2.17
-0.01
-2.23
-3.79
-4.21
-3.49
-2.06
-0.53
0.59
1.08
1.02
0.69
0.33
0.10
-0.03
-0.12
-0.20
-0.25
-0.16
0.12
0.54
0.91
1.01
0.65
-0.17
-1.26
-2.29
-2.94
-3.10
-2.94
-2.86
-3.29
-4.45
-6.21
-8.08
-9.47
-9.95
-9.45
-8.28
-6.95
-5.85
-5.12
-4.63
-4.10
-3.37
-2.45
-1.49
-0.66
0.02
0.64
1.34
2.17
2.99
3.57
3.70
3.33
2.62
1.88
1.37
1.25
1.51
2.06
2.77
3.57
4.37
5.02
5.35
5.24
4.72
4.03
3.48
3.35
3.70
4.31
4.84
4.95
4.51
3.62
2.52
1.48
0.70
0.25
0.12
0.28
0.64
1.08
1.47
1.68
1.66
1.41
0.97
0.38
-0.35
-1.19
-2.05
-2.80
-3.27
-3.45
-3.48
-3.61
-4.06
-4.84
-5.69
-6.20
-6.01
-5.01
-3.42
-1.67
-0.17
0.86
1.44
1.80
2.17
2.68
3.31
3.94
4.47
4.84
5.12
5.45
5.93
6.55
7.16
7.55
7.59
7.27
6.74
6.23
5.88
5.69
5.55
5.34
5.01
4.66
4.39
4.19
3.90
3.31
2.30
0.98
-0.31
-1.15
-1.26
-0.70
0.20
1.04
1.55
1.72
1.75
1.90
2.25
2.71
3.04
3.04
2.63
1.91
1.06
0.22
-0.58
-1.40
-2.29
-3.24
-4.24
-5.26
-6.35
-7.59
-8.96
-10.37
-11.58
-12.32
-12.46
-12.03
-11.27
-10.49
-9.90
-9.53
-9.19
-8.62
-7.56
-5.96
-3.98
-1.97
-0.27
0.90
1.56
1.93
2.32
2.95
3.90
5.07
6.33
7.52
8.59
9.54
10.37
11.07
11.57
11.82
11.81
11.58
11.22
10.72
10.03
8.92
7.15
4.61
1.43
-1.98
-5.02
-7.15
-8.08
-7.91
-7.03
-5.92
-4.95
-4.24
-3.72
-3.22
-2.65
-2.01
-1.42
-0.99
-0.74
-0.64
-0.60
-0.59
-0.64
-0.83
-1.18
-1.62
-2.00
-2.21
-2.31
-2.53
-3.09
-4.13
-5.51
-6.94
-8.09
-8.81
-9.19
-9.44
-9.69
-9.91
-9.90
-9.42
-8.42
-7.06
-5.61
-4.33
-3.32
-2.53
-1.76
-0.87
0.22
1.45
2.71
3.85
4.79
5.48
5.96
6.26
6.47
6.65
6.84
7.07
7.35
7.68
7.96
8.09
7.90
7.27
6.18
4.74
3.15
1.68
0.55
-0.09
-0.24
0.02
0.51
1.11
1.69
2.17
2.51
2.67
2.67
2.51
2.32
2.24
2.42
2.94
3.75
4.65
5.39
5.78
5.74
5.34
4.59
3.46
1.80
-0.45
-3.19
-6.08
-8.68
-10.72
-12.25
-13.60
-15.15
-17.04
-19.00
-20.44
-20.81
-19.86
-17.83
-15.25
-12.68
-10.46
-8.64
-7.05
-5.48
-3.85
-2.16
-0.47
1.21
2.93
4.72
6.55
8.30
9.77
10.83
11.42
11.62
11.57
11.39
11.11
10.68
10.02
9.04
7.77
6.28
4.75
3.32
2.15
1.32
0.84
0.66
0.66
0.74
0.82
0.89
0.96
1.06
1.22
1.41
1.60
1.73
1.79
1.77
1.70
1.52
1.19
0.65
-0.11
-0.99
-1.85
-2.52
-2.94
-3.11
-3.11
-3.02
-2.86
-2.59
-2.20
-1.72
-1.28
-1.03
-1.09
-1.44
-1.91
-2.23
-2.16
-1.56
-0.53
0.66
1.67
2.27
2.32
1.91
1.19
0.35
-0.41
-0.99
-1.30
-1.29
-0.94
-0.30
0.53
1.42
2.22
2.80
3.07
2.99
2.64
2.19
1.87
1.86
2.18
2.66
2.98
2.84
2.08
0.77
-0.84
-2.42
-3.66
-4.37
-4.50
-4.14
-3.47
-2.76
-2.23
-2.05
-2.21
-2.56
-2.84
-2.80
-2.31
-1.38
-0.18
1.07
2.13
2.83
3.10
3.00
2.67
2.28
1.99
1.89
2.02
2.29
2.53
2.54
2.06
1.00
-0.59
-2.42
-4.05
-5.13
-5.48
-5.25
-4.76
-4.36
-4.18
-4.16
-4.12
-3.92
-3.59
-3.31
-3.21
-3.28
-3.35
-3.19
-2.64
-1.73
-0.65
0.36
1.14
1.65
1.95
2.10
2.13
2.04
1.88
1.78
1.94
2.52
3.47
4.49
5.16
5.08
4.14
2.57
0.83
-0.55
-1.24
-1.18
-0.57
0.27
1.03
1.52
1.69
1.59
1.36
1.13
1.02
1.05
1.16
1.17
0.92
0.32
-0.65
-1.84
-3.13
-4.35
-5.44
-6.30
-6.87
-7.04
-6.79
-6.16
-5.35
-4.66
-4.32
-4.43
-4.82
-5.19
-5.23
-4.78
-3.94
-2.96
-2.14
-1.61
-1.36
-1.20
-0.91
-0.38
0.34
1.12
1.82
2.38
2.87
3.43
4.16
5.05
5.95
6.67
7.02
6.98
6.61
6.07
5.51
5.02
4.66
4.43
4.28
4.09
3.68
2.86
1.59
0.01
-1.49
-2.43
-2.46
-1.53
0.10
1.99
3.71
5.02
5.91
6.45
6.69
6.65
6.27
5.53
4.51
3.38
2.30
1.38
0.63
-0.03
-0.68
-1.39
-2.13
-2.83
-3.40
-3.77
-3.91
-3.90
-3.87
-4.02
-4.45
-5.16
-5.94
-6.43
-6.31
-5.46
-4.02
-2.36
-0.91
0.08
0.62
0.88
1.10
1.37
1.62
1.73
1.63
1.46
1.50
2.00
3.05
4.46
5.86
6.83
7.12
6.72
5.86
4.93
4.32
4.25
4.70
5.44
6.06
6.16
5.47
3.95
1.79
-0.57
-2.67
-4.07
-4.56
-4.18
-3.22
-2.13
-1.28
-0.85
-0.78
-0.81
-0.65
-0.21
0.40
0.93
1.15
1.00
0.60
0.13
-0.32
-0.79
-1.43
-2.35
-3.46
-4.53
-5.30
-5.66
-5.72
-5.75
-6.02
-6.63
-7.43
-8.18
-8.67
-8.89
-8.96
-9.06
-9.24
-9.34
-9.12
-8.37
-7.04
-5.30
-3.44
-1.74
-0.35
0.73
1.62
2.46
3.43
4.64
6.17
7.97
9.92
11.81
13.43
14.65
15.40
15.73
15.76
15.60
15.39
15.24
15.12
14.87
14.10
12.35
9.28
4.85
-0.54
-6.12
-11.06
-14.63
-16.53
-16.86
-16.00
-14.48
-12.74
-11.10
-9.77
-8.82
-8.22
-7.90
-7.68
-7.37
-6.83
-5.99
-4.89
-3.69
-2.62
-1.93
-1.78
-2.19
-3.05
-4.15
-5.26
-6.19
-6.83
-7.14
-7.10
-6.72
-6.09
-5.35
-4.76
-4.56
-4.88
-5.62
-6.48
-7.06
-7.02
-6.26
-4.92
-3.30
-1.69
-0.24
1.07
2.39
3.89
5.63
7.53
9.42
11.13
12.53
13.63
14.49
15.23
15.93
16.62
17.30
17.96
18.54
18.96
19.02
18.39
16.79
14.06
10.38
6.24
2.31
-0.85
-3.00
-4.27
-5.07
-5.84
-6.82
-8.00
-9.19
-10.16
-10.83
-11.19
-11.34
-11.34
-11.19
-10.84
-10.24
-9.39
-8.39
-7.40
-6.57
-5.99
-5.68
-5.59
-5.63
-5.76
-5.91
-6.03
-6.02
-5.75
-5.18
-4.37
-3.57
-3.06
-3.01
-3.41
-3.98
-4.32
-4.15
-3.40
-2.25
-0.99
0.12
0.96
1.58
2.10
2.65
3.30
4.03
4.78
5.46
6.04
6.50
6.91
7.32
7.77
8.24
8.69
9.12
9.59
10.19
10.98
11.81
12.35
12.16
10.92
8.63
5.62
2.47
-0.21
-2.03
-2.94
-3.16
-3.04
-2.91
-2.95
-3.17
-3.47
-3.73
-3.84
-3.71
-3.30
-2.60
-1.63
-0.52
0.57
1.43
1.93
2.04
1.87
1.62
1.47
1.52
1.71
1.85
1.69
0.99
-0.31
-2.09
-4.01
-5.68
-6.78
-7.22
-7.19
-7.02
-6.98
-7.17
-7.43
-7.48
-7.11
-6.27
-5.13
-3.95
-2.93
-2.18
-1.69
-1.43
-1.35
-1.40
-1.47
-1.45
-1.16
-0.52
0.44
1.61
2.79
3.79
4.45
4.69
4.51
4.04
3.52
3.31
3.71
4.84
6.51
8.20
9.28
9.22
7.85
5.46
2.69
0.30
-1.13
-1.39
-0.66
0.58
1.78
2.49
2.52
1.94
1.00
0.04
-0.71
-1.10
-1.14
-0.95
-0.69
-0.56
-0.75
-1.36
-2.38
-3.63
-4.82
-5.61
-5.78
-5.32
-4.49
-3.71
-3.43
-3.94
-5.24
-7.09
-9.02
-10.57
-11.38
-11.30
-10.43
-9.05
-7.52
-6.19
-5.27
-4.80
-4.59
-4.38
-3.87
-2.91
-1.50
0.17
1.85
3.34
4.52
5.43
6.12
6.65
7.06
7.29
7.33
7.19
6.92
6.61
6.31
6.06
5.86
5.69
5.49
5.19
4.73
4.10
3.32
2.51
1.82
1.39
1.34
1.66
2.25
2.95
3.59
4.05
4.28
4.29
4.11
3.75
3.21
2.50
1.68
0.87
0.19
-0.22
-0.36
-0.35
-0.41
-0.81
-1.72
-3.16
-4.92
-6.68
-8.13
-9.15
-9.78
-10.24
-10.70
-11.22
-11.63
-11.68
-11.14
-9.97
-8.33
-6.49
-4.69
-3.05
-1.57
-0.20
1.03
2.02
2.69
3.04
3.21
3.47
4.06
5.07
6.36
7.62
8.48
8.73
8.35
7.54
6.57
5.75
5.34
5.49
6.17
7.16
8.06
8.38
7.75
6.12
3.84
1.52
-0.18
-0.82
-0.34
1.00
2.74
4.45
5.87
6.90
7.54
7.89
8.06
8.18
8.35
8.63
8.99
9.28
9.26
8.74
7.62
5.93
3.85
1.57
-0.66
-2.64
-4.14
-5.01
-5.24
-5.08
-5.07
-5.85
-7.84
-10.96
-14.52
-17.41
-18.61
-17.63
-14.77
-10.99
-7.44
-4.94
-3.71
-3.34
-3.21
-2.85
-2.15
-1.40
-0.94
-0.91
-1.09
-1.01
-0.24
1.30
3.27
5.04
5.97
5.75
4.49
2.70
1.05
0.15
0.34
1.52
3.23
4.75
5.41
4.79
2.94
0.36
-2.20
-4.08
-4.89
-4.65
-3.67
-2.37
-1.05
0.14
1.19
2.12
2.92
3.55
3.96
4.18
4.32
4.50
4.81
5.22
5.57
5.59
5.06
3.86
2.05
-0.15
-2.47
-4.72
-6.77
-8.59
-10.16
-11.40
-12.26
-12.73
-12.89
-12.92
-12.97
-13.06
-13.05
-12.70
-11.80
-10.32
-8.40
-6.29
-4.25
-2.44
-0.90
0.40
1.51
2.51
3.46
4.45
5.51
6.63
7.76
8.84
9.87
10.87
11.91
12.98
13.97
14.72
15.03
14.79
13.94
12.49
10.47
7.91
4.90
1.62
-1.66
-4.58
-6.81
-8.14
-8.57
-8.25
-7.51
-6.67
-5.97
-5.53
-5.27
-5.05
-4.75
-4.33
-3.85
-3.43
-3.14
-2.97
-2.85
-2.67
-2.42
-2.14
-1.93
-1.86
-1.92
-2.05
-2.16
-2.24
-2.37
-2.65
-3.11
-3.68
-4.17
-4.39
-4.26
-3.92
-3.66
-3.74
-4.27
-5.08
-5.78
-5.95
-5.34
-4.00
-2.27
-0.59
0.65
1.28
1.37
1.19
1.05
1.19
1.68
2.48
3.40
4.28
4.99
5.46
5.70
5.73
5.57
5.27
4.87
4.50
4.25
4.16
4.17
4.16
3.95
3.44
2.63
1.61
0.53
-0.45
-1.21
-1.69
-1.88
-1.81
-1.60
-1.36
-1.23
-1.28
-1.51
-1.82
-2.10
-2.26
-2.23
-2.04
-1.75
-1.45
-1.24
-1.18
-1.31
-1.60
-1.97
-2.28
-2.40
-2.21
-1.71
-1.03
-0.37
0.05
0.12
-0.15
-0.59
-0.98
-1.15
-1.04
-0.68
-0.17
0.37
0.88
1.33
1.71
2.05
2.43
2.93
3.64
4.57
5.69
6.88
8.02
9.02
9.85
10.52
11.05
11.43
11.65
11.73
11.75
11.87
12.20
12.78
13.48
14.02
14.11
13.53
12.24
10.39
8.23
6.00
3.85
1.82
-0.09
-1.86
-3.43
-4.68
-5.52
-5.99
-6.21
-6.33
-6.50
-6.75
-7.04
-7.29
-7.46
-7.47
-7.31
-6.91
-6.24
-5.37
-4.50
-3.90
-3.84
-4.42
-5.45
-6.53
-7.22
-7.20
-6.41
-4.99
-3.21
-1.24
0.81
3.00
5.39
8.05
10.93
13.89
16.75
19.29
21.40
22.98
23.97
24.23
23.60
21.97
19.31
15.68
11.15
5.72
-0.64
-7.87
-15.60
-23.13
-29.54
-34.01
-36.17
-36.29
-35.16
-33.76
-32.91
-32.98
-33.93
-35.36
-36.69
-37.33
-36.79
-34.70
-30.91
-25.41
-18.40
-10.27
-1.56
7.01
14.64
20.63
24.57
26.50
26.94
26.74
26.79
27.65
29.48
31.98
34.69
37.23
39.50
41.68
44.10
46.98
50.32
53.81
56.96
59.21
60.03
59.05
56.10
51.33
45.15
38.25
31.36
25.09
19.69
15.05
10.76
6.34
1.48
-3.89
-9.59
-15.33
-20.87
-26.12
-31.08
-35.80
-40.30
-44.55
-48.47
-51.99
-55.11
-57.92
-60.50
-62.90
-65.09
-66.94
-68.31
-69.11
-69.37
-69.18
-68.69
-67.91
-66.77
-65.13
-62.87
-60.02
-56.74
-53.31
-50.01
-47.07
-44.66
-42.82
-41.55
-40.72
-40.20
-39.85
-39.62
-39.50
-39.61
-40.05
-40.85
-41.93
-43.05
-43.85
-43.86
-42.57
-39.55
-34.53
-27.66
-19.55
-11.23
-3.90
1.42
4.22
4.61
3.24
1.04
-1.05
-2.18
-1.68
0.88
5.61
12.18
19.80
27.46
34.30
39.98
44.85
49.67
55.19
61.69
68.80
75.70
81.52
85.74
88.32
89.60
90.08
90.15
90.04
89.83
89.58
89.33
89.16
89.06
88.95
88.61
87.76
86.13
83.61
80.28
76.46
72.46
68.37
63.82
58.00
49.91
38.82
24.77
8.69
-7.91
-23.58
-37.51
-49.60
-59.99
-68.37
-73.64
-74.34
-69.39
-59.02
-45.00
-30.11
-17.00
-7.21
-0.72
3.47
6.53
9.17
11.48
13.09
13.74
13.49
12.84
12.42
12.56
13.15
13.80
14.18
13.99
12.97
11.02
8.35
5.56
3.16
1.51
0.78
1.07
1.95
2.60
2.22
0.55
-1.86
-4.33
-6.22
-6.97
-5.93
-2.87
1.84
7.27
12.00
14.49
12.84
5.61
-8.29
-26.25
-42.73
-52.43
-53.79
-50.62
-45.89
-41.28
-37.24
-33.49
-28.73
-23.01
-17.37
-13.23
-11.40
-11.33
-12.02
-12.40
-11.76
-9.78
-7.05
-4.62
-3.47
-3.85
-5.08
-6.26
-6.69
-5.99
-4.10
-1.49
1.10
2.89
3.49
3.06
1.88
0.34
-1.14
-2.11
-2.27
-1.55
-0.10
1.74
3.67
5.33
6.44
6.93
6.92
6.60
6.09
5.39
4.52
3.51
2.46
1.50
0.77
0.30
0.07
-0.04
-0.13
-0.27
-0.46
-0.65
-0.77
-0.79
-0.68
-0.48
-0.23
0.02
0.20
0.29
0.28
0.19
0.05
-0.07
-0.14
-0.15
-0.12
-0.07
-0.06
-0.08
-0.10
-0.08
0.02
0.19
0.38
0.52
0.56
0.49
0.35
0.22
0.16
0.19
0.29
0.42
0.50
0.53
0.54
0.58
0.68
0.82
0.92
0.90
0.71
0.41
0.12
-0.01
0.09
0.37
0.68
0.86
0.81
0.56
0.22
-0.03
-0.15
-0.17
-0.23
-0.44
-0.82
-1.27
-1.60
-1.66
-1.47
-1.17
-0.98
-1.12
-1.62
-2.38
-3.18
-3.79
-4.09
-4.04
-3.76
-3.36
-2.96
-2.65
-2.42
-2.27
-2.15
-2.05
-1.96
-1.94
-2.01
-2.15
-2.31
-2.40
-2.36
-2.19
-1.94
-1.68
-1.48
-1.34
-1.24
-1.16
-1.09
-1.08
-1.14
-1.27
-1.40
-1.47
-1.42
-1.24
-0.95
-0.58
-0.17
0.21
0.50
0.63
0.59
0.42
0.21
0.08
0.08
0.16
0.20
0.10
-0.14
-0.43
-0.60
-0.58
-0.40
-0.18
-0.09
-0.19
-0.42
-0.63
-0.70
-0.63
-0.48
-0.41
-0.50
-0.77
-1.14
-1.49
-1.70
-1.70
-1.48
-1.11
-0.68
-0.27
0.07
0.34
0.56
0.72
0.82
0.85
0.77
0.64
0.51
0.50
0.64
0.91
1.18
1.35
1.35
1.18
0.94
0.74
0.62
0.60
0.62
0.65
0.73
0.91
1.29
1.90
2.70
3.60
4.46
5.20
5.74
6.05
6.09
5.84
5.29
4.43
3.31
2.00
0.58
-0.88
-2.33
-3.76
-5.21
-6.65
-8.03
-9.22
-10.09
-10.53
-10.54
-10.25
-9.81
-9.39
-9.06
-8.85
-8.75
-8.76
-8.86
-9.02
-9.13
-9.06
-8.72
-8.06
-7.19
-6.24
-5.35
-4.58
-3.94
-3.39
-2.94
-2.56
-2.24
-1.91
-1.45
-0.79
0.05
0.96
1.74
2.23
2.37
2.27
2.07
1.91
1.83
1.79
1.68
1.48
1.23
1.07
1.08
1.29
1.60
1.83
1.86
1.71
1.48
1.34
1.40
1.67
2.04
2.38
2.60
2.69
2.70
2.72
2.81
2.98
3.16
3.33
3.43
3.48
3.51
3.56
3.60
3.60
3.46
3.18
2.77
2.38
2.14
2.14
2.37
2.72
3.04
3.17
3.05
2.67
2.13
1.53
0.99
0.63
0.54
0.76
1.27
2.00
2.82
3.56
4.04
4.12
3.71
2.82
1.57
0.11
-1.37
-2.75
-3.94
-4.93
-5.78
-6.54
-7.26
-7.94
-8.56
-9.03
-9.28
-9.24
-8.92
-8.41
-7.86
-7.44
-7.20
-7.11
-7.04
-6.87
-6.51
-5.97
-5.31
-4.58
-3.81
-2.97
-2.01
-0.95
0.18
1.24
2.13
2.77
3.16
3.35
3.45
3.55
3.69
3.83
3.92
3.93
3.82
3.62
3.37
3.09
2.80
2.51
2.25
2.03
1.88
1.77
1.66
1.47
1.19
0.83
0.45
0.12
-0.12
-0.26
-0.29
-0.23
-0.07
0.18
0.50
0.85
1.19
1.48
1.75
2.03
2.34
2.69
2.99
3.18
3.20
3.06
2.80
2.48
2.16
1.87
1.61
1.39
1.21
1.08
0.96
0.84
0.71
0.56
0.42
0.30
0.14
-0.12
-0.56
-1.17
-1.84
-2.38
-2.66
-2.61
-2.30
-1.85
-1.40
-1.00
-0.64
-0.28
0.09
0.41
0.59
0.56
0.35
0.04
-0.22
-0.33
-0.29
-0.15
-0.01
0.06
0.04
-0.03
-0.11
-0.15
-0.17
-0.21
-0.31
-0.46
-0.63
-0.75
-0.78
-0.72
-0.66
-0.69
-0.88
-1.22
-1.59
-1.82
-1.74
-1.28
-0.50
0.43
1.33
2.10
2.75
3.38
4.05
4.75
5.33
5.62
5.47
4.88
3.97
2.96
2.02
1.23
0.53
-0.15
-0.87
-1.63
-2.32
-2.87
-3.24
-3.56
-3.97
-4.62
-5.51
-6.48
-7.28
-7.67
-7.59
-7.12
-6.44
-5.72
-4.99
-4.17
-3.14
-1.84
-0.37
1.04
2.15
2.80
3.01
2.95
2.86
2.90
3.10
3.37
3.57
3.61
3.55
3.49
3.53
3.68
3.82
3.84
3.69
3.42
3.15
2.99
2.94
2.91
2.80
2.57
2.27
1.99
1.83
1.79
1.83
1.93
2.06
2.23
2.43
2.62
2.73
2.72
2.59
2.43
2.34
2.35
2.46
2.59
2.66
2.60
2.40
2.10
1.73
1.33
0.88
0.37
-0.20
-0.80
-1.40
-1.95
-2.44
-2.88
-3.30
-3.76
-4.26
-4.81
-5.37
-5.92
-6.45
-6.99
-7.59
-8.27
-8.98
-9.58
-9.83
-9.54
-8.61
-7.14
-5.41
-3.75
-2.44
-1.53
-0.94
-0.43
0.18
0.95
1.82
2.68
3.40
3.93
4.28
4.45
4.46
4.33
4.09
3.80
3.54
3.37
3.27
3.19
3.05
2.76
2.32
1.79
1.24
0.73
0.27
-0.16
-0.57
-0.96
-1.26
-1.42
-1.39
-1.18
-0.82
-0.36
0.14
0.61
0.99
1.28
1.49
1.68
1.93
2.29
2.72
3.11
3.32
3.25
2.93
2.48
2.06
1.75
1.59
1.47
1.31
1.04
0.70
0.35
0.08
-0.12
-0.25
-0.40
-0.60
-0.82
-1.01
-1.15
-1.23
-1.31
-1.46
-1.69
-1.96
-2.17
-2.21
-2.02
-1.59
-0.98
-0.29
0.41
1.06
1.60
2.00
2.24
2.35
2.35
2.29
2.19
2.04
1.84
1.63
1.47
1.42
1.49
1.64
1.78
1.83
1.77
1.63
1.44
1.21
0.94
0.63
0.31
0.07
-0.06
-0.09
-0.11
-0.27
-0.65
-1.19
-1.76
-2.14
-2.16
-1.76
-1.02
-0.09
0.85
1.64
2.24
2.65
2.92
3.13
3.28
3.36
3.33
3.19
2.98
2.77
2.62
2.56
2.51
2.36
1.98
1.31
0.38
-0.70
-1.79
-2.75
-3.49
-4.02
-4.37
-4.62
-4.80
-4.94
-5.04
-5.10
-5.15
-5.23
-5.35
-5.51
-5.66
-5.70
-5.53
-5.09
-4.37
-3.43
-2.39
-1.35
-0.40
0.37
0.96
1.35
1.61
1.78
1.94
2.11
2.27
2.38
2.39
2.29
2.14
1.98
1.87
1.82
1.80
1.78
1.75
1.73
1.74
1.74
1.66
1.41
0.96
0.36
-0.25
-0.72
-0.97
-1.05
-1.10
-1.26
-1.57
-1.93
-2.19
-2.19
-1.91
-1.44
-0.92
-0.47
-0.10
0.28
0.74
1.31
1.95
2.53
2.92
3.05
2.91
2.57
2.15
1.76
1.48
1.37
1.41
1.53
1.63
1.66
1.59
1.42
1.20
0.93
0.62
0.26
-0.14
-0.52
-0.82
-1.01
-1.14
-1.29
-1.54
-1.94
-2.42
-2.85
-3.08
-3.03
-2.74
-2.30
-1.81
-1.28
-0.71
-0.04
0.70
1.39
1.87
2.04
1.93
1.68
1.48
1.47
1.62
1.78
1.81
1.65
1.38
1.15
1.04
1.06
1.09
1.01
0.74
0.34
-0.09
-0.48
-0.80
-1.10
-1.42
-1.76
-2.04
-2.21
-2.22
-2.13
-2.03
-2.00
-2.10
-2.27
-2.44
-2.46
-2.26
-1.81
-1.17
-0.45
0.21
0.72
1.06
1.28
1.42
1.55
1.66
1.72
1.70
1.62
1.51
1.43
1.40
1.38
1.32
1.18
0.97
0.70
0.42
0.13
-0.17
-0.48
-0.78
-1.00
-1.12
-1.14
-1.11
-1.13
-1.30
-1.64
-2.11
-2.56
-2.85
-2.83
-2.49
-1.88
-1.15
-0.44
0.11
0.48
0.67
0.75
0.81
0.93
1.15
1.49
1.91
2.30
2.55
2.54
2.28
1.83
1.34
0.94
0.74
0.72
0.84
1.04
1.23
1.36
1.39
1.27
0.99
0.56
0.00
-0.62
-1.26
-1.84
-2.28
-2.55
-2.65
-2.63
-2.54
-2.50
-2.53
-2.63
-2.68
-2.56
-2.18
-1.51
-0.66
0.20
0.91
1.36
1.58
1.69
1.87
2.19
2.62
3.01
3.15
2.94
2.41
1.74
1.14
0.80
0.73
0.83
0.93
0.87
0.64
0.33
0.03
-0.19
-0.35
-0.53
-0.79
-1.09
-1.36
-1.52
-1.59
-1.67
-1.91
-2.37
-2.98
-3.52
-3.74
-3.48
-2.76
-1.75
-0.72
0.13
0.73
1.14
1.51
1.91
2.35
2.75
3.02
3.08
2.94
2.66
2.34
2.07
1.88
1.79
1.75
1.66
1.45
1.09
0.63
0.17
-0.13
-0.21
-0.11
0.03
0.02
-0.25
-0.77
-1.41
-2.00
-2.43
-2.71
-2.90
-3.07
-3.21
-3.26
-3.09
-2.64
-1.94
-1.09
-0.23
0.54
1.20
1.75
2.19
2.53
2.74
2.82
2.77
2.62
2.43
2.22
2.01
1.83
1.67
1.53
1.40
1.27
1.16
1.09
1.09
1.18
1.33
1.46
1.49
1.34
1.02
0.57
0.08
-0.40
-0.85
-1.26
-1.65
-1.97
-2.16
-2.12
-1.76
-1.07
-0.12
0.95
1.93
2.65
3.00
2.93
2.46
1.64
0.56
-0.68
-1.95
-3.12
-4.09
-4.79
-5.20
-5.35
-5.33
-5.19
-4.96
-4.62
-4.14
-3.50
-2.76
-2.06
-1.53
-1.27
-1.24
-1.33
-1.39
-1.34
-1.20
-1.10
-1.18
-1.49
-1.96
-2.42
-2.71
-2.69
-2.37
-1.79
-1.05
-0.21
0.66
1.53
2.34
3.02
3.51
3.79
3.89
3.86
3.78
3.73
3.71
3.75
3.83
3.97
4.16
4.38
4.56
4.66
4.62
4.44
4.19
3.92
3.67
3.42
3.09
2.66
2.13
1.55
0.96
0.36
-0.29
-1.04
-1.92
-2.87
-3.80
-4.57
-5.06
-5.23
-5.06
-4.58
-3.83
-2.86
-1.75
-0.61
0.44
1.28
1.86
2.18
2.31
2.36
2.42
2.52
2.64
2.74
2.78
2.73
2.64
2.57
2.55
2.57
2.60
2.59
2.50
2.28
1.94
1.47
0.92
0.35
-0.22
-0.76
-1.27
-1.74
-2.15
-2.51
-2.82
-3.15
-3.55
-4.04
-4.58
-5.06
-5.31
-5.22
-4.78
-4.05
-3.18
-2.28
-1.42
-0.60
0.20
0.99
1.74
2.38
2.87
3.17
3.31
3.35
3.36
3.37
3.42
3.50
3.60
3.66
3.63
3.46
3.11
2.62
2.06
1.53
1.09
0.75
0.44
0.08
-0.38
-0.90
-1.43
-1.89
-2.30
-2.70
-3.18
-3.77
-4.43
-5.04
-5.44
-5.55
-5.35
-4.90
-4.29
-3.57
-2.76
-1.85
-0.87
0.11
0.95
1.56
1.88
1.93
1.84
1.75
1.74
1.82
1.97
2.11
2.22
2.27
2.25
2.16
1.99
1.72
1.39
1.01
0.62
0.23
-0.16
-0.56
-0.97
-1.38
-1.76
-2.09
-2.35
-2.52
-2.61
-2.63
-2.62
-2.62
-2.65
-2.70
-2.68
-2.51
-2.13
-1.52
-0.72
0.19
1.15
2.11
3.02
3.80
4.40
4.75
4.84
4.71
4.45
4.10
3.70
3.29
2.90
2.59
2.43
2.42
2.48
2.49
2.36
2.04
1.60
1.15
0.79
0.55
0.37
0.19
-0.07
-0.46
-1.00
-1.69
-2.50
-3.35
-4.14
-4.74
-5.06
-5.06
-4.77
-4.23
-3.52
-2.67
-1.75
-0.81
0.10
0.92
1.65
2.27
2.73
2.97
2.94
2.70
2.38
2.17
2.22
2.55
3.01
3.38
3.46
3.18
2.61
1.92
1.28
0.80
0.50
0.34
0.29
0.27
0.23
0.11
-0.10
-0.39
-0.68
-0.92
-1.13
-1.40
-1.83
-2.49
-3.31
-4.15
-4.79
-5.12
-5.11
-4.84
-4.39
-3.78
-3.02
-2.09
-1.03
0.02
0.92
1.59
2.07
2.44
2.79
3.13
3.38
3.46
3.38
3.20
3.03
2.95
2.94
2.91
2.79
2.53
2.18
1.82
1.48
1.19
0.93
0.68
0.48
0.34
0.28
0.24
0.16
-0.00
-0.27
-0.64
-1.10
-1.67
-2.37
-3.16
-3.94
-4.55
-4.83
-4.67
-4.08
-3.15
-2.04
-0.89
0.17
1.07
1.80
2.35
2.75
3.03
3.24
3.43
3.62
3.79
3.90
3.85
3.61
3.18
2.65
2.11
1.64
1.28
1.01
0.81
0.62
0.44
0.23
-0.04
-0.36
-0.69
-0.98
-1.18
-1.36
-1.61
-2.04
-2.69
-3.46
-4.18
-4.70
-4.95
-4.93
-4.70
-4.31
-3.74
-3.01
-2.12
-1.16
-0.24
0.56
1.23
1.79
2.27
2.69
3.04
3.29
3.43
3.46
3.40
3.25
3.03
2.73
2.37
1.98
1.61
1.30
1.05
0.82
0.58
0.28
-0.10
-0.55
-1.00
-1.42
-1.79
-2.14
-2.51
-2.93
-3.37
-3.76
-4.01
-4.06
-3.92
-3.59
-3.14
-2.60
-2.00
-1.36
-0.70
-0.04
0.59
1.14
1.61
1.97
2.21
2.35
2.40
2.38
2.30
2.20
2.09
1.99
1.89
1.78
1.59
1.30
0.91
0.52
0.22
0.10
0.15
0.27
0.31
0.11
-0.37
-1.05
-1.81
-2.49
-3.04
-3.47
-3.83
-4.17
-4.44
-4.60
-4.57
-4.33
-3.85
-3.17
-2.30
-1.29
-0.19
0.88
1.81
2.53
3.00
3.26
3.39
3.45
3.46
3.43
3.36
3.25
3.12
2.94
2.69
2.36
1.96
1.55
1.20
0.99
0.90
0.89
0.81
0.58
0.16
-0.42
-1.05
-1.61
-2.05
-2.39
-2.70
-3.03
-3.41
-3.79
-4.06
-4.10
-3.85
-3.31
-2.55
-1.67
-0.76
0.16
1.06
1.95
2.76
3.37
3.65
3.51
3.01
2.32
1.67
1.25
1.12
1.22
1.41
1.59
1.67
1.67
1.63
1.53
1.34
1.01
0.52
-0.08
-0.68
-1.17
-1.50
-1.72
-1.87
-2.05
-2.29
-2.58
-2.92
-3.31
-3.76
-4.30
-4.86
-5.33
-5.57
-5.46
-4.97
-4.15
-3.12
-1.99
-0.85
0.26
1.30
2.25
3.05
3.68
4.11
4.35
4.40
4.33
4.17
3.97
3.80
3.65
3.51
3.35
3.13
2.84
2.53
2.24
2.03
1.91
1.81
1.66
1.40
1.03
0.57
0.09
-0.36
-0.78
-1.16
-1.51
-1.87
-2.26
-2.73
-3.31
-3.99
-4.71
-5.35
-5.75
-5.81
-5.48
-4.83
-3.99
-3.09
-2.19
-1.29
-0.34
0.68
1.71
2.64
3.35
3.78
3.96
3.98
3.94
3.89
3.83
3.72
3.56
3.38
3.23
3.13
3.07
2.96
2.75
2.42
2.03
1.64
1.26
0.91
0.52
0.07
-0.44
-0.97
-1.44
-1.80
-2.02
-2.14
-2.25
-2.43
-2.81
-3.42
-4.21
-5.01
-5.60
-5.76
-5.37
-4.47
-3.22
-1.82
-0.46
0.78
1.84
2.71
3.34
3.68
3.70
3.46
3.08
2.75
2.61
2.69
2.88
3.00
2.90
2.57
2.09
1.64
1.35
1.24
1.22
1.16
1.00
0.72
0.40
0.09
-0.20
-0.52
-0.90
-1.39
-1.93
-2.47
-2.95
-3.38
-3.80
-4.27
-4.81
-5.32
-5.68
-5.72
-5.36
-4.60
-3.55
-2.35
-1.14
0.01
1.04
1.91
2.61
3.10
3.40
3.56
3.64
3.71
3.76
3.75
3.62
3.36
3.03
2.74
2.58
2.59
2.69
2.76
2.67
2.38
1.93
1.43
0.95
0.50
0.01
-0.57
-1.20
-1.78
-2.19
-2.36
-2.38
-2.40
-2.60
-3.05
-3.70
-4.42
-5.03
-5.42
-5.53
-5.37
-4.96
-4.36
-3.59
-2.69
-1.67
-0.56
0.60
1.70
2.63
3.31
3.70
3.89
3.97
4.05
4.15
4.25
4.26
4.14
3.92
3.65
3.39
3.18
2.99
2.79
2.59
2.36
2.12
1.85
1.51
1.12
0.72
0.36
0.08
-0.15
-0.41
-0.76
-1.24
-1.80
-2.38
-2.95
-3.51
-4.11
-4.74
-5.36
-5.80
-5.92
-5.64
-4.98
-4.07
-3.06
-2.06
-1.14
-0.29
0.48
1.18
1.79
2.30
2.71
3.02
3.23
3.33
3.29
3.12
2.80
2.38
1.91
1.43
0.99
0.63
0.39
0.30
0.36
0.47
0.50
0.34
-0.05
-0.60
-1.14
-1.59
-1.93
-2.30
-2.90
-3.83
-5.09
-6.53
-7.98
-9.34
-10.64
-11.94
-13.27
-14.50
-15.37
-15.62
-15.12
-13.90
-12.08
-9.82
-7.25
-4.44
-1.57
1.11
3.28
4.76
5.59
6.03
6.45
7.11
8.02
8.94
9.58
9.73
9.38
8.66
7.73
6.67
5.44
3.96
2.19
0.20
-1.83
-3.68
-5.11
-5.97
-6.17
-5.68
-4.52
-2.82
-0.77
1.38
3.30
4.69
5.38
5.37
4.84
4.00
3.03
1.94
0.67
-0.81
-2.43
-3.95
-5.04
-5.49
-5.26
-4.50
-3.47
-2.39
-1.39
-0.45
0.55
1.72
3.16
4.91
6.89
8.92
10.78
12.24
13.24
13.89
14.47
15.33
16.72
18.71
21.18
23.78
25.96
27.12
26.74
24.68
21.25
17.11
13.08
9.74
7.20
5.15
3.09
0.67
-2.13
-4.95
-7.26
-8.62
-8.83
-7.93
-6.20
-4.12
-2.37
-1.63
-2.39
-4.69
-8.14
-12.13
-16.04
-19.55
-22.59
-25.14
-27.12
-28.26
-28.31
-27.27
-25.47
-23.46
-21.73
-20.47
-19.51
-18.54
-17.39
-16.19
-15.33
-15.14
-15.65
-16.54
-17.17
-16.76
-14.76
-10.91
-5.47
0.87
7.16
12.47
16.10
17.74
17.62
16.25
14.46
12.96
12.23
12.62
14.37
17.48
21.55
25.79
28.97
29.91
27.84
22.76
15.67
8.22
1.93
-2.34
-4.35
-4.49
-3.13
-0.61
1.71
2.67
1.87
-0.16
-2.46
-3.11
-1.97
0.58
3.90
7.31
9.83
11.29
12.02
12.58
13.75
15.79
18.63
21.82
24.79
27.30
29.42
31.14
30.42
25.97
17.80
7.71
-1.92
-9.35
-13.85
-15.73
-16.02
-15.65
-14.91
-13.87
-12.39
-10.51
-8.35
-6.23
-4.45
-3.17
-2.40
-1.85
-1.30
-0.74
-0.37
-0.44
-1.08
-2.19
-3.54
-5.00
-6.39
-7.65
-8.76
-9.68
-10.32
-10.59
-10.50
-10.12
-9.59
-8.96
-8.20
-7.25
-6.13
-4.92
-3.71
-2.57
-1.41
-0.07
1.56
3.39
5.09
6.26
6.60
6.13
5.19
4.28
3.78
3.78
4.05
4.19
3.91
3.12
2.00
0.86
-0.06
-0.71
-1.20
-1.72
-2.42
-3.31
-4.29
-5.16
-5.78
-6.07
-6.08
-5.87
-5.52
-5.04
-4.41
-3.56
-2.48
-1.23
0.05
1.21
2.15
2.85
3.33
3.60
3.62
3.32
2.66
1.69
0.56
-0.54
-1.44
-2.05
-2.39
-2.54
-2.56
-2.51
-2.41
-2.27
-2.11
-1.97
-1.86
-1.86
-2.02
-2.38
-2.95
-3.66
-4.39
-5.01
-5.38
-5.42
-5.12
-4.51
-3.63
-2.54
-1.30
-0.00
1.19
2.13
2.70
2.86
2.66
2.23
1.68
1.11
0.57
0.09
-0.29
-0.57
-0.76
-0.88
-0.99
-1.11
-1.26
-1.43
-1.62
-1.85
-2.13
-2.49
-2.93
-3.44
-4.01
-4.62
-5.19
-5.61
-5.73
-5.37
-4.40
-2.80
-0.63
1.97
4.84
7.78
10.57
12.99
14.81
15.87
15.99
15.10
13.21
10.48
7.20
3.70
0.30
-2.85
-5.80
-8.73
-11.84
-15.15
-18.47
-21.45
-23.75
-25.25
-26.15
-26.91
-28.11
-30.23
-33.58
-38.15
-43.62
-49.28
-53.98
-56.36
-55.14
-49.54
-39.67
-26.65
-12.34
1.17
12.11
19.48
23.12
23.56
21.66
18.40
14.68
11.24
8.57
6.88
6.04
5.69
5.35
4.65
3.43
1.76
-0.08
-1.77
-3.03
-3.66
-3.59
-2.82
-1.42
0.43
2.49
4.47
6.19
7.54
8.61
9.54
10.50
11.50
12.43
13.11
13.36
13.10
12.35
11.25
9.92
8.42
6.79
5.01
3.13
1.21
-0.64
-2.33
-3.84
-5.21
-6.47
-7.68
-8.85
-9.98
-11.08
-12.22
-13.48
-14.94
-16.60
-18.40
-20.20
-21.78
-22.97
-23.60
-23.58
-22.90
-21.67
-20.08
-18.37
-16.75
-15.37
-14.27
-13.39
-12.61
-11.78
-10.77
-9.44
-7.74
-5.70
-3.43
-1.13
0.98
2.84
4.44
5.93
7.46
9.07
10.72
12.28
13.66
14.84
15.83
16.69
17.41
17.98
18.45
18.94
19.70
20.99
22.96
25.53
28.42
31.20
33.43
34.74
35.01
34.29
32.83
30.97
29.03
27.28
25.85
24.73
23.83
23.04
22.20
21.24
20.12
18.87
17.60
16.47
15.60
15.02
14.67
14.42
14.10
13.59
12.87
12.01
11.09
10.16
9.15
7.87
6.16
3.98
1.52
-0.83
-2.65
-3.69
-4.00
-3.84
-3.53
-3.20
-2.76
-1.93
-0.44
1.74
4.40
7.18
9.70
11.71
13.03
13.62
13.50
12.89
12.16
11.77
12.03
12.96
14.24
15.31
15.68
15.06
13.51
11.29
8.74
6.15
3.72
1.60
-0.07
-1.18
-1.64
-1.49
-0.88
-0.08
0.62
0.97
0.84
0.29
-0.45
-1.13
-1.49
-1.45
-1.06
-0.49
0.12
0.66
1.09
1.41
1.62
1.71
1.64
1.40
1.05
0.70
0.51
0.57
0.86
1.24
1.45
1.26
0.52
-0.79
-2.54
-4.57
-6.73
-8.88
-10.87
-12.53
-13.69
-14.23
-14.16
-13.65
-12.88
-12.06
-11.28
-10.64
-10.17
-9.95
-10.00
-10.30
-10.74
-11.12
-11.21
-10.87
-10.05
-8.85
-7.43
-6.02
-4.78
-3.81
-3.15
-2.75
-2.57
-2.55
-2.65
-2.90
-3.29
-3.80
-4.37
-4.92
-5.36
-5.64
-5.73
-5.67
-5.49
-5.27
-5.07
-4.91
-4.75
-4.56
-4.29
-3.94
-3.60
-3.37
-3.34
-3.50
-3.74
-3.91
-3.90
-3.71
-3.39
-3.06
-2.78
-2.53
-2.28
-2.03
-1.85
-1.81
-2.00
-2.37
-2.79
-3.12
-3.26
-3.24
-3.15
-3.05
-2.98
-2.86
-2.60
-2.15
-1.53
-0.82
-0.11
0.54
1.11
1.59
1.97
2.17
2.14
1.87
1.44
0.99
0.66
0.54
0.57
0.66
0.66
0.48
0.12
-0.36
-0.86
-1.29
-1.59
-1.77
-1.83
-1.83
-1.85
-1.95
-2.20
-2.56
-2.95
-3.25
-3.38
-3.30
-3.08
-2.76
-2.37
-1.88
-1.26
-0.51
0.28
0.95
1.37
1.49
1.40
1.28
1.30
1.51
1.84
2.08
2.04
1.68
1.12
0.57
0.24
0.20
0.33
0.45
0.36
0.02
-0.48
-0.98
-1.32
-1.48
-1.51
-1.50
-1.53
-1.61
-1.68
-1.69
-1.62
-1.48
-1.27
-0.99
-0.64
-0.22
0.24
0.70
1.07
1.32
1.45
1.52
1.58
1.68
1.76
1.76
1.57
1.18
0.61
0.02
-0.44
-0.65
-0.60
-0.41
-0.23
-0.24
-0.49
-0.95
-1.52
-2.09
-2.56
-2.89
-3.06
-3.13
-3.14
-3.20
-3.37
-3.61
-3.81
-3.75
-3.27
-2.37
-1.21
-0.07
0.79
1.24
1.34
1.25
1.13
1.07
1.07
1.08
1.05
0.97
0.86
0.75
0.63
0.47
0.28
0.06
-0.13
-0.26
-0.31
-0.31
-0.30
-0.28
-0.24
-0.16
-0.05
0.00
-0.09
-0.43
-1.01
-1.73
-2.42
-2.89
-3.07
-2.99
-2.75
-2.47
-2.15
-1.75
-1.20
-0.49
0.29
0.99
1.47
1.67
1.64
1.49
1.32
1.15
0.96
0.71
0.40
0.09
-0.14
-0.24
-0.27
-0.30
-0.42
-0.65
-0.95
-1.23
-1.44
-1.59
-1.79
-2.12
-2.60
-3.12
-3.48
-3.52
-3.23
-2.74
-2.24
-1.88
-1.72
-1.65
-1.55
-1.32
-0.97
-0.59
-0.24
0.03
0.24
0.43
0.61
0.76
0.86
0.84
0.66
0.32
-0.12
-0.54
-0.79
-0.76
-0.42
0.11
0.65
0.98
0.98
0.69
0.25
-0.14
-0.34
-0.34
-0.26
-0.31
-0.59
-1.11
-1.69
-2.10
-2.13
-1.74
-1.01
-0.14
0.68
1.34
1.84
2.23
2.57
2.84
3.01
3.06
2.99
2.85
2.71
2.57
2.39
2.10
1.64
1.01
0.30
-0.39
-0.95
-1.31
-1.51
-1.62
-1.72
-1.87
-2.09
-2.35
-2.63
-2.91
-3.21
-3.54
-3.89
-4.24
-4.52
-4.67
-4.68
-4.53
-4.23
-3.77
-3.15
-2.36
-1.47
-0.57
0.25
0.91
1.40
1.78
2.09
2.35
2.52
2.50
2.28
1.89
1.45
1.10
0.94
0.97
1.12
1.29
1.38
1.38
1.28
1.13
0.94
0.73
0.51
0.28
0.08
-0.11
-0.28
-0.49
-0.79
-1.19
-1.67
-2.16
-2.55
-2.74
-2.64
-2.27
-1.69
-1.05
-0.48
-0.08
0.18
0.39
0.63
0.95
1.32
1.64
1.81
1.79
1.62
1.40
1.22
1.11
1.04
0.94
0.77
0.57
0.38
0.27
0.23
0.22
0.13
-0.07
-0.36
-0.66
-0.86
-0.94
-0.96
-1.03
-1.24
-1.65
-2.17
-2.70
-3.08
-3.24
-3.15
-2.85
-2.41
-1.90
-1.37
-0.86
-0.40
-0.01
0.28
0.48
0.64
0.82
1.05
1.34
1.63
1.83
1.90
1.83
1.69
1.59
1.60
1.74
1.94
2.11
2.17
2.07
1.84
1.53
1.18
0.84
0.50
0.14
-0.26
-0.73
-1.23
-1.72
-2.12
-2.36
-2.39
-2.20
-1.81
-1.27
-0.63
0.05
0.71
1.30
1.74
2.00
2.10
2.06
1.96
1.86
1.81
1.82
1.89
1.99
2.09
2.17
2.21
2.15
1.98
1.73
1.44
1.19
1.02
0.91
0.77
0.49
0.00
-0.71
-1.59
-2.53
-3.40
-4.12
-4.65
-4.98
-5.14
-5.15
-5.07
-4.91
-4.72
-4.52
-4.34
-4.21
-4.12
-4.03
-3.87
-3.56
-3.07
-2.41
-1.63
-0.86
-0.19
0.31
0.60
0.71
0.69
0.65
0.68
0.87
1.19
1.56
1.86
1.94
1.72
1.24
0.59
-0.05
-0.51
-0.71
-0.70
-0.60
-0.60
-0.81
-1.21
-1.67
-2.01
-2.10
-1.97
-1.72
-1.46
-1.22
-0.90
-0.40
0.33
1.19
1.99
2.53
2.76
2.74
2.64
2.60
2.67
2.82
2.98
3.08
3.13
3.15
3.16
3.15
3.06
2.83
2.44
1.89
1.28
0.70
0.26
-0.00
-0.14
-0.24
-0.40
-0.67
-1.04
-1.49
-1.95
-2.41
-2.86
-3.27
-3.56
-3.63
-3.41
-2.88
-2.14
-1.33
-0.62
-0.08
0.26
0.46
0.64
0.88
1.24
1.71
2.20
2.61
2.86
2.94
2.89
2.79
2.68
2.54
2.34
2.03
1.66
1.30
1.03
0.91
0.90
0.90
0.81
0.59
0.25
-0.15
-0.53
-0.88
-1.23
-1.65
-2.20
-2.88
-3.57
-4.10
-4.28
-4.03
-3.38
-2.45
-1.45
-0.52
0.26
0.88
1.34
1.69
1.93
2.10
2.23
2.36
2.47
2.54
2.49
2.28
1.95
1.60
1.36
1.27
1.32
1.40
1.40
1.28
1.08
0.86
0.68
0.51
0.27
-0.12
-0.64
-1.24
-1.79
-2.19
-2.47
-2.69
-2.92
-3.19
-3.42
-3.50
-3.36
-2.97
-2.38
-1.66
-0.87
-0.04
0.82
1.63
2.34
2.86
3.16
3.24
3.18
3.07
2.99
3.00
3.08
3.19
3.22
3.11
2.84
2.45
2.03
1.66
1.40
1.23
1.06
0.81
0.43
-0.05
-0.55
-0.98
-1.29
-1.54
-1.82
-2.23
-2.77
-3.32
-3.70
-3.74
-3.40
-2.76
-1.98
-1.23
-0.61
-0.13
0.26
0.59
0.88
1.17
1.46
1.77
2.09
2.41
2.69
2.90
3.03
3.08
3.06
2.94
2.69
2.30
1.81
1.32
0.95
0.77
0.77
0.83
0.82
0.66
0.33
-0.09
-0.51
-0.89
-1.28
-1.72
-2.29
-2.96
-3.63
-4.15
-4.42
-4.39
-4.12
-3.65
-3.04
-2.28
-1.38
-0.37
0.64
1.53
2.18
2.58
2.77
2.85
2.90
2.94
2.89
2.67
2.24
1.63
0.99
0.47
0.20
0.19
0.34
0.52
0.56
0.44
0.17
-0.16
-0.47
-0.72
-0.98
-1.30
-1.74
-2.30
-2.93
-3.53
-4.00
-4.24
-4.16
-3.76
-3.08
-2.23
-1.36
-0.57
0.09
0.65
1.17
1.71
2.24
2.68
2.97
3.07
3.02
2.89
2.73
2.57
2.40
2.16
1.84
1.47
1.11
0.78
0.49
0.20
-0.13
-0.53
-0.97
-1.41
-1.79
-2.09
-2.39
-2.79
-3.40
-4.21
-5.08
-5.79
-6.11
-5.94
-5.34
-4.48
-3.56
-2.69
-1.92
-1.20
-0.51
0.13
0.71
1.19
1.60
2.00
2.44
2.93
3.42
3.82
4.07
4.14
4.03
3.77
3.40
2.96
2.50
2.08
1.75
1.54
1.43
1.35
1.22
0.99
0.63
0.16
-0.42
-1.08
-1.79
-2.53
-3.22
-3.79
-4.16
-4.29
-4.17
-3.82
-3.27
-2.57
-1.76
-0.90
-0.07
0.66
1.26
1.71
2.03
2.27
2.45
2.59
2.70
2.73
2.62
2.32
1.83
1.20
0.55
0.04
-0.22
-0.20
0.01
0.30
0.50
0.49
0.23
-0.28
-0.95
-1.71
-2.46
-3.13
-3.64
-3.97
-4.08
-3.98
-3.68
-3.18
-2.53
-1.76
-0.95
-0.18
0.50
1.10
1.65
2.21
2.79
3.35
3.81
4.10
4.22
4.23
4.21
4.18
4.09
3.83
3.33
2.58
1.69
0.86
0.24
-0.07
-0.11
-0.01
0.07
-0.01
-0.36
-1.01
-1.93
-2.99
-4.03
-4.85
-5.29
-5.26
-4.77
-3.95
-3.00
-2.07
-1.23
-0.44
0.38
1.29
2.26
3.18
3.85
4.15
4.05
3.67
3.18
2.75
2.46
2.32
2.30
2.33
2.37
2.37
2.32
2.19
1.99
1.75
1.47
1.17
0.81
0.36
-0.14
-0.63
-0.99
-1.14
-1.13
-1.11
-1.29
-1.83
-2.71
-3.69
-4.45
-4.70
-4.31
-3.37
-2.13
-0.84
0.33
1.31
2.15
2.89
3.56
4.13
4.55
4.80
4.85
4.69
4.34
3.85
3.30
2.79
2.40
2.19
2.13
2.17
2.21
2.18
2.01
1.67
1.17
0.56
-0.08
-0.68
-1.23
-1.76
-2.34
-3.00
-3.72
-4.42
-4.98
-5.32
-5.42
-5.27
-4.87
-4.21
-3.30
-2.20
-1.01
0.14
1.15
2.03
2.78
3.44
3.98
4.35
4.52
4.52
4.43
4.32
4.24
4.17
4.06
3.84
3.52
3.13
2.70
2.28
1.87
1.46
1.08
0.78
0.62
0.61
0.72
0.84
0.80
0.49
-0.17
-1.13
-2.20
-3.12
-3.61
-3.51
-2.78
-1.57
-0.12
1.32
2.57
3.54
4.25
4.71
4.97
5.06
5.03
4.92
4.83
4.80
4.86
4.97
5.00
4.84
4.41
3.72
2.88
2.07
1.47
1.14
1.03
0.96
0.75
0.27
-0.43
-1.20
-1.88
-2.38
-2.75
-3.09
-3.55
-4.17
-4.91
-5.70
-6.42
-7.02
-7.49
-7.80
-7.87
-7.59
-6.85
-5.60
-3.92
-2.00
-0.07
1.64
3.01
3.97
4.58
4.91
5.10
5.25
5.43
5.66
5.90
6.04
5.97
5.61
4.96
4.13
3.33
2.72
2.42
2.41
2.56
2.68
2.58
2.12
1.30
0.16
-1.16
-2.51
-3.71
-4.62
-5.21
-5.54
-5.80
-6.17
-6.76
-7.56
-8.41
-9.09
-9.47
-9.51
-9.24
-8.72
-7.95
-6.88
-5.49
-3.84
-2.09
-0.49
0.77
1.58
2.02
2.28
2.59
3.09
3.75
4.43
4.92
5.10
4.99
4.72
4.45
4.27
4.15
3.97
3.63
3.12
2.51
1.93
1.43
1.00
0.55
0.03
-0.56
-1.17
-1.68
-2.07
-2.36
-2.65
-3.08
-3.69
-4.44
-5.18
-5.71
-5.90
-5.73
-5.26
-4.60
-3.84
-2.99
-2.05
-0.98
0.20
1.41
2.54
3.50
4.25
4.78
5.11
5.26
5.23
5.01
4.63
4.13
3.57
3.00
2.47
2.02
1.65
1.32
1.01
0.68
0.32
-0.01
-0.26
-0.37
-0.35
-0.26
-0.24
-0.43
-0.92
-1.77
-2.90
-4.16
-5.31
-6.13
-6.46
-6.29
-5.71
-4.86
-3.89
-2.85
-1.79
-0.73
0.28
1.18
1.93
2.58
3.25
4.01
4.84
5.59
6.00
5.91
5.29
4.32
3.25
2.34
1.70
1.30
1.02
0.72
0.31
-0.25
-0.90
-1.57
-2.15
-2.60
-2.89
-3.06
-3.20
-3.41
-3.78
-4.35
-5.10
-5.94
-6.71
-7.22
-7.31
-6.88
-5.96
-4.69
-3.25
-1.86
-0.64
0.36
1.16
1.84
2.46
3.06
3.64
4.14
4.45
4.50
4.28
3.86
3.41
3.09
3.02
3.19
3.47
3.66
3.61
3.26
2.62
1.83
1.02
0.26
-0.38
-0.93
-1.40
-1.82
-2.21
-2.63
-3.17
-3.90
-4.85
-5.96
-7.03
-7.80
-8.03
-7.59
-6.48
-4.88
-3.02
-1.16
0.54
2.01
3.22
4.17
4.87
5.29
5.48
5.47
5.35
5.21
5.09
4.97
4.79
4.46
3.97
3.33
2.66
2.08
1.68
1.45
1.31
1.13
0.83
0.42
-0.04
-0.45
-0.77
-1.04
-1.39
-1.93
-2.75
-3.80
-4.99
-6.18
-7.19
-7.90
-8.18
-7.97
-7.25
-6.09
-4.61
-2.96
-1.29
0.30
1.74
3.01
4.06
4.88
5.43
5.72
5.81
5.77
5.67
5.55
5.40
5.18
4.86
4.46
4.05
3.71
3.47
3.31
3.12
2.77
2.20
1.43
0.53
-0.33
-1.07
-1.64
-2.06
-2.47
-2.99
-3.72
-4.69
-5.82
-6.90
-7.72
-8.09
-7.89
-7.16
-5.98
-4.53
-2.96
-1.43
-0.04
1.12
2.01
2.66
3.13
3.49
3.80
4.08
4.28
4.36
4.27
4.05
3.75
3.45
3.20
2.97
2.69
2.30
1.74
1.02
0.21
-0.61
-1.36
-1.96
-2.39
-2.66
-2.84
-3.00
-3.27
-3.71
-4.35
-5.15
-6.00
-6.72
-7.14
-7.09
-6.52
-5.48
-4.16
-2.77
-1.48
-0.34
0.67
1.60
2.48
3.27
3.91
4.34
4.61
4.78
4.88
4.92
4.87
4.73
4.51
4.30
4.16
4.13
4.16
4.17
4.07
3.81
3.39
2.86
2.27
1.67
1.09
0.53
-0.01
-0.57
-1.16
-1.75
-2.37
-3.03
-3.79
-4.67
-5.67
-6.67
-7.45
-7.78
-7.47
-6.53
-5.11
-3.50
-1.92
-0.50
0.82
2.16
3.59
5.06
6.42
7.49
8.15
8.44
8.46
8.34
8.09
7.66
7.00
6.10
5.11
4.21
3.57
3.27
3.24
3.31
3.32
3.17
2.81
2.24
1.51
0.65
-0.28
-1.19
-1.97
-2.53
-2.85
-3.01
-3.15
-3.46
-4.08
-5.06
-6.36
-7.78
-9.06
-9.91
-10.11
-9.53
-8.27
-6.55
-4.66
-2.88
-1.34
-0.05
1.05
2.03
2.91
3.66
4.25
4.67
4.99
5.26
5.52
5.72
5.75
5.52
5.00
4.26
3.48
2.87
2.57
2.59
2.84
3.09
3.14
2.86
2.22
1.32
0.32
-0.62
-1.43
-2.12
-2.75
-3.40
-4.09
-4.83
-5.58
-6.34
-7.10
-7.84
-8.48
-8.87
-8.82
-8.20
-6.99
-5.34
-3.47
-1.61
0.09
1.59
2.88
3.95
4.74
5.19
5.28
5.11
4.85
4.70
4.74
4.93
5.11
5.10
4.78
4.17
3.41
2.66
2.04
1.58
1.17
0.70
0.12
-0.55
-1.19
-1.67
-1.95
-2.12
-2.38
-2.92
-3.81
-4.97
-6.19
-7.24
-7.96
-8.31
-8.30
-7.97
-7.30
-6.27
-4.88
-3.20
-1.35
0.50
2.18
3.62
4.74
5.56
6.08
6.31
6.31
6.14
5.90
5.65
5.45
5.28
5.11
4.88
4.55
4.16
3.77
3.43
3.15
2.89
2.53
2.00
1.31
0.52
-0.27
-0.96
-1.50
-1.89
-2.19
-2.51
-2.97
-3.71
-4.78
-6.12
-7.53
-8.70
-9.36
-9.31
-8.53
-7.14
-5.33
-3.30
-1.24
0.71
2.45
3.87
4.94
5.64
6.01
6.11
6.04
5.89
5.75
5.68
5.68
5.66
5.53
5.19
4.66
4.05
3.53
3.22
3.13
3.13
3.02
2.66
2.05
1.30
0.58
-0.02
-0.54
-1.11
-1.84
-2.73
-3.68
-4.54
-5.23
-5.80
-6.37
-7.02
-7.72
-8.30
-8.48
-8.10
-7.12
-5.71
-4.12
-2.58
-1.20
0.05
1.24
2.44
3.59
4.61
5.36
5.79
5.91
5.77
5.48
5.10
4.67
4.22
3.77
3.33
2.94
2.60
2.33
2.13
1.98
1.83
1.59
1.21
0.69
0.09
-0.49
-0.99
-1.42
-1.86
-2.40
-3.13
-4.05
-5.08
-6.12
-7.06
-7.81
-8.32
-8.52
-8.33
-7.72
-6.71
-5.35
-3.78
-2.14
-0.57
0.85
2.08
3.12
3.96
4.58
4.96
5.09
4.99
4.73
4.38
4.03
3.75
3.55
3.43
3.36
3.29
3.22
3.13
3.02
2.85
2.56
2.11
1.48
0.70
-0.13
-0.90
-1.53
-2.00
-2.36
-2.73
-3.27
-4.10
-5.25
-6.64
-8.04
-9.15
-9.66
-9.42
-8.43
-6.90
-5.11
-3.36
-1.79
-0.41
0.87
2.12
3.35
4.47
5.35
5.92
6.17
6.23
6.22
6.23
6.26
6.22
6.07
5.78
5.40
5.02
4.71
4.50
4.37
4.27
4.13
3.86
3.38
2.63
1.64
0.51
-0.59
-1.49
-2.10
-2.46
-2.71
-2.99
-3.40
-3.98
-4.72
-5.60
-6.56
-7.53
-8.35
-8.86
-8.87
-8.30
-7.17
-5.62
-3.83
-1.95
-0.13
1.53
2.97
4.12
5.00
5.67
6.19
6.60
6.90
7.03
6.97
6.75
6.45
6.15
5.86
5.54
5.16
4.73
4.30
3.96
3.69
3.45
3.11
2.64
2.05
1.48
0.99
0.58
0.18
-0.34
-1.02
-1.81
-2.56
-3.16
-3.60
-3.97
-4.45
-5.14
-6.08
-7.15
-8.17
-8.96
-9.38
-9.35
-8.88
-8.01
-6.83
-5.41
-3.82
-2.14
-0.43
1.22
2.71
3.92
4.76
5.23
5.38
5.32
5.21
5.15
5.13
5.06
4.85
4.46
3.92
3.33
2.78
2.33
1.97
1.63
1.31
0.98
0.67
0.38
0.10
-0.22
-0.62
-1.11
-1.68
-2.31
-3.00
-3.73
-4.51
-5.34
-6.25
-7.25
-8.30
-9.29
-10.04
-10.34
-10.10
-9.34
-8.20
-6.88
-5.54
-4.25
-3.03
-1.91
-0.95
-0.24
0.17
0.31
0.27
0.17
0.06
-0.08
-0.30
-0.67
-1.23
-1.97
-2.89
-3.91
-4.92
-5.76
-6.28
-6.38
-6.08
-5.50
-4.81
-4.12
-3.50
-2.98
-2.58
-2.35
-2.34
-2.58
-3.03
-3.64
-4.36
-5.15
-6.02
-6.92
-7.78
-8.41
-8.64
-8.34
-7.51
-6.27
-4.81
-3.29
-1.83
-0.47
0.75
1.80
2.64
3.22
3.56
3.74
3.89
4.19
4.80
5.78
7.13
8.71
10.33
11.79
12.99
13.88
14.54
15.07
15.53
15.90
16.08
15.96
15.44
14.44
12.89
10.71
7.87
4.47
0.73
-2.95
-6.09
-8.30
-9.38
-9.44
-8.88
-8.20
-7.79
-7.73
-7.74
-7.26
-5.72
-2.85
1.18
5.77
10.13
13.62
15.97
17.35
18.19
18.98
19.98
21.16
22.20
22.71
22.37
21.11
19.14
16.94
15.08
14.03
13.99
14.78
15.83
16.31
15.51
13.07
9.25
4.92
1.27
-0.68
-0.55
1.15
3.22
4.36
3.86
1.97
-0.07
-0.76
0.90
4.66
9.13
12.31
12.58
9.56
4.35
-0.96
-3.95
-2.68
3.62
14.07
25.77
33.70
31.23
11.82
-28.49
-88.46
-160.38
-231.38
-286.92
-315.34
-311.28
-276.70
-219.33
-149.66
-77.96
-12.49
41.18
80.02
103.43
113.05
112.47
106.30
99.04
93.77
91.62
91.92
93.09
93.35
91.50
87.18
80.88
73.68
66.81
61.13
56.79
53.29
49.75
45.40
39.99
33.80
27.42
21.41
16.12
11.72
8.32
5.99
4.75
4.32
4.10
3.32
1.38
-1.78
-5.64
-9.31
-11.96
-13.16
-13.04
-12.11
-10.98
-10.13
-9.77
-9.89
-10.26
-10.64
-10.86
-10.82
-10.57
-10.20
-9.86
-9.63
-9.46
-9.21
-8.73
-8.00
-7.18
-6.49
-6.20
-6.41
-7.07
-7.96
-8.71
-9.02
-8.72
-7.82
-6.49
-5.01
-3.69
-2.83
-2.59
-2.90
-3.55
-4.31
-4.95
-5.13
-4.64
-3.53
-2.23
-1.31
-1.26
-2.31
-4.31
-6.78
-8.63
-8.82
-7.04
-3.96
-0.86
1.00
0.81
-1.55
-5.58
-9.82
-12.79
-13.82
-13.28
-12.03
-10.66
-9.31
-7.66
-5.23
-0.64
7.41
19.43
34.83
52.40
70.95
89.34
106.47
115.88
112.40
95.65
71.05
45.52
23.38
5.91
-7.44
-17.73
-25.83
-31.38
-33.84
-33.29
-30.83
-28.17
-26.48
-26.26
-27.53
-30.09
-32.91
-34.94
-35.52
-34.64
-32.77
-30.42
-28.08
-26.25
-25.33
-24.45
-23.01
-20.69
-17.65
-14.42
-11.55
-9.41
-8.12
-7.51
-7.02
-6.19
-4.76
-2.88
-0.91
0.81
2.09
2.86
3.19
3.28
3.27
3.26
3.24
3.12
2.81
2.31
1.69
1.06
0.55
0.13
-0.23
-0.61
-1.05
-1.56
-2.06
-2.44
-2.63
-2.53
-2.16
-1.53
-0.69
0.28
1.26
2.14
2.84
3.31
3.60
3.77
3.89
3.97
3.99
3.86
3.52
2.95
2.18
1.31
0.44
-0.37
-1.07
-1.66
-2.14
-2.51
-2.78
-2.95
-3.03
-3.02
-2.96
-2.92
-2.99
-3.23
-3.61
-4.02
-4.27
-4.16
-3.57
-2.52
-1.19
0.21
1.47
2.46
3.17
3.61
3.78
3.60
3.03
2.08
0.91
-0.22
-1.00
-1.26
-1.00
-0.45
0.07
0.27
0.03
-0.60
-1.44
-2.32
-3.12
-3.79
-4.32
-4.68
-4.82
-4.68
-4.22
-3.41
-2.30
-0.98
0.41
1.71
2.77
3.50
3.90
4.04
4.03
3.96
3.93
3.97
4.11
4.34
4.60
4.77
4.66
4.12
3.10
1.69
0.11
-1.36
-2.47
-3.10
-3.25
-3.03
-2.62
-2.20
-1.92
-1.84
-1.90
-2.02
-2.05
-1.86
-1.39
-0.67
0.22
1.18
2.07
2.81
3.38
3.83
4.27
4.79
5.41
6.09
6.67
6.98
6.88
6.35
5.47
4.39
3.26
2.20
1.29
0.53
-0.11
-0.65
-1.14
-1.60
-2.05
-2.52
-2.97
-3.37
-3.63
-3.69
-3.48
-2.98
-2.22
-1.23
-0.00
1.46
3.15
4.98
6.80
8.40
9.63
10.37
10.63
10.44
9.89
9.07
8.10
7.13
6.31
5.73
5.37
5.11
4.82
4.42
3.91
3.37
2.89
2.48
2.09
1.68
1.22
0.77
0.41
0.18
0.12
0.20
0.42
0.79
1.36
2.18
3.34
4.85
6.68
8.66
10.46
11.64
11.81
10.80
8.81
6.41
4.33
3.14
3.01
3.65
4.47
4.88
4.57
3.68
2.68
2.13
2.47
3.90
6.29
9.23
12.02
13.65
12.88
8.40
-0.68
-14.35
-31.38
-49.31
-65.09
-75.95
-80.36
-78.33
-71.16
-60.69
-48.53
-35.85
-23.55
-12.77
-4.98
-1.59
-3.08
-8.38
-14.96
-19.70
-20.29
-16.16
-8.63
-0.10
7.21
12.20
15.06
16.69
17.89
18.80
18.93
17.61
14.63
10.45
6.05
2.49
0.39
-0.35
-0.34
-0.37
-0.92
-1.94
-2.93
-3.25
-2.47
-0.59
2.02
4.79
7.22
9.10
10.50
11.68
13.00
14.73
17.00
19.81
23.02
26.43
29.77
32.79
35.25
36.97
37.87
37.96
37.39
36.42
35.40
34.71
34.57
35.02
35.80
36.48
36.57
35.71
33.72
30.71
26.95
22.76
18.41
14.06
9.74
5.44
1.25
-2.64
-5.97
-8.42
-9.77
-9.91
-8.88
-6.77
-3.71
0.21
4.85
10.10
15.80
21.88
28.38
35.45
43.08
51.01
58.52
64.57
68.24
69.22
68.13
66.49
66.33
69.32
76.02
85.47
95.25
102.46
105.12
103.57
