1659458590.00
64.000000
-0.00
-0.00
-0.00
-0.00
-0.00
-0.00
-0.00
-0.00
-0.00
-0.00
0.00
0.01
0.01
-0.00
-0.03
-0.05
-0.05
0.00
0.13
0.36
0.66
1.01
1.37
1.72
2.06
2.40
2.79
3.24
3.80
4.42
5.06
5.66
6.20
6.68
7.15
7.68
8.31
9.14
10.09
11.04
11.88
12.56
13.14
13.76
14.65
15.96
17.91
20.32
22.90
25.38
27.58
29.57
31.68
34.32
37.81
42.54
48.15
54.10
59.83
64.97
69.58
74.14
79.34
85.71
93.76
103.00
112.62
121.73
129.77
136.75
143.30
150.74
157.77
166.64
177.96
191.83
207.02
220.60
228.23
225.24
208.27
176.47
132.25
79.48
22.50
-35.47
-92.92
-149.64
-205.77
-261.03
-314.55
-364.80
-410.80
-451.84
-487.35
-516.53
-538.06
-550.26
-551.33
-540.11
-516.24
-480.82
-435.94
-384.33
-328.82
-271.86
-215.26
-160.22
-107.52
-57.72
-11.56
30.12
66.44
96.69
120.58
138.37
150.88
159.28
164.83
168.41
170.44
170.79
168.99
164.58
157.47
148.19
137.81
127.55
118.41
110.79
104.38
98.35
91.61
83.18
72.51
59.71
45.96
33.47
25.14
23.63
30.16
43.69
60.91
77.36
88.95
93.45
90.78
82.71
71.96
61.10
51.79
44.55
39.02
34.39
29.87
25.08
20.14
15.66
12.34
10.63
10.40
11.04
11.79
12.27
12.83
14.39
17.89
23.45
30.03
35.53
37.75
35.38
28.76
19.77
10.85
3.90
-0.45
-2.80
-4.23
-5.58
-7.00
-8.10
-8.45
-7.92
-6.84
-5.75
-5.23
-5.50
-6.40
-7.54
-8.60
-9.64
-11.10
-13.45
-16.75
-20.41
-23.37
-24.66
-23.82
-20.88
-15.93
-8.83
0.67
12.23
24.31
34.21
39.01
37.07
28.97
17.45
6.06
-2.45
-7.08
-8.55
-8.30
-7.40
-6.13
-4.15
-1.23
2.34
5.55
7.18
6.30
2.76
-2.62
-8.26
-12.39
-13.61
-11.51
-6.86
-1.18
3.86
7.10
8.31
7.95
6.79
5.42
4.11
2.76
1.41
0.29
-0.25
-0.06
0.47
0.58
-0.54
-3.23
-7.04
-10.88
-13.52
-14.18
-12.88
-10.49
-8.30
-7.36
-7.88
-8.98
-9.10
-6.85
-1.83
4.97
11.70
16.58
18.96
19.53
19.71
20.47
21.65
22.04
20.19
15.53
8.89
2.15
-2.77
-4.84
-4.47
-2.86
-1.32
-0.66
-0.87
-1.33
-1.20
0.04
2.30
4.64
6.02
5.69
3.60
0.35
-3.21
-6.69
-10.53
-15.97
-24.60
-36.83
-51.34
-65.24
-75.16
-78.63
-75.24
-66.77
-54.71
-42.34
-32.58
-27.00
-25.62
-27.40
-30.89
-34.65
-37.28
-37.31
-33.48
-24.66
-10.66
7.30
26.56
43.84
56.30
62.56
63.03
59.35
53.80
48.42
44.33
41.63
39.69
37.59
34.59
30.47
25.46
20.36
16.13
13.49
12.59
13.00
13.92
14.62
14.71
14.20
13.54
13.37
14.33
16.79
20.64
25.12
28.86
30.08
27.05
18.64
4.72
-13.50
-33.57
-52.05
-65.35
-70.61
-66.67
-54.52
-37.05
-18.13
-1.34
11.06
18.43
21.39
21.01
18.26
13.97
9.10
4.97
3.10
4.50
9.12
15.67
22.10
26.49
27.89
26.61
23.93
21.43
20.31
20.98
23.12
25.90
28.20
28.85
26.84
21.41
12.29
-0.26
-15.41
-31.98
-48.64
-64.28
-78.15
-89.93
-99.50
-106.80
-111.57
-113.44
-111.94
-106.76
-97.90
-85.70
-70.86
-54.20
-36.48
-18.27
0.12
18.50
36.59
53.84
69.34
81.98
90.72
95.01
94.98
91.43
85.56
78.60
71.57
65.22
60.08
56.43
54.23
53.10
52.25
50.79
48.07
44.00
39.11
34.33
30.41
27.50
24.90
21.28
15.25
6.01
-6.17
-20.03
-33.67
-45.19
-53.10
-56.59
-55.48
-50.17
-41.58
-31.05
-20.23
-10.81
-4.02
-0.33
0.83
0.84
1.52
4.50
10.68
19.92
31.02
42.05
50.91
55.97
56.75
54.11
49.99
46.74
46.30
49.53
56.04
64.36
72.51
78.73
81.72
80.84
75.71
65.85
50.58
29.13
0.95
-34.15
-75.83
-122.87
-172.49
-219.87
-258.27
-280.42
-281.05
-259.38
-220.46
-173.97
-130.85
-99.01
-80.47
-71.30
-64.32
-53.06
-34.74
-10.91
14.15
36.01
52.10
62.25
67.85
70.48
70.86
68.77
63.83
56.37
47.77
40.19
35.62
34.98
37.66
41.77
45.06
45.95
44.17
40.74
37.32
35.22
34.72
35.06
34.89
33.15
29.55
24.60
19.20
14.01
9.04
3.69
-2.87
-11.11
-20.76
-30.78
-39.65
-45.91
-48.62
-47.60
-43.39
-37.04
-29.88
-23.22
-18.25
-15.72
-15.84
-18.06
-21.13
-23.47
-23.76
-21.56
-17.48
-13.00
-9.68
-8.59
-9.82
-12.57
-15.58
-17.63
-17.90
-16.04
-12.10
-6.30
1.02
9.38
18.13
26.44
33.48
38.58
41.40
42.06
41.07
39.23
37.39
36.22
36.01
36.57
37.28
37.36
36.27
33.94
30.88
27.98
26.09
25.59
26.24
27.30
27.91
27.43
25.70
22.95
19.64
16.24
13.13
10.62
8.98
8.32
8.50
9.06
9.32
8.66
6.88
4.42
2.14
0.90
1.02
2.07
3.11
3.25
2.25
0.61
-0.68
-0.74
0.73
3.31
6.13
8.31
9.20
8.53
6.25
2.48
-2.47
-8.07
-13.57
-18.17
-21.35
-23.03
-23.58
-23.64
-23.75
-24.26
-25.20
-26.41
-27.68
-28.83
-29.67
-30.06
-29.86
-28.90
-27.09
-24.49
-21.24
-17.70
-14.23
-11.15
-8.66
-6.75
-5.28
-4.02
-2.81
-1.56
-0.35
0.63
1.15
1.03
0.25
-1.03
-2.45
-3.60
-4.08
-3.67
-2.40
-0.52
1.61
3.56
5.03
5.87
6.11
5.97
5.77
5.76
6.07
6.57
7.05
7.23
6.98
6.37
5.69
5.29
5.44
6.21
7.43
8.76
9.76
10.03
9.31
7.59
5.23
2.85
1.15
0.72
1.74
3.85
6.26
8.00
8.34
7.04
4.42
1.24
-1.64
-3.54
-4.19
-3.70
-2.48
-1.12
-0.22
-0.26
-1.48
-3.81
-6.82
-9.83
-12.15
-13.25
-12.94
-11.40
-8.94
-5.95
-2.80
0.23
2.84
4.76
5.82
6.00
5.53
4.81
4.30
4.30
4.86
5.79
6.72
7.33
7.47
7.23
6.87
6.68
6.81
7.22
7.71
8.06
8.12
7.91
7.56
7.24
7.02
6.92
6.84
6.66
6.29
5.66
4.78
3.77
2.74
1.83
1.09
0.51
0.02
-0.40
-0.74
-0.86
-0.67
-0.13
0.60
1.23
1.45
1.07
0.10
-1.21
-2.59
-3.84
-4.91
-5.92
-7.00
-8.18
-9.32
-10.22
-10.73
-10.85
-10.73
-10.57
-10.44
-10.27
-9.87
-9.07
-7.80
-6.14
-4.25
-2.39
-0.79
0.33
0.84
0.77
0.27
-0.37
-0.92
-1.23
-1.28
-1.11
-0.75
-0.17
0.73
1.98
3.57
5.39
7.39
9.57
11.94
14.54
17.22
19.75
21.80
23.05
23.35
22.67
21.13
18.94
16.32
13.49
10.58
7.72
5.06
2.75
0.92
-0.35
-1.16
-1.70
-2.15
-2.57
-2.80
-2.57
-1.64
0.02
2.20
4.50
6.45
7.73
8.17
7.76
6.62
4.95
3.09
1.47
0.57
0.77
2.18
4.59
7.50
10.28
12.47
13.76
14.17
13.87
13.22
12.58
12.27
12.39
12.81
13.10
12.73
11.28
8.77
5.66
2.66
0.26
-1.58
-3.55
-6.61
-11.51
-18.29
-26.21
-33.98
-40.40
-44.80
-47.22
-48.14
-48.07
-47.15
-45.15
-41.78
-37.09
-31.67
-26.49
-22.40
-19.71
-18.00
-16.39
-14.01
-10.55
-6.42
-2.52
0.26
1.47
1.30
0.44
-0.37
-0.63
-0.34
0.12
0.18
-0.59
-2.36
-4.90
-7.75
-10.32
-12.21
-13.36
-14.14
-15.30
-17.71
-22.01
-28.37
-36.33
-44.99
-53.20
-59.88
-64.16
-65.41
-63.30
-57.84
-49.53
-39.37
-28.86
-19.61
-13.02
-9.89
-10.33
-13.73
-18.91
-24.23
-27.80
-27.80
-23.01
-13.37
-0.19
14.12
26.84
35.96
40.81
42.10
41.29
39.85
38.62
37.78
37.15
36.61
36.36
36.79
38.30
41.00
44.67
48.84
52.90
56.30
58.61
59.62
59.36
58.06
55.99
53.36
50.23
46.59
42.44
37.96
33.53
29.60
26.49
24.27
22.69
21.34
19.81
17.96
15.96
14.15
12.86
12.13
11.72
11.18
10.18
8.63
6.81
5.22
4.36
4.45
5.39
6.76
8.07
8.95
9.26
9.12
8.71
8.27
7.98
8.07
8.65
9.72
11.08
12.38
13.27
13.47
13.01
12.14
11.26
10.52
9.74
8.46
6.28
3.18
-0.47
-3.91
-6.31
-6.95
-5.53
-2.22
2.46
7.86
13.43
18.45
22.43
25.38
28.03
31.33
35.98
42.09
49.25
56.83
63.70
69.19
73.57
78.09
83.74
90.32
96.55
100.91
102.57
100.51
94.07
82.91
67.59
49.00
28.44
7.90
-10.21
-24.07
-35.28
-47.89
-66.69
-93.78
-128.44
-167.91
-208.77
-248.29
-274.94
-278.93
-257.91
-219.81
-175.34
-132.32
-94.39
-63.06
-39.07
-22.50
-13.83
-12.65
-19.69
-31.15
-43.65
-55.71
-67.83
-81.65
-99.10
-122.82
-148.62
-174.98
-197.66
-210.44
-207.06
-184.29
-144.18
-94.20
-44.98
-6.32
15.95
23.19
21.09
15.93
11.46
8.91
6.29
2.16
-3.63
-10.29
-15.64
-18.08
-17.55
-15.50
-14.35
-16.26
-21.36
-28.53
-35.89
-40.57
-40.09
-33.17
-19.90
-1.09
18.02
35.45
51.03
66.08
82.99
103.81
129.31
158.77
190.51
223.02
256.27
289.24
318.95
340.67
349.59
343.37
324.34
298.93
274.91
257.87
246.93
236.42
220.64
198.86
176.66
162.52
161.58
171.63
183.57
184.59
165.22
124.33
69.24
11.25
-40.36
-82.59
-122.09
-162.29
-202.67
-239.45
-268.58
-287.90
-297.53
-299.11
-297.82
-295.15
-290.90
-285.75
-282.08
-283.88
-295.54
-319.99
-353.98
-391.00
-420.66
-432.34
-420.05
-384.56
-332.42
-272.58
-212.62
-156.52
-105.27
-57.63
-12.44
30.27
69.96
106.52
140.97
174.61
207.85
239.14
265.89
285.27
295.20
295.29
286.79
272.02
253.55
233.68
213.98
195.73
179.67
165.81
153.63
142.23
130.90
119.39
107.96
96.98
86.71
76.87
66.83
55.95
44.03
31.55
19.47
8.84
0.32
-6.06
-10.77
-14.55
-18.03
-21.57
-25.20
-28.75
-31.95
-34.53
-36.19
-36.75
-36.15
-34.64
-32.67
-30.81
-29.44
-28.60
-27.92
-26.85
-24.95
-22.20
-18.99
-15.99
-13.70
-12.20
-11.12
-9.86
-7.92
-5.19
-1.96
1.29
4.14
6.37
7.97
8.98
9.42
9.25
8.43
7.06
5.38
3.64
2.02
0.53
-0.91
-2.37
-3.80
-5.00
-5.79
-6.10
-6.01
-5.65
-5.06
-4.09
-2.56
-0.36
2.33
5.15
7.64
9.43
10.39
10.53
9.95
8.78
7.19
5.43
3.76
2.42
1.43
0.71
0.14
-0.26
-0.30
0.23
1.39
2.95
4.48
5.55
5.97
5.84
5.47
5.11
4.84
4.54
3.96
2.99
1.70
0.31
-0.85
-1.59
-1.91
-1.98
-2.11
-2.52
-3.22
-4.07
-4.81
-5.27
-5.40
-5.35
-5.30
-5.36
-5.51
-5.60
-5.48
-5.13
-4.67
-4.32
-4.28
-4.61
-5.22
-5.95
-6.57
-6.98
-7.12
-7.01
-6.71
-6.24
-5.59
-4.76
-3.75
-2.56
-1.33
-0.18
0.72
1.26
1.42
1.23
0.80
0.19
-0.58
-1.49
-2.47
-3.35
-3.88
-3.85
-3.22
-2.13
-0.91
0.15
0.88
1.25
1.34
1.15
0.63
-0.31
-1.69
-3.35
-4.98
-6.19
-6.68
-6.35
-5.31
-3.91
-2.57
-1.76
-1.78
-2.66
-4.17
-5.82
-7.08
-7.56
-7.09
-5.79
-3.91
-1.79
0.29
2.05
3.34
4.08
4.33
4.24
3.97
3.67
3.35
3.03
2.71
2.49
2.59
3.14
4.12
5.27
6.21
6.63
6.49
6.03
5.69
5.79
6.41
7.29
8.00
8.20
7.78
6.89
5.89
5.15
5.01
5.74
7.50
10.22
13.32
15.73
16.01
12.86
5.64
-5.18
-18.12
-31.03
-41.80
-48.91
-51.79
-50.71
-46.57
-40.46
-33.35
-26.01
-18.94
-12.54
-7.12
-2.98
-0.25
1.14
1.56
1.58
1.75
2.38
3.43
4.54
5.29
5.40
4.84
3.88
2.86
2.04
1.50
1.13
0.73
0.18
-0.52
-1.23
-1.71
-1.81
-1.49
-0.89
-0.28
0.10
0.09
-0.32
-0.99
-1.71
-2.26
-2.50
-2.39
-1.95
-1.26
-0.46
0.30
0.86
1.06
0.86
0.35
-0.23
-0.61
-0.57
-0.11
0.61
1.32
1.74
1.76
1.41
0.84
0.27
-0.11
-0.23
-0.12
0.11
0.32
0.40
0.34
0.18
-0.04
-0.29
-0.62
-1.05
-1.55
-2.03
-2.35
-2.47
-2.46
-2.48
-2.71
-3.23
-3.98
-4.77
-5.38
-5.63
-5.43
-4.81
-3.84
-2.66
-1.45
-0.33
0.58
1.25
1.74
2.12
2.44
2.68
2.78
2.70
2.49
2.29
2.24
2.46
2.92
3.44
3.81
3.87
3.60
3.15
2.72
2.46
2.39
2.36
2.20
1.79
1.16
0.42
-0.22
-0.69
-0.98
-1.23
-1.52
-1.86
-2.21
-2.50
-2.75
-3.08
-3.58
-4.25
-4.87
-5.14
-4.74
-3.56
-1.74
0.33
2.18
3.45
3.98
3.89
3.48
3.07
2.87
2.92
3.06
3.05
2.73
2.10
1.30
0.55
-0.04
-0.47
-0.82
-1.21
-1.61
-1.88
-1.88
-1.50
-0.84
-0.10
0.45
0.64
0.43
-0.03
-0.52
-0.84
-0.96
-0.94
-0.90
-1.00
-1.28
-1.71
-2.24
-2.78
-3.29
-3.68
-3.89
-3.85
-3.52
-2.91
-2.10
-1.18
-0.27
0.51
1.09
1.42
1.50
1.42
1.26
1.08
0.89
0.62
0.24
-0.18
-0.48
-0.52
-0.19
0.42
1.05
1.34
1.08
0.26
-0.86
-1.86
-2.35
-2.16
-1.43
-0.48
0.28
0.59
0.40
-0.11
-0.69
-1.15
-1.42
-1.55
-1.67
-1.86
-2.19
-2.62
-3.07
-3.39
-3.47
-3.20
-2.58
-1.63
-0.42
0.95
2.36
3.61
4.49
4.82
4.62
4.11
3.61
3.39
3.52
3.81
3.99
3.84
3.38
2.86
2.53
2.56
2.81
2.96
2.66
1.73
0.23
-1.48
-2.99
-3.94
-4.25
-4.09
-3.81
-3.74
-4.00
-4.44
-4.71
-4.49
-3.71
-2.57
-1.49
-0.87
-0.88
-1.42
-2.17
-2.78
-3.05
-2.90
-2.37
-1.48
-0.23
1.33
3.06
4.61
5.63
5.88
5.43
4.63
3.95
3.68
3.83
4.10
4.17
3.91
3.47
3.15
3.15
3.42
3.67
3.58
3.04
2.19
1.37
0.87
0.76
0.89
1.00
0.91
0.56
0.09
-0.32
-0.51
-0.44
-0.21
-0.02
-0.04
-0.39
-1.01
-1.68
-2.18
-2.38
-2.33
-2.21
-2.13
-2.10
-1.91
-1.36
-0.40
0.83
2.04
3.06
3.98
5.18
7.01
9.53
12.26
14.36
15.00
13.90
11.47
8.78
6.98
6.82
8.26
10.60
12.85
14.27
14.71
14.56
14.39
14.63
15.31
16.15
16.72
16.53
15.08
11.80
6.24
-1.74
-11.67
-22.41
-32.37
-40.05
-44.48
-45.55
-43.90
-40.57
-36.65
-32.99
-30.11
-28.12
-26.79
-25.61
-24.03
-21.68
-18.58
-15.04
-11.53
-8.34
-5.53
-3.00
-0.68
1.29
2.61
3.07
2.68
1.78
0.90
0.44
0.53
0.93
1.13
0.62
-0.90
-3.43
-6.61
-9.98
-13.14
-15.89
-18.20
-19.99
-21.02
-20.79
-18.80
-14.82
-9.15
-2.64
3.61
8.66
12.09
14.02
14.89
15.15
15.07
14.71
14.15
13.60
13.43
14.01
15.48
17.64
19.95
21.79
22.71
22.64
21.81
20.62
19.35
18.08
16.70
15.09
13.25
11.35
9.65
8.33
7.42
6.84
6.46
6.22
6.07
5.89
5.50
4.66
3.21
1.26
-0.78
-2.35
-2.97
-2.53
-1.34
-0.00
0.83
0.77
-0.24
-1.91
-3.81
-5.61
-7.19
-8.55
-9.67
-10.36
-10.25
-8.99
-6.51
-3.15
0.45
3.55
5.65
6.59
6.54
5.77
4.52
3.00
1.43
0.12
-0.60
-0.54
0.26
1.46
2.57
3.14
2.89
1.81
0.13
-1.83
-3.68
-5.12
-5.96
-6.14
-5.72
-4.86
-3.72
-2.50
-1.40
-0.59
-0.23
-0.37
-0.86
-1.42
-1.78
-1.78
-1.44
-0.97
-0.57
-0.32
-0.16
0.04
0.40
0.91
1.45
1.90
2.22
2.47
2.75
3.12
3.50
3.74
3.70
3.39
2.95
2.56
2.30
2.12
1.83
1.26
0.38
-0.68
-1.71
-2.51
-3.05
-3.38
-3.54
-3.59
-3.46
-3.14
-2.65
-2.11
-1.64
-1.34
-1.19
-1.16
-1.21
-1.38
-1.72
-2.23
-2.79
-3.23
-3.40
-3.30
-3.07
-2.93
-3.05
-3.38
-3.67
-3.61
-3.02
-1.93
-0.65
0.44
1.10
1.31
1.30
1.37
1.67
2.17
2.65
2.90
2.86
2.63
2.40
2.30
2.29
2.19
1.79
1.00
-0.05
-1.09
-1.81
-1.98
-1.58
-0.82
0.00
0.61
0.86
0.81
0.68
0.65
0.81
1.08
1.26
1.19
0.86
0.39
-0.03
-0.28
-0.41
-0.58
-1.00
-1.69
-2.45
-2.87
-2.50
-1.10
1.22
3.96
6.44
8.05
8.50
7.93
6.78
5.59
4.71
4.21
3.91
3.53
2.93
2.14
1.36
0.80
0.54
0.51
0.50
0.31
-0.11
-0.60
-0.91
-0.83
-0.33
0.34
0.83
0.83
0.29
-0.56
-1.33
-1.65
-1.36
-0.61
0.23
0.74
0.66
-0.07
-1.24
-2.49
-3.46
-3.89
-3.60
-2.57
-0.86
1.36
3.84
6.29
8.42
10.06
11.20
11.98
12.62
13.32
14.19
15.22
16.32
17.43
18.55
19.69
20.93
22.35
24.03
26.02
28.33
30.87
33.51
36.11
38.64
41.22
44.11
47.57
51.73
56.45
61.39
66.12
70.33
74.05
77.70
81.84
86.93
92.94
99.13
104.22
106.77
105.66
100.61
92.28
82.15
72.04
63.39
56.80
51.77
47.06
41.33
33.86
24.88
15.06
4.84
-6.37
-20.48
-40.07
-67.53
-104.38
-151.11
-207.19
-270.79
-338.07
-402.67
-456.05
-489.51
-496.96
-477.27
-434.85
-377.96
-315.61
-254.63
-198.24
-146.19
-96.11
-45.00
9.02
65.70
121.77
171.09
205.92
219.10
206.18
166.54
103.19
22.18
-68.13
-157.56
-234.81
-289.19
-313.29
-305.52
-270.98
-219.72
-162.97
-109.09
-61.29
-17.99
24.98
71.74
124.43
182.43
242.61
300.12
349.43
385.63
405.67
409.25
398.55
377.50
350.51
321.29
292.30
264.65
238.50
213.58
189.76
167.42
147.53
131.39
120.14
114.21
113.01
115.25
119.50
124.72
130.43
136.44
142.31
147.04
149.28
147.93
142.72
134.48
124.85
115.60
107.87
101.86
96.83
91.73
85.74
78.69
71.03
63.44
56.40
49.95
43.77
37.50
30.97
24.40
18.25
13.00
8.92
6.00
4.07
3.01
2.90
4.05
6.77
11.01
16.08
20.60
22.71
20.54
12.88
-0.33
-17.86
-37.54
-56.96
-74.56
-90.23
-105.35
-122.09
-141.95
-164.43
-186.44
-202.93
-208.85
-201.48
-182.08
-155.75
-129.94
-111.92
-106.62
-115.37
-135.80
-162.56
-188.68
-206.99
-211.65
-199.47
-170.57
-128.33
-78.29
-26.67
21.24
61.97
94.13
117.96
134.47
144.75
149.33
148.10
140.81
128.21
112.93
99.48
92.68
95.24
105.91
119.38
128.27
126.31
110.82
83.10
46.61
4.46
-42.14
-93.27
-148.12
-202.95
-251.09
-285.09
-299.98
-295.53
-276.24
-249.18
-220.80
-194.70
-171.10
-148.11
-123.70
-97.17
-69.40
-41.96
-15.78
9.73
36.37
66.14
99.95
137.02
175.15
211.60
243.74
269.31
286.46
294.16
292.99
285.81
277.37
272.36
272.96
277.11
279.20
272.95
254.84
226.04
191.34
156.05
122.66
89.88
54.19
13.19
-32.23
-77.72
-117.98
-150.03
-175.50
-200.27
-231.21
-272.19
-321.38
-371.87
-415.29
-445.82
-462.36
-467.12
-462.66
-449.30
-425.72
-392.10
-353.21
-317.90
-294.87
-287.45
-290.82
-295.23
-292.70
-283.41
-276.52
-284.65
-314.64
-361.22
-408.40
-437.68
-438.99
-416.83
-388.11
-372.35
-380.66
-409.56
-443.17
-462.45
-455.33
-422.02
-373.33
-323.33
-281.64
-249.78
-222.55
-193.08
-157.99
-119.33
-83.13
-55.41
-38.72
-31.07
-27.68
-22.64
-11.18
8.32
34.12
62.32
88.89
111.93
132.15
150.83
170.64
194.61
224.56
260.22
300.08
342.43
386.70
432.58
476.14
512.29
535.89
542.52
528.97
494.62
441.33
373.53
296.28
210.67
119.01
26.91
-57.08
-124.31
-168.42
-187.93
-185.43
-147.92
-78.67
3.63
76.19
127.46
157.49
177.89
195.81
214.29
234.10
248.82
254.09
249.26
236.70
219.43
200.26
180.29
160.31
140.47
118.01
92.19
65.45
42.18
25.67
16.62
12.54
10.47
8.93
7.59
9.67
20.23
42.79
76.41
115.66
152.80
181.83
200.40
208.87
209.76
205.75
198.20
186.95
171.57
152.53
131.98
112.91
97.49
86.15
77.18
67.23
52.54
30.65
1.51
-32.11
-65.79
-95.39
-118.73
-136.16
-149.67
-161.23
-171.46
-179.40
-183.57
-183.31
-179.49
-174.12
-169.00
-164.31
-158.05
-146.74
-127.14
-98.03
-61.17
-20.99
16.94
48.00
70.08
83.94
92.22
97.57
101.20
102.55
100.35
94.22
85.63
77.54
72.79
72.65
76.19
80.83
83.61
82.13
74.88
61.22
41.42
17.12
-8.29
-29.88
-42.63
-43.41
-32.49
-13.56
8.00
27.46
42.41
52.75
59.19
61.62
58.45
47.57
27.83
0.21
-32.13
-64.91
-93.82
-115.40
-127.38
-128.71
-119.86
-103.15
-82.64
-63.17
-48.79
-41.29
-39.84
-42.05
-45.53
-49.12
-52.91
-57.34
-62.02
-65.59
-66.29
-63.13
-56.41
-47.42
-37.36
-26.35
-13.35
2.85
22.26
42.84
60.80
72.09
74.07
66.61
52.04
34.08
16.24
0.54
-12.85
-25.18
-37.82
-51.17
-64.10
-74.23
-78.91
-76.11
-65.01
-45.81
-19.24
13.76
51.98
93.24
134.02
169.78
196.10
210.33
212.52
205.44
193.27
179.95
167.90
157.49
147.23
134.26
115.08
86.70
48.07
1.40
-47.68
-91.69
-123.84
-140.64
-143.02
-135.42
-123.34
-110.81
-99.49
-89.39
-80.52
-74.04
-71.89
-75.36
-83.63
-93.61
-101.28
-103.53
-99.75
-91.84
-83.07
-76.35
-72.82
-71.42
-69.55
-64.55
-55.06
-41.84
-27.52
-15.56
-8.94
-8.92
-14.59
-23.38
-32.21
-38.62
-41.42
-40.59
-36.65
-29.98
-20.77
-9.22
3.85
16.88
28.09
36.35
41.96
46.69
52.94
62.43
75.17
89.27
101.69
109.67
111.77
108.32
100.90
91.52
81.86
73.00
65.57
59.92
56.25
54.58
54.54
55.40
56.21
56.23
55.26
53.69
52.19
51.24
50.61
49.17
45.16
36.93
23.74
6.35
-13.29
-32.87
-50.67
-66.17
-79.89
-92.72
-105.16
-117.10
-127.92
-136.97
-143.67
-147.33
-146.76
-140.20
-125.84
-102.85
-72.22
-37.07
-1.83
29.10
52.78
68.39
77.03
80.85
81.94
81.73
80.94
79.97
79.22
79.13
79.83
80.93
81.51
80.43
76.92
70.86
62.93
54.22
45.82
38.47
32.49
27.84
24.23
21.23
18.33
15.23
12.02
9.21
7.55
7.56
9.12
11.36
12.97
12.80
10.36
6.02
0.87
-3.80
-6.92
-7.98
-7.15
-5.06
-2.64
-0.74
0.13
0.05
-0.36
-0.26
0.85
2.81
4.77
5.68
4.94
2.80
0.24
-1.71
-2.63
-2.97
-3.61
-5.18
-7.45
-9.34
-9.53
-7.39
-3.40
1.00
4.11
4.87
3.27
0.33
-2.51
-4.09
-3.97
-2.40
0.04
2.90
6.08
9.64
13.46
16.93
19.12
19.23
17.04
12.99
7.93
2.69
-2.24
-6.59
-10.10
-12.37
-13.02
-12.05
-9.99
-7.79
-6.19
-5.33
-4.60
-3.15
-0.53
2.93
6.18
8.12
8.17
6.63
4.54
3.15
3.31
5.07
7.76
10.25
11.57
11.29
9.62
7.16
4.54
1.99
-0.79
-4.51
-9.89
-17.26
-26.27
-35.86
-44.53
-50.74
-53.32
-51.81
-46.50
-38.35
-28.71
-18.98
-10.32
-3.53
0.97
3.13
3.22
1.85
-0.20
-2.07
-3.08
-2.90
-1.64
0.27
2.30
4.01
5.19
5.83
5.95
5.56
4.61
3.05
1.01
-1.22
-3.20
-4.59
-5.30
-5.51
-5.55
-5.57
-5.34
-4.30
-1.81
2.40
7.95
13.84
18.86
22.15
23.55
23.61
23.15
22.81
22.76
22.76
22.44
21.56
20.00
17.76
14.77
11.04
6.71
2.14
-2.27
-6.45
-10.80
-16.04
-22.68
-30.47
-38.26
-44.38
-47.32
-46.45
-42.22
-35.89
-28.82
-22.00
-15.74
-9.90
-4.28
1.08
5.78
9.31
11.28
11.71
11.06
10.09
9.54
9.90
11.24
13.33
15.78
18.25
20.42
22.00
22.60
21.78
19.21
14.81
8.71
1.31
-6.85
-15.02
-22.18
-27.16
-28.91
-27.02
-22.01
-15.32
-8.73
-3.58
-0.26
1.84
3.71
6.06
8.95
11.94
14.53
16.61
18.50
20.61
23.12
25.77
28.10
29.76
30.78
31.55
32.44
33.44
33.89
32.63
28.36
20.19
8.00
-7.43
-24.58
-41.57
-56.57
-68.23
-75.78
-79.02
-78.08
-73.23
-64.84
-53.48
-40.09
-26.12
-13.26
-3.07
3.54
6.57
6.97
6.15
5.36
5.26
5.82
6.63
7.35
7.96
8.77
10.05
11.89
14.09
16.38
18.48
20.10
20.74
19.69
16.26
10.21
2.11
-6.68
-14.49
-19.94
-22.38
-21.91
-19.15
-14.89
-9.96
-5.22
-1.44
0.87
1.84
2.25
3.22
5.66
9.67
14.46
18.79
21.54
22.22
20.94
18.18
14.38
9.83
4.82
-0.17
-4.41
-7.18
-8.21
-8.12
-8.16
-9.76
-13.69
-19.61
-26.25
-31.98
-35.60
-36.73
-35.76
-33.29
-29.68
-24.89
-18.74
-11.48
-3.98
2.28
5.83
5.86
2.73
-2.10
-6.61
-9.06
-8.71
-5.82
-1.35
3.70
8.81
13.92
18.99
23.52
26.55
27.02
24.57
20.05
15.42
12.97
14.17
18.88
25.47
31.59
35.35
36.20
35.12
33.92
34.30
36.87
40.94
44.82
46.65
45.14
39.93
31.54
20.99
9.53
-1.65
-11.33
-18.45
-22.33
-23.02
-21.51
-19.50
-18.73
-20.21
-23.73
-28.15
-32.08
-34.79
-36.57
-38.52
-41.78
-46.98
-53.88
-61.72
-69.68
-77.17
-83.72
-88.64
-90.69
-88.28
-80.08
-65.76
-46.42
-24.48
-2.92
15.58
29.40
38.08
42.07
42.26
39.58
34.96
29.48
24.51
21.55
21.74
25.37
31.53
38.34
43.60
45.69
44.24
40.29
35.79
32.75
32.32
34.47
38.09
41.67
44.09
45.05
45.02
44.84
45.23
46.50
48.51
50.62
51.75
50.35
44.76
33.88
17.90
-1.31
-20.58
-36.60
-47.12
-51.79
-51.88
-49.42
-46.12
-42.92
-40.13
-38.09
-37.57
-39.59
-44.75
-52.68
-61.92
-70.52
-76.92
-80.65
-82.16
-82.28
-81.22
-78.19
-71.63
-60.18
-43.69
-23.84
-3.85
12.61
22.82
25.95
23.18
17.06
10.50
5.75
4.00
5.40
9.40
15.13
21.70
28.30
34.28
39.09
42.31
43.59
42.75
39.94
35.79
31.42
28.14
26.95
28.04
30.55
33.02
34.06
33.04
30.28
26.84
23.86
22.07
21.54
21.88
22.53
23.07
23.28
23.10
22.53
21.55
20.14
18.28
15.90
12.92
9.28
5.00
0.37
-4.04
-7.47
-9.22
-8.99
-7.21
-5.03
-3.94
-5.22
-9.36
-15.87
-23.60
-31.22
-37.80
-42.99
-46.73
-48.90
-48.97
-46.18
-39.97
-30.42
-18.54
-5.93
5.69
15.01
21.54
25.52
27.73
29.05
30.11
31.07
31.75
31.94
31.68
31.39
31.60
32.65
34.39
36.08
36.64
35.01
30.57
23.31
13.86
3.33
-6.87
-15.33
-20.92
-23.08
-22.07
-18.90
-15.00
-11.71
-9.83
-9.41
-9.86
-10.36
-10.34
-9.69
-8.77
-8.11
-8.01
-8.29
-8.43
-7.81
-6.15
-3.73
-1.16
0.97
2.48
3.70
5.00
6.12
5.80
2.02
-7.05
-21.96
-41.17
-61.26
-77.88
-87.19
-87.01
-77.35
-60.07
-38.21
-15.12
6.14
23.22
34.72
40.38
40.95
38.05
33.64
29.50
26.83
26.08
26.98
28.93
31.27
33.66
36.11
38.80
41.79
44.58
45.87
43.65
35.72
20.54
-1.85
-29.27
-57.53
-81.34
-95.87
-98.29
-88.73
-70.19
-47.39
-25.10
-6.71
6.39
14.52
18.89
20.71
20.82
19.77
18.09
16.48
15.69
16.21
18.05
20.67
23.27
25.14
25.90
25.54
24.24
22.05
18.60
13.16
4.97
-6.23
-19.63
-33.33
-44.66
-51.15
-51.43
-45.72
-35.71
-23.70
-11.73
-0.95
8.34
16.25
22.84
27.85
30.90
31.75
30.57
27.89
24.45
20.98
18.04
16.01
15.15
15.65
17.57
20.84
25.12
29.78
33.79
35.93
34.98
30.08
21.16
9.11
-4.39
-17.29
-27.80
-34.90
-38.54
-39.44
-38.66
-37.07
-35.00
-32.19
-28.02
-21.85
-13.48
-3.30
7.74
18.39
27.57
34.68
39.71
43.16
45.62
47.44
48.43
47.88
44.82
38.45
28.45
15.14
-0.63
-17.65
-34.61
-50.23
-63.32
-72.92
-78.35
-79.35
-76.16
-69.43
-60.10
-49.14
-37.44
-25.79
-14.82
-5.14
2.72
8.34
11.50
12.22
10.86
7.95
4.22
0.34
-3.09
-5.65
-7.11
-7.42
-6.75
-5.48
-4.22
-3.70
-4.60
-7.30
-11.75
-17.40
-23.46
-29.13
-33.85
-37.25
-39.04
-38.91
-36.52
-31.81
-25.29
-18.12
-11.72
-7.14
-4.43
-2.58
0.09
5.06
12.89
22.93
33.70
43.42
50.76
55.11
56.54
55.51
52.58
48.31
43.27
38.09
33.37
29.55
26.68
24.26
21.51
17.69
12.54
6.59
0.95
-3.23
-5.35
-5.70
-5.27
-5.17
-6.04
-7.72
-9.39
-10.08
-9.09
-6.26
-1.89
3.28
8.17
11.50
11.97
8.80
2.16
-6.62
-15.31
-21.46
-23.27
-20.09
-12.56
-2.26
8.91
19.15
27.08
31.90
33.34
31.70
27.71
22.44
17.11
12.87
10.55
10.48
12.35
15.23
17.89
19.23
18.73
16.67
14.07
12.16
11.83
13.12
15.11
16.21
14.81
10.04
2.11
-7.58
-17.06
-24.48
-28.81
-30.11
-29.26
-27.27
-24.75
-21.80
-18.30
-14.45
-11.04
-9.24
-10.02
-13.59
-19.27
-25.79
-31.91
-36.88
-40.46
-42.59
-43.10
-41.71
-38.22
-32.87
-26.40
-19.74
-13.61
-8.17
-3.15
1.82
6.74
11.13
14.29
15.76
15.64
14.69
13.98
14.51
16.64
19.84
22.78
23.70
21.14
14.58
4.92
-5.61
-14.04
-17.68
-15.13
-6.93
4.62
16.27
25.11
29.53
29.69
27.13
23.93
21.84
21.71
23.43
26.17
28.71
29.68
27.82
22.38
13.44
2.28
-8.97
-17.99
-23.27
-24.78
-23.90
-22.59
-22.41
-23.85
-26.48
-29.48
-32.31
-34.97
-37.69
-40.52
-43.08
-44.71
-44.98
-43.97
-42.34
-40.81
-39.63
-38.25
-35.55
-30.43
-22.54
-12.65
-2.48
5.95
11.04
12.23
10.12
6.18
2.11
-0.63
-1.18
0.65
4.42
9.31
14.31
18.60
21.76
23.92
25.60
27.38
29.51
31.76
33.52
34.29
34.02
33.14
32.31
31.89
31.70
31.10
29.40
26.32
22.13
17.59
13.58
10.84
9.76
10.35
12.27
14.83
17.18
18.50
18.34
16.86
14.71
12.76
11.57
11.12
10.87
10.17
8.66
6.43
3.90
1.37
-1.27
-4.61
-9.37
-15.99
-24.32
-33.70
-43.22
-52.17
-60.24
-67.40
-73.61
-78.33
-80.52
-78.86
-72.34
-60.76
-45.05
-27.02
-8.93
7.15
19.78
28.42
33.36
35.50
35.99
35.87
35.78
35.90
36.10
36.20
36.21
36.29
36.63
37.24
37.83
37.87
36.76
34.04
29.50
23.33
16.05
8.52
1.68
-3.64
-7.04
-8.61
-8.86
-8.39
-7.65
-6.77
-5.66
-4.25
-2.62
-1.07
0.02
0.40
-0.04
-1.17
-2.74
-4.32
-5.48
-5.84
-5.14
-3.42
-0.97
1.79
4.47
6.75
8.41
9.24
8.97
7.30
4.10
-0.41
-5.58
-10.43
-13.98
-15.68
-15.61
-14.35
-12.66
-11.05
-9.49
-7.58
-4.88
-1.28
2.74
6.35
8.72
9.44
8.68
7.10
5.50
4.45
4.14
4.42
4.99
5.63
6.28
7.00
7.84
8.70
9.30
9.27
8.25
6.00
2.51
-2.02
-7.15
-12.22
-16.41
-18.94
-19.28
-17.38
-13.75
-9.29
-5.01
-1.66
0.48
1.61
2.21
2.80
3.67
4.89
6.31
7.76
9.06
10.06
10.62
10.63
10.04
9.00
7.88
7.16
7.21
8.06
9.20
9.77
8.84
5.84
0.88
-5.28
-11.46
-16.56
-20.01
-21.88
-22.75
-23.30
-23.87
-24.23
-23.77
-21.78
-17.94
-12.52
-6.32
-0.43
4.18
6.91
7.63
6.70
4.79
2.68
1.06
0.35
0.63
1.68
3.15
4.78
6.44
8.07
9.58
10.72
11.13
10.51
8.81
6.19
2.99
-0.43
-3.75
-6.72
-9.01
-10.25
-10.10
-8.43
-5.45
-1.73
2.07
5.32
7.68
9.06
9.58
9.45
8.84
7.88
6.66
5.33
4.04
3.04
2.56
2.82
3.87
5.64
7.85
10.16
12.13
13.34
13.37
11.89
8.76
4.15
-1.35
-6.83
-11.31
-14.13
-15.18
-14.90
-13.92
-12.73
-11.29
-9.16
-5.83
-1.14
4.51
10.29
15.27
18.81
20.74
21.27
20.75
19.52
17.97
16.58
16.00
16.84
19.34
23.03
26.74
28.81
27.53
21.71
10.94
-4.24
-22.47
-41.74
-59.66
-73.75
-82.06
-83.62
-78.79
-69.25
-57.46
-45.85
-36.11
-28.79
-23.45
-19.21
-15.27
-11.33
-7.48
-3.86
-0.38
3.37
7.88
13.44
19.81
26.30
32.06
36.36
38.85
39.58
38.70
36.30
32.30
26.69
19.75
12.25
5.38
0.38
-1.98
-1.75
0.23
2.58
3.99
3.68
1.64
-1.47
-4.74
-7.28
-8.61
-8.65
-7.70
-6.32
-5.03
-4.23
-3.99
-4.08
-4.15
-3.85
-3.02
-1.71
-0.09
1.70
3.59
5.60
7.78
10.12
12.42
14.27
15.06
14.17
11.22
6.37
0.47
-5.10
-8.81
-9.54
-7.03
-1.97
4.28
10.17
14.45
16.53
16.47
14.84
12.50
10.25
8.61
7.59
6.68
5.06
1.86
-3.44
-10.82
-19.65
-28.87
-37.30
-43.92
-48.03
-49.19
-47.13
-41.69
-33.08
-22.06
-10.05
1.13
9.83
15.14
17.13
16.60
14.49
11.50
7.95
4.10
0.57
-1.61
-1.40
1.60
6.73
12.38
16.77
18.71
18.15
16.06
13.76
12.21
11.68
11.87
12.31
12.74
13.13
13.47
13.56
13.00
11.41
8.67
4.96
0.56
-4.36
-9.74
-15.39
-20.61
-24.07
-24.19
-19.93
-11.58
-0.91
9.35
16.58
19.41
18.19
14.66
11.12
9.45
10.43
13.73
18.28
22.76
26.01
27.15
25.45
20.38
11.80
0.19
-13.17
-26.37
-37.42
-44.87
-48.26
-48.17
-45.89
-42.84
-40.15
-38.47
-37.97
-38.57
-40.03
-41.99
-44.00
-45.51
-46.11
-45.57
-43.94
-41.34
-37.69
-32.54
-25.27
-15.51
-3.59
9.24
21.04
29.88
34.54
34.91
31.94
27.15
22.01
17.48
13.94
11.38
9.69
8.85
8.80
9.38
10.12
10.41
9.87
8.75
8.09
9.46
14.21
22.65
33.63
44.78
53.44
57.76
57.37
53.40
47.85
42.66
39.13
37.65
37.84
38.76
39.17
37.68
33.05
24.54
12.21
-2.88
-18.84
-33.51
-44.95
-52.02
-54.63
-53.63
-50.38
-46.34
-42.65
-39.95
-38.50
-38.27
-39.03
-40.49
-42.23
-43.78
-44.72
-44.80
-44.09
-42.84
-41.34
-39.54
-36.97
-32.79
-26.18
-16.79
-5.05
7.78
20.02
30.07
36.94
40.47
41.31
40.45
38.85
37.09
35.41
33.84
32.53
31.75
31.73
32.34
32.96
32.59
30.35
25.99
20.21
14.53
10.71
9.96
12.45
17.20
22.56
26.82
28.92
28.72
26.91
24.59
22.75
21.84
21.60
21.26
19.91
16.94
12.34
6.66
0.81
-4.34
-8.18
-10.42
-11.10
-10.47
-8.98
-7.21
-5.89
-5.70
-7.05
-10.02
-14.43
-20.05
-26.74
-34.55
-43.44
-53.08
-62.63
-70.86
-76.44
-78.29
-75.78
-68.74
-57.35
-42.15
-24.04
-4.46
14.75
31.60
44.45
52.40
55.61
55.10
52.36
48.86
45.61
43.05
41.15
39.69
38.51
37.55
36.88
36.59
36.55
36.34
35.17
32.11
26.43
18.03
7.67
-3.13
-12.57
-19.20
-22.40
-22.53
-20.68
-18.08
-15.68
-13.90
-12.73
-11.95
-11.36
-10.84
-10.30
-9.69
-8.95
-8.03
-6.86
-5.37
-3.50
-1.22
1.35
3.95
6.23
7.94
8.98
9.36
9.06
7.78
4.98
0.14
-6.73
-14.75
-22.16
-26.93
-27.51
-23.51
-15.82
-6.10
3.96
13.27
21.51
28.80
35.24
40.59
44.37
46.26
46.44
45.71
45.16
45.58
46.98
48.38
48.11
44.47
36.45
24.23
9.09
-7.09
-22.62
-36.54
-48.84
-60.11
-70.90
-81.37
-91.09
-99.29
-105.40
-109.18
-110.73
-110.07
-106.90
-100.59
-90.70
-77.42
-61.88
-45.87
-31.14
-18.70
-8.54
0.16
8.35
16.48
24.27
30.90
35.56
37.93
38.30
37.42
36.09
34.85
33.88
33.02
32.04
30.78
29.21
27.34
25.09
22.23
18.56
14.12
9.40
5.31
2.84
2.62
4.53
7.67
10.66
12.20
11.52
8.67
4.44
0.07
-3.12
-4.15
-2.52
1.61
7.60
14.47
21.16
26.67
30.16
31.02
29.03
24.46
18.17
11.46
5.70
1.92
0.42
0.75
1.92
2.87
2.86
1.62
-0.67
-3.49
-6.21
-8.27
-9.22
-8.92
-7.61
-5.82
-4.23
-3.39
-3.50
-4.37
-5.52
-6.43
-6.76
-6.49
-5.79
-4.95
-4.16
-3.42
-2.63
-1.69
-0.56
0.61
1.60
2.22
2.45
2.45
2.45
2.63
3.03
3.50
3.84
3.89
3.63
3.13
2.54
1.97
1.47
1.09
0.83
0.69
0.62
0.55
0.36
-0.03
-0.60
-1.25
-1.84
-2.29
-2.59
-2.79
-2.96
-3.12
-3.26
-3.33
-3.29
-3.10
-2.73
-2.15
-1.34
-0.34
0.75
1.78
2.62
3.20
3.50
3.57
3.49
3.27
2.92
2.44
1.86
1.23
0.63
0.14
-0.21
-0.38
-0.36
-0.15
0.18
0.52
0.72
0.65
0.23
-0.47
-1.29
-2.01
-2.40
-2.38
-2.00
-1.47
-1.08
-1.09
-1.59
-2.50
-3.58
-4.48
-4.91
-4.70
-3.82
-2.42
-0.76
0.86
2.13
2.83
2.88
2.37
1.56
0.74
0.16
-0.13
-0.19
-0.25
-0.49
-0.98
-1.64
-2.27
-2.70
-2.85
-2.81
-2.78
-2.97
-3.50
-4.33
-5.32
-6.22
-6.88
-7.24
-7.41
-7.57
-7.92
-8.59
-9.60
-10.88
-12.26
-13.53
-14.47
-14.96
-14.96
-14.56
-13.96
-13.33
-12.79
-12.34
-11.88
-11.28
-10.38
-9.08
-7.35
-5.21
-2.74
-0.04
2.76
5.56
8.27
10.87
13.28
15.41
17.11
18.29
18.89
18.99
18.68
18.03
17.05
15.70
13.99
12.03
10.06
8.37
7.15
6.45
6.11
5.88
5.50
4.80
3.78
2.59
1.50
0.75
0.55
0.89
1.65
2.52
3.21
3.50
3.32
2.79
2.13
1.55
1.14
0.91
0.73
0.48
0.09
-0.39
-0.84
-1.13
-1.21
-1.10
-0.91
-0.72
-0.60
-0.55
-0.54
-0.57
-0.69
-0.95
-1.39
-1.95
-2.50
-2.89
-3.02
-2.88
-2.60
-2.35
-2.27
-2.42
-2.76
-3.13
-3.33
-3.14
-2.44
-1.25
0.23
1.65
2.68
3.10
2.93
2.42
1.89
1.56
1.46
1.48
1.47
1.34
1.14
0.99
0.96
1.04
1.14
1.17
1.09
0.93
0.76
0.62
0.52
0.43
0.29
0.10
-0.14
-0.40
-0.64
-0.80
-0.84
-0.80
-0.76
-0.87
-1.26
-1.95
-2.81
-3.62
-4.07
-3.95
-3.18
-1.88
-0.29
1.27
2.51
3.23
3.42
3.18
2.77
2.42
2.23
2.16
2.08
1.83
1.37
0.81
0.32
0.04
-0.00
0.11
0.22
0.20
-0.02
-0.43
-0.92
-1.38
-1.70
-1.83
-1.79
-1.64
-1.47
-1.35
-1.33
-1.42
-1.65
-2.04
-2.57
-3.18
-3.71
-3.95
-3.73
-3.03
-1.95
-0.71
0.46
1.40
2.05
2.42
2.57
2.57
2.47
2.29
2.05
1.75
1.40
1.00
0.59
0.24
0.02
0.03
0.31
0.82
1.42
1.92
2.10
1.84
1.18
0.32
-0.47
-0.96
-1.11
-1.04
-0.95
-0.97
-1.11
-1.26
-1.33
-1.31
-1.29
-1.42
-1.72
-2.04
-2.12
-1.70
-0.68
0.78
2.34
3.64
4.40
4.59
4.36
3.93
3.50
3.13
2.77
2.35
1.82
1.21
0.63
0.16
-0.12
-0.23
-0.21
-0.14
-0.10
-0.14
-0.27
-0.47
-0.67
-0.79
-0.80
-0.72
-0.62
-0.61
-0.69
-0.86
-1.07
-1.29
-1.58
-2.00
-2.61
-3.36
-4.11
-4.60
-4.57
-3.83
-2.41
-0.56
1.29
2.73
3.45
3.44
2.95
2.35
1.93
1.81
1.86
1.88
1.70
1.35
0.99
0.82
0.93
1.21
1.44
1.41
1.09
0.60
0.18
-0.01
0.02
0.09
-0.04
-0.49
-1.20
-1.91
-2.35
-2.36
-1.98
-1.41
-0.88
-0.56
-0.51
-0.68
-1.04
-1.49
-1.95
-2.29
-2.36
-2.05
-1.37
-0.45
0.50
1.28
1.77
1.99
1.99
1.85
1.61
1.25
0.76
0.21
-0.31
-0.61
-0.59
-0.24
0.30
0.80
1.02
0.86
0.37
-0.20
-0.56
-0.52
-0.07
0.58
1.11
1.29
1.05
0.57
0.17
0.13
0.56
1.35
2.20
2.77
2.84
2.43
1.83
1.47
1.83
3.23
5.66
8.75
11.85
14.32
15.74
16.21
16.25
16.66
18.16
20.74
23.84
26.61
28.33
28.78
28.39
28.25
29.62
33.46
39.60
46.95
54.13
60.15
64.78
68.38
71.53
74.76
78.61
83.42
90.27
100.90
116.78
137.74
161.55
184.90
205.30
222.51
236.77
249.42
261.55
272.77
280.47
280.79
271.00
251.13
223.98
190.01
149.87
105.24
59.03
14.05
-27.94
-65.97
-99.45
-128.26
-158.62
-196.04
-241.93
-292.52
-342.48
-388.03
-427.48
-460.87
-489.07
-520.76
-562.79
-616.05
-674.73
-731.57
-782.02
-824.73
-860.65
-844.74
-751.04
-587.17
-392.80
-209.84
-61.16
49.16
127.01
180.95
218.89
239.30
240.31
222.64
196.06
171.86
158.69
161.20
179.17
208.16
235.47
249.87
247.13
231.90
212.85
195.11
182.01
174.00
169.62
163.53
152.20
136.19
119.67
106.70
98.84
95.40
94.14
92.99
89.27
81.90
71.75
61.17
52.01
44.78
39.19
34.57
30.50
26.40
22.11
17.83
14.01
10.81
7.99
5.33
2.64
-0.06
-2.50
-4.24
-4.85
-4.02
-1.79
1.49
5.24
8.75
11.38
12.82
13.15
12.78
12.20
11.71
11.40
11.11
10.67
10.02
9.24
8.55
8.13
7.97
7.95
7.88
7.65
7.35
7.13
7.16
7.47
7.91
8.21
8.10
7.42
6.23
4.77
3.43
2.57
2.35
2.68
3.24
3.59
3.39
2.45
0.84
-1.14
-3.08
-4.49
-4.97
-4.25
-2.35
0.43
3.52
6.30
8.28
9.32
9.62
9.54
9.41
9.36
9.24
8.85
8.10
7.12
6.22
5.75
5.84
6.34
6.88
7.10
6.83
6.23
5.61
5.26
5.25
5.37
5.27
4.70
3.64
2.36
1.27
0.64
0.54
0.76
0.96
0.90
0.42
-0.44
-1.58
-2.84
-4.05
-4.99
-5.42
-5.15
-4.06
-2.24
0.06
2.47
4.65
6.35
7.49
8.12
8.37
8.34
