1660329171.00
64.000000
-0.00
-0.00
-0.00
-0.00
-0.00
-0.00
-0.00
-0.00
-0.00
-0.00
0.00
0.01
0.01
-0.00
-0.03
-0.05
-0.05
0.00
0.13
0.36
0.66
1.01
1.37
1.72
2.06
2.40
2.79
3.24
3.80
4.42
5.06
5.66
6.20
6.68
7.15
7.68
8.31
9.14
10.09
11.04
11.88
12.56
13.14
13.76
14.65
15.96
17.91
20.32
22.90
25.38
27.58
29.57
31.68
34.32
37.81
42.54
48.15
54.10
59.83
64.97
69.58
74.14
79.34
85.71
93.76
103.00
112.62
121.73
129.77
136.75
143.30
150.75
157.77
166.64
177.95
191.79
206.97
220.57
228.25
225.36
208.53
176.87
132.76
80.05
23.07
-34.94
-92.44
-149.16
-205.23
-260.37
-313.74
-363.87
-409.83
-450.91
-486.50
-515.74
-537.23
-549.22
-549.96
-538.37
-514.21
-478.67
-433.88
-382.45
-327.02
-269.84
-212.63
-156.66
-102.95
-52.37
-5.90
35.58
71.43
101.35
125.50
144.38
158.69
169.15
176.37
180.75
182.57
182.07
179.51
175.23
169.65
163.18
156.15
148.81
141.30
133.69
126.02
118.33
110.69
103.16
95.80
88.68
81.83
75.25
68.95
62.95
57.25
51.86
46.78
42.03
37.59
33.45
29.61
26.07
22.81
19.83
17.11
14.67
12.48
10.54
8.83
7.35
6.07
4.97
4.05
3.27
2.62
2.09
1.65
1.30
1.01
0.79
0.61
0.47
0.37
0.29
0.23
0.19
0.16
0.15
0.14
0.15
0.16
0.19
0.21
0.25
0.28
0.32
0.37
0.41
0.46
0.51
0.55
0.61
0.66
0.72
0.78
0.85
0.92
1.00
1.08
1.18
1.29
1.41
1.55
1.70
1.87
2.06
2.27
2.50
2.76
3.04
3.36
3.71
4.09
4.50
4.95
5.43
5.96
6.52
7.13
7.78
8.47
9.20
9.98
10.80
11.68
12.60
13.59
14.63
15.73
16.85
18.00
19.14
20.29
21.42
22.49
23.44
24.13
24.43
24.17
23.23
21.52
19.05
15.87
12.07
7.82
3.28
-1.38
-6.01
-10.45
-14.55
-18.11
-20.96
-22.97
-24.13
-24.53
-24.38
-23.97
-23.52
-23.16
-22.87
-22.48
-21.82
-20.78
-19.46
-18.13
-17.14
-16.79
-17.11
-17.89
-18.69
-19.08
-18.81
-18.00
-17.13
-16.79
-17.48
-19.32
-21.96
-24.74
-26.99
-28.28
-28.65
-28.52
-28.54
-29.43
-31.81
-36.08
-42.19
-49.22
-55.23
-57.63
-53.99
-43.20
-26.17
-5.83
13.86
29.39
38.87
42.47
41.85
39.22
36.18
33.39
30.62
27.40
23.41
18.69
13.58
8.29
2.87
-2.84
-9.11
-16.05
-23.45
-30.91
-38.02
-44.60
-50.76
-56.59
-61.76
-65.27
-65.56
-61.05
-50.81
-35.12
-15.48
5.75
26.06
43.36
56.40
64.78
68.78
69.08
66.53
61.99
56.28
50.13
44.09
38.56
33.69
29.52
26.01
23.13
20.91
19.25
17.95
16.66
14.98
12.70
9.83
6.63
3.43
0.43
-2.41
-5.40
-8.94
-13.42
-18.92
-25.10
-31.00
-35.09
-35.57
-30.81
-19.91
-3.11
18.27
42.17
66.40
89.21
109.56
127.10
142.01
154.68
165.43
174.28
180.81
184.24
183.51
177.64
166.00
148.58
126.05
99.74
71.37
42.68
15.02
-10.88
-34.89
-57.15
-77.67
-96.04
-111.43
-122.91
-129.86
-132.26
-130.71
-126.20
-119.83
-112.59
-105.33
-98.68
-92.96
-88.05
-83.38
-78.11
-71.52
-63.35
-54.01
-44.42
-35.58
-28.16
-22.16
-16.95
-11.68
-5.68
1.14
8.19
14.42
18.81
20.75
20.21
17.67
13.77
9.01
3.56
-2.66
-9.83
-18.16
-27.88
-39.21
-52.33
-67.24
-83.40
-99.77
-114.93
-127.52
-136.76
-142.61
-145.74
-147.06
-147.22
-146.37
-144.01
-139.32
-131.41
-119.65
-103.81
-84.14
-61.35
-36.53
-11.09
13.36
35.30
53.52
67.53
77.69
85.13
91.51
98.42
106.98
117.50
129.43
141.58
152.32
160.08
163.63
162.52
157.31
149.42
140.76
132.95
126.66
121.38
115.57
107.39
95.28
78.35
56.36
29.60
-1.08
-34.03
-66.64
-95.53
-117.34
-129.74
-132.32
-126.69
-115.81
-102.79
-89.83
-77.70
-66.01
-53.90
-40.79
-26.72
-12.28
1.71
14.57
25.82
35.14
42.27
47.00
49.22
49.06
46.85
42.98
37.71
31.05
22.86
12.99
1.61
-10.76
-23.31
-35.23
-45.89
-55.02
-62.74
-69.47
-75.70
-81.69
-87.20
-91.32
-92.57
-89.35
-80.54
-66.02
-46.82
-24.97
-2.77
17.79
35.49
49.96
61.37
70.09
76.36
80.21
81.62
80.68
77.75
73.52
68.81
64.46
61.00
58.50
56.59
54.51
51.40
46.54
39.63
30.85
20.69
9.73
-1.67
-13.47
-25.79
-38.72
-52.05
-65.30
-77.88
-89.34
-99.38
-107.72
-113.71
-116.23
-113.81
-105.21
-90.10
-69.41
-45.31
-20.49
2.58
22.33
38.32
50.92
60.86
68.75
74.93
79.27
81.51
81.20
77.89
71.09
60.20
44.71
24.62
0.95
-23.78
-45.79
-60.96
-66.22
-60.77
-46.48
-27.21
-7.43
9.24
20.75
26.58
27.06
22.77
14.33
2.59
-11.18
-25.30
-38.11
-48.21
-54.77
-57.37
-55.67
-49.24
-37.62
-20.58
1.38
26.91
53.85
79.76
102.53
120.80
134.11
142.69
147.02
147.55
144.65
138.88
131.24
123.19
116.38
112.01
110.46
111.13
112.77
113.98
113.71
111.51
107.43
101.77
94.79
86.47
76.51
64.50
50.14
33.51
15.18
-3.85
-22.39
-39.41
-54.33
-67.19
-78.55
-89.25
-99.98
-111.01
-121.83
-131.26
-137.66
-139.40
-135.27
-124.88
-108.64
-87.72
-63.70
-38.39
-13.59
9.09
28.41
43.68
54.88
62.59
67.79
71.45
74.11
75.74
75.75
73.29
67.56
58.25
45.77
31.38
17.11
5.32
-1.92
-3.59
-0.26
5.92
11.92
14.86
13.12
6.79
-2.55
-12.74
-22.16
-30.23
-37.47
-44.80
-52.85
-61.40
-69.44
-75.62
-78.72
-78.02
-73.32
-64.82
-52.93
-38.20
-21.39
-3.56
13.90
29.46
41.84
50.43
55.51
58.13
59.59
60.90
62.26
63.02
62.04
58.33
51.60
42.46
32.18
22.25
13.87
7.60
3.30
0.24
-2.58
-6.07
-10.61
-15.83
-20.82
-24.67
-27.18
-29.48
-34.10
-44.18
-62.27
-89.02
-122.37
-157.79
-189.32
-211.31
-220.04
-214.65
-197.37
-172.86
-146.96
-125.25
-111.35
-105.75
-105.57
-105.57
-100.30
-86.52
-64.77
-39.17
-15.41
2.08
12.28
17.81
23.29
32.71
47.21
64.62
80.70
91.34
94.37
90.27
81.50
70.98
60.66
50.97
41.34
31.61
23.32
20.12
26.71
46.57
79.66
121.20
162.47
193.41
205.85
196.14
165.80
120.27
66.58
11.09
-41.60
-88.38
-126.58
-153.38
-165.89
-162.18
-142.35
-109.23
-67.93
-24.82
13.92
43.51
61.41
67.52
63.96
54.37
42.94
33.23
27.34
25.64
27.15
30.52
34.81
39.87
46.04
53.54
61.87
69.84
76.02
79.57
80.70
80.68
81.19
83.41
87.41
91.87
94.73
93.86
87.92
76.50
60.06
39.56
16.29
-8.23
-32.26
-53.98
-71.79
-84.63
-92.18
-94.75
-92.97
-87.43
-78.43
-66.00
-50.13
-31.18
-10.13
11.34
31.15
47.50
59.39
67.07
71.76
75.04
77.97
80.61
82.06
81.12
77.09
70.32
62.22
54.74
49.71
48.35
50.98
57.09
65.41
74.17
81.18
84.19
81.22
70.88
52.57
26.70
-5.14
-40.12
-74.16
-102.40
-120.00
-123.19
-110.39
-82.56
-43.05
3.38
51.62
97.13
136.37
166.98
187.81
198.95
201.73
198.36
191.30
182.52
173.05
163.00
151.86
139.08
124.37
107.84
89.94
71.41
53.21
36.48
22.28
11.20
3.10
-2.92
-8.09
-13.35
-19.00
-24.62
-29.61
-33.71
-37.27
-41.23
-46.55
-53.75
-62.53
-71.94
-80.62
-87.26
-90.97
-91.46
-88.87
-83.68
-76.36
-67.26
-56.63
-44.78
-32.34
-20.38
-10.28
-3.33
-0.40
-1.60
-6.30
-13.42
-21.96
-31.36
-41.68
-53.51
-67.61
-84.46
-103.95
-125.26
-147.22
-168.66
-188.93
-208.15
-227.17
-247.31
-270.34
-298.41
-333.81
-378.16
-431.06
-488.85
-544.41
-588.61
-613.12
-613.45
-590.52
-550.19
-500.75
-449.80
-402.06
-358.81
-318.98
-280.80
-243.12
-205.71
-168.89
-133.08
-98.32
-64.54
-31.55
0.67
32.06
62.67
93.24
125.32
160.72
200.19
241.90
280.86
310.00
322.70
315.81
291.27
255.71
217.74
184.71
160.33
144.33
133.93
125.91
118.18
110.19
102.49
95.98
91.54
89.96
91.91
97.98
108.46
123.26
141.64
162.01
181.87
198.07
207.56
208.27
200.00
184.45
164.42
142.52
120.14
97.20
72.95
47.18
20.93
-3.63
-24.27
-39.77
-50.53
-58.31
-65.21
-72.71
-81.26
-90.35
-99.24
-107.31
-114.30
-120.09
-124.42
-126.87
-127.17
-125.61
-123.38
-122.41
-124.66
-131.41
-142.57
-156.60
-170.90
-182.54
-188.84
-188.00
-179.35
-163.49
-142.34
-118.71
-95.79
-76.26
-61.70
-52.17
-46.44
-42.40
-37.87
-31.16
-21.47
-8.98
5.26
19.67
32.50
42.11
47.21
47.10
41.71
31.57
17.68
1.25
-16.60
-35.19
-54.31
-74.22
-95.32
-117.87
-141.62
-165.57
-187.88
-205.96
-216.98
-218.47
-209.22
-189.77
-162.50
-131.04
-99.26
-70.23
-45.73
-26.33
-11.83
-1.91
3.61
4.97
2.85
-1.23
-4.85
-5.17
0.40
13.38
33.68
59.56
88.07
115.90
140.32
159.84
174.44
185.23
193.70
200.93
207.02
210.99
211.19
205.81
193.45
173.57
146.82
115.14
81.66
50.32
25.13
9.31
4.54
10.51
25.14
45.28
67.61
89.55
109.73
127.83
144.18
159.26
173.41
187.00
200.60
215.04
231.09
248.88
267.47
284.82
298.37
305.92
306.30
299.47
286.09
266.78
241.70
210.54
173.10
129.97
83.01
35.39
-9.03
-46.57
-74.64
-92.19
-99.81
-99.12
-91.99
-80.06
-64.57
-46.79
-28.64
-12.72
-1.86
1.88
-1.96
-11.97
-25.52
-39.86
-52.92
-63.79
-72.30
-78.47
-82.06
-82.56
-79.58
-73.28
-64.47
-54.50
-44.87
-36.92
-31.66
-29.75
-31.53
-37.03
-45.99
-57.65
-70.72
-83.48
-94.06
-100.95
-103.55
-102.30
-98.55
-93.84
-89.26
-84.93
-79.97
-72.98
-62.83
-49.39
-33.77
-18.03
-4.34
6.00
13.16
18.70
24.63
32.39
42.06
52.36
61.53
68.30
72.64
75.56
78.42
81.98
85.95
89.19
90.40
88.74
84.25
77.61
69.69
61.24
52.85
45.23
39.55
37.42
40.55
49.97
65.43
85.30
107.01
128.06
146.84
162.98
176.83
188.42
196.59
198.83
192.25
175.02
147.61
112.93
75.34
38.98
6.43
-21.71
-46.10
-67.65
-86.66
-102.82
-115.73
-125.43
-132.64
-138.38
-143.52
-148.47
-153.24
-157.65
-161.38
-163.84
-163.89
-159.90
-150.09
-133.16
-108.87
-78.26
-43.50
-7.43
26.96
56.94
80.40
95.99
103.31
102.97
96.70
87.11
77.09
69.13
64.48
62.91
63.03
63.08
61.79
59.01
55.62
53.03
52.61
55.15
60.71
68.68
77.76
86.01
91.02
90.30
82.00
65.65
42.58
15.71
-11.20
-34.67
-52.36
-63.53
-68.86
-69.87
-68.31
-65.68
-63.10
-61.42
-61.44
-64.00
-69.91
-79.57
-92.65
-107.78
-122.57
-134.03
-139.26
-136.34
-124.87
-106.15
-82.65
-57.26
-32.54
-10.47
7.50
20.16
26.59
26.48
20.63
11.22
1.43
-5.51
-7.48
-4.17
2.81
10.65
16.46
18.33
15.94
10.55
4.46
0.07
-0.84
2.36
9.15
18.24
28.13
37.45
45.04
49.87
50.82
46.82
37.12
21.80
2.05
-19.97
-41.60
-60.41
-74.69
-83.68
-87.38
-86.07
-80.11
-69.84
-55.78
-38.95
-20.84
-3.23
12.44
25.40
35.79
44.49
52.72
61.64
72.06
84.25
98.01
112.69
127.34
140.81
152.08
160.51
166.10
169.58
172.25
175.68
181.34
190.25
202.75
218.37
235.81
253.14
268.28
279.61
286.58
289.98
291.55
293.00
294.84
295.66
292.37
281.38
260.23
228.76
189.23
145.32
100.60
57.20
15.39
-25.90
-68.22
-112.78
-160.12
-209.96
-261.08
-311.02
-356.24
-392.70
-417.10
-428.23
-427.65
-419.06
-406.81
-394.05
-381.66
-368.46
-352.37
-331.72
-306.02
-275.88
-242.45
-206.86
-170.02
-132.72
-95.68
-59.60
-25.12
7.11
36.25
61.13
80.40
92.94
98.35
97.19
90.56
79.61
64.93
46.76
25.50
2.58
-19.37
-36.95
-47.20
-48.78
-42.56
-31.25
-18.33
-6.89
1.14
4.99
4.60
0.10
-8.37
-20.51
-35.39
-51.25
-65.65
-76.06
-80.63
-78.75
-71.26
-60.10
-47.73
-36.31
-27.10
-20.23
-14.72
-8.95
-1.30
9.26
22.68
37.86
52.94
65.99
75.51
80.54
80.42
74.47
62.02
42.81
17.76
-10.75
-39.19
-63.98
-82.78
-95.37
-103.56
-110.29
-118.13
-128.27
-140.02
-151.21
-159.05
-161.07
-156.04
-144.38
-127.95
-109.41
-91.14
-74.37
-58.82
-43.23
-26.27
-7.45
12.58
32.45
50.99
67.81
83.38
98.33
112.74
125.73
135.81
141.68
142.93
140.25
134.87
127.88
119.70
110.24
99.51
88.23
78.07
71.08
68.84
71.66
78.33
86.51
93.74
98.12
98.85
96.04
90.24
81.93
71.39
58.76
44.36
28.79
12.79
-3.04
-18.54
-33.86
-49.06
-63.60
-76.11
-84.73
-87.82
-84.72
-76.10
-63.62
-49.19
-34.12
-18.71
-2.52
14.85
33.06
50.60
65.14
74.30
76.35
70.82
58.46
41.02
20.76
0.09
-18.79
-34.11
-44.80
-50.61
-52.15
-50.81
-48.41
-46.81
-47.60
-51.70
-59.25
-69.44
-80.63
-90.77
-97.85
-100.48
-98.33
-92.01
-82.83
-72.25
-61.33
-50.49
-39.45
-27.47
-13.82
1.93
19.63
38.63
58.13
77.55
96.72
115.82
135.02
153.98
171.75
186.87
197.76
203.22
202.66
196.19
184.54
169.01
151.43
134.03
119.22
108.94
104.13
104.28
107.61
111.64
114.05
113.38
109.31
102.55
94.31
85.91
78.31
71.94
66.62
61.68
56.02
48.49
38.20
25.00
9.74
-5.68
-18.73
-26.89
-28.39
-22.78
-11.13
4.18
20.08
33.59
42.64
46.48
45.63
41.36
34.90
26.86
17.07
5.06
-9.26
-25.02
-40.29
-52.68
-60.11
-61.57
-57.30
-48.63
-37.44
-25.64
-14.88
-6.33
-0.46
3.07
5.33
7.92
12.28
19.24
28.54
38.84
47.96
53.42
52.92
45.00
29.52
8.07
-16.12
-38.91
-56.61
-67.36
-71.93
-73.31
-75.19
-80.12
-88.30
-97.74
-105.59
-109.95
-110.84
-110.02
-109.54
-110.30
-111.23
-109.75
-103.22
-90.28
-71.62
-49.56
-26.98
-6.16
11.84
27.13
40.24
51.55
60.91
67.79
71.65
72.33
70.26
66.29
61.50
56.80
52.73
49.42
46.71
44.35
42.28
40.58
39.31
38.23
36.50
32.89
26.22
15.97
2.67
-12.40
-27.69
-42.03
-54.87
-65.85
-74.32
-78.94
-78.05
-70.44
-56.25
-37.20
-16.19
3.82
20.76
33.97
43.91
51.45
57.18
61.15
63.01
62.51
59.77
55.27
49.55
42.76
34.46
23.72
9.58
-8.50
-30.26
-54.62
-79.90
-104.19
-125.83
-143.72
-157.50
-167.49
-174.45
-179.14
-181.98
-182.77
-180.63
-174.28
-162.39
-144.08
-119.39
-89.43
-56.42
-23.29
6.91
31.69
49.74
61.06
66.78
68.66
68.38
67.19
65.68
63.95
61.76
58.85
54.99
50.06
44.08
37.21
29.73
21.98
14.26
6.66
-0.91
-8.73
-17.11
-26.20
-35.84
-45.50
-54.38
-61.76
-67.37
-71.77
-76.45
-83.48
-94.69
-110.79
-130.72
-151.70
-169.99
-182.05
-185.54
-179.78
-165.52
-144.40
-118.33
-89.26
-59.07
-29.71
-2.97
19.82
38.23
52.82
64.85
75.66
86.12
96.37
105.85
113.67
119.01
121.37
120.62
116.95
110.54
101.48
89.64
74.82
57.01
36.69
15.02
-6.29
-25.31
-40.47
-50.90
-56.64
-58.55
-57.98
-56.43
-55.20
-54.98
-55.63
-56.17
-55.09
-50.97
-43.07
-31.74
-18.14
-3.76
10.27
23.53
36.09
48.10
59.23
68.55
74.87
77.35
75.97
71.67
66.06
60.81
57.01
54.95
54.13
53.72
52.97
51.44
49.00
45.49
40.63
33.96
25.27
14.92
4.16
-5.07
-10.73
-11.40
-6.93
1.29
10.64
18.00
20.67
17.06
6.99
-8.46
-27.33
-47.24
-65.61
-79.88
-87.80
-87.85
-79.66
-64.40
-44.59
-23.49
-4.16
11.38
22.49
29.76
34.38
37.52
39.90
41.73
42.90
43.26
42.90
42.21
41.69
41.74
42.31
42.84
42.25
39.29
32.69
21.38
4.51
-18.46
-47.47
-81.43
-117.77
-152.68
-181.96
-202.45
-213.23
-215.97
-214.10
-211.09
-208.68
-206.13
-200.65
-188.90
-168.64
-139.74
-104.21
-65.38
-26.78
8.70
39.09
63.26
80.63
91.02
94.71
92.55
86.00
76.95
67.32
58.58
51.45
45.81
40.89
35.80
29.98
23.56
17.46
13.01
11.53
13.80
19.71
28.38
38.31
47.84
55.43
59.94
60.63
57.21
49.79
38.81
25.00
9.27
-7.32
-23.51
-37.83
-48.58
-54.03
-52.79
-44.26
-28.89
-8.28
15.11
38.47
59.18
75.31
85.91
90.97
91.04
86.95
79.41
69.10
56.67
42.97
28.93
15.36
2.62
-9.49
-21.49
-33.85
-46.39
-58.13
-67.46
-72.65
-72.50
-66.79
-56.41
-43.13
-29.27
-17.15
-8.70
-5.01
-6.04
-10.56
-16.40
-21.00
-22.27
-19.22
-12.30
-3.16
6.11
13.88
19.59
23.91
28.28
34.25
42.87
54.31
67.89
82.31
95.93
107.12
114.56
117.52
116.02
110.86
103.47
95.54
88.71
84.21
82.67
84.18
88.39
94.76
102.62
111.13
119.12
125.13
127.75
126.16
120.52
111.93
101.83
91.31
80.63
69.39
57.13
43.99
30.83
18.74
8.24
-1.29
-11.37
-23.55
-38.38
-54.74
-70.01
-80.90
-84.46
-79.05
-64.64
-42.85
-16.41
11.42
37.61
59.91
77.11
89.06
96.47
100.60
102.99
105.08
107.86
111.32
114.15
113.80
107.41
93.02
70.95
44.17
17.27
-5.57
-22.80
-36.48
-51.27
-71.81
-99.91
-132.99
-165.08
-189.56
-202.38
-203.88
-198.41
-191.91
-189.12
-191.78
-198.65
-206.95
-214.21
-219.27
-222.21
-223.42
-222.74
-219.13
-211.28
-198.50
-181.45
-162.17
-143.44
-127.72
-116.20
-108.36
-102.26
-95.18
-84.69
-69.31
-48.71
-23.57
4.90
35.32
66.27
96.35
124.31
149.11
170.09
186.81
198.89
205.62
206.06
199.31
185.19
164.60
139.58
112.71
86.18
61.25
38.13
16.61
-3.09
-19.75
-31.13
-34.70
-28.60
-12.71
11.12
39.35
67.70
92.22
110.06
119.75
120.98
114.20
100.40
80.96
57.71
32.78
8.28
-14.24
-34.23
-52.29
-69.85
-88.36
-108.46
-129.43
-149.29
-165.51
-176.00
-179.84
-177.47
-170.07
-158.80
-144.10
-125.70
-103.25
-77.05
-48.52
-19.88
6.68
29.92
49.97
68.02
85.63
103.88
123.04
142.60
161.72
179.58
195.68
209.77
221.69
231.31
238.51
243.16
245.18
244.51
241.08
234.75
225.19
211.86
193.99
170.79
141.93
107.99
70.70
32.57
-3.92
-37.16
-66.80
-93.28
-116.86
-136.61
-150.17
-154.45
-147.21
-128.27
-100.01
-66.68
-32.99
-2.71
22.18
41.54
56.61
69.36
81.79
95.45
110.89
127.27
142.32
152.80
155.29
147.26
127.92
98.30
60.80
18.24
-27.13
-74.21
-123.06
-174.30
-228.04
-283.15
-336.80
-384.99
-423.41
-448.62
-458.87
-454.43
-437.42
-411.29
-380.14
-347.94
-317.72
-290.84
-266.66
-242.79
-216.03
-183.72
-144.86
-100.62
-53.93
-8.51
32.19
65.75
91.12
108.56
119.53
126.49
132.54
140.87
154.02
173.21
197.99
226.38
255.54
282.55
305.20
322.34
334.04
341.22
345.13
346.61
345.36
339.74
327.12
305.08
272.60
230.82
182.85
132.60
83.43
37.36
-4.74
-42.39
-74.60
-99.87
-116.79
-125.07
-126.13
-122.81
-118.32
-115.19
-114.52
-116.09
-119.00
-122.43
-126.05
-129.97
-134.46
-139.53
-144.81
-149.73
-153.78
-156.82
-159.18
-161.57
-164.84
-169.62
-176.07
-183.83
-192.04
-199.62
-205.36
-208.19
-207.15
-201.48
-190.71
-174.68
-153.64
-128.25
-99.61
-69.10
-38.33
-8.89
17.91
41.25
60.91
77.27
91.10
103.22
114.23
124.30
133.24
140.53
145.44
146.93
143.72
134.56
118.80
97.07
71.66
46.23
24.71
10.02
3.11
2.82
6.80
12.76
19.46
26.89
35.75
46.44
58.47
70.48
80.84
88.30
92.26
92.60
89.26
82.08
71.16
57.35
42.55
29.32
19.94
15.45
15.17
17.14
19.24
20.26
20.33
20.49
21.70
24.06
26.58
27.83
26.77
23.34
18.52
13.77
10.40
9.17
10.16
12.99
16.98
21.23
24.62
25.74
23.05
15.11
0.95
-19.66
-46.05
-76.63
-109.07
-140.63
-168.48
-190.03
-203.31
-207.27
-201.98
-188.63
-169.26
-146.35
-122.20
-98.56
-76.58
-57.00
-40.41
-27.33
-17.92
-11.56
-6.57
-0.41
9.52
24.90
45.77
70.39
95.88
119.07
137.41
149.42
154.76
154.10
148.88
141.08
132.91
126.32
122.55
121.80
123.22
125.27
126.23
124.71
120.07
112.55
103.23
93.90
86.64
83.30
84.75
90.39
98.06
104.75
107.56
104.70
95.90
82.14
65.00
46.15
27.03
8.93
-6.82
-18.97
-26.62
-29.58
-28.54
-24.88
-20.30
-16.29
-13.91
-13.61
-15.36
-18.52
-21.80
-23.37
-21.12
-13.25
1.04
21.09
44.71
68.75
90.03
106.38
117.46
124.92
131.89
141.85
157.32
178.95
205.25
233.26
259.65
281.91
298.78
310.05
315.67
315.08
307.04
290.27
264.53
231.22
193.26
154.13
116.53
81.51
48.37
15.48
-18.65
-54.50
-91.37
-127.87
-162.72
-195.46
-226.68
-257.64
-289.77
-324.13
-361.24
-401.19
-443.74
-488.01
-532.12
-573.01
-606.75
-629.51
-638.81
-634.17
-617.01
-589.60
-553.87
-510.63
-459.75
-401.23
-336.31
-267.93
-200.13
-136.81
-80.54
-32.33
7.89
40.26
64.44
79.78
86.08
84.50
77.75
69.40
62.60
58.96
58.11
58.31
57.49
54.30
48.64
41.43
34.08
28.03
24.31
23.62
26.41
32.99
43.49
57.64
74.68
93.35
112.15
129.66
144.66
155.95
162.08
161.29
151.93
133.37
106.84
75.67
44.40
17.04
-4.75
-22.61
-40.74
-63.80
-94.36
-131.11
-168.82
-200.14
-218.23
-219.24
-203.40
-174.51
-138.22
-100.14
-64.45
-33.65
-9.02
8.66
18.77
20.93
15.35
3.22
-13.25
-31.20
-47.60
-59.96
-66.75
-67.57
-63.01
-54.23
-42.47
-28.55
-12.82
4.72
23.99
44.54
65.54
86.18
106.13
125.75
145.94
167.56
191.00
215.69
240.04
261.51
277.02
283.56
279.16
263.70
239.25
209.62
179.16
151.24
127.36
106.94
88.11
68.74
47.13
22.25
-6.51
-39.48
-76.56
-116.94
-158.91
-200.15
-238.15
-270.62
-295.64
-311.58
-317.05
-311.07
-293.45
-265.02
-227.54
-183.20
-134.05
-81.80
-28.01
25.49
76.29
121.69
159.41
188.39
209.20
223.55
233.44
240.09
243.49
242.78
237.12
226.66
212.95
198.47
185.72
176.16
169.75
165.15
160.47
154.11
145.26
133.86
120.27
104.94
88.23
70.55
52.43
34.52
17.42
1.56
-12.81
-25.40
-35.58
-42.23
-43.93
-39.42
-28.06
-10.17
13.03
39.70
67.76
94.92
118.70
136.37
145.43
144.50
134.08
116.78
96.36
76.24
57.95
40.67
22.15
0.51
-24.10
-49.12
-70.44
-84.39
-89.26
-85.94
-77.15
-66.20
-55.76
-47.40
-41.79
-39.12
-39.39
-42.42
-47.65
-53.97
-59.76
-63.17
-62.68
-57.69
-48.90
-38.26
-28.46
-22.13
-20.96
-25.36
-34.62
-47.73
-64.09
-83.87
-107.69
-135.66
-166.69
-198.16
-226.47
-248.14
-260.83
-264.03
-258.92
-247.81
-233.26
-217.24
-200.68
-183.30
-163.99
-141.45
-114.76
-83.96
-50.03
-14.63
20.41
53.48
83.27
108.63
128.43
141.64
147.70
147.00
141.15
132.83
125.18
120.94
121.71
127.67
137.70
150.04
162.97
175.34
186.76
197.37
207.33
216.42
223.72
227.60
226.01
216.98
199.17
172.39
137.81
97.87
55.83
15.29
-20.42
-48.61
-67.49
-76.24
-75.04
-65.01
-48.03
-26.40
-2.48
21.74
44.77
65.61
83.71
98.86
111.12
120.76
128.08
133.18
135.85
135.60
131.88
124.20
112.27
95.79
74.54
48.39
17.72
-16.38
-52.23
-88.06
-122.83
-156.50
-189.94
-224.05
-258.76
-292.33
-321.41
-341.79
-349.50
-341.92
-318.48
-280.92
-232.95
-179.52
-125.70
-75.63
-31.81
4.99
35.32
60.34
81.16
98.62
113.19
125.00
133.76
138.72
138.73
132.66
120.15
102.15
81.16
60.64
43.85
32.77
27.33
25.65
24.88
22.37
16.69
7.96
-2.48
-12.84
-21.62
-28.08
-32.12
-33.96
-33.94
-32.43
-30.19
-28.44
-28.80
-32.71
-40.85
-52.79
-67.22
-82.54
-97.36
-110.67
-121.59
-129.04
-131.84
-129.26
-121.74
-111.25
-100.78
-93.11
-89.60
-89.49
-90.27
-88.82
-82.72
-71.05
-54.45
-34.53
-13.14
8.16
28.09
45.54
59.27
67.96
70.45
66.15
55.41
39.60
20.91
1.87
-15.19
-28.60
-37.59
-42.25
-43.39
-42.20
-40.15
-38.63
-38.68
-40.56
-43.62
-46.52
-47.91
-47.16
-44.83
-42.33
-41.14
-41.86
-43.71
-44.77
-42.73
-35.70
-22.79
-4.13
19.30
45.98
73.88
100.74
124.32
142.89
155.76
163.40
167.20
168.89
169.89
171.10
172.84
175.16
178.01
181.39
185.29
189.67
194.48
199.65
204.95
209.49
211.51
208.38
197.33
176.68
146.70
109.84
69.77
30.10
-6.79
-39.97
-69.20
-93.99
-113.08
-124.83
-128.03
-122.74
-110.32
-92.95
-72.85
-51.90
-31.68
-13.75
0.30
9.17
12.40
10.63
5.40
-1.59
-9.24
-17.49
-27.16
-39.38
-54.87
-73.46
-94.07
-114.88
-133.78
-148.81
-158.53
-162.43
-161.01
-155.70
-148.31
-140.33
-132.39
-124.20
-115.07
-104.66
-93.51
-82.99
-74.61
-69.23
-66.42
-64.54
-61.18
-54.05
-41.59
-23.51
-0.85
24.25
48.90
70.22
85.99
95.24
98.38
96.94
92.97
88.43
84.91
83.46
84.63
88.43
94.30
101.10
107.42
112.03
114.37
114.73
113.97
112.97
111.97
110.38
107.07
100.97
91.74
79.98
66.94
53.95
41.91
30.95
20.66
10.47
0.13
-9.95
-18.84
-25.48
-29.10
-29.64
-27.70
-24.34
-20.37
-16.05
-10.88
-3.99
5.20
16.49
28.72
40.18
49.19
54.66
56.19
53.91
48.26
40.00
30.16
20.05
10.84
2.83
-5.01
-14.65
-27.85
-44.59
-62.46
-77.49
-86.27
-87.99
-85.12
-81.92
-81.76
-84.73
-87.14
-83.30
-68.43
-41.15
-4.10
37.46
77.94
113.45
142.44
165.17
182.36
194.15
199.50
196.47
182.99
157.82
121.25
75.51
24.62
-26.14
-71.11
-105.31
-125.67
-132.00
-127.45
-118.11
-111.70
-115.49
-133.91
-166.83
-209.19
-252.53
-287.95
-309.58
-316.89
-314.55
-309.81
-308.47
-311.76
-315.76
-313.61
-299.35
-271.01
-231.18
-184.92
-136.64
-87.63
-35.93
21.57
86.26
155.88
224.73
285.84
333.75
366.30
384.70
391.94
390.69
381.90
364.72
337.96
301.75
258.37
211.92
166.59
124.78
86.07
47.37
3.88
-49.27
-115.52
-195.35
-285.02
-376.56
-459.37
-523.15
-561.24
-572.98
-563.45
-541.06
-513.84
-486.62
-460.30
-433.25
-403.72
-371.51
-338.21
-305.90
-275.77
-247.27
-218.53
-187.65
-153.73
-117.30
-80.24
-44.67
-11.96
17.82
45.90
74.08
103.87
135.92
170.04
205.87
243.38
282.80
323.84
364.72
401.72
430.17
446.23
448.86
440.60
426.78
413.37
404.68
402.07
404.22
408.53
412.58
414.82
414.32
410.18
401.38
387.63
370.57
354.22
344.06
344.73
357.45
378.82
401.80
418.54
423.63
416.08
399.00
377.49
356.08
337.02
320.23
304.39
288.20
271.02
252.74
233.21
211.99
188.57
162.73
134.98
106.54
78.90
53.30
30.16
9.01
-11.22
-31.59
-53.17
-75.69
-97.15
-114.34
-124.26
-125.45
-118.77
-107.16
-94.55
-85.34
-82.12
-84.89
-91.55
-99.55
-107.20
-114.25
-121.60
-130.23
-142.25
-158.13
-175.96
-191.93
-202.11
-203.89
-196.66
-181.76
-161.87
-145.16
-137.96
-141.75
-153.12
-167.08
-180.07
-190.63
-198.87
-204.89
-218.68
-246.64
-287.24
-332.06
-372.34
-403.61
-425.38
-439.25
-445.67
-461.05
-496.38
-550.60
-611.97
-667.98
-712.33
-744.71
-768.30
-784.69
-817.06
-881.62
-978.50
-1093.28
-1209.58
-1318.13
-1416.60
-1507.02
-1469.14
-1245.17
-866.47
-435.55
-47.84
253.70
469.21
617.80
705.13
760.72
781.98
763.80
711.07
639.50
564.24
491.44
427.91
373.51
331.27
288.21
238.19
186.77
147.49
130.75
137.52
161.81
195.18
234.43
267.97
289.58
300.35
306.13
311.20
314.95
313.55
302.07
279.21
240.40
185.61
120.78
55.82
0.05
-41.35
-67.79
-82.55
-89.35
-94.02
-100.49
-109.91
-121.25
-132.76
-142.99
-150.60
-154.39
-152.75
-144.83
-130.76
-111.97
-90.84
-70.03
-51.62
-36.55
-24.71
-15.16
-6.88
0.75
7.66
13.24
16.77
17.93
17.01
14.93
12.88
11.90
12.56
14.78
18.06
21.79
25.58
29.46
33.83
39.23
45.97
54.03
62.97
72.17
81.20
90.02
99.08
109.11
120.79
134.44
149.81
166.26
182.99
199.45
215.54
231.69
248.69
267.64
289.62
315.32
344.55
375.72
405.74
430.56
446.23
450.26
442.42
424.76
400.67
373.55
345.61
317.45
288.48
257.78
224.90
190.27
155.06
120.70
88.48
59.26
33.46
11.19
-7.59
-22.88
-34.68
-43.03
-48.17
-50.64
-51.25
-50.92
-50.38
-49.96
-49.49
-48.52
-46.65
-43.81
-40.35
-36.71
-32.98
-28.51
-22.00
-11.98
2.52
21.45
43.71
67.60
91.54
114.57
136.39
156.92
175.72
191.63
202.89
207.72
205.09
195.09
178.91
158.28
134.92
110.23
85.30
61.09
38.30
17.07
-3.49
-25.38
-51.28
-83.50
-122.80
-167.53
-213.78
-256.43
-290.80
-314.00
-325.32
-325.73
-316.74
-299.29
-273.49
-239.13
-196.75
-148.50
-98.42
-51.71
-13.42
12.96
26.64
29.87
27.37
25.02
28.11
39.77
60.08
86.46
114.86
141.24
162.81
177.93
185.70
185.16
175.13
154.69
123.98
84.77
40.28
-5.48
-48.45
-84.95
-111.70
-125.64
-124.06
-105.13
-68.84
-17.71
43.34
107.90
169.57
223.26
265.79
295.70
312.72
317.35
310.97
296.11
276.59
257.12
242.23
234.84
235.52
242.42
252.18
261.15
266.49
266.54
260.64
248.76
231.15
208.31
181.16
151.17
120.16
89.86
61.42
35.01
9.95
-14.92
-40.62
-67.56
-95.53
-123.77
-151.47
-178.11
-203.61
-228.47
-253.75
-281.02
-311.94
-347.44
-386.58
-425.80
-459.12
-479.60
-481.54
-462.69
-425.17
-374.92
-319.75
-267.20
-223.05
-190.70
-171.50
-165.07
-169.52
-181.35
-195.54
-206.27
-208.29
-198.72
-178.25
-151.37
-125.39
-108.08
-105.08
-117.75
-142.49
-171.86
-196.89
-209.83
-206.03
-184.32
-146.26
-95.42
-37.20
20.96
70.17
102.10
111.91
100.69
75.79
48.39
29.34
25.17
36.59
59.49
87.80
116.39
142.52
165.77
187.18
208.24
230.33
254.33
280.23
306.58
330.43
347.99
355.68
351.15
333.91
305.22
267.54
223.57
175.53
124.75
