1660934494.00
64.000000
-0.00
-0.00
-0.00
-0.00
-0.00
-0.00
-0.00
-0.00
-0.00
-0.00
0.00
0.01
0.01
-0.00
-0.03
-0.05
-0.05
0.00
0.13
0.36
0.66
1.01
1.37
1.72
2.06
2.40
2.79
3.25
3.81
4.44
5.10
5.73
6.32
6.89
7.50
8.24
9.14
10.29
11.58
12.88
14.05
15.05
15.96
16.96
18.30
20.13
22.66
25.66
28.84
31.89
34.65
37.25
40.06
43.54
48.03
53.87
60.63
67.75
74.61
80.93
86.87
93.07
100.33
109.19
120.07
132.29
144.88
156.88
167.83
178.00
188.35
200.45
213.02
228.10
245.89
266.12
287.38
306.91
320.81
325.01
316.57
294.65
261.28
219.65
173.43
125.51
77.58
30.46
-15.28
-58.86
-99.46
-136.40
-170.10
-201.82
-233.27
-266.01
-300.65
-336.28
-370.17
-398.41
-416.78
-422.43
-414.94
-396.55
-371.23
-343.19
-315.39
-289.05
-264.05
-239.83
-216.40
-194.41
-174.71
-157.63
-142.69
-128.79
-114.81
-100.23
-85.26
-70.75
-57.71
-46.80
-38.07
-31.02
-24.85
-18.81
-12.52
-5.99
0.40
6.10
10.68
14.01
16.31
18.01
19.59
21.34
23.27
25.14
26.59
27.36
27.42
26.95
26.25
25.63
25.24
25.06
24.98
24.87
24.63
24.26
23.78
23.21
22.57
21.81
20.90
19.84
18.70
17.60
16.68
16.04
15.70
15.60
15.61
15.61
15.47
15.14
14.66
14.10
13.55
13.10
12.80
12.63
12.51
12.35
12.07
11.69
11.24
10.81
10.42
10.08
9.74
9.40
9.10
8.91
8.91
9.04
9.18
9.18
8.91
8.37
7.68
7.02
6.53
6.25
6.09
5.95
5.76
5.54
5.33
5.19
5.08
4.89
4.51
3.90
3.13
2.37
1.76
1.36
1.13
0.92
0.56
-0.05
-0.91
-1.93
-2.99
-3.98
-4.80
-5.43
-5.90
-6.27
-6.62
-7.03
-7.50
-7.97
-8.36
-8.59
-8.68
-8.69
-8.71
-8.81
-8.97
-9.14
-9.23
-9.23
-9.12
-8.92
-8.61
-8.15
-7.49
-6.65
-5.72
-4.81
-4.03
-3.38
-2.84
-2.36
-1.88
-1.43
-1.02
-0.67
-0.33
0.08
0.59
1.20
1.81
2.30
2.58
2.63
2.51
2.35
2.27
2.33
2.55
2.87
3.22
3.50
3.67
3.71
3.63
3.45
3.22
2.96
2.74
2.66
2.76
3.10
3.61
4.18
4.65
4.90
4.89
4.70
4.47
4.33
4.34
4.46
4.63
4.79
4.91
4.97
4.97
4.90
4.76
4.58
4.41
4.28
4.20
4.14
4.04
3.89
3.69
3.46
3.26
3.11
3.01
2.96
2.92
2.85
2.73
2.56
2.38
2.24
2.20
2.28
2.41
2.52
2.50
2.32
2.01
1.68
1.42
1.30
1.34
1.49
1.66
1.80
1.89
1.93
1.95
1.97
1.97
1.90
1.73
1.49
1.26
1.14
1.17
1.34
1.55
1.68
1.69
1.59
1.48
1.43
1.46
1.52
1.52
1.44
1.32
1.27
1.37
1.58
1.78
1.83
1.68
1.41
1.18
1.14
1.30
1.55
1.70
1.62
1.32
0.96
0.71
0.67
0.77
0.89
0.93
0.85
0.72
0.64
0.64
0.69
0.72
0.67
0.53
0.38
0.29
0.29
0.37
0.47
0.56
0.62
0.65
0.69
0.74
0.81
0.88
0.96
1.07
1.20
1.29
1.30
1.20
0.99
0.76
0.59
0.54
0.62
0.74
0.81
0.77
0.62
0.43
0.29
0.27
0.36
0.52
0.69
0.84
0.93
0.94
0.88
0.75
0.58
0.43
0.35
0.38
0.52
0.73
0.94
1.11
1.21
1.22
1.15
1.03
0.88
0.76
0.70
0.73
0.84
0.95
1.00
0.93
0.76
0.56
0.43
0.43
0.54
0.64
0.62
0.43
0.11
-0.17
-0.27
-0.11
0.22
0.55
0.71
0.64
0.42
0.20
0.09
0.14
0.30
0.50
0.66
0.79
0.90
1.00
1.09
1.12
1.04
0.83
0.51
0.14
-0.20
-0.43
-0.52
-0.48
-0.36
-0.20
-0.03
0.13
0.29
0.42
0.50
0.47
0.30
0.04
-0.25
-0.47
-0.57
-0.58
-0.55
-0.51
-0.45
-0.33
-0.10
0.25
0.67
1.07
1.32
1.34
1.11
0.69
0.22
-0.15
-0.30
-0.22
0.03
0.30
0.46
0.45
0.28
0.06
-0.10
-0.13
-0.04
0.10
0.24
0.33
0.40
0.49
0.62
0.80
0.99
1.10
1.08
0.92
0.67
0.40
0.20
0.11
0.13
0.20
0.30
0.40
0.49
0.56
0.62
0.64
0.63
0.60
0.54
0.44
0.27
-0.00
-0.34
-0.66
-0.87
-0.87
-0.64
-0.25
0.18
0.53
0.71
0.72
0.59
0.39
0.17
0.02
-0.02
0.05
0.18
0.27
0.25
0.08
-0.15
-0.31
-0.28
-0.05
0.30
0.61
0.72
0.58
0.25
-0.14
-0.41
-0.48
-0.31
0.02
0.36
0.57
0.56
0.33
-0.01
-0.30
-0.40
-0.29
-0.04
0.24
0.43
0.51
0.53
0.55
0.60
0.67
0.72
0.69
0.58
0.41
0.20
-0.01
-0.21
-0.37
-0.47
-0.51
-0.50
-0.46
-0.45
-0.45
-0.50
-0.56
-0.62
-0.63
-0.57
-0.44
-0.28
-0.15
-0.11
-0.21
-0.42
-0.66
-0.88
-1.05
-1.21
-1.44
-1.83
-2.36
-2.96
-3.53
-3.96
-4.25
-4.44
-4.61
-4.79
-4.94
-4.99
-4.90
-4.69
-4.51
-4.57
-5.06
-6.09
-7.66
-9.63
-11.79
-13.88
-15.59
-16.65
-16.92
-16.46
-15.57
-14.70
-14.28
-14.55
-15.45
-16.74
-18.14
-19.59
-21.29
-23.66
-27.09
-31.68
-37.12
-42.75
-47.89
-52.13
-55.65
-59.18
-63.74
-70.12
-78.50
-88.30
-98.44
-107.85
-115.95
-122.98
-129.82
-137.65
-147.53
-160.15
-175.55
-192.93
-210.43
-225.15
-233.66
-232.79
-220.79
-197.88
-166.10
-128.40
-87.42
-44.59
0.14
47.50
97.81
149.90
200.92
246.96
284.41
311.23
327.62
335.70
338.44
338.35
336.64
333.38
328.32
321.93
315.81
312.22
313.05
318.75
327.91
337.53
343.94
343.87
335.18
317.29
291.06
258.25
220.86
180.48
137.82
92.70
44.48
-7.03
-60.68
-113.53
-161.27
-199.43
-224.89
-237.01
-237.75
-230.76
-219.89
-207.92
-196.00
-184.13
-172.04
-159.95
-148.59
-138.80
-130.86
-124.19
-117.64
-110.12
-101.17
-91.15
-81.11
-72.17
-65.08
-59.86
-55.91
-52.32
-48.30
-43.56
-38.30
-33.08
-28.51
-24.90
-22.20
-20.06
-18.04
-15.82
-13.34
-10.75
-8.35
-6.38
-4.97
-4.09
-3.57
-3.21
-2.81
-2.27
-1.61
-0.97
-0.49
-0.28
-0.35
-0.61
-0.90
-1.07
-1.02
-0.72
-0.24
0.31
0.75
0.98
0.96
0.77
0.55
0.41
0.43
0.55
0.70
0.78
0.78
0.75
0.73
0.76
0.81
0.83
0.75
0.56
0.30
0.08
-0.03
0.04
0.22
0.39
0.42
0.25
-0.09
-0.41
-0.54
-0.34
0.15
0.75
1.25
1.48
1.44
1.26
1.09
1.02
0.99
0.91
0.65
0.18
-0.41
-0.96
-1.26
-1.22
-0.89
-0.40
0.03
0.26
0.22
-0.04
-0.42
-0.81
-1.16
-1.47
-1.73
-1.93
-2.03
-2.02
-1.90
-1.72
-1.53
-1.34
-1.14
-0.89
-0.57
-0.18
0.22
0.60
0.88
1.02
1.03
0.91
0.73
0.56
0.50
0.63
0.96
1.43
1.92
2.28
2.37
2.18
1.78
1.30
0.94
0.80
0.90
1.19
1.54
1.78
1.83
1.59
1.10
0.43
-0.29
-0.93
-1.35
-1.50
-1.37
-1.03
-0.60
-0.19
0.08
0.16
0.03
-0.26
-0.64
-1.04
-1.35
-1.53
-1.51
-1.30
-0.95
-0.53
-0.12
0.24
0.60
1.04
1.59
2.20
2.71
2.92
2.71
2.13
1.36
0.65
0.19
-0.01
-0.05
-0.09
-0.25
-0.53
-0.83
-1.04
-1.12
-1.08
-1.01
-1.01
-1.13
-1.34
-1.55
-1.68
-1.66
-1.47
-1.18
-0.86
-0.64
-0.58
-0.70
-0.91
-1.09
-1.14
-1.00
-0.71
-0.33
0.06
0.45
0.84
1.24
1.61
1.86
1.92
1.79
1.57
1.40
1.39
1.50
1.62
1.59
1.35
0.95
0.52
0.21
0.09
0.12
0.19
0.18
0.00
-0.37
-0.90
-1.46
-1.90
-2.07
-1.94
-1.61
-1.26
-1.06
-1.07
-1.21
-1.30
-1.18
-0.76
-0.10
0.71
1.56
2.29
2.78
2.86
2.43
1.54
0.38
-0.72
-1.43
-1.59
-1.22
-0.54
0.20
0.77
1.09
1.16
1.06
0.85
0.61
0.38
0.19
0.06
-0.02
-0.08
-0.14
-0.24
-0.39
-0.57
-0.77
-0.96
-1.12
-1.23
-1.26
-1.19
-1.04
-0.86
-0.68
-0.49
-0.24
0.16
0.75
1.41
1.97
2.18
1.92
1.26
0.41
-0.32
-0.74
-0.80
-0.61
-0.36
-0.18
-0.09
-0.03
0.08
0.27
0.47
0.57
0.48
0.17
-0.29
-0.75
-1.09
-1.21
-1.14
-0.99
-0.89
-0.91
-1.02
-1.16
-1.20
-1.05
-0.68
-0.10
0.62
1.39
2.12
2.70
3.01
2.94
2.44
1.56
0.46
-0.61
-1.42
-1.79
-1.73
-1.33
-0.81
-0.34
-0.01
0.19
0.33
0.44
0.54
0.59
0.54
0.43
0.33
0.29
0.31
0.33
0.24
-0.02
-0.42
-0.86
-1.24
-1.48
-1.58
-1.59
-1.56
-1.50
-1.40
-1.23
-0.99
-0.72
-0.43
-0.14
0.19
0.63
1.21
1.84
2.36
2.57
2.32
1.66
0.78
0.01
-0.40
-0.36
-0.01
0.41
0.64
0.59
0.33
0.00
-0.24
-0.36
-0.42
-0.49
-0.61
-0.78
-0.90
-0.92
-0.85
-0.73
-0.66
-0.71
-0.86
-1.04
-1.18
-1.18
-1.02
-0.70
-0.22
0.39
1.08
1.82
2.47
2.91
3.00
2.69
2.03
1.17
0.30
-0.43
-0.93
-1.22
-1.34
-1.37
-1.33
-1.21
-0.99
-0.67
-0.30
0.07
0.31
0.33
0.11
-0.31
-0.81
-1.26
-1.56
-1.67
-1.63
-1.50
-1.30
-1.03
-0.67
-0.25
0.19
0.58
0.92
1.29
1.77
2.39
3.06
3.60
3.82
3.59
2.91
1.94
0.87
-0.07
-0.75
-1.13
-1.27
-1.27
-1.24
-1.25
-1.25
-1.16
-0.93
-0.59
-0.25
-0.06
-0.09
-0.30
-0.55
-0.71
-0.75
-0.73
-0.78
-0.96
-1.22
-1.42
-1.38
-1.06
-0.54
-0.01
0.32
0.33
0.06
-0.36
-0.73
-0.91
-0.83
-0.51
0.02
0.68
1.36
1.89
2.09
1.88
1.27
0.48
-0.23
-0.60
-0.53
-0.11
0.49
1.06
1.52
1.84
2.07
2.20
2.18
1.96
1.49
0.83
0.09
-0.61
-1.14
-1.45
-1.54
-1.47
-1.35
-1.22
-1.14
-1.11
-1.09
-1.05
-0.96
-0.76
-0.42
0.06
0.61
1.10
1.36
1.25
0.73
-0.05
-0.86
-1.43
-1.56
-1.25
-0.66
-0.07
0.30
0.37
0.22
0.06
0.08
0.33
0.74
1.14
1.37
1.37
1.19
0.94
0.70
0.47
0.20
-0.14
-0.53
-0.93
-1.27
-1.50
-1.60
-1.57
-1.44
-1.23
-1.00
-0.81
-0.68
-0.58
-0.44
-0.18
0.20
0.62
0.94
1.01
0.83
0.48
0.19
0.12
0.30
0.64
0.94
1.07
0.99
0.78
0.57
0.43
0.34
0.27
0.15
0.02
-0.08
-0.14
-0.18
-0.30
-0.55
-0.89
-1.17
-1.26
-1.09
-0.75
-0.41
-0.24
-0.29
-0.44
-0.54
-0.44
-0.14
0.28
0.70
1.07
1.40
1.76
2.18
2.60
2.88
2.90
2.59
2.04
1.41
0.88
0.57
0.45
0.41
0.29
0.02
-0.36
-0.73
-0.98
-1.06
-0.99
-0.87
-0.76
-0.71
-0.70
-0.74
-0.83
-0.99
-1.23
-1.48
-1.69
-1.78
-1.71
-1.52
-1.25
-0.99
-0.80
-0.67
-0.57
-0.44
-0.18
0.23
0.73
1.17
1.41
1.33
0.97
0.51
0.17
0.09
0.32
0.74
1.15
1.37
1.30
0.91
0.31
-0.36
-0.94
-1.31
-1.41
-1.25
-0.91
-0.47
-0.06
0.24
0.38
0.36
0.20
-0.02
-0.26
-0.50
-0.71
-0.92
-1.15
-1.39
-1.61
-1.77
-1.78
-1.55
-1.00
-0.12
1.00
2.15
3.05
3.47
3.36
2.85
2.19
1.61
1.21
0.95
0.69
0.38
0.06
-0.16
-0.20
-0.10
-0.02
-0.14
-0.54
-1.17
-1.79
-2.20
-2.23
-1.90
-1.35
-0.80
-0.42
-0.33
-0.51
-0.87
-1.28
-1.61
-1.73
-1.57
-1.12
-0.41
0.45
1.32
2.04
2.46
2.51
2.20
1.60
0.87
0.17
-0.35
-0.64
-0.69
-0.58
-0.38
-0.16
0.07
0.30
0.53
0.69
0.73
0.62
0.41
0.21
0.10
0.12
0.19
0.19
0.01
-0.37
-0.83
-1.19
-1.31
-1.18
-0.88
-0.60
-0.46
-0.51
-0.68
-0.85
-0.84
-0.53
0.09
0.95
1.84
2.52
2.78
2.55
1.90
1.05
0.25
-0.29
-0.49
-0.39
-0.16
0.05
0.11
-0.01
-0.27
-0.57
-0.84
-1.03
-1.13
-1.19
-1.25
-1.33
-1.40
-1.40
-1.29
-1.07
-0.80
-0.54
-0.35
-0.23
-0.14
-0.05
0.07
0.23
0.41
0.60
0.82
1.10
1.44
1.82
2.14
2.32
2.27
2.01
1.57
1.05
0.56
0.16
-0.13
-0.30
-0.42
-0.50
-0.57
-0.62
-0.67
-0.73
-0.86
-1.08
-1.35
-1.61
-1.73
-1.65
-1.39
-1.07
-0.82
-0.73
-0.78
-0.88
-0.91
-0.81
-0.64
-0.51
-0.53
-0.75
-1.04
-1.23
-1.06
-0.44
0.61
1.83
2.89
3.48
3.46
2.93
2.13
1.40
0.94
0.84
1.00
1.27
1.53
1.70
1.75
1.68
1.47
1.09
0.57
-0.03
-0.59
-0.96
-1.09
-0.97
-0.70
-0.39
-0.12
0.06
0.12
0.08
-0.11
-0.44
-0.87
-1.30
-1.63
-1.75
-1.66
-1.43
-1.16
-0.94
-0.73
-0.47
-0.11
0.33
0.72
0.92
0.84
0.49
0.01
-0.43
-0.70
-0.78
-0.72
-0.60
-0.51
-0.48
-0.50
-0.54
-0.60
-0.70
-0.90
-1.19
-1.52
-1.77
-1.85
-1.74
-1.49
-1.28
-1.22
-1.34
-1.56
-1.70
-1.64
-1.36
-0.93
-0.47
-0.04
0.38
0.84
1.39
1.98
2.54
2.96
3.21
3.27
3.14
2.81
2.27
1.54
0.72
-0.03
-0.52
-0.62
-0.32
0.27
0.96
1.52
1.80
1.73
1.37
0.86
0.37
-0.00
-0.21
-0.33
-0.44
-0.61
-0.87
-1.16
-1.38
-1.47
-1.40
-1.21
-0.98
-0.78
-0.64
-0.54
-0.45
-0.35
-0.26
-0.23
-0.23
-0.18
0.06
0.58
1.33
2.11
2.63
2.66
2.17
1.33
0.44
-0.21
-0.50
-0.48
-0.35
-0.32
-0.49
-0.85
-1.32
-1.77
-2.11
-2.30
-2.29
-2.11
-1.78
-1.39
-1.04
-0.84
-0.82
-0.98
-1.22
-1.41
-1.45
-1.29
-0.94
-0.50
-0.01
0.45
0.88
1.26
1.60
1.89
2.16
2.42
2.72
3.04
3.34
3.52
3.52
3.29
2.86
2.29
1.71
1.23
0.96
0.91
1.07
1.30
1.46
1.38
0.99
0.30
-0.56
-1.38
-1.98
-2.26
-2.20
-1.93
-1.63
-1.49
-1.61
-1.98
-2.45
-2.84
-2.99
-2.85
-2.49
-2.02
-1.58
-1.20
-0.89
-0.64
-0.41
-0.17
0.11
0.44
0.82
1.14
1.27
1.12
0.69
0.11
-0.37
-0.54
-0.34
0.14
0.68
1.08
1.22
1.13
0.95
0.76
0.59
0.40
0.16
-0.13
-0.35
-0.41
-0.23
0.12
0.49
0.71
0.66
0.36
-0.08
-0.52
-0.83
-0.97
-0.92
-0.72
-0.42
-0.12
0.05
-0.00
-0.31
-0.73
-1.02
-0.89
-0.17
1.07
2.51
3.73
4.33
4.17
3.39
2.29
1.24
0.46
0.03
-0.14
-0.21
-0.28
-0.40
-0.56
-0.72
-0.84
-0.94
-1.00
-1.03
-1.02
-0.97
-0.92
-0.92
-1.00
-1.15
-1.31
-1.37
-1.29
-1.04
-0.69
-0.32
-0.02
0.16
0.23
0.24
0.25
0.31
0.42
0.58
0.79
1.05
1.36
1.69
1.97
2.09
1.98
1.61
1.06
0.46
-0.04
-0.39
-0.57
-0.65
-0.68
-0.69
-0.63
-0.50
-0.31
-0.14
-0.09
-0.20
-0.46
-0.76
-0.98
-1.04
-0.94
-0.76
-0.61
-0.55
-0.56
-0.56
-0.43
-0.11
0.35
0.79
1.03
0.94
0.51
-0.12
-0.76
-1.25
-1.50
-1.51
-1.29
-0.90
-0.39
0.13
0.53
0.70
0.58
0.25
-0.12
-0.34
-0.29
0.01
0.44
0.79
0.95
0.88
0.68
0.49
0.41
0.46
0.55
0.55
0.32
-0.14
-0.74
-1.30
-1.65
-1.70
-1.48
-1.08
-0.61
-0.16
0.17
0.37
0.42
0.36
0.29
0.32
0.54
0.96
1.52
2.11
2.63
3.05
3.34
3.50
3.49
3.27
2.80
2.11
1.30
0.54
-0.06
-0.41
-0.54
-0.52
-0.48
-0.54
-0.78
-1.19
-1.69
-2.18
-2.59
-2.89
-3.12
-3.33
-3.55
-3.78
-3.99
-4.13
-4.13
-3.98
-3.66
-3.18
-2.59
-2.00
-1.49
-1.14
-0.99
-0.99
-1.03
-0.95
-0.53
0.40
1.85
3.62
5.26
6.25
6.18
5.04
3.19
1.29
-0.07
-0.59
-0.41
0.05
0.33
0.16
-0.40
-1.15
-1.87
-2.46
-3.02
-3.66
-4.41
-5.20
-5.83
-6.16
-6.16
-5.97
-5.84
-5.97
-6.44
-7.15
-7.88
-8.36
-8.45
-8.14
-7.60
-7.07
-6.75
-6.71
-6.85
-6.93
-6.63
-5.69
-3.94
-1.40
1.70
5.03
8.16
10.74
12.53
13.52
13.84
13.73
13.39
12.94
12.37
11.64
10.69
9.56
8.29
6.94
5.59
4.26
2.97
1.76
0.69
-0.17
-0.74
-0.97
-0.94
-0.78
-0.65
-0.68
-0.91
-1.23
-1.49
-1.52
-1.26
-0.76
-0.13
0.50
1.05
1.50
1.90
2.30
2.77
3.32
3.91
4.44
4.73
4.62
4.04
3.08
2.00
1.10
0.62
0.60
0.88
1.22
1.37
1.26
0.96
0.64
0.41
0.29
0.19
-0.02
-0.41
-0.97
-1.61
-2.22
-2.73
-3.14
-3.49
-3.82
-4.15
-4.44
-4.61
-4.61
-4.47
-4.26
-4.07
-3.95
-3.89
-3.81
-3.64
-3.34
-2.87
-2.23
-1.41
-0.34
0.94
2.34
3.63
4.53
4.81
4.47
3.66
2.73
1.95
1.47
1.25
1.13
0.98
0.72
0.38
0.02
-0.34
-0.71
-1.16
-1.72
-2.33
-2.86
-3.15
-3.08
-2.63
-1.89
-1.03
-0.24
0.32
0.58
0.59
0.50
0.45
0.54
0.80
1.20
1.67
2.11
2.50
2.84
3.13
3.41
3.66
3.81
3.79
3.58
3.17
2.65
2.14
1.72
1.41
1.18
0.97
0.74
0.51
0.32
0.20
0.11
-0.00
-0.19
-0.46
-0.75
-0.98
-1.10
-1.11
-1.03
-0.90
-0.73
-0.52
-0.29
-0.12
-0.07
-0.18
-0.43
-0.71
-0.93
-1.04
-1.09
-1.21
-1.51
-2.00
-2.56
-2.98
-3.07
-2.75
-2.07
-1.24
-0.45
0.14
0.48
0.64
0.70
0.76
0.82
0.85
0.80
0.66
0.46
0.28
0.19
0.23
0.38
0.58
0.75
0.81
0.71
0.46
0.10
-0.26
-0.55
-0.70
-0.71
-0.66
-0.61
-0.66
-0.81
-1.05
-1.30
-1.52
-1.63
-1.59
-1.39
-1.04
-0.58
-0.13
0.20
0.33
0.24
-0.00
-0.29
-0.50
-0.54
-0.38
0.01
0.54
1.10
1.49
1.57
1.27
0.69
0.05
-0.41
-0.55
-0.38
-0.05
0.23
0.31
0.17
-0.10
-0.36
-0.55
-0.64
-0.71
-0.83
-1.03
-1.26
-1.46
-1.54
-1.50
-1.35
-1.16
-0.99
-0.85
-0.70
-0.45
-0.09
0.38
0.83
1.13
1.16
0.93
0.55
0.24
0.24
0.66
1.44
2.35
3.08
3.41
3.31
2.90
2.37
1.91
1.53
1.16
0.73
0.25
-0.16
-0.34
-0.24
0.06
0.35
0.44
0.25
-0.18
-0.66
-1.06
-1.30
-1.42
-1.49
-1.56
-1.64
-1.68
-1.65
-1.55
-1.40
-1.25
-1.11
-0.98
-0.86
-0.78
-0.75
-0.77
-0.86
-0.98
-1.07
-1.04
-0.84
-0.42
0.22
1.00
1.78
2.40
2.71
2.64
2.25
1.70
1.22
0.98
1.03
1.26
1.46
1.43
1.08
0.49
-0.16
-0.68
-0.93
-0.94
-0.83
-0.76
-0.83
-1.05
-1.31
-1.48
-1.47
-1.27
-0.93
-0.56
-0.25
-0.04
0.08
0.13
0.14
0.13
0.11
0.13
0.26
0.58
1.15
1.92
2.75
3.46
3.88
3.90
3.56
3.01
2.40
1.89
1.52
1.28
1.08
0.85
0.58
0.24
-0.14
-0.56
-1.03
-1.54
-2.05
-2.51
-2.87
-3.09
-3.19
-3.19
-3.14
-3.08
-3.06
-3.07
-3.08
-3.06
-2.94
-2.67
-2.23
-1.69
-1.14
-0.66
-0.30
0.02
0.42
1.00
1.76
2.58
3.26
3.62
3.59
3.25
2.74
2.25
1.86
1.60
1.43
1.33
1.31
1.38
1.54
1.74
1.88
1.86
1.65
1.29
0.88
0.51
0.21
0.01
-0.10
-0.14
-0.08
0.01
0.06
-0.04
-0.36
-0.85
-1.36
-1.70
-1.72
-1.42
-0.93
-0.46
-0.18
-0.17
-0.40
-0.74
-1.04
-1.16
-1.06
-0.76
-0.36
-0.01
0.20
0.27
0.25
0.21
0.16
0.08
-0.13
-0.47
-0.89
-1.28
-1.50
-1.51
-1.38
-1.22
-1.17
-1.26
-1.49
-1.77
-2.05
-2.28
-2.44
-2.49
-2.40
-2.13
-1.68
-1.16
-0.67
-0.31
-0.08
0.07
0.24
0.48
0.76
1.05
1.31
1.60
1.94
2.32
2.62
2.65
2.27
1.50
0.55
-0.27
-0.68
-0.56
-0.04
0.61
1.08
1.17
0.88
0.36
-0.15
-0.46
-0.52
-0.40
-0.24
-0.15
-0.19
-0.32
-0.47
-0.61
-0.76
-0.99
-1.30
-1.62
-1.82
-1.74
-1.34
-0.72
-0.08
0.35
0.42
0.10
-0.49
-1.11
-1.49
-1.46
-0.95
-0.10
0.82
1.50
1.74
1.49
0.89
0.18
-0.41
-0.75
-0.86
-0.82
-0.75
-0.72
-0.75
-0.82
-0.91
-1.05
-1.24
-1.50
-1.78
-2.04
-2.23
-2.30
-2.24
-2.07
-1.80
-1.49
-1.18
-0.90
-0.69
-0.56
-0.51
-0.52
-0.51
-0.45
-0.29
-0.04
0.26
0.60
0.96
1.33
1.73
2.14
2.54
2.87
3.07
3.10
2.96
2.71
2.43
2.21
2.12
2.18
2.36
2.58
2.72
2.71
2.50
2.11
1.61
1.06
0.55
0.12
-0.20
-0.38
-0.40
-0.30
-0.15
-0.04
-0.04
-0.18
-0.42
-0.69
-0.96
-1.17
-1.32
-1.43
-1.49
-1.50
-1.42
-1.27
-1.05
-0.77
-0.43
-0.01
0.49
1.01
1.45
1.73
1.78
1.63
1.33
1.01
0.73
0.53
0.37
0.21
0.01
-0.24
-0.51
-0.75
-0.93
-0.99
-0.93
-0.76
-0.51
-0.27
-0.10
-0.04
-0.09
-0.19
-0.26
-0.25
-0.12
0.09
0.33
0.52
0.60
0.56
0.42
0.29
0.23
0.34
0.64
1.08
1.60
2.08
2.40
2.48
2.28
1.81
1.20
0.62
0.22
0.10
0.21
0.42
0.56
0.48
0.18
-0.26
-0.72
-1.09
-1.32
-1.42
-1.46
-1.47
-1.49
-1.51
-1.51
-1.48
-1.45
-1.44
-1.47
-1.52
-1.52
-1.39
-1.10
-0.65
-0.15
0.23
0.35
0.18
-0.18
-0.51
-0.60
-0.33
0.22
0.81
1.18
1.14
0.70
-0.01
-0.75
-1.33
-1.67
-1.75
-1.64
-1.38
-1.06
-0.74
-0.50
-0.36
-0.33
-0.36
-0.38
-0.34
-0.23
-0.12
-0.07
-0.16
-0.36
-0.60
-0.77
-0.80
-0.68
-0.49
-0.32
-0.26
-0.32
-0.45
-0.60
-0.70
-0.77
-0.81
-0.81
-0.67
-0.28
0.40
1.30
2.18
2.76
2.88
2.53
1.93
1.36
1.07
1.09
1.31
1.50
1.46
1.15
0.66
0.18
-0.11
-0.10
0.12
0.40
0.54
0.42
0.04
-0.49
-0.96
-1.24
-1.27
-1.12
-0.94
-0.87
-0.96
-1.16
-1.35
-1.39
-1.21
-0.85
-0.39
0.07
0.48
0.85
1.17
1.41
1.50
1.38
1.06
0.64
0.28
0.14
0.26
0.62
1.06
1.43
1.58
1.47
1.11
0.57
-0.05
-0.64
-1.10
-1.39
-1.46
-1.33
-1.08
-0.76
-0.50
-0.38
-0.45
-0.73
-1.16
-1.65
-2.04
-2.20
-2.07
-1.69
-1.21
-0.78
-0.45
-0.16
0.25
0.94
1.85
2.73
3.24
3.11
2.37
1.33
0.43
0.02
0.18
0.72
1.30
1.65
1.62
1.28
0.74
0.18
-0.32
-0.72
-1.00
-1.16
-1.22
-1.25
-1.31
-1.46
-1.67
-1.87
-1.98
-1.91
-1.66
-1.29
-0.91
-0.58
-0.32
-0.09
0.20
0.58
1.05
1.57
2.08
2.51
2.83
2.96
2.89
2.58
2.07
1.45
0.84
0.35
0.02
-0.15
-0.23
-0.28
-0.34
-0.40
-0.46
-0.51
-0.55
-0.60
-0.67
-0.78
-0.96
-1.18
-1.39
-1.52
-1.53
-1.45
-1.36
-1.39
-1.60
-1.93
-2.22
-2.28
-2.02
-1.48
-0.81
-0.19
0.26
0.50
0.59
0.58
0.48
0.27
-0.07
-0.51
-0.95
-1.23
-1.20
-0.81
-0.11
0.70
1.43
1.89
2.02
1.91
1.68
1.42
1.16
0.86
0.50
0.11
-0.24
-0.41
-0.38
-0.17
0.06
0.19
0.17
0.02
-0.13
-0.20
-0.16
-0.04
0.08
0.14
0.10
0.00
-0.06
0.03
0.36
0.91
1.60
2.25
2.69
2.79
2.51
1.96
1.28
0.68
0.25
0.03
-0.06
-0.15
-0.28
-0.44
-0.53
-0.47
-0.25
0.04
0.24
0.18
-0.22
-0.91
-1.74
-2.51
-3.06
-3.26
-3.09
-2.65
-2.08
-1.56
-1.23
-1.15
-1.30
-1.54
-1.73
-1.74
-1.48
-0.95
-0.17
0.74
1.62
2.26
2.51
2.30
1.75
1.08
0.57
0.43
0.72
1.31
2.02
2.60
2.94
3.02
2.91
2.69
2.39
1.99
1.44
0.76
0.03
-0.63
-1.13
-1.43
-1.57
-1.64
-1.72
-1.84
-1.98
-2.09
-2.10
-1.98
-1.74
-1.45
-1.23
-1.18
-1.36
-1.70
-2.03
-2.14
-1.89
-1.24
-0.32
0.66
1.44
1.82
1.73
1.23
0.51
-0.16
-0.54
-0.51
-0.15
0.38
0.87
1.18
1.30
1.30
1.26
1.21
1.11
0.88
0.51
0.06
-0.35
-0.60
-0.63
-0.45
-0.15
0.14
0.32
0.35
0.20
-0.09
-0.45
-0.78
-0.98
-1.00
-0.78
-0.31
0.35
1.14
1.92
2.52
2.76
2.53
1.81
0.73
-0.45
-1.44
-2.01
-2.11
-1.83
-1.39
-1.01
-0.82
-0.84
-0.97
-1.13
-1.26
-1.38
-1.55
-1.78
-2.03
-2.21
-2.27
-2.18
-1.99
-1.75
-1.46
-1.11
-0.64
-0.07
0.49
0.88
0.96
0.72
0.26
-0.20
-0.45
-0.37
0.02
0.62
1.31
2.00
2.71
3.44
4.18
4.85
5.31
5.50
5.39
5.08
4.67
4.27
3.91
3.58
3.25
2.92
2.62
2.32
1.99
1.54
0.86
-0.06
-1.16
-2.30
-3.30
-4.00
-4.38
-4.44
-4.29
-4.01
-3.67
-3.29
-2.88
-2.39
-1.81
-1.13
-0.37
0.39
1.07
1.60
1.91
2.00
1.89
1.64
1.31
0.93
0.56
0.21
-0.07
-0.23
-0.25
-0.15
0.03
0.17
0.21
0.11
-0.08
-0.29
-0.46
-0.55
-0.60
-0.63
-0.65
-0.66
-0.59
-0.42
-0.18
0.06
0.19
0.11
-0.18
-0.58
-0.98
-1.25
-1.32
-1.23
-1.08
-0.99
-0.99
-1.07
-1.13
-1.14
-1.10
-1.08
-1.17
-1.39
-1.64
-1.80
-1.75
-1.47
-1.01
-0.53
-0.12
0.16
0.34
0.49
0.62
0.71
0.70
0.54
0.20
-0.29
-0.83
-1.34
-1.73
-1.99
-2.12
-2.21
-2.32
-2.51
-2.81
-3.19
-3.61
-3.98
-4.20
-4.24
-4.10
-3.81
-3.46
-3.10
-2.78
-2.51
-2.36
-2.37
-2.56
-2.94
-3.44
-3.99
-4.51
-4.99
-5.48
-5.99
-6.46
-6.73
-6.62
-5.99
-4.77
-3.00
-0.71
1.99
5.00
8.12
11.06
13.48
15.10
15.82
15.74
15.11
14.25
13.40
12.65
11.95
11.19
10.19
8.84
7.00
4.61
1.74
-1.46
-4.70
-7.67
-10.13
-11.97
-13.22
-13.97
-14.30
-14.19
-13.56
-12.39
-10.75
-8.88
-7.04
-5.43
-4.05
-2.67
-1.02
1.09
3.58
6.08
8.09
9.23
9.42
8.94
8.27
7.84
7.85
8.17
8.48
8.48
8.03
7.23
6.26
5.32
4.47
3.65
2.75
1.70
0.52
-0.67
-1.71
-2.51
-3.05
-3.45
-3.86
-4.42
-5.14
-5.91
-6.55
-6.93
-7.04
-7.01
-7.08
-7.44
-8.15
-9.05
-9.89
-10.41
-10.48
-10.18
-9.73
-9.35
-9.14
-9.00
-8.71
-8.03
-6.85
-5.17
-3.09
-0.75
1.69
4.07
6.16
7.70
8.48
8.44
7.73
6.64
5.52
4.56
3.81
3.18
2.60
2.13
1.98
2.38
3.48
5.24
7.42
9.61
11.41
12.56
12.97
12.71
12.01
11.09
10.13
9.28
8.58
8.09
7.80
7.73
7.83
8.06
8.29
8.38
8.23
7.79
7.10
6.27
5.46
4.80
4.37
4.17
4.08
3.94
3.52
2.71
1.52
0.16
-1.07
-1.84
-1.96
-1.49
-0.70
0.07
0.49
0.41
-0.13
-0.96
-1.85
-2.58
-2.97
-2.91
-2.34
-1.30
0.13
1.76
3.40
4.87
6.03
6.86
7.41
7.77
7.97
7.98
7.65
6.79
5.25
3.04
0.36
-2.41
-4.88
-6.74
-7.89
-8.43
-8.58
-8.51
-8.35
-8.10
-7.72
-7.21
-6.65
-6.15
-5.78
-5.53
-5.31
-4.97
-4.40
-3.59
-2.67
-1.79
-1.11
-0.68
-0.50
-0.49
-0.62
-0.88
-1.33
-1.97
-2.76
-3.58
-4.26
-4.66
-4.73
-4.54
-4.21
-3.90
-3.68
-3.57
-3.53
-3.46
-3.32
-3.07
-2.76
-2.40
-2.02
-1.62
-1.18
-0.71
-0.27
0.06
0.18
0.03
-0.32
-0.75
-1.09
-1.20
-1.06
-0.72
-0.33
-0.02
0.13
0.11
0.02
-0.04
0.03
0.23
0.52
0.78
0.89
0.79
0.49
0.05
-0.39
-0.74
-0.95
-1.01
-0.98
-0.94
-0.95
-1.01
-1.10
-1.15
-1.10
-0.96
-0.72
-0.46
-0.23
-0.06
0.04
0.07
0.06
0.04
0.06
0.15
0.30
0.45
0.50
0.42
0.22
0.00
-0.13
-0.13
-0.06
-0.06
-0.22
-0.57
-1.00
-1.37
-1.55
-1.49
-1.26
-0.97
-0.71
-0.54
-0.45
-0.41
-0.40
-0.39
-0.39
-0.42
-0.45
-0.47
-0.43
-0.28
-0.03
0.32
0.71
1.08
1.36
1.51
1.48
1.31
1.02
0.71
0.47
0.37
0.42
0.53
0.62
0.56
0.33
-0.01
-0.36
-0.62
-0.72
-0.65
-0.48
-0.24
-0.00
0.24
0.47
0.72
0.99
1.21
1.32
1.22
0.89
0.39
-0.15
-0.57
-0.77
-0.76
-0.62
-0.54
-0.64
-0.94
-1.34
-1.67
-1.79
-1.64
-1.26
-0.78
-0.33
0.00
0.20
0.31
0.38
0.45
0.50
0.51
0.46
0.36
0.21
0.04
-0.12
-0.24
-0.31
-0.28
-0.19
-0.06
0.05
0.10
0.08
0.01
-0.10
-0.18
-0.22
-0.20
-0.14
-0.05
0.04
0.11
0.18
0.23
0.28
0.30
0.26
0.16
0.05
-0.02
0.01
0.12
0.22
0.23
0.09
-0.19
-0.49
-0.73
-0.83
-0.81
-0.73
-0.64
-0.57
-0.51
-0.43
-0.29
-0.10
0.12
0.32
0.47
0.51
0.45
0.34
0.23
0.16
0.16
0.19
0.21
0.20
0.15
0.11
0.13
0.22
0.36
0.50
0.59
0.61
0.54
0.42
0.27
0.12
0.03
0.06
0.24
0.50
0.76
0.88
0.79
0.54
0.24
0.02
-0.01
0.13
0.37
0.62
0.81
0.90
0.87
0.69
0.39
-0.02
-0.46
-0.85
-1.13
-1.27
-1.28
-1.17
-0.98
-0.77
-0.59
-0.48
-0.40
-0.30
-0.11
0.16
0.42
0.56
0.50
0.28
0.03
-0.15
-0.21
-0.21
-0.22
-0.26
-0.29
-0.21
0.02
0.33
0.58
0.66
0.53
0.29
0.11
0.10
0.27
0.52
0.70
0.68
0.46
0.13
-0.19
-0.35
-0.30
-0.10
0.15
0.37
0.49
0.53
0.50
0.41
0.25
0.02
-0.25
-0.53
-0.75
-0.90
-1.00
-1.07
-1.11
-1.10
-1.01
-0.82
-0.60
-0.42
-0.35
-0.39
-0.45
-0.45
-0.33
-0.14
0.03
0.12
0.11
0.08
0.10
0.20
0.31
0.32
0.13
-0.28
-0.81
-1.31
-1.66
-1.82
-1.83
-1.79
-1.78
-1.79
-1.82
-1.81
-1.80
-1.82
-1.90
-2.08
-2.32
-2.59
-2.86
-3.11
-3.38
-3.66
-3.93
-4.15
-4.27
-4.29
-4.27
-4.30
-4.44
-4.73
-5.14
-5.62
-6.04
-6.27
-6.15
-5.56
-4.46
-2.99
-1.42
-0.13
0.51
0.34
-0.57
-1.95
-3.45
-4.76
-5.72
-6.29
-6.51
-6.43
-6.09
-5.56
-4.91
-4.17
-3.29
-2.21
-0.83
0.87
2.76
4.67
6.41
7.93
9.27
10.53
11.81
13.12
14.39
15.54
16.50
17.23
17.72
17.91
17.76
17.19
16.18
14.78
13.07
11.18
9.16
7.08
4.96
2.90
1.02
-0.54
-1.73
-2.57
-3.13
-3.51
-3.77
-3.89
-3.83
-3.58
-3.21
-2.82
-2.49
-2.26
-2.11
-1.99
-1.88
-1.83
-1.85
-1.96
-2.10
-2.19
-2.18
-2.09
-1.94
-1.77
-1.59
-1.39
-1.21
-1.07
-1.06
-1.18
-1.38
-1.55
-1.56
-1.35
-0.95
-0.49
-0.10
0.14
0.23
0.20
0.10
-0.08
-0.31
-0.57
-0.82
-0.95
-0.91
-0.70
-0.39
-0.08
0.12
0.13
-0.03
-0.30
-0.60
-0.86
-1.04
-1.12
-1.10
-0.97
-0.73
-0.39
-0.04
0.18
0.14
-0.19
-0.71
-1.19
-1.41
-1.25
-0.77
-0.17
0.30
0.43
0.19
-0.36
-1.06
-1.79
-2.47
-3.07
-3.53
-3.78
-3.71
-3.25
-2.40
-1.30
-0.17
0.74
1.26
1.38
1.25
1.03
0.88
0.86
0.92
0.99
0.97
0.85
0.63
0.39
0.20
0.12
0.17
0.34
0.58
0.87
1.19
1.56
1.99
2.44
2.81
2.96
2.81
2.37
1.76
1.16
0.72
0.52
0.49
0.56
0.63
0.66
0.66
0.65
0.64
0.62
0.60
0.58
0.58
0.61
0.62
0.54
0.34
-0.01
-0.42
-0.80
-1.02
-1.04
-0.87
-0.58
-0.28
-0.07
-0.00
-0.07
-0.22
-0.35
-0.39
-0.31
-0.11
0.14
0.35
0.47
0.49
0.43
0.36
0.32
0.33
0.39
0.47
0.54
0.57
0.51
0.33
0.06
-0.22
-0.42
-0.46
-0.33
-0.11
0.11
0.24
0.30
0.34
0.45
0.65
0.89
1.02
0.92
0.55
-0.04
-0.65
-1.11
-1.29
-1.20
-0.94
-0.65
-0.45
-0.38
-0.41
-0.48
-0.57
-0.64
-0.70
-0.74
-0.73
-0.64
-0.42
-0.10
0.24
0.48
0.53
0.38
0.11
-0.14
-0.23
-0.13
0.11
0.35
0.46
0.38
0.18
-0.02
-0.08
0.04
0.30
0.57
0.74
0.77
0.65
0.46
0.29
0.18
0.15
0.17
0.19
0.17
0.10
0.02
-0.06
-0.09
-0.06
-0.00
0.08
0.13
0.13
0.07
-0.07
-0.26
-0.48
-0.66
-0.74
-0.67
-0.46
-0.20
0.01
0.11
0.07
-0.03
-0.15
-0.23
-0.27
-0.31
-0.38
-0.48
-0.59
-0.69
-0.76
-0.79
-0.74
-0.60
-0.34
0.02
0.40
0.75
1.02
1.17
1.22
1.17
1.01
0.75
0.42
0.11
-0.08
-0.11
0.01
0.17
0.25
0.19
-0.01
-0.25
-0.42
-0.47
-0.39
-0.26
-0.17
-0.17
-0.26
-0.37
-0.45
-0.48
-0.45
-0.41
-0.37
-0.38
-0.40
-0.45
-0.50
-0.51
-0.47
-0.36
-0.19
-0.02
0.08
0.04
-0.14
-0.37
-0.53
-0.49
-0.27
0.02
0.22
0.23
0.06
-0.17
-0.32
-0.33
-0.22
-0.11
-0.04
-0.03
-0.03
0.01
0.09
0.14
0.10
-0.03
-0.18
-0.24
-0.11
0.22
0.62
0.95
1.11
1.05
0.84
0.56
0.30
0.07
-0.15
-0.40
-0.69
-0.99
-1.26
-1.42
-1.46
-1.39
-1.28
-1.16
-1.07
-1.01
-0.91
-0.74
-0.48
-0.16
0.16
0.42
0.60
0.70
0.80
0.93
1.12
1.31
1.43
1.40
1.19
0.85
0.46
0.14
-0.06
-0.11
-0.03
0.09
0.21
0.27
0.27
0.23
0.24
0.38
0.67
1.09
1.50
1.75
1.72
1.37
0.80
0.16
-0.36
-0.67
-0.76
-0.71
-0.58
-0.44
-0.35
-0.32
-0.36
-0.49
-0.70
-0.92
-1.13
-1.24
-1.24
-1.12
-0.90
-0.63
-0.34
-0.06
0.16
0.32
0.42
0.51
0.63
0.78
0.91
0.94
0.80
0.52
0.19
-0.08
-0.23
-0.25
-0.22
-0.20
-0.19
-0.16
-0.08
0.03
0.09
0.01
-0.20
-0.45
-0.60
-0.56
-0.38
-0.17
-0.10
-0.22
-0.44
-0.60
-0.57
-0.34
-0.04
0.14
0.10
-0.12
-0.37
-0.45
-0.26
0.14
0.58
0.84
0.81
0.52
0.11
-0.22
-0.33
-0.18
0.16
0.55
0.84
0.96
0.87
0.64
0.38
0.18
0.10
0.11
0.13
0.08
-0.05
-0.22
-0.31
-0.27
-0.10
0.10
0.23
0.23
0.12
0.00
-0.05
0.02
0.17
0.34
0.48
0.53
0.49
0.32
0.04
-0.33
-0.70
-0.98
-1.06
-0.95
-0.69
-0.39
-0.16
-0.05
-0.08
-0.17
-0.27
-0.33
-0.37
-0.39
-0.40
-0.39
-0.33
-0.17
0.07
0.36
0.60
0.72
0.69
0.53
0.31
0.09
-0.08
-0.18
-0.22
-0.20
-0.12
0.00
0.17
0.35
0.51
0.61
0.61
0.48
0.22
-0.09
-0.38
-0.55
-0.56
-0.42
-0.20
0.01
0.14
0.17
0.14
0.06
-0.02
-0.12
-0.24
-0.38
-0.48
-0.49
-0.37
-0.13
0.16
0.36
0.38
0.19
-0.15
-0.48
-0.65
-0.56
-0.25
0.15
0.45
0.53
0.35
0.00
-0.37
-0.62
-0.69
-0.59
-0.40
-0.24
-0.14
-0.11
-0.09
-0.01
0.17
0.41
0.62
0.71
0.61
0.35
0.04
-0.16
-0.13
0.13
0.49
0.76
0.78
0.52
0.11
-0.23
-0.33
-0.16
0.19
0.54
0.75
0.77
0.65
0.47
0.30
0.13
-0.07
-0.30
-0.52
-0.65
-0.63
-0.49
-0.33
-0.26
-0.33
-0.47
-0.56
-0.45
-0.11
0.36
0.82
1.09
1.11
0.93
0.66
0.35
0.05
-0.26
-0.55
-0.77
-0.84
-0.70
-0.40
-0.07
0.16
0.20
0.03
-0.26
-0.58
-0.81
-0.91
-0.85
-0.63
-0.30
0.07
0.41
0.64
0.74
0.72
0.64
0.57
0.53
0.49
0.35
0.05
-0.38
-0.80
-1.03
-0.94
-0.53
0.02
0.47
0.63
0.45
0.08
-0.28
-0.49
-0.52
-0.46
-0.40
-0.37
-0.32
-0.18
0.08
0.38
0.59
0.63
0.51
0.30
0.14
0.10
0.14
0.19
0.16
0.05
-0.07
-0.11
-0.02
0.18
0.40
0.53
0.53
0.42
0.27
0.13
0.00
-0.13
-0.28
-0.42
-0.45
-0.30
0.04
0.49
0.92
1.21
1.25
1.07
0.74
0.35
0.01
-0.18
-0.22
-0.12
0.03
0.11
0.07
-0.11
-0.37
-0.61
-0.71
-0.65
-0.45
-0.18
0.06
0.23
0.30
0.26
0.10
-0.13
-0.36
-0.50
-0.50
-0.38
-0.23
-0.16
-0.21
-0.33
-0.43
-0.42
-0.29
-0.09
0.07
0.17
0.19
0.20
0.25
0.34
0.44
0.50
0.49
0.43
0.32
0.18
0.02
-0.16
-0.32
-0.43
-0.46
-0.37
-0.17
0.12
0.43
0.67
0.75
0.65
0.40
0.11
-0.16
-0.39
-0.65
-0.98
-1.37
-1.71
-1.84
-1.63
-1.10
-0.37
0.39
0.99
1.36
1.46
1.35
1.08
0.72
0.33
-0.00
-0.21
-0.23
-0.09
0.16
0.43
0.59
0.59
0.44
0.17
-0.10
-0.30
-0.38
-0.30
-0.13
0.10
0.30
0.44
0.48
0.42
0.28
0.11
-0.05
-0.15
-0.16
-0.08
0.05
0.17
0.24
0.21
0.11
-0.03
-0.15
-0.23
-0.25
-0.23
-0.18
-0.13
-0.06
0.02
0.13
0.23
0.32
0.36
0.34
0.24
0.07
-0.18
-0.48
-0.76
-0.95
-0.98
-0.84
-0.56
-0.25
-0.02
0.08
0.03
-0.15
-0.37
-0.57
-0.69
-0.68
-0.53
-0.28
0.01
0.23
0.30
0.22
0.03
-0.16
-0.29
-0.33
-0.28
-0.18
-0.03
0.16
0.37
0.53
0.58
0.48
0.25
-0.02
-0.23
-0.33
-0.31
-0.22
-0.13
-0.07
-0.04
-0.03
-0.03
-0.03
-0.03
0.00
0.06
0.15
0.25
0.33
0.37
0.34
0.29
0.22
0.19
0.20
0.23
0.25
0.25
0.20
0.08
-0.09
-0.32
-0.55
-0.73
-0.82
-0.77
-0.60
-0.38
-0.16
-0.01
0.08
0.12
0.16
0.23
0.34
0.47
0.60
0.71
0.73
0.65
0.45
0.16
-0.10
-0.21
-0.11
0.19
0.57
0.85
0.90
0.69
0.30
-0.12
-0.45
-0.63
-0.69
-0.69
-0.67
-0.61
-0.48
-0.27
-0.04
0.15
0.24
0.23
0.17
0.09
0.03
0.00
-0.04
-0.11
-0.21
-0.33
-0.43
-0.49
-0.49
-0.42
-0.28
-0.09
0.13
0.34
0.53
0.66
0.73
0.75
0.75
0.76
0.83
1.00
1.23
1.42
1.45
1.25
0.80
0.22
-0.33
-0.70
-0.83
-0.75
-0.57
-0.39
-0.28
-0.30
-0.44
-0.67
-0.91
-1.07
-1.04
-0.79
-0.34
0.17
0.57
0.71
0.53
0.13
-0.33
-0.67
-0.81
-0.74
-0.56
-0.37
-0.21
-0.07
0.08
0.24
0.36
0.35
0.17
-0.16
-0.51
-0.72
-0.68
-0.37
0.09
0.54
0.84
0.92
0.83
0.63
0.41
0.23
0.11
0.07
0.09
0.16
0.24
0.28
0.27
0.19
0.07
-0.05
-0.15
-0.21
-0.24
-0.21
-0.13
0.02
0.24
0.46
0.59
0.55
0.30
-0.12
-0.61
-1.02
-1.23
-1.18
-0.92
-0.56
-0.22
0.01
0.11
0.09
-0.00
-0.10
-0.17
-0.17
-0.06
0.13
0.38
0.59
0.68
0.57
0.27
-0.15
-0.53
-0.75
-0.71
-0.42
0.01
0.43
0.68
0.68
0.44
0.07
-0.27
-0.49
-0.53
-0.45
-0.31
-0.18
-0.09
-0.03
0.03
0.10
0.19
0.27
0.33
0.35
0.32
0.23
0.08
-0.08
-0.20
-0.20
-0.06
0.20
0.51
0.80
0.97
0.98
0.83
0.54
0.20
-0.13
-0.39
-0.52
-0.52
-0.38
-0.14
0.14
0.37
0.51
0.52
0.43
0.30
0.18
0.11
0.07
0.04
0.00
-0.03
-0.04
-0.00
0.06
0.11
0.09
-0.00
-0.16
-0.31
-0.39
-0.39
-0.29
-0.14
0.03
0.19
0.31
0.39
0.42
0.41
0.36
0.27
0.14
-0.01
-0.16
-0.27
-0.30
-0.25
-0.10
0.11
0.32
0.47
0.50
0.41
0.19
-0.11
-0.39
-0.58
-0.62
-0.49
-0.25
0.01
0.21
0.28
0.21
0.02
-0.24
-0.51
-0.71
-0.80
-0.74
-0.58
-0.38
-0.21
-0.11
-0.08
-0.11
-0.15
-0.20
-0.26
-0.33
-0.39
-0.41
-0.35
-0.24
-0.09
0.04
0.13
0.17
0.18
0.18
0.18
0.16
0.15
0.16
0.21
0.31
0.46
0.64
0.80
0.92
0.96
0.91
0.77
0.57
0.35
0.15
-0.03
-0.19
-0.37
-0.60
-0.89
-1.17
-1.35
-1.35
-1.13
-0.77
-0.41
-0.22
-0.27
-0.52
-0.84
-1.07
-1.08
-0.87
-0.50
-0.06
0.36
0.73
1.03
1.25
1.37
1.39
1.28
1.05
0.75
0.43
0.16
0.03
0.07
0.29
0.59
0.86
0.97
0.89
0.62
0.26
-0.08
-0.33
-0.45
-0.48
-0.42
-0.31
-0.18
-0.05
0.02
-0.01
-0.15
-0.36
-0.57
-0.70
-0.74
-0.70
-0.63
-0.56
-0.49
-0.40
-0.25
-0.05
0.19
0.41
0.56
0.63
0.63
0.62
0.64
0.67
0.69
0.62
0.44
0.20
-0.00
-0.07
0.03
0.26
0.49
0.61
0.55
0.33
0.06
-0.14
-0.19
-0.08
0.15
0.41
0.61
0.67
0.56
0.29
-0.07
-0.43
-0.70
-0.81
-0.73
-0.51
-0.22
0.03
0.19
0.24
0.20
0.14
0.11
0.12
0.13
0.08
-0.06
-0.25
-0.44
-0.53
-0.50
-0.39
-0.31
-0.33
-0.46
-0.61
-0.66
-0.55
-0.33
-0.14
-0.11
-0.28
-0.55
-0.73
-0.69
-0.41
-0.00
0.35
0.51
0.44
0.22
-0.04
-0.24
-0.33
-0.30
-0.17
0.03
0.25
0.43
0.50
0.45
0.28
0.05
-0.15
-0.27
-0.33
-0.35
-0.39
-0.48
-0.61
-0.72
-0.73
-0.63
-0.44
-0.25
-0.14
-0.17
-0.33
-0.54
-0.72
-0.79
-0.77
-0.74
-0.77
-0.93
-1.22
-1.54
-1.85
-2.09
-2.28
-2.47
-2.71
-2.98
-3.21
-3.34
-3.35
-3.27
-3.22
-3.26
-3.43
-3.67
-3.87
-3.94
-3.84
-3.62
-3.35
-3.08
-2.78
-2.33
-1.65
-0.72
0.35
1.37
2.09
2.39
2.29
1.96
1.68
1.68
2.06
2.73
3.48
4.08
4.44
4.62
4.77
5.05
5.49
5.98
6.33
6.43
6.28
6.00
5.72
5.52
5.34
5.11
4.75
4.28
3.77
3.34
3.01
2.78
2.58
2.36
2.11
1.85
1.59
1.33
1.05
0.73
0.39
0.06
-0.20
-0.38
-0.49
-0.55
-0.58
-0.57
-0.51
-0.39
-0.22
-0.06
0.05
0.10
0.12
0.16
0.27
0.46
0.72
1.04
1.39
1.72
1.99
2.16
2.19
2.14
2.09
2.13
2.29
2.52
2.67
2.65
2.39
1.96
1.48
1.13
0.99
1.12
1.49
2.00
2.53
2.90
3.01
2.79
2.29
1.66
1.11
0.80
0.80
1.01
1.26
1.31
1.00
0.24
-0.94
-2.45
-4.15
-5.91
-7.55
-8.92
-9.77
-9.92
-9.23
-7.70
-5.48
-2.92
-0.48
1.37
2.27
2.10
1.04
-0.50
-2.03
-3.14
-3.63
-3.53
-3.04
-2.38
-1.74
-1.20
-0.85
-0.70
-0.77
-1.02
-1.37
-1.70
-1.91
-1.98
-1.93
-1.83
-1.72
-1.61
-1.50
-1.39
-1.31
-1.27
-1.26
-1.25
-1.16
-0.93
-0.58
-0.21
0.04
0.08
-0.10
-0.38
-0.61
-0.69
-0.59
-0.42
-0.29
-0.28
-0.37
-0.48
-0.51
-0.39
-0.16
0.14
0.40
0.57
0.59
0.46
0.16
-0.26
-0.71
-1.08
-1.28
-1.28
-1.13
-0.96
-0.88
-0.96
-1.17
-1.44
-1.67
-1.81
-1.86
-1.89
-1.94
-2.06
-2.22
-2.35
-2.37
-2.22
-1.90
-1.46
-1.01
-0.68
-0.57
-0.71
-1.11
-1.68
-2.30
-2.80
-3.07
-3.03
-2.74
-2.33
-1.97
-1.78
-1.80
-1.92
-1.98
-1.81
-1.35
-0.64
0.21
1.08
1.84
2.45
2.87
3.11
3.18
3.15
3.08
3.05
3.10
3.20
3.26
3.16
2.79
2.10
1.13
-0.02
-1.18
-2.20
-3.00
-3.57
-3.98
-4.34
-4.69
-4.97
-4.97
-4.49
-3.38
-1.72
0.18
1.91
3.08
3.45
3.03
2.01
0.62
-0.90
-2.45
-4.05
-5.79
-7.80
-10.11
-12.63
-15.08
-17.08
-18.29
-18.63
-18.43
-18.40
-19.44
-22.16
-26.57
-31.94
-37.06
-40.76
-42.49
-42.65
-42.46
-43.44
-46.71
-52.40
-59.58
-66.62
-71.83
-74.24
-73.89
-71.81
-69.69
-69.39
-72.33
-78.90
-87.90
-96.24
-99.19
-91.50
-69.15
-31.26
18.70
73.34
123.34
160.48
180.24
183.09
173.59
158.14
142.30
129.10
118.85
110.23
101.86
93.30
85.23
78.83
74.83
73.09
72.74
72.66
72.03
70.71
69.05
67.67
67.00
67.16
68.13
69.99
73.30
78.90
87.15
96.95
104.94
106.14
95.71
71.40
35.22
-6.69
-46.24
-76.48
-94.12
-100.07
-98.10
-92.49
-86.12
-79.99
-73.97
-67.96
-62.54
-58.68
-57.01
-57.22
-58.06
-57.93
-55.69
-51.19
-45.28
-39.40
-34.89
-32.47
-31.95
-32.46
-32.76
-31.83
-29.19
-25.10
-20.29
-15.67
-11.92
-9.24
-7.39
-5.88
-4.28
-2.43
-0.51
1.12
2.15
2.49
2.31
1.94
1.70
1.75
2.06
2.48
2.85
3.11
3.29
3.49
3.78
4.17
4.59
4.89
4.94
4.62
3.90
2.83
1.53
0.20
-0.98
-1.83
-2.30
-2.40
-2.23
-1.93
-1.62
-1.38
-1.25
-1.18
-1.13
-1.02
-0.81
-0.51
-0.17
0.13
0.28
0.22
-0.08
-0.56
-1.12
-1.61
-1.87
-1.82
-1.47
-0.90
-0.30
0.18
0.45
0.49
0.39
0.25
0.12
0.06
0.05
0.09
0.15
0.18
0.17
0.10
-0.04
-0.18
-0.28
-0.29
-0.19
-0.01
0.20
0.40
0.58
0.74
0.91
1.10
1.34
1.59
1.84
2.06
2.24
2.41
2.55
2.65
2.64
2.46
2.07
1.49
0.82
0.16
-0.39
-0.80
-1.14
-1.48
-1.89
-2.36
-2.82
-3.17
-3.37
-3.44
-3.45
-3.48
-3.58
-3.75
-3.93
-4.07
-4.09
-3.98
-3.75
-3.42
-3.07
-2.80
-2.69
-2.81
-3.14
-3.57
-3.94
-4.14
-4.16
-4.12
-4.25
-4.76
-5.73
-7.02
-8.36
-9.41
-9.93
-9.89
-9.57
-9.43
-9.95
-11.36
-13.53
-15.98
-18.10
-19.45
-20.01
-20.27
-20.95
-22.72
-25.82
-29.89
-34.22
-38.02
-40.93
-43.15
-45.37
-48.40
-52.78
-58.59
-65.48
-72.57
-78.34
-80.44
-75.86
-61.97
-37.94
-5.88
29.22
61.15
84.96
98.96
105.06
107.24
109.16
112.23
115.46
116.86
115.28
111.41
107.30
104.95
105.04
106.81
108.90
110.22
110.13
107.79
101.55
89.08
68.61
40.48
7.92
-23.74
-49.09
-64.89
-71.15
-70.50
-66.50
-61.76
-57.31
-52.97
-48.45
-44.04
-40.58
-38.82
-38.72
-39.36
-39.36
-37.62
-33.84
-28.71
-23.55
-19.66
-17.78
-17.76
-18.72
-19.45
-18.99
-16.98
-13.74
-10.06
-6.80
-4.54
-3.39
-3.02
-2.90
-2.54
-1.69
-0.45
0.87
1.93
2.51
2.60
2.42
2.28
2.45
3.00
3.84
4.74
5.45
5.78
5.71
5.27
4.57
3.65
2.52
1.19
-0.31
-1.82
-3.15
-4.08
-4.56
-4.70
-4.75
-4.98
-5.47
-6.10
-6.63
-6.79
-6.49
-5.82
-5.03
-4.34
-3.86
-3.51
-3.12
-2.57
-1.87
-1.16
-0.58
-0.20
0.01
0.17
0.37
0.66
0.99
1.31
1.59
1.82
2.04
2.27
2.54
2.84
3.13
3.35
3.46
3.43
3.33
3.26
3.36
3.73
4.34
5.10
5.85
6.45
6.80
6.86
6.57
5.84
4.60
2.83
0.67
-1.66
-3.84
-5.62
-6.86
-7.55
-7.79
-7.72
-7.50
-7.27
-7.07
-6.93
-6.79
-6.59
-6.27
-5.83
-5.32
-4.82
-4.42
-4.19
-4.13
-4.20
-4.36
-4.55
-4.71
-4.73
-4.53
-4.04
-3.31
-2.52
-1.92
-1.75
-2.13
-2.97
-4.00
-4.81
-5.07
-4.58
-3.34
-1.60
0.32
2.08
3.42
4.26
4.68
4.83
4.90
5.02
5.20
5.40
5.51
5.46
5.25
4.94
4.65
4.44
4.36
4.35
4.34
4.26
4.07
3.79
3.44
3.05
2.60
2.05
1.38
0.64
-0.10
-0.74
-1.20
-1.47
-1.56
-1.51
-1.38
-1.20
-1.03
-0.92
-0.94
-1.08
-1.30
-1.47
-1.47
-1.25
-0.81
-0.29
0.16
0.39
0.35
0.10
-0.23
-0.48
-0.60
-0.58
-0.50
-0.46
-0.51
-0.63
-0.75
-0.76
-0.62
-0.34
0.04
0.43
0.75
0.94
0.97
0.83
0.56
0.21
-0.11
-0.31
-0.31
-0.09
0.29
0.71
1.01
1.09
0.91
0.56
0.16
-0.13
-0.20
-0.06
0.19
0.41
0.49
0.38
0.16
-0.10
-0.31
-0.41
-0.42
-0.36
-0.25
-0.12
0.01
0.14
0.25
0.36
0.45
0.50
0.42
0.17
-0.31
-0.92
-1.50
-1.83
-1.79
-1.40
-0.85
-0.37
-0.12
-0.08
-0.13
-0.07
0.16
0.50
0.76
0.77
0.50
0.06
-0.34
-0.54
-0.50
-0.31
-0.16
-0.16
-0.35
-0.64
-0.90
-1.01
-0.95
-0.76
-0.48
-0.14
0.24
0.62
0.93
1.02
0.81
0.33
-0.28
-0.82
-1.09
-1.05
-0.78
-0.41
-0.12
0.04
0.06
-0.01
-0.12
-0.25
-0.34
-0.35
-0.23
0.03
0.37
0.66
0.74
0.54
0.09
-0.47
-0.97
-1.29
-1.35
-1.18
-0.82
-0.33
0.20
0.67
0.95
0.95
0.67
0.21
-0.27
-0.59
-0.69
-0.61
-0.48
-0.44
-0.53
-0.68
-0.77
-0.68
-0.40
-0.01
0.34
0.54
0.54
0.40
0.24
0.15
0.19
0.32
0.48
0.60
0.66
0.68
0.71
0.78
0.90
1.03
1.08
0.98
0.69
0.25
-0.19
-0.47
-0.51
-0.30
0.03
0.31
0.42
0.34
0.18
0.03
-0.03
-0.04
-0.09
-0.24
-0.45
-0.63
-0.68
-0.55
-0.32
-0.06
0.15
0.30
0.45
0.62
0.78
0.86
0.79
0.61
0.41
0.34
0.40
0.52
0.53
0.32
-0.10
-0.57
-0.91
-0.99
-0.82
-0.55
-0.30
-0.14
-0.05
0.01
0.06
0.06
-0.01
-0.20
-0.43
-0.60
-0.67
-0.63
-0.58
-0.62
-0.77
-0.99
-1.15
-1.12
-0.86
-0.42
0.05
0.37
0.45
0.31
0.06
-0.15
-0.20
-0.07
0.16
0.40
0.58
0.71
0.81
0.91
1.00
1.02
0.92
0.70
0.42
0.13
-0.09
-0.21
-0.21
-0.12
0.04
0.20
0.31
0.33
0.28
0.19
0.09
-0.02
-0.16
-0.35
-0.58
-0.78
-0.91
-0.91
-0.77
-0.56
-0.33
-0.13
0.04
0.19
0.33
0.44
0.50
0.44
0.26
-0.01
-0.26
-0.39
-0.36
-0.17
0.05
0.19
0.17
0.02
-0.14
-0.22
-0.16
-0.04
0.06
0.08
0.04
-0.00
0.04
0.17
0.34
0.47
0.54
0.55
0.51
0.43
0.27
0.03
-0.28
-0.57
-0.74
-0.72
-0.51
-0.20
0.11
0.33
0.43
0.43
0.36
0.27
0.19
0.13
0.11
0.14
0.22
0.31
0.37
0.36
0.29
0.21
0.17
0.22
0.35
0.49
0.55
0.48
0.33
0.17
0.11
0.14
0.20
0.18
0.03
-0.22
-0.46
-0.58
-0.54
-0.42
-0.31
-0.32
-0.47
-0.69
-0.88
-0.97
-0.91
-0.73
-0.48
-0.23
-0.04
0.03
-0.01
-0.14
-0.27
-0.31
-0.21
0.02
0.35
0.68
0.92
1.01
0.93
0.68
0.34
0.01
-0.20
-0.22
-0.06
0.18
0.35
0.36
0.19
-0.07
-0.30
-0.42
-0.44
-0.41
-0.44
-0.54
-0.67
-0.74
-0.71
-0.59
-0.48
-0.44
-0.50
-0.65
-0.80
-0.92
-1.01
-1.08
-1.13
-1.14
-1.03
-0.76
-0.32
0.22
0.72
1.06
1.17
1.07
0.83
0.56
0.34
0.25
0.26
0.35
0.45
0.54
0.59
0.62
0.64
0.64
0.60
0.51
0.37
0.23
0.15
0.18
0.29
0.42
0.49
0.45
0.31
0.11
-0.07
-0.18
-0.19
-0.09
0.08
0.30
0.52
0.71
0.86
0.94
0.93
0.84
0.66
0.43
0.19
-0.01
-0.11
-0.12
-0.10
-0.10
-0.18
-0.37
-0.62
-0.87
-1.06
-1.15
-1.15
-1.12
-1.08
-1.05
-0.99
-0.87
-0.65
-0.36
-0.03
0.26
0.45
0.52
0.46
0.29
0.04
-0.25
-0.51
-0.67
-0.67
-0.48
-0.11
0.31
0.70
0.96
1.07
1.07
1.02
0.95
0.87
0.71
0.43
0.04
-0.37
-0.68
-0.78
-0.64
-0.28
0.17
0.58
0.87
0.99
0.93
0.72
0.41
0.06
-0.24
-0.46
-0.54
-0.51
-0.37
-0.18
0.00
0.11
0.08
-0.11
-0.42
-0.79
-1.08
-1.17
-1.03
-0.71
-0.34
-0.07
0.00
-0.12
-0.33
-0.50
-0.53
-0.40
-0.15
0.12
0.30
0.34
0.27
0.16
0.09
0.12
0.25
0.43
0.61
0.76
0.86
0.89
0.85
0.73
0.55
0.33
0.10
-0.11
-0.29
-0.46
-0.64
-0.81
-0.90
-0.85
-0.65
-0.35
-0.08
0.05
0.02
-0.12
-0.27
-0.34
-0.30
-0.18
-0.03
0.10
0.20
0.26
0.27
0.25
0.21
0.17
0.19
0.27
0.39
0.50
0.54
0.49
0.36
0.17
-0.05
-0.28
-0.47
-0.59
-0.59
-0.47
-0.26
-0.02
0.19
0.30
0.32
0.26
0.15
0.01
-0.10
-0.15
-0.08
0.16
0.56
1.00
1.33
1.38
1.10
0.55
-0.11
-0.70
-1.08
-1.23
-1.20
-1.05
-0.83
-0.59
-0.35
-0.18
-0.14
-0.26
-0.51
-0.74
-0.81
-0.61
-0.16
0.42
0.92
1.18
1.11
0.74
0.20
-0.33
-0.68
-0.77
-0.59
-0.21
0.28
0.77
1.17
1.39
1.38
1.12
0.66
0.13
-0.32
-0.55
-0.51
-0.27
0.02
0.24
0.30
0.26
0.18
0.13
0.13
0.13
0.10
0.04
-0.01
-0.01
0.03
0.08
0.05
-0.11
-0.39
-0.71
-0.94
-1.00
-0.81
-0.41
0.10
0.57
0.84
0.83
0.57
0.18
-0.14
-0.26
-0.18
-0.03
0.04
-0.07
-0.34
-0.60
-0.69
-0.56
-0.27
0.04
0.21
0.20
0.06
-0.14
-0.32
-0.48
-0.64
-0.77
-0.85
-0.82
-0.63
-0.32
0.01
0.26
0.34
0.25
0.06
-0.13
-0.21
-0.10
0.20
0.60
0.97
1.17
1.14
0.91
0.59
0.34
0.24
0.26
0.34
0.34
0.19
-0.14
-0.58
-1.04
-1.41
-1.60
-1.57
-1.33
-0.94
-0.49
-0.08
0.25
0.49
0.64
0.73
0.75
0.68
0.53
0.34
0.15
0.02
-0.06
-0.12
-0.19
-0.29
-0.38
-0.42
-0.34
-0.14
0.15
0.45
0.69
0.81
0.80
0.71
0.58
0.47
0.37
0.30
0.24
0.20
0.16
0.12
0.06
-0.05
-0.20
-0.38
-0.52
-0.54
-0.43
-0.18
0.14
0.43
0.63
0.71
0.69
0.59
0.47
0.37
0.30
0.29
0.28
0.27
0.22
0.13
0.02
-0.06
-0.12
-0.12
-0.07
0.05
0.25
0.51
0.76
0.88
0.79
0.46
-0.04
-0.58
-0.99
-1.18
-1.17
-1.02
-0.83
-0.65
-0.48
-0.35
-0.26
-0.28
-0.38
-0.53
-0.62
-0.54
-0.28
0.06
0.32
0.36
0.14
-0.24
-0.60
-0.80
-0.78
-0.56
-0.26
0.05
0.34
0.61
0.82
0.95
0.93
0.73
0.41
0.06
-0.18
-0.21
-0.05
0.23
0.48
0.60
0.55
0.39
0.20
0.08
0.05
0.06
0.04
-0.08
-0.28
-0.47
-0.55
-0.45
-0.18
0.14
0.40
0.52
0.51
0.42
0.30
0.16
-0.00
-0.21
-0.43
-0.59
-0.61
-0.46
-0.18
0.10
0.29
0.31
0.19
0.01
-0.16
-0.26
-0.28
-0.24
-0.15
-0.04
0.12
0.29
0.45
0.55
0.54
0.43
0.24
0.04
-0.10
-0.16
-0.16
-0.12
-0.09
-0.08
-0.07
-0.02
0.07
0.21
0.38
0.55
0.72
0.85
0.92
0.90
0.77
0.54
0.25
-0.03
-0.25
-0.39
-0.45
-0.50
-0.56
-0.67
-0.79
-0.89
-0.92
-0.85
-0.68
-0.44
-0.17
0.08
0.26
0.34
0.35
0.32
0.30
0.31
0.36
0.41
0.42
0.39
0.35
0.34
0.38
0.41
0.37
0.19
-0.13
-0.51
-0.86
-1.07
-1.11
-1.01
-0.83
-0.65
-0.52
-0.46
-0.47
-0.51
-0.53
-0.49
-0.34
-0.09
0.17
0.31
0.27
0.06
-0.22
-0.40
-0.39
-0.18
0.12
0.38
0.51
0.51
0.47
0.48
0.57
0.70
0.76
0.71
0.54
0.33
0.17
0.10
0.14
0.24
0.35
0.45
0.53
0.62
0.70
0.77
0.75
0.58
0.25
-0.23
-0.74
-1.16
-1.36
-1.30
-1.00
-0.57
-0.16
0.09
0.09
-0.15
-0.52
-0.86
-1.01
-0.88
-0.51
-0.05
0.32
0.48
0.46
0.39
0.40
0.53
0.71
0.77
0.59
0.17
-0.33
-0.73
-0.88
-0.77
-0.51
-0.24
-0.05
0.09
0.27
0.56
0.91
1.19
1.25
0.99
0.48
-0.10
-0.53
-0.69
-0.58
-0.33
-0.06
0.15
0.30
0.43
0.53
0.54
0.40
0.07
-0.36
-0.75
-0.97
-0.91
-0.60
-0.16
0.27
0.58
0.73
0.74
0.67
0.56
0.45
0.37
0.29
0.20
0.08
-0.07
-0.23
-0.38
-0.51
-0.62
-0.69
-0.69
-0.58
-0.34
0.01
0.41
0.73
0.89
0.84
0.64
0.40
0.23
0.19
0.26
0.37
0.44
0.46
0.43
0.39
0.37
0.38
0.41
0.41
0.37
0.28
0.16
0.07
0.09
0.24
0.50
0.78
0.95
0.95
0.77
0.49
0.24
0.14
0.19
0.35
0.46
0.43
0.22
-0.14
-0.56
-0.94
-1.25
-1.47
-1.62
-1.72
-1.77
-1.74
-1.65
-1.51
-1.36
-1.20
-1.05
-0.90
-0.75
-0.58
-0.39
-0.14
0.19
0.57
0.91
1.10
1.05
0.77
0.36
-0.01
-0.24
-0.30
-0.28
-0.29
-0.36
-0.45
-0.48
-0.39
-0.23
-0.08
-0.02
-0.06
-0.12
-0.12
-0.01
0.16
0.30
0.34
0.25
0.10
-0.06
-0.18
-0.28
-0.37
-0.46
-0.51
-0.44
-0.24
0.07
0.40
0.65
0.75
0.71
0.57
0.39
0.19
-0.02
-0.28
-0.54
-0.74
-0.80
-0.65
-0.30
0.16
0.62
0.98
1.20
1.29
1.28
1.20
1.06
0.86
0.63
0.42
0.27
0.22
0.27
0.38
0.51
0.59
0.59
0.49
0.31
0.05
-0.24
-0.52
-0.72
-0.83
-0.86
-0.86
-0.89
-0.97
-1.06
-1.10
-1.03
-0.87
-0.66
-0.49
-0.40
-0.42
-0.49
-0.55
-0.56
-0.51
-0.40
-0.25
-0.07
0.12
0.28
0.34
0.26
0.08
-0.16
-0.36
-0.41
-0.31
-0.07
0.20
0.41
0.49
0.43
0.28
0.09
-0.08
-0.24
-0.37
-0.49
-0.58
-0.60
-0.51
-0.32
-0.06
0.16
0.26
0.19
-0.02
-0.29
-0.50
-0.57
-0.48
-0.26
0.01
0.26
0.44
0.51
0.52
0.51
0.54
0.60
0.67
0.71
0.69
0.66
0.66
0.72
0.84
0.95
0.95
0.82
0.57
0.26
-0.05
-0.35
-0.64
-0.91
-1.10
-1.11
-0.86
-0.37
0.27
0.86
1.23
1.30
1.09
0.73
0.39
0.18
0.14
0.21
0.29
0.27
0.12
-0.10
-0.30
-0.38
-0.31
-0.14
0.05
0.18
0.21
0.14
0.02
-0.13
-0.28
-0.40
-0.45
-0.43
-0.32
-0.17
-0.03
0.04
0.01
-0.13
-0.34
-0.58
-0.78
-0.89
-0.89
-0.80
-0.64
-0.44
-0.22
0.01
0.23
0.37
0.42
0.34
0.18
0.04
0.01
0.15
0.44
0.77
1.06
1.22
1.27
1.23
1.17
1.10
1.02
0.88
0.68
0.42
0.17
-0.00
-0.09
-0.15
-0.30
-0.59
-1.03
-1.48
-1.77
-1.81
-1.60
-1.31
-1.09
-1.04
-1.11
-1.14
-1.01
-0.65
-0.16
0.32
0.66
0.80
0.81
0.80
0.88
1.04
1.23
1.35
1.30
1.09
0.76
0.41
0.11
-0.09
-0.20
-0.23
-0.22
-0.15
-0.02
0.15
0.33
0.49
0.62
0.70
0.76
0.75
0.64
0.43
0.15
-0.10
-0.21
-0.15
-0.01
0.05
-0.11
-0.57
-1.24
-1.97
-2.61
-3.09
-3.43
-3.72
-4.00
-4.31
-4.62
-4.97
-5.41
-6.01
-6.71
-7.31
-7.50
-6.93
-5.44
-3.13
-0.36
2.40
4.70
6.32
7.25
7.64
7.70
7.61
7.44
7.21
6.93
6.61
6.27
6.00
5.88
6.00
6.41
7.10
7.95
8.72
9.11
8.84
7.75
5.91
3.60
1.31
-0.46
-1.34
-1.24
-0.32
1.04
2.38
3.28
3.45
2.77
1.31
-0.73
-2.98
-5.04
-6.52
-7.20
-7.03
-6.18
-4.98
-3.77
-2.83
-2.30
-2.18
-2.36
-2.66
-2.94
-3.09
-3.06
-2.84
-2.46
-1.97
-1.42
-0.93
-0.57
-0.39
-0.35
-0.42
-0.50
-0.56
-0.54
-0.46
-0.33
-0.18
-0.07
-0.07
-0.23
-0.55
-1.00
-1.44
-1.76
-1.86
-1.72
-1.40
-1.03
-0.71
-0.54
-0.53
-0.65
-0.82
-1.01
-1.19
-1.41
-1.72
-2.14
-2.66
-3.20
-3.71
-4.15
-4.52
-4.84
-5.09
-5.28
-5.41
-5.48
-5.59
-5.84
-6.35
-7.16
-8.25
-9.46
-10.57
-11.41
-11.95
-12.37
-12.98
-14.07
-15.79
-17.99
-20.30
-22.33
-23.87
-25.07
-26.41
-28.51
-31.81
-36.39
-41.92
-47.75
-53.22
-57.93
-61.89
-65.47
-69.23
-73.66
-79.04
-85.36
-92.49
-100.31
-108.81
-118.07
-128.13
-138.92
-150.23
-161.84
-173.58
-185.24
-196.23
-205.29
-210.37
-209.03
-199.19
-179.90
-151.74
-116.57
-76.64
-33.68
11.59
59.02
108.06
156.79
201.83
239.18
265.72
280.44
284.78
281.89
275.20
267.32
259.58
252.43
246.06
240.89
237.47
236.03
236.18
236.94
237.25
236.56
235.04
233.50
233.07
234.74
239.03
245.62
253.06
258.81
259.63
252.49
235.58
209.00
174.59
135.09
92.72
48.39
1.79
-47.40
-98.04
-146.71
-188.46
-218.49
-234.25
-236.52
-228.91
-216.29
-202.74
-190.40
-179.38
-168.83
-158.04
-147.15
-136.91
-128.08
-120.76
-114.33
-107.84
-100.55
-92.36
-83.79
-75.73
-68.94
-63.76
-59.91
-56.72
-53.37
-49.30
-44.42
-39.16
-34.26
-30.42
-27.98
-26.81
-26.34
-25.87
-24.92
-23.38
-21.59
-20.10
-19.42
-19.73
-20.92
-22.56
-24.23
-25.65
-26.90
-28.32
-30.35
-33.32
-37.24
-41.79
-46.44
-50.77
-54.72
-58.60
-62.97
-68.25
-74.46
-81.13
-87.58
-93.34
-98.50
-103.74
-110.12
-118.57
-129.51
-142.83
-158.09
-174.66
-191.64
-207.58
-220.23
-226.66
-224.04
-210.62
-186.45
-153.43
-114.43
-72.08
-27.75
18.45
66.74
116.39
164.95
208.52
243.06
266.09
277.59
279.92
276.65
271.12
265.51
260.65
256.62
253.52
251.70
251.61
253.33
256.27
259.28
261.30
261.97
261.86
262.28
264.74
270.13
278.18
287.17
294.20
295.87
289.37
273.27
248.05
215.80
179.43
141.53
103.57
65.55
26.25
-15.88
-61.66
-110.18
-158.50
-202.21
-236.68
-258.66
-267.38
-264.69
-254.20
-239.82
-224.40
-209.31
-194.77
-180.72
-167.43
-155.54
-145.55
-137.35
-130.11
-122.63
-114.04
-104.22
-93.83
-84.00
-75.69
-69.23
-64.29
-60.05
-55.66
-50.62
-44.97
-39.13
-33.71
-29.20
-25.77
-23.29
-21.36
-19.55
-17.51
-15.07
-12.32
-9.54
-7.06
-5.14
-3.87
-3.13
-2.70
-2.31
-1.83
-1.23
-0.64
-0.16
0.12
0.20
0.13
-0.01
-0.17
-0.33
-0.47
-0.57
-0.59
-0.47
-0.19
0.20
0.59
0.88
0.97
0.88
0.67
0.45
0.29
0.19
0.11
0.04
-0.04
-0.07
-0.02
0.11
0.29
0.42
0.48
0.48
0.46
0.47
0.51
0.53
0.49
0.41
0.32
0.31
0.45
0.70
0.98
1.17
1.18
1.00
0.68
0.33
0.00
-0.27
-0.48
-0.66
-0.79
-0.88
-0.91
-0.88
-0.82
-0.75
-0.70
-0.70
-0.75
-0.84
-0.94
-0.99
-0.94
-0.79
-0.56
-0.28
-0.04
0.15
0.28
0.36
0.43
0.49
0.54
0.54
0.47
0.33
0.13
-0.08
-0.25
-0.33
-0.25
-0.04
0.26
0.57
0.79
0.86
0.76
0.58
0.39
0.26
0.23
0.25
0.26
0.18
-0.00
-0.24
-0.44
-0.50
-0.39
-0.12
0.21
0.47
0.56
0.45
0.18
-0.13
-0.38
-0.51
-0.52
-0.49
-0.48
-0.52
-0.59
-0.64
-0.59
-0.41
-0.12
0.22
0.50
0.64
0.59
0.38
0.08
-0.17
-0.25
-0.15
0.07
0.27
0.34
0.25
0.05
-0.13
-0.16
-0.03
0.23
0.54
0.82
1.01
1.11
1.11
1.01
0.82
0.59
0.35
0.13
-0.06
-0.24
-0.43
-0.63
-0.81
-0.92
-0.94
-0.87
-0.74
-0.59
-0.45
-0.32
-0.17
0.00
0.21
0.42
0.60
0.70
0.69
0.57
0.36
0.07
-0.25
-0.58
-0.86
-1.07
-1.16
-1.12
-0.94
-0.65
-0.26
0.18
0.61
0.98
1.22
1.31
1.23
1.01
0.70
0.37
0.07
-0.19
-0.41
-0.62
-0.79
-0.89
-0.87
-0.70
-0.41
-0.08
0.21
0.40
0.45
0.42
0.34
0.28
0.24
0.21
0.18
0.16
0.17
0.21
0.29
0.36
0.42
0.43
