1660327439.00
64.000000
-0.00
-0.00
-0.00
-0.00
-0.00
-0.00
-0.00
-0.00
-0.00
-0.00
0.00
0.01
0.01
-0.00
-0.03
-0.05
-0.05
0.00
0.13
0.36
0.66
1.01
1.37
1.72
2.06
2.40
2.79
3.24
3.80
4.42
5.06
5.66
6.20
6.68
7.15
7.68
8.31
9.14
10.09
11.04
11.88
12.56
13.14
13.76
14.65
15.96
17.91
20.32
22.90
25.38
27.58
29.57
31.68
34.32
37.81
42.54
48.15
54.10
59.83
64.97
69.58
74.14
79.34
85.71
93.76
103.00
112.62
121.73
129.77
136.75
143.30
150.75
157.77
166.64
177.95
191.79
206.97
220.57
228.25
225.36
208.53
176.87
132.76
80.05
23.07
-34.94
-92.44
-149.16
-205.23
-260.37
-313.74
-363.87
-409.83
-450.91
-486.50
-515.74
-537.23
-549.22
-549.96
-538.37
-514.21
-478.67
-433.88
-382.45
-327.02
-269.84
-212.63
-156.66
-102.95
-52.37
-5.90
35.58
71.43
101.35
125.50
144.38
158.69
169.15
176.37
180.75
182.57
182.07
179.51
175.23
169.65
163.18
156.15
148.81
141.30
133.69
126.02
118.33
110.69
103.16
95.80
88.68
81.83
75.25
68.95
62.95
57.25
51.86
46.78
42.03
37.59
33.45
29.61
26.07
22.81
19.83
17.11
14.67
12.48
10.54
8.83
7.35
6.07
4.97
4.05
3.27
2.62
2.09
1.65
1.30
1.01
0.79
0.61
0.47
0.37
0.28
0.22
0.18
0.15
0.13
0.12
0.12
0.13
0.14
0.16
0.19
0.22
0.26
0.29
0.33
0.38
0.43
0.47
0.52
0.57
0.62
0.67
0.73
0.79
0.86
0.94
1.02
1.11
1.21
1.32
1.45
1.59
1.75
1.93
2.13
2.34
2.58
2.85
3.15
3.47
3.83
4.22
4.64
5.10
5.59
6.13
6.70
7.31
7.97
8.67
9.42
10.21
11.04
11.92
12.84
13.82
14.86
15.96
17.12
18.34
19.59
20.86
22.07
23.18
24.07
24.63
24.72
24.22
23.01
21.04
18.32
14.90
10.91
6.50
1.88
-2.75
-7.22
-11.34
-14.97
-17.97
-20.25
-21.78
-22.57
-22.71
-22.34
-21.65
-20.78
-19.88
-18.98
-18.06
-17.06
-15.94
-14.73
-13.52
-12.44
-11.64
-11.15
-10.89
-10.69
-10.32
-9.65
-8.76
-7.85
-7.23
-7.20
-7.84
-9.02
-10.34
-11.38
-11.84
-11.83
-11.68
-11.91
-12.98
-15.10
-18.04
-21.28
-24.20
-26.37
-27.89
-29.05
-30.40
-32.51
-36.00
-41.42
-48.99
-58.20
-67.54
-74.80
-77.36
-73.44
-63.04
-48.06
-31.62
-16.78
-5.42
3.58
11.04
18.10
25.48
33.08
40.19
46.00
50.09
52.47
53.37
52.71
50.52
46.86
42.00
36.58
31.42
27.36
24.92
24.19
24.68
25.75
26.72
27.01
26.21
24.24
21.29
17.71
13.87
9.96
6.11
2.43
-0.91
-3.57
-5.02
-4.74
-2.39
1.94
7.63
13.71
19.04
22.49
23.29
21.03
15.77
7.98
-1.47
-11.29
-19.86
-25.48
-26.82
-23.40
-15.86
-5.84
4.49
13.10
18.75
21.12
20.65
18.09
14.14
9.34
4.13
-0.92
-5.14
-7.89
-8.85
-8.25
-6.85
-5.70
-5.68
-7.14
-9.64
-12.18
-13.59
-13.07
-10.52
-6.48
-1.84
2.60
6.47
9.82
12.86
15.70
18.16
19.82
20.27
19.32
17.16
14.18
10.74
6.95
2.66
-2.40
-8.32
-14.77
-20.97
-25.87
-28.51
-28.33
-25.39
-20.29
-13.99
-7.40
-1.21
4.19
8.65
12.10
14.44
15.61
15.54
14.33
12.22
9.63
6.98
4.62
2.74
1.29
0.07
-1.18
-2.68
-4.45
-6.42
-8.39
-10.14
-11.59
-12.80
-14.02
-15.61
-17.83
-20.69
-23.75
-26.19
-27.05
-25.61
-21.73
-15.92
-9.19
-2.60
3.05
7.44
10.59
12.65
13.72
13.76
12.76
10.86
8.46
6.12
4.40
3.56
3.53
3.90
4.20
4.06
3.40
2.35
1.15
-0.07
-1.33
-2.79
-4.63
-6.98
-9.91
-13.36
-17.17
-21.02
-24.35
-26.52
-26.87
-25.03
-21.02
-15.33
-8.69
-1.89
4.39
9.72
13.88
16.82
18.59
19.32
19.22
18.55
17.63
16.73
16.06
15.72
15.65
15.73
15.79
15.71
15.39
14.80
13.90
12.65
11.03
9.05
6.77
4.30
1.67
-1.06
-3.90
-6.84
-9.90
-13.11
-16.53
-20.12
-23.65
-26.60
-28.27
-28.01
-25.53
-21.06
-15.22
-8.76
-2.28
3.91
9.63
14.65
18.63
21.19
22.15
21.72
20.44
19.02
17.96
17.44
17.29
17.17
16.82
16.17
15.32
14.44
13.57
12.61
11.30
9.48
7.13
4.49
1.89
-0.37
-2.20
-3.67
-4.96
-6.23
-7.53
-8.88
-10.32
-12.03
-14.24
-17.13
-20.62
-24.27
-27.30
-28.76
-27.89
-24.38
-18.55
-11.27
-3.70
3.19
8.83
13.15
16.36
18.70
20.21
20.84
20.59
19.70
18.65
18.01
18.15
19.04
20.33
21.41
21.81
21.30
20.03
18.39
16.81
15.53
14.48
13.38
11.85
9.67
6.85
3.69
0.52
-2.37
-4.90
-7.20
-9.48
-11.93
-14.56
-17.28
-19.95
-22.51
-25.05
-27.71
-30.52
-33.21
-35.16
-35.60
-33.87
-29.75
-23.63
-16.33
-8.82
-1.89
4.11
9.13
13.28
16.65
19.21
20.87
21.59
21.47
20.78
19.84
18.99
18.40
18.12
17.97
17.74
17.25
16.44
15.41
14.30
13.23
12.19
11.07
9.71
8.04
6.07
3.94
1.87
0.02
-1.53
-2.85
-4.08
-5.38
-6.85
-8.43
-9.98
-11.42
-12.80
-14.36
-16.42
-19.18
-22.52
-25.96
-28.75
-30.11
-29.53
-26.93
-22.64
-17.27
-11.43
-5.60
-0.04
5.14
9.82
13.77
16.64
18.18
18.36
17.52
16.29
15.22
14.62
14.40
14.21
13.68
12.70
11.44
10.27
9.42
8.87
8.32
7.34
5.69
3.45
0.97
-1.30
-3.04
-4.25
-5.17
-6.12
-7.34
-8.81
-10.30
-11.53
-12.30
-12.63
-12.67
-12.72
-13.00
-13.67
-14.85
-16.59
-18.81
-21.23
-23.32
-24.36
-23.70
-21.00
-16.39
-10.48
-4.11
1.84
6.77
10.39
12.76
14.07
14.59
14.54
14.03
13.18
12.06
10.80
9.61
8.64
8.03
7.76
7.71
7.72
7.63
7.34
6.84
6.20
5.47
4.74
4.07
3.47
2.91
2.34
1.68
0.85
-0.18
-1.43
-2.80
-4.14
-5.31
-6.17
-6.75
-7.17
-7.64
-8.36
-9.48
-11.03
-12.95
-15.05
-17.04
-18.47
-18.82
-17.57
-14.49
-9.71
-3.80
2.43
8.15
12.81
16.12
18.08
18.79
18.45
17.23
15.36
13.17
10.99
9.17
7.96
7.42
7.46
7.80
8.07
7.99
7.47
6.70
6.02
5.80
6.12
6.75
7.15
6.73
5.18
2.54
-0.69
-3.89
-6.51
-8.30
-9.36
-9.95
-10.39
-10.85
-11.40
-12.06
-12.95
-14.30
-16.36
-19.18
-22.42
-25.32
-26.91
-26.35
-23.32
-18.19
-11.91
-5.60
-0.17
3.95
6.80
8.69
9.87
10.48
10.45
9.80
8.70
7.47
6.47
5.90
5.73
5.77
5.78
5.67
5.45
5.18
4.85
4.37
3.60
2.46
0.99
-0.74
-2.58
-4.46
-6.35
-8.18
-9.93
-11.52
-12.93
-14.11
-15.06
-15.78
-16.31
-16.75
-17.28
-18.04
-19.07
-20.19
-20.95
-20.89
-19.59
-16.93
-13.06
-8.35
-3.27
1.68
6.10
9.69
12.24
13.67
14.01
13.35
11.91
9.97
7.92
6.13
4.90
4.37
4.41
4.74
5.06
5.11
4.82
4.28
3.60
2.92
2.24
1.47
0.46
-0.93
-2.73
-4.84
-7.11
-9.41
-11.73
-14.18
-16.89
-19.83
-22.63
-24.70
-25.30
-23.92
-20.47
-15.33
-9.30
-3.27
2.02
6.15
9.07
11.01
12.21
12.79
12.74
11.95
10.45
8.47
6.44
4.81
3.87
3.63
3.83
4.13
4.20
3.85
3.08
1.95
0.55
-1.05
-2.79
-4.63
-6.48
-8.30
-10.06
-11.82
-13.74
-16.00
-18.64
-21.41
-23.74
-24.85
-24.07
-21.10
-16.15
-9.90
-3.21
3.10
8.43
12.53
15.34
16.91
17.38
16.91
15.66
13.90
11.96
10.26
9.22
9.06
9.72
10.80
11.74
11.99
11.31
9.79
7.77
5.61
3.56
1.64
-0.24
-2.24
-4.46
-6.95
-9.76
-12.89
-16.35
-19.97
-23.38
-26.00
-27.14
-26.25
-23.13
-18.13
-12.02
-5.81
-0.30
4.07
7.29
9.65
11.40
12.65
13.29
13.23
12.52
11.42
10.33
9.61
9.43
9.73
10.25
10.70
10.83
10.52
9.77
8.70
7.50
6.31
5.26
4.32
3.37
2.25
0.74
-1.30
-3.88
-6.90
-10.14
-13.28
-15.87
-17.37
-17.21
-14.94
-10.45
-4.12
3.21
10.44
16.52
20.76
23.02
23.56
22.91
21.63
20.20
18.91
17.92
17.27
16.87
16.56
16.14
15.50
14.58
13.43
12.11
10.72
9.31
7.96
6.74
5.73
4.91
4.20
3.48
2.61
1.51
0.19
-1.35
-3.13
-5.26
-7.86
-10.94
-14.22
-17.14
-18.94
-18.91
-16.70
-12.41
-6.65
-0.29
5.80
11.01
15.03
17.80
19.38
19.90
19.54
18.56
17.29
16.09
15.28
14.99
15.20
15.74
16.34
16.74
16.74
16.27
15.37
14.15
12.70
11.07
9.23
7.15
4.85
2.44
0.10
-1.99
-3.78
-5.28
-6.68
-8.25
-10.34
-13.20
-16.84
-20.89
-24.64
-27.21
-27.87
-26.26
-22.56
-17.37
-11.50
-5.72
-0.69
3.16
5.62
6.76
6.80
6.15
5.23
4.37
3.78
3.53
3.65
4.11
4.78
5.45
5.79
5.56
4.66
3.21
1.39
-0.60
-2.71
-4.98
-7.44
-9.99
-12.37
-14.26
-15.44
-15.90
-15.88
-15.79
-16.10
-17.06
-18.65
-20.44
-21.79
-22.02
-20.67
-17.63
-13.14
-7.69
-1.77
4.14
9.65
14.36
17.97
20.30
21.43
21.71
21.65
21.78
22.39
23.55
25.09
26.79
28.41
29.76
30.68
31.02
30.71
29.79
28.50
27.16
25.99
24.89
23.36
20.64
16.02
9.26
0.72
-8.67
-17.78
-25.62
-31.60
-35.44
-36.99
-36.14
-32.71
-26.77
-18.77
-9.61
-0.51
7.42
13.50
17.63
20.18
21.79
22.91
23.75
24.20
24.08
23.28
21.90
20.25
18.63
17.21
15.86
14.25
11.90
8.53
4.17
-0.73
-5.48
-9.41
-12.11
-13.61
-14.28
-14.66
-15.22
-16.17
-17.56
-19.29
-21.29
-23.43
-25.48
-27.03
-27.60
-26.82
-24.64
-21.47
-17.98
-14.87
-12.56
-11.13
-10.32
-9.75
-9.14
-8.37
-7.47
-6.48
-5.33
-3.88
-2.08
-0.04
1.85
3.05
3.11
1.92
-0.21
-2.60
-4.57
-5.63
-5.75
-5.30
-4.90
-5.18
-6.62
-9.41
-13.45
-18.25
-23.00
-26.70
-28.38
-27.40
-23.61
-17.44
-9.76
-1.58
6.20
12.97
18.45
22.58
25.40
26.91
27.09
26.01
23.90
21.16
18.27
15.62
13.40
11.63
10.14
8.84
7.70
6.76
6.02
5.36
4.46
2.92
0.35
-3.50
-8.67
-14.88
-21.56
-27.94
-33.07
-36.09
-36.32
-33.56
-28.13
-20.85
-12.90
-5.50
0.41
4.38
6.49
7.09
6.71
5.71
4.26
2.50
0.62
-1.05
-2.08
-2.18
-1.31
0.24
2.03
3.59
4.66
5.13
4.96
4.07
2.30
-0.58
-4.59
-9.52
-14.90
-20.14
-24.69
-28.14
-30.16
-30.45
-28.74
-24.82
-18.79
-11.22
-3.03
4.65
10.92
15.38
18.15
19.67
20.33
20.28
19.47
17.83
15.50
12.95
10.76
9.34
8.77
8.66
8.54
7.97
6.89
5.54
4.29
3.44
2.98
2.65
2.00
0.53
-2.17
-6.26
-11.62
-17.76
-23.92
-29.14
-32.50
-33.36
-31.49
-27.11
-20.81
-13.40
-5.66
1.85
8.90
15.45
21.55
27.07
31.66
34.92
36.58
36.81
36.18
35.48
35.37
36.03
37.08
37.76
37.34
35.35
31.85
27.34
22.47
17.86
13.85
10.45
7.37
4.14
0.31
-4.44
-10.12
-16.39
-22.44
-27.11
-29.13
-27.46
-21.72
-12.47
-1.00
10.93
21.73
30.36
36.41
39.98
41.38
40.96
39.08
36.17
32.76
29.36
26.35
23.78
21.45
19.09
16.62
14.15
11.91
9.88
7.72
4.81
0.59
-4.95
-11.12
-16.75
-21.01
-24.27
-28.38
-36.08
-49.28
-67.44
-86.94
-102.26
-108.25
-102.48
-86.00
-62.30
-35.39
-8.58
15.23
32.51
38.73
29.99
5.94
-28.01
-61.40
-82.71
-84.71
-68.00
-40.51
-13.30
4.90
11.09
7.95
0.78
-5.97
-10.54
-13.46
-15.63
-16.76
-15.21
-9.02
2.53
18.09
34.60
48.72
58.27
63.38
66.46
71.20
81.16
98.29
122.22
150.36
178.76
203.30
220.90
230.01
230.70
224.17
212.21
196.83
180.14
164.43
152.07
145.17
144.99
151.30
162.32
175.13
186.55
194.22
197.19
196.03
192.35
188.09
184.80
183.22
183.12
183.55
183.28
181.18
176.64
169.64
160.66
150.31
138.94
126.43
112.33
96.11
77.67
57.61
37.20
17.98
1.19
-12.85
-24.97
-36.89
-50.55
-67.17
-86.62
-107.40
-127.22
-144.02
-156.88
-166.55
-174.95
-184.85
-199.13
-220.21
-249.50
-286.23
-326.38
-362.47
-385.04
-385.76
-361.26
-315.27
-257.96
-202.25
-158.81
-132.46
-121.52
-120.23
-122.43
-124.40
-125.34
-125.97
-126.66
-126.41
-123.50
-116.79
-106.84
-95.93
-87.03
-82.36
-82.29
-85.34
-88.82
-90.24
-88.27
-83.22
-76.70
-70.77
-66.99
-65.85
-66.78
-68.60
-70.14
-70.63
-69.77
-67.51
-63.83
-58.60
-51.63
-42.91
-32.71
-21.68
-10.74
-0.93
6.88
12.17
14.89
15.47
14.63
13.11
11.46
9.85
8.13
5.88
2.64
-1.96
-7.94
-14.84
-21.74
-27.37
-30.49
-30.34
-26.90
-20.84
-13.32
-5.47
1.90
8.39
13.85
18.17
21.21
22.79
22.77
21.15
18.03
13.50
7.57
0.31
-8.04
-16.75
-24.72
-30.67
-33.60
-33.23
-30.14
-25.61
-21.12
-17.93
-16.74
-17.69
-20.52
-24.80
-29.91
-35.06
-39.13
-40.97
-39.77
-35.51
-29.13
-22.18
-16.10
-11.55
-8.03
-4.26
1.13
8.80
18.40
28.76
38.42
46.22
51.58
54.49
55.23
54.21
51.84
48.53
44.76
41.01
37.70
34.98
32.65
30.26
27.32
23.71
19.95
17.15
16.67
19.51
25.77
34.47
43.79
51.60
56.07
56.07
51.28
42.11
29.57
15.02
-0.01
-14.12
-26.20
-35.61
-42.10
-45.55
-45.92
-43.14
-37.34
-29.00
-19.04
-8.65
1.10
9.45
16.18
21.43
25.57
28.97
32.02
34.93
37.79
40.34
41.98
41.91
39.49
34.69
28.22
21.17
14.54
8.45
1.99
-6.49
-18.53
-34.61
-53.57
-72.74
-88.79
-98.92
-101.88
-98.26
-90.05
-79.66
-68.86
-58.26
-47.41
-35.42
-21.77
-6.81
8.27
21.90
32.75
40.19
44.28
45.49
44.22
40.60
34.55
26.05
15.62
4.42
-5.84
-13.57
-17.86
-18.79
-17.31
-14.71
-12.03
-9.60
-7.09
-3.74
1.20
8.17
17.07
27.22
37.36
45.88
51.09
51.69
47.14
37.89
25.20
10.81
-3.64
-16.88
-28.03
-36.45
-41.68
-43.39
-41.56
-36.66
-29.61
-21.65
-13.99
-7.70
-3.54
-1.82
-2.45
-4.82
-7.88
-10.35
-11.15
-9.69
-6.09
-1.10
4.21
8.66
11.16
10.72
6.47
-2.23
-15.31
-31.52
-48.22
-61.74
-68.52
-66.40
-55.71
-39.38
-21.91
-7.60
1.15
4.65
5.41
6.71
10.89
18.41
27.92
37.18
44.25
48.10
48.76
46.79
42.82
37.39
31.06
24.70
19.66
17.44
19.17
25.10
34.46
45.65
56.94
66.94
75.00
81.10
85.54
88.51
89.92
89.32
86.19
80.08
70.88
58.91
44.81
29.51
13.90
-1.29
-15.56
-28.47
-39.54
-48.15
-53.53
-55.13
-52.82
-47.13
-39.16
-30.45
-22.61
-16.95
-14.17
-14.06
-15.49
-16.71
-15.98
-12.23
-5.68
2.35
9.97
15.51
18.16
17.95
15.37
10.79
4.25
-4.51
-15.68
-28.94
-43.39
-57.62
-69.97
-78.87
-83.06
-81.89
-75.48
-64.79
-51.31
-36.68
-22.13
-8.21
5.12
18.12
30.75
42.39
51.95
58.32
60.88
59.92
56.63
52.82
50.33
50.54
54.10
60.83
69.86
79.90
89.50
97.44
102.89
105.50
105.31
102.51
97.27
89.71
80.03
68.53
55.64
41.79
27.32
12.43
-2.65
-17.49
-31.36
-43.41
-53.00
-59.99
-64.85
-68.33
-71.05
-73.14
-74.19
-73.56
-70.95
-66.56
-61.12
-55.44
-49.90
-44.22
-37.58
-29.10
-18.29
-5.36
8.87
23.22
36.49
47.56
55.46
59.41
58.94
53.88
44.34
30.68
13.38
-6.87
-29.12
-51.93
-73.53
-91.95
-105.30
-112.01
-110.99
-102.01
-85.99
-65.28
-43.49
-24.61
-11.70
-5.63
-4.81
-5.81
-5.06
-0.46
7.94
18.23
27.98
35.54
40.65
44.39
48.29
53.62
60.93
70.15
80.87
92.64
104.84
116.57
126.50
133.13
135.20
132.14
124.22
112.42
98.08
82.44
66.44
50.59
34.91
19.20
3.12
-13.32
-29.56
-44.44
-56.47
-64.52
-68.35
-68.78
-67.35
-65.61
-64.56
-64.38
-64.59
-64.40
-63.09
-60.07
-54.99
-47.74
-38.59
-28.21
-17.55
-7.54
1.31
9.03
16.26
23.98
33.18
44.53
57.93
72.16
84.88
92.95
93.46
84.91
68.05
46.15
24.12
6.97
-1.75
-1.20
6.65
17.81
27.80
33.37
33.57
29.91
25.54
23.88
27.27
36.35
50.17
66.77
84.08
100.29
114.05
124.51
131.41
135.20
136.94
137.98
139.16
140.40
140.43
137.36
129.47
116.00
97.38
74.98
50.52
25.42
0.60
-23.40
-46.09
-66.85
-85.11
-100.77
-114.37
-126.91
-139.22
-151.33
-162.45
-171.38
-177.57
-181.67
-185.38
-190.33
-196.74
-202.84
-205.28
-200.66
-187.18
-165.67
-139.34
-112.55
-89.14
-71.24
-58.89
-50.48
-43.73
-36.58
-27.76
-16.89
-4.14
10.16
25.68
41.99
58.41
73.77
86.69
95.95
101.07
102.62
102.15
101.68
102.84
106.10
110.29
112.90
111.04
102.93
88.99
72.04
56.10
44.13
36.33
30.18
22.44
11.78
0.03
-8.73
-10.50
-3.43
12.06
34.51
62.61
95.35
130.27
161.87
182.09
183.52
164.04
129.61
92.55
65.91
56.80
62.68
72.87
74.12
57.11
20.59
-28.78
-79.93
-122.20
-149.11
-159.51
-156.43
-144.55
-127.99
-109.15
-88.74
-66.73
-43.43
-20.15
0.73
16.85
26.91
31.20
31.41
29.87
28.48
28.15
28.74
29.32
28.70
25.78
19.79
10.50
-1.65
-15.68
-30.28
-44.26
-57.00
-68.46
-78.94
-88.64
-97.37
-104.62
-109.92
-113.15
-114.69
-115.20
-115.36
-115.69
-116.51
-118.00
-120.27
-123.35
-127.10
-131.18
-135.09
-138.28
-140.31
-141.01
-140.52
-139.27
-137.80
-136.67
-136.23
-136.51
-137.04
-137.05
-135.51
-131.43
-124.09
-113.22
-99.11
-82.56
-64.70
-46.76
-29.79
-14.42
-0.84
11.08
21.53
30.62
38.29
44.35
48.68
51.29
52.37
52.24
51.27
49.89
48.48
47.37
46.73
46.57
46.70
46.90
47.04
47.20
47.62
48.45
49.60
50.62
50.77
49.29
45.70
40.04
32.90
25.29
18.40
13.42
11.30
12.65
17.70
26.15
37.24
49.73
62.20
73.42
82.54
89.27
93.61
95.69
95.55
93.17
88.73
82.76
76.24
70.41
66.38
64.82
65.67
68.12
70.87
72.45
71.65
67.85
61.28
52.93
44.22
36.59
31.04
28.01
27.51
29.36
33.41
39.37
46.38
52.66
55.79
53.65
45.66
33.61
21.39
13.56
13.53
22.21
37.94
57.37
76.97
93.94
106.51
113.56
114.64
110.19
102.02
93.31
87.87
88.79
97.37
112.82
132.88
154.86
176.61
196.87
215.14
231.15
244.60
254.99
261.80
264.59
263.18
257.58
248.01
234.86
218.66
200.10
180.03
159.48
139.49
120.86
103.81
87.83
71.84
54.64
35.64
15.24
-5.24
-24.13
-40.28
-53.71
-65.76
-78.50
-93.81
-112.36
-133.32
-154.68
-174.12
-190.16
-202.79
-213.47
-224.68
-239.34
-260.17
-288.97
-325.54
-366.59
-405.32
-432.53
-439.44
-421.11
-379.02
-321.08
-258.87
-203.34
-161.16
-133.37
-116.76
-106.83
-100.19
-95.58
-92.96
-92.04
-91.41
-88.88
-82.59
-72.25
-59.39
-46.81
-37.24
-32.04
-30.68
-30.96
-30.01
-25.42
-16.13
-2.67
13.17
29.17
43.45
55.15
64.38
71.84
78.08
82.95
85.47
84.29
78.41
67.85
53.78
38.08
22.68
8.86
-3.00
-13.15
-22.13
-30.35
-38.04
-45.26
-52.13
-58.74
-65.03
-70.57
-74.60
-76.25
-74.92
-70.69
-64.31
-57.05
-50.08
-44.06
-39.00
-34.49
-30.22
-26.35
-23.55
-22.53
-23.48
-25.60
-27.22
-26.43
-21.91
-13.66
-2.97
8.01
17.22
23.34
26.07
25.76
22.87
17.72
10.57
2.01
-6.95
-15.18
-22.14
-28.47
-35.87
-46.10
-59.63
-74.80
-88.12
-95.69
-94.99
-86.12
-71.64
-55.32
-40.46
-28.79
-20.31
-14.06
-9.05
-4.88
-1.61
0.62
2.06
3.34
5.29
8.39
12.74
18.06
23.99
30.24
36.54
42.61
47.97
52.16
54.79
55.79
55.38
53.85
51.46
48.38
44.86
41.33
38.43
36.74
36.47
37.21
37.86
37.16
34.15
28.66
21.49
13.97
7.33
2.03
-2.54
-7.94
-15.99
-27.89
-43.48
-60.90
-77.04
-88.53
-93.17
-90.86
-83.86
-75.78
-70.06
-68.44
-70.26
-72.95
-73.18
-68.31
-57.02
-39.50
-16.89
9.23
37.14
65.00
90.75
112.31
127.83
136.18
137.15
131.58
121.02
107.19
91.40
74.07
54.80
32.90
8.34
-17.57
-42.17
-62.32
-75.78
-82.38
-84.49
-86.28
-91.98
-104.01
-121.55
-140.74
-156.05
-162.62
-158.31
-144.50
-125.57
-106.96
-92.99
-85.19
-81.99
-79.59
-73.73
-61.24
-41.11
-14.45
16.22
47.88
77.87
104.18
125.35
140.38
148.62
150.19
146.31
139.46
132.74
128.97
129.47
133.61
139.03
142.69
142.20
136.72
127.21
115.82
104.96
96.31
90.32
86.18
82.25
76.69
68.06
55.70
39.80
21.16
0.79
-20.42
-41.96
-63.55
-84.80
-104.84
-122.06
-134.32
-139.36
-135.52
-122.28
-100.55
-72.53
-41.23
-9.88
18.58
41.99
59.13
69.96
75.51
77.66
78.45
79.22
79.90
78.86
73.60
61.96
43.14
18.23
-10.40
-40.18
-69.43
-97.81
-125.95
-154.59
-183.76
-212.42
-238.56
-259.59
-272.84
-275.98
-267.45
-246.87
-215.33
-175.54
-131.44
-87.46
-47.48
-14.01
12.39
32.93
49.89
65.61
81.57
97.93
113.74
127.59
138.43
145.98
150.72
153.49
155.05
155.91
156.52
157.37
159.02
161.56
164.32
165.62
163.28
155.35
141.04
121.10
97.61
73.34
50.85
31.82
16.79
5.22
-4.12
-12.74
-21.86
-32.20
-43.82
-56.28
-68.88
-80.85
-91.50
-100.24
-106.52
-109.91
-110.12
-106.90
-99.89
-88.37
-71.38
-48.14
-18.79
14.99
49.90
81.70
106.47
121.82
127.76
126.55
121.72
116.74
113.55
111.81
108.89
101.00
84.81
59.02
25.15
-12.88
-50.23
