1660328705.00
64.000000
-0.00
-0.00
-0.00
-0.00
-0.00
-0.00
-0.00
-0.00
-0.00
-0.00
0.00
0.01
0.01
-0.00
-0.03
-0.05
-0.05
0.00
0.13
0.36
0.66
1.01
1.37
1.72
2.06
2.40
2.79
3.24
3.80
4.42
5.06
5.66
6.20
6.68
7.15
7.68
8.31
9.14
10.09
11.04
11.88
12.56
13.14
13.76
14.65
15.96
17.91
20.32
22.90
25.38
27.58
29.57
31.68
34.32
37.81
42.54
48.15
54.10
59.83
64.97
69.58
74.14
79.34
85.71
93.76
103.00
112.62
121.73
129.77
136.75
143.30
150.75
157.77
166.64
177.95
191.79
206.97
220.57
228.25
225.36
208.53
176.87
132.76
80.05
23.07
-34.94
-92.44
-149.16
-205.23
-260.37
-313.74
-363.87
-409.83
-450.91
-486.50
-515.74
-537.23
-549.22
-549.96
-538.37
-514.21
-478.67
-433.88
-382.45
-327.02
-269.84
-212.63
-156.66
-102.95
-52.37
-5.90
35.58
71.43
101.35
125.50
144.38
158.69
169.15
176.37
180.75
182.57
182.07
179.51
175.23
169.65
163.18
156.15
148.81
141.30
133.69
126.02
118.33
110.69
103.16
95.80
88.68
81.83
75.25
68.95
62.95
57.25
51.86
46.78
42.03
37.59
33.45
29.61
26.07
22.81
19.83
17.11
14.67
12.48
10.54
8.83
7.35
6.07
4.97
4.05
3.27
2.62
2.09
1.65
1.30
1.01
0.79
0.61
0.47
0.37
0.29
0.23
0.19
0.17
0.15
0.15
0.16
0.18
0.20
0.23
0.26
0.30
0.35
0.39
0.43
0.48
0.53
0.58
0.63
0.68
0.74
0.80
0.87
0.95
1.03
1.12
1.22
1.34
1.46
1.61
1.77
1.95
2.14
2.37
2.61
2.88
3.18
3.51
3.87
4.26
4.68
5.15
5.65
6.19
6.77
7.39
8.05
8.76
9.51
10.31
11.16
12.05
12.98
13.96
15.01
16.12
17.29
18.53
19.79
21.08
22.31
23.42
24.30
24.85
24.93
24.43
23.27
21.38
18.77
15.49
11.61
7.32
2.80
-1.73
-6.07
-10.01
-13.38
-16.06
-17.98
-19.12
-19.51
-19.26
-18.51
-17.41
-16.11
-14.70
-13.25
-11.76
-10.21
-8.58
-6.89
-5.20
-3.56
-1.97
-0.44
1.10
2.72
4.52
6.60
8.83
11.10
13.29
15.31
17.16
18.95
20.85
23.09
25.86
28.91
31.95
34.71
37.00
38.83
40.43
42.23
44.71
48.20
52.26
56.29
59.68
61.96
63.02
63.24
63.31
64.00
65.84
68.12
69.83
69.76
66.89
60.64
50.90
37.64
20.26
2.09
-16.24
-34.98
-54.91
-77.05
-102.45
-131.73
-164.55
-198.86
-230.66
-255.41
-268.63
-267.77
-253.46
-229.43
-201.13
-173.69
-150.24
-131.40
-116.56
-104.41
-94.03
-85.20
-77.98
-72.12
-66.89
-61.31
-54.50
-46.43
-37.42
-28.07
-18.73
-9.39
0.34
11.01
22.93
35.96
49.18
61.36
71.21
77.81
80.89
80.86
78.68
75.49
72.28
69.63
67.77
66.63
66.06
65.80
65.59
65.14
64.22
62.75
60.74
58.33
55.58
52.46
48.78
44.27
38.77
32.28
25.02
17.30
9.50
1.93
-5.09
-11.25
-16.18
-19.44
-20.67
-19.69
-16.63
-11.92
-6.27
-0.46
4.85
9.22
12.46
14.56
15.64
15.82
15.22
13.98
12.19
10.04
7.70
5.43
3.50
2.13
1.41
1.31
1.62
2.06
2.38
2.45
2.24
1.81
1.21
0.46
-0.51
-1.76
-3.35
-5.37
-7.83
-10.73
-14.02
-17.54
-20.99
-23.95
-25.91
-26.43
-25.23
-22.37
-18.19
-13.30
-8.40
-4.07
-0.66
1.79
3.46
4.52
5.09
5.16
4.73
3.91
2.99
2.38
2.43
3.21
4.47
5.76
6.63
6.86
6.46
5.62
4.57
3.37
2.02
0.38
-1.64
-4.08
-6.89
-10.00
-13.29
-16.67
-19.98
-22.96
-25.21
-26.25
-25.61
-23.00
-18.48
-12.47
-5.71
1.02
7.12
12.28
16.45
19.70
22.05
23.46
23.88
23.40
22.30
21.05
20.08
19.67
19.80
20.18
20.42
20.13
19.16
17.56
15.53
13.32
11.10
8.88
6.59
4.06
1.18
-2.11
-5.84
-9.97
-14.38
-18.76
-22.61
-25.24
-25.99
-24.40
-20.43
-14.56
-7.59
-0.48
5.97
11.30
15.42
18.54
20.95
22.83
24.18
24.86
24.74
23.81
22.30
20.55
18.87
17.40
16.14
14.93
13.72
12.52
11.49
10.69
10.07
9.42
8.47
6.97
4.84
2.13
-1.07
-4.62
-8.40
-12.20
-15.72
-18.48
-19.94
-19.63
-17.36
-13.29
-7.93
-2.02
3.75
8.87
13.09
16.36
18.70
20.15
20.77
20.70
20.19
19.55
19.02
18.71
18.56
18.37
17.98
17.25
16.16
14.68
12.79
10.47
7.75
4.77
1.70
-1.28
-4.10
-6.81
-9.49
-12.24
-15.12
-18.15
-21.36
-24.78
-28.35
-31.81
-34.66
-36.26
-35.97
-33.43
-28.68
-22.17
-14.66
-6.95
0.26
6.53
11.70
15.76
18.78
20.81
21.90
22.14
21.76
21.12
20.69
20.76
21.37
22.27
23.08
23.50
23.47
23.18
22.90
22.77
22.70
22.41
21.56
19.90
17.41
14.27
10.82
7.41
4.32
1.64
-0.73
-2.97
-5.32
-7.80
-10.30
-12.58
-14.46
-15.98
-17.38
-19.04
-21.24
-24.15
-27.70
-31.70
-35.90
-39.92
-43.31
-45.44
-45.74
-43.79
-39.56
-33.44
-26.21
-18.79
-11.95
-6.18
-1.64
1.79
4.36
6.25
7.64
8.66
9.43
10.12
10.92
12.01
13.45
15.22
17.12
18.90
20.39
21.42
22.01
22.26
22.30
22.27
22.21
22.08
21.78
21.21
20.32
19.18
17.95
16.77
15.69
14.65
13.43
11.88
9.94
7.75
5.59
3.74
2.28
1.06
-0.26
-2.10
-4.74
-8.24
-12.35
-16.59
-20.27
-22.73
-23.42
-22.07
-18.79
-13.98
-8.23
-2.14
3.79
9.19
13.79
17.38
19.81
21.05
21.28
20.83
20.11
19.49
19.18
19.21
19.43
19.67
19.77
19.63
19.17
18.41
17.37
16.11
14.68
13.10
11.43
9.72
8.08
6.62
5.45
4.63
4.08
3.67
3.22
2.57
1.65
0.48
-0.87
-2.23
-3.48
-4.50
-5.24
-5.79
-6.30
-7.01
-8.13
-9.73
-11.79
-14.12
-16.46
-18.48
-19.82
-20.16
-19.25
-17.01
-13.54
-9.18
-4.38
0.38
4.70
8.32
11.13
13.14
14.45
15.26
15.74
16.04
16.22
16.24
16.04
15.57
14.87
13.99
13.05
12.04
10.96
9.76
8.44
7.05
5.69
4.42
3.26
2.17
1.05
-0.14
-1.44
-2.83
-4.32
-5.90
-7.58
-9.29
-10.99
-12.56
-13.88
-14.83
-15.36
-15.47
-15.25
-14.91
-14.69
-14.85
-15.52
-16.68
-18.13
-19.53
-20.43
-20.47
-19.36
-17.01
-13.53
-9.20
-4.43
0.34
4.70
8.37
11.19
13.14
14.31
14.88
15.03
14.98
14.86
14.74
14.57
14.30
13.85
13.27
12.64
12.08
11.66
11.34
10.98
10.35
9.28
7.74
5.82
3.79
1.90
0.33
-0.94
-2.03
-3.17
-4.52
-6.12
-7.88
-9.65
-11.29
-12.73
-13.95
-15.00
-15.89
-16.66
-17.35
-18.08
-19.00
-20.16
-21.46
-22.56
-23.03
-22.45
-20.62
-17.66
-13.92
-9.86
-5.92
-2.39
0.62
3.09
5.03
6.43
7.32
7.75
7.86
7.87
7.96
8.29
8.87
9.61
10.31
10.81
10.99
10.86
10.51
10.04
9.52
8.95
8.32
7.57
6.65
5.52
4.17
2.68
1.13
-0.36
-1.78
-3.14
-4.56
-6.11
-7.84
-9.70
-11.64
-13.66
-15.74
-17.92
-20.21
-22.52
-24.66
-26.41
-27.54
-27.90
-27.41
-26.08
-24.00
-21.34
-18.31
-15.12
-12.00
-9.11
-6.63
-4.67
-3.28
-2.40
-1.88
-1.51
-1.05
-0.34
0.73
2.17
3.94
5.89
7.86
9.67
11.18
12.27
12.88
12.98
12.53
11.57
10.23
8.77
7.55
6.87
6.82
7.20
7.51
7.19
5.82
3.32
-0.07
-3.83
-7.44
-10.47
-12.72
-14.26
-15.39
-16.50
-17.95
-19.94
-22.38
-24.95
-27.22
-28.76
-29.34
-28.97
-27.87
-26.41
-24.94
-23.76
-22.96
-22.58
-22.60
-22.97
-23.63
-24.48
-25.29
-25.80
-25.79
-25.24
-24.32
-23.32
-22.42
-21.59
-20.52
-18.77
-15.96
-11.95
-6.88
-1.08
5.05
11.14
16.83
21.86
26.04
29.37
32.00
34.20
36.25
38.26
40.15
41.67
42.54
42.48
41.40
39.38
36.65
33.57
30.52
27.87
25.91
24.77
24.45
24.75
25.35
25.84
25.92
25.41
24.41
23.17
21.97
21.01
20.33
19.83
19.46
19.17
18.96
18.72
18.19
16.92
14.43
10.42
4.76
-2.38
-10.67
-19.57
-28.34
-36.04
-41.66
-44.41
-44.00
-40.86
-35.96
-30.54
-25.71
-22.21
-20.40
-20.34
-21.98
-25.11
-29.37
-34.16
-38.74
-42.32
-44.31
-44.43
-42.70
-39.30
-34.45
-28.42
-21.58
-14.52
-8.00
-2.83
0.40
1.62
1.36
0.59
0.51
2.25
6.64
14.10
24.53
37.29
51.16
64.47
75.35
81.93
82.70
76.56
63.05
42.35
15.60
-15.01
-46.30
-74.60
-96.49
-109.64
-113.31
-108.29
-96.45
-80.07
-61.22
-41.48
-21.76
-2.35
16.89
36.33
56.05
75.44
92.88
105.87
111.71
108.40
95.53
74.67
49.08
22.81
-0.41
-18.16
-29.91
-36.86
-41.33
-45.76
-51.83
-59.89
-69.00
-77.39
-83.34
-85.70
-84.30
-79.84
-73.61
-67.11
-61.85
-59.22
-60.30
-65.56
-74.57
-85.79
-96.75
-104.65
-107.14
-103.04
-92.67
-77.72
-60.58
-43.60
-28.41
-15.64
-5.10
3.80
11.59
18.46
24.28
28.85
32.14
34.43
36.20
37.97
40.01
42.28
44.51
46.38
47.64
48.24
48.32
48.11
47.80
47.45
46.97
46.21
45.07
43.58
41.90
40.22
38.57
36.89
35.07
33.16
31.50
30.62
31.02
32.94
36.20
40.21
44.20
47.48
49.63
50.56
50.43
49.51
48.08
46.35
44.41
42.35
40.23
38.14
36.21
34.53
33.17
32.17
31.57
31.51
32.23
33.99
36.89
40.77
45.17
49.42
52.88
55.07
55.82
55.30
53.83
51.84
49.60
47.17
44.36
40.85
36.36
30.84
24.59
18.11
11.94
6.48
1.93
-1.69
-4.35
-6.04
-6.78
-6.87
-6.89
-7.65
-9.91
-14.11
-20.15
-27.48
-35.28
-42.65
-48.76
-52.98
-54.87
-54.30
-51.44
-46.79
-40.99
-34.67
-28.28
-22.00
-15.83
-9.71
-3.68
2.06
7.18
11.20
13.64
14.09
12.34
8.46
2.82
-3.97
-11.23
-18.35
-24.91
-30.69
-35.57
-39.49
-42.34
-43.99
-44.40
-43.66
-42.05
-40.02
-38.13
-36.87
-36.57
-37.31
-38.88
-40.92
-43.13
-45.34
-47.63
-50.23
-53.29
-56.76
-60.34
-63.70
-66.64
-69.17
-71.38
-73.23
-74.28
-73.84
-71.24
-66.33
-59.75
-52.77
-46.82
-42.86
-41.06
-40.90
-41.61
-42.72
-44.25
-46.71
-50.66
-56.54
-64.40
-73.91
-84.25
-94.03
-101.27
-103.60
-98.86
-85.71
-64.12
-35.42
-1.81
34.32
70.84
106.09
138.71
167.47
191.22
209.20
221.30
228.10
230.80
230.79
229.33
227.34
225.39
223.78
222.69
222.20
222.42
223.42
225.30
228.11
231.71
235.62
238.94
240.36
238.46
232.10
220.89
205.22
186.16
164.88
142.25
118.46
93.22
66.23
37.67
8.62
-19.04
-43.02
-61.22
-72.32
-76.04
-73.25
-65.89
-56.64
-48.46
-43.97
-44.65
-50.21
-58.41
-65.49
-67.35
-60.91
-45.36
-22.57
3.45
28.26
48.73
64.23
76.54
88.34
101.23
114.31
124.09
125.76
115.28
91.27
55.92
14.48
-26.15
-59.57
-81.46
-90.60
-88.68
-79.27
-66.50
-53.77
-43.14
-35.40
-30.59
-28.39
-28.18
-28.79
-28.49
-25.34
-18.06
-6.85
6.46
19.01
28.12
32.32
31.82
28.15
23.26
18.73
15.34
13.21
12.04
11.39
10.78
9.65
7.39
3.49
-2.20
-9.36
-17.24
-24.82
-31.15
-35.52
-37.57
-37.26
-34.81
-30.59
-25.10
-18.80
-12.09
-5.20
1.78
8.93
16.38
24.20
32.32
40.50
48.37
55.65
62.29
68.44
74.23
79.33
82.62
82.28
76.35
63.51
43.80
18.74
-9.23
-37.60
-64.69
-90.06
-114.25
-138.36
-163.65
-191.51
-223.42
-260.65
-303.33
-349.34
-393.73
-429.36
-448.76
-446.62
-421.45
-375.86
-315.12
-245.19
-171.28
-97.59
-28.07
32.92
80.90
112.37
126.33
124.93
112.79
95.38
77.18
60.71
46.49
33.91
22.33
11.69
2.55
-4.38
-8.72
-10.67
-10.96
-10.49
-9.92
-9.47
-8.92
-7.88
-6.15
-3.90
-1.60
0.22
1.21
1.41
1.14
0.81
0.67
0.74
0.84
0.82
0.61
0.28
0.00
-0.12
-0.06
0.04
0.00
-0.32
-0.98
-1.95
-3.14
-4.47
-5.96
-7.66
-9.67
-12.01
-14.63
-17.40
-20.14
-22.70
-24.92
-26.63
-27.70
-28.00
-27.54
-26.52
-25.25
-24.15
-23.51
-23.46
-23.90
-24.59
-25.20
-25.46
-25.18
-24.29
-22.86
-21.03
-18.91
-16.52
-13.75
-10.46
-6.61
-2.43
1.69
5.27
8.01
9.87
11.02
11.73
12.07
11.96
11.11
9.28
6.45
2.86
-0.99
-4.54
-7.32
-9.15
-10.14
-10.62
-11.00
-11.60
-12.56
-13.77
-14.98
-15.89
-16.34
-16.26
-15.76
-15.08
-14.65
-15.11
-17.29
-21.99
-29.66
-40.09
-52.36
-65.15
-77.25
-87.95
-97.25
-105.57
-113.36
-120.68
-127.01
-131.45
-133.07
-131.13
-125.31
-115.66
-102.43
-85.99
-66.70
-44.92
-21.18
3.69
28.48
51.61
71.54
87.07
97.73
103.75
105.88
105.03
102.05
97.64
92.48
87.32
83.01
80.38
79.90
81.40
83.86
85.53
84.25
78.27
67.01
51.56
34.46
18.83
7.13
0.28
-2.51
-3.06
-3.05
-3.31
-3.58
-3.08
-1.27
1.65
4.79
7.09
7.83
6.94
4.90
2.45
0.16
-1.67
-2.99
-3.83
-4.10
-3.58
-2.02
0.69
4.36
8.58
12.85
16.77
20.28
23.65
27.35
31.77
36.99
42.64
47.89
51.64
52.76
50.47
44.51
35.22
23.34
9.80
-4.54
-18.90
-32.55
-44.69
-54.53
-61.41
-65.17
-66.18
-65.31
-63.50
-61.35
-58.83
-55.36
-50.07
-42.38
-32.30
-20.58
-8.46
2.81
12.42
20.31
27.06
33.57
40.59
48.54
57.44
67.13
77.48
88.41
99.79
111.17
121.86
131.25
139.21
146.22
153.08
160.14
166.58
170.27
168.29
157.94
138.00
109.20
74.09
36.19
-1.11
-35.33
-65.26
-90.64
-111.75
-128.92
-142.33
-152.11
-158.47
-161.90
-163.03
-162.43
-160.26
-156.14
-149.36
-139.28
-125.73
-109.21
-90.59
-70.73
-49.89
-27.73
-3.47
23.29
51.73
79.31
102.05
115.66
117.18
106.36
86.04
61.20
37.18
17.87
4.65
-3.33
-7.97
-10.88
-12.61
-12.77
-10.83
-6.87
-1.88
2.68
5.65
6.59
5.90
4.31
2.28
-0.32
-4.09
-9.69
-17.32
-26.56
-36.47
-45.91
-53.82
-59.56
-63.16
-65.51
-68.44
-74.37
-85.62
-103.34
-126.67
-152.41
-175.77
-191.85
-197.28
-191.43
-176.38
-155.91
-133.95
-113.11
-94.07
-75.91
-57.04
-36.25
-13.35
10.81
34.79
57.11
76.61
92.48
104.22
111.59
114.72
114.21
111.25
107.47
104.50
103.52
104.99
108.53
113.33
118.57
123.84
129.14
134.41
138.94
140.89
137.64
126.74
107.22
80.43
49.92
20.15
-5.13
-24.12
-37.12
-45.67
-51.29
-54.59
-55.20
-52.48
-46.32
-37.56
-27.69
-18.16
-9.75
-2.38
4.60
11.85
19.54
27.12
33.45
37.18
37.17
32.87
24.42
12.54
-1.66
-17.03
-32.54
-47.34
-60.70
-71.97
-80.65
-86.67
-90.68
-94.16
-99.18
-107.55
-119.79
-134.43
-148.13
-156.90
-157.77
-150.07
-135.72
-118.08
-100.33
-83.96
-68.32
-51.41
-31.24
-7.07
20.14
48.12
74.18
96.07
112.49
123.12
128.41
129.18
126.41
121.00
113.69
105.09
95.74
86.08
76.45
67.08
58.19
50.19
43.89
40.33
40.15
42.79
46.02
46.52
41.15
28.60
10.23
-10.50
-29.51
-43.95
-52.98
-57.32
-57.99
-55.06
-47.55
-34.28
-15.12
8.24
32.67
54.80
72.30
84.53
92.31
97.04
99.86
101.15
100.51
97.08
90.06
78.92
63.65
44.59
22.51
-1.50
-26.07
-49.61
-70.62
-88.00
-101.25
-110.53
-116.42
-119.68
-121.04
-121.09
-120.21
-118.47
-115.58
-110.91
-103.74
-93.61
-80.66
-65.72
-49.97
-34.47
-19.59
-4.92
10.42
27.20
45.52
64.57
82.98
99.19
112.01
120.90
125.96
127.82
127.32
125.29
122.31
118.66
114.25
108.77
101.89
93.51
83.98
74.14
65.04
57.49
51.64
46.70
41.18
33.50
22.73
9.13
-5.90
-20.31
-32.15
-40.23
-44.25
-44.57
-41.70
-35.99
-27.62
-16.89
-4.51
8.25
19.86
29.11
35.55
39.65
42.65
45.93
50.49
56.61
63.68
70.60
76.16
79.48
80.11
78.09
73.67
67.21
59.09
49.74
39.56
28.85
17.66
5.68
-7.49
-21.89
-36.64
-49.76
-58.63
-61.12
-56.73
-47.18
-35.98
-27.04
-22.98
-24.03
-27.98
-31.37
-31.10
-25.76
-16.10
-4.38
6.71
15.20
20.20
21.83
20.58
16.99
11.48
4.70
-2.33
-8.15
-11.33
-11.00
-7.22
-0.97
6.33
13.44
19.77
25.48
31.26
37.91
45.83
54.73
63.53
70.72
74.92
75.55
73.12
69.05
64.87
61.35
58.17
54.18
48.34
40.49
31.72
23.74
17.98
14.77
13.24
12.03
10.14
7.63
5.46
4.88
6.58
10.36
15.33
20.55
25.74
31.47
38.74
48.10
58.91
69.28
76.61
78.61
73.97
62.51
44.73
21.42
-6.18
-35.93
-64.40
-87.46
-101.76
-106.46
-103.92
-98.88
-96.06
-97.82
-102.99
-107.69
-107.65
-100.57
-87.20
-70.69
-54.80
-42.06
-33.06
-26.91
-22.41
-19.15
-17.77
-19.40
-24.63
-32.68
-41.41
-47.96
-50.05
-46.87
-39.37
-29.70
-20.13
-12.05
-5.55
0.41
7.24
16.04
27.08
39.83
53.15
65.63
75.81
82.36
84.26
81.05
72.90
60.52
44.99
27.53
9.53
-7.38
-21.32
-30.34
-32.89
-28.50
-18.11
-3.97
11.11
24.71
35.57
43.85
50.64
57.19
64.19
71.49
78.38
84.18
88.87
93.23
98.66
106.38
116.78
129.08
141.48
151.44
156.14
152.78
139.12
114.33
79.94
40.32
1.88
-29.05
-48.77
-58.08
-61.99
-67.47
-80.19
-102.05
-130.66
-160.99
-188.01
-208.81
-223.16
-232.47
-238.19
-240.66
-239.16
-232.65
-220.99
-205.40
-188.16
-171.64
-157.29
-145.15
-134.04
-122.44
-109.35
-94.77
-79.63
-65.13
-52.09
-40.60
-30.00
-19.24
-7.28
6.61
22.77
41.09
60.97
81.20
100.02
115.40
125.65
129.89
128.25
121.66
111.38
98.58
84.12
68.73
53.24
38.76
26.44
17.18
11.28
8.36
7.52
7.68
7.96
7.79
7.05
6.06
5.50
6.21
8.87
13.68
20.12
26.97
32.54
35.03
33.04
25.94
14.13
-1.00
-17.50
-33.49
-47.81
-60.40
-72.14
-84.36
-98.11
-113.64
-130.14
-145.94
-158.99
-167.48
-170.44
-167.95
-161.10
-151.50
-140.58
-129.07
-116.72
-102.67
-86.11
-66.85
-45.66
-23.94
-3.10
15.97
33.05
48.43
62.45
75.21
86.56
96.24
104.08
110.11
114.50
117.37
118.83
119.00
118.13
116.59
114.93
113.69
113.34
114.05
115.44
116.19
114.04
106.30
90.94
67.82
39.23
9.28
-17.57
-38.15
-51.48
-58.35
-60.16
-57.69
-50.73
-38.71
-21.75
-1.33
19.96
39.33
54.79
65.80
72.98
77.62
80.95
83.81
86.51
88.95
90.70
91.08
89.20
84.00
74.48
60.02
40.70
17.58
-7.48
-32.27
-54.93
-74.56
-91.41
-106.64
-121.63
-137.46
-154.43
-171.98
-188.77
-202.83
-212.00
-214.40
-209.12
-196.65
-178.87
-158.41
-137.71
-118.11
-99.61
-81.21
-61.84
-41.04
-19.29
2.26
22.36
40.05
54.85
66.67
75.68
82.25
87.02
90.97
95.29
101.23
109.60
120.62
133.75
147.91
161.69
173.70
182.83
188.35
189.93
187.61
181.77
172.95
161.67
148.32
133.24
116.89
100.01
83.56
68.40
54.77
42.10
29.17
14.73
-1.85
-20.15
-38.84
-56.21
-70.80
-81.79
-88.97
-92.63
-93.11
-90.79
-85.96
-78.92
-69.90
-59.12
-47.02
-34.33
-22.30
-12.52
-6.66
-6.02
-11.12
-21.66
-36.70
-54.97
-75.25
-96.50
-117.81
-138.40
-157.49
-174.34
-188.31
-198.91
-205.92
-209.35
-209.34
-205.93
-198.85
-187.40
-170.74
-148.55
-121.55
-91.76
-62.08
-35.28
-13.00
4.82
19.76
34.11
49.81
67.81
87.96
109.24
130.28
149.70
166.27
178.99
187.23
190.80
190.01
185.67
178.90
170.86
162.55
154.63
147.44
141.06
135.37
130.33
126.09
122.99
121.46
121.57
122.60
122.82
119.79
111.11
95.47
73.19
46.03
16.42
-13.52
-42.46
-69.61
-93.95
-113.72
-126.52
-130.22
-124.07
-109.22
-88.49
-65.23
-42.24
-21.07
-2.12
14.76
29.66
42.39
52.63
60.28
65.57
68.95
70.68
70.41
67.13
59.51
46.43
27.61
3.88
-22.98
-50.74
-77.54
-102.62
-126.48
-150.44
-175.65
-202.02
-227.74
-249.58
-264.05
-268.75
-263.17
-248.63
-227.48
-202.07
-174.18
-145.08
-115.85
-87.79
-62.23
-40.07
-21.28
-4.76
11.17
28.11
46.86
67.07
87.46
106.35
122.44
135.20
145.07
153.03
160.05
166.59
172.25
176.11
177.15
174.72
168.90
160.43
150.51
140.48
131.54
124.52
119.58
115.94
111.75
104.37
91.31
71.25
44.86
14.78
-15.33
-42.16
-63.94
-80.78
-93.94
-104.69
-113.24
-118.53
-118.81
-112.80
-100.48
-83.32
-63.71
-44.06
-25.97
-9.98
4.32
17.69
30.72
43.50
55.54
66.07
74.36
79.95
82.77
83.06
81.23
77.75
73.18
68.21
63.60
59.96
57.45
55.45
52.53
46.79
36.59
21.29
1.64
-20.55
-43.12
-64.53
-84.24
-102.44
-119.30
-134.26
-145.91
-152.46
-152.68
-146.57
-135.53
-121.77
-107.43
-93.86
-81.41
-69.76
-58.58
-48.04
-38.87
-32.07
-28.35
-27.64
-28.94
-30.62
-31.00
-28.98
-24.42
-18.02
-10.91
-3.97
2.62
9.49
17.83
28.84
43.45
61.98
84.14
108.84
134.25
157.76
176.40
187.46
189.29
181.91
167.06
147.54
126.20
105.02
84.80
65.49
46.97
29.56
14.13
1.61
-7.58
-13.92
-18.59
-22.97
-27.91
-33.46
-38.88
-43.07
-45.12
-44.71
-42.13
-38.16
-33.59
-28.84
-23.84
-18.02
-10.63
-1.27
9.71
20.99
30.50
35.74
34.47
25.16
7.47
-17.41
-46.79
-76.92
-103.93
-125.07
-139.54
-148.68
-155.06
-161.12
-167.82
-174.16
-177.60
-175.24
-165.09
-146.86
-121.92
-92.73
-62.12
-32.72
-6.73
14.13
28.60
35.97
36.24
30.22
19.51
6.24
-7.36
-19.47
-29.00
-35.58
-39.29
-40.27
-38.38
-33.21
-24.32
-11.51
4.94
24.31
45.68
68.16
90.95
113.37
134.74
154.40
171.76
186.37
197.80
205.54
209.05
207.96
202.59
194.27
185.29
178.31
175.33
176.85
181.63
187.27
191.33
192.53
191.18
188.85
187.45
188.24
191.24
195.47
199.55
202.43
203.68
203.18
200.50
194.40
182.85
163.66
135.38
97.82
51.94
-0.83
-58.96
-120.69
-183.13
-241.55
-289.75
-321.53
-332.86
-323.55
-297.55
-261.64
-223.42
-189.52
-164.67
-151.78
-152.49
-167.47
-196.25
-236.35
-282.61
-327.29
-361.23
-376.18
-367.25
-334.62
-283.73
-223.41
-162.98
-109.44
-66.00
-32.48
-6.97
12.44
26.81
36.54
42.20
45.13
47.34
50.81
56.85
65.70
76.60
88.35
99.72
109.51
116.31
118.26
113.36
100.19
78.92
51.76
22.40
-5.36
-29.09
-48.58
-65.42
-81.66
-98.37
-114.83
-128.84
-137.82
-139.93
-134.78
-123.20
-106.61
-86.42
-63.58
-38.72
-12.37
14.64
41.20
65.96
87.67
105.49
119.02
128.16
132.75
132.47
126.95
116.18
100.85
82.38
62.31
41.54
19.78
-4.29
-32.02
-63.56
-96.90
-127.97
-151.91
-164.88
-165.66
-156.21
-140.77
-124.24
-110.25
-100.18
-93.28
-87.64
-81.41
-73.60
-63.98
-52.63
-39.42
-23.97
-6.06
13.75
33.94
52.36
67.18
77.73
84.96
91.01
98.30
108.33
121.14
135.25
148.38
158.49
164.46
166.40
165.42
163.08
160.90
159.94
160.49
161.89
162.57
160.45
153.72
141.59
124.60
104.22
82.05
58.99
35.12
10.23
-15.33
-40.15
-62.04
-78.93
-89.75
-94.85
-95.48
-93.09
-88.62
-82.46
-74.76
-65.85
-56.30
-46.80
-37.82
-29.57
-22.15
-15.78
-10.97
-8.46
-8.91
-12.69
-19.75
-29.66
-41.76
-55.36
-69.90
-84.94
-100.15
-115.22
-129.76
-143.26
-155.07
-164.46
-170.57
-172.48
-169.26
-160.19
-145.11
-124.70
-100.62
-75.17
-50.67
-28.83
-10.21
5.67
20.00
33.94
48.17
62.63
76.71
89.48
100.14
108.20
113.55
116.49
117.65
117.77
117.54
117.41
117.50
117.64
117.49
116.74
115.26
113.13
110.64
108.25
106.53
106.00
106.85
108.54
109.67
108.18
102.15
90.58
73.97
54.04
32.90
12.27
-7.03
-24.66
-40.18
-52.52
-60.29
-62.44
-59.13
-51.87
-42.87
-34.07
-26.38
-19.64
-13.21
-6.72
-0.42
4.91
8.57
10.23
10.14
8.75
6.24
2.22
-4.22
-14.05
-27.67
-44.47
-62.89
-80.89
-96.67
-109.19
-118.35
-124.78
-129.42
-133.14
-136.72
-140.78
-145.67
-151.25
-156.61
-160.23
-160.52
-156.67
-149.13
-139.50
-129.65
-120.64
-112.07
-102.39
-89.81
-73.38
-53.48
-31.50
-8.99
13.08
34.57
55.73
76.68
96.90
115.37
131.04
143.30
152.30
158.88
164.23
169.44
175.14
181.28
187.17
191.73
193.81
192.67
188.29
181.51
173.80
166.86
161.86
159.04
157.38
154.89
149.20
138.32
121.38
98.92
72.66
44.88
17.64
-7.83
-31.18
-52.66
-72.61
-90.95
-107.12
-120.24
-129.47
-134.40
-135.20
-132.48
-127.05
-119.60
-110.56
-100.22
-88.76
-76.52
-64.00
-51.86
-40.72
-31.09
-23.20
-17.13
-12.79
-10.07
-8.78
-8.67
-9.33
-10.31
-11.37
-12.76
-15.43
-20.89
-30.52
-44.75
-62.37
-80.63
-96.26
-106.88
-112.16
-113.78
-114.25
-115.23
-116.30
-115.15
-108.90
-95.97
-77.13
-55.32
-34.19
-16.57
-3.40
6.10
13.47
19.95
25.93
30.97
34.39
35.83
35.52
34.24
32.89
32.13
32.13
32.60
33.16
33.69
34.62
36.88
41.54
49.32
60.21
73.41
87.62
101.61
114.76
127.22
139.59
152.08
163.91
173.12
177.13
173.83
162.73
145.43
125.18
105.75
90.04
79.16
72.45
68.21
64.75
61.11
57.23
53.50
50.36
47.86
45.67
43.21
39.88
35.28
29.26
21.89
13.39
4.08
-5.77
-16.16
-27.63
-41.38
-59.06
-82.18
-111.37
-145.49
-181.43
-214.73
-240.84
-256.97
-263.30
-262.90
-260.46
-260.03
-263.08
-267.83
-270.11
-265.37
-250.68
-225.86
-193.23
-156.37
-118.70
-82.62
-49.36
-19.67
5.71
25.72
39.42
46.50
47.76
45.09
40.90
37.27
35.23
34.61
34.36
33.35
31.09
28.00
25.24
24.07
25.33
29.08
34.82
41.84
49.68
58.36
68.34
80.22
94.42
110.94
129.27
148.56
167.74
185.62
200.99
212.72
220.10
223.19
223.09
221.84
221.85
225.02
231.94
241.53
251.44
258.84
261.50
258.43
250.07
238.03
224.54
211.93
202.01
195.76
192.96
192.22
191.45
188.49
181.85
171.02
156.43
138.95
119.45
98.36
75.60
50.52
21.98
-11.42
-50.72
-95.50
-142.93
-187.64
-223.03
-243.71
-248.10
-239.60
-225.41
-213.68
-210.21
-216.59
-230.74
-249.03
-268.71
-288.96
-310.26
-332.61
-354.30
-371.95
-381.98
-382.45
-374.02
-359.56
-342.57
-325.40
-308.29
-289.63
-267.16
-239.41
-206.62
-170.77
-134.76
-101.30
-72.02
-47.19
-25.99
-6.98
11.33
30.13
50.21
71.99
95.47
120.20
145.12
168.52
188.19
201.88
207.95
205.98
196.94
182.90
166.25
149.08
132.65
117.46
103.65
91.37
80.98
72.91
67.19
63.32
60.21
56.55
51.27
44.00
35.16
25.91
17.62
11.39
7.58
5.73
4.86
3.99
2.57
0.63
-1.38
-2.94
-3.67
-3.52
-2.79
-2.13
-2.65
-5.92
-13.70
-27.40
-47.26
-71.70
-97.22
-119.15
-132.99
-136.00
-128.13
-112.00
-91.71
-71.30
-53.29
-38.27
-25.27
-12.86
-0.11
12.95
25.49
36.48
45.12
51.04
54.14
54.46
52.08
47.26
40.53
32.77
25.04
18.29
13.16
9.82
7.95
7.01
6.48
6.23
6.54
8.05
11.27
15.97
20.81
23.44
21.40
13.30
-0.23
-16.61
-32.22
-43.98
-50.40
-51.87
-49.79
-45.39
-39.01
-30.10
-18.00
-2.76
14.52
32.06
48.12
61.62
72.39
80.94
88.11
94.77
101.66
109.22
117.50
125.88
133.03
136.95
135.36
126.24
108.43
82.04
48.51
10.27
-29.87
-69.56
-107.54
-143.85
-179.59
-216.10
-253.95
-292.12
-327.73
-356.45
-373.69
-375.98
-362.06
-333.24
-292.97
-245.76
-196.05
-147.33
-101.85
-60.75
-24.39
7.33
34.87
58.99
80.61
100.61
119.44
137.01
152.67
165.56
175.12
181.35
185.06
187.58
190.35
194.46
200.29
207.44
214.86
221.17
224.97
225.24
221.58
214.32
204.44
193.18
181.52
169.69
156.92
141.79
123.00
100.11
74.00
46.53
19.87
-4.25
-24.85
-41.45
-53.58
-60.62
-61.95
-57.53
-48.29
-36.08
-23.01
-10.79
-0.28
8.44
15.62
21.55
26.46
30.77
35.38
41.44
49.95
60.96
73.15
83.83
89.53
86.97
74.05
50.50
17.93
-20.68
-61.98
-103.17
-142.61
-179.90
-215.32
-249.00
-280.28
-307.51
-328.39
-340.67
-342.88
-334.73
-317.08
-291.60
-260.26
-224.94
-187.22
-148.48
-110.03
-73.15
-39.03
-8.46
18.34
41.80
62.75
81.97
99.85
116.21
130.58
142.50
151.94
159.28
165.20
170.28
174.87
179.07
182.88
186.26
189.20
191.75
194.01
196.12
198.20
200.01
200.68
198.65
191.95
179.01
159.34
133.87
104.71
74.38
45.05
18.21
-5.24
-24.65
-39.44
-49.13
-53.71
-53.74
-50.27
-44.48
-37.33
-29.56
-21.77
-14.78
-9.68
-7.63
-9.43
-15.18
-24.28
-35.65
-48.20
-61.16
-74.24
-87.43
-100.73
-113.76
-125.80
-135.94
-143.44
-148.03
-149.95
-149.86
-148.53
-146.63
-144.49
-142.03
-138.72
-133.66
-125.86
-114.59
-99.71
-81.79
-62.02
-41.83
-22.49
-4.82
10.89
24.75
37.11
48.33
58.70
68.21
76.59
83.25
87.51
88.99
87.81
84.66
80.60
76.65
73.50
71.34
69.94
68.86
67.63
65.92
63.59
60.74
57.76
55.23
53.76
53.61
54.32
54.52
52.12
44.97
31.73
12.56
-10.71
-35.14
-57.60
-75.64
-87.93
-94.27
-95.11
-91.28
-83.80
-73.97
-63.41
-53.88
-46.85
-42.99
-42.04
-42.95
-44.37
-45.15
-44.63
-42.67
-39.43
-35.18
-30.13
-24.39
-18.05
-11.21
-3.97
3.53
11.19
18.93
26.71
34.54
42.39
50.28
58.14
65.88
73.34
80.34
86.72
92.36
97.28
101.57
105.42
109.04
112.65
116.37
120.17
123.78
126.63
127.95
126.89
122.78
115.33
104.68
91.25
75.56
57.93
38.42
16.87
-6.86
-32.68
-60.24
-88.95
-118.18
-147.41
-176.22
-204.34
-231.54
-257.62
-282.17
-304.32
-322.44
-334.12
-336.57
-327.58
-306.49
-274.82
-235.98
-194.27
-153.53
-116.24
-83.31
-54.63
-29.84
-8.87
8.15
21.20
30.86
38.26
44.77
51.45
58.65
66.02
72.75
78.11
81.80
84.11
85.75
87.58
90.15
93.56
97.45
101.21
104.29
106.43
107.78
108.72
109.79
111.39
113.64
116.32
118.86
120.63
121.03
119.83
117.23
113.85
110.48
107.73
105.61
103.38
99.75
93.33
83.29
69.85
54.37
39.01
25.96
16.72
11.68
10.07
10.38
10.81
9.72
6.08
-0.23
-8.12
-15.31
-18.70
-15.38
-3.92
14.57
36.28
55.72
67.74
69.45
61.20
46.15
28.79
13.20
2.01
-3.63
-3.42
2.67
14.49
31.23
50.92
70.32
85.71
94.08
94.27
87.33
75.94
63.22
51.51
41.53
32.68
23.77
14.07
4.14
-4.43
-9.86
-11.23
-9.01
-4.63
0.50
6.05
12.95
22.86
37.10
55.90
78.13
101.55
123.39
140.84
151.40
153.24
145.58
128.97
105.42
78.13
50.89
27.21
9.74
-0.22
-2.71
1.03
8.84
18.28
27.22
34.27
39.00
41.80
43.34
44.03
43.57
41.05
35.41
26.14
13.78
-0.06
-13.35
-24.57
-33.46
-40.97
-48.65
-57.60
-67.86
-78.46
-88.16
-96.24
-102.91
-108.91
-114.83
-120.55
-125.27
-128.03
-128.22
-126.02
-122.25
-117.93
-113.78
-110.02
-106.44
-102.69
-98.59
-94.29
-90.30
-87.26
-85.65
-85.58
-86.62
-87.92
-88.48
-87.59
-85.15
-81.77
-78.41
-75.97
-74.81
-74.65
-74.86
-74.79
-73.94
-71.89
-68.13
-62.27
-54.37
-45.17
-35.84
-27.28
-19.34
-10.73
0.50
15.93
36.09
60.45
88.24
119.32
154.61
195.57
243.02
295.82
350.29
400.72
440.87
465.83
473.51
465.18
444.76
417.18
386.53
354.87
322.44
288.78
254.17
220.30
189.71
164.40
144.40
127.44
109.82
88.25
61.49
31.08
0.63
-25.92
-46.15
-60.40
-71.48
-83.53
-100.37
-124.44
-156.52
-195.57
-238.32
-278.79
-308.57
-319.02
-304.90
-267.88
-217.47
-168.19
-133.96
-122.46
-132.52
-155.88
-181.99
-202.94
-215.90
-222.28
-224.83
-225.02
-222.43
-215.91
-205.28
-192.26
-179.91
-171.22
-167.64
-168.42
-170.84
-171.65
-168.46
-160.68
-149.83
-138.68
-129.90
-124.97
-123.59
-123.99
-123.87
-121.46
-116.20
-108.80
-100.80
-93.81
-88.94
-86.40
-85.65
-85.63
-85.08
-82.71
-77.38
-68.22
-54.83
-37.44
-16.85
5.69
28.70
50.72
70.43
86.70
98.62
105.70
108.02
106.26
101.55
95.09
87.74
79.99
72.04
64.13
56.58
49.73
43.71
38.37
33.39
28.56
23.96
20.06
17.38
16.22
16.53
17.96
20.23
23.59
28.96
37.83
51.69
71.37
96.41
124.84
153.52
178.84
197.72
208.21
209.70
202.60
187.77
166.15
138.66
106.16
69.56
29.77
-12.27
-55.50
-98.42
-138.90
-174.30
-201.94
-220.06
-228.25
-227.57
-219.81
-206.56
-188.61
-166.12
-139.37
-109.57
-79.10
-50.85
-27.19
-8.98
4.58
15.23
24.58
33.21
40.51
45.17
46.12
43.09
36.78
28.38
19.12
9.95
1.46
-5.94
-11.85
-15.92
-18.00
-18.17
-16.79
-14.32
-11.22
-7.79
-4.23
-0.67
2.78
6.10
9.36
12.67
16.07
19.37
22.09
23.58
23.20
20.58
15.69
8.85
0.63
-8.39
-17.72
-27.07
-36.35
-45.57
-54.81
-64.12
-73.46
-82.81
-92.14
-101.52
-111.03
-120.67
-130.16
-138.95
-146.22
-151.15
-153.09
-151.80
-147.47
-140.56
-131.63
-121.10
-109.18
-95.85
-81.08
-65.01
-47.97
-30.53
-13.37
2.92
17.87
31.14
42.55
52.03
59.66
65.69
70.53
74.66
78.58
82.70
87.26
92.30
97.58
102.62
106.79
109.36
109.78
107.74
103.44
97.65
91.69
87.12
85.33
87.00
91.71
97.89
103.18
105.16
102.15
93.71
80.75
65.18
49.24
34.90
23.43
15.27
10.09
7.10
5.20
3.43
1.06
-2.03
-5.50
-8.54
-10.25
-10.00
-7.66
-3.69
1.06
5.55
8.82
10.14
9.15
5.86
0.75
-5.22
-10.79
-14.65
-15.87
-14.15
-10.06
-4.75
0.40
4.18
5.91
5.45
3.08
-0.81
-5.88
-12.03
-19.27
-27.76
-37.63
-48.93
-61.57
-75.25
-89.32
-102.86
-114.81
-124.29
-130.95
-135.18
-137.93
-140.47
-143.84
-148.55
-154.38
-160.52
-165.87
-169.45
-170.62
-169.24
-165.58
-160.06
-153.00
-144.47
-134.20
-121.78
-106.82
-89.14
-68.90
-46.57
-22.85
1.44
25.42
48.25
69.11
87.42
102.86
115.55
125.98
134.95
143.33
151.76
160.55
169.58
178.44
186.65
193.86
199.99
205.13
209.33
212.30
213.34
211.36
205.25
194.20
177.98
157.03
132.34
105.16
76.74
48.20
20.40
-6.05
-30.73
-53.37
-73.81
-91.92
-107.55
-120.41
-130.04
-135.92
-137.59
-134.83
-127.77
-116.84
-102.61
-85.63
-66.29
-44.88
-21.74
2.50
26.80
49.80
69.96
85.95
96.97
102.87
104.08
101.38
95.60
87.55
77.94
67.60
57.42
48.21
40.49
34.14
28.61
23.23
17.59
11.86
6.57
2.23
-1.12
-4.01
-7.27
-11.52
-16.85
-22.79
-28.51
-33.19
-36.36
-37.91
-38.07
-37.26
-36.03
-34.96
-34.55
-35.08
-36.46
-38.34
-40.18
-41.62
-42.60
-43.34
-44.24
-45.60
-47.70
-50.84
-55.57
-62.67
-72.86
