1660754588.00
64.000000
-0.00
-0.00
-0.00
-0.00
-0.00
-0.00
-0.00
-0.00
-0.00
-0.00
0.00
0.01
0.01
-0.00
-0.03
-0.05
-0.05
0.00
0.13
0.36
0.66
1.01
1.37
1.72
2.06
2.40
2.79
3.24
3.80
4.42
5.06
5.66
6.20
6.68
7.15
7.68
8.31
9.14
10.09
11.04
11.88
12.56
13.14
13.76
14.65
15.96
17.91
20.32
22.90
25.38
27.58
29.57
31.68
34.32
37.81
42.54
48.15
54.10
59.83
64.97
69.58
74.14
79.34
85.71
93.76
103.00
112.62
121.73
129.77
136.75
143.30
150.75
157.77
166.64
177.95
191.79
206.97
220.57
228.25
225.36
208.53
176.87
132.76
80.05
23.07
-34.94
-92.44
-149.16
-205.23
-260.37
-313.74
-363.87
-409.83
-450.91
-486.50
-515.74
-537.23
-549.22
-549.96
-538.37
-514.21
-478.67
-433.88
-382.45
-327.02
-269.84
-212.63
-156.66
-102.95
-52.37
-5.90
35.58
71.43
101.35
125.50
144.38
158.69
169.15
176.37
180.75
182.57
182.07
179.51
175.23
169.65
163.18
156.15
148.81
141.30
133.69
126.02
118.33
110.69
103.16
95.80
88.68
81.83
75.25
68.95
62.95
57.25
51.86
46.78
42.03
37.59
33.45
29.61
26.07
22.81
19.83
17.11
14.67
12.48
10.54
8.83
7.35
6.07
4.97
4.05
3.27
2.62
2.09
1.65
1.30
1.01
0.79
0.61
0.47
0.37
0.29
0.23
0.20
0.17
0.16
0.16
0.17
0.19
0.22
0.25
0.29
0.33
0.37
0.42
0.46
0.51
0.56
0.61
0.66
0.72
0.78
0.85
0.92
1.00
1.08
1.18
1.29
1.41
1.55
1.70
1.87
2.06
2.27
2.51
2.77
3.05
3.37
3.71
4.09
4.51
4.95
5.44
5.97
6.53
7.14
7.79
8.48
9.22
10.00
10.83
11.71
12.63
13.60
14.62
15.71
16.87
18.09
19.36
20.66
21.95
23.16
24.21
24.97
25.33
25.16
24.35
22.84
20.58
17.60
13.96
9.82
5.35
0.77
-3.72
-7.93
-11.70
-14.91
-17.46
-19.31
-20.44
-20.87
-20.68
-19.99
-18.92
-17.63
-16.25
-14.84
-13.42
-11.95
-10.43
-8.83
-7.17
-5.51
-3.89
-2.40
-1.00
0.36
1.87
3.54
5.42
7.44
9.45
11.25
12.67
13.70
14.54
15.59
16.98
18.82
21.02
23.24
25.04
26.03
26.11
25.60
25.23
25.28
26.04
27.41
28.90
29.75
29.26
27.16
23.79
20.00
16.13
12.55
9.16
5.30
-0.24
-9.15
-23.54
-45.81
-73.26
-103.90
-134.39
-160.22
-176.90
-181.44
-173.61
-156.04
-133.28
-109.97
-89.94
-74.61
-63.38
-54.77
-47.47
-40.82
-34.74
-29.19
-23.83
-18.60
-13.34
-8.13
-3.46
-0.02
1.66
1.55
0.14
-1.65
-3.07
-3.39
-2.04
1.33
6.80
14.03
22.23
30.14
36.48
40.21
41.23
40.24
38.49
37.31
37.81
40.56
45.29
50.84
55.25
56.48
53.09
44.93
33.31
20.66
9.64
2.45
0.16
2.56
8.51
16.35
24.33
30.92
35.07
36.28
34.54
30.29
24.18
17.07
10.12
4.69
2.16
3.43
8.54
16.49
25.50
33.54
38.88
40.63
38.70
33.73
26.78
19.00
11.30
4.08
-2.80
-9.79
-17.31
-25.47
-34.07
-42.63
-50.51
-56.85
-60.64
-60.76
-56.39
-47.45
-34.95
-20.76
-7.09
4.35
12.72
18.05
20.91
21.92
21.68
20.85
20.26
20.65
22.21
24.26
25.50
24.58
20.90
15.05
8.56
3.20
0.23
-0.08
1.65
4.28
6.61
7.67
6.81
3.87
-0.76
-6.19
-11.38
-15.53
-18.47
-20.71
-23.05
-26.19
-30.20
-34.50
-37.98
-39.50
-38.23
-33.94
-27.05
-18.44
-9.19
-0.26
7.68
14.30
19.59
23.74
27.03
29.57
31.34
32.25
32.20
31.18
29.24
26.55
23.30
19.74
16.11
12.54
9.11
5.70
2.15
-1.79
-6.29
-11.38
-16.89
-22.38
-27.06
-29.96
-30.31
-27.90
-23.42
-18.27
-14.11
-12.27
-13.28
-16.67
-21.13
-24.97
-26.51
-24.58
-18.81
-9.75
1.18
12.00
20.79
26.23
27.91
26.46
23.11
19.22
15.80
13.38
12.09
11.84
12.45
13.78
15.68
17.99
20.44
22.59
23.90
23.85
22.08
18.54
13.58
7.82
2.00
-3.24
-7.21
-9.39
-9.49
-7.73
-4.95
-2.46
-1.61
-3.38
-7.94
-14.51
-21.58
-27.30
-30.02
-28.80
-23.80
-16.31
-8.35
-2.03
1.23
1.15
-1.31
-4.52
-6.83
-7.33
-6.05
-3.74
-1.27
0.61
1.44
1.04
-0.60
-3.21
-6.37
-9.72
-13.04
-16.28
-19.61
-23.38
-27.93
-33.42
-39.51
-45.49
-50.50
-53.95
-55.71
-56.55
-57.93
-61.49
-68.45
-78.68
-91.00
-103.63
-114.73
-122.29
-125.43
-124.95
-123.17
-123.32
-126.90
-133.39
-140.13
-142.78
-135.68
-115.36
-82.32
-40.79
2.85
45.48
86.77
128.01
170.70
216.94
266.31
315.27
358.08
387.09
397.86
387.30
353.78
299.44
233.98
170.60
121.47
93.33
84.09
89.28
101.75
114.21
103.71
58.67
-15.98
-102.16
-169.46
-217.99
-252.60
-276.00
-292.16
-300.91
-299.24
-286.06
-263.86
-238.09
-216.22
-199.95
-188.23
-179.35
-171.45
-161.61
-148.54
-133.37
-119.19
-110.53
-106.73
-105.43
-104.35
-101.63
-95.03
-83.12
-65.73
-43.93
-20.16
7.16
39.56
76.92
117.34
158.47
198.13
234.63
266.93
294.48
322.19
354.88
394.63
439.49
484.22
522.25
547.52
555.96
546.53
526.49
504.61
487.60
478.05
475.18
477.13
482.34
489.56
468.47
401.05
286.84
144.62
0.53
-125.57
-224.48
-295.14
-341.03
-367.75
-376.88
-370.11
-350.58
-323.30
-293.72
-266.07
-242.78
-225.00
-213.05
-203.22
-191.46
-175.63
-156.55
-136.95
-119.89
-107.79
-101.96
-103.42
-110.49
-120.75
-132.42
-144.09
-153.47
-156.48
-148.08
-124.92
-85.77
-38.19
6.01
34.36
38.94
19.70
-15.74
-55.75
-89.97
-113.07
-125.32
-129.65
-129.81
-127.76
-123.39
-115.81
-104.94
-92.27
-80.57
-74.06
-72.00
-72.28
-71.76
-67.51
-58.16
-44.47
-28.92
-14.66
-4.37
1.31
3.03
2.50
1.55
1.27
2.00
3.67
6.32
10.10
15.60
22.64
30.27
36.81
40.49
40.22
36.05
29.15
20.94
12.85
5.41
-1.42
-7.91
-14.13
-19.77
-24.41
-26.71
-26.45
-24.17
-21.21
-18.95
-18.31
-19.31
-21.22
-23.05
-24.11
-24.48
-24.72
-25.41
-26.64
-27.91
-28.23
-26.70
-22.84
-16.79
-9.39
-1.69
5.18
10.31
13.10
13.36
11.39
7.98
4.27
1.47
0.62
2.34
6.53
12.34
18.23
22.28
22.60
17.91
7.95
-6.20
-22.33
-37.60
-49.08
-54.50
-52.54
-43.14
-27.44
-7.75
12.81
30.93
43.84
50.09
49.82
44.43
35.66
24.73
12.07
-2.20
-17.16
-30.55
-39.01
-39.55
-31.19
-16.01
1.46
15.94
23.74
24.14
19.41
13.35
9.43
9.47
13.40
19.89
27.38
34.63
40.83
45.25
47.13
45.97
41.93
36.12
30.17
25.32
21.24
15.87
6.23
-9.66
-30.96
-53.35
-70.24
-75.41
-65.92
-43.71
-15.16
11.24
28.18
32.18
24.72
11.21
-1.30
-6.91
-2.78
10.32
28.97
48.80
66.06
78.50
85.27
86.37
82.06
72.84
59.77
44.81
30.88
21.04
17.60
21.21
30.72
43.70
57.46
70.01
80.54
89.22
96.44
101.91
104.47
102.73
96.42
87.54
80.36
79.97
90.02
110.81
139.03
169.04
195.03
212.70
219.90
216.19
202.26
179.85
152.18
124.03
100.79
86.68
82.66
85.72
89.76
88.19
76.64
54.70
25.67
-5.12
-32.59
-53.62
-67.54
-75.72
-80.67
-85.23
-92.02
-103.19
-120.04
-142.82
-170.78
-202.55
-236.99
-274.12
-315.44
-363.08
-417.76
-476.86
-533.68
-579.00
-604.14
-604.35
-580.62
-538.94
-487.44
-433.07
-379.52
-327.30
-275.54
-224.03
-174.10
-127.92
-86.82
-49.94
-14.28
23.90
67.11
115.48
166.90
218.35
267.57
313.83
357.52
398.73
436.23
467.53
490.02
502.41
505.17
499.57
486.10
463.92
432.10
392.26
350.25
315.27
296.15
296.99
314.85
341.04
365.45
381.08
386.17
383.07
375.13
363.89
348.62
327.91
301.94
273.48
246.90
226.06
212.37
204.25
198.08
189.84
176.67
157.72
133.86
106.81
77.92
47.24
13.47
-25.40
-70.96
-123.28
-180.48
-239.34
-296.23
-348.54
-395.37
-437.69
-477.81
-518.77
-563.65
-614.74
-672.38
-733.85
-793.03
-841.41
-870.57
-875.14
-854.88
-814.72
-762.53
-706.04
-650.34
-597.26
-546.44
-497.19
-449.77
-405.14
-364.06
-325.96
-288.81
-250.05
-207.91
-162.33
-115.08
-69.05
-26.75
10.76
44.41
76.66
110.42
147.71
188.82
232.19
275.26
315.54
351.73
384.12
414.37
444.97
478.63
517.79
563.87
616.25
671.41
722.72
761.70
780.46
774.66
745.14
697.70
640.68
581.71
525.41
472.81
422.65
373.39
324.66
277.38
232.89
191.80
153.31
115.59
76.59
34.95
-9.43
-55.32
-100.79
-144.15
-184.49
-222.09
-258.23
-294.52
-332.45
-373.27
-418.33
-469.05
-526.19
-588.45
-651.26
-706.97
-746.76
-763.71
-755.63
-725.95
-682.18
-632.86
-584.42
-539.77
-498.70
-459.73
-421.71
-384.48
-348.52
-314.15
-281.05
-248.44
-215.52
-181.91
-147.66
-113.30
-79.36
-46.29
-14.33
16.48
46.29
75.40
104.31
133.73
164.39
197.13
232.60
270.82
310.75
349.97
385.03
412.72
431.49
442.67
450.73
462.15
483.41
518.34
566.18
621.06
673.36
712.58
730.60
724.25
695.89
652.05
600.63
548.08
497.90
450.77
405.97
363.05
322.57
285.53
252.47
222.49
193.28
162.07
126.85
87.22
44.54
1.31
-40.18
-78.44
-113.54
-147.05
-181.25
-218.27
-259.67
-306.62
-359.96
-419.76
-483.70
-546.61
-600.87
-638.31
-652.87
-642.81
-611.46
-565.70
-513.28
-459.33
-406.02
-353.61
-302.21
-252.69
-206.50
-164.80
-127.59
-93.78
-60.80
-26.79
8.17
41.92
71.22
93.32
106.90
112.45
106.11
86.27
55.00
18.00
-18.81
-52.09
-81.09
-106.31
-127.40
-144.87
-157.68
-164.83
-166.36
-163.44
-157.65
-149.85
-141.70
-133.62
-125.55
-116.35
-105.09
-91.67
-76.94
-62.28
-48.91
-37.66
-28.60
-21.43
-15.12
-8.65
-1.50
6.18
13.72
20.42
25.70
29.59
32.47
35.37
39.38
45.18
52.75
61.37
69.91
77.29
83.09
87.61
92.00
97.67
105.65
116.12
128.27
140.76
152.39
162.83
172.81
183.88
197.76
215.73
238.40
265.82
297.41
331.84
366.70
398.47
423.10
437.41
440.52
434.52
423.76
412.70
403.73
396.09
386.43
370.91
347.25
315.75
278.86
239.74
200.40
161.12
121.00
79.41
37.33
-2.37
-35.75
-59.55
-72.30
-75.62
-73.68
-71.33
-71.97
-76.27
-82.78
-89.65
-96.51
-104.16
-114.62
-129.20
-146.73
-163.44
-174.86
-178.62
-176.19
-172.31
-171.41
-176.57
-187.85
-202.05
-213.60
-216.15
-204.27
-174.76
-127.75
-65.65
4.45
72.05
126.30
159.76
170.79
163.48
145.20
113.20
69.89
21.07
-25.78
-64.75
-93.01
-110.23
-117.76
-118.17
-114.68
-108.49
-100.58
-91.51
-81.39
-69.99
-57.15
-43.29
-29.57
-17.51
-7.02
1.81
9.11
15.20
20.56
25.81
31.32
37.04
42.62
48.64
55.02
61.72
68.65
75.84
83.41
91.45
99.89
108.53
117.66
126.84
135.67
143.77
150.75
156.29
159.89
160.77
157.44
152.48
146.49
139.71
132.15
123.78
114.71
105.16
95.55
86.39
78.15
70.53
63.13
55.46
47.08
37.82
27.90
17.88
8.44
0.15
-7.33
-14.74
-23.03
-33.00
-44.91
-58.23
-71.85
-84.41
-94.97
-103.78
-111.93
-121.04
-132.53
-146.93
-163.55
-180.77
-196.81
-210.56
-222.20
-233.06
-244.94
-259.52
-278.02
-301.09
-328.73
-359.54
-390.09
-414.90
-427.66
-423.62
-401.98
-366.55
-324.29
-282.22
-244.56
-211.74
-181.53
-151.38
-120.26
-89.23
-60.34
-35.45
-15.47
-0.62
9.09
13.71
13.54
9.58
3.35
-3.47
-9.45
-13.61
-15.11
-13.19
-7.57
0.80
9.15
13.46
10.09
-2.20
-21.09
-41.34
-56.98
-64.13
-62.70
-56.04
-48.70
-43.80
-41.22
-37.85
-29.57
-13.90
8.35
33.23
55.42
70.74
78.07
79.67
79.87
82.72
89.93
100.23
110.31
116.95
118.81
116.90
113.64
111.17
109.94
108.65
105.22
98.17
87.39
74.04
59.71
45.71
32.73
21.13
11.43
4.48
1.25
2.38
7.65
15.92
25.36
33.94
39.96
42.43
41.28
37.28
31.75
26.22
21.92
19.57
19.21
20.30
21.94
23.18
23.32
22.13
19.76
16.67
13.31
9.98
6.94
4.46
2.99
3.01
4.74
7.98
11.91
15.35
17.06
16.21
12.58
6.61
-0.63
-7.71
-13.00
-15.16
-13.59
-8.75
-2.08
4.53
9.53
12.24
12.90
12.21
10.78
8.82
6.40
3.86
1.98
1.77
3.94
8.44
14.42
20.71
26.45
31.44
35.98
40.37
44.37
47.00
46.80
42.62
34.29
22.90
10.51
-0.61
-8.78
-13.35
-14.74
-14.03
-12.43
-10.83
-9.61
-8.75
-8.15
-7.80
-7.85
-8.43
-9.42
-10.27
-10.28
-9.09
-7.13
-5.64
-6.15
-9.43
-14.76
-19.99
-22.65
-21.31
-16.54
-10.73
-6.67
-6.11
-8.76
-12.83
-16.15
-17.32
-16.22
-13.62
-10.30
-6.51
-1.92
3.92
11.09
19.00
26.59
32.61
36.15
36.89
35.15
31.82
28.14
25.28
23.99
24.39
25.86
27.35
27.80
26.44
22.93
17.34
10.07
1.92
-5.83
-11.64
-13.99
-12.15
-6.55
1.13
8.57
13.80
15.90
15.27
13.14
10.77
8.82
7.22
5.56
3.71
2.11
1.67
3.19
6.76
11.48
15.71
17.77
16.70
12.72
7.04
1.25
-3.57
-7.34
-10.96
-15.75
-22.52
-31.07
-40.05
-47.57
-52.01
-52.72
-50.07
-45.09
-38.70
-31.23
-22.71
-13.50
-4.83
1.44
3.81
2.26
-1.12
-2.88
0.15
9.05
22.14
35.82
46.51
52.32
53.73
52.75
51.33
50.25
48.98
46.46
42.02
35.93
29.16
22.78
17.47
13.30
9.99
7.32
5.24
3.88
3.35
3.54
4.14
4.82
5.40
5.95
6.67
7.68
8.81
9.49
8.81
5.90
0.24
-8.14
-18.45
-29.24
-38.48
-43.90
-43.80
-37.86
-27.60
-16.28
-7.80
-5.18
-9.30
-18.54
-29.73
-39.62
-46.31
-49.58
-50.43
-49.98
-48.84
-47.05
-44.44
-41.06
-37.18
-33.10
-28.98
-24.82
-20.54
-16.17
-11.75
-7.28
-2.69
1.98
6.42
10.06
12.26
12.75
12.06
11.31
11.80
14.28
18.58
23.67
28.24
31.34
32.84
33.37
33.89
35.20
37.46
40.16
42.29
42.67
40.46
35.50
28.53
20.88
13.91
8.42
4.44
1.52
-0.63
-1.63
-0.73
2.36
6.62
9.74
9.24
4.19
-3.83
-11.43
-15.28
-14.29
-9.93
-4.99
-1.34
1.38
5.09
11.50
20.32
29.22
35.34
37.37
36.39
34.94
34.96
36.15
36.07
31.81
22.01
7.80
-7.95
-22.37
-34.12
-43.74
-52.74
-62.09
-71.42
-78.98
-82.75
-81.60
-76.06
-68.15
-60.51
-55.42
-54.06
-56.26
-60.83
-66.00
-69.90
-70.95
-68.22
-61.68
-52.40
-42.21
-33.16
-26.72
-23.24
-22.04
-21.96
-22.00
-21.67
-20.90
-19.62
-17.43
-13.66
-7.86
-0.26
8.06
15.52
20.78
23.41
24.03
23.95
24.54
26.60
30.15
34.62
39.25
43.46
46.98
49.68
51.22
50.87
47.80
41.58
32.78
23.08
14.64
9.17
7.17
7.79
9.38
10.28
9.42
6.50
1.72
-4.46
-11.42
-18.34
-24.22
-28.15
-29.69
-29.01
-26.76
-23.52
-19.52
-14.80
-9.61
-4.80
-1.56
-0.62
-1.44
-2.16
-0.38
5.51
15.24
26.74
37.21
44.62
48.49
49.77
49.79
49.28
48.16
46.00
42.91
39.94
38.74
40.65
45.72
52.46
58.45
61.61
61.17
58.05
54.10
50.87
48.58
45.77
40.16
30.20
16.26
0.99
-11.97
-19.78
-21.86
-19.85
-16.46
-13.74
-12.27
-11.53
-11.08
-11.31
-13.30
-17.78
-24.10
-30.30
-34.00
-33.90
-30.49
-25.71
-21.54
-19.01
-17.84
-17.23
-16.78
-16.86
-18.14
-20.94
-24.80
-28.82
-32.49
-36.23
-41.22
-48.36
-57.47
-67.05
-75.17
-80.76
-84.49
-88.56
-95.19
-105.41
-118.56
-133.31
-148.89
-165.61
-183.92
-202.61
-217.69
-222.96
-212.38
-183.14
-137.25
-80.75
-20.70
37.93
93.81
148.05
201.58
252.86
297.42
329.84
346.31
346.40
332.69
308.96
278.11
241.53
199.96
155.45
112.34
76.35
52.15
40.73
38.64
39.72
38.25
31.76
21.64
11.39
3.79
-0.96
-4.96
-10.72
-19.01
-28.24
-35.69
-39.56
-40.34
-40.51
-42.75
-48.05
-55.14
-61.41
-64.69
-64.53
-62.21
-59.65
-58.18
-57.94
-58.26
-58.38
-57.92
-56.86
-55.04
-51.94
-46.95
-39.92
-31.73
-24.04
-18.63
-16.40
-16.90
-18.61
-19.92
-19.95
-18.94
-17.72
-16.87
-16.23
-14.89
-11.85
-6.81
-0.49
5.56
9.60
10.52
8.39
4.43
0.57
-1.34
-0.34
3.29
8.27
12.97
16.26
18.04
19.11
20.63
23.28
26.96
30.89
34.16
36.12
36.53
35.29
32.17
26.77
18.81
8.67
-2.54
-13.18
-21.87
-28.13
-32.61
-36.47
-40.55
-44.52
-46.82
-45.39
-38.70
-26.88
-11.97
2.67
13.66
18.89
18.29
13.56
7.24
1.52
-2.57
-5.09
-6.57
-7.17
-6.25
-2.77
3.84
12.87
22.11
28.80
30.88
28.32
23.12
18.39
16.62
18.41
22.26
25.62
26.38
24.06
19.81
15.65
13.27
13.30
15.32
18.42
21.74
24.76
26.99
27.80
26.33
21.95
14.73
5.70
-3.36
-10.64
-15.02
-16.46
-15.78
-14.01
-11.83
-9.48
-7.01
-4.70
-3.18
-3.07
-4.55
-7.12
-9.78
-11.61
-12.29
-12.27
-12.45
-13.47
-15.27
-17.11
-18.02
-17.37
-15.15
-11.81
-7.99
-4.23
-0.97
1.40
2.46
1.88
-0.36
-3.69
-6.78
-8.00
-6.10
-1.18
5.20
10.58
12.97
12.05
9.30
7.04
6.93
9.00
11.78
13.56
13.82
13.72
15.26
19.69
26.36
32.79
36.00
34.21
27.65
18.27
8.62
0.83
-4.01
-5.67
-4.56
-1.50
2.43
6.13
8.84
10.43
11.27
11.67
11.23
8.80
3.16
-5.86
-16.72
-26.51
-32.39
-33.03
-29.28
-23.44
-17.64
-12.64
-7.59
-1.29
6.40
13.80
18.18
17.57
12.31
5.31
0.53
0.71
5.72
12.66
17.62
18.13
14.60
9.81
7.01
7.69
10.70
13.03
11.69
5.53
-4.24
-14.96
-24.11
-30.43
-34.10
-36.09
-37.20
-37.82
-37.96
-37.79
-37.68
-38.03
-38.86
-39.73
-40.03
-39.37
-37.88
-36.10
-34.51
-33.18
-31.72
-29.71
-27.02
-23.93
-20.71
-17.29
-13.08
-7.34
0.25
9.32
18.89
27.74
34.73
38.83
39.13
34.90
26.08
13.75
0.19
-11.47
-18.35
-18.88
-13.42
-4.04
6.36
15.07
20.33
21.50
18.86
13.20
5.56
-2.86
-10.73
-16.72
-19.74
-19.32
-15.77
-10.20
-4.14
0.84
3.55
3.46
0.64
-4.33
-10.54
-16.91
-22.28
-25.58
-26.08
-23.54
-18.34
-11.44
-4.03
2.75
8.16
11.98
14.33
15.47
15.53
14.51
12.51
9.96
7.70
6.62
7.22
9.29
11.95
14.16
15.43
16.02
16.90
19.08
23.05
28.52
34.63
40.25
44.42
46.50
46.27
43.84
39.66
34.29
28.28
21.96
15.50
9.06
3.09
-1.55
-3.80
-2.86
1.22
7.40
13.93
19.06
21.80
22.23
21.28
20.06
19.15
18.53
17.95
17.54
18.05
20.45
25.21
31.48
37.22
39.94
37.98
31.37
21.84
11.92
3.74
-1.75
-4.85
-6.35
-6.76
-5.98
-3.55
0.72
6.29
11.96
16.51
19.35
20.73
21.30
21.25
19.93
16.16
9.31
0.28
-8.40
-13.63
-13.49
-8.54
-1.69
3.35
4.03
0.27
-5.83
-11.37
-14.42
-14.82
-13.93
-13.49
-14.59
-17.15
-20.24
-22.69
-23.67
-22.89
-20.52
-16.96
-12.85
-9.06
-6.66
-6.64
-9.50
-14.91
-21.70
-28.27
-33.19
-35.72
-35.97
-34.74
-33.00
-31.45
-30.41
-29.89
-29.74
-29.88
-30.10
-29.98
-28.86
-26.10
-21.53
-15.74
-10.02
-5.83
-4.16
-5.09
-7.90
-11.57
-15.38
-19.28
-23.48
-27.93
-31.72
-33.19
-30.48
-22.58
-10.08
4.82
18.96
29.58
35.52
37.72
38.65
40.79
44.86
49.02
49.62
43.35
29.61
11.51
-5.08
-14.30
-13.07
-2.32
13.78
30.25
43.37
51.55
54.63
52.62
44.98
31.17
11.98
-9.47
-28.28
-39.68
-41.23
-34.09
-22.39
-11.28
-4.59
-3.50
-6.73
-11.88
-17.02
-21.37
-25.10
-28.47
-31.18
-32.44
-31.55
-28.69
-25.00
-22.00
-20.74
-21.23
-22.52
-23.33
-22.76
-20.68
-17.75
-14.94
-13.08
-12.55
-13.28
-14.76
-16.30
-17.20
-16.96
-15.41
-12.79
-9.57
-6.30
-3.29
-0.40
2.76
6.38
10.10
12.89
13.31
10.48
4.73
-2.24
-8.04
-10.74
-9.62
-5.40
0.31
5.58
8.63
7.99
2.71
-7.20
-20.12
-32.73
-40.73
-40.73
-31.91
-16.78
-0.14
13.13
20.42
22.24
21.42
21.29
24.07
30.22
38.58
46.95
52.85
54.30
50.69
43.10
34.16
26.88
23.21
23.07
24.48
25.07
23.56
20.49
17.40
15.33
13.86
11.52
7.26
1.78
-2.53
-3.21
0.41
6.43
11.34
12.08
7.79
0.16
-7.86
-13.82
-16.93
-17.82
-17.47
-16.07
-12.92
-7.21
0.88
9.66
16.42
18.76
15.93
9.35
2.05
-2.87
-3.76
-1.17
2.69
5.43
6.05
5.57
6.30
10.39
18.36
28.74
38.92
46.57
50.83
52.31
52.23
51.25
49.00
44.66
37.98
30.04
23.13
19.45
20.06
24.26
30.15
35.66
39.57
41.62
42.09
41.08
38.28
33.42
26.67
18.96
11.42
4.66
-1.74
-8.94
-18.02
-29.42
-42.67
-56.88
-71.30
-85.61
-99.62
-112.66
-123.12
-128.84
-127.96
-119.87
-105.68
-87.93
-69.68
-53.58
-41.25
-33.05
-28.35
-26.04
-24.95
-24.21
-23.23
-21.40
-18.02
-12.32
-4.01
6.38
17.27
26.51
32.15
33.31
30.66
26.06
21.63
18.81
17.84
17.98
18.16
17.59
16.07
13.90
11.58
9.47
7.53
5.40
2.54
-1.37
-6.11
-10.86
-14.49
-16.06
-15.39
-13.19
-10.79
-9.50
-10.14
-12.76
-16.86
-21.76
-26.85
-31.61
-35.41
-37.44
-36.80
-32.90
-25.69
-15.85
-4.50
7.07
17.72
26.63
33.33
37.58
39.20
38.16
34.63
29.15
22.68
16.36
11.18
7.71
5.89
5.21
5.04
4.83
4.19
2.86
0.51
-3.17
-8.42
-15.08
-22.56
-29.91
-36.12
-40.38
-42.27
-41.66
-38.72
-33.87
-27.84
-21.63
-16.53
-13.84
-14.52
-18.82
-26.06
-34.84
-43.67
-51.63
-58.85
-66.43
-75.85
-88.00
-102.59
-118.13
-132.56
-144.26
-152.80
-159.11
-165.03
-172.62
-183.42
-197.81
-214.65
-231.17
-243.44
-247.24
-239.35
-218.56
-186.07
-144.90
-98.63
-50.10
-0.52
50.28
102.79
156.59
209.45
257.51
296.34
322.41
334.30
333.14
322.02
304.76
284.79
264.44
245.13
227.68
212.77
200.82
191.57
183.67
174.79
162.24
143.80
118.37
86.20
48.66
7.87
-33.75
-73.79
-110.07
-140.79
-164.53
-180.16
-186.52
-182.32
-166.16
-137.01
-94.88
-41.45
19.60
83.05
143.20
195.23
236.19
265.16
282.56
289.08
284.91
269.87
244.30
209.98
170.27
129.17
89.89
53.90
21.01
-9.27
-36.47
-58.75
-73.73
-80.01
-78.04
-70.10
-59.12
-47.45
-36.14
-25.21
-14.22
-2.91
8.86
21.29
34.73
49.49
65.10
80.06
92.15
99.20
100.05
94.87
84.79
70.99
53.99
33.81
10.68
-14.18
-38.22
-58.22
-71.64
-77.78
-78.18
-75.90
-74.16
-75.15
-79.38
-86.08
-93.83
-101.29
-107.49
-111.83
-113.94
-113.52
-110.32
-104.18
-95.29
-84.23
-72.11
-60.19
-49.48
-40.28
-32.24
-24.73
-17.47
-10.97
-6.33
-4.63
-6.15
-10.01
-14.45
-17.69
-18.70
-17.53
-15.05
-12.29
-9.95
-8.09
-6.32
-4.11
-1.09
2.71
6.77
10.15
11.74
10.68
6.79
0.71
-6.28
-12.80
-18.00
-21.85
-24.80
-27.23
-28.97
-29.31
-27.64
-24.01
-19.35
-15.06
-12.13
-10.67
-9.95
-9.09
-7.75
-6.24
-5.28
-5.26
-5.90
-6.28
-5.47
-3.07
0.52
4.39
7.66
9.86
11.01
11.38
11.22
10.56
9.31
7.44
5.15
2.85
1.03
0.04
-0.03
0.57
1.53
2.57
3.59
4.57
5.41
5.84
5.48
4.07
1.65
-1.36
-4.39
-7.00
-9.04
-10.72
-12.33
-14.04
-15.63
-16.73
-17.05
-16.72
-16.26
-16.32
-17.33
-19.22
-21.49
-23.39
-24.25
-23.64
-21.51
-18.14
-14.04
-9.84
-6.12
-3.27
-1.37
-0.23
0.48
1.11
1.87
2.87
4.24
6.08
8.40
10.96
13.24
14.58
14.52
13.15
11.16
9.55
9.16
10.24
12.41
14.91
17.19
19.20
21.25
23.57
25.81
26.96
25.80
21.66
14.92
6.90
-0.85
-7.27
-12.22
-16.22
-19.77
-22.87
-25.02
-25.73
-24.92
-22.97
-20.37
-17.16
-12.90
-7.03
0.43
8.48
15.40
19.55
20.24
18.01
14.31
10.57
7.45
4.67
1.51
-2.53
-7.24
-11.81
-15.39
-17.61
-18.78
-19.44
-19.76
-19.08
-16.20
-10.11
-0.75
10.84
22.90
33.78
42.46
48.71
52.72
54.66
54.47
51.93
46.94
39.75
30.98
21.43
11.92
3.24
-3.91
-8.91
-11.56
-12.29
-12.22
-12.84
-15.28
-19.69
-24.99
-29.30
-30.83
-28.88
-24.13
-18.17
-12.59
-8.15
-4.75
-1.95
0.32
1.57
1.20
-0.75
-3.26
-4.72
-3.85
-0.65
3.54
6.70
7.40
5.50
2.08
-1.37
-3.86
-5.17
-5.70
-5.76
-5.26
-3.72
-0.91
2.73
5.93
7.13
5.34
0.73
-5.26
-10.57
-13.48
-13.41
-11.04
-7.77
-4.93
-3.21
-2.59
-2.78
-3.66
-5.41
-8.21
-11.85
-15.52
-18.15
-18.99
-18.10
-16.37
-14.93
-14.47
-14.79
-14.95
-13.90
-11.13
-6.91
-2.08
2.56
6.56
9.92
12.81
15.23
16.95
17.68
17.40
16.45
15.37
14.60
14.17
13.75
12.97
11.74
10.40
9.49
9.36
9.84
10.22
9.65
7.69
4.66
1.48
-0.90
-2.13
-2.75
-3.85
-6.38
-10.54
-15.54
-19.96
-22.51
-22.63
-20.74
-17.81
-14.76
-11.89
-8.85
-5.04
-0.18
5.36
10.69
14.86
17.35
18.35
18.59
18.79
19.32
19.94
20.27
20.13
19.81
19.86
20.68
22.17
23.82
25.11
25.88
26.45
27.35
28.98
31.41
34.50
38.11
42.30
47.23
52.94
59.26
65.88
72.60
79.51
86.96
95.33
104.87
115.56
127.26
139.75
152.75
165.84
178.54
190.59
202.12
213.83
226.82
242.17
260.23
280.09
299.36
314.38
321.16
316.61
299.56
271.25
234.73
193.59
150.55
106.67
61.54
14.35
-35.04
-85.58
-135.37
-182.69
-226.90
-268.72
-309.92
-352.60
-398.79
-450.02
-506.62
-566.93
-626.57
-678.53
-714.72
-728.49
-717.18
-683.16
-633.00
-574.80
-515.51
-459.23
-407.30
-359.75
-316.63
-278.71
-247.00
-221.92
-202.87
-188.53
-177.74
-170.20
-166.53
-167.88
-175.02
-187.67
-204.31
-222.62
-240.21
-255.34
-267.27
-276.09
-282.21
-285.73
-286.11
-282.27
-273.06
-257.79
-236.59
-210.27
-179.91
-146.29
-109.55
-69.21
-24.71
24.03
76.18
130.23
184.31
237.01
287.78
337.09
386.13
436.62
490.60
549.97
615.62
686.14
756.85
820.06
866.90
890.25
887.45
861.28
818.76
768.33
716.87
668.17
622.97
580.40
539.32
499.01
458.88
418.08
375.45
329.90
281.23
230.37
179.06
129.26
82.19
37.77
-5.49
-49.98
-97.91
-149.98
-204.27
-256.22
-299.74
-329.48
-343.20
-343.00
-334.57
-324.62
-317.78
-314.42
-310.77
-301.00
-280.58
-248.85
-209.74
-170.46
-138.91
-121.07
-119.27
-131.65
-152.66
-174.32
-187.84
-185.49
-162.61
-119.17
-60.47
3.72
61.23
100.64
114.40
100.78
64.35
14.33
-38.25
-83.87
-116.86
-136.29
-144.92
-147.17
-147.17
-147.70
-150.33
-156.02
-165.40
-178.35
-193.31
-207.00
-215.20
-214.60
-204.35
-186.57
-165.38
-144.87
-127.24
-112.00
-96.54
-77.60
-52.92
-21.96
13.88
52.01
89.83
125.63
159.37
192.94
229.82
273.80
327.06
388.11
450.86
505.58
541.77
551.93
534.48
494.20
440.01
381.23
324.11
270.51
218.97
166.87
112.22
54.09
-7.82
-73.41
-141.64
-209.41
-271.09
-319.56
-348.53
-354.96
-340.33
-310.07
-271.52
-231.57
-195.11
-164.28
-139.08
-117.70
-97.30
-74.64
-46.78
-11.81
30.30
77.46
125.32
168.27
201.05
220.81
228.82
230.85
235.79
252.55
286.15
334.99
390.65
440.80
473.84
483.28
469.84
440.25
404.00
369.44
341.49
321.51
308.82
302.53
302.50
309.14
322.04
339.12
356.79
370.98
378.73
379.05
372.85
362.19
348.86
333.47
315.28
292.67
264.16
229.22
188.73
144.81
100.06
56.83
16.60
-20.23
-53.92
-84.98
-113.64
-139.63
-162.27
-180.75
-194.54
-203.58
-208.36
-209.68
-208.48
-205.59
-201.54
-196.66
-191.00
-184.55
-177.33
-169.43
-161.14
-152.91
-145.28
-138.78
-133.71
-130.07
-127.45
-125.19
-122.60
-119.37
-115.78
-112.71
-111.41
-113.02
-118.15
-126.69
-137.85
-150.67
-164.54
-179.64
-196.93
-217.80
-243.34
-273.73
-307.98
-344.40
-381.02
-416.51
-450.59
-483.94
-517.99
-554.61
-595.91
-643.71
-698.54
-758.25
-817.28
-867.18
-898.92
-906.07
-887.26
-846.77
-792.68
-733.56
-675.64
-621.56
-571.24
-523.71
-478.56
-436.34
-397.73
-362.66
-329.89
-297.64
-264.56
-230.47
-196.42
-164.28
-135.72
-111.48
-91.16
-73.51
-57.05
-40.74
-24.40
-8.67
5.38
16.84
25.40
31.40
35.71
39.31
42.88
46.66
50.39
53.62
55.93
57.16
57.44
57.14
56.62
56.15
55.82
55.59
55.32
54.92
54.30
53.40
52.16
50.53
48.51
46.26
44.11
42.49
41.81
42.26
43.72
45.75
47.82
49.58
51.15
53.14
56.45
61.93
69.93
80.06
91.34
102.56
112.91
122.42
131.97
142.98
156.68
173.46
192.58
212.48
231.38
248.10
262.61
275.99
289.93
306.26
326.45
351.43
381.13
413.90
446.04
471.90
485.07
480.68
457.76
420.30
376.20
334.28
300.80
277.40
261.51
248.70
235.63
221.60
208.22
197.48
190.00
184.40
178.19
169.42
157.80
144.67
131.80
120.01
108.60
95.98
81.08
64.64
49.28
38.45
34.41
36.78
42.32
46.44
45.28
37.50
24.79
10.91
0.17
-4.22
-0.98
9.02
22.99
36.87
46.41
48.48
42.36
30.32
16.96
6.91
2.36
2.05
2.31
-0.36
-6.94
-14.94
-19.47
-15.27
0.89
28.87
64.97
102.97
135.51
155.51
157.71
139.99
105.09
59.70
12.38
-29.47
-62.30
-87.40
-109.71
-134.99
-166.56
-201.30
-232.22
-251.78
-255.62
-244.07
-221.24
-192.76
-163.51
-136.30
-107.45
-72.69
-30.62
15.51
59.38
95.27
120.40
135.30
142.70
152.91
174.82
211.79
259.72
309.75
353.56
386.58
408.81
423.44
444.31
484.28
549.54
636.64
736.02
838.85
940.97
1042.49
1088.38
1037.61
876.90
633.06
355.64
88.94
-140.34
-321.64
-455.62
-550.61
-609.07
-632.76
-623.85
-587.31
-532.42
-469.99
-411.90
-369.67
-351.96
-354.19
-365.10
-372.63
-369.96
-357.75
-341.80
-330.33
-328.92
-341.67
-364.75
-390.60
-410.69
-418.12
-408.47
-379.40
-331.08
-266.04
-188.58
-101.32
-7.32
87.06
172.40
238.25
277.02
286.90
272.60
243.57
211.58
185.85
167.97
154.70
141.87
127.52
112.48
98.51
86.93
78.06
71.12
60.98
43.34
17.39
-13.44
-43.91
-70.44
-91.69
-108.24
-122.14
-140.89
-170.90
-214.08
-267.14
-324.60
-382.87
-440.80
-499.06
-528.00
-508.36
-442.32
-352.77
-264.36
-188.91
-127.13
-73.55
-21.37
34.19
90.20
141.17
182.21
207.35
219.43
220.62
213.85
203.66
194.95
188.22
182.29
175.98
169.31
163.56
158.65
153.81
152.20
153.66
154.25
150.13
139.60
123.97
106.98
91.95
81.40
75.90
74.07
72.80
68.94
60.41
46.96
30.25
12.31
-4.80
-20.96
-37.05
-54.39
-74.11
-97.26
-125.00
-158.47
-199.06
-247.12
-302.94
-362.86
-418.67
-460.16
-479.51
-474.60
-449.14
-411.01
-368.52
-330.59
-301.26
-279.70
-262.60
-247.49
-234.07
-223.02
-215.07
-190.84
-142.45
-74.77
-2.44
60.28
105.62
132.30
143.65
144.52
140.23
132.32
122.79
114.04
108.37
106.80
107.88
112.17
120.31
133.51
150.42
170.96
195.61
224.76
257.81
288.50
313.16
330.05
339.57
341.32
336.88
328.90
320.43
313.81
309.17
304.55
294.93
278.59
248.25
201.52
141.89
78.04
20.94
-20.04
-39.43
-37.36
-17.92
12.40
48.33
85.40
119.29
145.08
157.66
153.75
132.99
98.86
59.03
23.51
0.13
-8.18
-3.63
8.26
21.64
31.86
36.64
35.49
29.08
17.96
1.96
-19.65
-47.74
-82.82
-125.89
-177.46
-237.50
-304.86
-376.83
-448.27
-511.52
-557.92
-580.59
-578.27
-554.54
-516.48
-471.89
-427.04
-385.13
-346.33
-309.32
-272.96
-238.61
-207.58
-180.06
-154.90
-130.78
-107.22
-84.93
-65.80
-42.63
-14.92
13.27
35.87
49.19
53.21
50.35
43.80
35.81
27.53
17.83
6.23
-7.34
-20.62
-31.63
-39.49
-44.02
-45.99
-46.51
-47.80
-50.92
-55.52
-59.99
-62.40
-64.25
-66.34
-69.31
-73.38
-79.03
-85.87
-92.83
-98.52
-102.10
-103.43
-102.30
-98.68
-92.32
-83.04
-70.41
-54.14
-34.37
-12.14
10.81
33.05
53.65
72.65
90.81
109.27
128.85
149.42
169.61
187.37
201.14
210.31
215.71
219.20
223.00
228.85
237.75
249.97
264.84
280.63
293.97
300.21
294.76
275.16
242.82
202.95
162.67
128.13
102.53
85.56
75.27
70.20
70.64
78.31
94.58
119.01
148.87
179.82
207.34
228.37
242.32
251.09
258.39
267.96
281.75
298.22
312.52
317.55
306.76
277.02
229.87
171.13
108.49
48.74
-3.64
-46.30
-77.74
-96.62
-101.94
-94.55
-78.36
-60.49
-49.59
-53.26
-75.60
-116.09
-170.29
-230.90
-289.97
-340.30
-376.36
-394.85
-395.05
-379.14
-351.68
-318.27
-282.28
-245.60
-208.85
-172.60
-137.81
-105.79
-77.62
-53.76
-33.85
-13.82
10.36
41.05
77.69
117.05
154.80
187.27
212.31
229.30
243.84
261.86
287.25
319.91
356.02
390.36
418.72
439.09
451.81
465.63
490.16
532.59
594.77
673.21
761.66
854.10
946.36
995.55
970.74
859.89
678.67
462.92
249.78
63.94
-84.81
-197.70
-282.60
-344.33
-388.70
-421.93
-449.86
-476.16
-500.80
-520.81
-533.15
-537.51
-531.63
-514.92
-488.05
-453.20
-414.03
-374.75
-339.27
-310.66
-290.62
-275.95
-261.99
-244.61
-221.96
-195.23
-167.57
-142.51
-122.78
-109.74
-101.89
-96.26
-90.13
-81.90
-71.66
-60.61
-50.34
-42.13
-36.54
-32.76
-29.31
-24.98
-18.94
-11.17
-2.21
7.10
16.03
24.15
31.47
38.45
45.21
52.01
59.06
66.36
73.81
81.27
88.68
96.12
103.84
111.50
118.89
125.82
132.00
137.05
140.41
140.82
136.64
130.56
123.57
116.47
109.95
104.21
99.30
95.29
91.85
88.76
86.21
84.03
82.29
81.19
80.51
80.01
79.54
78.03
74.81
70.13
64.51
58.76
53.87
49.76
46.19
42.99
37.38
27.38
13.33
-2.71
-18.29
-30.67
-40.06
-47.21
-52.62
-62.18
-80.20
-106.29
-136.06
-164.49
-185.97
-201.11
-211.54
-218.44
-231.38
-257.59
-296.60
-341.35
-383.82
-415.11
-436.28
-450.19
-459.08
-476.13
-511.77
-566.34
-631.47
-697.44
-753.22
-800.48
-842.95
-809.24
-663.57
-424.18
-149.90
103.28
273.74
382.64
450.81
491.09
509.32
509.55
488.82
451.04
407.02
367.91
345.38
337.81
341.22
352.42
360.62
356.82
340.57
318.37
297.69
286.83
284.03
285.74
289.23
287.43
274.63
251.10
221.69
191.91
167.47
147.43
129.58
112.26
92.06
66.52
36.46
5.02
-24.86
-50.78
-74.18
-97.46
-122.54
-151.17
-183.99
-219.79
-256.33
-291.79
-325.19
-357.43
-390.05
-424.70
-463.01
-506.32
-554.62
-605.26
-652.50
-688.22
-704.06
-694.62
-659.88
-605.45
-540.60
-475.01
-415.69
-365.81
-325.42
-293.18
-267.83
-248.46
-233.93
-222.20
-210.35
-195.38
-175.44
-150.47
-121.98
-92.37
-63.59
-36.45
-10.51
15.37
42.11
69.72
97.06
122.38
144.11
161.79
176.28
189.47
203.40
219.31
237.19
255.83
273.47
288.54
300.47
309.84
318.40
328.77
343.87
365.68
393.84
424.74
451.29
464.80
457.66
425.85
370.16
295.66
209.90
120.77
34.94
-42.68
-108.62
-160.35
-196.06
-214.96
-217.64
-206.43
-185.22
-158.70
-131.37
-106.32
-84.45
-64.53
-44.19
-21.45
4.07
30.93
56.91
80.41
101.69
122.62
145.97
174.21
208.47
248.68
293.80
341.92
390.09
434.55
471.31
497.29
511.31
514.01
506.92
491.15
466.62
432.73
389.91
340.92
290.63
244.34
205.13
172.20
141.33
106.78
63.71
10.07
-53.13
-121.96
-189.93
-248.72
-289.74
-306.52
-297.11
-265.85
-222.44
-178.73
-144.72
-125.30
-119.78
-123.53
-130.49
-135.72
-136.22
-130.49
-117.69
-97.21
-68.92
-33.89
4.99
42.58
72.13
87.04
83.63
63.90
36.90
16.81
17.80
47.74
103.49
171.12
231.27
267.15
271.10
246.64
205.27
160.08
119.93
86.91
57.57
26.63
-10.01
-53.91
-103.94
-156.97
-208.44
-252.44
-282.06
-290.51
-273.20
-229.90
-165.89
-91.57
-20.16
35.84
67.70
72.12
51.12
10.36
-42.95
-101.73
-159.78
-211.69
-252.58
-278.07
-284.96
-272.28
-242.14
-199.35
-150.13
-100.06
-52.27
-6.35
41.48
96.35
161.55
235.78
312.00
379.00
425.43
444.21
434.78
402.64
356.81
306.80
260.63
224.47
202.72
197.27
206.18
222.84
237.81
242.80
234.64
216.90
197.49
183.83
178.27
177.32
173.86
162.41
142.56
118.67
96.61
80.04
68.83
60.04
50.38
37.38
21.83
6.82
-4.54
-11.52
-16.54
-24.13
-39.00
-64.28
-102.71
-153.31
-211.52
-271.43
-328.52
-381.06
-429.74
-476.30
-522.12
-571.62
-626.71
-685.87
-744.74
-797.70
-838.34
-859.40
-854.06
-818.23
-757.73
-681.61
-598.85
-516.40
-439.35
-371.14
-313.50
-267.21
-201.73
-107.23
4.89
111.08
194.59
252.25
289.12
311.71
324.59
329.93
323.85
304.92
276.15
243.91
214.07
189.80
171.79
158.66
148.46
135.78
117.90
96.09
74.62
57.68
46.91
43.70
47.70
57.86
70.62
83.67
96.71
111.03
127.74
144.49
159.99
172.88
182.12
186.03
184.08
176.93
166.50
154.61
142.50
131.21
121.06
112.03
103.59
95.34
86.98
78.83
71.09
63.71
56.83
50.25
43.73
37.01
31.36
25.31
18.42
10.69
2.28
-6.36
-14.84
-22.85
-30.16
-36.71
-42.98
-49.27
-55.73
-62.64
-70.11
-78.09
-86.46
-94.93
-103.34
-111.85
-120.62
-129.29
-137.61
-145.15
-151.26
-155.25
-156.53
-155.01
-151.35
-146.66
-141.53
-136.49
-131.45
-125.55
-117.31
-105.05
-87.34
-63.02
-36.62
-10.83
12.53
33.06
51.92
71.28
93.29
118.91
147.18
175.60
201.71
223.60
241.18
256.49
273.17
295.43
326.71
368.37
418.52
472.17
520.99
555.45
567.73
554.44
518.05
465.73
406.33
346.94
291.13
238.18
184.95
128.65
69.27
10.80
-38.98
-70.30
-74.44
-47.37
7.85
80.77
156.06
218.41
257.26
269.66
259.42
233.99
200.32
162.94
124.17
85.75
50.18
20.48
-1.11
-14.96
-24.33
-35.05
-52.05
-76.79
-106.66
-136.48
-161.07
-177.43
-186.54
-192.27
-201.66
-219.80
-247.28
-280.09
-311.89
-337.20
-352.54
-358.96
-360.47
-366.92
-386.65
-422.13
-468.80
-516.53
-552.94
-564.47
-542.99
-485.90
-404.43
-314.38
-230.09
-161.52
-113.61
-87.41
-77.94
-80.84
-90.51
-110.82
-145.22
-192.32
-246.65
-301.56
-353.39
-398.80
-441.53
-429.42
-334.93
-169.42
23.68
201.86
346.65
438.88
499.40
541.57
571.43
581.32
563.17
525.70
478.69
432.29
392.60
364.39
344.92
330.74
312.32
283.29
243.85
198.59
154.17
115.06
85.42
63.96
48.85
34.17
15.54
-7.75
-34.08
-60.33
-84.16
-102.71
-115.99
-124.31
-130.34
-136.81
-145.32
-156.94
-171.68
-189.15
-207.66
-226.26
-243.81
-260.34
-276.61
-293.72
-313.25
-336.97
-367.01
-405.15
-452.27
-506.43
-562.02
-610.40
-642.19
-650.68
-634.20
-596.74
-546.08
-490.62
-436.53
-386.59
-340.94
-298.85
-260.09
-225.24
-194.90
-168.79
-145.66
-123.86
-102.30
-81.06
-61.06
-43.56
-29.09
-17.02
-5.66
6.95
22.11
39.85
58.99
77.68
94.32
108.22
119.79
130.13
140.12
149.91
158.70
165.31
169.10
170.86
172.70
177.42
187.26
202.68
222.46
244.39
266.73
288.66
310.00
330.11
347.60
361.21
370.84
377.72
382.73
384.44
378.32
358.80
323.42
276.39
228.93
195.40
187.43
208.66
253.42
309.43
362.87
402.88
423.40
422.97
402.92
366.37
317.22
259.68
197.37
132.51
65.84
-2.50
-71.10
-136.69
-193.98
-237.40
-263.14
-270.37
-260.71
-236.50
-199.50
-150.56
-91.68
-28.26
30.08
71.29
84.80
65.44
15.34
-56.98
-139.46
-219.90
-288.25
-337.78
-365.57
-372.34
-362.06
-340.83
-315.28
-290.83
-270.64
-255.14
-243.47
-234.59
-227.65
-221.79
-215.76
-207.95
-197.03
-182.46
-164.19
-142.52
-117.37
-87.22
-49.06
0.71
63.92
138.31
216.35
287.31
338.97
360.88
347.54
300.31
227.57
142.75
61.00
-4.47
-42.99
-51.34
-34.40
-2.70
32.28
62.65
85.76
103.31
118.86
140.98
175.67
224.27
283.01
344.77
400.73
441.77
460.38
453.72
434.26
418.46
419.58
442.14
482.22
531.27
580.34
623.08
657.31
695.32
747.40
815.05
889.54
958.38
1012.53
1049.56
1071.66
1013.66
842.63
569.15
245.12
-70.04
-338.78
-549.46
-705.11
-814.16
-885.77
-917.76
-910.86
-872.16
-816.92
-760.09
-710.76
-670.60
-637.09
-606.79
-569.13
-518.06
-454.58
-385.86
-319.20
-261.13
-211.98
-169.09
-129.07
-83.87
-28.25
37.78
108.26
173.97
225.62
256.86
265.14
252.74
229.06
204.95
188.44
181.62
181.36
182.23
180.25
174.02
165.08
157.03
152.02
148.99
144.08
133.19
114.58
90.12
63.09
37.05
14.26
-5.04
-22.40
-39.94
-58.97
-79.27
-99.27
-119.40
-140.76
-164.63
-191.82
-222.47
-255.90
-290.01
-320.70
-342.34
-352.85
-352.11
-342.31
-327.68
-313.98
-307.16
-310.87
-324.77
-344.89
-370.46
-401.07
-436.11
-473.59
-510.12
-542.16
-566.56
-581.16
-557.56
-480.48
-353.34
-198.97
-45.97
86.26
191.24
271.36
332.31
379.54
412.37
429.38
431.15
421.72
407.24
392.86
382.04
375.78
373.63
371.00
363.90
350.89
333.92
316.93
302.95
293.71
289.36
289.02
289.05
285.95
277.50
262.90
246.38
230.21
215.50
202.44
190.53
178.21
164.36
148.95
132.91
117.69
103.80
91.23
79.50
67.62
54.25
38.56
20.47
0.65
-19.88
-40.70
-61.60
-82.64
-104.45
-127.35
-150.89
-173.79
-194.57
-212.11
-226.25
-237.55
-247.10
-257.62
-270.98
-287.11
-304.30
-320.54
-334.96
-348.06
-361.25
-375.99
-395.96
-422.75
-454.87
-489.13
-523.55
-558.13
-592.98
-625.72
-650.23
-662.48
-657.36
-629.55
-575.53
-496.39
-397.88
-288.30
-176.96
-74.11
2.76
38.74
28.18
-22.40
-97.36
-177.36
-244.92
-289.14
-270.34
-177.52
-34.68
113.73
233.73
315.56
365.85
395.05
410.60
416.27
407.81
383.55
348.26
311.30
280.64
259.17
245.16
234.63
224.41
208.16
183.19
152.33
122.11
98.24
82.97
75.36
72.69
73.70
74.91
74.78
74.85
78.53
88.29
104.29
124.58
144.36
161.14
172.18
176.27
174.31
168.48
160.76
152.45
143.91
135.12
126.42
117.48
108.14
98.71
89.72
81.36
73.80
66.84
60.17
53.83
47.72
41.60
35.29
29.89
24.11
17.53
10.06
1.85
-6.47
-14.44
-21.74
-28.18
-33.82
-39.06
-43.99
-48.73
-53.31
-57.23
-60.16
-62.02
-62.97
-63.48
-64.28
-65.65
-67.59
-69.70
-70.71
-69.59
-65.83
-59.73
-52.21
-44.73
-38.33
-33.48
-29.84
-25.69
-19.46
-10.14
2.28
17.08
33.34
50.92
71.21
91.95
113.90
138.48
167.14
200.99
240.22
283.21
325.97
362.21
384.54
387.66
369.68
333.20
284.62
231.73
180.85
135.13
94.54
57.56
23.71
-5.96
-29.16
-43.61
-48.51
-45.12
-36.32
-25.34
-14.72
-5.30
3.04
10.54
16.98
21.52
23.16
21.47
16.98
11.06
5.50
1.60
-0.29
-0.57
-0.22
-0.16
-0.96
-2.69
-5.00
-7.23
-8.71
-9.09
-8.45
-7.29
-6.28
-5.93
-6.34
-7.21
-8.09
-8.73
-9.21
-9.93
-11.32
-13.56
-16.40
-19.28
-21.64
-23.49
-25.21
-27.19
-29.68
-32.80
-36.70
-41.43
-46.71
-51.74
-55.41
-56.27
-52.95
-44.98
-33.39
-20.57
-9.33
-1.67
1.97
1.70
-1.40
-5.72
-9.82
-13.03
-15.44
-17.44
-19.15
-20.44
-23.72
-30.73
-41.35
-53.47
-64.70
-73.50
-79.50
-83.06
-84.99
-91.61
-107.53
-132.84
-163.25
-193.56
-220.70
-243.91
-263.50
-279.86
-301.69
-334.94
-378.97
-426.85
-470.72
-506.09
-532.16
-550.24
-562.61
-583.17
-622.40
-681.14
-750.56
-818.66
-876.75
-920.90
-950.56
-896.94
-726.29
-457.46
-153.88
121.81
339.24
496.53
604.79
677.35
725.29
745.45
735.64
700.99
653.30
605.40
564.97
533.57
509.45
489.84
463.76
423.96
371.04
311.39
253.07
200.83
156.14
119.10
89.78
62.84
33.55
8.96
-5.53
-6.12
7.33
32.13
64.38
99.85
131.79
154.72
166.47
167.36
160.53
149.70
137.74
126.05
114.76
102.71
89.80
78.16
70.93
72.14
84.85
110.03
146.06
188.91
232.65
270.58
296.70
306.52
299.02
276.80
245.12
210.14
177.05
148.78
125.83
106.98
89.95
72.77
54.09
33.26
10.30
-14.08
-38.66
-61.90
-82.39
-99.50
-113.36
-125.08
-136.35
-148.80
-163.25
-179.62
-197.02
-214.43
-231.38
-248.08
-265.71
-286.42
-313.06
-348.30
-393.27
-445.96
-500.52
-547.91
-578.10
-583.92
-564.06
-523.41
-470.83
-415.54
-364.13
-319.43
-281.22
-247.21
-215.60
-186.08
-159.08
-134.39
-110.67
-86.30
-60.61
-34.60
-8.78
15.79
37.60
55.51
69.61
81.26
92.18
103.64
115.58
130.52
151.58
181.24
221.12
272.18
334.57
407.56
482.54
542.04
574.11
578.22
560.86
527.15
478.08
413.74
337.06
260.65
185.29
114.61
51.79
-2.54
-49.56
-90.03
-123.27
-148.43
-153.19
-135.01
-99.25
-58.54
-25.13
-4.20
6.76
13.86
21.34
29.10
30.34
20.15
-2.25
-32.54
-63.08
-86.00
-96.22
-95.44
-85.96
-73.34
-61.04
-49.75
-38.02
-24.05
-7.37
10.67
27.41
40.81
48.72
51.51
51.52
51.75
54.30
59.40
66.29
73.09
78.53
81.54
82.42
82.51
83.35
85.97
90.61
96.92
104.39
112.93
122.26
131.94
141.25
149.17
154.56
156.50
154.66
149.25
141.14
131.22
120.19
108.27
95.26
80.67
64.08
45.38
24.92
3.50
-17.82
-38.05
-56.51
-73.08
-88.39
-103.94
-121.98
-145.09
-175.11
-211.81
-251.88
-289.15
-316.15
-326.69
-318.35
-293.68
-259.57
-225.07
-198.50
-185.15
-186.03
-198.09
-215.41
-230.94
-238.37
-233.61
-215.71
-187.01
-152.33
-117.55
-87.97
-67.05
-55.83
-53.05
-55.84
-60.56
-63.75
-62.91
-56.83
-45.61
-30.35
-12.61
5.90
23.71
39.64
52.88
63.00
69.88
73.62
74.23
71.43
64.70
53.58
38.23
19.99
1.33
-14.63
-25.31
-29.67
-28.80
-25.44
-22.89
-23.70
-28.68
-36.71
-45.19
-50.91
-50.86
-42.81
-25.78
-0.30
31.51
66.14
99.24
126.65
145.40
154.49
154.88
148.92
139.34
128.46
117.84
108.39
100.70
95.15
91.68
89.68
87.86
84.67
78.81
69.61
56.83
40.17
19.18
-6.49
-36.13
-67.07
-94.77
-113.81
-119.70
-110.18
-85.90
-50.07
-7.69
35.40
73.38
101.25
115.74
115.77
102.36
77.93
45.34
7.34
-33.20
-72.68
-106.61
-130.45
-141.44
-140.04
-130.27
-118.30
-109.98
-108.54
-113.77
-122.85
-131.96
-138.09
-140.02
-138.37
-134.82
-131.05
-127.81
-124.46
-119.40
-111.03
-99.05
-85.11
-72.29
-63.59
-60.18
-60.57
-61.30
-58.66
-50.63
-37.76
-22.50
-7.51
5.97
18.72
32.81
50.25
71.59
95.50
119.20
139.61
154.37
162.42
164.06
160.59
153.79
145.52
137.43
130.63
125.68
122.44
120.20
117.84
114.25
108.71
101.20
92.41
83.32
74.77
67.05
59.86
52.65
44.92
36.54
27.69
18.75
10.05
1.76
-5.99
