1660938649.00
64.000000
-0.00
-0.00
-0.00
-0.00
-0.00
-0.00
-0.00
-0.00
-0.00
-0.00
0.00
0.01
0.01
-0.00
-0.03
-0.05
-0.05
0.00
0.13
0.36
0.66
1.01
1.37
1.72
2.06
2.40
2.79
3.25
3.81
4.44
5.10
5.73
6.32
6.90
7.52
8.26
9.15
10.28
11.52
12.76
13.89
14.85
15.74
16.75
18.10
19.93
22.44
25.40
28.53
31.52
34.25
36.85
39.68
43.19
47.67
53.45
60.11
67.08
73.83
80.07
86.02
92.28
99.59
108.41
119.13
131.06
143.27
154.93
165.67
175.82
186.27
198.48
211.00
225.76
242.96
262.44
283.01
302.10
315.90
320.26
312.01
290.05
256.20
213.66
166.28
117.28
68.63
21.25
-24.36
-67.70
-108.22
-145.43
-179.90
-212.93
-246.23
-281.10
-317.54
-353.65
-385.73
-409.34
-420.67
-418.18
-403.16
-379.28
-351.07
-322.35
-295.16
-269.87
-245.94
-222.87
-200.85
-180.54
-162.51
-146.71
-132.45
-118.78
-104.92
-90.73
-76.64
-63.48
-52.03
-42.63
-35.02
-28.54
-22.37
-15.96
-9.25
-2.64
3.26
7.97
11.38
13.80
15.75
17.68
19.78
21.96
23.94
25.47
26.41
26.82
26.81
26.56
26.19
25.81
25.49
25.23
24.99
24.66
24.17
23.47
22.63
21.79
21.05
20.49
20.07
19.71
19.32
18.84
18.26
17.61
16.96
16.36
15.85
15.40
15.00
14.58
14.12
13.61
13.07
12.53
12.01
11.53
11.10
10.73
10.45
10.28
10.19
10.13
10.03
9.82
9.54
9.26
9.06
9.01
9.07
9.10
8.97
8.61
8.05
7.44
6.96
6.72
6.71
6.80
6.78
6.54
6.03
5.36
4.68
4.12
3.70
3.36
2.95
2.39
1.63
0.75
-0.11
-0.85
-1.39
-1.75
-1.94
-1.99
-1.91
-1.74
-1.60
-1.62
-1.96
-2.71
-3.83
-5.18
-6.59
-7.90
-9.03
-9.99
-10.81
-11.55
-12.21
-12.82
-13.36
-13.78
-14.02
-14.00
-13.68
-13.10
-12.37
-11.66
-11.09
-10.70
-10.39
-10.00
-9.45
-8.80
-8.29
-8.26
-9.01
-10.59
-12.80
-15.18
-17.25
-18.73
-19.64
-20.41
-21.65
-23.88
-27.28
-31.51
-35.88
-39.63
-42.30
-44.07
-45.72
-48.32
-52.78
-59.39
-67.60
-76.23
-83.93
-89.78
-93.68
-96.41
-99.29
-103.64
-110.32
-119.39
-130.10
-140.90
-149.56
-153.26
-148.88
-133.77
-106.87
-69.69
-26.29
17.96
58.51
93.39
123.54
151.40
178.75
205.07
227.58
242.97
249.52
248.29
242.67
236.57
232.42
230.51
229.54
228.08
225.74
223.39
222.45
223.82
227.04
230.18
230.44
225.25
213.35
195.07
171.77
145.00
115.61
83.72
49.17
12.32
-25.49
-62.05
-94.87
-121.93
-142.06
-154.98
-161.06
-161.13
-156.35
-148.29
-138.69
-129.09
-120.60
-113.59
-107.96
-103.35
-99.34
-95.58
-91.71
-87.47
-82.72
-77.50
-72.04
-66.67
-61.70
-57.21
-53.10
-49.10
-44.87
-40.13
-34.84
-29.20
-23.62
-18.59
-14.46
-11.39
-9.25
-7.77
-6.68
-5.75
-4.95
-4.30
-3.83
-3.52
-3.19
-2.62
-1.56
0.21
2.77
6.02
9.64
13.14
15.97
17.69
18.18
17.57
16.28
14.73
13.24
11.94
10.82
9.78
8.80
7.86
7.00
6.21
5.41
4.50
3.35
1.90
0.14
-1.82
-3.85
-5.74
-7.29
-8.40
-9.04
-9.31
-9.37
-9.33
-9.21
-8.92
-8.38
-7.54
-6.49
-5.36
-4.29
-3.34
-2.44
-1.48
-0.38
0.87
2.21
3.50
4.57
5.27
5.47
5.13
4.30
3.14
1.84
0.60
-0.48
-1.39
-2.15
-2.76
-3.17
-3.32
-3.16
-2.79
-2.33
-1.95
-1.72
-1.63
-1.61
-1.65
-1.74
-1.95
-2.29
-2.69
-3.04
-3.22
-3.21
-3.13
-3.14
-3.40
-3.91
-4.53
-5.05
-5.30
-5.21
-4.82
-4.25
-3.55
-2.77
-1.90
-0.95
0.00
0.90
1.72
2.58
3.66
5.13
7.05
9.29
11.51
13.31
14.36
14.46
13.65
12.09
10.05
7.82
5.63
3.67
2.06
0.85
0.02
-0.50
-0.79
-0.93
-0.99
-1.00
-0.96
-0.84
-0.62
-0.31
0.05
0.38
0.60
0.67
0.60
0.42
0.19
-0.05
-0.30
-0.58
-0.89
-1.26
-1.65
-2.04
-2.39
-2.64
-2.80
-2.88
-2.93
-3.00
-3.14
-3.37
-3.65
-3.92
-4.10
-4.14
-4.05
-3.89
-3.76
-3.77
-3.99
-4.39
-4.85
-5.18
-5.20
-4.81
-4.05
-3.02
-1.91
-0.87
-0.02
0.62
1.08
1.46
1.94
2.71
3.93
5.61
7.53
9.29
10.44
10.64
9.86
8.36
6.67
5.29
4.55
4.39
4.42
4.08
2.78
0.16
-3.77
-8.65
-13.80
-18.46
-22.05
-24.39
-25.73
-26.64
-27.78
-29.49
-31.67
-33.77
-35.08
-35.20
-34.34
-33.34
-33.42
-35.50
-39.77
-45.44
-51.03
-54.97
-56.35
-55.34
-53.16
-51.65
-52.55
-56.91
-64.63
-74.18
-82.71
-86.40
-81.19
-63.78
-32.61
11.28
64.16
120.40
173.88
219.70
255.06
279.15
292.15
294.03
283.86
260.19
222.27
171.36
111.50
49.00
-9.15
-57.19
-92.16
-114.20
-125.76
-130.24
-130.66
-129.05
-126.48
-123.68
-121.52
-121.07
-123.23
-128.14
-134.82
-141.49
-146.26
-148.05
-147.10
-144.96
-143.91
-145.88
-151.51
-159.55
-166.87
-169.31
-162.80
-144.60
-113.83
-71.54
-20.34
36.06
93.27
146.53
191.37
224.34
243.92
250.92
248.26
240.03
230.44
222.95
219.89
222.30
229.71
239.63
247.38
246.86
232.55
202.00
157.76
107.13
59.76
24.21
4.90
0.98
7.44
17.38
24.45
24.45
15.81
-0.59
-21.96
-44.42
-63.89
-77.07
-82.30
-80.02
-72.54
-63.25
-55.46
-51.45
-51.89
-55.83
-61.25
-65.89
-68.13
-67.53
-64.85
-61.41
-58.27
-55.84
-53.88
-51.92
-49.73
-47.46
-45.41
-43.76
-42.40
-41.03
-39.42
-37.45
-35.29
-33.23
-31.54
-30.40
-29.90
-29.98
-30.47
-31.08
-31.47
-31.36
-30.66
-29.57
-28.58
-28.31
-29.22
-31.37
-34.39
-37.45
-39.69
-40.56
-40.12
-38.99
-38.11
-38.22
-39.60
-42.08
-45.27
-48.75
-51.87
-53.13
-49.85
-38.54
-16.37
17.17
59.18
103.91
144.87
177.23
199.22
211.63
215.88
212.10
198.58
173.22
135.78
89.59
41.28
-1.47
-32.83
-50.75
-57.14
-56.27
-52.44
-48.38
-44.85
-41.32
-37.24
-32.77
-28.84
-26.53
-26.40
-28.02
-30.20
-31.61
-31.50
-29.91
-27.72
-26.05
-25.68
-26.71
-28.47
-29.95
-30.21
-28.86
-26.16
-22.85
-19.84
-17.79
-16.95
-17.11
-17.79
-18.48
-18.80
-18.65
-18.17
-17.64
-17.38
-17.58
-18.28
-19.33
-20.49
-21.53
-22.32
-22.94
-23.59
-24.52
-25.90
-27.76
-29.91
-32.01
-33.72
-34.71
-34.79
-33.90
-32.12
-29.69
-27.01
-24.51
-22.58
-21.39
-20.83
-20.43
-19.45
-17.03
-12.52
-5.71
2.90
12.11
20.39
26.35
29.15
28.78
25.90
21.43
16.19
10.83
6.06
2.87
2.45
5.74
12.69
22.00
31.30
38.21
41.27
40.57
37.56
34.14
31.69
30.47
29.89
29.17
28.06
26.96
26.52
27.08
28.26
29.21
29.18
27.90
25.72
23.12
20.06
15.75
9.00
-0.98
-13.80
-27.78
-40.50
-49.88
-54.98
-56.44
-56.05
-55.93
-57.75
-62.12
-68.63
-76.02
-82.75
-87.46
-89.40
-88.62
-85.90
-82.57
-80.11
-79.93
-82.92
-88.85
-95.76
-100.03
-97.22
-83.81
-58.99
-25.63
10.41
42.44
65.39
77.57
80.57
77.76
72.31
66.07
59.65
53.48
48.60
46.64
48.95
55.45
64.33
72.62
77.51
77.58
73.24
66.42
59.37
53.72
49.91
47.41
45.33
43.00
40.30
37.49
34.99
33.03
31.54
30.23
28.76
26.88
24.50
21.72
18.76
15.91
13.43
11.47
10.03
8.96
8.04
7.05
5.88
4.55
3.19
1.94
0.94
0.26
-0.10
-0.21
-0.23
-0.34
-0.73
-1.51
-2.67
-4.11
-5.65
-7.14
-8.52
-9.82
-11.11
-12.51
-14.05
-15.71
-17.40
-19.04
-20.56
-21.95
-23.23
-24.47
-25.76
-27.21
-28.98
-31.24
-34.06
-37.29
-40.42
-42.58
-42.78
-40.21
-34.68
-26.76
-17.70
-9.01
-1.99
2.60
4.66
4.62
3.13
0.89
-1.47
-3.45
-4.67
-4.97
-4.43
-3.31
-1.93
-0.47
1.18
3.37
6.58
11.10
16.88
23.45
30.11
36.16
41.23
45.40
49.10
52.92
57.28
62.26
67.57
72.83
77.85
82.85
88.48
95.52
104.51
115.40
127.47
139.47
150.03
158.20
163.74
167.33
170.23
173.81
178.77
184.61
189.45
190.45
184.51
169.21
143.48
108.01
65.35
19.50
-24.72
-62.66
-90.86
-107.91
-114.57
-113.28
-107.17
-98.95
-90.42
-82.47
-75.42
-69.50
-64.76
-60.93
-57.12
-51.85
-43.48
-30.77
-13.52
6.86
27.03
42.15
47.12
38.45
15.99
-16.48
-52.24
-84.02
-106.62
-118.46
-121.34
-118.73
-113.70
-107.79
-101.06
-93.17
-84.43
-76.03
-69.49
-65.62
-64.03
-63.30
-61.64
-57.86
-51.90
-44.82
-38.23
-33.52
-31.21
-30.83
-31.17
-30.89
-29.12
-25.80
-21.59
-17.56
-14.64
-13.29
-13.25
-13.64
-13.23
-10.86
-5.89
1.56
10.58
19.77
27.59
32.75
34.48
32.56
27.39
19.81
10.97
2.17
-5.42
-10.99
-14.26
-15.50
-15.34
-14.48
-13.43
-12.42
-11.49
-10.59
-9.73
-8.93
-8.21
-7.53
-6.81
-5.97
-5.04
-4.12
-3.35
-2.89
-2.79
-2.98
-3.29
-3.52
-3.53
-3.28
-2.88
-2.48
-2.25
-2.22
-2.34
-2.46
-2.43
-2.18
-1.73
-1.21
-0.76
-0.47
-0.36
-0.34
-0.32
-0.23
-0.04
0.23
0.57
0.95
1.34
1.69
1.88
1.82
1.43
0.73
-0.14
-0.99
-1.65
-2.07
-2.26
-2.31
-2.30
-2.22
-2.06
-1.80
-1.49
-1.18
-0.94
-0.78
-0.66
-0.55
-0.43
-0.38
-0.48
-0.77
-1.20
-1.65
-1.96
-2.01
-1.76
-1.24
-0.54
0.25
1.02
1.64
2.05
2.20
2.11
1.85
1.57
1.39
1.42
1.68
2.10
2.51
2.77
2.77
2.55
2.24
1.99
1.88
1.87
1.77
1.40
0.65
-0.45
-1.70
-2.89
-3.79
-4.34
-4.52
-4.41
-4.10
-3.64
-3.06
-2.39
-1.67
-0.97
-0.32
0.23
0.71
1.15
1.64
2.17
2.73
3.20
3.47
3.44
3.07
2.39
1.51
0.57
-0.26
-0.87
-1.19
-1.23
-1.09
-0.92
-0.85
-0.98
-1.28
-1.65
-1.96
-2.12
-2.12
-2.06
-2.05
-2.15
-2.33
-2.50
-2.58
-2.53
-2.38
-2.14
-1.81
-1.34
-0.69
0.09
0.89
1.51
1.79
1.70
1.30
0.78
0.34
0.13
0.23
0.63
1.23
1.93
2.59
3.07
3.29
3.23
2.93
2.47
1.95
1.41
0.87
0.30
-0.36
-1.14
-2.03
-2.95
-3.77
-4.35
-4.60
-4.49
-4.08
-3.46
-2.70
-1.84
-0.91
0.08
1.07
1.97
2.72
3.28
3.63
3.79
3.76
3.55
3.20
2.76
2.27
1.78
1.25
0.62
-0.15
-0.99
-1.71
-2.08
-2.00
-1.50
-0.83
-0.27
-0.03
-0.14
-0.48
-0.88
-1.21
-1.47
-1.69
-1.93
-2.16
-2.34
-2.37
-2.21
-1.87
-1.37
-0.78
-0.15
0.44
0.92
1.20
1.26
1.12
0.84
0.56
0.42
0.53
0.93
1.59
2.37
3.11
3.67
3.94
3.94
3.69
3.24
2.61
1.82
0.89
-0.05
-0.88
-1.52
-1.97
-2.37
-2.88
-3.59
-4.43
-5.21
-5.65
-5.57
-4.92
-3.84
-2.55
-1.27
-0.17
0.70
1.35
1.83
2.19
2.44
2.54
2.47
2.25
1.97
1.71
1.55
1.49
1.43
1.26
0.89
0.38
-0.14
-0.48
-0.53
-0.29
0.08
0.40
0.51
0.40
0.17
-0.04
-0.15
-0.19
-0.27
-0.49
-0.92
-1.46
-1.95
-2.26
-2.36
-2.30
-2.26
-2.32
-2.52
-2.79
-3.02
-3.18
-3.28
-3.40
-3.58
-3.74
-3.71
-3.25
-2.15
-0.35
2.00
4.62
7.12
9.12
10.34
10.73
10.36
9.47
8.33
7.14
5.96
4.74
3.37
1.76
-0.03
-1.82
-3.39
-4.54
-5.20
-5.40
-5.25
-4.84
-4.26
-3.54
-2.76
-2.00
-1.34
-0.83
-0.43
-0.03
0.46
1.05
1.68
2.23
2.58
2.70
2.64
2.48
2.29
2.10
1.91
1.69
1.43
1.14
0.85
0.58
0.32
0.02
-0.38
-0.87
-1.39
-1.84
-2.06
-1.98
-1.65
-1.19
-0.79
-0.62
-0.75
-1.12
-1.61
-2.04
-2.30
-2.36
-2.24
-2.04
-1.85
-1.74
-1.71
-1.74
-1.76
-1.74
-1.72
-1.75
-1.89
-2.14
-2.38
-2.48
-2.24
-1.61
-0.64
0.46
1.47
2.23
2.73
3.04
3.33
3.69
4.13
4.59
4.96
5.18
5.21
5.02
4.61
3.95
3.05
1.94
0.69
-0.56
-1.70
-2.67
-3.49
-4.25
-5.06
-5.96
-6.88
-7.65
-8.06
-8.00
-7.49
-6.67
-5.76
-4.90
-4.12
-3.33
-2.43
-1.36
-0.24
0.78
1.50
1.89
2.00
2.01
2.11
2.40
2.86
3.34
3.69
3.81
3.72
3.52
3.38
3.39
3.53
3.66
3.64
3.32
2.70
1.89
1.08
0.46
0.13
0.10
0.26
0.48
0.61
0.53
0.19
-0.40
-1.15
-1.92
-2.52
-2.83
-2.79
-2.49
-2.10
-1.85
-1.89
-2.28
-2.88
-3.50
-3.90
-3.99
-3.81
-3.59
-3.58
-3.96
-4.72
-5.64
-6.37
-6.55
-6.00
-4.78
-3.17
-1.56
-0.39
-0.00
-0.55
-1.95
-3.76
-5.20
-5.33
-3.36
0.90
6.81
13.00
17.87
20.19
19.63
16.74
12.66
8.47
4.85
1.92
-0.49
-2.51
-4.07
-4.96
-5.00
-4.23
-2.97
-1.61
-0.51
0.13
0.34
0.27
0.17
0.22
0.50
0.94
1.35
1.53
1.40
1.05
0.70
0.54
0.65
0.92
1.10
0.96
0.40
-0.48
-1.47
-2.31
-2.84
-2.98
-2.74
-2.17
-1.39
-0.55
0.21
0.76
1.09
1.28
1.45
1.71
2.09
2.55
3.00
3.38
3.64
3.76
3.71
3.50
3.15
2.76
2.43
2.20
2.06
1.92
1.70
1.33
0.82
0.21
-0.42
-1.03
-1.57
-2.01
-2.33
-2.55
-2.71
-2.89
-3.10
-3.36
-3.65
-3.97
-4.36
-4.84
-5.42
-5.99
-6.41
-6.54
-6.35
-5.93
-5.44
-5.03
-4.79
-4.62
-4.33
-3.63
-2.29
-0.23
2.42
5.32
8.00
10.06
11.23
11.49
11.02
10.05
8.78
7.32
5.70
3.95
2.16
0.49
-0.91
-1.97
-2.76
-3.42
-4.10
-4.88
-5.78
-6.71
-7.60
-8.45
-9.33
-10.29
-11.36
-12.46
-13.49
-14.40
-15.23
-16.18
-17.43
-19.12
-21.22
-23.55
-25.87
-28.00
-29.89
-31.71
-33.80
-36.57
-40.30
-44.98
-50.22
-55.37
-59.69
-62.75
-64.68
-66.22
-68.45
-72.36
-78.41
-86.15
-94.47
-102.03
-107.88
-111.97
-115.15
-118.81
-124.22
-132.13
-142.72
-155.76
-170.57
-185.90
-199.63
-208.72
-209.80
-200.20
-178.95
-147.17
-107.51
-62.89
-15.39
33.99
84.54
134.68
181.33
220.51
248.81
264.95
270.39
268.64
263.69
258.51
254.42
251.33
248.83
246.92
246.11
246.96
249.46
252.77
255.62
257.07
257.02
256.28
256.09
257.51
260.85
265.59
270.43
273.55
272.85
266.27
252.26
230.15
200.49
164.85
125.23
83.17
39.14
-7.27
-56.37
-107.05
-156.13
-198.76
-230.14
-247.38
-250.77
-243.56
-230.45
-215.72
-201.85
-189.31
-177.43
-165.57
-153.80
-142.86
-133.49
-125.78
-119.05
-112.15
-104.18
-94.95
-85.05
-75.59
-67.63
-61.67
-57.47
-54.19
-50.79
-46.51
-41.20
-35.31
-29.66
-25.00
-21.66
-19.49
-17.92
-16.34
-14.36
-11.96
-9.41
-7.10
-5.30
-4.05
-3.21
-2.55
-1.93
-1.30
-0.74
-0.33
-0.07
0.09
0.21
0.29
0.31
0.18
-0.08
-0.39
-0.64
-0.71
-0.59
-0.37
-0.15
-0.03
-0.01
-0.05
-0.05
0.01
0.11
0.20
0.21
0.12
-0.04
-0.21
-0.33
-0.37
-0.34
-0.28
-0.20
-0.13
-0.08
-0.06
-0.05
-0.04
0.03
0.22
0.53
0.90
1.18
1.23
0.97
0.47
-0.08
-0.47
-0.55
-0.38
-0.12
0.01
-0.17
-0.65
-1.31
-1.95
-2.40
-2.59
-2.62
-2.68
-2.95
-3.54
-4.37
-5.19
-5.73
-5.79
-5.42
-4.89
-4.65
-5.05
-6.20
-7.84
-9.40
-10.24
-10.02
-8.78
-7.06
-5.59
-5.06
-5.80
-7.76
-10.56
-13.59
-15.97
-16.67
-14.64
-9.21
-0.51
10.33
21.41
30.81
37.39
41.30
43.87
46.69
50.58
54.87
57.59
56.50
50.26
39.30
25.71
12.31
1.45
-5.85
-10.04
-12.38
-14.08
-15.59
-16.66
-16.75
-15.66
-13.84
-12.22
-11.63
-12.41
-14.15
-15.99
-17.00
-16.70
-15.22
-13.16
-11.29
-10.12
-9.74
-9.81
-9.79
-9.23
-7.98
-6.26
-4.48
-3.07
-2.27
-2.08
-2.31
-2.68
-2.99
-3.10
-3.00
-2.74
-2.35
-1.89
-1.40
-0.95
-0.58
-0.32
-0.19
-0.17
-0.22
-0.30
-0.31
-0.20
0.06
0.43
0.80
1.04
1.07
0.88
0.56
0.22
-0.00
-0.04
0.11
0.41
0.74
0.98
1.06
0.93
0.65
0.32
0.04
-0.14
-0.22
-0.27
-0.34
-0.42
-0.46
-0.43
-0.31
-0.18
-0.13
-0.21
-0.40
-0.60
-0.69
-0.61
-0.37
-0.04
0.28
0.53
0.69
0.76
0.72
0.54
0.21
-0.23
-0.66
-0.91
-0.88
-0.53
0.01
0.53
0.83
0.77
0.41
-0.11
-0.58
-0.86
-0.92
-0.81
-0.67
-0.63
-0.70
-0.82
-0.86
-0.72
-0.36
0.11
0.57
0.87
0.97
0.90
0.78
0.68
0.66
0.66
0.62
0.46
0.18
-0.16
-0.48
-0.69
-0.80
-0.86
-0.96
-1.17
-1.48
-1.76
-1.90
-1.79
-1.45
-1.06
-0.80
-0.82
-1.12
-1.55
-1.94
-2.15
-2.16
-2.07
-1.96
-1.86
-1.70
-1.38
-0.88
-0.23
0.43
0.94
1.25
1.39
1.48
1.61
1.78
1.94
1.97
1.80
1.49
1.14
0.87
0.79
0.88
1.07
1.29
1.48
1.64
1.81
1.98
2.16
2.33
2.48
2.62
2.77
2.91
3.00
2.98
2.82
2.53
2.15
1.74
1.31
0.85
0.32
-0.27
-0.89
-1.46
-1.91
-2.19
-2.34
-2.41
-2.46
-2.48
-2.43
-2.23
-1.81
-1.20
-0.49
0.15
0.56
0.64
0.40
-0.09
-0.69
-1.30
-1.83
-2.24
-2.47
-2.49
-2.29
-1.91
-1.42
-0.88
-0.32
0.31
1.07
1.96
2.91
3.76
4.31
4.45
4.15
3.49
2.61
1.67
0.81
0.12
-0.35
-0.60
-0.63
-0.50
-0.28
-0.04
0.14
0.27
0.40
0.56
0.79
1.03
1.16
1.11
0.86
0.51
0.21
0.04
-0.03
-0.13
-0.40
-0.87
-1.44
-1.91
-2.14
-2.13
-2.00
-1.91
-1.93
-2.00
-2.01
-1.88
