1660938371.00
64.000000
-0.00
-0.00
-0.00
-0.00
-0.00
-0.00
-0.00
-0.00
-0.00
-0.00
0.00
0.01
0.01
-0.00
-0.03
-0.05
-0.05
0.00
0.13
0.36
0.66
1.01
1.37
1.72
2.06
2.40
2.79
3.25
3.81
4.44
5.10
5.73
6.32
6.90
7.52
8.26
9.15
10.28
11.53
12.77
13.89
14.86
15.76
16.76
18.11
19.95
22.46
25.42
28.54
31.54
34.27
36.88
39.70
43.21
47.69
53.47
60.14
67.12
73.87
80.12
86.06
92.32
99.64
108.47
119.19
131.13
143.36
155.04
165.79
175.94
186.40
198.61
211.13
225.91
243.13
262.64
283.24
302.35
316.16
320.53
312.29
290.35
256.53
214.02
166.68
117.72
69.10
21.75
-23.84
-67.16
-107.65
-144.84
-179.28
-212.27
-245.50
-280.29
-316.64
-352.69
-384.78
-408.54
-420.17
-418.10
-403.55
-380.11
-352.24
-323.69
-296.54
-271.16
-247.08
-223.82
-201.59
-181.08
-162.87
-146.98
-132.75
-119.17
-105.45
-91.34
-77.22
-63.94
-52.34
-42.82
-35.20
-28.80
-22.80
-16.59
-10.07
-3.59
2.26
7.00
10.49
13.00
15.06
17.13
19.48
22.01
24.38
26.24
27.35
27.70
27.51
27.05
26.57
26.17
25.86
25.58
25.27
24.88
24.42
23.87
23.23
22.52
21.78
21.07
20.42
19.83
19.25
18.64
17.94
17.16
16.32
15.52
14.81
14.23
13.79
13.44
13.09
12.70
12.25
11.77
11.35
11.04
10.88
10.83
10.81
10.76
10.64
10.50
10.36
10.25
10.14
9.95
9.63
9.17
8.65
8.17
7.85
7.70
7.67
7.66
7.57
7.38
7.15
6.94
6.80
6.72
6.61
6.38
5.98
5.43
4.83
4.28
3.85
3.51
3.20
2.83
2.35
1.78
1.14
0.48
-0.19
-0.85
-1.49
-2.09
-2.64
-3.10
-3.48
-3.80
-4.15
-4.59
-5.18
-5.90
-6.69
-7.47
-8.19
-8.82
-9.35
-9.75
-10.00
-10.08
-9.98
-9.75
-9.46
-9.18
-8.91
-8.60
-8.19
-7.65
-6.97
-6.22
-5.44
-4.67
-3.93
-3.27
-2.73
-2.36
-2.17
-2.08
-2.01
-1.85
-1.55
-1.09
-0.47
0.23
0.95
1.60
2.09
2.36
2.41
2.32
2.23
2.24
2.39
2.67
3.01
3.37
3.70
3.99
4.21
4.37
4.44
4.44
4.39
4.32
4.25
4.19
4.16
4.17
4.22
4.32
4.44
4.52
4.51
4.40
4.22
4.04
3.93
3.92
3.98
4.04
4.03
3.93
3.76
3.58
3.46
3.42
3.46
3.54
3.64
3.72
3.79
3.84
3.87
3.86
3.84
3.81
3.75
3.66
3.51
3.30
3.04
2.78
2.56
2.45
2.45
2.54
2.69
2.85
2.99
3.08
3.07
2.95
2.70
2.35
1.96
1.59
1.29
1.06
0.90
0.76
0.64
0.51
0.39
0.28
0.20
0.13
0.08
0.07
0.10
0.19
0.34
0.55
0.78
0.98
1.11
1.14
1.08
0.97
0.87
0.84
0.90
1.06
1.28
1.51
1.71
1.84
1.91
1.93
1.92
1.89
1.83
1.73
1.60
1.44
1.31
1.24
1.24
1.28
1.32
1.31
1.25
1.16
1.08
1.01
0.93
0.79
0.59
0.37
0.25
0.33
0.64
1.12
1.60
1.92
2.01
1.87
1.60
1.32
1.12
1.04
1.05
1.10
1.13
1.09
0.92
0.62
0.25
-0.10
-0.30
-0.28
-0.05
0.28
0.60
0.84
1.01
1.16
1.31
1.42
1.42
1.25
0.92
0.56
0.31
0.26
0.39
0.62
0.83
0.97
1.03
1.03
0.97
0.82
0.59
0.35
0.19
0.20
0.39
0.64
0.79
0.72
0.44
0.05
-0.29
-0.44
-0.39
-0.21
0.02
0.23
0.40
0.54
0.67
0.80
0.89
0.91
0.81
0.59
0.29
-0.03
-0.23
-0.24
-0.03
0.36
0.78
1.08
1.15
0.94
0.55
0.11
-0.25
-0.44
-0.47
-0.38
-0.26
-0.14
-0.05
0.05
0.19
0.39
0.65
0.92
1.16
1.30
1.28
1.10
0.78
0.39
0.03
-0.22
-0.29
-0.19
0.03
0.28
0.49
0.60
0.61
0.59
0.60
0.71
0.89
1.07
1.15
1.06
0.76
0.35
-0.09
-0.46
-0.69
-0.78
-0.74
-0.62
-0.43
-0.19
0.07
0.32
0.54
0.67
0.69
0.56
0.31
0.01
-0.24
-0.32
-0.16
0.20
0.64
1.01
1.19
1.16
0.94
0.65
0.36
0.17
0.10
0.19
0.37
0.58
0.71
0.69
0.50
0.20
-0.09
-0.26
-0.28
-0.16
0.06
0.28
0.48
0.59
0.59
0.45
0.19
-0.12
-0.38
-0.53
-0.58
-0.57
-0.57
-0.61
-0.66
-0.66
-0.58
-0.40
-0.18
0.03
0.22
0.41
0.62
0.86
1.11
1.30
1.34
1.20
0.92
0.59
0.30
0.15
0.15
0.26
0.38
0.43
0.40
0.32
0.23
0.17
0.13
0.06
-0.06
-0.26
-0.50
-0.71
-0.85
-0.89
-0.86
-0.79
-0.73
-0.72
-0.76
-0.82
-0.85
-0.82
-0.70
-0.52
-0.36
-0.33
-0.50
-0.89
-1.45
-2.07
-2.66
-3.13
-3.51
-3.81
-4.06
-4.27
-4.39
-4.34
-4.14
-3.83
-3.55
-3.44
-3.57
-3.93
-4.45
-5.03
-5.61
-6.18
-6.73
-7.25
-7.69
-7.96
-7.98
-7.73
-7.31
-6.87
-6.56
-6.48
-6.58
-6.72
-6.69
-6.28
-5.38
-4.03
-2.37
-0.62
0.96
2.15
2.82
2.93
2.57
1.97
1.39
1.07
1.16
1.62
2.29
2.96
3.44
3.65
3.57
3.16
2.31
0.86
-1.27
-4.07
-7.31
-10.64
-13.78
-16.59
-19.21
-21.90
-24.97
-28.56
-32.63
-36.98
-41.36
-45.61
-49.81
-54.20
-59.18
-65.06
-71.95
-79.63
-87.62
-95.35
-102.43
-108.84
-114.96
-121.46
-128.92
-137.72
-148.00
-159.79
-172.95
-186.89
-200.13
-210.11
-213.55
-207.35
-189.78
-161.08
-123.27
-79.14
-31.15
18.90
69.39
118.03
161.40
195.59
217.59
226.70
224.96
216.35
205.16
194.51
185.75
178.87
173.34
168.92
165.76
164.07
163.71
164.13
164.72
165.23
165.98
167.71
171.17
176.61
183.51
190.78
197.19
201.89
204.77
206.40
207.70
209.60
212.77
217.43
223.25
229.15
233.21
232.85
225.45
209.18
183.70
150.27
111.09
68.26
22.95
-24.58
-73.98
-123.59
-169.87
-208.09
-233.97
-245.54
-244.04
-233.38
-218.41
-203.08
-189.34
-177.16
-165.60
-154.00
-142.54
-132.05
-123.29
-116.30
-110.35
-104.25
-97.10
-88.67
-79.53
-70.71
-63.16
-57.30
-52.90
-49.25
-45.57
-41.33
-36.48
-31.41
-26.72
-22.90
-20.16
-18.30
-16.91
-15.49
-13.74
-11.63
-9.36
-7.24
-5.54
-4.34
-3.54
-2.94
-2.32
-1.54
-0.62
0.34
1.16
1.66
1.78
1.59
1.27
1.05
1.11
1.51
2.19
2.97
3.69
4.22
4.42
4.18
3.39
2.01
0.18
-1.82
-3.61
-4.87
-5.46
-5.52
-5.28
-5.00
-4.80
-4.62
-4.35
-3.87
-3.15
-2.26
-1.32
-0.44
0.34
1.00
1.53
1.93
2.17
2.25
2.16
1.91
1.54
1.08
0.56
0.03
-0.46
-0.86
-1.12
-1.22
-1.20
-1.11
-1.03
-0.98
-0.96
-0.92
-0.84
-0.70
-0.53
-0.35
-0.20
-0.09
-0.08
-0.20
-0.47
-0.88
-1.34
-1.74
-1.95
-1.89
-1.57
-1.04
-0.34
0.45
1.28
2.04
2.64
2.96
3.00
2.83
2.60
2.46
2.51
2.69
2.88
2.97
2.90
2.71
2.51
2.38
2.31
2.18
1.81
1.07
-0.08
-1.55
-3.12
-4.51
-5.52
-6.08
-6.28
-6.30
-6.30
-6.34
-6.36
-6.23
-5.84
-5.12
-4.08
-2.78
-1.30
0.29
1.92
3.48
4.87
6.01
6.84
7.37
7.60
7.50
7.03
6.17
5.00
3.67
2.38
1.32
0.57
0.14
-0.05
-0.07
0.02
0.18
0.36
0.48
0.43
0.13
-0.48
-1.35
-2.37
-3.35
-4.12
-4.51
-4.45
-4.01
-3.33
-2.59
-1.93
-1.44
-1.12
-0.95
-0.90
-0.92
-0.97
-0.97
-0.83
-0.52
-0.05
0.50
1.04
1.48
1.83
2.13
2.48
2.92
3.44
3.90
4.11
3.91
3.23
2.09
0.64
-0.90
-2.31
-3.43
-4.18
-4.53
-4.55
-4.30
-3.87
-3.33
-2.71
-2.03
-1.29
-0.47
0.42
1.35
2.23
2.99
3.56
3.92
4.12
4.18
4.08
3.78
3.20
2.30
1.16
-0.05
-1.11
-1.84
-2.13
-2.02
-1.59
-0.97
-0.29
0.36
0.86
1.09
0.96
0.43
-0.42
-1.46
-2.50
-3.37
-3.96
-4.21
-4.15
-3.80
-3.23
-2.55
-1.86
-1.30
-0.95
-0.87
-1.00
-1.22
-1.36
-1.26
-0.86
-0.17
0.73
1.69
2.58
3.33
3.89
4.30
4.57
4.72
4.71
4.48
3.96
3.06
1.74
0.07
-1.79
-3.61
-5.12
-6.12
-6.52
-6.40
-5.91
-5.22
-4.48
-3.76
-3.06
-2.36
-1.59
-0.71
0.33
1.56
2.93
4.30
5.52
6.43
6.93
6.98
6.61
5.91
4.97
3.94
2.93
2.05
1.35
0.84
0.47
0.20
0.03
-0.03
0.06
0.26
0.48
0.57
0.43
-0.01
-0.69
-1.47
-2.23
-2.87
-3.33
-3.60
-3.67
-3.54
-3.23
-2.82
-2.39
-2.08
-1.95
-2.00
-2.12
-2.18
-2.03
-1.59
-0.81
0.25
1.50
2.80
4.01
5.02
5.77
6.27
6.54
6.60
6.45
6.04
5.37
4.47
3.40
2.23
0.98
-0.33
-1.68
-2.96
-4.01
-4.66
-4.86
-4.68
-4.28
-3.82
-3.43
-3.15
-2.92
-2.70
-2.42
-2.04
-1.55
-1.01
-0.50
-0.17
-0.13
-0.40
-0.89
-1.45
-1.93
-2.22
-2.35
-2.45
-2.67
-3.15
-3.96
-5.05
-6.27
-7.43
-8.37
-9.04
-9.57
-10.23
-11.32
-12.97
-15.09
-17.32
-19.23
-20.57
-21.43
-22.29
-23.83
-26.58
-30.63
-35.44
-40.04
-43.42
-45.01
-45.07
-44.68
-45.38
-48.45
-54.33
-62.30
-70.69
-77.55
-81.60
-82.83
-82.54
-82.93
-86.09
-93.14
-103.80
-116.38
-128.16
-135.86
-136.29
-127.05
-107.48
-79.39
-47.16
-16.80
6.19
19.19
24.05
26.61
34.11
51.68
79.62
113.11
144.32
166.09
174.86
171.73
161.08
147.99
135.91
125.85
117.07
108.70
100.92
95.04
92.65
94.42
99.51
105.75
110.67
112.58
111.29
108.06
104.83
103.31
104.23
107.12
110.70
113.62
115.08
115.18
114.78
114.80
115.47
115.88
114.08
107.92
96.25
79.88
61.38
43.85
29.18
17.02
5.14
-9.07
-26.86
-47.30
-67.88
-86.15
-101.01
-113.04
-123.57
-133.31
-141.61
-146.78
-147.39
-143.36
-136.30
-128.75
-123.00
-120.00
-119.26
-119.39
-118.85
-116.81
-113.43
-109.64
-106.47
-104.43
-103.15
-101.48
-98.07
-92.10
-83.89
-74.90
-67.11
-62.30
-61.23
-63.35
-67.21
-71.08
-73.37
-72.70
-67.73
-57.22
-40.57
-18.64
5.82
28.76
46.45
57.26
62.49
65.76
71.11
80.94
95.06
111.18
126.45
139.05
148.87
156.87
163.74
168.67
169.17
162.09
145.35
119.39
87.69
55.65
28.57
9.72
-0.70
-5.03
-6.56
-7.84
-9.78
-11.85
-13.13
-13.29
-12.92
-13.13
-14.80
-17.98
-21.87
-25.23
-26.91
-26.45
-24.23
-21.18
-18.42
-16.73
-16.28
-16.67
-17.15
-17.03
-15.99
-14.18
-12.02
-10.06
-8.70
-8.04
-7.88
-7.87
-7.64
-6.98
-5.92
-4.69
-3.56
-2.73
-2.21
-1.88
-1.56
-1.11
-0.54
0.06
0.59
1.00
1.28
1.47
1.60
1.64
1.58
1.44
1.26
1.14
1.16
1.31
1.50
1.61
1.54
1.27
0.84
0.35
-0.12
-0.50
-0.79
-1.01
-1.16
-1.24
-1.25
-1.20
-1.13
-1.12
-1.18
-1.31
-1.45
-1.51
-1.46
-1.31
-1.12
-0.99
-0.97
-1.04
-1.13
-1.11
-0.93
-0.62
-0.29
-0.08
-0.11
-0.38
-0.83
-1.30
-1.65
-1.81
-1.77
-1.58
-1.34
-1.15
-1.04
-1.05
-1.13
-1.25
-1.35
-1.41
-1.43
-1.41
-1.37
-1.31
-1.22
-1.13
-1.05
-1.04
-1.14
-1.32
-1.49
-1.53
-1.35
-0.95
-0.43
0.07
0.42
0.55
0.47
0.22
-0.17
-0.63
-1.05
-1.32
-1.29
-0.95
-0.36
0.29
0.76
0.92
0.76
0.38
-0.02
-0.30
-0.39
-0.34
-0.24
-0.15
-0.11
-0.10
-0.07
-0.04
-0.05
-0.15
-0.37
-0.64
-0.86
-0.93
-0.80
-0.54
-0.31
-0.24
-0.39
-0.70
-1.06
-1.30
-1.34
-1.18
-0.90
-0.58
-0.31
-0.10
0.02
0.07
0.03
-0.11
-0.31
-0.52
-0.67
-0.68
-0.50
-0.17
0.26
0.65
0.92
0.97
0.81
0.48
0.08
-0.29
-0.54
-0.65
-0.65
-0.61
-0.59
-0.62
-0.69
-0.79
-0.91
-1.02
-1.05
-0.94
-0.64
-0.18
0.32
0.68
0.78
0.63
0.35
0.14
0.15
0.42
0.84
1.24
1.47
1.45
1.21
0.85
0.44
0.06
-0.27
-0.55
-0.78
-0.94
-1.03
-1.04
-0.96
-0.82
-0.65
-0.49
-0.40
-0.40
-0.49
-0.65
-0.81
-0.92
-0.91
-0.74
-0.43
-0.02
0.38
0.66
0.78
0.75
0.66
0.61
0.63
0.67
0.66
0.52
0.29
0.05
-0.12
-0.20
-0.21
-0.23
-0.28
-0.33
-0.32
-0.17
0.10
0.44
0.75
0.94
0.98
0.87
0.64
0.34
0.03
-0.23
-0.38
-0.40
-0.32
-0.23
-0.18
-0.22
-0.34
-0.51
-0.66
-0.73
-0.69
-0.54
-0.33
-0.12
0.05
0.17
0.23
0.24
0.19
0.09
-0.06
-0.21
-0.30
-0.23
0.01
0.36
0.72
0.93
0.92
0.71
0.40
0.12
-0.05
-0.10
-0.10
-0.13
-0.26
-0.47
-0.69
-0.81
-0.75
-0.50
-0.14
0.19
0.37
0.32
0.10
-0.19
-0.41
-0.44
-0.28
0.01
0.30
0.50
0.53
0.41
0.20
0.00
-0.09
-0.03
0.16
0.43
0.70
0.89
0.94
0.86
0.66
0.40
0.12
-0.14
-0.34
-0.45
-0.46
-0.32
-0.07
0.27
0.58
0.74
0.66
0.34
-0.11
-0.51
-0.69
-0.58
-0.24
0.15
0.42
0.50
0.42
0.27
0.13
0.01
-0.13
-0.34
-0.62
-0.89
-1.05
-1.05
-0.88
-0.60
-0.32
-0.11
-0.00
0.04
0.09
0.20
0.38
0.60
0.79
0.84
0.70
0.41
0.07
-0.17
-0.25
-0.16
-0.01
0.09
0.05
-0.10
-0.28
-0.39
-0.36
-0.20
0.00
0.13
0.10
-0.12
-0.47
-0.82
-1.06
-1.12
-0.99
-0.76
-0.49
-0.24
-0.01
0.20
0.38
0.47
0.40
0.17
-0.15
-0.43
-0.55
-0.47
-0.22
0.07
0.31
0.45
0.51
0.56
0.65
0.77
0.87
0.89
0.79
0.59
0.34
0.15
0.07
0.12
0.25
0.42
0.57
0.69
0.77
0.80
0.75
0.60
0.36
0.08
-0.12
-0.15
0.05
0.43
0.84
1.11
1.13
0.86
0.39
-0.09
-0.41
-0.47
-0.33
-0.11
0.01
-0.08
-0.37
-0.73
-1.01
-1.09
-0.96
-0.69
-0.42
-0.25
-0.23
-0.34
-0.52
-0.71
-0.88
-0.97
-0.95
-0.79
-0.50
-0.12
0.24
0.50
0.61
0.61
0.56
0.55
0.60
0.68
0.72
0.66
0.54
0.40
0.33
0.35
0.42
0.44
0.31
-0.03
-0.51
-1.01
-1.36
-1.44
-1.23
-0.83
-0.41
-0.13
-0.04
-0.13
-0.27
-0.34
-0.28
-0.10
0.09
0.18
0.12
-0.04
-0.16
-0.11
0.11
0.39
0.56
0.50
0.21
-0.15
-0.40
-0.43
-0.28
-0.13
-0.13
-0.35
-0.68
-0.95
-1.04
-0.93
-0.71
-0.51
-0.42
-0.44
-0.55
-0.70
-0.86
-0.99
-1.05
-0.99
-0.76
-0.37
0.09
0.47
0.67
0.63
0.41
0.12
-0.09
-0.16
-0.07
0.15
0.42
0.70
0.95
1.13
1.20
1.12
0.89
0.61
0.36
0.24
0.28
0.41
0.51
0.50
0.35
0.12
-0.08
-0.20
-0.22
-0.18
-0.13
-0.06
0.05
0.22
0.45
0.67
0.82
0.83
0.71
0.51
0.31
0.17
0.13
0.16
0.20
0.19
0.09
-0.08
-0.29
-0.45
-0.51
-0.48
-0.40
-0.35
-0.36
-0.45
-0.57
-0.65
-0.66
-0.61
-0.55
-0.52
-0.53
-0.53
-0.44
-0.21
0.16
0.59
0.95
1.11
1.02
0.72
0.33
-0.02
-0.24
-0.33
-0.31
-0.23
-0.14
-0.03
0.10
0.22
0.30
0.27
0.12
-0.12
-0.35
-0.48
-0.48
-0.34
-0.15
0.04
0.20
0.33
0.44
0.53
0.56
0.51
0.38
0.22
0.11
0.11
0.20
0.36
0.53
0.68
0.80
0.90
0.96
0.93
0.78
0.45
-0.00
-0.49
-0.88
-1.04
-0.94
-0.63
-0.24
0.06
0.16
0.02
-0.30
-0.65
-0.93
-1.06
-1.03
-0.89
-0.67
-0.42
-0.16
0.07
0.26
0.38
0.42
0.39
0.32
0.26
0.24
0.26
0.31
0.34
0.32
0.25
0.16
0.12
0.20
0.37
0.60
0.81
0.92
0.93
0.85
0.75
0.62
0.49
0.34
0.19
0.11
0.13
0.26
0.44
0.58
0.65
0.64
0.61
0.64
0.76
0.91
1.02
0.98
0.76
0.38
-0.06
-0.43
-0.61
-0.59
-0.38
-0.08
0.20
0.36
0.35
0.17
-0.12
-0.39
-0.54
-0.48
-0.22
0.11
0.37
0.43
0.23
-0.18
-0.65
-1.05
-1.30
-1.38
-1.31
-1.11
-0.79
-0.37
0.08
0.42
0.54
0.39
0.06
-0.30
-0.49
-0.46
-0.24
0.02
0.19
0.23
0.19
0.17
0.21
0.29
0.28
0.11
-0.20
-0.54
-0.75
-0.70
-0.42
-0.02
0.31
0.46
0.40
0.23
0.09
0.08
0.22
0.44
0.62
0.68
0.57
0.33
0.05
-0.17
-0.28
-0.27
-0.18
-0.09
-0.05
-0.10
-0.26
-0.49
-0.75
-1.01
-1.23
-1.42
-1.55
-1.61
-1.54
-1.31
-0.95
-0.53
-0.16
0.05
0.07
-0.05
-0.24
-0.39
-0.48
-0.54
-0.60
-0.69
-0.76
-0.77
-0.64
-0.39
-0.07
0.23
0.46
0.57
0.61
0.60
0.60
0.64
0.69
0.76
0.80
0.82
0.81
0.78
0.73
0.67
0.62
0.60
0.60
0.59
0.53
0.39
0.18
-0.07
-0.26
-0.34
-0.33
-0.29
-0.31
-0.43
-0.65
-0.90
-1.09
-1.15
-1.07
-0.88
-0.63
-0.38
-0.16
0.00
0.13
0.23
0.31
0.37
0.37
0.26
0.05
-0.23
-0.50
-0.68
-0.71
-0.63
-0.52
-0.45
-0.45
-0.49
-0.47
-0.35
-0.12
0.16
0.42
0.58
0.61
0.51
0.33
0.14
-0.01
-0.06
-0.02
0.08
0.15
0.17
0.12
0.06
0.03
0.04
0.04
-0.06
-0.30
-0.67
-1.05
-1.32
-1.39
-1.28
-1.06
-0.85
-0.67
-0.54
-0.44
-0.37
-0.36
-0.47
-0.69
-0.96
-1.18
-1.26
-1.17
-0.94
-0.68
-0.46
-0.29
-0.19
-0.09
0.01
0.13
0.22
0.22
0.10
-0.18
-0.58
-1.01
-1.34
-1.42
-1.22
-0.77
-0.21
0.29
0.63
0.83
0.97
1.16
1.44
1.74
1.90
1.81
1.44
0.89
0.36
0.03
0.02
0.28
0.69
1.07
1.34
1.46
1.49
1.50
1.52
1.52
1.42
1.16
0.74
0.22
-0.27
-0.62
-0.72
-0.58
-0.30
-0.03
0.09
0.01
-0.23
-0.49
-0.62
-0.54
-0.28
0.02
0.19
0.15
-0.12
-0.47
-0.75
-0.84
-0.71
-0.43
-0.12
0.10
0.16
0.08
-0.08
-0.23
-0.34
-0.44
-0.56
-0.73
-0.92
-1.03
-0.98
-0.77
-0.50
-0.30
-0.23
-0.30
-0.38
-0.35
-0.13
0.23
0.64
0.99
1.20
1.28
1.22
1.04
0.76
0.44
0.16
0.01
0.05
0.22
0.40
0.50
0.48
0.37
0.28
0.24
0.26
0.28
0.24
0.13
0.02
-0.02
0.05
0.21
0.39
0.49
0.48
0.33
0.09
-0.19
-0.44
-0.59
-0.60
-0.49
-0.29
-0.08
0.07
0.12
0.05
-0.13
-0.35
-0.60
-0.80
-0.94
-0.98
-0.92
-0.75
-0.51
-0.24
0.02
0.20
0.24
0.11
-0.18
-0.56
-0.89
-1.05
-0.97
-0.67
-0.25
0.16
0.50
0.77
1.00
1.21
1.38
1.40
1.22
0.84
0.39
0.03
-0.14
-0.12
-0.04
-0.05
-0.22
-0.53
-0.85
-1.06
-1.06
-0.87
-0.55
-0.21
0.06
0.22
0.28
0.27
0.28
0.33
0.45
0.60
0.76
0.86
0.90
0.90
0.85
0.76
0.62
0.45
0.28
0.19
0.19
0.28
0.39
0.43
0.35
0.16
-0.07
-0.26
-0.35
-0.35
-0.29
-0.21
-0.11
0.02
0.18
0.33
0.40
0.30
0.01
-0.38
-0.73
-0.89
-0.78
-0.46
-0.10
0.13
0.13
-0.08
-0.36
-0.57
-0.61
-0.47
-0.23
0.00
0.18
0.32
0.42
0.51
0.55
0.53
0.44
0.30
0.15
0.01
-0.09
-0.14
-0.15
-0.11
-0.01
0.12
0.24
0.29
0.29
0.26
0.24
0.25
0.25
0.19
0.07
-0.05
-0.09
0.03
0.28
0.50
0.54
0.31
-0.14
-0.63
-0.96
-1.03
-0.89
-0.67
-0.52
-0.48
-0.57
-0.71
-0.87
-1.04
-1.20
-1.34
-1.40
-1.31
-1.08
-0.76
-0.47
-0.31
-0.33
-0.50
-0.75
-1.01
-1.21
-1.32
-1.30
-1.16
-0.93
-0.68
-0.54
-0.55
-0.72
-0.96
-1.16
-1.27
-1.31
-1.36
-1.47
-1.61
-1.68
-1.53
-1.10
-0.42
0.37
1.14
1.78
2.31
2.78
3.20
3.56
3.82
3.92
3.86
3.69
3.43
3.09
2.69
2.24
1.80
1.47
1.31
1.34
1.52
1.73
1.88
1.93
1.89
1.82
1.75
1.72
1.73
1.79
1.94
2.24
2.72
3.33
3.98
4.54
4.92
5.14
5.35
5.74
6.44
7.41
8.42
9.14
9.35
9.11
8.78
8.91
9.95
12.01
14.74
17.46
19.46
20.30
20.10
19.48
19.32
20.35
22.77
26.12
29.39
31.59
32.14
31.18
29.57
28.47
28.90
31.53
36.62
43.93
52.39
59.74
62.75
58.09
43.90
21.13
-6.26
-32.55
-52.53
-63.51
-66.10
-63.27
-58.47
-53.90
-50.03
-46.18
-41.77
-37.03
-32.93
-30.47
-29.88
-30.47
-30.97
-30.24
-27.80
-24.08
-20.14
-17.04
-15.42
-15.21
-15.75
-16.14
-15.68
-14.18
-11.95
-9.61
-7.73
-6.66
-6.34
-6.45
-6.57
-6.38
-5.78
-4.89
-4.00
-3.37
-3.16
-3.32
-3.67
-3.93
-3.90
-3.53
-2.91
-2.27
-1.78
-1.53
-1.47
-1.49
-1.52
-1.54
-1.63
-1.84
-2.20
-2.65
-3.12
-3.58
-4.06
-4.64
-5.33
-6.08
-6.75
-7.20
-7.36
-7.33
-7.32
-7.58
-8.31
-9.52
-11.04
-12.59
-13.89
-14.78
-15.29
-15.61
-15.99
-16.65
-17.72
-19.27
-21.19
-23.19
-24.75
-25.14
-23.65
-19.82
-13.75
-6.02
2.41
10.66
18.14
24.68
30.32
35.08
38.80
41.19
42.05
41.43
39.68
37.28
34.62
31.87
29.04
26.09
23.08
20.18
17.60
15.46
13.73
12.26
10.86
9.39
7.82
6.15
4.38
2.52
0.56
-1.42
-3.23
-4.68
-5.63
-6.08
-6.18
-6.13
-6.06
-6.03
-5.98
-5.84
-5.64
-5.44
-5.39
-5.52
-5.81
-6.13
-6.37
-6.49
-6.50
-6.41
-6.20
-5.83
-5.25
-4.50
-3.68
-2.96
-2.45
-2.18
-2.09
-2.07
-2.01
-1.90
-1.76
-1.68
-1.69
-1.77
-1.84
-1.80
-1.60
-1.25
-0.85
-0.53
-0.41
-0.50
-0.69
-0.87
-0.93
-0.82
-0.63
-0.43
-0.28
-0.17
-0.05
0.13
0.33
0.46
0.45
0.25
-0.08
-0.43
-0.71
-0.89
-0.97
-0.97
-0.91
-0.77
-0.55
-0.30
-0.08
0.02
-0.02
-0.22
-0.50
-0.80
-1.07
-1.30
-1.46
-1.51
-1.43
-1.21
-0.87
-0.52
-0.25
-0.14
-0.20
-0.38
-0.54
-0.59
-0.46
-0.15
0.29
0.75
1.15
1.40
1.46
1.35
1.08
0.75
0.41
0.13
-0.05
-0.14
-0.14
-0.09
0.01
0.09
0.12
0.08
-0.06
-0.26
-0.49
-0.70
-0.87
-0.96
-0.95
-0.84
-0.65
-0.40
-0.14
0.07
0.20
0.21
0.14
-0.02
-0.21
-0.41
-0.53
-0.53
-0.36
-0.03
0.37
0.71
0.86
0.77
0.48
0.14
-0.10
-0.12
0.07
0.37
0.66
0.84
0.88
0.85
0.80
0.79
0.78
0.75
0.63
0.43
0.16
-0.12
-0.34
-0.48
-0.52
-0.44
-0.25
0.06
0.42
0.74
0.87
0.77
0.45
0.06
-0.28
-0.45
-0.45
-0.38
-0.33
-0.39
-0.51
-0.62
-0.62
-0.48
-0.28
-0.12
-0.10
-0.27
-0.60
-0.99
-1.29
-1.40
-1.27
-0.97
-0.59
-0.26
-0.05
0.06
0.17
0.35
0.64
0.96
1.19
1.22
1.03
0.70
0.38
0.16
0.07
0.07
0.09
0.09
0.12
0.21
0.40
0.63
0.82
0.87
0.75
0.51
0.24
0.02
-0.10
-0.15
-0.18
-0.27
-0.47
-0.75
-1.06
-1.30
-1.40
-1.32
-1.11
-0.85
-0.65
-0.55
-0.52
-0.48
-0.32
-0.03
0.37
0.78
1.08
1.21
1.17
1.00
0.79
0.58
0.42
0.30
0.22
0.18
0.20
0.30
0.46
0.67
0.84
0.89
0.77
0.50
0.14
-0.22
-0.54
-0.79
-0.99
-1.12
-1.14
-1.02
-0.76
-0.44
-0.14
0.06
0.14
0.17
0.22
0.35
0.52
0.64
0.63
0.46
0.16
-0.16
-0.40
-0.51
-0.50
-0.44
-0.39
-0.37
-0.39
-0.40
-0.38
-0.31
-0.22
-0.12
-0.04
0.00
0.00
-0.02
-0.05
-0.06
-0.03
0.08
0.26
0.47
0.64
0.74
0.74
0.67
0.56
0.46
0.37
0.30
0.29
0.38
0.58
0.88
1.18
1.35
1.31
1.04
0.59
0.12
-0.22
-0.35
-0.27
-0.05
0.18
0.31
0.26
0.06
-0.23
-0.53
-0.74
-0.86
-0.88
-0.83
-0.77
-0.69
-0.60
-0.50
-0.41
-0.36
-0.37
-0.43
-0.54
-0.64
-0.68
-0.64
-0.50
-0.29
-0.09
0.03
0.01
-0.16
-0.46
-0.80
-1.07
-1.22
-1.21
-1.07
-0.83
-0.58
-0.39
-0.32
-0.42
-0.66
-0.93
-1.09
-1.03
-0.71
-0.22
0.29
0.68
0.88
0.91
0.84
0.73
0.59
0.40
0.16
-0.11
-0.34
-0.47
-0.48
-0.42
-0.34
-0.27
-0.19
-0.04
0.21
0.57
0.97
1.36
1.65
1.82
1.87
1.87
1.89
1.95
2.05
2.12
2.09
1.91
1.63
1.29
1.00
0.80
0.68
0.57
0.42
0.19
-0.09
-0.36
-0.57
-0.70
-0.76
-0.78
-0.82
-0.89
-0.98
-1.05
-1.04
-0.91
-0.67
-0.42
-0.25
-0.27
-0.50
-0.84
-1.17
-1.37
-1.41
-1.31
-1.11
-0.84
-0.46
0.00
0.50
0.88
0.98
0.74
0.21
-0.41
-0.89
-1.07
-0.94
-0.61
-0.26
-0.04
0.02
-0.03
-0.11
-0.17
-0.19
-0.21
-0.25
-0.31
-0.38
-0.42
-0.46
-0.53
-0.64
-0.83
-1.06
-1.28
-1.44
-1.54
-1.64
-1.81
-2.14
-2.64
-3.27
-3.95
-4.57
-5.07
-5.41
-5.63
-5.78
-5.90
-5.98
-5.98
-5.85
-5.55
-5.14
-4.74
-4.50
-4.53
-4.85
-5.34
-5.82
-6.08
-6.05
-5.80
-5.58
-5.72
-6.47
-7.89
-9.76
-11.58
-12.81
-13.04
-12.28
-10.99
-9.96
-9.93
-11.22
-13.48
-15.74
-16.82
-15.89
-13.00
-9.20
-6.15
-5.38
-7.51
-11.88
-16.76
-20.16
-20.76
-18.55
-14.84
-11.50
-10.21
-11.85
-16.37
-22.98
-30.26
-35.96
-36.83
-29.13
-9.79
21.89
63.22
108.46
150.82
185.15
209.70
225.90
236.36
242.14
241.38
230.00
204.22
163.46
111.70
56.48
6.23
-32.95
-58.98
-73.71
-81.02
-84.57
-86.29
-86.26
-83.82
-78.82
-72.33
-66.31
-62.57
-61.74
-62.90
-64.03
-63.16
-59.31
-52.96
-45.72
-39.50
-35.67
-34.44
-34.97
-35.82
-35.65
-33.77
-30.34
-26.12
-22.08
-18.93
-16.90
-15.77
-15.07
-14.35
-13.34
-12.04
-10.65
-9.44
-8.62
-8.23
-8.17
-8.19
-8.07
-7.70
-7.06
-6.26
-5.42
-4.59
-3.75
-2.86
-1.90
-0.91
0.01
0.78
1.36
1.73
1.89
1.81
1.50
0.94
0.24
-0.48
-1.05
-1.33
-1.27
-0.96
-0.52
-0.12
0.12
0.17
0.10
-0.04
-0.18
-0.34
-0.54
-0.80
-1.03
-1.12
-0.95
-0.48
0.18
0.83
1.30
1.50
1.45
1.25
0.98
0.66
0.25
-0.25
-0.82
-1.34
-1.73
-1.96
-2.09
-2.19
-2.35
-2.58
-2.84
-3.10
-3.39
-3.75
-4.20
-4.72
-5.25
-5.74
-6.20
-6.71
-7.37
-8.24
-9.31
-10.49
-11.65
-12.74
-13.73
-14.63
-15.46
-16.26
-17.11
-18.18
-19.64
-21.62
-24.06
-26.71
-29.22
-31.32
-32.96
-34.44
-36.19
-38.62
-41.79
-45.39
-48.78
-51.25
-52.29
-51.72
-49.70
-46.64
-43.15
-39.93
-37.76
-37.34
-39.00
-42.54
-47.05
-51.19
-53.50
-52.88
-48.83
-41.58
-31.93
-20.93
-9.70
0.83
10.06
17.61
23.23
26.70
28.03
27.72
26.91
27.12
29.62
34.65
41.14
47.01
50.20
49.65
45.89
40.70
36.14
33.62
33.40
34.78
36.68
38.25
39.00
38.69
37.07
33.74
28.42
21.11
12.28
2.89
-5.97
-13.54
-19.72
-25.10
-30.70
-37.31
-45.10
-53.41
-61.01
-66.84
-70.67
-73.32
-76.41
-81.64
-89.87
-100.62
-111.80
-120.03
-121.29
-111.79
-89.11
-53.16
-6.81
44.52
94.11
135.92
166.35
185.11
194.69
198.76
200.57
201.77
202.49
202.25
200.89
199.15
198.32
199.72
203.87
209.95
215.74
217.95
212.79
196.85
168.12
126.85
76.01
20.95
-31.73
-75.90
-107.52
-125.52
-131.59
-129.10
-121.72
-112.33
-102.72
-93.77
-86.03
-79.96
-75.90
-73.79
-72.87
-71.96
-69.89
-66.07
-60.74
-54.84
-49.56
-45.78
-43.75
-43.01
-42.70
-41.89
-39.98
-36.84
-32.83
-28.59
-24.81
-22.08
-20.67
-20.54
-21.23
-22.09
-22.33
-21.38
-19.12
-15.97
-12.79
-10.59
-10.15
-11.65
-14.60
-17.91
-20.09
-19.58
-15.08
-5.99
7.26
23.11
39.25
53.28
63.66
70.29
74.45
78.10
82.89
89.34
96.76
103.86
109.65
114.14
118.36
123.80
131.39
140.79
149.94
155.38
152.97
139.09
112.02
72.90
25.98
-22.30
-65.05
-97.05
-116.16
-123.49
-122.32
-116.40
-108.52
-100.04
-91.33
-82.60
-74.43
-67.71
-63.07
-60.33
-58.51
-56.21
-52.41
-46.95
-40.56
-34.53
-30.08
-27.81
-27.56
-28.47
-29.43
-29.51
-28.30
-26.03
-23.39
-21.17
-19.87
-19.49
-19.53
-19.27
-18.14
-16.05
-13.34
-10.69
-8.70
-7.66
-7.44
-7.60
-7.66
-7.30
-6.47
-5.32
-4.12
-3.13
-2.45
-2.11
-1.96
-1.83
-1.52
-0.93
-0.08
0.86
1.67
2.16
2.25
2.02
1.61
1.17
0.76
0.39
0.02
-0.34
-0.63
-0.81
-0.88
-0.89
-0.94
-1.13
-1.46
-1.89
-2.32
-2.71
-3.05
-3.39
-3.78
-4.24
-4.75
-5.28
-5.78
-6.26
-6.73
-7.19
-7.64
-8.04
-8.36
-8.57
-8.68
-8.69
-8.64
-8.49
-8.22
-7.75
-7.06
-6.15
-5.10
-3.99
-2.89
-1.86
-0.87
0.12
1.14
2.17
3.11
3.79
4.03
3.69
2.76
1.42
-0.04
-1.20
-1.66
-1.13
0.45
2.92
5.92
9.02
11.84
14.09
15.67
16.59
16.93
16.80
16.32
15.64
14.92
14.37
14.15
14.34
14.91
15.69
16.46
17.05
17.44
17.74
18.21
19.09
20.48
22.26
24.09
25.61
26.59
27.14
27.63
28.59
30.35
32.84
35.56
37.81
39.02
38.96
37.65
35.24
31.78
27.27
21.81
15.89
10.38
6.29
4.42
5.03
7.81
12.18
17.61
23.75
30.22
36.18
40.04
39.80
33.74
21.39
4.10
-15.23
-33.09
-46.66
-54.67
-57.59
-56.98
-54.58
-51.54
-48.29
-44.82
-41.23
-37.86
-35.26
-33.78
-33.35
-33.42
-33.28
-32.35
-30.52
-28.08
-25.57
-23.48
-22.04
-21.18
-20.59
-19.94
-18.98
-17.64
-15.99
-14.16
-12.33
-10.67
-9.34
-8.46
-8.02
-7.89
-7.85
-7.67
-7.22
-6.51
-5.68
-4.88
-4.25
-3.78
-3.42
-3.09
-2.77
-2.49
-2.24
-1.99
-1.63
-1.04
-0.16
0.94
2.14
3.22
4.04
4.50
4.62
4.52
4.34
4.22
4.28
4.55
4.98
5.45
5.77
5.76
5.34
4.53
3.43
2.22
1.05
0.03
-0.85
-1.57
-2.14
-2.54
-2.70
-2.64
-2.45
-2.33
-2.42
-2.79
-3.35
-3.89
-4.21
-4.16
-3.79
-3.23
-2.65
-2.19
-1.84
-1.52
-1.13
-0.58
0.13
0.92
1.70
2.35
2.79
3.02
3.07
3.02
2.93
2.85
2.78
2.72
2.64
2.51
2.29
1.96
1.50
0.90
0.23
-0.44
-1.04
-1.53
-1.94
-2.31
-2.72
-3.22
-3.79
-4.40
-4.95
-5.40
-5.71
-5.94
-6.12
-6.37
-6.75
-7.32
-8.09
-8.97
-9.86
-10.64
-11.24
-11.69
-12.09
-12.57
-13.15
-13.75
-14.27
-14.64
-14.89
-15.08
-15.12
-14.71
-13.37
-10.67
-6.50
-1.31
4.04
8.55
11.43
12.40
11.66
9.70
7.05
4.24
1.87
0.70
1.54
4.99
11.01
18.68
26.46
32.60
35.88
36.03
33.75
30.30
26.94
24.46
23.02
22.30
21.75
20.85
19.25
16.78
13.44
9.39
4.93
0.47
-3.56
-6.80
-9.01
-10.10
-10.14
-9.32
-7.94
-6.33
-4.82
-3.58
-2.64
-1.86
-1.03
0.01
1.29
2.71
4.11
5.36
6.42
7.37
8.26
9.15
10.01
10.82
11.54
12.13
12.49
12.42
11.65
9.88
6.99
3.05
-1.60
-6.49
-11.13
-15.14
-18.30
-20.57
-21.99
-22.68
-22.71
-22.16
-21.10
-19.63
-17.87
-15.96
-14.03
-12.16
-10.40
-8.73
-7.11
-5.47
-3.75
-1.92
0.01
1.97
3.81
5.34
6.37
6.76
6.52
5.76
4.72
3.63
2.64
1.79
