1660749721.00
64.000000
-0.00
-0.00
-0.00
-0.00
-0.00
-0.00
-0.00
-0.00
-0.00
-0.00
0.00
0.01
0.01
-0.00
-0.03
-0.05
-0.05
0.00
0.13
0.36
0.66
1.01
1.37
1.72
2.06
2.40
2.79
3.24
3.80
4.42
5.06
5.66
6.20
6.68
7.15
7.68
8.31
9.14
10.09
11.04
11.88
12.56
13.14
13.76
14.65
15.96
17.91
20.32
22.90
25.38
27.58
29.57
31.68
34.32
37.81
42.54
48.15
54.10
59.83
64.97
69.58
74.14
79.34
85.71
93.76
103.00
112.62
121.73
129.77
136.75
143.30
150.75
157.77
166.64
177.95
191.79
206.97
220.57
228.25
225.36
208.53
176.87
132.76
80.04
23.06
-34.94
-92.42
-149.12
-205.19
-260.36
-313.80
-364.03
-410.11
-451.30
-486.96
-516.22
-537.70
-549.68
-550.42
-538.88
-514.81
-479.39
-434.70
-383.32
-327.88
-270.66
-213.42
-157.48
-103.93
-53.60
-7.42
33.82
69.54
99.50
123.77
142.72
156.91
166.94
173.47
177.04
178.17
177.28
174.71
170.68
165.28
158.60
150.76
142.06
132.93
123.90
115.40
107.59
100.32
93.14
85.54
77.23
68.29
59.20
50.66
43.22
37.11
32.10
27.61
23.02
17.80
11.61
4.32
-3.78
-11.77
-17.95
-20.17
-16.62
-6.79
7.94
24.56
39.48
49.91
54.85
55.07
52.39
48.54
44.43
40.21
35.74
31.14
27.00
24.00
22.50
22.24
22.40
22.04
20.53
17.82
14.38
10.99
8.35
6.96
6.95
8.01
9.54
10.72
10.86
9.60
7.15
4.13
1.38
-0.48
-1.35
-1.56
-1.69
-2.09
-2.78
-3.43
-3.66
-3.39
-2.84
-2.47
-2.57
-3.10
-3.70
-3.85
-3.23
-1.92
-0.35
0.96
1.58
1.44
0.76
-0.11
-0.90
-1.43
-1.72
-1.80
-1.72
-1.47
-1.04
-0.43
0.28
1.01
1.66
2.21
2.69
3.22
3.91
4.79
5.86
7.01
8.14
9.15
10.02
10.73
11.25
11.52
11.47
11.01
10.14
8.90
7.36
5.63
3.64
1.36
-1.23
-4.04
-6.93
-9.61
-11.78
-13.14
-13.57
-13.14
-12.09
-10.80
-9.60
-8.75
-8.32
-8.21
-8.25
-8.26
-8.14
-7.88
-7.56
-7.26
-7.03
-6.80
-6.48
-6.02
-5.44
-4.86
-4.40
-4.13
-4.03
-3.97
-3.84
-3.56
-3.20
-2.86
-2.66
-2.64
-2.73
-2.81
-2.80
-2.66
-2.43
-2.22
-2.11
-2.15
-2.28
-2.43
-2.52
-2.57
-2.67
-2.93
-3.40
-4.00
-4.55
-4.73
-4.27
-3.04
-1.16
1.08
3.32
5.27
6.79
7.79
8.32
8.50
8.41
8.08
7.50
6.71
5.77
4.82
3.95
3.23
2.68
2.31
2.13
2.14
2.27
2.43
2.49
2.39
2.14
1.84
1.53
1.18
0.69
-0.01
-0.88
-1.81
-2.66
-3.33
-3.85
-4.33
-4.86
-5.45
-6.04
-6.52
-6.87
-7.19
-7.63
-8.34
-9.34
-10.48
-11.54
-12.30
-12.60
-12.34
-11.48
-9.95
-7.74
-4.93
-1.73
1.46
4.20
6.13
7.15
7.40
7.23
7.00
6.95
7.13
7.43
7.64
7.57
7.13
6.35
5.39
4.45
3.76
3.39
3.33
3.38
3.34
3.08
2.58
1.97
1.42
1.07
0.94
0.92
0.87
0.65
0.24
-0.31
-0.89
-1.44
-1.96
-2.48
-3.06
-3.65
-4.18
-4.59
-4.85
-5.07
-5.43
-6.05
-6.89
-7.73
-8.16
-7.82
-6.50
-4.28
-1.51
1.31
3.74
5.51
6.60
7.18
7.45
7.58
7.57
7.38
7.00
6.50
6.03
5.75
5.75
6.00
6.35
6.66
6.82
6.83
6.72
6.58
6.40
6.14
5.74
5.16
4.42
3.61
2.82
2.10
1.44
0.76
-0.03
-0.99
-2.13
-3.35
-4.51
-5.48
-6.19
-6.70
-7.15
-7.72
-8.53
-9.61
-10.83
-12.03
-12.96
-13.37
-12.99
-11.66
-9.35
-6.28
-2.84
0.45
3.17
5.10
6.22
6.71
6.76
6.54
6.14
5.62
5.03
4.41
3.79
3.13
2.42
1.71
1.16
1.05
1.66
3.14
5.38
8.02
10.53
12.35
13.08
12.59
11.06
8.83
6.39
4.10
2.13
0.48
-1.00
-2.46
-3.96
-5.43
-6.77
-7.85
-8.66
-9.23
-9.67
-10.04
-10.37
-10.68
-11.04
-11.56
-12.29
-13.13
-13.76
-13.75
-12.68
-10.46
-7.37
-4.00
-0.99
1.20
2.51
3.19
3.62
4.08
4.66
5.27
5.81
6.25
6.68
7.22
7.93
8.75
9.48
9.90
9.85
9.32
8.46
7.49
6.66
6.11
5.86
5.77
5.64
5.32
4.76
4.04
3.25
2.41
1.41
0.10
-1.57
-3.47
-5.30
-6.75
-7.65
-8.08
-8.35
-8.81
-9.68
-10.98
-12.49
-13.85
-14.72
-14.81
-13.98
-12.23
-9.74
-6.84
-3.88
-1.20
1.00
2.64
3.73
4.31
4.45
4.26
3.92
3.62
3.54
3.72
4.04
4.28
4.28
4.01
3.62
3.35
3.40
3.77
4.34
4.85
5.10
5.03
4.67
4.14
3.47
2.63
1.55
0.23
-1.19
-2.50
-3.46
-3.95
-4.07
-4.05
-4.21
-4.73
-5.70
-7.01
-8.49
-9.86
-10.82
-11.05
-10.30
-8.47
-5.71
-2.44
0.83
3.62
5.64
6.84
7.39
7.51
7.37
7.04
6.49
5.70
4.72
3.65
2.65
1.86
1.33
1.03
0.89
0.87
1.00
1.35
1.95
2.70
3.39
3.76
3.59
2.85
1.66
0.28
-1.01
-2.01
-2.67
-3.00
-3.09
-3.03
-2.91
-2.92
-3.24
-4.08
-5.48
-7.21
-8.74
-9.43
-8.74
-6.52
-3.07
0.95
4.80
7.92
10.11
11.47
12.27
12.81
13.25
13.62
13.86
13.90
13.79
13.72
13.90
14.45
15.34
16.36
17.22
17.73
17.84
17.73
17.68
17.92
18.59
19.94
22.37
26.22
31.43
37.18
41.95
44.02
41.95
35.28
24.70
11.76
-1.83
-14.73
-25.96
-34.64
-39.83
-41.27
-39.52
-35.80
-31.44
-27.29
-23.45
-19.34
-14.16
-7.40
0.14
7.12
12.61
16.75
20.49
24.50
28.61
31.85
33.19
31.11
24.51
13.07
-2.73
-22.13
-44.72
-70.23
-98.18
-121.41
-132.27
-126.75
-107.67
-82.20
-56.78
-34.72
-16.51
-1.30
12.25
24.07
33.23
38.97
41.54
42.17
42.34
43.19
45.14
48.49
52.34
55.27
56.10
54.46
50.78
45.80
40.24
33.86
27.40
20.64
12.89
3.44
-7.95
-20.91
-34.68
-46.33
-55.70
-62.43
-66.68
-69.13
-70.63
-71.93
-73.48
-75.59
-78.53
-82.69
-87.44
-91.45
-92.60
-88.62
-78.27
-62.10
-42.57
-23.11
-6.98
4.56
12.04
16.78
20.72
24.66
28.48
31.64
33.86
35.16
36.02
36.81
37.50
37.80
37.34
35.91
33.66
31.04
28.48
26.39
24.98
24.10
23.40
22.28
20.24
17.09
13.12
8.89
5.09
2.18
0.22
-1.11
-2.39
-4.07
-6.30
-8.83
-11.27
-13.32
-14.88
-16.02
-16.89
-17.53
-17.74
-17.74
-17.49
-16.99
-16.41
-15.99
-15.96
-16.40
-17.21
-18.14
-18.93
-19.31
-19.25
-18.95
-18.72
-18.94
-19.84
-21.47
-23.62
-25.91
-27.82
-28.89
-28.82
-27.49
-24.98
-21.49
-17.31
-12.84
-8.53
-4.77
-1.85
0.10
1.15
1.46
1.21
0.59
-0.22
-0.92
-1.17
-0.66
0.72
2.78
5.10
7.14
8.37
8.40
7.06
4.43
0.97
-2.57
-5.31
-6.52
-5.92
-3.84
-1.07
1.54
3.35
4.18
4.12
3.39
2.12
0.39
-1.66
-3.83
-5.86
-7.59
-9.11
-10.62
-12.30
-14.05
-15.55
-16.35
-16.11
-14.80
-12.51
-9.45
-5.65
-1.10
4.17
9.96
15.78
20.96
24.78
26.70
26.47
24.24
20.51
16.11
12.02
9.19
8.22
9.19
11.52
14.19
15.99
15.93
13.51
8.83
2.57
-4.37
-11.08
-16.94
-21.85
-26.06
-30.05
-34.22
-38.64
-43.02
-46.85
-49.54
-50.62
-49.74
-46.69
-41.40
-34.06
-25.33
-16.36
-8.57
-3.12
-0.32
0.68
1.69
4.69
10.95
20.40
31.60
42.43
50.97
56.23
58.36
58.24
56.88
54.95
52.64
49.93
46.87
43.74
40.99
38.95
37.61
36.63
35.50
33.81
31.46
28.68
25.99
23.93
22.89
22.96
23.79
24.64
24.65
23.10
19.76
15.10
10.17
6.22
4.18
4.24
5.66
7.12
7.23
5.16
1.00
-4.36
-9.52
-13.17
-14.56
-13.59
-10.80
-7.03
-3.13
0.21
2.60
3.87
4.06
3.33
1.99
0.51
-0.48
-0.35
1.30
4.33
7.92
10.86
11.97
10.81
7.97
4.90
3.32
4.41
8.23
13.75
19.32
23.42
25.17
24.52
22.03
18.43
14.37
10.35
6.72
3.77
1.72
0.53
-0.15
-0.91
-2.31
-4.62
-7.53
-10.22
-11.60
-10.71
-7.16
-1.31
5.74
12.51
17.56
20.10
20.26
19.09
18.02
18.20
19.93
22.53
24.72
25.33
23.95
21.04
17.71
14.99
13.36
12.58
11.96
10.86
8.97
6.38
3.39
0.24
-3.00
-6.28
-9.47
-12.23
-14.02
-14.33
-12.94
-10.04
-6.34
-2.86
-0.69
-0.57
-2.62
-6.20
-9.98
-12.43
-12.21
-8.70
-2.14
6.48
15.85
24.73
32.25
38.02
41.98
44.21
44.80
43.82
41.43
37.87
33.47
28.51
23.20
17.61
11.91
6.45
1.81
-1.28
-2.31
-1.18
1.64
5.22
8.49
10.50
10.64
8.75
5.12
0.46
-4.30
-8.16
-10.43
-10.98
-10.35
-9.56
-9.66
-11.19
-14.01
-17.36
-20.21
-21.79
-21.77
-20.29
-17.73
-14.52
-10.99
-7.51
-4.47
-2.27
-1.11
-0.90
-1.19
-1.32
-0.59
1.51
5.21
10.42
16.71
23.28
29.12
33.19
34.74
33.65
30.62
27.00
24.31
23.67
25.27
28.35
31.47
33.20
32.63
29.76
25.37
20.68
16.83
14.59
14.22
15.52
17.83
20.13
21.14
19.67
15.01
7.34
-2.23
-11.95
-20.04
-25.24
-27.08
-25.86
-22.36
-17.53
-12.36
-7.78
-4.58
-3.23
-3.65
-5.19
-6.86
-7.78
-7.64
-6.84
-6.25
-6.71
-8.52
-11.30
-14.19
-16.38
-17.53
-17.94
-18.23
-18.99
-20.36
-22.07
-23.66
-24.75
-25.19
-24.99
-24.21
-22.99
-21.60
-20.49
-20.12
-20.56
-21.09
-20.31
-16.59
-9.00
2.03
14.64
26.21
34.43
38.22
37.97
35.11
31.32
27.73
24.71
22.00
19.17
16.01
12.67
9.54
6.93
4.88
3.11
1.30
-0.63
-2.32
-3.13
-2.55
-0.59
2.04
4.15
4.67
3.19
0.23
-2.98
-5.18
-5.76
-5.09
-4.31
-4.72
-7.04
-11.07
-15.85
-20.14
-22.97
-23.99
-23.39
-21.61
-19.04
-15.89
-12.30
-8.50
-4.90
-1.92
0.15
1.32
1.92
2.45
3.34
4.82
6.84
9.16
11.44
13.52
15.39
17.37
19.85
23.18
27.39
32.10
36.57
39.92
41.41
40.64
37.56
32.44
25.73
17.96
9.76
1.77
-5.37
-11.21
-15.60
-18.75
-21.15
-23.32
-25.57
-27.92
-30.08
-31.66
-32.33
-31.91
-30.44
-28.03
-24.89
-21.23
-17.35
-13.63
-10.46
-8.18
-6.95
-6.77
-7.44
-8.69
-10.23
-11.80
-13.22
-14.38
-15.23
-15.83
-16.30
-16.82
-17.56
-18.64
-20.07
-21.72
-23.36
-24.73
-25.66
-26.18
-26.49
-26.90
-27.71
-29.08
-30.91
-32.90
-34.68
-35.90
-36.38
-36.14
-35.34
-34.15
-32.58
-30.44
-27.32
-22.78
-16.54
-8.62
0.58
10.37
19.99
28.80
36.42
42.65
47.40
50.55
51.98
51.55
49.30
45.44
40.38
34.61
28.57
22.62
17.10
12.36
8.80
6.81
6.65
8.28
11.31
15.04
18.66
21.48
23.11
23.49
22.84
21.43
19.44
16.84
13.49
9.33
4.52
-0.46
-4.97
-8.32
-10.02
-9.86
-7.86
-4.17
0.98
7.30
14.36
21.54
28.08
33.19
36.29
37.16
36.02
33.39
29.95
26.33
22.92
19.79
16.73
13.39
9.41
4.61
-0.92
-6.83
-12.63
-17.83
-22.07
-25.21
-27.36
-28.80
-29.85
-30.79
-31.75
-32.69
-33.42
-33.73
-33.41
-32.35
-30.49
-27.87
-24.56
-20.75
-16.77
-13.03
-9.97
-7.93
-6.94
-6.69
-6.65
-6.20
-4.91
-2.69
0.29
3.61
6.86
9.77
12.21
14.16
15.62
16.52
16.77
16.28
15.03
13.15
10.86
8.41
6.12
4.20
2.78
1.90
1.54
1.65
2.22
3.23
4.59
6.12
7.45
8.24
8.23
7.42
6.02
4.33
2.59
0.87
-0.91
-2.83
-4.88
-6.92
-8.75
-10.23
-11.39
-12.38
-13.43
-14.66
-16.12
-17.69
-19.18
-20.32
-20.88
-20.67
-19.67
-18.00
-15.91
-13.73
-11.68
-9.89
-8.33
-6.85
-5.33
-3.65
-1.83
0.08
1.95
3.63
4.98
5.80
5.96
5.43
4.30
2.83
1.30
-0.03
-0.98
-1.53
-1.74
-1.74
-1.70
-1.80
-2.24
-3.11
-4.41
-5.96
-7.47
-8.61
-9.14
-8.97
-8.21
-7.12
-6.00
-5.12
-4.65
-4.59
-4.78
-4.98
-4.93
-4.44
-3.48
-2.18
-0.78
0.52
1.57
2.32
2.79
2.99
2.87
2.37
1.48
0.27
-1.00
-2.03
-2.58
-2.55
-2.08
-1.45
-0.95
-0.71
-0.67
-0.67
-0.54
-0.26
-0.03
-0.09
-0.69
-1.86
-3.44
-5.14
-6.69
-7.97
-9.02
-9.99
-11.00
-12.10
-13.18
-14.04
-14.44
-14.13
-12.89
-10.57
-7.22
-3.04
1.47
5.65
8.78
10.36
10.21
8.60
6.20
3.83
2.30
2.11
3.40
5.91
9.08
12.26
14.87
16.49
16.92
16.15
14.30
11.62
8.40
4.98
1.67
-1.32
-3.87
-5.91
-7.46
-8.52
-9.14
-9.35
-9.22
-8.78
-8.05
-7.11
-6.21
-5.77
-6.41
-8.68
-12.80
-18.44
-24.71
-30.42
-34.46
-36.14
-35.38
-32.60
-28.51
-23.83
-19.12
-14.73
-10.87
-7.63
-5.08
-3.20
-1.92
-1.10
-0.54
-0.10
0.33
0.75
1.13
1.43
1.62
1.75
1.85
2.00
2.22
2.48
2.73
2.85
2.73
2.31
1.57
0.55
-0.63
-1.84
-2.93
-3.79
-4.35
-4.61
-4.63
-4.53
-4.47
-4.61
-5.12
-6.03
-7.23
-8.42
-9.12
-8.92
-7.62
-5.35
-2.55
0.19
2.40
3.88
4.73
5.20
5.50
5.66
5.66
5.41
4.96
4.46
4.04
3.77
3.57
3.28
2.73
1.88
0.83
-0.23
-1.08
-1.54
-1.57
-1.23
-0.68
-0.12
0.27
0.40
0.28
0.03
-0.24
-0.40
-0.45
-0.47
-0.59
-0.90
-1.44
-2.16
-2.91
-3.53
-3.76
-3.36
-2.14
0.03
3.06
6.68
10.44
13.84
16.48
18.13
18.83
18.75
18.17
17.39
16.62
16.00
15.53
15.12
14.67
14.06
13.22
12.18
10.96
9.64
8.31
7.08
6.11
5.52
5.34
5.41
5.42
4.96
3.73
1.69
-0.90
-3.59
-5.87
-7.43
-8.27
-8.70
-9.17
-10.08
-11.63
-13.72
-15.94
-17.70
-18.39
-17.53
-14.94
-10.81
-5.71
-0.43
4.22
7.65
9.65
10.37
10.27
9.86
9.54
9.48
9.61
9.68
9.38
8.47
6.88
4.75
2.43
0.33
-1.20
-2.00
-2.12
-1.75
-1.09
-0.32
0.47
1.21
1.82
2.20
2.23
1.82
0.95
-0.36
-2.01
-3.88
-5.83
-7.72
-9.45
-11.02
-12.51
-14.05
-15.67
-17.21
-18.31
-18.48
-17.28
-14.54
-10.49
-5.65
-0.66
3.91
7.73
10.68
12.75
13.99
14.45
14.24
13.58
12.76
12.06
11.65
11.49
11.43
11.22
10.67
9.68
8.27
6.57
4.77
3.08
1.71
0.78
0.28
0.03
-0.21
-0.72
-1.69
-3.14
-4.88
-6.60
-7.97
-8.81
-9.14
-9.21
-9.38
-9.96
-11.10
-12.77
-14.76
-16.70
-18.19
-18.78
-18.11
-16.06
-12.75
-8.66
-4.45
-0.77
1.99
3.76
4.78
5.40
5.90
6.38
6.79
6.97
6.80
6.26
5.38
4.23
2.88
1.36
-0.23
-1.70
-2.73
-2.98
-2.25
-0.62
1.48
3.38
4.43
4.29
3.11
1.40
-0.18
-1.22
-1.71
-2.03
-2.71
-4.18
-6.54
-9.57
-12.82
-15.70
-17.66
-18.25
-17.22
-14.60
-10.69
-6.08
-1.42
2.66
5.83
7.99
9.31
10.07
10.60
11.14
11.82
12.62
13.40
13.96
14.13
13.88
13.28
12.51
11.69
10.83
9.85
8.68
7.30
5.83
4.44
3.24
2.18
1.05
-0.41
-2.36
-4.77
-7.42
-9.91
-11.85
-13.01
-13.39
-13.24
-13.01
-13.14
-13.91
-15.31
-17.01
-18.40
-18.89
-18.03
-15.76
-12.38
-8.45
-4.57
-1.19
1.51
3.58
5.14
6.33
7.20
7.78
8.17
8.51
8.98
9.65
10.45
11.17
11.61
11.67
11.40
10.99
10.63
10.44
10.39
10.42
10.47
10.48
10.42
10.22
9.80
9.08
8.07
6.88
5.65
4.50
3.46
2.51
1.55
0.50
-0.70
-2.05
-3.46
-4.69
-5.35
-5.02
-3.37
-0.36
3.71
8.22
12.43
15.72
17.82
18.81
19.02
18.88
18.68
18.49
18.19
17.59
16.61
15.36
14.11
13.12
12.47
12.00
11.41
10.44
9.08
7.57
6.26
5.40
4.98
4.72
4.25
3.34
1.98
0.41
-1.12
-2.46
-3.68
-5.02
-6.70
-8.84
-11.35
-13.88
-15.99
-17.16
-17.00
-15.34
-12.33
-8.36
-4.05
0.02
3.38
5.79
7.19
7.68
7.43
6.64
5.58
4.50
3.66
3.19
3.06
3.13
3.15
2.87
2.17
1.08
-0.22
-1.48
-2.49
-3.11
-3.37
-3.40
-3.43
-3.60
-4.05
-4.81
-5.84
-7.07
-8.42
-9.77
-11.07
-12.29
-13.54
-14.97
-16.74
-18.87
-21.17
-23.25
-24.59
-24.68
-23.24
-20.32
-16.34
-11.92
-7.71
-4.18
-1.47
0.49
1.89
2.85
3.37
3.44
3.11
2.56
2.09
1.93
2.12
2.53
2.87
2.88
2.52
1.91
1.35
1.12
1.33
1.93
2.64
3.17
3.25
2.77
1.75
0.33
-1.31
-3.02
-4.72
-6.36
-7.87
-9.20
-10.29
-11.14
-11.83
-12.53
-13.36
-14.30
-15.12
-15.40
-14.67
-12.66
-9.47
-5.54
-1.53
1.93
4.47
6.12
7.14
7.91
8.66
9.44
10.12
10.54
10.63
10.47
10.29
10.33
10.74
11.51
12.41
13.11
13.36
13.12
12.56
12.03
11.78
11.88
12.09
11.99
11.26
9.81
7.92
6.05
4.60
3.71
3.12
2.41
1.16
-0.79
-3.34
-6.17
-8.97
-11.43
-13.29
-14.22
-13.91
-12.12
-8.88
-4.58
0.05
4.21
7.28
9.01
9.54
9.26
8.62
7.95
7.37
6.81
6.16
5.30
4.24
3.13
2.18
1.54
1.28
1.26
1.30
1.21
0.96
0.63
0.38
0.30
0.37
0.42
0.23
-0.38
-1.47
-2.93
-4.51
-5.95
-6.99
-7.56
-7.73
-7.72
-7.82
-8.30
-9.32
-10.95
-13.08
-15.44
-17.61
-19.06
-19.29
-17.93
-14.98
-10.77
-5.98
-1.39
2.35
4.92
6.42
7.25
7.88
8.62
9.50
10.32
10.78
10.68
10.03
9.05
8.06
7.29
6.83
6.60
6.46
6.25
5.92
5.44
4.85
4.14
3.31
2.35
1.27
0.10
-1.09
-2.19
-3.11
-3.81
-4.28
-4.59
-4.87
-5.27
-5.89
-6.72
-7.65
-8.53
-9.25
-9.87
-10.61
-11.69
-13.17
-14.79
-15.95
-16.00
-14.47
-11.34
-7.11
-2.57
1.48
4.47
6.28
7.11
7.32
7.24
7.06
6.83
6.58
6.34
6.26
6.43
6.87
7.44
7.90
8.02
7.71
7.07
6.29
5.56
5.01
4.63
4.36
4.11
3.84
3.49
3.02
2.37
1.52
0.52
-0.55
-1.58
-2.52
-3.32
-3.99
-4.51
-4.91
-5.29
-5.84
-6.79
-8.27
-10.21
-12.26
-13.85
-14.42
-13.58
-11.32
-7.97
-4.11
-0.29
3.05
5.76
7.85
9.43
10.58
11.30
11.61
11.53
11.20
10.77
10.37
10.03
9.72
9.38
9.03
8.75
8.61
8.63
8.70
8.65
8.34
7.70
6.83
5.89
4.98
4.10
3.09
1.71
-0.21
-2.64
-5.33
-7.88
-9.94
-11.30
-12.01
-12.29
-12.45
-12.76
-13.40
-14.44
-15.81
-17.28
-18.45
-18.84
-18.05
-15.92
-12.65
-8.72
-4.74
-1.22
1.54
3.48
4.68
5.32
5.51
5.39
5.09
4.74
4.48
4.35
4.35
4.37
4.35
4.22
4.00
3.75
3.56
3.49
3.55
3.66
3.73
3.63
3.34
2.90
2.45
2.07
1.78
1.46
0.93
0.05
-1.21
-2.70
-4.19
-5.48
-6.50
-7.32
-8.09
-8.90
-9.79
-10.78
-11.82
-12.90
-13.89
-14.60
-14.68
-13.83
-11.84
-8.78
-5.03
-1.15
2.26
4.79
6.30
6.89
6.85
6.52
6.15
5.85
5.64
5.45
5.22
4.93
4.63
4.41
4.33
4.38
4.49
4.54
4.42
4.11
3.69
3.29
3.02
2.83
2.61
2.16
1.41
0.39
-0.71
-1.67
-2.34
-2.70
-2.86
-2.97
-3.18
-3.59
-4.22
-5.07
-6.06
-7.15
-8.28
-9.41
-10.46
-11.29
-11.65
-11.25
-9.88
-7.53
-4.48
-1.21
1.77
4.11
5.75
6.88
7.75
8.52
9.15
9.50
9.46
9.05
8.48
8.06
8.04
8.46
9.17
9.91
10.43
10.59
10.43
10.07
9.62
9.12
8.52
7.72
6.67
5.37
3.92
2.45
1.04
-0.26
-1.48
-2.67
-3.89
-5.18
-6.54
-7.97
-9.45
-10.97
-12.54
-14.17
-15.79
-17.22
-18.13
-18.11
-16.88
-14.36
-10.81
-6.81
-2.99
0.13
2.32
3.70
4.52
5.04
5.41
5.59
5.55
5.31
5.01
4.83
4.92
5.33
5.89
6.39
6.63
6.58
6.37
6.20
6.27
6.62
7.10
7.46
7.46
7.00
6.17
5.18
4.22
3.40
2.65
1.86
0.90
-0.25
-1.48
-2.62
-3.54
-4.23
-4.83
-5.58
-6.71
-8.30
-10.23
-12.15
-13.58
-14.03
-13.21
-11.06
-7.84
-4.01
-0.14
3.27
5.82
7.38
8.00
7.90
7.42
6.86
6.43
6.26
6.31
6.44
6.46
6.22
5.66
4.90
4.15
3.65
3.56
3.83
4.28
4.62
4.61
4.15
3.31
2.28
1.22
0.23
-0.72
-1.70
-2.76
-3.91
-5.07
-6.13
-7.04
-7.80
-8.41
-8.89
-9.21
-9.33
-9.30
-9.27
-9.42
-9.85
-10.44
-10.85
-10.63
-9.38
-6.99
-3.69
0.03
3.54
6.33
8.14
9.04
9.30
9.25
9.17
9.13
9.08
8.89
8.49
7.92
7.34
6.88
6.62
6.51
6.41
6.25
6.03
5.85
5.89
6.23
6.84
7.50
7.89
7.77
7.00
5.67
4.00
2.29
0.73
-0.54
-1.51
-2.27
-2.92
-3.58
-4.34
-5.27
-6.43
-7.83
-9.43
-11.07
-12.49
-13.32
-13.15
-11.71
-8.98
-5.29
-1.26
2.39
5.14
6.78
7.49
7.67
7.66
7.63
7.49
7.04
6.16
4.93
3.65
2.63
2.08
1.99
2.18
2.46
2.72
3.01
3.40
3.92
4.46
4.77
4.61
3.87
2.64
1.13
-0.38
-1.72
-2.80
-3.66
-4.40
-5.13
-5.88
-6.64
-7.32
-7.80
-8.05
-8.10
-8.13
-8.39
-9.09
-10.33
-11.99
-13.67
-14.84
-14.92
-13.58
-10.82
-7.06
-2.97
0.78
3.72
5.73
7.01
7.84
8.46
8.95
9.28
9.41
9.38
9.28
9.22
9.16
8.99
8.59
7.91
7.06
6.26
5.72
5.50
5.45
5.31
4.82
3.90
2.68
1.41
0.34
-0.42
-0.95
-1.47
-2.13
-2.96
-3.84
-4.57
-5.01
-5.22
-5.39
-5.76
-6.43
-7.33
-8.28
-9.14
-9.90
-10.68
-11.58
-12.50
-13.03
-12.60
-10.80
-7.60
-3.46
0.86
4.62
7.39
9.14
10.14
10.76
11.25
11.69
12.05
12.23
12.18
11.92
11.52
11.07
10.67
10.34
10.09
9.86
9.61
9.31
8.92
8.43
7.79
6.95
5.88
4.64
3.34
2.10
1.03
0.15
-0.61
-1.33
-2.10
-2.99
-3.99
-5.08
-6.21
-7.30
-8.34
-9.35
-10.46
-11.80
-13.44
-15.27
-16.95
-17.92
-17.61
-15.67
-12.17
-7.66
-2.96
1.12
4.07
5.87
6.86
7.49
8.02
8.48
8.68
8.51
8.04
7.46
7.02
6.79
6.64
6.37
5.83
5.10
4.39
3.95
3.92
4.24
4.68
4.97
4.89
4.38
3.46
2.26
0.93
-0.38
-1.57
-2.58
-3.40
-4.10
-4.74
-5.42
-6.18
-7.03
-7.95
-8.89
-9.81
-10.65
-11.38
-11.99
-12.56
-13.19
-14.00
-14.94
-15.77
-16.01
-15.12
-12.78
-9.04
-4.48
0.06
3.74
6.09
7.15
7.39
7.36
7.44
7.67
7.87
7.79
7.37
6.78
6.29
6.12
6.28
6.56
6.67
6.45
5.94
5.36
4.96
4.86
4.97
5.07
4.93
4.42
3.61
2.63
1.68
0.85
0.14
-0.55
-1.32
-2.24
-3.28
-4.32
-5.19
-5.78
-6.08
-6.20
-6.37
-6.77
-7.47
-8.48
-9.67
-10.93
-12.14
-13.18
-13.83
-13.83
-12.87
-10.79
-7.71
-4.00
-0.21
3.12
5.62
7.23
8.12
8.59
8.93
9.27
9.61
9.87
9.95
9.83
9.59
9.32
9.16
9.17
9.36
9.69
10.02
10.24
10.27
10.10
9.81
9.50
9.18
8.82
8.28
7.45
6.28
4.90
3.48
2.15
0.94
-0.25
-1.54
-2.95
-4.36
-5.58
-6.50
-7.19
-7.93
-9.04
-10.72
-12.94
-15.40
-17.56
-18.82
-18.71
-16.97
-13.69
-9.33
-4.62
-0.31
3.00
5.09
6.11
6.44
6.43
6.33
6.23
6.14
6.07
6.08
6.22
6.44
6.62
6.62
6.35
5.84
5.25
4.73
4.43
4.35
4.43
4.48
4.30
3.76
2.85
1.76
0.70
-0.10
-0.60
-0.91
-1.22
-1.77
-2.63
-3.81
-5.13
-6.43
-7.53
-8.36
-8.93
-9.37
-9.79
-10.36
-11.17
-12.24
-13.47
-14.67
-15.52
-15.62
-14.66
-12.44
-9.11
-5.11
-1.14
2.17
4.43
5.68
6.27
6.69
7.25
8.02
8.79
9.30
9.38
9.07
8.53
7.98
7.57
7.32
7.13
6.90
6.62
6.34
6.19
6.23
6.35
6.34
5.95
5.01
3.60
1.99
0.55
-0.44
-0.94
-1.16
-1.46
-2.17
-3.41
-5.08
-6.85
-8.36
-9.35
-9.81
-9.91
-9.97
-10.28
-11.03
-12.25
-13.84
-15.58
-17.17
-18.23
-18.34
-17.17
-14.61
-10.90
-6.62
-2.48
0.93
3.30
4.66
5.31
5.61
5.82
6.06
6.32
6.53
6.65
6.63
6.46
6.17
5.79
5.43
5.15
4.98
4.89
4.79
4.61
4.30
3.92
3.52
3.15
2.78
2.39
1.91
1.32
0.65
-0.05
-0.73
-1.37
-1.97
-2.55
-3.15
-3.76
-4.43
-5.14
-5.89
-6.69
-7.59
-8.66
-9.92
-11.22
-12.21
-12.39
-11.30
-8.78
-5.11
-0.91
3.03
6.11
8.07
9.07
9.47
9.66
9.88
10.14
10.35
10.33
10.03
9.48
8.85
8.34
8.08
8.07
8.12
8.01
7.52
6.60
5.37
3.99
2.66
1.47
0.44
-0.43
-1.10
-1.51
-1.64
-1.56
-1.45
-1.56
-2.07
-3.03
-4.32
-5.71
-7.04
-8.27
-9.59
-11.21
-13.27
-15.62
-17.80
-19.15
-19.07
-17.28
-13.96
-9.69
-5.26
-1.42
1.43
3.23
4.24
4.80
5.23
5.66
6.09
6.44
6.65
6.71
6.66
6.53
6.27
5.85
5.31
4.79
4.49
4.57
5.05
5.74
6.31
6.39
5.75
4.43
2.72
1.09
-0.01
-0.34
0.02
0.70
1.20
1.16
0.44
-0.77
-2.13
-3.34
-4.26
-5.01
-5.84
-6.97
-8.46
-10.22
-12.01
-13.57
-14.63
-14.95
-14.36
-12.75
-10.12
-6.68
-2.80
0.98
4.15
6.37
7.63
8.20
8.54
9.06
9.98
11.21
12.51
13.56
14.20
14.49
14.64
14.88
15.36
16.07
16.86
17.58
18.16
18.66
19.16
19.78
20.55
21.40
22.17
22.65
22.59
21.76
19.91
16.91
12.78
7.76
2.30
-3.08
-7.87
-11.77
-14.69
-16.78
-18.24
-19.33
-20.26
-21.19
-22.29
-23.66
-25.34
-27.18
-28.81
-29.74
-29.50
-27.88
-25.01
-21.36
-17.58
-14.23
-11.65
-9.89
-8.81
-8.19
-7.80
-7.49
-7.12
-6.61
-5.92
-5.12
-4.36
-3.91
-4.02
-4.92
-6.65
-9.00
-11.45
-13.31
-13.94
-13.01
-10.78
-7.96
-5.48
-4.02
-3.72
-4.13
-4.44
-3.99
-2.49
-0.16
2.50
5.08
7.48
9.89
12.59
15.72
19.15
22.58
25.72
28.48
31.05
33.83
37.30
41.79
47.41
53.87
60.56
66.51
70.63
71.83
69.33
62.86
52.72
39.81
25.49
11.34
-1.07
-10.47
-16.11
-17.97
-16.72
-13.66
-10.33
-8.20
-8.28
-10.94
-15.93
-22.51
-29.72
-36.58
-42.25
-46.07
-47.68
-46.99
-44.28
-40.11
-35.18
-30.18
-25.57
-21.56
-18.17
-15.40
-13.26
-11.81
-11.04
-10.76
-10.61
-10.13
-8.97
-7.00
-4.42
-1.71
0.58
1.91
1.99
0.82
-1.24
-3.62
-5.67
-6.87
-6.92
-5.83
-3.82
-1.21
1.65
4.48
7.03
9.15
10.76
11.90
12.73
13.41
14.11
14.88
15.65
16.29
16.68
16.75
16.57
16.26
15.94
15.69
15.50
15.35
15.21
15.15
15.29
15.73
16.50
17.39
18.09
18.19
17.36
15.47
12.57
8.84
4.51
-0.18
-5.01
-9.71
-14.03
-17.70
-20.56
-22.54
-23.76
-24.40
-24.69
-24.79
-24.79
-24.72
-24.60
-24.41
-24.11
-23.59
-22.76
-21.49
-19.77
-17.67
-15.36
-13.02
-10.81
-8.84
-7.14
-5.73
-4.62
-3.82
-3.32
-3.08
-3.04
-3.14
-3.34
-3.58
-3.83
-4.06
-4.23
-4.30
-4.22
-3.93
-3.43
-2.77
-2.08
-1.52
-1.25
-1.34
-1.73
-2.23
-2.56
-2.45
-1.69
-0.22
1.87
4.42
7.21
9.98
12.54
14.68
16.25
17.17
17.43
17.09
16.30
15.24
14.19
13.47
13.39
14.24
16.13
18.94
22.32
25.79
28.90
31.33
33.01
34.02
34.55
34.77
34.71
34.27
33.23
31.37
28.58
24.96
20.81
16.52
12.49
8.94
5.96
3.53
1.58
0.09
-0.97
-1.65
-2.06
-2.30
-2.51
-2.70
-2.86
-2.96
-2.98
-2.97
-3.03
-3.35
-4.07
-5.35
-7.24
-9.63
-12.32
-15.10
-17.78
-20.29
-22.70
-25.06
-27.28
-29.02
-29.72
-28.83
-25.99
-21.38
-15.63
-9.80
-4.90
-1.63
-0.08
0.18
-0.13
-0.39
-0.29
0.11
0.54
0.75
0.67
0.48
0.40
0.67
1.34
2.32
3.46
4.56
5.51
6.32
7.09
7.94
8.94
10.08
11.18
12.06
12.54
12.54
12.07
11.13
9.63
7.36
4.12
-0.14
-5.16
-10.36
-15.06
-18.74
-21.19
-22.57
-23.24
-23.53
-23.54
-23.12
-21.95
-19.76
-16.48
-12.29
-7.61
-2.95
1.22
4.58
7.06
8.69
9.63
9.94
9.65
8.80
7.49
5.94
4.44
3.21
2.33
1.70
1.11
0.42
-0.39
-1.23
-1.91
-2.28
-2.26
-1.90
-1.36
-0.88
-0.68
-0.91
-1.60
-2.64
-3.81
-4.92
-5.79
-6.29
-6.33
-5.84
-4.77
-3.19
-1.31
0.52
1.94
2.70
2.79
2.48
2.24
2.47
3.39
4.88
6.56
7.97
8.76
8.75
8.01
6.66
4.79
2.45
-0.30
-3.32
-6.36
-9.16
-11.52
-13.42
-14.97
-16.33
-17.60
-18.73
-19.57
-19.92
-19.62
-18.66
-17.13
-15.25
-13.29
-11.47
-9.90
-8.60
-7.46
-6.40
-5.38
-4.41
-3.56
-2.89
-2.38
-1.99
-1.70
-1.49
-1.38
-1.34
-1.25
-0.87
0.07
1.77
4.27
7.38
10.80
14.08
16.85
18.85
19.99
20.36
20.13
19.48
18.54
17.38
16.01
14.47
12.79
11.06
9.30
7.50
5.61
3.60
1.53
-0.47
-2.17
-3.37
-4.00
-4.18
-4.17
-4.33
-4.92
-6.04
-7.60
-9.33
-10.99
-12.38
-13.46
-14.33
-15.09
-15.84
-16.54
-17.14
-17.57
-17.79
-17.79
-17.49
-16.77
-15.44
-13.37
-10.62
-7.45
-4.29
-1.59
0.32
1.41
1.87
2.07
2.36
2.97
3.89
4.95
5.88
6.47
6.63
6.44
6.12
5.88
5.85
6.02
6.28
6.49
6.55
6.49
6.37
6.27
6.23
6.15
5.90
5.34
4.45
3.33
2.21
1.34
0.84
0.63
0.44
-0.07
-1.17
-2.91
-5.13
-7.51
-9.63
-11.16
-11.81
-11.45
-10.10
-7.92
-5.26
-2.55
-0.20
1.52
2.50
2.89
2.92
2.89
3.01
3.32
3.73
4.06
4.14
3.89
3.32
2.60
1.92
1.41
1.13
1.05
1.11
1.25
1.45
1.67
1.86
1.88
1.59
0.84
-0.42
-2.09
-3.97
-5.79
-7.28
-8.26
-8.70
-8.71
-8.60
-8.73
-9.35
-10.51
-11.97
-13.28
-13.95
-13.64
-12.24
-9.91
-6.95
-3.67
-0.31
2.92
5.86
8.32
10.17
11.37
11.98
12.20
12.24
12.27
12.36
12.45
12.44
12.19
11.67
10.93
10.13
9.41
8.87
8.51
8.24
7.99
7.71
7.38
7.00
6.53
5.89
5.00
3.85
2.53
1.17
-0.07
-1.09
-1.88
-2.53
-3.26
-4.31
-5.89
-8.06
-10.57
-12.89
-14.38
-14.53
-13.18
-10.65
-7.56
-4.57
-2.16
-0.42
0.76
1.62
2.30
2.79
3.00
2.92
2.62
2.31
2.23
2.47
2.99
3.55
3.91
3.92
3.62
3.22
2.96
2.98
3.22
3.50
3.63
3.49
3.12
2.65
2.14
1.54
0.67
-0.59
-2.24
-4.03
-5.62
-6.68
-7.10
-7.04
-6.85
-6.98
-7.72
-9.09
-10.77
-12.20
-12.77
-12.06
-10.02
-6.99
-3.56
-0.30
2.41
4.47
5.95
6.94
7.49
7.61
7.35
6.85
6.34
6.07
6.12
6.47
6.94
7.38
7.68
7.91
8.20
8.67
9.31
9.99
10.46
10.48
9.92
8.84
7.48
6.08
4.83
3.77
2.82
1.85
0.76
-0.46
-1.78
-3.06
-4.23
-5.22
-6.08
-6.96
-8.05
-9.49
-11.32
-13.41
-15.45
-17.09
-17.93
-17.71
-16.27
-13.63
-10.01
-5.75
-1.32
2.81
6.25
8.78
10.37
11.11
11.24
10.96
10.51
10.02
9.56
9.10
8.58
7.91
7.12
6.32
5.72
5.50
5.72
6.28
6.93
7.37
7.40
6.98
6.21
5.29
4.35
3.46
2.63
1.81
1.01
0.25
-0.45
-1.10
-1.78
-2.59
-3.58
-4.68
-5.71
-6.47
-6.89
-7.09
-7.32
-7.82
-8.61
-9.38
-9.57
-8.61
-6.18
-2.42
2.13
6.71
10.66
13.59
15.46
16.46
16.83
16.78
16.33
15.48
14.21
12.62
10.95
9.50
8.49
8.00
7.90
7.96
7.96
7.77
7.37
6.83
6.23
5.62
5.04
4.49
3.99
3.51
2.99
2.32
1.38
0.07
-1.62
-3.61
-5.73
-7.80
-9.66
-11.25
-12.62
-13.89
-15.26
-16.90
-18.86
-21.02
-23.06
-24.47
-24.68
-23.32
-20.35
-16.12
-11.23
-6.38
-2.09
1.40
4.03
5.88
7.00
7.46
7.37
6.91
6.32
5.78
5.40
5.14
4.87
4.45
3.82
3.05
2.30
1.75
1.54
1.69
2.09
2.53
2.77
2.66
2.10
1.14
-0.12
-1.60
-3.23
-4.99
-6.85
-8.80
-10.76
-12.63
-14.24
-15.43
-16.05
-16.03
-15.43
-14.43
-13.29
-12.35
-11.90
-12.16
-13.12
-14.55
-15.99
-16.85
-16.56
-14.75
-11.45
-7.02
-2.14
2.49
6.31
9.10
10.94
12.14
13.00
13.72
14.30
14.68
14.75
14.51
14.06
13.58
13.20
13.00
12.95
12.95
12.93
12.83
12.69
12.55
12.48
12.43
12.26
11.79
10.84
9.38
7.57
5.71
4.09
2.89
2.04
1.35
0.57
-0.45
-1.69
-3.02
-4.26
-5.26
-6.04
-6.66
-7.21
-7.70
-8.11
-8.42
-8.71
-9.15
-9.97
-11.34
-13.20
-15.25
-16.93
-17.60
-16.79
-14.32
-10.47
-5.84
-1.19
2.85
5.96
8.16
9.72
10.92
11.95
12.76
13.21
13.20
12.75
12.03
11.26
10.65
10.25
10.02
9.82
9.55
9.23
8.98
8.96
9.21
9.61
9.84
9.58
8.62
7.05
5.18
3.46
2.19
1.45
1.03
0.61
-0.04
-1.00
-2.16
-3.35
-4.42
-5.35
-6.21
-7.04
-7.86
-8.58
-9.10
-9.44
-9.76
-10.38
-11.55
-13.27
-15.11
-16.35
-16.20
-14.23
-10.57
-5.90
-1.15
2.89
5.85
7.83
9.23
10.41
11.54
12.52
13.14
13.20
12.71
11.83
10.79
9.81
8.95
8.18
7.40
6.62
5.90
5.41
5.23
5.29
5.36
5.14
4.38
3.05
1.36
-0.33
-1.67
-2.51
-2.95
-3.30
-3.89
-4.96
-6.53
-8.41
-10.24
-11.72
-12.62
-12.94
-12.84
-12.56
-12.36
-12.49
-13.09
-14.20
-15.64
-17.01
-17.72
-17.21
-15.11
-11.47
-6.78
-1.79
2.70
6.21
8.57
9.95
10.66
10.97
11.05
10.98
10.78
10.47
10.05
9.51
8.87
8.19
7.58
7.17
7.07
7.21
7.45
7.59
7.53
7.26
6.87
6.48
6.03
5.41
4.46
3.14
1.61
0.21
-0.73
-1.08
-1.01
-0.91
-1.25
-2.29
-3.95
-5.90
-7.70
-9.07
-10.01
-10.77
-11.63
-12.83
-14.40
-16.22
-18.11
-19.88
-21.29
-22.06
-21.84
-20.36
-17.55
-13.62
-9.07
-4.49
-0.43
2.83
5.26
7.01
8.30
9.34
10.21
10.94
11.46
11.72
11.67
11.32
10.74
10.07
9.41
8.87
8.48
8.26
8.21
8.35
8.66
9.05
9.38
9.47
9.15
8.41
7.35
6.14
4.96
3.93
3.08
2.34
1.58
0.66
-0.56
-2.15
-4.04
-6.03
-7.81
-9.12
-9.81
-10.01
-10.05
-10.38
-11.33
-12.97
-14.99
-16.77
-17.61
-16.94
-14.60
-10.83
-6.22
-1.44
2.92
6.56
9.37
11.38
12.68
13.37
13.58
13.46
13.16
12.75
12.20
11.42
10.38
9.12
7.81
6.68
5.93
5.63
5.75
6.14
6.59
6.85
6.70
6.01
4.80
3.25
1.62
0.17
-0.95
-1.83
-2.60
-3.42
-4.40
-5.46
-6.53
-7.52
-8.44
-9.34
-10.31
-11.40
-12.59
-13.87
-15.23
-16.61
-17.89
-18.77
-18.80
-17.53
-14.71
-10.49
-5.43
-0.32
4.09
7.34
9.38
10.47
10.98
11.22
11.34
11.34
11.20
10.93
10.58
10.25
9.97
9.75
9.54
9.32
9.08
8.85
8.65
8.44
8.17
7.78
7.21
6.44
5.43
4.19
2.81
1.43
0.23
-0.66
-1.24
-1.67
-2.21
-3.08
-4.42
-6.10
-7.89
-9.47
-10.65
-11.38
-11.79
-12.13
-12.64
-13.53
-14.83
-16.48
-18.26
-19.83
-20.81
-20.78
-19.40
-16.55
-12.39
-7.43
-2.35
2.12
5.49
7.60
8.64
8.99
9.08
9.20
9.48
9.86
10.21
10.38
10.30
10.03
9.71
9.47
9.38
9.38
9.35
9.19
8.92
8.64
8.42
8.24
7.95
7.36
6.36
5.03
3.60
2.35
1.47
1.00
0.78
0.58
0.16
-0.63
-1.78
-3.12
-4.40
-5.37
-5.92
-6.11
-6.18
-6.44
-7.12
-8.31
-9.93
-11.86
-13.87
-15.70
-16.99
-17.30
-16.28
-13.73
-9.82
-5.07
-0.19
4.11
7.35
9.41
10.45
10.85
11.00
11.20
11.57
12.08
12.54
12.73
12.53
11.96
11.20
10.46
9.90
9.56
9.36
9.21
9.08
9.04
9.16
9.43
9.68
9.61
8.97
7.73
6.07
4.35
2.89
1.82
1.00
0.11
-1.14
-2.85
-4.87
-6.89
-8.58
-9.75
-10.46
-10.94
-11.56
-12.65
-14.37
-16.60
-19.00
-21.00
-21.97
-21.43
-19.18
-15.40
-10.64
-5.64
-1.13
2.42
4.84
6.31
7.13
7.66
8.11
8.54
8.86
8.96
8.79
8.43
7.99
7.57
7.22
6.92
6.66
6.45
6.38
6.50
6.81
7.17
7.39
7.33
6.92
6.21
5.32
4.36
3.38
2.39
1.41
0.46
-0.40
-1.18
-1.94
-2.80
-3.86
-5.21
-6.80
-8.47
-10.01
-11.25
-12.12
-12.70
-13.22
-13.93
-15.01
-16.52
-18.24
-19.78
-20.64
-20.35
-18.66
-15.62
-11.63
-7.28
-3.17
0.29
2.92
4.84
6.22
7.24
8.00
8.56
8.97
9.33
9.71
10.12
10.49
10.74
10.78
10.63
10.40
10.22
10.15
10.18
10.19
10.05
9.68
9.10
8.38
7.62
6.87
6.08
5.16
4.04
2.68
1.13
-0.50
-2.14
-3.74
-5.29
-6.75
-8.06
-9.14
-9.89
-10.28
-10.37
-10.29
-10.26
-10.54
-11.34
-12.75
-14.62
-16.54
-17.93
-18.18
-16.89
-14.04
-9.98
-5.35
-0.84
3.02
5.96
8.02
9.37
10.24
10.79
11.10
11.24
11.30
11.37
11.49
11.59
11.53
11.20
10.58
9.81
9.14
8.79
8.83
9.13
9.45
9.53
9.25
8.62
7.76
6.81
5.85
4.87
3.83
2.71
1.54
0.39
-0.67
-1.65
-2.64
-3.74
-4.99
-6.33
-7.53
-8.43
-9.04
-9.55
-10.34
-11.67
-13.55
-15.62
-17.19
-17.50
-16.09
-12.91
-8.48
-3.62
0.80
4.16
6.27
7.35
7.84
8.14
8.47
8.80
8.99
8.91
8.51
7.86
7.12
6.39
5.74
5.19
4.72
4.29
3.83
3.33
2.79
2.31
1.96
1.79
1.77
1.71
1.44
0.85
-0.04
-1.05
-2.02
-2.87
-3.66
-4.56
-5.67
-6.94
-8.16
-9.07
-9.50
-9.52
-9.38
-9.45
-9.98
-11.06
-12.59
-14.34
-16.06
-17.46
-18.24
-18.08
-16.70
-13.97
-10.05
-5.42
-0.77
3.19
5.96
7.42
7.83
7.73
7.66
7.97
8.73
9.73
10.61
11.08
11.03
10.60
10.05
9.64
9.44
9.39
9.30
9.08
8.73
8.39
8.20
8.13
8.00
7.51
6.46
4.86
3.04
1.41
0.31
-0.16
-0.23
-0.30
-0.76
-1.80
-3.38
-5.24
-7.08
-8.67
-9.90
-10.81
-11.55
-12.32
-13.25
-14.43
-15.79
-17.17
-18.28
-18.78
-18.30
-16.62
-13.70
-9.78
-5.36
-1.05
2.59
5.24
6.90
7.80
8.32
8.76
9.32
9.98
10.62
11.07
11.24
11.09
10.73
10.30
10.00
9.93
10.16
10.63
11.26
11.88
12.32
12.42
12.07
11.24
10.00
8.49
6.90
5.36
3.95
2.65
1.36
0.04
-1.34
-2.70
-3.95
-4.97
-5.69
-6.14
-6.46
-6.87
-7.58
-8.79
-10.56
-12.76
-15.07
-16.99
-17.94
-17.44
-15.27
-11.56
-6.83
-1.81
2.74
6.26
8.55
9.81
10.43
10.86
11.35
11.91
12.37
12.54
12.32
11.81
11.17
10.53
9.91
9.20
8.26
7.07
5.77
4.56
3.65
3.06
2.66
2.19
1.42
0.24
-1.22
-2.67
-3.77
-4.26
-4.13
-3.61
-3.12
-3.02
-3.49
-4.45
-5.70
-6.98
-8.17
-9.21
-10.11
-10.81
-11.25
-11.46
-11.59
-11.98
-12.96
-14.65
-16.79
-18.76
-19.80
-19.26
-16.93
-13.03
-8.23
-3.31
1.05
4.41
6.72
8.19
9.15
9.91
10.65
11.36
11.94
12.24
12.21
11.93
11.60
11.44
11.54
11.84
12.12
12.17
11.91
11.44
10.99
10.70
10.57
10.39
9.92
9.05
7.84
6.54
5.36
4.41
3.58
2.66
1.51
0.09
-1.47
-2.96
-4.26
-5.34
-6.23
-6.99
-7.64
-8.20
-8.69
-9.19
-9.85
-10.84
-12.30
-14.24
-16.48
-18.59
-20.03
-20.18
-18.64
-15.34
-10.67
-5.37
-0.32
3.77
6.56
8.10
8.71
8.75
8.46
7.92
7.14
6.13
5.00
3.93
3.06
2.47
2.13
1.94
1.79
1.65
1.57
1.66
1.99
2.50
3.00
3.19
2.84
1.86
0.43
-1.12
-2.43
-3.27
-3.61
-3.62
-3.62
-3.86
-4.47
-5.40
-6.46
-7.43
-8.15
-8.61
-8.89
-9.13
-9.47
-10.00
-10.76
-11.75
-12.90
-13.98
-14.59
-14.26
-12.58
-9.43
-5.08
-0.16
4.55
8.39
10.97
12.31
12.70
12.56
12.28
12.10
12.08
12.14
12.13
11.97
11.65
11.22
10.79
10.42
10.09
9.74
9.31
8.79
8.25
7.78
7.46
7.27
7.11
6.81
6.21
5.24
3.99
2.66
1.48
0.61
0.03
-0.42
-1.01
-1.91
-3.13
-4.50
-5.74
-6.67
-7.22
-7.51
-7.78
-8.22
-8.94
-9.96
-11.23
-12.72
-14.42
-16.31
-18.17
-19.59
-20.00
-18.86
-15.98
-11.60
-6.43
-1.38
2.80
5.71
7.41
8.31
8.88
9.49
10.24
11.01
11.54
11.59
11.10
10.14
9.00
8.01
7.47
7.49
7.97
8.62
9.09
9.10
8.55
7.55
6.30
5.03
3.90
2.97
2.21
1.55
0.96
0.45
-0.00
-0.42
-0.86
-1.38
-2.01
-2.73
-3.50
-4.24
-4.91
-5.53
-6.14
-6.83
-7.64
-8.56
-9.52
-10.42
-11.26
-12.13
-13.17
-14.47
-15.83
-16.81
-16.83
-15.41
-12.46
-8.34
-3.75
0.60
4.24
7.05
9.19
10.84
12.08
12.87
13.09
12.76
12.04
11.23
10.60
10.30
10.29
10.36
10.32
10.06
9.58
9.06
8.66
8.50
8.59
8.81
8.98
8.86
8.32
7.30
5.92
4.41
3.04
1.98
1.19
0.45
-0.50
-1.86
-3.61
-5.50
-7.22
-8.52
-9.31
-9.73
-9.98
-10.30
-10.87
-11.81
-13.19
-14.98
-17.02
-18.95
-20.22
-20.20
-18.44
-14.87
-9.95
-4.48
0.63
4.70
7.49
9.18
10.17
10.83
11.37
11.81
12.11
12.21
12.12
11.90
11.63
11.34
11.07
10.80
10.55
10.28
9.96
9.60
9.23
8.91
8.69
8.53
8.28
7.72
6.66
5.08
3.14
1.18
-0.46
-1.57
-2.16
-2.51
-2.98
-3.83
-5.11
-6.62
-8.02
-9.00
-9.46
-9.52
-9.50
-9.72
-10.37
-11.51
-13.07
-14.93
-16.97
-19.01
-20.75
-21.73
-21.43
-19.49
-15.91
-11.17
-6.07
-1.48
2.05
4.37
5.72
6.45
6.79
6.76
6.22
5.09
3.49
1.76
0.26
-0.71
-1.11
-1.16
-1.17
-1.45
-2.07
-2.87
-3.50
-3.58
-2.93
-1.65
-0.14
1.11
1.67
1.34
0.20
-1.51
-3.51
-5.63
-7.87
-10.32
-13.07
-16.14
-19.41
-22.64
-25.58
-28.00
-29.77
-30.87
-31.45
-31.79
-32.28
-33.36
-35.26
-37.96
-41.03
-43.79
-45.53
-45.77
-44.39
-41.53
-37.38
-31.98
-25.24
-17.04
-7.50
2.90
13.38
23.18
31.79
39.12
45.40
50.98
56.05
60.63
64.56
67.68
70.05
71.92
73.73
75.94
78.86
82.56
86.77
90.94
94.31
96.10
95.63
92.42
86.33
77.53
66.54
54.04
40.74
27.23
13.94
1.06
-11.37
-23.31
-34.60
-44.87
-53.60
-60.26
-64.57
-66.58
-66.70
-65.66
-64.23
-62.97
-61.99
-60.96
-59.31
-56.45
-51.88
-45.49
-37.65
-29.23
-21.22
-14.41
-9.22
-5.62
-3.23
-1.12
1.64
5.44
9.88
14.15
17.43
19.38
20.23
20.72
22.38
26.49
33.33
41.91
50.63
58.11
63.63
66.96
68.15
68.04
67.65
67.94
69.69
73.52
79.69
87.28
93.78
91.56
75.04
44.76
8.40
-24.29
-47.07
-58.94
-62.56
-61.89
-59.71
-56.41
-51.07
-43.12
-33.42
-23.92
-16.53
-12.15
-10.74
-10.91
-10.58
-8.10
-3.17
2.88
7.87
9.88
8.03
1.78
-7.17
-16.78
-25.36
-32.27
-38.25
-44.75
-53.12
-61.90
-71.38
-80.40
-87.55
-91.71
-92.65
-91.25
-89.00
-87.31
-87.16
-89.34
-93.61
-99.38
-105.00
-107.66
-103.99
-91.32
-69.20
-40.15
-10.22
16.28
35.59
46.56
50.74
51.01
49.99
48.86
47.50
45.15
41.83
38.03
34.64
32.23
30.62
29.05
26.61
22.86
18.07
13.34
9.79
8.12
8.27
9.41
10.24
9.60
6.93
2.41
-3.02
-8.24
-12.36
-15.04
-16.48
-17.17
-17.63
-18.06
-18.20
-18.44
-18.61
-18.52
-18.11
-17.48
-16.77
-16.06
-15.28
-14.31
-13.07
-11.52
-9.85
-8.32
-7.15
-6.40
-5.99
-5.76
-5.68
-5.80
-6.16
-6.81
-7.68
-8.55
-9.08
-8.99
-8.21
-6.98
-5.87
-5.43
-6.05
-7.74
-10.05
-12.22
-13.49
-13.38
-11.79
-9.05
-5.58
-1.81
2.03
5.92
9.89
13.88
17.60
20.55
22.15
22.02
20.12
16.84
12.88
9.09
6.22
4.78
4.85
6.12
7.91
9.37
9.71
8.48
5.86
2.52
-0.54
-2.43
-2.82
-2.00
-0.79
-0.11
-0.58
-2.30
-4.92
-7.86
-10.55
-12.61
-13.86
-14.36
-14.37
-14.38
-15.03
-16.82
-19.81
-23.39
-26.32
-27.10
-24.65
-18.77
-10.31
-0.85
7.85
14.49
18.55
20.27
20.36
19.67
18.88
18.48
18.67
19.46
20.71
22.20
23.66
24.92
26.01
27.13
28.68
31.09
34.70
39.57
45.39
51.46
56.70
59.88
59.93
56.29
49.17
39.55
28.91
18.78
10.28
3.86
-0.74
-4.21
-7.40
-11.03
-15.56
-21.17
-27.68
-34.56
-40.98
-45.85
-48.18
-47.33
-43.30
-36.81
-29.12
-21.69
-15.80
-12.19
-10.89
-11.24
-12.04
-11.86
-9.42
-3.99
4.32
14.50
24.83
33.33
38.35
39.02
35.61
29.52
22.86
17.73
15.57
16.62
19.92
23.73
26.26
26.30
23.66
19.00
13.54
8.48
4.70
2.57
2.05
2.87
4.62
6.92
9.35
