1660321199.00
64.000000
-0.00
-0.00
-0.00
-0.00
-0.00
-0.00
-0.00
-0.00
-0.00
-0.00
0.00
0.01
0.01
-0.00
-0.03
-0.05
-0.05
0.00
0.13
0.36
0.66
1.01
1.37
1.72
2.06
2.40
2.79
3.24
3.80
4.42
5.06
5.66
6.20
6.68
7.15
7.68
8.31
9.14
10.09
11.04
11.88
12.56
13.14
13.76
14.65
15.97
17.92
20.32
22.90
25.37
27.57
29.58
31.71
34.37
37.87
42.56
48.07
53.88
59.43
64.40
68.88
73.36
78.53
84.89
92.92
102.08
111.58
120.53
128.43
135.32
141.86
149.34
156.39
165.20
176.31
189.82
204.59
217.82
225.28
222.35
205.61
173.99
129.70
76.43
18.53
-40.61
-99.16
-156.59
-212.92
-267.99
-321.30
-371.79
-418.83
-461.73
-499.56
-530.92
-553.90
-566.53
-567.24
-555.51
-531.81
-497.84
-455.76
-407.70
-355.55
-300.81
-244.85
-189.07
-135.06
-84.42
-38.84
0.16
31.56
55.22
72.48
86.17
100.13
117.95
141.51
169.98
200.04
227.18
247.43
258.81
261.63
257.72
249.28
237.93
224.49
209.45
193.47
177.61
163.00
150.40
139.82
130.57
121.54
111.77
100.91
89.36
77.99
67.72
59.11
52.09
46.08
40.49
34.74
28.71
22.70
17.22
12.66
9.14
6.46
4.26
2.25
0.24
-1.71
-3.47
-4.92
-6.05
-6.87
-7.49
-7.96
-8.35
-8.69
-8.93
-9.02
-8.85
-8.41
-7.70
-6.86
-6.03
-5.33
-4.83
-4.47
-4.17
-3.82
-3.33
-2.70
-2.00
-1.37
-0.97
-0.95
-1.33
-2.03
-2.82
-3.50
-3.94
-4.11
-4.09
-3.99
-3.88
-3.77
-3.64
-3.47
-3.27
-3.08
-2.90
-2.77
-2.70
-2.73
-2.86
-3.06
-3.20
-3.14
-2.72
-1.92
-0.82
0.35
1.36
2.00
2.24
2.21
2.07
1.99
2.00
2.04
2.01
1.84
1.60
1.41
1.42
1.68
2.13
2.65
3.12
3.51
3.87
4.26
4.74
5.22
5.60
5.73
5.51
4.91
3.96
2.74
1.39
-0.03
-1.43
-2.73
-3.89
-4.94
-5.89
-6.73
-7.43
-7.91
-8.11
-8.00
-7.58
-6.94
-6.17
-5.39
-4.71
-4.19
-3.85
-3.70
-3.70
-3.76
-3.84
-3.88
-3.84
-3.73
-3.55
-3.33
-3.11
-2.92
-2.78
-2.68
-2.61
-2.53
-2.43
-2.33
-2.25
-2.25
-2.31
-2.42
-2.51
-2.53
-2.45
-2.34
-2.23
-2.18
-2.21
-2.27
-2.35
-2.43
-2.53
-2.63
-2.66
-2.50
-2.05
-1.30
-0.35
0.61
1.39
1.93
2.27
2.54
2.87
3.29
3.68
3.93
3.98
3.87
3.69
3.50
3.36
3.22
3.03
2.74
2.38
1.99
1.60
1.24
0.90
0.59
0.31
0.09
-0.09
-0.26
-0.46
-0.74
-1.09
-1.47
-1.81
-2.10
-2.35
-2.63
-3.00
-3.48
-4.08
-4.73
-5.38
-5.93
-6.29
-6.35
-6.08
-5.48
-4.66
-3.77
-2.96
-2.30
-1.76
-1.25
-0.70
-0.06
0.64
1.33
1.93
2.39
2.67
2.78
2.75
2.62
2.44
2.22
2.00
1.78
1.61
1.51
1.49
1.51
1.52
1.44
1.23
0.92
0.56
0.23
-0.01
-0.18
-0.32
-0.50
-0.75
-1.07
-1.42
-1.78
-2.17
-2.65
-3.28
-4.02
-4.75
-5.30
-5.44
-5.07
-4.17
-2.90
-1.47
-0.11
1.01
1.83
2.36
2.66
2.85
2.99
3.15
3.32
3.46
3.54
3.52
3.44
3.36
3.29
3.24
3.14
2.92
2.52
1.99
1.39
0.82
0.33
-0.10
-0.55
-1.13
-1.88
-2.80
-3.78
-4.67
-5.35
-5.76
-5.99
-6.21
-6.61
-7.29
-8.22
-9.27
-10.26
-11.03
-11.51
-11.62
-11.32
-10.52
-9.19
-7.34
-5.11
-2.70
-0.28
2.01
4.13
6.07
7.81
9.25
10.31
10.91
11.09
10.93
10.58
10.14
9.67
9.15
8.56
7.92
7.24
6.60
6.03
5.52
5.06
4.59
4.10
3.59
3.11
2.72
2.44
2.22
2.02
1.76
1.38
0.88
0.30
-0.28
-0.76
-1.09
-1.27
-1.36
-1.46
-1.63
-1.89
-2.17
-2.37
-2.40
-2.18
-1.73
-1.10
-0.37
0.38
1.11
1.77
2.33
2.74
2.94
2.92
2.72
2.43
2.15
1.97
1.91
1.94
2.01
2.06
2.04
1.93
1.73
1.48
1.20
0.95
0.72
0.54
0.40
0.29
0.19
0.10
-0.03
-0.20
-0.44
-0.74
-1.09
-1.45
-1.77
-2.02
-2.19
-2.26
-2.25
-2.14
-1.94
-1.68
-1.38
-1.07
-0.79
-0.51
-0.22
0.19
0.79
1.61
2.59
3.52
4.19
4.38
4.07
3.39
2.64
2.12
2.04
2.45
3.23
4.13
4.84
5.06
4.55
3.21
1.17
-1.23
-3.49
-5.13
-5.86
-5.70
-4.93
-3.93
-3.03
-2.38
-1.97
-1.73
-1.64
-1.76
-2.15
-2.79
-3.51
-4.06
-4.21
-3.87
-3.12
-2.17
-1.24
-0.42
0.25
0.81
1.26
1.59
1.75
1.74
1.57
1.32
1.02
0.70
0.34
-0.05
-0.43
-0.70
-0.79
-0.70
-0.55
-0.49
-0.64
-1.00
-1.44
-1.78
-1.90
-1.81
-1.63
-1.52
-1.59
-1.80
-2.02
-2.12
-2.06
-1.93
-1.88
-2.01
-2.33
-2.68
-2.87
-2.78
-2.40
-1.86
-1.33
-0.90
-0.60
-0.34
-0.01
0.42
0.89
1.28
1.51
1.62
1.68
1.84
2.13
2.51
2.85
3.02
3.00
2.87
2.77
2.82
3.07
3.50
4.05
4.68
5.36
6.06
6.76
7.41
7.98
8.48
8.97
9.52
10.21
11.07
12.11
13.27
14.46
15.54
16.40
16.99
17.39
17.79
18.48
19.73
21.67
24.28
27.35
30.55
33.58
36.13
38.02
39.16
39.54
39.25
38.49
37.45
36.37
35.44
34.83
34.60
34.76
35.22
35.85
36.51
37.13
37.72
38.32
38.91
39.38
39.47
38.87
37.31
34.63
30.80
25.92
20.16
13.81
7.23
0.86
-4.97
-10.07
-14.45
-18.26
-21.69
-24.79
-27.49
-29.64
-31.16
-32.08
-32.52
-32.63
-32.52
-32.23
-31.77
-31.19
-30.57
-29.98
-29.46
-28.95
-28.37
-27.64
-26.72
-25.64
-24.45
-23.18
-21.82
-20.39
-18.92
-17.51
-16.26
-15.21
-14.31
-13.38
-12.27
-10.86
-9.26
-7.66
-6.33
-5.45
-5.03
-4.98
-5.14
-5.42
-5.80
-6.25
-6.78
-7.34
-7.83
-8.20
-8.48
-8.72
-9.03
-9.47
-10.05
-10.71
-11.38
-12.05
-12.74
-13.57
-14.63
-15.94
-17.45
-18.96
-20.26
-21.24
-21.91
-22.40
-22.86
-23.33
-23.67
-23.69
-23.21
-22.19
-20.79
-19.26
-17.89
-16.84
-16.17
-15.79
-15.56
-15.27
-14.77
-13.99
-12.98
-11.92
-10.98
-10.30
-9.82
-9.37
-8.79
-8.04
-7.23
-6.53
-6.05
-5.71
-5.22
-4.17
-2.21
0.81
4.81
9.55
14.80
20.47
26.66
33.61
41.54
50.51
60.27
70.22
79.49
87.03
91.75
92.61
88.69
79.38
64.63
45.26
23.01
0.44
-19.75
-35.37
-45.39
-50.10
-50.75
-49.00
-46.24
-43.35
-40.66
-38.28
-36.24
-34.63
-33.52
-32.87
-32.54
-32.33
-32.11
-31.85
-31.63
-31.54
-31.59
-31.70
-31.75
-31.56
-30.99
-29.96
-28.49
-26.66
-24.67
-22.73
-21.06
-19.77
-18.85
-18.16
-17.55
-16.85
-16.06
-15.27
-14.61
-14.20
-14.00
-13.90
-13.71
-13.34
-12.80
-12.25
-11.88
-11.84
-12.19
-12.86
-13.73
-14.62
-15.42
-16.00
-16.33
-16.43
-16.39
-16.38
-16.56
-17.02
-17.73
-18.49
-19.00
-18.99
-18.31
-17.03
-15.38
-13.64
-12.04
-10.62
-9.31
-7.98
-6.53
-4.99
-3.46
-2.08
-0.97
-0.14
0.42
0.78
0.99
1.08
1.07
1.03
1.06
1.31
1.89
2.84
4.07
5.36
6.48
7.20
7.38
7.00
6.15
4.93
3.45
1.78
-0.07
-2.15
-4.50
-7.12
-9.90
-12.61
-14.91
-16.38
-16.64
-15.49
-12.93
-9.24
-4.90
-0.50
3.44
6.57
8.84
10.48
11.80
13.09
14.39
15.49
16.04
15.77
14.70
13.13
11.48
10.11
9.10
8.28
7.35
6.10
4.55
2.94
1.60
0.72
0.33
0.22
0.13
-0.14
-0.65
-1.27
-1.83
-2.16
-2.22
-2.05
-1.71
-1.23
-0.47
0.68
2.30
4.32
6.49
8.55
10.32
11.80
13.17
14.59
16.12
17.62
18.85
19.52
19.52
18.93
17.94
16.81
15.71
14.73
13.84
12.97
11.95
10.61
8.79
6.44
3.64
0.63
-2.26
-4.64
-6.20
-6.66
-5.87
-3.94
-1.31
1.25
2.86
2.96
1.58
-0.54
-2.26
-2.64
-1.39
0.98
3.48
5.18
5.70
5.33
4.71
4.50
4.94
5.85
6.76
7.22
6.98
6.11
4.98
4.06
3.83
4.50
6.00
7.94
9.78
11.07
11.55
11.22
10.26
8.84
7.11
5.21
3.31
1.61
0.24
-0.84
-1.88
-3.23
-5.09
-7.37
-9.61
-11.24
-11.76
-11.03
-9.31
-7.06
-4.76
-2.70
-0.93
0.63
2.07
3.39
4.47
5.16
5.40
5.30
5.08
5.06
5.47
6.47
8.02
9.95
11.97
13.78
15.19
16.20
16.98
17.72
18.49
19.05
18.95
17.68
14.97
10.98
6.32
1.80
-1.89
-4.39
-5.79
-6.46
-6.83
-7.13
-7.40
-7.51
-7.25
-6.42
-4.90
-2.59
0.54
4.38
8.63
12.75
15.97
17.53
16.91
14.06
9.55
4.42
-0.10
-3.09
-4.20
-3.78
-2.62
-1.50
-0.91
-0.79
-0.76
-0.43
0.33
1.30
2.10
2.44
2.30
1.93
1.65
1.58
1.60
1.41
0.75
-0.40
-1.76
-2.87
-3.26
-2.64
-0.99
1.51
4.55
7.87
11.21
14.32
16.92
18.67
19.31
18.84
17.55
15.99
14.69
13.92
13.55
13.15
12.23
10.57
8.30
5.87
3.73
2.14
1.02
0.07
-1.00
-2.33
-3.77
-4.99
-5.65
-5.56
-4.77
-3.52
-2.10
-0.72
0.63
2.08
3.84
5.96
8.36
10.81
13.11
15.12
16.76
17.96
18.56
18.38
17.26
15.24
12.57
9.63
6.82
4.39
2.40
0.78
-0.65
-2.12
-3.85
-6.01
-8.67
-11.77
-15.06
-18.19
-20.81
-22.70
-23.82
-24.33
-24.47
-24.49
-24.49
-24.44
-24.19
-23.47
-22.00
-19.60
-16.21
-11.93
-7.02
-1.82
3.32
8.11
12.37
16.04
19.12
21.62
23.51
24.69
25.01
24.31
22.53
19.73
16.16
12.19
8.22
4.59
1.46
-1.16
-3.35
-5.17
-6.59
-7.45
-7.60
-6.98
-5.76
-4.27
-2.89
-1.93
-1.52
-1.62
-2.01
-2.37
-2.32
-1.55
0.12
2.52
5.19
7.39
8.47
8.12
6.57
4.50
2.76
1.97
2.32
3.52
5.04
6.35
7.14
7.34
7.06
6.48
5.73
4.91
4.06
3.20
2.39
1.66
1.05
0.61
0.36
0.34
0.64
1.35
2.53
4.15
5.95
7.53
8.42
8.28
7.12
5.29
3.41
2.04
1.52
1.77
2.41
2.91
2.86
2.12
0.78
-0.92
-2.72
-4.43
-5.96
-7.28
-8.30
-8.89
-8.83
-7.98
-6.31
-4.01
-1.44
0.98
2.98
4.48
5.62
6.66
7.81
9.17
10.71
12.31
13.81
14.99
15.45
14.75
12.53
8.76
3.96
-0.93
-4.82
-6.91
-7.00
-5.52
-3.32
-1.23
0.20
0.86
0.89
0.57
0.07
-0.56
-1.32
-2.17
-2.95
-3.42
-3.37
-2.67
-1.38
0.34
2.28
4.25
6.09
7.58
8.38
8.06
6.23
2.82
-1.84
-6.99
-11.75
-15.43
-17.75
-18.95
-19.55
-20.11
-20.92
-21.92
-22.78
-23.12
-22.72
-21.65
-20.15
-18.49
-16.81
-15.00
-12.79
-9.91
-6.31
-2.25
1.76
5.16
7.58
9.03
9.85
10.57
11.75
13.76
16.69
20.34
24.23
27.63
29.67
29.46
26.43
20.53
12.45
3.50
-4.69
-10.75
-13.92
-14.29
-12.69
-10.27
-8.10
-6.82
-6.57
-7.08
-7.90
-8.63
-8.97
-8.77
-8.00
-6.70
-5.01
-3.19
-1.54
-0.32
0.35
0.61
0.78
1.31
2.60
4.88
8.06
11.72
15.19
17.78
19.00
18.79
17.52
15.78
14.12
12.80
11.74
10.67
9.32
7.63
5.73
3.80
1.96
0.24
-1.43
-3.04
-4.47
-5.56
-6.17
-6.24
-5.73
-4.62
-2.85
-0.38
2.66
5.94
8.97
11.29
12.62
12.99
12.64
11.88
10.92
9.74
8.15
5.93
3.06
-0.30
-3.74
-6.89
-9.49
-11.56
-13.32
-15.05
-16.92
-18.90
-20.75
-22.09
-22.63
-22.24
-21.03
-19.35
-17.69
-16.55
-16.22
-16.76
-17.86
-19.00
-19.61
-19.23
-17.58
-14.59
-10.36
-5.23
0.26
5.27
8.96
10.72
10.57
9.12
7.37
6.16
5.77
5.81
5.53
4.27
1.91
-1.07
-3.88
-5.82
-6.61
-6.43
-5.73
-4.92
-4.22
-3.60
-2.91
-1.96
-0.62
1.17
3.42
6.10
9.07
11.99
14.36
15.65
15.44
13.63
10.52
6.70
2.91
-0.18
-2.20
-3.08
-3.08
-2.64
-2.20
-2.14
-2.56
-3.35
-4.22
-4.89
-5.20
-5.19
-5.02
-4.90
-4.95
-5.20
-5.62
-6.14
-6.69
-7.18
-7.52
-7.56
-7.14
-6.18
-4.65
-2.59
-0.09
2.69
5.50
8.04
10.03
11.34
12.05
12.38
12.55
12.63
12.47
11.75
10.20
7.76
4.70
1.53
-1.21
-3.13
-4.14
-4.43
-4.31
-4.10
-3.96
-3.89
-3.78
-3.42
-2.61
-1.22
0.77
3.23
5.85
8.22
9.89
10.49
9.92
8.33
6.07
3.57
1.17
-0.95
-2.73
-4.18
-5.30
-6.11
-6.68
-7.14
-7.63
-8.27
-9.04
-9.81
-10.41
-10.78
-10.95
-11.04
-11.12
-11.11
-10.79
-9.95
-8.57
-6.84
-5.17
-4.03
-3.74
-4.45
-6.14
-8.64
-11.66
-14.72
-17.20
-18.42
-17.88
-15.56
-11.93
-7.86
-4.23
-1.54
0.19
1.35
2.48
3.84
5.35
6.62
7.24
6.97
5.95
4.59
3.33
2.55
2.30
2.51
2.97
3.54
4.22
5.04
6.04
7.13
8.10
8.73
8.86
8.49
7.81
7.14
6.82
7.12
8.08
9.54
11.18
12.64
13.70
14.34
14.74
15.13
15.58
15.94
15.90
15.15
13.52
11.12
8.22
5.15
2.12
-0.77
-3.46
-5.82
-7.60
-8.58
-8.69
-8.12
-7.32
-6.78
-6.81
-7.40
-8.18
-8.69
-8.53
-7.55
-5.86
-3.70
-1.36
0.85
2.61
3.60
3.65
2.79
1.32
-0.30
-1.64
-2.51
-2.98
-3.30
-3.74
-4.39
-5.19
-6.00
-6.75
-7.42
-8.06
-8.66
-9.12
-9.28
-8.96
-8.06
-6.60
-4.71
-2.63
-0.58
1.25
2.78
4.03
5.10
6.10
7.05
7.95
8.74
9.44
10.09
10.75
11.39
11.86
11.93
11.36
10.12
8.36
6.42
4.66
3.35
2.55
2.21
2.16
2.24
2.36
2.44
2.40
2.15
1.57
0.65
-0.56
-1.88
-3.10
-4.05
-4.69
-5.06
-5.29
-5.48
-5.64
-5.68
-5.49
-5.01
-4.26
-3.32
-2.29
-1.22
-0.14
0.91
1.86
2.63
3.14
3.38
3.35
3.08
2.57
1.80
0.78
-0.46
-1.84
-3.24
-4.58
-5.84
-7.04
-8.18
-9.21
-10.03
-10.48
-10.43
-9.86
-8.80
-7.37
-5.71
-3.96
-2.22
-0.58
0.90
2.16
3.21
4.12
4.99
5.98
7.18
8.61
10.16
11.61
12.72
13.34
13.42
13.00
12.16
10.91
9.28
7.31
5.12
2.95
1.06
-0.36
-1.27
-1.79
-2.16
-2.54
-3.00
-3.43
-3.65
-3.53
-3.13
-2.62
-2.29
-2.38
-2.92
-3.75
-4.53
-4.82
-4.26
-2.65
-0.01
3.43
7.17
10.59
12.98
13.82
13.00
10.87
8.21
5.97
4.79
4.80
5.50
6.05
5.66
3.99
1.25
-1.99
-5.09
-7.68
-9.71
-11.38
-12.87
-14.21
-15.27
-15.91
-16.00
-15.48
-14.30
-12.40
-9.77
-6.55
-3.13
-0.10
1.94
2.64
1.98
0.29
-1.86
-3.91
-5.38
-6.03
-5.83
-5.01
-3.91
-2.94
-2.44
-2.54
-3.14
-4.00
-4.81
-5.37
-5.64
-5.74
-5.87
-6.23
-6.97
-8.16
-9.77
-11.65
-13.54
-15.08
-15.91
-15.73
-14.46
-12.20
-9.25
-5.96
-2.64
0.39
2.89
4.62
5.46
5.44
4.80
3.92
3.09
2.37
1.55
0.31
-1.54
-3.90
-6.30
-8.19
-9.20
-9.28
-8.77
-8.12
-7.71
-7.61
-7.68
-7.67
-7.37
-6.72
-5.78
-4.67
-3.45
-2.14
-0.79
0.51
1.61
2.38
2.81
3.05
3.38
4.02
5.07
6.37
7.62
8.44
8.58
8.00
6.93
5.77
4.91
4.61
4.88
5.46
6.01
6.26
6.15
5.78
5.36
5.00
4.66
4.17
3.43
2.49
1.58
0.99
0.93
1.51
2.73
4.60
7.12
10.13
13.24
15.80
17.14
16.96
15.46
13.37
11.51
10.39
9.96
9.61
8.62
6.49
3.25
-0.57
-4.26
-7.18
-9.04
-9.86
-9.95
-9.64
-9.24
-8.87
-8.50
-8.04
-7.32
-6.20
-4.61
-2.56
-0.19
2.20
4.18
5.34
5.48
4.71
3.51
2.56
2.44
3.37
5.03
6.74
7.75
7.54
6.12
3.93
1.66
-0.13
-1.21
-1.72
-2.00
-2.39
-2.94
-3.47
-3.71
-3.50
-2.90
-2.20
-1.70
-1.54
-1.59
-1.53
-0.99
0.22
2.10
4.40
6.79
8.85
10.25
10.68
9.96
8.06
5.16
1.69
-1.69
-4.33
-5.72
-5.72
-4.57
-2.82
-1.06
0.22
0.80
0.71
0.08
-0.92
-2.17
-3.57
-5.00
-6.23
-6.94
-6.87
-5.89
-4.12
-1.89
0.38
2.38
4.01
5.39
6.79
8.37
10.14
11.93
13.56
14.94
16.13
17.22
18.20
18.88
19.04
18.54
17.44
15.94
14.23
12.28
9.88
6.84
3.11
-1.02
-5.09
-8.64
-11.44
-13.50
-15.00
-16.12
-16.94
-17.45
-17.67
-17.65
-17.51
-17.34
-17.11
-16.63
-15.64
-13.87
-11.17
-7.60
-3.48
0.63
4.06
6.21
6.82
6.07
4.52
2.90
1.75
1.20
1.02
0.79
0.18
-0.88
-2.18
-3.47
-4.59
-5.53
-6.40
-7.23
-7.90
-8.16
-7.79
-6.70
-5.02
-3.10
-1.30
0.08
0.96
1.47
1.92
2.59
3.67
5.17
6.94
8.80
10.54
11.94
12.81
12.99
12.39
11.14
9.47
7.67
5.93
4.26
2.56
0.75
-1.11
-2.83
-4.18
-5.07
-5.60
-6.00
-6.49
-7.11
-7.73
-8.12
-8.09
-7.58
-6.68
-5.57
-4.43
-3.40
-2.50
-1.61
-0.45
1.31
3.85
6.99
10.13
12.41
13.04
11.73
8.87
5.37
2.24
0.16
-0.79
-1.03
-1.13
-1.50
-2.19
-3.06
-3.93
-4.85
-5.97
-7.46
-9.30
-11.15
-12.51
-12.94
-12.24
-10.58
-8.43
-6.38
-4.90
-4.20
-4.18
-4.51
-4.78
-4.69
-4.15
-3.19
-1.96
-0.53
1.09
2.91
4.83
6.57
7.71
7.87
6.88
4.95
2.58
0.34
-1.33
-2.34
-2.82
-3.01
-3.07
-3.02
-2.80
-2.42
-2.05
-2.02
-2.64
-4.06
-6.19
-8.66
-11.05
-13.00
-14.32
-15.05
-15.32
-15.30
-15.03
-14.43
-13.34
-11.60
-9.14
-6.05
-2.60
0.76
3.52
5.21
5.64
4.92
3.51
1.99
0.93
0.59
0.98
1.86
2.88
3.77
4.34
4.53
4.40
4.06
3.63
3.24
2.96
2.80
2.75
2.84
3.16
3.86
5.08
6.82
8.97
11.24
13.38
15.24
16.82
18.24
19.63
21.01
22.31
23.46
24.47
25.41
26.23
26.60
25.90
23.38
18.56
11.57
3.24
-5.10
-12.11
-16.92
-19.37
-19.96
-19.51
-18.78
-18.24
-18.01
-18.01
-18.12
-18.29
-18.56
-18.97
-19.49
-19.94
-20.04
-19.52
-18.24
-16.24
-13.69
-10.82
-7.80
-4.76
-1.82
0.86
3.07
4.57
5.18
4.83
3.63
1.74
-0.55
-2.98
-5.25
-7.07
-8.22
-8.61
-8.33
-7.60
-6.69
-5.83
-5.12
-4.55
-4.07
-3.58
-3.02
-2.33
-1.43
-0.22
1.41
3.46
5.76
7.96
9.60
10.31
9.96
8.77
7.26
6.02
5.45
5.61
6.17
6.63
6.57
5.79
4.41
2.70
0.94
-0.68
-2.08
-3.17
-3.89
-4.10
-3.74
-2.84
-1.56
-0.14
1.22
2.43
3.59
4.87
6.45
8.45
10.90
13.74
16.81
19.88
22.60
24.53
25.25
24.55
22.60
19.96
17.35
15.26
13.74
12.34
10.37
7.33
3.20
-1.49
-5.94
-9.43
-11.64
-12.65
-12.85
-12.65
-12.30
-11.85
-11.21
-10.23
-8.75
-6.67
-3.95
-0.61
3.18
7.10
10.66
13.29
14.47
13.90
11.60
7.91
3.34
-1.57
-6.30
-10.44
-13.66
-15.72
-16.55
-16.28
-15.21
-13.71
-12.10
-10.48
-8.82
-7.12
-5.53
-4.37
-3.98
-4.44
-5.48
-6.56
-7.11
-6.83
-5.83
-4.54
-3.43
-2.73
-2.36
-1.97
-1.19
0.21
2.30
5.03
8.28
11.82
15.15
17.56
18.32
17.00
13.85
9.70
5.64
2.46
0.32
-1.25
-2.90
-5.04
-7.59
-10.04
-11.92
-13.02
-13.58
-14.02
-14.63
-15.41
-16.00
-15.94
-14.82
-12.54
-9.27
-5.43
-1.43
2.41
5.97
9.31
12.55
15.74
18.77
21.33
23.01
23.42
22.37
19.93
16.48
12.54
8.67
5.31
2.67
0.80
-0.40
-1.02
-1.18
-0.99
-0.63
-0.35
-0.45
-1.18
-2.64
-4.70
-7.03
-9.24
-11.01
-12.19
-12.86
-13.23
-13.50
-13.72
-13.78
-13.38
-12.22
-10.04
-6.81
-2.72
1.77
5.96
9.11
10.69
10.60
9.20
7.20
5.30
3.91
3.00
2.25
1.24
-0.22
-2.05
-4.00
-5.84
-7.50
-9.02
-10.47
-11.75
-12.67
-12.94
-12.40
-11.11
-9.35
-7.48
-5.86
-4.60
-3.61
-2.63
-1.36
0.41
2.76
5.66
8.93
12.30
15.36
17.70
19.01
19.33
19.02
18.63
18.53
18.67
18.53
17.41
14.85
10.98
6.46
2.16
-1.24
-3.53
-4.95
-5.90
-6.65
-7.28
-7.73
-7.97
-8.06
-8.14
-8.21
-8.13
-7.57
-6.19
-3.71
-0.18
4.01
8.13
11.30
12.83
12.51
10.76
8.40
6.32
5.01
4.38
3.86
2.82
0.95
-1.62
-4.39
-6.85
-8.69
-9.97
-10.91
-11.75
-12.58
-13.35
-13.93
-14.22
-14.20
-13.92
-13.48
-12.96
-12.45
-12.02
-11.71
-11.51
-11.37
-11.21
-10.90
-10.32
-9.30
-7.71
-5.50
-2.77
0.15
2.72
4.32
4.44
2.97
0.29
-2.79
-5.30
-6.48
-6.06
-4.37
-2.11
-0.07
1.25
1.75
1.70
1.53
1.58
1.91
2.38
2.73
2.79
2.54
2.16
1.86
1.82
2.09
2.65
3.54
4.87
6.73
9.08
11.59
13.74
14.99
15.04
13.98
12.27
10.49
9.09
8.17
7.53
6.81
5.68
4.05
2.02
-0.15
-2.20
-3.97
-5.40
-6.47
-7.17
-7.41
-7.10
-6.18
-4.75
-3.06
-1.45
-0.22
0.53
0.91
1.23
1.87
3.19
5.36
8.35
11.89
15.49
18.56
20.57
21.23
20.52
18.65
15.99
12.91
9.72
6.72
4.19
2.39
1.42
1.16
1.26
1.23
0.68
-0.54
-2.23
-3.97
-5.33
-6.07
-6.27
-6.18
-6.09
-6.20
-6.52
-6.92
-7.19
-7.06
-6.26
-4.57
-1.95
1.34
4.69
7.24
8.27
7.48
5.23
2.34
-0.24
-1.91
-2.61
-2.76
-2.94
-3.52
-4.53
-5.72
-6.77
-7.50
-7.93
-8.18
-8.33
-8.39
-8.30
-7.98
-7.42
-6.66
-5.71
-4.56
-3.14
-1.41
0.59
2.66
4.50
5.76
6.22
5.75
4.40
2.29
-0.41
-3.42
-6.37
-8.83
-10.40
-10.87
-10.27
-8.89
-7.19
-5.60
-4.41
-3.73
-3.51
-3.63
-3.89
-4.14
-4.21
-3.99
-3.49
-2.80
-2.10
-1.54
-1.28
-1.35
-1.71
-2.26
-2.77
-2.91
-2.30
-0.64
2.06
5.36
8.45
10.44
10.81
9.63
7.56
5.50
4.05
3.31
2.86
2.18
0.95
-0.73
-2.46
-3.82
-4.65
-5.04
-5.22
-5.36
-5.48
-5.57
-5.63
-5.65
-5.66
-5.53
-5.08
-4.06
-2.33
0.05
2.77
5.30
7.09
7.70
6.99
5.15
2.66
0.12
-1.96
-3.26
-3.80
-3.83
-3.70
-3.75
-4.11
-4.78
-5.58
-6.27
-6.63
-6.55
-6.06
-5.29
-4.45
-3.68
-3.03
-2.43
-1.82
-1.20
-0.66
-0.35
-0.36
-0.62
-0.87
-0.82
-0.25
0.86
2.32
3.90
5.47
7.05
8.77
10.64
12.46
13.81
14.27
13.64
12.13
10.23
8.46
7.10
6.04
4.90
3.36
1.34
-0.91
-2.97
-4.53
-5.52
-6.15
-6.73
-7.44
-8.26
-9.01
-9.40
-9.21
-8.33
-6.78
-4.70
-2.30
0.16
2.47
4.55
6.45
8.31
10.23
12.21
14.09
15.64
16.60
16.84
16.28
14.95
12.86
10.04
6.62
2.86
-0.83
-3.99
-6.26
-7.54
-7.96
-7.85
-7.55
-7.30
-7.20
-7.23
-7.37
-7.60
-7.93
-8.36
-8.83
-9.29
-9.69
-10.00
-10.18
-10.10
-9.54
-8.26
-6.09
-3.01
0.80
4.99
9.14
12.74
15.33
16.49
16.02
14.04
11.00
7.61
4.59
2.43
1.24
0.80
0.73
0.73
0.66
0.52
0.33
-0.02
-0.74
-1.94
-3.52
-5.09
-6.07
-5.92
-4.36
-1.49
2.24
6.23
9.90
12.92
15.18
16.75
17.70
18.04
17.65
16.41
14.25
11.26
7.68
3.88
0.26
-2.78
-4.92
-5.99
-6.11
-5.65
-5.21
-5.39
-6.58
-8.78
-11.64
-14.58
-17.09
-18.83
-19.66
-19.58
-18.62
-16.85
-14.41
-11.51
-8.35
-5.09
-1.72
1.86
5.76
9.95
14.21
18.16
21.31
23.24
23.60
22.24
19.28
15.10
10.38
5.88
2.27
-0.10
-1.26
-1.63
-1.74
-2.07
-2.88
-4.25
-6.10
-8.27
-10.58
-12.76
-14.45
-15.31
-15.05
-13.59
-11.01
-7.55
-3.49
0.94
5.54
10.06
14.16
17.34
19.09
19.07
17.28
14.10
10.13
5.97
2.06
-1.42
-4.38
-6.74
-8.33
-9.03
-8.90
-8.30
-7.82
-8.04
-9.27
-11.43
-14.07
-16.63
-18.65
-19.91
-20.39
-20.17
-19.36
-18.05
-16.37
-14.44
-12.37
-10.17
-7.74
-4.87
-1.44
2.59
7.07
11.62
15.75
18.86
20.40
20.02
17.73
14.02
9.77
6.02
3.59
2.80
3.33
4.43
5.25
5.19
4.06
2.10
-0.29
-2.66
-4.76
-6.47
-7.77
-8.62
-8.91
-8.46
-7.11
-4.78
-1.58
2.28
6.47
10.70
14.72
18.33
21.30
23.30
23.95
22.91
20.07
15.62
10.10
4.26
-1.13
-5.45
-8.35
-9.77
-9.97
-9.44
-8.80
-8.63
-9.27
-10.73
-12.64
-14.49
-15.76
-16.15
-15.67
-14.52
-12.98
-11.35
-9.85
-8.60
-7.58
-6.60
-5.25
-3.04
0.39
5.08
10.57
15.99
20.27
22.50
22.21
19.57
15.29
10.40
5.92
2.59
0.65
-0.09
-0.10
0.05
-0.07
-0.74
-2.04
-3.99
-6.51
-9.45
-12.51
-15.26
-17.22
-18.00
-17.48
-15.87
-13.53
-10.87
-8.07
-5.12
-1.85
1.75
5.46
8.71
10.85
11.39
10.27
7.84
4.75
1.62
-1.13
-3.31
-4.91
-5.91
-6.29
-6.08
-5.47
-4.85
-4.74
-5.56
-7.46
-10.23
-13.39
-16.36
-18.69
-20.14
-20.75
-20.78
-20.57
-20.47
-20.70
-21.26
-21.90
-22.13
-21.46
-19.47
-16.08
-11.53
-6.33
-1.14
3.37
6.75
8.79
9.59
9.57
9.27
9.25
9.88
11.20
12.94
14.60
15.69
15.88
15.09
13.43
11.13
8.42
5.47
2.41
-0.62
-3.35
-5.48
-6.64
-6.59
-5.32
-3.05
-0.17
2.88
5.78
8.37
10.64
12.57
14.08
14.99
15.05
14.11
12.16
9.46
6.44
3.70
1.77
1.02
1.50
2.88
4.61
6.06
6.80
6.67
5.80
4.44
2.85
1.18
-0.44
-1.87
-2.90
-3.37
-3.22
-2.63
-1.89
-1.26
-0.74
0.00
1.46
4.03
7.75
12.20
16.55
19.86
21.37
20.69
17.90
13.52
8.37
3.33
-0.79
-3.49
-4.64
-4.45
-3.40
-2.07
-0.98
-0.50
-0.83
-1.99
-3.85
-6.14
-8.43
-10.26
-11.24
-11.15
-9.96
-7.88
-5.17
-2.12
1.08
4.33
7.57
10.68
13.49
15.71
17.03
17.16
15.85
13.02
8.73
3.29
-2.72
-8.50
-13.17
-16.05
-16.83
-15.74
-13.43
-10.76
-8.50
-7.12
-6.74
-7.22
-8.25
-9.52
-10.71
-11.56
-11.87
-11.61
-10.87
-9.92
-8.97
-8.10
-7.14
-5.78
-3.68
-0.68
3.06
7.09
10.76
13.45
14.68
14.25
12.27
9.19
5.63
2.35
-0.02
-1.09
-0.82
0.48
2.29
4.03
5.29
5.85
5.72
5.06
4.04
2.84
1.61
0.51
-0.27
-0.51
0.02
1.45
3.79
6.86
10.33
13.88
17.20
20.07
22.32
23.81
24.31
23.51
21.09
16.77
10.61
3.05
-5.02
-12.49
-18.31
-21.85
-23.05
-22.36
-20.48
-18.09
-15.69
-13.52
-11.72
-10.34
-9.45
-9.02
-8.89
-8.82
-8.59
-8.09
-7.37
-6.54
-5.65
-4.60
-3.18
-1.15
1.65
5.19
9.20
13.20
16.51
18.43
18.36
16.09
11.95
6.78
1.75
-2.08
-4.13
-4.53
-3.97
-3.38
-3.39
-4.15
-5.33
-6.38
-6.92
-6.90
-6.60
-6.37
-6.32
-6.27
-5.80
-4.57
-2.50
0.17
3.04
5.80
8.42
11.05
13.92
17.02
20.03
22.41
23.58
23.16
21.05
17.34
12.26
6.12
-0.62
-7.35
-13.31
-17.81
-20.46
-21.28
-20.71
-19.36
-17.77
-16.28
-14.98
-13.90
-13.03
-12.39
-11.92
-11.50
-10.89
-9.90
-8.46
-6.70
-4.84
-3.13
-1.71
-0.57
0.42
1.44
2.72
4.49
6.93
10.04
13.51
16.67
18.63
18.60
16.30
12.19
7.36
3.10
0.32
-0.79
-0.82
-0.74
-1.40
-3.12
-5.66
-8.38
-10.68
-12.22
-13.01
-13.28
-13.23
-12.94
-12.32
-11.20
-9.49
-7.24
-4.68
-2.08
0.30
2.32
3.97
5.33
6.53
7.69
8.90
10.17
11.44
12.57
13.35
13.50
12.75
10.95
8.15
4.69
1.12
-1.94
-3.99
-4.87
-4.71
-3.90
-2.91
-2.15
-1.90
-2.28
-3.25
-4.60
-6.05
-7.27
-7.97
-8.00
-7.31
-6.01
-4.14
-1.77
1.06
4.17
7.17
9.66
11.34
12.16
12.40
12.50
12.95
14.07
15.82
17.88
19.91
21.74
23.28
24.58
25.72
26.91
28.39
30.28
32.62
35.47
39.15
43.63
48.43
52.59
54.94
54.54
50.87
44.27
36.01
28.21
22.45
19.25
17.97
17.54
16.90
15.18
11.93
7.19
1.76
-3.92
-9.75
-15.82
-22.01
-26.05
-25.59
-19.52
-11.67
-3.96
2.57
8.54
13.98
18.92
23.46
27.36
30.20
31.52
31.48
29.89
26.34
20.15
10.81
-1.78
-17.46
-35.51
-54.54
-72.38
-87.09
-97.28
-102.28
-101.91
-96.55
-87.27
-75.71
-63.71
-52.72
-43.75
-37.20
-32.87
-30.09
-28.10
-26.46
-25.03
-23.83
-22.73
-21.59
-20.35
-19.05
-17.85
-16.96
-16.53
-16.58
-16.92
-17.21
-17.14
-16.54
-15.44
-13.99
-12.40
-10.83
-9.25
-7.48
-5.26
-2.41
1.05
4.79
8.32
11.11
12.86
13.58
13.58
13.28
13.09
13.23
13.73
14.51
15.38
16.14
16.59
16.53
15.83
14.49
12.66
10.64
8.71
7.09
5.83
4.85
3.97
3.06
2.05
0.97
-0.10
-1.07
-1.88
-2.51
-2.98
-3.38
-3.81
-4.39
-5.17
-6.16
-7.18
-7.98
-8.29
-7.94
-6.97
-5.60
-4.14
-2.79
-1.64
-0.60
0.42
1.44
2.40
3.17
3.70
4.03
4.28
4.59
5.01
5.49
5.97
6.42
6.91
7.53
8.32
9.16
9.78
9.86
9.14
7.53
5.19
2.47
-0.20
-2.42
-3.99
-4.93
-5.44
-5.76
-6.08
-6.41
-6.64
-6.56
-6.05
-5.10
-3.82
-2.36
-0.83
0.72
2.29
3.94
5.65
7.41
9.14
10.74
12.13
13.24
14.11
14.84
15.61
16.50
17.44
18.08
17.97
16.73
14.23
10.74
6.74
2.78
-0.81
-3.87
-6.46
-8.60
-10.28
-11.39
-11.90
-11.88
-11.57
-11.29
-11.28
-11.66
-12.31
-12.98
-13.36
-13.20
-12.35
-10.82
-8.78
-6.49
-4.27
-2.40
-1.02
-0.13
0.44
0.97
1.77
3.09
5.12
7.85
11.14
14.57
17.54
19.30
19.21
16.94
12.77
7.52
2.31
-1.79
-4.19
-4.93
-4.60
-3.99
-3.75
-4.15
-5.08
-6.21
-7.23
-7.96
-8.41
-8.67
-8.79
-8.77
-8.53
-8.04
-7.33
-6.51
-5.65
-4.73
-3.60
-2.08
-0.10
2.20
4.43
6.08
6.63
5.82
3.66
0.48
-3.19
-6.75
-9.66
-11.59
-12.45
-12.43
-11.94
-11.44
-11.36
-11.85
-12.83
-13.96
-14.78
-14.91
-14.15
-12.55
-10.33
-7.83
-5.39
-3.30
-1.77
-0.87
-0.57
-0.62
-0.63
-0.09
1.46
4.28
8.26
12.86
17.18
20.27
21.30
19.96
16.47
11.59
6.40
1.95
-1.00
-2.21
-1.96
-0.92
0.16
0.66
0.34
-0.69
-2.06
-3.40
-4.43
-5.04
-5.25
-5.13
-4.71
-4.03
-3.10
-2.00
-0.78
0.51
1.92
3.59
5.71
8.33
11.33
14.27
16.53
17.46
16.62
13.95
9.84
5.00
0.22
-3.92
-7.09
-9.31
-10.77
-11.71
-12.32
-12.65
-12.69
-12.38
-11.68
-10.63
-9.34
-7.98
-6.73
-5.71
-4.91
-4.21
-3.47
-2.56
-1.51
-0.42
0.62
1.69
3.10
5.26
8.46
12.63
17.24
21.40
24.19
24.96
23.53
20.25
15.75
10.79
6.06
2.11
-0.72
-2.33
-2.87
-2.77
-2.56
-2.76
-3.65
-5.20
-7.09
-8.87
-10.13
-10.66
-10.40
-9.48
-8.09
-6.44
-4.68
-2.95
-1.29
0.31
1.90
3.59
5.47
7.58
9.88
12.20
14.29
15.77
16.26
15.48
13.39
10.29
6.74
3.45
0.98
-0.42
-0.87
-0.80
-0.71
-1.02
-1.97
-3.60
-5.78
-8.27
-10.74
-12.82
-14.11
-14.33
-13.34
-11.24
-8.39
-5.29
-2.49
-0.39
0.96
1.82
2.77
4.40
7.11
10.90
15.35
19.72
23.18
24.99
24.66
22.06
17.53
11.82
5.97
1.01
-2.29
-3.69
-3.47
-2.30
-0.92
0.11
0.52
0.32
-0.32
-1.21
-2.20
-3.14
-3.91
-4.38
-4.41
-3.90
-2.85
-1.37
0.37
2.20
4.03
5.86
7.78
9.87
12.14
14.37
16.20
17.14
16.77
14.89
11.67
7.55
3.13
-1.00
-4.39
-6.82
-8.25
-8.78
-8.59
-7.93
-7.09
-6.41
-6.12
-6.36
-7.09
-8.15
-9.30
-10.24
-10.68
-10.34
-9.05
-6.85
-3.99
-0.87
2.08
4.58
6.64
8.48
10.38
12.59
15.16
17.93
20.63
22.86
24.18
24.12
22.26
18.45
12.93
6.40
-0.08
-5.41
-8.83
-10.12
-9.63
-8.03
-6.03
-4.15
-2.63
-1.53
-0.88
-0.75
-1.27
-2.42
-3.99
-5.52
-6.47
-6.38
-5.09
-2.76
0.24
3.51
6.77
9.87
12.74
15.24
17.14
18.17
18.09
16.82
14.46
11.27
7.54
3.59
-0.29
-3.76
-6.49
-8.22
-8.84
-8.43
-7.29
-5.81
-4.40
-3.34
-2.79
-2.74
-3.11
-3.72
-4.36
-4.83
-4.89
-4.41
-3.35
-1.82
-0.03
1.77
3.43
4.92
6.37
7.94
9.72
11.63
13.44
14.82
15.41
14.87
12.96
9.58
4.89
-0.61
-6.11
-10.69
-13.63
-14.70
-14.23
-12.91
-11.50
-10.47
-9.89
-9.58
-9.35
-9.16
-9.17
-9.57
-10.40
-11.42
-12.20
-12.33
-11.57
-9.97
-7.79
-5.35
-2.88
-0.42
2.06
4.58
6.99
9.03
10.36
10.81
10.41
9.39
8.04
6.55
4.90
2.99
0.80
-1.46
-3.38
-4.54
-4.69
-3.98
-2.82
-1.74
-1.14
-1.19
-1.85
-3.03
-4.63
-6.53
-8.51
-10.22
-11.24
-11.26
-10.17
-8.20
-5.69
-3.02
-0.43
2.08
4.66
7.51
10.76
14.44
18.41
22.37
25.80
28.03
28.33
26.18
21.51
14.79
6.98
-0.70
-7.21
-11.91
-14.69
-15.86
-15.94
-15.44
-14.71
-14.04
-13.62
-13.56
-13.86
-14.36
-14.72
-14.60
-13.68
-11.89
-9.39
-6.47
-3.47
-0.57
2.24
5.13
8.27
11.71
15.26
18.52
20.94
22.03
21.46
19.23
15.64
11.26
6.73
2.63
-0.72
-3.24
-5.13
-6.71
-8.33
-10.19
-12.28
-14.36
-16.06
-17.02
-17.11
-16.44
-15.38
-14.40
-13.83
-13.70
-13.79
-13.76
-13.30
-12.31
-10.92
-9.37
-7.86
-6.45
-5.13
-3.81
-2.47
-1.17
-0.04
0.80
1.33
1.60
1.79
2.04
2.45
3.01
3.67
4.33
4.94
5.51
6.05
6.53
6.86
6.84
6.29
5.06
3.16
0.73
-1.90
-4.33
-6.24
-7.42
-7.85
-7.65
-7.02
-6.16
-5.19
-4.16
-3.10
-2.09
-1.20
-0.51
-0.05
0.27
0.56
0.93
1.40
1.91
2.35
2.66
2.86
3.02
3.25
3.60
4.10
4.71
5.43
6.25
7.13
7.98
8.69
9.10
9.16
8.89
8.46
8.05
7.80
7.73
7.77
7.81
7.78
7.64
7.40
7.07
6.63
6.10
5.52
4.94
4.42
3.89
3.29
2.55
1.71
0.97
0.58
0.74
1.39
2.23
2.79
2.64
1.60
-0.17
-2.27
-4.19
-5.54
-6.12
-6.00
-5.34
-4.36
-3.17
-1.87
-0.54
0.64
1.41
1.54
0.90
-0.41
-2.07
-3.63
-4.69
-5.00
-4.58
-3.62
-2.41
-1.19
-0.15
0.64
1.19
1.52
1.62
1.46
0.97
0.13
-1.02
-2.32
-3.51
-4.36
-4.70
-4.56
-4.12
-3.64
-3.30
-3.11
-2.96
-2.67
-2.17
-1.52
-0.92
-0.54
-0.47
-0.61
-0.77
-0.78
-0.56
-0.18
0.21
0.51
0.70
0.87
1.14
1.59
2.18
2.79
3.26
3.46
3.35
2.95
2.35
1.62
0.86
0.12
-0.52
-0.98
-1.22
-1.25
-1.15
-1.03
-1.02
-1.18
-1.50
-1.86
-2.12
-2.14
-1.88
-1.39
-0.79
-0.21
0.21
0.37
0.25
-0.15
-0.73
-1.38
-1.89
-2.09
-1.86
-1.20
-0.24
0.83
1.83
2.64
3.25
3.72
4.09
4.38
4.54
4.53
4.32
3.91
3.36
2.78
2.26
1.85
1.58
