1660332574.00
64.000000
-0.00
-0.00
-0.00
-0.00
-0.00
-0.00
-0.00
-0.00
-0.00
-0.00
0.00
0.01
0.01
-0.00
-0.03
-0.05
-0.05
0.00
0.13
0.36
0.66
1.01
1.37
1.72
2.06
2.40
2.79
3.24
3.80
4.42
5.06
5.67
6.20
6.68
7.14
7.67
8.31
9.17
10.14
11.10
11.91
12.50
12.92
13.33
14.00
15.11
16.91
19.21
21.73
24.14
26.23
28.06
29.96
32.41
35.75
40.41
46.01
51.98
57.66
62.61
66.88
70.98
75.70
81.70
89.57
98.77
108.38
117.30
124.76
130.73
135.94
141.98
147.86
156.03
167.04
180.72
195.43
207.86
213.52
207.99
188.37
154.38
108.79
55.40
-1.89
-60.60
-119.81
-179.53
-239.58
-298.96
-356.00
-408.63
-455.85
-497.32
-533.17
-563.33
-587.21
-603.68
-611.11
-607.50
-590.37
-557.45
-507.23
-439.97
-358.44
-267.85
-174.72
-85.26
-3.95
67.05
127.23
176.90
216.32
245.63
265.14
275.89
279.70
278.75
274.94
269.25
261.84
252.25
240.09
225.44
209.06
192.11
175.80
160.99
147.98
136.62
126.53
117.27
108.50
99.97
91.49
82.91
74.16
65.31
56.56
48.13
40.17
32.66
25.56
18.87
12.81
7.74
3.91
1.31
-0.33
-1.45
-2.52
-3.80
-5.30
-6.88
-8.32
-9.48
-10.30
-10.76
-10.89
-10.75
-10.40
-9.97
-9.58
-9.30
-9.14
-9.02
-8.79
-8.28
-7.31
-5.76
-3.62
-1.08
1.47
3.54
4.65
4.57
3.35
1.31
-1.06
-3.27
-4.97
-5.98
-6.29
-6.03
-5.40
-4.63
-3.89
-3.28
-2.79
-2.35
-1.95
-1.63
-1.49
-1.59
-1.89
-2.29
-2.60
-2.72
-2.67
-2.52
-2.39
-2.33
-2.33
-2.38
-2.50
-2.69
-2.89
-2.93
-2.55
-1.49
0.26
2.47
4.64
6.25
6.97
6.72
5.69
4.25
2.70
1.28
0.11
-0.74
-1.23
-1.30
-0.95
-0.24
0.73
1.79
2.79
3.58
4.10
4.28
4.16
3.77
3.18
2.43
1.56
0.61
-0.41
-1.44
-2.43
-3.29
-4.00
-4.61
-5.21
-5.89
-6.70
-7.50
-8.05
-7.99
-7.02
-5.08
-2.39
0.48
2.87
4.22
4.29
3.23
1.46
-0.49
-2.23
-3.57
-4.45
-4.92
-5.04
-4.81
-4.27
-3.46
-2.52
-1.59
-0.83
-0.31
-0.07
-0.10
-0.32
-0.64
-0.99
-1.31
-1.57
-1.77
-1.88
-1.92
-1.88
-1.79
-1.66
-1.56
-1.56
-1.74
-2.07
-2.38
-2.38
-1.70
-0.11
2.36
5.39
8.43
10.89
12.36
12.71
12.09
10.78
8.87
6.58
4.09
1.56
-0.83
-2.88
-4.43
-5.37
-5.71
-5.57
-5.08
-4.39
-3.63
-2.86
-2.13
-1.47
-0.98
-0.79
-0.99
-1.56
-2.43
-3.43
-4.40
-5.22
-5.93
-6.61
-7.43
-8.51
-9.85
-11.26
-12.37
-12.70
-11.85
-9.59
-6.06
-1.70
2.81
6.83
9.89
11.81
12.68
12.70
12.07
10.94
9.42
7.61
5.69
3.87
2.35
1.30
0.76
0.71
1.02
1.51
1.98
2.24
2.16
1.67
0.86
-0.15
-1.16
-2.01
-2.65
-3.10
-3.45
-3.78
-4.15
-4.59
-5.13
-5.79
-6.57
-7.37
-7.92
-7.82
-6.65
-4.19
-0.55
3.78
8.10
11.72
14.13
15.15
14.89
13.62
11.69
9.48
7.28
5.34
3.77
2.58
1.75
1.26
1.12
1.35
1.88
2.58
3.21
3.51
3.32
2.65
1.61
0.36
-0.93
-2.17
-3.34
-4.40
-5.31
-6.02
-6.54
-6.93
-7.40
-8.16
-9.35
-10.89
-12.40
-13.30
-13.02
-11.19
-7.90
-3.64
0.83
4.80
7.77
9.54
10.17
9.86
8.78
7.10
5.00
2.71
0.52
-1.30
-2.56
-3.20
-3.30
-3.02
-2.54
-2.02
-1.59
-1.29
-1.11
-1.01
-0.92
-0.87
-0.92
-1.16
-1.65
-2.36
-3.23
-4.17
-5.12
-6.15
-7.30
-8.58
-9.78
-10.52
-10.35
-8.93
-6.20
-2.47
1.69
5.65
8.87
11.10
12.32
12.64
12.19
11.04
9.26
7.02
4.62
2.41
0.74
-0.24
-0.56
-0.41
-0.03
0.41
0.74
0.83
0.58
-0.09
-1.17
-2.49
-3.82
-4.94
-5.78
-6.38
-6.92
-7.57
-8.43
-9.49
-10.63
-11.70
-12.52
-12.82
-12.33
-10.79
-8.08
-4.37
-0.09
4.13
7.66
10.07
11.21
11.24
10.49
9.30
7.92
6.49
5.08
3.75
2.58
1.70
1.20
1.13
1.46
2.07
2.76
3.31
3.52
3.27
2.56
1.46
0.14
-1.18
-2.30
-3.11
-3.63
-3.98
-4.36
-4.98
-5.89
-7.01
-8.08
-8.70
-8.47
-7.08
-4.44
-0.75
3.54
7.81
11.47
14.07
15.39
15.51
14.65
13.10
11.08
8.80
6.43
4.21
2.40
1.21
0.70
0.76
1.15
1.58
1.83
1.81
1.56
1.16
0.65
0.02
-0.80
-1.83
-3.01
-4.20
-5.26
-6.14
-6.90
-7.76
-8.92
-10.45
-12.17
-13.62
-14.23
-13.48
-11.18
-7.52
-3.10
1.31
5.01
7.59
8.98
9.38
9.08
8.30
7.14
5.62
3.82
1.91
0.22
-0.96
-1.44
-1.29
-0.74
-0.14
0.21
0.13
-0.39
-1.23
-2.21
-3.14
-3.89
-4.38
-4.61
-4.66
-4.66
-4.79
-5.19
-5.95
-7.06
-8.35
-9.47
-9.99
-9.47
-7.61
-4.48
-0.44
3.88
7.81
10.84
12.73
13.49
13.27
12.30
10.79
8.93
6.93
5.03
3.44
2.34
1.78
1.68
1.87
2.13
2.27
2.17
1.80
1.19
0.44
-0.36
-1.14
-1.90
-2.67
-3.45
-4.25
-5.05
-5.89
-6.79
-7.83
-8.96
-10.02
-10.63
-10.35
-8.79
-5.85
-1.77
2.86
7.30
10.89
13.27
14.36
14.36
13.56
12.23
10.59
8.78
6.96
5.29
3.93
2.97
2.43
2.24
2.26
2.33
2.32
2.12
1.68
1.05
0.27
-0.58
-1.44
-2.28
-3.12
-4.02
-5.05
-6.24
-7.63
-9.20
-10.93
-12.68
-14.23
-15.18
-15.10
-13.63
-10.68
-6.54
-1.83
2.64
6.18
8.38
9.21
8.91
7.86
6.41
4.77
3.08
1.45
0.03
-0.96
-1.38
-1.19
-0.52
0.37
1.14
1.54
1.44
0.84
-0.11
-1.23
-2.36
-3.39
-4.35
-5.30
-6.34
-7.52
-8.83
-10.16
-11.39
-12.33
-12.80
-12.56
-11.35
-8.97
-5.35
-0.76
4.28
9.06
12.89
15.31
16.17
15.62
13.99
11.66
8.99
6.27
3.79
1.78
0.39
-0.28
-0.31
0.15
0.83
1.51
1.98
2.13
2.00
1.70
1.41
1.28
1.40
1.70
2.03
2.23
2.17
1.83
1.25
0.48
-0.42
-1.32
-2.00
-2.05
-1.03
1.41
5.30
10.29
15.69
20.75
24.87
27.77
29.46
30.19
30.22
29.76
28.98
28.03
27.12
26.47
26.25
26.39
26.56
26.13
24.38
20.74
15.11
7.99
0.32
-6.79
-12.41
-16.08
-17.93
-18.54
-18.75
-19.31
-20.73
-23.21
-26.74
-31.09
-35.87
-40.55
-44.45
-46.97
-47.60
-46.07
-42.55
-37.59
-31.93
-26.23
-20.93
-16.17
-11.89
-7.76
-3.36
1.57
7.06
12.85
18.51
23.43
27.71
31.03
33.09
33.85
33.49
32.44
30.65
28.27
25.36
21.90
17.72
12.56
7.01
1.49
-3.64
-8.16
-11.97
-15.14
-17.76
-19.97
-21.90
-23.50
-24.59
-24.93
-24.37
-22.91
-20.68
-17.97
-15.15
-12.91
-11.72
-11.77
-12.92
-14.85
-17.20
-19.62
-21.82
-23.58
-25.22
-26.86
-28.37
-29.37
-29.48
-28.56
-26.79
-24.58
-20.00
-12.72
-3.99
4.21
10.58
14.97
17.75
19.30
19.81
19.35
17.67
14.92
11.77
9.22
8.18
9.09
11.97
16.34
21.38
25.81
28.58
29.26
28.04
25.48
22.20
18.70
15.38
12.51
9.92
7.51
5.34
3.65
2.70
2.36
2.54
3.01
3.54
3.63
2.95
1.53
-0.33
-1.80
-3.24
-4.47
-5.38
-5.96
-6.79
-8.47
-11.34
-15.36
-19.44
-22.94
-25.33
-26.51
-26.82
-27.37
-29.24
-32.85
-37.84
-43.50
-49.40
-55.18
-60.34
-60.84
-53.24
-36.52
-12.72
14.42
40.95
63.46
80.08
90.78
96.80
99.00
97.34
91.10
79.74
63.82
45.28
27.18
12.41
2.58
-2.88
-5.76
-7.85
-10.05
-12.23
-13.86
-14.51
-14.19
-13.34
-12.75
-12.92
-13.73
-14.52
-14.43
-12.92
-9.96
-6.03
-2.01
0.99
2.11
1.04
-1.84
-5.60
-9.08
-11.30
-11.74
-10.48
-8.21
-5.84
-3.98
-2.83
-2.12
-1.30
0.04
2.03
4.42
6.75
8.55
9.62
9.90
9.39
8.03
5.59
1.89
-2.96
-8.55
-14.17
-19.15
-23.07
-25.90
-27.80
-28.90
-29.06
-27.78
-24.54
-19.12
-11.93
-3.94
3.70
10.13
15.18
19.25
22.99
26.83
30.55
33.34
34.22
32.44
28.39
23.10
17.80
13.39
10.08
7.47
4.98
2.24
-0.64
-3.26
-5.26
-6.57
-7.41
-8.22
-9.33
-10.82
-12.57
-14.23
-15.50
-16.17
-16.16
-15.46
-14.07
-12.05
-9.50
-6.61
-3.67
-1.01
1.11
2.51
3.19
3.25
2.84
2.11
1.23
0.36
-0.33
-0.65
-0.52
0.08
1.03
2.13
3.09
3.67
3.69
3.11
2.06
0.79
-0.42
-1.30
-1.75
-1.79
-1.59
-1.34
-1.21
-1.35
-1.78
-2.49
-3.31
-3.96
-4.08
-3.36
-1.65
0.86
3.70
6.24
7.92
8.45
7.87
6.48
4.65
2.70
0.82
-0.90
-2.40
-3.62
-4.51
-5.05
-5.28
-5.24
-5.01
-4.63
-4.17
-3.66
-3.19
-2.79
-2.46
-2.16
-1.79
-1.34
-0.84
-0.50
-0.53
-1.06
-2.12
-3.57
-5.24
-6.92
-8.48
-9.80
-10.76
-11.17
-10.80
-9.43
-6.99
-3.68
0.10
3.81
7.00
9.39
10.98
11.85
12.09
11.70
10.64
9.00
7.01
5.08
3.66
3.03
3.28
4.23
5.61
7.12
8.47
9.37
9.47
8.50
6.33
3.09
-0.82
-4.86
-8.52
-11.55
-13.91
-15.73
-17.17
-18.29
-18.98
-19.11
-18.52
-17.16
-15.07
-12.42
-9.44
-6.46
-3.78
-1.68
-0.31
0.32
0.30
-0.18
-0.93
-1.79
-2.57
-3.01
-2.86
-1.89
-0.02
2.65
5.86
9.36
13.02
16.85
20.99
25.53
30.40
35.32
39.86
43.48
45.73
46.25
44.87
41.62
36.79
30.89
24.69
19.07
14.87
12.71
12.84
15.04
18.67
22.78
26.29
28.27
28.12
25.67
21.16
15.13
8.17
0.85
-6.41
-13.34
-19.75
-25.50
-30.46
-34.59
-37.84
-40.23
-41.77
-42.48
-42.34
-41.41
-39.81
-37.79
-35.64
-33.75
-32.47
-32.11
-32.81
-34.46
-36.63
-38.61
-39.54
-38.66
-35.61
-30.60
-24.32
-17.76
-11.84
-7.10
-3.62
-1.07
0.94
2.71
4.23
5.29
5.72
5.52
4.99
4.59
4.76
5.70
7.32
9.29
11.20
12.76
13.95
15.02
16.44
18.76
22.42
27.65
34.34
41.95
49.54
55.72
58.95
57.81
51.60
40.69
26.73
12.27
0.02
-7.99
-11.04
-9.75
-5.64
-0.40
4.69
8.95
12.23
14.54
15.88
16.22
15.54
13.95
11.74
9.20
6.54
3.77
0.66
-3.10
-7.81
-13.49
-19.78
-25.94
-31.10
-34.49
-35.82
-35.36
-33.82
-32.09
-30.89
-30.57
-31.15
-32.37
-33.90
-35.35
-36.31
-36.31
-34.91
-31.83
-27.13
-21.25
-14.92
-8.92
-3.86
0.01
2.77
4.70
6.09
7.09
7.67
7.69
7.12
6.09
4.95
4.19
4.20
5.13
6.76
8.66
10.33
11.56
12.55
13.91
16.44
20.81
27.29
35.59
44.80
53.54
60.06
62.58
59.69
50.89
36.97
20.09
3.30
-10.28
-18.47
-20.66
-17.82
-11.93
-5.11
1.14
6.20
10.16
13.41
16.18
18.45
20.03
20.75
20.61
19.71
18.09
15.58
11.83
6.42
-0.79
-9.48
-18.82
-27.61
-34.69
-39.21
-40.97
-40.38
-38.33
-35.80
-33.64
-32.36
-32.12
-32.87
-34.40
-36.45
-38.61
-40.33
-40.95
-39.84
-36.69
-31.64
-25.28
-18.51
-12.21
-7.01
-3.13
-0.46
1.32
2.50
3.32
3.87
4.20
4.35
4.40
4.46
4.65
5.05
5.71
6.64
7.85
9.35
11.14
13.20
15.43
17.71
19.90
21.96
23.93
25.98
28.36
31.32
34.94
39.02
43.01
46.13
47.67
47.32
45.41
42.75
40.27
38.51
37.41
36.35
34.52
31.38
26.82
21.10
14.60
7.51
-0.07
-8.06
-16.13
-23.69
-30.04
-34.70
-37.56
-38.96
-39.46
-39.57
-39.64
-39.72
-39.73
-39.54
-39.09
-38.46
-37.74
-37.02
-36.31
-35.51
-34.48
-33.13
-31.48
-29.73
-28.23
-27.39
-27.52
-28.59
-30.18
-31.46
-31.50
-29.61
-25.60
-19.91
-13.43
-7.15
-1.80
2.34
5.39
7.70
9.52
10.92
11.75
11.84
11.10
9.62
7.67
5.57
3.67
2.20
1.36
1.23
1.86
3.21
5.15
7.47
9.98
12.56
15.20
18.01
21.17
24.82
28.95
33.39
37.77
41.58
44.25
45.35
44.78
42.93
40.59
38.75
38.20
39.33
41.96
45.56
49.48
53.24
56.65
59.70
62.50
65.11
67.46
69.37
70.48
70.33
68.34
64.06
57.26
48.11
37.18
25.37
13.73
3.31
-5.01
-10.61
-13.27
-13.28
-11.50
-9.26
-8.02
-8.99
-12.65
-18.55
-25.54
-32.14
-37.19
-40.21
-41.49
-41.79
-41.86
-42.06
-42.24
-41.88
-40.50
-37.89
-34.28
-30.16
-26.12
-22.56
-19.65
-17.33
-15.46
-13.98
-12.92
-12.40
-12.47
-12.99
-13.68
-14.12
-13.98
-13.14
-11.71
-9.97
-8.19
-6.50
-4.83
-2.98
-0.75
1.85
4.58
7.00
8.66
9.25
8.78
7.47
5.71
3.83
1.98
0.14
-1.91
-4.39
-7.46
-11.08
-14.96
-18.54
-21.13
-22.07
-20.98
-17.88
-13.22
-7.71
-2.10
3.03
7.34
10.68
13.02
14.35
14.66
14.01
12.57
10.64
8.57
6.68
5.20
4.19
3.60
3.26
3.01
2.72
2.34
1.88
1.41
0.96
0.49
-0.10
-0.96
-2.14
-3.60
-5.11
-6.41
-7.38
-8.15
-9.21
-11.26
-14.94
-20.54
-27.77
-35.73
-43.06
-48.26
-50.13
-48.07
-42.30
-33.75
-23.74
-13.64
-4.46
3.30
9.57
14.55
18.41
21.21
22.96
23.67
23.47
22.60
21.29
19.68
17.82
15.71
13.42
11.13
9.07
7.41
6.14
5.02
3.74
2.00
-0.30
-3.00
-5.81
-8.39
-10.53
-12.20
-13.53
-14.76
-16.10
-17.71
-19.61
-21.66
-23.66
-25.37
-26.71
-27.78
-28.86
-30.39
-32.76
-36.18
-40.53
-45.22
-49.24
-51.28
-50.16
-45.19
-36.53
-25.24
-12.93
-1.31
8.42
15.80
21.05
24.72
27.30
29.02
29.85
29.72
28.75
27.24
25.59
24.13
22.93
21.86
20.68
19.26
17.68
16.17
15.04
14.47
14.37
14.47
14.36
13.70
12.31
10.26
7.78
5.19
2.79
0.73
-1.04
-2.69
-4.54
-6.88
-9.84
-13.33
-17.03
-20.50
-23.36
-25.42
-26.82
-27.95
-29.34
-31.48
-34.63
-38.68
-43.11
-47.00
-49.15
-48.41
-43.97
-35.77
-24.53
-11.70
0.98
12.01
20.48
26.26
29.73
31.56
32.30
32.29
31.63
30.39
28.68
26.74
24.78
22.99
21.38
19.92
18.58
17.40
16.49
15.98
15.87
16.00
16.06
15.70
14.70
13.03
10.89
8.57
6.29
4.09
1.80
-0.89
-4.16
-8.00
-12.11
-16.04
-19.37
-21.93
-23.88
-25.61
-27.66
-30.44
-34.11
-38.44
-42.82
-46.30
-47.74
-46.13
-40.86
-32.03
-20.47
-7.62
4.89
15.66
23.84
29.27
32.29
33.52
33.55
32.78
31.45
29.71
27.73
25.73
23.94
22.53
21.52
20.77
20.09
19.33
18.49
17.66
16.99
16.50
16.06
15.39
14.20
12.33
9.87
7.09
4.37
2.00
0.06
-1.57
-3.16
-5.05
-7.48
-10.51
-13.98
-17.56
-20.83
-23.50
-25.46
-26.92
-28.31
-30.18
-33.00
-36.98
-41.85
-46.84
-50.66
-51.86
-49.19
-42.11
-31.04
-17.36
-3.01
10.13
20.72
28.27
33.05
35.69
36.89
37.08
36.50
35.31
33.69
31.94
30.33
29.01
27.89
26.72
25.26
23.46
21.50
19.80
18.74
18.48
18.82
19.28
19.26
18.30
16.29
13.44
10.26
7.30
4.94
3.26
2.02
0.73
-1.10
-3.77
-7.28
-11.30
-15.35
-19.01
-22.07
-24.62
-27.05
-29.84
-33.46
-38.10
-43.60
-49.30
-54.07
-56.52
-55.34
-49.78
-39.96
-26.96
-12.52
1.42
13.32
22.38
28.57
32.34
34.35
35.10
34.87
33.83
32.11
29.99
27.78
25.76
24.03
22.48
20.94
19.25
17.46
15.84
14.76
14.48
14.94
15.81
16.48
16.38
15.13
12.74
9.58
6.19
3.12
0.66
-1.20
-2.83
-4.68
-7.12
-10.24
-13.83
-17.45
-20.68
-23.26
-25.21
-26.80
-28.47
-30.67
-33.76
-37.87
-42.79
-47.77
-51.60
-52.78
-50.00
-42.63
-31.08
-16.86
-2.10
11.09
21.30
28.06
31.74
33.18
33.13
32.08
30.22
27.70
24.78
21.85
19.37
17.63
16.71
16.47
16.69
17.14
17.67
18.19
18.66
18.97
18.92
18.29
16.90
14.69
11.82
8.61
5.43
2.52
-0.09
-2.63
-5.38
-8.49
-11.86
-15.15
-17.93
-19.92
-21.11
-21.81
-22.60
-24.09
-26.81
-30.95
-36.22
-41.75
-46.17
-47.86
-45.49
-38.54
-27.53
-14.04
-0.11
12.32
22.03
28.67
32.57
34.38
34.68
33.86
32.15
29.82
27.25
24.85
22.95
21.63
20.76
20.10
19.48
18.88
18.42
18.23
18.29
18.38
18.15
17.23
15.44
12.86
9.78
6.62
3.69
1.12
-1.23
-3.65
-6.39
-9.54
-12.97
-16.35
-19.35
-21.79
-23.73
-25.46
-27.43
-30.13
-33.94
-39.00
-44.99
-51.04
-55.67
-57.17
-54.08
-45.81
-33.06
-17.64
-2.00
11.69
22.12
29.12
33.31
35.63
36.77
37.05
36.51
35.25
33.53
31.78
30.33
29.26
28.32
27.15
25.48
23.33
20.99
18.97
17.64
17.12
17.17
17.29
16.89
15.55
13.17
10.02
6.63
3.54
1.07
-0.84
-2.59
-4.67
-7.46
-10.96
-14.83
-18.54
-21.63
-23.92
-25.58
-27.04
-28.84
-31.46
-35.16
-39.91
-45.27
-50.32
-53.76
-54.17
-50.43
-42.22
-30.27
-16.20
-2.10
10.21
19.66
26.10
30.11
32.47
33.81
34.36
34.14
33.12
31.47
29.52
27.64
26.08
24.83
23.75
22.66
21.55
20.60
20.05
20.02
20.36
20.70
20.54
19.52
17.59
15.04
12.36
9.98
8.05
6.46
4.84
2.81
0.14
-3.13
-6.73
-10.27
-13.37
-15.86
-17.76
-19.38
-21.14
-23.53
-26.88
-31.17
-35.86
-39.87
-41.83
-40.45
-35.08
-25.97
-14.33
-1.94
9.41
18.44
24.68
28.32
29.89
29.94
28.86
26.90
24.33
21.48
18.72
16.38
14.57
13.24
12.26
11.50
10.95
10.71
10.82
11.24
11.73
11.96
11.58
10.42
8.50
6.07
3.44
0.92
-1.38
-3.51
-5.66
-8.01
-10.63
-13.41
-16.12
-18.57
-20.64
-22.44
-24.27
-26.47
-29.40
-33.23
-37.93
-43.03
-47.67
-50.56
-50.33
-45.96
-37.22
-24.96
-10.89
2.93
14.76
23.68
29.65
33.22
35.07
35.66
35.20
33.80
31.69
29.24
26.89
24.93
23.41
22.14
20.88
19.52
18.13
16.96
16.24
16.05
16.24
16.44
16.23
15.27
13.42
10.81
7.75
4.59
1.59
-1.20
-3.88
-6.66
-9.65
-12.82
-15.97
-18.82
-21.14
-22.92
-24.33
-25.72
-27.51
-30.09
-33.71
-38.37
-43.71
-48.88
-52.54
-53.21
-49.68
-41.59
-29.73
-15.87
-2.20
9.41
18.01
23.67
27.18
29.44
31.00
31.96
32.12
31.36
29.80
27.87
25.99
24.45
23.21
22.07
20.80
19.33
17.84
16.62
15.96
15.91
16.24
16.52
16.22
15.02
12.89
10.19
7.42
5.06
3.26
1.81
0.24
-1.91
-4.80
-8.28
-11.87
-15.09
-17.60
-19.41
-20.79
-22.12
-23.85
-26.29
-29.62
-33.72
-38.13
-41.95
-43.94
-42.88
-37.96
-29.20
-17.53
-4.54
8.00
18.69
26.81
32.28
35.44
36.72
36.45
34.87
32.22
28.92
25.46
22.27
19.61
17.45
15.56
13.72
11.86
10.10
8.68
7.77
7.37
7.25
7.09
6.62
5.72
4.44
2.96
1.44
-0.05
-1.57
-3.28
-5.36
-7.88
-10.77
-13.82
-16.73
-19.19
-21.06
-22.39
-23.48
-24.78
-26.79
-29.85
-33.93
-38.50
-42.53
-44.65
-43.57
-38.53
-29.65
-18.00
-5.32
6.55
16.21
23.00
27.02
28.84
29.14
28.47
27.15
25.42
23.54
21.82
20.55
19.89
19.77
19.95
20.06
19.84
19.23
18.41
17.72
17.45
17.63
17.99
18.05
17.32
15.55
12.86
9.71
6.64
4.05
1.99
0.20
-1.73
-4.15
-7.14
-10.54
-14.02
-17.29
-20.18
-22.71
-25.04
-27.38
-30.02
-33.19
-36.99
-41.21
-45.16
-47.71
-47.50
-43.52
-35.56
-24.44
-11.86
0.21
10.25
17.57
22.41
25.56
27.80
29.54
30.76
31.22
30.74
29.45
27.75
26.10
24.78
23.79
22.87
21.72
20.19
18.41
16.67
15.31
14.50
14.12
13.85
13.28
12.09
10.22
7.81
5.20
2.72
0.59
-1.18
-2.79
-4.55
-6.73
-9.46
-12.58
-15.78
-18.65
-20.91
-22.54
-23.80
-25.14
-27.08
-30.03
-34.15
-39.30
-44.93
-50.02
-53.24
-53.19
-48.94
-40.41
-28.60
-15.33
-2.67
7.77
15.26
20.05
22.94
24.76
26.04
26.87
27.12
26.70
25.74
24.54
23.40
22.46
21.67
20.84
19.79
18.51
17.15
15.99
15.30
15.18
15.48
15.81
15.71
14.82
13.00
10.44
7.56
4.79
2.41
0.43
-1.42
-3.48
-6.00
-8.96
-12.11
-15.07
-17.56
-19.48
-20.97
-22.34
-23.97
-26.21
-29.27
-33.13
-37.45
-41.50
-44.25
-44.60
-41.76
-35.56
-26.55
-15.89
-4.93
5.16
13.70
20.51
25.75
29.64
32.29
33.68
33.78
32.73
30.85
28.67
26.67
25.19
24.28
23.81
23.54
23.36
23.26
23.34
23.61
23.95
24.01
23.41
21.86
19.33
16.10
12.58
9.20
6.18
3.48
0.85
-2.02
-5.28
-8.91
-12.64
-16.13
-19.11
-21.50
-23.46
-25.34
-27.56
-30.54
-34.49
-39.35
-44.55
-49.06
-51.51
-50.55
-45.41
-36.19
-24.03
-10.73
1.80
12.13
19.64
24.47
27.20
28.44
28.59
27.89
26.49
24.65
22.71
20.99
19.67
18.71
17.92
17.11
16.19
15.22
14.43
14.04
14.15
14.66
15.26
15.47
14.86
13.22
10.62
7.50
4.39
1.72
-0.38
-2.14
-3.98
-6.28
-9.13
-12.32
-15.44
-18.09
-20.07
-21.47
-22.61
-23.88
-25.73
-28.49
-32.33
-37.19
-42.56
-47.47
-50.55
-50.42
-46.18
-37.77
-26.21
-13.23
-0.75
9.72
17.50
22.71
25.96
27.92
29.04
29.50
29.32
28.60
27.55
26.47
25.62
25.07
24.70
24.25
23.52
22.42
21.08
19.79
18.82
18.33
18.23
18.22
17.92
17.02
15.43
13.27
10.82
8.34
5.96
3.69
1.44
-0.92
-3.43
-6.13
-8.97
-11.88
-14.73
-17.37
-19.68
-21.63
-23.36
-25.14
-27.30
-30.11
-33.69
-37.91
-42.31
-46.08
-48.17
-47.51
-43.34
-35.59
-25.01
-13.03
-1.33
8.69
16.28
21.42
24.59
26.37
27.16
27.12
26.33
24.95
23.36
22.03
21.36
21.49
22.26
23.31
24.26
24.89
25.15
25.11
24.79
24.11
22.89
20.96
18.29
15.06
11.58
8.17
4.99
2.01
-1.00
-4.25
-7.89
-11.79
-15.67
-19.19
-22.08
-24.21
-25.71
-26.83
-27.96
-29.53
-31.88
-35.16
-39.11
-42.93
-45.36
-45.03
-40.94
-32.93
-21.89
-9.50
2.35
12.17
19.31
23.90
26.59
28.05
28.72
28.75
28.18
27.13
25.87
24.71
23.87
23.33
22.86
22.16
21.02
19.50
17.87
16.53
15.78
15.66
15.94
16.15
15.77
14.48
12.25
9.38
6.35
3.60
1.37
-0.47
-2.28
-4.51
-7.42
-10.98
-14.87
-18.58
-21.68
-24.01
-25.74
-27.29
-29.24
-32.07
-36.02
-40.97
-46.35
-51.14
-54.02
-53.62
-49.07
-40.31
-28.33
-14.88
-1.91
9.02
17.25
22.96
26.84
29.56
31.48
32.57
32.70
31.90
30.49
28.93
27.62
26.66
25.89
24.94
23.56
21.71
19.64
17.73
16.34
15.57
15.25
14.93
14.14
12.53
10.08
7.07
3.97
1.25
-0.84
-2.36
-3.67
-5.26
-7.54
-10.59
-14.17
-17.80
-20.95
-23.33
-24.97
-26.25
-27.67
-29.75
-32.78
-36.82
-41.51
-46.09
-49.43
-50.20
-47.29
-40.27
-29.72
-17.11
-4.43
6.56
14.83
20.27
23.53
25.50
26.85
27.85
28.43
28.41
27.74
26.60
25.29
24.14
23.33
22.84
22.50
22.15
21.67
21.11
20.62
20.31
20.17
19.98
19.43
18.25
16.35
13.90
11.26
8.78
6.64
4.75
2.79
0.37
-2.69
-6.34
-10.20
-13.77
-16.61
-18.57
-19.84
-20.91
-22.35
-24.65
-28.02
-32.24
-36.70
-40.38
-42.13
-40.89
-36.11
-27.95
-17.35
-5.87
4.88
13.65
19.86
23.65
25.57
26.22
25.98
25.01
23.33
21.11
18.72
16.61
15.11
14.29
13.94
13.72
13.38
12.96
12.66
12.76
13.31
14.09
14.62
14.39
13.11
10.84
7.93
4.87
2.00
-0.55
-2.93
-5.36
-8.02
-10.88
-13.76
-16.38
-18.55
-20.24
-21.62
-22.95
-24.57
-26.78
-29.83
-33.79
-38.43
-43.09
-46.63
-47.66
-44.97
-38.04
-27.35
-14.42
-1.24
10.32
19.15
25.07
28.62
30.61
31.65
32.01
31.71
30.80
29.45
28.01
26.81
25.97
25.35
24.65
23.62
22.21
20.63
19.27
18.46
18.35
18.76
19.24
19.22
18.25
16.17
13.19
9.78
6.55
3.94
2.10
0.82
-0.38
-2.01
-4.41
-7.66
-11.49
-15.43
-19.00
-21.89
-24.06
-25.77
-27.50
-29.80
-33.11
-37.57
-42.92
-48.31
-52.50
-54.07
-51.84
-45.39
-35.22
-22.76
-9.89
1.62
10.66
16.95
20.91
23.26
24.63
25.38
25.63
25.39
24.73
23.84
22.85
21.85
20.78
19.53
18.03
16.38
14.78
13.50
12.70
12.39
12.38
12.37
12.05
11.19
9.70
7.67
5.30
2.89
0.69
-1.15
-2.66
-4.08
-5.69
-7.74
-10.25
-13.00
-15.66
-17.90
-19.64
-21.05
-22.55
-24.63
-27.66
-31.74
-36.57
-41.46
-45.39
-47.19
-45.84
-40.83
-32.35
-21.37
-9.36
2.11
11.85
19.29
24.44
27.67
29.37
29.81
29.13
27.47
25.12
22.48
20.00
18.00
16.59
15.67
15.09
14.75
14.65
14.82
15.23
15.69
15.83
15.30
13.82
11.43
8.41
5.18
2.15
-0.46
-2.68
-4.67
-6.68
-8.82
-11.07
-13.34
-15.49
-17.52
-19.52
-21.70
-24.34
-27.66
-31.82
-36.77
-42.12
-47.13
-50.68
-51.60
-48.93
-42.34
-32.31
-20.06
-7.18
4.81
14.86
22.55
27.98
31.51
33.51
34.27
34.03
33.02
31.54
29.90
28.37
27.09
26.10
25.37
24.88
24.66
24.75
25.16
25.76
26.33
26.55
26.12
24.80
22.47
19.21
15.27
11.06
7.01
3.42
0.33
-2.43
-5.23
-8.37
-11.96
-15.85
-19.67
-23.08
-25.91
-28.28
-30.59
-33.34
-37.00
-41.74
-47.31
-52.92
-57.26
-58.85
-56.49
-49.73
-39.18
-26.40
-13.40
-2.01
6.67
12.40
15.68
17.29
17.97
18.20
18.27
18.38
18.66
19.18
19.88
20.55
20.92
20.81
20.18
19.21
18.22
17.51
17.29
17.59
18.17
18.67
18.68
17.89
16.20
13.77
10.95
8.16
5.75
3.85
2.33
0.86
-0.93
-3.24
-6.02
-9.01
-11.82
-14.15
-15.97
-17.50
-19.19
-21.54
-24.90
-29.34
-34.53
-39.71
-43.78
-45.52
-43.92
-38.61
-30.05
-19.43
-8.38
1.62
9.67
15.55
19.65
22.56
24.75
26.45
27.62
28.23
28.33
28.11
27.83
27.65
27.60
27.53
27.28
26.79
26.19
25.73
25.68
26.15
26.95
27.70
27.94
27.37
25.99
24.10
22.11
20.26
18.51
16.54
13.95
10.51
6.32
1.79
-2.53
-6.19
-9.01
-11.06
-12.64
-14.15
-16.04
-18.64
-22.14
-26.35
-30.63
-33.95
-35.11
-33.19
-27.88
-19.68
-9.79
0.30
9.25
16.27
21.16
24.22
25.92
26.65
26.57
25.74
24.26
22.31
20.22
18.30
16.73
15.47
14.34
13.19
12.01
10.99
10.33
10.11
10.16
10.09
9.49
8.17
6.20
3.87
1.55
-0.56
-2.48
-4.38
-6.52
-9.04
-11.92
-15.07
-18.28
-21.41
-24.34
-27.01
-29.44
-31.77
-34.25
-37.17
-40.72
-44.78
-48.77
-51.61
-52.01
-48.89
-41.84
-31.42
-18.98
-6.32
4.93
13.78
20.00
23.95
26.26
27.49
28.01
27.99
27.58
26.91
26.13
25.33
24.51
23.54
22.27
20.63
18.73
16.84
15.30
14.37
14.11
14.28
14.47
14.22
13.26
11.58
9.41
7.09
4.86
2.75
0.62
-1.78
-4.64
-7.92
-11.40
-14.76
-17.70
-20.10
-22.03
-23.75
-25.61
-27.95
-31.03
-34.93
-39.47
-44.09
-47.85
-49.56
-48.13
-42.97
-34.30
-23.14
-11.05
0.36
9.91
17.03
21.81
24.70
26.26
26.94
27.01
26.60
25.78
24.65
23.36
22.08
20.92
19.86
18.79
17.56
16.14
14.63
13.30
12.38
11.90
11.66
11.25
10.31
8.68
6.53
4.25
2.24
0.69
-0.46
-1.55
-2.98
-5.06
-7.83
-11.06
-14.30
-17.09
-19.12
-20.42
-21.35
-22.47
-24.32
-27.24
-31.14
-35.53
-39.49
-41.94
-41.80
-38.33
-31.43
-21.71
-10.46
0.76
10.54
18.02
23.06
26.05
27.61
28.27
28.32
27.87
26.97
25.76
24.51
23.47
22.83
22.60
22.65
22.79
22.90
22.91
22.80
22.54
22.00
21.03
19.51
17.47
15.12
12.75
10.68
9.00
7.61
6.19
4.33
1.64
-2.10
-6.95
-12.77
-19.30
-26.21
-33.22
-40.13
-46.93
-53.76
-60.77
-68.02
-75.35
-82.36
-88.52
-93.30
-96.36
-97.51
-96.71
-93.87
-88.76
-81.02
-70.31
-56.53
-40.03
-21.72
-2.89
15.00
30.67
43.25
52.39
58.27
61.48
62.89
63.47
64.06
65.21
67.02
69.19
71.16
72.36
72.46
71.47
69.62
67.21
64.45
61.32
57.73
53.60
48.98
44.02
38.98
34.04
29.32
24.85
20.60
16.56
12.64
8.69
4.48
-0.20
-5.44
-11.07
-16.58
-21.21
-24.13
-24.73
-22.82
-18.72
-13.16
-7.06
-1.24
3.70
7.42
9.73
10.54
9.81
7.71
4.67
1.39
-1.33
-2.83
-2.90
-1.76
-0.05
1.51
2.27
1.92
0.45
-1.92
-4.83
-7.90
-10.84
-13.41
-15.46
-16.99
-18.07
-18.93
-19.88
-21.21
-23.13
-25.66
-28.58
-31.55
-34.24
-36.43
-38.15
-39.63
-41.26
-43.45
-46.49
-50.44
-55.06
-59.73
-63.61
-65.82
-65.69
-62.97
-57.80
-50.77
-42.70
-34.53
-27.03
-20.73
-15.76
-11.96
-8.96
-6.27
-3.55
-0.68
2.15
4.62
6.46
7.54
7.92
7.81
7.61
7.73
8.36
9.48
10.88
12.30
13.44
14.11
14.18
14.08
14.19
14.63
15.12
15.31
15.00
14.24
13.29
12.44
12.74
14.88
18.76
23.53
28.21
32.35
36.09
39.98
44.65
51.83
62.49
76.21
91.16
105.12
116.51
124.76
130.06
133.20
136.88
143.31
153.15
165.33
177.82
188.76
196.64
200.10
187.45
152.43
97.68
35.02
-21.80
-64.14
-89.99
-102.04
-105.63
-105.91
-104.24
-100.63
-95.06
-88.32
-81.70
-76.34
-72.18
-69.20
-67.30
-64.97
-61.02
-55.23
-48.65
-42.92
-39.27
-38.02
-38.75
-40.30
-40.47
-37.76
-32.11
-25.10
-19.15
-16.33
-17.58
-22.59
-29.92
-37.17
-42.27
-44.17
-43.09
-40.17
-36.80
-34.15
-32.98
-33.48
-35.24
-37.70
-40.32
-42.75
-44.83
-46.43
-47.46
-47.75
-47.16
-45.56
-43.00
-39.80
-36.43
-33.45
-31.12
-29.31
-27.34
-24.28
-19.30
-12.09
-3.10
6.58
15.56
22.64
27.10
28.88
28.42
26.41
23.56
20.41
17.32
14.46
11.89
9.58
7.50
5.63
3.99
2.63
1.54
0.64
-0.26
-1.39
-2.93
-4.97
-7.45
-10.25
-13.21
-16.20
-19.08
-21.74
-24.08
-26.00
-27.51
-28.66
-29.55
-30.20
-30.45
-29.97
-28.28
-24.93
-19.67
-12.60
-4.15
4.95
13.86
21.87
28.53
33.71
37.51
40.12
41.67
42.22
41.77
40.49
38.66
36.71
34.99
33.69
32.77
32.08
31.53
31.17
31.14
31.56
32.44
33.66
35.08
36.59
38.17
39.76
41.19
42.14
42.17
40.91
38.19
34.17
29.31
24.31
19.95
16.94
15.66
16.10
17.82
20.13
22.26
23.67
24.11
23.60
22.34
20.54
18.37
15.99
13.49
10.97
8.45
5.90
3.25
0.50
-2.21
-4.65
-6.61
-8.00
-8.93
-9.64
-10.42
-11.42
-12.62
-13.90
-15.12
-16.26
-17.41
-18.81
-20.70
-23.26
-26.50
-30.19
-33.84
-36.75
-38.14
-37.33
-33.92
-27.95
-19.87
-10.53
-0.94
7.88
15.16
20.47
23.76
25.30
25.51
24.82
23.49
21.68
19.45
16.88
14.14
11.44
8.98
6.88
5.18
3.86
2.84
2.08
1.48
0.96
0.40
-0.31
-1.20
-2.18
-3.11
-3.82
-4.28
-4.69
-5.47
-7.11
-10.05
-14.41
-19.91
-25.85
-31.22
-34.90
-35.94
-33.79
-28.44
-20.46
-10.85
-0.81
8.53
16.31
22.03
25.56
27.00
26.63
24.79
21.90
18.33
14.41
10.40
6.45
2.64
-0.99
-4.41
-7.58
-10.45
-12.93
-14.92
-16.39
-17.42
-18.19
-19.02
-20.18
-21.80
-23.79
-25.91
-27.88
-29.60
-31.15
-32.86
-35.16
-38.37
-42.53
-47.27
-51.67
-54.47
-54.34
-50.33
-42.23
-30.81
-17.57
-4.30
7.43
16.68
23.19
27.22
29.20
29.55
28.62
26.74
24.27
21.59
19.02
16.69
14.57
12.49
10.37
8.24
6.28
4.75
3.76
3.22
2.79
2.00
0.46
-2.03
-5.33
-9.14
-13.09
-16.92
-20.59
-24.26
-28.22
-32.79
-38.13
-44.04
-49.77
-54.03
-55.27
-52.20
-44.33
-32.35
-17.94
-3.24
9.86
20.27
27.80
32.84
35.91
37.38
37.46
36.32
34.29
31.86
29.52
27.55
25.90
24.30
22.41
20.05
17.33
14.60
12.32
10.80
10.06
9.78
9.36
8.21
5.96
2.61
-1.44
-5.58
-9.29
-12.32
-14.77
-17.07
-19.76
-23.37
-28.19
-34.02
-40.12
-45.16
-47.63
-46.22
-40.40
-30.65
-18.32
-5.24
6.93
17.15
25.04
30.75
34.57
36.75
37.41
36.66
34.80
32.25
29.50
26.95
24.78
22.91
21.12
19.14
16.82
14.21
11.59
9.33
7.78
7.02
6.82
6.72
6.13
4.61
2.03
-1.41
-5.30
-9.13
-12.54
-15.38
-17.74
-19.92
-22.34
-25.42
-29.48
-34.50
-39.98
-44.88
-47.78
-47.25
-42.40
-33.25
-20.87
-7.09
6.14
17.29
25.66
31.32
34.83
36.75
37.48
37.15
35.82
33.62
30.85
27.89
25.05
22.49
20.22
18.19
16.31
14.55
12.92
11.45
10.16
9.07
8.13
7.24
6.25
4.96
3.17
0.80
-2.14
-5.52
-9.11
-12.68
-16.03
-19.05
-21.70
-24.06
-26.28
-28.64
-31.45
-34.97
-39.22
-43.78
-47.74
-49.79
-48.59
-43.24
-33.71
-20.99
-6.79
6.96
18.70
27.61
33.64
37.27
39.09
39.54
38.89
37.28
34.91
32.09
29.15
26.36
23.85
21.56
19.36
17.21
15.16
13.37
12.00
11.08
10.50
10.01
9.35
8.35
6.97
5.27
3.33
1.16
-1.24
-3.92
-6.87
-9.99
-13.10
-16.02
-18.60
-20.83
-22.81
-24.80
-27.13
-30.18
-34.19
-39.04
-44.12
-48.23
-49.88
-47.74
-41.18
-30.64
-17.55
-3.88
8.53
18.51
25.71
30.44
33.22
34.43
34.25
32.76
30.15
26.81
23.31
20.15
17.65
15.89
14.78
14.13
13.75
13.47
13.14
12.64
11.89
10.85
9.54
8.02
6.32
4.40
2.21
-0.35
-3.28
-6.48
-9.72
-12.76
-15.43
-17.73
-19.83
-22.04
-24.64
-27.83
-31.61
-35.77
-39.80
-42.88
-43.97
-42.01
-36.31
-26.91
-14.72
-1.35
11.40
22.10
30.02
35.17
38.03
39.18
39.05
37.88
35.85
33.16
30.12
27.05
24.22
21.76
19.74
18.13
16.85
15.79
14.80
13.75
12.56
11.28
9.99
8.80
7.71
6.58
5.12
3.04
0.17
-3.48
-7.65
-11.95
-15.99
-19.50
-22.42
-24.91
-27.24
-29.77
-32.81
-36.58
-41.04
-45.78
-49.86
-51.90
-50.46
-44.58
-34.25
-20.59
-5.59
8.60
20.27
28.65
33.83
36.50
37.40
37.08
35.85
33.89
31.40
28.69
26.06
23.71
21.67
19.84
18.11
16.47
14.99
13.83
13.07
12.69
12.52
12.28
11.68
10.53
8.78
6.54
4.04
1.47
-1.12
-3.79
-6.70
-9.94
-13.42
-16.89
-20.01
-22.55
-24.48
-26.10
-27.87
-30.28
-33.67
-37.97
-42.62
-46.57
-48.41
-46.86
-41.18
-31.55
-19.12
-5.71
6.82
17.08
24.49
29.16
31.59
32.35
31.80
30.15
27.56
24.32
20.83
17.60
15.02
13.26
12.23
11.61
11.04
10.27
9.34
8.48
8.05
8.21
8.85
9.51
9.60
8.62
6.39
3.07
-0.90
-4.97
-8.74
-12.01
-14.81
-17.36
-19.94
-22.84
-26.30
-30.44
-35.18
-40.09
-44.26
-46.42
-45.27
-39.94
-30.42
-17.77
-3.75
9.62
20.77
28.93
34.13
36.91
37.87
37.45
35.84
33.14
29.55
25.45
21.34
17.65
14.67
12.43
10.72
9.22
7.68
5.99
4.25
2.71
1.61
1.07
0.95
0.86
0.29
-1.23
-3.91
-7.62
-11.90
-16.14
-19.78
-22.56
-24.54
-26.13
-27.90
-30.41
-34.06
-38.92
-44.68
-50.54
-55.29
-57.51
-55.90
-49.76
-39.24
-25.42
-10.06
4.91
17.90
27.99
34.98
39.12
40.90
40.78
39.19
36.55
33.38
30.24
27.57
25.59
24.19
23.07
21.87
20.48
19.05
17.99
17.65
18.19
19.36
20.59
21.23
20.76
19.01
16.20
12.78
9.26
5.98
3.01
0.14
-3.05
-6.98
-11.91
-17.77
-23.99
-29.49
-32.93
-32.99
-28.83
-20.42
-8.64
4.92
18.43
30.31
39.60
45.96
49.46
50.34
48.85
45.19
39.75
33.18
26.30
19.92
14.53
10.15
6.42
2.89
-0.66
-4.03
-6.75
-8.31
-8.52
-7.66
-6.44
-5.73
-6.20
-8.12
-11.26
-15.10
-19.03
-22.66
-25.86
-28.81
-31.89
-35.52
-40.04
-45.45
-51.32
-56.63
-59.84
-59.26
-53.58
-42.45
-26.81
-8.63
9.55
25.50
37.82
46.12
50.77
52.48
51.92
49.60
46.01
41.72
37.38
33.64
30.86
29.01
27.68
26.34
24.60
22.40
20.04
17.90
16.23
14.89
13.40
11.10
7.53
2.61
-3.27
-9.43
-15.14
-19.95
-23.76
-26.86
-29.76
-33.01
-37.01
-41.78
-46.83
-51.12
-53.34
-52.34
-47.67
-39.90
-30.59
-21.80
-15.34
-12.16
-12.01
-13.64
-15.38
-15.87
-14.42
-11.17
-6.78
-2.07
2.32
5.93
8.52
9.88
9.91
8.72
6.81
4.98
4.11
4.71
6.64
9.14
11.17
11.92
11.15
9.20
6.67
4.01
1.27
-1.89
-5.90
-11.02
-17.12
-23.71
-30.07
-35.44
-39.13
-40.65
-39.69
-36.29
-30.73
-23.56
-15.44
-7.06
1.00
8.22
14.26
19.02
22.74
25.95
29.39
33.64
38.90
44.83
50.68
55.64
59.19
61.28
62.26
62.58
62.53
62.12
61.27
59.99
58.64
57.75
57.83
59.00
60.89
62.72
63.65
63.14
61.03
57.49
52.69
46.62
39.11
30.05
19.73
8.90
-1.41
-10.25
-17.10
-21.96
-25.17
-27.11
-28.04
-28.06
-27.17
-25.35
-22.65
-19.25
-15.52
-12.11
-9.84
-9.46
-11.28
-15.02
-19.80
-24.59
-28.63
-31.65
-33.84
-35.50
-36.80
-37.63
-37.72
-36.88
-35.09
-32.55
-29.51
-26.24
-23.01
-20.07
-17.69
-16.10
-15.43
-15.72
-16.91
-18.84
-21.35
-24.18
-27.08
-29.84
-32.39
-34.78
-37.16
-39.61
-41.97
-43.79
-44.45
-43.34
-40.16
-35.07
-28.61
-21.60
-14.85
-8.94
-4.14
-0.46
2.31
4.38
5.91
7.03
7.81
8.30
8.57
8.66
8.65
8.59
8.52
8.44
8.33
8.16
7.90
7.56
7.19
6.84
6.52
6.17
5.63
4.78
3.58
2.14
0.69
-0.47
-1.12
-1.23
-0.92
-0.44
-0.00
0.26
0.34
0.28
0.08
-0.29
-0.94
-1.88
-3.01
-4.06
-4.67
-4.56
-3.58
-1.84
0.41
2.85
5.20
7.23
8.82
9.87
10.27
9.99
9.07
7.67
6.00
4.30
2.72
1.32
0.06
-1.15
-2.37
-3.57
-4.66
-5.49
-5.93
-5.89
-5.42
-4.67
-3.90
-3.35
-3.22
-3.50
-4.03
-4.52
-4.74
-4.55
-4.08
-3.59
-3.47
-4.02
-5.42
-7.57
-10.19
-12.79
-14.82
-15.74
-15.20
-13.10
-9.70
-5.48
-1.07
2.95
6.19
8.48
9.90
10.66
10.99
11.02
10.84
10.44
9.82
9.02
8.13
7.21
6.34
5.51
4.69
3.87
3.08
2.40
1.90
1.50
0.99
0.11
-1.41
-3.63
-6.40
-9.41
-12.26
-14.65
-16.41
-17.58
-18.35
-19.03
-19.96
-21.38
-23.32
-25.55
-27.54
-28.59
-28.07
-25.56
-21.05
-14.97
-8.09
-1.27
4.67
9.25
12.33
14.07
14.85
15.00
14.77
14.22
13.33
12.10
10.63
9.13
7.83
6.88
6.37
6.29
6.63
7.34
8.37
9.55
10.63
11.33
11.39
10.73
9.43
7.67
5.69
3.64
1.63
-0.32
-2.25
-4.21
-6.33
-8.75
-11.59
-14.81
-18.15
-21.07
-22.92
-23.11
-21.32
-17.64
-12.51
-6.59
-0.56
5.07
9.96
13.91
16.84
18.68
19.46
19.31
18.46
17.19
15.80
14.48
13.31
12.29
11.42
10.70
10.19
9.96
10.03
10.29
10.57
10.67
10.41
9.76
8.73
7.42
5.88
4.13
2.19
0.06
-2.19
-4.48
-6.74
-9.04
-11.51
-14.32
-17.51
-20.86
-23.89
-25.93
-26.32
-24.61
-20.70
-14.97
-8.10
-0.96
5.62
11.03
14.95
17.40
18.54
18.65
18.02
16.86
15.32
13.58
11.81
10.18
8.85
7.90
7.28
6.91
6.66
6.42
6.14
5.77
5.29
4.64
3.69
2.32
0.44
-1.97
-4.80
-7.82
-10.72
-13.23
-15.14
-16.41
-17.13
-17.58
-18.12
-19.12
-20.78
-23.10
-25.77
-28.17
-29.53
-29.07
-26.24
-20.89
-13.37
-4.45
4.81
13.34
20.29
25.19
28.04
29.15
28.99
27.99
26.48
24.62
22.52
20.33
18.22
16.36
14.89
13.81
13.02
12.39
11.81
11.26
10.77
10.38
10.05
9.67
9.09
8.12
6.69
4.79
2.56
0.23
-1.97
-3.85
-5.31
-6.47
-7.54
-8.84
-10.61
-12.96
-15.77
-18.74
-21.44
-23.38
-24.10
-23.22
-20.49
-15.92
-9.86
-2.97
3.84
9.74
14.18
17.00
18.42
18.82
18.51
17.68
16.38
14.64
12.61
10.55
8.75
7.44
6.64
6.20
5.89
5.55
5.14
4.71
4.40
4.27
4.27
4.22
3.92
3.22
2.08
0.60
-1.04
-2.66
-4.13
-5.49
-6.84
-8.38
-10.30
-12.74
-15.70
-18.96
-22.10
-24.50
-25.55
-24.75
-21.90
-17.22
-11.26
-4.78
1.43
6.77
10.92
13.76
15.38
15.91
15.55
14.52
13.08
11.52
10.08
8.94
8.12
7.50
6.89
6.14
5.22
4.24
3.38
2.81
2.62
2.74
2.97
3.05
2.72
1.87
0.54
-1.07
-2.72
-4.22
-5.58
-6.96
-8.64
-10.88
-13.79
-17.27
-20.98
-24.40
-26.87
-27.76
-26.55
-23.06
-17.50
-10.52
-2.99
4.17
10.29
15.00
18.29
20.33
21.37
21.61
21.22
20.33
19.09
17.59
15.94
14.19
12.41
10.70
9.16
7.89
6.91
6.17
5.58
5.03
4.49
3.98
3.49
3.00
2.38
1.48
0.20
-1.52
-3.58
-5.80
-7.97
-9.92
-11.61
-13.14
-14.76
-16.76
-19.37
-22.56
-26.00
-29.05
-30.88
-30.77
-28.29
-23.46
-16.73
-8.83
-0.62
7.11
13.72
18.82
22.24
24.06
24.51
23.94
22.72
21.16
19.47
17.77
16.14
14.60
13.19
11.94
10.90
10.07
9.43
8.93
8.47
8.00
7.51
7.02
6.58
6.14
5.59
4.70
3.30
1.30
-1.19
-3.90
-6.54
-8.88
-10.84
-12.49
-14.01
-15.58
-17.36
-19.46
-21.87
-24.47
-26.94
-28.74
-29.24
-27.84
-24.26
-18.60
-11.44
-3.63
3.93
10.50
15.66
19.28
21.39
22.16
21.81
20.58
18.79
16.77
14.82
13.14
11.84
10.87
10.16
9.56
9.01
8.46
7.91
7.41
6.97
6.58
6.14
5.56
4.73
3.61
2.22
0.65
-1.03
-2.78
-4.60
-6.48
-8.40
-10.36
-12.35
-14.45
-16.79
-19.48
-22.49
-25.51
-27.97
-29.14
-28.41
-25.48
-20.57
-14.31
-7.54
-1.05
4.66
9.33
12.95
15.55
17.14
17.77
17.52
16.59
15.27
13.85
12.58
11.52
10.64
9.83
8.96
8.00
7.00
6.05
5.27
4.72
4.36
4.05
3.61
2.88
1.77
0.25
-1.66
-3.82
-6.07
-8.22
-10.10
-11.65
-12.96
-14.26
-15.86
-18.04
-20.94
-24.41
-28.00
-30.97
-32.43
-31.61
-28.06
-21.83
-13.52
-4.12
5.22
13.48
19.95
24.31
26.62
27.19
26.48
24.99
23.17
21.30
19.51
17.79
16.03
14.17
12.22
10.34
8.74
7.63
7.07
6.94
6.99
6.88
6.42
5.57
4.43
3.16
1.80
0.27
-1.62
-4.01
-6.90
-10.03
-13.05
-15.63
-17.61
-19.11
-20.43
-21.96
-24.06
-26.93
-30.52
-34.56
-38.41
-41.20
-41.87
-39.48
-33.56
-24.25
-12.44
0.49
13.03
23.95
32.53
38.57
42.24
43.85
43.72
42.10
39.23
35.40
30.99
26.47
22.27
18.73
15.98
13.95
12.41
11.13
9.93
8.82
7.88
7.20
6.81
6.59
6.32
5.74
4.61
2.84
0.45
-2.34
-5.26
-8.00
-10.41
-12.48
-14.38
-16.37
-18.68
-21.46
-24.67
-28.04
-31.04
-32.94
-32.93
-30.33
-24.83
-16.72
-6.85
3.47
12.85
20.21
25.00
27.23
27.40
26.12
23.96
21.24
18.16
14.84
11.51
8.49
6.11
4.55
3.72
3.32
2.97
2.41
1.65
0.89
0.38
0.24
0.28
0.17
-0.51
-2.01
-4.30
-7.15
-10.13
-12.85
-15.05
-16.72
-18.11
-19.64
-21.77
-24.80
-28.70
-33.06
-37.04
-39.60
-39.64
-36.33
-29.40
-19.24
-6.95
5.94
17.83
27.46
34.11
37.74
38.76
37.76
35.42
32.25
28.67
25.05
21.67
18.75
16.40
14.57
13.07
11.67
10.14
8.39
6.49
4.65
3.12
2.09
1.52
1.16
0.62
-0.49
-2.31
-4.72
-7.30
-9.57
-11.23
-12.26
-13.01
-14.01
-15.75
-18.55
-22.45
-27.26
-32.62
-37.96
-42.50
-45.26
-45.16
-41.31
-33.38
-21.83
-7.95
6.45
19.51
29.83
36.75
40.43
41.54
40.90
39.22
36.88
34.06
30.84
27.39
23.95
20.81
18.13
15.94
14.09
12.41
10.77
9.16
7.64
6.29
5.13
4.13
3.19
2.21
1.05
-0.39
-2.16
-4.27
-6.61
-8.98
-11.18
-13.10
-14.72
-16.19
-17.73
-19.60
-21.96
-24.86
-28.21
-31.67
-34.61
-36.17
-35.41
-31.61
-24.56
-14.71
-3.10
8.83
19.68
28.46
34.67
38.34
39.77
39.36
37.55
34.78
31.50
28.15
25.18
22.92
21.49
20.79
20.54
20.46
20.32
19.84
18.91
17.67
16.40
15.39
14.70
14.09
13.10
11.17
7.50
1.67
-6.05
-14.76
-23.21
-30.37
-35.70
-39.17
-41.38
-43.76
-47.67
-53.67
-61.20
-68.96
-75.39
-79.36
-80.15
-77.89
-74.15
-70.84
-69.32
-69.95
-72.38
-75.89
-79.71
-82.49
-78.88
-65.44
-42.65
-14.83
13.08
37.66
57.27
71.33
80.59
86.20
88.47
87.22
82.11
73.22
61.03
48.24
35.42
23.73
14.27
6.94
1.07
-4.13
-8.84
-12.88
-15.86
-17.55
-17.56
-15.93
-13.38
-10.61
-8.95
-8.44
-8.52
-8.33
-6.86
-3.11
3.36
12.21
22.62
33.64
44.62
55.02
64.32
72.47
79.51
85.39
89.91
92.95
94.54
95.06
94.87
94.15
93.43
93.03
92.83
92.48
91.48
89.48
86.54
82.75
73.66
57.11
33.79
6.68
-20.86
-46.56
-68.57
-85.74
-97.12
-101.95
-99.77
-91.55
-79.63
-66.79
-54.45
-44.07
-36.29
-31.54
-30.87
-35.30
-45.76
-62.40
-83.85
-107.90
-131.03
-149.05
-158.49
-157.66
-146.25
-125.39
-97.52
-62.04
-24.42
7.12
26.75
33.91
31.94
25.66
19.59
15.68
14.75
16.20
19.52
24.38
30.12
34.80
36.52
34.13
27.61
18.58
9.29
2.47
0.31
3.25
9.76
17.46
24.10
28.06
29.14
27.85
25.15
21.98
18.93
16.18
14.15
13.45
14.27
17.06
22.29
30.04
39.59
49.10
55.94
58.08
54.90
47.20
37.92
31.12
29.78
34.39
42.87
49.38
49.04
44.39
38.63
32.88
28.53
25.57
22.88
19.17
14.00
8.35
2.68
-3.49
-11.39
-21.95
-35.60
-51.54
-67.65
-81.20
-89.62
-91.60
-87.88
-80.21
-70.14
-59.43
-49.67
-42.11
-37.62
-36.44
-38.01
-41.00
-42.90
-40.33
-30.18
-11.29
14.65
43.08
67.95
83.71
87.29
77.47
59.40
39.75
23.45
12.20
4.85
-0.88
-6.51
-11.99
-16.05
-17.14
-15.17
-11.56
-8.37
-7.12
-8.06
-10.05
-11.41
-10.90
-8.17
-4.40
-1.49
-1.07
-3.63
-8.35
-13.50
-17.17
-18.10
-15.74
-10.50
-3.29
4.86
12.87
19.75
24.60
26.96
26.87
24.94
21.98
18.62
15.13
11.48
7.55
2.99
-1.91
-6.63
-10.71
-13.97
-16.47
-18.29
-19.32
-19.23
-17.69
-14.57
-10.24
-5.44
-1.08
2.11
3.80
4.05
3.23
1.78
0.11
-1.61
-3.39
-5.39
-7.86
-11.05
-15.15
-20.17
-25.85
-31.60
-36.55
-39.72
-40.26
-37.65
-31.89
-23.56
-13.66
-3.41
6.01
13.75
19.39
23.01
25.02
26.01
26.48
26.68
26.65
26.29
25.52
24.35
22.91
21.41
20.03
18.96
18.38
18.46
19.23
20.44
21.37
20.93
17.98
11.84
2.70
-8.35
-19.68
-29.74
-37.53
-42.82
-45.90
-47.15
-46.72
-44.47
-40.22
-34.01
-26.28
-17.76
-9.24
-1.29
5.78
11.94
17.18
21.47
24.67
26.73
27.75
28.09
28.31
28.97
30.43
32.64
35.22
37.55
39.11
39.67
39.41
38.85
38.64
39.24
40.76
42.75
44.40
44.68
42.77
38.33
31.66
23.71
15.75
8.93
3.94
0.76
-1.22
-2.90
-4.94
-7.54
-10.27
-12.37
-13.11
-12.09
-9.35
-5.36
-0.76
3.87
8.08
11.60
14.20
15.58
15.40
13.33
9.22
3.23
-4.08
-11.84
-19.14
-25.30
-30.20
-34.25
-38.14
-42.50
-47.45
-52.59
-57.15
-60.39
-61.87
-61.70
-60.31
-58.26
-56.01
-53.83
-51.93
-50.53
-49.79
-49.64
-49.51
-48.42
-45.23
-39.20
-30.38
-19.69
-8.65
1.27
9.15
14.87
18.93
22.06
24.80
27.38
29.75
31.84
33.65
35.32
36.97
38.71
40.52
42.37
44.30
46.38
48.64
51.06
53.44
55.57
57.22
58.20
58.27
57.14
54.44
50.02
44.04
36.98
29.51
22.25
15.61
9.84
5.14
1.78
-0.00
-0.15
1.07
3.10
5.31
7.17
8.35
8.63
7.66
4.98
0.07
-7.30
-16.86
-27.85
-39.21
-49.85
-58.96
-66.09
-71.23
-74.65
-76.79
-78.08
-78.84
-79.20
-79.10
-78.40
-76.99
-74.90
-72.32
-69.57
-67.01
-64.85
-63.07
-61.34
