1660327799.00
64.000000
-0.00
-0.00
-0.00
-0.00
-0.00
-0.00
-0.00
-0.00
-0.00
-0.00
0.00
0.01
0.01
-0.00
-0.03
-0.05
-0.05
0.00
0.13
0.36
0.66
1.01
1.37
1.72
2.06
2.40
2.79
3.24
3.80
4.42
5.06
5.66
6.20
6.68
7.15
7.68
8.31
9.14
10.09
11.04
11.88
12.56
13.14
13.76
14.65
15.96
17.91
20.32
22.90
25.38
27.58
29.57
31.68
34.32
37.81
42.54
48.15
54.10
59.83
64.97
69.58
74.14
79.34
85.71
93.76
103.00
112.62
121.73
129.77
136.75
143.30
150.75
157.77
166.64
177.95
191.79
206.97
220.57
228.25
225.36
208.53
176.87
132.76
80.05
23.07
-34.94
-92.44
-149.16
-205.23
-260.37
-313.74
-363.87
-409.83
-450.91
-486.50
-515.74
-537.23
-549.22
-549.96
-538.37
-514.21
-478.67
-433.88
-382.45
-327.02
-269.84
-212.63
-156.66
-102.95
-52.37
-5.90
35.58
71.43
101.35
125.50
144.38
158.69
169.15
176.37
180.75
182.57
182.07
179.51
175.23
169.65
163.18
156.15
148.81
141.30
133.69
126.02
118.33
110.69
103.16
95.80
88.68
81.83
75.25
68.95
62.95
57.25
51.86
46.78
42.03
37.59
33.45
29.61
26.07
22.81
19.83
17.11
14.67
12.48
10.54
8.83
7.35
6.07
4.97
4.05
3.27
2.62
2.09
1.65
1.30
1.01
0.79
0.61
0.48
0.38
0.30
0.25
0.22
0.20
0.20
0.20
0.22
0.25
0.28
0.31
0.35
0.40
0.44
0.49
0.53
0.58
0.64
0.69
0.75
0.81
0.88
0.96
1.04
1.13
1.23
1.35
1.48
1.62
1.78
1.97
2.17
2.39
2.63
2.91
3.21
3.54
3.90
4.30
4.73
5.20
5.70
6.24
6.82
7.45
8.12
8.83
9.59
10.39
11.24
12.14
13.08
14.07
15.13
16.25
17.43
18.67
19.95
21.23
22.46
23.56
24.42
24.94
24.98
24.44
23.25
21.33
18.71
15.43
11.58
7.33
2.87
-1.60
-5.87
-9.73
-13.04
-15.66
-17.54
-18.68
-19.13
-19.02
-18.46
-17.59
-16.47
-15.19
-13.77
-12.25
-10.66
-8.99
-7.36
-5.79
-4.29
-2.83
-1.34
0.26
2.00
3.91
5.97
8.03
9.95
11.74
13.45
15.21
17.19
19.47
22.05
24.91
27.63
29.95
31.81
33.39
34.99
36.95
39.48
42.57
46.06
49.15
51.32
52.45
52.79
52.89
53.35
54.48
56.22
58.16
59.02
57.87
54.32
48.52
40.82
31.44
19.90
4.52
-12.47
-31.21
-52.27
-76.31
-103.85
-134.74
-167.49
-199.01
-224.94
-240.72
-244.00
-234.80
-215.78
-191.22
-165.38
-141.20
-119.77
-100.91
-84.00
-69.27
-57.15
-47.90
-41.21
-36.06
-31.19
-25.65
-19.22
-12.41
-6.63
-3.01
-2.07
-3.37
-5.70
-7.40
-7.05
-3.86
2.11
9.92
18.42
26.65
34.03
40.40
45.75
50.00
52.92
54.22
53.67
51.41
47.95
44.05
40.49
37.76
35.97
34.87
33.96
32.70
30.75
28.06
24.84
21.45
18.24
15.37
12.83
10.41
7.82
4.78
1.13
-3.10
-7.64
-11.86
-14.93
-15.94
-14.26
-9.80
-3.16
4.60
12.25
18.79
23.71
26.98
28.81
29.46
29.09
27.81
25.84
23.52
21.38
19.87
19.21
19.25
19.51
19.39
18.42
16.47
13.79
10.84
8.12
5.87
4.05
2.36
0.43
-2.01
-5.04
-8.59
-12.45
-16.28
-19.62
-21.86
-22.35
-20.61
-16.58
-10.61
-3.48
3.87
10.63
16.22
20.38
23.03
24.20
24.05
22.81
20.88
18.71
16.75
15.33
14.63
14.63
15.12
15.76
16.15
15.90
14.79
12.81
10.21
7.32
4.48
1.79
-0.83
-3.60
-6.77
-10.41
-14.39
-18.28
-21.43
-23.16
-22.83
-20.14
-15.24
-8.68
-1.32
5.88
12.15
16.96
20.07
21.46
21.26
19.71
17.22
14.24
11.31
8.90
7.28
6.48
6.29
6.37
6.36
6.02
5.28
4.16
2.78
1.20
-0.55
-2.54
-4.86
-7.61
-10.86
-14.57
-18.50
-22.21
-25.06
-26.35
-25.54
-22.43
-17.26
-10.64
-3.43
3.50
9.36
13.58
15.84
16.10
14.63
11.95
8.74
5.73
3.48
2.26
1.98
2.28
2.65
2.72
2.41
1.92
1.61
1.75
2.35
3.08
3.43
2.92
1.19
-1.78
-5.81
-10.42
-14.96
-18.63
-20.65
-20.47
-17.95
-13.44
-7.71
-1.80
3.33
6.92
8.61
8.40
6.62
3.83
0.64
-2.38
-4.82
-6.47
-7.34
-7.58
-7.44
-7.21
-7.13
-7.31
-7.77
-8.40
-9.02
-9.47
-9.72
-9.97
-10.59
-12.02
-14.49
-17.82
-21.33
-24.01
-24.76
-22.92
-18.43
-11.86
-4.21
3.44
10.28
15.78
19.71
21.95
22.45
21.27
18.79
15.70
12.85
10.95
10.14
9.84
9.04
6.77
2.70
-2.64
-8.16
-12.74
-15.87
-17.84
-19.56
-21.99
-25.67
-30.51
-35.89
-40.93
-44.72
-46.53
-45.79
-42.29
-36.10
-27.75
-18.07
-8.00
1.56
9.97
16.85
22.07
25.73
28.06
29.44
30.36
31.30
32.62
34.35
36.25
37.81
38.52
38.03
36.30
33.55
30.13
26.36
22.40
18.31
14.05
9.60
5.02
0.33
-4.43
-9.20
-13.75
-17.57
-19.91
-19.99
-17.27
-11.67
-3.64
6.00
16.30
26.32
35.20
42.07
46.00
46.16
42.16
34.33
23.88
12.63
2.49
-5.16
-9.88
-12.17
-13.17
-14.04
-15.50
-17.65
-20.08
-22.19
-23.54
-23.97
-23.54
-22.45
-20.80
-18.70
-16.32
-13.92
-11.83
-10.37
-9.73
-9.91
-10.88
-12.62
-15.19
-18.53
-22.29
-25.74
-27.88
-27.84
-25.22
-20.23
-13.59
-6.07
1.80
9.92
18.47
27.50
36.71
45.35
52.48
57.39
59.88
60.34
59.49
57.96
56.11
53.94
51.25
47.89
43.93
39.63
35.39
31.56
28.41
26.05
24.52
23.73
23.49
23.44
23.21
22.45
21.05
19.16
17.25
15.97
15.79
16.73
18.17
18.91
17.56
13.16
5.55
-4.49
-15.37
-25.12
-31.78
-33.77
-30.32
-21.82
-9.84
3.15
14.65
23.15
28.61
32.33
35.95
40.31
44.66
47.15
46.03
41.04
34.11
28.65
28.25
35.22
49.82
70.37
93.74
115.89
132.21
138.19
130.24
107.14
71.05
27.71
-14.82
-48.37
-67.11
-68.95
-55.70
-31.82
-2.79
26.20
51.10
69.26
79.48
81.99
78.40
71.55
64.99
62.28
65.96
76.89
94.07
115.14
137.25
157.82
174.89
187.03
193.14
192.29
183.99
168.53
147.04
121.13
92.11
60.58
26.44
-10.22
-48.19
-84.72
-115.94
-138.27
-149.82
-151.18
-145.23
-136.04
-127.42
-121.81
-119.85
-120.63
-122.33
-122.83
-120.24
-113.28
-101.59
-85.87
-68.08
-51.01
-37.71
-30.59
-30.54
-36.57
-45.79
-54.30
-58.23
-55.11
-44.86
-30.14
-15.92
-8.25
-12.81
-33.27
-70.12
-119.81
-174.96
-225.63
-261.77
-275.89
-265.26
-232.41
-183.89
-127.90
-71.68
-19.92
25.51
64.52
97.32
123.20
140.27
146.24
139.63
121.14
94.01
63.42
34.90
12.31
-3.38
-13.86
-22.06
-30.25
-38.83
-46.50
-51.58
-53.37
-52.86
-52.30
-53.88
-58.56
-65.69
-73.35
-79.35
-82.18
-81.48
-77.89
-72.48
-66.16
-59.29
-51.73
-43.11
-33.18
-22.18
-10.77
0.08
9.50
16.99
22.61
26.78
30.08
33.00
35.72
38.16
40.03
40.95
40.50
38.43
34.77
29.90
24.46
19.16
14.36
10.04
5.71
0.80
-5.02
-11.62
-18.37
-24.34
-28.63
-30.66
-30.30
-28.02
-24.79
-21.87
-20.45
-21.29
-24.48
-29.36
-34.77
-39.38
-42.08
-42.22
-39.72
-35.00
-28.75
-21.66
-14.17
-6.39
1.80
10.60
19.84
28.81
36.24
40.50
40.25
34.91
25.14
12.79
0.35
-9.84
-16.52
-19.78
-20.91
-21.54
-22.87
-25.14
-27.69
-29.49
-29.82
-28.78
-27.24
-26.58
-28.01
-32.12
-38.54
-45.97
-52.60
-56.60
-56.85
-53.22
-46.63
-38.60
-30.63
-23.72
-18.01
-13.08
-8.31
-3.38
1.60
6.21
10.06
13.08
15.59
18.05
20.73
23.48
25.83
27.23
27.48
26.85
26.01
25.72
26.48
28.38
31.07
33.92
36.31
37.82
38.51
38.81
39.38
40.54
41.93
42.43
40.54
35.15
26.28
15.33
4.72
-3.01
-6.23
-4.86
-0.27
5.40
10.16
12.86
13.41
12.58
11.42
10.76
10.94
11.77
12.76
13.21
12.37
9.48
3.84
-4.86
-16.40
-30.00
-44.64
-59.41
-73.97
-88.55
-103.62
-119.20
-134.28
-146.73
-153.68
-152.59
-142.28
-123.64
-99.50
-73.80
-50.23
-31.03
-16.48
-5.25
4.55
14.34
24.37
33.90
41.86
47.62
51.22
53.23
54.25
54.52
53.88
52.25
49.99
48.12
48.13
51.41
58.67
69.66
83.09
96.99
109.19
117.80
121.57
119.99
113.24
101.93
87.04
69.87
52.09
35.48
21.60
11.15
3.61
-2.56
-9.30
-17.86
-28.21
-38.95
-48.06
-53.87
-55.82
-54.58
-51.62
-48.51
-46.38
-45.67
-46.23
-47.38
-48.15
-47.46
-44.48
-38.85
-30.97
-21.93
-13.24
-6.37
-2.34
-1.46
-3.47
-7.67
-13.28
-19.60
-26.11
-32.43
-38.28
-43.40
-47.52
-50.28
-51.25
-50.00
-46.33
-40.52
-33.45
-26.51
-21.10
-18.19
-17.84
-19.23
-21.06
-22.11
-21.80
-20.27
-18.16
-16.18
-14.72
-13.67
-12.57
-10.86
-8.10
-4.08
1.27
8.00
16.27
26.33
38.44
52.67
68.79
86.16
103.77
120.27
134.22
144.35
149.90
150.73
147.25
140.11
129.84
116.82
101.37
84.12
66.07
48.32
31.64
16.13
1.33
-13.27
-27.60
-40.77
-51.31
-57.93
-60.13
-58.47
-54.26
-49.06
-44.09
-39.92
-36.49
-33.30
-29.69
-25.20
-19.84
-14.06
-8.71
-4.72
-2.87
-3.64
-7.20
-13.36
-21.58
-31.01
-40.61
-49.47
-57.10
-63.59
-69.25
-74.25
-78.09
-79.55
-77.07
-69.59
-57.26
-41.71
-25.58
-11.62
-1.63
4.09
6.72
8.22
10.47
14.65
21.04
29.20
38.38
47.70
56.23
62.88
66.63
66.77
63.46
57.93
52.29
48.94
49.72
55.34
65.14
77.32
89.53
99.48
105.50
106.88
103.98
97.97
90.39
82.61
75.25
68.04
60.01
50.09
37.83
23.71
9.11
-4.31
-15.27
-23.47
-29.50
-34.38
-38.91
-43.16
-46.51
-48.12
-47.48
-44.83
-41.07
-37.35
-34.52
-32.88
-32.20
-32.05
-32.11
-32.24
-32.33
-32.08
-30.91
-28.03
-22.89
-15.47
-6.47
2.91
11.33
17.62
20.99
21.01
17.53
10.67
0.98
-10.49
-22.11
-31.95
-38.15
-39.43
-35.50
-27.23
-16.50
-5.69
3.03
8.53
11.04
12.07
13.62
17.19
23.04
30.05
36.33
40.11
40.44
37.38
31.66
24.15
15.55
6.45
-2.43
-10.12
-15.50
-17.80
-16.98
-13.83
-9.73
-6.00
-3.44
-2.07
-1.36
-0.63
0.46
1.73
2.53
2.00
-0.45
-4.83
-10.43
-16.03
-20.36
-22.61
-22.76
-21.56
-20.21
-19.67
-20.34
-21.91
-23.68
-24.98
-25.52
-25.50
-25.40
-25.74
-26.85
-28.82
-31.51
-34.56
-37.48
-39.66
-40.44
-39.18
-35.46
-29.16
-20.63
-10.70
-0.51
8.74
16.13
21.32
24.59
26.62
28.12
29.48
30.72
31.64
32.18
32.57
33.26
34.60
36.45
38.07
38.40
36.53
32.29
26.49
20.58
16.14
14.21
14.89
17.45
20.70
23.56
25.31
25.64
24.43
21.55
16.72
9.71
0.53
-10.31
-21.73
-32.25
-40.32
-44.77
-45.10
-41.61
-35.26
-27.25
-18.70
-10.36
-2.62
4.36
10.54
15.84
20.21
23.65
26.26
28.26
30.06
32.10
34.77
38.19
42.07
45.84
48.85
50.74
51.68
52.34
53.62
56.22
60.18
64.83
68.92
71.05
70.22
66.17
59.50
51.44
43.44
36.62
31.35
27.28
23.54
19.22
13.78
7.27
0.37
-5.76
-9.84
-10.85
-8.56
-3.75
1.87
6.29
8.10
7.14
4.76
3.17
4.29
8.70
15.06
20.62
22.39
18.52
9.31
-2.92
-14.73
-23.03
-26.31
-25.09
-21.36
-17.56
-15.54
-15.99
-18.72
-23.10
-28.63
-35.04
-42.11
-49.37
-56.04
-61.25
-64.46
-65.73
-65.68
-65.05
-64.20
-62.73
-59.52
-53.23
-42.83
-28.15
-10.00
10.06
30.22
48.84
64.77
77.51
87.14
94.17
99.16
102.24
102.78
99.42
90.57
75.26
54.02
29.09
4.08
-17.20
-31.88
-38.86
-38.85
-33.81
-26.04
-17.53
-9.56
-2.73
2.72
6.79
9.56
11.18
11.94
12.13
11.88
10.97
8.80
4.76
-1.46
-9.55
-18.70
-27.98
-36.80
-45.18
-53.64
-62.68
-72.26
-81.50
-88.90
-93.04
-93.25
-90.09
-85.22
-80.72
-78.14
-77.77
-78.40
-77.82
-73.76
-64.82
-51.04
-33.86
-15.41
2.20
17.43
29.58
38.58
44.71
48.41
50.20
50.68
50.57
50.52
50.95
51.87
52.92
53.54
53.33
52.26
50.85
50.00
50.64
53.28
57.47
61.64
63.42
60.47
51.50
37.06
19.50
2.01
-12.72
-23.66
-31.62
-38.53
-46.03
-54.34
-62.05
-66.78
-66.43
-60.22
-48.89
-34.31
-18.61
-3.49
10.01
21.36
30.18
36.10
38.77
38.15
34.68
29.16
22.56
15.65
8.84
2.17
-4.53
-11.56
-19.38
-28.57
-39.67
-52.91
-67.84
-83.12
-96.53
-105.44
-107.58
-101.66
-88.01
-68.53
-46.45
-25.45
-8.72
2.05
7.08
8.33
8.59
10.31
14.74
21.61
29.54
36.85
42.26
45.19
45.68
44.06
40.66
35.84
30.10
24.21
19.15
15.85
14.80
15.81
17.98
19.92
20.29
18.32
14.18
9.07
4.81
3.13
4.94
10.05
17.34
25.39
32.98
39.26
43.52
44.90
42.38
35.23
23.71
9.41
-4.95
-16.49
-23.15
-24.41
-21.27
-15.59
-9.33
-3.96
-0.30
1.42
1.35
-0.14
-2.48
-5.10
-7.57
-9.78
-11.89
-14.33
-17.49
-21.58
-26.58
-32.21
-38.14
-44.16
-50.33
-57.03
-64.80
-73.99
-84.42
-95.07
-104.08
-109.10
-107.99
-99.52
-83.93
-63.00
-39.70
-17.35
1.12
13.84
20.22
20.94
17.59
12.33
7.48
4.98
6.01
10.74
18.22
26.70
34.25
39.34
41.39
40.84
38.92
37.13
36.79
38.67
42.95
49.25
56.86
64.80
72.01
77.44
80.29
80.25
77.69
73.52
68.90
64.83
61.83
59.90
58.63
57.31
55.05
50.75
43.37
32.24
17.61
0.88
-15.54
-28.99
-37.30
-39.59
-36.33
-29.06
-19.67
-9.99
-1.44
5.08
9.19
11.03
11.20
10.54
9.67
8.78
7.36
4.51
-0.56
-8.10
-17.53
-27.68
-37.22
-45.28
-51.74
-57.28
-62.98
-69.89
-78.57
-88.85
-99.87
-110.23
-118.23
-122.14
-120.56
-112.69
-98.78
-80.27
-59.57
-39.52
-22.54
-9.96
-1.72
3.41
7.22
11.38
16.96
24.31
33.15
42.83
52.39
60.77
66.95
70.17
70.33
68.11
64.98
62.74
63.05
66.79
73.71
82.41
90.67
96.10
96.95
92.69
84.37
74.33
65.44
60.00
58.85
60.89
63.50
63.53
58.63
48.20
33.46
16.90
1.14
-12.06
-22.24
-30.02
-36.33
-41.79
-46.29
-49.19
-49.73
-47.64
-43.39
-38.06
-32.91
-28.84
-26.11
-24.29
-22.64
-20.51
-17.65
-14.36
-11.33
-9.40
-9.35
-11.68
-16.59
-23.87
-32.88
-42.54
-51.63
-59.16
-64.81
-69.10
-73.13
-77.76
-82.75
-86.30
-85.36
-76.99
-59.89
-35.78
-9.35
12.94
25.28
24.76
12.57
-6.43
-25.67
-39.35
-44.25
-40.29
-29.69
-15.44
-0.07
14.87
28.43
39.60
47.08
49.63
46.84
39.71
30.53
22.14
16.67
14.73
15.32
16.45
16.15
13.43
8.66
3.35
-0.55
-1.43
1.47
7.83
16.51
25.94
34.61
41.57
46.77
51.11
55.93
62.29
70.07
77.49
81.56
79.16
68.60
50.47
27.71
4.48
-15.23
-28.93
-36.01
-37.34
-34.51
-29.24
-23.05
-17.27
-13.01
-10.87
-10.73
-11.63
-12.08
-10.65
-6.57
-0.18
7.27
14.00
18.42
19.59
17.45
12.70
6.38
-0.44
-6.84
-12.15
-15.79
-17.15
-15.57
-10.55
-2.15
8.70
20.12
29.57
34.54
33.33
25.62
12.60
-3.38
-19.63
-33.87
-44.79
-52.11
-56.35
-58.40
-59.15
-59.33
-59.54
-60.30
-62.02
-64.97
-69.06
-73.78
-78.32
-81.80
-83.66
-83.78
-82.41
-79.79
-75.87
-70.12
-61.73
-49.99
-34.75
-16.54
3.53
24.04
43.54
60.80
74.96
85.65
93.02
97.54
99.55
98.96
95.15
87.44
75.82
61.53
47.02
35.22
28.32
26.93
29.80
34.61
38.95
41.34
41.45
39.85
37.38
34.62
31.71
28.41
24.39
19.54
14.09
8.60
3.71
-0.12
-2.78
-4.57
-6.10
-8.06
-10.98
-15.11
-20.42
-26.62
-33.29
-39.87
-45.78
-50.47
-53.59
-55.11
-55.31
-54.65
-53.48
-51.65
-48.53
-43.27
-35.35
-25.07
-13.79
-3.59
3.45
5.94
3.65
-2.62
-11.42
-21.21
-30.72
-39.04
-45.47
-49.40
-50.30
-47.91
-42.43
-34.70
-25.97
-17.58
-10.45
-4.75
0.11
5.21
11.61
19.86
29.90
41.11
52.64
63.64
73.39
81.37
87.21
90.79
92.12
91.29
88.26
82.72
74.22
62.35
47.17
29.48
10.79
-7.03
-22.24
-33.74
-41.41
-46.06
-49.09
-51.95
-55.55
-59.86
-63.86
-65.98
-64.72
-59.45
-50.69
-39.94
-29.04
-19.43
-11.75
-5.78
-0.86
3.66
7.99
11.80
14.35
14.72
12.09
5.85
-4.23
-17.93
-34.32
-51.72
-67.70
-79.58
-85.11
-83.43
-75.50
-63.90
-51.99
-42.49
-36.51
-33.22
-30.60
-26.58
-20.20
-11.93
-3.17
4.65
11.00
16.36
21.83
28.36
36.18
44.78
53.32
61.17
68.18
74.63
80.78
86.61
91.64
95.27
97.09
97.24
96.37
95.32
94.59
93.89
92.04
87.36
78.34
64.38
46.22
25.71
5.19
-13.26
-28.41
-39.94
-48.04
-53.03
-54.97
-53.74
-49.29
-41.88
-32.24
-21.53
-11.12
-2.33
3.90
7.34
8.57
8.85
9.70
12.26
16.87
22.86
28.78
32.81
33.27
28.98
19.50
5.17
-12.92
-33.28
-54.28
-74.56
-93.35
-110.31
-125.39
-138.34
-148.46
-154.55
-155.22
-149.34
-136.62
-117.98
-95.65
-72.76
-52.56
-37.39
-27.94
-23.14
-20.61
-17.86
-13.18
-6.16
2.57
11.97
21.34
30.44
39.37
48.08
56.21
63.20
68.80
73.37
77.96
83.91
92.17
102.83
115.09
127.58
139.04
148.76
156.78
163.61
169.78
175.37
179.81
181.93
180.27
173.53
160.87
142.26
118.43
90.80
61.16
31.25
2.43
-24.51
-49.21
-71.51
-91.16
-107.55
-119.85
-127.25
-129.42
-126.77
-120.47
-112.11
-103.25
-94.96
-87.64
-81.12
-75.05
-69.26
-63.97
-59.72
-57.03
-56.02
-56.21
-56.61
-56.09
-53.81
-49.59
-43.84
-37.49
-31.57
-26.95
-24.25
-23.73
-25.25
-28.08
-30.88
-31.91
-29.63
-23.46
-14.35
-4.68
2.50
4.76
1.34
-6.53
-16.08
-24.11
-28.13
-26.95
-20.69
-10.31
2.90
17.62
32.54
46.28
57.43
64.89
68.17
67.73
64.84
61.20
58.41
57.39
58.17
60.06
62.00
63.05
62.76
61.30
59.22
57.16
55.42
53.81
51.68
48.24
42.96
35.89
27.53
18.60
9.46
-0.02
-10.48
-22.57
-36.38
-51.04
-64.82
-75.64
-81.72
-82.19
-77.23
-67.89
-55.59
-41.76
-27.62
-14.08
-1.85
8.64
17.16
23.75
28.51
31.52
32.55
31.03
26.26
17.73
5.42
-9.94
-26.99
-44.01
-59.34
-71.72
-80.61
-86.13
-88.89
-89.70
-89.33
-88.36
-87.10
-85.59
-83.51
-80.30
-75.40
-68.52
-59.94
-50.37
-40.62
-31.09
-21.45
-10.80
1.82
16.87
34.04
52.44
71.15
89.49
107.04
123.19
136.72
145.91
149.05
145.25
134.97
120.06
102.97
85.96
70.38
56.49
43.79
31.58
19.50
7.62
-3.58
-13.52
-21.75
-28.08
-32.58
-35.60
-37.81
-40.20
-43.98
-50.13
-58.87
-69.14
-78.72
-84.84
-85.38
-79.85
-69.73
-57.90
-47.35
-39.84
-35.32
-32.19
-28.39
-22.47
-14.26
-4.76
4.42
11.85
16.75
19.13
19.69
19.58
20.10
22.46
27.33
34.60
43.26
51.58
57.60
59.76
57.27
50.31
39.79
27.00
13.17
-0.66
-13.79
-25.86
-36.81
-46.77
-55.82
-63.70
-69.67
-72.64
-71.71
-66.80
-58.87
-49.71
-41.10
-33.94
-27.87
-21.61
-13.86
-4.14
6.84
17.62
26.75
33.47
37.76
39.94
40.19
38.31
34.01
27.34
19.02
10.31
2.56
-3.36
-7.33
-9.87
-11.71
-13.33
-14.73
-15.45
-14.89
-12.64
-8.75
-3.84
1.09
4.99
7.21
7.85
7.91
9.11
13.47
22.60
37.09
55.95
76.68
95.76
109.69
116.02
114.14
105.30
92.09
77.44
63.65
51.92
42.33
34.43
27.69
21.84
16.80
12.44
8.32
3.83
-1.57
-7.85
-14.26
-19.46
-21.95
-20.81
-16.14
-9.15
-1.92
3.08
3.55
-2.28
-15.25
-34.97
-59.54
-85.58
-108.70
-124.54
-130.05
-124.68
-110.69
-92.50
-75.07
-62.06
-54.59
-51.08
-48.29
-43.03
-33.47
-19.78
-3.60
12.95
28.19
41.21
51.51
58.47
61.10
58.42
50.11
37.11
21.66
6.62
-5.66
-14.24
-19.81
-24.19
-29.28
-36.05
-44.03
-51.57
-56.64
-57.84
-54.96
-48.96
-41.28
-33.01
-24.33
-14.44
-2.14
13.56
32.85
54.99
78.41
101.04
120.59
134.92
142.42
142.52
135.87
124.33
110.34
96.22
83.48
72.58
63.13
54.34
45.41
35.71
24.94
13.06
0.33
-12.78
-25.87
-38.82
-51.84
-65.17
-78.50
-90.49
-98.88
-101.22
-95.83
-82.72
-63.75
-42.19
-21.79
-5.87
3.35
4.99
-0.51
-11.32
-24.59
-36.91
-45.25
-47.89
-45.07
-38.93
-32.67
-29.24
-30.12
-34.71
-40.57
-44.45
-43.51
-36.36
-23.47
-6.86
10.75
26.76
39.41
47.99
52.78
54.72
54.95
54.52
54.12
53.91
53.54
52.31
49.61
45.25
39.77
34.29
30.17
28.41
29.23
31.88
34.84
36.18
34.12
27.66
17.02
3.79
-9.52
-20.38
-27.27
-30.45
-31.77
-33.71
-37.98
-44.36
-50.71
-53.93
-51.51
-42.85
-29.44
-14.08
0.44
12.38
21.37
27.90
32.52
35.32
35.97
34.17
30.20
25.06
20.11
16.32
13.83
11.84
9.03
4.11
-3.91
-15.71
-31.85
-52.73
-78.13
-106.59
-135.01
-159.08
-174.48
-178.59
-171.64
-156.82
-139.09
-123.11
-111.41
-103.63
-97.11
-88.60
-75.98
-59.18
-39.86
-20.32
-2.19
14.20
29.44
44.11
57.93
69.58
77.31
80.08
78.32
74.12
70.40
69.75
73.39
80.87
90.45
100.11
108.37
114.84
119.99
124.61
129.14
133.47
137.00
139.08
139.27
137.34
132.96
125.48
113.90
97.32
75.57
49.66
21.85
-4.89
-27.59
-44.19
-53.89
-57.25
-55.76
-51.32
-45.74
-40.41
-36.12
-33.07
-31.02
-29.46
-27.95
-26.38
-25.11
-24.99
-27.15
-32.65
-42.01
-54.83
-69.67
-84.23
-95.97
-102.91
-104.32
-100.89
-94.47
-87.27
-81.13
-76.92
-74.57
-73.27
-71.79
-68.79
-63.04
-53.66
-40.56
-24.63
-7.83
7.36
18.58
24.39
24.65
20.50
13.96
7.39
2.96
2.18
5.63
12.88
22.60
32.95
42.12
48.82
52.60
53.98
54.29
55.36
59.05
66.49
77.57
90.64
102.86
111.25
113.73
109.99
101.41
90.31
78.80
68.13
58.43
49.22
39.92
30.15
19.75
8.57
-3.52
-16.43
-29.56
-41.70
-51.34
-57.23
-58.97
-57.21
-53.46
-49.48
-46.63
-45.50
-45.87
-46.94
-47.81
-47.79
-46.73
-44.95
-43.21
-42.39
-43.24
-46.18
-51.02
-57.06
-63.15
-68.10
-71.02
-71.55
-69.92
-66.72
-62.62
-58.20
-53.87
-49.88
-46.40
-43.37
-40.38
-36.67
-31.20
-23.01
-11.65
2.58
18.68
35.25
50.89
64.58
75.82
84.62
91.36
96.57
100.74
104.17
106.90
108.70
109.30
108.53
106.50
103.62
100.42
97.27
94.21
91.08
87.68
84.16
81.10
79.32
79.51
81.84
85.70
89.87
92.85
93.23
90.00
82.71
71.42
56.72
39.59
21.28
3.18
-13.54
-28.11
-40.29
-50.39
-58.88
-66.25
-72.69
-78.11
-82.30
-85.14
-86.77
-87.61
-88.18
-88.80
-89.44
-89.63
-88.62
-85.79
-80.87
-74.23
-66.87
-60.16
-55.38
-53.35
-54.11
-56.85
-60.26
-62.80
-63.23
-60.95
-56.15
-49.79
-43.33
-38.36
-36.14
-37.17
-40.90
-45.79
-49.66
-50.52
-47.31
-40.36
-31.26
-22.15
-14.75
-9.71
-6.32
-3.09
1.55
8.52
17.75
28.39
39.25
49.22
57.52
63.63
67.26
68.28
66.78
63.22
58.41
53.31
48.77
45.15
42.30
39.62
36.48
32.56
27.99
23.33
19.28
16.33
14.67
14.06
14.01
13.93
13.35
12.04
10.08
7.72
5.21
2.63
-0.18
-3.48
-7.35
-11.43
-14.95
-16.98
-16.90
-14.76
-11.34
-7.88
-5.50
-4.82
-5.80
-7.98
-10.78
-13.81
-16.87
-19.79
-22.26
-23.92
-24.48
-24.00
-22.87
-21.61
-20.50
-19.46
-18.08
-15.96
-12.97
-9.40
-5.68
-2.13
1.24
4.55
7.84
10.77
12.66
12.66
10.12
4.89
-2.45
-10.65
-18.05
-22.98
-24.29
-21.74
-16.08
-8.78
-1.49
4.47
8.42
10.23
10.16
8.58
5.96
2.77
-0.51
-3.57
-6.37
-9.14
-12.08
-15.14
-17.73
-19.02
-18.18
-14.93
-9.65
-3.11
3.98
11.44
19.71
29.47
41.02
53.77
66.19
76.27
82.22
83.21
79.64
72.84
64.50
55.90
47.59
39.41
30.70
20.50
7.75
-8.52
-28.80
-52.54
-77.79
-101.33
-119.44
-129.20
-129.50
-121.43
-107.72
-91.61
-75.85
-62.12
-51.05
-42.56
-36.03
-30.31
-23.71
-14.25
-0.25
18.76
41.54
65.30
86.58
102.58
112.28
116.70
118.30
119.77
122.73
127.34
132.46
136.53
138.32
137.10
132.45
123.78
110.86
94.53
77.14
61.78
50.74
44.17
40.28
37.15
34.87
36.35
45.74
65.06
91.21
115.52
126.55
115.11
78.87
24.05
-36.39
-87.09
-115.24
-114.17
-84.85
-35.20
22.46
75.09
112.54
129.75
126.90
107.35
75.10
32.86
-17.85
-75.04
-134.44
-189.15
-231.38
-255.17
-258.67
-244.21
-216.55
-180.48
-139.60
-97.05
-56.66
-23.15
-0.74
9.27
9.82
7.07
7.19
13.15
23.36
33.30
38.72
38.17
33.31
26.98
20.64
13.36
2.89
-11.93
-29.48
-45.62
-55.84
-57.79
-52.66
-44.58
-38.54
-37.97
-43.41
-52.70
-62.44
-69.70
-73.06
-72.80
-70.21
-66.73
-63.24
-59.94
-56.47
-52.36
-47.33
-41.47
-35.18
-28.99
-23.23
-17.90
-12.61
-6.70
0.55
9.59
20.49
32.87
45.99
59.00
71.20
82.22
92.08
101.17
110.00
119.06
128.61
138.57
148.53
157.91
166.04
172.50
177.26
180.74
183.78
187.52
193.24
202.07
214.48
229.73
245.72
259.23
266.94
266.62
258.00
242.82
224.01
204.43
185.91
168.97
153.34
138.78
125.45
113.85
104.18
95.80
87.21
76.63
62.79
45.55
25.94
5.76
-13.22
-29.96
-44.53
-57.94
-71.88
-88.11
-107.92
-131.42
-156.90
-180.65
-197.51
-202.48
-192.59
-168.55
-134.92
-98.85
-67.66
-46.58
-37.54
-39.73
-51.11
-69.88
-94.95
-125.31
-159.10
-193.54
-225.69
-253.50
-276.07
-292.95
-303.20
-305.04
-296.64
-277.65
-250.36
-219.36
-189.93
-165.82
-148.00
-135.04
-124.62
-115.20
-106.60
-99.39
-93.76
-88.84
-83.04
-74.88
-63.80
-50.40
-36.05
-22.13
-9.37
2.45
14.25
27.02
41.19
56.26
70.92
83.57
92.96
98.74
101.47
102.28
102.30
102.21
102.11
101.72
100.64
98.55
95.21
90.30
83.28
73.49
60.43
43.94
24.31
2.09
-22.06
-47.48
-73.49
-99.20
-123.47
-144.92
-162.22
-174.35
-180.89
-181.98
-178.35
-171.13
-161.73
-151.63
-142.08
-133.92
-127.42
-122.43
-118.51
-115.18
-112.02
-108.56
-104.27
-98.58
-90.98
-81.31
-69.78
-56.93
-43.36
-29.57
-15.83
-2.29
10.79
22.91
33.26
40.97
45.41
46.37
44.24
39.84
34.14
27.96
21.75
15.62
9.53
3.51
-2.23
-7.32
-11.40
-14.19
-15.59
-15.61
-14.29
-11.65
-7.82
-3.00
2.41
7.88
12.84
16.85
19.75
21.70
23.21
24.92
27.41
31.02
35.76
41.27
46.99
52.25
56.38
58.82
59.10
56.87
51.92
44.33
34.49
23.14
11.21
-0.43
-11.33
-21.59
-31.69
-42.04
-52.42
-61.67
-67.91
-69.29
-64.86
-55.25
-42.63
-30.02
-20.30
-15.33
-15.58
-20.36
-28.41
-38.61
-50.23
-62.98
-76.52
-90.12
-102.54
-112.24
-117.92
-119.06
-116.17
-110.60
-103.99
-97.60
-91.94
-86.99
-82.80
-80.14
-80.51
-85.45
-95.12
-107.38
-117.69
-120.31
-110.52
-86.61
-50.66
-7.57
36.87
77.62
111.05
134.85
147.60
148.99
140.51
125.73
109.55
96.31
87.98
83.44
79.67
73.89
65.56
56.81
51.55
53.79
66.04
88.19
116.96
146.32
168.77
177.82
170.65
149.43
120.47
91.23
66.87
48.33
32.96
17.29
-0.18
-17.96
-32.90
-42.53
-46.73
-47.52
-47.58
-48.35
-49.50
-49.49
-46.79
-41.07
-33.22
-24.89
-17.46
-11.25
-5.30
2.20
13.15
28.70
48.59
71.23
94.18
115.09
132.33
145.24
153.78
157.99
157.57
151.89
140.61
124.23
104.33
83.15
62.70
43.82
25.92
7.43
-13.22
-36.65
-61.92
-86.59
-107.37
-120.98
-125.01
-118.64
-102.92
-80.82
-56.61
-34.94
-19.62
-12.52
-13.14
-19.01
-26.62
-32.73
-35.13
-32.88
-26.00
-15.02
-0.62
16.26
34.32
51.80
66.49
75.89
77.66
70.09
52.83
27.54
-1.80
-29.35
-48.78
-55.17
-46.76
-25.52
3.53
34.17
61.02
80.95
93.26
98.93
99.54
96.48
90.78
83.24
74.82
66.63
59.55
53.84
48.83
43.05
34.83
