1660755102.00
64.000000
-0.00
-0.00
-0.00
-0.00
-0.00
-0.00
-0.00
-0.00
-0.00
-0.00
0.00
0.01
0.01
-0.00
-0.03
-0.05
-0.05
0.00
0.13
0.36
0.66
1.01
1.37
1.72
2.06
2.40
2.79
3.24
3.80
4.42
5.06
5.66
6.20
6.68
7.15
7.68
8.31
9.14
10.09
11.04
11.88
12.56
13.14
13.76
14.65
15.96
17.91
20.32
22.90
25.38
27.58
29.57
31.68
34.32
37.81
42.54
48.15
54.10
59.83
64.97
69.58
74.14
79.34
85.71
93.76
103.00
112.62
121.73
129.77
136.75
143.30
150.75
157.77
166.64
177.95
191.79
206.97
220.57
228.25
225.36
208.53
176.87
132.76
80.05
23.07
-34.94
-92.44
-149.16
-205.23
-260.37
-313.74
-363.87
-409.83
-450.91
-486.50
-515.74
-537.23
-549.22
-549.96
-538.37
-514.21
-478.67
-433.88
-382.45
-327.02
-269.84
-212.63
-156.66
-102.95
-52.37
-5.90
35.58
71.43
101.35
125.50
144.38
158.69
169.15
176.37
180.75
182.57
182.07
179.51
175.23
169.65
163.18
156.15
148.81
141.30
133.69
126.02
118.33
110.69
103.16
95.80
88.68
81.83
75.25
68.95
62.95
57.25
51.86
46.78
42.03
37.59
33.45
29.61
26.07
22.81
19.83
17.11
14.67
12.48
10.54
8.83
7.35
6.07
4.97
4.05
3.27
2.62
2.09
1.65
1.30
1.01
0.79
0.61
0.47
0.37
0.28
0.22
0.18
0.15
0.12
0.11
0.11
0.12
0.13
0.15
0.18
0.21
0.24
0.28
0.32
0.37
0.41
0.45
0.50
0.55
0.60
0.66
0.72
0.78
0.85
0.92
1.00
1.09
1.19
1.30
1.43
1.57
1.72
1.90
2.09
2.31
2.54
2.81
3.10
3.42
3.77
4.16
4.58
5.03
5.52
6.06
6.63
7.24
7.89
8.59
9.33
10.13
10.99
11.91
12.87
13.85
14.83
15.82
16.79
17.80
18.89
20.05
21.27
22.44
23.47
24.16
24.40
24.06
23.11
21.51
19.28
16.45
13.02
9.08
4.72
0.10
-4.52
-8.85
-12.60
-15.57
-17.71
-19.13
-20.08
-20.84
-21.56
-22.25
-22.69
-22.64
-21.90
-20.54
-18.87
-17.39
-16.58
-16.67
-17.48
-18.46
-18.95
-18.47
-17.03
-15.07
-13.35
-12.63
-13.19
-14.66
-16.20
-16.90
-16.24
-14.26
-11.57
-8.90
-7.05
-6.48
-7.46
-10.16
-14.35
-18.75
-20.73
-16.59
-2.86
21.54
54.70
91.96
127.61
156.91
177.35
188.58
191.22
185.85
172.11
150.22
122.02
91.15
62.03
37.91
19.05
1.98
-15.53
-37.09
-64.48
-95.98
-126.33
-148.38
-155.53
-144.10
-114.73
-72.12
-24.19
20.69
55.60
76.17
81.04
71.85
52.79
29.80
9.21
-4.42
-9.09
-5.86
2.05
10.86
17.76
21.62
22.72
21.84
18.91
12.92
2.04
-15.68
-41.35
-74.34
-111.72
-148.47
-178.66
-197.30
-201.81
-192.64
-172.58
-145.17
-113.15
-77.95
-40.13
-0.55
38.86
75.16
105.06
125.70
135.15
132.58
118.46
94.85
65.53
35.55
9.94
-8.10
-18.50
-24.56
-31.71
-45.52
-69.56
-104.04
-145.62
-188.27
-225.19
-251.03
-263.91
-266.19
-263.46
-262.10
-266.31
-276.01
-286.74
-291.61
-284.42
-262.45
-227.53
-185.31
-142.73
-105.58
-76.58
-54.91
-37.14
-18.84
3.54
31.51
64.23
99.00
132.26
160.42
180.54
190.76
190.88
183.03
172.02
164.73
168.66
189.07
226.36
274.93
323.94
360.35
373.03
356.54
313.00
251.23
183.35
120.37
68.51
27.91
-5.69
-37.68
-71.13
-105.11
-135.41
-156.89
-165.82
-161.03
-143.47
-114.58
-74.77
-23.30
40.36
114.32
192.69
265.85
322.77
354.31
356.66
332.45
289.33
236.85
182.80
131.00
81.31
31.29
-21.60
-78.59
-139.16
-201.26
-261.61
-315.88
-358.95
-385.68
-392.13
-376.61
-340.11
-286.18
-220.27
-149.01
-79.51
-18.54
28.53
58.83
72.77
73.92
67.80
60.17
55.26
54.80
58.08
62.81
66.33
66.68
63.16
56.38
47.83
39.34
32.38
27.66
25.00
23.60
22.34
20.20
16.51
11.17
4.58
-2.43
-8.86
-13.87
-16.93
-17.90
-16.93
-14.39
-10.79
-6.76
-3.00
-0.08
1.78
2.78
3.50
4.69
6.96
10.61
15.50
21.02
26.21
30.03
31.65
30.68
27.33
22.22
16.04
9.24
1.92
-5.88
-13.82
-20.86
-25.51
-26.47
-23.38
-17.20
-9.94
-3.88
-0.60
-0.41
-2.45
-5.19
-7.14
-7.42
-5.81
-2.59
1.81
7.02
12.71
18.53
23.96
28.41
31.30
32.26
31.14
28.09
23.41
17.58
11.23
5.06
-0.32
-4.47
-7.30
-9.06
-10.22
-11.35
-12.93
-15.26
-18.29
-21.74
-25.03
-27.40
-28.06
-26.32
-21.93
-15.23
-7.17
0.90
7.67
12.25
14.38
14.46
13.27
11.65
10.23
9.29
8.91
9.07
9.75
10.86
12.13
13.02
12.92
11.47
8.71
5.15
1.54
-1.47
-3.57
-4.82
-5.47
-5.79
-5.89
-5.75
-5.28
-4.40
-3.10
-1.46
0.44
2.52
4.70
6.83
8.69
10.05
10.85
11.21
11.51
12.14
13.20
14.31
14.66
13.38
9.93
4.50
-2.07
-8.59
-14.03
-17.87
-20.08
-20.86
-20.42
-18.86
-16.28
-13.02
-9.57
-6.50
-4.09
-2.22
-0.39
2.00
5.17
8.82
12.19
14.44
15.06
14.26
12.69
11.09
9.83
8.81
7.63
5.97
3.79
1.12
-2.04
-6.00
-11.15
-17.69
-25.21
-32.60
-38.34
-41.06
-40.14
-35.93
-29.64
-22.85
-17.05
-13.18
-11.54
-11.80
-13.25
-15.10
-16.63
-17.34
-16.90
-15.19
-12.53
-9.61
-7.42
-6.78
-7.81
-9.72
-11.10
-10.70
-8.25
-4.85
-2.59
-3.58
-9.02
-18.60
-30.60
-42.22
-50.09
-50.78
-41.48
-20.86
9.75
45.66
79.24
101.81
106.41
90.22
55.37
7.68
-45.91
-99.82
-150.81
-197.09
-236.89
-267.37
-284.88
-286.59
-271.94
-243.20
-204.44
-159.83
-112.13
-62.59
-12.09
37.44
82.38
118.16
141.21
150.88
150.08
144.22
138.85
137.27
139.24
141.55
140.12
132.44
118.91
102.64
88.04
79.20
78.72
87.57
105.33
130.64
161.37
194.85
228.30
259.31
286.32
308.49
325.60
337.36
343.18
342.16
333.10
314.57
285.05
243.69
191.66
133.46
76.64
29.67
-1.44
-16.26
-20.72
-24.82
-38.65
-68.67
-116.03
-177.36
-246.63
-316.79
-380.44
-430.14
-459.49
-465.57
-451.36
-426.20
-402.94
-392.48
-398.67
-416.64
-435.24
-442.83
-432.88
-406.34
-370.04
-332.16
-297.97
-268.00
-239.28
-208.35
-174.03
-138.39
-105.28
-77.99
-57.53
-41.97
-27.64
-10.85
10.67
37.32
68.48
103.37
140.79
177.97
209.46
227.73
225.83
201.20
158.07
106.83
59.97
26.97
10.72
7.63
10.83
14.36
15.55
14.80
13.34
11.19
6.80
-1.60
-14.09
-28.28
-40.21
-46.04
-43.94
-34.79
-21.63
-7.96
3.92
14.02
24.61
39.21
61.02
91.41
129.16
170.61
210.61
243.87
266.28
275.68
272.22
257.97
236.12
210.23
183.45
158.18
136.05
118.30
106.24
101.55
105.88
119.99
142.48
169.23
193.92
209.81
212.05
199.31
174.02
141.11
106.15
73.66
46.36
25.43
10.91
2.16
-1.97
-3.02
-2.60
-1.95
-1.70
-2.04
-3.12
-5.35
-9.33
-15.27
-22.39
-28.87
-32.61
-32.28
-28.25
-22.59
-18.20
-17.40
-20.90
-27.63
-35.26
-41.36
-44.19
-43.06
-38.03
-29.43
-17.67
-3.32
12.58
28.39
42.05
51.65
56.00
55.07
49.93
42.44
34.70
28.39
24.49
23.08
23.63
25.34
27.64
30.46
34.18
39.31
46.04
54.00
62.31
70.03
76.72
82.80
89.52
98.28
109.83
123.77
138.60
152.38
163.79
172.69
180.19
187.95
197.27
208.50
220.95
233.31
244.31
253.34
260.76
267.86
276.38
287.83
302.78
320.40
338.43
353.74
363.29
364.91
357.89
342.93
321.73
296.65
270.28
245.12
223.15
205.50
192.28
182.54
174.53
165.90
154.06
136.46
111.20
77.62
36.79
-8.45
-54.18
-96.53
-132.78
-161.96
-184.61
-202.01
-215.37
-225.50
-232.90
-238.25
-242.53
-246.92
-252.34
-259.21
-267.44
-276.69
-287.03
-298.91
-312.92
-329.11
-346.47
-363.08
-376.86
-386.33
-390.89
-390.31
-383.94
-370.45
-348.67
-318.99
-284.33
-249.63
-219.96
-198.22
-184.18
-175.39
-169.36
-165.36
-164.39
-167.36
-173.12
-177.85
-176.65
-166.22
-147.09
-123.64
-102.03
-87.33
-81.53
-83.31
-89.45
-96.73
-103.12
-107.83
-110.72
-111.46
-109.31
-103.38
-93.36
-79.86
-64.50
-49.31
-35.87
-24.66
-14.90
-5.10
6.16
19.46
34.51
50.51
66.81
83.30
100.02
116.72
132.32
145.19
153.86
157.78
157.76
155.45
152.52
149.69
146.44
141.40
133.14
121.00
105.48
88.06
70.62
54.73
41.05
29.22
17.98
5.80
-8.43
-24.83
-42.49
-59.71
-74.81
-86.76
-95.71
-103.25
-111.95
-124.61
-143.14
-167.52
-195.32
-222.11
-242.67
-252.64
-249.98
-235.62
-213.12
-187.42
-163.36
-144.36
-131.80
-125.07
-122.05
-119.79
-115.27
-106.09
-91.03
-70.37
-45.83
-20.13
3.67
23.14
36.99
45.43
49.91
52.55
55.48
60.25
67.58
77.29
88.47
99.68
109.33
116.18
119.77
120.63
120.05
119.11
117.64
113.51
103.10
83.17
53.17
16.93
-17.84
-42.12
-49.26
-37.88
-12.47
18.52
45.99
63.25
67.46
59.31
41.76
18.73
-5.66
-27.50
-43.48
-51.68
-52.29
-47.74
-41.97
-39.04
-41.62
-50.06
-62.42
-75.31
-85.23
-89.87
-88.67
-82.80
-74.44
-65.86
-58.63
-53.27
-49.39
-45.92
-41.70
-35.77
-27.93
-18.95
-10.74
-6.01
-7.25
-15.56
-29.62
-45.62
-58.30
-62.77
-56.44
-40.06
-17.44
6.03
25.43
37.88
43.41
44.42
44.56
47.14
53.83
64.12
75.63
85.07
89.59
87.82
80.34
69.37
57.89
48.78
44.00
44.43
49.92
59.58
72.05
85.73
98.89
110.08
118.48
124.25
128.48
132.63
137.36
141.74
143.01
137.78
123.93
102.43
77.80
56.81
45.73
47.29
59.19
74.63
85.10
83.92
69.03
43.79
15.40
-8.11
-21.08
-22.15
-14.54
-4.42
1.52
-1.49
-14.90
-36.76
-62.88
-88.47
-109.56
-123.94
-131.27
-132.71
-130.29
-126.36
-122.76
-120.16
-117.58
-112.54
-102.28
-85.75
-65.65
-48.57
-42.74
-53.81
-80.74
-114.46
-140.26
-143.72
-117.05
-62.76
6.93
74.77
124.68
146.87
140.07
110.63
69.57
28.88
-1.61
-16.27
-14.23
1.44
25.50
52.48
78.14
99.82
116.32
127.68
135.19
141.52
150.48
166.03
190.50
223.15
259.77
293.96
319.45
332.49
333.13
325.11
314.16
305.74
303.09
306.15
311.79
315.15
311.50
297.93
274.26
242.77
207.12
170.84
136.31
104.42
74.87
46.82
19.41
-8.09
-36.27
-65.57
-96.28
-128.46
-161.92
-196.29
-231.16
-266.15
-301.06
-335.91
-371.13
-407.69
-446.93
-489.91
-536.50
-584.62
-630.46
-669.77
-699.47
-718.77
-728.84
-731.42
-727.06
-714.48
-691.42
-656.51
-610.91
-558.41
-504.10
-452.15
-404.23
-359.43
-315.60
-271.12
-225.95
-181.54
-139.80
-101.89
-67.38
-34.47
-0.77
35.59
75.02
116.25
156.92
194.48
227.40
255.83
281.61
307.58
336.67
370.89
410.57
453.98
497.38
535.82
564.40
579.78
581.24
570.86
552.50
530.11
506.07
480.51
451.90
418.67
380.81
340.47
301.41
267.31
240.10
219.06
200.90
180.72
153.38
115.00
64.72
5.77
-54.16
-104.25
-133.73
-136.03
-112.15
-71.29
-27.75
4.69
18.32
13.96
-0.82
-16.60
-27.12
-31.63
-33.64
-37.30
-44.26
-52.82
-59.67
-62.65
-62.40
-62.00
-64.86
-72.65
-84.68
-98.83
-113.14
-126.79
-139.97
-153.09
-165.89
-177.48
-186.88
-193.81
-198.85
-203.02
-206.90
-210.09
-211.40
-209.57
-204.14
-195.65
-185.76
-177.08
-173.07
-177.40
-192.63
-218.59
-251.16
-282.79
-304.70
-310.21
-297.14
-268.21
-229.15
-185.49
-140.33
-93.92
-45.19
6.14
58.56
109.12
154.84
193.89
225.85
251.20
270.72
284.94
294.08
298.04
296.64
289.77
277.86
262.28
245.48
230.50
219.79
214.03
211.48
208.67
202.03
189.90
173.84
158.54
150.13
153.33
168.74
191.24
210.75
215.28
195.66
150.01
85.90
18.94
-32.29
-53.00
-37.90
6.72
65.38
119.15
152.10
155.94
131.44
86.89
34.70
-12.55
-45.43
-59.62
-56.28
-40.81
-20.60
-2.50
9.00
12.20
7.46
-3.84
-20.04
-39.23
-58.76
-75.24
-85.38
-87.42
-82.24
-73.28
-65.15
-61.66
-64.05
-70.54
-77.07
-79.20
-74.46
-63.85
-52.30
-47.72
-58.50
-90.34
-143.25
-210.39
-279.26
-335.44
-367.25
-369.34
-343.66
-297.62
-240.80
-181.69
-126.03
-76.49
-33.53
3.66
36.44
65.92
92.53
115.47
132.75
141.90
141.10
130.21
111.02
86.72
61.22
38.57
22.69
16.97
23.55
42.43
70.90
104.07
136.27
162.80
181.29
192.11
197.66
201.03
204.60
208.77
211.50
208.75
196.12
171.25
136.15
98.06
67.94
56.65
70.23
106.65
155.83
203.06
234.50
241.80
223.92
185.55
133.78
75.13
14.36
-44.94
-99.33
-145.18
-179.46
-200.94
-210.94
-212.67
-209.88
-205.26
-199.84
-193.33
-184.83
-173.43
-158.26
-138.58
-114.19
-86.06
-56.82
-30.46
-10.94
-0.44
1.78
-0.75
-3.09
-1.05
6.97
19.11
30.44
34.19
23.67
-5.94
-55.73
-121.72
-194.87
-262.74
-312.39
-334.12
-324.69
-288.61
-237.05
-183.92
-141.03
-113.70
-99.18
-88.45
-71.06
-40.51
2.12
48.68
88.12
112.00
118.57
113.11
104.54
100.57
104.13
113.11
122.74
128.99
130.83
130.33
131.15
136.40
147.18
162.39
179.39
194.59
203.82
202.67
186.97
154.23
105.36
45.94
-14.05
-62.19
-87.10
-82.27
-48.76
4.57
63.62
113.58
143.56
149.55
134.50
105.87
71.81
38.06
6.51
-23.93
-55.36
-88.92
-123.88
-157.98
-188.94
-215.58
-237.93
-256.50
-270.98
-279.64
-279.68
-268.50
-245.34
-212.26
-173.71
-134.99
-100.41
-71.82
-48.19
-26.19
-1.51
29.39
68.07
113.42
161.86
208.37
247.61
274.81
286.17
279.02
252.67
209.85
157.92
108.43
74.21
64.52
80.70
114.80
152.43
178.76
184.41
168.36
136.55
97.68
59.10
24.64
-4.85
-29.50
-48.77
-61.43
-66.79
-66.08
-62.74
-61.51
-66.29
-78.26
-95.04
-111.15
-120.05
-116.39
-98.13
-67.28
-29.09
10.00
44.86
73.68
98.38
123.18
152.50
188.51
229.86
271.83
307.83
331.17
336.78
322.72
291.21
249.17
207.15
176.63
166.04
177.28
204.50
236.21
259.91
266.96
255.11
227.71
190.47
147.99
102.16
52.92
0.41
-53.63
-105.84
-153.02
-193.99
-230.42
-266.11
-305.37
-351.24
-404.24
-462.25
-521.11
-575.68
-621.16
-654.01
-672.48
-676.31
-666.31
-643.51
-608.77
-562.97
-507.39
-444.11
-376.14
-307.29
-241.63
-182.79
-133.09
-92.77
-59.73
-30.02
0.92
36.64
78.39
125.15
174.77
225.58
277.31
330.76
386.57
443.85
499.56
549.16
587.87
611.97
619.53
610.52
586.50
550.40
505.73
456.15
404.79
354.03
305.60
260.98
221.76
189.36
164.25
145.13
128.89
111.53
89.79
62.45
30.98
-1.11
-29.73
-51.55
-64.97
-70.24
-69.23
-65.09
-61.94
-64.47
-76.95
-101.62
-137.27
-178.79
-218.61
-249.43
-267.01
-271.58
-267.12
-259.04
-251.79
-247.61
-247.01
-250.21
-258.03
-271.51
-290.44
-312.08
-331.11
-341.40
-338.84
-323.54
-300.37
-277.07
-261.17
-256.95
-263.90
-277.62
-292.30
-303.54
-310.01
-313.15
-315.42
-318.13
-320.29
-319.01
-310.91
-293.78
-267.33
-232.67
-191.38
-145.05
-95.71
-46.75
-2.95
30.68
51.13
59.36
60.70
62.98
73.66
97.14
133.58
179.39
228.67
274.86
312.20
336.94
348.31
348.81
343.31
337.05
333.20
331.54
329.10
322.69
311.45
297.67
285.44
278.01
275.53
274.80
271.17
261.20
244.61
224.32
205.01
190.95
184.23
184.11
187.51
190.26
188.65
180.51
165.83
146.43
125.25
105.38
89.31
78.46
72.90
71.03
69.33
62.70
45.96
16.50
-23.15
-64.36
-94.72
-103.20
-85.71
-47.76
-2.36
35.89
57.09
59.32
47.06
26.73
2.30
-25.76
-58.39
-94.74
-130.94
-161.73
-183.91
-198.77
-211.64
-228.89
-254.16
-286.47
-320.95
-351.32
-372.59
-382.57
-381.99
-373.62
-360.96
-347.10
-333.85
-321.40
-308.30
-292.31
-271.37
-244.14
-209.85
-167.88
-117.85
-61.00
-2.19
49.36
81.86
85.71
58.78
9.21
-46.59
-90.13
-108.07
-96.56
-60.75
-10.70
43.54
94.82
139.07
174.01
198.32
211.78
215.91
213.99
209.60
204.93
199.93
192.76
181.55
165.71
146.18
124.59
102.27
79.98
58.58
39.86
26.60
21.75
26.98
41.82
63.55
88.25
112.11
132.76
149.63
163.71
176.65
189.59
202.30
212.68
217.03
211.16
192.00
159.12
115.39
66.58
19.81
-18.23
-42.53
-50.22
-40.52
-14.75
23.46
68.07
111.34
145.49
164.80
167.21
154.41
130.65
100.98
69.95
41.14
17.26
-0.04
-10.43
-15.35
-17.94
-21.96
-30.47
-44.68
-63.80
-85.80
-108.50
-130.24
-149.86
-166.26
-177.87
-182.94
-180.20
-169.85
-154.06
-136.53
-121.17
-110.36
-103.79
-98.10
-88.46
-71.04
-45.67
-17.13
5.45
11.39
-7.42
-52.90
-118.88
-192.32
-257.13
-299.37
-311.18
-292.37
-249.18
-191.43
-129.47
-71.84
-23.86
12.93
40.57
63.36
85.60
109.30
132.85
151.71
160.92
157.91
144.00
123.56
101.16
79.33
57.88
35.32
11.12
-12.86
-32.84
-44.89
-46.59
-37.95
-20.83
2.22
29.01
58.14
88.80
120.54
152.68
183.94
212.05
233.31
242.69
234.69
205.09
153.56
85.46
11.91
-52.52
-93.81
-102.68
-77.24
-23.46
46.78
119.05
179.85
219.35
232.92
221.27
189.51
145.21
95.97
47.33
1.71
-40.95
-81.65
-120.50
-155.96
-185.56
-207.00
-219.27
-222.88
-219.23
-209.74
-195.26
-175.97
-152.08
-124.43
-94.78
-65.51
-38.92
-16.54
1.17
14.77
25.38
34.07
41.49
47.96
53.69
58.72
62.59
63.64
58.42
41.97
9.53
-41.14
-107.33
-180.64
-248.75
-298.89
-321.87
-314.44
-279.62
-225.19
-161.28
-97.91
-43.13
-1.90
24.53
38.17
43.11
43.73
43.20
42.63
41.63
39.68
37.29
36.42
39.32
47.32
60.04
75.50
91.18
104.94
115.39
121.76
123.81
121.72
116.65
111.20
109.18
114.32
128.28
148.64
168.21
176.64
163.94
125.08
63.35
-9.57
-76.88
-122.10
-134.26
-110.88
-57.88
12.78
86.39
148.77
188.81
200.47
183.92
145.27
94.68
42.92
-2.11
-37.37
-64.37
-86.69
-107.16
-126.17
-142.19
-153.30
-158.69
-159.24
-156.74
-152.80
-147.99
-141.72
-132.93
-120.84
-105.50
-87.85
-69.44
-51.75
-35.59
-20.77
-6.26
9.48
27.67
48.64
71.26
92.72
108.55
113.32
102.44
74.23
31.86
-16.31
-58.73
-84.24
-85.74
-61.91
-16.82
42.37
107.74
172.01
228.78
272.41
298.36
304.06
289.91
259.40
218.09
171.98
125.92
82.83
43.75
8.11
-25.53
-58.81
-92.72
-126.88
-159.16
-186.16
-204.21
-210.71
-204.74
-187.36
-161.00
-128.69
-93.10
-55.92
-17.62
22.41
65.09
110.43
156.56
199.11
231.82
248.47
245.60
224.91
194.20
165.99
153.80
167.26
208.16
269.26
336.67
394.87
432.02
443.34
431.06
401.59
361.78
316.32
267.46
216.40
165.03
116.37
73.49
37.62
6.94
-23.03
-57.42
-99.45
-148.89
-202.08
-253.64
-298.96
-336.14
-366.87
-395.77
-428.90
-471.35
-525.29
-588.18
-652.63
-707.88
-742.84
-749.50
-725.67
-675.88
-609.98
-540.03
-476.41
-424.94
-385.77
-354.54
-324.94
-291.62
-252.09
-206.94
-158.65
-109.70
-61.12
-12.31
38.20
91.30
146.72
203.25
259.52
314.35
366.45
413.58
452.07
477.58
486.47
477.52
452.85
417.35
377.22
338.22
304.58
278.77
261.79
253.50
252.82
257.59
264.83
271.24
273.99
271.30
262.60
248.30
229.53
207.84
184.89
161.79
138.45
113.54
85.45
54.23
23.11
-1.50
-12.44
-5.72
16.45
45.48
69.71
79.58
71.74
49.78
21.35
-6.28
-29.54
-48.94
-67.28
-86.96
-108.63
-131.57
-155.25
-180.54
-210.05
-247.26
-294.96
-353.64
-420.46
-489.12
-551.02
-597.55
-622.71
-625.12
-608.35
-579.18
-544.61
-509.25
-474.15
-437.57
-397.05
-351.13
-299.97
-244.73
-187.01
-128.95
-73.84
-26.30
9.07
29.87
37.86
39.20
42.39
54.86
80.25
117.80
163.83
213.78
263.76
310.78
352.12
385.23
408.12
420.22
422.52
417.01
405.42
388.54
366.81
341.26
313.93
287.51
263.96
243.33
223.82
203.18
180.62
157.97
139.14
128.33
127.95
137.32
152.83
169.52
183.22
192.05
196.74
199.60
203.20
209.11
217.55
227.57
237.38
244.44
245.73
238.54
222.12
199.08
175.57
159.28
155.91
166.04
184.23
201.21
208.06
199.99
177.70
145.82
109.75
72.95
36.30
-0.79
-38.62
-76.35
-112.50
-146.13
-177.73
-209.02
-241.96
-277.73
-315.97
-355.10
-393.17
-428.94
-462.73
-496.75
-534.54
-579.42
-632.35
-690.15
-745.22
-787.34
-807.17
-799.78
-766.56
-714.47
-652.93
-590.15
-530.61
-474.94
-421.70
-369.67
-319.17
-271.73
-228.78
-190.27
-154.37
-118.31
-79.78
-38.11
5.41
48.07
87.12
120.92
149.77
175.72
201.91
231.50
266.71
307.99
353.56
399.40
439.56
467.31
476.83
465.18
433.69
387.80
335.45
284.38
239.79
203.19
173.27
147.84
125.83
108.20
97.17
94.62
100.65
113.27
129.30
145.85
161.26
175.04
187.25
197.76
205.93
210.95
212.10
208.28
197.51
176.84
143.37
96.72
41.30
-13.31
-54.69
-71.86
-59.38
-19.43
38.95
103.04
160.05
200.26
218.68
215.52
195.23
164.79
131.68
102.06
79.71
65.92
59.97
59.62
61.51
60.95
52.81
33.06
0.78
-40.61
-83.78
-120.00
-142.34
-147.83
-138.13
-118.21
-94.35
-72.29
-56.19
-48.34
-49.15
-57.30
-70.11
-84.15
-96.41
-105.54
-112.77
-121.74
-137.59
-165.39
-208.34
-266.15
-334.20
-404.00
-465.22
-508.60
-528.81
-525.96
-504.95
-472.83
-435.95
-397.81
-358.94
-318.41
-275.55
-230.82
-185.46
-140.32
-95.32
-49.89
-4.12
40.50
81.45
116.49
144.81
167.58
187.42
207.34
229.71
255.60
284.70
315.57
345.94
373.42
395.91
412.04
421.11
422.54
414.79
394.97
359.40
305.92
236.55
159.17
86.80
34.32
13.79
30.34
80.05
150.86
226.06
289.00
327.43
336.05
316.64
275.96
222.65
164.16
105.04
46.79
-11.11
-69.80
-129.93
-190.95
-251.09
-307.10
-354.36
-387.78
-403.26
-399.51
-379.02
-347.12
-310.07
-272.67
-237.12
-203.61
-171.83
-142.22
-115.73
-92.56
-71.07
-47.78
-19.11
16.47
56.74
95.66
124.87
136.04
123.51
86.35
29.33
-37.68
-101.85
-150.99
-177.11
-178.74
-160.78
-132.39
-103.32
-80.80
-67.79
-62.90
-61.57
-57.80
-46.11
-23.47
9.40
47.72
84.09
111.18
124.59
124.40
114.63
101.13
89.01
81.25
78.53
80.18
85.19
92.55
100.95
108.46
112.77
112.15
106.80
99.63
95.72
100.52
117.24
144.32
174.63
196.77
198.93
173.80
122.48
55.51
-9.85
-55.10
-66.91
-41.62
13.59
83.35
149.34
195.86
213.68
201.10
162.65
106.45
41.60
-23.71
-83.16
-132.70
-170.58
-196.96
-213.29
-221.51
-223.30
-219.74
-211.51
-199.44
-184.89
-169.76
-155.62
-142.91
-130.55
-116.35
-98.08
-74.59
-46.28
-14.84
17.43
48.59
77.51
103.73
127.08
147.11
162.98
173.65
178.04
174.92
162.83
140.45
107.78
67.81
27.48
-3.24
-14.47
-0.51
36.96
88.63
140.55
179.11
195.69
188.82
163.31
127.35
89.21
55.16
28.72
11.01
1.38
-2.14
-2.29
-2.08
-4.10
-9.81
-19.10
-30.20
-40.16
-45.34
-42.30
-28.58
-3.47
31.60
73.22
116.69
157.35
191.87
219.12
239.95
256.06
268.30
275.58
275.14
264.39
243.29
215.58
187.90
166.85
155.58
151.94
149.33
140.02
118.91
85.88
45.54
4.97
-29.37
-53.88
-68.42
-75.73
-79.98
-85.46
-95.55
-112.28
-136.48
-168.24
-207.64
-254.54
-307.89
-364.75
-420.03
-467.37
-501.30
-519.32
-522.83
-516.13
-504.19
-490.43
-475.60
-458.41
-436.83
-409.31
-375.53
-336.88
-296.80
-260.74
-234.94
-224.08
-228.42
-242.38
-255.78
-257.78
-241.57
-207.15
-160.61
-110.53
-63.37
-20.80
19.78
62.49
110.19
163.11
219.23
275.59
328.89
375.47
411.32
432.66
437.18
425.10
399.57
365.49
327.76
289.89
253.85
221.02
193.34
173.64
164.84
168.20
182.06
201.82
221.48
235.84
242.39
241.64
236.22
229.17
222.68
217.62
213.87
210.76
207.14
201.12
190.18
172.22
147.06
117.35
87.86
63.18
44.89
30.37
14.36
-7.46
-35.16
-63.87
-86.37
-97.32
-96.54
-89.27
-83.40
-85.57
-98.65
-121.58
-151.36
-185.46
-223.10
-264.93
-311.77
-363.19
-416.77
-468.39
-513.20
-546.77
-566.15
-570.37
-560.44
-538.68
-507.82
-470.16
-427.24
-380.13
-329.67
-276.92
-223.22
-169.93
-117.98
-67.82
-20.01
24.06
61.86
90.40
107.71
114.63
115.41
116.88
126.25
148.81
186.26
236.45
293.87
350.93
399.36
431.91
444.03
435.22
409.19
372.65
332.88
295.24
262.02
232.99
207.06
183.48
162.22
143.40
126.56
110.47
93.78
75.73
56.47
36.73
17.43
-0.65
-16.81
-30.12
-39.36
-43.42
-41.62
-34.02
-21.54
-5.96
9.99
22.27
25.73
15.61
-10.15
-48.84
-92.88
-132.17
-158.06
-167.00
-161.90
-150.38
-140.94
-139.00
-144.73
-153.65
-159.11
-155.48
-140.44
-115.65
-85.83
-57.00
-34.31
-20.63
-16.15
-18.90
-26.00
-34.82
-43.20
-48.87
-49.18
-41.50
-24.48
0.57
29.24
55.28
73.17
80.67
79.97
76.48
75.82
80.49
87.85
90.38
78.54
44.97
-11.51
-84.23
-159.78
-222.03
-257.41
-259.65
-231.91
-185.22
-133.92
-89.86
-58.30
-37.04
-18.81
4.73
39.36
86.47
143.25
204.19
262.75
312.27
346.95
362.56
357.63
334.10
297.17
254.44
214.19
183.53
166.43
162.90
168.97
178.48
185.04
183.70
171.91
149.34
116.81
74.56
22.72
-37.64
-101.97
-162.00
-208.26
-233.77
-236.98
-221.98
-196.99
-169.98
-150.38
-144.38
-151.68
-166.29
-181.76
-195.60
-205.80
-214.35
-221.29
-225.15
-223.72
-215.46
-202.25
-187.05
-172.80
-160.38
-149.44
-138.34
-125.73
-110.78
-93.48
-74.86
-56.35
-38.95
-21.20
-1.47
21.50
47.39
74.93
102.52
128.73
152.77
174.81
198.16
225.77
259.70
300.46
347.23
397.68
447.21
488.70
514.35
520.87
507.72
477.57
435.31
386.82
337.68
291.64
250.16
198.58
132.22
55.60
-19.61
-82.62
-129.99
-165.39
-195.87
-226.61
-260.14
-290.11
-307.66
-305.94
-283.43
-244.46
-197.02
-147.20
-104.37
-75.46
-59.08
-49.04
-38.49
-23.57
-4.04
19.75
45.88
72.06
96.18
116.63
130.31
133.48
123.53
98.56
61.96
19.17
-25.53
-70.11
-113.59
-154.96
-191.34
-217.35
-226.64
-214.31
-179.96
-128.18
-66.33
-1.94
58.32
108.94
145.27
163.42
161.16
138.45
98.31
46.86
-7.76
-57.29
-94.90
-116.12
-119.28
-105.49
-78.60
-44.37
-9.08
21.89
45.11
59.20
64.52
62.46
54.94
44.04
31.70
19.44
8.14
-1.97
-10.76
-17.63
-21.02
-18.66
-8.60
9.54
33.86
60.51
84.72
102.23
110.45
109.01
99.83
86.50
73.35
64.30
61.74
65.94
75.00
85.49
93.28
94.68
87.29
70.63
46.17
16.86
-13.61
-41.58
-63.63
-76.73
-78.28
-66.79
-42.83
-9.79
26.28
58.26
80.48
90.74
90.80
84.91
77.25
69.76
61.55
50.05
32.83
8.73
-21.87
-57.53
-96.12
-134.97
-170.86
-200.23
-220.01
-228.57
-226.29
-215.25
-198.18
-177.37
-154.07
-128.85
-102.46
-76.66
-54.04
-37.32
-28.00
-25.63
-27.97
-31.99
-35.17
-36.37
-35.95
-35.13
-35.02
-35.84
-36.79
-36.53
-34.02
-29.25
-23.53
-19.24
-18.95
-24.54
-36.35
-52.89
-71.29
-88.10
-100.64
-107.69
-109.78
-108.48
-105.44
-101.49
-96.45
-89.59
-80.35
-68.98
-56.35
-43.30
-29.93
-15.70
-0.32
15.20
28.60
37.82
43.03
47.45
56.18
73.01
97.52
124.18
144.60
151.67
143.30
123.31
99.25
78.54
65.19
58.95
56.70
54.92
51.45
45.92
38.98
31.39
23.38
14.64
4.79
-6.13
-17.23
-26.92
-33.47
-35.81
-34.15
-30.09
-26.02
-24.11
-25.34
-29.14
-33.77
-37.32
-38.57
-37.57
-35.36
-33.43
-32.84
-33.84
-35.90
-38.02
-39.33
-39.37
-38.23
-36.32
-34.13
-32.02
-30.11
-28.38
-26.74
-25.10
-23.43
-21.83
-20.40
-19.34
-18.72
-18.58
-18.79
-19.14
-19.37
-19.24
-18.59
-17.45
-15.97
-14.44
-13.12
-12.14
-11.43
-10.84
-10.25
-9.69
-9.31
-9.27
-9.55
-10.00
-10.34
-10.39
-10.13
-9.70
-9.24
-8.82
-8.37
-7.78
-7.03
-6.18
-5.33
-4.55
-3.85
-3.18
-2.56
-2.05
-1.78
-1.84
-2.24
-2.89
-3.64
-4.35
-4.93
-5.41
-5.87
-6.37
-6.96
-7.64
-8.39
-9.16
-9.93
-10.66
-11.31
-11.86
-12.34
-12.84
-13.43
-14.16
-14.94
-15.55
-15.69
-15.12
-13.77
-11.76
-9.37
-6.86
-4.43
-2.16
-0.14
1.50
2.59
3.01
2.76
2.11
1.45
1.12
1.26
1.77
2.39
2.81
2.87
2.56
1.96
1.21
0.45
-0.17
-0.56
-0.69
-0.66
-0.68
-1.01
-1.84
-3.21
-4.98
-6.89
-8.66
-9.98
-10.58
-10.27
-9.00
-6.92
-4.38
-1.78
0.54
2.41
3.87
5.07
6.11
7.00
7.65
7.98
7.95
7.60
7.00
6.22
5.34
4.39
3.42
2.47
1.55
0.69
-0.09
-0.74
-1.23
-1.60
-1.94
-2.48
-3.39
-4.78
-6.56
-8.45
-10.06
-11.01
-11.04
-10.09
-8.26
-5.80
-3.08
-0.46
1.73
3.35
4.41
5.07
5.50
5.82
6.01
6.01
5.79
5.45
5.16
5.11
5.38
5.89
6.41
6.72
6.65
6.18
5.40
4.46
3.57
2.86
2.41
2.14
1.85
1.23
-0.00
-1.92
-4.33
-6.67
-8.24
-8.38
-6.83
-3.87
-0.30
2.77
4.36
3.95
1.67
-1.85
-5.70
-9.10
-11.61
-13.16
-13.91
-14.06
-13.72
-12.89
-11.52
-9.65
-7.50
-5.39
-3.62
-2.34
-1.42
-0.56
0.58
2.12
3.85
5.34
6.11
5.89
4.68
2.73
0.35
-2.27
-5.09
-8.08
-11.17
-14.11
-16.54
-18.18
-18.90
-18.74
-17.84
-16.31
-14.21
-11.53
-8.37
-4.92
-1.48
1.64
4.15
5.94
7.04
7.61
7.86
7.97
8.07
8.16
8.26
8.32
8.40
8.55
8.76
8.99
9.09
8.87
8.16
6.93
5.33
3.63
2.14
1.02
0.18
-0.62
-1.74
-3.41
-5.59
-7.87
-9.65
-10.30
-9.48
-7.22
-3.91
-0.15
3.48
6.58
9.03
10.90
12.39
13.69
14.94
16.10
17.13
17.96
18.58
19.01
19.19
19.01
18.24
16.71
14.38
11.49
8.46
5.72
3.49
1.73
0.09
-1.84
-4.26
-7.05
-9.75
-11.77
-12.68
-12.41
-11.29
-9.93
-9.00
-8.84
-9.40
-10.24
-10.77
-10.47
-9.16
-6.98
-4.29
-1.47
1.22
3.72
6.05
8.33
10.57
12.77
14.86
16.80
18.56
20.10
21.38
22.36
23.00
23.33
23.40
23.27
23.09
22.93
22.87
22.93
22.97
22.73
21.89
20.20
17.63
14.40
10.84
7.27
3.85
0.56
-2.71
-5.99
-9.28
-12.56
-15.87
-19.30
-22.90
-26.47
-29.48
-31.17
-30.76
-27.92
-22.93
-16.69
-10.35
-4.91
-0.85
1.88
3.73
5.22
6.71
8.30
9.92
11.49
13.01
14.55
16.23
18.05
19.92
21.65
23.07
24.01
24.46
24.47
24.12
23.45
22.40
20.82
18.59
15.66
12.17
8.34
4.43
0.69
-2.74
-5.75
-8.27
-10.25
-11.71
-12.69
-13.34
-13.82
-14.24
-14.59
-14.76
-14.53
-13.72
-12.26
-10.21
-7.82
-5.38
-3.17
-1.34
0.12
1.29
2.26
3.03
3.51
3.67
3.53
3.30
3.33
3.95
5.36
7.57
10.34
13.30
16.04
18.18
19.37
19.39
18.19
15.92
12.94
9.64
6.34
3.15
0.01
-3.14
-6.26
-9.11
-11.35
-12.73
-13.26
-13.17
-12.84
-12.62
-12.67
-12.97
-13.34
-13.49
-13.16
-12.21
-10.60
-8.48
-6.13
-3.89
-2.09
-0.91
-0.37
-0.34
-0.55
-0.69
-0.48
0.32
1.84
4.05
6.81
9.80
12.71
15.15
16.82
17.54
17.27
16.18
14.45
12.31
9.87
7.16
4.22
1.15
-1.80
-4.35
-6.32
-7.78
-9.04
-10.52
-12.56
-15.27
-18.51
-22.02
-25.47
-28.53
-30.79
-31.75
-30.80
-27.62
-22.29
-15.43
-8.07
-1.21
4.46
8.74
11.80
13.95
15.33
15.92
15.63
14.49
12.76
10.84
9.16
7.90
7.03
6.34
5.68
5.16
5.10
5.89
7.65
10.11
12.55
14.20
14.45
13.20
10.76
7.65
4.32
0.95
-2.54
-6.41
-10.86
-15.91
-21.33
-26.63
-31.11
-33.97
-34.56
-32.58
-28.30
-22.45
-16.02
-9.88
-4.60
-0.31
3.13
5.93
8.21
9.90
10.89
11.07
10.52
9.40
8.01
6.71
5.80
5.59
6.25
7.79
10.02
12.58
14.96
16.67
17.33
16.70
14.77
11.73
7.89
3.62
-0.70
-4.81
-8.56
-11.95
-15.07
-17.94
-20.49
-22.48
-23.60
-23.50
-22.00
-19.11
-15.05
-10.22
-5.14
-0.38
3.51
6.15
7.35
7.27
6.31
5.09
4.18
3.94
4.49
5.72
7.47
9.61
12.04
14.63
17.25
19.71
21.77
23.23
23.89
23.62
22.34
20.13
17.13
13.61
9.83
5.96
2.13
-1.64
-5.35
-9.03
-12.61
-15.94
-18.70
-20.44
-20.77
-19.45
-16.64
-12.89
-8.95
-5.52
-2.93
-1.11
0.27
1.57
3.02
4.68
6.53
8.60
10.95
13.61
16.44
19.13
21.33
22.79
23.50
23.68
23.72
23.95
24.49
25.17
25.64
25.47
24.44
22.53
19.98
17.11
14.20
11.38
8.66
5.99
3.27
0.46
-2.56
-5.96
-9.88
-14.25
-18.73
-22.63
-25.15
-25.62
-23.86
-20.16
-15.20
-9.75
-4.42
0.49
5.00
9.24
13.26
16.91
19.87
21.81
22.57
22.26
21.20
19.83
18.42
17.03
15.51
13.66
11.50
9.27
7.42
6.38
6.35
7.18
8.44
9.63
10.29
10.24
9.50
8.31
6.95
5.60
4.20
2.48
-0.00
-3.64
-8.55
-14.54
-21.00
-27.15
-32.15
-35.37
-36.49
-35.49
-32.58
-28.08
-22.36
-15.80
-8.81
-1.82
4.76
10.56
15.34
19.00
21.56
23.12
23.79
23.70
22.95
21.65
19.92
17.87
15.63
13.35
11.19
9.35
8.00
7.24
7.06
7.30
7.74
8.11
8.18
7.79
6.84
5.31
3.21
0.58
-2.45
-5.76
-9.30
-13.11
-17.28
-21.79
-26.31
-30.21
-32.66
-32.90
-30.60
-25.98
-19.73
-12.74
-5.75
0.77
6.58
11.50
15.28
17.69
18.60
18.19
16.95
15.50
14.31
13.46
12.72
11.69
10.09
8.02
5.86
4.13
3.25
3.38
4.37
5.85
7.37
8.53
9.08
8.95
8.24
7.12
5.77
4.27
2.56
0.47
-2.24
-5.76
-10.17
-15.30
-20.73
-25.79
-29.70
-31.80
-31.77
-29.69
-26.05
-21.52
-16.71
-12.00
-7.48
-3.05
1.42
5.98
10.59
15.10
19.29
22.95
25.86
27.82
28.76
28.66
27.64
25.98
23.98
21.97
20.08
18.33
16.58
14.61
12.26
9.43
6.13
2.48
-1.34
-4.99
-8.09
-10.31
-11.52
-11.89
-11.95
-12.37
-13.73
-16.21
-19.50
-22.80
-25.12
-25.59
-23.78
-19.78
-14.18
-7.81
-1.47
4.32
9.34
13.66
17.48
21.00
24.29
27.36
30.14
32.45
34.11
34.83
34.43
32.77
29.91
26.09
21.71
17.28
13.28
10.06
7.74
6.16
4.94
3.63
1.88
-0.41
-3.04
-5.57
-7.59
-8.90
-9.66
-10.35
-11.62
-14.01
-17.72
-22.48
-27.48
-31.61
-33.76
-33.20
-29.93
-24.60
-18.29
-12.06
-6.53
-1.79
2.46
6.59
10.80
14.92
18.63
21.59
23.60
24.72
25.08
24.88
24.24
23.27
22.07
20.79
19.63
18.72
18.08
17.55
16.90
15.93
14.59
12.94
11.10
9.16
7.11
4.89
2.52
0.10
-2.17
-4.19
-6.04
-8.02
-10.51
-13.73
-17.62
-21.75
-25.49
-28.17
-29.34
-28.78
-26.55
-22.94
-18.36
-13.29
-8.22
-3.57
0.41
3.63
6.19
8.27
10.07
11.70
13.16
14.36
15.18
15.54
15.43
14.96
14.32
13.70
13.20
12.86
12.59
12.31
11.94
11.48
10.94
10.30
9.50
8.39
6.87
4.98
2.85
0.65
-1.50
-3.63
-5.83
-8.25
-10.95
-13.92
-17.07
-20.32
-23.57
-26.67
-29.36
-31.23
-31.79
-30.66
-27.69
-23.15
-17.62
-11.88
-6.62
-2.22
1.25
3.98
6.26
8.35
10.37
12.32
14.11
15.61
16.67
17.16
17.02
16.27
15.00
13.39
11.60
9.73
7.81
5.84
3.85
1.91
0.16
-1.35
-2.67
-3.95
-5.42
-7.26
-9.52
-12.03
-14.43
-16.30
-17.28
-17.22
-16.21
-14.62
-12.98
-11.85
-11.74
-12.90
-15.24
-18.33
-21.50
-24.00
-25.21
-24.88
-23.15
-20.54
-17.66
-15.00
-12.80
-10.93
-9.03
-6.68
-3.59
0.32
4.78
9.28
13.20
16.06
17.66
18.19
18.01
17.50
16.79
15.78
14.30
12.25
9.80
7.31
5.14
3.47
2.25
1.24
0.21
-0.96
-2.17
-3.22
-3.88
-4.06
-3.87
-3.61
-3.70
-4.47
-6.09
-8.51
-11.45
-14.53
-17.31
-19.33
-20.15
-19.48
-17.24
-13.68
-9.31
-4.77
-0.64
2.78
5.52
7.77
9.79
11.71
13.49
14.99
16.08
16.67
16.79
16.53
16.00
15.28
14.51
13.80
13.27
12.97
12.83
12.75
12.54
12.14
11.53
10.78
9.99
9.20
8.38
7.47
6.39
5.08
3.52
1.77
-0.12
-2.04
-4.00
-6.09
-8.47
-11.27
-14.53
-18.01
-21.25
-23.67
-24.77
-24.28
-22.27
-19.06
-15.15
-11.05
-7.17
-3.75
-0.87
1.59
3.78
5.84
7.82
9.65
11.20
12.31
12.96
13.19
13.14
12.92
12.61
12.26
11.90
11.58
11.35
11.19
11.03
10.76
10.30
9.60
8.77
7.89
7.01
6.01
4.73
3.03
0.92
-1.41
-3.76
-5.95
-7.99
-9.99
-12.11
-14.38
-16.76
-19.12
-21.34
-23.41
-25.29
-26.90
-27.99
-28.19
-27.17
-24.78
-21.23
-16.97
-12.59
-8.53
-5.02
-2.04
0.58
2.97
5.21
7.25
9.01
10.42
11.48
12.15
12.45
12.44
12.17
11.82
11.59
11.64
11.99
12.52
12.98
13.08
12.71
11.90
10.88
9.88
9.01
8.20
7.22
5.81
3.87
1.45
-1.24
-3.95
-6.44
-8.61
-10.45
-12.09
-13.75
-15.70
-18.14
-21.13
-24.45
-27.65
-30.05
-30.98
-30.00
-27.06
-22.60
-17.38
-12.22
-7.77
-4.28
-1.63
0.47
2.35
4.14
5.82
7.22
8.22
8.86
9.27
9.66
10.18
10.79
11.32
11.53
11.32
10.72
9.96
9.25
8.71
8.33
7.97
7.52
6.95
6.32
5.65
4.83
3.65
1.85
-0.69
-3.88
-7.43
-10.91
-13.99
-16.56
-18.77
-21.01
-23.63
-26.72
-29.99
-32.80
-34.34
-34.01
-31.57
-27.29
-21.75
-15.68
-9.70
-4.15
0.83
5.25
9.13
12.36
14.75
16.06
16.22
15.37
13.88
12.20
10.74
9.67
9.00
8.59
8.29
8.04
7.88
7.86
8.00
8.20
8.30
8.16
7.73
7.11
6.48
6.00
5.69
5.44
5.01
4.14
2.69
0.57
-2.18
-5.49
-9.27
-13.39
-17.64
-21.65
-25.01
-27.27
-28.12
-27.42
-25.27
-21.95
-17.88
-13.40
-8.75
-3.97
0.99
6.16
11.40
16.44
20.89
24.41
26.83
28.16
28.53
28.15
27.18
25.74
23.91
21.77
19.47
17.17
15.09
13.35
12.05
11.13
10.45
9.81
9.02
7.94
6.56
5.05
3.64
2.56
1.93
1.64
1.38
0.68
-0.87
-3.57
-7.40
-12.09
-17.14
-21.92
-25.77
-28.19
-28.89
-27.93
-25.63
-22.49
-18.98
-15.40
-11.80
-8.00
-3.77
1.05
6.39
11.91
17.13
21.52
24.71
26.51
26.96
26.26
24.64
22.35
19.62
16.70
13.92
11.71
10.40
10.17
10.97
12.49
14.31
15.94
17.04
17.41
16.98
15.77
13.79
11.08
7.66
3.64
-0.84
-5.57
-10.32
-14.89
-19.12
-22.94
-26.32
-29.28
-31.76
-33.62
-34.56
-34.26
-32.48
-29.18
-24.60
-19.24
-13.71
-8.57
-4.20
-0.72
2.00
4.22
6.19
8.09
9.91
11.60
13.02
14.08
14.73
14.92
14.64
13.89
12.76
11.46
10.33
9.70
9.77
10.52
11.65
12.70
13.26
13.05
12.06
10.44
8.45
6.27
3.99
1.59
-0.99
-3.76
-6.64
-9.48
-12.13
-14.56
-16.84
-18.99
-20.96
-22.57
-23.63
-24.03
-23.81
-23.14
-22.09
-20.61
-18.43
-15.27
-11.03
-5.95
-0.58
4.38
8.38
11.20
12.97
14.05
14.85
15.62
16.41
17.06
17.39
17.31
16.96
16.56
16.43
16.72
17.43
18.37
19.30
19.99
20.33
20.28
19.82
18.92
17.49
15.46
12.89
10.02
7.28
5.13
3.88
3.46
3.49
3.28
2.20
-0.11
-3.65
-8.10
-13.07
-18.26
-23.48
-28.52
-32.99
-36.34
-38.04
-37.73
-35.59
-32.19
-28.37
-24.87
-22.07
-19.95
-18.19
-16.38
-14.22
-11.67
-8.88
-6.11
-3.56
-1.32
0.66
2.49
4.23
5.84
7.28
8.51
9.59
10.62
11.70
12.84
13.98
15.03
15.96
16.75
17.42
17.93
18.09
17.69
16.61
14.88
12.73
10.52
8.50
6.77
5.18
3.43
1.24
-1.59
-5.02
-8.83
-12.65
-16.03
-18.50
-19.68
-19.32
-17.42
-14.29
-10.44
-6.46
-2.79
0.39
3.17
5.81
8.55
11.48
14.47
17.29
19.63
21.32
22.34
22.89
23.24
23.68
24.38
25.28
26.19
26.85
27.07
26.84
26.21
25.24
23.90
22.06
19.56
16.34
12.49
8.29
4.10
0.21
-3.24
-6.27
-9.06
-11.83
-14.78
-18.03
-21.66
-25.70
-30.02
-34.33
-38.16
-40.91
-42.10
-41.49
-39.24
-35.84
-31.94
-28.10
-24.64
-21.52
-18.41
-14.85
-10.42
-4.91
1.53
8.38
14.96
20.56
24.76
27.47
28.91
29.39
29.18
28.37
27.01
25.19
23.11
21.09
19.32
17.78
16.17
14.11
11.33
7.93
4.29
0.95
-1.72
-3.61
-4.86
-5.74
-6.47
-7.11
-7.61
-7.98
-8.28
-8.73
-9.59
-11.05
-13.20
-15.97
-19.06
-22.03
-24.27
-25.24
-24.54
-22.19
-18.54
-14.26
-10.03
-6.35
-3.37
-0.95
1.13
3.05
4.80
6.32
7.48
8.25
8.61
8.53
7.96
6.87
5.33
3.57
1.93
0.72
0.08
-0.08
0.04
0.24
0.49
0.90
1.62
2.71
4.03
5.31
6.23
6.61
6.43
5.82
4.95
3.89
2.62
1.05
-0.94
-3.39
-6.34
-9.80
-13.69
-17.86
-21.99
-25.62
-28.23
-29.38
-28.83
-26.61
-22.99
-18.44
-13.44
-8.41
-3.63
0.79
4.87
8.62
12.03
14.95
17.20
18.60
19.03
18.45
16.93
14.64
11.93
9.27
7.14
5.85
5.43
5.62
5.95
6.06
5.81
5.33
4.93
4.82
5.04
5.38
5.57
5.39
4.89
4.26
3.75
3.38
2.88
1.77
-0.45
-3.98
-8.57
-13.54
-17.99
-21.12
-22.46
-22.01
-20.12
-17.34
-14.25
-11.24
-8.54
-6.16
-4.04
-2.13
-0.36
1.27
2.85
4.51
6.43
8.74
11.43
14.31
17.06
19.35
20.91
21.68
21.79
21.50
21.06
20.65
20.30
19.90
19.29
18.35
17.03
15.40
13.54
11.57
9.57
7.64
5.86
4.25
2.76
1.25
-0.54
-2.85
-5.85
-9.56
-13.75
-17.99
-21.68
-24.25
-25.26
-24.63
-22.63
-19.80
-16.77
-13.96
-11.53
-9.36
-7.23
-4.97
-2.51
0.10
2.78
5.55
8.39
11.24
13.95
16.30
18.11
19.36
20.18
20.73
21.11
21.19
20.75
19.54
17.49
14.75
11.65
8.52
5.56
2.79
0.06
-2.80
-5.88
-9.13
-12.36
-15.35
-17.90
-19.93
-21.54
-22.93
-24.32
-25.83
-27.42
-28.89
-29.93
-30.25
-29.66
-28.15
-25.91
-23.23
-20.42
-17.71
-15.20
-12.93
-10.92
-9.33
-8.38
-8.27
-9.10
-10.71
-12.82
-15.16
-17.58
-20.17
-23.17
-26.94
-31.98
-39.03
-48.98
-62.62
-80.11
-100.59
-122.11
-142.19
-158.90
-171.64
-181.52
-190.79
-201.92
-216.58
-235.01
-255.88
-276.54
-293.64
-303.85
-304.81
-295.91
-278.58
-255.78
-230.84
-206.06
-181.84
-156.78
-128.69
-95.66
-56.77
-12.04
38.09
92.56
149.14
203.70
250.26
282.54
296.58
293.08
277.77
259.58
247.24
246.23
257.64
279.18
307.36
339.20
372.62
405.33
433.73
452.77
457.32
444.40
414.87
373.80
328.82
287.58
255.18
233.00
219.09
209.61
200.79
190.36
178.03
164.76
151.47
137.93
122.93
105.18
84.54
62.63
42.42
26.98
18.07
15.32
16.21
17.56
17.02
13.79
8.30
1.52
-5.84
-13.60
-21.80
-31.29
-42.15
-53.45
-63.73
-71.76
-76.93
-79.20
-78.81
-75.96
-72.68
-70.28
-68.78
-67.28
-65.22
-62.84
-60.98
-60.68
-62.61
-70.03
-84.77
-106.44
-133.16
-163.47
-196.59
-231.75
-267.67
-301.84
-335.14
-366.85
-393.98
-412.43
-420.08
-417.22
-406.16
-390.38
-350.68
-281.19
-190.64
-96.41
-11.65
59.29
117.73
165.13
198.47
217.73
218.60
199.73
165.29
123.41
81.11
42.34
11.69
-8.83
-18.11
-19.02
-13.82
-3.20
18.59
51.39
89.56
125.00
151.52
168.36
176.18
177.01
173.02
164.01
146.73
117.43
73.22
12.09
-63.03
-142.35
-212.42
-259.24
-273.15
-253.26
-206.68
-145.53
-83.45
-30.79
7.11
30.74
44.04
52.12
58.43
64.17
68.51
69.08
63.11
47.98
22.59
-12.38
-53.03
-93.49
-127.87
-152.17
-165.44
-168.83
-167.11
-159.88
-147.17
-129.29
-107.60
-84.33
-61.66
-40.77
-21.17
-1.24
21.88
47.23
72.92
96.36
114.92
126.85
131.82
131.07
126.93
122.23
118.40
116.08
114.77
113.25
110.36
105.48
98.92
91.67
85.27
80.54
77.87
76.80
76.18
74.71
71.32
65.51
57.45
47.91
37.43
26.53
15.58
3.98
-8.56
-22.07
-36.29
-50.69
-64.51
-76.69
-85.56
-89.13
-85.73
-74.74
-57.45
-37.01
-17.50
-2.47
6.18
8.74
7.13
3.70
0.30
-2.21
-3.67
-4.12
-3.44
-1.42
1.97
6.23
10.41
13.45
14.31
12.56
8.29
2.07
-5.19
-12.52
-19.12
-24.51
-28.50
-31.18
-32.60
-32.76
-31.53
-28.65
-23.83
-16.86
-7.77
3.58
16.38
29.54
41.77
52.03
59.71
64.76
67.40
67.84
66.16
62.16
55.72
46.42
34.31
20.16
5.66
-7.05
-16.02
-19.87
-17.83
-9.58
3.62
19.73
36.57
52.41
66.16
77.56
87.31
96.72
107.10
117.18
124.31
125.93
121.00
110.21
95.36
78.43
60.91
43.30
23.12
-2.71
-35.77
-75.17
-118.41
-163.06
-207.75
-252.41
-285.15
-296.86
-286.69
-263.11
-237.14
-215.37
-198.75
-184.82
-169.73
-149.96
-125.82
-100.37
-77.29
-59.57
-48.32
-42.80
-40.74
-38.58
-32.97
-23.78
-13.32
-3.60
4.99
13.37
25.26
43.93
71.41
107.65
149.78
193.25
234.89
269.70
295.16
308.42
305.77
285.01
246.86
198.11
142.11
83.89
27.48
-25.22
-74.70
-121.79
-164.30
-196.80
-212.89
-208.71
-184.18
-144.42
-97.26
-50.76
-10.24
23.48
52.51
78.82
102.24
121.34
132.07
132.06
120.98
97.96
65.52
28.67
-7.91
-41.63
-71.85
-99.15
-123.58
-144.59
-161.06
-171.57
-174.84
-171.94
-165.32
-157.40
-149.66
-141.97
-132.92
-120.49
-103.91
-80.05
-48.31
-10.12
32.08
75.60
118.28
158.36
194.52
225.76
252.47
273.56
287.33
292.31
287.59
273.33
250.55
220.99
178.71
125.65
66.28
6.03
-50.17
-99.33
-140.17
-172.83
-198.14
-217.34
-230.36
-238.27
-242.55
-244.50
-245.35
-245.82
-246.13
-245.85
-244.44
-240.30
-232.91
-223.60
-212.37
-199.68
-186.30
-173.13
-160.60
-149.18
-138.70
-129.37
-121.56
-115.45
-111.38
-109.47
-109.65
-111.08
-112.95
-114.19
-114.04
-111.95
-107.27
-99.45
-87.52
-74.23
-60.74
-47.92
-36.29
-26.27
-18.16
-12.07
-8.19
-6.62
-7.46
-10.15
-14.27
-19.47
-25.43
-31.91
-38.65
-45.53
-52.45
-59.42
-65.99
-71.87
-76.83
-80.72
-83.48
-85.13
-85.74
-85.45
-84.46
-82.63
-79.93
-76.34
-71.86
-66.48
-60.21
-53.03
-44.96
-36.08
-26.40
-16.09
-5.39
5.34
15.72
25.44
34.25
42.04
48.79
54.58
59.47
63.47
66.51
68.50
69.38
69.26
68.37
67.09
65.83
64.87
64.32
64.06
63.89
63.71
63.68
64.24
66.04
69.62
75.19
82.42
90.52
98.57
105.86
112.28
118.35
124.96
132.97
142.61
153.33
163.87
172.86
179.27
182.89
184.37
184.83
185.44
187.24
191.17
197.97
207.84
219.83
231.43
239.09
239.74
232.52
219.72
206.09
196.70
194.48
198.97
206.94
214.49
219.16
220.89
221.20
221.55
222.00
221.10
216.92
208.42
196.11
181.76
167.44
154.50
143.12
132.59
121.90
110.43
98.27
86.16
75.08
65.84
58.69
53.25
48.71
44.16
38.99
33.17
27.13
21.57
16.98
13.40
10.40
7.30
3.59
-0.85
-5.71
-10.41
-14.48
-17.72
-20.26
-22.45
-24.60
-26.84
-29.09
-31.14
-32.82
-34.04
-34.81
-35.22
-35.35
-35.25
-34.99
-34.67
-34.42
-34.30
-34.28
-34.25
-34.07
-33.70
-33.19
-32.71
-32.38
-32.23
-32.20
-32.22
-32.25
-32.32
-32.38
-32.40
-32.30
-32.09
-31.93
-32.10
-32.80
-34.01
-35.37
-36.30
-36.29
-35.09
-32.89
-30.14
-27.30
-24.70
-22.43
-20.46
-18.73
-17.22
-16.00
-15.12
-14.56
-14.19
-13.86
-13.41
-12.81
-12.15
-11.61
-11.36
-11.46
-11.91
-12.60
-13.42
-14.29
-15.20
-16.19
-17.23
-18.25
-19.13
-19.76
-20.11
-20.23
-20.21
-20.17
-20.23
-20.50
-21.06
-21.82
-22.53
-22.81
-22.28
-20.75
-18.38
-15.55
-12.71
-10.16
-7.96
-6.04
-4.32
-2.86
-1.83
-1.36
-1.42
-1.77
-2.08
-2.12
-1.92
-1.73
-1.88
-2.59
-3.80
-5.25
-6.59
-7.58
-8.19
-8.62
-9.16
-10.06
-11.33
-12.77
-14.06
-14.93
-15.36
-15.54
-15.79
-16.37
-17.34
-18.54
-19.71
-20.62
-21.16
-21.28
-20.94
-20.09
-18.62
-16.52
-14.00
-11.39
-9.13
-7.44
-6.31
-5.49
-4.63
-3.54
-2.24
-0.95
0.08
0.68
0.86
0.77
0.58
0.41
0.28
0.15
-0.06
-0.37
-0.83
-1.40
-1.98
-2.42
-2.54
-2.31
-1.80
-1.29
-1.09
-1.44
-2.38
-3.74
-5.22
-6.53
-7.50
-8.09
-8.40
-8.60
-8.93
-9.56
-10.61
-12.02
-13.57
-14.94
-15.73
-15.66
-14.54
-12.40
-9.42
-5.96
-2.54
0.35
2.33
3.30
3.50
3.39
3.48
4.03
5.01
6.08
6.86
7.08
6.72
5.96
5.10
4.32
3.72
3.32
3.07
2.99
3.07
3.28
3.51
3.57
3.28
2.56
1.45
0.19
-0.93
-1.69
-2.02
-2.04
-1.98
-2.08
-2.43
-2.99
-3.63
-4.22
-4.75
-5.29
-5.93
-6.68
-7.42
-7.97
-8.26
-8.30
-8.26
-8.28
-8.46
-8.79
-9.25
-9.88
-10.75
-11.91
-13.21
-14.34
-14.85
-14.40
-12.94
-10.76
-8.34
-6.12
-4.33
-2.96
-1.85
-0.93
-0.26
0.07
-0.01
-0.35
-0.73
-0.89
-0.71
-0.27
0.26
0.71
1.02
1.31
1.69
2.27
3.00
3.70
4.16
4.24
3.88
3.19
2.34
1.44
0.59
-0.24
-1.05
-1.78
-2.32
-2.57
-2.52
-2.29
-2.10
-2.15
-2.58
-3.32
-4.22
-5.07
-5.73
-6.20
-6.54
-6.92
-7.44
-8.18
-9.12
-10.16
-11.21
-12.11
-12.71
-12.86
-12.42
-11.32
-9.64
-7.60
-5.52
-3.70
-2.33
-1.45
-0.92
-0.56
-0.18
0.28
0.81
1.35
1.82
2.20
2.49
2.76
3.03
3.27
3.40
3.29
2.90
2.26
1.53
0.88
0.47
0.31
0.30
0.27
0.09
-0.28
-0.79
-1.33
-1.81
-2.16
-2.37
-2.48
-2.58
-2.73
-3.00
-3.38
-3.79
-4.16
-4.43
-4.64
-4.93
-5.44
-6.26
-7.32
-8.44
-9.41
-10.07
-10.36
-10.32
-10.00
-9.43
-8.64
-7.66
-6.57
-5.43
-4.33
-3.34
-2.46
-1.66
-0.88
-0.10
0.70
1.43
1.96
2.20
2.09
1.71
1.29
1.05
1.15
1.57
2.15
2.67
2.99
3.04
2.89
2.57
2.11
1.48
0.69
-0.15
-0.85
-1.24
-1.22
-0.89
-0.46
-0.23
-0.40
-1.04
-2.08
-3.37
-4.70
-5.88
-6.75
-7.22
-7.34
-7.32
-7.49
-8.12
-9.37
-11.12
-13.08
-14.81
-15.95
-16.33
-15.98
-15.08
-13.82
-12.32
-10.59
-8.66
-6.61
-4.65
-3.00
-1.77
-0.96
-0.36
0.22
0.86
1.49
1.89
1.92
1.61
1.17
0.87
0.85
1.05
1.25
1.22
0.88
0.34
-0.12
-0.27
-0.07
0.29
0.49
0.26
-0.50
-1.57
-2.61
-3.29
-3.51
-3.41
-3.31
-3.52
-4.19
-5.25
-6.53
-7.83
-9.01
-9.96
-10.56
-10.66
-10.11
-8.84
-6.98
-4.76
-2.52
-0.58
0.88
1.87
2.48
2.87
3.17
3.44
3.67
3.82
3.87
3.83
3.72
3.63
3.60
3.64
3.68
3.64
3.45
3.13
2.79
2.56
2.51
2.58
2.61
2.45
2.02
1.40
0.76
0.21
-0.24
-0.66
-1.13
-1.65
-2.06
-2.24
-2.18
-2.09
-2.30
-3.10
-4.57
-6.48
-8.41
-9.85
-10.35
-9.71
-7.96
-5.37
-2.38
0.53
2.92
4.47
5.05
4.76
3.90
2.92
2.33
2.51
3.53
5.15
6.84
7.94
7.92
6.53
4.00
0.95
-1.68
-2.93
-2.16
0.62
4.66
8.67
11.28
11.59
9.50
5.70
1.27
-2.81
-6.04
-8.38
-10.06
-11.34
-12.49
-13.93
-16.23
-20.01
-25.55
-32.50
-39.86
-46.37
-51.07
-53.72
-54.74
-54.77
-53.95
-51.65
-46.63
-37.80
-25.09
-9.90
5.27
17.84
26.41
31.37
34.63
38.55
44.63
52.78
61.42
68.44
72.24
72.32
69.22
63.80
56.64
47.86
37.45
25.81
13.95
3.24
-5.26
-11.29
-15.48
-18.97
-22.71
-27.03
-31.58
-35.70
-38.79
-40.63
-41.09
-39.94
-36.64
-30.57
-21.55
-10.23
1.79
12.28
19.12
20.96
17.59
10.15
0.80
-7.80
-13.17
-13.75
-9.39
-1.57
7.15
13.89
16.43
13.87
6.74
-3.39
-14.51
-24.75
-32.61
-37.12
-37.84
-34.95
-29.23
-21.94
-14.39
-7.47
-1.45
3.98
9.26
14.60
19.70
23.94
26.76
28.00
27.90
26.99
25.70
24.17
22.32
20.02
17.35
14.65
12.46
11.20
10.95
11.40
11.88
11.68
10.27
7.55
3.79
-0.48
-4.84
-8.98
-12.79
-16.15
-18.78
-20.24
-20.15
-18.40
-15.32
-11.59
-7.97
-4.93
-2.47
-0.27
2.07
4.71
7.50
10.07
12.08
13.46
14.47
15.55
17.13
19.41
22.31
25.46
28.45
30.95
32.89
34.45
36.00
37.96
40.58
43.88
47.66
51.57
55.21
58.31
60.70
62.44
63.86
65.60
68.45
72.97
78.97
85.22
89.57
89.61
83.67
71.42
54.02
33.53
12.23
-7.91
-25.46
-39.41
-49.27
-55.33
-58.86
-61.99
-66.89
-74.84
-85.61
-97.69
-109.41
-120.26
-131.43
-145.48
-165.08
-191.64
-224.53
-260.92
-296.36
-325.59
-343.48
-345.83
-330.24
-296.81
-248.51
-190.91
-131.24
-76.86
-33.47
-3.77
13.07
21.01
25.54
31.92
43.38
60.46
81.30
102.89
122.50
138.56
150.67
159.05
163.77
164.47
160.70
152.48
140.81
127.53
114.67
103.66
94.81
87.45
80.49
73.21
65.63
58.45
52.54
48.37
45.68
43.66
41.35
38.20
34.27
30.15
26.59
24.14
22.90
22.51
22.34
21.74
20.33
18.07
15.29
12.48
10.10
8.40
7.31
6.59
5.92
5.14
4.24
3.31
2.43
1.61
0.75
-0.20
-1.21
-2.13
-2.80
-3.13
-3.20
-3.28
-3.67
-4.60
-6.08
-7.91
-9.66
-10.96
-11.58
-11.61
-11.44
-11.53
-12.26
-13.73
-15.74
-17.87
-19.67
-20.78
-20.98
-20.23
-18.59
-16.27
-13.52
-10.68
-8.00
-5.67
-3.71
-2.01
-0.40
1.29
3.10
4.99
6.79
8.33
9.45
10.10
10.32
10.23
10.01
9.83
9.77
9.86
10.02
10.13
10.11
9.95
9.73
9.49
9.21
8.78
8.03
6.85
5.29
3.52
1.85
0.61
-0.00
-0.02
0.32
0.64
0.57
-0.01
-1.00
-2.05
-2.83
-3.17
-3.29
-3.63
-4.69
-6.74
-9.68
-13.06
-16.30
-18.87
-20.49
-21.03
-20.57
-19.19
-17.03
-14.32
-11.39
-8.62
-6.33
-4.64
-3.43
-2.36
-1.06
0.65
2.71
4.80
6.56
7.71
8.26
8.40
8.41
8.47
8.59
8.68
8.60
8.30
7.85
7.39
7.08
6.98
7.03
7.12
7.12
6.95
6.59
6.13
5.66
5.30
5.10
5.04
4.99
4.72
4.03
2.80
1.14
-0.72
-2.45
-3.82
-4.75
-5.38
-5.93
-6.66
-7.71
-9.16
-10.92
-12.90
-14.90
-16.69
-17.91
-18.23
-17.40
-15.39
-12.43
-9.01
-5.65
-2.74
-0.45
1.29
2.68
3.92
5.07
6.08
6.87
7.39
7.68
7.84
7.95
8.05
8.11
8.14
8.13
8.12
8.13
8.09
7.93
7.60
7.17
6.82
6.77
7.12
7.78
8.52
9.05
9.16
8.81
8.05
6.96
5.60
4.04
2.40
0.81
-0.58
-1.76
-2.83
-3.99
-5.41
-7.07
-8.86
-10.62
-12.29
-14.00
-15.91
-18.11
-20.41
-22.44
-23.68
-23.70
-22.35
-19.78
-16.40
-12.75
-9.28
-6.24
-3.66
-1.46
0.48
2.18
3.62
4.74
5.61
6.34
7.08
7.88
8.63
9.14
9.25
8.94
8.39
7.86
7.55
7.51
7.62
7.72
7.63
7.28
6.69
5.91
5.06
4.23
3.52
2.97
2.56
2.21
1.80
1.23
0.47
-0.43
-1.40
-2.35
-3.24
-4.07
-4.91
-5.82
-6.89
-8.16
-9.61
-11.14
-12.56
-13.59
-13.95
-13.43
-11.98
-9.76
-7.11
-4.45
-2.20
-0.59
0.42
1.06
1.65
2.44
3.51
4.75
5.97
7.00
7.76
8.24
8.41
8.24
7.71
6.92
6.09
5.50
5.41
5.88
6.76
7.70
8.34
8.41
7.76
6.46
4.64
2.55
0.43
-1.52
-3.16
-4.47
-5.52
-6.46
-7.39
-8.40
-9.48
-10.62
-11.80
-12.99
-14.17
-15.20
-15.87
-15.91
-15.17
-13.64
-11.53
-9.18
-6.93
-4.99
-3.40
-2.03
-0.72
0.67
2.19
3.76
5.23
6.40
7.16
7.47
7.43
7.22
7.04
6.99
7.04
7.04
6.83
6.34
5.66
5.02
4.62
4.57
4.79
5.12
5.34
5.31
4.98
4.33
3.37
2.06
0.44
-1.44
-3.41
-5.28
-6.92
-8.37
-9.75
-11.25
-12.94
-14.71
-16.24
-17.15
-17.15
-16.14
-14.32
-12.08
-9.87
-8.01
-6.51
-5.14
-3.59
-1.61
0.79
3.36
5.71
7.52
8.66
9.27
9.62
9.98
10.44
10.91
11.22
11.22
10.91
10.40
9.88
9.46
9.21
9.07
8.96
8.77
8.40
7.82
7.00
6.00
4.85
3.62
2.37
1.16
0.04
-0.98
-1.90
-2.78
-3.70
-4.75
-6.03
-7.59
-9.42
-11.42
-13.41
-15.11
-16.24
-16.53
-15.86
-14.33
-12.19
-9.79
-7.41
-5.13
-2.93
-0.68
1.63
3.87
5.81
7.26
8.22
8.85
9.35
9.86
10.31
10.51
10.26
9.54
8.59
7.73
7.25
7.20
7.39
7.55
7.47
7.17
6.82
6.60
6.53
6.51
6.30
5.76
4.93
3.97
3.05
2.28
1.56
0.73
-0.28
-1.46
-2.66
-3.76
-4.72
-5.70
-6.93
-8.61
-10.77
-13.11
-15.16
-16.38
-16.37
-15.06
-12.72
-9.90
-7.17
-4.92
-3.24
-1.94
-0.66
0.91
2.92
5.26
7.63
9.68
11.16
11.96
12.16
11.96
11.62
11.32
11.19
11.21
11.29
11.34
11.19
10.72
9.78
8.28
6.23
3.79
1.29
-0.87
-2.36
-3.12
-3.37
-3.52
-3.98
-4.98
-6.43
-8.02
-9.31
-9.98
-9.92
-9.28
-8.43
-7.77
-7.64
-8.15
-9.16
-10.31
-11.16
-11.39
-10.92
-9.86
-8.49
-7.04
-5.58
-4.10
-2.52
-0.83
0.88
2.47
3.85
5.00
6.00
7.03
8.20
9.57
11.03
12.41
13.57
14.43
14.99
15.30
15.39
15.19
14.58
13.50
11.95
10.12
8.25
6.51
4.96
3.51
2.01
0.36
-1.38
-3.05
-4.40
-5.35
-5.97
-6.50
-7.20
-8.18
-9.34
-10.42
-11.17
-11.52
-11.63
-11.84
-12.44
-13.47
-14.68
-15.58
-15.69
-14.74
-12.77
-10.10
-7.21
-4.54
-2.33
-0.61
0.80
2.10
3.43
4.74
5.91
6.84
7.55
8.14
8.70
9.21
9.51
9.41
8.90
8.29
8.13
8.89
10.68
13.09
15.25
16.33
15.81
13.79
10.84
7.65
4.68
2.06
-0.37
-2.75
-5.07
-7.09
-8.49
-9.07
-8.92
-8.31
-7.68
-7.34
-7.47
-8.09
-9.08
-10.29
-11.57
-12.78
-13.77
-14.36
-14.39
-13.72
-12.27
-10.13
-7.54
-4.86
-2.47
-0.64
0.58
1.31
1.86
2.55
3.60
5.10
6.92
8.80
10.42
11.47
11.73
11.20
10.05
8.64
7.35
6.48
6.15
6.26
6.59
6.93
7.13
7.10
6.74
5.92
4.50
2.41
-0.17
-2.81
-5.04
-6.47
-7.03
-7.02
-6.96
-7.35
-8.51
-10.44
-12.91
-15.51
-17.79
-19.34
-19.85
-19.13
-17.23
-14.36
-10.95
-7.50
-4.49
-2.17
-0.61
0.37
1.09
1.89
2.99
4.46
6.21
8.01
9.62
10.89
11.72
12.16
12.25
12.03
11.55
10.84
9.97
9.07
8.26
7.69
7.44
7.53
7.84
8.19
8.31
7.94
6.92
5.27
3.20
1.05
-0.91
-2.54
-3.95
-5.42
-7.23
-9.46
-11.94
-14.36
-16.38
-17.84
-18.74
-19.15
-19.12
-18.50
-17.10
-14.80
-11.68
-8.12
-4.66
-1.74
0.44
2.02
3.33
4.75
6.41
8.17
9.71
10.70
11.06
10.96
10.75
10.76
11.08
11.52
11.72
11.42
10.59
9.47
8.40
7.62
7.10
6.61
5.86
4.76
3.44
2.15
1.13
0.42
-0.17
-0.96
-2.26
-4.15
-6.51
-8.97
-11.14
-12.71
-13.62
-14.11
-14.53
-15.19
-16.12
-17.04
-17.44
-16.85
-15.06
-12.19
-8.56
-4.48
-0.08
4.55
9.23
13.57
17.02
19.14
19.81
19.40
18.53
17.71
17.08
16.24
14.56
11.57
7.24
2.10
-3.02
-7.28
-10.21
-11.79
-12.40
-12.56
-12.70
-12.97
-13.28
-13.32
-12.82
-11.65
-9.88
-7.66
-5.16
-2.48
0.34
3.19
5.82
7.82
8.71
8.15
6.05
2.61
-1.79
-6.72
-11.86
-16.96
-21.81
-26.16
-29.70
-32.04
-32.72
-31.37
-27.78
-22.08
-14.87
-7.16
-0.09
5.39
8.84
10.40
10.58
9.97
8.97
7.77
6.48
5.30
4.56
4.58
5.51
7.13
9.06
10.95
12.68
14.47
16.61
19.29
22.35
25.34
27.65
28.83
28.76
27.64
25.87
23.86
21.80
19.73
17.60
15.38
13.08
10.74
8.33
5.78
3.01
0.09
-2.68
-4.86
-6.01
-5.94
-4.87
-3.33
-1.99
-1.32
-1.52
-2.44
-3.73
-4.96
-5.83
-6.16
-6.00
-5.54
-5.07
-4.89
-5.13
-5.75
-6.47
-6.92
-6.81
-6.02
-4.66
-2.95
-1.15
0.53
1.92
2.91
3.39
3.29
2.63
1.50
0.04
-1.62
-3.36
-5.11
-6.80
-8.34
-9.62
-10.56
-11.17
-11.48
-11.54
-11.36
-10.95
-10.36
-9.68
-9.06
-8.59
-8.22
-7.77
-6.94
-5.56
-3.69
-1.70
-0.11
0.63
0.39
-0.58
-1.81
-2.83
-3.42
-3.61
-3.61
-3.57
-3.55
-3.51
-3.44
-3.40
-3.49
-3.72
-3.92
-3.80
-3.11
-1.85
-0.33
0.97
1.52
1.10
-0.25
-2.21
-4.45
-6.68
-8.70
-10.38
-11.57
-12.07
-11.66
-10.16
-7.53
-3.88
0.49
5.20
9.77
13.82
17.04
19.27
20.51
20.84
20.50
19.81
19.14
18.85
19.09
19.79
20.58
20.96
20.48
18.92
16.44
13.46
10.56
8.20
6.60
5.69
5.21
4.85
4.38
3.69
2.80
1.80
0.77
-0.23
-1.20
-2.17
-3.13
-4.04
-4.80
-5.27
-5.38
-5.19
-4.85
-4.59
-4.62
-5.01
-5.70
-6.54
-7.37
-8.11
-8.77
-9.38
-9.91
-10.31
-10.55
-10.69
-10.91
-11.43
-12.28
-13.27
-14.02
-14.15
-13.53
-12.31
-10.90
-9.72
-9.05
-8.84
-8.84
-8.73
-8.32
-7.64
-6.85
-6.15
-5.67
-5.42
-5.36
-5.40
-5.48
-5.42
-4.95
-3.71
-1.39
2.10
6.45
10.97
14.81
17.25
17.95
17.03
14.93
12.17
9.10
5.86
2.42
-1.25
-5.02
-8.65
-11.87
-14.60
-16.96
-19.27
-21.81
-24.64
-27.56
-30.24
-32.43
-34.19
-35.78
-37.49
-39.40
-41.33
-43.00
-44.26
-45.42
-47.19
-50.41
-55.70
-63.08
-71.97
-81.51
-91.25
-101.53
-113.53
-128.48
-146.71
-166.85
-185.66
-198.81
-202.20
-193.06
-170.44
-135.36
-90.73
-41.41
6.14
44.91
69.05
75.90
67.38
49.86
32.18
22.71
26.50
43.92
71.09
101.74
129.40
149.39
159.62
160.56
154.52
144.75
134.45
126.18
121.40
120.58
123.27
128.32
134.07
138.76
140.89
139.50
134.40
126.18
116.14
105.77
96.42
88.91
83.46
79.94
78.12
78.08
80.05
84.11
89.63
95.01
97.86
95.81
87.42
72.93
54.50
35.73
20.78
13.02
14.02
22.74
35.67
47.55
52.87
47.63
30.53
3.22
-30.38
-65.50
-97.73
-123.67
-141.26
-149.63
-148.98
-140.55
-126.82
-111.08
-96.68
-86.06
-79.61
-75.74
-71.29
-62.37
-45.32
-17.84
20.45
67.26
117.41
163.71
198.29
214.98
211.54
190.48
157.94
121.90
89.60
62.50
40.20
20.57
1.13
-19.66
-41.99
-65.61
-89.83
-113.81
-136.38
-157.37
-177.08
-196.27
-216.03
-237.88
-263.95
-295.30
-330.83
-364.29
-387.17
-390.30
-366.44
-312.67
-228.60
-122.87
-10.30
93.29
176.80
236.30
273.68
293.04
298.05
291.47
275.51
253.71
230.83
211.73
199.69
195.54
197.25
200.09
197.71
183.42
153.36
108.57
55.29
2.72
-40.44
-69.30
-84.07
-88.87
-89.24
-88.84
-88.38
-86.44
-81.69
-74.36
-66.44
-60.41
-57.70
-58.12
-59.87
-60.55
-58.43
-53.28
-46.33
-39.54
-34.62
-32.26
-31.97
-32.39
-32.02
-29.88
-25.95
-21.06
-16.41
-12.97
-11.05
-10.24
-9.67
-8.47
-6.18
-2.94
0.60
3.64
5.57
6.32
6.29
6.27
6.96
8.70
11.29
14.01
16.09
16.95
16.59
15.57
14.85
15.14
16.73
19.15
21.25
21.71
19.58
14.70
7.74
-0.02
-7.74
-14.78
-21.38
-28.32
-36.47
-46.37
-58.27
-72.18
-87.06
-101.74
-113.15
-117.21
-110.22
-90.96
-61.90
-28.88
0.95
22.44
33.69
36.64
35.11
32.62
30.74
29.15
26.84
23.39
19.65
16.97
16.45
18.04
20.54
22.34
22.04
19.31
14.93
10.41
7.19
6.20
7.36
9.72
11.80
12.32
10.70
7.32
3.31
0.06
-1.32
-0.53
1.84
4.53
6.18
6.05
4.25
1.84
0.32
1.02
4.64
11.18
20.09
30.43
41.01
50.14
55.85
56.38
50.94
40.27
26.58
12.78
1.35
-6.45
-10.70
-12.19
-11.51
-8.68
-3.13
5.54
16.81
28.79
38.55
43.00
40.11
29.70
13.65
-4.46
-20.87
-32.97
-40.10
-43.54
-45.54
-47.98
-51.34
-54.52
-55.15
-51.01
-41.26
-27.04
-11.26
2.43
11.00
13.19
9.59
2.53
-5.36
-12.18
-17.24
-20.77
-23.19
-24.53
-23.44
-19.75
-13.68
-6.01
1.94
8.73
13.49
16.14
17.39
18.35
19.88
22.49
26.01
29.77
32.97
35.17
36.46
37.34
38.54
40.50
43.41
47.07
50.92
54.27
56.76
58.22
58.69
58.32
57.09
54.91
51.51
46.57
39.58
30.70
20.21
8.69
-3.17
-14.81
-25.86
-36.18
-44.87
-52.52
-59.04
-64.35
-68.08
-70.01
-70.18
-69.05
-67.43
-66.16
-65.95
-66.65
-67.78
-68.38
-67.52
-64.77
-60.40
-55.32
-50.56
-47.73
-46.06
-44.72
-42.33
-37.95
-31.31
-23.19
-15.07
-8.55
-5.10
-5.61
-10.86
-20.55
-33.05
-45.05
-52.02
-49.78
-36.49
-14.10
12.89
36.64
51.51
55.70
51.32
42.51
33.10
25.01
18.06
11.35
4.25
-2.46
-7.51
-10.04
-10.25
-9.32
-8.65
-9.32
-11.26
-13.66
-15.02
-14.15
-10.66
-5.14
1.09
6.75
10.84
13.11
13.90
14.08
14.42
15.31
16.63
17.91
18.66
18.53
17.57
16.04
14.41
13.00
11.89
10.85
9.52
7.49
4.55
0.66
-4.06
-9.36
-15.00
-20.80
-26.66
-32.51
-38.28
-43.78
-48.82
-53.18
-56.68
-59.17
-60.56
-60.82
-60.06
-58.45
-56.07
-53.11
-49.87
-46.64
-43.73
-41.42
-39.97
-39.63
-40.68
-43.02
-46.59
-51.33
-57.11
-63.75
-71.01
-78.64
-86.49
-94.52
-102.33
-109.72
-116.54
-122.58
-127.46
-130.66
-131.45
-128.86
-125.04
-120.91
-117.16
-114.27
-112.34
-111.06
-109.84
-107.96
-104.87
-100.42
-94.38
-86.93
-78.31
-68.52
-57.22
-43.77
-27.54
-8.28
13.61
37.53
62.47
87.41
111.78
135.52
159.08
183.15
208.57
236.06
266.15
298.31
330.53
359.27
380.21
389.59
385.66
369.37
344.12
314.49
284.48
256.40
230.81
207.20
184.95
163.96
144.55
127.04
111.38
96.99
83.11
69.24
55.35
41.95
29.83
19.60
11.49
5.13
-0.20
-5.32
-10.84
-16.96
-23.35
-29.38
-34.34
-37.75
-39.54
-40.07
-40.05
-40.20
-41.00
-42.54
-44.48
-46.31
-47.58
-48.18
-48.24
-48.00
-47.61
-46.98
-45.88
-44.16
-41.87
-39.26
-36.55
-33.85
-31.01
-27.87
-24.46
-21.06
-18.14
-16.10
-15.07
-14.88
-15.15
-15.59
-16.06
-16.54
-17.01
-17.33
-17.32
-16.90
-16.22
-15.60
-15.41
-15.85
-16.81
-18.00
-19.16
-20.19
-21.21
-22.36
-23.60
-24.59
-24.87
-24.04
-22.06
-19.30
-16.32
-13.64
-11.48
-9.82
-8.56
-7.63
-7.13
-7.14
-7.59
-8.23
-8.68
-8.58
-7.78
-6.34
-4.48
-2.51
-0.71
0.56
1.01
0.32
