1660326671.00
64.000000
-0.00
-0.00
-0.00
-0.00
-0.00
-0.00
-0.00
-0.00
-0.00
-0.00
0.00
0.01
0.01
-0.00
-0.03
-0.05
-0.05
0.00
0.13
0.36
0.66
1.01
1.37
1.72
2.06
2.40
2.79
3.24
3.80
4.42
5.06
5.66
6.20
6.68
7.15
7.68
8.31
9.14
10.09
11.04
11.88
12.56
13.14
13.76
14.65
15.96
17.91
20.32
22.90
25.38
27.58
29.57
31.68
34.32
37.81
42.54
48.15
54.10
59.83
64.97
69.58
74.14
79.34
85.71
93.76
103.00
112.62
121.73
129.77
136.75
143.30
150.75
157.77
166.64
177.95
191.79
206.97
220.57
228.25
225.36
208.53
176.87
132.76
80.05
23.07
-34.94
-92.44
-149.16
-205.23
-260.37
-313.74
-363.87
-409.83
-450.91
-486.50
-515.74
-537.23
-549.22
-549.96
-538.37
-514.21
-478.67
-433.88
-382.45
-327.02
-269.84
-212.63
-156.66
-102.95
-52.37
-5.90
35.58
71.43
101.35
125.50
144.38
158.69
169.15
176.37
180.75
182.57
182.07
179.51
175.23
169.65
163.18
156.15
148.81
141.30
133.69
126.02
118.33
110.69
103.16
95.80
88.68
81.83
75.25
68.95
62.95
57.25
51.86
46.78
42.03
37.59
33.45
29.61
26.07
22.81
19.83
17.11
14.67
12.48
10.54
8.83
7.35
6.07
4.97
4.05
3.27
2.62
2.08
1.65
1.29
1.02
0.81
0.64
0.51
0.38
0.24
0.10
-0.04
-0.15
-0.21
-0.23
-0.21
-0.18
-0.18
-0.20
-0.26
-0.32
-0.36
-0.37
-0.34
-0.29
-0.27
-0.32
-0.46
-0.65
-0.85
-0.98
-0.99
-0.88
-0.73
-0.63
-0.70
-1.00
-1.47
-1.98
-2.36
-2.46
-2.28
-1.95
-1.74
-1.87
-2.44
-3.37
-4.37
-5.10
-5.32
-5.02
-4.44
-4.03
-4.17
-5.00
-6.35
-7.79
-8.82
-9.13
-8.76
-8.02
-7.41
-7.24
-7.71
-8.86
-10.74
-13.26
-15.89
-17.50
-16.49
-11.44
-1.89
11.05
24.90
36.70
44.13
46.42
44.27
39.33
32.91
25.82
18.41
11.04
4.56
0.26
-0.71
2.02
7.56
14.05
19.35
21.88
21.26
18.29
14.41
10.86
8.08
5.67
2.74
-1.31
-6.36
-11.53
-15.62
-17.68
-17.43
-15.38
-12.51
-9.82
-8.01
-7.23
-7.24
-7.60
-7.98
-8.27
-8.58
-9.15
-10.15
-11.66
-13.62
-15.85
-18.13
-20.07
-21.10
-20.52
-17.75
-12.66
-5.75
1.95
9.17
14.80
18.27
19.44
18.56
15.92
11.82
6.55
0.65
-5.02
-9.44
-11.76
-11.59
-9.27
-5.79
-2.29
-0.14
-0.18
-2.51
-6.49
-11.08
-15.29
-18.51
-20.64
-21.97
-23.00
-24.22
-26.07
-28.80
-32.33
-36.03
-38.58
-38.30
-33.59
-23.72
-9.19
8.20
25.90
41.43
53.09
60.24
63.12
62.44
59.00
53.53
46.82
39.78
33.43
28.60
25.66
24.27
23.54
22.29
19.59
15.03
8.90
1.99
-4.72
-10.43
-14.79
-18.00
-20.66
-23.63
-27.70
-33.42
-40.86
-49.45
-57.96
-64.58
-67.32
-64.63
-55.97
-42.12
-25.08
-7.41
8.53
21.20
30.05
35.18
36.98
35.79
31.96
26.08
19.19
12.65
7.82
5.54
5.84
7.95
10.60
12.55
12.94
11.55
8.72
5.05
1.14
-2.66
-6.38
-10.31
-14.89
-20.51
-27.30
-34.95
-42.67
-49.09
-52.58
-51.62
-45.34
-33.95
-18.79
-2.04
13.92
27.11
36.34
41.30
42.28
39.93
35.07
28.61
21.58
14.99
9.77
6.48
5.23
5.62
6.85
7.90
7.74
5.58
1.00
-5.95
-14.87
-25.12
-36.00
-46.91
-57.36
-67.01
-75.64
-83.05
-88.93
-92.68
-93.29
-89.55
-80.33
-65.22
-44.87
-20.98
4.09
28.07
49.29
66.89
80.59
90.30
95.92
97.38
94.91
89.31
81.77
73.57
65.65
58.31
51.29
44.07
36.26
27.81
18.99
10.24
2.02
-5.29
-11.39
-16.05
-19.16
-20.83
-21.49
-21.75
-22.21
-23.03
-23.72
-23.16
-19.99
-13.24
-2.87
10.02
23.41
35.13
43.40
47.36
46.97
42.72
35.23
25.05
12.80
-0.57
-13.65
-24.72
-32.30
-35.72
-35.46
-33.06
-30.50
-29.57
-31.18
-35.31
-41.13
-47.58
-53.87
-59.67
-65.09
-70.49
-76.22
-82.56
-89.61
-97.21
-104.66
-110.59
-113.02
-109.88
-99.79
-82.69
-60.09
-34.51
-8.58
15.86
38.18
58.67
77.91
96.06
112.65
126.74
137.31
143.57
145.02
141.42
132.74
119.37
102.36
83.54
65.32
50.11
39.65
34.40
33.44
34.85
36.32
35.76
31.77
23.83
12.41
-1.07
-14.46
-25.21
-31.13
-30.98
-25.03
-14.91
-3.24
7.30
14.61
17.62
16.41
11.95
5.85
-0.05
-4.05
-5.01
-2.86
1.34
5.55
7.33
4.72
-3.00
-14.84
-28.23
-39.67
-45.60
-43.57
-32.95
-15.24
6.21
27.04
42.98
51.01
50.00
41.01
26.75
10.80
-3.50
-13.75
-18.95
-19.37
-16.04
-10.24
-3.13
4.38
11.55
17.73
22.36
25.01
25.41
23.57
19.57
13.59
5.86
-3.18
-12.81
-22.03
-29.75
-35.03
-37.39
-36.99
-34.60
-31.49
-29.25
-29.44
-33.23
-40.83
-51.16
-61.71
-69.12
-70.10
-62.66
-46.90
-25.18
-1.40
20.22
36.34
45.44
47.74
44.83
38.74
31.37
24.09
17.71
12.70
9.16
6.87
5.23
3.33
0.26
-4.52
-10.86
-17.87
-24.35
-29.26
-32.15
-33.32
-33.52
-33.49
-33.57
-33.51
-32.59
-30.04
-25.32
-18.42
-9.90
-0.69
8.17
15.78
21.53
25.05
26.27
25.30
22.51
18.64
14.70
11.87
11.04
12.48
15.59
19.14
21.71
22.28
20.66
17.44
13.70
10.46
8.20
6.79
5.66
4.16
1.89
-1.16
-4.62
-7.88
-10.20
-10.83
-9.11
-4.64
2.55
11.90
22.35
32.50
40.97
46.65
48.91
47.81
44.02
38.67
33.12
28.58
25.74
24.58
24.41
24.20
23.04
20.42
16.44
11.62
6.63
1.99
-2.07
-5.62
-8.99
-12.68
-17.28
-23.23
-30.55
-38.64
-46.10
-51.06
-51.75
-47.15
-37.47
-24.18
-9.55
4.08
14.98
22.30
26.01
26.46
24.18
19.73
13.75
7.17
1.12
-3.37
-5.64
-5.68
-4.15
-2.06
-0.45
-0.01
-0.93
-2.93
-5.48
-8.07
-10.50
-12.99
-16.13
-20.59
-26.69
-33.96
-41.05
-45.96
-46.70
-42.03
-31.98
-17.92
-2.08
13.12
25.83
35.04
40.60
42.86
42.29
39.38
34.68
28.90
22.99
17.92
14.32
12.25
11.15
10.21
8.68
6.29
3.20
-0.14
-3.32
-6.20
-9.00
-12.22
-16.41
-21.96
-28.80
-36.24
-42.84
-46.75
-46.17
-40.08
-28.66
-13.36
3.51
19.58
33.05
43.04
49.45
52.57
52.75
50.24
45.38
38.82
31.60
24.97
19.91
16.73
14.95
13.59
11.63
8.57
4.57
0.30
-3.47
-6.38
-8.56
-10.55
-13.02
-16.52
-21.37
-27.63
-35.00
-42.68
-49.29
-53.03
-52.14
-45.59
-33.64
-17.89
-0.85
14.88
27.52
36.40
41.86
44.69
45.54
44.69
42.12
37.90
32.49
26.76
21.70
18.09
16.09
15.29
14.88
14.03
12.21
9.38
5.86
2.17
-1.24
-4.18
-6.74
-9.18
-11.77
-14.71
-18.12
-22.11
-26.87
-32.50
-38.76
-44.86
-49.34
-50.44
-46.72
-37.71
-24.25
-8.32
7.64
21.44
31.79
38.35
41.50
41.93
40.35
37.38
33.69
29.96
26.88
24.89
24.06
24.00
24.02
23.44
21.94
19.65
17.01
14.53
12.48
10.70
8.71
5.92
2.00
-3.00
-8.62
-14.21
-19.21
-23.38
-26.82
-29.95
-33.31
-37.40
-42.45
-48.25
-53.95
-58.13
-59.12
-55.53
-46.87
-33.90
-18.51
-3.13
10.01
19.57
25.26
27.59
27.43
25.58
22.61
18.96
15.09
11.53
8.85
7.42
7.34
8.43
10.31
12.60
14.85
16.58
17.21
16.14
13.00
7.82
1.21
-5.76
-11.90
-16.32
-18.82
-19.91
-20.49
-21.51
-23.41
-26.07
-29.06
-32.04
-34.92
-37.55
-39.44
-39.49
-36.39
-29.26
-18.35
-5.13
8.27
20.09
29.69
37.59
44.66
51.16
56.44
59.36
59.19
56.47
52.93
50.81
51.58
55.17
59.79
62.73
61.59
55.42
45.59
35.15
27.79
26.02
29.94
37.06
43.32
45.03
40.55
30.79
18.31
5.71
-5.59
-15.57
-24.72
-33.06
-39.70
-43.22
-42.49
-37.36
-28.63
-17.47
-4.86
8.80
23.36
38.50
53.34
66.31
75.48
78.93
75.23
63.87
45.61
22.62
-1.72
-23.59
-39.48
-47.06
-45.56
-35.72
-19.59
0.05
19.85
37.12
50.50
60.27
67.79
74.67
82.15
90.60
99.54
107.80
114.60
119.97
124.56
128.88
132.75
135.42
136.22
135.16
132.40
129.25
127.75
129.64
135.15
142.71
149.77
154.03
154.14
147.41
133.00
112.39
88.81
65.25
43.19
23.04
4.82
-12.28
-34.67
-67.24
-110.71
-161.89
-216.95
-273.46
-329.25
-380.28
-422.03
-457.88
-490.19
-518.08
-538.39
-550.13
-556.35
-561.20
-566.68
-574.32
-594.76
-634.50
-691.26
-754.53
-812.81
-859.38
-892.08
-911.38
-851.36
-680.92
-422.81
-142.27
102.43
287.75
416.55
494.05
541.85
571.75
579.04
560.07
518.62
465.46
414.06
371.23
338.60
314.48
294.70
268.77
231.05
183.70
135.21
94.30
65.24
59.83
81.45
122.41
164.77
194.88
209.16
212.13
210.59
209.04
209.57
210.99
211.34
207.45
198.02
183.91
167.47
151.08
136.00
122.74
109.38
94.46
76.57
55.25
30.82
4.15
-23.46
-50.63
-71.45
-86.33
-96.29
-102.37
-105.57
-106.95
-107.68
-108.85
-111.45
-115.84
-122.19
-127.84
-128.15
-118.19
-95.47
-61.73
-22.82
13.55
40.98
56.14
60.59
58.60
54.54
50.79
47.53
43.89
39.45
34.94
31.42
29.97
30.52
31.91
32.53
31.06
27.30
22.13
17.00
13.10
11.09
10.69
10.93
10.61
8.88
5.62
1.36
-2.95
-6.54
-8.99
-10.46
-11.50
-12.81
-14.87
-17.78
-21.26
-24.85
-28.20
-30.98
-33.17
-34.88
-36.21
-37.18
-37.62
-37.24
-35.76
-32.92
-28.60
-22.87
-15.92
-8.00
0.53
9.18
17.44
24.79
30.82
35.32
38.27
39.90
40.49
40.34
39.58
38.24
36.26
33.63
30.49
27.18
24.17
21.91
20.63
20.26
20.41
20.54
20.27
19.50
18.50
17.75
17.73
18.71
20.63
23.15
25.69
27.54
27.98
26.40
22.66
17.14
10.92
5.22
0.93
-1.80
-3.56
-5.37
-8.11
-12.17
-17.41
-23.25
-29.34
-35.77
-42.87
-50.84
-59.32
-67.28
-73.23
-75.68
-73.24
-65.49
-53.11
-37.92
-22.19
-7.85
4.58
16.58
29.40
45.26
65.57
89.61
113.83
132.53
139.57
130.68
105.25
67.02
23.36
-17.10
-46.89
-61.67
-60.94
-47.68
-27.03
-4.97
12.97
22.67
21.55
8.75
-14.75
-46.23
-81.54
-115.86
-144.71
-164.73
-173.96
-171.92
-159.24
-137.31
-108.14
-74.42
-39.32
-5.94
23.65
49.08
71.24
90.96
107.36
117.20
115.88
99.70
68.35
25.79
-20.90
-64.26
-99.10
-123.64
-138.68
-145.62
-145.02
-136.33
-119.12
-94.63
-66.44
-39.74
-19.65
-9.44
-9.50
-17.49
-29.39
-40.92
-48.72
-51.05
-47.70
-39.51
-27.58
-12.77
4.59
24.34
46.15
69.14
92.02
113.59
133.23
151.19
168.13
184.22
198.26
207.42
208.00
196.90
173.17
139.05
99.74
62.13
32.81
16.09
12.87
20.69
34.78
49.69
60.67
64.46
59.39
45.31
23.58
-2.77
-29.01
-49.41
-58.64
-53.62
-34.86
-6.51
25.10
53.73
75.21
88.20
93.65
93.41
89.07
81.44
70.95
58.10
43.71
28.45
12.17
-6.50
-29.56
-58.46
-92.56
-128.45
-160.55
-182.90
-191.44
-185.43
-167.64
-143.08
-117.05
-93.49
-74.43
-60.32
-50.95
-46.05
-45.18
-47.27
-50.22
-51.13
-47.25
-37.15
-21.33
-2.11
17.36
34.49
48.02
58.29
66.55
74.15
81.91
90.05
98.55
107.63
117.87
129.82
143.22
156.35
165.76
167.10
156.54
132.55
97.12
55.82
16.33
-13.99
-30.49
-32.67
-24.06
-10.74
0.76
5.33
0.30
-14.25
-35.80
-60.05
-81.72
-95.77
-98.65
-89.38
-69.89
-44.44
-18.20
4.26
20.10
28.51
30.20
26.70
19.78
11.18
2.62
-4.23
-8.04
-8.19
-5.23
-1.02
1.43
-1.22
-11.64
-30.58
-56.12
-83.86
-107.96
-123.06
-125.99
-116.84
-98.68
-76.30
-54.51
-36.88
-25.22
-19.86
-20.15
-24.76
-31.83
-38.94
-43.47
-43.12
-36.69
-24.49
-8.21
9.66
26.70
41.30
52.93
62.01
69.45
76.18
82.87
89.85
97.30
105.54
115.16
126.86
140.91
156.38
170.80
180.30
180.68
168.90
144.40
109.65
69.65
30.44
-2.64
-26.33
-39.92
-44.74
-43.21
-37.85
-30.85
-24.07
-19.33
-18.37
-22.38
-31.20
-42.71
-53.10
-57.95
-53.99
-40.39
-19.14
5.76
29.68
48.63
59.80
61.61
53.55
36.32
12.02
-15.71
-42.30
-63.45
-76.50
-81.36
-80.54
-78.22
-78.70
-84.84
-97.14
-113.66
-130.69
-143.91
-149.58
-145.35
-130.79
-107.37
-78.24
-47.63
-20.01
0.91
13.15
16.87
14.19
8.29
2.27
-1.70
-2.63
-0.38
4.88
12.89
23.17
34.73
45.94
54.88
59.94
60.57
57.72
53.68
51.45
53.71
61.93
75.67
92.36
107.77
116.77
114.65
98.46
68.12
26.78
-19.71
-64.09
-99.47
-120.97
-126.66
-117.75
-98.01
-72.72
-47.48
-27.17
-15.16
-12.90
-19.89
-34.03
-52.16
-70.61
-85.67
-93.90
-92.64
-80.57
-58.18
-27.99
5.89
38.71
66.25
85.97
97.50
102.36
103.24
102.84
102.90
103.68
103.99
101.76
94.85
81.71
61.73
35.21
3.19
-32.55
-69.35
-103.61
-131.04
-147.54
-150.41
-139.50
-117.65
-90.07
-62.95
-41.68
-29.47
-26.83
-31.93
-41.65
-52.56
-61.70
-66.79
-66.22
-58.96
-44.56
-23.47
2.90
32.08
61.00
86.66
106.79
120.52
128.53
132.79
135.84
139.86
145.90
153.35
160.16
163.46
160.58
149.92
131.50
106.84
78.63
50.02
24.07
3.18
-11.24
-19.00
-21.09
-19.42
-16.18
-13.29
-12.01
-12.87
-16.05
-21.77
-30.51
-42.88
-59.18
-78.88
-100.47
-121.56
-139.38
-151.47
-156.22
-153.14
-142.84
-126.63
-106.03
-82.32
-56.46
-29.07
-0.70
27.86
55.69
81.78
105.45
126.47
145.13
161.99
177.59
192.33
206.37
219.73
232.24
243.25
251.44
254.83
251.24
238.97
217.63
188.50
154.15
117.61
81.29
46.21
11.77
-23.79
-62.54
-105.79
-153.23
-202.55
-249.72
-290.01
-319.31
-335.38
-338.23
-329.64
-312.17
-288.11
-259.14
-226.48
-191.43
-155.47
-120.09
-86.25
-54.14
-23.30
6.79
36.35
65.21
93.04
119.47
143.99
165.44
181.69
189.91
187.69
174.47
152.55
126.84
103.33
86.95
79.72
80.39
85.39
90.77
93.72
93.16
89.08
81.40
69.29
51.29
26.24
-5.59
-42.04
-79.46
-113.88
-142.34
-163.73
-178.96
-190.35
-200.76
-212.77
-228.07
-247.06
-268.70
-290.44
-308.50
-318.58
-317.07
-302.28
-275.21
-239.49
-200.29
-162.81
-131.01
-106.96
-90.96
-81.90
-77.76
-75.93
-73.67
-68.81
-60.40
-49.09
-36.87
-26.07
-18.35
-13.84
-11.23
-8.42
-3.44
4.81
16.22
29.52
42.77
54.07
62.36
67.84
71.94
76.55
83.08
91.83
101.98
112.33
122.06
131.12
140.00
148.97
157.44
163.85
166.07
162.20
151.23
133.34
109.76
82.34
53.05
23.64
-4.58
-30.54
-53.25
-71.62
-84.62
-91.68
-93.09
-90.05
-84.19
-76.77
-68.10
-57.53
-44.00
-26.86
-6.37
16.41
40.27
64.44
88.90
114.18
140.88
168.99
197.88
226.20
252.20
273.83
289.08
296.44
295.41
286.82
272.65
255.63
238.62
223.94
213.04
206.46
204.08
205.39
209.70
215.81
222.50
228.83
234.27
238.62
241.74
243.19
242.21
237.78
227.97
211.49
188.33
160.11
129.36
98.62
69.74
43.65
20.59
-1.76
-25.56
-51.67
-79.07
-105.64
-129.46
-149.55
-165.86
-178.91
-192.85
-211.49
-236.65
-267.42
-301.26
-335.86
-370.15
-404.04
-437.68
-475.37
-520.22
-572.26
-627.60
-680.22
-724.81
-758.37
-780.08
-763.16
-690.88
-563.19
-400.31
-231.67
-80.50
42.48
136.49
205.77
256.05
288.38
303.51
303.74
294.06
280.72
268.84
260.90
257.30
257.35
256.61
251.30
239.82
223.61
205.86
189.51
175.90
165.13
156.59
147.38
135.22
119.36
101.00
82.55
66.29
53.14
43.25
36.61
32.09
28.88
26.76
26.22
28.18
33.37
40.82
49.37
58.50
67.86
77.62
87.89
98.75
110.09
121.71
130.58
133.84
132.11
126.80
119.90
112.77
105.98
99.60
93.67
84.23
68.24
45.57
18.85
-8.28
-33.34
-55.46
-75.07
-92.99
-115.76
-148.90
-194.01
-248.61
-308.52
-370.50
-433.00
-495.82
-527.79
-510.56
-446.91
-358.90
-270.47
-194.68
-133.93
-85.34
-45.06
-9.56
17.46
32.41
35.31
30.51
24.31
21.84
25.88
32.72
43.50
53.36
57.28
53.06
41.87
26.51
10.08
-3.99
-11.60
-7.37
9.45
36.85
70.53
105.08
135.24
157.56
172.94
183.24
192.56
202.65
213.24
222.32
227.51
227.11
220.79
209.38
193.97
175.88
154.89
130.28
101.76
70.09
37.04
5.01
-23.50
-46.39
-61.87
-69.35
-69.47
-63.89
-54.93
-44.87
-35.37
-27.20
-20.48
-14.72
-9.64
-5.35
-2.34
-1.21
-2.42
-6.18
-12.46
-21.22
-32.36
-45.79
-61.27
-77.94
-94.13
-107.28
-114.48
-113.52
-103.81
-86.92
-66.27
-46.08
-30.02
-20.22
-17.05
-19.59
-26.19
-34.94
-43.74
-50.19
-51.81
-46.58
-33.73
-14.10
9.99
35.43
59.26
79.21
93.83
102.31
104.19
99.31
88.04
71.39
51.06
29.11
7.59
-11.87
-28.16
-40.74
-49.50
-54.60
-56.40
-55.40
-52.28
-47.84
-42.98
-38.76
-36.36
-36.89
-41.23
-49.67
-61.54
-75.15
-88.01
-97.32
-100.79
-97.22
-86.87
-71.30
-52.76
-33.52
-15.30
0.99
14.95
26.38
34.88
39.82
40.56
36.87
29.30
19.22
8.47
-1.13
-8.52
-13.69
-17.50
-21.17
-25.54
-30.68
-35.89
-40.16
-42.83
-44.17
-45.37
-48.23
-54.53
-65.28
-80.24
-97.73
-114.69
-127.31
-131.88
-125.86
-108.71
-82.13
-49.52
-14.97
17.95
46.93
70.95
89.73
103.12
110.76
112.30
107.93
98.69
86.51
73.63
62.00
52.72
45.81
40.55
35.87
30.85
25.03
18.51
11.74
5.15
-1.13
-7.40
-14.23
-22.26
-31.98
-43.73
-57.73
-74.06
-92.15
-110.34
-125.65
-134.28
-132.83
-119.74
-96.16
-65.71
-33.20
-3.03
22.13
41.54
55.99
66.79
75.05
81.32
85.69
87.92
87.74
85.09
80.18
73.63
66.30
59.05
52.38
46.34
40.50
34.25
27.13
19.05
10.24
1.08
-8.15
-17.33
-26.51
-35.82
-45.48
-55.85
-67.44
-80.81
-96.06
-112.15
-126.55
-135.58
-135.49
-123.88
-100.84
-69.02
-32.73
3.58
36.68
65.08
88.64
107.77
122.68
133.11
138.70
139.43
136.00
129.71
122.09
114.40
107.28
100.72
94.23
87.30
79.69
71.62
63.68
56.46
50.29
44.97
39.85
34.08
26.91
18.06
7.75
-3.37
-14.46
-24.85
-34.26
-42.90
-51.42
-60.66
-71.54
-84.88
-101.03
-119.55
-138.85
-156.08
-167.62
-169.89
-160.55
-139.26
-107.97
-70.30
-30.44
7.97
42.56
72.19
96.57
115.68
129.40
137.60
140.47
138.71
133.61
126.69
119.33
112.25
105.50
98.66
91.29
83.38
75.40
68.24
62.60
58.58
55.40
51.61
45.65
36.62
24.70
11.12
-2.32
-14.05
-23.41
-30.88
-37.77
-45.78
-56.40
-70.49
-87.89
-107.15
-125.39
-138.72
-143.09
-135.64
-115.82
-85.82
-49.86
-12.82
21.27
50.15
73.25
90.99
103.88
112.12
115.67
114.75
110.15
103.25
95.55
88.19
81.64
75.64
69.64
63.18
56.33
49.62
43.74
39.12
35.46
31.76
26.61
18.84
8.11
-4.88
-18.56
-31.19
-41.58
-49.49
-55.85
-62.30
-70.65
-82.36
-97.92
-116.54
-135.84
-152.12
-161.04
-158.93
-144.13
-117.81
-83.76
-47.08
-12.33
17.87
43.15
64.57
83.26
99.39
112.03
119.94
122.48
120.25
114.82
108.03
101.14
94.45
87.55
79.84
71.21
62.24
53.94
47.21
42.25
38.37
34.15
28.05
19.11
7.31
-6.36
-20.37
-33.30
-44.30
-53.41
-61.44
-69.65
-79.40
-91.87
-107.64
-126.27
-145.92
-163.30
-174.25
-174.85
-162.81
-138.43
-104.63
-66.06
-27.47
7.70
37.92
63.35
84.84
103.00
117.73
128.37
134.16
134.86
130.91
123.35
113.46
102.50
91.37
80.71
70.88
62.20
54.94
49.30
45.28
42.46
40.01
36.73
31.43
23.32
12.26
-1.03
-15.32
-29.24
-41.75
-52.44
-61.63
-70.10
-78.89
-89.08
-101.62
-117.06
-135.15
-154.33
-171.69
-183.31
-185.27
-175.10
-152.65
-120.39
-82.47
-43.35
-6.46
26.44
55.04
79.73
100.83
118.16
131.24
139.60
143.22
142.59
138.67
132.55
125.34
117.89
110.78
104.31
98.53
93.28
88.30
83.36
78.20
72.65
66.53
59.66
51.87
42.98
32.90
21.69
9.61
-2.92
-15.39
-27.33
-38.46
-48.71
-58.27
-67.58
-77.31
-88.35
-101.61
-117.54
-135.54
-153.52
-167.99
-174.87
-170.84
-154.65
-127.60
-93.19
-55.80
-19.26
13.95
42.96
67.83
88.83
106.00
119.18
128.26
133.47
135.45
134.92
132.51
128.51
123.04
116.29
108.79
101.37
95.02
90.39
87.51
85.62
83.42
79.59
73.24
64.30
53.53
42.15
31.36
21.80
13.33
5.20
-3.55
-13.56
-24.78
-36.57
-47.92
-58.05
-66.75
-74.45
-82.15
-91.09
-102.35
-116.61
-133.60
-151.79
-168.19
-178.86
-179.91
-168.85
-145.73
-113.25
-76.00
-38.89
-5.66
21.92
43.93
61.38
75.29
86.04
93.46
97.22
97.32
94.23
88.83
82.12
74.90
67.69
60.81
54.55
49.20
45.06
42.19
40.25
38.49
35.94
31.84
25.91
18.51
10.40
2.33
-5.27
-12.53
-19.90
-27.85
-36.55
-45.70
-54.80
-63.30
-70.98
-78.00
-84.90
-92.48
-101.69
-113.24
-127.13
-142.14
-155.53
-163.49
-162.13
-149.03
-124.30
-90.89
-53.63
-17.60
13.53
38.28
57.18
71.72
83.18
92.00
97.76
99.85
98.07
93.00
85.91
78.28
71.34
65.77
61.66
58.62
56.14
53.67
50.81
47.34
43.18
38.38
33.02
27.13
20.59
13.17
4.61
-5.15
-15.84
-26.92
-37.74
-47.76
-56.78
-64.96
-72.73
-80.69
-89.55
-100.11
-113.04
-128.48
-145.41
-161.25
-172.11
-173.78
-163.29
-140.29
-107.43
-69.56
-32.00
1.21
28.34
49.78
67.00
81.40
93.52
103.08
109.46
112.30
111.79
108.60
103.62
97.67
91.41
85.35
79.79
74.91
70.66
66.78
62.81
58.23
52.61
45.73
37.69
28.80
19.42
9.79
0.01
-9.97
-20.16
-30.47
-40.68
-50.52
-59.79
-68.49
-76.77
-85.05
-93.97
-104.39
-117.09
-132.26
-148.90
-164.34
-174.67
-175.80
-164.95
-141.90
-109.24
-71.50
-33.58
0.84
29.99
53.94
73.66
90.14
103.80
114.51
121.96
125.98
126.77
124.82
120.70
115.02
108.33
101.22
94.31
88.21
83.36
79.83
77.20
74.65
71.23
66.17
59.25
50.87
41.83
32.96
24.66
16.78
8.65
-0.43
-10.87
-22.43
-34.37
-45.78
-55.98
-64.84
-72.91
-81.23
-91.09
-103.65
-119.50
-138.16
-157.64
-174.57
-184.81
-184.65
-172.19
-148.01
-115.14
-78.02
-41.04
-7.29
21.89
46.58
67.53
85.35
100.20
111.88
120.18
125.14
127.07
126.37
123.42
118.52
112.00
104.45
96.73
89.86
84.63
81.27
79.34
77.73
75.15
70.55
63.54
54.50
44.43
34.47
25.35
17.16
9.25
0.68
-9.33
-20.92
-33.55
-46.26
-58.07
-68.45
-77.52
-86.03
-95.15
-106.22
-120.18
-137.06
-155.34
-171.89
-182.45
-182.86
-170.64
-145.99
-111.92
-73.25
-34.96
-0.67
28.00
51.20
69.99
85.33
97.54
106.42
111.57
112.90
110.79
106.09
99.81
92.98
86.37
80.56
75.90
72.50
70.24
68.76
67.48
65.82
63.25
59.44
54.20
47.47
39.13
29.17
17.69
5.09
-7.95
-20.62
-32.22
-42.41
-51.39
-59.73
-68.20
-77.60
-88.68
-102.03
-117.91
-135.73
-153.69
-168.58
-176.36
-173.40
-157.86
-130.67
-95.45
-57.35
-21.28
9.49
33.93
52.78
67.49
79.17
88.04
93.73
95.75
94.12
89.58
83.39
76.95
71.29
66.84
63.43
60.57
57.65
54.21
50.06
45.17
39.63
33.46
26.63
19.06
10.68
1.50
-8.36
-18.66
-29.06
-39.25
-48.97
-58.01
-66.29
-73.87
-81.05
-88.38
-96.66
-106.83
-119.56
-134.76
-150.96
-165.23
-173.55
-171.91
-157.76
-131.02
-94.35
-52.36
-10.17
28.04
59.95
85.02
103.98
117.95
127.89
134.54
138.41
139.97
139.55
137.23
132.88
126.27
117.43
106.87
95.71
85.30
76.85
70.87
67.00
64.07
60.58
55.32
47.74
38.20
27.66
17.27
7.86
-0.40
-7.95
-15.62
-24.11
-33.64
-43.85
-53.97
-63.24
-71.30
-78.42
-85.41
-93.43
-103.71
-117.08
-133.51
-151.61
-168.46
-179.97
-182.04
-171.90
-149.27
-116.63
-78.32
-39.05
-2.42
29.77
57.30
80.71
100.44
116.55
128.82
137.19
141.90
143.52
142.60
139.56
134.55
127.76
119.54
110.57
101.78
94.09
88.11
83.90
80.87
77.96
73.98
68.02
59.85
49.94
39.36
29.31
20.63
13.43
7.05
0.32
-7.85
-17.98
-29.69
-41.90
-53.29
-62.93
-70.70
-77.37
-84.31
-93.04
-104.79
-119.99
-137.89
-156.25
-171.45
-179.22
-175.87
-159.62
-131.52
-95.30
-56.18
-19.12
12.57
37.86
57.49
72.91
85.37
95.31
102.65
107.14
108.77
107.85
104.83
100.13
94.07
87.01
79.45
72.17
65.94
61.25
58.09
55.79
53.33
49.71
44.41
37.47
29.40
20.87
12.35
3.90
-4.73
-13.86
-23.67
-33.99
-44.41
-54.38
-63.50
-71.66
-79.14
-86.70
-95.37
-106.26
-119.90
-135.68
-151.26
-162.78
-165.91
-157.27
-136.01
-104.32
-66.90
-29.32
3.87
30.30
50.00
64.42
75.25
83.41
88.95
91.48
90.81
87.34
82.03
76.06
70.35
65.35
61.08
57.39
54.08
51.04
48.17
45.26
42.01
38.08
33.26
27.46
20.81
13.53
5.77
-2.42
-11.15
-20.58
-30.80
-41.70
-52.95
-64.08
-74.61
-84.28
-93.26
-102.22
-112.24
-124.46
-139.31
-155.88
-171.50
-182.08
-183.34
-172.28
-148.53
-114.69
-75.43
-35.97
-0.34
29.39
53.05
71.60
86.07
97.15
105.09
110.01
112.16
111.93
109.72
105.85
100.53
94.00
86.71
79.34
72.70
67.41
63.69
61.17
59.02
56.30
52.32
46.92
40.50
33.73
27.07
20.53
13.54
5.33
-4.66
-16.44
-29.37
-42.39
-54.54
-65.21
-74.43
-82.82
-91.38
-101.35
-113.76
-128.99
-146.06
-162.32
-173.71
-175.91
-165.80
-142.85
-109.52
-70.45
-30.91
4.91
34.83
58.64
77.34
92.20
104.12
113.50
120.43
124.98
127.31
127.63
126.12
122.89
118.04
111.73
104.29
96.26
88.26
80.77
74.01
67.80
61.70
55.22
48.07
40.32
32.32
24.49
17.04
9.82
2.38
-5.83
-15.16
-25.54
-36.46
-47.20
-57.12
-65.98
-74.09
-82.31
-91.80
-103.78
-118.92
-136.70
-154.87
-169.53
-175.98
-170.36
-151.15
-120.11
-81.80
-41.96
-5.58
24.58
48.23
66.73
81.76
94.37
104.63
111.97
115.88
116.28
113.71
109.02
103.10
96.66
90.12
83.75
77.69
72.10
67.13
62.76
58.83
54.97
50.76
45.81
39.88
32.86
24.69
15.33
4.83
-6.57
-18.40
-29.98
-40.62
-49.96
-58.03
-65.39
-73.01
-81.96
-93.26
-107.46
-124.16
-141.63
-156.67
-165.09
-162.93
-147.95
-120.73
-84.84
-45.71
-8.82
22.03
45.56
62.67
75.23
84.79
91.89
96.21
97.19
94.75
89.61
83.03
76.40
70.66
66.02
62.08
58.14
53.66
48.51
43.05
37.81
33.19
29.12
24.93
19.61
12.20
2.22
-10.04
-23.55
-36.86
-48.71
-58.36
-65.91
-72.13
-78.18
-85.36
-94.80
-107.43
-123.58
-142.44
-161.58
-176.92
-183.65
-177.70
-157.56
-125.07
-85.06
-43.63
-6.07
24.69
48.37
66.37
80.40
91.32
99.00
102.77
102.38
98.37
92.13
85.29
79.10
74.08
69.97
66.05
61.67
56.55
50.99
45.61
41.06
37.55
34.59
31.07
25.61
17.17
5.57
-8.35
-22.98
-36.59
-48.01
-57.03
-64.45
-71.61
-80.01
-90.92
-105.12
-122.57
-142.09
-160.98
-175.20
-180.21
-172.46
-150.86
-117.56
-77.36
-36.14
1.20
32.10
56.49
75.86
91.81
105.17
115.76
122.96
126.45
126.52
124.03
119.90
114.78
108.85
102.04
94.28
85.75
76.99
68.69
61.50
55.67
50.94
46.49
41.20
33.95
24.09
11.63
-2.63
-17.44
-31.49
-43.91
-54.57
-64.02
-73.30
-83.61
-96.01
-111.27
-129.47
-149.57
-169.01
-183.83
-189.48
-182.32
-161.13
-127.85
-87.10
-44.62
-5.31
28.08
55.22
77.28
95.74
111.42
124.31
133.86
139.60
141.49
139.94
135.63
129.31
121.60
113.02
103.95
94.69
85.53
76.71
68.46
60.95
54.17
47.86
41.50
34.33
25.64
14.96
2.30
-11.82
-26.48
-40.71
-53.77
-65.39
-75.77
-85.43
-95.10
-105.65
-118.08
-133.24
-151.39
-171.45
-190.52
-204.15
-207.46
-196.92
-171.85
-134.94
-91.39
-47.08
-6.65
27.60
55.62
78.59
97.76
113.66
126.11
134.67
139.20
140.06
138.01
133.89
128.38
121.88
114.64
106.81
98.61
90.34
82.36
75.00
68.43
62.60
57.16
51.50
44.95
36.85
26.85
14.95
1.57
-12.59
-26.75
-40.22
-52.61
-63.89
-74.39
-84.76
-95.97
-109.16
-125.30
-144.53
-165.47
-184.85
-198.01
-200.20
-188.36
-162.44
-125.64
-83.33
-41.20
-3.48
27.96
53.43
74.47
92.70
109.09
123.77
136.21
145.60
151.27
152.91
150.72
145.36
137.77
128.83
119.29
109.63
100.22
91.39
83.48
76.72
71.01
65.87
60.47
53.89
45.37
34.58
21.68
7.37
-7.41
-21.69
-34.82
-46.60
-57.33
-67.68
-78.54
-90.89
-105.54
-122.82
-142.10
-161.24
-176.65
-183.98
-179.49
-161.56
-131.51
-93.32
-52.29
-13.23
20.91
49.34
72.77
92.24
108.22
120.45
128.27
131.31
129.92
125.11
118.22
110.51
102.80
95.37
88.07
80.66
73.07
65.58
58.72
52.96
48.43
44.66
40.61
35.05
26.99
16.14
3.04
-11.15
-25.03
-37.50
-48.09
-57.04
-65.13
-73.41
-83.02
-94.93
-109.83
-127.59
-146.83
-164.57
-176.58
-178.53
-167.50
-143.29
-108.72
-68.69
-28.53
7.73
38.18
62.84
82.75
98.87
111.57
120.64
125.73
126.83
124.40
119.30
112.58
105.19
97.85
90.91
84.38
78.05
71.67
65.15
58.66
52.48
46.83
41.53
35.99
29.37
20.86
10.10
-2.60
-16.36
-30.05
-42.74
-53.94
-63.77
-72.78
-81.83
-91.91
-104.03
-119.01
-136.97
-156.76
-175.55
-189.17
-193.17
-184.32
-161.92
-128.24
-87.76
-45.66
-6.20
28.29
57.35
81.59
101.81
118.34
131.06
139.70
144.20
144.88
142.37
137.43
130.84
123.23
115.12
106.88
98.77
90.97
83.59
76.70
70.23
64.05
57.83
51.17
43.66
34.92
24.74
13.14
0.43
-12.82
-25.89
-38.18
-49.30
-59.31
-68.66
-78.11
-88.58
-101.03
-116.15
-133.86
-152.78
-169.91
-181.00
-181.72
-169.25
-143.55
-107.61
-66.56
-25.82
10.55
40.77
65.05
84.59
100.39
112.74
121.23
125.41
125.29
121.59
115.52
108.29
100.74
93.12
85.20
76.73
67.74
58.83
50.94
44.99
41.23
39.04
36.91
33.02
25.98
15.40
2.05
-12.45
-26.32
-38.32
-48.14
-56.38
-64.20
-72.93
-83.79
-97.57
-114.40
-133.21
-151.44
-165.16
-169.96
-162.40
-141.48
-109.37
-70.78
-31.41
3.97
32.82
54.93
71.56
84.04
93.00
98.23
99.25
96.08
89.60
81.33
72.88
65.34
58.97
53.31
47.62
41.39
34.67
28.02
22.20
17.74
14.46
11.48
7.39
0.93
-8.56
-20.73
-34.35
-47.81
-59.76
-69.60
-77.68
-85.05
-93.11
-103.22
-116.36
-132.72
-151.21
-169.15
-182.49
-186.73
-178.42
-156.60
-123.38
-83.38
-42.03
-3.86
28.69
55.26
76.64
93.74
106.94
116.11
121.07
122.07
119.83
115.33
109.51
102.94
95.82
88.15
79.94
71.33
62.76
54.81
48.13
43.10
39.54
36.64
33.02
27.14
17.87
4.96
-10.79
-27.79
-44.26
-58.85
-71.10
-81.47
-91.10
-101.33
-113.42
-128.17
-145.61
-164.56
-182.44
-195.45
-199.41
-191.18
-169.90
-137.42
-97.83
-56.01
-16.06
19.68
50.63
77.22
99.96
118.86
133.42
143.12
147.85
148.12
144.97
139.49
132.60
124.83
116.36
107.29
97.83
88.44
79.65
71.96
65.53
60.05
54.79
48.79
41.07
31.04
18.63
4.45
-10.41
-24.68
-37.43
-48.29
-57.65
-66.50
-76.12
-87.79
-102.48
-120.39
-140.53
-160.37
-175.99
-182.89
-177.46
-158.35
-127.23
-88.28
-46.76
-7.29
27.37
56.46
80.50
100.16
115.62
126.49
132.31
133.15
129.78
123.51
115.67
107.18
98.39
89.22
79.55
69.60
60.05
51.88
45.85
42.08
39.77
37.36
33.05
25.54
14.54
0.92
-13.60
-27.10
-38.23
-46.65
-53.14
-59.32
-67.13
-78.26
-93.58
-112.56
-132.94
-150.76
-161.16
-159.65
-143.80
-114.22
-74.67
-30.85
11.40
47.92
77.03
99.34
116.58
130.44
141.78
150.63
156.80
160.31
161.65
161.48
160.09
157.03
151.04
140.59
124.60
103.00
76.68
47.17
16.12
-15.03
-45.20
-73.86
-101.04
-127.48
-154.29
-182.43
-212.05
-242.24
-271.30
-297.59
-320.51
-340.73
-359.98
-380.11
-402.28
-426.33
-450.28
-470.96
-484.70
-488.10
-478.96
-457.34
-426.19
-390.96
-358.18
-332.99
-318.20
-313.96
-318.38
-328.27
-339.97
-349.86
-354.81
-352.44
-340.17
-316.81
-283.00
-240.89
-193.11
-141.87
-88.73
-35.00
17.98
72.15
128.79
187.08
243.90
295.48
339.36
374.98
403.30
426.14
451.97
486.92
530.99
577.54
617.62
644.99
658.03
658.72
650.76
648.23
661.30
691.04
729.33
765.82
795.04
817.61
837.62
859.28
898.43
965.23
1058.20
1164.18
1266.66
1354.58
1423.92
1475.32
1424.62
1224.69
889.05
491.55
116.11
-187.81
-409.27
-559.53
-656.86
-718.91
-747.05
-741.37
-707.58
-658.64
-610.71
-574.00
-551.38
-540.76
-538.52
-532.87
-515.10
-484.30
-447.92
-416.74
-398.68
-397.47
-409.12
-429.55
-451.81
-471.12
-487.19
-504.21
-527.86
-561.85
-607.18
-663.21
-706.76
-718.57
-691.37
-631.06
-548.91
-454.64
-355.32
-257.75
-169.44
-97.31
-46.68
-17.52
-4.72
-0.77
0.28
0.58
0.93
1.42
2.45
2.45
0.22
-4.30
-10.24
-17.01
-24.74
-33.40
-42.29
-49.87
-55.78
-59.31
-60.44
-57.92
-51.22
-41.15
-29.20
-16.69
-4.31
6.87
15.92
25.43
38.44
56.34
77.89
100.10
120.03
135.76
146.14
150.84
155.45
166.01
186.05
214.87
248.67
283.36
316.27
346.33
373.61
405.58
449.54
508.99
581.79
662.24
745.68
830.56
917.00
962.60
934.19
819.34
635.61
418.64
202.39
10.76
-142.99
-255.46
-331.39
-374.51
-390.96
-388.48
-376.17
-363.43
-358.08
-364.40
-383.49
-412.61
-440.65
-455.34
-448.33
-414.47
-361.75
-304.21
-254.77
-221.30
-204.19
-195.67
-186.55
-171.84
-151.69
-130.14
-110.64
-93.80
-78.73
-63.04
-43.82
-19.97
7.81
38.02
69.35
98.82
125.77
149.68
171.94
194.67
219.09
244.37
267.55
283.88
288.93
280.99
251.17
200.80
141.15
87.38
49.35
27.93
17.58
11.68
6.22
-1.74
-12.17
-23.55
-34.43
-44.52
-54.67
-66.23
-80.60
-99.31
-124.12
-156.54
-197.24
-245.45
-298.84
-352.83
-400.32
-433.34
-430.57
-383.57
-301.75
-208.05
-124.77
-63.59
-24.78
-2.04
12.06
22.84
30.30
33.72
34.15
35.11
39.82
49.05
62.13
77.39
92.88
105.55
114.29
120.96
129.99
144.40
163.32
181.78
193.18
191.60
172.88
137.47
88.29
34.41
-15.12
-54.80
-83.58
-102.55
-113.64
-120.07
-124.33
-127.59
-128.34
-124.56
-113.95
-93.56
-58.86
-6.02
63.37
142.79
221.94
290.71
340.08
364.62
355.70
314.58
254.75
193.33
148.32
119.86
101.58
84.97
62.19
28.68
-16.03
-69.15
-130.16
-198.04
-260.89
-300.35
-300.59
-257.30
-180.40
-98.77
-24.75
33.46
72.21
92.70
101.71
105.43
108.16
111.45
115.08
119.83
124.56
128.91
133.33
137.70
139.67
135.25
120.69
93.94
57.43
14.45
-30.30
-71.93
-106.62
-132.43
-148.75
-155.74
-155.55
-149.57
-140.05
-128.89
-117.85
-109.10
-104.93
-106.76
-114.42
-128.58
-147.52
-168.28
-187.18
-201.66
-211.53
-218.42
-224.18
-229.83
-238.73
-252.28
-269.70
-287.93
-303.47
-314.06
-318.89
-318.06
-290.51
-226.42
-131.11
-23.68
75.97
156.80
216.92
259.36
288.52
308.39
318.25
318.41
310.35
297.70
284.68
274.26
267.80
265.42
266.54
267.45
266.23
262.32
257.19
252.94
250.84
251.20
253.65
257.52
260.38
260.27
256.22
248.69
238.76
227.27
214.41
200.26
185.16
168.85
151.29
132.56
113.11
93.39
73.56
53.29
32.32
10.81
-10.91
-32.30
-52.93
-72.63
-92.09
-113.09
-138.86
-171.79
-211.46
-253.76
-291.93
-318.96
-330.35
-325.71
-308.53
-286.44
-265.84
-249.28
-235.87
-223.81
-212.27
-201.00
-188.94
-173.38
-155.29
-135.98
-116.93
-100.33
-89.66
-88.16
-96.36
-111.07
-126.97
-146.50
-172.72
-206.15
-243.60
-280.48
-312.60
-336.36
-349.18
-350.58
-352.27
-365.72
-396.17
-441.28
-495.43
-553.86
-613.92
-674.93
-680.91
-604.22
-458.25
-286.83
-127.95
3.96
110.40
196.59
265.82
319.12
347.95
348.29
325.30
291.39
258.72
233.86
217.90
208.45
204.22
197.08
181.54
157.82
131.04
106.52
86.71
71.46
60.19
52.43
43.54
30.49
13.83
-2.85
-15.63
-21.98
-23.73
-22.06
-17.63
-13.04
-9.98
-8.45
-7.14
-4.86
-1.45
2.53
6.80
11.37
15.66
19.52
23.36
27.88
33.45
39.81
46.22
52.42
58.43
64.66
71.81
80.61
91.46
104.24
118.34
132.86
147.14
160.84
174.01
187.15
201.14
217.19
236.53
259.80
286.27
313.37
336.82
351.62
353.80
341.98
317.95
286.06
251.45
218.33
188.79
162.85
139.27
116.71
94.49
72.67
51.73
32.05
13.74
-3.37
-19.51
-34.97
-50.08
-65.28
-81.15
-98.04
-115.45
-131.60
-143.49
-147.60
-141.21
-123.62
-96.63
-64.06
-30.47
0.28
25.96
46.13
61.44
72.83
80.88
85.60
86.79
84.36
78.68
70.56
61.05
51.15
41.59
32.67
24.35
16.37
8.40
0.16
-8.50
-17.65
-27.30
-37.28
-47.36
-57.27
-66.82
-76.15
-85.81
-96.65
-109.44
-124.22
-139.72
-153.18
-160.96
-159.53
-146.84
-123.12
-90.84
-53.89
-16.23
19.12
50.50
77.34
99.43
116.42
127.75
133.00
132.44
127.20
119.06
109.90
101.02
92.91
85.30
77.66
69.68
61.56
53.95
47.54
42.66
39.01
35.72
31.67
25.85
17.75
7.43
-4.45
-16.94
-28.99
-39.86
-49.25
-57.47
-65.36
-74.08
-84.90
-98.67
-115.29
-133.24
-149.49
-159.99
-160.82
-149.51
-126.04
-92.93
-54.41
-15.06
21.52
53.34
79.79
101.01
117.22
128.45
134.66
136.11
133.52
127.97
120.58
112.20
103.21
93.65
83.47
72.87
62.45
53.08
45.53
40.09
36.24
32.72
28.02
20.95
11.20
-0.53
-12.86
-24.31
-33.92
-41.58
-48.02
-54.52
-62.46
-72.92
-86.13
-101.13
-115.57
-126.04
-128.95
-121.73
-103.85
-77.25
-45.71
-13.62
15.42
39.39
57.83
71.21
80.12
84.87
85.64
82.78
77.13
69.87
62.11
54.53
47.21
39.86
32.20
24.39
17.02
10.85
6.41
3.57
1.51
-1.02
-5.17
-11.54
-19.90
-29.38
-38.82
-47.27
-54.36
-60.42
-66.41
-73.60
-83.22
-95.82
-110.86
-126.26
-138.68
-144.24
-139.77
-124.02
-98.23
-65.82
-31.24
1.44
29.60
52.29
69.81
82.85
91.88
97.11
98.65
96.90
92.66
86.90
80.46
73.78
66.88
59.55
51.69
43.49
35.48
28.30
22.39
17.67
13.50
8.84
2.67
-5.54
-15.59
-26.61
-37.39
-46.89
-54.74
-61.31
-67.59
-74.84
-84.19
-96.12
-110.13
-124.43
-136.12
-141.71
-138.22
-124.24
-100.59
-70.08
-36.67
-4.08
25.13
49.86
70.14
86.39
98.80
107.25
111.56
111.83
108.66
103.03
95.97
88.31
80.40
72.27
63.87
55.31
47.03
39.69
33.86
29.59
26.31
22.81
17.78
10.33
0.38
-11.23
-23.17
-34.07
-43.15
-50.39
-56.50
-62.66
-70.09
-79.80
-92.24
-106.92
-122.11
-134.89
-141.72
-139.48
-126.56
-103.65
-73.50
-40.08
-7.23
22.41
47.70
68.64
85.66
98.99
108.49
113.86
115.08
112.66
107.59
101.00
93.81
86.46
78.93
70.98
62.53
53.89
45.75
38.91
33.86
30.45
27.83
24.73
19.92
12.70
3.16
-7.84
-18.98
-29.07
-37.37
-43.91
-49.39
-54.93
-61.73
-70.81
-82.63
-96.74
-111.51
-124.11
-131.08
-129.27
-117.03
-95.01
-66.04
-34.29
-3.84
22.51
43.69
60.02
72.30
81.10
86.46
88.13
86.07
80.80
73.42
65.23
57.25
49.95
43.24
36.74
30.16
23.55
17.33
12.04
7.99
4.99
2.24
-1.40
-7.02
-15.13
-25.42
-36.82
-47.88
-57.36
-64.68
-70.12
-74.67
-79.71
-86.64
-96.41
-109.25
-124.23
-139.16
-150.73
-155.25
-149.80
-133.25
-106.91
-74.16
-39.43
-6.77
21.19
43.63
61.05
74.52
84.84
92.22
96.45
97.30
94.90
89.86
83.20
75.96
68.95
62.54
56.76
51.42
46.32
41.39
36.69
32.31
28.23
24.22
19.87
14.63
8.03
-0.12
-9.65
-20.02
-30.47
-40.29
-49.05
-56.76
-63.82
-70.94
-78.90
-88.49
-100.27
-114.38
-130.14
-145.75
-158.24
-164.10
-160.25
-145.22
-119.88
-87.30
-51.77
-17.38
13.07
38.55
59.35
76.34
90.17
100.99
108.64
112.90
113.79
111.67
107.13
100.91
93.80
86.60
79.93
74.17
69.36
65.23
61.40
57.54
53.45
49.07
44.33
39.09
33.09
26.08
17.91
8.72
-1.13
-11.11
-20.72
-29.65
-37.86
-45.58
-53.22
-61.34
-70.56
-81.53
-94.68
-109.75
-125.34
-138.75
-146.43
-145.00
-132.56
-109.55
-78.78
-44.50
-10.97
18.71
43.26
62.82
78.28
90.40
99.47
105.33
107.71
106.60
102.42
96.00
88.39
80.60
73.40
67.14
61.74
56.85
52.10
47.28
42.49
37.94
33.78
29.85
25.63
20.42
13.67
5.23
-4.56
-14.91
-24.99
-34.17
-42.21
-49.36
-56.13
-63.24
-71.46
-81.45
-93.63
-107.76
-122.60
-135.71
-143.79
-143.49
-132.57
-110.93
-80.88
-46.56
-12.59
17.37
41.46
59.70
73.23
83.34
90.72
95.33
96.77
94.86
89.97
83.09
75.53
68.43
62.47
57.69
53.63
49.70
45.46
40.81
35.97
31.33
27.03
22.91
18.42
12.89
5.80
-2.93
-12.92
-23.39
-33.50
-42.69
-50.82
-58.22
-65.45
-73.15
-81.89
-92.20
-104.41
-118.42
-133.28
-146.80
-155.72
-156.48
-146.52
-125.38
-95.21
-60.07
-24.64
7.33
33.85
54.76
71.02
83.77
93.73
100.97
105.29
106.47
104.69
100.46
94.58
87.90
81.15
74.85
69.27
64.49
60.37
56.66
53.03
49.15
44.78
39.81
34.27
28.22
21.63
14.35
6.21
-2.79
-12.43
-22.22
-31.61
-40.26
-48.14
-55.53
-62.95
-70.99
-80.26
-91.36
-104.60
-119.61
-134.84
-147.44
-153.72
-150.28
-135.32
-109.53
-75.96
-39.09
-3.28
28.37
54.59
75.48
91.87
104.56
114.02
120.43
123.92
124.68
123.04
119.33
113.88
106.97
98.99
90.47
82.13
74.72
68.80
64.53
61.52
58.95
55.80
51.21
44.81
36.81
27.90
18.94
10.55
2.92
-4.30
-11.77
-20.12
-29.65
-40.07
-50.66
-60.60
-69.37
-77.10
-84.58
-93.01
-103.63
-117.04
-132.65
-148.38
-160.79
-165.89
-160.39
-143.00
-115.01
-80.05
-42.82
-7.66
22.68
47.31
66.68
81.79
93.38
101.80
107.16
109.62
109.52
107.31
103.38
97.97
91.30
83.71
75.83
68.49
62.52
58.34
55.80
54.15
52.28
49.21
44.36
37.83
30.21
22.34
14.84
7.93
1.31
-5.61
-13.41
-22.30
-32.05
-42.02
-51.51
-60.03
-67.54
-74.49
-81.76
-90.39
-101.25
-114.56
-129.39
-143.37
-152.97
-154.30
-144.57
-123.24
-92.52
-56.81
-21.21
10.13
35.13
53.80
67.49
77.67
85.24
90.32
92.58
91.87
88.51
83.26
77.11
70.92
65.24
60.22
55.85
51.94
48.33
44.88
41.42
37.78
33.74
29.09
23.73
17.63
10.84
3.44
-4.52
-13.03
-22.02
-31.32
-40.68
-49.78
-58.36
-66.30
-73.71
-80.95
-88.64
-97.59
-108.57
-121.82
-136.49
-150.23
-159.42
-160.08
-149.31
-126.58
-94.16
-56.55
-18.93
14.51
41.60
62.27
77.76
89.54
98.55
105.02
108.81
109.81
108.20
104.42
99.07
92.66
85.64
78.40
71.37
64.92
59.35
54.74
50.92
47.50
44.02
40.05
35.29
29.63
23.08
15.75
7.72
-0.97
-10.22
-19.90
-29.79
-39.62
-49.13
-58.22
-66.93
-75.57
-84.66
-94.84
-106.72
-120.39
-134.88
-147.91
-156.12
-155.93
-144.86
-122.58
-91.21
-54.81
-17.89
15.95
44.80
68.44
87.56
102.97
115.08
123.89
129.32
131.51
130.93
128.21
123.92
118.41
111.88
104.56
96.84
89.32
82.67
77.30
73.16
69.70
66.06
61.41
55.29
47.80
39.42
30.72
22.02
13.21
3.95
-6.06
-16.81
-27.86
-38.53
-48.16
-56.52
-63.88
-71.03
-79.08
-89.15
-101.91
-117.04
-132.82
-146.00
-152.57
-148.91
-133.24
-106.54
-72.36
-35.70
-1.27
27.90
50.91
68.52
82.05
92.46
99.97
104.31
105.25
102.97
98.18
91.81
84.72
77.45
70.23
63.11
56.13
49.44
43.27
37.89
33.44
29.82
26.66
23.29
18.90
12.80
4.60
-5.55
-16.90
-28.37
-38.87
-47.68
-54.76
-60.69
-66.47
-73.20
-81.80
-92.85
-106.38
-121.58
-136.51
-148.13
-152.87
-147.69
-131.32
-104.97
-72.20
-37.71
-5.83
20.75
41.41
56.94
68.61
77.19
82.77
85.07
84.03
80.23
74.77
68.94
63.64
59.17
55.29
51.53
47.50
43.18
38.87
35.01
31.90
29.48
27.24
24.40
20.08
13.66
5.00
-5.46
-16.84
-28.07
-38.30
-47.09
-54.53
-61.23
-68.18
-76.49
-87.17
-100.62
-116.20
-131.81
-144.13
-149.27
-144.12
-127.51
-100.84
-67.72
-32.72
0.13
28.33
51.19
69.16
83.01
93.12
99.47
101.94
100.78
96.80
91.19
85.07
79.14
73.58
68.13
62.45
56.40
50.25
44.54
39.86
36.42
33.85
31.14
26.93
20.10
10.18
-2.29
-16.04
-29.39
-40.98
-50.18
-57.25
-63.30
-69.89
-78.64
-90.70
-106.21
-123.85
-140.69
-152.68
-155.74
-147.09
-126.50
-96.42
-61.25
-25.81
6.21
33.00
54.55
71.80
85.64
96.41
103.93
107.96
108.62
106.54
102.63
97.67
92.05
85.74
78.56
70.49
61.87
53.45
46.07
40.37
36.50
33.90
31.42
27.64
21.35
11.97
-0.14
-13.79
-27.34
-39.33
-48.98
-56.52
-63.08
-70.23
-79.58
-92.22
-108.26
-126.54
-144.42
-158.08
-163.36
-157.02
-137.97
-107.98
-71.20
-32.90
2.28
31.62
54.67
72.56
86.83
98.52
107.81
114.28
117.53
117.56
114.85
110.14
104.12
97.21
89.58
81.30
72.56
63.76
55.48
48.30
42.57
38.20
34.65
31.03
26.32
19.67
10.74
-0.28
-12.63
-25.25
-37.13
-47.63
-56.61
-64.59
-72.45
-81.31
-92.21
-105.78
-121.80
-138.80
-153.89
-163.19
-162.78
-150.18
-125.44
-91.38
-52.80
-14.85
18.61
45.81
67.00
83.48
96.59
107.03
114.84
119.75
121.55
120.34
116.50
110.57
103.17
94.95
86.57
78.63
71.56
65.54
60.40
55.75
51.06
45.82
39.74
32.77
25.04
16.75
7.97
-1.38
-11.41
-22.13
-33.25
-44.20
-54.40
-63.45
-71.42
-78.79
-86.36
-95.06
-105.72
-118.80
-133.93
-149.53
-162.60
-169.21
-165.56
-149.45
-121.30
-84.32
-43.48
-3.90
30.69
58.70
80.34
96.79
109.23
118.35
124.40
127.47
127.78
125.67
121.53
115.69
108.47
100.22
91.50
83.01
75.47
69.37
64.80
61.33
58.18
54.45
49.42
42.87
35.06
26.54
17.85
9.22
0.48
-8.77
-18.82
-29.64
-40.77
-51.47
-61.08
-69.32
-76.47
-83.33
-91.12
-101.04
-113.83
-129.07
-144.82
-157.60
-163.13
-157.73
-139.69
-110.14
-72.81
-32.88
4.77
36.85
62.26
81.57
96.13
107.11
115.09
120.06
121.87
120.57
116.49
110.24
102.50
93.88
84.89
76.01
67.75
60.56
54.78
50.41
47.01
43.88
40.23
35.51
29.59
22.69
15.23
7.50
-0.47
-8.81
-17.71
-27.15
-36.87
-46.40
-55.26
-63.22
-70.33
-77.08
-84.27
-92.97
-104.08
-117.79
-132.93
-146.61
-154.68
-152.90
-138.58
-111.92
-76.26
-37.04
0.04
30.92
54.08
70.32
81.55
89.50
94.95
97.81
97.71
94.60
89.03
81.99
74.49
67.22
60.44
54.12
48.07
42.17
36.43
30.96
25.93
21.42
17.42
13.73
9.99
5.76
0.65
-5.52
-12.63
-20.28
-27.94
-35.09
-41.43
-46.95
-51.96
-57.02
-62.91
-70.58
-80.94
-94.56
-111.05
-128.51
-143.41
-151.25
-147.92
-131.30
-102.28
-64.74
-24.27
13.66
45.29
69.29
86.27
97.72
105.02
108.93
109.73
107.60
102.97
96.51
88.94
80.85
72.60
64.43
56.60
49.47
43.35
38.42
34.53
31.24
27.93
24.06
19.34
13.75
7.47
0.61
-6.81
-14.86
-23.58
-32.80
-42.23
-51.42
-60.03
-67.86
-74.95
-81.50
-87.96
-95.00
-103.52
-114.30
-127.36
-141.29
-153.05
-158.46
-153.60
-136.32
-107.39
-70.45
-30.84
6.25
37.30
61.21
78.79
91.74
101.52
108.78
113.50
115.37
114.32
110.63
104.88
97.73
89.83
81.72
73.87
66.72
60.52
55.38
51.13
47.44
43.92
40.20
35.99
31.04
25.09
17.86
9.09
-1.29
-13.07
-25.67
-38.30
-50.16
-60.72
-69.88
-78.03
-85.88
-94.27
-104.02
-115.63
-128.92
-142.66
-154.27
-160.20
-156.88
-142.06
-115.99
-81.69
-44.13
-8.52
21.31
43.85
59.77
70.79
78.48
83.56
85.90
85.19
81.56
75.86
69.44
63.57
58.99
55.69
53.01
50.13
46.43
41.76
36.41
30.87
25.53
20.49
15.43
9.79
2.91
-5.60
-15.74
-26.99
-38.45
-49.15
-58.36
-65.88
-72.04
-77.60
-83.45
-90.53
-99.62
-111.20
-125.00
-139.64
-152.37
-159.40
-156.98
-142.73
-116.82
-82.09
-43.25
-5.25
28.25
55.64
77.18
94.07
107.41
117.70
124.86
128.62
128.95
126.25
121.24
114.78
107.61
100.32
93.28
86.71
80.68
75.13
69.93
64.88
59.78
54.40
48.53
41.95
34.41
25.72
15.81
4.84
-6.85
-18.72
-30.31
-41.26
-51.51
-61.24
-70.77
-80.58
-91.25
-103.47
-117.78
-134.20
-151.54
-167.11
-177.07
-177.46
-165.68
-141.63
-107.96
-69.21
-30.27
5.13
35.09
59.50
79.11
94.78
106.99
115.95
121.82
124.93
125.81
124.95
122.66
119.06
114.22
108.40
102.10
96.03
90.79
86.63
83.26
79.94
75.76
70.06
62.60
53.70
43.98
34.05
24.25
14.55
4.69
-5.61
-16.39
-27.39
-38.21
-48.43
-57.87
-66.64
-75.24
-84.42
-95.12
-108.14
-123.54
-140.12
-155.14
-164.67
-164.70
-152.58
-128.18
-94.20
-55.33
-16.67
17.84
46.25
68.55
85.79
99.17
109.40
116.60
120.67
121.58
119.61
115.29
109.29
102.25
94.74
87.26
80.26
74.09
68.89
64.55
60.67
56.71
52.15
46.69
40.35
33.38
26.07
18.58
10.81
2.52
-6.55
-16.41
-26.79
-37.16
-46.94
-55.70
-63.36
-70.25
-77.21
-85.34
-95.80
-109.20
-124.95
-140.83
-153.08
-157.35
-150.15
-130.31
-99.66
-62.54
-24.37
10.17
38.40
59.89
75.75
87.51
96.15
101.90
104.47
103.66
99.67
93.22
85.32
76.97
68.96
61.74
55.49
50.13
45.44
41.13
36.92
32.60
28.09
23.35
18.30
12.74
6.32
-1.33
-10.39
-20.68
-31.62
-42.43
-52.38
-61.12
-68.76
-75.79
-82.87
-90.72
-100.00
-111.29
-124.82
-139.97
-154.82
-166.01
-169.46
-161.69
-141.34
-109.98
-71.81
-32.23
3.99
34.04
57.41
75.20
88.98
99.85
108.17
113.77
116.42
116.18
113.42
108.68
102.47
95.24
87.40
79.47
72.04
65.62
60.49
56.52
53.19
49.73
45.45
39.98
33.32
25.78
17.75
9.48
0.95
-8.05
-17.70
-27.97
-38.55
-48.93
-58.63
-67.42
-75.44
-83.27
-91.77
-101.90
-114.41
-129.38
-145.65
-160.59
-170.36
-170.96
-159.55
-135.75
-101.99
-62.75
-23.07
13.05
43.56
68.26
88.03
103.83
116.22
125.32
131.10
133.71
133.51
130.92
126.27
119.78
111.75
102.68
93.41
84.89
77.92
72.80
69.20
66.28
62.98
58.47
52.47
45.31
37.62
30.04
22.79
15.59
7.85
-1.00
-11.10
-22.11
-33.29
-43.87
-53.30
-61.54
-69.07
-76.82
-86.00
-97.65
-112.15
-128.48
-143.94
-154.44
-155.62
-144.45
-120.62
-86.87
-48.23
-10.19
23.00
49.44
69.38
84.29
95.66
104.19
109.82
112.15
110.96
106.58
99.81
91.64
83.00
74.54
66.65
59.52
53.19
47.68
42.90
38.64
34.64
30.56
26.16
21.25
15.76
9.60
2.65
-5.24
-14.17
-24.01
-34.40
-44.82
-54.80
-64.01
-72.49
-80.55
-88.79
-98.07
-109.28
-123.04
-139.04
-155.53
-169.24
-175.96
-171.89
-155.19
-126.97
-91.15
-53.25
-18.64
9.03
28.49
40.54
47.09
50.23
51.54
51.96
51.92
51.55
50.67
48.73
44.82
37.95
27.53
13.79
-1.89
-17.47
-30.95
-41.15
-48.20
-53.43
-58.85
-66.51
-77.96
-94.04
-114.74
-139.34
-166.61
-195.30
-224.58
-254.51
-285.76
-318.64
-352.17
-383.59
-408.74
-423.48
-425.36
-414.63
-394.17
-368.13
-340.06
-311.96
-284.17
-256.17
-227.41
-197.77
-167.42
-136.29
-103.64
-67.39
-25.14
24.96
83.08
147.21
213.13
275.34
328.43
368.71
396.59
414.83
426.94
435.27
440.43
441.93
439.30
432.93
424.15
417.59
416.68
422.25
431.92
441.70
448.33
450.32
447.60
440.67
434.53
432.96
437.36
445.69
453.98
458.60
457.75
451.41
441.06
435.11
440.94
462.23
496.61
537.33
577.12
611.10
637.56
620.06
537.74
390.80
204.51
14.54
-152.01
-284.00
-382.45
-453.91
-505.83
-536.28
-547.41
-542.33
-527.23
-510.23
-498.55
-496.81
-507.42
-531.38
-564.30
-598.74
-627.51
-645.11
-647.73
-633.19
-601.74
-556.98
-505.28
-450.83
-396.74
-344.40
-294.53
-247.84
-205.02
-166.46
-132.06
-100.93
-70.18
-37.72
-3.95
27.23
49.62
57.56
49.22
28.08
2.30
-17.64
-23.28
-11.25
16.13
52.60
91.19
126.94
158.00
185.10
210.30
235.87
263.61
294.75
329.48
366.46
402.31
431.96
449.76
451.19
434.25
400.09
352.61
297.24
239.58
184.19
133.79
89.00
48.58
10.26
-28.06
-67.20
-105.90
-141.00
-168.48
-185.07
-189.63
-183.85
-171.96
-159.57
-152.25
-154.08
-166.41
-187.22
-211.15
-230.50
-237.16
-225.04
-192.28
-142.40
-83.53
-26.00
20.96
52.14
67.53
71.46
70.34
69.84
73.10
80.23
88.98
96.00
97.93
91.99
76.55
51.93
21.15
-9.92
-33.98
-44.95
-40.78
-24.70
-4.07
12.84
20.59
18.79
11.51
4.55
2.01
4.33
8.62
10.76
7.62
-1.79
-16.82
-36.50
-60.36
-88.14
-118.40
-147.36
-168.77
-175.65
-163.03
-130.47
-82.74
-28.29
23.84
67.22
99.32
121.11
135.13
143.67
147.86
148.01
144.59
138.60
131.62
124.89
118.37
110.69
99.93
84.93
66.32
46.77
29.32
16.56
9.18
5.84
4.15
1.87
-2.50
-9.99
-21.60
-38.90
-62.56
-91.51
-122.94
-153.17
-179.42
-201.20
-219.97
-237.05
-251.91
-260.23
-256.04
-235.45
-199.87
-156.49
-115.60
-85.89
-65.67
-50.39
-32.65
-6.77
27.44
64.72
98.14
123.31
140.17
151.97
161.86
171.78
181.25
188.44
191.43
189.88
185.17
179.79
176.00
174.37
174.69
175.00
173.51
168.99
161.82
153.72
146.97
143.39
143.45
146.62
151.69
157.62
163.49
169.34
175.84
183.40
191.59
198.64
201.79
197.58
186.88
169.86
147.52
121.32
92.43
61.28
27.34
-10.27
-52.09
-97.48
-145.11
-192.75
-238.10
-279.77
-317.83
-353.59
-389.20
-427.06
-469.38
-518.11
-573.43
-632.59
-689.43
-735.34
-761.60
-762.48
-737.31
-690.64
-630.60
-565.37
-500.65
-438.89
-380.38
-325.12
-273.88
-227.96
-187.96
-153.11
-120.95
-88.39
-53.20
-15.17
24.01
61.47
94.99
124.12
149.97
175.25
203.97
240.81
289.70
352.00
425.02
501.77
572.19
624.98
651.87
651.25
628.91
594.99
559.27
527.45
500.42
475.64
448.25
414.57
374.41
331.17
288.93
249.86
213.35
177.22
139.21
95.72
43.60
-18.78
-90.85
-170.71
-255.81
-342.16
-423.50
-478.90
-488.43
-447.80
-374.31
-294.32
-227.36
-180.55
-151.46
-133.60
-121.05
-112.79
-110.39
-114.62
-122.91
-130.55
-133.46
-129.97
-120.81
-108.18
-97.13
-90.32
-88.01
-87.85
-86.52
-81.74
-73.19
-62.11
-50.57
-41.68
-36.64
-34.99
-34.94
-34.43
-32.12
-27.50
-20.47
-10.88
1.51
16.40
34.80
57.60
84.73
115.14
147.48
180.48
213.09
244.13
275.27
307.64
340.83
372.45
399.14
417.95
427.00
425.50
395.81
330.16
232.38
116.82
0.45
-104.36
-191.88
-261.30
-314.34
-353.60
-378.77
-391.06
-392.15
-385.09
-373.43
-359.95
-346.26
-332.85
-319.46
-303.03
-283.02
-259.81
-235.34
-212.09
-191.96
-175.84
-163.76
-155.22
-148.23
-141.30
-133.59
-125.40
-117.61
-110.94
-105.68
-101.72
-98.77
-95.86
-92.40
-88.06
-83.15
-78.25
-73.85
-70.19
-67.34
-65.24
-63.64
-62.37
-61.22
-60.08
-58.71
-56.65
-53.24
-47.69
-39.33
-27.75
-12.90
5.04
25.63
48.40
72.96
99.05
126.45
154.81
183.43
211.18
236.61
258.27
275.11
286.87
294.20
298.43
301.07
303.10
304.52
304.38
301.18
293.93
283.12
271.19
262.01
259.40
264.98
276.85
289.67
296.39
291.03
271.13
238.55
198.40
157.30
121.43
95.42
81.66
79.55
84.56
88.06
79.00
47.81
-8.89
-85.38
-167.70
-238.65
-284.33
-298.98
-285.80
-253.61
-211.83
-166.64
-120.03
-71.49
-20.41
32.16
83.59
130.80
171.43
204.68
230.90
250.79
264.67
272.23
272.51
264.82
249.42
228.05
203.77
180.06
159.54
143.05
129.43
116.31
101.52
84.37
66.34
50.75
41.77
42.80
55.01
76.62
103.15
128.95
149.15
161.33
166.16
166.53
165.82
166.17
167.61
168.63
167.17
161.60
150.93
134.34
110.59
78.05
35.43
-17.03
-76.88
-139.96
-201.59
-257.95
-306.67
-346.66
-377.22
-397.56
-406.82
-404.60
-392.04
-371.96
-348.01
-323.15
-298.38
-272.53
-243.31
-208.76
-167.80
-121.44
-72.14
-22.47
25.87
72.32
116.53
156.82
190.33
214.95
229.11
233.03
228.94
220.42
210.96
202.66
195.11
187.28
180.70
177.48
179.85
188.95
204.06
222.92
242.65
259.85
273.53
287.24
304.60
327.80
356.55
388.59
421.47
454.03
485.39
495.26
469.49
402.11
299.97
179.83
60.36
-44.18
-119.10
-168.88
-200.45
-217.82
-225.06
-226.18
-225.30
-225.67
-229.61
-238.43
-254.15
-276.85
-303.96
-333.26
-363.52
-395.02
-429.76
-469.06
-511.36
-552.23
-583.40
-595.73
-584.69
-552.38
-506.72
-458.81
-417.13
-384.32
-357.74
-331.41
-300.13
-262.83
-222.09
-182.01
-147.25
-120.45
-102.32
-92.90
-91.98
-99.61
-115.95
-139.79
-158.23
-159.31
-135.68
-88.63
-26.96
38.22
97.45
144.60
177.01
194.79
199.29
193.82
182.64
169.70
157.86
147.43
136.66
123.00
103.87
76.82
41.36
-0.36
-43.13
-79.47
-102.04
-106.66
-91.10
-61.49
-30.67
-12.64
-16.40
-41.71
-79.46
-116.48
-141.63
-150.16
-144.57
-131.38
-116.73
-103.96
-93.79
-86.24
-82.21
-83.33
-90.47
-102.49
-115.62
-124.83
-126.23
-119.01
-105.74
-91.14
-79.93
-74.78
-75.81
-80.43
-84.49
-83.61
-74.47
-55.87
-29.50
-0.04
25.68
40.74
40.74
25.91
1.33
-24.77
-44.19
-51.66
-46.33
-31.04
-10.18
12.67
36.03
60.19
85.80
112.52
138.43
160.66
176.57
184.91
186.20
182.21
174.95
165.86
155.57
144.54
133.86
125.59
122.36
126.29
137.81
155.35
175.73
195.33
211.22
221.71
226.37
225.59
220.19
211.12
199.52
186.64
173.80
162.17
152.57
145.52
141.17
139.23
138.94
139.18
138.62
136.16
131.28
124.31
116.42
109.19
103.82
100.71
99.55
99.58
100.37
102.32
106.58
114.89
128.61
147.83
171.21
196.58
221.36
243.01
259.41
268.43
269.01
260.84
244.38
220.93
193.12
163.77
134.80
