1660752143.00
64.000000
-0.00
-0.00
-0.00
-0.00
-0.00
-0.00
-0.00
-0.00
-0.00
-0.00
0.00
0.01
0.01
-0.00
-0.03
-0.05
-0.05
0.00
0.13
0.36
0.66
1.01
1.37
1.72
2.06
2.40
2.79
3.24
3.80
4.42
5.06
5.66
6.20
6.68
7.15
7.68
8.31
9.14
10.09
11.04
11.88
12.56
13.14
13.76
14.65
15.96
17.91
20.32
22.90
25.38
27.58
29.57
31.68
34.32
37.81
42.54
48.15
54.10
59.83
64.97
69.58
74.14
79.34
85.71
93.76
103.00
112.62
121.73
129.77
136.75
143.30
150.75
157.77
166.64
177.95
191.79
206.97
220.57
228.25
225.36
208.53
176.87
132.76
80.05
23.07
-34.94
-92.44
-149.16
-205.23
-260.37
-313.74
-363.87
-409.83
-450.91
-486.50
-515.74
-537.23
-549.22
-549.96
-538.37
-514.21
-478.68
-433.88
-382.45
-327.00
-269.81
-212.60
-156.65
-103.01
-52.52
-6.15
35.25
71.05
100.96
125.13
144.03
158.34
168.74
175.85
180.11
181.84
181.30
178.76
174.55
169.02
162.51
155.33
147.76
139.98
132.16
124.41
116.79
109.28
101.83
94.37
86.85
79.35
72.04
65.14
58.86
53.24
48.14
43.26
38.30
33.08
27.65
22.33
17.56
13.70
10.81
8.62
6.59
4.15
0.98
-2.81
-6.70
-10.00
-12.19
-13.15
-13.22
-13.08
-13.45
-14.81
-17.39
-21.11
-25.51
-29.61
-31.98
-30.93
-25.18
-14.62
-0.61
14.17
26.67
34.64
37.51
36.54
34.00
31.97
31.41
31.95
32.37
31.56
29.19
25.79
22.33
19.57
17.71
16.34
14.80
12.69
10.10
7.52
5.49
4.30
3.80
3.57
3.16
2.43
1.54
1.00
1.30
2.59
4.45
5.88
5.76
3.35
-1.18
-6.70
-11.50
-13.98
-13.31
-9.75
-4.45
1.09
5.63
8.60
10.09
10.64
10.85
11.13
11.66
12.34
12.96
13.23
12.86
11.70
9.75
7.28
4.75
2.74
1.72
1.92
3.28
5.45
7.98
10.40
12.36
13.62
14.11
13.92
13.23
12.27
11.11
9.71
7.62
4.45
0.02
-5.38
-11.00
-15.74
-18.60
-19.03
-17.16
-13.78
-10.01
-6.91
-5.18
-4.97
-6.00
-7.74
-9.69
-11.59
-13.40
-15.16
-16.88
-18.43
-19.57
-20.09
-19.96
-19.34
-18.49
-17.68
-16.95
-16.15
-15.07
-13.55
-11.71
-9.88
-8.50
-7.86
-7.95
-8.38
-8.61
-8.14
-6.72
-4.51
-1.92
0.48
2.31
3.39
3.91
4.15
4.38
4.76
5.34
6.15
7.24
8.66
10.40
12.40
14.38
15.96
16.88
17.07
16.74
16.31
16.31
16.64
17.37
18.42
19.55
20.45
20.85
20.55
19.52
17.88
15.76
13.33
10.66
7.75
4.59
1.28
-2.04
-5.21
-8.13
-10.82
-13.33
-15.74
-18.10
-20.41
-22.65
-24.79
-26.80
-28.57
-29.95
-30.75
-30.84
-30.31
-29.39
-28.43
-27.71
-27.38
-27.34
-27.28
-26.72
-25.20
-22.38
-18.15
-12.72
-6.55
-0.24
5.64
10.65
14.64
17.70
19.99
21.75
23.10
24.13
24.86
25.29
25.35
25.00
24.21
23.00
21.45
19.72
17.88
15.93
13.75
11.21
8.27
5.10
1.95
-0.88
-3.27
-5.25
-7.02
-8.80
-10.70
-12.63
-14.43
-15.89
-16.90
-17.46
-17.65
-17.62
-17.51
-17.42
-17.42
-17.47
-17.44
-17.08
-16.08
-14.18
-11.25
-7.36
-2.82
1.88
6.25
9.92
12.74
14.78
16.20
17.19
17.84
18.13
18.02
17.49
16.59
15.46
14.24
13.03
11.87
10.74
9.64
8.57
7.61
6.82
6.20
5.75
5.37
4.94
4.34
3.48
2.38
1.11
-0.21
-1.43
-2.46
-3.28
-3.91
-4.44
-4.93
-5.43
-6.01
-6.73
-7.64
-8.75
-10.01
-11.22
-12.09
-12.35
-11.79
-10.36
-8.19
-5.51
-2.65
0.08
2.41
4.16
5.24
5.68
5.58
5.05
4.28
3.40
2.54
1.79
1.18
0.70
0.29
-0.10
-0.48
-0.79
-0.95
-0.91
-0.65
-0.26
0.10
0.28
0.16
-0.27
-0.91
-1.59
-2.09
-2.28
-2.17
-1.88
-1.66
-1.72
-2.21
-3.11
-4.29
-5.55
-6.64
-7.34
-7.43
-6.76
-5.31
-3.23
-0.83
1.48
3.39
4.74
5.60
6.15
6.57
6.99
7.40
7.76
8.06
8.33
8.63
9.02
9.47
9.88
10.12
10.02
9.55
8.72
7.70
6.67
5.79
5.08
4.42
3.63
2.54
1.13
-0.45
-1.97
-3.26
-4.29
-5.13
-5.96
-6.91
-8.02
-9.28
-10.65
-12.06
-13.39
-14.39
-14.78
-14.26
-12.69
-10.13
-6.90
-3.41
-0.06
2.82
5.06
6.61
7.55
8.04
8.25
8.35
8.42
8.43
8.27
7.86
7.22
6.43
5.66
5.04
4.57
4.24
3.96
3.69
3.42
3.17
2.96
2.79
2.61
2.37
2.00
1.47
0.76
-0.09
-0.99
-1.84
-2.54
-3.11
-3.64
-4.27
-5.12
-6.24
-7.53
-8.84
-9.89
-10.42
-10.20
-9.12
-7.19
-4.57
-1.60
1.29
3.73
5.47
6.44
6.78
6.76
6.64
6.65
6.85
7.17
7.50
7.73
7.83
7.81
7.73
7.62
7.50
7.35
7.18
7.02
6.90
6.82
6.71
6.52
6.23
5.89
5.57
5.32
5.07
4.67
3.96
2.85
1.38
-0.30
-1.97
-3.50
-4.82
-5.98
-7.13
-8.42
-10.01
-11.93
-14.08
-16.17
-17.79
-18.51
-18.01
-16.17
-13.15
-9.33
-5.26
-1.51
1.47
3.48
4.60
5.05
5.17
5.20
5.26
5.36
5.48
5.60
5.80
6.14
6.62
7.11
7.44
7.42
7.03
6.40
5.81
5.49
5.54
5.90
6.34
6.59
6.49
6.02
5.26
4.39
3.52
2.76
2.14
1.69
1.42
1.34
1.43
1.60
1.79
1.91
1.94
1.84
1.58
1.17
0.59
-0.13
-0.91
-1.61
-2.12
-2.35
-2.32
-2.15
-2.07
-2.32
-3.08
-4.41
-6.16
-7.92
-9.17
-9.38
-8.20
-5.60
-1.93
2.19
6.08
9.18
11.19
12.11
12.19
11.78
11.24
10.78
10.45
10.11
9.51
8.42
6.71
4.47
2.00
-0.35
-2.27
-3.68
-4.67
-5.43
-6.14
-6.85
-7.50
-7.97
-8.21
-8.30
-8.37
-8.55
-8.81
-8.97
-8.77
-8.04
-6.84
-5.43
-4.21
-3.49
-3.37
-3.66
-4.03
-4.16
-3.88
-3.22
-2.40
-1.65
-1.19
-1.13
-1.54
-2.40
-3.72
-5.42
-7.34
-9.19
-10.61
-11.26
-10.96
-9.80
-8.09
-6.30
-4.90
-4.15
-4.09
-4.50
-5.06
-5.47
-5.55
-5.27
-4.69
-3.85
-2.75
-1.30
0.57
2.85
5.46
8.22
11.01
13.85
16.92
20.47
24.60
29.15
33.62
37.31
39.56
40.06
38.97
36.82
34.26
31.77
29.45
27.10
24.33
20.93
16.91
12.55
8.21
4.19
0.58
-2.66
-5.57
-8.01
-9.67
-10.12
-9.06
-6.49
-2.76
1.61
6.08
10.30
14.12
17.55
20.51
22.79
24.07
24.14
23.10
21.44
19.95
19.48
20.73
24.19
30.12
38.67
49.84
63.35
78.32
93.15
105.59
113.13
113.64
105.87
89.91
67.31
40.95
14.66
-7.31
-21.24
-24.79
-17.96
-3.46
13.64
26.93
30.47
20.61
-2.86
-36.49
-74.28
-109.65
-137.42
-155.16
-163.35
-164.36
-160.94
-155.06
-147.48
-138.34
-127.84
-116.81
-106.38
-97.40
-89.76
-82.16
-72.65
-59.41
-41.51
-19.38
5.16
29.32
49.89
63.88
69.28
65.64
54.35
38.36
21.32
6.43
-4.54
-11.47
-15.59
-18.53
-21.47
-24.79
-28.18
-31.17
-33.64
-35.85
-38.17
-40.67
-42.85
-43.72
-42.26
-37.90
-30.78
-21.75
-11.98
-2.50
6.04
13.55
20.18
26.06
31.05
34.72
36.54
36.20
33.81
29.94
25.36
20.76
16.59
12.92
9.59
6.35
2.98
-0.58
-4.30
-7.99
-11.42
-14.38
-16.69
-18.39
-19.64
-20.72
-21.85
-23.17
-24.67
-26.20
-27.62
-28.76
-29.51
-29.72
-29.25
-27.86
-25.40
-21.84
-17.29
-12.06
-6.54
-1.11
3.93
8.43
12.37
15.82
18.87
21.58
23.97
26.03
27.76
29.22
30.48
31.64
32.80
34.05
35.46
37.03
38.78
40.67
42.66
44.72
46.81
48.82
50.61
51.92
52.55
52.31
51.16
49.14
46.28
42.51
37.59
31.28
23.47
14.30
4.21
-6.25
-16.57
-26.43
-35.65
-44.15
-51.79
-58.28
-63.29
-66.56
-68.00
-67.78
-66.22
-63.72
-60.63
-57.20
-53.58
-49.82
-45.96
-41.99
-37.93
-33.78
-29.47
-24.88
-19.80
-13.98
-7.16
0.83
10.05
20.49
31.92
43.86
55.50
65.75
73.34
77.24
76.84
72.26
64.26
54.08
43.17
32.84
24.04
17.24
12.44
9.31
7.40
6.38
6.09
6.52
7.52
8.70
9.37
8.77
6.35
2.04
-3.77
-10.41
-17.14
-23.36
-28.60
-32.50
-34.79
-35.32
-34.17
-31.64
-28.22
-24.42
-20.64
-17.10
-13.77
-10.50
-7.07
-3.40
0.47
4.29
7.66
10.13
11.31
10.96
9.05
5.82
1.66
-2.86
-7.17
-10.77
-13.34
-14.79
-15.29
-15.14
-14.71
-14.31
-14.13
-14.31
-14.81
-15.53
-16.24
-16.72
-16.76
-16.32
-15.50
-14.45
-13.30
-12.11
-10.86
-9.57
-8.36
-7.39
-6.71
-6.19
-5.49
-4.22
-2.14
0.70
3.96
7.18
9.99
12.25
14.01
15.42
16.56
17.40
17.84
17.78
17.19
16.19
14.97
13.78
12.81
12.16
11.77
11.50
11.19
10.77
10.27
9.87
9.72
9.90
10.28
10.59
10.54
9.90
8.65
6.93
4.99
3.13
1.54
0.27
-0.75
-1.71
-2.79
-4.08
-5.57
-7.20
-8.82
-10.28
-11.38
-11.88
-11.48
-9.94
-7.21
-3.48
0.79
5.01
8.62
11.25
12.83
13.51
13.62
13.48
13.35
13.30
13.29
13.18
12.90
12.42
11.85
11.29
10.77
10.23
9.55
8.65
7.61
6.60
5.84
5.42
5.25
5.09
4.70
3.93
2.79
1.40
-0.03
-1.40
-2.58
-3.55
-4.30
-4.90
-5.49
-6.26
-7.43
-9.08
-11.14
-13.28
-15.00
-15.79
-15.24
-13.23
-9.92
-5.78
-1.31
2.97
6.70
9.69
11.86
13.23
13.90
14.01
13.75
13.29
12.76
12.21
11.61
10.92
10.18
9.45
8.83
8.39
8.10
7.86
7.58
7.18
6.65
6.03
5.35
4.58
3.67
2.51
1.11
-0.40
-1.81
-2.88
-3.48
-3.68
-3.72
-3.91
-4.49
-5.49
-6.83
-8.30
-9.71
-10.86
-11.53
-11.42
-10.24
-7.77
-4.03
0.62
5.58
10.19
13.88
16.41
17.79
18.24
18.03
17.42
16.57
15.61
14.66
13.81
13.13
12.54
11.93
11.13
10.01
8.56
6.84
4.99
3.17
1.49
-0.02
-1.38
-2.67
-3.96
-5.33
-6.84
-8.51
-10.31
-12.12
-13.80
-15.17
-16.11
-16.58
-16.61
-16.35
-15.96
-15.62
-15.44
-15.51
-15.83
-16.37
-17.03
-17.61
-17.74
-16.98
-14.93
-11.41
-6.64
-1.21
4.10
8.57
11.82
13.84
14.92
15.45
15.73
15.84
15.79
15.48
14.90
14.10
13.15
12.16
11.19
10.27
9.35
8.37
7.34
6.33
5.52
5.01
4.78
4.59
4.08
2.99
1.34
-0.57
-2.26
-3.36
-3.79
-3.79
-3.71
-3.86
-4.30
-4.90
-5.45
-5.75
-5.79
-5.65
-5.52
-5.64
-6.17
-7.21
-8.72
-10.56
-12.48
-14.25
-15.56
-16.09
-15.46
-13.36
-9.68
-4.68
1.03
6.61
11.30
14.63
16.55
17.31
17.32
16.88
16.22
15.41
14.52
13.60
12.73
11.93
11.19
10.43
9.52
8.28
6.62
4.54
2.26
0.12
-1.53
-2.49
-2.83
-2.82
-2.79
-2.95
-3.36
-3.97
-4.75
-5.73
-7.00
-8.57
-10.31
-12.01
-13.46
-14.62
-15.62
-16.71
-18.06
-19.77
-21.74
-23.80
-25.69
-27.08
-27.58
-26.81
-24.49
-20.59
-15.42
-9.59
-3.84
1.13
4.93
7.45
8.95
9.82
10.48
11.22
12.16
13.29
14.52
15.78
17.00
18.07
18.84
19.17
18.97
18.29
17.34
16.35
15.52
14.89
14.39
13.82
13.06
11.98
10.55
8.79
6.78
4.67
2.67
0.97
-0.31
-1.24
-2.06
-3.08
-4.58
-6.68
-9.26
-12.02
-14.54
-16.49
-17.72
-18.28
-18.42
-18.48
-18.73
-19.37
-20.44
-21.83
-23.28
-24.35
-24.50
-23.19
-20.11
-15.36
-9.48
-3.28
2.40
7.02
10.42
12.75
14.30
15.25
15.72
15.74
15.38
14.80
14.21
13.73
13.35
12.92
12.24
11.20
9.84
8.30
6.79
5.47
4.44
3.68
3.07
2.47
1.75
0.85
-0.19
-1.24
-2.13
-2.74
-3.06
-3.15
-3.16
-3.28
-3.65
-4.37
-5.41
-6.63
-7.85
-8.87
-9.55
-9.90
-10.03
-10.22
-10.71
-11.67
-13.13
-14.90
-16.61
-17.85
-18.19
-17.37
-15.32
-12.25
-8.54
-4.71
-1.22
1.55
3.41
4.33
4.40
3.81
2.81
1.68
0.70
0.10
0.03
0.55
1.61
3.06
4.69
6.23
7.42
8.10
8.25
7.97
7.48
7.00
6.71
6.68
6.94
7.52
8.49
9.88
11.65
13.65
15.65
17.42
18.80
19.74
20.28
20.47
20.39
20.12
19.75
19.36
18.97
18.45
17.63
16.30
14.37
11.90
9.14
6.50
4.42
3.31
3.38
4.53
6.29
7.83
8.15
6.41
2.11
-4.68
-13.39
-23.12
-32.89
-41.82
-49.16
-54.30
-56.79
-56.37
-53.13
-47.48
-40.21
-32.25
-24.52
-17.67
-11.97
-7.38
-3.67
-0.56
2.14
4.48
6.46
8.04
9.33
10.47
11.65
12.96
14.35
15.60
16.42
16.61
16.13
15.18
14.07
13.14
12.61
12.45
12.44
12.25
11.51
9.97
7.56
4.44
1.00
-2.27
-4.83
-6.25
-6.27
-4.91
-2.47
0.58
3.70
6.44
8.53
9.89
10.57
10.68
10.35
9.71
8.95
8.33
8.14
8.59
9.66
11.06
12.33
13.04
13.02
12.51
12.00
12.03
12.81
14.13
15.34
15.68
14.68
12.46
9.74
7.61
6.99
8.21
10.77
13.53
15.17
14.80
12.42
8.93
5.84
4.73
6.79
12.51
21.31
31.22
39.00
40.83
33.65
16.63
-8.09
-35.62
-59.86
-75.58
-80.23
-74.38
-60.98
-43.89
-26.58
-11.70
-0.69
6.16
9.57
11.01
12.51
16.35
24.61
38.81
58.90
83.78
111.53
139.29
163.14
178.62
181.97
171.50
148.63
116.60
81.05
48.63
24.70
11.05
5.33
2.59
-2.51
-13.60
-33.91
-63.64
-99.97
-138.15
-173.57
-203.07
-225.03
-239.25
-246.37
-250.31
-254.15
-258.69
-262.34
-262.91
-258.80
-248.71
-231.49
-188.28
-111.71
-11.30
89.65
168.80
215.41
230.90
224.48
207.39
188.34
168.86
147.80
123.81
96.58
65.93
30.49
-7.42
-46.41
-83.84
-117.80
-145.02
-161.51
-164.06
-152.23
-128.76
-98.19
-65.63
-35.01
-10.36
5.63
12.00
9.86
1.92
-8.08
-16.05
-19.13
-16.15
-8.70
0.07
6.87
9.68
8.26
4.09
-0.21
-2.01
0.87
9.51
24.11
44.25
69.10
97.12
125.92
152.55
173.86
187.46
192.36
189.07
179.13
164.63
147.59
129.87
113.07
98.51
87.04
78.90
73.67
70.56
68.50
67.06
66.80
68.86
74.24
83.35
96.01
111.62
129.44
148.31
167.18
185.38
202.49
218.03
231.26
241.25
246.97
247.58
241.72
229.14
211.22
190.51
169.41
149.41
131.04
114.06
97.96
79.49
56.67
30.14
2.59
-23.59
-47.30
-68.41
-87.20
-103.98
-124.74
-153.37
-188.95
-226.98
-263.63
-297.40
-327.91
-354.57
-375.94
-399.21
-428.51
-461.04
-489.46
-508.78
-519.19
-524.05
-527.24
-531.27
-548.59
-585.80
-638.34
-693.83
-741.76
-778.06
-803.29
-819.96
-757.84
-587.88
-342.03
-89.39
119.58
271.28
373.74
440.68
483.76
512.01
520.06
504.99
472.81
436.07
404.64
381.62
365.42
351.91
338.96
316.96
280.98
234.50
186.78
145.14
111.62
88.93
73.61
62.48
47.50
23.99
-6.00
-34.54
-52.84
-54.91
-39.08
-9.02
28.39
62.00
83.13
89.41
84.68
75.31
66.56
61.01
58.02
56.11
52.97
47.67
41.04
34.80
30.00
26.37
23.19
19.53
15.79
13.07
12.58
14.78
19.00
23.43
25.90
24.87
20.05
12.67
4.81
-1.62
-5.73
-7.93
-9.80
-13.32
-19.72
-28.90
-39.22
-48.29
-54.03
-55.73
-54.25
-51.83
-50.98
-53.43
-59.42
-67.94
-77.28
-85.61
-92.42
-96.60
-97.28
-94.30
-88.46
-81.42
-75.14
-70.88
-68.60
-66.98
-63.96
-58.17
-49.51
-39.07
-28.43
-18.77
-10.48
-3.30
3.13
8.98
14.00
17.85
20.40
21.96
23.08
24.36
26.11
28.23
30.41
32.14
33.05
33.05
32.44
31.76
31.54
32.08
33.19
34.38
35.00
34.58
33.09
30.89
28.58
26.60
25.11
23.93
22.78
21.51
20.17
18.98
18.13
17.59
17.13
16.40
15.14
13.29
11.02
8.61
6.29
4.20
2.33
0.57
-1.22
-3.19
-5.51
-8.26
-11.34
-14.34
-16.52
-16.99
-15.04
-10.47
-3.77
4.02
11.64
18.14
23.22
27.26
30.97
35.04
39.73
44.76
49.47
53.05
54.85
54.56
52.34
48.69
44.31
39.77
35.36
31.07
26.75
22.28
17.72
13.28
9.17
5.47
2.08
-1.23
-4.66
-8.30
-12.04
-15.70
-19.01
-21.73
-23.69
-24.88
-25.47
-25.79
-26.18
-26.90
-27.99
-29.29
-30.47
-31.02
-30.33
-27.84
-23.36
-17.29
-10.69
-4.91
-0.95
1.15
2.42
4.59
9.20
16.79
26.58
36.79
45.31
50.69
52.50
51.66
49.73
47.94
47.36
48.79
52.46
58.18
65.59
74.35
84.52
96.42
110.21
126.56
146.50
170.70
198.83
228.93
257.27
279.43
290.63
286.10
263.92
225.92
176.67
122.43
69.55
23.15
-12.17
-34.57
-47.50
-54.77
-58.80
-61.84
-65.55
-70.87
-77.94
-82.98
-82.65
-80.33
-77.84
-73.88
-68.05
-60.83
-53.27
-46.54
-36.18
-18.37
0.37
16.76
33.28
51.64
72.51
95.56
119.60
149.85
189.82
229.14
262.03
291.19
319.45
349.21
381.58
372.93
296.71
215.02
152.28
91.77
30.53
-30.42
-87.64
-137.23
-176.64
-198.87
-200.85
-195.16
-190.64
-187.69
-186.08
-185.38
-185.48
-186.83
-184.84
-176.06
-167.61
-163.30
-161.16
-159.95
-159.34
-159.72
-161.83
-162.93
-160.56
-158.60
-158.53
-158.03
-155.15
-148.76
-138.76
-126.14
-111.01
-94.16
-79.37
-68.77
-61.81
-57.32
-53.95
-50.56
-46.51
-41.18
-34.57
-28.28
-23.64
-21.28
-21.59
-24.56
-29.68
-35.77
-41.18
-44.09
-43.01
-37.34
-27.75
-16.02
-4.57
4.38
9.64
11.49
11.60
12.38
16.15
24.25
36.49
51.06
64.93
74.75
77.88
73.34
62.16
47.06
31.47
18.33
9.16
3.80
0.87
-1.35
-4.04
-7.38
-10.68
-12.79
-12.72
-10.04
-4.93
1.96
9.87
18.14
26.19
33.52
39.57
43.78
45.78
45.59
43.69
40.88
37.89
35.06
32.27
29.08
25.18
20.64
16.02
12.15
9.74
9.08
9.85
11.18
11.93
10.99
7.69
1.97
-5.61
-14.07
-22.36
-29.64
-35.45
-39.64
-42.22
-43.25
-42.78
-40.92
-37.89
-33.96
-29.29
-23.81
-17.22
-9.16
0.44
11.15
21.91
31.26
37.77
40.50
39.31
34.90
28.54
21.71
15.71
11.43
9.26
9.18
10.87
13.82
17.42
21.08
24.37
27.11
29.39
31.48
33.57
35.63
37.24
37.73
36.38
32.73
26.82
19.34
11.56
4.98
0.95
0.18
2.48
6.79
11.54
15.16
16.52
15.19
11.32
5.41
-1.87
-9.81
-17.59
-24.23
-28.71
-30.21
-28.42
-23.75
-17.20
-10.07
-3.56
1.48
4.67
6.01
5.71
4.12
1.62
-1.31
-4.14
-6.36
-7.61
-7.80
-7.22
-6.42
-6.08
-6.74
-8.55
-11.16
-13.89
-15.96
-16.85
-16.57
-15.58
-14.61
-14.33
-15.02
-16.52
-18.38
-20.11
-21.33
-21.89
-21.73
-20.78
-18.88
-15.94
-12.08
-7.84
-4.18
-2.17
-2.56
-5.35
-9.57
-13.50
-15.24
-13.43
-7.71
1.07
11.09
20.11
25.99
27.25
23.30
14.67
2.88
-9.72
-20.59
-27.58
-29.60
-26.97
-21.18
-14.29
-8.04
-3.28
0.18
3.15
6.40
10.17
14.06
17.35
19.41
20.08
19.57
18.20
16.11
13.14
9.03
3.78
-2.20
-8.13
-13.21
-17.03
-19.66
-21.55
-23.25
-25.17
-27.59
-30.67
-34.50
-38.88
-43.14
-46.15
-46.53
-43.23
-36.13
-26.17
-15.10
-4.79
3.41
9.09
12.71
15.21
17.48
20.12
23.23
26.54
29.62
32.07
33.61
34.16
33.82
32.77
31.26
29.53
27.86
26.45
25.43
24.79
24.34
23.72
22.50
20.30
16.94
12.60
7.83
3.52
0.63
-0.16
1.29
4.37
7.91
10.63
11.66
10.92
9.14
7.45
6.83
7.61
9.28
10.81
11.01
9.09
4.91
-0.99
-7.61
-13.89
-18.97
-22.43
-24.25
-24.75
-24.37
-23.47
-22.29
-20.96
-19.59
-18.29
-17.28
-16.77
-16.92
-17.76
-19.09
-20.48
-21.34
-21.05
-19.31
-16.24
-12.46
-8.79
-5.90
-4.01
-2.84
-1.85
-0.58
1.13
3.14
5.27
7.45
9.75
12.12
14.21
15.34
14.75
12.09
7.67
2.59
-1.73
-3.98
-3.52
-0.56
3.95
8.66
12.27
13.87
13.13
10.43
6.73
3.40
1.88
3.23
7.77
14.84
22.88
29.78
33.55
32.93
27.84
19.48
10.01
1.84
-3.10
-3.87
-0.71
5.19
12.23
18.93
24.27
27.75
29.22
28.78
26.68
23.41
19.77
16.88
15.94
17.95
23.33
31.60
41.45
50.97
57.99
60.54
57.16
47.18
30.95
9.84
-13.82
-37.22
-57.64
-73.13
-82.91
-87.36
-87.64
-85.04
-80.58
-74.78
-67.96
-60.45
-52.83
-45.71
-39.55
-34.34
-29.69
-25.01
-19.89
-14.19
-8.11
-1.98
3.99
9.71
15.23
20.57
25.53
29.73
32.68
33.98
33.52
31.56
28.68
25.62
22.98
21.05
19.70
18.46
16.75
14.04
10.04
4.73
-1.70
-8.90
-16.47
-23.86
-30.52
-35.93
-39.76
-41.95
-42.83
-43.00
-43.18
-43.88
-45.27
-47.09
-48.73
-49.47
-48.68
-45.90
-41.00
-34.17
-25.99
-17.25
-8.83
-1.31
5.30
11.67
18.91
28.10
39.70
53.05
66.43
77.31
83.05
81.59
72.22
55.99
35.61
14.91
-2.29
-13.25
-17.06
-14.65
-8.14
0.10
8.24
15.26
20.78
24.61
26.67
26.91
25.62
23.41
21.06
19.17
17.86
16.74
15.05
12.07
7.38
1.13
-5.97
-12.93
-18.70
-22.58
-24.38
-24.49
-23.74
-23.01
-22.97
-23.84
-25.41
-27.21
-28.81
-29.97
-30.68
-31.04
-31.12
-30.91
-30.36
-29.58
-28.92
-28.91
-30.05
-32.55
-36.17
-40.18
-43.61
-45.51
-45.20
-42.37
-37.12
-29.83
-20.99
-11.22
-1.12
8.63
17.35
24.40
29.26
31.61
31.36
28.75
24.28
18.76
13.20
8.63
5.97
5.86
8.68
14.53
23.28
34.63
47.95
62.16
75.75
86.89
93.90
95.67
92.00
83.65
72.19
59.65
48.11
39.27
34.11
32.57
33.61
35.44
36.16
34.34
29.45
21.88
12.58
2.62
-7.19
-16.30
-24.38
-31.16
-36.48
-40.45
-43.56
-46.62
-50.43
-55.39
-61.18
-66.84
-71.08
-72.79
-71.57
-67.93
-63.14
-58.78
-56.17
-55.86
-57.49
-60.01
-62.06
-62.58
-61.05
-57.65
-53.05
-48.02
-43.09
-38.26
-32.97
-26.21
-16.85
-4.06
12.26
31.14
50.56
67.80
80.13
85.56
83.51
74.97
62.26
48.29
35.74
26.35
20.58
17.76
16.51
15.37
13.40
10.33
6.55
2.77
-0.38
-2.60
-3.90
-4.46
-4.39
-3.63
-1.99
0.59
3.78
6.75
8.27
7.01
2.11
-6.45
-17.70
-29.87
-40.86
-48.89
-52.98
-53.12
-50.12
-45.23
-39.73
-34.72
-30.98
-28.98
-28.80
-30.17
-32.35
-34.38
-35.23
-34.10
-30.64
-24.99
-17.72
-9.67
-1.77
5.10
10.22
13.15
13.84
12.70
10.51
8.25
6.89
7.20
9.50
13.55
18.50
22.99
25.53
24.86
20.43
12.60
2.64
-7.50
-15.71
-20.25
-20.26
-16.08
-9.19
-1.74
4.18
7.27
7.50
5.92
4.22
3.87
5.66
9.51
14.75
20.42
25.63
29.66
32.10
32.91
32.48
31.55
31.08
32.01
34.96
40.01
46.67
53.92
60.54
65.38
67.81
67.83
66.07
63.44
60.68
58.01
55.05
51.09
45.53
38.25
29.71
20.74
12.20
4.58
-2.02
-7.78
-12.93
-17.47
-21.22
-23.92
-25.44
-25.94
-25.82
-25.64
-25.93
-27.05
-29.19
-32.28
-36.04
-39.89
-43.06
-44.73
-44.29
-41.70
-37.62
-33.18
-29.55
-27.49
-26.95
-27.19
-27.17
-26.01
-23.46
-19.84
-15.95
-12.64
-10.53
-9.87
-10.48
-11.90
-13.52
-14.70
-14.89
-13.75
-11.24
-7.64
-3.48
0.53
3.66
5.40
5.56
4.38
2.42
0.38
-1.14
-1.77
-1.46
-0.40
0.97
2.01
1.91
-0.08
-4.32
-10.43
-17.18
-22.85
-25.95
-25.95
-23.57
-20.40
-18.01
-17.09
-17.14
-16.82
-14.77
-10.48
-4.56
1.55
6.32
8.85
9.08
7.76
5.97
4.61
4.03
4.05
4.21
4.03
3.36
2.36
1.52
1.49
2.93
6.21
11.32
17.86
25.09
32.00
37.32
39.81
38.86
34.89
29.19
23.61
19.82
18.65
19.85
22.21
24.29
25.66
26.89
28.65
31.42
34.77
37.69
39.23
38.91
37.51
37.78
42.47
52.49
67.12
83.95
99.97
112.87
120.95
123.85
119.51
106.01
83.47
56.06
28.67
3.87
-20.99
-49.79
-84.66
-123.84
-161.73
-193.46
-214.39
-222.18
-217.42
-195.19
-158.35
-126.31
-104.91
-89.99
-78.88
-69.25
-60.24
-52.01
-45.15
-40.97
-39.52
-37.85
-34.41
-29.47
-23.90
-19.37
-16.83
-16.26
-17.17
-17.78
-14.33
-5.23
9.29
27.65
47.05
65.08
80.08
91.26
99.49
107.78
118.23
132.65
151.62
169.12
177.56
170.31
145.18
105.59
62.42
19.96
-18.19
-48.88
-70.48
-80.63
-78.84
-67.01
-48.74
-28.11
-9.42
5.05
14.27
17.90
16.71
11.86
4.91
-2.47
-9.00
-14.48
-18.73
-22.19
-25.76
-29.93
-34.88
-40.19
-45.19
-49.22
-52.13
-53.56
-53.42
-52.01
-49.73
-47.18
-44.92
-43.29
-42.31
-41.86
-41.44
-40.66
-39.45
-37.92
-36.31
-34.79
-33.40
-32.15
-31.22
-30.82
-31.12
-32.07
-33.26
-33.88
-32.93
-29.55
-23.36
-14.80
-5.03
4.30
11.66
16.30
18.63
20.13
22.75
28.11
36.68
47.56
58.72
67.76
72.61
72.18
66.51
56.69
44.64
32.65
22.93
17.16
16.00
18.97
24.64
31.06
36.37
39.20
38.87
35.40
29.32
21.52
13.07
5.11
-1.39
-5.81
-8.04
-8.52
-8.03
-7.45
-7.40
-8.02
-8.91
-9.33
-8.57
-6.24
-2.64
1.33
4.47
5.66
4.40
0.91
-3.94
-9.02
-13.35
-16.44
-18.36
-19.59
-20.80
-22.55
-25.14
-28.55
-32.39
-36.06
-38.77
-39.76
-38.48
-34.73
-28.68
-20.78
-11.64
-1.68
8.85
19.99
31.84
44.30
56.81
68.31
77.39
82.69
83.36
79.27
71.08
60.08
47.78
35.70
25.11
17.02
12.04
10.37
11.71
15.24
19.77
24.04
27.04
28.38
28.33
27.64
27.15
27.26
27.65
27.37
25.23
20.42
12.88
3.28
-7.28
-17.79
-27.52
-35.84
-41.97
-44.80
-43.14
-36.35
-24.84
-10.27
4.96
18.44
28.58
34.84
37.55
37.42
35.06
30.82
24.92
17.73
9.87
2.16
-4.60
-9.87
-13.47
-15.48
-16.22
-16.01
-15.16
-14.01
-12.93
-12.31
-12.46
-13.43
-15.02
-16.73
-18.06
-18.64
-18.44
-17.72
-16.93
-16.55
-16.99
-18.53
-21.38
-25.50
-30.59
-35.99
-40.74
-43.85
-44.66
-43.05
-39.56
-35.13
-30.73
-26.95
-23.85
-21.06
-18.05
-14.45
-10.27
-5.84
-1.66
1.83
4.39
6.01
6.79
7.00
7.07
7.60
9.33
12.88
18.52
25.97
34.44
42.86
50.20
55.77
59.26
60.85
61.12
61.06
61.94
64.91
70.61
78.66
87.68
95.73
101.19
103.43
103.20
102.15
102.01
103.68
106.84
110.12
111.82
110.71
106.53
100.06
92.64
85.61
79.60
74.21
68.12
59.56
46.93
29.45
7.49
-17.54
-43.42
-67.51
-87.28
-100.79
-107.17
-106.96
-101.95
-94.52
-86.67
-79.22
-71.60
-62.47
-50.83
-37.00
-23.04
-12.13
-7.52
-11.41
-24.26
-44.85
-70.79
-99.24
-127.44
-152.99
-173.94
-188.87
-196.94
-198.11
-193.15
-183.69
-171.78
-159.43
-148.06
-138.19
-129.54
-121.37
-112.91
-103.72
-93.76
-83.21
-72.34
-61.32
-50.23
-39.09
-27.87
-16.45
-4.67
7.62
20.44
33.50
46.25
57.98
68.01
75.96
81.76
85.66
88.06
89.35
89.84
89.70
89.02
87.78
85.83
82.93
78.82
73.32
66.56
59.02
51.57
45.18
40.58
37.95
36.77
36.05
34.64
31.76
27.20
21.30
14.77
8.38
2.71
-2.01
-5.86
-9.26
-12.80
-16.99
-22.03
-27.62
-33.00
-37.24
-39.59
-39.73
-37.88
-34.59
-30.56
-26.44
-22.77
-19.96
-18.28
-17.72
-17.97
-18.43
-18.38
-17.29
-14.93
-11.39
-6.97
-1.97
3.26
8.25
12.36
14.90
15.47
14.21
11.99
10.05
9.50
10.73
13.24
15.84
17.24
16.59
13.80
9.39
4.19
-1.07
-5.98
-10.40
-14.41
-18.14
-21.67
-25.05
-28.27
-31.24
-33.83
-35.80
-36.88
-36.75
-35.17
-32.06
-27.56
-22.05
-15.96
-9.69
-3.38
3.04
9.85
17.40
25.92
35.40
45.41
54.96
62.53
66.34
64.90
57.74
45.87
31.77
18.72
9.81
6.98
10.45
18.92
30.17
41.80
51.82
58.80
61.83
60.58
55.23
46.52
35.66
24.04
12.95
3.16
-5.19
-12.49
-19.22
-25.60
-31.43
-36.18
-39.23
-40.09
-38.83
-36.22
-33.67
-32.53
-33.67
-37.24
-42.62
-48.65
-53.76
-56.72
-57.09
-55.49
-52.68
-49.25
-45.57
-41.72
-37.58
-32.64
-26.61
-19.70
-12.82
-6.23
0.42
7.85
16.75
27.53
40.62
55.94
72.68
89.09
104.06
116.90
126.95
133.32
132.06
120.80
100.72
78.80
57.82
38.79
22.00
8.13
-2.58
-10.42
-15.58
-18.54
-20.14
-21.77
-23.70
-25.37
-25.91
-24.84
-22.35
-18.99
-15.83
-14.22
-15.52
-19.67
-25.46
-31.34
-36.15
-39.59
-41.85
-43.55
-45.49
-48.40
-52.26
-56.48
-60.34
-63.23
-64.77
-64.64
-62.80
-59.54
-55.57
-51.60
-48.21
-45.71
-44.09
-42.98
-41.69
-39.52
-35.97
-31.00
-25.05
-18.88
-13.47
-9.71
-8.02
-8.22
-9.55
-10.84
-10.87
-8.73
-4.05
2.83
11.02
19.45
27.41
35.01
43.27
53.55
66.75
82.45
98.66
112.20
119.64
118.27
106.92
86.27
58.93
28.94
1.10
-20.14
-31.88
-33.47
-26.66
-14.71
-1.15
11.34
21.47
29.00
34.14
37.03
37.63
35.97
32.39
27.54
22.21
17.00
12.14
7.58
3.06
-1.60
-6.43
-11.19
-15.49
-18.91
-21.23
-22.49
-23.00
-23.10
-23.02
-22.67
-21.74
-19.79
-16.52
-11.92
-6.36
-0.51
4.84
8.96
11.46
12.41
12.30
11.92
11.98
12.81
14.30
16.06
17.66
18.82
19.49
19.71
19.51
18.75
17.16
14.42
10.48
5.37
-0.93
-8.58
-17.68
-28.00
-38.68
-48.24
-54.88
-56.73
-52.90
-44.15
-32.82
-22.03
-14.45
-11.33
-12.14
-14.97
-16.91
-15.55
-9.97
-0.88
10.05
21.04
30.92
39.27
46.31
53.33
61.67
72.12
84.65
98.79
113.61
128.21
141.50
147.23
140.24
119.62
89.76
57.06
26.23
-0.93
-24.29
-45.17
-63.68
-78.34
-87.56
-90.82
-89.42
-83.12
-73.81
-63.80
-55.18
-49.29
-46.19
-45.29
-45.96
-47.84
-50.58
-53.91
-57.03
-58.96
-59.01
-57.00
-53.58
-50.04
-47.71
-47.12
-47.92
-48.67
-47.88
-44.81
-39.82
-34.23
-29.53
-26.56
-25.02
-23.96
-22.25
-19.36
-15.65
-12.07
-9.57
-8.65
-9.17
-10.56
-12.26
-13.77
-14.74
-14.91
-14.06
-12.04
-8.93
-5.14
-1.26
1.91
3.76
3.94
2.51
-0.15
-3.37
-6.41
-8.56
-9.28
-8.34
-5.86
-2.34
1.38
4.46
6.28
6.77
6.51
6.55
7.85
10.84
15.06
19.38
22.53
23.80
23.47
22.72
23.05
25.57
30.47
37.04
44.03
50.28
55.10
58.33
60.12
60.60
59.76
57.45
53.59
48.23
41.56
33.82
25.31
16.48
8.07
1.06
-3.54
-5.14
-3.98
-1.17
1.67
3.03
2.11
-0.78
-4.51
-7.61
-8.98
-8.36
-6.31
-3.90
-2.06
-1.15
-0.64
0.56
3.58
8.99
16.59
25.53
34.84
43.87
52.59
61.52
71.29
82.25
94.09
105.83
115.91
122.47
123.51
117.31
102.99
80.92
52.95
22.25
-7.26
-31.88
-49.26
-58.95
-62.35
-61.71
-59.31
-56.89
-55.44
-54.96
-54.92
-54.76
-54.32
-53.97
-53.78
-53.73
-53.81
-54.12
-54.33
-53.75
-51.83
-48.59
-44.93
-41.43
-38.47
-36.18
-34.45
-32.10
-27.38
-18.81
-6.06
9.66
27.26
45.43
62.32
72.24
68.96
49.33
16.42
-19.97
-54.08
-81.42
-99.07
-104.51
-98.20
-82.95
-62.77
-41.53
-22.09
-6.31
5.96
15.50
23.05
28.83
33.57
38.47
44.65
52.22
59.77
65.68
68.48
67.29
62.08
54.16
45.62
38.43
33.49
30.37
28.10
25.51
21.62
15.84
8.32
-0.16
-8.66
-16.57
-23.83
-30.58
-37.06
-43.40
-49.56
-55.16
-59.74
-62.96
-64.85
-65.84
-66.38
-66.74
-66.78
-65.99
-63.73
-59.54
-53.36
-45.61
-37.00
-28.27
-19.99
-12.40
-5.48
0.94
7.09
13.20
19.57
26.49
34.14
42.52
51.28
59.72
66.89
71.91
74.21
73.70
70.68
65.69
59.27
51.89
44.06
36.43
29.81
24.87
21.82
20.17
18.82
16.40
11.99
5.60
-1.58
-7.51
-10.08
-7.93
-1.05
9.19
20.45
30.11
36.07
37.34
33.95
26.57
16.06
3.30
-10.84
-25.30
-38.81
-49.98
-57.31
-59.96
-58.30
-53.85
-48.72
-44.81
-43.27
-44.32
-47.47
-51.25
-54.34
-56.27
-57.51
-58.58
-59.43
-59.30
-57.27
-52.88
-45.58
-35.92
-25.70
-17.29
-12.04
-9.35
-7.15
-3.02
4.87
18.63
39.53
67.25
99.75
133.95
166.18
192.30
208.13
203.42
173.28
123.37
68.17
21.35
-11.04
-30.13
-40.43
-46.33
-50.33
-51.73
-49.14
-42.53
-33.92
-25.84
-19.91
-16.37
-14.43
-12.89
-9.76
-3.90
4.23
12.59
19.09
22.59
23.07
21.28
18.23
15.32
13.36
11.78
9.37
4.99
-1.87
-11.00
-21.68
-33.04
-43.95
-53.72
-60.51
-65.38
-69.11
-71.92
-73.67
-73.95
-73.92
-72.20
-68.04
-61.20
-52.09
-41.23
-29.03
-15.90
-2.32
12.79
27.88
41.85
54.20
64.36
71.94
76.96
79.58
79.98
78.73
76.09
72.28
67.86
63.05
57.67
52.04
46.44
41.12
36.77
33.39
31.15
30.29
30.40
30.34
29.46
27.06
22.55
16.20
7.96
-1.67
-11.71
-17.48
-19.59
-18.91
-16.25
-16.03
-16.36
-15.80
-12.84
-6.07
4.49
17.40
30.92
42.69
50.27
52.33
47.62
35.22
19.24
1.04
-19.43
-42.48
-68.92
-99.96
-136.49
-179.79
-229.88
-284.29
-338.10
-383.81
-412.87
-419.12
-401.22
-363.10
-312.96
-259.78
-210.17
-167.58
-132.14
-101.91
-74.89
-49.86
-26.24
-3.98
16.79
35.61
51.19
62.13
67.86
68.68
65.78
60.89
55.57
51.02
47.97
46.57
46.64
47.74
48.62
47.33
42.25
33.45
23.33
15.79
14.37
20.58
34.12
52.09
70.16
84.40
93.05
96.74
97.26
96.21
94.33
94.09
97.42
104.55
114.00
123.56
131.27
135.68
135.98
132.40
129.99
133.56
144.89
162.04
181.62
200.81
217.74
231.23
240.57
250.39
264.70
284.36
307.17
330.98
355.19
379.75
403.44
393.57
331.37
223.65
99.53
-11.88
-95.68
-150.15
-180.95
-196.49
-205.00
-206.96
-201.00
-187.45
-169.62
-151.74
-136.86
-126.76
-122.26
-124.04
-127.54
-128.19
-124.17
-116.86
-108.91
-102.36
-98.62
-98.67
-103.96
-112.36
-121.80
-131.85
-143.70
-157.85
-172.41
-183.28
-180.11
-161.11
-128.39
-88.34
-49.54
-19.42
-1.30
6.39
8.00
7.74
6.81
5.55
3.76
1.71
0.44
1.54
6.29
15.00
26.72
38.95
49.32
55.98
57.78
54.60
47.48
38.60
30.59
25.36
22.88
22.03
21.17
18.87
14.79
9.45
3.97
-0.67
-4.71
-9.53
-16.17
-24.44
-31.78
-35.35
-33.88
-28.19
-19.89
-10.89
-2.25
6.30
15.21
23.10
27.23
24.01
11.94
-5.85
-23.26
-33.45
-31.86
-18.15
3.60
29.69
55.70
80.99
110.59
148.72
196.09
249.93
306.65
357.95
398.87
427.82
435.32
416.32
369.98
301.15
219.57
137.78
67.12
11.58
-30.72
-61.83
-82.47
-94.20
-99.49
-102.01
-98.30
-89.80
-82.54
-81.98
-90.28
-104.81
-121.35
-136.45
-148.70
-158.74
-170.27
-191.80
-229.66
-284.84
-352.10
-423.56
-492.37
-554.71
-609.76
-628.73
-596.07
-515.52
-409.07
-301.49
-208.28
-134.37
-77.63
-31.83
10.24
51.30
93.45
137.97
185.02
232.94
278.62
319.08
357.19
394.82
427.72
449.37
453.63
438.12
405.77
363.59
321.17
287.37
266.39
255.01
246.88
235.93
219.11
200.50
183.53
170.66
162.57
157.56
151.87
142.46
128.34
110.90
93.02
76.79
63.46
53.20
44.92
36.83
27.52
16.46
4.21
-8.00
-19.33
-29.10
-36.93
-43.03
-47.93
-52.33
-57.02
-62.52
-68.91
-75.89
-82.44
-87.12
-88.69
-86.62
-81.50
-74.95
-69.11
-65.73
-65.58
-68.03
-71.57
-74.66
-76.78
-78.98
-83.74
-94.29
-113.79
-144.51
-187.02
-239.16
-295.51
-347.60
-385.43
-400.35
-387.87
-349.54
-292.44
-226.82
-162.57
-106.38
-60.55
-23.79
6.73
33.19
56.10
74.31
86.00
89.91
86.06
75.59
60.14
40.60
16.03
-16.41
-60.29
-117.60
-186.28
-259.48
-326.78
-377.51
-404.65
-407.15
-389.57
-359.39
-323.59
-286.36
-249.31
-213.06
-178.91
-149.14
-125.59
-107.85
-92.59
-74.67
-49.61
-15.86
24.50
66.77
105.51
136.57
158.15
170.70
176.14
176.82
174.59
170.27
163.69
154.19
141.37
125.38
106.81
86.13
63.36
38.31
11.24
-16.42
-41.88
-61.89
-74.31
-79.27
-79.53
-79.16
-81.70
-88.67
-99.18
-110.76
-120.77
-127.58
-130.74
-130.65
-127.84
-122.55
-114.71
-104.27
-91.45
-76.76
-60.82
-43.90
-25.72
-5.38
18.06
44.86
73.95
103.04
129.32
150.67
166.58
177.90
185.76
190.05
188.68
178.49
157.10
125.08
86.60
48.39
17.20
-2.54
-10.00
-7.35
1.83
14.21
27.57
40.70
52.63
62.03
67.14
66.41
59.36
47.24
32.89
19.91
11.51
9.38
13.24
21.28
31.09
40.71
49.22
56.66
63.44
69.58
74.47
76.86
75.47
69.43
58.73
44.50
28.86
14.60
4.51
0.58
3.28
11.34
22.19
32.91
41.35
46.71
49.35
49.93
48.45
43.96
35.00
20.68
1.52
-20.42
-42.23
-61.30
-76.19
-86.88
-94.36
-99.82
-104.09
-107.50
-109.75
-110.48
-109.50
-106.97
-102.73
-96.39
-87.46
-75.90
-62.28
-47.64
-33.39
-20.86
-11.09
-4.10
0.93
5.32
10.30
16.67
25.14
35.68
47.35
