1660322842.00
64.000000
-0.00
-0.00
-0.00
-0.00
-0.00
-0.00
-0.00
-0.00
-0.00
-0.00
0.00
0.01
0.01
-0.00
-0.03
-0.05
-0.05
0.00
0.13
0.36
0.66
1.01
1.37
1.72
2.06
2.40
2.79
3.24
3.80
4.42
5.06
5.67
6.20
6.67
7.14
7.68
8.33
9.19
10.15
11.08
11.84
12.37
12.73
13.12
13.79
14.93
16.77
19.10
21.62
24.00
26.04
27.83
29.73
32.20
35.61
40.32
45.94
51.86
57.42
62.22
66.36
70.42
75.21
81.34
89.34
98.57
108.03
116.62
123.69
129.34
134.44
140.64
146.85
155.35
166.48
179.91
194.01
205.66
210.68
204.89
185.52
152.13
107.18
54.10
-3.49
-63.06
-123.42
-184.11
-244.57
-303.66
-359.87
-411.54
-458.05
-499.38
-535.77
-567.16
-592.85
-611.32
-620.09
-616.00
-595.46
-555.86
-496.49
-419.55
-330.17
-235.36
-142.12
-55.85
20.48
86.10
141.21
186.15
221.02
245.97
261.78
270.03
272.86
272.25
269.47
264.85
258.03
248.48
236.07
221.29
205.26
189.28
174.43
161.16
149.25
138.02
126.72
114.97
102.89
91.02
80.01
70.36
62.14
55.07
48.69
42.60
36.56
30.57
24.73
19.25
14.31
10.13
6.71
3.98
1.78
-0.09
-1.80
-3.46
-5.09
-6.60
-7.90
-8.86
-9.42
-9.56
-9.34
-8.88
-8.34
-7.83
-7.44
-7.15
-6.91
-6.64
-6.33
-6.01
-5.76
-5.61
-5.52
-5.41
-5.19
-4.87
-4.53
-4.25
-4.08
-3.95
-3.77
-3.42
-2.88
-2.27
-1.75
-1.47
-1.47
-1.71
-2.04
-2.33
-2.48
-2.47
-2.35
-2.19
-2.05
-1.94
-1.87
-1.83
-1.83
-1.84
-1.84
-1.81
-1.70
-1.51
-1.25
-0.96
-0.68
-0.41
-0.17
0.09
0.32
0.49
0.53
0.42
0.23
0.06
0.01
0.14
0.45
0.85
1.25
1.58
1.82
1.98
2.05
2.06
2.01
1.93
1.87
1.88
1.97
2.17
2.46
2.82
3.20
3.54
3.73
3.62
3.11
2.18
0.91
-0.47
-1.72
-2.65
-3.22
-3.54
-3.80
-4.10
-4.44
-4.71
-4.79
-4.65
-4.37
-4.08
-3.85
-3.67
-3.47
-3.18
-2.83
-2.52
-2.37
-2.41
-2.57
-2.70
-2.71
-2.55
-2.29
-2.02
-1.78
-1.59
-1.41
-1.21
-0.98
-0.71
-0.39
-0.05
0.27
0.51
0.60
0.50
0.22
-0.14
-0.47
-0.67
-0.73
-0.66
-0.51
-0.33
-0.19
-0.17
-0.36
-0.78
-1.39
-2.06
-2.63
-2.95
-2.97
-2.72
-2.30
-1.80
-1.26
-0.70
-0.08
0.56
1.20
1.76
2.20
2.50
2.66
2.67
2.53
2.26
1.94
1.67
1.52
1.49
1.52
1.49
1.33
1.06
0.77
0.58
0.53
0.55
0.52
0.35
0.02
-0.34
-0.57
-0.58
-0.42
-0.25
-0.26
-0.53
-0.99
-1.45
-1.71
-1.66
-1.37
-0.97
-0.59
-0.31
-0.08
0.15
0.38
0.57
0.60
0.44
0.15
-0.14
-0.28
-0.24
-0.07
0.07
0.03
-0.25
-0.71
-1.17
-1.47
-1.48
-1.20
-0.76
-0.33
-0.10
-0.12
-0.37
-0.68
-0.90
-0.89
-0.66
-0.31
0.02
0.19
0.17
0.02
-0.19
-0.37
-0.47
-0.50
-0.47
-0.38
-0.25
-0.06
0.19
0.48
0.80
1.14
1.43
1.61
1.61
1.44
1.13
0.81
0.61
0.61
0.77
0.95
0.99
0.80
0.42
0.03
-0.21
-0.21
0.00
0.28
0.46
0.48
0.38
0.24
0.16
0.14
0.11
-0.02
-0.27
-0.56
-0.77
-0.81
-0.66
-0.43
-0.26
-0.24
-0.39
-0.62
-0.81
-0.87
-0.75
-0.53
-0.29
-0.12
-0.06
-0.06
-0.04
0.09
0.38
0.75
1.09
1.24
1.13
0.82
0.47
0.27
0.31
0.56
0.87
1.06
1.02
0.76
0.40
0.05
-0.22
-0.43
-0.61
-0.79
-0.94
-1.00
-0.95
-0.80
-0.61
-0.48
-0.47
-0.61
-0.87
-1.17
-1.44
-1.61
-1.61
-1.45
-1.17
-0.85
-0.56
-0.33
-0.16
-0.02
0.11
0.22
0.28
0.28
0.28
0.33
0.47
0.68
0.89
1.01
1.00
0.88
0.71
0.56
0.41
0.26
0.06
-0.16
-0.35
-0.44
-0.39
-0.24
-0.03
0.17
0.32
0.38
0.32
0.12
-0.22
-0.62
-0.96
-1.10
-1.00
-0.70
-0.34
-0.02
0.15
0.20
0.19
0.16
0.16
0.19
0.24
0.32
0.46
0.65
0.85
1.01
1.09
1.10
1.06
1.00
0.94
0.87
0.76
0.62
0.50
0.44
0.48
0.61
0.76
0.86
0.84
0.65
0.29
-0.23
-0.91
-1.70
-2.54
-3.33
-3.90
-4.13
-3.94
-3.36
-2.50
-1.54
-0.62
0.16
0.77
1.22
1.52
1.68
1.72
1.70
1.67
1.70
1.78
1.87
1.90
1.85
1.70
1.52
1.32
1.09
0.78
0.36
-0.13
-0.58
-0.87
-0.93
-0.81
-0.66
-0.64
-0.84
-1.22
-1.64
-1.91
-1.93
-1.75
-1.52
-1.42
-1.49
-1.68
-1.80
-1.70
-1.38
-0.94
-0.55
-0.35
-0.33
-0.37
-0.32
-0.08
0.32
0.75
1.06
1.15
1.02
0.76
0.49
0.33
0.32
0.44
0.60
0.71
0.72
0.65
0.55
0.50
0.52
0.59
0.66
0.68
0.62
0.51
0.38
0.27
0.18
0.09
-0.06
-0.29
-0.57
-0.82
-0.97
-0.92
-0.67
-0.27
0.15
0.51
0.73
0.82
0.80
0.74
0.66
0.61
0.58
0.58
0.58
0.58
0.55
0.48
0.40
0.35
0.35
0.42
0.54
0.69
0.81
0.88
0.87
0.77
0.59
0.39
0.19
0.03
-0.12
-0.32
-0.61
-1.01
-1.45
-1.81
-1.98
-1.90
-1.62
-1.25
-0.91
-0.67
-0.53
-0.40
-0.21
0.07
0.40
0.67
0.79
0.73
0.51
0.27
0.13
0.14
0.27
0.42
0.47
0.38
0.20
0.03
-0.07
-0.06
-0.03
-0.05
-0.19
-0.41
-0.63
-0.79
-0.85
-0.86
-0.90
-0.99
-1.10
-1.18
-1.17
-1.12
-1.11
-1.27
-1.63
-2.15
-2.71
-3.20
-3.55
-3.75
-3.82
-3.75
-3.54
-3.18
-2.72
-2.31
-2.07
-2.07
-2.26
-2.48
-2.58
-2.46
-2.10
-1.57
-0.94
-0.26
0.48
1.27
2.07
2.83
3.48
3.97
4.29
4.48
4.56
4.54
4.42
4.21
3.90
3.53
3.15
2.83
2.62
2.51
2.47
2.39
2.21
1.88
1.43
0.94
0.52
0.23
0.10
0.10
0.17
0.27
0.38
0.48
0.58
0.66
0.69
0.64
0.52
0.36
0.24
0.24
0.42
0.73
1.07
1.28
1.28
1.09
0.81
0.57
0.44
0.39
0.35
0.25
0.05
-0.19
-0.40
-0.53
-0.56
-0.54
-0.50
-0.46
-0.43
-0.36
-0.25
-0.11
0.01
0.07
0.03
-0.15
-0.43
-0.78
-1.12
-1.35
-1.43
-1.33
-1.08
-0.74
-0.39
-0.05
0.24
0.50
0.70
0.81
0.81
0.70
0.53
0.35
0.24
0.25
0.39
0.60
0.79
0.83
0.68
0.33
-0.09
-0.44
-0.59
-0.47
-0.17
0.17
0.40
0.45
0.35
0.20
0.11
0.12
0.20
0.24
0.16
-0.06
-0.37
-0.67
-0.88
-0.97
-0.93
-0.84
-0.73
-0.63
-0.53
-0.39
-0.20
0.02
0.23
0.39
0.47
0.45
0.37
0.26
0.17
0.14
0.19
0.34
0.56
0.78
0.93
0.95
0.83
0.63
0.45
0.36
0.38
0.43
0.43
0.33
0.18
0.09
0.13
0.35
0.66
0.94
1.04
0.94
0.67
0.30
-0.09
-0.48
-0.84
-1.17
-1.41
-1.56
-1.57
-1.49
-1.34
-1.15
-0.95
-0.74
-0.54
-0.40
-0.36
-0.41
-0.51
-0.59
-0.59
-0.48
-0.32
-0.19
-0.14
-0.17
-0.23
-0.23
-0.11
0.12
0.38
0.57
0.61
0.46
0.20
-0.09
-0.31
-0.40
-0.36
-0.23
-0.05
0.15
0.32
0.47
0.57
0.60
0.53
0.36
0.13
-0.12
-0.34
-0.49
-0.55
-0.54
-0.47
-0.39
-0.31
-0.24
-0.18
-0.15
-0.14
-0.17
-0.20
-0.21
-0.16
-0.04
0.14
0.34
0.52
0.65
0.73
0.78
0.79
0.76
0.65
0.43
0.12
-0.22
-0.46
-0.52
-0.38
-0.11
0.19
0.38
0.43
0.38
0.30
0.27
0.34
0.47
0.61
0.71
0.71
0.60
0.38
0.04
-0.36
-0.75
-1.04
-1.16
-1.11
-0.96
-0.80
-0.71
-0.68
-0.68
-0.67
-0.65
-0.62
-0.62
-0.61
-0.54
-0.35
-0.04
0.31
0.61
0.74
0.67
0.46
0.20
-0.00
-0.10
-0.06
0.08
0.28
0.48
0.61
0.63
0.54
0.35
0.11
-0.14
-0.37
-0.54
-0.59
-0.50
-0.24
0.15
0.61
1.05
1.38
1.52
1.44
1.16
0.74
0.30
-0.07
-0.31
-0.44
-0.49
-0.53
-0.58
-0.59
-0.51
-0.32
-0.12
-0.02
-0.14
-0.50
-0.96
-1.32
-1.42
-1.22
-0.80
-0.35
-0.04
0.08
0.05
-0.01
0.00
0.13
0.33
0.53
0.65
0.65
0.54
0.37
0.20
0.07
0.03
0.07
0.17
0.28
0.38
0.45
0.50
0.53
0.51
0.44
0.27
0.02
-0.27
-0.51
-0.66
-0.68
-0.62
-0.55
-0.52
-0.55
-0.61
-0.66
-0.66
-0.63
-0.63
-0.68
-0.80
-0.92
-0.99
-0.94
-0.79
-0.56
-0.32
-0.12
0.03
0.14
0.27
0.43
0.63
0.81
0.92
0.92
0.80
0.60
0.41
0.28
0.26
0.31
0.33
0.27
0.10
-0.13
-0.31
-0.37
-0.29
-0.12
0.02
0.07
0.01
-0.11
-0.19
-0.20
-0.16
-0.15
-0.23
-0.42
-0.66
-0.87
-0.96
-0.92
-0.79
-0.63
-0.47
-0.30
-0.07
0.21
0.51
0.77
0.90
0.88
0.74
0.55
0.39
0.31
0.29
0.31
0.36
0.45
0.60
0.81
1.03
1.17
1.17
1.01
0.71
0.37
0.07
-0.11
-0.16
-0.06
0.15
0.37
0.49
0.44
0.18
-0.19
-0.55
-0.79
-0.87
-0.85
-0.82
-0.84
-0.89
-0.91
-0.84
-0.66
-0.43
-0.25
-0.15
-0.13
-0.13
-0.05
0.11
0.33
0.51
0.62
0.64
0.62
0.64
0.69
0.72
0.64
0.38
-0.04
-0.49
-0.80
-0.88
-0.70
-0.37
-0.04
0.17
0.21
0.11
-0.04
-0.19
-0.30
-0.39
-0.50
-0.62
-0.71
-0.73
-0.63
-0.42
-0.17
0.01
0.06
-0.06
-0.28
-0.52
-0.68
-0.72
-0.64
-0.49
-0.32
-0.15
0.03
0.23
0.44
0.62
0.75
0.81
0.82
0.83
0.88
0.96
1.05
1.06
0.98
0.81
0.58
0.39
0.30
0.34
0.46
0.60
0.69
0.70
0.64
0.53
0.42
0.32
0.20
0.03
-0.18
-0.40
-0.57
-0.64
-0.62
-0.57
-0.56
-0.63
-0.80
-1.04
-1.32
-1.59
-1.79
-1.85
-1.68
-1.27
-0.69
-0.08
0.41
0.67
0.70
0.56
0.37
0.19
0.07
0.03
0.04
0.10
0.19
0.25
0.27
0.24
0.20
0.21
0.30
0.44
0.55
0.61
0.59
0.54
0.52
0.55
0.60
0.60
0.49
0.26
-0.03
-0.33
-0.59
-0.77
-0.90
-0.99
-1.06
-1.10
-1.09
-0.99
-0.78
-0.47
-0.15
0.05
-0.02
-0.42
-1.07
-1.74
-2.13
-1.98
-1.20
0.05
1.48
2.76
3.60
3.86
3.54
2.73
1.60
0.40
-0.63
-1.26
-1.35
-0.91
-0.13
0.73
1.34
1.47
1.04
0.19
-0.77
-1.50
-1.73
-1.39
-0.62
0.26
0.90
1.10
0.85
0.36
-0.15
-0.50
-0.67
-0.74
-0.80
-0.89
-0.95
-0.87
-0.63
-0.29
0.01
0.13
0.03
-0.19
-0.29
-0.12
0.37
1.03
1.61
1.89
1.82
1.49
1.11
0.83
0.70
0.66
0.60
0.44
0.20
-0.04
-0.19
-0.19
-0.11
-0.03
-0.06
-0.23
-0.51
-0.75
-0.81
-0.63
-0.24
0.22
0.56
0.67
0.52
0.20
-0.11
-0.31
-0.34
-0.27
-0.18
-0.18
-0.31
-0.51
-0.69
-0.77
-0.73
-0.64
-0.60
-0.69
-0.90
-1.11
-1.17
-0.99
-0.61
-0.16
0.16
0.24
0.07
-0.20
-0.42
-0.46
-0.30
-0.03
0.19
0.28
0.20
0.03
-0.09
-0.07
0.09
0.34
0.55
0.63
0.58
0.42
0.24
0.10
-0.02
-0.12
-0.23
-0.30
-0.28
-0.13
0.14
0.44
0.61
0.55
0.23
-0.26
-0.74
-1.04
-1.06
-0.80
-0.37
0.09
0.46
0.67
0.74
0.71
0.63
0.55
0.44
0.32
0.18
0.04
-0.09
-0.21
-0.34
-0.48
-0.61
-0.65
-0.54
-0.24
0.21
0.70
1.08
1.25
1.18
0.90
0.47
-0.05
-0.61
-1.15
-1.56
-1.73
-1.58
-1.13
-0.54
-0.02
0.26
0.22
-0.09
-0.54
-0.96
-1.23
-1.21
-0.86
-0.21
0.64
1.47
2.06
2.26
2.04
1.51
0.89
0.37
0.08
0.05
0.17
0.36
0.50
0.53
0.43
0.22
-0.03
-0.24
-0.37
-0.43
-0.44
-0.45
-0.49
-0.54
-0.55
-0.49
-0.32
-0.08
0.19
0.41
0.51
0.46
0.30
0.08
-0.12
-0.26
-0.31
-0.31
-0.27
-0.22
-0.17
-0.16
-0.21
-0.33
-0.51
-0.68
-0.77
-0.72
-0.54
-0.29
-0.03
0.17
0.30
0.37
0.39
0.36
0.26
0.11
-0.05
-0.16
-0.17
-0.09
0.03
0.10
0.06
-0.10
-0.32
-0.53
-0.68
-0.75
-0.78
-0.83
-0.93
-1.09
-1.27
-1.45
-1.59
-1.68
-1.78
-1.94
-2.21
-2.57
-2.95
-3.25
-3.41
-3.48
-3.55
-3.72
-4.02
-4.36
-4.58
-4.55
-4.23
-3.70
-3.09
-2.49
-1.93
-1.33
-0.62
0.26
1.23
2.22
3.19
4.16
5.21
6.38
7.54
8.43
8.74
8.27
7.00
5.11
2.96
0.88
-0.84
-2.04
-2.66
-2.69
-2.17
-1.20
0.08
1.44
2.68
3.57
3.97
3.80
3.06
1.88
0.45
-0.98
-2.18
-2.99
-3.34
-3.24
-2.78
-2.08
-1.26
-0.41
0.43
1.21
1.83
2.13
1.91
1.01
-0.56
-2.54
-4.42
-5.63
-5.74
-4.66
-2.61
-0.06
2.49
4.66
6.21
7.06
7.17
6.54
5.24
3.40
1.27
-0.86
-2.66
-3.88
-4.33
-3.96
-2.82
-1.13
0.80
2.61
3.99
4.73
4.77
4.21
3.24
2.10
0.99
0.03
-0.70
-1.20
-1.48
-1.53
-1.34
-0.87
-0.13
0.79
1.78
2.66
3.30
3.59
3.48
3.01
2.23
1.30
0.34
-0.51
-1.21
-1.76
-2.20
-2.56
-2.78
-2.77
-2.49
-1.95
-1.26
-0.57
0.05
0.58
1.06
1.54
1.95
2.19
2.10
1.60
0.73
-0.38
-1.52
-2.51
-3.17
-3.36
-3.01
-2.15
-0.87
0.61
2.03
3.18
3.85
3.94
3.43
2.40
1.03
-0.43
-1.69
-2.52
-2.87
-2.83
-2.62
-2.47
-2.52
-2.77
-3.11
-3.39
-3.46
-3.21
-2.59
-1.63
-0.39
0.99
2.31
3.36
3.98
4.05
3.59
2.65
1.40
0.01
-1.30
-2.37
-3.09
-3.40
-3.29
-2.77
-1.88
-0.66
0.79
2.32
3.70
4.71
5.11
4.77
3.72
2.10
0.21
-1.61
-3.04
-3.87
-4.04
-3.58
-2.65
-1.42
-0.11
1.08
1.91
2.21
1.93
1.14
0.05
-1.11
-2.17
-3.08
-3.84
-4.48
-4.98
-5.24
-5.17
-4.72
-3.93
-2.87
-1.68
-0.52
0.44
1.02
1.10
0.67
-0.12
-0.99
-1.70
-2.10
-2.20
-2.08
-1.82
-1.42
-0.84
-0.04
0.85
1.63
2.05
2.00
1.53
0.89
0.36
0.15
0.26
0.58
0.91
1.09
1.07
0.89
0.64
0.43
0.34
0.40
0.62
0.92
1.22
1.41
1.43
1.31
1.13
0.98
0.90
0.83
0.70
0.45
0.13
-0.11
-0.12
0.15
0.62
1.10
1.42
1.53
1.51
1.52
1.65
1.88
2.11
2.20
2.09
1.80
1.43
1.08
0.81
0.60
0.42
0.25
0.10
0.04
0.15
0.44
0.87
1.31
1.60
1.60
1.29
0.75
0.16
-0.29
-0.52
-0.54
-0.46
-0.40
-0.43
-0.56
-0.76
-0.99
-1.22
-1.47
-1.72
-1.91
-1.95
-1.78
-1.42
-0.93
-0.43
-0.05
0.17
0.26
0.30
0.38
0.55
0.80
1.06
1.26
1.36
1.35
1.26
1.14
1.04
1.00
1.06
1.20
1.39
1.57
1.67
1.60
1.33
0.88
0.30
-0.31
-0.87
-1.29
-1.49
-1.44
-1.18
-0.82
-0.49
-0.32
-0.37
-0.62
-0.97
-1.31
-1.56
-1.68
-1.70
-1.65
-1.58
-1.54
-1.56
-1.64
-1.75
-1.82
-1.79
-1.63
-1.35
-1.04
-0.76
-0.59
-0.55
-0.66
-0.90
-1.26
-1.69
-2.11
-2.42
-2.57
-2.57
-2.49
-2.42
-2.44
-2.54
-2.71
-2.90
-3.09
-3.27
-3.41
-3.48
-3.43
-3.20
-2.76
-2.17
-1.47
-0.72
0.03
0.81
1.62
2.45
3.27
4.03
4.69
5.25
5.71
6.03
6.18
6.07
5.67
5.07
4.45
4.03
3.97
4.31
4.88
5.42
5.66
5.44
4.71
3.55
2.10
0.50
-1.04
-2.31
-3.08
-3.16
-2.52
-1.29
0.22
1.64
2.65
3.07
2.87
2.20
1.24
0.25
-0.55
-1.01
-1.08
-0.82
-0.37
0.09
0.42
0.53
0.42
0.14
-0.22
-0.59
-0.89
-1.05
-1.02
-0.83
-0.52
-0.21
0.01
0.09
0.05
-0.06
-0.15
-0.16
-0.06
0.13
0.35
0.55
0.65
0.60
0.39
0.07
-0.28
-0.58
-0.77
-0.85
-0.85
-0.80
-0.70
-0.54
-0.29
0.04
0.40
0.73
0.93
0.99
0.91
0.75
0.58
0.47
0.43
0.44
0.47
0.50
0.53
0.57
0.66
0.80
0.99
1.19
1.40
1.64
1.95
2.33
2.72
2.98
2.95
2.55
1.87
1.13
0.59
0.38
0.40
0.40
0.12
-0.54
-1.45
-2.29
-2.78
-2.78
-2.39
-1.84
-1.34
-0.98
-0.74
-0.53
-0.26
0.06
0.39
0.71
0.98
1.18
1.26
1.20
0.97
0.64
0.31
0.10
0.06
0.16
0.29
0.36
0.32
0.27
0.26
0.28
0.20
-0.22
-1.11
-2.43
-3.94
-5.30
-6.30
-6.90
-7.21
-7.32
-7.18
-6.61
-5.43
-3.64
-1.53
0.45
1.82
2.36
2.16
1.51
0.74
0.04
-0.61
-1.24
-1.82
-2.15
-1.95
-1.07
0.35
1.85
2.84
2.86
1.85
0.17
-1.57
-2.86
-3.51
-3.69
-3.75
-3.89
-4.05
-3.94
-3.27
-2.01
-0.48
0.82
1.48
1.48
1.16
1.04
1.47
2.49
3.85
5.25
6.56
7.78
8.96
9.93
10.33
9.85
8.49
6.70
5.20
4.53
4.67
4.92
4.30
2.08
-1.69
-6.09
-9.74
-11.45
-10.78
-8.24
-5.02
-2.48
-1.54
-2.40
-4.57
-7.20
-9.49
-10.98
-11.64
-11.74
-11.54
-11.19
-10.59
-9.53
-7.84
-5.51
-2.69
0.36
3.41
6.41
9.32
12.07
14.39
15.83
15.94
14.55
11.89
8.67
5.74
3.82
3.14
3.43
4.08
4.48
4.33
3.69
2.87
2.10
1.38
0.51
-0.68
-2.09
-3.26
-3.61
-2.80
-1.00
1.09
2.61
2.98
2.25
1.05
0.20
0.26
1.27
2.79
4.25
5.30
5.94
6.33
6.57
6.44
5.56
3.62
0.72
-2.55
-5.40
-7.25
-8.09
-8.49
-9.23
-10.71
-12.63
-14.02
-13.82
-11.47
-7.32
-2.53
1.42
3.42
3.16
1.15
-1.68
-4.50
-6.88
-8.81
-10.44
-11.77
-12.57
-12.52
-11.41
-9.37
-6.82
-4.30
-2.13
-0.27
1.64
4.02
7.05
10.49
13.74
16.07
16.90
16.04
13.64
10.18
6.27
2.51
-0.59
-2.70
-3.69
-3.67
-3.07
-2.44
-2.32
-2.93
-4.04
-5.02
-5.13
-3.82
-1.04
2.76
6.81
10.37
12.93
14.24
14.29
13.14
10.92
7.91
4.67
1.93
0.40
0.44
1.87
4.05
6.20
7.82
8.88
9.66
10.41
11.00
10.85
9.26
5.89
1.12
-4.07
-8.51
-11.52
-13.21
-14.42
-16.13
-18.87
-22.38
-25.73
-27.89
-28.24
-26.86
-24.37
-21.52
-18.82
-16.39
-14.06
-11.63
-9.07
-6.45
-3.93
-1.58
0.59
2.63
4.51
6.17
7.51
8.46
9.02
9.26
9.30
9.29
9.38
9.66
10.16
10.76
11.20
11.19
10.55
9.33
7.84
6.49
5.60
5.20
5.07
4.86
4.28
3.24
1.83
0.22
-1.38
-2.70
-3.42
-3.16
-1.71
0.76
3.53
5.55
5.89
4.17
0.89
-2.79
-5.53
-6.50
-5.66
-3.75
-1.84
-0.86
-1.20
-2.72
-4.90
-7.14
-8.98
-10.22
-10.83
-10.93
-10.69
-10.21
-9.57
-8.80
-7.98
-7.25
-6.71
-6.34
-5.89
-4.88
-2.77
0.63
5.01
9.46
12.88
14.41
13.90
11.90
9.45
7.57
6.79
7.00
7.60
7.87
7.30
5.86
3.92
2.05
0.72
0.14
0.22
0.65
1.12
1.42
1.55
1.59
1.68
1.87
2.11
2.32
2.42
2.39
2.28
2.16
2.11
2.17
2.29
2.40
2.43
2.35
2.18
1.93
1.66
1.39
1.14
0.93
0.77
0.64
0.50
0.30
-0.03
-0.48
-0.96
-1.37
-1.61
-1.68
-1.65
-1.64
-1.72
-1.87
-2.00
-2.01
-1.80
-1.37
-0.79
-0.20
0.30
0.64
0.83
0.97
1.14
1.41
1.78
2.22
2.68
3.12
3.54
3.94
4.30
4.55
4.61
4.46
4.14
3.75
3.43
3.27
3.26
3.33
3.39
3.40
3.41
3.47
3.61
3.80
3.92
3.83
3.39
2.52
1.20
-0.53
-2.54
-4.66
-6.61
-8.11
-8.94
-9.04
-8.54
-7.72
-6.92
-6.36
-6.09
-5.97
-5.80
-5.40
-4.71
-3.80
-2.82
-1.87
-1.02
-0.25
0.54
1.41
2.36
3.27
3.95
4.22
4.03
3.51
2.97
2.71
2.91
3.54
4.34
5.01
5.30
5.18
4.72
4.15
3.66
3.45
3.63
4.23
5.18
6.30
7.37
8.18
8.68
9.00
9.41
10.22
11.59
13.45
15.52
17.43
18.85
19.61
19.82
19.84
20.20
21.45
24.05
28.02
32.84
37.33
39.94
39.23
34.52
26.30
16.27
6.77
0.04
-2.56
-0.90
4.00
10.48
16.82
21.79
24.83
26.13
26.44
26.81
28.19
31.08
35.33
40.20
44.64
47.71
48.85
48.06
45.84
42.98
40.48
39.32
40.37
44.27
51.36
61.62
74.68
89.79
105.86
121.47
134.89
144.34
148.27
145.68
136.32
120.69
99.81
74.95
47.45
18.59
-10.34
-38.04
-63.23
-84.80
-102.04
-114.84
-123.68
-129.47
-133.27
-135.90
-137.83
-139.09
-139.56
-139.15
-137.92
-136.07
-133.81
-131.16
-128.00
-124.14
-119.54
-114.37
-108.99
-103.78
-98.99
-94.60
-90.42
-86.19
-81.78
-77.27
-72.98
-69.29
-66.48
-64.53
-63.08
-61.56
-59.38
-56.17
-51.88
-46.78
-41.24
-35.63
-30.11
-24.71
-19.36
-14.07
-8.97
-4.24
-0.10
3.34
6.09
8.23
9.90
11.12
11.83
11.85
10.99
9.20
6.60
3.50
0.31
-2.57
-4.87
-6.43
-7.22
-7.27
-6.69
-5.72
-4.69
-3.96
-3.80
-4.25
-5.11
-5.99
-6.50
-6.41
-5.73
-4.65
-3.46
-2.34
-1.31
-0.26
0.93
2.26
3.54
4.40
4.46
3.50
1.59
-0.98
-3.71
-6.10
-7.72
-8.29
-7.60
-5.57
-2.19
2.46
8.19
14.79
22.10
30.07
38.76
48.30
58.76
70.09
82.11
94.50
106.85
118.63
129.19
137.83
143.89
147.01
147.28
145.27
141.83
137.79
133.72
129.79
125.83
121.46
116.29
109.98
102.34
93.35
83.14
72.00
60.23
48.12
35.90
23.77
11.93
0.63
-9.83
-19.20
-27.28
-33.94
-39.05
-42.48
-44.13
-44.07
-42.60
-40.27
-37.78
-35.76
-34.67
-34.63
-35.70
-37.65
-39.94
-41.93
-43.14
-43.42
-42.88
-41.79
-40.42
-39.24
-38.61
-38.73
-39.61
-41.16
-43.13
-45.08
-46.44
-46.71
-46.17
-45.32
-44.52
-43.79
-43.03
-42.07
-40.71
-38.79
-36.35
-34.90
-35.48
-37.73
-40.15
-41.32
-40.71
-38.78
-36.58
-35.30
-38.54
-48.10
-62.44
-77.60
-89.96
-97.97
-102.09
-103.85
-104.95
-110.89
-124.52
-143.73
-162.88
-177.04
-184.50
-186.52
-185.93
-185.98
-195.09
-218.44
-254.66
-297.10
-338.54
-373.84
-399.39
-412.04
-373.87
-269.74
-118.80
37.02
163.27
246.72
290.28
304.50
301.71
292.25
277.00
255.15
228.63
202.52
181.57
167.99
161.59
160.63
162.77
161.15
151.35
134.22
114.88
98.56
87.96
83.17
82.69
84.40
83.53
77.13
65.74
52.75
41.66
34.48
31.11
30.65
31.82
32.03
29.61
24.66
18.75
13.56
10.01
8.20
7.75
8.00
7.86
6.64
4.42
1.92
-0.16
-1.42
-1.94
-1.96
-1.83
-1.82
-2.01
-2.32
-2.54
-2.46
-1.94
-0.97
0.34
1.83
3.28
4.56
5.57
6.28
6.72
6.90
6.88
6.75
6.61
6.57
6.70
6.98
7.32
7.62
7.76
7.69
7.42
7.00
6.46
5.84
5.18
4.51
3.92
3.47
3.20
3.06
2.93
2.66
2.15
1.41
0.53
-0.34
-1.10
-1.68
-2.13
-2.48
-2.71
-2.74
-2.41
-1.62
-0.35
1.33
3.27
5.29
7.21
8.78
9.74
9.84
9.02
7.43
5.44
3.54
2.18
1.57
1.65
2.12
2.63
2.93
2.91
2.62
2.16
1.61
1.01
0.40
-0.18
-0.71
-1.16
-1.55
-1.95
-2.46
-3.18
-4.12
-5.23
-6.37
-7.40
-8.21
-8.74
-9.00
-8.99
-8.72
-8.16
-7.31
-6.19
-4.92
-3.64
-2.52
-1.62
-0.91
-0.25
0.52
1.50
2.72
4.11
5.55
6.86
7.85
8.33
8.19
7.50
6.51
5.63
5.20
5.39
6.08
6.97
7.74
8.22
8.40
8.37
8.19
7.85
7.30
6.52
5.66
4.96
4.70
5.01
5.83
6.92
7.93
8.58
8.66
8.14
7.15
5.90
4.63
3.56
2.91
2.85
3.45
4.59
5.86
6.64
6.33
4.60
1.68
-1.74
-4.79
-6.79
-7.54
-7.30
-6.57
-5.78
-5.10
-4.47
-3.83
-3.27
-3.04
-3.38
-4.31
-5.53
-6.49
-6.67
-5.78
-3.92
-1.52
0.87
2.82
4.15
5.06
5.88
7.01
8.66
10.88
13.48
16.11
18.32
19.65
19.74
18.50
16.21
13.43
10.83
8.99
8.17
8.25
8.90
9.69
10.22
10.20
9.45
7.94
5.80
3.35
1.08
-0.52
-1.11
-0.68
0.51
1.92
2.97
3.17
2.30
0.47
-1.90
-4.13
-5.47
-5.36
-3.74
-1.14
1.38
2.59
1.67
-1.42
-5.81
-10.12
-13.00
-13.78
-12.58
-10.18
-7.50
-5.15
-3.27
-1.72
-0.36
0.69
1.20
0.97
0.13
-0.83
-1.31
-0.88
0.50
2.43
4.26
5.44
5.74
5.36
4.76
4.51
5.05
6.54
8.81
11.41
13.66
14.81
14.30
12.04
8.49
4.64
1.60
0.18
0.62
2.48
4.93
7.10
8.38
8.56
7.68
5.98
3.79
1.53
-0.33
-1.37
-1.37
-0.40
1.11
2.58
3.46
3.41
2.35
0.52
-1.66
-3.58
-4.63
-4.39
-2.85
-0.61
1.27
1.60
-0.35
-4.47
-9.78
-14.83
-18.31
-19.57
-18.69
-16.28
-13.10
-9.70
-6.39
-3.40
-0.95
0.68
1.36
1.23
0.75
0.51
0.94
2.15
3.86
5.61
6.94
7.65
7.85
7.88
8.14
9.01
10.70
13.21
16.26
19.17
21.04
20.89
18.13
12.86
6.02
-0.87
-6.27
-9.14
-9.31
-7.39
-4.37
-1.22
1.39
3.08
3.67
3.12
1.59
-0.50
-2.49
-3.63
-3.42
-1.82
0.68
3.25
4.99
5.31
4.11
1.79
-0.87
-2.97
-3.73
-2.83
-0.54
2.17
3.90
3.35
-0.11
-6.07
-13.15
-19.49
-23.52
-24.47
-22.60
-18.90
-14.57
-10.55
-7.37
-5.18
-4.00
-3.79
-4.41
-5.50
-6.46
-6.61
-5.43
-2.89
0.57
4.17
7.15
9.06
9.94
10.28
10.77
12.08
14.73
18.80
23.83
28.65
31.61
31.03
26.03
17.07
6.05
-4.34
-11.69
-14.80
-14.06
-11.03
-7.57
-5.01
-3.89
-4.03
-5.04
-6.54
-8.28
-10.00
-11.32
-11.84
-11.28
-9.70
-7.47
-5.21
-3.52
-2.82
-3.16
-4.22
-5.38
-5.96
-5.56
-4.34
-3.12
-3.07
-5.23
-9.86
-16.19
-22.64
-27.44
-29.45
-28.57
-25.69
-22.18
-19.20
-17.23
-16.13
-15.43
-14.74
-14.05
-13.60
-13.68
-14.32
-15.18
-15.64
-15.03
-12.83
-8.92
-3.55
2.72
9.19
15.13
19.98
23.36
25.15
25.40
24.41
22.72
21.12
20.52
21.62
24.53
28.55
32.30
34.25
33.40
29.86
24.81
20.02
17.01
16.42
17.72
19.59
20.61
19.77
16.87
12.32
6.97
1.69
-2.82
-6.17
-8.20
-9.01
-8.80
-7.91
-6.70
-5.51
-4.64
-4.20
-4.14
-4.20
-4.09
-3.55
-2.48
-0.92
1.01
3.24
5.79
8.72
11.90
14.94
17.21
18.02
16.99
14.43
11.32
9.00
8.56
10.14
12.71
14.37
13.25
8.54
1.15
-6.48
-11.33
-11.21
-5.90
2.59
10.94
15.93
16.03
12.16
7.04
4.03
5.62
12.55
23.73
36.57
47.19
50.87
42.79
19.83
-17.11
-61.59
-102.40
-127.10
-127.14
-101.83
-59.05
-11.89
26.98
50.21
57.58
54.12
46.17
37.83
29.77
20.42
8.27
-6.30
-20.76
-31.85
-37.26
-36.83
-32.73
-28.08
-25.44
-25.59
-27.26
-28.01
-25.73
-19.87
-11.75
-3.96
1.01
1.93
-0.61
-4.64
-7.79
-8.40
-6.21
-2.30
1.58
3.91
4.10
2.69
0.90
0.03
0.72
2.77
5.28
7.10
7.43
6.08
3.52
0.64
-1.64
-2.72
-2.50
-1.30
0.28
1.65
2.39
2.40
1.86
1.09
0.40
-0.06
-0.27
-0.37
-0.51
-0.78
-1.14
-1.52
-1.84
-2.10
-2.31
-2.54
-2.80
-3.07
-3.29
-3.42
-3.42
-3.27
-2.97
-2.50
-1.87
-1.12
-0.30
0.49
1.21
1.81
2.26
2.49
2.42
1.95
1.07
-0.13
-1.43
-2.58
-3.39
-3.84
-4.04
-4.20
-4.52
-5.08
-5.93
-7.08
-8.55
-10.32
-12.27
-14.16
-15.70
-16.67
-17.04
-16.96
-16.72
-16.53
-16.45
-16.34
-15.98
-15.27
-14.25
-13.14
-12.22
-11.68
-11.55
-11.73
-12.05
-12.35
-12.54
-12.62
-12.60
-12.46
-12.11
-11.40
-10.16
-8.30
-5.88
-3.12
-0.38
1.95
3.57
4.37
4.48
4.24
4.07
4.39
5.50
7.54
10.42
13.91
17.63
21.17
24.16
26.35
27.66
28.15
28.02
27.53
26.92
26.33
25.76
25.00
23.78
21.83
19.08
15.70
12.14
8.89
6.37
4.69
3.69
3.08
2.57
2.01
1.46
1.09
1.10
1.53
2.19
2.89
3.48
3.94
4.39
4.94
5.69
6.66
7.68
8.51
9.11
9.81
11.08
13.34
16.65
20.75
25.15
29.11
31.99
33.57
34.23
34.55
35.03
35.81
36.80
37.78
38.07
36.63
32.34
24.33
12.13
-4.25
-24.14
-46.14
-66.31
-79.98
-84.61
-81.00
-72.04
-60.74
-49.17
-38.48
-28.97
-20.52
-13.22
-7.36
-3.16
-0.47
1.01
1.58
1.44
1.23
1.83
3.57
6.08
8.36
9.33
8.24
4.77
-1.14
-8.71
-16.65
-23.61
-28.41
-30.16
-28.52
-23.88
-16.08
-7.66
-1.18
2.17
2.65
1.42
-0.34
-2.31
-4.29
-6.17
-7.86
-8.80
-8.44
-6.72
-4.20
-1.75
-0.18
0.18
-0.32
-1.36
-2.36
-2.83
-2.63
-1.98
-1.29
-0.94
-1.07
-1.57
-2.36
-3.17
-3.75
-3.99
-3.98
-3.82
-3.63
-3.44
-3.22
-3.03
-2.82
-2.55
-2.22
-1.88
-1.60
-1.46
-1.51
-1.76
-2.22
-2.82
-3.46
-4.04
-4.51
-4.81
-4.88
-4.70
-4.27
-3.60
-2.80
-1.98
-1.27
-0.78
-0.53
-0.49
-0.54
-0.57
-0.44
-0.09
0.51
1.31
2.22
3.12
3.90
4.52
5.01
5.48
6.12
7.05
8.27
9.57
10.57
10.79
9.88
7.75
4.61
0.92
-2.80
-6.11
-8.77
-10.71
-11.95
-12.60
-12.80
-12.74
-12.64
-12.70
-12.97
-13.31
-13.41
-12.99
-11.88
-10.19
-8.18
-6.18
-4.44
-3.05
-1.99
-1.20
-0.64
-0.29
-0.12
0.05
0.54
1.70
3.79
6.78
10.28
13.67
16.22
17.41
17.06
15.36
12.78
9.86
7.05
4.66
2.85
1.71
1.28
1.53
2.32
3.43
4.60
5.61
6.32
6.67
6.64
6.25
5.55
4.66
3.82
3.35
3.51
4.42
5.97
7.89
9.79
11.32
12.21
12.32
11.61
10.20
8.34
6.42
4.82
3.80
3.33
3.14
2.81
2.00
0.60
-1.24
-3.25
-5.18
-6.94
-8.50
-9.83
-10.77
-11.08
-10.59
-9.33
-7.64
-5.99
-4.84
-4.35
-4.37
-4.51
-4.37
-3.79
-2.90
-2.05
-1.56
-1.58
-1.96
-2.42
-2.65
-2.53
-2.10
-1.54
-1.00
-0.51
0.02
0.68
1.49
2.33
3.02
3.39
3.41
3.21
3.01
3.02
3.34
3.91
4.57
5.16
5.56
5.74
5.74
5.63
5.46
5.24
4.96
4.54
3.96
3.20
2.33
1.45
0.66
0.04
-0.39
-0.69
-0.91
-1.09
-1.29
-1.56
-1.98
-2.64
-3.54
-4.58
-5.57
-6.22
-6.30
-5.73
-4.62
-3.24
-1.97
-1.10
-0.76
-0.84
-1.01
-0.87
-0.13
1.25
3.06
4.94
6.49
7.46
7.78
7.53
6.90
6.12
5.40
4.90
4.67
4.65
4.64
4.44
3.89
2.98
1.80
0.51
-0.73
-1.84
-2.75
-3.40
-3.72
-3.65
-3.23
-2.66
-2.19
-2.04
-2.26
-2.70
-3.07
-3.06
-2.51
-1.45
-0.10
1.22
2.28
2.92
3.15
3.04
2.70
2.26
1.83
1.53
1.42
1.53
1.79
2.07
2.27
2.30
2.21
2.05
1.92
1.85
1.82
1.76
1.64
1.44
1.15
0.81
0.42
0.00
-0.43
-0.81
-1.11
-1.30
-1.38
-1.39
-1.31
