1660333088.00
64.000000
-0.00
-0.00
-0.00
-0.00
-0.00
-0.00
-0.00
-0.00
-0.00
-0.00
0.00
0.01
0.01
-0.00
-0.03
-0.05
-0.05
0.00
0.13
0.36
0.66
1.01
1.37
1.72
2.06
2.40
2.79
3.24
3.80
4.42
5.06
5.67
6.20
6.68
7.14
7.67
8.32
9.18
10.15
11.10
11.88
12.43
12.81
13.20
13.86
14.98
16.81
19.13
21.65
24.03
26.08
27.88
29.77
32.23
35.61
40.31
45.94
51.90
57.52
62.38
66.55
70.59
75.33
81.40
89.35
98.60
108.14
116.86
124.07
129.80
134.89
140.98
147.06
155.46
166.59
180.17
194.51
206.42
211.59
205.79
186.23
152.59
107.43
54.31
-3.10
-62.33
-122.34
-182.81
-243.28
-302.59
-359.14
-411.12
-457.82
-499.15
-535.30
-566.21
-591.19
-608.94
-617.40
-613.95
-595.34
-558.94
-503.46
-430.18
-343.32
-249.31
-155.14
-66.57
12.86
81.93
140.54
188.83
226.65
253.83
270.80
278.97
280.55
277.84
272.59
265.61
256.97
246.35
233.66
219.32
204.17
189.29
175.54
163.24
152.14
141.56
130.72
119.14
106.82
94.25
82.15
71.19
61.70
53.58
46.43
39.78
33.29
26.92
20.93
15.76
11.78
9.23
7.89
7.29
6.78
5.83
4.10
1.59
-1.43
-4.53
-7.33
-9.58
-11.22
-12.30
-12.87
-12.93
-12.44
-11.41
-9.96
-8.33
-6.85
-5.78
-5.23
-5.13
-5.29
-5.49
-5.61
-5.59
-5.47
-5.33
-5.20
-5.09
-5.02
-4.99
-4.98
-4.99
-4.92
-4.66
-4.07
-3.05
-1.62
0.06
1.71
3.00
3.65
3.55
2.75
1.47
-0.05
-1.57
-2.91
-3.96
-4.63
-4.88
-4.66
-4.00
-2.97
-1.76
-0.63
0.19
0.53
0.41
-0.03
-0.56
-0.95
-1.08
-1.00
-0.82
-0.72
-0.80
-1.07
-1.45
-1.81
-2.03
-1.97
-1.50
-0.50
1.03
2.95
4.95
6.59
7.48
7.42
6.53
5.14
3.66
2.44
1.60
1.08
0.74
0.47
0.25
0.16
0.24
0.44
0.55
0.32
-0.37
-1.45
-2.69
-3.74
-4.40
-4.65
-4.66
-4.68
-4.87
-5.23
-5.64
-5.97
-6.10
-6.00
-5.63
-4.91
-3.74
-2.10
-0.14
1.78
3.24
3.90
3.67
2.72
1.39
0.02
-1.17
-2.14
-2.94
-3.61
-4.10
-4.30
-4.09
-3.45
-2.47
-1.34
-0.27
0.57
1.05
1.15
0.89
0.39
-0.21
-0.77
-1.14
-1.29
-1.26
-1.18
-1.18
-1.33
-1.58
-1.75
-1.63
-0.97
0.35
2.32
4.79
7.49
10.11
12.35
13.99
14.67
14.22
12.70
10.33
7.46
4.45
1.58
-0.99
-3.19
-4.99
-6.27
-6.95
-6.97
-6.43
-5.54
-4.59
-3.88
-3.55
-3.62
-3.92
-4.26
-4.48
-4.51
-4.43
-4.35
-4.42
-4.76
-5.44
-6.41
-7.54
-8.59
-9.21
-9.06
-7.88
-5.63
-2.50
1.04
4.46
7.25
9.09
9.86
9.67
8.77
7.39
5.77
4.07
2.44
1.03
-0.03
-0.65
-0.81
-0.66
-0.45
-0.44
-0.78
-1.38
-2.00
-2.32
-2.16
-1.60
-0.93
-0.54
-0.69
-1.41
-2.56
-3.89
-5.17
-6.25
-6.92
-6.97
-6.13
-4.20
-1.23
2.44
6.25
9.56
11.93
13.17
13.37
12.74
11.51
9.82
7.74
5.36
2.83
0.38
-1.73
-3.27
-4.15
-4.42
-4.24
-3.87
-3.53
-3.36
-3.36
-3.44
-3.49
-3.42
-3.30
-3.25
-3.44
-3.97
-4.79
-5.67
-6.24
-6.07
-4.78
-2.17
1.73
6.59
11.86
16.86
21.02
24.04
25.89
26.81
27.03
26.63
25.52
23.49
20.47
16.64
12.47
8.57
5.42
3.22
1.83
0.87
-0.12
-1.47
-3.32
-5.64
-8.29
-11.15
-14.13
-17.21
-20.35
-23.48
-26.47
-29.18
-31.44
-33.06
-33.90
-33.82
-32.76
-30.73
-27.87
-24.38
-20.54
-16.64
-12.91
-9.53
-6.67
-4.44
-2.92
-2.10
-1.89
-2.13
-2.59
-3.04
-3.26
-3.13
-2.63
-1.86
-1.00
-0.25
0.27
0.53
0.68
0.87
1.24
1.80
2.40
2.82
2.84
2.37
1.47
0.30
-0.89
-1.87
-2.43
-2.37
-1.52
0.23
2.90
6.34
10.18
13.90
16.92
18.81
19.32
18.44
16.35
13.33
9.72
5.89
2.22
-0.98
-3.47
-5.19
-6.27
-6.91
-7.34
-7.68
-7.95
-8.06
-7.92
-7.48
-6.78
-5.90
-4.99
-4.20
-3.74
-3.78
-4.42
-5.56
-6.89
-7.87
-7.92
-6.59
-3.72
0.47
5.43
10.48
14.90
18.19
20.05
20.49
19.67
17.91
15.54
12.90
10.29
7.91
5.91
4.29
3.00
1.86
0.72
-0.56
-1.96
-3.37
-4.57
-5.42
-5.88
-6.10
-6.30
-6.72
-7.55
-8.77
-10.23
-11.60
-12.41
-12.18
-10.52
-7.33
-2.85
2.35
7.53
11.97
15.21
17.13
17.88
17.75
17.01
15.82
14.26
12.42
10.39
8.38
6.56
5.08
3.97
3.14
2.47
1.81
1.11
0.41
-0.20
-0.64
-0.96
-1.25
-1.65
-2.27
-3.17
-4.30
-5.60
-6.99
-8.38
-9.60
-10.42
-10.55
-9.74
-7.90
-5.15
-1.85
1.55
4.64
7.11
8.77
9.54
9.41
8.41
6.66
4.36
1.84
-0.57
-2.51
-3.71
-4.04
-3.55
-2.45
-1.07
0.22
1.13
1.50
1.36
0.90
0.35
-0.16
-0.59
-1.04
-1.67
-2.66
-4.08
-5.87
-7.80
-9.46
-10.43
-10.33
-8.96
-6.43
-3.08
0.57
4.00
6.77
8.61
9.38
9.07
7.78
5.69
3.12
0.45
-1.86
-3.46
-4.14
-3.94
-3.09
-1.96
-0.94
-0.29
-0.11
-0.31
-0.70
-1.08
-1.35
-1.55
-1.83
-2.40
-3.42
-4.92
-6.73
-8.55
-9.92
-10.35
-9.48
-7.16
-3.52
0.98
5.72
10.01
13.34
15.40
16.16
15.77
14.42
12.33
9.75
6.95
4.27
2.05
0.57
-0.06
0.11
0.88
1.99
3.19
4.31
5.21
5.81
6.08
6.01
5.62
4.93
3.89
2.40
0.39
-2.15
-5.07
-8.04
-10.59
-12.21
-12.51
-11.33
-8.83
-5.47
-1.88
1.27
3.54
4.70
4.82
4.09
2.76
1.05
-0.86
-2.78
-4.46
-5.68
-6.26
-6.17
-5.56
-4.70
-3.88
-3.33
-3.14
-3.27
-3.57
-3.88
-4.11
-4.23
-4.36
-4.63
-5.17
-6.05
-7.25
-8.62
-9.92
-10.76
-10.70
-9.33
-6.42
-2.12
3.06
8.33
12.87
16.09
17.78
18.10
17.35
15.87
13.88
11.53
8.97
6.44
4.24
2.65
1.78
1.56
1.76
2.06
2.21
2.06
1.64
1.09
0.57
0.23
0.09
0.05
-0.07
-0.45
-1.25
-2.53
-4.19
-6.01
-7.66
-8.70
-8.69
-7.31
-4.47
-0.35
4.51
9.42
13.65
16.67
18.24
18.45
17.57
15.92
13.76
11.27
8.59
5.90
3.43
1.40
-0.05
-0.92
-1.37
-1.62
-1.89
-2.27
-2.78
-3.36
-3.93
-4.46
-4.88
-5.18
-5.34
-5.40
-5.44
-5.58
-5.96
-6.64
-7.55
-8.46
-9.03
-8.91
-7.85
-5.80
-2.96
0.29
3.51
6.28
8.30
9.39
9.50
8.63
6.88
4.43
1.59
-1.29
-3.84
-5.79
-7.02
-7.54
-7.50
-7.10
-6.57
-6.11
-5.87
-5.90
-6.13
-6.42
-6.61
-6.60
-6.43
-6.25
-6.28
-6.67
-7.45
-8.47
-9.46
-10.07
-9.97
-8.93
-6.87
-3.91
-0.36
3.34
6.72
9.43
11.25
12.14
12.16
11.39
9.93
7.90
5.49
3.01
0.77
-0.92
-1.96
-2.38
-2.38
-2.18
-1.97
-1.85
-1.81
-1.82
-1.85
-1.90
-2.02
-2.31
-2.86
-3.77
-5.06
-6.66
-8.38
-9.88
-10.76
-10.66
-9.38
-6.94
-3.64
0.09
3.73
6.89
9.30
10.85
11.53
11.38
10.48
8.96
7.02
4.94
2.99
1.43
0.39
-0.10
-0.16
0.04
0.27
0.32
0.07
-0.50
-1.27
-2.08
-2.74
-3.20
-3.48
-3.75
-4.15
-4.83
-5.78
-6.87
-7.78
-8.15
-7.62
-5.95
-3.16
0.47
4.42
8.12
11.07
12.94
13.66
13.31
12.04
10.05
7.58
4.88
2.26
0.04
-1.55
-2.39
-2.56
-2.29
-1.86
-1.52
-1.44
-1.60
-1.86
-2.08
-2.11
-1.95
-1.73
-1.66
-1.96
-2.77
-4.10
-5.81
-7.67
-9.37
-10.57
-10.93
-10.19
-8.25
-5.20
-1.39
2.72
6.61
9.84
12.16
13.43
13.65
12.90
11.26
8.93
6.19
3.38
0.91
-0.88
-1.83
-1.97
-1.57
-1.02
-0.68
-0.78
-1.31
-2.07
-2.81
-3.35
-3.67
-3.90
-4.27
-4.95
-6.06
-7.60
-9.47
-11.45
-13.19
-14.20
-14.03
-12.37
-9.23
-4.99
-0.30
4.11
7.67
10.06
11.28
11.47
10.82
9.48
7.58
5.29
2.86
0.60
-1.16
-2.21
-2.51
-2.22
-1.65
-1.14
-0.93
-1.09
-1.52
-2.00
-2.32
-2.37
-2.24
-2.15
-2.40
-3.17
-4.50
-6.15
-7.68
-8.56
-8.36
-6.85
-4.07
-0.36
3.76
7.75
11.13
13.60
14.99
15.29
14.60
13.04
10.80
8.13
5.34
2.80
0.86
-0.30
-0.70
-0.58
-0.30
-0.18
-0.37
-0.81
-1.33
-1.77
-2.07
-2.33
-2.68
-3.25
-4.05
-5.03
-6.13
-7.28
-8.37
-9.21
-9.47
-8.76
-6.78
-3.48
0.81
5.44
9.66
12.84
14.68
15.24
14.80
13.67
12.08
10.12
7.87
5.51
3.34
1.66
0.67
0.34
0.41
0.57
0.55
0.29
-0.11
-0.49
-0.78
-1.02
-1.37
-2.00
-2.94
-4.15
-5.50
-6.89
-8.27
-9.61
-10.81
-11.61
-11.67
-10.62
-8.27
-4.78
-0.64
3.45
6.85
9.10
10.11
10.04
9.15
7.66
5.71
3.42
0.98
-1.29
-3.02
-3.88
-3.83
-3.07
-2.08
-1.33
-1.12
-1.45
-2.12
-2.79
-3.24
-3.42
-3.43
-3.48
-3.75
-4.35
-5.28
-6.48
-7.74
-8.80
-9.27
-8.79
-7.11
-4.25
-0.52
3.55
7.35
10.38
12.32
13.05
12.63
11.22
9.10
6.60
4.07
1.84
0.14
-0.90
-1.29
-1.12
-0.59
0.07
0.58
0.71
0.40
-0.26
-1.05
-1.74
-2.22
-2.56
-2.97
-3.68
-4.78
-6.21
-7.78
-9.15
-10.01
-10.00
-8.89
-6.60
-3.28
0.67
4.66
8.07
10.45
11.60
11.64
10.80
9.40
7.65
5.70
3.64
1.64
-0.07
-1.24
-1.70
-1.49
-0.85
-0.15
0.27
0.28
-0.10
-0.69
-1.34
-1.99
-2.68
-3.50
-4.51
-5.76
-7.23
-8.86
-10.46
-11.73
-12.26
-11.68
-9.79
-6.72
-2.89
1.10
4.70
7.55
9.50
10.55
10.73
10.03
8.43
6.04
3.18
0.36
-1.83
-2.92
-2.77
-1.60
0.08
1.70
2.81
3.23
3.05
2.51
1.89
1.41
1.16
1.13
1.20
1.16
0.80
-0.03
-1.38
-3.11
-4.85
-6.07
-6.16
-4.72
-1.68
2.58
7.23
11.33
14.04
14.96
14.15
12.05
9.25
6.27
3.43
0.91
-1.17
-2.68
-3.47
-3.46
-2.66
-1.23
0.57
2.44
4.13
5.43
6.24
6.50
6.24
5.52
4.47
3.23
1.91
0.62
-0.60
-1.73
-2.80
-3.78
-4.64
-5.23
-5.33
-4.67
-3.10
-0.65
2.40
5.53
8.17
9.88
10.51
10.16
9.11
7.68
6.07
4.36
2.53
0.58
-1.44
-3.46
-5.41
-7.26
-8.98
-10.56
-11.94
-12.99
-13.58
-13.57
-12.92
-11.70
-10.08
-8.31
-6.67
-5.36
-4.56
-4.35
-4.78
-5.81
-7.23
-8.70
-9.76
-9.93
-8.85
-6.48
-3.08
0.82
4.62
7.80
10.04
11.29
11.68
11.42
10.77
9.92
9.00
8.13
7.43
7.06
7.12
7.62
8.37
9.02
9.18
8.53
7.02
4.82
2.26
-0.29
-2.61
-4.62
-6.33
-7.81
-9.14
-10.39
-11.63
-12.89
-14.08
-14.95
-15.09
-14.07
-11.64
-7.91
-3.34
1.35
5.40
8.27
9.73
9.88
9.00
7.46
5.57
3.55
1.54
-0.38
-2.10
-3.49
-4.41
-4.72
-4.37
-3.42
-2.02
-0.40
1.24
2.71
3.91
4.73
5.11
5.02
4.46
3.49
2.26
0.90
-0.49
-1.88
-3.31
-4.78
-6.20
-7.25
-7.55
-6.72
-4.65
-1.50
2.24
5.97
9.15
11.43
12.63
12.71
11.64
9.51
6.50
2.93
-0.73
-4.01
-6.51
-8.05
-8.67
-8.59
-8.13
-7.58
-7.20
-7.08
-7.20
-7.44
-7.64
-7.70
-7.58
-7.35
-7.12
-7.00
-7.08
-7.40
-7.95
-8.61
-9.18
-9.31
-8.61
-6.72
-3.51
0.83
5.77
10.57
14.45
16.83
17.49
16.59
14.54
11.84
8.92
6.09
3.55
1.42
-0.21
-1.27
-1.79
-1.86
-1.68
-1.46
-1.39
-1.58
-1.99
-2.53
-3.10
-3.62
-4.07
-4.47
-4.83
-5.20
-5.64
-6.23
-7.06
-8.18
-9.50
-10.78
-11.58
-11.41
-9.89
-6.86
-2.57
2.43
7.36
11.48
14.24
15.48
15.39
14.42
13.06
11.64
10.34
9.15
8.08
7.21
6.67
6.56
6.87
7.42
7.92
8.11
7.87
7.23
6.29
5.13
3.81
2.34
0.79
-0.78
-2.26
-3.62
-4.88
-6.16
-7.56
-9.16
-10.91
-12.63
-13.94
-14.40
-13.56
-11.16
-7.28
-2.35
2.89
7.66
11.28
13.43
14.07
13.44
11.88
9.77
7.44
5.19
3.27
1.82
0.88
0.34
0.02
-0.26
-0.63
-1.09
-1.61
-2.12
-2.59
-3.05
-3.55
-4.17
-4.87
-5.58
-6.15
-6.50
-6.59
-6.51
-6.42
-6.50
-6.90
-7.65
-8.62
-9.54
-10.00
-9.54
-7.84
-4.84
-0.80
3.71
7.98
11.35
13.40
14.06
13.53
12.16
10.34
8.37
6.43
4.66
3.14
1.98
1.26
1.01
1.21
1.69
2.25
2.67
2.84
2.76
2.51
2.24
2.02
1.81
1.51
1.02
0.28
-0.66
-1.73
-2.84
-3.99
-5.21
-6.48
-7.69
-8.56
-8.74
-7.94
-6.05
-3.23
0.12
3.47
6.32
8.36
9.46
9.68
9.16
8.07
6.55
4.79
2.96
1.30
-0.01
-0.83
-1.17
-1.16
-0.99
-0.85
-0.86
-1.04
-1.40
-1.90
-2.53
-3.24
-3.99
-4.70
-5.30
-5.75
-6.06
-6.31
-6.61
-7.13
-7.94
-9.06
-10.34
-11.48
-12.10
-11.80
-10.34
-7.69
-4.11
-0.06
3.93
7.39
9.99
11.62
12.30
12.11
11.17
9.62
7.67
5.57
3.61
2.05
1.03
0.53
0.43
0.54
0.74
0.97
1.22
1.49
1.73
1.86
1.79
1.48
0.93
0.25
-0.44
-1.01
-1.40
-1.64
-1.88
-2.31
-3.08
-4.28
-5.81
-7.44
-8.84
-9.64
-9.51
-8.26
-5.94
-2.85
0.49
3.50
5.68
6.78
6.78
5.87
4.30
2.31
0.12
-2.06
-4.04
-5.64
-6.72
-7.28
-7.42
-7.28
-7.01
-6.70
-6.41
-6.12
-5.81
-5.48
-5.15
-4.83
-4.59
-4.45
-4.42
-4.48
-4.58
-4.71
-4.86
-5.05
-5.27
-5.38
-5.13
-4.21
-2.37
0.49
4.19
8.31
12.30
15.64
17.93
19.01
18.91
17.80
15.88
13.35
10.37
7.09
3.72
0.50
-2.25
-4.25
-5.31
-5.40
-4.69
-3.50
-2.19
-1.02
-0.13
0.45
0.77
0.86
0.76
0.43
-0.12
-0.84
-1.64
-2.44
-3.19
-4.00
-5.02
-6.37
-8.00
-9.65
-10.80
-10.90
-9.55
-6.70
-2.72
1.76
5.99
9.34
11.48
12.38
12.21
11.24
9.70
7.78
5.59
3.30
1.13
-0.63
-1.71
-1.95
-1.41
-0.36
0.80
1.74
2.24
2.29
2.03
1.62
1.17
0.72
0.27
-0.21
-0.70
-1.18
-1.64
-2.18
-2.91
-3.92
-5.21
-6.58
-7.65
-7.97
-7.15
-4.99
-1.65
2.41
6.51
10.00
12.42
13.57
13.55
12.62
11.07
9.14
7.01
4.79
2.64
0.69
-0.90
-2.00
-2.57
-2.64
-2.34
-1.83
-1.32
-0.97
-0.89
-1.13
-1.67
-2.44
-3.35
-4.27
-5.11
-5.80
-6.37
-6.90
-7.54
-8.41
-9.55
-10.83
-11.99
-12.69
-12.56
-11.35
-8.95
-5.50
-1.37
2.88
6.66
9.45
11.01
11.34
10.69
9.39
7.78
6.05
4.36
2.83
1.57
0.73
0.38
0.49
0.90
1.39
1.72
1.76
1.49
0.99
0.38
-0.27
-0.93
-1.68
-2.55
-3.58
-4.71
-5.87
-7.02
-8.16
-9.29
-10.29
-10.90
-10.75
-9.47
-6.92
-3.30
0.87
4.89
8.16
10.33
11.36
11.42
10.74
9.52
7.87
5.92
3.82
1.83
0.24
-0.71
-0.93
-0.48
0.40
1.37
2.06
2.23
1.80
0.88
-0.28
-1.44
-2.41
-3.13
-3.68
-4.17
-4.75
-5.54
-6.60
-7.94
-9.39
-10.66
-11.30
-10.83
-8.93
-5.62
-1.30
3.32
7.51
10.68
12.59
13.32
13.14
12.35
11.12
9.57
7.81
5.98
4.35
3.17
2.63
2.70
3.16
3.70
4.01
3.94
3.52
2.89
2.26
1.75
1.39
1.09
0.75
0.27
-0.39
-1.26
-2.37
-3.74
-5.38
-7.16
-8.81
-9.93
-10.12
-9.11
-6.87
-3.62
0.14
3.84
6.95
9.10
10.18
10.30
9.69
8.58
7.16
5.48
3.63
1.73
0.02
-1.22
-1.80
-1.71
-1.15
-0.44
0.09
0.26
0.02
-0.56
-1.34
-2.17
-2.93
-3.48
-3.81
-3.99
-4.19
-4.62
-5.44
-6.67
-8.20
-9.78
-11.10
-11.82
-11.65
-10.38
-7.98
-4.66
-0.84
2.91
6.06
8.20
9.20
9.18
8.37
7.07
5.49
3.82
2.20
0.75
-0.37
-1.03
-1.14
-0.73
0.08
1.06
1.95
2.55
2.76
2.60
2.20
1.70
1.20
0.71
0.17
-0.50
-1.40
-2.57
-4.03
-5.72
-7.52
-9.19
-10.38
-10.68
-9.80
-7.67
-4.49
-0.77
2.89
5.91
7.95
8.85
8.68
7.62
5.94
3.93
1.90
0.12
-1.17
-1.86
-1.98
-1.64
-1.02
-0.31
0.30
0.63
0.55
0.01
-0.88
-1.92
-2.85
-3.49
-3.81
-3.92
-4.02
-4.27
-4.73
-5.34
-5.98
-6.52
-6.82
-6.72
-5.97
-4.35
-1.71
1.87
5.99
10.06
13.42
15.56
16.30
15.75
14.25
12.23
10.01
7.86
5.95
4.41
3.37
2.91
2.99
3.46
4.06
4.51
4.59
4.24
3.46
2.36
1.04
-0.40
-1.89
-3.36
-4.76
-6.03
-7.15
-8.16
-9.14
-10.23
-11.55
-13.10
-14.72
-16.04
-16.58
-15.90
-13.80
-10.40
-6.15
-1.72
2.25
5.27
7.14
7.92
7.84
7.20
6.28
5.31
4.49
3.96
3.79
4.01
4.52
5.22
5.96
6.66
7.28
7.87
8.44
8.97
9.37
9.51
9.29
8.66
7.60
6.13
4.25
1.96
-0.73
-3.76
-6.98
-10.24
-13.34
-16.10
-18.28
-19.63
-19.89
-18.92
-16.77
-13.79
-10.53
-7.55
-5.23
-3.72
-2.88
-2.44
-2.19
-2.00
-1.87
-1.81
-1.72
-1.38
-0.52
1.05
3.30
5.94
8.48
10.43
11.44
11.39
10.42
8.78
6.80
4.72
2.72
0.90
-0.72
-2.16
-3.51
-4.88
-6.34
-7.83
-9.15
-9.93
-9.77
-8.41
-5.80
-2.24
1.73
5.47
8.47
10.44
11.38
11.45
10.91
9.97
8.78
7.47
6.15
4.95
3.97
3.32
3.01
3.01
3.17
3.32
3.24
2.79
1.90
0.66
-0.76
-2.14
-3.29
-4.17
-4.84
-5.44
-6.13
-7.04
-8.21
-9.63
-11.15
-12.45
-13.10
-12.65
-10.77
-7.43
-2.97
1.99
6.67
10.44
12.88
13.94
13.78
12.77
11.27
9.59
7.96
6.50
5.29
4.35
3.68
3.28
3.09
3.05
3.04
2.94
2.66
2.15
1.47
0.74
0.10
-0.39
-0.75
-1.12
-1.66
-2.48
-3.55
-4.73
-5.92
-7.06
-8.27
-9.68
-11.26
-12.73
-13.56
-13.14
-11.07
-7.38
-2.56
2.58
7.22
10.77
12.97
13.87
13.72
12.77
11.27
9.41
7.37
5.37
3.60
2.20
1.19
0.55
0.16
-0.10
-0.34
-0.64
-1.07
-1.66
-2.43
-3.33
-4.29
-5.25
-6.13
-6.86
-7.41
-7.77
-7.99
-8.21
-8.59
-9.29
-10.38
-11.69
-12.82
-13.21
-12.34
-9.89
-5.93
-0.89
4.50
9.43
13.26
15.63
16.51
16.15
14.91
13.14
11.15
9.17
7.40
5.96
4.94
4.28
3.92
3.74
3.64
3.56
3.48
3.38
3.23
2.96
2.52
1.88
1.06
0.09
-0.96
-2.04
-3.07
-3.97
-4.68
-5.23
-5.75
-6.45
-7.55
-9.11
-10.96
-12.64
-13.56
-13.16
-11.19
-7.77
-3.40
1.23
5.48
8.86
11.17
12.37
12.53
11.84
10.52
8.87
7.20
5.76
4.71
4.07
3.75
3.61
3.49
3.27
2.86
2.24
1.53
0.85
0.36
0.13
0.04
-0.08
-0.42
-1.06
-1.89
-2.72
-3.35
-3.74
-3.98
-4.28
-4.89
-5.98
-7.59
-9.60
-11.73
-13.57
-14.62
-14.40
-12.65
-9.37
-4.94
0.01
4.75
8.64
11.30
12.61
12.72
11.86
10.32
8.35
6.18
4.06
2.25
1.00
0.45
0.57
1.19
2.03
2.89
3.62
4.26
4.84
5.39
5.87
6.12
6.00
5.38
4.24
2.68
0.86
-0.97
-2.63
-3.98
-5.01
-5.85
-6.71
-7.81
-9.34
-11.33
-13.65
-16.00
-17.92
-18.95
-18.70
-17.02
-14.02
-10.09
-5.78
-1.67
1.77
4.22
5.54
5.77
5.04
3.64
1.97
0.51
-0.33
-0.26
0.77
2.59
4.83
7.10
9.04
10.40
11.13
11.24
10.83
10.00
8.84
7.39
5.68
3.80
1.83
-0.07
-1.76
-3.14
-4.24
-5.19
-6.15
-7.25
-8.56
-10.01
-11.45
-12.65
-13.33
-13.16
-11.85
-9.25
-5.42
-0.73
4.27
8.97
12.86
15.69
17.39
18.02
17.65
16.34
14.20
11.47
8.53
5.79
3.59
2.02
0.93
0.12
-0.61
-1.30
-1.86
-2.19
-2.29
-2.29
-2.36
-2.60
-2.99
-3.38
-3.59
-3.54
-3.24
-2.80
-2.42
-2.28
-2.57
-3.43
-4.91
-6.93
-9.18
-11.20
-12.39
-12.24
-10.48
-7.19
-2.79
2.05
6.58
10.21
12.59
13.65
13.58
12.66
11.21
9.43
7.43
5.31
3.19
1.28
-0.19
-1.03
-1.23
-0.95
-0.47
-0.05
0.17
0.19
0.09
-0.11
-0.46
-1.05
-1.95
-3.11
-4.33
-5.40
-6.14
-6.51
-6.58
-6.55
-6.65
-7.08
-7.93
-9.16
-10.52
-11.62
-11.98
-11.23
-9.21
-6.05
-2.16
1.93
5.62
8.48
10.23
10.80
10.34
9.07
7.29
5.31
3.35
1.59
0.14
-0.92
-1.56
-1.79
-1.66
-1.26
-0.70
-0.13
0.31
0.51
0.43
0.09
-0.39
-0.90
-1.35
-1.75
-2.17
-2.73
-3.49
-4.45
-5.59
-6.84
-8.13
-9.36
-10.28
-10.58
-9.89
-7.94
-4.75
-0.64
3.80
7.91
11.12
13.10
13.81
13.42
12.17
10.32
8.13
5.80
3.55
1.59
0.10
-0.81
-1.15
-1.02
-0.60
-0.11
0.28
0.44
0.31
-0.10
-0.75
-1.57
-2.53
-3.57
-4.67
-5.82
-7.00
-8.24
-9.52
-10.85
-12.15
-13.28
-13.95
-13.79
-12.47
-9.81
-5.94
-1.26
3.58
7.89
11.08
12.86
13.20
12.34
10.65
8.53
6.29
4.15
2.24
0.65
-0.53
-1.21
-1.35
-0.95
-0.08
1.09
2.34
3.48
4.32
4.76
4.74
4.26
3.39
2.23
0.87
-0.62
-2.14
-3.62
-4.95
-6.00
-6.68
-6.92
-6.61
-5.70
-4.05
-1.52
2.03
6.55
11.76
17.19
22.25
26.48
29.48
31.01
31.00
29.60
27.03
23.60
19.66
15.65
12.01
8.95
6.47
4.47
2.85
1.50
0.29
-0.97
-2.39
-3.93
-5.75
-7.95
-10.51
-13.22
-15.89
-18.42
-20.85
-23.29
-24.57
-23.87
-21.24
-17.67
-14.33
-11.72
-9.53
-7.00
-4.16
-0.53
3.60
7.45
10.31
11.88
12.24
11.67
10.55
9.03
7.27
5.17
2.45
-0.97
-4.92
-9.03
-13.00
-16.49
-19.27
-21.06
-21.85
-22.04
-22.08
-22.20
-22.38
-22.48
-22.23
-21.61
-20.75
-18.62
-15.22
-11.41
-8.48
-7.29
-7.83
-9.21
-10.29
-10.08
-8.14
-5.00
-1.72
0.63
1.41
0.37
-1.66
-3.69
-4.63
-3.47
0.52
7.76
18.22
30.79
42.87
51.74
55.55
54.14
48.87
41.69
34.24
27.21
20.50
13.69
6.86
0.60
-4.25
-7.14
-8.25
-8.38
-8.52
-9.42
-11.30
-13.67
-15.77
-16.89
-16.67
-15.17
-12.78
-10.04
-7.45
-5.37
-3.91
-3.05
-2.73
-2.89
-3.44
-4.27
-5.21
-6.08
-6.65
-6.72
-6.16
-5.01
-3.40
-1.58
0.16
1.56
2.46
2.82
2.74
2.41
1.97
1.53
1.13
0.73
0.28
-0.24
-0.84
-1.50
-2.19
-2.90
-3.64
-4.42
-5.18
-5.77
-5.91
-5.26
-3.60
-0.93
2.40
5.77
8.48
9.98
10.06
8.85
6.73
4.16
1.52
-0.94
-3.07
-4.94
-6.45
-7.45
-7.84
-7.58
-6.79
-5.63
-4.34
-3.14
-2.25
-1.78
-1.80
-2.29
-3.16
-4.24
-5.38
-6.44
-7.39
-8.27
-9.10
-9.84
-10.42
-10.74
-10.72
-10.40
-9.86
-9.22
-8.46
-7.52
-6.28
-4.65
-2.65
-0.40
1.98
4.35
6.57
8.52
9.95
10.60
10.20
8.69
6.27
3.47
0.97
-0.63
-1.08
-0.58
0.31
0.98
1.06
0.58
-0.12
-0.66
-0.84
-0.75
-0.66
-0.78
-1.07
-1.25
-0.95
0.02
1.53
3.18
4.45
4.94
4.57
3.61
2.61
2.25
3.05
5.19
8.42
12.12
15.56
18.17
19.72
20.36
20.47
20.37
20.19
19.84
19.11
17.79
15.81
13.20
10.08
6.64
3.12
-0.18
-2.93
-4.82
-5.71
-5.70
-5.10
-4.35
-3.90
-4.03
-4.83
-6.21
-7.95
-9.86
-11.84
-13.95
-16.26
-18.71
-20.98
-22.46
-22.45
-20.46
-16.49
-11.05
-5.00
0.79
5.81
10.00
13.67
17.24
21.04
25.18
29.58
34.04
38.26
41.85
44.34
45.21
44.10
40.95
36.14
30.40
24.65
19.73
16.15
14.02
13.06
12.73
12.39
11.54
9.86
7.28
3.93
0.04
-4.19
-8.65
-13.26
-17.91
-22.30
-25.99
-28.47
-29.35
-28.56
-26.42
-23.60
-20.88
-18.84
-17.73
-17.41
-17.45
-17.39
-16.92
-15.96
-14.60
-13.00
-11.29
-9.58
-8.01
-6.81
-6.27
-6.60
-7.77
-9.46
-11.15
-12.33
-12.72
-12.36
-11.54
-10.65
-10.00
-9.75
-9.92
-10.43
-11.22
-12.19
-13.26
-14.24
-14.84
-14.73
-13.58
-11.18
-7.48
-2.67
2.92
8.81
14.57
19.78
24.09
27.26
29.10
29.58
28.89
27.44
25.84
24.70
24.47
25.19
26.51
27.78
28.34
27.78
26.06
23.50
20.60
17.79
15.30
13.11
11.00
8.73
6.10
3.00
-0.55
-4.51
-8.81
-13.42
-18.19
-22.83
-26.81
-29.45
-30.11
-28.46
-24.71
-19.63
-14.36
-10.04
-7.48
-6.93
-8.08
-10.29
-12.85
-15.19
-16.99
-18.06
-18.35
-17.82
-16.45
-14.29
-11.55
-8.57
-5.81
-3.66
-2.40
-2.03
-2.34
-2.92
-3.33
-3.21
-2.44
-1.16
0.26
1.29
1.44
0.37
-1.96
-5.26
-8.90
-12.12
-14.16
-14.52
-13.11
-10.31
-6.79
-3.31
-0.45
1.59
2.96
4.00
5.02
6.12
7.21
8.10
8.72
9.22
9.91
11.16
13.17
15.93
19.18
22.57
25.68
28.06
29.29
29.04
27.15
23.79
19.41
14.69
10.32
6.81
4.38
3.00
2.43
2.30
2.19
1.65
0.36
-1.71
-4.26
-6.66
-8.17
-8.23
-6.64
-3.71
-0.14
3.22
5.64
6.67
6.26
4.69
2.47
0.08
-2.06
-3.77
-4.97
-5.64
-5.76
-5.29
-4.22
-2.65
-0.84
0.78
1.70
1.47
-0.14
-3.04
-6.80
-10.72
-14.09
-16.38
-17.45
-17.57
-17.31
-17.31
-18.05
-19.71
-22.09
-24.75
-27.00
-28.19
-27.79
-25.62
-21.90
-17.18
-12.20
-7.58
-3.69
-0.58
1.91
3.92
5.53
6.75
7.61
8.33
9.29
10.90
13.49
17.11
21.56
26.45
31.29
35.56
38.69
40.10
39.28
35.95
30.26
22.91
14.97
7.65
1.90
-1.77
-3.42
-3.47
-2.51
-1.17
0.01
0.57
0.18
-1.29
-3.66
-6.41
-8.79
-10.10
-9.94
-8.34
-5.83
-3.12
-0.92
0.39
0.79
0.55
-0.00
-0.56
-1.00
-1.31
-1.54
-1.74
-1.92
-2.07
-2.19
-2.28
-2.33
-2.34
-2.36
-2.49
-2.91
-3.83
-5.31
-7.23
-9.23
-10.89
-11.86
-12.02
-11.53
-10.74
-10.07
-9.88
-10.43
-11.80
-13.91
-16.58
-19.42
-21.90
-23.43
-23.51
-21.87
-18.57
-14.00
-8.69
-3.21
2.03
6.82
11.07
14.76
17.85
20.29
22.04
23.20
24.02
24.90
26.33
28.72
32.32
37.03
42.38
47.55
51.55
53.44
52.54
48.54
41.53
31.98
20.62
8.47
-3.33
-13.64
-21.54
-26.50
-28.58
-28.34
-26.72
-24.76
-23.37
-23.16
-24.34
-26.62
-29.32
-31.52
-32.37
-31.40
-28.72
-24.92
-20.88
-17.37
-14.84
-13.35
-12.72
-12.80
-13.58
-15.11
-17.38
-20.09
-22.69
-24.50
-25.00
-24.02
-21.74
-18.67
-15.37
-12.30
-9.66
-7.46
-5.62
-4.11
-3.02
-2.47
-2.56
-3.22
-4.24
-5.29
-6.04
-6.30
-6.04
-5.34
-4.40
-3.40
-2.49
-1.70
-0.97
-0.06
1.39
3.80
7.50
12.60
18.85
25.71
32.34
37.87
41.52
42.80
41.68
38.60
34.41
30.16
26.81
24.99
24.78
25.68
26.75
26.89
25.19
21.23
15.28
8.24
1.29
-4.50
-8.51
-10.76
-11.77
-12.27
-12.83
-13.73
-14.89
-16.09
-17.05
-17.62
-17.74
-17.42
-16.74
-15.83
-14.86
-14.06
-13.53
-13.20
-12.75
-11.70
-9.60
-6.22
-1.75
3.19
7.75
11.11
12.79
12.79
11.54
9.72
7.89
6.36
5.16
4.12
3.16
2.40
2.09
2.50
3.71
5.52
7.53
9.35
10.77
11.81
12.65
13.45
14.24
14.95
15.51
15.90
16.16
16.26
15.98
14.97
12.85
9.42
4.91
-0.11
-4.93
-8.99
-12.14
-14.56
-16.55
-18.27
-19.53
-19.79
-18.42
-15.10
-10.04
-4.00
1.96
6.88
10.02
11.03
9.88
6.85
2.46
-2.56
-7.24
-10.53
-11.65
-10.54
-7.89
-4.85
-2.63
-1.96
-3.11
-5.87
-9.66
-12.94
-14.07
-11.94
-6.49
1.39
10.24
18.25
23.63
25.11
22.28
15.61
6.35
-3.69
-12.53
-18.34
-20.27
-18.71
-15.31
-12.32
-11.59
-13.55
-16.89
-19.65
-19.38
-14.88
-6.57
3.94
14.60
23.75
30.57
34.96
37.24
37.89
37.22
35.53
33.22
30.66
28.16
25.93
23.97
22.09
19.90
16.72
11.75
5.04
-3.10
-11.87
-20.11
-26.60
-30.45
-31.30
-29.51
-25.92
-21.55
-17.39
-14.10
-12.01
-11.14
-11.37
-12.51
-14.36
-16.63
-18.95
-20.96
-22.21
-22.37
-21.33
-19.31
-16.83
-14.61
-13.32
-13.33
-14.65
-16.90
-19.56
-22.14
-24.33
-26.03
-27.22
-27.92
-28.10
-27.68
-26.55
-24.59
-21.71
-17.99
-13.69
-9.36
-5.72
-3.52
-3.22
-4.75
-7.52
-10.61
-13.12
-14.50
-14.73
-14.20
-13.50
-13.03
-12.81
-12.45
-11.30
-8.68
-4.17
2.30
10.33
19.24
28.13
36.18
42.79
47.66
50.85
52.61
53.34
53.40
53.09
52.57
51.92
51.12
50.15
48.97
47.62
46.18
44.75
43.34
41.90
40.27
38.28
35.82
32.86
29.39
25.38
20.81
15.67
9.99
3.84
-2.68
-9.49
-16.35
-22.88
-28.51
-32.70
-35.16
-35.98
-35.54
-34.16
-31.83
-28.21
-22.90
-15.85
-7.67
0.53
7.48
12.19
14.23
13.82
11.65
8.72
6.12
4.88
5.57
8.08
11.50
14.42
15.53
14.27
11.11
7.34
4.50
3.68
5.08
8.12
11.80
15.14
17.48
18.57
18.50
17.50
15.81
13.42
10.18
5.81
0.06
-7.09
-15.32
-23.90
-31.91
-38.49
-43.36
-46.57
-48.42
-49.14
-48.80
-47.26
-44.14
-38.93
-31.31
-21.81
-11.53
-1.84
5.97
11.27
14.27
16.05
17.98
20.83
23.40
23.55
19.09
8.61
-8.00
-29.68
-54.26
-78.49
-98.34
-110.61
-113.03
-105.16
-89.26
-69.68
-51.86
-40.20
-36.47
-33.74
-26.48
-12.39
6.29
24.80
39.21
47.30
48.48
43.18
32.56
17.89
0.73
-14.26
-21.30
-15.36
4.83
35.90
71.08
102.82
124.88
134.60
132.96
120.32
98.84
70.86
39.16
7.75
-18.23
-34.39
-38.71
-32.70
-21.26
-10.11
-3.95
-4.57
-10.62
-18.85
-26.19
-30.79
-32.31
-31.53
-29.37
-26.69
-24.11
-21.93
-20.34
-19.61
-19.91
-21.05
-22.37
-22.66
-20.76
-16.01
-8.54
0.67
10.17
18.49
24.61
28.19
29.55
29.28
27.97
26.09
23.92
21.58
19.12
16.54
13.85
11.10
8.39
5.85
3.58
1.69
0.16
-1.13
-2.36
-3.68
-5.16
-6.74
-8.29
-9.67
-10.81
-11.70
-12.43
-13.16
-14.14
-15.61
-17.75
-20.46
-23.30
-25.43
-25.85
-23.73
-18.78
-11.45
-2.77
5.90
13.39
18.99
22.55
24.37
24.87
24.39
23.16
21.31
19.00
16.46
13.97
11.71
9.71
7.82
5.82
3.58
1.17
-1.20
-3.21
-4.63
-5.41
-5.70
-5.84
-6.17
-6.97
-8.31
-10.15
-12.29
-14.48
-16.55
-18.40
-20.05
-21.65
-23.41
-25.62
-28.48
-31.93
-35.48
-38.19
-38.86
-36.44
-30.44
-21.23
-9.92
1.94
12.84
21.76
28.23
32.34
34.44
34.95
34.20
32.48
30.03
27.14
24.14
21.32
18.88
16.83
15.00
13.13
11.02
8.66
6.30
4.27
2.91
2.32
2.29
2.39
2.05
0.86
-1.35
-4.35
-7.64
-10.61
-12.83
-14.17
-14.94
-15.72
-17.15
-19.71
-23.48
-28.03
-32.51
-35.72
-36.43
-33.66
-27.02
-16.92
-4.53
8.48
20.38
29.83
36.15
39.32
39.82
38.33
35.49
31.87
27.89
23.96
20.42
17.53
15.40
13.93
12.84
11.79
10.55
9.07
7.56
6.27
5.39
4.84
4.30
3.27
1.34
-1.59
-5.25
-9.08
-12.50
-15.11
-16.84
-17.91
-18.75
-19.86
-21.65
-24.37
-28.02
-32.19
-36.05
-38.43
-38.13
-34.36
-27.04
-16.96
-5.51
5.75
15.58
23.32
28.90
32.59
34.75
35.63
35.41
34.24
32.34
30.01
27.53
25.12
22.84
20.66
18.52
16.40
14.34
12.45
10.83
9.50
8.36
7.23
5.89
4.21
2.27
0.27
-1.45
-2.71
-3.51
-4.13
-4.99
-6.47
-8.77
-11.77
-15.12
-18.37
-21.17
-23.39
-25.12
-26.63
-28.28
-30.36
-32.99
-36.02
-38.92
-40.83
-40.78
-37.91
-31.88
-23.01
-12.34
-1.27
8.84
17.04
23.01
26.94
29.26
30.40
30.59
29.91
28.42
26.23
23.63
20.92
18.37
16.12
14.13
12.33
10.66
9.12
7.79
6.75
5.97
5.31
4.55
3.50
2.07
0.34
-1.52
-3.34
-5.05
-6.69
-8.39
-10.22
-12.15
-14.00
-15.55
-16.64
-17.23
-17.53
-17.86
-18.58
-20.01
-22.35
-25.61
-29.55
-33.61
-36.90
-38.34
-36.87
-31.86
-23.37
-12.27
-0.05
11.63
21.40
28.51
32.90
34.97
35.31
34.45
32.80
30.62
28.20
25.82
23.70
21.98
20.57
19.26
17.81
16.11
14.23
12.46
11.10
10.33
10.05
9.93
9.49
8.37
6.47
3.98
1.26
-1.32
-3.60
-5.63
-7.63
-9.78
-12.15
-14.62
-17.02
-19.18
-21.08
-22.81
-24.52
-26.44
-28.77
-31.66
-35.10
-38.75
-41.84
-43.26
-41.88
-36.98
-28.58
-17.56
-5.39
6.37
16.54
24.55
30.41
34.40
36.82
37.84
37.50
35.89
33.24
29.96
26.52
23.35
20.65
18.40
16.37
14.35
12.21
10.05
8.13
6.72
5.93
5.65
5.54
5.23
4.46
3.21
1.66
0.16
-1.03
-1.84
-2.39
-3.01
-4.09
-5.91
-8.53
-11.72
-15.06
-18.07
-20.39
-21.98
-23.03
-23.97
-25.23
-27.18
-29.96
-33.39
-36.93
-39.63
-40.35
-38.02
-32.07
-22.72
-11.07
1.22
12.45
21.37
27.45
30.82
32.03
31.72
30.39
28.42
26.08
23.58
21.14
18.90
16.93
15.25
13.82
12.58
11.54
10.70
10.08
9.67
9.39
9.06
8.48
7.49
6.06
4.26
2.25
0.18
-1.94
-4.19
-6.67
-9.41
-12.26
-15.01
-17.41
-19.34
-20.85
-22.15
-23.59
-25.50
-28.15
-31.52
-35.20
-38.34
-39.75
-38.30
-33.31
-24.87
-13.88
-1.82
9.74
19.56
26.96
31.84
34.47
35.28
34.71
33.19
31.11
28.85
26.70
24.81
23.13
21.51
19.75
17.71
15.46
13.15
11.09
9.52
8.55
8.11
7.90
7.58
6.80
5.42
3.50
1.30
-0.88
-2.84
-4.56
-6.15
-7.79
-9.61
-11.63
-13.77
-15.94
-18.08
-20.19
-22.26
-24.36
-26.60
-29.16
-32.25
-35.88
-39.69
-42.83
-44.08
-42.30
-36.83
-27.94
-16.67
-4.60
6.79
16.44
23.92
29.26
32.71
34.55
35.05
34.50
33.24
31.62
29.92
28.25
26.55
24.65
22.42
19.84
17.05
14.29
11.86
9.97
8.72
8.01
7.63
7.28
6.67
5.62
4.10
2.22
0.22
-1.64
-3.20
-4.44
-5.50
-6.67
-8.23
-10.35
-12.96
-15.77
-18.40
-20.55
-22.14
-23.41
-24.83
-26.91
-29.94
-33.77
-37.75
-40.73
-41.42
-38.76
-32.36
-22.66
-10.90
1.28
12.31
21.11
27.28
30.96
32.59
32.66
31.61
29.77
27.47
25.02
22.71
20.68
18.93
17.37
15.88
14.44
13.09
11.92
10.96
10.14
9.29
8.23
6.80
4.98
2.90
0.78
-1.13
-2.67
-3.89
-5.00
-6.31
-8.09
-10.39
-13.07
-15.85
-18.46
-20.75
-22.76
-24.67
-26.76
-29.29
-32.42
-36.02
-39.67
-42.56
-43.62
-41.72
-36.14
-26.85
-14.67
-1.09
12.12
23.44
31.94
37.46
40.35
41.30
40.94
39.78
38.11
36.11
33.92
31.66
29.43
27.24
25.06
22.78
20.32
17.71
15.13
12.88
11.25
10.38
10.11
10.01
9.53
8.20
5.89
2.83
-0.43
-3.29
-5.34
-6.58
-7.36
-8.25
-9.77
-12.14
-15.25
-18.68
-21.91
-24.56
-26.52
-27.96
-29.23
-30.77
-32.99
-36.15
-40.22
-44.73
-48.73
-50.89
-49.85
-44.68
-35.32
-22.69
-8.42
5.58
17.73
27.12
33.54
37.31
38.99
39.12
38.14
36.41
34.25
31.93
29.66
27.52
25.49
23.42
21.14
18.60
15.91
13.35
11.23
9.80
9.04
8.68
8.28
7.40
5.81
3.57
1.02
-1.41
-3.36
-4.72
-5.69
-6.66
-8.05
-10.08
-12.68
-15.51
-18.12
-20.18
-21.57
-22.49
-23.32
-24.53
-26.51
-29.41
-33.04
-36.79
-39.67
-40.47
-38.09
-31.92
-22.07
-9.47
4.31
17.49
28.54
36.47
41.02
42.57
41.80
39.54
36.49
33.15
29.85
26.80
24.10
21.78
19.78
17.98
16.25
14.49
12.74
11.08
9.65
8.54
7.72
7.05
6.29
5.14
3.40
1.04
-1.74
-4.55
-6.97
-8.79
-10.11
-11.32
-12.85
-14.98
-17.67
-20.59
-23.31
-25.55
-27.28
-28.72
-30.24
-32.21
-34.92
-38.44
-42.49
-46.40
-49.06
-49.20
-45.72
-38.18
-26.97
-13.35
0.98
14.33
25.47
33.86
39.53
42.95
44.64
45.09
44.61
43.38
41.47
38.99
36.04
32.83
29.55
26.39
23.47
20.84
18.50
16.43
14.63
13.16
12.02
11.16
10.44
9.60
8.37
6.63
4.39
1.89
-0.56
-2.66
-4.27
-5.44
-6.38
-7.43
-8.84
-10.73
-13.06
-15.65
-18.28
-20.75
-22.93
-24.77
-26.31
-27.68
-29.13
-31.01
-33.62
-37.01
-40.75
-43.90
-45.16
-43.27
-37.57
-28.23
-16.33
-3.47
8.66
18.82
26.35
31.23
33.77
34.44
33.69
31.89
29.40
26.62
23.90
21.52
19.56
17.95
16.50
15.06
13.56
12.07
10.74
9.71
9.03
8.65
8.34
7.84
6.90
5.35
3.26
0.85
-1.50
-3.49
-5.02
-6.26
-7.58
-9.37
-11.75
-14.61
-17.58
-20.26
-22.38
-23.94
-25.13
-26.31
-27.88
-30.19
-33.40
-37.35
-41.37
-44.35
-44.92
-41.89
-34.66
-23.62
-10.04
4.25
17.42
28.12
35.78
40.48
42.75
43.27
42.58
41.10
39.10
36.79
34.35
31.94
29.65
27.44
25.23
22.95
20.58
18.19
15.95
13.99
12.41
11.20
10.21
9.24
8.06
6.52
4.59
2.36
0.04
-2.16
-4.04
-5.54
-6.72
-7.74
-8.84
-10.28
-12.23
-14.78
-17.84
-21.14
-24.37
-27.17
-29.34
-30.90
-32.07
-33.26
-34.96
-37.53
-41.01
-44.99
-48.49
-50.17
-48.68
-43.17
-33.65
-21.08
-7.08
6.51
18.21
27.23
33.42
37.11
38.81
39.04
38.21
36.72
34.92
33.10
31.45
29.98
28.54
26.89
24.84
22.35
19.57
16.80
14.36
12.50
11.28
10.57
10.08
9.47
8.46
6.90
4.81
2.41
-0.01
-2.17
-3.92
-5.28
-6.48
-7.83
-9.60
-11.92
-14.70
-17.65
-20.40
-22.62
-24.18
-25.13
-25.74
-26.41
-27.58
-29.58
-32.50
-36.02
-39.33
-41.19
-40.29
-35.65
-27.06
-15.28
-1.87
11.30
22.60
31.07
36.51
39.28
39.99
39.20
37.36
34.80
31.85
28.86
26.13
23.82
21.89
20.18
18.46
16.62
14.67
12.82
11.32
10.33
9.83
9.62
9.39
8.80
7.63
5.79
3.37
0.56
-2.32
-4.93
-7.01
-8.49
-9.56
-10.64
-12.20
-14.53
-17.61
-21.09
-24.43
-27.11
-28.92
-29.96
-30.65
-31.60
-33.36
-36.28
-40.30
-44.86
-48.89
-51.03
-49.91
-44.67
-35.23
-22.45
-7.94
6.46
19.16
29.19
36.33
40.89
43.40
44.39
44.19
43.07
41.23
38.93
36.42
33.91
31.48
29.08
26.58
23.91
21.08
18.26
15.68
13.56
12.00
10.94
10.19
9.47
8.58
7.40
5.93
4.27
2.47
0.56
-1.46
-3.57
-5.67
-7.62
-9.32
-10.79
-12.20
-13.82
-15.86
-18.40
-21.29
-24.22
-26.85
-28.97
-30.60
-31.98
-33.51
-35.62
-38.57
-42.31
-46.27
-49.40
-50.35
-47.85
-41.19
-30.51
-16.91
-2.14
11.87
23.55
32.04
37.25
39.65
40.00
39.01
37.28
35.19
32.97
30.72
28.47
26.21
23.86
21.38
18.73
15.93
13.12
10.52
8.42
7.07
6.53
6.63
6.97
7.06
6.53
5.28
3.50
1.59
-0.10
-1.39
-2.42
-3.54
-5.10
-7.34
-10.22
-13.46
-16.68
-19.51
-21.74
-23.37
-24.63
-25.89
-27.57
-30.05
-33.48
-37.63
-41.79
-44.81
-45.31
-42.06
-34.49
-22.91
-8.59
6.60
20.67
32.04
39.91
44.28
45.72
45.12
43.28
40.81
38.07
35.27
32.53
29.95
27.55
25.29
23.04
20.67
18.15
15.57
13.19
11.27
9.99
9.33
9.12
9.03
8.67
7.74
6.05
3.65
0.77
-2.18
-4.83
-6.93
-8.54
-9.93
-11.49
-13.55
-16.19
-19.26
-22.44
-25.41
-27.95
-30.04
-31.78
-33.37
-35.09
-37.23
-40.04
-43.55
-47.36
-50.57
-51.89
-49.99
-43.94
-33.69
-20.13
-4.96
9.86
22.69
32.52
39.15
42.97
44.64
44.82
43.99
42.46
40.44
38.11
35.64
33.20
30.85
28.53
26.08
23.39
20.48
17.54
14.91
12.88
11.57
10.88
10.48
9.95
8.95
7.33
5.13
2.59
0.05
-2.19
-3.96
-5.27
-6.36
-7.56
-9.21
-11.45
-14.19
-17.11
-19.84
-22.09
-23.76
-24.94
-25.91
-27.07
-28.82
-31.53
-35.33
-39.88
-44.30
-47.22
-47.19
-43.13
-34.80
-22.99
-9.26
4.52
16.73
26.29
32.84
36.55
37.86
37.33
35.48
32.80
29.74
26.65
23.77
21.20
18.90
16.74
14.59
12.44
10.41
8.76
7.75
7.52
7.91
8.54
8.86
8.42
7.03
4.78
2.06
-0.65
-2.99
-4.81
-6.24
-7.59
-9.25
-11.51
-14.43
-17.78
-21.13
-24.03
-26.16
-27.54
-28.52
-29.72
-31.73
-34.93
-39.20
-43.83
-47.60
-48.99
-46.63
-39.73
-28.42
-13.83
2.15
17.41
30.17
39.39
44.92
47.31
47.41
46.07
43.90
41.24
38.32
35.30
32.35
29.59
27.06
24.66
22.25
19.73
17.13
14.64
12.58
11.16
10.43
10.17
10.01
9.46
8.21
6.15
3.42
0.41
-2.46
-4.88
-6.73
-8.18
-9.58
-11.35
-13.73
-16.76
-20.22
-23.75
-26.99
-29.73
-31.94
-33.81
-35.64
-37.82
-40.70
-44.40
-48.58
-52.37
-54.41
-53.21
-47.66
-37.54
-23.67
-7.81
7.95
21.74
32.47
39.88
44.40
46.74
47.56
47.30
46.21
44.47
42.29
39.87
37.38
34.87
32.28
29.48
26.39
23.06
19.70
16.62
14.15
12.47
11.54
11.06
10.57
9.58
7.81
5.29
2.32
-0.61
-3.10
-4.96
-6.32
-7.46
-8.75
-10.47
-12.72
-15.43
-18.37
-21.28
-23.91
-26.10
-27.81
-29.20
-30.58
-32.42
-35.16
-38.95
-43.46
-47.75
-50.36
-49.78
-44.94
-35.66
-22.83
-8.13
6.42
19.14
28.99
35.72
39.64
41.31
41.31
40.07
37.97
35.38
32.62
29.99
27.61
25.41
23.16
20.65
17.78
14.71
11.78
9.41
7.90
7.27
7.19
7.13
6.52
5.02
2.64
-0.25
-3.07
-5.35
-6.88
-7.85
-8.72
-9.96
-11.87
-14.38
-17.14
-19.69
-21.64
-22.88
-23.59
-24.16
-25.12
-26.92
-29.84
-33.79
-38.20
-42.02
-43.86
-42.37
-36.69
-26.85
-13.88
0.42
14.07
25.45
33.72
38.84
41.30
41.77
40.77
38.66
35.72
32.23
28.60
25.23
22.41
20.20
18.41
16.76
15.00
13.09
11.15
9.45
8.19
7.42
6.97
6.46
5.51
3.91
1.66
-0.96
-3.54
-5.76
-7.49
-8.88
-10.28
-12.06
-14.44
-17.37
-20.60
-23.78
-26.57
-28.86
-30.67
-32.25
-33.96
-36.18
-39.22
-43.07
-47.20
-50.56
-51.71
-49.25
-42.38
-31.33
-17.28
-2.12
12.25
24.43
33.76
40.26
44.28
46.25
46.54
45.47
43.47
41.01
38.53
36.27
34.19
32.04
29.52
26.49
23.03
19.45
16.18
13.57
11.82
10.85
10.36
9.91
9.05
7.47
5.16
2.37
-0.44
-2.85
-4.67
-6.01
-7.23
-8.80
-11.01
-13.94
-17.39
-21.00
-24.35
-27.15
-29.28
-30.84
-32.15
-33.69
-35.93
-39.18
-43.27
-47.44
-50.37
-50.50
-46.61
-38.30
-26.19
-11.81
2.91
16.22
26.98
34.79
39.76
42.30
42.82
41.76
39.55
36.70
33.77
31.17
29.06
27.27
25.42
23.14
20.24
16.91
13.60
10.82
8.92
7.91
7.48
7.10
6.30
4.83
2.77
0.45
-1.73
-3.53
-4.97
-6.34
-7.97
-10.11
-12.77
-15.70
-18.58
-21.09
-23.13
-24.73
-26.08
-27.47
-29.24
-31.71
-35.05
-39.06
-43.01
-45.69
-45.68
-41.82
-33.67
-21.77
-7.51
7.24
20.66
31.45
39.01
43.38
45.03
44.56
42.54
39.49
35.88
32.15
28.67
25.67
23.17
21.00
18.89
16.67
14.38
12.25
10.60
9.62
9.23
9.11
8.82
7.98
6.41
4.19
1.54
-1.25
-3.95
-6.48
-8.85
-11.18
-13.60
-16.19
-18.90
-21.58
-24.01
-25.99
-27.53
-28.85
-30.46
-32.93
-36.60
-41.28
-46.10
-49.63
-50.25
-46.75
-38.73
-26.84
-12.56
2.21
15.73
26.82
34.98
40.33
43.30
44.46
44.27
43.13
41.30
39.01
36.44
33.73
30.98
28.21
25.42
22.58
19.71
16.89
14.29
12.08
10.40
9.24
8.40
7.56
6.36
4.57
2.21
-0.46
-3.06
-5.25
-6.96
-8.35
-9.78
-11.58
-13.90
-16.64
-19.52
-22.24
-24.58
-26.51
-28.16
-29.82
-31.89
-34.73
-38.50
-42.90
-47.04
-49.54
-48.93
-44.21
-35.33
-23.29
-9.80
3.27
14.56
23.42
29.92
34.41
37.27
38.67
38.72
37.61
35.70
33.41
31.07
28.76
26.34
23.60
20.45
17.03
13.67
10.78
8.64
7.38
6.84
6.71
6.56
6.02
4.84
3.06
0.92
-1.20
-2.99
-4.40
-5.68
-7.20
-9.28
-12.00
-15.11
-18.17
-20.75
-22.62
-23.84
-24.72
-25.73
-27.39
-30.09
-33.96
-38.67
-43.35
-46.69
-47.25
-43.89
-36.27
-25.05
-11.72
1.83
13.89
23.35
29.85
33.63
35.22
35.15
33.87
31.73
29.05
26.11
23.15
20.22
17.23
14.01
10.44
6.60
2.77
-0.66
-3.33
-5.17
-6.42
-7.65
-9.51
-12.56
-16.99
-22.54
-28.64
-34.57
-39.80
-44.24
-48.26
-52.57
-57.90
-64.67
-72.75
-81.49
-89.95
-97.33
-103.30
-108.29
-113.42
-120.15
-129.67
-142.20
-156.52
-169.77
-178.03
-177.30
-164.81
-140.13
-105.57
-65.59
-25.45
10.31
39.15
60.74
76.51
88.62
99.06
109.17
119.50
129.88
139.53
147.09
150.98
149.97
143.97
134.37
123.60
114.20
107.63
103.83
101.41
98.73
94.74
89.42
83.50
77.75
72.50
67.55
62.62
57.73
53.32
50.04
48.28
47.81
47.77
46.95
44.24
39.00
31.34
21.95
11.83
1.85
-7.59
-16.55
-25.34
-34.08
-42.45
-49.65
-54.67
-56.54
-54.62
-48.69
-38.90
-25.83
-10.47
5.72
20.93
33.30
41.37
44.50
43.15
38.80
33.47
29.14
27.05
27.41
29.39
31.57
32.66
31.92
29.30
25.34
20.79
16.31
12.21
8.51
5.07
1.86
-1.17
-4.13
-7.21
-10.52
-13.91
-17.00
-19.34
-20.64
-20.65
-19.59
-18.07
-16.83
-16.36
-16.59
-17.13
-17.54
-17.63
-17.08
-16.12
-15.59
-16.36
-18.58
-21.13
-22.44
-21.16
-16.76
-8.63
2.43
14.06
23.24
27.71
27.31
22.85
15.66
7.16
0.61
-1.57
0.97
6.72
13.53
20.37
26.10
30.02
32.57
38.34
51.90
74.56
103.16
131.12
151.69
158.22
146.34
102.40
26.49
-65.64
-151.14
-213.28
-252.99
-271.71
-270.46
-247.55
-206.24
-152.39
-95.37
-45.31
-8.99
12.78
25.70
35.95
46.93
58.63
70.69
81.49
88.74
90.57
86.20
77.50
66.11
53.06
39.91
29.66
24.52
24.79
29.09
35.06
41.68
47.90
46.82
35.00
14.88
-7.64
-27.69
-40.74
-49.24
-55.18
-59.80
-63.67
-66.88
-68.37
-67.58
-64.84
-61.04
-57.59
-55.06
-53.90
-54.32
-55.38
-55.74
-54.51
-51.46
-46.83
-41.46
-35.68
-29.83
-24.18
-18.53
-12.73
-7.13
-2.36
1.19
3.57
5.73
8.72
13.14
19.08
25.90
32.46
37.62
40.81
42.02
41.84
40.81
39.22
37.05
34.25
30.74
26.65
22.31
18.04
14.10
10.56
7.25
3.94
0.44
-3.29
-7.10
-10.71
-13.86
-16.40
-18.42
-20.22
-22.21
-24.83
-28.39
-32.96
-38.34
-44.06
-49.40
-53.51
-55.51
-54.70
-50.76
-43.84
-34.65
-24.28
-13.98
-4.86
2.35
7.35
10.23
11.30
10.98
9.70
7.90
6.00
4.40
3.43
3.26
3.88
5.14
6.76
8.47
10.03
11.30
12.23
12.90
13.42
13.95
14.61
15.43
16.36
17.29
18.02
18.28
17.84
16.53
14.39
11.81
9.45
8.12
8.55
11.10
15.74
22.04
29.43
37.41
45.66
54.09
62.65
71.14
79.07
85.57
89.57
90.01
86.17
77.99
66.23
52.39
38.41
26.27
17.44
12.56
11.26
12.35
14.16
15.18
14.45
11.75
7.50
2.54
-2.29
-6.36
-9.43
-11.51
-12.76
-13.39
-13.65
-13.80
-14.02
-14.35
-14.68
-14.77
-14.27
-12.75
-10.04
-6.34
-2.11
2.09
5.98
9.52
12.87
16.26
20.02
24.02
27.58
29.75
29.83
27.88
24.55
20.85
17.74
16.20
16.38
17.53
18.44
18.16
16.65
14.45
12.46
11.61
13.17
17.63
24.30
31.53
37.28
40.11
39.23
34.78
24.65
10.05
-4.99
-16.16
-21.40
-23.44
-25.04
-27.80
-31.48
-34.79
-35.38
-31.41
-22.36
-9.14
6.15
21.08
32.80
38.74
37.33
29.12
16.30
2.07
-10.16
-17.72
-19.21
-15.26
-8.20
-1.11
3.59
4.59
1.75
-4.11
-11.60
-19.14
-25.55
-30.16
-32.85
-33.64
-32.85
-31.08
-29.10
-27.70
-27.30
-27.97
-29.22
-30.15
-29.72
-27.24
-22.79
-17.28
-12.11
-8.67
-7.83
-9.69
-13.63
-18.55
-23.31
-27.12
-29.74
-31.52
-33.22
-35.63
-39.28
-44.10
-49.43
-54.21
-57.39
-58.27
-56.75
-53.22
-48.30
-42.57
-36.43
-30.09
-23.70
-17.50
-11.80
-6.99
-3.31
-0.85
0.68
1.89
3.69
7.04
12.56
20.22
29.18
38.06
45.53
50.91
54.46
57.22
60.34
64.33
68.68
71.97
72.49
68.99
61.10
49.39
35.14
19.84
4.88
-8.74
-20.39
-29.86
-37.21
-42.74
-46.90
-50.33
-53.73
-57.70
-62.50
-67.92
-73.22
-77.37
-79.47
-79.17
-76.87
-73.59
-70.61
-68.92
-68.82
-69.76
-70.49
-69.34
-64.73
-55.45
-41.10
-22.17
-0.07
23.15
45.23
64.18
78.74
88.53
93.90
95.62
94.48
91.05
85.57
78.20
69.11
58.69
47.52
36.25
25.48
15.61
6.91
-0.48
-6.56
-11.39
-15.18
-18.18
-20.70
-22.99
-25.24
-27.49
-29.74
-31.92
-33.97
-35.84
-37.59
-39.39
-41.45
-43.80
-46.09
-47.50
-46.83
-42.95
-35.24
-24.04
-10.61
3.20
15.51
24.97
31.04
33.92
34.23
32.64
29.71
25.76
21.11
16.10
11.17
6.74
3.08
0.24
-1.96
-3.80
-5.53
-7.25
-8.96
-10.59
-12.16
-13.71
-15.33
-17.05
-18.84
-20.57
-22.11
-23.44
-24.64
-26.02
-27.88
-30.41
-33.39
-36.05
-37.19
-35.41
-29.68
-19.79
-6.54
8.36
22.86
35.14
44.05
49.29
51.17
50.32
47.39
42.92
37.40
31.29
25.09
19.23
13.97
9.37
5.29
1.52
-2.04
-5.41
-8.51
-11.26
-13.67
-15.85
-17.94
-20.00
-21.95
-23.64
-24.93
-25.82
-26.49
-27.33
-28.80
-31.23
-34.55
-38.18
-40.95
-41.37
-38.01
-30.04
-17.51
-1.55
15.90
32.57
46.41
56.07
61.09
61.86
59.28
54.48
48.51
42.16
35.90
29.99
24.51
19.44
14.72
10.26
6.00
1.91
-1.93
-5.42
-8.47
-11.12
-13.50
-15.80
-18.15
-20.52
-22.76
-24.67
-26.12
-27.16
-28.04
-29.18
-31.08
-34.06
-38.09
-42.53
-46.16
-47.33
-44.44
-36.48
-23.43
-6.44
12.44
30.73
46.21
57.36
63.65
65.43
63.63
59.37
53.72
47.47
41.19
35.24
29.79
24.90
20.42
16.11
11.71
7.10
2.37
-2.16
-6.11
-9.19
-11.39
-12.97
-14.34
-15.92
-17.93
-20.35
-22.91
-25.26
-27.08
-28.28
-29.03
-29.81
-31.21
-33.71
-37.35
-41.53
-44.99
-46.01
-42.95
-34.82
-21.74
-5.06
13.00
29.92
43.60
52.87
57.55
58.20
55.76
51.21
45.34
38.84
32.28
26.18
20.89
16.51
12.79
9.28
5.55
1.42
-2.93
-7.05
-10.40
-12.71
-14.03
-14.83
-15.69
-17.08
-19.13
-21.57
-23.90
-25.61
-26.45
-26.55
-26.40
-26.72
-28.20
-31.25
-35.62
-40.33
-43.72
-43.85
-39.12
-28.84
-13.63
4.69
23.57
40.46
53.49
61.80
65.48
65.27
62.14
56.99
50.56
43.46
36.27
29.54
23.66
18.73
14.51
10.54
6.38
1.90
-2.62
-6.58
-9.39
-10.77
-10.93
-10.57
-10.54
-11.53
-13.79
-17.06
-20.71
-24.07
-26.63
-28.28
-29.32
-30.36
-32.13
-35.15
-39.51
-44.60
-49.09
-51.11
-48.82
-40.96
-27.48
-9.65
10.19
29.34
45.50
57.30
64.41
67.34
66.95
64.13
59.60
53.94
47.63
41.13
34.84
29.07
23.92
19.33
15.08
10.93
6.77
2.65
-1.19
-4.42
-6.75
-8.13
-8.77
-9.11
-9.71
-10.99
-13.18
-16.15
-19.53
-22.84
-25.63
-27.69
-29.04
-29.99
-30.99
-32.57
-35.17
-38.97
-43.68
-48.41
-51.72
-51.89
-47.41
-37.56
-22.79
-4.73
14.21
31.48
45.11
54.09
58.43
58.90
56.58
52.49
47.38
41.72
35.78
29.80
24.09
18.93
14.52
10.85
7.71
4.78
1.82
-1.19
-4.05
-6.40
-7.98
-8.75
-8.97
-9.09
-9.59
-10.81
-12.84
-15.52
-18.51
-21.44
-24.01
-26.05
-27.56
-28.70
-29.77
-31.14
-33.24
-36.36
-40.47
-45.03
-48.92
-50.51
-48.11
-40.47
-27.30
-9.54
10.74
30.89
48.33
61.20
68.72
71.21
69.67
65.36
59.38
52.50
45.23
37.96
31.09
25.01
19.97
15.96
12.67
9.67
6.61
3.35
0.06
-2.93
-5.33
-7.04
-8.16
-8.98
-9.83
-11.01
-12.69
-14.88
-17.49
-20.30
-23.08
-25.60
-27.74
-29.49
-31.01
-32.59
-34.65
-37.59
-41.60
-46.43
-51.22
-54.50
-54.50
-49.67
-39.19
-23.46
-4.05
16.68
36.15
52.21
63.60
69.99
71.82
70.02
65.68
59.82
53.33
46.84
40.78
35.32
30.41
25.86
21.46
17.12
12.92
9.09
5.96
3.74
2.44
1.84
1.47
0.86
-0.36
-2.27
-4.66
-7.17
-9.41
-11.20
-12.62
-13.99
-15.66
-17.88
-20.63
-23.62
-26.43
-28.72
-30.42
-31.76
-33.29
-35.61
-39.16
-43.86
-49.01
-53.26
-54.91
-52.38
-44.68
-31.89
-15.16
3.44
21.50
36.85
48.09
54.71
57.09
56.13
52.92
48.44
43.42
38.31
33.39
28.73
24.37
20.28
16.43
12.80
9.45
6.51
4.11
2.34
1.19
0.48
-0.06
-0.72
-1.71
-3.07
-4.67
-6.32
-7.84
-9.20
-10.54
-12.05
-13.89
-16.11
-18.58
-21.04
-23.25
-25.05
-26.47
-27.74
-29.29
-31.57
-34.91
-39.20
-43.68
-47.03
-47.56
-43.75
-34.82
-21.09
-4.02
14.14
30.97
44.46
53.51
57.95
58.38
55.78
51.16
45.41
39.19
33.01
27.24
22.17
17.92
14.47
11.65
9.29
7.22
5.39
3.77
2.34
1.07
-0.17
-1.48
-2.93
-4.52
-6.22
-7.99
-9.85
-11.85
-14.08
-16.56
-19.18
-21.76
-24.07
-25.97
-27.46
-28.74
-30.17
-32.18
-35.13
-39.11
-43.77
-48.16
-50.80
-50.02
-44.48
-33.71
-18.46
-0.54
17.64
33.81
46.35
54.64
58.86
59.72
58.08
54.75
50.41
45.55
40.61
35.86
31.52
27.63
24.11
20.80
17.56
14.33
11.26
8.63
6.74
5.74
5.43
5.35
4.89
3.62
1.48
-1.23
-3.96
-6.22
-7.84
-8.98
-10.12
-11.71
-14.03
-16.99
-20.23
-23.27
-25.76
-27.56
-28.77
-29.68
-30.70
-32.28
-34.79
-38.35
-42.64
-46.67
-48.95
-47.85
-42.15
-31.56
-17.00
-0.35
16.11
30.29
40.86
47.35
50.10
49.90
47.67
44.20
40.10
35.74
31.31
26.94
22.70
18.66
14.86
11.39
8.32
5.74
3.70
2.16
1.00
0.01
-1.00
-2.15
-3.44
-4.76
-6.01
-7.18
-8.32
-9.56
-11.01
-12.73
-14.70
-16.85
-19.02
-21.08
-22.86
-24.29
-25.42
-26.48
-27.90
-30.08
-33.17
-36.78
-39.86
-40.90
-38.39
-31.41
-20.06
-5.59
9.98
24.44
36.07
44.02
48.30
49.53
48.53
46.03
42.53
38.33
33.64
28.69
23.75
19.08
14.93
11.44
8.67
6.53
4.87
3.49
2.24
1.03
-0.20
-1.44
-2.70
-3.97
-5.27
-6.64
-8.11
-9.74
-11.58
-13.65
-15.93
-18.35
-20.76
-23.03
-25.04
-26.78
-28.36
-30.05
-32.24
-35.20
-38.91
-42.79
-45.70
-46.10
-42.60
-34.44
-21.95
-6.48
9.93
25.15
37.57
46.38
51.57
53.63
53.27
51.21
48.04
44.28
40.33
36.47
32.82
29.36
25.97
22.51
18.94
15.33
11.91
8.95
6.65
5.10
4.14
3.46
2.64
1.37
-0.45
-2.68
-4.99
-7.03
-8.68
-10.03
-11.40
-13.13
-15.38
-18.09
-20.94
-23.52
-25.54
-26.90
-27.81
-28.70
-30.09
-32.48
-36.04
-40.45
-44.77
-47.55
-47.21
-42.61
-33.46
-20.60
-5.74
9.00
21.77
31.40
37.53
40.52
41.06
39.87
37.56
34.53
31.04
27.28
23.42
19.62
16.03
12.72
9.73
7.01
4.55
2.34
0.43
-1.11
-2.23
-2.99
-3.51
-3.94
-4.45
-5.13
-6.06
-7.26
-8.73
-10.42
-12.20
-13.92
-15.44
-16.70
-17.75
-18.76
-19.95
-21.62
-24.00
-27.27
-31.30
-35.49
-38.77
-39.70
-36.92
-29.71
-18.34
-4.11
11.01
24.97
36.20
43.93
48.15
49.35
48.21
45.40
41.47
36.90
32.12
27.50
23.29
19.56
16.28
13.29
10.48
7.88
5.61
3.90
2.87
2.46
2.38
2.20
1.53
0.17
-1.81
-4.12
-6.41
-8.42
-10.07
-11.49
-12.90
-14.51
-16.38
-18.45
-20.53
-22.41
-23.96
-25.22
-26.45
-28.03
-30.41
-33.88
-38.30
-42.96
-46.54
-47.42
-44.19
-36.14
-23.70
-8.33
7.88
22.85
35.07
43.88
49.34
51.90
52.14
50.55
47.56
43.62
39.23
34.88
30.92
27.42
24.22
21.02
17.61
13.96
10.37
7.26
5.04
3.87
3.58
3.70
3.67
3.05
1.68
-0.25
-2.38
-4.32
-5.86
-7.00
-7.97
-9.07
-10.61
-12.69
-15.25
-17.99
-20.58
-22.72
-24.31
-25.50
-26.66
-28.25
-30.73
-34.25
-38.53
-42.70
-45.44
-45.26
-41.06
-32.47
-20.18
-5.73
8.89
21.82
31.82
38.39
41.73
42.41
41.17
38.60
35.18
31.28
27.14
23.00
19.05
15.47
12.37
9.78
7.70
6.09
4.90
4.09
3.60
3.33
3.14
2.86
2.30
1.30
-0.21
-2.27
-4.80
-7.65
-10.62
-13.45
-15.92
-17.93
-19.50
-20.77
-21.97
-23.33
-25.07
-27.42
-30.52
-34.25
-38.09
-41.01
-41.66
-38.72
-31.43
-19.98
-5.59
9.80
24.14
35.77
43.83
48.26
49.58
48.58
46.04
42.60
38.70
34.63
30.60
26.75
23.18
19.93
16.95
14.20
11.59
9.12
6.87
4.93
3.42
2.33
1.51
0.72
-0.27
-1.59
-3.22
-5.07
-7.03
-9.08
-11.29
-13.73
-16.42
-19.19
-21.79
-23.92
-25.44
-26.43
-27.23
-28.38
-30.39
-33.55
-37.69
-42.02
-45.25
-45.77
-42.25
-34.11
-21.84
-6.94
8.50
22.47
33.61
41.37
45.98
48.06
48.27
47.13
44.99
42.16
38.93
35.58
32.31
29.14
26.00
22.80
19.49
16.22
13.21
10.73
8.93
7.76
6.95
6.07
4.72
2.67
-0.01
-3.01
-5.84
-8.10
-9.60
-10.48
-11.14
-12.03
-13.51
-15.63
-18.19
-20.80
-23.07
-24.77
-25.87
-26.63
-27.49
-28.95
-31.40
-34.83
-38.73
-41.98
-43.13
-40.82
-34.30
-23.80
-10.54
3.64
16.79
27.44
34.87
39.07
40.54
39.92
37.79
34.60
30.69
26.36
21.93
17.68
13.85
10.59
7.92
5.75
3.94
2.33
0.81
-0.64
-1.97
-3.09
-3.92
-4.42
-4.69
-4.90
-5.28
-6.08
-7.46
-9.39
-11.69
-14.01
-16.05
-17.62
-18.78
-19.78
-20.99
-22.82
-25.50
-29.08
-33.20
-37.10
-39.64
-39.51
-35.66
-27.67
-16.08
-2.30
11.73
24.13
33.61
39.69
42.64
43.16
42.00
39.77
36.86
33.56
30.08
26.63
23.32
20.23
17.28
14.43
11.65
9.02
6.69
4.76
3.25
2.08
1.08
0.13
-0.85
-1.92
-3.11
-4.50
-6.20
-8.25
-10.61
-13.14
-15.63
-17.88
-19.76
-21.25
-22.46
-23.61
-25.02
-27.04
-29.99
-33.91
-38.37
-42.40
-44.58
-43.41
-37.87
-27.88
-14.49
0.41
14.65
26.53
35.18
40.64
43.48
44.46
44.12
42.80
40.70
38.02
35.03
31.94
28.85
25.72
22.42
18.88
15.18
11.60
8.51
6.23
4.84
4.17
3.80
3.21
2.04
0.21
-2.01
-4.18
-5.96
-7.28
-8.40
-9.74
-11.69
-14.33
-17.40
-20.47
-23.11
-25.10
-26.48
-27.55
-28.71
-30.40
-32.95
-36.50
-40.75
-44.86
-47.50
-47.17
-42.76
-33.98
-21.67
-7.48
6.59
18.81
28.20
34.51
38.08
39.42
39.05
37.33
34.60
31.17
27.40
23.63
20.07
16.83
13.87
11.11
8.44
5.85
3.39
1.22
-0.51
-1.66
-2.19
-2.23
-2.07
-2.09
-2.68
-4.05
-6.19
-8.85
-11.62
-14.14
-16.15
-17.59
-18.61
-19.46
-20.47
-21.96
-24.26
-27.54
-31.62
-35.83
-38.99
-39.63
-36.46
-28.86
-17.23
-2.96
11.95
25.48
36.13
43.24
46.90
47.74
46.57
44.16
41.07
37.66
34.11
30.50
26.85
23.20
19.64
16.32
13.37
10.87
8.80
7.03
5.44
3.93
2.50
1.18
-0.01
-1.14
-2.33
-3.74
-5.49
-7.57
-9.93
-12.43
-14.96
-17.44
-19.77
-21.89
-23.75
-25.37
-26.92
-28.70
-31.13
-34.52
-38.79
-43.21
-46.46
-46.89
-43.11
-34.56
-21.85
-6.62
9.01
23.04
34.18
41.96
46.61
48.63
48.61
47.03
44.37
41.10
37.67
34.44
31.51
28.78
26.00
22.98
19.63
16.11
12.72
9.77
7.49
5.92
4.86
3.98
2.91
1.40
-0.58
-2.79
-4.90
-6.64
-7.97
-9.08
-10.32
-11.97
-14.14
-16.64
-19.14
-21.30
-22.91
-24.01
-24.83
-25.79
-27.36
-29.94
-33.64
-38.07
-42.27
-44.81
-44.16
-39.25
-29.95
-17.19
-2.71
11.44
23.54
32.57
38.32
41.15
41.67
40.51
38.19
35.12
31.62
27.93
24.23
20.62
17.17
13.98
11.15
8.73
6.74
5.09
3.64
2.30
1.06
-0.05
-0.98
-1.75
-2.45
-3.27
-4.36
-5.83
-7.67
-9.80
-12.05
-14.27
-16.34
-18.18
-19.81
-21.29
-22.75
-24.41
-26.54
-29.39
-33.01
-37.03
-40.57
-42.30
-40.82
-35.18
-25.30
-12.13
2.60
16.87
29.00
38.00
43.61
46.17
46.29
44.63
41.78
38.26
34.53
30.93
27.70
24.89
22.35
19.78
16.96
13.80
10.53
7.61
5.58
4.75
5.05
5.95
6.62
6.24
4.36
1.05
-3.15
-7.51
-11.36
-14.43
-16.84
-19.02
-21.46
-24.56
-28.53
-33.38
-38.98
-45.10
-51.37
-57.34
-62.51
-66.49
-69.06
-70.22
-69.97
-68.19
-64.55
-58.68
-50.52
-40.54
-29.80
-19.63
-11.05
-4.46
0.54
4.80
9.17
14.03
19.22
24.20
28.33
31.21
32.73
33.05
32.46
31.25
29.64
27.78
25.71
23.53
21.38
19.47
18.07
17.39
17.59
18.70
20.72
23.58
27.08
30.84
34.22
36.49
36.91
35.04
30.76
24.32
16.23
7.13
-2.22
-11.09
-18.79
-24.92
-29.48
-33.01
-36.41
-40.53
-45.79
-51.70
-56.84
-59.08
-56.22
-46.68
-30.17
-7.94
17.43
42.66
64.64
81.15
91.23
95.11
93.87
88.88
81.54
72.94
63.89
54.99
46.62
39.03
32.33
26.51
21.44
16.91
12.69
8.57
4.47
0.43
-3.37
-6.78
-9.72
-12.30
-14.75
-17.34
-20.23
-23.40
-26.69
-29.86
-32.68
-35.03
-36.89
-38.35
-39.58
-40.86
-42.48
-44.77
-47.87
-51.58
-55.26
-57.74
-57.52
-53.22
-43.97
-29.87
-12.04
7.52
26.46
42.64
54.59
61.80
64.57
63.82
60.68
56.22
51.24
46.23
41.41
36.80
32.38
28.06
23.80
19.57
15.41
11.43
7.79
4.67
2.18
0.29
-1.16
-2.43
-3.80
-5.50
-7.66
-10.31
-13.40
-16.85
-20.57
-24.37
-28.06
-31.43
-34.30
-36.64
-38.62
-40.58
-43.00
-46.33
-50.72
-55.91
-61.06
-64.85
-65.70
-62.16
-53.32
-39.15
-20.66
0.30
21.45
40.53
55.86
66.51
72.45
74.23
72.82
69.23
64.38
58.96
53.43
48.03
42.89
38.04
33.46
29.17
25.16
21.46
18.11
15.14
12.55
10.25
8.11
5.94
3.58
0.98
-1.83
-4.66
-7.34
-9.76
-11.95
-14.09
-16.40
-19.07
-22.14
-25.45
-28.68
-31.50
-33.69
-35.33
-36.80
-38.71
-41.63
-45.72
-50.51
-54.85
-57.12
-55.63
-49.22
-37.60
-21.65
-3.22
15.27
31.47
43.67
51.12
54.10
53.52
50.61
46.43
41.75
36.97
32.24
27.63
23.20
19.03
15.22
11.83
8.86
6.25
3.90
1.69
-0.42
-2.43
-4.30
-6.04
-7.68
-9.30
-11.04
-12.95
-15.08
-17.40
-19.89
-22.50
-25.14
-27.70
-30.02
-31.99
-33.63
-35.14
-36.90
-39.36
-42.76
-46.95
-51.16
-54.01
-53.83
-49.09
-38.96
-23.72
-4.82
15.45
34.52
50.18
61.07
66.89
68.19
66.06
61.65
55.92
49.55
42.99
36.60
30.68
25.50
21.16
17.57
14.49
11.64
8.80
5.90
3.01
0.25
-2.27
-4.50
-6.49
-8.40
-10.43
-12.80
-15.72
-19.27
-23.38
-27.85
-32.30
-36.35
-39.72
-42.35
-44.48
-46.60
-49.33
-53.18
-58.35
-64.47
-70.62
-75.34
-76.98
-73.99
-65.44
-51.35
-32.87
-12.08
8.46
26.38
40.01
48.60
52.25
51.60
47.51
40.90
32.71
23.85
15.11
7.00
-0.44
-7.66
-15.38
-24.29
-34.74
-46.52
-58.71
-69.76
-77.65
-80.34
-76.36
-65.43
-48.75
-28.81
-8.62
9.17
23.00
32.55
38.26
40.72
40.26
37.03
31.33
23.97
16.17
9.11
3.29
-1.80
-7.49
-15.35
-26.40
-40.67
-57.13
-73.91
-88.77
-99.39
-103.66
-99.95
-87.45
-66.59
-39.12
-8.03
23.21
51.38
74.31
91.11
101.97
107.62
108.88
106.44
101.08
93.90
86.46
80.44
77.14
76.85
78.63
80.67
80.89
77.77
70.91
61.10
49.99
39.34
30.48
23.80
18.87
14.66
10.09
4.44
-2.31
-9.43
-15.58
-19.20
-19.06
-14.80
-7.27
1.57
9.20
13.35
12.74
7.52
-0.79
-9.76
-16.75
-19.55
-16.88
-8.60
4.25
19.77
35.66
49.79
60.63
67.46
70.30
69.65
66.33
61.32
55.76
50.72
47.01
44.87
44.00
43.69
43.20
42.06
40.23
38.03
35.98
34.64
34.42
35.33
36.57
36.42
32.50
22.72
6.42
-14.85
-37.49
-57.14
-70.32
-75.79
-74.68
-69.55
-63.00
-56.65
-51.01
-46.02
-41.81
-38.88
-37.81
-38.62
-40.56
-42.31
-42.65
-41.07
-37.98
-34.39
-31.43
-29.81
-29.67
-30.67
-32.14
-33.33
-33.52
-32.21
-29.44
-25.91
-22.94
-22.20
-25.09
-32.25
-43.28
-56.84
-71.05
-84.06
-94.39
-101.02
-103.35
-101.14
-94.81
-85.70
-75.90
-67.71
-62.51
-60.02
-58.15
-53.99
-45.20
-31.24
-13.48
5.37
22.45
35.87
45.02
50.36
53.02
54.37
55.95
59.42
66.03
75.96
88.03
100.06
109.64
115.18
116.30
113.71
108.92
103.21
97.15
90.63
83.21
74.35
63.67
50.71
35.08
17.50
-0.83
-18.47
-33.99
-45.87
-53.07
-54.71
-50.99
-43.18
-31.65
-17.53
-3.08
8.81
16.09
17.93
16.08
12.83
10.04
11.15
17.81
28.87
41.43
53.22
63.22
73.57
86.33
102.34
124.34
153.18
186.50
219.89
249.49
272.54
290.07
303.46
292.94
248.13
174.54
90.49
13.30
-42.42
-83.76
-116.77
-144.95
-170.13
-189.30
-198.93
-198.71
-191.53
-181.29
-172.14
-165.10
-160.94
-160.52
-162.03
-160.72
-154.52
-143.86
-130.55
-117.16
-104.26
-92.43
-82.35
-72.54
-61.09
-47.46
-32.49
-17.99
-6.44
1.05
4.05
3.10
0.54
-0.95
-0.24
2.28
5.30
7.31
7.74
6.50
3.63
-0.63
-5.94
-12.03
-17.99
-22.00
-21.83
-15.58
-2.86
14.92
33.88
49.98
59.95
62.28
57.32
46.86
33.47
19.71
7.60
-1.70
-7.71
-10.80
-11.79
-11.69
-11.38
-11.50
-12.49
-14.48
-17.17
-19.67
-20.90
-19.97
-16.57
-11.11
-4.70
1.30
5.75
8.07
8.39
7.32
5.67
3.93
2.39
1.10
0.04
-0.69
-1.01
-0.84
-0.34
0.11
0.02
-0.91
-2.66
-4.84
-6.87
-8.25
-8.78
-8.61
-8.11
-7.66
-7.48
-7.57
-7.82
-7.99
-7.97
-7.80
-7.70
-7.99
-8.99
-10.81
-13.31
-15.95
-17.85
-18.16
-16.33
-12.28
-6.47
0.27
6.94
12.62
16.60
18.61
18.66
16.99
14.09
10.51
6.84
3.60
1.18
-0.92
-2.83
-4.75
-6.82
-9.13
-11.60
-13.96
-15.84
-16.89
-16.95
-16.10
-14.79
-13.66
-13.28
-13.86
-15.13
-16.49
-17.25
-16.95
-15.51
-13.43
-11.53
-10.70
-11.47
-13.77
-16.87
-19.51
-20.22
-17.64
-10.93
-0.02
14.39
30.97
47.95
63.44
75.76
83.67
86.65
84.91
79.29
71.08
61.71
52.37
43.86
36.51
30.21
24.62
19.30
13.91
8.29
2.51
-3.17
-8.40
-12.90
-16.59
-19.57
-22.09
-24.44
-26.78
-29.13
-31.34
-33.19
-34.44
-34.94
-34.57
-33.36
-31.37
-28.80
-25.91
-22.97
-20.19
-17.68
-15.34
-12.95
-10.21
-6.91
-2.96
1.51
6.20
10.68
14.52
17.38
19.06
19.55
18.96
17.49
15.36
12.76
9.87
6.88
4.02
1.51
-0.51
-2.02
-3.13
-4.08
-5.07
-6.25
-7.59
-8.92
-9.96
-10.35
-9.75
-7.88
-4.63
-0.14
5.21
10.82
16.02
20.32
23.53
25.92
28.05
30.62
34.17
38.87
44.54
50.69
56.75
62.25
66.85
70.37
72.63
73.44
72.51
69.60
64.45
56.97
47.23
35.48
22.22
8.02
-6.49
-20.75
-34.29
-46.73
-57.70
-66.83
-73.77
-78.30
-80.41
-80.42
-78.93
-76.72
-74.55
-72.96
-72.13
-71.83
-71.52
-70.46
-67.90
-63.35
-56.61
-47.80
-37.28
-25.48
-12.82
0.21
13.00
24.66
34.08
40.14
42.11
39.97
34.48
27.05
19.37
12.92
8.72
7.08
7.66
9.56
11.67
12.91
12.63
10.75
7.70
4.18
0.79
-2.21
-4.96
-7.80
-11.00
-14.60
-18.36
-21.89
-24.85
-27.01
-28.23
-28.44
-27.47
-25.10
-21.11
-15.40
-8.09
0.44
9.69
19.04
27.83
35.37
40.95
43.91
43.84
40.73
35.08
27.93
20.54
14.13
9.49
6.78
5.59
5.13
4.57
3.38
1.47
-0.85
-2.99
-4.43
-5.00
-4.99
-5.19
-6.54
-9.87
-15.46
-22.89
-30.97
-38.07
-42.43
-42.70
-38.28
-29.56
-17.82
-4.97
7.01
16.68
23.42
27.57
30.01
31.77
33.48
35.24
36.75
37.67
37.87
37.57
37.20
37.19
37.71
38.66
39.66
40.23
39.89
38.31
35.41
31.42
26.83
22.24
18.20
14.97
12.52
10.48
8.36
5.66
2.02
-2.77
-8.72
-15.57
