1660324379.00
64.000000
-0.00
-0.00
-0.00
-0.00
-0.00
-0.00
-0.00
-0.00
-0.00
-0.00
0.00
0.01
0.01
-0.00
-0.03
-0.05
-0.05
0.00
0.13
0.36
0.66
1.01
1.37
1.72
2.06
2.40
2.79
3.25
3.80
4.42
5.05
5.65
6.20
6.69
7.19
7.74
8.35
9.11
9.91
10.65
11.25
11.68
12.05
12.53
13.33
14.55
16.40
18.64
21.01
23.26
25.27
27.14
29.20
31.85
35.31
39.89
45.17
50.66
55.85
60.52
64.82
69.26
74.43
80.64
88.22
96.52
104.79
112.36
118.97
124.93
130.92
138.07
144.67
152.51
161.91
173.06
185.14
195.87
201.43
197.33
179.88
147.53
101.91
46.40
-14.60
-77.24
-139.13
-199.25
-257.40
-313.51
-367.37
-418.32
-466.28
-511.31
-553.17
-590.51
-620.11
-636.99
-635.43
-611.02
-562.36
-492.44
-407.75
-316.37
-225.63
-140.45
-63.14
5.79
66.33
118.30
161.17
194.69
219.37
236.46
247.64
254.34
257.48
257.35
253.89
247.05
237.13
224.84
211.23
197.36
183.98
171.40
159.44
147.66
135.67
123.42
111.22
99.61
89.10
79.92
71.90
64.62
57.57
50.46
43.27
36.30
29.88
24.30
19.62
15.66
12.15
8.89
5.75
2.74
0.02
-2.23
-3.91
-5.05
-5.82
-6.43
-7.02
-7.67
-8.30
-8.80
-9.04
-9.00
-8.77
-8.48
-8.26
-8.13
-8.04
-7.86
-7.51
-6.96
-6.28
-5.59
-4.98
-4.48
-4.07
-3.70
-3.32
-2.92
-2.50
-2.07
-1.62
-1.17
-0.77
-0.51
-0.47
-0.69
-1.15
-1.71
-2.22
-2.54
-2.62
-2.48
-2.22
-1.96
-1.75
-1.60
-1.44
-1.22
-0.94
-0.67
-0.54
-0.62
-0.97
-1.51
-2.06
-2.42
-2.42
-2.00
-1.28
-0.50
0.12
0.46
0.53
0.46
0.39
0.41
0.49
0.55
0.53
0.43
0.32
0.31
0.47
0.78
1.18
1.54
1.81
1.93
1.97
2.00
2.11
2.32
2.59
2.86
3.05
3.08
2.94
2.63
2.17
1.60
0.96
0.30
-0.37
-1.02
-1.64
-2.26
-2.87
-3.44
-3.90
-4.18
-4.24
-4.10
-3.83
-3.53
-3.28
-3.15
-3.15
-3.24
-3.34
-3.35
-3.21
-2.87
-2.40
-1.90
-1.51
-1.33
-1.37
-1.53
-1.68
-1.70
-1.60
-1.42
-1.27
-1.20
-1.19
-1.17
-1.09
-0.93
-0.74
-0.56
-0.43
-0.31
-0.14
0.11
0.41
0.66
0.81
0.82
0.69
0.47
0.20
-0.05
-0.26
-0.38
-0.39
-0.29
-0.10
0.11
0.25
0.30
0.23
0.07
-0.12
-0.28
-0.36
-0.36
-0.31
-0.28
-0.35
-0.55
-0.86
-1.23
-1.62
-1.97
-2.24
-2.38
-2.35
-2.12
-1.72
-1.23
-0.77
-0.43
-0.28
-0.25
-0.29
-0.32
-0.32
-0.29
-0.24
-0.12
0.14
0.59
1.19
1.80
2.25
2.40
2.23
1.83
1.43
1.20
1.20
1.39
1.61
1.68
1.50
1.06
0.43
-0.26
-0.89
-1.33
-1.56
-1.58
-1.46
-1.25
-1.02
-0.77
-0.49
-0.19
0.09
0.32
0.48
0.60
0.71
0.85
1.00
1.08
1.05
0.90
0.69
0.49
0.33
0.19
-0.02
-0.33
-0.70
-1.04
-1.27
-1.36
-1.31
-1.12
-0.81
-0.43
-0.06
0.15
0.12
-0.17
-0.56
-0.83
-0.80
-0.49
-0.08
0.19
0.17
-0.09
-0.36
-0.42
-0.14
0.43
1.08
1.62
1.88
1.84
1.62
1.36
1.20
1.19
1.28
1.35
1.29
1.03
0.62
0.14
-0.30
-0.62
-0.77
-0.76
-0.60
-0.34
-0.05
0.17
0.25
0.15
-0.09
-0.36
-0.57
-0.67
-0.64
-0.50
-0.27
0.03
0.37
0.67
0.86
0.88
0.77
0.63
0.56
0.60
0.74
0.88
0.94
0.90
0.79
0.65
0.52
0.39
0.23
0.06
-0.07
-0.09
0.02
0.20
0.34
0.33
0.16
-0.13
-0.39
-0.53
-0.49
-0.32
-0.12
-0.02
-0.09
-0.33
-0.66
-0.98
-1.19
-1.27
-1.22
-1.07
-0.88
-0.69
-0.55
-0.47
-0.43
-0.40
-0.37
-0.31
-0.22
-0.12
-0.03
0.03
0.05
0.04
0.02
0.02
0.03
0.03
0.01
-0.05
-0.12
-0.18
-0.18
-0.11
0.02
0.20
0.40
0.62
0.88
1.20
1.53
1.76
1.77
1.47
0.91
0.26
-0.27
-0.48
-0.38
-0.10
0.14
0.16
-0.11
-0.57
-1.11
-1.56
-1.83
-1.87
-1.71
-1.42
-1.10
-0.81
-0.60
-0.45
-0.33
-0.17
0.03
0.25
0.45
0.60
0.72
0.84
1.00
1.16
1.27
1.26
1.13
0.93
0.73
0.56
0.44
0.31
0.13
-0.12
-0.41
-0.69
-0.90
-1.00
-0.99
-0.94
-0.89
-0.89
-0.94
-1.00
-1.01
-0.89
-0.62
-0.23
0.16
0.44
0.56
0.55
0.51
0.53
0.64
0.79
0.91
0.93
0.83
0.65
0.44
0.24
0.10
0.03
0.06
0.18
0.37
0.58
0.75
0.81
0.74
0.53
0.21
-0.24
-0.75
-1.25
-1.61
-1.71
-1.50
-1.07
-0.59
-0.22
-0.09
-0.13
-0.26
-0.36
-0.37
-0.30
-0.21
-0.13
-0.05
0.07
0.25
0.46
0.60
0.60
0.44
0.17
-0.11
-0.30
-0.34
-0.26
-0.10
0.06
0.18
0.25
0.26
0.20
0.10
-0.06
-0.24
-0.43
-0.58
-0.67
-0.68
-0.62
-0.51
-0.40
-0.32
-0.27
-0.23
-0.16
-0.03
0.15
0.35
0.51
0.58
0.56
0.48
0.39
0.32
0.31
0.36
0.44
0.56
0.66
0.74
0.77
0.72
0.60
0.44
0.24
0.03
-0.17
-0.33
-0.45
-0.51
-0.50
-0.43
-0.33
-0.23
-0.19
-0.26
-0.43
-0.66
-0.86
-0.92
-0.76
-0.38
0.11
0.58
0.90
1.03
1.02
0.99
1.01
1.09
1.19
1.22
1.20
1.18
1.27
1.53
1.86
2.08
2.02
1.62
1.03
0.50
0.29
0.51
1.06
1.66
2.02
1.98
1.59
1.05
0.61
0.49
0.76
1.36
2.05
2.56
2.71
2.42
1.83
1.26
1.15
1.95
3.71
5.99
7.82
8.07
5.96
1.52
-4.22
-9.34
-11.82
-10.39
-5.05
3.08
12.35
21.25
28.81
34.50
38.35
40.71
42.09
43.06
44.16
45.68
47.33
48.08
45.68
38.44
26.61
12.99
1.52
-4.62
-4.19
2.15
12.45
24.02
34.73
43.31
49.34
52.51
53.15
51.63
48.53
44.80
41.27
38.90
38.30
39.38
41.27
42.65
42.04
37.88
31.46
23.62
15.57
8.52
3.36
0.43
-0.39
0.41
2.13
4.39
6.90
9.87
13.58
18.04
22.95
27.82
32.07
34.85
35.59
33.81
29.49
22.87
14.47
5.14
-4.04
-12.15
-19.79
-27.73
-36.56
-46.37
-57.06
-68.38
-79.81
-90.51
-99.63
-108.64
-118.45
-128.60
-137.55
-144.03
-147.59
-148.38
-146.79
-143.47
-142.54
-146.45
-154.62
-164.10
-172.22
-177.88
-181.19
-182.79
-183.37
-187.85
-198.45
-213.38
-228.18
-239.33
-245.85
-248.55
-248.95
-222.15
-160.17
-76.12
5.51
68.63
110.74
136.72
152.55
162.65
169.22
166.97
154.45
134.08
111.30
91.04
75.87
66.48
62.66
67.87
78.58
91.25
103.93
116.31
127.73
136.68
141.85
143.06
141.22
135.17
125.20
112.99
101.15
91.71
85.56
82.80
82.84
84.35
83.84
78.53
67.23
50.84
31.83
13.30
-1.90
-12.07
-17.14
-19.09
-19.95
-20.93
-22.01
-22.45
-21.68
-19.68
-17.04
-14.62
-13.20
-12.96
-13.55
-14.29
-14.58
-14.20
-13.39
-12.66
-12.57
-13.44
-15.20
-17.36
-19.19
-20.19
-20.28
-19.83
-19.47
-19.77
-20.93
-22.73
-24.68
-26.15
-26.85
-26.82
-26.37
-25.78
-25.10
-24.02
-21.96
-19.18
-15.81
-12.27
-9.11
-6.75
-5.31
-4.52
-3.91
-3.06
-1.76
0.12
2.65
6.00
10.29
15.42
20.76
25.25
27.81
27.95
26.25
24.20
23.52
25.23
29.08
33.65
37.09
38.11
36.52
33.16
29.21
25.46
22.08
18.78
15.38
12.12
9.62
8.50
8.87
10.15
11.32
11.39
9.90
7.03
3.36
-0.50
-4.23
-7.84
-11.46
-15.08
-18.25
-20.23
-20.16
-17.61
-12.78
-6.64
-0.56
4.15
6.66
6.79
4.89
1.54
-2.68
-7.27
-11.84
-16.00
-19.41
-21.87
-23.45
-24.39
-24.89
-24.88
-23.88
-21.27
-16.63
-10.19
-2.90
3.79
8.54
10.64
10.18
7.96
5.06
2.48
0.86
0.61
1.94
4.94
9.45
14.95
20.51
25.04
27.68
28.17
26.91
24.86
23.04
22.16
22.36
23.23
24.04
23.95
22.37
19.15
14.74
10.11
6.47
4.80
5.42
7.83
10.84
13.12
13.67
12.12
8.73
4.12
-1.00
-5.98
-10.21
-13.13
-14.28
-13.54
-11.31
-8.53
-6.42
-6.04
-7.89
-11.66
-16.46
-21.06
-24.39
-25.80
-25.31
-23.56
-21.61
-20.52
-20.82
-22.07
-22.83
-21.11
-15.26
-4.87
8.69
22.60
33.45
38.49
36.55
28.36
16.29
3.50
-6.90
-12.58
-12.52
-7.15
1.86
12.09
21.11
27.13
29.42
28.39
25.22
21.32
17.96
15.92
15.41
16.07
17.08
17.44
16.41
13.86
10.41
7.14
5.05
4.50
5.02
5.48
4.68
1.84
-3.10
-9.62
-16.81
-23.72
-29.52
-33.58
-35.55
-35.45
-33.70
-31.10
-28.56
-26.86
-26.49
-27.55
-29.86
-33.01
-36.40
-39.34
-41.25
-41.81
-41.17
-39.76
-37.87
-35.13
-30.39
-22.14
-9.52
6.82
24.44
39.84
49.88
53.11
50.38
44.17
37.30
31.63
27.53
24.41
21.64
19.29
18.18
19.08
21.91
25.37
27.44
26.43
21.92
15.16
8.38
3.78
2.40
3.82
6.54
8.84
9.63
8.77
6.86
4.82
3.38
2.91
3.43
4.63
5.95
6.77
6.58
5.21
2.95
0.46
-1.61
-2.88
-3.33
-3.15
-2.48
-1.22
0.81
3.62
6.81
9.60
11.19
11.16
9.68
7.39
4.99
2.85
0.73
-2.01
-6.10
-11.76
-18.34
-24.39
-28.04
-27.81
-23.35
-15.70
-7.01
0.31
4.53
5.16
2.88
-0.93
-4.91
-8.10
-10.01
-10.39
-9.01
-5.69
-0.53
5.85
12.30
17.46
20.30
20.46
18.47
15.44
12.63
10.96
10.76
11.77
13.34
14.62
14.80
13.24
9.65
4.31
-1.82
-7.29
-10.66
-11.13
-8.99
-5.56
-2.54
-1.32
-2.37
-5.21
-8.75
-11.85
-13.68
-13.81
-12.08
-8.51
-3.38
2.69
8.61
13.07
14.89
13.41
8.79
1.96
-5.63
-12.40
-17.06
-19.00
-18.33
-15.77
-12.42
-9.35
-7.46
-7.37
-9.33
-13.08
-17.65
-21.38
-22.30
-19.00
-11.36
-0.99
9.25
16.37
18.60
16.10
10.90
5.89
3.60
5.26
10.57
18.07
25.87
32.30
36.25
37.35
35.87
32.60
28.54
24.58
21.13
18.03
14.59
10.01
3.80
-3.86
-12.08
-19.55
-24.96
-27.62
-27.65
-26.08
-24.41
-24.09
-25.94
-29.77
-34.43
-38.20
-39.52
-37.62
-32.86
-26.50
-20.04
-14.54
-10.24
-6.69
-3.24
0.34
3.65
5.91
6.48
5.41
3.52
2.15
2.51
5.10
9.45
14.31
18.04
19.07
16.37
9.68
-0.24
-11.49
-21.19
-26.19
-24.09
-14.47
0.41
15.94
26.59
28.05
19.13
2.35
-16.89
-32.43
-39.70
-37.19
-26.56
-11.53
3.81
16.40
24.81
29.00
29.75
28.02
24.74
20.76
17.04
14.44
13.53
14.23
15.74
16.88
16.67
14.91
12.37
10.47
10.58
13.30
18.00
22.75
24.91
22.03
12.96
-1.36
-17.85
-32.31
-41.00
-42.19
-36.87
-28.09
-19.34
-12.93
-9.25
-7.25
-5.69
-4.20
-3.49
-4.50
-7.39
-11.07
-13.65
-13.58
-10.59
-6.01
-2.20
-1.54
-5.36
-13.34
-23.50
-32.75
-37.75
-36.05
-27.00
-12.22
4.65
19.04
26.92
26.29
17.96
5.30
-7.07
-15.00
-16.31
-11.28
-2.17
8.00
16.76
22.84
26.19
27.42
27.17
25.89
23.94
21.88
20.56
20.85
23.17
27.10
31.35
34.11
33.72
29.40
21.71
12.46
4.23
-0.60
-0.69
3.73
10.88
18.06
22.53
22.42
17.30
8.29
-2.32
-11.79
-17.73
-18.89
-15.48
-9.13
-2.24
2.80
4.37
2.02
-3.58
-11.00
-18.61
-24.97
-29.10
-30.67
-30.00
-28.07
-26.31
-26.15
-28.29
-32.03
-35.17
-34.66
-28.03
-14.72
3.09
20.99
33.79
37.57
31.11
16.39
-2.25
-19.66
-31.44
-35.09
-30.36
-18.93
-3.71
11.98
25.26
34.21
38.15
37.52
33.47
27.55
21.31
16.06
12.75
11.81
13.10
15.89
19.07
21.47
22.30
21.38
19.10
16.25
13.58
11.63
10.46
9.76
8.95
7.43
4.85
1.29
-2.72
-6.35
-8.92
-10.25
-10.90
-11.96
-14.55
-19.29
-25.96
-33.62
-41.07
-47.36
-52.07
-55.17
-56.79
-57.05
-56.16
-54.49
-52.47
-50.30
-47.45
-42.63
-34.31
-21.59
-5.04
13.04
29.39
40.91
45.88
44.51
38.56
30.51
22.61
16.37
12.51
11.18
12.19
14.99
18.63
21.83
23.28
22.11
18.35
12.96
7.58
3.81
2.66
4.15
7.44
11.16
13.96
14.86
13.60
10.66
7.10
4.19
2.82
3.08
4.09
4.48
3.09
-0.32
-4.88
-9.10
-11.63
-12.00
-10.70
-8.76
-7.03
-5.71
-4.44
-2.70
-0.41
1.91
3.30
2.86
0.27
-4.03
-9.01
-13.58
-17.21
-20.18
-23.32
-27.18
-31.27
-33.85
-32.55
-25.59
-12.97
3.22
19.54
32.62
40.35
42.26
39.03
31.66
21.02
8.01
-5.90
-18.41
-26.85
-29.25
-25.35
-16.86
-6.86
1.54
6.45
7.79
6.94
5.94
6.41
8.94
13.16
18.06
22.58
25.84
27.22
26.21
22.48
16.18
8.29
0.63
-4.64
-5.86
-2.64
3.90
11.57
17.86
20.74
19.16
13.26
4.29
-5.59
-13.75
-17.75
-16.14
-9.17
1.16
11.60
18.74
20.18
15.23
5.03
-7.95
-20.64
-30.29
-35.25
-35.34
-31.84
-27.04
-23.43
-22.98
-26.58
-33.79
-42.88
-50.99
-54.68
-50.86
-38.07
-17.53
6.53
27.86
40.40
40.67
29.41
11.31
-6.80
-18.73
-21.10
-14.15
-0.91
14.43
28.15
37.96
43.02
43.54
40.45
35.11
29.21
24.53
22.50
23.61
27.09
31.06
33.18
31.70
26.27
18.23
10.11
4.63
3.59
7.15
13.77
20.71
24.90
23.99
17.13
5.45
-8.24
-20.26
-27.39
-28.02
-22.77
-14.22
-5.79
-0.43
0.30
-3.62
-11.12
-20.79
-31.21
-41.02
-48.84
-53.42
-53.93
-50.49
-44.26
-37.28
-31.89
-30.22
-33.57
-41.89
-53.26
-63.85
-68.58
-62.79
-44.45
-15.77
16.75
44.34
59.44
58.89
45.36
26.03
9.31
1.26
3.48
13.29
25.80
36.49
42.94
45.09
44.44
42.84
41.64
41.51
42.55
44.45
46.54
47.77
46.97
43.34
37.07
29.52
22.99
19.97
22.12
29.58
40.76
52.33
59.96
59.44
48.44
27.99
2.87
-19.74
-33.19
-34.48
-25.85
-13.56
-4.56
-2.73
-7.19
-13.59
-17.40
-17.23
-15.60
-17.06
-24.63
-37.42
-50.59
-57.94
-55.31
-42.79
-24.91
-9.07
-3.23
-13.41
-41.60
-84.71
-134.22
-177.79
-202.42
-198.68
-164.71
-108.08
-44.21
8.58
35.84
32.74
6.00
-29.10
-55.37
-61.00
-43.93
-11.39
24.65
53.62
70.59
76.78
76.72
74.31
70.72
64.88
55.66
43.89
32.47
24.98
23.37
26.90
32.52
36.48
36.32
31.99
25.66
20.58
19.28
22.18
27.28
31.00
30.01
22.91
11.07
-1.91
-11.81
-15.58
-12.53
-4.29
6.07
15.32
21.02
21.87
17.83
9.88
-0.15
-9.94
-17.20
-20.32
-18.85
-13.65
-6.61
-0.08
3.66
2.93
-2.81
-12.52
-23.43
-31.59
-33.10
-25.78
-10.42
8.98
26.42
36.14
34.81
22.85
4.12
-15.69
-31.22
-39.23
-39.14
-32.59
-22.27
-10.75
0.25
9.91
17.98
24.37
28.81
30.99
30.84
28.88
26.24
24.37
24.38
26.57
30.06
33.16
34.13
32.03
27.36
21.84
17.67
16.39
18.16
21.77
25.31
27.04
26.04
22.24
16.09
8.21
-0.76
-9.97
-18.25
-24.27
-27.05
-26.45
-23.52
-20.21
-18.71
-20.63
-26.41
-35.25
-45.40
-54.86
-61.92
-65.68
-66.10
-63.86
-59.95
-55.24
-50.03
-43.94
-36.10
-25.59
-12.07
3.75
20.07
34.37
44.09
47.45
44.00
34.91
22.69
10.46
1.08
-3.59
-3.11
1.68
9.10
17.26
24.79
31.18
36.62
41.55
46.17
50.21
53.07
54.31
53.92
52.77
52.29
53.80
57.70
63.04
67.96
70.57
69.95
66.38
61.66
58.39
58.79
63.57
71.62
80.47
87.11
88.83
83.30
70.24
52.08
33.37
18.95
12.11
13.10
18.67
22.90
18.02
-1.78
-38.32
-89.49
-150.55
-214.92
-274.36
-320.01
-344.88
-347.94
-333.39
-308.81
-281.83
-257.05
-234.08
-207.93
-172.40
-115.59
-39.29
40.29
102.11
134.51
140.12
129.87
114.91
102.66
93.15
82.88
70.26
57.24
47.91
45.45
49.71
57.44
63.83
64.90
58.50
46.18
32.54
22.95
20.87
26.43
37.15
49.30
58.99
62.73
59.05
49.23
37.00
26.80
21.86
22.88
27.84
32.80
33.66
28.20
17.08
3.22
-9.88
-19.67
-25.03
-26.00
-23.27
-17.92
-11.32
-5.03
-0.53
1.24
0.28
-2.44
-5.48
-7.70
-8.77
-9.44
-11.27
-15.95
-24.53
-36.50
-49.33
-58.87
-60.66
-51.80
-32.57
-6.83
19.17
38.96
48.08
45.35
32.75
14.25
-5.55
-22.50
-33.50
-36.77
-32.03
-20.60
-5.19
10.81
24.21
32.89
36.11
34.61
30.19
25.20
21.95
21.99
25.44
30.72
34.98
35.24
29.90
19.69
7.58
-2.41
-7.04
-5.04
2.56
13.17
23.72
31.41
34.13
30.65
21.04
6.99
-8.07
-19.86
-24.84
-21.87
-12.88
-2.08
5.95
8.21
4.20
-4.49
-15.36
-26.16
-35.30
-41.70
-44.51
-43.11
-37.47
-28.53
-18.29
-9.54
-5.32
-8.13
-18.86
-35.79
-54.04
-66.31
-65.27
-46.74
-12.51
29.21
66.18
86.79
84.82
62.04
27.36
-6.91
-29.92
-35.88
-25.20
-3.03
23.43
47.63
65.29
74.76
76.41
71.81
62.96
51.92
40.69
31.08
24.42
21.27
21.38
23.89
27.76
32.22
36.99
42.15
47.83
53.62
58.29
59.82
56.09
46.00
30.54
13.10
-1.36
-8.27
-5.47
5.68
20.83
34.53
42.51
43.23
37.79
28.67
18.23
7.92
-1.46
-9.15
-13.65
-13.04
-6.05
6.70
21.60
32.17
30.21
8.46
-36.19
-100.11
-172.27
-236.51
-275.93
-278.62
-242.23
-175.38
-95.50
-23.56
22.10
31.04
3.17
-51.92
-118.43
-179.34
-221.01
-235.92
-223.14
-186.66
-133.07
-69.61
-3.27
59.02
110.65
146.28
163.22
162.77
150.23
133.87
122.22
121.07
131.66
150.47
170.84
185.29
188.02
176.17
150.03
112.17
66.82
19.52
-22.94
-53.32
-66.44
-62.14
-46.91
-32.14
-29.12
-43.15
-70.25
-98.49
-114.03
-109.07
-86.28
-57.14
-34.94
-26.70
-29.71
-34.35
-30.30
-13.33
11.03
29.33
26.69
-4.80
-60.98
-126.90
-183.54
-214.50
-211.29
-175.80
-118.96
-56.60
-3.56
31.20
45.97
44.84
36.52
31.33
38.50
62.43
96.25
123.76
131.58
121.16
101.76
82.64
68.82
59.98
51.96
41.49
28.30
15.66
7.76
6.29
10.06
16.24
21.80
24.77
24.84
23.48
23.44
26.84
33.16
39.65
42.61
38.83
26.87
8.01
-13.35
-30.68
-37.95
-32.64
-16.57
4.82
24.47
36.04
35.97
24.54
5.63
-15.01
-32.03
-41.83
-43.23
-37.44
-27.39
-16.96
-9.98
-9.34
-15.96
-28.05
-40.91
-48.02
-43.57
-25.48
2.71
32.30
52.48
54.79
36.97
4.03
-33.86
-65.52
-82.95
-83.46
-69.31
-45.79
-18.75
7.27
29.56
46.82
58.36
63.81
63.37
58.22
50.40
42.16
35.82
33.04
34.12
37.58
40.57
40.39
35.88
27.77
18.31
11.10
9.82
16.56
30.63
48.06
63.26
70.44
64.64
43.14
7.84
-34.44
-74.09
-102.33
-115.17
-113.42
-102.14
-84.77
-67.42
-56.52
-55.92
-65.13
-80.45
-97.71
-113.66
-123.24
-122.68
-111.34
-91.40
-66.50
-39.81
-11.72
16.29
46.12
81.55
122.40
162.76
192.00
199.22
178.91
140.48
90.73
38.73
-5.85
-36.36
-50.02
-47.15
-31.75
-9.91
12.50
30.09
41.32
47.18
48.91
47.20
42.48
35.75
28.84
23.83
21.37
22.05
25.57
30.05
32.59
30.71
24.14
15.08
7.35
4.01
7.18
16.96
30.88
44.61
53.04
52.11
39.22
13.71
-23.57
-69.77
-118.45
-159.56
-183.89
-189.19
-180.16
-164.54
-148.45
-135.51
-127.23
-123.43
-122.37
-120.19
-114.47
-99.42
-71.68
-32.07
14.37
60.40
99.77
125.96
137.17
136.71
130.35
122.50
115.42
109.77
105.67
103.07
101.02
97.63
90.18
76.98
58.21
36.59
16.23
0.61
-8.92
-13.44
-15.13
-15.93
-16.58
-16.77
-15.58
-12.35
-7.31
-1.50
3.65
7.13
8.49
7.87
5.87
3.33
1.03
-0.60
-1.47
-1.73
-1.45
-0.74
0.02
0.11
-1.33
-4.73
-9.71
-14.94
-18.52
-18.82
-15.29
-8.98
-2.11
2.88
4.45
2.53
-1.70
-6.54
-10.66
-13.64
-15.95
-18.65
-23.01
-30.15
-40.64
-53.92
-67.75
-78.26
-80.84
-71.97
-51.10
-21.60
9.90
35.69
49.79
50.01
38.25
19.34
-1.06
-18.17
-29.04
-32.39
-28.30
-17.81
-2.76
14.15
29.76
41.12
46.30
45.22
39.65
32.69
27.65
26.76
30.33
36.53
42.07
43.49
38.60
27.54
12.91
-1.05
-10.03
-11.26
-4.48
7.93
21.87
32.71
36.64
31.59
17.90
-1.65
-22.41
-39.08
-47.40
-45.62
-35.27
-20.53
-6.67
1.93
3.21
-2.30
-12.23
-23.65
-34.13
-42.10
-46.77
-47.81
-45.29
-39.77
-32.57
-25.81
-22.18
-24.00
-32.01
-44.24
-55.89
-60.59
-53.01
-31.64
-0.25
32.80
57.70
67.16
59.43
38.91
14.03
-6.34
-16.29
-14.43
-3.47
11.85
26.87
38.56
45.86
49.16
49.43
47.60
44.19
39.51
33.91
27.97
22.49
18.33
16.08
15.91
17.49
20.06
22.62
24.20
23.99
21.47
16.42
8.96
-0.29
-10.24
-19.36
-26.05
-29.29
-29.02
-26.32
-22.83
-20.00
-18.39
-17.68
-17.24
-16.93
-17.39
-19.68
-24.19
-29.86
-34.19
-34.32
-28.55
-17.48
-4.14
6.99
11.56
6.96
-6.58
-25.69
-44.17
-54.57
-50.44
-29.01
6.86
48.33
82.62
97.24
84.90
47.15
-5.37
-56.54
-90.81
-99.16
-82.04
-48.23
-10.30
20.77
39.44
46.09
44.88
40.46
35.63
30.94
25.79
20.00
14.33
10.11
8.21
8.47
10.07
12.01
14.09
17.00
21.71
28.40
35.66
40.52
39.61
30.81
14.68
-5.29
-23.84
-36.07
-39.47
-34.81
-25.46
-15.52
-7.89
-3.32
-0.79
1.07
2.63
2.89
0.34
-5.54
-13.35
-19.85
-21.30
-15.48
-2.99
12.64
26.12
32.06
26.63
8.57
-20.18
-54.29
-85.67
-105.21
-105.59
-84.36
-45.93
-0.87
37.51
58.27
57.20
38.23
11.28
-12.33
-24.56
-23.10
-10.87
6.52
23.71
37.33
46.05
49.72
48.34
41.85
30.85
17.24
4.34
-4.03
-5.23
0.81
11.07
20.41
23.51
17.27
2.30
-16.98
-33.90
-42.09
-38.02
-22.41
-0.02
22.03
36.75
39.59
29.80
10.48
-12.54
-32.63
-44.38
-45.14
-35.59
-19.33
-1.50
12.86
20.34
19.90
12.87
2.11
-9.03
-17.76
-22.42
-22.73
-19.68
-15.27
-12.00
-12.09
-16.53
-24.24
-31.96
-35.07
-29.39
-13.31
10.89
37.23
57.92
66.31
59.44
39.27
11.82
-15.07
-34.51
-42.55
-38.94
-26.45
-9.44
7.70
21.72
30.91
35.00
34.72
31.36
26.51
21.83
18.74
18.08
19.65
22.13
23.44
21.65
16.07
7.89
-0.08
-4.46
-2.78
5.31
17.74
30.64
39.66
41.46
34.72
20.56
2.12
-16.29
-30.32
-36.71
-34.10
-23.43
-7.75
8.54
20.79
25.37
20.70
7.75
-10.17
-28.40
-42.42
-49.22
-48.26
-41.51
-32.72
-26.14
-25.07
-30.54
-40.68
-51.00
-55.81
-50.46
-33.60
-8.34
18.35
38.06
44.26
35.04
13.80
-12.11
-34.33
-46.59
-46.57
-35.99
-19.16
-0.89
15.07
26.70
33.50
36.10
35.54
33.10
30.25
28.67
29.96
35.04
43.64
53.99
63.71
70.14
71.42
67.19
58.70
48.79
40.91
37.71
39.99
46.95
55.91
63.38
66.28
62.66
52.78
38.37
21.72
5.00
-9.04
-18.37
-21.70
-19.05
-12.51
-5.23
-1.66
-5.74
-24.71
-61.15
-114.23
-178.50
-244.14
-299.16
-331.25
-332.17
-301.10
-244.83
-174.34
-102.15
-38.56
13.28
48.84
67.85
76.59
82.04
87.44
92.94
97.55
100.03
99.58
95.80
90.03
83.85
77.99
72.41
67.26
62.65
58.58
54.82
50.75
46.41
41.97
37.36
32.49
27.75
23.57
20.02
16.69
12.69
7.69
1.84
-4.35
-9.98
-13.82
-14.96
-13.30
-9.68
-5.66
-2.63
-1.57
-2.80
-6.02
-10.37
-14.86
-18.76
-21.69
-23.65
-24.72
-25.08
-24.98
-24.77
-24.77
-25.24
-26.30
-27.96
-30.02
-32.16
-34.00
-35.19
-35.44
-34.65
-32.84
-30.14
-26.63
-22.24
-16.80
-10.17
-2.47
5.89
14.21
21.70
27.63
31.52
33.25
32.95
31.09
28.36
25.71
24.20
24.73
27.69
32.82
39.07
44.83
48.31
48.02
43.24
34.46
23.25
11.89
2.75
-2.43
-3.13
-0.26
4.24
8.35
11.05
12.49
13.58
15.31
18.16
21.81
25.29
27.43
27.46
25.54
22.20
17.95
13.26
8.87
5.89
5.52
8.58
15.20
25.10
37.19
49.61
60.18
67.00
68.53
63.53
50.95
28.40
-3.15
-38.73
-71.61
-97.11
-113.94
-122.68
-124.17
-119.13
-108.68
-94.45
-78.77
-64.22
-52.43
-43.77
-37.96
-34.96
-34.77
-36.15
-36.08
-28.91
-10.52
19.26
55.47
89.49
112.57
119.75
112.15
96.08
79.45
67.63
61.61
58.79
55.57
49.62
41.08
31.85
23.77
17.48
12.10
5.84
-2.78
-13.67
-25.10
-34.49
-39.74
-40.41
-37.87
-34.79
-33.86
-36.49
-42.19
-48.84
-53.69
-54.69
-51.47
-45.49
-39.31
-35.33
-34.54
-36.01
-37.37
-36.07
-30.89
-22.89
-14.75
-9.26
-7.83
-9.82
-13.13
-15.57
-15.96
-14.52
-12.29
-9.84
-6.55
-1.31
5.79
12.80
16.61
15.30
9.35
1.23
-6.03
-10.62
-13.30
-17.04
-24.63
-35.90
-46.27
-48.84
-38.72
-15.82
15.04
46.16
70.05
82.18
79.62
63.95
43.21
26.25
16.19
10.76
6.53
2.08
-1.67
-2.89
-0.30
5.58
11.96
15.47
14.43
9.70
3.80
-0.45
-1.48
0.73
4.50
7.13
6.24
1.57
-5.15
-11.54
-15.41
-15.70
-12.22
-5.34
3.44
11.30
14.70
10.77
-1.08
-17.03
-29.86
-32.50
-22.25
-3.03
16.55
27.97
27.78
18.67
7.14
-0.52
-1.72
1.66
5.21
5.44
1.93
-2.86
-5.61
-4.14
1.26
8.22
13.64
15.37
13.25
9.17
5.92
5.78
9.53
16.03
22.85
27.56
28.51
25.79
20.97
16.22
13.13
12.18
12.60
13.03
12.24
9.70
5.68
1.00
-3.53
-7.39
-10.49
-12.97
-15.02
-16.72
-17.94
-18.44
-18.17
-17.47
-17.03
-17.60
-19.50
-22.42
-25.45
-27.53
-27.96
-26.65
-24.04
-20.83
-17.66
-15.02
-13.24
-12.57
-13.03
-14.35
-16.01
-17.38
-17.99
-17.60
-16.09
-13.32
-9.16
-3.58
3.16
10.54
18.04
25.39
32.69
40.11
47.37
53.59
57.43
57.87
54.83
49.43
43.55
39.00
36.69
36.42
37.16
37.71
37.24
35.50
32.66
28.66
23.04
15.03
4.20
-8.88
-22.76
-36.15
-49.55
-65.89
-89.31
-122.39
-163.57
-206.43
-241.79
-261.60
-262.55
-247.08
-221.36
-191.82
-162.74
-136.39
-115.06
-102.51
-103.23
-119.33
-147.51
-178.26
-199.00
-199.50
-176.56
-135.40
-86.85
-42.29
-8.74
13.10
27.60
40.61
56.22
75.16
95.37
113.65
127.42
135.71
139.25
139.86
139.57
139.93
141.54
143.96
146.03
146.49
144.78
141.32
137.40
134.40
133.01
132.87
132.87
131.93
129.81
127.20
125.18
124.33
124.16
123.37
120.58
115.20
107.67
99.26
91.31
84.52
78.71
72.99
66.40
58.43
49.19
39.29
29.50
20.47
12.61
6.13
0.96
-3.37
-7.66
-12.78
-19.03
-25.80
-31.66
-35.03
-35.16
-32.68
-29.28
-26.69
-25.58
-25.09
-23.44
-19.23
-12.46
-4.77
1.63
5.29
6.48
7.03
9.26
14.60
22.82
32.06
39.76
43.75
43.15
38.81
33.03
28.94
29.35
35.49
46.27
58.22
66.68
67.66
59.73
44.86
27.88
14.35
8.05
9.02
13.26
14.01
4.12
-21.43
-63.74
-119.40
-181.07
-239.21
-284.25
-309.02
-310.38
-289.79
-252.71
-206.93
-160.43
-119.30
-86.61
-62.26
-44.07
-29.39
-16.44
-4.60
6.58
18.49
33.67
54.56
81.50
111.01
136.43
150.49
149.05
133.59
110.87
89.69
76.47
72.30
73.14
73.02
67.99
58.54
49.33
46.16
52.58
67.55
85.66
99.68
104.10
97.87
84.55
70.81
63.45
66.67
80.21
99.32
116.12
121.95
110.14
78.29
30.12
-24.37
-70.71
-94.70
-87.52
-49.53
9.18
72.41
122.82
147.69
142.34
111.08
64.12
13.33
-31.61
-66.01
-89.71
-106.77
-122.91
-143.64
-166.97
-185.51
-191.34
-182.76
-165.47
-146.16
-129.29
-115.50
-104.37
-95.37
-88.97
-88.24
-91.57
-94.85
-90.17
-69.71
-29.48
26.14
85.88
135.98
165.37
169.63
145.48
99.05
39.09
-16.35
-52.65
-67.18
-66.84
-59.94
-51.21
-42.46
-33.03
-23.06
-13.58
-7.06
-5.10
-6.90
-9.81
