1660932589.00
64.000000
-0.00
-0.00
-0.00
-0.00
-0.00
-0.00
-0.00
-0.00
-0.00
-0.00
0.00
0.01
0.01
-0.00
-0.03
-0.05
-0.05
0.00
0.13
0.36
0.66
1.01
1.37
1.72
2.06
2.40
2.79
3.25
3.81
4.44
5.10
5.73
6.32
6.90
7.51
8.25
9.15
10.28
11.54
12.79
13.91
14.88
15.77
16.78
18.12
19.96
22.47
25.44
28.57
31.57
34.30
36.90
39.72
43.22
47.71
53.50
60.17
67.17
73.92
80.16
86.10
92.34
99.64
108.48
119.24
131.21
143.48
155.18
165.91
176.03
186.46
198.65
211.19
226.02
243.32
262.90
283.53
302.63
316.39
320.69
312.41
290.48
256.74
214.35
167.12
118.21
69.57
22.14
-23.55
-66.93
-107.45
-144.59
-178.92
-211.75
-244.78
-279.37
-315.63
-351.86
-384.46
-409.05
-421.64
-420.43
-406.42
-383.12
-355.06
-326.15
-298.62
-272.90
-248.52
-224.98
-202.51
-181.84
-163.62
-147.87
-133.87
-120.49
-106.82
-92.57
-78.11
-64.34
-52.17
-42.10
-34.05
-27.39
-21.30
-15.10
-8.58
-2.01
4.03
8.97
12.57
14.98
16.70
18.30
20.16
22.33
24.56
26.48
27.80
28.41
28.43
28.06
27.51
26.90
26.27
25.63
24.99
24.37
23.80
23.27
22.74
22.17
21.53
20.82
20.10
19.43
18.84
18.34
17.89
17.42
16.89
16.26
15.56
14.84
14.17
13.61
13.19
12.95
12.85
12.86
12.89
12.84
12.64
12.26
11.73
11.13
10.56
10.07
9.71
9.46
9.29
9.14
8.95
8.69
8.35
7.93
7.48
7.03
6.61
6.25
5.93
5.67
5.48
5.33
5.23
5.14
5.03
4.84
4.56
4.19
3.76
3.35
2.98
2.66
2.38
2.08
1.70
1.22
0.67
0.09
-0.49
-1.07
-1.65
-2.24
-2.82
-3.36
-3.82
-4.21
-4.55
-4.92
-5.35
-5.85
-6.38
-6.85
-7.22
-7.47
-7.65
-7.83
-8.02
-8.17
-8.22
-8.12
-7.87
-7.51
-7.16
-6.89
-6.73
-6.64
-6.55
-6.35
-6.00
-5.50
-4.88
-4.18
-3.47
-2.80
-2.19
-1.66
-1.21
-0.83
-0.48
-0.15
0.20
0.56
0.91
1.26
1.60
1.97
2.41
2.91
3.46
4.00
4.47
4.84
5.11
5.27
5.35
5.34
5.27
5.17
5.11
5.13
5.26
5.47
5.65
5.72
5.59
5.27
4.80
4.30
3.89
3.67
3.66
3.78
3.93
3.96
3.81
3.46
3.00
2.51
2.11
1.87
1.84
2.03
2.45
3.03
3.67
4.26
4.69
4.87
4.80
4.51
4.10
3.65
3.26
2.98
2.84
2.80
2.78
2.71
2.52
2.21
1.84
1.49
1.23
1.08
1.01
0.95
0.84
0.72
0.68
0.82
1.17
1.68
2.19
2.55
2.65
2.50
2.21
1.90
1.68
1.58
1.59
1.63
1.66
1.66
1.60
1.46
1.24
0.92
0.55
0.15
-0.18
-0.36
-0.32
-0.04
0.41
0.93
1.36
1.59
1.56
1.33
1.00
0.73
0.63
0.75
1.04
1.43
1.83
2.19
2.49
2.71
2.86
2.88
2.75
2.45
2.04
1.61
1.29
1.14
1.17
1.34
1.56
1.76
1.85
1.80
1.59
1.26
0.88
0.55
0.33
0.19
0.04
-0.24
-0.71
-1.32
-1.96
-2.45
-2.69
-2.65
-2.38
-1.97
-1.50
-1.01
-0.49
0.07
0.69
1.34
1.95
2.46
2.82
3.02
3.10
3.12
3.13
3.13
3.05
2.82
2.42
1.90
1.40
1.08
1.02
1.17
1.39
1.51
1.44
1.21
0.94
0.74
0.67
0.68
0.69
0.63
0.51
0.42
0.41
0.50
0.63
0.71
0.67
0.50
0.28
0.09
-0.03
-0.10
-0.18
-0.30
-0.44
-0.51
-0.44
-0.22
0.09
0.37
0.49
0.44
0.25
0.06
-0.06
-0.04
0.08
0.24
0.38
0.46
0.46
0.36
0.17
-0.07
-0.26
-0.32
-0.19
0.10
0.45
0.73
0.87
0.87
0.78
0.66
0.57
0.52
0.47
0.40
0.31
0.21
0.12
0.07
0.08
0.14
0.23
0.32
0.36
0.35
0.30
0.22
0.15
0.10
0.07
0.01
-0.09
-0.23
-0.39
-0.51
-0.53
-0.42
-0.21
0.03
0.19
0.22
0.15
0.07
0.09
0.23
0.43
0.56
0.50
0.28
0.04
-0.05
0.11
0.45
0.79
0.91
0.73
0.30
-0.20
-0.60
-0.81
-0.84
-0.78
-0.72
-0.70
-0.72
-0.73
-0.72
-0.67
-0.61
-0.55
-0.52
-0.50
-0.46
-0.39
-0.22
0.07
0.46
0.90
1.29
1.57
1.71
1.74
1.72
1.71
1.70
1.65
1.47
1.14
0.70
0.22
-0.20
-0.51
-0.70
-0.75
-0.64
-0.35
0.07
0.53
0.88
0.95
0.69
0.15
-0.47
-0.94
-1.08
-0.87
-0.42
0.08
0.44
0.56
0.48
0.29
0.10
-0.01
-0.03
0.01
0.09
0.20
0.38
0.62
0.88
1.05
1.02
0.73
0.24
-0.29
-0.69
-0.82
-0.66
-0.33
0.00
0.21
0.25
0.19
0.13
0.14
0.22
0.28
0.24
0.07
-0.19
-0.46
-0.66
-0.76
-0.76
-0.67
-0.51
-0.28
-0.01
0.22
0.34
0.29
0.08
-0.22
-0.45
-0.51
-0.34
0.01
0.44
0.82
1.09
1.25
1.34
1.39
1.40
1.31
1.09
0.73
0.33
-0.03
-0.29
-0.45
-0.57
-0.72
-0.90
-1.05
-1.03
-0.76
-0.25
0.41
1.02
1.40
1.45
1.15
0.58
-0.11
-0.77
-1.27
-1.51
-1.46
-1.16
-0.74
-0.33
-0.08
-0.08
-0.30
-0.65
-0.99
-1.21
-1.27
-1.21
-1.13
-1.11
-1.17
-1.27
-1.37
-1.45
-1.55
-1.73
-2.00
-2.29
-2.44
-2.28
-1.74
-0.90
0.03
0.76
1.09
0.95
0.42
-0.31
-1.05
-1.63
-1.94
-1.96
-1.72
-1.37
-1.09
-1.01
-1.19
-1.55
-1.95
-2.25
-2.38
-2.31
-2.10
-1.79
-1.45
-1.17
-1.03
-1.05
-1.21
-1.33
-1.22
-0.74
0.07
1.02
1.83
2.26
2.25
1.85
1.17
0.27
-0.85
-2.21
-3.76
-5.35
-6.79
-7.92
-8.72
-9.33
-9.99
-10.86
-11.97
-13.16
-14.20
-14.89
-15.23
-15.37
-15.54
-15.92
-16.57
-17.48
-18.63
-20.08
-21.95
-24.30
-27.02
-29.83
-32.39
-34.52
-36.34
-38.23
-40.66
-43.89
-47.84
-52.14
-56.33
-60.13
-63.59
-67.05
-71.02
-75.96
-82.09
-89.29
-97.06
-104.74
-111.67
-117.60
-122.89
-128.48
-135.39
-144.12
-154.10
-163.55
-169.89
-170.41
-162.91
-146.09
-119.73
-84.82
-43.70
-0.03
41.76
77.49
104.44
122.22
132.71
139.04
144.23
150.06
156.84
164.00
170.92
177.42
183.65
189.74
195.36
199.74
202.16
202.48
201.40
200.21
200.31
202.44
206.36
211.01
215.08
217.74
219.12
220.32
222.87
228.06
236.34
246.96
258.06
266.97
270.82
267.11
254.40
232.59
202.92
167.49
128.47
87.26
44.08
-1.58
-50.02
-100.05
-148.52
-190.81
-222.34
-240.34
-244.99
-239.19
-227.30
-213.33
-199.72
-187.03
-174.77
-162.49
-150.45
-139.48
-130.40
-123.26
-117.27
-111.21
-104.11
-95.78
-86.83
-78.37
-71.32
-66.04
-62.20
-59.01
-55.58
-51.31
-46.09
-40.32
-34.65
-29.76
-26.02
-23.44
-21.66
-20.16
-18.46
-16.35
-13.87
-11.28
-8.88
-6.90
-5.40
-4.29
-3.41
-2.63
-1.84
-1.05
-0.28
0.36
0.79
1.00
1.01
0.91
0.78
0.71
0.71
0.76
0.83
0.85
0.74
0.47
0.01
-0.61
-1.33
-2.07
-2.75
-3.32
-3.72
-3.94
-3.95
-3.73
-3.34
-2.83
-2.28
-1.76
-1.26
-0.73
-0.13
0.55
1.23
1.82
2.26
2.64
3.16
4.02
5.32
6.93
8.57
9.87
10.60
10.68
10.20
9.26
7.90
6.06
3.73
0.99
-1.87
-4.43
-6.30
-7.29
-7.42
-6.94
-6.17
-5.36
-4.69
-4.19
-3.88
-3.74
-3.73
-3.79
-3.83
-3.78
-3.61
-3.34
-3.04
-2.76
-2.51
-2.25
-1.93
-1.54
-1.14
-0.79
-0.59
-0.53
-0.59
-0.70
-0.77
-0.77
-0.71
-0.61
-0.49
-0.38
-0.29
-0.25
-0.26
-0.34
-0.47
-0.58
-0.61
-0.50
-0.25
0.11
0.48
0.78
0.93
0.90
0.76
0.61
0.58
0.78
1.20
1.70
2.07
2.14
1.84
1.23
0.52
-0.12
-0.64
-1.09
-1.62
-2.28
-3.00
-3.57
-3.79
-3.56
-2.94
-2.13
-1.37
-0.83
-0.58
-0.60
-0.76
-0.95
-1.04
-0.96
-0.70
-0.30
0.15
0.54
0.79
0.87
0.81
0.67
0.50
0.33
0.16
-0.02
-0.21
-0.39
-0.49
-0.47
-0.28
0.06
0.49
0.92
1.25
1.42
1.44
1.33
1.16
0.99
0.84
0.69
0.53
0.35
0.17
0.03
-0.03
0.01
0.15
0.36
0.62
0.93
1.26
1.56
1.76
1.74
1.42
0.82
0.05
-0.70
-1.27
-1.61
-1.73
-1.76
-1.79
-1.86
-1.93
-1.97
-1.94
-1.87
-1.83
-1.90
-2.09
-2.37
-2.66
-2.87
-2.92
-2.79
-2.46
-1.97
-1.36
-0.68
-0.03
0.50
0.81
0.89
0.86
0.94
1.39
2.36
3.84
5.58
7.22
8.41
8.90
8.60
7.61
6.11
4.38
2.67
1.22
0.18
-0.43
-0.71
-0.79
-0.82
-0.91
-1.09
-1.39
-1.78
-2.22
-2.68
-3.10
-3.43
-3.62
-3.67
-3.56
-3.36
-3.12
-2.93
-2.84
-2.91
-3.16
-3.57
-4.09
-4.66
-5.22
-5.70
-6.03
-6.13
-5.98
-5.58
-5.05
-4.50
-4.05
-3.74
-3.55
-3.36
-3.07
-2.55
-1.73
-0.61
0.78
2.31
3.86
5.28
6.42
7.23
7.67
7.77
7.59
7.20
6.68
6.13
5.61
5.21
4.94
4.81
4.79
4.87
5.02
5.26
5.60
6.00
6.38
6.60
6.53
6.09
5.31
4.35
3.48
2.97
2.94
3.32
3.82
4.04
3.66
2.52
0.78
-1.19
-2.99
-4.33
-5.11
-5.49
-5.68
-5.86
-6.06
-6.20
-6.22
-6.12
-6.00
-5.97
-6.10
-6.30
-6.42
-6.29
-5.85
-5.19
-4.51
-3.98
-3.68
-3.55
-3.48
-3.31
-2.96
-2.50
-2.05
-1.76
-1.74
-1.94
-2.24
-2.44
-2.43
-2.18
-1.71
-1.12
-0.48
0.14
0.65
0.94
0.93
0.63
0.17
-0.21
-0.30
-0.00
0.63
1.44
2.24
2.92
3.50
4.04
4.61
5.19
5.68
5.95
5.87
5.43
4.72
3.91
3.14
2.50
1.99
1.55
1.17
0.88
0.78
0.93
1.30
1.74
2.04
1.99
1.55
0.84
0.12
-0.32
-0.28
0.23
1.03
1.80
2.22
2.09
1.43
0.45
-0.56
-1.33
-1.75
-1.84
-1.74
-1.59
-1.47
-1.41
-1.39
-1.39
-1.41
-1.47
-1.58
-1.75
-1.93
-2.07
-2.10
-1.99
-1.74
-1.45
-1.25
-1.29
-1.62
-2.17
-2.78
-3.19
-3.25
-2.94
-2.42
-1.95
-1.72
-1.80
-2.05
-2.23
-2.16
-1.83
-1.34
-0.89
-0.59
-0.41
-0.22
0.12
0.64
1.28
1.96
2.69
3.60
4.89
6.64
8.72
10.69
11.96
12.05
10.78
8.37
5.38
2.43
-0.04
-1.89
-3.28
-4.45
-5.58
-6.64
-7.47
-7.89
-7.85
-7.50
-7.03
-6.59
-6.18
-5.64
-4.82
-3.71
-2.43
-1.24
-0.35
0.19
0.54
0.92
1.45
2.13
2.87
3.55
4.17
4.84
5.62
6.47
7.22
7.64
7.60
7.11
6.33
5.43
4.50
3.55
2.54
1.49
0.48
-0.33
-0.87
-1.15
-1.26
-1.34
-1.47
-1.66
-1.83
-1.91
-1.82
-1.57
-1.18
-0.74
-0.36
-0.13
-0.09
-0.21
-0.41
-0.61
-0.75
-0.87
-1.04
-1.32
-1.72
-2.17
-2.56
-2.84
-2.98
-3.05
-3.12
-3.21
-3.29
-3.34
-3.35
-3.41
-3.61
-3.99
-4.49
-4.96
-5.25
-5.28
-5.11
-4.87
-4.67
-4.52
-4.33
-3.97
-3.39
-2.63
-1.80
-0.95
-0.01
1.09
2.39
3.78
5.02
5.88
6.21
6.09
5.70
5.26
4.88
4.54
4.12
3.51
2.75
1.95
1.30
0.93
0.89
1.13
1.55
2.02
2.40
2.57
2.45
2.06
1.47
0.82
0.24
-0.19
-0.51
-0.79
-1.09
-1.40
-1.60
-1.57
-1.24
-0.69
-0.03
0.60
1.12
1.59
2.05
2.51
2.91
3.12
3.02
2.57
1.85
1.03
0.28
-0.27
-0.57
-0.67
-0.65
-0.61
-0.61
-0.73
-0.96
-1.32
-1.77
-2.28
-2.82
-3.35
-3.84
-4.25
-4.57
-4.82
-5.03
-5.28
-5.60
-6.00
-6.42
-6.71
-6.75
-6.41
-5.64
-4.48
-2.99
-1.20
0.91
3.39
6.18
9.08
11.69
13.52
14.15
13.41
11.47
8.76
5.87
3.30
1.35
0.13
-0.47
-0.59
-0.41
-0.03
0.42
0.83
1.08
1.05
0.72
0.16
-0.47
-0.99
-1.31
-1.43
-1.51
-1.68
-2.02
-2.49
-2.93
-3.19
-3.22
-3.06
-2.83
-2.65
-2.56
-2.52
-2.44
-2.28
-2.04
-1.81
-1.69
-1.78
-2.14
-2.72
-3.40
-3.99
-4.27
-4.08
-3.39
-2.30
-1.01
0.24
1.28
2.05
2.57
2.93
3.21
3.45
3.64
3.76
3.84
3.86
3.86
3.85
3.86
3.89
3.96
4.06
4.16
4.19
4.09
3.80
3.34
2.80
2.34
2.18
2.49
3.30
4.44
5.53
6.14
5.97
5.00
3.51
1.94
0.67
-0.16
-0.66
-1.07
-1.56
-2.15
-2.72
-3.10
-3.25
-3.26
-3.31
-3.56
-4.02
-4.57
-5.05
-5.36
-5.45
-5.37
-5.24
-5.12
-5.05
-5.02
-5.00
-4.97
-4.91
-4.82
-4.72
-4.62
-4.52
-4.43
-4.38
-4.40
-4.55
-4.85
-5.28
-5.75
-6.10
-6.12
-5.68
-4.69
-3.21
-1.38
0.63
2.59
4.34
5.77
6.83
7.54
7.94
8.07
7.98
7.76
7.49
7.27
7.15
7.04
6.77
6.17
5.13
3.81
2.48
1.51
1.06
1.08
1.25
1.26
0.95
0.38
-0.21
-0.55
-0.50
-0.03
0.77
1.77
2.81
3.68
4.07
3.76
2.61
0.80
-1.30
-3.18
-4.46
-4.98
-4.85
-4.33
-3.67
-3.04
-2.46
-1.91
-1.34
-0.82
-0.42
-0.24
-0.33
-0.62
-0.99
-1.28
-1.37
-1.26
-1.01
-0.77
-0.64
-0.70
-0.92
-1.31
-1.85
-2.53
-3.31
-4.09
-4.69
-4.98
-4.90
-4.55
-4.14
-3.90
-3.96
-4.28
-4.70
-4.98
-4.88
-4.28
-3.12
-1.47
0.49
2.51
4.35
5.76
6.58
6.80
6.49
5.80
4.94
4.10
3.46
3.12
3.06
3.18
3.30
3.23
2.84
2.16
1.31
0.51
-0.07
-0.33
-0.31
-0.09
0.17
0.38
0.51
0.59
0.75
1.13
1.78
2.62
3.42
3.89
3.83
3.27
2.48
1.81
1.55
1.77
2.31
2.92
3.41
3.71
3.85
3.88
3.76
3.42
2.78
1.84
0.69
-0.52
-1.60
-2.45
-2.98
-3.21
-3.16
-2.93
-2.58
-2.17
-1.74
-1.29
-0.83
-0.35
0.13
0.62
1.10
1.59
2.01
2.27
2.27
1.90
1.16
0.12
-1.04
-2.12
-2.94
-3.38
-3.42
-3.11
-2.63
-2.16
-1.88
-1.89
-2.15
-2.55
-2.96
-3.28
-3.53
-3.79
-4.19
-4.78
-5.56
-6.44
-7.28
-7.99
-8.52
-8.89
-9.11
-9.19
-9.12
-8.90
-8.59
-8.18
-7.59
-6.54
-4.68
-1.74
2.23
6.74
10.96
14.07
15.57
15.44
14.14
12.26
10.27
8.32
6.36
4.34
2.40
0.89
0.19
0.51
1.72
3.42
5.07
6.21
6.61
6.25
5.30
3.95
2.38
0.78
-0.68
-1.80
-2.47
-2.67
-2.49
-2.13
-1.77
-1.50
-1.37
-1.36
-1.45
-1.58
-1.57
-1.15
-0.03
1.94
4.53
7.18
9.12
9.74
8.84
6.72
4.04
1.53
-0.31
-1.37
-1.83
-2.02
-2.26
-2.72
-3.45
-4.34
-5.26
-6.08
-6.73
-7.25
-7.69
-8.15
-8.64
-9.06
-9.32
-9.31
-9.06
-8.70
-8.39
-8.24
-8.22
-8.21
-8.00
-7.44
-6.45
-5.00
-3.05
-0.57
2.48
5.95
9.47
12.46
14.29
14.58
13.33
11.01
8.31
5.86
3.96
2.59
1.55
0.69
0.05
-0.18
0.19
1.13
2.34
3.38
3.87
3.64
2.79
1.62
0.47
-0.47
-1.16
-1.70
-2.19
-2.70
-3.15
-3.43
-3.44
-3.14
-2.61
-1.97
-1.36
-0.88
-0.56
-0.37
-0.26
-0.21
-0.19
-0.21
-0.30
-0.49
-0.77
-1.13
-1.52
-1.88
-2.09
-2.08
-1.80
-1.29
-0.69
-0.16
0.17
0.28
0.29
0.34
0.52
0.79
0.96
0.85
0.39
-0.32
-1.02
-1.42
-1.34
-0.78
0.10
1.06
1.90
2.50
2.91
3.23
3.59
4.07
4.67
5.32
5.85
6.09
5.88
5.16
3.96
2.48
0.98
-0.27
-1.09
-1.47
-1.54
-1.47
-1.42
-1.39
-1.32
-1.16
-0.92
-0.72
-0.71
-0.96
-1.42
-1.92
-2.32
-2.57
-2.73
-2.91
-3.22
-3.67
-4.16
-4.56
-4.73
-4.60
-4.19
-3.60
-2.99
-2.57
-2.48
-2.78
-3.38
-4.06
-4.56
-4.68
-4.32
-3.58
-2.67
-1.84
-1.25
-0.90
-0.62
-0.13
0.76
2.08
3.62
5.08
6.19
6.87
7.26
7.58
8.04
8.65
9.28
9.73
9.85
9.64
9.19
8.64
8.08
7.53
6.98
6.40
5.79
5.13
4.42
3.62
2.72
1.75
0.79
0.00
-0.42
-0.31
0.35
1.39
2.37
2.78
2.25
0.71
-1.50
-3.80
-5.64
-6.71
-7.09
-7.13
-7.19
-7.47
-7.92
-8.32
-8.50
-8.38
-8.07
-7.70
-7.39
-7.15
-6.94
-6.73
-6.48
-6.23
-6.00
-5.85
-5.79
-5.81
-5.88
-5.93
-5.90
-5.73
-5.42
-5.03
-4.65
-4.34
-4.10
-3.89
-3.64
-3.35
-3.07
-2.88
-2.84
-2.93
-3.05
-3.02
-2.67
-1.82
-0.33
1.83
4.49
7.35
9.95
11.88
12.93
13.15
12.81
12.21
11.55
10.85
10.01
8.95
7.70
6.44
5.35
4.55
4.01
3.62
3.22
2.72
2.12
1.53
1.05
0.76
0.65
0.62
0.57
0.42
0.23
0.11
0.25
0.71
1.42
2.12
2.51
2.39
1.76
0.87
0.12
-0.12
0.31
1.31
2.55
3.63
4.27
4.42
4.22
3.88
3.52
3.03
2.22
0.92
-0.84
-2.77
-4.48
-5.64
-6.14
-6.14
-5.90
-5.62
-5.33
-4.96
-4.44
-3.83
-3.30
-3.03
-3.05
-3.24
-3.34
-3.16
-2.64
-1.88
-1.10
-0.53
-0.27
-0.29
-0.46
-0.58
-0.53
-0.26
0.17
0.60
0.90
0.95
0.72
0.23
-0.42
-1.15
-1.87
-2.50
-2.99
-3.31
-3.46
-3.49
-3.45
-3.43
-3.48
-3.61
-3.76
-3.85
-3.80
-3.56
-3.18
-2.76
-2.41
-2.21
-2.15
-2.12
-1.98
-1.59
-0.93
-0.09
0.74
1.41
1.91
2.35
2.91
3.69
4.64
5.52
6.04
6.01
5.47
4.67
3.94
3.50
3.39
3.51
3.63
3.59
3.31
2.80
2.11
1.34
0.57
-0.12
-0.67
-1.07
-1.31
-1.44
-1.50
-1.56
-1.66
-1.82
-1.99
-2.06
-1.91
-1.42
-0.57
0.56
1.76
2.85
3.63
4.04
4.04
3.69
3.09
2.35
1.62
1.03
0.66
0.49
0.42
0.33
0.10
-0.30
-0.88
-1.59
-2.42
-3.34
-4.34
-5.33
-6.20
-6.83
-7.12
-7.09
-6.80
-6.42
-6.10
-5.88
-5.73
-5.55
-5.25
-4.80
-4.27
-3.72
-3.12
-2.35
-1.17
0.54
2.74
5.14
7.31
8.89
9.69
9.80
9.44
8.80
7.98
6.90
5.47
3.71
1.86
0.27
-0.66
-0.71
0.06
1.32
2.61
3.50
3.73
3.26
2.28
1.03
-0.23
-1.38
-2.35
-3.12
-3.70
-4.04
-4.12
-3.96
-3.66
-3.33
-3.06
-2.84
-2.52
-1.92
-0.88
0.62
2.43
4.30
5.91
7.02
7.46
7.21
6.36
5.09
3.61
2.18
0.98
0.12
-0.44
-0.79
-1.08
-1.40
-1.80
-2.26
-2.79
-3.39
-4.07
-4.79
-5.45
-5.90
-5.99
-5.65
-4.97
-4.08
-3.17
-2.35
-1.63
-0.94
-0.22
0.59
1.49
2.47
3.52
4.63
5.78
6.87
7.72
8.12
7.91
7.04
5.64
3.96
2.26
0.72
-0.57
-1.59
-2.38
-2.95
-3.28
-3.33
-3.11
-2.68
-2.13
-1.64
-1.31
-1.21
-1.31
-1.48
-1.60
-1.60
-1.54
-1.58
-1.86
-2.43
-3.15
-3.78
-4.12
-4.09
-3.79
-3.37
-2.96
-2.59
-2.25
-1.92
-1.69
-1.68
-1.99
-2.57
-3.25
-3.79
-3.99
-3.82
-3.33
-2.62
-1.79
-0.87
0.10
1.07
1.93
2.62
3.14
3.59
4.09
4.79
5.68
6.68
7.60
8.23
8.48
8.35
7.98
7.55
7.17
6.85
6.50
6.01
5.33
4.52
3.66
2.86
2.19
1.71
1.52
1.75
2.44
3.51
4.66
5.44
5.44
4.48
2.72
0.57
-1.52
-3.25
-4.56
-5.58
-6.46
-7.23
-7.75
-7.87
-7.53
-6.85
-6.10
-5.56
-5.37
-5.44
-5.56
-5.52
-5.23
-4.79
-4.37
-4.11
-4.01
-3.94
-3.75
-3.35
-2.77
-2.14
-1.57
-1.16
-0.89
-0.74
-0.68
-0.72
-0.87
-1.15
-1.49
-1.79
-1.96
-1.99
-1.91
-1.86
-1.90
-2.01
-2.09
-1.97
-1.52
-0.77
0.18
1.17
2.08
2.88
3.63
4.36
5.09
5.74
6.18
6.30
6.07
5.48
4.63
3.64
2.64
1.78
1.14
0.80
0.74
0.91
1.20
1.50
1.70
1.76
1.74
1.71
1.84
2.21
2.85
3.65
4.41
4.87
4.83
4.22
3.12
1.75
0.35
-0.87
-1.83
-2.52
-3.02
-3.39
-3.63
-3.74
-3.67
-3.44
-3.09
-2.74
-2.47
-2.32
-2.31
-2.37
-2.44
-2.46
-2.41
-2.29
-2.11
-1.90
-1.69
-1.51
-1.40
-1.40
-1.50
-1.70
-1.95
-2.24
-2.53
-2.83
-3.10
-3.34
-3.47
-3.44
-3.15
-2.54
-1.60
-0.42
0.87
2.07
3.03
3.63
3.92
3.98
3.97
4.06
4.32
4.75
5.27
5.69
5.78
5.36
4.29
2.59
0.40
-1.99
-4.21
-5.88
-6.79
-6.90
-6.42
-5.70
-5.13
-4.94
-5.18
-5.64
-6.02
-5.99
-5.28
-3.79
-1.57
1.16
3.97
6.37
7.94
8.47
8.09
7.20
6.26
5.61
5.30
5.17
4.96
4.57
4.07
3.69
3.60
3.83
4.18
4.38
4.19
3.57
2.62
1.56
0.58
-0.26
-0.98
-1.62
-2.20
-2.69
-3.01
-3.10
-2.97
-2.67
-2.34
-2.09
-1.97
-1.94
-1.86
-1.55
-0.87
0.19
1.51
2.79
3.75
4.16
3.97
3.32
2.46
1.60
0.91
0.40
0.02
-0.30
-0.60
-0.90
-1.22
-1.59
-2.08
-2.72
-3.50
-4.37
-5.22
-5.98
-6.62
-7.14
-7.60
-8.03
-8.40
-8.66
-8.74
-8.58
-8.21
-7.67
-7.07
-6.51
-5.98
-5.38
-4.48
-3.00
-0.75
2.22
5.57
8.81
11.38
12.94
13.40
12.92
11.77
10.20
8.34
6.30
4.21
2.33
1.00
0.49
0.85
1.92
3.31
4.56
5.29
5.32
4.68
3.57
2.24
0.93
-0.22
-1.12
-1.76
-2.14
-2.25
-2.11
-1.78
-1.40
-1.13
-1.11
-1.37
-1.77
-2.01
-1.76
-0.79
0.92
3.10
5.27
6.88
7.49
6.97
5.49
3.45
1.37
-0.34
-1.50
-2.12
-2.38
-2.51
-2.70
-3.04
-3.54
-4.16
-4.82
-5.50
-6.17
-6.84
-7.51
-8.13
-8.60
-8.83
-8.79
-8.51
-8.14
-7.81
-7.61
-7.51
-7.40
-7.11
-6.47
-5.37
-3.69
-1.38
1.54
4.85
8.20
11.09
13.04
13.74
13.19
11.67
9.60
7.43
5.46
3.82
2.51
1.49
0.76
0.34
0.25
0.49
1.01
1.66
2.25
2.60
2.55
2.05
1.15
-0.01
-1.26
-2.45
-3.48
-4.34
-4.99
-5.42
-5.55
-5.33
-4.75
-3.91
-3.02
-2.31
-1.97
-2.00
-2.23
-2.32
-1.89
-0.72
1.15
3.38
5.45
6.82
7.16
6.44
4.94
3.08
1.32
-0.03
-0.84
-1.16
-1.12
-0.86
-0.53
-0.23
-0.03
0.02
-0.08
-0.32
-0.64
-0.98
-1.32
-1.62
-1.86
-1.98
-1.86
-1.42
-0.65
0.33
1.25
1.85
1.98
1.68
1.22
0.91
0.99
1.49
2.25
3.00
3.47
3.51
3.09
2.27
1.19
0.04
-0.99
-1.70
-1.97
-1.83
-1.41
-0.90
-0.45
-0.15
0.03
0.12
0.11
-0.04
-0.38
-0.89
-1.47
-1.98
-2.32
-2.45
-2.44
-2.36
-2.29
-2.22
-2.13
-2.01
-1.85
-1.69
-1.57
-1.51
-1.49
-1.50
-1.52
-1.57
-1.69
-1.89
-2.12
-2.29
-2.27
-1.95
-1.33
-0.47
0.52
1.52
2.45
3.24
3.84
4.22
4.39
4.41
4.41
4.51
4.80
5.29
5.89
6.52
7.08
7.50
7.75
7.78
7.56
7.11
6.51
5.85
5.19
4.52
3.74
2.72
1.42
-0.08
-1.57
-2.83
-3.65
-3.94
-3.72
-3.08
-2.14
-1.11
-0.21
0.26
0.09
-0.77
-2.13
-3.63
-4.86
-5.54
-5.65
-5.38
-4.99
-4.65
-4.38
-4.10
-3.73
-3.29
-2.92
-2.80
-3.06
-3.66
-4.45
-5.21
-5.74
-5.94
-5.84
-5.53
-5.18
-4.90
-4.73
-4.65
-4.60
-4.55
-4.49
-4.50
-4.59
-4.75
-4.86
-4.78
-4.45
-3.90
-3.30
-2.81
-2.51
-2.30
-1.95
-1.16
0.23
2.16
4.36
6.43
8.04
9.03
9.46
9.54
9.47
9.36
9.19
8.84
8.26
7.47
6.62
5.90
5.38
5.07
4.85
4.58
4.18
3.63
3.00
2.35
1.78
1.35
1.12
1.05
1.03
0.91
0.58
0.04
-0.63
-1.27
-1.74
-2.04
-2.26
-2.56
-3.02
-3.61
-4.17
-4.50
-4.42
-3.88
-2.95
-1.80
-0.64
0.35
1.04
1.39
1.46
1.36
1.19
1.03
0.88
0.69
0.38
-0.05
-0.56
-1.01
-1.28
-1.30
-1.12
-0.89
-0.72
-0.67
-0.66
-0.50
-0.05
0.72
1.74
2.87
4.01
5.08
6.04
6.76
6.99
6.49
5.13
3.09
0.79
-1.18
-2.37
-2.62
-2.12
-1.29
-0.55
-0.15
-0.14
-0.44
-0.93
-1.59
-2.41
-3.38
-4.39
-5.27
-5.82
-5.94
-5.67
-5.16
-4.62
-4.24
-4.12
-4.28
-4.59
-4.88
-4.97
-4.71
-4.03
-3.00
-1.76
-0.49
0.68
1.63
2.30
2.69
2.82
2.77
2.66
2.58
2.58
2.62
2.64
2.56
2.34
2.01
1.60
1.11
0.54
-0.09
-0.67
-1.01
-0.92
-0.30
0.72
1.83
2.64
2.89
2.53
1.80
1.05
0.60
0.56
0.78
1.01
1.03
0.74
0.22
-0.37
-0.80
-0.89
-0.51
0.41
1.81
3.46
4.98
5.92
5.93
4.89
3.03
0.81
-1.21
-2.60
-3.20
-3.15
-2.75
-2.37
-2.29
-2.63
-3.34
-4.21
-5.02
-5.58
-5.82
-5.82
-5.74
-5.72
-5.82
-6.02
-6.21
-6.32
-6.33
-6.29
-6.23
-6.11
-5.78
-5.12
-4.10
-2.82
-1.48
-0.13
1.40
3.46
6.31
9.92
13.71
16.78
18.21
17.54
14.93
11.15
7.14
3.68
1.08
-0.73
-1.98
-2.83
-3.25
-3.13
-2.46
-1.41
-0.32
0.42
0.57
0.13
-0.70
-1.65
-2.51
-3.19
-3.74
-4.21
-4.61
-4.88
-4.92
-4.67
-4.17
-3.55
-3.02
-2.78
-2.95
-3.48
-4.10
-4.42
-3.95
-2.38
0.36
3.87
7.47
10.28
11.65
11.32
9.58
7.09
4.63
2.80
1.84
1.67
1.98
2.41
2.65
2.53
1.99
1.04
-0.24
-1.72
-3.27
-4.77
-6.09
-7.11
-7.66
-7.63
-6.98
-5.83
-4.41
-3.02
-1.87
-1.06
-0.52
-0.14
0.21
0.62
1.17
1.97
3.14
4.68
6.43
8.00
8.91
8.81
7.62
5.62
3.30
1.19
-0.39
-1.35
-1.83
-2.03
-2.09
-2.06
-1.91
-1.63
-1.27
-0.97
-0.86
-1.02
-1.42
-1.90
-2.26
-2.34
-2.15
-1.80
-1.52
-1.53
-1.89
-2.55
-3.30
-3.94
-4.33
-4.48
-4.46
-4.39
-4.31
-4.22
-4.06
-3.78
-3.37
-2.87
-2.38
-1.99
-1.73
-1.60
-1.48
-1.22
-0.71
0.10
1.15
2.31
3.47
4.60
5.74
6.93
8.10
9.04
9.47
9.17
8.11
6.53
4.81
3.32
2.22
1.47
0.86
0.20
-0.59
-1.42
-2.14
-2.62
-2.87
-3.00
-3.18
-3.51
-3.99
-4.49
-4.87
-5.03
-5.00
-4.94
-4.99
-5.24
-5.69
-6.21
-6.68
-7.05
-7.33
-7.57
-7.82
-8.05
-8.21
-8.20
-7.98
-7.56
-6.94
-6.17
-5.28
-4.28
-3.23
-2.19
-1.24
-0.44
0.20
0.78
1.45
2.39
3.74
5.47
7.47
9.52
11.47
13.14
14.35
14.82
14.21
12.34
9.35
5.86
2.75
0.84
0.45
1.27
2.48
3.23
3.02
1.92
0.47
-0.68
-1.11
-0.76
0.11
1.07
1.72
1.75
1.08
-0.09
-1.38
-2.31
-2.50
-1.95
-1.07
-0.53
-0.95
-2.59
-5.19
-8.08
-10.37
-11.12
-9.44
-4.70
3.06
12.76
22.29
29.11
31.29
28.50
22.19
14.87
8.78
4.89
2.67
0.90
-1.33
-4.01
-6.32
-7.44
-7.25
-6.46
-6.18
-7.26
-9.83
-13.20
-16.12
-17.10
-15.07
-9.83
-2.30
5.61
11.72
14.50
13.68
10.35
6.15
2.49
-0.10
-1.87
-3.38
-4.82
-5.84
-5.91
-4.72
-2.61
-0.45
0.81
0.56
-1.30
-4.23
-7.24
-9.08
-8.66
-5.48
0.09
6.71
12.55
16.01
16.38
14.12
10.51
6.97
4.32
2.51
0.87
-1.28
-4.12
-7.20
-9.72
-11.09
-11.25
-10.67
-10.09
-10.05
-10.70
-11.70
-12.55
-12.88
-12.61
-11.97
-11.33
-10.97
-11.03
-11.46
-12.15
-12.98
-13.88
-14.79
-15.73
-16.86
-18.43
-20.67
-23.69
-27.25
-30.89
-34.10
-36.58
-38.47
-40.28
-42.65
-46.01
-50.38
-55.43
-60.69
-65.85
-70.89
-76.12
-81.89
-88.33
-95.28
-102.28
-108.97
-115.38
-122.03
-129.51
-137.76
-145.69
-151.56
-153.99
-152.98
-150.14
-147.58
-146.38
-145.22
-140.58
-128.23
-105.21
-71.12
-27.84
21.67
74.59
128.51
180.84
228.17
266.54
292.72
305.73
307.48
301.95
293.55
285.34
278.41
272.39
266.61
261.11
256.79
254.88
256.34
261.41
269.52
279.36
288.91
295.44
295.93
287.70
269.24
240.74
203.99
161.51
115.39
66.65
15.47
-37.65
-90.77
-140.11
-180.93
-209.25
-223.47
-225.08
-217.88
-206.31
-193.81
-181.99
-170.81
-159.66
-148.35
-137.42
-127.83
-120.23
-114.41
-109.37
-103.85
-97.00
-88.79
-79.98
-71.69
-64.84
-59.74
-56.03
-52.94
-49.72
-45.91
-41.50
-36.89
-32.58
-28.96
-26.13
-23.83
-21.57
-18.76
-15.01
-10.23
-4.76
0.78
5.67
9.36
11.61
12.55
12.58
12.16
11.65
11.18
10.67
9.94
8.82
7.25
5.34
3.28
1.30
-0.47
-1.96
-3.21
-4.27
-5.14
-5.78
-6.11
-6.09
-5.73
-5.11
-4.41
-3.80
-3.40
-3.21
-3.17
-3.14
-3.01
-2.73
-2.32
-1.84
-1.39
-1.04
-0.84
-0.81
-0.92
-1.14
-1.40
-1.65
-1.82
-1.87
-1.79
-1.57
-1.21
-0.78
-0.34
-0.02
0.08
-0.06
-0.38
-0.73
-0.95
-0.95
-0.76
-0.47
-0.23
-0.12
-0.11
-0.12
-0.09
-0.00
0.09
0.12
0.06
-0.05
-0.12
-0.05
0.19
0.57
1.08
1.70
2.43
3.26
4.12
4.86
5.30
5.25
4.63
3.50
2.03
0.47
-0.94
-2.03
-2.75
-3.16
-3.34
-3.37
-3.34
-3.30
-3.27
-3.21
-3.08
-2.89
-2.67
-2.48
-2.43
-2.55
-2.81
-3.10
-3.27
-3.24
-2.97
-2.52
-1.99
-1.49
-1.09
-0.83
-0.71
-0.75
-0.88
-0.92
-0.56
0.57
2.65
5.57
8.79
11.46
12.81
12.45
10.63
8.07
5.67
4.02
3.19
2.81
2.33
1.39
-0.02
-1.60
-2.97
-3.94
-4.49
-4.81
-5.07
-5.32
-5.47
-5.36
-4.88
-4.09
-3.20
-2.46
-2.11
-2.23
-2.73
-3.38
-3.88
-4.03
-3.74
-3.12
-2.38
-1.69
-1.09
-0.46
0.41
1.62
3.10
4.56
5.66
6.17
6.06
5.52
4.82
4.14
3.52
2.88
2.14
1.34
0.59
0.01
-0.33
-0.51
-0.67
-0.96
-1.46
-2.11
-2.77
-3.25
-3.42
-3.25
-2.86
-2.44
-2.15
-2.07
-2.11
-2.05
-1.56
-0.37
1.68
4.54
7.90
11.21
13.78
14.97
14.33
11.86
7.95
3.39
-0.96
-4.38
-6.50
-7.32
-7.15
-6.38
-5.38
-4.39
-3.48
-2.68
-2.01
-1.59
-1.49
-1.75
-2.27
-2.87
-3.32
-3.46
-3.31
-2.99
-2.71
-2.61
-2.74
-2.99
-3.21
-3.26
-3.09
-2.75
-2.30
-1.85
-1.47
-1.16
-0.93
-0.68
-0.31
0.33
1.30
2.57
4.00
5.35
6.39
6.92
6.86
6.21
5.05
3.52
1.81
0.10
-1.38
-2.51
-3.22
-3.57
-3.67
-3.67
-3.67
-3.74
-3.90
-4.13
-4.32
-4.37
-4.12
-3.49
-2.51
-1.35
-0.22
0.69
1.35
1.89
2.50
3.30
4.18
4.92
5.25
5.05
4.43
3.67
3.00
2.50
2.01
1.33
0.34
-0.82
-1.82
-2.35
-2.27
-1.70
-0.96
-0.40
-0.18
-0.29
-0.55
-0.76
-0.85
-0.84
-0.81
-0.84
-0.92
-0.96
-0.92
-0.80
-0.68
-0.64
-0.73
-0.86
-0.88
-0.67
-0.18
0.45
1.02
1.33
1.33
1.12
0.94
0.98
1.26
1.67
2.03
2.21
2.24
2.23
2.30
2.50
2.73
2.85
2.73
2.35
1.79
1.15
0.49
-0.18
-0.90
-1.67
-2.45
-3.11
-3.53
-3.65
-3.52
-3.24
-2.97
-2.80
-2.74
-2.73
-2.59
-2.19
-1.43
-0.43
0.59
1.31
1.53
1.28
0.85
0.65
0.99
1.91
3.10
4.05
4.34
3.82
2.69
1.38
0.28
-0.39
-0.64
-0.63
-0.52
-0.39
-0.23
0.01
0.33
0.68
0.95
1.02
0.85
0.44
-0.08
