1660751553.00
64.000000
-0.00
-0.00
-0.00
-0.00
-0.00
-0.00
-0.00
-0.00
-0.00
-0.00
0.00
0.01
0.01
-0.00
-0.03
-0.05
-0.05
0.00
0.13
0.36
0.66
1.01
1.37
1.72
2.06
2.40
2.79
3.24
3.80
4.42
5.06
5.66
6.20
6.68
7.15
7.68
8.31
9.14
10.09
11.04
11.88
12.56
13.14
13.76
14.65
15.96
17.91
20.32
22.90
25.38
27.58
29.57
31.68
34.32
37.81
42.54
48.15
54.10
59.83
64.97
69.58
74.14
79.34
85.71
93.76
103.00
112.62
121.73
129.77
136.75
143.30
150.75
157.77
166.64
177.95
191.79
206.97
220.57
228.25
225.36
208.53
176.87
132.76
80.05
23.07
-34.94
-92.44
-149.16
-205.23
-260.37
-313.74
-363.87
-409.83
-450.91
-486.50
-515.74
-537.23
-549.22
-549.96
-538.37
-514.21
-478.67
-433.88
-382.45
-327.02
-269.84
-212.63
-156.66
-102.95
-52.37
-5.90
35.58
71.43
101.35
125.50
144.38
158.69
169.15
176.37
180.75
182.57
182.07
179.51
175.23
169.65
163.18
156.15
148.81
141.30
133.69
126.02
118.33
110.69
103.16
95.80
88.68
81.83
75.25
68.95
62.95
57.25
51.86
46.78
42.03
37.59
33.45
29.61
26.07
22.81
19.83
17.11
14.67
12.48
10.54
8.83
7.35
6.07
4.97
4.05
3.27
2.62
2.09
1.65
1.30
1.01
0.79
0.61
0.48
0.38
0.30
0.25
0.22
0.20
0.20
0.21
0.23
0.25
0.28
0.32
0.36
0.40
0.45
0.49
0.54
0.60
0.65
0.71
0.78
0.86
0.95
1.04
1.16
1.28
1.43
1.59
1.77
1.97
2.19
2.43
2.69
2.97
3.27
3.61
3.96
4.34
4.76
5.22
5.74
6.29
6.85
7.40
7.91
8.39
8.87
9.42
10.08
10.90
11.88
12.96
14.07
15.18
16.27
17.39
18.63
20.00
21.56
23.26
24.92
26.38
27.39
27.86
27.73
27.06
25.86
24.28
22.29
19.67
16.17
11.64
6.18
0.22
-5.59
-10.66
-14.39
-16.77
-18.30
-19.84
-22.19
-25.77
-30.44
-35.57
-40.56
-44.79
-48.43
-52.42
-58.04
-66.31
-77.49
-90.77
-103.54
-114.67
-122.77
-127.45
-129.42
-130.03
-130.85
-133.20
-137.91
-144.58
-152.14
-155.38
-148.47
-126.75
-88.97
-38.72
16.25
66.68
105.52
130.39
143.41
150.40
156.41
163.02
168.34
169.08
163.48
152.64
140.21
130.78
126.93
128.34
132.45
136.00
136.61
132.89
124.27
108.40
83.65
50.22
11.57
-25.36
-52.44
-63.95
-59.29
-43.21
-22.98
-4.41
10.42
22.77
34.75
46.40
54.25
53.87
41.58
18.47
-9.22
-32.39
-42.60
-35.69
-13.50
16.60
44.34
59.28
55.65
34.26
1.72
-32.68
-61.13
-79.20
-86.63
-86.22
-81.63
-75.07
-66.75
-55.90
-42.36
-27.53
-14.23
-5.20
-1.48
-1.93
-3.64
-3.48
0.59
8.47
18.30
27.16
32.87
35.19
35.20
34.65
35.42
38.62
44.13
50.90
56.76
60.33
62.15
63.02
63.43
64.03
65.02
65.84
65.41
60.85
52.69
42.67
31.74
19.61
6.39
-7.77
-22.83
-38.55
-55.94
-74.54
-91.59
-105.35
-116.03
-123.54
-128.22
-130.97
-120.72
-92.82
-67.44
-54.63
-51.75
-59.32
-77.33
-105.44
-143.01
-189.16
-244.85
-294.98
-325.59
-330.83
-312.80
-274.70
-218.97
-149.39
-72.91
-0.48
58.13
97.87
118.69
124.39
121.54
115.78
109.77
103.90
97.13
89.69
82.80
77.34
73.00
69.28
65.39
60.23
53.44
45.22
36.79
29.43
23.83
19.88
17.22
15.37
13.80
12.40
11.48
11.88
13.99
18.11
23.81
30.25
36.40
41.11
43.53
43.31
40.52
35.35
28.05
18.92
7.86
-4.38
-17.08
-29.57
-41.23
-51.55
-60.23
-67.16
-72.29
-75.81
-77.91
-78.91
-79.27
-79.44
-79.85
-80.89
-82.73
-84.95
-87.03
-88.37
-88.41
-86.89
-83.88
-79.79
-75.25
-70.82
-66.32
-61.58
-56.49
-50.82
-44.84
-39.23
-34.91
-32.88
-33.30
-34.79
-35.64
-34.05
-27.90
-15.97
2.04
25.97
55.62
87.26
120.05
153.90
189.15
227.14
268.33
311.88
355.33
393.87
422.92
438.98
439.66
424.97
398.96
366.88
333.42
301.13
268.97
235.52
199.89
161.69
112.52
51.31
-17.58
-86.33
-140.92
-180.59
-208.45
-227.62
-241.74
-252.05
-257.36
-256.78
-250.19
-238.37
-223.56
-206.64
-188.09
-169.02
-151.13
-135.46
-123.12
-114.55
-109.11
-105.91
-102.54
-96.76
-87.55
-75.04
-59.44
-41.46
-22.01
-2.23
16.03
31.57
43.59
51.73
56.43
59.26
62.37
68.31
79.58
97.84
123.73
155.90
190.55
222.07
244.50
253.02
245.13
220.92
182.62
134.15
80.87
29.27
-13.66
-41.83
-52.26
-46.62
-31.05
-13.88
-2.22
0.82
-3.28
-10.31
-16.22
-19.33
-20.40
-20.97
-21.53
-20.64
-15.75
-5.11
10.71
28.50
43.21
50.09
46.53
32.57
10.66
-15.52
-42.31
-67.14
-88.59
-106.54
-120.89
-130.86
-135.29
-133.32
-125.40
-113.91
-102.66
-95.24
-93.88
-98.03
-102.63
-101.90
-92.07
-73.71
-51.40
-32.40
-19.54
-12.76
-10.47
-11.02
-13.74
-19.25
-28.67
-42.54
-60.07
-78.78
-95.67
-107.58
-111.75
-106.79
-93.07
-72.66
-48.82
-25.04
-4.07
12.02
22.04
25.45
21.85
11.06
-6.54
-29.48
-55.19
-80.38
-102.22
-118.79
-129.21
-133.40
-131.59
-124.01
-111.11
-93.87
-74.04
-54.09
-36.57
-23.35
-15.16
-11.49
-10.78
-10.90
-9.63
-5.26
2.94
14.61
28.47
42.91
56.62
69.11
80.69
91.89
102.89
113.19
121.80
127.90
131.40
133.30
135.42
139.58
146.65
156.16
166.58
176.05
183.17
187.53
190.18
193.45
200.17
212.52
230.99
253.92
277.73
297.71
309.22
309.59
298.98
280.08
256.47
230.95
204.55
176.46
144.32
104.81
55.32
-4.66
-72.76
-143.81
-210.55
-265.32
-300.81
-311.14
-296.91
-266.27
-230.95
-200.33
-178.18
-163.68
-154.29
-147.95
-143.79
-142.37
-142.92
-143.18
-140.48
-133.20
-121.62
-107.67
-93.93
-82.56
-74.72
-69.98
-66.33
-61.64
-54.68
-45.64
-35.93
-27.39
-21.51
-18.98
-19.22
-20.70
-21.63
-20.70
-17.50
-12.46
-6.40
-0.18
5.53
10.51
14.91
18.97
22.85
26.45
29.42
31.35
31.93
31.00
28.73
25.43
21.52
17.38
13.28
9.33
5.60
2.08
-1.24
-4.36
-7.22
-9.66
-11.37
-12.01
-11.32
-9.24
-5.99
-1.96
2.48
7.07
11.75
16.66
21.94
27.69
33.94
40.60
47.50
54.23
60.07
63.92
64.45
60.48
51.46
37.93
21.63
5.20
-8.55
-17.62
-21.38
-20.75
-17.71
-14.44
-12.62
-13.03
-15.59
-19.70
-24.58
-29.50
-33.82
-37.02
-38.73
-38.83
-37.51
-35.17
-32.32
-29.37
-26.60
-24.15
-22.07
-20.32
-18.83
-17.47
-16.08
-14.53
-12.78
-10.88
-8.92
-7.01
-5.15
-3.31
-1.44
0.47
2.33
3.94
5.09
5.62
5.48
4.70
3.44
1.79
-0.15
-2.37
-4.82
-7.37
-9.71
-11.42
-12.08
-11.39
-9.32
-6.08
-2.08
2.25
6.58
10.68
14.49
17.97
21.10
23.83
26.06
27.74
28.84
29.42
29.61
29.63
29.67
29.94
30.54
31.46
32.56
33.64
34.55
35.24
35.78
36.38
37.15
38.15
39.27
40.29
41.01
41.34
41.34
41.18
41.08
41.19
41.60
42.35
43.47
45.01
47.00
49.51
52.63
56.65
62.20
70.23
81.63
96.59
114.01
131.37
145.31
152.68
151.47
141.30
123.14
98.77
70.19
39.51
9.03
-18.76
-41.44
-57.30
-65.80
-67.63
-64.41
-58.02
-50.23
-42.52
-36.15
-32.20
-31.53
-34.36
-40.21
-47.95
-56.24
-64.01
-70.70
-76.31
-81.31
-86.57
-92.78
-100.28
-108.97
-118.35
-127.75
-136.46
-143.94
-149.86
-154.33
-157.32
-158.54
-157.49
-153.63
-146.66
-136.66
-124.13
-109.82
-94.86
-79.84
-64.66
-48.59
-30.61
-9.87
13.96
40.58
71.06
104.01
136.14
163.09
181.27
189.42
188.98
183.15
175.63
169.51
165.69
164.18
164.44
165.75
167.32
168.42
168.45
166.90
163.81
158.87
151.84
142.45
130.63
116.61
100.98
84.47
67.76
51.10
33.99
15.79
-4.06
-25.57
-48.09
-70.53
-91.79
-111.07
-128.03
-142.72
-155.12
-165.04
-172.02
-175.56
-175.44
-171.92
-165.76
-157.96
-149.62
-141.60
-134.75
-129.54
-125.95
-123.49
-121.37
-118.80
-115.23
-110.49
-104.78
-99.17
-94.62
-91.61
-89.97
-89.13
-88.46
-87.49
-86.05
-84.17
-83.03
-83.58
-86.04
-89.71
-93.50
-96.53
-98.65
-100.42
-102.70
-107.38
-115.32
-125.66
-136.19
-144.61
-149.76
-152.14
-153.34
-145.94
-125.70
-91.95
-47.97
0.60
48.39
91.72
128.66
158.25
179.29
191.02
192.56
183.86
166.52
143.80
119.63
97.56
79.90
67.88
60.68
56.70
54.69
54.04
54.61
56.22
58.42
60.64
62.51
63.38
62.82
60.96
58.35
55.58
52.96
50.41
47.61
44.50
41.05
37.51
34.38
32.07
30.66
29.76
28.71
26.86
24.27
21.38
18.85
17.26
16.78
17.19
17.98
18.64
18.70
18.55
19.02
21.10
25.46
31.95
39.62
46.99
52.69
55.89
57.80
60.95
68.40
82.43
103.68
131.37
164.08
200.45
233.97
257.87
265.78
254.03
223.32
178.44
126.48
74.75
28.91
-8.76
-37.19
-58.27
-73.86
-85.42
-94.60
-103.69
-115.59
-133.26
-159.75
-195.42
-235.11
-271.65
-297.67
-307.97
-301.07
-279.47
-243.27
-197.83
-150.54
-108.35
-75.35
-51.98
-36.29
-25.70
-18.10
-12.08
-7.43
-3.72
-0.58
1.63
2.20
0.34
-3.75
-8.94
-13.26
-14.97
-12.89
-7.02
0.94
9.20
16.69
23.83
32.08
43.18
58.10
76.56
96.15
113.51
126.52
134.98
140.71
146.25
150.84
153.15
151.37
148.50
144.97
141.40
136.85
131.92
127.78
125.85
127.98
135.37
147.92
163.00
176.73
184.84
183.68
171.69
149.90
121.43
89.52
56.41
22.87
-9.88
-39.39
-63.23
-78.76
-84.15
-79.35
-66.96
-51.70
-39.14
-33.33
-35.74
-47.33
-66.86
-91.12
-116.16
-139.15
-159.49
-178.85
-199.86
-225.15
-259.80
-306.78
-364.98
-428.70
-489.21
-537.52
-567.10
-575.41
-547.95
-482.69
-389.58
-286.46
-189.97
-109.15
-45.58
3.12
38.58
66.28
87.82
104.27
117.17
128.62
140.45
153.49
165.39
173.36
175.00
166.70
148.17
123.78
101.28
88.24
88.17
98.89
114.02
126.35
129.44
121.76
106.64
89.84
76.26
67.82
63.41
60.71
57.92
53.70
48.12
42.14
36.70
31.95
27.17
21.33
13.97
5.55
-3.02
-10.56
-16.11
-19.41
-21.01
-22.00
-23.47
-25.87
-28.89
-31.75
-33.58
-33.83
-32.52
-30.10
-27.26
-24.57
-22.31
-20.44
-18.73
-16.93
-14.86
-12.54
-10.12
-7.85
-6.01
-4.79
-4.30
-4.53
-5.42
-6.87
-8.73
-10.72
-12.37
-13.07
-12.17
-9.19
-4.03
2.98
11.08
19.35
26.90
33.10
37.72
40.82
42.66
43.54
43.70
43.34
42.67
41.95
41.42
41.27
41.51
41.94
42.31
42.32
41.80
40.75
39.27
37.51
35.59
33.58
31.48
29.26
26.82
24.04
20.82
17.17
13.18
9.06
5.06
1.39
-1.83
-4.65
-7.17
-9.59
-12.14
-14.97
-18.12
-21.39
-24.33
-26.31
-26.66
-24.91
-21.00
-15.28
-8.45
-1.36
5.25
10.85
15.20
18.25
20.06
20.76
20.48
19.40
17.77
15.85
13.91
12.15
10.68
9.49
8.49
7.60
6.74
5.92
5.18
4.58
4.11
3.70
3.19
2.44
1.33
-0.11
-1.72
-3.29
-4.64
-5.62
-6.29
-6.87
-7.65
-9.01
-11.06
-13.67
-16.46
-18.90
-20.23
-19.80
-17.17
-12.36
-5.91
1.45
8.96
16.06
22.44
28.30
33.88
39.27
44.35
48.65
52.01
54.61
56.80
59.03
62.25
67.03
73.42
80.95
88.18
94.46
99.75
104.29
108.55
114.15
122.17
132.80
145.24
156.62
165.55
171.76
175.57
177.95
181.89
189.63
201.92
217.75
232.45
243.47
249.79
251.37
249.35
247.82
250.23
258.60
272.76
287.76
300.95
311.20
318.07
303.91
258.18
178.58
73.04
-25.55
-106.99
-170.06
-216.60
-253.74
-283.83
-305.01
-315.64
-315.53
-306.57
-295.07
-284.39
-275.72
-269.17
-263.73
-256.67
-246.17
-231.65
-213.95
-197.03
-182.56
-170.74
-161.35
-153.66
-146.22
-138.17
-129.20
-119.63
-111.55
-105.58
-101.58
-99.40
-98.84
-99.55
-101.48
-104.57
-108.50
-113.14
-117.08
-118.56
-116.49
-111.09
-104.01
-98.10
-96.38
-101.06
-113.06
-131.14
-152.08
-171.14
-182.90
-182.48
-167.09
-137.25
-97.02
-52.98
-12.13
20.42
42.86
56.56
64.91
71.32
77.84
84.94
91.96
98.04
102.61
105.38
106.06
104.64
101.00
95.17
87.58
79.19
71.32
65.26
61.64
60.14
60.34
61.30
62.03
61.80
60.43
58.33
56.27
55.02
54.99
57.37
62.89
71.72
83.31
96.65
110.57
124.20
137.07
149.14
162.39
178.87
200.03
225.97
255.27
285.59
314.60
340.67
352.30
341.50
304.68
244.61
169.52
89.45
12.73
-55.37
-112.27
-157.20
-188.88
-207.22
-213.48
-210.36
-201.39
-189.99
-178.60
-168.54
-160.35
-152.88
-145.01
-136.07
-126.06
-115.53
-105.31
-96.05
-88.21
-82.12
-77.20
-72.80
-68.35
-63.49
-58.14
-52.40
-46.39
-40.32
-34.48
-28.95
-23.98
-19.98
-17.48
-16.86
-18.16
-20.85
-23.99
-26.55
-27.68
-27.19
-25.47
-23.29
-21.28
-19.61
-17.86
-15.33
-11.43
-6.02
0.43
6.95
12.44
16.11
17.59
17.02
14.92
11.87
8.21
4.04
-0.71
-5.93
-11.23
-15.88
-19.14
-20.57
-20.27
-18.82
-17.07
-15.76
-15.17
-15.11
-15.19
-15.07
-14.79
-14.75
-15.44
-17.23
-20.00
-23.13
-25.80
-27.36
-27.56
-26.47
-24.21
-20.43
-14.36
-6.37
2.39
9.72
13.09
10.73
2.90
-7.88
-17.29
-21.42
-18.81
-11.36
-3.85
-1.83
-8.98
-25.51
-48.08
-70.81
-87.76
-94.54
-88.56
-68.85
-35.94
7.64
56.59
100.86
130.47
138.84
125.48
96.45
61.87
31.63
11.47
1.69
-1.28
-1.73
-2.30
-3.59
-5.20
-6.66
-8.15
-10.31
-13.49
-17.27
-20.43
-21.92
-21.35
-19.21
-16.32
-13.44
-11.04
-9.23
-7.89
-6.59
-4.76
-1.80
1.84
5.68
8.94
10.74
10.42
7.98
4.14
0.06
-3.15
-4.90
-5.06
-4.04
-2.51
-0.94
0.46
1.88
3.64
6.02
9.10
12.84
17.04
21.36
25.43
28.86
31.36
32.69
32.78
31.60
29.30
25.99
21.81
16.94
11.73
6.68
2.35
-0.83
-2.75
-3.71
-4.28
-5.08
-6.46
-8.42
-10.65
-12.72
-14.30
-15.30
-15.79
-15.91
-15.74
-15.22
-14.24
-12.72
-10.70
-8.40
-6.13
-4.13
-2.49
-1.15
0.07
1.28
2.48
3.57
4.38
4.81
4.85
4.60
4.21
3.83
3.51
3.24
2.94
2.52
1.95
1.21
0.34
-0.68
-1.83
-3.09
-4.29
-5.13
-5.13
-3.83
-0.90
3.63
9.35
15.55
21.40
26.20
29.48
31.09
31.14
29.93
27.79
25.05
21.90
18.45
14.74
10.81
6.77
2.79
-0.88
-4.08
-6.70
-8.78
-10.36
-11.53
-12.31
-12.72
-12.83
-12.82
-12.98
-13.58
-14.78
-16.56
-18.68
-20.80
-22.55
-23.66
-23.98
-23.48
-22.24
-20.35
-17.93
-15.09
-11.90
-8.38
-4.47
-0.08
4.92
10.55
16.74
23.23
29.63
35.48
40.36
44.02
46.38
47.53
47.61
46.77
45.08
42.57
39.26
35.23
30.63
25.64
20.43
15.15
9.90
4.78
-0.12
-4.72
-8.91
-12.61
-15.78
-18.45
-20.66
-22.47
-23.91
-25.00
-25.76
-26.27
-26.68
-27.13
-27.68
-28.29
-28.79
-29.03
-28.90
-28.43
-27.75
-26.99
-26.24
-25.55
-24.91
-24.31
-23.69
-22.92
-21.76
-19.98
-17.43
-14.18
-10.52
-6.90
-3.75
-1.33
0.31
1.34
1.98
2.43
2.70
2.69
2.23
1.19
-0.44
-2.51
-4.79
-7.01
-8.98
-10.62
-11.95
-13.07
-14.06
-14.93
-15.65
-16.12
-16.24
-15.96
-15.28
-14.25
-12.97
-11.53
-9.97
-8.36
-6.72
-5.11
-3.56
-2.09
-0.69
0.64
1.85
2.84
3.46
3.57
3.11
2.18
1.03
-0.05
-0.86
-1.38
-1.82
-2.50
-3.71
-5.59
-8.07
-10.98
-14.11
-17.28
-20.39
-23.34
-25.97
-28.06
-29.40
-29.90
-29.60
-28.70
-27.49
-26.20
-24.90
-23.37
-21.23
-18.03
-13.41
-7.33
-0.04
7.93
15.93
23.41
30.10
36.06
41.64
47.38
53.79
61.16
69.41
78.00
86.02
92.32
95.81
95.76
91.90
84.54
74.49
62.85
50.77
39.30
29.12
20.45
13.13
6.61
0.25
-6.53
-14.02
-22.19
-30.74
-39.22
-47.17
-54.18
-59.85
-63.78
-65.57
-64.92
-61.80
-56.50
-49.60
-41.73
-33.34
-24.60
-15.45
-5.82
4.15
13.98
22.99
30.55
36.33
40.42
43.25
45.30
46.87
47.94
48.27
47.56
45.59
42.34
37.95
32.62
26.49
19.73
12.41
4.63
-3.48
-11.76
-19.99
-27.92
-35.27
-41.76
-47.16
-51.30
-54.09
-55.48
-55.41
-53.84
-50.74
-46.15
-40.16
-32.97
-24.84
-16.09
-7.03
2.02
10.76
18.93
26.34
32.81
38.21
42.41
45.31
46.80
46.86
45.50
42.83
39.00
34.22
28.69
22.64
16.26
9.70
3.09
-3.49
-9.92
-16.04
-21.65
-26.50
-30.32
-32.91
-34.15
-34.10
-33.01
-31.27
-29.30
-27.44
-25.80
-24.25
-22.45
-19.98
-16.48
-11.80
-6.05
0.43
7.06
13.22
18.32
21.95
23.96
24.45
23.71
22.11
19.92
17.29
14.23
10.67
6.59
2.14
-2.40
-6.71
-10.54
-13.83
-16.75
-19.49
-22.15
-24.60
-26.54
-27.63
-27.63
-26.54
-24.48
-21.66
-18.17
-13.98
-8.92
-2.79
4.57
13.21
23.06
33.83
44.93
55.50
64.50
70.99
74.39
74.75
72.79
69.60
66.35
63.76
61.96
60.44
58.38
54.96
49.70
42.56
33.85
24.05
13.68
3.17
-7.18
-17.18
-26.79
-35.96
-44.66
-52.80
-60.21
-66.72
-72.16
-76.49
-79.71
-81.90
-83.04
-83.07
-81.87
-79.33
-75.52
-70.67
-65.08
-59.08
-52.78
-46.11
-38.82
-30.69
-21.68
-11.98
-1.96
7.92
17.29
25.86
33.41
39.70
44.55
47.82
49.47
49.62
48.53
46.52
43.94
41.06
38.05
34.93
31.61
27.90
23.62
18.63
12.94
6.67
0.04
-6.70
-13.37
-19.85
-26.08
-31.99
-37.51
-42.45
-46.59
-49.74
-51.86
-53.13
-53.82
-54.13
-54.05
-53.35
-51.64
-48.68
-44.48
-39.36
-33.77
-28.15
-22.76
-17.67
-12.84
-8.16
-3.58
0.89
5.24
9.39
13.24
16.66
19.52
21.73
23.25
24.15
24.51
24.44
23.97
23.05
21.60
19.52
16.85
13.83
10.91
8.69
7.71
8.26
10.24
13.19
16.51
19.71
22.59
25.32
28.20
31.47
35.08
38.70
41.83
44.06
45.27
45.69
45.87
46.45
47.96
50.63
54.18
57.78
60.21
60.17
56.73
49.72
39.88
28.68
17.90
9.01
2.81
-0.78
-2.44
-3.14
-3.70
-4.66
-6.22
-8.41
-11.21
-14.53
-18.13
-21.58
-24.34
-25.94
-26.25
-25.58
-24.64
-24.19
-24.76
-26.42
-28.78
-31.16
-32.93
-33.65
-33.23
-31.84
-29.85
-27.62
-25.43
-23.44
-21.68
-20.11
-18.65
-17.24
-15.80
-14.28
-12.65
-11.02
-9.54
-8.37
-7.63
-7.28
-7.17
-7.12
-7.00
-6.80
-6.63
-6.63
-6.93
-7.55
-8.44
-9.45
-10.46
-11.40
-12.27
-13.16
-14.18
-15.35
-16.58
-17.63
-18.18
-17.91
-16.64
-14.41
-11.42
-8.03
-4.59
-1.43
1.28
3.49
5.24
6.65
7.79
8.72
9.45
9.99
10.37
10.66
10.90
11.14
11.37
11.55
11.66
11.75
11.86
12.06
12.37
12.77
13.16
13.41
13.42
13.17
12.70
12.12
11.58
11.17
10.92
10.77
10.63
10.40
10.02
9.46
8.72
7.80
6.66
5.24
3.54
1.60
-0.46
-2.47
-4.21
-5.44
-5.96
-5.64
-4.54
-2.91
-1.08
0.57
1.77
2.42
2.60
2.43
2.05
1.47
0.64
-0.48
-1.89
-3.46
-5.01
-6.34
-7.34
-7.96
-8.29
-8.42
-8.50
-8.59
-8.68
-8.72
-8.65
-8.45
-8.16
-7.86
-7.67
-7.65
-7.86
-8.29
-8.84
-9.40
-9.80
-9.92
-9.71
-9.19
-8.49
-7.76
-7.10
-6.52
-5.86
-4.93
-3.49
-1.39
1.35
4.59
8.03
11.35
14.28
16.64
18.37
19.48
20.01
19.97
19.38
18.24
16.59
14.57
12.34
10.09
7.98
6.07
4.33
2.70
1.12
-0.39
-1.72
-2.67
-3.03
-2.70
-1.69
-0.14
1.72
3.64
5.44
7.00
8.29
9.28
9.93
10.19
10.04
9.46
8.47
7.08
5.27
2.94
0.01
-3.51
-7.31
-10.85
-13.44
-14.46
-13.59
-10.95
-7.02
-2.45
2.17
6.47
10.36
13.98
17.54
21.15
24.82
28.34
31.36
33.55
34.59
34.36
32.89
30.40
27.15
23.42
19.39
15.18
10.87
6.51
2.19
-2.03
-6.05
-9.89
-13.62
-17.37
-21.24
-25.25
-29.32
-33.25
-36.80
-39.76
-42.00
-43.46
-44.18
-44.24
-43.79
-43.01
-42.03
-40.92
-39.65
-38.04
-35.83
-32.73
-28.52
-23.13
-16.74
-9.76
-2.82
3.41
8.37
11.77
13.66
14.33
14.11
13.30
12.05
10.43
8.55
6.60
4.79
3.32
2.21
1.38
0.66
0.00
-0.56
-0.88
-0.87
-0.55
-0.04
0.57
1.25
2.06
3.11
4.45
5.96
7.48
8.84
9.96
10.91
11.81
12.72
13.61
14.35
14.75
14.65
13.98
12.77
11.12
9.21
7.28
5.62
4.54
4.26
4.85
6.14
7.79
9.40
10.62
11.31
11.56
11.57
11.53
11.54
11.58
11.59
11.53
11.43
11.40
11.53
11.85
12.30
12.75
13.00
12.81
11.99
10.32
7.71
4.12
-0.30
-5.32
-10.62
-15.89
-20.83
-25.25
-29.07
-32.31
-35.04
-37.39
-39.47
-41.33
-42.99
-44.38
-45.34
-45.69
-45.17
-43.55
-40.64
-36.38
-30.87
-24.40
-17.34
-10.07
-2.90
3.96
10.40
16.30
21.53
25.94
29.39
31.82
33.26
33.90
34.06
34.04
34.10
34.28
34.51
34.55
34.17
33.22
31.72
29.79
27.65
25.51
23.50
21.62
19.81
17.92
15.87
13.59
11.10
8.50
5.83
3.14
0.48
-2.08
-4.44
-6.48
-8.20
-9.71
-11.19
-12.74
-14.22
-15.31
-15.56
-14.65
-12.50
-9.35
-5.67
-1.97
1.35
4.01
5.92
7.12
7.71
7.83
7.59
7.08
6.37
5.58
4.85
4.32
4.07
4.01
3.93
3.58
2.78
1.56
0.14
-1.20
-2.21
-2.85
-3.23
-3.54
-3.97
-4.58
-5.29
-5.96
-6.46
-6.72
-6.75
-6.59
-6.24
-5.67
-4.88
-3.92
-2.93
-2.13
-1.71
-1.77
-2.21
-2.77
-3.03
-2.62
-1.26
1.08
4.19
7.64
10.94
13.72
15.82
17.34
18.51
19.57
20.67
21.79
22.80
23.54
23.93
23.92
23.58
22.98
22.20
21.26
20.17
18.90
17.46
15.88
14.25
12.63
11.10
9.65
8.24
6.84
5.43
4.06
2.75
1.54
0.44
-0.60
-1.60
-2.58
-3.56
-4.65
-6.05
-8.01
-10.74
-14.22
-18.19
-22.10
-25.28
-27.16
-27.52
-26.52
-24.81
-23.23
-22.62
-23.52
-26.01
-29.72
-34.02
-38.24
-41.84
-44.50
-46.02
-46.27
-45.19
-42.83
-39.43
-35.40
-31.24
-27.35
-23.91
-20.87
-18.00
-15.06
-11.89
-8.50
-4.95
-1.37
2.12
5.40
8.37
10.91
12.97
14.54
15.69
16.52
17.14
17.55
17.71
17.54
16.95
15.88
14.34
12.36
10.01
7.46
5.03
3.11
2.09
2.18
3.28
5.02
6.94
8.62
9.94
10.92
11.75
12.50
13.16
13.65
13.86
13.84
13.72
13.66
13.79
14.15
14.67
15.21
15.66
15.94
16.02
15.87
15.49
14.84
13.92
12.74
11.39
9.97
8.52
7.02
5.38
3.49
1.33
-0.99
-3.27
-5.27
-6.83
-7.91
-8.55
-8.87
-9.02
-9.12
-9.29
-9.61
-10.04
-10.40
-10.33
-9.43
-7.39
-4.21
-0.21
4.04
7.91
10.96
13.02
14.17
14.60
14.46
13.79
12.59
10.86
8.70
6.30
3.85
1.48
-0.83
-3.16
-5.58
-8.07
-10.49
-12.61
-14.18
-15.06
-15.24
-14.86
-14.15
-13.37
-12.73
-12.34
-12.26
-12.41
-12.62
-12.63
-12.19
-11.14
-9.59
-7.86
-6.40
-5.57
-5.45
-5.86
-6.42
-6.73
-6.49
-5.56
-3.94
-1.82
0.38
2.11
2.84
2.40
1.30
0.58
1.51
5.03
11.33
19.82
29.34
38.66
46.90
53.75
59.38
64.19
68.72
73.60
79.43
86.58
94.93
103.81
112.15
118.41
120.73
117.30
106.74
88.75
64.34
35.85
6.49
-20.27
-42.12
-58.53
-70.54
-79.81
-87.39
-93.27
-96.54
-96.11
-90.79
-80.39
-65.86
-49.14
-32.91
-20.05
-13.49
-15.68
-28.13
-47.45
-66.81
-78.48
-78.81
-70.04
-56.94
-43.46
-31.49
-21.46
-12.43
-3.92
1.96
4.84
4.54
1.72
-2.36
-3.51
-1.07
4.75
12.83
21.55
29.51
35.88
40.83
44.94
49.13
53.70
59.03
64.95
70.90
75.21
77.82
79.42
80.64
82.24
84.39
87.22
90.65
94.31
97.57
100.22
102.66
105.04
107.66
110.41
113.08
115.22
116.12
113.77
106.00
96.15
85.82
76.09
67.30
59.44
52.35
45.83
37.22
25.26
11.39
-2.20
-13.86
-23.18
-30.51
-36.47
-41.63
-51.59
-69.00
-90.96
-112.17
-128.70
-139.42
-144.97
-146.73
-146.15
-152.66
-171.06
-197.27
-222.92
-242.15
-253.77
-259.63
-262.89
-266.76
-284.66
-323.60
-378.63
-438.53
-495.29
-546.69
-594.19
-640.54
-619.55
-508.33
-344.48
-188.17
-71.66
4.09
52.27
88.70
126.56
173.57
219.69
254.05
273.33
280.68
279.86
274.02
266.41
259.77
255.35
244.37
221.58
190.53
160.18
137.34
123.98
118.55
117.80
118.59
113.41
98.97
78.42
58.31
43.40
35.14
32.54
33.61
36.28
36.37
32.31
25.71
19.76
16.58
16.47
18.50
21.28
23.62
23.80
21.15
16.42
11.01
5.97
1.69
-1.94
-5.35
-9.04
-13.40
-18.54
-24.02
-29.22
-33.47
-36.21
-37.17
-36.55
-35.00
-33.49
-33.03
-34.04
-36.55
-40.16
-44.11
-47.61
-49.98
-50.60
-48.72
-45.92
-42.56
-38.78
-34.76
-30.66
-26.74
-23.14
-19.80
-16.61
-13.41
-9.90
-6.19
-2.66
0.23
2.18
3.14
3.30
2.86
1.86
0.43
-1.48
-3.98
-7.03
-10.50
-14.25
-18.20
-22.38
-26.85
-31.36
-35.63
-39.33
-42.22
-44.25
-45.48
-45.93
-45.48
-43.76
-40.32
-34.97
-27.93
-19.79
-11.27
-2.90
5.07
12.58
19.55
25.70
30.62
33.94
35.64
36.15
36.23
36.68
37.99
40.18
42.87
45.47
47.49
48.74
49.32
49.50
49.54
49.48
49.16
48.33
46.71
44.15
40.58
35.96
30.33
23.82
16.70
9.32
1.89
-5.65
-13.71
-22.84
-33.34
-44.87
-56.42
-66.53
-73.82
-77.49
-77.45
-74.26
-68.76
-61.71
-53.68
-45.14
-36.64
-28.81
-22.35
-17.65
-14.55
-12.31
-9.80
-5.94
-0.08
7.74
16.95
26.70
36.21
45.01
52.92
59.88
65.86
70.78
74.47
76.62
76.68
73.84
67.20
56.21
41.16
23.43
5.42
-10.15
-21.09
-26.43
-26.65
-23.35
-18.52
-13.77
-9.94
-6.96
-4.17
-0.66
4.48
12.00
22.54
36.58
54.40
75.79
99.89
125.10
149.28
170.20
186.05
195.86
199.53
197.69
191.29
181.26
168.41
153.37
136.73
119.07
100.95
82.81
64.87
47.12
29.47
11.82
-5.67
-22.60
-38.27
-51.93
-63.02
-71.44
-77.69
-82.69
-87.56
-93.14
-99.69
-106.87
-113.85
-119.55
-122.96
-123.35
-120.37
-114.28
-105.94
-96.70
-87.95
-80.59
-74.47
-68.32
-60.09
-47.78
-30.17
-7.30
19.49
47.90
75.25
98.98
117.15
128.79
134.10
134.39
131.67
128.04
124.96
122.81
120.83
117.54
111.47
101.72
88.37
72.47
55.69
39.88
26.57
16.66
10.23
6.61
4.56
2.64
-0.40
-5.30
-12.01
-19.73
-27.18
-33.06
-36.51
-37.54
-37.06
-36.56
-37.61
-41.11
-46.96
-53.87
-59.83
-62.73
-61.04
-54.27
-43.08
-28.94
-13.76
0.62
12.73
21.72
27.48
30.56
31.98
32.83
33.85
35.15
36.24
36.34
34.73
31.04
25.31
17.80
8.87
-1.11
-11.58
-21.72
-30.52
-37.06
-40.93
-42.52
-42.86
-43.29
-44.89
-48.09
-52.59
-57.64
-62.40
-66.26
-68.92
-70.38
-70.70
-69.99
-68.35
-65.98
-63.24
-60.60
-58.52
-57.10
-56.00
-54.25
-50.52
-43.48
-32.28
-16.86
1.95
22.69
43.68
63.38
80.60
94.62
105.01
111.60
114.32
113.32
108.97
101.90
93.01
83.38
74.12
66.08
59.70
54.84
50.89
47.11
42.96
38.38
33.80
29.87
27.08
25.41
24.32
22.93
20.43
16.42
11.07
4.99
-1.03
-6.32
-10.46
-13.32
-15.04
-16.03
-17.00
-18.83
-22.28
-27.52
-33.81
-39.51
-42.63
-41.63
-36.22
-27.45
-17.32
-7.80
-0.05
5.95
11.05
16.23
21.93
27.76
32.79
36.15
37.40
36.75
34.79
32.06
28.81
25.02
20.63
15.83
11.19
7.50
5.41
5.15
6.41
8.50
10.68
12.44
13.54
13.99
13.83
13.07
11.84
10.52
9.83
10.69
13.83
19.36
26.67
34.47
41.33
46.24
48.97
50.12
50.81
52.07
54.44
57.93
61.81
64.97
66.31
65.11
61.15
54.60
45.74
34.84
22.33
8.79
-5.04
-18.24
-29.79
-38.84
-44.85
-47.74
-47.86
-45.44
-41.07
-35.78
-30.88
-27.46
-26.10
-26.53
-27.98
-29.58
-29.68
-27.62
-24.18
-21.09
-19.82
-21.19
-24.58
-28.93
-33.12
-34.09
-30.14
-21.96
-12.05
-2.97
3.35
7.31
10.22
13.87
23.57
42.48
69.63
100.63
130.56
155.25
173.99
187.22
195.90
205.64
219.90
237.84
255.44
268.92
275.62
276.66
273.38
238.97
163.97
61.18
-43.28
-129.52
-184.80
-219.40
-241.09
-254.76
-263.78
-266.14
-260.72
-249.64
-237.18
-226.49
-219.30
-213.77
-208.40
-202.92
-194.41
-181.69
-166.35
-151.66
-140.06
-132.81
-128.28
-124.72
-121.06
-114.55
-103.74
-89.37
-73.82
-59.22
-46.91
-36.16
-25.28
-14.00
-2.49
7.75
14.62
16.67
14.20
9.56
5.32
3.67
5.71
11.76
21.04
32.06
42.62
50.64
54.77
54.78
51.38
45.46
37.97
29.69
21.27
13.22
5.98
-0.17
-5.32
-9.73
-13.78
-17.79
-21.74
-25.44
-28.63
-31.18
-33.15
-34.79
-36.35
-38.05
-39.96
-41.95
-43.70
-44.82
-44.93
-43.75
-41.33
-38.10
-34.82
-32.33
-31.26
-31.79
-33.51
-35.60
-37.17
-37.57
-36.67
-34.76
-32.47
-30.40
-29.03
-28.58
-29.08
-30.44
-32.46
-34.75
-36.76
-37.79
-37.23
-34.75
-30.56
-25.32
-19.94
-15.13
-11.06
-7.29
-2.95
2.82
10.51
20.08
31.04
42.62
53.97
64.25
72.62
78.32
80.86
80.13
76.50
70.66
63.36
55.09
46.02
36.06
25.18
13.65
2.20
-8.07
-16.00
-20.63
-21.49
-18.70
-12.85
-4.81
4.54
14.47
24.46
34.23
43.56
52.32
60.40
67.71
74.18
79.69
83.98
86.67
87.37
85.82
82.03
76.31
69.08
60.66
51.11
40.26
27.96
14.35
0.04
-13.97
-26.61
-37.06
-45.00
-50.65
-54.51
-57.18
-59.13
-60.66
-61.97
-63.31
-65.00
-67.38
-70.69
-74.81
-79.18
-82.83
-84.70
-84.00
-80.49
-74.60
-67.15
-59.05
-50.99
-43.35
-36.28
-29.85
-24.11
-18.96
-14.03
-8.71
-2.36
5.36
14.16
23.18
31.24
37.32
40.91
42.13
41.52
39.79
37.48
34.91
32.23
29.61
27.30
25.62
24.89
25.21
26.55
28.73
31.64
35.28
39.80
45.37
52.06
59.70
67.78
75.47
81.73
85.63
86.64
84.85
80.93
75.87
70.53
65.22
59.72
53.49
46.15
37.81
29.08
20.81
13.61
7.58
2.29
-2.89
-8.38
-14.21
-20.04
-25.45
-30.22
-34.49
-38.66
-43.13
-47.99
-52.95
-57.42
-60.77
-62.56
-62.68
-61.30
-58.76
-55.48
-51.96
-48.77
-46.49
-45.47
-45.61
-46.30
-46.50
-45.17
-41.74
-36.36
-29.94
-23.77
-19.00
-16.29
-15.67
-16.70
-18.77
-21.29
-23.81
-25.86
-27.04
-27.03
-25.77
-23.57
-21.11
-19.11
-18.09
-18.14
-18.91
-19.87
-20.57
-20.89
-20.99
-21.16
-21.71
-22.82
-24.51
-26.68
-29.02
-31.00
-31.81
-30.54
-26.55
-19.81
-11.13
-2.01
5.91
11.52
14.75
16.59
18.68
22.58
29.15
38.25
48.95
59.87
69.55
76.80
80.77
81.15
78.23
73.00
66.89
61.33
57.23
54.62
52.72
50.23
45.97
39.24
30.11
19.31
8.08
-2.28
-10.73
-16.88
-21.15
-24.66
-28.78
-34.43
-41.59
-49.18
-55.57
-59.40
-60.25
-58.73
-56.12
-53.63
-51.84
-50.57
-49.17
-47.08
-44.16
-40.71
-37.22
-33.98
-30.97
-27.93
-24.61
-20.99
-17.30
-13.95
-11.27
-9.42
-8.39
-8.06
-8.28
-8.88
-9.69
-10.40
-10.64
-10.01
-8.21
-5.13
-0.89
4.28
10.12
16.47
23.25
30.42
37.86
45.29
52.29
58.38
63.14
66.37
68.14
68.73
68.54
67.94
67.15
66.23
65.10
63.49
61.10
57.60
52.78
46.65
39.48
31.69
23.82
16.32
9.50
3.62
-1.12
-4.49
-6.25
-6.30
-4.79
-2.28
0.44
2.52
3.36
2.79
1.05
-1.40
-4.08
-6.76
-9.45
-12.39
-15.84
-20.02
-24.90
-30.22
-35.54
-40.32
-44.04
-46.34
-47.02
-46.00
-43.19
-38.50
-31.87
-23.43
-13.61
-3.19
6.83
15.61
22.60
27.85
31.90
35.65
40.09
45.97
53.65
63.00
73.45
84.10
93.77
101.13
104.87
103.96
98.07
87.86
74.96
61.56
49.78
40.94
35.23
31.73
28.88
25.11
19.28
10.91
0.17
-12.31
-25.62
-38.76
-50.82
-61.05
-69.07
-74.86
-78.70
-81.06
-82.38
-83.02
-83.14
-82.87
-82.38
-81.93
-81.83
-82.24
-83.04
-83.77
-83.69
-81.91
-77.49
-69.60
-57.85
-42.69
-25.70
-9.46
3.22
10.42
12.05
9.98
7.22
6.53
9.19
14.62
20.98
26.33
29.59
30.79
30.64
29.73
28.09
25.24
20.69
14.56
7.78
1.93
-1.32
-0.85
3.46
10.72
19.41
27.96
35.32
41.10
45.47
48.72
50.88
51.63
50.44
46.90
41.07
33.46
24.94
16.42
8.54
1.58
-4.50
-9.92
-14.88
-19.48
-23.69
-27.44
-30.74
-33.66
-36.34
-38.91
-41.38
-43.66
-45.56
-46.90
-47.61
-47.76
-47.47
-46.87
-46.02
-45.02
-44.05
-43.47
-43.70
-45.15
-47.97
-51.88
-56.24
-60.15
-62.76
-63.47
-62.15
-59.14
-55.06
-50.48
-45.64
-40.30
-33.82
-25.49
-14.95
-2.43
11.32
25.22
38.25
49.60
58.82
65.75
70.59
73.81
76.09
78.04
79.89
81.37
81.75
80.29
76.66
71.25
65.06
59.26
54.71
51.61
49.57
47.84
45.67
42.57
38.40
33.28
27.53
21.47
15.33
9.27
3.35
-2.39
-7.93
-13.25
-18.27
-22.89
-26.97
-30.30
-32.68
-33.92
-33.96
-32.90
-31.07
-29.08
-27.64
-27.46
-28.94
-31.96
-35.87
-39.64
-42.21
-42.90
-41.60
-38.77
-35.18
-31.61
-28.69
-26.78
-26.10
-26.74
-28.67
-31.60
-34.96
-37.87
-39.41
-38.85
-35.99
-31.24
-25.53
-19.92
-15.29
-12.08
-10.33
-9.76
-9.89
-10.18
-10.01
-8.77
-5.92
-1.30
4.84
11.78
18.60
24.51
28.97
31.79
32.96
32.58
30.83
28.01
24.63
21.32
18.67
17.06
16.56
16.93
17.81
18.88
19.96
21.05
22.22
23.52
24.92
26.31
27.53
28.50
29.31
30.22
31.58
33.65
36.47
39.73
42.86
45.20
46.21
45.68
43.69
40.48
36.21
30.81
24.15
16.18
7.18
-2.16
-10.99
-18.59
-24.69
-29.47
-33.40
-36.88
-40.10
-43.00
-45.48
-47.59
-49.61
-51.91
-54.64
-57.67
-60.49
-62.47
-63.08
-62.08
-59.53
-55.70
-50.85
-45.09
-38.37
-30.52
-21.39
-10.99
0.42
12.28
23.81
34.20
42.84
49.56
54.56
58.30
61.23
63.51
65.00
65.37
64.34
61.89
58.26
53.75
48.53
42.54
35.51
27.29
17.94
7.85
-2.30
-11.83
-20.15
-26.89
-31.87
-34.99
-36.17
-35.37
-32.69
-28.50
-23.39
-18.03
-12.82
-7.72
-2.24
4.32
12.29
21.28
30.08
37.04
40.66
40.23
36.15
29.69
22.54
16.19
11.48
8.57
7.04
6.25
5.63
4.88
4.05
3.43
3.39
4.04
5.16
6.14
6.21
4.79
1.66
-2.97
-8.69
-15.17
-22.25
-29.83
-37.68
-45.25
-51.90
-57.16
-61.08
-64.24
-67.43
-71.04
-74.73
-77.48
-77.97
-75.34
-69.45
-60.95
-50.85
-40.00
-28.87
-17.51
-5.88
5.91
17.53
28.47
38.22
46.46
53.04
57.96
61.26
62.99
63.18
61.92
59.33
55.55
50.77
45.22
39.23
33.15
27.34
22.01
17.21
12.86
9.01
5.89
3.96
3.63
5.01
7.57
10.31
12.10
12.22
10.73
8.40
6.39
5.66
6.46
8.33
10.19
10.93
9.78
6.61
1.99
-2.99
-7.08
-9.24
-8.94
-6.41
-2.59
0.99
2.69
1.18
-4.01
-12.35
-22.31
-31.83
-38.91
-42.33
-42.06
-39.26
-35.79
-33.52
-33.52
-35.64
-38.60
-40.47
-39.52
-34.90
-26.98
-17.13
-7.21
1.15
7.06
10.46
11.88
12.04
11.47
10.42
9.08
7.66
6.54
6.07
6.41
7.33
8.28
8.70
8.28
7.28
6.40
6.49
8.19
11.71
16.77
22.78
29.08
35.14
40.69
45.65
49.99
53.72
56.85
59.49
61.60
62.82
62.56
60.35
56.04
49.80
42.34
34.74
28.31
23.88
21.48
20.46
20.29
20.66
21.26
21.93
22.56
23.24
23.81
23.72
22.36
20.02
17.37
14.80
12.52
10.72
10.26
12.15
17.01
24.67
34.58
45.09
53.13
55.38
47.18
27.73
1.11
-26.95
-55.95
-86.86
-117.44
-143.81
-161.19
-165.75
-156.10
-134.88
-108.36
-83.88
-66.32
-57.06
-54.78
-56.76
-60.38
-63.68
-65.79
-66.33
-64.65
-59.19
-48.49
-32.54
-12.82
8.12
27.90
44.93
58.64
69.26
77.61
84.16
88.50
89.66
86.84
80.03
70.04
58.19
45.68
33.55
22.31
12.02
2.55
-6.12
-13.79
-20.23
-25.43
-29.77
-33.72
-37.66
-41.53
-44.78
-46.57
-46.18
-43.46
-39.10
-34.56
-31.55
-31.23
-33.65
-37.73
-41.76
-44.02
-43.49
-40.09
-34.79
-28.98
-23.91
-20.19
-17.72
-15.90
-13.88
-10.63
-3.37
9.46
26.89
44.96
58.27
62.32
55.19
38.46
17.40
-2.56
-16.56
-21.60
-17.42
-6.32
8.12
22.49
34.79
43.56
48.60
50.48
49.91
47.32
43.06
37.72
32.25
27.73
24.91
23.85
23.79
23.43
21.51
17.54
11.90
5.65
-0.11
-4.68
-7.96
-10.38
-12.60
-15.20
-18.31
-21.65
-24.72
-27.06
-28.49
-29.11
-29.27
-29.44
-30.04
-31.21
-32.78
-34.35
-35.49
-35.90
-35.49
-34.35
-32.75
-31.09
-29.79
-29.31
-29.98
-31.92
-34.94
-38.55
-42.05
-44.75
-46.14
-45.96
-44.23
-41.22
-37.41
-33.39
-29.72
-26.64
-23.88
-20.67
-15.93
-8.76
1.13
13.27
26.54
39.57
51.12
60.42
67.25
71.86
74.81
76.66
77.80
78.35
78.14
76.86
74.28
70.37
65.34
59.55
53.41
47.30
41.55
36.47
32.33
29.31
27.47
26.63
26.36
26.02
24.79
21.89
16.87
9.80
1.40
-7.09
-14.38
-19.47
-22.06
-22.61
-22.12
-21.74
-22.33
-24.21
-27.19
-30.74
-34.30
-37.54
-40.43
-43.12
-45.76
-48.33
-50.64
-52.48
-53.78
-54.72
-55.56
-56.50
-57.48
-58.17
-58.09
-56.87
-54.40
-50.90
-46.79
-42.54
-38.41
-34.41
-30.26
-25.48
-19.59
-12.22
-3.28
6.98
18.00
29.03
39.33
48.31
55.63
61.15
64.83
66.72
66.91
65.64
63.28
60.35
57.33
54.50
51.88
49.22
46.17
42.32
37.40
31.26
23.96
15.85
7.52
-0.24
-6.69
-11.40
-14.39
-16.09
-17.15
-18.06
-18.89
-19.30
-18.62
-16.16
-11.39
-4.03
5.85
17.75
30.57
42.66
52.10
57.40
58.08
54.95
49.77
44.47
40.20
36.96
33.84
29.83
24.54
18.53
12.87
8.55
5.82
4.25
3.05
1.65
-0.03
-1.66
-2.86
-3.55
-4.06
-5.02
-7.01
-10.31
-14.85
-20.11
-25.35
-29.69
-32.44
-33.32
-32.61
-31.11
-29.88
-29.65
-30.39
-31.15
-30.54
-27.34
-21.30
-13.38
-5.48
0.41
3.01
2.21
-1.08
-5.50
-9.88
-13.70
-17.04
-20.21
-23.39
-26.36
-28.63
-29.72
-29.49
-28.25
-26.63
-25.34
-24.78
-24.91
-25.35
-25.58
-25.26
-24.37
-23.28
-22.51
-22.56
-23.64
-25.64
-28.15
-30.60
-32.39
-33.07
-32.40
-30.37
-27.21
-23.41
-19.61
-16.46
-14.46
-13.68
-13.67
-13.47
-11.88
-7.90
-1.04
8.37
19.33
30.50
40.57
48.69
54.54
58.34
60.64
62.05
63.13
64.27
65.58
66.92
67.96
68.25
67.40
65.24
61.84
57.56
52.82
47.90
42.81
37.19
30.53
22.36
12.59
1.69
-9.34
-19.26
-26.99
-32.04
-34.56
-35.28
-35.11
-34.75
-34.51
-34.24
-33.62
-32.34
-30.26
-27.46
-24.13
-20.46
-16.63
-12.75
-8.93
-5.32
-2.15
0.31
1.79
2.08
1.15
-0.89
-3.70
-6.86
-9.90
-12.46
-14.32
-15.43
-15.89
-15.85
-15.41
-14.61
-13.54
-12.33
-11.21
-10.38
-9.86
-9.41
-8.54
-6.78
-3.90
-0.04
4.35
8.72
12.62
15.86
18.43
20.46
22.06
23.37
24.52
25.70
27.00
28.37
29.48
29.84
28.86
26.13
21.57
15.52
8.67
1.89
-4.10
-8.93
-12.69
-15.80
-18.79
-21.99
-25.31
-28.32
-30.36
-30.86
-29.59
-26.84
-23.40
-20.34
-18.76
-19.38
-22.21
-26.48
-30.71
-33.25
-32.88
-29.29
-23.27
-16.36
-10.29
-6.29
-4.73
-5.16
-6.64
-8.21
-9.14
-9.04
-7.70
-4.95
-0.67
5.11
12.06
19.51
26.51
32.15
35.80
37.35
37.29
36.51
36.07
36.75
38.77
41.76
44.95
47.57
49.33
50.54
52.05
54.80
59.38
65.68
72.95
80.04
85.79
89.29
90.05
88.01
83.37
76.55
68.03
58.29
47.66
36.31
24.28
11.62
-1.41
-14.33
-26.45
-37.03
-45.58
-51.94
-56.29
-59.12
-60.92
-62.16
-63.12
-63.95
-64.74
-65.63
-66.82
-68.50
-70.67
-73.06
-75.05
-75.84
-74.79
-71.62
-66.62
-60.50
-54.09
-48.10
-43.07
-39.30
-36.88
-35.52
-34.42
-32.25
-27.48
-19.00
-6.65
8.61
25.02
40.73
54.37
65.28
73.34
78.56
80.79
79.85
75.78
69.10
60.80
52.04
43.83
36.70
30.66
25.31
20.15
14.78
9.06
3.10
-2.89
-8.68
-14.14
-19.24
-23.93
-28.12
-31.68
-34.50
-36.63
-38.36
-40.12
-42.24
-44.75
-47.21
-48.80
-48.60
-45.98
-40.81
-33.59
-25.16
-16.39
-7.98
-0.26
6.54
12.19
16.30
18.45
18.46
16.55
13.38
9.77
6.46
3.76
1.55
-0.63
-3.24
-6.51
-10.24
-13.90
-16.78
-18.30
-18.27
-16.90
-14.77
-12.50
-10.52
-8.81
-6.91
-4.11
0.35
6.82
15.10
24.34
33.22
40.28
44.27
44.47
41.00
34.87
27.77
21.71
18.35
18.42
21.49
26.05
30.18
32.30
31.76
28.95
24.96
20.95
17.66
15.26
13.53
12.20
11.14
10.30
9.59
8.84
7.75
6.10
3.78
0.91
-2.27
-5.56
-8.87
-12.25
-15.82
-19.64
-23.60
-27.30
-30.21
-31.79
-31.82
-30.52
-28.54
-26.71
-25.68
-25.73
-26.72
-28.22
-29.82
-31.23
-32.34
-33.13
-33.59
-33.77
-33.72
-33.50
-33.12
-32.36
-30.77
-27.78
-22.92
-16.17
-8.09
0.23
7.45
12.42
14.56
14.03
11.63
8.50
5.66
3.79
3.13
3.64
5.13
7.38
10.19
13.23
16.12
18.46
19.93
20.48
20.22
19.41
18.27
16.94
15.44
13.69
11.67
9.34
6.71
3.83
0.80
-2.21
-5.06
-7.56
-9.60
-11.07
-11.91
-12.13
-11.79
-10.96
-9.68
-8.01
-6.00
-3.76
-1.51
0.41
1.67
2.04
1.52
0.38
-1.03
-2.31
-3.18
-3.47
-3.17
-2.32
-1.06
0.37
1.68
2.56
2.84
2.45
1.50
0.13
-1.55
-3.37
-5.16
-6.60
-7.36
-7.22
-6.18
-4.53
-2.71
-1.13
-0.05
0.38
0.02
-1.32
-3.83
-7.50
-11.95
-16.37
-19.75
-21.28
-20.58
-17.87
-13.79
-9.07
-4.28
0.28
4.58
8.67
12.54
16.09
19.18
21.65
23.42
24.51
24.97
24.88
24.30
23.27
21.83
20.03
17.91
15.53
12.89
10.01
6.85
3.48
0.00
-3.41
-6.57
-9.35
-11.71
-13.69
-15.43
-17.06
-18.63
-20.03
-20.99
-21.17
-20.30
-18.32
-15.42
-12.01
-8.52
-5.34
-2.69
-0.69
0.71
1.69
2.54
3.60
5.08
6.92
8.66
9.61
9.06
6.67
2.63
-2.28
-6.89
-9.99
-10.61
-8.39
-3.67
2.50
8.72
13.66
16.62
17.69
17.64
17.41
17.64
18.38
19.16
19.40
18.77
17.33
15.44
13.46
11.52
9.60
7.66
5.88
4.72
4.67
5.96
8.31
10.90
12.72
12.97
11.44
8.65
5.60
3.37
2.65
3.49
5.29
7.09
8.00
7.49
5.62
2.98
0.44
-1.15
-1.30
-0.01
2.26
4.71
6.40
6.55
4.68
0.75
-4.79
-11.14
-17.31
-22.19
-24.75
-24.10
-19.78
-12.06
-2.15
7.87
15.53
18.85
17.05
10.96
2.64
-5.35
-10.91
-12.97
-11.61
-7.82
-2.98
1.50
4.47
5.20
3.39
-0.83
-7.01
-14.47
-22.47
-30.22
-37.00
-42.23
-45.62
-47.21
-47.42
-46.84
-46.04
-45.38
-44.90
-44.35
-43.40
-41.74
-39.18
-35.69
-31.34
-26.30
-20.80
-15.11
-9.39
-3.75
1.60
6.51
10.83
14.57
17.96
21.35
25.18
29.96
35.82
42.13
47.93
52.14
54.17
54.18
53.06
52.14
52.71
55.02
57.57
58.28
55.15
47.21
34.87
19.80
4.67
-7.22
-13.09
-11.83
-2.98
11.69
28.07
42.05
50.70
52.18
47.47
40.29
34.96
36.36
47.59
68.20
92.20
109.30
109.62
89.91
58.07
20.22
-18.59
-54.54
-82.84
-99.25
-102.01
-92.36
-74.07
-52.71
-35.20
-26.28
-27.41
-37.15
-53.07
-72.88
-94.69
-116.54
-130.92
-132.46
-119.87
-96.89
-69.93
-45.23
-27.01
-16.65
-12.42
-12.28
-11.96
-8.06
1.09
15.12
31.53
46.64
57.17
61.39
59.22
51.07
38.34
23.35
8.73
-3.43
-12.14
-17.64
-21.08
-24.17
-28.75
-36.05
-45.99
-57.15
-67.32
-74.40
-76.92
-74.42
-67.42
-57.04
-44.56
-30.72
-15.51
1.34
19.70
38.44
55.38
67.96
74.35
74.41
70.06
64.71
61.89
63.99
71.54
83.10
95.62
105.17
107.62
99.63
79.77
49.33
12.42
-25.06
-57.25
-80.21
-92.91
-96.84
-94.75
-89.10
-81.24
-71.53
-60.06
-47.38
-34.60
-23.04
-13.59
-6.36
-0.73
4.19
9.04
13.89
18.24
21.37
22.77
22.35
20.59
18.31
16.34
15.23
15.11
15.77
16.77
17.71
18.30
18.52
18.61
19.05
20.30
22.63
25.87
29.36
32.07
32.87
30.97
26.39
20.02
13.49
8.67
7.12
9.72
16.37
26.08
37.38
48.74
58.73
65.97
69.27
68.05
62.97
55.89
49.20
44.66
42.34
40.24
35.18
24.68
8.83
-9.18
-24.78
-34.67
-38.45
-38.59
-38.83
-41.99
-48.42
-55.81
-60.27
-58.58
-49.80
-35.21
-17.54
-0.09
13.91
21.17
18.34
5.72
-11.62
-27.24
-37.25
-41.15
-40.79
-38.44
-35.54
-32.14
-27.28
-20.52
-12.80
-6.02
-1.84
-0.81
-2.22
-4.47
-5.79
-4.79
-1.27
3.65
8.31
11.38
12.44
11.94
10.85
10.24
11.00
13.32
16.62
19.93
22.50
24.06
24.80
25.21
25.79
27.04
29.09
31.66
34.18
36.16
37.27
37.35
36.41
34.32
31.30
27.43
22.61
16.73
9.68
1.52
-7.50
-16.34
-24.82
-32.36
-38.45
-42.91
-45.83
-47.61
-48.76
-49.73
-50.68
-51.65
-52.28
-52.24
-51.48
-50.27
-49.21
-48.92
-49.81
-51.75
-54.34
-56.76
-58.37
-58.94
-58.71
-58.28
-58.18
-59.03
-60.63
-62.92
-65.84
-68.35
-68.87
-65.25
-55.44
-38.60
-15.89
9.57
33.57
52.56
64.91
71.03
72.72
71.85
69.48
65.75
60.54
54.05
47.21
41.27
37.12
34.87
33.68
32.29
29.43
24.55
18.10
11.26
5.50
1.80
0.24
-0.07
-0.51
-2.27
-5.68
-10.13
-14.38
-17.33
-18.30
-17.40
-15.26
-12.59
-9.90
-7.39
-5.13
-3.19
-1.87
-1.41
-2.02
-3.81
-6.63
-10.19
-14.16
-18.29
-22.48
-26.75
-30.89
-34.63
-37.60
-39.44
-39.92
-39.03
-36.91
-33.63
-30.57
-28.27
-26.93
-26.35
-26.12
-25.85
-25.36
-24.81
-24.66
-25.60
-27.98
-31.95
-37.21
-43.07
-48.55
-52.65
-54.57
-53.96
-50.99
-46.14
-40.21
-34.01
-28.11
-22.73
-17.74
-12.88
-8.13
-3.84
-0.65
0.69
-0.31
-3.60
-8.41
-13.62
-18.02
-20.74
-21.46
-20.33
-17.80
-14.36
-10.44
-6.36
-2.42
1.08
3.85
5.64
6.43
6.35
5.64
4.61
3.57
2.86
2.78
3.68
5.87
9.57
14.89
21.71
29.73
38.38
46.94
54.60
60.66
64.63
66.33
65.83
63.32
59.02
53.08
45.73
37.37
28.62
20.25
12.90
6.90
2.16
-1.77
-5.38
-8.95
-12.40
-15.41
-17.64
-19.04
-19.94
-20.88
-22.50
-25.18
-29.03
-33.87
-39.30
-44.81
-49.70
-53.19
-54.47
-52.95
-48.47
-41.40
-32.49
-22.59
-12.40
-2.34
7.31
16.32
24.32
30.89
35.72
38.74
40.16
40.49
40.38
40.39
40.88
41.85
42.96
43.59
43.19
41.44
38.48
34.85
31.28
28.35
26.25
24.77
23.42
21.72
19.38
16.46
13.23
10.15
7.74
6.51
6.93
9.40
14.17
21.24
30.29
40.71
51.69
62.34
71.78
79.14
83.52
83.99
79.91
71.20
58.76
44.52
31.01
20.73
15.29
14.94
18.52
23.99
29.25
32.79
34.14
33.60
31.93
29.82
27.59
25.28
22.82
20.28
17.85
15.68
13.58
10.94
7.01
1.17
-6.69
-16.14
-26.31
-36.24
-45.09
-52.32
-57.68
-61.13
-62.89
-63.34
-62.99
-62.42
-62.13
-62.54
-63.98
-66.72
-70.93
-76.20
-81.97
-87.75
-93.25
-98.41
-103.39
-108.57
-114.39
-121.06
-128.02
-134.48
-139.73
-143.24
-144.43
-142.45
-136.24
-124.95
-108.35
-86.32
-59.92
-31.28
-2.87
23.60
47.59
69.30
89.03
106.81
125.00
145.07
166.60
187.56
205.80
220.19
230.45
236.87
240.03
245.82
258.35
277.43
298.98
318.51
333.54
343.56
348.89
350.17
356.23
373.01
399.88
430.31
457.47
477.91
491.20
497.97
499.11
506.03
526.35
559.23
596.39
629.46
654.86
673.24
686.59
630.75
476.96
246.79
-0.54
-213.67
-372.63
-480.75
-550.19
-594.21
-623.19
-632.46
-620.89
-593.08
-559.47
-529.94
-509.14
-497.16
-492.91
-494.91
-494.02
-481.82
-458.11
-429.43
-402.80
-381.24
-358.48
-330.02
-295.35
-252.90
-204.44
-155.25
-112.23
-80.18
-59.64
-47.77
-41.27
-36.77
-29.21
-15.01
4.62
25.30
41.78
50.14
49.06
39.45
24.78
10.67
1.83
-0.06
