1660323774.00
64.000000
-0.00
-0.00
-0.00
-0.00
-0.00
-0.00
-0.00
-0.00
-0.00
-0.00
0.00
0.01
0.01
-0.00
-0.03
-0.05
-0.05
0.00
0.13
0.36
0.66
1.01
1.37
1.72
2.06
2.40
2.79
3.24
3.80
4.42
5.06
5.67
6.20
6.67
7.14
7.68
8.34
9.20
10.15
11.07
11.80
12.31
12.66
13.04
13.72
14.88
16.73
19.06
21.57
23.93
25.95
27.73
29.63
32.14
35.58
40.31
45.92
51.80
57.29
62.03
66.13
70.19
75.02
81.22
89.26
98.48
107.85
116.30
123.22
128.78
133.89
140.20
146.56
155.17
166.28
179.52
193.31
204.65
209.48
203.70
184.55
151.48
106.76
53.68
-4.21
-64.30
-125.19
-186.19
-246.65
-305.40
-361.12
-412.37
-458.73
-500.25
-537.14
-569.23
-595.69
-614.76
-623.66
-618.88
-596.58
-554.23
-491.62
-411.72
-320.42
-225.09
-132.57
-47.63
27.44
92.31
147.10
191.70
225.68
248.94
262.37
268.14
269.05
267.65
265.39
262.35
257.60
250.05
239.17
225.34
209.71
193.66
178.21
163.77
150.08
136.68
123.21
109.75
96.77
84.86
74.43
65.52
57.84
50.90
44.34
38.06
32.15
26.74
21.93
17.70
13.99
10.91
8.49
6.73
5.47
4.39
3.05
1.17
-1.24
-3.89
-6.33
-8.25
-9.56
-10.39
-10.98
-11.50
-11.95
-12.16
-11.95
-11.24
-10.11
-8.81
-7.59
-6.68
-6.16
-5.97
-5.95
-5.92
-5.75
-5.38
-4.84
-4.18
-3.43
-2.62
-1.83
-1.17
-0.79
-0.78
-1.16
-1.77
-2.36
-2.69
-2.64
-2.26
-1.79
-1.47
-1.42
-1.60
-1.78
-1.75
-1.39
-0.82
-0.28
-0.06
-0.26
-0.81
-1.43
-1.81
-1.82
-1.55
-1.23
-1.12
-1.30
-1.65
-1.92
-1.84
-1.31
-0.39
0.72
1.74
2.46
2.73
2.56
2.05
1.42
0.87
0.56
0.53
0.70
0.91
1.08
1.17
1.29
1.57
2.07
2.75
3.46
4.01
4.24
4.11
3.68
3.07
2.39
1.75
1.11
0.46
-0.29
-1.15
-2.12
-3.09
-3.91
-4.45
-4.66
-4.62
-4.48
-4.39
-4.41
-4.47
-4.45
-4.21
-3.74
-3.11
-2.52
-2.11
-1.98
-2.12
-2.44
-2.82
-3.14
-3.33
-3.34
-3.19
-2.89
-2.51
-2.13
-1.81
-1.66
-1.70
-1.95
-2.29
-2.52
-2.41
-1.83
-0.80
0.48
1.69
2.57
2.97
2.91
2.51
1.92
1.28
0.69
0.23
-0.03
-0.07
0.11
0.45
0.80
1.02
1.02
0.73
0.19
-0.50
-1.18
-1.70
-1.92
-1.79
-1.37
-0.85
-0.44
-0.31
-0.49
-0.85
-1.24
-1.53
-1.70
-1.79
-1.89
-2.01
-2.09
-2.05
-1.87
-1.58
-1.29
-1.05
-0.89
-0.70
-0.34
0.27
1.09
1.94
2.59
2.85
2.67
2.16
1.52
0.96
0.60
0.47
0.50
0.62
0.76
0.93
1.15
1.44
1.80
2.16
2.44
2.53
2.40
2.05
1.61
1.21
0.99
0.98
1.13
1.32
1.39
1.28
0.97
0.53
0.04
-0.37
-0.59
-0.50
-0.05
0.71
1.60
2.33
2.65
2.43
1.72
0.64
-0.65
-2.16
-3.92
-6.00
-8.27
-10.45
-12.15
-12.99
-12.84
-11.81
-10.32
-8.93
-8.18
-8.40
-9.62
-11.56
-13.72
-15.58
-16.85
-17.58
-18.08
-18.84
-20.27
-22.58
-25.69
-29.18
-32.27
-33.91
-32.96
-28.57
-20.53
-9.51
3.08
15.51
26.29
34.61
40.34
43.86
45.65
46.05
45.26
43.52
41.23
38.88
36.92
35.50
34.41
33.20
31.38
28.66
25.00
20.61
15.81
10.92
6.19
1.77
-2.22
-5.70
-8.57
-10.70
-12.02
-12.49
-12.17
-11.25
-9.98
-8.66
-7.51
-6.68
-6.25
-6.19
-6.42
-6.83
-7.29
-7.63
-7.74
-7.53
-7.05
-6.37
-5.66
-5.03
-4.50
-4.01
-3.42
-2.65
-1.68
-0.66
0.25
0.95
1.48
1.96
2.49
3.04
3.35
3.02
1.74
-0.51
-3.30
-5.87
-7.37
-7.26
-5.52
-2.67
0.47
3.15
4.87
5.54
5.29
4.29
2.69
0.61
-1.73
-3.90
-5.35
-5.65
-4.68
-2.71
-0.33
1.78
3.13
3.50
2.91
1.58
-0.18
-1.99
-3.45
-4.20
-3.98
-2.80
-0.96
1.08
2.82
3.94
4.36
4.26
3.88
3.44
3.06
2.76
2.56
2.46
2.49
2.68
3.07
3.71
4.69
6.10
7.96
10.15
12.37
14.18
15.14
14.96
13.62
11.29
8.30
5.00
1.70
-1.40
-4.20
-6.68
-8.87
-10.79
-12.42
-13.67
-14.43
-14.69
-14.58
-14.32
-14.06
-13.77
-13.19
-12.00
-9.96
-7.10
-3.74
-0.30
2.88
5.61
7.83
9.44
10.23
9.92
8.42
5.98
3.17
0.63
-1.20
-2.32
-3.04
-3.74
-4.63
-5.59
-6.30
-6.51
-6.21
-5.70
-5.36
-5.49
-6.08
-6.92
-7.71
-8.22
-8.41
-8.34
-8.05
-7.53
-6.68
-5.47
-4.02
-2.61
-1.49
-0.81
-0.41
0.12
1.24
3.19
5.84
8.61
10.68
11.21
9.69
6.13
1.09
-4.36
-8.94
-11.49
-11.32
-8.56
-4.19
0.22
2.95
2.77
-0.66
-6.65
-13.69
-19.89
-23.59
-23.75
-20.20
-13.69
-5.60
2.34
8.61
12.22
12.95
11.26
8.08
4.44
1.18
-1.10
-2.06
-1.61
0.09
2.56
5.01
6.57
6.56
4.87
2.08
-0.70
-2.23
-1.67
1.08
5.34
9.95
13.78
16.21
17.24
17.42
17.47
17.96
19.05
20.40
21.46
21.80
21.36
20.45
19.57
19.14
19.22
19.41
19.04
17.51
14.69
11.12
7.64
5.10
3.96
4.02
4.44
3.88
1.03
-4.90
-13.58
-23.76
-33.25
-39.15
-38.76
-30.84
-16.62
0.25
15.08
24.20
25.67
19.99
9.89
-1.16
-10.67
-18.13
-24.64
-31.40
-37.92
-43.20
-46.04
-45.43
-40.95
-33.26
-24.07
-15.87
-11.40
-12.66
-22.40
-43.38
-75.57
-113.74
-147.00
-164.12
-160.92
-147.57
-132.24
-120.32
-113.79
-110.86
-105.71
-93.30
-70.56
-37.64
2.56
46.29
89.57
128.72
161.39
186.63
204.26
214.57
217.82
214.72
207.26
198.49
191.17
187.24
187.19
189.77
192.33
191.34
183.82
161.37
121.76
69.86
15.56
-32.01
-68.46
-94.09
-111.90
-125.05
-135.75
-144.22
-149.97
-152.44
-151.21
-145.52
-133.86
-114.59
-88.10
-54.72
-17.01
19.91
49.73
66.93
68.87
56.65
32.42
3.73
-22.37
-41.46
-52.27
-55.82
-54.21
-49.47
-43.14
-36.30
-29.58
-23.90
-19.91
-17.81
-16.77
-15.83
-14.18
-11.43
-7.81
-3.78
-0.33
1.64
1.82
0.60
-1.31
-3.09
-4.17
-4.33
-3.66
-2.77
-2.37
-2.87
-4.15
-5.82
-7.26
-8.27
-8.66
-8.43
-7.85
-7.32
-7.14
-7.43
-8.18
-9.22
-10.31
-11.19
-11.63
-11.60
-11.16
-10.47
-9.66
-8.84
-8.07
-7.34
-6.58
-5.75
-4.81
-3.76
-2.56
-1.16
0.44
2.21
4.03
5.75
7.25
8.47
9.46
10.27
10.94
11.45
11.79
11.98
12.12
12.38
12.87
13.62
14.52
15.35
15.91
16.05
15.79
15.23
14.57
13.97
13.54
13.29
13.16
13.02
12.70
12.09
11.16
10.00
8.84
8.02
7.83
8.38
9.50
10.68
11.24
10.61
8.53
5.16
1.06
-3.06
-6.55
-8.94
-9.98
-9.62
-7.86
-4.79
-0.61
4.35
9.61
14.57
18.67
21.54
23.08
23.47
23.07
22.30
21.48
20.79
20.22
19.56
18.50
16.67
13.92
10.36
6.50
3.05
0.67
-0.30
-0.06
0.76
1.29
0.81
-1.01
-4.02
-7.65
-11.18
-14.01
-15.87
-16.91
-17.48
-17.91
-18.22
-17.96
-16.45
-13.08
-7.78
-1.19
5.51
11.03
14.55
16.06
16.38
16.86
18.76
22.75
28.58
35.17
41.00
44.69
45.39
43.00
38.06
31.76
25.90
22.66
24.11
31.41
43.97
59.15
72.80
80.81
80.83
73.43
61.93
50.98
44.60
44.83
51.32
62.11
74.57
86.23
94.95
98.90
96.68
87.90
73.73
56.76
40.25
26.51
15.51
4.50
-11.18
-36.59
-75.49
-129.19
-195.57
-268.81
-339.83
-397.64
-431.84
-435.58
-407.83
-354.15
-284.88
-211.80
-144.47
-87.99
-42.79
-6.30
24.59
51.57
74.02
89.41
94.78
88.52
71.70
48.45
25.24
8.90
4.90
15.93
41.48
78.16
120.50
161.79
195.24
215.32
219.39
209.09
190.34
171.79
161.82
165.41
182.32
207.34
232.43
249.70
253.85
243.52
221.38
193.24
166.60
148.76
144.80
155.66
177.45
202.20
220.32
223.68
208.04
173.85
125.24
67.99
7.32
-52.99
-110.75
-164.88
-214.94
-261.32
-305.80
-351.83
-403.73
-464.65
-533.87
-605.21
-667.58
-708.30
-717.72
-693.18
-640.18
-570.07
-495.51
-425.94
-364.99
-310.97
-259.30
-205.35
-146.31
-81.76
-13.52
54.75
117.97
170.56
208.31
230.33
240.12
245.23
254.56
274.79
307.39
347.35
384.55
407.13
405.83
377.71
328.11
269.81
219.18
190.91
192.60
221.93
267.62
314.02
346.90
358.05
346.81
318.62
281.92
245.24
215.48
197.14
191.93
198.32
211.39
223.57
226.55
213.73
182.14
133.22
71.99
4.98
-61.39
-122.49
-176.21
-222.92
-265.24
-307.41
-354.30
-409.86
-475.37
-547.79
-619.35
-679.12
-716.19
-723.23
-699.03
-648.64
-581.47
-508.06
-437.20
-374.29
-321.14
-276.76
-238.36
-202.23
-164.41
-121.61
-72.13
-16.60
42.17
99.96
152.49
196.38
230.14
254.45
272.11
287.36
304.74
327.34
354.93
382.86
402.80
405.32
384.23
340.37
283.12
228.13
191.78
185.04
209.11
255.25
308.74
354.34
380.89
383.15
360.96
317.93
260.82
199.64
147.11
116.14
115.35
144.94
195.32
249.84
290.96
306.62
293.69
257.14
206.21
149.68
93.56
40.94
-6.88
-48.93
-84.69
-115.26
-144.59
-178.79
-223.58
-280.26
-342.95
-399.46
-434.01
-432.90
-390.36
-312.27
-215.23
-121.69
-52.63
-21.38
-32.20
-79.18
-148.43
-221.21
-278.59
-306.32
-298.90
-261.14
-207.23
-158.90
-136.47
-151.52
-201.93
-273.39
-345.32
-398.31
-419.12
-402.65
-354.62
-286.65
-212.32
-144.00
-91.85
-63.20
-62.04
-87.16
-113.03
-116.39
-85.55
-27.58
39.82
101.27
149.86
185.32
210.93
230.88
244.82
249.73
243.05
225.61
199.89
172.50
148.65
131.75
123.16
119.39
114.08
101.34
78.44
46.15
7.74
-33.07
-71.34
-101.13
-112.79
-101.68
-68.30
-18.76
35.90
82.59
109.33
109.38
83.74
43.75
5.08
-22.92
-41.79
-59.57
-82.79
-112.43
-144.37
-166.16
-168.29
-148.57
-112.49
-69.87
-30.35
1.45
19.39
23.33
25.58
35.55
56.15
85.16
119.50
153.31
184.50
210.86
229.70
239.95
240.24
231.23
216.41
201.98
194.48
198.20
212.43
219.94
208.23
175.19
130.80
87.38
51.30
22.21
-2.75
-26.09
-47.68
-63.38
-70.02
-67.27
-58.38
-48.52
-42.06
-41.01
-45.22
-52.68
-58.82
-60.10
-55.42
-46.59
-36.99
-29.76
-26.48
-27.15
-30.43
-33.14
-32.60
-27.79
-19.76
-10.73
-2.79
2.82
6.69
9.13
11.67
15.76
22.17
30.84
41.02
51.49
60.34
65.14
63.37
53.94
37.63
17.18
-3.59
-21.04
-33.00
-39.31
-41.41
-41.36
-40.62
-39.76
-38.69
-37.21
-35.40
-33.64
-32.29
-31.41
-30.80
-30.06
-28.90
-27.37
-25.84
-24.62
-23.91
-23.47
-22.86
-21.60
-19.48
-16.72
-13.90
-11.69
-10.40
-9.97
-10.05
-10.28
-10.36
-10.18
-9.84
-9.63
-9.92
-10.79
-12.20
-13.78
-14.88
-14.52
-11.59
-5.40
4.03
15.75
28.47
40.59
50.72
57.88
61.72
62.50
60.77
57.13
50.36
40.35
28.20
15.92
5.34
-2.74
-8.34
-12.06
-14.68
-16.85
-18.68
-20.51
-22.17
-23.44
-24.15
-24.01
-22.72
-20.11
-16.27
-11.39
-6.03
-0.97
3.09
5.30
5.23
3.08
-0.45
-4.43
-7.93
-10.44
-11.90
-12.68
-13.26
-13.88
-14.57
-15.15
-15.46
-15.39
-14.93
-14.13
-13.04
-11.69
-10.00
-7.89
-5.31
-2.34
0.82
3.85
6.45
8.46
9.92
11.18
12.69
14.94
18.21
22.40
27.07
31.65
35.60
38.60
40.66
41.71
41.82
41.24
40.33
39.21
37.55
34.65
29.74
22.24
12.03
-0.32
-13.61
-26.24
-36.65
-43.75
-47.18
-47.41
-45.36
-42.09
-38.36
-34.51
-30.70
-27.04
-23.71
-20.90
-18.69
-16.89
-15.24
-13.44
-11.30
-8.86
-6.33
-3.99
-2.03
-0.50
0.76
1.95
3.25
4.76
6.46
8.23
9.94
11.50
12.81
13.97
14.97
15.76
16.28
16.43
16.15
15.46
14.40
12.60
10.33
7.52
4.01
-0.27
-5.17
-10.37
-15.31
-18.92
-21.41
-22.96
-24.01
-25.27
-27.15
-29.63
-32.22
-33.99
-34.16
-32.52
-29.91
-26.95
-24.87
-24.59
-26.28
-29.41
-32.72
-35.30
-36.81
-37.65
-38.75
-41.24
-45.83
-52.24
-61.09
-72.01
-83.45
-92.30
-94.25
-85.35
-64.17
-33.10
1.95
33.63
56.24
67.77
69.99
66.85
62.10
57.56
53.10
47.89
41.66
35.35
30.47
28.26
28.63
30.54
32.53
33.39
32.66
30.74
28.50
26.80
26.06
26.11
26.32
25.92
24.30
20.93
16.41
11.49
7.10
4.10
3.12
4.45
8.11
13.29
18.92
23.94
27.53
29.42
30.08
30.46
31.66
34.34
38.46
43.00
46.53
47.89
46.75
43.93
41.12
40.21
42.64
49.17
59.39
71.65
82.94
89.16
86.07
70.94
44.10
8.70
-27.68
-58.06
-78.61
-89.42
-93.69
-95.16
-95.91
-95.83
-93.85
-89.78
-84.56
-80.38
-78.89
-80.20
-83.47
-87.76
-92.76
-98.16
-102.17
-100.94
-90.06
-67.56
-36.39
-4.61
18.22
26.49
21.82
12.34
6.76
8.56
13.91
15.10
6.99
-8.48
-23.31
-29.44
-24.59
-14.58
-9.33
-16.18
-35.42
-60.53
-82.91
-97.17
-103.13
-103.25
-99.73
-92.22
-78.36
-55.97
-25.21
11.54
51.60
89.49
122.19
149.46
173.40
197.34
223.98
253.92
284.46
310.25
325.26
325.88
311.51
283.80
245.19
198.23
146.40
95.37
53.15
27.36
21.50
31.42
45.73
50.31
34.64
-3.66
-58.82
-120.67
-179.99
-231.28
-273.87
-310.33
-343.69
-375.47
-404.77
-428.44
-442.07
-441.58
-424.78
-392.51
-348.50
-297.52
-243.25
-187.21
-129.31
-69.49
-9.11
49.13
101.94
146.69
182.50
209.97
230.33
244.63
253.25
255.86
251.70
239.45
218.01
188.08
153.28
119.77
94.14
80.69
79.41
86.93
96.96
102.88
100.49
89.34
72.44
55.22
43.95
44.06
59.50
88.67
123.70
153.32
167.84
163.53
144.51
121.07
105.11
106.34
125.57
154.58
180.81
193.70
188.48
166.42
132.48
81.63
18.22
-46.77
-102.78
-145.40
-174.70
-191.40
-195.94
-189.70
-175.93
-157.71
-139.51
-125.54
-117.67
-114.40
-112.25
-107.96
-100.19
-89.75
-77.48
-65.47
-56.01
-50.31
-47.62
-45.95
-43.36
-38.95
-33.04
-25.87
-18.47
-12.13
-7.71
-5.01
-3.15
-1.14
1.55
4.83
8.75
12.91
16.77
19.74
21.69
22.69
23.00
22.45
21.13
19.20
16.63
13.46
9.60
5.15
0.25
-4.65
-8.42
-11.27
-13.08
-14.53
-14.97
-14.40
-12.96
-11.09
-9.00
-6.94
-5.28
-4.23
-3.93
-4.35
-5.55
-6.19
-7.05
-8.11
-9.23
-10.29
-11.15
-11.68
-11.77
-11.46
-10.82
-10.10
-9.29
-8.41
-7.58
-6.84
-6.20
-5.59
-4.98
-4.31
-3.71
-3.12
-2.50
-1.97
-1.56
-1.27
-1.02
-0.77
-0.45
-0.12
0.25
0.61
0.83
0.80
0.53
0.13
-0.23
-0.37
-0.25
-0.23
-0.29
-0.70
-1.69
-3.26
-5.16
-6.94
-8.19
-8.70
-8.69
-8.66
-9.31
-11.17
-14.24
-18.03
-21.66
-24.31
-25.59
-25.84
-25.97
-27.20
-30.36
-35.52
-41.86
-48.02
-52.88
-55.82
-57.21
-58.08
-59.69
-63.08
-68.95
-77.74
-89.25
-102.14
-113.37
-118.58
-113.68
-96.85
-70.07
-38.92
-10.61
8.97
17.46
16.48
10.02
2.12
-4.92
-10.72
-15.80
-20.21
-22.97
-22.51
-17.71
-8.54
3.71
17.17
30.08
41.59
51.83
61.49
71.22
80.45
88.84
95.50
99.40
99.98
97.45
92.70
87.00
81.47
77.16
73.84
70.95
