1660325273.00
64.000000
-0.00
-0.00
-0.00
-0.00
-0.00
-0.00
-0.00
-0.00
-0.00
-0.00
0.00
0.01
0.01
-0.00
-0.03
-0.05
-0.05
0.00
0.13
0.36
0.66
1.01
1.37
1.72
2.06
2.40
2.79
3.24
3.80
4.42
5.06
5.66
6.20
6.68
7.15
7.68
8.31
9.14
10.09
11.04
11.88
12.56
13.14
13.76
14.65
15.96
17.91
20.32
22.90
25.38
27.58
29.57
31.68
34.32
37.81
42.54
48.15
54.10
59.83
64.97
69.58
74.14
79.34
85.71
93.76
103.00
112.62
121.73
129.77
136.75
143.30
150.75
157.77
166.64
177.95
191.79
206.97
220.57
228.25
225.36
208.53
176.87
132.76
80.05
23.07
-34.94
-92.44
-149.16
-205.23
-260.37
-313.74
-363.87
-409.83
-450.91
-486.50
-515.74
-537.23
-549.22
-549.96
-538.37
-514.21
-478.67
-433.88
-382.45
-327.02
-269.84
-212.63
-156.66
-102.95
-52.37
-5.90
35.58
71.43
101.35
125.50
144.38
158.69
169.15
176.37
180.75
182.57
182.07
179.51
175.23
169.65
163.18
156.15
148.81
141.30
133.69
126.02
118.33
110.69
103.16
95.80
88.68
81.83
75.25
68.95
62.95
57.25
51.86
46.78
42.03
37.59
33.45
29.61
26.07
22.81
19.83
17.11
14.67
12.48
10.54
8.83
7.35
6.07
4.97
4.05
3.27
2.62
2.09
1.65
1.30
1.01
0.79
0.62
0.49
0.40
0.32
0.23
0.14
0.03
-0.07
-0.16
-0.21
-0.22
-0.21
-0.20
-0.21
-0.24
-0.28
-0.33
-0.34
-0.32
-0.26
-0.20
-0.17
-0.20
-0.31
-0.47
-0.62
-0.71
-0.71
-0.62
-0.51
-0.47
-0.60
-0.89
-1.32
-1.75
-2.04
-2.09
-1.92
-1.66
-1.52
-1.68
-2.20
-2.98
-3.76
-4.28
-4.36
-4.04
-3.57
-3.30
-3.52
-4.29
-5.41
-6.49
-7.14
-7.20
-6.79
-6.20
-5.83
-5.83
-6.24
-7.07
-8.40
-10.25
-12.36
-13.79
-13.18
-9.14
-1.14
10.01
22.24
33.05
40.54
44.11
44.52
42.81
39.75
35.34
29.11
20.83
11.14
1.65
-5.77
-9.82
-10.52
-9.14
-7.63
-7.57
-9.37
-12.08
-13.98
-13.54
-10.25
-4.94
0.72
5.08
7.33
7.63
6.85
5.79
4.65
3.03
0.46
-2.96
-6.34
-8.38
-8.14
-5.80
-2.68
-0.66
-1.05
-3.90
-7.84
-10.83
-11.28
-8.83
-4.53
-0.25
2.26
2.18
-0.06
-3.11
-5.36
-5.63
-3.57
0.42
5.46
10.66
15.48
19.76
23.62
27.07
29.73
30.99
30.18
27.09
22.16
16.38
10.77
6.40
3.72
2.35
1.30
-0.51
-3.64
-7.92
-12.60
-16.73
-19.73
-21.67
-23.11
-24.79
-27.08
-29.86
-32.69
-35.20
-37.35
-39.46
-41.87
-44.43
-46.21
-45.68
-41.35
-32.56
-19.91
-5.19
9.22
21.12
29.16
33.12
33.79
32.54
30.87
29.83
29.82
30.47
30.92
30.24
28.00
24.50
20.69
17.73
16.40
16.79
18.26
19.75
20.18
18.80
15.32
9.93
3.33
-3.40
-8.99
-12.28
-12.68
-10.30
-6.02
-1.07
3.47
7.02
9.65
11.73
13.63
15.37
16.64
16.99
16.12
14.08
11.31
8.43
6.02
4.40
3.52
3.03
2.35
0.93
-1.58
-5.20
-9.61
-14.23
-18.48
-21.94
-24.48
-26.26
-27.49
-28.21
-28.17
-26.86
-23.70
-18.32
-10.76
-1.57
8.30
17.63
25.22
30.03
31.43
29.39
24.50
17.93
11.13
5.46
1.74
0.11
0.03
0.54
0.70
-0.14
-2.12
-5.00
-8.27
-11.53
-14.62
-17.68
-21.06
-24.95
-29.08
-32.63
-34.39
-33.29
-28.83
-21.46
-12.45
-3.38
4.41
10.24
14.18
16.69
18.27
19.15
19.29
18.48
16.65
13.94
10.69
7.41
4.54
2.43
1.16
0.55
0.17
-0.51
-1.98
-4.53
-8.19
-12.76
-17.87
-23.03
-27.59
-30.75
-31.61
-29.39
-23.77
-15.12
-4.52
6.52
16.44
24.08
28.89
30.91
30.57
28.53
25.44
21.95
18.48
15.25
12.22
9.17
5.93
2.55
-0.62
-3.07
-4.51
-5.15
-5.81
-7.59
-11.42
-17.52
-25.11
-32.66
-38.27
-40.38
-38.17
-31.85
-22.55
-12.06
-2.44
4.47
7.54
6.70
3.08
-1.31
-4.23
-4.12
-0.66
5.09
11.24
15.89
17.99
17.55
15.52
13.08
11.09
9.79
8.81
7.48
5.21
1.78
-2.58
-7.20
-11.14
-13.54
-13.92
-12.40
-9.66
-6.58
-3.82
-1.57
0.43
2.56
4.89
7.00
8.20
7.91
6.10
3.33
0.48
-1.71
-2.95
-3.41
-3.41
-3.16
-2.70
-2.00
-1.27
-0.93
-1.43
-2.91
-5.08
-7.24
-8.59
-8.52
-6.66
-2.81
3.25
11.75
22.60
35.06
47.54
57.76
63.40
62.90
55.98
43.93
29.23
14.92
3.79
-2.29
-2.88
1.01
7.16
12.72
15.05
12.43
4.49
-7.91
-23.05
-39.03
-54.06
-66.59
-75.19
-78.64
-76.14
-67.90
-55.42
-41.34
-28.63
-19.50
-14.63
-13.06
-12.84
-12.12
-9.94
-6.50
-2.84
-0.12
0.94
0.31
-1.48
-3.68
-5.66
-7.05
-7.75
-7.76
-7.19
-6.24
-5.31
-5.07
-6.31
-9.65
-15.12
-21.95
-28.67
-33.51
-35.05
-32.66
-26.82
-18.86
-10.50
-3.43
1.20
2.89
1.86
-1.11
-4.88
-8.17
-9.89
-9.33
-6.48
-1.96
3.08
7.35
9.76
9.78
7.52
3.62
-1.04
-5.61
-9.52
-12.43
-14.10
-14.30
-12.80
-9.52
-4.71
0.98
6.63
11.34
14.49
15.90
15.84
14.79
13.25
11.65
10.27
9.33
8.94
9.11
9.61
10.06
9.99
9.09
7.28
4.69
1.56
-2.05
-6.31
-11.48
-17.55
-23.83
-28.92
-31.01
-28.66
-21.43
-10.35
2.44
14.35
23.27
28.15
29.09
27.11
23.69
20.52
19.32
21.56
27.99
37.92
48.94
57.36
59.49
53.21
39.10
20.25
0.94
-15.32
-27.17
-35.44
-42.02
-48.19
-53.61
-56.38
-54.39
-46.64
-34.14
-19.44
-5.57
5.35
12.81
17.76
21.77
26.07
30.85
35.36
38.44
39.29
38.04
35.67
33.57
32.79
33.46
34.68
34.94
32.76
27.39
18.98
8.39
-3.23
-14.78
-25.31
-33.91
-39.60
-41.42
-38.71
-31.47
-20.49
-7.19
6.79
19.95
31.21
39.83
45.32
47.33
45.75
40.84
33.38
24.56
15.69
7.82
1.47
-3.44
-7.31
-10.65
-13.82
-16.91
-19.93
-22.91
-26.03
-29.41
-32.97
-36.19
-38.18
-38.00
-34.98
-29.13
-21.18
-12.30
-3.76
3.43
8.81
12.41
14.60
15.91
16.84
17.78
18.98
20.57
22.57
24.95
27.60
30.33
32.81
34.60
35.12
33.82
30.28
24.36
16.28
6.63
-3.66
-13.34
-21.08
-25.66
-26.28
-22.82
-15.88
-6.67
3.21
12.19
19.00
22.92
23.88
22.36
19.20
15.35
11.66
8.69
6.68
5.62
5.25
5.24
5.16
4.60
3.25
0.93
-2.44
-6.85
-12.18
-18.16
-24.29
-29.72
-33.37
-34.22
-31.66
-25.83
-17.59
-8.31
0.53
7.80
12.86
15.68
16.53
15.88
14.13
11.62
8.60
5.23
1.64
-2.11
-5.97
-9.88
-13.68
-17.10
-19.82
-21.61
-22.50
-22.82
-23.12
-23.87
-25.13
-26.42
-26.85
-25.58
-22.17
-16.84
-10.39
-3.78
2.11
6.73
9.84
11.36
11.32
9.86
7.37
4.50
2.06
0.80
1.12
2.92
5.69
8.70
11.28
13.09
14.11
14.55
14.56
14.03
12.51
9.53
4.99
-0.47
-5.44
-8.09
-6.85
-1.17
8.28
19.77
31.15
40.65
47.39
51.39
53.24
53.51
52.25
48.90
42.57
32.66
19.39
4.09
-11.00
-23.65
-32.29
-36.75
-38.17
-38.43
-39.19
-41.39
-45.42
-51.46
-59.49
-68.64
-76.49
-79.32
-73.86
-59.77
-41.07
-25.22
-19.84
-28.92
-50.57
-77.93
-102.70
-119.14
-126.24
-127.16
-126.47
-127.16
-129.11
-129.33
-123.88
-109.66
-85.68
-53.62
-17.09
19.46
52.15
78.51
97.64
109.66
114.87
113.62
106.70
96.07
84.92
76.90
74.73
78.98
87.81
97.70
104.99
107.14
103.47
95.02
83.98
72.68
62.86
55.23
49.42
44.36
39.05
33.18
27.46
23.22
21.69
23.06
26.03
28.14
26.66
19.75
7.25
-8.97
-25.47
-38.16
-43.52
-39.47
-25.93
-4.54
21.98
50.59
78.59
103.72
124.08
138.08
144.44
142.55
132.73
116.35
95.48
72.51
49.62
28.44
10.10
-4.81
-16.09
-24.05
-29.43
-33.32
-36.97
-41.57
-47.98
-56.60
-67.04
-77.99
-87.16
-91.79
-89.71
-80.67
-67.33
-55.03
-50.31
-58.30
-80.59
-114.13
-152.16
-186.22
-208.80
-215.16
-203.85
-176.24
-135.43
-85.66
-31.83
20.52
65.47
97.55
112.87
110.33
92.17
63.71
32.01
3.95
-15.66
-25.20
-26.16
-22.03
-16.72
-13.26
-13.16
-16.67
-23.35
-32.49
-43.27
-54.40
-63.88
-69.29
-68.52
-60.68
-46.74
-29.29
-11.65
3.14
13.49
19.52
22.64
24.92
28.16
33.22
39.68
45.92
49.79
49.62
45.15
37.81
30.17
24.87
23.55
26.43
32.72
41.21
50.61
59.31
65.24
66.10
60.44
48.68
33.35
17.97
5.17
-4.63
-12.98
-21.53
-29.91
-35.10
-32.64
-19.26
4.85
35.60
66.40
90.72
104.32
106.03
97.40
81.55
62.13
42.40
24.68
10.08
-1.58
-11.36
-20.60
-30.18
-40.04
-49.29
-56.69
-61.12
-61.94
-58.86
-51.80
-40.98
-27.13
-11.80
2.81
14.53
22.22
26.53
29.74
34.69
43.32
55.69
70.01
83.76
95.09
103.75
110.88
118.01
125.95
134.24
141.61
146.72
148.92
148.28
145.12
139.38
130.45
117.45
99.98
78.78
55.77
33.72
15.41
2.88
-3.08
-3.11
1.11
7.29
13.11
16.56
16.10
10.76
0.24
-14.89
-33.07
-51.72
-67.76
-78.33
-81.62
-77.36
-66.78
-51.98
-34.97
-17.18
0.75
18.54
35.79
51.56
64.50
73.20
76.82
75.45
70.18
62.71
54.68
47.16
40.28
33.59
26.59
19.52
13.61
10.65
12.03
17.90
26.98
37.44
47.98
58.67
70.60
84.71
100.54
115.78
126.94
130.93
126.40
114.49
98.34
82.06
69.41
62.90
63.20
69.20
78.37
87.55
93.87
95.61
92.49
85.36
75.51
64.00
51.53
38.59
25.90
14.42
5.05
-1.81
-7.13
-12.34
-18.58
-26.17
-34.71
-43.26
-50.73
-56.43
-60.58
-65.09
-72.63
-85.60
-105.18
-130.75
-159.64
-187.66
-210.25
-224.11
-229.60
-228.94
-224.62
-218.46
-211.78
-205.47
-200.13
-195.96
-192.64
-192.75
-196.87
-202.59
-206.60
-207.96
-208.54
-210.74
-215.05
-219.23
-226.90
-239.10
-252.45
-261.66
-264.25
-261.33
-255.13
-247.25
-238.54
-241.74
-264.88
-305.24
-352.17
-396.22
-433.42
-463.69
-488.28
-508.38
-539.95
-591.90
-658.61
-725.40
-780.43
-820.05
-845.92
-861.26
-772.56
-543.98
-221.76
101.58
360.87
541.29
656.17
725.63
766.77
791.27
790.75
760.52
708.83
651.23
600.93
563.06
537.28
520.81
510.19
490.54
453.23
402.19
347.34
297.43
255.58
220.70
189.65
158.47
115.38
50.89
-19.13
-79.85
-122.06
-144.41
-148.12
-133.24
-99.68
-53.62
-3.66
42.48
77.30
97.31
103.35
100.19
93.73
88.27
83.96
79.64
75.10
69.65
63.78
58.38
54.32
51.94
51.01
50.84
51.02
51.54
51.41
50.27
48.24
45.98
44.11
43.00
42.92
44.53
49.10
57.30
68.80
81.42
91.26
93.74
86.14
69.07
46.87
25.94
11.70
6.45
8.71
14.61
19.48
20.50
16.94
9.39
-1.32
-14.58
-29.65
-45.13
-58.57
-67.99
-71.66
-69.08
-61.53
-51.45
-41.34
-32.77
-26.02
-20.48
-16.25
-13.46
-13.00
-16.50
-25.82
-42.55
-67.67
-101.15
-134.96
-164.21
-182.99
-185.50
-168.61
-134.11
-88.97
-43.06
-5.38
19.26
30.39
32.03
29.21
25.32
21.20
16.21
9.92
3.03
-2.78
-6.65
-8.42
-9.07
-10.28
-13.63
-19.51
-26.95
-34.13
-39.10
-40.94
-39.50
-35.51
-30.26
-24.92
-20.41
-16.20
-11.45
-5.45
1.99
10.50
19.17
26.84
32.47
35.54
36.20
34.95
32.51
29.70
26.99
24.49
21.98
19.09
15.55
11.34
6.61
1.65
-2.86
-6.46
-9.01
-10.71
-11.89
-12.96
-14.18
-15.70
-17.54
-19.03
-19.49
-18.03
-13.74
-5.93
5.34
19.19
34.10
45.01
48.86
44.38
32.39
15.25
-4.08
-22.98
-39.56
-52.47
-60.64
-62.56
-57.31
-45.13
-27.74
-8.06
10.63
25.64
35.55
40.14
40.56
38.30
34.81
31.40
29.09
28.56
30.02
33.12
37.09
41.31
45.35
49.27
53.46
58.26
63.57
68.46
71.23
69.79
62.47
48.62
29.07
6.14
-16.94
-36.96
-51.86
-61.35
-66.92
-70.97
-75.62
-81.51
-87.44
-90.85
-89.09
-80.82
-66.77
-49.52
-32.49
-18.52
-8.88
-3.05
0.76
4.62
10.09
17.65
26.68
35.53
41.85
43.00
36.82
22.63
2.02
-21.01
-41.16
-53.66
-56.31
-50.30
-39.63
-29.07
-21.97
-18.86
-17.71
-15.43
-9.80
-0.68
10.06
19.59
25.74
28.02
27.63
26.72
27.17
29.89
34.58
40.35
46.43
52.67
59.35
66.63
73.84
79.31
80.87
76.89
67.25
53.75
39.66
28.44
22.47
22.09
25.56
29.91
32.15
30.47
24.64
15.89
6.15
-2.79
-9.82
-14.87
-18.91
-23.74
-31.52
-44.02
-61.71
-82.95
-103.88
-119.22
-123.88
-114.73
-91.88
-58.74
-21.05
14.81
43.53
61.82
68.81
65.66
55.01
40.35
25.33
13.05
5.35
2.35
2.51
3.33
2.27
-2.24
-10.50
-21.82
-35.10
-49.32
-63.60
-76.80
-87.29
-93.04
-92.23
-84.00
-68.85
-48.56
-25.72
-3.03
17.20
33.37
44.72
51.49
54.96
57.10
59.97
64.93
72.02
79.92
86.57
90.03
89.23
84.26
76.05
65.81
54.56
42.84
30.84
18.52
5.83
-7.26
-20.91
-35.35
-50.80
-66.99
-82.81
-96.17
-104.46
-105.34
-97.70
-82.07
-60.27
-34.61
-6.99
21.36
49.51
76.05
98.58
113.84
118.82
111.99
94.41
69.81
43.86
22.53
10.36
9.18
17.64
31.88
46.84
57.96
62.39
59.43
50.15
36.59
20.89
4.83
-10.22
-23.13
-32.93
-38.86
-40.69
-38.84
-34.36
-28.53
-22.33
-16.02
-9.10
-0.72
9.76
22.08
34.95
46.45
54.70
58.67
58.41
54.78
48.85
41.21
31.92
20.79
7.97
-5.64
-18.49
-28.75
-35.01
-36.67
-34.19
-28.81
-22.38
-17.04
-14.93
-17.80
-26.55
-40.63
-57.82
-74.51
-86.66
-90.99
-86.22
-73.45
-55.73
-36.85
-19.93
-6.50
3.65
11.81
19.36
26.99
34.54
41.35
46.88
51.14
54.78
58.70
63.58
69.33
74.82
78.08
76.79
69.15
54.71
34.89
12.82
-7.41
-21.98
-28.60
-27.26
-20.29
-11.49
-4.86
-3.11
-6.79
-14.20
-22.16
-27.24
-27.02
-20.69
-8.95
6.56
23.92
41.25
56.79
68.82
75.93
77.34
73.36
65.25
54.85
43.97
33.99
25.74
19.68
15.99
14.61
15.05
16.37
17.30
16.55
13.07
6.23
-4.17
-17.77
-33.49
-49.32
-62.48
-70.05
-69.96
-61.92
-47.79
-30.94
-15.00
-2.52
5.87
11.36
16.12
22.15
30.40
40.62
51.64
62.03
70.69
76.99
80.79
82.13
81.15
77.97
72.78
65.86
57.65
48.71
39.70
31.35
24.49
19.99
18.66
21.02
26.91
35.11
43.27
48.25
47.06
37.95
21.23
-0.46
-22.84
-41.21
-51.92
-53.34
-46.16
-32.92
-17.22
-2.71
7.58
11.79
9.31
0.68
-12.56
-28.25
-43.98
-57.34
-66.33
-69.64
-66.95
-59.04
-47.77
-35.58
-24.84
-17.21
-13.16
-11.97
-12.13
-12.07
-10.78
-8.02
-4.26
-0.20
3.56
6.73
9.16
10.57
10.42
8.03
2.92
-4.77
-14.06
-23.19
-30.04
-32.73
-30.14
-22.33
-10.51
3.40
17.28
29.36
38.55
44.41
46.88
46.10
42.30
35.92
27.66
18.43
9.09
0.26
-7.73
-14.65
-20.12
-23.50
-24.08
-21.39
-15.56
-7.36
1.97
11.03
18.71
24.38
28.00
30.19
32.07
35.10
40.71
49.76
61.89
75.08
85.63
88.91
80.81
59.43
26.33
-13.34
-52.07
-82.24
-98.43
-99.03
-86.38
-65.57
-42.56
-22.38
-8.01
-0.24
1.79
-0.36
-5.17
-11.63
-19.35
-28.18
-37.91
-47.81
-56.66
-62.99
-65.58
-63.90
-58.28
-49.81
-39.88
-29.85
-20.72
-13.17
-7.48
-3.50
-0.54
2.51
6.84
13.10
20.86
28.60
34.16
35.62
32.18
24.44
14.14
3.51
-5.35
-10.75
-11.51
-6.97
2.80
16.63
32.06
45.70
54.09
54.77
47.21
32.89
14.72
-4.06
-20.95
-34.74
-45.47
-53.83
-60.55
-65.95
-69.81
-71.57
-70.62
-66.52
-59.29
-49.34
-37.45
-24.56
-11.47
1.23
13.21
24.27
34.09
42.15
47.79
50.53
50.21
47.21
42.32
36.50
30.63
25.31
20.89
17.54
15.36
14.47
14.86
16.31
18.30
20.04
20.65
19.44
16.08
10.67
3.75
-3.91
-11.47
-18.18
-23.57
-27.53
-30.34
-32.61
-35.08
-38.38
-42.70
-47.67
-52.34
-55.37
-55.48
-51.81
-44.25
-33.49
-20.85
-7.81
4.34
14.86
23.60
30.76
36.61
41.29
44.69
46.65
47.05
46.02
43.88
41.04
37.87
34.61
31.34
28.14
25.04
22.16
19.60
17.37
15.44
13.66
11.81
9.69
7.10
3.93
0.16
-4.10
-8.57
-12.95
-16.91
-20.29
-23.14
-25.77
-28.64
-32.22
-36.78
-42.30
-48.27
-53.77
-57.56
-58.48
-55.74
-49.26
-39.68
-28.19
-16.15
-4.64
5.69
14.63
22.22
28.50
33.35
36.59
38.08
37.87
36.24
33.63
30.48
27.14
23.81
20.57
17.47
14.60
12.03
9.89
8.22
6.96
5.91
4.77
3.20
0.90
-2.24
-6.12
-10.44
-14.80
-18.81
-22.31
-25.31
-28.02
-30.77
-33.91
-37.73
-42.28
-47.29
-52.02
-55.35
-56.05
-53.16
-46.36
-36.21
-23.93
-11.03
1.19
11.98
21.10
28.69
34.87
39.61
42.67
43.85
43.21
41.12
38.27
35.35
32.79
30.61
28.48
25.93
22.70
18.85
14.85
11.25
8.44
6.45
4.88
3.13
0.64
-2.86
-7.21
-11.95
-16.49
-20.31
-23.16
-25.09
-26.40
-27.64
-29.39
-32.18
-36.34
-41.77
-47.90
-53.66
-57.65
-58.54
-55.45
-48.31
-37.89
-25.54
-12.71
-0.55
10.33
19.76
27.74
34.23
39.03
41.89
42.74
41.83
39.71
37.06
34.44
32.15
30.17
28.24
26.11
23.60
20.75
17.71
14.71
11.87
9.13
6.28
3.03
-0.81
-5.21
-9.93
-14.58
-18.78
-22.29
-25.14
-27.51
-29.66
-31.88
-34.40
-37.47
-41.31
-46.05
-51.43
-56.66
-60.47
-61.38
-58.27
-50.83
-39.71
-26.34
-12.37
0.80
12.36
22.02
29.80
35.76
39.82
41.89
42.04
40.58
38.10
35.25
32.53
30.23
28.33
26.66
25.03
23.36
21.67
20.03
18.46
16.91
15.23
13.23
10.77
7.78
4.31
0.53
-3.31
-6.89
-9.99
-12.52
-14.60
-16.51
-18.58
-21.08
-24.16
-27.81
-31.76
-35.54
-38.38
-39.39
-37.74
-32.91
-24.98
-14.56
-2.75
9.24
20.29
29.64
36.86
41.77
44.43
45.02
43.80
41.16
37.58
33.56
29.64
26.23
23.54
21.45
19.64
17.65
15.17
12.11
8.69
5.27
2.17
-0.50
-2.88
-5.30
-8.09
-11.40
-15.19
-19.21
-23.14
-26.68
-29.72
-32.31
-34.73
-37.31
-40.35
-44.01
-48.14
-52.26
-55.49
-56.79
-55.17
-50.03
-41.45
-30.14
-17.32
-4.33
7.68
17.91
25.89
31.44
34.53
35.34
34.25
31.90
29.08
26.48
24.57
23.43
22.86
22.46
21.83
20.74
19.17
17.32
15.45
13.75
12.23
10.71
8.86
6.40
3.28
-0.31
-3.95
-7.24
-9.88
-11.86
-13.45
-15.10
-17.31
-20.49
-24.82
-29.99
-35.27
-39.55
-41.63
-40.58
-36.07
-28.45
-18.67
-7.99
2.37
11.42
18.52
23.43
26.19
27.05
26.41
24.74
22.52
20.21
18.15
16.53
15.35
14.44
13.53
12.31
10.62
8.43
5.89
3.16
0.35
-2.54
-5.57
-8.82
-12.25
-15.78
-19.23
-22.43
-25.28
-27.78
-30.08
-32.48
-35.27
-38.61
-42.28
-45.58
-47.44
-46.74
-42.72
-35.28
-25.11
-13.44
-1.67
8.98
17.75
24.33
28.74
31.19
31.99
31.49
30.15
28.43
26.70
25.19
23.90
22.69
21.36
19.77
17.85
15.62
13.12
10.34
7.25
3.85
0.15
-3.69
-7.49
-10.98
-13.97
-16.40
-18.36
-20.12
-22.05
-24.51
-27.70
-31.57
-35.68
-39.20
-41.12
-40.44
-36.52
-29.39
-19.78
-8.95
1.73
11.16
18.79
24.55
28.64
31.24
32.45
32.30
30.93
28.71
26.18
23.81
21.88
20.37
19.07
17.75
16.31
14.82
13.46
12.35
11.50
10.80
9.99
8.79
7.02
4.62
1.68
-1.58
-4.92
-8.17
-11.29
-14.37
-17.69
-21.45
-25.68
-29.98
-33.56
-35.32
-34.22
-29.70
-21.92
-11.78
-0.68
9.92
18.83
25.35
29.22
30.53
29.59
26.90
23.10
18.97
15.25
12.44
10.74
9.96
9.64
9.28
8.44
6.90
4.67
1.93
-1.03
-3.92
-6.54
-8.81
-10.81
-12.70
-14.70
-16.95
-19.48
-22.18
-24.96
-27.79
-30.75
-33.89
-36.95
-39.26
-39.74
-37.28
-31.22
-21.74
-9.92
2.53
13.91
22.94
29.10
32.48
33.53
32.77
30.61
27.43
23.62
19.66
16.04
13.17
11.19
9.98
9.19
8.33
7.01
5.04
2.52
-0.25
-2.84
-4.93
-6.38
-7.28
-7.98
-8.87
-10.31
-12.55
-15.69
-19.70
-24.33
-29.06
-33.05
-35.25
-34.65
-30.65
-23.35
-13.58
-2.74
7.68
16.51
23.09
27.30
29.31
29.36
27.67
24.45
20.11
15.22
10.53
6.73
4.19
2.91
2.44
2.17
1.52
0.21
-1.72
-4.02
-6.37
-8.54
-10.49
-12.32
-14.20
-16.22
-18.45
-20.88
-23.55
-26.45
-29.32
-31.61
-32.44
-30.85
-26.11
-18.07
-7.33
4.89
17.10
28.05
36.84
43.01
46.42
47.23
45.87
42.97
39.33
35.63
32.60
30.50
29.14
28.00
26.65
24.95
23.09
21.39
19.94
18.92
18.10
16.92
14.71
11.13
6.41
1.39
-2.64
-4.28
-1.79
5.81
18.12
33.15
47.88
59.18
64.96
64.83
57.32
43.66
27.17
11.98
0.95
-5.32
-7.88
-8.08
-6.75
-4.34
-0.63
4.19
9.35
13.82
16.95
18.82
20.18
22.06
24.90
29.11
34.35
39.59
43.40
44.68
43.05
38.87
32.94
25.74
17.56
8.19
-3.15
-17.36
-34.86
-55.27
-77.31
-97.35
-114.08
-126.81
-135.70
-141.63
-145.74
-148.93
-151.86
-155.02
-158.91
-163.89
-168.91
-171.33
-167.61
-154.69
-131.72
-100.93
-66.97
-34.89
-8.37
11.78
26.86
38.49
47.09
52.21
52.88
49.15
42.67
36.09
31.99
31.45
33.60
36.35
37.61
36.40
33.48
30.79
30.43
33.54
39.74
47.14
53.20
55.83
54.16
48.81
41.33
33.35
25.95
19.37
13.35
7.50
1.79
-3.47
-7.81
-10.99
-13.13
-14.72
-16.27
-18.13
-20.37
-22.85
-25.37
-27.83
-30.25
-32.66
-35.37
-38.22
-40.88
-42.99
-44.38
-45.13
-45.57
-46.16
-47.44
-49.85
-53.52
-58.17
-62.82
-65.93
-65.70
-60.74
-50.62
-36.20
-19.37
-2.38
12.87
25.22
34.36
40.55
44.17
45.58
45.08
43.04
39.98
36.49
33.09
30.12
27.69
25.85
24.64
24.20
24.63
25.93
27.77
29.57
30.54
29.93
27.30
22.64
16.46
9.61
3.15
-1.96
-5.12
-6.24
-5.87
-5.11
-5.36
-7.79
-12.84
-19.78
-26.84
-31.62
-32.04
-27.13
-17.41
-4.72
8.54
20.20
28.86
33.95
35.53
34.02
30.05
24.64
19.21
15.43
14.73
17.70
23.71
30.99
37.32
41.02
41.80
41.07
41.36
45.14
53.60
65.88
79.19
89.92
94.97
92.81
83.74
69.36
51.63
32.18
12.12
-7.68
-26.10
-41.63
-52.57
-57.48
-55.73
-47.74
-34.96
-19.51
-3.80
9.85
19.58
24.29
23.71
18.47
9.87
-0.36
-10.49
-19.08
-25.25
-28.89
-30.63
-31.57
-32.71
-34.44
-36.23
-36.75
-34.55
-28.75
-19.49
-7.89
4.21
14.69
21.45
22.43
15.90
1.05
-21.34
-48.39
-75.36
-96.95
-108.92
-109.56
-100.04
-83.58
-64.03
-44.38
-26.06
-9.24
6.45
21.18
34.61
46.05
54.88
60.90
64.35
65.60
64.91
62.35
58.07
52.59
47.04
42.97
41.73
43.77
48.07
52.31
53.58
49.59
39.66
25.14
8.87
-5.91
-16.75
-22.80
-24.83
-24.67
-24.40
-25.66
-29.34
-35.63
-44.22
-54.43
-65.17
-74.87
-81.81
-84.59
-82.80
-77.39
-70.29
-63.59
-58.47
-54.58
-50.29
-43.65
-33.56
-20.50
-6.32
6.64
16.55
22.71
25.54
26.01
25.03
23.18
20.54
16.80
11.45
4.11
-4.87
-14.04
-20.81
-22.23
-16.28
-3.14
14.43
32.01
45.26
51.75
51.60
46.94
40.39
33.69
27.25
20.66
13.66
6.74
1.10
-2.06
-2.15
0.67
5.71
12.20
19.54
27.24
34.60
40.63
44.22
44.58
41.70
36.54
30.78
26.30
24.46
25.63
29.12
33.47
36.99
38.37
36.93
32.70
26.21
18.18
9.39
0.61
-7.36
-13.73
-17.75
-18.86
-16.83
-11.81
-4.37
4.56
13.87
22.41
29.27
34.13
37.38
40.16
43.84
49.47
57.09
65.46
72.26
74.72
70.49
58.36
38.84
14.10
-12.42
-36.91
-56.13
-68.22
-73.12
-72.34
-68.37
-63.81
-60.76
-60.44
-63.29
-69.09
-77.07
-85.97
-93.96
-98.94
-99.01
-93.12
-81.46
-65.49
-47.48
-29.77
-14.12
