1660928656.00
64.000000
-0.00
-0.00
-0.00
-0.00
-0.00
-0.00
-0.00
-0.00
-0.00
-0.00
0.00
0.01
0.01
-0.00
-0.03
-0.05
-0.05
0.00
0.13
0.36
0.66
1.01
1.37
1.72
2.06
2.40
2.79
3.25
3.81
4.44
5.09
5.73
6.32
6.90
7.53
8.27
9.15
10.26
11.48
12.70
13.80
14.75
15.63
16.65
18.00
19.83
22.33
25.27
28.36
31.33
34.05
36.66
39.50
43.01
47.48
53.22
59.82
66.73
73.41
79.63
85.59
91.87
99.20
107.99
118.61
130.37
142.41
153.91
164.56
174.71
185.22
197.47
209.93
224.50
241.38
260.49
280.74
299.65
313.43
317.88
309.70
287.67
253.53
210.49
162.54
113.04
64.08
16.62
-28.92
-72.15
-112.66
-150.03
-184.91
-218.62
-252.85
-288.74
-325.89
-361.90
-392.61
-413.46
-421.00
-414.40
-395.85
-369.64
-340.49
-311.93
-285.49
-261.07
-237.93
-215.59
-194.32
-174.77
-157.38
-141.94
-127.71
-113.84
-99.85
-85.83
-72.33
-60.07
-49.55
-40.81
-33.43
-26.77
-20.26
-13.64
-7.04
-0.85
4.49
8.70
11.81
14.10
16.01
17.90
19.91
21.98
23.86
25.27
26.02
26.09
25.70
25.15
24.75
24.70
24.93
25.22
25.30
24.99
24.28
23.34
22.37
21.51
20.75
20.02
19.22
18.35
17.48
16.74
16.20
15.85
15.62
15.43
15.25
15.04
14.80
14.52
14.19
13.82
13.40
12.93
12.42
11.87
11.34
10.90
10.60
10.44
10.36
10.24
10.00
9.62
9.20
8.86
8.72
8.75
8.86
8.87
8.69
8.31
7.81
7.31
6.88
6.55
6.30
6.10
5.94
5.83
5.74
5.64
5.47
5.20
4.82
4.35
3.85
3.35
2.85
2.37
1.90
1.45
1.03
0.66
0.31
-0.05
-0.46
-0.93
-1.47
-2.08
-2.73
-3.43
-4.13
-4.79
-5.37
-5.84
-6.22
-6.57
-6.94
-7.38
-7.88
-8.35
-8.68
-8.76
-8.58
-8.18
-7.65
-7.12
-6.69
-6.39
-6.22
-6.12
-6.02
-5.85
-5.55
-5.10
-4.52
-3.89
-3.28
-2.76
-2.34
-1.99
-1.66
-1.31
-0.95
-0.59
-0.26
0.07
0.44
0.87
1.33
1.77
2.10
2.27
2.31
2.28
2.27
2.34
2.50
2.72
2.94
3.12
3.25
3.36
3.51
3.73
4.04
4.38
4.66
4.81
4.79
4.66
4.50
4.40
4.38
4.37
4.29
4.12
3.91
3.76
3.78
3.97
4.26
4.50
4.60
4.52
4.33
4.10
3.91
3.74
3.59
3.42
3.28
3.21
3.25
3.35
3.42
3.36
3.15
2.86
2.60
2.50
2.57
2.75
2.93
3.00
2.93
2.74
2.50
2.25
2.03
1.80
1.54
1.25
0.97
0.78
0.75
0.90
1.15
1.37
1.40
1.17
0.72
0.24
-0.07
-0.06
0.27
0.82
1.42
1.92
2.26
2.43
2.46
2.38
2.22
2.04
1.91
1.89
2.00
2.19
2.37
2.40
2.24
1.90
1.48
1.13
0.93
0.89
0.95
1.02
1.01
0.94
0.84
0.80
0.85
0.94
0.97
0.90
0.71
0.50
0.39
0.46
0.70
1.00
1.24
1.34
1.29
1.15
1.03
0.96
0.96
0.97
0.96
0.90
0.82
0.75
0.73
0.78
0.87
0.94
0.92
0.76
0.48
0.14
-0.13
-0.26
-0.20
-0.02
0.21
0.44
0.64
0.84
1.06
1.28
1.46
1.51
1.41
1.22
1.02
0.92
0.93
1.01
1.07
1.00
0.77
0.44
0.12
-0.10
-0.15
-0.05
0.14
0.37
0.58
0.75
0.88
0.98
1.04
1.02
0.90
0.66
0.29
-0.14
-0.55
-0.83
-0.89
-0.75
-0.49
-0.23
-0.06
-0.00
0.02
0.08
0.24
0.47
0.71
0.85
0.87
0.79
0.69
0.63
0.65
0.73
0.84
0.93
0.95
0.88
0.74
0.58
0.47
0.47
0.58
0.75
0.86
0.86
0.76
0.63
0.55
0.54
0.59
0.62
0.61
0.60
0.63
0.72
0.82
0.88
0.83
0.69
0.48
0.27
0.05
-0.20
-0.45
-0.66
-0.75
-0.68
-0.45
-0.14
0.13
0.28
0.30
0.21
0.06
-0.12
-0.27
-0.34
-0.29
-0.11
0.17
0.47
0.69
0.74
0.62
0.35
0.02
-0.25
-0.37
-0.33
-0.15
0.05
0.18
0.18
0.08
-0.05
-0.08
0.03
0.25
0.51
0.71
0.78
0.73
0.60
0.45
0.32
0.21
0.13
0.07
0.04
0.07
0.15
0.28
0.43
0.56
0.60
0.53
0.37
0.15
-0.03
-0.08
0.05
0.32
0.66
0.92
0.98
0.81
0.45
0.07
-0.21
-0.29
-0.22
-0.09
0.01
0.05
0.09
0.22
0.48
0.81
1.09
1.20
1.12
0.91
0.66
0.44
0.22
-0.07
-0.46
-0.91
-1.28
-1.42
-1.24
-0.80
-0.26
0.19
0.44
0.51
0.48
0.43
0.43
0.43
0.38
0.25
0.07
-0.07
-0.08
0.10
0.41
0.77
1.05
1.17
1.14
0.99
0.81
0.64
0.48
0.31
0.09
-0.17
-0.45
-0.65
-0.72
-0.60
-0.34
0.00
0.35
0.60
0.69
0.60
0.34
-0.01
-0.36
-0.60
-0.67
-0.57
-0.37
-0.14
-0.01
0.00
-0.11
-0.27
-0.40
-0.40
-0.26
-0.01
0.24
0.37
0.33
0.14
-0.08
-0.19
-0.11
0.14
0.44
0.69
0.82
0.81
0.70
0.50
0.20
-0.17
-0.52
-0.73
-0.68
-0.37
0.09
0.50
0.71
0.66
0.44
0.18
-0.03
-0.13
-0.17
-0.17
-0.15
-0.09
-0.01
0.08
0.13
0.10
-0.01
-0.16
-0.30
-0.39
-0.41
-0.33
-0.18
0.03
0.24
0.34
0.28
0.03
-0.33
-0.66
-0.85
-0.85
-0.69
-0.50
-0.35
-0.30
-0.33
-0.40
-0.49
-0.60
-0.77
-0.99
-1.23
-1.41
-1.46
-1.32
-1.00
-0.55
-0.08
0.32
0.54
0.57
0.44
0.26
0.15
0.19
0.35
0.57
0.71
0.69
0.48
0.14
-0.23
-0.54
-0.74
-0.84
-0.85
-0.76
-0.57
-0.26
0.16
0.58
0.88
0.92
0.64
0.10
-0.55
-1.15
-1.55
-1.68
-1.54
-1.18
-0.62
0.07
0.80
1.46
1.93
2.12
2.04
1.77
1.43
1.10
0.81
0.49
0.09
-0.43
-1.04
-1.64
-2.09
-2.30
-2.20
-1.81
-1.19
-0.46
0.27
0.87
1.24
1.33
1.12
0.60
-0.26
-1.42
-2.86
-4.44
-5.97
-7.22
-8.03
-8.35
-8.30
-8.15
-8.17
-8.56
-9.34
-10.29
-11.11
-11.52
-11.48
-11.24
-11.29
-12.11
-13.94
-16.64
-19.63
-22.22
-23.88
-24.53
-24.62
-24.91
-26.13
-28.57
-31.96
-35.55
-38.46
-40.04
-40.09
-38.94
-37.22
-35.61
-34.73
-35.02
-36.65
-39.16
-41.14
-40.36
-34.34
-21.51
-2.26
20.74
43.33
61.40
72.48
76.50
75.40
71.83
67.84
64.26
60.91
57.32
53.46
49.85
47.27
46.21
46.57
47.69
48.66
48.72
47.56
45.41
42.90
40.78
39.62
39.65
40.72
42.38
44.11
45.34
45.52
43.97
39.99
33.01
22.98
10.64
-2.51
-14.61
-23.98
-29.75
-31.98
-31.56
-29.66
-27.30
-25.10
-23.25
-21.75
-20.57
-19.73
-19.25
-19.02
-18.85
-18.47
-17.67
-16.43
-14.92
-13.48
-12.49
-12.15
-12.45
-13.10
-13.72
-13.92
-13.55
-12.72
-11.74
-10.96
-10.63
-10.73
-11.05
-11.27
-11.09
-10.43
-9.44
-8.42
-7.68
-7.43
-7.67
-8.26
-9.00
-9.73
-10.43
-11.15
-11.94
-12.77
-13.54
-14.17
-14.70
-15.34
-16.49
-18.61
-22.04
-26.92
-33.06
-40.06
-47.31
-54.20
-60.23
-65.09
-68.82
-71.77
-74.54
-77.80
-82.02
-87.31
-93.40
-99.69
-105.58
-110.66
-114.95
-118.94
-123.61
-130.26
-140.11
-153.63
-169.85
-185.98
-197.78
-200.70
-191.35
-168.51
-133.42
-89.08
-39.27
12.30
62.22
107.37
144.91
172.60
189.45
196.15
194.99
189.08
181.34
173.70
167.05
161.46
156.69
152.46
148.52
144.58
140.31
135.57
130.65
126.38
123.94
124.57
128.95
136.90
147.27
158.33
168.40
176.43
182.32
186.81
191.02
195.86
201.79
208.80
216.61
224.74
232.27
237.54
238.18
231.51
215.49
189.48
154.53
112.74
66.28
16.78
-34.50
-85.79
-134.09
-175.25
-205.17
-221.49
-224.67
-217.90
-205.72
-192.20
-179.70
-168.68
-158.46
-148.33
-138.17
-128.47
-119.84
-112.43
-105.84
-99.32
-92.24
-84.40
-76.14
-68.19
-61.28
-55.80
-51.66
-48.36
-45.22
-41.71
-37.64
-33.22
-28.93
-25.21
-22.33
-20.25
-18.72
-17.44
-16.17
-14.85
-13.55
-12.37
-11.32
-10.38
-9.46
-8.48
-7.42
-6.35
-5.37
-4.64
-4.27
-4.35
-4.88
-5.76
-6.80
-7.71
-8.23
-8.15
-7.39
-6.01
-4.15
-2.00
0.27
2.52
4.59
6.33
7.59
8.24
8.27
7.75
6.85
5.82
4.83
3.97
3.23
2.56
1.89
1.25
0.70
0.29
0.08
0.01
0.03
0.01
-0.13
-0.41
-0.83
-1.30
-1.72
-2.00
-2.08
-1.96
-1.68
-1.30
-0.91
-0.62
-0.50
-0.62
-0.97
-1.44
-1.82
-1.88
-1.43
-0.48
0.80
2.13
3.20
3.80
3.85
3.39
2.56
1.58
0.70
0.13
-0.00
0.29
0.84
1.39
1.68
1.56
1.02
0.21
-0.66
-1.35
-1.71
-1.71
-1.43
-1.04
-0.74
-0.68
-0.88
-1.26
-1.66
-1.93
-1.96
-1.74
-1.28
-0.66
0.06
0.79
1.42
1.83
1.90
1.59
0.93
0.04
-0.91
-1.71
-2.22
-2.38
-2.19
-1.73
-1.08
-0.36
0.34
0.95
1.42
1.70
1.76
1.63
1.37
1.04
0.71
0.39
0.09
-0.19
-0.41
-0.51
-0.49
-0.35
-0.18
-0.07
-0.05
-0.09
-0.08
0.08
0.43
0.93
1.44
1.82
2.00
1.95
1.74
1.46
1.22
1.03
0.88
0.68
0.37
-0.08
-0.63
-1.18
-1.63
-1.89
-1.95
-1.87
-1.73
-1.59
-1.49
-1.43
-1.41
-1.46
-1.57
-1.76
-1.98
-2.20
-2.31
-2.29
-2.13
-1.88
-1.60
-1.35
-1.15
-0.94
-0.67
-0.27
0.27
0.97
1.73
2.46
3.00
3.21
2.99
2.37
1.46
0.47
-0.38
-0.94
-1.15
-1.07
-0.82
-0.48
-0.12
0.23
0.58
0.92
1.24
1.52
1.72
1.82
1.81
1.71
1.55
1.39
1.26
1.19
1.15
1.13
1.11
1.11
1.17
1.33
1.60
1.91
2.16
2.23
2.05
1.61
0.99
0.34
-0.24
-0.66
-0.93
-1.11
-1.27
-1.46
-1.70
-1.96
-2.19
-2.38
-2.47
-2.43
-2.25
-1.94
-1.55
-1.23
-1.11
-1.27
-1.69
-2.23
-2.68
-2.87
-2.77
-2.47
-2.16
-2.01
-2.06
-2.23
-2.37
-2.30
-1.95
-1.32
-0.51
0.38
1.23
1.96
2.52
2.90
3.06
3.00
2.74
2.33
1.83
1.31
0.82
0.38
0.01
-0.27
-0.45
-0.52
-0.50
-0.40
-0.27
-0.10
0.09
0.33
0.62
0.96
1.30
1.59
1.78
1.88
1.88
1.80
1.64
1.44
1.22
1.03
0.92
0.92
1.03
1.24
1.50
1.77
1.99
2.12
2.15
2.07
1.88
1.54
1.02
0.30
-0.55
-1.42
-2.12
-2.51
-2.52
-2.23
-1.80
-1.38
-1.08
-0.92
-0.87
-0.87
-0.91
-0.98
-1.08
-1.21
-1.38
-1.56
-1.72
-1.84
-1.91
-1.94
-1.96
-1.95
-1.88
-1.71
-1.42
-1.04
-0.67
-0.41
-0.30
-0.28
-0.22
-0.01
0.36
0.77
1.01
0.91
0.44
-0.25
-0.93
-1.36
-1.46
-1.25
-0.86
-0.44
-0.10
0.17
0.39
0.63
0.87
1.06
1.14
1.10
0.98
0.88
0.88
1.02
1.26
1.52
1.73
1.85
1.88
1.86
1.84
1.86
1.95
2.13
2.38
2.66
2.93
3.14
3.20
3.07
2.74
2.20
1.48
0.65
-0.22
-1.03
-1.72
-2.20
-2.46
-2.50
-2.35
-2.10
-1.81
-1.53
-1.31
-1.12
-0.95
-0.81
-0.72
-0.73
-0.88
-1.18
-1.59
-2.05
-2.49
-2.84
-3.06
-3.12
-3.04
-2.84
-2.57
-2.27
-1.98
-1.70
-1.40
-1.01
-0.47
0.23
1.03
1.78
2.34
2.56
2.43
1.98
1.36
0.70
0.10
-0.33
-0.53
-0.43
-0.03
0.61
1.37
2.05
2.49
2.61
2.42
2.00
1.49
0.97
0.51
0.16
-0.03
-0.01
0.23
0.67
1.20
1.67
1.95
2.00
1.87
1.69
1.65
1.84
2.26
2.80
3.32
3.67
3.79
3.65
3.25
2.63
1.81
0.83
-0.28
-1.44
-2.54
-3.43
-3.98
-4.12
-3.88
-3.38
-2.84
-2.40
-2.14
-2.04
-2.01
-1.95
-1.81
-1.64
-1.48
-1.40
-1.43
-1.55
-1.73
-1.91
-2.04
-2.07
-1.97
-1.76
-1.41
-0.95
-0.39
0.23
0.80
1.20
1.34
1.21
0.92
0.61
0.40
0.35
0.41
0.54
0.67
0.77
0.81
0.72
0.47
0.08
-0.34
-0.64
-0.70
-0.49
-0.13
0.22
0.45
0.58
0.70
0.92
1.25
1.58
1.79
1.75
1.48
1.07
0.65
0.32
0.12
0.00
-0.10
-0.22
-0.37
-0.48
-0.48
-0.29
0.07
0.50
0.83
0.87
0.47
-0.41
-1.68
-3.08
-4.33
-5.12
-5.28
-4.78
-3.77
-2.51
-1.25
-0.22
0.48
0.85
0.94
0.84
0.68
0.56
0.56
0.66
0.66
0.29
-0.67
-2.21
-4.05
-5.67
-6.57
-6.50
-5.61
-4.31
-3.06
-2.17
-1.67
-1.39
-1.12
-0.67
0.03
0.97
2.12
3.36
4.54
5.49
6.09
6.31
6.24
6.00
5.72
5.43
5.11
4.76
4.41
4.14
3.95
3.80
3.55
3.08
2.36
1.50
0.68
0.05
-0.35
-0.63
-1.04
-1.83
-3.16
-4.93
-6.80
-8.29
-8.93
-8.49
-7.09
-5.14
-3.24
-1.86
-1.24
-1.30
-1.70
-2.11
-2.31
-2.28
-2.19
-2.21
-2.46
-2.94
-3.59
-4.35
-5.20
-6.14
-7.11
-7.98
-8.62
-8.95
-9.01
-8.99
-9.08
-9.40
-9.96
-10.67
-11.44
-12.29
-13.31
-14.60
-16.19
-17.99
-19.84
-21.63
-23.35
-25.11
-27.10
-29.47
-32.30
-35.49
-38.90
-42.31
-45.59
-48.77
-52.03
-55.68
-60.01
-65.17
-71.05
-77.39
-83.96
-90.67
-97.66
-105.12
-113.06
-121.23
-129.36
-137.50
-146.15
-155.87
-166.40
-175.93
-181.05
-177.67
-162.60
-134.90
-96.12
-49.39
1.97
55.49
109.46
162.06
210.61
251.66
282.18
300.95
309.33
310.78
309.40
308.27
308.65
310.05
311.16
311.04
309.78
308.31
307.62
307.71
306.97
302.41
290.62
269.10
237.35
196.79
149.94
99.12
45.81
-8.93
-63.37
-114.29
-157.14
-187.58
-203.32
-205.37
-197.61
-185.19
-172.47
-161.67
-152.87
-144.94
-136.85
-128.39
-120.11
-112.70
-106.41
-100.85
-95.27
-89.04
-81.95
-74.38
-67.02
-60.53
-55.20
-50.91
-47.19
-43.48
-39.43
-35.00
-30.44
-26.17
-22.56
-19.71
-17.47
-15.54
-13.57
-11.39
-9.04
-6.77
-4.86
-3.50
-2.70
-2.26
-1.91
-1.40
-0.64
0.30
1.22
1.94
2.33
2.40
2.28
2.15
2.21
2.57
3.27
4.24
5.34
6.36
7.11
7.42
7.22
6.54
5.48
4.21
2.87
1.55
0.30
-0.84
-1.81
-2.59
-3.15
-3.52
-3.78
-3.98
-4.16
-4.31
-4.39
-4.34
-4.16
-3.86
-3.49
-3.13
-2.82
-2.57
-2.37
-2.13
-1.79
-1.31
-0.75
-0.22
0.15
0.31
0.31
0.25
0.21
0.17
0.03
-0.30
-0.84
-1.50
-2.10
-2.52
-2.69
-2.68
-2.57
-2.46
-2.38
-2.33
-2.29
-2.21
-2.10
-1.97
-1.84
-1.72
-1.59
-1.43
-1.23
-0.97
-0.72
-0.55
-0.52
-0.67
-0.98
-1.37
-1.78
-2.12
-2.35
-2.42
-2.33
-2.10
-1.81
-1.53
-1.31
-1.14
-0.98
-0.80
-0.57
-0.36
-0.24
-0.25
-0.38
-0.54
-0.65
-0.70
-0.72
-0.75
-0.83
-0.95
-1.06
-1.15
-1.23
-1.32
-1.38
-1.35
-1.12
-0.64
0.07
0.87
1.61
2.20
2.62
2.94
3.26
3.62
3.96
4.15
4.06
3.61
2.82
1.79
0.70
-0.29
-1.07
-1.57
-1.82
-1.85
-1.71
-1.46
-1.14
-0.79
-0.45
-0.18
-0.05
-0.12
-0.44
-0.95
-1.54
-2.04
-2.27
-2.18
-1.81
-1.34
-0.91
-0.62
-0.46
-0.32
-0.11
0.20
0.56
0.88
1.08
1.17
1.20
1.27
1.42
1.64
1.83
1.90
1.77
1.45
1.04
0.68
0.48
0.46
0.53
0.52
0.30
-0.18
-0.80
-1.39
-1.79
-1.94
-1.90
-1.76
-1.59
-1.39
-1.14
-0.83
-0.57
-0.49
-0.70
-1.15
-1.73
-2.22
-2.52
-2.61
-2.59
-2.56
-2.56
-2.56
-2.48
-2.22
-1.73
-1.02
-0.12
0.91
1.94
2.82
3.36
3.43
3.01
2.22
1.28
0.42
-0.17
-0.42
-0.34
-0.00
0.49
1.04
1.55
1.92
2.10
2.04
1.75
1.28
0.75
0.30
0.10
0.22
0.65
1.22
1.70
1.91
1.76
1.32
0.76
0.26
-0.10
-0.30
-0.41
-0.49
-0.59
-0.73
-0.92
-1.15
-1.39
-1.54
-1.54
-1.34
-0.97
-0.58
-0.30
-0.23
-0.34
-0.53
-0.64
-0.59
-0.38
-0.13
0.03
0.03
-0.12
-0.29
-0.33
-0.16
0.23
0.72
1.16
1.39
1.36
1.08
0.64
0.13
-0.37
-0.84
-1.28
-1.69
-2.06
-2.35
-2.57
-2.76
-3.00
-3.40
-3.99
-4.74
-5.54
-6.27
-6.87
-7.36
-7.83
-8.36
-8.98
-9.67
-10.38
-11.13
-11.92
-12.81
-13.83
-14.97
-16.24
-17.62
-19.11
